##TITLE=4-Chloro-3,5-dinitrotoluene
##JCAMP-DX=4.24
##DATA TYPE=INFRARED SPECTRUM
##ORIGIN=EPA-IR VAPOR PHASE LIBRARY
##OWNER=SRD/NIST
Collection (C) 2018 copyright by the U.S. Secretary of Commerce
on behalf of the United States of America. All rights reserved.
##CAS REGISTRY NO=5264-65-3
##MOLFORM=C 7 H 5 Cl N 2 O 4
##$NIST SOURCE=MSDC-IR
##STATE=gas
##XUNITS=1/CM
##YUNITS=ABSORBANCE
##XFACTOR=1.
##YFACTOR=0.001
##DELTAX=1.92898
##FIRSTX=549.8
##LASTX=4000.7
##FIRSTY=1.615
##MAXX=4000.7
##MINX=549.759
##MAXY=0.216985
##MINY=0
##NPOINTS=1790
##XYDATA=(X++(Y..Y))
549.759 1.615 1.595 1.795 2.075 2.085 1.935 2.125 2.545 2.485 2.585
569.049 2.675 2.625 2.515 2.325 2.415 2.115 1.905 2.075 1.885 1.495
588.339 1.555 1.395 1.205 1.365 1.225 1.145 1.125 1.155 1.335 1.165
607.628 0.903 0.9479 0.8646 0.733 0.7202 0.688 0.8922 1.0992 1.125 1.145
626.918 1.345 1.625 1.825 1.815 1.855 2.005 2.015 2.015 2.175 2.425
646.208 2.395 2.225 2.215 2.425 2.655 2.665 2.585 2.585 2.705 2.855
665.498 2.905 3.075 3.335 3.255 3.145 3.215 3.205 3.165 2.975 2.605
684.787 2.435 2.455 2.525 2.495 2.535 2.795 3.025 3.445 3.935 4.565
704.077 5.605 7.145 9.365 12.775 17.915 25.185 33.655 40.815 45.215 47.405
723.367 47.485 44.865 39.915 32.805 24.455 17.285 12.565 10.025 8.755 7.945
742.657 7.485 7.145 6.785 6.535 6.455 6.505 6.525 6.485 6.385 6.415
761.947 6.205 5.905 5.665 5.175 4.685 4.405 4.085 3.695 3.435 3.215
781.236 3.155 3.305 3.535 3.875 4.505 5.515 6.825 8.085 8.645 8.545
800.526 8.605 8.405 7.425 5.855 4.305 3.035 2.255 1.895 1.655 1.635
819.816 1.375 1.225 1.275 1.1012 1.0436 1.195 1.335 1.335 1.355 1.375
839.106 1.445 1.455 1.475 1.785 2.025 2.305 2.775 3.405 4.415 5.465
858.395 6.735 8.445 9.975 11.315 12.745 13.895 14.005 12.905 11.435 9.875
877.685 8.225 6.895 5.825 4.965 4.355 3.945 3.895 3.905 4.005 4.535
896.975 5.075 5.715 6.595 7.705 9.025 10.685 12.415 13.815 14.565 14.735
916.265 14.425 13.385 11.825 9.745 7.495 5.495 3.925 2.795 2.165 1.815
935.555 1.565 1.465 1.175 1.0927 1.135 1.0884 1.185 1.135 1.0242 0.8647
954.844 0.8813 0.8663 0.8666 0.874 0.7121 0.6551 0.6267 0.7412 0.9363 1.0232
974.134 0.9216 0.8783 1.0544 1.175 1.0105 0.9102 0.9349 0.9269 0.9677 1.1147
993.424 1.325 1.455 1.415 1.395 1.295 1.175 1.077 1.065 0.9787 0.8705
1012.714 0.9536 0.801 0.6995 0.827 1.0905 1.0097 0.9767 1.375 1.545 1.195
1032.003 1.135 1.455 1.815 2.115 2.525 2.905 3.345 3.915 4.275 4.885
1051.293 5.415 6.445 7.795 9.325 11.085 12.495 14.065 15.305 15.835 15.975
1070.583 15.615 14.595 12.905 10.755 8.595 6.955 5.745 4.475 3.305 2.755
1089.873 2.655 2.365 1.945 1.775 1.685 1.395 1.125 1.365 1.735 1.885
1109.163 1.905 1.455 1.245 1.625 1.675 1.705 1.745 1.645 1.545 1.695
1128.452 1.945 2.145 2.015 1.825 2.035 2.005 2.115 2.215 2.245 2.675
1147.742 2.985 3.355 3.895 3.935 4.305 4.755 4.745 4.445 4.195 4.215
1167.032 3.805 3.315 3.025 2.775 2.485 2.375 2.325 2.265 2.185 2.205
1186.322 2.325 2.345 2.505 2.725 2.925 3.185 3.435 3.145 2.865 2.995
1205.611 3.195 3.055 3.045 3.385 3.235 2.655 2.705 2.775 2.575 2.995
1224.901 3.035 2.495 2.345 2.835 2.875 2.525 2.485 2.625 2.895 3.245
1244.191 3.225 3.195 3.435 3.475 3.605 3.855 4.235 4.525 4.925 5.845
1263.481 6.705 7.585 8.415 8.975 9.245 9.365 9.345 8.925 8.065 7.255
1282.771 6.695 6.135 5.845 5.815 5.985 6.305 6.665 7.185 7.825 8.495
1302.060 9.355 10.385 11.495 12.795 14.235 15.855 17.765 20.015 22.405 24.995
1321.350 27.675 30.395 33.175 36.015 38.995 42.105 45.615 49.615 54.165 59.385
1340.640 65.185 71.145 77.025 82.245 86.245 88.685 89.215 87.625 84.035 78.805
1359.930 72.275 64.945 57.325 50.005 43.275 37.435 32.645 28.715 25.595 23.075
1379.219 20.925 19.175 17.685 16.465 15.725 15.145 14.635 14.335 13.985 13.595
1398.509 13.265 12.855 12.415 12.005 11.605 11.115 10.555 9.985 9.415 8.855
1417.799 8.335 7.975 7.735 7.615 7.575 7.645 7.855 8.015 8.205 8.485
1437.089 8.765 9.025 9.455 9.895 10.395 11.095 11.835 12.665 13.625 14.515
1456.378 15.315 16.035 16.445 16.485 16.175 15.635 14.865 13.885 12.805 11.715
1475.668 10.745 10.045 9.645 9.535 9.705 10.085 10.595 11.185 11.835 12.485
1494.958 13.215 14.075 14.835 15.635 16.585 17.605 18.785 20.125 21.625 23.465
1514.248 25.495 27.825 30.505 33.445 36.865 40.545 44.485 48.635 52.865 57.005
1533.538 61.255 65.625 69.925 74.855 80.715 88.005 97.385 109.105 123.165 139.585
1552.827 156.935 175.045 191.345 205.185 214.875 216.985 209.015 192.435 172.545 152.505
1572.117 133.875 117.165 102.495 90.815 82.485 76.075 70.635 65.475 60.405 55.105
1591.407 49.485 43.685 38.135 33.075 28.685 25.005 21.915 19.355 17.205 15.365
1610.697 13.825 12.475 11.365 10.265 9.245 8.485 7.785 7.015 6.375 5.875
1629.986 5.315 4.765 4.315 3.905 3.605 3.345 3.065 2.855 2.655 2.425
1649.276 2.305 2.225 2.145 2.075 1.955 1.915 1.845 1.765 1.755 1.785
1668.566 1.745 1.735 1.785 1.755 1.725 1.695 1.695 1.695 1.655 1.675
1687.856 1.625 1.555 1.545 1.445 1.375 1.365 1.275 1.235 1.225 1.175
1707.146 1.165 1.215 1.205 1.215 1.245 1.265 1.255 1.245 1.245 1.155
1726.435 1.145 1.135 1.155 1.135 1.0081 0.986 0.9516 0.9178 0.9717 0.9942
1745.725 1.0507 1.175 1.245 1.315 1.335 1.435 1.645 1.765 1.905 2.085
1765.015 2.215 2.315 2.415 2.415 2.325 2.295 2.165 1.975 1.805 1.635
1784.305 1.455 1.315 1.235 1.175 1.145 1.1033 1.0453 0.9493 0.9117 0.9336
1803.594 0.9069 0.8544 0.8639 0.931 0.9501 0.8837 0.8417 0.8359 0.7578 0.6931
1822.884 0.6859 0.6009 0.5186 0.5491 0.5559 0.5886 0.6406 0.6112 0.5562 0.5469
1842.174 0.5577 0.5434 0.5014 0.4888 0.5257 0.5485 0.5315 0.5777 0.5876 0.5297
1861.464 0.5514 0.6108 0.6018 0.5615 0.5337 0.5547 0.5837 0.5164 0.5018 0.4854
1880.754 0.4418 0.4249 0.4333 0.4634 0.4388 0.4453 0.4498 0.4189 0.479 0.5321
1900.043 0.5444 0.5211 0.498 0.5583 0.574 0.5172 0.5139 0.5231 0.5499 0.5591
1919.333 0.5255 0.489 0.4576 0.4575 0.4767 0.4746 0.4588 0.4774 0.428 0.4093
1938.623 0.4149 0.3692 0.4118 0.4628 0.5174 0.5454 0.5004 0.4545 0.4379 0.4693
1957.913 0.4597 0.4064 0.3782 0.3634 0.3325 0.3472 0.3939 0.4251 0.4286 0.3842
1977.202 0.3677 0.3418 0.3467 0.374 0.376 0.4241 0.3791 0.363 0.3333 0.2904
1996.492 0.3357 0.3439 0.3085 0.2701 0.2899 0.2999 0.3209 0.3502 0.3368 0.315
2015.782 0.3225 0.3486 0.3711 0.3182 0.2542 0.2716 0.2865 0.3125 0.313 0.3259
2035.072 0.2791 0.2748 0.3331 0.2823 0.3051 0.3178 0.2924 0.2135 0.17314 0.2539
2054.362 0.2834 0.2571 0.2708 0.3283 0.3175 0.3264 0.343 0.3023 0.3077 0.3016
2073.651 0.2406 0.2471 0.2979 0.3556 0.3338 0.2634 0.2646 0.2434 0.2745 0.2939
2092.941 0.2847 0.2878 0.2919 0.3003 0.3173 0.3329 0.3107 0.2535 0.2558 0.3052
2112.231 0.3186 0.321 0.3019 0.266 0.2296 0.2707 0.2976 0.2469 0.21169 0.2184
2131.521 0.238 0.2333 0.268 0.2808 0.273 0.2563 0.2299 0.20735 0.2283 0.2542
2150.810 0.266 0.2373 0.1683 0.2187 0.2772 0.2432 0.2407 0.2723 0.3275 0.3706
2170.100 0.3424 0.3368 0.2748 0.259 0.3225 0.3042 0.2761 0.2888 0.3071 0.3057
2189.390 0.2913 0.2931 0.3218 0.339 0.3335 0.3305 0.2917 0.2606 0.2696 0.2937
2208.680 0.2371 0.2352 0.2799 0.279 0.2986 0.2565 0.2194 0.18581 0.16919 0.2279
2227.970 0.2614 0.2599 0.2273 0.20129 0.21118 0.2535 0.2438 0.17797 0.17491 0.20218
2247.259 0.2988 0.37 0.3781 0.3317 0.2566 0.2649 0.332 0.345 0.3084 0.3803
2266.549 0.4034 0.3894 0.4068 0.3816 0.3953 0.4161 0.4166 0.4075 0.4214 0.4063
2285.839 0.4094 0.4074 0.3971 0.3943 0.3314 0.3594 0.4068 0.3601 0.3012 0.2867
2305.129 0.308 0.335 0.2864 0.20266 0.296 0.3941 0.4146 0.4295 0.329 0.303
2324.418 0.3777 0.4174 0.4747 0.5245 0.5371 0.5563 0.5606 0.5892 0.5756 0.5023
2343.708 0.5364 0.6151 0.5996 0.6465 0.7349 0.7594 0.7654 0.6683 0.605 0.6136
2362.998 0.5905 0.6615 0.6667 0.5746 0.5085 0.5128 0.5264 0.4835 0.4976 0.4752
2382.288 0.4359 0.3848 0.4165 0.4892 0.42 0.4132 0.4621 0.4262 0.3786 0.3871
2401.578 0.3995 0.4005 0.4176 0.4254 0.3748 0.3141 0.3825 0.4442 0.4153 0.4247
2420.867 0.4809 0.4883 0.4181 0.4174 0.45 0.4683 0.4058 0.3596 0.3374 0.3287
2440.157 0.3857 0.3783 0.4871 0.5221 0.4279 0.4383 0.4916 0.5053 0.4447 0.4424
2459.447 0.5125 0.5408 0.5695 0.6606 0.6372 0.5809 0.6541 0.7269 0.7159 0.6377
2478.737 0.5764 0.6089 0.6452 0.5975 0.5028 0.4848 0.5559 0.4659 0.4073 0.4106
2498.026 0.415 0.4715 0.456 0.5132 0.5175 0.4401 0.4823 0.5183 0.5591 0.5537
2517.316 0.4584 0.4663 0.5451 0.58 0.5093 0.4345 0.4079 0.4157 0.4285 0.3612
2536.606 0.3361 0.3556 0.3583 0.4292 0.4084 0.3055 0.2735 0.2915 0.3303 0.3728
2555.896 0.4203 0.4435 0.3805 0.3771 0.4044 0.3559 0.3845 0.4266 0.4672 0.5051
2575.186 0.5202 0.494 0.4466 0.4914 0.5293 0.5038 0.4593 0.4467 0.511 0.5931
2594.475 0.7044 0.7033 0.5884 0.5053 0.5082 0.5923 0.6774 0.6977 0.6803 0.6826
2613.765 0.7189 0.761 0.7144 0.6812 0.7199 0.7741 0.7487 0.7149 0.6852 0.71
2633.055 0.7662 0.7615 0.791 0.8386 0.875 0.8043 0.8148 0.8409 0.8077 0.9135
2652.345 0.9275 0.836 0.9485 0.9592 0.7791 0.8019 0.9006 0.9113 0.8983 0.9057
2671.634 0.9537 0.9845 0.978 0.9774 1.0368 1.0913 1.0978 1.165 1.215 1.245
2690.924 1.335 1.305 1.195 1.305 1.355 1.325 1.355 1.305 1.285 1.285
2710.214 1.235 1.175 1.195 1.145 1.1073 1.125 1.0802 1.0834 1.0989 1.0451
2729.504 0.9116 0.9234 1.008 1.0018 1.014 0.9921 0.876 0.8441 0.8791 0.9448
2748.794 0.982 0.8869 0.8595 0.8642 0.902 0.9802 0.9387 0.9398 0.957 0.9192
2768.083 0.9141 0.8678 0.8214 0.9043 0.9053 0.8017 0.8761 0.8587 0.8675 1.0004
2787.373 1.0154 0.9838 0.9184 0.8894 0.9492 1.0184 0.9522 0.9712 1.0678 1.135
2806.663 1.195 1.185 1.155 1.165 1.235 1.235 1.315 1.465 1.385 1.295
2825.953 1.375 1.395 1.435 1.585 1.625 1.635 1.675 1.755 1.845 1.925
2845.242 1.895 1.905 2.125 2.325 2.445 2.575 2.695 2.865 2.905 3.015
2864.532 3.235 3.425 3.685 3.875 4.055 4.255 4.405 4.425 4.425 4.545
2883.822 4.505 4.575 4.635 4.565 4.645 4.685 4.795 4.875 4.955 5.025
2903.112 5.105 5.135 5.105 5.085 5.055 5.155 5.255 5.195 5.145 5.095
2922.401 5.055 5.215 5.425 5.725 6.185 6.715 7.115 7.505 7.785 7.855
2941.691 7.835 7.505 7.095 6.595 5.905 5.275 4.685 4.235 3.935 3.645
2960.981 3.365 3.145 2.955 2.825 2.695 2.565 2.495 2.285 2.035 1.875
2980.271 1.805 1.745 1.685 1.765 1.805 1.705 1.765 1.865 1.915 2.075
2999.561 2.215 2.305 2.375 2.375 2.455 2.585 2.555 2.575 2.655 2.745
3018.850 2.725 2.655 2.675 2.615 2.495 2.335 2.245 2.285 2.205 1.975
3038.140 1.785 1.655 1.645 1.725 1.775 1.795 1.905 1.905 1.765 1.735
3057.430 1.745 1.805 1.915 1.905 1.895 1.945 1.895 1.865 1.895 1.795
3076.720 1.685 1.695 1.635 1.505 1.335 1.185 1.145 1.0236 1.0043 1.0266
3096.009 0.9114 0.8762 0.936 1.0085 0.9312 0.9133 1.0326 1.0136 0.8305 0.6813
3115.299 0.6084 0.6991 0.7457 0.5966 0.6073 0.6489 0.5129 0.5314 0.6524 0.6808
3134.589 0.6284 0.5778 0.557 0.4873 0.3739 0.2958 0.3312 0.3672 0.3413 0.1932
3153.879 0.20433 0.3672 0.3865 0.461 0.5465 0.3667 0.2495 0.3115 0.2535 0.315
3173.169 0.3619 0.2842 0.2855 0.2741 0.3491 0.4682 0.3855 0.3276 0.3919 0.3229
3192.458 0.25 0.3148 0.361 0.2902 0.2837 0.3312 0.2633 0.3524 0.4202 0.3702
3211.748 0.302 0.2211 0.2425 0.3433 0.4442 0.3486 0.20758 0.16729 0.0968 0.0398
3231.038 0.10868 0.2722 0.288 0.2346 0.2748 0.2405 0.19598 0.18515 0.2361 0.2755
3250.328 0.253 0.2707 0.3364 0.4498 0.3913 0.2478 0.2314 0.3182 0.3165 0.2656
3269.617 0.2995 0.2709 0.3279 0.3102 0.2963 0.2821 0.2229 0.2664 0.19883 0.089
3288.907 0.0508 0 0.0897 0.119673 0.0264 0.15927 0.18783 0.0759 0.0495 0.1026
3308.197 0.2238 0.20247 0.1433 0.2177 0.3338 0.19786 0.0687 0.2287 0.3562 0.3523
3327.487 0.3021 0.2866 0.332 0.4156 0.3795 0.2678 0.120492 0.0922 0.16935 0.2208
3346.777 0.3131 0.3091 0.15282 0.0789 0.0824 0.20939 0.3623 0.3037 0.188 0.15998
3366.066 0.3054 0.3332 0.15166 0.0401 0.2274 0.3357 0.2402 0.2851 0.2994 0.15011
3385.356 0.118061 0.2612 0.2303 0.2344 0.3104 0.1816 0.13789 0.2849 0.2352 0.0982
3404.646 0.14209 0.2197 0.3561 0.3622 0.2866 0.3768 0.4388 0.3002 0.10936 0.120785
3423.936 0.2814 0.3017 0.3333 0.4755 0.4102 0.315 0.21475 0.21235 0.2535 0.2232
3443.225 0.17958 0.2239 0.21272 0.219 0.2612 0.328 0.4441 0.2742 0.229 0.3086
3462.515 0.2516 0.268 0.3585 0.3099 0.2537 0.2303 0.261 0.2454 0.2231 0.3559
3481.805 0.4544 0.4585 0.4616 0.3352 0.3472 0.4742 0.3032 0.2261 0.2649 0.2332
3501.095 0.3304 0.389 0.3247 0.2458 0.123362 0.17765 0.33 0.3998 0.3517 0.3594
3520.385 0.4067 0.2628 0.3832 0.4672 0.3522 0.413 0.491 0.3681 0.2513 0.19159
3539.674 0.19742 0.4213 0.5166 0.3568 0.2876 0.315 0.2397 0.19721 0.2648 0.309
3558.964 0.3978 0.524 0.4244 0.2648 0.17391 0.2658 0.3181 0.20115 0.2457 0.2207
3578.254 0.16978 0.253 0.2333 0.20022 0.2768 0.2464 0.120187 0.0957 0.2661 0.5021
3597.544 0.5441 0.4272 0.3707 0.4091 0.3201 0.21388 0.14087 0.13654 0.2481 0.2586
3616.833 0.2979 0.2481 0.13698 0.15546 0.1477 0.247 0.2261 0.2295 0.2361 0.2841
3636.123 0.3724 0.2327 0.15044 0.20299 0.3349 0.2832 0.2303 0.3056 0.2874 0.3817
3655.413 0.3746 0.3199 0.4377 0.4403 0.3182 0.3094 0.3766 0.2761 0.311 0.4281
3674.703 0.2936 0.2743 0.3244 0.15548 0.0434 0.2641 0.3779 0.3249 0.2904 0.2549
3693.993 0.3099 0.3285 0.3496 0.2915 0.2508 0.3098 0.4068 0.3067 0.15714 0.2443
3713.282 0.4263 0.4601 0.3615 0.3547 0.3306 0.4114 0.3923 0.2271 0.2985 0.2767
3732.572 0.21199 0.2895 0.3345 0.2893 0.2643 0.3057 0.2847 0.2993 0.4714 0.4746
3751.862 0.3071 0.20957 0.17777 0.2507 0.2956 0.2774 0.2859 0.3504 0.3032 0.10861
3771.152 0.0714 0.2968 0.3796 0.3599 0.5295 0.5025 0.3271 0.2927 0.3866 0.3309
3790.441 0.0966 0.0453 0.0603 0.21179 0.3331 0.3599 0.39 0.334 0.2844 0.20321
3809.731 0.14355 0.2375 0.2295 0.19339 0.18311 0.17251 0.2992 0.3241 0.2591 0.13745
3829.021 0.15042 0.21147 0.19467 0.16005 0.2564 0.3226 0.2274 0.2346 0.2389 0.3329
3848.311 0.4568 0.5348 0.5136 0.4204 0.3559 0.3445 0.3817 0.4028 0.3992 0.3922
3867.601 0.3383 0.3202 0.2824 0.2872 0.3843 0.3029 0.263 0.3392 0.2712 0.21475
3886.890 0.2706 0.2769 0.2847 0.2965 0.3494 0.2509 0.15898 0.2226 0.3233 0.2296
3906.180 0.1717 0.18528 0.14178 0.21464 0.4505 0.6153 0.3541 0.17075 0.26 0.3019
3925.470 0.3461 0.2683 0.15877 0.3189 0.4532 0.4366 0.399 0.3261 0.2967 0.3443
3944.760 0.3382 0.4928 0.5187 0.4278 0.5426 0.5411 0.4328 0.3742 0.426 0.4238
3964.049 0.357 0.3561 0.21347 0.13949 0.14982 0.20528 0.3373 0.301 0.2325 0.298
3983.339 0.3233 0.28 0.2594 0.3183 0.4529 0.2837 0.2412 0.4756 0.3565 0.2737
##END=
