##TITLE=cis-Permethrin
##JCAMP-DX=4.24
##DATA TYPE=INFRARED SPECTRUM
##ORIGIN=NIST Mass Spectrometry Data Center
##OWNER=NIST Standard Reference Data Program
Collection (C) 2018 copyright by the U.S. Secretary of Commerce
on behalf of the United States of America. All rights reserved.
##CAS REGISTRY NO=52645-53-1
##MOLFORM=C 21 H 20 Cl 2 O 3
##$NIST SOURCE=MSDC-IR
##SPECTROMETER/DATA SYSTEM=HP-GC/MS/IRD
##STATE=gas
##XUNITS=1/CM
##YUNITS=ABSORBANCE
##XFACTOR=1.0
##YFACTOR=0.000006700
##DELTAX=4.0
##FIRSTX=550.0
##LASTX=3846.0
##FIRSTY=0.001307
##MAXX=3846
##MINX=550
##MAXY=0.067
##MINY=0
##NPOINTS=825
##XYDATA=(X++(Y..Y))
550.0 195 154 16 42 36 35 32 43 52 56
590.0 47 30 15 3 0 2 15 34 55 98
630.0 155 224 300 364 391 381 358 328 301 289
670.0 311 394 570 897 1420 1907 1893 1413 920 611
710.0 465 406 409 465 549 643 745 836 920 1027
750.0 1143 1262 1379 1490 1581 1666 1758 1842 1883 1830
790.0 1694 1526 1401 1369 1419 1483 1483 1422 1378 1365
830.0 1358 1371 1413 1472 1502 1498 1463 1397 1339 1321
870.0 1338 1363 1359 1311 1257 1251 1300 1383 1494 1634
910.0 1815 2034 2258 2422 2486 2441 2299 2108 1922 1755
950.0 1591 1424 1252 1105 1008 965 973 1029 1122 1241
990.0 1361 1450 1475 1363 1152 986 918 939 970 902
1030.0 788 755 812 923 1059 1179 1301 1481 1766 2124
1070.0 2538 2986 3305 3272 2876 2359 1944 1734 1715 1886
1110.0 2275 2919 3888 5231 6921 8541 9170 8431 7127 6093
1150.0 5545 5480 5876 6545 7214 7727 7802 7110 5866 4707
1190.0 4007 3776 3922 4364 5052 5832 6307 6129 5459 4849
1230.0 4654 4872 5432 6330 7536 8883 9911 10000 9001 7462
1270.0 6011 4872 3980 3289 2777 2416 2178 2026 1911 1785
1310.0 1640 1502 1393 1327 1302 1328 1426 1601 1866 2196
1350.0 2419 2323 1974 1667 1584 1683 1828 1959 2062 2116
1390.0 2193 2224 2087 2045 2252 2445 2393 2116 1795 1581
1430.0 1543 1718 2157 2759 3199 3239 3001 2674 2382 2211
1470.0 2252 2667 3677 5294 6778 6858 5284 3262 1905 1247
1510.0 898 708 597 527 478 451 442 451 481 526
1550.0 608 739 951 1282 1739 2316 3018 3929 4839 5245
1590.0 4868 4072 3334 2813 2508 2286 1963 1513 1079 765
1630.0 568 447 370 320 287 265 248 232 229 233
1670.0 238 249 267 296 331 369 428 496 561 634
1710.0 735 889 1117 1457 2017 2955 4355 5821 6436 5666
1750.0 4076 2668 1792 1296 1013 835 700 585 482 396
1790.0 334 285 249 220 200 180 158 143 136 129
1830.0 122 124 132 140 145 150 158 160 152 142
1870.0 127 113 100 87 79 72 70 69 70 81
1910.0 98 119 145 173 197 193 169 145 128 119
1950.0 107 90 80 77 77 79 80 86 94 95
1990.0 95 96 91 87 84 82 81 82 86 93
2030.0 98 103 106 104 99 92 81 75 72 68
2070.0 66 67 65 64 62 58 55 51 44 37
2110.0 31 25 23 24 19 15 13 14 14 11
2150.0 6 4 0 1 6 6 8 9 9 11
2190.0 11 10 10 12 16 16 17 19 14 13
2230.0 10 10 11 10 10 11 12 13 14 11
2270.0 13 20 22 22 26 29 27 31 38 44
2310.0 49 50 47 46 41 34 26 25 25 24
2350.0 23 24 26 28 29 35 46 52 55 61
2390.0 70 78 81 82 81 81 86 88 84 78
2430.0 77 70 61 55 51 45 44 42 38 34
2470.0 30 32 32 27 27 27 26 28 28 26
2510.0 25 27 30 29 29 28 26 29 25 24
2550.0 26 27 23 25 29 27 22 23 22 18
2590.0 17 20 21 20 18 18 17 17 16 13
2630.0 9 7 6 7 8 7 3 1 0 6
2670.0 8 5 6 8 12 13 12 15 19 19
2710.0 17 18 19 22 26 32 42 56 73 89
2750.0 88 77 65 55 46 40 38 42 44 44
2790.0 43 37 37 39 44 53 62 67 75 85
2830.0 93 103 111 121 137 160 193 234 298 387
2870.0 502 629 727 773 784 787 778 764 755 749
2910.0 751 783 856 965 1106 1261 1383 1422 1393 1385
2950.0 1494 1825 2352 2692 2560 2136 1597 1091 763 594
2990.0 506 462 435 419 420 427 446 475 511 572
3030.0 664 791 934 1064 1136 1119 1075 1076 1130 1223
3070.0 1356 1482 1497 1344 1093 873 716 597 493 398
3110.0 314 240 182 144 121 106 97 91 82 74
3150.0 71 69 65 60 56 54 52 49 47 51
3190.0 57 58 63 70 63 58 55 45 45 37
3230.0 30 28 20 16 18 14 8 11 9 6
3270.0 5 9 11 6 2 1 0 2 7 1
3310.0 1 4 2 5 11 9 4 2 1 2
3350.0 5 6 8 9 8 6 7 7 3 3
3390.0 9 14 10 8 12 15 18 16 16 22
3430.0 21 23 23 25 36 48 55 57 63 65
3470.0 58 55 54 53 50 43 36 30 23 21
3510.0 23 22 27 20 18 25 21 21 26 17
3550.0 11 26 24 14 19 21 21 24 21 17
3590.0 16 21 24 21 19 18 18 17 20 22
3630.0 22 27 27 21 22 23 23 25 24 27
3670.0 32 26 13 16 24 25 20 16 23 30
3710.0 25 19 23 17 11 11 15 19 22 22
3750.0 16 17 15 13 16 14 13 14 22 20
3790.0 11 20 24 17 11 10 16 22 19 10
3830.0 6 18 23 16 12
##END=
