##TITLE=1-Bromo-6-methylheptane
##JCAMP-DX=4.24
##DATA TYPE=INFRARED SPECTRUM
##ORIGIN=NIST Mass Spectrometry Data Center
##OWNER=NIST Standard Reference Data Program
Collection (C) 2018 copyright by the U.S. Secretary of Commerce
on behalf of the United States of America. All rights reserved.
##CAS REGISTRY NO=52648-04-1
##MOLFORM=C 8 H 17 Br
##$NIST SOURCE=MSDC-IR
##SPECTROMETER/DATA SYSTEM=HP-GC/MS/IRD
##STATE=gas
##XUNITS=1/CM
##YUNITS=ABSORBANCE
##XFACTOR=1.0
##YFACTOR=0.000003300
##DELTAX=4.0
##FIRSTX=550.0
##LASTX=3846.0
##FIRSTY=0.000739
##MAXX=3846
##MINX=550
##MAXY=0.033
##MINY=0
##NPOINTS=825
##XYDATA=(X++(Y..Y))
550.0 224 216 207 288 374 426 383 294 202 118
590.0 90 48 24 35 51 72 84 93 130 169
630.0 198 255 339 444 531 585 575 471 333 201
670.0 105 76 80 72 72 88 102 108 120 146
710.0 183 215 240 280 304 297 275 258 230 187
750.0 179 170 168 184 194 190 192 179 149 130
790.0 129 135 126 114 117 128 129 124 132 134
830.0 128 130 130 124 122 120 113 102 98 97
870.0 95 96 124 146 143 150 164 161 153 146
910.0 143 141 146 146 141 140 132 122 125 138
950.0 149 147 144 157 163 157 149 138 129 124
990.0 127 132 134 132 121 112 110 108 110 109
1030.0 112 98 93 96 88 75 81 88 76 79
1070.0 88 83 72 67 79 90 91 86 88 101
1110.0 104 99 91 83 84 88 92 104 112 117
1150.0 147 195 244 294 333 342 325 281 256 255
1190.0 280 320 372 433 470 497 541 638 769 893
1230.0 981 1003 1026 1080 1132 1158 1138 1094 1059 1059
1270.0 1070 1057 994 895 798 714 648 595 548 504
1310.0 455 415 386 372 381 407 438 459 481 514
1350.0 560 608 653 713 778 817 823 821 836 854
1390.0 802 667 494 365 306 278 270 294 344 422
1430.0 530 677 846 998 1101 1170 1232 1323 1389 1381
1470.0 1300 1128 919 711 539 412 316 252 207 167
1510.0 135 117 100 90 82 71 63 59 56 53
1550.0 47 42 43 44 38 36 39 37 29 31
1590.0 30 29 22 21 29 29 30 30 26 27
1630.0 34 31 23 26 31 30 27 28 29 28
1670.0 28 23 23 27 29 24 18 20 22 21
1710.0 19 21 21 21 20 15 18 15 5 8
1750.0 12 15 20 22 18 14 8 6 7 8
1790.0 11 11 11 12 10 7 13 11 9 14
1830.0 11 11 16 12 7 10 11 7 2 0
1870.0 3 11 15 13 11 11 13 10 6 12
1910.0 16 14 11 10 8 10 17 16 10 4
1950.0 5 12 18 17 11 9 11 14 12 11
1990.0 11 14 16 18 21 18 15 17 19 25
2030.0 28 26 20 22 27 25 21 23 25 24
2070.0 20 18 17 14 17 21 19 21 25 23
2110.0 23 26 20 20 25 29 28 27 27 25
2150.0 23 26 31 31 25 25 27 32 36 35
2190.0 37 40 35 28 28 28 30 31 34 34
2230.0 28 23 27 34 34 29 27 33 37 32
2270.0 34 36 35 37 40 40 38 37 38 40
2310.0 38 36 38 34 33 34 36 39 36 35
2350.0 37 35 33 36 35 35 40 39 47 50
2390.0 48 48 49 51 50 51 52 53 50 48
2430.0 48 50 48 44 49 49 45 51 58 54
2470.0 51 49 51 51 51 57 55 50 61 64
2510.0 62 61 59 60 58 60 65 66 74 82
2550.0 77 73 70 77 87 85 89 87 95 103
2590.0 98 102 110 113 113 114 119 128 134 134
2630.0 141 146 145 145 148 149 152 153 153 148
2670.0 150 153 159 159 162 169 175 179 174 172
2710.0 182 190 198 207 221 233 233 235 233 225
2750.0 227 234 236 236 246 260 264 275 290 303
2790.0 330 349 364 398 436 463 500 556 624 706
2830.0 809 947 1146 1417 1758 2142 2559 2944 3273 3559
2870.0 3823 4037 4175 4197 4129 4086 4142 4310 4617 5055
2910.0 5539 6000 6463 7017 7675 8369 8972 9291 9227 8876
2950.0 8528 8528 9080 9845 10000 9004 7092 5061 3514 2519
2990.0 1895 1505 1269 1137 1092 1075 1025 919 763 606
3030.0 497 429 382 350 322 304 286 268 257 248
3070.0 246 238 225 222 216 212 206 195 194 192
3110.0 185 184 179 167 165 167 166 161 156 157
3150.0 159 157 158 155 159 168 172 175 173 169
3190.0 155 139 135 134 131 120 112 108 100 89
3230.0 86 87 82 81 70 69 82 79 71 64
3270.0 60 65 74 76 68 58 62 69 70 73
3310.0 73 72 64 64 66 68 70 72 78 70
3350.0 68 77 77 70 61 70 73 56 51 53
3390.0 55 49 45 53 56 51 48 46 44 49
3430.0 56 56 59 58 53 49 47 50 52 57
3470.0 51 33 33 31 31 43 49 46 46 43
3510.0 39 33 39 46 36 36 34 34 32 29
3550.0 34 34 30 36 40 41 33 23 27 35
3590.0 30 28 29 32 42 41 46 54 48 47
3630.0 50 49 53 55 46 51 58 53 46 35
3670.0 44 61 58 55 51 43 50 53 41 34
3710.0 37 49 63 56 42 52 65 63 50 43
3750.0 53 51 51 48 32 30 44 55 61 68
3790.0 82 78 56 54 76 94 93 82 70 73
3830.0 76 64 55 52 67
##END=
