##TITLE=Duroquinone
##JCAMP-DX=4.24
##DATA TYPE=INFRARED SPECTRUM
##ORIGIN=NIST Mass Spectrometry Data Center
##OWNER=NIST Standard Reference Data Program
Collection (C) 2018 copyright by the U.S. Secretary of Commerce
on behalf of the United States of America. All rights reserved.
##CAS REGISTRY NO=527-17-3
##MOLFORM=C 10 H 12 O 2
##$NIST SOURCE=MSDC-IR
##SPECTROMETER/DATA SYSTEM=HP-GC/MS/IRD
##STATE=gas
##XUNITS=1/CM
##YUNITS=ABSORBANCE
##XFACTOR=1.0
##YFACTOR=0.000014300
##DELTAX=4.0
##FIRSTX=550.0
##LASTX=3846.0
##FIRSTY=0.000286
##MAXX=3846
##MINX=550
##MAXY=0.143
##MINY=0
##NPOINTS=825
##XYDATA=(X++(Y..Y))
550.0 20 0 2 5 7 10 18 27 37 55
590.0 73 84 96 106 124 152 178 183 173 145
630.0 108 77 60 53 45 39 37 38 44 52
670.0 57 71 98 146 223 338 474 614 718 664
710.0 518 402 290 206 161 136 117 99 86 73
750.0 62 56 55 57 60 61 63 68 79 97
790.0 120 159 211 275 341 383 387 357 307 251
830.0 208 197 213 265 356 463 547 573 527 417
870.0 282 177 117 87 72 66 64 63 64 65
910.0 72 77 81 88 93 98 102 104 110 113
950.0 116 124 135 151 177 212 250 292 342 394
990.0 448 499 542 580 610 625 632 637 638 643
1030.0 646 655 679 723 793 879 967 1024 1030 972
1070.0 854 710 565 444 361 312 288 290 308 338
1110.0 385 465 571 635 636 590 481 350 253 197
1150.0 164 148 142 140 140 139 141 147 154 164
1190.0 180 200 223 247 273 304 339 380 429 498
1230.0 593 730 929 1208 1570 1974 2316 2484 2459 2288
1270.0 2060 1922 1989 2255 2633 3013 3274 3330 3171 2830
1310.0 2382 1932 1547 1230 969 763 616 519 462 435
1350.0 438 479 578 776 1132 1635 2122 2429 2500 2230
1390.0 1709 1210 877 705 621 577 551 533 520 509
1430.0 498 488 479 470 462 453 444 434 429 429
1470.0 436 448 465 488 514 535 546 541 522 492
1510.0 461 432 409 390 377 366 356 349 346 347
1550.0 344 340 331 321 311 304 300 308 326 362
1590.0 415 482 577 714 894 1126 1447 1882 2356 2812
1630.0 3236 3641 4069 4615 5508 6807 8436 9683 10000 9364
1670.0 7689 5354 3315 2073 1384 1019 812 677 585 518
1710.0 467 428 395 363 325 281 235 193 159 135
1750.0 119 107 99 94 91 87 80 73 68 63
1790.0 60 58 57 56 55 54 52 51 50 49
1830.0 48 47 44 40 37 32 27 24 22 20
1870.0 19 19 18 17 19 17 19 20 19 21
1910.0 23 25 29 33 32 31 29 27 25 23
1950.0 22 21 20 21 19 18 17 17 18 19
1990.0 19 18 19 19 20 21 19 17 18 18
2030.0 16 14 14 14 15 16 16 15 16 17
2070.0 15 14 12 10 9 8 7 6 6 7
2110.0 8 8 6 9 11 13 15 17 19 22
2150.0 24 23 22 22 20 19 19 20 19 18
2190.0 17 16 18 19 20 21 22 22 25 27
2230.0 30 35 39 41 39 36 32 29 27 28
2270.0 27 28 27 25 24 23 20 17 15 14
2310.0 13 12 11 11 12 11 13 11 13 14
2350.0 16 15 16 15 16 18 19 18 19 18
2390.0 18 19 20 19 18 19 19 18 17 17
2430.0 17 17 17 15 17 18 19 19 20 19
2470.0 18 17 18 17 16 14 14 17 18 19
2510.0 19 17 15 12 8 6 6 3 2 4
2550.0 3 2 3 2 4 7 9 11 12 15
2590.0 18 19 20 21 17 15 19 22 24 26
2630.0 29 33 36 38 38 32 27 22 18 14
2670.0 11 12 12 10 10 12 12 13 14 14
2710.0 16 19 22 26 30 36 44 51 59 65
2750.0 67 62 54 46 39 36 35 36 36 37
2790.0 37 38 40 44 49 52 58 67 77 90
2830.0 103 120 140 167 200 242 292 346 396 434
2870.0 454 461 454 443 442 446 460 483 512 551
2910.0 610 695 827 1022 1283 1557 1764 1849 1792 1610
2950.0 1365 1131 942 792 670 570 486 426 384 354
2990.0 338 335 339 352 366 388 411 437 456 465
3030.0 467 463 453 436 418 402 386 367 346 321
3070.0 296 269 238 206 174 149 130 114 101 93
3110.0 84 74 69 64 58 55 51 49 50 47
3150.0 44 44 43 43 41 38 37 34 33 35
3190.0 34 32 30 28 27 27 27 28 29 32
3230.0 32 35 41 43 49 58 68 81 99 125
3270.0 158 197 232 260 275 271 251 222 191 160
3310.0 133 113 98 84 70 63 55 46 39 37
3350.0 36 31 27 24 21 21 20 16 14 15
3390.0 13 12 15 17 16 14 12 9 11 10
3430.0 6 9 8 9 11 11 13 9 9 12
3470.0 10 12 13 11 12 11 7 7 8 7
3510.0 5 6 8 9 11 9 10 8 6 6
3550.0 6 8 8 8 7 8 11 10 7 6
3590.0 3 3 7 9 10 10 9 10 11 11
3630.0 8 8 10 9 10 9 8 8 11 9
3670.0 7 7 8 11 10 6 7 10 9 9
3710.0 7 11 15 16 16 14 12 12 14 12
3750.0 10 11 12 11 11 13 13 12 12 12
3790.0 13 14 13 12 11 11 14 16 16 15
3830.0 16 17 15 17 21
##END=
