##TITLE=Tetrafluoro-1,4-benzoquinone
##JCAMP-DX=4.24
##DATA TYPE=INFRARED SPECTRUM
##ORIGIN=NIST Mass Spectrometry Data Center
##OWNER=NIST Standard Reference Data Program
Collection (C) 2018 copyright by the U.S. Secretary of Commerce
on behalf of the United States of America. All rights reserved.
##CAS REGISTRY NO=527-21-9
##MOLFORM=C 6 F 4 O 2
##$NIST SOURCE=MSDC-IR
##SPECTROMETER/DATA SYSTEM=HP-GC/MS/IRD
##STATE=gas
##XUNITS=1/CM
##YUNITS=ABSORBANCE
##XFACTOR=1.0
##YFACTOR=0.000002900
##DELTAX=4.0
##FIRSTX=550.0
##LASTX=3846.0
##FIRSTY=0.000168
##MAXX=3846
##MINX=550
##MAXY=0.029
##MINY=0
##NPOINTS=825
##XYDATA=(X++(Y..Y))
550.0 58 23 4 30 37 54 88 72 39 20
590.0 28 47 40 14 36 74 105 170 250 302
630.0 321 284 209 162 121 85 77 55 45 44
670.0 49 54 35 4 0 21 38 46 51 53
710.0 23 13 39 62 101 145 214 208 131 114
750.0 91 59 39 26 30 34 35 34 29 24
790.0 26 32 39 49 33 5 7 11 14 28
830.0 22 20 23 24 42 64 82 98 96 91
870.0 81 61 55 67 83 100 111 106 95 86
910.0 82 84 92 106 115 124 141 144 156 165
950.0 180 205 243 307 433 687 1227 2381 4514 7261
990.0 9338 10000 9284 6924 3726 1651 885 579 469 481
1030.0 582 668 666 617 523 398 308 269 256 272
1070.0 316 370 390 369 328 267 196 136 109 95
1110.0 86 83 83 82 63 59 58 60 67 56
1150.0 46 54 68 64 59 52 49 53 51 51
1190.0 53 63 82 94 104 116 128 129 124 120
1230.0 109 88 79 80 79 77 91 112 127 157
1270.0 209 276 328 343 359 381 460 653 968 1446
1310.0 2234 3594 5681 8090 9687 9757 8476 5980 3147 1359
1350.0 645 384 282 227 198 198 202 209 231 252
1390.0 258 249 225 185 137 100 79 68 62 57
1430.0 54 50 53 57 64 72 76 71 60 54
1470.0 48 46 51 56 56 62 65 64 71 79
1510.0 81 85 89 87 83 72 62 56 50 46
1550.0 41 43 53 56 61 68 78 87 89 102
1590.0 123 152 178 205 232 254 277 300 317 335
1630.0 380 484 681 1027 1659 2731 4289 5887 6902 6961
1670.0 6093 4498 2762 1722 1473 1708 2409 3676 5369 6746
1710.0 7314 7204 6183 4530 3237 2465 1908 1454 1058 728
1750.0 485 328 235 174 137 116 110 110 120 133
1790.0 134 131 122 110 100 79 57 48 48 51
1830.0 54 54 51 54 62 72 81 89 90 88
1870.0 80 65 52 38 33 34 28 26 27 28
1910.0 31 31 32 38 35 29 25 24 27 29
1950.0 27 22 17 16 17 19 17 18 22 18
1990.0 16 19 26 31 30 29 31 28 22 20
2030.0 23 19 16 17 20 17 14 17 20 20
2070.0 22 25 26 24 24 22 23 27 27 22
2110.0 16 12 23 30 32 35 36 37 30 23
2150.0 21 21 24 21 21 23 21 25 32 38
2190.0 47 54 54 50 46 41 33 28 28 30
2230.0 32 34 36 35 33 28 26 29 35 38
2270.0 40 40 33 27 25 26 25 26 22 18
2310.0 18 19 19 21 21 18 23 23 23 27
2350.0 31 38 42 45 45 39 32 27 23 15
2390.0 14 26 31 34 39 42 44 52 63 63
2430.0 59 52 48 47 37 29 28 20 19 22
2470.0 17 14 9 6 8 10 15 20 15 9
2510.0 12 21 19 17 20 25 32 28 24 20
2550.0 24 31 31 24 24 26 24 23 22 20
2590.0 18 13 10 9 7 10 10 8 6 1
2630.0 0 5 5 4 3 1 8 12 17 24
2670.0 22 24 35 46 59 77 83 83 87 79
2710.0 68 54 35 27 19 18 12 8 16 17
2750.0 14 14 18 15 16 21 15 10 10 7
2790.0 8 11 9 14 14 12 9 3 4 9
2830.0 5 7 10 6 9 9 5 6 12 12
2870.0 12 16 20 23 25 31 27 29 35 37
2910.0 41 42 34 24 32 36 28 22 19 20
2950.0 21 21 20 19 17 18 27 33 32 36
2990.0 38 35 35 41 46 54 59 70 87 97
3030.0 108 114 113 112 93 74 56 34 25 31
3070.0 31 20 15 14 8 4 12 16 13 13
3110.0 9 9 15 7 5 11 9 10 12 12
3150.0 11 9 14 13 2 1 3 2 5 9
3190.0 15 12 7 10 14 11 7 6 5 5
3230.0 9 18 18 14 11 4 1 11 10 9
3270.0 10 6 9 11 12 16 16 21 26 30
3310.0 38 45 38 37 42 50 40 28 35 34
3350.0 31 38 48 59 70 70 84 121 156 195
3390.0 237 271 290 284 240 183 142 113 95 79
3430.0 66 59 49 45 42 38 38 34 30 33
3470.0 37 32 19 21 28 33 35 22 28 32
3510.0 22 25 22 15 13 19 15 12 16 22
3550.0 24 24 21 17 16 14 15 20 20 18
3590.0 15 16 21 23 18 15 15 13 12 16
3630.0 20 18 17 21 25 24 19 15 11 18
3670.0 28 29 23 23 25 27 26 21 16 9
3710.0 14 22 19 27 21 12 15 17 20 16
3750.0 9 9 14 17 17 18 16 30 29 23
3790.0 21 26 28 19 19 25 27 19 11 14
3830.0 20 21 22 16 13
##END=
