##TITLE=1,3-Propane diisothiocyanate
##JCAMP-DX=4.24
##DATA TYPE=INFRARED SPECTRUM
##ORIGIN=EPA-IR VAPOR PHASE LIBRARY
##OWNER=SRD/NIST
Collection (C) 2018 copyright by the U.S. Secretary of Commerce
on behalf of the United States of America. All rights reserved.
##CAS REGISTRY NO=52714-52-0
##MOLFORM=C 5 H 6 N 2 S 2
##$NIST SOURCE=MSDC-IR
##STATE=gas
##XUNITS=1/CM
##YUNITS=ABSORBANCE
##XFACTOR=1.
##YFACTOR=0.001
##DELTAX=1.92898
##FIRSTX=549.8
##LASTX=4000.7
##FIRSTY=10.851
##MAXX=4000.7
##MINX=549.759
##MAXY=0.433771
##MINY=0
##NPOINTS=1790
##XYDATA=(X++(Y..Y))
549.759 10.851 10.801 10.451 10.031 9.891 9.721 9.791 9.381 9.051 8.811
569.049 8.381 8.371 8.041 7.691 7.431 7.141 6.671 6.131 5.811 5.601
588.339 5.471 5.421 5.101 4.741 4.411 4.321 4.281 4.061 3.981 3.811
607.628 3.411 3.271 3.261 3.021 3.021 3.161 2.911 2.711 2.721 2.561
626.918 2.511 2.561 2.621 2.531 2.361 2.291 2.321 2.341 2.141 2.281
646.208 2.581 2.691 2.751 2.731 2.871 2.841 2.771 2.891 2.921 2.891
665.498 2.751 2.761 2.941 2.941 2.881 2.841 2.871 2.961 3.061 3.191
684.787 3.211 3.211 3.301 3.211 3.171 3.121 3.201 3.491 3.491 3.431
704.077 3.411 3.401 3.511 3.411 3.161 3.011 3.131 3.141 3.001 2.741
723.367 2.491 2.351 2.251 2.031 1.691 1.6229 1.3762 1.2139 1.2782 1.2917
742.657 1.4092 1.2513 0.8713 0.8444 0.9373 1.1588 1.2221 1.0791 1.2378 1.2888
761.947 1.203 1.4141 1.4399 1.3466 1.5687 1.771 1.871 1.811 1.701 2.031
781.236 2.451 2.471 2.591 3.011 3.231 3.331 3.521 3.601 3.511 3.351
800.526 3.591 3.951 3.891 4.071 4.221 4.111 3.981 4.041 4.071 3.891
819.816 3.851 3.581 3.471 3.491 3.391 3.251 3.061 3.041 3.011 2.801
839.106 2.721 2.771 2.651 2.551 2.451 2.411 2.331 2.151 2.051 2.151
858.395 2.001 1.851 1.971 2.001 2.051 1.941 1.701 1.5496 1.4502 1.3128
877.685 1.4662 1.5421 1.5378 1.6148 1.5342 1.5561 1.351 1.1607 1.4031 1.5778
896.975 1.651 1.741 1.641 1.3846 1.341 1.3169 1.2526 1.4667 1.5809 1.661
916.265 1.781 1.671 1.631 1.671 1.771 1.901 1.981 2.181 2.311 2.151
935.555 1.941 2.091 2.391 2.551 2.641 2.811 3.271 3.661 3.771 4.051
954.844 4.401 4.781 5.131 5.371 5.551 5.681 5.561 5.191 5.241 5.261
974.134 5.031 4.721 4.651 4.461 4.131 4.081 3.811 3.641 3.601 3.371
993.424 3.331 3.301 3.171 3.161 3.221 3.131 3.051 2.981 2.871 3.021
1012.714 3.181 3.151 3.231 3.611 3.371 3.331 3.661 3.571 3.401 3.291
1032.003 3.381 3.521 3.481 3.571 3.951 4.171 4.431 4.521 4.511 4.761
1051.293 4.951 5.271 5.621 5.841 6.231 6.461 6.321 6.411 6.571 6.561
1070.583 6.771 6.651 6.531 6.421 5.971 5.531 5.011 4.761 4.791 4.871
1089.873 4.861 4.691 4.361 4.181 3.911 3.911 3.951 3.741 3.931 3.561
1109.163 3.261 3.911 3.961 3.851 4.011 4.291 4.301 4.051 4.081 4.061
1128.452 3.861 3.641 3.851 3.831 3.661 3.601 3.451 3.481 3.521 3.591
1147.742 3.551 3.451 3.391 3.411 3.611 3.591 3.431 3.381 3.271 3.071
1167.032 3.171 3.241 3.231 3.201 3.131 2.871 2.871 2.841 2.541 2.611
1186.322 2.811 2.961 3.181 3.361 3.461 3.771 3.821 3.491 3.801 4.361
1205.611 4.281 4.381 4.631 4.691 4.821 4.971 4.651 4.751 5.091 5.171
1224.901 5.281 5.171 4.991 4.961 5.121 4.951 4.871 4.881 4.601 4.441
1244.191 4.421 4.391 4.431 4.531 4.241 4.211 4.501 4.561 4.621 4.801
1263.481 5.141 5.311 5.141 5.151 5.351 5.511 5.641 5.601 5.691 5.831
1282.771 5.921 6.031 6.231 6.501 6.861 7.391 7.881 8.421 9.161 10.171
1302.060 11.481 12.941 14.581 16.361 18.071 19.761 21.381 22.821 24.141 25.351
1321.350 26.831 28.711 31.001 33.871 37.231 40.811 44.101 46.581 48.031 48.611
1340.640 48.561 48.071 47.241 46.011 44.531 43.021 41.571 40.271 39.141 37.921
1359.930 36.471 34.781 33.071 31.581 30.361 29.401 28.551 27.501 26.101 24.421
1379.219 22.491 20.321 17.991 15.641 13.531 11.711 10.211 9.011 8.021 7.221
1398.509 6.611 6.131 5.761 5.421 5.081 4.841 4.661 4.561 4.511 4.401
1417.799 4.371 4.471 4.651 4.891 5.241 5.631 5.991 6.381 6.721 7.091
1437.089 7.671 8.421 9.281 10.161 11.141 12.301 13.721 15.701 18.441 21.671
1456.378 24.931 27.481 28.721 29.141 29.051 27.671 24.231 19.301 14.431 10.651
1475.668 8.121 6.411 5.241 4.361 3.721 3.241 2.871 2.601 2.321 2.181
1494.958 2.171 2.041 1.931 1.851 1.741 1.721 1.691 1.626 1.5652 1.4915
1514.248 1.4976 1.4742 1.4386 1.4785 1.4594 1.415 1.4014 1.4043 1.3415 1.3402
1533.538 1.3796 1.295 1.2414 1.2393 1.2399 1.2518 1.1618 1.1731 1.2374 1.1308
1552.827 1.0882 1.0957 1.1339 1.163 1.1573 1.1687 1.1134 1.0825 1.103 1.1471
1572.117 1.149 1.1058 1.1033 1.1247 1.1523 1.0104 0.9436 1.0855 1.1636 1.0844
1591.407 0.9972 1.0683 1.0664 0.9617 0.9806 1.0608 1.0619 0.9778 0.9216 0.9541
1610.697 0.9742 0.984 1.0012 0.9423 0.9237 0.984 0.9825 0.9087 0.9982 1.1042
1629.986 1.0214 0.9453 0.9638 1.034 1.0718 1.0101 0.9582 1.0024 1.0555 1.0907
1649.276 1.0996 1.1216 1.0283 0.9509 0.9863 1.0172 1.0638 1.0715 1.0222 1.0796
1668.566 1.1741 1.1227 1.127 1.1059 1.0455 1.027 1.0283 1.0198 1.0574 1.0674
1687.856 1.0403 1.0663 1.0476 1.004 0.954 0.9566 0.9247 1.006 1.0329 0.9359
1707.146 0.9135 0.9778 1.107 1.1112 1.1091 1.1808 1.2171 1.2198 1.2041 1.1537
1726.435 1.1228 1.1838 1.1749 1.1441 1.1612 1.1058 1.0397 1.0685 1.1221 1.1075
1745.725 1.1701 1.1363 1.0568 1.111 1.1666 1.095 1.0882 1.1608 1.1488 1.1462
1765.015 1.1932 1.2022 1.2062 1.2403 1.2308 1.2346 1.2396 1.2362 1.2354 1.2294
1784.305 1.3081 1.3766 1.3196 1.3604 1.46 1.4336 1.3945 1.4153 1.4407 1.4916
1803.594 1.5997 1.691 1.701 1.641 1.691 1.811 1.841 1.821 1.861 1.941
1822.884 1.971 2.001 2.071 2.091 2.061 2.151 2.311 2.351 2.361 2.401
1842.174 2.461 2.611 2.751 2.851 2.931 3.001 3.141 3.261 3.401 3.581
1861.464 3.741 3.881 4.011 4.161 4.401 4.631 4.891 5.171 5.341 5.561
1880.754 5.861 6.141 6.431 6.751 7.051 7.431 7.851 8.231 8.641 9.021
1900.043 9.421 9.881 10.371 10.901 11.371 11.941 12.601 13.171 13.791 14.451
1919.333 15.081 15.711 16.371 17.101 17.891 18.691 19.531 20.481 21.451 22.361
1938.623 23.411 24.571 25.711 26.991 28.341 29.741 31.231 32.771 34.531 36.401
1957.913 38.271 40.341 42.561 44.901 47.361 49.971 52.871 55.981 59.311 62.911
1977.202 66.811 71.151 75.681 80.611 86.061 91.801 98.101 104.901 112.201 120.051
1996.492 128.441 137.461 147.121 157.561 168.671 180.551 193.261 206.611 220.471 234.971
2015.782 250.111 265.651 281.521 297.531 313.401 329.001 344.271 359.121 373.161 386.261
2035.072 398.211 408.811 417.891 425.191 430.311 433.181 433.771 431.681 426.941 419.931
2054.362 410.841 399.691 386.681 372.341 357.031 340.891 324.171 307.111 290.031 273.181
2073.651 256.651 240.431 224.941 210.441 196.791 184.151 172.501 161.861 152.201 143.471
2092.941 135.581 128.511 122.311 116.981 112.361 108.281 104.731 101.641 98.901 96.371
2112.231 94.011 91.911 90.001 88.031 86.131 84.331 82.661 80.991 79.251 77.671
2131.521 76.131 74.381 72.641 71.011 69.361 67.641 65.811 63.981 62.241 60.401
2150.810 58.501 56.671 54.891 53.251 51.731 50.241 48.671 47.191 45.891 44.561
2170.100 43.361 42.311 41.411 40.531 39.751 39.201 38.601 38.051 37.671 37.351
2189.390 37.061 36.881 36.761 36.541 36.381 36.321 36.191 35.981 35.791 35.571
2208.680 35.231 34.881 34.451 33.891 33.261 32.581 31.811 30.901 29.881 28.761
2227.970 27.621 26.481 25.211 23.821 22.601 21.431 20.131 18.921 17.821 16.711
2247.259 15.681 14.771 13.901 13.121 12.391 11.631 10.961 10.431 9.911 9.351
2266.549 8.791 8.411 8.161 7.791 7.401 7.071 6.781 6.571 6.331 6.061
2285.839 5.861 5.701 5.491 5.341 5.211 5.021 4.851 4.711 4.551 4.421
2305.129 4.321 4.271 4.211 4.131 4.021 3.911 3.761 3.671 3.651 3.621
2324.418 3.561 3.451 3.371 3.271 3.181 3.161 3.081 2.921 2.821 2.821
2343.708 2.791 2.641 2.461 2.361 2.341 2.261 2.201 2.211 2.101 2.061
2362.998 2.001 1.941 2.021 1.981 1.861 1.841 1.791 1.721 1.741 1.751
2382.288 1.751 1.701 1.6013 1.5274 1.514 1.4916 1.4218 1.4063 1.4653 1.4698
2401.578 1.4314 1.3361 1.3256 1.3335 1.2719 1.2647 1.2928 1.3374 1.3874 1.3722
2420.867 1.2792 1.2616 1.294 1.3092 1.3321 1.3393 1.3186 1.3231 1.3237 1.3272
2440.157 1.3514 1.2919 1.2616 1.3081 1.329 1.2839 1.2049 1.2705 1.2894 1.232
2459.447 1.2401 1.32 1.3906 1.3402 1.3463 1.4185 1.499 1.4702 1.4397 1.4508
2478.737 1.3995 1.4197 1.4344 1.4613 1.5322 1.4975 1.4673 1.5453 1.5695 1.5061
2498.026 1.4878 1.524 1.5754 1.5948 1.5876 1.681 1.691 1.595 1.5844 1.671
2517.316 1.701 1.701 1.851 1.851 1.851 1.891 1.831 1.861 1.931 1.951
2536.606 1.891 1.871 1.911 1.941 1.911 1.871 1.921 2.051 2.081 2.091
2555.896 2.111 2.101 2.241 2.421 2.461 2.371 2.301 2.381 2.391 2.351
2575.186 2.341 2.311 2.291 2.301 2.291 2.271 2.201 2.071 2.101 2.121
2594.475 2.081 1.921 1.821 1.801 1.671 1.5582 1.5449 1.5792 1.6142 1.5842
2613.765 1.5195 1.5256 1.5044 1.409 1.3224 1.326 1.372 1.378 1.4536 1.3808
2633.055 1.2804 1.279 1.3108 1.4047 1.4945 1.6189 1.641 1.549 1.573 1.671
2652.345 1.671 1.651 1.691 1.741 1.821 1.911 1.991 2.161 2.201 2.171
2671.634 2.291 2.471 2.561 2.581 2.761 2.951 3.111 3.331 3.441 3.611
2690.924 3.761 3.891 3.991 4.121 4.271 4.391 4.511 4.641 4.891 5.131
2710.214 5.161 5.201 5.511 5.701 5.821 5.881 5.971 6.101 6.321 6.521
2729.504 6.431 6.381 6.431 6.371 6.331 6.391 6.321 6.141 6.011 5.951
2748.794 5.861 5.651 5.581 5.461 5.281 5.121 4.961 4.811 4.621 4.561
2768.083 4.421 4.281 4.171 3.971 3.791 3.711 3.681 3.561 3.491 3.371
2787.373 3.151 3.061 3.061 3.001 2.871 2.731 2.761 2.671 2.521 2.591
2806.663 2.581 2.521 2.661 2.681 2.571 2.571 2.661 2.601 2.551 2.561
2825.953 2.411 2.391 2.411 2.471 2.591 2.631 2.601 2.631 2.661 2.721
2845.242 2.801 2.841 3.011 3.231 3.271 3.341 3.501 3.671 3.851 3.981
2864.532 4.271 4.661 5.011 5.491 6.121 6.841 7.631 8.491 9.451 10.551
2883.822 11.411 12.151 12.771 13.291 13.451 13.251 12.961 12.281 11.491 10.731
2903.112 9.891 9.101 8.401 7.761 7.221 6.871 6.751 6.791 6.891 7.171
2922.401 7.661 8.151 8.781 9.651 10.451 11.141 11.791 12.581 13.691 14.821
2941.691 16.011 17.131 18.131 19.231 20.431 21.681 22.841 23.991 25.331 26.771
2960.981 28.031 28.921 29.171 28.861 27.791 26.081 23.791 20.911 17.901 14.971
2980.271 12.431 10.301 8.591 7.281 6.221 5.291 4.551 4.021 3.551 3.191
2999.561 2.971 2.881 2.721 2.441 2.231 2.281 2.231 1.941 1.871 1.781
3018.850 1.5194 1.5074 1.6057 1.5559 1.457 1.5013 1.5597 1.4483 1.3756 1.2923
3038.140 1.2221 1.1068 1.0382 1.0014 0.89 0.8495 0.9473 0.8481 0.7959 0.8815
3057.430 0.8472 0.8736 0.7684 0.72845 0.8024 0.7981 0.7752 0.6975 0.5886 0.5632
3076.720 0.67406 0.69444 0.6263 0.66116 0.72491 0.66411 0.65937 0.69704 0.7349 0.7849
3096.009 0.74 0.71398 0.7703 0.7435 0.51 0.494 0.6109 0.5688 0.5681 0.513
3115.299 0.5464 0.597 0.494 0.524 0.603 0.66936 0.6113 0.586 0.71495 0.6495
3134.589 0.515 0.473 0.65424 0.68419 0.5538 0.477 0.481 0.6119 0.512 0.471
3153.879 0.489 0.502 0.5444 0.481 0.494 0.508 0.417 0.436 0.5732 0.508
3173.169 0.31 0.253 0.298 0.426 0.445 0.313 0.243 0.362 0.5996 0.534
3192.458 0.492 0.631692 0.525 0.461 0.479 0.389 0.201 0.21 0.47 0.53
3211.748 0.495 0.201 0 0.137 0.148 0.133 0.229 0.302 0.241 0.146
3231.038 0.119 0.147 0.212 0.265 0.223 0.242 0.282 0.261 0.252 0.258
3250.328 0.248 0.267 0.238 0.121 0.09 0.115 0.139 0.192 0.095 0.108
3269.617 0.148 0.211 0.383 0.345 0.268 0.21 0.17 0.22 0.245 0.36
3288.907 0.325 0.28 0.481 0.371 0.327 0.26 0.137 0.221 0.222 0.164
3308.197 0.179 0.278 0.284 0.178 0.272 0.447 0.416 0.334 0.311 0.187
3327.487 0.113 0.131 0.234 0.262 0.232 0.288 0.208 0.227 0.338 0.379
3346.777 0.26 0.048 0.088 0.37 0.482 0.483 0.478 0.341 0.338 0.329
3366.066 0.244 0.145 0.186 0.254 0.323 0.417 0.349 0.267 0.243 0.381
3385.356 0.37 0.382 0.505 0.467 0.481 0.4 0.233 0.269 0.422 0.386
3404.646 0.319 0.416 0.414 0.38 0.428 0.359 0.248 0.392 0.482 0.399
3423.936 0.291 0.299 0.343 0.38 0.504 0.5447 0.5524 0.51 0.498 0.459
3443.225 0.372 0.397 0.444 0.5673 0.474 0.377 0.5747 0.525 0.317 0.284
3462.515 0.299 0.264 0.243 0.303 0.351 0.338 0.329 0.33 0.36 0.277
3481.805 0.258 0.334 0.395 0.342 0.298 0.433 0.459 0.3 0.157 0.252
3501.095 0.33 0.417 0.511 0.398 0.333 0.375 0.322 0.367 0.513 0.453
3520.385 0.322 0.303 0.27 0.276 0.411 0.469 0.406 0.446 0.446 0.365
3539.674 0.358 0.273 0.251 0.408 0.426 0.36 0.248 0.288 0.394 0.272
3558.964 0.2 0.218 0.297 0.412 0.353 0.392 0.5482 0.401 0.341 0.528
3578.254 0.5514 0.5643 0.5426 0.478 0.328 0.256 0.358 0.414 0.374 0.44
3597.544 0.504 0.441 0.5332 0.5824 0.62683 0.509 0.379 0.466 0.417 0.411
3616.833 0.407 0.386 0.304 0.298 0.44 0.337 0.292 0.502 0.640814 0.464
3636.123 0.263 0.327 0.38 0.409 0.453 0.483 0.425 0.296 0.398 0.428
3655.413 0.428 0.465 0.356 0.29 0.324 0.311 0.415 0.539 0.489 0.418
3674.703 0.504 0.512 0.468 0.35 0.36 0.52 0.443 0.338 0.365 0.446
3693.993 0.371 0.331 0.42 0.407 0.412 0.426 0.376 0.5409 0.48 0.405
3713.282 0.43 0.431 0.527 0.455 0.502 0.568 0.521 0.5325 0.483 0.437
3732.572 0.345 0.405 0.5311 0.505 0.486 0.5406 0.69833 0.5344 0.433 0.5445
3751.862 0.64579 0.7737 0.71811 0.6146 0.62732 0.64857 0.67768 0.5315 0.376 0.5408
3771.152 0.5506 0.391 0.428 0.5894 0.5762 0.385 0.41 0.469 0.448 0.438
3790.441 0.368 0.414 0.447 0.494 0.5873 0.5828 0.5708 0.43 0.357 0.521
3809.731 0.62822 0.5585 0.426 0.409 0.49 0.5414 0.5331 0.416 0.381 0.441
3829.021 0.517 0.5553 0.511 0.6062 0.71035 0.7216 0.5564 0.446 0.393 0.478
3848.311 0.6246 0.5692 0.6065 0.69039 0.6054 0.5349 0.371 0.393 0.71547 0.633623
3867.601 0.6195 0.7502 0.65469 0.71359 0.826 0.72998 0.6186 0.7647 0.7904 0.5847
3886.890 0.6154 0.70797 0.5983 0.70984 0.8579 0.70632 0.7473 0.8837 0.7509 0.71765
3906.180 0.9505 0.9677 0.8049 0.8292 1.0479 1.056 0.9611 0.9924 0.9152 0.9485
3925.470 1.0836 1.0268 1.0164 1.0236 0.9692 0.9453 1.0299 1.1035 1.0775 1.1053
3944.760 1.045 0.9411 0.9313 1.0471 1.0893 1.0367 1.101 1.2055 1.3575 1.4335
3964.049 1.4246 1.341 1.2026 1.2391 1.3153 1.2241 1.252 1.3775 1.3451 1.1225
3983.339 1.1129 1.4805 1.5367 1.6219 1.801 1.751 1.821 1.901 1.751 1.741
##END=
