##TITLE=3-Chloro-3-methylheptane
##JCAMP-DX=4.24
##DATA TYPE=INFRARED SPECTRUM
##ORIGIN=NIST Mass Spectrometry Data Center
##OWNER=NIST Standard Reference Data Program
Collection (C) 2018 copyright by the U.S. Secretary of Commerce
on behalf of the United States of America. All rights reserved.
##CAS REGISTRY NO=5272-02-6
##MOLFORM=C 8 H 17 Cl
##$NIST SOURCE=MSDC-IR
##SPECTROMETER/DATA SYSTEM=HP-GC/MS/IRD
##STATE=gas
##XUNITS=1/CM
##YUNITS=ABSORBANCE
##XFACTOR=1.0
##YFACTOR=0.000002900
##DELTAX=4.0
##FIRSTX=550.0
##LASTX=3846.0
##FIRSTY=0.001030
##MAXX=3846
##MINX=550
##MAXY=0.029
##MINY=0
##NPOINTS=825
##XYDATA=(X++(Y..Y))
550.0 355 352 350 440 519 532 552 538 491 433
590.0 327 258 245 291 380 469 536 575 571 534
630.0 449 332 209 121 94 71 40 33 37 26
670.0 32 28 6 8 22 38 38 13 18 52
710.0 76 96 118 141 162 186 210 233 246 255
750.0 271 281 276 273 278 301 327 350 381 410
790.0 441 463 502 575 663 742 774 768 732 650
830.0 555 464 365 279 195 135 104 94 92 88
870.0 106 112 111 135 145 146 170 185 186 201
910.0 218 206 166 133 126 118 120 115 110 125
950.0 119 103 115 143 169 216 259 288 332 394
990.0 461 528 583 622 625 585 529 448 380 330
1030.0 292 268 264 288 301 308 312 313 311 318
1070.0 357 388 406 424 429 431 434 453 489 531
1110.0 611 730 871 1018 1092 1098 1056 983 914 852
1150.0 802 777 732 669 598 532 483 444 432 425
1190.0 399 380 358 318 283 262 260 269 273 283
1230.0 285 271 254 238 232 238 246 252 267 274
1270.0 281 305 346 396 438 457 454 440 424 413
1310.0 400 387 382 386 411 451 492 519 536 526
1350.0 502 488 490 550 695 909 1187 1489 1704 1709
1390.0 1503 1160 804 554 419 359 345 359 393 453
1430.0 541 672 854 1077 1338 1598 1826 2001 2059 1984
1470.0 1788 1497 1169 862 638 470 367 311 268 241
1510.0 213 185 177 175 158 145 146 141 135 126
1550.0 120 123 121 113 103 100 106 101 91 82
1590.0 77 75 66 65 63 59 60 57 52 51
1630.0 57 60 53 53 58 59 52 39 35 30
1670.0 33 40 42 41 27 20 20 18 16 13
1710.0 6 8 8 0 2 12 15 11 2 4
1750.0 12 11 8 11 15 16 18 16 15 22
1790.0 26 25 27 25 16 10 12 14 10 13
1830.0 15 17 19 20 19 16 15 13 15 14
1870.0 6 5 10 7 10 16 20 18 12 4
1910.0 4 11 10 11 14 15 12 10 15 18
1950.0 20 16 10 12 12 11 8 4 5 12
1990.0 12 10 12 13 12 18 16 7 9 16
2030.0 19 20 19 18 15 19 24 22 19 18
2070.0 17 16 15 15 17 16 15 16 22 23
2110.0 13 10 12 14 22 33 26 17 12 13
2150.0 14 11 17 25 22 19 22 16 11 15
2190.0 17 12 13 15 11 12 16 21 20 13
2230.0 14 17 13 9 15 20 15 18 26 19
2270.0 10 10 12 12 13 16 11 9 8 8
2310.0 8 11 20 24 19 15 28 35 29 30
2350.0 30 41 53 54 49 35 24 29 35 35
2390.0 36 33 31 32 32 31 27 20 21 30
2430.0 30 25 29 28 24 23 20 21 24 24
2470.0 23 26 25 23 22 10 4 16 20 20
2510.0 23 18 17 25 29 33 34 24 24 24
2550.0 29 36 34 38 39 34 43 48 44 43
2590.0 49 45 42 49 46 42 54 64 63 69
2630.0 71 62 62 66 72 85 89 89 96 100
2670.0 108 114 109 101 99 101 96 97 105 107
2710.0 107 112 115 120 140 160 169 184 203 212
2750.0 223 216 201 202 203 198 198 218 237 251
2790.0 270 300 332 358 394 423 454 495 545 613
2830.0 703 822 975 1141 1323 1543 1786 2091 2477 2913
2870.0 3348 3776 4141 4365 4472 4472 4385 4312 4305 4376
2910.0 4552 4823 5179 5680 6362 7234 8249 9194 9824 9998
2950.0 9759 9338 9086 9248 9669 10000 9951 9362 8269 6967
2990.0 5768 4744 3832 3014 2317 1726 1299 1037 884 793
3030.0 714 643 589 541 488 442 417 399 383 376
3070.0 378 366 352 341 339 329 315 308 288 270
3110.0 258 232 210 196 189 184 173 161 148 139
3150.0 131 135 139 141 151 147 136 132 126 120
3190.0 117 115 117 110 100 96 89 84 89 87
3230.0 83 85 78 74 68 69 71 56 43 36
3270.0 48 48 40 35 34 30 30 33 28 27
3310.0 33 23 34 47 41 35 27 39 30 21
3350.0 27 39 51 52 37 31 43 35 29 27
3390.0 32 29 18 8 10 16 21 24 28 31
3430.0 27 34 32 17 23 33 42 43 37 31
3470.0 35 48 37 25 25 25 38 49 42 42
3510.0 46 35 31 21 15 13 14 6 4 22
3550.0 39 34 29 34 32 30 37 49 48 26
3590.0 23 35 33 35 45 29 17 25 23 30
3630.0 45 39 35 37 45 49 40 33 34 37
3670.0 33 35 44 41 42 42 41 44 38 41
3710.0 47 43 50 53 43 41 41 46 50 46
3750.0 50 53 61 60 57 65 52 41 57 64
3790.0 65 57 57 54 52 61 64 62 60 63
3830.0 65 64 63 57 61
##END=
