##TITLE=3-(Trifluoromethoxy)benzonitrile
##JCAMP-DX=4.24
##DATA TYPE=INFRARED SPECTRUM
##ORIGIN=EPA-IR VAPOR PHASE LIBRARY
##OWNER=SRD/NIST
Collection (C) 2018 copyright by the U.S. Secretary of Commerce
on behalf of the United States of America. All rights reserved.
##CAS REGISTRY NO=52771-22-9
##MOLFORM=C 8 H 4 F 3 N O
##$NIST SOURCE=MSDC-IR
##STATE=gas
##XUNITS=1/CM
##YUNITS=ABSORBANCE
##XFACTOR=1.
##YFACTOR=0.001
##DELTAX=1.92898
##FIRSTX=549.8
##LASTX=4000.7
##FIRSTY=2.0289
##MAXX=4000.7
##MINX=549.759
##MAXY=0.46524
##MINY=0
##NPOINTS=1790
##XYDATA=(X++(Y..Y))
549.759 2.0289 0.805 0.321 1.923 2.65 2.46 1.9265 1.972 1.9198 1.3469
569.049 1.3034 1.2439 1.3 2.07 2.42 2.0006 1.9203 2.34 2.99 3.16
588.339 4.17 4.92 4.27 3.56 3.85 3.61 3.06 3.75 3.69 3.59
607.628 3.87 3.57 3.45 4.09 4.34 4.57 5.76 6.13 7.14 8.49
626.918 8.92 10.23 11.36 11.86 12.38 12.28 11.68 11.37 10.42 8.66
646.208 6.61 4.96 4.77 4.37 3.77 4.28 4.6 4.79 4.87 6.04
665.498 8.31 9.64 10.9 12.79 14.64 16.5 17.85 17.73 17.22 16.41
684.787 15.88 15.58 15.16 14.75 14.37 14.27 13.99 13.9 13.43 11.86
704.077 10.67 10.16 9.15 7.58 7.01 6.34 5.17 5.06 4.76 4.64
723.367 4.87 4.97 4.9 4.77 4.64 4.8 5.02 4.86 4.72 4.84
742.657 4.83 4.88 4.51 4.06 4.02 3.84 3.83 3.82 4.32 4.76
761.947 5.25 5.39 5.13 5.43 6.3 6.73 7.37 8.32 9.25 10.76
781.236 12.04 13.92 15.95 17.93 19.63 20.75 22.74 23.95 23.25 21.69
800.526 19.17 16.99 15.24 13.38 11.09 8.57 7.25 5.61 3.77 3.57
819.816 4.11 3.77 3.32 3.41 3.55 3.46 3.24 3.62 3.97 4.25
839.106 4.88 5.41 6.12 6.92 7.93 9.38 10.45 12.02 13.85 14.16
858.395 14.28 15.3 16.11 15.72 14.52 12.61 11.38 11.33 10.79 10.11
877.685 10.67 11.11 11.76 12.9 13.23 13.02 12.6 12.81 13.16 12.41
896.975 11.21 10.12 9.16 8.41 7.39 6.58 5.71 4.64 4.03 3.74
916.265 3.77 3.42 3.28 3.55 3.61 3.82 3.68 3.37 3.52 4.17
935.555 3.99 3.56 4.05 4.26 4.72 4.55 4.47 4.99 4.96 5.66
954.844 5.75 5.8 7.05 7.82 8.08 8.41 8.1 7.67 7.1 6.66
974.134 6.52 6.03 5.55 4.74 4.49 4.85 5.18 5.66 5.51 4.63
993.424 4.6 4.96 5.02 5.44 5.4 5.52 5.94 5.67 5.1 4.44
1012.714 3.9 3.52 3.24 2.48 2.38 3.19 3.3 3.82 3.94 3.6
1032.003 3.67 3.79 3.62 3.56 3.2 3.22 3.29 2.85 3.4 4.19
1051.293 3.63 2.64 3.63 5.09 6.22 6.11 4.46 4.66 4.56 4.21
1070.583 5.25 6.58 6.91 6.64 6.53 5.98 6.9 8.2 8.04 7.93
1089.873 8.55 10.2 11.04 9.43 7.71 7.82 7.98 8.04 8.21 7.57
1109.163 7.74 8.16 7.96 10.25 11 9.51 10.05 8.65 8.3 10.02
1128.452 12.24 14.55 15.36 16.51 18.7 19.89 20.84 23.05 24.36 24.67
1147.742 26.52 27.47 27.34 29.75 32.23 35.36 38.92 42.53 47.22 51.47
1167.032 58.19 67.04 75.28 83.69 94.4 107.35 123.25 141.01 159.19 179.98
1186.322 202.78 224.14 242.73 259.98 274.16 283.49 287.88 289.67 289.74 292.33
1205.611 300.42 314.11 335.43 363.12 394.05 424.72 445.13 455.94 456.08 437.24
1224.901 410.8 372.95 326.25 279.72 236.16 200.08 171.81 155.47 149.05 146.77
1244.191 149.28 157.51 169.7 184.59 204.03 227.65 254.62 285.32 317.15 350.19
1263.481 382.6 412.8 437.86 455.94 465.24 460.68 443.62 416.29 381.62 343
1282.771 301.33 259.87 222.51 190.64 164.45 142.19 122.46 105.87 91.95 80.09
1302.060 70.36 61.74 54.64 48.82 43.65 39.36 35.42 32.02 28.92 26.1
1321.350 23.72 21.63 19.7 18.03 16.49 15.2 14.11 12.72 11.65 10.69
1340.640 9.84 9.21 8.46 7.57 6.89 6.73 6.49 6.13 5.9 5.82
1359.930 5.84 5.75 5.6 5.41 5.17 4.95 4.86 4.89 4.81 4.7
1379.219 4.72 4.67 4.51 4.7 4.65 4.25 4.22 4.32 4.46 4.71
1398.509 4.73 4.74 4.92 5.2 5.38 5.66 6.37 7.25 8.13 8.96
1417.799 10.08 11.62 12.98 14.36 15.91 17.19 18.32 19.14 19.79 20.16
1437.089 19.8 19.05 18.11 16.77 15.25 13.85 12.08 10.16 8.98 8.07
1456.378 7.5 7.35 7.57 8.36 9.55 11.11 13.13 15.85 18.96 22.37
1475.668 25.73 28.37 30.21 31.76 32.53 32.44 31.6 30.05 27.82 25.27
1494.958 22.61 19.85 16.89 13.66 11.16 9.12 7.23 6.32 5.93 5.62
1514.248 5.23 5.22 5.41 5.24 5.04 5 4.92 4.91 4.83 4.87
1533.538 5.24 5.3 5.09 5.11 5.06 5.17 5.42 5.56 6.17 6.61
1552.827 7.05 7.93 8.72 9.88 10.96 12.06 13.47 15.1 16.94 19.19
1572.117 21.65 24.07 26.67 29.11 30.96 32.09 32.43 32.27 31.65 30.2
1591.407 28.4 26.63 24.76 23.54 22.86 21.85 20.98 19.96 18.74 17.45
1610.697 16.14 14.77 13.37 11.87 10.27 9.1 8.29 7.44 6.6 6.11
1629.986 5.42 4.74 4.6 4.27 3.92 3.89 3.99 3.66 3.48 3.27
1649.276 2.85 3 3.21 3.22 3.22 3.44 3.44 3.04 2.98 2.97
1668.566 2.72 2.65 2.45 2.39 2.56 2.54 2.42 2.49 2.54 2.29
1687.856 2.25 2.57 2.71 2.81 3 3.12 3.21 3.16 3.02 2.87
1707.146 2.76 2.57 2.63 2.79 2.68 2.69 2.72 2.35 2.23 2.3
1726.435 2.21 2.38 2.37 2.24 2.14 2.08 2.24 2.21 2.31 2.25
1745.725 2.04 2.23 2.39 2.29 2.47 2.83 2.77 2.82 2.73 2.58
1765.015 2.77 2.99 3.16 3.29 3.3 3.22 3.24 3.4 3.27 2.94
1784.305 3.02 3.06 3.18 3.28 3.09 3.17 3.23 3.16 3.11 3.02
1803.594 3.02 2.97 2.96 3.03 2.83 2.95 3.33 3.33 3.04 2.77
1822.884 2.86 2.94 2.8 2.64 2.36 2.31 2.35 2.07 1.9463 2.12
1842.174 2.3 2.4 2.28 2.27 2.23 2.19 2.3 2.26 2.09 2.13
1861.464 2.25 2.35 2.68 2.78 2.83 2.93 3.14 3.26 3.28 3.55
1880.754 3.41 3.27 3.4 3.3 3.12 2.77 2.52 2.51 2.35 2.24
1900.043 2.33 2.29 2.25 2.27 2.06 1.9531 2.07 2.32 2.28 2.07
1919.333 2.0095 2.06 2.28 2.23 2.21 2.38 2.32 2.43 2.72 2.81
1938.623 2.94 3.2 3.29 3.12 3.09 3.06 3.06 3.06 2.87 2.78
1957.913 2.72 2.64 2.43 2.2 2.3 2.31 2.19 2.14 2.15 2.0119
1977.202 1.7641 1.9665 2.07 1.9642 1.9624 1.8325 2.05 2.24 2.07 1.8147
1996.492 1.7046 1.7146 1.7132 1.9142 2.11 1.9756 2.03 2.12 2.0102 1.94
2015.782 1.8339 1.9141 2.0095 1.9398 1.8371 2.08 2.1 2.11 2.26 2.13
2035.072 2.28 2.34 2.29 2.58 2.5 2.53 2.9 2.8 2.64 2.69
2054.362 2.86 3.08 3.16 3.12 3.12 3.23 3.33 3.3 3.3 3.42
2073.651 3.39 3.37 3.41 3.13 2.97 3.17 3.23 3.05 2.89 2.84
2092.941 2.62 2.38 2.4 2.38 2.39 2.42 2.31 2.5 2.52 2.42
2112.231 2.53 2.77 2.97 2.84 2.74 2.77 2.89 3.2 3.11 2.94
2131.521 2.92 2.96 2.99 2.68 2.58 2.76 2.74 2.59 2.39 2.16
2150.810 2.0016 1.9751 2.18 2.16 1.9401 2.07 2.27 1.9902 1.9752 2.07
2170.100 1.8771 1.9589 1.8483 1.5734 1.421 1.538 1.6673 1.6773 1.7775 1.8605
2189.390 1.6838 1.8299 1.969 1.799 1.9734 2.06 2.25 2.14 1.9305 2.15
2208.680 2.34 2.4 2.44 2.3 2.44 2.65 2.68 2.8 2.89 3.28
2227.970 3.63 3.75 3.86 3.95 3.98 4.05 4.08 3.91 3.54 3.27
2247.259 3.21 2.91 2.44 1.8872 1.5979 1.666 1.5062 1.3374 1.5431 1.5283
2266.549 1.405 1.4855 1.6167 1.6625 1.697 1.807 1.7712 1.7289 1.8208 1.804
2285.839 1.703 1.8463 2.0245 1.7665 1.7139 1.8138 1.8687 1.7709 1.5516 1.7201
2305.129 1.4182 1.1852 1.3097 1.4924 1.6194 1.5984 1.7064 1.6653 1.6265 1.6889
2324.418 1.6526 1.4844 1.6317 1.9611 2.15 2.14 1.8354 1.7272 1.9978 2.12
2343.708 2.0196 1.9408 2.11 2.08 1.9625 1.9375 2.0066 2.04 1.94 2.06
2362.998 2.19 2.17 1.9324 1.8694 1.8703 1.9472 2.08 1.9333 1.9641 2.31
2382.288 2.52 2.43 2.37 2.37 2.31 2.34 2.58 2.56 2.12 1.9525
2401.578 2.35 2.6 2.68 2.74 2.56 2.63 2.69 3.09 3.17 3.06
2420.867 3.39 3.3 3.34 3.59 3.77 3.88 3.93 4.01 4.21 4.29
2440.157 4.36 4.2 4 3.96 3.83 3.48 3.11 3.25 3.17 3.08
2459.447 3.15 2.85 2.75 2.99 2.95 2.88 3.05 3.09 2.81 2.78
2478.737 2.99 2.91 3.09 3.31 3.28 3.22 3.1 2.88 2.72 2.77
2498.026 2.62 2.56 2.74 2.73 2.54 2.43 2.47 2.46 2.34 2.29
2517.316 2.46 2.48 2.31 2.38 2.53 2.79 2.66 2.5 2.51 2.61
2536.606 2.86 2.73 2.67 2.48 2.39 2.66 2.95 2.7 2.49 2.35
2555.896 2.28 2.43 2.51 2.11 1.6891 1.9071 1.8017 1.4369 1.6402 2.07
2575.186 1.8776 1.3874 1.2818 1.5127 1.2629 1.1991 1.2823 1.3826 1.5852 1.6435
2594.475 1.6838 1.473 1.4979 1.6413 1.4199 1.1616 1.2209 1.1757 1.1303 1.3327
2613.765 1.206 1.0238 1.2079 1.3082 1.381 1.2318 1.2006 1.5757 1.5268 1.1456
2633.055 1.0156 1.06405 0.9787 0.904 0.984 0.861 0.742 0.898 0.914 1.11683
2652.345 1.4844 1.3998 1.1381 1.07972 1.05765 0.977 1.1482 1.12781 0.827 1.02629
2671.634 1.2917 1.4814 1.6505 1.4964 1.3909 1.4756 1.2782 1.1604 1.4577 1.652
2690.924 1.3564 1.05962 1.11516 1.4645 1.3431 1.3774 1.1939 0.72 1.335 1.6605
2710.214 1.7575 1.3417 0.903 1.11839 1.418 1.3199 1.09415 1.277 1.4666 1.2802
2729.504 1.1695 1.2378 1.2415 1.3987 1.3069 1.4525 1.487 1.5011 1.4868 1.2939
2748.794 1.25 1.3231 1.4056 1.3196 1.4132 1.387 1.2689 1.2233 0.9853 1.0559
2768.083 1.1278 1.1845 1.36 1.4052 1.3491 0.9991 1.04347 1.4386 1.7494 1.6084
2787.373 1.4503 1.5425 1.3923 1.0099 0.9484 1.07417 1.3358 1.4013 1.4024 1.972
2806.663 1.6897 1.2148 1.2241 0.93 0.718 0.864 1.3067 1.3273 1.1961 1.135
2825.953 0.928 0.563 0.465 1.04477 1.03111 0.92 1.2295 1.6619 1.9389 1.5916
2845.242 0.9659 0.931 0.971 1.0169 1.428 1.6147 1.4021 0.9411 1.12993 1.2763
2864.532 1.4587 1.9954 1.4202 0.978 1.2412 1.4163 1.3718 1.3414 1.7846 1.7998
2883.822 1.6012 1.1877 0.632 0.672 0.947 0.926 1.04742 1.7729 1.3361 0.639
2903.112 1.02194 0.9419 0.776 0.871 0.763 1.11857 0.986 0.552 0.849 1.2778
2922.401 1.5199 1.315 1.2031 1.10916 1.203 1.6868 1.7717 1.2715 1.09583 1.3258
2941.691 1.6547 1.8504 1.7148 1.5099 1.4982 1.6353 1.6297 1.3212 1.1767 1.3371
2960.981 1.2862 1.4569 1.3178 0.644 0.174 0.254 0.718 1.0166 0.9523 1.03099
2980.271 1.1491 1.3972 1.6167 1.09461 0.51 0.636 0.904 1.05103 1.4718 1.4696
2999.561 1.1532 0.697 0.526 0.9486 1.1924 1.3032 1.413 1.11959 1.0134 1.2448
3018.850 1.2094 1.02296 0.9952 1.4302 1.4838 1.1667 1.2622 1.2952 1.4906 1.4132
3038.140 1.2016 1.5665 1.6996 1.5889 1.6934 1.6483 1.5816 1.9446 1.9183 2.05
3057.430 2.16 1.7303 2.06 2.1 2.08 2.57 2.59 2.75 3.19 3.35
3076.720 3.83 4.26 4.56 5.02 5.25 5.06 5.15 5.39 5.04 4.74
3096.009 4.05 3.36 2.78 2.37 2.19 1.8925 1.6443 1.465 1.3742 1.5458
3115.299 1.5843 1.5141 1.6254 1.6176 1.6591 1.5672 1.5958 1.7962 1.5629 0.805
3134.589 0.52 0.775 1.0573 1.1731 1.2537 1.0115 0.697 0.9698 1.0177 0.913
3153.879 1.02317 1.2901 1.3659 1.4555 1.5523 1.2023 0.9805 1.0141 1.11407 1.1813
3173.169 1.4023 1.5117 1.09898 0.88 1.0076 1.1437 1.6158 1.4348 1.0976 1.4095
3192.458 1.5061 1.4607 1.3115 1.2181 1.2047 1.2876 1.3909 1.166 1.308 1.4985
3211.748 0.9767 1.1504 1.5401 1.3936 1.2916 1.0181 0.847 0.915 1.3563 1.3496
3231.038 0.812 0.629 0.853 1.4823 1.4902 0.732 0.728 1.1684 0.927 0.9512
3250.328 1.05942 1.0057 1.2168 0.9975 0.767 1.11904 1.2911 1.3293 1.813 1.7232
3269.617 1.5332 1.4023 0.786 0.758 1.06904 1.2146 1.10276 0.901 0.555 0.579
3288.907 0.532 0.316 0.636 1.05631 0.9536 1.10325 1.4181 0.83 1.06469 2.31
3308.197 2.87 2.35 1.9352 1.7625 1.6341 1.4205 1.436 1.4218 1.07682 1.5019
3327.487 1.5933 1.4223 1.3165 0.9601 0.635 0.14 0.332 1.0395 1.3739 1.6653
3346.777 1.5587 1.1656 1.4368 1.2008 0.726 0.9466 0.919 1.1797 1.365 1.334
3366.066 1.5345 2.04 2.32 1.539 0.9759 1.05791 1.6977 1.7079 1.1339 0.87
3385.356 0.919 1.2505 1.258 1.2569 1.3093 1.2165 0.9826 0.998 1.2978 0.9431
3404.646 0.595 0.884 0.882 0.827 1.2431 1.5115 1.009 0.803 0.858 1.10435
3423.936 1.1973 0.823 0.715 0.918 1.45 1.6828 1.2744 1.12209 1.3188 1.5036
3443.225 0.9843 0.303 0.795 1.3456 1.5831 1.7266 1.5214 1.04032 1.07444 1.2833
3462.515 1.0931 1.2877 1.552 1.4721 1.4445 1.6946 1.5891 1.06349 0.86 0.852
3481.805 0.725 0.699 1.6179 1.8493 1.4117 1.6038 1.2948 0.924 1.3017 1.06728
3501.095 0.806 0.61 0.507 0.843 0.745 1.0181 0.9483 0.513 1.0228 1.3275
3520.385 0.719 0.711 1.1429 0.885 0.746 1.2293 1.1671 0.924 1.1647 1.1642
3539.674 1.2636 1.705 1.7684 1.5506 1.0419 0.661 0.759 1.09838 1.5484 1.4741
3558.964 1.1312 0.885 0.776 1.2239 1.11076 0.904 1.3137 0.9846 0.662 1.2033
3578.254 1.1573 0.659 0.757 1.2418 1.865 1.8282 1.4669 1.07283 1.2482 1.5389
3597.544 1.09775 1.2555 1.3414 1.2456 1.10034 1.2923 1.275 0.599 0.82 0.759
3616.833 0.9556 1.7154 1.1755 0.81 1.1855 1.1971 1.1802 0.815 0.645 1.1361
3636.123 1.3828 1.3544 1.3321 1.2593 1.4705 1.2364 1.06517 0.918 0.495 0.756
3655.413 0.736 0.671 1.1683 1.3542 0.934 1.10566 1.4142 1.5161 1.4499 1.378
3674.703 1.4158 0.862 0.502 0.859 1.2335 0.751 0.769 1.212 1.1351 1.3246
3693.993 1.07349 1.1858 1.6722 1.8688 1.5435 1.03992 1.5993 1.8483 1.2828 1.2436
3713.282 1.5391 1.1948 0.904 1.1501 1.6362 2.18 1.5927 1.11433 1.3158 0.65
3732.572 0.417 0.779 1.1653 1.431 1.4644 1.08899 0.48 1.12712 1.7021 1.5702
3751.862 1.5714 1.9881 1.7345 1.2786 1.3072 0.617 0.502 1.09527 1.408 1.6412
3771.152 1.5565 1.2215 1.2809 1.3589 1.2668 1.3032 1.6396 1.4978 1.3515 1.7078
3790.441 1.8808 1.347 0.488 0.87 1.1521 1.09408 1.11636 0.793 0.648 0.9839
3809.731 1.4358 1.2914 1.10993 1.3523 0.9893 0.7 0.9801 0.791 0.894 0.9822
3829.021 1.5654 1.8076 1.1743 1.0138 0.666 0.713 0.86 0.73 0.597 0.622
3848.311 1.02343 1.4327 1.5045 0.9489 0.78 1.06908 1.06597 0.9696 0.968 0.906
3867.601 0.9516 1.6616 1.4633 1.1381 1.4998 1.1549 0.778 0.788 1.3935 1.4495
3886.890 1.08226 1.03607 0.9325 0.9468 1.3673 1.0191 0.384 0.9433 1.2049 1.08826
3906.180 1.358 1.672 1.7978 1.2363 0.604 1.03341 1.6013 1.2465 0.613 0.709
3925.470 1.05288 1.2601 1.4515 1.439 1.3069 1.2221 1.3785 1.12057 0.9788 1.2619
3944.760 0.9659 0.5 0.72 1.5468 1.4855 1.2924 1.27 1.3589 1.6409 1.214
3964.049 0.77 0.697 0.9586 0.9863 1.0754 1.4516 1.477 1.1967 0.815 0.9493
3983.339 1.1503 0.764 0.802 1.06106 1.2185 1.5011 1.4943 1.11749 0.483 0
##END=
