##TITLE=1,2-Dibromo-4,5-methylenedioxybenzene
##JCAMP-DX=4.24
##DATA TYPE=INFRARED SPECTRUM
##ORIGIN=EPA-IR VAPOR PHASE LIBRARY
##OWNER=SRD/NIST
Collection (C) 2018 copyright by the U.S. Secretary of Commerce
on behalf of the United States of America. All rights reserved.
##CAS REGISTRY NO=5279-32-3
##MOLFORM=C 7 H 4 Br 2 O 2
##$NIST SOURCE=MSDC-IR
##STATE=gas
##XUNITS=1/CM
##YUNITS=ABSORBANCE
##XFACTOR=1.
##YFACTOR=0.001
##DELTAX=1.92934
##FIRSTX=549.9
##LASTX=3999.5
##FIRSTY=1.9937
##MAXX=3999.53
##MINX=549.863
##MAXY=0.46657
##MINY=0
##NPOINTS=1789
##XYDATA=(X++(Y..Y))
549.863 1.9937 2.11844 2.07063 1.9657 1.884 1.9574 1.9599 1.83 1.923 2.1591
569.156 2.1563 2.017 2.13873 2.1884 2.2146 2.4979 2.8894 3.1 3.13 3.27
588.450 3.45 3.5 3.57 3.76 3.93 4.11 4.42 4.68 5.05 5.57
607.743 6.14 6.91 8.22 10.6 14.82 21.24 29.34 36.41 40.3 40.94
627.037 39.08 35.26 26.98 16.41 9.02 5.47 3.9 3.07 2.6377 2.4176
646.330 2.2536 2.10953 2.1559 2.12622 1.99 1.914 1.927 1.962 2.0189 2.08652
665.624 2.08057 2.12459 2.285 2.4816 2.5186 2.5103 2.4831 2.5227 2.6997 2.9583
684.917 3.33 3.89 4.79 6.15 8.1 10.37 12.51 13.82 14.08 14.11
704.210 13.97 12.73 10.67 8.55 6.89 6.02 6.07 6.85 7.55 7.53
723.504 7.15 6.58 5.75 4.68 3.38 2.4457 2.07921 1.9839 1.913 1.901
742.797 1.9657 1.9926 2.04409 2.09217 2.0461 2.03012 2.08665 2.11701 2.1516 2.1478
762.091 2.08367 2.05801 2.05213 2.11334 2.2038 2.2593 2.2885 2.2947 2.4694 2.6767
781.384 2.8706 3.11 3.32 3.52 3.7 3.75 3.74 3.84 3.96 4.15
800.678 4.49 4.99 5.77 6.9 8.55 11.03 14.38 18.5 22.9 26.53
819.971 28.63 29.14 28.07 25.51 21.83 17.85 14.7 12.99 12.28 12.24
839.264 12.84 14.26 17.03 21.62 27.97 35.11 42.12 49.83 61.26 72.39
858.558 64.66 46.77 38.03 31.93 24.5 17.44 12.04 8.74 6.8 5.75
877.851 5.14 4.67 4.41 4.33 4.37 4.51 4.78 5.16 5.59 6.09
897.145 6.52 6.78 6.87 6.88 6.98 6.96 6.89 7.01 7.42 8.14
916.438 9.12 10.41 12.05 14.15 16.65 19.71 23.32 27.48 32.25 37.56
935.732 43.31 49.09 54.51 59.1 62.13 62.72 60.6 56.44 51.05 44.25
955.025 36.12 28.28 21.76 16.84 13.37 10.99 9.37 8.3 7.64 7.2
974.318 6.95 6.78 6.7 6.71 6.8 6.99 7.26 7.56 7.86 8.16
993.612 8.4 8.59 8.73 8.85 9.03 9.32 9.83 10.61 11.72 13.22
1012.905 15.12 17.57 20.57 24.23 28.67 33.94 40.05 46.99 54.66 62.95
1032.199 71.9 81.19 90.34 98.54 104.74 108.06 107.98 104.79 98.97 91.36
1051.492 83 74.92 68.13 62.78 58.6 55.62 54.44 55.91 60.24 66.26
1070.786 71.34 73.79 73.43 69.61 61.68 49.37 35.76 25.74 20.06 17.12
1090.079 15.47 14.64 14.39 14.59 15.09 15.82 16.84 18.05 19.49 21.05
1109.372 22.47 23.61 24.32 24.48 24.27 23.85 23.43 23.26 23.72 25.22
1128.666 27.97 32.02 37.14 42.58 47.23 49.94 50.37 49.06 46.23 41.46
1147.959 35.09 28.46 22.6 18.09 14.91 12.76 11.56 10.95 10.59 10.38
1167.253 10.47 10.77 11.05 11.57 12.45 13.58 15.06 17 19.36 22.11
1186.546 25.49 29.3 32.88 36.37 39.39 41.8 43.61 45.57 48.6 53.32
1205.840 60.81 71.2 85.33 103.9 127.93 157.11 189.66 223.76 254.13 274.66
1225.133 281.29 272.06 247.97 212.39 170.03 127.46 92.33 68.16 52.68 42.11
1244.426 34.2 27.98 23.05 19.19 16.04 13.53 11.48 9.83 8.69 7.82
1263.720 7.23 6.76 6.51 6.25 5.96 5.72 5.41 5.27 5.03 4.69
1283.013 4.56 4.42 4.25 4.12 4.09 4.07 4.06 4.21 4.51 4.89
1302.307 5.3 5.87 6.56 7.36 8.26 9.22 10.34 11.56 12.82 13.97
1321.600 14.87 15.3 15.12 14.4 13.16 11.49 9.76 8.38 7.51 7.22
1340.894 7.54 8.29 9.35 10.67 12.22 13.79 15.08 15.82 15.88 15.45
1360.187 14.82 13.96 12.68 11.22 10.09 9.33 8.82 8.45 8.09 7.75
1379.480 7.51 7.41 7.41 7.61 8.1 8.85 9.84 11.05 12.37 13.76
1398.774 15.1 16.36 17.58 18.59 19.37 20 20.58 21.12 21.46 21.52
1418.067 21.45 21.26 20.96 20.72 20.78 21.22 22.19 23.75 26.11 29.44
1437.361 34.36 40.89 49.62 60.93 74.63 89.86 104.86 116.67 123.88 126.69
1456.654 126.67 126.07 128.11 137.09 159.07 198.68 255.63 324.85 393.99 446.67
1475.948 466.57 453.72 410.32 339.51 251.63 165.48 100.01 61.69 42.4 33.16
1495.241 29.16 28.46 30.81 36.02 42.45 46.66 47.43 45.88 41.89 35.39
1514.534 26.8 18.09 12.26 9.3 7.64 6.53 5.74 5.14 4.71 4.37
1533.828 4.11 3.92 3.8 3.69 3.6 3.53 3.45 3.33 3.16 3.05
1553.121 2.9728 2.8657 2.7535 2.6514 2.6041 2.5794 2.5629 2.5422 2.5517 2.5578
1572.415 2.5461 2.5825 2.637 2.6434 2.6743 2.7611 2.8613 2.9532 3.06 3.2
1591.708 3.37 3.53 3.72 3.97 4.24 4.5 4.85 5.18 5.5 5.83
1611.002 6.07 6.14 5.99 5.73 5.4 5.03 4.66 4.35 4.12 3.92
1630.295 3.75 3.52 3.27 3.12 3.02 2.9489 2.8827 2.8368 2.8651 2.9161
1649.588 2.9188 2.9197 2.9045 2.8794 2.9261 2.9499 2.9427 2.9869 3.08 3.21
1668.882 3.35 3.42 3.56 3.79 4.13 4.62 5.29 6.03 6.93 7.89
1688.175 8.76 9.42 9.7 9.55 8.99 8.24 7.31 6.19 5.14 4.19
1707.469 3.52 3.05 2.7656 2.5657 2.4507 2.3635 2.3125 2.2678 2.1866 2.1883
1726.762 2.1942 2.1537 2.1526 2.1415 2.1965 2.2743 2.2635 2.3009 2.3659 2.3621
1746.056 2.4222 2.5471 2.6016 2.6178 2.6902 2.7974 2.8867 2.9351 2.9911 3.11
1765.349 3.2 3.19 3.17 3.21 3.27 3.29 3.3 3.26 3.21 3.23
1784.642 3.26 3.25 3.26 3.29 3.37 3.47 3.53 3.63 3.74 3.81
1803.936 3.85 3.8 3.73 3.61 3.48 3.44 3.36 3.28 3.32 3.4
1823.229 3.41 3.43 3.52 3.66 3.82 3.98 4.21 4.46 4.65 4.79
1842.523 4.95 5.08 5.07 4.99 4.88 4.69 4.5 4.35 4.18 4.02
1861.816 3.87 3.74 3.68 3.7 3.74 3.73 3.74 3.81 3.81 3.81
1881.110 3.84 3.85 3.78 3.68 3.57 3.4 3.21 3.0131 2.8057 2.5832
1900.403 2.3724 2.233 2.1469 2.04821 1.9775 1.954 1.906 1.885 1.912 1.895
1919.696 1.873 1.895 1.892 1.916 1.9749 2.04253 2.07252 2.11716 2.2203 2.2886
1938.990 2.3642 2.4388 2.4755 2.5156 2.5523 2.5533 2.4977 2.4355 2.3659 2.2429
1958.283 2.11061 2.0125 1.9788 1.9708 1.937 1.917 1.937 1.9801 1.9754 1.9427
1977.577 1.9473 1.923 1.901 1.92 1.905 1.885 1.859 1.827 1.855 1.863
1996.870 1.864 1.908 1.915 1.9431 1.9778 2.0208 2.10003 2.1767 2.2142 2.2555
2016.164 2.3217 2.3617 2.3877 2.4502 2.5549 2.6852 2.8049 2.9099 3.1 3.3
2035.457 3.48 3.64 3.8 3.95 4.02 4.02 3.94 3.84 3.71 3.56
2054.750 3.42 3.32 3.27 3.2 3.15 3.14 3.09 3.0185 2.9965 3.0032
2074.044 3.011 3.0236 3.0037 2.9768 2.9892 2.9861 2.9026 2.8084 2.7087 2.5635
2093.337 2.3769 2.2008 2.08485 1.9597 1.838 1.73 1.657 1.615 1.615 1.617
2112.631 1.569 1.573 1.58 1.569 1.6 1.644 1.702 1.716 1.718 1.749
2131.924 1.765 1.808 1.867 1.853 1.874 1.909 1.899 1.881 1.829 1.772
2151.218 1.728 1.678 1.665 1.623 1.537 1.513 1.512 1.524 1.49 1.451
2170.511 1.423 1.404 1.401 1.385 1.364 1.378 1.346 1.3 1.347 1.371
2189.804 1.336 1.337 1.372 1.358 1.329 1.362 1.383 1.381 1.413 1.441
2209.098 1.445 1.438 1.466 1.477 1.507 1.572 1.626 1.672 1.764 1.854
2228.391 1.888 1.907 1.9519 1.9645 1.9472 1.935 1.925 1.9672 2.0177 2.06873
2247.685 2.1665 2.283 2.3589 2.4096 2.4838 2.5612 2.6194 2.6769 2.7432 2.8513
2266.978 2.9437 3.0065 3.11 3.19 3.29 3.39 3.43 3.46 3.48 3.48
2286.272 3.46 3.44 3.41 3.34 3.3 3.27 3.17 3.05 2.931 2.7694
2305.565 2.6144 2.4182 2.262 2.1617 2.0368 1.972 1.927 1.887 1.826 1.782
2324.858 1.741 1.701 1.672 1.61 1.545 1.49 1.42 1.358 1.332 1.298
2344.152 1.276 1.292 1.264 1.246 1.274 1.28 1.245 1.228 1.231 1.232
2363.445 1.245 1.238 1.284 1.328 1.328 1.362 1.355 1.325 1.338 1.319
2382.739 1.232 1.182 1.146 1.103 1.065 1.091 1.12 1.071 1.061 1.08
2402.032 1.08 1.07 1.051 1.086 1.1 1.084 1.093 1.094 1.113 1.116
2421.326 1.109 1.11 1.114 1.146 1.156 1.143 1.183 1.211 1.209 1.238
2440.619 1.295 1.369 1.429 1.458 1.461 1.449 1.451 1.456 1.415 1.396
2459.912 1.359 1.316 1.332 1.321 1.312 1.312 1.284 1.289 1.355 1.417
2479.206 1.455 1.493 1.553 1.648 1.75 1.871 1.9538 2.05578 2.2141 2.3507
2498.499 2.4527 2.5596 2.6398 2.6938 2.6867 2.6315 2.5965 2.5058 2.4108 2.3436
2517.793 2.2599 2.2122 2.1449 2.1538 2.2448 2.3328 2.3988 2.4524 2.5863 2.6551
2537.086 2.7286 2.8316 2.9012 2.9812 3.08 3.13 3.15 3.19 3.13 3.0196
2556.380 2.8725 2.6601 2.4899 2.3078 2.11402 1.909 1.738 1.685 1.614 1.509
2575.673 1.454 1.407 1.345 1.297 1.282 1.229 1.2 1.182 1.115 1.057
2594.966 1.04 1.044 1.044 1.06 1.102 1.112 1.135 1.136 1.119 1.138
2614.260 1.151 1.174 1.114 1.066 1.106 1.152 1.18 1.171 1.129 1.085
2633.553 1.093 1.181 1.233 1.188 1.187 1.18 1.152 1.22 1.25 1.241
2652.847 1.32 1.378 1.392 1.436 1.521 1.546 1.598 1.67 1.671 1.71
2672.140 1.808 1.896 1.965 1.9912 1.9595 1.9869 2.0093 2.04126 2.11676 2.1608
2691.434 2.2521 2.3344 2.3747 2.3874 2.3837 2.34 2.2266 2.1538 2.07167 1.927
2710.727 1.831 1.777 1.697 1.57 1.503 1.526 1.496 1.486 1.471 1.442
2730.020 1.503 1.57 1.61 1.724 1.838 1.866 1.9402 2.03085 2.1646 2.3294
2749.314 2.4367 2.5723 2.7702 2.9184 3.15 3.52 3.89 4.34 4.96 5.68
2768.607 6.45 7.22 8.01 8.73 9.25 9.49 9.33 8.8 8.02 7.09
2787.901 6.19 5.44 4.84 4.44 4.17 4.04 3.98 3.91 3.89 3.91
2807.194 3.97 3.99 4.07 4.19 4.24 4.35 4.48 4.57 4.69 4.91
2826.488 5.15 5.44 5.71 5.91 6.1 6.3 6.56 6.79 7.04 7.39
2845.781 7.74 8.13 8.48 9.02 9.66 10.21 10.87 11.57 12.16 12.71
2865.074 13.23 13.77 14.42 15.18 16.16 17.41 19.09 21.24 23.78 26.64
2884.368 29.67 32.58 34.91 36.39 36.95 36.4 34.89 32.72 30.4 28.37
2903.661 26.83 25.87 25.44 25.65 26.18 26.91 27.79 28.61 29.38 29.88
2922.955 29.96 29.53 28.8 27.67 26.29 25.01 23.53 22.12 21.02 19.97
2942.248 19.16 18.65 18.09 17.73 17.62 17.47 17.42 17.39 17.21 16.9
2961.542 16.36 15.74 15.02 14.31 13.68 12.96 12.39 12.13 12.06 12.11
2980.835 12.17 12.17 12.13 11.86 11.25 10.48 9.55 8.71 8.06 7.5
3000.128 7.15 6.98 6.97 7.24 7.69 8.3 9.29 10.52 11.71 12.55
3019.422 13.05 13.17 12.7 11.89 10.83 9.57 8.33 7.34 6.62 5.95
3038.715 5.47 5.2 4.94 4.68 4.36 4.04 3.85 3.63 3.33 3.11
3058.009 2.8485 2.5129 2.3839 2.1875 1.899 1.756 1.667 1.622 1.553 1.442
3077.302 1.373 1.377 1.432 1.559 1.749 1.838 2.08843 2.4582 2.5202 2.5649
3096.596 2.5987 2.3592 1.9599 1.6 1.306 1.129 1.053 0.99 0.88 0.72
3115.889 0.57 0.48 0.48 0.42 0.28 0.26 0.26 0.23 0.21 0.25
3135.182 0.2 0.15 0.17 0.22 0.21 0.1 0.03 0.03 0.08 0.09
3154.476 0.06 0.12 0.24 0.26 0.13 0 0.03 0.1 0.05 0.12
3173.769 0.15 0.05 0.04 0 0.04 0.2 0.27 0.29 0.28 0.24
3193.063 0.32 0.42 0.38 0.43 0.4 0.36 0.41 0.47 0.47 0.41
3212.356 0.41 0.48 0.48 0.52 0.58 0.4 0.31 0.3 0.31 0.35
3231.650 0.28 0.16 0.19 0.22 0.12 0.12 0.13 0.13 0.24 0.31
3250.943 0.33 0.33 0.26 0.21 0.33 0.35 0.29 0.35 0.36 0.32
3270.236 0.21 0.23 0.26 0.19 0.2 0.25 0.27 0.35 0.38 0.31
3289.530 0.26 0.26 0.38 0.3 0.24 0.32 0.3 0.27 0.35 0.51
3308.823 0.52 0.41 0.43 0.49 0.51 0.5 0.45 0.45 0.49 0.54
3328.117 0.5 0.33 0.27 0.27 0.29 0.44 0.54 0.57 0.54 0.48
3347.410 0.45 0.51 0.57 0.56 0.57 0.57 0.64 0.59 0.58 0.66
3366.704 0.67 0.68 0.67 0.69 0.69 0.68 0.65 0.63 0.68 0.64
3385.997 0.61 0.74 0.64 0.56 0.67 0.7 0.73 0.73 0.71 0.76
3405.290 0.74 0.61 0.67 0.71 0.68 0.72 0.81 0.84 0.82 0.71
3424.584 0.69 0.77 0.82 0.79 0.82 0.87 0.83 0.82 0.75 0.73
3443.877 0.69 0.69 0.84 0.88 0.8 0.77 0.79 0.81 0.88 0.92
3463.171 0.83 0.82 0.84 0.76 0.81 0.97 0.99 0.99 0.94 0.92
3482.464 0.97 0.93 0.96 1.072 1.153 1.102 1.086 1.142 1.05 0.98
3501.758 0.98 0.98 1.07 1.04 1.02 1.077 1.03 1.047 1.095 1.063
3521.051 0.98 0.92 0.89 0.95 1.03 1.082 1.105 1.058 1.04 1.01
3540.344 0.98 1 0.98 1 0.99 1 1.056 1.02 1.041 1.05
3559.638 0.96 0.91 0.97 1.03 1.01 1.045 1.171 1.191 1.134 1.099
3578.931 1.119 1.04 1.053 1.133 1.042 1.054 1.03 1.01 1.078 1.152
3598.225 1.123 1.1 1.169 1.212 1.262 1.222 1.192 1.177 1.156 1.198
3617.518 1.117 1.072 1.178 1.192 1.169 1.148 1.068 1.064 1.04 1.03
3636.812 1.01 1.041 1.117 1.149 1.227 1.231 1.115 1.083 1.146 1.143
3656.105 1.163 1.153 1.248 1.279 1.212 1.2 1.166 1.144 1.219 1.254
3675.398 1.201 1.297 1.282 1.188 1.215 1.207 1.188 1.187 1.184 1.163
3694.692 1.175 1.233 1.256 1.257 1.258 1.255 1.199 1.184 1.258 1.274
3713.985 1.224 1.174 1.194 1.186 1.227 1.376 1.362 1.369 1.433 1.391
3733.279 1.314 1.264 1.247 1.246 1.205 1.185 1.187 1.237 1.268 1.237
3752.572 1.238 1.235 1.219 1.166 1.158 1.232 1.271 1.234 1.221 1.203
3771.866 1.208 1.184 1.134 1.133 1.128 1.174 1.164 1.141 1.177 1.214
3791.159 1.238 1.214 1.137 1.116 1.108 1.197 1.234 1.172 1.227 1.246
3810.452 1.238 1.185 1.189 1.226 1.217 1.193 1.174 1.159 1.177 1.223
3829.746 1.174 1.114 1.093 1.063 1.095 1.093 1.03 1.077 1.104 1.116
3849.039 1.169 1.133 1.047 1 1.1 1.158 1.156 1.064 1 1.084
3868.333 1.064 1.109 1.208 1.197 1.15 1.083 1.089 1.103 1.092 1.107
3887.626 1.141 1.206 1.224 1.271 1.202 1.104 1.131 1.113 1.168 1.27
3906.920 1.259 1.218 1.235 1.263 1.261 1.31 1.365 1.423 1.404 1.278
3926.213 1.292 1.375 1.427 1.458 1.502 1.536 1.552 1.593 1.503 1.447
3945.506 1.463 1.398 1.327 1.367 1.395 1.353 1.425 1.494 1.459 1.332
3964.800 1.302 1.415 1.44 1.455 1.532 1.555 1.446 1.405 1.482 1.476
3984.093 1.486 1.54 1.516 1.458 1.49 1.425 1.351 1.407 1.416
##END=
