##TITLE=1,2-Dinitrobenzene
##JCAMP-DX=4.24
##DATA TYPE=INFRARED SPECTRUM
##ORIGIN=NIST Mass Spectrometry Data Center
##OWNER=NIST Standard Reference Data Program
Collection (C) 2018 copyright by the U.S. Secretary of Commerce
on behalf of the United States of America. All rights reserved.
##CAS REGISTRY NO=528-29-0
##MOLFORM=C 6 H 4 N 2 O 4
##$NIST SOURCE=MSDC-IR
##SPECTROMETER/DATA SYSTEM=HP-GC/MS/IRD
##STATE=gas
##XUNITS=1/CM
##YUNITS=ABSORBANCE
##XFACTOR=1.0
##YFACTOR=0.000003500
##DELTAX=4.0
##FIRSTX=550.0
##LASTX=3846.0
##FIRSTY=0.000256
##MAXX=3846
##MINX=550
##MAXY=0.035
##MINY=0
##NPOINTS=825
##XYDATA=(X++(Y..Y))
550.0 73 54 39 23 18 57 89 111 120 133
590.0 117 75 57 38 19 19 12 11 16 23
630.0 51 106 176 225 258 299 282 218 174 154
670.0 153 165 188 217 281 442 657 838 947 959
710.0 883 741 646 633 697 731 652 563 478 414
750.0 397 425 506 635 789 897 1008 1079 873 609
790.0 435 271 151 108 113 122 150 214 306 456
830.0 699 990 1221 1311 1298 1246 1109 919 781 666
870.0 475 246 116 71 50 35 22 10 4 7
910.0 8 13 20 12 8 13 26 29 32 41
950.0 53 63 53 41 28 21 18 11 8 1
990.0 0 1 0 3 6 13 14 11 21 48
1030.0 66 74 75 69 55 40 33 39 41 47
1070.0 65 74 67 51 35 25 29 34 32 40
1110.0 48 51 54 53 57 55 55 57 58 61
1150.0 63 61 48 46 58 65 59 56 61 57
1190.0 56 57 52 48 45 41 38 40 41 50
1230.0 65 68 74 80 84 92 104 119 140 158
1270.0 177 195 209 231 259 277 293 311 329 353
1310.0 391 466 583 734 939 1231 1673 2359 3303 4324
1350.0 5099 5394 5092 4198 3008 2021 1404 1006 753 607
1390.0 526 475 438 398 350 304 261 226 203 186
1430.0 178 188 213 244 269 296 311 316 325 342
1470.0 369 386 390 378 363 352 353 372 406 467
1510.0 564 703 904 1173 1524 1956 2484 3135 3984 5110
1550.0 6515 7958 9233 10000 9548 8283 6831 5354 4197 3345
1590.0 2699 2160 1699 1332 1036 815 666 572 528 500
1630.0 469 432 387 343 301 265 232 197 168 142
1670.0 121 109 97 86 73 71 70 64 60 62
1710.0 63 70 73 73 77 79 79 75 66 53
1750.0 45 41 37 35 30 30 28 23 20 18
1790.0 20 20 21 25 34 45 56 68 77 78
1830.0 70 58 46 32 26 30 36 34 27 24
1870.0 20 15 14 15 16 16 21 23 26 30
1910.0 30 34 36 37 45 58 69 67 60 52
1950.0 43 40 46 50 51 49 44 35 28 25
1990.0 18 15 14 13 12 11 11 9 4 5
2030.0 12 9 6 12 13 11 7 0 2 10
2070.0 6 0 2 6 8 8 10 9 8 9
2110.0 9 6 7 14 10 7 10 14 15 15
2150.0 10 5 9 12 15 14 10 11 14 11
2190.0 7 6 8 13 14 15 20 25 23 19
2230.0 15 13 15 15 12 13 15 13 13 13
2270.0 10 8 7 9 12 15 14 14 19 21
2310.0 22 24 22 19 22 22 19 15 17 14
2350.0 10 9 6 5 6 9 15 19 20 21
2390.0 27 33 34 34 38 40 36 35 40 35
2430.0 25 23 21 16 11 11 9 8 7 2
2470.0 1 6 6 7 9 11 9 7 7 8
2510.0 12 14 12 10 5 5 8 10 11 8
2550.0 5 5 3 3 2 0 4 11 12 11
2590.0 11 10 11 10 13 17 20 26 24 23
2630.0 22 18 24 26 25 25 27 32 35 41
2670.0 47 48 54 60 65 76 81 80 75 66
2710.0 58 55 54 52 47 47 48 43 39 29
2750.0 27 25 21 17 15 16 13 22 24 20
2790.0 21 21 22 23 23 22 22 20 22 25
2830.0 27 29 30 33 40 47 49 48 56 67
2870.0 75 92 112 125 137 155 166 177 183 185
2910.0 181 166 145 126 111 101 92 83 74 61
2950.0 54 51 42 41 38 28 23 21 23 24
2990.0 20 23 26 31 39 41 42 41 42 48
3030.0 48 48 48 44 42 49 55 60 66 72
3070.0 80 97 114 128 152 163 158 147 116 92
3110.0 79 65 50 40 33 26 22 18 17 19
3150.0 16 12 9 10 12 7 4 7 8 11
3190.0 15 26 27 17 12 17 18 16 11 9
3230.0 10 12 13 11 6 10 11 10 14 8
3270.0 15 15 8 16 15 5 0 2 5 7
3310.0 11 20 21 20 14 8 12 19 19 13
3350.0 12 11 12 14 19 21 14 10 9 15
3390.0 17 15 15 17 17 13 14 14 19 16
3430.0 7 8 16 19 18 15 19 25 27 24
3470.0 22 22 19 21 25 22 19 20 22 14
3510.0 17 20 13 18 24 25 25 29 28 21
3550.0 21 22 17 20 28 28 19 15 21 23
3590.0 19 24 22 20 24 24 22 20 19 22
3630.0 27 23 27 29 17 28 35 24 24 26
3670.0 27 24 17 18 21 22 28 28 25 32
3710.0 24 22 33 32 29 40 39 36 36 33
3750.0 29 33 34 29 29 22 21 32 31 25
3790.0 30 34 31 30 34 26 16 19 26 36
3830.0 33 18 16 27 25
##END=
