##TITLE=2,4-Dinitrobenzaldehyde
##JCAMP-DX=4.24
##DATA TYPE=INFRARED SPECTRUM
##ORIGIN=EPA-IR VAPOR PHASE LIBRARY
##OWNER=SRD/NIST
Collection (C) 2018 copyright by the U.S. Secretary of Commerce
on behalf of the United States of America. All rights reserved.
##CAS REGISTRY NO=528-75-6
##MOLFORM=C 7 H 4 N 2 O 5
##$NIST SOURCE=MSDC-IR
##STATE=gas
##XUNITS=1/CM
##YUNITS=ABSORBANCE
##XFACTOR=1.
##YFACTOR=0.001
##DELTAX=1.92898
##FIRSTX=549.8
##LASTX=4000.7
##FIRSTY=3.11
##MAXX=4000.7
##MINX=549.759
##MAXY=0.23111
##MINY=0
##NPOINTS=1790
##XYDATA=(X++(Y..Y))
549.759 3.11 2.63 2.58 2.85 2.93 3.15 2.63 2.29 2.17 2.33
569.049 2.34 2.1205 1.9747 1.8229 2.44 2.6 2.48 2.59 2.41 2.0997
588.339 2.38 2.53 2.97 3.12 2.45 2.86 3.09 2.5 2.37 2.97
607.628 3.08 2.89 2.62 2.16 2.0052 2.0778 2.94 2.86 1.7515 1.8975
626.918 2.28 2.34 2.34 2.2 2.63 2.64 2.25 2.31 2.79 3.28
646.208 3.63 3.77 3.75 4.31 4.49 4.63 4.95 4.89 5.3 5.55
665.498 5.77 6.11 5.9 5.7 5.64 5.36 5.22 5.25 5.26 5.66
684.787 5.62 5.5 5.88 6.16 6.19 6.76 7.54 8.08 8.89 9.57
704.077 10.61 11.9 12.21 13.1 14.57 15.46 16.11 16.94 18.3 19.08
723.367 19.64 21.19 22.33 22.72 22.79 22.77 22.79 21.75 20.31 18.55
742.657 16.35 14.32 13.29 12.29 10.31 9.38 8.97 7.98 7.54 7.93
761.947 8.2 7.87 8.19 8.62 8.51 8.68 8.96 9.87 10.99 12.12
781.236 13.51 14.87 16.61 18.02 20.22 23.52 26.8 29.87 33.93 38.96
800.526 43.31 46.97 50.64 52.82 53.54 53.37 51.84 49.3 45.52 41.59
819.816 39.35 36.81 34.96 34.18 32.46 32.08 31.44 30.66 30.2 29.75
839.106 28.77 26.99 24.56 21.97 20.07 18.03 16.51 14.67 12.82 11.82
858.395 10.8 9.53 7.92 6.79 6.15 5.57 5.28 5.09 4.64 4.65
877.685 5.16 4.8 4.49 4.1 4.13 4.77 5 5.61 6.42 7.23
896.975 7.97 9.36 11.15 12.78 14.41 15.81 17.14 18.28 18.57 18.53
916.265 17.9 15.52 13.25 11.17 9.04 7.41 6.08 5.04 4.05 3.04
935.555 2.49 2.46 2.31 2.39 2.2 2.1246 1.8291 1.21473 2.0559 2.59
954.844 2.1096 2.4 2.51 1.8799 1.9801 2.73 2.52 2.2 2.49 2.47
974.134 1.7519 1.517 1.8565 1.8824 2.32 2.58 2.71 2.77 2.44 2.53
993.424 2.4 2.48 2.88 2.41 1.6125 1.096 1.19524 1.3915 1.18847 1.248
1012.714 1.3285 1.6968 2.34 2.49 1.7268 1.033 0.839 0.388 0.775 2.0335
1032.003 2.46 1.5153 1.3818 2.41 2.65 3.05 3.03 2.48 3.62 5.1
1051.293 5.65 6 6.62 7.9 8.63 8.61 8.43 7.29 6.71 7.12
1070.583 6.18 3.71 2.75 3.12 3.03 2.99 2.62 3 3.59 3.45
1089.873 3.68 3.14 2.49 2.37 2.62 3.58 4.92 4.88 5.03 5.58
1109.163 5.99 7.65 9.16 9.01 8.82 8 6.49 6.78 7 6.97
1128.452 6.65 5.83 4.78 4.52 5.83 7.24 7.25 6.86 7.22 7.52
1147.742 7.79 8.05 7.15 6.92 8.43 9.59 9.85 11.61 14.32 16.6
1167.032 20.24 24.67 29.35 34.46 39.33 43.41 45.63 46.83 46.85 42.47
1186.322 36.92 31.49 25.52 20.71 16.85 13.61 11.22 10.7 10.46 9.87
1205.611 9.55 7.83 5.91 5.78 5.55 5.97 5.48 4.32 5.66 6.9
1224.901 5.35 4.59 5.95 6.14 6.56 6.5 5.11 5.85 7.68 9.03
1244.191 10.42 11.19 11.56 12.55 12.72 12.28 12.22 11.72 10.79 9.54
1263.481 9.49 8.76 7.06 6.59 6.67 6.87 6.72 6.76 7.09 7.17
1282.771 7.43 7.39 7.67 8.28 8.38 8.81 9.46 9.79 10.37 10.8
1302.060 11.31 11.95 12.19 12.6 13.17 13.88 14.63 15.74 17.38 19.36
1321.350 22.11 25.94 31.13 38.02 47.02 58.95 74.68 94.14 116.55 140.23
1340.640 162.69 180.28 190.67 193.15 187.53 173.78 152.93 127.86 102.99 82.23
1359.930 65.95 53.86 44.76 37.78 32.91 29.41 27.49 26.88 26.74 26.95
1379.219 27.08 26.96 26.58 25.84 24.62 23.06 21.5 20 19.06 18.59
1398.509 18.08 17.7 17.55 17.28 16.67 15.82 14.94 13.82 12.56 11.63
1417.799 10.88 9.99 8.86 8.11 7.75 7.24 6.94 6.86 6.73 6.56
1437.089 6.41 6.21 6.02 6 5.92 5.81 5.9 5.96 6.06 6.22
1456.378 6.27 6.3 6.43 6.66 6.68 6.74 7.14 7.75 8.02 8.18
1475.668 8.68 8.96 9.35 9.81 10.44 11.21 11.99 13.05 14.16 15.52
1494.958 17.22 18.97 20.55 22.23 24.17 25.88 27.51 28.98 30.01 30.88
1514.248 31.75 32.68 33.77 35.39 37.54 39.91 42.77 46.58 51.67 58.5
1533.538 67.33 78.53 92.46 110.57 131.44 153.84 177.01 198.43 215.61 226.92
1552.827 231.11 227.86 215.11 192.8 166.34 141.67 119.15 100.61 86.88 77.21
1572.117 70.71 66.5 63.68 61.87 60.72 60.23 60.09 59.96 60.57 61.48
1591.407 62.46 63.09 63.28 62.77 61.16 58.66 55.77 52.73 48.9 44.3
1610.697 39.5 34.68 30.14 26.06 22.48 19.81 17.86 16 14.58 13.83
1629.986 13.28 12.6 11.99 11.71 11.54 11.21 10.71 10.06 9.64 9.35
1649.276 8.98 8.65 8.23 7.81 7.44 7.3 7.05 6.84 6.93 7.16
1668.566 7.36 7.38 7.68 8.02 8.48 8.99 9.19 9.48 9.89 10.12
1687.856 10.29 10.78 11.52 12.61 14.3 16.4 19.23 23.32 28.78 36.72
1707.146 47.44 61.76 79.45 97.8 112.43 120.56 123.54 124.17 119.96 106.79
1726.435 86.82 66.84 50.4 38.34 29.52 23.53 19.59 16.77 14.66 12.85
1745.725 11.62 10.75 9.84 8.95 8.44 8.1 7.62 7.23 6.85 6.33
1765.015 6.11 6.02 5.68 5.24 4.96 4.74 4.6 4.51 4.17 3.8
1784.305 3.61 3.43 3.17 3.07 3.09 2.94 2.86 2.8 2.84 2.95
1803.594 2.98 3.01 3.17 3.3 3.32 3.55 3.68 3.62 3.42 3.42
1822.884 3.5 3.42 3.41 3.37 3.32 3.14 2.82 2.6 2.67 2.56
1842.174 2.29 2.27 2.23 2.0459 1.9937 2.081 2.14 2.0039 1.8054 1.7481
1861.464 1.6728 1.6667 1.6254 1.4655 1.529 1.5824 1.5695 1.7298 1.593 1.4226
1880.754 1.5427 1.5302 1.3169 1.4187 1.5517 1.546 1.6009 1.5122 1.4159 1.3634
1900.043 1.5245 1.5484 1.3803 1.3637 1.389 1.4347 1.471 1.3633 1.2916 1.334
1919.333 1.3033 1.4107 1.6213 1.5825 1.4489 1.5248 1.5101 1.5627 1.9171 1.9824
1938.623 1.9498 2.0461 2.034 2.0989 2.27 2.32 2.18 2.1092 2.0577 2.019
1957.913 1.9346 1.9379 2.0986 1.9084 1.6354 1.8732 2.0304 1.9706 1.8283 1.7046
1977.202 1.6843 1.6314 1.5834 1.4495 1.3933 1.3466 1.4109 1.5514 1.5018 1.3728
1996.492 1.4001 1.4918 1.3174 1.2515 1.4153 1.18485 1.2527 1.5114 1.3331 0.985
2015.782 0.846 1.0655 1.20477 1.3071 1.432 1.3237 1.23032 1.2465 1.3101 1.3682
2035.072 1.4198 1.3083 1.1071 1.2629 1.2651 1.0719 1.161 1.21968 1.14466 1.23264
2054.362 1.22309 1.2761 1.4075 1.2626 1.16388 1.18694 1.367 1.3598 1.16137 1.18112
2073.651 1.3475 1.3135 1.0418 1.20579 1.3531 1.038 0.982 0.944 0.935 1.001
2092.941 0.884 1.02 1.22453 1.22198 1.17085 1.0569 0.968 0.979 0.918 1.0963
2112.231 1.1191 1.0938 1.3 1.3136 1.3859 1.2401 1.0401 0.964 0.971 0.994
2131.521 1.015 1.041 1.0674 1.2981 1.3912 1.18842 1.039 1.1216 1.15304 1.0411
2150.810 1.0766 1.1277 0.97 1.001 0.948 0.916 1.0436 1.008 1.1029 0.941
2170.100 0.632 0.645 0.793 0.743 0.81 0.948 1.025 1.2049 1.19075 1.1296
2189.390 1.0487 0.928 1.0662 1.18392 1.17957 0.972 0.803 0.957 0.861 0.782
2208.680 0.993 1.0628 1.003 1.0572 1.1161 1.12 1.0516 0.8 0.816 1.1703
2227.970 1.105 0.808 0.922 1.0862 1.0404 1.1409 1.20921 1.1143 1.002 0.978
2247.259 1.0863 0.927 0.894 1.029 0.918 1.0837 1.029 0.872 1.13763 1.0954
2266.549 0.89 1.20379 1.5385 1.5511 1.3663 1.1011 1.017 1.2862 1.3499 1.1105
2285.839 1.037 0.951 1.051 1.1138 0.991 1.0627 1.13562 1.008 0.946 1.017
2305.129 1.14846 1.294 1.19102 1.18581 1.347 1.3524 1.15144 0.969 0.905 0.782
2324.418 0.9 0.984 1.0507 1.13459 1.04 0.838 0.922 1.20154 1.1979 1.17151
2343.708 1.18208 1.17246 1.17628 0.992 0.868 1.0733 1.3325 1.3717 1.3245 1.5149
2362.998 1.4835 1.1044 1.113 1.23647 1.0714 1.2403 1.5216 1.5274 1.3669 1.3056
2382.288 1.2834 1.18662 1.20683 1.3614 1.3083 1.008 0.985 1.0988 1.1241 1.015
2401.578 1.03 1.21061 1.23308 1.3995 1.4058 1.021 0.859 0.984 1.15392 1.0773
2420.867 1.002 1.15147 1.2948 1.3178 1.1125 1.22479 1.2954 1.0491 1.02 1.2403
2440.157 1.3961 1.3429 1.338 1.5166 1.834 1.6386 1.3546 1.5622 1.5371 1.4601
2459.447 1.4034 1.21851 1.3401 1.3908 1.23099 1.2138 1.3191 1.3638 1.356 1.2814
2478.737 1.0582 1.1005 1.19219 1.18924 1.2035 1.3976 1.6566 1.3455 1.014 1.127
2498.026 1.0894 1.1114 1.3918 1.19071 1.13854 1.274 1.20529 1.2959 1.3364 1.1161
2517.316 0.809 0.889 1.023 0.887 0.885 0.968 1.13998 1.3019 1.15654 1.027
2536.606 1.032 0.677 0.629 0.985 1.036 1.20382 1.15367 1.0594 1.1358 1.009
2555.896 0.806 0.701 0.999 1.21269 1.18882 0.968 0.805 1.023 1.16833 1.1013
2575.186 0.941 1.003 1.0736 0.871 0.713 0.78 0.789 1.0505 1.418 1.18905
2594.475 1.15696 1.5286 1.3915 1.0885 1.0961 0.942 0.634 0.865 1.23879 1.4019
2613.765 1.679 1.4484 1.20022 1.2966 1.2527 1.3491 1.2978 1.21708 1.14456 1.2598
2633.055 1.3728 1.3065 1.6537 1.8161 1.6071 1.5646 1.454 1.31 1.3568 1.5274
2652.345 1.589 1.5477 1.524 1.4265 1.5763 1.9878 2.16 2.0433 2.18 2.35
2671.634 2.41 2.77 3 2.99 3.13 3 2.77 3.06 3.21 3.17
2690.924 3.37 3.23 2.98 2.99 3.04 3 2.91 2.99 3.12 2.99
2710.214 3.21 3.46 3.18 3.17 3.22 3.04 3.14 3.35 3.41 3.33
2729.504 3.3 3.23 3.36 3.41 3.75 4.08 3.76 4 4.02 3.69
2748.794 3.62 3.81 3.65 3.32 3.34 3.59 3.34 2.8 3.17 3.22
2768.083 2.9 2.78 2.75 3.2 3.42 3.07 2.92 2.91 2.96 2.9
2787.373 2.99 3.04 2.95 2.81 2.88 3.09 3.07 3.25 3.34 3.22
2806.663 3.32 3.51 3.67 3.87 4.16 4.57 4.35 3.79 4 4.23
2825.953 4.54 5.01 4.79 5.01 5.26 5.15 5.2 5.23 5.26 5.71
2845.242 5.88 5.9 6.04 5.86 5.97 6.2 6.4 6.43 6.42 6.53
2864.532 6.55 7.01 7.34 7.16 7.6 8.16 8.52 9.22 10.01 10.88
2883.822 11.97 12.98 13.5 14.16 14.93 15.31 15.64 15.87 15.71 15.27
2903.112 14.25 12.81 11.74 10.62 9.52 8.45 7.57 6.99 6.46 5.76
2922.401 5.38 5.23 4.75 4.87 4.5 3.93 4.23 4.42 4.26 4.08
2941.691 3.79 3.62 3.6 3.66 3.52 3.09 3.14 3.26 3.22 2.85
2960.981 2.75 3.16 3 3.05 2.95 2.57 2.93 2.96 2.56 2.39
2980.271 2.4 1.9403 2.1049 2.66 2.41 2.0305 1.8797 1.9111 1.6358 1.4391
2999.561 1.6275 1.7361 1.9353 1.6828 0.99 1.4151 1.9408 1.658 1.2596 1.352
3018.850 1.7996 1.8884 1.716 1.413 1.5021 1.3093 1.016 1.3757 1.296 1.29
3038.140 1.8428 1.5913 1.3537 1.6923 1.8352 2.1339 2.0916 2.1219 2.6 2.68
3057.430 2.81 3.05 2.82 2.65 2.58 2.24 2.35 2.19 1.9112 2.0683
3076.720 2.22 2.8 2.85 2.98 3.75 4.02 4.57 5.12 5.33 5.82
3096.009 6.39 6.92 8 8.87 9.33 10.42 10.81 11 11.43 10.65
3115.299 9.72 9.19 8.02 6.84 5.54 4.69 3.83 2.87 2.57 2.0651
3134.589 1.4135 0.967 1.0616 0.945 0.819 1.5286 1.8026 1.485 1.5859 1.5954
3153.879 1.21557 1.558 1.6556 1.13004 1.1232 1.2427 1.5548 1.3478 0.923 0.834
3173.169 1.1179 1.3534 1.3279 1.0889 0.902 1.1152 1.1139 1.0844 0.882 0.634
3192.458 0.718 0.928 1.5128 1.675 1.3014 1.5217 1.5682 1.1178 0.703 0.592
3211.748 0.844 0.884 0.932 0.858 0.855 0.98 1.13055 1.005 0.548 0.816
3231.038 1.13746 0.913 0.937 0.985 0.959 1.1156 1.23911 1.3516 1.4057 1.2889
3250.328 0.82 0.867 1.3556 1.16919 0.891 0.84 1.007 1.15959 0.678 0.954
3269.617 1.13823 0.883 0.927 1.1144 0.95 0.251 0.525 1.15137 1.2431 1.4303
3288.907 1.3529 0.945 0.874 1.0659 1.2956 1.0574 0.914 1.2262 1.2763 1.022
3308.197 1.14941 1.391 1.0813 1.033 1.16663 0.875 0.745 0.801 1.0584 1.4446
3327.487 1.076 0.875 0.935 0.75 0.778 1.14149 1.3472 1.4955 1.5406 1.585
3346.777 1.775 1.3641 0.91 0.914 0.888 1.1031 1.383 1.4417 1.3287 0.71
3366.066 0.387 0.456 0.839 0.957 1.0646 1.18109 1.3649 1.4677 1.0436 1.07
3385.356 1.4266 1.8008 1.7228 1.5317 1.7045 1.791 1.893 1.7684 1.7762 2.22
3404.646 2.57 3.13 3.35 3.37 3.6 4.21 4.32 3.54 3.6 3.58
3423.936 2.97 2.92 3.15 3.2 2.46 1.5591 1.7335 1.7842 1.6493 1.3506
3443.225 0.952 1.2978 1.3351 1.3536 1.7334 1.4589 0.777 0.468 0.901 0.738
3462.515 0.652 1.029 0.841 1.2003 1.6065 1.2854 1.2897 1.5524 1.4014 1.2499
3481.805 1.1521 1.004 1.3041 1.2778 1.026 0.983 0.631 0.711 0.958 0.715
3501.095 0.998 0.768 0.34 0.566 0.981 1.0697 0.85 1.2722 1.282 1.19796
3520.385 1.4647 1.4255 0.851 0.69 0.713 0.706 0.849 1.1292 1.0806 0.424
3539.674 0.323 0.475 0.707 0.916 0.941 0.917 1.1554 0.722 0.611 1.3546
3558.964 1.2967 0.873 0.857 0.882 1.028 1.2771 1.0559 1.0717 0.874 0.592
3578.254 0.571 0.541 0.777 0.863 0.659 0.724 0.63 0.333 0.469 1.0711
3597.544 1.007 0.75 0.95 0.431 0.553 0.996 0.71 0.744 0.857 0.922
3616.833 0.969 1.003 0.975 0.903 1.0585 0.856 0.386 0.267 0.318 0.157
3636.123 0.183 0.156 0.27 0.592 0.179 0.198 0.877 1.21354 1.0603 0.832
3655.413 1.036 0.995 0.366 0.212 0.635 1.2411 1.5643 1.19611 0.773 0.41
3674.703 0.406 0.642 0.846 1.2828 1.2733 0.693 0.283 0.652 1.3994 1.22618
3693.993 1.2555 1.7344 1.4463 1.19212 0.858 0.745 0.622 0.641 0.903 0.972
3713.282 1.1213 0.905 1.011 1.1248 0.805 0.86 1.19995 1.1049 1.0715 1.14893
3732.572 1.035 1.0591 0.917 0.657 0.642 0.283 0.264 0.837 0.949 1.016
3751.862 0.851 0.761 0.997 1.0974 0.917 0.962 1.20064 1.799 1.5677 0.796
3771.152 1.0604 1.2799 1.2413 1.4234 1.6384 1.6455 1.2715 0.879 0.714 0.307
3790.441 0.437 0.732 0.678 1.0772 0.926 0.919 1.2346 1.0586 1.0844 1.4222
3809.731 1.8359 1.7514 1.5023 1.3132 1.3057 1.6168 1.6251 1.2766 1.14664 0.958
3829.021 0.931 0.872 1.0809 1.17363 0.855 1.017 0.87 0.383 0.793 1.4428
3848.311 1.5506 1.279 0.62 0.6 0.897 0.986 0.827 0.745 1.2416 1.2908
3867.601 0.965 1.13225 0.985 0.993 0.811 0.11 0.332 0.736 0.837 0.487
3886.890 0 0.272 0.53 0.583 0.786 1.039 1.1054 0.964 1.337 1.20599
3906.180 0.969 1.2807 1.4391 1.2885 0.671 0.759 1.0424 0.939 0.567 0.681
3925.470 1.3778 1.5842 0.797 0.507 0.498 0.393 0.603 0.563 0.974 1.0611
3944.760 0.831 0.847 1.1292 0.919 0.967 1.4731 1.3916 1.2496 1.2785 1.425
3964.049 1.4176 1.22506 0.979 0.653 0.632 0.93 1.274 1.5383 1.2562 0.897
3983.339 0.752 0.628 0.679 0.791 0.756 0.565 0.411 0.343 1.15361 1.5468
##END=
