##TITLE=4-Propyl-1,6-heptadien-4-ol
##JCAMP-DX=4.24
##DATA TYPE=INFRARED SPECTRUM
##ORIGIN=NIST Mass Spectrometry Data Center
##OWNER=NIST Standard Reference Data Program
Collection (C) 2018 copyright by the U.S. Secretary of Commerce
on behalf of the United States of America. All rights reserved.
##CAS REGISTRY NO=52939-61-4
##MOLFORM=C 10 H 18 O
##$NIST SOURCE=MSDC-IR
##SPECTROMETER/DATA SYSTEM=HP-GC/MS/IRD
##STATE=gas
##XUNITS=1/CM
##YUNITS=ABSORBANCE
##XFACTOR=1.0
##YFACTOR=0.000001800
##DELTAX=4.0
##FIRSTX=550.0
##LASTX=3846.0
##FIRSTY=0.001060
##MAXX=3846
##MINX=550
##MAXY=0.018
##MINY=0
##NPOINTS=825
##XYDATA=(X++(Y..Y))
550.0 589 291 126 166 198 171 162 176 187 228
590.0 239 292 320 326 354 391 386 372 381 400
630.0 412 387 376 387 428 427 389 381 376 417
670.0 493 495 461 460 418 328 261 228 162 117
710.0 87 62 70 85 105 127 179 247 276 293
750.0 291 263 242 232 248 265 313 379 424 456
790.0 472 439 424 398 336 281 243 210 205 238
830.0 272 321 394 507 650 797 951 1155 1371 1551
870.0 1656 1644 1563 1481 1450 1518 1694 2122 2977 4297
910.0 5829 7117 7683 7199 5818 4221 2961 2147 1684 1413
950.0 1248 1152 1088 1091 1173 1346 1661 2164 2883 3783
990.0 4704 5385 5611 5390 4900 4354 3911 3609 3325 2998
1030.0 2655 2307 1991 1728 1535 1437 1379 1308 1267 1274
1070.0 1272 1258 1248 1256 1281 1325 1377 1446 1524 1584
1110.0 1645 1725 1809 1885 1951 2028 2086 2152 2214 2224
1150.0 2207 2147 1994 1788 1577 1380 1208 1077 995 947
1190.0 934 953 987 1052 1129 1208 1269 1307 1339 1378
1230.0 1412 1448 1466 1484 1506 1540 1563 1581 1592 1598
1270.0 1604 1597 1577 1547 1538 1531 1525 1527 1514 1491
1310.0 1476 1476 1507 1545 1578 1616 1657 1686 1719 1762
1350.0 1820 1884 1924 1931 1903 1872 1832 1767 1662 1513
1390.0 1358 1222 1119 1086 1119 1208 1327 1468 1640 1862
1430.0 2171 2521 2795 2930 2867 2608 2274 1975 1726 1523
1470.0 1338 1119 897 695 543 426 366 323 292 276
1510.0 248 235 226 213 202 192 183 179 171 156
1550.0 150 153 153 135 128 142 155 149 150 171
1590.0 188 207 225 255 308 361 456 605 841 1211
1630.0 1679 2104 2309 2218 1827 1253 735 433 287 202
1670.0 162 146 124 106 84 71 70 62 53 38
1710.0 28 31 18 11 14 13 16 9 0 2
1750.0 5 4 4 9 16 22 31 48 57 51
1790.0 50 53 55 61 89 125 169 233 326 456
1830.0 598 703 743 711 634 521 387 277 205 151
1870.0 104 83 83 82 74 65 60 58 56 57
1910.0 56 52 53 45 32 40 49 39 31 33
1950.0 45 51 55 67 77 81 82 89 98 96
1990.0 94 91 86 79 69 65 62 66 68 56
2030.0 56 62 63 57 54 60 59 58 58 56
2070.0 57 64 76 78 82 78 68 66 66 70
2110.0 73 77 73 68 70 73 75 80 79 75
2150.0 66 72 86 83 76 71 71 64 66 70
2190.0 80 77 67 78 82 80 79 77 78 74
2230.0 77 76 69 75 85 80 77 74 75 76
2270.0 82 90 85 84 88 83 83 89 91 97
2310.0 93 88 94 95 85 81 91 87 85 92
2350.0 86 91 104 100 92 90 95 96 91 92
2390.0 85 85 89 94 98 93 94 97 91 87
2430.0 89 92 94 80 62 65 76 79 71 65
2470.0 70 72 72 79 90 92 89 85 79 92
2510.0 91 78 78 87 91 90 91 99 105 103
2550.0 106 101 106 107 112 123 120 131 133 113
2590.0 110 117 117 109 104 108 115 108 107 109
2630.0 105 101 108 109 107 114 109 109 114 115
2670.0 121 123 131 140 150 159 157 154 157 169
2710.0 182 182 183 191 204 225 249 273 289 286
2750.0 274 268 263 256 255 269 278 276 283 304
2790.0 325 348 377 397 427 482 549 622 719 845
2830.0 980 1137 1323 1532 1740 1936 2113 2263 2434 2667
2870.0 3018 3534 4057 4418 4537 4463 4341 4367 4674 5223
2910.0 5928 6656 7306 7838 8339 8886 9444 9799 9720 9188
2950.0 8458 8033 8319 9174 9950 10000 9102 7688 6338 5279
2990.0 4423 3660 3032 2637 2519 2515 2485 2349 2092 1783
3030.0 1501 1294 1164 1120 1127 1155 1246 1417 1644 1970
3070.0 2457 3206 4044 4660 4661 3904 2794 1704 978 644
3110.0 489 419 385 348 330 318 312 307 296 285
3150.0 267 254 236 214 197 179 164 160 161 155
3190.0 152 145 131 147 137 124 120 113 106 97
3230.0 109 111 112 102 89 86 105 116 109 107
3270.0 105 100 104 105 108 104 85 99 112 107
3310.0 106 102 102 92 76 74 72 71 88 90
3350.0 89 102 105 97 82 75 82 98 103 90
3390.0 89 92 96 100 91 91 99 88 88 102
3430.0 96 86 91 100 79 74 96 107 86 71
3470.0 87 93 90 93 90 86 78 61 86 94
3510.0 88 109 128 140 108 104 116 114 126 130
3550.0 138 147 146 139 159 208 214 221 296 399
3590.0 525 669 832 973 1059 1078 1042 993 939 891
3630.0 882 869 800 719 607 465 344 261 220 192
3670.0 168 178 182 158 130 122 120 127 119 100
3710.0 103 106 92 89 84 71 76 98 117 103
3750.0 96 109 121 116 102 101 112 113 91 101
3790.0 125 108 83 97 113 106 103 106 106 111
3830.0 122 125 136 131 119
##END=
