##TITLE=trans-2-Methyl-3-octene
##JCAMP-DX=4.24
##DATA TYPE=INFRARED SPECTRUM
##ORIGIN=NIST Mass Spectrometry Data Center
##OWNER=NIST Standard Reference Data Program
Collection (C) 2018 copyright by the U.S. Secretary of Commerce
on behalf of the United States of America. All rights reserved.
##CAS REGISTRY NO=52937-36-7
##MOLFORM=C 9 H 18
##$NIST SOURCE=MSDC-IR
##SPECTROMETER/DATA SYSTEM=HP-GC/MS/IRD
##STATE=gas
##XUNITS=1/CM
##YUNITS=ABSORBANCE
##XFACTOR=1.0
##YFACTOR=0.000003700
##DELTAX=4.0
##FIRSTX=550.0
##LASTX=3846.0
##FIRSTY=0.000063
##MAXX=3846
##MINX=550
##MAXY=0.037
##MINY=0
##NPOINTS=825
##XYDATA=(X++(Y..Y))
550.0 17 5 2 21 13 2 8 18 28 30
590.0 27 33 39 37 33 34 43 41 42 41
630.0 40 61 47 29 36 31 24 20 25 29
670.0 12 13 36 42 39 44 57 62 57 66
710.0 73 84 90 95 105 117 139 152 157 145
750.0 139 134 131 131 112 105 104 91 85 86
790.0 72 70 78 83 83 73 65 63 71 82
830.0 86 84 93 94 90 90 92 90 89 101
870.0 103 104 110 119 129 126 122 128 141 156
910.0 171 189 210 238 262 295 355 435 546 702
950.0 895 1110 1319 1477 1535 1490 1337 1115 880 667
990.0 507 408 345 308 288 289 304 313 324 315
1030.0 290 263 231 201 179 162 157 152 149 147
1070.0 149 150 152 166 182 204 227 237 238 226
1110.0 205 185 161 148 133 124 117 104 102 108
1150.0 119 121 123 139 152 159 159 152 137 120
1190.0 111 103 101 107 105 100 103 109 109 112
1230.0 119 124 147 167 174 173 182 194 200 199
1270.0 199 197 207 231 252 286 316 338 364 377
1310.0 386 402 415 432 454 466 475 476 471 473
1350.0 478 488 512 538 554 580 617 647 656 635
1390.0 575 484 394 332 300 276 259 261 283 325
1430.0 386 469 563 659 765 865 952 1037 1099 1109
1470.0 1054 943 782 611 472 369 288 230 193 165
1510.0 138 119 111 103 89 81 77 71 71 69
1550.0 68 66 60 58 55 52 49 53 53 49
1590.0 53 52 49 52 48 45 45 44 51 56
1630.0 53 52 56 51 49 50 52 57 58 56
1670.0 52 53 56 52 47 49 49 46 46 48
1710.0 50 51 52 51 54 58 59 63 62 59
1750.0 65 69 69 72 73 72 72 73 73 67
1790.0 65 62 53 49 48 44 36 33 30 29
1830.0 31 29 27 22 22 24 21 23 25 20
1870.0 19 20 22 25 23 20 20 15 12 16
1910.0 16 16 14 10 9 11 9 8 7 8
1950.0 13 10 6 7 7 8 12 11 10 9
1990.0 6 8 6 4 5 4 9 9 11 12
2030.0 11 11 14 14 14 15 11 7 10 9
2070.0 5 6 9 12 9 7 9 8 7 4
2110.0 2 2 2 7 10 5 2 1 0 2
2150.0 4 4 5 4 6 10 9 6 13 15
2190.0 8 9 13 15 13 12 14 15 11 6
2230.0 4 9 9 6 5 4 3 9 12 10
2270.0 7 8 12 13 11 6 8 13 11 12
2310.0 13 12 13 16 17 18 18 14 17 14
2350.0 14 15 16 17 17 18 21 21 19 21
2390.0 23 20 19 20 19 20 22 20 20 21
2430.0 21 22 15 14 18 20 21 20 23 24
2470.0 22 24 24 22 24 23 21 22 21 22
2510.0 22 25 28 26 27 32 35 36 35 35
2550.0 37 38 42 48 54 58 56 54 57 54
2590.0 55 63 62 56 57 57 53 55 62 68
2630.0 68 73 78 78 77 81 83 82 81 84
2670.0 86 88 90 85 87 91 89 94 99 101
2710.0 108 113 123 137 146 149 155 161 170 176
2750.0 175 174 174 179 187 186 191 204 210 226
2790.0 246 263 285 309 323 353 398 436 478 545
2830.0 642 768 929 1142 1398 1700 2044 2398 2751 3112
2870.0 3453 3731 3895 3904 3799 3643 3523 3543 3707 3986
2910.0 4375 4856 5404 5996 6554 6984 7208 7197 7008 6814
2950.0 6840 7304 8260 9384 10000 9589 8315 6543 4797 3546
2990.0 2732 2160 1759 1483 1291 1164 1081 1025 982 934
3030.0 867 789 706 625 554 488 427 383 344 313
3070.0 294 281 268 254 242 229 220 213 206 192
3110.0 188 184 170 161 153 150 146 138 139 147
3150.0 148 144 137 128 127 128 124 124 128 126
3190.0 116 108 106 108 95 86 86 80 75 72
3230.0 66 52 39 41 39 34 37 36 37 32
3270.0 29 31 29 27 27 26 30 25 17 23
3310.0 24 20 19 20 16 19 19 19 24 23
3350.0 28 32 33 34 34 32 28 30 33 32
3390.0 34 31 32 31 24 21 24 25 21 19
3430.0 20 20 20 17 17 17 13 13 8 3
3470.0 13 21 22 21 14 5 12 19 12 15
3510.0 18 12 8 11 14 11 9 11 11 15
3550.0 20 14 8 9 13 12 12 18 15 15
3590.0 21 20 18 20 18 12 14 15 19 21
3630.0 13 7 17 17 17 20 22 21 16 20
3670.0 25 21 20 24 23 20 12 17 25 24
3710.0 23 23 21 24 31 34 30 25 32 37
3750.0 36 32 29 31 33 33 34 32 27 32
3790.0 40 35 35 39 36 38 40 31 24 36
3830.0 42 44 46 42 42
##END=
