##TITLE=Flufenamic acid
##JCAMP-DX=4.24
##DATA TYPE=INFRARED SPECTRUM
##ORIGIN=EPA-IR VAPOR PHASE LIBRARY
##OWNER=SRD/NIST
Collection (C) 2018 copyright by the U.S. Secretary of Commerce
on behalf of the United States of America. All rights reserved.
##CAS REGISTRY NO=530-78-9
##MOLFORM=C 14 H 10 F 3 N O 2
##$NIST SOURCE=MSDC-IR
##STATE=gas
##XUNITS=1/CM
##YUNITS=ABSORBANCE
##XFACTOR=1.
##YFACTOR=0.001
##DELTAX=3.85796
##FIRSTX=501.5
##LASTX=4000.7
##FIRSTY=5.997
##MAXX=4000.7
##MINX=501.534
##MAXY=0.124667
##MINY=0
##NPOINTS=908
##XYDATA=(X++(Y..Y))
501.534 5.997 7.327 8.497 9.027 8.667 7.787 7.067 6.927 7.187 7.677
540.114 8.187 8.387 8.517 8.907 9.627 10.947 12.597 13.297 12.337 10.527
578.693 8.827 7.657 6.677 5.677 4.837 4.277 4.057 4.037 4.127 4.297
617.273 4.627 5.297 6.587 8.767 11.697 14.637 16.177 14.937 12.287 11.297
655.852 11.597 10.627 8.377 6.677 5.887 5.477 5.387 5.767 7.027 9.767
694.432 13.627 16.267 15.757 13.177 10.367 8.107 6.597 5.767 5.707 6.397
733.011 8.047 11.387 16.167 20.677 22.547 20.677 16.767 13.357 11.737 10.887
771.591 9.947 9.007 8.197 7.607 7.517 7.917 8.077 7.277 5.737 4.287
810.170 3.467 3.017 2.657 2.377 2.257 2.207 2.187 2.227 2.277 2.327
848.750 2.417 2.547 2.607 2.487 2.387 2.407 2.497 2.667 3.027 3.577
887.330 4.167 4.707 5.067 5.127 5.007 4.897 5.027 5.717 7.527 10.117
925.909 11.577 10.337 7.317 4.807 3.477 2.867 2.617 2.477 2.377 2.317
964.489 2.267 2.337 2.457 2.507 2.507 2.477 2.567 2.807 3.287 3.737
1003.068 3.677 3.257 3.117 3.347 3.717 4.207 4.937 5.907 7.197 8.667
1041.648 10.237 12.557 16.847 25.177 37.027 45.017 42.477 34.247 28.317 24.287
1080.227 19.897 16.737 16.377 18.017 18.457 16.467 14.537 14.267 15.097 16.647
1118.807 19.357 24.207 32.857 47.607 67.867 87.057 97.977 99.317 93.417 86.697
1157.387 85.917 86.157 80.597 75.647 82.247 95.677 95.607 73.947 46.997 29.397
1195.966 20.867 17.297 16.157 16.247 16.787 16.987 16.317 15.077 13.987 13.617
1234.546 14.087 14.907 15.587 16.047 16.707 17.857 19.517 21.527 23.257 24.287
1273.125 24.757 24.847 24.897 25.197 25.707 26.087 26.127 26.157 26.997 29.307
1311.705 33.387 40.447 53.377 75.687 104.807 124.667 116.817 86.637 57.457 40.097
1350.284 30.487 23.937 18.907 15.457 13.577 12.937 13.087 13.267 12.457 10.407
1388.864 8.177 6.817 6.367 6.647 7.697 9.477 11.467 12.837 13.487 14.127
1427.443 15.177 16.307 17.127 18.197 20.807 25.877 32.697 37.707 36.787 30.287
1466.023 23.057 18.667 16.767 16.317 16.827 18.037 19.827 21.657 22.897 23.617
1504.603 24.697 27.097 31.147 36.087 39.067 36.967 30.157 22.297 16.347 12.717
1543.182 10.577 9.357 8.817 9.017 10.167 12.537 16.467 22.627 31.127 41.217
1581.762 49.517 52.837 50.887 46.467 41.787 37.107 32.337 27.647 23.147 18.807
1620.341 14.897 11.837 9.707 8.337 7.397 6.757 6.327 6.027 5.827 5.657
1658.921 5.487 5.377 5.417 5.617 5.967 6.487 7.107 7.947 9.157 10.877
1697.500 13.227 16.777 22.647 32.967 48.727 66.027 74.177 66.507 49.437 33.487
1736.080 22.817 17.117 14.707 14.847 16.187 16.087 13.037 9.037 6.517 5.387
1774.659 4.877 4.627 4.507 4.497 4.377 4.047 3.587 3.167 2.857 2.587
1813.239 2.337 2.127 1.957 1.847 1.747 1.637 1.527 1.4068 1.3222 1.2841
1851.819 1.2703 1.2698 1.2803 1.3164 1.3458 1.3547 1.3339 1.321 1.3271 1.3356
1890.398 1.3895 1.487 1.577 1.597 1.547 1.497 1.517 1.627 1.747 1.847
1928.978 1.877 1.847 1.787 1.717 1.617 1.487 1.3216 1.1597 0.9974 0.8833
1967.557 0.8277 0.78 0.7754 0.7709 0.7262 0.7108 0.7196 0.7205 0.6939 0.6746
2006.137 0.6771 0.685 0.6667 0.6511 0.656 0.6336 0.6092 0.6028 0.589 0.56851
2044.716 0.54191 0.52399 0.52945 0.55316 0.5774 0.6078 0.6476 0.6543 0.677 0.7235
2083.296 0.7399 0.7616 0.7856 0.8022 0.8193 0.8171 0.8467 0.8985 0.9493 1.0041
2121.875 1.0128 0.9818 0.9488 0.9245 0.9153 0.9067 0.8695 0.8162 0.7704 0.7368
2160.455 0.706 0.6743 0.6656 0.6503 0.6521 0.6662 0.6799 0.7086 0.7105 0.7084
2199.035 0.6996 0.6855 0.6586 0.6476 0.6553 0.6527 0.6516 0.6533 0.6364 0.6005
2237.614 0.5793 0.57699 0.5947 0.6096 0.6019 0.6025 0.6214 0.6411 0.6584 0.6816
2276.194 0.7177 0.7469 0.7461 0.7477 0.754 0.7699 0.7879 0.7932 0.7717 0.776
2314.773 0.8323 0.8525 0.8799 0.9156 0.9683 1.0337 1.0801 1.1182 1.0853 1.0316
2353.353 1.0211 1.0084 0.9599 0.9056 0.8735 0.8285 0.7872 0.7661 0.7362 0.6788
2391.932 0.6551 0.6937 0.7308 0.7488 0.7655 0.77 0.7408 0.7103 0.7291 0.7389
2430.512 0.7022 0.6802 0.6699 0.6503 0.629 0.6111 0.6233 0.6365 0.6179 0.6141
2469.092 0.6595 0.6886 0.6891 0.6954 0.6958 0.6865 0.7051 0.7032 0.7154 0.7827
2507.671 0.8005 0.7876 0.7845 0.8185 0.8551 0.8605 0.8395 0.8142 0.7913 0.7709
2546.251 0.7543 0.7295 0.6987 0.6757 0.6576 0.6108 0.57001 0.5982 0.6103 0.6022
2584.830 0.6195 0.6429 0.6655 0.6633 0.662 0.6873 0.6877 0.6712 0.68 0.6918
2623.410 0.6785 0.6521 0.6633 0.6746 0.6713 0.6626 0.6425 0.6372 0.654 0.6505
2661.989 0.6308 0.587 0.51285 0.480731 0.4528 0.4187 0.3869 0.354 0.367 0.3913
2700.569 0.3843 0.376 0.393 0.4089 0.4064 0.4302 0.48732 0.53378 0.54667 0.54231
2739.148 0.589 0.6251 0.6141 0.5956 0.56632 0.5771 0.6126 0.6106 0.5813 0.55805
2777.728 0.56625 0.5498 0.479575 0.4428 0.429 0.4066 0.3969 0.397 0.4085 0.4263
2816.308 0.4626 0.478736 0.481784 0.48982 0.48642 0.4923 0.50531 0.52303 0.53136 0.53962
2854.887 0.54983 0.57032 0.56571 0.54351 0.55644 0.56389 0.5829 0.5934 0.5391 0.51008
2893.467 0.53657 0.51075 0.51785 0.5278 0.4597 0.4278 0.4321 0.4366 0.437 0.479175
2932.046 0.52505 0.53826 0.5554 0.57243 0.538 0.51105 0.55774 0.57366 0.54188 0.54288
2970.626 0.55621 0.52468 0.50987 0.56579 0.5881 0.57114 0.6255 0.6535 0.6731 0.7829
3009.205 0.9448 1.1004 1.262 1.487 1.757 2.047 2.377 2.717 3.067 3.307
3047.785 3.397 3.367 3.327 3.367 3.557 3.907 4.327 4.737 5.037 5.127
3086.364 5.087 4.857 4.437 3.897 3.287 2.757 2.347 1.997 1.727 1.507
3124.944 1.3126 1.1898 1.0879 1.0066 0.9914 0.9859 0.9456 0.9326 0.9004 0.8889
3163.524 0.9115 0.9246 0.928 0.9265 0.9675 0.9688 0.9546 0.9784 0.9554 0.9338
3202.103 0.9736 1.0287 1.0389 1.0656 1.1227 1.1134 1.1137 1.2143 1.2881 1.3438
3240.683 1.3931 1.4014 1.4374 1.4689 1.527 1.647 1.787 1.977 2.177 2.387
3279.262 2.667 3.037 3.497 4.007 4.627 5.187 5.607 6.007 6.417 6.957
3317.842 7.657 8.507 9.527 10.607 11.607 12.327 12.567 12.337 11.697 10.757
3356.421 9.607 8.437 7.307 6.237 5.307 4.437 3.737 3.167 2.697 2.347
3395.001 1.997 1.707 1.497 1.4331 1.3915 1.3503 1.4279 1.537 1.667 1.907
3433.580 2.217 2.447 2.547 2.347 1.837 1.2995 0.923 0.6946 0.53064 0.4438
3472.160 0.4312 0.4041 0.394 0.369 0.322 0.3 0.276 0.282 0.318 0.346
3510.740 0.349 0.291 0.271 0.314 0.332 0.3776 0.4425 0.50697 0.5919 0.7145
3549.319 0.9518 1.3713 2.087 3.377 5.417 8.577 13.807 21.767 29.167 29.077
3587.899 20.457 10.617 4.907 2.567 1.707 1.2321 0.8629 0.6265 0.47322 0.4285
3626.478 0.371 0.345 0.335 0.312 0.276 0.219 0.158 0.146 0.17 0.173
3665.058 0.179 0.146 0.146 0.149 0.131 0.097 0.127 0.19 0.157 0.139
3703.637 0.17 0.16 0.158 0.187 0.199 0.164 0.165 0.184 0.16 0.129
3742.217 0.108 0.137 0.105 0.047 0.08 0.133 0.148 0.131 0.053 0.004
3780.797 0.058 0.066 0.047 0.062 0.073 0.126 0.094 0.024 0.026 0.019
3819.376 0.024 0.04 0.073 0.088 0.123 0.173 0.157 0.103 0.066 0.091
3857.956 0.08 0.057 0.099 0.1 0.066 0.032 0 0.025 0.052 0.072
3896.535 0.106 0.117 0.129 0.135 0.083 0.066 0.055 0.032 0.077 0.081
3935.115 0.072 0.051 0.018 0.028 0.076 0.056 0.032 0.072 0.039 0.043
3973.694 0.093 0.123 0.152 0.148 0.131 0.116 0.105 0.08
##END=
