##TITLE=3,5-Dimethoxy-4-hydroxycinnamic acid
##JCAMP-DX=4.24
##DATA TYPE=INFRARED SPECTRUM
##ORIGIN=EPA-IR VAPOR PHASE LIBRARY
##OWNER=SRD/NIST
Collection (C) 2018 copyright by the U.S. Secretary of Commerce
on behalf of the United States of America. All rights reserved.
##CAS REGISTRY NO=530-59-6
##MOLFORM=C 11 H 12 O 5
##$NIST SOURCE=MSDC-IR
##STATE=gas
##XUNITS=1/CM
##YUNITS=ABSORBANCE
##XFACTOR=1.
##YFACTOR=0.001
##DELTAX=1.92898
##FIRSTX=549.8
##LASTX=4000.7
##FIRSTY=5.269
##MAXX=4000.7
##MINX=549.759
##MAXY=0.134519
##MINY=0
##NPOINTS=1790
##XYDATA=(X++(Y..Y))
549.759 5.269 5.139 5.069 4.799 5.199 5.739 6.139 6.759 6.379 5.859
569.049 6.179 6.079 5.569 5.499 5.709 5.989 6.089 6.399 6.469 6.099
588.339 5.769 5.449 5.269 4.929 4.329 3.789 3.569 3.329 2.909 2.929
607.628 3.149 3.189 3.369 3.319 3.339 3.639 3.179 2.779 2.669 2.979
626.918 3.069 2.949 3.109 3.159 3.119 2.789 2.889 2.989 2.939 3.239
646.208 3.559 3.319 2.929 2.819 3.159 3.409 3.329 3.509 3.129 2.949
665.498 3.449 3.359 3.009 3.039 2.939 2.959 3.349 3.449 3.429 3.199
684.787 2.669 2.319 2.459 2.619 2.759 2.599 2.089 2.089 2.159 1.919
704.077 1.849 1.709 1.779 2.019 1.849 1.929 2.089 2.009 1.979 1.839
723.367 2.009 2.009 2.079 2.739 3.159 3.349 3.519 3.769 4.209 4.579
742.657 4.529 4.549 4.719 4.199 4.019 4.269 4.299 4.229 3.869 3.589
761.947 3.699 4.079 4.219 4.709 5.729 6.269 6.809 7.949 9.249 10.439
781.236 11.419 12.649 13.899 14.559 14.469 13.949 13.079 12.229 10.869 8.959
800.526 7.949 6.929 5.829 5.049 4.449 4.149 4.269 4.399 4.229 4.289
819.816 4.829 5.299 5.719 6.709 7.819 8.789 10.079 11.609 12.689 13.529
839.106 13.939 14.059 14.319 14.249 13.689 13.149 12.889 12.849 12.209 11.519
858.395 11.299 11.069 11.099 11.059 10.509 9.739 9.419 8.929 8.729 8.389
877.685 8.199 8.229 8.259 9.089 10.149 11.089 12.459 14.479 16.449 18.189
896.975 20.279 23.019 24.939 25.499 25.559 25.339 24.589 23.669 22.479 21.079
916.265 19.869 18.359 17.269 16.069 14.419 13.039 11.909 10.919 10.079 9.149
935.555 8.609 8.419 8.279 7.969 7.579 7.649 7.439 7.339 7.279 7.229
954.844 7.439 7.329 6.869 6.769 7.479 8.019 8.249 8.639 9.359 10.359
974.134 11.059 11.719 12.509 13.239 13.759 13.659 13.269 12.429 11.419 10.669
993.424 10.089 9.549 8.909 8.599 8.309 7.919 8.109 8.509 8.699 9.219
1012.714 9.829 10.469 11.499 12.089 12.759 13.759 14.349 14.669 15.109 15.409
1032.003 15.579 16.039 15.539 14.709 14.299 14.149 14.689 15.039 15.169 15.959
1051.293 16.179 15.949 16.429 17.609 18.899 18.959 18.999 20.239 21.509 23.209
1070.583 25.939 27.509 29.439 33.029 36.329 39.619 43.969 48.349 52.639 58.029
1089.873 62.539 66.879 72.229 77.349 81.079 85.059 89.169 91.019 91.959 92.259
1109.163 90.669 88.229 85.459 81.799 77.439 73.409 69.469 64.759 59.619 54.799
1128.452 49.749 45.349 42.739 40.349 37.469 34.119 31.359 29.209 27.729 27.059
1147.742 26.169 24.709 22.459 21.369 20.469 18.499 16.869 16.079 15.999 15.869
1167.032 15.869 15.949 16.149 16.269 17.459 19.269 20.069 20.799 22.619 24.749
1186.322 26.209 28.869 31.609 33.149 35.409 39.249 45.209 52.389 60.179 69.799
1205.611 80.809 93.459 107.899 120.299 127.799 132.929 134.519 130.149 123.019 112.499
1224.901 98.549 84.929 73.509 64.789 58.009 54.489 52.159 49.529 49.019 48.429
1244.191 46.669 44.839 42.889 40.219 36.919 34.199 31.799 29.449 27.529 25.239
1263.481 23.099 21.939 20.409 18.669 17.599 16.789 16.569 16.549 16.439 16.939
1282.771 17.939 19.089 20.869 23.589 27.099 31.269 36.919 44.179 52.799 63.109
1302.060 74.499 86.439 98.179 108.589 116.459 120.399 120.359 116.959 110.209 100.259
1321.350 88.059 75.059 62.679 51.829 42.779 35.699 30.289 26.209 23.379 21.669
1340.640 20.939 21.049 21.779 22.949 24.529 26.249 27.799 29.279 30.389 30.779
1359.930 30.629 30.029 28.669 26.549 24.299 21.879 19.329 17.039 15.249 13.919
1379.219 12.799 12.159 12.049 12.159 12.439 13.349 14.699 16.499 19.059 22.449
1398.509 26.719 31.309 35.779 39.979 43.569 45.909 46.839 46.779 45.719 43.659
1417.799 40.759 37.449 34.359 31.829 29.799 28.119 26.699 25.249 23.899 22.499
1437.089 21.129 20.239 19.739 19.819 20.589 21.949 23.859 26.069 28.389 30.709
1456.378 32.799 34.599 35.789 36.389 36.579 36.289 35.809 35.289 34.599 33.939
1475.668 33.369 32.859 32.759 33.349 34.899 37.639 41.839 47.309 54.129 62.189
1494.958 70.729 79.409 87.219 93.049 96.399 97.109 95.039 90.019 82.629 73.549
1514.248 63.469 53.479 44.579 37.079 30.809 25.849 22.149 19.399 17.109 15.269
1533.538 13.979 12.929 11.889 11.149 10.699 10.299 10.129 10.179 10.059 10.099
1552.827 10.329 10.469 10.739 10.919 11.449 12.219 12.739 13.499 14.469 15.679
1572.117 17.099 18.489 20.219 22.519 25.069 27.799 30.999 34.479 38.129 41.839
1591.407 45.579 48.979 51.649 53.689 54.679 54.549 53.479 51.289 48.109 44.309
1610.697 40.289 36.239 32.329 28.819 25.819 23.359 21.609 20.319 19.259 18.279
1629.986 17.319 16.389 15.209 14.219 13.159 11.799 10.389 9.019 7.619 6.619
1649.276 6.059 5.709 5.409 5.009 4.939 4.979 4.719 4.469 4.319 4.199
1668.566 4.039 3.989 4.049 3.869 3.729 3.759 3.699 3.489 3.449 3.469
1687.856 3.339 3.299 3.229 3.099 2.999 2.939 2.879 2.759 2.669 2.689
1707.146 2.829 2.799 2.699 2.719 2.569 2.359 2.349 2.369 2.309 2.449
1726.435 2.589 2.559 2.589 2.399 2.119 2.089 2.139 2.129 2.029 1.979
1745.725 1.939 1.819 1.679 1.569 1.589 1.639 1.609 1.479 1.419 1.3066
1765.015 1.3267 1.439 1.409 1.569 1.609 1.529 1.549 1.599 1.749 1.759
1784.305 1.689 1.809 2.009 2.089 2.269 2.529 2.739 2.969 3.179 3.389
1803.594 3.659 3.829 3.899 3.859 3.789 3.759 3.619 3.609 3.529 3.149
1822.884 2.789 2.529 2.349 2.169 1.949 1.899 1.889 1.699 1.569 1.579
1842.174 1.519 1.459 1.409 1.399 1.394 1.2891 1.2985 1.2824 1.3119 1.316
1861.464 1.2014 1.1922 1.2373 1.2224 1.2215 1.3547 1.3442 1.1963 1.1795 1.2209
1880.754 1.3628 1.3479 1.2563 1.2911 1.2747 1.1997 1.1326 1.0645 1.0082 1.1987
1900.043 1.2813 1.2581 1.2824 1.2619 1.1812 1.189 1.2026 1.1964 1.2848 1.1868
1919.333 1.1804 1.3872 1.519 1.499 1.559 1.669 1.649 1.749 1.879 1.849
1938.623 1.849 2.009 2.189 2.139 2.209 2.339 2.269 2.199 2.069 2.139
1957.913 2.189 2.129 2.029 1.939 1.969 1.929 1.839 1.779 1.719 1.649
1977.202 1.659 1.579 1.579 1.619 1.609 1.539 1.499 1.519 1.579 1.699
1996.492 1.759 1.779 1.699 1.749 1.799 1.899 2.019 1.869 1.839 1.979
2015.782 2.059 2.009 1.969 1.949 1.959 1.969 2.009 2.119 2.109 2.069
2035.072 2.019 2.029 2.069 1.969 2.009 1.999 1.909 1.959 2.049 2.189
2054.362 2.169 2.059 2.019 2.009 2.019 1.939 1.919 1.939 1.819 1.839
2073.651 1.849 1.669 1.709 1.689 1.509 1.539 1.569 1.489 1.449 1.439
2092.941 1.3419 1.3591 1.599 1.679 1.599 1.559 1.479 1.609 1.549 1.439
2112.231 1.629 1.729 1.699 1.759 1.819 1.849 1.879 1.889 1.909 1.919
2131.521 1.879 1.899 1.909 1.879 1.939 1.939 1.939 1.899 1.839 1.869
2150.810 1.969 1.989 1.969 2.019 1.959 1.829 1.779 1.729 1.759 1.839
2170.100 1.559 1.304 1.3167 1.3645 1.419 1.449 1.479 1.39 1.399 1.3081
2189.390 1.081 1.0284 1.0229 1.058 1.1623 1.2727 1.3055 1.3139 1.2583 1.1422
2208.680 1.1213 1.1898 1.2791 1.3646 1.3581 1.459 1.619 1.569 1.539 1.499
2227.970 1.479 1.509 1.529 1.439 1.3303 1.35 1.419 1.3285 1.1249 1.1463
2247.259 1.1154 1.0172 0.9567 0.9129 0.9283 0.8842 0.9768 1.1065 0.9865 1.0051
2266.549 1.0241 0.9765 1.1306 1.1668 1.1763 1.2393 1.1934 1.1975 1.3251 1.307
2285.839 1.2013 1.2944 1.3431 1.2701 1.2895 1.3466 1.2312 1.0951 1.1336 1.2089
2305.129 1.1754 1.0935 1.0392 1.0641 1.0608 0.933 0.9702 1.0012 0.9264 0.9277
2324.418 1.1084 1.2428 1.107 0.9634 1.0232 0.9982 0.8729 0.9307 1.0743 1.151
2343.708 1.1022 1.1225 1.1258 1.1199 1.1304 1.2487 1.3443 1.2167 1.2795 1.2166
2362.998 1.169 1.0887 1.0678 1.1431 1.0966 1.1665 1.1567 1.1639 1.2162 1.1765
2382.288 1.1556 1.2724 1.2936 1.1778 1.1176 1.1903 1.0597 1.0365 1.1955 1.1548
2401.578 1.1586 1.1793 1.1423 1.0431 1.1005 1.3031 1.3457 1.3629 1.3683 1.2863
2420.867 1.3088 1.509 1.332 1.2193 1.429 1.499 1.429 1.3075 1.2618 1.297
2440.157 1.3809 1.3769 1.3658 1.3681 1.3257 1.2507 1.2367 1.2974 1.479 1.549
2459.447 1.429 1.519 1.609 1.619 1.619 1.649 1.829 1.829 1.709 1.749
2478.737 1.819 1.839 1.839 1.749 1.759 1.809 1.719 1.779 1.849 1.669
2498.026 1.449 1.599 1.689 1.699 1.829 1.799 1.699 1.729 1.779 1.749
2517.316 1.769 1.809 1.759 1.509 1.469 1.629 1.769 1.799 1.719 1.819
2536.606 1.789 1.649 1.629 1.609 1.609 1.659 1.619 1.509 1.419 1.469
2555.896 1.459 1.3163 1.3126 1.1636 1.1551 1.3271 1.2528 1.1212 0.9691 0.9984
2575.186 1.0216 1.0069 1.1125 1.0034 1.0101 1.1424 1.2001 1.2138 1.1885 1.3298
2594.475 1.3206 1.1445 1.1162 1.2123 1.2237 1.2301 1.2299 1.3851 1.639 1.549
2613.765 1.629 1.789 1.629 1.519 1.579 1.629 1.539 1.409 1.449 1.409
2633.055 1.3691 1.429 1.449 1.519 1.569 1.559 1.599 1.549 1.479 1.679
2652.345 1.679 1.599 1.579 1.499 1.539 1.609 1.609 1.519 1.599 1.729
2671.634 1.809 1.719 1.469 1.2655 1.257 1.3657 1.3821 1.3948 1.3398 1.2992
2690.924 1.2473 1.3366 1.3479 1.399 1.459 1.355 1.439 1.629 1.619 1.509
2710.214 1.689 1.829 1.819 1.699 1.609 1.469 1.499 1.719 1.749 1.649
2729.504 1.619 1.739 1.779 1.829 1.969 1.979 1.819 1.659 1.529 1.419
2748.794 1.489 1.619 1.629 1.619 1.719 1.489 1.2575 1.409 1.509 1.439
2768.083 1.549 1.639 1.569 1.459 1.409 1.589 1.649 1.789 1.939 1.989
2787.373 2.149 2.229 2.309 2.459 2.559 2.639 2.669 2.919 3.149 3.369
2806.663 3.479 3.639 3.969 4.249 4.809 5.129 5.439 5.919 6.249 6.789
2825.953 7.449 8.019 8.849 10.059 11.619 13.179 14.509 15.879 17.259 18.379
2845.242 18.909 19.009 18.849 18.189 17.149 15.889 14.889 13.899 13.099 12.739
2864.532 12.089 11.589 11.499 11.239 11.109 11.089 11.019 10.899 10.749 10.809
2883.822 10.849 10.649 10.219 10.199 10.559 10.549 10.339 10.289 10.349 10.739
2903.112 11.369 11.699 11.919 12.369 13.099 13.749 14.149 14.869 15.729 16.269
2922.401 16.689 17.279 17.809 18.449 19.389 20.809 22.799 24.929 27.259 29.719
2941.691 31.959 34.039 35.309 35.959 36.099 35.569 34.339 32.669 30.989 29.119
2960.981 27.579 26.349 25.329 24.319 23.289 22.529 21.719 20.939 20.479 20.179
2980.271 19.879 19.449 19.349 19.479 19.739 20.209 20.829 21.659 22.809 24.479
2999.561 26.169 27.889 29.669 31.119 31.989 31.859 30.879 29.139 26.869 24.099
3018.850 20.889 17.809 15.009 12.579 10.919 9.839 8.859 8.119 7.709 7.529
3038.140 7.409 7.339 7.379 7.379 7.549 7.529 7.379 7.639 7.999 8.189
3057.430 8.259 8.449 8.639 8.609 8.759 8.949 9.019 9.239 9.159 9.169
3076.720 9.269 9.419 9.669 10.119 10.899 11.899 13.159 14.229 14.689 14.349
3096.009 13.779 13.279 12.049 10.119 8.259 6.559 4.979 4.099 3.729 3.139
3115.299 2.879 2.929 2.739 2.449 2.279 2.439 2.359 2.179 2.269 2.179
3134.589 1.949 2.039 2.179 2.089 1.919 1.819 1.969 2.049 1.729 1.599
3153.879 1.679 1.499 1.459 1.469 1.429 1.297 1.1697 1.3759 1.375 1.1404
3173.169 1.2258 1.3288 1.409 1.1849 0.9265 1.102 1.2937 1.409 1.2703 1.1143
3192.458 1.2785 1.2998 1.2913 1.3721 1.186 1.1935 1.3468 1.1964 0.931 1.0697
3211.748 1.255 1.1474 1.1138 1.1753 0.9016 0.7548 0.8941 1.0089 1.0906 1.0472
3231.038 1.0984 1.019 1.002 0.9148 0.9423 1.0798 1.0546 1.0454 0.9702 0.8719
3250.328 0.8782 0.9736 1.184 1.2757 1.1338 1.0309 0.9268 1.1272 1.3655 1.1888
3269.617 1.2411 1.1922 0.8471 0.8826 0.6762 0.5722 0.8308 0.8064 0.9276 0.885
3288.907 0.7707 0.9957 0.9954 0.7118 0.7058 0.6576 0.5451 0.6732 0.7504 0.761
3308.197 0.7661 0.8423 0.8506 0.7489 0.6323 0.6741 0.8625 0.9923 0.6449 0.46949
3327.487 0.7405 0.6493 0.5635 0.4998 0.5343 0.6087 0.3348 0.5157 0.5389 0.5043
3346.777 0.5576 0.48561 0.6206 0.48399 0.39333 0.296 0.401317 0.5001 0.5402 0.5636
3366.066 0.5089 0.5808 0.5194 0.658 0.7844 0.8519 0.7489 0.48187 0.3821 0.3683
3385.356 0.45324 0.537 0.297 0.212 0.541 0.548 0.5543 0.6414 0.6324 0.7012
3404.646 0.7768 0.4535 0.191 0.46658 0.7447 0.8455 0.7228 0.5068 0.5767 0.6547
3423.936 0.6402 0.6938 0.5182 0.5055 0.8754 0.7847 0.5179 0.5843 0.5151 0.5525
3443.225 0.6521 0.6173 0.402927 0.3293 0.44791 0.635 0.7959 0.5861 0.43712 0.47473
3462.515 0.6697 0.5768 0.373 0.5036 0.48354 0.6745 0.7308 0.5661 0.5587 0.6917
3481.805 0.8907 0.7711 0.7023 0.6919 0.6539 0.5759 0.7882 0.8936 0.6112 0.6598
3501.095 0.7135 0.8977 0.8906 0.6325 0.598 0.7697 1.0719 1.2385 1.272 1.2483
3520.385 1.3688 1.409 1.3221 1.3173 1.3968 1.759 2.009 2.179 2.449 2.599
3539.674 2.699 2.899 3.329 3.799 4.299 5.109 5.979 7.279 9.529 12.019
3558.964 14.759 18.499 23.139 28.389 33.759 39.079 44.359 48.819 52.229 54.459
3578.254 55.189 54.199 51.509 47.539 42.859 37.429 31.729 26.479 21.639 17.399
3597.544 13.849 11.069 8.819 6.929 5.649 4.529 3.929 3.649 3.039 2.829
3616.833 2.549 2.119 1.959 1.709 1.559 1.479 1.213 1.2304 1.0991 0.974
3636.123 1.0759 1.1222 1.2432 1.2365 1.1125 1.0221 1.0104 0.7854 0.6485 0.661
3655.413 0.743 0.8129 0.8142 0.9362 0.7607 0.6338 0.877 0.8165 0.7002 0.6478
3674.703 0.3185 0.268 0.5021 0.366 0.274 0.381 0.401315 0.39292 0.46803 0.5541
3693.993 0.8666 0.9631 0.7233 0.6768 0.5348 0.5733 0.5519 0.49375 0.6767 0.6722
3713.282 0.297 0.343 0.5639 0.5631 0.48599 0.45456 0.49126 0.275 0.3734 0.647
3732.572 0.44999 0.213 0.45985 0.6875 0.5661 0.232 0.297 0.757 0.5414 0.166
3751.862 0.45831 0.584 0.689 0.7162 0.408184 0.3517 0.49485 0.5874 0.547 0.279
3771.152 0.108 0.226 0.7043 0.9966 0.8312 0.717 0.6315 0.289 0.191 0.648
3790.441 0.7365 0.5704 0.5047 0.527 0.7051 0.7778 0.3556 0 0.384 0.7765
3809.731 0.6399 0.5424 0.41778 0.3755 0.3731 0.171 0.3343 0.5906 0.47239 0.212
3829.021 0.024 0.272 0.4992 0.5335 0.6446 0.5995 0.7645 0.8505 0.9136 0.921
3848.311 0.7554 0.8302 0.8564 0.6758 0.8117 1.2326 1.0135 0.5096 0.5966 0.8171
3867.601 0.8166 0.9223 1.0138 0.94 0.927 0.8041 0.7411 0.6262 0.7271 0.9542
3886.890 0.9187 0.9487 0.8429 0.6471 0.6133 0.6624 0.6336 0.885 1.0457 0.805
3906.180 0.7662 0.6702 0.7104 0.6875 0.7066 0.8786 0.5893 0.5915 0.712 0.7535
3925.470 1.0327 0.8453 0.46165 0.6297 0.5242 0.159 0.3672 0.5007 0.5085 0.6577
3944.760 0.9011 1.062 1.0472 1.1574 0.9994 0.9995 1.1935 1.1877 1.331 1.1746
3964.049 1.038 1.0812 0.8354 0.7665 0.7693 0.8533 1.019 1.0515 0.9158 0.8895
3983.339 1.2462 1.1643 0.8656 0.9122 0.7928 0.8913 0.9198 0.8713 1.0697 1.1437
##END=
