##TITLE=2,6-Dimethoxy-P-benzoquinone
##JCAMP-DX=4.24
##DATA TYPE=INFRARED SPECTRUM
##ORIGIN=EPA-IR VAPOR PHASE LIBRARY
##OWNER=SRD/NIST
Collection (C) 2018 copyright by the U.S. Secretary of Commerce
on behalf of the United States of America. All rights reserved.
##CAS REGISTRY NO=530-55-2
##MOLFORM=C 8 H 8 O 4
##$NIST SOURCE=MSDC-IR
##STATE=gas
##XUNITS=1/CM
##YUNITS=ABSORBANCE
##XFACTOR=1.
##YFACTOR=0.001
##DELTAX=1.92898
##FIRSTX=549.8
##LASTX=4000.7
##FIRSTY=1.03178
##MAXX=4000.7
##MINX=549.759
##MAXY=0.07757
##MINY=0
##NPOINTS=1790
##XYDATA=(X++(Y..Y))
549.759 1.03178 0.937 0.505 0.568 0.651 0.399 0.186 0.213 0 0.205
569.049 0.272 0 0.301 0.911 0.475 0.733 1.2044 1.4197 1.5677 1.1663
588.339 1.5167 2.25 2.43 2.35 2.84 3.41 3.15 3.04 3.16 2.63
607.628 1.9792 1.8613 1.8292 1.2955 1.3165 0.9661 0.686 1.3172 1.7625 1.2249
626.918 0.84 1.1688 1.6496 1.5978 1.1437 1.3158 1.149 0.652 0.559 0.909
646.208 1.2356 0.823 0.589 0.457 0.207 0.658 0.789 0.88 1.0043 0.895
665.498 0.843 0.746 1.07057 0.882 0.581 0.369 0.336 0.876 1.4633 1.4763
684.787 1.2566 1.4358 1.6121 1.9581 1.8201 1.5754 1.718 1.9412 1.5981 1.1646
704.077 1.10746 1.1871 1.3017 1.3554 1.1471 0.872 1.1849 1.08788 0.647 0.429
723.367 0.476 0.748 1.0022 1.07183 0.895 0.823 0.845 0.644 0.726 1.12189
742.657 1.3815 0.9953 0.533 0.533 0.886 1.08053 1.1708 1.3243 0.9504 1.03022
761.947 1.05119 1.1755 1.499 1.429 1.2086 1.10753 1.2162 1.3843 1.5725 1.4253
781.236 1.7369 1.8764 1.566 1.6505 1.8668 1.8379 1.9388 2.27 2.45 2.53
800.526 2.63 3.06 3.19 2.63 2.47 2.45 2.24 2.12 1.788 1.9058
819.816 2.18 2.08 2.36 2.87 2.23 2.19 2.73 2.86 3.18 3.14
839.106 2.73 2.41 2.77 3.28 3.79 4.19 4.5 5.12 6.14 7.33
858.395 8.52 10.28 12.13 13.82 14.92 13.83 12.34 11.52 10.85 10.57
877.685 9.91 8.98 8.39 8.14 8.2 8.17 7.65 7.08 6.63 6.67
896.975 6.58 6.04 5.54 5 4.54 4.64 4.57 4.05 3.87 3.62
916.265 3.47 3.38 3.51 3.42 2.86 2.65 2.68 2.66 2.33 1.9764
935.555 2.1 2.28 2.32 2.18 1.8538 2.0146 2.36 2.51 2.36 1.8837
954.844 1.8083 1.9883 2.11 2.27 2.29 2.36 2.43 2.42 2.43 2.28
974.134 2.3 2.64 2.45 2.4 3.21 3.13 2.64 2.54 2.95 3.19
993.424 2.93 3.03 2.99 3.16 3.47 3.53 3.62 3.71 3.96 4.63
1012.714 4.94 5.17 5.19 5.16 5.61 6.07 5.98 5.57 5.83 6.22
1032.003 5.72 4.74 5.27 5.73 5.26 5.01 5.29 5.79 5.83 5.94
1051.293 6.4 7.15 7 7.57 9.05 10.03 10.92 11.85 15.02 18.35
1070.583 20.53 23.29 25.14 28.75 32.19 32.9 34.11 35.99 37.18 39.17
1089.873 40.84 41.92 45.47 49.36 53.04 58.07 63.88 68.57 71.64 72.38
1109.163 71.3 68.08 61.8 53.18 44.18 34.68 25.41 18.71 14.18 11.49
1128.452 9.84 8.4 7.69 6.87 5.66 5.21 4.94 4.38 4.04 4.67
1147.742 5.42 4.53 3.87 4.07 3.84 4.24 4.61 4.3 4.45 4.69
1167.032 5.07 5.45 5.35 5.82 6.31 6.26 6.89 7.94 8.85 8.44
1186.322 9.34 11.12 12.76 15.77 18.29 20.24 22.95 27.62 34.28 40.72
1205.611 46.79 52.68 55.9 56.73 58.07 56.69 50.76 44.87 38.57 31.58
1224.901 25.17 20.52 17.43 15.47 14.92 15.95 17.62 19.2 21.01 23.06
1244.191 25.09 26.75 27.32 26.78 25.86 24.16 21.7 19.31 16.64 13.95
1263.481 11.68 9.49 7.71 6.76 6.01 5.66 5.55 5.38 5.63 5.86
1282.771 6.04 6.79 8.2 9.43 10.88 12.91 14.99 17.55 20.41 23.01
1302.060 25.78 28.31 30.18 31.7 32.32 32.03 31.05 29.23 26.92 24.42
1321.350 21.53 18.28 15.09 12.38 10.4 9.11 8.32 7.63 7.31 7.48
1340.640 7.82 8.32 8.92 9.66 10.75 11.81 12.53 13.32 14.15 14.9
1359.930 15.4 15.67 15.7 15.33 14.52 13.42 12.22 10.88 9.38 7.93
1379.219 6.35 5.01 4.2 3.41 2.83 2.59 2.53 2.37 2.23 2.25
1398.509 2.22 2.21 2.16 2.16 1.9904 1.7963 1.8854 2.018 2.04 2.0092
1417.799 1.8976 1.8584 2.09 2.29 2.36 2.43 2.52 2.78 3.06 3.41
1437.089 3.91 4.26 4.47 4.85 5.1 5.5 6.19 6.58 6.95 7.46
1456.378 7.92 8.46 9.25 9.62 9.22 8.76 8.41 8.16 7.83 7.3
1475.668 6.57 5.75 5.2 4.65 4.28 4.02 3.74 3.51 3.36 3.16
1494.958 2.94 2.81 2.75 2.89 2.81 2.77 2.77 2.63 2.53 2.52
1514.248 2.53 2.51 2.66 2.72 2.75 2.8 2.6 2.63 2.76 2.6
1533.538 2.69 2.84 2.7 2.62 2.6 2.69 2.94 3 2.91 2.78
1552.827 2.96 3.25 3.35 3.49 3.79 4.22 4.61 5.29 6.18 7.1
1572.117 8.34 9.48 10.85 13.27 16.45 20.51 25.96 33.21 42.57 53.01
1591.407 62.86 70.78 75.82 77.57 76.06 72.05 66.01 57.82 47.02 34.85
1610.697 24.83 18.3 14.76 13.33 13.13 13.7 14.7 16.25 18.3 20.59
1629.986 23.29 26.11 28.83 31.9 35.3 39.18 43.47 47.48 51.54 56.09
1649.276 60.53 64.27 67 68.38 68.39 66.64 63.46 59.16 53.57 47.03
1668.566 39.94 33.31 27.75 23.2 19.54 16.97 15.52 14.94 15.2 15.73
1687.856 16.87 18.75 20.75 23 25.2 27.27 29.41 31.88 34.37 36.43
1707.146 37.67 37.89 37.04 35.25 33.07 31.04 28.53 25.3 21.14 16.65
1726.435 12.76 9.74 7.61 6.23 4.95 4.15 3.77 3.56 3.45 3.13
1745.725 3.02 3.02 2.86 2.85 2.97 2.9 2.81 2.87 2.88 2.82
1765.015 2.73 2.66 2.78 2.71 2.56 2.43 2.27 2.18 2.21 2.34
1784.305 2.2 1.9996 1.8847 1.8348 1.9202 1.9948 2.05 1.9372 1.9563 2.0215
1803.594 1.9174 1.9067 1.8299 1.92 2.07 1.9281 1.8832 1.7494 1.5998 1.6742
1822.884 1.6587 1.5494 1.5813 1.5023 1.311 1.2779 1.2817 1.2881 1.1766 1.13341
1842.174 1.2084 1.3121 1.3589 1.3288 1.3256 1.221 1.1503 1.2122 1.3028 1.2604
1861.464 1.2288 1.2638 1.2784 1.3055 1.3076 1.4016 1.3293 1.2917 1.3134 1.2288
1880.754 1.4127 1.5085 1.4069 1.4849 1.495 1.4349 1.506 1.4456 1.3952 1.3616
1900.043 1.298 1.3735 1.5135 1.672 1.6893 1.5741 1.6364 1.77 1.7478 1.682
1919.333 1.5929 1.5787 1.6778 1.6211 1.6015 1.6346 1.5947 1.5157 1.4952 1.5047
1938.623 1.5175 1.4552 1.3885 1.4657 1.4182 1.4296 1.4687 1.3973 1.293 1.3299
1957.913 1.4731 1.356 1.04314 1.06639 1.3529 1.3893 1.3437 1.4194 1.223 1.11544
1977.202 1.225 1.10181 1.04854 1.04519 1.2723 1.3675 1.2423 1.3153 1.318 1.3228
1996.492 1.1956 1.0689 1.10884 1.1686 1.2363 1.2947 1.2686 1.1475 1.10334 1.3016
2015.782 1.2613 1.04577 1.06447 1.11649 1.1654 1.1613 1.2495 1.2943 1.2104 1.2309
2035.072 1.2135 1.1845 1.1971 1.1947 1.3359 1.3615 1.272 1.2497 1.1644 1.2925
2054.362 1.3596 1.1828 1.279 1.3807 1.372 1.3874 1.3687 1.5447 1.5869 1.435
2073.651 1.4609 1.4605 1.3902 1.2761 1.262 1.343 1.3422 1.3212 1.437 1.3857
2092.941 1.4159 1.5474 1.4527 1.5578 1.6208 1.6228 1.7705 1.8875 1.7731 1.6695
2112.231 1.7754 1.8593 1.8423 1.7538 1.7696 1.89 2.0261 1.9837 1.8515 1.8145
2131.521 1.8501 1.8797 1.9062 1.8253 1.6689 1.6702 1.7193 1.8114 1.5948 1.4378
2150.810 1.6394 1.7884 1.703 1.5699 1.7354 1.8494 1.8232 1.9725 1.9474 1.6809
2170.100 1.6648 1.6147 1.6011 1.7657 1.6282 1.533 1.7002 1.8296 1.7884 1.5536
2189.390 1.438 1.6477 1.8497 1.8431 1.7036 1.6948 1.7576 1.8372 1.8236 1.7732
2208.680 1.6634 1.5298 1.5609 1.6395 1.6483 1.6169 1.6471 1.6013 1.5493 1.5338
2227.970 1.6403 1.6861 1.514 1.4542 1.5366 1.709 1.6546 1.4922 1.5454 1.5722
2247.259 1.6197 1.5322 1.4629 1.3175 1.213 1.4333 1.5 1.2319 1.2448 1.5394
2266.549 1.5833 1.4675 1.3222 1.2649 1.2884 1.1959 1.1445 1.2298 1.1518 1.03647
2285.839 1.2584 1.514 1.471 1.4179 1.4535 1.3258 1.372 1.5468 1.3913 1.3512
2305.129 1.2447 1.08701 1.1607 1.2601 1.3045 1.2054 1.13944 1.312 1.4351 1.371
2324.418 1.3882 1.3399 1.2769 1.415 1.4063 1.3128 1.5208 1.5581 1.3744 1.3925
2343.708 1.3687 1.3964 1.4997 1.4759 1.4272 1.3542 1.3449 1.4692 1.5317 1.5766
2362.998 1.5781 1.3672 1.3574 1.3528 1.2596 1.1699 1.04351 1.13069 1.2429 1.3371
2382.288 1.5238 1.5038 1.3204 1.271 1.4623 1.4717 1.1993 1.2213 1.3675 1.2633
2401.578 1.1958 1.2482 1.1788 1.12775 1.4133 1.5227 1.4025 1.4983 1.5244 1.4866
2420.867 1.3376 1.3127 1.4314 1.499 1.5076 1.4918 1.5305 1.4651 1.4241 1.4675
2440.157 1.5123 1.7124 1.7074 1.5228 1.4345 1.3501 1.4067 1.5368 1.5455 1.5317
2459.447 1.7084 1.7963 1.5816 1.4222 1.444 1.4379 1.3932 1.4447 1.4528 1.2855
2478.737 1.10834 1.2276 1.529 1.6534 1.6343 1.5505 1.5951 1.5072 1.3365 1.4231
2498.026 1.4908 1.4755 1.5136 1.4589 1.7124 1.6341 1.4789 1.5612 1.2763 1.1786
2517.316 1.161 1.161 1.4466 1.6589 1.6405 1.4683 1.3052 1.3507 1.4222 1.6193
2536.606 1.7391 1.6867 1.4924 1.3341 1.301 1.4939 1.4751 1.2751 1.3902 1.4215
2555.896 1.4133 1.3373 1.3393 1.3979 1.5707 1.5692 1.4806 1.5736 1.465 1.2601
2575.186 1.3438 1.4819 1.3756 1.3196 1.11084 1.1887 1.3669 1.3682 1.5271 1.5042
2594.475 1.2722 1.2065 1.2863 1.428 1.4566 1.4743 1.5633 1.5199 1.4839 1.4679
2613.765 1.4058 1.4225 1.5569 1.6 1.4495 1.4764 1.6229 1.523 1.3751 1.4919
2633.055 1.5237 1.3539 1.3732 1.2862 1.3924 1.5296 1.4272 1.5119 1.2943 1.11703
2652.345 1.1508 1.09786 1.2052 1.3423 1.3687 1.22 1.11335 1.1209 1.2588 1.298
2671.634 1.2996 1.3473 1.2245 1.05937 1.0114 1.2494 1.4243 1.3919 1.3075 1.3677
2690.924 1.4365 1.4869 1.5825 1.2351 1.0389 1.258 1.5307 1.285 1.07161 1.4554
2710.214 1.6623 1.7433 1.6185 1.2158 1.04607 1.2171 1.4537 1.5703 1.4687 1.3407
2729.504 1.3289 1.2673 1.07467 1.0003 1.12647 1.2576 1.3356 1.5216 1.3686 1.3335
2748.794 1.3874 1.4763 1.8872 1.6785 1.4335 1.4108 1.3422 1.4424 1.5996 1.6657
2768.083 1.4996 1.31 1.3046 1.423 1.4716 1.5493 1.4051 1.3418 1.5113 1.6903
2787.373 1.8808 1.9159 1.8581 1.7497 1.8501 1.9528 1.6185 1.5269 1.6191 1.6839
2806.663 2.0268 2.0101 1.9192 1.8775 2.09 2.25 1.9723 2.0043 2.26 2.18
2825.953 2.18 2.45 2.63 2.78 2.85 3.16 3.75 4.41 5 5.42
2845.242 6.2 6.82 7.02 7.41 7.52 7.27 7 7.03 6.61 5.27
2864.532 4.4 3.9 3.49 3.3 3.04 2.78 2.75 2.98 2.77 2.67
2883.822 2.98 3.23 3.4 3.55 3.67 3.75 3.94 4.19 4.04 3.86
2903.112 4.2 4.58 4.87 5.33 5.7 5.45 5.28 5.64 5.82 5.5
2922.401 5.12 5.05 5.02 5.1 5.61 6.06 6.79 7.93 9.2 10.59
2941.691 11.94 12.95 13.42 13.78 14.02 13.97 13.56 12.59 11.51 10.61
2960.981 9.55 9.2 9.61 9.74 9.69 10.19 10.73 10.48 9.72 8.96
2980.271 8.26 7.56 7 6.21 5.74 5.6 4.98 4.75 4.56 4.3
2999.561 4.5 4.51 4.44 4.74 4.95 4.89 5.48 6.2 6.45 6.92
3018.850 7.47 7.79 7.94 7.61 7.42 7.35 7.06 6.46 5.65 5.13
3038.140 4.14 3.07 2.9 2.66 2.53 2.53 2.0086 2.1 2.45 2.56
3057.430 2.33 2.05 2.29 2.3 2.17 2.0057 1.6407 1.5854 2.13 2.49
3076.720 2.7 2.86 2.94 3.1 2.97 2.76 2.61 2.32 1.9385 1.8916
3096.009 1.9104 1.7773 1.5075 1.2485 1.2645 1.5368 1.5356 1.6236 1.5776 1.4412
3115.299 1.4233 1.3195 1.559 1.4306 1.2276 1.6309 1.9847 1.9307 1.54 1.5206
3134.589 1.6832 1.4298 1.13166 1.4585 1.4957 1.1189 1.2841 1.3705 1.1447 1.11685
3153.879 1.2382 1.07096 1.1741 1.4408 1.3823 1.13654 1.0285 1.1705 1.04488 0.9464
3173.169 0.795 0.639 1.13771 1.45 1.5901 1.4697 1.1801 1.3826 1.3211 1.296
3192.458 1.3621 1.2188 1.0151 0.886 1.209 1.4208 1.2322 1.13284 1.5906 1.5606
3211.748 1.3379 1.3537 1.1988 1.5334 1.468 0.9 0.867 1.1784 1.2353 1.1948
3231.038 1.3189 1.5555 1.3595 1.2611 1.4529 1.06021 0.882 1.2045 1.4208 1.366
3250.328 1.4639 1.3778 1.6502 1.7432 1.499 1.09956 0.88 1.6318 1.9012 1.7504
3269.617 1.6397 1.8477 2.19 2.38 2.18 1.9842 1.9386 1.9967 2.44 2.29
3288.907 2.36 2.61 2.51 2.31 2.12 1.6665 1.4325 1.9703 1.8535 1.7925
3308.197 2.07 1.483 1.2613 1.7498 2.08 1.7837 1.3381 1.2078 1.2527 1.4618
3327.487 1.2849 1.2539 1.6786 2.0231 1.7438 1.4614 1.09258 1.0214 1.1304 0.9499
3346.777 1.3172 1.4543 1.1865 1.1475 0.9621 0.9422 1.04221 1.03741 1.3625 1.244
3366.066 1.2566 1.5656 1.1958 1.2255 1.5551 1.7232 1.6255 1.1114 1.057 1.3827
3385.356 1.5357 1.6621 1.8232 2.12 2.18 2.14 1.8992 1.7913 1.8759 1.43
3404.646 1.4791 1.8432 1.9512 1.8928 1.9338 1.6409 1.4187 1.4554 1.5026 1.4275
3423.936 1.10055 1.246 1.2208 0.9457 1.1865 1.0777 0.721 0.714 0.787 1.03569
3443.225 1.11604 0.9863 0.882 0.715 0.791 0.826 0.736 1.0045 0.741 0.464
3462.515 0.529 0.607 0.762 0.743 0.554 0.74 0.9776 0.632 0.653 0.682
3481.805 0.421 0.48 0.433 0.725 1.1486 1.06442 0.809 0.265 0.121 0.616
3501.095 0.548 0.5 1.1043 0.928 0.9874 1.4265 1.2944 0.611 0.329 0.64
3520.385 0.614 0.884 1.06611 0.927 0.885 1.1598 1.4147 1.307 1.06707 0.9408
3539.674 0.908 1.0062 0.882 0.74 0.9829 1.06834 1.13097 0.938 0.782 1.1494
3558.964 1.04465 0.815 0.715 0.761 1.026 0.921 0.72 0.9545 1.0022 1.2276
3578.254 1.4109 1.2461 1.2852 1.3506 1.2786 1.13533 0.824 0.356 0.743 1.0146
3597.544 0.735 0.662 0.753 0.835 1.06077 1.09138 0.645 0.563 0.821 1.07169
3616.833 1.1972 1.016 0.9637 1.10213 0.9753 0.952 0.845 0.214 0.266 0.534
3636.123 0.514 0.67 1.026 1.11758 0.676 0.59 0.857 0.9721 0.889 0.753
3655.413 0.684 0.606 0.647 0.88 1.12062 1.13048 0.771 0.637 0.644 0.523
3674.703 0.791 1.3188 1.3773 1.2816 1.13811 1.09897 1.2106 1.0246 0.914 0.873
3693.993 0.936 0.855 1.09798 1.305 0.817 0.543 0.9562 1.264 1.2384 1.1906
3713.282 1.10525 1.07245 1.2351 1.3538 1.4562 1.4611 0.9943 0.707 0.602 0.821
3732.572 1.07429 0.832 0.714 1.1495 1.1703 0.9992 1.2607 1.2305 1.4982 1.5907
3751.862 0.845 0.628 0.682 0.795 1.1979 1.3718 1.2095 1.347 1.4274 1.13814
3771.152 0.892 1.0093 1.1555 1.07408 1.05091 1.0875 0.9819 0.894 1.182 1.0291
3790.441 0.9502 1.1857 0.9905 0.766 0.687 0.776 1.12846 1.2369 0.676 0.785
3809.731 1.3815 0.934 0.577 0.448 0.833 1.3848 1.4343 1.3496 0.9976 0.9535
3829.021 0.827 1.06351 1.1929 1.4287 1.5315 1.1566 1.2219 1.3635 1.2088 1.2294
3848.311 1.3461 1.3657 1.3285 1.04712 1.07443 1.1062 1.2625 1.5909 1.6683 1.2593
3867.601 1.13895 1.4122 1.3724 1.2575 1.2595 1.2568 1.1891 1.11494 1.3948 1.5082
3886.890 1.5938 1.3964 1.07315 1.10356 1.2646 1.3377 1.1611 1.022 1.1666 1.5078
3906.180 1.3947 1.09281 1.0058 1.2613 1.5175 1.05536 1.0061 1.10371 1.1611 1.3114
3925.470 1.2723 1.527 1.5059 1.5823 1.6226 1.4769 1.10942 1.2134 1.2203 0.923
3944.760 1.3105 1.7574 1.7606 1.3653 0.9702 1.1588 1.4831 1.4692 1.4903 1.4398
3964.049 1.3101 1.1631 1.06989 1.1458 1.691 1.5179 1.2856 1.4442 1.4496 1.4614
3983.339 1.5628 1.8432 1.5417 1.13665 0.9713 0.844 1.1401 0.9637 0.597 0.294
##END=
