##TITLE=2,6-Dichlorophenyl methyl carbinol
##JCAMP-DX=4.24
##DATA TYPE=INFRARED SPECTRUM
##ORIGIN=EPA-IR VAPOR PHASE LIBRARY
##OWNER=SRD/NIST
Collection (C) 2018 copyright by the U.S. Secretary of Commerce
on behalf of the United States of America. All rights reserved.
##CAS REGISTRY NO=53066-19-6
##MOLFORM=C 8 H 8 Cl 2 O
##$NIST SOURCE=MSDC-IR
##STATE=gas
##XUNITS=1/CM
##YUNITS=ABSORBANCE
##XFACTOR=1.
##YFACTOR=0.001
##DELTAX=1.929
##FIRSTX=549.8
##LASTX=4000.8
##FIRSTY=1.99
##MAXX=4000.75
##MINX=549.766
##MAXY=0.03297
##MINY=0.00003644
##NPOINTS=1790
##XYDATA=(X++(Y..Y))
549.766 1.99 1.82 1.87 2.02 1.86 1.63 1.66 1.75 1.81 1.73
569.056 1.54 1.73 1.54 1.29 1.35 1.07 0.9583 1.13 1.12 1.07
588.346 1.07 1.12 1.18 1.26 1.3 1.3 1.25 1.26 1.3 1.33
607.636 1.4 1.47 1.43 1.32 1.31 1.32 1.26 1.23 1.24 1.3
626.926 1.48 1.6 1.62 1.74 1.72 1.51 1.44 1.47 1.33 1.24
646.216 1.32 1.16 1.07 1.27 1.3 1.17 1.09 1.12 0.9879 0.9425
665.506 1.08 1.12 1.28 1.31 1.16 1.05 1.01 1.04 0.9922 1.01
684.796 1.08 1.12 1.17 1.29 1.32 1.24 1.28 1.17 1.25 1.36
704.086 1.33 1.38 1.42 1.62 1.87 2.21 2.63 3.15 3.87 4.54
723.376 5.08 5.66 6.34 7.42 9.08 9.25 7.6 6.48 6.26 6.18
742.666 6.11 6.26 6.57 7.54 8.78 9.73 10.68 11.53 12.39 13.28
761.956 13.99 14.77 15.42 15.81 16.63 18.58 23.08 30.5 32.97 29.56
781.246 28.73 29.34 28.66 26.53 23.13 19.5 16.1 12.9 10.02 7.69
800.536 6.15 5.19 4.33 3.78 3.47 3.04 3.08 3.22 2.92 2.79
819.826 2.55 2.26 2.16 2.11 2.01 1.75 1.57 1.5 1.47 1.47
839.116 1.42 1.41 1.4 1.35 1.43 1.44 1.36 1.38 1.37 1.22
858.406 1.11 1.1 0.9857 0.9687 1.04 1.12 1.27 1.34 1.38 1.55
877.696 1.71 1.98 2.37 2.78 3.19 3.71 4.39 5.07 5.67 6.08
896.986 6.33 6.27 6.02 5.73 5.23 4.69 4.19 3.6 3.05 2.65
916.276 2.33 2.1 1.91 1.63 1.51 1.53 1.44 1.43 1.47 1.42
935.566 1.35 1.29 1.29 1.33 1.41 1.43 1.45 1.48 1.51 1.56
954.856 1.6 1.62 1.64 1.66 1.73 1.87 1.89 1.84 1.83 1.75
974.146 1.68 1.62 1.61 1.65 1.67 1.67 1.69 1.81 1.96 2.13
993.436 2.38 2.76 3.14 3.53 3.93 4.33 4.75 5.15 5.5 5.73
1012.726 5.75 5.58 5.31 4.99 4.68 4.42 4.16 3.97 3.79 3.72
1032.016 3.8 3.89 4.1 4.41 4.7 5.04 5.46 5.8 6.06 6.32
1051.306 6.55 6.71 6.8 6.78 6.84 6.99 7.21 7.54 7.93 8.34
1070.596 8.75 9.21 9.61 9.95 10.32 10.66 10.98 11.43 11.87 12.39
1089.886 13.14 14.18 15.8 17.74 19.84 22.11 24.16 25.97 27.15 27.41
1109.176 27.09 25.94 24.08 21.73 19.02 16.32 13.8 11.65 9.89 8.48
1128.467 7.51 6.9 6.49 6.28 6.23 6.43 6.72 7.03 7.38 7.65
1147.757 7.99 8.33 8.5 8.54 8.48 8.2 7.79 7.51 7.22 6.99
1167.047 7.1 7.29 7.83 8.8 9.83 11.04 12.26 13.12 13.77 14.14
1186.337 14.08 13.71 13.23 12.68 12.04 11.37 10.56 9.89 9.4 8.69
1205.627 7.94 7.23 6.34 5.55 4.83 4.18 3.78 3.54 3.39 3.35
1224.917 3.48 3.61 3.83 4.11 4.4 4.69 4.96 5.27 5.45 5.64
1244.207 5.79 5.89 5.97 6.01 6.1 6.22 6.37 6.51 6.67 6.73
1263.497 6.71 6.7 6.6 6.46 6.38 6.34 6.26 6 5.81 5.67
1282.787 5.38 5.04 4.62 4.11 3.72 3.47 3.25 3.09 2.95 2.87
1302.077 2.83 2.77 2.72 2.68 2.62 2.5 2.37 2.28 2.26 2.3
1321.367 2.39 2.47 2.53 2.62 2.79 2.96 3.13 3.3 3.32 3.3
1340.657 3.36 3.4 3.34 3.31 3.27 3.25 3.25 3.28 3.44 3.57
1359.947 3.77 4.09 4.53 5.04 5.48 6.02 6.66 7.26 7.52 7.39
1379.237 7.19 7.01 6.69 6.39 6.16 5.91 5.69 5.63 5.71 5.79
1398.527 5.96 6.21 6.5 6.85 7.14 7.43 7.82 8.21 8.59 9
1417.817 9.6 10.39 11.26 12.49 14.19 16.28 18.69 20.93 22.37 22.93
1437.107 22.73 21.67 19.97 17.96 15.29 11.97 8.88 6.61 5.08 4.14
1456.397 3.52 3.16 2.95 2.76 2.56 2.4 2.33 2.21 2.09 1.98
1475.687 1.86 1.87 1.91 1.88 1.93 2.02 2.07 2.05 2.08 2.13
1494.977 2.09 1.99 1.92 1.87 1.79 1.7 1.66 1.65 1.63 1.59
1514.267 1.5 1.48 1.38 1.25 1.23 1.25 1.26 1.24 1.26 1.34
1533.557 1.45 1.57 1.76 1.99 2.32 2.77 3.35 4.11 5.08 6.39
1552.847 7.93 9.62 11.22 12.75 14.01 14.82 15.13 14.89 14.09 12.71
1572.137 11 9.35 7.99 6.99 6.32 5.75 5.17 4.54 3.98 3.42
1591.427 2.84 2.39 2.06 1.81 1.62 1.45 1.29 1.19 1.1 1.06
1610.717 1.09 1.05 1 1.01 1.02 1.04 1.02 1.01 0.9994 0.9493
1630.007 0.8548 0.8369 0.8742 0.873 0.8211 0.7692 0.8008 0.8246 0.8328 0.7852
1649.297 0.7737 0.7717 0.8196 0.969 0.9947 0.989 1.09 1.17 1.12 1.06
1668.587 1.06 1.04 1.02 1.01 0.8785 0.7394 0.7056 0.664 0.5983 0.559
1687.877 0.5871 0.5732 0.5456 0.6011 0.6056 0.5581 0.5434 0.4969 0.4688 0.4955
1707.167 0.4587 0.4668 0.475 0.4681 0.4747 0.459 0.4493 0.4303 0.4564 0.4572
1726.457 0.4931 0.5165 0.4622 0.4536 0.494 0.4857 0.4578 0.4336 0.3741 0.3972
1745.747 0.3973 0.3832 0.3917 0.3836 0.3749 0.3637 0.3625 0.4027 0.4654 0.5108
1765.037 0.5819 0.6278 0.6658 0.7183 0.7724 0.8763 0.905 0.895 0.8986 0.8664
1784.327 0.8108 0.8057 0.8158 0.6846 0.5815 0.5219 0.4748 0.4279 0.3876 0.3741
1803.617 0.3085 0.3246 0.3885 0.3584 0.3474 0.3633 0.3708 0.3595 0.3784 0.3905
1822.907 0.3943 0.4605 0.4621 0.3979 0.4254 0.5162 0.5412 0.6263 0.7348 0.7328
1842.197 0.7411 0.7971 0.8695 0.9621 1.04 1.02 1.01 0.9828 0.9189 0.8282
1861.487 0.7204 0.6303 0.5843 0.5399 0.4835 0.4448 0.4314 0.402 0.3652 0.3736
1880.777 0.3728 0.3618 0.3346 0.3592 0.404 0.4005 0.4232 0.4439 0.4297 0.4261
1900.067 0.4777 0.5699 0.5986 0.5613 0.6397 0.7764 0.8087 0.8838 1.03 1.1
1919.357 1.12 1.13 1.18 1.2 1.1 1.04 0.9912 0.9039 0.791 0.6318
1938.647 0.5189 0.4812 0.4531 0.4083 0.4267 0.4168 0.383 0.3685 0.3376 0.3293
1957.937 0.3548 0.3297 0.3362 0.3329 0.3089 0.3318 0.3163 0.3302 0.361 0.3717
1977.227 0.3629 0.3603 0.3731 0.3905 0.3622 0.3595 0.4066 0.417 0.4177 0.3791
1996.517 0.3455 0.3964 0.4045 0.3649 0.3733 0.368 0.3534 0.3127 0.2996 0.3309
2015.807 0.3483 0.3972 0.4007 0.3394 0.3042 0.2526 0.2473 0.3065 0.3385 0.2976
2035.097 0.2628 0.258 0.2341 0.1925 0.1974 0.2499 0.2625 0.2778 0.2435 0.2103
2054.387 0.2505 0.2691 0.2848 0.281 0.2253 0.2002 0.2012 0.2019 0.2093 0.242
2073.677 0.2594 0.1922 0.2269 0.2524 0.169 0.2115 0.2921 0.2683 0.2761 0.3015
2092.967 0.2396 0.2874 0.3186 0.2464 0.228 0.2646 0.2567 0.1984 0.2154 0.2368
2112.257 0.2593 0.2578 0.242 0.2104 0.1775 0.1829 0.172 0.1909 0.2055 0.2207
2131.547 0.2185 0.1881 0.1729 0.1934 0.2182 0.2178 0.2485 0.2464 0.2395 0.2788
2150.837 0.1767 0.1129 0.2022 0.2387 0.2321 0.2192 0.2202 0.2063 0.2321 0.2669
2170.127 0.291 0.2683 0.185 0.1928 0.2416 0.2513 0.2359 0.2682 0.2941 0.2439
2189.417 0.247 0.2834 0.3002 0.2991 0.2858 0.2692 0.2542 0.2544 0.253 0.2498
2208.707 0.25 0.2446 0.2036 0.1903 0.2329 0.2914 0.2853 0.255 0.1979 0.1678
2227.997 0.2132 0.1822 0.1962 0.2376 0.2507 0.2534 0.2452 0.2239 0.211 0.2458
2247.287 0.2422 0.2201 0.2034 0.2216 0.2364 0.2685 0.2956 0.2928 0.3373 0.3254
2266.577 0.2804 0.2813 0.2915 0.3373 0.3416 0.3118 0.2914 0.2787 0.2861 0.3559
2285.868 0.3711 0.3358 0.3585 0.3468 0.2917 0.2901 0.3624 0.372 0.2976 0.2693
2305.158 0.294 0.2976 0.3048 0.2899 0.2838 0.3152 0.3945 0.4056 0.3265 0.2765
2324.448 0.2818 0.2534 0.2043 0.1815 0.1749 0.2369 0.2601 0.293 0.2663 0.191
2343.738 0.1905 0.2179 0.2325 0.2138 0.2369 0.225 0.2056 0.2315 0.1949 0.1638
2363.028 0.2009 0.2385 0.3081 0.2951 0.243 0.2403 0.1724 0.1732 0.2007 0.1768
2382.318 0.1894 0.1895 0.1777 0.1732 0.1738 0.1541 0.1074 0.1641 0.2094 0.1866
2401.608 0.2159 0.1916 0.2111 0.2214 0.1913 0.2419 0.212 0.1841 0.19 0.2169
2420.898 0.2221 0.2108 0.2333 0.2572 0.2959 0.377 0.3315 0.2638 0.3201 0.3139
2440.188 0.2938 0.3165 0.3155 0.2596 0.2918 0.3152 0.2901 0.2321 0.2359 0.2512
2459.478 0.2168 0.1865 0.1981 0.2408 0.246 0.2184 0.1586 0.2429 0.2952 0.226
2478.768 0.1345 0.1093 0.1475 0.2008 0.1994 0.1382 0.1756 0.1933 0.1915 0.2332
2498.058 0.267 0.2815 0.261 0.2467 0.1898 0.172 0.2311 0.2424 0.2595 0.2221
2517.348 0.2114 0.2364 0.192 0.1233 0.1136 0.1529 0.2079 0.3005 0.2608 0.1521
2536.638 0.1682 0.2311 0.2428 0.2273 0.2326 0.2455 0.1942 0.1735 0.1764 0.1664
2555.928 0.2259 0.2746 0.2838 0.3171 0.2713 0.2114 0.2234 0.1973 0.1524 0.1823
2575.218 0.2323 0.2102 0.2045 0.2712 0.3106 0.2386 0.1846 0.2013 0.2017 0.1818
2594.508 0.104 0.06492 0.147 0.1763 0.2027 0.2084 0.1729 0.1996 0.2209 0.2374
2613.798 0.213 0.1767 0.1879 0.1938 0.1652 0.1561 0.2057 0.2292 0.2485 0.2655
2633.088 0.2848 0.314 0.2939 0.3383 0.3304 0.3004 0.3501 0.3238 0.3327 0.3456
2652.378 0.2623 0.2158 0.2142 0.2414 0.2575 0.2732 0.2951 0.3 0.2584 0.1781
2671.668 0.2065 0.2181 0.1641 0.1513 0.1647 0.08735 0.1451 0.1657 0.1003 0.1953
2690.958 0.1919 0.1792 0.1709 0.1653 0.2092 0.2075 0.1384 0.06298 0.05734 0.09094
2710.248 0.08536 0.1111 0.1848 0.1929 0.2439 0.2802 0.2535 0.1258 0.06788 0.1882
2729.538 0.2295 0.2553 0.3417 0.279 0.1621 0.217 0.277 0.1875 0.1792 0.2449
2748.828 0.164 0.202 0.2165 0.2023 0.2237 0.1841 0.2174 0.2398 0.2314 0.2417
2768.118 0.2265 0.2141 0.2434 0.2476 0.1892 0.133 0.09849 0.0609 0.1062 0.1649
2787.408 0.2173 0.364 0.4054 0.3029 0.3173 0.3732 0.3442 0.278 0.2099 0.2194
2806.698 0.2489 0.2929 0.2753 0.2213 0.2787 0.3199 0.367 0.3852 0.3355 0.3854
2825.988 0.51 0.4896 0.4566 0.4281 0.3602 0.3786 0.4327 0.4848 0.4397 0.4126
2845.278 0.4472 0.4244 0.3964 0.4236 0.4722 0.5772 0.6236 0.6127 0.7308 0.8928
2864.568 0.9639 0.9538 1.1 1.27 1.26 1.28 1.32 1.34 1.34 1.36
2883.858 1.41 1.44 1.53 1.55 1.54 1.64 1.6 1.47 1.48 1.51
2903.148 1.51 1.56 1.5 1.47 1.63 1.76 1.73 1.7 1.95 2.07
2922.438 2.02 2.17 2.41 2.64 2.93 3.27 3.59 3.87 4.05 4.17
2941.728 4.21 4.06 3.84 3.54 3.31 3.04 2.76 2.54 2.39 2.47
2961.018 2.53 2.65 2.94 3.5 4.19 4.96 5.59 6.36 7.12 7.59
2980.308 7.88 8.01 8.13 7.97 7.65 7.24 6.74 6.29 5.92 5.55
2999.598 5.16 4.85 4.56 4.16 3.71 3.17 2.66 2.25 1.94 1.66
3018.888 1.32 1.08 0.9488 0.8488 0.7534 0.7568 0.6736 0.556 0.5946 0.5759
3038.178 0.6001 0.7114 0.6808 0.6293 0.7488 0.8947 1.04 1.14 1.33 1.53
3057.468 1.67 1.79 1.92 1.99 2.02 2.1 2.21 2.26 2.28 2.33
3076.758 2.28 2.17 2.12 2.01 1.88 1.85 1.66 1.52 1.39 1.08
3096.048 0.847 0.7705 0.7226 0.6314 0.6775 0.7268 0.6379 0.5347 0.4793 0.5936
3115.338 0.7429 0.7732 0.7356 0.7713 0.7685 0.7537 0.865 0.9253 0.8903 0.7727
3134.628 0.6903 0.6271 0.4847 0.4289 0.4733 0.4447 0.4703 0.3721 0.2543 0.261
3153.918 0.3501 0.5303 0.4785 0.3424 0.3902 0.4033 0.4371 0.4853 0.3015 0.1543
3173.208 0.2506 0.3599 0.2442 0.3145 0.4299 0.336 0.2735 0.2749 0.2253 0.1505
3192.498 0.1936 0.2706 0.2964 0.2056 0.2073 0.2709 0.279 0.2887 0.319 0.4071
3211.788 0.4085 0.3148 0.2199 0.209 0.3291 0.3705 0.2844 0.193 0.07238 0.1259
3231.078 0.2519 0.2476 0.1841 0.1554 0.06719 0.03644 0.1885 0.2542 0.2067 0.1556
3250.368 0.2676 0.3943 0.3186 0.2832 0.173 0.148 0.2018 0.03937 0.08855 0.1645
3269.658 0.2555 0.3757 0.3223 0.2728 0.3371 0.4548 0.3649 0.254 0.3863 0.504
3288.948 0.4224 0.3931 0.4362 0.4951 0.5584 0.5207 0.4918 0.3403 0.3732 0.4719
3308.238 0.2999 0.2627 0.2403 0.2835 0.3554 0.3655 0.4148 0.4017 0.3661 0.3925
3327.528 0.4517 0.3745 0.3833 0.4413 0.42 0.4477 0.5184 0.5523 0.3769 0.3404
3346.818 0.3613 0.2934 0.448 0.5534 0.4367 0.3825 0.4188 0.4399 0.4952 0.4329
3366.108 0.3525 0.4119 0.4539 0.4315 0.4462 0.4736 0.3755 0.4378 0.449 0.4175
3385.398 0.5162 0.3458 0.2146 0.2584 0.3569 0.3977 0.3867 0.3466 0.3477 0.4108
3404.688 0.3811 0.3626 0.2824 0.2297 0.3672 0.4404 0.3908 0.4172 0.4442 0.4036
3423.978 0.4606 0.4143 0.3766 0.5052 0.4545 0.497 0.681 0.4765 0.2684 0.3538
3443.269 0.3605 0.3233 0.2612 0.2233 0.3518 0.3418 0.2235 0.3233 0.4933 0.3579
3462.559 0.2709 0.3748 0.3121 0.3598 0.4363 0.3299 0.2526 0.3112 0.3654 0.3178
3481.849 0.3281 0.4904 0.6149 0.5086 0.428 0.5382 0.6164 0.6222 0.5707 0.5372
3501.139 0.4318 0.4367 0.5619 0.6108 0.5703 0.3912 0.3384 0.3855 0.4025 0.3959
3520.429 0.4129 0.4068 0.437 0.2998 0.2756 0.4432 0.3103 0.324 0.5247 0.614
3539.719 0.4641 0.3704 0.4566 0.4677 0.4221 0.2228 0.1991 0.458 0.5976 0.5412
3559.009 0.5061 0.5328 0.5988 0.6387 0.4491 0.4799 0.5488 0.4527 0.4598 0.5669
3578.299 0.672 0.6605 0.597 0.5607 0.5742 0.554 0.5331 0.5378 0.6218 0.767
3597.589 0.8157 0.842 0.8985 0.9108 0.9455 0.9862 1.05 1.32 1.85 2.38
3616.879 2.97 4.02 5.38 6.76 7.78 8.33 8.63 8.75 8.69 8.39
3636.169 7.74 6.67 5.67 4.92 4.37 4.09 3.78 3.57 3.31 2.93
3655.459 2.53 2.1 1.85 1.72 1.57 1.27 1.08 1.08 1.04 0.7994
3674.749 0.5577 0.5317 0.5281 0.4877 0.5577 0.6787 0.6528 0.5016 0.4448 0.5712
3694.039 0.7298 0.8488 0.8144 0.7305 0.8093 0.8317 0.7902 0.702 0.6296 0.5764
3713.329 0.5504 0.5349 0.5219 0.5914 0.5718 0.3668 0.3214 0.3801 0.36 0.4809
3732.619 0.5414 0.5325 0.4898 0.4511 0.4429 0.3131 0.3176 0.4007 0.4098 0.5279
3751.909 0.5227 0.4634 0.5021 0.4529 0.4769 0.5473 0.4421 0.4786 0.4399 0.2832
3771.199 0.3556 0.4367 0.4221 0.408 0.498 0.3896 0.3088 0.4756 0.5028 0.4259
3790.489 0.3008 0.257 0.3073 0.3469 0.389 0.2419 0.3711 0.4907 0.4848 0.544
3809.779 0.3991 0.4401 0.4868 0.3724 0.2973 0.3568 0.4704 0.508 0.4919 0.388
3829.069 0.3887 0.553 0.5808 0.6168 0.654 0.5631 0.4872 0.51 0.5715 0.559
3848.359 0.5258 0.538 0.5551 0.6531 0.627 0.5849 0.626 0.4859 0.4485 0.5059
3867.649 0.5889 0.6475 0.4687 0.4594 0.5871 0.577 0.4446 0.3194 0.4076 0.4045
3886.939 0.3585 0.4653 0.5427 0.463 0.4768 0.5231 0.5145 0.7182 0.72 0.3653
3906.229 0.264 0.4992 0.4704 0.472 0.5054 0.404 0.5264 0.6128 0.552 0.4939
3925.519 0.4996 0.461 0.3435 0.3511 0.4563 0.3978 0.3909 0.5011 0.6208 0.6382
3944.809 0.5755 0.5054 0.4634 0.5088 0.5657 0.5696 0.5556 0.5518 0.4476 0.3906
3964.099 0.464 0.5866 0.5605 0.4882 0.5801 0.5558 0.3659 0.3195 0.3672 0.4347
3983.389 0.4254 0.3509 0.3671 0.3076 0.2582 0.3426 0.3058 0.3756 0.4186 0.3484
##END=
