##TITLE=Ethyl 3-ethyl-5-methyl-4-isoxazolecarboxylate
##JCAMP-DX=4.24
##DATA TYPE=INFRARED SPECTRUM
##ORIGIN=EPA-IR VAPOR PHASE LIBRARY
##OWNER=SRD/NIST
Collection (C) 2018 copyright by the U.S. Secretary of Commerce
on behalf of the United States of America. All rights reserved.
##CAS REGISTRY NO=53064-41-8
##MOLFORM=C 9 H 13 N O 3
##$NIST SOURCE=MSDC-IR
##STATE=gas
##XUNITS=1/CM
##YUNITS=ABSORBANCE
##XFACTOR=1.
##YFACTOR=0.001
##DELTAX=1.92934
##FIRSTX=549.9
##LASTX=3999.5
##FIRSTY=2.755
##MAXX=3999.53
##MINX=549.863
##MAXY=0.29928
##MINY=0
##NPOINTS=1789
##XYDATA=(X++(Y..Y))
549.863 2.755 2.8236 2.699 2.375 2.238 2.267 2.179 2.266 2.286 2.197
569.156 2.248 2.301 2.365 2.366 2.373 2.466 2.465 2.517 2.546 2.434
588.450 2.258 2.106 2.124 2.127 2.103 2.09 1.992 1.87 1.84 1.965
607.743 1.991 1.927 1.929 1.883 1.888 1.987 2.1 2.144 2.126 2.154
627.037 2.225 2.24 2.21 2.19 2.14 2.221 2.267 2.13 2.046 2.056
646.330 2.068 2.003 1.898 1.85 1.71 1.67 1.8 1.82 1.77 1.81
665.624 1.82 1.77 1.75 1.72 1.71 1.79 1.78 1.79 1.83 1.82
684.917 1.88 1.904 1.906 2.019 2.11 2.105 2.171 2.244 2.245 2.246
704.210 2.186 2.164 2.224 2.23 2.224 2.195 2.167 2.107 2.109 2.14
723.504 2.164 2.181 2.196 2.277 2.378 2.461 2.563 2.624 2.658 2.814
742.797 3.0221 3.1371 3.2655 3.497 3.6944 3.8458 4.08 4.39 4.72 5.13
762.091 5.63 6.15 6.71 7.28 7.8 8.29 8.89 9.55 10.15 10.67
781.384 11.25 11.83 12.38 12.92 13.34 13.5 13.33 13.01 12.64 12.19
800.678 11.67 11.11 10.45 9.71 8.99 8.44 8.08 7.77 7.62 7.58
819.971 7.58 7.78 8.06 8.34 8.7 9.04 9.27 9.4 9.39 9.25
839.264 8.92 8.48 8 7.53 7.09 6.63 6.18 5.97 5.93 5.93
858.558 6 6.22 6.56 6.93 7.36 7.88 8.41 9.02 9.81 10.59
877.851 11.35 12.06 12.58 12.86 12.88 12.68 12.16 11.32 10.21 9.02
897.145 7.87 6.8 5.87 5.1 4.53 4.12 3.7487 3.5527 3.4636 3.3606
916.438 3.2696 3.2361 3.2544 3.2484 3.2841 3.3205 3.3288 3.3649 3.4536 3.5837
935.732 3.6828 3.8156 4 4.22 4.51 4.89 5.38 5.94 6.66 7.54
955.025 8.49 9.38 10.23 11.11 11.93 12.69 13.45 14.12 14.63 15
974.318 15.24 15.33 15.14 14.74 14.1 13.22 12.27 11.31 10.44 9.69
993.612 9.19 8.97 8.85 8.91 9.14 9.39 9.71 10.03 10.29 10.51
1012.905 10.64 10.67 10.59 10.46 10.3 10.16 10.08 10.14 10.37 10.74
1032.199 11.36 12.18 13.19 14.4 15.82 17.35 18.83 20.36 21.77 23.01
1051.492 24.17 25.19 26.08 26.99 28.02 29.18 30.47 31.89 33.48 35.19
1070.786 37.11 39.35 41.93 44.95 48.68 53.46 59.52 67.28 77.33 90.2
1090.079 106.65 127.3 152.36 181.48 212.98 243.89 270.56 289.68 299.28 298.34
1109.372 286.49 264.19 233.22 197.27 161.5 130.37 105.78 86.97 72.31 60.68
1128.666 51.37 43.98 38.16 33.69 30.25 27.49 25.29 23.55 22.14 21.04
1147.959 20.18 19.44 18.95 18.64 18.39 18.25 18.2 18.13 18.12 18.18
1167.253 18.16 18.11 17.97 17.68 17.2 16.53 15.77 14.88 13.87 12.84
1186.546 11.84 10.88 10.09 9.35 8.71 8.23 7.88 7.63 7.48 7.43
1205.840 7.35 7.37 7.49 7.58 7.72 7.93 8.16 8.48 8.97 9.55
1225.133 10.22 11.17 12.3 13.67 15.35 17.32 19.62 22.28 25.18 28.24
1244.426 31.44 34.6 37.64 40.28 42.3 43.6 44.08 43.91 43.22 42.18
1263.720 41.1 40.39 40.37 41.4 43.63 46.94 51.18 56.25 61.98 68.15
1283.013 74.62 81.06 87.09 92.28 95.97 97.65 97.04 94.11 89.11 82.45
1302.307 74.5 65.72 56.89 48.96 42.68 38.32 35.75 34.75 35.01 36.25
1321.600 38.13 40.36 42.68 44.75 46.29 46.97 46.59 45.12 42.67 39.43
1340.894 35.68 31.68 27.66 23.9 20.61 18.05 16.29 15.2 14.75 14.88
1360.187 15.59 16.74 18.09 19.42 20.6 21.69 22.62 23.36 23.79 23.68
1379.480 23.19 22.72 22.35 22.06 21.7 21.12 20.45 19.79 19.25 18.79
1398.774 18.38 18.1 18.03 18.15 18.56 19.35 20.47 22.02 23.98 26.39
1418.067 29.29 32.77 36.53 40.69 45.3 50.1 55.05 59.94 64.57 68.56
1437.361 72 74.43 75.41 74.77 72.54 68.92 64.14 59.03 53.87 49.13
1456.654 45.06 42.25 40.73 39.89 39.34 38.74 37.8 36.53 35.03 33.1
1475.948 30.89 28.56 26.32 24.18 22.31 20.78 19.47 18.29 17.21 16.21
1495.241 15.26 14.34 13.49 12.68 11.98 11.32 10.64 10.07 9.65 9.31
1514.534 8.99 8.74 8.54 8.37 8.26 8.14 8.03 7.94 7.88 7.82
1533.828 7.75 7.73 7.69 7.67 7.73 7.72 7.68 7.71 7.78 7.9
1553.121 8 8.14 8.27 8.39 8.67 8.98 9.34 9.82 10.33 10.94
1572.415 11.64 12.53 13.62 14.87 16.36 18.18 20.33 22.99 26.28 30.31
1591.708 35.22 41.09 47.84 55.26 62.84 69.9 75.75 79.78 81.5 80.6
1611.002 77.22 71.44 63.82 54.71 45.66 37.7 30.9 25.61 21.71 18.8
1630.295 16.56 14.84 13.46 12.28 11.32 10.57 9.94 9.41 8.97 8.62
1649.588 8.29 8.06 7.92 7.77 7.69 7.72 7.82 7.91 8.05 8.25
1668.882 8.54 8.94 9.33 9.85 10.44 11.03 11.79 12.59 13.44 14.33
1688.175 15.26 16.29 17.32 18.25 19.36 20.56 21.85 23.35 24.98 27.16
1707.469 29.82 33.23 37.82 43.87 51.91 62.68 76.61 92.95 112.36 133.74
1726.762 155.42 176 194.2 207.77 215.06 213.65 203.89 188.74 170.31 147.21
1746.056 121.49 96.49 75.07 57.83 45.17 36.32 29.95 25.6 22.51 20.24
1765.349 18.59 17.33 16.17 15.2 14.41 13.64 12.86 12.08 11.31 10.54
1784.642 9.78 9.12 8.47 7.81 7.24 6.74 6.31 5.94 5.6 5.3
1803.936 5.03 4.76 4.57 4.44 4.34 4.25 4.16 4.06 3.99 3.95
1823.229 3.88 3.8185 3.8003 3.7825 3.7452 3.7291 3.75 3.7164 3.6486 3.6191
1842.523 3.5987 3.559 3.5817 3.605 3.5739 3.574 3.5735 3.5668 3.5708 3.571
1861.816 3.555 3.5334 3.5092 3.4575 3.4492 3.4457 3.3861 3.3242 3.2922 3.2464
1881.110 3.1581 3.0859 3.015 2.92578 2.8578 2.8167 2.7837 2.757 2.733 2.711
1900.403 2.65 2.631 2.607 2.574 2.612 2.595 2.566 2.59 2.624 2.631
1919.696 2.601 2.582 2.625 2.667 2.693 2.7902 2.8336 2.7891 2.8164 2.87491
1938.990 2.92665 2.92084 2.96404 2.9928 2.96821 3.0056 3.0307 3.0182 3.0001 3.0455
1958.283 3.0495 3.0573 3.1124 3.0961 3.0732 3.0664 3.0781 3.0876 3.0491 2.93993
1977.577 2.863 2.8292 2.762 2.691 2.62 2.565 2.57 2.539 2.487 2.459
1996.870 2.432 2.421 2.421 2.442 2.415 2.365 2.382 2.413 2.417 2.395
2016.164 2.381 2.393 2.364 2.353 2.341 2.337 2.365 2.367 2.342 2.303
2035.457 2.316 2.357 2.325 2.28 2.302 2.326 2.336 2.328 2.251 2.256
2054.750 2.256 2.181 2.18 2.22 2.26 2.282 2.281 2.271 2.245 2.249
2074.044 2.29 2.282 2.303 2.331 2.301 2.277 2.274 2.236 2.211 2.231
2093.337 2.232 2.26 2.267 2.263 2.264 2.316 2.345 2.338 2.373 2.347
2112.631 2.334 2.379 2.414 2.419 2.416 2.429 2.404 2.364 2.358 2.38
2131.924 2.374 2.313 2.266 2.229 2.236 2.28 2.267 2.234 2.223 2.214
2151.218 2.196 2.211 2.212 2.193 2.203 2.197 2.198 2.189 2.214 2.25
2170.511 2.245 2.241 2.235 2.219 2.197 2.169 2.172 2.211 2.24 2.243
2189.804 2.226 2.242 2.257 2.233 2.208 2.198 2.203 2.251 2.268 2.248
2209.098 2.232 2.231 2.237 2.234 2.236 2.249 2.295 2.306 2.282 2.3
2228.391 2.315 2.306 2.294 2.307 2.301 2.274 2.253 2.235 2.205 2.182
2247.685 2.161 2.126 2.144 2.102 2.039 2.057 2.079 2.069 2.051 2.019
2266.978 1.989 1.981 1.942 1.902 1.911 1.923 1.91 1.881 1.83 1.81
2286.272 1.85 1.87 1.85 1.81 1.78 1.8 1.82 1.81 1.83 1.83
2305.565 1.83 1.79 1.79 1.83 1.82 1.83 1.85 1.87 1.87 1.85
2324.858 1.82 1.8 1.83 1.84 1.84 1.88 1.906 1.952 2.012 2.051
2344.152 2.085 2.105 2.105 2.096 2.092 2.097 2.089 2.106 2.113 2.119
2363.445 2.088 2.077 2.103 2.083 2.053 2.036 2.063 2.13 2.145 2.113
2382.739 2.123 2.163 2.173 2.153 2.17 2.169 2.144 2.18 2.228 2.19
2402.032 2.153 2.166 2.161 2.135 2.103 2.062 2.056 2.063 2.064 2.086
2421.326 2.052 2.012 1.988 1.941 1.89 1.83 1.83 1.87 1.887 1.894
2440.619 1.86 1.86 1.885 1.88 1.87 1.84 1.86 1.888 1.882 1.88
2459.912 1.86 1.87 1.86 1.85 1.82 1.79 1.82 1.87 1.89 1.897
2479.206 1.953 1.943 1.919 1.957 1.923 1.903 1.948 1.958 1.98 1.975
2498.499 1.918 1.919 1.9 1.87 1.885 1.87 1.87 1.88 1.86 1.77
2517.793 1.75 1.75 1.69 1.68 1.71 1.71 1.69 1.69 1.7 1.7
2537.086 1.7 1.7 1.75 1.77 1.72 1.72 1.68 1.63 1.67 1.7
2556.380 1.66 1.64 1.72 1.77 1.72 1.67 1.64 1.63 1.66 1.63
2575.673 1.56 1.54 1.53 1.5 1.5 1.48 1.46 1.43 1.41 1.42
2594.966 1.38 1.35 1.36 1.33 1.39 1.38 1.32 1.3 1.26 1.34
2614.260 1.39 1.36 1.39 1.42 1.45 1.46 1.45 1.44 1.4 1.39
2633.553 1.42 1.44 1.45 1.46 1.45 1.45 1.49 1.46 1.38 1.36
2652.847 1.4 1.4 1.38 1.38 1.37 1.41 1.35 1.33 1.36 1.35
2672.140 1.36 1.32 1.31 1.36 1.37 1.41 1.45 1.44 1.44 1.37
2691.434 1.37 1.45 1.43 1.51 1.56 1.51 1.58 1.65 1.65 1.61
2710.727 1.6 1.67 1.79 1.86 1.79 1.76 1.8 1.84 1.919 2
2730.020 2.032 2.057 2.105 2.122 2.175 2.195 2.204 2.265 2.275 2.293
2749.314 2.292 2.271 2.282 2.285 2.252 2.212 2.256 2.267 2.185 2.22
2768.607 2.236 2.172 2.179 2.149 2.171 2.229 2.178 2.159 2.163 2.12
2787.901 2.134 2.198 2.168 2.195 2.282 2.264 2.273 2.373 2.448 2.475
2807.194 2.559 2.683 2.692 2.747 2.8295 2.94851 3.0613 3.0635 3.1171 3.1811
2826.488 3.3142 3.4796 3.6125 3.665 3.7009 3.8513 3.95 4.11 4.28 4.37
2845.781 4.54 4.77 4.96 5.18 5.44 5.59 5.85 6.24 6.64 6.95
2865.074 7.34 7.89 8.36 8.84 9.46 10.22 11.14 12.18 13.2 14.18
2884.368 15.14 15.95 16.49 16.78 16.9 16.82 16.61 16.47 16.32 16.11
2903.661 16.02 16.02 16.12 16.25 16.44 16.61 16.75 16.93 17.07 17.34
2922.955 17.89 18.8 19.99 21.46 23.31 25.64 28.39 31.41 34.66 37.85
2942.248 40.65 42.69 43.86 44.09 43.32 41.87 39.92 37.78 35.78 34
2961.542 32.72 32.24 32.57 33.6 35.4 37.93 41.3 45.55 50.25 55
2980.835 59.14 62.09 63.88 64.39 63.31 60.58 56.2 50.49 44.53 39.1
3000.128 34.42 30.24 26.42 23.46 21.03 18.88 17.14 15.54 14.26 13.05
3019.422 11.84 10.82 10.08 9.37 8.62 8.02 7.56 7.24 6.84 6.46
3038.715 6.15 5.9 5.64 5.3 5.04 4.93 4.67 4.4 4.24 4.12
3058.009 4.05 3.8709 3.6315 3.5081 3.462 3.2992 3.1878 3.1608 3.1169 3.0463
3077.302 3.0427 3.0018 2.8126 2.716 2.652 2.595 2.649 2.652 2.62 2.5
3096.596 2.291 2.276 2.237 2.136 2.128 2.026 2.019 2.029 1.916 1.86
3115.889 1.82 1.8 1.68 1.57 1.62 1.65 1.64 1.53 1.52 1.56
3135.182 1.36 1.22 1.24 1.31 1.34 1.24 1.19 1.14 1.11 1.11
3154.476 1.08 1.11 1.13 1.19 1.13 0.98 1 1.08 1.17 1.19
3173.769 1.13 1.05 1.04 1.11 1.13 1.02 0.94 0.94 0.91 0.82
3193.063 0.62 0.61 0.61 0.69 0.77 0.71 0.68 0.57 0.47 0.49
3212.356 0.51 0.45 0.43 0.3 0.39 0.56 0.34 0.18 0.17 0.32
3231.650 0.32 0.1 0.05 0.01 0.11 0.23 0.09 0.08 0.14 0.13
3250.943 0.18 0.15 0 0.05 0.22 0.19 0.18 0.24 0.22 0.13
3270.236 0.09 0.08 0.05 0.03 0.08 0.12 0.07 0.07 0.09 0.11
3289.530 0.05 0.02 0.22 0.25 0.27 0.13 0.03 0.16 0.21 0.3
3308.823 0.4 0.27 0.17 0.27 0.29 0.28 0.4 0.35 0.3 0.32
3328.117 0.37 0.58 0.62 0.58 0.51 0.39 0.4 0.45 0.52 0.63
3347.410 0.52 0.33 0.33 0.35 0.38 0.34 0.31 0.37 0.47 0.56
3366.704 0.55 0.56 0.5 0.36 0.34 0.29 0.3 0.43 0.63 0.68
3385.997 0.57 0.55 0.61 0.7 0.57 0.51 0.55 0.47 0.39 0.46
3405.290 0.51 0.45 0.61 0.77 0.77 0.71 0.79 0.93 0.87 0.98
3424.584 1.02 0.97 1.14 1.22 1.25 1.33 1.33 1.39 1.49 1.56
3443.877 1.65 1.7 1.67 1.66 1.67 1.62 1.55 1.49 1.42 1.34
3463.171 1.29 1.29 1.26 1.18 1.08 0.91 0.77 0.71 0.63 0.79
3482.464 0.91 0.88 0.94 0.96 0.9 0.82 0.88 0.84 0.76 0.78
3501.758 0.76 0.74 0.71 0.68 0.79 0.72 0.66 0.73 0.68 0.69
3521.051 0.7 0.69 0.61 0.64 0.8 0.85 0.7 0.64 0.72 0.7
3540.344 0.74 0.74 0.64 0.67 0.76 0.87 0.89 0.82 0.86 0.84
3559.638 0.67 0.71 0.78 0.73 0.76 0.78 0.87 0.91 0.94 0.98
3578.931 0.95 0.92 0.96 0.83 0.77 0.84 0.9 0.95 0.76 0.62
3598.225 0.71 0.95 0.98 0.76 0.73 0.88 0.83 0.82 0.85 0.72
3617.518 0.7 0.8 0.78 0.77 0.88 0.91 0.93 1.02 1.03 1.05
3636.812 1.12 1.07 1 0.89 0.78 0.89 0.92 0.84 0.89 0.95
3656.105 0.98 0.92 0.94 1.05 1.05 1.06 1.13 1 0.82 0.83
3675.398 0.83 0.86 0.94 0.99 1.09 1.05 0.92 0.94 0.9 1.02
3694.692 1.19 1.15 1.09 1.03 1.01 0.99 0.94 0.92 0.98 1.07
3713.985 1.21 1.22 1.14 1.08 1.01 1.09 1.15 1.16 1.17 1.09
3733.279 1.04 1.13 1.12 1.17 1.18 1.15 1.15 1.15 1.12 1.08
3752.572 1.17 1.2 1.08 1.08 1.18 1.19 1.26 1.18 1.17 1.27
3771.866 1.19 1.17 1.22 1.19 1.16 1.14 1.14 1.26 1.32 1.27
3791.159 1.27 1.29 1.3 1.36 1.3 1.16 1.13 1.22 1.23 1.2
3810.452 1.27 1.34 1.31 1.24 1.22 1.28 1.28 1.25 1.29 1.32
3829.746 1.32 1.31 1.31 1.33 1.44 1.47 1.39 1.33 1.28 1.26
3849.039 1.29 1.3 1.27 1.32 1.31 1.25 1.28 1.2 1.12 1.26
3868.333 1.38 1.33 1.23 1.23 1.35 1.33 1.34 1.37 1.34 1.37
3887.626 1.35 1.27 1.17 1.27 1.37 1.3 1.23 1.33 1.35 1.2
3906.920 1.24 1.3 1.28 1.28 1.28 1.33 1.35 1.29 1.35 1.4
3926.213 1.38 1.38 1.41 1.37 1.25 1.28 1.36 1.37 1.36 1.38
3945.506 1.34 1.33 1.31 1.34 1.42 1.45 1.51 1.52 1.51 1.55
3964.800 1.51 1.41 1.45 1.51 1.53 1.61 1.66 1.6 1.54 1.57
3984.093 1.55 1.46 1.53 1.65 1.63 1.57 1.6 1.64 1.64
##END=
