##TITLE=6-Methoxy-2-benzoxazolinone
##JCAMP-DX=4.24
##DATA TYPE=INFRARED SPECTRUM
##ORIGIN=EPA-IR VAPOR PHASE LIBRARY
##OWNER=SRD/NIST
Collection (C) 2018 copyright by the U.S. Secretary of Commerce
on behalf of the United States of America. All rights reserved.
##CAS REGISTRY NO=532-91-2
##MOLFORM=C 8 H 7 N O 3
##$NIST SOURCE=MSDC-IR
##STATE=gas
##XUNITS=1/CM
##YUNITS=ABSORBANCE
##XFACTOR=1.
##YFACTOR=0.001
##DELTAX=1.92898
##FIRSTX=549.8
##LASTX=4000.7
##FIRSTY=1.434
##MAXX=4000.7
##MINX=549.759
##MAXY=0.167414
##MINY=0
##NPOINTS=1790
##XYDATA=(X++(Y..Y))
549.759 1.434 1.524 1.534 1.414 2.004 2.494 2.454 2.334 2.824 2.744
569.049 3.104 3.584 3.564 3.714 2.974 2.654 2.344 1.894 1.644 1.884
588.339 1.994 1.914 2.144 2.364 2.034 1.864 2.504 2.994 3.254 2.734
607.628 2.174 2.424 2.754 3.034 3.224 2.924 3.084 3.334 3.234 3.354
626.918 3.584 3.784 3.964 3.644 3.374 3.144 2.624 2.604 2.274 1.554
646.208 1.864 2.124 1.734 1.534 1.834 1.854 1.644 1.524 1.194 1.0717
665.498 1.0751 1.334 1.1834 0.5372 0.27947 0.8229 1.1305 1.1447 1.344 1.0846
684.787 1.284 1.854 2.124 2.304 2.424 2.484 2.134 1.944 2.234 2.174
704.077 2.114 2.264 2.224 2.064 2.074 1.674 1.624 1.894 1.674 1.684
723.367 1.674 1.444 1.344 1.714 1.554 1.374 1.734 2.044 2.294 2.774
742.657 2.714 2.634 3.084 3.624 3.934 4.094 4.074 3.904 4.114 4.304
761.947 4.574 4.494 4.474 4.044 3.344 3.704 4.204 3.944 3.694 4.294
781.236 4.864 5.124 5.514 5.944 6.384 6.374 6.064 6.364 6.694 6.994
800.526 7.264 6.664 6.034 5.394 4.984 4.814 4.524 4.174 3.794 3.984
819.816 4.134 4.204 4.544 4.754 4.874 5.024 4.834 4.814 5.004 5.074
839.106 5.104 5.554 5.624 5.324 5.664 5.804 5.864 5.744 5.654 5.254
858.395 4.854 4.614 3.914 3.644 3.584 3.434 3.304 3.364 3.634 3.714
877.685 4.174 4.684 4.934 5.694 6.184 6.304 6.744 7.564 8.634 10.304
896.975 12.504 14.814 17.204 20.134 23.534 25.754 27.144 27.624 26.654 25.354
916.265 23.274 20.144 16.384 12.534 9.814 8.754 8.454 8.804 9.834 11.344
935.555 13.514 15.814 18.004 19.694 20.454 20.354 19.474 17.984 15.764 12.834
954.844 10.304 7.964 5.544 4.194 3.934 3.564 2.994 2.874 3.074 2.794
974.134 2.144 1.844 2.104 2.294 2.204 2.394 2.354 2.374 2.374 2.384
993.424 2.554 2.574 2.434 2.534 2.614 3.034 3.604 3.714 4.114 4.834
1012.714 4.684 4.264 4.844 6.004 7.224 8.204 8.554 8.474 8.144 7.794
1032.003 7.374 6.514 5.434 4.544 4.724 4.344 3.854 4.294 3.894 2.964
1051.293 3.124 2.964 2.834 3.064 2.534 3.064 4.534 4.994 4.974 6.224
1070.583 7.834 8.844 10.574 12.004 13.404 15.414 15.904 16.444 17.494 17.424
1089.873 16.044 14.124 12.404 10.454 7.924 6.734 5.944 5.584 5.364 5.114
1109.163 4.584 3.694 4.344 3.814 3.804 5.884 7.184 6.814 8.124 9.854
1128.452 9.674 9.754 9.994 9.614 9.874 10.484 11.034 10.934 11.394 11.794
1147.742 12.304 14.884 17.324 19.984 22.634 25.354 27.514 28.754 29.084 28.904
1167.032 28.454 27.004 24.154 21.284 19.414 17.674 16.054 14.594 13.904 14.684
1186.322 16.734 18.914 21.274 22.484 23.394 24.554 23.974 23.534 22.634 21.204
1205.611 18.414 13.394 11.074 9.604 7.564 6.764 6.754 6.924 6.284 5.494
1224.901 4.734 4.904 5.214 5.734 6.734 7.814 8.964 9.034 9.244 10.254
1244.191 10.074 9.014 8.824 8.274 7.724 7.164 6.644 6.614 6.564 7.584
1263.481 7.984 8.534 9.824 11.394 12.514 13.494 14.964 16.094 17.254 18.494
1282.771 20.014 21.694 23.164 24.594 26.304 27.754 28.844 29.824 30.314 30.004
1302.060 28.874 27.114 24.694 21.834 18.804 15.444 12.444 9.964 7.954 6.624
1321.350 5.694 4.774 4.064 3.674 3.344 3.124 2.884 2.764 2.564 2.414
1340.640 2.404 2.204 2.124 2.134 2.124 2.174 2.104 1.974 1.854 1.854
1359.930 1.884 1.964 2.234 2.454 2.614 2.894 3.264 3.654 4.014 4.414
1379.219 4.864 5.134 5.374 5.604 5.744 5.844 5.764 5.534 5.164 4.804
1398.509 4.444 4.114 3.794 3.614 3.514 3.184 2.884 2.804 2.744 2.624
1417.799 2.714 2.914 3.144 3.384 3.624 4.134 4.834 5.544 6.404 7.344
1437.089 8.224 9.094 9.894 10.644 11.294 11.834 12.234 12.584 12.894 13.234
1456.378 13.594 13.864 14.134 14.344 14.204 14.024 14.144 14.114 14.324 15.064
1475.668 16.064 17.464 19.384 22.164 25.954 30.904 37.144 44.694 52.754 59.984
1494.958 65.334 68.004 68.034 65.664 61.154 54.294 45.304 36.104 27.814 21.054
1514.248 16.244 12.814 10.094 8.014 6.514 5.574 4.794 4.504 4.044 3.444
1533.538 3.294 2.974 2.664 2.424 2.384 2.374 2.164 2.144 2.024 1.834
1552.827 1.814 1.724 1.624 1.514 1.544 1.684 1.704 1.664 1.564 1.534
1572.117 1.774 1.804 1.654 1.664 1.614 1.694 1.664 1.824 2.144 2.254
1591.407 2.254 2.214 2.124 2.484 2.994 2.874 2.984 3.674 4.074 4.484
1610.697 5.214 5.994 6.734 7.404 8.194 8.934 9.644 10.164 10.504 10.664
1629.986 10.614 10.284 9.724 9.094 8.654 8.304 7.714 7.134 6.374 5.634
1649.276 5.354 4.964 4.354 4.154 3.974 3.854 3.824 3.484 3.244 3.064
1668.566 2.814 2.774 2.664 2.564 2.524 2.354 2.174 2.054 2.044 2.074
1687.856 2.024 2.004 2.124 2.064 1.804 1.854 1.894 1.814 1.944 2.174
1707.146 2.184 2.084 2.204 2.154 2.044 2.094 2.244 2.354 2.204 1.954
1726.435 1.894 2.054 2.084 2.064 2.254 2.294 2.144 2.184 2.494 2.564
1745.725 2.514 2.724 2.794 2.974 3.414 3.524 3.574 3.914 4.104 4.404
1765.015 4.894 5.264 5.744 6.214 6.864 7.604 8.284 9.074 9.984 10.984
1784.305 11.974 12.914 13.944 15.014 16.124 17.694 19.614 21.634 23.964 26.874
1803.594 30.024 33.354 37.044 40.694 43.944 47.024 50.054 53.224 56.904 61.434
1822.884 67.434 75.984 87.714 102.554 119.504 136.334 150.744 160.894 166.444 167.414
1842.174 163.624 154.424 139.714 121.384 103.234 88.224 76.384 66.594 58.014 50.144
1861.464 42.524 35.584 29.674 24.634 20.464 17.284 14.974 13.174 11.544 10.254
1880.754 9.304 8.444 7.654 7.154 6.684 6.094 5.634 5.214 4.954 4.634
1900.043 4.214 3.974 3.774 3.454 3.164 3.044 2.994 2.844 2.794 2.944
1919.333 2.944 2.904 2.964 2.854 2.804 2.844 2.714 2.664 2.494 2.344
1938.623 2.314 2.214 2.154 2.094 1.994 1.934 1.904 1.894 1.804 1.754
1957.913 1.754 1.714 1.734 1.694 1.644 1.594 1.554 1.534 1.444 1.394
1977.202 1.334 1.254 1.264 1.1725 1.103 1.214 1.166 1.0253 1.0203 1.224
1996.492 1.234 1.0481 1.1068 1.0849 1.0361 1.0501 1.1099 1.1483 1.1415 1.234
2015.782 1.224 1.254 1.384 1.534 1.484 1.434 1.474 1.494 1.314 1.274
2035.072 1.514 1.434 1.384 1.374 1.344 1.424 1.284 1.0316 0.9312 0.9256
2054.362 1.083 1.1308 1.1265 1.0603 0.9343 0.9916 0.9727 0.9175 0.9195 0.9028
2073.651 0.8831 0.8485 0.818 0.6905 0.667 0.6396 0.6181 0.5437 0.4952 0.6881
2092.941 0.9235 0.7995 0.6602 0.832 0.7682 0.5982 0.5404 0.6664 0.7936 0.6751
2112.231 0.6112 0.7342 0.698 0.6265 0.5807 0.5856 0.6497 0.5499 0.6354 0.6829
2131.521 0.5614 0.6232 0.6683 0.6099 0.5837 0.625 0.662 0.7324 0.9083 0.867
2150.810 0.7417 0.7832 0.9384 1.085 1.098 0.9307 0.9231 1.0389 0.9336 0.8724
2170.100 0.8601 0.7907 0.8559 0.9871 0.92 0.9374 1.019 0.9604 0.7843 0.8345
2189.390 0.9051 0.9248 0.9285 0.8298 0.753 0.8171 1.012 1.0255 0.9798 1.1027
2208.680 1.254 1.234 1.204 1.204 1.284 1.414 1.294 1.0791 1.1351 1.264
2227.970 1.284 1.204 1.0799 1.204 1.304 1.424 1.624 1.724 1.634 1.454
2247.259 1.454 1.444 1.364 1.394 1.354 1.494 1.564 1.374 1.284 1.264
2266.549 1.514 1.554 1.314 1.384 1.554 1.684 1.654 1.484 1.424 1.214
2285.839 1.1208 1.114 0.9906 1.0402 1.0587 0.9879 0.7848 0.6767 0.7318 0.741
2305.129 0.7539 0.8449 0.8708 0.8499 0.8287 0.7793 0.871 0.8718 0.8704 0.9975
2324.418 1.0447 0.9637 0.9242 0.8627 0.9289 1.0496 0.946 0.9121 0.8153 0.703
2343.708 0.8876 0.8483 0.8432 1.1333 1.244 1.0177 0.9593 1.0024 0.908 0.9238
2362.998 0.8037 0.8668 1.0076 0.9729 1.0115 1.1087 1.1318 1.0826 1.1125 1.0448
2382.288 0.9461 1.0099 0.9288 0.7374 0.8308 0.9613 0.9446 0.8529 0.8555 0.8505
2401.578 0.8256 0.9319 0.9219 0.8484 0.8738 0.9711 0.9246 0.9001 0.9443 0.8538
2420.867 0.875 0.8205 0.9162 0.9327 0.6969 0.7785 0.8358 0.8323 0.7323 0.7482
2440.157 0.9 0.8859 0.7182 0.5949 0.6218 0.6919 0.6774 0.5711 0.6198 0.7394
2459.447 0.707 0.6792 0.5635 0.5007 0.6722 0.6383 0.587 0.7691 0.6656 0.5844
2478.737 0.7066 0.7772 0.8355 0.6996 0.5416 0.6224 0.6621 0.6684 0.7194 0.7092
2498.026 0.7971 0.7711 0.6304 0.5171 0.5807 0.5869 0.6018 0.6716 0.798 0.841
2517.316 0.741 0.7623 0.6195 0.5839 0.758 0.7867 0.5256 0.605 0.6418 0.5527
2536.606 0.87 0.9214 0.7993 0.6713 0.6383 0.6164 0.6114 0.7522 0.7907 0.6227
2555.896 0.5017 0.7211 0.9263 0.8121 0.7485 0.742 0.8183 0.8692 0.6381 0.588
2575.186 0.5395 0.3344 0.507 0.7398 0.7531 0.7126 0.7394 0.7805 0.7431 0.9167
2594.475 0.922 0.6975 0.5726 0.5568 0.6935 0.6244 0.492 0.5302 0.4609 0.5148
2613.765 0.7681 0.7497 0.5867 0.5634 0.6072 0.7205 0.5941 0.5271 0.5758 0.539
2633.055 0.5288 0.675 0.6125 0.5341 0.5464 0.5173 0.6156 0.5443 0.5784 0.4776
2652.345 0.2921 0.3891 0.563 0.8717 0.9416 0.6742 0.714 0.74 0.7817 0.8346
2671.634 0.6899 0.7234 0.7014 0.4645 0.4904 0.5177 0.4537 0.496 0.5103 0.5116
2690.924 0.6155 0.4354 0.3893 0.5324 0.4463 0.6072 0.5586 0.3963 0.4553 0.5911
2710.214 0.608 0.8111 0.6437 0.4853 0.729 0.6222 0.5416 0.5873 0.6351 0.558
2729.504 0.5257 0.4654 0.572 0.57 0.4595 0.5128 0.6142 0.8058 0.6958 0.5683
2748.794 0.6216 0.4141 0.3137 0.637 0.6072 0.4025 0.5758 0.7532 0.6905 0.6294
2768.083 0.6882 0.6205 0.6404 0.6873 0.7012 0.6363 0.4794 0.6111 0.8034 0.6011
2787.373 0.505 0.6102 0.5518 0.477 0.7283 0.9308 0.8386 0.8778 0.8167 0.9511
2806.663 1.0308 1.0265 1.1591 1.0914 1.234 1.394 1.394 1.414 1.704 1.894
2825.953 1.774 1.674 1.864 2.474 2.904 3.284 3.344 3.484 3.734 3.954
2845.242 4.304 4.314 4.304 4.084 3.764 3.644 3.384 2.894 2.534 2.414
2864.532 2.294 2.214 2.064 1.784 1.814 2.044 2.274 2.344 2.364 2.334
2883.822 2.254 2.304 2.354 2.504 2.534 2.554 2.634 2.724 2.864 2.864
2903.112 2.894 3.054 3.294 3.294 3.494 3.694 3.644 3.744 3.874 3.794
2922.401 3.584 3.824 4.084 4.304 4.484 4.674 4.904 5.124 5.404 5.524
2941.691 5.604 5.924 6.234 6.334 6.344 6.204 6.164 6.034 5.704 5.424
2960.981 5.174 4.834 4.644 4.414 4.014 3.754 3.494 3.374 3.464 3.464
2980.271 3.394 3.264 2.954 2.684 2.754 2.934 2.914 2.944 3.174 3.574
2999.561 3.934 4.374 4.954 5.174 5.224 5.224 5.134 5.214 4.994 4.254
3018.850 3.534 3.074 2.264 1.734 1.724 1.624 1.744 1.714 1.454 1.254
3038.140 1.364 1.494 1.514 1.724 1.974 2.154 2.074 1.734 1.784 1.884
3057.430 1.624 1.704 1.774 1.724 1.904 1.894 1.964 2.264 2.334 2.404
3076.720 2.284 1.784 1.854 1.994 2.104 2.304 1.904 1.794 1.944 1.854
3096.009 1.594 1.354 1.304 1.0094 1.0414 1.184 1.0493 0.9467 0.8445 0.9296
3115.299 0.7949 0.7086 0.9333 0.9553 0.9489 1.072 0.9017 0.7581 0.9808 0.789
3134.589 0.4554 0.5396 0.6243 0.6197 0.7846 0.846 0.7694 0.6449 0.7207 0.7735
3153.879 0.6191 0.5117 0.4258 0.4751 0.6179 0.8032 0.6814 0.5057 0.7972 0.8361
3173.169 0.4706 0.27842 0.6052 0.8413 0.623 0.5867 0.3399 0.4219 0.6455 0.544
3192.458 0.6412 0.4786 0.4289 0.5862 0.497 0.385 0.4711 0.6655 0.8454 0.8557
3211.748 0.6256 0.4609 0.7096 0.8771 0.8238 0.7099 0.8074 0.64 0.3948 0.4813
3231.038 0.596 0.7915 0.7018 0.6628 0.747 0.7128 0.5427 0.3342 0.4937 0.676
3250.328 0.652 0.6859 0.5879 0.3956 0.4269 0.7638 0.8298 0.523 0.4241 0.811
3269.617 1.0012 0.7796 0.7026 0.685 0.5161 0.5776 0.7044 0.6031 0.6795 0.7621
3288.907 0.5346 0.7215 0.9593 0.6706 0.4107 0.3294 0.3168 0.20512 0.52 0.9436
3308.197 0.7876 0.561 0.637 0.4365 0.5943 0.6212 0.3364 0.561 0.5108 0.4999
3327.487 0.8168 0.8199 0.7161 0.6279 0.3518 0.5622 0.8603 0.6359 0.4092 0.5419
3346.777 0.5996 0.7002 0.5693 0.3607 0.3004 0.24995 0.071 0.21542 0.516 0.2846
3366.066 0.5222 0.7274 0.6146 0.5124 0.26685 0.3697 0.8565 0.7167 0.3716 0.3256
3385.356 0.4406 0.7717 0.8717 0.5706 0.5164 0.5841 0.331 0.24581 0.367 0.3609
3404.646 0.5889 0.6929 0.6383 0.9528 0.7004 0.5001 0.7773 0.7029 0.4116 0.1315
3423.936 0.4702 0.9041 0.7516 0.5635 0.6037 0.5465 0.4824 0.5471 0.6366 0.5872
3443.225 0.29 0.3727 0.7264 0.9173 0.7363 0.5003 0.8073 1.194 0.9547 0.8341
3462.515 0.8786 0.9721 1.214 1.474 1.564 1.424 1.274 1.374 1.714 2.064
3481.805 2.444 2.894 3.284 3.474 3.924 4.624 5.824 6.944 7.774 8.914
3501.095 10.484 11.684 12.504 13.744 14.734 14.944 14.714 14.184 13.344 12.554
3520.385 11.224 9.654 8.394 7.164 5.784 4.654 3.954 3.364 2.754 2.284
3539.674 1.914 1.564 1.374 1.0723 0.9562 0.8016 0.6565 0.9147 1.0238 0.9811
3558.964 0.9829 1.0703 1.058 0.9624 0.8292 0.84 0.8461 0.6875 0.5933 0.7867
3578.254 1.0511 0.8077 0.3719 0.38 0.5003 0.3627 0.4357 0.4591 0.5825 0.7994
3597.544 0.7904 0.9522 1.344 1.0271 0.9774 1.194 1.086 0.9438 0.6612 0.7948
3616.833 1.0497 1.0745 0.9391 0.973 1.0863 1.0167 1.1827 1.384 0.963 1.093
3636.123 1.374 1.474 1.624 1.444 1.444 1.824 1.814 1.664 1.874 1.914
3655.413 1.634 1.424 1.364 1.324 1.224 1.314 1.494 1.1784 0.803 0.6959
3674.703 0.8253 0.9914 1.15 1.374 1.274 1.0385 1.224 1.284 0.9435 0.9348
3693.993 0.8761 0.8129 0.9347 0.7566 0.7297 0.8624 0.9253 1.0346 0.6773 0.4861
3713.282 0.616 0.6743 0.7996 0.7665 0.7053 0.6569 0.4282 0.038 0.285 0.6047
3732.572 0.7065 0.6256 0.4421 0.605 0.7419 0.4176 0.2917 0.5033 0.5551 0.7341
3751.862 0.8391 0.4336 0.5023 0.7165 0.3679 0.4313 0.5777 0.5305 0.3844 0.3832
3771.152 0.4635 0.3816 0.24004 0.3351 0.4489 0.1244 0.044 0.3606 0.3668 0.3883
3790.441 0.5418 0.5926 0.6614 0.5486 0.26977 0.3091 0.6132 0.4651 0 0.1584
3809.731 0.6464 0.7727 0.614 0.5136 0.3927 0.1639 0.27256 0.3733 0.007 0.2941
3829.021 0.5884 0.5983 0.7341 0.5068 0.7994 0.8054 0.7713 1.017 0.9275 0.8015
3848.311 0.7832 0.7699 0.6367 0.4647 0.5486 0.6427 0.5921 0.5071 0.2891 0.4922
3867.601 1.013 1.1402 0.9087 0.7332 0.685 0.6609 0.8668 0.9734 0.6202 0.7148
3886.890 0.8191 0.5012 0.6689 0.9835 1.1528 0.8157 0.2453 0.27743 0.3394 0.3836
3906.180 0.7309 0.8768 0.6169 0.4966 0.7205 0.9172 0.8703 0.8615 0.9882 0.7609
3925.470 0.5193 0.3385 0.1513 0.665 0.8576 0.5399 0.7914 1.0607 0.9665 0.7807
3944.760 0.5057 0.3329 0.5632 0.8366 0.9913 0.8689 0.6047 0.7842 0.9994 0.7699
3964.049 0.3151 0.23884 0.4272 0.4874 0.6648 0.8335 0.5854 0.4526 0.7081 0.8633
3983.339 0.758 0.7158 0.6205 0.7687 0.6011 0.23578 0.5867 0.6671 0.6008 0.9078
##END=
