##TITLE=Benzoylisothiocyanate
##JCAMP-DX=4.24
##DATA TYPE=INFRARED SPECTRUM
##ORIGIN=EPA-IR VAPOR PHASE LIBRARY
##OWNER=SRD/NIST
Collection (C) 2018 copyright by the U.S. Secretary of Commerce
on behalf of the United States of America. All rights reserved.
##CAS REGISTRY NO=532-55-8
##MOLFORM=C 8 H 5 N O S
##$NIST SOURCE=MSDC-IR
##STATE=gas
##XUNITS=1/CM
##YUNITS=ABSORBANCE
##XFACTOR=1.
##YFACTOR=0.001
##DELTAX=3.85796
##FIRSTX=551.7
##LASTX=4000.7
##FIRSTY=3.08
##MAXX=4000.7
##MINX=551.688
##MAXY=0.70633
##MINY=0.0001987
##NPOINTS=895
##XYDATA=(X++(Y..Y))
551.688 3.08 3.17 3.33 3.45 3.34 3.15 2.94 2.92 2.86 2.87
590.268 3.1 3.35 3.73 4.35 5.35 7.03 8.8 10.57 12.74 15
628.847 18.16 22.92 29.03 36.05 43.42 49.95 55.18 60.64 67.34 75.05
667.427 83.18 89.63 93.25 96.57 103.5 113.36 124.89 137.31 135.38 117.27
706.006 94.55 69.75 48.16 32.99 23.27 17.3 13.6 11.02 9.05 7.65
744.586 6.67 6.04 5.7 5.56 5.56 5.7 6.05 6.7 7.52 8.4
783.165 9.44 10.5 11.12 11.03 10.49 9.71 8.77 8.44 9.17 10.77
821.745 13.81 19.14 27.98 41.75 60.72 82.93 104.42 121.91 134.71 144.74
860.324 153.38 157.25 151.9 135.53 110.12 83.2 61.67 47.44 39.1 34.57
898.904 32.31 31.29 30.81 30.44 29.98 29.21 28.06 26.8 25.67 24.64
937.484 23.74 23.06 22.52 22.16 22.16 22.56 23.32 24.19 24.6 24.16
976.063 22.84 20.94 19.01 17.46 16.97 17.7 17.88 17.42 16.7 15.61
1014.643 16.83 20.42 22.15 21.31 18.93 15.21 13.56 14.81 17.93 23
1053.222 30.11 38.87 47.71 55.77 63.97 72.81 81.23 86.43 85.24 76.57
1091.802 62 46.47 34.05 25.38 19.81 16.08 13.73 12.45 11.63 10.99
1130.381 10.48 10.19 10.37 11.05 12 13.3 15.06 17.05 20.27 27.38
1168.961 44.98 73.19 92.12 95.59 83.48 55.23 34.58 30.39 35.19 46.28
1207.540 64.77 93.38 134.44 187.31 245.25 296.47 331.89 351.92 363.83 373.31
1246.120 376.27 359.95 315.22 245.69 168.25 107.15 71.74 52.25 39.95 31.4
1284.699 25.34 21.29 19.01 18.35 19.06 20.89 22.95 23.01 20.7 16.97
1323.279 12.54 9.48 8.4 8.16 8 7.73 7.34 6.85 6.22 5.5
1361.859 4.95 4.76 4.84 5.04 5.28 5.47 5.5 5.32 4.97 4.57
1400.438 4.26 4.1 4.03 4.01 4.09 4.19 4.37 4.77 5.66 7.49
1439.018 11.04 17.12 24.54 28.19 27.29 22.61 14.77 9.03 6.92 6.2
1477.597 6.23 6.71 7.37 7.76 7.83 7.69 7.15 6.55 6.29 6.28
1516.177 6.37 6.49 6.61 6.72 6.78 6.87 6.96 7.11 7.33 7.67
1554.756 8.2 8.91 9.86 11.08 12.78 14.94 17.48 19.82 21.87 23.87
1593.336 25.63 26.29 25.17 22.09 17.28 13 10.85 9.96 9.49 9.03
1631.915 8.6 8.21 7.98 7.99 8.23 8.63 9.23 10 11.16 12.8
1670.495 15.08 18.01 21.76 26.46 32.79 40.78 51.82 67.41 89.16 117.76
1709.075 154.17 195.28 235.75 266.02 278.42 272.98 249.16 210.48 168.28 129.4
1747.654 99.08 77.05 62.12 51.53 43.45 37.06 31.87 27.56 24.05 21.04
1786.234 18.5 16.53 15.16 14.3 13.89 13.62 13.23 12.59 11.78 11.02
1824.813 10.58 10.57 10.94 11.64 12.67 14.07 15.86 18.07 20.84 24.16
1863.393 28.12 32.74 38.13 44.22 51.13 58.89 67.53 77.08 87.69 99.64
1901.972 113.34 129.3 148.18 169.95 193.89 218.23 240.6 259.18 273.28 284.14
1940.552 294.23 305.71 320.1 339.66 367.47 407.59 462.82 532.09 607.17 671.56
1979.131 706.33 699.65 653.81 590.09 533.21 493.37 469.78 458.24 453.19 449.56
2017.711 443.54 431.39 409.12 375.61 334.67 291.98 251.96 216.62 185.98 159.54
2056.291 137.15 118.73 103.93 92.31 83.48 77.06 72.67 69.76 67.71 65.91
2094.870 63.95 61.65 58.92 55.79 52.33 48.64 44.99 41.72 39.07 37.12
2133.450 35.79 34.86 34.11 33.3 32.38 31.34 30.28 29.23 27.97 26.31
2172.029 24.27 21.96 19.63 17.49 15.63 14.04 12.64 11.42 10.37 9.49
2210.609 8.76 8.13 7.6 7.13 6.71 6.38 6.11 5.88 5.7 5.58
2249.188 5.53 5.54 5.59 5.69 5.79 5.88 6.01 6.19 6.4 6.62
2287.768 6.85 7.07 7.32 7.54 7.66 7.68 7.58 7.47 7.35 7.13
2326.347 6.84 6.45 5.99 5.57 5.11 4.68 4.24 3.82 3.49 3.25
2364.927 3.06 2.91 2.8 2.74 2.68 2.63 2.63 2.66 2.72 2.81
2403.507 2.89 2.97 3.07 3.14 3.2 3.25 3.29 3.32 3.35 3.44
2442.086 3.54 3.6 3.66 3.68 3.68 3.67 3.65 3.65 3.64 3.61
2480.666 3.58 3.59 3.59 3.55 3.53 3.5 3.49 3.53 3.6 3.68
2519.245 3.77 3.88 3.97 4 3.97 3.85 3.68 3.46 3.26 3.08
2557.825 2.88 2.73 2.67 2.64 2.65 2.72 2.82 2.9 3.01 3.14
2596.404 3.25 3.33 3.43 3.52 3.64 3.82 4.02 4.18 4.3 4.39
2634.984 4.47 4.56 4.63 4.7 4.79 4.9 5.04 5.21 5.41 5.65
2673.563 5.87 6.06 6.23 6.4 6.54 6.56 6.45 6.22 5.81 5.28
2712.143 4.7 4.14 3.62 3.2 2.88 2.66 2.48 2.31 2.2 2.09
2750.722 2.02 1.96 1.89 1.9 1.96 1.99 2.01 2 1.96 1.95
2789.302 1.94 1.93 1.96 2.02 2.06 2.16 2.29 2.44 2.63 2.82
2827.882 2.94 3.03 3.12 3.16 3.14 3.07 2.94 2.74 2.57 2.48
2866.461 2.43 2.39 2.44 2.5 2.53 2.54 2.54 2.57 2.54 2.49
2905.041 2.45 2.39 2.36 2.3 2.25 2.25 2.21 2.18 2.17 2.12
2943.620 2.03 1.94 1.87 1.8 1.8 1.8 1.83 1.86 1.85 1.86
2982.200 1.86 1.83 1.8 1.84 1.96 2.12 2.31 2.56 2.88 3.25
3020.779 3.75 4.45 5.41 6.54 7.71 8.77 9.54 9.95 10.24 10.83
3059.359 12.12 14.39 17.67 21.59 24.06 23.94 22.14 18.63 15.37 13.85
3097.938 12.64 10.85 8.6 6.54 4.87 3.52 2.5 1.89 1.54 1.27
3136.518 1.07 1.01 0.9886 0.9589 0.9866 1.05 1.11 1.16 1.16 1.05
3175.098 0.9206 0.8154 0.6842 0.582 0.5218 0.4974 0.5131 0.5015 0.4905 0.4661
3213.677 0.4008 0.3673 0.3504 0.3237 0.2778 0.2848 0.2871 0.2351 0.217 0.1987
3252.257 0.2189 0.2118 0.2088 0.2267 0.2068 0.2083 0.2461 0.2884 0.2668 0.2831
3290.836 0.3378 0.3381 0.3823 0.4895 0.5609 0.5802 0.6295 0.7151 0.7288 0.6847
3329.416 0.6689 0.6315 0.5945 0.5944 0.5475 0.485 0.4993 0.5573 0.5842 0.63
3367.995 0.7232 0.8229 0.9255 0.94 0.9405 1.09 1.29 1.44 1.67 2.01
3406.575 2.43 2.83 3.26 3.66 3.95 4.17 4.25 4.12 3.82 3.47
3445.154 3.12 2.78 2.44 2.15 1.95 1.76 1.59 1.43 1.3 1.25
3483.734 1.24 1.22 1.2 1.12 1.04 1 0.9746 0.92 0.8842 0.9112
3522.314 0.9342 0.9489 0.9789 0.9799 1.01 0.9802 0.94 0.986 0.9658 0.911
3560.893 0.8419 0.7735 0.6995 0.6704 0.6572 0.6139 0.6048 0.6244 0.6163 0.5919
3599.473 0.5521 0.5084 0.5651 0.6096 0.567 0.5624 0.6197 0.6514 0.6541 0.6754
3638.052 0.6943 0.6786 0.6473 0.6973 0.8082 0.8316 0.8122 0.8018 0.7977 0.8031
3676.632 0.8201 0.8117 0.7793 0.8004 0.845 0.8712 0.8897 0.9444 0.94 0.9434
3715.211 0.9837 0.9396 0.9287 0.9358 0.9521 0.9172 0.879 0.928 0.9509 0.946
3753.791 0.9271 0.9582 1.01 1.06 1.1 1.15 1.2 1.23 1.28 1.33
3792.370 1.4 1.4 1.36 1.41 1.51 1.59 1.62 1.66 1.73 1.8
3830.950 1.86 1.94 2.04 2.06 2.14 2.32 2.41 2.38 2.42 2.46
3869.530 2.51 2.57 2.6 2.65 2.65 2.67 2.73 2.72 2.73 2.8
3908.109 2.85 2.85 2.8 2.78 2.83 2.91 2.96 3.01 3 3.07
3946.689 3.15 3.14 3.17 3.14 3.13 3.18 3.15 3.07 2.99 2.94
3985.268 2.94 2.9 2.83 2.79 2.8
##END=
