##TITLE=.alpha.-Chloroacetophenone
##JCAMP-DX=4.24
##DATA TYPE=INFRARED SPECTRUM
##ORIGIN=NIST Mass Spectrometry Data Center
##OWNER=NIST Standard Reference Data Program
Collection (C) 2018 copyright by the U.S. Secretary of Commerce
on behalf of the United States of America. All rights reserved.
##CAS REGISTRY NO=532-27-4
##MOLFORM=C 8 H 7 Cl O
##$NIST SOURCE=MSDC-IR
##SPECTROMETER/DATA SYSTEM=HP-GC/MS/IRD
##STATE=gas
##XUNITS=1/CM
##YUNITS=ABSORBANCE
##XFACTOR=1.0
##YFACTOR=0.000012700
##DELTAX=4.0
##FIRSTX=550.0
##LASTX=3846.0
##FIRSTY=0.013030
##MAXX=3846
##MINX=550
##MAXY=0.127
##MINY=0
##NPOINTS=825
##XYDATA=(X++(Y..Y))
550.0 1026 1761 1266 968 653 448 318 250 211 197
590.0 198 210 229 262 314 376 446 511 603 775
630.0 1108 1754 2649 3289 3414 3174 2593 1928 1543 1493
670.0 1716 2160 2704 3232 3756 3746 3166 2607 2080 1629
710.0 1344 1242 1255 1322 1377 1414 1461 1551 1679 1796
750.0 1809 1729 1647 1575 1494 1404 1294 1170 1141 1276
790.0 1507 1728 1847 1811 1574 1212 862 576 362 223
830.0 143 102 74 49 31 14 3 3 6 10
870.0 16 16 12 12 16 21 32 50 72 92
910.0 112 131 145 152 157 153 136 113 86 68
950.0 67 77 92 116 149 197 272 378 511 651
990.0 785 917 1044 1201 1484 1827 2025 1982 1721 1275
1030.0 837 633 588 551 453 314 222 192 193 199
1070.0 202 198 187 173 165 175 185 188 187 182
1110.0 175 173 192 248 354 527 715 837 882 843
1150.0 726 598 532 535 594 742 1051 1407 1639 1820
1190.0 1987 2167 2457 2736 2781 2499 1988 1563 1401 1419
1230.0 1526 1696 1948 2290 2624 2892 3166 3559 4257 5432
1270.0 6813 7678 7575 6584 4977 3345 2323 1865 1672 1617
1310.0 1592 1517 1383 1176 924 712 565 460 372 299
1350.0 239 197 174 164 159 161 162 160 157 157
1390.0 163 180 214 271 338 410 497 606 757 974
1430.0 1225 1451 1671 1871 1903 1766 1556 1175 740 468
1470.0 336 262 221 199 190 187 180 170 153 139
1510.0 128 122 123 126 127 123 119 117 115 118
1550.0 128 150 188 247 335 457 595 725 837 950
1590.0 1063 1163 1208 1168 1020 770 523 377 308 270
1630.0 250 249 264 294 341 401 477 563 665 790
1670.0 949 1175 1540 2149 3143 4599 6473 8327 9516 10000
1710.0 9689 8322 6530 5035 3953 3203 2536 1890 1397 1052
1750.0 821 670 575 506 450 402 352 306 269 244
1790.0 239 256 288 313 314 293 256 211 171 145
1830.0 125 108 92 80 73 72 71 72 76 81
1870.0 90 100 112 127 142 153 164 168 165 161
1910.0 155 143 128 115 103 94 93 104 125 152
1950.0 180 199 212 220 216 199 171 138 107 79
1990.0 62 56 54 52 48 44 39 36 36 34
2030.0 32 28 26 24 25 26 26 28 27 25
2070.0 21 16 13 10 9 9 8 8 5 3
2110.0 4 6 7 4 2 4 4 3 5 7
2150.0 8 9 9 10 12 14 16 16 14 13
2190.0 11 10 8 8 10 11 10 9 11 11
2230.0 13 12 13 17 19 19 20 23 25 28
2270.0 33 35 37 38 38 37 35 33 31 34
2310.0 43 55 64 67 68 60 53 53 52 49
2350.0 45 38 31 27 26 25 21 19 20 19
2390.0 20 21 22 24 28 29 29 26 23 20
2430.0 16 16 14 13 12 11 12 13 14 12
2470.0 10 12 12 12 14 14 16 16 17 19
2510.0 18 19 20 18 17 19 18 17 19 19
2550.0 15 14 14 12 11 12 13 18 24 27
2590.0 28 29 29 29 29 27 26 23 18 14
2630.0 12 10 8 7 6 6 5 3 4 7
2670.0 9 12 16 18 20 18 16 17 14 12
2710.0 11 11 17 21 22 23 24 22 20 19
2750.0 18 15 13 14 16 16 18 20 19 17
2790.0 17 19 25 29 31 33 30 28 28 30
2830.0 33 37 45 54 65 76 81 83 83 81
2870.0 82 82 77 75 77 77 73 71 71 73
2910.0 81 92 108 129 153 182 230 299 386 479
2950.0 550 591 608 606 599 581 517 433 349 271
2990.0 214 181 171 178 203 241 295 380 483 586
3030.0 691 783 847 876 881 897 949 1065 1274 1558
3070.0 1809 1906 1875 1739 1503 1303 1181 1059 897 704
3110.0 532 388 272 185 132 101 84 75 70 69
3150.0 70 76 77 71 62 51 40 30 22 20
3190.0 22 18 12 11 10 8 4 2 2 0
3230.0 0 2 3 0 0 3 0 0 3 1
3270.0 1 4 6 6 8 10 8 9 9 7
3310.0 6 10 11 12 13 13 15 16 18 23
3350.0 28 33 39 53 66 81 106 133 156 172
3390.0 177 172 158 137 116 97 84 80 77 72
3430.0 70 65 61 54 43 35 30 28 29 28
3470.0 19 13 15 16 14 15 9 6 8 13
3510.0 14 11 8 7 8 6 7 5 8 13
3550.0 12 14 15 11 12 7 1 5 9 6
3590.0 4 4 6 9 9 10 11 10 9 9
3630.0 14 19 17 17 25 23 20 20 18 21
3670.0 23 18 16 16 18 22 24 28 32 32
3710.0 34 31 28 31 26 22 24 24 25 21
3750.0 20 18 16 20 19 18 19 21 27 25
3790.0 21 21 22 22 21 21 22 22 22 19
3830.0 18 20 18 15 11
##END=
