##TITLE=3-Ethoxy-2-cyclohexene-1-one
##JCAMP-DX=4.24
##DATA TYPE=INFRARED SPECTRUM
##ORIGIN=EPA-IR VAPOR PHASE LIBRARY
##OWNER=SRD/NIST
Collection (C) 2018 copyright by the U.S. Secretary of Commerce
on behalf of the United States of America. All rights reserved.
##CAS REGISTRY NO=5323-87-5
##MOLFORM=C 8 H 12 O 2
##$NIST SOURCE=MSDC-IR
##STATE=gas
##XUNITS=1/CM
##YUNITS=ABSORBANCE
##XFACTOR=1.
##YFACTOR=0.001
##DELTAX=1.929
##FIRSTX=549.8
##LASTX=4000.8
##FIRSTY=2.75
##MAXX=4000.75
##MINX=549.766
##MAXY=0.21442
##MINY=0
##NPOINTS=1790
##XYDATA=(X++(Y..Y))
549.766 2.75 2.4574 2.2294 1.9334 1.7862 1.6749 1.55307 1.52292 1.5882 1.5889
569.056 1.46983 1.6007 2.0349 2.51 3.2 4.01 4.56 5.32 6.37 7.12
588.346 8.11 9.32 10.23 10.88 11.24 11.07 10.56 9.99 9 7.95
607.636 6.86 5.64 4.24 2.92 2.064 1.604 1.3734 1.083 0.844 0.914
626.926 1.103 1.177 1.227 1.46287 1.9427 2.3005 2.68 3.17 3.8 4.44
646.216 4.79 5.06 5.37 5.34 5.18 5.06 4.79 4.35 3.73 2.99
665.506 2.4504 2.1399 1.9334 1.684 1.47379 1.371 1.225 1.18 1.218 1.149
684.796 1.012 1.045 1.082 0.906 0.804 0.803 0.854 0.866 0.787 0.769
704.086 0.827 0.947 0.928 0.827 0.784 0.79 0.824 0.782 0.817 0.783
723.376 0.74 0.799 0.956 1.143 1.135 1.166 1.3804 1.7107 1.8709 2.201
742.666 2.8 3.5 3.98 4.28 4.56 4.51 4.34 4.38 4.59 4.58
761.956 4.15 3.68 3.13 2.51 2.1745 1.8339 1.5868 1.5666 1.53716 1.4387
781.246 1.325 1.306 1.4 1.4422 1.4327 1.54466 1.8461 2.157 2.5 2.85
800.536 3.36 4.13 4.94 5.92 6.92 8.05 9.41 10.99 12.8 14.4
819.826 15.18 15.51 16.11 16.76 17.43 17.52 16.57 15.43 14.46 13.54
839.116 12.65 11.71 10.96 10.4 9.85 9.57 9.6 9.76 10.17 10.75
858.406 11.36 11.95 12.38 12.68 12.95 13.13 12.92 12.18 11.12 10.22
877.696 9.38 8.46 7.69 7.26 7.14 7.13 7.19 7.24 7.26 7.25
896.986 7.18 7.05 6.97 7.01 7.13 7.3 7.71 8.42 9.36 10.55
916.276 11.84 13.15 14.42 15.53 16.39 16.75 16.57 16.04 15.29 14.35
935.566 13.21 11.79 10.23 8.81 7.74 7.04 6.56 6.18 6.04 6.03
954.856 6.13 6.28 6.29 6.31 6.24 6.07 5.97 5.77 5.57 5.33
974.146 4.97 4.61 4.28 4.06 3.94 3.89 3.88 3.95 4.02 4.15
993.436 4.34 4.54 4.84 5.21 5.76 6.5 7.41 8.52 9.91 11.61
1012.726 13.63 16 18.65 21.45 24.17 26.66 28.77 30.31 31.06 31.05
1032.016 30.47 29.2 27.32 24.94 22.17 19.52 17.36 15.83 14.96 14.7
1051.306 14.66 14.58 14.41 14.06 13.8 13.62 13.18 12.42 11.28 10.11
1070.596 9.2 8.72 8.54 8.55 8.79 9.19 9.62 10.07 10.54 10.94
1089.886 11.44 11.91 12.32 12.86 13.44 14.09 14.98 16.08 17.29 18.48
1109.176 19.46 20.41 21.53 22.95 24.68 26.71 29.08 32.13 36.19 41.11
1128.467 45.93 49.52 51.56 52.61 52.81 51.84 50.34 47.94 44.03 39.5
1147.757 35.59 33.14 32.33 32.82 34.09 36.18 39.32 43.53 49.02 56.12
1167.047 65.28 76.95 91.11 107.12 123.11 136.62 145.58 149.66 150.28 148.22
1186.337 143.25 136 126.68 115.62 105.83 100.9 101.96 107.3 114.49 121.71
1205.627 127.65 131.4 132.31 130.22 124.81 115.77 103.97 91.13 79.01 68.68
1224.917 60.49 54.24 49.41 45.44 41.95 38.91 36.3 33.81 31.29 28.77
1244.207 25.94 22.97 20.24 17.86 16.07 14.87 13.92 12.98 12.28 11.67
1263.497 11.01 10.59 10.35 10.28 10.5 10.93 11.61 12.65 14.13 16.08
1282.787 18.51 21.37 24.49 27.71 30.96 34.28 37.83 41.3 44.36 46.81
1302.077 48.08 48.14 47.94 48.16 48.86 49.88 50.71 50.66 49.72 48.53
1321.367 47.49 46.66 45.77 44.72 43.49 41.71 39.64 38.34 38.52 39.97
1340.657 41.96 44.12 46.79 50.15 53.88 57.8 61.14 63.06 63.99 64.8
1359.947 65.8 67.09 68.57 69.93 70.81 70.91 70.03 68.2 65.74 63.21
1379.237 60.36 56.83 52.67 47.14 39.61 31.69 25.31 21.03 18.4 16.8
1398.527 15.89 15.23 14.73 14.41 14.16 13.91 13.76 13.78 13.95 14.19
1417.817 14.47 14.73 15.07 15.72 16.49 17.12 17.67 17.93 17.81 17.67
1437.107 17.42 16.89 16.38 15.87 15.32 14.96 15.01 15.46 16.05 16.46
1456.397 16.53 16.27 16.09 15.67 15.1 14.75 14.08 13.15 12.3 11.71
1475.687 11.37 11 10.54 10.14 9.91 9.68 9.22 8.61 7.87 7.15
1494.977 6.62 6.26 6 5.87 5.82 5.86 5.9 5.72 5.52 5.49
1514.267 5.37 5.17 4.98 4.78 4.58 4.36 4.26 4.2 4.16 4.18
1533.557 4.2 4.23 4.32 4.47 4.49 4.48 4.47 4.46 4.52 4.59
1552.847 4.74 4.87 5.03 5.27 5.38 5.5 5.72 6.04 6.53 7.14
1572.137 7.8 8.7 9.81 11.01 12.39 14 15.86 18.16 20.88 24.11
1591.427 28.19 33.55 40.47 49.67 61.85 77.62 97.14 119.97 144.52 168.36
1610.717 188.54 203.22 211.63 214.42 212.02 203.76 188.07 164.02 134.57 104.68
1630.007 79.67 61.38 48.91 40.21 34.22 30.38 27.8 26.23 25.39 24.9
1649.297 24.7 25.06 25.81 26.63 27.99 30.14 33 36.86 41.8 47.98
1668.587 55.98 65.84 77.54 91.63 108.47 126.66 146.22 164.93 181.61 194.55
1687.877 201.88 204.79 203.79 199.34 189.97 175.52 156.22 132.79 110.96 90.5
1707.167 73.23 59.26 48.24 39.61 32.9 27.59 23.3 19.97 17.46 15.42
1726.457 13.73 12.28 11.06 10.08 9.28 8.45 7.89 7.46 7.09 6.77
1745.747 6.51 6.29 6.09 5.93 5.76 5.63 5.53 5.44 5.43 5.4
1765.037 5.35 5.37 5.4 5.43 5.46 5.42 5.35 5.31 5.26 5.14
1784.327 5.04 4.9 4.73 4.53 4.35 4.22 4.05 3.83 3.64 3.47
1803.617 3.35 3.22 3.1 3.02 2.94 2.84 2.79 2.8 2.76 2.7
1822.907 2.7 2.74 2.73 2.71 2.66 2.62 2.59 2.55 2.56 2.55
1842.197 2.54 2.56 2.54 2.48 2.49 2.54 2.5 2.49 2.49 2.51
1861.487 2.56 2.54 2.47 2.49 2.48 2.4339 2.4499 2.4297 2.3705 2.3051
1880.777 2.2809 2.3015 2.2497 2.1721 2.158 2.1514 2.1266 2.0981 2.1045 2.0854
1900.067 2.0475 2.0475 2.0372 1.9744 1.9677 1.9741 1.9803 1.9839 1.967 1.9991
1919.357 2.0475 2.0553 2.0286 2.0541 2.1007 2.1225 2.1465 2.1482 2.117 2.0725
1938.647 2.0583 2.0644 1.97 1.8553 1.8581 1.8637 1.797 1.7533 1.7227 1.7233
1957.937 1.7623 1.7663 1.7277 1.6976 1.6826 1.6529 1.6761 1.6994 1.6454 1.5777
1977.227 1.5762 1.5814 1.54248 1.53591 1.54645 1.5718 1.577 1.5821 1.5869 1.5953
1996.517 1.6 1.6006 1.6364 1.6427 1.6248 1.5957 1.5824 1.5724 1.569 1.5674
2015.807 1.5898 1.5642 1.52295 1.50401 1.48555 1.50311 1.53487 1.5892 1.6506 1.6629
2035.097 1.6852 1.7704 1.7583 1.7155 1.7542 1.8195 1.8489 1.8644 1.9076 1.9467
2054.387 1.965 1.9924 1.9952 2.0293 2.0934 2.1099 2.0741 1.9821 1.9542 1.9797
2073.677 1.9837 1.9333 1.879 1.8319 1.7953 1.7761 1.7751 1.7255 1.7158 1.7811
2092.967 1.7613 1.7784 1.8266 1.8058 1.7761 1.7644 1.7593 1.7836 1.7815 1.8154
2112.257 1.8656 1.8555 1.865 1.8648 1.8332 1.8069 1.8225 1.8297 1.7857 1.7311
2131.547 1.6884 1.6714 1.6376 1.5686 1.51999 1.49174 1.49162 1.51296 1.48614 1.48398
2150.837 1.51504 1.50286 1.48914 1.49009 1.4626 1.4248 1.4429 1.48577 1.46281 1.4322
2170.127 1.4181 1.417 1.4338 1.453 1.46529 1.47376 1.48604 1.4467 1.4363 1.47037
2189.417 1.49293 1.5161 1.51151 1.52861 1.5802 1.5821 1.6112 1.6468 1.651 1.6629
2208.707 1.7058 1.7527 1.7357 1.7203 1.7538 1.7626 1.7348 1.7304 1.7133 1.6562
2227.997 1.6571 1.686 1.6424 1.6496 1.6281 1.6014 1.6495 1.6536 1.6349 1.6265
2247.287 1.6477 1.6834 1.6939 1.7386 1.7972 1.8028 1.8414 1.9004 1.8701 1.8669
2266.577 1.9393 1.9434 1.8801 1.8959 1.9012 1.8466 1.824 1.8138 1.7998 1.7627
2285.868 1.7844 1.771 1.7328 1.7316 1.7274 1.7197 1.6915 1.7123 1.7242 1.7008
2305.158 1.7277 1.7385 1.6614 1.6371 1.668 1.7326 1.7356 1.7491 1.8633 1.8539
2324.448 1.7999 1.809 1.8763 1.9561 1.9553 1.92 1.9074 1.909 1.9009 1.939
2343.738 2.0157 2.0043 2.0017 2.0587 2.0821 2.1191 2.1996 2.3006 2.3645 2.3945
2363.028 2.4207 2.4569 2.53 2.55 2.52 2.54 2.53 2.59 2.65 2.63
2382.318 2.65 2.66 2.65 2.69 2.71 2.71 2.73 2.74 2.7 2.66
2401.608 2.7 2.73 2.69 2.67 2.67 2.68 2.71 2.69 2.67 2.57
2420.898 2.4512 2.3701 2.293 2.2614 2.1412 2.0591 2.0633 2.0138 1.924 1.8456
2440.188 1.831 1.8519 1.7925 1.7028 1.6824 1.6838 1.7057 1.7224 1.7227 1.7094
2459.478 1.7238 1.7576 1.7287 1.7584 1.7317 1.66 1.6815 1.6645 1.6864 1.7573
2478.768 1.7667 1.7068 1.688 1.7271 1.7472 1.7072 1.6717 1.6552 1.6778 1.6972
2498.058 1.6931 1.6849 1.7027 1.6998 1.6936 1.6972 1.6782 1.682 1.6334 1.6429
2517.348 1.6491 1.6097 1.5876 1.5838 1.54548 1.51579 1.54123 1.48958 1.46847 1.54357
2536.638 1.55509 1.5636 1.5618 1.53049 1.52839 1.5858 1.54786 1.47806 1.55844 1.6138
2555.928 1.6206 1.5924 1.554 1.55611 1.54637 1.53098 1.54611 1.55103 1.5514 1.51781
2575.218 1.48284 1.47186 1.52513 1.5973 1.597 1.5726 1.53735 1.54178 1.5688 1.576
2594.508 1.5715 1.5446 1.6178 1.6987 1.6717 1.6343 1.5929 1.51755 1.48236 1.53346
2613.798 1.55052 1.5755 1.53693 1.47642 1.45531 1.4154 1.4238 1.4125 1.3667 1.336
2633.088 1.355 1.4396 1.4161 1.31 1.323 1.347 1.319 1.313 1.3655 1.4219
2652.378 1.46845 1.45256 1.4203 1.4464 1.46404 1.46488 1.52379 1.561 1.51599 1.49661
2671.668 1.5797 1.589 1.55284 1.5731 1.5867 1.55671 1.54369 1.49528 1.46626 1.53087
2690.958 1.48865 1.4336 1.4222 1.4754 1.4469 1.3675 1.3691 1.4073 1.45769 1.48886
2710.248 1.46313 1.5232 1.5977 1.5967 1.6307 1.6394 1.6691 1.6752 1.7041 1.7669
2729.538 1.813 1.8188 1.8532 1.9607 2.0604 2.0412 2.0671 2.1866 2.2006 2.1373
2748.828 2.1311 2.1407 2.0945 2.077 2.1487 2.2235 2.1602 2.1036 2.0618 1.9964
2768.118 2.0828 2.1839 2.2084 2.2011 2.2141 2.2962 2.2983 2.394 2.51 2.58
2787.408 2.66 2.79 2.94 3.01 3.1 3.16 3.17 3.27 3.42 3.51
2806.698 3.58 3.71 3.85 4 4.26 4.47 4.67 4.95 5.28 5.56
2825.988 5.82 6.19 6.54 6.86 7.18 7.51 7.86 8.14 8.38 8.58
2845.278 8.62 8.59 8.65 8.67 8.71 8.74 8.78 8.9 9.16 9.67
2864.568 10.39 11.3 12.51 13.91 15.43 16.98 18.4 19.71 20.88 21.95
2883.858 22.84 23.53 24.22 24.91 25.54 26.2 26.84 27.53 28.33 29.01
2903.148 29.46 29.57 29.2 28.56 27.65 26.6 25.61 24.65 24.04 23.76
2922.438 23.83 24.53 25.71 27.43 29.94 33.17 37.1 41.69 46.53 51.22
2941.728 55.99 61.33 66.71 70.94 73.42 74.31 73.46 70.71 68.21 66.66
2961.018 63.76 59.01 53.8 49.26 45.87 43.15 40.64 39.09 38.21 37.05
2980.308 35.9 35.24 34.95 34.94 35.01 35.19 35.66 35.56 33.71 30.39
2999.598 26.93 23.96 21.22 18.57 16.05 13.61 11.53 9.76 8.34 7.35
3018.888 6.55 5.99 5.52 5.04 4.74 4.52 4.33 4.12 3.86 3.74
3038.178 3.74 3.56 3.3 3.25 3.28 3.3 3.29 3.24 3.31 3.28
3057.468 3.17 3.27 3.43 3.7 3.94 4.16 4.49 4.78 5.13 5.44
3076.758 5.65 5.77 5.66 5.5 5.28 4.87 4.49 3.88 3.21 2.73
3096.048 2.2961 2.0741 1.8812 1.6093 1.54388 1.54234 1.50259 1.4169 1.33 1.359
3115.338 1.4144 1.4363 1.3756 1.285 1.274 1.208 1.219 1.303 1.193 1.138
3134.628 1.154 1.092 1.068 1.014 1.009 0.979 0.943 0.939 0.865 0.895
3153.918 0.96 0.916 0.799 0.849 0.951 0.936 0.908 0.802 0.819 0.823
3173.208 0.812 0.922 0.888 0.773 0.777 0.785 0.68 0.701 0.734 0.753
3192.498 0.773 0.787 0.712 0.598 0.639 0.736 0.776 0.743 0.78 0.785
3211.788 0.758 0.751 0.657 0.708 0.824 0.757 0.718 0.652 0.66 0.69
3231.078 0.631 0.606 0.561 0.471 0.46 0.34 0.28 0.35 0.24 0.24
3250.368 0.28 0.29 0.21 0.14 0.15 0.21 0.21 0.26 0.32 0.18
3269.658 0.18 0.28 0.33 0.34 0.3 0.34 0.39 0.42 0.492 0.41
3288.948 0.27 0.29 0.35 0.4 0.44 0.46 0.538 0.486 0.4 0.476
3308.238 0.497 0.42 0.43 0.514 0.584 0.7 0.682 0.669 0.747 0.827
3327.528 0.907 0.981 0.99 0.992 1.194 1.4218 1.52413 1.55912 1.6033 1.6356
3346.818 1.7721 1.8969 2.026 2.1535 2.2588 2.3687 2.4527 2.4593 2.49 2.55
3366.108 2.51 2.4408 2.2512 1.9631 1.7735 1.6071 1.5745 1.54713 1.327 1.142
3385.398 1.121 0.997 0.804 0.705 0.661 0.669 0.501 0.43 0.478 0.485
3404.688 0.39 0.37 0.36 0.22 0.25 0.31 0.26 0.23 0.3 0.27
3423.978 0.22 0.17 0.12 0.19 0.28 0.33 0.3 0.22 0.26 0.27
3443.269 0.23 0.28 0.23 0.2 0.27 0.33 0.36 0.27 0.22 0.16
3462.559 0.18 0.24 0.18 0.16 0.16 0.08 0.07 0.25 0.25 0.18
3481.849 0.13 0.1 0.17 0.13 0.12 0.19 0.14 0.13 0.1 0.16
3501.139 0.25 0.2 0.21 0.21 0.16 0.19 0.2 0.12 0.03 0.03
3520.429 0.06 0.13 0.24 0.17 0.08 0.15 0.12 0.08 0.11 0.13
3539.719 0.14 0.14 0.16 0.05 0.1 0.17 0.11 0.16 0.09 0
3559.009 0.13 0.22 0.13 0.07 0.14 0.17 0.17 0.16 0.17 0.2
3578.299 0.21 0.16 0.05 0.03 0.09 0.14 0.21 0.33 0.23 0.21
3597.589 0.18 0.12 0.2 0.25 0.23 0.15 0.15 0.2 0.3 0.25
3616.879 0.23 0.37 0.34 0.29 0.28 0.17 0.16 0.19 0.2 0.17
3636.169 0.18 0.26 0.25 0.17 0.17 0.29 0.42 0.41 0.33 0.32
3655.459 0.41 0.43 0.34 0.2 0.18 0.29 0.33 0.35 0.29 0.23
3674.749 0.23 0.3 0.32 0.25 0.28 0.24 0.22 0.26 0.27 0.39
3694.039 0.43 0.42 0.45 0.41 0.42 0.41 0.36 0.31 0.36 0.43
3713.329 0.41 0.43 0.4 0.35 0.38 0.481 0.466 0.41 0.38 0.42
3732.619 0.42 0.44 0.45 0.36 0.4 0.45 0.529 0.541 0.565 0.528
3751.909 0.39 0.43 0.46 0.538 0.626 0.518 0.42 0.486 0.565 0.47
3771.199 0.37 0.41 0.41 0.47 0.48 0.501 0.566 0.46 0.34 0.35
3790.489 0.41 0.4 0.464 0.42 0.42 0.56 0.527 0.49 0.476 0.486
3809.779 0.561 0.544 0.622 0.7 0.555 0.524 0.585 0.49 0.5 0.514
3829.069 0.565 0.651 0.497 0.473 0.6 0.622 0.53 0.515 0.675 0.7
3848.359 0.629 0.644 0.626 0.638 0.59 0.578 0.602 0.674 0.709 0.601
3867.649 0.544 0.626 0.523 0.475 0.542 0.489 0.473 0.55 0.614 0.561
3886.939 0.477 0.41 0.508 0.594 0.608 0.659 0.742 0.676 0.594 0.55
3906.229 0.642 0.722 0.604 0.589 0.685 0.729 0.667 0.671 0.734 0.739
3925.519 0.649 0.63 0.713 0.723 0.695 0.615 0.602 0.596 0.653 0.686
3944.809 0.656 0.744 0.84 0.775 0.703 0.793 0.746 0.7 0.699 0.648
3964.099 0.681 0.587 0.519 0.648 0.633 0.677 0.696 0.559 0.667 0.748
3983.389 0.782 0.818 0.842 0.861 0.821 0.904 0.823 0.823 0.962 0.918
##END=
