##TITLE=N-n-Propylphthalimide
##JCAMP-DX=4.24
##DATA TYPE=INFRARED SPECTRUM
##ORIGIN=EPA-IR VAPOR PHASE LIBRARY
##OWNER=SRD/NIST
Collection (C) 2018 copyright by the U.S. Secretary of Commerce
on behalf of the United States of America. All rights reserved.
##CAS REGISTRY NO=5323-50-2
##MOLFORM=C 11 H 11 N O 2
##$NIST SOURCE=MSDC-IR
##STATE=gas
##XUNITS=1/CM
##YUNITS=ABSORBANCE
##XFACTOR=1.
##YFACTOR=0.001
##DELTAX=1.92898
##FIRSTX=549.8
##LASTX=4000.7
##FIRSTY=24.8837
##MAXX=4000.7
##MINX=549.759
##MAXY=1.2182
##MINY=0
##NPOINTS=1790
##XYDATA=(X++(Y..Y))
549.759 24.8837 22.1937 18.5337 13.7237 9.7137 7.1137 5.5337 4.6337 3.0537 2.0737
569.049 2.0237 1.7037 1.6437 1.6337 1.4237 2.1337 2.6237 2.7737 3.3337 3.1837
588.339 3.4237 4.1237 4.7037 5.7237 6.5237 7.0137 7.6937 8.2237 8.6737 9.4037
607.628 10.3637 11.7537 13.4537 15.4437 16.8737 17.2937 16.8437 15.7137 13.7337 11.1537
626.918 8.5837 6.1037 4.1237 2.8437 2.5137 2.5537 2.5137 2.5937 2.2937 2.0537
646.208 2.0837 2.4037 2.4337 2.3137 2.4637 2.5537 2.4937 2.5037 2.5737 2.5837
665.498 3.0637 3.3037 3.1137 3.3537 3.8837 4.2237 4.4637 4.9237 5.9037 7.1237
684.787 8.6437 10.4437 12.5837 15.1037 17.8337 21.6537 27.5837 35.7437 46.3937 60.5837
704.077 79.4137 102.734 129.034 157.224 183.944 208.704 237.584 249.434 230.384 198.124
723.367 167.424 141.734 115.374 89.9937 67.4837 49.0937 35.9837 27.6037 22.6637 19.7237
742.657 17.5437 16.2037 15.4137 14.7037 14.1937 13.5337 13.0337 12.6737 12.1037 12.0237
761.947 12.3137 12.7437 13.6537 14.8737 16.9437 19.1737 21.2337 23.6337 25.6337 26.8337
781.236 27.4237 27.3237 27.0237 26.7837 25.5237 22.9437 20.2837 18.0837 15.8137 13.5337
800.526 11.3737 9.1937 7.7437 6.7437 5.8937 5.5837 5.1137 4.7937 4.7437 4.4237
819.816 4.2637 4.7837 5.3637 5.7837 6.0837 6.2637 6.3537 6.9437 7.7737 8.1837
839.106 8.7437 9.1837 9.5637 10.1237 10.6137 10.9737 11.4037 12.3437 13.4237 13.9837
858.395 14.4937 14.9137 14.8937 14.6037 14.1837 13.3337 12.9037 12.9237 12.9637 13.4637
877.685 14.3837 15.5437 16.9737 18.7337 20.6237 22.8637 25.1437 27.3437 29.9337 33.2237
896.975 37.2737 41.4337 45.3337 49.3937 53.4537 56.3037 56.4637 54.4537 51.9737 49.1737
916.265 44.9237 39.3137 33.4637 28.1337 23.7137 20.2937 17.6437 15.5037 13.8237 13.0337
935.555 12.6937 12.3537 12.7337 13.3437 13.9937 14.8737 15.7137 16.3637 16.9437 17.4437
954.844 17.6537 17.3737 16.7637 16.4637 16.2237 15.5937 15.0737 14.6237 13.7937 12.8137
974.134 12.1237 11.3137 10.1237 9.3537 8.8237 8.2637 8.2037 8.6637 8.9437 9.5837
993.424 10.5537 10.7537 11.6137 13.0037 13.9737 15.3937 16.4537 17.2537 18.6437 20.3737
1012.714 22.2937 24.3537 27.1237 31.3537 36.8837 43.6837 52.5737 63.5137 77.0437 92.3537
1032.003 108.474 126.074 143.114 158.574 171.234 179.494 183.604 183.144 177.804 168.454
1051.293 155.874 140.644 125.034 109.784 95.7337 84.0537 73.8737 64.3337 55.9637 49.3637
1070.583 43.8137 39.3537 35.6837 32.9937 31.5537 30.1637 29.3237 29.5837 29.4337 28.0437
1089.873 27.2537 25.8637 24.6137 23.5037 21.1637 18.4337 16.7537 15.6637 14.8137 14.0437
1109.163 12.4137 11.7437 10.5737 9.3837 9.8137 9.8837 9.4737 9.8637 10.2537 10.3737
1128.452 9.9837 9.6237 9.7437 9.9937 10.2237 9.7937 9.2537 8.7337 9.1337 10.3737
1147.742 11.6137 13.5237 15.7137 17.2737 18.6337 20.6637 22.1937 24.1037 26.6537 28.6437
1167.032 31.1337 35.4837 40.8437 46.2937 52.3137 58.8837 64.9837 69.6437 72.8037 74.1637
1186.322 74.1337 71.8337 66.9337 60.9637 53.8837 46.3937 40.0737 34.4837 29.9437 26.6937
1205.611 23.2337 20.4337 19.5137 18.0837 16.4237 15.9637 15.6237 14.5437 14.1537 14.5137
1224.901 12.8837 11.4037 11.3137 12.1337 12.5637 12.1037 12.3337 12.7337 12.9937 13.1637
1244.191 13.2437 13.4837 14.1037 14.7837 15.6137 16.3537 17.1737 18.0637 18.8737 20.1337
1263.481 21.2037 21.9737 22.7137 23.4737 24.1337 25.2937 26.2537 27.1137 28.3337 29.7137
1282.771 31.5337 33.2337 34.9037 36.6937 39.0137 42.3837 46.0837 49.8037 53.7237 57.6937
1302.060 61.6737 65.4737 68.8437 71.8837 74.7637 77.5937 80.6237 83.8237 87.2537 90.9537
1321.350 94.9937 99.0637 103.124 107.674 113.164 120.444 130.394 143.654 160.614 181.284
1340.640 204.694 228.534 250.664 269.514 284.894 298.084 310.354 322.424 334.934 348.674
1359.930 363.534 378.684 391.954 399.824 400.534 395.084 386.224 376.704 368.434 363.474
1379.219 363.144 366.954 373.684 382.264 390.834 396.894 397.234 389.274 374.204 354.364
1398.509 330.464 301.884 268.134 230.964 194.774 163.204 137.124 115.704 98.1137 84.1737
1417.799 73.9437 67.0437 62.8737 60.9337 60.9737 63.1437 67.0137 72.0837 78.1637 85.1337
1437.089 93.0937 101.524 108.834 113.444 115.054 113.694 109.844 103.924 96.2437 87.9837
1456.378 80.8837 75.9037 72.9537 71.7837 71.4237 70.2037 67.2737 63.8637 60.6437 55.3437
1475.668 48.0237 40.8137 34.3237 28.9337 24.6937 21.4337 18.9637 17.1037 15.8337 15.0437
1494.958 14.3237 13.6937 13.3837 12.9837 12.6937 12.6837 12.5337 12.4537 12.4537 12.3737
1514.248 12.3537 12.3737 12.3637 12.4037 12.3437 12.0237 11.6937 11.2937 10.9037 10.4637
1533.538 10.0737 9.9137 9.7837 9.8337 9.8337 9.8337 10.1137 10.3337 10.5337 10.8537
1552.827 11.0337 11.2637 11.5237 11.7437 11.9537 12.1337 12.3837 12.6337 12.8537 13.1737
1572.117 13.5637 13.7637 13.9637 14.4537 15.0037 15.5337 16.2637 17.1437 18.0237 18.6437
1591.407 19.2237 19.8937 20.6137 21.4137 22.2037 23.1437 23.9237 24.6337 25.4837 26.2937
1610.697 26.5637 26.0137 24.8037 23.0037 20.9537 18.9337 17.0337 15.2137 13.6437 12.3437
1629.986 11.4837 11.1037 10.8137 10.5637 10.4637 10.5837 10.7037 10.9337 11.2237 11.4737
1649.276 11.7637 12.0737 12.4337 12.7737 13.1737 13.5537 13.9037 14.4237 15.0537 15.8737
1668.566 16.7137 17.5837 18.6937 19.9637 21.4537 23.2137 25.4237 28.2037 31.5237 35.4037
1687.856 39.8837 45.1537 51.3137 58.2837 65.9937 74.1737 82.6637 91.9837 102.684 115.814
1707.146 132.524 154.324 183.594 223.864 279.954 356.114 455.434 578.324 722.144 877.504
1726.435 1025.39 1139.25 1200.34 1218.2 1217.08 1198.31 1129.07 993.184 820.904 648.934
1745.725 498.924 378.104 285.864 218.674 171.954 139.994 118.114 103.274 93.5837 87.9637
1765.015 85.5337 86.1237 89.9437 97.5437 109.764 126.904 147.654 168.424 184.514 192.844
1784.305 192.774 184.874 169.964 148.224 120.924 93.6737 72.0937 57.2837 47.5737 41.1037
1803.594 36.7137 33.4337 30.8637 28.6737 26.5537 24.6637 22.8337 21.2737 20.0337 18.7937
1822.884 17.7437 16.9637 16.4337 16.0837 15.9037 15.6437 15.3737 15.0937 14.7237 14.3837
1842.174 13.9437 13.3537 12.8437 12.3037 11.8237 11.5237 11.3137 11.1837 11.2137 11.3737
1861.464 11.6137 11.9037 12.1137 12.3137 12.2837 12.0737 11.6737 11.1337 10.5337 9.8737
1880.754 9.1737 8.5437 8.1137 7.7837 7.4837 7.3937 7.4437 7.4037 7.4237 7.5237
1900.043 7.6937 7.8637 7.9637 7.9837 8.0937 8.1237 8.0337 7.9637 7.7737 7.6537
1919.333 7.6537 7.5937 7.6637 7.9437 8.2437 8.5237 8.8337 9.0937 9.2737 9.2937
1938.623 9.0337 8.6937 8.2337 7.6637 7.1237 6.3837 5.6637 5.3037 5.1137 5.1237
1957.913 5.2437 5.4637 5.8637 6.3337 6.8137 7.0937 7.0937 6.9137 6.4637 5.9237
1977.202 5.3837 4.8337 4.3737 3.9237 3.5537 3.4137 3.2837 3.2337 3.2237 3.1337
1996.492 3.1337 3.1437 3.1137 3.0937 2.9937 2.9337 2.9737 2.9437 2.8437 2.8237
2015.782 2.7437 2.6337 2.5637 2.4937 2.4637 2.3437 2.2637 2.1837 2.1337 2.1237
2035.072 2.1037 2.1037 2.0737 2.0837 2.0437 1.9737 2.0137 2.0937 2.0737 2.0937
2054.362 2.1137 2.0737 1.9637 1.8937 2.0037 2.0537 2.0337 2.0037 2.0237 2.1637
2073.651 2.2537 2.1837 2.2337 2.3637 2.3637 2.3037 2.2637 2.3237 2.3437 2.2837
2092.941 2.2337 2.1537 2.0437 2.0637 2.0837 2.1037 2.1037 1.9537 1.8937 1.9737
2112.231 1.9537 1.8537 1.8237 1.9537 2.0537 2.0737 2.0237 2.0737 2.2337 2.3337
2131.521 2.4437 2.3637 2.2637 2.3537 2.3437 2.3937 2.3537 2.3137 2.3437 2.2237
2150.810 2.2237 2.1537 2.0737 2.1837 2.0837 1.9337 1.8937 1.9037 2.0037 2.0237
2170.100 1.9737 1.9437 1.9237 1.9337 1.9837 1.9237 1.9237 2.0237 2.0737 1.9637
2189.390 1.8937 2.0037 2.0237 1.9237 1.7437 1.6437 1.6937 1.8337 1.8437 1.6737
2208.680 1.6437 1.7437 1.7937 1.8537 1.8637 1.7837 1.8337 1.9137 1.9137 1.8537
2227.970 1.9637 2.0837 2.1237 2.1937 2.2837 2.3237 2.3637 2.4237 2.4137 2.5337
2247.259 2.6537 2.7437 2.7737 2.7237 2.7237 2.7237 2.7037 2.5937 2.5337 2.5337
2266.549 2.5137 2.4337 2.3237 2.2837 2.2237 2.1837 2.2437 2.2637 2.2237 2.3237
2285.839 2.3337 2.3337 2.3837 2.4137 2.4337 2.4037 2.4337 2.5437 2.6537 2.7137
2305.129 2.7937 2.9237 3.0937 3.2837 3.5437 3.7037 3.8137 3.9237 3.8437 3.7137
2324.418 3.5337 3.3637 3.3837 3.5237 3.5537 3.5637 3.5437 3.5237 3.5837 3.6537
2343.708 3.6637 3.6037 3.5437 3.5037 3.4337 3.3737 3.2837 3.1837 3.1937 3.1037
2362.998 2.9737 2.9237 2.8637 2.8837 2.9337 2.9037 2.8537 2.7537 2.6837 2.5237
2382.288 2.3737 2.5537 2.6037 2.5137 2.6437 2.7737 2.8537 2.8637 2.8937 3.1137
2401.578 3.3037 3.3437 3.2537 3.2137 3.4037 3.5937 3.6937 3.7337 3.8237 3.9137
2420.867 3.9037 3.9337 3.9637 3.9437 4.0137 4.1337 4.1137 4.1737 4.1337 3.9137
2440.157 3.7737 3.7337 3.6637 3.6537 3.3437 2.9937 2.9637 2.8337 2.6437 2.5437
2459.447 2.4537 2.2837 2.2137 2.0837 1.9337 1.9437 1.8837 1.8137 1.9037 1.9037
2478.737 1.8937 1.7737 1.7037 1.7637 1.6837 1.7537 1.8937 1.9037 1.9037 1.9337
2498.026 1.9037 1.8637 1.8637 1.8637 1.8337 1.8137 1.7437 1.6037 1.5537 1.5237
2517.316 1.6037 1.6737 1.5237 1.3737 1.3837 1.4637 1.4837 1.4337 1.3837 1.3637
2536.606 1.3437 1.5137 1.6137 1.5737 1.4937 1.4437 1.4637 1.5037 1.5937 1.5937
2555.896 1.6437 1.6237 1.5237 1.5137 1.6437 1.7037 1.5837 1.6137 1.5837 1.4737
2575.186 1.4737 1.3937 1.3837 1.3737 1.2837 1.2637 1.3037 1.3337 1.2537 1.1837
2594.475 1.2137 1.2237 1.0937 0.983 1.0642 1.1237 1.1437 1.2137 1.2237 1.3137
2613.765 1.4937 1.5537 1.5437 1.5637 1.7037 1.8437 1.9237 1.9837 1.9637 2.0637
2633.055 2.1437 2.1537 2.2037 2.1937 2.1337 2.1237 2.1537 2.0637 1.9537 1.9237
2652.345 2.0037 2.0537 2.0937 2.2137 2.2037 2.1737 2.2137 2.2737 2.2937 2.2837
2671.634 2.3137 2.3137 2.4937 2.6437 2.8337 2.9437 2.9937 3.2237 3.3037 3.2837
2690.924 3.2237 3.3537 3.4437 3.3837 3.4237 3.4937 3.4637 3.2237 2.9637 2.8337
2710.214 2.6437 2.3837 2.2337 2.1637 2.1537 2.1437 2.0737 2.2037 2.5137 2.6237
2729.504 2.5337 2.4737 2.5737 2.6437 2.7837 3.0037 3.1537 3.1437 3.1837 3.3937
2748.794 3.5437 3.5437 3.6337 3.6237 3.5237 3.7137 3.8137 3.7937 3.8637 3.9037
2768.083 3.9537 4.2237 4.4337 4.5137 4.7037 4.8637 4.9137 5.0037 5.0937 5.0637
2787.373 4.9537 4.8037 4.6837 4.5637 4.5237 4.4337 4.4837 4.5337 4.5137 4.5037
2806.663 4.6137 4.7137 4.6837 4.7237 4.7737 4.8537 4.9937 5.1237 5.3437 5.5437
2825.953 5.8537 6.2137 6.4537 6.7037 6.8237 6.9937 7.1737 7.3737 7.5037 7.6437
2845.242 7.9537 8.1137 8.3137 8.5337 8.8337 9.3737 10.0837 10.8937 11.8537 13.1337
2864.532 14.7337 16.9037 19.5837 22.7037 26.5237 30.8137 35.2637 39.8737 44.5937 48.7037
2883.822 51.5237 53.0537 53.0137 51.4637 48.7837 45.4137 41.6337 38.2837 35.5837 33.4537
2903.112 32.1637 31.5637 31.5937 32.0537 32.8937 34.2037 35.8837 37.7937 39.9037 42.3037
2922.401 45.2037 48.7037 52.6737 57.3737 62.5337 67.9637 73.8537 80.4537 87.6537 95.2737
2941.691 102.274 107.274 110.034 110.334 108.124 103.564 97.0937 90.0937 84.1437 80.7637
2960.981 80.7037 84.2237 91.1337 101.154 113.264 125.044 133.814 138.284 138.834 134.954
2980.271 125.884 111.494 94.6237 78.6537 64.4937 52.7537 43.2737 35.7937 30.2137 25.7337
2999.561 22.3037 19.8437 17.8337 16.2337 14.8937 14.0137 13.5337 13.2037 12.8737 12.5937
3018.850 12.4937 12.4337 12.4637 12.6037 12.6737 12.8337 13.1237 13.3437 13.6537 13.8737
3038.140 14.1237 14.7137 15.5737 16.2437 16.8037 17.6437 18.7037 19.8937 21.3037 23.1037
3057.430 24.9237 26.2937 27.1537 27.5837 27.6037 27.2737 26.7737 26.2937 26.2237 26.8937
3076.720 28.7137 31.0837 33.3937 35.4937 36.5837 36.6837 35.6937 33.6937 31.0237 27.5937
3096.009 23.7437 19.8037 16.0837 13.0537 10.8237 9.0937 7.7337 6.6237 5.5937 4.7837
3115.299 4.3537 3.9537 3.5637 3.2137 3.0037 2.9337 2.8537 2.6837 2.6037 2.4937
3134.589 2.0837 1.9637 1.9337 1.9137 2.1137 2.0837 1.9537 1.9037 1.7937 1.7437
3153.879 1.6737 1.5037 1.4937 1.5937 1.6337 1.6037 1.6037 1.5937 1.6037 1.4737
3173.169 1.6037 1.7737 1.7037 1.7437 1.7437 1.8037 1.7937 1.8237 1.9337 2.0237
3192.458 2.0337 1.6837 1.6337 1.9137 1.9237 1.8237 1.7737 1.9637 1.9837 1.9337
3211.748 1.9437 2.0137 1.8737 1.7737 1.8337 1.5737 1.5437 1.6537 1.7137 1.6537
3231.038 1.4237 1.3737 1.4337 1.4337 1.3337 1.1637 1.1537 1.1437 1.0736 1.1137
3250.328 0.9702 0.8273 0.8749 0.8645 0.7765 0.8271 0.6578 0.4414 0.4531 0.5053
3269.617 0.5899 0.552 0.5521 0.5543 0.5204 0.5143 0.5342 0.4785 0.3856 0.4928
3288.907 0.6446 0.6291 0.5287 0.6188 0.7353 0.6412 0.5563 0.4164 0.3325 0.4261
3308.197 0.4643 0.3477 0.3476 0.4868 0.5456 0.5829 0.51 0.3803 0.3484 0.4351
3327.487 0.6073 0.5383 0.5838 0.6083 0.4669 0.475 0.5068 0.4871 0.6296 0.6187
3346.777 0.3852 0.4801 0.6683 0.6421 0.3709 0.2697 0.3361 0.3843 0.309 0.3091
3366.066 0.4834 0.4655 0.5705 0.5352 0.3205 0.3561 0.5499 0.5442 0.4957 0.4737
3385.356 0.4834 0.4546 0.5425 0.7222 0.6066 0.3572 0.2038 0.3322 0.4972 0.5851
3404.646 0.5792 0.5602 0.5943 0.4706 0.3857 0.5282 0.6639 0.6998 0.71 0.7676
3423.936 0.7348 0.7967 0.9284 1.0409 1.1837 1.3037 1.3337 1.4237 1.6337 1.8337
3443.225 2.3437 2.5137 2.5137 2.9137 3.2037 3.6137 4.0437 4.2137 4.2737 4.3937
3462.515 4.3537 4.2237 4.2137 4.4337 4.6037 4.7337 5.0937 5.4737 5.7737 6.4237
3481.805 7.2437 7.9737 8.9137 10.0037 11.0537 12.0237 13.1337 14.1337 14.8637 15.2237
3501.095 15.0637 14.6537 14.0137 12.8137 11.3237 9.6737 8.0537 6.7137 5.4937 4.4937
3520.385 3.6537 3.1537 2.6937 2.3537 2.2937 2.2037 2.0637 1.8437 1.5837 1.4137
3539.674 1.5937 1.6237 1.3937 1.4337 1.4537 1.3637 1.3937 1.5037 1.4037 1.3537
3558.964 1.5037 1.5237 1.5337 1.5537 1.7037 1.5337 1.3637 1.3437 0.9918 0.8908
3578.254 1.0673 1.1937 1.0674 0.9032 1.0094 0.9053 0.957 0.9927 0.8413 0.873
3597.544 0.9008 0.7548 0.6648 0.6418 0.5011 0.5447 0.6011 0.6461 0.6228 0.5863
3616.833 0.5355 0.6218 0.7542 0.6939 0.5688 0.5254 0.5038 0.3364 0.389 0.6301
3636.123 0.5188 0.315 0.2638 0.3666 0.361 0.1988 0.3913 0.4949 0.3023 0.329
3655.413 0.4906 0.5781 0.3668 0.2029 0.251 0.3361 0.3019 0.3057 0.3556 0.3491
3674.703 0.2866 0.3973 0.5434 0.4765 0.2227 0.06545 0.3618 0.4518 0.3377 0.336
3693.993 0.3586 0.2008 0.08958 0.2291 0.3581 0.3351 0.4261 0.6866 0.6592 0.3663
3713.282 0.11981 0.1918 0.4175 0.2489 0.13422 0.251 0.3359 0.4833 0.5718 0.68
3732.572 0.8385 0.7977 0.6815 0.6744 0.8327 0.7671 0.6264 0.6665 0.7469 0.843
3751.862 0.7703 0.7207 0.7547 0.658 0.5979 0.6915 0.7502 0.8149 0.7645 0.6746
3771.152 0.8383 0.8893 0.6851 0.4485 0.6296 0.7967 0.6082 0.7396 0.8247 0.7484
3790.441 0.8034 0.8557 0.8801 0.7922 0.4273 0.3509 0.6319 0.7697 0.6376 0.399
3809.731 0.3278 0.4289 0.5481 0.5525 0.4065 0.4497 0.5464 0.407 0.3362 0.201
3829.021 0.1768 0.10903 0.3747 0.7429 0.6104 0.6252 0.5649 0.2997 0.1981 0.2902
3848.311 0.2862 0.2971 0.2843 0.2614 0.268 0.1646 0.2532 0.4455 0.5986 0.5013
3867.601 0.4235 0.5562 0.6456 0.8447 0.691 0.3591 0.4725 0.401 0.2924 0.4962
3886.890 0.3317 0 0.1742 0.4323 0.4861 0.5832 0.4296 0.4013 0.6659 0.6139
3906.180 0.5461 0.5987 0.6254 0.7104 0.6364 0.637 0.7796 0.7608 0.6261 0.7573
3925.470 0.7325 0.4946 0.5402 0.6998 0.9122 0.9376 0.5643 0.4148 0.5321 0.5572
3944.760 0.5892 0.5495 0.4923 0.3793 0.4215 0.473 0.5162 0.7204 0.9697 0.9247
3964.049 0.615 0.7418 0.8812 0.741 0.5121 0.4226 0.6662 0.6423 0.6141 0.9385
3983.339 1.0455 0.7849 0.6818 0.6572 0.6599 0.9225 0.8334 0.5838 0.4984 0.7592
##END=
