##TITLE=4-Iodo-3-nitrotoluene
##JCAMP-DX=4.24
##DATA TYPE=INFRARED SPECTRUM
##ORIGIN=EPA-IR VAPOR PHASE LIBRARY
##OWNER=SRD/NIST
Collection (C) 2018 copyright by the U.S. Secretary of Commerce
on behalf of the United States of America. All rights reserved.
##CAS REGISTRY NO=5326-39-6
##MOLFORM=C 7 H 6 I N O 2
##$NIST SOURCE=MSDC-IR
##STATE=gas
##XUNITS=1/CM
##YUNITS=ABSORBANCE
##XFACTOR=1.
##YFACTOR=0.001
##DELTAX=1.92898
##FIRSTX=549.8
##LASTX=4000.7
##FIRSTY=1.2223
##MAXX=4000.7
##MINX=549.759
##MAXY=0.18523
##MINY=0
##NPOINTS=1790
##XYDATA=(X++(Y..Y))
549.759 1.2223 1.57 2.02 2.05 2 2.19 2.03 1.87 2.03 2.15
569.049 1.73 1.2979 1.247 1.43 1.57 1.6 1.72 2.07 1.96 1.86
588.339 2.1 2.32 2.52 2.23 2.17 2.4 2.47 2.53 2.75 2.91
607.628 2.84 2.75 2.72 2.53 2.15 1.89 1.41 1.1894 1.0905 0.8636
626.918 0.7335 0.7084 0.6821 0.6196 0.6135 0.6869 0.6509 0.4875 0.604 0.5541
646.208 0.5723 0.6045 0.7142 0.9852 1.0934 1.41 2.05 2.8 3.89 5.67
665.498 7.95 10.52 12.28 12.34 12.02 12.62 12.75 10.76 7.74 5.44
684.787 4.02 3.04 2.43 2.2 1.96 1.82 1.83 1.75 1.48 1.319
704.077 1.1859 0.9526 0.9919 1.0209 1.0562 1.1089 1.1114 1.1902 1.46 1.62
723.367 1.74 2.09 2.41 2.72 2.99 3.37 3.84 4.3 4.74 5.26
742.657 5.87 6.29 6.52 6.47 6.17 5.89 5.45 5 4.91 4.77
761.947 4.43 4.61 4.99 5.21 5.43 5.56 5.73 6.01 6.47 7.05
781.236 8.2 10.3 13.51 17.89 24.17 32.24 39.92 44.36 45.38 48
800.526 52.49 53.7 50.94 46.88 43.47 41.94 42.64 43.38 39.04 31.19
819.816 25.21 20.69 16.58 12.73 9.45 6.94 5.15 3.8 2.97 2.68
839.106 2.35 2.06 1.76 1.46 1.3687 1.41 1.3493 1.3612 1.3422 1.4
858.395 1.78 1.96 2.1 2.56 3.23 4.12 4.98 5.88 7.07 8.17
877.685 8.94 9.49 9.53 8.98 8.03 6.91 6.02 5.34 4.69 4.17
896.975 4.07 4.44 5.14 6.04 7.12 7.92 8.2 8.44 8.57 8.5
916.265 7.87 6.51 4.9 3.56 2.76 2.17 1.64 1.3139 1.2243 1.2696
935.555 1.3682 1.41 1.45 1.71 1.77 1.7 1.79 1.89 2.02 2.11
954.844 2.33 2.45 2.48 2.47 2.33 2.19 2.04 2.07 1.94 1.67
974.134 1.71 1.7 1.65 1.86 1.91 1.96 2.06 2.15 2.47 2.7
993.424 2.98 3.32 3.32 3.64 4.27 4.87 6.04 7.92 10.73 15.15
1012.714 21.26 28.73 36.34 42.01 44.75 45.38 44.07 39.53 31.73 22.66
1032.003 15.12 10.36 7.78 6.42 5.51 5.34 5.29 5.12 5.37 5.25
1051.293 4.84 4.72 4.27 3.88 3.87 3.71 3.73 3.52 3.01 2.82
1070.583 3 2.75 2.42 2.46 2.64 2.84 2.59 2.31 2.13 2.21
1089.873 2.09 1.81 1.79 1.46 1.63 1.97 1.71 1.74 1.92 2.18
1109.163 2.52 2.78 3.25 3.55 3.65 3.3 3.01 3.03 3.13 3.06
1128.452 2.42 2.41 2.82 2.96 3.24 3.71 4.24 4.74 5.12 5.17
1147.742 5.18 5.16 4.92 4.29 3.45 3.21 3.35 3.04 2.53 2.38
1167.032 2.51 2.26 1.92 2.11 2.05 1.85 1.77 1.75 2.21 2.06
1186.322 1.72 1.92 1.94 1.99 2.08 2.21 2.35 2.46 2.74 3.17
1205.611 3.46 3.81 4.01 4.37 4.93 4.81 4.96 4.75 4.02 3.68
1224.901 3.52 3.62 3.24 3.06 3.56 3.76 3.92 4.13 4.53 5.6
1244.191 6.48 7.49 9.11 10.86 12.67 14.48 15.75 16.07 15.9 15.06
1263.481 13.5 11.91 10.28 8.89 7.99 7.73 8.09 8.68 9.33 10.08
1282.771 10.83 11.58 12.31 12.98 13.44 13.59 13.64 13.61 13.47 13.13
1302.060 12.78 12.41 12.05 11.91 11.82 11.91 12.13 12.49 12.86 13.24
1321.350 13.83 14.53 15.44 16.69 18.33 20.52 23.39 27.05 31.81 37.74
1340.640 44.78 52.9 62.25 72.67 83.42 93.62 102.32 108.51 111.32 110.52
1359.930 106.39 99.18 88.81 75.84 62 49.36 39.02 31.04 25.29 21.35
1379.219 18.69 17.06 16.01 15.19 14.52 14.03 13.51 12.93 12.41 11.99
1398.509 11.71 11.5 11.29 11.2 11.13 11.01 10.96 10.83 10.58 10.3
1417.799 10 9.65 9.3 8.9 8.55 8.33 8.1 7.91 7.8 7.78
1437.089 7.8 7.81 7.94 8.21 8.54 9.04 9.77 10.76 12.09 13.83
1456.378 16.23 19.23 22.62 26.35 30.06 33.38 35.57 36.41 35.92 34.24
1475.668 31.67 28.44 25.17 22.38 20.46 19.45 19.18 19.5 20.2 21.13
1494.958 22.2 23.32 24.44 25.64 26.97 28.56 30.57 32.94 35.66 38.8
1514.248 42.28 46.14 50.34 54.8 59.72 64.88 70.37 76.24 82.7 89.8
1533.538 97.83 107.14 117.5 129.49 142.34 155.16 167.1 176.94 183.36 185.23
1552.827 181.71 173.15 161.28 147.56 134.19 122.82 112.81 104.28 97.47 91.75
1572.117 86.56 81.52 75.76 69.55 63.21 56.56 50.05 43.99 38.76 34.31
1591.407 30.65 27.73 25.36 23.41 21.66 20.09 18.56 16.81 15.08 13.38
1610.697 11.78 10.35 9.09 8.05 7.27 6.71 6.29 5.88 5.54 5.31
1629.986 4.99 4.6 4.31 3.92 3.55 3.33 3.01 2.74 2.63 2.52
1649.276 2.35 2.27 2.17 2.02 1.91 1.88 1.85 1.84 1.87 1.85
1668.566 1.84 1.77 1.75 1.85 1.91 1.94 1.96 2.03 2.16 2.24
1687.856 2.28 2.25 2.16 2.16 2.1 1.96 1.82 1.7 1.65 1.52
1707.146 1.44 1.46 1.39 1.2603 1.1997 1.2191 1.209 1.1936 1.2037 1.1854
1726.435 1.0984 1.0774 1.1041 1.1327 1.2103 1.3056 1.39 1.53 1.69 1.78
1745.725 1.89 2.08 2.21 2.36 2.55 2.69 2.82 2.89 2.9 2.8
1765.015 2.71 2.58 2.31 2.05 1.8 1.56 1.2475 1.0538 0.9749 0.8648
1784.305 0.7978 0.777 0.7693 0.7692 0.7418 0.7383 0.7801 0.7826 0.8061 0.8161
1803.594 0.8172 0.7957 0.7935 0.9171 0.9661 0.9705 1.0159 1.0313 1.068 1.1031
1822.884 1.1359 1.1761 1.2047 1.2475 1.2967 1.37 1.42 1.37 1.2925 1.2258
1842.174 1.1438 1.0177 0.929 0.9073 0.8999 0.822 0.7561 0.7304 0.7441 0.7407
1861.464 0.7048 0.7494 0.7877 0.7251 0.6877 0.6651 0.6771 0.7448 0.7355 0.7054
1880.754 0.6992 0.7048 0.7423 0.8204 0.9084 0.9949 1.0688 1.203 1.43 1.64
1900.043 1.83 2.01 2.18 2.37 2.44 2.37 2.25 2.15 2.03 1.8
1919.333 1.58 1.37 1.1545 1.0401 1.0126 0.9094 0.8546 0.8699 0.8275 0.8009
1938.623 0.7803 0.7305 0.6947 0.6935 0.6601 0.6248 0.5986 0.5254 0.4908 0.4742
1957.913 0.42707 0.42555 0.4809 0.44856 0.36731 0.38199 0.3318 0.2951 0.36008 0.38295
1977.202 0.3468 0.3095 0.3425 0.38946 0.370979 0.4101 0.41853 0.3293 0.3353 0.36441
1996.492 0.3406 0.370338 0.39618 0.40208 0.45042 0.4783 0.46962 0.5003 0.4859 0.4416
2015.782 0.46628 0.45749 0.4393 0.46048 0.5403 0.5424 0.4841 0.4914 0.5376 0.5497
2035.072 0.5505 0.5723 0.4787 0.4405 0.45434 0.44802 0.45527 0.4881 0.4851 0.46192
2054.362 0.4832 0.46508 0.41365 0.39226 0.42578 0.4114 0.38686 0.3573 0.3257 0.3014
2073.651 0.3278 0.36144 0.3408 0.3241 0.3618 0.372958 0.3238 0.3335 0.3272 0.3096
2092.941 0.2906 0.309 0.3261 0.370595 0.3442 0.2724 0.3305 0.3184 0.263 0.255
2112.231 0.255 0.2767 0.2964 0.3331 0.36577 0.3449 0.3569 0.3314 0.258 0.262
2131.521 0.3018 0.2933 0.2727 0.255 0.3086 0.3329 0.3283 0.3379 0.3077 0.3309
2150.810 0.3644 0.41321 0.40596 0.36426 0.338 0.2991 0.3341 0.369839 0.41489 0.43115
2170.100 0.40346 0.41414 0.40172 0.41599 0.46916 0.4787 0.45382 0.45972 0.4843 0.46227
2189.390 0.46895 0.4748 0.41236 0.39465 0.41566 0.39115 0.36291 0.36879 0.33 0.2837
2208.680 0.3057 0.3625 0.378026 0.3299 0.2841 0.239 0.255 0.3261 0.2924 0.243
2227.970 0.301 0.3532 0.2929 0.236 0.237 0.261 0.259 0.2938 0.3304 0.38149
2247.259 0.39776 0.40293 0.43151 0.41314 0.40761 0.40483 0.46541 0.4794 0.5151 0.5614
2266.549 0.5876 0.5594 0.5384 0.5686 0.5165 0.4955 0.5632 0.5423 0.5586 0.683
2285.839 0.6629 0.6003 0.6669 0.7122 0.6836 0.7081 0.7154 0.6835 0.6606 0.6494
2305.129 0.5987 0.5385 0.5136 0.5352 0.5397 0.5062 0.4966 0.5184 0.5462 0.5557
2324.418 0.5561 0.562 0.6224 0.6893 0.723 0.7134 0.7281 0.7529 0.7253 0.7214
2343.708 0.7288 0.7741 0.8014 0.7911 0.7911 0.8101 0.8261 0.7561 0.7279 0.7397
2362.998 0.7742 0.8524 0.8491 0.8709 0.9145 0.8811 0.888 0.9456 1.0362 0.9716
2382.288 0.898 0.9851 0.9859 0.8955 0.857 0.8507 0.7902 0.7432 0.7198 0.732
2401.578 0.6957 0.7438 0.7669 0.6996 0.7249 0.7573 0.8494 0.8211 0.7737 0.8471
2420.867 0.8066 0.8231 0.8248 0.7545 0.8173 0.8872 0.8337 0.7002 0.6452 0.6932
2440.157 0.7793 0.7712 0.7248 0.6958 0.7316 0.7951 0.81 0.8198 0.8247 0.8941
2459.447 0.9202 0.9365 0.9759 0.989 0.975 0.8942 0.8941 0.9157 0.8693 0.8372
2478.737 0.7885 0.7913 0.8069 0.7526 0.6933 0.6631 0.6439 0.6964 0.6556 0.5282
2498.026 0.6246 0.7262 0.6258 0.5099 0.5227 0.6179 0.637 0.6742 0.67 0.5953
2517.316 0.5155 0.5243 0.5961 0.6079 0.5339 0.4786 0.5 0.4888 0.5042 0.5706
2536.606 0.5957 0.5493 0.5897 0.658 0.6295 0.5806 0.5002 0.49 0.5373 0.5222
2555.896 0.5633 0.5849 0.5917 0.6213 0.6654 0.6778 0.6518 0.7252 0.8199 0.8511
2575.186 0.8401 0.7936 0.7721 0.7979 0.8076 0.8835 0.955 0.9932 1.0132 1.0254
2594.475 1.0004 1.0482 1.2007 1.1619 1.1245 1.1331 1.1293 1.211 1.1877 1.0715
2613.765 1.088 1.11 1.0598 1.0345 1.0572 1.0369 0.9764 0.9429 0.919 0.9223
2633.055 0.8921 0.8518 0.8971 0.9828 0.9942 0.9338 0.8885 0.8977 0.8946 0.9297
2652.345 0.8824 0.885 0.9475 0.9269 0.926 0.889 0.9778 0.9256 0.8334 0.9039
2671.634 0.8378 0.8217 0.8891 0.9016 0.9125 0.9356 0.9399 0.9593 0.9737 1.0197
2690.924 1.0206 0.9557 0.9488 1.0498 1.1738 1.1528 1.1666 1.206 1.2036 1.2222
2710.214 1.2341 1.2361 1.2216 1.146 1.0405 1.0513 0.9791 0.9161 0.9604 0.9611
2729.504 1.0194 1.0262 1.0288 1.0868 1.1466 1.2124 1.2262 1.3411 1.57 1.55
2748.794 1.56 1.72 1.67 1.61 1.55 1.51 1.53 1.48 1.3693 1.2976
2768.083 1.1607 1.0721 1.1555 1.193 1.1612 1.0686 1.0719 1.1161 1.0865 1.0239
2787.373 1.0604 1.1388 1.1247 1.1856 1.2561 1.3245 1.5 1.56 1.55 1.54
2806.663 1.57 1.61 1.57 1.61 1.75 1.83 1.91 1.94 2.02 2.1
2825.953 2.12 2.21 2.31 2.46 2.56 2.64 2.83 2.96 3.09 3.3
2845.242 3.45 3.66 3.97 4.28 4.56 4.9 5.31 5.7 6.14 6.49
2864.532 6.8 7.31 7.87 8.3 8.68 8.96 9.12 9.27 9.4 9.59
2883.822 9.77 9.85 9.91 9.93 9.97 9.99 9.99 9.99 9.85 9.75
2903.112 9.56 9.27 9.13 8.94 8.86 8.97 9.14 9.4 9.73 10.28
2922.401 11.09 12.16 13.41 14.96 16.73 18.35 19.68 20.53 20.86 20.47
2941.691 19.37 17.92 16.11 14.2 12.69 11.31 10.04 9.18 8.43 7.72
2960.981 7.21 6.76 6.36 6.05 5.77 5.52 5.24 4.98 4.8 4.57
2980.271 4.42 4.43 4.42 4.47 4.59 4.77 5.08 5.36 5.65 6.04
2999.561 6.33 6.55 6.71 6.77 6.94 7.13 7.17 7.17 7.15 7.21
3018.850 7.28 7.26 7.37 7.66 7.9 8.24 8.66 9.05 9.36 9.43
3038.140 9.51 9.63 9.52 9.34 9.2 9.08 8.9 8.74 8.72 8.75
3057.430 8.8 8.94 9.12 9.27 9.28 9.11 8.84 8.39 7.78 7.12
3076.720 6.45 5.73 5.05 4.39 3.9 3.64 3.33 3.04 2.77 2.52
3096.009 2.38 2.24 2.05 1.88 1.73 1.62 1.49 1.37 1.2899 1.0571
3115.299 0.9592 1.0784 1.0906 1.0204 1.105 1.0928 0.9513 0.9129 0.8551 0.8337
3134.589 0.816 0.8232 0.8267 0.8219 0.7438 0.6786 0.657 0.5774 0.5922 0.5865
3153.879 0.6398 0.6428 0.5508 0.6972 0.746 0.6583 0.6054 0.5664 0.5411 0.5403
3173.169 0.5065 0.45386 0.43732 0.41512 0.42276 0.39218 0.4709 0.5088 0.5072 0.5325
3192.458 0.5075 0.42938 0.39079 0.6126 0.5763 0.40032 0.44643 0.43343 0.3472 0.317
3211.748 0.44851 0.5405 0.46146 0.39868 0.45974 0.40267 0.3335 0.3543 0.369732 0.3258
3231.038 0.219 0.259 0.28 0.258 0.245 0.2843 0.192 0.169 0.224 0.171
3250.328 0.2806 0.37381 0.36598 0.3311 0.207 0.18 0.254 0.187 0.263 0.3275
3269.617 0.293 0.333 0.2802 0.2849 0.38048 0.3909 0.3426 0.262 0.235 0.256
3288.907 0.2982 0.2824 0.2706 0.39075 0.38763 0.39101 0.3388 0.2981 0.36776 0.24
3308.197 0.106 0.197 0.3342 0.3187 0.26 0.3113 0.2859 0.121 0.163 0.3205
3327.487 0.40259 0.39207 0.267 0.207 0.251 0.23 0.2778 0.3077 0.245 0.216
3346.777 0.2756 0.40873 0.3516 0.151 0.171 0.2814 0.256 0.259 0.228 0.242
3366.066 0.353 0.3536 0.3056 0.3267 0.3395 0.256 0.206 0.168 0.249 0.3109
3385.356 0.23 0.258 0.3049 0.379502 0.3417 0.3381 0.44166 0.42636 0.372811 0.3501
3404.646 0.3144 0.3241 0.3625 0.228 0.3175 0.3516 0.2815 0.3269 0.234 0.259
3423.936 0.3391 0.3043 0.2863 0.3141 0.259 0.177 0.22 0.241 0.2968 0.261
3443.225 0.131 0.102 0.218 0.237 0.235 0.3038 0.217 0.126 0 0.051
3462.515 0.172 0.095 0.124 0.232 0.172 0.217 0.358 0.232 0.136 0.202
3481.805 0.208 0.203 0.179 0.186 0.2831 0.3297 0.256 0.118 0.191 0.3043
3501.095 0.186 0.118 0.181 0.3011 0.369372 0.3322 0.2882 0.3049 0.2703 0.225
3520.385 0.2873 0.224 0.038 0.087 0.218 0.215 0.219 0.233 0.3427 0.36147
3539.674 0.199 0.175 0.264 0.36625 0.3266 0.242 0.237 0.3111 0.3155 0.36
3558.964 0.39682 0.268 0.178 0.154 0.167 0.184 0.149 0.202 0.3225 0.182
3578.254 0.099 0.155 0.163 0.226 0.2865 0.246 0.179 0.154 0.178 0.3329
3597.544 0.374194 0.261 0.168 0.165 0.242 0.326 0.2715 0.179 0.3005 0.266
3616.833 0.151 0.111 0.166 0.2722 0.221 0.104 0.07 0.042 0.125 0.23
3636.123 0.175 0.147 0.152 0.174 0.212 0.3007 0.2981 0.3337 0.41492 0.39116
3655.413 0.2975 0.267 0.252 0.3442 0.3564 0.3011 0.36467 0.208 0.202 0.3515
3674.703 0.39102 0.44306 0.36107 0.3603 0.3671 0.3251 0.43076 0.41525 0.357 0.3363
3693.993 0.3005 0.38591 0.41112 0.39599 0.40548 0.3344 0.219 0.17 0.3359 0.38926
3713.282 0.2839 0.2722 0.2758 0.2917 0.3364 0.3538 0.3005 0.263 0.3375 0.5002
3732.572 0.44272 0.3332 0.46207 0.43868 0.3472 0.3158 0.3301 0.38736 0.38322 0.3169
3751.862 0.3186 0.379595 0.44891 0.4805 0.3325 0.2937 0.3522 0.3203 0.369419 0.371494
3771.152 0.3591 0.41639 0.251 0.189 0.262 0.242 0.2791 0.2761 0.246 0.242
3790.441 0.248 0.3016 0.307 0.2798 0.36769 0.39916 0.38588 0.371665 0.3309 0.228
3809.731 0.1 0.21 0.375994 0.418 0.4795 0.3587 0.2815 0.3672 0.2926 0.165
3829.021 0.22 0.2821 0.3406 0.3578 0.3432 0.3418 0.163 0.136 0.3313 0.3319
3848.311 0.218 0.268 0.231 0.237 0.3362 0.267 0.195 0.3144 0.3591 0.359
3867.601 0.3517 0.216 0.2786 0.40042 0.5192 0.39411 0.207 0.2791 0.3599 0.44173
3886.890 0.378569 0.2865 0.2951 0.2885 0.2902 0.3176 0.3092 0.2938 0.3127 0.43756
3906.180 0.4802 0.3473 0.36717 0.39388 0.238 0.2953 0.4793 0.5098 0.44392 0.45606
3925.470 0.41429 0.42798 0.4906 0.42322 0.43576 0.43348 0.3614 0.369239 0.3549 0.3133
3944.760 0.39801 0.5218 0.5261 0.3259 0.204 0.217 0.248 0.3114 0.36898 0.36158
3964.049 0.3538 0.40686 0.4902 0.5209 0.41279 0.41312 0.3031 0.2761 0.5226 0.5552
3983.339 0.39371 0.2958 0.2922 0.2857 0.377526 0.374839 0.219 0.3229 0.39624 0.4993
##END=
