##TITLE=6-Chloronicotinic acid
##JCAMP-DX=4.24
##DATA TYPE=INFRARED SPECTRUM
##ORIGIN=NIST Mass Spectrometry Data Center
##OWNER=NIST Standard Reference Data Program
Collection (C) 2018 copyright by the U.S. Secretary of Commerce
on behalf of the United States of America. All rights reserved.
##CAS REGISTRY NO=5326-23-8
##MOLFORM=C 6 H 4 Cl N O 2
##$NIST SOURCE=MSDC-IR
##SPECTROMETER/DATA SYSTEM=HP-GC/MS/IRD
##STATE=gas
##XUNITS=1/CM
##YUNITS=ABSORBANCE
##XFACTOR=1.0
##YFACTOR=0.000002400
##DELTAX=4.0
##FIRSTX=550.0
##LASTX=3846.0
##FIRSTY=0.001438
##MAXX=3846
##MINX=550
##MAXY=0.024
##MINY=0
##NPOINTS=825
##XYDATA=(X++(Y..Y))
550.0 599 1067 909 1059 1143 1164 1233 1197 1058 897
590.0 719 538 393 253 169 155 149 172 170 175
630.0 178 167 186 171 101 50 60 75 129 210
670.0 396 646 710 694 529 284 210 210 219 209
710.0 214 233 273 296 261 250 226 214 269 346
750.0 426 600 838 1058 1286 1384 1287 1230 1274 1396
790.0 1434 1349 1183 912 668 532 446 392 375 364
830.0 319 335 390 379 348 278 196 165 150 161
870.0 158 106 72 67 45 21 26 47 46 29
910.0 35 31 20 28 51 65 71 87 100 111
950.0 122 109 96 103 117 102 67 55 75 103
990.0 120 146 231 340 502 761 956 995 953 792
1030.0 572 457 406 363 337 367 441 520 667 881
1070.0 1217 1757 2458 3300 4215 4976 5514 5920 6113 6301
1110.0 6483 6202 5585 4688 3632 2996 2564 2113 1724 1236
1150.0 829 673 713 842 1055 1431 2004 2745 3355 3559
1190.0 3433 2894 2056 1386 986 728 580 510 486 508
1230.0 552 606 642 660 685 714 702 691 725 792
1270.0 886 997 1109 1248 1341 1319 1253 1161 1018 905
1310.0 867 884 961 1095 1286 1457 1524 1513 1460 1445
1350.0 1614 2011 2602 3258 3725 3733 3305 2591 1785 1241
1390.0 926 704 553 442 379 335 299 282 281 290
1430.0 313 382 490 625 793 1032 1344 1665 1783 1640
1470.0 1297 800 429 280 213 181 171 166 158 165
1510.0 175 176 186 226 281 350 449 572 726 896
1550.0 1067 1205 1310 1398 1486 1632 1917 2416 3063 3609
1590.0 3672 3235 2454 1525 864 561 408 316 262 230
1630.0 208 188 177 157 144 142 137 131 130 146
1670.0 167 170 175 196 218 242 264 285 328 374
1710.0 394 428 469 494 526 595 728 972 1413 2103
1750.0 3208 4966 7327 9289 10000 9838 8349 5730 3571 2256
1790.0 1435 927 644 491 406 379 375 363 347 337
1830.0 301 242 198 178 164 140 131 132 125 135
1870.0 146 143 132 141 148 152 165 159 149 143
1910.0 130 110 101 96 95 109 114 113 111 101
1950.0 89 85 86 81 82 82 77 82 82 68
1990.0 63 60 52 46 46 50 57 51 52 52
2030.0 51 41 36 41 38 32 45 59 55 50
2070.0 49 45 55 53 47 53 51 43 44 45
2110.0 49 43 38 47 51 47 39 42 48 61
2150.0 59 52 57 55 48 55 66 71 71 64
2190.0 48 45 48 39 33 28 20 26 29 35
2230.0 31 33 44 38 45 54 64 59 52 59
2270.0 53 44 42 36 29 35 44 47 49 47
2310.0 48 49 54 60 55 51 62 61 51 60
2350.0 77 76 83 86 92 101 88 82 70 57
2390.0 56 50 49 50 53 59 61 59 46 45
2430.0 52 60 65 61 66 56 53 70 79 77
2470.0 79 72 62 71 63 53 53 45 34 37
2510.0 39 38 45 40 36 40 43 43 42 46
2550.0 38 38 33 35 46 58 56 35 32 35
2590.0 29 39 52 50 26 25 46 42 35 52
2630.0 54 34 25 33 31 29 47 51 49 45
2670.0 42 31 38 47 32 43 57 49 38 31
2710.0 34 33 33 38 31 26 18 18 31 28
2750.0 15 17 19 30 37 28 23 21 37 40
2790.0 39 33 23 24 10 4 13 15 22 36
2830.0 26 18 28 52 55 42 52 43 32 27
2870.0 32 38 42 52 40 55 49 18 31 55
2910.0 43 40 35 14 13 36 47 24 0 19
2950.0 55 36 22 33 35 43 38 22 20 43
2990.0 48 16 41 56 42 63 67 68 53 35
3030.0 50 54 44 40 45 49 55 54 49 50
3070.0 70 86 89 96 87 100 119 127 122 94
3110.0 70 45 26 51 83 59 55 74 71 62
3150.0 52 43 62 67 43 40 52 62 56 42
3190.0 44 42 32 29 38 29 20 42 47 29
3230.0 36 30 19 30 45 33 40 76 63 41
3270.0 52 39 16 41 68 72 72 63 59 69
3310.0 54 58 89 85 60 46 49 45 50 55
3350.0 68 72 42 49 76 90 95 74 57 54
3390.0 55 44 70 108 123 132 112 84 73 72
3430.0 97 87 68 74 103 85 79 89 49 50
3470.0 81 93 88 101 135 145 145 159 178 204
3510.0 215 200 181 190 219 200 147 145 158 168
3550.0 211 271 381 573 956 1643 2650 3592 3801 3374
3590.0 2443 1251 517 265 203 153 101 110 134 132
3630.0 130 123 104 109 133 127 101 90 99 131
3670.0 146 141 106 111 142 138 130 135 139 133
3710.0 87 76 116 97 73 76 100 108 108 109
3750.0 93 93 91 100 102 82 93 69 53 81
3790.0 79 96 121 106 102 105 103 108 111 83
3830.0 78 74 81 100 83
##END=
