##TITLE=1,2,4-Benzenetriol
##JCAMP-DX=4.24
##DATA TYPE=INFRARED SPECTRUM
##ORIGIN=NIST Mass Spectrometry Data Center
##OWNER=NIST Standard Reference Data Program
Collection (C) 2018 copyright by the U.S. Secretary of Commerce
on behalf of the United States of America. All rights reserved.
##CAS REGISTRY NO=533-73-3
##MOLFORM=C 6 H 6 O 3
##$NIST SOURCE=MSDC-IR
##SPECTROMETER/DATA SYSTEM=HP-GC/MS/IRD
##STATE=gas
##XUNITS=1/CM
##YUNITS=ABSORBANCE
##XFACTOR=1.0
##YFACTOR=0.000001000
##DELTAX=4.0
##FIRSTX=550.0
##LASTX=3846.0
##FIRSTY=0.001618
##MAXX=3846
##MINX=550
##MAXY=0.01
##MINY=0
##NPOINTS=825
##XYDATA=(X++(Y..Y))
550.0 1618 973 617 878 949 991 1245 1348 1266 1237
590.0 1216 1217 1134 984 860 786 671 511 382 277
630.0 160 120 125 82 56 35 38 105 106 45
670.0 60 47 30 29 77 168 122 76 61 55
710.0 77 111 175 281 530 726 698 673 684 621
750.0 497 428 506 777 1279 1973 2635 3001 3054 3076
790.0 2831 2171 1558 1278 1155 1088 1140 1195 1196 1274
830.0 1498 1615 1393 1186 1133 1103 1107 1068 1042 1079
870.0 1117 1435 1778 1463 1074 956 801 615 457 339
910.0 278 259 237 200 177 188 223 324 576 988
950.0 1499 1943 2140 2118 1989 1654 1119 607 337 252
990.0 194 156 140 129 132 164 195 190 211 225
1030.0 262 281 243 266 337 367 431 502 554 674
1070.0 827 1084 1525 2087 2638 2981 3093 3093 2920 2514
1110.0 2043 1729 1736 2086 2811 3961 5349 6717 8008 9110
1150.0 9817 10000 9930 9851 9495 8840 8054 7199 6319 5540
1190.0 5225 5357 5772 6251 6466 6350 6010 5548 4919 4114
1230.0 3565 3518 3919 4609 5309 5796 5974 5784 5186 4271
1270.0 3365 2797 2643 2803 3184 3685 4176 4635 5008 5256
1310.0 5325 5085 4519 3900 3393 2803 2238 1915 1875 2047
1350.0 2350 2653 2841 2842 2654 2353 2012 1683 1513 1591
1390.0 1891 2366 2910 3353 3617 3645 3438 2989 2341 1713
1430.0 1245 975 862 841 930 1072 1304 1577 1756 1917
1470.0 2024 2053 1953 1848 1927 2283 3022 4233 5771 7392
1510.0 8755 9516 9564 8777 7362 5714 4122 2776 1790 1234
1550.0 988 857 740 638 583 545 545 612 715 897
1590.0 1136 1383 1644 1913 2180 2423 2569 2595 2536 2384
1630.0 2149 1985 1967 2103 2473 3104 3974 4769 5382 5907
1670.0 6309 6294 5656 4804 4061 3367 2489 1663 1175 879
1710.0 685 582 484 379 322 301 278 219 186 206
1750.0 229 216 213 213 198 168 132 127 125 115
1790.0 129 130 128 136 111 111 111 102 97 83
1830.0 68 57 43 48 50 29 21 23 25 39
1870.0 56 55 50 46 39 40 34 24 19 6
1910.0 8 22 41 26 0 14 30 31 24 14
1950.0 20 22 20 38 31 21 25 29 25 9
1990.0 1 0 9 13 6 3 8 35 48 38
2030.0 41 49 48 48 40 34 42 53 54 55
2070.0 53 52 52 65 76 68 62 56 56 51
2110.0 56 62 54 49 42 35 47 50 47 36
2150.0 28 43 45 37 32 41 56 54 43 47
2190.0 49 63 59 30 34 49 56 48 49 58
2230.0 51 62 78 84 100 107 109 112 110 112
2270.0 107 95 87 83 84 94 108 112 99 95
2310.0 103 95 85 86 80 72 74 91 106 107
2350.0 114 107 89 85 87 93 88 87 97 109
2390.0 122 130 131 127 132 144 160 171 170 173
2430.0 165 159 170 183 187 174 172 166 156 161
2470.0 172 165 145 143 136 120 118 130 129 121
2510.0 116 117 122 119 100 82 88 94 87 98
2550.0 118 104 94 109 98 74 90 105 98 84
2590.0 79 89 97 96 90 86 88 94 84 84
2630.0 96 88 53 48 64 63 53 56 76 75
2670.0 61 56 60 55 52 60 41 38 48 38
2710.0 49 72 74 60 48 47 52 63 53 29
2750.0 32 50 50 41 50 60 62 53 65 53
2790.0 41 39 39 53 53 45 63 68 55 77
2830.0 96 91 61 64 85 56 52 78 75 53
2870.0 44 57 67 64 80 58 42 43 50 53
2910.0 49 68 65 59 71 65 42 40 42 36
2950.0 32 32 53 74 71 72 90 90 94 82
2990.0 75 87 85 94 113 132 162 216 294 377
3030.0 463 534 591 628 646 633 570 495 427 353
3070.0 292 227 203 194 155 108 91 110 112 98
3110.0 80 66 82 97 94 113 117 91 86 95
3150.0 81 56 47 46 56 66 54 34 39 48
3190.0 58 78 50 26 52 59 53 55 48 39
3230.0 57 55 55 79 103 103 88 87 96 92
3270.0 91 111 122 97 116 156 163 179 182 160
3310.0 166 179 170 171 155 151 179 161 149 159
3350.0 159 169 180 175 163 152 144 136 141 139
3390.0 142 168 182 180 184 208 228 231 254 323
3430.0 438 562 731 987 1262 1470 1616 1687 1650 1491
3470.0 1261 1038 843 679 570 488 426 410 395 365
3510.0 332 309 301 291 252 209 208 221 221 222
3550.0 216 209 213 286 416 532 725 1099 1639 2277
3590.0 2875 3363 3706 3811 3662 3261 2740 2267 1851 1525
3630.0 1355 1399 1716 2291 3112 3862 4264 4383 4278 3852
3670.0 3081 2233 1572 1056 694 462 326 248 227 211
3710.0 200 199 197 198 202 196 197 213 216 195
3750.0 203 225 235 226 212 210 217 197 186 203
3790.0 213 194 157 170 186 173 190 196 167 159
3830.0 164 159 131 131 176
##END=
