##TITLE=4-Nitrophenylacetone
##JCAMP-DX=4.24
##DATA TYPE=INFRARED SPECTRUM
##ORIGIN=EPA-IR VAPOR PHASE LIBRARY
##OWNER=SRD/NIST
Collection (C) 2018 copyright by the U.S. Secretary of Commerce
on behalf of the United States of America. All rights reserved.
##CAS REGISTRY NO=5332-96-7
##MOLFORM=C 9 H 9 N O 3
##$NIST SOURCE=MSDC-IR
##STATE=gas
##XUNITS=1/CM
##YUNITS=ABSORBANCE
##XFACTOR=1.
##YFACTOR=0.001
##DELTAX=1.92898
##FIRSTX=549.8
##LASTX=4000.7
##FIRSTY=7.109
##MAXX=4000.7
##MINX=549.759
##MAXY=0.195999
##MINY=0
##NPOINTS=1790
##XYDATA=(X++(Y..Y))
549.759 7.109 7.809 8.499 8.839 9.689 10.859 11.719 12.159 11.729 11.049
569.049 10.269 9.469 8.779 7.939 6.749 5.359 4.239 3.669 3.489 3.529
588.339 3.379 2.849 2.619 2.529 2.299 2.149 1.749 2.099 2.749 2.319
607.628 1.939 1.889 2.109 2.329 2.339 1.999 1.909 1.969 1.749 1.609
626.918 1.489 1.919 1.839 1.2819 1.3893 1.449 1.459 1.889 2.359 2.939
646.208 3.239 3.589 4.229 4.969 5.789 6.069 6.099 6.169 5.989 4.939
665.498 4.589 4.809 4.639 4.759 5.119 5.639 6.409 7.509 8.759 10.329
684.787 11.709 12.919 14.149 15.279 15.979 15.939 15.589 14.939 13.889 12.419
704.077 11.229 10.139 9.089 8.419 8.219 8.229 8.359 9.179 9.869 10.999
723.367 12.279 13.229 14.669 16.299 17.399 18.339 18.959 18.779 17.419 15.529
742.657 13.849 12.239 10.469 8.639 7.379 6.339 5.149 4.469 4.109 3.499
761.947 3.419 3.649 3.719 4.009 4.119 4.449 4.779 4.969 5.129 5.379
781.236 5.719 5.609 5.619 5.779 5.949 6.069 6.169 6.659 7.299 7.309
800.526 7.779 8.659 8.999 9.769 10.729 11.809 13.519 14.189 14.489 15.059
819.816 14.669 14.099 13.749 12.779 11.489 10.929 10.849 11.279 12.119 13.409
839.106 14.999 16.809 19.319 22.749 27.609 33.339 39.649 45.849 50.009 51.079
858.395 49.999 46.859 41.449 34.119 25.809 19.229 15.079 12.459 10.539 9.249
877.685 8.129 6.619 5.909 5.769 5.619 5.209 4.509 4.019 4.089 4.189
896.975 3.909 3.269 3.019 3.159 2.929 2.879 2.589 2.629 2.909 2.679
916.265 2.299 2.169 2.159 2.169 2.089 1.969 2.189 2.199 2.119 2.029
935.555 1.929 1.869 1.979 2.289 2.029 2.149 2.769 3.139 3.199 2.719
954.844 2.689 3.169 3.509 3.629 3.619 3.629 3.789 4.199 4.499 4.559
974.134 4.779 4.579 4.489 4.379 4.109 4.449 4.539 4.299 4.169 4.399
993.424 4.659 4.589 4.339 4.299 4.739 5.399 5.999 6.529 7.349 8.409
1012.714 10.449 12.149 12.609 12.899 12.509 11.029 9.129 7.209 5.229 4.219
1032.003 3.969 3.749 3.549 3.229 3.149 3.289 3.289 2.969 3.269 3.249
1051.293 3.179 3.439 3.119 3.099 3.429 3.919 3.589 2.639 2.579 3.259
1070.583 3.319 2.739 2.709 3.599 3.759 3.269 4.099 4.599 4.149 3.719
1089.873 4.699 5.819 5.149 6.169 7.899 9.339 11.429 12.339 12.759 13.709
1109.163 14.439 15.659 16.399 15.109 13.299 12.229 12.319 12.539 12.379 12.459
1128.452 12.899 14.569 15.819 17.809 20.319 22.049 24.649 27.839 30.759 32.879
1147.742 35.739 37.369 37.459 37.389 35.849 33.699 31.349 27.939 24.839 23.009
1167.032 21.199 19.809 19.389 19.239 19.409 20.299 21.229 22.389 23.169 23.099
1186.322 23.409 23.169 22.299 21.699 21.279 21.549 21.729 21.339 21.569 22.989
1205.611 24.709 25.409 26.709 28.139 28.829 29.179 29.099 27.969 26.999 25.889
1224.901 24.149 23.199 21.549 19.299 17.359 16.079 15.319 13.409 11.779 11.529
1244.191 11.369 11.119 10.759 10.119 9.659 9.499 9.589 9.609 9.289 9.239
1263.481 9.559 9.909 10.409 10.779 11.379 12.179 12.509 13.099 13.729 13.919
1282.771 14.349 14.929 15.589 15.989 16.659 17.489 18.189 19.249 20.249 21.249
1302.060 22.089 22.909 23.959 24.999 26.009 26.919 27.939 29.069 30.129 30.989
1321.350 32.009 33.559 35.659 38.419 41.939 46.939 53.719 62.529 74.049 88.619
1340.640 106.219 126.279 147.579 167.839 183.979 193.659 195.999 190.539 177.249 157.469
1359.930 134.229 111.539 91.969 75.969 62.929 52.629 44.629 38.359 33.509 29.889
1379.219 27.219 25.139 23.599 22.449 21.509 20.629 19.729 18.869 17.989 17.169
1398.509 16.299 15.369 14.689 14.319 14.089 13.969 14.169 14.449 14.789 15.189
1417.799 15.529 15.889 16.179 16.339 16.469 16.429 16.009 15.559 15.119 14.609
1437.089 14.019 13.299 12.609 12.009 11.489 10.909 10.289 9.879 9.599 9.339
1456.378 9.299 9.189 9.109 9.249 9.399 9.629 9.939 10.359 10.809 11.519
1475.668 12.539 13.639 14.879 16.319 18.069 20.439 23.299 26.369 29.329 31.659
1494.958 33.109 33.529 33.119 32.189 30.729 29.279 28.459 28.829 30.619 33.659
1514.248 37.729 43.079 49.669 57.469 66.789 76.889 87.879 99.439 110.549 120.359
1533.538 128.259 133.829 136.589 136.509 133.769 128.389 120.399 110.449 99.639 88.629
1552.827 78.149 68.559 60.369 53.259 47.049 42.049 38.019 34.699 31.889 29.559
1572.117 27.799 26.259 25.089 24.599 24.459 24.569 25.459 26.939 28.849 31.509
1591.407 34.789 38.389 42.229 45.979 48.729 50.459 50.759 49.009 45.769 41.359
1610.697 36.519 32.069 28.009 23.839 20.049 17.019 14.309 12.079 10.299 8.969
1629.986 8.159 7.509 6.929 6.649 6.529 6.429 6.279 6.109 6.049 6.049
1649.276 6.189 6.359 6.389 6.469 6.539 6.549 6.669 6.639 6.719 6.969
1668.566 7.139 7.299 7.619 7.979 8.229 8.659 8.999 9.389 10.079 10.919
1687.856 11.759 12.539 13.509 14.619 15.799 17.099 18.609 20.249 21.829 23.719
1707.146 25.989 28.539 31.329 34.679 38.409 42.539 47.369 52.569 58.439 64.659
1726.435 70.379 75.279 78.899 80.659 80.689 79.279 76.279 71.989 67.159 61.969
1745.725 57.079 52.709 48.499 44.509 40.699 36.949 33.409 30.309 27.439 24.759
1765.015 22.419 20.429 18.599 16.839 15.309 13.939 12.799 11.789 10.889 10.219
1784.305 9.609 8.999 8.409 7.879 7.399 6.779 6.189 5.759 5.249 4.679
1803.594 4.289 3.839 3.389 3.219 3.029 2.849 2.609 2.479 2.469 2.329
1822.884 2.149 2.029 1.919 1.819 1.779 1.729 1.639 1.589 1.489 1.409
1842.174 1.459 1.489 1.459 1.399 1.367 1.3702 1.409 1.359 1.2878 1.3433
1861.464 1.409 1.3769 1.3243 1.3559 1.3901 1.3825 1.3517 1.3696 1.3023 1.2145
1880.754 1.3016 1.399 1.3706 1.469 1.519 1.529 1.589 1.679 1.819 1.959
1900.043 2.199 2.329 2.369 2.629 2.889 2.929 3.039 3.199 3.359 3.319
1919.333 3.279 3.319 3.139 2.879 2.709 2.469 2.349 2.339 2.049 1.849
1938.623 1.669 1.529 1.429 1.3471 1.38 1.3807 1.2412 1.1299 1.1257 1.1056
1957.913 1.0292 0.9935 1.0783 1.1102 1.1081 1.0128 1.0002 0.995 0.9566 1.0805
1977.202 1.1288 1.1205 1.0544 0.9634 1.0963 1.0714 0.9961 0.985 0.9091 0.8775
1996.492 0.9082 0.9954 1.0325 1.0068 0.9384 0.9755 1.0364 1.0117 0.9934 0.9082
2015.782 0.9371 0.9619 0.8298 0.8141 0.8457 0.9502 1.0384 0.9949 0.8737 0.9673
2035.072 1.0973 1.0276 0.8788 0.8403 0.9335 0.9189 0.8558 0.7737 0.77 0.8355
2054.362 0.8717 0.8095 0.7023 0.6946 0.897 1.0337 0.8767 0.7788 0.8422 0.958
2073.651 0.9308 0.8478 0.7964 0.7105 0.8042 0.9435 1.0096 0.8954 0.7718 0.8623
2092.941 0.907 0.9374 1.0155 1.0203 0.8938 0.8958 0.9903 0.9033 0.8498 0.9034
2112.231 0.8631 0.8416 0.9347 1.0265 1.0443 0.9759 0.9769 1.0664 1.0328 1.0024
2131.521 1.0622 1.0771 1.0456 0.9619 0.9306 0.9359 0.9144 0.8367 0.7478 0.7522
2150.810 0.8 0.8002 0.7777 0.866 1.0023 1.0232 0.9096 0.9026 0.7942 0.702
2170.100 0.8023 0.8801 0.8556 0.8403 0.8417 0.8072 0.8381 0.7592 0.799 0.8106
2189.390 0.698 0.8059 0.8847 0.7982 0.7098 0.8223 0.9023 0.8918 0.9851 1.0136
2208.680 1.0689 1.0879 1.0677 0.974 0.8304 0.9614 1.0355 0.9612 1.0274 1.0803
2227.970 1.0809 0.9689 0.776 0.6642 0.5921 0.6342 0.7311 0.6496 0.6677 0.6946
2247.259 0.6183 0.7169 0.6271 0.45197 0.505 0.6151 0.6466 0.6348 0.5401 0.42527
2266.549 0.6256 0.7393 0.7711 0.8238 0.8064 0.8732 0.8536 0.9024 1.0214 1.0631
2285.839 0.9603 0.9123 0.8366 0.795 0.8813 0.9158 1.027 1.0897 1.0582 0.887
2305.129 0.7971 0.801 0.845 0.901 0.864 0.7583 0.8816 0.9975 0.8232 0.707
2324.418 0.7935 0.964 0.9887 0.8395 0.7214 0.7236 0.7703 0.7903 0.7797 0.9251
2343.708 0.9063 0.6913 0.8548 1.0367 0.7703 0.673 0.6895 0.6865 0.7685 0.8527
2362.998 0.8754 0.8473 0.9525 1.033 1.0873 1.0185 0.8986 0.8344 0.8605 0.8506
2382.288 0.9086 1.0507 1.0464 0.9947 0.918 0.8574 0.8796 0.9897 1.1022 1.0896
2401.578 1.0471 1.1001 0.8956 0.7654 0.9158 0.9804 0.887 0.888 1.0326 1.0119
2420.867 0.9282 1.0876 1.0613 0.8155 0.9434 1.1562 1.0673 0.87 0.8739 0.919
2440.157 0.9982 1.3137 1.3658 1.1763 1.3525 1.619 1.599 1.609 1.579 1.659
2459.447 1.789 1.629 1.579 1.489 1.3804 1.1888 1.0812 1.2591 1.1727 0.9001
2478.737 0.8045 0.8229 0.842 0.9532 0.9831 0.9088 0.8745 0.7473 0.6673 0.9268
2498.026 1.0464 0.8948 0.8523 0.984 0.9166 0.6926 0.8036 0.8734 0.7763 0.8012
2517.316 0.7447 0.7296 0.8923 0.8709 0.6938 0.6018 0.7206 0.6959 0.6668 0.8472
2536.606 0.8199 0.7017 0.6615 0.7915 0.9859 0.8262 0.5859 0.5713 0.6322 0.6117
2555.896 0.8149 0.8534 0.6933 0.8553 0.8657 0.7199 0.9581 0.9645 0.6792 0.7534
2575.186 0.7974 0.7748 0.9012 1.038 0.8873 0.8427 0.8536 0.7864 0.9035 0.7967
2594.475 0.7818 0.9188 0.9195 0.976 1.0883 1.2588 1.2689 1.2514 1.3017 1.1208
2613.765 0.9731 1.0149 1.1138 1.1767 1.014 0.7576 0.7215 0.8776 0.9349 0.766
2633.055 0.6974 0.7685 0.8161 0.73 0.6113 0.8302 0.9331 0.7368 0.7155 0.7288
2652.345 0.7922 0.7659 0.7175 0.7223 0.6845 0.8054 0.8875 0.8562 0.853 0.9972
2671.634 0.9951 0.9491 1.0637 1.1306 1.2371 1.33 1.3655 1.3113 1.2546 1.439
2690.924 1.469 1.392 1.429 1.609 1.829 1.749 1.639 1.779 1.829 1.849
2710.214 1.819 1.639 1.559 1.699 1.719 1.3866 1.3494 1.377 1.2587 1.3209
2729.504 1.2303 1.2273 1.1773 0.9817 1.0462 1.0822 0.887 0.8705 0.9229 1.0019
2748.794 1.19 1.19 1.0243 0.9469 0.9843 1.0299 0.8857 0.7631 0.9681 1.0382
2768.083 1.0575 1.0566 1.1411 1.18 1.0582 1.0419 1.149 1.197 1.1181 1.0903
2787.373 1.0324 1.0073 1.0503 0.9884 0.8844 1.0342 1.1395 1.2323 1.3918 1.3341
2806.663 1.3619 1.3959 1.3484 1.3074 1.3932 1.599 1.809 1.909 1.899 1.839
2825.953 1.709 1.839 2.069 2.299 2.469 2.539 2.589 2.889 3.099 3.189
2845.242 3.179 3.099 3.239 3.249 3.439 3.519 3.559 3.639 3.559 3.689
2864.532 3.759 4.039 4.289 4.209 4.369 4.529 4.499 4.519 4.829 5.049
2883.822 5.209 5.309 5.339 5.569 5.689 5.829 6.159 6.479 6.719 6.899
2903.112 7.169 7.549 7.739 7.979 8.359 8.579 8.779 9.039 9.379 9.879
2922.401 10.159 10.369 10.679 10.889 11.029 10.999 10.819 10.469 9.949 9.549
2941.691 9.109 8.609 8.339 8.069 7.839 7.669 7.619 7.509 7.389 7.499
2960.981 7.419 7.449 7.649 7.629 7.419 7.309 7.119 6.729 6.269 5.809
2980.271 5.549 5.409 5.229 4.789 4.579 4.539 4.449 4.529 4.549 4.639
2999.561 4.809 4.819 4.969 5.339 5.489 5.809 6.179 6.379 6.499 6.319
3018.850 6.019 5.879 5.699 5.439 5.289 5.269 5.239 5.289 5.729 5.799
3038.140 5.749 6.039 6.369 6.819 7.229 7.589 7.749 7.819 7.869 8.259
3057.430 8.439 7.959 7.829 7.879 7.479 7.129 7.179 6.939 6.609 6.909
3076.720 7.149 6.979 7.019 7.049 6.569 6.079 5.489 4.779 4.209 3.599
3096.009 3.009 2.809 2.839 2.619 2.139 1.689 1.809 1.989 1.829 1.669
3115.299 1.489 1.3162 1.2383 1.269 1.3276 0.9876 0.7766 0.9076 1.1035 1.0935
3134.589 0.8873 0.8876 0.8522 0.7762 0.8795 0.7113 0.7102 0.9142 0.8803 1.0464
3153.879 1.0073 0.9487 0.9202 0.805 0.8855 0.7556 0.5729 0.6137 0.6168 0.43035
3173.169 0.39349 0.5235 0.7618 0.8666 0.7337 0.787 0.7284 0.8129 0.8961 0.766
3192.458 0.7831 0.8309 0.9792 1.1155 1.0539 1.0277 0.95 1.0342 0.9667 0.6616
3211.748 0.6757 0.7364 0.6204 0.4283 0.47747 0.5774 0.264 0.138 0.255 0.3843
3231.038 0.5259 0.38912 0.251 0.42181 0.6054 0.5173 0.308 0.3815 0.6587 0.6867
3250.328 0.545 0.5224 0.5451 0.408843 0.264 0.3821 0.5403 0.3388 0.102 0.202
3269.617 0.186 0.074 0.241 0.5048 0.554 0.3669 0.42328 0.47228 0.6588 0.7576
3288.907 0.5126 0.295 0.45416 0.7696 0.9262 0.8399 0.5638 0.46026 0.5825 0.7654
3308.197 0.5196 0.3673 0.43401 0.48599 0.7405 0.7066 0.49199 0.6637 0.7691 0.5362
3327.487 0.5432 0.6728 0.7798 0.9354 0.8601 0.7141 0.5477 0.3571 0.44537 0.5375
3346.777 0.45257 0.178 0.235 0.41184 0.6341 0.6693 0.28 0.222 0.267 0.44399
3366.066 0.719 0.8116 0.6637 0.44306 0.6501 0.6726 0.3189 0.219 0.401371 0.787
3385.356 0.7981 0.8298 0.8498 0.6343 0.5707 0.38964 0.313 0.6066 0.9354 0.8246
3404.646 0.5346 0.6947 0.9841 0.7359 0.7293 1.0442 0.8859 0.9553 1.1774 1.3792
3423.936 1.549 1.3616 1.3843 1.419 1.529 1.579 1.489 1.669 1.789 1.819
3443.225 1.839 1.849 2.109 2.149 1.879 1.889 1.809 1.569 1.689 1.859
3462.515 1.619 1.449 1.274 1.123 1.2038 1.3207 1.3285 1.2342 1.2019 1.2961
3481.805 1.0955 1.0195 1.0302 1.0323 1.0562 0.9018 0.8761 0.7411 0.7126 0.904
3501.095 0.8219 0.5917 0.43449 0.296 0.407232 0.49389 0.5902 0.655 0.47013 0.5035
3520.385 0.508 0.3805 0.45555 0.266 0.24 0.7068 0.8046 0.42072 0.136 0.298
3539.674 0.6801 0.8449 0.7459 0.49821 0.3433 0.3871 0.47484 0.226 0.3576 0.661
3558.964 0.46247 0.42509 0.6175 0.5315 0.374 0.3591 0.47354 0.5031 0.47487 0.5038
3578.254 0.5501 0.5834 0.273 0.194 0.42192 0.3152 0.3057 0.5535 0.47756 0.48399
3597.544 0.3194 0.275 0.7369 0.8099 0.39054 0.198 0.215 0.274 0.564 0.5553
3616.833 0.3702 0.5096 0.48674 0.26 0.46792 0.8548 0.806 0.6688 0.6835 0.6987
3636.123 0.6554 0.6426 0.49779 0.3092 0.6114 0.7256 0.5194 0.47796 0.41861 0.4991
3655.413 0.3773 0.233 0.3474 0.234 0.252 0.285 0.5236 0.734 0.6272 0.238
3674.703 0.124 0.5276 0.5344 0.5493 0.6434 0.39445 0.39649 0.6998 0.6729 0.5172
3693.993 0.5261 0.39343 0.318 0.5098 0.541 0.6732 0.3724 0.176 0.7573 0.9044
3713.282 0.5275 0.46247 0.6612 0.7847 0.7729 0.6688 0.784 0.7291 0.46295 0.377
3732.572 0.408681 0.7093 0.6378 0.354 0.39536 0.297 0.501 0.7584 0.598 0.5409
3751.862 0.608 0.3758 0.3117 0.42896 0.5348 0.6705 0.6303 0.5026 0.44478 0.45997
3771.152 0.226 0 0.02 0.156 0.377 0.29 0.248 0.3139 0.347 0.3456
3790.441 0.276 0.5788 0.5093 0.39112 0.6902 0.6465 0.266 0.135 0.3655 0.44713
3809.731 0.188 0.085 0.42415 0.7257 0.8629 0.7415 0.3817 0.3726 0.272 0.155
3829.021 0.246 0.3134 0.46199 0.41843 0.41217 0.44061 0.4995 0.44648 0.3692 0.4535
3848.311 0.5514 0.49048 0.5553 0.6374 0.39714 0.38935 0.3514 0.241 0.5314 0.6087
3867.601 0.3876 0.3313 0.282 0.179 0.3546 0.5456 0.6423 0.578 0.4848 0.45589
3886.890 0.217 0.45079 0.7829 0.7589 0.6549 0.6816 0.49649 0.3447 0.5182 0.586
3906.180 0.7947 0.7769 0.5323 0.65 0.49738 0.3775 0.47391 0.4889 0.73 0.7478
3925.470 0.4514 0.44125 0.466 0.5172 0.6953 0.49736 0.5107 0.6365 0.3791 0.3398
3944.760 0.3345 0.022 0.162 0.5641 0.789 0.5078 0.023 0.013 0.3564 0.6549
3964.049 0.4896 0.44785 0.48086 0.598 0.6168 0.42978 0.22 0.232 0.6858 0.5906
3983.339 0.3854 0.6215 0.6415 0.6455 0.3752 0.054 0.19 0.209 0.3222 0.48339
##END=
