##TITLE=Ethyl .alpha.-bromoheptanoate
##JCAMP-DX=4.24
##DATA TYPE=INFRARED SPECTRUM
##ORIGIN=EPA-IR VAPOR PHASE LIBRARY
##OWNER=SRD/NIST
Collection (C) 2018 copyright by the U.S. Secretary of Commerce
on behalf of the United States of America. All rights reserved.
##CAS REGISTRY NO=5333-88-0
##MOLFORM=C 9 H 17 Br O 2
##$NIST SOURCE=MSDC-IR
##STATE=gas
##XUNITS=1/CM
##YUNITS=ABSORBANCE
##XFACTOR=1.
##YFACTOR=0.001
##DELTAX=3.85796
##FIRSTX=501.5
##LASTX=4000.7
##FIRSTY=2.41
##MAXX=4000.7
##MINX=501.534
##MAXY=0.21481
##MINY=0.0001836
##NPOINTS=908
##XYDATA=(X++(Y..Y))
501.534 2.41 2.34 2.54 2.77 2.75 2.67 2.51 2.53 2.58 2.49
540.114 2.48 2.52 2.46 2.45 2.43 2.4 2.41 2.46 2.63 2.88
578.693 3.18 3.48 3.8 4.29 4.7 4.87 5.04 5.05 4.89 4.68
617.273 4.46 4.33 4.34 4.45 4.59 4.77 5.13 5.63 6.23 7.07
655.852 8.17 9.5 10.89 12.14 12.98 13.16 12.74 12.01 11.06 9.98
694.432 8.88 8.04 7.59 7.36 7.34 7.55 7.97 8.55 9.08 9.44
733.011 9.53 9.21 8.53 7.77 7.11 6.69 6.54 6.48 6.46 6.5
771.591 6.53 6.63 6.76 6.82 6.8 6.71 6.49 6.26 6.01 5.7
810.170 5.42 5.22 5.17 5.24 5.52 6.03 6.73 7.66 8.71 9.81
848.750 10.97 12.08 12.99 13.33 12.86 11.62 9.99 8.52 7.4 6.79
887.330 6.56 6.58 6.83 7.24 7.7 8.07 8.32 8.54 8.66 8.79
925.909 8.89 8.8 8.57 8.26 7.92 7.63 7.48 7.39 7.39 7.54
964.489 7.7 7.91 8.21 8.57 9.02 9.56 10.37 11.54 13.18 15.46
1003.068 18.6 22.65 27.7 33.79 40.82 48.28 55 59.59 61.01 59.68
1041.648 56.45 52.13 47.1 41.76 36.61 32.13 28.76 26.54 25.44 25.4
1080.227 26.31 28.32 31.74 36.49 42.02 47.67 52.47 55.94 58.33 59.75
1118.807 61.02 63.87 70.18 81.69 99.44 122.6 146.84 164.72 168.31 155.75
1157.387 133.87 113.07 99.93 94.67 94.02 94.04 92.13 87.84 82.36 77.41
1195.966 74.27 73.65 75.51 78.85 82.04 83.94 84.15 83.66 84.3 87.08
1234.546 92.33 99.67 108.08 116.41 123.48 128.42 129.92 126.99 119.89 110.08
1273.125 99.33 89.34 80.92 74.22 68.98 64.62 60.9 57.85 55.19 52.31
1311.705 48.88 45.12 41.7 39.21 37.83 37.34 37.24 36.9 35.82 33.91
1350.284 31.43 29.05 27.93 29.59 34.53 40.29 43.36 41.77 36.49 30.54
1388.864 25.68 22.19 19.74 17.99 16.6 15.53 14.78 14.43 14.52 15.07
1427.443 16.38 18.49 21.06 23.7 25.94 27.99 29.95 31.68 33.25 34.28
1466.023 34.24 32.67 29.17 24.43 19.59 15.5 12.4 10.21 8.7 7.55
1504.603 6.77 6.09 5.56 5.16 4.85 4.59 4.34 4.12 3.94 3.78
1543.182 3.64 3.49 3.36 3.26 3.2 3.11 3.04 3 2.97 2.93
1581.762 2.87 2.81 2.75 2.71 2.7 2.66 2.63 2.62 2.6 2.59
1620.341 2.58 2.59 2.6 2.61 2.66 2.74 2.82 2.93 3.07 3.22
1658.921 3.37 3.6 3.86 4.17 4.55 5.03 5.66 6.48 7.42 8.72
1697.500 10.4 12.48 14.86 17.62 20.76 24.71 29.66 36.21 45.76 59.97
1736.080 82.18 112.05 150.25 189.13 214.03 214.81 191.98 150.36 110.55 80.45
1774.659 59.58 45.7 35.4 27.61 21.85 17.44 14.11 11.54 9.57 8.08
1813.239 6.9 6.01 5.31 4.74 4.27 3.9 3.59 3.35 3.14 2.96
1851.819 2.83 2.74 2.67 2.64 2.63 2.62 2.6 2.6 2.59 2.54
1890.398 2.47 2.4 2.27 2.15 2.05 1.94 1.82 1.74 1.67 1.6
1928.978 1.55 1.5 1.48 1.46 1.44 1.45 1.45 1.44 1.46 1.47
1967.557 1.48 1.5 1.5 1.5 1.52 1.55 1.56 1.6 1.65 1.7
2006.137 1.74 1.76 1.75 1.73 1.72 1.7 1.67 1.63 1.59 1.58
2044.716 1.57 1.53 1.5 1.49 1.49 1.48 1.49 1.52 1.55 1.58
2083.296 1.61 1.62 1.63 1.62 1.58 1.55 1.53 1.48 1.41 1.36
2121.875 1.31 1.23 1.18 1.15 1.12 1.1 1.08 1.08 1.07 1.04
2160.455 1.03 1.02 1.01 0.9963 0.9811 0.9599 0.9516 0.9475 0.9361 0.9288
2199.035 0.9256 0.9036 0.8927 0.9086 0.927 0.9539 0.9703 0.9813 1 1.01
2237.614 0.9995 0.9964 1.01 1.02 1.02 1.03 1.04 1.04 1.04 1.03
2276.194 1.04 1.06 1.07 1.07 1.07 1.07 1.07 1.11 1.14 1.15
2314.773 1.17 1.18 1.17 1.16 1.15 1.16 1.15 1.14 1.13 1.11
2353.353 1.11 1.13 1.13 1.11 1.09 1.08 1.08 1.09 1.09 1.1
2391.932 1.1 1.09 1.1 1.11 1.1 1.12 1.12 1.09 1.12 1.12
2430.512 1.09 1.08 1.05 1.02 1.02 1.02 0.9936 0.998 1 1.01
2469.092 1.01 0.9712 0.9586 0.9774 0.9679 0.9464 0.9155 0.8812 0.8773 0.912
2507.671 0.9156 0.8882 0.8895 0.9076 0.9363 0.9379 0.9586 0.9756 0.9697 0.9923
2546.251 1.01 0.991 0.9817 1.01 0.9966 0.9743 0.9797 0.9829 0.9794 0.9863
2584.830 0.9882 0.9909 1.01 1.04 1.05 1.06 1.07 1.12 1.17 1.16
2623.410 1.17 1.2 1.24 1.28 1.32 1.34 1.35 1.39 1.41 1.48
2661.989 1.57 1.62 1.69 1.77 1.81 1.86 1.89 1.87 1.88 1.87
2700.569 1.84 1.87 1.93 1.98 2.04 2.14 2.27 2.43 2.58 2.74
2739.148 2.91 3.03 3.13 3.16 3.15 3.18 3.27 3.42 3.59 3.8
2777.728 4.03 4.27 4.54 4.84 5.14 5.46 5.83 6.28 6.78 7.36
2816.308 8.05 8.82 9.68 10.64 11.81 13.27 15.19 17.8 21.44 26.54
2854.887 33.41 41.78 50.36 57.45 61.56 62.85 62.91 62.29 60.48 57.23
2893.467 53.84 52.67 54.65 59.19 65.49 73.17 82.41 93.83 107.87 123.26
2932.046 137.24 147.39 151.99 149.7 140.98 129.73 122.62 124.11 132.53 140.4
2970.626 138.87 126.45 109.98 97.26 89.22 80.98 70.09 58.74 49.43 42
3009.205 35.58 30.06 25.34 21.34 18.08 15.43 13.32 11.56 10.11 8.98
3047.785 8.07 7.33 6.65 6.15 5.78 5.4 5.12 4.87 4.68 4.49
3086.364 4.29 4.11 3.97 3.8 3.62 3.52 3.37 3.28 3.16 3.03
3124.944 2.94 2.86 2.76 2.69 2.61 2.55 2.48 2.38 2.28 2.2
3163.524 2.18 2.12 2.03 1.93 1.8 1.71 1.66 1.59 1.53 1.48
3202.103 1.39 1.31 1.2 1.07 1.05 0.9873 0.8842 0.8691 0.8164 0.7029
3240.683 0.651 0.6463 0.5933 0.5302 0.5246 0.5168 0.4892 0.4523 0.4435 0.4513
3279.262 0.4027 0.3424 0.3462 0.3577 0.354 0.362 0.3524 0.3349 0.312 0.3348
3317.842 0.3378 0.33 0.3255 0.3107 0.3231 0.3441 0.3512 0.3641 0.3567 0.3244
3356.421 0.3311 0.3636 0.3763 0.399 0.3862 0.3678 0.4029 0.4222 0.4273 0.3597
3395.001 0.3112 0.3327 0.3215 0.3257 0.3919 0.4106 0.4156 0.4523 0.4553 0.4989
3433.580 0.5505 0.5874 0.611 0.66 0.7299 0.7586 0.8174 0.9549 1.1 1.23
3472.160 1.44 1.62 1.81 1.99 2.06 2.05 1.95 1.82 1.54 1.33
3510.740 1.19 1.07 1.01 0.9192 0.8161 0.6661 0.5275 0.4675 0.4596 0.4339
3549.319 0.3688 0.2985 0.2999 0.3024 0.2886 0.2796 0.2297 0.2041 0.2023 0.2325
3587.899 0.2458 0.2188 0.2005 0.2142 0.2393 0.1892 0.1836 0.1994 0.2157 0.2769
3626.478 0.2873 0.3195 0.3243 0.2914 0.2872 0.2898 0.2805 0.28 0.2779 0.3108
3665.058 0.3735 0.3599 0.3561 0.3078 0.2126 0.2595 0.3255 0.3255 0.3124 0.3599
3703.637 0.3417 0.2602 0.3035 0.3171 0.3124 0.3709 0.4045 0.3968 0.4261 0.4228
3742.217 0.4025 0.412 0.3915 0.3905 0.4202 0.4602 0.5145 0.5496 0.5438 0.53
3780.797 0.5344 0.535 0.5134 0.4276 0.4091 0.4658 0.4452 0.4009 0.3972 0.4268
3819.376 0.4679 0.4496 0.4848 0.5324 0.455 0.4461 0.4807 0.4977 0.4989 0.5325
3857.956 0.5357 0.4898 0.5166 0.5233 0.4938 0.5008 0.4563 0.4 0.4962 0.5327
3896.535 0.5031 0.5508 0.5244 0.4392 0.3985 0.4139 0.4577 0.505 0.5203 0.5432
3935.115 0.5327 0.4847 0.4393 0.4639 0.5402 0.5639 0.598 0.6515 0.6801 0.6591
3973.694 0.6058 0.661 0.7813 0.8515 0.8419 0.767 0.7479 0.7877
##END=
