##TITLE=N,N-Dibutylbenzenesulphonamide
##JCAMP-DX=4.24
##DATA TYPE=INFRARED SPECTRUM
##ORIGIN=EPA-IR VAPOR PHASE LIBRARY
##OWNER=SRD/NIST
Collection (C) 2018 copyright by the U.S. Secretary of Commerce
on behalf of the United States of America. All rights reserved.
##CAS REGISTRY NO=5339-59-3
##MOLFORM=C 14 H 23 N O 2 S
##$NIST SOURCE=MSDC-IR
##STATE=gas
##XUNITS=1/CM
##YUNITS=ABSORBANCE
##XFACTOR=1.
##YFACTOR=0.001
##DELTAX=1.92934
##FIRSTX=549.9
##LASTX=3999.5
##FIRSTY=49.44
##MAXX=3999.53
##MINX=549.863
##MAXY=0.28538
##MINY=0
##NPOINTS=1789
##XYDATA=(X++(Y..Y))
549.863 49.44 54.51 59.21 63.28 66.6 68.88 70.37 71.2 71.76 72.81
569.156 75.53 80.77 89.64 102.89 119.46 137 152.66 163.86 168.94 167.07
588.450 158.87 146.58 132.54 117.73 102.73 88.36 75.08 63.01 52.18 42.98
607.743 35.38 29.2 24.57 21.15 18.46 16.36 14.75 13.46 12.33 11.41
627.037 10.72 10.2 9.85 9.65 9.65 9.68 9.72 9.96 10.31 10.83
646.330 11.48 12.34 13.48 14.73 16.16 17.86 19.8 21.88 24.06 26.29
665.624 28.33 30.24 32.2 34.06 36.04 38.32 41.23 45.48 51.72 60.02
684.917 69.73 79.67 87.95 92.03 90.88 85.43 77.14 67.83 58.95 51.34
704.210 45.34 41.13 38.91 38.82 40.9 45.09 51.62 60.68 72.06 85.24
723.504 99.23 112.72 124.26 132.7 137.49 138.83 137.43 134.21 130.16 125.7
742.797 120.58 114.55 107.6 100.26 93.35 87.81 84.52 83.35 83.37 83.28
762.091 81.71 78.15 72.95 66.79 60.55 54.89 50.07 46.11 42.84 39.95
781.384 37.22 34.75 32.49 30.45 28.69 27.09 25.67 24.3 22.98 21.67
800.678 20.33 19.1 17.98 16.9 15.95 15.07 14.28 13.54 12.79 12.07
819.971 11.34 10.71 10.23 9.88 9.7 9.62 9.66 9.74 9.87 10.17
839.264 10.6 11.06 11.59 12.22 12.96 13.83 14.86 16.14 17.61 19.25
858.558 21.14 23.23 25.44 27.74 29.92 31.68 32.95 33.64 33.63 32.96
877.851 31.89 30.57 29.19 28.07 27.31 27.03 27.3 28.19 29.63 31.6
897.145 33.92 36.47 39.19 41.89 44.76 48.06 51.99 56.73 62.18 67.95
916.438 73.46 77.97 80.67 80.98 78.64 73.99 67.74 60.71 53.71 47.4
935.732 42.04 37.54 33.79 30.58 27.91 25.69 23.77 22.32 21.36 20.72
955.025 20.39 20.32 20.39 20.55 20.73 20.87 21.05 21.3 21.55 21.9
974.318 22.34 22.84 23.42 24.07 24.7 25.2 25.61 26.03 26.48 26.97
993.612 27.48 28.01 28.62 29.45 30.63 32.3 34.75 38.23 42.82 48.39
1012.905 54.7 61.32 67.63 72.88 76.32 77.42 76.17 72.66 67.15 60.53
1032.199 53.86 47.58 42.08 37.79 34.8 33.04 32.25 32.09 32.33 32.76
1051.492 33.23 33.63 33.96 34.3 34.65 34.9 35.05 35.07 34.82 34.35
1070.786 33.96 33.9 34.51 36.39 40.1 46.22 55.33 67.63 82.09 96.25
1090.079 107.21 112.34 110.34 101.94 89.29 75.23 62.78 53.32 46.51 41.64
1109.372 38.03 35.27 33.15 31.38 29.79 28.33 27.07 26.1 25.48 25.23
1128.666 25.5 26.31 27.67 29.72 32.56 36.44 41.54 48.18 56.67 67.49
1147.959 81.25 98.38 118.94 142.81 169.36 196.99 223.86 247.91 266.97 279.61
1167.253 285.38 284.12 276 261.62 241.46 216.52 188.73 160.22 132.87 108.15
1186.546 87.05 70.01 56.86 46.91 39.37 33.62 29.24 25.84 23.11 20.83
1205.840 19.02 17.62 16.58 15.77 15.12 14.68 14.47 14.52 14.8 15.33
1225.133 16.06 17.05 18.2 19.46 20.71 21.77 22.62 23.19 23.51 23.58
1244.426 23.58 23.6 23.46 23.22 22.99 22.82 22.63 22.44 22.31 22.21
1263.720 22.21 22.34 22.62 22.88 23.09 23.24 23.22 23.05 22.7 22.23
1283.013 21.7 21.14 20.59 20.16 19.97 20.09 20.66 21.79 23.45 25.58
1302.307 28 30.47 32.62 34.15 35.11 35.72 36.26 36.98 38.3 40.54
1321.600 43.75 47.89 52.77 58.02 63.43 68.76 74.08 79.9 86.69 94.85
1340.894 104.57 115.46 127.25 139.25 150.72 161.11 169.83 176.7 181.41 183.85
1360.187 184.03 182.14 178.68 174.14 168.8 162.78 155.79 147.42 137.4 125.72
1379.480 112.49 98.5 84.52 71.36 59.42 49.26 41.02 34.5 29.49 25.72
1398.774 22.93 20.86 19.28 18.04 17.08 16.34 15.76 15.32 15.03 14.89
1418.067 14.88 14.97 15.27 15.72 16.36 17.24 18.44 20.03 22.23 25.18
1437.361 29.25 34.27 39.96 45.55 49.98 52.65 52.81 50.88 48.36 46.19
1456.654 44.89 44.85 45.52 46.19 46.37 45.81 44.49 42.64 40.44 37.98
1475.948 35.57 33.22 30.83 28.25 25.41 22.41 19.43 16.67 14.41 12.81
1495.241 11.68 10.83 10.15 9.56 9.04 8.6 8.13 7.72 7.46 7.19
1514.534 6.92 6.7 6.48 6.31 6.2 6.08 5.93 5.81 5.7 5.55
1533.828 5.36 5.22 5.07 4.85 4.67 4.52 4.429 4.325 4.2179 4.1723
1553.121 4.1058 4.0386 3.9675 3.923 3.9106 3.9324 3.9707 3.9696 4.0021 4.0802
1572.415 4.1643 4.2791 4.4516 4.63 4.84 5.05 5.17 5.25 5.27 5.19
1591.708 5.02 4.8 4.58 4.3512 4.1403 4.0208 3.9306 3.8287 3.7632 3.733
1611.002 3.6573 3.57307 3.53755 3.4921 3.4301 3.368 3.304 3.252 3.2 3.163
1630.295 3.14 3.104 3.06 3.031 3.085 3.122 3.106 3.075 3.077 3.174
1649.588 3.248 3.258 3.331 3.49977 3.598 3.7139 3.8457 3.9561 4.1375 4.282
1668.882 4.3389 4.4234 4.49 4.431 4.2476 4.0783 3.9303 3.7199 3.53032 3.3914
1688.175 3.268 3.158 3.063 2.976 2.894 2.817 2.778 2.774 2.736 2.734
1707.469 2.783 2.794 2.75 2.737 2.735 2.692 2.657 2.656 2.677 2.698
1726.762 2.707 2.675 2.695 2.726 2.685 2.712 2.758 2.761 2.782 2.829
1746.056 2.896 2.977 3.082 3.204 3.332 3.4657 3.53056 3.55112 3.56904 3.53204
1765.349 3.4682 3.4328 3.4253 3.3962 3.369 3.33 3.267 3.199 3.126 3.071
1784.642 3.065 3.149 3.28 3.4412 3.7191 4.0569 4.4328 4.89 5.33 5.67
1803.936 5.84 5.81 5.59 5.24 4.81 4.3163 3.8814 3.6002 3.4111 3.253
1823.229 3.137 3.053 2.923 2.784 2.679 2.596 2.561 2.516 2.48 2.47
1842.523 2.45 2.42 2.41 2.39 2.33 2.35 2.41 2.43 2.43 2.43
1861.816 2.47 2.513 2.54 2.586 2.677 2.784 2.902 3.083 3.291 3.47
1881.110 3.6667 3.945 4.1737 4.3273 4.49 4.56 4.55 4.53 4.51 4.51
1900.403 4.52 4.49 4.4341 4.2718 4.0375 3.7635 3.4394 3.125 2.895 2.699
1919.696 2.554 2.45 2.37 2.34 2.34 2.39 2.42 2.48 2.577 2.737
1938.990 2.932 3.125 3.347 3.615 3.9436 4.2412 4.4521 4.58 4.6 4.55
1958.283 4.5 4.4103 4.3324 4.3246 4.3122 4.1917 3.9987 3.7241 3.356 2.968
1977.577 2.669 2.45 2.27 2.15 2.06 2.02 1.98 1.94 1.93 1.89
1996.870 1.85 1.84 1.85 1.86 1.88 1.88 1.85 1.86 1.91 1.95
2016.164 1.95 1.95 2 2 1.98 2.01 2.04 2.06 2.06 2.08
2035.457 2.13 2.12 2.09 2.1 2.11 2.06 2.01 2.04 2.05 2.03
2054.750 2.04 2.02 2.01 2 1.98 2 1.99 1.98 1.98 1.98
2074.044 1.96 1.92 1.94 1.97 1.95 1.96 1.99 2.01 2 2
2093.337 1.97 1.94 1.97 1.96 1.96 1.98 1.97 2 1.99 1.99
2112.631 2.01 2.03 2.03 2.01 2.01 1.98 1.95 1.99 1.99 1.95
2131.924 1.95 1.94 1.94 1.98 2 2 2 2.01 1.96 1.93
2151.218 1.96 2.02 2.06 2.06 2.05 2.08 2.1 2.1 2.13 2.14
2170.511 2.14 2.17 2.2 2.2 2.22 2.24 2.21 2.19 2.19 2.17
2189.804 2.14 2.1 2.08 2.07 2.06 2.04 2.03 2.04 2.02 2
2209.098 2.01 2 2 2.01 2.01 2 2 2.05 2.05 2.07
2228.391 2.09 2.12 2.19 2.22 2.27 2.31 2.37 2.482 2.573 2.616
2247.685 2.679 2.766 2.798 2.801 2.8 2.754 2.74 2.717 2.662 2.606
2266.978 2.553 2.496 2.45 2.42 2.38 2.36 2.31 2.24 2.21 2.19
2286.272 2.19 2.14 2.08 2.07 2.08 2.08 2.05 2.05 2.08 2.1
2305.565 2.17 2.27 2.39 2.558 2.738 2.9 3.038 3.107 3.117 3.071
2324.858 2.949 2.84 2.804 2.805 2.807 2.796 2.794 2.79 2.757 2.686
2344.152 2.595 2.501 2.4 2.36 2.31 2.23 2.2 2.17 2.14 2.14
2363.445 2.15 2.11 2.08 2.07 2.08 2.1 2.08 2.04 2.05 2.07
2382.739 2.09 2.08 2.03 2.02 2.04 2.07 2.07 2.05 2.08 2.12
2402.032 2.11 2.08 2.07 2.04 2 1.97 1.99 2.01 2 2
2421.326 2.01 2 2.01 2.04 1.99 1.96 1.98 1.98 2 2.03
2440.619 2.05 2.06 2.03 2 1.97 1.97 2 1.99 1.94 1.89
2459.912 1.89 1.89 1.89 1.87 1.9 1.91 1.89 1.91 1.95 1.94
2479.206 1.95 1.95 1.91 1.96 2.01 2.04 2.09 2.14 2.22 2.28
2498.499 2.29 2.3 2.35 2.4 2.46 2.503 2.5 2.497 2.513 2.501
2517.793 2.496 2.512 2.484 2.42 2.4 2.38 2.33 2.31 2.31 2.29
2537.086 2.27 2.22 2.22 2.24 2.2 2.17 2.15 2.11 2.13 2.19
2556.380 2.18 2.17 2.18 2.15 2.22 2.31 2.31 2.33 2.34 2.35
2575.673 2.41 2.43 2.42 2.42 2.43 2.39 2.37 2.39 2.41 2.38
2594.966 2.4 2.43 2.46 2.513 2.547 2.586 2.599 2.623 2.609 2.604
2614.260 2.61 2.592 2.609 2.593 2.589 2.6 2.598 2.62 2.615 2.619
2633.553 2.602 2.593 2.619 2.646 2.679 2.659 2.698 2.753 2.793 2.878
2652.847 2.928 2.96 3.038 3.091 3.191 3.348 3.365 3.4237 3.6018 3.7062
2672.140 3.802 3.8679 3.8733 3.845 3.7918 3.7673 3.7745 3.8209 3.8061 3.739
2691.434 3.7223 3.7882 3.8322 3.8558 3.9238 3.9938 4.031 4.0882 4.1416 4.1981
2710.727 4.2746 4.3721 4.4431 4.48 4.4772 4.4505 4.54 4.62 4.68 4.77
2730.020 4.89 4.99 5.1 5.26 5.46 5.63 5.74 5.85 5.97 6
2749.314 6 5.97 5.86 5.71 5.59 5.58 5.51 5.41 5.36 5.32
2768.607 5.29 5.27 5.32 5.39 5.49 5.56 5.64 5.83 5.94 6.05
2787.901 6.26 6.45 6.65 6.89 7.11 7.31 7.59 7.88 8.16 8.37
2807.194 8.61 8.99 9.4 9.72 10.09 10.56 11.06 11.59 12.14 12.79
2826.488 13.43 14.07 14.88 15.69 16.62 17.71 18.79 20.06 21.47 22.96
2845.781 24.85 27.04 29.55 32.51 35.99 40.11 44.8 50.02 55.87 62.38
2865.074 69.35 76.57 83.58 90.05 95.55 99.87 103.37 106.12 108.05 108.71
2884.368 107.45 104.13 98.92 92.52 86.08 80.66 76.78 74.66 74.19 75.18
2903.661 77.48 80.65 84.52 88.73 93.15 97.52 101.68 105.7 109.51 113.3
2922.955 117.22 121.57 126.67 132.72 139.69 147.45 155.91 164.37 171.76 177.21
2942.248 179.85 178.92 174.8 168.59 161.69 155.87 152.72 153.28 158.06 167.04
2961.542 179.57 194.35 208.89 219.82 223.73 218.56 204.51 183.49 159 134.47
2980.835 112.57 94.73 80.98 70.49 62.18 55.4 49.85 45.22 41.26 37.77
3000.128 34.7 32.17 29.98 27.96 26.32 24.97 23.75 22.77 21.91 21.17
3019.422 20.52 19.83 19.28 18.82 18.31 17.79 17.34 16.93 16.4 15.92
3038.715 15.38 14.84 14.38 14.04 13.99 14.14 14.51 15.24 16.4 17.94
3058.009 19.72 21.89 24.56 27.65 31.36 35.67 40.31 44.29 46.38 45.97
3077.302 42.71 37.37 31.63 26.57 22.94 20.94 19.82 18.78 17.41 15.82
3096.596 14.1 12.23 10.42 8.81 7.64 6.77 5.91 5.28 4.85 4.54
3115.889 4.2875 4.0644 3.9353 3.7839 3.6455 3.47095 3.359 3.313 3.253 3.172
3135.182 3.128 3.097 3.091 3.166 3.027 2.939 3.02 3.095 3.101 3.096
3154.476 3.123 3.095 3.164 3.082 2.924 2.876 2.814 2.683 2.484 2.35
3173.769 2.12 1.9 1.85 1.82 1.78 1.65 1.63 1.7 1.63 1.52
3193.063 1.51 1.44 1.2 1.09 1.07 1.09 1.06 0.98 0.98 0.94
3212.356 0.9 0.86 0.8 0.69 0.61 0.56 0.53 0.54 0.49 0.4
3231.650 0.46 0.54 0.46 0.43 0.43 0.44 0.41 0.36 0.38 0.35
3250.943 0.28 0.32 0.31 0.28 0.21 0.1 0 0.11 0.28 0.2
3270.236 0.08 0.04 0.13 0.15 0.08 0.06 0.1 0.19 0.15 0.12
3289.530 0.26 0.23 0.13 0.19 0.2 0.22 0.17 0.1 0.14 0.14
3308.823 0.19 0.19 0.25 0.27 0.18 0.21 0.13 0.12 0.3 0.3
3328.117 0.26 0.21 0.31 0.44 0.3 0.18 0.22 0.27 0.36 0.39
3347.410 0.32 0.39 0.36 0.3 0.36 0.36 0.23 0.21 0.23 0.21
3366.704 0.27 0.42 0.41 0.39 0.4 0.3 0.4 0.49 0.41 0.37
3385.997 0.35 0.39 0.39 0.31 0.4 0.48 0.38 0.3 0.37 0.43
3405.290 0.41 0.36 0.43 0.4 0.32 0.4 0.42 0.36 0.41 0.4
3424.584 0.33 0.43 0.39 0.3 0.32 0.38 0.44 0.49 0.42 0.31
3443.877 0.45 0.4 0.17 0.19 0.33 0.48 0.46 0.28 0.3 0.33
3463.171 0.37 0.52 0.55 0.36 0.26 0.29 0.28 0.3 0.26 0.3
3482.464 0.44 0.44 0.33 0.32 0.38 0.32 0.29 0.4 0.38 0.43
3501.758 0.56 0.48 0.5 0.49 0.5 0.41 0.34 0.35 0.29 0.34
3521.051 0.52 0.58 0.54 0.51 0.47 0.48 0.62 0.6 0.48 0.49
3540.344 0.46 0.54 0.65 0.65 0.62 0.55 0.45 0.52 0.64 0.67
3559.638 0.65 0.63 0.69 0.66 0.56 0.55 0.6 0.57 0.59 0.69
3578.931 0.71 0.73 0.7 0.68 0.8 0.8 0.77 0.78 0.73 0.72
3598.225 0.7 0.71 0.77 0.72 0.82 0.9 0.78 0.72 0.73 0.86
3617.518 0.97 0.95 0.87 0.91 0.98 1 0.98 0.93 0.98 1.1
3636.812 1.07 1.05 1.13 1.17 1.19 1.25 1.19 1.09 1.2 1.28
3656.105 1.26 1.24 1.19 1.2 1.27 1.22 1.18 1.23 1.24 1.29
3675.398 1.34 1.29 1.32 1.27 1.18 1.25 1.26 1.34 1.41 1.29
3694.692 1.3 1.38 1.43 1.53 1.64 1.64 1.53 1.42 1.45 1.44
3713.985 1.32 1.32 1.31 1.25 1.21 1.26 1.24 1.12 1.13 1.22
3733.279 1.17 1.21 1.2 1.1 1.09 1.04 1.01 1.02 1.09 1.22
3752.572 1.32 1.33 1.32 1.26 1.21 1.26 1.37 1.4 1.32 1.26
3771.866 1.31 1.38 1.35 1.28 1.28 1.33 1.38 1.42 1.39 1.4
3791.159 1.39 1.4 1.41 1.38 1.36 1.43 1.41 1.34 1.29 1.27
3810.452 1.36 1.36 1.37 1.37 1.36 1.4 1.35 1.28 1.33 1.41
3829.746 1.38 1.34 1.41 1.37 1.4 1.45 1.44 1.49 1.47 1.44
3849.039 1.47 1.47 1.42 1.45 1.44 1.39 1.33 1.33 1.39 1.32
3868.333 1.26 1.29 1.48 1.49 1.34 1.35 1.42 1.43 1.41 1.34
3887.626 1.23 1.21 1.3 1.38 1.38 1.37 1.33 1.33 1.3 1.22
3906.920 1.24 1.33 1.39 1.43 1.43 1.38 1.34 1.33 1.36 1.41
3926.213 1.39 1.39 1.42 1.38 1.43 1.43 1.36 1.41 1.49 1.5
3945.506 1.5 1.49 1.46 1.4 1.4 1.46 1.42 1.41 1.47 1.54
3964.800 1.59 1.58 1.57 1.51 1.57 1.75 1.77 1.73 1.74 1.78
3984.093 1.77 1.81 1.87 1.87 1.89 1.94 1.93 1.98 2.12
##END=
