##TITLE=3-Methyl-3-octanol
##JCAMP-DX=4.24
##DATA TYPE=INFRARED SPECTRUM
##ORIGIN=NIST Mass Spectrometry Data Center
##OWNER=NIST Standard Reference Data Program
Collection (C) 2018 copyright by the U.S. Secretary of Commerce
on behalf of the United States of America. All rights reserved.
##CAS REGISTRY NO=5340-36-3
##MOLFORM=C 9 H 20 O
##$NIST SOURCE=MSDC-IR
##SPECTROMETER/DATA SYSTEM=HP-GC/MS/IRD
##STATE=gas
##XUNITS=1/CM
##YUNITS=ABSORBANCE
##XFACTOR=1.0
##YFACTOR=0.000002200
##DELTAX=4.0
##FIRSTX=550.0
##LASTX=3846.0
##FIRSTY=0.000374
##MAXX=3846
##MINX=550
##MAXY=0.022
##MINY=0
##NPOINTS=825
##XYDATA=(X++(Y..Y))
550.0 170 149 121 96 80 65 65 72 72 110
590.0 124 102 67 55 47 39 37 28 19 24
630.0 40 65 72 21 10 53 75 83 69 60
670.0 78 65 39 47 76 87 86 82 57 61
710.0 108 141 149 164 173 192 212 211 229 235
750.0 207 172 177 179 163 174 179 161 156 162
790.0 158 145 123 112 111 96 70 77 71 74
830.0 97 103 116 136 160 166 153 169 189 194
870.0 215 269 345 440 558 688 820 923 979 984
910.0 947 898 846 848 880 884 855 827 794 740
950.0 689 662 632 586 532 502 485 471 480 517
990.0 567 596 624 656 667 655 646 621 597 586
1030.0 599 612 594 577 577 548 535 537 516 509
1070.0 523 543 565 581 607 637 655 680 699 710
1110.0 741 807 886 960 1036 1127 1215 1297 1388 1452
1150.0 1521 1553 1544 1494 1388 1274 1179 1079 1007 982
1190.0 973 948 925 906 881 861 821 788 781 778
1230.0 771 779 785 797 811 812 802 799 813 816
1270.0 812 807 804 811 811 810 819 809 798 801
1310.0 794 779 770 770 765 779 818 849 868 887
1350.0 910 924 973 1061 1191 1364 1552 1659 1650 1514
1390.0 1288 1008 767 631 546 486 448 426 425 451
1430.0 490 557 672 797 935 1127 1309 1462 1561 1529
1470.0 1391 1175 937 725 550 431 338 283 251 225
1510.0 191 158 149 141 127 117 116 116 104 92
1550.0 92 92 89 91 83 82 85 74 84 85
1590.0 80 81 69 61 57 57 54 52 56 58
1630.0 55 58 56 54 63 69 61 52 43 42
1670.0 50 53 58 60 56 57 53 40 32 31
1710.0 36 38 41 46 43 40 27 23 28 31
1750.0 29 23 16 18 27 26 27 21 21 29
1790.0 28 31 27 25 26 19 20 32 31 24
1830.0 29 31 30 28 28 31 25 18 22 25
1870.0 25 27 23 16 20 23 27 28 26 27
1910.0 20 20 25 18 8 3 6 11 12 14
1950.0 13 11 16 20 25 25 19 13 12 16
1990.0 14 15 19 13 10 11 14 15 17 17
2030.0 23 31 24 19 19 18 20 10 10 18
2070.0 18 21 20 19 18 13 14 10 12 22
2110.0 23 20 15 19 22 17 18 23 11 3
2150.0 6 10 14 14 25 37 25 10 8 13
2190.0 17 21 24 20 15 8 5 12 16 20
2230.0 16 16 16 20 21 16 15 12 13 15
2270.0 17 17 26 20 13 17 22 25 23 24
2310.0 22 20 23 23 19 16 14 27 31 24
2350.0 24 27 22 21 30 22 17 23 37 36
2390.0 28 27 21 19 28 36 30 23 17 16
2430.0 18 12 13 10 13 13 9 15 16 21
2470.0 21 14 7 4 5 11 21 27 20 12
2510.0 16 18 16 18 25 28 20 18 21 25
2550.0 31 30 31 42 46 47 49 44 42 38
2590.0 41 44 43 50 58 51 38 44 55 55
2630.0 55 61 70 72 71 79 80 74 74 86
2670.0 105 109 101 104 104 94 91 96 101 109
2710.0 113 122 135 142 149 154 163 182 190 196
2750.0 203 198 191 192 193 201 212 225 245 255
2790.0 272 301 324 350 389 434 483 532 598 672
2830.0 761 888 1051 1255 1532 1897 2332 2775 3150 3453
2870.0 3645 3804 3961 4048 4096 4079 4030 4043 4166 4438
2910.0 4877 5469 6205 7081 8017 8905 9627 10000 9913 9444
2950.0 8783 8225 8078 8432 8993 9308 9059 8151 6779 5308
2990.0 4012 2983 2211 1660 1302 1061 895 771 680 617
3030.0 566 520 469 426 393 366 349 327 292 291
3070.0 297 281 274 266 259 251 240 227 216 199
3110.0 180 183 172 156 155 142 131 123 120 121
3150.0 129 124 103 92 109 123 119 113 102 91
3190.0 81 74 69 75 75 63 60 53 50 53
3230.0 41 42 55 43 36 35 29 32 34 25
3270.0 22 32 32 22 20 15 5 4 3 0
3310.0 3 11 3 2 22 27 32 26 9 25
3350.0 45 43 35 20 5 8 23 40 43 49
3390.0 47 45 50 45 33 23 26 36 45 65
3430.0 71 62 51 35 32 48 50 38 45 50
3470.0 46 44 35 25 28 35 36 34 36 29
3510.0 10 12 24 24 11 7 24 21 2 5
3550.0 19 23 32 24 11 21 29 30 31 37
3590.0 37 24 34 51 46 45 70 114 168 233
3630.0 320 405 479 495 461 386 295 212 143 106
3670.0 84 65 56 45 36 39 44 42 38 35
3710.0 36 35 35 38 30 17 10 27 22 15
3750.0 35 29 21 21 21 6 18 42 26 11
3790.0 20 26 37 42 31 31 44 46 42 41
3830.0 45 55 62 61 49
##END=
