##TITLE=4-Bromo-3-nitroanisole
##JCAMP-DX=4.24
##DATA TYPE=INFRARED SPECTRUM
##ORIGIN=EPA-IR VAPOR PHASE LIBRARY
##OWNER=SRD/NIST
Collection (C) 2018 copyright by the U.S. Secretary of Commerce
on behalf of the United States of America. All rights reserved.
##CAS REGISTRY NO=5344-78-5
##MOLFORM=C 7 H 6 Br N O 3
##$NIST SOURCE=MSDC-IR
##STATE=gas
##XUNITS=1/CM
##YUNITS=ABSORBANCE
##XFACTOR=1.
##YFACTOR=0.001
##DELTAX=1.92934
##FIRSTX=549.9
##LASTX=3999.5
##FIRSTY=5.85
##MAXX=3999.53
##MINX=549.863
##MAXY=0.25645
##MINY=0
##NPOINTS=1789
##XYDATA=(X++(Y..Y))
549.863 5.85 6.08 6.26 6.33 6.43 6.58 6.88 7.21 7.59 8.31
569.156 9.17 10.21 11.38 12.39 13.43 14.52 15.36 15.88 16.36 16.56
588.450 16.59 16.81 16.99 17.07 17.09 17.07 17.04 16.96 16.75 16.42
607.743 16.02 15.83 15.53 15.15 14.92 14.64 14.3 13.91 13.53 13.04
627.037 12.53 12.11 11.76 11.37 10.97 10.7 10.51 10.24 9.97 9.69
646.330 9.3 8.97 8.6 8.1 7.85 7.72 7.74 8.19 9.01 10.09
665.624 11.01 11.61 12.03 12.27 12.31 11.88 11.01 9.95 8.94 8.1
684.917 7.3 6.8 6.48 6.16 5.92 5.7 5.41 4.95 4.55 4.25
704.210 3.96 3.6138 3.2869 3.1742 3.1568 3.1839 3.1051 3.0396 3.1086 3.2421
723.504 3.3744 3.4386 3.5665 3.75 3.96 4.2 4.4 4.62 4.92 5.22
742.797 5.54 5.89 6.19 6.38 6.42 6.32 6.05 5.72 5.48 5.36
762.091 5.39 5.51 5.72 5.94 6.2 6.62 7.19 7.88 8.59 9.57
781.384 11.06 13.27 16.65 21.74 29.18 39.22 51 62.39 70.97 75.71
800.678 77.93 78.87 76.96 70.75 61.64 52.43 45.27 40.57 37.71 36.32
819.971 35 30.93 25.3 21.04 17.83 15.04 12.58 10.78 9.77 9.54
839.264 10.01 10.99 12.33 13.79 15.42 17.18 18.74 19.67 19.92 19.65
858.558 19.03 18.43 18.01 17.79 17.78 18.01 18.38 18.68 18.59 17.74
877.851 16.37 14.83 13.28 11.78 10.33 9.14 8.3 7.71 7.37 7.39
897.145 7.71 8.27 8.93 9.55 10.13 10.4 10.32 10.08 9.57 8.79
916.438 7.82 6.67 5.64 4.88 4.41 4.07 3.83 3.66 3.6046 3.6414
935.732 3.6431 3.5741 3.5409 3.5364 3.5127 3.535 3.5449 3.5639 3.611 3.68
955.025 3.81 3.94 4.04 4.2 4.32 4.49 4.76 4.99 5.15 5.36
974.318 5.61 5.82 6.05 6.36 6.76 7.14 7.54 7.99 8.46 8.98
993.612 9.61 10.32 11.13 12.17 13.62 15.53 18.17 21.78 26.72 33.37
1012.905 41.89 51.93 62.4 71.35 76.77 78.07 75.83 70.54 62.36 51.92
1032.199 41.56 34.32 30.99 30.6 32.09 34.46 37 39.27 40.96 41.92
1051.492 41.92 40.79 38.66 35.87 32.77 29.43 25.86 22.33 19 16.15
1070.786 14.02 12.45 11.33 10.59 10.1 9.87 9.83 9.92 10.17 10.57
1090.079 11.2 12.04 13.13 14.61 16.57 19.25 22.71 26.86 31.69 36.88
1109.372 41.51 44.9 46.77 46.65 44.48 40.51 35.24 29.56 24.42 20.45
1128.666 17.79 16.31 15.77 15.61 15.59 15.56 15.35 15.03 14.53 13.98
1147.959 13.2 12.35 11.61 11.01 10.52 9.99 9.66 9.47 9.35 9.38
1167.253 9.58 9.89 10.52 11.25 11.92 12.83 13.96 14.91 15.49 15.66
1186.546 15.74 15.48 14.76 13.96 13.04 12.66 12.58 12.49 13.04 14.09
1205.840 15.22 16.65 18.93 22.13 26.06 31.69 39.36 49.42 62.45 78.08
1225.133 94.51 109.29 120.14 126.07 126.46 120.43 108.82 93.07 76.38 62.49
1244.426 52.63 46.37 43.76 44.71 48.38 54.13 61.42 69.58 78.28 87.14
1263.720 95.36 102.21 107.18 110.61 113.11 115.22 117.39 119.94 123.9 129.92
1283.013 137.69 146.37 154.43 160.88 164.61 164.72 161.02 153.75 143.33 130.93
1302.307 117.78 104.73 92.25 80.61 70.28 61.47 54.2 48.42 44.01 40.64
1321.600 38.2 36.67 35.88 35.79 36.29 37.4 39.21 41.89 45.43 49.96
1340.894 55.76 62.74 70.85 80.1 90.15 100.49 110.31 118.55 123.85 125.16
1360.187 122.38 115.96 106.15 93.26 78.35 63.57 50.92 41 33.7 28.66
1379.480 25.29 23.11 21.76 21.06 20.8 20.87 21.24 21.83 22.58 23.42
1398.774 24.21 24.91 25.45 25.83 26.03 25.93 25.64 25.17 24.62 24.13
1418.067 23.8 23.62 23.73 24.17 25.01 26.29 28.08 30.45 33.57 37.55
1437.361 42.57 47.85 52.55 55.77 57 56.71 55.45 53.48 50.95 49.15
1456.654 49.73 53.07 58.93 67.24 77.59 90.09 105.29 123.71 144.49 165.13
1475.948 181.12 189.75 189.57 181.23 165.44 143.84 118.93 95.1 76.01 63.35
1495.241 55.8 51.31 48.91 47.83 47.7 48.37 49.62 51.33 53.59 56.54
1514.534 60.1 64.28 69.1 74.49 80.56 86.84 93.51 100.28 107.02 113.75
1533.828 120.7 128.09 136.37 146.7 159.18 173.78 190.49 208.19 225.27 240.42
1553.121 251.33 256.45 252.79 239.94 222.35 204.4 186.94 171.91 160.1 151.37
1572.415 145.44 140.94 136.07 129.97 122.34 112.99 102.57 91.96 82.18 73.68
1591.708 67.01 62.27 59.15 57.22 55.99 55.01 53.84 52.08 49.63 46.37
1611.002 42.42 38.01 33.57 29.08 25.04 21.72 18.97 16.75 14.94 13.57
1630.295 12.53 11.7 11.03 10.42 9.9 9.47 9.09 8.69 8.27 7.87
1649.588 7.46 7.13 6.81 6.5 6.31 6.16 6.02 5.93 5.86 5.81
1668.882 5.77 5.72 5.63 5.54 5.48 5.46 5.45 5.38 5.29 5.2
1688.175 5.11 5.04 4.98 4.94 4.89 4.78 4.66 4.55 4.45 4.37
1707.469 4.25 4.14 4.1 4.03 3.91 3.85 3.81 3.72 3.6229 3.5797
1726.762 3.6031 3.6189 3.6276 3.6421 3.6544 3.67 3.68 3.71 3.67 3.65
1746.056 3.68 3.66 3.5854 3.5086 3.5241 3.5285 3.4905 3.4738 3.4731 3.4292
1765.349 3.355 3.2818 3.1558 3.0058 2.8539 2.70983 2.5879 2.474 2.416 2.423
1784.642 2.377 2.339 2.334 2.333 2.33 2.356 2.399 2.407 2.457 2.5693
1803.936 2.66481 2.69234 2.70467 2.70929 2.73578 2.72815 2.70781 2.7091 2.68694 2.6473
1823.229 2.65441 2.70093 2.70693 2.69978 2.68822 2.71985 2.7951 2.8686 2.8854 2.9329
1842.523 3.0303 3.0623 3.0616 3.1236 3.1664 3.1542 3.1971 3.2555 3.3285 3.3964
1861.816 3.4429 3.5592 3.6496 3.66 3.6557 3.6522 3.67 3.72 3.75 3.76
1881.110 3.78 3.87 3.99 4.08 4.2 4.33 4.49 4.62 4.63 4.6
1900.403 4.47 4.32 4.2 3.99 3.73 3.4583 3.2128 3.0611 2.923 2.8144
1919.696 2.73721 2.65911 2.6456 2.6035 2.533 2.516 2.538 2.545 2.587 2.6418
1938.990 2.65514 2.69177 2.7783 2.8363 2.8494 2.8998 2.9464 3.0455 3.1361 3.1756
1958.283 3.1968 3.1864 3.1802 3.1417 3.0398 2.9127 2.7753 2.6159 2.498 2.379
1977.577 2.234 2.123 2.048 1.957 1.922 1.936 1.919 1.914 1.922 1.898
1996.870 1.846 1.847 1.889 1.907 1.931 1.997 2.049 2.094 2.2 2.305
2016.164 2.426 2.5848 2.73054 2.8748 3.0386 3.1957 3.3221 3.4313 3.4997 3.5319
2035.457 3.5075 3.4459 3.4252 3.3748 3.2817 3.2076 3.1781 3.2282 3.3026 3.3539
2054.750 3.4152 3.5172 3.6131 3.68 3.76 3.87 3.94 3.94 3.93 3.94
2074.044 3.93 3.88 3.82 3.76 3.7 3.6184 3.5601 3.5195 3.4392 3.317
2093.337 3.2316 3.1524 3.0175 2.8923 2.7865 2.69906 2.5865 2.458 2.362 2.269
2112.631 2.175 2.09 2.006 1.908 1.885 1.866 1.83 1.836 1.856 1.894
2131.924 1.93 2.011 2.115 2.205 2.275 2.379 2.496 2.526 2.5678 2.5649
2151.218 2.468 2.403 2.369 2.27 2.169 2.085 2.028 2.015 2.004 1.983
2170.511 1.969 1.983 1.99 2.046 2.106 2.103 2.088 2.162 2.219 2.201
2189.804 2.208 2.232 2.25 2.247 2.236 2.223 2.203 2.154 2.118 2.049
2209.098 1.972 1.962 1.944 1.92 1.912 1.892 1.831 1.784 1.771 1.765
2228.391 1.765 1.728 1.665 1.65 1.64 1.6 1.58 1.56 1.55 1.57
2247.685 1.59 1.56 1.54 1.61 1.665 1.675 1.664 1.664 1.71 1.77
2266.978 1.824 1.844 1.874 1.955 1.993 1.973 1.981 2.011 1.995 1.949
2286.272 1.926 1.897 1.843 1.796 1.778 1.735 1.66 1.64 1.677 1.671
2305.565 1.64 1.62 1.63 1.65 1.68 1.671 1.668 1.7 1.67 1.65
2324.858 1.689 1.669 1.63 1.65 1.71 1.738 1.72 1.737 1.799 1.845
2344.152 1.874 1.903 1.896 1.887 1.88 1.854 1.809 1.786 1.78 1.814
2363.445 1.852 1.857 1.873 1.894 1.952 1.982 2.034 2.094 2.128 2.135
2382.739 2.154 2.187 2.181 2.232 2.268 2.276 2.294 2.295 2.237 2.174
2402.032 2.153 2.131 2.082 1.995 1.935 1.904 1.823 1.743 1.706 1.64
2421.326 1.56 1.56 1.57 1.51 1.47 1.47 1.48 1.5 1.52 1.56
2440.619 1.55 1.59 1.689 1.734 1.791 1.858 1.914 1.946 1.958 1.978
2459.912 2.021 2.066 2.038 2.02 2.02 1.975 1.937 1.859 1.797 1.821
2479.206 1.832 1.855 1.892 1.894 1.91 1.939 1.98 2.052 2.129 2.162
2498.499 2.186 2.266 2.366 2.449 2.525 2.6142 2.74513 2.8813 3.0013 3.1241
2517.793 3.2545 3.3642 3.4238 3.4709 3.5175 3.5405 3.5053 3.4219 3.3057 3.2534
2537.086 3.1846 3.0879 2.9959 2.9188 2.9369 2.9032 2.8431 2.841 2.8588 2.8685
2556.380 2.8244 2.73956 2.7015 2.67538 2.6485 2.6348 2.6182 2.5974 2.516 2.438
2575.673 2.43 2.359 2.238 2.184 2.162 2.118 2.089 2.042 1.966 1.97
2594.966 1.992 1.993 1.995 1.958 1.935 1.984 1.935 1.945 1.945 1.831
2614.260 1.802 1.826 1.894 1.929 1.959 1.942 1.904 1.911 1.959 1.956
2633.553 1.945 2.003 2.018 2.032 2.063 2.033 2.018 2.024 2.035 2.044
2652.847 2.038 1.99 1.964 1.969 1.894 1.881 1.843 1.805 1.858 1.836
2672.140 1.767 1.805 1.889 1.947 1.933 1.853 1.841 1.884 1.906 1.966
2691.434 2.027 2.048 2.112 2.198 2.284 2.319 2.392 2.426 2.445 2.453
2710.727 2.425 2.438 2.394 2.272 2.154 2.123 2.036 1.915 1.891 1.86
2730.020 1.825 1.83 1.814 1.812 1.79 1.801 1.883 1.922 1.924 1.896
2749.314 1.91 1.964 2.002 2.055 1.999 1.98 2.03 2.035 2.107 2.208
2768.607 2.204 2.174 2.255 2.31 2.335 2.41 2.502 2.5776 2.5947 2.6643
2787.901 2.7633 2.903 3.0177 3.1149 3.2618 3.4101 3.5491 3.6585 3.71 3.79
2807.194 3.93 4.1 4.28 4.43 4.58 4.77 5.02 5.37 5.77 6.08
2826.488 6.52 7.09 7.73 8.43 9.4 10.64 12.09 13.86 15.73 17.49
2845.781 19.07 20.38 21.12 21.21 20.71 19.72 18.35 16.73 14.92 13.25
2865.074 12.05 11.14 10.3 9.65 9.18 8.93 8.83 8.76 8.81 8.95
2884.368 9.13 9.46 9.91 10.41 11.03 11.62 12.37 13.18 13.87 14.66
2903.661 15.35 15.74 16.13 16.31 16.21 16.07 15.91 15.74 15.59 15.38
2922.955 15.13 14.94 14.87 14.93 15.26 15.95 17.11 18.61 20.61 23.11
2942.248 25.96 28.75 30.93 32.37 33.07 33.11 32.45 31.35 30.01 28.58
2961.542 27.33 26.43 25.83 25.28 24.38 22.98 21.42 19.67 17.89 16.15
2980.835 14.48 13.06 11.84 10.87 10.14 9.66 9.36 9.22 9.38 9.67
3000.128 10.08 10.79 11.89 13.34 15.24 17.69 20.53 23.29 25.36 26.28
3019.422 25.99 24.76 22.57 19.5 16.05 12.74 10.04 8.06 6.82 6.09
3038.715 5.48 5.03 4.74 4.56 4.3 3.97 3.82 3.71 3.525 3.3683
3058.009 3.3483 3.3177 3.3169 3.4246 3.5324 3.5869 3.67 4 4.55 5.03
3077.302 5.51 6.11 6.57 6.86 7.01 7.01 6.81 6.55 6.12 5.57
3096.596 5.1 4.61 4.13 3.81 3.5308 3.2246 2.8984 2.5799 2.388 2.183
3115.889 1.925 1.783 1.663 1.55 1.54 1.57 1.51 1.4 1.36 1.39
3135.182 1.37 1.27 1.26 1.2 1.22 1.24 1.14 1.07 1.05 0.97
3154.476 0.9 0.85 0.85 0.94 0.88 0.84 0.83 0.72 0.71 0.77
3173.769 0.72 0.78 0.78 0.65 0.56 0.61 0.76 0.78 0.67 0.57
3193.063 0.44 0.4 0.52 0.6 0.55 0.43 0.33 0.33 0.32 0.24
3212.356 0.3 0.35 0.31 0.25 0.34 0.33 0.24 0.25 0.22 0.19
3231.650 0.16 0.09 0.05 0.03 0.08 0.06 0.06 0.14 0.12 0.05
3250.943 0.09 0.15 0.1 0.07 0.02 0 0.06 0.08 0.09 0.1
3270.236 0.19 0.15 0.08 0.13 0.06 0.15 0.2 0.19 0.2 0.12
3289.530 0.03 0.15 0.26 0.12 0.08 0.13 0.23 0.26 0.14 0.14
3308.823 0.24 0.2 0.24 0.21 0.08 0.19 0.21 0.18 0.39 0.43
3328.117 0.24 0.23 0.37 0.33 0.3 0.38 0.3 0.29 0.35 0.35
3347.410 0.34 0.38 0.29 0.31 0.37 0.28 0.34 0.43 0.33 0.24
3366.704 0.31 0.39 0.45 0.43 0.39 0.4 0.52 0.46 0.35 0.52
3385.997 0.53 0.4 0.39 0.41 0.37 0.38 0.6 0.63 0.58 0.56
3405.290 0.5 0.49 0.45 0.38 0.42 0.41 0.44 0.66 0.66 0.63
3424.584 0.59 0.51 0.45 0.47 0.64 0.68 0.69 0.72 0.6 0.69
3443.877 0.75 0.73 0.72 0.76 0.75 0.77 0.83 0.81 0.72 0.73
3463.171 0.91 0.86 0.77 0.65 0.69 0.84 0.77 0.77 0.95 0.96
3482.464 0.88 0.9 0.93 0.92 0.93 0.98 0.99 1 0.99 0.89
3501.758 0.74 0.75 0.88 0.93 0.91 0.98 1.01 0.89 0.86 0.96
3521.051 1.03 1 1 0.98 0.95 0.99 0.97 0.94 1 0.99
3540.344 0.97 1.01 0.89 0.9 1.02 1.11 1.16 1.07 1.07 1.16
3559.638 1.14 1.09 1.04 1.1 1.16 1.17 1.12 1.1 1.08 0.98
3578.931 1.01 1.1 1.09 1.13 1.26 1.3 1.29 1.32 1.21 1.1
3598.225 1.23 1.3 1.29 1.3 1.19 1.22 1.3 1.23 1.21 1.21
3617.518 1.22 1.12 1.15 1.14 1.13 1.1 1.03 1.2 1.26 1.17
3636.812 1.14 1.23 1.24 1.2 1.22 1.27 1.29 1.25 1.29 1.4
3656.105 1.42 1.38 1.4 1.31 1.21 1.26 1.26 1.24 1.27 1.14
3675.398 1.14 1.2 1.21 1.26 1.32 1.37 1.4 1.37 1.31 1.3
3694.692 1.31 1.4 1.42 1.38 1.39 1.46 1.48 1.38 1.37 1.48
3713.985 1.46 1.41 1.39 1.41 1.38 1.31 1.41 1.46 1.49 1.46
3733.279 1.43 1.44 1.47 1.56 1.49 1.54 1.56 1.5 1.47 1.52
3752.572 1.65 1.61 1.53 1.5 1.52 1.56 1.47 1.5 1.54 1.55
3771.866 1.55 1.52 1.55 1.51 1.45 1.54 1.49 1.47 1.62 1.52
3791.159 1.41 1.39 1.47 1.48 1.39 1.37 1.41 1.41 1.38 1.31
3810.452 1.27 1.4 1.44 1.34 1.39 1.34 1.32 1.42 1.4 1.42
3829.746 1.44 1.41 1.36 1.37 1.43 1.47 1.51 1.53 1.48 1.46
3849.039 1.42 1.45 1.5 1.54 1.6 1.54 1.51 1.54 1.53 1.53
3868.333 1.6 1.57 1.57 1.6 1.66 1.59 1.48 1.65 1.66 1.55
3887.626 1.57 1.64 1.62 1.54 1.59 1.59 1.63 1.664 1.56 1.49
3906.920 1.51 1.57 1.65 1.61 1.52 1.45 1.48 1.53 1.52 1.57
3926.213 1.57 1.52 1.46 1.43 1.51 1.6 1.58 1.5 1.52 1.53
3945.506 1.61 1.64 1.56 1.57 1.57 1.57 1.56 1.48 1.53 1.56
3964.800 1.58 1.707 1.678 1.61 1.61 1.6 1.672 1.64 1.53 1.55
3984.093 1.62 1.63 1.62 1.724 1.73 1.737 1.731 1.704 1.734
##END=
