##TITLE=Benzil monohydrazone
##JCAMP-DX=4.24
##DATA TYPE=INFRARED SPECTRUM
##ORIGIN=NIST Mass Spectrometry Data Center
##OWNER=NIST Standard Reference Data Program
Collection (C) 2018 copyright by the U.S. Secretary of Commerce
on behalf of the United States of America. All rights reserved.
##CAS REGISTRY NO=5344-88-7
##MOLFORM=C 14 H 12 N 2 O
##$NIST SOURCE=MSDC-IR
##SPECTROMETER/DATA SYSTEM=HP-GC/MS/IRD
##STATE=gas
##XUNITS=1/CM
##YUNITS=ABSORBANCE
##XFACTOR=1.0
##YFACTOR=0.000001200
##DELTAX=4.0
##FIRSTX=550.0
##LASTX=3846.0
##FIRSTY=0.001078
##MAXX=3846
##MINX=550
##MAXY=0.012
##MINY=0
##NPOINTS=825
##XYDATA=(X++(Y..Y))
550.0 898 1396 969 1002 1208 1258 1289 1483 1585 1674
590.0 1886 2118 2229 2368 2626 2908 3137 3501 3836 3942
630.0 3845 3676 3559 3495 3603 3990 4609 5463 6225 6387
670.0 5922 5432 5530 6367 7732 9205 10000 9759 8784 7507
710.0 6410 5684 5299 5136 5078 4831 4431 4120 3921 3834
750.0 3933 4093 4177 4034 3579 2917 2335 1997 1824 1725
790.0 1668 1626 1574 1455 1316 1245 1185 1160 1152 1162
830.0 1188 1238 1351 1512 1765 2270 3205 4635 5869 6027
870.0 5003 3583 2671 2243 1981 1850 1852 1953 2107 2286
910.0 2535 2852 3026 3056 3014 2970 2771 2300 1810 1346
950.0 1028 906 832 788 764 804 852 831 929 1119
990.0 1247 1417 1601 1756 1842 1892 1854 1651 1552 1587
1030.0 1452 1199 936 739 662 749 888 1008 1218 1393
1070.0 1364 1132 868 626 465 428 492 566 572 626
1110.0 755 795 797 842 848 824 818 813 809 837
1150.0 868 934 1045 1181 1389 1817 2575 3222 3204 2546
1190.0 1914 1966 2694 3940 5435 6582 6718 5647 4087 2895
1230.0 2310 2076 2004 2050 2236 2667 3298 3920 4250 4068
1270.0 3442 2762 2276 2023 1952 2036 2223 2491 2813 3138
1310.0 3504 3971 4461 4830 4917 4596 3877 2951 2061 1343
1350.0 841 545 375 264 212 176 179 166 131 83
1390.0 39 15 0 35 79 117 162 195 276 412
1430.0 603 951 1532 2235 2654 2485 1898 1291 968 897
1470.0 944 1023 1153 1357 1641 2035 2284 2149 1781 1379
1510.0 1176 1163 1200 1241 1289 1364 1445 1554 1703 1902
1550.0 2112 2377 2795 3322 3910 4527 4997 5195 5087 4743
1590.0 4392 4167 3975 3650 3261 2978 2810 2700 2621 2544
1630.0 2471 2439 2440 2510 2739 3122 3743 4671 6046 7605
1670.0 8794 9142 8656 7724 6577 5430 4355 3410 2651 2064
1710.0 1623 1315 1099 956 859 783 700 648 603 583
1750.0 578 561 545 540 544 545 543 528 506 516
1790.0 567 651 741 796 784 692 597 509 451 415
1830.0 369 358 343 318 319 326 324 339 383 423
1870.0 453 502 556 593 610 617 599 600 607 571
1910.0 539 529 502 472 503 556 592 653 729 784
1950.0 816 821 780 744 699 613 535 493 475 453
1990.0 428 415 418 441 434 401 411 430 439 431
2030.0 434 435 433 451 459 462 455 454 440 436
2070.0 447 453 455 460 468 485 512 550 596 603
2110.0 596 572 511 473 448 428 446 468 473 493
2150.0 488 440 430 446 452 468 476 475 472 469
2190.0 470 476 489 484 464 483 506 492 479 449
2230.0 455 500 521 512 512 507 487 490 493 486
2270.0 476 486 494 490 483 467 438 440 458 476
2310.0 504 531 562 563 520 497 516 550 544 509
2350.0 515 509 470 474 499 485 461 480 491 484
2390.0 487 482 458 459 484 462 431 444 461 456
2430.0 460 452 448 465 455 450 467 483 483 473
2470.0 465 470 471 468 464 438 441 456 449 456
2510.0 462 454 474 470 448 464 470 454 453 460
2550.0 472 479 481 470 446 433 460 490 487 475
2590.0 484 517 528 511 506 513 494 489 500 483
2630.0 477 500 510 497 477 468 458 461 473 477
2670.0 474 459 451 464 491 513 499 491 492 481
2710.0 497 522 512 488 483 459 471 506 500 504
2750.0 501 509 526 533 530 509 521 529 513 489
2790.0 475 506 532 541 565 562 563 598 574 535
2830.0 544 551 533 542 581 595 591 612 633 624
2870.0 605 585 609 639 616 559 571 615 630 602
2910.0 583 595 591 607 635 629 585 544 559 571
2950.0 544 541 552 605 628 626 657 679 669 665
2990.0 692 717 743 829 973 1080 1207 1503 1870 2256
3030.0 2702 2941 2936 2764 2586 2623 3009 3766 4824 5933
3070.0 6508 6182 5299 4508 4070 3705 3188 2627 2189 1828
3110.0 1528 1248 1019 930 861 805 794 765 746 743
3150.0 756 765 744 745 740 668 606 609 607 586
3190.0 575 627 665 671 676 702 665 619 632 658
3230.0 686 680 638 603 626 603 595 616 633 636
3270.0 624 588 608 664 673 696 693 659 699 789
3310.0 861 911 938 928 855 818 782 773 753 679
3350.0 652 662 650 602 553 522 513 523 493 515
3390.0 552 552 568 547 521 530 569 645 644 617
3430.0 678 714 781 927 1030 1177 1326 1397 1510 1625
3470.0 1735 1837 1958 2073 2129 2049 1818 1564 1386 1266
3510.0 1143 1068 981 836 738 701 663 601 575 570
3550.0 596 537 474 485 466 442 455 481 474 465
3590.0 467 437 459 485 477 489 467 496 498 488
3630.0 511 478 477 465 470 489 481 463 489 508
3670.0 517 523 515 509 495 506 517 519 522 517
3710.0 566 551 514 509 555 616 574 531 500 506
3750.0 505 543 591 586 533 490 502 527 532 544
3790.0 536 522 531 515 511 496 516 553 520 500
3830.0 543 555 559 507 447
##END=
