##TITLE=2,6-Dichlorocinnamic acid
##JCAMP-DX=4.24
##DATA TYPE=INFRARED SPECTRUM
##ORIGIN=EPA-IR VAPOR PHASE LIBRARY
##OWNER=SRD/NIST
Collection (C) 2018 copyright by the U.S. Secretary of Commerce
on behalf of the United States of America. All rights reserved.
##CAS REGISTRY NO=5345-89-1
##MOLFORM=C 9 H 6 Cl 2 O 2
##$NIST SOURCE=MSDC-IR
##STATE=gas
##XUNITS=1/CM
##YUNITS=ABSORBANCE
##XFACTOR=1.
##YFACTOR=0.001
##DELTAX=3.85796
##FIRSTX=501.5
##LASTX=4000.7
##FIRSTY=1.62
##MAXX=4000.7
##MINX=501.534
##MAXY=0.07114
##MINY=0.00001168
##NPOINTS=908
##XYDATA=(X++(Y..Y))
501.534 1.62 1.51 1.61 1.92 2.32 2.7 3.22 3.97 4.89 5.99
540.114 7.32 8.81 10.21 11.23 11.72 11.53 10.96 10.38 9.91 9.74
578.693 9.78 9.99 11.39 14.36 16.53 15.95 12.6 8.1 4.87 3.2
617.273 2.23 1.62 1.32 1.21 1.09 1.08 1.11 1.14 1.3 1.54
655.852 1.96 2.6 3.27 3.73 3.76 3.36 2.7 2.21 2.06 2.02
694.432 2.01 2.02 1.86 1.58 1.46 1.53 1.87 2.53 3.53 4.73
733.011 6 6.78 6.47 5.5 4.65 4.22 4.43 5.65 8.97 14.75
771.591 23.55 32.24 32.98 27.33 19.76 12.59 7.84 5.18 3.79 2.99
810.170 2.63 2.47 2.42 2.42 2.43 2.43 2.37 2.34 2.33 2.27
848.750 2.19 2.04 1.89 1.87 1.9 2.01 2.23 2.43 2.59 2.72
887.330 2.9 3.08 3.2 3.32 3.29 3.03 2.78 2.63 2.55 2.53
925.909 2.53 2.67 2.96 3.26 3.5 3.63 3.73 3.99 4.54 5.4
964.489 6.58 7.9 8.69 8.51 7.47 5.91 4.7 3.95 3.27 2.67
1003.068 2.1 1.64 1.35 1.23 1.23 1.26 1.26 1.3 1.33 1.39
1041.648 1.53 1.61 1.65 1.8 2 2.23 2.6 3.04 3.51 4.02
1080.227 4.86 6.04 7.5 9.47 11.9 14.95 19.26 26.09 36.63 49.62
1118.807 59.2 59.89 51.36 38.69 29.61 26.16 25.86 27.03 28.57 29.41
1157.387 28.42 25.32 21.1 17.35 14.9 13.57 12.82 11.96 10.69 9.35
1195.966 8.2 7.24 6.43 5.68 4.98 4.47 4.19 4.08 4.18 4.45
1234.546 4.87 5.45 6.09 6.77 7.25 7.48 7.65 7.83 8.04 8.28
1273.125 8.42 8.31 7.99 7.63 7.44 7.38 7.44 7.51 7.48 7.29
1311.705 6.98 6.67 6.44 6.39 6.61 7.11 7.9 9.04 10.56 12.39
1350.284 14.2 15.38 15.55 14.68 12.99 10.74 8.29 6.1 4.55 3.62
1388.864 3.1 2.85 2.76 2.9 3.37 4.29 5.93 8.48 12.29 17.07
1427.443 21.12 22.74 21.17 16.84 11.74 7.36 4.45 2.98 2.27 1.9
1466.023 1.71 1.62 1.57 1.57 1.57 1.57 1.58 1.55 1.44 1.32
1504.603 1.24 1.15 1.06 1.01 1.01 1.03 1.1 1.3 1.63 2.29
1543.182 3.38 5 7.09 8.89 9.55 8.74 6.86 5.07 4.16 3.54
1581.762 2.86 2.16 1.59 1.25 1.16 1.19 1.26 1.4 1.59 1.85
1620.341 2.21 2.74 3.52 4.68 6.4 8.48 10.39 11.31 10.52 8.08
1658.921 5.37 3.51 2.67 2.29 2.02 1.83 1.81 1.92 2.06 2.34
1697.500 2.7 3.06 3.48 4.01 4.73 5.69 6.91 8.6 11.09 14.6
1736.080 19.26 24.71 31.29 39.7 51.18 63.56 71.14 68.14 54.97 39.6
1774.659 28.88 22.99 19.19 16.05 13.32 11.01 9.16 7.69 6.47 5.4
1813.239 4.46 3.67 3.01 2.49 2.1 1.81 1.66 1.58 1.52 1.48
1851.819 1.44 1.35 1.2 1.05 0.914 0.8399 0.8181 0.7992 0.7641 0.7085
1890.398 0.6152 0.5329 0.463 0.4161 0.4327 0.4797 0.5594 0.6935 0.8609 0.989
1928.978 1 0.8705 0.6539 0.4571 0.3338 0.2953 0.2861 0.2755 0.271 0.265
1967.557 0.2595 0.2475 0.2064 0.1659 0.1599 0.1676 0.1725 0.1743 0.176 0.1814
2006.137 0.1773 0.1589 0.1475 0.1377 0.1195 0.1192 0.1413 0.1534 0.1684 0.2048
2044.716 0.2257 0.2355 0.2553 0.2878 0.3133 0.3094 0.2792 0.2361 0.1955 0.1482
2083.296 0.124 0.1253 0.1073 0.08778 0.0822 0.06818 0.05659 0.03925 0.04551 0.04569
2121.875 0.02795 0.01911 0.03243 0.05452 0.04043 0.03687 0.04304 0.03632 0.01696 0.01168
2160.455 0.01651 0.02635 0.04365 0.06895 0.08523 0.1044 0.1206 0.1247 0.1327 0.1328
2199.035 0.126 0.1555 0.1851 0.179 0.1777 0.1814 0.2139 0.2395 0.2473 0.2464
2237.614 0.2266 0.2099 0.2135 0.198 0.1521 0.1333 0.1329 0.1267 0.1005 0.08664
2276.194 0.09273 0.1047 0.1127 0.1246 0.1632 0.1954 0.2124 0.2256 0.2231 0.2139
2314.773 0.209 0.1694 0.133 0.1378 0.1451 0.1676 0.1749 0.1671 0.1663 0.1473
2353.353 0.1512 0.1708 0.1821 0.181 0.1571 0.1331 0.1064 0.1155 0.1185 0.07737
2391.932 0.06551 0.08777 0.1078 0.109 0.1039 0.08505 0.09811 0.1207 0.1284 0.134
2430.512 0.125 0.1325 0.142 0.1429 0.1566 0.1871 0.1797 0.1662 0.1953 0.1972
2469.092 0.1744 0.1678 0.1923 0.1964 0.1673 0.1723 0.1977 0.2062 0.1588 0.1268
2507.671 0.1525 0.1671 0.09853 0.05068 0.08798 0.081 0.06711 0.09522 0.1172 0.09711
2546.251 0.07132 0.07092 0.06777 0.08829 0.1219 0.1054 0.1061 0.1196 0.1504 0.1754
2584.830 0.1839 0.2159 0.2088 0.1681 0.1321 0.1092 0.1269 0.1303 0.116 0.1516
2623.410 0.1597 0.1415 0.1391 0.1406 0.1771 0.2021 0.1846 0.2091 0.2125 0.2083
2661.989 0.2037 0.1587 0.1447 0.1464 0.1499 0.1498 0.1377 0.1402 0.1444 0.1323
2700.569 0.1356 0.1565 0.1535 0.1077 0.09017 0.07291 0.05784 0.08801 0.09308 0.07485
2739.148 0.0905 0.1432 0.1533 0.1397 0.146 0.1556 0.1649 0.1572 0.1449 0.1478
2777.728 0.1464 0.1626 0.1887 0.1936 0.1995 0.2056 0.2009 0.1922 0.1834 0.1731
2816.308 0.1541 0.1538 0.1241 0.09685 0.1262 0.1496 0.1387 0.1422 0.1582 0.1291
2854.887 0.127 0.1299 0.1581 0.1849 0.1905 0.2262 0.2157 0.2069 0.2067 0.1917
2893.467 0.1909 0.22 0.2356 0.2229 0.2141 0.211 0.1984 0.2189 0.2653 0.2097
2932.046 0.16 0.1677 0.175 0.189 0.2195 0.2683 0.2912 0.2458 0.2277 0.257
2970.626 0.2767 0.3072 0.2941 0.2743 0.2932 0.3454 0.3917 0.4026 0.4095 0.3911
3009.205 0.3865 0.4033 0.3947 0.3817 0.3929 0.4222 0.4603 0.5083 0.5111 0.5678
3047.785 0.6692 0.8114 1.08 1.34 1.47 1.42 1.23 1.14 1.21 1.22
3086.364 1.14 0.9978 0.7852 0.6403 0.6043 0.6224 0.6781 0.7036 0.73 0.7524
3124.944 0.6966 0.5491 0.4116 0.3535 0.2992 0.2272 0.163 0.1502 0.2214 0.2293
3163.524 0.1939 0.219 0.2216 0.1875 0.1769 0.1372 0.1256 0.1472 0.189 0.206
3202.103 0.168 0.198 0.207 0.1775 0.1561 0.1282 0.1114 0.185 0.2377 0.2087
3240.683 0.1889 0.1914 0.1631 0.1238 0.1574 0.1774 0.2044 0.1943 0.1697 0.1914
3279.262 0.2064 0.1817 0.1943 0.2458 0.2279 0.1842 0.1937 0.1849 0.1543 0.1702
3317.842 0.1703 0.1523 0.1615 0.158 0.1682 0.2099 0.2394 0.2319 0.2436 0.254
3356.421 0.2394 0.2393 0.1972 0.1784 0.2072 0.1808 0.1575 0.2208 0.2534 0.2302
3395.001 0.2326 0.2465 0.2451 0.2585 0.2899 0.2638 0.2214 0.2607 0.3391 0.3405
3433.580 0.2908 0.2305 0.2089 0.2775 0.3371 0.3851 0.3931 0.4161 0.4309 0.4281
3472.160 0.4677 0.5203 0.5964 0.6591 0.7433 0.8558 0.9045 0.9503 0.9437 0.8883
3510.740 0.9039 0.8846 0.8114 0.7355 0.6973 0.6744 0.6588 0.7038 0.732 0.8014
3549.319 0.9343 1.12 1.45 1.99 3.27 6.33 13.03 22.7 30.11 31.02
3587.899 24.41 14.53 7.19 3.48 2.05 1.37 0.9831 0.7776 0.6608 0.6487
3626.478 0.6597 0.6079 0.5702 0.6032 0.6438 0.5945 0.5167 0.473 0.4166 0.4033
3665.058 0.4289 0.3878 0.3887 0.4199 0.3599 0.2922 0.2902 0.3079 0.3354 0.3592
3703.637 0.3387 0.3008 0.2954 0.2893 0.2849 0.287 0.297 0.2824 0.2626 0.2801
3742.217 0.2644 0.2865 0.2907 0.2428 0.2401 0.251 0.2875 0.2676 0.254 0.307
3780.797 0.3064 0.2235 0.1834 0.2285 0.199 0.1807 0.1816 0.2022 0.2464 0.2661
3819.376 0.3398 0.3359 0.2936 0.3139 0.3176 0.3145 0.2935 0.2562 0.2969 0.3837
3857.956 0.3421 0.2976 0.356 0.3726 0.3105 0.2571 0.2624 0.319 0.3548 0.3568
3896.535 0.3297 0.2515 0.209 0.2536 0.2985 0.2864 0.2559 0.2686 0.2646 0.2907
3935.115 0.3511 0.3321 0.225 0.2063 0.2743 0.2988 0.3732 0.3418 0.2859 0.3222
3973.694 0.3263 0.2776 0.2529 0.2787 0.284 0.2953 0.2733 0.2545
##END=
