##TITLE=4,5-Dichloro-o-phenylenediamine
##JCAMP-DX=4.24
##DATA TYPE=INFRARED SPECTRUM
##ORIGIN=EPA-IR VAPOR PHASE LIBRARY
##OWNER=SRD/NIST
Collection (C) 2018 copyright by the U.S. Secretary of Commerce
on behalf of the United States of America. All rights reserved.
##CAS REGISTRY NO=5348-42-5
##MOLFORM=C 6 H 6 Cl 2 N 2
##$NIST SOURCE=MSDC-IR
##STATE=gas
##XUNITS=1/CM
##YUNITS=ABSORBANCE
##XFACTOR=1.
##YFACTOR=0.001
##DELTAX=3.85796
##FIRSTX=501.5
##LASTX=4000.7
##FIRSTY=5.443
##MAXX=4000.7
##MINX=501.534
##MAXY=0.056453
##MINY=0
##NPOINTS=908
##XYDATA=(X++(Y..Y))
501.534 5.443 5.613 5.893 5.823 5.833 5.963 6.213 6.553 6.853 7.163
540.114 7.433 7.573 7.873 8.233 8.493 8.993 9.493 10.003 10.723 11.683
578.693 12.713 13.643 14.453 15.093 15.783 16.523 17.053 17.343 17.113 16.413
617.273 15.243 13.843 12.913 12.483 12.473 13.033 13.943 14.843 15.453 15.643
655.852 15.723 15.923 16.323 16.933 17.803 18.483 18.023 16.473 14.353 11.783
694.432 9.933 9.343 9.303 9.513 9.733 9.803 9.793 9.713 9.473 9.163
733.011 8.943 8.743 8.483 8.253 8.003 7.893 7.883 7.813 7.783 7.793
771.591 7.843 7.953 8.083 8.163 8.303 8.363 8.223 8.053 7.763 7.223
810.170 6.703 6.193 5.643 5.313 5.153 5.153 5.363 5.873 6.983 8.673
848.750 10.653 12.913 15.363 15.793 13.823 11.683 9.603 7.683 6.323 5.423
887.330 4.793 4.373 4.183 4.043 3.893 3.793 3.743 3.683 3.663 3.593
925.909 3.553 3.583 3.653 3.863 4.293 4.903 5.663 6.593 7.503 7.973
964.489 7.873 7.373 6.393 5.403 4.693 4.173 3.823 3.513 3.323 3.293
1003.068 3.243 3.153 3.043 2.993 2.983 2.873 2.833 2.883 2.933 2.893
1041.648 2.903 3.033 3.183 3.253 3.253 3.253 3.333 3.443 3.623 3.953
1080.227 4.303 4.593 4.873 5.203 5.523 5.873 6.153 6.513 7.043 7.843
1118.807 9.683 12.293 14.053 14.283 12.903 9.613 6.013 4.183 3.533 3.123
1157.387 2.943 2.883 2.903 2.943 3.073 3.193 3.283 3.663 4.293 4.983
1195.966 5.773 6.693 7.943 9.393 10.513 10.823 10.393 9.373 7.623 5.953
1234.546 4.853 4.203 4.203 4.843 6.073 7.993 10.773 14.143 17.013 18.373
1273.125 17.623 14.653 10.413 6.583 4.233 3.173 2.693 2.393 2.263 2.183
1311.705 2.113 2.093 2.133 2.173 2.163 2.103 2.003 1.903 1.833 1.823
1350.284 1.813 1.843 1.943 2.063 2.243 2.503 2.883 3.433 4.163 5.123
1388.864 6.213 7.043 7.363 7.113 6.403 5.323 4.243 3.483 3.043 2.873
1427.443 2.873 3.013 3.313 3.783 4.523 5.583 6.883 8.243 9.533 10.603
1466.023 11.703 13.233 16.193 21.593 30.303 41.483 51.653 56.453 53.723 44.343
1504.603 31.503 19.513 12.333 8.713 6.823 5.803 5.313 5.163 5.233 5.403
1543.182 5.603 5.723 5.903 6.213 6.753 7.523 8.433 9.323 9.903 10.053
1581.762 9.653 8.883 8.103 7.513 7.323 7.793 8.993 11.093 13.873 16.743
1620.341 18.853 19.553 18.743 16.633 13.763 10.883 8.453 6.513 5.153 4.153
1658.921 3.513 3.103 2.813 2.643 2.583 2.543 2.593 2.653 2.653 2.643
1697.500 2.563 2.443 2.243 2.083 1.993 1.883 1.743 1.643 1.553 1.5255
1736.080 1.4731 1.4322 1.413 1.397 1.3987 1.394 1.3985 1.3777 1.3909 1.4147
1774.659 1.3887 1.3809 1.3963 1.4075 1.4003 1.379 1.3795 1.3906 1.421 1.4663
1813.239 1.4501 1.3953 1.3222 1.2393 1.1954 1.1558 1.1165 1.0994 1.0724 1.02
1851.819 0.9784 0.96 0.9526 0.9412 0.9365 0.9181 0.9052 0.9341 0.9171 0.8636
1890.398 0.8667 0.8734 0.8712 0.8997 0.9105 0.862 0.8041 0.8051 0.8248 0.8229
1928.978 0.7841 0.7639 0.7584 0.7398 0.7141 0.7214 0.7324 0.7309 0.7656 0.752
1967.557 0.7138 0.7055 0.7055 0.7162 0.7285 0.7309 0.7246 0.7009 0.6753 0.6595
2006.137 0.6898 0.7064 0.6913 0.6883 0.6667 0.6431 0.6516 0.6677 0.6646 0.6857
2044.716 0.6999 0.6908 0.7058 0.717 0.7221 0.741 0.7338 0.7005 0.6949 0.6955
2083.296 0.6435 0.5958 0.56432 0.58327 0.6081 0.58155 0.54677 0.532052 0.55948 0.58508
2121.875 0.56571 0.55303 0.57314 0.56851 0.56874 0.56563 0.57391 0.57396 0.58715 0.62574
2160.455 0.6333 0.6515 0.6614 0.6445 0.6619 0.6726 0.6647 0.6784 0.6787 0.6484
2199.035 0.60609 0.63203 0.6834 0.6582 0.61757 0.6533 0.6855 0.6589 0.62214 0.60411
2237.614 0.60616 0.5848 0.56144 0.5112 0.4903 0.4714 0.4453 0.4857 0.5095 0.52379
2276.194 0.5159 0.5002 0.489 0.468 0.4709 0.4748 0.426 0.41 0.425 0.419
2314.773 0.408 0.395 0.423 0.4365 0.4474 0.4711 0.467 0.4813 0.52397 0.542144
2353.353 0.536592 0.540819 0.536452 0.53992 0.55193 0.53053 0.514 0.52949 0.55532 0.55317
2391.932 0.52362 0.53099 0.55529 0.532865 0.499 0.4604 0.4689 0.5034 0.488 0.4628
2430.512 0.4379 0.409 0.393 0.375 0.335 0.317 0.342 0.328 0.292 0.317
2469.092 0.313 0.289 0.301 0.321 0.346 0.362 0.374 0.35 0.316 0.313
2507.671 0.315 0.321 0.328 0.34 0.373 0.367 0.353 0.378 0.371 0.364
2546.251 0.385 0.39 0.398 0.427 0.4409 0.4633 0.4954 0.4949 0.53389 0.60527
2584.830 0.59238 0.56225 0.54346 0.52363 0.474 0.43 0.398 0.365 0.367 0.375
2623.410 0.367 0.319 0.305 0.326 0.325 0.32 0.343 0.334 0.311 0.317
2661.989 0.319 0.369 0.415 0.393 0.371 0.358 0.38 0.392 0.382 0.409
2700.569 0.422 0.387 0.354 0.351 0.364 0.361 0.342 0.317 0.293 0.295
2739.148 0.276 0.291 0.307 0.307 0.314 0.296 0.306 0.322 0.304 0.295
2777.728 0.268 0.26 0.29 0.261 0.26 0.289 0.252 0.218 0.239 0.264
2816.308 0.279 0.292 0.329 0.352 0.305 0.346 0.415 0.418 0.374 0.391
2854.887 0.422 0.395 0.385 0.396 0.415 0.388 0.402 0.4511 0.4433 0.378
2893.467 0.364 0.356 0.385 0.358 0.251 0.193 0.181 0.191 0.188 0.207
2932.046 0.182 0.134 0.144 0.156 0.106 0.112 0.134 0.152 0.176 0.205
2970.626 0.194 0.153 0.197 0.194 0.2 0.231 0.209 0.185 0.246 0.336
3009.205 0.298 0.24 0.333 0.4715 0.58305 0.733 0.8304 0.9191 1.0586 1.0465
3047.785 1.0048 1.0289 1.0981 1.1225 1.0318 0.9035 0.6981 0.539908 0.5159 0.55091
3086.364 0.5016 0.4558 0.428 0.401 0.375 0.348 0.338 0.227 0.2 0.198
3124.944 0.1 0.131 0.248 0.249 0.23 0.243 0.251 0.277 0.268 0.227
3163.524 0.228 0.282 0.293 0.266 0.342 0.421 0.358 0.331 0.403 0.5013
3202.103 0.5146 0.4616 0.4758 0.5112 0.4961 0.4458 0.4757 0.4838 0.4668 0.4597
3240.683 0.4812 0.5057 0.427 0.39 0.354 0.333 0.342 0.374 0.408 0.366
3279.262 0.292 0.229 0.265 0.306 0.291 0.329 0.365 0.322 0.206 0.241
3317.842 0.323 0.3 0.339 0.383 0.4457 0.52619 0.56716 0.6899 0.8692 1.0916
3356.421 1.553 2.353 3.273 4.123 4.773 4.883 4.473 3.773 3.103 2.533
3395.001 2.023 1.673 1.4762 1.3219 1.1173 1.0904 1.1864 1.1732 1.1457 1.2023
3433.580 1.3827 1.653 2.053 2.643 3.343 4.113 4.703 5.003 4.923 4.483
3472.160 3.873 3.283 2.723 2.293 1.963 1.693 1.4616 1.3108 1.267 1.1374
3510.740 0.9804 0.9237 0.851 0.7305 0.6978 0.7199 0.7004 0.6922 0.6487 0.56721
3549.319 0.5088 0.54417 0.5118 0.403 0.348 0.316 0.356 0.381 0.288 0.269
3587.899 0.28 0.245 0.32 0.412 0.398 0.292 0.237 0.267 0.251 0.204
3626.478 0.206 0.277 0.29 0.316 0.356 0.268 0.236 0.26 0.245 0.176
3665.058 0.163 0.206 0.267 0.327 0.249 0.138 0.17 0.23 0.214 0.155
3703.637 0.132 0.164 0.167 0.167 0.168 0.113 0.106 0.176 0.246 0.27
3742.217 0.222 0.14 0.088 0.123 0.163 0.17 0.125 0.07 0.189 0.232
3780.797 0.154 0.123 0.117 0.124 0.148 0.187 0.17 0.229 0.223 0.153
3819.376 0.152 0.129 0.158 0.119 0.032 0.004 0.041 0.102 0.088 0.061
3857.956 0 0 0.106 0.123 0.102 0.103 0.077 0.044 0.042 0.126
3896.535 0.131 0.109 0.08 0.105 0.158 0.138 0.215 0.241 0.102 0.114
3935.115 0.173 0.13 0.122 0.101 0.05 0.015 0.182 0.232 0.081 0.025
3973.694 0.087 0.145 0.151 0.136 0.065 0.114 0.195 0.185
##END=
