##TITLE=Diethyl 1-naphthylmethylphosphonate
##JCAMP-DX=4.24
##DATA TYPE=INFRARED SPECTRUM
##ORIGIN=EPA-IR VAPOR PHASE LIBRARY
##OWNER=SRD/NIST
Collection (C) 2018 copyright by the U.S. Secretary of Commerce
on behalf of the United States of America. All rights reserved.
##CAS REGISTRY NO=53575-08-9
##MOLFORM=C 15 H 19 O 3 P
##$NIST SOURCE=MSDC-IR
##STATE=gas
##XUNITS=1/CM
##YUNITS=ABSORBANCE
##XFACTOR=1.
##YFACTOR=0.001
##DELTAX=1.92934
##FIRSTX=549.9
##LASTX=3999.5
##FIRSTY=45.31
##MAXX=3999.53
##MINX=549.863
##MAXY=0.47248
##MINY=0
##NPOINTS=1789
##XYDATA=(X++(Y..Y))
549.863 45.31 54.38 60.85 63.06 60.77 53.85 44.11 34.42 26.56 21.14
569.156 17.49 15.05 13.35 12 11.08 10.45 9.95 9.78 9.81 9.97
588.450 10.35 10.83 11.06 11.22 11.06 10.4 9.57 8.66 8.04 7.65
607.743 7.26 7.01 6.9 6.78 6.68 6.64 6.67 6.85 7.22 7.89
627.037 8.97 10.67 13.29 16.45 19.26 20.93 21.09 19.71 17.16 14.24
646.330 11.78 10.13 9.09 8.46 8.1 7.95 7.85 7.81 7.82 7.74
665.624 7.84 8.07 8.21 8.42 8.6 8.87 9.24 9.68 10.23 10.93
684.917 11.62 12.3 13.16 14.17 15.2 16.31 17.41 18.32 19.13 19.73
704.210 20.08 20.43 20.91 21.76 23.13 25.04 27.32 29.66 31.87 33.76
723.504 34.88 34.94 33.73 31.37 28.43 25.41 22.92 21.33 20.56 20.68
742.797 21.57 23.17 25.67 29 33.07 38.22 44.92 53.74 65.85 82.65
762.091 105.73 136.15 173.06 212.98 249.46 273.41 275.74 257.63 228.64 196.21
781.384 166.6 143.56 127.53 117.28 110.85 106.66 103.74 101.49 98.94 95.84
800.678 92.87 89.92 86.55 82.49 77.68 72.52 67.25 61.88 56.66 51.93
819.971 47.81 44.36 41.81 40.31 39.76 40.12 41.4 43.27 45.37 47.35
839.264 48.86 49.44 48.89 47.37 45.18 42.67 40.38 38.72 37.64 36.94
858.558 36.11 34.96 33.56 32.36 32.12 33.17 35.35 38.18 40.53 41.3
877.851 40.22 37.56 33.91 30.12 27.07 25.3 24.5 24.4 24.95 25.83
897.145 26.99 28.38 29.97 31.72 33.62 35.7 38.1 40.89 44.12 47.9
916.438 52.27 57.43 63.56 70.76 79.28 89.37 101.29 115.32 131.49 149.71
935.732 169.56 190.04 210.06 228.35 243.79 255.59 263.42 267.35 267.61 264.66
955.025 258.81 250.25 239.18 225.99 211.23 195.23 178.35 161.49 145.33 130.25
974.318 116.66 104.84 94.86 86.64 80.12 75.15 71.65 69.5 68.63 69.01
993.612 70.62 73.63 78.18 84.47 92.95 103.91 117.33 132.71 148.96 165.4
1012.905 182.01 199.19 217.81 239.36 265.14 295.2 328.34 362.58 395.74 425.41
1032.199 449.09 465.11 472.48 470.99 461.83 447.49 430.89 415.15 402.5 393.91
1051.492 389.3 387.46 386.33 383.67 377.44 366 348.92 326.99 301.41 274.04
1070.786 246.92 221.7 199.42 180.53 164.95 152.39 142.67 135.48 130.94 128.95
1090.079 129.31 131.69 134.94 137.41 137.39 134 127.27 117.86 107.11 96.57
1109.372 87.46 79.92 73.77 68.76 64.55 61.06 58.15 55.68 53.62 51.86
1128.666 50.43 49.4 48.6 48.05 47.76 47.58 47.52 47.59 47.5 47.24
1147.959 46.97 46.48 46.02 45.79 45.81 46.15 47 48.33 49.56 50.2
1167.253 49.83 48.51 46.29 43.31 40.49 38.35 36.5 34.68 32.8 31.05
1186.546 29.43 27.88 26.63 25.65 24.97 24.7 24.87 25.55 26.87 28.8
1205.840 31.46 34.78 38.18 41.59 45.06 48.23 50.41 51.17 50.74 48.96
1225.133 45.84 42.49 39.23 36.52 35 34.48 35.01 36.67 39.01 41.56
1244.426 44.18 46.88 49.96 53.92 59.49 67.52 78.67 93.43 112 133.72
1263.720 157.18 180.23 199.52 212.18 216.36 212.17 201.97 188.8 175.27 162.62
1283.013 150.9 139.61 128.15 116.11 103.62 91.23 79.67 69.24 60.13 52.41
1302.307 45.89 40.47 35.94 32.1 28.96 26.24 23.87 21.9 20.25 18.82
1321.600 17.5 16.38 15.49 14.73 14.14 13.78 13.56 13.44 13.44 13.56
1340.894 13.82 14.15 14.39 14.62 14.87 15.09 15.26 15.47 15.78 16.26
1360.187 17.05 18.2 19.78 21.64 23.53 25.27 26.51 27.29 27.93 28.72
1379.480 30.14 32.47 36.18 41.44 48.4 56.8 65.43 72.49 76.04 75.21
1398.774 70.26 62.4 53.56 45.7 40.19 37.01 35.39 34.7 34.42 34.04
1418.067 33.11 31.47 29.32 26.95 24.62 22.51 20.74 19.46 18.65 18.12
1437.361 17.9 18 18.29 18.68 18.88 18.76 18.36 17.71 16.95 16.29
1456.654 15.88 15.75 15.77 15.69 15.46 15.09 14.57 13.92 13.32 12.92
1475.948 12.72 12.61 12.55 12.57 12.63 12.69 12.74 12.91 13.25 13.72
1495.241 14.36 15.12 16.1 17.25 18.48 19.74 20.87 21.55 21.57 20.91
1514.534 19.58 17.79 15.87 14.01 12.34 11 9.84 8.95 8.22 7.63
1533.828 7.2 6.89 6.67 6.44 6.19 5.98 5.81 5.64 5.51 5.45
1553.121 5.41 5.35 5.38 5.48 5.67 5.96 6.37 6.97 7.7 8.6
1572.415 9.57 10.43 11.18 11.75 12.13 12.36 12.63 13.12 13.9 14.96
1591.708 16.16 17.18 17.55 16.93 15.41 13.25 10.77 8.54 6.96 6.06
1611.002 5.61 5.44 5.48 5.63 5.83 6.12 6.32 6.4 6.51 6.48
1630.295 6.29 6.1 5.94 5.83 5.79 5.76 5.73 5.73 5.71 5.68
1649.588 5.72 5.76 5.81 5.92 6.03 6.16 6.39 6.68 7.01 7.34
1668.882 7.61 7.79 7.91 7.98 8.02 8.05 8.11 8.23 8.31 8.38
1688.175 8.36 8.21 8.02 7.74 7.44 7.19 6.97 6.89 6.88 6.91
1707.469 7.09 7.28 7.52 7.75 7.98 8.17 8.26 8.24 8.16 8.11
1726.762 8.04 8.01 8.04 8.05 8.05 8.11 8.11 8.08 8.12 8.14
1746.056 8.12 8.15 8.2 8.28 8.39 8.41 8.4 8.36 8.26 8.07
1765.349 7.87 7.68 7.52 7.4 7.32 7.25 7.2 7.27 7.37 7.46
1784.642 7.64 7.93 8.29 8.76 9.24 9.72 10.19 10.57 10.76 10.72
1803.936 10.51 10.13 9.69 9.29 8.95 8.71 8.63 8.65 8.69 8.74
1823.229 8.73 8.7 8.59 8.42 8.2 7.97 7.78 7.61 7.47 7.36
1842.523 7.34 7.33 7.38 7.46 7.5 7.63 7.8 7.95 8.06 8.14
1861.816 8.14 8.01 7.75 7.41 7.05 6.73 6.47 6.24 6.06 5.95
1881.110 5.88 5.83 5.81 5.81 5.79 5.77 5.8 5.87 5.97 6.2
1900.403 6.52 6.93 7.45 7.91 8.32 8.65 8.87 8.88 8.77 8.63
1919.696 8.5 8.39 8.29 8.27 8.29 8.28 8.26 8.18 8.01 7.76
1938.990 7.41 6.94 6.38 5.8 5.22 4.6893 4.263 3.9286 3.688 3.526
1958.283 3.412 3.36 3.275 3.184 3.182 3.208 3.22 3.177 3.134 3.117
1977.577 3.103 3.072 3.044 3 2.93 2.91 2.91 2.9 2.86 2.83
1996.870 2.86 2.86 2.82 2.81 2.83 2.78 2.74 2.71 2.65 2.59
2016.164 2.57 2.55 2.5 2.53 2.54 2.49 2.5 2.5 2.46 2.44
2035.457 2.45 2.46 2.45 2.45 2.48 2.48 2.46 2.46 2.49 2.51
2054.750 2.5 2.5 2.52 2.55 2.53 2.52 2.53 2.49 2.47 2.47
2074.044 2.49 2.5 2.5 2.48 2.45 2.46 2.48 2.47 2.44 2.46
2093.337 2.47 2.45 2.43 2.45 2.48 2.46 2.43 2.44 2.46 2.48
2112.631 2.48 2.48 2.48 2.44 2.45 2.48 2.47 2.44 2.41 2.43
2131.924 2.42 2.38 2.36 2.36 2.35 2.37 2.38 2.37 2.35 2.34
2151.218 2.38 2.42 2.43 2.41 2.4 2.41 2.39 2.37 2.37 2.37
2170.511 2.35 2.34 2.39 2.41 2.39 2.37 2.33 2.31 2.29 2.28
2189.804 2.29 2.25 2.22 2.22 2.26 2.27 2.25 2.22 2.2 2.22
2209.098 2.23 2.21 2.22 2.25 2.24 2.25 2.27 2.28 2.3 2.3
2228.391 2.31 2.33 2.31 2.33 2.34 2.33 2.31 2.34 2.41 2.44
2247.685 2.47 2.5 2.5 2.49 2.46 2.44 2.43 2.43 2.44 2.43
2266.978 2.45 2.48 2.48 2.48 2.49 2.47 2.47 2.49 2.53 2.57
2286.272 2.61 2.64 2.63 2.62 2.63 2.63 2.62 2.61 2.61 2.6
2305.565 2.6 2.62 2.65 2.66 2.66 2.68 2.66 2.62 2.66 2.74
2324.858 2.8 2.87 2.98 3.091 3.139 3.17 3.153 3.06 2.99 2.9
2344.152 2.76 2.63 2.54 2.45 2.4 2.36 2.32 2.28 2.22 2.21
2363.445 2.19 2.16 2.14 2.14 2.16 2.13 2.12 2.15 2.12 2.12
2382.739 2.2 2.18 2.13 2.13 2.09 2.06 2.09 2.13 2.17 2.22
2402.032 2.27 2.35 2.44 2.53 2.61 2.68 2.69 2.69 2.68 2.66
2421.326 2.67 2.69 2.7 2.68 2.66 2.66 2.61 2.58 2.57 2.54
2440.619 2.55 2.55 2.52 2.51 2.49 2.5 2.5 2.48 2.48 2.49
2459.912 2.49 2.48 2.44 2.4 2.35 2.33 2.36 2.36 2.33 2.25
2479.206 2.22 2.24 2.2 2.14 2.13 2.13 2.13 2.11 2.09 2.08
2498.499 2.06 2.03 2.04 2.05 2.04 2.01 2.01 2.02 2.02 2.04
2517.793 2.03 2.05 2.05 2.03 2.05 2.1 2.12 2.11 2.09 2.09
2537.086 2.08 2.06 2.03 2.01 2.02 1.99 1.93 1.94 1.96 1.92
2556.380 1.88 1.87 1.9 1.91 1.87 1.85 1.85 1.87 1.88 1.85
2575.673 1.8 1.81 1.87 1.88 1.87 1.88 1.87 1.82 1.81 1.8
2594.966 1.77 1.79 1.8 1.85 1.87 1.83 1.86 1.93 1.96 1.93
2614.260 1.93 1.98 1.99 2.01 2.05 2.1 2.16 2.22 2.27 2.31
2633.553 2.34 2.32 2.25 2.2 2.15 2.1 2.03 1.97 1.94 1.96
2652.847 1.96 1.88 1.8 1.8 1.82 1.79 1.76 1.77 1.78 1.74
2672.140 1.71 1.7 1.67 1.67 1.68 1.67 1.66 1.66 1.71 1.72
2691.434 1.7 1.75 1.74 1.75 1.86 1.91 1.94 1.99 2.02 2.05
2710.727 2.14 2.15 2.22 2.34 2.41 2.5 2.63 2.82 3.014 3.107
2730.020 3.155 3.189 3.205 3.149 3.066 3.076 3.082 3.03 3.035 3.083
2749.314 3.125 3.212 3.226 3.201 3.277 3.384 3.435 3.507 3.607 3.672
2768.607 3.806 3.9102 4.05642 4.1813 4.1956 4.2409 4.26 4.1859 4.08106 4.01337
2787.901 3.9101 3.853 3.832 3.784 3.803 3.874 3.9174 3.9787 3.9828 4.06939
2807.194 4.1703 4.1658 4.3133 4.4837 4.6103 4.7249 4.8371 4.9755 5.08 5.27
2826.488 5.4 5.53 5.66 5.74 5.91 6.09 6.2 6.28 6.51 6.79
2845.781 7.09 7.41 7.69 8.11 8.56 8.97 9.51 10.11 10.79 11.6
2865.074 12.67 13.85 14.99 16.27 17.72 19.24 20.73 22.02 22.99 23.78
2884.368 24.44 24.86 25.03 25.36 26.03 26.92 28.25 29.94 31.89 34.21
2903.661 36.69 39.26 41.77 44.03 46.03 47.56 48.61 49.33 49.98 50.99
2922.955 52.67 55.16 58.42 62.37 67.04 71.9 76.48 80.18 82.21 82.35
2942.248 80.5 77.01 72.54 67.72 63.32 59.9 57.58 56.42 56.29 56.98
2961.542 58.37 60.21 62.49 65.14 68.22 72.08 76.98 83.02 90.32 98.42
2980.835 106.02 111.41 113.5 112.25 107.87 101.42 94.26 87.37 81.06 75.28
3000.128 69.95 65.04 60.6 56.77 53.52 50.68 48.08 45.43 42.85 40.37
3019.422 38.05 36 34.32 32.91 31.88 31.49 31.61 32.28 33.69 35.85
3038.715 38.8 42.73 47.72 53.64 60.24 66.72 71.97 75.34 76.68 76.52
3058.009 75.83 75.44 75.8 76.08 75 72.03 67.01 60.73 54.32 48.65
3077.302 44.35 41.41 39.2 37.52 36.08 34.54 32.72 30.6 28.45 26.13
3096.596 23.64 21.21 18.83 16.65 14.51 12.42 10.65 9.05 7.69 6.5
3115.889 5.61 5.06 4.5031 4.09055 3.796 3.464 3.203 3.027 2.79 2.55
3135.182 2.53 2.51 2.35 2.24 2.25 2.21 2.14 2.22 2.2 2.1
3154.476 2.09 2.1 2.16 2.14 2.03 1.96 1.98 1.98 1.97 2.05
3173.769 2.14 2.12 1.87 1.82 1.79 1.67 1.7 1.64 1.6 1.59
3193.063 1.53 1.41 1.33 1.34 1.28 1.16 1.19 1.31 1.41 1.42
3212.356 1.34 1.36 1.4 1.4 1.28 1.19 1.13 1.08 1.07 1
3231.650 0.85 0.8 0.84 0.73 0.62 0.57 0.59 0.59 0.54 0.53
3250.943 0.52 0.45 0.35 0.39 0.39 0.28 0.28 0.3 0.31 0.3
3270.236 0.18 0.1 0.11 0.17 0.14 0.06 0.12 0.22 0.18 0.12
3289.530 0.11 0.14 0.27 0.29 0.29 0.32 0.16 0.17 0.22 0.21
3308.823 0.2 0.15 0.13 0.08 0.1 0.06 0.06 0.14 0.08 0.03
3328.117 0.06 0.03 0.04 0.11 0.07 0.1 0.12 0.04 0 0.01
3347.410 0.04 0.05 0.09 0.15 0.18 0.14 0.1 0.09 0.18 0.31
3366.704 0.26 0.14 0.13 0.18 0.12 0.17 0.26 0.26 0.22 0.18
3385.997 0.2 0.26 0.25 0.27 0.33 0.27 0.31 0.35 0.35 0.46
3405.290 0.43 0.27 0.28 0.31 0.35 0.38 0.31 0.27 0.3 0.32
3424.584 0.39 0.47 0.48 0.45 0.33 0.31 0.31 0.28 0.33 0.51
3443.877 0.55 0.42 0.41 0.36 0.47 0.59 0.58 0.49 0.47 0.45
3463.171 0.44 0.58 0.55 0.43 0.41 0.47 0.47 0.44 0.51 0.56
3482.464 0.55 0.54 0.56 0.66 0.61 0.5 0.77 0.88 0.77 0.77
3501.758 0.77 0.73 0.66 0.63 0.64 0.74 0.83 0.86 0.84 0.88
3521.051 0.89 0.85 0.72 0.67 0.87 0.9 0.86 0.89 0.95 0.98
3540.344 0.83 0.8 0.99 0.94 0.9 0.91 0.95 1.05 0.97 0.87
3559.638 0.89 0.94 0.98 1.04 0.99 0.95 1.03 1.1 1.11 1.09
3578.931 1.17 1.24 1.21 1.11 1.07 1.09 1.07 1.09 1.03 0.97
3598.225 1.02 1.13 1.16 1.01 0.99 1.07 1.02 1.09 1.12 1.05
3617.518 0.99 0.99 1.16 1.26 1.19 1.11 1.12 1.13 1.11 1.2
3636.812 1.2 1.13 1.09 1.13 1.24 1.27 1.22 1.13 1.21 1.41
3656.105 1.41 1.33 1.34 1.3 1.27 1.3 1.27 1.26 1.27 1.27
3675.398 1.17 1.13 1.23 1.29 1.28 1.36 1.42 1.43 1.45 1.45
3694.692 1.47 1.47 1.5 1.53 1.47 1.48 1.55 1.55 1.52 1.53
3713.985 1.56 1.51 1.5 1.56 1.55 1.56 1.56 1.56 1.61 1.58
3733.279 1.53 1.45 1.51 1.61 1.55 1.47 1.56 1.56 1.54 1.68
3752.572 1.68 1.67 1.74 1.76 1.75 1.75 1.85 1.9 1.8 1.78
3771.866 1.83 1.83 1.89 1.95 1.9 1.92 2 1.98 1.94 1.94
3791.159 1.92 2.02 2.07 2.06 2.1 2.1 2.03 1.99 1.99 2.1
3810.452 2.12 2 2 2.03 1.93 1.88 1.96 1.96 1.96 1.95
3829.746 1.91 1.99 2.18 2.24 2.18 2.17 2.26 2.37 2.4 2.45
3849.039 2.48 2.46 2.43 2.36 2.38 2.41 2.35 2.3 2.25 2.22
3868.333 2.23 2.2 2.18 2.13 2.1 2.14 2.19 2.19 2.24 2.25
3887.626 2.12 2.05 2.01 2.04 2.19 2.19 2.13 2.1 2.14 2.17
3906.920 2.17 2.25 2.33 2.33 2.31 2.35 2.41 2.38 2.38 2.43
3926.213 2.43 2.45 2.49 2.58 2.6 2.53 2.51 2.56 2.59 2.54
3945.506 2.43 2.36 2.38 2.39 2.38 2.36 2.36 2.33 2.3 2.37
3964.800 2.39 2.33 2.32 2.25 2.11 2.21 2.36 2.33 2.27 2.26
3984.093 2.31 2.29 2.26 2.3 2.27 2.28 2.29 2.33 2.42
##END=
