##TITLE=3-Chlorobenzhydrazide
##JCAMP-DX=4.24
##DATA TYPE=INFRARED SPECTRUM
##ORIGIN=EPA-IR VAPOR PHASE LIBRARY
##OWNER=SRD/NIST
Collection (C) 2018 copyright by the U.S. Secretary of Commerce
on behalf of the United States of America. All rights reserved.
##CAS REGISTRY NO=536-40-3
##MOLFORM=C 7 H 7 Cl N 2 O
##$NIST SOURCE=MSDC-IR
##STATE=gas
##XUNITS=1/CM
##YUNITS=ABSORBANCE
##XFACTOR=1.
##YFACTOR=0.001
##DELTAX=1.92898
##FIRSTX=549.8
##LASTX=4000.7
##FIRSTY=3.523
##MAXX=4000.7
##MINX=549.759
##MAXY=0.059063
##MINY=0
##NPOINTS=1790
##XYDATA=(X++(Y..Y))
549.759 3.523 3.463 3.343 3.043 2.883 3.103 3.113 2.893 2.983 3.063
569.049 2.923 2.973 3.053 3.113 3.133 3.073 2.883 2.653 2.913 3.033
588.339 2.993 3.023 2.863 2.833 2.713 2.643 2.623 2.483 2.523 2.663
607.628 2.783 2.573 2.473 2.503 2.453 2.503 2.493 2.523 2.723 2.703
626.918 2.493 2.613 2.683 2.423 2.293 2.653 2.853 2.803 2.713 2.793
646.208 2.983 3.163 3.403 3.573 3.523 3.453 3.463 3.553 3.883 4.163
665.498 4.513 4.913 5.083 5.383 5.943 6.453 6.933 7.273 7.043 6.733
684.787 6.483 6.153 5.813 5.303 5.013 4.633 4.203 4.103 4.003 3.823
704.077 3.713 3.783 3.933 4.063 4.193 4.343 4.653 5.093 5.603 6.223
723.367 6.903 7.713 8.873 10.223 11.623 13.373 15.733 18.153 20.723 23.143
742.657 25.013 26.113 26.573 26.343 25.093 23.463 21.543 19.113 16.793 15.003
761.947 13.343 11.733 10.353 9.423 8.753 8.033 7.733 7.683 7.323 6.853
781.236 6.813 7.003 7.183 7.383 7.573 7.833 8.003 8.143 8.413 8.463
800.526 8.223 7.653 6.803 6.063 5.503 5.103 4.613 4.143 3.973 3.693
819.816 3.373 3.343 3.193 3.143 3.413 3.483 3.403 3.373 3.413 3.473
839.106 3.543 3.673 3.793 4.083 4.293 4.303 4.273 4.353 4.653 4.993
858.395 5.133 5.423 5.863 6.033 6.343 6.893 7.413 7.843 8.213 8.743
877.685 9.083 9.293 9.293 9.283 9.433 9.283 9.063 8.793 8.683 8.723
896.975 8.603 8.413 8.273 8.153 8.073 7.943 7.683 7.393 7.243 7.313
916.265 7.463 7.743 8.393 9.183 9.653 10.483 11.743 12.853 14.203 15.543
935.555 16.703 17.943 19.063 19.803 20.173 20.123 19.653 18.823 17.763 16.423
954.844 14.673 12.723 10.843 9.203 7.933 6.983 6.073 5.303 4.673 4.183
974.134 3.763 3.483 3.303 3.183 3.113 2.883 2.703 2.713 2.653 2.753
993.424 2.893 2.673 2.453 2.543 2.583 2.453 2.373 2.153 1.993 1.863
1012.714 1.563 1.523 1.813 2.113 2.083 1.703 1.643 1.783 1.713 1.643
1032.003 1.483 1.543 1.493 1.363 1.603 2.043 2.183 2.133 2.273 2.323
1051.293 2.283 2.473 2.743 2.713 2.753 3.293 3.723 3.913 4.213 4.603
1070.583 5.253 5.793 6.093 6.423 6.883 7.193 7.583 8.063 8.313 8.323
1089.873 8.423 9.033 8.903 8.233 7.873 7.693 7.623 6.993 6.203 5.373
1109.163 4.573 4.373 4.263 3.793 3.023 2.693 2.953 2.893 2.733 2.493
1128.452 2.213 2.303 1.993 1.773 1.973 1.723 1.583 1.863 1.873 1.283
1147.742 1.0466 1.363 1.503 1.733 2.063 2.043 2.393 2.753 2.943 3.093
1167.032 3.113 3.663 4.053 4.063 4.053 4.013 3.933 3.773 3.713 3.663
1186.322 3.193 2.963 2.993 2.983 2.983 2.623 2.393 2.613 2.783 2.583
1205.611 2.573 2.803 2.793 2.723 2.373 2.233 2.663 2.963 3.013 2.933
1224.901 2.983 3.353 3.853 3.873 3.873 4.283 4.793 5.403 5.983 6.543
1244.191 7.223 8.113 9.273 10.753 12.703 14.943 17.333 19.533 21.303 22.523
1263.481 23.643 24.763 25.313 25.383 25.273 25.463 26.033 27.093 28.283 29.393
1282.771 30.093 30.273 29.983 29.073 27.743 25.933 23.633 21.013 18.433 16.073
1302.060 13.873 11.893 10.143 8.633 7.403 6.413 5.703 5.113 4.643 4.333
1321.350 4.093 3.913 3.743 3.593 3.483 3.403 3.313 3.213 3.203 3.203
1340.640 3.143 3.093 3.103 3.123 3.113 3.053 3.073 3.093 2.973 2.873
1359.930 2.833 2.763 2.703 2.673 2.693 2.643 2.673 2.723 2.693 2.723
1379.219 2.823 2.933 3.033 3.153 3.353 3.573 3.863 4.173 4.553 5.033
1398.509 5.583 6.273 6.983 7.713 8.403 9.173 9.943 10.673 11.473 12.303
1417.799 13.203 14.213 15.403 16.843 18.603 20.613 22.923 25.583 28.423 31.283
1437.089 34.273 37.023 39.313 41.173 42.343 42.803 42.553 41.613 40.033 38.043
1456.378 35.823 33.463 31.303 29.423 27.773 26.303 25.063 24.023 23.173 22.583
1475.668 22.173 21.773 21.453 21.193 20.863 20.543 20.083 19.333 18.433 17.403
1494.958 16.233 15.063 13.913 12.783 11.663 10.643 9.793 9.013 8.293 7.703
1514.248 7.163 6.673 6.323 6.013 5.783 5.493 5.263 5.123 4.963 4.853
1533.538 4.773 4.753 4.843 4.933 5.013 5.253 5.543 5.923 6.433 7.053
1552.827 7.873 8.793 9.833 10.953 12.153 13.383 14.433 15.333 16.023 16.383
1572.117 16.353 16.053 15.413 14.433 13.283 12.133 11.073 10.183 9.573 9.153
1591.407 8.813 8.673 8.523 8.203 7.993 7.933 7.883 7.763 7.743 7.793
1610.697 7.843 8.113 8.493 8.773 9.243 9.933 10.603 11.353 12.173 13.043
1629.986 13.803 14.313 14.713 14.883 14.723 14.333 13.743 13.083 12.323 11.403
1649.276 10.413 9.553 8.863 8.433 8.163 8.013 8.033 8.113 8.333 8.693
1668.566 9.153 9.703 10.403 11.193 12.033 13.033 14.143 15.333 16.843 18.893
1687.856 21.683 25.343 30.123 36.013 42.963 50.013 55.403 58.233 58.663 58.853
1707.146 59.063 56.843 50.613 42.163 34.123 27.743 22.993 19.573 17.113 15.303
1726.435 14.023 13.223 12.633 11.963 11.093 10.073 8.993 8.073 7.213 6.313
1745.725 5.493 4.823 4.313 3.793 3.343 3.023 2.853 2.703 2.503 2.343
1765.015 2.253 2.183 2.093 1.973 1.913 1.843 1.743 1.673 1.643 1.603
1784.305 1.563 1.593 1.593 1.553 1.513 1.553 1.603 1.573 1.563 1.593
1803.594 1.573 1.553 1.593 1.603 1.623 1.683 1.623 1.543 1.493 1.433
1822.884 1.463 1.433 1.413 1.443 1.433 1.383 1.283 1.2156 1.168 1.0986
1842.174 1.001 0.9766 0.967 0.8976 0.9502 0.9903 0.9299 0.9144 0.9352 0.919
1861.464 1.0085 1.0883 1.0511 1.0252 1.0135 1.0378 1.013 0.9962 0.983 1.0027
1880.754 0.9927 0.9219 0.9544 0.978 0.9742 0.961 0.9773 1.0199 0.9182 0.8282
1900.043 0.8462 0.7968 0.7451 0.7405 0.7549 0.7602 0.6952 0.6584 0.7046 0.7201
1919.333 0.7181 0.7659 0.7948 0.807 0.8066 0.8167 0.8458 0.8855 0.9146 0.9404
1938.623 0.9262 0.8723 0.8646 0.8477 0.8111 0.7846 0.825 0.8296 0.7553 0.7303
1957.913 0.7371 0.6732 0.621 0.5846 0.5069 0.4831 0.4821 0.5073 0.5008 0.4746
1977.202 0.5259 0.4886 0.4647 0.4775 0.4678 0.4806 0.426 0.3979 0.397 0.385
1996.492 0.3837 0.3812 0.3638 0.3558 0.33019 0.3273 0.32273 0.33565 0.3892 0.401
2015.782 0.3768 0.3567 0.33636 0.3551 0.4039 0.4096 0.3771 0.34902 0.30484 0.29606
2035.072 0.32466 0.364 0.3544 0.32581 0.3606 0.32366 0.29747 0.31984 0.30479 0.27847
2054.362 0.28539 0.29232 0.32869 0.31076 0.26447 0.3059 0.34627 0.30281 0.31528 0.34038
2073.651 0.35277 0.3944 0.3579 0.2722 0.2399 0.232 0.1826 0.27204 0.3752 0.4058
2092.941 0.4303 0.3854 0.33867 0.31884 0.27067 0.30386 0.29385 0.27455 0.32759 0.3045
2112.231 0.26729 0.1875 0.1998 0.26463 0.2197 0.2336 0.29589 0.28962 0.32633 0.29744
2131.521 0.2392 0.30625 0.30667 0.261286 0.31393 0.3662 0.32865 0.32383 0.26712 0.24601
2150.810 0.26708 0.2401 0.28365 0.29015 0.30476 0.31397 0.27385 0.33108 0.35024 0.28275
2170.100 0.33879 0.34145 0.261077 0.260867 0.32077 0.34943 0.34743 0.3605 0.35131 0.3451
2189.390 0.33313 0.31974 0.34842 0.3873 0.3729 0.373 0.34671 0.31315 0.3572 0.3901
2208.680 0.4083 0.3745 0.33866 0.30583 0.33835 0.3876 0.35058 0.28703 0.29515 0.3739
2227.970 0.4006 0.3675 0.35216 0.3769 0.383 0.4244 0.3739 0.32143 0.375 0.4021
2247.259 0.3782 0.4086 0.4734 0.4485 0.4201 0.4533 0.4201 0.3792 0.4017 0.3954
2266.549 0.4286 0.4305 0.404 0.4774 0.5093 0.4456 0.4501 0.458 0.4018 0.3812
2285.839 0.3821 0.3976 0.3115 0.260787 0.33977 0.3548 0.3621 0.3669 0.30741 0.29309
2305.129 0.32877 0.31654 0.32202 0.33768 0.34228 0.33183 0.32983 0.33009 0.28174 0.27009
2324.418 0.3331 0.3619 0.3905 0.4619 0.4696 0.4695 0.4511 0.438 0.4267 0.3672
2343.708 0.3802 0.4146 0.4158 0.5113 0.5735 0.5185 0.5049 0.4738 0.3972 0.352
2362.998 0.3591 0.4445 0.4721 0.4989 0.4995 0.3741 0.3608 0.4332 0.4209 0.4014
2382.288 0.34714 0.31237 0.3474 0.34606 0.3634 0.3647 0.34466 0.32693 0.2984 0.29443
2401.578 0.30394 0.262415 0.31549 0.3425 0.26682 0.2408 0.257666 0.32467 0.32243 0.27326
2420.867 0.24503 0.1956 0.2328 0.32201 0.2803 0.257271 0.3557 0.3932 0.3656 0.3609
2440.157 0.33177 0.3555 0.33116 0.25096 0.32959 0.3538 0.31472 0.3682 0.3719 0.33703
2459.447 0.32223 0.31055 0.28665 0.30913 0.3647 0.30722 0.26845 0.31284 0.30104 0.28256
2478.737 0.257175 0.259234 0.32277 0.29766 0.3091 0.34837 0.30547 0.3009 0.3462 0.3793
2498.026 0.3827 0.3774 0.3645 0.3578 0.3791 0.4305 0.4373 0.4102 0.4227 0.4658
2517.316 0.4292 0.4258 0.4753 0.4731 0.4445 0.4094 0.3663 0.4149 0.4568 0.3728
2536.606 0.33946 0.362 0.3776 0.3863 0.419 0.4283 0.4367 0.4624 0.4623 0.3791
2555.896 0.3932 0.4019 0.4022 0.4934 0.5157 0.5286 0.522 0.5256 0.5359 0.4458
2575.186 0.4526 0.5464 0.4965 0.4537 0.4417 0.4669 0.5203 0.4732 0.3897 0.4392
2594.475 0.4085 0.32855 0.32699 0.29762 0.31139 0.2391 0.26905 0.29707 0.26382 0.26866
2613.765 0.254966 0.26515 0.28148 0.2429 0.217 0.235 0.2398 0.30725 0.29062 0.2302
2633.055 0.27745 0.30155 0.28996 0.30546 0.26569 0.24644 0.26451 0.2673 0.255647 0.2038
2652.345 0.1865 0.2138 0.28389 0.33018 0.29164 0.29119 0.30662 0.31669 0.27709 0.27741
2671.634 0.35199 0.4338 0.4532 0.3819 0.3548 0.31568 0.29357 0.355 0.28762 0.1881
2690.924 0.25004 0.2903 0.34098 0.34668 0.29835 0.2882 0.256444 0.24717 0.3978 0.4901
2710.214 0.3732 0.31313 0.33466 0.3833 0.3641 0.33221 0.4015 0.3993 0.3534 0.4028
2729.504 0.4732 0.4854 0.4448 0.4088 0.3694 0.3228 0.3783 0.4016 0.27657 0.31758
2748.794 0.4099 0.32019 0.29637 0.4208 0.452 0.4024 0.3769 0.33657 0.31709 0.3535
2768.083 0.4185 0.33956 0.30557 0.31258 0.262087 0.28252 0.27445 0.1922 0.26616 0.3772
2787.373 0.346 0.3816 0.4863 0.5021 0.452 0.35256 0.27776 0.31583 0.2195 0.152
2806.663 0.30865 0.4455 0.4467 0.4121 0.34854 0.31723 0.32085 0.28838 0.29509 0.33272
2825.953 0.3645 0.374 0.262097 0.211 0.29308 0.33186 0.33859 0.3564 0.404 0.34089
2845.242 0.262058 0.260195 0.33355 0.3997 0.39 0.260756 0.187 0.312 0.3078 0.2937
2864.532 0.413 0.4217 0.3553 0.28663 0.30894 0.3947 0.34728 0.33387 0.3554 0.3768
2883.822 0.3941 0.3648 0.3579 0.3888 0.3996 0.3642 0.33754 0.3948 0.4259 0.34351
2903.112 0.28135 0.30425 0.32188 0.26732 0.2297 0.1959 0.1721 0.2198 0.257066 0.30428
2922.401 0.2168 0.27683 0.4828 0.4129 0.2469 0.25108 0.3535 0.3704 0.4887 0.6006
2941.691 0.4802 0.33127 0.3554 0.397 0.3286 0.3589 0.4849 0.4711 0.447 0.5978
2960.981 0.5773 0.425 0.3953 0.4152 0.4063 0.34678 0.33772 0.3677 0.3982 0.39
2980.271 0.34275 0.3348 0.31785 0.29376 0.3995 0.5387 0.5048 0.5176 0.5112 0.4035
2999.561 0.3732 0.3634 0.4961 0.491 0.4446 0.4447 0.3772 0.5268 0.704 0.6452
3018.850 0.5587 0.7266 0.8232 0.8525 0.9075 0.8981 0.9106 1.0716 1.1945 1.0651
3038.140 0.9867 1.0437 1.1058 1.089 1.0193 0.9663 1.063 1.2155 1.293 1.473
3057.430 1.743 1.923 2.113 2.393 2.813 3.173 3.453 3.673 3.893 4.103
3076.720 4.143 4.143 4.103 3.883 3.613 3.293 2.733 2.313 2.093 2.053
3096.009 1.933 1.603 1.343 1.1875 1.0942 1.0565 0.8926 0.8083 0.7514 0.6289
3115.299 0.5627 0.4601 0.4823 0.5014 0.4498 0.5044 0.4685 0.4186 0.4416 0.4037
3134.589 0.3717 0.34385 0.357 0.382 0.4628 0.4988 0.4886 0.3757 0.349 0.3541
3153.879 0.31716 0.26383 0.255707 0.26984 0.25119 0.4048 0.4321 0.4426 0.4994 0.4943
3173.169 0.5128 0.4775 0.5713 0.6799 0.6226 0.5384 0.4908 0.629 0.6728 0.6513
3192.458 0.693 0.7376 0.857 0.9141 0.8833 0.9983 0.9258 0.735 0.8432 0.8881
3211.748 0.8513 0.9072 0.8363 0.7875 0.836 0.7892 0.6834 0.6754 0.758 0.7636
3231.038 0.711 0.6993 0.6286 0.5967 0.5941 0.5918 0.464 0.3545 0.3607 0.3388
3250.328 0.4494 0.4298 0.4056 0.4798 0.4581 0.3473 0.3849 0.4341 0.4339 0.4747
3269.617 0.4843 0.5949 0.5542 0.404 0.3642 0.4071 0.419 0.4547 0.5253 0.5194
3288.907 0.5281 0.5473 0.5966 0.673 0.6355 0.5589 0.5279 0.5989 0.7173 0.7291
3308.197 0.6804 0.6715 0.7114 0.6746 0.6132 0.5792 0.5579 0.7131 0.7339 0.6316
3327.487 0.8403 0.791 0.7045 0.8372 0.7842 0.7318 0.8746 1.0178 1.0669 0.9598
3346.777 0.966 1.1261 0.9833 0.8503 0.8553 0.7995 0.7897 0.7464 0.6759 0.7793
3366.066 0.9247 0.9003 0.7752 0.779 0.823 0.6895 0.6305 0.7967 1.0479 1.0163
3385.356 1.051 1.2316 1.2353 1.2444 1.263 1.2035 1.1998 1.1856 1.0855 1.0404
3404.646 0.8916 0.8701 0.9249 0.9857 1.0748 1.0173 1.0119 1.0711 1.1084 1.2517
3423.936 1.393 1.563 1.553 1.533 1.773 2.033 2.203 2.323 2.483 2.703
3443.225 2.933 3.153 3.433 3.813 4.163 4.403 4.753 5.333 5.903 6.553
3462.515 7.123 7.613 8.163 8.613 8.973 9.043 9.033 8.793 8.273 7.823
3481.805 7.133 6.313 5.563 4.823 4.303 3.873 3.493 2.983 2.503 2.313
3501.095 2.303 2.093 1.803 1.583 1.403 1.323 1.2116 1.0624 1.0333 1.0311
3520.385 0.9073 0.8156 0.6775 0.6618 0.5524 0.4629 0.5319 0.5665 0.6153 0.5301
3539.674 0.597 0.6775 0.5377 0.4179 0.30325 0.32651 0.5147 0.5154 0.31594 0.3289
3558.964 0.3745 0.34405 0.3585 0.4475 0.4423 0.3925 0.432 0.394 0.3657 0.4369
3578.254 0.5109 0.4285 0.3723 0.4138 0.4097 0.4132 0.4602 0.4089 0.2268 0.2056
3597.544 0.24472 0.1863 0.2082 0.2119 0.31623 0.3769 0.34467 0.29604 0.3532 0.34269
3616.833 0.28473 0.33397 0.394 0.4744 0.3682 0.30066 0.262053 0.149 0.141 0.24345
3636.123 0.2168 0.1612 0.2192 0.31164 0.31169 0.30876 0.32905 0.28877 0.256557 0.252418
3655.413 0.29229 0.2931 0.2107 0.2177 0.29046 0.2333 0.1721 0.128 0.133 0.27335
3674.703 0.29439 0.262949 0.31299 0.25206 0.1644 0.24966 0.3452 0.29403 0.29013 0.2382
3693.993 0.256852 0.2861 0.143 0.099 0.2262 0.33474 0.27618 0.2204 0.239 0.1653
3713.282 0.133 0.2132 0.2091 0.1871 0.2307 0.33707 0.31581 0.1943 0.34152 0.5036
3732.572 0.4214 0.4313 0.4411 0.255281 0.252492 0.4578 0.5478 0.4807 0.4234 0.31717
3751.862 0.32651 0.34933 0.2382 0.31801 0.4004 0.32469 0.2287 0.33976 0.5547 0.448
3771.152 0.33422 0.29346 0.2202 0.25181 0.1652 0.1969 0.28759 0.1654 0.1975 0.256591
3790.441 0.1711 0.126 0.149 0.27794 0.28023 0.252874 0.25139 0.29737 0.4488 0.4212
3809.731 0.3651 0.3664 0.4091 0.3621 0.32377 0.4606 0.6252 0.5755 0.554 0.4554
3829.021 0.255738 0.32814 0.3635 0.2196 0.13 0.2134 0.4638 0.5217 0.4094 0.4283
3848.311 0.5023 0.4605 0.1979 0.117 0.255243 0.4378 0.4652 0.34351 0.3204 0.32473
3867.601 0.24483 0.2383 0.2253 0.29871 0.4702 0.31958 0.1955 0.141 0.115 0.074
3886.890 0.141 0.252043 0.2268 0.255658 0.3277 0.2938 0.1834 0.3623 0.3859 0.26801
3906.180 0.1952 0.087 0.27433 0.3868 0.2175 0.2208 0.1967 0.252776 0.3027 0.30359
3925.470 0.2095 0.065 0.29639 0.4242 0.2736 0.2132 0.31324 0.3835 0.4069 0.30717
3944.760 0.3633 0.4667 0.3556 0.32296 0.30984 0.28132 0.30092 0.2391 0.2228 0.27278
3964.049 0.27281 0.32341 0.3796 0.1715 0.113 0.27132 0.28446 0.2253 0.1771 0.096
3983.339 0 0.076 0.2043 0.2222 0.148 0.2082 0.2073 0.30201 0.3724 0.286
##END=
