##TITLE=m-Anisidine
##JCAMP-DX=4.24
##DATA TYPE=INFRARED SPECTRUM
##ORIGIN=NIST Mass Spectrometry Data Center
##OWNER=NIST Standard Reference Data Program
Collection (C) 2018 copyright by the U.S. Secretary of Commerce
on behalf of the United States of America. All rights reserved.
##CAS REGISTRY NO=536-90-3
##MOLFORM=C 7 H 9 N O
##$NIST SOURCE=MSDC-IR
##SPECTROMETER/DATA SYSTEM=HP-GC/MS/IRD
##STATE=gas
##XUNITS=1/CM
##YUNITS=ABSORBANCE
##XFACTOR=1.0
##YFACTOR=0.000002400
##DELTAX=4.0
##FIRSTX=550.0
##LASTX=3846.0
##FIRSTY=0.001406
##MAXX=3846
##MINX=550
##MAXY=0.024
##MINY=0
##NPOINTS=825
##XYDATA=(X++(Y..Y))
550.0 586 693 413 551 588 633 627 575 534 482
590.0 431 363 345 345 326 306 319 354 376 434
630.0 518 618 746 933 1206 1499 1864 2318 2754 3090
670.0 3305 3363 3454 3454 2947 2317 1865 1494 1179 912
710.0 755 696 683 746 881 1035 1190 1376 1553 1732
750.0 1944 2070 2120 2170 2026 1702 1411 1166 932 739
790.0 609 526 488 477 497 590 730 899 1073 1175
830.0 1257 1343 1443 1473 1350 1162 966 760 571 423
870.0 303 214 151 114 99 97 101 108 124 161
910.0 237 308 390 484 564 624 657 638 570 484
950.0 383 261 147 78 59 56 70 99 145 188
990.0 205 217 232 222 217 260 356 526 800 1195
1030.0 1644 2106 2522 2785 2827 2680 2368 1977 1610 1378
1070.0 1273 1190 1136 1086 1008 892 761 631 522 441
1110.0 384 342 318 356 468 637 942 1536 2645 4129
1150.0 5534 6594 7174 7353 6863 5726 4596 3886 3585 3560
1190.0 3939 4810 5781 6321 6282 5755 4716 3274 1924 1075
1230.0 665 464 375 358 393 463 572 738 998 1361
1270.0 1852 2450 3060 3583 3978 4211 4238 4037 3689 3339
1310.0 3028 2725 2428 2098 1754 1456 1156 810 498 287
1350.0 161 88 52 22 9 13 15 18 40 76
1390.0 109 143 173 211 258 303 366 468 614 834
1430.0 1111 1392 1611 1764 1928 2092 2253 2506 2781 2932
1470.0 3037 3252 3681 4471 5491 6258 6490 6243 5589 4423
1510.0 2997 1969 1457 1260 1174 1110 1068 1057 1060 1086
1550.0 1151 1263 1452 1720 2086 2638 3377 4331 5418 6590
1590.0 7751 8775 9479 9738 9706 9678 9814 10000 9900 9368
1630.0 8477 7188 5564 4020 2860 2108 1611 1272 1047 881
1670.0 754 659 588 537 481 425 383 345 307 274
1710.0 252 233 215 198 180 157 140 122 100 76
1750.0 59 45 35 34 34 52 57 53 55 48
1790.0 45 37 34 25 16 22 21 12 5 0
1830.0 1 9 16 19 18 20 24 25 44 60
1870.0 69 96 125 150 185 218 225 215 199 174
1910.0 144 117 99 85 78 84 85 81 82 76
1950.0 66 52 47 53 56 55 51 46 48 45
1990.0 41 41 40 45 47 53 54 59 73 78
2030.0 89 94 93 96 95 93 103 114 117 121
2070.0 123 127 134 138 132 121 113 98 92 95
2110.0 87 75 78 91 86 74 75 77 80 83
2150.0 80 73 71 66 57 54 57 58 57 65
2190.0 75 81 92 104 114 122 125 132 131 118
2230.0 114 112 103 94 86 75 75 72 64 54
2270.0 51 55 53 53 56 51 48 52 57 64
2310.0 66 64 69 74 85 88 94 89 80 84
2350.0 86 96 95 88 93 94 89 82 78 73
2390.0 69 65 69 72 68 67 66 63 61 60
2430.0 63 74 83 87 89 90 98 95 84 84
2470.0 90 91 94 102 98 91 94 97 93 86
2510.0 82 80 80 79 65 57 59 60 59 45
2550.0 48 57 50 58 63 58 65 72 82 92
2590.0 91 99 102 103 116 118 105 98 94 85
2630.0 79 74 71 75 76 64 60 64 66 64
2670.0 61 74 81 72 67 65 58 56 64 73
2710.0 78 75 70 74 75 72 77 89 97 102
2750.0 105 109 118 127 136 146 147 151 160 163
2790.0 182 200 202 210 224 257 310 375 460 591
2830.0 787 1020 1216 1318 1343 1299 1147 919 729 620
2870.0 575 566 582 626 679 743 833 921 1006 1104
2910.0 1194 1284 1344 1346 1378 1470 1624 1821 1998 2116
2950.0 2167 2176 2090 1814 1517 1312 1169 1083 1047 1088
2990.0 1215 1425 1647 1765 1747 1686 1578 1397 1245 1205
3030.0 1275 1382 1475 1544 1606 1642 1616 1540 1440 1316
3070.0 1177 1042 950 894 837 792 745 670 591 517
3110.0 439 363 312 272 229 183 153 146 142 125
3150.0 107 98 86 79 86 86 89 93 89 89
3190.0 102 116 119 132 145 155 158 163 165 154
3230.0 153 149 141 123 106 99 94 91 86 70
3270.0 54 53 51 47 51 57 57 50 55 52
3310.0 47 45 55 62 56 54 55 67 58 47
3350.0 79 88 66 73 100 111 122 145 179 222
3390.0 282 367 457 536 593 618 625 580 514 452
3430.0 372 289 237 215 191 173 171 174 190 216
3470.0 259 319 377 428 483 529 531 501 474 427
3510.0 365 326 314 269 216 181 154 134 108 99
3550.0 104 103 83 77 82 85 88 86 89 87
3590.0 79 84 94 83 74 73 80 87 94 79
3630.0 69 86 82 79 86 83 78 72 78 82
3670.0 79 72 59 58 76 85 69 63 67 73
3710.0 77 59 63 88 92 90 96 110 99 100
3750.0 109 102 110 119 114 116 108 83 81 85
3790.0 85 94 95 93 82 75 85 102 107 89
3830.0 89 107 130 142 127
##END=
