##TITLE=4-Dimethylamino-3,5-dinitrobenzoic acid
##JCAMP-DX=4.24
##DATA TYPE=INFRARED SPECTRUM
##ORIGIN=EPA-IR VAPOR PHASE LIBRARY
##OWNER=SRD/NIST
Collection (C) 2018 copyright by the U.S. Secretary of Commerce
on behalf of the United States of America. All rights reserved.
##CAS REGISTRY NO=53639-29-5
##MOLFORM=C 9 H 9 N 3 O 6
##$NIST SOURCE=MSDC-IR
##STATE=gas
##XUNITS=1/CM
##YUNITS=ABSORBANCE
##XFACTOR=1.
##YFACTOR=0.001
##DELTAX=3.85796
##FIRSTX=501.5
##LASTX=4000.7
##FIRSTY=0.4911
##MAXX=4000.7
##MINX=501.534
##MAXY=0.01465
##MINY=0.00006562
##NPOINTS=908
##XYDATA=(X++(Y..Y))
501.534 0.4911 0.7199 0.8734 1.07 1.25 1.27 1.11 0.9357 0.7634 0.5809
540.114 0.4296 0.4705 0.6383 0.6585 0.666 0.727 0.7519 0.6775 0.5516 0.4959
578.693 0.5884 0.6076 0.581 0.6568 0.7141 0.8028 0.9131 1.01 1.08 1.08
617.273 1.04 1 0.9903 1.04 1.06 1 0.9448 0.8041 0.6149 0.5271
655.852 0.5102 0.4978 0.4024 0.384 0.4649 0.4711 0.5232 0.5814 0.6987 0.8736
694.432 0.9471 1 1.17 1.55 2.06 2.41 2.36 1.91 1.31 0.907
733.011 0.7001 0.6016 0.6355 0.6678 0.7028 0.9383 1.21 1.38 1.37 1.13
771.591 0.8849 0.668 0.5583 0.4363 0.3552 0.337 0.3086 0.3138 0.2586 0.2248
810.170 0.1727 0.1476 0.1372 0.1335 0.1489 0.1565 0.1648 0.1715 0.118 0.06562
848.750 0.1051 0.1666 0.1465 0.1464 0.2136 0.2019 0.1634 0.1842 0.2087 0.193
887.330 0.2633 0.4264 0.535 0.5656 0.6366 0.7946 0.9443 1.07 1.12 0.9255
925.909 0.6884 0.6121 0.5857 0.6647 0.8142 1.04 1.34 1.37 1.14 0.9051
964.489 0.6458 0.4736 0.4349 0.3281 0.2962 0.3169 0.3216 0.3216 0.3128 0.3275
1003.068 0.3197 0.2809 0.2575 0.3096 0.3214 0.2948 0.3222 0.4171 0.4772 0.4549
1041.648 0.4402 0.4034 0.472 0.6127 0.6839 0.7847 0.9716 1.1 1.21 1.28
1080.227 1.24 1.43 1.67 1.86 2.17 2.59 3.35 4.62 6.34 8.68
1118.807 10.28 10.13 8.35 5.57 3.52 2.51 1.94 1.49 1.2 1.11
1157.387 1.1 1.12 1.16 1.25 1.19 1.21 1.39 1.42 1.5 1.67
1195.966 1.99 2.49 2.79 2.76 2.39 1.88 1.52 1.27 1.04 0.8515
1234.546 0.755 0.6902 0.6663 0.6951 0.7747 0.7672 0.6888 0.758 0.8635 1.11
1273.125 1.42 1.63 1.79 1.76 1.64 1.57 1.55 1.6 1.65 1.78
1311.705 1.97 2.2 2.47 2.81 3.23 3.66 4.14 4.74 5.54 6.5
1350.284 7.3 7.67 7.41 6.65 5.83 5.17 4.64 4.15 3.64 3.04
1388.864 2.44 2.03 1.83 1.77 1.74 1.69 1.56 1.36 1.18 1.11
1427.443 1.14 1.24 1.32 1.32 1.27 1.23 1.26 1.3 1.38 1.42
1466.023 1.41 1.36 1.28 1.25 1.25 1.26 1.33 1.43 1.57 1.78
1504.603 2 2.28 2.61 2.91 3.16 3.43 3.83 4.43 5.4 6.95
1543.182 9 10.95 12.06 11.7 10.04 7.78 5.71 4.13 3.16 2.55
1581.762 2.2 2.11 2.13 2.23 2.43 2.81 3.35 4 4.59 4.92
1620.341 4.82 4.2 3.36 2.61 2.01 1.58 1.24 0.9925 0.7917 0.6247
1658.921 0.5389 0.4587 0.3999 0.3541 0.2772 0.251 0.2541 0.2686 0.2621 0.2234
1697.500 0.2402 0.3316 0.4433 0.5364 0.6434 0.7434 0.8012 0.7779 0.7202 0.6548
1736.080 0.6822 0.8401 1.13 1.61 2.49 4.35 8.03 12.51 14.65 12.65
1774.659 7.63 3.52 1.77 1.09 0.7822 0.6308 0.5586 0.5461 0.6111 0.7181
1813.239 0.8433 0.9299 0.8394 0.6511 0.5173 0.4224 0.364 0.3201 0.2683 0.2524
1851.819 0.263 0.2702 0.2603 0.2241 0.1957 0.1823 0.184 0.1939 0.2079 0.2263
1890.398 0.242 0.2446 0.2408 0.2338 0.2 0.1716 0.1703 0.1771 0.1958 0.2138
1928.978 0.2018 0.1729 0.1851 0.2009 0.1748 0.1623 0.1906 0.1984 0.1723 0.1721
1967.557 0.1782 0.1732 0.1836 0.2075 0.2182 0.2096 0.1908 0.1926 0.2039 0.2053
2006.137 0.2092 0.206 0.2182 0.2214 0.2315 0.2253 0.2127 0.2213 0.2243 0.2121
2044.716 0.2022 0.2092 0.1973 0.2033 0.2158 0.1966 0.2076 0.232 0.2311 0.2373
2083.296 0.2222 0.2042 0.2256 0.2419 0.2438 0.2375 0.2344 0.219 0.2062 0.194
2121.875 0.207 0.23 0.2085 0.1945 0.1788 0.162 0.1835 0.1943 0.1977 0.2038
2160.455 0.2137 0.2208 0.2132 0.2018 0.1809 0.1958 0.2216 0.2439 0.2402 0.226
2199.035 0.2508 0.2623 0.2322 0.2357 0.2425 0.2155 0.2164 0.2526 0.2572 0.2412
2237.614 0.2462 0.2675 0.2747 0.2482 0.2331 0.2424 0.2215 0.2246 0.2528 0.246
2276.194 0.2473 0.2697 0.2887 0.2768 0.2624 0.2462 0.2336 0.2606 0.2717 0.2672
2314.773 0.2553 0.2313 0.2395 0.2557 0.2407 0.2336 0.2636 0.2994 0.3028 0.2791
2353.353 0.2903 0.2984 0.2864 0.2622 0.2364 0.277 0.3043 0.2856 0.2545 0.2317
2391.932 0.2695 0.2947 0.274 0.2965 0.3062 0.302 0.2987 0.2849 0.3025 0.2963
2430.512 0.2871 0.2979 0.2996 0.3073 0.2997 0.2855 0.2898 0.2717 0.2798 0.2876
2469.092 0.2874 0.3039 0.3015 0.3048 0.2993 0.2734 0.2652 0.2823 0.2723 0.2577
2507.671 0.2806 0.3006 0.2644 0.2563 0.2757 0.2988 0.3188 0.3104 0.3257 0.3312
2546.251 0.3285 0.2991 0.3131 0.3663 0.3866 0.3796 0.3841 0.3792 0.3475 0.3268
2584.830 0.3224 0.3582 0.3696 0.3313 0.3049 0.3113 0.3294 0.3256 0.3193 0.3397
2623.410 0.3382 0.3404 0.3476 0.357 0.357 0.368 0.3948 0.3855 0.3953 0.4012
2661.989 0.3644 0.364 0.3742 0.3964 0.4265 0.4166 0.3987 0.3812 0.3656 0.3726
2700.569 0.4076 0.3854 0.3836 0.4156 0.4083 0.4023 0.4066 0.424 0.4415 0.4411
2739.148 0.442 0.4671 0.4483 0.4393 0.4938 0.5031 0.4643 0.4156 0.439 0.4615
2777.728 0.4858 0.4995 0.5139 0.5732 0.5774 0.6135 0.6305 0.6972 0.7942 0.853
2816.308 0.9394 1.03 1.07 1.01 0.938 0.8393 0.7178 0.6753 0.693 0.7796
2854.887 0.8457 0.8943 0.9693 1.03 1.07 1.11 1.16 1.24 1.34 1.42
2893.467 1.49 1.54 1.55 1.6 1.63 1.6 1.54 1.5 1.51 1.51
2932.046 1.53 1.59 1.68 1.78 1.8 1.73 1.62 1.43 1.2 1.03
2970.626 0.9585 0.8671 0.808 0.7925 0.7717 0.8047 0.8459 0.8585 0.8396 0.7638
3009.205 0.6935 0.6121 0.5599 0.5595 0.5328 0.5076 0.5112 0.5065 0.4682 0.4223
3047.785 0.3729 0.353 0.4029 0.4536 0.4905 0.5106 0.4937 0.5355 0.6276 0.6076
3086.364 0.5802 0.6135 0.6117 0.5734 0.5168 0.4985 0.466 0.4425 0.4285 0.4118
3124.944 0.4259 0.4334 0.438 0.424 0.3792 0.3311 0.3763 0.3859 0.3728 0.4371
3163.524 0.4038 0.3783 0.4117 0.3984 0.3728 0.3841 0.38 0.3782 0.3347 0.3103
3202.103 0.3738 0.3915 0.3755 0.3377 0.3544 0.395 0.3956 0.3781 0.3359 0.311
3240.683 0.3006 0.2926 0.2963 0.3888 0.4033 0.3303 0.3301 0.316 0.3105 0.3195
3279.262 0.29 0.2918 0.3414 0.2896 0.2677 0.3366 0.2983 0.284 0.252 0.2531
3317.842 0.3288 0.3038 0.2812 0.3291 0.3199 0.3115 0.3401 0.3418 0.3531 0.3366
3356.421 0.328 0.3247 0.3577 0.3696 0.2953 0.2603 0.2713 0.3267 0.3943 0.3545
3395.001 0.2676 0.332 0.3443 0.2499 0.2761 0.3081 0.3528 0.3473 0.2948 0.3125
3433.580 0.3381 0.2746 0.2061 0.2164 0.2557 0.281 0.2529 0.2433 0.2931 0.2851
3472.160 0.285 0.287 0.286 0.3326 0.3721 0.3931 0.3728 0.3697 0.3219 0.2853
3510.740 0.3333 0.393 0.3559 0.3172 0.3367 0.3632 0.3452 0.3675 0.404 0.4119
3549.319 0.4564 0.3956 0.3754 0.4878 0.6667 1.07 2.08 3.88 5.62 5.84
3587.899 4.39 2.36 1.05 0.6545 0.5269 0.4161 0.3681 0.3283 0.2485 0.2504
3626.478 0.3067 0.3517 0.3069 0.2649 0.3066 0.2994 0.3048 0.3625 0.3355 0.2751
3665.058 0.2838 0.3518 0.3548 0.3009 0.2885 0.2662 0.2866 0.305 0.3574 0.366
3703.637 0.3475 0.3124 0.2609 0.2859 0.2908 0.276 0.2548 0.2566 0.2436 0.2567
3742.217 0.2522 0.284 0.2967 0.2783 0.3203 0.3453 0.4164 0.4221 0.2964 0.3227
3780.797 0.4132 0.3718 0.3324 0.3095 0.2798 0.2044 0.2476 0.3647 0.3677 0.315
3819.376 0.2396 0.1791 0.1669 0.1599 0.1776 0.2329 0.2333 0.2806 0.3394 0.3245
3857.956 0.3657 0.398 0.367 0.3764 0.3815 0.3564 0.3172 0.371 0.4356 0.3388
3896.535 0.3163 0.3007 0.2971 0.3823 0.4326 0.3979 0.3338 0.3458 0.2991 0.2608
3935.115 0.2902 0.2775 0.2761 0.2561 0.2497 0.3559 0.3325 0.35 0.3891 0.3568
3973.694 0.3477 0.3358 0.3304 0.3123 0.3466 0.3275 0.3307 0.382
##END=
