##TITLE=4-Heptadecanone
##JCAMP-DX=4.24
##DATA TYPE=INFRARED SPECTRUM
##ORIGIN=EPA-IR VAPOR PHASE LIBRARY
##OWNER=SRD/NIST
Collection (C) 2018 copyright by the U.S. Secretary of Commerce
on behalf of the United States of America. All rights reserved.
##CAS REGISTRY NO=53685-77-1
##MOLFORM=C 17 H 34 O
##$NIST SOURCE=MSDC-IR
##STATE=gas
##XUNITS=1/CM
##YUNITS=ABSORBANCE
##XFACTOR=1.
##YFACTOR=0.001
##DELTAX=1.92934
##FIRSTX=549.9
##LASTX=3999.5
##FIRSTY=1.023
##MAXX=3999.53
##MINX=549.863
##MAXY=0.59727
##MINY=0
##NPOINTS=1789
##XYDATA=(X++(Y..Y))
549.863 1.023 0.88 0.92 0.89 0.7 0.56 0.63 0.67 0.62 0.58
569.156 0.59 0.64 0.64 0.8 0.74 0.49 0.51 0.43 0.42 0.45
588.450 0.49 0.61 0.64 0.71 0.74 0.67 0.76 0.89 0.94 1.073
607.743 1.146 1.184 1.239 1.382 1.463 1.509 1.633 1.694 1.697 1.752
627.037 1.768 1.782 1.832 1.78 1.716 1.706 1.674 1.632 1.546 1.426
646.330 1.345 1.227 1.141 1.069 1.08 1.072 1.006 1.017 1.108 1.164
665.624 1.05 0.963 1.04 1.119 1.177 1.28 1.333 1.462 1.654 1.715
684.917 1.8737 2.0947 2.2533 2.5371 2.9106 3.2 3.49 3.86 4.37 4.95
704.210 5.57 6.16 6.72 7.32 7.84 8.32 8.74 9.05 9.18 9.21
723.504 9.15 9.05 8.92 8.69 8.45 8.19 7.93 7.71 7.53 7.38
742.797 7.23 7.08 6.9 6.75 6.71 6.61 6.51 6.4 6.27 6.23
762.091 6.23 6.17 6.1 6.01 5.87 5.74 5.6 5.51 5.36 5.25
781.384 5.21 5.09 4.98 4.9 4.76 4.63 4.57 4.5 4.38 4.32
800.678 4.27 4.16 4.06 3.98 3.94 3.82 3.81 3.82 3.76 3.73
819.971 3.63 3.6 3.59 3.6 3.56 3.41 3.43 3.45 3.42 3.38
839.264 3.34 3.39 3.41 3.41 3.41 3.44 3.43 3.47 3.49 3.47
858.558 3.51 3.55 3.63 3.73 3.83 3.91 4 4.15 4.28 4.35
877.851 4.44 4.54 4.68 4.81 4.94 5.04 5.09 5.2 5.26 5.23
897.145 5.12 4.93 4.8 4.64 4.38 4.17 3.99 3.78 3.63 3.46
916.438 3.29 3.19 3.1 3.05 3.01 2.9076 2.7887 2.7553 2.8231 2.8908
935.732 2.9186 2.9198 2.93 3 3.04 3.05 3.18 3.23 3.3 3.44
955.025 3.58 3.77 3.9 4.02 4.14 4.24 4.42 4.64 4.8 4.98
974.318 5.2 5.45 5.74 6.05 6.35 6.73 7.11 7.59 8.09 8.52
993.612 9.05 9.61 10.11 10.62 11.14 11.56 11.94 12.3 12.62 12.89
1012.905 13.1 13.28 13.38 13.4 13.49 13.57 13.59 13.69 13.72 13.78
1032.199 13.94 14.08 14.26 14.45 14.61 14.75 14.89 14.98 15.08 15.15
1051.492 15.05 14.89 14.77 14.58 14.22 13.86 13.52 13.12 12.8 12.53
1070.786 12.32 12.13 11.9 11.7 11.54 11.38 11.23 11.1 11.03 10.93
1090.079 10.79 10.69 10.6 10.68 10.77 10.88 11.15 11.5 12.06 12.86
1109.372 13.77 14.85 16.08 17.41 18.78 20.06 21.33 22.42 23.24 23.8
1128.666 24.11 24.08 23.75 23.26 22.73 22.1 21.38 21 20.53 20.02
1147.959 19.76 19.57 19.51 19.48 19.38 19.19 18.91 18.57 18.24 17.94
1167.253 17.68 17.36 17.05 16.61 16.1 15.57 15.01 14.6 14.21 13.95
1186.546 13.77 13.48 13.28 13.15 12.89 12.59 12.19 11.89 11.8 11.73
1205.840 11.51 11.11 10.65 10.53 10.57 10.47 10.42 10.27 10.57 10.89
1225.133 11.02 11.21 11.29 11.45 11.46 11.53 11.62 11.77 12.1 12.12
1244.426 12.07 12.23 12.5 12.85 13.23 13.56 13.93 14.41 14.95 15.5
1263.720 16.22 16.79 17.2 17.58 17.91 18.14 18.22 18.31 18.5 18.75
1283.013 19 19.27 19.52 19.81 20.08 20.31 20.46 20.55 20.66 20.69
1302.307 20.71 20.66 20.5 20.31 20.04 19.79 19.59 19.39 19.27 19.21
1321.600 19.29 19.56 19.99 20.55 21.29 22.23 23.42 24.88 26.52 28.36
1340.894 30.39 32.6 34.95 37.29 39.57 41.7 43.44 44.62 45.2 45.19
1360.187 44.63 43.55 42.1 40.28 38.06 35.58 33.02 30.6 28.49 26.74
1379.480 25.36 24.23 23.16 22.06 20.92 19.8 18.84 18.02 17.38 16.99
1398.774 16.8 16.77 16.95 17.31 17.82 18.48 19.3 20.1 20.69 21.2
1418.067 21.64 21.88 22.02 22.19 22.37 22.59 23 23.57 24.33 25.33
1437.361 26.61 28.13 29.96 32.15 34.61 37.19 39.85 42.51 45.22 47.73
1456.654 49.96 51.61 52.21 51.69 50.1 47.51 44.23 40.41 36.12 31.72
1475.948 27.71 24.07 21.03 18.46 16.38 14.64 13.18 11.91 10.8 9.9
1495.241 9.15 8.52 7.96 7.43 7 6.6 6.21 5.88 5.56 5.28
1514.534 5.07 4.82 4.62 4.4 4.19 4.04 3.93 3.79 3.66 3.59
1533.828 3.5 3.41 3.3 3.14 3.09 3.11 3.01 2.9295 2.8645 2.8366
1553.121 2.8096 2.7014 2.6046 2.6158 2.6586 2.6182 2.5972 2.5438 2.5141 2.5147
1572.415 2.4729 2.4474 2.4476 2.4782 2.4579 2.4506 2.4524 2.3773 2.3692 2.4336
1591.708 2.4076 2.4106 2.5153 2.5089 2.4599 2.4838 2.4848 2.4803 2.5268 2.5473
1611.002 2.565 2.6339 2.6514 2.6676 2.796 2.816 2.7177 2.7712 2.8805 2.9414
1630.295 3.01 3.04 3.1 3.16 3.24 3.32 3.38 3.46 3.61 3.73
1649.588 3.83 3.96 4.13 4.31 4.49 4.71 4.98 5.23 5.51 5.91
1668.882 6.33 6.74 7.28 7.9 8.63 9.4 10.23 11.22 12.36 13.5
1688.175 14.86 16.49 18.36 20.54 23.33 26.47 30.16 34.82 39.66 45.5
1707.469 52.09 59.41 67.41 76.03 85.13 94.5 103.6 111.01 116.2 118.35
1726.762 116.72 111.38 102.76 92.23 80.17 69 59.1 49.9 42.3 35.76
1746.056 30.38 25.95 22.35 19.26 16.69 14.6 12.86 11.4 10.18 9.16
1765.349 8.22 7.46 6.87 6.32 5.78 5.38 5.02 4.68 4.36 4.1
1784.642 3.89 3.65 3.46 3.32 3.16 3 2.92 2.8522 2.7213 2.5947
1803.936 2.5305 2.4815 2.4179 2.3582 2.3174 2.2657 2.2326 2.1825 2.09 2.03219
1823.229 2.01517 1.94696 1.8798 1.883 1.8645 1.836 1.809 1.759 1.734 1.723
1842.523 1.733 1.725 1.693 1.644 1.596 1.582 1.584 1.531 1.499 1.521
1861.816 1.531 1.521 1.518 1.513 1.475 1.443 1.461 1.458 1.424 1.382
1881.110 1.339 1.353 1.39 1.345 1.324 1.346 1.335 1.358 1.337 1.294
1900.403 1.303 1.308 1.299 1.281 1.254 1.24 1.254 1.23 1.21 1.222
1919.696 1.214 1.222 1.221 1.205 1.195 1.156 1.14 1.161 1.149 1.148
1938.990 1.159 1.148 1.138 1.075 1.067 1.08 1.052 1.083 1.088 1.09
1958.283 1.128 1.129 1.09 1.065 1.104 1.139 1.14 1.153 1.171 1.192
1977.577 1.181 1.129 1.148 1.143 1.096 1.142 1.193 1.187 1.187 1.204
1996.870 1.205 1.22 1.252 1.317 1.345 1.341 1.388 1.427 1.389 1.429
2016.164 1.541 1.555 1.531 1.556 1.646 1.684 1.69 1.69 1.693 1.703
2035.457 1.713 1.723 1.701 1.68 1.67 1.715 1.732 1.661 1.679 1.704
2054.750 1.669 1.667 1.638 1.617 1.631 1.586 1.571 1.589 1.556 1.551
2074.044 1.563 1.558 1.509 1.482 1.518 1.481 1.446 1.484 1.493 1.467
2093.337 1.428 1.402 1.4 1.42 1.432 1.405 1.426 1.465 1.445 1.41
2112.631 1.384 1.374 1.42 1.424 1.408 1.439 1.418 1.425 1.471 1.492
2131.924 1.503 1.483 1.468 1.476 1.528 1.544 1.513 1.513 1.535 1.581
2151.218 1.564 1.561 1.595 1.613 1.61 1.604 1.622 1.611 1.607 1.625
2170.511 1.61 1.6 1.632 1.619 1.606 1.625 1.584 1.595 1.631 1.615
2189.804 1.568 1.545 1.557 1.537 1.565 1.579 1.557 1.588 1.586 1.574
2209.098 1.576 1.581 1.577 1.558 1.549 1.575 1.55 1.544 1.564 1.545
2228.391 1.549 1.558 1.549 1.553 1.556 1.561 1.588 1.584 1.571 1.569
2247.685 1.538 1.526 1.518 1.508 1.533 1.541 1.554 1.598 1.631 1.608
2266.978 1.59 1.6 1.581 1.587 1.599 1.638 1.642 1.619 1.64 1.632
2286.272 1.629 1.619 1.627 1.645 1.635 1.627 1.639 1.626 1.6 1.624
2305.565 1.645 1.654 1.675 1.688 1.68 1.681 1.696 1.706 1.701 1.696
2324.858 1.709 1.706 1.743 1.738 1.669 1.663 1.674 1.651 1.679 1.675
2344.152 1.635 1.664 1.687 1.678 1.671 1.682 1.635 1.64 1.668 1.644
2363.445 1.673 1.702 1.695 1.672 1.704 1.727 1.71 1.722 1.721 1.705
2382.739 1.678 1.692 1.731 1.75 1.749 1.764 1.757 1.715 1.711 1.703
2402.032 1.72 1.721 1.714 1.752 1.752 1.717 1.71 1.694 1.699 1.742
2421.326 1.746 1.719 1.722 1.706 1.701 1.698 1.658 1.636 1.599 1.553
2440.619 1.609 1.646 1.646 1.639 1.57 1.554 1.568 1.59 1.62 1.635
2459.912 1.633 1.628 1.622 1.614 1.629 1.636 1.633 1.658 1.647 1.621
2479.206 1.633 1.653 1.671 1.681 1.723 1.784 1.746 1.713 1.784 1.817
2498.499 1.829 1.8588 1.861 1.878 1.9323 1.9265 1.913 1.97595 2.01031 2.01241
2517.793 2.02484 2.0625 2.1317 2.1783 2.1742 2.1929 2.2642 2.3214 2.3255 2.2912
2537.086 2.3055 2.3785 2.3641 2.3173 2.3422 2.382 2.441 2.4517 2.376 2.3715
2556.380 2.4247 2.4289 2.4391 2.5001 2.5331 2.5531 2.6026 2.6528 2.6923 2.7252
2575.673 2.7013 2.6908 2.7541 2.8257 2.9221 2.98 2.96 2.99 3.01 3.03
2594.966 3.12 3.16 3.19 3.22 3.24 3.3 3.38 3.47 3.48 3.49
2614.260 3.55 3.6 3.65 3.7 3.76 3.86 3.91 3.93 4.01 4.13
2633.553 4.22 4.22 4.24 4.36 4.47 4.52 4.58 4.67 4.73 4.87
2652.847 4.95 5.05 5.25 5.3 5.36 5.56 5.69 5.75 5.86 5.97
2672.140 6.03 6.09 6.16 6.25 6.32 6.37 6.37 6.35 6.35 6.27
2691.434 6.15 6.13 6.11 6.04 5.94 5.85 5.84 5.81 5.74 5.71
2710.727 5.73 5.75 5.72 5.65 5.74 5.84 5.86 5.92 6.01 6.15
2730.020 6.27 6.43 6.55 6.72 6.92 7.13 7.36 7.49 7.56 7.58
2749.314 7.66 7.69 7.74 7.86 7.86 7.96 8.16 8.29 8.43 8.54
2768.607 8.66 8.88 9.16 9.38 9.7 10.06 10.42 10.8 11.24 11.73
2787.901 12.19 12.64 13.15 13.73 14.29 14.98 15.68 16.31 16.96 17.68
2807.194 18.65 19.53 20.39 21.35 22.33 23.39 24.53 25.69 26.98 28.39
2826.488 29.84 31.52 33.5 35.74 38.33 41.4 45.06 49.57 55.1 61.97
2845.781 70.61 81.42 95.02 111.7 131.36 153.02 174.62 193.49 206.84 213.13
2865.074 212.47 206.27 196.67 185.73 175.12 165.97 158.88 153.94 150.66 148.55
2884.368 146.93 145.37 144.17 143.74 144.55 146.93 151.05 156.79 164.04 172.95
2903.661 183.58 195.73 209.33 224.54 241.57 260.97 283.4 309.99 341.86 379.54
2922.955 422.7 469.88 517.05 557.56 585.73 597.27 591.13 569.91 537.89 499.57
2942.248 458.54 417.69 379.05 344.15 313.95 288.97 269.07 254 243.33 236.26
2961.542 231.92 229.14 226.61 222.5 215.28 204.19 189.39 172.08 154.25 137.24
2980.835 121.66 107.85 95.66 85.05 75.93 68.07 61.27 55.4 50.26 45.74
3000.128 41.98 38.74 35.76 33.03 30.74 28.67 26.59 24.93 23.58 22.23
3019.422 20.94 19.82 18.67 17.68 16.86 15.99 15.22 14.58 13.84 13.29
3038.715 12.85 12.25 11.69 11.13 10.77 10.4 9.93 9.6 9.35 9.12
3058.009 8.79 8.44 8.17 7.9 7.58 7.41 7.21 6.87 6.68 6.6
3077.302 6.62 6.64 6.52 6.32 6.1 5.82 5.7 5.65 5.49 5.51
3096.596 5.5 5.33 5.18 5 4.9 4.8 4.81 4.8 4.61 4.46
3115.889 4.24 4.23 4.24 4.06 4.05 4.06 4.04 4.07 3.88 3.75
3135.182 3.76 3.75 3.73 3.67 3.59 3.56 3.58 3.53 3.38 3.33
3154.476 3.3 3.24 3.11 3.08 3.22 3.21 3.04 3.03 2.95 2.7069
3173.769 2.6974 2.6751 2.6549 2.6515 2.6008 2.5922 2.4153 2.2316 2.2506 2.3208
3193.063 2.254 2.1359 2.03063 1.95781 1.96533 2.03306 2.03291 1.9772 1.9182 1.815
3212.356 1.755 1.689 1.586 1.437 1.291 1.34 1.412 1.303 1.265 1.256
3231.650 1.275 1.239 1.172 1.096 0.965 0.92 0.94 0.974 1.012 0.977
3250.943 0.9 0.89 0.91 0.91 0.91 1.005 0.9 0.77 0.74 0.78
3270.236 0.84 0.7 0.68 0.77 0.77 0.74 0.66 0.6 0.65 0.78
3289.530 0.82 0.73 0.67 0.81 0.94 0.78 0.72 0.75 0.69 0.64
3308.823 0.63 0.66 0.73 0.73 0.67 0.64 0.72 0.79 0.78 0.89
3328.117 0.82 0.78 0.89 0.92 0.78 0.58 0.65 0.71 0.65 0.7
3347.410 0.79 0.85 0.89 0.9 0.81 0.86 0.92 0.9 0.9 0.89
3366.704 0.981 1.036 1.075 1.085 0.962 0.86 0.86 1.002 1.11 0.991
3385.997 1.109 1.28 1.234 1.258 1.241 1.29 1.399 1.489 1.412 1.314
3405.290 1.485 1.627 1.726 1.9375 2.03038 2.04579 2.1054 2.1584 2.2884 2.3424
3424.584 2.2988 2.3246 2.3472 2.4182 2.4141 2.4751 2.6073 2.4646 2.4497 2.1953
3443.877 1.734 1.6 1.45 1.353 1.315 1.234 1.105 0.961 0.92 0.9
3463.171 0.9 0.8 0.54 0.51 0.57 0.5 0.42 0.46 0.52 0.47
3482.464 0.45 0.5 0.39 0.28 0.38 0.36 0.22 0.26 0.38 0.43
3501.758 0.26 0.26 0.33 0.21 0.22 0.35 0.35 0.29 0.32 0.32
3521.051 0.15 0 0.2 0.42 0.36 0.3 0.33 0.33 0.33 0.28
3540.344 0.25 0.21 0.05 0.02 0.08 0.15 0.11 0.14 0.26 0.21
3559.638 0.13 0.04 0.06 0.13 0.1 0.26 0.37 0.34 0.33 0.36
3578.931 0.45 0.54 0.47 0.36 0.35 0.35 0.41 0.48 0.52 0.46
3598.225 0.53 0.59 0.6 0.68 0.77 0.77 0.57 0.55 0.71 0.72
3617.518 0.73 0.82 0.82 0.72 0.78 0.86 0.956 1.055 0.975 0.92
3636.812 0.95 1.047 1.201 1.242 1.089 1.009 0.978 0.99 1.018 1.052
3656.105 1.046 0.994 1.008 1.118 1.117 1.05 1.128 1.15 0.93 0.85
3675.398 0.9 0.82 0.82 0.93 1.054 1.102 1.063 0.97 0.94 0.968
3694.692 0.99 0.978 0.99 1.012 0.982 0.94 0.965 0.93 0.94 1.003
3713.985 0.992 1.04 1.089 0.997 0.89 1.039 1.103 0.989 0.93 0.92
3733.279 0.981 0.955 0.86 0.83 0.95 1.066 1.047 1.089 1.183 1.126
3752.572 1.098 1.129 1.104 1.118 1.146 1.112 1.064 1.09 1.056 1.032
3771.866 1.118 1.113 1.022 1.065 1.091 1.079 1.086 0.987 1 1.116
3791.159 1.144 1.162 1.111 1.007 1.093 1.11 1.065 1.2 1.203 1.075
3810.452 1.024 1.067 1.073 1.067 1.202 1.196 1.119 1.156 1.128 1.106
3829.746 1.228 1.266 1.141 1.092 1.154 1.098 1.029 1.111 1.153 1.106
3849.039 1.077 1.074 1.026 0.975 1.079 1.186 1.214 1.219 1.161 1.099
3868.333 1.131 1.271 1.324 1.232 1.212 1.208 1.152 1.114 1.149 1.263
3887.626 1.241 1.106 1.108 1.242 1.308 1.325 1.264 1.165 1.141 1.178
3906.920 1.208 1.291 1.289 1.221 1.26 1.305 1.263 1.212 1.302 1.335
3926.213 1.361 1.307 1.299 1.444 1.432 1.381 1.423 1.384 1.306 1.413
3945.506 1.445 1.378 1.475 1.491 1.445 1.502 1.548 1.553 1.557 1.567
3964.800 1.581 1.592 1.567 1.648 1.735 1.725 1.778 1.789 1.734 1.74
3984.093 1.9219 1.9223 1.776 1.796 1.8512 1.8697 1.849 1.8537 1.8784
##END=
