##TITLE=Methamphetamine
##JCAMP-DX=4.24
##DATA TYPE=INFRARED SPECTRUM
##ORIGIN=NIST Mass Spectrometry Data Center
##OWNER=NIST Standard Reference Data Program
Collection (C) 2018 copyright by the U.S. Secretary of Commerce
on behalf of the United States of America. All rights reserved.
##CAS REGISTRY NO=537-46-2
##MOLFORM=C 10 H 15 N
##$NIST SOURCE=MSDC-IR
##SPECTROMETER/DATA SYSTEM=HP-GC/MS/IRD
##STATE=gas
##XUNITS=1/CM
##YUNITS=ABSORBANCE
##XFACTOR=1.0
##YFACTOR=0.000000800
##DELTAX=4.0
##FIRSTX=550.0
##LASTX=3846.0
##FIRSTY=0.000495
##MAXX=3846
##MINX=550
##MAXY=0.008
##MINY=0
##NPOINTS=825
##XYDATA=(X++(Y..Y))
550.0 619 415 292 414 340 337 545 558 594 764
590.0 894 995 1052 970 912 950 848 787 839 907
630.0 1085 1229 1347 1462 1450 1611 1862 1988 2164 2494
670.0 2832 3071 3451 4172 5052 6106 7172 7614 7270 6401
710.0 5366 4586 4171 4115 4345 4774 5204 5253 4888 4208
750.0 3297 2462 1838 1382 1061 873 732 630 565 577
790.0 540 440 405 393 376 354 270 269 348 379
830.0 349 293 301 277 268 237 236 267 221 205
870.0 225 214 192 212 203 219 286 291 315 355
910.0 352 302 260 189 149 148 110 85 72 69
950.0 47 53 46 13 3 20 27 48 80 109
990.0 144 166 192 243 305 339 414 612 912 1165
1030.0 1185 1153 1044 881 861 871 946 1106 1251 1337
1070.0 1466 1548 1542 1496 1451 1429 1427 1477 1616 1762
1110.0 1959 2256 2578 2839 2993 3128 3210 3201 3213 3273
1150.0 3317 3256 3036 2759 2456 2073 1759 1545 1357 1208
1190.0 1105 1069 966 856 837 883 895 829 773 693
1230.0 569 478 415 413 362 314 367 375 389 424
1270.0 453 447 437 467 483 475 465 458 457 513
1310.0 607 683 817 975 1136 1353 1601 1794 1948 1983
1350.0 1873 1727 1642 1643 1744 1916 2049 2021 1830 1567
1390.0 1266 965 773 675 640 673 740 859 1024 1246
1430.0 1558 1992 2505 3018 3476 3777 3868 3743 3505 3275
1470.0 3191 3205 3219 3274 3356 3338 3135 2781 2250 1597
1510.0 1016 695 544 443 397 381 368 401 361 285
1550.0 282 278 306 339 345 385 458 515 635 785
1590.0 924 1085 1208 1252 1142 933 694 488 339 261
1630.0 247 254 243 229 190 169 186 189 162 145
1670.0 150 144 159 163 147 122 118 140 121 93
1710.0 98 110 124 119 122 168 206 199 191 194
1750.0 195 184 188 206 193 210 234 216 233 284
1790.0 342 396 403 361 314 248 196 172 152 128
1830.0 111 113 122 141 147 171 223 253 276 297
1870.0 303 298 295 260 203 183 132 106 94 70
1910.0 107 142 166 210 250 272 301 331 356 361
1950.0 344 310 248 181 109 53 52 58 43 27
1990.0 13 23 26 17 50 69 61 61 41 45
2030.0 38 35 60 40 14 23 42 40 15 17
2070.0 34 25 9 15 19 23 37 38 22 18
2110.0 29 30 13 2 30 57 48 31 36 39
2150.0 48 54 70 53 23 27 39 32 34 47
2190.0 49 69 102 88 57 54 61 95 72 57
2230.0 54 48 53 27 4 23 44 57 67 53
2270.0 30 2 11 32 37 45 51 23 38 70
2310.0 73 86 67 53 74 73 60 75 84 71
2350.0 63 78 108 125 90 70 78 63 44 19
2390.0 13 27 44 53 60 55 42 55 51 39
2430.0 48 48 56 58 68 73 75 86 102 90
2470.0 90 84 63 71 70 58 90 134 116 95
2510.0 105 107 104 107 131 117 130 187 199 197
2550.0 191 195 187 180 195 203 218 225 240 270
2590.0 299 322 328 340 342 361 392 393 393 370
2630.0 358 357 381 421 414 415 369 339 354 361
2670.0 385 363 348 330 314 336 345 370 373 366
2710.0 401 446 470 495 544 581 587 599 632 700
2750.0 799 893 1020 1194 1374 1590 1892 2318 2833 3455
2790.0 4107 4719 5115 5122 4862 4415 3913 3525 3277 3130
2830.0 3093 3188 3379 3646 4008 4406 4726 4923 4983 4941
2870.0 4895 4833 4840 4937 5023 5121 5269 5444 5684 5998
2910.0 6406 6817 7298 7816 8236 8543 8694 8631 8372 8070
2950.0 7917 8051 8428 8997 9600 10000 9969 9243 7932 6255
2990.0 4603 3389 2630 2241 2130 2234 2510 2965 3650 4447
3030.0 4969 5083 4748 4049 3334 2863 2821 3194 3847 4451
3070.0 4713 4579 4119 3531 2995 2635 2288 1926 1590 1291
3110.0 1066 907 774 627 528 436 382 362 348 343
3150.0 320 295 292 310 299 249 233 255 257 205
3190.0 166 182 200 200 182 193 185 147 123 143
3230.0 113 84 124 169 158 126 129 104 88 121
3270.0 144 101 94 116 108 91 87 112 135 110
3310.0 85 73 74 98 84 73 68 90 126 144
3350.0 213 241 239 252 256 243 192 186 157 103
3390.0 92 116 123 95 70 84 151 165 146 145
3430.0 121 102 140 150 127 129 119 79 62 67
3470.0 46 53 93 117 77 77 105 90 104 55
3510.0 0 55 61 67 101 100 119 110 120 143
3550.0 109 122 126 88 90 123 131 92 76 71
3590.0 76 85 60 60 131 127 92 123 124 112
3630.0 83 53 92 101 121 137 93 105 91 51
3670.0 113 136 87 74 88 101 129 136 121 148
3710.0 169 112 69 93 115 152 143 109 106 135
3750.0 149 158 155 115 140 167 144 154 158 166
3790.0 183 178 189 209 240 252 222 168 151 162
3830.0 150 136 119 92 99
##END=
