##TITLE=3-Hydroxy-4-methoxycinnamic acid
##JCAMP-DX=4.24
##DATA TYPE=INFRARED SPECTRUM
##ORIGIN=EPA-IR VAPOR PHASE LIBRARY
##OWNER=SRD/NIST
Collection (C) 2018 copyright by the U.S. Secretary of Commerce
on behalf of the United States of America. All rights reserved.
##CAS REGISTRY NO=537-73-5
##MOLFORM=C 10 H 10 O 4
##$NIST SOURCE=MSDC-IR
##STATE=gas
##XUNITS=1/CM
##YUNITS=ABSORBANCE
##XFACTOR=1.
##YFACTOR=0.001
##DELTAX=1.92898
##FIRSTX=549.8
##LASTX=4000.7
##FIRSTY=6.684
##MAXX=4000.7
##MINX=549.759
##MAXY=0.040884
##MINY=0
##NPOINTS=1790
##XYDATA=(X++(Y..Y))
549.759 6.684 6.964 7.164 6.634 6.184 6.704 6.364 5.494 4.884 4.174
569.049 4.114 4.284 3.884 3.454 3.454 3.344 2.984 3.494 4.044 3.964
588.339 4.144 4.364 4.674 5.014 4.864 4.434 4.054 4.064 4.034 4.024
607.628 4.234 4.144 3.714 3.504 3.334 3.244 3.574 3.674 3.584 3.824
626.918 3.494 3.144 3.264 3.314 3.234 3.144 3.264 3.614 3.634 3.284
646.208 2.914 2.514 2.144 1.544 1.2656 1.0691 1.0094 1.0928 0.9147 0.7816
665.498 1.0701 1.694 1.292 0.9518 1.2604 1.3022 1.2065 1.151 1.0805 1.0121
684.787 0.9888 0.7159 0.7004 0.9821 1.0279 1.047 0.9492 0.6775 0.5879 0.8222
704.077 1.168 0.8954 0.9445 1.4466 1.0725 0.6912 0.826 1.3317 1.464 1.0477
723.367 0.8814 0.8621 0.7837 0.7435 1.0883 1.2779 1.341 1.4244 1.464 1.3422
742.657 1.3711 1.584 1.614 1.994 2.614 3.004 3.204 3.384 3.504 3.344
761.947 3.254 3.164 2.944 2.724 2.404 2.284 2.304 2.474 2.284 1.904
781.236 1.914 2.044 2.114 2.304 2.704 2.844 3.024 3.734 4.054 3.974
800.526 4.414 4.524 4.084 3.694 3.494 2.984 2.374 2.334 2.474 2.324
819.816 1.894 1.684 1.704 1.494 1.222 1.564 1.864 1.684 1.724 1.494
839.106 1.2756 1.484 1.764 1.974 2.144 2.454 2.264 2.534 3.204 3.364
858.395 3.474 3.294 3.214 3.164 2.804 2.474 2.224 1.944 1.844 2.044
877.685 2.004 1.774 1.834 1.874 1.744 1.964 2.084 1.764 1.614 1.554
896.975 1.4479 1.754 1.764 1.3599 1.4534 1.624 1.834 2.004 1.794 1.724
916.265 1.794 1.794 1.694 1.614 1.544 1.624 1.994 1.984 1.934 2.014
935.555 2.074 2.174 2.184 2.374 2.554 2.534 2.584 2.394 2.294 2.454
954.844 2.904 3.084 2.804 3.034 3.524 4.104 4.434 4.924 5.664 6.034
974.134 6.214 6.474 6.934 6.854 5.914 5.464 5.234 4.794 4.244 3.704
993.424 3.494 2.924 2.814 2.954 2.914 2.974 2.884 2.864 2.904 3.144
1012.714 3.504 3.444 3.604 4.194 4.434 4.344 4.514 4.614 4.984 5.704
1032.003 5.534 5.124 4.764 4.284 4.174 3.864 3.474 3.064 2.704 3.034
1051.293 2.614 2.064 2.344 2.644 2.644 2.144 1.794 1.764 1.854 2.104
1070.583 2.464 2.504 2.604 2.644 2.724 3.284 3.644 3.674 3.914 4.154
1089.873 4.614 6.174 7.704 8.424 9.684 12.284 15.184 18.464 23.054 29.154
1109.163 34.714 38.504 40.884 40.694 36.984 32.674 29.304 24.574 19.864 17.244
1128.452 15.194 13.724 12.444 11.304 10.624 10.394 10.594 10.564 11.514 12.804
1147.742 13.794 14.424 14.534 15.564 16.554 16.064 15.624 15.514 14.084 12.404
1167.032 11.114 9.724 8.784 8.054 7.284 6.894 6.504 5.904 5.454 5.574
1186.322 5.814 5.774 5.014 4.514 5.004 5.064 5.484 6.234 6.754 7.464
1205.611 7.634 8.154 8.314 8.334 8.984 9.074 8.514 7.574 7.374 7.664
1224.901 7.874 7.874 8.344 9.284 10.524 11.074 11.584 12.164 12.824 13.874
1244.191 14.814 15.504 16.354 17.304 18.454 19.324 20.204 21.314 22.144 23.764
1263.481 25.034 25.514 25.754 25.304 24.614 23.814 22.744 22.024 21.454 20.774
1282.771 20.064 18.624 17.154 16.034 14.584 12.934 11.864 11.064 10.144 9.414
1302.060 8.964 8.504 8.064 7.624 7.124 6.694 6.294 5.924 5.404 5.104
1321.350 5.144 5.154 5.214 5.344 5.484 5.754 5.954 6.034 6.124 6.194
1340.640 6.204 6.164 6.224 6.404 6.664 6.854 6.974 7.194 7.444 7.574
1359.930 7.594 7.564 7.334 6.924 6.404 5.814 5.214 4.574 4.014 3.554
1379.219 3.124 2.744 2.484 2.294 2.014 1.884 1.784 1.694 1.704 1.824
1398.509 1.774 1.584 1.594 1.724 1.784 1.724 1.734 1.724 1.754 1.834
1417.799 1.884 2.044 2.124 2.154 2.274 2.404 2.624 2.684 2.864 3.234
1437.089 3.614 4.154 4.804 5.394 5.924 6.164 6.224 6.274 6.144 5.884
1456.378 5.784 5.894 5.844 5.754 5.524 5.214 4.954 4.714 4.574 4.414
1475.668 4.324 4.354 4.364 4.514 4.834 5.034 5.314 5.704 6.234 6.934
1494.958 7.884 9.334 11.294 13.744 16.304 18.734 20.704 21.904 22.104 21.004
1514.248 18.924 16.274 13.574 11.184 9.084 7.594 6.504 5.564 4.714 4.164
1533.538 3.914 3.674 3.274 2.854 2.684 2.584 2.484 2.494 2.354 2.174
1552.827 2.164 2.194 2.214 2.264 2.394 2.664 2.864 3.164 3.694 3.934
1572.117 4.164 4.554 5.074 5.684 6.054 6.264 6.394 6.284 6.024 5.674
1591.407 5.164 4.814 4.534 4.194 3.964 3.864 3.824 3.944 4.044 4.344
1610.697 4.594 4.874 5.224 5.224 5.324 5.644 5.814 5.884 6.104 6.524
1629.986 7.254 8.334 9.604 10.784 11.884 12.624 12.694 11.954 10.414 8.614
1649.276 6.704 4.774 3.214 2.454 2.064 1.734 1.734 1.824 1.694 1.554
1668.566 1.494 1.4533 1.564 1.624 1.594 1.574 1.624 1.674 1.534 1.534
1687.856 1.634 1.684 1.894 1.944 1.924 2.084 2.114 2.264 2.504 2.714
1707.146 2.994 3.174 3.234 3.444 3.754 4.004 4.194 4.404 4.714 5.054
1726.435 5.444 5.994 6.714 7.614 8.934 10.634 12.634 15.534 19.094 22.974
1745.725 26.704 29.874 32.304 34.074 34.544 32.904 29.974 26.934 23.914 20.594
1765.015 16.934 13.634 11.224 9.474 8.064 7.344 6.974 6.564 6.294 6.164
1784.305 5.924 5.714 5.534 5.034 4.524 4.154 3.754 3.344 2.984 2.714
1803.594 2.544 2.324 2.124 2.044 1.894 1.694 1.604 1.544 1.494 1.474
1822.884 1.402 1.3563 1.3473 1.2671 1.2886 1.3286 1.2877 1.2675 1.2199 1.1723
1842.174 1.1077 1.0365 0.9706 1.0438 1.0965 0.9205 0.8656 0.9192 0.8928 0.8983
1861.464 0.9613 0.9867 0.8656 0.8232 0.9261 0.9716 0.9466 0.9509 0.9583 0.9018
1880.754 0.9216 0.9921 0.9863 0.9416 0.927 0.9316 0.8906 0.8137 0.8669 0.8966
1900.043 0.8047 0.8167 0.7769 0.7274 0.7227 0.7091 0.6738 0.7035 0.739 0.7513
1919.333 0.7813 0.7313 0.7646 0.7644 0.7236 0.7478 0.7409 0.7445 0.7453 0.8009
1938.623 0.8704 0.7434 0.7136 0.7847 0.6968 0.7179 0.8232 0.776 0.6964 0.6852
1957.913 0.734 0.7231 0.6485 0.7932 0.8484 0.7077 0.6595 0.7411 0.8739 0.8487
1977.202 0.6924 0.7208 0.8108 0.7831 0.7852 0.7873 0.84 0.8174 0.725 0.8083
1996.492 0.8539 0.8216 0.8185 0.835 0.867 0.7998 0.7992 0.7902 0.8785 0.9411
2015.782 0.805 0.8401 0.8496 0.8715 0.9052 0.857 0.8432 0.8744 0.8652 0.9358
2035.072 1.0022 0.9562 1.001 1.0907 1.0116 0.9244 1.0855 1.038 0.9893 1.0404
2054.362 0.9601 0.9232 0.923 0.989 0.9503 0.78 0.6555 0.6646 0.7526 0.7592
2073.651 0.705 0.6902 0.7502 0.6827 0.52222 0.48124 0.53138 0.6057 0.6062 0.6621
2092.941 0.7211 0.7048 0.6632 0.5913 0.5912 0.6497 0.6382 0.638 0.6369 0.52527
2112.231 0.47625 0.5715 0.6254 0.6581 0.6196 0.54743 0.52801 0.53245 0.617 0.6293
2131.521 0.5983 0.6005 0.53786 0.459029 0.52705 0.54323 0.47851 0.51115 0.54722 0.54854
2150.810 0.5721 0.56 0.5494 0.5768 0.6225 0.5773 0.5784 0.662 0.7406 0.7738
2170.100 0.7832 0.8792 0.8433 0.7256 0.6974 0.6402 0.51847 0.52225 0.5902 0.6187
2189.390 0.5784 0.6154 0.6402 0.5901 0.6602 0.6016 0.50389 0.50495 0.5871 0.6596
2208.680 0.6377 0.6563 0.7345 0.7671 0.6939 0.6285 0.6079 0.6774 0.7505 0.6931
2227.970 0.649 0.6615 0.6946 0.6773 0.634 0.6816 0.6942 0.6537 0.5901 0.582
2247.259 0.6985 0.7425 0.704 0.6248 0.6465 0.7098 0.6909 0.721 0.6768 0.7313
2266.549 0.7242 0.6363 0.6781 0.7056 0.6663 0.6094 0.6765 0.6988 0.626 0.6412
2285.839 0.6903 0.6521 0.6389 0.7377 0.6417 0.50506 0.585 0.6939 0.6606 0.657
2305.129 0.7854 0.7627 0.6892 0.6334 0.6876 0.7585 0.7774 0.7737 0.51182 0.4144
2324.418 0.53678 0.5665 0.6142 0.7126 0.6836 0.585 0.5873 0.5871 0.54048 0.52509
2343.708 0.6555 0.6597 0.5787 0.5967 0.5575 0.4866 0.52821 0.6132 0.6744 0.6545
2362.998 0.6848 0.7397 0.6728 0.7435 0.8862 0.7866 0.6826 0.7152 0.7698 0.7266
2382.288 0.6705 0.6486 0.567 0.5887 0.6661 0.5906 0.52268 0.6633 0.6714 0.5734
2401.578 0.54631 0.6137 0.7331 0.6671 0.6664 0.7754 0.7016 0.5633 0.5746 0.54581
2420.867 0.49541 0.5875 0.6875 0.5941 0.49875 0.635 0.7368 0.6593 0.6159 0.6084
2440.157 0.55162 0.6147 0.6499 0.6073 0.613 0.7019 0.8336 0.8371 0.6435 0.6225
2459.447 0.7078 0.7065 0.7302 0.787 0.7427 0.6737 0.6863 0.6377 0.6042 0.49751
2478.737 0.48616 0.6317 0.6385 0.6212 0.6483 0.6005 0.53311 0.48811 0.5987 0.686
2498.026 0.6301 0.6603 0.6504 0.47299 0.594 0.7389 0.6691 0.6829 0.6487 0.6752
2517.316 0.7016 0.7414 0.7815 0.7165 0.6779 0.8161 0.8087 0.6588 0.697 0.7368
2536.606 0.7956 0.8797 0.8084 0.7897 0.8415 0.8187 0.8669 0.851 0.8382 0.8299
2555.896 0.7619 0.8433 0.7731 0.7896 0.8899 0.9236 0.9107 0.8619 0.867 0.767
2575.186 0.8139 0.7496 0.6074 0.6669 0.7104 0.6548 0.6033 0.6759 0.7671 0.758
2594.475 0.7414 0.819 0.8422 0.7087 0.6418 0.7223 0.7686 0.7895 0.8274 0.7256
2613.765 0.6017 0.5893 0.608 0.6255 0.7769 0.8026 0.633 0.49867 0.4308 0.6124
2633.055 0.727 0.736 0.6531 0.5714 0.6602 0.64 0.7036 0.6727 0.6223 0.7239
2652.345 0.6156 0.527 0.6841 0.6354 0.54792 0.6792 0.8091 0.9077 0.8104 0.6671
2671.634 0.53652 0.456694 0.5565 0.5924 0.54209 0.6102 0.6965 0.7605 0.7063 0.719
2690.924 0.7135 0.7176 0.8133 0.7008 0.50732 0.5774 0.6903 0.6525 0.6745 0.49354
2710.214 0.33 0.6371 0.8256 0.6348 0.5136 0.46688 0.51282 0.6234 0.7381 0.6644
2729.504 0.5816 0.5661 0.49237 0.6538 0.827 0.8302 0.7532 0.55022 0.5794 0.7643
2748.794 0.7307 0.724 0.7462 0.5795 0.6052 0.7167 0.7074 0.6401 0.53804 0.54147
2768.083 0.51615 0.5581 0.5861 0.54833 0.6476 0.7407 0.6582 0.6729 0.6581 0.5628
2787.373 0.49156 0.461099 0.6608 0.7876 0.7582 0.6636 0.68 0.7453 0.7587 0.8217
2806.663 0.7366 0.6229 0.6347 0.7662 0.8853 0.8095 0.7923 0.8149 0.7793 0.7281
2825.953 0.8732 0.9426 0.9396 1.0882 1.1725 1.2068 1.4123 1.4469 1.3778 1.794
2845.242 2.124 2.284 2.524 2.544 2.424 2.214 2.054 1.974 1.764 1.554
2864.532 1.435 1.474 1.395 1.2354 1.2261 1.2273 1.1696 1.1531 1.1548 1.0109
2883.822 0.9254 0.9709 1.0053 1.066 1.0947 1.1636 1.2557 1.3707 1.484 1.4067
2903.112 1.2731 1.3197 1.504 1.674 1.704 1.754 1.814 1.904 1.794 1.634
2922.401 1.634 1.724 1.794 1.754 1.864 1.974 1.884 1.924 2.174 2.364
2941.691 2.614 2.994 3.354 3.314 3.264 3.464 3.514 3.584 3.444 3.174
2960.981 2.964 2.704 2.644 2.704 2.644 2.504 2.354 2.194 2.054 2.034
2980.271 2.064 1.974 1.804 1.684 1.724 1.734 1.544 1.634 1.604 1.684
2999.561 1.844 1.764 1.934 2.024 2.424 2.784 2.804 2.864 2.924 2.754
3018.850 2.364 2.234 1.924 1.624 1.534 1.4221 1.4081 1.3888 1.4137 1.504
3038.140 1.554 1.4265 1.3808 1.624 1.704 1.724 1.804 1.694 1.4372 1.474
3057.430 1.504 1.3921 1.584 1.584 1.614 1.554 1.3892 1.3387 1.494 1.644
3076.720 1.564 1.474 1.474 1.4001 1.1771 1.235 1.2873 1.068 0.9357 1.0062
3096.009 1.0096 0.967 0.9668 0.9593 0.8582 0.712 0.8302 0.9293 0.9367 0.9014
3115.299 0.84 0.8207 0.7653 0.51701 0.348 0.49309 0.7225 0.7181 0.5825 0.7026
3134.589 0.7775 0.54783 0.307 0.53254 0.6526 0.49403 0.458194 0.48179 0.5559 0.5939
3153.879 0.6828 0.5954 0.53181 0.50733 0.50633 0.6057 0.6636 0.6791 0.5822 0.5719
3173.169 0.53468 0.4208 0.3883 0.458577 0.50642 0.3848 0.44997 0.4345 0.47601 0.64
3192.458 0.5252 0.47337 0.49421 0.53708 0.52516 0.7148 0.8194 0.6238 0.5564 0.6128
3211.748 0.6091 0.5557 0.5549 0.6149 0.6241 0.5954 0.345 0.18 0.3 0.47825
3231.038 0.7703 0.7136 0.53434 0.578 0.50987 0.50366 0.54397 0.49297 0.5611 0.6198
3250.328 0.51537 0.5068 0.6262 0.6793 0.54906 0.6204 0.6589 0.458737 0.463824 0.463163
3269.617 0.3807 0.4125 0.45662 0.4214 0.456959 0.5416 0.8215 0.8526 0.47766 0.258
3288.907 0.178 0.3875 0.6559 0.5805 0.460005 0.6357 0.6173 0.45986 0.45149 0.309
3308.197 0.367 0.45266 0.59 0.7344 0.4098 0.3953 0.6956 0.6876 0.5209 0.4156
3327.487 0.4397 0.3936 0.328 0.215 0.249 0.3785 0.361 0.339 0.268 0.319
3346.777 0.4315 0.339 0.324 0.35 0.283 0.48505 0.696 0.7645 0.7156 0.53136
3366.066 0.4327 0.53756 0.4133 0.262 0.49949 0.5641 0.46976 0.50152 0.51849 0.285
3385.356 0.121 0.265 0.4119 0.4352 0.3938 0.3806 0.3972 0.54433 0.6729 0.46568
3404.646 0.279 0.214 0.106 0.131 0.325 0.460258 0.3952 0.346 0.4066 0.50946
3423.936 0.5686 0.3907 0.253 0.305 0.3993 0.51343 0.6113 0.7077 0.51065 0.252
3443.225 0.349 0.6347 0.5879 0.455639 0.3663 0.208 0.3625 0.46882 0.3626 0.2
3462.515 0.002 0.138 0.4091 0.334 0.44622 0.5716 0.46766 0.283 0.161 0.341
3481.805 0.49177 0.6585 0.664 0.48032 0.50557 0.5939 0.6859 0.7926 0.8293 0.8538
3501.095 0.7353 0.4156 0.316 0.5726 0.7289 0.5651 0.6854 0.8538 0.7641 0.64
3520.385 0.6818 0.9325 0.6608 0.4207 0.7955 0.9421 0.7914 0.5914 0.6039 0.6525
3539.674 0.6271 0.6005 0.7566 0.9952 0.8236 0.7894 0.9826 1.1906 1.2026 0.9462
3558.964 0.8973 1.2133 1.484 1.874 2.504 3.044 3.864 5.624 8.234 11.574
3578.254 15.694 19.684 22.364 23.974 24.384 22.604 19.324 15.894 12.674 9.804
3597.544 7.164 5.124 3.884 2.904 2.004 1.3164 1.1604 1.1337 0.8302 0.7805
3616.833 0.9926 1.0181 1.0384 0.982 0.8274 0.7333 0.50437 0.6938 0.8799 0.682
3636.123 0.7867 0.7522 0.7067 0.7309 0.7267 0.7561 0.7253 0.7652 0.8166 0.7646
3655.413 0.5755 0.54833 0.53491 0.457571 0.455298 0.5727 0.5745 0.3807 0.3622 0.3605
3674.703 0.227 0.314 0.51318 0.4331 0.293 0.328 0.3984 0.47128 0.6701 0.7437
3693.993 0.5955 0.6402 0.5576 0.44606 0.44454 0.34 0.27 0.224 0.3775 0.5704
3713.282 0.5023 0.4312 0.351 0.204 0.326 0.262 0.11 0.238 0.297 0.148
3732.572 0 0.121 0.303 0.251 0.263 0.3547 0.291 0.246 0.206 0.151
3751.862 0.353 0.246 0.117 0.5086 0.5654 0.312 0.3646 0.4091 0.294 0.103
3771.152 0.104 0.331 0.3868 0.5598 0.6875 0.53522 0.52868 0.45188 0.246 0.4439
3790.441 0.54735 0.274 0.217 0.227 0.068 0.091 0.19 0.282 0.52928 0.6901
3809.731 0.5777 0.4116 0.224 0.201 0.4104 0.32 0.135 0.303 0.309 0.26
3829.021 0.3575 0.3586 0.165 0.021 0.033 0.087 0.3549 0.51207 0.47121 0.46477
3848.311 0.5611 0.5832 0.4117 0.232 0.151 0.336 0.32 0.052 0.144 0.21
3867.601 0.157 0.088 0.278 0.5038 0.49701 0.4309 0.228 0.3583 0.6056 0.5558
3886.890 0.4061 0.297 0.52604 0.6032 0.4804 0.53105 0.4398 0.4438 0.51835 0.456137
3906.180 0.5692 0.44502 0.249 0.51803 0.5723 0.336 0.252 0.313 0.252 0.269
3925.470 0.338 0.382 0.48743 0.255 0.176 0.299 0.223 0.234 0.436 0.321
3944.760 0.129 0.325 0.4209 0.332 0.347 0.455493 0.3695 0.282 0.27 0.305
3964.049 0.197 0.046 0.152 0.172 0.246 0.3661 0.42 0.51894 0.5621 0.53767
3983.339 0.50489 0.5585 0.4187 0.35 0.3575 0.4224 0.6673 0.5818 0.54894 0.5644
##END=
