##TITLE=5-Octyn-3-ol
##JCAMP-DX=4.24
##DATA TYPE=INFRARED SPECTRUM
##ORIGIN=EPA-IR VAPOR PHASE LIBRARY
##OWNER=SRD/NIST
Collection (C) 2018 copyright by the U.S. Secretary of Commerce
on behalf of the United States of America. All rights reserved.
##CAS REGISTRY NO=53723-18-5
##MOLFORM=C 8 H 14 O
##$NIST SOURCE=MSDC-IR
##STATE=gas
##XUNITS=1/CM
##YUNITS=ABSORBANCE
##XFACTOR=1.
##YFACTOR=0.001
##DELTAX=1.92898
##FIRSTX=549.8
##LASTX=4000.7
##FIRSTY=3.7
##MAXX=4000.7
##MINX=549.759
##MAXY=0.05299
##MINY=0
##NPOINTS=1790
##XYDATA=(X++(Y..Y))
549.759 3.7 2.56 3.1 3.73 3.48 2.65 2.3 3.87 4.59 3.97
569.049 3.31 2.95 2.41 2.19 2.1 1.9727 2.24 2.21 1.9563 2.96
588.339 3.11 1.955 1.6708 2.65 2.8 1.9873 2.67 3.41 3.52 3.74
607.628 3.27 3.01 3.6 3.18 3.11 4.07 3.71 2.96 3.3 3.25
626.918 2.49 2.78 3.06 3.17 2.47 1.6024 2.09 3.36 4 3.03
646.208 1.8481 1.8278 2.77 2.65 1.8921 1.5573 1.2813 1.467 1.4076 1.4107
665.498 1.9111 2.36 2.6 2.55 2.58 2.48 2.36 2.76 2.51 2.08
684.787 2.51 2.48 1.826 1.6745 1.5527 1.4887 2.15 2.0142 1.9375 2.74
704.077 2.42 1.9383 2.36 1.952 1.7638 2.87 2.95 2.38 2.17 2.09
723.367 2.25 3.08 2.73 2.58 2.79 1.9508 2.17 2.78 2.98 2.9
742.657 2.97 2.54 2.3 2.73 3 2.95 2.85 3.16 3.13 2.21
761.947 2.64 3.42 3.6 3.53 2.97 2.39 1.9273 2.2 2.83 3.38
781.236 3.26 2.79 2.24 2.45 3.32 2.99 2.15 2.21 2.56 2.64
800.526 3.04 3.14 3.05 2.97 2.93 2.93 2.61 2.2 2.28 3.02
819.816 2.49 0.592 0 1.9947 3.32 3.1 3.29 3.61 3.42 3.04
839.106 3.11 3.35 3.58 3.62 3.51 3.41 3.47 3.46 3.32 3.24
858.395 3.51 3.79 3.61 3.49 3.36 3.75 4.01 3.72 3.95 3.84
877.685 3.67 3.94 4.26 4.28 3.98 3.67 3.66 3.73 3.3 3.26
896.975 3.54 3.68 4.02 4.38 4.78 4.72 4.13 4.14 4.26 4.39
916.265 4.84 4.6 4.29 4.33 4.41 3.97 3.48 3.77 4.31 4.37
935.555 4.31 4.86 5.4 5.4 5.46 5.61 5.6 5.99 6.25 6.7
954.844 7.15 7.1 7.36 7.4 7.99 9.11 10.19 11.68 12.68 13.2
974.134 14.52 15.34 15.11 15.88 16.24 15.68 15.89 15.9 14.77 14.7
993.424 14.28 12.62 12.69 12.89 12.75 13.76 13.15 12.58 12.55 11.43
1012.714 11.7 11.72 11.38 11.73 11.85 12.51 13.27 12.28 10.86 11.25
1032.003 12.97 12.47 10.44 10.41 10.81 11.88 12.17 12.02 12.57 12.45
1051.293 13.01 12.73 13.09 12.99 12.15 12.73 12.96 13.37 13.17 12.53
1070.583 12.38 12.47 12.87 12.66 10.92 9.74 10.43 9.75 9.68 9.97
1089.873 10.05 12.22 13.15 13.55 14.64 14.58 15.63 15.58 13.3 12.52
1109.163 11.2 11.52 12 11.56 11.29 10.27 8.8 7.98 8.23 7.78
1128.452 7.22 7.62 8.59 8.35 7.51 6.32 5.09 4.82 4.57 4.53
1147.742 4.78 4.62 2.95 3.7 5.07 3.61 2.54 2.77 3.31 2.5
1167.032 2.53 2.85 3.03 3.85 4.19 4.35 4.37 4.52 4.54 3.3
1186.322 3.27 5.5 5.24 5.18 6.18 6.02 5.87 6.61 6.06 4.89
1205.611 4.79 4.67 6 5.92 5.02 6.69 7 4.77 4.92 6.33
1224.901 7.28 8.34 9.59 8.53 7.9 7.56 6.67 8.29 9.38 9.24
1244.191 8.99 8.3 8.79 9.08 9.16 9.3 7.81 7.6 8.73 8.29
1263.481 7.9 8.64 9.16 9.33 8.65 8.34 8.79 9.09 8.44 7.87
1282.771 8.16 8.53 9.15 9.08 8.82 9.04 9.14 9.22 9.64 9.7
1302.060 9.79 10.27 10.75 11.61 12.59 13.79 15.08 16.31 17.24 17.74
1321.350 18.02 17.68 17.06 16.39 15.18 13.55 12.1 10.89 9.84 9.1
1340.640 8.8 8.61 8.55 8.51 8.35 8.4 8.67 8.8 8.94 9.25
1359.930 9.52 9.72 9.92 9.96 9.91 10.06 10.15 10.38 10.71 11
1379.219 11.15 11.32 11.36 11.67 11.96 11.69 11.69 11.61 11.17 10.92
1398.509 10.54 10.03 9.73 9.14 8.6 8.3 7.78 7.74 7.91 7.82
1417.799 7.78 7.71 8.16 8.77 9.11 9.32 9.51 9.81 9.97 10.18
1437.089 10.24 10.15 10.12 9.84 9.6 9.82 9.89 9.68 9.53 9.41
1456.378 9.68 9.97 10.01 10 10.02 10.09 9.72 9.21 8.99 8.65
1475.668 8.03 7.3 6.52 5.91 5.52 4.98 4.72 4.57 4.3 4
1494.958 3.84 3.66 3.43 3.44 3.34 3.06 3.04 2.96 2.73 2.72
1514.248 2.76 2.96 2.85 2.56 2.4 2.53 2.6 2.28 2.32 2.31
1533.538 2.29 2.51 2.29 2.09 2.24 2.41 2.23 2.11 2.23 2.36
1552.827 2.37 2.26 2.13 2.0346 2.26 2.3 2.33 1.9976 1.5545 1.9414
1572.117 2.27 2.14 1.9157 1.935 1.7901 1.7799 2.1 2.0421 1.9113 1.9507
1591.407 2.0371 2.41 2.53 1.934 1.7051 2.042 2.07 1.9915 2.19 2.0309
1610.697 1.8671 2.08 1.9477 1.9816 2.0386 1.8408 1.9338 2.0196 2.31 2.51
1629.986 2.15 1.9413 2.14 2.06 1.8286 1.9159 2.2 1.8855 1.6731 2.07
1649.276 2.23 2.17 1.786 1.6841 1.8599 1.9034 1.7544 1.4649 1.6841 1.9449
1668.566 1.5535 1.6103 1.825 1.5501 1.5858 1.672 1.3703 1.3141 1.4276 1.394
1687.856 1.7977 1.8107 1.3589 1.4186 1.614 1.6561 1.387 1.3525 1.3698 1.3805
1707.146 1.5498 1.5442 1.5045 1.3611 1.1624 1.2707 1.2336 1.14194 1.4057 1.3278
1726.435 1.3086 1.4556 1.4162 1.3451 1.3332 1.5199 1.5388 1.4713 1.368 1.3202
1745.725 1.4083 1.4293 1.3906 1.4543 1.5501 1.5517 1.4988 1.3076 1.1715 1.4636
1765.015 1.735 1.4393 1.2137 1.2255 1.5445 1.6803 1.4862 1.3686 1.2769 1.3955
1784.305 1.394 1.246 1.3174 1.5337 1.3392 1.2411 1.386 1.3768 1.3382 1.1821
1803.594 1.08064 1.2143 1.3508 1.2938 1.2118 1.2524 1.2884 1.4101 1.3491 1.09358
1822.884 1.3824 1.5287 1.4908 1.4838 1.3784 1.4272 1.371 1.4811 1.3969 1.3376
1842.174 1.6001 1.6978 1.664 1.545 1.5045 1.4689 1.3666 1.3252 1.2931 1.4052
1861.464 1.6173 1.6046 1.6573 1.6466 1.633 1.5595 1.5888 1.7446 1.6016 1.6224
1880.754 1.5506 1.4758 1.5645 1.5255 1.5499 1.6122 1.5409 1.4757 1.4636 1.4608
1900.043 1.5458 1.7803 1.9042 1.8345 1.43 1.3217 1.6866 1.6151 1.4301 1.3813
1919.333 1.2187 1.10206 1.3581 1.604 1.698 1.587 1.4267 1.5151 1.6355 1.6118
1938.623 1.4307 1.2417 1.2364 1.4645 1.3101 1.13768 1.11259 1.15982 1.5891 1.6766
1957.913 1.5184 1.4352 1.289 1.4516 1.5656 1.4828 1.5812 1.677 1.6597 1.4725
1977.202 1.2818 1.2727 1.3025 1.5721 1.7979 1.7818 1.5487 1.2221 1.2351 1.2762
1996.492 1.3196 1.5228 1.5554 1.409 1.3781 1.3972 1.3677 1.4004 1.5554 1.5183
2015.782 1.3226 1.5866 1.8711 1.7471 1.5599 1.4705 1.5208 1.4718 1.485 1.4535
2035.072 1.6125 1.7422 1.795 1.707 1.5874 1.6692 1.711 1.6964 1.6305 1.8035
2054.362 1.6017 1.5716 1.7383 1.543 1.652 1.7547 1.5857 1.5264 1.4837 1.5291
2073.651 1.735 1.7009 1.5615 1.7528 1.9432 1.8488 1.7809 1.8653 1.9508 1.8498
2092.941 1.6169 1.5946 1.6545 1.4904 1.6482 1.79 1.5421 1.5756 1.6704 1.5592
2112.231 1.723 1.9222 1.6196 1.4527 1.6011 1.5774 1.3954 1.4925 1.4028 1.2756
2131.521 1.3094 1.08896 1.1747 1.4134 1.5887 1.5499 1.412 1.4897 1.6076 1.5918
2150.810 1.324 1.1635 1.4105 1.7012 1.5784 1.677 1.8196 1.809 1.6793 1.4784
2170.100 1.6556 1.768 1.4972 1.3045 1.548 1.5429 1.4696 1.6523 1.716 1.5206
2189.390 1.4922 1.7054 1.7073 1.6793 1.7495 1.7649 1.7374 1.7328 1.7661 1.8522
2208.680 2.004 2.0498 2.0352 1.8262 1.7047 1.6876 1.6717 1.6231 1.4808 1.5779
2227.970 1.7581 1.8827 1.6973 1.4896 1.7465 1.7858 1.5787 1.8016 1.9418 1.8283
2247.259 1.818 1.898 1.7457 1.5456 1.6646 1.9163 1.7169 1.3814 1.2486 1.2745
2266.549 1.4476 1.7921 1.8098 1.6251 1.4228 1.0206 0.977 1.14121 1.3457 1.3453
2285.839 1.3778 1.5181 1.3778 1.4532 1.6008 1.5538 1.5718 1.4424 1.4171 1.662
2305.129 1.5101 1.15453 1.3153 1.4854 1.5166 1.5896 1.6146 1.6931 1.8793 1.8831
2324.418 1.7862 1.7656 1.9252 1.8864 1.9278 1.8524 1.5506 1.5858 1.6183 1.4528
2343.708 1.5175 1.7671 1.7702 1.8277 1.7754 1.6352 1.689 1.605 1.2832 1.4569
2362.998 1.6943 1.7231 1.9549 1.8166 1.6204 1.9069 2.0006 1.845 1.6496 1.5133
2382.288 1.5297 1.6713 1.8835 1.7871 1.902 2.15 2.0083 1.8958 1.8706 1.9629
2401.578 2.0296 1.9182 1.6561 1.4703 1.926 2.12 1.9304 1.9045 1.6539 1.7877
2420.867 1.9996 1.8527 2.0398 1.9623 1.6515 1.6557 1.5639 1.7183 1.9864 1.7977
2440.157 1.883 1.6992 1.6232 2.09 1.8759 1.6598 1.6313 1.6393 1.9199 2.0414
2459.447 2.07 2.12 2.06 1.8301 1.342 1.2615 1.2989 1.4985 1.9565 2.0249
2478.737 1.928 1.6673 1.5961 1.798 1.7102 1.4753 1.443 1.4394 1.6878 1.9061
2498.026 1.9506 1.8182 1.7846 1.9816 1.8241 1.8211 1.7753 1.7244 1.82 1.7972
2517.316 1.7602 1.7071 1.6423 1.5883 1.6255 1.6737 1.7678 1.9445 1.9585 1.7174
2536.606 1.538 1.7573 2.0544 2.1 2.0458 2.12 2.21 1.8877 1.8577 1.9474
2555.896 2.1 2.29 2.31 2.31 1.9189 1.6028 1.9532 2.46 2.57 2.36
2575.186 2.17 2.049 1.6256 1.4226 1.4375 1.7975 1.988 1.9875 2.014 1.8207
2594.475 1.8803 2.15 2.09 2.13 2.32 2.35 2.46 2.44 2.36 2.15
2613.765 2.12 2.15 2.17 2.45 2.37 1.9683 2.35 2.99 2.67 2.26
2633.055 2.3 2.22 2.38 2.46 2.16 2.26 2.33 2.18 2.0477 2.5
2652.345 2.51 2.09 2.0577 2.058 2.19 2.0072 1.8093 2.3 2.7 2.39
2671.634 2.07 2.2 2.45 2.23 2.18 2.37 2.3 2.54 2.82 2.46
2690.924 2.32 2.16 1.9599 2.21 2.4 2.42 2.12 2.0369 2.15 1.8403
2710.214 1.9281 2.39 2.5 2.41 2.34 2.13 2.33 2.33 1.7853 1.7185
2729.504 2.25 2.49 2.38 2.52 2.82 2.77 2.75 2.95 2.94 3.12
2748.794 2.93 2.73 2.94 2.96 3.27 3.6 3.06 3 3.3 2.79
2768.083 2.49 3.13 3.38 3.46 3.83 3.38 2.98 3.3 3.85 3.84
2787.373 3.33 3.35 3.44 3.31 3.39 3.33 3.15 3.23 3.4 3.59
2806.663 3.66 3.77 3.87 3.9 4.18 4.09 4.08 4.57 4.78 4.95
2825.953 5.36 5.57 6.22 6.91 7.21 7.57 7.87 7.97 8.62 9.44
2845.242 9.81 10.23 10.32 10.98 11.85 12.36 13.08 14.08 15.14 16.08
2864.532 17.03 17.51 18.42 19.46 19.93 20.75 21.55 22.75 24.46 25.91
2883.822 26.68 27.22 27.91 28.58 29.05 29.07 29.13 29.29 29.38 29.49
2903.112 30.15 30.86 31.6 32.41 33.55 35.47 36.8 37.73 39.09 41.05
2922.401 42.43 43.5 45.27 46.7 47.75 48.89 50.05 51.4 52.37 52.68
2941.691 52.99 52.29 50.57 49.14 47.94 45.91 43.87 42.23 40.18 38.76
2960.981 38.28 38.81 40 41.69 43.79 45.41 46.87 48.43 49.91 50.24
2980.271 48.58 46.14 43.52 40.95 38.13 34.1 28.94 24.23 21.19 18.9
2999.561 17.23 15.98 14.5 13.46 12.32 11.02 10.22 9.56 9.25 8.93
3018.850 8.45 7.96 7.45 6.99 6.43 5.68 5.24 5.46 5.3 4.74
3038.140 4.66 4.72 4.22 3.98 4.09 3.9 3.71 3.76 3.7 3.04
3057.430 2.59 2.84 3.24 3.22 3.21 3.3 3.13 3.31 2.98 2.93
3076.720 3.17 2.87 2.84 2.34 2.27 2.79 3.07 2.7 2.93 3.4
3096.009 2.71 2.31 2.6 2.8 2.61 2.5 2.43 2.61 2.37 2.0381
3115.299 2.77 2.53 1.7933 2.08 2.19 2.49 2.88 3.05 2.98 2.57
3134.589 2.21 2.61 2.74 2.09 2.33 2.75 2.52 2.29 2.38 2.36
3153.879 2.52 3.02 3.06 2.73 2.71 2.88 2.61 2.3 2.27 2.18
3173.169 2.35 2.44 2.43 2.33 1.5148 1.5347 2.42 2.65 2.34 2.0254
3192.458 1.8272 2.22 1.9168 2.18 2.52 1.4912 1.1681 1.4469 1.9546 2.23
3211.748 2.38 2.38 1.9454 1.9375 2.18 2.0142 1.7555 1.7805 1.8434 1.6333
3231.038 1.7376 1.2587 1.4898 2.3 2.5 1.879 1.2188 1.3346 1.7782 2.25
3250.328 2.3 2.4 2.61 2.85 2.2 2.2 2.6 2.18 1.9056 2.05
3269.617 1.7473 1.6571 2.12 1.8403 1.7608 2.07 1.6129 1.3532 1.5391 1.7322
3288.907 2.0129 1.8753 1.2852 1.2012 1.491 1.7366 1.9923 2.13 2.06 1.6991
3308.197 1.7637 1.56 1.5766 1.6601 1.3415 1.7607 1.9876 1.4716 1.2553 1.5096
3327.487 1.8165 1.674 1.5695 1.9954 2.2 1.8492 1.281 1.8504 2.25 1.5272
3346.777 1.15999 1.2978 1.2527 1.5117 1.9987 2.28 2.29 2.21 1.7884 1.0405
3366.066 1.529 1.627 1.0463 1.1604 2.024 2.33 1.8591 1.65 1.3084 1.3994
3385.356 1.5204 1.7402 1.8965 1.3539 1.3893 1.8803 2.22 2.0573 1.6124 2.44
3404.646 3.11 2.49 2.23 2.26 2.14 2.09 1.7583 1.5342 1.4963 1.4149
3423.936 1.5442 1.10034 1.3978 1.9194 1.753 1.7929 1.3091 0.834 1.5572 1.9754
3443.225 1.3425 1.15193 1.597 1.9897 1.8312 1.6459 1.7804 1.8721 1.6389 1.6499
3462.515 1.744 1.4753 1.3675 1.7013 1.8982 1.7678 1.7522 1.613 1.5091 1.3878
3481.805 1.2169 1.2117 1.7381 2.12 2.14 2.25 2.09 1.6057 1.7152 2.43
3501.095 2.3 2.18 1.9969 1.6589 1.6965 1.934 1.7083 1.7507 2.24 2.0332
3520.385 1.9824 1.8079 1.7644 2.64 2.84 1.9049 1.2383 1.8707 2.59 1.9217
3539.674 1.4306 1.7835 2.32 2.53 2.87 2.62 2.42 2.49 2.1 2.79
3558.964 3.1 2.59 2.94 2.72 2.93 3.35 2.6 2.57 2.9 3.36
3578.254 3.79 3.36 3.39 4.21 4.87 5.19 4.5 4.26 5.06 6.02
3597.544 6.59 7.24 8.28 9.03 9.23 9.82 10.39 9.53 9.11 8.56
3616.833 7.6 7.16 6.5 6 5.02 4.32 4.63 4.6 4.92 5.19
3636.123 4.63 4.12 4.36 4.19 3.84 4.42 4.67 4.51 4.56 4.76
3655.413 4.58 4.8 4.89 4.34 4.37 4.23 3.77 3.67 3.63 3.59
3674.703 3.46 3.14 2.93 2.78 3.06 2.98 2.57 1.9987 1.6271 2.11
3693.993 2.5 2.13 1.6678 1.772 2.09 2.12 1.9769 1.9161 1.5992 1.4637
3713.282 1.3367 1.6236 2.13 2.16 1.863 1.7787 2.35 1.7406 0.913 1.225
3732.572 1.7176 1.62 1.7617 1.8932 0.838 0.85 1.3023 1.5072 1.9773 2.07
3751.862 2.17 2.66 2.86 2.78 2.24 1.5482 1.2618 1.4726 1.7541 1.5664
3771.152 2.31 2.35 1.9554 1.8287 2.0286 2.0241 1.3417 1.6592 1.7821 1.461
3790.441 1.799 1.7907 1.8975 1.9465 2.0245 2.43 1.6798 1.6546 2.18 1.9169
3809.731 1.8848 1.6746 1.11843 1.215 1.9452 2.35 2.43 2.08 1.5396 1.9355
3829.021 1.7185 1.4209 2.16 2.32 2.18 2.09 2.0255 1.8123 1.5561 1.8765
3848.311 1.3919 1.5656 2.35 2.0211 1.866 1.9732 1.9559 1.5219 1.8814 1.9554
3867.601 2.14 2.33 1.788 1.9852 2.26 2.07 1.6016 1.4849 1.8261 1.6187
3886.890 1.5714 2.15 1.8243 1.2811 1.5142 1.9797 2.61 2.96 2.0014 1.0275
3906.180 1.8209 2.27 1.9311 2.22 2.57 2.62 2.08 1.7552 1.9711 2.3
3925.470 2.85 2.59 2.3 2.26 1.7899 1.6422 1.888 1.9917 2.07 1.7082
3944.760 1.7028 2.24 2.37 1.9261 1.4947 1.8406 1.9638 2.07 2.18 1.8352
3964.049 2.0497 1.9935 1.8779 2.24 1.9978 1.6759 1.6785 1.6951 1.4817 1.5074
3983.339 2.23 2.8 2.41 2.14 2.0456 2.44 2.1 1.3647 1.5682 2.21
##END=
