##TITLE=p-Decyloxybenzylidene p-toluidine
##JCAMP-DX=4.24
##DATA TYPE=INFRARED SPECTRUM
##ORIGIN=EPA-IR VAPOR PHASE LIBRARY
##OWNER=SRD/NIST
Collection (C) 2018 copyright by the U.S. Secretary of Commerce
on behalf of the United States of America. All rights reserved.
##CAS REGISTRY NO=53764-62-8
##MOLFORM=C 24 H 33 N O
##$NIST SOURCE=MSDC-IR
##STATE=gas
##XUNITS=1/CM
##YUNITS=ABSORBANCE
##XFACTOR=1.
##YFACTOR=0.001
##DELTAX=1.92898
##FIRSTX=549.8
##LASTX=4000.7
##FIRSTY=1.895
##MAXX=4000.7
##MINX=549.759
##MAXY=0.035305
##MINY=0
##NPOINTS=1790
##XYDATA=(X++(Y..Y))
549.759 1.895 1.645 1.505 1.455 1.1385 0.9879 1.1154 1.0654 0.7664 0.6225
569.049 0.8559 1.0439 0.7729 0.7237 0.8839 1.0972 1.325 1.245 1.0464 0.9157
588.339 1.0255 1.061 1.1612 1.295 1.315 1.465 1.415 1.425 1.645 1.655
607.628 1.605 1.665 1.825 1.855 1.555 1.235 1.0706 0.8197 0.7373 0.7666
626.918 0.7176 0.6257 0.5877 0.7531 0.6412 0.4723 0.577 0.5641 0.4705 0.6001
646.208 0.6307 0.5728 0.5871 0.4509 0.3636 0.476 0.4444 0.3651 0.3675 0.2842
665.498 0.18455 0.22075 0.374 0.4663 0.4232 0.3625 0.3706 0.2794 0.3428 0.3641
684.787 0.22812 0.3194 0.3484 0.4036 0.51 0.47 0.5799 0.72 0.774 0.8143
704.077 0.8189 0.8023 0.8487 0.8699 0.9288 0.9526 0.9381 0.9555 1.0135 1.0365
723.367 1.0978 1.205 1.0184 0.9678 1.0739 1.0688 0.9667 1.0646 1.1154 1.004
742.657 1.0124 0.9802 1.0183 1.0104 0.94 0.9835 0.9886 0.9157 0.9519 0.8931
761.947 0.8278 0.8529 0.8161 0.8751 1.0065 0.9168 0.8807 1.0139 1.0863 1.0233
781.236 1.0133 1.175 1.265 1.255 1.385 1.645 1.805 2.025 2.255 2.525
800.526 2.825 3.135 3.525 3.845 4.015 4.405 4.825 4.965 5.065 5.015
819.816 5.085 5.295 5.525 5.945 6.485 6.925 7.105 7.115 7.055 6.595
839.106 5.855 5.115 4.475 3.845 3.265 2.865 2.615 2.395 2.255 2.215
858.395 2.205 2.335 2.345 2.185 2.045 2.035 2.115 2.235 2.605 3.135
877.685 3.555 4.135 4.855 5.325 5.375 5.125 4.525 3.825 3.155 2.485
896.975 2.215 2.065 1.765 1.655 1.645 1.605 1.605 1.465 1.395 1.355
916.265 1.275 1.285 1.1598 1.165 1.355 1.405 1.325 1.445 1.575 1.625
935.555 1.625 1.555 1.545 1.615 1.735 1.715 1.765 1.805 1.705 1.645
954.844 1.595 1.635 1.725 1.765 1.885 1.915 1.985 2.165 2.155 2.175
974.134 2.325 2.225 2.165 2.075 2.105 2.405 2.505 2.595 2.835 2.925
993.424 3.085 3.365 3.525 3.665 3.785 3.875 4.305 4.785 5.075 5.205
1012.714 5.575 6.135 6.095 5.675 5.215 5.145 5.215 5.055 5.105 5.255
1032.003 5.225 5.225 5.195 4.975 4.775 4.595 4.345 4.215 4.185 4.225
1051.293 4.295 4.145 3.885 3.595 3.415 3.335 3.375 3.255 2.895 2.685
1070.583 2.485 2.295 2.185 2.165 2.205 2.105 1.835 1.665 1.695 1.755
1089.873 2.095 2.185 1.855 1.945 2.115 2.505 2.685 2.805 3.125 3.165
1109.163 2.945 2.455 2.285 2.495 2.465 2.215 2.185 2.235 1.835 1.605
1128.452 1.865 1.875 1.865 2.015 2.265 2.465 2.355 2.415 2.615 2.825
1147.742 3.385 4.055 4.995 6.965 9.995 14.335 21.085 28.845 33.835 33.125
1167.032 27.135 19.415 13.005 8.925 6.675 5.205 4.475 4.605 5.005 5.835
1186.322 7.245 8.465 9.075 8.745 7.505 6.165 5.505 5.575 6.035 6.695
1205.611 7.365 8.055 9.015 9.735 10.305 11.085 11.785 12.645 13.785 14.975
1224.901 16.015 17.315 18.725 20.245 21.795 23.115 24.555 26.175 27.665 28.755
1244.191 29.355 29.305 28.535 27.085 24.835 22.085 19.265 16.485 14.055 12.235
1263.481 10.645 9.385 8.405 7.685 7.315 7.035 6.805 6.545 6.425 6.565
1282.771 6.715 6.875 7.215 7.575 7.865 8.235 8.575 9.035 9.625 10.145
1302.060 10.375 10.035 9.265 8.355 7.455 6.545 5.765 5.135 4.545 4.125
1321.350 3.815 3.475 3.245 3.145 3.045 2.905 2.795 2.765 2.735 2.735
1340.640 2.715 2.695 2.715 2.705 2.705 2.645 2.615 2.645 2.635 2.615
1359.930 2.605 2.645 2.665 2.655 2.685 2.735 2.745 2.735 2.795 2.945
1379.219 3.115 3.305 3.475 3.595 3.615 3.475 3.285 3.055 2.775 2.545
1398.509 2.405 2.265 2.195 2.185 2.195 2.335 2.605 2.925 3.335 3.935
1417.799 4.475 4.675 4.445 3.855 3.225 2.765 2.485 2.375 2.355 2.375
1437.089 2.475 2.565 2.675 2.795 2.925 3.115 3.315 3.555 3.865 4.095
1456.378 4.305 4.615 4.835 5.025 5.275 5.565 6.035 6.605 7.025 7.145
1475.668 6.835 6.245 5.505 4.785 4.365 4.185 4.225 4.445 4.935 5.735
1494.958 6.865 8.485 10.715 13.775 17.965 23.065 28.835 33.475 34.695 31.775
1514.248 25.965 19.645 14.465 10.975 8.575 6.915 5.635 4.745 4.075 3.585
1533.538 3.195 2.925 2.775 2.605 2.465 2.395 2.375 2.375 2.335 2.385
1552.827 2.495 2.575 2.745 2.985 3.355 3.855 4.445 5.255 6.365 7.685
1572.117 9.055 10.075 10.395 9.905 8.955 8.185 7.995 8.485 9.735 11.595
1591.407 13.985 17.015 20.515 23.985 26.715 27.955 27.235 24.695 21.145 17.395
1610.697 14.135 11.625 9.805 8.635 8.075 8.045 8.565 9.685 11.325 13.475
1629.986 15.455 16.425 15.895 13.845 11.305 9.105 7.355 6.075 5.115 4.425
1649.276 3.945 3.635 3.275 2.995 2.755 2.515 2.385 2.255 2.095 1.935
1668.566 1.805 1.725 1.625 1.505 1.445 1.355 1.285 1.255 1.175 1.154
1687.856 1.1597 1.113 1.0481 0.9743 0.9176 0.8367 0.7821 0.7948 0.8056 0.8436
1707.146 0.8384 0.7581 0.7671 0.7706 0.7109 0.6615 0.6511 0.6696 0.6747 0.6781
1726.435 0.7271 0.7096 0.6698 0.6794 0.6401 0.6679 0.689 0.7152 0.7705 0.7878
1745.725 0.7582 0.7348 0.8109 0.8616 0.868 0.8623 0.8562 0.908 0.9851 0.9921
1765.015 0.9636 0.9326 0.9275 0.9155 0.8779 0.8245 0.7874 0.7484 0.6446 0.62
1784.305 0.655 0.6348 0.5913 0.6185 0.6011 0.5581 0.5637 0.5198 0.5197 0.5508
1803.594 0.5601 0.544 0.5132 0.4934 0.46 0.451 0.4477 0.4619 0.4872 0.5082
1822.884 0.4992 0.4515 0.4021 0.3727 0.4078 0.4413 0.4556 0.5015 0.5565 0.5271
1842.174 0.4921 0.4987 0.4924 0.5123 0.547 0.5708 0.5989 0.5912 0.554 0.5723
1861.464 0.6236 0.6345 0.6248 0.6519 0.6965 0.729 0.7308 0.7283 0.7842 0.8411
1880.754 0.8663 0.8688 0.8568 0.834 0.8246 0.8111 0.7988 0.8042 0.7754 0.7711
1900.043 0.7191 0.6683 0.7005 0.6699 0.6338 0.6565 0.6345 0.6068 0.6438 0.6227
1919.333 0.5909 0.5972 0.6272 0.7217 0.68 0.6082 0.6519 0.6865 0.7057 0.699
1938.623 0.6642 0.6724 0.691 0.6446 0.6301 0.6127 0.6061 0.6147 0.597 0.5699
1957.913 0.5576 0.5498 0.5023 0.5372 0.5315 0.5302 0.5909 0.5981 0.6198 0.6086
1977.202 0.5416 0.5306 0.5534 0.6024 0.5985 0.5562 0.5644 0.5682 0.5607 0.5508
1996.492 0.5967 0.5977 0.5979 0.6112 0.5949 0.6107 0.633 0.6626 0.6871 0.6914
2015.782 0.6919 0.722 0.7637 0.718 0.6813 0.6918 0.665 0.6487 0.6517 0.677
2035.072 0.7088 0.7202 0.6999 0.7086 0.7039 0.6792 0.7056 0.7209 0.7303 0.7106
2054.362 0.6646 0.6754 0.6671 0.6396 0.6494 0.6567 0.6163 0.5807 0.5536 0.5378
2073.651 0.5877 0.6326 0.5759 0.5724 0.5925 0.5564 0.5592 0.5623 0.5789 0.5667
2092.941 0.5296 0.5405 0.5504 0.4911 0.5087 0.529 0.4864 0.4542 0.4763 0.4887
2112.231 0.4445 0.4222 0.3979 0.4275 0.4563 0.4444 0.4396 0.4248 0.3994 0.376
2131.521 0.3807 0.4186 0.4296 0.4224 0.3982 0.359 0.3761 0.3669 0.3518 0.3571
2150.810 0.3289 0.3282 0.3521 0.3488 0.3572 0.4275 0.405 0.3358 0.3387 0.3209
2170.100 0.3189 0.3272 0.2789 0.22636 0.2511 0.2804 0.2651 0.2661 0.2919 0.3177
2189.390 0.3127 0.3204 0.3395 0.3156 0.2849 0.2831 0.3001 0.3192 0.3163 0.2779
2208.680 0.2825 0.2988 0.3077 0.3476 0.3207 0.2708 0.3115 0.319 0.3164 0.359
2227.970 0.3844 0.3897 0.325 0.3215 0.3329 0.3167 0.3381 0.3811 0.3996 0.3628
2247.259 0.3287 0.3252 0.3624 0.3512 0.3148 0.3416 0.3702 0.3372 0.3481 0.3787
2266.549 0.3595 0.3235 0.3593 0.4054 0.3785 0.3479 0.3244 0.3135 0.327 0.3447
2285.839 0.3405 0.3646 0.3848 0.3744 0.3688 0.3846 0.3702 0.341 0.3432 0.3888
2305.129 0.4232 0.4529 0.4636 0.4301 0.4157 0.4201 0.4231 0.4252 0.4525 0.5032
2324.418 0.5213 0.4458 0.396 0.441 0.48 0.457 0.4256 0.4459 0.4906 0.4689
2343.708 0.4035 0.3588 0.3999 0.4435 0.4087 0.3884 0.4077 0.4414 0.4052 0.4016
2362.998 0.4583 0.4212 0.4424 0.4394 0.3969 0.3927 0.3849 0.447 0.4888 0.4961
2382.288 0.475 0.4808 0.483 0.4344 0.4391 0.4483 0.5216 0.5715 0.4946 0.4607
2401.578 0.4729 0.4896 0.4803 0.4801 0.5031 0.489 0.4581 0.4784 0.4723 0.4953
2420.867 0.5345 0.5064 0.4992 0.48 0.4309 0.4236 0.4803 0.5056 0.527 0.5188
2440.157 0.4718 0.5264 0.5377 0.5291 0.5827 0.5356 0.5338 0.584 0.5461 0.6033
2459.447 0.6227 0.5798 0.6233 0.613 0.6189 0.6395 0.6048 0.6136 0.6336 0.6204
2478.737 0.6891 0.7073 0.6227 0.5887 0.6182 0.6315 0.6114 0.6233 0.6346 0.6362
2498.026 0.6431 0.6426 0.6288 0.6126 0.604 0.6277 0.6049 0.5969 0.6554 0.7036
2517.316 0.7413 0.7439 0.6786 0.6964 0.7658 0.7236 0.7018 0.6966 0.6874 0.7661
2536.606 0.8198 0.8236 0.7991 0.7391 0.7383 0.7492 0.7158 0.7066 0.7115 0.7034
2555.896 0.7016 0.6877 0.6999 0.7295 0.7344 0.7175 0.6932 0.7372 0.7332 0.7038
2575.186 0.7004 0.684 0.6675 0.6558 0.73 0.7206 0.6124 0.5535 0.5648 0.62
2594.475 0.6387 0.5848 0.6093 0.6233 0.5702 0.6048 0.6243 0.5917 0.5663 0.5559
2613.765 0.5733 0.5493 0.4991 0.522 0.5655 0.5436 0.4858 0.5166 0.5279 0.5678
2633.055 0.6288 0.6301 0.5765 0.5641 0.6086 0.5642 0.5057 0.543 0.5606 0.5592
2652.345 0.6029 0.5531 0.5837 0.6145 0.6014 0.575 0.5562 0.6441 0.6508 0.6118
2671.634 0.6778 0.6993 0.6546 0.6283 0.6295 0.6316 0.6908 0.7449 0.7628 0.7827
2690.924 0.7626 0.7523 0.753 0.6921 0.6574 0.7318 0.7113 0.6617 0.69 0.687
2710.214 0.6825 0.6714 0.6907 0.7417 0.741 0.7844 0.8422 0.8269 0.8108 0.7916
2729.504 0.8418 0.9467 0.9641 0.9776 0.9971 0.9993 1.0039 1.0226 1.1291 1.175
2748.794 1.1542 1.0944 0.9968 0.979 1.0062 1.0268 1.0287 1.0254 1.0421 1.0616
2768.083 1.0143 0.9862 0.9955 1.0107 1.0914 1.1309 1.0905 1.0944 1.1099 1.165
2787.373 1.205 1.185 1.225 1.255 1.255 1.225 1.265 1.345 1.415 1.465
2806.663 1.485 1.545 1.615 1.705 1.815 1.865 1.935 2.035 2.155 2.335
2825.953 2.425 2.565 2.695 2.845 3.145 3.435 3.675 3.945 4.355 4.875
2845.242 5.575 6.285 7.125 8.145 9.275 10.585 11.885 13.105 14.095 14.845
2864.532 15.215 15.145 14.925 14.655 14.265 13.845 13.495 13.215 12.875 12.475
2883.822 12.005 11.465 10.975 10.535 10.315 10.295 10.255 10.315 10.485 10.895
2903.112 11.435 12.095 13.005 13.915 14.925 16.125 17.425 18.925 20.585 22.475
2922.401 24.655 27.045 29.575 31.975 33.815 34.955 35.305 34.675 33.255 31.365
2941.691 29.295 27.195 25.165 23.255 21.415 19.735 18.315 17.135 16.245 15.595
2960.981 15.115 14.815 14.535 14.135 13.505 12.625 11.605 10.425 9.305 8.295
2980.271 7.395 6.715 6.195 5.775 5.315 5.015 4.925 4.835 4.645 4.485
2999.561 4.425 4.305 4.205 4.145 4.025 3.955 3.935 3.895 3.965 4.145
3018.850 4.345 4.775 5.405 6.055 6.595 6.845 6.715 6.255 5.725 5.145
3038.140 4.595 4.205 3.855 3.515 3.275 3.105 3.015 3.045 3.055 3.015
3057.430 2.945 2.855 2.875 2.895 2.875 3.055 3.205 3.275 3.315 3.355
3076.720 3.355 3.105 2.855 2.715 2.575 2.455 2.365 2.225 2.125 2.065
3096.009 1.905 1.855 1.795 1.615 1.555 1.495 1.395 1.315 1.265 1.245
3115.299 1.235 1.0949 1.058 1.0267 0.9672 0.9365 0.8513 0.7438 0.7018 0.7363
3134.589 0.6332 0.5659 0.6211 0.6077 0.5991 0.5783 0.5165 0.513 0.4534 0.4603
3153.879 0.4886 0.5236 0.6614 0.5634 0.4491 0.4484 0.4885 0.5968 0.5487 0.5221
3173.169 0.5364 0.5015 0.4417 0.4937 0.5363 0.4926 0.5283 0.4643 0.4397 0.4662
3192.458 0.3809 0.3644 0.4204 0.4873 0.4033 0.4001 0.4619 0.4446 0.5979 0.6225
3211.748 0.5089 0.5379 0.5435 0.4187 0.3661 0.3712 0.3554 0.341 0.3652 0.4804
3231.038 0.4693 0.4165 0.4725 0.5111 0.4872 0.4335 0.4992 0.5604 0.5358 0.5103
3250.328 0.4209 0.4217 0.4559 0.4226 0.4281 0.4138 0.4373 0.4544 0.472 0.4033
3269.617 0.3308 0.2903 0.24305 0.2665 0.3188 0.39 0.3634 0.2985 0.285 0.3191
3288.907 0.3832 0.2801 0.1513 0.24115 0.307 0.2925 0.3195 0.2825 0.2994 0.22677
3308.197 0.18199 0.174487 0.0882 0.164686 0.20177 0.25312 0.2996 0.2849 0.269 0.24283
3327.487 0.26444 0.2894 0.2845 0.3558 0.4125 0.4215 0.3163 0.21117 0.2733 0.3324
3346.777 0.23132 0.1522 0.20285 0.19172 0.23142 0.2828 0.2302 0.22551 0.22634 0.19266
3366.066 0.20083 0.2733 0.2848 0.2442 0.2782 0.2699 0.2654 0.21417 0.1429 0.22048
3385.356 0.2804 0.3307 0.3722 0.3842 0.4139 0.4047 0.3394 0.3049 0.26083 0.17504
3404.646 0.2931 0.3672 0.291 0.25203 0.2157 0.25421 0.22836 0.1098 0.1395 0.21435
3423.936 0.24744 0.25331 0.164294 0.1075 0.1333 0.0988 0.1448 0.20847 0.25643 0.2742
3443.225 0.18629 0.16746 0.22805 0.20948 0.170803 0.15715 0.1213 0.18526 0.18235 0.16083
3462.515 0.17754 0.1323 0.15594 0.1017 0.0697 0.1428 0.173673 0.1782 0.20847 0.26286
3481.805 0.26167 0.20645 0.24294 0.2928 0.22072 0.119 0.1415 0.20058 0.20198 0.22466
3501.095 0.1197 0.0975 0.1147 0.19742 0.3127 0.3102 0.3228 0.3127 0.22081 0.1235
3520.385 0.1516 0.1428 0.15967 0.1796 0.174411 0.21374 0.2131 0.1505 0.164555 0.23147
3539.674 0.16397 0.2217 0.26329 0.2058 0.22212 0.18168 0.19537 0.20537 0.172582 0.19247
3558.964 0.1465 0.1243 0.054 0.053 0.18502 0.3613 0.3555 0.24189 0.3117 0.246
3578.254 0.19507 0.1788 0.19772 0.2755 0.2179 0.2542 0.2807 0.2965 0.25478 0.20832
3597.544 0.20077 0.17532 0.22058 0.172459 0.1469 0.201 0.20289 0.15 0.1182 0.024
3616.833 0 0.22199 0.4173 0.3734 0.3331 0.2922 0.20476 0.23803 0.266 0.22786
3636.123 0.23775 0.3238 0.4242 0.3348 0.2765 0.3293 0.306 0.3018 0.25973 0.2686
3655.413 0.3414 0.2708 0.18054 0.22198 0.15716 0.0657 0.16248 0.18774 0.22917 0.2076
3674.703 0.18198 0.29 0.2828 0.3662 0.3526 0.2751 0.22617 0.24535 0.3782 0.2837
3693.993 0.21693 0.24472 0.21126 0.23544 0.25902 0.2698 0.2536 0.22214 0.22827 0.16375
3713.282 0.17861 0.281 0.3186 0.284 0.3064 0.4327 0.4848 0.4066 0.2821 0.15942
3732.572 0.1455 0.24007 0.25056 0.1276 0.1533 0.3666 0.3885 0.26449 0.25957 0.3194
3751.862 0.3325 0.2794 0.24462 0.3132 0.3406 0.3669 0.3682 0.3405 0.316 0.2989
3771.152 0.24176 0.2672 0.3298 0.24141 0.2826 0.26018 0.2134 0.19473 0.21214 0.2817
3790.441 0.22536 0.2206 0.3043 0.3222 0.2838 0.2779 0.3598 0.3281 0.172506 0.19601
3809.731 0.25043 0.2038 0.25168 0.3808 0.3743 0.26146 0.3005 0.3061 0.2448 0.22124
3829.021 0.22639 0.2654 0.21404 0.171845 0.167456 0.21019 0.2719 0.3253 0.26082 0.18256
3848.311 0.25872 0.3114 0.2657 0.1209 0.0973 0.3169 0.3496 0.24841 0.2695 0.3196
3867.601 0.3226 0.21911 0.19968 0.3174 0.3513 0.3546 0.3593 0.2673 0.174848 0.2828
3886.890 0.3984 0.2833 0.21951 0.2838 0.3024 0.2782 0.2775 0.22501 0.22831 0.19675
3906.180 0.20992 0.2928 0.21632 0.3087 0.4016 0.3812 0.5131 0.4775 0.323 0.3624
3925.470 0.22489 0.18732 0.3497 0.3552 0.3457 0.25421 0.1784 0.19926 0.3198 0.3134
3944.760 0.23701 0.2888 0.36 0.4109 0.3567 0.3426 0.2866 0.22574 0.26487 0.2651
3964.049 0.18294 0.17664 0.19225 0.1249 0.167935 0.2083 0.26013 0.3032 0.3601 0.3981
3983.339 0.3004 0.3095 0.4237 0.4387 0.3822 0.4069 0.487 0.4062 0.2779 0.3017
##END=
