##TITLE=4-Hydroxypiperidine
##JCAMP-DX=4.24
##DATA TYPE=INFRARED SPECTRUM
##ORIGIN=EPA-IR VAPOR PHASE LIBRARY
##OWNER=SRD/NIST
Collection (C) 2018 copyright by the U.S. Secretary of Commerce
on behalf of the United States of America. All rights reserved.
##CAS REGISTRY NO=5382-16-1
##MOLFORM=C 5 H 11 N O
##$NIST SOURCE=MSDC-IR
##STATE=gas
##XUNITS=1/CM
##YUNITS=ABSORBANCE
##XFACTOR=1.
##YFACTOR=0.001
##DELTAX=3.85796
##FIRSTX=501.5
##LASTX=4000.7
##FIRSTY=2.66
##MAXX=4000.7
##MINX=501.534
##MAXY=0.03057
##MINY=0.0001223
##NPOINTS=908
##XYDATA=(X++(Y..Y))
501.534 2.66 2.5 2.1 1.98 1.82 1.54 1.38 1.29 1.24 1.34
540.114 1.63 2.04 2.53 2.99 3.44 3.87 4.3 4.47 4.01 3.58
578.693 3.25 2.64 2.06 1.63 1.35 1.11 0.9543 0.9266 0.9217 0.9503
617.273 0.9447 0.9675 1.03 1.1 1.17 1.25 1.43 1.62 1.75 1.85
655.852 1.99 2.1 2.12 2.1 2.08 2.06 2.04 2.09 2.21 2.33
694.432 2.54 2.89 3.24 3.68 4.21 4.81 5.5 6.28 7.09 7.89
733.011 8.58 9.05 9.37 9.43 9.2 8.7 7.77 6.54 5.37 4.38
771.591 3.55 2.87 2.34 2.03 1.92 1.88 1.89 1.94 1.98 2.02
810.170 1.98 1.89 1.83 1.67 1.49 1.33 1.13 0.9888 0.9533 0.916
848.750 0.9356 0.9935 1.04 1.11 1.17 1.2 1.16 1.17 1.18 1.19
887.330 1.19 1.19 1.21 1.23 1.2 1.13 1.08 1.07 1.05 1.04
925.909 1.09 1.23 1.43 1.68 1.97 2.29 2.72 3.17 3.43 3.65
964.489 3.98 4.26 4.54 4.9 5.21 5.39 5.43 5.47 5.31 4.89
1003.068 4.58 4.39 4.09 3.88 3.93 4.19 4.56 5.02 5.64 6.14
1041.648 6.54 7.09 7.72 8.42 9.19 9.96 10.62 11.04 11.11 10.84
1080.227 10.17 9.12 7.91 6.75 5.77 5.17 4.83 4.65 4.7 4.85
1118.807 4.98 5.19 5.38 5.49 5.59 5.6 5.57 5.56 5.4 5.08
1157.387 4.8 4.55 4.25 3.94 3.64 3.49 3.47 3.36 3.29 3.31
1195.966 3.3 3.3 3.34 3.37 3.46 3.55 3.68 3.93 4.09 4.09
1234.546 4.08 4.07 4 3.91 3.81 3.66 3.49 3.39 3.31 3.21
1273.125 3.07 2.93 2.86 2.8 2.77 2.83 3.01 3.31 3.7 4.17
1311.705 4.56 4.61 4.57 4.79 4.84 4.59 4.32 4.2 4.24 4.39
1350.284 4.62 4.9 5.17 5.34 5.41 5.23 4.89 4.51 4.11 3.71
1388.864 3.33 3 2.7 2.46 2.32 2.3 2.37 2.52 2.77 3.04
1427.443 3.29 3.49 3.72 4.06 4.14 4.07 4.08 3.87 3.46 3.12
1466.023 2.78 2.46 2.11 1.73 1.43 1.17 0.9505 0.7902 0.65 0.5392
1504.603 0.4926 0.4526 0.4133 0.4015 0.4014 0.3904 0.3542 0.3358 0.3532 0.3583
1543.182 0.3399 0.3157 0.3192 0.3259 0.3431 0.3521 0.3141 0.2857 0.2866 0.2954
1581.762 0.2941 0.2847 0.287 0.289 0.2882 0.2852 0.297 0.3218 0.3247 0.3199
1620.341 0.3166 0.3133 0.2956 0.27 0.2535 0.2508 0.25 0.2339 0.2194 0.2042
1658.921 0.1969 0.2097 0.2159 0.2174 0.2016 0.1826 0.201 0.2026 0.1919 0.1895
1697.500 0.191 0.2163 0.2141 0.1955 0.1907 0.1794 0.1694 0.1615 0.161 0.1763
1736.080 0.1616 0.149 0.1536 0.1537 0.1459 0.1385 0.1413 0.1418 0.1414 0.1426
1774.659 0.1323 0.1223 0.1322 0.1423 0.159 0.1769 0.1773 0.1765 0.1908 0.1969
1813.239 0.1961 0.1963 0.1892 0.1896 0.195 0.191 0.2024 0.2108 0.2065 0.2104
1851.819 0.2129 0.1998 0.1992 0.2147 0.2114 0.2024 0.2158 0.2325 0.226 0.2324
1890.398 0.2154 0.2046 0.2288 0.2355 0.229 0.2124 0.2112 0.2187 0.2223 0.2256
1928.978 0.2097 0.1978 0.1961 0.1908 0.2113 0.2201 0.2214 0.2236 0.2027 0.1951
1967.557 0.2042 0.2035 0.1988 0.2043 0.2143 0.228 0.2255 0.2184 0.2198 0.207
2006.137 0.2071 0.2176 0.208 0.1968 0.1955 0.2131 0.226 0.2257 0.2274 0.2311
2044.716 0.2391 0.2294 0.2227 0.2422 0.2407 0.2282 0.2228 0.2236 0.2224 0.2099
2083.296 0.2017 0.1914 0.1812 0.182 0.1812 0.1844 0.2059 0.2101 0.2027 0.2108
2121.875 0.2165 0.2193 0.2165 0.2141 0.2156 0.2084 0.2132 0.2204 0.2136 0.2186
2160.455 0.2235 0.2203 0.218 0.2079 0.2102 0.2211 0.2394 0.2516 0.2491 0.2512
2199.035 0.257 0.2671 0.2697 0.2576 0.2458 0.2529 0.2585 0.2512 0.2432 0.246
2237.614 0.2413 0.2284 0.2321 0.2395 0.2474 0.2435 0.2383 0.2424 0.2405 0.2399
2276.194 0.2365 0.2218 0.2154 0.2313 0.2435 0.2357 0.2243 0.2141 0.211 0.2179
2314.773 0.2105 0.2149 0.2247 0.223 0.2359 0.2391 0.2439 0.2538 0.2439 0.233
2353.353 0.2251 0.2345 0.2458 0.244 0.2371 0.2322 0.2357 0.2277 0.2188 0.2169
2391.932 0.2337 0.2412 0.2396 0.2529 0.2588 0.2621 0.2669 0.2628 0.2724 0.2705
2430.512 0.2583 0.2844 0.3004 0.2875 0.2793 0.279 0.2926 0.289 0.2864 0.2969
2469.092 0.2992 0.2946 0.285 0.2547 0.2257 0.2512 0.2734 0.2729 0.2647 0.261
2507.671 0.2623 0.252 0.2548 0.2701 0.2777 0.269 0.278 0.2848 0.2768 0.2983
2546.251 0.3129 0.3134 0.3301 0.3486 0.3704 0.4021 0.4237 0.4305 0.4212 0.4405
2584.830 0.4816 0.4955 0.5252 0.5679 0.6163 0.6629 0.6895 0.7404 0.7955 0.8497
2623.410 0.9193 0.9366 0.9425 0.9276 0.9248 0.977 0.9759 0.964 0.9612 1.01
2661.989 1.08 1.12 1.17 1.24 1.3 1.32 1.36 1.43 1.49 1.54
2700.569 1.6 1.69 1.82 1.98 2.2 2.45 2.71 2.99 3.32 3.61
2739.148 3.54 3.32 3.2 3.11 3.05 3.01 3.05 3.17 3.35 3.66
2777.728 4.1 4.59 5.11 5.68 6.3 6.93 7.54 8.32 9.36 9.7
2816.308 9.09 8.67 8.59 8.49 8.28 8.1 8.02 8.09 8.32 8.62
2854.887 8.92 9.2 9.5 9.69 9.62 9.44 9.25 9.08 9.07 9.17
2893.467 9.36 9.88 10.8 12.01 13.5 15.32 17.39 19.49 21.76 24.24
2932.046 26.32 28 29.46 30.31 30.57 29.23 25.99 22.75 19.81 16.25
2970.626 12.29 8.62 5.72 3.68 2.37 1.59 1.12 0.8606 0.7265 0.6299
3009.205 0.5798 0.5429 0.4729 0.4434 0.4332 0.4255 0.4024 0.3624 0.3554 0.3508
3047.785 0.3471 0.3392 0.3144 0.323 0.3328 0.3083 0.2889 0.2685 0.2739 0.3161
3086.364 0.3419 0.3322 0.3076 0.271 0.2375 0.2074 0.234 0.2748 0.2674 0.2779
3124.944 0.2676 0.2401 0.2514 0.2895 0.3025 0.2796 0.2602 0.2726 0.2876 0.2712
3163.524 0.278 0.3186 0.2879 0.2543 0.283 0.2789 0.2475 0.2179 0.2165 0.2172
3202.103 0.2248 0.2188 0.2229 0.2528 0.2749 0.2574 0.2182 0.2157 0.2205 0.2354
3240.683 0.2311 0.2302 0.2356 0.1931 0.1952 0.2159 0.2292 0.2493 0.2103 0.1798
3279.262 0.2197 0.2419 0.2349 0.2183 0.1746 0.1885 0.2371 0.2601 0.2715 0.2606
3317.842 0.2589 0.271 0.2698 0.2951 0.3006 0.2963 0.2995 0.2991 0.3308 0.3208
3356.421 0.2663 0.2344 0.2147 0.2182 0.2409 0.2277 0.2348 0.266 0.265 0.2642
3395.001 0.2908 0.3287 0.3435 0.3142 0.2716 0.2579 0.2531 0.3009 0.3577 0.3425
3433.580 0.3299 0.326 0.34 0.3852 0.4061 0.382 0.3222 0.284 0.2894 0.2956
3472.160 0.3293 0.3562 0.3209 0.3165 0.3025 0.2618 0.2853 0.3069 0.2901 0.3248
3510.740 0.3472 0.3311 0.3592 0.3811 0.3271 0.316 0.3537 0.3491 0.3554 0.3673
3549.319 0.3565 0.3317 0.3244 0.327 0.3271 0.307 0.2567 0.2456 0.2877 0.3177
3587.899 0.3217 0.3098 0.3452 0.3691 0.378 0.4155 0.4711 0.5256 0.6121 0.7777
3626.478 1.03 1.34 1.75 2.17 2.41 2.52 2.62 2.67 2.47 2.18
3665.058 1.82 1.42 1.06 0.8098 0.6464 0.5045 0.4605 0.3913 0.3503 0.3471
3703.637 0.2786 0.2496 0.3077 0.3227 0.314 0.3046 0.3038 0.3204 0.3505 0.3437
3742.217 0.3018 0.2949 0.2611 0.2497 0.2856 0.2984 0.2995 0.302 0.3074 0.3532
3780.797 0.3937 0.3484 0.336 0.3117 0.2938 0.3512 0.38 0.3791 0.328 0.3162
3819.376 0.3686 0.3635 0.3568 0.3597 0.3617 0.4048 0.3863 0.304 0.2844 0.3397
3857.956 0.3965 0.4079 0.3789 0.3479 0.3647 0.3715 0.3412 0.3336 0.3558 0.3835
3896.535 0.3611 0.3501 0.3692 0.3692 0.3427 0.3518 0.3267 0.2905 0.3246 0.3103
3935.115 0.2766 0.2884 0.3236 0.3534 0.3549 0.3455 0.3121 0.2705 0.2895 0.3114
3973.694 0.3107 0.3078 0.3069 0.3554 0.3656 0.3603 0.3436 0.3057
##END=
