##TITLE=3-Toluoylacetonitrile
##JCAMP-DX=4.24
##DATA TYPE=INFRARED SPECTRUM
##ORIGIN=EPA-IR VAPOR PHASE LIBRARY
##OWNER=SRD/NIST
Collection (C) 2018 copyright by the U.S. Secretary of Commerce
on behalf of the United States of America. All rights reserved.
##CAS REGISTRY NO=53882-81-8
##MOLFORM=C 10 H 9 N O
##$NIST SOURCE=MSDC-IR
##STATE=gas
##XUNITS=1/CM
##YUNITS=ABSORBANCE
##XFACTOR=1.
##YFACTOR=0.001
##DELTAX=1.92898
##FIRSTX=549.8
##LASTX=4000.7
##FIRSTY=2.223
##MAXX=4000.7
##MINX=549.759
##MAXY=0.106163
##MINY=0
##NPOINTS=1790
##XYDATA=(X++(Y..Y))
549.759 2.223 2.173 2.733 2.863 3.893 4.663 4.423 4.973 5.743 6.913
569.049 8.443 8.323 8.123 9.083 9.413 8.783 8.533 8.513 8.043 7.703
588.339 6.933 5.703 4.373 3.903 4.373 4.503 4.003 3.493 2.963 2.833
607.628 3.223 3.243 3.463 3.613 3.233 2.583 1.6952 1.843 1.923 1.733
626.918 2.163 1.963 1.783 1.773 1.773 2.383 2.143 2.133 2.413 2.003
646.208 2.213 2.533 2.883 3.533 4.253 4.753 5.343 6.473 7.103 7.933
665.498 8.843 9.173 9.513 10.063 10.573 11.053 11.663 12.643 13.873 14.733
684.787 15.843 17.183 17.673 17.533 16.833 15.703 14.773 13.923 13.163 12.073
704.077 11.243 11.003 10.433 10.393 10.913 11.173 11.163 11.223 12.153 12.813
723.367 12.863 12.463 12.173 12.483 11.863 11.083 10.873 10.343 9.603 9.183
742.657 8.703 8.223 8.003 7.943 8.253 8.533 9.213 9.463 9.233 10.303
761.947 11.723 12.403 13.143 14.223 15.483 16.793 17.063 16.463 16.643 17.243
781.236 17.583 18.053 17.823 16.843 16.033 15.563 14.643 12.763 11.233 10.103
800.526 8.653 7.383 6.593 5.593 4.773 4.343 3.653 3.373 3.283 2.963
819.816 2.943 2.923 2.723 2.663 2.523 2.673 2.923 3.093 3.683 4.303
839.106 4.653 5.003 5.173 5.143 5.273 5.093 4.623 4.513 4.673 4.603
858.395 4.383 4.303 4.433 4.403 4.503 4.683 4.303 3.853 4.203 4.423
877.685 4.233 4.403 4.323 4.293 4.423 4.423 4.313 4.213 3.953 3.983
896.975 4.403 4.403 4.273 3.953 4.123 4.683 4.593 4.483 4.453 4.323
916.265 4.353 4.623 5.103 5.453 5.483 5.653 6.423 6.963 6.763 6.593
935.555 6.603 6.423 6.343 5.853 5.463 5.103 4.693 4.753 4.503 3.923
954.844 3.303 3.243 3.433 3.373 2.923 2.563 2.963 3.283 3.433 3.323
974.134 3.213 3.393 3.433 3.673 4.123 4.543 4.373 4.593 4.813 5.113
993.424 5.783 5.703 5.883 6.323 5.973 5.613 6.213 6.493 6.603 7.093
1012.714 6.953 7.093 8.143 8.733 9.053 9.553 10.653 11.723 12.573 14.073
1032.003 15.103 15.713 16.953 17.113 16.323 16.503 16.643 15.883 14.943 14.113
1051.293 12.903 12.193 11.623 10.723 9.733 8.583 8.103 7.533 6.193 4.933
1070.583 4.383 4.953 4.833 3.823 3.713 3.593 3.953 4.213 3.363 3.303
1089.873 4.033 3.273 3.223 4.913 4.713 3.673 3.953 3.463 3.143 3.203
1109.163 3.113 3.743 2.983 2.423 2.663 2.953 3.663 3.983 4.273 3.883
1128.452 3.473 3.243 3.563 4.393 5.373 6.043 6.833 9.203 11.043 12.323
1147.742 15.243 19.963 24.903 28.593 31.433 33.813 35.443 36.323 36.033 34.223
1167.032 31.353 28.713 26.573 25.093 24.153 22.693 22.083 22.213 20.463 18.093
1186.322 16.323 14.863 14.283 13.053 11.193 10.623 11.153 10.723 11.183 11.903
1205.611 10.173 9.323 9.343 9.053 8.433 7.723 7.553 7.513 7.773 8.883
1224.901 9.963 10.463 10.933 12.003 12.803 13.563 15.313 17.193 18.633 20.163
1244.191 21.503 22.283 23.283 23.913 24.923 27.003 28.913 31.763 35.863 40.243
1263.481 45.673 51.773 57.523 62.633 66.943 69.663 70.373 69.473 66.953 62.953
1282.771 58.173 52.573 47.153 42.453 38.223 34.533 31.353 28.903 27.093 25.493
1302.060 24.193 23.273 22.833 22.833 22.823 22.833 22.903 23.083 23.163 22.963
1321.350 22.503 21.743 20.623 19.243 17.693 15.943 14.073 12.283 10.903 9.803
1340.640 8.883 7.983 7.213 6.873 6.533 6.113 5.783 5.643 5.583 5.383
1359.930 5.303 5.363 5.393 5.353 5.373 5.523 5.463 5.473 5.703 5.873
1379.219 6.063 6.213 6.323 6.603 6.903 6.963 6.953 7.113 7.383 7.613
1398.509 7.953 8.473 9.083 9.933 10.933 11.793 12.873 14.253 15.493 16.463
1417.799 17.343 18.003 18.283 18.483 18.583 18.663 18.493 17.963 17.323 16.703
1437.089 16.003 15.093 13.873 12.773 11.523 10.293 9.283 8.383 7.763 7.293
1456.378 6.673 6.333 6.453 6.553 6.703 6.743 6.723 6.903 7.023 7.043
1475.668 7.433 7.893 8.223 8.413 8.453 8.383 8.033 7.653 7.383 6.943
1494.958 6.183 5.623 5.223 4.703 4.413 4.203 3.993 3.893 3.723 3.763
1514.248 3.873 3.743 3.823 4.043 4.013 3.863 3.753 3.823 3.983 4.063
1533.538 4.033 4.003 3.943 3.763 3.723 3.683 3.473 3.503 3.563 3.503
1552.827 3.803 4.013 4.073 4.303 4.613 5.033 5.493 6.043 6.763 7.513
1572.117 8.463 9.773 11.333 12.703 14.003 15.023 15.663 16.153 15.993 15.783
1591.407 15.553 14.943 14.363 13.823 13.243 12.913 12.853 12.643 12.403 12.073
1610.697 11.613 11.013 10.363 9.503 8.773 8.183 7.293 6.743 6.393 6.013
1629.986 5.633 5.323 4.983 4.763 4.523 4.183 4.153 4.223 4.503 4.683
1649.276 4.633 4.873 5.123 5.303 5.763 6.043 6.203 6.653 7.293 7.813
1668.566 8.383 9.023 9.783 10.393 11.133 12.223 13.393 14.943 16.953 19.073
1687.856 21.703 25.023 29.363 34.693 41.403 49.173 57.393 67.173 76.343 85.383
1707.146 93.083 99.253 103.703 106.163 106.133 103.393 97.563 89.503 79.733 69.813
1726.435 60.243 51.273 42.913 35.733 29.253 24.223 20.763 18.023 15.803 13.843
1745.725 12.363 11.213 10.333 9.463 8.563 7.723 7.123 6.723 6.243 5.873
1765.015 5.623 5.373 4.963 4.583 4.403 4.183 3.993 3.763 3.543 3.423
1784.305 3.343 3.313 3.223 3.063 3.093 3.083 2.973 3.043 3.193 3.093
1803.594 2.853 2.833 2.893 2.833 2.713 2.723 2.643 2.463 2.363 2.303
1822.884 2.363 2.483 2.553 2.463 2.253 2.213 2.223 2.253 2.133 2.043
1842.174 2.193 2.283 2.303 2.243 2.263 2.373 2.403 2.453 2.513 2.533
1861.464 2.453 2.313 2.313 2.403 2.453 2.453 2.393 2.253 2.173 1.983
1880.754 1.933 1.993 1.963 1.993 1.933 1.913 2.083 2.183 2.063 1.953
1900.043 1.983 1.963 1.853 1.6761 1.5202 1.4584 1.4339 1.4311 1.3935 1.3654
1919.333 1.4024 1.323 1.3029 1.4309 1.4688 1.5261 1.5365 1.5497 1.6739 1.733
1938.623 1.793 1.933 1.863 1.863 1.993 1.923 1.863 1.933 1.953 1.843
1957.913 1.6419 1.5348 1.4751 1.4547 1.4514 1.3482 1.268 1.1755 1.0988 1.1192
1977.202 1.2255 1.3064 1.159 1.0355 1.1483 1.271 1.0825 0.9999 1.0607 0.9743
1996.492 0.8355 0.8621 1.0128 0.995 1.0405 1.124 1.1383 1.023 0.8971 0.9826
2015.782 1.0217 0.969 0.9443 0.8549 0.9431 1.0422 0.8994 0.76759 0.8734 0.77639
2035.072 0.606 0.78139 0.8542 0.9131 0.9359 0.9101 0.80729 0.8259 1.0143 1.0294
2054.362 0.9904 0.8774 0.81155 0.76633 0.80468 0.8264 0.75689 0.80158 0.7621 0.76295
2073.651 0.8746 0.77536 0.77134 0.8795 0.8445 0.8624 0.8805 0.6965 0.6699 0.8468
2092.941 0.9224 0.9254 0.8305 0.6704 0.71772 0.8292 0.826 0.9247 0.9286 0.9726
2112.231 1.0494 0.9508 0.8548 0.9716 0.8617 0.732197 0.8525 0.73465 0.6614 0.828
2131.521 0.9074 0.9891 1.0629 0.9949 0.9659 0.9429 1.003 0.9527 0.9226 0.9297
2150.810 0.9277 0.9356 0.8759 0.8971 0.9082 0.9425 0.9001 0.81717 0.8507 0.8833
2170.100 1.0178 1.0856 0.999 0.9914 0.9738 0.8619 0.82286 0.8801 0.8882 0.8934
2189.390 0.9611 1.0733 1.0608 1.0402 1.2571 1.3375 1.3144 1.5079 1.5932 1.6997
2208.680 1.733 1.5894 1.6429 1.6105 1.4703 1.3013 1.0345 0.9075 0.881 0.9521
2227.970 1.0309 1.0081 1.1903 1.1876 1.0942 1.1634 1.2122 1.3045 1.4421 1.803
2247.259 2.093 2.103 2.323 2.433 2.403 2.643 2.603 2.423 2.313 2.153
2266.549 1.903 1.823 1.6754 1.3828 1.2902 1.2499 1.1779 1.1234 1.0855 1.1073
2285.839 1.0953 1.0342 1.0759 1.0765 0.8335 0.75264 1.019 0.9928 0.9647 1.0908
2305.129 1.0242 1.041 1.1063 0.9159 0.566 0.6814 1.0137 1.0104 0.9484 0.8812
2324.418 0.9206 0.9406 0.9146 1.1085 1.1497 1.0269 1.2869 1.3636 1.3009 1.2942
2343.708 1.1723 1.1898 1.2446 1.3695 1.2168 1.1009 1.2351 1.2323 1.1555 1.1279
2362.998 1.1463 1.0142 0.9344 0.936 1.0033 1.0751 1.154 1.2867 1.0764 0.9182
2382.288 1.0002 1.056 1.0518 0.9971 1.0626 1.0854 1.053 1.088 1.1942 1.1522
2401.578 1.0169 0.963 1.0228 1.0748 0.9633 0.79035 0.621 0.7101 0.847 0.9616
2420.867 0.9688 0.8465 0.9416 1.0433 0.961 0.77446 0.8763 1.1509 1.0931 0.9557
2440.157 0.9671 1.0569 1.0949 0.9466 1.0113 1.0346 0.8728 0.9796 1.1104 0.9868
2459.447 0.8255 0.71879 0.8738 1.1165 0.9398 0.8756 0.9556 0.8779 0.8637 1.1085
2478.737 1.1528 1.0752 0.9486 1.0416 1.1873 0.8547 0.7313 0.82266 0.9021 0.843
2498.026 0.79872 0.75418 0.594 0.75328 0.8972 0.8397 0.78444 0.6744 0.80614 0.79013
2517.316 0.7089 0.7975 1.0625 1.1881 1.0372 1.0638 0.93 1.0802 1.2413 1.228
2536.606 1.1652 1.0797 1.2029 1.3757 1.3673 1.2176 1.1096 0.8474 0.79681 1.0746
2555.896 1.1607 1.0984 1.1137 1.065 1.3161 1.4127 1.2973 1.3229 1.3699 1.5612
2575.186 1.4201 1.0794 1.0944 1.145 1.2208 1.4341 1.3594 1.1635 1.1935 1.2114
2594.475 1.258 1.261 1.0724 1.1466 1.3668 1.3649 1.2537 0.966 0.81701 0.9615
2613.765 1.1097 1.2563 1.1969 1.0261 0.9133 0.7052 0.78683 1.0846 1.1815 1.186
2633.055 1.0192 0.75888 0.6558 0.80475 1.1302 0.95 0.75031 0.9722 1.0349 1.0677
2652.345 1.0725 0.9351 0.8397 0.8548 0.967 0.9656 0.8614 0.9985 0.9744 0.77384
2671.634 0.8387 0.81393 1.0015 1.0958 0.9544 0.9977 1.0362 1.1051 1.0196 1.0674
2690.924 0.8266 0.7036 0.9317 0.9136 0.726689 0.6868 0.924 1.1172 1.0305 0.8759
2710.214 0.8365 0.76448 1.0752 1.2703 1.0986 0.9419 0.9062 0.9304 0.79133 0.8609
2729.504 1.048 0.9146 0.8466 1.1441 1.2689 1.2253 1.259 1.3994 1.4234 1.2376
2748.794 1.4281 1.6161 1.6716 1.743 1.4626 1.2875 1.266 1.1941 1.2866 1.3624
2768.083 1.2034 1.0463 0.9624 0.8613 0.75309 0.75406 0.8708 1.0359 1.0781 0.9753
2787.373 0.8506 0.9301 1.1302 1.0435 1.1015 1.1378 1.2284 1.4268 1.2663 1.1362
2806.663 1.1345 1.1689 1.3074 1.4642 1.3615 1.3312 1.6493 1.783 1.6376 1.4045
2825.953 1.5568 1.6083 1.743 1.803 1.753 2.093 1.953 1.6874 1.843 2.143
2845.242 2.333 2.473 2.543 2.993 3.373 3.153 3.073 3.343 3.663 4.173
2864.532 4.533 5.113 5.513 5.683 6.103 6.203 6.433 6.933 6.883 6.663
2883.822 6.693 6.453 6.153 6.143 6.233 5.883 5.763 5.843 5.933 6.213
2903.112 6.343 6.253 6.373 6.963 7.273 7.573 7.933 8.303 8.873 9.703
2922.401 10.943 12.033 12.923 13.483 14.073 14.903 15.193 14.813 14.333 13.803
2941.691 12.993 12.173 11.503 10.433 9.203 8.533 7.913 7.513 7.333 6.763
2960.981 6.403 5.963 5.513 5.613 5.333 4.733 4.333 4.363 4.483 4.533
2980.271 4.493 4.583 4.853 5.093 5.283 5.193 5.493 5.993 6.023 6.013
2999.561 6.173 6.433 6.883 7.273 7.393 7.453 7.393 7.503 7.953 8.133
3018.850 8.273 8.633 8.853 9.183 9.803 10.553 11.353 11.733 11.903 12.273
3038.140 12.443 12.713 12.923 12.953 13.033 12.833 12.783 12.953 13.003 13.043
3057.430 12.723 12.653 12.863 12.493 12.243 12.343 11.963 11.443 11.153 10.743
3076.720 10.333 9.803 9.093 8.573 7.993 7.203 6.783 6.613 6.143 5.823
3096.009 5.703 5.333 4.983 4.993 4.773 4.393 4.203 3.783 3.503 2.993
3115.299 2.373 2.253 2.133 1.853 1.2088 0.9887 1.3965 1.4758 1.4321 1.2172
3134.589 0.98 0.9123 0.9353 1.1169 0.8507 0.344 0.535 0.686 0.75447 1.1899
3153.879 1.191 0.78487 0.6946 0.9181 0.9008 0.7121 0.78468 1.1476 1.0209 0.9328
3173.169 1.3068 1.329 1.2183 1.2584 1.4646 1.6542 1.5348 1.2605 1.4235 1.4866
3192.458 1.2416 1.3308 1.2655 1.0269 1.1326 1.2233 1.2418 1.0581 0.8929 0.8831
3211.748 0.9349 0.8459 0.986 1.177 0.6437 0.548 0.8676 0.77841 0.583 0.549
3231.038 0.621 1.0607 1.2602 0.8756 0.6829 0.74485 0.8597 0.9297 0.8689 1.0161
3250.328 1.2467 0.9471 0.51 0.354 0.6425 1.0379 0.8128 0.368 0.272 0.352
3269.617 0.553 0.431 0.501 1.074 1.164 1.0262 0.78668 0.6956 0.598 0.8466
3288.907 1.3689 0.8786 0.73325 0.80552 0.512 0.7102 0.652 0.8237 1.1942 1.0941
3308.197 0.79594 0.7008 0.901 1.0352 1.1121 0.78412 0.6839 0.9187 0.9219 0.8818
3327.487 0.74777 0.43 0.35 0.9733 1.1015 0.79206 0.61 0.6276 0.80884 0.6379
3346.777 0.730405 1.1121 1.0337 0.8748 0.9846 1.0338 0.8595 0.8434 0.9237 0.843
3366.066 0.594 0.361 0.333 0.6933 0.9956 0.9921 1.2505 1.0226 0.8405 1.0655
3385.356 1.3787 1.7006 1.6089 1.783 1.953 2.293 2.693 2.443 2.413 2.453
3404.646 2.443 2.463 1.863 1.5493 1.843 1.5801 1.6674 1.933 1.5883 1.4342
3423.936 1.2096 1.5438 1.6285 1.3381 1.5674 1.3305 1.2499 1.1568 1.0394 1.3901
3443.225 1.1493 0.81467 1.062 1.2791 1.092 0.80936 0.725859 0.656 0.442 0.693
3462.515 0.8124 0.397 0.358 0.722478 0.82215 0.9392 0.9205 0.567 0.434 0.403
3481.805 0.207 0.42 1.0621 0.71886 0.245 0.54 0.623 0.42 0.614 0.6697
3501.095 0.517 0.624 0.474 0.208 0.279 0.474 0.614 0.569 0.443 0.6675
3520.385 0.599 0.389 0.466 0.198 0.302 0.6944 0.79228 0.80439 1.0473 1.2067
3539.674 1.3488 1.4454 1.5956 1.753 1.733 1.5444 1.2762 1.2588 1.0213 0.9256
3558.964 0.8352 0.72016 0.588 0.395 0.391 0.438 0.574 0.82207 0.8663 0.489
3578.254 0.328 0.455 0.6644 0.80227 0.75533 0.51 0.197 0.342 0.451 0.398
3597.544 0.464 0.525 0.572 0.6322 0.554 0.549 0.78645 0.9201 0.722966 0.226
3616.833 0 0.197 0.298 0.529 0.80292 0.9908 1.0799 0.571 0.473 0.9325
3636.123 0.579 0.43 0.8922 0.80883 0.8646 0.913 0.331 0.092 0.38 0.72
3655.413 0.543 0.367 0.418 0.449 0.331 0.198 0.419 0.732221 1.0459 0.9435
3674.703 0.74641 0.6426 0.266 0.129 0.307 0.608 1.0485 0.9598 0.499 0.403
3693.993 0.482 0.513 0.523 0.453 0.6346 0.549 0.365 0.428 0.523 0.6243
3713.282 1.0413 0.8944 0.467 0.73643 0.6781 0.372 0.6476 0.579 0.271 0.74003
3732.572 0.81981 0.73682 0.81506 0.6915 0.9197 0.8359 0.383 0.433 0.77926 0.8691
3751.862 0.80776 0.81224 0.78481 0.589 0.427 0.71731 0.8038 0.71626 0.80381 0.8781
3771.152 0.9636 1.026 0.7087 0.316 0.166 0.148 0.364 0.365 0.265 0.554
3790.441 0.8543 0.8933 0.496 0.311 0.387 0.05 0.19 0.8204 0.9751 0.468
3809.731 0.162 0.513 0.9899 0.8522 0.6884 0.7056 0.407 0.44 0.8648 0.9365
3829.021 0.643 0.575 0.439 0.477 0.76048 0.77054 0.9299 1.0841 1.2692 1.1655
3848.311 0.883 0.8798 0.9193 0.8869 0.81682 0.608 0.31 0.352 0.6273 0.8764
3867.601 0.9291 0.553 0.204 0.307 0.375 0.436 0.6551 0.664 0.81847 0.605
3886.890 0.431 0.464 0.368 0.456 0.064 0.203 0.6951 1.0069 1.5706 1.0394
3906.180 0.38 0.51 0.74771 0.9722 0.9647 0.7013 0.685 0.80001 0.539 0.225
3925.470 0.133 0.201 0.313 0.73377 0.592 0.075 0.374 0.9442 0.841 0.8293
3944.760 0.6864 0.477 0.398 0.249 0.386 0.541 0.75992 0.9384 1.177 0.7377
3964.049 0.528 0.9861 1.0113 1.0361 0.9804 0.9541 0.9278 0.78443 0.9083 0.621
3983.339 0.318 0.392 0.287 0.162 0.267 0.9114 1.2702 0.8446 0.6935 0.78003
##END=
