##TITLE=p-Xylenediamine
##JCAMP-DX=4.24
##DATA TYPE=INFRARED SPECTRUM
##ORIGIN=EPA-IR VAPOR PHASE LIBRARY
##OWNER=SRD/NIST
Collection (C) 2018 copyright by the U.S. Secretary of Commerce
on behalf of the United States of America. All rights reserved.
##CAS REGISTRY NO=539-48-0
##MOLFORM=C 8 H 12 N 2
##$NIST SOURCE=MSDC-IR
##STATE=gas
##XUNITS=1/CM
##YUNITS=ABSORBANCE
##XFACTOR=1.
##YFACTOR=0.001
##DELTAX=1.92934
##FIRSTX=549.9
##LASTX=3999.5
##FIRSTY=53.41
##MAXX=3999.53
##MINX=549.863
##MAXY=0.25604
##MINY=0
##NPOINTS=1789
##XYDATA=(X++(Y..Y))
549.863 53.41 53.96 54.46 54.95 55.17 55.35 55.63 55.72 55.81 55.89
569.156 55.95 56.05 56.09 56.11 56 55.82 55.61 55.29 54.88 54.37
588.450 53.72 52.91 52.14 51.36 50.42 49.48 48.62 47.84 47.06 46.28
607.743 45.55 45.01 44.57 44.28 44.04 43.77 43.71 43.78 43.93 44.14
627.037 44.51 44.97 45.35 45.79 46.34 46.94 47.65 48.49 49.39 50.34
646.330 51.41 52.57 53.81 55.09 56.47 58.03 59.72 61.49 63.38 65.36
665.624 67.49 69.85 72.25 74.7 77.35 80.19 83.17 86.22 89.33 92.4
684.917 95.32 98.15 100.85 103.3 105.54 107.49 109.21 110.81 112.37 113.84
704.210 115.35 116.95 118.74 120.71 122.81 124.93 127.13 129.49 131.85 134.22
723.504 136.62 138.97 141.39 143.73 145.99 148.29 150.72 153.31 155.9 158.75
742.797 161.97 165.4 169.11 173.17 177.55 182.32 187.49 193 198.9 205.05
762.091 211.29 217.44 223.57 229.4 234.82 239.8 244.03 247.63 250.84 253.45
781.384 255.02 255.75 256.04 255.79 254.74 253.21 251.53 249.71 247.73 245.37
800.678 242.78 240.05 237.2 234.28 230.79 226.81 222.65 218.28 213.58 208.46
819.971 203.4 198.57 193.79 189.44 185.39 180.97 176.85 173.16 169.4 165.71
839.264 162.24 158.9 155.55 152.26 149.01 145.23 141.45 137.91 133.68 129.18
858.558 124.79 120.21 115.58 110.83 106.38 101.86 96.83 92.23 87.83 83.62
877.851 79.82 76.29 73.03 69.96 67.2 64.79 62.31 60.12 58.04 56
897.145 54.18 52.49 50.9 49.44 48.13 47.18 46.17 44.88 43.92 43.08
916.438 42.29 41.61 41.13 40.7 40.33 40.38 40.67 41.03 40.62 39.3
935.732 38.42 38.01 37.78 37.62 37.61 37.74 37.76 37.89 38 38.03
955.025 38.22 38.61 39.09 39.88 40.86 41.94 41.87 39.96 38.81 38.7
974.318 38.52 38.41 38.31 38.25 38.34 38.51 38.76 39.14 39.69 40.64
993.612 41.31 41.94 43.27 44.97 47.27 50.35 54.54 59.9 65.51 70.49
1012.905 73.18 73.2 72.85 73.03 73.41 73.35 71.63 69.09 67.66 68.16
1032.199 70.43 72.64 73.6 73.9 73.65 72.58 70.79 68.51 64.86 60.57
1051.492 57 53.84 50.72 47.81 45.56 43.56 41.94 40.82 39.19 37.43
1070.786 36.1 34.94 34.04 32.57 30.91 29.56 28.67 28.26 26.83 25.36
1090.079 24.54 23.63 23.06 22.56 21.82 21.18 21.19 21.25 20.45 19.96
1109.372 19.9 19.76 19.71 19.78 19.8 19.47 20 20.16 19.35 19.25
1128.666 19.34 19.44 19.49 19.5 19.54 19.53 19.7 19.24 18.61 18.35
1147.959 18.14 18.02 17.87 17.77 17.74 18.12 18.07 17.39 17.24 17.35
1167.253 17.43 17.56 17.76 17.95 18.37 18.89 18.77 18.67 18.97 19.38
1186.546 19.9 20.44 21.07 21.88 23.07 24 24.67 25.39 25.92 26.19
1205.840 26.16 25.84 25.19 24.6 23.61 22.24 21.07 20.08 19.31 18.78
1225.133 18.52 18.48 18.67 18.94 19.12 19.39 19.73 20.04 20.31 20.64
1244.426 20.9 21.22 21.56 21.73 21.84 21.91 22.04 22.1 22.06 21.98
1263.720 21.88 21.69 21.41 21.2 21.07 20.87 20.62 20.47 20.5 20.56
1283.013 20.61 20.72 20.92 21.14 21.37 21.75 22.21 22.75 23.33 23.96
1302.307 24.65 25.4 26.25 27.16 28.13 29.19 30.34 31.49 32.65 33.86
1321.600 35.1 36.41 37.79 39.21 40.66 42.18 43.8 45.51 47.24 48.97
1340.894 50.61 52.2 53.8 55.34 56.89 58.41 59.94 61.58 63.33 65.27
1360.187 67.45 69.91 72.56 75.37 78.33 81.26 83.94 86.16 87.68 88.48
1379.480 88.4 87.27 85.2 82.42 78.99 74.98 70.81 66.78 62.99 59.59
1398.774 56.82 54.64 53.09 52.18 51.71 51.46 51.35 51.18 50.85 50.3
1418.067 49.47 48.28 46.85 45.36 43.57 41.53 39.3 36.91 34.57 32.55
1437.361 30.64 28.86 27.46 26.43 25.74 25.41 25.38 25.6 26.23 27.15
1456.654 28.42 29.64 30.65 31.54 32.03 32.05 31.8 31.19 30.13 28.75
1475.948 27.03 25.19 23.61 22.49 21.82 21.42 21.39 21.86 22.71 24.03
1495.241 26.05 28.78 32.17 36.21 40.58 44.97 48.92 51.5 52.57 52.36
1514.534 51.19 48.99 45.54 41.14 35.86 31 27.07 24.12 22.13 20.94
1533.828 20.05 19.38 19.12 19.04 18.98 19.01 19.08 19.18 19.4 19.63
1553.121 19.96 20.39 20.87 21.52 22.09 22.61 23.26 24.03 24.93 25.91
1572.415 26.91 28.02 29.3 30.6 31.91 33.33 34.91 36.66 38.52 40.51
1591.708 42.61 44.85 47.27 49.84 52.6 55.59 58.73 62.09 65.55 69.07
1611.002 72.48 75.64 78.26 80.28 81.43 81.68 81.03 79.54 77.31 74.18
1630.295 70.49 66.56 62.61 58.7 55.02 51.74 48.75 46.13 43.79 41.47
1649.588 39.26 37.17 34.91 32.67 30.54 28.61 26.85 25.16 23.64 22.29
1668.882 20.94 19.63 18.48 17.46 16.44 15.51 14.73 14.06 13.41 12.71
1688.175 12.12 11.65 11.24 10.86 10.52 10.25 10.01 9.68 9.39 9.16
1707.469 8.96 8.82 8.73 8.68 8.64 8.58 8.48 8.39 8.32 8.25
1726.762 8.2 8.24 8.31 8.33 8.43 8.41 8.41 8.47 8.48 8.57
1746.056 8.62 8.71 8.91 9.01 8.96 9.05 9.18 9.27 9.38 9.47
1765.349 9.59 9.8 9.95 10.07 10.3 10.55 10.83 11.19 11.54 11.8
1784.642 12.01 12.08 12.08 12.11 11.99 11.66 11.19 10.63 10.1 9.59
1803.936 9.07 8.62 8.26 7.94 7.67 7.47 7.34 7.23 7.08 6.94
1823.229 6.82 6.74 6.66 6.59 6.48 6.36 6.27 6.21 6.16 6.12
1842.523 6.15 6.12 6.04 5.96 5.91 5.93 5.96 5.98 6.05 6.14
1861.816 6.25 6.39 6.56 6.73 6.98 7.25 7.56 7.94 8.3 8.72
1881.110 9.2 9.67 10.13 10.55 10.96 11.32 11.59 11.79 11.89 11.84
1900.403 11.7 11.5 11.21 10.8 10.34 9.79 9.19 8.56 7.94 7.38
1919.696 6.85 6.34 5.89 5.49 5.15 4.84 4.57 4.345 4.1544 3.9465
1938.990 3.8016 3.6952 3.57663 3.438 3.313 3.254 3.201 3.141 3.12 3.085
1958.283 3.033 3.026 2.976 2.934 2.902 2.871 2.83 2.763 2.742 2.714
1977.577 2.676 2.635 2.59 2.55 2.49 2.45 2.46 2.47 2.44 2.39
1996.870 2.34 2.35 2.36 2.34 2.31 2.31 2.29 2.27 2.25 2.25
2016.164 2.24 2.19 2.18 2.19 2.17 2.16 2.14 2.09 2.05 2.03
2035.457 2.03 2.03 2 1.99 2 1.97 1.96 1.96 1.95 1.94
2054.750 1.95 1.93 1.9 1.94 1.96 1.97 1.96 1.93 1.94 1.91
2074.044 1.89 1.89 1.88 1.84 1.81 1.82 1.8 1.79 1.81 1.79
2093.337 1.76 1.73 1.69 1.71 1.71 1.71 1.71 1.67 1.65 1.64
2112.631 1.65 1.63 1.61 1.64 1.65 1.64 1.62 1.59 1.61 1.64
2131.924 1.63 1.63 1.63 1.65 1.69 1.7 1.69 1.71 1.7 1.69
2151.218 1.71 1.74 1.76 1.75 1.76 1.75 1.76 1.78 1.79 1.8
2170.511 1.78 1.77 1.76 1.77 1.79 1.79 1.8 1.81 1.79 1.78
2189.804 1.8 1.81 1.8 1.8 1.82 1.84 1.87 1.9 1.91 1.93
2209.098 1.98 2.02 2.04 2.06 2.1 2.13 2.1 2.09 2.12 2.12
2228.391 2.11 2.14 2.12 2.1 2.11 2.11 2.09 2.06 2.09 2.11
2247.685 2.11 2.09 2.08 2.11 2.14 2.16 2.19 2.22 2.24 2.27
2266.978 2.27 2.28 2.32 2.35 2.36 2.4 2.43 2.48 2.54 2.561
2286.272 2.585 2.636 2.684 2.709 2.72 2.718 2.747 2.764 2.738 2.705
2305.565 2.681 2.681 2.631 2.56 2.53 2.47 2.38 2.34 2.3 2.26
2324.858 2.22 2.13 2.03 2.01 2.01 1.98 1.93 1.87 1.82 1.79
2344.152 1.79 1.78 1.72 1.67 1.67 1.65 1.64 1.63 1.64 1.63
2363.445 1.6 1.57 1.58 1.55 1.54 1.54 1.51 1.49 1.43 1.4
2382.739 1.42 1.39 1.35 1.33 1.31 1.31 1.29 1.25 1.23 1.21
2402.032 1.22 1.22 1.22 1.24 1.22 1.23 1.26 1.24 1.22 1.22
2421.326 1.25 1.28 1.25 1.25 1.26 1.25 1.23 1.23 1.21 1.23
2440.619 1.24 1.23 1.25 1.24 1.24 1.26 1.26 1.26 1.29 1.33
2459.912 1.34 1.34 1.35 1.32 1.29 1.3 1.3 1.32 1.33 1.36
2479.206 1.4 1.4 1.4 1.42 1.45 1.47 1.45 1.47 1.51 1.56
2498.499 1.59 1.6 1.63 1.64 1.66 1.69 1.74 1.75 1.76 1.79
2517.793 1.81 1.83 1.86 1.89 1.9 1.87 1.9 1.94 1.9 1.91
2537.086 1.95 2 1.99 1.97 1.98 1.95 1.94 1.98 1.99 2.02
2556.380 2.06 2.07 2.11 2.15 2.21 2.28 2.32 2.4 2.43 2.48
2575.673 2.588 2.648 2.731 2.796 2.861 2.955 3.05 3.096 3.152 3.232
2594.966 3.278 3.36 3.403 3.45 3.5261 3.55513 3.62345 3.7114 3.7593 3.8367
2614.260 3.9107 3.9595 4.0577 4.1448 4.1936 4.2949 4.4124 4.4734 4.5023 4.57
2633.553 4.62 4.62 4.69 4.75 4.75 4.77 4.79 4.8 4.86 4.91
2652.847 4.95 4.99 5.02 5.05 5.08 5.16 5.22 5.27 5.31 5.35
2672.140 5.41 5.43 5.47 5.56 5.59 5.61 5.64 5.68 5.71 5.76
2691.434 5.88 5.97 6.08 6.21 6.31 6.47 6.64 6.82 7.06 7.28
2710.727 7.47 7.67 7.95 8.17 8.41 8.75 9.08 9.41 9.73 10.05
2730.020 10.36 10.69 11.07 11.39 11.68 11.99 12.26 12.44 12.64 12.85
2749.314 13.01 13.16 13.29 13.41 13.49 13.54 13.66 13.81 13.9 14.01
2768.607 14.16 14.34 14.55 14.78 15.05 15.37 15.72 16.11 16.58 17.17
2787.901 17.83 18.49 19.19 20 20.9 21.83 22.87 23.97 25.13 26.4
2807.194 27.76 29.23 30.86 32.53 34.34 36.37 38.51 40.76 43.21 45.88
2826.488 48.66 51.63 54.94 58.44 62.16 66.23 70.49 74.97 79.78 84.76
2845.781 89.86 95.12 100.54 105.95 111.26 116.41 121.12 125.28 128.82 131.72
2865.074 133.88 135.27 135.96 135.71 134.66 133.1 131.02 128.65 126.32 124.11
2884.368 122 120.17 118.65 117.55 116.86 116.43 116.13 115.99 115.98 115.76
2903.661 115.3 114.7 113.96 113.08 112.03 111.04 110.14 109.49 109.11 108.93
2922.955 109.07 109.37 109.83 110.58 111.28 111.7 111.89 111.66 110.77 109.13
2942.248 106.81 103.8 100.1 95.84 91.13 86.13 80.91 75.67 70.57 65.59
2961.542 60.99 56.84 53.08 49.68 46.85 44.67 42.92 41.63 40.81 40.46
2980.835 40.44 40.79 41.46 42.38 43.43 44.64 45.95 47.27 48.69 50.26
3000.128 52.24 54.65 57.46 60.97 65.15 70.09 75.88 82.24 88.78 94.81
3019.422 99.62 102.85 104.32 104.04 102.14 98.91 94 87.71 81.03 74.78
3038.715 69.73 66.11 63.8 62.38 61.4 60.45 59.38 58.34 57.21 55.84
3058.009 54.07 51.99 49.71 47.29 44.9 42.46 40.01 37.72 35.53 33.59
3077.302 31.93 30.42 29.15 28.01 26.96 25.93 24.92 23.82 22.55 21.28
3096.596 20.12 18.91 17.51 16 14.66 13.46 12.25 11.12 10.01 9.08
3115.889 8.46 7.86 7.3 6.97 6.64 6.35 6.02 5.66 5.35 5.05
3135.182 4.64 4.1313 3.7281 3.329 2.895 2.45 2.15 1.87 1.49 1.24
3154.476 1.15 1.07 0.93 0.78 0.75 0.75 0.67 0.65 0.59 0.47
3173.769 0.38 0.49 0.48 0.41 0.49 0.44 0.43 0.41 0.42 0.5
3193.063 0.52 0.57 0.62 0.65 0.64 0.63 0.65 0.68 0.64 0.62
3212.356 0.7 0.73 0.74 0.69 0.73 0.8 0.73 0.68 0.68 0.72
3231.650 0.71 0.68 0.63 0.59 0.55 0.48 0.45 0.45 0.41 0.32
3250.943 0.3 0.31 0.34 0.34 0.32 0.34 0.26 0.19 0.27 0.29
3270.236 0.15 0 0.05 0.1 0.23 0.35 0.32 0.37 0.37 0.23
3289.530 0.11 0.21 0.38 0.49 0.61 0.56 0.53 0.63 0.67 0.66
3308.823 0.7 0.86 1 1.1 1.29 1.5 1.65 1.93 2.28 2.615
3328.117 3.017 3.62978 4.2792 5.01 5.9 6.6 7.24 7.91 8.51 8.86
3347.410 8.88 8.78 8.5 7.95 7.23 6.45 5.62 4.79 4.1866 3.7112
3366.704 3.346 2.943 2.638 2.44 2.14 2.01 1.98 1.89 1.89 1.89
3385.997 1.84 1.74 1.78 1.89 1.99 2.07 2.1 2.23 2.42 2.38
3405.290 2.43 2.562 2.595 2.671 2.812 2.885 2.862 2.909 2.984 2.997
3424.584 2.988 2.949 2.808 2.659 2.574 2.46 2.25 2.07 2.03 1.89
3443.877 1.77 1.77 1.69 1.58 1.44 1.34 1.26 1.11 1.06 1
3463.171 0.83 0.75 0.75 0.86 0.88 0.74 0.67 0.68 0.62 0.57
3482.464 0.61 0.74 0.7 0.56 0.58 0.56 0.52 0.5 0.55 0.56
3501.758 0.5 0.58 0.64 0.72 0.68 0.52 0.5 0.47 0.54 0.63
3521.051 0.57 0.6 0.71 0.71 0.68 0.69 0.67 0.62 0.66 0.69
3540.344 0.73 0.79 0.82 0.88 0.78 0.69 0.73 0.71 0.73 0.72
3559.638 0.68 0.66 0.68 0.6 0.48 0.42 0.31 0.17 0.07 0.02
3578.931 0.06 0.26 0.43 0.57 0.71 0.79 0.81 0.91 0.96 0.91
3598.225 0.93 1.01 1.13 1.16 1.18 1.21 1.1 1.14 1.2 1.09
3617.518 1.07 1.1 1.17 1.19 1.19 1.35 1.44 1.35 1.27 1.28
3636.812 1.37 1.42 1.46 1.52 1.51 1.46 1.48 1.55 1.63 1.74
3656.105 1.77 1.77 1.74 1.65 1.65 1.7 1.78 1.81 1.71 1.64
3675.398 1.57 1.49 1.44 1.42 1.4 1.37 1.36 1.32 1.36 1.44
3694.692 1.43 1.31 1.2 1.21 1.21 1.24 1.26 1.12 1.18 1.32
3713.985 1.32 1.29 1.27 1.26 1.25 1.22 1.25 1.35 1.38 1.4
3733.279 1.4 1.41 1.41 1.48 1.63 1.59 1.48 1.41 1.36 1.34
3752.572 1.31 1.32 1.27 1.21 1.21 1.25 1.28 1.35 1.35 1.3
3771.866 1.33 1.32 1.32 1.37 1.32 1.26 1.32 1.41 1.61 1.64
3791.159 1.44 1.36 1.33 1.4 1.48 1.52 1.6 1.58 1.57 1.5
3810.452 1.41 1.52 1.58 1.54 1.52 1.53 1.55 1.58 1.66 1.73
3829.746 1.78 1.95 2.08 1.96 1.87 1.82 1.77 1.76 1.74 1.71
3849.039 1.68 1.79 1.87 1.86 1.77 1.82 1.89 1.9 1.99 1.99
3868.333 1.99 2 1.96 2.06 2.29 2.31 2.12 2.03 2.08 2.04
3887.626 1.89 1.9 1.97 1.96 1.91 1.92 1.97 2.02 2.03 1.99
3906.920 1.96 1.95 1.91 1.88 1.94 2.09 2.16 2.14 2 1.94
3926.213 1.92 1.91 1.94 1.91 1.86 1.79 1.8 1.84 1.85 1.87
3945.506 1.85 1.84 1.89 1.83 1.78 1.79 1.76 1.78 1.81 1.78
3964.800 1.7 1.67 1.69 1.73 1.77 1.77 1.79 1.77 1.73 1.75
3984.093 1.74 1.76 1.82 1.84 1.86 1.81 1.86 1.98 2.07
##END=
