##TITLE=3,7-Dimethyl-2,6-octadienal
##JCAMP-DX=4.24
##DATA TYPE=INFRARED SPECTRUM
##ORIGIN=NIST Mass Spectrometry Data Center
##OWNER=NIST Standard Reference Data Program
Collection (C) 2018 copyright by the U.S. Secretary of Commerce
on behalf of the United States of America. All rights reserved.
##CAS REGISTRY NO=5392-40-5
##MOLFORM=C 10 H 16 O
##$NIST SOURCE=MSDC-IR
##SPECTROMETER/DATA SYSTEM=HP-GC/MS/IRD
##STATE=gas
##XUNITS=1/CM
##YUNITS=ABSORBANCE
##XFACTOR=1.0
##YFACTOR=0.000002500
##DELTAX=4.0
##FIRSTX=550.0
##LASTX=3846.0
##FIRSTY=0.000418
##MAXX=3846
##MINX=550
##MAXY=0.025
##MINY=0
##NPOINTS=825
##XYDATA=(X++(Y..Y))
550.0 167 80 41 51 50 67 63 70 24 0
590.0 42 60 47 51 56 29 13 23 39 36
630.0 36 18 25 54 61 37 13 17 23 32
670.0 52 69 87 120 146 173 224 266 277 276
710.0 247 205 176 175 188 227 293 310 308 315
750.0 289 261 239 211 201 192 167 182 216 226
790.0 237 281 338 389 441 484 539 572 584 600
830.0 601 573 535 502 474 444 417 386 349 334
870.0 322 294 289 299 286 284 295 288 275 280
910.0 286 287 290 277 262 257 252 247 247 279
950.0 326 354 401 457 486 501 507 508 496 467
990.0 445 438 419 393 370 359 355 350 352 356
1030.0 365 380 393 390 376 361 341 329 322 318
1070.0 316 318 369 442 539 688 861 1095 1349 1491
1110.0 1481 1300 1011 731 520 396 310 265 263 270
1150.0 268 287 321 358 409 486 626 835 1088 1295
1190.0 1371 1263 990 683 463 340 287 269 245 226
1230.0 206 183 174 172 160 141 137 138 130 140
1270.0 157 164 158 165 180 198 220 238 259 275
1310.0 289 315 335 338 334 319 305 305 319 345
1350.0 362 399 455 526 653 808 1009 1229 1374 1403
1390.0 1305 1138 992 888 821 775 734 712 710 739
1430.0 793 855 932 1002 1036 1027 978 896 805 709
1470.0 613 539 484 428 383 345 311 297 289 282
1510.0 269 265 274 277 268 259 271 286 282 283
1550.0 297 307 329 351 364 384 413 449 504 580
1590.0 672 808 1009 1305 1705 2198 2648 2882 2819 2526
1630.0 2157 1850 1588 1357 1177 1054 1002 1009 1073 1183
1670.0 1368 1707 2290 3279 5022 7464 9395 10000 9174 6848
1710.0 4541 3124 2176 1524 1076 791 601 467 385 326
1750.0 269 232 207 180 165 159 153 139 135 134
1790.0 134 131 122 126 127 117 111 111 102 92
1830.0 78 72 70 65 62 60 53 45 44 50
1870.0 47 40 45 46 41 41 39 38 39 43
1910.0 44 40 34 38 40 37 42 42 39 44
1950.0 45 34 29 37 43 40 43 50 40 31
1990.0 32 36 37 28 22 26 23 24 27 27
2030.0 28 24 20 17 18 15 12 12 20 25
2070.0 21 18 19 19 17 25 24 19 21 27
2110.0 24 23 21 22 33 39 36 37 39 32
2150.0 32 38 40 36 37 41 39 38 35 30
2190.0 34 42 48 55 48 40 38 37 35 30
2230.0 19 13 17 13 9 19 18 4 3 12
2270.0 11 10 15 16 10 11 21 20 14 12
2310.0 14 11 11 17 12 5 9 8 10 16
2350.0 14 10 6 2 3 16 29 30 26 25
2390.0 21 24 30 33 33 25 21 26 34 40
2430.0 39 42 40 38 39 37 32 32 42 41
2470.0 39 41 39 41 46 36 28 36 48 54
2510.0 49 41 42 39 44 51 47 47 52 55
2550.0 55 53 48 47 54 63 61 63 69 61
2590.0 56 64 67 73 71 62 76 89 85 93
2630.0 103 106 109 118 132 131 131 145 151 152
2670.0 174 195 210 235 268 312 369 439 561 739
2710.0 975 1270 1541 1703 1707 1570 1356 1174 1063 991
2750.0 940 919 904 874 807 728 653 591 556 536
2790.0 529 537 556 586 643 724 829 985 1220 1462
2830.0 1662 1808 1841 1767 1674 1622 1641 1739 1849 1925
2870.0 1964 1955 1910 1881 1900 1960 2024 2110 2220 2375
2910.0 2589 2855 3136 3383 3522 3522 3403 3234 3066 2894
2950.0 2706 2517 2367 2262 2214 2196 2181 2147 2068 1949
2990.0 1815 1677 1541 1408 1290 1183 1091 1021 967 921
3030.0 879 854 824 762 707 656 593 538 491 442
3070.0 406 378 363 335 299 281 263 239 221 206
3110.0 185 180 179 147 134 142 133 121 103 86
3150.0 91 88 76 63 58 65 72 79 65 51
3190.0 62 71 75 68 68 78 72 73 72 67
3230.0 70 58 55 51 49 46 39 54 51 40
3270.0 43 49 52 57 65 52 40 40 49 53
3310.0 51 58 53 51 68 84 80 56 65 86
3350.0 94 113 124 135 148 162 176 172 148 120
3390.0 104 114 118 119 113 101 88 70 63 62
3430.0 59 51 41 32 27 27 28 21 28 38
3470.0 36 30 26 26 29 36 32 21 17 12
3510.0 14 26 24 26 39 25 14 25 20 10
3550.0 26 30 12 18 27 21 15 18 31 26
3590.0 16 23 28 27 27 26 31 32 17 11
3630.0 15 19 19 14 17 32 33 21 28 29
3670.0 11 3 17 22 31 40 28 22 34 37
3710.0 35 34 18 22 27 27 32 29 26 43
3750.0 29 10 26 37 38 53 54 41 28 23
3790.0 17 10 23 33 39 69 66 49 55 56
3830.0 59 61 68 71 61
##END=
