##TITLE=N-(4-Bromobutyl)phthalimide
##JCAMP-DX=4.24
##DATA TYPE=INFRARED SPECTRUM
##ORIGIN=NIST Mass Spectrometry Data Center
##OWNER=NIST Standard Reference Data Program
Collection (C) 2018 copyright by the U.S. Secretary of Commerce
on behalf of the United States of America. All rights reserved.
##CAS REGISTRY NO=5394-18-3
##MOLFORM=C 12 H 12 Br N O 2
##$NIST SOURCE=MSDC-IR
##SPECTROMETER/DATA SYSTEM=HP-GC/MS/IRD
##STATE=gas
##XUNITS=1/CM
##YUNITS=ABSORBANCE
##XFACTOR=1.0
##YFACTOR=0.000048400
##DELTAX=4.0
##FIRSTX=550.0
##LASTX=3846.0
##FIRSTY=0.004017
##MAXX=3846
##MINX=550
##MAXY=0.484
##MINY=0
##NPOINTS=825
##XYDATA=(X++(Y..Y))
550.0 83 101 45 57 71 84 71 40 12 1
590.0 2 8 15 26 32 41 61 70 48 21
630.0 8 12 22 39 60 80 94 89 63 32
670.0 14 11 17 31 63 117 176 244 366 622
710.0 1125 1758 1975 1503 873 491 307 232 201 187
750.0 183 182 175 161 143 118 102 104 123 140
790.0 126 86 53 37 31 28 23 15 11 9
830.0 10 12 13 17 26 39 54 76 91 94
870.0 90 86 90 106 129 152 168 175 179 182
910.0 185 189 193 191 183 177 173 169 162 157
950.0 154 149 137 122 113 112 117 129 148 177
990.0 211 248 292 345 410 485 555 605 619 590
1030.0 531 460 398 347 304 270 252 252 268 293
1070.0 321 350 383 416 435 433 415 392 364 329
1110.0 286 242 200 162 130 104 85 73 67 73
1150.0 92 129 153 156 169 207 250 293 339 367
1190.0 356 310 259 231 233 247 257 258 246 219
1230.0 191 178 183 209 261 351 469 548 535 460
1270.0 397 371 376 403 441 484 526 558 580 592
1310.0 616 675 764 851 930 1019 1152 1352 1620 1944
1350.0 2328 2762 3160 3388 3379 3170 2830 2495 2395 2640
1390.0 2979 2946 2454 1845 1374 1041 800 632 533 504
1430.0 548 662 815 928 927 813 671 565 507 476
1470.0 427 331 223 148 109 89 77 70 67 64
1510.0 63 64 66 66 63 60 57 55 55 53
1550.0 50 49 48 48 49 53 60 67 75 89
1590.0 105 118 130 145 164 177 173 150 121 94
1630.0 75 65 59 56 56 58 62 69 81 96
1670.0 115 142 173 216 276 360 477 635 831 1067
1710.0 1382 1887 2816 4439 6789 9138 10000 8570 5787 3359
1750.0 1971 1323 1015 861 812 856 996 1207 1385 1361
1790.0 1093 750 498 347 262 208 168 141 124 113
1830.0 108 107 105 98 88 75 63 56 56 60
1870.0 61 60 54 47 41 39 39 39 41 44
1910.0 46 43 38 34 34 38 45 49 47 40
1950.0 29 21 20 25 32 37 34 24 15 8
1990.0 6 5 4 3 3 2 2 2 1 0
2030.0 1 0 1 1 0 1 0 1 1 1
2070.0 2 3 2 3 3 2 3 2 1 0
2110.0 1 1 1 0 1 1 2 3 2 3
2150.0 2 3 2 3 2 1 2 1 1 2
2190.0 1 0 1 1 1 0 0 0 0 0
2230.0 2 3 5 6 8 11 10 10 9 8
2270.0 7 8 7 8 7 8 7 9 10 11
2310.0 13 16 18 17 15 14 13 14 13 13
2350.0 13 12 13 13 12 13 13 12 11 10
2390.0 11 10 11 12 11 12 11 12 13 12
2430.0 14 14 15 16 14 14 13 14 14 13
2470.0 12 12 11 10 10 9 8 8 7 6
2510.0 6 5 4 3 2 3 3 2 3 2
2550.0 3 4 2 3 3 2 1 2 1 0
2590.0 1 0 1 3 3 3 5 6 7 8
2630.0 9 10 11 12 11 12 11 12 12 12
2670.0 13 15 16 17 18 19 20 21 20 18
2710.0 15 13 12 11 11 10 9 10 9 10
2750.0 10 11 12 12 14 17 21 24 26 25
2790.0 26 25 24 22 23 24 26 27 30 35
2830.0 40 45 53 66 81 95 107 117 131 152
2870.0 173 184 184 175 165 159 161 173 188 204
2910.0 218 227 243 272 312 359 423 511 613 698
2950.0 732 706 636 554 502 481 445 378 302 233
2990.0 176 138 115 110 117 132 139 125 96 75
3030.0 65 65 68 75 86 101 122 147 170 172
3070.0 160 161 187 226 256 248 195 128 80 51
3110.0 34 22 15 11 8 6 5 4 5 4
3150.0 3 4 3 4 4 3 3 4 3 4
3190.0 4 5 6 8 9 10 9 8 8 7
3230.0 6 6 5 4 3 4 3 2 3 3
3270.0 2 1 0 0 2 3 3 2 3 3
3310.0 2 3 3 2 3 3 2 3 4 4
3350.0 3 2 2 3 5 4 3 4 3 4
3390.0 5 6 7 7 7 8 7 8 9 11
3430.0 13 14 17 21 25 30 35 40 42 42
3470.0 43 47 52 60 73 87 100 107 106 94
3510.0 77 58 44 32 26 22 17 17 16 16
3550.0 17 17 17 16 17 16 14 13 11 11
3590.0 10 9 10 9 8 9 8 7 8 7
3630.0 8 7 8 8 7 6 6 7 7 6
3670.0 6 6 7 8 8 7 7 7 6 7
3710.0 6 6 7 8 9 8 8 9 8 9
3750.0 9 9 10 11 11 9 10 11 10 9
3790.0 10 9 10 9 9 8 7 8 7 8
3830.0 7 8 9 8 7
##END=
