##TITLE=1,5-Decadiyne
##JCAMP-DX=4.24
##DATA TYPE=INFRARED SPECTRUM
##ORIGIN=NIST Mass Spectrometry Data Center
##OWNER=NIST Standard Reference Data Program
Collection (C) 2018 copyright by the U.S. Secretary of Commerce
on behalf of the United States of America. All rights reserved.
##CAS REGISTRY NO=53963-03-4
##MOLFORM=C 10 H 14
##$NIST SOURCE=MSDC-IR
##SPECTROMETER/DATA SYSTEM=HP-GC/MS/IRD
##STATE=gas
##XUNITS=1/CM
##YUNITS=ABSORBANCE
##XFACTOR=1.0
##YFACTOR=0.000003100
##DELTAX=4.0
##FIRSTX=550.0
##LASTX=3846.0
##FIRSTY=0.001451
##MAXX=3846
##MINX=550
##MAXY=0.031
##MINY=0
##NPOINTS=825
##XYDATA=(X++(Y..Y))
550.0 468 469 476 463 469 467 433 410 392 385
590.0 388 449 510 555 672 915 1338 2017 2954 4237
630.0 6068 8246 8786 7027 5041 3550 2398 1589 1068 745
670.0 541 430 334 264 242 210 193 174 156 149
710.0 148 148 138 129 139 160 178 168 167 186
750.0 179 171 158 140 139 145 131 110 98 87
790.0 80 66 57 69 75 75 95 92 57 55
830.0 64 69 50 30 41 49 48 54 57 61
870.0 62 60 59 57 66 71 81 91 77 68
910.0 81 86 94 103 109 111 116 130 124 110
950.0 108 107 108 110 102 91 85 80 83 87
990.0 84 77 70 56 35 29 24 20 13 1
1030.0 3 15 23 16 19 35 43 50 50 50
1070.0 65 82 81 83 99 114 126 136 138 126
1110.0 107 98 83 69 71 64 60 69 79 74
1150.0 72 72 72 79 77 90 103 98 101 114
1190.0 138 160 166 177 203 230 258 278 311 394
1230.0 528 712 987 1366 1843 2301 2600 2587 2225 1680
1270.0 1188 853 668 575 532 523 545 585 626 683
1310.0 760 886 1068 1278 1499 1701 1814 1753 1548 1250
1350.0 935 732 628 556 487 435 416 422 438 432
1390.0 399 357 331 323 325 347 395 482 603 778
1430.0 1012 1225 1346 1372 1311 1222 1154 1100 1047 976
1470.0 874 756 622 509 413 337 286 246 217 200
1510.0 177 157 143 129 117 108 102 103 102 94
1550.0 87 86 89 78 66 66 62 53 50 55
1590.0 51 50 43 36 36 39 49 53 44 39
1630.0 44 48 43 38 37 48 48 34 30 28
1670.0 31 34 31 37 42 33 29 33 27 23
1710.0 20 22 26 20 13 18 28 29 23 23
1750.0 30 29 21 22 26 24 26 19 19 17
1790.0 13 19 15 13 13 14 14 14 12 11
1830.0 8 7 12 10 5 5 8 16 15 7
1870.0 11 17 13 11 13 12 10 9 9 9
1910.0 6 6 8 6 8 8 6 7 8 8
1950.0 3 1 3 1 1 4 9 14 18 17
1990.0 17 18 13 9 16 27 24 21 25 25
2030.0 32 36 38 39 33 37 43 40 40 42
2070.0 41 40 41 40 48 60 77 99 129 172
2110.0 223 283 321 326 297 234 164 115 85 62
2150.0 52 46 34 30 35 31 25 25 27 27
2190.0 30 35 35 31 35 46 43 45 61 59
2230.0 59 59 46 40 30 29 29 30 31 28
2270.0 25 25 31 39 39 35 37 36 33 30
2310.0 24 15 14 21 25 27 25 20 22 23
2350.0 21 15 18 29 25 22 23 19 18 19
2390.0 18 15 14 15 14 14 15 19 21 24
2430.0 27 27 28 32 32 23 23 25 15 16
2470.0 15 15 15 14 16 16 15 7 0 3
2510.0 8 14 12 10 11 10 13 14 19 24
2550.0 21 25 30 30 41 52 59 68 71 74
2590.0 72 59 54 56 49 43 39 43 48 51
2630.0 59 70 77 82 91 101 109 111 116 122
2670.0 119 127 129 124 126 137 135 124 110 92
2710.0 82 83 84 81 81 92 105 113 125 141
2750.0 149 147 162 168 162 168 174 173 181 199
2790.0 210 225 248 259 276 304 338 382 429 493
2830.0 585 710 874 1094 1371 1693 2041 2396 2721 2966
2870.0 3103 3164 3171 3111 3013 2881 2743 2699 2824 3132
2910.0 3630 4343 5286 6438 7669 8828 9685 10000 9763 9100
2950.0 8214 7408 6910 6694 6539 6118 5328 4315 3291 2465
2990.0 1868 1435 1146 946 800 700 626 560 507 460
3030.0 410 376 348 317 291 276 256 238 215 195
3070.0 183 179 178 165 166 156 148 145 133 138
3110.0 127 118 127 121 109 101 102 100 91 93
3150.0 93 78 74 78 74 67 56 57 63 64
3190.0 77 73 64 57 51 48 50 56 56 57
3230.0 58 51 59 75 98 109 111 134 164 201
3270.0 236 266 333 439 533 609 695 840 1171 1491
3310.0 1700 1854 2023 2784 3447 3498 3084 1985 1149 788
3350.0 554 428 338 286 255 223 192 153 115 90
3390.0 77 63 41 40 40 46 51 40 30 36
3430.0 40 41 46 50 57 55 55 48 29 19
3470.0 18 16 17 25 30 28 28 36 30 22
3510.0 23 15 18 16 0 4 10 14 19 20
3550.0 19 12 18 22 23 23 13 9 1 4
3590.0 12 15 12 17 20 24 26 17 10 8
3630.0 14 18 16 22 31 41 39 23 21 20
3670.0 6 17 27 24 31 27 15 16 24 29
3710.0 26 21 12 21 42 32 28 30 31 32
3750.0 29 32 20 26 28 21 11 11 35 38
3790.0 24 17 12 20 29 20 9 15 30 27
3830.0 21 37 49 38 28
##END=
