##TITLE=2,6-Diiodo-4-nitroaniline
##JCAMP-DX=4.24
##DATA TYPE=INFRARED SPECTRUM
##ORIGIN=EPA-IR VAPOR PHASE LIBRARY
##OWNER=SRD/NIST
Collection (C) 2018 copyright by the U.S. Secretary of Commerce
on behalf of the United States of America. All rights reserved.
##CAS REGISTRY NO=5398-27-6
##MOLFORM=C 6 H 4 I 2 N 2 O 2
##$NIST SOURCE=MSDC-IR
##STATE=gas
##XUNITS=1/CM
##YUNITS=ABSORBANCE
##XFACTOR=1.
##YFACTOR=0.001
##DELTAX=3.85796
##FIRSTX=501.5
##LASTX=4000.7
##FIRSTY=1.22
##MAXX=4000.7
##MINX=501.534
##MAXY=0.02328
##MINY=0.0001527
##NPOINTS=908
##XYDATA=(X++(Y..Y))
501.534 1.22 1.24 1.07 0.8986 0.8473 1.03 1 0.9319 1.02 1.26
540.114 1.5 1.52 1.51 1.32 1.21 1.19 1 0.9214 0.7937 0.8144
578.693 0.8619 0.6487 0.6472 0.5776 0.4958 0.5925 0.5982 0.5316 0.5956 0.6371
617.273 0.5372 0.4889 0.5568 0.6864 0.6997 0.7101 0.7907 0.9361 1.08 1.15
655.852 1.41 1.86 2.6 3.41 3.76 3.44 2.6 1.91 1.72 1.65
694.432 1.6 1.96 2.79 3.49 3.45 2.81 2.25 1.99 1.95 2.11
733.011 2.37 2.45 2.12 1.65 1.24 1.07 1.03 0.9201 0.7126 0.6369
771.591 0.7168 0.7358 0.7509 0.7559 0.7021 0.615 0.6285 0.6558 0.6093 0.6849
810.170 0.83 1.01 1.23 1.32 1.24 1.14 1.13 1.12 1.11 1.2
848.750 1.17 1.05 0.9518 0.8882 0.8762 0.7981 0.7702 0.824 0.7886 0.9131
887.330 1.19 1.34 1.47 1.63 1.58 1.24 0.8002 0.5766 0.5365 0.5021
925.909 0.5049 0.4602 0.4167 0.4508 0.4153 0.347 0.3047 0.2862 0.3271 0.2904
964.489 0.2237 0.2858 0.3288 0.2876 0.2522 0.2434 0.2777 0.2426 0.2028 0.1527
1003.068 0.1829 0.3315 0.4182 0.4461 0.4508 0.4383 0.4228 0.4805 0.5682 0.6196
1041.648 0.7604 1.05 1.51 1.96 2.03 1.61 1.11 0.8174 0.6195 0.5953
1080.227 0.6245 0.5688 0.5785 0.7499 1.01 1.18 1.24 1.56 2.35 3.52
1118.807 4.59 4.69 3.51 2.1 1.24 0.7573 0.6549 0.7242 0.7612 0.8085
1157.387 0.7163 0.6837 0.7104 0.79 0.9069 0.975 1.09 1.14 1.26 1.42
1195.966 1.54 1.74 1.85 1.8 1.81 1.89 2.03 2.34 2.57 2.45
1234.546 2.1 1.84 1.84 1.92 1.9 1.86 1.95 2.16 2.23 2.09
1273.125 1.96 1.87 1.85 1.88 1.73 1.61 1.65 1.72 1.77 1.9
1311.705 2.17 2.64 3.35 4.49 6.48 10.03 15.35 20.81 23.28 20.68
1350.284 14.56 8.58 4.69 2.73 1.85 1.41 1.19 1.08 1.04 1.08
1388.864 1.18 1.27 1.32 1.32 1.34 1.34 1.28 1.19 1.18 1.3
1427.443 1.53 1.95 2.65 3.61 4.52 5.01 4.78 3.96 2.88 1.99
1466.023 1.46 1.23 1.18 1.2 1.16 1.06 0.9529 0.9032 0.9832 1.19
1504.603 1.51 2.09 3.25 5.27 8.41 12.06 13.84 11.75 7.18 3.61
1543.182 2.12 1.66 1.54 1.62 1.82 2.16 2.7 3.23 3.58 3.57
1581.762 3.12 2.54 2.25 2.44 3.18 4.41 5.88 7.32 8.22 8.09
1620.341 6.94 5.29 3.81 2.77 2.07 1.62 1.34 1.14 0.9989 0.9103
1658.921 0.8411 0.7837 0.7526 0.7097 0.6855 0.7213 0.7454 0.7266 0.7249 0.729
1697.500 0.7189 0.7145 0.6802 0.6591 0.6468 0.6429 0.6417 0.648 0.6476 0.597
1736.080 0.5907 0.5865 0.5376 0.5423 0.5388 0.5506 0.5795 0.5873 0.6121 0.6335
1774.659 0.6761 0.7365 0.7669 0.7862 0.7865 0.7466 0.6943 0.6358 0.5837 0.5445
1813.239 0.5354 0.5286 0.5313 0.5393 0.5226 0.5077 0.5022 0.4653 0.4634 0.4868
1851.819 0.4639 0.4601 0.4665 0.4651 0.4708 0.4442 0.4277 0.4127 0.4127 0.4214
1890.398 0.4235 0.4404 0.4286 0.4089 0.4047 0.4075 0.403 0.3971 0.3942 0.414
1928.978 0.4222 0.3795 0.3789 0.4149 0.4145 0.3839 0.3862 0.4022 0.3997 0.3958
1967.557 0.3868 0.407 0.4162 0.4115 0.4128 0.4279 0.4497 0.4437 0.4174 0.4301
2006.137 0.4566 0.451 0.4203 0.4077 0.4279 0.4089 0.3711 0.3511 0.3553 0.3758
2044.716 0.381 0.3852 0.385 0.3713 0.3591 0.374 0.4041 0.412 0.4181 0.3978
2083.296 0.3986 0.4248 0.4242 0.4307 0.4331 0.4285 0.4152 0.4146 0.4164 0.3846
2121.875 0.4051 0.4107 0.3912 0.3851 0.3733 0.381 0.3746 0.3948 0.3773 0.3584
2160.455 0.4061 0.4204 0.4099 0.4118 0.3969 0.4029 0.4236 0.3995 0.3545 0.3417
2199.035 0.3675 0.3733 0.3363 0.3422 0.3802 0.3801 0.3614 0.3761 0.4044 0.4107
2237.614 0.4082 0.3898 0.3929 0.3685 0.3517 0.3649 0.3792 0.4091 0.3966 0.3685
2276.194 0.3507 0.354 0.3578 0.3534 0.3582 0.3756 0.3743 0.3468 0.3404 0.3631
2314.773 0.3647 0.3636 0.3695 0.3869 0.4309 0.4523 0.4258 0.4099 0.4155 0.4156
2353.353 0.4328 0.424 0.4267 0.4448 0.4225 0.3895 0.3957 0.4119 0.3883 0.3992
2391.932 0.418 0.4127 0.4021 0.3892 0.4045 0.3889 0.3556 0.3646 0.3666 0.367
2430.512 0.3983 0.4142 0.431 0.4407 0.4069 0.4137 0.4416 0.4518 0.473 0.4913
2469.092 0.4794 0.4271 0.4073 0.4131 0.4178 0.4341 0.4657 0.4871 0.4827 0.4795
2507.671 0.5033 0.4912 0.4338 0.4133 0.4055 0.4221 0.4143 0.3993 0.4085 0.3849
2546.251 0.4001 0.4074 0.3963 0.391 0.381 0.3759 0.3727 0.4266 0.4595 0.4554
2584.830 0.4652 0.4764 0.5296 0.574 0.571 0.5996 0.6135 0.5919 0.5311 0.484
2623.410 0.4696 0.4225 0.3995 0.4357 0.4291 0.3479 0.3496 0.3721 0.3543 0.3874
2661.989 0.4255 0.4105 0.3718 0.3685 0.4122 0.381 0.3586 0.4192 0.4001 0.3898
2700.569 0.4141 0.3994 0.4176 0.4227 0.3964 0.3924 0.4091 0.4142 0.4039 0.397
2739.148 0.4131 0.4309 0.4567 0.4537 0.4129 0.3834 0.34 0.3412 0.3846 0.3849
2777.728 0.3635 0.3655 0.3565 0.3559 0.3507 0.3505 0.3924 0.3875 0.3839 0.3932
2816.308 0.3903 0.42 0.4284 0.4346 0.4491 0.4006 0.3659 0.4187 0.4604 0.5058
2854.887 0.5375 0.5511 0.5951 0.5784 0.5223 0.453 0.4201 0.4426 0.4885 0.5252
2893.467 0.5564 0.5658 0.5948 0.6434 0.5743 0.4889 0.4793 0.4395 0.4436 0.4896
2932.046 0.4632 0.4501 0.4361 0.4259 0.4359 0.4368 0.4622 0.4549 0.4734 0.4531
2970.626 0.4081 0.4238 0.4739 0.4714 0.4423 0.4604 0.3991 0.4389 0.4715 0.401
3009.205 0.4364 0.4766 0.4733 0.4731 0.4772 0.4829 0.5142 0.5718 0.5835 0.5531
3047.785 0.5383 0.5866 0.5776 0.467 0.4758 0.5438 0.5369 0.6283 0.8062 0.8811
3086.364 0.9398 0.9726 1.01 1.01 0.9064 0.8275 0.7097 0.6274 0.5455 0.4808
3124.944 0.5088 0.5513 0.5564 0.5523 0.5757 0.5548 0.4874 0.5287 0.5912 0.5608
3163.524 0.4754 0.4829 0.5651 0.4974 0.4696 0.5592 0.5491 0.5179 0.5783 0.5834
3202.103 0.5399 0.4933 0.5138 0.5503 0.5676 0.5889 0.5796 0.6182 0.5844 0.507
3240.683 0.5276 0.5642 0.5775 0.5855 0.5973 0.5726 0.5607 0.5874 0.6311 0.6495
3279.262 0.6289 0.634 0.6305 0.6462 0.6703 0.6962 0.6594 0.5994 0.5889 0.6035
3317.842 0.6116 0.6069 0.6022 0.5638 0.5964 0.6657 0.6973 0.6771 0.6689 0.7389
3356.421 0.882 0.9873 1.05 1.21 1.41 1.57 1.71 1.78 1.82 1.83
3395.001 1.96 2.24 2.43 2.39 1.98 1.46 1.09 0.9361 0.8892 0.855
3433.580 0.8782 0.8615 0.8654 0.9443 1.13 1.32 1.43 1.59 1.71 1.82
3472.160 2.02 2.09 2.07 2.05 1.94 1.86 1.94 2.16 2.47 2.86
3510.740 3.11 2.78 2.02 1.38 1.11 1.02 0.9633 0.9178 0.8513 0.8485
3549.319 0.8356 0.7878 0.7747 0.7607 0.7237 0.7484 0.7693 0.738 0.8065 0.8019
3587.899 0.7236 0.6964 0.6611 0.7097 0.713 0.7103 0.7254 0.7865 0.8513 0.8542
3626.478 0.8361 0.7576 0.6996 0.7039 0.7472 0.7997 0.7762 0.7798 0.8276 0.8293
3665.058 0.8716 0.8255 0.7997 0.762 0.7688 0.8264 0.7576 0.7087 0.7389 0.7863
3703.637 0.7934 0.7399 0.7287 0.805 0.8199 0.6964 0.6033 0.6094 0.6433 0.6927
3742.217 0.7227 0.7398 0.738 0.6952 0.6798 0.7281 0.7798 0.7847 0.7535 0.7021
3780.797 0.6748 0.7044 0.6944 0.7309 0.8025 0.7482 0.7035 0.7313 0.7638 0.8156
3819.376 0.8846 0.9266 0.9407 0.9109 0.7961 0.7333 0.8151 0.8324 0.7802 0.7
3857.956 0.7205 0.8036 0.8543 0.8796 0.8624 0.8516 0.7816 0.7111 0.742 0.7937
3896.535 0.7816 0.8352 0.8445 0.8166 0.8097 0.7952 0.8653 0.8946 0.837 0.8371
3935.115 0.8922 0.9652 0.9172 0.8388 0.827 0.8007 0.8101 0.842 0.8959 0.886
3973.694 0.8318 0.8293 0.799 0.766 0.8003 0.8303 0.8419 0.7868
##END=
