##TITLE=t-Butyl acetate
##JCAMP-DX=4.24
##DATA TYPE=INFRARED SPECTRUM
##ORIGIN=EPA-IR VAPOR PHASE LIBRARY
##OWNER=SRD/NIST
Collection (C) 2018 copyright by the U.S. Secretary of Commerce
on behalf of the United States of America. All rights reserved.
##CAS REGISTRY NO=540-88-5
##MOLFORM=C 6 H 12 O 2
##$NIST SOURCE=MSDC-IR
##STATE=gas
##XUNITS=1/CM
##YUNITS=ABSORBANCE
##XFACTOR=1.
##YFACTOR=0.001
##DELTAX=3.85796
##FIRSTX=501.5
##LASTX=4000.7
##FIRSTY=0.162
##MAXX=4000.7
##MINX=501.534
##MAXY=0.289673
##MINY=0
##NPOINTS=908
##XYDATA=(X++(Y..Y))
501.534 0.162 0.174 0.143 0.028 0.076 0.16 0.27 0.412 0.297 0.278
540.114 0.201 0.029 0.129 0.213 0.06 0 0.069 0.107 0.199 0.406
578.693 0.8237 1.4268 2.453 3.683 5.043 6.633 8.513 10.313 10.703 10.043
617.273 9.593 9.303 8.493 7.263 5.943 4.713 3.773 2.833 1.943 1.4252
655.852 1.2007 1.0679 0.9377 0.8679 0.9363 1.0011 1.0159 0.9879 0.9784 0.9952
694.432 0.96 0.9046 0.9116 0.9943 1.1572 1.3551 1.5378 1.703 1.973 2.403
733.011 3.043 4.103 5.533 7.093 8.453 9.323 9.623 9.303 8.483 7.063
771.591 5.233 3.703 2.803 2.313 2.063 2.103 2.283 2.593 3.113 3.903
810.170 4.983 6.543 8.843 11.753 14.933 17.943 20.243 21.373 20.983 19.213
848.750 16.303 12.553 8.833 6.013 4.293 3.343 2.823 2.603 2.593 2.783
887.330 3.153 3.743 4.723 6.173 8.143 10.543 13.073 15.783 18.883 22.553
925.909 26.773 30.183 31.693 31.823 30.493 27.503 23.243 17.633 12.683 10.183
964.489 9.553 10.083 11.423 13.353 15.693 18.423 21.673 25.623 30.433 36.263
1003.068 42.923 49.653 55.113 58.273 58.943 56.653 51.463 44.043 35.963 29.393
1041.648 24.973 22.363 20.883 20.203 20.043 20.163 20.403 20.753 21.153 21.383
1080.227 21.453 21.093 20.543 20.023 19.283 18.553 17.963 17.663 17.923 18.793
1118.807 20.393 23.043 27.173 33.283 41.923 53.733 69.073 87.803 109.243 133.203
1157.387 159.393 187.213 214.613 238.253 253.983 258.573 250.153 228.143 195.063 154.583
1195.966 114.013 82.893 64.473 56.063 54.333 57.603 65.773 79.923 101.683 131.673
1234.546 168.583 208.613 245.623 273.483 288.713 289.673 274.553 244.863 206.273 167.863
1273.125 135.563 108.203 84.173 63.963 47.593 34.883 25.423 18.713 14.333 11.643
1311.705 10.063 9.213 8.843 8.953 9.513 10.713 12.823 16.393 22.163 31.623
1350.284 46.423 66.923 89.873 111.343 129.713 143.253 145.953 132.843 112.903 94.603
1388.864 77.163 62.213 51.013 41.913 35.833 29.713 22.253 17.163 14.793 14.063
1427.443 14.263 15.083 16.373 18.113 20.023 21.853 23.473 24.793 25.603 25.923
1466.023 25.783 25.143 24.143 22.913 21.473 19.783 17.923 16.013 14.083 12.323
1504.603 10.843 9.583 8.593 7.823 7.213 6.713 6.323 6.003 5.773 5.633
1543.182 5.583 5.613 5.743 5.933 6.143 6.383 6.523 6.553 6.483 6.293
1581.762 5.973 5.563 5.173 4.823 4.523 4.323 4.193 4.103 4.093 4.163
1620.341 4.293 4.463 4.663 4.893 5.143 5.493 5.893 6.343 6.863 7.453
1658.921 8.143 8.953 9.843 10.783 11.683 12.583 13.513 14.503 15.603 16.893
1697.500 18.413 20.263 22.483 25.273 29.153 35.033 43.993 57.743 78.783 109.033
1736.080 149.013 194.193 237.723 269.133 280.993 278.183 256.713 211.443 157.713 107.413
1774.659 67.963 41.883 26.503 18.183 13.753 11.253 9.723 8.773 8.233 7.933
1813.239 7.783 7.763 7.783 7.823 7.823 7.703 7.433 7.083 6.753 6.463
1851.819 6.203 6.023 5.893 5.773 5.623 5.463 5.253 4.963 4.633 4.253
1890.398 3.823 3.423 3.063 2.773 2.583 2.433 2.333 2.273 2.273 2.293
1928.978 2.313 2.313 2.243 2.133 2.023 1.883 1.753 1.653 1.583 1.5376
1967.557 1.5375 1.583 1.683 1.823 1.983 2.153 2.313 2.463 2.553 2.553
2006.137 2.553 2.473 2.293 2.073 1.863 1.663 1.4623 1.2875 1.1517 1.0923
2044.716 1.0507 1.0058 1.0246 1.0812 1.1639 1.2871 1.4142 1.553 1.703 1.833
2083.296 1.933 1.993 2.043 2.023 1.923 1.783 1.683 1.573 1.4688 1.3952
2121.875 1.3166 1.261 1.1965 1.1201 1.1259 1.1388 1.1166 1.1467 1.1958 1.2932
2160.455 1.4138 1.4988 1.563 1.613 1.653 1.693 1.683 1.663 1.623 1.593
2199.035 1.563 1.4992 1.4489 1.3585 1.2201 1.1095 0.9973 0.8853 0.8171 0.7545
2237.614 0.7115 0.7109 0.7413 0.7824 0.8304 0.8977 0.9735 1.0357 1.111 1.2158
2276.194 1.3468 1.4556 1.5358 1.623 1.723 1.773 1.753 1.703 1.653 1.583
2314.773 1.4737 1.3126 1.1605 1.0061 0.8576 0.7744 0.7161 0.6593 0.61521 0.58716
2353.353 0.55904 0.55906 0.57653 0.59967 0.63919 0.6929 0.7324 0.7843 0.8708 0.9362
2391.932 0.9956 1.0482 1.0623 1.0676 1.0791 1.0814 1.0668 1.0189 0.9715 0.9601
2430.512 0.9283 0.8456 0.7655 0.7465 0.7121 0.6797 0.6883 0.7203 0.7585 0.8017
2469.092 0.8391 0.8916 0.9933 1.0793 1.1714 1.268 1.3552 1.427 1.4414 1.4205
2507.671 1.3944 1.3539 1.2265 1.0598 0.9689 0.8887 0.8069 0.7527 0.6899 0.63718
2546.251 0.58391 0.5277 0.5001 0.4844 0.4667 0.4732 0.4976 0.5012 0.4805 0.5231
2584.830 0.59285 0.6888 0.814 0.8758 0.9298 0.9789 1.0164 1.0882 1.1661 1.2307
2623.410 1.2953 1.3059 1.2561 1.2333 1.2497 1.2234 1.1607 1.1244 1.0823 1.0788
2661.989 1.1188 1.1199 1.159 1.2515 1.3076 1.3535 1.4071 1.4602 1.4846 1.4607
2700.569 1.4094 1.3751 1.3558 1.3867 1.501 1.583 1.683 1.813 1.903 1.913
2739.148 1.903 1.873 1.773 1.723 1.733 1.733 1.753 1.773 1.793 1.883
2777.728 2.003 2.123 2.203 2.273 2.333 2.453 2.603 2.733 2.933 3.173
2816.308 3.403 3.673 3.923 4.163 4.373 4.613 4.943 5.473 6.143 6.953
2854.887 7.973 9.133 10.503 12.083 13.723 15.403 17.103 18.743 20.263 21.673
2893.467 23.043 24.443 25.863 27.233 28.713 30.463 32.593 35.583 39.713 44.563
2932.046 49.273 53.423 56.513 57.863 57.683 56.803 56.573 58.643 63.993 72.633
2970.626 84.263 98.343 109.193 116.203 117.443 106.243 91.753 77.123 61.123 47.923
3009.205 38.743 32.623 28.113 24.133 19.953 16.003 12.833 10.613 9.133 8.253
3047.785 7.683 7.273 6.933 6.683 6.473 6.263 6.043 5.873 5.733 5.593
3086.364 5.473 5.333 5.163 5.043 4.843 4.603 4.383 4.083 3.823 3.593
3124.944 3.383 3.223 3.133 3.063 2.913 2.793 2.733 2.693 2.683 2.673
3163.524 2.643 2.633 2.613 2.533 2.533 2.553 2.483 2.413 2.413 2.393
3202.103 2.313 2.293 2.323 2.303 2.203 2.113 2.043 2.023 1.963 1.883
3240.683 1.833 1.753 1.593 1.4204 1.3457 1.2597 1.1149 0.9942 0.982 0.9429
3279.262 0.879 0.947 1.0155 1.0407 1.0336 0.9915 0.9963 1.028 1.0338 0.9747
3317.842 0.881 0.883 0.8796 0.8255 0.8367 0.8454 0.8516 0.8468 0.827 0.7528
3356.421 0.7066 0.7448 0.7416 0.7357 0.7275 0.7816 0.7944 0.7259 0.685 0.7775
3395.001 0.8098 0.7621 0.7941 0.8093 0.7911 0.8529 0.8996 0.9888 1.0929 1.1795
3433.580 1.2968 1.3113 1.4149 1.573 1.673 1.753 1.903 2.133 2.353 2.513
3472.160 2.803 3.083 3.273 3.423 3.403 3.213 2.933 2.603 2.133 1.783
3510.740 1.4912 1.1298 0.9709 0.9598 0.9124 0.7639 0.666 0.63662 0.57449 0.55315
3549.319 0.58272 0.548916 0.485 0.543513 0.58015 0.57168 0.59474 0.61727 0.60442 0.547149
3587.899 0.5125 0.56956 0.6775 0.63479 0.53896 0.4586 0.4645 0.4995 0.4447 0.396
3626.478 0.352 0.4 0.4525 0.4593 0.432 0.403 0.432 0.438 0.41 0.4444
3665.058 0.4659 0.456 0.4584 0.4805 0.55433 0.5328 0.4509 0.4531 0.44 0.378
3703.637 0.349 0.314 0.325 0.353 0.34 0.379 0.414 0.405 0.419 0.405
3742.217 0.384 0.416 0.4551 0.466 0.4816 0.4506 0.417 0.4568 0.4798 0.4812
3780.797 0.4861 0.4438 0.4531 0.52 0.5567 0.59122 0.60891 0.64171 0.6683 0.6205
3819.376 0.58925 0.5709 0.60921 0.6516 0.59327 0.548697 0.6104 0.6942 0.7014 0.6672
3857.956 0.6485 0.7079 0.7435 0.7557 0.7608 0.7703 0.8063 0.8001 0.789 0.8493
3896.535 0.8525 0.8231 0.8407 0.8235 0.868 0.9991 1.0067 0.948 0.9683 1.0102
3935.115 1.0274 0.9891 0.9979 1.0011 0.9946 1.0084 1.0085 1.0794 1.1231 1.1021
3973.694 1.1296 1.1278 1.0845 1.0679 1.0397 1.0061 1.0527 1.0641
##END=
