##TITLE=4-t-Butylcyclohexylamine,(c,t)
##JCAMP-DX=4.24
##DATA TYPE=INFRARED SPECTRUM
##ORIGIN=EPA-IR VAPOR PHASE LIBRARY
##OWNER=SRD/NIST
Collection (C) 2018 copyright by the U.S. Secretary of Commerce
on behalf of the United States of America. All rights reserved.
##CAS REGISTRY NO=5400-88-4
##MOLFORM=C 10 H 21 N
##$NIST SOURCE=MSDC-IR
##STATE=gas
##XUNITS=1/CM
##YUNITS=ABSORBANCE
##XFACTOR=1.
##YFACTOR=0.001
##DELTAX=1.92934
##FIRSTX=549.9
##LASTX=3999.5
##FIRSTY=0.2249
##MAXX=3999.53
##MINX=549.863
##MAXY=0.005291
##MINY=0
##NPOINTS=1789
##XYDATA=(X++(Y..Y))
549.863 0.2249 0.2378 0.2228 0.2575 0.2233 0.2123 0.2827 0.2706 0.3305 0.3898
569.156 0.3671 0.2769 0.2203 0.3037 0.3199 0.259 0.2886 0.3289 0.3293 0.3693
588.450 0.4133 0.3517 0.2433 0.2116 0.2372 0.3021 0.3058 0.2876 0.3095 0.3019
607.743 0.3373 0.2943 0.2377 0.2704 0.2956 0.2428 0.178 0.2295 0.3016 0.3021
627.037 0.2534 0.2696 0.3049 0.3178 0.2887 0.2712 0.3078 0.3438 0.3715 0.3481
646.330 0.3198 0.3167 0.2918 0.2961 0.3204 0.2933 0.2683 0.319 0.3051 0.2696
665.624 0.2822 0.2662 0.2947 0.3246 0.3275 0.3022 0.3448 0.3697 0.345 0.3237
684.917 0.3265 0.3234 0.3352 0.3931 0.3808 0.3438 0.3318 0.3337 0.3441 0.3608
704.210 0.3623 0.4001 0.4101 0.3476 0.3047 0.3491 0.4152 0.4267 0.4128 0.41
723.504 0.4661 0.4914 0.481 0.4611 0.4873 0.5391 0.5564 0.5804 0.6214 0.6543
742.797 0.7011 0.716 0.7098 0.7227 0.73 0.7454 0.7565 0.8053 0.8261 0.8735
762.091 0.9131 0.9073 0.9329 1.0023 1.0486 1.0339 1.061 1.081 1.081 1.061
781.384 0.9999 0.9677 0.9358 0.8655 0.8343 0.8558 0.8496 0.8495 0.9078 0.8963
800.678 0.8416 0.8423 0.8302 0.7569 0.7354 0.7531 0.6758 0.6337 0.59 0.5253
819.971 0.5445 0.5238 0.4908 0.4657 0.422 0.4136 0.4236 0.4152 0.4042 0.424
839.264 0.447 0.3991 0.3524 0.3805 0.3931 0.3851 0.4 0.3972 0.3862 0.3808
858.558 0.3583 0.3464 0.3384 0.3231 0.3253 0.3353 0.3468 0.3655 0.3689 0.3383
877.851 0.3143 0.3202 0.3425 0.3483 0.3561 0.3633 0.3475 0.3365 0.3618 0.3919
897.145 0.3854 0.3693 0.3426 0.351 0.3544 0.3149 0.3224 0.3503 0.3889 0.4038
916.438 0.3615 0.3459 0.3427 0.3042 0.2851 0.3102 0.3277 0.3229 0.2947 0.2915
935.732 0.2987 0.3284 0.3242 0.2912 0.3099 0.2982 0.2712 0.2942 0.3165 0.2896
955.025 0.2579 0.2385 0.2418 0.2623 0.2742 0.2964 0.2902 0.273 0.2912 0.2994
974.318 0.3056 0.288 0.2631 0.2879 0.2794 0.2537 0.2613 0.2645 0.2858 0.275
993.612 0.2563 0.2496 0.239 0.2472 0.2291 0.2185 0.2292 0.2612 0.287 0.2867
1012.905 0.3083 0.3047 0.2716 0.262 0.2864 0.289 0.2805 0.285 0.2682 0.2834
1032.199 0.3119 0.2922 0.2812 0.2975 0.3092 0.2965 0.2751 0.297 0.3162 0.3051
1051.492 0.2954 0.3021 0.3139 0.3315 0.3204 0.3018 0.3177 0.3236 0.3374 0.3703
1070.786 0.4008 0.4387 0.4881 0.5493 0.6123 0.6557 0.6945 0.7606 0.8257 0.8689
1090.079 0.8654 0.8476 0.7977 0.7309 0.6979 0.6165 0.5394 0.4699 0.3857 0.3509
1109.372 0.3442 0.3049 0.2868 0.2863 0.2926 0.3019 0.2608 0.262 0.2934 0.2757
1128.666 0.2634 0.2715 0.2563 0.2332 0.2447 0.2407 0.2418 0.2998 0.3387 0.3359
1147.959 0.3228 0.2789 0.2483 0.2933 0.3359 0.3277 0.3184 0.3338 0.327 0.3286
1167.253 0.3153 0.298 0.3126 0.2994 0.3188 0.3547 0.3312 0.3398 0.358 0.341
1186.546 0.3501 0.3739 0.4064 0.4009 0.3824 0.325 0.2741 0.2837 0.3267 0.3807
1205.840 0.3744 0.3599 0.3456 0.3075 0.3129 0.3223 0.319 0.3799 0.4311 0.4306
1225.133 0.4604 0.4702 0.4768 0.5208 0.5452 0.5491 0.5296 0.4752 0.4102 0.403
1244.426 0.3507 0.3369 0.385 0.3379 0.307 0.299 0.2759 0.286 0.3079 0.2766
1263.720 0.2395 0.2732 0.286 0.2767 0.2944 0.274 0.2369 0.2363 0.288 0.3025
1283.013 0.2737 0.2611 0.2599 0.2703 0.2415 0.2497 0.293 0.3101 0.3416 0.3579
1302.307 0.3362 0.3022 0.2822 0.2925 0.2813 0.3009 0.3236 0.3091 0.3237 0.3133
1321.600 0.3088 0.3178 0.292 0.283 0.3123 0.3217 0.3234 0.3257 0.3138 0.2997
1340.894 0.3074 0.3274 0.3517 0.3848 0.4258 0.4676 0.4973 0.5657 0.6533 0.721
1360.187 0.7606 0.8008 0.8763 0.9484 0.9858 1.0072 1.0142 0.9866 0.9367 0.892
1379.480 0.8312 0.7662 0.6977 0.6481 0.6471 0.6519 0.6524 0.6403 0.6318 0.6303
1398.774 0.6091 0.5947 0.5726 0.5009 0.4259 0.3793 0.3557 0.3432 0.3278 0.3045
1418.067 0.3062 0.3091 0.3025 0.3103 0.3253 0.3454 0.3646 0.401 0.4283 0.4293
1437.361 0.4406 0.4944 0.5417 0.5962 0.6409 0.6368 0.645 0.6931 0.7286 0.7188
1456.654 0.6884 0.6739 0.6787 0.6857 0.6926 0.6675 0.6617 0.679 0.7052 0.7145
1475.948 0.7014 0.7181 0.721 0.7055 0.7006 0.664 0.6105 0.533 0.449 0.4123
1495.241 0.3912 0.3805 0.3687 0.3219 0.3086 0.3208 0.2839 0.273 0.266 0.2404
1514.534 0.229 0.2474 0.2383 0.2066 0.2119 0.2396 0.2532 0.2584 0.2671 0.2608
1533.828 0.2635 0.2635 0.2619 0.2645 0.2356 0.2138 0.202 0.2131 0.2353 0.2583
1553.121 0.2654 0.2731 0.2985 0.2601 0.2538 0.2606 0.2553 0.2669 0.2537 0.2625
1572.415 0.2761 0.2862 0.2759 0.2521 0.2763 0.3027 0.312 0.3163 0.3224 0.3449
1591.708 0.3663 0.3622 0.3932 0.4172 0.4163 0.4194 0.4201 0.4583 0.5019 0.5386
1611.002 0.5721 0.5845 0.595 0.6301 0.6455 0.6081 0.5831 0.5797 0.5392 0.5045
1630.295 0.4941 0.4731 0.4169 0.3696 0.3351 0.3122 0.3042 0.2705 0.2662 0.2552
1649.588 0.2584 0.3058 0.2941 0.2688 0.2752 0.2724 0.2557 0.2325 0.2199 0.2027
1668.882 0.2198 0.2689 0.2674 0.2307 0.2278 0.2481 0.24 0.23 0.2207 0.1999
1688.175 0.209 0.2241 0.2269 0.2259 0.2309 0.2281 0.2059 0.1969 0.1985 0.2378
1707.469 0.2346 0.2077 0.2123 0.202 0.1987 0.1667 0.15807 0.1992 0.2151 0.2079
1726.762 0.2094 0.2363 0.2428 0.2019 0.1646 0.1839 0.1846 0.1748 0.1988 0.1834
1746.056 0.1764 0.1856 0.1682 0.1716 0.1882 0.1913 0.2044 0.1811 0.166 0.1953
1765.349 0.1915 0.1929 0.2155 0.2331 0.2188 0.1872 0.1914 0.1844 0.1744 0.1893
1784.642 0.1931 0.2009 0.2141 0.1891 0.185 0.2175 0.2087 0.1916 0.2002 0.1948
1803.936 0.1909 0.1873 0.1907 0.1957 0.1747 0.1853 0.1922 0.1807 0.15719 0.1821
1823.229 0.1959 0.1818 0.1958 0.1886 0.1949 0.192 0.1745 0.1605 0.168 0.1729
1842.523 0.1815 0.1879 0.168 0.1749 0.1859 0.174 0.15554 0.1746 0.1701 0.13954
1861.816 0.1666 0.1865 0.1793 0.171 0.15729 0.15494 0.1624 0.167 0.1764 0.1882
1881.110 0.181 0.1817 0.1829 0.1818 0.1939 0.1684 0.1666 0.1922 0.1906 0.1824
1900.403 0.1726 0.1781 0.1723 0.1628 0.1751 0.1616 0.1661 0.1939 0.1835 0.1827
1919.696 0.1778 0.1697 0.15523 0.1625 0.1728 0.1723 0.1709 0.13579 0.13973 0.14291
1938.990 0.1503 0.15065 0.14741 0.1733 0.15515 0.13534 0.13993 0.1723 0.1941 0.1675
1958.283 0.1577 0.15993 0.1604 0.15991 0.15381 0.13896 0.14379 0.15846 0.1657 0.1715
1977.577 0.1681 0.1656 0.15639 0.15115 0.1625 0.15737 0.1687 0.1785 0.1699 0.1758
1996.870 0.1808 0.1706 0.15839 0.15836 0.1636 0.1638 0.15509 0.15159 0.13537 0.13358
2016.164 0.14989 0.15292 0.15229 0.13243 0.13225 0.1495 0.15959 0.1647 0.1568 0.173
2035.457 0.1834 0.15386 0.15485 0.15828 0.12955 0.12608 0.15927 0.15321 0.12473 0.11799
2054.750 0.12603 0.14752 0.1632 0.15962 0.14112 0.14626 0.14881 0.14645 0.15417 0.1611
2074.044 0.1564 0.15701 0.1612 0.14521 0.14244 0.14855 0.15459 0.14964 0.1475 0.1676
2093.337 0.15525 0.13825 0.14231 0.1639 0.1614 0.1645 0.1714 0.16062 0.15382 0.1612
2112.631 0.15626 0.16055 0.1687 0.15852 0.15064 0.14116 0.13838 0.14245 0.15942 0.14994
2131.924 0.12326 0.11725 0.12942 0.13677 0.12534 0.11305 0.13111 0.13234 0.13694 0.1508
2151.218 0.14688 0.13087 0.1227 0.1383 0.14831 0.13436 0.13081 0.12097 0.12636 0.15966
2170.511 0.15803 0.14618 0.13854 0.12575 0.13437 0.13603 0.1331 0.14397 0.14139 0.12226
2189.804 0.12166 0.14318 0.14615 0.14485 0.13522 0.13528 0.14289 0.13838 0.14158 0.13876
2209.098 0.13273 0.13433 0.12566 0.10727 0.1057 0.11823 0.12887 0.12901 0.14122 0.15774
2228.391 0.1678 0.15313 0.12595 0.13856 0.14843 0.15735 0.15317 0.12687 0.12844 0.13915
2247.685 0.14047 0.14861 0.15255 0.15492 0.14005 0.1334 0.14737 0.14101 0.15662 0.1695
2266.978 0.15443 0.15356 0.14442 0.14416 0.14891 0.14071 0.11518 0.10116 0.13845 0.13619
2286.272 0.14245 0.1684 0.14127 0.1406 0.14461 0.11861 0.10889 0.12405 0.12124 0.12108
2305.565 0.13551 0.12766 0.12875 0.13539 0.11065 0.08363 0.08742 0.10647 0.13 0.12495
2324.858 0.1055 0.09313 0.09581 0.10804 0.11962 0.13053 0.15257 0.1502 0.10497 0.08659
2344.152 0.10168 0.13146 0.13752 0.14223 0.1613 0.14766 0.10067 0.09945 0.12686 0.10389
2363.445 0.07714 0.10718 0.12564 0.11246 0.12421 0.13525 0.1448 0.13761 0.11655 0.13811
2382.739 0.13285 0.12526 0.11952 0.10467 0.12737 0.15228 0.1768 0.1655 0.15204 0.15354
2402.032 0.11302 0.10987 0.15498 0.14834 0.12367 0.1024 0.11429 0.13713 0.11978 0.10967
2421.326 0.11757 0.12622 0.12317 0.14218 0.15701 0.13331 0.14246 0.14029 0.12027 0.10184
2440.619 0.0993 0.13437 0.12982 0.11358 0.12848 0.12333 0.11846 0.12457 0.10673 0.10757
2459.912 0.14556 0.1654 0.1551 0.13897 0.12766 0.1226 0.11518 0.11342 0.11182 0.12202
2479.206 0.14212 0.13346 0.11237 0.11799 0.12055 0.11813 0.10917 0.0993 0.13333 0.13758
2498.499 0.12305 0.13106 0.12248 0.14865 0.1693 0.15422 0.11516 0.08958 0.11167 0.13909
2517.793 0.15163 0.13088 0.12134 0.11405 0.12963 0.1643 0.14128 0.0942 0.09243 0.10938
2537.086 0.12335 0.13626 0.15705 0.1543 0.13213 0.12495 0.10223 0.11756 0.1598 0.1659
2556.380 0.15112 0.14388 0.13282 0.12545 0.11375 0.0972 0.10252 0.10306 0.12141 0.14909
2575.673 0.14787 0.13318 0.14416 0.15036 0.13191 0.13978 0.15997 0.1855 0.1682 0.1445
2594.966 0.1867 0.2067 0.15544 0.12244 0.13896 0.1874 0.2029 0.15211 0.11766 0.14127
2614.260 0.12017 0.09443 0.14871 0.1918 0.1984 0.204 0.207 0.198 0.1816 0.1936
2633.553 0.1951 0.1846 0.1797 0.14461 0.14983 0.1819 0.1728 0.1617 0.1901 0.1652
2652.847 0.1686 0.1998 0.2106 0.2242 0.1698 0.14522 0.1799 0.192 0.184 0.1893
2672.140 0.2323 0.2546 0.2462 0.2395 0.2185 0.1922 0.1401 0.12201 0.14847 0.1628
2691.434 0.1877 0.1803 0.1468 0.1816 0.1884 0.14411 0.15688 0.2022 0.2202 0.204
2710.727 0.1825 0.2298 0.2702 0.2646 0.2124 0.1898 0.1893 0.1808 0.1932 0.2016
2730.020 0.2007 0.1968 0.2304 0.2182 0.1833 0.13992 0.14799 0.1922 0.1611 0.12543
2749.314 0.15992 0.1908 0.1877 0.1688 0.1736 0.1832 0.1836 0.1955 0.2052 0.1847
2768.607 0.15302 0.1848 0.2094 0.1938 0.1989 0.2194 0.1947 0.202 0.2282 0.2134
2787.901 0.1998 0.2089 0.2435 0.2468 0.2326 0.2352 0.2525 0.2599 0.2376 0.2221
2807.194 0.2967 0.3311 0.344 0.3653 0.3552 0.3687 0.3861 0.4137 0.4283 0.4255
2826.488 0.4826 0.5536 0.6014 0.6268 0.681 0.7781 0.8475 0.949 1.071 1.241
2845.781 1.431 1.591 1.761 1.911 2.011 2.141 2.241 2.321 2.381 2.391
2865.074 2.411 2.351 2.301 2.221 2.121 2.081 2.061 1.991 1.901 1.841
2884.368 1.771 1.741 1.721 1.771 1.841 1.851 1.881 1.951 2.131 2.301
2903.661 2.371 2.541 2.731 2.891 3.151 3.441 3.711 3.971 4.161 4.301
2922.955 4.471 4.571 4.491 4.411 4.321 4.241 4.221 4.221 4.291 4.461
2942.248 4.511 4.531 4.701 4.791 4.891 5.021 5.151 5.251 5.291 5.231
2961.542 5.131 5.011 4.801 4.591 4.291 3.961 3.591 3.201 2.811 2.451
2980.835 2.121 1.781 1.511 1.231 1.0036 0.8573 0.6907 0.5577 0.467 0.4067
3000.128 0.4237 0.4399 0.3877 0.3462 0.3294 0.2889 0.2518 0.221 0.2491 0.2311
3019.422 0.1706 0.1666 0.2351 0.2766 0.2307 0.2101 0.2268 0.2718 0.2569 0.1966
3038.715 0.1929 0.1782 0.15514 0.1657 0.1884 0.14277 0.11618 0.15559 0.2048 0.2388
3058.009 0.1899 0.1887 0.15377 0.13601 0.2221 0.2099 0.2158 0.2392 0.1772 0.14675
3077.302 0.2546 0.3119 0.2716 0.2791 0.1786 0.14548 0.1671 0.14122 0.15487 0.12224
3096.596 0.1624 0.1917 0.1721 0.13482 0.12324 0.12834 0.10757 0.062359 0.05776 0.1641
3115.889 0.1797 0.11545 0.05524 0.10328 0.12414 0.10315 0.2005 0.2987 0.2787 0.2009
3135.182 0.13032 0.15488 0.14652 0.0419 0.13222 0.2079 0.1914 0.1863 0.1825 0.1697
3154.476 0.1982 0.3044 0.2896 0.2511 0.2414 0.1709 0.2043 0.2637 0.2277 0.2006
3173.769 0.2229 0.1697 0.11708 0.179 0.2305 0.1665 0.13766 0.2106 0.2258 0.2048
3193.063 0.14936 0.15493 0.1719 0.12205 0.15065 0.14991 0.14511 0.12556 0.15374 0.2108
3212.356 0.15828 0.2048 0.2191 0.1764 0.1758 0.2028 0.2332 0.2739 0.2771 0.2372
3231.650 0.2094 0.1957 0.1741 0.1953 0.2012 0.1704 0.1875 0.11593 0.09906 0.12687
3250.943 0.10629 0.1879 0.2541 0.2115 0.2018 0.1834 0.13787 0.1677 0.1722 0.1618
3270.236 0.15904 0.0853 0.12609 0.2494 0.2932 0.2277 0.13886 0.11562 0.15371 0.2279
3289.530 0.3092 0.2889 0.2069 0.1729 0.1875 0.2326 0.2005 0.14222 0.1479 0.16098
3308.823 0.2208 0.2484 0.1668 0.1785 0.2351 0.1736 0.1776 0.2291 0.1761 0.224
3328.117 0.2404 0.2338 0.2414 0.1992 0.167 0.13555 0.1897 0.195 0.2002 0.2937
3347.410 0.3427 0.317 0.2963 0.2336 0.1759 0.2631 0.2474 0.1794 0.2173 0.3258
3366.704 0.334 0.2366 0.2895 0.302 0.2487 0.1803 0.13097 0.2011 0.27 0.2915
3385.997 0.2516 0.11735 0 0.0406 0.1337 0.1913 0.1929 0.189 0.1976 0.1972
3405.290 0.2394 0.1883 0.1924 0.2811 0.2583 0.2004 0.16046 0.13838 0.10886 0.15437
3424.584 0.1801 0.11536 0.1849 0.2606 0.2655 0.2273 0.2117 0.3065 0.2585 0.15337
3443.877 0.1924 0.2444 0.2715 0.1933 0.1642 0.2386 0.2041 0.2174 0.2423 0.1739
3463.171 0.1859 0.188 0.1902 0.2139 0.2085 0.2013 0.1861 0.15199 0.15433 0.13028
3482.464 0.13201 0.1768 0.162 0.1883 0.1649 0.1796 0.2097 0.2164 0.1715 0.1648
3501.758 0.16039 0.05429 0.0087 0.062391 0.1739 0.1967 0.1886 0.2461 0.27 0.2046
3521.051 0.13678 0.12759 0.12299 0.10849 0.10575 0.11042 0.1738 0.175 0.1036 0.11844
3540.344 0.1616 0.16013 0.2318 0.2691 0.2304 0.2301 0.1856 0.1623 0.1624 0.07536
3559.638 0.07427 0.12612 0.13573 0.2075 0.1865 0.10899 0.1834 0.2567 0.1761 0.07154
3578.931 0.060537 0.11296 0.1732 0.1991 0.12996 0.09089 0.1282 0.15142 0.14336 0.11249
3598.225 0.09573 0.09338 0.14293 0.1653 0.09449 0.08476 0.15538 0.13897 0.09957 0.0466
3617.518 0.0423 0.1113 0.10962 0.070101 0.07829 0.1591 0.179 0.144 0.1887 0.2947
3636.812 0.2838 0.1819 0.13182 0.11403 0.09939 0.09214 0.09233 0.12763 0.11437 0.10627
3656.105 0.16082 0.2047 0.2082 0.14222 0.05993 0.0479 0.1233 0.13901 0.1272 0.12733
3675.398 0.14801 0.2216 0.2017 0.1702 0.21 0.2378 0.2213 0.1741 0.1764 0.2318
3694.692 0.2332 0.2195 0.2135 0.1731 0.14099 0.15446 0.1522 0.14058 0.14266 0.1764
3713.985 0.1856 0.13553 0.09344 0.067387 0.08347 0.14535 0.1792 0.10653 0.069032 0.12073
3733.279 0.14501 0.0864 0.05515 0.14023 0.1741 0.08996 0.062516 0.11341 0.09506 0.09115
3752.572 0.09738 0.1067 0.1506 0.1837 0.1837 0.177 0.1754 0.13543 0.14489 0.12015
3771.866 0.07105 0.05933 0.09892 0.16044 0.1466 0.11201 0.1647 0.1838 0.11505 0.10246
3791.159 0.11338 0.1892 0.1891 0.13468 0.14285 0.11899 0.08279 0.09245 0.0935 0.09718
3810.452 0.11933 0.11079 0.1731 0.1726 0.111 0.10835 0.0889 0.07192 0.12623 0.1907
3829.746 0.1663 0.11486 0.11195 0.13256 0.14173 0.1654 0.1642 0.11829 0.068855 0.060338
3849.039 0.07606 0.0878 0.12959 0.10387 0.09983 0.13284 0.1696 0.18 0.1626 0.2077
3868.333 0.231 0.15572 0.11046 0.11089 0.068793 0.05203 0.08498 0.14905 0.1785 0.1866
3887.626 0.1689 0.09188 0.0918 0.1677 0.1947 0.1745 0.13682 0.14232 0.1865 0.13626
3906.920 0.09199 0.14349 0.1754 0.15539 0.13349 0.13869 0.1763 0.1721 0.10579 0.12669
3926.213 0.1826 0.11619 0.128 0.14864 0.1198 0.15028 0.1325 0.10641 0.11201 0.15009
3945.506 0.14666 0.14741 0.15587 0.13208 0.09018 0.10023 0.13998 0.13297 0.15786 0.1857
3964.800 0.14589 0.05883 0.067586 0.12045 0.10948 0.12541 0.14601 0.14547 0.14861 0.13956
3984.093 0.12858 0.15904 0.1731 0.14094 0.11556 0.12879 0.1684 0.178 0.14014
##END=
