##TITLE=4-Chloro-2,4-dimethylhexane
##JCAMP-DX=4.24
##DATA TYPE=INFRARED SPECTRUM
##ORIGIN=NIST Mass Spectrometry Data Center
##OWNER=NIST Standard Reference Data Program
Collection (C) 2018 copyright by the U.S. Secretary of Commerce
on behalf of the United States of America. All rights reserved.
##CAS REGISTRY NO=54059-76-6
##MOLFORM=C 8 H 17 Cl
##$NIST SOURCE=MSDC-IR
##SPECTROMETER/DATA SYSTEM=HP-GC/MS/IRD
##STATE=gas
##XUNITS=1/CM
##YUNITS=ABSORBANCE
##XFACTOR=1.0
##YFACTOR=0.000002200
##DELTAX=4.0
##FIRSTX=550.0
##LASTX=3846.0
##FIRSTY=0.000667
##MAXX=3846
##MINX=550
##MAXY=0.022
##MINY=0
##NPOINTS=825
##XYDATA=(X++(Y..Y))
550.0 303 283 294 308 394 474 455 478 535 577
590.0 543 457 424 411 414 443 488 527 581 586
630.0 529 427 325 243 171 113 68 54 64 62
670.0 33 14 32 33 16 27 38 52 53 30
710.0 18 48 59 46 44 42 43 74 107 119
750.0 144 177 215 226 242 266 281 304 345 391
790.0 421 467 489 500 509 464 393 362 353 334
830.0 288 267 257 216 205 205 202 237 288 343
870.0 393 437 471 480 456 421 385 325 283 272
910.0 229 195 184 169 152 130 131 140 142 157
950.0 177 198 226 251 268 278 278 278 301 357
990.0 438 533 611 641 646 616 536 438 372 339
1030.0 304 262 240 246 264 270 264 266 257 261
1070.0 281 308 342 361 376 392 422 465 492 528
1110.0 576 668 783 895 1047 1175 1277 1344 1345 1317
1150.0 1291 1289 1279 1210 1112 1001 864 730 623 538
1190.0 468 406 339 284 244 199 177 179 164 142
1230.0 135 152 173 192 219 256 292 309 316 327
1270.0 342 366 416 453 484 519 506 471 431 389
1310.0 348 311 292 298 315 345 385 438 516 602
1350.0 688 791 906 1029 1177 1353 1552 1766 1911 1891
1390.0 1710 1406 1058 754 534 435 407 405 444 519
1430.0 614 744 925 1132 1352 1581 1768 1923 2021 2015
1470.0 1909 1680 1377 1084 831 625 473 374 313 273
1510.0 245 223 202 184 171 168 158 141 141 142
1550.0 135 124 119 130 128 126 128 116 115 115
1590.0 106 88 76 88 89 82 90 89 82 78
1630.0 72 73 81 79 80 85 76 75 74 68
1670.0 63 60 54 44 44 37 35 39 42 37
1710.0 28 29 33 33 32 32 21 19 30 26
1750.0 16 17 19 26 36 37 29 25 35 40
1790.0 29 26 31 28 24 36 43 40 33 23
1830.0 23 29 26 25 29 30 31 34 31 26
1870.0 22 20 32 39 31 28 36 33 23 23
1910.0 20 18 19 20 24 25 24 23 22 21
1950.0 19 19 21 22 26 20 15 18 26 26
1990.0 18 16 17 15 19 18 15 14 6 8
2030.0 15 10 10 14 14 11 10 14 18 17
2070.0 14 16 13 2 0 5 15 23 22 25
2110.0 33 22 13 8 10 19 20 18 20 19
2150.0 21 31 28 19 25 30 32 28 20 19
2190.0 16 24 41 37 29 22 20 28 29 25
2230.0 22 24 23 24 25 27 29 28 28 22
2270.0 17 16 19 25 31 32 29 20 16 16
2310.0 23 29 31 34 32 36 40 28 24 20
2350.0 17 16 16 19 24 33 33 30 40 48
2390.0 42 35 39 45 44 40 43 42 39 40
2430.0 40 45 42 35 34 28 37 51 53 49
2470.0 40 33 34 41 43 41 46 41 33 42
2510.0 53 46 34 32 38 44 56 61 58 50
2550.0 48 61 63 61 67 65 63 65 72 80
2590.0 82 84 86 78 81 87 81 85 87 82
2630.0 85 90 96 101 93 88 93 99 98 97
2670.0 104 102 112 110 91 99 108 114 126 132
2710.0 137 148 160 179 207 227 237 233 240 255
2750.0 247 238 230 228 235 244 255 249 248 266
2790.0 283 285 303 331 357 392 432 480 528 584
2830.0 655 740 836 952 1084 1229 1370 1534 1759 2098
2870.0 2545 3038 3488 3827 4020 4075 4073 4081 4123 4246
2910.0 4436 4672 4987 5400 5925 6493 7008 7400 7624 7735
2950.0 7864 8162 8719 9407 9896 10000 9716 9026 8008 6920
2990.0 5830 4768 3823 2972 2269 1696 1255 960 776 667
3030.0 591 519 461 424 402 382 367 362 347 338
3070.0 351 358 358 337 336 327 307 307 284 280
3110.0 272 250 242 238 225 218 221 209 193 186
3150.0 185 186 183 188 185 172 188 195 190 192
3190.0 181 188 183 178 178 154 131 128 135 127
3230.0 124 126 121 105 86 80 80 76 82 92
3270.0 85 87 87 85 81 62 57 59 54 61
3310.0 73 71 63 60 56 58 64 83 72 53
3350.0 61 57 62 62 59 73 74 74 75 68
3390.0 75 74 53 56 69 50 36 61 80 54
3430.0 48 62 54 49 50 53 37 26 32 46
3470.0 66 56 31 38 41 44 72 64 45 40
3510.0 36 34 26 38 43 38 49 42 41 48
3550.0 45 43 41 37 37 26 16 32 38 44
3590.0 45 34 27 32 29 29 46 40 32 32
3630.0 41 44 42 33 37 46 36 46 56 43
3670.0 45 47 51 51 40 50 57 66 72 43
3710.0 26 33 40 49 59 52 57 68 56 52
3750.0 47 60 48 25 26 45 57 57 53 48
3790.0 49 49 49 51 49 37 27 44 79 86
3830.0 71 83 82 70 67
##END=
