##TITLE=3-Ethynylaniline
##JCAMP-DX=4.24
##DATA TYPE=INFRARED SPECTRUM
##ORIGIN=EPA-IR VAPOR PHASE LIBRARY
##OWNER=SRD/NIST
Collection (C) 2018 copyright by the U.S. Secretary of Commerce
on behalf of the United States of America. All rights reserved.
##CAS REGISTRY NO=54060-30-9
##MOLFORM=C 8 H 7 N
##$NIST SOURCE=MSDC-IR
##STATE=gas
##XUNITS=1/CM
##YUNITS=ABSORBANCE
##XFACTOR=1.
##YFACTOR=0.001
##DELTAX=3.85796
##FIRSTX=501.5
##LASTX=4000.7
##FIRSTY=9.46
##MAXX=4000.7
##MINX=501.534
##MAXY=0.06987
##MINY=0.00006956
##NPOINTS=908
##XYDATA=(X++(Y..Y))
501.534 9.46 9.47 9.29 9.12 9.25 9.47 9.99 10.01 9.39 9.44
540.114 9.64 9.09 8.54 8.41 8.63 8.85 8.94 8.95 9.13 9.36
578.693 9.78 10.65 12.26 14.69 18.05 23.11 29.07 34.09 45.01 53.21
617.273 49.07 44.12 40.41 37.13 39.29 48.48 61.29 58 48.4 50.97
655.852 53.46 52.59 51.53 51.09 50.57 48.22 47.56 45.32 36.18 28.98
694.432 25.27 21.74 18.77 16.32 14.79 13.79 13.03 12.44 11.92 11.29
733.011 10.66 10.17 9.88 9.85 10.49 12.12 14.96 18.81 23.15 27.71
771.591 34.35 41.83 41.03 34.41 29.85 25.81 21.21 16.75 13.23 10.73
810.170 9.18 8.2 7.5 7.04 6.76 6.68 6.99 7.73 8.92 10.45
848.750 12.23 14.11 16.77 19.32 18.75 16.73 15.16 13.37 11.49 9.79
887.330 8.55 7.72 7.23 7.07 7.18 7.42 7.98 9.08 10.65 12.24
925.909 12.87 12.53 11.73 10.39 8.24 5.99 4.7 4.19 4.01 3.97
964.489 3.92 3.86 3.81 3.83 4.05 4.51 5.19 5.5 5.33 5.18
1003.068 4.94 4.1 3.03 2.57 2.5 2.51 2.53 2.69 2.89 3.09
1041.648 3.33 3.57 3.79 3.98 4.27 4.81 5.41 6.1 6.87 7.6
1080.227 8.33 8.8 8.96 8.8 8.45 7.94 7.12 6.16 5.32 4.52
1118.807 3.82 3.41 3.23 3.41 3.9 4.64 5.83 7.46 8.79 9.44
1157.387 9.96 10.2 9.37 7.57 6.05 5.05 4.41 4.29 4.65 5.49
1195.966 7.01 9.68 13.85 18.93 23.52 26.39 27.35 26.3 23.55 19.52
1234.546 15.13 11.83 9.83 9.11 9.65 10.53 12.12 14.8 17.99 21.62
1273.125 24.63 26.38 29.43 33.5 33.8 32.08 30.76 28.08 23.98 19.47
1311.705 15.49 12.54 9.98 7.53 5.7 4.47 3.67 3.27 3.03 2.66
1350.284 2.23 1.9 1.62 1.41 1.25 1.15 1.1 1.08 1.14 1.22
1388.864 1.35 1.56 1.87 2.28 2.75 3.2 3.6 4.1 4.91 5.98
1427.443 7.41 9.31 11.47 13.25 14.25 15.1 15.91 15.63 14.45 13.76
1466.023 13.91 14.7 16.43 19.82 23.84 25.74 25.12 23.51 20.91 15.98
1504.603 10.17 6.39 5.02 4.77 4.97 5.3 5.56 5.86 6.28 6.7
1543.182 7.15 7.87 9 10.56 12.75 15.83 19.95 25.32 31.55 38.59
1581.762 46.64 56.1 64.57 68.13 66.85 64.33 62.88 63.71 66.2 68.66
1620.341 69.87 68.35 63.41 55.27 44.55 33.51 25.03 19.6 16.22 13.35
1658.921 10.91 9.09 7.8 6.89 6.28 5.72 5.19 4.76 4.45 4.21
1697.500 4.03 3.91 3.89 3.94 3.96 3.97 3.99 3.96 3.84 3.64
1736.080 3.43 3.25 3.03 2.79 2.55 2.3 2.05 1.81 1.62 1.47
1774.659 1.34 1.26 1.23 1.23 1.23 1.27 1.35 1.47 1.61 1.77
1813.239 1.96 2.14 2.33 2.46 2.52 2.47 2.33 2.15 1.91 1.64
1851.819 1.41 1.27 1.18 1.11 1.05 1.03 1.02 1.01 1.03 1.08
1890.398 1.17 1.34 1.56 1.81 2.06 2.27 2.38 2.36 2.28 2.14
1928.978 1.9 1.62 1.42 1.31 1.26 1.26 1.28 1.26 1.23 1.2
1967.557 1.17 1.13 1.07 1.03 0.9929 0.96 0.9486 0.9332 0.9194 0.917
2006.137 0.913 0.8959 0.8918 0.8764 0.836 0.8188 0.8108 0.8042 0.814 0.8278
2044.716 0.875 0.9484 1 1.05 1.12 1.19 1.27 1.38 1.52 1.7
2083.296 1.94 2.23 2.61 3.04 3.54 4.06 4.44 4.56 4.37 3.89
2121.875 3.2 2.38 1.62 1.08 0.8197 0.7131 0.6706 0.6606 0.6604 0.6634
2160.455 0.6526 0.6128 0.5707 0.5341 0.4804 0.4582 0.4716 0.4593 0.446 0.4581
2199.035 0.4921 0.543 0.5845 0.6043 0.6118 0.6315 0.6229 0.594 0.563 0.5388
2237.614 0.5343 0.5343 0.5212 0.5187 0.5232 0.5378 0.5574 0.5685 0.5742 0.5776
2276.194 0.5891 0.58 0.5583 0.5137 0.4602 0.4509 0.4731 0.4898 0.4999 0.502
2314.773 0.4989 0.5276 0.5469 0.5468 0.5626 0.5698 0.5561 0.5509 0.5612 0.5282
2353.353 0.4832 0.4597 0.4517 0.46 0.4956 0.5417 0.5426 0.5138 0.5038 0.5022
2391.932 0.4647 0.408 0.3738 0.3647 0.3454 0.2996 0.2912 0.3023 0.2938 0.3123
2430.512 0.3183 0.3143 0.33 0.3584 0.3984 0.4222 0.4347 0.4662 0.4607 0.41
2469.092 0.383 0.3639 0.3243 0.288 0.2639 0.242 0.2527 0.2508 0.2456 0.2628
2507.671 0.2638 0.2821 0.2924 0.2803 0.3166 0.3439 0.3466 0.3821 0.4274 0.468
2546.251 0.5124 0.5755 0.6484 0.7331 0.8161 0.8804 0.9219 0.9123 0.8939 0.8716
2584.830 0.7939 0.7183 0.6653 0.6152 0.5816 0.5508 0.5169 0.4734 0.4183 0.3584
2623.410 0.3237 0.3066 0.2789 0.2688 0.2627 0.2528 0.2615 0.2818 0.2894 0.2905
2661.989 0.3338 0.3757 0.4129 0.457 0.4764 0.5128 0.5753 0.6311 0.6434 0.6085
2700.569 0.5643 0.5876 0.6387 0.6812 0.7411 0.8032 0.8506 0.8875 0.9246 0.9181
2739.148 0.8738 0.8301 0.7657 0.666 0.5748 0.5 0.4247 0.3501 0.3064 0.2515
2777.728 0.213 0.1978 0.1443 0.1231 0.1105 0.08928 0.08181 0.06956 0.07491 0.07213
2816.308 0.08622 0.1108 0.1191 0.1229 0.1451 0.1826 0.1962 0.1851 0.2184 0.2785
2854.887 0.2884 0.3076 0.3943 0.4845 0.5459 0.6081 0.6435 0.649 0.6244 0.5772
2893.467 0.5332 0.5266 0.5292 0.5209 0.5065 0.4616 0.409 0.3885 0.3795 0.3522
2932.046 0.3121 0.2853 0.3112 0.3603 0.3971 0.4108 0.4216 0.4581 0.4861 0.5324
2970.626 0.551 0.5764 0.6528 0.7039 0.7884 0.927 1.17 1.6 2.12 2.74
3009.205 3.49 4.32 5.27 6.38 7.57 8.77 9.97 11.29 12.91 14.6
3047.785 15.53 15.54 15.08 14.25 12.87 11.24 10.11 9.72 9.38 8.79
3086.364 8.33 7.92 7.04 5.76 4.59 3.67 2.89 2.22 1.67 1.22
3124.944 0.8992 0.692 0.5721 0.4799 0.3917 0.3602 0.3533 0.3826 0.4079 0.4406
3163.524 0.4774 0.5244 0.5606 0.5585 0.6144 0.6968 0.7511 0.838 0.928 0.9783
3202.103 1.01 1.09 1.2 1.27 1.36 1.43 1.53 1.63 1.63 1.54
3240.683 1.48 1.46 1.49 1.61 1.82 2.09 2.41 2.89 3.51 4.3
3279.262 5.25 6.25 7.45 9.05 11.08 13.29 15.59 18.29 21.87 27.14
3317.842 34.58 41.55 44.78 43.64 39.73 34.43 24.2 12.7 6.22 3.5
3356.421 2.41 1.88 1.7 1.73 1.83 2.06 2.39 2.86 3.56 4.48
3395.001 5.45 6.5 7.46 7.99 8.31 8.72 8.53 7.53 6.59 5.89
3433.580 4.93 3.72 2.76 2.13 1.79 1.67 1.72 1.95 2.23 2.6
3472.160 3.1 3.71 4.38 5.08 5.57 5.64 5.64 5.69 5.58 5.18
3510.740 4.6 4.12 3.79 3.11 2.24 1.63 1.17 0.7955 0.5532 0.4801
3549.319 0.4052 0.3141 0.3047 0.2853 0.2458 0.2689 0.2851 0.2351 0.2418 0.2291
3587.899 0.1784 0.1622 0.1745 0.2268 0.2162 0.174 0.1879 0.1861 0.1786 0.1623
3626.478 0.1718 0.1949 0.1538 0.1451 0.1402 0.1396 0.1855 0.1949 0.1431 0.1249
3665.058 0.1448 0.1447 0.1198 0.1207 0.1727 0.1934 0.1754 0.1801 0.2337 0.2542
3703.637 0.2191 0.1884 0.1996 0.1961 0.2081 0.2483 0.2465 0.2775 0.2892 0.2952
3742.217 0.3591 0.4012 0.4131 0.4134 0.4126 0.3517 0.3127 0.3052 0.287 0.3467
3780.797 0.3862 0.3404 0.2866 0.2526 0.2424 0.2743 0.2952 0.2475 0.2297 0.2383
3819.376 0.2896 0.3536 0.3631 0.4533 0.5649 0.6953 0.8251 0.9067 0.9701 0.969
3857.956 0.9094 0.8119 0.6714 0.5505 0.4967 0.4377 0.3956 0.409 0.4562 0.5027
3896.535 0.4809 0.4992 0.5458 0.6192 0.6828 0.7059 0.7636 0.8473 0.9366 0.9559
3935.115 0.9968 1.01 0.9628 0.9523 0.9741 0.8891 0.7399 0.6066 0.4889 0.4646
3973.694 0.4454 0.4455 0.4857 0.4704 0.429 0.353 0.3146 0.3781
##END=
