##TITLE=Ethyl 4-t-butylbenzoate
##JCAMP-DX=4.24
##DATA TYPE=INFRARED SPECTRUM
##ORIGIN=EPA-IR VAPOR PHASE LIBRARY
##OWNER=SRD/NIST
Collection (C) 2018 copyright by the U.S. Secretary of Commerce
on behalf of the United States of America. All rights reserved.
##CAS REGISTRY NO=5406-57-5
##MOLFORM=C 13 H 18 O 2
##$NIST SOURCE=MSDC-IR
##STATE=gas
##XUNITS=1/CM
##YUNITS=ABSORBANCE
##XFACTOR=1.
##YFACTOR=0.001
##DELTAX=1.929
##FIRSTX=549.8
##LASTX=4000.8
##FIRSTY=8.81
##MAXX=4000.75
##MINX=549.766
##MAXY=0.48772
##MINY=0
##NPOINTS=1790
##XYDATA=(X++(Y..Y))
549.766 8.81 8.49 7.88 7.36 7 6.56 6 5.56 5.09 4.73
569.056 4.6 4.51 4.36 4.2 4.33 4.29 4.01 3.93 3.45 2.8
588.346 2.4451 2.1882 2.0188 1.8198 1.6173 1.6699 1.54214 1.437 1.4268 1.346
607.636 1.44871 1.47253 1.333 1.227 1.228 1.251 1.232 1.251 1.214 1.273
626.926 1.282 1.257 1.426 1.54583 1.7151 1.802 1.8596 1.7192 1.53411 1.45868
646.216 1.3882 1.327 1.3761 1.3726 1.228 1.281 1.269 1.255 1.3862 1.5621
665.506 1.5581 1.48335 1.5625 1.7391 1.9319 2.0989 2.48 2.78 3.06 3.57
684.796 4.05 4.73 5.68 6.84 8.29 10.02 12.11 14.49 16.88 19.33
704.086 21.69 23.6 25.01 25.78 26.12 26.41 26.44 25.43 23.08 20.05
723.376 16.48 12.49 9.19 7.06 5.71 4.78 4.19 3.7 3.23 2.97
742.666 2.91 2.85 2.85 3.04 3.25 3.58 4.25 5.19 6.47 8.11
761.956 9.94 12.13 14.73 17.38 19.94 22.35 24.34 25.16 24.56 23.25
781.246 21.56 19.47 17.16 14.76 12.61 10.8 9.13 7.82 7.09 6.62
800.536 6.08 5.6 5.38 5.33 5.3 5.27 5.31 5.39 5.35 5.37
819.826 5.34 5.43 5.69 5.97 6.36 6.98 7.77 8.73 9.93 11.32
839.116 12.92 14.84 16.96 19.06 21.22 23.3 24.85 25.34 24.54 22.72
858.406 20.4 17.96 15.4 12.99 11.08 9.66 8.75 8.17 7.74 7.42
877.696 6.92 6.35 5.82 5.24 4.83 4.57 4.32 4.14 3.99 3.77
896.986 3.61 3.51 3.42 3.37 3.33 3.31 3.3 3.35 3.4 3.42
916.276 3.55 3.52 3.44 3.47 3.36 3.27 3.24 3.22 3.19 3.1
935.566 3 2.91 2.84 2.77 2.69 2.66 2.62 2.62 2.6 2.55
954.856 2.65 2.82 2.82 2.81 2.9 3.01 3.14 3.2 3.19 3.32
974.146 3.52 3.65 3.8 3.91 4.02 4.3 4.6 4.87 5.17 5.56
993.436 6.03 6.55 7.28 8.15 9.28 10.8 12.92 16.19 21.34 29.06
1012.726 39.22 50.47 60.8 68.36 71.7 70.04 63.87 54.81 45.06 36.28
1032.016 29.28 24.04 20.17 17.33 15.22 13.66 12.51 11.68 11.08 10.7
1051.306 10.64 10.69 10.9 11.34 11.89 12.58 13.4 14.41 15.73 17.37
1070.596 19.35 21.82 24.89 28.71 33.45 39.23 46.02 54.09 63.54 74.3
1089.886 86.4 99.94 114.79 130.41 146.14 161.29 175.78 190.32 205.89 222.6
1109.176 238.93 251.54 256.27 250.51 234.14 209.4 180.86 153.41 130.09 111.5
1128.467 96.32 82.18 68.45 56.49 46.9 39.62 34.3 30.51 27.93 26.09
1147.757 24.78 23.98 23.51 23.27 23.22 23.35 23.56 23.88 24.29 24.75
1167.047 25.42 26.11 26.9 28.02 29.3 31.12 34.11 39.16 48.03 62.1
1186.337 79.53 93.3 99.09 99.19 93.02 78.07 59.07 43.81 34.33 28.54
1205.627 24.96 22.8 21.61 21.37 22.01 23.49 26.05 29.63 34.25 40.06
1224.917 46.6 53.27 59.08 63.07 64.86 64.45 62.73 60.58 59.26 59.8
1244.207 62.52 67.99 76.3 87.62 102.49 121.49 145.52 176.04 214.6 261.86
1263.497 316.75 375.52 430.31 470.61 487.72 477.29 439.86 381.86 314.68 251.88
1282.787 202.81 168.94 146.48 130.58 117.77 105.87 93.9 81.97 70.87 61.59
1302.077 54.64 49.95 47.2 45.89 45.11 43.77 41.57 38.7 34.87 30.09
1321.367 25.35 21.53 18.82 16.87 15.43 14.36 13.56 12.99 12.61 12.39
1340.657 12.44 12.73 13.25 14.05 15.1 16.48 18.23 20.46 23.29 26.84
1359.947 31.44 37.3 44.06 50.3 54.34 55.72 54.78 51.25 45.42 39.35
1379.237 34.39 30.7 28.08 26.31 25.26 25.02 25.51 26.55 27.92 29.31
1398.527 30.57 31.8 32.68 33.03 32.92 32.22 30.83 28.84 26.23 23.21
1417.817 20.38 18.03 16.31 14.98 14 13.36 12.94 12.77 12.73 12.86
1437.107 13.15 13.6 14.28 15 15.77 16.69 17.73 18.84 19.97 21.04
1456.397 22.23 23.59 24.87 26.15 27.44 28.79 30.05 31.08 31.9 32.5
1475.687 32.67 32.33 31.34 29.76 27.75 25.34 22.86 20.6 18.62 17.11
1494.977 16.03 15.19 14.51 13.95 13.41 12.85 12.38 11.98 11.54 11.05
1514.267 10.53 9.9 9.19 8.5 7.83 7.22 6.67 6.28 6 5.74
1533.557 5.56 5.39 5.28 5.21 5.15 5.2 5.29 5.41 5.54 5.64
1552.847 5.77 5.98 6.25 6.55 7.06 7.66 8.21 8.75 9.21 9.54
1572.137 9.6 9.33 8.95 8.55 8.26 8.12 8.27 8.86 9.84 11.21
1591.427 13.01 15.29 18 21.24 25.02 29.13 33.47 37.77 41.31 43.46
1610.717 43.8 42.09 38.56 33.57 28.11 23.15 19 15.98 13.79 12.09
1630.007 10.76 9.67 8.63 7.7 7.01 6.51 6.19 5.98 5.76 5.67
1649.297 5.68 5.69 5.77 5.97 6.19 6.45 6.73 7.05 7.42 7.77
1668.587 8.13 8.52 8.93 9.34 9.79 10.2 10.59 11.01 11.47 11.99
1687.877 12.48 12.99 13.52 14.01 14.6 15.23 15.91 16.66 17.63 18.97
1707.167 20.73 23.02 26.07 30.09 35.43 42.63 52.27 64.22 79.49 98.46
1726.457 121.51 148.76 180.01 212.43 243.72 266.83 277.31 276.17 262.59 235.63
1745.747 200.11 164.02 132.18 105.03 82.79 65 50.55 39.58 31.23 24.96
1765.037 20.41 17.08 14.57 12.81 11.53 10.63 9.98 9.56 9.39 9.34
1784.327 9.37 9.48 9.68 9.9 10.14 10.4 10.59 10.61 10.44 10.05
1803.617 9.47 8.78 8.03 7.32 6.64 6.1 5.65 5.25 4.94 4.66
1822.907 4.41 4.21 4.01 3.8 3.69 3.64 3.58 3.53 3.51 3.52
1842.197 3.49 3.45 3.44 3.4 3.31 3.24 3.19 3.08 2.95 2.87
1861.487 2.83 2.75 2.71 2.7 2.69 2.71 2.76 2.81 2.82 2.79
1880.777 2.81 2.88 2.86 2.82 2.87 2.9 2.89 2.88 2.93 2.97
1900.067 2.99 3.06 3.16 3.26 3.37 3.49 3.64 3.81 4.01 4.18
1919.357 4.29 4.39 4.4 4.35 4.32 4.27 4.17 4.06 3.91 3.74
1938.647 3.57 3.4 3.35 3.3 3.23 3.17 3.12 3.1 3.08 3.07
1957.937 3.1 3.08 3.05 3.13 3.16 3.12 3.14 3.13 3.1 3.04
1977.227 2.96 2.81 2.7 2.61 2.5 2.46 2.3836 2.2822 2.1829 2.1062
1996.517 2.0544 1.9497 1.8557 1.8495 1.8317 1.7772 1.7557 1.7516 1.7346 1.7008
2015.807 1.6867 1.6856 1.6885 1.7087 1.7044 1.6986 1.73 1.7654 1.7763 1.7547
2035.097 1.749 1.7427 1.6944 1.7097 1.7265 1.7659 1.7773 1.7424 1.7663 1.7473
2054.387 1.6976 1.6449 1.6357 1.6306 1.6012 1.6417 1.6797 1.6884 1.7187 1.7225
2073.677 1.7467 1.7983 1.8355 1.8697 1.8634 1.8546 1.8755 1.8739 1.888 1.9554
2092.967 1.967 1.9418 1.9532 1.944 1.9477 1.9829 1.9903 2.0477 2.1112 2.1161
2112.257 2.1757 2.2498 2.3023 2.3276 2.3466 2.3808 2.3861 2.3912 2.354 2.2946
2131.547 2.2177 2.1111 1.9934 1.9353 1.9483 1.8842 1.7755 1.6957 1.6522 1.6071
2150.837 1.54482 1.54407 1.53979 1.473 1.4326 1.4164 1.3838 1.3514 1.333 1.34
2170.127 1.3546 1.29 1.234 1.252 1.271 1.286 1.322 1.344 1.334 1.347
2189.417 1.335 1.326 1.3883 1.4249 1.4206 1.434 1.439 1.46128 1.50868 1.511
2208.707 1.49674 1.49582 1.48826 1.4833 1.48498 1.46864 1.47703 1.46745 1.46595 1.45443
2227.997 1.47286 1.51611 1.496 1.46696 1.47296 1.44935 1.4288 1.4083 1.3748 1.3536
2247.287 1.348 1.3649 1.3993 1.4077 1.3597 1.3529 1.347 1.3806 1.4189 1.3932
2266.577 1.3987 1.44591 1.48134 1.50971 1.53739 1.5647 1.5682 1.5732 1.6414 1.6567
2285.868 1.6482 1.6628 1.6757 1.6647 1.6545 1.6348 1.5862 1.5604 1.54914 1.5526
2305.158 1.5803 1.595 1.5934 1.6036 1.613 1.5925 1.53578 1.50311 1.46747 1.50104
2324.448 1.54334 1.49511 1.48693 1.46119 1.4323 1.45228 1.4655 1.44029 1.4761 1.51658
2343.738 1.50664 1.5576 1.5732 1.5858 1.6032 1.5879 1.611 1.6504 1.6417 1.6559
2363.028 1.7253 1.7586 1.8308 1.8954 1.9043 1.9733 2.0325 2.0319 2.1051 2.1811
2382.318 2.1913 2.1854 2.2041 2.2343 2.18 2.1103 2.1423 2.1051 2.0744 2.0652
2401.608 1.9731 1.905 1.8674 1.8362 1.8235 1.7994 1.7583 1.7243 1.6398 1.5782
2420.898 1.5815 1.5961 1.5703 1.52638 1.53009 1.50591 1.53779 1.5899 1.52737 1.48505
2440.188 1.51475 1.51112 1.47865 1.48283 1.51566 1.51229 1.49937 1.52224 1.52807 1.54062
2459.478 1.53335 1.50184 1.48884 1.48432 1.47656 1.46154 1.44325 1.46102 1.4736 1.47008
2478.768 1.46705 1.4151 1.408 1.48443 1.51582 1.5594 1.5669 1.5768 1.5911 1.5788
2498.058 1.5711 1.53247 1.53386 1.564 1.51478 1.48408 1.5684 1.5944 1.5856 1.6567
2517.348 1.6155 1.5705 1.6579 1.7139 1.7301 1.7959 1.804 1.7535 1.7392 1.7798
2536.638 1.8117 1.755 1.7628 1.7905 1.7683 1.7652 1.8101 1.8197 1.8579 1.9358
2555.928 1.9413 1.9671 2.0193 2.0578 2.0946 2.1111 2.1038 2.1035 2.1232 2.0988
2575.218 2.0997 2.1239 2.0674 2.0612 2.0318 1.9431 1.9572 1.9232 1.8948 1.827
2594.508 1.76 1.7343 1.717 1.7727 1.7191 1.673 1.6763 1.6519 1.5925 1.5718
2613.798 1.5678 1.5672 1.5554 1.52979 1.5626 1.6492 1.6376 1.5794 1.6073 1.5896
2633.088 1.54174 1.50036 1.5275 1.53204 1.50036 1.52766 1.5504 1.5536 1.54103 1.54288
2652.378 1.51591 1.47305 1.46202 1.46136 1.52878 1.5517 1.565 1.612 1.53885 1.46278
2671.668 1.46778 1.48627 1.45038 1.44467 1.47852 1.48398 1.46137 1.4372 1.4312 1.46915
2690.958 1.49908 1.50651 1.5263 1.53929 1.5868 1.6237 1.7202 1.7747 1.7118 1.8106
2710.248 1.9584 2.0058 2.0821 2.2464 2.3494 2.4152 2.55 2.58 2.58 2.63
2729.538 2.63 2.58 2.5 2.48 2.49 2.3997 2.3701 2.3892 2.421 2.46
2748.828 2.53 2.62 2.66 2.71 2.73 2.71 2.68 2.71 2.81 2.84
2768.118 2.87 2.89 2.96 3.02 3 3.06 3.11 3.2 3.27 3.27
2787.408 3.36 3.46 3.48 3.48 3.5 3.53 3.47 3.52 3.62 3.7
2806.698 3.87 4.01 4.07 4.18 4.37 4.55 4.72 4.8 4.82 4.88
2825.988 5.01 5.21 5.32 5.44 5.64 5.79 5.97 6.27 6.6 7.01
2845.278 7.41 7.86 8.49 9.19 10 10.91 12.16 13.69 15.33 17.37
2864.568 19.7 22.21 24.88 27.65 30.49 33.04 35.22 37.01 38.1 38.67
2883.858 38.83 38.39 37.72 36.96 36.2 35.73 35.57 35.91 36.74 37.95
2903.148 39.68 41.78 44.22 46.81 49.05 50.67 51.47 51.43 50.75 49.74
2922.438 48.76 47.83 47.27 47.43 48.15 49.44 51.34 53.75 56.46 59.48
2941.728 62.61 65.69 68.9 72.37 76.56 82.06 89.11 97.83 108.23 120.33
2961.018 133.88 148.58 163.43 176.1 184.13 185.64 180.4 169.68 155.29 139.98
2980.308 126.09 114.41 104.19 94.38 84.4 74.27 64.52 55.86 48.79 43.18
2999.598 38.65 34.85 31.67 28.81 26.18 23.81 21.58 19.66 17.92 16.32
3018.888 15 13.81 12.78 11.89 11.22 10.76 10.35 10.16 10.03 9.97
3038.178 10.1 10.39 10.84 11.3 11.69 11.89 11.93 11.77 11.46 11.05
3057.468 10.54 10.18 10.05 10.09 10.14 10.13 10.23 10.33 10.38 10.61
3076.758 10.82 10.97 11.13 11.31 11.4 11.28 11.28 11.45 11.52 11.54
3096.048 11.53 11.34 10.9 10.35 9.75 9.02 8.22 7.38 6.65 6.07
3115.338 5.44 4.91 4.61 4.43 4.25 4.06 3.85 3.71 3.66 3.66
3134.628 3.57 3.35 3.19 3.08 2.92 2.86 2.73 2.61 2.69 2.61
3153.918 2.53 2.54 2.46 2.3445 2.2843 2.2132 2.2294 2.2732 2.2693 2.3027
3173.208 2.2669 2.3069 2.2938 2.2389 2.2528 2.1919 2.2092 2.1821 2.1077 2.2015
3192.498 2.1522 2.0595 2.0512 2.094 2.1431 2.0502 2.0012 2.0054 1.9521 1.9245
3211.788 1.9326 1.9323 1.9506 1.8191 1.7712 1.8177 1.7089 1.6719 1.6174 1.49599
3231.078 1.44309 1.49796 1.51172 1.49461 1.4347 1.291 1.289 1.282 1.312 1.3506
3250.368 1.259 1.265 1.289 1.233 1.176 1.037 0.878 0.926 0.995 1.013
3269.658 0.901 0.791 0.837 0.84 0.864 0.831 0.814 0.854 0.84 0.819
3288.948 0.796 0.882 1.021 1.025 1.014 0.998 0.904 0.812 0.808 0.928
3308.238 0.99 0.939 0.89 0.772 0.737 0.737 0.646 0.599 0.635 0.692
3327.528 0.69 0.629 0.603 0.735 0.77 0.68 0.735 0.83 0.848 0.783
3346.818 0.72 0.751 0.762 0.802 0.727 0.58 0.672 0.745 0.661 0.58
3366.108 0.657 0.603 0.502 0.602 0.692 0.722 0.641 0.574 0.44 0.39
3385.398 0.541 0.602 0.572 0.56 0.552 0.559 0.581 0.595 0.66 0.657
3404.688 0.624 0.619 0.625 0.681 0.661 0.702 0.744 0.663 0.627 0.756
3423.978 0.832 0.776 0.808 0.897 1.001 1.108 1.242 1.261 1.275 1.433
3443.269 1.5697 1.7715 1.8828 2.0266 2.2077 2.2955 2.2685 2.2043 2.3076 2.3255
3462.559 2.1965 2.0083 1.8439 1.6019 1.331 1.115 0.953 0.922 0.798 0.633
3481.849 0.621 0.637 0.553 0.543 0.534 0.519 0.516 0.38 0.3 0.36
3501.139 0.44 0.469 0.45 0.43 0.36 0.29 0.36 0.468 0.42 0.35
3520.429 0.41 0.37 0.31 0.34 0.31 0.27 0.33 0.33 0.24 0.32
3539.719 0.35 0.26 0.18 0.26 0.38 0.35 0.28 0.22 0.18 0.15
3559.009 0.29 0.41 0.33 0.27 0.18 0.16 0.15 0.16 0.16 0.12
3578.299 0.06 0 0.01 0.02 0.05 0.1 0.14 0.19 0.18 0.18
3597.589 0.19 0.03 0.09 0.18 0.08 0.06 0.1 0.2 0.21 0.29
3616.879 0.37 0.23 0.2 0.27 0.18 0.04 0.03 0.24 0.33 0.31
3636.169 0.37 0.37 0.37 0.36 0.35 0.31 0.28 0.31 0.33 0.25
3655.459 0.25 0.4 0.39 0.29 0.31 0.35 0.33 0.36 0.34 0.3
3674.749 0.23 0.35 0.513 0.487 0.528 0.459 0.41 0.39 0.32 0.38
3694.039 0.476 0.468 0.39 0.38 0.41 0.43 0.36 0.3 0.43 0.48
3713.329 0.455 0.45 0.469 0.572 0.549 0.5 0.47 0.51 0.575 0.551
3732.619 0.527 0.483 0.497 0.661 0.686 0.556 0.35 0.32 0.544 0.578
3751.909 0.56 0.593 0.575 0.569 0.56 0.551 0.639 0.719 0.597 0.502
3771.199 0.61 0.71 0.677 0.542 0.488 0.598 0.583 0.582 0.576 0.522
3790.489 0.588 0.519 0.569 0.64 0.63 0.658 0.624 0.693 0.729 0.702
3809.779 0.813 0.89 0.779 0.731 0.732 0.765 0.745 0.629 0.682 0.683
3829.069 0.726 0.814 0.805 0.754 0.677 0.632 0.603 0.574 0.596 0.598
3848.359 0.582 0.632 0.585 0.48 0.557 0.75 0.749 0.674 0.687 0.688
3867.649 0.712 0.699 0.733 0.763 0.807 0.867 0.804 0.691 0.708 0.704
3886.939 0.748 0.897 0.808 0.721 0.759 0.823 0.904 0.832 0.83 0.781
3906.229 0.769 0.97 0.946 0.933 0.954 0.923 0.889 0.894 0.972 0.875
3925.519 0.747 0.773 0.874 0.906 0.852 0.86 0.814 0.859 0.996 0.912
3944.809 0.819 0.911 0.906 0.847 0.84 0.854 0.849 0.814 0.905 1.003
3964.099 0.85 0.814 0.915 0.78 0.761 0.849 0.835 0.894 0.985 1.041
3983.389 1.094 1.022 0.921 1.019 1.129 1.182 1.11 1.085 1.166 1.1
##END=
