##TITLE=3-Methylbutyramide
##JCAMP-DX=4.24
##DATA TYPE=INFRARED SPECTRUM
##ORIGIN=EPA-IR VAPOR PHASE LIBRARY
##OWNER=SRD/NIST
Collection (C) 2018 copyright by the U.S. Secretary of Commerce
on behalf of the United States of America. All rights reserved.
##CAS REGISTRY NO=541-46-8
##MOLFORM=C 5 H 11 N O
##$NIST SOURCE=MSDC-IR
##STATE=gas
##XUNITS=1/CM
##YUNITS=ABSORBANCE
##XFACTOR=1.
##YFACTOR=0.001
##DELTAX=1.92898
##FIRSTX=549.8
##LASTX=4000.7
##FIRSTY=1.804
##MAXX=4000.7
##MINX=549.759
##MAXY=0.045764
##MINY=0
##NPOINTS=1790
##XYDATA=(X++(Y..Y))
549.759 1.804 1.934 1.724 1.534 1.734 1.954 2.144 2.154 2.044 2.254
569.049 2.394 2.694 2.974 2.804 2.824 2.994 3.204 3.244 3.204 3.514
588.339 3.804 3.934 4.104 4.024 3.934 3.894 3.884 4.064 4.114 4.044
607.628 4.224 4.214 4.144 4.294 4.084 3.604 3.614 3.484 3.154 3.004
626.918 3.024 3.114 2.824 2.484 2.334 2.324 2.184 2.084 1.874 1.824
646.208 1.824 1.784 1.724 1.644 1.824 1.724 1.594 1.624 1.664 1.524
665.498 1.524 1.664 1.684 1.624 1.674 1.734 1.604 1.524 1.674 1.864
684.787 1.834 1.714 1.854 1.974 1.994 2.074 1.984 2.044 2.164 2.064
704.077 2.124 2.304 2.454 2.694 2.854 2.804 2.714 2.964 3.144 3.324
723.367 3.634 3.674 3.584 3.664 3.874 4.004 3.914 3.954 4.004 3.964
742.657 4.054 4.024 4.094 4.124 3.864 3.804 3.754 3.684 3.854 3.914
761.947 3.774 3.874 3.874 3.734 3.624 3.644 3.684 3.534 3.434 3.454
781.236 3.364 3.144 3.094 3.194 3.164 2.914 2.824 2.904 2.924 2.584
800.526 2.394 2.494 2.344 2.194 2.374 2.454 2.364 2.334 2.314 2.114
819.816 2.034 2.234 2.444 2.444 2.324 2.424 2.354 2.364 2.474 2.354
839.106 2.344 2.404 2.324 2.364 2.594 2.454 2.434 2.604 2.594 2.734
858.395 2.784 2.714 2.654 2.794 2.804 2.674 2.614 2.414 2.334 2.364
877.685 2.404 2.324 2.314 2.474 2.244 2.174 2.374 2.364 2.324 2.314
896.975 2.214 2.104 2.044 2.034 2.024 2.024 1.994 1.954 1.904 1.804
916.265 1.734 1.744 1.724 1.664 1.714 1.764 1.824 1.774 1.714 1.754
935.555 1.644 1.614 1.564 1.494 1.514 1.534 1.524 1.504 1.524 1.604
954.844 1.634 1.504 1.274 1.234 1.354 1.444 1.344 1.204 1.274 1.154
974.134 1.1089 1.174 1.194 1.364 1.534 1.294 1.224 1.314 1.274 1.284
993.424 1.164 1.134 1.144 1.184 1.244 1.1208 1.124 1.0367 0.9173 1.0241
1012.714 1.0157 0.8867 1.0445 1.224 1.1066 1.194 1.334 1.514 1.534 1.654
1032.003 1.804 1.624 1.874 1.974 1.704 1.744 1.914 2.014 2.034 2.354
1051.293 2.724 2.744 2.634 2.764 2.654 2.254 2.334 2.344 1.914 1.874
1070.583 2.064 1.864 1.714 2.004 2.084 1.534 1.374 1.644 1.294 1.0036
1089.873 1.174 1.224 1.174 1.384 1.654 1.334 0.8655 0.7238 0.7294 0.8942
1109.163 0.9599 0.9706 1.0271 0.8017 0.7223 1.0345 1.214 1.104 1.0742 1.0434
1128.452 0.906 0.9391 0.9784 1.0397 0.8252 0.7375 1.0911 1.134 1.174 1.204
1147.742 1.304 1.544 1.774 2.004 2.124 2.284 2.534 2.524 2.794 3.274
1167.032 3.374 3.264 3.194 3.214 3.144 3.004 2.934 2.934 2.854 2.834
1186.322 2.664 2.384 2.424 2.494 2.444 2.704 2.984 2.874 2.724 2.844
1205.611 3.294 3.604 3.614 3.534 3.714 3.984 3.974 3.904 4.254 4.464
1224.901 4.314 4.544 4.584 4.514 4.444 4.394 4.604 4.644 4.644 4.604
1244.191 4.664 4.854 4.794 4.784 4.854 5.014 5.084 5.004 4.844 4.764
1263.481 4.584 4.424 4.474 4.264 4.144 4.254 4.294 4.244 4.224 4.294
1282.771 4.424 4.554 4.804 5.134 5.434 5.764 6.134 6.454 6.794 7.294
1302.060 7.814 8.254 8.694 9.124 9.474 9.714 9.884 10.024 10.204 10.334
1321.350 10.374 10.374 10.354 10.314 10.164 9.934 9.784 9.734 9.794 9.894
1340.640 10.064 10.284 10.484 10.754 11.094 11.594 12.034 12.394 12.824 13.274
1359.930 13.784 14.294 14.704 14.934 15.064 15.124 15.054 14.824 14.494 14.054
1379.219 13.474 12.774 11.854 10.744 9.604 8.574 7.614 6.744 5.974 5.314
1398.509 4.754 4.204 3.814 3.544 3.314 3.074 2.944 2.874 2.764 2.764
1417.799 2.784 2.774 2.754 2.804 2.854 2.874 2.904 2.964 3.044 3.104
1437.089 3.144 3.184 3.244 3.314 3.334 3.384 3.514 3.584 3.624 3.704
1456.378 3.754 3.814 3.874 3.954 4.034 4.064 4.034 4.004 3.944 3.734
1475.668 3.504 3.344 3.164 2.964 2.814 2.604 2.414 2.224 1.964 1.844
1494.958 1.734 1.574 1.474 1.374 1.294 1.194 1.1036 1.0657 1.0029 0.9643
1514.248 0.9697 0.9764 1.0101 1.0478 1.0267 1.0099 1.044 1.0188 1.0284 1.134
1533.538 1.194 1.264 1.374 1.464 1.554 1.644 1.814 1.974 2.124 2.334
1552.827 2.534 2.784 3.154 3.664 4.194 4.654 5.324 6.174 7.184 8.354
1572.117 9.614 10.864 12.024 13.024 13.764 14.424 15.024 15.414 15.494 15.384
1591.407 15.234 14.914 14.234 13.214 12.064 10.884 9.744 8.574 7.624 6.864
1610.697 6.134 5.454 4.894 4.464 4.124 3.834 3.554 3.304 3.114 2.894
1629.986 2.744 2.644 2.544 2.494 2.394 2.324 2.274 2.244 2.284 2.294
1649.276 2.324 2.404 2.504 2.604 2.644 2.754 2.924 3.144 3.344 3.534
1668.566 3.824 4.114 4.414 4.774 5.184 5.644 6.204 6.824 7.494 8.194
1687.856 8.934 9.794 10.814 11.874 13.124 14.494 15.904 17.564 19.244 21.214
1707.146 23.264 25.494 27.844 30.224 32.614 35.024 37.394 39.484 41.394 43.034
1726.435 44.304 45.274 45.764 45.644 45.014 43.964 42.454 40.504 38.224 35.604
1745.725 32.814 29.864 26.874 23.914 21.124 18.574 16.154 13.974 12.094 10.494
1765.015 9.114 7.964 6.954 6.134 5.384 4.714 4.184 3.724 3.274 2.934
1784.305 2.644 2.344 2.154 1.984 1.824 1.674 1.564 1.494 1.384 1.334
1803.594 1.254 1.134 1.1096 1.0897 1.0356 0.9903 0.9607 0.9195 0.8963 0.8471
1822.884 0.8197 0.7757 0.6924 0.663 0.6464 0.6622 0.6446 0.6657 0.6822 0.6347
1842.174 0.6379 0.5964 0.53 0.5506 0.5707 0.5583 0.5678 0.5808 0.5911 0.5908
1861.464 0.557 0.5435 0.5222 0.4576 0.4439 0.4696 0.4865 0.5001 0.498 0.5346
1880.754 0.5358 0.4863 0.4678 0.4624 0.4955 0.4809 0.4485 0.4476 0.4417 0.4446
1900.043 0.4313 0.4458 0.4305 0.4364 0.4705 0.4286 0.3958 0.4432 0.4516 0.4062
1919.333 0.3976 0.3735 0.403 0.4235 0.421 0.4085 0.3268 0.3202 0.3487 0.3458
1938.623 0.3776 0.3523 0.4037 0.4447 0.3511 0.3024 0.3673 0.4115 0.3213 0.2815
1957.913 0.3171 0.3492 0.3539 0.3687 0.345 0.3133 0.3382 0.3147 0.3159 0.3225
1977.202 0.3413 0.3893 0.3298 0.2693 0.2764 0.2561 0.2692 0.2979 0.2642 0.2386
1996.492 0.2943 0.3543 0.3182 0.2773 0.3151 0.3127 0.2691 0.2439 0.2699 0.3001
2015.782 0.2642 0.20788 0.2009 0.22268 0.22225 0.22032 0.21495 0.2246 0.2388 0.2895
2035.072 0.2958 0.2503 0.2648 0.2957 0.311 0.2849 0.2699 0.2859 0.269 0.2871
2054.362 0.2587 0.22166 0.2429 0.2866 0.3125 0.2777 0.2898 0.3125 0.258 0.2478
2073.651 0.2333 0.19934 0.2356 0.2564 0.2632 0.2733 0.2538 0.2434 0.3033 0.327
2092.941 0.2789 0.21441 0.20119 0.232 0.2657 0.2867 0.2768 0.2345 0.2456 0.2772
2112.231 0.2436 0.22357 0.2425 0.2709 0.2555 0.2523 0.2611 0.2612 0.289 0.3369
2131.521 0.2904 0.16929 0.2006 0.241 0.17786 0.18936 0.2465 0.2429 0.2887 0.2871
2150.810 0.21159 0.21374 0.2586 0.3117 0.2747 0.243 0.2393 0.2504 0.3139 0.3305
2170.100 0.3512 0.3014 0.2603 0.3119 0.3106 0.3136 0.2531 0.21784 0.2964 0.3592
2189.390 0.3864 0.3364 0.335 0.3879 0.3261 0.2775 0.3026 0.2785 0.2375 0.2329
2208.680 0.2862 0.3753 0.3684 0.3177 0.2909 0.3421 0.3494 0.2965 0.3271 0.3181
2227.970 0.3047 0.3012 0.3255 0.3159 0.2936 0.3172 0.2723 0.2949 0.3522 0.3244
2247.259 0.3265 0.3384 0.3348 0.3123 0.2959 0.2891 0.2371 0.2487 0.2864 0.2668
2266.549 0.2471 0.2863 0.3104 0.2312 0.2437 0.3247 0.361 0.3354 0.2808 0.3038
2285.839 0.3389 0.3184 0.3569 0.3951 0.348 0.3268 0.322 0.3421 0.3601 0.3221
2305.129 0.2448 0.22044 0.2767 0.3241 0.359 0.3397 0.3054 0.334 0.3125 0.2956
2324.418 0.3152 0.3465 0.3346 0.3279 0.3636 0.3103 0.3024 0.3114 0.2908 0.327
2343.708 0.3029 0.2947 0.3036 0.2282 0.18099 0.20063 0.2919 0.2847 0.2328 0.2614
2362.998 0.2772 0.3019 0.3204 0.3363 0.2496 0.21934 0.2777 0.2633 0.2795 0.3362
2382.288 0.3534 0.3064 0.3325 0.3812 0.3499 0.3281 0.2934 0.2302 0.2462 0.3243
2401.578 0.3539 0.3206 0.2462 0.2546 0.3315 0.2923 0.2344 0.3001 0.2902 0.20057
2420.867 0.2486 0.2999 0.3369 0.3309 0.2858 0.3054 0.3387 0.3534 0.3087 0.2889
2440.157 0.296 0.2879 0.2845 0.2908 0.2902 0.2701 0.3222 0.3363 0.3521 0.3943
2459.447 0.3345 0.2406 0.231 0.2249 0.20635 0.2333 0.19951 0.21263 0.22104 0.2317
2478.737 0.306 0.3176 0.3243 0.2897 0.2307 0.20978 0.2521 0.2826 0.258 0.2772
2498.026 0.3237 0.3177 0.2866 0.3268 0.2879 0.2367 0.2766 0.2879 0.2564 0.247
2517.316 0.20103 0.15432 0.19181 0.2341 0.2626 0.3107 0.3106 0.3146 0.2921 0.2755
2536.606 0.3032 0.2608 0.2356 0.2369 0.2875 0.3759 0.3589 0.3648 0.3788 0.312
2555.896 0.3202 0.3396 0.3181 0.3054 0.3404 0.3677 0.3017 0.2594 0.3057 0.3093
2575.186 0.2492 0.3088 0.3527 0.3329 0.3728 0.3805 0.3053 0.2928 0.3691 0.3271
2594.475 0.3149 0.3042 0.3273 0.3864 0.3206 0.3231 0.3355 0.3947 0.4615 0.4082
2613.765 0.3592 0.3982 0.4587 0.4794 0.4385 0.3515 0.3875 0.4132 0.4208 0.4573
2633.055 0.4638 0.5509 0.555 0.4729 0.5169 0.5656 0.5962 0.5376 0.4579 0.4374
2652.345 0.4152 0.5202 0.5976 0.5527 0.4624 0.3951 0.348 0.3653 0.4235 0.4056
2671.634 0.4014 0.4518 0.4471 0.4766 0.5107 0.5077 0.4887 0.4372 0.4093 0.4208
2690.924 0.4227 0.4235 0.44 0.4405 0.4078 0.4397 0.5414 0.5221 0.529 0.6037
2710.214 0.5721 0.5322 0.5409 0.6044 0.6389 0.5803 0.5544 0.5667 0.6189 0.7067
2729.504 0.7789 0.7737 0.7642 0.7796 0.7669 0.7431 0.7027 0.6828 0.6621 0.6365
2748.794 0.6841 0.7134 0.6942 0.7151 0.6747 0.5779 0.6255 0.7397 0.7181 0.6571
2768.083 0.6285 0.699 0.7631 0.7566 0.7889 0.7976 0.7634 0.7583 0.8106 0.87
2787.373 0.8917 0.8536 0.8672 0.8643 0.8589 0.9205 0.8917 0.8762 0.9327 0.9704
2806.663 1.0244 0.9998 0.9818 1.056 1.1003 1.164 1.234 1.274 1.284 1.384
2825.953 1.494 1.504 1.644 1.704 1.674 1.764 1.854 2.014 2.114 2.094
2845.242 2.264 2.374 2.364 2.474 2.684 2.884 3.024 3.314 3.774 4.134
2864.532 4.524 4.984 5.544 6.214 6.684 7.114 7.574 7.874 8.214 8.464
2883.822 8.664 8.974 9.194 9.334 9.374 9.424 9.494 9.534 9.604 9.654
2903.112 9.684 9.784 9.904 9.984 10.104 10.284 10.484 10.724 10.944 11.154
2922.401 11.434 11.654 11.894 12.274 12.644 12.954 13.314 13.714 14.074 14.414
2941.691 14.784 15.344 15.894 16.484 17.204 18.044 19.014 20.104 21.274 22.214
2960.981 23.004 23.574 23.744 23.604 23.274 22.674 21.654 20.484 19.334 17.914
2980.271 16.174 14.284 12.474 10.794 9.244 7.904 6.704 5.644 4.684 3.974
2999.561 3.404 2.794 2.374 2.184 1.954 1.684 1.534 1.424 1.354 1.314
3018.850 1.154 1.0785 1.0551 0.9773 0.9806 0.9435 0.8423 0.8305 0.8431 0.8654
3038.140 0.8335 0.7705 0.7689 0.8087 0.8132 0.7626 0.7041 0.6818 0.727 0.7831
3057.430 0.8466 0.8365 0.7615 0.7848 0.87 0.8055 0.7816 0.8654 0.8075 0.6074
3076.720 0.5708 0.5971 0.5723 0.6474 0.7226 0.7788 0.6309 0.6135 0.6374 0.5116
3096.009 0.6205 0.6547 0.5832 0.6034 0.7318 0.8046 0.6902 0.6847 0.7116 0.5656
3115.299 0.568 0.6943 0.6851 0.7146 0.6381 0.5136 0.5981 0.6311 0.5421 0.5362
3134.589 0.6981 0.7534 0.7156 0.7072 0.6601 0.6777 0.7155 0.7502 0.7672 0.7474
3153.879 0.6799 0.6677 0.6622 0.6276 0.6697 0.6955 0.6091 0.6073 0.5227 0.4525
3173.169 0.6293 0.7169 0.8028 0.788 0.7901 0.8208 0.7079 0.4793 0.501 0.7449
3192.458 0.76 0.6496 0.592 0.6599 0.6404 0.58 0.6346 0.6466 0.5568 0.5175
3211.748 0.5248 0.4853 0.4982 0.5142 0.4507 0.4596 0.4016 0.4165 0.4905 0.3941
3231.038 0.3719 0.3732 0.3926 0.4209 0.3403 0.2375 0.2439 0.3365 0.3656 0.2918
3250.328 0.20731 0.16756 0.2093 0.2946 0.3282 0.3147 0.20776 0.1588 0.21731 0.2705
3269.617 0.2577 0.2491 0.2971 0.3736 0.481 0.3642 0.2819 0.3686 0.3624 0.2395
3288.907 0.22164 0.2483 0.3097 0.4336 0.4814 0.4513 0.4382 0.5106 0.4041 0.3292
3308.197 0.3648 0.4255 0.3466 0.3175 0.4149 0.3988 0.3293 0.1864 0.15817 0.2842
3327.487 0.4017 0.3927 0.4024 0.4048 0.3352 0.3186 0.3459 0.3321 0.2823 0.356
3346.777 0.4944 0.4358 0.3649 0.395 0.3446 0.3056 0.4594 0.4674 0.3499 0.4079
3366.066 0.3536 0.4158 0.5064 0.4292 0.4753 0.5324 0.5951 0.6836 0.789 0.9149
3385.356 0.9712 1.0458 1.134 1.174 1.184 1.394 1.604 1.664 1.894 2.024
3404.646 2.114 2.334 2.494 2.694 2.794 2.904 3.144 3.384 3.434 3.474
3423.936 3.804 4.174 4.484 4.564 4.624 4.684 4.524 4.354 4.294 4.274
3443.225 4.004 3.654 3.494 3.324 3.014 2.494 2.184 2.014 1.744 1.494
3462.515 1.374 1.344 1.184 0.9614 0.8887 0.8595 0.8081 0.7942 0.8265 0.9459
3481.805 0.9249 0.8158 0.8799 1.0227 0.9717 0.8727 0.9949 1.0669 1.0444 1.134
3501.095 1.264 1.354 1.434 1.464 1.494 1.644 1.784 1.854 1.884 1.934
3520.385 2.074 2.244 2.294 2.174 2.254 2.564 2.644 2.574 2.554 2.674
3539.674 2.754 2.864 3.004 3.104 3.294 3.524 3.654 3.754 3.834 3.814
3558.964 3.844 3.834 3.714 3.524 3.294 3.124 2.934 2.504 2.064 1.734
3578.254 1.444 1.174 0.9025 0.7336 0.6654 0.6081 0.5813 0.6203 0.5636 0.4078
3597.544 0.3066 0.3328 0.347 0.3525 0.4286 0.3094 0.22079 0.3522 0.4207 0.3478
3616.833 0.19469 0.15819 0.20462 0.3168 0.3024 0.2925 0.3991 0.3437 0.2305 0.19747
3636.123 0.19248 0.15722 0.0904 0.0916 0.0244 0.0315 0.2204 0.18254 0.18563 0.17888
3655.413 0.1058 0.0459 0 0.19149 0.3358 0.2676 0.3042 0.4227 0.3017 0.12194
3674.703 0.125602 0.15225 0.11849 0.0945 0.12033 0.130892 0.21189 0.306 0.2623 0.243
3693.993 0.2896 0.17913 0.0906 0.16842 0.2306 0.2455 0.3329 0.283 0.2529 0.3167
3713.282 0.2472 0.2283 0.24 0.20429 0.13894 0.131871 0.12749 0.20106 0.3175 0.2373
3732.572 0.0676 0.0947 0.19181 0.16233 0.0916 0.16976 0.21723 0.17399 0.133133 0.11981
3751.862 0.20419 0.2758 0.3395 0.3139 0.20111 0.20518 0.2409 0.21482 0.2251 0.19718
3771.152 0.15651 0.15256 0.18243 0.3167 0.3889 0.4464 0.3217 0.21564 0.2231 0.0782
3790.441 0.12225 0.2249 0.2669 0.2308 0.1476 0.0767 0.14497 0.3341 0.403 0.3403
3809.731 0.2356 0.2317 0.2869 0.2249 0.15651 0.15287 0.0505 0.0274 0.14343 0.21535
3829.021 0.17024 0.0935 0.1079 0.0775 0.1054 0.20708 0.2709 0.2347 0.13704 0.17958
3848.311 0.18627 0.14611 0.1194 0.124062 0.21282 0.2638 0.3013 0.2347 0.15386 0.14927
3867.601 0.22171 0.2378 0.2728 0.3442 0.133808 0.1124 0.20279 0.123952 0.0967 0.20255
3886.890 0.20015 0.13715 0.22081 0.21045 0.109 0.2359 0.3665 0.4106 0.4314 0.3202
3906.180 0.2836 0.16223 0.0916 0.16203 0.14976 0.17174 0.11841 0.15082 0.2354 0.1045
3925.470 0.127447 0.1105 0.11884 0.15873 0.0454 0.126802 0.2252 0.2701 0.3557 0.3426
3944.760 0.20397 0.20648 0.2611 0.20721 0.2582 0.249 0.14308 0.16713 0.2563 0.2399
3964.049 0.18982 0.129899 0.15295 0.2926 0.3569 0.4068 0.4307 0.4313 0.3446 0.2639
3983.339 0.17829 0.14763 0.20915 0.251 0.331 0.2759 0.2371 0.22183 0.17816 0.14297
##END=
