##TITLE=(2-Methylbutyl)cyclohexane
##JCAMP-DX=4.24
##DATA TYPE=INFRARED SPECTRUM
##ORIGIN=NIST Mass Spectrometry Data Center
##OWNER=NIST Standard Reference Data Program
Collection (C) 2018 copyright by the U.S. Secretary of Commerce
on behalf of the United States of America. All rights reserved.
##CAS REGISTRY NO=54105-77-0
##MOLFORM=C 11 H 22
##$NIST SOURCE=MSDC-IR
##SPECTROMETER/DATA SYSTEM=HP-GC/MS/IRD
##STATE=gas
##XUNITS=1/CM
##YUNITS=ABSORBANCE
##XFACTOR=1.0
##YFACTOR=0.000007300
##DELTAX=4.0
##FIRSTX=550.0
##LASTX=3846.0
##FIRSTY=0.000183
##MAXX=3846
##MINX=550
##MAXY=0.073
##MINY=0
##NPOINTS=825
##XYDATA=(X++(Y..Y))
550.0 25 20 17 29 30 23 18 14 25 23
590.0 10 16 19 21 23 22 18 19 18 13
630.0 8 8 15 16 15 15 21 25 22 22
670.0 21 18 13 16 21 20 18 13 15 17
710.0 16 22 23 19 13 15 18 18 18 19
750.0 23 29 38 50 56 57 62 62 54 43
790.0 36 40 37 29 28 28 31 33 32 35
830.0 47 67 84 89 80 63 47 37 36 41
870.0 44 45 57 73 84 92 99 98 93 81
910.0 72 69 63 55 53 49 44 45 46 51
950.0 63 76 90 108 129 145 146 138 128 116
990.0 107 97 91 88 83 83 79 77 76 70
1030.0 62 53 47 38 35 34 35 34 32 34
1070.0 36 40 43 40 39 41 40 41 44 47
1110.0 47 47 47 45 47 49 55 66 75 87
1150.0 89 87 82 69 57 47 38 35 36 38
1190.0 37 35 34 34 37 36 37 46 48 42
1230.0 43 49 57 66 74 89 110 133 149 157
1270.0 155 142 130 111 96 88 84 81 80 79
1310.0 81 82 83 89 100 111 124 138 154 171
1350.0 182 186 185 199 231 276 332 381 402 380
1390.0 316 239 175 136 117 111 111 115 126 147
1430.0 186 258 374 530 695 834 912 905 841 735
1470.0 603 464 340 247 179 134 108 89 73 58
1510.0 51 47 41 36 36 35 30 28 27 27
1550.0 26 26 23 22 24 25 26 25 27 24
1590.0 21 18 18 17 16 15 14 14 15 18
1630.0 19 17 15 17 15 13 14 15 14 16
1670.0 17 14 13 14 11 13 12 11 11 11
1710.0 10 7 6 8 8 6 6 7 7 6
1750.0 5 6 7 7 5 4 6 6 6 7
1790.0 6 6 7 6 6 7 7 6 5 6
1830.0 7 6 5 5 4 5 5 3 4 4
1870.0 3 2 3 4 4 3 4 5 6 7
1910.0 6 6 5 2 3 4 2 3 3 2
1950.0 2 3 3 2 3 2 1 1 0 0
1990.0 1 1 2 2 2 0 2 5 3 2
2030.0 1 1 2 3 2 2 3 4 5 4
2070.0 2 2 4 4 2 2 1 1 3 5
2110.0 3 2 5 8 7 9 12 10 7 8
2150.0 8 9 11 10 9 10 10 10 8 8
2190.0 9 9 8 7 8 9 9 9 11 10
2230.0 9 10 11 10 7 8 9 10 8 7
2270.0 10 9 10 9 10 11 11 9 9 11
2310.0 9 9 9 7 8 9 10 13 14 14
2350.0 13 14 18 17 19 22 20 17 18 17
2390.0 15 13 13 15 17 18 19 18 19 20
2430.0 20 19 18 17 15 15 14 15 16 16
2470.0 18 18 16 18 23 23 19 15 18 19
2510.0 18 18 20 21 22 26 26 26 26 27
2550.0 28 30 33 36 39 42 45 50 52 54
2590.0 60 63 64 66 69 70 74 77 77 74
2630.0 75 80 82 84 92 102 112 120 126 130
2670.0 129 124 116 109 102 98 99 101 98 98
2710.0 101 102 103 105 106 105 105 106 108 110
2750.0 113 114 114 116 125 135 145 157 173 192
2790.0 208 226 246 260 275 293 320 355 399 463
2830.0 557 706 936 1273 1724 2256 2821 3243 3365 3220
2870.0 2906 2601 2446 2414 2455 2578 2794 3138 3618 4239
2910.0 4987 5846 6866 8063 9243 10000 9938 8996 7430 5735
2950.0 4388 3617 3424 3552 3652 3469 2967 2276 1609 1110
2990.0 799 611 486 398 339 297 263 238 221 203
3030.0 190 184 174 167 161 152 147 139 132 127
3070.0 124 120 117 115 112 108 104 98 94 92
3110.0 84 79 80 76 73 73 74 76 78 77
3150.0 76 77 78 73 68 66 65 63 57 56
3190.0 51 45 40 36 38 39 36 37 34 33
3230.0 35 33 31 28 28 26 24 26 26 25
3270.0 25 24 25 22 22 23 22 23 23 21
3310.0 17 22 25 21 19 21 23 24 24 25
3350.0 26 27 26 27 26 27 30 27 25 24
3390.0 24 23 20 24 24 22 23 23 21 21
3430.0 19 17 15 17 17 15 15 16 17 17
3470.0 15 16 19 17 17 18 20 22 21 18
3510.0 18 20 21 20 20 18 18 17 11 8
3550.0 11 9 7 11 13 15 17 17 17 12
3590.0 12 21 22 20 14 11 13 14 20 21
3630.0 18 16 17 20 22 24 25 25 24 22
3670.0 24 24 24 25 21 20 25 29 29 29
3710.0 29 28 30 27 26 26 24 26 29 26
3750.0 24 28 32 31 26 22 22 24 25 27
3790.0 27 29 28 30 31 30 30 29 31 29
3830.0 28 27 27 28 25
##END=
