##TITLE=Ethyl N,N-diethyloxamate
##JCAMP-DX=4.24
##DATA TYPE=INFRARED SPECTRUM
##ORIGIN=EPA-IR VAPOR PHASE LIBRARY
##OWNER=SRD/NIST
Collection (C) 2018 copyright by the U.S. Secretary of Commerce
on behalf of the United States of America. All rights reserved.
##CAS REGISTRY NO=5411-58-5
##MOLFORM=C 8 H 15 N O 3
##$NIST SOURCE=MSDC-IR
##STATE=gas
##XUNITS=1/CM
##YUNITS=ABSORBANCE
##XFACTOR=1.
##YFACTOR=0.001
##DELTAX=1.92898
##FIRSTX=549.8
##LASTX=4000.7
##FIRSTY=0.5196
##MAXX=4000.7
##MINX=549.759
##MAXY=0.17242
##MINY=0
##NPOINTS=1790
##XYDATA=(X++(Y..Y))
549.759 0.5196 0.2043 0.1909 0.3432 0.1859 0.1201 0.2512 0.2463 0.263 0.2894
569.049 0.039738 0.036895 0.1555 0.2272 0.2082 0.2005 0.3337 0.3184 0.2093 0.167
588.339 0.08625 0.1499 0.3015 0.2613 0.2763 0.5067 0.6249 0.7872 0.807 0.7087
607.628 0.8197 0.8745 0.7432 0.7597 1.0701 1.0701 0.865 1.0701 1.1801 1.2601
626.918 1.4901 1.6901 1.7801 1.8201 1.8501 2.0601 2.4001 2.3801 2.4701 2.5901
646.208 2.5501 2.5401 2.5201 2.5501 2.3601 2.0701 2.0401 2.0001 1.8801 1.7001
665.498 1.7601 1.8301 1.6101 1.5101 1.5701 1.6201 1.6401 1.7501 1.8001 1.8601
684.787 2.0101 2.0601 1.9901 2.1701 2.3701 2.3101 2.3001 2.3001 2.4801 2.6901
704.077 2.8201 3.0301 3.2701 3.4001 3.2501 3.4201 3.8301 3.9601 4.2201 4.5701
723.367 4.7101 4.9801 5.2601 5.3601 5.4301 5.6101 5.8101 5.9701 6.1301 6.0401
742.657 6.0401 6.3101 6.4101 6.4101 6.6301 6.7701 6.6801 6.6101 6.6501 6.5301
761.947 6.3201 6.2701 6.1001 5.9401 5.9801 5.9901 6.0001 6.2501 6.6701 7.0501
781.236 7.7201 8.3901 8.7201 9.1701 9.5201 9.6601 9.5901 9.3201 9.0201 8.5601
800.526 8.0501 7.4301 6.8301 6.4701 6.0001 5.6001 5.3701 5.1001 4.9601 4.9201
819.816 4.9601 5.0001 5.1501 5.4201 5.4901 5.3101 5.1701 5.0201 4.6701 4.1901
839.106 3.7501 3.4901 3.2101 2.8401 2.5501 2.4401 2.3701 2.2801 2.4201 2.6601
858.395 2.9301 3.1501 3.2401 3.3901 3.6401 3.6901 3.4401 3.1201 3.2101 3.1801
877.685 2.7301 2.4801 2.2501 2.1801 2.0701 1.8401 1.9301 2.1501 2.2801 2.5801
896.975 3.0701 3.6001 4.0801 4.5401 4.9901 5.1401 5.1901 5.1801 5.0901 4.7701
916.265 4.2001 3.6501 3.3401 3.0501 2.6801 2.5401 2.4601 2.4301 2.5901 2.8601
935.555 2.9901 3.1301 3.4801 3.5201 3.5401 3.6701 3.6701 3.4101 3.1301 3.0901
954.844 2.8801 2.5901 2.2401 2.0201 2.0501 2.1401 2.0901 2.0901 2.1801 2.2201
974.134 2.2101 2.2601 2.5101 2.6001 2.7001 2.8901 3.1201 3.3201 3.4901 3.8801
993.424 4.3801 4.8101 5.4701 6.2001 6.6601 7.2201 7.9501 8.6901 9.6201 10.4401
1012.714 11.0101 12.0001 13.5401 14.5801 15.6101 16.8101 17.5901 18.2901 18.4601 18.1301
1032.003 17.4901 16.2501 14.8801 13.6701 12.3401 10.9901 9.9401 9.2601 8.7501 8.4701
1051.293 8.3501 8.4001 8.6001 8.8201 9.3201 10.3001 11.2601 12.1601 13.0201 13.5001
1070.583 14.2201 15.1201 15.5201 15.9401 16.7101 17.6501 18.6701 19.5301 20.8701 22.8601
1089.873 25.2501 28.0601 31.4201 35.5901 40.0501 45.0501 51.2601 57.9401 65.4001 73.3601
1109.163 81.0501 89.3201 97.2301 103.31 107 107.93 106.47 102.2 95.0401 85.6801
1128.452 75.3601 65.0701 54.9301 46.0001 38.6701 32.6401 28.1801 24.7201 21.8901 19.8001
1147.742 17.9601 16.7701 15.7801 14.7101 13.9101 13.4201 13.1701 13.1201 13.1401 13.1201
1167.032 13.4201 13.8001 14.3101 14.9101 15.7501 16.9301 18.2201 19.9601 22.2801 25.0601
1186.322 28.4801 32.9201 38.4301 45.0401 53.2401 62.7901 73.2201 84.2301 95.8801 107.85
1205.611 118.2 126.28 131.8 133.88 132.66 128.47 121.33 112.17 101.81 91.0601
1224.901 80.4301 70.3301 61.3401 53.4801 46.5801 40.7501 35.5501 31.0801 27.4501 24.4701
1244.191 22.0101 19.9001 18.3301 16.9001 15.5501 14.5101 13.7801 13.1201 12.5001 12.1601
1263.481 11.9201 11.7201 11.7601 11.9401 12.0801 12.5301 13.3101 14.1201 15.1601 16.3301
1282.771 17.5901 19.0701 20.6301 22.2401 23.8001 25.0601 26.1401 26.8701 27.2001 27.1201
1302.060 26.5401 25.6901 24.5701 23.3101 21.9401 20.5801 19.3201 18.0501 16.7801 15.6101
1321.350 14.5101 13.4101 12.3701 11.4101 10.6101 9.9201 9.3701 8.9901 8.8001 8.8401
1340.640 9.0101 9.3201 9.7701 10.2701 10.8201 11.4301 12.1301 12.9201 13.7401 14.6701
1359.930 15.7601 16.8301 17.7201 18.3401 18.7701 19.0901 19.3401 19.6101 19.8401 20.0401
1379.219 20.3401 20.7601 21.1301 21.3001 21.2801 20.9001 20.1201 19.0101 17.7601 16.5801
1398.509 15.5401 14.7901 14.3201 14.1201 14.3401 14.8301 15.5401 16.5101 17.6301 18.9401
1417.799 20.4301 22.0001 23.6001 25.1401 26.6301 27.9801 29.1301 30.0301 30.6501 30.9301
1437.089 30.9201 30.6501 30.1301 29.4401 28.6501 27.8501 27.0401 26.3201 25.7301 25.3501
1456.378 25.0601 24.7401 24.4801 24.2101 23.8601 23.3201 22.5301 21.6201 20.6501 19.6301
1475.668 18.5101 17.2801 16.0501 14.8301 13.6401 12.3801 11.1401 10.0001 9.0401 8.2001
1494.958 7.4901 6.8201 6.3501 6.0301 5.6701 5.4101 5.1601 4.9101 4.7501 4.5901
1514.248 4.3501 4.1501 4.0501 3.9501 3.8801 3.7801 3.6401 3.5001 3.3701 3.3401
1533.538 3.3001 3.2501 3.2301 3.1601 3.0601 2.9301 2.8201 2.7901 2.7201 2.6901
1552.827 2.6401 2.5601 2.6301 2.6201 2.4901 2.4901 2.5201 2.5501 2.5601 2.5801
1572.117 2.5901 2.5301 2.5801 2.6901 2.6901 2.7501 2.8301 2.8101 2.8601 2.9201
1591.407 2.9301 3.0301 3.1901 3.2101 3.2501 3.3801 3.4301 3.4401 3.6601 3.8001
1610.697 3.8401 3.9601 4.0901 4.3201 4.5601 4.7301 4.9701 5.2301 5.5001 5.8301
1629.986 6.1201 6.4301 6.9001 7.3801 7.8901 8.4901 9.1301 9.7301 10.3101 10.9901
1649.276 11.9301 13.0701 14.3201 15.6301 17.3601 19.6101 22.5801 26.5901 31.7001 38.3201
1668.566 47.0001 57.9901 71.4701 87.3901 105.74 124.54 142.57 157.3 167.28 172.42
1687.856 172.32 166.62 153.58 134.3 111.02 88.4501 69.7401 53.9701 42.8101 34.6401
1707.146 29.1201 25.4501 23.1601 21.7001 20.8601 20.3001 20.0101 19.9201 20.0701 20.5501
1726.435 21.2701 22.3901 24.2601 26.9101 30.6501 35.3001 40.9301 47.7701 55.0601 62.5301
1745.725 69.7101 75.9001 80.3101 82.1101 80.6801 76.5201 70.4701 63.4301 55.8301 48.2401
1765.015 41.1801 34.9101 29.5501 25.2301 21.7501 19.0201 16.9101 15.2501 13.8501 12.6401
1784.305 11.6201 10.7101 9.8901 9.1201 8.4201 7.8201 7.2301 6.6701 6.1501 5.6701
1803.594 5.3401 4.9601 4.5601 4.2401 3.9501 3.6701 3.4601 3.2601 3.0401 2.8901
1822.884 2.7801 2.6301 2.4701 2.3601 2.2901 2.2101 2.1501 2.0701 1.9801 1.8901
1842.174 1.8501 1.8401 1.7901 1.7601 1.7301 1.6901 1.6701 1.6301 1.6401 1.6501
1861.464 1.6101 1.6001 1.5401 1.5001 1.5001 1.4801 1.4101 1.3801 1.3801 1.3301
1880.754 1.3201 1.3201 1.3101 1.3101 1.2801 1.2801 1.2201 1.1701 1.1301 1.1001
1900.043 1.1101 1.0601 1.0009 1.0032 1 0.9356 0.8722 0.8103 0.7761 0.7856
1919.333 0.7547 0.7439 0.7672 0.7562 0.7576 0.7468 0.7232 0.7109 0.7147 0.6836
1938.623 0.6399 0.6379 0.6585 0.6467 0.654 0.6816 0.689 0.6855 0.6788 0.6828
1957.913 0.6206 0.6187 0.6624 0.6753 0.6608 0.6129 0.6166 0.633 0.6116 0.6401
1977.202 0.6812 0.6775 0.6925 0.6963 0.6977 0.6831 0.6929 0.664 0.6465 0.6644
1996.492 0.6345 0.6386 0.6305 0.6037 0.5915 0.5749 0.5726 0.6044 0.5772 0.5578
2015.782 0.5603 0.5782 0.5978 0.5657 0.58 0.6072 0.5811 0.5339 0.529 0.5459
2035.072 0.5678 0.596 0.6273 0.6056 0.609 0.6708 0.7087 0.7156 0.6725 0.6872
2054.362 0.6832 0.6921 0.7371 0.7274 0.7574 0.762 0.8211 0.9026 0.8806 0.8257
2073.651 0.8499 0.8746 0.9136 0.9797 0.9808 0.9702 0.992 0.9514 0.8961 0.9119
2092.941 0.8477 0.8001 0.8043 0.8011 0.7927 0.7412 0.7146 0.7266 0.7041 0.6472
2112.231 0.5896 0.6016 0.6257 0.6032 0.5788 0.5563 0.5619 0.5957 0.5596 0.5083
2131.521 0.5154 0.5325 0.4982 0.457 0.4532 0.4572 0.4996 0.5342 0.4845 0.4374
2150.810 0.4456 0.436 0.4255 0.4404 0.4215 0.4084 0.4404 0.4572 0.4918 0.4842
2170.100 0.4299 0.5064 0.5302 0.438 0.4122 0.4382 0.4862 0.4899 0.4538 0.3883
2189.390 0.3874 0.4409 0.4229 0.401 0.4151 0.3709 0.3704 0.4076 0.4443 0.4644
2208.680 0.446 0.4767 0.5139 0.4914 0.4488 0.4518 0.4438 0.429 0.5021 0.5012
2227.970 0.4622 0.5198 0.5497 0.5559 0.5625 0.5538 0.4955 0.458 0.4512 0.4419
2247.259 0.4295 0.4213 0.4519 0.4928 0.4988 0.4841 0.4547 0.4123 0.4238 0.4604
2266.549 0.4214 0.4142 0.3907 0.3682 0.4373 0.4013 0.3227 0.3477 0.43 0.4256
2285.839 0.3878 0.4465 0.4568 0.4491 0.5059 0.5008 0.487 0.5315 0.5544 0.5283
2305.129 0.5212 0.5489 0.576 0.622 0.6123 0.5737 0.5907 0.6456 0.6525 0.65
2324.418 0.6466 0.6754 0.6863 0.6858 0.7003 0.6179 0.6079 0.5795 0.5473 0.5508
2343.708 0.5604 0.5441 0.5405 0.4938 0.3641 0.3826 0.4479 0.4414 0.4367 0.4412
2362.998 0.4262 0.4466 0.4606 0.4552 0.4105 0.3775 0.4423 0.4594 0.4279 0.4295
2382.288 0.4685 0.5141 0.4816 0.5158 0.5766 0.5458 0.5536 0.5769 0.6324 0.6198
2401.578 0.6411 0.688 0.6329 0.633 0.6573 0.697 0.7095 0.6985 0.7171 0.727
2420.867 0.7114 0.7057 0.6847 0.6587 0.6807 0.6777 0.6605 0.6448 0.6284 0.5965
2440.157 0.5567 0.5334 0.5884 0.6134 0.5297 0.5455 0.5362 0.4384 0.3977 0.445
2459.447 0.4617 0.4246 0.4292 0.4376 0.4842 0.441 0.3878 0.4429 0.4443 0.4146
2478.737 0.3949 0.4101 0.4572 0.4609 0.4453 0.4815 0.5645 0.566 0.495 0.4666
2498.026 0.4284 0.4242 0.426 0.3993 0.4541 0.4648 0.4362 0.5135 0.5406 0.48
2517.316 0.4034 0.3663 0.4726 0.5168 0.4228 0.4594 0.4913 0.4379 0.4392 0.4576
2536.606 0.5544 0.5741 0.5641 0.5826 0.5759 0.5308 0.5469 0.5891 0.5242 0.5219
2555.896 0.5254 0.525 0.4571 0.4031 0.4689 0.5913 0.6161 0.5395 0.4603 0.3991
2575.186 0.4752 0.5514 0.5133 0.5166 0.5358 0.5343 0.5483 0.5316 0.5046 0.4945
2594.475 0.4735 0.4556 0.4165 0.3608 0.3335 0.3378 0.3495 0.3665 0.3486 0.3624
2613.765 0.3845 0.373 0.3784 0.3647 0.3835 0.3424 0.3214 0.3512 0.3779 0.3605
2633.055 0.3571 0.3136 0.2936 0.3304 0.3285 0.3965 0.3962 0.3429 0.3622 0.4503
2652.345 0.5317 0.4962 0.4414 0.4836 0.4702 0.3959 0.3979 0.4214 0.5061 0.5433
2671.634 0.5454 0.558 0.5408 0.5664 0.5491 0.57 0.6656 0.6539 0.5866 0.626
2690.924 0.6984 0.6975 0.6826 0.6677 0.6884 0.713 0.6652 0.7134 0.7751 0.7796
2710.214 0.7839 0.7435 0.6717 0.6993 0.7349 0.7326 0.8238 0.8838 0.8203 0.8613
2729.504 0.8996 0.8089 0.8662 0.9756 1.0093 0.9726 0.9297 0.9376 0.9052 0.9486
2748.794 0.9913 1.0065 1.0901 1.1101 1.1501 1.1501 1.0901 1.0274 0.9955 1.0501
2768.083 1.0901 1.1201 1.1701 1.1501 1.1601 1.2101 1.2401 1.2801 1.2901 1.2801
2787.373 1.3001 1.3401 1.4401 1.5401 1.5901 1.6701 1.7201 1.6801 1.7301 1.8401
2806.663 1.8501 1.8801 1.9301 1.9501 2.0701 2.2001 2.2401 2.2901 2.3001 2.3801
2825.953 2.4801 2.5501 2.6701 2.7201 2.7201 2.8001 2.9201 2.9601 3.0501 3.1901
2845.242 3.2901 3.4501 3.5201 3.7101 3.9601 4.1301 4.3401 4.5701 4.9401 5.3501
2864.532 5.7401 6.2701 6.9001 7.5501 8.2401 9.0601 10.0101 10.9201 11.8101 12.7301
2883.822 13.4701 14.1801 14.7401 14.9601 15.2401 15.4401 15.4501 15.5101 15.5801 15.6201
2903.112 15.7101 15.8701 16.0201 16.2701 16.5601 16.7201 16.8401 17.0301 17.2201 17.3801
2922.401 17.6401 18.1201 18.7901 19.7201 20.9301 22.4801 24.4201 26.6001 28.7701 30.7301
2941.691 32.2901 33.1901 33.4801 33.1401 32.2001 30.8001 29.0401 27.2401 25.7001 24.6401
2960.981 24.2601 24.4401 25.3001 26.8101 28.7401 31.1801 33.9101 36.8901 40.0601 43.0401
2980.271 45.4801 47.3101 48.3201 48.3301 47.3901 45.6901 43.2801 40.3401 37.0201 33.5601
2999.561 30.2701 27.1001 24.0701 21.3001 18.9101 16.7701 14.7401 13.0601 11.7601 10.6301
3018.850 9.5701 8.6301 7.9401 7.3001 6.6501 6.0801 5.6101 5.2501 4.9001 4.7301
3038.140 4.4901 4.0801 3.8601 3.7501 3.4901 3.1901 3.0701 2.8801 2.7301 2.7001
3057.430 2.5901 2.5901 2.5201 2.3601 2.2501 2.2001 2.2601 2.1301 1.8601 1.9301
3076.720 2.0201 1.8401 1.9201 1.9601 1.8101 1.7401 1.7301 1.7901 1.8101 1.7601
3096.009 1.6801 1.7201 1.8601 1.8001 1.5901 1.5601 1.5901 1.5301 1.5101 1.5201
3115.299 1.5901 1.5801 1.5001 1.4701 1.4301 1.4401 1.4201 1.4501 1.4801 1.4401
3134.589 1.4901 1.4601 1.3101 1.2801 1.3701 1.3901 1.3001 1.2801 1.2501 1.1801
3153.879 1.1801 1.3201 1.3301 1.2701 1.2701 1.2401 1.2601 1.2801 1.1901 1.1101
3173.169 1.0701 1.0701 0.9742 0.8862 0.8998 0.8719 0.9315 0.9146 0.8156 0.7596
3192.458 0.7634 0.7343 0.6566 0.5873 0.6319 0.6687 0.631 0.6008 0.527 0.4686
3211.748 0.4611 0.4273 0.3708 0.4049 0.4125 0.3966 0.4474 0.3205 0.251 0.4347
3231.038 0.4347 0.416 0.4522 0.3883 0.3586 0.5015 0.5426 0.4829 0.4146 0.4012
3250.328 0.4465 0.3818 0.2796 0.1709 0.2062 0.2107 0.2316 0.3549 0.3485 0.308
3269.617 0.3345 0.3566 0.3115 0.3115 0.261 0.147 0.1739 0.2026 0.2596 0.335
3288.907 0.3522 0.3014 0.2163 0.2387 0.3232 0.3983 0.477 0.4519 0.3102 0.2311
3308.197 0.1764 0.2402 0.3708 0.3831 0.3443 0.3777 0.4178 0.4653 0.5742 0.5498
3327.487 0.6454 0.7251 0.5003 0.6268 0.8583 0.8879 0.9658 1.0242 1.2201 1.2301
3346.777 1.1501 1.3401 1.5601 1.6001 1.5101 1.4701 1.4801 1.4901 1.5401 1.5101
3366.066 1.3201 1.0901 0.956 0.8441 0.7124 0.6086 0.6361 0.5956 0.5386 0.5489
3385.356 0.5177 0.5363 0.5386 0.4545 0.368 0.3865 0.3838 0.4738 0.5191 0.372
3404.646 0.3414 0.3202 0.243 0.2822 0.3283 0.3648 0.456 0.4478 0.4153 0.4339
3423.936 0.4955 0.5092 0.2999 0.2837 0.4936 0.4644 0.4794 0.4997 0.3719 0.4503
3443.225 0.5415 0.4709 0.4646 0.5442 0.598 0.5659 0.487 0.4625 0.5288 0.6211
3462.515 0.684 0.6995 0.6431 0.665 0.8074 0.8515 0.7931 0.7552 0.7952 0.8484
3481.805 0.8948 0.937 0.9082 0.9255 0.9054 0.8184 0.7455 0.5799 0.5087 0.663
3501.095 0.6434 0.5525 0.5219 0.4458 0.428 0.4942 0.4732 0.3313 0.317 0.2578
3520.385 0.1831 0.2714 0.3334 0.3788 0.3309 0.1685 0.1762 0.274 0.2537 0.2683
3539.674 0.244 0.2021 0.3332 0.3854 0.2839 0.1955 0.1729 0.12378 0.12373 0.09369
3558.964 0.12195 0.2794 0.1893 0.12162 0.2023 0.2287 0.1684 0.11899 0.1517 0.12163
3578.254 0.1539 0.2443 0.2511 0.2184 0.2182 0.2008 0.2152 0.1833 0.12171 0.09518
3597.544 0.08371 0.1477 0.224 0.2285 0.2065 0.11795 0.1484 0.1957 0.05114 0.08407
3616.833 0.1337 0.1909 0.2235 0.227 0.334 0.2714 0.2587 0.2304 0.2271 0.218
3636.123 0.202 0.2382 0.1574 0.1584 0.09872 0.1384 0.246 0.1516 0.11635 0.1749
3655.413 0.11128 0.07719 0.1956 0.2452 0.10191 0.1385 0.252 0.2635 0.2256 0.1435
3674.703 0.1368 0.1613 0.1924 0.087 0.035714 0.1557 0.1892 0.2847 0.4101 0.3432
3693.993 0.1632 0.1692 0.2529 0.227 0.2175 0.2118 0.2134 0.2176 0.1801 0.1737
3713.282 0.183 0.2508 0.2785 0.217 0.1747 0.158 0.1782 0.2243 0.2314 0.153
3732.572 0.2421 0.2943 0.3656 0.4122 0.3957 0.4295 0.3395 0.2106 0.2246 0.2905
3751.862 0.2712 0.2864 0.3029 0.2222 0.1985 0.3524 0.308 0.2105 0.2524 0.2601
3771.152 0.1982 0.2366 0.316 0.3341 0.3876 0.4133 0.3533 0.1459 0.10847 0.2281
3790.441 0.2467 0.2212 0.2781 0.194 0.0705 0.2066 0.3605 0.3427 0.3321 0.2494
3809.731 0.12231 0.2979 0.3544 0.1684 0.04879 0.07003 0.11383 0.2053 0.2494 0.301
3829.021 0.4593 0.3793 0.3386 0.2946 0.2158 0.3393 0.3932 0.2651 0.2244 0.3673
3848.311 0.3347 0.3588 0.4692 0.2851 0.035047 0 0.07932 0.135 0.2014 0.24
3867.601 0.2493 0.2479 0.1649 0.1562 0.2208 0.2597 0.2348 0.151 0.2556 0.3025
3886.890 0.2449 0.33 0.2414 0.1557 0.2325 0.1753 0.1505 0.10052 0.12288 0.3349
3906.180 0.3202 0.2898 0.2827 0.1684 0.1523 0.1985 0.1589 0.1491 0.2105 0.2183
3925.470 0.2366 0.2436 0.2677 0.2497 0.1314 0.12847 0.135 0.2169 0.334 0.2593
3944.760 0.2732 0.3468 0.3141 0.336 0.3131 0.3318 0.4175 0.5049 0.5134 0.4069
3964.049 0.38 0.3486 0.4126 0.3892 0.2827 0.2676 0.2905 0.2822 0.2755 0.3071
3983.339 0.4055 0.4448 0.4343 0.4754 0.4688 0.5391 0.5762 0.4155 0.2819 0.3356
##END=
