##TITLE=3,5-Dimethylphenyl isocyanate
##JCAMP-DX=4.24
##DATA TYPE=INFRARED SPECTRUM
##ORIGIN=EPA-IR VAPOR PHASE LIBRARY
##OWNER=SRD/NIST
Collection (C) 2018 copyright by the U.S. Secretary of Commerce
on behalf of the United States of America. All rights reserved.
##CAS REGISTRY NO=54132-75-1
##MOLFORM=C 9 H 9 N O
##$NIST SOURCE=MSDC-IR
##STATE=gas
##XUNITS=1/CM
##YUNITS=ABSORBANCE
##XFACTOR=1.
##YFACTOR=0.001
##DELTAX=1.92898
##FIRSTX=549.8
##LASTX=4000.7
##FIRSTY=6.713
##MAXX=4000.7
##MINX=549.759
##MAXY=0.801163
##MINY=0
##NPOINTS=1790
##XYDATA=(X++(Y..Y))
549.759 6.713 6.643 6.993 7.003 6.323 5.773 5.293 4.633 5.123 5.333
569.049 4.533 5.323 6.513 6.983 7.813 8.673 8.113 7.183 7.283 7.123
588.339 6.713 6.513 6.163 6.143 6.253 6.273 6.043 5.673 6.413 6.973
607.628 6.823 6.713 6.893 7.243 7.393 7.693 7.433 7.093 7.393 7.463
626.918 7.113 6.573 5.963 5.603 5.353 5.303 5.593 5.723 5.643 6.083
646.208 6.463 6.733 7.703 8.333 9.013 9.793 10.033 10.353 10.543 11.063
665.498 11.833 12.393 13.193 13.933 13.823 13.683 15.173 19.043 20.843 16.733
684.787 12.483 10.653 9.733 8.663 7.133 5.943 4.793 3.593 2.923 2.563
704.077 2.093 1.853 1.783 1.733 1.863 1.743 1.513 1.793 1.803 1.673
723.367 1.613 1.593 1.353 1.16 1.0648 1.0533 1.1225 0.7776 0.6192 0.7221
742.657 0.6714 0.4952 0.3774 0.4062 0.7682 0.8038 0.6796 0.4984 0.23881 0.3417
761.947 0.4501 0.6927 0.6632 0.5332 0.7938 0.935 0.8867 0.6407 0.5313 0.3741
781.236 0.23494 0.5469 0.9229 0.9829 0.7794 0.9389 1.293 1.323 1.0641 0.7988
800.526 0.5496 0.7195 0.8822 0.7998 1.233 1.483 1.813 2.193 2.243 2.413
819.816 3.143 3.923 5.003 7.093 9.153 11.863 14.313 16.683 19.403 22.683
839.106 27.823 33.563 35.143 29.423 23.243 20.823 19.013 16.523 14.063 11.923
858.395 9.783 7.633 6.143 5.213 4.513 4.333 4.643 5.233 5.503 5.613
877.685 6.323 7.323 8.413 10.383 11.903 12.693 14.593 17.223 19.863 22.073
896.975 23.813 24.653 24.753 24.443 23.353 21.223 17.953 14.063 9.923 6.413
916.265 4.383 3.463 2.873 2.433 2.183 1.983 1.703 1.713 2.013 2.093
935.555 1.893 2.273 2.913 3.113 3.223 3.473 3.563 3.413 3.833 4.043
954.844 3.783 3.713 3.493 3.063 2.903 2.543 2.323 2.623 2.623 2.893
974.134 3.553 4.013 4.403 4.823 5.283 5.473 5.753 6.203 6.593 6.933
993.424 6.513 5.923 5.723 5.513 5.383 5.253 4.803 4.463 3.853 3.133
1012.714 2.483 2.033 2.123 1.733 1.573 1.953 2.443 2.453 1.613 1.403
1032.003 1.653 2.143 2.533 2.623 2.883 2.863 2.653 2.233 2.113 2.643
1051.293 3.003 2.773 2.993 3.673 3.603 3.333 2.753 2.233 2.193 1.353
1070.583 1.136 1.833 1.353 0.6416 0.6667 0.5501 0.808 1.021 1.433 1.623
1089.873 0.9818 1.413 1.763 2.543 3.113 3.773 4.993 5.593 6.053 6.783
1109.163 7.893 9.013 10.193 10.373 9.943 9.223 8.453 7.303 5.773 5.053
1128.452 5.823 5.533 4.763 3.763 2.813 2.983 2.283 2.303 3.293 3.493
1147.742 2.993 3.003 3.633 3.373 3.213 3.303 2.703 3.193 3.063 2.253
1167.032 2.493 2.753 2.053 1.523 1.433 0.749 0.1595 0.5816 1.713 1.243
1186.322 0.6628 1.753 2.213 1.913 2.213 2.223 2.263 2.343 1.1158 0.3385
1205.611 1.643 2.853 2.613 2.753 3.013 2.123 1.783 2.143 1.983 1.703
1224.901 1.273 0.958 1.563 1.913 1.943 1.933 2.093 2.523 3.103 3.573
1244.191 3.423 3.803 4.443 4.673 5.423 6.423 7.963 9.643 11.553 12.503
1263.481 12.243 12.303 12.053 11.133 9.623 7.983 6.723 5.783 4.573 3.903
1282.771 3.683 3.383 3.083 2.903 2.983 3.073 3.233 3.383 3.153 2.863
1302.060 2.863 2.753 2.653 2.823 2.843 2.713 2.713 2.723 2.713 2.703
1321.350 2.633 2.603 2.703 2.733 2.683 2.733 2.763 2.773 2.763 2.833
1340.640 2.883 2.983 3.073 3.053 3.163 3.243 3.403 3.573 3.533 3.513
1359.930 3.663 3.843 4.093 4.333 4.503 4.743 4.963 5.173 5.433 5.673
1379.219 5.833 5.863 5.813 5.853 5.873 5.643 5.413 5.243 5.153 5.203
1398.509 5.253 5.203 5.183 5.243 5.263 5.133 5.073 5.163 5.283 5.403
1417.799 5.733 6.123 6.423 6.813 7.163 7.623 7.993 8.123 8.293 8.523
1437.089 8.633 8.683 8.683 8.583 8.673 8.783 8.793 8.893 9.053 9.313
1456.378 9.603 9.713 9.993 10.423 10.773 11.193 11.673 12.153 12.843 13.803
1475.668 14.913 16.233 17.533 18.833 20.123 21.343 22.533 23.603 24.383 24.873
1494.958 25.013 24.863 24.383 23.803 23.163 22.273 21.223 20.133 19.113 18.183
1514.248 17.473 16.693 15.863 15.503 15.453 15.363 15.263 15.283 15.443 15.543
1533.538 15.763 16.053 16.143 16.163 16.083 15.943 15.803 15.633 15.343 15.113
1552.827 15.093 14.993 14.883 15.003 15.513 16.043 16.663 17.693 19.103 20.943
1572.117 22.843 25.043 27.663 30.183 32.763 35.353 37.823 40.663 43.603 47.043
1591.407 51.663 57.473 64.723 73.743 84.143 94.703 103.603 109.593 111.513 107.973
1610.697 99.783 87.873 73.683 57.943 43.603 32.503 23.683 17.433 13.213 10.233
1629.986 8.263 7.133 6.313 5.443 4.743 4.373 3.883 3.543 3.533 3.583
1649.276 3.463 3.273 3.313 3.363 3.323 3.323 3.373 3.303 3.193 2.983
1668.566 2.743 2.663 2.593 2.503 2.333 2.073 1.953 2.013 1.923 1.743
1687.856 1.733 1.813 1.803 1.773 1.983 2.103 2.013 2.013 2.103 2.133
1707.146 2.023 2.093 2.253 2.423 2.563 2.523 2.523 2.603 2.593 2.563
1726.435 2.643 2.753 2.783 2.913 3.003 2.923 2.943 2.953 2.903 2.793
1745.725 2.693 2.593 2.313 2.083 2.023 1.873 1.813 1.823 1.693 1.603
1765.015 1.613 1.553 1.443 1.353 1.343 1.1328 0.9001 0.9533 0.9562 0.8874
1784.305 0.787 0.7627 0.8337 0.8695 0.8618 0.8645 0.8228 0.798 0.8459 0.8694
1803.594 0.8652 0.8564 0.7522 0.5839 0.6002 0.7508 0.8461 0.8618 0.9515 0.9884
1822.884 0.8692 0.8118 0.8913 0.9969 1.0312 1.0289 0.957 0.8005 0.7621 0.7615
1842.174 0.7315 0.7656 0.9165 0.9532 0.7538 0.7812 0.8771 0.7421 0.689 0.7507
1861.464 0.7704 0.7649 0.7852 0.8058 0.7562 0.7859 0.8006 0.8183 0.8404 0.8023
1880.754 0.8079 0.8889 1.0794 1.253 1.223 1.0501 1.0866 1.1483 1.126 1.233
1900.043 1.363 1.323 1.243 1.1372 1.0757 1.1931 1.195 1.1476 1.0882 1.0221
1919.333 0.9469 1.0047 0.9631 0.8967 0.9053 0.9572 1.143 1.1982 1.1474 1.1323
1938.623 1.1202 1.043 0.9587 0.919 0.9148 1.0385 1.0742 0.9574 0.9229 0.9046
1957.913 0.9168 0.7584 0.627 0.6402 0.7375 0.7634 0.7177 0.7273 0.7768 0.8021
1977.202 0.7595 0.7679 0.7796 0.8483 0.8179 0.8094 0.8153 0.731 0.8057 0.7789
1996.492 0.8014 1.0159 0.9675 0.8336 0.9825 1.1688 1.263 1.333 1.333 1.263
2015.782 1.253 1.2159 1.185 1.243 1.273 1.293 1.363 1.473 1.453 1.353
2035.072 1.433 1.513 1.513 1.593 1.503 1.403 1.563 1.703 1.753 1.833
2054.362 1.783 1.833 2.073 2.163 2.143 2.183 2.323 2.393 2.413 2.513
2073.651 2.693 2.773 2.743 3.013 3.283 3.373 3.483 3.683 3.823 4.023
2092.941 4.253 4.433 4.653 4.643 4.753 4.883 5.093 5.313 5.283 5.273
2112.231 5.483 5.963 6.273 6.523 6.843 7.163 7.673 8.303 8.883 9.483
2131.521 10.293 11.243 12.103 13.143 14.373 15.533 16.693 17.803 18.863 19.903
2150.810 20.903 21.713 22.133 22.433 22.673 22.543 22.333 22.133 22.033 21.873
2170.100 21.893 21.993 22.183 22.563 22.803 23.503 24.433 25.343 26.633 28.233
2189.390 29.843 31.643 33.603 35.903 38.563 41.523 44.603 47.823 51.103 54.123
2208.680 57.153 60.093 62.753 65.153 67.443 69.533 71.493 73.573 75.893 78.393
2227.970 81.303 84.963 89.503 95.243 102.463 111.303 121.813 134.263 149.273 167.053
2247.259 188.533 214.723 245.853 283.583 329.223 383.033 446.293 517.973 593.973 667.313
2266.549 727.743 771.193 797.293 801.163 779.653 735.113 671.423 594.113 510.173 426.793
2285.839 349.703 282.963 228.543 186.633 155.673 132.743 116.103 104.543 96.203 89.913
2305.129 84.923 80.683 76.633 72.883 69.973 67.753 65.983 64.343 62.953 62.133
2324.418 62.053 62.333 62.933 63.863 64.663 65.083 65.053 64.593 63.833 62.833
2343.708 61.313 59.733 58.603 57.963 58.213 59.333 60.903 62.283 63.203 62.853
2362.998 60.703 57.153 52.803 48.133 43.063 37.863 32.883 28.393 24.783 21.813
2382.288 19.623 18.033 16.783 16.013 15.383 14.793 14.303 13.873 13.273 12.663
2401.578 12.243 11.833 11.153 10.693 10.333 9.733 9.383 9.023 8.623 8.323
2420.867 8.013 7.723 7.433 7.113 6.713 6.443 6.233 6.093 5.963 5.683
2440.157 5.393 5.193 5.203 5.183 4.993 4.873 4.923 4.773 4.453 4.443
2459.447 4.353 3.993 3.813 3.593 3.403 3.403 3.323 3.163 3.043 2.913
2478.737 2.633 2.593 2.663 2.433 2.163 2.053 2.003 2.083 2.153 1.973
2498.026 1.913 1.953 1.973 1.903 1.743 1.743 1.753 1.583 1.443 1.553
2517.316 1.573 1.483 1.383 1.323 1.323 1.253 1.2142 1.1698 1.0674 1.0737
2536.606 1.273 1.343 1.363 1.333 1.303 1.233 1.243 1.323 1.313 1.273
2555.896 1.1294 0.9864 0.7072 0.7444 1.0907 1.0542 1.0304 1.1364 0.8765 0.6187
2575.186 0.761 0.8338 0.8158 0.9806 0.8941 0.8865 1.1009 0.9834 0.6944 0.7068
2594.475 0.7813 0.7383 0.8121 0.9174 0.7798 0.6378 0.8075 0.9738 0.9252 0.7637
2613.765 0.7625 0.816 0.9424 0.846 0.69 0.8261 0.8606 0.8095 0.637 0.6038
2633.055 0.8013 0.9003 0.9585 0.8288 0.717 0.8458 0.9369 0.8773 0.6987 0.8405
2652.345 0.9611 0.6531 0.7414 0.6725 0.5362 0.6508 0.6027 0.5824 0.6449 0.8483
2671.634 0.766 0.7534 0.8328 0.8402 0.86 0.8762 0.7427 0.7233 0.9612 1.0326
2690.924 1.1254 1.2088 1.1874 1.363 1.593 1.643 1.683 1.853 1.983 2.133
2710.214 2.263 2.353 2.733 2.943 3.053 3.003 2.973 3.143 2.973 2.823
2729.504 2.933 2.703 2.683 2.803 2.643 2.553 2.693 2.653 2.393 2.373
2748.794 2.463 2.333 2.083 1.953 1.853 1.503 1.303 1.353 1.1879 1.283
2768.083 1.423 1.2203 1.1556 1.313 1.303 1.169 1.1455 1.403 1.483 1.283
2787.373 1.343 1.473 1.403 1.313 1.1856 1.443 1.863 1.793 1.783 1.693
2806.663 1.663 1.903 2.113 2.103 1.893 1.803 2.033 2.113 2.083 2.343
2825.953 2.433 2.413 2.413 2.633 2.853 2.863 2.843 3.033 3.343 3.483
2845.242 3.783 4.163 4.613 4.803 5.123 5.783 6.583 7.583 8.423 9.283
2864.532 10.213 10.833 11.433 12.183 12.353 12.303 12.173 12.043 11.843 11.323
2883.822 10.903 10.843 10.533 10.013 9.833 9.633 9.663 10.143 10.543 11.063
2903.112 11.433 11.973 13.103 14.123 14.983 15.983 17.343 19.103 20.823 22.773
2922.401 25.203 27.073 28.733 30.413 31.223 31.593 31.863 31.473 30.303 28.663
2941.691 26.703 24.403 22.063 19.923 17.873 15.933 14.363 13.123 12.123 11.143
2960.981 10.763 10.113 9.303 8.793 8.063 7.713 7.653 7.543 7.463 7.403
2980.271 7.363 7.583 7.713 7.873 8.443 9.243 9.553 9.713 10.173 10.473
2999.561 10.523 10.503 10.713 11.073 11.533 11.723 12.063 12.863 13.653 14.623
3018.850 15.343 15.853 16.543 17.173 17.273 17.183 16.973 16.713 16.843 16.693
3038.140 16.723 16.573 16.083 15.853 15.663 15.593 15.543 15.283 14.713 14.023
3057.430 13.293 12.303 11.133 10.153 9.063 7.853 7.133 6.683 5.773 4.773
3076.720 4.303 4.223 4.003 3.803 3.653 3.503 3.453 2.983 2.773 2.743
3096.009 2.393 2.233 2.373 2.353 2.223 2.133 1.983 1.813 1.703 1.613
3115.299 1.463 1.503 1.633 1.383 1.2081 1.253 1.303 1.423 1.1563 1.0592
3134.589 1.0672 1.0959 1.243 1.0328 1.393 1.643 1.463 1.773 2.053 2.183
3153.879 2.373 2.623 2.853 3.143 3.383 3.523 3.493 3.853 4.273 4.293
3173.169 4.373 4.223 3.983 3.723 3.203 3.013 2.763 2.333 1.913 1.703
3192.458 1.583 1.373 1.453 1.463 1.413 1.233 0.845 1.0112 1.263 1.0521
3211.748 0.9614 1.0386 0.9737 1.233 1.2169 0.8983 1.0214 0.9401 0.962 1.1298
3231.038 1.263 1.243 1.1857 1.223 1.0856 1.0958 1.1719 0.9967 0.7456 0.5024
3250.328 0.7766 1.1942 0.9937 1.0091 1.2046 0.8261 0.9053 1.1019 1.0551 0.8405
3269.617 0.6343 1.0815 1.132 0.9504 0.7895 0.6949 0.7886 0.6402 0.6669 0.7639
3288.907 0.5709 0.5047 0.7162 0.7464 0.697 0.6841 0.7369 0.9533 0.8936 0.709
3308.197 0.5791 0.559 0.6079 0.505 0.227128 0.4248 0.7548 0.7593 0.7419 0.6763
3327.487 0.5175 0.4956 0.7502 0.7594 0.523 0.5826 0.7805 0.6089 0.629 0.7088
3346.777 0.6173 0.3629 0.4616 0.8732 0.7415 0.7427 0.9822 0.9596 1.0228 1.2162
3366.066 1.353 1.513 1.613 1.493 1.353 1.483 1.643 1.663 1.743 1.633
3385.356 1.623 1.683 1.563 1.763 2.003 1.983 2.183 2.193 2.253 2.463
3404.646 2.203 1.933 1.903 1.723 1.473 1.513 1.1963 1.199 1.1244 0.9681
3423.936 1.1026 0.9723 0.9998 0.6598 0.4791 0.7917 0.9059 0.8277 0.5198 0.4533
3443.225 0.671 0.7537 0.5244 0.6573 0.8501 0.6662 0.4603 0.30337 0.4936 0.7716
3462.515 0.5345 0.5274 0.9676 0.9328 0.8018 0.4933 0.619 1.0431 1.1368 0.9575
3481.805 0.6341 0.7049 1.0641 1.2158 0.9632 0.7866 0.9498 1.1621 1.313 1.283
3501.095 1.085 1.2034 1.283 1.303 1.533 1.553 1.533 1.933 2.173 2.143
3520.385 2.623 2.773 2.683 2.793 3.053 3.233 3.053 3.093 3.113 2.883
3539.674 2.653 2.493 2.243 2.053 1.923 1.673 1.553 1.243 0.9959 0.9033
3558.964 0.576 0.4548 0.6239 0.8281 1.2224 1.483 1.0052 0.8196 1.1449 1.1935
3578.254 1.1641 1.243 1.503 1.593 1.253 0.6397 0.7951 1.343 1.273 1.1444
3597.544 1.223 1.343 1.523 1.413 1.253 1.333 1.253 1.503 1.433 1.313
3616.833 1.363 1.403 1.653 1.613 1.443 1.413 1.403 1.543 1.713 1.573
3636.123 1.553 1.703 1.693 1.653 2.033 2.033 2.023 2.073 2.103 2.033
3655.413 1.933 2.033 1.533 1.663 2.223 2.203 1.893 2.003 2.323 2.203
3674.703 1.843 1.973 2.313 2.203 2.273 2.463 2.603 2.613 2.493 2.583
3693.993 2.413 2.173 2.293 2.333 2.373 2.103 1.803 1.513 1.473 1.793
3713.282 1.653 1.323 1.263 1.513 1.823 2.043 1.773 1.663 1.803 1.963
3732.572 2.033 2.303 2.453 2.103 2.213 2.493 2.583 2.503 2.623 2.953
3751.862 2.823 2.313 2.203 2.573 2.513 2.383 2.283 2.253 2.223 2.213
3771.152 2.073 1.853 1.763 1.703 1.753 1.513 1.483 1.553 1.453 1.553
3790.441 1.603 1.263 1.038 1.1859 1.433 1.373 1.253 1.233 1.1846 1.0262
3809.731 0.9647 1.1026 0.9684 0.8102 0.8894 0.9612 1.0734 1.0915 0.7247 0.8236
3829.021 0.9704 0.8028 0.7344 0.7328 0.7164 0.7047 0.4858 0.3965 0.5541 0.4025
3848.311 0.5361 0.8501 0.7068 0.5604 0.8385 0.8744 0.6201 0.28294 0.413 0.5294
3867.601 0.8077 1.14 0.712 0.1857 0.3155 0.8168 0.803 0.8535 0.6149 0.3809
3886.890 0.6227 0.3321 0.30144 0.6957 0.9195 0.8621 0.4562 0.4435 0.5962 0.8276
3906.180 0.8636 0.8153 0.7486 0.6518 0.5031 0.1387 0.28491 0.3353 0.4056 0.8179
3925.470 0.5547 0.29687 0.6826 0.29238 0.1642 0.25939 0.1623 0.4876 0.25202 0.3763
3944.760 0.7484 0.612 0.30624 0.2498 0.3442 0.1923 0.30899 0.389 0.3607 0.6212
3964.049 0.4577 0.32218 0.5461 0.4407 0.30119 0.3304 0.491 0.5791 0.8874 0.768
3983.339 0.5187 0.5701 0.4791 0.403 0.25603 0.3882 0.23944 0 0.3399 0.397
##END=
