##TITLE=1-Bromo-2-(methoxyethoxy)ethane
##JCAMP-DX=4.24
##DATA TYPE=INFRARED SPECTRUM
##ORIGIN=EPA-IR VAPOR PHASE LIBRARY
##OWNER=SRD/NIST
Collection (C) 2018 copyright by the U.S. Secretary of Commerce
on behalf of the United States of America. All rights reserved.
##CAS REGISTRY NO=54149-17-6
##MOLFORM=C 5 H 11 Br O 2
##$NIST SOURCE=MSDC-IR
##STATE=gas
##XUNITS=1/CM
##YUNITS=ABSORBANCE
##XFACTOR=1.
##YFACTOR=0.001
##DELTAX=1.92934
##FIRSTX=549.9
##LASTX=3999.5
##FIRSTY=4.13
##MAXX=3999.53
##MINX=549.863
##MAXY=0.18081
##MINY=0
##NPOINTS=1789
##XYDATA=(X++(Y..Y))
549.863 4.13 4.23 4.28 4.33 4.42 4.47 4.5 4.65 4.86 5.23
569.156 5.53 5.74 6 6.25 6.4 6.47 6.56 6.47 6.24 5.8
588.450 5.37 5.09 4.7 4.17 3.53 3.11 2.9207 2.6965 2.4287 2.3088
607.743 2.2241 2.02748 1.99494 1.92954 1.8509 1.9147 1.9396 1.94587 2.00032 2.0417
627.037 2.1708 2.3093 2.3338 2.4569 2.6279 3 3.38 3.64 4.01 4.48
646.330 5.14 5.84 6.63 7.55 8.47 9.54 10.66 11.72 12.73 13.67
665.624 14.36 14.64 14.69 14.31 13.52 12.52 11.43 10.26 8.97 7.82
684.917 6.88 6.03 5.31 4.76 4.24 3.8 3.47 3.24 3.09 2.97
704.210 2.7491 2.5465 2.4358 2.2882 2.2039 2.1125 2.0388 2.0433 1.93714 1.799
723.504 1.748 1.759 1.755 1.666 1.61 1.65 1.578 1.5 1.547 1.514
742.797 1.511 1.562 1.626 1.715 1.765 1.798 1.802 1.8795 1.95749 2.02128
762.091 2.1068 2.168 2.2607 2.3422 2.4088 2.5221 2.6563 2.7032 2.7149 2.7871
781.384 2.8333 2.9034 2.98 3.03 3.14 3.14 3.12 3.19 3.23 3.25
800.678 3.31 3.44 3.56 3.67 3.82 3.96 4.17 4.42 4.71 5.02
819.971 5.24 5.53 5.96 6.33 6.65 6.94 7.16 7.42 7.65 7.82
839.264 7.94 8.05 8.17 8.29 8.37 8.38 8.42 8.49 8.5 8.49
858.558 8.47 8.45 8.43 8.48 8.57 8.7 8.79 8.82 8.86 8.96
877.851 9.03 8.94 8.8 8.82 8.77 8.64 8.63 8.6 8.58 8.58
897.145 8.58 8.52 8.51 8.57 8.64 8.7 8.74 8.82 8.88 8.95
916.438 9.1 9.23 9.38 9.59 9.73 9.92 10.21 10.45 10.66 10.88
935.732 11.07 11.26 11.47 11.64 11.87 12.13 12.35 12.52 12.6 12.72
955.025 12.89 12.94 13.01 13.08 13.11 13.18 13.34 13.58 13.87 14.17
974.318 14.48 14.89 15.32 15.75 16.15 16.45 16.73 17.05 17.33 17.55
993.612 17.72 17.85 18.06 18.32 18.52 18.77 19.09 19.49 19.96 20.46
1012.905 21.02 21.64 22.32 23.07 23.78 24.5 25.17 25.75 26.21 26.51
1032.199 26.67 26.66 26.53 26.29 25.93 25.47 24.96 24.48 24.04 23.66
1051.492 23.38 23.21 23.19 23.37 23.81 24.45 25.27 26.39 27.75 29.41
1070.786 31.4 33.75 36.49 39.74 43.42 47.56 52.45 57.83 63.66 70.14
1090.079 77.01 84.3 92.13 100.24 108.56 117.32 126.3 135.23 144.2 152.89
1109.372 160.87 167.74 173.25 177.37 179.93 180.81 180.14 178.04 174.75 170.5
1128.666 165.48 160.07 154.29 148 141.42 134.7 127.7 120.5 113.12 105.64
1147.959 98.24 90.94 84.07 77.6 71.55 66.12 61.2 56.93 53.09 49.69
1167.253 46.94 44.63 42.68 41.31 40.42 39.88 39.78 40.07 40.6 41.49
1186.546 42.27 42.98 44.05 44.79 45.22 45.56 45.64 45.39 44.63 43.33
1205.840 41.98 40.83 39.32 37.46 35.38 33.24 31.47 30.07 28.63 26.86
1225.133 25.55 24.59 23.77 23.29 22.67 21.87 21.17 20.54 20.08 19.57
1244.426 19.12 18.89 18.7 18.39 18.1 18.07 18.09 18.14 18.28 18.71
1263.720 19.33 19.88 20.71 21.68 22.66 23.58 24.34 25.12 25.66 25.97
1283.013 26.14 26.02 25.69 25.19 24.43 23.55 22.47 21.25 20.01 18.82
1302.307 17.6 16.36 15.2 14.08 13.16 12.35 11.65 11.17 10.81 10.54
1321.600 10.46 10.54 10.67 10.8 11 11.21 11.38 11.56 11.81 12.13
1340.894 12.68 13.52 14.61 16.05 17.8 19.66 21.32 22.53 23.09 23.06
1360.187 22.47 21.3 19.68 17.77 15.89 14.28 13.07 12.19 11.57 11.1
1379.480 10.68 10.27 9.85 9.42 8.97 8.53 8.14 7.82 7.52 7.22
1398.774 6.96 6.76 6.61 6.52 6.47 6.49 6.59 6.79 7.1 7.52
1418.067 8.19 9.05 9.93 10.73 11.36 11.86 12.3 12.67 12.89 13
1437.361 13.19 13.59 14.27 15.08 15.91 16.75 17.58 18.32 18.95 19.3
1456.654 19.52 19.71 19.68 19.51 19.11 18.45 17.64 16.75 15.82 14.8
1475.948 13.72 12.71 11.71 10.8 10.03 9.24 8.46 7.78 7.15 6.61
1495.241 6.13 5.65 5.25 4.9 4.59 4.37 4.16 3.93 3.73 3.58
1514.534 3.42 3.28 3.23 3.17 3.1 2.99 2.8921 2.8328 2.7826 2.7494
1533.828 2.7159 2.6227 2.5978 2.6558 2.5896 2.4669 2.4181 2.3976 2.3577 2.3225
1553.121 2.336 2.3451 2.3444 2.2739 2.1539 2.1523 2.1691 2.1715 2.1492 2.0947
1572.415 2.057 2.0746 2.1045 2.0746 2.056 2.0392 1.97556 1.93695 1.92798 1.9065
1591.708 1.8664 1.8495 1.8899 1.8954 1.8455 1.8474 1.8561 1.8623 1.8546 1.8582
1611.002 1.8836 1.8802 1.87 1.8311 1.818 1.8304 1.8601 1.82 1.79 1.782
1630.295 1.777 1.811 1.788 1.769 1.729 1.741 1.762 1.785 1.824 1.798
1649.588 1.758 1.786 1.79 1.673 1.637 1.658 1.657 1.653 1.632 1.603
1668.882 1.613 1.611 1.58 1.625 1.639 1.587 1.575 1.611 1.638 1.588
1688.175 1.566 1.557 1.533 1.547 1.575 1.548 1.574 1.571 1.536 1.516
1707.469 1.452 1.405 1.429 1.484 1.481 1.449 1.415 1.381 1.382 1.412
1726.762 1.372 1.325 1.338 1.413 1.403 1.331 1.285 1.265 1.27 1.264
1746.056 1.288 1.303 1.339 1.371 1.345 1.313 1.293 1.272 1.318 1.321
1765.349 1.282 1.31 1.289 1.294 1.324 1.302 1.271 1.272 1.31 1.345
1784.642 1.362 1.332 1.287 1.287 1.329 1.378 1.368 1.328 1.335 1.32
1803.936 1.325 1.344 1.302 1.257 1.221 1.225 1.275 1.283 1.276 1.271
1823.229 1.247 1.282 1.31 1.32 1.343 1.363 1.363 1.336 1.343 1.314
1842.523 1.298 1.341 1.352 1.347 1.374 1.404 1.371 1.391 1.434 1.428
1861.816 1.422 1.447 1.466 1.476 1.492 1.505 1.527 1.51 1.539 1.568
1881.110 1.605 1.642 1.651 1.721 1.777 1.781 1.77 1.771 1.826 1.8894
1900.403 1.93597 1.97177 1.97853 1.97706 2.00521 2.0632 2.1067 2.1193 2.1801 2.2193
1919.696 2.226 2.2873 2.31 2.3265 2.369 2.425 2.4524 2.4632 2.4682 2.4837
1938.990 2.5081 2.5152 2.5248 2.577 2.6668 2.6769 2.679 2.6886 2.665 2.6751
1958.283 2.7189 2.7272 2.7237 2.7252 2.7271 2.764 2.7666 2.7085 2.677 2.7091
1977.577 2.709 2.6781 2.6826 2.7165 2.7381 2.7533 2.7257 2.6866 2.7109 2.7204
1996.870 2.7113 2.7117 2.6989 2.6876 2.7226 2.7272 2.689 2.7004 2.6706 2.6378
2016.164 2.6544 2.666 2.6809 2.6946 2.6912 2.6605 2.6566 2.7358 2.8008 2.7854
2035.457 2.7784 2.7856 2.7996 2.8233 2.8461 2.8424 2.8629 2.8911 2.8564 2.8649
2054.750 2.9024 2.8967 2.8718 2.8732 2.9092 2.91 2.8741 2.8554 2.8379 2.8347
2074.044 2.8644 2.8254 2.7774 2.7584 2.7656 2.7951 2.7899 2.7497 2.7352 2.7667
2093.337 2.7479 2.6777 2.6585 2.6979 2.7059 2.6656 2.6511 2.647 2.6058 2.588
2112.631 2.5974 2.6065 2.5747 2.5808 2.5828 2.578 2.5789 2.5252 2.4985 2.4604
2131.924 2.4429 2.4596 2.439 2.4032 2.3773 2.3698 2.3735 2.3638 2.3426 2.285
2151.218 2.249 2.2529 2.2413 2.1783 2.1299 2.1538 2.161 2.1526 2.1171 2.076
2170.511 2.0798 2.0612 2.02504 2.0331 2.0467 2.00933 2.00653 2.0339 2.0337 2.00456
2189.804 1.97244 1.96201 1.98359 1.99967 1.95688 1.93432 1.93142 1.92657 1.94429 1.9405
2209.098 1.9141 1.95104 1.97337 1.9084 1.8698 1.8813 1.8837 1.9035 1.93151 1.9042
2228.391 1.8696 1.8968 1.8851 1.845 1.8481 1.8584 1.8712 1.84 1.8445 1.8568
2247.685 1.819 1.802 1.765 1.76 1.786 1.776 1.777 1.762 1.745 1.742
2266.978 1.734 1.752 1.749 1.71 1.672 1.664 1.669 1.656 1.632 1.616
2286.272 1.639 1.658 1.653 1.654 1.669 1.618 1.592 1.628 1.625 1.591
2305.565 1.573 1.6 1.594 1.54 1.568 1.664 1.635 1.573 1.56 1.593
2324.858 1.609 1.569 1.593 1.604 1.598 1.624 1.623 1.633 1.611 1.591
2344.152 1.641 1.615 1.575 1.596 1.611 1.605 1.595 1.587 1.606 1.635
2363.445 1.609 1.569 1.558 1.575 1.605 1.596 1.582 1.583 1.576 1.58
2382.739 1.579 1.58 1.598 1.593 1.579 1.585 1.599 1.596 1.581 1.626
2402.032 1.656 1.622 1.591 1.597 1.574 1.544 1.574 1.617 1.62 1.57
2421.326 1.48 1.473 1.558 1.579 1.553 1.532 1.523 1.542 1.526 1.51
2440.619 1.504 1.488 1.476 1.45 1.487 1.521 1.536 1.503 1.488 1.528
2459.912 1.512 1.475 1.491 1.534 1.513 1.488 1.486 1.491 1.497 1.494
2479.206 1.534 1.524 1.483 1.493 1.49 1.517 1.53 1.513 1.517 1.505
2498.499 1.518 1.524 1.521 1.509 1.488 1.441 1.405 1.439 1.515 1.515
2517.793 1.481 1.496 1.499 1.457 1.408 1.414 1.428 1.492 1.529 1.464
2537.086 1.505 1.568 1.557 1.596 1.624 1.571 1.546 1.55 1.51 1.536
2556.380 1.551 1.562 1.625 1.653 1.662 1.651 1.622 1.641 1.617 1.634
2575.673 1.687 1.709 1.733 1.801 1.8772 1.9113 1.93845 1.9118 1.93644 1.9181
2594.966 1.93122 1.98959 1.98097 1.99621 2.0633 2.1558 2.159 2.1189 2.1169 2.0988
2614.260 2.0788 2.1114 2.1607 2.1681 2.1321 2.1139 2.1785 2.1986 2.1898 2.2293
2633.553 2.2689 2.2677 2.2899 2.3534 2.3802 2.4034 2.4043 2.4488 2.5083 2.5809
2652.847 2.6462 2.628 2.6111 2.7027 2.7373 2.6762 2.7169 2.7847 2.8127 2.8298
2672.140 2.798 2.8696 2.96 2.8955 2.8849 2.99 3.14 3.25 3.34 3.4
2691.434 3.47 3.59 3.75 3.96 4.18 4.33 4.48 4.67 4.86 5.06
2710.727 5.22 5.44 5.62 5.75 5.98 6.13 6.2 6.34 6.41 6.47
2730.020 6.47 6.44 6.5 6.52 6.54 6.58 6.58 6.62 6.61 6.58
2749.314 6.66 6.77 6.85 6.92 7.05 7.17 7.21 7.4 7.61 7.7
2768.607 7.89 8.21 8.55 8.75 8.92 9.26 9.7 10.05 10.45 10.91
2787.901 11.4 12.02 12.65 13.34 14.1 14.95 15.97 17.06 18.11 19.24
2807.194 20.63 22.18 23.89 25.75 27.84 30.16 32.68 35.16 37.56 39.89
2826.488 41.96 43.72 45.19 46.33 47.12 47.68 48.22 48.75 49.36 50.12
2845.781 51.09 52.19 53.32 54.64 56.08 57.53 59.04 60.52 62.14 63.83
2865.074 65.43 67.04 68.62 70.27 71.84 73.3 74.82 76.16 77.18 77.89
2884.368 78.28 78.32 78.03 77.56 76.94 76.2 75.49 74.89 74.16 73.45
2903.661 72.81 72.12 71.56 71.11 70.79 70.46 70.09 69.99 70.05 69.99
2922.955 70 70.1 70.03 69.88 69.58 69.08 68.39 67.49 66.4 65.08
2942.248 63.67 62.07 60.33 58.73 57.14 55.61 54.23 52.95 51.68 50.49
2961.542 49.5 48.63 47.68 46.71 45.73 44.6 43.37 42.21 41.11 40.09
2980.835 39.35 38.66 38 37.5 36.96 36.08 34.84 33.41 31.7 29.8
3000.128 27.79 25.6 23.39 21.27 19.23 17.55 16.41 15.45 14.48 13.58
3019.422 12.73 12.05 11.48 10.8 10.18 9.62 9.01 8.5 7.98 7.52
3038.715 7.08 6.73 6.45 6.08 5.76 5.52 5.36 5.07 4.77 4.6
3058.009 4.43 4.31 4.28 4.12 3.96 3.9 3.8 3.69 3.42 3.25
3077.302 3.25 3.18 3.15 2.95 2.8844 2.8394 2.6951 2.6113 2.481 2.4334
3096.596 2.3513 2.1866 2.1114 2.1869 2.2092 2.02384 1.8388 1.758 1.769 1.763
3115.889 1.664 1.626 1.634 1.56 1.51 1.574 1.459 1.342 1.55 1.617
3135.182 1.372 1.256 1.294 1.308 1.15 0.987 1.084 1.064 0.943 1.02
3154.476 1.052 1.066 1.102 1.097 1.026 0.951 1.062 1.055 0.93 0.85
3173.769 0.82 0.82 0.67 0.71 0.84 0.77 0.74 0.76 0.69 0.65
3193.063 0.68 0.64 0.65 0.67 0.67 0.59 0.62 0.68 0.63 0.65
3212.356 0.71 0.65 0.65 0.62 0.61 0.54 0.44 0.47 0.42 0.51
3231.650 0.57 0.51 0.51 0.48 0.33 0.3 0.43 0.6 0.52 0.46
3250.943 0.54 0.49 0.32 0.34 0.54 0.55 0.53 0.46 0.38 0.39
3270.236 0.47 0.45 0.4 0.38 0.36 0.39 0.36 0.35 0.35 0.18
3289.530 0 0.11 0.28 0.31 0.46 0.46 0.25 0.23 0.25 0.27
3308.823 0.37 0.5 0.58 0.6 0.39 0.21 0.3 0.23 0.23 0.28
3328.117 0.19 0.16 0.19 0.24 0.3 0.33 0.37 0.44 0.33 0.21
3347.410 0.28 0.27 0.2 0.25 0.3 0.29 0.26 0.28 0.41 0.4
3366.704 0.3 0.21 0.07 0.21 0.33 0.21 0.28 0.41 0.4 0.4
3385.997 0.33 0.31 0.32 0.37 0.38 0.29 0.34 0.29 0.29 0.35
3405.290 0.38 0.26 0.12 0.17 0.17 0.17 0.41 0.41 0.3 0.29
3424.584 0.26 0.28 0.24 0.25 0.25 0.35 0.51 0.51 0.35 0.22
3443.877 0.38 0.44 0.32 0.25 0.27 0.37 0.47 0.46 0.27 0.2
3463.171 0.26 0.31 0.26 0.2 0.09 0.12 0.32 0.43 0.35 0.21
3482.464 0.28 0.35 0.23 0.28 0.28 0.13 0.15 0.23 0.27 0.34
3501.758 0.3 0.19 0.16 0.3 0.31 0.24 0.35 0.39 0.34 0.32
3521.051 0.4 0.39 0.29 0.26 0.22 0.16 0.2 0.29 0.38 0.36
3540.344 0.33 0.42 0.35 0.26 0.24 0.36 0.4 0.36 0.36 0.32
3559.638 0.28 0.25 0.34 0.32 0.32 0.35 0.31 0.27 0.27 0.36
3578.931 0.38 0.37 0.41 0.46 0.47 0.37 0.24 0.27 0.44 0.41
3598.225 0.33 0.41 0.42 0.43 0.42 0.45 0.53 0.49 0.36 0.35
3617.518 0.46 0.42 0.39 0.44 0.5 0.59 0.54 0.42 0.37 0.36
3636.812 0.44 0.52 0.47 0.47 0.46 0.43 0.52 0.56 0.61 0.59
3656.105 0.47 0.49 0.5 0.55 0.68 0.58 0.49 0.52 0.47 0.56
3675.398 0.63 0.71 0.84 0.84 0.74 0.7 0.63 0.67 0.73 0.78
3694.692 0.74 0.69 0.74 0.79 0.9 0.92 0.9 0.83 0.71 0.6
3713.985 0.59 0.66 0.75 0.82 0.8 0.76 0.78 0.77 0.73 0.75
3733.279 0.77 0.76 0.73 0.77 0.83 0.77 0.78 0.92 0.87 0.75
3752.572 0.72 0.72 0.82 0.91 0.88 0.84 0.8 0.84 0.84 0.8
3771.866 0.8 0.74 0.79 0.86 0.78 0.82 0.84 0.9 0.89 0.79
3791.159 0.81 0.81 0.77 0.7 0.72 0.69 0.65 0.75 0.88 0.9
3810.452 0.88 0.87 0.83 0.79 0.81 0.81 0.86 0.85 0.79 0.83
3829.746 0.83 0.91 0.91 0.85 0.82 0.82 0.87 0.88 0.93 0.92
3849.039 0.971 1.023 0.96 0.9 0.86 0.84 0.9 0.935 0.91 0.87
3868.333 0.91 1.002 0.983 0.92 0.959 0.998 0.969 0.88 0.81 0.81
3887.626 0.88 0.88 0.92 1.04 1.096 1.137 1.26 1.294 1.099 1.086
3906.920 1.182 1.188 1.091 1.071 1.195 1.251 1.258 1.236 1.232 1.225
3926.213 1.141 1.105 1.154 1.17 1.159 1.168 1.201 1.235 1.335 1.357
3945.506 1.297 1.33 1.358 1.324 1.375 1.381 1.411 1.536 1.465 1.381
3964.800 1.416 1.381 1.388 1.496 1.43 1.351 1.468 1.581 1.526 1.467
3984.093 1.43 1.354 1.515 1.61 1.52 1.559 1.545 1.535 1.533
##END=
