##TITLE=2,3,6-Trimethylacetophenone
##JCAMP-DX=4.24
##DATA TYPE=INFRARED SPECTRUM
##ORIGIN=EPA-IR VAPOR PHASE LIBRARY
##OWNER=SRD/NIST
Collection (C) 2018 copyright by the U.S. Secretary of Commerce
on behalf of the United States of America. All rights reserved.
##CAS REGISTRY NO=54200-67-8
##MOLFORM=C 11 H 14 O
##$NIST SOURCE=MSDC-IR
##STATE=gas
##XUNITS=1/CM
##YUNITS=ABSORBANCE
##XFACTOR=1.
##YFACTOR=0.001
##DELTAX=1.92934
##FIRSTX=549.9
##LASTX=3999.5
##FIRSTY=1.3999
##MAXX=3999.53
##MINX=549.863
##MAXY=0.095925
##MINY=0
##NPOINTS=1789
##XYDATA=(X++(Y..Y))
549.863 1.3999 1.3474 1.3194 1.2518 1.2225 1.2958 1.2821 1.3393 1.545 1.565
569.156 1.565 1.685 1.825 2.285 2.895 3.375 4.105 5.055 5.935 6.975
588.450 7.995 9.245 10.395 9.805 8.645 8.025 7.205 6.105 4.945 3.885
607.743 3.055 2.405 1.955 1.715 1.505 1.3895 1.3426 1.316 1.2727 1.1639
627.037 1.103 1.0806 0.9901 0.9224 0.9052 0.9389 0.8861 0.8314 0.9574 1.1458
646.330 1.4239 1.845 2.365 3.005 3.785 4.595 5.295 5.905 6.465 6.805
665.624 6.835 6.635 6.265 5.605 4.805 4.075 3.335 2.565 1.945 1.545
684.917 1.1816 0.9174 0.807 0.6691 0.57175 0.487793 0.3879 0.4352 0.49738 0.4276
704.210 0.336 0.317 0.319 0.373 0.374 0.4523 0.55065 0.598 0.6615 0.6617
723.504 0.7228 0.8064 0.9408 1.0908 1.2359 1.433 1.535 1.495 1.485 1.4613
742.797 1.3464 1.2161 1.1 0.9428 0.7496 0.6087 0.53403 0.4537 0.378 0.365
762.091 0.3879 0.4407 0.419 0.314 0.338 0.3911 0.333 0.288 0.333 0.341
781.384 0.334 0.384 0.4114 0.4744 0.473 0.4368 0.50163 0.6017 0.6991 0.7711
800.678 0.9172 1.0293 1.04 1.0879 1.1425 1.1604 1.1769 1.2271 1.2447 1.2155
819.971 1.2247 1.2283 1.296 1.585 2.085 2.835 3.945 5.345 7.005 8.705
839.264 10.325 11.915 13.695 16.075 19.315 20.035 16.215 12.765 11.235 9.845
858.558 8.315 6.575 4.835 3.425 2.415 1.775 1.4081 1.1395 1.0223 0.9317
877.851 0.7996 0.7696 0.767 0.7325 0.7413 0.726 0.6565 0.6593 0.7368 0.7517
897.145 0.7681 0.773 0.7792 0.8466 0.9535 1.05 1.1255 1.2406 1.4264 1.635
916.438 1.825 2.015 2.275 2.585 2.915 3.305 3.765 4.215 4.745 5.285
935.732 5.765 6.215 6.625 6.995 7.245 7.445 7.685 7.875 8.105 8.345
955.025 8.495 8.625 8.695 8.625 8.495 8.185 7.765 7.355 6.935 6.545
974.318 6.205 5.895 5.645 5.425 5.215 5.145 5.105 5.045 5.025 5.025
993.612 5.045 5.035 5.045 5.035 5.095 5.225 5.275 5.275 5.305 5.375
1012.905 5.425 5.445 5.385 5.345 5.435 5.475 5.465 5.505 5.615 5.815
1032.199 6.055 6.285 6.575 6.865 7.295 7.855 8.425 9.095 9.885 10.745
1051.492 11.575 12.235 12.635 12.795 12.705 12.265 11.475 10.445 9.295 8.015
1070.786 6.745 5.665 4.735 3.965 3.435 3.045 2.805 2.605 2.315 2.015
1090.079 1.885 1.875 1.825 1.735 1.745 1.725 1.605 1.525 1.495 1.485
1109.372 1.4315 1.4065 1.4481 1.4666 1.426 1.4263 1.4559 1.555 1.605 1.485
1128.666 1.525 1.635 1.615 1.605 1.575 1.585 1.795 1.965 2.305 3.075
1147.959 4.025 5.215 6.985 9.155 11.065 12.465 13.465 14.165 14.045 13.065
1167.253 11.965 10.385 8.155 6.015 4.305 3.135 2.535 2.105 1.835 1.695
1186.546 1.635 1.695 1.725 1.725 1.665 1.765 1.905 2.025 1.985 1.805
1205.840 1.825 2.085 2.415 2.685 2.845 3.205 3.815 4.575 5.745 7.385
1225.133 9.425 12.095 15.345 19.365 24.235 29.395 34.825 40.085 44.235 47.065
1244.426 48.625 48.555 46.665 43.025 38.005 32.265 26.395 21.145 16.965 13.875
1263.720 11.575 9.705 8.175 6.925 5.995 5.295 4.815 4.435 4.215 4.225
1283.013 4.295 4.395 4.505 4.625 4.595 4.535 4.505 4.355 4.115 3.905
1302.307 3.685 3.515 3.505 3.585 3.635 3.675 3.845 4.115 4.445 4.735
1321.600 5.035 5.445 5.935 6.585 7.375 8.185 9.155 10.375 11.865 13.675
1340.894 15.915 18.505 21.365 24.375 27.115 29.495 31.435 32.385 31.685 29.645
1360.187 27.035 23.955 20.585 17.405 14.655 12.555 11.115 10.235 9.855 9.705
1379.480 9.725 9.835 9.855 9.835 9.825 9.705 9.355 8.895 8.535 8.305
1398.774 8.225 8.245 8.395 8.725 9.145 9.625 10.185 10.815 11.505 12.165
1418.067 12.835 13.495 14.055 14.495 14.785 14.905 14.935 14.975 14.845 14.635
1437.361 14.445 14.245 14.015 13.775 13.515 13.295 13.115 12.885 12.615 12.275
1456.654 11.925 11.625 11.415 11.245 11.075 10.895 10.685 10.485 10.295 10.125
1475.948 9.995 9.885 9.795 9.665 9.535 9.395 9.245 9.065 8.905 8.725
1495.241 8.575 8.515 8.445 8.325 8.195 8.125 8.065 7.985 7.955 7.965
1514.534 7.955 7.975 8.005 7.995 8.045 8.105 8.125 8.185 8.215 8.155
1533.828 8.125 8.145 8.095 8.075 8.075 8.005 7.965 7.955 7.945 7.975
1553.121 8.035 8.055 8.065 8.145 8.345 8.565 8.745 8.875 8.965 9.075
1572.415 9.125 9.155 9.175 9.095 8.975 8.835 8.755 8.765 8.885 9.145
1591.708 9.685 10.585 11.885 13.495 15.475 17.795 20.105 22.055 23.355 23.885
1611.002 23.615 22.615 21.015 18.745 16.095 13.315 10.575 8.365 6.795 5.735
1630.295 5.065 4.675 4.465 4.375 4.345 4.355 4.435 4.525 4.615 4.745
1649.588 4.895 5.095 5.285 5.525 5.825 6.105 6.415 6.745 7.115 7.575
1668.882 7.945 8.285 8.705 9.135 9.655 10.255 10.995 11.855 12.995 14.495
1688.175 16.315 18.595 21.535 25.255 30.275 36.265 43.385 52.075 60.965 70.385
1707.469 79.275 87.005 92.825 95.925 95.345 90.465 81.775 71.505 60.615 49.985
1726.762 39.995 31.185 23.885 18.245 13.915 10.915 8.925 7.545 6.645 6.125
1746.056 5.865 5.725 5.665 5.585 5.505 5.395 5.265 5.045 4.775 4.515
1765.349 4.205 3.865 3.575 3.335 3.115 2.965 2.855 2.715 2.595 2.505
1784.642 2.375 2.205 2.035 1.845 1.685 1.545 1.3483 1.2303 1.1385 1.0265
1803.936 0.9587 0.8679 0.8027 0.7759 0.7586 0.7483 0.6492 0.585 0.595 0.5438
1823.229 0.50828 0.488452 0.4671 0.4427 0.4154 0.438 0.4696 0.4137 0.36 0.384
1842.523 0.3934 0.3889 0.37 0.358 0.356 0.359 0.38 0.4092 0.373 0.357
1861.816 0.3929 0.4087 0.4245 0.4398 0.487507 0.52767 0.56059 0.55546 0.5938 0.6778
1881.110 0.6886 0.7382 0.7908 0.788 0.8206 0.877 0.9147 0.9569 0.9847 0.97
1900.403 0.9577 0.9808 1.0416 1.0634 1.0606 1.0852 1.0709 1.0376 1.0223 1.0132
1919.696 0.9969 0.9707 0.9272 0.8575 0.8337 0.8191 0.7926 0.7653 0.7376 0.6891
1938.990 0.6447 0.6179 0.57844 0.54429 0.55132 0.54562 0.51849 0.52794 0.493159 0.4559
1958.283 0.4359 0.3952 0.366 0.345 0.34 0.337 0.311 0.285 0.304 0.326
1977.577 0.289 0.276 0.274 0.246 0.231 0.238 0.252 0.248 0.273 0.296
1996.870 0.272 0.249 0.262 0.276 0.263 0.278 0.294 0.278 0.281 0.325
2016.164 0.336 0.287 0.278 0.286 0.269 0.275 0.245 0.22 0.222 0.2
2035.457 0.208 0.213 0.185 0.158 0.148 0.134 0.15 0.188 0.193 0.194
2054.750 0.189 0.178 0.15 0.181 0.203 0.133 0.113 0.107 0.111 0.165
2074.044 0.147 0.141 0.139 0.142 0.162 0.136 0.15 0.194 0.182 0.172
2093.337 0.229 0.224 0.214 0.271 0.277 0.232 0.203 0.212 0.209 0.177
2112.631 0.163 0.176 0.201 0.196 0.207 0.233 0.188 0.138 0.157 0.195
2131.924 0.184 0.173 0.188 0.189 0.186 0.16 0.132 0.157 0.209 0.249
2151.218 0.234 0.214 0.21 0.199 0.222 0.225 0.219 0.266 0.29 0.284
2170.511 0.287 0.313 0.355 0.337 0.299 0.322 0.306 0.289 0.334 0.32
2189.804 0.284 0.268 0.265 0.272 0.234 0.228 0.245 0.209 0.204 0.22
2209.098 0.22 0.225 0.224 0.21 0.204 0.199 0.185 0.166 0.196 0.224
2228.391 0.198 0.177 0.178 0.176 0.161 0.155 0.152 0.163 0.168 0.144
2247.685 0.143 0.131 0.154 0.186 0.157 0.148 0.147 0.146 0.159 0.179
2266.978 0.199 0.226 0.226 0.185 0.195 0.241 0.262 0.267 0.276 0.326
2286.272 0.359 0.352 0.362 0.371 0.3935 0.4444 0.492797 0.49818 0.48372 0.48008
2305.565 0.4733 0.4565 0.4423 0.4644 0.4676 0.4375 0.4374 0.4522 0.4432 0.4127
2324.858 0.373 0.357 0.353 0.356 0.372 0.359 0.337 0.311 0.342 0.359
2344.152 0.338 0.352 0.319 0.288 0.285 0.295 0.286 0.257 0.309 0.354
2363.445 0.351 0.344 0.313 0.335 0.343 0.355 0.4066 0.4053 0.4118 0.4271
2382.739 0.4437 0.4496 0.4572 0.50213 0.57152 0.6097 0.6138 0.637 0.6533 0.6613
2402.032 0.6926 0.7248 0.6983 0.68 0.6838 0.7089 0.7232 0.7078 0.6553 0.5869
2421.326 0.6072 0.6109 0.5589 0.53724 0.52969 0.52447 0.50179 0.488754 0.4653 0.4497
2440.619 0.4717 0.4732 0.4719 0.48025 0.4726 0.4596 0.4503 0.4481 0.486849 0.48087
2459.912 0.4395 0.4193 0.4301 0.4382 0.4228 0.4246 0.449 0.51789 0.55402 0.56441
2479.206 0.583 0.54788 0.53082 0.5653 0.52943 0.484053 0.4686 0.491921 0.55247 0.56079
2498.499 0.53329 0.48177 0.445 0.4251 0.4337 0.4357 0.4233 0.374 0.381 0.4334
2517.793 0.3957 0.4047 0.4497 0.426 0.363 0.349 0.36 0.361 0.325 0.309
2537.086 0.319 0.325 0.367 0.392 0.3867 0.326 0.295 0.37 0.368 0.285
2556.380 0.307 0.298 0.27 0.289 0.314 0.318 0.293 0.312 0.283 0.301
2575.673 0.312 0.3 0.294 0.282 0.295 0.269 0.263 0.298 0.367 0.379
2594.966 0.3901 0.377 0.36 0.371 0.373 0.354 0.316 0.32 0.311 0.296
2614.260 0.314 0.362 0.356 0.339 0.358 0.35 0.326 0.329 0.345 0.362
2633.553 0.368 0.367 0.3968 0.374 0.37 0.4295 0.4714 0.50851 0.55388 0.54926
2652.847 0.54452 0.5868 0.57174 0.5425 0.5943 0.6405 0.6118 0.602 0.6498 0.6619
2672.140 0.678 0.6965 0.6614 0.645 0.6831 0.6963 0.6516 0.6529 0.6504 0.6286
2691.434 0.6053 0.5946 0.6345 0.6307 0.6115 0.6421 0.6586 0.6218 0.6162 0.6991
2710.727 0.7381 0.7566 0.7744 0.7658 0.7641 0.7985 0.8906 0.9816 1.0453 1.1053
2730.020 1.2331 1.4014 1.585 1.775 1.865 1.955 2.115 2.265 2.305 2.265
2749.314 2.195 2.125 2.035 1.905 1.795 1.605 1.4581 1.3603 1.307 1.2482
2768.607 1.2272 1.1713 1.1342 1.1283 1.0738 1.0866 1.0891 1.1395 1.2151 1.2238
2787.901 1.1809 1.2112 1.3629 1.4118 1.4632 1.505 1.575 1.705 1.685 1.715
2807.194 1.795 1.905 2.035 2.115 2.225 2.375 2.485 2.585 2.715 2.855
2826.488 2.975 3.065 3.305 3.565 3.745 3.955 4.245 4.545 4.935 5.405
2845.781 5.775 6.255 6.925 7.515 8.235 9.045 9.825 10.765 11.815 12.855
2865.074 13.845 14.795 15.605 16.215 16.635 16.805 16.905 16.835 16.535 16.205
2884.368 15.795 15.395 15.125 14.945 14.845 14.935 15.015 15.275 15.645 16.035
2903.661 16.695 17.315 18.055 19.055 20.305 21.775 23.445 25.485 27.725 30.095
2922.955 32.555 34.905 36.865 38.375 39.575 39.955 39.605 38.875 37.465 35.605
2942.248 33.505 31.335 29.135 26.925 25.085 23.725 22.595 21.625 20.795 20.195
2961.542 19.705 19.275 18.975 18.715 18.605 18.505 18.415 18.505 18.675 18.945
2980.835 19.235 19.555 20.015 20.475 20.985 21.485 21.825 22.155 22.595 22.935
3000.128 23.145 23.365 23.565 23.765 24.035 24.305 24.465 24.555 24.525 24.445
3019.422 24.315 24.065 23.885 23.675 23.235 22.745 22.225 21.575 20.995 20.485
3038.715 19.795 18.875 17.925 16.935 15.975 14.955 13.885 12.925 12.035 11.035
3058.009 10.095 9.425 8.755 8.175 7.835 7.545 7.155 6.885 6.585 6.195
3077.302 5.925 5.785 5.605 5.305 5.055 4.825 4.555 4.305 4.135 3.905
3096.596 3.675 3.585 3.495 3.305 3.135 2.945 2.765 2.585 2.435 2.295
3115.889 1.995 1.925 2.045 1.855 1.685 1.615 1.495 1.4812 1.525 1.414
3135.182 1.2569 1.2509 1.337 1.263 1.167 1.289 1.1838 1.0483 1.0723 0.9351
3154.476 0.896 0.9631 0.9259 0.9343 0.8831 0.7897 0.7878 0.8237 0.8384 0.8754
3173.769 0.8201 0.6678 0.457 0.379 0.6175 0.735 0.56948 0.49772 0.5902 0.5064
3193.063 0.51946 0.53619 0.4259 0.337 0.341 0.4356 0.4427 0.4582 0.4434 0.3888
3212.356 0.4621 0.5362 0.4498 0.3909 0.321 0.305 0.368 0.352 0.352 0.301
3231.650 0.356 0.36 0.293 0.348 0.356 0.333 0.346 0.4108 0.437 0.4053
3250.943 0.309 0.232 0.25 0.3 0.291 0.198 0.134 0.135 0.3 0.3891
3270.236 0.309 0.352 0.318 0.319 0.375 0.306 0.238 0.302 0.319 0.339
3289.530 0.376 0.318 0.284 0.279 0.318 0.276 0.234 0.264 0.206 0.207
3308.823 0.225 0.185 0.184 0.301 0.366 0.315 0.357 0.383 0.367 0.261
3328.117 0.177 0.285 0.315 0.331 0.4116 0.342 0.383 0.4635 0.4134 0.4609
3347.410 0.4637 0.335 0.396 0.53387 0.4398 0.326 0.308 0.4374 0.6476 0.6549
3366.704 0.5838 0.4748 0.55473 0.6018 0.4718 0.5718 0.7295 0.7428 0.7919 0.9649
3385.997 1.0107 1.1132 1.2337 1.2691 1.3683 1.4365 1.505 1.585 1.655 1.665
3405.290 1.685 1.595 1.555 1.635 1.585 1.535 1.3649 1.1739 1.098 1.0744
3424.584 0.9638 0.8908 0.7597 0.6432 0.57818 0.3988 0.346 0.4609 0.53362 0.4148
3443.877 0.356 0.3854 0.363 0.372 0.325 0.269 0.3892 0.4228 0.243 0.28
3463.171 0.4095 0.4196 0.3945 0.4014 0.339 0.253 0.273 0.243 0.26 0.281
3482.464 0.304 0.298 0.177 0.188 0.34 0.336 0.335 0.47568 0.4528 0.3864
3501.758 0.287 0.146 0.263 0.302 0.177 0.198 0.258 0.22 0.192 0.166
3521.051 0.121 0.174 0.202 0.08 0.047 0.026 0.038 0.166 0.234 0.233
3540.344 0.221 0.193 0.145 0.182 0.251 0.264 0.21 0.181 0.187 0.119
3559.638 0.087 0.101 0.173 0.207 0.093 0.118 0.161 0.235 0.32 0.321
3578.931 0.267 0.168 0.106 0.159 0.177 0.146 0.219 0.227 0.164 0.145
3598.225 0.14 0.096 0.134 0.133 0.15 0.168 0.092 0.114 0.095 0.057
3617.518 0.127 0.063 0 0.051 0.054 0.114 0.085 0.154 0.268 0.192
3636.812 0.113 0.093 0.176 0.155 0.088 0.136 0.127 0.135 0.139 0.123
3656.105 0.151 0.139 0.137 0.13 0.108 0.104 0.128 0.119 0.171 0.16
3675.398 0.095 0.082 0.051 0.124 0.117 0.079 0.143 0.159 0.117 0.094
3694.692 0.1 0.074 0.081 0.144 0.178 0.233 0.26 0.156 0.082 0.101
3713.985 0.104 0.055 0.069 0.118 0.111 0.095 0.068 0.126 0.153 0.144
3733.279 0.15 0.115 0.128 0.213 0.202 0.162 0.119 0.021 0.035 0.176
3752.572 0.247 0.161 0.113 0.183 0.254 0.278 0.279 0.23 0.212 0.22
3771.866 0.227 0.254 0.253 0.28 0.371 0.363 0.303 0.3874 0.4359 0.302
3791.159 0.201 0.228 0.259 0.275 0.269 0.276 0.292 0.254 0.219 0.211
3810.452 0.297 0.37 0.272 0.254 0.324 0.248 0.254 0.313 0.267 0.221
3829.746 0.272 0.318 0.279 0.228 0.218 0.25 0.271 0.301 0.345 0.384
3849.039 0.383 0.385 0.326 0.33 0.361 0.4286 0.54726 0.47753 0.367 0.3856
3868.333 0.4235 0.369 0.3893 0.4552 0.364 0.344 0.4121 0.361 0.357 0.378
3887.626 0.3982 0.4054 0.4182 0.4468 0.4396 0.4285 0.490298 0.51335 0.4558 0.4736
3906.920 0.5426 0.51831 0.50235 0.54499 0.5455 0.50671 0.53398 0.5852 0.55519 0.5465
3926.213 0.5926 0.5903 0.58178 0.6034 0.6539 0.7373 0.6961 0.6159 0.6447 0.6816
3945.506 0.6445 0.642 0.6378 0.6458 0.681 0.6578 0.6182 0.6332 0.5975 0.56325
3964.800 0.6886 0.7782 0.787 0.7819 0.7994 0.8041 0.7408 0.7453 0.736 0.6801
3984.093 0.6453 0.6447 0.6862 0.6511 0.6888 0.6958 0.56779 0.58321 0.6319
##END=
