##TITLE=Dipentylacetic acid
##JCAMP-DX=4.24
##DATA TYPE=INFRARED SPECTRUM
##ORIGIN=EPA-IR VAPOR PHASE LIBRARY
##OWNER=SRD/NIST
Collection (C) 2018 copyright by the U.S. Secretary of Commerce
on behalf of the United States of America. All rights reserved.
##CAS REGISTRY NO=5422-52-6
##MOLFORM=C 12 H 24 O 2
##$NIST SOURCE=MSDC-IR
##STATE=gas
##XUNITS=1/CM
##YUNITS=ABSORBANCE
##XFACTOR=1.
##YFACTOR=0.001
##DELTAX=1.92898
##FIRSTX=549.8
##LASTX=4000.7
##FIRSTY=5.499
##MAXX=4000.7
##MINX=549.759
##MAXY=0.067589
##MINY=0
##NPOINTS=1790
##XYDATA=(X++(Y..Y))
549.759 5.499 5.559 5.859 6.189 6.529 6.789 7.079 7.409 7.879 8.119
569.049 8.229 8.869 9.419 9.939 10.809 11.159 11.449 12.029 12.189 12.209
588.339 12.209 12.059 11.669 11.489 11.299 10.819 10.659 10.249 9.679 9.409
607.628 9.089 8.769 8.509 8.109 7.739 7.399 6.949 6.589 6.179 5.769
626.918 5.439 5.389 5.359 4.739 4.239 3.879 3.529 3.309 3.089 2.859
646.208 2.559 2.319 2.019 1.809 1.759 1.639 1.269 1.149 1.319 1.229
665.498 1.329 1.469 1.389 1.499 1.419 1.259 1.209 1.189 1.189 1.189
684.787 1.229 1.279 1.419 1.399 1.419 1.569 1.699 1.869 2.059 2.289
704.077 2.489 2.629 2.659 2.949 3.339 3.589 3.869 4.039 4.249 4.379
723.367 4.569 4.769 4.729 4.819 4.719 4.559 4.349 4.129 4.009 3.969
742.657 4.059 4.039 3.839 3.649 3.689 3.689 3.599 3.519 3.429 3.299
761.947 3.259 3.229 2.989 2.639 2.629 2.729 2.609 2.559 2.469 2.359
781.236 2.279 2.139 2.149 2.209 2.059 1.909 1.719 1.639 1.639 1.679
800.526 1.549 1.459 1.399 1.329 1.439 1.269 1.339 1.409 1.209 1.169
819.816 1.0314 0.9995 1.0853 0.9399 1.011 1.0657 0.8852 0.822 0.8634 0.9457
839.106 1.0141 0.9897 0.9903 1.0257 0.9881 0.9109 0.8356 0.7948 0.7241 0.7418
858.395 0.7937 0.8365 0.7867 0.8172 0.9424 0.9092 0.8381 0.9214 1.0507 0.9712
877.685 0.9957 0.9938 0.8804 1.0236 1.169 1.129 1.1168 1.179 1.329 1.429
896.975 1.459 1.429 1.369 1.419 1.339 1.329 1.289 1.249 1.299 1.159
916.265 0.977 0.9808 1.0166 0.9236 0.8681 0.8677 1.0054 0.8852 0.6553 0.8059
935.555 0.9462 0.8212 0.7923 0.9374 1.0656 0.9736 0.8205 0.8348 0.8554 0.9917
954.844 1.0789 0.9056 0.8862 1.129 1.139 1.049 1.1169 1.229 1.289 1.439
974.134 1.389 1.309 1.579 1.709 1.749 1.859 1.969 2.099 2.129 2.239
993.424 2.129 1.959 2.149 2.199 2.119 1.969 1.839 1.769 1.929 2.209
1012.714 2.079 1.949 2.229 2.409 2.339 2.139 2.249 2.369 2.459 2.859
1032.003 2.949 2.829 2.819 2.929 3.189 3.479 3.779 3.859 3.959 4.029
1051.293 4.329 4.939 5.109 5.439 5.729 5.939 6.509 7.459 7.889 8.249
1070.583 8.919 9.499 10.459 11.599 12.799 13.929 14.729 15.989 18.219 20.439
1089.873 22.259 24.239 26.129 28.399 30.509 32.009 32.939 33.069 32.559 31.169
1109.163 29.659 27.889 25.999 24.379 22.999 21.379 20.129 19.659 19.119 18.489
1128.452 17.829 17.269 17.159 16.919 16.569 16.279 15.949 15.709 15.419 15.009
1147.742 14.649 14.659 14.659 14.189 13.569 12.939 12.239 11.659 11.039 10.469
1167.032 9.799 9.059 8.479 7.969 7.289 6.729 6.339 5.999 5.829 5.479
1186.322 5.499 5.689 5.549 5.469 5.439 5.499 5.889 5.969 5.679 5.499
1205.611 5.559 5.539 5.199 5.089 4.779 4.379 4.329 4.369 4.329 3.989
1224.901 3.949 3.789 3.409 3.289 3.119 3.049 3.019 3.109 3.249 3.379
1244.191 3.369 3.289 3.359 3.409 3.359 3.229 3.239 3.389 3.519 3.789
1263.481 3.849 3.789 3.979 4.019 4.019 4.079 4.199 4.509 4.589 4.429
1282.771 4.499 4.579 4.549 4.639 4.679 4.639 4.619 4.669 4.719 4.669
1302.060 4.619 4.629 4.579 4.449 4.399 4.329 4.289 4.229 4.159 4.149
1321.350 4.069 4.049 4.039 4.059 4.089 4.139 4.309 4.429 4.559 4.619
1340.640 4.649 4.759 4.799 4.859 4.909 4.939 4.929 4.889 4.859 4.869
1359.930 4.949 4.959 4.899 4.899 4.879 4.879 4.939 5.049 5.249 5.509
1379.219 5.749 5.879 6.059 6.149 6.039 5.829 5.539 5.209 4.909 4.659
1398.509 4.389 4.109 3.839 3.649 3.489 3.339 3.199 3.049 2.949 2.849
1417.799 2.779 2.719 2.719 2.759 2.769 2.799 2.849 2.919 3.049 3.199
1437.089 3.439 3.799 4.239 4.689 5.129 5.689 6.259 6.799 7.349 7.839
1456.378 8.259 8.659 8.979 9.059 8.979 8.699 8.249 7.669 6.989 6.249
1475.668 5.499 4.799 4.149 3.519 3.069 2.739 2.449 2.289 2.149 1.929
1494.958 1.779 1.659 1.619 1.589 1.509 1.369 1.289 1.289 1.249 1.239
1514.248 1.149 1.0368 1.0287 1.0156 1.0254 1.0536 1.0091 0.9798 0.9437 0.8309
1533.538 0.7919 0.8935 0.9224 0.8791 0.7908 0.7759 0.8447 0.8041 0.7622 0.7292
1552.827 0.7302 0.7529 0.6631 0.5119 0.5415 0.633 0.6991 0.63 0.5452 0.6535
1572.117 0.6482 0.5461 0.5381 0.6287 0.7069 0.6967 0.6218 0.5711 0.6087 0.6525
1591.407 0.6583 0.6781 0.6065 0.5845 0.6652 0.67 0.6626 0.5805 0.5356 0.6734
1610.697 0.7029 0.6492 0.6082 0.5467 0.5908 0.6639 0.7116 0.7087 0.5772 0.5744
1629.986 0.6598 0.5698 0.5748 0.6608 0.7332 0.7232 0.6412 0.5636 0.5238 0.6022
1649.276 0.6967 0.6432 0.5967 0.7124 0.7177 0.6762 0.7211 0.8024 0.8207 0.8012
1668.566 0.8093 0.8884 0.9267 0.9093 0.9732 1.0032 0.9876 1.0925 1.169 1.169
1687.856 1.249 1.349 1.409 1.439 1.539 1.669 1.799 1.979 2.159 2.329
1707.146 2.549 2.839 3.149 3.479 3.859 4.329 4.829 5.319 5.909 6.519
1726.435 7.059 7.579 8.099 8.599 9.099 9.579 10.089 10.539 11.129 11.959
1745.725 12.969 14.389 16.329 19.079 22.769 27.399 33.359 40.099 47.259 54.279
1765.015 59.929 63.379 63.789 60.699 54.509 46.959 38.939 31.349 24.959 20.139
1784.305 16.789 14.439 12.879 11.839 11.109 10.599 10.109 9.519 8.949 8.309
1803.594 7.639 6.969 6.259 5.579 4.989 4.459 3.949 3.539 3.249 2.919
1822.884 2.609 2.439 2.269 2.069 1.899 1.759 1.679 1.559 1.439 1.379
1842.174 1.279 1.209 1.149 1.094 1.0508 1.0107 1.0147 0.9921 0.9761 0.9548
1861.464 0.9615 0.927 0.8534 0.792 0.7552 0.801 0.8149 0.8143 0.8154 0.777
1880.754 0.7484 0.7145 0.7201 0.7142 0.6886 0.7104 0.7368 0.6814 0.6306 0.6799
1900.043 0.7034 0.6621 0.6292 0.6041 0.5861 0.5924 0.59 0.6212 0.631 0.5355
1919.333 0.5105 0.5762 0.5984 0.6016 0.5336 0.5042 0.5647 0.5666 0.5424 0.5428
1938.623 0.5356 0.4666 0.488 0.5311 0.4888 0.4789 0.5053 0.522 0.489 0.4672
1957.913 0.4684 0.4784 0.4464 0.4298 0.4878 0.4608 0.4101 0.5129 0.5121 0.3997
1977.202 0.4167 0.4363 0.4442 0.4442 0.3832 0.3606 0.406 0.4303 0.4339 0.4217
1996.492 0.4331 0.4138 0.3733 0.4247 0.4563 0.419 0.4396 0.4704 0.4717 0.5054
2015.782 0.5173 0.526 0.5356 0.5098 0.4908 0.4987 0.527 0.4909 0.4811 0.5121
2035.072 0.5132 0.5519 0.5741 0.54 0.5245 0.5202 0.4787 0.4079 0.4045 0.4158
2054.362 0.3792 0.3929 0.4369 0.5103 0.5051 0.4577 0.4773 0.5158 0.5098 0.4772
2073.651 0.431 0.3722 0.3927 0.459 0.478 0.4327 0.3745 0.3832 0.4073 0.4428
2092.941 0.4756 0.471 0.4525 0.4596 0.4531 0.4396 0.4113 0.4093 0.4522 0.4276
2112.231 0.4038 0.4053 0.4275 0.4629 0.4754 0.4624 0.446 0.4751 0.5234 0.5095
2131.521 0.458 0.415 0.4422 0.484 0.5044 0.5515 0.5355 0.5156 0.5167 0.5229
2150.810 0.5356 0.5463 0.5658 0.5102 0.4753 0.5181 0.5801 0.6019 0.611 0.602
2170.100 0.5507 0.5856 0.5674 0.4948 0.4872 0.5065 0.5826 0.6013 0.562 0.5709
2189.390 0.5569 0.5614 0.662 0.7078 0.6709 0.6159 0.612 0.6491 0.6241 0.5868
2208.680 0.5677 0.5335 0.508 0.5362 0.5213 0.4823 0.5009 0.497 0.5284 0.5298
2227.970 0.5541 0.5468 0.5259 0.5759 0.5589 0.5435 0.5539 0.5886 0.5517 0.4631
2247.259 0.4193 0.451 0.4785 0.4769 0.5128 0.5179 0.554 0.4778 0.404 0.4622
2266.549 0.4679 0.4977 0.4619 0.4387 0.4778 0.4037 0.3912 0.4343 0.4054 0.4329
2285.839 0.4837 0.493 0.5 0.5452 0.5438 0.5045 0.5518 0.5583 0.5359 0.532
2305.129 0.5143 0.4912 0.5535 0.6353 0.5788 0.5599 0.5823 0.5364 0.5165 0.4964
2324.418 0.4724 0.557 0.6025 0.5873 0.597 0.515 0.4721 0.5256 0.5691 0.5662
2343.708 0.6069 0.6051 0.5071 0.4968 0.452 0.5021 0.56 0.5244 0.5076 0.4922
2362.998 0.4801 0.4542 0.5045 0.5514 0.5608 0.5741 0.5675 0.5416 0.55 0.5026
2382.288 0.5267 0.5614 0.5354 0.5479 0.545 0.4903 0.4477 0.5293 0.5817 0.5534
2401.578 0.5577 0.5318 0.51 0.5773 0.5879 0.5775 0.5886 0.5543 0.5711 0.6286
2420.867 0.5692 0.4855 0.4846 0.4632 0.5108 0.5762 0.5382 0.5105 0.5369 0.5877
2440.157 0.5374 0.4968 0.5372 0.5792 0.5289 0.5194 0.549 0.5034 0.4838 0.4738
2459.447 0.4508 0.4686 0.526 0.5546 0.4967 0.4593 0.5361 0.5427 0.5084 0.5477
2478.737 0.4893 0.4732 0.5352 0.4939 0.4978 0.5444 0.5987 0.6046 0.5572 0.5232
2498.026 0.557 0.5264 0.5036 0.548 0.5049 0.4392 0.4838 0.473 0.4411 0.5352
2517.316 0.5485 0.5172 0.572 0.6273 0.5736 0.5091 0.4943 0.6417 0.712 0.6027
2536.606 0.5749 0.6065 0.6385 0.583 0.5765 0.5979 0.547 0.5023 0.5384 0.5823
2555.896 0.5964 0.5992 0.6242 0.6457 0.5901 0.5893 0.5982 0.5529 0.634 0.7216
2575.186 0.7114 0.6838 0.6373 0.6734 0.6921 0.6639 0.6496 0.671 0.6832 0.7137
2594.475 0.767 0.7523 0.6389 0.6022 0.6767 0.7086 0.6874 0.7546 0.7735 0.7904
2613.765 0.8495 0.8226 0.8195 0.8072 0.8278 0.8088 0.8489 0.8593 0.8482 0.853
2633.055 0.8517 0.8648 0.8227 0.8165 0.8143 0.8617 0.8878 0.9104 0.8683 0.8588
2652.345 0.9433 0.938 0.9483 1.0343 0.9949 0.9411 1.0446 1.042 1.0019 1.0559
2671.634 1.049 1.1126 1.129 0.9931 1.0367 1.119 1.0783 1.0909 1.0288 1.006
2690.924 1.0861 1.0173 1.01 1.0527 1.0061 1.0097 1.008 0.9749 1.0196 1.0453
2710.214 1.0272 0.9525 0.9637 1.1171 1.159 1.129 1.0799 1.139 1.179 1.149
2729.504 1.169 1.169 1.279 1.369 1.319 1.359 1.429 1.459 1.479 1.459
2748.794 1.399 1.369 1.449 1.359 1.279 1.289 1.359 1.429 1.499 1.519
2768.083 1.449 1.439 1.459 1.429 1.479 1.659 1.699 1.709 1.749 1.789
2787.373 1.879 2.009 2.099 2.099 2.089 2.199 2.289 2.289 2.319 2.389
2806.663 2.519 2.629 2.719 2.819 3.029 3.139 3.219 3.479 3.709 3.849
2825.953 4.039 4.269 4.459 4.679 4.969 5.369 5.759 6.159 6.689 7.279
2845.242 7.969 8.809 10.089 11.579 13.239 15.259 17.519 19.749 21.849 23.979
2864.532 25.739 26.909 27.659 27.979 27.839 27.339 26.889 26.409 25.879 25.299
2883.822 24.439 23.529 22.599 21.649 20.809 20.109 19.779 19.899 20.279 20.949
2903.112 21.949 23.159 24.459 25.979 27.719 29.539 31.669 34.209 36.989 40.129
2922.401 43.679 47.469 51.339 55.109 58.509 61.429 63.889 65.789 66.999 67.589
2941.691 67.279 65.939 63.829 61.169 58.069 54.679 51.689 49.489 48.229 47.609
2960.981 47.699 48.429 49.119 49.179 47.889 45.129 41.309 36.609 31.209 26.109
2980.271 21.909 18.599 15.969 13.869 12.319 11.149 10.119 9.229 8.559 7.859
2999.561 7.249 6.779 6.349 5.959 5.529 5.089 4.809 4.589 4.429 4.189
3018.850 3.899 3.739 3.619 3.519 3.369 3.209 3.159 3.059 2.869 2.719
3038.140 2.559 2.529 2.489 2.269 2.139 2.109 2.079 2.079 2.079 1.989
3057.430 1.869 1.819 1.749 1.739 1.739 1.739 1.639 1.559 1.639 1.559
3076.720 1.539 1.579 1.609 1.449 1.209 1.319 1.409 1.349 1.449 1.419
3096.009 1.329 1.369 1.329 1.239 1.209 1.319 1.309 1.249 1.159 1.1116
3115.299 1.129 1.0748 1.0337 1.0785 1.081 1.119 1.139 1.0612 1.0218 0.9379
3134.589 0.9044 0.9736 0.945 0.8798 0.9235 0.8987 0.8354 0.776 0.8409 0.9256
3153.879 0.9016 0.894 0.8935 0.7965 0.85 0.881 0.7329 0.8584 0.8621 0.7606
3173.169 0.815 0.7842 0.7459 0.7125 0.7274 0.7494 0.7704 0.8095 0.7696 0.6641
3192.458 0.6744 0.7953 0.7757 0.7183 0.7361 0.725 0.7071 0.6241 0.6004 0.6122
3211.748 0.5122 0.4494 0.4935 0.6031 0.6984 0.5373 0.3733 0.4796 0.5059 0.4857
3231.038 0.4298 0.5478 0.6453 0.4334 0.3499 0.4598 0.429 0.3238 0.3366 0.3454
3250.328 0.3326 0.44 0.5066 0.5024 0.4499 0.3969 0.4759 0.4812 0.4875 0.4948
3269.617 0.3836 0.3733 0.4485 0.4562 0.4781 0.3625 0.2892 0.4637 0.4917 0.4843
3288.907 0.4671 0.4432 0.4708 0.3873 0.2809 0.3195 0.4234 0.4448 0.5096 0.4879
3308.197 0.3726 0.3415 0.4322 0.4489 0.3776 0.3745 0.3847 0.3787 0.3511 0.2572
3327.487 0.2631 0.3607 0.3432 0.2815 0.3104 0.2875 0.2193 0.3265 0.4442 0.4266
3346.777 0.2763 0.3187 0.4388 0.3961 0.3664 0.2655 0.2587 0.4321 0.4234 0.2771
3366.066 0.3543 0.3287 0.2352 0.3026 0.2749 0.2779 0.3521 0.2826 0.17792 0.21835
3385.356 0.3023 0.3907 0.4926 0.4671 0.3366 0.3788 0.4139 0.4191 0.2126 0.0523
3404.646 0.2693 0.3444 0.4699 0.5249 0.3822 0.4894 0.5712 0.4618 0.2695 0.2632
3423.936 0.3739 0.299 0.3101 0.3112 0.3721 0.3652 0.252 0.2427 0.2278 0.2782
3443.225 0.3808 0.4329 0.3279 0.21398 0.16497 0.18743 0.2472 0.2306 0.123042 0.20875
3462.515 0.376 0.3714 0.3448 0.3581 0.4193 0.4476 0.4246 0.4349 0.4283 0.407
3481.805 0.4902 0.5466 0.4539 0.362 0.45 0.5177 0.5024 0.5525 0.7255 0.7595
3501.095 0.6814 0.7516 0.8652 0.7792 0.719 0.8591 0.9372 0.8957 0.8182 0.8517
3520.385 0.8242 0.9445 1.119 1.0601 1.0287 0.9667 0.9618 1.0363 1.0388 1.005
3539.674 0.9976 1.0242 1.0523 1.309 1.649 2.039 2.549 3.259 4.489 6.059
3558.964 8.009 10.569 13.539 16.569 19.199 20.939 21.439 20.879 19.079 16.249
3578.254 13.039 9.809 7.089 5.019 3.449 2.469 2.089 1.599 1.289 1.409
3597.544 1.249 1.099 1.149 1.004 0.8639 0.9391 0.9458 0.8784 0.8501 0.8201
3616.833 0.8334 0.8141 0.8277 0.6937 0.6765 0.5894 0.493 0.4979 0.4473 0.4806
3636.123 0.462 0.4253 0.439 0.443 0.5095 0.5278 0.4335 0.4394 0.3684 0.3681
3655.413 0.3803 0.3568 0.3755 0.4359 0.4704 0.4783 0.5194 0.5228 0.4924 0.3432
3674.703 0.2268 0.3304 0.302 0.3726 0.5324 0.4847 0.4563 0.4533 0.4149 0.4623
3693.993 0.4434 0.3802 0.397 0.3199 0.2528 0.394 0.534 0.4288 0.36 0.3998
3713.282 0.3576 0.3225 0.3331 0.14899 0.0791 0.276 0.2719 0.2142 0.119433 0.16625
3732.572 0.3027 0.2451 0.2899 0.453 0.3336 0.21087 0.309 0.3345 0.242 0.3378
3751.862 0.4866 0.5435 0.4511 0.2245 0.14593 0.20851 0.3319 0.252 0.2296 0.1523
3771.152 0.16868 0.3698 0.3647 0.3764 0.4535 0.4666 0.4024 0.3449 0.3698 0.388
3790.441 0.3408 0.2872 0.107 0.0974 0.2514 0.2826 0.3079 0.3207 0.3015 0.3226
3809.731 0.4487 0.4781 0.4995 0.4741 0.5301 0.5356 0.3318 0.3026 0.3465 0.291
3829.021 0.2759 0.3824 0.431 0.3511 0.3309 0.3993 0.393 0.296 0.1789 0.2472
3848.311 0.2944 0.18471 0.0381 0 0.2789 0.2914 0.2539 0.3816 0.3844 0.3505
3867.601 0.3083 0.4166 0.3151 0.18623 0.2742 0.476 0.507 0.3765 0.4941 0.5341
3886.890 0.4578 0.4645 0.5597 0.5344 0.5101 0.5223 0.3475 0.2614 0.3235 0.351
3906.180 0.3092 0.305 0.13976 0.0921 0.3128 0.365 0.21733 0.121834 0.2387 0.4119
3925.470 0.463 0.4343 0.3514 0.3893 0.3984 0.2622 0.302 0.2728 0.21698 0.2999
3944.760 0.2618 0.2462 0.2867 0.3015 0.2787 0.0828 0.17817 0.5522 0.5923 0.4636
3964.049 0.4521 0.3908 0.3767 0.4412 0.547 0.4279 0.2561 0.4346 0.3977 0.2356
3983.339 0.2789 0.5273 0.5462 0.4155 0.4686 0.434 0.4957 0.472 0.3364 0.3409
##END=
