##TITLE=M-(2-Hydroxyethyl)lactamide
##JCAMP-DX=4.24
##DATA TYPE=INFRARED SPECTRUM
##ORIGIN=EPA-IR VAPOR PHASE LIBRARY
##OWNER=SRD/NIST
Collection (C) 2018 copyright by the U.S. Secretary of Commerce
on behalf of the United States of America. All rights reserved.
##CAS REGISTRY NO=5422-34-4
##MOLFORM=C 5 H 11 N O 3
##$NIST SOURCE=MSDC-IR
##STATE=gas
##XUNITS=1/CM
##YUNITS=ABSORBANCE
##XFACTOR=1.
##YFACTOR=0.001
##DELTAX=1.92898
##FIRSTX=549.8
##LASTX=4000.7
##FIRSTY=8.27
##MAXX=4000.7
##MINX=549.759
##MAXY=0.07548
##MINY=0.0003727
##NPOINTS=1790
##XYDATA=(X++(Y..Y))
549.759 8.27 8.41 8.47 8.3 8.18 8.13 8.15 7.99 8.03 8.27
569.049 8.4 8.11 7.8 7.54 7.28 7.32 7.15 7.12 7.16 7.02
588.339 6.99 6.77 6.41 6.28 6.16 5.94 5.89 5.79 5.63 5.48
607.628 5.36 5.31 5.1 4.93 4.83 4.89 4.87 4.59 4.52 4.47
626.918 4.25 4.18 4.01 3.84 3.88 3.91 3.79 3.65 3.49 3.46
646.208 3.48 3.26 3.28 3.35 3.18 3.05 2.99 2.97 2.94 2.91
665.498 2.83 2.76 2.89 2.73 2.57 2.52 2.49 2.56 2.51 2.44
684.787 2.36 2.42 2.35 2.31 2.35 2.28 2.26 2.12 2.21 2.27
704.077 2.2 2.17 2.18 2.18 2.08 2.16 2.12 2.08 2.15 2.1
723.367 2.06 2.04 1.95 2.07 2.27 2.34 2.26 2.23 2.23 2.3
742.657 2.24 2.25 2.43 2.54 2.61 2.6 2.6 2.7 2.64 2.41
761.947 2.39 2.33 2.32 2.38 2.4 2.3 2.28 2.41 2.36 2.27
781.236 2.31 2.24 2.09 2.17 2.2 2.2 2.28 2.18 2.13 2.24
800.526 2.28 2.33 2.44 2.5 2.53 2.6 2.54 2.67 2.85 2.84
819.816 2.94 2.97 2.95 3.08 3.18 3.25 3.35 3.26 3.17 3.26
839.106 3.38 3.54 3.78 3.94 4.06 4.15 4.4 4.77 4.96 5.13
858.395 5.44 5.62 5.63 5.81 5.87 5.78 5.91 6.05 5.99 5.94
877.685 6.2 6.34 6.23 6.37 6.53 6.53 6.59 6.6 6.53 6.46
896.975 6.33 6.05 5.81 5.79 5.59 5.48 5.4 5.18 5.04 4.98
916.265 4.93 4.84 4.71 4.7 4.8 4.73 4.68 4.86 4.81 4.61
935.555 4.69 4.86 4.79 4.57 4.57 4.71 4.73 4.69 4.78 4.79
954.844 4.59 4.4 4.42 4.46 4.41 4.44 4.61 4.79 4.8 4.8
974.134 4.85 5.02 5.09 5.14 5.32 5.58 5.92 6.15 6.14 6.41
993.424 6.87 7.12 7.42 7.71 8.28 8.99 9.6 10.08 10.58 11.27
1012.714 11.99 12.69 13.36 13.91 14.64 15.55 16.42 17.38 18.3 19.19
1032.003 19.96 20.71 21.57 22.28 23.13 24.22 25.24 26.13 26.82 27.45
1051.293 28.23 28.71 29.15 29.4 29.41 29.44 29.32 28.9 28.72 28.76
1070.583 28.65 28.62 28.2 27.58 26.77 26.27 26.31 26.14 25.93 25.6
1089.873 25.79 26.5 26.53 26.65 26.94 26.98 26.73 26.37 26.42 26.11
1109.163 25.71 25.46 24.8 23.51 22.28 21.51 20.73 20.17 19.4 19.13
1128.452 19.01 18.59 18.45 18.54 18.81 19.13 19.37 19.34 19.22 18.84
1147.742 18.12 17.74 17.17 16.55 16.3 15.37 14.46 14.1 13.61 13
1167.032 12.62 12.53 12.39 12.38 12.42 12.28 12.46 12.51 12.63 12.82
1186.322 12.95 13.07 13.14 13.77 14.36 14.31 14.31 14.84 15.31 15.56
1205.611 15.78 15.97 16.25 16.87 17.33 17.84 18.31 18.26 18.22 18.12
1224.901 18.05 18.48 18.67 18.5 18.56 18.66 18.45 18.05 18.18 18.38
1244.191 18.54 18.7 18.84 18.89 19.13 19.68 20.11 20.52 20.73 20.89
1263.481 21.14 21.47 21.85 22.1 22.34 22.3 22.06 21.77 21.33 20.87
1282.771 20.36 19.86 19.17 18.38 17.61 16.78 16.05 15.32 14.57 13.97
1302.060 13.47 12.94 12.43 12 11.65 11.35 11.06 10.8 10.64 10.53
1321.350 10.44 10.36 10.26 10.18 10.16 10.19 10.17 10.14 10.18 10.28
1340.640 10.36 10.44 10.59 10.76 11.03 11.33 11.65 12.02 12.39 12.77
1359.930 13.13 13.49 13.85 14.13 14.35 14.56 14.78 14.96 15.05 15.06
1379.219 15.09 15.17 15.17 15.12 15.07 14.99 14.92 14.87 14.72 14.52
1398.509 14.32 14 13.68 13.38 13.07 12.72 12.32 11.94 11.7 11.52
1417.799 11.41 11.36 11.28 11.38 11.57 11.77 12.01 12.22 12.54 12.94
1437.089 13.32 13.67 13.99 14.36 14.68 14.95 15.18 15.36 15.52 15.66
1456.378 15.82 15.89 15.9 15.89 15.97 16.08 16.19 16.38 16.72 17.16
1475.668 17.64 18.21 18.9 19.79 20.98 22.51 24.32 26.56 29.27 32.32
1494.958 35.77 39.62 43.8 48.23 52.7 57.04 61.25 64.87 67.61 69.48
1514.248 70.26 69.8 68.21 65.56 61.71 57.24 52.21 46.89 41.64 36.7
1533.538 32.2 28.17 24.76 21.74 19.15 16.99 15.16 13.64 12.33 11.22
1552.827 10.31 9.43 8.71 8.09 7.48 6.96 6.52 6.12 5.72 5.37
1572.117 5.07 4.88 4.66 4.4 4.2 4 3.92 3.82 3.64 3.52
1591.407 3.32 3.15 3.13 3.1 3.03 2.96 2.89 2.85 2.84 2.8
1610.697 2.73 2.77 2.82 2.84 2.92 2.95 2.96 2.96 3.01 3.11
1629.986 3.18 3.29 3.42 3.51 3.7 3.95 4.15 4.38 4.66 4.95
1649.276 5.24 5.59 6.09 6.5 6.87 7.38 7.91 8.49 9.2 10
1668.566 11.02 12.17 13.47 15.04 16.92 19.11 21.7 24.71 28.3 32.32
1687.856 36.62 41.46 46.75 52.25 57.98 63.5 68.07 71.82 74.23 75.48
1707.146 75.47 74.46 72.38 69.1 64.52 58.96 52.64 46.41 40.43 34.76
1726.435 29.63 25.16 21.29 18.13 15.49 13.2 11.47 10.13 9.01 8.1
1745.725 7.39 6.81 6.34 5.87 5.42 5.08 4.71 4.42 4.17 3.83
1765.015 3.53 3.33 3.09 2.81 2.66 2.48 2.28 2.13 2.01 1.88
1784.305 1.78 1.73 1.63 1.53 1.45 1.39 1.36 1.31 1.25 1.17
1803.594 1.1 1.12 1.13 1.09 1.05 1.03 0.978 0.9597 0.969 0.9617
1822.884 0.9756 0.9765 0.9689 0.9366 0.8918 0.862 0.8717 0.8383 0.7791 0.7826
1842.174 0.7965 0.8241 0.8288 0.8416 0.8621 0.8586 0.8174 0.764 0.7462 0.7118
1861.464 0.6689 0.6759 0.7127 0.7478 0.7646 0.6919 0.6505 0.6944 0.708 0.689
1880.754 0.6868 0.7038 0.6949 0.6686 0.7072 0.7187 0.6717 0.6591 0.6824 0.6972
1900.043 0.7345 0.7399 0.6762 0.6795 0.7067 0.702 0.6876 0.7437 0.7469 0.7108
1919.333 0.7395 0.7674 0.78 0.7182 0.6805 0.6724 0.6699 0.7128 0.756 0.76
1938.623 0.7163 0.7153 0.7514 0.7655 0.7452 0.7142 0.7203 0.7163 0.741 0.719
1957.913 0.6775 0.6801 0.6612 0.6498 0.6963 0.7545 0.7253 0.7012 0.7155 0.71
1977.202 0.6637 0.6233 0.6069 0.6153 0.6451 0.6252 0.5895 0.5999 0.6111 0.6036
1996.492 0.614 0.6088 0.5753 0.5631 0.5847 0.5892 0.6125 0.6075 0.5603 0.5692
2015.782 0.5849 0.5874 0.5624 0.5365 0.5715 0.6076 0.5867 0.5793 0.5364 0.5172
2035.072 0.596 0.6005 0.5341 0.5254 0.5541 0.5317 0.4969 0.5132 0.5451 0.5105
2054.362 0.5125 0.548 0.5271 0.5082 0.5622 0.5913 0.5325 0.5066 0.5376 0.5987
2073.651 0.6167 0.58 0.5825 0.5491 0.5165 0.5723 0.6086 0.5937 0.5833 0.5742
2092.941 0.5698 0.5616 0.5412 0.5386 0.533 0.5018 0.5288 0.5307 0.4738 0.5156
2112.231 0.5766 0.5393 0.5575 0.5649 0.5316 0.5252 0.5219 0.4979 0.4836 0.5358
2131.521 0.5605 0.5456 0.5485 0.5305 0.502 0.5467 0.5737 0.5653 0.5539 0.5235
2150.810 0.492 0.5028 0.4807 0.4873 0.4938 0.4624 0.4903 0.4882 0.4386 0.4363
2170.100 0.4751 0.5021 0.517 0.5072 0.4843 0.4662 0.4431 0.4361 0.4535 0.4641
2189.390 0.4692 0.5427 0.5926 0.531 0.5039 0.4261 0.3727 0.442 0.5025 0.5037
2208.680 0.4943 0.5077 0.5094 0.4978 0.4713 0.4535 0.5021 0.5499 0.559 0.5893
2227.970 0.5652 0.5193 0.5058 0.5261 0.5564 0.548 0.5517 0.6025 0.6253 0.6034
2247.259 0.5559 0.5302 0.5458 0.5443 0.5397 0.5399 0.5014 0.4524 0.462 0.5111
2266.549 0.5586 0.5381 0.4939 0.525 0.5339 0.5006 0.4902 0.5083 0.5255 0.4969
2285.839 0.5288 0.5795 0.6292 0.6771 0.5977 0.5677 0.6153 0.6042 0.5727 0.5663
2305.129 0.5708 0.5976 0.578 0.478 0.4696 0.5391 0.552 0.551 0.5543 0.5595
2324.418 0.5864 0.6315 0.6368 0.5582 0.5056 0.5169 0.5296 0.543 0.5819 0.5795
2343.708 0.5689 0.6232 0.6087 0.5797 0.5836 0.544 0.593 0.6567 0.6041 0.5569
2362.998 0.5636 0.5236 0.5302 0.5669 0.5753 0.6364 0.5924 0.5499 0.6019 0.608
2382.288 0.6144 0.6004 0.6335 0.6892 0.6026 0.5573 0.5798 0.5783 0.6094 0.6184
2401.578 0.5889 0.582 0.5921 0.5912 0.6125 0.6342 0.6063 0.6094 0.5554 0.528
2420.867 0.5711 0.5826 0.6011 0.5973 0.5793 0.6014 0.6004 0.5713 0.595 0.5841
2440.157 0.5683 0.5879 0.6138 0.6144 0.6152 0.6294 0.5923 0.5941 0.6541 0.6314
2459.447 0.6106 0.6235 0.6485 0.6267 0.5646 0.5679 0.5895 0.5988 0.6226 0.6613
2478.737 0.6559 0.6374 0.6475 0.6449 0.6167 0.6316 0.6483 0.5842 0.4827 0.4977
2498.026 0.6083 0.6646 0.6085 0.5553 0.5898 0.6469 0.6563 0.6382 0.6957 0.6902
2517.316 0.6478 0.7158 0.7693 0.7118 0.711 0.7625 0.7121 0.6796 0.7072 0.7265
2536.606 0.7393 0.6835 0.7066 0.7149 0.684 0.6724 0.6869 0.796 0.7957 0.7203
2555.896 0.706 0.7119 0.6539 0.6064 0.6825 0.744 0.7326 0.6707 0.6061 0.6833
2575.186 0.6841 0.6462 0.6681 0.6693 0.6733 0.6606 0.7015 0.7694 0.7766 0.7305
2594.475 0.7094 0.7568 0.6821 0.646 0.687 0.6759 0.7387 0.7959 0.7615 0.6718
2613.765 0.6611 0.6911 0.6829 0.7109 0.7636 0.7667 0.7181 0.7232 0.8233 0.7966
2633.055 0.7373 0.7819 0.7961 0.8072 0.793 0.7715 0.8104 0.7974 0.7203 0.6973
2652.345 0.6847 0.6752 0.7707 0.812 0.7831 0.843 0.8057 0.8306 0.8716 0.8477
2671.634 0.832 0.8091 0.865 0.854 0.859 0.8827 0.9248 0.9762 0.9538 1
2690.924 1.08 1.05 1.07 1.2 1.28 1.28 1.25 1.28 1.29 1.31
2710.214 1.38 1.37 1.33 1.35 1.36 1.34 1.36 1.42 1.44 1.41
2729.504 1.37 1.34 1.39 1.36 1.39 1.45 1.39 1.43 1.46 1.44
2748.794 1.46 1.4 1.42 1.49 1.49 1.52 1.48 1.58 1.66 1.65
2768.083 1.64 1.68 1.7 1.75 1.81 1.83 1.98 1.99 2.01 2.06
2787.373 2.05 2.16 2.19 2.12 2.13 2.27 2.3 2.24 2.34 2.39
2806.663 2.42 2.57 2.67 2.75 2.82 2.86 2.85 2.93 3.08 3.1
2825.953 3.19 3.36 3.5 3.63 3.81 4.03 4.1 4.27 4.58 4.84
2845.242 5.12 5.41 5.68 5.93 6.29 6.7 7.12 7.58 8.05 8.56
2864.532 9.03 9.61 10.34 11 11.72 12.47 13.09 13.83 14.49 15.05
2883.822 15.61 16.05 16.43 16.65 16.7 16.68 16.67 16.51 16.22 16.09
2903.112 16.05 16.01 16.08 16.31 16.59 16.85 17.26 17.8 18.33 18.93
2922.401 19.58 20.3 21.15 21.97 22.77 23.51 24.14 24.61 25 25.33
2941.691 25.43 25.43 25.12 24.54 23.96 23.11 22.16 21.28 20.41 19.62
2960.981 18.88 18.31 18.01 18.01 18.23 18.55 18.86 18.94 18.86 18.82
2980.271 18.64 18.18 17.63 16.9 15.8 14.48 13.18 12.01 11 9.99
2999.561 8.84 7.88 7.01 6.15 5.57 4.91 4.34 3.99 3.61 3.27
3018.850 2.89 2.51 2.27 2.1 1.95 1.92 1.86 1.7 1.62 1.63
3038.140 1.58 1.39 1.3 1.31 1.3 1.21 1.12 1.09 1.09 1.03
3057.430 1.02 1.02 0.982 0.9961 0.9727 0.95 0.9469 0.9476 1 0.9935
3076.720 0.9042 0.9222 0.8932 0.775 0.7592 0.7639 0.7563 0.746 0.7399 0.7218
3096.009 0.7463 0.7553 0.6871 0.7164 0.7254 0.6799 0.6969 0.7169 0.7389 0.8137
3115.299 0.8147 0.8056 0.7833 0.7079 0.6951 0.6915 0.7133 0.7301 0.7203 0.6878
3134.589 0.7403 0.775 0.6811 0.6868 0.7403 0.7771 0.7799 0.7704 0.769 0.7453
3153.879 0.7131 0.7707 0.7887 0.7409 0.7537 0.6895 0.7188 0.7559 0.7342 0.7037
3173.169 0.757 0.8073 0.7857 0.8225 0.8405 0.8508 0.7304 0.6809 0.7485 0.7921
3192.458 0.7493 0.7199 0.8595 0.9046 0.8406 0.8029 0.746 0.766 0.807 0.8419
3211.748 0.8316 0.6793 0.7673 0.9553 0.8828 0.6847 0.7043 0.751 0.7062 0.7592
3231.038 0.7474 0.7555 0.783 0.8262 0.8631 0.8417 0.7187 0.6332 0.7422 0.7766
3250.328 0.7516 0.7554 0.7869 0.7961 0.694 0.7019 0.7828 0.7369 0.7479 0.7568
3269.617 0.6824 0.7302 0.8174 0.8868 0.9111 0.84 0.795 0.8477 0.8578 0.8674
3288.907 0.9504 0.9419 0.9435 0.9301 0.92 0.8968 0.8502 0.9811 1.05 1.08
3308.197 1.09 0.9396 0.8556 0.9571 1.04 0.9983 1.04 1.05 0.9903 1.04
3327.487 1.09 1.18 1.21 1.14 1.14 1.16 1.23 1.29 1.21 1.15
3346.777 1.12 1.15 1.23 1.33 1.38 1.44 1.45 1.39 1.47 1.44
3366.066 1.36 1.44 1.54 1.62 1.55 1.68 1.8 1.74 1.78 1.87
3385.356 2.01 2.08 2.17 2.2 2.29 2.49 2.57 2.59 2.58 2.67
3404.646 2.79 2.77 2.82 2.86 2.81 2.98 3.18 3.34 3.63 3.94
3423.936 4.27 4.75 5.34 5.96 6.69 7.52 8.35 9.37 10.54 11.56
3443.225 12.56 13.59 14.51 15.22 15.78 16.19 16.47 16.49 16.23 15.91
3462.515 15.45 14.85 13.95 13.05 12.35 11.61 11.1 10.51 9.97 9.59
3481.805 9.25 9.05 8.82 8.64 8.61 8.7 8.67 8.52 8.5 8.48
3501.095 8.54 8.62 8.61 8.67 8.61 8.44 8.32 8.33 8.29 7.98
3520.385 7.7 7.57 7.32 7.07 6.93 6.79 6.57 6.33 6.17 6.09
3539.674 5.89 5.65 5.52 5.33 5.11 4.94 4.84 4.69 4.57 4.43
3558.964 4.3 4.2 4.04 3.92 3.96 4 3.83 3.71 3.51 3.29
3578.254 3.38 3.38 3.17 3.05 2.93 2.79 2.86 2.92 2.88 2.89
3597.544 2.83 2.64 2.65 2.75 2.72 2.81 2.8 2.77 2.8 2.72
3616.833 2.72 2.76 2.78 2.98 3.05 2.99 3.1 3.21 3.36 3.53
3636.123 3.7 3.96 4.32 4.73 5.13 5.71 6.3 6.78 7.32 7.83
3655.413 8.28 8.7 9.13 9.64 9.97 9.94 9.66 9.52 9.27 8.8
3674.703 8.34 7.76 7.17 6.64 6.22 5.57 4.87 4.44 3.96 3.53
3693.993 3.25 3.02 2.77 2.59 2.27 1.99 1.81 1.65 1.68 1.6
3713.282 1.58 1.41 1.21 1.3 1.31 1.33 1.23 1.16 1.21 1.08
3732.572 1.01 1.02 1.09 1.07 0.9042 1.01 1.1 0.9469 0.9857 1.06
3751.862 0.9528 0.8805 0.9595 0.8966 0.9719 1.07 0.9839 0.9018 0.8853 0.9227
3771.152 0.8454 0.7138 0.7218 0.7881 0.7679 0.8036 0.8564 0.8435 0.7381 0.7243
3790.441 0.7431 0.7537 0.8168 0.81 0.7583 0.7742 0.7553 0.6181 0.6689 0.7095
3809.731 0.5651 0.6016 0.7504 0.8004 0.7408 0.7571 0.7934 0.6853 0.6818 0.7064
3829.021 0.7256 0.635 0.5229 0.7173 0.8352 0.6641 0.6642 0.7208 0.6156 0.5787
3848.311 0.6736 0.6168 0.6246 0.7561 0.7634 0.7368 0.7078 0.8254 0.8397 0.7368
3867.601 0.6711 0.6166 0.5232 0.6133 0.7277 0.6941 0.7996 0.8271 0.7095 0.6878
3886.890 0.6685 0.7295 0.6159 0.6256 0.767 0.6951 0.688 0.7146 0.6301 0.6655
3906.180 0.769 0.5895 0.6266 0.6896 0.6413 0.734 0.6187 0.5368 0.5899 0.6692
3925.470 0.5896 0.4957 0.5856 0.5491 0.595 0.6642 0.6811 0.6099 0.5047 0.5773
3944.760 0.6165 0.6005 0.6381 0.6275 0.6303 0.6707 0.529 0.4583 0.4856 0.629
3964.049 0.5989 0.481 0.557 0.5982 0.6513 0.7253 0.6266 0.3896 0.3911 0.4419
3983.339 0.501 0.5137 0.5067 0.5541 0.5522 0.5608 0.5284 0.5954 0.4764 0.3775
##END=
