##TITLE=N-Mesitylenesulphonyl-1,2,4-triazole
##JCAMP-DX=4.24
##DATA TYPE=INFRARED SPECTRUM
##ORIGIN=EPA-IR VAPOR PHASE LIBRARY
##OWNER=SRD/NIST
Collection (C) 2018 copyright by the U.S. Secretary of Commerce
on behalf of the United States of America. All rights reserved.
##CAS REGISTRY NO=54230-59-0
##MOLFORM=C 11 H 13 N 3 O 2 S
##$NIST SOURCE=MSDC-IR
##STATE=gas
##XUNITS=1/CM
##YUNITS=ABSORBANCE
##XFACTOR=1.
##YFACTOR=0.001
##DELTAX=1.92898
##FIRSTX=549.8
##LASTX=4000.7
##FIRSTY=8.464
##MAXX=4000.7
##MINX=549.759
##MAXY=0.108704
##MINY=0
##NPOINTS=1790
##XYDATA=(X++(Y..Y))
549.759 8.464 7.194 5.794 4.844 4.924 5.614 5.764 6.484 7.964 9.214
569.049 9.744 9.844 10.674 11.384 11.334 11.234 11.844 13.394 16.194 20.674
588.339 27.074 35.094 43.754 52.214 58.904 62.284 61.914 57.484 49.614 40.264
607.628 31.244 23.304 17.164 13.094 10.494 9.174 8.624 8.574 9.104 9.554
626.918 9.874 10.444 10.714 10.634 10.584 10.214 9.474 9.524 9.434 10.254
646.208 12.364 14.754 18.864 23.994 31.684 43.514 58.684 75.714 91.634 103.404
665.498 108.704 107.064 98.734 85.004 67.844 51.314 38.284 28.684 22.434 18.534
684.787 15.144 12.004 9.874 8.444 7.184 6.434 6.294 6.104 5.754 5.574
704.077 5.414 5.494 5.924 6.264 6.174 6.134 6.174 6.104 5.644 4.984
723.367 4.224 2.924 2.274 2.364 2.314 1.8658 1.7204 1.7811 1.7734 2.214
742.657 2.214 1.954 1.5877 1.5902 1.7421 1.6804 1.994 1.7928 1.8538 1.888
761.947 0.97999 0.91051 1.2498 1.0464 0.785 0.91239 1.1309 1.2501 0.92658 0.598
781.236 0.736 1.0795 1.1253 0.8869 0.733 0.915126 0.9957 0.442 0.545 0.8945
800.526 1.00954 1.1942 1.2496 0.8587 0.714 1.172 1.3453 1.3674 1.161 1.4151
819.816 1.611 1.7173 1.944 1.6788 1.5776 1.7688 2.004 2.204 2.404 3.014
839.106 3.864 4.344 5.304 6.464 7.524 8.324 8.274 8.174 8.314 8.464
858.395 8.834 8.974 8.924 8.664 7.764 6.844 5.494 4.134 3.364 2.624
877.685 2.234 2.344 2.724 2.914 3.194 3.764 3.794 3.794 3.784 3.554
896.975 3.314 2.374 2.144 2.634 2.074 1.6488 2.024 2.244 1.964 1.7466
916.265 1.6869 2.014 2.184 1.8149 1.7957 2.004 2.044 2.614 2.944 2.904
935.555 4.084 4.884 5.184 5.694 5.684 5.694 5.454 4.474 4.094 4.364
954.844 3.934 3.544 3.824 3.794 3.734 4.314 4.644 5.384 6.524 7.634
974.134 9.314 11.194 13.844 16.254 17.754 18.594 18.054 16.424 13.984 10.604
993.424 7.484 5.454 4.574 3.944 2.964 2.394 2.164 2.394 2.404 2.294
1012.714 2.124 2.094 2.064 2.374 2.834 2.834 3.324 3.684 4.114 3.774
1032.003 3.664 4.224 4.024 3.594 3.754 3.304 3.084 3.954 3.974 3.584
1051.293 3.684 3.444 3.044 2.924 2.394 2.224 2.574 3.354 3.824 3.504
1070.583 3.794 4.454 4.984 6.564 8.334 10.304 12.574 14.644 19.544 26.404
1089.873 33.094 40.924 50.444 59.254 63.044 62.604 58.544 50.844 41.144 29.424
1109.163 19.384 13.494 10.554 8.684 7.904 7.914 7.784 9.024 11.794 14.334
1128.452 17.584 21.004 24.144 26.944 28.244 28.444 26.324 22.204 17.804 14.584
1147.742 11.084 8.914 8.364 5.964 5.014 5.834 6.454 6.934 7.694 9.754
1167.032 12.604 15.544 19.964 24.424 28.524 33.004 36.694 39.314 40.334 41.034
1186.322 42.044 43.024 44.234 45.484 46.534 47.144 47.854 47.714 47.084 46.034
1205.611 43.324 39.454 34.744 29.774 24.704 20.004 14.464 11.154 8.814 7.244
1224.901 6.464 5.164 4.804 4.364 4.474 3.994 3.674 4.314 3.794 3.554
1244.191 4.174 4.564 4.984 5.764 7.164 8.864 11.584 15.164 19.424 23.454
1263.481 26.544 29.504 31.334 30.704 27.764 23.414 19.144 15.044 11.474 9.484
1282.771 8.054 7.364 7.014 6.284 6.354 6.504 6.144 5.814 5.744 6.324
1302.060 7.184 8.334 9.994 12.124 14.754 17.734 20.414 22.114 22.514 21.284
1321.350 18.914 15.964 12.484 9.254 7.094 6.004 5.434 4.934 4.594 4.564
1340.640 4.464 4.234 4.174 4.264 4.404 4.594 4.864 5.174 5.654 6.384
1359.930 7.534 8.954 10.554 12.564 14.994 17.584 20.254 23.304 27.174 31.884
1379.219 36.984 42.044 46.574 49.594 50.614 49.794 47.394 44.054 40.344 36.774
1398.509 33.844 31.504 29.784 28.634 28.014 27.704 27.484 27.184 26.624 25.814
1417.799 24.854 23.954 23.074 21.974 20.634 19.184 17.654 16.044 14.494 13.224
1437.089 11.784 10.684 10.094 9.624 9.254 9.114 9.184 9.134 9.104 9.134
1456.378 9.164 9.234 9.454 9.534 9.764 10.144 10.324 10.474 10.504 10.504
1475.668 10.644 10.894 11.404 12.264 13.244 14.384 16.054 18.224 20.824 23.524
1494.958 25.754 27.304 27.714 26.504 23.994 20.544 16.674 13.064 10.244 8.584
1514.248 7.784 7.324 7.044 7.124 7.194 7.324 7.614 7.584 7.474 7.544
1533.538 7.574 7.324 7.164 7.244 7.154 7.114 7.494 7.924 8.214 8.574
1552.827 8.854 9.184 9.304 9.084 9.134 9.134 8.874 8.404 8.034 7.734
1572.117 7.314 7.214 7.414 7.504 7.504 7.554 7.954 8.734 10.014 11.604
1591.407 13.134 14.814 16.944 19.114 20.354 20.854 20.474 18.944 16.824 14.364
1610.697 11.514 8.864 6.774 5.284 4.574 3.994 3.344 2.964 2.614 2.424
1629.986 2.234 2.214 2.404 2.264 2.104 1.914 1.8785 1.813 1.5971 1.3833
1649.276 1.3124 1.4321 1.3107 1.3724 1.4369 1.2177 1.1981 1.3221 1.3257 1.1471
1668.566 1.1048 1.2433 1.2933 1.0925 1.00005 1.2692 1.3898 1.2966 1.2465 1.1126
1687.856 1.1654 1.3703 1.2665 1.3024 1.4271 1.3422 1.3021 1.3017 1.4309 1.6714
1707.146 1.6978 1.7865 2.054 2.144 2.234 2.364 2.494 2.704 2.704 2.744
1726.435 2.744 2.454 2.214 2.074 1.7945 1.6209 1.5301 1.5846 1.651 1.5952
1745.725 1.672 1.7984 1.8669 1.8012 2.004 2.114 1.9095 1.7759 1.7033 1.866
1765.015 1.852 1.6353 1.7107 1.974 2.184 2.284 2.244 2.214 2.314 2.174
1784.305 1.8595 1.5267 1.2473 1.198 1.1161 1.034 1.0296 0.798 0.697 0.675
1803.594 0.57 0.67 0.8359 0.782 0.771 0.8 0.789 0.8643 0.8483 0.8387
1822.884 0.8185 0.701 0.725 0.744 0.754 0.833 0.755 0.724 0.735 0.771
1842.174 0.797 0.71 0.73 0.769 0.798 0.72 0.8196 1.035 0.8742 0.811
1861.464 0.93086 1.0152 0.93653 0.754 0.8177 0.8282 0.661 0.73 0.795 0.714
1880.754 0.736 0.734 0.8292 0.96017 0.90941 0.8575 0.9022 0.8838 0.8835 0.8548
1900.043 0.8253 0.863 0.9029 0.8889 0.8687 0.91242 0.97702 0.9544 0.96422 0.96369
1919.333 0.916587 0.937 0.8553 0.8514 0.779 0.747 0.697 0.662 0.803 0.8593
1938.623 0.8616 0.82 0.807 0.8435 0.808 0.8559 0.9569 0.91074 0.8146 0.858
1957.913 0.8931 0.812 0.741 0.785 0.8621 0.8497 0.8265 0.8 0.719 0.736
1977.202 0.778 0.764 0.724 0.756 0.807 0.695 0.682 0.646 0.709 0.96507
1996.492 0.95867 0.8991 0.807 0.723 0.726 0.721 0.802 0.774 0.679 0.74
2015.782 0.742 0.723 0.739 0.762 0.8319 0.853 0.8991 0.809 0.696 0.767
2035.072 0.78 0.8219 0.98456 0.93601 0.8956 0.919059 0.8798 0.98449 1.0349 0.94055
2054.362 0.93987 0.9335 0.892 0.916278 0.920334 0.90909 0.90723 0.8346 0.94937 1.1507
2073.651 1.119 1.1228 1.1884 1.0693 0.98381 1.1105 1.1052 1.0421 1.1019 1.0388
2092.941 0.913425 0.915212 0.8948 0.8585 0.8302 0.93643 0.97063 0.8647 0.9022 0.96297
2112.231 0.99108 0.814 0.695 0.778 0.8919 0.93352 0.8686 0.804 0.722 0.8261
2131.521 0.99264 0.877 0.8577 1.00904 1.0506 0.918446 0.8268 0.98534 0.915094 0.8151
2150.810 0.8 0.8187 0.8391 0.78 0.8505 0.8745 0.93792 1.0472 1.0323 0.99088
2170.100 1.0142 1.0926 1.0535 0.921331 1.00714 0.91533 0.725 0.8243 0.8557 0.785
2189.390 0.8454 0.90805 0.99567 1.0181 0.8994 1.0351 1.1606 1.0649 1.00931 0.899
2208.680 0.723 0.804 1.0316 1.0181 0.94469 0.99298 1.0828 1.0336 0.9853 0.99881
2227.970 1.0652 1.1644 1.098 1.2001 1.3643 1.1466 0.98711 0.95284 0.8184 0.92928
2247.259 1.0991 0.9707 1.0012 0.92882 0.704 0.722 0.8672 0.93769 0.775 0.81
2266.549 0.785 0.715 0.74 0.668 0.671 0.8371 0.95541 0.8408 0.72 0.762
2285.839 0.8 0.758 0.734 0.744 1.0195 1.2301 1.0977 1.0182 1.022 1.00865
2305.129 0.8972 0.95451 0.99056 0.8285 0.861 0.9016 0.90612 0.95078 0.826 0.8221
2324.418 0.9031 0.8913 0.8565 0.8362 0.8411 0.8613 0.92849 0.8892 0.8611 1.0248
2343.708 1.0648 0.914243 0.98277 1.0364 0.99518 1.0161 1.0528 1.1013 1.1696 1.0945
2362.998 0.95677 1.0286 1.1328 1.1487 1.0216 1.00942 1.1783 1.2449 1.1874 1.1209
2382.288 1.1855 1.329 1.3597 1.3578 1.4514 1.321 1.1933 1.3614 1.4848 1.4363
2401.578 1.4585 1.4138 1.3808 1.4053 1.3385 1.4123 1.4773 1.4895 1.4404 1.2862
2420.867 1.3404 1.2896 1.0487 0.97327 0.93757 1.0464 1.1175 1.1726 1.2542 1.1903
2440.157 1.2052 1.3752 1.3436 1.1178 1.0694 1.193 1.3128 1.3269 1.1247 1.0763
2459.447 1.3042 1.2643 1.1834 1.1802 1.1558 1.1589 1.1837 1.0115 0.98324 1.2798
2478.737 1.3174 1.1648 1.0967 1.213 1.2297 1.0834 1.00283 0.97295 1.0805 1.3257
2498.026 1.2305 1.1359 1.1712 1.0678 1.1707 1.4567 1.5919 1.5601 1.5599 1.4055
2517.316 1.2847 1.3754 1.3294 1.0235 0.96949 1.2598 1.2592 1.0268 1.0844 1.0377
2536.606 0.94178 0.99886 0.903 0.8728 0.99778 0.98915 0.8758 0.96254 1.0996 1.1895
2555.896 1.0874 0.96528 0.96782 0.90761 1.00985 1.1916 1.3891 1.3468 1.2948 1.3546
2575.186 1.0327 0.8529 0.97703 1.1865 1.1688 1.0752 1.1742 1.1191 1.1179 1.2357
2594.475 1.1402 1.1072 1.1618 1.1443 1.1874 1.1692 1.00696 0.92532 0.95727 0.94638
2613.765 0.8464 0.722 0.8525 1.0431 0.9625 0.97873 1.064 1.0303 1.1024 1.0916
2633.055 1.0717 1.1719 1.1426 1.102 1.0941 0.98777 0.93171 0.972 1.0421 0.96445
2652.345 0.8488 0.93865 1.0182 1.1158 1.1143 1.0518 1.00078 0.773 0.758 0.96503
2671.634 1.0569 1.01022 1.0274 1.0184 0.9846 0.95163 0.96247 1.0824 0.99545 1.01259
2690.924 0.99063 0.8263 0.95954 1.0699 1.0329 0.894 0.704 0.677 0.696 0.755
2710.214 0.802 0.804 0.97126 1.00024 0.9625 1.0719 0.98965 0.8371 0.8557 0.8368
2729.504 1.0884 1.2716 1.0742 1.223 1.3686 1.1931 1.1708 1.2935 1.49 1.5494
2748.794 1.3415 1.2902 1.395 1.426 1.3773 1.372 1.3132 1.339 1.3439 1.2658
2768.083 1.2718 1.0951 0.94878 1.0856 1.1281 0.98779 0.8271 0.8481 0.98397 1.0513
2787.373 1.0126 0.8603 0.920621 0.94375 1.00921 1.2242 1.2423 1.2446 1.1105 1.1363
2806.663 1.3521 1.4149 1.4425 1.4007 1.2247 1.1919 1.362 1.352 1.2149 1.2408
2825.953 1.3709 1.562 1.5643 1.4518 1.591 1.7474 1.7761 1.6878 1.7227 2.104
2845.242 2.314 2.354 2.424 2.394 2.604 2.704 2.824 3.154 3.384 3.594
2864.532 3.574 3.594 3.684 3.814 3.944 4.044 4.074 4.104 4.104 3.984
2883.822 3.904 3.944 4.004 3.894 3.864 3.894 3.914 3.774 3.554 3.444
2903.112 3.764 4.024 4.104 4.374 4.524 4.754 5.024 5.204 5.304 5.524
2922.401 6.204 7.054 7.764 8.114 8.524 9.194 9.484 9.384 9.534 9.974
2941.691 10.174 10.474 10.844 11.194 11.754 12.174 12.004 11.484 10.624 9.734
2960.981 8.864 8.004 7.524 7.024 6.464 6.244 6.104 6.134 6.264 6.354
2980.271 6.684 6.894 7.034 7.064 7.364 7.824 8.114 8.214 7.894 7.394
2999.561 7.144 7.074 6.904 6.674 6.114 5.664 5.724 5.824 5.584 5.434
3018.850 5.764 5.814 5.734 5.914 6.164 6.504 6.964 7.274 7.644 8.104
3038.140 8.154 7.984 8.054 7.874 7.414 6.904 6.214 5.774 5.244 4.534
3057.430 3.914 3.444 3.144 3.124 3.124 2.834 2.644 2.494 2.124 1.974
3076.720 1.984 1.8242 1.9016 2.164 2.154 1.914 1.619 1.58 1.4556 1.1856
3096.009 1.1513 1.1492 1.1757 1.125 1.0491 1.00792 1.1543 1.1229 1.1605 1.3618
3115.299 1.3246 1.3845 1.331 1.2562 1.3587 1.4858 1.7847 1.7336 1.5561 1.7596
3134.589 1.795 2.154 2.394 2.004 2.044 2.544 2.814 2.724 2.764 2.684
3153.879 2.334 1.8205 1.4335 1.4292 1.4383 1.3059 1.0377 0.921565 0.99252 0.922991
3173.169 0.8393 0.673 0.672 0.8999 0.8206 0.694 0.763 0.8225 1.00905 0.8742
3192.458 0.638 0.8505 0.712 0.665 0.8551 0.928 0.793 0.639 0.8945 0.8495
3211.748 0.8349 0.95913 0.54 0.615 0.722 0.589 0.791 0.8754 0.9331 0.676
3231.038 0.596 0.712 0.745 0.837 0.816 0.753 0.579 0.43 0.281 0.324
3250.328 0.694 0.75 0.732 0.794 0.747 0.728 0.684 0.752 0.8401 0.8932
3269.617 0.624 0.449 0.538 0.658 0.696 0.423 0.657 0.8184 0.502 0.537
3288.907 0.481 0.433 0.532 0.551 0.551 0.607 0.667 0.795 0.755 0.604
3308.197 0.578 0.475 0.587 0.577 0.325 0.44 0.557 0.419 0.421 0.51
3327.487 0.568 0.647 0.727 0.496 0.536 0.495 0.29 0.648 0.8413 0.74
3346.777 0.67 0.509 0.398 0.621 0.584 0.473 0.507 0.449 0.473 0.397
3366.066 0.264 0.322 0.511 0.461 0.308 0.388 0.38 0.424 0.622 0.735
3385.356 0.538 0.516 0.753 0.571 0.683 0.591 0.433 0.688 0.672 0.624
3404.646 0.619 0.536 0.457 0.482 0.611 0.426 0.289 0.511 0.501 0.753
3423.936 0.678 0.24 0.155 0.236 0.268 0.054 0.258 0.579 0.659 0.99565
3443.225 0.8539 0.502 0.920964 0.8148 0.264 0.521 0.685 0.621 0.97953 0.726
3462.515 0.134 0.163 0.353 0.482 0.61 0.544 0.26 0.489 0.75 0.593
3481.805 0.712 0.637 0.209 0.238 0.414 0.314 0.375 0.801 0.8963 0.739
3501.095 0.587 0.262 0.462 0.599 0.56 0.8344 0.682 0.446 0.638 0.8818
3520.385 0.797 0.661 0.544 0.545 0.484 0.399 0.603 0.673 0.459 0.43
3539.674 0.608 0.774 0.793 0.519 0.526 0.562 0.384 0.466 0.442 0.439
3558.964 0.532 0.441 0.416 0.692 0.67 0.41 0.629 0.8446 0.8281 0.776
3578.254 0.577 0.134 0.141 0.461 0.365 0.307 0.483 0.49 0.581 0.632
3597.544 0.549 0.479 0.375 0.367 0.396 0.307 0.201 0.425 0.581 0.448
3616.833 0.35 0.304 0.303 0.236 0.449 0.532 0.462 0.446 0.345 0.576
3636.123 0.649 0.529 0.699 0.8179 0.654 0.589 0.575 0.529 0.292 0.368
3655.413 0.656 0.582 0.283 0.014 0.094 0.038 0.266 0.205 0.182 0.664
3674.703 0.594 0.398 0.51 0.598 0.46 0.351 0.474 0.445 0.521 0.733
3693.993 0.661 0.8693 1.0363 0.809 0.537 0.531 0.7 0.618 0.41 0.457
3713.282 0.8336 0.807 0.403 0.348 0.341 0.407 0.8655 0.94318 0.564 0.488
3732.572 0.355 0.143 0.459 0.8926 1.177 1.1092 0.718 0.739 0.709 0.565
3751.862 0.558 0.412 0.583 0.456 0.313 0.81 0.90579 0.653 0.555 0.604
3771.152 0.441 0.218 0.277 0.296 0.214 0.412 0.601 0.351 0.384 0.453
3790.441 0.256 0.064 0.26 0.814 0.615 0.214 0.02 0.093 0.449 0.648
3809.731 0.644 0.772 0.8704 0.8958 0.99252 0.913876 0.797 0.65 0.501 0.504
3829.021 0.288 0.153 0.347 0.148 0 0.113 0.291 0.426 0.203 0.009
3848.311 0.144 0.496 0.776 0.759 0.409 0.115 0.188 0.441 0.566 0.558
3867.601 0.509 0.296 0.164 0.404 0.579 0.368 0.492 0.659 0.535 0.541
3886.890 0.484 0.405 0.211 0.127 0.645 1.0528 0.8158 0.53 0.617 0.639
3906.180 0.618 0.586 0.459 0.386 0.241 0.026 0.352 0.401 0.433 0.678
3925.470 0.522 0.584 0.773 0.572 0.389 0.511 0.311 0.347 0.599 0.667
3944.760 0.548 0.514 0.51 0.356 0.391 0.763 0.726 0.414 0.352 0.532
3964.049 0.773 0.787 0.765 0.93349 1.0634 0.8498 0.689 0.642 0.49 0.391
3983.339 0.342 0.451 0.666 0.745 0.8544 0.921036 0.594 0.463 0.652 0.8769
##END=
