##TITLE=3-Benzoyl pyridine
##JCAMP-DX=4.24
##DATA TYPE=INFRARED SPECTRUM
##ORIGIN=NIST Mass Spectrometry Data Center
##OWNER=NIST Standard Reference Data Program
Collection (C) 2018 copyright by the U.S. Secretary of Commerce
on behalf of the United States of America. All rights reserved.
##CAS REGISTRY NO=5424-19-1
##MOLFORM=C 12 H 9 N O
##$NIST SOURCE=MSDC-IR
##SPECTROMETER/DATA SYSTEM=HP-GC/MS/IRD
##STATE=gas
##XUNITS=1/CM
##YUNITS=ABSORBANCE
##XFACTOR=1.0
##YFACTOR=0.000030800
##DELTAX=4.0
##FIRSTX=550.0
##LASTX=3846.0
##FIRSTY=0.000308
##MAXX=3846
##MINX=550
##MAXY=0.308
##MINY=0
##NPOINTS=825
##XYDATA=(X++(Y..Y))
550.0 10 7 0 4 9 14 18 19 19 17
590.0 17 20 32 54 87 135 182 212 213 187
630.0 162 175 251 499 1184 2068 2512 2335 1567 857
670.0 645 669 795 1029 1383 1873 2497 3248 4039 4698
710.0 4901 4305 3306 2372 1673 1231 950 752 586 458
750.0 378 336 322 343 406 515 609 641 620 520
790.0 388 298 264 274 317 381 448 488 489 439
830.0 356 281 229 197 178 164 153 151 157 166
870.0 172 176 180 191 216 268 357 498 727 1103
910.0 1704 2432 3026 3334 3344 3209 2952 2457 1780 1098
950.0 662 492 430 396 368 320 261 219 194 183
990.0 197 245 290 313 320 331 421 609 808 882
1030.0 807 620 413 283 199 149 143 161 188 219
1070.0 244 258 265 267 269 268 257 243 241 263
1110.0 318 397 463 481 446 388 354 368 434 540
1150.0 629 652 599 501 456 523 707 901 1003 997
1190.0 872 743 642 543 482 465 477 513 565 624
1230.0 684 745 817 904 1017 1197 1534 2187 3384 5295
1270.0 7704 9661 10000 8365 5628 3346 2286 2001 1933 1926
1310.0 1961 1986 1943 1809 1592 1320 1027 726 506 400
1350.0 349 311 278 252 235 231 237 250 266 290
1390.0 329 400 527 764 1178 1631 1818 1637 1172 718
1430.0 510 475 542 691 808 803 677 477 347 296
1470.0 267 243 217 193 175 160 150 140 133 131
1510.0 134 143 156 175 202 238 284 340 405 479
1550.0 562 662 803 1017 1307 1699 2186 2729 3089 3035
1590.0 2597 1993 1491 1162 900 660 496 420 390 381
1630.0 387 409 445 488 546 626 771 1028 1524 2409
1670.0 3781 5416 6631 7051 6578 5260 3749 2541 1730 1233
1710.0 924 723 581 480 414 371 339 307 275 244
1750.0 218 204 195 185 176 166 154 140 128 118
1790.0 114 121 134 157 176 182 169 139 110 89
1830.0 78 73 72 71 70 71 70 71 73 76
1870.0 81 90 105 123 144 163 178 191 200 207
1910.0 210 209 197 175 149 127 118 124 138 154
1950.0 164 169 168 165 158 141 115 82 53 36
1990.0 31 29 31 35 38 40 35 29 23 19
2030.0 16 17 16 15 16 16 15 14 14 13
2070.0 13 11 10 9 6 5 4 2 1 1
2110.0 1 1 1 1 1 1 1 1 3 4
2150.0 4 3 2 2 3 6 8 9 12 14
2190.0 15 16 16 15 15 16 16 17 19 17
2230.0 17 16 15 14 15 16 15 14 12 12
2270.0 11 10 11 12 12 13 15 16 18 22
2310.0 28 37 41 39 35 31 30 32 33 31
2350.0 27 22 19 16 17 19 20 21 22 21
2390.0 20 19 19 21 24 29 37 45 51 53
2430.0 51 42 33 25 18 15 12 11 10 10
2470.0 9 7 7 7 8 8 9 10 12 13
2510.0 14 14 12 10 10 8 6 7 7 6
2550.0 7 8 9 10 11 13 15 17 20 23
2590.0 26 30 33 34 32 29 26 24 21 20
2630.0 18 16 15 14 13 12 9 7 5 4
2670.0 2 2 1 1 1 1 3 4 3 3
2710.0 4 3 4 7 10 13 17 21 25 28
2750.0 29 28 25 20 15 12 9 8 7 8
2790.0 9 10 9 8 7 4 5 5 6 8
2830.0 10 14 17 19 23 28 33 38 43 45
2870.0 51 52 54 53 50 44 39 33 29 25
2910.0 24 25 26 29 32 36 41 46 51 56
2950.0 63 75 91 109 126 136 135 126 111 105
2990.0 108 121 141 168 205 251 305 373 466 600
3030.0 789 1022 1247 1410 1466 1429 1366 1317 1329 1437
3070.0 1559 1629 1643 1592 1509 1370 1127 842 611 458
3110.0 343 257 196 162 144 132 125 115 103 92
3150.0 83 77 73 68 60 52 41 30 24 18
3190.0 16 16 15 12 9 6 7 7 6 4
3230.0 3 4 5 7 8 10 9 10 11 11
3270.0 12 12 9 8 10 11 11 10 12 14
3310.0 16 19 25 34 46 63 84 104 121 125
3350.0 117 100 80 61 48 35 28 24 21 20
3390.0 17 16 15 13 12 11 10 9 8 6
3430.0 7 6 5 5 4 5 4 3 4 3
3470.0 2 2 3 4 3 2 2 2 3 4
3510.0 3 1 1 1 2 1 3 2 2 3
3550.0 1 1 3 1 1 2 3 2 3 2
3590.0 1 1 2 3 2 1 3 4 5 6
3630.0 7 9 10 10 11 12 14 14 13 12
3670.0 13 14 14 15 16 15 16 18 19 17
3710.0 16 16 15 16 15 14 13 14 13 12
3750.0 12 11 10 8 9 10 10 9 8 8
3790.0 10 12 11 11 12 13 14 13 13 11
3830.0 8 6 5 5 4
##END=
