##TITLE=Ethyl S-(E)-4,5,O-isopropylidene-4,5-dihydroxypent-2-enoate
##JCAMP-DX=4.24
##DATA TYPE=INFRARED SPECTRUM
##ORIGIN=EPA-IR VAPOR PHASE LIBRARY
##OWNER=SRD/NIST
Collection (C) 2018 copyright by the U.S. Secretary of Commerce
on behalf of the United States of America. All rights reserved.
##CAS REGISTRY NO=54250-58-7
##MOLFORM=C 10 H 16 O 4
##$NIST SOURCE=MSDC-IR
##STATE=gas
##XUNITS=1/CM
##YUNITS=ABSORBANCE
##XFACTOR=1.
##YFACTOR=0.001
##DELTAX=1.92898
##FIRSTX=549.8
##LASTX=4000.7
##FIRSTY=5.717
##MAXX=4000.7
##MINX=549.759
##MAXY=0.257457
##MINY=0
##NPOINTS=1790
##XYDATA=(X++(Y..Y))
549.759 5.717 6.307 6.797 6.237 5.897 5.527 5.117 5.197 4.667 4.207
569.049 4.167 4.347 5.037 5.137 4.277 3.757 3.487 2.857 3.447 4.287
588.339 3.377 2.247 2.717 3.397 3.427 2.997 2.877 3.257 2.837 3.267
607.628 3.997 3.447 3.187 3.357 2.917 2.757 3.407 3.987 4.067 4.417
626.918 4.727 4.717 4.427 4.337 4.357 4.317 4.847 6.037 6.777 6.507
646.208 6.887 7.467 7.057 5.867 4.357 4.507 5.087 4.557 4.167 3.767
665.498 3.437 3.277 2.807 2.277 2.327 3.207 3.487 2.957 3.057 3.867
684.787 3.867 3.297 3.057 2.977 3.247 4.027 4.657 4.687 4.797 4.917
704.077 5.147 5.947 6.367 6.647 7.257 7.357 7.217 6.477 6.427 6.607
723.367 5.967 5.427 5.217 5.757 5.897 5.657 5.477 5.357 5.507 5.437
742.657 5.067 4.807 4.637 4.557 4.837 5.097 5.097 4.957 4.947 5.057
761.947 4.867 5.157 5.707 5.267 5.197 5.737 5.907 5.967 6.537 7.857
781.236 8.927 9.507 9.867 10.367 10.897 10.777 10.857 11.177 10.887 10.317
800.526 10.007 9.447 9.017 8.987 8.987 9.367 9.857 9.927 10.717 12.247
819.816 13.007 13.457 14.047 15.167 16.807 18.717 21.357 24.187 26.757 29.627
839.106 33.127 37.347 41.997 45.797 48.317 49.767 50.257 50.087 48.547 46.337
858.395 44.067 41.377 39.417 37.847 35.827 33.647 31.827 29.887 28.037 26.447
877.685 24.727 22.927 21.717 20.917 19.687 18.937 18.647 17.797 17.797 18.617
896.975 18.857 18.567 18.377 18.287 18.057 18.147 17.887 17.777 17.377 16.697
916.265 16.657 16.457 16.027 15.827 15.457 15.217 15.307 15.177 15.187 15.787
935.555 16.317 16.477 16.657 16.977 17.147 17.567 18.697 19.727 20.387 20.897
954.844 22.387 24.867 27.177 29.887 33.407 36.717 39.317 41.797 44.087 45.617
974.134 46.357 46.167 44.567 41.857 38.897 35.917 32.797 29.977 27.577 25.397
993.424 23.977 23.667 23.617 24.057 24.887 25.557 26.277 27.757 29.957 31.667
1012.714 33.887 36.747 40.047 44.197 48.797 54.357 61.087 69.187 77.787 86.827
1032.003 96.687 104.797 110.367 114.377 117.697 118.967 117.747 116.377 115.387 114.747
1051.293 115.147 117.447 121.897 128.247 136.057 146.177 155.457 163.697 169.827 169.977
1070.583 165.247 156.537 145.697 130.187 112.667 98.787 88.027 78.597 71.757 66.427
1089.873 61.537 58.547 57.307 55.657 53.467 53.567 53.447 50.497 47.707 47.077
1109.163 47.807 48.477 48.707 49.637 50.057 50.557 51.297 52.627 54.827 55.687
1128.452 56.747 59.497 61.087 62.887 64.587 66.177 69.977 74.087 78.957 85.787
1147.742 95.907 108.577 122.147 134.797 148.267 164.247 180.027 194.407 206.917 216.957
1167.032 223.307 226.627 223.657 212.387 197.177 179.537 160.857 143.537 127.797 113.807
1186.322 103.697 96.417 91.197 88.207 86.717 87.137 88.367 91.627 95.917 99.347
1205.611 104.727 111.577 118.247 125.367 131.607 135.357 139.827 144.247 146.617 151.107
1224.901 157.257 161.267 164.277 168.497 172.637 177.127 181.207 184.007 188.467 193.307
1244.191 198.107 204.487 212.097 221.707 232.947 244.917 253.807 257.457 256.417 250.507
1263.481 238.077 220.707 202.107 181.217 160.437 141.907 125.707 111.547 100.277 92.337
1282.771 86.107 82.347 81.007 81.387 84.217 89.177 95.917 103.307 109.727 113.847
1302.060 114.057 110.507 103.467 93.177 81.777 71.147 62.367 55.527 50.207 46.317
1321.350 43.517 41.767 40.597 39.747 39.167 38.667 37.817 36.637 35.207 33.477
1340.640 31.757 30.407 29.217 28.297 28.287 28.637 29.237 30.527 32.537 35.317
1359.930 39.487 45.127 52.717 62.087 71.917 80.927 88.457 93.447 94.977 94.007
1379.219 90.547 84.627 76.837 68.357 59.747 50.877 42.587 36.147 31.557 28.047
1398.509 25.417 23.247 21.297 19.557 18.177 16.937 16.097 15.447 14.617 14.057
1417.799 13.667 13.207 12.727 12.377 12.257 12.107 11.887 11.927 12.167 12.487
1437.089 12.927 13.147 13.477 14.117 14.807 15.347 15.957 16.867 17.567 18.047
1456.378 18.737 19.067 19.287 19.507 19.637 19.647 19.477 19.317 18.917 18.147
1475.668 17.247 16.187 15.047 13.887 12.727 11.677 10.747 9.857 8.987 8.287
1494.958 7.907 7.517 6.857 6.367 6.097 6.067 5.847 5.317 5.117 4.967
1514.248 4.917 4.857 4.597 4.577 4.597 4.457 4.357 4.227 4.067 4.167
1533.538 4.467 4.157 4.097 4.517 4.437 4.417 4.377 4.077 4.137 4.267
1552.827 4.047 3.927 4.187 4.377 4.197 3.957 3.667 3.877 4.187 4.047
1572.117 4.077 4.257 4.307 4.297 4.237 4.257 4.217 4.117 4.327 4.127
1591.407 3.917 4.097 4.227 4.427 4.347 4.287 4.527 4.467 4.377 4.717
1610.697 4.867 4.847 4.907 4.937 5.037 5.397 5.837 6.297 6.557 6.827
1629.986 7.577 8.167 8.587 9.407 10.397 11.577 12.917 14.347 16.317 18.587
1649.276 20.927 23.607 26.677 29.327 31.607 33.597 34.687 34.517 33.227 31.067
1668.566 27.917 24.447 21.517 19.107 16.957 15.607 14.877 14.347 14.257 14.137
1687.856 14.177 14.437 14.867 15.587 16.567 17.527 18.667 19.667 20.347 21.767
1707.146 23.217 24.847 27.117 29.817 33.377 37.997 43.537 50.127 58.677 69.557
1726.435 83.087 99.277 119.177 141.797 168.127 194.487 215.837 230.707 236.067 231.177
1745.725 215.737 190.917 161.837 134.137 110.687 91.707 75.477 62.587 52.217 44.077
1765.015 37.677 32.397 28.147 24.557 21.567 19.217 17.197 15.497 13.867 12.667
1784.305 11.607 10.517 9.767 8.967 8.537 8.287 7.807 7.417 7.167 6.877
1803.594 6.677 6.507 6.197 6.037 5.887 5.797 5.677 5.457 5.297 5.217
1822.884 5.297 5.277 5.217 5.167 4.887 4.827 4.837 4.717 4.617 4.667
1842.174 4.767 4.737 4.447 4.257 4.277 4.147 3.907 3.727 3.717 3.827
1861.464 3.927 3.947 3.897 3.697 3.707 3.667 3.647 3.877 4.077 4.087
1880.754 3.847 3.917 4.147 4.177 4.157 4.107 3.937 3.957 4.087 4.037
1900.043 4.097 4.077 3.927 3.897 3.897 3.707 3.477 3.347 3.197 3.157
1919.333 3.287 3.227 3.127 3.127 2.937 2.807 2.737 2.647 2.567 2.457
1938.623 2.417 2.327 2.357 2.587 2.597 2.537 2.477 2.367 2.457 2.497
1957.913 2.447 2.377 2.267 2.237 2.377 2.577 2.597 2.467 2.417 2.487
1977.202 2.617 2.727 2.797 2.747 2.717 2.627 2.557 2.617 2.667 2.727
1996.492 2.787 2.767 2.717 2.717 2.747 2.827 3.027 3.007 2.957 3.067
2015.782 2.977 2.817 2.887 3.007 3.167 3.177 3.017 3.057 3.037 3.077
2035.072 2.997 2.907 2.817 2.647 2.737 2.697 2.547 2.587 2.537 2.457
2054.362 2.477 2.557 2.477 2.367 2.287 2.337 2.487 2.427 2.317 2.337
2073.651 2.277 2.237 2.257 2.347 2.647 2.537 2.327 2.417 2.597 2.847
2092.941 2.767 2.647 2.727 2.697 2.677 2.697 2.697 2.787 2.947 3.067
2112.231 3.057 2.947 2.907 3.017 3.137 3.177 3.127 3.027 3.117 3.007
2131.521 2.837 2.787 2.527 2.407 2.547 2.537 2.317 2.267 2.217 2.157
2150.810 2.147 2.157 2.277 2.297 2.087 1.997 1.987 1.957 1.957 2.037
2170.100 2.107 2.117 1.967 1.877 1.867 1.757 1.907 2.237 2.297 2.147
2189.390 2.137 1.967 1.917 1.977 1.977 1.907 1.697 1.6313 1.797 1.977
2208.680 1.917 1.857 1.977 1.837 1.787 1.897 1.827 1.847 1.827 1.657
2227.970 1.797 1.937 1.847 1.957 1.887 1.777 1.757 1.657 1.486 1.5652
2247.259 1.677 1.767 1.857 1.717 1.727 1.727 1.4831 1.3996 1.4748 1.3956
2266.549 1.5924 1.767 1.4608 1.4569 1.5 1.5076 1.5044 1.507 1.6121 1.4619
2285.839 1.5015 1.5183 1.4662 1.3832 1.3435 1.4982 1.5915 1.4915 1.3727 1.4747
2305.129 1.657 1.767 1.5322 1.4255 1.529 1.449 1.51 1.737 2.107 2.257
2324.418 1.917 1.737 1.657 1.727 1.827 1.827 2.007 2.107 2.017 2.067
2343.708 2.157 1.857 1.5123 1.697 1.967 1.887 1.817 1.867 2.007 1.777
2362.998 1.4665 1.4871 1.4913 1.4809 1.5384 1.5431 1.4356 1.1729 1.0586 1.0674
2382.288 0.9975 1.114 1.1454 1.0836 1.2759 1.4661 1.3778 1.3356 1.4316 1.5387
2401.578 1.6207 1.4464 1.4908 1.5949 1.378 1.3087 1.2812 1.3577 1.5116 1.3333
2420.867 1.4376 1.3167 1.1354 1.3371 1.3577 1.413 1.4411 1.4712 1.318 1.2892
2440.157 1.5435 1.5772 1.1483 0.9041 1.1648 1.4809 1.3843 1.1792 1.2208 1.2177
2459.447 1.2569 1.197 1.138 1.3142 1.4502 1.4959 1.3998 1.2102 1.1336 1.2832
2478.737 1.3165 1.1987 1.283 1.3134 1.1213 0.9981 1.0109 1.1053 1.067 1.1114
2498.026 1.2312 0.9699 0.9346 1.0751 1.0384 1.2316 1.2744 1.0011 1.0532 1.192
2517.316 1.034 0.9101 0.9946 1.1586 1.2565 1.4304 1.492 1.3608 1.2622 1.3386
2536.606 1.2213 0.9372 1.1417 1.5786 1.827 1.707 1.5736 1.5798 1.557 1.5557
2555.896 1.4417 1.3307 1.3317 1.5345 1.5871 1.6225 1.5582 1.287 1.2981 1.3699
2575.186 1.5547 1.657 1.4103 1.4266 1.4843 1.3649 1.4463 1.3744 1.3939 1.827
2594.475 1.817 1.554 1.687 1.777 1.727 1.5368 1.563 1.707 1.687 1.6137
2613.765 1.6179 1.5048 1.6211 1.917 1.917 1.697 1.491 1.697 1.677 1.647
2633.055 1.807 1.987 1.967 1.747 1.677 1.727 1.857 1.5266 1.3092 1.4474
2652.345 1.6109 1.877 1.927 2.047 2.147 2.267 1.947 1.6258 2.007 1.957
2671.634 1.717 1.897 2.007 1.837 1.787 1.637 1.697 1.897 1.797 1.887
2690.924 1.697 1.787 2.057 2.017 2.117 2.167 1.807 1.677 1.807 1.937
2710.214 2.037 1.987 2.037 1.887 1.797 1.857 2.057 2.167 1.937 1.887
2729.504 2.167 2.447 2.327 1.897 1.647 1.787 1.957 2.147 2.387 2.277
2748.794 1.897 1.707 1.967 2.037 1.687 1.757 1.977 1.947 2.237 2.457
2768.083 2.507 2.417 2.417 2.547 2.567 2.787 2.637 2.617 2.727 2.677
2787.373 2.917 3.117 3.357 3.677 3.457 3.107 3.137 3.267 3.517 4.087
2806.663 4.227 4.157 4.487 4.437 4.357 4.547 5.037 5.117 5.107 5.547
2825.953 5.557 5.777 6.147 6.237 6.777 7.297 7.527 7.987 8.277 8.757
2845.242 9.477 10.087 10.867 11.867 12.997 14.117 15.627 17.717 20.317 22.837
2864.532 25.177 27.667 30.447 33.947 37.237 40.507 43.827 46.397 48.167 48.897
2883.822 49.147 48.677 47.337 45.697 44.087 42.347 40.407 38.897 37.607 36.227
2903.112 35.227 34.547 34.087 33.977 33.807 33.447 32.937 32.727 32.877 32.437
2922.401 32.187 32.637 33.357 34.357 35.777 38.537 41.847 45.427 49.627 53.627
2941.691 57.177 59.347 59.797 59.497 57.617 54.187 50.667 47.227 44.917 43.707
2960.981 42.657 42.797 43.767 44.857 46.297 48.137 51.227 55.757 60.957 66.937
2980.271 74.007 81.877 89.697 96.547 102.857 108.237 112.737 114.947 113.407 108.647
2999.561 100.427 89.397 76.147 62.787 51.697 42.517 35.287 29.957 26.187 23.297
3018.850 20.677 18.467 16.877 15.587 14.397 13.527 12.407 11.727 11.257 10.207
3038.140 9.437 9.107 8.227 7.557 7.187 6.857 6.827 6.867 6.837 6.817
3057.430 6.657 6.157 5.977 5.657 5.187 5.107 5.037 4.987 4.657 4.157
3076.720 3.977 3.717 3.867 3.947 3.597 3.247 2.977 3.187 3.277 3.007
3096.009 2.957 3.147 3.377 3.357 3.437 2.957 2.327 2.457 2.707 2.477
3115.299 2.687 2.867 2.507 2.387 2.487 2.857 3.177 3.057 2.737 2.827
3134.589 3.037 3.027 3.017 2.637 1.997 2.187 2.697 2.677 2.477 2.567
3153.879 2.467 2.577 2.787 2.467 2.257 2.367 2.367 2.167 2.177 2.357
3173.169 1.987 1.997 2.297 2.207 2.017 1.817 1.987 2.247 2.177 2.447
3192.458 2.627 2.247 2.117 2.547 2.777 2.317 2.107 2.147 2.027 2.187
3211.748 2.137 1.787 1.877 1.5746 1.145 1.5826 2.077 1.877 1.4463 1.3085
3231.038 1.5411 1.4997 1.4331 1.4239 1.3623 1.1311 0.7592 0.72657 0.7496 0.73183
3250.328 1.0184 1.237 0.8184 0.8274 1.2596 0.9678 0.640889 0.8777 0.902 1.2443
3269.617 1.2443 0.8868 1.0758 1.1803 1.2052 1.3418 0.9123 0.5915 1.043 1.2589
3288.907 0.884 0.486 0.8543 1.1785 0.9138 0.6292 0.5447 0.46 0.70179 0.6033
3308.197 0.6173 0.9737 1.0676 1.1359 1.1283 1.2814 1.1745 0.9761 0.8233 0.8888
3327.487 1.1396 0.7885 0.9161 1.3679 0.8791 1.1159 1.3995 0.7278 0.508 0.72181
3346.777 1.1252 1.2385 0.993 0.9143 0.8362 0.9938 1.5219 1.857 1.6083 1.4401
3366.066 1.223 1.0632 1.0876 1.2232 1.4914 1.6277 1.667 1.3675 1.2166 1.2328
3385.356 1.2698 1.139 1.0441 0.9463 0.66516 0.9153 1.3677 1.1593 1.2842 1.747
3404.646 1.5986 1.1583 1.4813 1.657 1.4019 1.4443 0.9688 0.9317 1.5035 1.3529
3423.936 0.9081 0.9361 1.057 1.2367 1.727 1.907 1.867 2.067 1.737 1.4369
3443.225 1.4379 1.3853 1.4639 1.877 2.237 2.317 2.167 2.517 2.817 2.807
3462.515 3.237 3.377 3.377 3.207 3.247 3.267 2.887 2.637 2.387 1.967
3481.805 1.6004 1.5654 1.534 1.3774 1.677 1.6036 1.5144 1.5629 1.3452 1.3889
3501.095 1.0728 1.0139 1.1657 0.9115 0.9525 0.9881 0.7401 0.7651 0.5382 0.541
3520.385 1.4712 1.3935 1.225 1.5094 0.581 0.157 0.70063 0.455 0.141 0.4
3539.674 0.5547 0.9232 1.0056 0.497 0.197 0.356 0.7426 0.6206 0.409 0.493
3558.964 0.408 0.7742 0.9767 1.2731 1.3647 0.7422 0.393 0.66122 1.0763 0.8356
3578.254 0.68578 0.70168 0.8728 0.449 0 0.62955 0.8834 0.517 0.378 0.36
3597.544 0.293 0.373 0.476 0.454 0.347 0.329 0.51 0.6224 0.8233 0.65854
3616.833 0.379 0.8579 1.1041 1.0483 1.0451 1.1356 0.8191 0.257 0.546 0.821
3636.123 1.0027 1.3139 0.71213 0.136 0.244 0.443 0.53 0.5402 0.473 0.281
3655.413 0.483 0.7547 0.6079 0.5793 0.5652 0.406 0.8288 0.9131 0.5534 0.5491
3674.703 0.425 0.299 0.246 0.62797 0.8274 0.531 0.9901 1.2076 0.9991 1.2618
3693.993 1.0802 0.8273 0.7679 0.498 0.47 0.5689 0.216 0.274 0.8804 1.2873
3713.282 1.2912 1.0289 0.49 0.355 0.8116 0.8411 0.485 0.65434 1.0927 0.65256
3732.572 0.414 0.099 0.301 0.9853 0.5839 0.636459 1.1437 1.0129 0.66945 0.639376
3751.862 1.0735 1.493 1.2315 0.65626 0.452 0.8802 1.1242 0.391 0.256 0.7626
3771.152 0.639401 0.5629 0.72978 1.1378 1.667 0.9275 0.035 0.431 0.5913 0.349
3790.441 0.7517 1.1048 0.9978 0.8225 0.8417 0.9416 0.8839 1.3086 1.3994 0.902
3809.731 0.5581 0.5588 1.1563 1.4521 0.7919 0.5606 0.71459 0.471 0.7957 1.0314
3829.021 0.8657 0.69836 0.456 0.5708 1.0339 1.0829 0.66328 0.68849 1.1111 1.5968
3848.311 1.12 0.8651 1.5071 1.5208 1.2487 1.136 0.67427 0.499 0.6248 1.0602
3867.601 1.5822 1.4384 1.1498 0.9547 1.0672 1.1554 1.0555 0.7539 1.19 1.697
3886.890 1.2944 1.4989 1.2766 0.7545 0.8993 0.9411 0.7875 0.474 0.637666 0.9977
3906.180 1.0094 0.6118 0.66787 0.8118 0.7658 0.8831 1.0397 1.1727 1.4439 1.847
3925.470 1.3876 0.9526 0.8448 0.65155 1.1717 1.5932 1.2285 0.8039 1.3724 2.157
3944.760 1.647 1.0456 0.9481 1.2134 1.3798 1.3157 1.4416 1.707 1.827 1.677
3964.049 1.5488 1.5682 1.1866 1.2557 1.3741 0.937 0.9553 0.7749 0.66891 1.1399
3983.339 1.4686 1.4128 1.1198 1.0212 1.2866 1.332 1.2504 1.3881 1.4958 1.2774
##END=
