##TITLE=N,N-Bis(2-diethylaminoethyl)aniline
##JCAMP-DX=4.24
##DATA TYPE=INFRARED SPECTRUM
##ORIGIN=EPA-IR VAPOR PHASE LIBRARY
##OWNER=SRD/NIST
Collection (C) 2018 copyright by the U.S. Secretary of Commerce
on behalf of the United States of America. All rights reserved.
##CAS REGISTRY NO=5427-46-3
##MOLFORM=C 18 H 33 N 3
##$NIST SOURCE=MSDC-IR
##STATE=gas
##XUNITS=1/CM
##YUNITS=ABSORBANCE
##XFACTOR=1.
##YFACTOR=0.001
##DELTAX=1.92898
##FIRSTX=549.8
##LASTX=4000.7
##FIRSTY=6.49
##MAXX=4000.7
##MINX=549.759
##MAXY=0.26024
##MINY=0.0001888
##NPOINTS=1790
##XYDATA=(X++(Y..Y))
549.759 6.49 6.26 6.47 6.43 6.27 6.2 6.03 5.9 6.02 6.5
569.049 6.69 6.66 6.37 6.09 6.15 6.16 6.07 5.69 5.56 5.53
588.339 5.11 4.84 4.55 4.19 4.07 3.93 3.64 3.37 3.08 2.95
607.628 2.88 2.67 2.58 2.47 2.42 2.29 2.27 2.43 2.26 2.01
626.918 1.94 1.95 1.87 1.91 1.96 1.97 1.93 1.8 1.97 2.03
646.208 2.1 2.41 2.74 3.12 3.33 3.46 3.68 4.21 4.68 5.38
665.498 6.29 6.89 7.51 8.31 9.29 10.38 11.91 14.1 16.9 20.85
684.787 25.97 31.54 36.5 39.7 40.48 38.68 34.99 30.58 26.42 22.88
704.077 19.46 16.7 14.69 13.03 12.04 11.56 11.48 11.66 12.06 12.85
723.367 14.07 15.49 17.32 19.66 22.48 26.06 30.65 36.65 43.96 51.71
742.657 58.84 63.3 63.55 59.78 52.77 44.5 36.88 30.41 25.5 22.15
761.947 19.59 17.76 16.67 15.75 14.84 14.06 13.62 13.25 13.08 13.05
781.236 12.85 12.87 13.01 13.1 12.88 12.75 12.85 12.84 13.01 13.16
800.526 13.08 13.06 13.04 12.9 12.31 11.62 11.23 10.52 9.67 9.04
819.816 8.47 7.62 6.92 6.54 6.08 5.79 5.59 5.28 5.14 5.09
839.106 5 5.09 5.12 5.04 5.27 5.56 5.83 6.02 6.29 6.79
858.395 7.33 7.72 7.96 8.11 8.07 8.06 8.01 7.92 7.79 7.59
877.685 7.42 7.32 7.18 7.09 7.08 6.94 6.9 7.14 7.25 7.23
896.975 7.51 7.79 7.91 8.18 8.23 8.25 8.32 8.11 8.07 8.05
916.265 7.89 7.78 7.6 7.6 7.54 7.5 7.66 7.75 7.75 7.78
935.555 7.74 7.92 8.3 8.56 8.69 9.11 9.63 10.01 10.65 11.31
954.844 11.99 12.75 13.66 14.55 15.56 16.53 17.22 17.89 18.58 19.22
974.134 19.73 20.43 21.3 22.29 23.6 25.56 28.19 31.44 35 37.86
993.424 39.08 38.6 36.59 33.2 29.7 26.86 24.79 23.73 23.36 23.29
1012.714 23.24 23.44 24.05 24.86 26.23 27.85 30 32.93 35.77 38.57
1032.003 41.33 43.1 43.47 43.21 42.74 42.34 42.53 43.26 44.2 46.01
1051.293 48.39 51.52 55.23 59.45 64.39 68.79 72.63 75.58 77.45 78.13
1070.583 77.45 75.93 74.37 72.98 71.38 69.29 67.55 65.87 63.39 60.56
1089.873 57.67 54.89 52 49.66 47.86 46.32 44.96 43.53 42.15 41.84
1109.163 41.71 41.52 41.5 41.28 41.83 42.06 41.93 42.25 42.45 42.64
1128.452 42.61 42.28 42.33 43.16 44.19 44.78 45.73 47.22 48.79 49.79
1147.742 50.56 51.45 52.43 53.34 54.32 55.72 56.87 58.1 60.15 62.93
1167.032 66.52 70.68 74.85 78.88 81.83 83.09 82.56 80.48 78.16 75.55
1186.322 72.93 71.45 71.34 72.14 73.85 76.96 80.56 83.24 84.98 84.9
1205.611 82.07 77.47 71.6 64.59 58.37 53.7 49.82 46.43 44.15 43.13
1224.901 42.63 43.07 43.72 44.25 44.77 45.07 44.91 43.89 42.74 41.5
1244.191 39.9 38.63 38.05 37.56 37.03 36.71 36.72 36.49 36.26 36.2
1263.481 36.13 36.4 36.98 37.8 38.8 40.07 41.46 42.97 44.46 45.89
1282.771 47.44 49.13 50.62 52.08 53.42 54.33 54.9 55.02 54.82 54.23
1302.060 53.34 52.31 51.17 50.1 49.14 48.31 47.55 47.02 46.68 46.51
1321.350 46.79 47.29 48.08 49.36 51.05 53.3 56.01 59.29 63.17 67.24
1340.640 71.29 75 78.11 80.46 82.06 83.11 83.79 84.2 84.35 84.35
1359.930 84.39 84.71 85.42 86.77 88.93 91.67 94.49 96.84 98.23 98.41
1379.219 97.57 95.97 93.7 90.51 85.98 80.09 73.16 65.67 58.16 51.13
1398.509 44.95 39.56 34.97 31.16 27.99 25.37 23.23 21.46 20.05 18.97
1417.799 18.17 17.57 17.23 17.1 17.13 17.37 17.89 18.65 19.63 20.86
1437.089 22.4 24.19 26.19 28.24 30.24 32.22 34.09 35.9 37.68 39.39
1456.378 41.12 42.85 44.35 45.62 46.7 47.48 47.98 48.16 47.97 47.45
1475.668 46.71 45.96 45.63 46.25 48.34 52.47 59.12 68.84 82.07 98.61
1494.958 117.88 138.09 155.24 164.95 163.87 151.7 130.56 105.65 81.99 62.47
1514.248 48.41 38.78 32.08 27.44 24.14 21.61 19.67 18.24 17.15 16.28
1533.538 15.69 15.25 14.9 14.64 14.47 14.33 14.36 14.46 14.51 14.63
1552.827 14.84 15.2 15.71 16.42 17.34 18.49 19.98 21.81 24.11 26.79
1572.117 29.56 32.37 35.23 38.25 41.89 46.75 53.16 61.38 71.36 82.58
1591.407 94.15 104.74 112.7 116.69 115.89 110.4 100.93 89.19 76.96 65.33
1610.697 55.02 46.23 38.87 32.73 27.78 23.8 20.58 17.99 15.86 14.19
1629.986 12.9 11.83 10.97 10.29 9.64 8.98 8.46 8.09 7.64 7.24
1649.276 6.96 6.62 6.34 6.17 5.95 5.75 5.58 5.34 5.2 5.05
1668.566 4.85 4.78 4.71 4.56 4.4 4.31 4.21 4.11 4.05 4.02
1687.856 4.01 4.01 4 3.94 3.88 3.87 3.83 3.77 3.74 3.71
1707.146 3.74 3.76 3.75 3.73 3.72 3.7 3.71 3.8 3.84 3.79
1726.435 3.75 3.69 3.66 3.71 3.74 3.69 3.62 3.65 3.73 3.81
1745.725 3.84 3.86 3.86 3.84 3.79 3.71 3.67 3.63 3.54 3.46
1765.015 3.41 3.34 3.25 3.16 3.13 3.08 3.1 3.17 3.15 3.11
1784.305 3.08 3.05 3.02 3.1 3.2 3.26 3.27 3.32 3.45 3.5
1803.594 3.53 3.57 3.64 3.67 3.72 3.71 3.65 3.63 3.61 3.61
1822.884 3.56 3.51 3.48 3.35 3.22 3.17 3.11 3.04 2.97 2.87
1842.174 2.83 2.8 2.74 2.69 2.63 2.62 2.63 2.57 2.53 2.57
1861.464 2.55 2.54 2.58 2.52 2.47 2.56 2.6 2.61 2.66 2.69
1880.754 2.74 2.84 2.88 2.98 3.11 3.22 3.37 3.52 3.69 3.89
1900.043 4.14 4.39 4.63 4.89 5.04 5.09 5.06 4.89 4.71 4.62
1919.333 4.57 4.55 4.58 4.59 4.49 4.31 4.05 3.79 3.6 3.41
1938.623 3.19 2.98 2.86 2.89 2.82 2.72 2.73 2.64 2.57 2.56
1957.913 2.58 2.56 2.5 2.47 2.43 2.48 2.47 2.38 2.34 2.35
1977.202 2.28 2.19 2.11 2.11 2.13 2.05 1.97 1.89 1.86 1.88
1996.492 1.9 1.88 1.85 1.82 1.76 1.78 1.82 1.76 1.69 1.77
2015.782 1.86 1.81 1.73 1.73 1.78 1.75 1.72 1.71 1.7 1.69
2035.072 1.72 1.73 1.69 1.73 1.77 1.78 1.79 1.83 1.88 1.92
2054.362 1.92 1.91 1.93 1.99 2.05 2.1 2.07 2.06 2.1 2.08
2073.651 2.07 2.11 2.11 2.09 2.09 2.13 2.17 2.16 2.11 2.12
2092.941 2.15 2.16 2.17 2.15 2.14 2.14 2.1 2.14 2.14 2.07
2112.231 2.08 2.04 2 2.02 2.01 1.96 1.92 1.91 1.9 1.93
2131.521 1.9 1.85 1.83 1.85 1.77 1.69 1.75 1.76 1.72 1.75
2150.810 1.77 1.68 1.62 1.65 1.7 1.71 1.72 1.73 1.75 1.78
2170.100 1.7 1.68 1.79 1.89 1.86 1.89 1.97 1.94 1.91 1.97
2189.390 1.96 1.9 1.93 1.96 1.92 1.9 1.88 1.84 1.74 1.73
2208.680 1.77 1.81 1.81 1.79 1.81 1.84 1.87 1.9 1.89 1.84
2227.970 1.84 1.97 2.03 1.97 1.95 1.97 2.04 2.05 1.99 2
2247.259 2.01 1.94 1.91 1.99 1.93 1.88 1.92 1.91 1.92 1.98
2266.549 2.08 2.07 1.99 1.92 1.89 1.96 2.03 1.94 1.89 1.9
2285.839 1.92 1.94 1.9 1.87 1.92 1.94 1.9 1.93 1.93 1.94
2305.129 2.02 1.98 1.99 2.09 2.12 2.23 2.26 2.24 2.24 2.18
2324.418 2.18 2.18 2.17 2.2 2.22 2.24 2.23 2.24 2.22 2.23
2343.708 2.29 2.35 2.37 2.39 2.43 2.34 2.31 2.39 2.37 2.35
2362.998 2.36 2.38 2.35 2.37 2.45 2.46 2.5 2.48 2.47 2.48
2382.288 2.45 2.46 2.49 2.53 2.52 2.52 2.51 2.54 2.57 2.54
2401.578 2.57 2.59 2.61 2.65 2.65 2.68 2.7 2.77 2.72 2.69
2420.867 2.79 2.71 2.63 2.69 2.75 2.75 2.72 2.71 2.71 2.67
2440.157 2.61 2.68 2.69 2.66 2.69 2.63 2.63 2.64 2.6 2.62
2459.447 2.62 2.6 2.63 2.57 2.52 2.52 2.54 2.61 2.56 2.52
2478.737 2.56 2.55 2.54 2.61 2.61 2.58 2.61 2.63 2.67 2.67
2498.026 2.65 2.74 2.82 2.8 2.86 2.93 3.05 3.19 3.21 3.28
2517.316 3.38 3.47 3.51 3.54 3.56 3.61 3.68 3.79 3.92 4.05
2536.606 4.12 4.11 4.2 4.34 4.45 4.48 4.54 4.72 4.87 5
2555.896 5.15 5.16 5.3 5.53 5.58 5.64 5.73 5.81 5.97 6.06
2575.186 6.13 6.19 6.21 6.31 6.32 6.28 6.37 6.42 6.47 6.56
2594.475 6.55 6.5 6.56 6.58 6.65 6.7 6.71 6.85 6.93 6.94
2613.765 7.02 7.11 7.25 7.34 7.43 7.58 7.74 7.9 8.04 8.22
2633.055 8.41 8.68 8.84 8.93 9.18 9.43 9.72 9.98 10.21 10.44
2652.345 10.63 10.85 11.07 11.3 11.56 11.73 11.94 12.24 12.54 12.76
2671.634 12.95 13.24 13.63 14.01 14.2 14.51 14.97 15.32 15.57 15.9
2690.924 16.29 16.61 17.01 17.46 17.93 18.37 18.85 19.44 19.98 20.46
2710.214 20.95 21.49 21.99 22.36 22.71 23.12 23.55 24.05 24.49 24.83
2729.504 25.19 25.51 25.78 26.1 26.46 26.91 27.39 27.91 28.63 29.5
2748.794 30.53 31.61 32.77 33.98 35.22 36.49 37.81 39.24 40.65 42.15
2768.083 43.67 45.3 47.29 49.43 51.85 54.61 57.72 61.48 65.63 70.22
2787.373 75.45 81.28 87.67 94.65 102.09 109.51 116.54 122.91 128.27 132.23
2806.663 134.71 135.92 135.95 135.19 133.77 131.76 129.18 126.1 122.54 118.72
2825.953 114.77 110.47 106.28 102.29 98.28 94.49 91.11 87.88 84.7 81.69
2845.242 78.93 76.51 74.51 72.93 71.59 70.56 69.87 69.46 69.6 70.17
2864.532 71.22 72.83 74.93 77.68 80.93 84.71 88.87 92.42 94.98 96.4
2883.822 96.45 95.22 93.19 91.05 89.3 88.33 87.81 87.55 87.88 88.69
2903.112 89.6 90.71 92.03 93.46 95.13 97.15 99.53 102.08 105.1 108.83
2922.401 113.29 118.54 124.51 131.21 138.51 146.3 154.22 161.27 166.06 167.78
2941.691 166.18 161.87 155.98 149.72 144.58 141.26 140.03 141.11 144.58 150.64
2960.981 159.46 171.57 187.11 205.67 225.3 242.8 255.38 260.24 256.29 243.98
2980.271 225.05 201.89 176.64 151.75 128.99 109.29 93.13 80.05 69.58 61.32
2999.561 54.49 49.04 44.6 40.73 37.69 35.41 33.74 32.61 31.82 31.5
3018.850 31.72 32.18 32.88 33.89 34.8 35.42 35.63 35.68 35.81 35.81
3038.140 35.52 35.05 34.42 33.32 32.04 30.61 29.16 28.2 27.85 28.19
3057.430 29.14 30.83 33.27 36.23 39.4 42.03 43.35 42.63 39.91 35.74
3076.720 31.14 27.27 24.7 23.46 23.19 23.55 24.17 24.7 24.82 24.61
3096.009 23.89 22.6 21.01 19.29 17.57 15.86 14.48 13.51 12.61 11.62
3115.299 10.71 9.95 9.28 8.67 8.08 7.58 7.04 6.52 6.21 6.05
3134.589 5.82 5.58 5.38 5.19 4.98 4.86 4.81 4.66 4.47 4.29
3153.879 4.12 4 3.84 3.7 3.75 3.7 3.54 3.42 3.39 3.31
3173.169 3.25 3.22 3.1 2.96 2.93 3.03 2.92 2.8 2.75 2.65
3192.458 2.58 2.59 2.72 2.62 2.36 2.27 2.18 2.23 2.14 1.95
3211.748 1.86 1.81 1.93 1.82 1.66 1.68 1.69 1.71 1.68 1.56
3231.038 1.54 1.6 1.56 1.48 1.46 1.42 1.38 1.41 1.39 1.36
3250.328 1.4 1.29 1.21 1.27 1.19 1.16 1.25 1.23 1.14 1.06
3269.617 1.04 1.09 1.14 1.08 1.05 1.12 1.1 1.02 0.9489 0.934
3288.907 0.8449 0.8603 0.9292 0.9666 0.9284 0.8382 0.9659 0.9256 0.7991 0.8708
3308.197 0.9887 0.8918 0.7357 0.7781 0.7767 0.7709 0.8034 0.8099 0.7897 0.8503
3327.487 0.9073 0.7836 0.7121 0.7278 0.7546 0.7398 0.7734 0.8473 0.8565 0.8328
3346.777 0.8827 0.8327 0.7757 0.8034 0.6379 0.5217 0.6392 0.7616 0.7342 0.6751
3366.066 0.6786 0.7059 0.6833 0.725 0.8077 0.8131 0.7299 0.6641 0.7142 0.776
3385.356 0.6695 0.5445 0.644 0.6827 0.5741 0.5824 0.6107 0.5992 0.6662 0.6705
3404.646 0.6032 0.4878 0.4823 0.5639 0.5343 0.5284 0.6456 0.6228 0.4783 0.4653
3423.936 0.6397 0.6729 0.5986 0.6641 0.5738 0.5341 0.5976 0.6537 0.7221 0.756
3443.225 0.7006 0.6098 0.6417 0.6157 0.4413 0.4032 0.4796 0.5454 0.6583 0.6857
3462.515 0.7348 0.7411 0.5835 0.5917 0.7278 0.7408 0.6777 0.6117 0.6264 0.5698
3481.805 0.4235 0.3641 0.4247 0.5431 0.5814 0.566 0.4967 0.45 0.5272 0.5728
3501.095 0.4699 0.3563 0.4002 0.4606 0.5312 0.4726 0.359 0.3433 0.4762 0.5452
3520.385 0.3834 0.3893 0.3428 0.2851 0.4242 0.5269 0.512 0.5444 0.4618 0.3642
3539.674 0.4202 0.4364 0.4566 0.4011 0.2725 0.3116 0.2672 0.1888 0.4544 0.6095
3558.964 0.5828 0.4938 0.4766 0.4887 0.3491 0.4482 0.5307 0.4376 0.4884 0.5493
3578.254 0.5873 0.6342 0.6602 0.6673 0.6406 0.554 0.5097 0.6774 0.6934 0.609
3597.544 0.6276 0.6273 0.5897 0.5688 0.5362 0.5394 0.6401 0.6582 0.68 0.638
3616.833 0.5733 0.7217 0.8342 0.8089 0.6344 0.7163 0.7907 0.6964 0.5302 0.4533
3636.123 0.4903 0.4405 0.6501 0.8286 0.7543 0.6989 0.7643 0.7293 0.7104 0.7634
3655.413 0.8903 0.8667 0.7227 0.6726 0.5627 0.484 0.5488 0.6055 0.7257 0.7304
3674.703 0.6485 0.6934 0.6977 0.6644 0.5391 0.5224 0.6682 0.7042 0.6937 0.7381
3693.993 0.7516 0.7526 0.9246 0.8375 0.6393 0.8023 0.9148 0.8678 0.8093 0.8415
3713.282 0.8686 0.7294 0.8043 0.8727 0.8273 0.7944 0.7328 0.7637 0.8246 0.8855
3732.572 0.8416 0.8095 0.7982 0.8397 0.7954 0.7171 0.6657 0.7086 0.8887 0.9241
3751.862 0.8052 0.736 0.743 0.8152 0.9307 0.7941 0.7519 0.7998 0.7411 0.8425
3771.152 0.7914 0.8422 1.03 0.9309 0.8054 0.8876 0.9857 0.9409 0.8328 0.8391
3790.441 0.8951 0.8154 0.8863 0.99 0.9448 0.9012 0.8976 0.8132 0.7964 0.7931
3809.731 0.6019 0.5738 0.6804 0.7562 0.7366 0.7555 0.8218 0.9304 0.9872 0.8113
3829.021 0.698 0.7699 0.8552 0.7899 0.7397 0.7292 0.6693 0.6323 0.8304 1.03
3848.311 1.02 0.8979 0.6635 0.6658 0.8021 0.8453 0.9397 0.9269 0.9328 1.01
3867.601 0.9221 0.8814 0.9875 1.05 1.13 1.18 1.13 1.11 1.13 1.08
3886.890 1.11 1.16 1.09 1.04 1.14 1.26 1.15 1.12 1.08 1.01
3906.180 1.1 1.18 1.23 1.2 1.24 1.32 1.35 1.3 1.28 1.36
3925.470 1.42 1.34 1.25 1.14 1.14 1.26 1.23 1.28 1.3 1.34
3944.760 1.33 1.25 1.38 1.5 1.42 1.31 1.3 1.33 1.28 1.28
3964.049 1.44 1.48 1.51 1.54 1.49 1.33 1.38 1.53 1.48 1.5
3983.339 1.55 1.59 1.71 1.64 1.43 1.49 1.7 1.82 1.8 1.66
##END=
