##TITLE=2-Amino-5-chloropyridimidine
##JCAMP-DX=4.24
##DATA TYPE=INFRARED SPECTRUM
##ORIGIN=EPA-IR VAPOR PHASE LIBRARY
##OWNER=SRD/NIST
Collection (C) 2018 copyright by the U.S. Secretary of Commerce
on behalf of the United States of America. All rights reserved.
##CAS REGISTRY NO=5428-89-7
##MOLFORM=C 4 H 5 Cl N 3
##$NIST SOURCE=MSDC-IR
##STATE=gas
##XUNITS=1/CM
##YUNITS=ABSORBANCE
##XFACTOR=1.
##YFACTOR=0.001
##DELTAX=3.85796
##FIRSTX=551.7
##LASTX=4000.7
##FIRSTY=1.39
##MAXX=4000.7
##MINX=551.688
##MAXY=0.01332
##MINY=0.0005161
##NPOINTS=895
##XYDATA=(X++(Y..Y))
551.688 1.39 1.31 1.26 1.27 1.3 1.23 1.24 1.22 1.21 1.25
590.268 1.3 1.29 1.23 1.29 1.38 1.37 1.37 1.36 1.35 1.41
628.847 1.41 1.4 1.43 1.43 1.45 1.58 1.73 1.78 1.87 2.05
667.427 2.27 2.41 2.41 2.35 2.2 1.92 1.67 1.49 1.4 1.36
706.006 1.28 1.27 1.37 1.38 1.37 1.49 1.63 1.71 1.72 1.74
744.586 1.77 1.79 1.76 1.69 1.66 1.63 1.6 1.61 1.7 1.76
783.165 1.74 1.77 1.87 1.87 1.83 1.87 1.83 1.8 1.72 1.64
821.745 1.61 1.53 1.48 1.44 1.43 1.4 1.36 1.39 1.38 1.35
860.324 1.38 1.37 1.31 1.27 1.33 1.32 1.22 1.24 1.27 1.24
898.904 1.21 1.25 1.31 1.33 1.36 1.39 1.38 1.47 1.51 1.54
937.484 1.51 1.41 1.42 1.42 1.42 1.39 1.29 1.22 1.16 1.15
976.063 1.15 1.14 1.14 1.13 1.15 1.16 1.2 1.24 1.31 1.33
1014.643 1.36 1.43 1.45 1.5 1.44 1.31 1.29 1.28 1.16 1.1
1053.222 1.06 0.992 1.07 1.07 0.9251 0.8995 0.9349 0.9289 0.9735 1
1091.802 0.9487 0.8265 0.7793 0.8558 0.9086 0.8956 0.9521 1.04 1.13 1.39
1130.381 1.69 1.86 1.89 1.87 1.71 1.42 1.19 1.11 1.14 1.15
1168.961 1.19 1.29 1.3 1.24 1.25 1.27 1.26 1.2 1.08 0.9603
1207.540 0.8961 0.8932 0.9467 0.9162 0.8341 0.8614 0.8992 0.9881 1.01 0.9675
1246.120 0.9748 0.9728 0.9755 0.9164 0.8721 0.871 0.9031 0.9437 0.9432 0.9816
1284.699 1.05 1.05 1.01 1.01 1.03 1.06 1.07 1.06 1.05 1.05
1323.279 1.05 1.05 1.06 1.07 1.08 1.08 1.1 1.11 1.12 1.13
1361.859 1.12 1.13 1.16 1.19 1.22 1.22 1.23 1.25 1.28 1.29
1400.438 1.29 1.32 1.39 1.49 1.64 1.86 2.18 2.79 3.83 5.51
1439.018 7.89 10.5 12.59 13.32 12.75 11.19 8.7 5.63 3.31 2.19
1477.597 1.73 1.55 1.46 1.4 1.37 1.38 1.38 1.42 1.46 1.48
1516.177 1.54 1.68 1.84 2.02 2.21 2.41 2.54 2.59 2.64 2.72
1554.756 2.76 2.68 2.58 2.57 2.59 2.63 2.73 2.96 3.43 4.28
1593.336 5.73 7.71 9.58 10.59 10.66 10.09 8.68 6.5 4.53 3.29
1631.915 2.63 2.2 1.91 1.7 1.55 1.41 1.29 1.24 1.21 1.2
1670.495 1.2 1.17 1.13 1.12 1.16 1.14 1.12 1.14 1.13 1.11
1709.075 1.1 1.1 1.12 1.12 1.1 1.07 1.08 1.12 1.11 1.08
1747.654 1.05 1.04 1.05 1.07 1.06 1.05 1.05 1.06 1.06 1.07
1786.234 1.08 1.06 1.05 1.05 1.04 1.03 1.03 1.03 1.02 1.01
1824.813 1.01 1 1.02 1.01 1.01 1.02 1.03 1.04 1.03 1.02
1863.393 1.02 1.03 1.05 1.05 1.04 1.03 1.03 1.04 1.03 1.03
1901.972 1.02 1 0.9924 0.9963 0.9787 0.9577 0.9382 0.9177 0.9025 0.8991
1940.552 0.9105 0.9169 0.9007 0.8952 0.8978 0.9027 0.9041 0.8842 0.8841 0.8863
1979.131 0.8819 0.8757 0.8703 0.8782 0.874 0.8646 0.8533 0.8678 0.8839 0.8656
2017.711 0.8716 0.8753 0.8507 0.8256 0.8049 0.7915 0.7725 0.7622 0.7612 0.7408
2056.291 0.7251 0.7298 0.7267 0.7219 0.7054 0.6929 0.6942 0.6907 0.6886 0.6708
2094.870 0.66 0.6543 0.6462 0.6622 0.6576 0.6234 0.6319 0.6352 0.6191 0.6146
2133.450 0.5977 0.5734 0.5825 0.6044 0.5724 0.5696 0.6027 0.598 0.5864 0.5675
2172.029 0.5695 0.5963 0.6053 0.6124 0.5898 0.5773 0.5961 0.6096 0.6225 0.6346
2210.609 0.627 0.6168 0.6138 0.6165 0.6071 0.6076 0.6251 0.6386 0.6273 0.6083
2249.188 0.6326 0.6218 0.619 0.6278 0.617 0.6235 0.6227 0.6162 0.6216 0.6255
2287.768 0.6265 0.6336 0.6627 0.6749 0.6322 0.6182 0.628 0.6443 0.6447 0.6261
2326.347 0.6241 0.6138 0.61 0.6154 0.6208 0.6407 0.6343 0.6008 0.5922 0.5862
2364.927 0.6194 0.6426 0.6227 0.6237 0.6382 0.6242 0.6076 0.6152 0.6047 0.6051
2403.507 0.6306 0.6423 0.6636 0.6593 0.6299 0.6166 0.6206 0.6381 0.6553 0.6459
2442.086 0.6303 0.6568 0.6552 0.6449 0.6547 0.6688 0.7028 0.7116 0.7075 0.7025
2480.666 0.6712 0.668 0.6573 0.6159 0.6025 0.6106 0.6223 0.6283 0.6204 0.5844
2519.245 0.5698 0.6047 0.6235 0.6168 0.6016 0.5959 0.6135 0.6173 0.6064 0.591
2557.825 0.5872 0.6055 0.6187 0.6391 0.6208 0.6124 0.6336 0.6315 0.6507 0.646
2596.404 0.6454 0.6458 0.6437 0.6421 0.6178 0.6256 0.5973 0.5957 0.6246 0.6317
2634.984 0.6383 0.6278 0.632 0.6204 0.6207 0.6338 0.6278 0.6135 0.6016 0.6174
2673.563 0.6357 0.66 0.6646 0.6372 0.6336 0.6234 0.6192 0.6277 0.6506 0.688
2712.143 0.6758 0.6692 0.6533 0.6272 0.6454 0.6601 0.6538 0.6424 0.6449 0.6531
2750.722 0.635 0.6102 0.6261 0.6278 0.6025 0.5927 0.6357 0.6689 0.6658 0.6773
2789.302 0.6726 0.6594 0.6689 0.6566 0.6139 0.6352 0.6389 0.6282 0.6579 0.6523
2827.882 0.6589 0.6964 0.7048 0.7144 0.7317 0.6935 0.6387 0.6623 0.6886 0.6639
2866.461 0.6792 0.6909 0.6821 0.6973 0.6912 0.6731 0.688 0.7345 0.7725 0.792
2905.041 0.7693 0.7526 0.7543 0.7744 0.7966 0.7552 0.7199 0.6988 0.717 0.746
2943.620 0.7315 0.7204 0.6967 0.6636 0.6729 0.6886 0.6905 0.6929 0.6624 0.6755
2982.200 0.7107 0.7258 0.7303 0.7168 0.7066 0.7215 0.7858 0.8462 0.843 0.8208
3020.779 0.8357 0.8686 0.9514 1.03 1.08 1.18 1.23 1.21 1.17 1.13
3059.359 1.09 1.02 0.9522 0.911 0.8913 0.8556 0.8505 0.8623 0.8401 0.8034
3097.938 0.8081 0.7981 0.8168 0.8028 0.7412 0.728 0.7267 0.739 0.7532 0.7217
3136.518 0.71 0.7141 0.6965 0.6622 0.6616 0.7164 0.7022 0.6771 0.7108 0.716
3175.098 0.7096 0.7037 0.6616 0.681 0.7246 0.6758 0.6285 0.6254 0.6185 0.6377
3213.677 0.6207 0.6223 0.6325 0.6012 0.6171 0.6315 0.6174 0.5847 0.571 0.5576
3252.257 0.5736 0.6093 0.6313 0.6167 0.5689 0.5675 0.5894 0.5965 0.584 0.5842
3290.836 0.5939 0.6275 0.6443 0.6532 0.6445 0.5986 0.6113 0.6032 0.5787 0.6465
3329.416 0.6527 0.6603 0.7197 0.6528 0.5951 0.5954 0.596 0.6334 0.6686 0.7028
3367.995 0.6857 0.6301 0.6484 0.6729 0.7008 0.7076 0.7082 0.7485 0.7048 0.6389
3406.575 0.6972 0.852 0.9431 1.05 1.23 1.3 1.4 1.57 1.61 1.59
3445.154 1.6 1.65 1.75 1.82 1.79 1.66 1.53 1.32 1.02 0.8668
3483.734 0.8499 0.8138 0.7828 0.7872 0.7515 0.7609 0.7766 0.7419 0.8152 0.8986
3522.314 0.8768 0.9196 1.03 1.08 1.12 1.12 1.08 1.08 1.06 1.02
3560.893 1.06 1.13 1.17 1.16 1.12 1.05 1.02 0.938 0.8356 0.796
3599.473 0.726 0.6444 0.5897 0.5498 0.5731 0.5887 0.5376 0.5706 0.6268 0.566
3638.052 0.558 0.6046 0.6306 0.6207 0.574 0.5895 0.6545 0.6552 0.6458 0.6525
3676.632 0.6459 0.6681 0.6524 0.6024 0.5714 0.6152 0.6255 0.605 0.613 0.6098
3715.211 0.5807 0.6046 0.675 0.6324 0.5786 0.5854 0.6368 0.599 0.5285 0.6242
3753.791 0.6358 0.6251 0.6658 0.6315 0.5618 0.5591 0.5903 0.5571 0.551 0.5857
3792.370 0.6066 0.6001 0.5408 0.522 0.5282 0.5331 0.6209 0.6789 0.6065 0.5514
3830.950 0.532 0.5161 0.5855 0.6514 0.6522 0.6293 0.6 0.6002 0.517 0.5186
3869.530 0.5953 0.6083 0.5942 0.5503 0.5573 0.5829 0.6207 0.6055 0.6024 0.6101
3908.109 0.6406 0.6643 0.6555 0.6292 0.6391 0.6575 0.6739 0.6393 0.5781 0.582
3946.689 0.5747 0.6635 0.6828 0.5727 0.5196 0.5895 0.6733 0.6257 0.5644 0.6055
3985.268 0.5998 0.5603 0.604 0.6503 0.664
##END=
