##TITLE=4-Diethylaminobenzoic acid
##JCAMP-DX=4.24
##DATA TYPE=INFRARED SPECTRUM
##ORIGIN=EPA-IR VAPOR PHASE LIBRARY
##OWNER=SRD/NIST
Collection (C) 2018 copyright by the U.S. Secretary of Commerce
on behalf of the United States of America. All rights reserved.
##CAS REGISTRY NO=5429-28-7
##MOLFORM=C 11 H 15 N O 2
##$NIST SOURCE=MSDC-IR
##STATE=gas
##XUNITS=1/CM
##YUNITS=ABSORBANCE
##XFACTOR=1.
##YFACTOR=0.001
##DELTAX=1.92898
##FIRSTX=549.8
##LASTX=4000.7
##FIRSTY=2.479
##MAXX=4000.7
##MINX=549.759
##MAXY=0.044399
##MINY=0
##NPOINTS=1790
##XYDATA=(X++(Y..Y))
549.759 2.479 2.669 2.679 3.029 2.929 2.659 3.089 3.419 3.479 3.729
569.049 3.899 4.059 4.249 4.519 4.869 5.149 5.059 4.439 4.119 3.979
588.339 3.389 2.849 2.449 2.249 1.949 1.719 1.779 1.689 1.4073 1.1551
607.628 1.1491 1.0585 0.8427 0.705 0.7456 0.7871 0.6175 0.44854 0.6779 0.8199
626.918 1.0034 1.1164 0.9631 1.0724 0.9797 0.7161 0.6981 0.8213 0.8732 0.7918
646.208 0.7259 0.6965 0.6968 0.49422 0.45876 0.6412 0.6719 0.9242 1.0368 0.8912
665.498 0.8322 1.0451 1.1796 1.3387 1.699 2.279 3.189 3.739 3.859 4.019
684.787 4.149 4.039 3.689 3.369 3.099 2.859 2.799 2.909 3.019 3.039
704.077 2.969 2.749 2.469 2.249 1.979 1.829 1.739 1.4253 1.1897 1.1783
723.367 1.2136 1.0967 0.8341 0.8326 1.0031 0.9643 0.98 1.0516 0.9304 0.8189
742.657 0.9792 0.8943 0.9373 1.164 1.2441 1.3568 1.659 2.399 2.839 2.999
761.947 3.679 4.299 4.599 5.229 5.429 5.019 4.649 4.269 3.879 3.549
781.236 3.109 2.669 2.479 2.179 1.999 2.309 2.519 2.709 2.989 2.799
800.526 2.529 2.429 2.189 1.979 1.809 1.729 1.589 1.479 1.439 1.3279
819.816 1.439 1.769 1.999 2.249 2.469 2.419 2.489 2.619 2.439 2.049
839.106 1.789 1.619 1.529 1.449 1.1595 0.8872 0.8844 1.0012 0.873 0.763
858.395 0.8352 0.9275 0.9368 0.7542 0.6557 0.59 0.5588 0.5668 0.6709 0.851
877.685 0.9018 0.9886 0.9585 0.9085 1.0168 1.0504 1.0962 1.071 1.0767 1.1731
896.975 1.1044 1.0908 0.9527 0.8976 0.9724 0.7969 0.8107 0.8379 0.7893 0.7971
916.265 0.8136 0.8162 0.8465 0.8612 0.7883 0.8703 0.9765 0.9215 0.7897 0.8364
935.555 0.8521 0.737 0.7417 0.8473 0.9487 0.9055 0.7869 0.7146 0.8694 0.8299
954.844 0.7163 0.7006 0.7476 0.8786 0.9268 1.0519 1.0117 0.9432 1.0846 1.0876
974.134 0.9144 0.9136 0.885 0.889 0.9449 1.0508 1.1949 1.2592 1.4264 1.539
993.424 1.4031 1.519 2.049 2.379 2.489 2.739 2.769 2.799 2.989 2.929
1012.714 2.989 3.139 3.079 3.239 2.979 2.699 2.869 2.539 2.369 2.359
1032.003 2.179 2.209 2.299 2.269 2.359 2.549 2.569 2.589 2.769 2.879
1051.293 3.249 3.719 3.919 4.289 5.099 6.309 7.639 9.079 11.009 13.329
1070.583 15.959 18.479 20.569 22.099 22.569 21.839 20.099 17.889 15.009 12.149
1089.873 9.889 7.959 6.829 5.959 5.199 4.619 4.219 4.019 3.729 3.649
1109.163 4.259 4.439 4.239 3.939 3.569 3.949 4.299 4.349 4.419 4.699
1128.452 5.009 5.489 6.259 7.249 8.389 9.669 11.589 13.619 14.899 16.219
1147.742 17.269 17.409 17.259 16.729 15.919 15.469 15.249 15.739 18.059 21.349
1167.032 24.159 26.189 27.209 27.219 25.639 22.539 18.949 15.369 12.469 10.509
1186.322 9.629 9.219 8.549 7.719 7.529 7.569 7.019 6.579 6.589 6.549
1205.611 5.709 4.989 4.749 4.489 4.299 4.249 4.089 3.509 3.299 3.489
1224.901 3.659 3.789 4.009 4.159 4.359 4.559 4.609 5.109 5.639 6.059
1244.191 6.489 7.089 8.009 8.639 9.349 10.299 11.129 11.859 12.459 12.979
1263.481 13.329 13.269 12.879 12.379 11.519 10.289 9.049 7.959 7.069 6.329
1282.771 5.699 5.219 4.869 4.679 4.599 4.579 4.519 4.519 4.619 4.639
1302.060 4.749 5.009 5.249 5.469 5.699 5.969 6.379 6.859 7.339 7.869
1321.350 8.459 8.989 9.399 9.579 9.629 9.619 9.499 9.419 9.329 9.369
1340.640 9.659 10.109 10.669 11.429 12.369 13.349 14.369 15.369 16.199 16.539
1359.930 16.369 15.789 14.749 13.439 11.899 10.459 9.499 8.949 8.699 8.709
1379.219 8.769 8.739 8.679 8.509 8.129 7.689 7.349 7.009 6.659 6.389
1398.509 6.129 5.869 5.509 5.019 4.619 4.279 3.899 3.629 3.419 3.179
1417.799 3.059 3.079 3.099 2.989 2.879 2.849 2.759 2.639 2.539 2.399
1437.089 2.329 2.269 2.229 2.199 2.149 2.189 2.219 2.259 2.329 2.389
1456.378 2.449 2.489 2.549 2.539 2.539 2.609 2.609 2.619 2.699 2.679
1475.668 2.599 2.599 2.549 2.489 2.429 2.379 2.369 2.359 2.409 2.519
1494.958 2.619 2.829 3.199 3.609 4.189 5.049 6.079 7.259 8.639 10.109
1514.248 11.399 12.379 12.919 12.849 12.189 11.119 9.769 8.409 7.079 5.919
1533.538 5.039 4.419 3.949 3.519 3.279 3.169 3.019 2.909 2.869 2.829
1552.827 2.799 2.869 3.009 3.109 3.219 3.299 3.409 3.549 3.749 3.859
1572.117 3.989 4.209 4.459 4.809 5.289 5.929 6.589 7.439 8.379 9.409
1591.407 10.749 12.239 13.859 15.649 17.569 19.619 21.739 23.629 24.959 25.619
1610.697 25.249 23.819 21.629 18.739 15.499 12.419 9.809 7.709 6.109 4.999
1629.986 4.179 3.559 3.159 2.819 2.499 2.299 2.209 2.109 1.999 1.939
1649.276 1.799 1.699 1.679 1.619 1.619 1.669 1.629 1.539 1.469 1.489
1668.566 1.569 1.629 1.609 1.599 1.629 1.669 1.689 1.719 1.799 1.859
1687.856 1.899 1.869 1.889 1.929 1.929 2.029 2.079 2.129 2.279 2.479
1707.146 2.639 2.679 2.729 2.839 2.949 3.059 3.139 3.389 3.719 4.099
1726.435 4.629 5.339 6.399 7.759 9.639 12.269 15.879 20.669 26.469 32.749
1745.725 38.539 42.659 44.399 44.039 41.459 36.289 29.189 21.999 16.149 11.929
1765.015 8.969 6.979 5.659 4.679 3.969 3.549 3.269 3.069 2.869 2.699
1784.305 2.569 2.409 2.199 1.999 1.909 1.789 1.659 1.569 1.449 1.355
1803.594 1.3561 1.3722 1.3517 1.2887 1.261 1.2653 1.2292 1.1872 1.1486 1.0546
1822.884 0.9869 0.9867 0.9857 0.9818 0.9387 0.9073 0.8433 0.7758 0.8271 0.8475
1842.174 0.8305 0.7808 0.7052 0.7092 0.7153 0.7731 0.8112 0.7774 0.7762 0.7659
1861.464 0.7314 0.6994 0.7195 0.743 0.7087 0.7025 0.7497 0.7875 0.7811 0.8306
1880.754 0.8465 0.7791 0.7579 0.8001 0.8405 0.8453 0.9206 0.9608 0.958 0.9891
1900.043 1.0005 1.0004 0.9403 0.9256 0.985 1.0249 1.0246 0.9562 0.8719 0.8303
1919.333 0.8532 0.9015 0.8926 0.7937 0.766 0.807 0.823 0.8078 0.774 0.8141
1938.623 0.8857 0.8532 0.8005 0.8521 0.8888 0.8737 0.8215 0.751 0.7154 0.7136
1957.913 0.7265 0.7394 0.7383 0.7104 0.7093 0.7189 0.7598 0.7576 0.6871 0.6477
1977.202 0.6478 0.6594 0.655 0.5912 0.5497 0.5933 0.6493 0.6684 0.6311 0.598
1996.492 0.5654 0.591 0.5908 0.5956 0.6144 0.5959 0.5724 0.5774 0.6097 0.6163
2015.782 0.58 0.50374 0.51938 0.5607 0.5366 0.52085 0.546 0.5877 0.6134 0.6158
2035.072 0.58 0.53 0.5902 0.6243 0.6326 0.6603 0.6154 0.5694 0.52432 0.48784
2054.362 0.51959 0.5435 0.538 0.5652 0.5386 0.45049 0.4671 0.5819 0.614 0.5645
2073.651 0.5746 0.5878 0.6071 0.6157 0.575 0.5699 0.568 0.5606 0.5591 0.5964
2092.941 0.6293 0.6205 0.6275 0.632 0.6287 0.6311 0.6313 0.5904 0.5621 0.5524
2112.231 0.51041 0.5464 0.5443 0.50578 0.48468 0.45054 0.46166 0.45824 0.46669 0.49519
2131.521 0.5303 0.52006 0.4156 0.48496 0.5564 0.5446 0.5612 0.5345 0.5515 0.5883
2150.810 0.6416 0.6188 0.5693 0.5949 0.6114 0.5672 0.49216 0.49828 0.5377 0.49685
2170.100 0.47741 0.46092 0.46514 0.51512 0.5428 0.50751 0.50472 0.52439 0.5408 0.588
2189.390 0.6162 0.5828 0.5712 0.5465 0.49006 0.52676 0.50712 0.436747 0.46705 0.48751
2208.680 0.44753 0.49055 0.5667 0.537 0.42109 0.48512 0.5399 0.434497 0.4012 0.3966
2227.970 0.3768 0.3776 0.44089 0.4623 0.47799 0.50855 0.50826 0.51877 0.5174 0.5437
2247.259 0.5472 0.51926 0.49453 0.4783 0.47875 0.50013 0.47519 0.42449 0.428045 0.45036
2266.549 0.428691 0.45707 0.5291 0.51217 0.4426 0.41906 0.4243 0.3993 0.46414 0.5449
2285.839 0.49065 0.44072 0.3909 0.43937 0.52496 0.50411 0.50861 0.48718 0.48912 0.51328
2305.129 0.50783 0.45557 0.49894 0.5922 0.5437 0.51651 0.52495 0.52312 0.5379 0.5402
2324.418 0.5439 0.5707 0.5604 0.47736 0.45542 0.47998 0.5596 0.51839 0.47793 0.52236
2343.708 0.5351 0.6016 0.626 0.5926 0.5483 0.55 0.5456 0.5411 0.51703 0.4749
2362.998 0.51191 0.5428 0.49929 0.5631 0.6099 0.6269 0.6333 0.5557 0.5671 0.6156
2382.288 0.5843 0.6251 0.6843 0.6097 0.5629 0.5331 0.5545 0.535 0.51892 0.5743
2401.578 0.5943 0.5987 0.5485 0.51485 0.5371 0.5255 0.51845 0.6198 0.6078 0.574
2420.867 0.6049 0.5736 0.5352 0.5637 0.6403 0.6259 0.52534 0.47467 0.47239 0.50775
2440.157 0.52299 0.51231 0.52278 0.3919 0.3409 0.42692 0.45525 0.46416 0.50895 0.50884
2459.447 0.50989 0.51545 0.50148 0.47378 0.42245 0.52431 0.5921 0.51951 0.49048 0.5949
2478.737 0.6099 0.48669 0.5598 0.6049 0.5534 0.52421 0.5359 0.6186 0.593 0.5303
2498.026 0.51628 0.52772 0.51436 0.5328 0.5591 0.6183 0.6515 0.6374 0.5867 0.6018
2517.316 0.7231 0.6632 0.5382 0.5442 0.5582 0.49459 0.6137 0.704 0.6292 0.5947
2536.606 0.6138 0.6597 0.6224 0.5906 0.5905 0.6433 0.6503 0.52711 0.5408 0.6753
2555.896 0.6805 0.6564 0.666 0.6439 0.6187 0.5603 0.5589 0.6794 0.7031 0.7035
2575.186 0.7962 0.7787 0.6464 0.619 0.652 0.613 0.7077 0.8028 0.763 0.7912
2594.475 0.719 0.6982 0.7833 0.7426 0.7107 0.6257 0.5335 0.51498 0.48054 0.49496
2613.765 0.5671 0.6145 0.5984 0.6139 0.6564 0.5944 0.5405 0.5804 0.6262 0.6778
2633.055 0.7149 0.6705 0.6051 0.5607 0.6103 0.6245 0.6525 0.7756 0.6782 0.5626
2652.345 0.6281 0.6413 0.6094 0.6847 0.7327 0.6848 0.7079 0.655 0.47275 0.51964
2671.634 0.6691 0.6452 0.6424 0.6477 0.6681 0.6664 0.6692 0.7004 0.6289 0.5586
2690.924 0.5828 0.6252 0.588 0.6119 0.6126 0.5554 0.5912 0.578 0.51747 0.51312
2710.214 0.5567 0.6085 0.6692 0.6696 0.6509 0.5737 0.48929 0.45295 0.46343 0.6107
2729.504 0.7349 0.5987 0.4049 0.547 0.6609 0.6292 0.6366 0.6174 0.586 0.66
2748.794 0.7802 0.6995 0.6819 0.7332 0.6961 0.6985 0.6633 0.6552 0.7402 0.8263
2768.083 0.8275 0.7779 0.6845 0.6643 0.7523 0.8149 0.8887 0.9771 0.9462 0.8563
2787.373 0.8333 0.8819 0.8578 0.8295 0.8923 0.9107 0.9244 0.9453 0.9972 1.0776
2806.663 1.1132 1.1593 1.1037 1.0079 1.0658 1.1464 1.231 1.3435 1.4123 1.479
2825.953 1.539 1.549 1.609 1.669 1.729 1.789 1.769 1.769 1.869 1.909
2845.242 1.899 1.949 1.969 2.049 2.119 2.179 2.249 2.349 2.379 2.359
2864.532 2.419 2.479 2.589 2.669 2.829 3.079 3.229 3.469 3.639 3.639
2883.822 3.819 3.939 3.959 3.889 3.729 3.619 3.589 3.599 3.579 3.589
2903.112 3.499 3.429 3.389 3.279 3.239 3.309 3.399 3.399 3.449 3.559
2922.401 3.569 3.579 3.649 3.789 4.099 4.529 4.909 5.179 5.349 5.489
2941.691 5.659 5.659 5.579 5.419 5.179 4.859 4.569 4.429 4.299 4.259
2960.981 4.419 4.619 4.869 5.259 5.639 6.209 6.879 7.449 7.999 8.429
2980.271 8.669 8.809 8.819 8.389 7.709 6.879 5.999 5.289 4.519 3.839
2999.561 3.349 2.889 2.519 2.179 2.059 2.029 1.769 1.629 1.619 1.499
3018.850 1.479 1.459 1.3616 1.3159 1.3403 1.3873 1.1843 0.9954 1.0856 1.1533
3038.140 1.0623 1.0728 1.1298 1.0992 1.0176 0.9144 1.0203 1.114 1.0211 1.0325
3057.430 1.1354 1.2246 1.2628 1.2409 1.2385 1.1674 1.167 1.2283 1.1866 1.177
3076.720 1.1493 1.0832 1.1922 1.3162 1.3032 1.3702 1.569 1.619 1.529 1.509
3096.009 1.579 1.649 1.589 1.499 1.489 1.509 1.539 1.429 1.3069 1.2265
3115.299 1.1847 1.2942 1.2001 1.1161 1.0986 0.9025 0.8648 0.8878 0.7823 0.6943
3134.589 0.7234 0.6333 0.5859 0.7152 0.7155 0.6441 0.5851 0.52644 0.539 0.5875
3153.879 0.5578 0.49881 0.432484 0.45221 0.50664 0.51433 0.5386 0.5376 0.478 0.51718
3173.169 0.5879 0.51523 0.51507 0.6389 0.539 0.4158 0.5607 0.5834 0.47131 0.49261
3192.458 0.45729 0.44047 0.44054 0.47777 0.5826 0.45592 0.396 0.46595 0.427 0.3381
3211.748 0.32 0.3938 0.3728 0.3529 0.3302 0.3469 0.50937 0.5361 0.4139 0.3374
3231.038 0.322 0.3554 0.3646 0.249 0.282 0.3633 0.3495 0.295 0.309 0.3505
3250.328 0.4046 0.3462 0.135 0.112 0.223 0.271 0.287 0.4008 0.430371 0.391
3269.617 0.3862 0.295 0.264 0.316 0.354 0.318 0.257 0.314 0.3891 0.48521
3288.907 0.45258 0.3643 0.3505 0.304 0.32 0.328 0.303 0.237 0.311 0.429958
3308.197 0.4143 0.45369 0.3932 0.3777 0.436113 0.4098 0.3547 0.368 0.3692 0.3587
3327.487 0.46382 0.45286 0.3959 0.49631 0.3985 0.303 0.4188 0.5416 0.5378 0.4008
3346.777 0.292 0.314 0.46819 0.43958 0.3455 0.302 0.328 0.3991 0.3588 0.42027
3366.066 0.5536 0.3934 0.283 0.324 0.3931 0.51675 0.47125 0.3614 0.316 0.4427
3385.356 0.51256 0.3351 0.274 0.3747 0.4126 0.3693 0.4052 0.44079 0.3456 0.283
3404.646 0.189 0.077 0.194 0.261 0.3353 0.3933 0.304 0.322 0.241 0.104
3423.936 0.19 0.3568 0.45879 0.44419 0.279 0.187 0.223 0.293 0.3313 0.44495
3443.225 0.3953 0.253 0.246 0.317 0.3731 0.413 0.345 0.41984 0.6157 0.44927
3462.515 0.293 0.245 0.282 0.4095 0.219 0.155 0.44621 0.623 0.594 0.42667
3481.805 0.48525 0.6051 0.46792 0.407 0.5585 0.6432 0.5561 0.48678 0.3998 0.48242
3501.095 0.5743 0.52419 0.403 0.3928 0.329 0.243 0.46024 0.433915 0.316 0.3719
3520.385 0.3553 0.3335 0.44545 0.42081 0.47115 0.50025 0.294 0.3865 0.5528 0.4992
3539.674 0.47685 0.4091 0.257 0.274 0.3443 0.272 0.282 0.3885 0.326 0.429549
3558.964 0.6129 0.5766 0.5396 0.6772 0.9034 1.143 1.629 2.129 2.799 4.039
3578.254 5.859 8.239 10.509 11.919 12.499 12.009 10.719 8.819 6.239 3.959
3597.544 2.579 1.739 1.2323 0.9522 0.6096 0.5964 0.5707 0.48438 0.5816 0.5455
3616.833 0.44855 0.47328 0.5599 0.6695 0.6883 0.5466 0.45842 0.51041 0.5304 0.48079
3636.123 0.52691 0.51383 0.438323 0.437121 0.5544 0.42438 0.4027 0.375 0.3316 0.5293
3655.413 0.5105 0.46233 0.318 0.09 0.102 0.195 0.176 0.247 0.132 0.112
3674.703 0.254 0.229 0.255 0.283 0.294 0.3544 0.42032 0.3828 0.305 0.324
3693.993 0.252 0.151 0.278 0.49462 0.6035 0.5142 0.44902 0.49906 0.5561 0.539
3713.282 0.47069 0.3356 0.213 0.302 0.313 0.275 0.41998 0.3785 0.239 0.278
3732.572 0.3793 0.51902 0.47838 0.3938 0.3375 0.306 0.325 0.4182 0.52702 0.3857
3751.862 0.42667 0.48 0.276 0.184 0.209 0.181 0.207 0.3588 0.3952 0.3574
3771.152 0.4744 0.4099 0.3791 0.3619 0.285 0.244 0.211 0.306 0.296 0.186
3790.441 0.075 0.176 0.274 0.201 0.162 0.222 0.262 0.199 0.231 0.219
3809.731 0.106 0.143 0.175 0.3615 0.4867 0.3557 0.234 0.129 0.037 0.151
3829.021 0.18 0.238 0.3436 0.291 0.198 0.191 0.323 0.275 0.147 0
3848.311 0.088 0.3806 0.5367 0.44012 0.241 0.265 0.317 0.221 0.145 0.228
3867.601 0.4012 0.433317 0.282 0.243 0.244 0.296 0.4105 0.282 0.131 0.148
3886.890 0.296 0.267 0.115 0.119 0.153 0.263 0.302 0.3589 0.4184 0.277
3906.180 0.3592 0.42787 0.247 0.302 0.417 0.199 0.042 0.094 0.28 0.47257
3925.470 0.48487 0.3903 0.231 0.181 0.204 0.209 0.29 0.322 0.188 0.222
3944.760 0.254 0.305 0.430536 0.256 0.144 0.178 0.253 0.25 0.096 0.169
3964.049 0.142 0.076 0.061 0.046 0.163 0.062 0.087 0.19 0.057 0.08
3983.339 0.092 0.182 0.299 0.3471 0.429979 0.226 0.072 0.118 0.224 0.3559
##END=
