##TITLE=p-(2-Chloroethoxy)benzaldehyde
##JCAMP-DX=4.24
##DATA TYPE=INFRARED SPECTRUM
##ORIGIN=EPA-IR VAPOR PHASE LIBRARY
##OWNER=SRD/NIST
Collection (C) 2018 copyright by the U.S. Secretary of Commerce
on behalf of the United States of America. All rights reserved.
##CAS REGISTRY NO=54373-15-8
##MOLFORM=C 9 H 9 Cl O 2
##$NIST SOURCE=MSDC-IR
##STATE=gas
##XUNITS=1/CM
##YUNITS=ABSORBANCE
##XFACTOR=1.
##YFACTOR=0.001
##DELTAX=1.92898
##FIRSTX=549.8
##LASTX=4000.7
##FIRSTY=1.671
##MAXX=4000.7
##MINX=549.759
##MAXY=0.086141
##MINY=0
##NPOINTS=1790
##XYDATA=(X++(Y..Y))
549.759 1.671 1.801 1.661 1.2475 0.9295 1.0429 1.1756 1.2871 1.311 1.2106
569.049 1.0653 0.8787 1.0309 1.2232 1.1152 1.165 1.1799 1.1662 1.441 1.921
588.339 2.211 2.491 3.051 3.511 3.981 4.591 5.221 5.581 5.651 6.111
607.628 6.491 6.461 6.231 6.051 5.941 5.571 5.061 4.471 3.851 3.121
626.918 2.751 2.501 2.261 2.241 2.461 2.821 2.971 3.081 3.191 3.211
646.208 3.171 3.061 3.021 2.981 2.941 2.771 2.721 2.841 2.581 2.371
665.498 2.401 2.421 2.601 2.821 3.131 3.151 3.251 3.741 3.851 4.001
684.787 4.211 4.271 4.221 3.901 3.491 3.341 3.111 2.741 2.621 2.451
704.077 2.141 1.931 1.871 1.941 2.101 2.111 2.101 2.111 2.071 2.081
723.367 2.261 2.531 2.761 3.151 3.651 4.081 4.461 4.821 5.391 6.171
742.657 6.911 7.331 7.401 7.341 6.781 6.101 5.481 4.871 4.361 3.941
761.947 3.571 3.261 3.131 3.011 2.961 2.881 2.771 2.591 2.601 2.541
781.236 2.391 2.491 2.591 2.551 2.751 3.371 3.541 3.621 4.031 4.351
800.526 4.621 5.041 5.631 6.381 7.111 7.801 8.671 9.771 10.911 11.931
819.816 12.931 13.721 14.481 15.181 15.771 16.141 16.121 16.131 16.171 16.261
839.106 16.281 16.291 16.241 16.231 16.311 16.081 15.331 14.391 13.381 12.051
858.395 10.891 9.781 8.361 7.101 6.361 5.741 5.231 4.841 4.641 4.581
877.685 4.501 4.541 4.631 4.571 4.491 4.541 4.551 4.401 4.061 3.581
896.975 3.241 2.791 2.191 1.811 1.631 1.531 1.371 1.273 1.2697 1.1697
916.265 0.9638 1.0318 1.1984 1.09 0.9465 0.9709 1.0258 1.0415 1.0222 1.0508
935.555 1.301 1.371 1.2546 1.2396 1.351 1.441 1.431 1.591 1.811 1.871
954.844 1.831 1.781 1.791 1.831 1.751 1.631 1.731 1.921 2.041 2.061
974.134 2.061 2.021 2.121 2.321 2.401 2.281 2.261 2.591 2.811 2.881
993.424 2.901 2.991 3.451 4.091 4.351 4.471 5.001 5.791 6.621 7.331
1012.714 8.021 8.841 9.831 10.821 11.961 12.901 13.761 14.891 15.851 16.501
1032.003 16.941 17.361 17.231 16.391 15.441 14.241 12.691 10.971 9.311 8.171
1051.293 7.271 6.331 5.511 5.301 5.091 4.861 4.991 4.811 4.811 4.961
1070.583 4.851 4.811 4.591 4.441 4.261 3.871 3.681 3.291 3.001 3.201
1089.873 3.441 3.191 3.241 3.521 3.901 4.161 3.801 3.741 4.021 3.911
1109.163 3.861 4.041 4.151 3.901 3.181 3.321 3.581 3.161 3.061 3.291
1128.452 3.301 3.241 3.361 3.671 3.791 4.041 4.741 5.361 6.181 7.691
1147.742 10.161 13.811 20.181 29.481 39.841 48.861 54.211 55.861 54.171 48.561
1167.032 38.781 27.581 18.681 13.481 10.591 8.831 8.071 7.671 7.821 8.431
1186.322 9.171 10.091 11.571 13.271 15.041 17.211 19.261 21.541 23.601 25.121
1205.611 26.221 26.971 27.191 27.431 28.281 29.271 31.161 33.791 36.821 40.281
1224.901 43.881 47.421 51.221 54.821 57.721 60.291 62.651 64.181 64.531 64.261
1244.191 63.481 62.411 60.731 58.251 55.371 51.971 47.961 43.471 38.811 34.191
1263.481 29.681 25.651 22.131 19.201 17.051 15.371 14.101 13.341 12.971 12.861
1282.771 13.071 13.631 14.321 15.291 16.551 18.031 19.861 21.501 22.641 23.461
1302.060 23.701 23.271 22.231 20.641 18.721 16.801 14.911 13.151 11.631 10.361
1321.350 9.291 8.351 7.571 6.911 6.311 5.771 5.341 4.971 4.681 4.461
1340.640 4.251 4.121 4.031 3.931 3.851 3.751 3.611 3.461 3.331 3.221
1359.930 3.121 3.101 3.091 3.061 3.141 3.351 3.571 3.881 4.391 4.981
1379.219 5.671 6.461 7.141 7.621 7.921 7.881 7.481 6.851 6.061 5.251
1398.509 4.511 3.911 3.551 3.361 3.211 3.151 3.241 3.381 3.511 3.761
1417.799 4.101 4.501 4.841 5.061 5.201 5.261 5.221 5.021 4.731 4.421
1437.089 4.171 4.051 3.871 3.641 3.541 3.601 3.801 4.121 4.611 5.171
1456.378 5.701 6.091 6.241 6.161 5.971 5.761 5.451 5.111 5.021 5.111
1475.668 5.271 5.421 5.401 5.301 5.271 5.301 5.461 5.901 6.811 8.181
1494.958 10.151 13.031 16.551 20.441 24.191 26.851 28.001 27.591 25.731 22.431
1514.248 18.291 14.171 10.811 8.391 6.641 5.601 4.771 4.121 3.731 3.511
1533.538 3.281 3.101 3.111 3.061 2.991 2.951 2.931 3.041 3.131 3.221
1552.827 3.351 3.531 3.861 4.241 4.771 5.481 6.311 7.301 8.611 10.381
1572.117 12.531 14.981 17.861 20.921 23.631 26.051 28.291 30.481 32.671 35.231
1591.407 38.671 43.251 48.671 53.921 57.821 59.681 59.081 55.961 50.931 44.501
1610.697 37.371 30.471 24.601 19.671 15.691 12.691 10.361 8.651 7.281 6.161
1629.986 5.441 4.871 4.431 4.101 3.831 3.741 3.641 3.561 3.501 3.411
1649.276 3.381 3.371 3.371 3.381 3.391 3.421 3.501 3.701 3.811 3.921
1668.566 4.141 4.341 4.531 4.821 5.201 5.481 5.741 6.081 6.471 6.881
1687.856 7.271 7.811 8.651 9.611 10.751 12.231 14.131 16.691 19.691 23.771
1707.146 29.231 36.621 46.561 59.001 72.141 82.081 86.141 85.081 80.071 69.801
1726.435 54.191 38.431 26.651 19.281 14.391 11.061 8.771 6.991 5.711 4.721
1745.725 3.991 3.471 3.051 2.701 2.501 2.301 2.151 2.051 1.931 1.851
1765.015 1.801 1.751 1.711 1.661 1.581 1.481 1.421 1.381 1.341 1.331
1784.305 1.2609 1.1844 1.1945 1.1693 1.1068 1.1208 1.1626 1.1514 1.0953 1.087
1803.594 1.1154 1.0865 1.0187 1.0004 1.0376 1.0013 0.9622 0.9276 0.8736 0.8698
1822.884 0.869 0.8402 0.8597 0.8615 0.8403 0.8233 0.8276 0.868 0.9089 0.88
1842.174 0.843 0.866 0.8436 0.8753 0.9159 0.9268 0.9264 0.8353 0.8176 0.8764
1861.464 0.8778 0.8714 0.8114 0.8113 0.864 0.8611 0.9183 0.9335 0.938 1.0033
1880.754 1.0397 1.0516 1.0705 1.1301 1.2234 1.2442 1.2724 1.361 1.371 1.361
1900.043 1.331 1.286 1.2651 1.2274 1.1828 1.0972 1.0281 0.9709 0.9506 0.923
1919.333 0.857 0.8695 0.881 0.8681 0.8889 0.8694 0.8427 0.8167 0.8245 0.9292
1938.623 0.9225 0.8576 0.8881 0.8933 0.8671 0.8491 0.8848 0.877 0.8117 0.8067
1957.913 0.8219 0.8744 0.8977 0.9292 0.9975 1.0172 0.9935 1.011 1.03 1.0262
1977.202 1.0649 1.041 1.0308 1.0801 1.0712 1.0592 1.1299 1.1247 1.1029 1.1482
1996.492 1.1627 1.1643 1.1493 1.2117 1.291 1.331 1.371 1.411 1.421 1.411
2015.782 1.411 1.391 1.331 1.291 1.2343 1.1947 1.1344 1.0904 1.0998 1.0864
2035.072 1.0796 1.0424 1.0109 1.0062 1.0448 1.1099 1.1259 1.1241 1.1387 1.1314
2054.362 1.1519 1.1404 1.1491 1.1342 1.1245 1.1455 1.1247 1.1094 1.041 1.0302
2073.651 1.0281 0.9487 0.9003 0.8896 0.8268 0.7866 0.7945 0.787 0.7627 0.8081
2092.941 0.854 0.8378 0.8251 0.7957 0.7442 0.7171 0.6708 0.6389 0.6098 0.5814
2112.231 0.5707 0.5511 0.5863 0.6114 0.6294 0.6035 0.599 0.6155 0.589 0.5502
2131.521 0.5325 0.5304 0.496 0.4913 0.5364 0.5047 0.4798 0.5231 0.4886 0.4688
2150.810 0.5157 0.4879 0.4599 0.4302 0.4532 0.4878 0.4106 0.37818 0.39036 0.37395
2170.100 0.35855 0.37245 0.35472 0.30587 0.33063 0.38404 0.3518 0.30793 0.34713 0.4159
2189.390 0.4345 0.3911 0.37292 0.35636 0.30889 0.31478 0.32081 0.33082 0.33817 0.37714
2208.680 0.37573 0.2692 0.2263 0.2704 0.37368 0.4238 0.4105 0.3921 0.3984 0.3931
2227.970 0.415 0.4462 0.4241 0.4538 0.4638 0.4709 0.4913 0.5086 0.4951 0.4805
2247.259 0.5201 0.5958 0.6343 0.5755 0.5655 0.5558 0.5192 0.593 0.6434 0.5897
2266.549 0.6189 0.6622 0.6322 0.5601 0.5249 0.5387 0.5223 0.5247 0.5386 0.5629
2285.839 0.5459 0.4779 0.4552 0.4206 0.4385 0.5141 0.4875 0.4414 0.4468 0.5063
2305.129 0.5106 0.4963 0.531 0.5091 0.5131 0.5768 0.577 0.5548 0.4866 0.4447
2324.418 0.5097 0.5082 0.4884 0.4762 0.4392 0.443 0.4232 0.36393 0.38795 0.4288
2343.708 0.4372 0.4361 0.38221 0.35628 0.34593 0.3968 0.4279 0.38435 0.4051 0.4139
2362.998 0.4265 0.4692 0.4157 0.37942 0.4199 0.4518 0.4741 0.4891 0.5185 0.495
2382.288 0.5389 0.5806 0.5393 0.4982 0.4881 0.5318 0.5524 0.5615 0.5822 0.6035
2401.578 0.6444 0.6895 0.6583 0.6191 0.6747 0.7126 0.6766 0.686 0.6913 0.6285
2420.867 0.6743 0.7461 0.6767 0.5934 0.5943 0.6139 0.612 0.6543 0.7014 0.6836
2440.157 0.6389 0.6875 0.7867 0.7868 0.7305 0.7385 0.7882 0.7596 0.7353 0.7718
2459.447 0.779 0.7754 0.7599 0.7606 0.8174 0.8452 0.7674 0.7377 0.7691 0.7389
2478.737 0.7237 0.7454 0.7459 0.7538 0.8258 0.8017 0.8113 0.8533 0.8136 0.8174
2498.026 0.8199 0.7988 0.7679 0.8758 0.9059 0.8462 0.8601 0.832 0.8362 0.8432
2517.316 0.822 0.8061 0.7545 0.7221 0.691 0.7647 0.8422 0.8059 0.8117 0.8322
2536.606 0.8673 0.8999 0.9367 1.0337 1.0474 0.9844 1.0019 1.0742 1.0778 0.9672
2555.896 0.8945 0.987 1.0856 1.0761 1.0184 0.9724 1.0062 1.001 0.987 0.9917
2575.186 0.9916 1.0525 1.0902 1.0577 1.066 1.0966 1.0929 1.0045 0.9568 0.9691
2594.475 0.9462 0.9404 0.9519 0.8805 0.8254 0.8577 0.84 0.8917 0.9372 0.8989
2613.765 0.8985 0.8513 0.7649 0.8181 0.8443 0.7325 0.6841 0.6736 0.6698 0.7421
2633.055 0.8335 0.8914 0.8192 0.7517 0.8258 0.7641 0.6469 0.6626 0.6585 0.6843
2652.345 0.7239 0.7171 0.7617 0.8272 0.8887 0.9547 0.9718 0.973 1.1094 1.2789
2671.634 1.381 1.581 1.751 1.901 2.091 2.201 2.371 2.541 2.721 2.911
2690.924 3.041 3.191 3.361 3.581 3.821 4.191 4.691 5.201 5.811 6.451
2710.214 7.101 7.861 8.681 9.501 10.291 10.971 11.551 11.961 12.111 11.981
2729.504 11.591 10.981 10.261 9.491 8.651 7.841 7.021 6.301 5.701 5.181
2748.794 4.701 4.251 3.901 3.671 3.591 3.451 3.221 3.161 3.241 3.341
2768.083 3.421 3.491 3.571 3.661 3.881 4.181 4.531 4.961 5.411 5.891
2787.373 6.331 6.661 6.901 7.111 7.341 7.601 7.721 7.731 7.811 7.951
2806.663 8.071 8.151 8.321 8.541 8.751 8.921 8.941 8.621 8.141 7.671
2825.953 7.091 6.421 5.751 5.121 4.631 4.171 3.751 3.401 3.201 3.071
2845.242 2.841 2.661 2.471 2.361 2.291 2.251 2.291 2.261 2.281 2.391
2864.532 2.531 2.621 2.691 2.741 2.841 2.981 2.991 3.011 3.091 3.191
2883.822 3.221 3.231 3.231 3.171 3.231 3.201 3.181 3.221 3.151 3.131
2903.112 3.061 3.001 3.041 3.111 3.041 2.941 2.941 2.941 2.911 2.961
2922.401 3.091 3.151 3.151 3.111 3.131 3.321 3.441 3.431 3.461 3.611
2941.691 3.671 3.701 3.701 3.701 3.821 4.021 4.181 4.181 4.301 4.591
2960.981 4.771 4.821 4.891 4.981 5.101 5.141 5.081 5.041 4.991 4.941
2980.271 4.981 4.871 4.551 4.371 4.101 3.791 3.591 3.331 3.031 2.921
2999.561 2.991 3.011 3.041 3.021 2.961 2.991 3.021 2.941 2.881 2.821
3018.850 2.761 2.901 3.041 2.951 2.841 2.841 2.951 3.091 3.091 3.091
3038.140 3.081 2.981 2.881 2.771 2.411 2.071 1.891 1.791 1.751 1.641
3057.430 1.591 1.551 1.561 1.631 1.741 1.871 2.061 2.321 2.571 2.641
3076.720 2.591 2.561 2.501 2.411 2.191 1.971 1.911 1.831 1.841 1.991
3096.009 1.881 1.781 1.811 1.781 1.761 1.641 1.491 1.461 1.471 1.351
3115.299 1.21 1.2328 1.105 1.0497 1.0563 0.8313 0.6439 0.6868 0.677 0.4514
3134.589 0.34632 0.4072 0.4807 0.4707 0.4477 0.4615 0.4307 0.28325 0.293742 0.5548
3153.879 0.5758 0.5131 0.4658 0.30528 0.35558 0.433 0.4905 0.4281 0.2384 0.2767
3173.169 0.4101 0.32494 0.2558 0.4199 0.38342 0.2548 0.214 0.28446 0.33191 0.32881
3192.458 0.4169 0.4558 0.4466 0.3915 0.32159 0.32031 0.2383 0.182 0.187 0.147
3211.748 0.2482 0.2428 0.185 0.225 0.2784 0.19 0.186 0.2584 0.157 0.135
3231.038 0.105 0.139 0.2396 0.34249 0.1945 0.085 0.2137 0.2136 0.2493 0.162
3250.328 0.089 0.2143 0.2492 0.2151 0.203 0.2118 0.152 0.056 0 0.083
3269.617 0.16 0.181 0.1912 0.168 0.2171 0.2456 0.13 0.105 0.111 0.1978
3288.907 0.38799 0.33216 0.159 0.1919 0.2312 0.2211 0.30367 0.2206 0.065 0.116
3308.197 0.2485 0.2511 0.1922 0.144 0.163 0.2673 0.2736 0.2049 0.2472 0.2037
3327.487 0.2092 0.4139 0.4434 0.2265 0.182 0.30743 0.35036 0.294516 0.2508 0.244
3346.777 0.2238 0.112 0.139 0.33513 0.33561 0.2647 0.2164 0.2269 0.2504 0.2218
3366.066 0.151 0.2658 0.32537 0.30123 0.34745 0.32758 0.3219 0.28755 0.291672 0.30498
3385.356 0.38446 0.4371 0.5155 0.5852 0.4421 0.4822 0.6789 0.6426 0.668 0.8435
3404.646 0.9828 0.9864 0.9845 1.1371 1.1713 1.1788 1.2205 1.2749 1.259 1.0075
3423.936 0.882 0.9297 0.9761 1.0279 1.0344 0.8584 0.7683 0.7068 0.541 0.4345
3443.225 0.4391 0.4344 0.4286 0.33856 0.2426 0.156 0.11 0.2647 0.2769 0.1957
3462.515 0.141 0.2621 0.2372 0.2325 0.4009 0.2391 0.074 0.146 0.168 0.088
3481.805 0.128 0.2676 0.31307 0.2476 0.15 0.157 0.2247 0.2598 0.2641 0.2077
3501.095 0.186 0.2058 0.152 0.2559 0.32296 0.2685 0.2877 0.128 0.096 0.298965
3520.385 0.31107 0.2538 0.106 0.069 0.2539 0.1937 0.117 0.2077 0.34198 0.4045
3539.674 0.33975 0.2487 0.224 0.2408 0.2441 0.2282 0.166 0.155 0.2409 0.142
3558.964 0.142 0.168 0.097 0.2151 0.1966 0.121 0.2226 0.2152 0.157 0.2591
3578.254 0.291357 0.2622 0.291173 0.29934 0.24 0.2202 0.1928 0.133 0.145 0.28456
3597.544 0.3986 0.38187 0.2357 0.2099 0.2514 0.183 0.101 0.098 0.067 0.053
3616.833 0.17 0.2027 0.2308 0.34366 0.34769 0.3632 0.37788 0.2731 0.2359 0.290474
3636.123 0.33341 0.2186 0.2131 0.34309 0.34906 0.28547 0.293383 0.292483 0.300128 0.32942
3655.413 0.30352 0.295996 0.183 0.2118 0.36579 0.33704 0.37866 0.4021 0.32888 0.32415
3674.703 0.35558 0.28124 0.187 0.158 0.166 0.29936 0.38165 0.31661 0.2316 0.2041
3693.993 0.28594 0.2645 0.2299 0.164 0.141 0.2674 0.2584 0.31005 0.3953 0.179
3713.282 0.116 0.2241 0.195 0.2615 0.269 0.2283 0.31771 0.2783 0.217 0.2356
3732.572 0.1942 0.272 0.262 0.33779 0.4789 0.2439 0.03 0.104 0.2576 0.3219
3751.862 0.226 0.267 0.37003 0.33672 0.2195 0.28781 0.4314 0.32276 0.113 0.102
3771.152 0.157 0.30436 0.36013 0.2497 0.3704 0.4263 0.422 0.33009 0.2336 0.2328
3790.441 0.28303 0.2783 0.2762 0.30972 0.28371 0.34694 0.30376 0.33214 0.3911 0.31301
3809.731 0.34886 0.31814 0.2325 0.28688 0.3069 0.32071 0.35949 0.2099 0.2095 0.33747
3829.021 0.292169 0.35472 0.34723 0.223 0.2094 0.109 0.066 0.151 0.28781 0.31415
3848.311 0.11 0.125 0.164 0.143 0.167 0.171 0.293284 0.33038 0.32004 0.35371
3867.601 0.38305 0.4956 0.5346 0.32861 0.177 0.2687 0.2514 0.117 0.1 0.2046
3886.890 0.202 0.183 0.176 0.2544 0.2365 0.113 0.2287 0.32764 0.291003 0.2272
3906.180 0.19 0.30175 0.36304 0.2687 0.2669 0.298559 0.186 0.08 0.114 0.128
3925.470 0.213 0.32682 0.34267 0.38183 0.32277 0.3823 0.5195 0.5077 0.4788 0.4134
3944.760 0.2469 0.159 0.2478 0.2242 0.2446 0.2582 0.126 0.065 0.2596 0.37453
3964.049 0.30381 0.178 0.2301 0.2443 0.143 0.2251 0.2428 0.161 0.2538 0.37416
3983.339 0.37501 0.30542 0.2332 0.2458 0.2613 0.34153 0.4337 0.409 0.35964 0.2863
##END=
