##TITLE=3,5-Dichloro-2-pyridone
##JCAMP-DX=4.24
##DATA TYPE=INFRARED SPECTRUM
##ORIGIN=EPA-IR VAPOR PHASE LIBRARY
##OWNER=SRD/NIST
Collection (C) 2018 copyright by the U.S. Secretary of Commerce
on behalf of the United States of America. All rights reserved.
##CAS REGISTRY NO=5437-33-2
##MOLFORM=C 5 H 3 Cl 2 N O
##$NIST SOURCE=MSDC-IR
##STATE=gas
##XUNITS=1/CM
##YUNITS=ABSORBANCE
##XFACTOR=1.
##YFACTOR=0.001
##DELTAX=1.92898
##FIRSTX=549.8
##LASTX=4000.7
##FIRSTY=0.664
##MAXX=4000.7
##MINX=549.759
##MAXY=0.022476
##MINY=0
##NPOINTS=1790
##XYDATA=(X++(Y..Y))
549.759 0.664 0.315 1.0727 1.5162 0.81747 0.6973 0.85941 0.9211 0.692 0.249
569.049 0.301 0.372 0.384 0.151 0.035 0.308 0.80774 0.598 0.457 0.797678
588.339 0.621 0.367 0.497 0.609 0.558 0.7111 0.9985 0.745 0.465 0.543
607.628 0.594 0.7051 0.7413 0.9688 0.7187 0.653 0.353 0 0.587 0.9122
626.918 0.7064 0.9796 1.1953 1.1258 1.4641 1.4103 1.4225 1.6668 1.826 1.936
646.208 1.936 1.7722 1.6773 1.906 1.976 1.6414 1.6487 1.7019 1.3449 1.2739
665.498 0.89555 0.588 0.598 0.7168 1.0636 0.85332 1.0025 0.9234 0.565 0.7598
684.787 0.83713 0.9587 0.9975 0.9093 1.0541 1.0572 1.0027 1.1773 1.1722 1.0725
704.077 1.033 1.2575 1.4728 1.6193 1.5899 1.7287 1.946 1.916 1.876 2.016
723.367 2.706 3.456 4.226 5.296 5.586 5.336 5.596 5.976 5.756 5.246
742.657 5.426 5.106 4.476 4.056 3.216 3.066 2.816 2.416 2.366 2.186
761.947 2.036 1.7887 1.4939 1.3928 1.3534 1.1094 0.9719 1.0786 1.2957 1.1969
781.236 1.2205 1.3468 1.2253 1.1083 1.1516 1.0722 0.82902 1.1202 0.9588 0.677
800.526 0.685 0.574 0.644 0.659 1.0375 1.2159 1.0511 1.0515 1.2377 1.1839
819.816 0.87056 1.2007 1.4252 1.3421 1.1976 1.2111 1.2445 1.1925 0.968 0.7618
839.106 1.1222 1.1107 0.9566 1.1917 1.2416 0.9644 0.85105 0.88118 0.7799 0.548
858.395 0.675 1.0783 1.2458 1.3335 1.7678 2.056 1.976 2.566 3.186 3.396
877.685 3.676 4.026 4.426 4.676 4.736 4.296 3.866 3.866 3.936 3.886
896.975 3.976 3.206 2.506 2.676 2.336 2.026 1.7224 1.6613 1.4793 1.2565
916.265 1.5954 1.4926 0.87626 0.8349 0.8702 0.455 0.386 0.7646 0.683 0.492
935.555 0.87661 1.0888 0.9535 0.802038 0.7753 0.697 0.423 0.127 0.16 0.632
954.844 0.9654 0.7615 0.7805 0.7829 0.9144 1.0528 0.9308 0.87077 0.7101 0.568
974.134 0.417 0.6 0.614 0.631 1.36 1.26 0.936 0.88068 0.492 0.659
993.424 0.7597 0.625 0.7525 0.8256 0.225 0.167 0.7783 0.929 0.87872 0.942
1012.714 0.9014 0.574 0.663 0.7051 0.84858 0.85072 0.6987 0.695 1.155 1.5279
1032.003 1.1579 1.0763 1.0131 1.4649 2.266 2.486 2.406 2.376 2.546 3.226
1051.293 3.536 3.486 4.066 4.736 5.366 5.936 5.926 4.946 4.536 5.076
1070.583 5.126 5.236 4.236 2.586 3.206 4.066 3.176 2.066 1.5739 2.346
1089.873 3.346 4.216 4.916 5.146 5.586 5.666 5.786 6.096 5.856 5.716
1109.163 5.776 5.446 5.486 5.366 5.196 4.636 4.336 4.336 4.236 4.126
1128.452 3.966 4.826 4.886 4.496 4.266 3.396 3.326 3.556 4.296 5.156
1147.742 5.116 5.346 5.316 5.556 6.606 7.056 6.746 6.716 6.976 6.636
1167.032 5.816 5.786 4.766 3.106 2.846 2.266 1.2345 1.5491 1.946 1.5409
1186.322 1.3597 1.1148 1.1245 1.4557 1.2521 0.926 1.1333 1.5905 1.2717 1.0504
1205.611 1.4122 1.4939 2.006 2.426 1.6858 1.876 2.236 1.966 1.6233 1.916
1224.901 2.126 1.2457 1.3085 1.4723 1.3591 0.9207 1.1353 1.6637 1.4091 1.1145
1244.191 0.89414 0.694 1.0031 0.9832 0.437 0.655 1.1468 1.0036 0.7164 0.85732
1263.481 1.1942 1.4225 1.398 1.1062 1.4548 2.186 2.346 2.256 2.376 2.826
1282.771 3.216 3.216 3.196 3.316 3.576 3.856 3.956 4.356 4.976 5.506
1302.060 6.016 6.636 7.236 7.846 8.366 8.556 8.456 8.136 7.926 7.586
1321.350 7.076 6.616 5.906 4.996 4.246 3.866 3.646 3.366 3.126 2.906
1340.640 2.766 2.606 2.496 2.316 2.216 2.126 1.866 1.7711 1.662 1.5298
1359.930 1.4945 1.3767 1.2729 1.3284 1.4028 1.5069 1.6712 1.856 2.186 2.456
1379.219 2.646 2.946 3.206 3.436 3.636 3.686 3.706 3.776 3.566 3.316
1398.509 3.086 2.706 2.376 2.156 2.056 2.026 1.946 1.7752 1.7083 1.6587
1417.799 1.6358 1.6427 1.7256 1.976 2.306 2.596 3.046 3.676 4.676 5.926
1437.089 7.246 8.766 10.556 12.406 14.226 16.096 17.636 19.146 20.766 21.916
1456.378 22.476 22.396 21.476 19.946 18.276 16.676 15.076 13.376 11.306 8.966
1475.668 7.156 5.976 5.256 4.736 4.266 3.866 3.336 2.716 2.236 2.006
1494.958 1.665 1.4166 1.5544 1.579 1.4811 1.4122 1.2702 1.1719 1.2045 1.179
1514.248 1.111 1.0588 1.1697 1.295 1.3028 1.2554 1.1869 1.1671 1.1317 1.0778
1533.538 1.2037 1.3171 1.2604 1.2661 1.2811 1.3783 1.5216 1.4274 1.4527 1.6409
1552.827 1.6858 1.7289 1.816 1.996 2.246 2.386 2.476 2.506 2.596 2.746
1572.117 2.946 3.196 3.356 3.436 3.516 3.606 3.546 3.426 3.256 3.136
1591.407 2.896 2.716 2.556 2.296 2.146 2.036 1.996 1.896 1.886 2.056
1610.697 2.066 2.066 2.256 2.496 2.536 2.436 2.316 2.216 2.146 1.836
1629.986 1.5729 1.4526 1.3025 1.1525 1.0453 0.9854 0.9891 0.9708 1.0126 1.0557
1649.276 0.9679 1.1053 1.2603 1.2316 1.1675 1.1727 1.2431 1.2268 1.3195 1.4239
1668.566 1.2856 1.2445 1.2818 1.3145 1.3947 1.3993 1.4271 1.3613 1.5081 1.7138
1687.856 1.683 1.7369 1.896 2.046 2.046 2.076 2.476 2.956 3.626 4.576
1707.146 5.476 6.376 7.356 8.296 8.656 8.616 8.406 8.086 7.746 7.056
1726.435 5.926 4.476 3.136 2.266 1.7451 1.596 1.5604 1.3479 1.2833 1.3057
1745.725 1.3646 1.5366 1.5036 1.4636 1.5364 1.4802 1.3324 1.3676 1.4427 1.3635
1765.015 1.4126 1.4263 1.3441 1.3251 1.3635 1.3392 1.2471 1.2208 1.1391 1.0686
1784.305 1.166 1.3333 1.2989 1.2172 1.2105 1.2485 1.2204 1.194 1.1854 1.0919
1803.594 1.0921 1.2339 1.2578 1.1569 1.1408 1.1229 1.0452 1.0817 1.1594 1.1341
1822.884 0.9982 0.9906 1.0784 1.0376 0.9937 0.986 0.9722 1.0317 1.0353 0.85692
1842.174 0.87586 0.9432 0.9407 1.0181 1.0034 0.9909 0.9665 0.87384 0.7836 0.67
1861.464 0.80079 0.9043 0.81949 0.82825 0.9182 1.0275 0.9372 0.80958 0.85294 0.913
1880.754 0.8403 0.82154 0.89045 0.963 0.9636 0.798622 0.7498 0.89169 0.9896 0.9643
1900.043 0.9066 0.82848 0.83913 0.9555 0.89372 0.80691 0.84409 0.84955 0.7755 0.6998
1919.333 0.7118 0.87169 0.9481 0.88657 0.9334 0.9464 0.958 1.0356 1.0724 0.9245
1938.623 0.88712 0.9539 0.9055 0.82795 0.86354 0.86559 0.7561 0.81566 0.7687 0.7481
1957.913 0.88463 0.89591 0.86246 0.88647 0.8646 0.88112 0.9834 1.0466 0.9773 0.84757
1977.202 0.7635 0.7143 0.82748 0.9343 0.87054 0.7846 0.84917 0.9194 0.9307 0.85813
1996.492 0.7258 0.83152 0.796624 0.695 0.926 0.9403 0.82526 0.84044 0.81465 0.86497
2015.782 0.9164 0.85187 0.7858 0.795907 0.83644 0.86473 0.9225 0.9894 0.9995 0.9803
2035.072 0.9369 0.9221 0.9601 1.0129 0.9938 0.9118 0.86522 0.7506 0.695 0.7353
2054.362 0.82087 0.9142 0.9859 0.9919 0.8998 0.8409 0.9098 1.0342 0.9166 0.79818
2073.651 0.7835 0.88461 0.88356 0.7521 0.682 0.7817 0.9377 0.83927 0.801011 0.83048
2092.941 0.7155 0.665 0.798709 0.83043 0.7844 0.87684 0.9334 0.9027 0.86247 0.747
2112.231 0.64 0.7456 0.8497 0.83663 0.83483 0.85576 0.86156 0.81247 0.84621 0.87142
2131.521 0.9331 0.921 0.85436 0.9398 0.9352 0.9168 0.935 0.9008 0.9158 0.9382
2150.810 0.85717 0.82208 0.85571 0.87751 0.9216 0.9454 0.9098 0.85471 0.9245 1.0101
2170.100 0.9095 0.82697 0.87485 0.88713 0.9163 0.79171 0.7095 0.85439 0.8937 0.9159
2189.390 0.9472 0.9135 0.83896 0.9442 1.0769 1.0106 0.963 0.9288 0.87395 0.86317
2208.680 0.9722 1.0006 0.9218 0.9117 0.87411 0.909 0.8772 0.7273 0.88009 0.9638
2227.970 0.86531 0.88896 0.84636 0.9784 1.0746 0.9473 0.88887 0.83162 0.7482 0.7533
2247.259 0.935 0.9779 0.8994 0.9409 0.9873 1.0152 0.996 0.9444 0.9273 0.83637
2266.549 0.82598 0.9491 0.9593 0.9166 0.9282 0.9019 0.83833 0.83759 0.9269 0.9958
2285.839 0.9785 0.9951 1.096 0.982 0.84443 0.85597 0.81969 0.84499 0.9459 1.0519
2305.129 1.0511 0.9887 0.9743 1.0623 1.1542 1.1072 0.9874 0.86337 0.9663 1.1178
2324.418 0.9866 0.81074 0.80655 0.87562 0.9496 0.9531 0.9006 0.83311 0.9546 1.0621
2343.708 0.93 0.7845 0.7639 0.9401 0.9997 0.9141 0.9749 1.0013 0.9735 0.9814
2362.998 0.9582 0.9075 0.916 1.0613 1.0648 0.9445 0.9445 1.025 0.9972 1.0796
2382.288 1.161 1.1969 1.1471 0.9898 1.0311 0.9957 0.87637 0.8534 0.82254 0.7721
2401.578 0.86259 0.9074 0.9299 0.9734 1.0118 1.0584 1.0832 1.0565 0.9686 0.7773
2420.867 0.796184 0.9322 0.80905 0.958 1.1827 1.0772 0.9248 1.0466 1.2581 1.2484
2440.157 1.0391 0.87192 0.9073 0.9845 1.0357 1.1258 1.1455 1.0523 0.9803 0.9028
2459.447 0.9088 1.01 0.86855 0.907 1.0793 0.9838 1.0601 1.0503 0.9291 0.9626
2478.737 0.84077 0.87002 1.0161 0.9665 0.9092 0.8987 0.85714 0.778 0.684 0.7268
2498.026 0.81637 0.803818 0.798169 0.9023 0.9715 0.85847 0.87031 0.9117 0.85563 0.9607
2517.316 1.0873 0.9419 0.722 0.7676 0.9642 0.83905 0.703 0.82867 0.8611 0.9972
2536.606 1.1276 1.0673 0.9644 0.9049 0.87591 0.9165 0.9499 0.87534 0.85792 0.9916
2555.896 1.0947 1.0563 1.0867 1.0735 1.0078 0.9599 0.9481 0.85154 0.85832 0.984
2575.186 0.9747 0.7663 0.7214 0.85777 0.88918 0.9446 1.0073 1.0621 1.1173 1.0221
2594.475 0.962 1.0354 1.0852 1.0421 1.0982 1.1201 0.9372 1.0077 1.1122 1.0246
2613.765 0.7702 0.80732 1.0317 0.9957 0.9592 0.9997 0.89256 0.9468 1.009 0.82096
2633.055 0.88694 0.9642 0.7486 0.642 0.7621 0.9046 0.82776 0.7198 0.81026 0.799152
2652.345 0.7507 0.68 0.645 0.82261 0.9513 0.89529 0.86396 0.8813 0.82625 0.9359
2671.634 1.0378 0.918 0.7491 0.81151 0.82339 0.634 0.611 0.7421 0.88597 0.85839
2690.924 0.87058 0.9519 0.83586 0.81099 0.9638 0.9579 0.85602 0.7839 0.87131 0.9098
2710.214 0.79212 0.88055 1.0005 1.0432 0.9536 0.799341 0.7603 0.9489 0.9925 0.84403
2729.504 0.9635 1.1097 1.1507 1.1213 1.0366 1.0804 1.1405 1.1139 1.1553 1.1189
2748.794 0.9209 0.800565 0.87896 0.981 1.1123 1.1491 0.8278 0.8485 0.9103 0.81327
2768.083 0.9471 0.8833 0.8321 0.9334 0.9871 0.86275 1.0122 1.1307 1.0694 1.1282
2787.373 1.0915 1.1371 1.1324 1.1563 1.1731 1.0105 0.84921 0.84922 0.9475 0.9988
2806.663 1.1068 1.1679 1.0682 0.800823 0.87005 1.0382 1.043 0.9134 0.78605 0.8374
2825.953 0.88285 0.9206 0.8361 0.82953 0.7864 0.7487 0.734 0.662 0.603 0.496
2845.242 0.7261 0.82779 0.7198 0.85269 0.89273 0.85387 0.79355 0.83117 0.9214 0.9502
2864.532 0.89517 0.9123 0.9071 0.845 0.798184 0.804507 0.85387 0.80786 0.6988 0.8206
2883.822 1.0869 1.0336 0.796274 0.9349 1.2065 1.0495 0.9011 1.0116 1.0811 0.82343
2903.112 0.7713 0.87911 0.607 0.7438 1.2386 1.2407 0.9696 0.9059 0.9819 0.93
2922.401 0.9305 0.9859 0.9862 0.9035 0.9214 1.0969 1.0349 0.9314 0.87309 0.9929
2941.691 0.9974 0.9868 1.0703 0.81343 0.7154 0.9052 1.1188 1.2108 1.0314 0.800711
2960.981 0.7399 0.9833 1.0607 0.9233 0.9612 0.82306 0.7796 0.79063 0.66 0.655
2980.271 0.84708 0.7946 0.76 0.9503 0.8994 0.88094 1.0729 0.9106 0.7614 0.87066
2999.561 0.905 0.9541 0.89403 0.8961 0.939 0.662 0.527 0.61 0.608 0.8516
3018.850 0.8956 0.7341 0.7027 0.702 0.7289 0.89123 0.9476 0.89338 0.9346 0.86799
3038.140 0.82517 0.9133 0.9168 0.9153 0.9295 1.0013 1.0763 0.9979 1.2021 1.1899
3057.430 0.9294 1.0178 1.0871 1.3406 1.6009 1.3805 1.1247 1.1541 1.2126 1.1348
3076.720 1.1149 1.2161 1.1158 0.9059 0.9927 0.87296 0.638 0.81078 1.1171 1.1694
3096.009 0.9026 0.87699 0.85705 0.80717 1.0733 1.1631 1.1235 1.0666 0.9962 1.1449
3115.299 1.142 0.9318 0.85395 0.9165 0.9478 0.88121 0.9145 1.1623 1.0947 0.89417
3134.589 0.9395 0.8991 0.86702 0.9029 0.9532 0.82473 0.9023 0.8925 0.9134 1.1891
3153.879 1.0319 0.87984 0.9728 0.9403 0.80813 1.0453 0.9668 0.9827 1.193 1.0415
3173.169 0.9128 0.7123 0.66 0.691 0.796385 0.9521 0.81186 0.7401 0.85953 0.82036
3192.458 0.428 0.393 0.771 0.692 0.526 0.487 0.669 0.9242 0.863 0.7532
3211.748 0.7593 0.7057 0.658 0.79365 0.83818 0.7439 0.798925 0.9504 1.0189 1.0579
3231.038 1.1256 1.1319 1.0672 1.078 1.1241 1.0348 0.9664 1.1456 1.1434 1.0507
3250.328 1.0716 0.89087 0.798345 0.9179 1.0722 0.9408 0.83508 0.83628 0.8067 0.627
3269.617 0.7143 0.9953 0.88738 0.9057 1.0216 0.89568 0.82644 0.9269 0.9396 1.0289
3288.907 1.1053 1.0929 1.1259 1.0601 1.0005 1.0108 0.80834 0.81976 0.648 0.405
3308.197 0.61 0.653 0.546 0.81546 1.0889 1.0706 1.0952 0.727 0.503 0.542
3327.487 0.694 1.0329 0.9722 0.7604 0.7517 0.7581 0.9767 0.9709 0.81316 0.88376
3346.777 0.84519 0.79276 0.81946 0.7647 0.87414 0.678 0.656 1.0045 0.86362 0.9613
3366.066 1.134 0.84948 0.6 0.638 0.516 0.505 0.491 0.46 0.7043 0.623
3385.356 0.471 0.625 0.83054 0.85857 0.9887 1.0008 0.7363 0.88943 0.83039 0.88275
3404.646 1.0441 0.803477 1.0199 1.2753 1.3305 1.3404 1.2328 1.0369 1.1419 1.4024
3423.936 1.4626 1.4727 1.4939 1.7929 2.136 2.116 1.896 1.7325 1.79 1.986
3443.225 1.826 1.7856 1.7722 1.7147 1.4088 1.0755 1.1372 0.88522 0.8623 1.179
3462.515 1.1772 0.9559 0.88085 0.9265 0.9115 0.7088 0.524 0.462 0.51 0.7667
3481.805 0.87251 0.9513 0.985 0.7287 0.554 0.639 0.88354 0.9341 0.9865 0.8989
3501.095 0.8204 0.7835 0.7113 0.547 0.538 0.805211 0.7173 0.55 0.647 0.88068
3520.385 0.86283 0.7269 0.577 0.465 0.54 0.545 0.641 0.581 0.478 1.1344
3539.674 1.3167 0.7857 0.589 0.7832 0.85027 0.83408 0.9062 0.9509 0.9596 0.7392
3558.964 0.83456 0.9981 1.0458 1.2632 1.2612 1.1944 1.4235 1.7723 2.266 2.846
3578.254 3.496 4.326 5.246 6.366 7.656 9.026 9.846 9.456 8.786 8.686
3597.544 8.696 8.496 7.876 6.626 5.326 3.936 2.846 2.386 1.966 1.6953
3616.833 1.6199 1.1889 0.9926 1.1694 0.9874 0.9992 1.1206 1.0149 0.7186 0.623
3636.123 0.7752 0.7005 0.699 0.688 0.7559 0.9393 0.96 0.799093 0.679 0.89091
3655.413 0.9637 0.7026 0.672 0.696 0.8741 1.0758 1.1175 0.691 0.3 0.651
3674.703 0.86236 0.7779 0.66 0.7345 0.84545 0.655 0.623 0.671 0.611 0.535
3693.993 0.459 0.689 0.7255 0.7019 0.84754 0.7762 0.556 0.482 0.552 0.7488
3713.282 0.7109 0.7101 0.9898 0.9469 0.554 0.277 0.514 0.84274 0.941 1.0685
3732.572 1.1745 1.0844 1.0756 1.2316 1.0873 0.964 1.002 0.9322 1.1381 1.014
3751.862 0.693 0.574 0.513 0.544 0.329 0.224 0.286 0.434 0.7083 0.925
3771.152 0.7196 0.79172 1.0391 0.9102 0.9753 0.9354 0.8152 0.9603 0.9595 0.87132
3790.441 0.81033 0.67 0.643 0.667 0.693 0.596 0.595 0.672 0.86643 1.0879
3809.731 0.67 0.365 0.611 0.7349 0.9216 1.0021 0.84059 0.786 0.9731 1.0044
3829.021 0.9211 0.9042 0.82432 1.0378 0.9843 0.7108 0.7457 0.7005 0.627 0.89012
3848.311 0.9885 0.908 1.0971 0.9127 0.8458 0.88227 0.588 0.627 0.9403 0.7345
3867.601 0.633 0.9231 0.89391 0.84495 0.89008 0.7819 0.772 0.7641 0.438 0.402
3886.890 0.9723 1.1714 0.669 0.489 0.87647 0.87147 0.671 0.9901 1.0468 0.9559
3906.180 1.132 1.1383 0.87654 0.81503 1.0226 1.0519 0.9269 0.689 0.7738 1.0731
3925.470 0.9564 0.6993 0.85017 0.9305 0.795357 0.682 0.576 0.614 0.391 0.257
3944.760 0.418 0.494 0.7534 0.9536 0.9176 0.84147 0.7139 0.9094 0.9285 0.7407
3964.049 0.494 0.443 0.508 0.672 0.81721 0.6977 0.83266 0.86698 0.9006 0.69
3983.339 0.377 0.456 0.595 0.777 0.9683 0.975 0.679 0.588 0.7794 0.418
##END=
