##TITLE=1,3,5-Cycloheptatriene
##JCAMP-DX=4.24
##DATA TYPE=INFRARED SPECTRUM
##ORIGIN=NIST Mass Spectrometry Data Center
##OWNER=NIST Standard Reference Data Program
Collection (C) 2018 copyright by the U.S. Secretary of Commerce
on behalf of the United States of America. All rights reserved.
##CAS REGISTRY NO=544-25-2
##MOLFORM=C 7 H 8
##$NIST SOURCE=MSDC-IR
##SPECTROMETER/DATA SYSTEM=HP-GC/MS/IRD
##STATE=gas
##XUNITS=1/CM
##YUNITS=ABSORBANCE
##XFACTOR=1.0
##YFACTOR=0.000002100
##DELTAX=4.0
##FIRSTX=550.0
##LASTX=3846.0
##FIRSTY=0.000708
##MAXX=3846
##MINX=550
##MAXY=0.021
##MINY=0
##NPOINTS=825
##XYDATA=(X++(Y..Y))
550.0 337 294 249 304 451 544 554 528 547 620
590.0 628 567 497 393 303 300 322 355 441 602
630.0 864 1164 1446 1658 1780 2133 3367 3591 2396 2114
670.0 2341 2496 2716 3200 3976 4803 5243 5552 6677 9846
710.0 10000 6776 6249 6727 6513 5884 5099 4445 3893 3433
750.0 2937 2281 1612 1113 774 547 472 425 357 386
790.0 348 305 302 261 240 188 164 153 151 154
830.0 136 112 118 122 118 126 125 138 134 114
870.0 106 108 118 158 220 244 241 288 368 397
910.0 345 324 349 343 315 290 282 273 232 190
950.0 161 133 117 106 86 77 76 71 77 90
990.0 101 131 161 197 227 245 263 253 242 221
1030.0 209 217 203 181 178 170 152 152 119 88
1070.0 77 31 21 36 32 41 54 43 29 29
1110.0 39 30 21 21 8 0 19 30 26 18
1150.0 14 39 44 41 41 59 88 108 115 119
1190.0 147 160 136 120 111 96 93 96 78 74
1230.0 92 91 72 66 65 72 83 69 51 54
1270.0 53 64 99 133 166 197 219 234 240 239
1310.0 222 189 144 103 76 54 59 70 77 96
1350.0 98 95 112 127 157 189 236 312 393 438
1390.0 454 470 465 444 440 428 391 391 436 470
1430.0 469 581 894 909 642 497 457 425 347 258
1470.0 192 156 125 109 97 103 108 103 114 118
1510.0 109 111 114 104 99 109 110 96 88 83
1550.0 77 70 66 59 60 73 97 114 146 187
1590.0 205 239 287 320 348 378 394 398 383 335
1630.0 283 253 229 225 221 218 236 259 295 326
1670.0 365 407 408 407 389 374 354 317 276 221
1710.0 176 159 165 181 209 237 257 287 326 340
1750.0 333 314 274 244 227 184 127 85 72 54
1790.0 44 57 55 58 57 55 58 62 83 91
1830.0 92 93 99 110 113 131 155 170 175 169
1870.0 162 161 158 159 161 153 146 148 141 134
1910.0 136 138 147 148 149 143 135 132 125 121
1950.0 107 86 69 61 59 58 62 60 52 44
1990.0 43 56 45 34 36 35 32 24 39 42
2030.0 35 35 35 38 35 33 35 29 31 39
2070.0 31 32 36 33 31 33 43 50 46 40
2110.0 41 41 34 31 27 28 29 30 34 38
2150.0 35 30 30 26 26 31 21 23 37 36
2190.0 37 46 51 55 56 49 44 41 37 58
2230.0 58 44 46 54 51 50 61 52 48 46
2270.0 36 41 50 40 35 46 52 55 50 46
2310.0 56 66 58 55 60 61 68 71 72 78
2350.0 88 85 63 66 79 73 82 81 84 95
2390.0 101 91 76 76 79 87 86 80 85 77
2430.0 70 76 69 66 72 64 62 65 59 61
2470.0 57 45 40 34 27 46 47 28 23 31
2510.0 42 33 36 45 48 43 44 46 37 39
2550.0 40 48 48 49 53 46 43 33 38 47
2590.0 51 45 31 40 52 41 21 21 37 43
2630.0 41 36 41 39 32 39 47 41 37 38
2670.0 36 40 44 50 53 60 65 54 44 48
2710.0 54 65 79 82 84 91 99 98 93 99
2750.0 105 113 111 106 86 91 112 119 137 144
2790.0 132 138 160 187 212 239 267 338 483 657
2830.0 864 1063 1197 1316 1697 2009 1619 1256 1249 1238
2870.0 1175 1123 1103 1079 1120 1337 1456 1127 830 763
2910.0 675 566 459 379 321 304 346 418 564 841
2950.0 1261 1784 2267 2588 2798 2976 3013 2918 2831 2585
2990.0 2237 2078 2265 2843 3798 5008 6342 7746 8920 9312
3030.0 9383 9559 9009 7901 6846 5654 4370 3319 2622 2139
3070.0 1783 1499 1217 959 754 583 446 334 269 230
3110.0 202 189 204 218 202 206 231 231 238 234
3150.0 226 213 202 188 179 164 150 142 125 101
3190.0 91 103 97 101 121 109 92 92 90 88
3230.0 89 92 74 60 64 67 64 48 51 59
3270.0 48 52 53 50 50 64 65 46 28 21
3310.0 37 59 70 58 39 41 55 57 49 49
3350.0 29 19 34 28 14 36 66 71 71 73
3390.0 65 47 51 40 39 47 56 61 64 57
3430.0 57 72 67 70 85 79 58 72 73 47
3470.0 56 71 53 26 33 70 83 63 67 80
3510.0 67 34 36 59 67 71 63 64 66 51
3550.0 48 36 31 74 78 47 62 77 66 56
3590.0 51 78 87 77 80 77 65 78 97 66
3630.0 59 72 87 104 105 85 55 81 106 108
3670.0 103 98 102 113 113 126 134 98 81 92
3710.0 103 109 102 74 82 106 85 76 102 119
3750.0 106 107 112 94 96 109 108 100 107 106
3790.0 101 100 105 109 97 108 115 109 110 132
3830.0 120 87 96 96 107
##END=
