##TITLE=Diethyl .alpha.-acetamido-.alpha.-(2-cyanoethyl)malonate
##JCAMP-DX=4.24
##DATA TYPE=INFRARED SPECTRUM
##ORIGIN=EPA-IR VAPOR PHASE LIBRARY
##OWNER=SRD/NIST
Collection (C) 2018 copyright by the U.S. Secretary of Commerce
on behalf of the United States of America. All rights reserved.
##CAS REGISTRY NO=5440-42-6
##MOLFORM=C 12 H 18 N 2 O 5
##$NIST SOURCE=MSDC-IR
##STATE=gas
##XUNITS=1/CM
##YUNITS=ABSORBANCE
##XFACTOR=1.
##YFACTOR=0.001
##DELTAX=1.929
##FIRSTX=549.8
##LASTX=4000.8
##FIRSTY=5.807
##MAXX=4000.75
##MINX=549.766
##MAXY=0.074287
##MINY=0
##NPOINTS=1790
##XYDATA=(X++(Y..Y))
549.766 5.807 5.357 5.367 4.987 4.527 4.207 3.877 3.847 3.967 3.667
569.056 3.497 3.537 3.507 3.387 3.337 3.197 3.067 3.017 2.687 2.637
588.346 2.847 2.937 2.827 2.847 2.917 2.827 2.657 2.447 2.457 2.437
607.636 2.247 2.227 2.187 2.017 1.977 1.967 1.957 2.077 2.247 2.267
626.926 2.097 1.967 1.867 1.907 1.977 1.857 1.897 1.967 1.847 1.707
646.216 1.787 2.037 2.047 2.037 2.017 1.947 1.917 2.007 2.037 1.937
665.506 2.127 2.187 2.127 2.417 2.527 2.497 2.647 2.597 2.577 2.617
684.796 2.577 2.537 2.437 2.377 2.237 2.167 2.117 1.967 1.857 1.857
704.086 1.747 1.627 1.687 1.617 1.517 1.417 1.347 1.2562 1.2163 1.2575
723.376 1.2672 1.1205 1.0486 1.2287 1.297 1.2225 1.247 1.347 1.437 1.527
742.666 1.547 1.627 1.757 1.807 1.827 1.947 2.057 2.117 2.227 2.247
761.956 2.227 2.197 2.187 2.177 2.177 2.177 2.317 2.437 2.557 2.757
781.246 2.847 2.917 2.907 2.817 2.847 2.877 2.767 2.627 2.547 2.407
800.536 2.277 2.307 2.297 2.117 2.077 2.197 2.147 2.137 2.197 2.157
819.826 2.097 2.107 2.217 2.307 2.387 2.417 2.577 2.747 2.767 2.997
839.116 3.377 3.727 4.127 4.647 5.377 6.207 7.027 7.927 8.767 9.497
858.406 9.927 9.967 9.737 9.137 8.287 7.327 6.437 5.707 4.937 4.317
877.696 3.847 3.447 3.147 2.887 2.657 2.477 2.467 2.467 2.407 2.427
896.986 2.557 2.717 2.787 2.887 3.037 3.107 3.147 3.147 3.117 3.137
916.276 3.267 3.277 3.237 3.217 3.147 3.127 3.077 3.037 2.967 2.937
935.566 2.987 2.957 2.917 2.987 3.047 3.037 3.047 3.127 3.257 3.387
954.856 3.577 3.827 4.147 4.537 4.937 5.267 5.567 5.797 5.967 6.107
974.146 6.157 6.117 6.087 6.067 6.137 6.257 6.367 6.567 6.857 7.157
993.436 7.527 8.107 8.767 9.537 10.497 11.707 13.037 14.577 16.267 18.017
1012.726 19.807 21.357 22.617 23.447 23.747 23.557 23.037 22.097 20.837 19.437
1032.016 17.977 16.557 15.167 13.927 13.007 12.377 12.037 12.127 12.437 12.867
1051.306 13.587 14.377 15.227 16.157 16.977 17.637 18.207 18.687 19.017 19.097
1070.596 19.157 19.287 19.387 19.577 19.837 20.167 20.757 21.637 22.617 23.527
1089.886 24.337 24.967 25.277 25.157 24.517 23.347 21.857 20.117 18.207 16.337
1109.176 14.677 13.227 11.987 10.917 10.047 9.487 9.097 8.797 8.597 8.477
1128.467 8.537 8.657 8.787 9.007 9.327 9.857 10.397 10.937 11.657 12.517
1147.757 13.537 14.597 15.787 17.167 18.587 20.087 21.677 23.287 24.797 26.167
1167.047 27.557 28.997 30.517 32.217 34.267 36.647 39.437 42.877 46.937 51.397
1186.337 56.217 61.147 65.727 69.747 72.717 74.197 74.287 73.387 71.657 69.447
1205.627 67.277 65.487 63.937 62.617 61.527 60.367 58.987 57.257 55.207 53.017
1224.917 50.867 48.937 47.547 46.837 46.857 47.427 48.227 49.167 49.957 50.237
1244.207 50.107 49.727 49.147 48.707 48.697 49.257 50.347 51.907 53.797 55.757
1263.497 57.507 58.807 59.557 59.667 59.237 58.447 57.387 56.237 55.067 53.807
1282.787 52.467 50.887 48.837 46.407 43.697 40.887 38.177 35.647 33.407 31.477
1302.077 29.727 27.947 26.177 24.507 22.837 21.117 19.457 17.907 16.417 15.157
1321.367 14.067 13.147 12.477 11.937 11.487 11.137 10.837 10.507 10.207 9.837
1340.657 9.517 9.367 9.267 9.287 9.427 9.677 9.977 10.427 11.097 12.007
1359.947 13.287 14.987 17.007 19.137 21.147 22.597 23.207 22.887 21.697 19.917
1379.237 17.777 15.647 13.867 12.547 11.597 10.867 10.337 9.977 9.717 9.527
1398.527 9.347 9.127 8.937 8.827 8.727 8.647 8.687 8.737 8.857 9.117
1417.817 9.447 9.887 10.457 11.167 12.037 13.027 14.067 15.087 16.087 17.017
1437.107 18.117 19.207 20.157 20.967 21.587 21.917 21.987 22.047 22.217 22.517
1456.397 23.197 24.317 25.737 27.647 30.057 32.827 35.877 39.117 42.397 45.747
1475.687 48.647 51.067 52.707 53.427 53.177 51.977 49.877 47.037 43.577 39.997
1494.977 36.327 32.627 29.257 26.237 23.697 21.507 19.487 17.737 16.287 14.967
1514.267 13.817 12.877 12.037 11.287 10.577 10.007 9.487 9.017 8.597 8.187
1533.557 7.777 7.367 7.027 6.677 6.407 6.147 5.857 5.597 5.357 5.147
1552.847 4.977 4.797 4.597 4.417 4.267 4.137 4.017 3.887 3.747 3.607
1572.137 3.517 3.467 3.397 3.357 3.307 3.207 3.137 3.037 2.987 2.957
1591.427 2.887 2.817 2.767 2.737 2.727 2.687 2.667 2.647 2.617 2.617
1610.717 2.637 2.647 2.637 2.657 2.697 2.707 2.767 2.807 2.837 2.867
1630.007 2.927 2.927 2.927 3.007 3.107 3.137 3.147 3.157 3.227 3.287
1649.297 3.357 3.437 3.527 3.707 3.837 3.967 4.117 4.317 4.517 4.657
1668.587 4.867 5.117 5.277 5.427 5.607 5.827 6.147 6.437 6.867 7.517
1687.877 8.287 9.287 10.577 12.327 14.967 18.527 23.427 30.657 38.737 48.327
1707.167 57.847 65.797 70.437 70.477 65.877 58.197 49.097 40.917 33.827 28.497
1726.457 25.047 23.187 22.457 22.887 24.657 27.617 31.967 38.207 45.517 53.617
1745.747 61.457 67.957 71.777 72.167 70.147 67.417 64.977 63.627 63.457 63.967
1765.037 63.777 62.407 60.097 56.657 51.237 45.077 39.097 33.467 28.207 23.577
1784.327 19.747 16.537 14.077 12.177 10.597 9.347 8.417 7.647 7.067 6.527
1803.617 6.057 5.627 5.277 4.967 4.647 4.407 4.167 3.947 3.747 3.567
1822.907 3.397 3.247 3.127 3.017 2.907 2.777 2.687 2.577 2.517 2.467
1842.197 2.347 2.217 2.187 2.167 2.087 2.007 1.947 1.887 1.837 1.837
1861.487 1.817 1.747 1.707 1.667 1.657 1.647 1.587 1.547 1.597 1.557
1880.777 1.477 1.437 1.397 1.337 1.2638 1.2481 1.2535 1.2184 1.1871 1.1902
1900.067 1.1925 1.1632 1.096 1.0734 1.0676 1.021 0.9903 0.9672 0.997 1.0159
1919.357 0.9701 0.9529 0.9248 0.9331 0.938 0.9118 0.9151 0.9196 0.9169 0.8915
1938.647 0.9221 0.9758 0.929 0.8674 0.89 0.8915 0.8517 0.8153 0.8089 0.83
1957.937 0.8155 0.8152 0.7857 0.766 0.7825 0.7719 0.7609 0.7563 0.7471 0.7601
1977.227 0.7838 0.7621 0.7614 0.778 0.762 0.7481 0.7396 0.7362 0.759 0.7286
1996.517 0.7082 0.7303 0.7315 0.7445 0.751 0.7349 0.6913 0.6902 0.7372 0.7611
2015.807 0.7882 0.7778 0.7479 0.7457 0.7373 0.7135 0.712 0.7479 0.7921 0.8021
2035.097 0.7938 0.7873 0.823 0.8402 0.8054 0.8349 0.8649 0.8409 0.8402 0.868
2054.387 0.8346 0.8499 0.8978 0.8347 0.7962 0.8062 0.7688 0.7819 0.8436 0.834
2073.677 0.7964 0.7709 0.7345 0.7549 0.7978 0.8208 0.7902 0.7354 0.7517 0.7822
2092.967 0.8036 0.8198 0.8017 0.748 0.7295 0.7323 0.7287 0.712 0.7109 0.7425
2112.257 0.7594 0.7832 0.7805 0.7655 0.7611 0.7564 0.7867 0.7546 0.7232 0.7409
2131.547 0.744 0.7399 0.7041 0.6991 0.7152 0.6626 0.6398 0.6783 0.6598 0.6634
2150.837 0.6812 0.6357 0.6142 0.6417 0.6849 0.674 0.6124 0.6185 0.6363 0.6041
2170.127 0.5672 0.5483 0.5489 0.5363 0.5468 0.5636 0.5332 0.5317 0.5395 0.5476
2189.417 0.555 0.5398 0.4807 0.4534 0.4947 0.4991 0.5114 0.5373 0.5281 0.5303
2208.707 0.5347 0.4853 0.4534 0.4579 0.4574 0.5226 0.5934 0.5571 0.5407 0.5696
2227.997 0.5924 0.6098 0.6012 0.6376 0.7519 0.903 0.9864 1.0577 1.1906 1.367
2247.287 1.477 1.477 1.477 1.457 1.377 1.2499 1.0714 0.9388 0.8507 0.7838
2266.577 0.7389 0.715 0.708 0.667 0.6224 0.5973 0.5523 0.5123 0.4949 0.4809
2285.868 0.5052 0.5402 0.5462 0.5142 0.5049 0.5517 0.5845 0.5738 0.5831 0.5706
2305.158 0.5538 0.6043 0.6017 0.5665 0.5725 0.5449 0.5281 0.5363 0.5067 0.531
2324.448 0.5625 0.5622 0.5414 0.5592 0.6121 0.5562 0.5275 0.5926 0.5809 0.5084
2343.738 0.5273 0.5635 0.5405 0.5058 0.5321 0.6184 0.6372 0.5796 0.5378 0.5431
2363.028 0.551 0.5462 0.5269 0.5699 0.618 0.5992 0.604 0.6253 0.6274 0.6245
2382.318 0.6396 0.6498 0.6611 0.6835 0.6751 0.6737 0.6559 0.6821 0.7219 0.6762
2401.608 0.6905 0.7021 0.692 0.713 0.6811 0.6694 0.6731 0.6527 0.6186 0.6131
2420.898 0.6598 0.6515 0.6329 0.6339 0.5725 0.521 0.5472 0.56 0.541 0.5429
2440.188 0.528 0.5301 0.5372 0.5247 0.5327 0.551 0.5153 0.5123 0.5425 0.471
2459.478 0.4793 0.4736 0.418 0.4324 0.5018 0.503 0.4801 0.4908 0.4389 0.4378
2478.768 0.4906 0.4663 0.4094 0.3875 0.36016 0.37081 0.35754 0.32515 0.36952 0.36907
2498.058 0.32794 0.29769 0.31763 0.35583 0.37488 0.3991 0.34758 0.32661 0.34025 0.35031
2517.348 0.37325 0.30178 0.2715 0.31709 0.32251 0.30885 0.294672 0.32453 0.32603 0.31368
2536.638 0.33087 0.31089 0.3008 0.36002 0.3928 0.35643 0.32892 0.32116 0.3233 0.33463
2555.928 0.33392 0.273 0.2392 0.2526 0.28587 0.31892 0.28199 0.2283 0.2565 0.2843
2575.218 0.292583 0.2654 0.2205 0.2422 0.2173 0.2284 0.245 0.2351 0.2494 0.2565
2594.508 0.2617 0.30488 0.33719 0.31793 0.30709 0.2715 0.266 0.30699 0.296605 0.31285
2613.798 0.34508 0.33746 0.31683 0.2694 0.2449 0.2516 0.288684 0.29977 0.29996 0.28383
2633.088 0.2302 0.2252 0.2459 0.28371 0.287355 0.2741 0.290323 0.2711 0.2558 0.2219
2652.378 0.186 0.1881 0.2208 0.2641 0.2632 0.2023 0.2014 0.232 0.25 0.28099
2671.668 0.31471 0.296949 0.2196 0.2433 0.2411 0.2155 0.2641 0.2148 0.171 0.21
2690.958 0.2058 0.2323 0.2797 0.2585 0.2715 0.2704 0.2323 0.2555 0.28351 0.30003
2710.248 0.291928 0.28037 0.2562 0.2649 0.2538 0.2292 0.2629 0.30716 0.33731 0.36751
2729.538 0.4079 0.3886 0.34702 0.4078 0.4155 0.34491 0.31871 0.3894 0.4858 0.4778
2748.828 0.4695 0.4456 0.3875 0.429 0.4647 0.3882 0.35051 0.37768 0.4078 0.4495
2768.118 0.4859 0.4957 0.5141 0.5262 0.4873 0.4606 0.5069 0.5573 0.585 0.5997
2787.408 0.5692 0.5577 0.575 0.5667 0.5044 0.469 0.5123 0.5455 0.6162 0.639
2806.698 0.617 0.6376 0.6323 0.6171 0.651 0.7014 0.7165 0.7061 0.734 0.825
2825.988 0.9493 0.9432 0.8724 0.9369 1.0126 1.0199 1.0571 1.1518 1.1798 1.2033
2845.278 1.2444 1.297 1.377 1.417 1.457 1.477 1.467 1.537 1.657 1.667
2864.568 1.737 1.927 1.987 2.037 2.217 2.337 2.537 2.807 3.037 3.247
2883.858 3.447 3.647 3.687 3.667 3.677 3.687 3.657 3.727 3.897 4.017
2903.148 4.187 4.407 4.627 4.847 5.067 5.227 5.337 5.407 5.477 5.547
2922.438 5.607 5.827 6.167 6.637 7.357 8.197 9.187 10.337 11.367 12.167
2941.728 12.867 13.257 13.157 12.667 11.837 10.847 9.867 9.067 8.597 8.467
2961.018 8.607 8.967 9.567 10.277 11.097 12.017 12.937 13.917 15.047 16.427
2980.308 17.827 19.227 20.477 21.187 21.257 20.617 19.417 17.867 16.247 14.657
2999.598 13.217 12.167 11.297 10.587 9.817 8.937 8.177 7.477 6.857 6.347
3018.888 5.827 5.267 4.757 4.467 4.217 3.817 3.537 3.317 3.077 2.887
3038.178 2.597 2.367 2.267 2.117 2.047 1.967 1.777 1.717 1.727 1.667
3057.468 1.587 1.467 1.397 1.397 1.307 1.2107 1.2166 1.2303 1.2379 1.1284
3076.758 1.0399 1.0422 1.0326 1.0465 1.0893 0.9853 0.9305 0.9033 0.8033 0.7853
3096.048 0.7874 0.8031 0.7235 0.6374 0.6976 0.7115 0.7003 0.6433 0.5735 0.5953
3115.338 0.5478 0.5505 0.6428 0.6 0.5828 0.6612 0.6109 0.5874 0.5356 0.4308
3134.628 0.3933 0.3913 0.394 0.4041 0.4407 0.4683 0.5007 0.4781 0.4368 0.4314
3153.918 0.4238 0.4307 0.4159 0.3924 0.4299 0.4232 0.34295 0.37097 0.418 0.4095
3173.208 0.35111 0.2417 0.1976 0.32083 0.4081 0.37641 0.35409 0.293235 0.2323 0.2374
3192.498 0.30639 0.33932 0.31725 0.2332 0.2067 0.2351 0.2228 0.2286 0.2299 0.2652
3211.788 0.33551 0.33949 0.3453 0.34801 0.2504 0.2207 0.29719 0.33576 0.31918 0.2279
3231.078 0.145 0.2693 0.30801 0.1923 0.18 0.1916 0.2083 0.2021 0.2206 0.2283
3250.368 0.2527 0.33415 0.31218 0.2373 0.31969 0.35041 0.175 0.091 0.2397 0.1879
3269.658 0.095 0.187 0.181 0.182 0.27822 0.30609 0.1928 0.089 0.087 0.1882
3288.948 0.2455 0.269 0.28047 0.2081 0.147 0.15 0.162 0.127 0.032 0.106
3308.238 0.28144 0.37801 0.36856 0.32348 0.2714 0.2512 0.29997 0.2736 0.36927 0.38234
3327.528 0.32265 0.4047 0.4229 0.35219 0.33368 0.37083 0.4144 0.4159 0.2765 0.2641
3346.818 0.3965 0.38223 0.36298 0.4256 0.4095 0.4259 0.5285 0.5428 0.424 0.4387
3366.108 0.5963 0.5901 0.556 0.6403 0.744 0.7757 0.8455 0.9543 0.9517 1.0175
3385.398 1.1221 1.1188 1.297 1.587 1.817 1.977 2.217 2.677 3.257 3.957
3404.688 4.827 5.827 7.067 8.587 9.997 11.267 12.407 13.167 13.507 13.587
3423.978 13.407 12.947 12.487 11.867 11.017 10.097 9.187 8.297 7.337 6.587
3443.269 5.787 5.017 4.517 4.007 3.627 3.327 3.137 3.077 3.157 3.247
3462.559 3.317 3.377 3.357 3.157 2.957 2.827 2.637 2.517 2.387 2.197
3481.849 1.967 1.787 1.647 1.417 1.317 1.317 1.1658 0.9882 0.9161 0.81
3501.139 0.7672 0.8826 0.9336 0.9021 0.8075 0.7823 0.8264 0.7873 0.7465 0.7954
3520.429 0.7603 0.6188 0.6839 0.712 0.6067 0.626 0.6394 0.6256 0.5864 0.5801
3539.719 0.6179 0.5543 0.5048 0.4536 0.4031 0.4071 0.399 0.3931 0.35836 0.2575
3559.009 0.34126 0.4762 0.4642 0.37986 0.264 0.2588 0.32148 0.34611 0.295185 0.2175
3578.299 0.264 0.398 0.35848 0.289502 0.2541 0.246 0.288845 0.28264 0.2029 0.2169
3597.589 0.28113 0.30005 0.30508 0.1928 0.067 0.084 0.2318 0.32597 0.36463 0.295636
3616.879 0.1962 0.159 0.142 0.184 0.2034 0.2664 0.2022 0.2526 0.33447 0.1887
3636.169 0.155 0.2583 0.293705 0.1922 0.182 0.2132 0.2137 0.17 0.158 0.092
3655.459 0.083 0.157 0.212 0.179 0.031 0.012 0.105 0.038 0 0.165
3674.749 0.294503 0.38166 0.32834 0.176 0.107 0.083 0.096 0.204 0.2725 0.28515
3694.039 0.2644 0.255 0.2548 0.2366 0.2742 0.28289 0.23 0.2479 0.295434 0.30009
3713.329 0.28946 0.2651 0.215 0.2061 0.2346 0.2354 0.2001 0.2371 0.288498 0.18
3732.619 0.152 0.2003 0.2045 0.2412 0.155 0.066 0.061 0.063 0.128 0.07
3751.909 0.095 0.1934 0.2093 0.1934 0.271 0.31655 0.177 0.1917 0.33684 0.34719
3771.199 0.2298 0.183 0.159 0.2177 0.295245 0.34146 0.35231 0.2692 0.2428 0.29947
3790.489 0.31864 0.2623 0.2293 0.2638 0.31301 0.295174 0.2513 0.2632 0.3178 0.2695
3809.779 0.1988 0.295712 0.34396 0.296331 0.31098 0.30372 0.192 0.2091 0.261 0.32189
3829.069 0.37492 0.291161 0.2495 0.2073 0.182 0.144 0.172 0.196 0.2512 0.36048
3848.359 0.37679 0.27719 0.126 0.103 0.28497 0.391 0.287248 0.28211 0.387 0.36223
3867.649 0.233 0.2701 0.35212 0.31401 0.30819 0.3241 0.32128 0.2754 0.2233 0.2319
3886.939 0.2337 0.2322 0.2297 0.28124 0.2578 0.2466 0.2709 0.28759 0.30061 0.294717
3906.229 0.3443 0.35361 0.28008 0.154 0.2272 0.32095 0.31386 0.3214 0.2706 0.292822
3925.519 0.34318 0.2386 0.2582 0.36361 0.31511 0.32422 0.4228 0.4573 0.4206 0.38655
3944.809 0.35324 0.286273 0.30752 0.35453 0.30229 0.2352 0.2659 0.4071 0.4246 0.4435
3964.099 0.4958 0.38089 0.31789 0.3789 0.44 0.34689 0.2571 0.294932 0.36757 0.3949
3983.389 0.4211 0.5098 0.4843 0.3902 0.45 0.4841 0.4372 0.28304 0.2373 0.3515
##END=
