##TITLE=2-Cyclohexyl-1-propanol
##JCAMP-DX=4.24
##DATA TYPE=INFRARED SPECTRUM
##ORIGIN=NIST Mass Spectrometry Data Center
##OWNER=NIST Standard Reference Data Program
Collection (C) 2018 copyright by the U.S. Secretary of Commerce
on behalf of the United States of America. All rights reserved.
##CAS REGISTRY NO=5442-00-2
##MOLFORM=C 9 H 18 O
##$NIST SOURCE=MSDC-IR
##SPECTROMETER/DATA SYSTEM=HP-GC/MS/IRD
##STATE=gas
##XUNITS=1/CM
##YUNITS=ABSORBANCE
##XFACTOR=1.0
##YFACTOR=0.000005900
##DELTAX=4.0
##FIRSTX=550.0
##LASTX=3846.0
##FIRSTY=0.000431
##MAXX=3846
##MINX=550
##MAXY=0.059
##MINY=0
##NPOINTS=825
##XYDATA=(X++(Y..Y))
550.0 73 44 25 23 37 49 48 43 49 54
590.0 50 53 40 31 41 43 45 50 49 49
630.0 43 37 35 32 27 24 22 23 27 24
670.0 11 2 8 12 1 8 11 10 14 16
710.0 17 15 18 16 10 10 6 7 12 19
750.0 26 20 15 13 17 24 22 24 30 26
790.0 18 15 15 21 23 25 29 37 48 56
830.0 59 66 82 96 116 135 139 135 123 115
870.0 113 115 132 159 185 198 198 192 178 166
910.0 162 161 169 177 186 198 207 205 201 198
950.0 197 206 236 278 322 369 407 443 479 525
990.0 596 691 802 937 1106 1316 1550 1764 1898 1934
1030.0 1889 1777 1659 1517 1330 1110 884 698 574 499
1070.0 447 406 377 348 323 314 304 289 277 268
1110.0 265 258 243 227 215 207 199 203 204 201
1150.0 202 205 202 200 200 196 195 200 207 216
1190.0 227 238 252 264 274 279 281 282 281 281
1230.0 279 274 273 276 275 281 291 303 319 324
1270.0 320 306 288 270 255 243 238 237 237 234
1310.0 228 230 234 240 247 255 266 280 296 309
1350.0 317 321 327 343 370 407 445 467 471 458
1390.0 424 379 331 280 236 202 182 171 165 174
1430.0 207 272 382 529 679 812 876 846 765 666
1470.0 568 475 394 320 251 192 145 109 86 72
1510.0 60 53 47 41 37 33 31 28 28 29
1550.0 26 22 21 20 22 20 18 19 15 11
1590.0 11 13 15 14 13 11 10 9 9 11
1630.0 10 8 10 11 11 10 10 11 11 10
1670.0 9 9 12 12 7 8 7 6 6 7
1710.0 6 5 2 2 3 2 2 4 4 3
1750.0 3 4 5 4 5 8 7 6 6 5
1790.0 3 4 2 3 5 5 3 3 1 2
1830.0 5 4 5 5 3 2 3 2 3 3
1870.0 2 3 5 6 4 3 6 5 3 3
1910.0 3 4 5 4 2 3 5 4 2 2
1950.0 5 9 11 10 9 8 7 6 6 5
1990.0 5 7 5 5 6 7 10 9 10 11
2030.0 15 17 13 13 13 12 12 11 11 10
2070.0 6 8 10 10 7 4 4 3 3 4
2110.0 3 4 2 0 1 3 1 2 1 2
2150.0 4 4 2 4 6 8 8 7 7 10
2190.0 12 12 12 8 4 7 10 10 9 10
2230.0 7 9 10 10 9 8 6 7 8 9
2270.0 7 5 6 8 8 5 5 8 5 1
2310.0 3 8 4 6 8 10 9 9 10 11
2350.0 13 15 13 13 17 19 15 15 18 15
2390.0 14 19 18 18 19 19 24 24 19 15
2430.0 17 18 13 12 15 14 12 10 12 13
2470.0 10 11 13 16 21 22 18 13 16 18
2510.0 16 14 15 15 18 24 24 23 23 22
2550.0 22 23 24 25 25 29 37 42 43 47
2590.0 54 59 63 65 65 66 68 66 66 69
2630.0 73 73 76 80 89 101 113 123 129 135
2670.0 138 136 131 125 120 114 108 107 110 110
2710.0 109 110 113 115 119 125 129 128 131 136
2750.0 141 149 152 159 165 174 191 200 212 226
2790.0 244 261 273 279 290 309 330 357 396 446
2830.0 516 621 792 1069 1496 2102 2817 3435 3777 3816
2870.0 3622 3305 3027 2857 2750 2676 2648 2710 2895 3238
2910.0 3782 4568 5625 6943 8386 9577 10000 9509 8364 6830
2950.0 5240 3947 3120 2655 2362 2125 1895 1649 1389 1124
2990.0 871 652 484 360 278 228 195 175 163 153
3030.0 136 125 118 108 99 91 87 86 82 78
3070.0 75 72 67 64 64 58 54 54 56 53
3110.0 51 50 46 42 41 41 41 44 51 53
3150.0 50 50 51 50 46 40 35 36 33 27
3190.0 28 31 32 31 29 25 22 19 20 17
3230.0 14 19 23 16 11 14 21 24 20 10
3270.0 7 12 8 6 5 8 12 10 12 16
3310.0 10 8 13 7 1 1 7 20 23 22
3350.0 24 24 23 21 21 23 23 21 17 17
3390.0 22 23 23 30 28 22 21 28 32 31
3430.0 36 37 34 32 28 28 27 30 35 35
3470.0 31 25 26 32 32 33 32 31 34 33
3510.0 31 32 30 24 20 22 28 27 25 26
3550.0 28 29 24 21 26 31 26 26 30 32
3590.0 35 36 29 27 33 38 44 48 52 58
3630.0 63 79 100 128 171 221 279 348 413 454
3670.0 467 434 366 284 209 151 112 91 79 66
3710.0 55 55 57 49 44 46 42 42 41 42
3750.0 42 45 52 50 46 46 48 48 45 41
3790.0 41 39 41 46 51 49 41 40 39 40
3830.0 47 51 53 54 54
##END=
