##TITLE=1-Propylcyclohexanol
##JCAMP-DX=4.24
##DATA TYPE=INFRARED SPECTRUM
##ORIGIN=NIST Mass Spectrometry Data Center
##OWNER=NIST Standard Reference Data Program
Collection (C) 2018 copyright by the U.S. Secretary of Commerce
on behalf of the United States of America. All rights reserved.
##CAS REGISTRY NO=5445-24-9
##MOLFORM=C 9 H 18 O
##$NIST SOURCE=MSDC-IR
##SPECTROMETER/DATA SYSTEM=HP-GC/MS/IRD
##STATE=gas
##XUNITS=1/CM
##YUNITS=ABSORBANCE
##XFACTOR=1.0
##YFACTOR=0.000005000
##DELTAX=4.0
##FIRSTX=550.0
##LASTX=3846.0
##FIRSTY=0.000245
##MAXX=3846
##MINX=550
##MAXY=0.05
##MINY=0
##NPOINTS=825
##XYDATA=(X++(Y..Y))
550.0 49 55 58 49 48 38 20 16 14 14
590.0 25 23 26 40 38 35 45 38 29 26
630.0 26 27 16 11 32 41 34 21 10 24
670.0 29 9 13 30 29 37 41 29 21 27
710.0 46 61 72 72 69 72 74 75 75 72
750.0 66 57 51 50 50 56 71 78 74 76
790.0 79 79 77 64 62 67 75 95 116 149
830.0 185 207 225 250 275 292 306 313 306 273
870.0 247 235 222 217 211 211 217 216 220 229
910.0 241 252 254 260 273 296 325 372 452 566
950.0 697 836 969 1069 1115 1068 924 735 556 402
990.0 289 226 196 195 217 241 281 329 354 363
1030.0 364 353 334 311 294 273 252 251 250 246
1070.0 243 242 255 276 301 333 375 416 459 501
1110.0 531 556 584 602 625 647 663 679 698 726
1150.0 743 747 747 743 719 671 604 526 450 387
1190.0 339 316 312 312 318 338 359 376 393 404
1230.0 420 430 437 455 476 494 507 514 515 504
1270.0 482 461 440 420 402 383 368 354 340 330
1310.0 329 332 332 333 341 350 365 376 388 396
1350.0 402 406 407 414 421 425 422 414 405 385
1390.0 355 318 281 252 232 224 224 231 250 291
1430.0 357 454 569 689 811 912 967 963 900 791
1470.0 667 533 401 293 213 165 133 109 94 85
1510.0 78 67 63 63 59 55 53 53 52 49
1550.0 45 46 44 37 34 32 30 28 25 28
1590.0 30 27 25 26 25 21 18 22 23 21
1630.0 20 19 18 21 24 23 21 18 17 19
1670.0 20 20 17 16 15 10 10 12 15 12
1710.0 8 10 14 12 10 11 10 9 9 8
1750.0 12 13 12 13 11 11 9 12 13 14
1790.0 13 10 11 14 10 7 9 8 7 7
1830.0 4 2 2 4 8 5 1 4 8 8
1870.0 5 3 6 7 6 7 6 6 5 5
1910.0 5 4 9 10 8 6 6 8 6 2
1950.0 2 4 3 2 3 3 4 5 6 7
1990.0 6 6 6 2 1 2 0 2 4 3
2030.0 2 4 6 5 6 8 5 3 3 4
2070.0 7 8 9 7 8 8 7 8 7 7
2110.0 7 5 5 5 5 6 5 5 6 5
2150.0 6 8 12 12 10 11 12 15 15 16
2190.0 15 15 18 17 12 14 16 17 16 12
2230.0 13 16 12 9 8 9 9 9 13 13
2270.0 13 15 17 20 17 15 17 17 14 13
2310.0 15 12 11 15 17 19 16 17 19 21
2350.0 21 20 21 22 21 18 17 18 17 18
2390.0 18 17 17 17 19 19 17 15 16 16
2430.0 14 14 12 11 10 13 11 5 8 10
2470.0 9 9 12 13 12 13 15 17 17 14
2510.0 13 14 15 16 15 16 15 13 19 22
2550.0 20 17 18 23 24 26 27 28 33 38
2590.0 41 41 44 42 46 52 52 51 54 59
2630.0 64 66 65 71 85 93 95 100 106 109
2670.0 110 111 108 101 94 87 86 88 86 82
2710.0 82 83 84 87 85 91 99 106 113 114
2750.0 112 115 116 120 129 134 143 154 167 174
2790.0 183 198 210 225 236 253 279 311 349 402
2830.0 489 619 794 1022 1303 1648 2016 2336 2576 2710
2870.0 2756 2745 2673 2549 2425 2316 2252 2285 2449 2732
2910.0 3128 3661 4373 5334 6569 7957 9227 10000 9922 8985
2950.0 7535 6024 4838 4086 3581 3111 2585 2009 1470 1058
2990.0 780 604 494 415 358 321 295 270 249 237
3030.0 225 212 201 188 173 161 152 143 134 122
3070.0 111 104 96 90 86 82 79 82 79 72
3110.0 65 63 62 62 63 62 54 54 61 58
3150.0 56 52 48 46 41 39 37 34 35 33
3190.0 32 31 29 29 25 26 29 35 33 28
3230.0 25 23 28 28 24 23 24 25 24 22
3270.0 17 15 15 17 21 17 14 17 11 7
3310.0 11 10 3 5 8 13 11 12 13 12
3350.0 14 18 20 19 18 19 22 27 25 21
3390.0 24 25 24 22 25 31 26 22 30 33
3430.0 30 30 28 23 24 27 26 21 17 14
3470.0 11 7 9 11 10 12 20 20 14 13
3510.0 10 8 7 6 8 10 14 16 15 11
3550.0 6 6 7 10 16 14 12 12 11 14
3590.0 16 20 25 26 32 49 65 88 128 174
3630.0 221 252 271 263 233 192 151 116 83 58
3670.0 45 38 32 28 25 22 18 18 18 16
3710.0 22 27 23 21 22 21 23 21 24 28
3750.0 26 21 16 20 27 27 23 24 26 26
3790.0 29 29 30 34 34 32 30 29 28 29
3830.0 30 30 32 32 32
##END=
