##TITLE=5-Chloro-1,3-dimethylpyrazole
##JCAMP-DX=4.24
##DATA TYPE=INFRARED SPECTRUM
##ORIGIN=EPA-IR VAPOR PHASE LIBRARY
##OWNER=SRD/NIST
Collection (C) 2018 copyright by the U.S. Secretary of Commerce
on behalf of the United States of America. All rights reserved.
##CAS REGISTRY NO=54454-10-3
##MOLFORM=C 5 H 7 Cl N 2
##$NIST SOURCE=MSDC-IR
##STATE=gas
##XUNITS=1/CM
##YUNITS=ABSORBANCE
##XFACTOR=1.
##YFACTOR=0.001
##DELTAX=1.92898
##FIRSTX=549.8
##LASTX=4000.7
##FIRSTY=1.3089
##MAXX=4000.7
##MINX=549.759
##MAXY=0.14723
##MINY=0
##NPOINTS=1790
##XYDATA=(X++(Y..Y))
549.759 1.3089 0.99455 0.413 0 0.056 0.638 1.1653 0.733 0.9113 1.463
569.049 1.2161 0.514 0.535 0.731 0.9276 1.3829 1.3618 1.2692 1.6032 1.805
588.339 1.6748 1.99 2.26 2.02 1.7469 1.8653 2.51 3.14 3.96 4.36
607.628 4.33 5.03 6 7.21 8.64 9.96 10.89 11.24 12.06 12.45
626.918 12.28 12.01 10.97 10.66 10.98 10.75 10.24 9.15 7.9 6.55
646.208 5.24 4.6 4.27 3.96 4.07 3.83 3.54 4.19 4.36 3.42
665.498 2.7 2.58 2.57 2.42 2.09 2.04 1.95 1.6208 1.3849 1.2567
684.787 1.2469 1.3174 0.98451 0.578 0.736 0.894 1.1989 1.201 0.796 0.9288
704.077 1.3188 1.5423 1.6342 1.3178 0.8832 1.2372 1.7491 1.5412 1.588 1.7176
723.367 1.5082 1.7631 2.22 2.47 2.6 3.04 3.85 4.45 5.32 6.54
742.657 8.19 10.62 13.19 16.03 19.33 22.72 26.43 30.11 33.4 36.17
761.947 38.89 41.88 45.7 52.56 68.65 77.28 60.81 45.1 39.89 37.28
781.236 35.32 32.47 29.26 25.55 21.93 18.63 15.58 12.97 10.61 8.51
800.526 7.4 6.68 5.65 5.21 4.48 3.6 3.19 2.79 2.38 2.09
819.816 2.18 2.32 2.41 2.28 2 2 1.99 1.8548 1.9296 1.7474
839.106 1.3597 1.0511 0.8539 0.602 0.697 0.8877 1.0895 1.3089 1.0418 0.8984
858.395 1.1638 1.2752 1.3064 1.3902 1.2555 1.126 1.1372 0.9224 1.1056 1.5492
877.685 1.3632 1.2525 1.2666 1.2048 1.234 1.4535 1.6207 1.7516 1.7732 1.4982
896.975 1.7899 2.29 1.9252 1.6366 1.7572 1.8542 2.16 2.14 2.07 2.13
916.265 1.94 1.9141 1.8149 1.6882 1.8399 1.9206 2.17 2.43 2.4 2.66
935.555 3.1 2.96 3.15 3.6 3.76 3.76 3.95 4.4 4.34 4.32
954.844 4.34 4.57 5.05 5.4 6.14 6.78 6.86 7.07 7.77 8.59
974.134 9.54 10.79 12.29 13.56 14.96 16.85 18.74 20.67 22.49 23.87
993.424 24.67 24.33 23.44 23.07 23.35 24.21 24.05 22.02 19.25 16.72
1012.714 13.97 11.6 9.66 7.98 7 6.39 6.08 5.6 5.25 5.77
1032.003 6.35 6.49 6.72 6.58 7.03 7.08 6.5 7.04 7.92 8.97
1051.293 10.02 11.2 13.29 15.13 17.05 19.72 22.75 26.34 29.42 31.74
1070.583 33.67 35.18 35.79 35.93 36.37 36.17 34.21 31.95 30.3 28.04
1089.873 24.12 21.41 19.84 17.53 15.71 14.07 12.73 11.59 11.49 11.78
1109.163 11.41 9.91 8.13 7.53 6.75 5.03 3.9 3.6 3.98 4.36
1128.452 3.75 3.15 3.49 4 4.24 5 4.84 3.93 4.42 5.22
1147.742 5.93 7.09 8.06 8.53 8.58 8.34 8.44 8.24 8.44 8.67
1167.032 8.35 8.15 7.27 6.26 5.59 5.18 4.37 3.67 3.98 4.31
1186.322 4.42 5 5.28 4.26 3.2 3.62 4.1 4.23 4.1 3.54
1205.611 3.62 3.65 3.55 4.2 4.3 4.19 5.84 6.51 6.03 5.88
1224.901 6.75 7.92 8.36 9.37 9.64 9.38 9.39 10.5 12.04 12.64
1244.191 12.84 13.09 13.64 14.32 15.33 15.85 16.76 17.91 18.66 20.27
1263.481 21.12 21.48 22.23 22.69 23.31 23.72 23.64 23.31 22.68 21.51
1282.771 20.58 19.85 18.88 17.47 15.95 14.86 13.42 12.11 11.23 10.51
1302.060 10.16 9.95 9.74 9.61 9.74 9.98 10.04 10.06 10.17 10.32
1321.350 10.48 10.55 10.57 10.65 10.8 11.04 11.44 11.96 12.82 14.05
1340.640 15.67 17.82 20.67 24.29 28.65 33.9 39.84 46.12 52.34 58.15
1359.930 63.23 67.55 71.3 74.65 77.6 79.51 79.7 78.64 76.83 73.92
1379.219 70.27 67.21 64.84 62.11 58.85 55.68 53.15 51.31 49.75 48.41
1398.509 46.89 45.01 42.92 40.72 38.59 36.39 34.56 33.22 32.19 31.43
1417.799 30.74 30 29.06 28.12 27.4 26.83 26.59 26.74 27 27.75
1437.089 29 30.51 32.37 34.54 37.15 39.92 43.1 46.89 50.6 53.8
1456.378 56.81 59.74 62.46 64.76 66.49 67.57 67.6 66.73 65.27 63.13
1475.668 60.48 57.21 53.49 49.58 46.01 43.33 41.94 42.05 43.68 46.89
1494.958 51.47 57.55 65.04 73.76 83.37 93.47 104.03 114.34 123.74 132.24
1514.248 139.47 144.6 147.23 147.03 144.06 138.6 130.7 121.42 111.36 100.41
1533.538 89.16 77.76 66.35 55.73 46.9 40.03 34.78 30.97 28.18 25.77
1552.827 23.58 21.76 20.31 19.17 18.09 16.89 15.85 14.94 13.94 12.84
1572.117 11.95 11.05 10.14 9.51 9.05 8.7 8.16 7.53 7.14 6.82
1591.407 6.7 6.56 6.26 5.97 5.79 5.64 5.52 5.47 5.25 4.89
1610.697 4.65 4.64 4.72 4.68 4.52 4.58 4.57 4.32 4.19 4.03
1629.986 3.96 3.94 3.82 3.72 3.62 3.49 3.37 3.26 3.13 2.99
1649.276 2.81 2.81 2.76 2.58 2.6 2.5 2.36 2.36 2.29 2.38
1668.566 2.33 2.06 2.05 2.13 2.14 2 2.04 2.09 2.01 2.06
1687.856 2.15 2.21 2.19 2.23 2.26 2.34 2.23 2.05 2.08 2.04
1707.146 2.02 2.14 2.08 1.8737 1.94 2 1.8234 1.7967 1.8561 1.805
1726.435 1.7567 1.7647 1.7682 1.7135 1.6902 1.6918 1.7462 1.7308 1.6314 1.6056
1745.725 1.6816 1.727 1.6724 1.6338 1.673 1.658 1.624 1.5233 1.3687 1.3468
1765.015 1.3995 1.483 1.4792 1.3725 1.3134 1.355 1.4181 1.4617 1.397 1.3573
1784.305 1.4114 1.3662 1.3057 1.3377 1.2214 1.2213 1.317 1.22 1.1302 1.1561
1803.594 1.2604 1.2362 1.2347 1.2707 1.2612 1.307 1.3505 1.4026 1.4789 1.4559
1822.884 1.4571 1.5113 1.5808 1.5945 1.5112 1.4184 1.4388 1.4999 1.3461 1.2627
1842.174 1.2535 1.2775 1.3172 1.2879 1.3266 1.3353 1.3741 1.3129 1.2051 1.132
1861.464 1.0925 1.1459 1.1991 1.3002 1.2555 1.1552 1.228 1.2847 1.2238 1.1635
1880.754 1.2307 1.3206 1.3017 1.3108 1.364 1.3909 1.2969 1.2693 1.2943 1.3301
1900.043 1.3345 1.2824 1.2956 1.2677 1.3484 1.4268 1.4024 1.3685 1.364 1.3768
1919.333 1.3768 1.4527 1.3905 1.3037 1.2792 1.1865 1.2307 1.1485 1.1353 1.241
1938.623 1.1581 1.2158 1.3401 1.3105 1.305 1.2715 1.3332 1.4971 1.4375 1.3472
1957.913 1.3246 1.4786 1.4846 1.3563 1.4909 1.4918 1.474 1.4331 1.3048 1.3059
1977.202 1.3689 1.4805 1.5507 1.4374 1.5169 1.5535 1.5007 1.5938 1.6104 1.5131
1996.492 1.426 1.5785 1.6567 1.6313 1.5701 1.4767 1.4759 1.5464 1.6083 1.5279
2015.782 1.4371 1.4952 1.6257 1.5919 1.4135 1.4011 1.3485 1.2077 1.3225 1.4949
2035.072 1.5746 1.5601 1.41 1.3155 1.3503 1.3811 1.2812 1.3607 1.3816 1.2988
2054.362 1.3745 1.3424 1.3444 1.3409 1.4112 1.4075 1.3357 1.3328 1.3084 1.3635
2073.651 1.3255 1.3206 1.3429 1.2061 1.1239 1.0732 1.1465 1.3057 1.2513 1.1025
2092.941 1.1305 1.2417 1.2708 1.3241 1.2391 1.1254 1.2497 1.2293 1.1177 1.214
2112.231 1.2375 1.288 1.3519 1.2237 1.2494 1.3318 1.3398 1.3371 1.2776 1.2755
2131.521 1.3249 1.3234 1.3162 1.3477 1.4135 1.3731 1.3212 1.3456 1.2482 1.2227
2150.810 1.2221 1.2619 1.3582 1.2386 1.2078 1.3796 1.4014 1.3179 1.1913 1.1267
2170.100 1.2012 1.1564 1.1613 1.3443 1.4847 1.4935 1.3258 1.143 1.1043 1.1552
2189.390 1.2708 1.2637 1.245 1.3651 1.3982 1.3615 1.2409 1.2187 1.2464 1.3053
2208.680 1.3347 1.3509 1.4511 1.4584 1.4216 1.3491 1.3555 1.5563 1.6415 1.4041
2227.970 1.3859 1.557 1.5892 1.5314 1.4798 1.6264 1.7431 1.5675 1.3689 1.4351
2247.259 1.5324 1.5279 1.4477 1.3891 1.4899 1.6209 1.4085 1.1398 1.3137 1.4882
2266.549 1.4248 1.4584 1.4653 1.346 1.428 1.4983 1.4795 1.4201 1.4002 1.4306
2285.839 1.4501 1.5023 1.4999 1.4846 1.446 1.4085 1.3851 1.425 1.4617 1.4605
2305.129 1.4275 1.3742 1.4895 1.6595 1.6436 1.5001 1.3482 1.3726 1.499 1.5685
2324.418 1.609 1.5818 1.4182 1.3208 1.3641 1.4313 1.4738 1.3837 1.3494 1.3653
2343.708 1.3863 1.4468 1.513 1.4526 1.3809 1.3666 1.3713 1.4304 1.3955 1.3742
2362.998 1.4956 1.5286 1.4263 1.5252 1.5494 1.5845 1.6248 1.5008 1.3535 1.2735
2382.288 1.4389 1.5137 1.5584 1.5376 1.4299 1.51 1.5533 1.5783 1.6836 1.7026
2401.578 1.6284 1.6002 1.6441 1.6777 1.645 1.6041 1.5479 1.615 1.7789 1.8714
2420.867 1.8024 1.6484 1.5372 1.5677 1.567 1.6616 1.6639 1.52 1.6248 1.6279
2440.157 1.6054 1.5643 1.4115 1.3523 1.3807 1.3037 1.3078 1.4579 1.3608 1.3493
2459.447 1.3838 1.4083 1.4899 1.3499 1.4819 1.6503 1.5771 1.4949 1.3895 1.4428
2478.737 1.5586 1.6487 1.6478 1.5978 1.6497 1.7799 1.9028 1.96 1.9176 1.8521
2498.026 1.9203 1.873 1.7904 1.9097 1.9061 1.8764 2.09 2.15 2.01 2
2517.316 1.8506 1.8985 1.99 1.7857 1.8398 2.02 2.02 1.97 1.8828 1.792
2536.606 1.7866 1.9063 1.8673 2 2.15 2.05 2.05 2.01 1.8992 1.8914
2555.896 1.95 1.8501 1.8484 1.8745 1.8892 1.95 1.8192 1.8344 1.95 1.7959
2575.186 1.7526 1.7896 1.95 2.05 1.8419 1.8718 1.6808 1.5832 1.8202 1.7015
2594.475 1.7668 1.8459 1.6867 1.6493 1.6631 1.6651 1.5334 1.5133 1.6449 1.7217
2613.765 1.7292 1.8351 2.05 1.98 1.9057 2.02 2.01 1.9214 1.8126 1.99
2633.055 2.15 2.04 1.97 1.9245 1.97 2.03 2.08 2.11 1.9279 1.8441
2652.345 1.9156 1.8649 1.94 2.05 1.99 1.94 2.05 2 1.95 2.01
2671.634 2.09 2.11 2.08 2.05 2.02 2.17 2.12 1.9053 1.8859 1.917
2690.924 2 2.22 2.07 1.99 2.08 2.07 2.07 2.1 2.25 2.2
2710.214 2.32 2.51 2.51 2.66 2.71 2.66 2.56 2.69 2.85 2.73
2729.504 2.87 3.13 3.12 3.18 3.37 3.48 3.41 3.24 3.12 3.14
2748.794 3.27 3.08 2.98 3 3.02 3.07 2.89 2.68 2.77 2.94
2768.083 2.9 3.12 3.28 3.22 3.35 3.47 3.57 3.79 4.08 4.33
2787.373 4.45 4.59 4.72 4.79 4.84 5.1 5.49 5.53 5.62 6.05
2806.663 6.22 6.12 6.17 6.37 6.6 6.6 6.57 6.61 6.55 6.69
2825.953 6.78 6.9 7.1 7.14 7.23 7.2 7.37 7.63 7.79 8.04
2845.242 8.15 8.31 8.68 9.1 9.35 9.95 10.77 11.37 12.05 12.74
2864.532 13.6 14.63 15.58 16.56 17.61 18.21 18.76 19.29 19.84 20.62
2883.822 21.12 21.22 21.32 21.47 21.49 21.52 21.6 21.68 21.79 21.89
2903.112 21.85 21.83 21.92 22.17 22.7 23.16 23.76 24.85 26.26 28.16
2922.401 30.6 33.76 37.26 40.87 44.82 48.99 52.74 55.83 58.59 61.17
2941.691 63.5 65.43 67.02 67.97 67.9 66.72 64.81 62.48 60.05 57.76
2960.981 55.66 53.69 51.54 48.96 45.49 41.55 37.67 34.22 31.14 28.47
2980.271 26.35 24.46 22.83 21.35 20.03 18.92 17.88 17.13 16.19 14.84
2999.561 14.02 13.72 13.28 12.87 12.41 11.82 11.28 10.68 10.34 10.32
3018.850 10.37 10.41 10.36 10.49 10.75 10.93 10.98 11.47 12.11 12.07
3038.140 12.07 12.17 12.41 12.63 12.62 12.5 12.09 11.65 11.55 11.34
3057.430 11.14 11.26 11.08 10.75 10.43 10.24 10.19 9.9 9.35 8.93
3076.720 8.6 8.08 7.39 6.77 6.02 5.54 5.58 5.3 4.86 4.28
3096.009 3.79 3.85 3.73 3.43 3.28 3.04 2.94 3.13 3.07 3
3115.299 2.98 3.01 2.94 2.76 2.75 2.83 2.86 2.75 2.47 2.54
3134.589 2.68 2.4 2.37 2.34 2.31 2.28 2.01 1.7667 1.7562 1.99
3153.879 2.09 1.96 1.8215 1.5854 1.4111 1.3185 1.2385 1.181 1.165 1.3675
3173.169 1.4734 1.4694 1.651 1.6624 1.4962 1.3323 1.2236 1.2706 1.2386 1.2458
3192.458 1.2685 1.2989 1.1743 1.1474 1.3615 1.3331 1.2099 0.97481 0.799 0.9272
3211.748 0.98534 1.0483 1.2325 1.1394 0.9134 1.00469 0.8985 0.736 0.8809 0.96208
3231.038 1.1067 1.1783 1.2754 1.1869 0.756 0.772 1.0411 1.02801 1.1195 0.95065
3250.328 0.837 1.0467 0.9192 0.869 0.832 0.634 0.616 0.81 1.1434 1.3587
3269.617 1.0923 0.95922 1.1134 0.95449 0.832 0.832 1.1666 1.1762 0.9287 0.93608
3288.907 0.95866 1.0577 0.8649 1.03176 1.1858 1.0638 1.1566 1.1189 0.97496 1.1413
3308.197 1.0431 0.9268 1.1855 1.0864 0.96375 1.0686 1.187 1.2516 1.1244 0.941828
3327.487 0.787 0.534 0.562 0.793 0.948286 1.0481 1.02821 0.825 0.802 0.93571
3346.777 1.00602 1.0948 0.99453 0.869 0.847 0.93015 0.8946 0.719 0.777 0.9146
3366.066 0.97966 0.8442 0.763 0.836 0.95344 1.1979 1.1686 1.0271 1.0825 1.0769
3385.356 1.01967 0.8747 0.8424 1.0924 1.2958 1.1585 1.1196 1.1034 1.0729 0.773
3404.646 0.513 0.599 0.643 0.639 0.746 0.97637 0.98844 0.9004 0.9202 0.96742
3423.936 1.01156 0.804 0.822 1.046 1.0427 0.9113 0.943083 1.00047 0.826 1.0497
3443.225 1.0727 1.03358 1.0453 0.798 0.8434 1.01563 0.632 0.521 0.729 0.67
3462.515 0.732 0.892 0.787 0.8833 1.0574 1.01566 0.97934 0.791 0.8916 0.97808
3481.805 0.9162 0.947056 1.02516 1.03299 0.896 0.9027 0.97691 0.778 0.784 0.9156
3501.095 0.809 0.797 0.9042 0.84 0.627 0.8923 1.1744 0.734 0.726 0.8994
3520.385 0.649 0.757 0.93411 1.0403 0.8785 0.771 0.98425 0.95101 0.562 0.475
3539.674 0.727 0.95291 1.0421 1.0524 1.16 1.2702 1.216 1.0596 0.807 0.732
3558.964 0.741 0.591 0.655 0.768 0.8468 0.9551 0.72 0.673 0.772 0.791
3578.254 1.0484 1.0715 0.99496 1.01734 1.1126 0.9271 0.716 0.824 0.9892 1.0482
3597.544 0.792 0.76 0.807 0.8457 0.96279 0.9246 1.1785 1.2836 1.01018 0.97525
3616.833 1.0012 1.01328 0.99858 0.793 0.857 1.00022 0.95291 0.9983 1.075 1.0129
3636.123 1.0365 0.9266 0.767 0.918 1.03636 1.0603 1.1704 1.00606 0.682 0.625
3655.413 0.8634 0.9153 0.795 0.8553 1.242 1.1929 0.97015 0.8994 1.0714 1.131
3674.703 0.606 0.566 0.541 0.734 1.161 1.1431 1.01535 0.9144 1.02187 1.2033
3693.993 1.1193 1.2949 1.2379 0.9045 0.744 0.547 0.8782 1.0372 1.02609 1.1422
3713.282 1.16 1.2892 1.1713 1.0562 0.9892 0.99634 1.1046 1.044 0.95071 0.752
3732.572 0.766 1.02495 1.02424 0.95847 1.0485 0.9163 0.728 0.9107 0.835 0.666
3751.862 0.777 0.498 0.713 1.1253 0.756 0.582 0.639 0.9203 1.3221 1.2134
3771.152 1.0692 1.02553 0.813 1.2034 1.3867 0.7 0.618 0.8944 0.837 0.657
3790.441 0.747 0.95729 0.719 0.652 0.755 0.8572 0.95324 0.98358 1.01847 0.9139
3809.731 0.8666 0.99066 1.0886 1.0644 0.942341 0.773 0.734 0.603 0.572 0.72
3829.021 0.944329 0.776 0.422 0.725 0.68 0.627 1.01785 1.132 1.00228 0.9119
3848.311 0.941023 1.01587 0.96169 0.8936 0.707 0.651 0.699 0.627 0.93081 1.1843
3867.601 1.3622 1.2837 1.1982 1.0808 0.95968 0.98063 0.8776 1.0514 1.1327 0.97086
3886.890 1.0143 1.229 1.4134 1.2709 1.4217 1.5287 1.3076 1.1466 0.8917 1.0618
3906.180 1.3271 1.3917 1.2113 1.1309 1.2972 1.2839 1.01059 1.236 1.4933 1.2102
3925.470 1.12 1.0866 1.1719 1.3964 1.3226 1.1043 1.03726 1.0858 1.0767 1.00302
3944.760 1.0914 1.1819 1.2163 1.3084 1.386 1.1133 0.819 0.793 0.828 1.00524
3964.049 1.1914 1.0736 1.0645 1.2533 1.1558 1.1546 1.03318 0.94732 1.1484 1.2652
3983.339 1.1791 1.4395 1.5118 1.311 1.36 1.1737 1.2466 0.97072 0.8423 1.1111
##END=
