##TITLE=Ethyl-p-nitrophenylacetate
##JCAMP-DX=4.24
##DATA TYPE=INFRARED SPECTRUM
##ORIGIN=EPA-IR VAPOR PHASE LIBRARY
##OWNER=SRD/NIST
Collection (C) 2018 copyright by the U.S. Secretary of Commerce
on behalf of the United States of America. All rights reserved.
##CAS REGISTRY NO=5445-26-1
##MOLFORM=C 10 H 11 N O 4
##$NIST SOURCE=MSDC-IR
##STATE=gas
##XUNITS=1/CM
##YUNITS=ABSORBANCE
##XFACTOR=1.
##YFACTOR=0.001
##DELTAX=3.85796
##FIRSTX=501.5
##LASTX=4000.7
##FIRSTY=1.276
##MAXX=4000.7
##MINX=501.534
##MAXY=0.094476
##MINY=0
##NPOINTS=908
##XYDATA=(X++(Y..Y))
501.534 1.276 0.7885 0.5752 0.4885 0.2794 0.2132 0.34148 0.3469 0.255624 0.1758
540.114 0.2015 0.3421 0.4727 0.5194 0.6096 0.7163 0.9135 1.256 1.576 1.906
578.693 2.196 2.336 2.286 2.136 1.866 1.566 1.346 1.306 1.266 1.1493
617.273 1.0182 0.9142 0.8652 0.9457 1.0824 1.286 1.606 1.946 2.296 2.606
655.852 2.836 2.886 2.886 2.956 3.016 3.186 3.476 3.656 3.756 3.956
694.432 4.246 4.736 5.566 6.726 8.236 10.026 11.776 12.966 13.166 12.286
733.011 10.646 8.856 7.336 6.266 5.726 5.556 5.516 5.446 5.216 4.886
771.591 4.546 4.316 4.206 4.256 4.396 4.716 5.206 5.736 6.406 7.386
810.170 8.586 9.576 9.966 9.676 9.226 9.006 9.186 10.056 12.176 16.346
848.750 22.796 27.946 27.496 21.536 14.246 9.686 7.576 6.426 5.596 4.866
887.330 4.176 3.606 3.276 3.116 3.076 3.166 3.346 3.586 3.816 4.026
925.909 4.266 4.406 4.366 4.286 4.146 3.926 3.716 3.506 3.216 2.886
964.489 2.626 2.416 2.286 2.286 2.356 2.516 2.786 3.136 3.716 4.606
1003.068 5.936 8.116 12.116 17.436 21.866 24.666 26.576 28.446 28.756 25.866
1041.648 20.846 15.846 12.066 9.466 7.806 6.746 6.226 6.016 6.056 6.546
1080.227 7.326 8.516 10.196 12.276 14.406 16.346 18.066 19.546 20.696 21.766
1118.807 23.506 26.546 31.336 37.746 45.116 52.676 59.436 64.316 66.546 65.856
1157.387 62.536 57.346 51.176 45.306 40.596 37.486 35.526 33.586 31.036 28.306
1195.966 26.656 26.456 27.576 29.746 32.536 35.496 38.296 40.976 43.926 47.356
1234.546 51.176 55.316 59.096 61.246 60.466 56.446 49.946 42.406 35.456 30.056
1273.125 26.096 23.426 21.946 21.366 21.506 22.216 23.296 24.576 25.866 27.106
1311.705 28.336 29.736 31.626 34.336 38.046 42.776 48.886 57.786 70.776 85.426
1350.284 94.476 91.026 75.676 57.106 42.376 32.256 24.996 19.426 15.426 12.976
1388.864 11.586 10.836 10.386 10.026 9.716 9.466 9.296 9.256 9.356 9.546
1427.443 9.716 9.806 9.716 9.406 8.966 8.516 8.196 8.106 8.306 8.766
1466.023 9.456 10.146 10.726 11.266 12.016 13.306 15.416 17.906 19.316 18.886
1504.603 17.656 17.636 20.056 24.916 32.146 41.806 52.996 64.096 72.286 74.896
1543.182 70.976 61.946 50.346 39.446 30.516 23.866 19.296 16.036 14.006 12.946
1581.762 12.866 13.786 15.766 18.796 22.456 25.266 25.266 22.066 17.536 13.226
1620.341 9.656 7.096 5.416 4.426 3.866 3.546 3.396 3.356 3.356 3.376
1658.921 3.366 3.306 3.226 3.196 3.206 3.266 3.376 3.596 3.906 4.316
1697.500 4.846 5.516 6.296 7.186 8.206 9.486 11.176 13.596 17.266 22.746
1736.080 30.836 41.376 54.106 67.176 78.396 84.266 82.446 73.696 61.456 47.956
1774.659 35.256 25.286 18.236 13.586 10.556 8.406 6.776 5.536 4.596 3.906
1813.239 3.366 2.936 2.606 2.366 2.166 2.006 1.876 1.766 1.696 1.646
1851.819 1.606 1.576 1.526 1.526 1.516 1.496 1.486 1.466 1.456 1.446
1890.398 1.476 1.516 1.576 1.666 1.786 1.926 2.046 2.096 2.076 1.976
1928.978 1.826 1.636 1.446 1.306 1.1966 1.1182 1.0796 1.0688 1.0723 1.0809
1967.557 1.0657 1.0382 1.026 1.0173 1.0088 0.9637 0.9253 0.9159 0.8831 0.8435
2006.137 0.8404 0.8246 0.7791 0.7619 0.7685 0.7503 0.7387 0.7282 0.6954 0.7015
2044.716 0.7282 0.725 0.7109 0.7205 0.7314 0.7311 0.7481 0.7739 0.7816 0.781
2083.296 0.7999 0.8112 0.7857 0.747 0.7149 0.6845 0.6485 0.6189 0.5928 0.5824
2121.875 0.5683 0.546 0.545 0.5137 0.47 0.4446 0.4119 0.3891 0.3923 0.3716
2160.455 0.3532 0.3678 0.3795 0.3833 0.3711 0.3659 0.3668 0.3762 0.3965 0.4154
2199.035 0.4553 0.502 0.5152 0.5269 0.5416 0.5414 0.5033 0.4884 0.5011 0.4856
2237.614 0.4595 0.4386 0.429 0.443 0.4618 0.4511 0.438 0.4458 0.4645 0.4759
2276.194 0.5027 0.5175 0.5451 0.574 0.5686 0.5647 0.5691 0.5672 0.535 0.5239
2314.773 0.5365 0.5424 0.5385 0.528 0.5456 0.5602 0.5093 0.4866 0.5155 0.5286
2353.353 0.5452 0.5364 0.536 0.5609 0.5751 0.5748 0.5759 0.5831 0.5652 0.5578
2391.932 0.5704 0.5568 0.525 0.5188 0.5327 0.5375 0.5415 0.5405 0.5522 0.56
2430.512 0.5589 0.5758 0.5848 0.6028 0.6726 0.7485 0.803 0.8311 0.8212 0.7736
2469.092 0.7045 0.6331 0.5511 0.5173 0.4928 0.4595 0.4344 0.376 0.3552 0.3647
2507.671 0.3619 0.3818 0.3857 0.3725 0.3784 0.3699 0.3583 0.3511 0.3528 0.33164
2546.251 0.30404 0.30699 0.2841 0.25155 0.24137 0.251804 0.26234 0.253954 0.252279 0.27814
2584.830 0.30851 0.3535 0.3978 0.4246 0.4548 0.4942 0.513 0.5084 0.4893 0.488
2623.410 0.4731 0.4261 0.3946 0.3627 0.34524 0.3564 0.3635 0.3529 0.33228 0.3503
2661.989 0.3748 0.3777 0.4071 0.4549 0.5066 0.5658 0.6213 0.6693 0.7271 0.7632
2700.569 0.7793 0.7782 0.785 0.7921 0.7588 0.7034 0.6676 0.6526 0.6222 0.6
2739.148 0.5937 0.5564 0.5497 0.5798 0.5819 0.5833 0.5994 0.618 0.6449 0.6809
2777.728 0.714 0.7153 0.7222 0.7379 0.7487 0.766 0.7635 0.7803 0.8264 0.8924
2816.308 0.9979 1.1096 1.2004 1.296 1.386 1.446 1.566 1.736 1.896 2.086
2854.887 2.256 2.446 2.676 2.936 3.256 3.596 3.936 4.226 4.436 4.536
2893.467 4.576 4.676 4.846 5.056 5.426 5.846 6.156 6.396 6.686 7.196
2932.046 7.966 8.996 10.156 11.016 11.296 10.976 10.406 10.036 10.166 10.866
2970.626 11.986 13.536 15.736 18.446 20.396 20.196 17.966 15.096 12.756 10.956
3009.205 9.366 7.986 6.696 5.576 4.736 4.116 3.736 3.526 3.496 3.596
3047.785 3.746 3.916 4.026 4.016 3.926 3.706 3.396 3.286 3.316 3.316
3086.364 3.106 2.546 1.876 1.386 1.1072 0.9873 0.9123 0.7706 0.7157 0.7405
3124.944 0.72 0.6855 0.6458 0.6186 0.5888 0.5846 0.5727 0.5172 0.4747 0.4309
3163.524 0.4334 0.4715 0.4638 0.4103 0.4073 0.443 0.4132 0.3886 0.4606 0.4862
3202.103 0.4398 0.4488 0.4569 0.412 0.402 0.3668 0.26177 0.2264 0.2202 0.1921
3240.683 0.2008 0.1949 0.176 0.1572 0.116 0.135 0.1813 0.1643 0.145 0.122
3279.262 0.101 0.108 0.092 0.088 0.135 0.133 0.125 0.084 0 0.012
3317.842 0.074 0.113 0.093 0.094 0.132 0.1636 0.132 0.093 0.103 0.09
3356.421 0.134 0.1489 0.125 0.1741 0.2046 0.1517 0.1469 0.1728 0.14 0.145
3395.001 0.1798 0.1462 0.121 0.1487 0.1479 0.108 0.109 0.145 0.1745 0.1876
3433.580 0.2165 0.2047 0.1847 0.1968 0.2074 0.25699 0.2967 0.30489 0.30925 0.394
3472.160 0.5442 0.6333 0.7332 0.8864 0.9828 1.0338 1.0343 0.9817 0.9193 0.8082
3510.740 0.6564 0.5552 0.5138 0.4533 0.3702 0.32896 0.2931 0.27425 0.228 0.2092
3549.319 0.2082 0.1501 0.1749 0.1957 0.139 0.125 0.124 0.119 0.114 0.115
3587.899 0.143 0.14 0.122 0.119 0.101 0.103 0.081 0.061 0.049 0.046
3626.478 0.099 0.113 0.095 0.091 0.064 0.051 0.102 0.113 0.106 0.132
3665.058 0.1646 0.2245 0.26914 0.2212 0.1852 0.2022 0.1847 0.1934 0.2281 0.2141
3703.637 0.1796 0.13 0.134 0.1707 0.1892 0.221 0.2025 0.17 0.1675 0.1931
3742.217 0.2048 0.1869 0.2427 0.27756 0.249483 0.2334 0.2047 0.1599 0.1701 0.1736
3780.797 0.12 0.094 0.12 0.1678 0.1653 0.123 0.1538 0.1898 0.1612 0.13
3819.376 0.131 0.1492 0.165 0.1606 0.129 0.114 0.14 0.144 0.1589 0.1779
3857.956 0.1758 0.2136 0.1844 0.186 0.211 0.1698 0.208 0.2099 0.1604 0.1673
3896.535 0.1843 0.2203 0.2216 0.2241 0.26034 0.23981 0.24044 0.24485 0.1973 0.1678
3935.115 0.1951 0.1502 0.102 0.2104 0.27311 0.23626 0.2084 0.205 0.24078 0.24199
3973.694 0.2081 0.2128 0.1811 0.1501 0.1953 0.2328 0.251252 0.25872
##END=
