##TITLE=3-Chloro-2-methylbenzonitrile
##JCAMP-DX=4.24
##DATA TYPE=INFRARED SPECTRUM
##ORIGIN=EPA-IR VAPOR PHASE LIBRARY
##OWNER=SRD/NIST
Collection (C) 2018 copyright by the U.S. Secretary of Commerce
on behalf of the United States of America. All rights reserved.
##CAS REGISTRY NO=54454-12-5
##MOLFORM=C 8 H 6 Cl N
##$NIST SOURCE=MSDC-IR
##STATE=gas
##XUNITS=1/CM
##YUNITS=ABSORBANCE
##XFACTOR=1.
##YFACTOR=0.001
##DELTAX=1.92898
##FIRSTX=549.8
##LASTX=4000.7
##FIRSTY=1.067
##MAXX=4000.7
##MINX=549.759
##MAXY=0.04337
##MINY=0
##NPOINTS=1790
##XYDATA=(X++(Y..Y))
549.759 1.067 1.8178 2.54 2.114 2.2393 2.75 3.72 3.44 2.69 3.69
569.049 3.82 2.78 3.09 3.09 2.6 2.81 3.32 3.41 2.1638 1.4442
588.339 1.8464 2.2223 2.3997 1.7034 1.325 1.9925 1.8365 1.145 1.4574 1.4722
607.628 1.7107 2.4857 1.8544 1.08 1.9943 2.6 2.58 3.25 3.71 2.92
626.918 2.0837 2.2473 1.6897 1.544 2.2054 1.8836 1.221 1.6251 1.4574 1.407
646.208 2.3234 2.61 2.58 2.1223 1.6986 1.9174 2.3067 2.6 2.1745 1.6028
665.498 1.8443 2.1925 2.4727 2.2619 1.341 1.299 1.7591 2.1128 2.59 2.81
684.787 3.23 3.87 4.97 6.34 7.04 8.11 8.89 9.2 10.85 14.38
704.077 14.88 10.76 8.85 8.08 7.55 7.09 5.47 5.01 4.79 3.78
723.367 2.98 2.62 2.2578 2.0171 1.7794 2.1948 2.62 2.4369 2.68 2.56
742.657 2.3417 2.0398 2.2215 2.56 2.3433 2.56 2.64 2.82 3.37 3.9
761.947 4.55 5.71 7.37 8.51 10.69 13.26 15.46 18.52 20.48 23.03
781.236 28.03 36.69 43.37 37.39 28.42 25.76 24.55 22.66 20.49 17.96
800.526 14.71 11.89 9.65 7.85 6.84 6.35 5.87 6.16 7.29 8.6
819.816 10.04 10.5 10.51 11.87 12.2 12.03 11.96 10.41 10.03 9.09
839.106 6.81 5.46 4.3 3.1 3.13 3.2 2.2932 1.875 2.127 2.8
858.395 2.63 1.8385 1.9923 1.9285 1.7924 1.8607 2.2724 2.64 2.4047 2.77
877.685 2.85 2.55 2.4209 2.2547 2.4514 2.1442 2.1279 2.3182 2.2439 2.377
896.975 2.0152 2.0011 2.0876 1.6655 1.53279 1.7671 1.9836 2.0952 2.0194 1.7015
916.265 1.7433 2.1992 1.8499 1.866 2.1396 2.2215 2.59 2.71 2.53 2.2882
935.555 1.9828 1.9201 2.3544 2.4167 2.3785 2.4427 2.0938 2.0203 2.55 2.64
954.844 2.81 3.22 3.24 2.94 3.65 4.42 3.86 3.4 3.51 3.5
974.134 4.15 5.14 5.76 5.97 6.1 6.62 6.59 6.51 7.93 8.65
993.424 8.09 8.28 9 9.78 10.38 10.77 11.11 11.05 11.6 12.58
1012.714 12.11 12.34 12.88 12.6 13.35 12.87 11.88 11.64 10.98 10.69
1032.003 9.94 9.2 8.14 7.43 7.82 7.5 7.27 6.66 5.85 6.12
1051.293 6.2 6.56 6.17 5.36 4.78 5.46 5.65 4.46 4.22 4.22
1070.583 4.83 5.06 4.8 4.09 4.39 5.81 5 3.02 2.75 3.95
1089.873 4.06 4.23 4.38 2.84 1.54052 0.993 0.96 1.213 1.9698 2.0118
1109.163 1.651 1.57117 2.3382 2.0323 0 0.57 2.63 2.59 1.8321 3.7
1128.452 4.93 3.97 4.75 7.37 9.06 9.75 9.46 10.36 11.36 10.68
1147.742 10.33 9.68 9.29 7.59 5.39 4.32 3.47 1.6576 1.8386 2.68
1167.032 1.9975 2.81 3.65 3.26 4.06 4.39 2.61 1.8542 2.1427 2.1439
1186.322 1.7283 1.4499 2.0518 2.4143 2.82 3.23 2.1528 0.859 0.46 0.567
1205.611 0.15 1.4313 2.71 1.205 0.3 1.6916 1.8191 1.8664 3.06 4.68
1224.901 5.03 4.43 4.89 4.8 4.58 2.2094 1.54293 3.48 2.54 1.8356
1244.191 2.98 2.89 2.1789 1.7019 1.9793 2.69 2.67 3.3 3.86 4.2
1263.481 4.59 4.61 5.16 5.74 6.04 5.85 5.22 4.89 4.93 4.7
1282.771 4 3.59 3.16 2.91 3.17 3.26 3.02 2.88 2.8 2.67
1302.060 2.6 2.3298 2.4541 2.67 2.4192 2.205 2.4819 2.4594 2.1409 2.1629
1321.350 2.3398 2.4177 2.4082 2.4775 2.4874 2.2896 1.9879 2.0952 2.52 2.63
1340.640 2.7 2.73 2.4673 2.3664 2.4042 2.51 2.69 2.65 2.4384 2.54
1359.930 2.55 2.4165 2.4509 2.4403 2.54 2.77 3.04 3.17 3.18 3.17
1379.219 3.5 3.99 4.43 4.73 4.84 4.92 5.04 5.21 5.25 5.2
1398.509 4.98 4.73 4.6 4.38 4.04 3.98 3.97 4.1 4.45 4.79
1417.799 5.4 6.14 7 8.42 10.47 12.65 15.04 17.38 19.38 20.96
1437.089 22.18 23.03 23.38 23.62 23.67 23.03 21.82 20.25 18.44 16.87
1456.378 15.69 14.91 14.25 13.68 12.81 11.57 10.57 9.59 8.75 8.06
1475.668 7.3 6.61 5.87 5.02 4.54 4.18 4 3.98 4.12 4.18
1494.958 3.84 3.58 3.39 3.11 2.82 2.86 3.05 3.29 3.39 3.38
1514.248 3.18 3.05 3.31 3.22 3.07 3.23 3.47 3.47 3.6 3.85
1533.538 4.15 4.53 4.61 4.96 5.15 5.23 5.79 6.27 6.41 6.72
1552.827 7.5 8.38 8.84 9.44 10.45 11.14 11.43 11.61 11.96 12
1572.117 11.22 10.57 9.84 8.55 7.52 6.38 5.32 4.67 4.38 4.08
1591.407 3.79 3.54 3.19 3.18 3.31 3.35 3.11 2.78 2.81 2.89
1610.697 2.88 2.72 2.63 2.87 2.59 2.4178 2.71 2.57 2.64 2.82
1629.986 2.62 2.51 2.62 2.56 2.57 2.83 2.73 2.4809 2.486 2.2558
1649.276 2.1595 2.53 2.4145 2.1884 2.1018 2.3321 2.56 2.5 2.5 2.54
1668.566 2.56 2.57 2.6 2.3985 2.3879 2.6 2.76 2.86 3.13 3.4
1687.856 3.59 3.76 3.92 3.76 3.33 3.01 2.59 2.2905 2.3539 2.4543
1707.146 2.2949 2.0675 1.8144 1.7285 1.7882 1.8728 1.9582 1.9016 1.7229 1.889
1726.435 2.0716 2.0207 2.0199 1.9408 1.918 1.9432 1.8944 1.9829 1.9843 1.867
1745.725 1.9121 1.8664 2.0268 2.2663 2.1587 1.9576 1.7143 1.7404 1.8436 1.7721
1765.015 1.8105 1.9745 2.0618 1.7837 1.8261 2.0795 2.0071 1.7667 1.717 1.8489
1784.305 1.83 1.8211 1.882 2.0141 1.8025 1.7756 2.0447 2.0469 2.072 2.317
1803.594 2.61 2.78 2.76 2.61 2.61 2.57 2.4803 2.73 2.75 2.4534
1822.884 2.2791 2.1272 2.1883 2.2286 2.0431 2.0665 2.2121 2.1498 1.9695 1.746
1842.174 1.50255 1.4456 1.50472 1.7074 1.9715 1.9815 2.1066 2.0896 2.0719 2.56
1861.464 2.84 2.63 2.62 3 3.15 3.05 3.04 3.09 3.12 2.79
1880.754 2.4662 2.3199 2.3463 2.416 2.3952 2.1349 1.9015 1.7935 1.6503 1.9367
1900.043 1.9252 1.7907 1.8188 1.9107 2.0957 2.1197 2.0929 2.1506 2.4602 2.4022
1919.333 2.2282 2.53 2.8 2.8 2.75 2.83 3.12 3.32 3.22 3.04
1938.623 2.88 2.77 2.55 2.461 2.476 2.3856 2.0732 2.0559 2.0615 1.9984
1957.913 2.1073 1.9105 1.765 1.52792 1.5915 1.8317 1.755 1.6612 1.6999 1.6861
1977.202 1.8231 1.8209 1.7268 1.7119 1.7023 1.7867 1.7127 1.7951 1.8382 1.8944
1996.492 2.0532 2.0961 2.0383 1.9166 1.8013 1.6673 1.7157 1.9179 1.8963 1.7139
2015.782 1.6672 1.7739 1.7088 1.58193 1.7822 1.8721 1.8221 1.6565 1.4308 1.6355
2035.072 1.6969 1.6851 1.5865 1.6126 1.8935 1.8477 1.7469 1.9228 2.0784 1.8083
2054.362 1.56621 1.49479 1.55796 1.7998 1.6579 1.6186 1.7789 1.6791 1.5946 1.7384
2073.651 1.8665 1.8407 1.8983 1.714 1.6061 1.7792 1.9429 1.8433 1.628 1.7496
2092.941 1.9341 1.917 1.8157 1.832 1.9141 1.6902 1.6735 1.931 1.8338 1.7681
2112.231 1.7536 1.54788 1.4006 1.54077 1.8037 1.83 1.6693 1.52285 1.52487 1.694
2131.521 1.7081 1.48417 1.7028 1.987 2.0965 2.1104 1.8018 1.7599 1.8265 1.7988
2150.810 1.8918 2.0743 2.0927 1.9227 1.8296 1.7602 1.9897 2.0845 1.845 1.7251
2170.100 1.8298 2.0268 2.0704 2.07 2.117 2.1291 1.9966 1.8224 1.7816 1.9486
2189.390 1.8922 1.8647 1.8514 1.8006 2.0118 1.9377 1.7951 1.8774 2.0284 2.265
2208.680 2.3638 2.4419 2.73 3.17 3.46 3.69 4.27 5.02 5.5 5.77
2227.970 5.97 6.43 6.68 6.03 5.64 5.63 5.13 4.47 3.85 3.24
2247.259 2.8 2.55 2.4381 2.3267 2.2132 2.0505 1.911 2.0911 2.3117 2.2172
2266.549 2.1238 2.1251 2.1087 2.1609 2.2184 2.1183 2.3407 2.3784 2.3484 2.4779
2285.839 2.0646 1.9061 2.0467 2.0843 1.938 2.072 2.4175 2.1757 1.771 1.8265
2305.129 1.8721 2.0106 2.1881 1.8898 1.866 2.0047 2.0647 2.0549 1.9867 2.2945
2324.418 2.4114 2.306 2.2625 2.1588 2.2408 2.2236 2.1197 2.0628 2.0409 1.9747
2343.708 1.8261 1.7564 2.0387 2.4199 2.63 2.4255 1.9842 1.8877 1.9115 1.9232
2362.998 2.2657 2.54 2.3088 2.1946 2.1196 2.1022 2.2935 2.1619 1.918 1.8805
2382.288 1.7425 2.0805 2.2086 1.8469 1.8347 1.8428 1.7562 1.9365 2.1391 2.2882
2401.578 2.336 2.0225 2.0524 2.132 1.8835 1.9904 2.1329 2.1442 2.1395 2.229
2420.867 2.044 1.8116 2.1077 2.376 2.0702 1.9803 1.9549 1.7461 1.825 1.8376
2440.157 1.7541 1.6082 1.7562 1.9836 2.06 1.869 1.9545 2.105 1.9634 1.9171
2459.447 1.9029 1.6484 1.7018 2.0773 1.8631 1.7872 2.1108 2.2626 2.3727 2.2877
2478.737 2.0604 1.8428 1.54634 1.6468 2.0642 1.9847 1.9662 1.953 1.8845 2.1056
2498.026 2.1386 2.0316 1.9379 1.8748 1.9768 2.2618 2.31 2.3584 2.2928 2.2673
2517.316 1.933 1.52587 1.7718 1.6738 1.6769 1.9478 1.9745 2.016 2.058 2.2134
2536.606 2.1289 1.676 1.8639 2.0656 1.9576 2.0201 2.0903 1.9459 2.0394 2.348
2555.896 2.3485 2.2652 2.0149 2.0764 2.2487 2.4831 2.1946 1.9521 2.1994 2.1144
2575.186 1.8171 1.56029 1.9878 2.1612 1.9644 1.8944 1.7458 1.7577 1.7516 1.8453
2594.475 1.9402 1.8758 2.0544 2.0971 2.091 2.0911 1.9323 2.019 1.9945 2.0086
2613.765 1.9292 1.8623 1.991 2.0647 1.9536 1.9909 2.2369 2.2078 2.2053 2.2753
2633.055 2.4705 2.3882 2.0746 1.9463 1.9825 1.9455 1.9879 2.1981 2.0478 2.0503
2652.345 2.2391 2.1653 2.2501 2.4819 2.292 2.0723 2.0661 1.8314 2.1416 2.58
2671.634 2.3108 1.9449 1.5717 1.919 2.2065 2.1597 2.1789 1.893 1.9986 2.1192
2690.924 1.8892 2.036 2.2161 2.55 3.06 2.74 2.62 2.4122 2.264 2.52
2710.214 2.4696 2.305 2.0391 2.1969 2.4214 2.3154 2.4031 2.4033 2.3319 2.2274
2729.504 2.2192 2.1177 1.9887 2.2376 2.3051 2.2519 2.0359 2.1905 2.4765 2.61
2748.794 2.67 2.79 2.8 2.3874 2.0452 2.033 2.2595 2.3638 2.2233 2.0656
2768.083 1.9623 1.9149 2.1479 1.9851 1.5965 1.9175 1.9043 1.8347 1.9346 1.859
2787.373 2.0073 2.0549 2.2802 2.67 2.2905 2.0383 2.3521 2.2198 1.9875 2.0194
2806.663 2.1674 1.9035 2.2007 2.1814 2.0076 2.3028 2.1203 1.7847 1.54508 1.7213
2825.953 2.3156 2.53 1.9937 1.8874 2.3727 2.4689 2.5 2.63 2.55 2.2581
2845.242 2.123 2.54 2.75 2.75 2.95 3.07 2.76 2.71 3.17 2.91
2864.532 2.7 3.16 3.06 2.83 2.67 2.4111 2.68 3.26 3.16 2.93
2883.822 2.8 2.92 3.02 2.88 2.81 2.71 2.97 2.91 2.78 2.65
2903.112 2.77 2.95 3.06 3.09 3.02 3.37 3.65 3.17 3.19 3.78
2922.401 3.63 3.77 4.19 4.33 4.46 4.33 4.33 4.49 4.97 5.48
2941.691 5.82 5.68 4.9 4.94 5.05 5.53 5.8 4.76 4.19 4.46
2960.981 4.66 4.05 3.53 3.49 3.71 4.1 3.48 2.99 3.45 3.64
2980.271 3.34 3.39 3.54 3.14 3.04 3.62 3.82 3.28 3.02 3.48
2999.561 3.52 3.14 3.38 3.67 3.69 3.73 3.38 3.43 3.74 3.71
3018.850 3.38 3.3 3.49 3.43 3.13 3.08 3.13 3.26 3.04 2.73
3038.140 2.53 2.57 3.42 3.62 3.16 2.65 2.62 2.97 3.24 3.65
3057.430 3.9 4.06 4.4 4.23 3.65 3.84 4.53 5.12 6.27 6.75
3076.720 6.54 6.58 6.29 6.49 6.29 5.62 5.34 5.3 4.75 4.32
3096.009 4.56 4.26 3.69 3.15 2.78 2.6 2.79 2.71 2.49 2.4471
3115.299 2.4688 2.63 2.68 2.4406 2.3802 2.0323 2.0049 1.9359 1.8731 2.4678
3134.589 2.4549 2.2493 2.3557 2.258 1.9599 2.117 1.9188 1.6486 2.2305 2.56
3153.879 2.313 2.65 2.97 2.55 2.2793 2.1894 2.1658 2.0528 1.9934 2.2038
3173.169 1.969 1.6861 2.0722 2.262 2.1287 2.0362 1.7523 2.1275 2.4757 1.7867
3192.458 1.8804 2.2499 1.964 1.6159 1.4049 1.6512 1.7089 1.6986 2.114 2.56
3211.748 2.72 2.66 2.2978 2.1237 1.7124 1.4292 1.8616 2.1581 2.4072 2.3607
3231.038 1.8893 1.8468 2.3403 2.51 2.3021 1.57722 1.54824 1.9518 2.3322 2.64
3250.328 2.69 2.63 2.2721 2.2691 2.2242 2.0707 1.7444 1.7391 2.2732 2.3596
3269.617 2.2949 1.9978 1.50408 1.9966 2.5 2.466 1.9066 1.303 1.115 1.4543
3288.907 2.2212 2.4827 2.3728 2.4433 2.4749 2.2932 2.64 2.81 2.6 2.0036
3308.197 1.7716 1.8718 1.9679 2.2512 2.5 2.4688 2.1544 1.7536 1.7973 2.3442
3327.487 2.56 2.51 2.2931 2.2625 1.8451 1.6388 1.7863 2.1361 2.59 2.1489
3346.777 1.8146 2.4549 2.311 2.2775 2.3638 2.067 2.0125 1.9653 1.9484 1.8118
3366.066 1.826 1.8906 2.0409 1.8817 1.8728 2.237 2.3517 2.075 1.8426 2.0849
3385.356 2.52 2.0452 1.55721 1.48827 1.6587 2.1954 2.58 2.63 2.3272 2.1517
3404.646 2.5 2.62 2.3549 2.4727 2.2178 1.6441 1.7771 2.1022 1.9344 1.7358
3423.936 2.0837 2.2896 2.0527 2.52 3.16 2.4163 1.304 1.4672 1.9386 1.8516
3443.225 2.1458 2.4196 2.0853 1.476 1.53798 1.9936 2.1101 2.2652 1.99 1.324
3462.515 1.3934 2.2851 2.65 2.66 2.76 2.3386 1.4341 1.115 1.4622 2.3609
3481.805 2.1244 1.384 1.256 1.5997 2.0573 1.8469 1.9356 2.3055 2.1096 1.6786
3501.095 1.9979 1.9189 2.026 2.1334 1.9186 2.0175 1.9298 2.1179 1.7597 1.8402
3520.385 2.0897 1.7599 2.3624 2.3275 2.4059 2.6 1.7861 1.4703 1.7739 1.6759
3539.674 1.7855 2.4405 2.2658 1.7684 2.0203 2.67 2.2805 1.842 2.1531 1.6013
3558.964 1.25 1.292 0.911 1.339 2.3365 2.61 1.8014 1.7868 2.4262 1.9563
3578.254 1.4092 2.1552 2.65 2.0817 2.1056 2.06 2.1167 1.9764 1.7849 2.0528
3597.544 2.0855 2.4256 2.3575 2.0722 2.0288 2.3106 2.58 1.8707 1.4492 1.7047
3616.833 2.0826 2.0047 1.8371 2.1101 1.8728 2.065 2.3324 2.3439 2.51 2.3356
3636.123 2.3467 1.9644 1.7558 1.9219 2.0671 2.2512 1.7618 1.228 1.4306 1.7142
3655.413 1.49858 1.3934 1.8845 2.0805 1.53155 1.7921 1.6539 1.267 1.9554 1.9637
3674.703 1.8276 2.58 3.18 2.81 1.8554 1.163 1.365 1.6701 1.9738 1.8734
3693.993 1.363 1.7305 2.1157 2.1488 2.0852 1.8519 2.1164 2.298 1.9423 2.0506
3713.282 2.1173 2.0475 2.2954 2.0521 1.6476 2.3361 2.91 2.66 2.409 1.8944
3732.572 1.166 1.22 1.6483 1.5416 1.353 1.002 1.7728 2.65 2.0423 1.7034
3751.862 1.4661 1.6712 2.1024 1.7858 1.55318 1.6579 1.8591 1.7491 1.49705 1.8225
3771.152 2.2263 2.53 2.4373 1.6706 1.6199 2.1434 2.2621 2.0096 2.1904 2.2987
3790.441 2.4593 2.365 2.0353 2.2722 1.8386 1.6863 2.1975 1.7809 1.4392 1.8869
3809.731 1.7909 1.261 1.714 2.2937 2.0142 1.6343 1.8071 2.1746 1.8663 1.9502
3829.021 2.2657 2.1232 1.9304 2.81 3.06 1.9051 1.50997 1.8201 2.1201 2.0682
3848.311 2.2317 2.1116 1.8536 2.7 2.76 2.4001 2.59 2.1359 1.8735 1.6401
3867.601 1.7797 1.7275 1.593 2.1543 2.1189 1.8861 2.1086 1.8941 1.4289 1.52173
3886.890 1.8855 1.9759 2.1535 2.5 2.2557 2.2182 2.2192 1.5619 1.816 2.1222
3906.180 1.9082 2.3785 2.0428 1.36 1.9337 2.58 3.03 2.4241 1.7409 1.8787
3925.470 2.1351 2.1934 1.8724 1.351 1.27 1.48507 1.388 1.8443 2.353 1.9912
3944.760 1.8854 2.4641 2.2834 1.7575 1.6793 1.8953 2.1742 2.3015 1.885 1.9492
3964.049 2.4784 2.0949 1.35 1.614 2.0255 1.625 1.955 2.53 2.1971 2.3495
3983.339 2.2375 2.1648 2.2862 2.3362 2.3001 2.1578 2.68 3.21 2.6 2.2146
##END=
