##TITLE=cis-3-Methylcyclohexanol
##JCAMP-DX=4.24
##DATA TYPE=INFRARED SPECTRUM
##ORIGIN=NIST Mass Spectrometry Data Center
##OWNER=NIST Standard Reference Data Program
Collection (C) 2018 copyright by the U.S. Secretary of Commerce
on behalf of the United States of America. All rights reserved.
##CAS REGISTRY NO=5454-79-5
##MOLFORM=C 7 H 14 O
##$NIST SOURCE=MSDC-IR
##SPECTROMETER/DATA SYSTEM=HP-GC/MS/IRD
##STATE=gas
##XUNITS=1/CM
##YUNITS=ABSORBANCE
##XFACTOR=1.0
##YFACTOR=0.000004600
##DELTAX=4.0
##FIRSTX=550.0
##LASTX=3846.0
##FIRSTY=0.000874
##MAXX=3846
##MINX=550
##MAXY=0.046
##MINY=0
##NPOINTS=825
##XYDATA=(X++(Y..Y))
550.0 190 167 129 91 63 50 48 55 55 45
590.0 40 45 44 46 32 31 34 27 29 45
630.0 40 27 24 16 19 28 27 22 22 11
670.0 4 17 23 24 15 13 26 21 13 22
710.0 31 24 21 17 10 7 5 7 10 5
750.0 2 11 15 17 20 23 19 17 27 32
790.0 31 33 30 27 25 36 57 83 121 159
830.0 191 220 228 208 192 172 143 130 143 165
870.0 184 191 195 211 223 216 203 192 183 181
910.0 176 176 201 245 314 380 422 443 425 393
950.0 349 304 289 301 304 305 316 323 332 362
990.0 428 537 713 980 1341 1721 2014 2198 2297 2350
1030.0 2368 2333 2304 2285 2252 2133 1948 1635 1210 938
1070.0 851 891 1022 1200 1371 1484 1512 1447 1298 1094
1110.0 868 668 530 449 411 390 380 365 351 333
1150.0 315 305 302 297 297 295 298 308 322 344
1190.0 374 406 440 471 501 526 558 599 630 669
1230.0 704 722 732 730 724 720 716 713 714 710
1270.0 693 666 628 582 531 489 448 407 380 359
1310.0 340 333 338 345 364 398 446 514 597 683
1350.0 782 882 966 1036 1085 1097 1077 1034 959 865
1390.0 766 657 544 448 373 317 279 259 261 292
1430.0 361 468 610 765 910 1061 1161 1146 1089 998
1470.0 816 627 483 362 257 180 133 104 83 67
1510.0 56 49 43 40 35 33 32 32 27 23
1550.0 21 22 28 30 27 23 26 27 23 20
1590.0 18 17 19 21 22 23 22 21 18 13
1630.0 14 15 10 8 12 13 10 9 8 7
1670.0 7 9 8 7 7 5 7 6 3 4
1710.0 8 11 12 13 13 12 13 12 11 9
1750.0 8 7 4 6 7 5 3 5 8 3
1790.0 1 0 0 4 4 0 0 1 2 2
1830.0 1 3 5 4 4 6 7 5 5 5
1870.0 6 6 6 5 4 4 2 6 5 5
1910.0 7 7 6 4 4 5 4 1 3 7
1950.0 9 8 9 9 10 9 6 7 7 5
1990.0 4 6 7 6 5 3 7 9 12 14
2030.0 15 15 16 14 13 12 14 14 12 11
2070.0 12 11 11 10 10 8 7 7 9 11
2110.0 12 10 12 14 12 12 11 12 13 15
2150.0 15 11 8 8 7 8 9 10 10 12
2190.0 14 12 14 17 16 17 19 17 17 20
2230.0 18 18 17 14 14 13 12 11 11 10
2270.0 9 11 10 11 13 12 12 11 10 7
2310.0 4 2 0 0 0 0 0 0 0 0
2350.0 0 0 0 0 0 0 0 4 11 16
2390.0 19 22 24 24 28 30 28 28 29 30
2430.0 28 27 25 22 21 23 21 23 24 24
2470.0 22 20 17 19 21 18 17 19 20 20
2510.0 22 22 20 23 25 22 21 22 20 19
2550.0 21 24 27 28 28 31 36 40 45 53
2590.0 60 65 73 78 81 86 88 88 90 95
2630.0 99 104 111 119 126 129 130 131 129 126
2670.0 125 119 112 109 106 106 108 110 117 122
2710.0 123 126 129 130 133 140 143 148 150 148
2750.0 150 151 150 152 162 173 182 195 207 221
2790.0 237 253 269 287 305 325 347 381 433 515
2830.0 644 839 1129 1525 1984 2469 2971 3388 3669 3853
2870.0 3955 3889 3649 3401 3229 3134 3115 3234 3564 4053
2910.0 4675 5523 6601 7697 8698 9629 10000 9640 8882 7935
2950.0 7049 6344 5817 4782 3648 2971 2266 1517 936 575
2990.0 384 289 225 187 157 143 134 121 112 102
3030.0 96 91 86 86 87 89 91 91 96 100
3070.0 101 100 101 99 101 98 91 85 76 74
3110.0 70 59 54 54 50 44 41 43 40 37
3150.0 39 46 50 47 44 44 42 42 48 47
3190.0 45 40 35 33 31 34 34 30 29 23
3230.0 17 16 18 17 11 10 10 9 9 4
3270.0 1 9 12 8 5 7 10 11 12 8
3310.0 10 18 21 19 15 17 21 27 29 26
3350.0 27 27 30 29 26 30 30 28 29 26
3390.0 23 26 29 31 31 34 36 34 33 36
3430.0 41 42 45 45 44 47 49 50 43 39
3470.0 39 40 36 39 42 39 36 36 37 33
3510.0 29 28 28 29 27 29 36 32 34 32
3550.0 29 32 29 26 22 20 18 19 24 26
3590.0 27 34 45 53 58 61 68 86 113 152
3630.0 215 313 430 521 566 582 562 506 407 285
3670.0 183 122 85 64 56 53 47 46 41 35
3710.0 39 42 40 32 29 32 33 35 33 36
3750.0 36 36 35 31 38 49 49 47 43 45
3790.0 49 47 45 51 56 55 55 51 46 46
3830.0 52 58 59 54 50
##END=
