##TITLE=2-Nitrobenzenesulphonamide
##JCAMP-DX=4.24
##DATA TYPE=INFRARED SPECTRUM
##ORIGIN=EPA-IR VAPOR PHASE LIBRARY
##OWNER=SRD/NIST
Collection (C) 2018 copyright by the U.S. Secretary of Commerce
on behalf of the United States of America. All rights reserved.
##CAS REGISTRY NO=5455-59-4
##MOLFORM=C 6 H 6 N 2 O 4 S
##$NIST SOURCE=MSDC-IR
##STATE=gas
##XUNITS=1/CM
##YUNITS=ABSORBANCE
##XFACTOR=1.
##YFACTOR=0.001
##DELTAX=1.92934
##FIRSTX=549.9
##LASTX=3999.5
##FIRSTY=3.53
##MAXX=3999.53
##MINX=549.863
##MAXY=0.01122
##MINY=0
##NPOINTS=1789
##XYDATA=(X++(Y..Y))
549.863 3.53 3.48 3.41 3.27 2.97 2.91 2.85 2.82 2.92 2.97
569.156 3.23 3.71 4.19 4.83 5.51 6.09 6.63 6.99 7.25 7.44
588.450 7.27 6.88 6.46 5.81 5.11 4.61 4.16 3.86 3.62 3.45
607.743 3.3 3.11 2.96 2.83 2.77 2.77 2.6956 2.5708 2.6127 2.5934
627.037 2.5079 2.5827 2.5515 2.5345 2.5419 2.5331 2.621 2.6553 2.6851 2.87
646.330 3 3.09 3.2 3.23 3.32 3.36 3.3 3.25 3.14 2.98
665.624 2.84 2.6975 2.5089 2.4358 2.5182 2.5201 2.5015 2.4977 2.4391 2.4101
684.917 2.4686 2.463 2.4234 2.4837 2.5315 2.5657 2.6573 2.73 2.72 2.73
704.210 2.79 2.77 2.6961 2.702 2.8 2.83 2.9 3.05 3.2 3.36
723.504 3.58 3.86 4.13 4.31 4.49 4.65 4.81 5.05 5.15 4.79
742.797 4.35 4.09 3.86 3.68 3.48 3.23 3.07 3.04 3.02 2.97
762.091 2.96 3.06 3.19 3.34 3.48 3.57 3.66 3.87 4.07 3.99
781.384 3.73 3.4 3.19 3.07 2.93 2.77 2.6462 2.5322 2.4653 2.4581
800.678 2.4298 2.4294 2.4487 2.4368 2.4313 2.4323 2.3956 2.3438 2.3557 2.3908
819.971 2.3538 2.3584 2.4781 2.5314 2.5311 2.5671 2.6051 2.6522 2.7036 2.77
839.264 2.91 3.15 3.39 3.63 3.86 4.07 4.23 4.35 4.46 4.52
858.558 4.49 4.42 4.34 4.3 4.22 4.17 4.16 4.09 4.05 3.99
877.851 3.95 3.83 3.64 3.55 3.33 3.06 2.93 2.78 2.6115 2.451
897.145 2.3543 2.2943 2.2103 2.1824 2.1322 2.0512 1.9977 1.942 1.9045 1.879
916.438 1.8523 1.8433 1.8727 1.8299 1.74678 1.77643 1.76865 1.7368 1.74519 1.73977
935.732 1.74011 1.74086 1.74148 1.70958 1.71148 1.73844 1.72353 1.70663 1.7057 1.73002
955.025 1.75681 1.74329 1.72923 1.7286 1.6898 1.6891 1.7142 1.71483 1.71225 1.6815
974.318 1.6378 1.6291 1.6652 1.6282 1.591 1.597 1.6106 1.598 1.595 1.6524
993.612 1.6286 1.597 1.601 1.579 1.6337 1.681 1.6385 1.603 1.6347 1.6639
1012.905 1.6219 1.608 1.6474 1.6283 1.6261 1.6599 1.6221 1.6 1.589 1.57
1032.199 1.6271 1.6164 1.581 1.6454 1.6975 1.71364 1.70394 1.72841 1.77748 1.8334
1051.492 1.9087 1.918 1.9144 1.9345 1.9498 1.9793 1.9873 1.9616 1.9237 1.8827
1070.786 1.8583 1.8657 1.8818 1.79676 1.71201 1.71235 1.75421 1.77073 1.73083 1.7381
1090.079 1.6951 1.72614 1.72686 1.6659 1.6421 1.6661 1.70471 1.71833 1.7425 1.71928
1109.372 1.72577 1.75773 1.78759 1.8342 1.935 2.0592 2.0981 2.0539 2.0794 2.1272
1128.666 2.0957 2.0977 1.9932 1.80184 1.6719 1.548 1.55 1.537 1.493 1.501
1147.959 1.553 1.536 1.568 1.6633 1.73954 1.8986 2.1181 2.3654 2.6928 3.08
1167.253 3.51 4.03 4.72 5.65 6.58 7.56 8.5 9.09 9.46 9.79
1186.546 9.52 8.49 7.38 6.32 5.12 3.99 2.95 2.1276 1.544 1.231
1205.840 0.899 0.43 0.37 0.32 0.04 0 0.26 0.39 0.23 0.39
1225.133 0.68 0.47 0.39 0.58 0.65 0.86 0.876 0.816 0.832 0.877
1244.426 1.105 1.215 1.246 1.307 1.352 1.419 1.378 1.333 1.39 1.375
1263.720 1.408 1.457 1.491 1.498 1.423 1.452 1.482 1.5 1.556 1.594
1283.013 1.6804 1.79098 1.8835 1.8893 1.9224 1.9968 1.9758 1.9225 1.916 1.8828
1302.307 1.78287 1.77734 1.78621 1.76708 1.76464 1.78167 1.7998 1.8268 1.8413 1.8448
1321.600 1.8724 1.8779 1.9268 2.0096 2.0827 2.1335 2.2126 2.3479 2.4772 2.6283
1340.894 2.85 3.13 3.48 3.85 4.27 4.69 5.12 5.52 5.82 5.98
1360.187 6.01 5.97 5.82 5.55 5.27 5.04 4.9 4.92 5.14 5.58
1379.480 6.31 7.23 8.19 9.2 10.17 10.86 11.21 11.22 10.87 10.18
1398.774 9.29 8.16 6.91 5.73 4.7 3.91 3.32 2.89 2.6098 2.4299
1418.067 2.3034 2.2076 2.1033 2.0731 2.1137 2.1596 2.1921 2.2601 2.359 2.3999
1437.361 2.4465 2.5061 2.5332 2.5027 2.4444 2.413 2.3154 2.1811 2.1197 2.0684
1456.654 1.9892 1.9126 1.8733 1.8625 1.8721 1.8901 1.8742 1.87 1.8846 1.901
1475.948 1.9052 1.8687 1.8814 1.914 1.9129 1.9538 2.0022 2.0479 2.0737 2.0862
1495.241 2.1445 2.243 2.3146 2.4051 2.5563 2.661 2.8 2.99 3.16 3.33
1514.534 3.52 3.74 3.97 4.26 4.57 4.86 5.21 5.58 5.93 6.29
1533.828 6.64 6.99 7.29 7.58 7.88 8.14 8.36 8.6 8.88 9.09
1553.121 9.22 9.26 9.12 8.81 8.36 7.74 6.99 6.22 5.45 4.7
1572.415 4.09 3.64 3.33 3.11 2.93 2.82 2.71 2.628 2.6385 2.639
1591.708 2.5517 2.5146 2.5033 2.4016 2.289 2.2197 2.1647 2.0708 1.9665 1.9407
1611.002 1.9252 1.8596 1.75376 1.6907 1.6456 1.6113 1.6526 1.6561 1.629 1.6271
1630.295 1.6 1.572 1.574 1.537 1.517 1.543 1.527 1.507 1.55 1.55
1649.588 1.535 1.5 1.473 1.489 1.494 1.485 1.47 1.457 1.439 1.398
1668.882 1.358 1.399 1.427 1.402 1.382 1.395 1.433 1.45 1.403 1.379
1688.175 1.403 1.405 1.417 1.391 1.362 1.381 1.393 1.406 1.377 1.356
1707.469 1.384 1.408 1.384 1.388 1.413 1.417 1.423 1.415 1.391 1.4
1726.762 1.456 1.448 1.421 1.432 1.446 1.428 1.421 1.407 1.416 1.442
1746.056 1.404 1.38 1.396 1.407 1.394 1.404 1.444 1.435 1.416 1.441
1765.349 1.464 1.464 1.445 1.443 1.428 1.403 1.393 1.395 1.402 1.412
1784.642 1.407 1.41 1.44 1.43 1.435 1.415 1.372 1.379 1.377 1.395
1803.936 1.393 1.37 1.383 1.378 1.397 1.439 1.456 1.441 1.416 1.427
1823.229 1.437 1.419 1.45 1.472 1.441 1.452 1.459 1.447 1.458 1.477
1842.523 1.487 1.473 1.468 1.432 1.389 1.426 1.457 1.404 1.372 1.387
1861.816 1.394 1.391 1.393 1.396 1.392 1.398 1.412 1.435 1.414 1.354
1881.110 1.347 1.362 1.361 1.362 1.36 1.355 1.36 1.378 1.408 1.423
1900.403 1.395 1.384 1.432 1.451 1.429 1.413 1.382 1.398 1.418 1.428
1919.696 1.423 1.433 1.458 1.44 1.426 1.467 1.493 1.461 1.483 1.505
1938.990 1.48 1.508 1.526 1.509 1.513 1.479 1.449 1.448 1.44 1.448
1958.283 1.46 1.463 1.471 1.505 1.523 1.525 1.517 1.512 1.525 1.496
1977.577 1.497 1.52 1.512 1.479 1.467 1.493 1.47 1.463 1.474 1.465
1996.870 1.477 1.49 1.453 1.442 1.457 1.43 1.43 1.44 1.452 1.453
2016.164 1.449 1.471 1.478 1.478 1.505 1.495 1.479 1.499 1.531 1.549
2035.457 1.516 1.479 1.478 1.489 1.471 1.477 1.507 1.507 1.491 1.504
2054.750 1.518 1.517 1.517 1.541 1.544 1.516 1.519 1.519 1.531 1.529
2074.044 1.532 1.549 1.551 1.557 1.564 1.561 1.522 1.539 1.546 1.535
2093.337 1.564 1.541 1.534 1.549 1.551 1.574 1.59 1.589 1.563 1.558
2112.631 1.587 1.571 1.592 1.641 1.6137 1.61 1.619 1.586 1.584 1.615
2131.924 1.6156 1.599 1.6137 1.6323 1.6457 1.642 1.603 1.595 1.596 1.601
2151.218 1.6241 1.601 1.581 1.596 1.6355 1.6437 1.6292 1.6485 1.6284 1.616
2170.511 1.6383 1.6477 1.6336 1.6271 1.628 1.595 1.601 1.6167 1.608 1.6102
2189.804 1.609 1.6263 1.6213 1.592 1.597 1.6355 1.6594 1.671 1.6592 1.6154
2209.098 1.6192 1.6554 1.6689 1.6822 1.6715 1.6367 1.6129 1.635 1.6627 1.6582
2228.391 1.6532 1.6346 1.611 1.626 1.6353 1.6467 1.6675 1.6658 1.6712 1.6545
2247.685 1.6418 1.6324 1.6535 1.6856 1.6989 1.6976 1.6972 1.6936 1.6651 1.6565
2266.978 1.6606 1.6954 1.698 1.6749 1.6764 1.6752 1.6924 1.70727 1.6979 1.6846
2286.272 1.6857 1.6937 1.70718 1.72517 1.74117 1.73498 1.7354 1.72243 1.696 1.6868
2305.565 1.70056 1.70829 1.70029 1.6871 1.6753 1.6827 1.6831 1.70262 1.7201 1.70191
2324.858 1.7197 1.72748 1.72076 1.72419 1.72343 1.73195 1.70926 1.70677 1.70449 1.6991
2344.152 1.71374 1.6994 1.6936 1.73904 1.76921 1.73125 1.72837 1.77378 1.79039 1.80805
2363.445 1.78295 1.77136 1.79103 1.77199 1.74608 1.74806 1.77045 1.75825 1.75019 1.77699
2382.739 1.76012 1.7453 1.7657 1.76537 1.77442 1.8112 1.80491 1.77832 1.77862 1.76427
2402.032 1.775 1.78899 1.8132 1.8254 1.80738 1.7953 1.77884 1.77702 1.77847 1.77794
2421.326 1.75933 1.762 1.77638 1.79852 1.8145 1.80951 1.8348 1.831 1.7831 1.76676
2440.619 1.772 1.78891 1.8168 1.8244 1.8142 1.8173 1.8355 1.7948 1.7747 1.79788
2459.912 1.7878 1.79216 1.8184 1.79642 1.8117 1.8338 1.80168 1.78881 1.79892 1.8334
2479.206 1.8399 1.8484 1.8396 1.8412 1.8345 1.818 1.8126 1.80821 1.8285 1.8116
2498.499 1.78949 1.8276 1.886 1.8834 1.8352 1.80733 1.8197 1.8243 1.854 1.8906
2517.793 1.8823 1.8953 1.8996 1.8722 1.8796 1.8712 1.8667 1.9053 1.8789 1.8438
2537.086 1.8546 1.8885 1.8585 1.8237 1.8681 1.9313 1.9499 1.9326 1.9605 1.9692
2556.380 1.9203 1.9002 1.9156 1.9455 1.9693 1.9933 1.9918 1.916 1.9067 1.9486
2575.673 1.9393 1.9461 1.9596 1.9747 1.981 1.9333 1.9274 1.9488 1.9474 1.9081
2594.966 1.9153 1.9346 1.9434 1.9929 1.9973 1.9713 1.9733 1.9883 1.949 1.9912
2614.260 2.0388 1.9841 1.9795 2.0105 2.0174 2.024 2.0177 2.0018 2.0049 1.9572
2633.553 1.9749 2.018 1.967 1.9726 2.0009 1.9841 1.994 2.0146 2.0246 2.0469
2652.847 2.0434 2.0242 2.03 2.0553 2.0391 2.0156 2.0643 2.0783 2.052 2.0366
2672.140 2.0521 2.0578 2.0556 2.0919 2.0913 2.0638 2.06 2.094 2.0487 2.0138
2691.434 2.0657 2.0925 2.0882 2.0852 2.1082 2.1253 2.1214 2.1424 2.1333 2.1477
2710.727 2.1514 2.078 2.1212 2.174 2.1015 2.069 2.0735 2.0796 2.0871 2.0597
2730.020 2.0652 2.1083 2.1618 2.1617 2.0967 2.0455 2.0142 2.039 2.0854 2.0899
2749.314 2.068 2.0568 2.0524 2.0779 2.1213 2.1167 2.1447 2.1723 2.1327 2.0971
2768.607 2.0843 2.1225 2.1696 2.1802 2.1889 2.1777 2.1596 2.132 2.1292 2.1432
2787.901 2.1544 2.1323 2.1455 2.1634 2.1719 2.1997 2.1827 2.2147 2.2051 2.1636
2807.194 2.1781 2.1624 2.1748 2.1721 2.1307 2.1642 2.1667 2.1502 2.1863 2.1457
2826.488 2.1337 2.1885 2.2342 2.219 2.1382 2.1258 2.2336 2.2827 2.1829 2.1795
2845.781 2.263 2.3363 2.3457 2.323 2.3504 2.3122 2.1895 2.1906 2.2357 2.2981
2865.074 2.3747 2.3221 2.2783 2.256 2.2586 2.2893 2.3111 2.328 2.362 2.3694
2884.368 2.284 2.2622 2.2943 2.3428 2.417 2.4387 2.4332 2.4421 2.4469 2.4228
2903.661 2.4095 2.3875 2.4257 2.4662 2.4347 2.4351 2.4196 2.4241 2.4396 2.389
2922.955 2.3254 2.4221 2.5221 2.4985 2.5199 2.4835 2.4458 2.4248 2.4153 2.3792
2942.248 2.3937 2.4509 2.4136 2.3273 2.2838 2.3458 2.2997 2.3056 2.3912 2.4567
2961.542 2.3862 2.313 2.3495 2.2999 2.3113 2.3412 2.317 2.3017 2.2539 2.2304
2980.835 2.2516 2.2222 2.249 2.3066 2.3108 2.406 2.431 2.3319 2.2769 2.2614
3000.128 2.2719 2.2329 2.2665 2.3067 2.2999 2.3188 2.3634 2.3139 2.3145 2.3633
3019.422 2.2623 2.2329 2.3042 2.3136 2.2986 2.2698 2.2689 2.2839 2.2795 2.2711
3038.715 2.2601 2.3069 2.3615 2.4029 2.4015 2.2975 2.226 2.3256 2.3369 2.3098
3058.009 2.3633 2.3542 2.3541 2.3115 2.2785 2.3375 2.3654 2.4348 2.5583 2.5988
3077.302 2.6163 2.648 2.6425 2.6709 2.6576 2.558 2.526 2.5667 2.5563 2.4246
3096.596 2.2977 2.2962 2.3039 2.2533 2.1952 2.2247 2.2515 2.1681 2.1228 2.1542
3115.889 2.2141 2.2203 2.1128 2.0856 2.1419 2.2034 2.1971 2.1734 2.1688 2.0611
3135.182 2.0152 2.0725 2.1025 2.1573 2.0587 1.9164 2.0483 2.1133 2.0057 1.9616
3154.476 1.9633 2.0338 2.025 2.0844 2.1897 2.146 2.1035 2.0802 2.1105 2.0714
3173.769 1.942 1.9615 2.0861 2.0567 1.9485 1.935 1.9336 1.9427 2.111 2.1321
3193.063 2.0612 2.0443 2.0222 1.9964 1.9659 1.9599 1.8755 1.8445 1.9255 1.9401
3212.356 1.9954 1.9815 1.9087 1.8774 1.79578 1.8216 1.80146 1.8159 1.9014 1.8218
3231.650 1.818 1.9571 2.0036 1.9208 1.9317 1.9123 1.8144 1.9162 2.0151 1.9222
3250.943 1.9158 1.8963 1.8526 1.9124 1.8989 1.9032 1.8678 1.70729 1.77158 1.9042
3270.236 1.9082 1.996 1.9804 1.9793 1.9797 1.825 1.8297 2.022 2.0561 1.9418
3289.530 1.8275 1.8982 1.8322 1.6566 1.6912 1.77265 1.75213 1.73286 1.78989 1.80471
3308.823 1.76555 1.8239 1.8651 1.8134 1.78694 1.76686 1.70785 1.6625 1.72194 1.75834
3328.117 1.73889 1.74998 1.8471 1.9184 1.8682 1.6854 1.573 1.6117 1.6766 1.79844
3347.410 1.9002 1.929 1.9775 2.0202 2.1825 2.3609 2.4825 2.6378 2.83 2.92
3366.704 3.09 3.34 3.36 3.32 3.35 3.28 3.11 3.07 3.03 2.76
3385.997 2.4912 2.2833 2.1344 2.0676 1.914 1.8597 1.9426 1.9051 1.78041 1.6886
3405.290 1.6654 1.6961 1.75826 1.77168 1.73923 1.74398 1.69 1.6455 1.77893 1.8122
3424.584 1.6649 1.6325 1.6978 1.71101 1.74308 1.72601 1.78773 1.8719 1.80761 1.86
3443.877 1.8807 1.9006 1.9291 1.9699 2.0017 2.0457 2.0053 1.9339 2.1675 2.3753
3463.171 2.3469 2.3088 2.4924 2.83 3.21 3.3 3.29 3.56 3.77 3.76
3482.464 3.77 3.84 3.82 3.66 3.46 3.26 3.03 2.74 2.4889 2.4305
3501.758 2.2792 2.0955 2.0441 1.9818 1.883 1.8784 1.8818 1.73512 1.6793 1.70876
3521.051 1.72191 1.6924 1.6315 1.72027 1.8193 1.8153 1.8138 1.861 1.78379 1.6543
3540.344 1.6444 1.71669 1.701 1.6588 1.6451 1.577 1.6292 1.6163 1.532 1.586
3559.638 1.6238 1.6255 1.605 1.592 1.583 1.541 1.535 1.489 1.464 1.499
3578.931 1.528 1.615 1.599 1.579 1.6307 1.6611 1.592 1.493 1.555 1.56
3598.225 1.465 1.451 1.542 1.531 1.52 1.6145 1.633 1.533 1.5 1.534
3617.518 1.51 1.517 1.551 1.603 1.603 1.587 1.6446 1.6394 1.6447 1.581
3636.812 1.521 1.577 1.6653 1.8217 1.8268 1.75382 1.77225 1.6875 1.6409 1.6595
3656.105 1.607 1.585 1.6316 1.6807 1.6791 1.73797 1.71664 1.6544 1.7316 1.76518
3675.398 1.71418 1.711 1.6906 1.6492 1.6301 1.6427 1.6734 1.6711 1.70682 1.80919
3694.692 1.73762 1.7019 1.695 1.567 1.592 1.73102 1.75072 1.71869 1.6909 1.6464
3713.985 1.6265 1.6464 1.629 1.56 1.6295 1.74546 1.75351 1.6635 1.575 1.587
3733.279 1.615 1.6658 1.6791 1.72498 1.8161 1.80715 1.8514 1.822 1.77428 1.79931
3752.572 1.72652 1.6969 1.74224 1.73527 1.669 1.595 1.6265 1.6415 1.6394 1.72757
3771.866 1.75406 1.71837 1.6938 1.676 1.72465 1.8155 1.77525 1.80033 1.8217 1.70683
3791.159 1.6576 1.72113 1.76028 1.74358 1.8284 1.8975 1.8741 1.77437 1.76049 1.77538
3810.452 1.77211 1.76856 1.73519 1.6965 1.71944 1.74572 1.71725 1.79949 1.8509 1.79021
3829.746 1.73945 1.75725 1.74165 1.80595 1.8488 1.8192 1.76106 1.6953 1.7661 1.76991
3849.039 1.78679 1.8666 1.8632 1.8148 1.78498 1.79905 1.8353 1.8236 1.79282 1.8139
3868.333 1.8517 1.8409 1.75285 1.80995 1.9168 1.8328 1.75496 1.71216 1.6934 1.6911
3887.626 1.76245 1.8611 1.8277 1.78546 1.8543 1.8515 1.8386 1.8611 1.9196 1.9308
3906.920 1.8241 1.8572 1.8429 1.8114 1.8262 1.8493 1.9024 1.9166 1.9128 1.9458
3926.213 1.9805 1.9349 1.9013 1.8657 1.8479 1.8887 1.9057 1.8578 1.80951 1.8221
3945.506 1.8769 1.876 1.8589 1.8803 1.9103 1.8792 1.80858 1.8587 1.8955 1.8793
3964.800 1.8805 1.8808 1.8654 1.77896 1.76124 1.8326 1.8773 1.914 1.8916 1.80369
3984.093 1.7867 1.78276 1.78456 1.8512 1.899 1.8878 1.896 1.8929 1.78347
##END=
