##TITLE=2,4-Dibromo-5-methoxytoluene
##JCAMP-DX=4.24
##DATA TYPE=INFRARED SPECTRUM
##ORIGIN=EPA-IR VAPOR PHASE LIBRARY
##OWNER=SRD/NIST
Collection (C) 2018 copyright by the U.S. Secretary of Commerce
on behalf of the United States of America. All rights reserved.
##CAS REGISTRY NO=5456-94-0
##MOLFORM=C 8 H 8 Br 2 O
##$NIST SOURCE=MSDC-IR
##STATE=gas
##XUNITS=1/CM
##YUNITS=ABSORBANCE
##XFACTOR=1.
##YFACTOR=0.001
##DELTAX=1.92898
##FIRSTX=549.8
##LASTX=4000.7
##FIRSTY=1.745
##MAXX=4000.7
##MINX=549.759
##MAXY=0.142435
##MINY=0
##NPOINTS=1790
##XYDATA=(X++(Y..Y))
549.759 1.745 1.835 2.075 2.255 2.445 2.705 2.925 3.005 3.315 4.395
569.049 5.495 6.225 6.545 6.455 6.155 5.185 3.835 3.165 2.445 1.905
588.339 1.745 1.735 1.585 1.585 1.825 1.765 1.855 1.735 1.515 1.635
607.628 1.855 1.955 2.065 1.915 1.835 2.015 2.325 2.635 3.015 3.535
626.918 3.995 4.545 5.365 6.415 7.735 9.585 11.475 13.815 16.805 19.905
646.208 23.405 27.375 31.395 35.115 38.245 40.415 41.085 39.995 37.295 33.195
665.498 28.255 22.985 17.915 13.885 10.925 8.755 7.145 5.975 5.275 4.655
684.787 4.275 4.175 3.835 3.385 3.195 3.045 2.975 2.845 2.685 2.735
704.077 2.715 2.775 3.025 3.415 3.885 4.595 5.125 5.395 5.525 5.425
723.367 5.135 4.615 4.135 3.765 3.435 2.965 2.555 2.425 2.105 1.665
742.657 1.475 1.1665 1.0963 1.215 1.265 1.255 1.1272 1.0982 1.235 1.285
761.947 1.335 1.715 1.945 1.855 1.945 2.065 1.945 1.815 1.845 2.025
781.236 1.855 1.775 1.895 1.575 1.455 1.615 1.415 1.215 1.0518 1.0551
800.526 1.345 1.395 1.325 1.515 1.675 1.525 1.665 1.905 2.085 2.215
819.816 2.385 2.835 3.275 3.725 4.365 5.145 5.995 6.635 7.065 7.495
839.106 7.395 7.035 6.745 6.175 5.635 4.875 4.375 4.365 4.095 3.905
858.395 4.285 4.755 5.555 7.435 9.655 12.525 15.845 19.035 22.205 25.005
877.685 26.225 23.455 19.295 16.075 12.755 9.805 7.455 5.815 4.615 3.815
896.975 3.465 3.275 3.285 3.445 3.545 3.555 3.735 3.985 4.105 4.445
916.265 4.995 5.635 6.465 7.435 8.715 10.075 11.645 13.595 15.525 17.175
935.555 18.255 18.445 17.905 16.695 14.765 12.525 10.415 8.575 7.105 6.125
954.844 5.305 4.775 4.725 4.505 4.175 4.135 4.065 3.885 3.825 3.965
974.134 4.085 4.015 3.975 4.175 4.405 4.515 4.795 5.145 5.525 6.015
993.424 6.555 7.285 8.105 8.965 9.815 10.695 11.475 11.985 12.055 12.285
1012.714 12.825 12.955 13.155 13.645 14.225 14.965 16.065 17.305 18.845 20.585
1032.003 22.285 23.845 25.735 27.475 28.635 30.095 32.085 35.365 40.295 47.405
1051.293 56.875 68.155 80.665 92.785 102.095 107.365 107.585 102.395 92.895 79.835
1070.583 65.115 51.215 39.355 30.175 23.675 18.995 15.515 13.055 11.285 10.235
1089.873 9.145 8.185 8.175 7.895 7.355 6.565 6.005 6.125 5.535 5.055
1109.163 5.195 4.945 4.535 4.295 3.625 3.275 3.475 3.755 4.135 4.395
1128.452 4.505 4.535 4.715 5.005 4.975 4.835 5.205 5.645 5.945 6.555
1147.742 7.815 9.775 12.445 15.455 19.345 24.275 30.155 35.945 39.995 42.445
1167.032 43.265 41.995 39.005 35.045 31.065 27.405 24.225 21.955 20.435 19.445
1186.322 19.065 18.935 18.075 16.775 15.435 13.805 12.125 10.675 9.675 9.465
1205.611 9.525 10.005 10.725 11.065 11.415 12.035 13.365 14.765 16.585 18.665
1224.901 21.065 24.265 28.305 33.885 40.765 49.525 60.065 71.155 82.185 91.245
1244.191 96.605 97.865 94.155 86.645 77.045 66.635 57.475 50.625 45.805 42.605
1263.481 40.045 37.525 35.785 34.635 33.735 32.985 32.315 31.975 31.295 30.115
1282.771 28.565 26.515 24.045 21.255 18.635 16.275 14.025 12.285 11.155 10.255
1302.060 9.505 8.905 8.505 8.275 8.065 7.845 7.585 7.335 7.195 7.095
1321.350 7.045 7.155 7.385 7.715 8.295 9.165 10.355 11.915 14.015 16.825
1340.640 20.605 25.535 31.805 39.775 49.675 61.305 73.905 86.125 96.115 102.225
1359.930 103.345 99.085 90.055 77.715 63.895 50.815 40.145 32.195 26.615 22.955
1379.219 20.765 19.745 19.465 19.195 18.525 17.975 17.615 16.545 14.755 13.075
1398.509 11.855 11.035 10.505 10.305 10.365 10.505 10.735 11.095 11.665 12.425
1417.799 13.395 14.685 16.265 18.235 20.705 23.775 27.695 32.295 37.545 43.385
1437.089 49.555 55.145 59.735 62.915 64.545 65.085 65.065 65.275 66.615 69.805
1456.378 75.475 83.945 94.385 106.225 118.255 129.115 137.285 142.105 142.435 137.495
1475.668 128.135 115.885 102.405 89.055 76.975 67.125 59.465 53.365 48.175 43.335
1494.958 38.695 34.215 30.145 26.405 23.295 21.015 19.065 17.465 16.225 15.135
1514.248 14.185 13.335 12.635 12.005 11.425 11.005 10.715 10.525 10.445 10.495
1533.538 10.675 10.985 11.405 11.795 12.155 12.625 13.015 13.325 13.515 13.505
1552.827 13.395 13.105 12.715 12.345 11.825 11.405 11.315 11.445 11.735 12.205
1572.117 12.895 13.865 14.915 15.635 16.125 16.385 16.115 15.325 14.135 12.765
1591.407 11.245 9.765 8.445 7.315 6.465 5.775 5.275 4.855 4.465 4.195
1610.697 3.985 3.785 3.605 3.445 3.295 3.085 2.905 2.775 2.615 2.485
1629.986 2.375 2.375 2.365 2.245 2.175 2.115 2.065 2.015 2.005 2.015
1649.276 2.025 2.065 2.055 2.015 2.065 2.065 1.985 2.025 2.015 1.935
1668.566 1.905 1.815 1.765 1.785 1.735 1.665 1.545 1.455 1.455 1.465
1687.856 1.445 1.405 1.365 1.365 1.425 1.465 1.545 1.525 1.585 1.685
1707.146 1.665 1.765 1.825 1.825 1.935 1.995 2.005 2.095 2.235 2.305
1726.435 2.305 2.365 2.425 2.565 2.695 2.735 2.755 2.815 2.915 2.835
1745.725 2.725 2.715 2.555 2.315 2.045 1.835 1.655 1.465 1.355 1.275
1765.015 1.1561 1.0005 0.9289 0.9363 0.8839 0.8652 0.8437 0.8037 0.8592 0.8955
1784.305 0.8388 0.8283 0.9019 0.9487 0.9401 0.9633 0.9451 0.8973 0.9458 0.9341
1803.594 0.8582 0.8861 0.8929 0.8513 0.8299 0.8618 0.9345 0.9585 0.9563 1.0032
1822.884 1.0375 1.064 1.0768 1.0584 1.0658 1.0502 1.0626 1.0626 1.047 1.0154
1842.174 0.9306 0.8653 0.8383 0.826 0.866 0.8598 0.8494 0.859 0.8439 0.8798
1861.464 0.8818 0.8431 0.791 0.7994 0.8676 0.9272 0.9826 0.9895 1.0034 1.0543
1880.754 1.0949 1.1359 1.1857 1.255 1.295 1.265 1.205 1.225 1.275 1.255
1900.043 1.235 1.235 1.255 1.305 1.315 1.235 1.235 1.235 1.225 1.235
1919.333 1.1613 1.1095 1.1269 1.1862 1.1917 1.225 1.295 1.345 1.415 1.415
1938.623 1.355 1.405 1.425 1.425 1.545 1.585 1.595 1.685 1.705 1.735
1957.913 1.865 2.035 2.045 2.025 2.015 2.035 2.045 2.035 2.055 1.965
1977.202 1.915 1.935 1.825 1.735 1.735 1.705 1.615 1.515 1.465 1.445
1996.492 1.365 1.245 1.225 1.235 1.225 1.205 1.121 1.0655 1.0846 1.0161
2015.782 0.9856 0.9838 0.9238 0.9041 0.8403 0.7612 0.7507 0.7958 0.8362 0.8477
2035.072 0.8204 0.7602 0.7568 0.8645 0.9016 0.8517 0.8233 0.8567 0.9141 0.9338
2054.362 0.9348 0.9273 0.9156 0.9326 0.9974 1.0717 1.1273 1.195 1.275 1.295
2073.651 1.315 1.345 1.385 1.385 1.355 1.355 1.405 1.415 1.455 1.545
2092.941 1.515 1.475 1.555 1.615 1.545 1.475 1.465 1.475 1.425 1.375
2112.231 1.285 1.205 1.183 1.0795 1.0592 1.0454 0.9296 0.9096 0.889 0.8638
2131.521 0.8226 0.7841 0.7761 0.7481 0.7277 0.775 0.7893 0.7566 0.7344 0.7493
2150.810 0.791 0.8145 0.8796 0.8972 0.8622 0.883 0.9402 0.982 0.9843 1.0252
2170.100 1.1004 1.1338 1.159 1.245 1.245 1.315 1.365 1.245 1.255 1.305
2189.390 1.345 1.335 1.265 1.195 1.1726 1.1558 1.1317 1.0513 0.96 1.0021
2208.680 0.9575 0.8625 0.8946 0.9207 0.8987 0.8595 0.8075 0.7813 0.8041 0.7573
2227.970 0.6265 0.5661 0.602 0.5577 0.5078 0.5843 0.6199 0.5765 0.4891 0.4495
2247.259 0.4768 0.4842 0.4617 0.538 0.5676 0.5472 0.6089 0.5798 0.5557 0.5803
2266.549 0.5564 0.5657 0.6237 0.6806 0.7504 0.7659 0.7457 0.7236 0.764 0.8457
2285.839 0.8428 0.8584 0.9738 1.0633 1.073 1.1261 1.0684 0.9714 0.9951 1.0821
2305.129 1.0602 0.9318 0.8742 0.8241 0.8222 0.7868 0.7237 0.7316 0.8021 0.7926
2324.418 0.7368 0.6765 0.5805 0.6176 0.6111 0.5373 0.5075 0.5045 0.5037 0.5192
2343.708 0.6004 0.5936 0.5705 0.5145 0.4898 0.5521 0.5333 0.5639 0.5103 0.4771
2362.998 0.5012 0.4504 0.5631 0.6097 0.5787 0.6091 0.5723 0.5683 0.6056 0.6715
2382.288 0.7783 0.7754 0.6976 0.7093 0.7669 0.7911 0.9006 0.9508 0.8701 0.8868
2401.578 0.9925 0.9561 0.9064 0.9444 0.9306 0.9813 0.9657 0.9641 1.0391 1.0743
2420.867 1.067 0.9676 0.8641 0.7729 0.7458 0.8155 0.8696 0.7703 0.6867 0.7335
2440.157 0.7261 0.7543 0.7962 0.7705 0.8003 0.7686 0.8086 0.8953 0.8519 0.7969
2459.447 0.776 0.8209 0.8948 0.9328 0.9266 0.9377 1.0152 1.0579 0.9801 0.9801
2478.737 1.0617 1.1473 1.1582 1.1244 1.1689 1.14 1.1041 1.1446 1.205 1.245
2498.026 1.265 1.235 1.225 1.255 1.285 1.355 1.395 1.385 1.375 1.375
2517.316 1.505 1.545 1.475 1.505 1.525 1.505 1.465 1.455 1.415 1.285
2536.606 1.245 1.265 1.1663 1.0892 1.1074 1.0878 1.0549 1.122 1.0849 0.9913
2555.896 0.9409 0.8944 0.8602 0.8866 0.9569 0.8615 0.7778 0.7843 0.789 0.799
2575.186 0.8271 0.8506 0.8572 0.8771 0.9131 0.8859 0.9926 1.1865 1.1553 1.1142
2594.475 1.205 1.245 1.285 1.365 1.395 1.465 1.465 1.375 1.345 1.395
2613.765 1.415 1.345 1.1742 1.1641 1.265 1.275 1.1344 1.0802 1.1224 1.1202
2633.055 1.1039 1.025 0.961 1.0205 1.0872 1.057 1.0537 1.0751 1.0053 0.9481
2652.345 0.8922 0.8526 0.8219 0.8554 0.8206 0.7414 0.7522 0.7388 0.7109 0.6904
2671.634 0.7164 0.6473 0.6318 0.6568 0.622 0.6673 0.7489 0.7812 0.7576 0.7181
2690.924 0.7652 0.7673 0.7639 0.8587 0.8297 0.8118 0.8939 0.9592 0.9315 0.899
2710.214 1.0062 1.077 1.041 0.9714 0.9953 1.0422 1.1285 1.1105 1.0374 1.0685
2729.504 0.9442 0.9001 0.9545 0.9656 1.0883 1.245 1.345 1.375 1.405 1.495
2748.794 1.605 1.745 1.855 1.865 1.735 1.665 1.605 1.525 1.575 1.635
2768.083 1.565 1.435 1.435 1.455 1.435 1.455 1.565 1.615 1.675 1.805
2787.373 1.945 2.065 2.075 2.185 2.275 2.505 2.715 2.735 2.955 3.125
2806.663 3.195 3.345 3.515 3.715 3.955 4.215 4.455 4.765 5.045 5.215
2825.953 5.595 6.125 6.595 7.155 7.775 8.635 9.635 10.845 12.475 14.215
2845.242 16.145 17.975 19.375 20.365 20.725 20.355 19.385 17.945 16.375 15.095
2864.532 14.095 13.335 12.615 11.985 11.555 11.335 11.085 10.745 10.615 10.465
2883.822 10.305 10.205 10.135 10.215 10.255 10.465 10.735 10.925 11.285 11.665
2903.112 12.025 12.515 13.095 13.715 14.425 15.235 15.905 16.635 17.445 18.185
2922.401 19.295 20.515 21.975 24.115 26.615 29.445 32.295 34.965 37.395 39.145
2941.691 40.005 39.895 38.905 37.405 35.505 33.355 31.275 29.495 28.155 27.375
2960.981 27.045 26.775 26.255 25.425 24.295 22.845 21.465 20.165 19.015 18.225
2980.271 17.705 17.325 16.985 16.725 16.625 16.345 15.995 15.815 15.655 15.725
2999.561 16.015 16.475 17.425 18.865 20.375 21.935 23.065 23.315 22.735 21.275
3018.850 19.095 16.635 14.165 12.085 10.605 9.585 8.835 8.225 7.685 7.315
3038.140 7.055 6.715 6.555 6.545 6.535 6.525 6.535 6.725 6.915 7.035
3057.430 7.265 7.445 7.475 7.495 7.515 7.395 7.085 6.775 6.435 6.015
3076.720 5.625 5.175 4.665 4.295 3.915 3.605 3.585 3.345 3.235 3.195
3096.009 2.945 2.805 2.725 2.625 2.415 2.235 2.215 2.235 2.165 2.065
3115.299 2.035 1.805 1.645 1.665 1.645 1.465 1.415 1.405 1.265 1.425
3134.589 1.505 1.485 1.405 1.275 1.295 1.445 1.395 1.225 1.1319 1.0267
3153.879 1.0596 1.1021 1.101 1.0857 1.1076 1.0881 0.9141 0.9028 0.9622 0.8297
3173.169 0.7066 0.8559 0.9213 0.7743 0.6533 0.6169 0.6619 0.6876 0.7788 0.7127
3192.458 0.6235 0.6567 0.6052 0.4336 0.3975 0.5451 0.7429 0.7569 0.5309 0.4833
3211.748 0.4981 0.5119 0.6262 0.6525 0.5903 0.4773 0.4015 0.3665 0.3079 0.3262
3231.038 0.3138 0.28129 0.4217 0.4991 0.3982 0.4069 0.4577 0.3012 0.22847 0.26628
3250.328 0.3576 0.3918 0.4012 0.3939 0.3947 0.3614 0.3242 0.4635 0.3623 0.24255
3269.617 0.3346 0.3548 0.3905 0.3793 0.28365 0.24235 0.25161 0.23215 0.22025 0.22899
3288.907 0.25642 0.3214 0.3554 0.3727 0.4697 0.4811 0.26424 0.1579 0.21274 0.23479
3308.197 0.22713 0.28673 0.28678 0.1461 0.1166 0.21209 0.22074 0.23884 0.18777 0.048
3327.487 0.2423 0.2972 0.1692 0.3017 0.22619 0.169 0.3285 0.2974 0.26999 0.3106
3346.777 0.25282 0.383 0.3395 0.1681 0.21787 0.3606 0.3502 0.28675 0.355 0.335
3366.066 0.2953 0.3284 0.26744 0.22455 0.24168 0.3274 0.4508 0.3227 0.27359 0.1796
3385.356 0.1098 0.21874 0.1699 0.21522 0.1439 0.1394 0.3009 0.24598 0.19172 0.21313
3404.646 0.20284 0.1212 0.201941 0.3164 0.27209 0.3028 0.20846 0.20556 0.3198 0.3266
3423.936 0.25551 0.1701 0.1692 0.1397 0.1779 0.086 0.1112 0.3149 0.29434 0.25834
3443.225 0.3972 0.4838 0.376 0.3735 0.4096 0.3247 0.24925 0.1171 0.1667 0.27715
3462.515 0.28926 0.3403 0.21934 0.22533 0.3439 0.3311 0.3285 0.143 0.04 0.22469
3481.805 0.22857 0.048 0.049 0.1807 0.20547 0.18825 0.22005 0.3281 0.4013 0.4218
3501.095 0.29175 0.18667 0.28203 0.24517 0.2612 0.200624 0.084 0.23642 0.3199 0.28868
3520.385 0.1574 0.094 0.22274 0.19081 0.1028 0.1215 0.1336 0.25096 0.25818 0.3845
3539.674 0.3885 0.1206 0.24755 0.2968 0.22905 0.18963 0.18965 0.24542 0.1399 0.28513
3558.964 0.5192 0.4708 0.4205 0.3411 0.3404 0.3736 0.27142 0.3074 0.2709 0.22103
3578.254 0.21671 0.089 0.01 0.19105 0.3863 0.4043 0.396 0.3913 0.2999 0.26126
3597.544 0.3712 0.29147 0.1665 0.195052 0.28239 0.25173 0.1477 0.1054 0.1233 0.20715
3616.833 0.3079 0.25068 0.23399 0.3368 0.314 0.24938 0.25614 0.3789 0.2668 0.089
3636.123 0.21453 0.23086 0.1146 0.1252 0.058 0.052 0.09 0.19329 0.3482 0.22506
3655.413 0.1472 0.195071 0.197361 0.1494 0.197488 0.26683 0.297 0.28486 0.1656 0.1312
3674.703 0.1662 0.1775 0.185 0.203109 0.24081 0.27178 0.3588 0.4281 0.3102 0.28274
3693.993 0.4084 0.4006 0.3539 0.422 0.3164 0.083 0.026 0.194439 0.28014 0.1715
3713.282 0.1518 0.1095 0.0982 0.22549 0.2985 0.5115 0.5494 0.3233 0.1658 0.093
3732.572 0.07 0.1293 0.3681 0.4731 0.3538 0.20629 0.27915 0.3408 0.3477 0.4034
3751.862 0.24644 0.1838 0.362 0.4074 0.3557 0.3888 0.377 0.3416 0.28022 0.1403
3771.152 0.27755 0.4871 0.3769 0.3134 0.175 0 0.047 0.068 0.22636 0.3726
3790.441 0.4062 0.4861 0.3777 0.3297 0.3747 0.408 0.4392 0.4922 0.5759 0.5194
3809.731 0.3981 0.3332 0.366 0.4391 0.4719 0.4433 0.3224 0.3148 0.4478 0.3485
3829.021 0.3505 0.3779 0.3185 0.28361 0.3698 0.5366 0.5252 0.4663 0.29149 0.27061
3848.311 0.3065 0.28685 0.24145 0.3868 0.4977 0.3206 0.4028 0.5835 0.574 0.4834
3867.601 0.4985 0.5955 0.4904 0.3832 0.3718 0.3319 0.3646 0.3792 0.3543 0.4195
3886.890 0.5639 0.5148 0.3905 0.4133 0.5185 0.5499 0.4487 0.4317 0.5127 0.6177
3906.180 0.5672 0.5467 0.5884 0.4932 0.3775 0.3562 0.4987 0.5044 0.1469 0.072
3925.470 0.3024 0.3238 0.3698 0.3707 0.2969 0.4702 0.4722 0.28876 0.5687 0.545
3944.760 0.27406 0.20685 0.28442 0.4551 0.399 0.3691 0.4348 0.5132 0.4815 0.4342
3964.049 0.5017 0.5109 0.4159 0.4259 0.4801 0.4814 0.5189 0.5954 0.6228 0.552
3983.339 0.4692 0.388 0.4802 0.6793 0.6565 0.7392 0.7253 0.5907 0.6609 0.5988
##END=
