##TITLE=1-Methylbutylcyclopropane
##JCAMP-DX=4.24
##DATA TYPE=INFRARED SPECTRUM
##ORIGIN=NIST Mass Spectrometry Data Center
##OWNER=NIST Standard Reference Data Program
Collection (C) 2018 copyright by the U.S. Secretary of Commerce
on behalf of the United States of America. All rights reserved.
##CAS REGISTRY NO=5458-16-2
##MOLFORM=C 8 H 16
##$NIST SOURCE=MSDC-IR
##SPECTROMETER/DATA SYSTEM=HP-GC/MS/IRD
##STATE=gas
##XUNITS=1/CM
##YUNITS=ABSORBANCE
##XFACTOR=1.0
##YFACTOR=0.000002900
##DELTAX=4.0
##FIRSTX=550.0
##LASTX=3846.0
##FIRSTY=0.000325
##MAXX=3846
##MINX=550
##MAXY=0.029
##MINY=0
##NPOINTS=825
##XYDATA=(X++(Y..Y))
550.0 112 68 21 43 53 44 43 18 17 27
590.0 35 36 26 22 23 21 11 1 12 36
630.0 30 4 4 24 24 14 26 32 24 30
670.0 44 39 44 49 42 71 80 65 75 99
710.0 104 116 141 151 166 172 163 150 132 129
750.0 124 117 115 99 99 101 92 101 117 120
790.0 133 177 244 337 482 643 720 738 725 664
830.0 551 430 338 286 262 243 244 248 258 277
870.0 283 293 323 383 452 538 641 729 776 790
910.0 745 642 552 484 419 358 320 309 307 298
950.0 289 277 257 238 225 221 225 239 256 272
990.0 309 363 462 635 868 1102 1247 1299 1251 1114
1030.0 895 684 559 472 403 358 311 258 213 167
1070.0 149 146 139 137 135 145 161 179 187 190
1110.0 206 214 218 225 231 253 280 284 285 294
1150.0 296 285 255 228 206 198 207 206 198 190
1190.0 178 164 153 140 130 119 109 112 110 121
1230.0 141 151 145 144 140 135 139 144 160 173
1270.0 193 220 242 262 281 307 331 347 351 342
1310.0 329 304 273 254 245 245 252 263 280 298
1350.0 315 349 408 485 577 682 781 856 911 896
1390.0 802 666 520 400 324 287 283 304 344 399
1430.0 452 534 647 777 932 1098 1259 1392 1438 1386
1470.0 1273 1103 899 705 538 401 305 235 192 164
1510.0 141 127 120 113 103 93 87 84 76 69
1550.0 64 59 58 57 53 55 62 61 50 41
1590.0 38 40 41 44 49 49 54 56 48 49
1630.0 56 61 58 54 48 46 44 40 38 33
1670.0 33 36 37 34 30 27 31 29 28 28
1710.0 26 23 23 21 26 26 22 26 28 27
1750.0 31 32 39 42 41 44 42 35 37 38
1790.0 32 36 39 43 44 39 34 36 39 42
1830.0 43 37 34 36 38 41 44 44 41 37
1870.0 35 33 36 35 40 48 51 55 60 64
1910.0 69 79 86 85 79 69 63 58 53 57
1950.0 56 46 37 28 22 20 20 19 20 22
1990.0 21 21 21 18 22 25 26 28 28 33
2030.0 47 57 66 77 86 92 98 97 92 83
2070.0 68 58 55 48 45 42 38 33 25 18
2110.0 14 9 9 13 10 15 20 22 18 13
2150.0 15 16 15 13 14 10 6 12 17 13
2190.0 13 12 12 16 13 14 19 20 15 11
2230.0 15 16 13 11 16 21 18 16 13 13
2270.0 14 11 7 6 10 7 0 5 9 7
2310.0 11 13 18 18 15 17 17 20 18 18
2350.0 17 15 18 19 22 25 23 19 15 15
2390.0 17 21 25 29 30 26 21 20 17 13
2430.0 19 24 25 23 18 22 26 28 33 42
2470.0 46 49 46 40 35 28 27 34 32 24
2510.0 23 26 29 32 24 19 28 32 34 39
2550.0 41 43 48 48 55 60 63 65 68 74
2590.0 75 69 68 75 81 81 76 71 75 84
2630.0 87 86 88 85 82 85 90 94 96 99
2670.0 101 104 96 95 101 106 110 109 113 115
2710.0 121 136 145 148 156 174 190 205 210 209
2750.0 200 197 196 194 194 198 212 223 234 250
2790.0 263 282 306 336 363 395 444 498 559 632
2830.0 727 855 1027 1252 1515 1800 2128 2487 2870 3336
2870.0 3899 4459 4809 4964 4995 4918 4781 4719 4804 5024
2910.0 5310 5605 5893 6153 6371 6572 6710 6743 6754 6839
2950.0 7094 7696 8712 9675 10000 9643 8722 7364 5788 4520
2990.0 3882 3696 3661 3659 3630 3470 3192 2799 2315 1830
3030.0 1437 1144 930 785 703 670 688 788 988 1286
3070.0 1687 2100 2468 2610 2330 1969 1538 1082 744 520
3110.0 392 312 261 233 219 215 206 193 193 195
3150.0 189 184 177 163 166 173 163 156 156 146
3190.0 142 137 126 113 98 88 84 67 53 58
3230.0 59 57 53 42 37 43 50 51 45 40
3270.0 39 39 42 35 31 39 41 36 39 36
3310.0 30 35 36 34 29 23 16 19 26 30
3350.0 34 32 26 25 35 37 30 32 36 39
3390.0 45 38 31 26 24 28 29 27 24 26
3430.0 29 21 20 24 19 20 24 27 22 19
3470.0 26 26 18 19 20 14 15 17 23 15
3510.0 8 10 13 13 17 17 5 0 10 17
3550.0 21 31 22 15 28 30 24 24 20 21
3590.0 25 29 31 28 22 16 18 14 12 29
3630.0 35 19 19 31 38 37 37 37 30 27
3670.0 31 36 34 39 44 35 25 36 41 35
3710.0 44 45 32 28 29 28 35 42 44 41
3750.0 41 28 31 37 32 34 31 36 40 35
3790.0 33 37 42 44 48 51 54 57 51 50
3830.0 48 53 56 50 45
##END=
