##TITLE=4,6-Dimethyl-2-mercaptopyridine-3-carbonitrile
##JCAMP-DX=4.24
##DATA TYPE=INFRARED SPECTRUM
##ORIGIN=EPA-IR VAPOR PHASE LIBRARY
##OWNER=SRD/NIST
Collection (C) 2018 copyright by the U.S. Secretary of Commerce
on behalf of the United States of America. All rights reserved.
##CAS REGISTRY NO=54585-47-6
##MOLFORM=C 8 H 8 N 2 S
##$NIST SOURCE=MSDC-IR
##STATE=gas
##XUNITS=1/CM
##YUNITS=ABSORBANCE
##XFACTOR=1.
##YFACTOR=0.001
##DELTAX=1.92898
##FIRSTX=549.8
##LASTX=4000.7
##FIRSTY=1.302
##MAXX=4000.7
##MINX=549.759
##MAXY=0.03324
##MINY=0
##NPOINTS=1790
##XYDATA=(X++(Y..Y))
549.759 1.302 1.44 1.5 1.3613 1.43 1.49 1.3494 1.2093 1.2284 0.7908
569.049 0.241 0.299 0.597 0.8785 1.121 1.0145 0.48318 0.23 0.51184 0.48662
588.339 0.24 0.5318 1.1771 1.3826 1.2547 1.68 1.65 1.1072 0.963 0.9417
607.628 0.9257 0.9245 0.9873 0.9648 0.778 0.45701 0.44759 0.6837 0.7087 0.6072
626.918 0.6552 0.6366 0.8714 0.8923 0.6921 0.9203 1.1451 0.8005 0.249 0.264
646.208 0.5098 0.7967 0.46688 0 0.025 0.283 0.3658 0.46914 0.8227 0.846
665.498 0.8935 1.0773 0.7341 0.6146 0.8628 0.9374 0.7941 0.6887 0.8131 0.7173
684.787 0.985 1.0189 0.8507 0.8618 0.7405 0.6566 0.6744 0.8689 1.024 0.9738
704.077 1.1097 1.2157 0.9569 0.8057 0.9395 1.2607 1.31 1.47 1.4126 1.0199
723.367 1.3083 1.5 1.2859 1.43 1.2461 0.8166 0.7015 1.082 1.3 0.8698
742.657 0.7917 1.0227 1.0776 0.9403 0.5916 0.7363 1.0597 0.7347 0.7665 1.2017
761.947 1.0828 0.8772 0.9062 0.7573 0.5808 0.6794 0.5428 0.4329 0.419926 0.3333
781.236 0.51633 0.5358 0.304 0.3824 0.7738 0.8177 0.821 0.845 0.6198 0.5409
800.526 0.6838 0.9215 1.1323 1.1321 1.3319 1.49 1.187 1.2496 1.3481 1.3228
819.816 1.6 1.58 1.7 1.78 1.77 1.81 1.99 2.33 2.46 2.64
839.106 2.78 2.99 3.47 4.05 4.85 5.62 6.41 6.78 6.27 6.02
858.395 6.38 6.96 7 7.52 8.1 7.82 8.05 8.38 8.23 7.86
877.685 7.26 6.41 5.14 4.29 3.78 3.06 2.61 2.36 2.25 2.02
896.975 1.91 1.98 1.73 1.65 1.97 2.37 2.4 2.3 2.27 2.19
916.265 2.16 2.32 2.56 2.45 2.27 2.25 1.96 1.97 2.03 1.97
935.555 1.78 1.42 1.44 1.3425 1.2598 1.1078 1.0593 1.1618 1.4126 1.47
954.844 1.2294 1.3248 1.3694 1.2609 1.2515 1.3042 1.3547 1.47 1.48 1.51
974.134 1.3567 1.3041 1.67 1.77 1.85 2.05 2.01 1.75 1.44 1.61
993.424 1.8 1.86 1.81 1.49 1.3805 1.68 1.76 1.69 1.97 2.04
1012.714 1.62 1.48 1.283 1.1319 1.45 0.8859 0.9081 1.29 0.8656 0.7573
1032.003 1.0544 1.1819 1.0442 1.3067 1.3378 0.8223 0.728 1.0369 1.0281 1.0343
1051.293 1.3934 1.63 1.5 1.1936 0.775 0.8519 1.66 1.53 0.8568 0.6491
1070.583 0.9553 1.3416 1.0391 0.7169 0.6812 0.9236 1.2463 1.1616 1.0776 1.88
1089.873 1.94 1.3382 1.66 0.7748 0.319 1.1591 1.385 0.9556 0.121 0.135
1109.163 0.3522 0.677 0.5456 0.4322 1.256 1.55 1.94 2.23 1.69 1.75
1128.452 2.49 2.46 1.89 2.34 2.58 2.14 2.23 2.15 1.94 1.8
1147.742 2.18 1.98 1.3774 1.62 1.74 2.11 2.44 2.12 2.1 2.12
1167.032 2.15 2.38 2.46 2.62 2.78 2.88 2.63 2.81 2.36 1.74
1186.322 2.22 2.07 1.89 2.15 2.11 2.1 2.7 2.8 2.16 2.04
1205.611 2.8 3.69 3.76 3.51 3.92 3.96 3.25 3.63 3.89 3.32
1224.901 2.85 2.55 2.77 3.05 3.08 3.67 4.36 4.16 4.26 4.7
1244.191 4.83 5.04 5.83 6.47 6.51 6.8 7.61 8.53 9.22 10.11
1263.481 11.11 11.76 12.17 12.67 13 12.75 12.31 11.52 10.33 9.02
1282.771 7.57 6.03 4.57 3.56 3.16 2.89 2.6 2.3 2.15 2.09
1302.060 1.97 2.06 2.14 1.95 1.91 1.94 1.94 2.08 2.11 2.15
1321.350 2.19 2.15 2.12 2.24 2.39 2.64 3.04 3.37 3.86 4.55
1340.640 5.48 6.55 7.71 8.97 10.06 11.07 11.91 12.49 12.78 12.79
1359.930 12.52 11.99 11.37 10.61 9.71 9.06 8.7 8.31 8.19 8.32
1379.219 8.26 8.21 8.29 8.17 7.84 7.51 7.16 6.73 6.19 5.83
1398.509 5.62 5.5 5.39 5.27 5.39 5.51 5.58 5.85 6.27 6.58
1417.799 6.79 7.17 7.65 8 8.3 8.49 8.52 8.56 8.67 8.52
1437.089 8.46 8.62 8.69 8.81 8.9 8.9 8.87 8.92 8.99 8.75
1456.378 8.26 8.09 7.92 7.58 7.25 6.94 6.65 6.29 5.83 5.64
1475.668 5.64 5.64 5.75 5.86 6.09 6.17 6.18 6.36 6.67 7
1494.958 7.27 7.46 7.75 8.12 8.6 8.91 9.22 9.82 10.4 11.02
1514.248 11.68 12.27 12.74 13.09 13.72 14.3 14.88 15.58 16.11 16.51
1533.538 16.86 17.31 17.65 17.96 18.39 18.81 19.18 19.45 19.35 19.23
1552.827 19.16 19.04 18.9 18.65 18.95 19.63 20.38 21.47 22.82 24.46
1572.117 26.38 28.37 30.42 32.22 33.24 33.18 32.39 30.88 28.67 26.07
1591.407 23.06 19.58 16.12 12.98 10.27 8.3 6.91 5.78 5.02 4.52
1610.697 4.03 3.67 3.38 3.09 3.03 2.92 2.66 2.46 2.2 2.02
1629.986 2.06 1.93 1.62 1.3887 1.43 1.42 1.43 1.52 1.3129 1.1376
1649.276 1.2498 1.2313 1.0363 1.1775 1.3078 1.2207 1.1971 1.2142 1.2976 1.2934
1668.566 1.2258 1.1836 1.0705 0.8894 0.971 1.1762 1.2168 1.1551 1.0102 1.1053
1687.856 1.1056 1.1343 1.4081 1.407 1.3556 1.2881 1.0208 1.0626 1.2544 1.1227
1707.146 1.0348 0.9935 0.8852 0.8681 0.7541 0.5989 0.6273 0.6657 0.6777 0.7788
1726.435 0.8123 0.8818 0.7606 0.51975 0.5627 0.8086 0.9182 0.7879 0.7357 0.7433
1745.725 0.7491 0.7128 0.6551 0.6231 0.7637 0.8578 0.7672 0.7271 0.6048 0.6269
1765.015 0.7955 0.7808 0.6605 0.5464 0.6334 0.8278 0.8194 0.7448 0.6958 0.7174
1784.305 0.6401 0.5991 0.7194 0.6628 0.6034 0.7017 0.6861 0.5882 0.5502 0.661
1803.594 0.7768 0.8402 0.8792 0.8382 0.8181 0.834 0.7935 0.6604 0.687 0.8437
1822.884 0.8599 0.7168 0.7469 0.6908 0.6276 0.7192 0.7562 0.6742 0.662 0.7946
1842.174 0.6981 0.726 0.8129 0.6295 0.5934 0.6504 0.675 0.7217 0.6964 0.8044
1861.464 0.8346 0.7378 0.7752 0.7773 0.7617 0.7677 0.7666 0.7778 0.7836 0.8015
1880.754 0.8294 0.8017 0.7623 0.834 0.8456 0.8131 0.7572 0.6618 0.7751 0.8819
1900.043 0.8607 0.8129 0.7287 0.7488 0.8078 0.7925 0.7816 0.7993 0.7306 0.6541
1919.333 0.7019 0.7957 0.8638 0.854 0.808 0.8065 0.811 0.7605 0.7602 0.7568
1938.623 0.785 0.8037 0.7592 0.7708 0.7086 0.7568 0.8057 0.777 0.7624 0.7421
1957.913 0.7881 0.8057 0.7233 0.6415 0.6972 0.7605 0.7894 0.7872 0.765 0.7569
1977.202 0.7847 0.7674 0.7098 0.6541 0.6657 0.6664 0.6618 0.7192 0.7556 0.7061
1996.492 0.6727 0.7466 0.6986 0.722 0.7534 0.6891 0.6975 0.699 0.6366 0.6959
2015.782 0.7539 0.6816 0.66 0.7021 0.7238 0.8198 0.8609 0.8089 0.846 0.7896
2035.072 0.7304 0.8308 0.8132 0.677 0.7241 0.7435 0.6845 0.69 0.6854 0.7103
2054.362 0.7204 0.6064 0.5971 0.7585 0.7465 0.6914 0.7577 0.7691 0.7352 0.7331
2073.651 0.845 0.8361 0.785 0.8392 0.8213 0.8087 0.8232 0.8367 0.7282 0.7796
2092.941 0.8227 0.7347 0.8195 0.8873 0.9139 0.8563 0.8835 0.8994 0.8434 0.899
2112.231 0.9218 0.8588 0.8291 0.857 0.8982 0.9302 0.8956 0.8684 0.8746 0.7701
2131.521 0.6839 0.7858 0.7855 0.7647 0.8514 0.9712 0.8657 0.7471 0.7815 0.8409
2150.810 0.9511 0.9243 0.9383 0.9563 0.8805 0.8333 0.821 0.7679 0.7722 0.8267
2170.100 0.796 0.8104 0.7887 0.748 0.8328 0.8143 0.7379 0.7663 0.8409 0.8884
2189.390 0.8723 0.7722 0.7648 0.8579 0.8387 1.0043 1.1928 1.2908 1.53 1.69
2208.680 1.84 2.18 2.58 3.1 3.47 3.62 3.83 3.96 4.03 3.79
2227.970 3.39 3.02 2.61 2.1 1.7 1.56 1.2952 0.9984 0.9792 0.9572
2247.259 0.8272 0.7854 0.7814 0.802 0.8334 0.8157 0.8214 0.7659 0.7489 0.9294
2266.549 0.9003 0.9179 0.9325 0.8883 0.8182 0.7785 0.7952 0.7988 0.926 0.8509
2285.839 0.9131 0.9515 0.778 0.5831 0.5578 0.6951 0.6991 0.7124 0.7348 0.764
2305.129 0.8306 0.7561 0.7323 0.8373 0.8318 0.8688 0.8872 0.8928 0.864 0.8528
2324.418 0.8438 0.8607 0.9392 0.8035 0.6864 0.7078 0.7313 0.672 0.6545 0.727
2343.708 0.8408 0.881 0.9997 0.9642 0.8253 0.9587 0.8955 0.6189 0.7223 0.9481
2362.998 0.9491 0.9764 1.0104 0.9617 0.9123 0.9316 0.9328 0.8683 0.7718 0.7591
2382.288 0.9157 0.9009 0.7804 0.8903 0.9831 0.9133 0.9373 0.997 0.8661 0.7898
2401.578 0.752 0.7784 0.9137 0.9045 0.8423 0.8575 0.804 0.7891 0.713 0.699
2420.867 0.7832 0.7313 0.7308 0.7395 0.8425 0.9516 0.8575 0.7565 0.8635 1.0406
2440.157 0.9537 0.8196 0.7325 0.8164 0.9124 0.8449 0.9087 0.9717 0.8395 0.8432
2459.447 0.8112 0.8386 0.9409 0.8198 0.7801 0.7255 0.7938 0.7722 0.7707 0.9366
2478.737 0.9772 0.9578 0.9454 0.9307 0.8697 0.8511 0.9085 1.0752 1.0157 0.8993
2498.026 0.9233 0.9242 0.9368 0.8078 0.778 0.6663 0.5471 0.6335 0.6957 0.8641
2517.316 0.8511 0.8292 0.8629 0.7978 0.7557 0.5619 0.5761 0.7902 0.8764 0.8707
2536.606 0.8048 0.7215 0.709 0.6826 0.6645 0.6269 0.6869 0.6759 0.6925 0.7849
2555.896 0.7178 0.7319 0.819 0.9278 0.8537 0.749 0.8402 0.7627 0.7858 0.844
2575.186 0.8503 1.0947 1.1808 1.2053 1.3023 1.3616 1.4197 1.48 1.47 1.54
2594.475 1.81 1.74 1.51 1.391 1.2872 1.2796 1.1708 1.0587 1.0075 0.9804
2613.765 0.9487 0.8802 0.7281 0.7597 0.8785 0.9231 1.0517 0.994 0.7546 0.7255
2633.055 0.901 1.1447 1.1242 0.9597 1.0105 1.1615 1.1521 0.9996 0.8941 0.8613
2652.345 0.8905 0.9685 1.0452 1.0317 1.0426 1.0793 1.0775 1.0143 0.9693 0.754
2671.634 0.7748 0.9676 0.9794 0.9109 0.9172 1.0046 0.8974 0.7475 0.6895 0.8448
2690.924 0.837 0.7602 0.8408 0.7987 0.7128 0.669 0.6836 0.6472 0.7643 0.9439
2710.214 0.941 0.8736 0.8216 0.8073 0.8781 0.9809 0.9859 0.9087 0.8852 1.0036
2729.504 0.9469 0.6249 0.541 0.9397 1.1303 1.0325 0.9019 0.8002 0.7798 0.8803
2748.794 1.0229 1.0288 0.8896 0.8757 0.9624 0.9878 0.9866 0.9444 0.8021 0.774
2768.083 0.8653 0.8473 0.8734 0.7769 0.8048 0.9508 1.0244 1.0928 0.938 0.8459
2787.373 1.0463 1.028 0.8818 0.886 0.8363 0.6848 0.6784 0.8433 1.0156 0.9646
2806.663 0.7623 0.8982 0.911 0.742 0.8719 1.0001 0.9547 1.0095 0.9929 0.9323
2825.953 1.1559 1.3118 1.237 1.2638 1.2409 1.1491 1.0037 0.9923 1.0977 1.3144
2845.242 1.65 1.68 1.68 1.53 1.4195 1.75 1.91 1.77 1.75 1.7
2864.532 1.72 1.79 1.86 1.75 1.78 1.81 1.63 1.58 1.73 1.64
2883.822 1.51 1.74 1.85 1.81 1.58 1.51 1.7 1.77 1.75 1.78
2903.112 1.89 2.12 2.16 2.16 2.3 2.58 2.74 2.75 2.99 3.3
2922.401 3.5 3.91 4.3 4.47 4.6 4.89 5.26 5.49 5.48 5.13
2941.691 4.92 4.74 4.29 3.99 3.77 3.36 3.14 2.97 2.76 2.65
2960.981 2.44 2.41 2.34 2.54 2.67 2.46 2.37 2.18 2.16 2.28
2980.271 2.52 2.53 2.48 2.67 2.88 2.67 2.52 2.81 2.94 3.01
2999.561 2.96 2.67 2.51 2.56 2.49 2.5 2.53 2.33 2.24 2.01
3018.850 2.08 2.31 2.12 2.12 2.24 2.32 2.3 2.28 2.4 2.43
3038.140 2.68 3.03 2.92 3.02 3.33 3.42 3.65 3.76 3.54 3.74
3057.430 3.67 3.22 3.05 2.95 3.07 2.73 2.23 2.03 1.8 1.7
3076.720 1.69 1.58 1.62 1.55 1.3775 1.2916 1.0875 1.1081 1.1609 1.2793
3096.009 1.3907 1.1274 0.93 1.0987 1.164 1.1979 1.2362 1.1295 1.2126 1.1601
3115.299 1.0009 1.0171 0.9569 0.9928 1.1057 0.8889 0.9007 1.1238 0.9266 0.7443
3134.589 0.8692 0.9768 0.6335 0.6672 0.9581 0.9254 0.9889 0.968 0.9968 0.9097
3153.879 0.6365 0.576 0.6309 0.7217 0.8865 0.9159 0.8897 0.948 0.8125 0.584
3173.169 0.5537 0.6179 0.7555 1.0658 1.1091 1.0337 0.9945 0.7489 0.50327 0.4078
3192.458 0.48158 0.5623 0.8249 0.7485 0.6808 0.832 0.7645 0.7741 0.6778 0.5306
3211.748 0.7506 1.0609 0.8068 0.5657 0.48628 0.45563 0.5339 0.5959 0.7518 0.589
3231.038 0.4881 0.8231 1.135 0.9634 0.8729 0.8762 0.54 0.44183 0.5514 0.862
3250.328 0.8049 0.45872 0.6669 0.7525 0.5933 0.6575 0.6771 0.531 0.49383 0.5734
3269.617 0.6272 0.5215 0.5518 0.7388 0.7193 0.7976 1.1291 1.011 0.7776 0.809
3288.907 0.7898 0.8843 0.6444 0.4137 0.6293 0.424852 0.3713 0.48812 0.224 0.3385
3308.197 0.6216 0.9165 0.8587 0.5783 0.5515 0.5867 0.5585 0.6142 0.849 0.8228
3327.487 0.5433 0.3397 0.36 0.555 0.45938 0.435 0.8465 0.9646 0.549 0.358
3346.777 0.3995 0.6446 0.6949 0.41069 0.6538 1.0503 1.0729 0.7988 0.8308 0.965
3366.066 0.9246 0.9781 0.9436 0.7845 0.97 0.9531 0.44532 0.43775 0.76 0.9214
3385.356 0.8538 0.837 0.9235 0.7983 0.8603 0.9765 1.0099 1.0557 0.725 0.5834
3404.646 0.7832 0.5437 0.48205 0.6759 0.6104 0.5205 0.43209 0.654 1.0142 0.9764
3423.936 0.6743 0.8638 0.6911 0.51146 0.6165 0.44325 0.7067 0.7957 0.6732 0.7945
3443.225 0.7759 0.674 0.50856 0.3754 0.5289 0.5868 0.454 0.235 0.3489 0.7558
3462.515 0.7481 0.48946 0.7503 0.6326 0.3608 0.6248 0.5777 0.6176 0.8739 0.9142
3481.805 0.6893 0.7094 0.6116 0.658 1.0152 0.8691 0.5659 0.7482 0.6435 0.3814
3501.095 0.6888 0.8356 0.8891 0.8018 0.7846 0.6368 0.303 0.274 0.51319 0.50152
3520.385 0.45687 0.45144 0.47857 0.6982 0.6204 0.6136 0.8142 0.6347 0.5264 0.7697
3539.674 0.731 0.6497 0.32 0.221 0.6432 0.50097 0.271 0.5282 0.6487 0.659
3558.964 0.5693 0.532 0.7448 0.8297 0.5876 0.422549 0.7303 0.7386 0.5496 0.6503
3578.254 0.7752 0.8584 0.9382 0.7961 0.3396 0.14 0.3223 0.3866 0.225 0.3221
3597.544 0.42106 0.5488 0.47688 0.3992 0.41318 0.165 0.219 0.222 0.253 0.3279
3616.833 0.364 0.5733 0.5838 0.5806 0.5452 0.3623 0.48677 0.5468 0.5777 0.5287
3636.123 0.5363 0.7684 0.6765 0.6179 0.6737 0.6898 0.6501 0.7446 0.8033 0.7551
3655.413 0.7368 0.6267 0.5499 0.6447 0.6984 0.6342 0.6252 0.702 0.8128 0.6851
3674.703 0.44154 0.41743 0.5852 0.7642 0.718 0.51777 0.455 0.46492 0.42291 0.5429
3693.993 0.7281 0.5554 0.6789 0.8478 0.45751 0.422738 0.48901 0.5834 0.6573 0.242
3713.282 0.207 0.5946 0.6133 0.47414 0.47594 0.5866 0.45454 0.4021 0.6821 0.6652
3732.572 0.6684 0.6526 0.3626 0.373 0.3238 0.235 0.261 0.215 0.234 0.239
3751.862 0.269 0.5841 0.8651 0.7176 0.44487 0.46736 0.6861 0.7211 0.6265 0.50431
3771.152 0.3815 0.424829 0.3847 0.307 0.5992 0.7009 0.3804 0.145 0.43734 0.6492
3790.441 0.7111 0.5486 0.3858 0.279 0.243 0.45 0.5976 0.5529 0.3317 0.6563
3809.731 0.843 0.6307 0.7385 0.6864 0.3378 0.426752 0.45706 0.187 0.257 0.41577
3829.021 0.6273 0.7669 0.7853 0.4732 0.226 0.4407 0.3238 0.187 0.231 0.7089
3848.311 0.8887 0.5321 0.279 0.025 0.154 0.306 0.3239 0.4678 0.6284 0.6896
3867.601 0.3979 0.3522 0.7711 0.5475 0.136 0.197 0.3627 0.301 0.6085 0.7939
3886.890 0.5772 0.48995 0.302 0.5337 0.5602 0.3941 0.5618 0.44519 0.3591 0.622
3906.180 0.6325 0.6155 0.45585 0.172 0.45604 0.7816 0.4818 0.41338 0.6703 0.636
3925.470 0.7024 0.7605 0.9537 0.791 0.5999 0.8847 0.6151 0.47332 0.6531 0.8504
3944.760 0.8031 0.7108 0.8939 0.44958 0.237 0.619 0.7233 0.4417 0.081 0.214
3964.049 0.7086 0.84 0.6404 0.6635 0.48142 0.157 0.303 0.584 0.8041 0.9131
3983.339 0.7421 0.5275 0.41797 0.406 0.427961 0.41828 0.6242 0.7054 0.7664 0.44142
##END=
