##TITLE=4-Ethoxystyrene
##JCAMP-DX=4.24
##DATA TYPE=INFRARED SPECTRUM
##ORIGIN=EPA-IR VAPOR PHASE LIBRARY
##OWNER=SRD/NIST
Collection (C) 2018 copyright by the U.S. Secretary of Commerce
on behalf of the United States of America. All rights reserved.
##CAS REGISTRY NO=5459-40-5
##MOLFORM=C 10 H 12 O
##$NIST SOURCE=MSDC-IR
##STATE=gas
##XUNITS=1/CM
##YUNITS=ABSORBANCE
##XFACTOR=1.
##YFACTOR=0.001
##DELTAX=1.92898
##FIRSTX=549.8
##LASTX=4000.7
##FIRSTY=14.579
##MAXX=4000.7
##MINX=549.759
##MAXY=0.309569
##MINY=0
##NPOINTS=1790
##XYDATA=(X++(Y..Y))
549.759 14.579 14.939 14.519 13.589 13.169 12.129 10.899 10.399 9.759 8.799
569.049 7.909 7.359 6.319 5.439 5.129 4.819 4.469 3.729 3.579 3.829
588.339 3.809 3.649 3.359 3.069 2.769 2.899 2.949 2.609 2.449 2.559
607.628 2.489 2.449 2.409 2.249 2.499 2.619 2.469 2.369 2.239 2.089
626.918 2.129 2.509 2.679 2.859 3.189 3.299 3.249 3.239 2.949 2.839
646.208 2.909 2.409 1.879 1.579 1.459 1.439 1.449 1.579 1.639 1.859
665.498 1.979 1.829 1.959 2.119 2.009 1.909 1.919 2.139 2.469 2.519
684.787 2.819 3.109 3.299 3.629 3.889 4.339 4.689 4.899 5.149 5.269
704.077 5.529 5.679 5.579 5.579 5.379 5.269 5.339 5.569 5.879 6.349
723.367 6.809 6.549 6.259 6.259 6.289 5.909 5.229 4.859 4.339 3.739
742.657 3.329 3.119 2.959 2.789 2.679 2.449 2.379 2.509 2.559 2.659
761.947 2.889 2.979 2.999 2.979 3.029 3.279 3.499 3.529 3.709 4.019
781.236 4.429 5.019 5.419 5.819 6.429 7.029 7.679 8.569 9.679 10.799
800.526 12.179 13.369 14.419 15.719 17.219 19.049 21.089 23.489 26.459 29.899
819.816 33.839 38.159 42.589 46.989 51.369 55.609 58.899 61.039 61.639 60.069
839.106 56.979 53.639 50.259 46.489 42.189 37.789 33.739 29.699 26.149 22.989
858.395 20.259 18.229 16.509 15.069 13.929 13.189 12.839 12.849 13.189 13.629
877.685 14.479 15.839 17.369 19.339 21.819 24.779 28.099 31.799 35.599 39.099
896.975 42.649 46.649 50.589 52.989 53.319 52.069 50.369 48.679 46.739 44.709
916.265 42.039 38.819 35.669 32.709 29.789 26.749 24.069 21.659 19.319 17.289
935.555 15.639 14.289 13.019 12.129 11.579 11.109 10.769 10.579 10.449 10.249
954.844 10.269 10.699 10.909 11.189 11.909 12.529 13.249 14.039 14.939 16.089
974.134 17.229 18.099 19.249 20.429 21.129 21.869 22.739 23.259 23.089 22.249
993.424 21.229 20.559 20.219 20.309 20.469 20.779 21.159 21.249 21.439 22.609
1012.714 24.279 25.729 27.979 30.379 33.289 37.129 41.049 44.989 48.399 51.979
1032.003 55.679 59.009 62.359 65.739 68.219 69.299 69.419 69.779 69.119 66.799
1051.293 63.679 59.679 55.399 50.689 45.649 40.739 36.259 32.399 29.139 26.829
1070.583 25.209 23.599 22.789 22.629 22.029 22.079 22.799 23.589 25.509 27.769
1089.873 29.359 30.429 30.789 30.849 31.109 31.199 31.819 32.039 31.669 31.839
1109.163 31.919 32.039 32.279 31.389 30.239 29.019 27.239 25.249 23.149 21.559
1128.452 19.859 17.859 16.669 15.829 15.169 14.929 14.849 15.089 15.649 16.489
1147.742 16.719 17.189 19.289 22.089 25.159 29.059 35.009 43.839 55.669 69.259
1167.032 81.939 90.519 93.829 93.259 90.159 84.819 75.759 61.599 46.659 35.849
1186.322 29.019 24.539 22.219 21.659 21.929 23.029 24.069 25.679 28.159 31.329
1205.611 35.169 40.019 45.869 51.389 58.109 67.019 77.159 89.219 104.719 123.169
1224.901 144.199 168.459 194.389 220.619 245.879 268.589 287.449 301.079 308.529 309.569
1244.191 303.859 291.409 273.579 251.189 225.569 198.119 170.559 144.869 121.539 102.229
1263.481 87.819 77.389 70.759 67.129 65.389 64.959 65.729 66.839 67.749 68.089
1282.771 67.739 66.979 65.569 63.909 62.039 60.299 59.049 57.999 57.129 56.309
1302.060 54.919 52.719 50.129 47.099 43.729 40.349 36.799 33.169 29.979 27.199
1321.350 24.799 22.699 20.479 18.439 16.639 15.029 13.729 12.739 11.949 11.269
1340.640 10.749 10.349 10.079 9.879 9.709 9.639 9.749 9.949 10.049 10.279
1359.930 10.609 10.889 11.309 11.769 12.189 12.619 13.219 14.089 15.169 16.569
1379.219 18.449 20.829 23.599 26.709 30.109 33.659 37.039 39.909 41.749 42.239
1398.509 41.749 40.549 38.459 35.249 31.339 27.409 24.009 21.399 19.399 17.799
1417.799 16.419 15.289 14.489 13.889 13.489 13.229 13.059 12.889 12.699 12.569
1437.089 12.459 12.399 12.469 12.489 12.499 12.519 12.539 12.519 12.559 12.729
1456.378 13.019 13.289 13.599 14.059 14.769 15.969 17.669 20.099 23.439 28.019
1475.668 33.269 37.909 40.699 42.069 43.419 45.119 46.699 48.029 51.049 58.399
1494.958 71.989 93.209 121.869 156.169 191.219 219.569 235.689 238.569 231.799 218.129
1514.248 195.439 160.319 117.649 79.659 52.259 36.289 27.339 22.109 18.859 16.649
1533.538 15.119 14.049 13.279 12.809 12.459 12.259 12.099 12.029 12.209 12.449
1552.827 12.739 13.189 13.749 14.429 15.219 16.099 17.189 18.389 19.659 20.899
1572.117 21.799 22.499 23.309 24.179 25.109 26.259 27.879 30.379 33.899 38.559
1591.407 44.589 51.719 59.789 68.399 76.869 84.499 90.619 94.529 95.729 94.229
1610.697 90.149 84.089 77.039 69.509 62.509 56.929 53.039 50.719 49.069 47.309
1629.986 45.109 42.569 39.709 36.189 31.649 26.569 21.949 18.409 15.759 13.659
1649.276 11.989 10.639 9.559 8.739 8.059 7.509 7.029 6.589 6.219 5.969
1668.566 5.639 5.249 5.059 4.829 4.569 4.369 4.099 3.879 3.749 3.619
1687.856 3.469 3.329 3.219 3.139 3.059 3.049 3.039 2.919 2.919 2.969
1707.146 2.879 2.849 2.869 2.919 3.029 3.049 3.039 3.129 3.139 3.139
1726.435 3.239 3.299 3.279 3.289 3.309 3.369 3.469 3.529 3.679 3.839
1745.725 3.949 4.079 4.149 4.229 4.209 4.059 3.829 3.619 3.429 3.229
1765.015 3.049 2.909 2.799 2.729 2.669 2.599 2.609 2.679 2.719 2.779
1784.305 2.829 2.959 3.139 3.339 3.639 3.909 4.279 4.919 5.679 6.429
1803.594 7.129 7.819 8.389 8.699 8.919 8.899 8.629 8.199 7.609 6.979
1822.884 6.329 5.689 5.169 4.719 4.339 4.019 3.799 3.659 3.579 3.479
1842.174 3.409 3.399 3.379 3.409 3.479 3.609 3.729 3.859 3.999 4.119
1861.464 4.389 4.659 4.819 4.979 5.169 5.379 5.419 5.479 5.559 5.489
1880.754 5.459 5.389 5.199 4.989 4.819 4.619 4.359 4.139 3.959 3.749
1900.043 3.489 3.329 3.309 3.179 3.069 3.029 2.929 2.919 3.029 3.099
1919.333 3.069 3.149 3.359 3.539 3.659 3.719 3.839 3.979 4.089 4.189
1938.623 4.179 4.179 4.269 4.299 4.229 4.219 4.249 4.219 4.209 4.219
1957.913 4.209 4.259 4.249 4.299 4.369 4.279 4.189 4.119 4.079 4.039
1977.202 3.949 3.829 3.679 3.619 3.529 3.369 3.269 3.179 3.109 3.069
1996.492 3.109 3.119 3.099 3.049 2.959 2.859 2.759 2.749 2.709 2.639
2015.782 2.549 2.489 2.509 2.489 2.459 2.469 2.429 2.359 2.359 2.429
2035.072 2.499 2.569 2.639 2.799 2.909 2.929 2.949 2.969 3.029 3.109
2054.362 3.139 3.219 3.269 3.259 3.309 3.289 3.239 3.229 3.199 3.229
2073.651 3.199 3.079 2.969 2.819 2.719 2.689 2.589 2.439 2.359 2.329
2092.941 2.219 2.119 2.049 2.019 2.069 2.039 1.939 1.879 1.799 1.749
2112.231 1.729 1.719 1.689 1.659 1.619 1.569 1.509 1.519 1.519 1.499
2131.521 1.449 1.379 1.389 1.449 1.479 1.449 1.339 1.2318 1.2987 1.329
2150.810 1.2251 1.2117 1.2921 1.329 1.2624 1.2099 1.1127 0.9902 0.9302 0.9202
2170.100 0.9938 1.0417 1.0033 0.9163 0.878 0.919 0.9211 0.9037 0.9766 0.9785
2189.390 1.0455 1.0659 0.9766 1.0337 1.0558 1.1231 1.1848 1.1369 1.1889 1.2173
2208.680 1.1816 1.163 1.0927 1.1206 1.1739 1.1448 1.0636 1.0724 1.129 1.1981
2227.970 1.2103 1.1744 1.1447 0.9697 0.9548 1.0101 1.019 1.0183 0.9478 0.8814
2247.259 0.8762 0.9546 1.0291 0.964 0.8897 0.9966 0.9899 0.9228 1.0042 1.0836
2266.549 1.1221 1.172 1.1862 1.1805 1.2474 1.309 1.389 1.449 1.429 1.459
2285.839 1.439 1.439 1.539 1.539 1.549 1.619 1.639 1.589 1.579 1.649
2305.129 1.659 1.619 1.609 1.679 1.709 1.719 1.719 1.669 1.689 1.679
2324.418 1.649 1.679 1.709 1.669 1.769 1.769 1.619 1.559 1.479 1.439
2343.708 1.439 1.389 1.329 1.369 1.389 1.309 1.1716 1.0765 1.089 1.0657
2362.998 1.104 1.1394 1.0054 0.9437 1.1243 1.1444 1.0451 1.0035 1.0234 1.1939
2382.288 1.2466 1.309 1.379 1.419 1.529 1.629 1.679 1.719 1.849 2.019
2401.578 2.149 2.129 2.239 2.409 2.409 2.449 2.529 2.609 2.609 2.569
2420.867 2.509 2.519 2.559 2.539 2.489 2.479 2.449 2.439 2.379 2.289
2440.157 2.289 2.359 2.439 2.529 2.429 2.429 2.569 2.629 2.639 2.629
2459.447 2.639 2.779 2.909 2.889 2.899 2.959 2.979 3.059 3.059 2.899
2478.737 2.939 2.969 2.909 2.869 2.869 2.809 2.769 2.809 2.709 2.679
2498.026 2.689 2.699 2.689 2.649 2.649 2.759 2.809 2.749 2.879 2.989
2517.316 3.069 3.149 3.179 3.259 3.309 3.359 3.369 3.299 3.319 3.369
2536.606 3.449 3.499 3.409 3.449 3.399 3.149 2.989 2.839 2.589 2.379
2555.896 2.349 2.259 2.039 1.969 1.949 1.919 1.959 1.909 1.749 1.629
2575.186 1.619 1.619 1.609 1.589 1.509 1.499 1.579 1.539 1.439 1.379
2594.475 1.349 1.299 1.2886 1.319 1.2634 1.2914 1.329 1.2983 1.2577 1.2423
2613.765 1.2642 1.309 1.359 1.369 1.319 1.2781 1.1914 1.0454 1.0267 1.1735
2633.055 1.1923 1.1113 1.1747 1.2393 1.0723 0.9346 1.0759 1.1764 1.0812 1.0521
2652.345 1.099 1.0851 1.1287 1.0759 0.8865 0.8499 0.9046 1.031 1.1196 1.086
2671.634 1.0549 1.0323 0.9907 1.0043 1.0208 1.1004 1.1228 1.1581 1.2238 1.1532
2690.924 1.1391 1.2244 1.329 1.299 1.218 1.339 1.459 1.499 1.479 1.469
2710.214 1.519 1.629 1.749 1.779 1.879 2.079 2.139 2.199 2.369 2.489
2729.504 2.599 2.599 2.559 2.509 2.609 2.739 2.779 2.869 2.909 2.859
2748.794 2.869 2.929 2.939 2.929 2.929 2.989 3.079 3.009 2.839 2.929
2768.083 2.979 3.019 3.119 3.119 3.179 3.179 3.149 3.239 3.279 3.359
2787.373 3.399 3.399 3.409 3.399 3.499 3.539 3.519 3.589 3.679 3.579
2806.663 3.639 3.889 4.009 4.149 4.289 4.409 4.559 4.729 4.819 4.979
2825.953 5.169 5.239 5.259 5.459 5.729 5.899 6.059 6.169 6.369 6.759
2845.242 6.999 7.289 7.869 8.279 8.619 9.199 9.849 10.429 11.249 12.219
2864.532 13.319 14.619 15.929 17.339 18.809 20.449 22.099 23.589 25.019 26.319
2883.822 27.189 27.809 28.269 28.589 28.929 29.199 29.699 30.309 30.589 30.899
2903.112 31.469 31.859 32.259 32.509 32.459 32.519 32.649 32.419 31.879 31.459
2922.401 31.179 31.119 31.269 31.789 32.729 34.119 35.919 37.589 39.209 40.499
2941.691 41.249 41.529 40.889 39.639 37.969 35.919 34.039 32.479 31.369 30.799
2960.981 31.009 31.999 33.569 35.599 37.859 40.709 44.099 47.809 51.849 55.819
2980.271 59.159 61.749 63.639 64.679 64.949 64.539 63.239 60.429 56.569 52.649
2999.561 49.469 47.179 45.739 45.059 44.949 45.009 44.289 42.759 40.909 39.249
3018.850 37.479 34.879 31.909 29.709 28.769 28.939 29.789 30.919 31.999 32.939
3038.140 33.529 33.639 33.469 32.649 31.279 29.749 27.719 25.639 23.949 22.629
3057.430 21.539 20.679 20.339 20.309 20.399 20.639 21.249 21.819 22.359 22.929
3076.720 23.399 23.959 24.769 26.079 28.289 31.459 34.929 37.589 38.249 37.489
3096.009 36.439 35.199 32.679 28.269 23.149 18.569 15.269 12.999 11.359 10.299
3115.299 9.369 8.539 8.009 7.449 6.859 6.269 5.769 5.169 4.579 4.499
3134.589 4.199 3.789 3.439 3.189 2.969 2.819 2.839 2.649 2.579 2.559
3153.879 2.299 2.269 2.249 2.029 1.989 1.999 1.969 1.929 1.699 1.509
3173.169 1.499 1.589 1.549 1.509 1.689 1.559 1.299 1.349 1.579 1.539
3192.458 1.429 1.469 1.549 1.569 1.649 1.739 1.549 1.459 1.489 1.539
3211.748 1.539 1.499 1.429 1.409 1.389 1.389 1.379 1.1475 1.1725 1.2889
3231.038 1.137 1.0198 0.939 1.0195 1.1026 1.0056 0.955 0.8766 0.8522 0.964
3250.328 1.0617 0.8718 0.6328 0.6927 0.7571 0.8141 0.7661 0.6418 0.6666 0.5453
3269.617 0.4451 0.5007 0.4807 0.4471 0.614 0.673 0.513 0.5025 0.5404 0.5582
3288.907 0.5555 0.5649 0.645 0.617 0.601 0.7862 0.7963 0.6274 0.5591 0.6844
3308.197 0.7319 0.6196 0.4741 0.4145 0.455 0.4398 0.301028 0.127 0.2485 0.2741
3327.487 0.2948 0.4042 0.2337 0.2661 0.5051 0.6076 0.602 0.4871 0.4117 0.38375
3346.777 0.38184 0.37193 0.4888 0.6335 0.536 0.5837 0.6561 0.5008 0.33252 0.36631
3366.066 0.37136 0.2438 0.36809 0.4769 0.4679 0.38856 0.2869 0.2737 0.3574 0.436
3385.356 0.34287 0.148 0.159 0.31568 0.4803 0.4345 0.38688 0.36752 0.305094 0.4742
3404.646 0.5487 0.31275 0.082 0.2001 0.2139 0.123 0.39732 0.5501 0.32002 0.177
3423.936 0.39123 0.4424 0.2534 0.33547 0.39711 0.219 0.301326 0.4257 0.4359 0.5133
3443.225 0.35469 0.29647 0.33235 0.304247 0.32255 0.32478 0.3307 0.37432 0.4233 0.5067
3462.515 0.5384 0.447 0.32445 0.2098 0.2566 0.2018 0.175 0.2537 0.35267 0.32332
3481.805 0.132 0.14 0.2593 0.34962 0.4413 0.4284 0.38417 0.32761 0.3094 0.36644
3501.095 0.182 0.179 0.29422 0.196 0.127 0.2177 0.46 0.5518 0.36462 0.301977
3520.385 0.2794 0.2267 0.19 0.267 0.35367 0.3463 0.409 0.4367 0.2846 0.157
3539.674 0.17 0.29512 0.5012 0.4245 0.4061 0.38725 0.38392 0.2436 0.2433 0.36114
3558.964 0.32054 0.307741 0.29243 0.4459 0.38428 0.39494 0.4961 0.35795 0.2114 0.37744
3578.254 0.34642 0.2874 0.3998 0.31854 0.2821 0.299684 0.305616 0.4268 0.4718 0.2016
3597.544 0.224 0.39482 0.188 0.2302 0.38582 0.29691 0.38366 0.4476 0.39844 0.34012
3616.833 0.2413 0.29331 0.33469 0.31192 0.31087 0.39344 0.4436 0.5111 0.4831 0.34626
3636.123 0.38627 0.35896 0.3824 0.34772 0.304256 0.4111 0.5398 0.4601 0.3694 0.4318
3655.413 0.541 0.5817 0.4503 0.4678 0.5454 0.5353 0.4108 0.34991 0.4087 0.4179
3674.703 0.301513 0.38849 0.4995 0.5017 0.5961 0.5506 0.4223 0.5242 0.6344 0.6073
3693.993 0.6465 0.5011 0.4309 0.2846 0.2165 0.4458 0.4969 0.5657 0.7688 0.7317
3713.282 0.4251 0.4152 0.5696 0.6037 0.6412 0.5469 0.4713 0.4484 0.4969 0.5502
3732.572 0.38729 0.2606 0.4046 0.5822 0.4688 0.33248 0.34118 0.35945 0.5415 0.5209
3751.862 0.404 0.5944 0.4944 0.4317 0.5644 0.525 0.4412 0.31835 0.36189 0.4934
3771.152 0.5061 0.5801 0.5743 0.4245 0.30902 0.4636 0.6063 0.4983 0.4455 0.151
3790.441 0 0.2812 0.4953 0.5933 0.5395 0.5787 0.5426 0.34934 0.2808 0.263
3809.731 0.2711 0.31613 0.4037 0.39209 0.33633 0.4496 0.5019 0.38397 0.34792 0.5361
3829.021 0.6808 0.5208 0.4185 0.4364 0.2854 0.3996 0.7422 0.617 0.507 0.4521
3848.311 0.5322 0.7511 0.6504 0.5353 0.4827 0.4475 0.34726 0.2175 0.3996 0.5941
3867.601 0.4743 0.4999 0.7351 0.6824 0.4977 0.211 0.2518 0.5734 0.6027 0.573
3886.890 0.3633 0.2456 0.4543 0.6801 0.558 0.4696 0.4631 0.4057 0.479 0.484
3906.180 0.3902 0.228 0.35397 0.4475 0.36218 0.4319 0.5487 0.446 0.2613 0.5194
3925.470 0.5664 0.4771 0.5122 0.2832 0.2544 0.32665 0.39755 0.4132 0.4513 0.5073
3944.760 0.4242 0.4561 0.5065 0.5603 0.4709 0.38921 0.39139 0.346 0.2642 0.2231
3964.049 0.5002 0.6825 0.7049 0.6569 0.4766 0.4657 0.4659 0.5141 0.5246 0.6775
3983.339 0.9106 0.6472 0.6019 0.7561 0.6888 0.6592 0.5911 0.6081 0.78 0.9833
##END=
