##TITLE=2-(Hexylamino)ethanol
##JCAMP-DX=4.24
##DATA TYPE=INFRARED SPECTRUM
##ORIGIN=EPA-IR VAPOR PHASE LIBRARY
##OWNER=SRD/NIST
Collection (C) 2018 copyright by the U.S. Secretary of Commerce
on behalf of the United States of America. All rights reserved.
##CAS REGISTRY NO=54596-69-9
##MOLFORM=C 8 H 19 N O
##$NIST SOURCE=MSDC-IR
##STATE=gas
##XUNITS=1/CM
##YUNITS=ABSORBANCE
##XFACTOR=1.
##YFACTOR=0.001
##DELTAX=1.92898
##FIRSTX=549.8
##LASTX=4000.7
##FIRSTY=2.2633
##MAXX=4000.7
##MINX=549.759
##MAXY=0.0749933
##MINY=0
##NPOINTS=1790
##XYDATA=(X++(Y..Y))
549.759 2.2633 2.2733 2.1433 2.2933 2.2333 2.2333 2.1433 1.9333 1.9933 1.9333
569.049 1.7333 1.7433 1.9133 1.9633 1.9433 2.0333 1.9333 1.6133 1.4033 1.2833
588.339 1.5333 1.7633 1.8433 1.8633 1.8933 1.7933 1.7933 1.7833 1.8833 1.9933
607.628 1.8033 1.8633 1.8333 1.6733 1.7533 2.0133 2.2833 2.3333 2.2933 2.2633
626.918 2.4533 2.4733 2.5233 2.7933 2.6433 2.7633 2.9833 2.9733 3.1233 3.1533
646.208 3.0133 3.0933 3.1933 3.2633 3.3933 3.5833 3.8733 3.9533 3.7633 3.7833
665.498 4.0433 4.1033 4.0733 4.1033 4.3133 4.6333 4.7233 4.7033 4.8133 4.9233
684.787 5.0733 5.0833 5.1333 5.3333 5.3233 5.3333 5.4633 5.5633 5.6633 5.6033
704.077 5.6533 5.8733 5.8833 5.9833 6.0133 6.1133 6.1333 5.9633 5.9833 6.0633
723.367 6.0133 5.8233 5.7733 5.6733 5.5133 5.5533 5.4533 5.3333 5.1633 4.8933
742.657 4.6833 4.5633 4.6033 4.2333 4.0333 4.1833 3.9633 3.6333 3.6033 3.6733
761.947 3.5433 3.2433 3.1433 3.2533 3.2233 3.0533 2.9033 2.6933 2.3533 2.3033
781.236 2.3333 2.2733 2.2533 2.1733 2.1433 2.1533 2.0933 2.0933 1.9733 1.8433
800.526 1.8733 1.8533 1.8733 1.7833 1.5133 1.6033 1.8133 1.9533 2.0533 1.8833
819.816 1.8433 1.9233 1.9233 1.9133 1.8633 1.8633 1.8433 1.8033 1.9933 2.1233
839.106 2.1233 2.2133 2.3233 2.3933 2.4133 2.5233 2.5633 2.6733 2.7633 2.8833
858.395 3.0133 3.0233 3.2233 3.4433 3.7033 3.8333 3.8533 3.9433 3.7333 3.6933
877.685 3.8333 3.7933 3.6933 3.5333 3.4933 3.5133 3.4533 3.5033 3.5233 3.3833
896.975 3.3833 3.4333 3.2333 2.9533 2.8433 2.8033 2.8533 2.8033 2.7633 2.9033
916.265 2.7833 2.6533 2.5933 2.5333 2.5033 2.4133 2.4933 2.5033 2.3733 2.3833
935.555 2.5033 2.5033 2.4833 2.5433 2.5333 2.3633 2.4033 2.5133 2.4733 2.4633
954.844 2.4333 2.5033 2.4633 2.4133 2.5833 2.7233 2.8533 2.8333 2.7633 2.8233
974.134 3.0533 3.3333 3.5033 3.3633 3.2333 3.4733 3.6433 3.7833 4.0533 4.2833
993.424 4.4333 4.6933 4.9333 5.2733 5.7033 5.9233 6.1333 6.4733 6.9233 7.3033
1012.714 7.6333 8.0533 8.5633 8.9633 9.5133 10.2833 10.8433 11.3733 12.0233 12.9733
1032.003 13.8633 14.3633 14.9633 15.5333 16.1133 16.9033 17.3933 17.7633 18.1233 18.5633
1051.293 19.1033 19.2333 19.3333 19.4833 18.9433 18.7333 18.7333 18.1933 17.2533 16.3833
1070.583 15.5733 14.4633 13.4633 12.4733 11.2833 10.2133 9.2033 8.5733 8.3433 7.5533
1089.873 6.9333 6.6633 6.4633 6.3333 6.2433 5.9833 5.6633 6.0833 6.4733 6.6933
1109.163 7.2133 6.8633 6.7733 8.0133 8.4733 8.5733 9.7133 10.4133 10.9833 11.7833
1128.452 12.3133 13.0733 13.4633 13.6633 14.1433 14.0233 13.2633 12.3633 11.1533 10.1533
1147.742 9.6633 8.7133 7.8733 7.3333 6.6333 6.1433 5.9733 5.7633 5.3233 4.8333
1167.032 4.6133 4.6733 4.8033 4.8033 4.7633 4.6433 4.4633 4.5933 4.6433 4.7733
1186.322 4.8933 4.7133 4.9033 5.2433 5.0333 4.7433 4.8433 4.9833 4.7533 4.6833
1205.611 4.9833 5.1733 5.5233 5.3633 4.8233 4.8933 4.8333 4.5933 4.6433 4.7733
1224.901 4.8033 4.5333 4.6933 4.7633 4.5533 4.3433 4.0633 4.3033 4.4233 4.3133
1244.191 4.1133 4.1233 4.3733 4.2833 4.1933 4.2733 4.3533 4.3633 4.0433 3.8333
1263.481 3.9133 3.9833 4.0933 4.2433 4.2633 4.2433 4.1333 3.9833 4.0333 3.9733
1282.771 3.9233 3.8733 3.8733 3.9933 4.0333 4.0433 4.1233 4.1833 4.1933 4.2133
1302.060 4.2333 4.2933 4.2733 4.2733 4.3233 4.4333 4.4533 4.4433 4.5533 4.6733
1321.350 4.7933 4.8933 5.0833 5.3533 5.5633 5.8133 6.1733 6.4833 6.7833 7.0933
1340.640 7.3233 7.5133 7.7433 7.9333 8.0333 8.0733 8.0533 7.9333 7.8233 7.6333
1359.930 7.4033 7.2333 7.0033 6.8133 6.7333 6.6833 6.6333 6.6333 6.6833 6.7533
1379.219 6.7933 6.8533 6.9233 7.0033 7.0533 7.0033 6.9233 6.8633 6.8733 6.9033
1398.509 6.8533 6.7633 6.6833 6.6033 6.4633 6.2633 6.0733 5.8433 5.5433 5.3733
1417.799 5.2633 5.1133 5.0133 5.0233 5.0833 5.1833 5.3333 5.5533 5.9033 6.2733
1437.089 6.6233 7.1033 7.6533 8.2033 8.8733 9.5733 10.2933 11.1233 12.0233 12.8333
1456.378 13.5233 14.0633 14.3733 14.4733 14.2333 13.7033 12.9533 12.0733 11.1733 10.1833
1475.668 9.2033 8.2133 7.3233 6.5833 5.8133 5.0533 4.4033 3.9233 3.4833 3.0933
1494.958 2.8033 2.5033 2.2433 2.0933 2.0133 1.9033 1.7633 1.6633 1.5633 1.4733
1514.248 1.4633 1.3833 1.2533 1.2133 1.1633 1.0733 1.0733 1.0533 1.0433 0.9958
1533.538 0.8721 0.8912 0.9088 0.8644 0.8128 0.7875 0.825 0.7655 0.7409 0.7166
1552.827 0.6817 0.7133 0.6492 0.68 0.7002 0.5952 0.6015 0.6524 0.5813 0.5278
1572.117 0.6232 0.7184 0.6861 0.5986 0.5812 0.6048 0.5505 0.4579 0.5519 0.6116
1591.407 0.4897 0.4426 0.4543 0.4993 0.5034 0.4312 0.4587 0.477 0.4274 0.4344
1610.697 0.4409 0.3737 0.3924 0.4137 0.3919 0.4474 0.4184 0.3476 0.3402 0.3697
1629.986 0.3938 0.386 0.4104 0.419 0.4119 0.3879 0.3622 0.3386 0.3394 0.3674
1649.276 0.4301 0.4543 0.3864 0.3968 0.4495 0.4276 0.3855 0.3821 0.3972 0.431
1668.566 0.472 0.5061 0.4894 0.5113 0.4527 0.4025 0.431 0.4272 0.4249 0.3715
1687.856 0.3382 0.3772 0.4373 0.419 0.3496 0.3016 0.3115 0.3826 0.4318 0.4124
1707.146 0.4323 0.4122 0.3683 0.393 0.4186 0.4494 0.4324 0.3723 0.3665 0.4381
1726.435 0.5053 0.5072 0.4601 0.4295 0.42 0.4434 0.4567 0.4397 0.4543 0.4546
1745.725 0.4263 0.4033 0.3967 0.4675 0.4387 0.3921 0.3953 0.3725 0.4067 0.4042
1765.015 0.406 0.388 0.3495 0.3477 0.3239 0.3029 0.3317 0.377 0.3535 0.3205
1784.305 0.3054 0.323 0.3615 0.3407 0.3163 0.3452 0.4139 0.3979 0.3455 0.4063
1803.594 0.3969 0.3789 0.3844 0.336 0.3611 0.3727 0.324 0.358 0.3995 0.3595
1822.884 0.3653 0.4331 0.4856 0.4212 0.3493 0.3694 0.3979 0.3979 0.4025 0.4385
1842.174 0.4316 0.3976 0.3673 0.3569 0.3659 0.3727 0.3702 0.3677 0.3499 0.3135
1861.464 0.3518 0.3736 0.33 0.3628 0.3599 0.3112 0.3637 0.3668 0.3443 0.3749
1880.754 0.3739 0.3888 0.3943 0.3486 0.3852 0.3864 0.2834 0.2747 0.2914 0.2886
1900.043 0.3335 0.3439 0.3114 0.3019 0.3488 0.3805 0.3652 0.3416 0.3283 0.3581
1919.333 0.3693 0.3719 0.364 0.3681 0.3864 0.3678 0.3314 0.3197 0.3525 0.3636
1938.623 0.3703 0.3262 0.2932 0.3051 0.3092 0.3124 0.2509 0.2328 0.2485 0.2811
1957.913 0.2946 0.3161 0.3636 0.3673 0.3804 0.3765 0.3328 0.3137 0.3605 0.3566
1977.202 0.312 0.3256 0.3488 0.3548 0.3573 0.3083 0.2557 0.2897 0.2882 0.2242
1996.492 0.1997 0.2724 0.3146 0.2706 0.2736 0.2816 0.316 0.3169 0.3303 0.3551
2015.782 0.3279 0.304 0.2822 0.3193 0.3738 0.3597 0.3531 0.3908 0.3865 0.3651
2035.072 0.2952 0.2486 0.2689 0.2948 0.3221 0.3515 0.3257 0.3482 0.4026 0.4015
2054.362 0.3578 0.3034 0.3401 0.3613 0.3492 0.367 0.3569 0.3066 0.2973 0.357
2073.651 0.3734 0.3349 0.3369 0.2993 0.287 0.2838 0.2866 0.3422 0.3614 0.3636
2092.941 0.3433 0.3302 0.3704 0.3782 0.3284 0.3586 0.4053 0.3896 0.3872 0.3985
2112.231 0.3544 0.3006 0.3245 0.4049 0.3944 0.3018 0.3025 0.3743 0.4366 0.3906
2131.521 0.3446 0.3464 0.355 0.354 0.362 0.369 0.3358 0.3262 0.3378 0.3549
2150.810 0.3282 0.2639 0.2166 0.2889 0.3649 0.3459 0.3485 0.3666 0.3489 0.3111
2170.100 0.2685 0.2531 0.2486 0.2462 0.3164 0.2352 0.1835 0.2531 0.236 0.2443
2189.390 0.2404 0.2515 0.3052 0.3516 0.3192 0.2733 0.2842 0.3013 0.2704 0.2449
2208.680 0.2729 0.2244 0.2102 0.2381 0.2794 0.345 0.3254 0.2683 0.2652 0.3013
2227.970 0.2691 0.2243 0.2326 0.2374 0.2426 0.1947 0.1977 0.2606 0.2262 0.2424
2247.259 0.264 0.2474 0.2654 0.3038 0.2907 0.2981 0.3149 0.2999 0.3111 0.3129
2266.549 0.2614 0.2407 0.3078 0.3343 0.3168 0.3136 0.3254 0.3012 0.2731 0.2809
2285.839 0.2336 0.2069 0.2293 0.2996 0.3612 0.2916 0.2418 0.2707 0.3564 0.3591
2305.129 0.3516 0.3458 0.2528 0.2587 0.305 0.3805 0.4413 0.4038 0.4178 0.3984
2324.418 0.3621 0.3693 0.3983 0.408 0.3687 0.3502 0.2673 0.2527 0.3253 0.3582
2343.708 0.4282 0.4136 0.3691 0.341 0.3329 0.4029 0.417 0.4033 0.381 0.4016
2362.998 0.4088 0.3555 0.2897 0.2981 0.3247 0.304 0.3393 0.345 0.3389 0.3218
2382.288 0.3699 0.4129 0.3825 0.3448 0.3085 0.3575 0.3356 0.3323 0.4178 0.3639
2401.578 0.2717 0.2575 0.2885 0.2876 0.2509 0.2346 0.2495 0.3091 0.3661 0.3148
2420.867 0.2505 0.2688 0.2866 0.2742 0.2701 0.2995 0.2886 0.2748 0.3599 0.3943
2440.157 0.3292 0.3433 0.3969 0.4383 0.3953 0.3526 0.328 0.2977 0.3247 0.3584
2459.447 0.3409 0.3227 0.2807 0.2486 0.3799 0.4135 0.3173 0.3108 0.3462 0.295
2478.737 0.3147 0.4063 0.4113 0.3787 0.383 0.4543 0.4645 0.495 0.4669 0.3588
2498.026 0.3376 0.3706 0.4718 0.4595 0.3716 0.3553 0.377 0.3376 0.2878 0.3558
2517.316 0.3688 0.4047 0.544 0.5432 0.4746 0.4841 0.4449 0.4372 0.5237 0.5657
2536.606 0.4941 0.5123 0.5936 0.5216 0.4843 0.5487 0.5507 0.4821 0.4853 0.5432
2555.896 0.5554 0.6302 0.6472 0.6035 0.5718 0.5621 0.677 0.6493 0.5728 0.6901
2575.186 0.8041 0.7323 0.6437 0.6766 0.6509 0.6442 0.7392 0.8288 0.8165 0.7892
2594.475 0.8534 0.8279 0.8066 0.8417 0.814 0.8613 0.9209 0.9015 0.9029 0.9333
2613.765 0.9096 0.9146 0.9694 1.0133 1.0833 1.1033 1.0933 1.1333 1.1333 1.1433
2633.055 1.1633 1.1933 1.2433 1.2233 1.2733 1.3533 1.3833 1.3733 1.4433 1.5733
2652.345 1.5933 1.6533 1.7333 1.8433 1.8833 1.8433 1.8533 1.9033 1.8933 1.9333
2671.634 2.0033 2.0933 2.1233 2.1333 2.2033 2.2833 2.4033 2.4133 2.3533 2.2933
2690.924 2.2833 2.4533 2.5433 2.5433 2.6633 2.6633 2.6733 2.7633 2.6933 2.6333
2710.214 2.7333 2.7633 2.7233 2.7333 2.8333 2.9233 2.8933 2.9133 3.0133 3.0833
2729.504 3.1833 3.3033 3.3133 3.4133 3.5033 3.5733 3.7133 3.7233 3.8233 3.9533
2748.794 4.0533 4.0133 4.0033 4.0933 4.1733 4.2833 4.3233 4.4133 4.4933 4.5033
2768.083 4.6233 4.7633 4.8733 5.1233 5.3533 5.5733 5.8533 6.1433 6.4633 6.8733
2787.373 7.2933 7.6633 8.1533 8.6333 9.0233 9.5733 10.2133 10.9333 11.6533 12.3033
2806.663 13.0433 13.8433 14.6133 15.3833 16.1733 17.0533 17.8133 18.4633 19.1833 19.7733
2825.953 20.2333 20.6333 20.8633 20.9833 21.1633 21.3333 21.5533 21.8333 22.0633 22.3333
2845.242 22.8733 23.7633 24.7333 25.7333 26.8833 28.1833 29.3933 30.5133 31.6033 32.4733
2864.532 33.1733 33.5933 33.7433 33.6833 33.5633 33.4633 33.4533 33.2933 33.0933 32.9633
2883.822 32.6033 32.1133 31.6433 31.2233 30.9533 30.8333 30.7533 30.8433 31.2733 32.0333
2903.112 33.1333 34.5133 35.9033 37.5833 39.7033 42.1833 44.9833 48.0833 51.5933 55.2533
2922.401 59.0233 62.8133 66.4433 69.5933 72.1433 74.0533 74.9633 74.9933 74.1533 72.3333
2941.691 69.6933 66.4233 62.7233 58.7533 55.0033 51.4733 48.2833 45.8033 43.8833 42.4333
2960.981 41.5133 40.8633 40.1533 39.1133 37.4233 35.1633 32.5733 29.7333 26.4833 23.0233
2980.271 19.8533 17.2033 14.9733 12.9933 11.4133 10.2533 9.1733 8.2833 7.5733 6.9133
2999.561 6.4333 5.9833 5.4233 4.9633 4.6433 4.3733 4.1733 3.9033 3.7533 3.7033
3018.850 3.5033 3.2433 3.1833 3.1433 2.9233 2.6733 2.4233 2.3033 2.2933 2.2033
3038.140 2.0633 2.0033 2.0733 1.9833 1.8833 1.8733 1.7033 1.5633 1.4833 1.5833
3057.430 1.6233 1.4533 1.3533 1.3233 1.3033 1.2133 1.1533 1.1933 1.1933 1.0933
3076.720 1.1533 1.2233 1.1733 1.1633 1.1533 1.1933 1.0633 0.9412 1.0433 1.0043
3096.009 0.9116 0.9477 0.9942 1.0233 0.9683 0.9514 0.938 0.908 0.8489 0.8008
3115.299 0.8307 0.7893 0.7427 0.6391 0.6467 0.6661 0.6484 0.7456 0.7019 0.6472
3134.589 0.7121 0.6061 0.6264 0.6673 0.4564 0.382 0.4637 0.6022 0.7431 0.6503
3153.879 0.5916 0.6335 0.6253 0.6143 0.625 0.5723 0.5232 0.441 0.3259 0.2629
3173.169 0.2606 0.4594 0.4483 0.421 0.3872 0.3723 0.452 0.4636 0.5284 0.5288
3192.458 0.4951 0.5226 0.5165 0.5884 0.6439 0.3772 0.2213 0.2837 0.371 0.3161
3211.748 0.2396 0.3363 0.2663 0.2047 0.2891 0.364 0.3238 0.2314 0.2633 0.3433
3231.038 0.3332 0.2679 0.2594 0.3366 0.3884 0.3779 0.2848 0.2188 0.1476 0.0527
3250.328 0.217 0.3161 0.2683 0.2308 0.2419 0.3151 0.248 0.1503 0.1952 0.2255
3269.617 0.1924 0.2124 0.2382 0.08794 0.0634 0.2608 0.191 0.1193 0.2212 0.2638
3288.907 0.1999 0.1908 0.3605 0.4036 0.2498 0.2584 0.3449 0.2834 0.308 0.4343
3308.197 0.4282 0.3295 0.2696 0.2984 0.2787 0.2257 0.1871 0.2184 0.295 0.2912
3327.487 0.2463 0.2068 0.3553 0.4892 0.4076 0.4004 0.4298 0.3114 0.1955 0.2598
3346.777 0.417 0.4757 0.4031 0.436 0.4769 0.3692 0.4041 0.5594 0.4998 0.4038
3366.066 0.3802 0.4285 0.5618 0.6148 0.6013 0.5348 0.535 0.4745 0.3753 0.4653
3385.356 0.5429 0.5303 0.6368 0.6039 0.5647 0.5599 0.47 0.5208 0.6241 0.5538
3404.646 0.5525 0.5822 0.5369 0.5916 0.6098 0.6643 0.7412 0.7616 0.7213 0.6345
3423.936 0.5778 0.5168 0.5928 0.7244 0.6816 0.6621 0.5778 0.4465 0.4584 0.4803
3443.225 0.4684 0.5459 0.7303 0.666 0.6084 0.7934 0.8391 0.6878 0.6642 0.766
3462.515 0.6893 0.5978 0.6221 0.7039 0.7212 0.5856 0.5419 0.6645 0.6508 0.5587
3481.805 0.7504 0.8861 0.7655 0.677 0.6678 0.7071 0.7078 0.6572 0.7202 0.7202
3501.095 0.6807 0.6493 0.6836 0.8117 0.756 0.7451 0.9075 0.9713 0.9766 0.9261
3520.385 0.9118 1.0101 0.924 0.9496 1.1233 1.2833 1.3733 1.4433 1.5933 1.7033
3539.674 1.8133 1.8933 1.8733 2.0633 2.2133 2.2033 2.2233 2.2833 2.4633 2.6033
3558.964 2.7433 2.8833 2.8333 2.8433 2.8133 2.6633 2.7233 2.7233 2.5933 2.4533
3578.254 2.3133 2.1633 2.0333 1.9533 1.8733 1.7733 1.7333 1.8533 1.7733 1.5533
3597.544 1.3633 1.3233 1.4133 1.3533 1.1433 1.1233 1.2533 1.2833 1.1733 1.0633
3616.833 1.1633 1.0433 0.9771 1.1333 1.0933 1.0333 0.9968 0.9707 0.9819 1.1033
3636.123 1.2033 1.1133 1.2433 1.4933 1.5433 1.5733 1.6533 1.6733 1.6633 1.9133
3655.413 2.1433 2.2733 2.4633 2.5033 2.5533 2.6333 2.5833 2.5533 2.5933 2.7233
3674.703 2.7433 2.5133 2.3533 2.1933 2.1333 2.2033 2.0433 1.8033 1.5233 1.3633
3693.993 1.3333 1.1833 1.0933 0.978 0.867 0.8694 0.826 0.7752 0.799 0.7165
3713.282 0.4753 0.4804 0.5547 0.5852 0.5867 0.5543 0.4401 0.338 0.4201 0.4044
3732.572 0.457 0.4545 0.5111 0.4377 0.4093 0.5063 0.437 0.5202 0.468 0.4524
3751.862 0.5379 0.5302 0.5056 0.4345 0.4086 0.3911 0.32 0.2031 0.2096 0.3376
3771.152 0.3079 0.2391 0.2686 0.2221 0.2404 0.3421 0.382 0.3442 0.3922 0.4302
3790.441 0.2936 0.2205 0.2294 0.2195 0.371 0.3737 0.2512 0.2858 0.2641 0.268
3809.731 0.2983 0.3308 0.2696 0.208 0.284 0.3572 0.1819 0.08525 0.1824 0.0395
3829.021 0.10414 0.3917 0.4329 0.3126 0.2588 0.2704 0.262 0.2157 0.2223 0.2434
3848.311 0.1412 0.1997 0.3187 0.3676 0.3906 0.4162 0.3816 0.2885 0.3208 0.385
3867.601 0.3626 0.2839 0.3144 0.335 0.2758 0.2278 0.2607 0.4022 0.2698 0.1779
3886.890 0.2283 0.2219 0.2573 0.3266 0.3824 0.2959 0.3267 0.3334 0.1815 0.10816
3906.180 0.1797 0.3062 0.3182 0.2302 0.2166 0.3035 0.2586 0.1636 0.2691 0.2051
3925.470 0.02689 0.1465 0.3079 0.2943 0.2779 0.1669 0 0.04049 0.1298 0.10981
3944.760 0.2145 0.2476 0.1604 0.134 0.1597 0.3706 0.3574 0.3064 0.279 0.2729
3964.049 0.3796 0.296 0.3048 0.324 0.2261 0.2575 0.3105 0.3802 0.3267 0.3337
3983.339 0.3388 0.3103 0.5044 0.4437 0.2214 0.1758 0.1758 0.1599 0.3083 0.2804
##END=
