##TITLE=N-(2-Phenylethyl)phenylacetamide
##JCAMP-DX=4.24
##DATA TYPE=INFRARED SPECTRUM
##ORIGIN=EPA-IR VAPOR PHASE LIBRARY
##OWNER=SRD/NIST
Collection (C) 2018 copyright by the U.S. Secretary of Commerce
on behalf of the United States of America. All rights reserved.
##CAS REGISTRY NO=5460-60-6
##MOLFORM=C 16 H 17 N O
##$NIST SOURCE=MSDC-IR
##STATE=gas
##XUNITS=1/CM
##YUNITS=ABSORBANCE
##XFACTOR=1.
##YFACTOR=0.001
##DELTAX=1.92898
##FIRSTX=549.8
##LASTX=4000.7
##FIRSTY=2.558
##MAXX=4000.7
##MINX=549.759
##MAXY=0.106898
##MINY=0
##NPOINTS=1790
##XYDATA=(X++(Y..Y))
549.759 2.558 2.578 2.718 2.748 2.928 3.348 3.598 3.788 4.218 4.428
569.049 4.358 4.208 4.298 4.078 3.478 3.378 3.308 3.078 2.898 2.798
588.339 2.638 2.598 2.468 2.388 2.408 2.398 2.388 2.418 2.558 2.738
607.628 2.858 2.848 2.888 2.778 2.818 2.988 3.208 3.378 3.308 3.518
626.918 3.598 3.508 3.528 3.478 3.398 3.318 3.198 3.158 3.028 3.028
646.208 3.248 3.108 2.978 3.018 3.148 3.428 3.598 3.748 3.968 4.328
665.498 4.728 5.138 5.658 6.238 6.848 7.518 8.328 9.118 10.148 11.538
684.787 13.168 15.328 18.278 22.188 26.748 31.108 34.538 36.478 36.758 35.378
704.077 33.038 30.358 27.748 25.648 23.538 21.638 20.218 18.888 17.638 16.678
723.367 16.028 15.718 15.718 15.838 16.178 17.008 18.138 19.088 19.698 19.758
742.657 19.148 18.118 16.688 14.788 12.988 11.278 9.798 8.618 7.488 6.718
761.947 6.108 5.438 4.928 4.488 4.048 3.608 3.148 2.918 2.698 2.558
781.236 2.488 2.358 2.318 2.188 2.038 1.958 2.068 2.088 1.988 2.058
800.526 2.098 2.138 2.318 2.408 2.488 2.658 2.668 2.678 2.718 2.618
819.816 2.568 2.548 2.578 2.558 2.388 2.308 2.168 2.158 2.248 2.098
839.106 2.068 2.168 2.058 2.028 1.988 1.928 1.888 1.808 1.908 1.908
858.395 1.908 2.018 2.058 1.988 1.948 2.018 2.028 2.078 2.098 2.028
877.685 2.288 2.508 2.328 2.258 2.228 2.158 2.358 2.438 2.438 2.498
896.975 2.508 2.478 2.558 2.688 2.658 2.688 2.808 2.898 2.938 2.938
916.265 2.888 2.858 2.968 3.048 3.048 2.908 2.628 2.568 2.538 2.478
935.555 2.488 2.508 2.338 2.238 2.258 2.198 2.178 2.138 2.128 2.038
954.844 2.058 2.148 2.278 2.358 2.178 2.128 2.118 1.978 1.918 2.008
974.134 2.178 2.268 2.318 2.028 1.798 1.998 2.118 2.208 2.148 1.928
993.424 1.878 1.908 1.938 1.928 2.168 2.418 2.488 2.458 2.488 2.458
1012.714 2.428 2.818 3.288 3.548 4.138 5.068 5.978 6.758 7.378 7.438
1032.003 7.148 6.408 5.138 4.068 3.358 3.258 3.168 2.818 2.528 2.478
1051.293 2.618 2.618 2.478 2.478 2.708 2.738 2.868 3.268 3.708 3.938
1070.583 3.978 4.088 4.128 4.158 4.368 4.828 4.758 4.288 3.848 3.638
1089.873 3.538 3.398 3.198 3.278 3.318 3.358 3.758 3.648 3.208 2.888
1109.163 3.168 3.638 3.558 3.668 3.938 3.788 4.148 4.678 5.158 5.448
1128.452 5.488 6.048 6.718 6.958 7.508 8.068 8.248 8.468 8.888 9.078
1147.742 9.398 9.538 9.348 9.258 9.278 9.378 9.228 8.898 8.658 8.518
1167.032 8.178 8.088 7.938 7.918 8.108 8.028 7.918 7.838 8.028 8.128
1186.322 8.028 7.868 7.928 8.218 8.288 8.008 7.858 7.948 7.888 7.938
1205.611 8.088 8.068 8.368 8.738 8.918 9.468 10.018 10.578 11.328 11.858
1224.901 12.448 13.328 14.168 14.568 14.998 15.808 16.238 16.458 17.018 17.148
1244.191 17.138 17.278 17.228 17.328 17.528 17.608 17.778 18.008 18.078 18.088
1263.481 17.908 17.338 16.638 15.908 14.968 14.068 13.128 12.238 11.468 10.818
1282.771 10.368 9.848 9.378 9.168 8.968 8.798 8.698 8.628 8.568 8.498
1302.060 8.378 8.218 8.108 7.928 7.718 7.578 7.418 7.318 7.238 7.078
1321.350 6.978 6.908 6.838 6.788 6.698 6.628 6.608 6.588 6.478 6.368
1340.640 6.358 6.308 6.168 6.078 5.898 5.758 5.758 5.728 5.798 5.938
1359.930 6.048 6.148 6.288 6.318 6.178 5.958 5.718 5.418 5.168 4.968
1379.219 4.778 4.638 4.508 4.338 4.148 4.068 4.048 3.978 3.868 3.878
1398.509 3.978 4.128 4.258 4.378 4.618 4.878 5.138 5.468 5.888 6.318
1417.799 6.868 7.688 8.588 9.458 10.448 11.398 12.238 13.028 13.778 14.428
1437.089 15.148 15.948 16.568 17.108 17.568 17.918 18.238 18.598 18.978 19.128
1456.378 19.108 19.238 19.478 19.738 20.148 20.838 21.758 22.888 24.368 26.358
1475.668 28.758 31.638 35.028 39.108 43.998 49.638 56.048 62.858 69.618 75.258
1494.958 78.818 80.398 80.168 78.088 74.568 70.368 65.408 60.228 54.878 49.198
1514.248 43.618 38.278 33.448 29.248 25.398 22.338 19.708 17.528 15.728 14.118
1533.538 12.748 11.598 10.648 9.748 8.928 8.208 7.528 6.988 6.478 6.088
1552.827 5.708 5.328 5.118 4.838 4.588 4.458 4.408 4.318 4.218 4.128
1572.117 4.098 4.188 4.288 4.388 4.618 4.858 5.048 5.308 5.588 5.828
1591.407 6.108 6.498 6.928 7.378 7.738 7.908 7.858 7.628 7.278 6.648
1610.697 5.958 5.258 4.608 4.108 3.738 3.478 3.278 3.148 3.088 3.058
1629.986 3.068 3.128 3.218 3.298 3.368 3.388 3.558 3.818 3.978 4.118
1649.276 4.338 4.518 4.798 5.258 5.708 6.168 6.658 7.138 7.648 8.168
1668.566 8.788 9.498 10.268 11.188 12.438 13.858 15.508 17.428 19.958 22.958
1687.856 26.458 31.028 37.008 44.488 54.458 66.488 78.908 91.978 101.188 106.428
1707.146 106.898 102.718 93.888 82.078 69.298 57.608 47.518 39.818 33.688 28.818
1726.435 24.938 21.688 18.938 16.718 14.768 13.128 11.808 10.608 9.558 8.608
1745.725 7.818 7.168 6.518 5.878 5.418 4.878 4.428 4.088 3.698 3.458
1765.015 3.248 2.938 2.738 2.668 2.648 2.578 2.448 2.388 2.398 2.378
1784.305 2.318 2.368 2.538 2.638 2.758 2.868 2.908 2.908 2.698 2.518
1803.594 2.538 2.368 2.138 1.968 1.788 1.698 1.628 1.528 1.438 1.418
1822.884 1.378 1.278 1.278 1.248 1.188 1.168 1.198 1.228 1.238 1.228
1842.174 1.188 1.148 1.158 1.228 1.258 1.308 1.388 1.428 1.448 1.518
1861.464 1.568 1.608 1.658 1.658 1.638 1.658 1.698 1.728 1.748 1.728
1880.754 1.698 1.628 1.528 1.468 1.388 1.318 1.298 1.278 1.188 1.1311
1900.043 1.1091 1.0582 1.0315 1.0356 1.0132 1.0256 1.0149 1.0091 1.0827 1.0821
1919.333 1.0794 1.178 1.308 1.438 1.478 1.588 1.818 2.018 2.118 2.208
1938.623 2.318 2.378 2.398 2.378 2.328 2.338 2.298 2.238 2.198 2.078
1957.913 1.918 1.708 1.458 1.288 1.158 1.0343 0.958 0.8658 0.8224 0.7842
1977.202 0.7351 0.7133 0.7292 0.7396 0.7103 0.6966 0.6683 0.6191 0.6459 0.6614
1996.492 0.6569 0.6516 0.5961 0.5449 0.5533 0.578 0.5113 0.4885 0.5143 0.5242
2015.782 0.4592 0.4057 0.4443 0.4822 0.5117 0.5339 0.5169 0.4689 0.4403 0.4613
2035.072 0.4953 0.523 0.5398 0.5349 0.5095 0.4491 0.4848 0.5283 0.4801 0.4385
2054.362 0.4504 0.4975 0.4931 0.4756 0.4864 0.4679 0.4652 0.4876 0.5268 0.5786
2073.651 0.5402 0.4545 0.4624 0.4674 0.4689 0.4527 0.4459 0.4618 0.4427 0.4632
2092.941 0.4686 0.4736 0.4715 0.5031 0.5569 0.57 0.5436 0.5039 0.5101 0.489
2112.231 0.4829 0.5145 0.4923 0.4698 0.4453 0.3938 0.365 0.4083 0.4304 0.4066
2131.521 0.4106 0.3944 0.41 0.4586 0.4542 0.426 0.4193 0.4211 0.3966 0.371
2150.810 0.3772 0.4431 0.4354 0.3684 0.3917 0.3901 0.3862 0.43 0.4336 0.4582
2170.100 0.4513 0.3996 0.419 0.4365 0.4873 0.4837 0.4087 0.3854 0.4452 0.4888
2189.390 0.4401 0.3833 0.3769 0.4154 0.4132 0.3794 0.3852 0.4005 0.4004 0.4063
2208.680 0.4101 0.3542 0.3468 0.3912 0.3999 0.3807 0.399 0.4319 0.4368 0.4039
2227.970 0.3561 0.3296 0.3373 0.3545 0.3223 0.3722 0.4189 0.3596 0.2984 0.3539
2247.259 0.4171 0.4344 0.463 0.4675 0.4563 0.4384 0.415 0.4521 0.4734 0.4462
2266.549 0.443 0.449 0.4103 0.402 0.435 0.4097 0.4159 0.5004 0.5458 0.4947
2285.839 0.4636 0.4561 0.4747 0.4677 0.4513 0.4462 0.4636 0.5046 0.4586 0.4439
2305.129 0.5212 0.5509 0.5946 0.6259 0.5971 0.5935 0.5958 0.5904 0.5692 0.6005
2324.418 0.5564 0.5001 0.55 0.5347 0.5588 0.6449 0.6976 0.6845 0.6654 0.6825
2343.708 0.6966 0.6539 0.5909 0.6243 0.626 0.5625 0.5021 0.4997 0.4989 0.4834
2362.998 0.4864 0.4914 0.4706 0.4241 0.3949 0.3471 0.3498 0.411 0.4415 0.4278
2382.288 0.4042 0.3962 0.3986 0.3753 0.352 0.3615 0.3511 0.3499 0.3853 0.3856
2401.578 0.3718 0.3524 0.3836 0.44 0.4318 0.4443 0.4443 0.381 0.367 0.4188
2420.867 0.3983 0.3519 0.3443 0.407 0.4442 0.4109 0.3757 0.3319 0.3799 0.3956
2440.157 0.347 0.4204 0.4477 0.374 0.3573 0.3896 0.397 0.3613 0.3113 0.346
2459.447 0.3717 0.2568 0.2567 0.2837 0.2571 0.2803 0.2794 0.2393 0.22525 0.2905
2478.737 0.3658 0.3366 0.3079 0.3144 0.3041 0.3136 0.313 0.2632 0.20852 0.238
2498.026 0.3139 0.3033 0.277 0.295 0.2987 0.3017 0.3075 0.2967 0.2735 0.2422
2517.316 0.2549 0.2769 0.3249 0.3822 0.3152 0.292 0.3878 0.4427 0.3888 0.3607
2536.606 0.3299 0.3375 0.4045 0.3857 0.3165 0.3214 0.3966 0.4199 0.3649 0.3466
2555.896 0.4066 0.4085 0.3978 0.4111 0.4004 0.3993 0.3831 0.3389 0.3333 0.4174
2575.186 0.4229 0.431 0.4781 0.4733 0.494 0.5177 0.4993 0.4492 0.44 0.4365
2594.475 0.4176 0.4636 0.5144 0.4645 0.4198 0.407 0.4167 0.4862 0.4871 0.4409
2613.765 0.4468 0.4771 0.4576 0.4767 0.5054 0.4522 0.451 0.4996 0.5374 0.5953
2633.055 0.6275 0.5441 0.4744 0.5301 0.5708 0.5666 0.5591 0.53 0.4549 0.4403
2652.345 0.5065 0.5247 0.4901 0.4931 0.4932 0.4419 0.4871 0.4475 0.3809 0.4552
2671.634 0.5192 0.555 0.5599 0.4828 0.4253 0.474 0.5098 0.4797 0.4652 0.4886
2690.924 0.593 0.5947 0.4882 0.4936 0.6269 0.6956 0.5968 0.5792 0.6083 0.6347
2710.214 0.7035 0.7588 0.7678 0.7793 0.6838 0.5845 0.6357 0.7207 0.656 0.5293
2729.504 0.5235 0.5819 0.5832 0.5517 0.5715 0.5781 0.5809 0.5551 0.5603 0.5308
2748.794 0.5336 0.5169 0.5085 0.4895 0.4622 0.5311 0.5023 0.4555 0.4623 0.4555
2768.083 0.5156 0.6252 0.5916 0.5455 0.6422 0.6637 0.6592 0.7132 0.76 0.8014
2787.373 0.7775 0.7343 0.7865 0.8234 0.851 0.8953 0.852 0.8473 0.8876 0.8826
2806.663 0.9345 0.9797 0.9694 1.0442 1.188 1.238 1.278 1.258 1.218 1.318
2825.953 1.388 1.448 1.548 1.578 1.638 1.778 1.938 2.018 2.078 2.258
2845.242 2.498 2.728 3.058 3.348 3.638 4.008 4.248 4.428 4.698 4.918
2864.532 4.968 5.008 5.148 5.248 5.238 5.308 5.328 5.348 5.558 5.708
2883.822 5.838 5.978 6.148 6.318 6.448 6.478 6.608 6.888 7.038 7.288
2903.112 7.648 7.998 8.318 8.738 9.298 9.948 10.848 11.878 12.838 13.828
2922.401 14.928 16.038 16.938 17.508 17.738 17.788 17.758 17.408 16.838 16.348
2941.691 15.788 15.178 14.678 14.218 13.658 13.128 12.548 11.918 11.308 10.628
2960.981 10.018 9.398 8.848 8.398 7.828 7.318 6.938 6.608 6.298 5.898
2980.271 5.548 5.328 5.068 4.768 4.548 4.438 4.218 4.038 4.068 4.178
2999.561 4.338 4.458 4.728 5.178 5.598 6.058 6.538 7.148 8.048 9.138
3018.850 10.478 12.088 13.958 16.008 18.028 19.948 21.408 22.138 22.118 21.178
3038.140 19.658 17.728 15.608 13.718 12.158 11.178 10.628 10.398 10.578 11.018
3057.430 11.788 12.988 14.618 16.588 18.728 20.638 21.938 22.468 22.158 20.948
3076.720 19.108 17.208 15.658 14.468 13.498 12.718 11.998 11.198 10.318 9.428
3096.009 8.578 7.778 6.948 6.258 5.748 5.308 4.928 4.588 4.188 3.748
3115.299 3.358 2.998 2.578 2.238 1.998 1.678 1.378 1.208 1.0865 1.0112
3134.589 0.8479 0.6851 0.6789 0.747 0.8144 0.7667 0.6602 0.5718 0.6207 0.648
3153.879 0.6433 0.5809 0.5522 0.5816 0.6047 0.6452 0.5548 0.4561 0.447 0.4012
3173.169 0.4313 0.4731 0.4117 0.3504 0.3456 0.4445 0.4351 0.3981 0.425 0.3407
3192.458 0.23731 0.2782 0.3811 0.3633 0.3282 0.3245 0.2521 0.19296 0.16149 0.2491
3211.748 0.3362 0.2989 0.2718 0.308 0.3479 0.2956 0.19337 0.21148 0.18744 0.19078
3231.038 0.22858 0.2718 0.3364 0.3229 0.3793 0.3539 0.1676 0.13661 0.296 0.27
3250.328 0.2546 0.3284 0.2853 0.405 0.4786 0.2973 0.2452 0.38 0.3372 0.3346
3269.617 0.2731 0.082 0.17515 0.21835 0.17565 0.21447 0.18903 0.20305 0.2799 0.23633
3288.907 0.2641 0.341 0.2912 0.20562 0.2931 0.3918 0.3565 0.2591 0.2498 0.2762
3308.197 0.3038 0.3297 0.2703 0.2388 0.20639 0.17607 0.1205 0.15982 0.21267 0.21996
3327.487 0.3484 0.4412 0.3889 0.3641 0.3065 0.2425 0.3222 0.3137 0.20296 0.2323
3346.777 0.2861 0.3059 0.379 0.3744 0.3732 0.3944 0.4814 0.5916 0.5224 0.5528
3366.066 0.5552 0.7457 0.9007 0.8005 0.8543 0.8583 0.9005 1.0155 1.1197 1.238
3385.356 1.348 1.378 1.538 1.628 1.718 1.808 1.718 1.788 1.948 1.968
3404.646 1.998 2.108 2.108 2.128 2.318 2.558 2.708 2.958 3.218 3.418
3423.936 3.588 3.808 4.208 4.488 4.778 5.298 5.818 6.228 6.588 6.988
3443.225 7.338 7.668 7.848 7.848 7.838 7.738 7.488 7.118 6.508 5.838
3462.515 5.338 4.988 4.678 4.338 3.998 3.618 3.228 2.818 2.508 2.258
3481.805 1.988 1.898 1.818 1.668 1.538 1.388 1.238 1.138 1.1116 1.0541
3501.095 0.9322 0.8325 0.7201 0.6494 0.6772 0.7274 0.7291 0.6054 0.4615 0.4864
3520.385 0.5478 0.558 0.4869 0.4167 0.3639 0.315 0.3367 0.16655 0.0653 0.311
3539.674 0.3978 0.3212 0.3883 0.3369 0.2652 0.2481 0.2864 0.4337 0.378 0.1976
3558.964 0.19089 0.2623 0.1381 0.0716 0.14904 0.138952 0.2533 0.2909 0.22603 0.0666
3578.254 0.03 0.1239 0.15001 0.18111 0.0869 0.0817 0.18097 0.16391 0.21426 0.2873
3597.544 0.22649 0.2591 0.2314 0.18005 0.140428 0.14851 0.21325 0.19447 0.141237 0.16564
3616.833 0.3481 0.3931 0.4524 0.5618 0.5532 0.3785 0.2628 0.3855 0.3973 0.373
3636.123 0.341 0.2695 0.3031 0.3224 0.3705 0.3763 0.2558 0.3569 0.4198 0.4185
3655.413 0.3532 0.22233 0.3362 0.5079 0.4659 0.3134 0.319 0.3301 0.3214 0.286
3674.703 0.2819 0.269 0.3395 0.4241 0.3166 0.21309 0.2926 0.4127 0.2811 0.3682
3693.993 0.4799 0.3004 0.22597 0.21549 0.2949 0.3417 0.3219 0.4185 0.4101 0.4139
3713.282 0.452 0.4582 0.4076 0.2536 0.19326 0.3146 0.3646 0.23009 0.3068 0.3257
3732.572 0.0646 0 0.21578 0.3372 0.3571 0.3917 0.3754 0.351 0.3929 0.4358
3751.862 0.4405 0.4447 0.3582 0.2639 0.2483 0.3199 0.1987 0.1095 0.3112 0.3151
3771.152 0.2609 0.19771 0.16138 0.2564 0.2969 0.3384 0.3476 0.3368 0.3036 0.3584
3790.441 0.399 0.4088 0.3887 0.4773 0.4709 0.3129 0.3144 0.4121 0.52 0.4309
3809.731 0.4163 0.4372 0.4769 0.51 0.5166 0.4919 0.3411 0.3786 0.4885 0.5334
3829.021 0.4644 0.2832 0.2612 0.306 0.2875 0.3389 0.4166 0.5041 0.377 0.3095
3848.311 0.3621 0.2798 0.213 0.2402 0.3431 0.5031 0.5381 0.4215 0.3671 0.17364
3867.601 0.1572 0.2991 0.3197 0.3819 0.4202 0.3469 0.2587 0.3346 0.4299 0.4059
3886.890 0.3741 0.3354 0.3505 0.3949 0.3915 0.3627 0.3908 0.3364 0.2972 0.3212
3906.180 0.3523 0.3462 0.2774 0.2853 0.3469 0.4054 0.3613 0.4059 0.3797 0.23455
3925.470 0.2829 0.3907 0.4154 0.2942 0.339 0.6305 0.6266 0.4668 0.4389 0.4296
3944.760 0.2992 0.3225 0.5065 0.3791 0.18127 0.1818 0.19971 0.275 0.4005 0.3487
3964.049 0.23343 0.3119 0.2995 0.2511 0.3557 0.21904 0.141733 0.2645 0.2764 0.2846
3983.339 0.2733 0.291 0.4915 0.6234 0.6181 0.5308 0.3088 0.22192 0.3063 0.4348
##END=
