##TITLE=2-Methyl-3-decanone
##JCAMP-DX=4.24
##DATA TYPE=INFRARED SPECTRUM
##ORIGIN=NIST Mass Spectrometry Data Center
##OWNER=NIST Standard Reference Data Program
Collection (C) 2018 copyright by the U.S. Secretary of Commerce
on behalf of the United States of America. All rights reserved.
##CAS REGISTRY NO=5463-82-1
##MOLFORM=C 11 H 22 O
##$NIST SOURCE=MSDC-IR
##SPECTROMETER/DATA SYSTEM=HP-GC/MS/IRD
##STATE=gas
##XUNITS=1/CM
##YUNITS=ABSORBANCE
##XFACTOR=1.0
##YFACTOR=0.000004600
##DELTAX=4.0
##FIRSTX=550.0
##LASTX=3846.0
##FIRSTY=0.000235
##MAXX=3846
##MINX=550
##MAXY=0.046
##MINY=0
##NPOINTS=825
##XYDATA=(X++(Y..Y))
550.0 51 21 12 36 35 25 25 14 6 11
590.0 24 35 42 39 39 38 32 30 24 23
630.0 31 32 34 34 30 27 25 19 11 5
670.0 4 13 20 21 31 36 42 65 87 107
710.0 119 133 159 172 175 176 167 150 130 108
750.0 101 109 116 117 115 120 123 124 123 120
790.0 117 112 109 108 105 108 108 91 99 99
830.0 92 88 77 76 81 76 78 89 93 94
870.0 98 117 125 124 125 131 132 127 127 130
910.0 145 154 166 192 209 211 215 226 241 254
950.0 272 295 321 348 386 434 483 531 579 627
990.0 675 724 781 833 863 865 840 819 799 793
1030.0 808 832 859 893 922 936 964 975 968 941
1070.0 890 838 785 746 727 723 733 755 780 789
1110.0 787 778 769 752 714 672 621 562 510 463
1150.0 412 368 335 317 322 351 393 434 474 490
1190.0 500 515 518 493 455 415 379 345 324 308
1230.0 293 296 295 300 317 329 338 352 367 374
1270.0 380 382 389 408 430 456 476 487 494 497
1310.0 498 506 525 554 599 672 762 865 976 1078
1350.0 1154 1193 1190 1153 1112 1068 1039 1068 1157 1209
1390.0 1132 936 733 630 593 583 591 602 606 617
1430.0 648 696 774 891 1038 1210 1387 1557 1696 1766
1470.0 1705 1490 1192 899 683 530 415 338 283 237
1510.0 196 171 150 132 118 103 93 86 79 70
1550.0 65 66 64 61 60 61 60 61 60 61
1590.0 62 60 60 62 63 66 67 69 77 82
1630.0 83 89 96 105 115 125 144 164 186 223
1670.0 268 326 399 487 601 746 951 1250 1662 2203
1710.0 2884 3634 4315 4691 4573 3981 3100 2225 1543 1073
1750.0 767 560 423 328 258 205 166 138 115 96
1790.0 86 75 66 58 50 46 43 38 31 29
1830.0 31 28 26 27 26 23 23 21 19 20
1870.0 20 18 15 14 17 19 14 11 9 10
1910.0 14 14 12 9 7 9 9 9 11 9
1950.0 7 5 5 6 4 4 7 6 5 3
1990.0 1 1 4 5 7 6 4 8 11 12
2030.0 13 15 13 11 10 13 14 9 9 11
2070.0 9 7 5 3 3 4 6 5 1 0
2110.0 4 3 2 7 5 5 7 7 5 4
2150.0 3 3 6 9 9 6 5 6 8 11
2190.0 9 4 3 7 11 10 7 5 10 12
2230.0 10 10 10 16 15 13 17 16 13 9
2270.0 6 11 16 14 11 13 14 14 15 15
2310.0 18 19 19 19 19 21 22 23 24 25
2350.0 24 25 26 26 22 23 23 23 23 20
2390.0 19 18 19 20 18 15 14 20 21 19
2430.0 21 22 24 22 20 22 23 24 23 19
2470.0 19 18 17 17 20 20 20 22 22 23
2510.0 24 24 22 23 28 33 35 36 36 39
2550.0 42 42 39 37 37 42 46 44 44 44
2590.0 49 53 51 52 58 60 64 68 72 72
2630.0 73 76 79 86 89 90 97 103 108 113
2670.0 117 116 118 121 125 125 123 121 119 118
2710.0 122 126 130 138 146 155 161 171 181 181
2750.0 182 188 191 197 206 214 226 237 251 269
2790.0 298 329 350 382 418 462 507 561 622 687
2830.0 764 868 1020 1233 1536 1963 2505 3073 3560 3882
2870.0 4032 4088 4140 4178 4154 4097 4087 4201 4438 4792
2910.0 5271 5916 6751 7746 8762 9569 10000 9978 9559 8890
2950.0 8155 7599 7398 7584 7957 8123 7726 6717 5398 4154
2990.0 3167 2437 1899 1506 1218 1001 834 707 612 539
3030.0 479 427 387 354 326 303 285 270 257 246
3070.0 233 221 216 208 206 207 198 191 191 181
3110.0 168 164 160 151 144 141 139 136 135 130
3150.0 125 122 121 125 125 124 124 121 118 115
3190.0 103 97 97 98 90 75 65 61 54 50
3230.0 45 40 37 33 28 25 27 28 30 33
3270.0 26 19 18 19 24 25 23 21 22 24
3310.0 23 25 25 22 24 22 20 19 18 20
3350.0 21 17 16 25 31 32 32 31 32 36
3390.0 38 41 47 50 60 70 77 86 92 97
3430.0 95 85 77 70 60 50 42 35 29 29
3470.0 28 23 19 20 15 8 7 7 9 8
3510.0 8 7 7 9 14 15 10 8 8 9
3550.0 8 7 8 10 6 8 8 4 5 8
3590.0 11 10 8 8 9 14 13 12 14 15
3630.0 9 11 15 12 17 21 17 18 22 20
3670.0 18 14 13 16 19 17 14 11 18 26
3710.0 22 20 18 14 18 18 16 14 21 24
3750.0 23 29 27 25 25 21 18 19 22 24
3790.0 31 31 29 29 31 32 32 30 28 32
3830.0 34 26 23 27 26
##END=
