##TITLE=5-Methyl-3-heptanol
##JCAMP-DX=4.24
##DATA TYPE=INFRARED SPECTRUM
##ORIGIN=NIST Mass Spectrometry Data Center
##OWNER=NIST Standard Reference Data Program
Collection (C) 2018 copyright by the U.S. Secretary of Commerce
on behalf of the United States of America. All rights reserved.
##CAS REGISTRY NO=54630-50-1
##MOLFORM=C 8 H 18 O
##$NIST SOURCE=MSDC-IR
##SPECTROMETER/DATA SYSTEM=HP-GC/MS/IRD
##STATE=gas
##XUNITS=1/CM
##YUNITS=ABSORBANCE
##XFACTOR=1.0
##YFACTOR=0.000001900
##DELTAX=4.0
##FIRSTX=550.0
##LASTX=3846.0
##FIRSTY=0.000236
##MAXX=3846
##MINX=550
##MAXY=0.019
##MINY=0
##NPOINTS=825
##XYDATA=(X++(Y..Y))
550.0 124 109 71 92 103 105 90 43 98 113
590.0 63 123 120 102 111 125 137 102 82 95
630.0 88 125 160 90 63 108 107 96 119 149
670.0 141 139 161 156 121 113 112 111 89 76
710.0 81 84 100 122 123 138 154 154 161 151
750.0 157 155 159 199 234 230 212 205 228 223
790.0 173 152 167 185 213 205 185 167 100 111
830.0 201 284 317 328 358 385 369 336 330 328
870.0 324 320 329 355 373 373 354 361 373 403
910.0 468 523 619 730 841 945 1024 1063 1048 966
950.0 858 752 680 672 683 679 686 701 695 692
990.0 729 771 801 825 857 888 923 945 979 1027
1030.0 1051 1088 1126 1182 1250 1303 1326 1304 1303 1321
1070.0 1310 1323 1366 1409 1467 1525 1555 1556 1494 1417
1110.0 1345 1261 1200 1203 1241 1270 1277 1255 1237 1178
1150.0 1071 983 865 759 681 594 517 494 491 486
1190.0 498 537 570 614 656 689 749 767 778 834
1230.0 903 964 1010 1021 1031 1016 962 912 848 782
1270.0 741 705 647 614 597 574 555 543 534 527
1310.0 519 516 536 564 603 651 690 740 833 927
1350.0 1020 1097 1171 1286 1456 1682 1904 2096 2192 2133
1390.0 1926 1609 1299 1067 871 728 644 585 563 569
1430.0 582 624 713 845 1009 1185 1336 1449 1513 1477
1470.0 1334 1121 902 689 527 403 320 268 224 180
1510.0 158 156 135 115 118 126 113 87 73 81
1550.0 86 71 53 75 93 73 73 61 61 67
1590.0 68 75 77 87 87 75 59 50 55 57
1630.0 54 48 47 54 51 35 40 42 32 25
1670.0 33 37 29 17 7 17 13 0 12 21
1710.0 15 11 17 39 47 27 18 20 22 21
1750.0 17 20 15 16 8 6 13 24 37 39
1790.0 30 12 0 2 19 21 15 18 19 15
1830.0 20 24 24 19 9 24 35 25 18 12
1870.0 4 14 27 26 25 22 22 29 33 30
1910.0 29 37 33 32 42 42 40 36 28 31
1950.0 32 33 39 34 31 28 20 26 31 28
1990.0 30 34 39 35 32 32 29 30 27 34
2030.0 37 26 18 22 24 21 26 37 39 38
2070.0 34 33 26 21 26 28 36 41 36 32
2110.0 33 29 33 46 52 52 34 42 55 47
2150.0 48 46 51 59 54 52 57 49 44 49
2190.0 50 53 46 45 55 59 62 60 54 51
2230.0 61 64 63 75 74 61 64 63 58 65
2270.0 67 64 72 76 79 81 79 88 89 94
2310.0 101 96 89 93 91 81 92 98 109 123
2350.0 122 112 111 109 111 118 120 123 118 112
2390.0 119 127 129 125 113 111 116 117 126 115
2430.0 100 101 98 109 126 126 129 143 129 122
2470.0 132 129 122 122 125 120 125 135 131 133
2510.0 147 155 153 160 168 156 149 145 160 171
2550.0 176 184 171 188 202 191 194 199 204 220
2590.0 229 226 230 230 235 244 240 247 250 258
2630.0 260 265 267 275 295 289 279 289 291 299
2670.0 314 318 300 302 307 305 316 323 327 326
2710.0 326 334 341 338 352 375 389 413 419 425
2750.0 431 419 417 424 433 429 428 436 456 486
2790.0 519 554 586 608 636 671 721 775 819 888
2830.0 978 1093 1239 1421 1673 2003 2402 2877 3367 3837
2870.0 4307 4732 5058 5231 5187 5014 4801 4677 4784 5158
2910.0 5720 6362 7037 7636 8104 8400 8458 8273 7914 7544
2950.0 7346 7501 8123 9035 9818 10000 9394 8111 6435 4802
2990.0 3457 2459 1813 1416 1153 978 851 761 693 642
3030.0 612 568 523 511 492 473 458 439 427 426
3070.0 434 426 411 401 384 369 356 353 341 331
3110.0 347 343 328 330 317 306 311 300 292 293
3150.0 292 297 300 288 291 282 246 246 252 258
3190.0 265 243 243 250 241 206 202 201 195 182
3230.0 156 156 149 150 160 155 150 169 193 171
3270.0 143 152 158 140 134 143 127 127 115 94
3310.0 91 96 121 129 128 131 129 118 114 129
3350.0 143 127 125 156 153 148 153 140 142 152
3390.0 134 121 116 108 126 147 143 153 142 139
3430.0 160 138 133 143 116 102 109 124 128 116
3470.0 104 97 86 100 112 106 110 105 96 106
3510.0 105 97 86 73 72 77 57 65 76 73
3550.0 84 93 75 41 47 63 87 85 66 70
3590.0 85 93 96 106 111 118 123 143 193 232
3630.0 263 315 377 443 512 569 617 626 553 443
3670.0 336 246 198 172 131 108 125 135 143 126
3710.0 90 86 103 87 72 103 96 72 83 104
3750.0 92 72 82 90 112 101 75 76 95 118
3790.0 117 99 78 90 111 110 105 102 88 80
3830.0 94 104 108 116 103
##END=
