##TITLE=3,4-Dimethylcyclohexanone
##JCAMP-DX=4.24
##DATA TYPE=INFRARED SPECTRUM
##ORIGIN=NIST Mass Spectrometry Data Center
##OWNER=NIST Standard Reference Data Program
Collection (C) 2018 copyright by the U.S. Secretary of Commerce
on behalf of the United States of America. All rights reserved.
##CAS REGISTRY NO=5465-09-8
##MOLFORM=C 8 H 14 O
##$NIST SOURCE=MSDC-IR
##SPECTROMETER/DATA SYSTEM=HP-GC/MS/IRD
##STATE=gas
##XUNITS=1/CM
##YUNITS=ABSORBANCE
##XFACTOR=1.0
##YFACTOR=0.000001900
##DELTAX=4.0
##FIRSTX=550.0
##LASTX=3846.0
##FIRSTY=0.000298
##MAXX=3846
##MINX=550
##MAXY=0.019
##MINY=0
##NPOINTS=825
##XYDATA=(X++(Y..Y))
550.0 157 112 112 104 37 0 47 61 45 39
590.0 91 136 84 89 115 99 68 77 100 122
630.0 139 136 138 113 96 111 142 143 122 123
670.0 148 164 150 152 181 175 154 154 163 154
710.0 172 195 189 200 199 183 211 233 228 224
750.0 225 243 253 258 258 270 284 268 249 214
790.0 179 180 173 172 162 165 165 167 196 201
830.0 201 209 222 237 239 229 233 233 222 190
870.0 172 175 164 141 139 159 160 159 169 177
910.0 184 211 224 206 210 224 233 249 240 221
950.0 221 218 215 234 270 286 303 307 301 315
990.0 319 323 307 298 321 342 341 305 279 266
1030.0 242 238 243 255 288 352 424 514 616 723
1070.0 831 866 833 771 691 591 510 445 400 376
1110.0 374 388 400 413 410 419 453 525 621 703
1150.0 760 814 869 887 869 865 869 883 898 933
1190.0 943 928 895 847 810 782 774 791 834 876
1230.0 895 894 855 801 726 646 594 558 548 556
1270.0 554 542 525 501 472 464 473 486 519 552
1310.0 571 613 664 705 757 799 821 810 778 747
1350.0 691 629 570 552 595 676 809 957 1080 1176
1390.0 1174 1035 876 755 717 783 913 1060 1189 1269
1430.0 1326 1319 1243 1206 1211 1238 1298 1350 1333 1259
1470.0 1135 967 791 628 494 389 313 257 221 195
1510.0 169 159 153 142 127 118 124 136 138 135
1550.0 126 114 126 131 131 131 126 131 148 162
1590.0 159 155 151 158 163 171 191 202 203 212
1630.0 225 241 264 277 289 323 346 363 391 417
1670.0 454 508 576 672 788 915 1108 1375 1726 2249
1710.0 3055 4247 5875 7661 9100 9936 10000 9226 7725 5697
1750.0 3813 2549 1793 1303 969 746 597 501 426 366
1790.0 339 317 289 268 239 215 197 178 161 157
1830.0 144 126 119 112 106 105 104 104 102 88
1870.0 84 85 78 75 71 68 71 81 80 64
1910.0 54 63 64 60 56 59 59 56 55 51
1950.0 47 45 45 39 37 41 51 51 42 35
1990.0 37 47 51 50 40 31 41 53 44 41
2030.0 41 38 41 41 39 37 40 48 46 35
2070.0 28 31 31 30 33 36 35 26 27 38
2110.0 43 35 33 31 26 21 24 29 25 20
2150.0 22 34 33 27 28 30 30 35 34 24
2190.0 17 15 23 33 37 35 20 11 18 19
2230.0 20 25 23 16 17 16 8 5 13 18
2270.0 22 29 26 23 25 23 23 29 25 24
2310.0 20 16 17 11 13 25 29 32 28 29
2350.0 35 30 32 35 23 9 10 23 36 36
2390.0 44 45 35 44 43 47 50 45 41 39
2430.0 45 47 48 49 41 44 49 45 43 46
2470.0 44 42 48 41 41 49 50 46 45 52
2510.0 46 44 48 44 45 52 61 60 71 69
2550.0 61 63 64 74 75 68 72 76 75 84
2590.0 88 90 98 92 87 99 112 128 127 120
2630.0 126 136 142 152 153 133 133 140 148 153
2670.0 146 159 170 169 175 175 155 150 151 143
2710.0 148 150 141 145 158 162 171 189 195 197
2750.0 197 194 179 173 170 177 184 179 191 213
2790.0 233 237 238 261 278 302 346 394 444 497
2830.0 563 615 656 697 758 868 1055 1323 1660 2089
2870.0 2611 3113 3513 3829 4143 4382 4580 4717 4657 4560
2910.0 4381 4157 4133 4338 4728 5213 5501 5566 5565 5547
2950.0 5641 6000 6589 7201 7831 8021 7245 6046 4709 3370
2990.0 2299 1507 1013 736 582 485 434 387 344 327
3030.0 322 306 290 278 265 250 237 240 227 205
3070.0 209 215 221 221 210 207 221 212 199 206
3110.0 190 176 176 178 178 166 169 175 174 166
3150.0 152 164 172 150 132 134 123 102 106 116
3190.0 122 103 96 108 111 97 82 85 75 67
3230.0 69 53 54 71 69 83 96 83 78 95
3270.0 90 53 43 64 78 66 57 54 57 61
3310.0 55 60 54 34 38 49 47 38 50 63
3350.0 50 52 47 40 57 52 46 61 72 79
3390.0 71 61 75 88 83 83 78 93 127 142
3430.0 146 159 186 209 223 205 168 147 135 120
3470.0 115 101 78 79 75 49 60 84 74 49
3510.0 44 48 33 25 25 18 12 21 16 8
3550.0 24 37 39 42 33 15 10 16 20 31
3590.0 42 35 27 25 14 10 5 15 16 13
3630.0 11 15 16 19 31 37 29 25 33 31
3670.0 35 42 37 36 24 12 5 9 11 4
3710.0 19 38 39 43 42 42 28 11 26 34
3750.0 34 17 6 26 32 41 51 41 33 26
3790.0 22 25 37 50 41 39 55 49 49 64
3830.0 45 35 57 45 28
##END=
