##TITLE=N-(2-Acetoxyethyl)phthalimide
##JCAMP-DX=4.24
##DATA TYPE=INFRARED SPECTRUM
##ORIGIN=EPA-IR VAPOR PHASE LIBRARY
##OWNER=SRD/NIST
Collection (C) 2018 copyright by the U.S. Secretary of Commerce
on behalf of the United States of America. All rights reserved.
##CAS REGISTRY NO=5466-90-0
##MOLFORM=C 12 H 11 N O 4
##$NIST SOURCE=MSDC-IR
##STATE=gas
##XUNITS=1/CM
##YUNITS=ABSORBANCE
##XFACTOR=1.
##YFACTOR=0.001
##DELTAX=1.92898
##FIRSTX=549.8
##LASTX=4000.7
##FIRSTY=3.629
##MAXX=4000.7
##MINX=549.759
##MAXY=0.295309
##MINY=0
##NPOINTS=1790
##XYDATA=(X++(Y..Y))
549.759 3.629 3.319 2.819 2.089 1.419 1.1646 0.9894 0.744 0.6433 0.812
569.049 0.6767 0.4425 0.658 0.8544 1.1887 1.1995 0.9395 1.1447 1.539 1.599
588.339 1.719 2.169 2.719 3.239 3.889 4.809 5.269 5.619 5.959 5.939
607.628 5.739 5.439 5.029 4.309 3.809 3.589 3.389 3.239 3.149 3.179
626.918 3.339 3.379 3.859 4.579 4.759 4.829 4.869 4.589 4.389 4.339
646.208 4.019 3.819 3.459 2.959 2.639 2.359 2.029 1.729 1.779 1.609
665.498 1.409 1.389 1.1933 1.299 1.469 1.439 1.539 1.659 1.799 2.119
684.787 2.559 2.889 3.319 3.949 4.579 5.299 6.099 7.089 8.609 10.949
704.077 14.399 19.429 26.209 34.949 44.599 53.059 59.649 61.959 58.069 50.389
723.367 40.919 31.079 22.549 16.049 11.509 8.509 6.619 5.559 4.879 4.219
742.657 3.769 3.639 3.589 3.419 3.249 2.999 2.899 2.819 2.439 2.409
761.947 2.609 2.709 2.719 2.679 2.789 3.119 3.499 3.979 4.659 5.249
781.236 5.959 6.489 6.989 7.389 7.109 6.489 6.079 5.769 5.409 5.469
800.526 5.589 5.559 5.739 5.759 5.709 5.479 4.829 4.369 4.209 3.919
819.816 3.499 3.159 3.109 3.089 2.969 2.979 3.069 3.199 3.229 3.289
839.106 3.389 3.659 4.019 4.269 4.559 4.989 5.469 5.899 6.089 6.209
858.395 6.429 6.329 6.179 6.129 6.139 6.409 6.809 6.809 6.589 6.709
877.685 6.679 6.519 6.519 6.389 6.149 6.069 6.069 5.889 5.639 5.559
896.975 5.559 5.439 5.409 5.419 5.499 5.519 5.439 5.389 5.359 5.309
916.265 5.299 5.289 5.119 5.059 5.069 5.059 5.079 5.009 4.959 4.879
935.555 4.829 4.989 5.039 5.109 5.249 5.359 5.399 5.419 5.409 5.159
954.844 5.129 5.239 5.319 5.379 5.449 5.659 5.839 6.189 6.589 7.119
974.134 7.959 8.649 9.589 10.649 11.679 12.849 13.919 15.079 15.799 16.349
993.424 17.139 17.889 18.629 19.559 20.649 21.649 23.239 25.419 27.739 30.269
1012.714 33.099 36.209 38.919 41.129 42.759 44.039 44.779 44.979 45.579 46.379
1032.003 46.959 47.419 47.149 46.109 44.759 42.649 39.829 37.149 35.089 33.319
1051.293 31.519 30.529 29.819 29.109 28.929 28.629 28.199 27.789 27.189 26.799
1070.583 26.059 24.619 23.509 22.399 21.269 20.719 20.289 19.069 17.379 16.279
1089.873 15.369 14.779 13.729 12.229 11.599 10.949 9.869 9.179 8.609 8.059
1109.163 7.599 7.139 6.599 6.399 6.619 6.699 6.529 6.099 6.039 6.089
1128.452 5.729 5.199 5.139 5.309 5.739 6.199 6.399 6.879 7.879 8.329
1147.742 8.449 9.199 10.199 11.089 11.589 11.589 11.139 10.859 10.659 10.719
1167.032 11.139 11.749 12.629 13.669 14.669 15.919 17.399 18.959 20.479 21.819
1186.322 23.239 24.499 25.219 25.839 26.909 28.049 29.459 31.829 35.539 40.629
1205.611 46.989 55.569 67.009 80.639 96.589 115.039 134.219 151.879 166.249 174.909
1224.901 175.969 169.569 156.769 139.439 120.199 101.219 84.389 70.389 59.269 50.629
1244.191 43.869 38.649 34.399 30.829 28.009 25.819 23.689 21.949 20.749 19.749
1263.481 18.989 18.379 17.809 17.399 17.439 17.429 17.269 17.069 16.849 16.669
1282.771 16.279 15.729 15.189 14.719 14.399 14.249 14.349 14.559 14.879 15.369
1302.060 15.929 16.669 17.689 18.809 20.009 21.529 23.119 24.579 25.819 26.729
1321.350 27.219 27.209 26.789 26.009 25.069 24.169 23.369 22.939 22.989 23.589
1340.640 24.909 26.919 29.739 33.519 38.339 44.429 51.829 60.219 68.849 76.679
1359.930 82.849 87.299 90.439 92.629 94.529 97.159 101.439 107.679 115.729 124.629
1379.219 133.109 139.909 143.629 143.129 137.949 128.369 115.269 100.159 84.979 71.469
1398.509 60.389 51.819 45.499 40.749 37.099 34.109 31.449 29.039 27.069 25.649
1417.799 24.909 25.029 26.039 27.649 29.629 31.709 33.389 34.229 34.009 32.779
1437.089 30.709 28.239 25.729 23.419 21.629 20.259 19.099 18.049 17.059 16.179
1456.378 15.539 15.229 15.179 15.349 15.659 15.959 15.939 15.429 14.449 13.159
1475.668 11.619 10.039 8.669 7.599 6.889 6.369 5.969 5.589 5.329 5.189
1494.958 5.069 4.939 4.819 4.719 4.619 4.449 4.309 4.369 4.419 4.369
1514.248 4.319 4.319 4.379 4.339 4.299 4.329 4.289 4.239 4.179 4.079
1533.538 4.009 4.029 3.909 3.749 3.789 3.799 3.729 3.649 3.609 3.609
1552.827 3.589 3.529 3.469 3.389 3.409 3.469 3.379 3.449 3.559 3.569
1572.117 3.679 3.709 3.669 3.799 3.899 4.059 4.249 4.469 4.709 4.859
1591.407 5.009 5.129 5.169 5.189 5.289 5.439 5.639 5.939 6.189 6.369
1610.697 6.529 6.529 6.379 6.069 5.749 5.389 5.029 4.729 4.419 4.159
1629.986 3.969 3.789 3.649 3.529 3.469 3.499 3.499 3.509 3.469 3.449
1649.276 3.619 3.619 3.599 3.769 3.919 4.089 4.189 4.319 4.589 4.889
1668.566 5.089 5.259 5.649 6.009 6.369 6.769 7.189 7.649 8.189 8.989
1687.856 9.859 10.819 12.009 13.329 14.939 16.899 18.979 21.229 23.779 26.649
1707.146 29.759 33.399 37.799 43.329 50.609 60.469 73.969 91.619 114.439 142.549
1726.435 174.979 209.309 242.379 269.699 288.239 295.309 289.269 271.419 245.149 214.229
1745.725 183.219 155.559 133.909 119.229 111.349 109.319 112.049 118.169 125.819 132.669
1765.015 136.559 136.669 132.779 124.899 113.619 101.849 92.199 85.549 81.699 79.749
1784.305 78.349 76.039 71.799 65.479 57.389 48.149 39.029 31.339 25.529 21.359
1803.594 18.499 16.319 14.529 13.149 11.979 10.919 9.999 9.199 8.529 7.899
1822.884 7.299 6.809 6.489 6.289 6.129 6.019 5.879 5.799 5.849 5.779
1842.174 5.629 5.439 5.279 5.099 4.919 4.719 4.549 4.379 4.259 4.199
1861.464 4.109 4.019 4.039 4.049 4.019 3.989 3.999 3.909 3.739 3.609
1880.754 3.489 3.439 3.319 3.199 3.129 3.089 3.039 2.979 2.989 2.959
1900.043 3.009 3.019 2.959 2.949 2.889 2.899 2.889 2.749 2.629 2.579
1919.333 2.469 2.329 2.309 2.399 2.449 2.519 2.639 2.709 2.769 2.779
1938.623 2.689 2.599 2.489 2.329 2.199 2.109 1.969 1.809 1.749 1.739
1957.913 1.779 1.829 1.899 1.999 2.099 2.199 2.299 2.289 2.179 2.059
1977.202 1.909 1.759 1.649 1.559 1.569 1.569 1.519 1.499 1.509 1.479
1996.492 1.489 1.569 1.619 1.649 1.659 1.659 1.669 1.679 1.719 1.769
2015.782 1.769 1.759 1.819 1.899 1.869 1.849 1.799 1.729 1.729 1.749
2035.072 1.709 1.599 1.529 1.549 1.579 1.579 1.619 1.589 1.559 1.539
2054.362 1.549 1.529 1.539 1.569 1.579 1.529 1.469 1.529 1.539 1.509
2073.651 1.489 1.549 1.549 1.479 1.489 1.469 1.419 1.439 1.479 1.429
2092.941 1.339 1.309 1.299 1.309 1.309 1.2787 1.279 1.2337 1.1579 1.1148
2112.231 1.0372 1.0065 1.038 1.0506 1.0195 0.9992 1.0695 1.0959 1.0175 1.0567
2131.521 1.1017 1.0956 1.0359 0.95 0.9315 0.9382 0.9571 0.9359 0.9103 0.8908
2150.810 0.8921 0.9358 0.9518 0.9179 0.9587 0.9865 0.9633 0.9686 0.9297 0.927
2170.100 0.9649 0.9829 0.9463 0.9082 0.8881 0.9076 0.9542 0.9403 0.9135 0.8593
2189.390 0.8021 0.8329 0.8707 0.9011 0.8684 0.7703 0.7763 0.8446 0.8703 0.8405
2208.680 0.8255 0.8085 0.8066 0.8262 0.8189 0.7812 0.835 0.9015 0.8841 0.8792
2227.970 0.821 0.7874 0.8337 0.8852 0.9155 0.8963 0.8672 0.9253 1.0061 1.0051
2247.259 0.9641 0.9646 1.0205 1.0795 1.0389 0.9491 0.9548 0.9529 0.9162 0.8627
2266.549 0.8371 0.8203 0.7921 0.8271 0.899 0.8669 0.8561 0.8901 0.9087 0.9182
2285.839 0.8979 0.9133 0.8841 0.8814 0.8291 0.7637 0.8425 0.9175 0.8846 0.9602
2305.129 1.0709 1.0114 0.9861 1.1067 1.2047 1.1846 1.1525 1.1688 1.1836 1.1883
2324.418 1.177 1.08 1.0134 1.0977 1.1125 1.0775 1.121 1.1531 1.1627 1.1453
2343.708 1.1172 1.1088 1.0768 1.0172 1.0149 1.0779 1.0544 0.9923 0.9873 1.0134
2362.998 1.0015 0.9968 1.0234 0.9899 0.9914 1.0187 1.0552 1.0471 1.0566 1.0654
2382.288 1.0065 0.9987 0.9916 0.9658 0.9783 0.9549 0.9906 1.0427 1.04 1.004
2401.578 0.9977 1.0388 1.0194 1.0129 1.0033 0.9658 0.9721 1.0512 1.1039 1.1183
2420.867 1.2003 1.2139 1.1108 1.0957 1.1466 1.166 1.1317 1.1575 1.1959 1.1731
2440.157 1.245 1.279 1.1983 1.1981 1.2045 1.0563 0.9936 1.0621 1.0504 0.9675
2459.447 1.0001 1.0375 0.9657 0.8729 0.8526 0.9087 0.8558 0.8556 0.9108 0.8914
2478.737 0.8341 0.796 0.8615 0.8467 0.8176 0.8161 0.79 0.7589 0.7158 0.678
2498.026 0.7118 0.7323 0.6567 0.5813 0.6299 0.595 0.6024 0.6801 0.5717 0.5737
2517.316 0.6423 0.7099 0.7229 0.6918 0.667 0.6197 0.5902 0.6198 0.6366 0.6577
2536.606 0.7376 0.7691 0.795 0.8584 0.7773 0.7599 0.8124 0.7585 0.6963 0.6586
2555.896 0.6651 0.5869 0.6173 0.6289 0.6048 0.5748 0.5608 0.6052 0.6141 0.6648
2575.186 0.5903 0.5547 0.5891 0.5535 0.5418 0.6344 0.6837 0.5819 0.5604 0.5942
2594.475 0.5504 0.4481 0.4312 0.4654 0.37553 0.4101 0.5026 0.5609 0.5685 0.5777
2613.765 0.5904 0.531 0.4996 0.4994 0.5271 0.6093 0.7018 0.6787 0.6427 0.6925
2633.055 0.7408 0.6886 0.6032 0.6543 0.7275 0.6994 0.6991 0.6793 0.667 0.6383
2652.345 0.6128 0.6497 0.6487 0.6046 0.6072 0.649 0.7309 0.7622 0.7022 0.7557
2671.634 0.7529 0.7421 0.7581 0.7612 0.768 0.7821 0.8078 0.8049 0.8342 0.8686
2690.924 0.9079 0.9633 1.0253 1.0018 0.9938 0.925 0.8755 0.9607 0.9754 0.85
2710.214 0.7077 0.7154 0.7668 0.6936 0.6451 0.6778 0.7024 0.7213 0.7274 0.7211
2729.504 0.6696 0.6742 0.6864 0.6759 0.6651 0.6056 0.6342 0.6583 0.6571 0.7091
2748.794 0.75 0.7804 0.811 0.7886 0.7799 0.7533 0.7146 0.7956 0.8154 0.8021
2768.083 0.8365 0.8384 0.871 1.0031 1.0222 0.8966 0.9781 1.1172 1.1186 1.0593
2787.373 1.0605 1.1247 1.0236 0.8398 0.8061 0.8359 0.7853 0.8097 0.8281 0.7263
2806.663 0.6949 0.6705 0.665 0.7486 0.8076 0.8052 0.7326 0.6753 0.7661 0.8546
2825.953 0.8162 0.8373 0.8334 0.8316 0.92 0.9149 0.9196 0.9317 0.9352 1.0235
2845.242 1.0749 0.9848 1.0103 1.1736 1.181 1.195 1.329 1.2621 1.1737 1.2427
2864.532 1.2254 1.2343 1.309 1.289 1.339 1.389 1.379 1.449 1.589 1.689
2883.822 1.679 1.879 2.089 2.079 2.179 2.329 2.349 2.409 2.549 2.689
2903.112 2.869 2.929 2.939 3.009 3.079 3.129 3.159 3.239 3.269 3.349
2922.401 3.539 3.619 3.759 4.029 4.369 4.849 5.349 6.009 6.979 7.979
2941.691 8.939 9.999 10.859 11.429 11.919 12.299 12.599 12.759 13.109 13.679
2960.981 13.849 13.929 13.969 13.459 12.659 11.439 9.999 8.739 7.679 6.869
2980.271 6.259 5.779 5.389 5.099 5.039 5.089 4.909 4.649 4.639 4.839
2999.561 4.779 4.449 4.339 4.249 3.859 3.419 3.009 2.689 2.499 2.419
3018.850 2.379 2.239 2.189 2.309 2.419 2.529 2.609 2.679 2.809 2.989
3038.140 3.029 3.079 3.279 3.279 3.359 3.609 3.739 3.949 4.279 4.679
3057.430 4.979 5.409 5.929 6.079 6.049 5.899 5.629 5.549 5.639 5.789
3076.720 6.219 6.749 7.119 7.569 7.979 8.119 8.059 7.749 7.149 6.279
3096.009 5.319 4.329 3.649 3.189 2.559 2.039 1.759 1.539 1.369 1.2441
3115.299 1.1435 1.1363 1.0542 0.9111 0.8922 0.9465 0.8995 0.6791 0.5823 0.6722
3134.589 0.6157 0.5394 0.5445 0.5211 0.4194 0.33249 0.33334 0.30317 0.34736 0.4005
3153.879 0.3896 0.3984 0.3594 0.4892 0.5021 0.4009 0.4164 0.4171 0.4266 0.35376
3173.169 0.34403 0.36138 0.31199 0.34174 0.4018 0.4615 0.4888 0.4167 0.3892 0.4129
3192.458 0.5183 0.5317 0.4468 0.4492 0.5356 0.6069 0.4721 0.4865 0.6586 0.6779
3211.748 0.7434 0.6337 0.4686 0.36351 0.32969 0.4384 0.5345 0.5098 0.4531 0.557
3231.038 0.4614 0.37306 0.4236 0.4669 0.4777 0.3228 0.364 0.4062 0.32697 0.33691
3250.328 0.3763 0.4374 0.5043 0.4774 0.37596 0.4323 0.485 0.518 0.4701 0.4311
3269.617 0.37149 0.2995 0.3341 0.33693 0.2437 0.1809 0.2365 0.3867 0.3937 0.33833
3288.907 0.259 0.123 0.2487 0.33624 0.33571 0.3878 0.32911 0.35012 0.37501 0.178
3308.197 0.2251 0.30446 0.29448 0.4046 0.4151 0.31694 0.2193 0.286539 0.4182 0.33678
3327.487 0.341 0.32669 0.2664 0.281286 0.3856 0.4469 0.3929 0.34864 0.1802 0.2255
3346.777 0.2547 0.2344 0.29038 0.31262 0.32478 0.30848 0.35012 0.4222 0.35461 0.2519
3366.066 0.2067 0.089 0.031 0.1882 0.3906 0.4185 0.432 0.35746 0.32277 0.4082
3385.356 0.32685 0.33502 0.3794 0.33681 0.4143 0.4485 0.408 0.2558 0.2506 0.4591
3404.646 0.36048 0.30777 0.4 0.36511 0.3815 0.4104 0.4767 0.4703 0.5236 0.5812
3423.936 0.457 0.4928 0.5786 0.5269 0.4869 0.5208 0.5315 0.5865 0.6499 0.7319
3443.225 0.778 0.6485 0.6601 0.912 0.9892 0.9087 0.8423 0.9564 1.1714 1.2592
3462.515 1.2534 1.369 1.369 1.299 1.319 1.449 1.649 1.479 1.569 1.709
3481.805 1.729 1.869 1.969 2.129 2.289 2.499 2.809 3.189 3.489 3.699
3501.095 3.979 4.189 4.139 3.989 3.979 3.819 3.619 3.459 3.199 2.949
3520.385 2.579 2.279 2.129 1.949 1.639 1.2141 1.1172 1.171 1.2568 1.299
3539.674 1.0387 0.7574 0.6319 0.8102 0.9652 0.8017 0.7741 0.8157 0.7171 0.6566
3558.964 0.6917 0.6798 0.6215 0.7351 0.8154 0.8007 0.7304 0.7414 0.7851 0.7096
3578.254 0.5561 0.4037 0.4255 0.387 0.4046 0.3831 0.34461 0.4057 0.4074 0.4979
3597.544 0.5563 0.5254 0.4046 0.2048 0.171 0.2216 0.31659 0.4191 0.32241 0.264
3616.833 0.2491 0.152 0.2222 0.31238 0.31604 0.2592 0.121 0.2585 0.4295 0.37526
3636.123 0.31446 0.171 0.153 0.2487 0.29528 0.3018 0.157 0.084 0.163 0.177
3655.413 0.33027 0.4188 0.267 0.226 0.1976 0.2241 0.34245 0.30805 0.2565 0.2155
3674.703 0.164 0.27849 0.29393 0.27353 0.3267 0.34257 0.31307 0.1863 0.165 0.29801
3693.993 0.30505 0.078 0.032 0.1926 0.2344 0.1817 0.103 0.126 0.142 0.133
3713.282 0.2146 0.27137 0.34035 0.3945 0.4224 0.468 0.2896 0.2261 0.4552 0.5416
3732.572 0.4497 0.286206 0.30629 0.33231 0.35815 0.421 0.288238 0.2636 0.284458 0.3066
3751.862 0.1914 0.177 0.29454 0.29203 0.2025 0.34337 0.4404 0.3838 0.4747 0.4258
3771.152 0.35441 0.3495 0.37348 0.2897 0.32771 0.4914 0.4992 0.29734 0.27273 0.428
3790.441 0.4853 0.3965 0.122 0.078 0.2524 0.32259 0.4134 0.4172 0.31773 0.4126
3809.731 0.3454 0.165 0.27192 0.287856 0.164 0.1939 0.046 0.094 0.32109 0.2188
3829.021 0.094 0.2518 0.409 0.28928 0.089 0.061 0.006 0 0.187 0.117
3848.311 0.144 0.1883 0.094 0.043 0.037 0.2143 0.29338 0.29985 0.2569 0.29557
3867.601 0.31139 0.194 0.2533 0.2532 0.1926 0.21 0.2581 0.267 0.27222 0.27011
3886.890 0.29423 0.2453 0.2436 0.34371 0.397 0.4486 0.3791 0.167 0.029 0.147
3906.180 0.31192 0.30131 0.34805 0.4868 0.36467 0.164 0.2101 0.29514 0.30067 0.2345
3925.470 0.2525 0.3961 0.4557 0.4164 0.29429 0.37356 0.3914 0.2228 0.221 0.239
3944.760 0.37384 0.4814 0.4288 0.33868 0.3911 0.4535 0.33914 0.32535 0.3828 0.37704
3964.049 0.30213 0.282941 0.2582 0.31474 0.2417 0.172 0.2956 0.5107 0.5933 0.4072
3983.339 0.3868 0.4935 0.5409 0.5376 0.5256 0.4043 0.2929 0.2944 0.35028 0.32443
##END=
