##TITLE=4-Nitrophthalic anhydride
##JCAMP-DX=4.24
##DATA TYPE=INFRARED SPECTRUM
##ORIGIN=EPA-IR VAPOR PHASE LIBRARY
##OWNER=SRD/NIST
Collection (C) 2018 copyright by the U.S. Secretary of Commerce
on behalf of the United States of America. All rights reserved.
##CAS REGISTRY NO=5466-84-2
##MOLFORM=C 8 H 3 N O 5
##$NIST SOURCE=MSDC-IR
##STATE=gas
##XUNITS=1/CM
##YUNITS=ABSORBANCE
##XFACTOR=1.
##YFACTOR=0.001
##DELTAX=1.92898
##FIRSTX=549.8
##LASTX=4000.7
##FIRSTY=3.064
##MAXX=4000.7
##MINX=549.759
##MAXY=0.284724
##MINY=0
##NPOINTS=1790
##XYDATA=(X++(Y..Y))
549.759 3.064 3.104 2.334 1.764 1.614 1.374 1.0873 0.9194 0.989 1.0209
569.049 1.0147 0.7052 0.7174 0.9021 1.057 1.324 1.444 1.384 1.714 2.524
588.339 3.534 4.514 5.124 6.014 7.034 7.494 7.784 7.744 7.604 7.304
607.628 6.604 5.884 5.004 4.234 3.604 3.134 2.814 2.544 2.324 2.074
626.918 1.954 1.964 1.994 1.884 1.734 1.794 1.824 1.644 1.424 1.544
646.208 1.624 1.624 1.844 2.024 2.124 2.134 2.114 2.184 2.454 2.464
665.498 2.254 2.334 2.354 2.324 2.484 2.804 3.354 4.004 4.874 6.204
684.787 8.524 12.054 16.394 20.124 22.224 24.224 27.424 31.174 33.604 34.324
704.077 35.304 37.394 40.724 46.524 55.754 59.304 51.704 42.824 37.224 32.384
723.367 26.844 20.974 15.684 11.574 8.674 6.514 4.824 3.874 3.394 2.984
742.657 2.674 2.374 2.244 2.104 1.994 1.854 1.684 1.634 1.494 1.424
761.947 1.424 1.304 1.204 1.224 1.154 1.244 1.354 1.364 1.354 1.504
781.236 1.524 1.534 2.014 2.344 2.634 2.964 3.394 3.754 4.284 5.314
800.526 7.134 10.354 15.704 22.864 29.774 34.154 35.664 35.564 33.984 30.404
819.816 24.144 16.544 10.524 7.124 5.384 4.384 3.924 3.704 3.424 3.434
839.106 3.664 4.074 4.664 5.584 6.794 8.024 9.394 10.624 11.904 13.634
858.395 15.014 15.704 15.384 14.224 13.864 14.304 15.054 16.494 18.584 21.614
877.685 25.684 30.644 36.464 42.974 49.724 55.944 61.374 66.054 69.834 72.364
896.975 73.414 72.844 70.684 67.714 65.454 64.714 65.164 66.774 70.304 75.644
916.265 82.754 91.224 99.914 107.674 112.614 113.924 112.574 109.134 103.364 94.784
935.555 83.684 71.584 59.684 49.244 41.054 34.834 29.754 25.584 22.134 19.244
954.844 17.084 15.324 13.724 12.104 10.674 9.684 8.764 8.064 7.214 6.214
974.134 5.544 4.924 4.274 3.574 3.084 2.794 2.574 2.514 2.354 2.224
993.424 2.064 2.144 2.344 2.264 2.174 2.194 2.174 2.294 2.484 2.404
1012.714 2.304 2.374 2.464 2.464 2.584 2.504 2.294 2.254 2.494 2.664
1032.003 2.574 2.774 3.224 3.914 4.584 5.504 6.614 7.724 8.824 9.404
1051.293 10.064 10.464 10.264 9.764 9.054 8.044 6.864 6.194 5.634 5.114
1070.583 5.274 5.624 5.474 5.834 6.644 7.184 8.084 9.284 10.514 12.074
1089.873 13.644 15.614 18.084 20.234 22.214 23.754 23.974 22.694 21.084 19.044
1109.163 16.394 14.624 14.484 16.344 20.624 26.334 32.464 37.694 40.064 40.284
1128.452 38.914 35.404 29.724 22.034 14.264 8.804 5.814 4.334 3.574 3.114
1147.742 2.954 2.994 3.344 3.674 4.084 4.934 5.564 5.764 5.884 5.854
1167.032 5.844 5.824 5.414 4.884 4.344 4.214 4.504 4.684 4.424 4.394
1186.322 4.734 5.204 5.784 6.144 6.474 7.114 7.984 8.734 9.354 9.954
1205.611 11.034 12.444 13.914 15.234 16.494 18.064 19.564 21.144 23.504 26.584
1224.901 30.304 34.834 39.844 45.754 53.344 62.304 71.574 80.054 86.534 90.464
1244.191 92.604 93.634 94.574 95.984 98.624 103.864 110.934 117.124 120.234 119.384
1263.481 114.314 104.564 90.374 73.764 58.274 45.894 36.544 29.734 24.514 20.454
1282.771 17.374 15.114 13.634 12.664 12.084 11.584 11.244 11.214 11.274 11.394
1302.060 11.574 11.914 12.414 13.044 13.934 15.124 16.654 18.724 21.474 25.004
1321.350 29.384 34.734 41.134 48.354 56.074 63.814 70.774 76.194 79.624 80.974
1340.640 80.214 77.364 72.794 67.304 61.954 57.364 53.334 49.494 45.514 41.214
1359.930 36.624 31.954 27.394 23.074 19.114 15.674 12.934 10.744 9.134 7.964
1379.219 7.024 6.454 6.074 5.774 5.584 5.524 5.614 5.734 5.954 6.184
1398.509 6.294 6.334 6.334 6.224 6.004 5.654 5.304 4.984 4.624 4.434
1417.799 4.384 4.524 4.804 5.194 5.764 6.384 6.974 7.394 7.684 7.824
1437.089 7.784 7.554 7.124 6.664 6.264 5.874 5.644 5.524 5.404 5.364
1456.378 5.354 5.424 5.574 5.694 5.834 5.954 5.984 5.914 5.704 5.424
1475.668 5.224 5.064 4.854 4.644 4.564 4.664 4.784 5.124 5.664 6.174
1494.958 6.814 7.604 8.514 9.614 10.824 12.014 13.294 14.494 15.534 16.564
1514.248 17.504 18.194 18.344 17.814 16.934 16.094 15.304 14.724 14.454 14.564
1533.538 15.344 16.894 19.324 22.934 27.814 34.174 42.194 52.024 63.624 76.834
1552.827 90.324 103.094 112.474 117.144 117.394 114.734 110.094 101.994 88.904 72.784
1572.117 57.694 45.574 36.304 29.534 24.774 21.564 19.664 18.594 18.074 17.954
1591.407 18.094 18.464 18.834 19.194 19.504 19.604 19.424 18.794 17.764 16.634
1610.697 15.664 14.824 14.124 13.524 12.834 12.014 11.204 10.364 9.564 8.804
1629.986 7.904 7.084 6.344 5.584 4.964 4.554 4.244 3.914 3.644 3.464
1649.276 3.404 3.334 3.264 3.274 3.244 3.194 3.154 3.084 3.004 2.924
1668.566 2.854 2.774 2.654 2.564 2.494 2.374 2.304 2.244 2.164 2.104
1687.856 2.064 2.054 2.074 2.114 2.154 2.274 2.394 2.464 2.674 2.904
1707.146 3.144 3.444 3.654 3.894 4.134 4.294 4.354 4.394 4.484 4.514
1726.435 4.504 4.534 4.554 4.514 4.524 4.544 4.644 4.824 4.974 5.164
1745.725 5.424 5.784 6.194 6.684 7.384 8.204 9.194 10.374 11.794 13.604
1765.015 15.844 18.584 21.774 25.474 30.064 35.484 41.944 49.734 58.794 69.094
1784.305 80.914 94.104 108.174 122.954 138.464 155.114 173.204 193.234 214.874 237.514
1803.594 258.774 274.974 283.254 284.724 284.004 282.384 273.644 253.254 225.874 198.364
1822.884 173.924 153.114 135.564 119.754 103.454 87.324 73.474 63.214 56.144 51.314
1842.174 47.994 45.644 43.774 42.114 40.604 39.234 38.144 37.554 37.724 38.874
1861.464 40.984 44.024 47.864 52.334 57.154 61.814 65.894 69.014 70.674 70.664
1880.754 68.764 65.204 60.594 55.314 49.704 44.104 38.814 34.064 29.914 26.184
1900.043 22.714 19.504 16.524 13.784 11.414 9.494 8.034 6.874 6.024 5.414
1919.333 4.904 4.494 4.264 4.184 4.124 4.104 4.194 4.324 4.424 4.534
1938.623 4.604 4.684 4.824 4.894 4.854 4.824 4.774 4.764 4.654 4.404
1957.913 4.194 4.014 3.804 3.524 3.354 3.254 3.144 3.084 3.124 3.124
1977.202 3.114 3.164 3.174 3.174 3.164 3.124 3.144 3.194 3.234 3.254
1996.492 3.314 3.334 3.384 3.474 3.444 3.424 3.424 3.394 3.304 3.214
2015.782 3.224 3.174 3.094 3.044 3.044 3.044 2.914 2.834 2.754 2.674
2035.072 2.684 2.634 2.554 2.494 2.484 2.514 2.544 2.554 2.524 2.434
2054.362 2.404 2.314 2.214 2.174 2.024 1.834 1.694 1.644 1.624 1.494
2073.651 1.384 1.364 1.304 1.254 1.214 1.154 1.154 1.204 1.194 1.174
2092.941 1.134 1.0794 1.044 1.0537 0.9927 0.944 0.969 0.9721 0.9452 0.9449
2112.231 0.9736 0.9378 0.9064 0.9481 0.9724 1.0134 1.0621 1.006 1.0221 1.124
2131.521 1.184 1.234 1.264 1.304 1.344 1.384 1.474 1.484 1.464 1.484
2150.810 1.494 1.514 1.564 1.494 1.464 1.484 1.524 1.534 1.514 1.534
2170.100 1.464 1.434 1.454 1.434 1.414 1.424 1.384 1.404 1.394 1.314
2189.390 1.324 1.304 1.244 1.184 1.102 1.0555 1.0427 1.043 0.9849 0.9683
2208.680 1.0437 1.0612 0.9707 0.9057 0.9132 0.8936 0.8104 0.8338 0.9346 0.8797
2227.970 0.8155 0.8445 0.8341 0.8157 0.8283 0.8099 0.8135 0.8443 0.8722 0.9262
2247.259 0.995 1.0525 1.0849 1.1122 1.0799 1.0668 1.134 1.194 1.224 1.194
2266.549 1.174 1.214 1.174 1.1066 1.0934 1.0114 1.0247 0.9822 0.9218 0.943
2285.839 0.8933 0.9061 0.8453 0.8309 0.942 0.9706 0.9303 0.8847 0.8873 0.904
2305.129 0.8947 0.8674 0.7655 0.6682 0.6516 0.6877 0.6698 0.6133 0.567 0.5693
2324.418 0.5797 0.5536 0.589 0.5668 0.4999 0.4982 0.5612 0.5899 0.5678 0.6212
2343.708 0.679 0.6679 0.6577 0.6856 0.7394 0.773 0.8012 0.8596 0.9033 0.9386
2362.998 0.8992 0.84 0.8198 0.8242 0.8268 0.7959 0.8037 0.776 0.7722 0.7533
2382.288 0.6803 0.6484 0.6657 0.686 0.7012 0.7357 0.7132 0.6738 0.6594 0.6143
2401.578 0.6516 0.722 0.7108 0.7264 0.6915 0.786 0.8036 0.6824 0.6808 0.7003
2420.867 0.7262 0.7482 0.8076 0.7715 0.7117 0.7453 0.7948 0.8162 0.709 0.6111
2440.157 0.6518 0.7206 0.7871 0.7702 0.7187 0.6661 0.6611 0.687 0.6953 0.7295
2459.447 0.6401 0.5685 0.6151 0.6772 0.6353 0.6393 0.7043 0.681 0.6881 0.6828
2478.737 0.6814 0.6565 0.6652 0.6549 0.6353 0.5886 0.5438 0.5973 0.628 0.6617
2498.026 0.6403 0.6253 0.7038 0.732 0.6914 0.6696 0.6893 0.7167 0.676 0.6712
2517.316 0.7229 0.7192 0.646 0.5733 0.5919 0.6272 0.6482 0.664 0.6345 0.6089
2536.606 0.5318 0.495 0.5425 0.4061 0.3138 0.4023 0.5264 0.4694 0.4334 0.4745
2555.896 0.4332 0.4785 0.5056 0.5059 0.4904 0.4739 0.4525 0.4608 0.4641 0.4319
2575.186 0.4955 0.5239 0.5102 0.5408 0.5577 0.6207 0.7156 0.7801 0.8112 0.763
2594.475 0.694 0.6503 0.6748 0.7489 0.6444 0.5348 0.6046 0.5988 0.5829 0.6489
2613.765 0.637 0.5552 0.5512 0.6126 0.5924 0.4986 0.3688 0.3817 0.4417 0.488
2633.055 0.5166 0.5553 0.5242 0.4329 0.5282 0.5637 0.566 0.6413 0.6806 0.7175
2652.345 0.7501 0.7057 0.6947 0.8335 0.8728 0.7918 0.8959 1.0605 1.164 1.174
2671.634 1.144 1.224 1.274 1.264 1.344 1.404 1.394 1.364 1.334 1.404
2690.924 1.404 1.254 1.134 1.144 1.214 1.334 1.304 1.134 1.144 1.214
2710.214 1.154 1.1064 1.0923 1.0349 1.0284 0.9713 0.9363 0.9125 0.829 0.7514
2729.504 0.6766 0.6534 0.7064 0.7487 0.732 0.6856 0.6338 0.662 0.663 0.5866
2748.794 0.5941 0.6871 0.6362 0.6292 0.6689 0.6883 0.7827 0.8528 0.9893 1.0038
2768.083 0.9202 1.025 1.1038 1.0503 1.0575 1.0794 1.0233 0.9452 0.9271 0.9038
2787.373 0.8013 0.7086 0.6991 0.7007 0.6599 0.6698 0.709 0.6671 0.5665 0.5617
2806.663 0.5761 0.5916 0.6659 0.6205 0.5768 0.6589 0.7552 0.724 0.5974 0.5934
2825.953 0.6315 0.6424 0.6824 0.7494 0.7912 0.7719 0.8167 0.7896 0.7513 0.7628
2845.242 0.7861 0.9628 1.0137 1.0083 1.0428 1.0347 1.0207 1.0333 1.134 1.0907
2864.532 1.084 1.204 1.224 1.264 1.314 1.424 1.594 1.744 1.914 2.124
2883.822 2.264 2.204 2.184 2.304 2.344 2.344 2.414 2.544 2.474 2.304
2903.112 2.224 2.094 2.044 1.964 1.754 1.634 1.544 1.514 1.374 1.174
2922.401 1.204 1.264 1.194 1.204 1.204 1.1191 1.046 1.1071 1.0963 1.0359
2941.691 1.0651 1.0279 1.009 1.1128 1.1133 0.9928 0.9629 1.0389 1.0511 0.962
2960.981 0.8486 0.759 0.7824 0.7644 0.6701 0.629 0.5975 0.6386 0.6864 0.6475
2980.271 0.6927 0.7447 0.754 0.6299 0.5113 0.5714 0.5979 0.5181 0.4386 0.5248
2999.561 0.5956 0.6004 0.4708 0.4144 0.5478 0.4993 0.4241 0.4414 0.5144 0.5607
3018.850 0.6138 0.6477 0.5681 0.6497 0.6654 0.5148 0.5372 0.6397 0.8341 0.9274
3038.140 0.9161 1.0739 1.154 1.1207 1.174 1.224 1.214 1.254 1.324 1.384
3057.430 1.464 1.464 1.454 1.514 1.584 1.524 1.514 1.544 1.644 1.804
3076.720 1.934 2.184 2.434 2.694 3.054 3.324 3.584 3.874 4.124 4.434
3096.009 4.694 4.914 5.074 5.164 5.274 5.224 5.024 4.794 4.514 4.074
3115.299 3.444 2.964 2.484 1.944 1.564 1.244 0.9771 0.7895 0.6799 0.5797
3134.589 0.4774 0.4727 0.4142 0.3221 0.2939 0.3735 0.4354 0.4105 0.3944 0.3208
3153.879 0.2705 0.18456 0.1076 0.15112 0.2879 0.4366 0.3729 0.3244 0.3381 0.2648
3173.169 0.3958 0.413 0.3967 0.5009 0.4208 0.3837 0.3852 0.3746 0.284 0.2558
3192.458 0.3417 0.291 0.21669 0.2672 0.2907 0.3071 0.3035 0.2666 0.2732 0.2328
3211.748 0.2887 0.2948 0.2772 0.2372 0.17856 0.21379 0.3187 0.4121 0.3941 0.3926
3231.038 0.4365 0.4468 0.4054 0.4851 0.422 0.418 0.5531 0.449 0.3659 0.3115
3250.328 0.19319 0.256 0.3307 0.3076 0.2965 0.2763 0.3144 0.3193 0.3324 0.3351
3269.617 0.3032 0.2905 0.19713 0.19877 0.3254 0.3651 0.2119 0.0668 0.18412 0.2342
3288.907 0.2395 0.2591 0.21884 0.11557 0.0313 0.129755 0.2797 0.3154 0.3091 0.234
3308.197 0.15238 0.17885 0.0456 0.0384 0.14793 0.2311 0.3147 0.263 0.2617 0.3002
3327.487 0.2716 0.2574 0.2874 0.247 0.2941 0.327 0.2669 0.2299 0.3 0.3498
3346.777 0.3936 0.381 0.2852 0.3286 0.3632 0.3073 0.272 0.2527 0.2461 0.15358
3366.066 0.13534 0.2937 0.3769 0.3545 0.3902 0.444 0.2527 0.19717 0.2874 0.3103
3385.356 0.369 0.4612 0.4353 0.2939 0.2878 0.3457 0.2778 0.2829 0.3809 0.4099
3404.646 0.5061 0.4478 0.331 0.3472 0.3676 0.5037 0.5481 0.4082 0.3898 0.3237
3423.936 0.2274 0.313 0.4334 0.4044 0.316 0.22343 0.2679 0.2759 0.2578 0.3668
3443.225 0.335 0.2967 0.2344 0.2922 0.3954 0.4713 0.4183 0.2934 0.2516 0.2355
3462.515 0.3148 0.3766 0.4557 0.3632 0.21578 0.2955 0.2789 0.2364 0.259 0.3164
3481.805 0.4177 0.3243 0.14734 0.19486 0.3523 0.3636 0.3446 0.3238 0.17261 0.2298
3501.095 0.4214 0.5181 0.5022 0.3371 0.3133 0.2899 0.2889 0.5065 0.616 0.5687
3520.385 0.4735 0.3478 0.2853 0.2901 0.2954 0.3411 0.4374 0.548 0.5504 0.3712
3539.674 0.3577 0.5155 0.5422 0.4557 0.3486 0.3242 0.408 0.472 0.5971 0.658
3558.964 0.5754 0.6701 0.7503 0.7459 0.697 0.7003 0.8195 0.7664 0.7122 0.7927
3578.254 0.8974 0.9739 1.0819 1.204 1.254 1.194 1.264 1.424 1.384 1.454
3597.544 1.624 1.694 1.864 2.054 2.104 2.204 2.314 2.284 2.244 2.274
3616.833 2.474 2.654 2.574 2.584 2.774 2.864 2.834 2.994 3.214 3.304
3636.123 3.284 3.234 3.204 3.244 3.354 3.444 3.484 3.424 3.364 3.344
3655.413 3.284 3.264 3.164 3.104 3.084 2.824 2.654 2.704 2.664 2.644
3674.703 2.604 2.444 2.274 2.024 1.994 2.014 1.844 1.734 1.714 1.614
3693.993 1.574 1.484 1.264 1.204 1.144 1.134 1.092 1.0898 1.0825 1.0055
3713.282 0.9961 0.953 0.9165 0.9307 0.8847 0.8365 0.7411 0.6924 0.7336 0.7546
3732.572 0.733 0.7287 0.7978 0.7235 0.6499 0.7143 0.7215 0.7124 0.7585 0.6837
3751.862 0.6718 0.6826 0.703 0.7216 0.6106 0.6363 0.688 0.6296 0.6139 0.5803
3771.152 0.5043 0.5996 0.6318 0.5868 0.5674 0.5454 0.5524 0.5141 0.4476 0.3425
3790.441 0.3348 0.3627 0.3884 0.4546 0.4174 0.4907 0.5605 0.3891 0.3469 0.4
3809.731 0.422 0.5053 0.4203 0.4038 0.4721 0.4018 0.3965 0.4243 0.455 0.3215
3829.021 0.3197 0.4097 0.4251 0.4169 0.404 0.4168 0.381 0.4066 0.4387 0.3842
3848.311 0.3284 0.4158 0.4941 0.5936 0.614 0.5747 0.6047 0.4652 0.3782 0.3232
3867.601 0.2867 0.2962 0.3323 0.3462 0.2729 0.2528 0.2868 0.3574 0.346 0.3242
3886.890 0.3401 0.413 0.4462 0.4232 0.4398 0.6962 0.6508 0.4378 0.4387 0.2624
3906.180 0.2541 0.2809 0.3496 0.3383 0.2567 0.3681 0.4793 0.3958 0.3536 0.3122
3925.470 0.2532 0.2831 0.3269 0.2681 0.2765 0.3553 0.2688 0.2332 0.3177 0.5477
3944.760 0.4897 0.2981 0.3444 0.3478 0.2773 0.1361 0 0.0624 0.18176 0.4007
3964.049 0.4893 0.4561 0.3618 0.3863 0.376 0.3124 0.3629 0.2628 0.17837 0.2243
3983.339 0.21261 0.20463 0.3093 0.387 0.3949 0.3626 0.3495 0.4059 0.5868 0.6552
##END=
