##TITLE=.alpha.-Cyano-3-hydroxycinnamic acid
##JCAMP-DX=4.24
##DATA TYPE=INFRARED SPECTRUM
##ORIGIN=NIST Mass Spectrometry Data Center
##OWNER=NIST Standard Reference Data Program
Collection (C) 2018 copyright by the U.S. Secretary of Commerce
on behalf of the United States of America. All rights reserved.
##CAS REGISTRY NO=54673-07-3
##MOLFORM=C 10 H 7 N O 3
##$NIST SOURCE=MSDC-IR
##SPECTROMETER/DATA SYSTEM=HP-GC/MS/IRD
##STATE=gas
##XUNITS=1/CM
##YUNITS=ABSORBANCE
##XFACTOR=1.0
##YFACTOR=0.000001100
##DELTAX=4.0
##FIRSTX=550.0
##LASTX=3846.0
##FIRSTY=0.001207
##MAXX=3846
##MINX=550
##MAXY=0.011
##MINY=0
##NPOINTS=825
##XYDATA=(X++(Y..Y))
550.0 1097 676 423 619 724 778 911 1182 1479 1583
590.0 1634 1568 1364 1047 767 700 727 631 440 402
630.0 372 296 265 298 353 394 453 458 655 1912
670.0 2513 2438 3207 3526 2927 1939 1128 671 484 358
710.0 281 156 171 194 156 179 204 292 398 463
750.0 572 724 838 967 1153 1365 1547 1657 1653 1508
790.0 1226 874 546 289 138 70 42 37 72 82
830.0 28 48 85 113 161 226 318 408 432 409
870.0 397 384 333 247 182 171 187 218 236 236
910.0 211 170 134 158 222 241 272 350 430 505
950.0 584 668 715 680 609 508 385 312 264 238
990.0 282 384 449 347 187 150 139 147 178 241
1030.0 337 404 501 662 817 924 960 873 783 737
1070.0 827 988 1129 1280 1375 1376 1285 1151 1085 1121
1110.0 1248 1494 1801 2206 2846 3769 5018 6306 7227 7609
1150.0 7620 7627 7599 7289 6666 6007 5535 5246 5014 4760
1190.0 4480 4138 3799 3424 2935 2438 1997 1642 1371 1189
1230.0 1110 1084 1115 1212 1377 1638 2013 2442 2801 3098
1270.0 3212 3100 2855 2546 2236 1984 1850 1883 2039 2240
1310.0 2374 2383 2291 2157 2048 1997 1908 1741 1561 1415
1350.0 1359 1383 1432 1442 1405 1328 1246 1171 1051 907
1390.0 745 587 453 377 334 307 300 304 356 475
1430.0 668 959 1371 1873 2237 2310 2088 1652 1234 969
1470.0 828 743 753 818 892 929 868 711 525 340
1510.0 236 187 156 168 202 214 197 182 200 267
1550.0 345 427 561 794 1136 1594 2162 2760 3239 3485
1590.0 3525 3468 3535 3897 4507 4907 4589 3535 2279 1349
1630.0 857 590 437 364 300 234 219 238 213 200
1670.0 215 212 220 222 226 263 289 322 411 519
1710.0 617 732 846 921 958 980 1043 1202 1452 1900
1750.0 2699 4077 6252 8638 10000 9699 7589 4902 3142 2246
1790.0 1714 1349 1063 829 701 647 617 565 471 375
1830.0 298 241 205 189 186 178 164 139 119 117
1870.0 106 100 83 72 74 67 63 60 64 76
1910.0 76 104 122 126 128 118 116 80 37 43
1950.0 43 12 1 9 15 19 19 20 14 4
1990.0 9 10 0 4 22 24 17 14 14 13
2030.0 12 30 29 12 23 34 38 48 34 19
2070.0 35 43 37 44 36 18 30 34 38 45
2110.0 42 46 43 36 34 44 59 53 44 48
2150.0 60 59 42 30 45 65 57 39 49 69
2190.0 67 67 78 91 120 171 213 255 282 289
2230.0 271 235 202 177 170 178 182 198 226 264
2270.0 328 407 512 658 823 1045 1339 1659 2006 2410
2310.0 2846 3224 3566 3821 3920 3920 3759 3592 3472 3085
2350.0 3046 3885 4721 5074 5013 4550 3750 2744 1725 929
2390.0 457 246 176 162 152 125 115 113 115 117
2430.0 102 98 101 111 122 104 94 105 111 107
2470.0 117 115 98 88 77 79 88 79 70 70
2510.0 74 85 96 88 70 55 35 46 67 73
2550.0 87 86 88 90 78 78 76 80 100 85
2590.0 58 59 54 54 64 53 64 72 61 54
2630.0 57 60 47 49 62 60 68 45 45 59
2670.0 40 45 44 41 37 31 42 80 91 67
2710.0 62 70 74 63 64 92 107 92 88 91
2750.0 70 69 70 79 79 76 85 69 83 87
2790.0 81 90 78 60 54 78 78 66 81 110
2830.0 122 101 105 119 98 89 89 102 128 106
2870.0 101 123 113 112 123 125 136 141 130 135
2910.0 138 126 117 133 147 162 214 244 234 227
2950.0 232 212 180 206 230 213 193 195 213 205
2990.0 219 260 249 249 252 262 298 337 381 402
3030.0 386 391 421 468 516 533 563 586 583 600
3070.0 630 632 589 517 434 351 271 247 248 198
3110.0 165 176 188 162 126 80 78 121 121 106
3150.0 96 122 143 138 118 85 81 100 87 84
3190.0 102 134 157 149 132 100 102 102 118 93
3230.0 57 65 59 68 74 84 96 95 111 114
3270.0 104 88 52 33 61 94 89 89 117 95
3310.0 76 108 118 108 122 116 95 90 126 135
3350.0 135 128 77 69 105 140 166 175 150 122
3390.0 110 103 98 104 105 119 153 155 146 161
3430.0 139 75 106 124 93 78 59 57 70 50
3470.0 28 68 119 98 71 108 136 128 173 230
3510.0 209 179 169 163 155 166 194 176 173 174
3550.0 206 290 366 492 780 1378 2517 3987 4770 4361
3590.0 3008 1531 725 453 366 309 275 305 418 588
3630.0 857 1273 1732 2236 2781 2913 2514 1849 1076 570
3670.0 348 243 206 180 129 114 147 165 159 162
3710.0 124 92 115 113 145 163 148 148 129 53
3750.0 3 50 89 63 39 52 70 78 77 67
3790.0 51 34 21 58 113 102 47 33 108 127
3830.0 93 83 71 92 84
##END=
