##TITLE=1-Bromo-3,3-dimethyl-2-butanone
##JCAMP-DX=4.24
##DATA TYPE=INFRARED SPECTRUM
##ORIGIN=NIST Mass Spectrometry Data Center
##OWNER=NIST Standard Reference Data Program
Collection (C) 2018 copyright by the U.S. Secretary of Commerce
on behalf of the United States of America. All rights reserved.
##CAS REGISTRY NO=5469-26-1
##MOLFORM=C 6 H 11 Br O
##$NIST SOURCE=MSDC-IR
##SPECTROMETER/DATA SYSTEM=HP-GC/MS/IRD
##STATE=gas
##XUNITS=1/CM
##YUNITS=ABSORBANCE
##XFACTOR=1.0
##YFACTOR=0.000000900
##DELTAX=4.0
##FIRSTX=550.0
##LASTX=3846.0
##FIRSTY=0.000311
##MAXX=3846
##MINX=550
##MAXY=0.009
##MINY=0
##NPOINTS=825
##XYDATA=(X++(Y..Y))
550.0 345 419 439 544 765 996 1189 1242 1291 1172
590.0 890 631 440 244 232 142 7 59 48 20
630.0 72 140 237 268 283 365 452 582 831 1222
670.0 1498 1567 1563 1520 1345 1086 872 625 416 324
710.0 263 190 212 205 134 105 86 79 50 63
750.0 127 105 72 137 150 92 70 49 25 62
790.0 79 61 72 102 80 48 108 221 295 297
830.0 347 345 248 155 83 99 124 111 104 74
870.0 9 57 121 87 113 161 129 106 130 117
910.0 119 124 161 190 181 256 297 310 323 298
950.0 260 244 245 236 266 311 353 493 758 1084
990.0 1530 2025 2383 2586 2619 2423 2147 1949 1826 1727
1030.0 1721 1868 2108 2541 3123 3630 3909 3768 3222 2538
1070.0 1871 1307 906 690 549 456 420 392 372 391
1110.0 453 481 570 674 738 816 963 1248 1538 1816
1150.0 2044 2092 1987 1765 1454 1175 1022 921 849 874
1190.0 939 1039 1162 1334 1500 1578 1608 1539 1362 1089
1230.0 884 793 691 610 607 619 641 713 845 985
1270.0 1060 1098 1059 934 768 594 450 344 273 246
1310.0 244 241 235 233 238 223 227 296 373 478
1350.0 651 902 1236 1590 1940 2161 2195 2065 1877 1796
1390.0 1825 1932 1982 1909 1743 1538 1427 1465 1534 1537
1430.0 1479 1372 1257 1178 1179 1269 1458 1724 1983 2239
1470.0 2584 2932 3071 2940 2616 2051 1426 987 709 578
1510.0 459 360 322 305 278 243 207 216 233 221
1550.0 189 171 202 174 162 159 154 167 144 145
1590.0 154 139 141 154 156 150 163 182 176 179
1630.0 190 221 215 211 237 287 346 370 431 526
1670.0 647 757 896 1127 1430 1799 2371 3088 3910 4835
1710.0 5770 6608 7241 7500 7354 6870 6147 5278 4374 3500
1750.0 2702 2033 1523 1131 833 644 502 383 309 253
1790.0 220 199 178 149 131 123 112 123 148 152
1830.0 125 86 66 99 127 112 104 127 96 80
1870.0 116 113 125 124 107 117 111 87 84 104
1910.0 107 110 123 121 111 109 108 117 104 96
1950.0 114 103 106 112 77 67 68 63 77 86
1990.0 86 62 55 41 38 82 81 55 43 55
2030.0 82 72 60 59 59 74 78 80 84 77
2070.0 86 85 68 73 68 64 83 98 91 56
2110.0 59 81 23 10 42 50 60 62 84 90
2150.0 76 71 56 53 60 48 53 61 61 70
2190.0 73 86 87 49 55 91 76 45 57 78
2230.0 68 61 83 79 51 40 37 60 68 61
2270.0 65 72 63 70 98 108 116 124 111 88
2310.0 69 61 66 65 69 33 7 7 18 39
2350.0 45 23 7 18 24 5 13 38 60 78
2390.0 87 88 74 64 73 88 93 95 65 58
2430.0 92 73 76 88 69 76 75 70 80 84
2470.0 88 97 79 51 52 62 67 55 53 51
2510.0 44 32 11 23 48 71 76 82 82 68
2550.0 63 30 33 66 71 46 55 90 82 76
2590.0 79 80 82 79 100 130 122 103 74 49
2630.0 53 68 85 116 121 93 80 68 49 65
2670.0 87 56 69 93 83 79 100 100 93 90
2710.0 105 120 136 148 150 171 175 190 181 154
2750.0 161 175 178 165 163 152 157 158 137 175
2790.0 237 265 236 222 244 270 292 299 327 370
2830.0 386 416 441 446 525 626 725 893 1104 1362
2870.0 1682 1967 2184 2366 2404 2363 2367 2394 2462 2560
2910.0 2706 2858 3047 3229 3321 3459 3699 3967 4274 4686
2950.0 5267 6005 6891 7936 9010 9777 10000 9564 8499 7121
2990.0 5725 4507 3442 2546 1807 1276 924 710 581 469
3030.0 403 354 339 337 318 315 304 245 217 216
3070.0 232 250 220 207 234 232 219 187 201 218
3110.0 231 240 208 192 205 232 260 243 223 229
3150.0 245 248 220 236 280 259 222 173 176 219
3190.0 211 197 160 180 237 268 220 164 177 187
3230.0 235 249 213 186 131 147 176 158 179 184
3270.0 158 169 168 163 173 143 136 153 155 143
3310.0 148 136 104 115 96 99 131 98 74 92
3350.0 136 140 154 259 254 177 168 194 201 185
3390.0 215 234 191 184 188 180 196 181 156 186
3430.0 196 179 192 180 149 134 132 178 196 132
3470.0 85 45 61 81 59 60 58 44 12 19
3510.0 83 100 103 120 85 94 96 58 57 69
3550.0 56 65 84 60 100 140 103 66 36 55
3590.0 44 0 62 127 102 59 48 75 40 53
3630.0 109 103 105 85 79 68 71 94 81 94
3670.0 122 170 129 90 137 131 96 88 88 71
3710.0 79 98 91 96 130 77 59 117 132 153
3750.0 220 182 79 74 116 127 41 27 75 88
3790.0 76 59 88 99 79 92 113 123 147 172
3830.0 127 86 68 59 85
##END=
