##TITLE=.alpha.-Acetoamidocinnamic acid
##JCAMP-DX=4.24
##DATA TYPE=INFRARED SPECTRUM
##ORIGIN=NIST Mass Spectrometry Data Center
##OWNER=NIST Standard Reference Data Program
Collection (C) 2018 copyright by the U.S. Secretary of Commerce
on behalf of the United States of America. All rights reserved.
##CAS REGISTRY NO=5469-45-4
##MOLFORM=C 11 H 11 N O 3
##$NIST SOURCE=MSDC-IR
##SPECTROMETER/DATA SYSTEM=HP-GC/MS/IRD
##STATE=gas
##XUNITS=1/CM
##YUNITS=ABSORBANCE
##XFACTOR=1.0
##YFACTOR=0.000002800
##DELTAX=4.0
##FIRSTX=550.0
##LASTX=3846.0
##FIRSTY=0.000400
##MAXX=3846
##MINX=550
##MAXY=0.028
##MINY=0
##NPOINTS=825
##XYDATA=(X++(Y..Y))
550.0 143 166 88 95 64 40 7 0 5 35
590.0 84 94 106 186 322 403 412 357 286 211
630.0 129 119 142 180 225 243 259 271 260 287
670.0 383 545 742 945 1184 1235 1047 837 624 447
710.0 356 323 305 272 231 240 254 287 378 495
750.0 646 821 1015 1234 1293 1071 801 590 404 288
790.0 240 215 205 215 243 291 385 527 682 833
830.0 951 1080 1274 1630 2184 2759 3078 3000 2532 1866
870.0 1376 1262 1469 1861 2200 2286 2079 1622 1107 729
910.0 526 434 418 450 468 441 392 314 241 203
950.0 180 173 185 183 178 170 170 193 238 285
990.0 293 254 198 153 107 82 103 152 215 292
1030.0 350 364 364 377 381 351 309 280 252 236
1070.0 250 253 240 220 229 272 302 319 305 289
1110.0 275 271 279 302 354 442 581 821 1252 2002
1150.0 2812 3516 4058 3883 3241 2276 1319 840 652 573
1190.0 513 483 485 505 549 628 748 840 901 925
1230.0 920 918 928 956 1056 1334 1899 2802 3966 4967
1270.0 5240 4625 3440 2247 1474 1089 923 870 835 786
1310.0 731 683 643 593 540 515 505 481 462 459
1350.0 533 687 846 933 948 931 977 1194 1527 1711
1390.0 1652 1347 881 554 394 325 314 335 378 418
1430.0 475 558 624 651 642 583 507 422 318 245
1470.0 197 168 170 199 259 328 352 318 245 195
1510.0 177 166 158 162 178 189 191 193 202 215
1550.0 237 250 258 284 315 364 419 499 621 786
1590.0 1016 1333 1711 2035 2145 1955 1545 1130 905 865
1630.0 937 1095 1402 1901 2618 3424 4159 4638 4806 4707
1670.0 4292 3548 2625 1821 1343 1121 963 815 688 603
1710.0 539 488 456 451 453 474 516 561 609 654
1750.0 701 774 874 1010 1161 1282 1343 1335 1275 1240
1790.0 1290 1434 1679 2025 2572 3531 5127 7324 9286 10000
1830.0 9133 6996 4723 3181 2256 1689 1328 1098 962 889
1870.0 851 818 760 675 580 491 420 371 333 307
1910.0 273 241 219 196 178 177 172 164 166 174
1950.0 176 170 159 149 142 133 119 101 95 93
1990.0 91 95 96 95 97 98 91 96 105 110
2030.0 119 130 137 146 147 127 112 101 80 62
2070.0 57 52 50 51 52 52 49 46 50 55
2110.0 52 45 41 41 40 46 52 57 56 58
2150.0 56 50 53 48 39 30 20 24 26 26
2190.0 32 35 33 35 37 41 39 36 34 33
2230.0 36 29 28 35 34 32 31 27 25 23
2270.0 22 22 23 30 33 27 24 38 51 53
2310.0 61 73 70 55 35 22 17 22 17 15
2350.0 22 15 9 7 9 17 24 26 22 20
2390.0 17 16 26 30 31 30 23 20 30 38
2430.0 38 41 44 46 39 35 41 46 45 30
2470.0 24 21 23 27 27 27 22 17 17 11
2510.0 8 18 28 26 13 13 16 21 21 20
2550.0 23 17 20 22 15 10 13 20 22 13
2590.0 15 25 23 19 14 11 13 12 8 10
2630.0 14 13 8 8 20 25 27 32 21 12
2670.0 5 3 14 22 16 18 30 24 11 7
2710.0 12 16 15 26 22 7 18 25 21 19
2750.0 14 12 15 16 13 7 7 8 11 8
2790.0 0 6 14 8 12 16 13 21 23 11
2830.0 11 12 12 16 24 35 39 45 49 46
2870.0 43 34 30 28 18 21 37 26 22 38
2910.0 36 32 33 37 42 64 98 148 188 180
2950.0 142 95 73 56 51 66 80 100 111 108
2990.0 95 96 102 108 129 137 153 204 276 359
3030.0 422 453 457 422 388 382 415 516 674 860
3070.0 1016 1040 919 721 548 461 406 340 255 182
3110.0 136 107 92 77 64 65 66 55 46 42
3150.0 55 58 39 37 39 38 36 38 43 42
3190.0 43 55 62 53 40 32 31 19 19 13
3230.0 2 6 10 11 8 9 21 23 24 16
3270.0 7 21 32 36 33 14 8 10 0 12
3310.0 14 18 29 22 18 22 25 8 3 11
3350.0 12 13 22 23 8 4 12 18 31 40
3390.0 25 7 7 17 7 8 20 25 18 3
3430.0 8 14 28 34 23 30 36 24 12 14
3470.0 17 17 16 19 12 12 28 37 35 43
3510.0 44 28 23 16 18 30 29 37 36 18
3550.0 8 7 21 28 27 26 24 35 41 54
3590.0 61 48 44 57 79 72 53 52 84 111
3630.0 123 123 119 125 123 106 90 77 62 68
3670.0 61 45 49 62 63 40 34 49 48 25
3710.0 18 16 9 19 24 18 1 2 8 0
3750.0 0 0 0 1 17 12 6 0 0 2
3790.0 8 11 2 15 31 23 20 6 0 0
3830.0 9 19 21 23 15
##END=
