##TITLE=2-Chloro-3-nitropyridine
##JCAMP-DX=4.24
##DATA TYPE=INFRARED SPECTRUM
##ORIGIN=NIST Mass Spectrometry Data Center
##OWNER=NIST Standard Reference Data Program
Collection (C) 2018 copyright by the U.S. Secretary of Commerce
on behalf of the United States of America. All rights reserved.
##CAS REGISTRY NO=5470-18-8
##MOLFORM=C 5 H 3 Cl N 2 O 2
##$NIST SOURCE=MSDC-IR
##SPECTROMETER/DATA SYSTEM=HP-GC/MS/IRD
##STATE=gas
##XUNITS=1/CM
##YUNITS=ABSORBANCE
##XFACTOR=1.0
##YFACTOR=0.000012000
##DELTAX=4.0
##FIRSTX=550.0
##LASTX=3846.0
##FIRSTY=0.000588
##MAXX=3846
##MINX=550
##MAXY=0.12
##MINY=0
##NPOINTS=825
##XYDATA=(X++(Y..Y))
550.0 49 28 0 10 10 18 38 46 40 28
590.0 14 3 0 4 1 5 9 20 44 103
630.0 224 385 513 562 564 512 365 197 95 48
670.0 29 23 22 26 32 38 51 70 99 149
710.0 210 288 395 552 805 1220 1831 2560 3381 3737
750.0 3428 2939 2274 1513 944 630 471 394 364 394
790.0 512 706 921 1146 1499 1599 1257 978 801 626
830.0 535 564 793 1394 2351 3081 3421 3400 2959 2029
870.0 958 391 196 111 72 51 35 28 32 35
910.0 35 34 34 36 33 31 27 26 30 36
950.0 36 36 43 54 63 69 80 81 64 53
990.0 47 46 50 52 55 56 59 69 85 117
1030.0 173 265 395 577 831 1186 1635 2105 2465 2551
1070.0 2405 2110 1607 1032 621 406 304 262 253 284
1110.0 364 499 715 959 1083 1090 1083 960 777 732
1150.0 908 1273 1695 2030 2202 2163 1870 1384 892 573
1190.0 431 387 387 407 430 441 444 444 446 466
1230.0 515 584 636 645 603 531 427 309 236 206
1270.0 200 212 235 268 308 355 416 494 584 679
1310.0 770 853 936 1050 1245 1606 2213 3101 4187 5256
1350.0 6069 6397 6119 5277 4084 2914 2068 1590 1385 1393
1390.0 1612 2105 2963 4170 5423 6237 6402 5971 4914 3402
1430.0 2069 1319 970 802 713 650 600 564 531 494
1470.0 457 427 418 437 487 565 673 814 992 1218
1510.0 1496 1826 2226 2717 3311 4035 4904 5890 6945 7888
1550.0 8591 9058 9379 9596 9760 9887 9946 10000 9904 9475
1590.0 8685 7498 5950 4289 2888 1917 1328 973 751 605
1630.0 500 422 355 301 258 223 196 175 158 147
1670.0 137 127 118 110 100 91 83 77 72 68
1710.0 64 65 65 63 62 66 73 82 93 102
1750.0 108 108 105 97 89 83 77 71 65 58
1790.0 52 44 39 36 38 37 34 30 26 20
1830.0 15 12 10 10 12 13 16 21 28 36
1870.0 45 55 62 67 70 72 75 84 99 117
1910.0 137 146 147 135 115 96 86 88 99 108
1950.0 107 96 78 56 33 15 7 3 2 3
1990.0 2 2 0 0 0 0 2 3 4 5
2030.0 6 8 11 12 16 21 23 23 22 18
2070.0 14 10 6 6 7 8 7 6 7 6
2110.0 5 5 4 0 0 1 2 2 4 5
2150.0 4 5 6 7 6 5 5 5 4 4
2190.0 5 7 11 15 21 24 24 21 18 14
2230.0 9 6 4 4 6 13 17 20 22 24
2270.0 26 25 25 26 25 24 25 24 24 19
2310.0 16 16 13 11 9 8 7 10 12 10
2350.0 8 11 17 24 31 37 42 45 44 42
2390.0 39 35 35 37 34 30 29 27 24 20
2430.0 18 18 17 16 18 20 23 28 32 35
2470.0 39 42 42 41 35 27 20 16 11 7
2510.0 4 1 1 2 2 1 1 0 2 4
2550.0 7 12 16 20 23 25 24 22 20 19
2590.0 18 19 18 17 18 17 19 20 22 24
2630.0 26 28 27 25 29 34 34 34 39 42
2670.0 45 48 51 56 59 59 58 55 55 53
2710.0 48 43 38 30 24 22 20 18 22 22
2750.0 19 17 17 18 17 19 23 26 27 29
2790.0 32 35 36 37 38 35 32 33 31 33
2830.0 38 40 43 48 56 65 76 90 103 115
2870.0 124 137 149 160 168 176 178 176 172 170
2910.0 163 154 146 136 123 109 99 91 81 71
2950.0 63 57 54 55 56 60 67 67 66 67
2990.0 64 61 58 54 51 49 49 45 42 41
3030.0 41 46 57 77 114 185 304 457 596 691
3070.0 731 716 630 517 428 346 261 182 128 99
3110.0 85 78 71 65 60 56 54 51 46 45
3150.0 43 39 38 34 29 27 25 21 16 14
3190.0 13 14 11 11 13 6 2 5 6 2
3230.0 4 5 3 4 5 4 4 1 0 5
3270.0 9 8 2 1 2 1 6 10 9 6
3310.0 5 5 9 8 8 6 7 10 7 4
3350.0 4 7 9 9 8 13 12 11 14 13
3390.0 11 11 12 17 19 18 15 15 18 14
3430.0 15 16 15 17 17 18 18 15 16 16
3470.0 18 19 18 19 18 17 18 20 18 19
3510.0 22 23 22 26 28 24 20 23 22 19
3550.0 22 24 23 22 21 20 22 24 23 23
3590.0 23 21 25 24 24 24 27 30 25 24
3630.0 25 27 27 23 25 29 31 29 29 31
3670.0 29 29 30 28 29 35 38 35 34 41
3710.0 41 41 43 43 37 35 39 36 33 36
3750.0 38 38 39 37 37 38 39 38 35 37
3790.0 40 41 43 49 53 52 51 52 53 51
3830.0 52 54 50 46 42
##END=
