##TITLE=5-Cyclopropyl-5-methylhydantoin
##JCAMP-DX=4.24
##DATA TYPE=INFRARED SPECTRUM
##ORIGIN=EPA-IR VAPOR PHASE LIBRARY
##OWNER=SRD/NIST
Collection (C) 2018 copyright by the U.S. Secretary of Commerce
on behalf of the United States of America. All rights reserved.
##CAS REGISTRY NO=5470-46-2
##MOLFORM=C 7 H 10 N 2 O 2
##$NIST SOURCE=MSDC-IR
##STATE=gas
##XUNITS=1/CM
##YUNITS=ABSORBANCE
##XFACTOR=1.
##YFACTOR=0.001
##DELTAX=1.92898
##FIRSTX=549.8
##LASTX=4000.7
##FIRSTY=7.84
##MAXX=4000.7
##MINX=549.759
##MAXY=0.08648
##MINY=0
##NPOINTS=1790
##XYDATA=(X++(Y..Y))
549.759 7.84 8.21 8.69 8.97 8.9 8.83 9.77 10.39 10.41 10.1
569.049 9.48 8.33 7.48 7.71 7.3 6.34 5.71 5.59 5.48 4.88
588.339 4.54 4.03 3.46 3.39 3.6 3.53 3.31 2.93 2.69 2.53
607.628 2.22 1.8681 1.7727 2.0123 2.25 2.44 2.92 2.75 2.1405 2.4
626.918 2.8 2.81 3 3.03 2.75 2.79 2.59 2.35 2.29 2.056
646.208 1.8106 1.6788 1.6023 1.7741 2.0421 1.8203 1.25796 1.1709 1.1162 1.074
665.498 1.1609 1.3314 1.5908 1.5013 1.29266 1.26777 1.4179 1.7575 2.0012 1.6739
684.787 1.4069 1.4632 1.6718 1.8929 1.7379 1.4384 1.4884 1.5752 1.4887 2.0956
704.077 2.4 2.1207 2.24 2.0859 1.9082 1.8881 2.0618 2.31 2.1566 2.33
723.367 2.88 2.59 2.34 2.49 2.5 2.44 2.33 2.0325 1.893 2.53
742.657 3.07 3.08 3.26 3.28 3 3.14 3.07 3.18 3.44 2.97
761.947 2.5 2.51 2.33 2.0763 2.0921 2.0953 2.1931 1.9247 1.8247 1.7986
781.236 1.8161 1.9879 1.8824 1.8639 1.8612 2.0857 2.0427 1.7158 1.663 1.3696
800.526 1.23552 1.4623 1.5539 1.9129 2.2024 1.777 1.5348 1.824 1.4615 1.8448
819.816 2.68 1.28925 0.333 2.25 2.81 2.0739 2.2041 2.53 2.92 2.68
839.106 2.37 2.37 2.45 2.29 2.1776 2.1886 2.1605 1.9367 1.8706 1.7293
858.395 1.8027 2.0653 1.7718 1.7167 1.6232 1.5049 1.4618 1.3414 1.09 1.1978
877.685 1.4006 1.1878 1.3607 1.7538 1.8492 1.64 1.5575 1.6784 1.4834 1.3279
896.975 1.3972 1.26681 1.457 1.5242 1.472 1.6032 1.5893 1.6943 1.7791 1.7598
916.265 1.6029 1.7418 1.9437 2.0133 1.9454 2.0144 2.22 2.0507 2.1361 2.29
935.555 2.1051 2.1898 2.43 2.52 2.55 2.36 2.32 2.53 3.01 2.76
954.844 2.59 2.8 2.74 2.99 3.23 3.3 3.45 3.59 3.64 3.96
974.134 4.12 4.09 4 3.98 4.27 4.5 4.26 4.18 4.04 3.6
993.424 3.6 3.71 3.52 2.77 2.24 2.1912 2.1806 2.43 2.78 2.66
1012.714 2.55 2.56 2.203 1.9826 2.1737 2.6 2.62 2.61 2.7 2.0255
1032.003 2.73 3.86 2.79 1.7967 1.5625 1.7082 2.44 2.57 2.1138 1.9823
1051.293 2.22 1.6497 1.8941 2.75 2.67 3.05 2.98 2.66 2.54 2.0961
1070.583 2.44 2.96 3.61 3.89 3.22 2.92 2.93 3.67 4.1 4.46
1089.873 5.17 4.35 3.69 3.91 4.32 4.71 4.79 4.55 5.31 5.39
1109.163 5.16 5.03 4.16 3.91 4.39 4.26 3.61 3.22 3.08 3.36
1128.452 2.95 2.95 2.89 2.75 2.196 1.6093 1.8875 1.655 1.4384 1.9409
1147.742 2.37 2.36 1.9913 1.961 2.45 2.26 2.69 2.85 2.32 2.53
1167.032 2.44 2.48 2.69 3.09 3.24 2.49 2.63 2.91 1.6065 0.791
1186.322 1.3779 0.902 0.334 1.3788 1.8321 2.0397 1.8352 1.8522 2.54 2.0214
1205.611 0.698 0 0.294 0.249 1.3112 2.35 1.012 0.489 1.7509 1.9671
1224.901 1.8997 2.42 1.3404 0.98 1.7015 1.7872 1.8066 2.1259 2.64 3.86
1244.191 4.87 4.79 4.93 5.55 6.01 5.55 5.09 5.65 5.65 4.99
1263.481 4.82 4.78 4.44 4.37 4.34 3.91 3.89 4.04 4.23 4.15
1282.771 3.76 3.51 3.62 3.92 3.71 3.65 3.92 4.02 4.08 4.19
1302.060 4.1 4.24 4.34 4.14 4.08 4.06 4.2 4.45 4.65 4.91
1321.350 5.2 5.44 5.71 6 6.35 6.7 6.89 6.91 7 7.17
1340.640 7.41 7.68 8.01 8.37 8.73 9.18 9.65 10.18 10.8 11.4
1359.930 12.02 12.57 12.97 13.28 13.41 13.42 13.47 13.3 12.88 12.4
1379.219 11.94 11.44 10.71 10.14 9.6 8.78 7.95 7.2 6.4 5.68
1398.509 5.1 4.36 3.74 3.34 3.13 2.89 2.6 2.41 2.33 2.35
1417.799 2.25 2.2011 2.2031 2.1621 2.0692 1.9911 2.0671 2.0119 2.1026 2.24
1437.089 2.24 2.1903 2.09 2.0658 2.1956 2.1087 1.8538 1.9446 2.1328 2.32
1456.378 2.4 2.23 2.0957 2.0437 2.1007 1.973 1.7921 1.8004 1.6407 1.4666
1475.668 1.5083 1.6007 1.6317 1.7145 1.6904 1.5883 1.5519 1.672 1.7096 1.6201
1494.958 1.7566 1.8535 1.82 1.723 1.7123 1.8379 1.7135 1.6283 1.7612 1.7188
1514.248 1.5465 1.4851 1.5177 1.5155 1.6342 1.666 1.665 1.6135 1.4489 1.3866
1533.538 1.29466 1.3187 1.4683 1.5252 1.4306 1.3121 1.3157 1.1695 1.05 1.246
1552.827 1.4148 1.3335 1.20963 1.25126 1.25084 1.1437 1.072 1.1248 1.1331 1.148
1572.117 1.25119 1.3579 1.3059 1.20127 1.003 1.067 1.24129 1.29388 1.199 1.21773
1591.407 1.461 1.4262 1.3521 1.109 0.949 1.081 1.20309 1.1393 1.062 1.27405
1610.697 1.4332 1.4273 1.1691 0.944 1.041 1.057 1.028 1.28749 1.3186 1.065
1629.986 1.1663 1.1866 1.193 1.25592 1.20779 1.25411 1.1586 1.156 1.4878 1.5746
1649.276 1.4668 1.4918 1.5933 1.4974 1.3976 1.371 1.404 1.4512 1.4405 1.5629
1668.566 1.5714 1.4121 1.3868 1.4442 1.4383 1.4381 1.5008 1.5222 1.5304 1.6339
1687.856 1.7072 1.68 1.7729 2.0009 2.1981 2.3 2.24 2.1381 2.23 2.37
1707.146 2.5 2.67 2.76 2.89 3.06 3.24 3.46 3.62 3.96 4.19
1726.435 4.38 4.84 5.15 5.47 5.95 6.45 7.01 7.75 8.6 9.54
1745.725 10.85 12.55 14.8 17.74 21.63 26.57 32.85 40.36 48.7 57.51
1765.015 66.09 73.91 80.38 84.43 86.41 86.48 83.79 78.1 70.32 61.84
1784.305 52.92 43.74 35.46 29 25.08 23.4 23.25 24.24 25.93 27.61
1803.594 29.06 30.25 30.85 30.65 29.42 27.55 25.27 22.35 19.01 15.58
1822.884 12.61 10.2 8.39 7.13 6.26 5.57 4.9 4.46 4.22 3.84
1842.174 3.48 3.39 3.32 3.06 2.81 2.81 2.69 2.65 2.68 2.51
1861.464 2.38 2.3 2.25 2.1819 2.1552 2.22 2.1754 2.0396 2.1473 2.1376
1880.754 2.0523 2.0942 2.0089 1.9625 1.9262 1.8622 1.8974 1.9609 1.9658 1.8444
1900.043 1.8316 1.8954 1.8131 1.792 1.7843 1.8473 1.9675 1.9203 1.9039 1.942
1919.333 1.886 1.9961 2.0966 2.0141 1.963 1.9738 2.0019 1.9991 1.9336 1.939
1938.623 2.1275 2.157 2.0224 1.883 1.8109 2.0038 2.1685 2.052 1.9609 1.9034
1957.913 1.7705 1.6544 1.6549 1.5787 1.5322 1.5445 1.4513 1.4854 1.4551 1.3908
1977.202 1.4146 1.4076 1.4654 1.515 1.5431 1.4724 1.3205 1.2995 1.3136 1.3792
1996.492 1.4494 1.4499 1.4391 1.3283 1.3475 1.4149 1.3947 1.3774 1.3302 1.3375
2015.782 1.3365 1.30261 1.28436 1.20173 1.1453 1.3239 1.4223 1.3485 1.29671 1.3329
2035.072 1.3515 1.25353 1.28077 1.2961 1.20334 1.30496 1.4998 1.4523 1.3627 1.3825
2054.362 1.1382 0.982 1.1123 1.1195 1.108 1.23123 1.3676 1.3137 1.22493 1.3213
2073.651 1.3475 1.3831 1.3809 1.3862 1.4263 1.2273 1.1632 1.30192 1.2908 1.22375
2092.941 1.1503 1.033 1.1955 1.376 1.4491 1.4841 1.309 1.20892 1.2806 1.3161
2112.231 1.3713 1.3267 1.22386 1.25609 1.25074 1.22815 1.21639 1.1919 1.05 0.971
2131.521 0.998 1.03 1.1579 1.1706 1.091 1.075 1.20701 1.3155 1.1566 1.105
2150.810 1.095 1.105 1.07 1.036 1.1838 1.24263 1.321 1.27293 1.20805 1.1673
2170.100 1.094 1.1735 1.3831 1.3267 1.1793 1.107 0.991 1.009 1.1473 1.26497
2189.390 1.3649 1.4266 1.26685 1.1617 1.1589 1.106 1.1781 1.3557 1.3808 1.2175
2208.680 1.143 1.1393 1.074 1.1952 1.29925 1.3623 1.3979 1.25212 1.3277 1.25974
2227.970 1.094 1.1444 1.1824 1.1817 1.25039 1.3553 1.3507 1.3613 1.29394 1.1202
2247.259 1.1752 1.3515 1.3206 1.144 1.1459 1.27005 1.26597 1.26121 1.3343 1.3526
2266.549 1.30817 1.24862 1.29202 1.3309 1.23362 1.174 1.1633 1.1828 1.1167 1.24724
2285.839 1.20183 1.1661 1.29132 1.3439 1.3852 1.3651 1.4891 1.3664 1.27136 1.3458
2305.129 1.4219 1.3752 1.20375 1.1997 1.29133 1.21419 1.22376 1.4569 1.5216 1.28897
2324.418 1.1224 1.20038 1.3174 1.3192 1.21339 1.1578 1.25648 1.3303 1.267 1.4032
2343.708 1.4519 1.3192 1.1824 1.095 1.1656 1.29852 1.25807 1.29163 1.3474 1.28103
2362.998 1.2444 1.3039 1.409 1.28817 1.1688 1.084 1.027 1.1989 1.23593 1.21581
2382.288 1.28471 1.3827 1.5758 1.5078 1.4774 1.3767 1.2373 1.28152 1.21945 1.2793
2401.578 1.28098 1.28809 1.5038 1.4773 1.26381 1.23039 1.1555 0.975 1.063 1.1478
2420.867 1.037 1.23525 1.4637 1.55 1.4554 1.1886 1.1504 1.1431 1.074 1.23114
2440.157 1.1605 1.1602 1.329 1.22752 1.096 1.1243 1.3558 1.4922 1.4404 1.3142
2459.447 1.3434 1.3719 1.4446 1.4419 1.1962 1.1414 1.26397 1.20773 1.25697 1.23496
2478.737 1.24691 1.3336 1.3208 1.28368 1.1556 1.1868 1.26716 1.1604 1.038 1.1441
2498.026 1.3043 1.1936 1.2698 1.5574 1.4059 1.29537 1.21112 1.097 1.22698 1.3586
2517.316 1.4456 1.4002 1.1706 1.1527 1.20163 1.21197 1.1669 1.085 1.1636 1.30438
2536.606 1.355 1.30423 1.088 1.054 1.3464 1.4162 1.3954 1.20103 1.1492 1.3879
2555.896 1.26115 0.971 0.965 1.1185 1.1634 1.1486 1.27451 1.481 1.4299 1.22125
2575.186 1.22733 1.1411 1.081 1.072 0.996 1.101 1.23858 1.3211 1.28042 1.28448
2594.475 1.376 1.4476 1.5261 1.4067 1.3097 1.23248 1.1653 1.1693 1.22967 1.4091
2613.765 1.30652 1.29521 1.28043 1.2269 1.4639 1.5033 1.5217 1.3466 1.3135 1.4491
2633.055 1.25742 1.1891 1.27686 1.3683 1.3276 1.3538 1.415 1.3924 1.23973 1.29219
2652.345 1.30688 1.22257 1.3308 1.3563 1.3824 1.407 1.3662 1.28249 1.451 1.5624
2671.634 1.42 1.525 1.6024 1.3959 1.314 1.2978 1.24899 1.21662 1.3503 1.4438
2690.924 1.21328 1.1 1.28232 1.3108 1.3984 1.4739 1.3454 1.3113 1.39 1.29085
2710.214 1.1665 1.1596 1.1961 1.3203 1.20778 1.22258 1.1927 1.1683 1.3739 1.29185
2729.504 1.1996 1.3984 1.5676 1.6378 1.4676 1.057 1.04 1.3196 1.4414 1.341
2748.794 1.3574 1.546 1.5739 1.6804 1.415 1.078 1.1832 1.1406 1.1477 1.1399
2768.083 1.20563 1.4651 1.442 1.27823 1.1863 1.25977 1.28469 1.4435 1.5296 1.4496
2787.373 1.6155 1.6275 1.3658 1.1824 1.2932 1.21506 1.2906 1.3213 1.1723 1.3427
2806.663 1.3763 1.132 1.1213 1.22592 1.21748 1.3589 1.3265 1.1388 1.1723 1.1316
2825.953 1.25551 1.4331 1.4214 1.6951 1.6711 1.3143 1.2343 1.3253 1.5477 1.3741
2845.242 1.3223 1.6634 1.5888 1.1872 1.1809 1.5078 1.3933 1.2912 1.3963 1.3317
2864.532 1.3703 1.5039 1.4165 1.5139 1.7188 1.878 1.7706 1.6582 1.7083 1.6419
2883.822 1.6902 1.7233 1.6842 1.481 1.4539 1.7336 1.6429 1.6407 1.9258 1.7875
2903.112 1.7329 2.0095 1.9927 1.8162 1.6531 1.6004 1.4738 1.3493 1.5632 1.7547
2922.401 1.7234 1.5815 1.6585 1.8311 1.9035 2.0483 2.24 2.34 2.51 2.65
2941.691 2.56 2.66 2.75 2.57 2.52 2.41 2.22 2.26 1.9738 2.031
2960.981 2.1983 1.8702 1.9977 2.28 2.41 2.45 2.47 2.78 3.17 3.6
2980.271 3.72 3.65 3.55 3.52 3.67 3.62 3.47 3.21 3.04 3.23
2999.561 3.49 3.5 3.32 3.23 3.17 3.19 3.34 3.21 2.86 2.92
3018.850 3.36 3.46 3.25 3.23 3.11 2.56 2.39 2.84 2.55 1.8576
3038.140 1.679 1.5522 1.30341 1.3244 1.4298 1.4081 1.119 1.21404 1.8039 1.8124
3057.430 1.3492 1.25033 1.5937 1.5929 1.4033 1.5617 1.77 1.9184 1.9524 2.1279
3076.720 2.23 2.0735 2.49 2.51 2.5 2.5 2.62 3.05 2.92 2.81
3096.009 2.67 2.1982 2.0281 2.22 2.32 2.33 2.28 1.8034 1.3574 1.3223
3115.299 1.4144 1.567 1.3204 1.1125 1.27928 1.4701 1.3478 1.26486 1.30865 1.3635
3134.589 1.1347 1.2237 1.6102 1.628 1.6572 1.662 1.4786 1.4865 1.5235 1.659
3153.879 1.7665 1.5673 1.785 1.7567 1.424 1.1809 1.24778 1.4242 1.3333 1.3792
3173.169 1.3193 1.4297 1.4911 1.6236 1.5931 1.3287 1.411 1.3734 1.22883 1.4027
3192.458 1.4165 1.3776 1.479 1.3241 1.29566 1.1843 1.095 1.1448 1.1787 1.3701
3211.748 1.084 0.944 1.26164 1.048 1.1147 1.053 0.86 0.821 1.027 1.4737
3231.038 1.26473 0.989 1.038 1.1153 1.1804 1.21235 1.27472 1.3137 1.1767 1.19
3250.328 1.26095 1.1475 1.011 0.622 0.917 1.546 1.29403 1.1443 1.1506 1.1932
3269.617 1.30849 1.29881 1.4852 1.4631 1.5581 1.6348 1.29688 1.058 0.941 1.057
3288.907 1.22035 1.044 1.24236 1.4638 1.5756 1.7227 1.4604 1.1638 1.4287 1.8143
3308.197 1.5841 1.3677 1.4888 1.22171 0.81 1.1482 1.5299 1.4151 1.102 1.3119
3327.487 1.4834 1.3136 1.4096 1.5044 1.20425 1.1778 1.1831 1.071 1.4317 1.30116
3346.777 1.1935 1.4519 1.5519 1.353 1.3797 1.7459 1.3409 0.888 1.079 1.06
3366.066 1.1817 1.24319 0.88 0.842 0.897 0.783 0.931 0.971 0.791 0.974
3385.356 1.1395 1.085 1.4135 1.6166 1.004 0.839 1.2635 1.4228 1.29366 1.147
3404.646 1.036 0.919 1.1809 1.3609 1.1281 0.918 1.1627 1.3732 1.1978 1.4609
3423.936 1.7936 1.26498 1.01 1.6779 1.6554 1.316 1.26707 1.30548 1.5657 1.5931
3443.225 1.7931 1.7837 1.892 2.45 2.92 2.86 2.75 3.21 3.88 4.73
3462.515 5.49 5.95 6.48 7.28 8.42 9.55 10.13 10.95 11.43 11.26
3481.805 11.26 11.06 10.31 9.24 8.08 7.17 6.22 5.23 4.46 3.77
3501.095 2.88 2.0357 1.8128 1.5172 1.4004 1.5476 1.7422 1.6788 1.5935 1.6067
3520.385 1.5515 1.3406 1.20465 1.5588 1.7422 1.6896 1.4533 1.4983 1.8451 1.8149
3539.674 1.5742 1.9068 1.8238 1.7156 2.0634 1.9646 1.5888 1.4081 1.7586 1.8277
3558.964 1.647 1.8836 1.8177 1.9965 2.113 1.7148 1.3447 1.24221 1.6287 1.6524
3578.254 1.5977 1.7044 1.4291 1.26982 1.4646 1.433 1.554 1.4381 1.4165 1.5236
3597.544 1.3878 1.1609 0.872 1.1476 1.29358 1.22588 1.465 1.6409 1.3797 1.089
3616.833 1.5035 1.8088 1.5722 1.643 1.8788 1.4569 1.011 1.087 1.1144 0.848
3636.123 1.046 1.27266 0.796 0.974 1.4672 1.481 1.3371 1.1373 0.93 0.868
3655.413 0.965 0.921 0.988 1.1674 0.891 0.606 0.923 1.1946 1.1604 0.987
3674.703 0.962 0.989 0.56 0.417 0.587 0.919 1.104 1.021 1.089 1.024
3693.993 0.981 1.26369 1.5939 1.4868 1.068 0.846 0.769 0.74 1.024 1.23114
3713.282 1.23502 0.991 1.074 1.1132 0.903 1.1359 1.103 1.22045 1.515 1.3776
3732.572 1.1847 1.4513 1.5341 1.4235 1.6636 1.5295 1.7613 1.6687 1.1714 1.1498
3751.862 1.22571 1.3876 1.1281 1.035 1.1631 1.3431 1.4726 1.29791 1.5466 1.6804
3771.152 1.26436 1.051 1.003 0.941 0.868 0.895 0.764 0.5 0.662 0.937
3790.441 1.23017 1.29098 0.947 0.813 0.925 1.1305 1.4589 1.5879 1.6772 1.3197
3809.731 0.706 0.723 0.801 0.909 1.2941 1.6091 1.4916 1.1816 1.3107 1.23032
3829.021 0.915 1.065 1.12 1.041 1.4274 1.5121 1.3405 1.009 0.763 0.979
3848.311 1.1522 1.24591 1.21236 1.1795 1.1221 1.1696 1.044 0.929 1.036 1.005
3867.601 0.85 0.99 1.1509 1.079 1.078 1.3486 1.3163 1.1417 0.838 0.588
3886.890 0.936 1.1576 0.835 0.64 1.06 1.2979 1.4648 1.4797 1.1813 1.014
3906.180 0.849 0.914 0.813 0.67 1.036 1.1549 1.4013 1.6297 1.25252 1.1568
3925.470 1.2947 1.008 0.644 0.701 0.858 0.907 1.037 0.971 1.041 1.1175
3944.760 0.962 0.645 0.434 0.725 0.955 1.1424 1.29918 1.042 0.987 1.21127
3964.049 1.4976 1.5084 1.2097 0.915 0.891 1.027 0.81 0.905 1.188 0.888
3983.339 0.674 0.876 1.077 1.3926 1.4443 1.4509 1.4266 1.049 0.733 1.101
##END=
