##TITLE=Ethyl 3-pyrrolidinocrotonate
##JCAMP-DX=4.24
##DATA TYPE=INFRARED SPECTRUM
##ORIGIN=EPA-IR VAPOR PHASE LIBRARY
##OWNER=SRD/NIST
Collection (C) 2018 copyright by the U.S. Secretary of Commerce
on behalf of the United States of America. All rights reserved.
##CAS REGISTRY NO=54716-02-8
##MOLFORM=C 10 H 17 N O 2
##$NIST SOURCE=MSDC-IR
##STATE=gas
##XUNITS=1/CM
##YUNITS=ABSORBANCE
##XFACTOR=1.
##YFACTOR=0.001
##DELTAX=1.92934
##FIRSTX=549.9
##LASTX=3999.5
##FIRSTY=3.5551
##MAXX=3999.53
##MINX=549.863
##MAXY=0.34192
##MINY=0
##NPOINTS=1789
##XYDATA=(X++(Y..Y))
549.863 3.5551 3.4696 3.4257 3.4639 3.4427 3.3895 3.4177 3.4307 3.2692 3.2848
569.156 3.3986 3.333 3.3329 3.3465 3.2958 3.3074 3.2493 3.1404 3.2164 3.1733
588.450 3.05655 3.022 2.8893 2.828 2.646 2.404 2.351 2.333 2.379 2.326
607.743 2.259 2.266 2.221 2.246 2.329 2.35 2.263 2.255 2.286 2.223
627.037 2.241 2.301 2.34 2.294 2.262 2.326 2.313 2.269 2.303 2.372
646.330 2.437 2.407 2.345 2.293 2.335 2.363 2.354 2.312 2.337 2.355
665.624 2.745 3.9345 3.7429 2.9187 2.827 2.817 2.9213 3.03897 3.0942 3.108
684.917 3.1698 3.1195 3.1041 3.06774 3.05816 3.03698 2.9522 2.9363 2.9468 2.9543
704.210 2.9301 2.9022 2.9325 2.98476 3.0932 3.2414 3.3521 3.5056 3.6132 3.6151
723.504 3.6094 3.6441 3.6558 3.6766 3.7009 3.7146 3.7669 3.7486 3.7034 3.7187
742.797 3.7843 3.7852 3.7866 3.921 4.06 4.2 4.38 4.55 4.7 4.85
762.091 4.97 5.1 5.3 5.49 5.66 5.87 6.24 6.65 7.07 7.61
781.384 8.26 9.02 9.9 10.97 12.18 13.49 14.75 15.91 16.9 17.65
800.678 18.03 17.89 17.24 16.36 15.33 14.17 13 11.81 10.65 9.67
819.971 8.83 8.08 7.47 6.98 6.61 6.29 6.05 5.86 5.64 5.47
839.264 5.35 5.27 5.15 5.06 5 4.92 5 5.08 5.13 5.28
858.558 5.47 5.64 5.78 5.93 6.09 6.2 6.24 6.3 6.38 6.41
877.851 6.42 6.35 6.29 6.17 6 5.86 5.72 5.64 5.64 5.68
897.145 5.79 5.89 5.97 6.03 6.06 6.1 6.11 6.08 6.01 5.88
916.438 5.67 5.44 5.29 5.11 4.89 4.68 4.52 4.46 4.43 4.38
935.732 4.37 4.38 4.38 4.46 4.56 4.63 4.74 4.86 4.96 5.18
955.025 5.45 5.72 6.06 6.43 6.77 7.19 7.63 8.02 8.35 8.66
974.318 8.94 9.13 9.28 9.39 9.47 9.55 9.68 9.88 10.12 10.43
993.612 10.78 11.16 11.57 12 12.47 13.07 13.79 14.65 15.77 17.21
1012.905 19.03 21.16 23.49 25.89 27.92 29.25 29.82 29.68 28.94 27.83
1032.199 26.77 26.25 26.55 27.74 29.73 32.48 35.88 39.81 44.11 48.51
1051.492 52.7 56.26 58.83 60.29 60.53 59.6 57.73 55.28 52.56 49.86
1070.786 47.35 44.99 42.75 40.63 38.73 37.06 35.73 34.88 34.51 34.66
1090.079 35.2 35.98 37.01 38.15 39.23 40.25 41.27 42.43 43.87 45.8
1109.372 48.46 51.92 56.19 61.31 67.37 74.46 82.79 92.79 105.02 120.25
1128.666 139.17 162.42 190.2 221.96 255.99 289.17 317.39 336.11 341.92 333.35
1147.959 311.02 277.5 237.23 196.32 160.14 131.26 109.49 93.38 81.37 72.33
1167.253 65.54 60.47 56.76 54.1 52.24 50.87 49.59 48.14 46.35 44.08
1186.546 41.28 38.05 34.62 31.27 28.1 25.31 22.9 20.9 19.32 18.06
1205.840 17.08 16.37 15.88 15.56 15.43 15.47 15.6 15.84 16.18 16.65
1225.133 17.26 17.93 18.6 19.27 20.04 20.87 21.72 22.74 23.88 25.07
1244.426 26.29 27.48 28.62 29.63 30.6 31.48 32.13 32.5 32.51 32.01
1263.720 30.9 29.21 27.15 24.91 22.57 20.34 18.4 16.84 15.7 14.9
1283.013 14.28 13.86 13.63 13.55 13.63 13.93 14.33 14.78 15.15 15.38
1302.307 15.61 15.74 15.7 15.6 15.55 15.66 15.91 16.3 16.82 17.4
1321.600 18.04 18.8 19.7 20.69 21.81 23.2 24.94 27.05 29.56 32.37
1340.894 35.2 37.69 39.34 39.83 39.24 37.77 35.75 33.64 32.04 31.53
1360.187 32.35 34.16 36.27 37.97 38.97 39.39 39.15 37.94 36.2 34.81
1379.480 34.13 34.2 35.04 36.44 38.34 40.67 43.3 46.23 49.46 52.96
1398.774 56.84 61.18 65.91 70.98 76.01 80.44 83.73 85.39 84.95 82.32
1418.067 77.73 71.57 64.78 57.91 51.51 46.16 41.9 38.79 36.59 35.05
1437.361 33.89 32.93 32.08 31.3 30.54 29.74 28.93 28.29 27.74 27.26
1456.654 26.98 26.97 26.96 26.73 26.19 25.46 24.53 23.34 21.96 20.55
1475.948 19.45 18.74 18.41 18.44 18.8 19.36 19.86 20.05 19.81 19.2
1495.241 18.29 17.05 15.68 14.45 13.52 12.96 12.6 12.36 12.25 12.25
1514.534 12.36 12.52 12.77 13.06 13.31 13.61 13.98 14.3 14.68 15.05
1533.828 15.46 15.92 16.46 17.11 17.81 18.64 19.7 20.9 22.34 24.08
1553.121 26.13 28.6 31.48 34.94 38.91 43.33 48.65 54.88 62.22 71.04
1572.415 81.31 93.26 107.84 124.48 142.61 162.26 182.03 200.74 216.63 228.45
1591.708 235 235.98 231.45 222.04 208.76 192.77 175.19 156.73 138.01 119.46
1611.002 101.88 85.96 72.39 60.85 51.59 44.37 38.58 33.94 30.23 27.28
1630.295 24.85 22.87 21.3 19.95 18.7 17.67 16.82 16.08 15.44 14.79
1649.588 14.22 13.84 13.51 13.14 12.86 12.69 12.63 12.64 12.71 12.81
1668.882 12.94 13.09 13.35 13.75 14.22 14.77 15.64 16.87 18.59 20.79
1688.175 23.74 27.72 32.98 39.7 48.68 59.39 72.05 86.94 101.29 114.28
1707.469 122.54 125.2 123.68 118.74 108.58 92.99 75.42 60.2 47.58 37.55
1726.762 29.75 23.77 19.35 16.2 13.78 12.06 10.95 10.18 9.62 9.26
1746.056 9.02 8.83 8.69 8.58 8.45 8.33 8.18 7.99 7.81 7.57
1765.349 7.27 7.01 6.77 6.53 6.29 6.02 5.79 5.55 5.3 5.07
1784.642 4.82 4.61 4.42 4.22 4.1 3.97 3.7942 3.687 3.6239 3.5262
1803.936 3.4186 3.3568 3.2822 3.2172 3.1632 3.0912 3.04434 2.99086 2.98798 2.9636
1823.229 2.926 2.948 2.9397 2.9408 2.9349 2.8949 2.8895 2.9058 2.9182 2.9105
1842.523 2.9431 2.9554 2.9252 2.9151 2.9158 2.9416 2.98034 3.01045 2.98765 3.00002
1861.816 3.04475 3.05314 3.0976 3.1216 3.109 3.1425 3.183 3.1929 3.2066 3.2195
1881.110 3.2256 3.2142 3.1997 3.2082 3.2258 3.2308 3.236 3.226 3.2106 3.2008
1900.403 3.1864 3.1736 3.1669 3.1374 3.1236 3.0995 3.0999 3.1079 3.0997 3.1022
1919.696 3.0923 3.1001 3.0999 3.06086 3.00313 2.97353 2.97192 2.97046 2.9236 2.849
1938.990 2.784 2.76 2.714 2.618 2.555 2.537 2.504 2.429 2.369 2.378
1958.283 2.382 2.34 2.297 2.259 2.282 2.276 2.207 2.138 2.127 2.129
1977.577 2.103 2.081 2.057 2.046 2.061 2.087 2.09 2.088 2.117 2.114
1996.870 2.108 2.17 2.193 2.233 2.267 2.288 2.343 2.383 2.453 2.523
2016.164 2.556 2.555 2.558 2.582 2.595 2.608 2.598 2.578 2.533 2.451
2035.457 2.435 2.428 2.374 2.322 2.283 2.281 2.241 2.181 2.169 2.149
2054.750 2.122 2.098 2.074 2.042 2.026 2.03 1.999 1.97 1.96 1.97
2074.044 1.97 1.96 1.96 1.94 1.94 1.95 1.92 1.91 1.91 1.9
2093.337 1.92 1.93 1.95 1.94 1.93 1.94 1.983 2.007 2.002 1.984
2112.631 2 2.013 2.033 2.035 2.025 2.055 2.059 2.063 2.075 2.077
2131.924 2.08 2.105 2.125 2.104 2.099 2.107 2.097 2.056 2.039 2.049
2151.218 2.056 2.03 1.98 1.97 1.981 1.95 1.92 1.94 1.93 1.91
2170.511 1.9 1.91 1.91 1.88 1.88 1.84 1.81 1.84 1.84 1.84
2189.804 1.83 1.79 1.8 1.83 1.81 1.79 1.78 1.78 1.79 1.8
2209.098 1.81 1.78 1.76 1.74 1.73 1.73 1.74 1.73 1.72 1.71
2228.391 1.69 1.69 1.69 1.66 1.67 1.72 1.73 1.74 1.76 1.77
2247.685 1.73 1.74 1.77 1.79 1.82 1.86 1.87 1.86 1.89 1.94
2266.978 1.977 1.97 1.979 2.017 2.033 2.071 2.124 2.154 2.181 2.262
2286.272 2.333 2.387 2.457 2.523 2.603 2.669 2.784 2.9276 3.03026 3.1455
2305.565 3.2633 3.3632 3.485 3.6253 3.7297 3.802 3.8846 3.9607 4.04 4.12
2324.858 4.11 4.06 4.05 4.03 3.99 3.9232 3.901 3.8589 3.7959 3.7655
2344.152 3.6466 3.4697 3.3087 3.3689 3.6696 4.01 4.32 4.52 4.67 4.76
2363.445 4.79 4.81 4.74 4.59 4.4 4.15 3.8939 3.573 3.2263 2.8996
2382.739 2.584 2.325 2.107 1.977 1.92 1.84 1.79 1.79 1.79 1.76
2402.032 1.73 1.7 1.7 1.67 1.65 1.64 1.63 1.63 1.58 1.62
2421.326 1.61 1.57 1.56 1.57 1.56 1.54 1.55 1.53 1.52 1.52
2440.619 1.48 1.46 1.46 1.47 1.46 1.44 1.47 1.49 1.45 1.46
2459.912 1.47 1.44 1.46 1.49 1.44 1.43 1.47 1.47 1.47 1.51
2479.206 1.57 1.57 1.56 1.58 1.59 1.6 1.64 1.67 1.65 1.65
2498.499 1.66 1.64 1.61 1.62 1.6 1.55 1.52 1.47 1.44 1.41
2517.793 1.36 1.34 1.35 1.37 1.39 1.37 1.33 1.3 1.32 1.33
2537.086 1.34 1.32 1.36 1.41 1.4 1.36 1.35 1.4 1.4 1.35
2556.380 1.36 1.37 1.33 1.3 1.34 1.36 1.33 1.3 1.3 1.26
2575.673 1.28 1.32 1.32 1.33 1.28 1.22 1.21 1.21 1.23 1.26
2594.966 1.26 1.26 1.29 1.32 1.31 1.35 1.35 1.34 1.36 1.35
2614.260 1.36 1.37 1.35 1.33 1.35 1.38 1.35 1.36 1.43 1.43
2633.553 1.46 1.49 1.51 1.54 1.55 1.61 1.66 1.68 1.72 1.79
2652.847 1.79 1.76 1.79 1.85 1.88 1.86 1.84 1.82 1.8 1.79
2672.140 1.8 1.78 1.77 1.83 1.83 1.83 1.82 1.82 1.81 1.8
2691.434 1.82 1.8 1.77 1.8 1.85 1.86 1.92 2.018 2.093 2.112
2710.727 2.193 2.226 2.195 2.282 2.387 2.392 2.419 2.501 2.542 2.601
2730.020 2.679 2.717 2.807 2.8957 2.9585 3.01114 3.04605 3.0597 3.04763 3.0126
2749.314 2.99563 3.03097 3.0884 3.1278 3.1615 3.2442 3.2875 3.3077 3.4475 3.5824
2768.607 3.5968 3.6437 3.6938 3.7108 3.7524 3.8293 3.8982 3.9352 3.99 4.09
2787.901 4.2 4.21 4.28 4.48 4.66 4.81 4.92 5.1 5.38 5.59
2807.194 5.82 6.13 6.44 6.71 7.03 7.34 7.68 8.02 8.37 8.78
2826.488 9.24 9.7 10.18 10.8 11.49 12.25 13.04 14.01 15.24 16.54
2845.781 17.99 19.7 21.52 23.34 25.23 27.02 28.45 29.52 30.17 30.34
2865.074 30.18 29.65 28.82 27.93 27.18 26.81 26.72 26.89 27.18 27.41
2884.368 27.47 27.2 26.71 26.06 25.22 24.32 23.56 23.13 22.97 22.94
2903.661 23.12 23.4 23.6 23.76 24.07 24.43 24.8 25.16 25.62 26.24
2922.955 27.12 28.19 29.27 30.68 32.29 34.05 35.97 37.69 39.12 40.22
2942.248 40.79 40.94 40.75 40.31 39.95 39.81 40.1 40.88 41.89 43.15
2961.542 44.95 47.15 49.7 52.83 56.59 60.63 64.39 67.51 69.31 69.31
2980.835 67.11 62.63 56.96 51.1 45.19 39.54 34.53 30.21 26.56 23.41
3000.128 20.85 18.69 16.89 15.38 13.97 12.78 11.7 10.79 9.98 9.24
3019.422 8.56 7.94 7.41 6.85 6.42 6.04 5.57 5.2 5.02 4.75
3038.715 4.38 4.2 4.04 3.8737 3.6917 3.4597 3.3442 3.2674 3.1562 3.01944
3058.009 2.9365 2.8861 2.789 2.681 2.626 2.526 2.545 2.551 2.498 2.656
3077.302 2.851 2.772 2.785 3.03061 3.1756 3.1992 3.2785 3.4432 3.3694 3.2433
3096.596 3.1025 2.858 2.652 2.531 2.318 2.111 1.986 1.85 1.8 1.63
3115.889 1.49 1.5 1.42 1.33 1.3 1.19 1.08 1 0.97 0.94
3135.182 0.82 0.78 0.86 0.85 0.76 0.82 0.87 0.87 0.77 0.66
3154.476 0.65 0.62 0.68 0.77 0.72 0.66 0.57 0.53 0.57 0.62
3173.769 0.5 0.33 0.41 0.56 0.45 0.45 0.61 0.53 0.34 0.32
3193.063 0.32 0.18 0.14 0.07 0.11 0.21 0.2 0.11 0 0.04
3212.356 0.02 0.12 0.25 0.1 0.06 0.12 0.06 0.1 0.15 0.1
3231.650 0.16 0.17 0.06 0.17 0.24 0.16 0.23 0.21 0.16 0.17
3250.943 0.12 0.07 0.09 0.07 0.04 0.12 0.16 0.13 0.12 0.15
3270.236 0.23 0.28 0.26 0.23 0.33 0.41 0.44 0.49 0.57 0.55
3289.530 0.54 0.67 0.57 0.49 0.62 0.74 0.7 0.69 0.69 0.64
3308.823 0.65 0.69 0.59 0.49 0.61 0.55 0.35 0.4 0.38 0.36
3328.117 0.36 0.21 0.18 0.26 0.32 0.37 0.41 0.44 0.32 0.28
3347.410 0.49 0.51 0.42 0.44 0.44 0.44 0.51 0.59 0.5 0.4
3366.704 0.3 0.39 0.66 0.64 0.61 0.5 0.45 0.6 0.65 0.71
3385.997 0.83 0.86 0.98 1.1 1.04 1.12 1.24 1.21 1.24 1.25
3405.290 1.17 1.09 1.15 1.15 1.13 1.16 1.15 1.06 0.87 0.9
3424.584 0.82 0.68 0.66 0.63 0.74 0.8 0.75 0.66 0.58 0.54
3443.877 0.52 0.47 0.42 0.52 0.67 0.74 0.72 0.67 0.52 0.53
3463.171 0.72 0.69 0.64 0.73 0.68 0.64 0.73 0.78 0.77 0.67
3482.464 0.68 0.77 0.8 0.76 0.67 0.72 0.79 0.84 0.82 0.75
3501.758 0.71 0.71 0.78 0.82 0.89 0.85 0.78 0.76 0.78 0.89
3521.051 0.91 0.8 0.79 0.89 0.93 0.87 0.86 0.91 0.88 0.86
3540.344 0.86 0.84 0.92 0.92 0.8 0.85 1.03 1.05 1.06 1.1
3559.638 1.07 1.01 0.96 1.01 1.01 1.04 1 0.86 0.85 0.9
3578.931 0.91 1.04 1.1 1.01 0.99 1.04 1.12 1.12 1 0.98
3598.225 1.06 1.05 1.06 1.11 1.13 1.13 1.07 0.99 1.01 1.02
3617.518 0.98 0.96 1.03 1.19 1.16 1.12 1.2 1.25 1.18 1.2
3636.812 1.24 1.23 1.31 1.36 1.41 1.44 1.47 1.49 1.43 1.39
3656.105 1.42 1.4 1.36 1.31 1.31 1.29 1.25 1.3 1.29 1.2
3675.398 1.2 1.24 1.19 1.16 1.21 1.27 1.29 1.27 1.18 1.17
3694.692 1.3 1.26 1.22 1.28 1.27 1.28 1.31 1.34 1.3 1.25
3713.985 1.31 1.3 1.25 1.33 1.33 1.33 1.29 1.34 1.41 1.45
3733.279 1.54 1.49 1.42 1.38 1.36 1.34 1.34 1.4 1.4 1.36
3752.572 1.36 1.35 1.36 1.36 1.33 1.36 1.42 1.45 1.43 1.4
3771.866 1.42 1.44 1.39 1.36 1.31 1.32 1.32 1.32 1.34 1.38
3791.159 1.42 1.41 1.39 1.37 1.44 1.5 1.48 1.5 1.52 1.43
3810.452 1.41 1.39 1.36 1.39 1.46 1.51 1.42 1.44 1.5 1.5
3829.746 1.5 1.5 1.55 1.57 1.59 1.59 1.54 1.61 1.54 1.47
3849.039 1.48 1.49 1.52 1.46 1.42 1.38 1.39 1.43 1.36 1.41
3868.333 1.49 1.47 1.5 1.48 1.55 1.55 1.44 1.5 1.47 1.43
3887.626 1.48 1.5 1.51 1.42 1.39 1.43 1.36 1.31 1.39 1.41
3906.920 1.41 1.44 1.42 1.4 1.33 1.29 1.36 1.45 1.47 1.44
3926.213 1.43 1.45 1.42 1.37 1.29 1.33 1.42 1.42 1.44 1.43
3945.506 1.43 1.44 1.45 1.42 1.39 1.4 1.42 1.38 1.34 1.34
3964.800 1.39 1.46 1.49 1.52 1.54 1.57 1.51 1.45 1.5 1.5
3984.093 1.5 1.51 1.53 1.54 1.56 1.59 1.58 1.59 1.6
##END=
