##TITLE=4-(4-Hydroxyphenyl)-2-butanone
##JCAMP-DX=4.24
##DATA TYPE=INFRARED SPECTRUM
##ORIGIN=NIST Mass Spectrometry Data Center
##OWNER=NIST Standard Reference Data Program
Collection (C) 2018 copyright by the U.S. Secretary of Commerce
on behalf of the United States of America. All rights reserved.
##CAS REGISTRY NO=5471-51-2
##MOLFORM=C 10 H 12 O 2
##$NIST SOURCE=MSDC-IR
##SPECTROMETER/DATA SYSTEM=HP-GC/MS/IRD
##STATE=gas
##XUNITS=1/CM
##YUNITS=ABSORBANCE
##XFACTOR=1.0
##YFACTOR=0.000001600
##DELTAX=4.0
##FIRSTX=550.0
##LASTX=3846.0
##FIRSTY=0.001352
##MAXX=3846
##MINX=550
##MAXY=0.016
##MINY=0
##NPOINTS=825
##XYDATA=(X++(Y..Y))
550.0 845 632 495 471 372 288 292 266 236 260
590.0 235 176 111 97 81 83 73 57 47 21
630.0 21 12 16 13 28 53 42 8 11 40
670.0 16 7 40 48 72 102 116 135 176 212
710.0 248 247 237 259 234 208 217 229 289 356
750.0 394 415 384 305 263 267 297 347 431 544
790.0 710 929 1165 1406 1605 1764 1856 1874 1802 1688
830.0 1544 1346 1148 964 793 660 586 529 480 415
870.0 347 305 251 202 223 258 241 224 215 206
910.0 212 203 216 249 272 285 296 301 309 303
950.0 310 318 292 283 275 251 226 208 201 201
990.0 194 192 213 243 298 356 377 364 331 294
1030.0 276 288 285 304 301 289 291 302 320 330
1070.0 343 366 400 477 603 772 946 1029 1022 973
1110.0 917 892 929 997 1079 1210 1415 1741 2184 2736
1150.0 3365 4084 5009 6437 8266 9652 10000 9128 7480 5996
1190.0 4913 4059 3378 2887 2563 2345 2205 2085 1973 1893
1230.0 1835 1849 1999 2414 3206 4340 5336 5576 4848 3433
1270.0 2168 1534 1262 1107 1011 950 906 889 896 919
1310.0 976 1076 1250 1495 1757 1987 2124 2128 2072 2049
1350.0 2132 2321 2534 2608 2473 2156 1753 1389 1111 908
1390.0 777 706 690 710 758 834 941 1075 1224 1380
1430.0 1516 1565 1504 1361 1191 1031 902 790 687 600
1470.0 540 514 512 541 617 791 1137 1796 3014 4898
1510.0 6724 7336 6473 4477 2505 1417 934 698 555 455
1550.0 391 365 362 350 351 382 441 525 662 873
1590.0 1097 1290 1407 1458 1493 1544 1557 1456 1233 963
1630.0 718 549 441 380 346 332 322 312 323 347
1670.0 394 442 511 613 740 866 1018 1215 1442 1746
1710.0 2154 2682 3360 4150 4921 5430 5437 4911 4053 3160
1750.0 2406 1820 1384 1072 844 665 524 420 340 273
1790.0 231 195 169 149 130 112 99 96 90 91
1830.0 102 110 111 118 126 128 140 152 155 164
1870.0 173 176 174 163 145 123 112 101 86 66
1910.0 58 57 48 49 49 41 40 36 30 30
1950.0 32 40 49 45 36 36 36 41 46 46
1990.0 44 38 37 41 48 51 45 43 36 32
2030.0 30 26 18 19 28 32 32 37 50 44
2070.0 35 47 53 53 57 63 68 63 49 44
2110.0 47 41 30 25 25 21 24 18 4 3
2150.0 0 4 14 14 18 19 14 15 20 16
2190.0 14 21 18 17 17 11 6 13 24 21
2230.0 11 17 19 13 9 15 22 16 14 21
2270.0 27 26 28 29 28 28 27 30 41 34
2310.0 25 32 37 39 46 51 54 54 64 69
2350.0 51 43 52 47 35 31 26 26 28 26
2390.0 36 38 34 42 51 65 82 96 116 125
2430.0 119 110 98 84 62 54 43 36 36 36
2470.0 39 37 43 45 41 46 59 68 67 64
2510.0 65 64 49 29 28 24 19 19 16 15
2550.0 17 7 1 13 17 23 32 34 26 28
2590.0 39 34 35 35 33 36 37 36 27 24
2630.0 28 34 31 27 25 24 32 33 27 32
2670.0 29 27 33 36 39 31 30 28 20 15
2710.0 19 19 15 26 36 42 37 17 17 23
2750.0 27 45 55 53 57 53 47 59 56 60
2790.0 62 51 52 57 64 82 97 102 109 123
2830.0 140 150 172 204 225 252 308 372 417 463
2870.0 494 487 501 529 570 648 736 823 902 971
2910.0 1056 1154 1261 1355 1443 1517 1547 1507 1407 1313
2950.0 1248 1205 1169 1124 1046 933 801 689 610 555
2990.0 560 621 721 865 1077 1289 1422 1467 1432 1391
3030.0 1384 1361 1286 1157 992 859 770 704 652 619
3070.0 583 526 488 443 379 329 293 266 241 232
3110.0 228 197 182 174 157 134 105 103 99 86
3150.0 78 59 43 32 19 23 35 25 15 17
3190.0 19 21 38 42 15 4 1 19 29 17
3230.0 14 35 42 13 9 22 31 25 15 27
3270.0 35 40 36 30 30 25 6 8 16 20
3310.0 26 21 25 27 29 33 33 36 55 80
3350.0 71 68 76 77 64 52 56 62 66 57
3390.0 55 66 68 74 73 88 102 97 111 120
3430.0 116 110 130 152 140 131 123 117 114 98
3470.0 87 77 75 72 56 38 22 14 22 36
3510.0 49 55 35 4 12 31 36 28 10 4
3550.0 16 28 30 38 35 39 46 35 34 49
3590.0 57 46 44 76 97 109 144 182 234 317
3630.0 432 692 1168 1911 2919 3702 3711 3013 1887 954
3670.0 537 345 224 157 112 100 91 67 76 81
3710.0 55 29 36 45 22 15 17 28 22 15
3750.0 14 12 27 32 34 45 47 48 50 44
3790.0 25 16 23 37 27 8 29 36 17 9
3830.0 3 28 45 39 27
##END=
