##TITLE=Dimethyl indole-2,3-dicarboxylate
##JCAMP-DX=4.24
##DATA TYPE=INFRARED SPECTRUM
##ORIGIN=EPA-IR VAPOR PHASE LIBRARY
##OWNER=SRD/NIST
Collection (C) 2018 copyright by the U.S. Secretary of Commerce
on behalf of the United States of America. All rights reserved.
##CAS REGISTRY NO=54781-93-0
##MOLFORM=C 12 H 11 N O 4
##$NIST SOURCE=MSDC-IR
##STATE=gas
##XUNITS=1/CM
##YUNITS=ABSORBANCE
##XFACTOR=1.
##YFACTOR=0.001
##DELTAX=1.92898
##FIRSTX=549.8
##LASTX=4000.7
##FIRSTY=4.069
##MAXX=4000.7
##MINX=549.759
##MAXY=0.181449
##MINY=0
##NPOINTS=1790
##XYDATA=(X++(Y..Y))
549.759 4.069 4.029 4.769 5.359 4.869 5.139 5.419 6.279 7.739 7.309
569.049 7.279 7.849 7.819 7.369 6.289 5.799 6.159 5.749 4.359 4.139
588.339 4.319 4.679 4.939 4.059 3.569 3.829 4.149 4.269 4.309 3.859
607.628 3.539 4.219 4.579 4.189 4.229 4.149 3.859 3.819 3.479 2.959
626.918 3.159 3.779 4.069 4.209 4.659 4.989 4.959 5.529 5.709 5.369
646.208 5.249 4.809 4.289 3.969 3.309 3.019 2.829 2.679 2.549 1.839
665.498 1.679 2.249 2.309 2.069 1.769 1.2921 1.559 1.829 1.509 1.589
684.787 1.719 1.619 1.4394 1.889 2.319 2.209 2.109 1.859 1.909 2.159
704.077 2.659 2.589 2.419 2.869 3.049 2.869 3.329 3.729 3.969 4.749
723.367 6.209 9.019 12.969 18.339 25.019 32.619 41.399 51.579 56.989 54.079
742.657 50.099 46.539 40.369 32.759 26.009 20.529 16.389 14.039 13.089 12.609
761.947 12.599 13.479 14.729 15.449 15.549 16.129 16.369 15.779 14.949 14.059
781.236 13.439 12.269 10.799 9.949 9.239 8.919 8.969 9.029 9.249 9.329
800.526 9.939 10.619 10.929 10.799 10.509 10.149 9.129 8.319 7.399 6.069
819.816 5.449 5.599 5.279 5.049 5.469 5.419 5.269 5.689 5.919 6.359
839.106 6.819 7.049 7.759 8.159 8.169 8.209 7.999 7.579 6.919 6.369
858.395 6.159 5.659 5.089 4.709 4.679 4.659 4.479 4.539 4.109 3.719
877.685 4.059 4.079 4.279 4.979 5.059 5.159 5.339 5.719 5.979 6.119
896.975 6.529 6.559 6.279 5.769 5.479 5.019 4.729 4.899 4.859 4.659
916.265 4.759 5.099 5.149 5.549 5.859 5.899 6.529 7.399 7.689 7.899
935.555 8.339 8.579 9.189 9.849 10.399 11.119 11.599 11.529 11.139 11.039
954.844 10.889 10.629 10.899 11.159 11.059 11.029 10.999 11.299 11.849 12.259
974.134 12.669 12.979 13.589 14.599 15.529 16.339 16.979 17.329 18.029 18.329
993.424 18.149 18.099 17.709 17.549 16.929 16.069 15.159 14.249 13.019 12.229
1012.714 12.169 11.329 10.939 11.209 11.649 12.259 13.109 13.469 13.009 12.839
1032.003 12.729 13.379 14.059 14.759 15.919 16.849 18.249 19.719 22.019 25.309
1051.293 28.869 33.309 39.169 46.049 52.839 59.919 67.149 72.969 75.759 75.729
1070.583 72.999 67.639 60.389 51.499 42.769 35.049 29.409 24.919 21.669 18.969
1089.873 17.399 16.769 15.909 16.219 16.599 15.119 14.219 14.819 15.039 15.179
1109.163 15.709 19.199 22.909 26.139 29.679 31.609 32.909 33.619 33.799 32.409
1128.452 30.189 27.739 25.989 26.849 28.709 31.479 35.159 41.199 49.779 59.629
1147.742 68.099 74.429 79.549 83.279 85.629 84.069 81.909 81.139 79.939 79.459
1167.032 78.159 75.129 71.589 68.139 64.319 60.869 58.449 55.749 54.189 54.109
1186.322 54.489 55.179 56.439 57.929 58.659 60.409 62.129 64.279 68.739 74.079
1205.611 78.949 83.529 91.459 102.509 113.169 121.369 127.689 133.159 136.899 138.689
1224.901 139.609 140.419 141.919 145.369 150.379 158.019 167.769 175.419 179.809 181.449
1244.191 178.949 172.239 161.169 147.869 133.759 118.969 107.549 99.079 93.049 89.589
1263.481 86.809 85.169 82.859 78.349 73.219 67.139 60.299 53.099 45.629 39.729
1282.771 34.899 31.159 28.719 27.119 26.609 26.399 27.009 28.489 30.559 33.509
1302.060 37.029 41.219 45.669 50.159 55.059 60.649 67.609 75.859 84.819 93.579
1321.350 100.929 105.099 104.669 100.229 92.249 82.239 72.669 65.419 61.299 59.589
1340.640 59.039 58.439 57.239 55.079 52.139 48.589 45.009 42.039 39.979 38.769
1359.930 37.949 37.439 36.849 36.329 35.469 33.999 31.999 29.179 25.999 22.719
1379.219 19.489 16.979 15.259 13.869 13.049 12.739 12.209 11.959 11.999 11.949
1398.509 12.019 12.339 12.879 13.559 14.579 15.889 17.629 19.929 22.349 24.879
1417.799 27.199 29.169 30.689 31.739 32.779 33.919 35.939 39.699 45.129 51.719
1437.089 59.829 68.129 75.239 80.129 82.149 81.589 77.879 71.089 62.329 52.739
1456.378 42.649 33.859 27.479 22.899 19.959 17.899 16.329 15.239 14.459 13.769
1475.668 13.229 12.739 12.189 11.759 11.549 11.449 11.539 11.629 11.489 11.279
1494.958 11.249 11.159 10.979 10.979 11.059 11.219 11.379 11.689 12.199 12.739
1514.248 13.669 14.669 15.939 17.649 19.679 22.129 25.089 28.329 32.119 36.759
1533.538 42.029 48.119 54.369 60.449 65.849 69.949 72.699 73.009 70.579 66.549
1552.827 61.209 54.569 47.869 41.409 36.019 31.739 28.059 25.259 23.379 22.169
1572.117 21.109 20.409 20.059 19.589 18.899 17.969 17.099 15.859 14.739 13.549
1591.407 12.299 11.639 10.819 10.019 9.489 9.119 8.809 8.309 8.009 7.999
1610.697 8.209 8.179 7.979 7.769 7.659 7.389 6.979 6.879 6.869 6.329
1629.986 5.959 5.919 5.739 5.489 5.399 5.649 5.789 5.799 5.899 6.149
1649.276 6.429 6.739 6.799 6.909 7.339 7.829 8.349 8.859 9.549 10.409
1668.566 11.229 11.829 12.239 12.969 13.949 14.919 16.009 16.899 17.659 18.589
1687.856 19.789 21.269 22.979 24.489 26.459 29.079 31.809 35.709 40.479 46.189
1707.146 53.429 63.119 75.179 89.899 107.399 126.249 144.879 159.759 169.659 174.329
1726.435 172.939 165.059 152.199 138.199 125.049 115.069 108.329 103.909 101.679 101.569
1745.725 102.809 103.619 103.439 102.359 100.379 97.559 94.289 91.329 88.809 86.019
1765.015 82.309 77.579 71.779 65.119 57.949 51.529 45.729 40.009 34.649 30.039
1784.305 26.099 22.579 19.639 17.319 15.579 14.249 13.059 12.049 11.239 10.549
1803.594 10.039 9.649 9.169 8.559 7.859 7.169 6.669 6.279 5.779 5.329
1822.884 5.129 4.879 4.819 4.749 4.549 4.539 4.449 4.249 4.299 4.309
1842.174 4.129 3.939 3.889 3.919 3.849 3.729 3.699 3.759 3.799 3.869
1861.464 3.859 3.809 3.889 3.839 3.669 3.569 3.649 3.499 3.409 3.389
1880.754 3.379 3.529 3.649 3.829 3.879 3.949 3.989 4.109 4.229 4.069
1900.043 3.929 3.769 3.539 3.299 3.159 3.069 2.859 2.729 2.849 2.969
1919.333 2.999 3.159 3.329 3.419 3.549 3.679 3.689 3.739 3.689 3.409
1938.623 3.099 2.849 2.699 2.519 2.429 2.459 2.499 2.569 2.559 2.609
1957.913 2.579 2.519 2.429 2.369 2.429 2.419 2.479 2.569 2.709 2.729
1977.202 2.559 2.499 2.549 2.499 2.679 2.849 2.639 2.659 2.709 2.789
1996.492 3.009 2.859 2.689 2.729 2.609 2.579 2.819 2.939 2.929 2.749
2015.782 2.799 2.999 2.849 2.729 2.679 2.639 2.639 2.539 2.519 2.419
2035.072 2.319 2.369 2.429 2.439 2.269 2.179 2.279 2.289 2.359 2.609
2054.362 2.489 2.309 2.499 2.599 2.579 2.509 2.459 2.489 2.469 2.549
2073.651 2.569 2.559 2.539 2.469 2.359 2.149 2.049 2.199 2.439 2.529
2092.941 2.519 2.479 2.349 2.299 2.249 2.259 2.269 2.219 2.179 2.009
2112.231 2.019 2.009 2.009 2.109 2.109 2.099 1.919 1.959 2.079 2.079
2131.521 2.029 1.959 2.039 2.089 1.959 1.969 1.899 1.749 1.789 1.909
2150.810 1.919 1.939 2.059 2.019 1.959 1.919 2.039 1.989 1.919 1.989
2170.100 1.859 1.969 1.969 1.809 1.799 1.629 1.629 1.799 1.829 1.659
2189.390 1.481 1.599 1.739 1.619 1.719 1.679 1.453 1.599 1.809 1.719
2208.680 1.599 1.499 1.4351 1.519 1.609 1.509 1.4878 1.569 1.519 1.559
2227.970 1.609 1.569 1.549 1.4881 1.569 1.879 1.949 1.769 1.689 1.729
2247.259 1.709 1.4154 1.379 1.4572 1.3737 1.4589 1.529 1.3912 1.369 1.4889
2266.549 1.4353 1.2805 1.2767 1.4737 1.3777 1.4766 1.549 1.539 1.609 1.589
2285.839 1.719 1.579 1.3959 1.4489 1.4437 1.354 1.3325 1.376 1.579 1.659
2305.129 1.4937 1.2851 1.2297 1.3497 1.3523 1.519 1.569 1.4091 1.4082 1.3353
2324.418 1.3095 1.2385 1.3515 1.659 1.619 1.539 1.519 1.4064 1.4654 1.569
2343.708 1.639 1.719 1.649 1.669 1.739 1.659 1.669 1.619 1.539 1.519
2362.998 1.4829 1.589 1.579 1.669 1.869 1.729 1.579 1.649 1.659 1.789
2382.288 1.879 1.569 1.529 1.869 1.909 1.819 1.749 1.799 1.899 1.879
2401.578 1.979 1.799 1.659 1.639 1.579 1.729 1.829 1.639 1.529 1.434
2420.867 1.599 1.659 1.4775 1.769 1.729 1.4824 1.559 1.749 1.799 1.799
2440.157 1.819 1.789 1.699 1.729 1.749 1.709 1.589 1.559 1.779 1.839
2459.447 1.809 1.839 1.689 1.499 1.669 1.869 2.049 2.159 2.059 1.919
2478.737 1.929 2.009 1.859 1.759 1.829 1.849 1.689 1.579 1.599 1.549
2498.026 1.499 1.599 1.659 1.659 1.519 1.4873 1.559 1.4817 1.4625 1.3554
2517.316 1.499 1.589 1.4648 1.4467 1.4921 1.609 1.579 1.539 1.629 1.769
2536.606 1.599 1.4032 1.4687 1.499 1.4303 1.4474 1.589 1.719 1.899 1.929
2555.896 1.999 1.899 1.649 1.809 1.969 1.909 1.899 1.979 1.999 2.059
2575.186 2.319 2.209 2.059 2.369 2.219 1.999 2.269 2.249 2.049 2.099
2594.475 2.159 2.049 2.079 2.169 2.219 2.159 1.909 1.859 2.129 2.099
2613.765 2.019 2.229 2.029 1.879 1.649 1.3356 1.3822 1.539 1.549 1.529
2633.055 1.619 1.709 1.789 1.749 1.559 1.559 1.599 1.569 1.4016 1.2986
2652.345 1.3905 1.519 1.699 1.819 1.689 1.519 1.729 1.899 1.789 1.539
2671.634 1.4701 1.629 1.809 1.549 1.509 1.739 1.549 1.374 1.549 1.819
2690.924 1.739 1.669 1.839 1.849 1.509 1.509 1.729 1.859 1.769 1.699
2710.214 1.749 1.629 1.529 1.539 1.639 1.789 1.699 1.519 1.619 1.599
2729.504 1.539 1.579 1.669 1.759 1.769 1.4033 1.167 1.3591 1.4678 1.659
2748.794 1.899 1.859 1.669 1.599 1.819 1.969 2.099 2.129 1.889 2.009
2768.083 2.019 2.019 2.169 1.799 1.4366 1.549 1.919 2.079 1.949 1.989
2787.373 1.969 1.759 2.039 2.159 1.909 1.919 1.879 1.959 2.039 1.949
2806.663 2.119 2.209 1.949 2.229 2.779 2.819 2.779 2.759 2.889 3.229
2825.953 3.329 3.529 3.799 3.899 4.419 4.869 5.219 6.049 6.749 7.239
2845.242 8.169 8.679 8.439 8.519 8.189 7.579 7.329 6.949 6.469 6.049
2864.532 5.769 5.589 5.359 5.019 4.779 4.759 4.789 4.819 4.899 5.159
2883.822 5.379 5.569 5.819 5.979 6.399 6.629 6.789 7.019 7.319 7.769
2903.112 7.929 8.249 8.129 7.989 8.229 8.629 9.079 9.029 8.899 8.829
2922.401 8.779 8.599 8.619 8.499 8.529 8.899 9.309 9.689 9.939 10.979
2941.691 12.349 13.879 16.359 19.639 23.729 28.649 34.499 40.529 45.029 47.329
2960.981 47.499 44.869 39.969 34.039 27.609 21.779 17.699 15.159 13.389 12.259
2980.271 11.329 10.559 10.419 10.699 10.869 10.899 10.979 11.309 11.629 11.649
2999.561 11.789 12.059 12.209 12.019 11.559 11.559 11.259 10.609 10.479 10.119
3018.850 9.919 10.039 10.019 10.369 10.529 10.449 10.579 10.519 10.409 10.579
3038.140 10.489 10.379 10.579 10.339 10.279 10.489 10.809 11.079 11.329 12.199
3057.430 13.229 14.709 16.229 17.759 19.479 20.579 20.969 20.439 19.039 17.349
3076.720 15.599 13.669 11.879 10.609 9.709 9.069 8.959 8.949 8.389 8.039
3096.009 7.979 7.269 6.379 5.699 5.049 4.719 4.499 4.019 3.549 3.409
3115.299 3.269 3.269 3.229 3.119 2.919 2.999 3.149 2.689 2.329 2.169
3134.589 2.369 2.509 2.409 2.609 2.729 2.439 2.189 2.299 2.289 2.619
3153.879 2.979 2.699 2.399 2.299 2.199 2.089 2.459 2.299 1.969 1.819
3173.169 1.669 1.559 1.2519 1.3935 1.2624 1.414 1.619 1.308 1.3048 1.2283
3192.458 1.1748 1.3479 1.0541 0.7771 0.8799 1.0995 1.4372 1.3845 1.0856 1.2026
3211.748 1.3589 1.4636 1.2493 1.4726 1.4978 0.8351 0.909 1.1349 0.8795 0.8612
3231.038 0.9331 1.0824 1.3804 1.1677 0.9907 1.2342 0.9766 0.766 1.639 1.689
3250.328 1.1604 1.4452 1.639 1.3944 1.2991 0.8975 0.7655 0.9908 0.9901 1.0116
3269.617 1.0295 1.0352 1.0559 1.3711 1.3581 1.103 1.3822 1.3387 1.076 1.0037
3288.907 1.0216 1.1315 0.9564 0.9065 0.8472 1.1035 1.769 1.839 1.609 1.4317
3308.197 1.226 1.15 0.9943 0.774 0.6199 0.7407 1.1451 1.2098 0.9941 1.088
3327.487 1.4424 1.649 1.4136 1.0117 1.0546 1.0273 0.833 0.9075 0.8218 1.0815
3346.777 1.3161 0.8308 1.262 1.779 1.2262 1.1358 0.8876 0.56268 0.8808 1.2215
3366.066 1.3975 1.649 1.619 1.2577 1.2624 1.4843 1.3756 1.1861 1.1601 1.0466
3385.356 1.1536 1.452 1.699 1.979 1.969 1.589 1.599 1.739 1.599 1.609
3404.646 1.659 1.559 1.3687 1.689 2.109 1.889 2.049 2.479 2.909 3.039
3423.936 3.189 3.419 3.449 3.829 4.189 3.959 3.949 4.629 5.009 4.949
3443.225 5.069 5.589 6.149 7.049 8.169 9.329 10.329 11.179 12.779 15.289
3462.515 17.739 20.439 24.509 28.769 33.559 39.169 44.049 47.599 49.759 49.989
3481.805 47.639 43.749 38.339 32.149 27.119 23.999 22.389 21.429 20.909 20.339
3501.095 19.459 17.849 15.959 13.589 10.739 8.139 6.089 4.699 3.719 3.289
3520.385 3.059 2.789 2.689 2.719 2.699 2.559 2.079 1.639 1.639 1.659
3539.674 1.879 1.789 1.669 1.809 1.689 1.579 1.549 1.1905 0.8671 0.9745
3558.964 0.8176 0.9293 1.1532 1.0927 0.9132 0.8939 0.8323 0.7867 1.3628 1.387
3578.254 0.8595 0.9431 1.1228 1.2115 1.06 0.9801 1.1497 1.0148 0.7564 1.0939
3597.544 1.0709 0.8132 1.0787 1.0684 0.7896 0.57478 0.54846 0.53898 0.57817 0.6739
3616.833 0.58107 0.459 0.53477 0.59895 0.8537 0.8739 0.4724 0.58387 1.0546 0.8685
3636.123 1.0369 1.619 1.4381 1.2479 0.8577 0.6148 0.8241 0.8439 0.7569 0.773
3655.413 0.8071 0.73 0.6668 0.391 0.119 0.205 0.52548 0.55964 0.6448 0.53924
3674.703 0.397 0.58543 0.6857 0.7993 1.0089 1.1835 1.0615 1.0365 0.7676 0.6425
3693.993 1.118 1.2394 0.9465 0.6301 0.7177 1.1485 1.1629 0.9899 0.8299 0.6145
3713.282 0.7471 0.9333 1 0.9558 0.8325 0.7336 0.8848 0.9992 1.0848 1.2372
3732.572 1.4899 1.3966 1.1688 1.699 1.549 0.9183 1.2004 1.0889 0.6599 0.7061
3751.862 0.439 0.9947 1.569 1.2972 1.0075 1.0298 1.2777 0.9118 0.483 0.8312
3771.152 1.162 1.1349 1.0602 1 1.0508 0.876 0.8014 1.0797 1.1025 1.0989
3790.441 0.935 0.7093 0.8715 0.8679 0.7526 0.5711 0.8729 1.2981 1.2948 1.2341
3809.731 1.3523 1.1789 0.9989 0.8671 0.8823 1.2047 0.9987 0.8364 0.898 0.9829
3829.021 1.0402 1.1308 0.9027 0.63 0.8175 0.8899 1.064 1.2466 1.416 1.3722
3848.311 1.2269 0.935 0.7886 0.9547 0.8204 0.8844 0.9791 1.0904 1.3317 1.659
3867.601 1.509 1.1006 0.8214 0.8348 1.1999 1.499 1.2051 0.9088 0.8772 0.8855
3886.890 1.001 1.1171 0.6598 0 0.268 0.48977 0.9587 1.3442 1.1512 1.1322
3906.180 1.539 1.829 1.2332 0.8075 1.1214 1.4883 1.1366 0.8362 0.9279 0.8551
3925.470 1.2705 1.789 1.529 1.1092 1.2047 1.111 1.2505 1.4584 1.1922 0.9588
3944.760 1.2893 1.4582 1.026 1.3555 1.599 1.1231 1.2647 1.619 1.4944 1.3622
3964.049 1.271 1.3358 1.3481 1.4184 1.3661 1.1002 1.2922 1.519 1.3853 0.835
3983.339 0.7053 1.1143 1.15 1.2509 1.509 1.619 1.519 1.559 1.499 1.1708
##END=
