##TITLE=4-Methyloctanoic acid
##JCAMP-DX=4.24
##DATA TYPE=INFRARED SPECTRUM
##ORIGIN=EPA-IR VAPOR PHASE LIBRARY
##OWNER=SRD/NIST
Collection (C) 2018 copyright by the U.S. Secretary of Commerce
on behalf of the United States of America. All rights reserved.
##CAS REGISTRY NO=54947-74-9
##MOLFORM=C 9 H 18 O 2
##$NIST SOURCE=MSDC-IR
##STATE=gas
##XUNITS=1/CM
##YUNITS=ABSORBANCE
##XFACTOR=1.
##YFACTOR=0.001
##DELTAX=1.92898
##FIRSTX=549.8
##LASTX=4000.7
##FIRSTY=4.545
##MAXX=4000.7
##MINX=549.759
##MAXY=0.034915
##MINY=0
##NPOINTS=1790
##XYDATA=(X++(Y..Y))
549.759 4.545 5.065 4.975 4.865 5.275 5.415 5.805 6.275 6.275 6.415
569.049 6.295 5.955 5.935 5.965 5.835 5.875 5.825 5.695 5.445 5.785
588.339 6.235 6.095 6.135 5.965 6.115 6.275 6.295 6.515 6.755 6.775
607.628 6.435 6.415 6.465 6.325 6.465 6.275 5.815 6.075 5.965 5.705
626.918 5.735 5.625 5.535 5.175 4.815 4.645 4.385 4.065 3.825 3.455
646.208 3.215 3.035 3.025 3.025 2.675 2.515 2.565 2.495 2.425 2.355
665.498 2.165 1.955 1.945 2.025 2.015 2.035 1.965 1.935 1.805 1.695
684.787 1.875 1.845 1.795 1.715 1.565 1.625 1.695 1.595 1.615 1.835
704.077 1.695 1.615 1.725 1.715 1.555 1.575 1.695 1.545 1.505 1.425
723.367 1.445 1.545 1.635 1.615 1.565 1.495 1.335 1.415 1.575 1.245
742.657 1.0411 1.275 1.1761 1.111 1.0748 1.0438 1.0955 1.0452 1.0617 1.1368
761.947 1.365 1.485 1.405 1.525 1.395 1.355 1.635 1.535 1.255 1.365
781.236 1.505 1.505 1.535 1.465 1.315 1.205 1.0074 0.8089 0.9542 1.0005
800.526 0.8938 0.6953 0.5732 0.6065 0.5768 0.8244 0.8235 0.6227 0.5614 0.5923
819.816 0.6053 0.4727 0.4245 0.5948 0.675 0.5389 0.6759 0.7867 0.5631 0.3223
839.106 0.363 0.5312 0.3951 0.28325 0.5373 0.697 0.4754 0.4631 0.5456 0.6444
858.395 0.806 0.777 0.6129 0.5325 0.7542 0.9503 0.9693 0.9527 0.9101 0.6661
877.685 0.8436 1.0318 1.0201 1.0496 1.0324 1.0559 1.0103 1.0872 0.9153 0.9329
896.975 1.275 1.325 1.295 1.195 0.9907 0.98 1.1588 1.305 1.325 1.1487
916.265 1.255 1.505 1.315 1.1437 1.205 1.245 1.1513 1.1571 1.255 1.335
935.555 1.315 1.365 1.565 1.495 1.205 1.195 1.395 1.385 1.295 1.255
954.844 1.365 1.265 1.1442 1.305 1.295 1.325 1.365 1.215 1.1175 1.0549
974.134 1.1442 1.1205 0.9541 1.0754 1.1483 0.9987 1.1123 1.1648 1.1526 1.325
993.424 1.315 1.425 1.505 1.525 1.445 1.405 1.595 1.695 1.725 1.665
1012.714 1.585 1.585 1.895 1.925 1.715 1.775 2.045 2.205 2.045 2.365
1032.003 2.765 2.695 2.325 2.295 2.775 3.175 3.335 3.195 3.275 3.545
1051.293 3.765 4.035 4.215 4.725 5.145 5.255 5.625 5.865 6.035 6.305
1070.583 6.745 7.085 7.485 8.355 9.205 9.485 9.805 11.395 12.735 13.035
1089.873 13.795 14.785 15.545 16.375 16.855 17.055 17.225 17.285 17.365 16.885
1109.163 16.355 16.265 16.075 15.315 14.455 14.475 14.565 14.495 14.795 14.655
1128.452 14.795 15.185 15.025 14.865 14.975 14.725 14.115 14.055 13.895 13.355
1147.742 12.805 12.345 11.845 11.285 10.765 10.395 9.945 9.505 8.965 8.305
1167.032 7.925 7.455 7.115 6.555 6.045 6.075 5.745 5.285 5.155 5.105
1186.322 4.805 4.655 4.675 4.395 4.435 4.825 5.205 5.225 4.495 3.825
1205.611 3.815 4.005 3.845 3.925 4.025 3.635 3.205 2.945 2.925 2.605
1224.901 2.665 2.715 2.715 3.095 3.235 3.135 3.185 3.385 2.905 2.535
1244.191 2.765 2.915 2.885 2.955 3.125 3.055 2.895 3.005 3.175 3.095
1263.481 3.085 3.225 3.385 3.375 3.215 3.275 3.245 3.105 3.055 3.115
1282.771 3.015 2.895 2.955 3.015 2.975 2.795 2.765 2.815 2.875 2.895
1302.060 2.805 2.795 2.825 2.825 2.795 2.825 2.855 2.715 2.685 2.785
1321.350 2.875 2.945 2.995 3.015 3.095 3.225 3.425 3.595 3.655 3.765
1340.640 3.925 4.125 4.275 4.385 4.565 4.695 4.745 4.865 4.935 4.975
1359.930 5.045 5.075 5.175 5.295 5.455 5.635 5.795 6.075 6.355 6.565
1379.219 6.775 6.885 6.855 6.785 6.535 6.145 5.705 5.195 4.725 4.305
1398.509 3.835 3.405 3.135 2.945 2.785 2.615 2.475 2.455 2.435 2.385
1417.799 2.345 2.335 2.385 2.425 2.495 2.575 2.645 2.705 2.725 2.725
1437.089 2.825 2.935 3.015 3.125 3.285 3.515 3.745 3.975 4.305 4.605
1456.378 4.875 5.095 5.145 5.185 5.185 4.975 4.685 4.455 4.115 3.755
1475.668 3.385 2.965 2.625 2.335 2.095 1.875 1.635 1.395 1.245 1.1446
1494.958 1.0894 1.0761 1.0106 0.9643 0.969 0.919 0.8493 0.765 0.6856 0.6901
1514.248 0.6793 0.6738 0.6546 0.6692 0.6871 0.6385 0.5709 0.5084 0.5042 0.4891
1533.538 0.4598 0.4851 0.4149 0.3271 0.3581 0.4166 0.3981 0.3845 0.4515 0.5
1552.827 0.4943 0.4629 0.3963 0.359 0.4059 0.4152 0.3889 0.4312 0.4231 0.4013
1572.117 0.4314 0.3924 0.33 0.3898 0.4191 0.336 0.3527 0.3839 0.3709 0.3185
1591.407 0.3338 0.3385 0.3266 0.3307 0.3403 0.3844 0.3692 0.3583 0.3904 0.4149
1610.697 0.395 0.374 0.381 0.3354 0.2956 0.32 0.3643 0.4031 0.3739 0.3486
1629.986 0.351 0.3863 0.4567 0.3992 0.3389 0.3811 0.3473 0.3337 0.4367 0.4729
1649.276 0.457 0.4899 0.4687 0.4598 0.4633 0.4176 0.4296 0.4996 0.5269 0.4344
1668.566 0.4323 0.5747 0.6162 0.6159 0.6434 0.6467 0.6808 0.686 0.6969 0.7399
1687.856 0.7739 0.8575 0.9027 0.9278 0.9819 1.0373 1.1361 1.185 1.255 1.385
1707.146 1.485 1.575 1.695 1.885 2.055 2.235 2.465 2.705 2.955 3.255
1726.435 3.635 4.035 4.515 4.995 5.455 6.015 6.655 7.375 8.095 8.865
1745.725 9.735 10.655 11.645 12.765 13.955 15.215 16.745 18.525 20.495 22.625
1765.015 24.925 27.385 29.805 31.885 33.535 34.595 34.915 34.495 33.325 31.525
1784.305 29.245 26.725 24.205 21.705 19.415 17.465 15.695 14.145 12.815 11.485
1803.594 10.295 9.245 8.255 7.265 6.355 5.625 4.975 4.335 3.805 3.355
1822.884 2.955 2.635 2.315 2.035 1.935 1.805 1.565 1.395 1.305 1.235
1842.174 1.1544 1.0678 0.9172 0.8087 0.7664 0.7454 0.7248 0.6833 0.6747 0.6697
1861.464 0.6657 0.6496 0.6144 0.5969 0.5564 0.5344 0.5598 0.5195 0.4658 0.46
1880.754 0.4716 0.4852 0.4792 0.4277 0.3708 0.4192 0.4673 0.4233 0.3878 0.3861
1900.043 0.3685 0.3839 0.4318 0.4557 0.4373 0.4181 0.392 0.383 0.3999 0.3655
1919.333 0.3544 0.3678 0.3599 0.4001 0.4288 0.3374 0.295 0.3479 0.3987 0.4248
1938.623 0.3815 0.3439 0.349 0.3596 0.3086 0.323 0.4374 0.4016 0.3494 0.3307
1957.913 0.24265 0.26549 0.3058 0.27852 0.2929 0.3788 0.3991 0.343 0.292 0.25251
1977.202 0.3017 0.3014 0.26382 0.287 0.3216 0.3307 0.2921 0.26083 0.2966 0.2877
1996.492 0.23737 0.28494 0.2952 0.26973 0.26587 0.24153 0.26237 0.23438 0.22405 0.2982
2015.782 0.3505 0.3109 0.27879 0.2977 0.2445 0.2292 0.2543 0.25253 0.26363 0.25014
2035.072 0.21645 0.24146 0.25049 0.21817 0.21255 0.17523 0.1663 0.19951 0.22106 0.24155
2054.362 0.22637 0.21696 0.23465 0.25493 0.27952 0.22088 0.192997 0.22402 0.27166 0.307
2073.651 0.2881 0.2858 0.22912 0.21082 0.27143 0.2876 0.26996 0.26164 0.25915 0.24698
2092.941 0.26099 0.24046 0.23148 0.24293 0.24822 0.3413 0.3986 0.3478 0.22705 0.22952
2112.231 0.2915 0.2876 0.2936 0.2891 0.2937 0.3144 0.26694 0.25725 0.3022 0.28427
2131.521 0.2626 0.24744 0.2952 0.3369 0.3639 0.3494 0.3122 0.28157 0.194539 0.24886
2150.810 0.3386 0.3304 0.3137 0.2585 0.22243 0.2867 0.3516 0.3072 0.27814 0.3177
2170.100 0.3421 0.3011 0.281 0.28321 0.2575 0.24892 0.26322 0.3072 0.3096 0.3132
2189.390 0.3407 0.26333 0.27896 0.3763 0.3005 0.25823 0.2908 0.27248 0.2892 0.3471
2208.680 0.3277 0.2957 0.3415 0.3832 0.3139 0.27263 0.3205 0.3015 0.316 0.3748
2227.970 0.346 0.3598 0.3721 0.2874 0.22654 0.27579 0.3181 0.3017 0.3039 0.3648
2247.259 0.4285 0.3725 0.2988 0.3031 0.3473 0.3402 0.2927 0.26024 0.24246 0.3161
2266.549 0.3309 0.2992 0.2798 0.25749 0.327 0.3871 0.3962 0.3536 0.3037 0.25363
2285.839 0.2337 0.25929 0.25107 0.26148 0.2875 0.2945 0.2367 0.172 0.21059 0.23379
2305.129 0.25995 0.28139 0.27674 0.28162 0.23522 0.24355 0.3584 0.3515 0.27803 0.3226
2324.418 0.3415 0.3222 0.2882 0.20306 0.21516 0.26629 0.3156 0.3531 0.2894 0.25674
2343.708 0.27739 0.3454 0.3377 0.25065 0.22455 0.3169 0.3148 0.24238 0.20512 0.21591
2362.998 0.25069 0.25222 0.31 0.3093 0.3034 0.2885 0.23091 0.24052 0.3085 0.287
2382.288 0.26218 0.25349 0.25833 0.32 0.3315 0.3205 0.3137 0.26392 0.23101 0.26644
2401.578 0.23059 0.20727 0.25473 0.23256 0.28086 0.3689 0.3728 0.3455 0.3046 0.26695
2420.867 0.2928 0.3182 0.3189 0.25804 0.3035 0.41 0.3221 0.27372 0.3159 0.2867
2440.157 0.2898 0.3549 0.326 0.28084 0.2963 0.27354 0.24222 0.26438 0.2967 0.3317
2459.447 0.3148 0.3009 0.3215 0.3534 0.3514 0.26202 0.22519 0.22839 0.24783 0.2942
2478.737 0.3266 0.3052 0.3147 0.29 0.21193 0.27478 0.347 0.3664 0.3302 0.332
2498.026 0.2985 0.26652 0.3166 0.3288 0.3634 0.2972 0.2543 0.2963 0.3322 0.328
2517.316 0.27093 0.3619 0.4386 0.4533 0.4312 0.3066 0.3064 0.27984 0.2543 0.3028
2536.606 0.27936 0.26889 0.25354 0.25913 0.3256 0.3762 0.3732 0.3068 0.2909 0.3726
2555.896 0.3801 0.3508 0.2919 0.28489 0.3634 0.4344 0.3984 0.3526 0.3387 0.25779
2575.186 0.3555 0.4233 0.3714 0.429 0.4717 0.4301 0.4486 0.4989 0.4301 0.3986
2594.475 0.3895 0.4061 0.4387 0.3805 0.3563 0.376 0.4602 0.4882 0.4427 0.3938
2613.765 0.4256 0.5027 0.404 0.27098 0.2986 0.378 0.4597 0.4776 0.4713 0.4154
2633.055 0.4131 0.5259 0.5176 0.506 0.5239 0.4689 0.3664 0.4083 0.4621 0.4772
2652.345 0.4882 0.4196 0.4932 0.5609 0.4958 0.4559 0.4776 0.5351 0.5262 0.5058
2671.634 0.4504 0.4413 0.536 0.5028 0.5222 0.5586 0.4621 0.5129 0.6103 0.5266
2690.924 0.4858 0.4698 0.5302 0.5422 0.4967 0.4943 0.504 0.5772 0.5959 0.6268
2710.214 0.5798 0.5542 0.5846 0.624 0.6468 0.6589 0.6348 0.5518 0.6167 0.6744
2729.504 0.6887 0.7543 0.7149 0.7346 0.8296 0.8238 0.8305 0.8721 0.8564 0.8815
2748.794 0.8832 0.8777 0.806 0.7092 0.76 0.7448 0.6906 0.7633 0.7725 0.7157
2768.083 0.6644 0.6751 0.7579 0.7595 0.8576 0.9785 0.8879 0.8534 0.8768 0.8865
2787.373 0.8681 0.8585 0.9423 0.9868 1.033 1.175 1.225 1.1619 1.1725 1.265
2806.663 1.235 1.235 1.255 1.285 1.455 1.535 1.585 1.705 1.735 1.775
2825.953 2.005 2.075 2.075 2.165 2.365 2.515 2.735 3.025 3.395 3.795
2845.242 3.995 4.345 4.875 5.545 6.195 6.735 7.455 8.235 8.855 9.505
2864.532 10.175 10.845 11.485 11.935 12.415 12.825 12.985 13.145 13.275 13.245
2883.822 13.135 12.765 12.365 12.035 11.615 11.245 10.955 10.785 10.855 11.255
2903.112 11.775 12.265 12.875 13.655 14.625 15.635 16.745 18.045 19.365 20.765
2922.401 22.195 23.825 25.255 26.425 27.495 28.225 28.695 28.765 28.385 27.605
2941.691 26.575 25.465 24.425 23.345 22.315 21.765 21.595 21.795 22.515 23.515
2960.981 24.845 26.245 27.365 27.735 27.395 26.395 24.595 22.335 19.645 16.785
2980.271 14.065 11.715 9.855 8.425 7.305 6.375 5.715 5.175 4.695 4.325
2999.561 3.955 3.565 3.325 3.205 2.875 2.665 2.575 2.345 2.185 1.995
3018.850 1.915 1.955 1.855 1.795 1.775 1.595 1.535 1.475 1.445 1.445
3038.140 1.365 1.405 1.285 1.177 1.215 1.1655 1.1101 1.004 0.9909 1.038
3057.430 1.0601 1.1076 1.01 0.9486 0.9333 0.8374 0.7699 0.7645 0.828 0.8184
3076.720 0.8633 0.987 0.9741 0.9372 0.9486 0.8229 0.724 0.7957 0.768 0.7483
3096.009 0.8591 0.8641 0.6461 0.4921 0.6061 0.8201 0.7552 0.7188 0.7305 0.6165
3115.299 0.6922 0.7098 0.6453 0.5812 0.5806 0.6557 0.5986 0.5609 0.6479 0.6176
3134.589 0.4769 0.3875 0.356 0.3856 0.4088 0.3526 0.386 0.4781 0.458 0.4976
3153.879 0.4753 0.3572 0.5782 0.7708 0.6551 0.4741 0.4632 0.5225 0.5289 0.4817
3173.169 0.4579 0.5349 0.531 0.5323 0.3769 0.1624 0.2854 0.4802 0.3814 0.337
3192.458 0.386 0.3421 0.3595 0.4178 0.4417 0.3624 0.3414 0.3458 0.3125 0.3708
3211.748 0.4965 0.5066 0.3336 0.3519 0.3981 0.3551 0.3152 0.3869 0.4025 0.2539
3231.038 0.3126 0.3805 0.19802 0.0961 0.25194 0.26333 0.27381 0.3778 0.3918 0.315
3250.328 0.28156 0.3917 0.4661 0.4742 0.4416 0.3552 0.19653 0.2381 0.4061 0.4176
3269.617 0.3739 0.3144 0.3742 0.3895 0.27986 0.26616 0.21778 0.23698 0.3375 0.3331
3288.907 0.3178 0.23692 0.1681 0.19647 0.26328 0.325 0.3334 0.28382 0.24074 0.25585
3308.197 0.24462 0.1154 0.1252 0.24627 0.1681 0.23362 0.3558 0.2977 0.25724 0.3724
3327.487 0.3658 0.21325 0.22533 0.24854 0.3271 0.3102 0.3653 0.3297 0.0856 0.073
3346.777 0.20421 0.2963 0.3216 0.3025 0.2634 0.3424 0.3092 0.28305 0.2981 0.18091
3366.066 0.1019 0.21706 0.3941 0.4509 0.3932 0.3027 0.3117 0.17 0.1723 0.3189
3385.356 0.3268 0.2942 0.27137 0.2876 0.2867 0.24985 0.23808 0.348 0.291 0.179
3404.646 0.19515 0.24273 0.3213 0.2965 0.23086 0.21921 0.3222 0.4195 0.3866 0.2972
3423.936 0.25639 0.21641 0.19922 0.23757 0.2999 0.3053 0.184581 0.1628 0.1163 0.20543
3443.225 0.3479 0.4697 0.4618 0.31 0.25675 0.25872 0.3504 0.28041 0.1727 0.18209
3462.515 0.2911 0.393 0.4465 0.4691 0.3755 0.3148 0.2874 0.27865 0.28058 0.3386
3481.805 0.3543 0.26522 0.3055 0.4761 0.4554 0.2867 0.3138 0.356 0.3038 0.3199
3501.095 0.3668 0.2922 0.363 0.4317 0.4199 0.4691 0.4894 0.5855 0.5427 0.4969
3520.385 0.7431 0.82 0.6719 0.6816 0.6515 0.7272 0.8915 0.9386 0.8962 0.8568
3539.674 0.8967 0.9572 1.0573 1.1258 1.315 1.395 1.385 1.665 1.995 2.455
3558.964 3.105 3.815 4.865 6.485 8.675 11.195 13.125 14.045 14.355 14.175
3578.254 13.465 12.025 9.785 7.355 5.285 3.865 2.955 2.455 2.155 1.825
3597.544 1.475 1.275 1.16 0.9204 0.9284 1.1772 1.0782 0.7479 0.5903 0.5685
3616.833 0.6228 0.671 0.6545 0.5525 0.5814 0.4867 0.3604 0.4375 0.4126 0.4703
3636.123 0.3703 0.2082 0.3165 0.3748 0.32 0.2936 0.25031 0.26297 0.4092 0.3437
3655.413 0.0857 0.047 0.1673 0.2734 0.3333 0.4205 0.5014 0.5118 0.5238 0.4445
3674.703 0.2762 0.24272 0.3378 0.372 0.363 0.3103 0.2909 0.3289 0.3394 0.3005
3693.993 0.3161 0.3709 0.4378 0.3858 0.3601 0.4095 0.2935 0.26992 0.4335 0.3879
3713.282 0.291 0.3214 0.2853 0.3343 0.2521 0.27867 0.4224 0.3918 0.4009 0.26504
3732.572 0.165 0.22929 0.4226 0.4053 0.21851 0.3414 0.3739 0.3181 0.3292 0.3099
3751.862 0.286 0.21811 0.21286 0.4308 0.462 0.4064 0.23913 0 0.083 0.1063
3771.152 0.193104 0.3724 0.4096 0.3633 0.25528 0.1992 0.17681 0.3398 0.3944 0.3685
3790.441 0.4773 0.4472 0.3498 0.4028 0.4973 0.3392 0.24877 0.4228 0.4464 0.4606
3809.731 0.56 0.4472 0.20173 0.1325 0.25425 0.3109 0.3477 0.3005 0.20379 0.25795
3829.021 0.22771 0.1273 0.20734 0.3663 0.4448 0.4089 0.3636 0.3238 0.3727 0.4559
3848.311 0.3751 0.3218 0.3262 0.4415 0.5483 0.3054 0.23305 0.4241 0.3682 0.2733
3867.601 0.2923 0.28491 0.305 0.3453 0.3697 0.275 0.20975 0.23443 0.145 0.0885
3886.890 0.25242 0.3283 0.1744 0.17557 0.3172 0.333 0.341 0.5053 0.5724 0.4593
3906.180 0.4067 0.3899 0.3935 0.2868 0.1498 0.183 0.308 0.3599 0.21551 0.23693
3925.470 0.3838 0.3105 0.344 0.4152 0.4703 0.4483 0.4636 0.5487 0.27076 0.1299
3944.760 0.24392 0.18342 0.17967 0.3917 0.4453 0.4471 0.3543 0.22078 0.3718 0.4669
3964.049 0.5157 0.5536 0.4526 0.4947 0.4835 0.3746 0.3261 0.3886 0.3019 0.22033
3983.339 0.3301 0.3152 0.3562 0.4245 0.5399 0.6072 0.5994 0.7247 0.7033 0.5491
##END=
