##TITLE=Methyl 3-(4-chlorophenylthio)-2-methylpropionate
##JCAMP-DX=4.24
##DATA TYPE=INFRARED SPECTRUM
##ORIGIN=EPA-IR VAPOR PHASE LIBRARY
##OWNER=SRD/NIST
Collection (C) 2018 copyright by the U.S. Secretary of Commerce
on behalf of the United States of America. All rights reserved.
##CAS REGISTRY NO=55009-84-2
##MOLFORM=C 11 H 13 Cl O 2 S
##$NIST SOURCE=MSDC-IR
##STATE=gas
##XUNITS=1/CM
##YUNITS=ABSORBANCE
##XFACTOR=1.
##YFACTOR=0.001
##DELTAX=1.92898
##FIRSTX=549.8
##LASTX=4000.7
##FIRSTY=8.364
##MAXX=4000.7
##MINX=549.759
##MAXY=0.161914
##MINY=0
##NPOINTS=1790
##XYDATA=(X++(Y..Y))
549.759 8.364 7.154 6.394 5.404 4.224 3.454 2.814 2.504 2.194 1.804
569.049 1.814 1.654 1.424 1.284 1.1436 1.184 1.334 1.304 1.224 1.077
588.339 0.9352 1.234 1.374 1.274 1.384 1.434 1.234 1.0752 1.0988 1.324
607.628 1.394 1.204 1.214 1.384 1.404 1.374 1.334 1.304 1.334 1.394
626.918 1.494 1.714 1.844 2.004 2.234 2.224 2.204 2.194 2.214 2.324
646.208 2.374 2.474 2.434 2.594 2.704 2.424 2.234 2.114 2.174 2.114
665.498 1.984 2.014 1.914 1.954 1.834 1.714 1.844 1.724 1.674 1.854
684.787 1.814 1.684 1.704 1.684 1.804 1.934 1.824 1.794 1.924 1.974
704.077 1.914 2.054 2.184 2.114 2.064 2.164 2.344 2.414 2.624 2.904
723.367 3.224 3.594 3.854 4.274 4.744 5.364 6.294 7.484 8.904 10.274
742.657 11.264 11.634 11.614 11.224 10.344 9.384 8.674 8.284 8.024 7.704
761.947 7.434 7.124 6.934 6.924 6.884 6.674 6.564 6.674 6.814 7.154
781.236 7.484 7.824 8.194 8.844 9.544 10.204 11.314 12.744 14.404 16.084
800.526 18.144 20.824 23.784 27.274 31.104 35.064 39.014 42.534 45.704 48.074
819.816 48.854 47.934 45.554 41.624 36.404 31.114 26.414 22.314 18.874 16.244
839.106 14.164 12.574 11.434 10.464 9.594 8.904 8.554 8.264 8.004 7.794
858.395 7.634 7.514 7.174 6.894 6.814 6.854 6.824 6.504 6.164 6.034
877.685 6.014 5.844 5.754 5.834 5.794 5.614 5.464 5.434 5.684 6.094
896.975 6.504 7.014 7.514 7.924 8.124 8.104 8.184 7.894 7.234 6.754
916.265 6.224 5.664 5.084 4.484 4.034 3.654 3.224 3.054 2.814 2.534
935.555 2.524 2.414 2.224 2.094 2.024 2.094 2.074 1.774 1.854 2.054
954.844 2.134 2.184 2.094 2.344 2.674 2.834 2.994 3.314 3.834 4.204
974.134 4.624 5.254 5.964 6.674 7.354 8.024 8.474 8.774 8.844 8.914
993.424 9.034 8.934 8.934 9.694 11.324 14.154 19.504 28.804 41.554 52.194
1012.714 56.294 55.894 51.114 39.814 27.224 20.094 17.784 17.584 18.214 19.294
1032.003 20.674 22.254 24.094 25.904 27.684 28.844 29.324 29.864 29.934 29.624
1051.293 29.274 28.854 28.614 28.294 28.054 28.094 28.104 27.844 27.564 27.524
1070.583 27.374 27.164 27.164 27.024 27.554 29.514 33.014 38.254 46.314 57.954
1089.873 74.374 95.014 114.054 127.314 131.804 125.894 111.564 92.654 75.474 63.314
1109.163 55.604 51.054 47.724 45.204 42.914 40.504 38.524 36.584 35.084 34.134
1128.452 33.484 33.584 34.144 34.954 36.244 38.344 41.434 44.874 48.944 53.804
1147.742 59.554 66.294 73.854 82.094 90.614 99.204 106.824 112.804 117.004 118.804
1167.032 117.724 114.304 109.404 103.444 97.404 91.594 86.534 82.144 78.604 76.174
1186.322 74.554 73.984 73.844 73.974 74.434 75.014 75.744 76.404 76.234 75.954
1205.611 75.654 74.614 73.244 72.314 71.174 69.514 67.884 66.184 65.044 64.274
1224.901 63.204 62.414 61.974 61.474 60.634 59.434 58.284 57.244 56.264 55.304
1244.191 54.444 53.964 53.424 52.514 51.564 50.164 48.314 46.564 44.774 42.534
1263.481 40.474 38.734 37.134 35.724 34.254 32.694 30.804 28.704 26.604 24.434
1282.771 22.444 21.004 19.864 19.004 18.634 18.594 18.714 18.944 19.334 19.784
1302.060 20.144 20.364 20.564 20.674 20.634 20.544 20.484 20.494 20.564 20.714
1321.350 20.924 21.204 21.594 22.054 22.654 23.414 24.234 25.144 26.124 26.994
1340.640 27.624 28.024 28.174 27.944 27.474 26.754 25.854 24.944 24.054 23.224
1359.930 22.394 21.514 20.684 19.864 19.244 19.004 19.024 19.434 20.194 21.094
1379.219 22.034 22.664 22.904 22.704 21.974 20.834 19.354 17.784 16.244 14.914
1398.509 13.874 13.104 12.664 12.524 12.644 12.964 13.514 14.264 15.064 15.924
1417.799 16.894 17.984 19.154 20.534 22.204 24.104 26.434 29.204 32.364 35.284
1437.089 37.264 38.014 37.484 35.594 32.904 30.674 29.514 29.254 29.864 31.174
1456.378 33.094 35.554 38.454 42.144 46.804 52.814 60.944 72.024 85.854 100.184
1475.668 109.524 109.844 101.644 86.604 66.054 45.554 30.954 22.384 17.294 14.084
1494.958 11.974 10.584 9.574 8.784 8.164 7.704 7.364 6.944 6.554 6.324
1514.248 6.084 5.794 5.584 5.364 5.134 5.024 4.904 4.754 4.664 4.574
1533.538 4.534 4.494 4.464 4.504 4.554 4.574 4.604 4.714 4.804 4.904
1552.827 5.034 5.174 5.424 5.674 5.974 6.284 6.534 6.874 7.294 7.664
1572.117 7.874 7.964 7.874 7.574 7.104 6.524 6.084 5.664 5.274 5.114
1591.407 4.954 4.754 4.684 4.624 4.604 4.574 4.484 4.464 4.464 4.494
1610.697 4.474 4.494 4.564 4.614 4.674 4.754 4.854 4.964 5.084 5.194
1629.986 5.294 5.444 5.554 5.474 5.394 5.324 5.184 5.034 4.904 4.674
1649.276 4.384 4.094 3.894 3.814 3.694 3.524 3.384 3.364 3.334 3.324
1668.566 3.324 3.274 3.314 3.334 3.334 3.394 3.544 3.714 3.944 4.134
1687.856 4.284 4.514 4.854 5.284 5.714 6.254 6.914 7.654 8.474 9.494
1707.146 10.644 11.924 13.424 15.014 16.684 18.564 20.724 22.934 25.314 28.064
1726.435 31.004 34.214 37.904 42.184 47.284 53.084 59.654 67.404 76.364 86.854
1745.725 98.914 112.454 126.884 141.224 153.184 160.544 161.914 156.554 144.864 129.094
1765.015 112.004 95.454 80.564 68.124 57.824 49.384 42.494 36.824 32.064 27.974
1784.305 24.484 21.504 18.894 16.614 14.674 12.904 11.414 10.114 8.974 8.024
1803.594 7.154 6.414 5.794 5.254 4.784 4.384 4.094 3.834 3.554 3.294
1822.884 3.144 2.994 2.844 2.794 2.774 2.694 2.664 2.664 2.614 2.524
1842.174 2.474 2.434 2.394 2.344 2.294 2.214 2.154 2.174 2.144 2.184
1861.464 2.224 2.224 2.294 2.414 2.494 2.604 2.734 2.834 2.994 3.184
1880.754 3.354 3.504 3.664 3.784 3.784 3.784 3.774 3.694 3.614 3.434
1900.043 3.234 3.004 2.734 2.574 2.454 2.274 2.064 1.914 1.824 1.724
1919.333 1.654 1.604 1.544 1.484 1.524 1.564 1.524 1.544 1.584 1.554
1938.623 1.594 1.644 1.604 1.594 1.684 1.704 1.724 1.814 1.864 1.914
1957.913 1.924 1.944 2.034 2.034 2.044 2.164 2.234 2.204 2.164 2.184
1977.202 2.184 2.124 2.044 1.974 1.934 1.914 1.854 1.764 1.714 1.734
1996.492 1.734 1.654 1.624 1.614 1.654 1.684 1.664 1.714 1.744 1.754
2015.782 1.734 1.754 1.794 1.764 1.794 1.774 1.694 1.704 1.654 1.594
2035.072 1.564 1.534 1.614 1.624 1.584 1.594 1.584 1.564 1.544 1.464
2054.362 1.454 1.494 1.484 1.514 1.474 1.444 1.464 1.474 1.434 1.384
2073.651 1.414 1.424 1.384 1.354 1.354 1.334 1.334 1.364 1.294 1.234
2092.941 1.264 1.264 1.244 1.244 1.184 1.1328 1.204 1.244 1.234 1.164
2112.231 1.0746 1.1295 1.1373 1.061 1.0373 1.0371 1.0281 1.0154 1.0511 1.0568
2131.521 1.0576 1.1275 1.0927 1.0305 1.0306 0.9643 0.9573 0.9798 0.9395 0.9716
2150.810 0.9749 0.9374 0.8919 0.8753 0.8725 0.7668 0.7343 0.7748 0.7695 0.7589
2170.100 0.6858 0.6499 0.7432 0.7288 0.6631 0.7654 0.814 0.7731 0.7435 0.6981
2189.390 0.6662 0.6963 0.6926 0.6806 0.731 0.7025 0.5993 0.5809 0.6805 0.7241
2208.680 0.6537 0.5918 0.6172 0.6686 0.6571 0.5875 0.6184 0.656 0.5975 0.5587
2227.970 0.57 0.5695 0.5814 0.5546 0.5406 0.527 0.5501 0.6566 0.6531 0.6354
2247.259 0.6327 0.6115 0.6576 0.7149 0.6671 0.7288 0.8215 0.8194 0.7348 0.7693
2266.549 0.8571 0.8887 0.8998 0.9274 0.9758 0.8963 0.9081 0.9713 0.9763 0.94
2285.839 0.9101 0.95 0.9604 0.8967 0.865 0.8577 0.8809 0.9337 0.9196 0.8391
2305.129 0.7674 0.7649 0.8081 0.7883 0.7648 0.7303 0.667 0.7154 0.7524 0.7626
2324.418 0.8007 0.7391 0.6968 0.6618 0.638 0.7328 0.7756 0.7946 0.7753 0.8095
2343.708 0.8503 0.8136 0.8083 0.7938 0.7803 0.7807 0.8116 0.8056 0.7694 0.7894
2362.998 0.8563 0.8133 0.78 0.7985 0.8428 0.8744 0.7882 0.798 0.8453 0.805
2382.288 0.8436 0.9631 1.001 0.9391 0.9054 0.8667 0.8152 0.751 0.7325 0.8039
2401.578 0.8441 0.9017 0.8804 0.8147 0.8371 0.8495 0.7779 0.6986 0.7325 0.7577
2420.867 0.7866 0.7765 0.7635 0.7957 0.7328 0.6945 0.663 0.6205 0.6747 0.6755
2440.157 0.615 0.6058 0.5663 0.5534 0.5646 0.5985 0.6366 0.6254 0.5881 0.5784
2459.447 0.6564 0.7071 0.6082 0.5051 0.4402 0.4768 0.575 0.5683 0.5898 0.6124
2478.737 0.6207 0.6116 0.5683 0.531 0.5618 0.619 0.6128 0.6784 0.6652 0.5497
2498.026 0.5858 0.6317 0.6183 0.6532 0.5776 0.5745 0.5755 0.5423 0.6305 0.5676
2517.316 0.5318 0.516 0.5208 0.5625 0.502 0.4926 0.5776 0.6215 0.6254 0.6344
2536.606 0.5809 0.6271 0.6851 0.6733 0.6619 0.6307 0.6755 0.7674 0.7381 0.7248
2555.896 0.7964 0.8475 0.8263 0.8109 0.8951 0.9076 0.8859 0.8949 0.9296 0.9573
2575.186 0.8913 0.8469 0.8443 0.8902 0.9184 0.9632 0.9701 0.9112 0.891 0.8442
2594.475 0.7964 0.773 0.7617 0.7465 0.7661 0.7743 0.7088 0.6702 0.6422 0.6928
2613.765 0.7497 0.71 0.7074 0.7093 0.7566 0.7452 0.6277 0.5641 0.6702 0.7469
2633.055 0.6882 0.7023 0.7171 0.7281 0.7529 0.7304 0.8064 0.9005 0.9555 0.9598
2652.345 1.0019 1.0356 1.0142 1.0624 1.0897 1.1499 1.194 1.164 1.097 1.0087
2671.634 0.9878 0.9895 1.0012 0.9466 0.8921 0.8126 0.6665 0.6309 0.6673 0.6197
2690.924 0.5405 0.5264 0.502 0.5066 0.5068 0.5184 0.5974 0.6423 0.5998 0.4569
2710.214 0.4489 0.5785 0.5939 0.5252 0.5718 0.6225 0.577 0.5753 0.5357 0.6464
2729.504 0.7166 0.6535 0.7282 0.8137 0.8236 0.8092 0.779 0.6191 0.6412 0.7822
2748.794 0.7429 0.742 0.8066 0.7932 0.7178 0.772 0.8249 0.7928 0.7903 0.8751
2768.083 0.8808 0.9489 0.9135 0.8463 0.9523 0.967 1.0026 1.0491 1.1431 1.194
2787.373 1.254 1.284 1.354 1.474 1.534 1.544 1.564 1.634 1.664 1.674
2806.663 1.824 1.914 1.804 1.844 2.054 2.194 2.224 2.394 2.554 2.754
2825.953 2.994 3.194 3.384 3.624 4.024 4.354 4.714 5.194 5.724 6.314
2845.242 6.814 7.214 7.474 7.434 7.164 6.774 6.224 5.684 5.284 5.014
2864.532 4.924 5.024 5.224 5.444 5.764 6.304 6.984 7.774 8.654 9.594
2883.822 10.544 11.314 11.914 12.194 12.304 12.294 12.044 11.724 11.314 11.224
2903.112 11.234 11.224 11.454 11.774 12.224 12.794 13.464 14.184 15.124 16.264
2922.401 17.444 18.684 20.164 21.754 23.394 25.094 26.564 27.884 29.064 30.084
2941.691 30.964 31.594 32.154 32.884 33.834 35.304 37.454 40.244 43.334 45.734
2960.981 46.344 45.274 42.944 39.364 35.574 32.794 31.624 31.884 33.234 35.064
2980.271 36.764 38.034 38.454 37.974 36.714 34.874 32.484 29.784 27.034 24.194
2999.561 21.544 19.344 17.584 15.974 14.564 13.524 12.624 12.054 11.624 11.184
3018.850 10.944 10.704 10.624 10.584 10.414 10.094 9.674 9.244 8.784 8.234
3038.140 7.774 7.394 6.944 6.494 6.204 6.074 5.874 5.644 5.504 5.444
3057.430 5.434 5.514 5.584 5.744 6.024 6.294 6.634 7.054 7.504 7.974
3076.720 8.514 9.124 9.714 9.994 10.024 9.864 9.514 8.814 7.844 6.894
3096.009 6.064 5.414 4.944 4.474 3.944 3.664 3.534 3.284 3.074 2.964
3115.299 2.774 2.584 2.494 2.404 2.254 2.114 2.054 1.934 1.794 1.804
3134.589 1.724 1.654 1.704 1.524 1.474 1.594 1.494 1.484 1.464 1.244
3153.879 1.164 1.274 1.294 1.264 1.1529 1.1091 1.194 1.204 1.1485 0.9999
3173.169 0.9338 1.0393 1.0841 0.9826 0.9978 0.9629 0.9326 0.9819 0.9814 0.9977
3192.458 0.894 0.7712 0.734 0.711 0.7032 0.7432 0.7603 0.72 0.7044 0.6013
3211.748 0.501 0.5976 0.5916 0.5301 0.46 0.3722 0.4894 0.4499 0.3434 0.3941
3231.038 0.38 0.4206 0.4982 0.5135 0.3637 0.24398 0.3397 0.3855 0.3405 0.2671
3250.328 0.2893 0.3441 0.3546 0.4296 0.3615 0.4268 0.3531 0.1292 0.24851 0.3451
3269.617 0.4375 0.3835 0.2664 0.2648 0.2864 0.3516 0.271 0.18121 0.22821 0.23504
3288.907 0.2161 0.1784 0.17444 0.3451 0.3881 0.24045 0.22464 0.2782 0.2485 0.108
3308.197 0.18709 0.4057 0.2675 0.2826 0.3404 0.258 0.3049 0.3059 0.3755 0.3796
3327.487 0.3687 0.2952 0.2325 0.3 0.33 0.3812 0.32 0.20523 0.2821 0.3304
3346.777 0.2745 0.3505 0.19072 0.0704 0.3039 0.3011 0.19398 0.2506 0.2765 0.22607
3366.066 0.1061 0.14956 0.2786 0.3408 0.2805 0.18211 0.19619 0.19164 0.1175 0.17569
3385.356 0.3485 0.3428 0.213 0.1355 0.2671 0.2994 0.1288 0.047 0.0987 0.1171
3404.646 0.163864 0.21958 0.21807 0.2621 0.16716 0.1303 0.21303 0.21804 0.19366 0.142
3423.936 0.14954 0.22533 0.307 0.3332 0.3071 0.3301 0.2776 0.20348 0.23916 0.3994
3443.225 0.4773 0.4348 0.4866 0.5036 0.5152 0.5476 0.5906 0.6362 0.6789 0.7135
3462.515 0.6334 0.6854 0.8224 0.8045 0.8633 0.9596 1.005 1.0204 1.0908 1.0968
3481.805 1.1345 1.374 1.534 1.654 1.784 1.764 1.574 1.494 1.604 1.714
3501.095 1.584 1.384 1.254 1.204 1.224 1.0927 1.0423 1.0493 0.9325 0.8484
3520.385 0.7206 0.5703 0.5863 0.5977 0.5918 0.5067 0.4311 0.4533 0.3229 0.22266
3539.674 0.22023 0.23949 0.24767 0.23107 0.24766 0.2644 0.3019 0.21668 0.1231 0.1012
3558.964 0.1306 0.22549 0.2088 0.0557 0.1244 0.19936 0.21379 0.1348 0.02 0.21292
3578.254 0.3843 0.2955 0.15025 0.1837 0.3196 0.4383 0.4206 0.4773 0.3877 0.23294
3597.544 0.2599 0.18032 0.15225 0.18838 0.20044 0.16663 0.17128 0.2995 0.3565 0.2967
3616.833 0.24384 0.2819 0.23098 0.1289 0.16514 0.0982 0 0.1323 0.3427 0.3825
3636.123 0.3141 0.18949 0.14894 0.18696 0.1492 0.3009 0.4978 0.4157 0.3748 0.4852
3655.413 0.3749 0.22365 0.2792 0.3488 0.2558 0.20729 0.2845 0.321 0.20581 0.2893
3674.703 0.2947 0.1236 0.19647 0.2581 0.3574 0.2719 0.20128 0.3118 0.428 0.4057
3693.993 0.3381 0.3366 0.3119 0.3604 0.3625 0.3749 0.4061 0.4134 0.4214 0.4468
3713.282 0.5476 0.528 0.4443 0.3955 0.3696 0.266 0.1338 0.157153 0.20549 0.3189
3732.572 0.3219 0.24559 0.2889 0.3555 0.4199 0.37 0.3329 0.346 0.3359 0.306
3751.862 0.3248 0.3889 0.3927 0.24659 0.143 0.2887 0.3634 0.3831 0.3231 0.25194
3771.152 0.3429 0.3474 0.2612 0.3164 0.3717 0.3452 0.3756 0.24628 0.19719 0.19082
3790.441 0.2392 0.3863 0.2522 0.3472 0.4861 0.5109 0.5598 0.4413 0.3381 0.3131
3809.731 0.3251 0.3945 0.5321 0.5645 0.5179 0.3808 0.3271 0.4106 0.5736 0.6282
3829.021 0.5293 0.5147 0.5878 0.58 0.4009 0.3542 0.3354 0.1233 0.0672 0.21649
3848.311 0.2658 0.2757 0.3284 0.441 0.5015 0.4034 0.2902 0.18973 0.2017 0.3728
3867.601 0.402 0.24992 0.22056 0.24388 0.2792 0.3598 0.3649 0.37 0.2921 0.162685
3886.890 0.18104 0.3431 0.4863 0.5848 0.4823 0.3409 0.1447 0.0775 0.22507 0.24668
3906.180 0.2811 0.4319 0.4059 0.17297 0.2578 0.3497 0.1791 0.21802 0.3131 0.14442
3925.470 0.157236 0.2512 0.163846 0.3351 0.5788 0.5316 0.3184 0.21987 0.306 0.3689
3944.760 0.382 0.24002 0.318 0.4265 0.3903 0.4868 0.4859 0.4273 0.3646 0.3367
3964.049 0.3881 0.4578 0.5462 0.4699 0.4057 0.4475 0.4988 0.5629 0.4969 0.3116
3983.339 0.22414 0.3269 0.3939 0.5153 0.5528 0.5006 0.5177 0.4164 0.3799 0.4511
##END=
