##TITLE=2,2,5,5-Tetramethylhexanol
##JCAMP-DX=4.24
##DATA TYPE=INFRARED SPECTRUM
##ORIGIN=NIST Mass Spectrometry Data Center
##OWNER=NIST Standard Reference Data Program
Collection (C) 2018 copyright by the U.S. Secretary of Commerce
on behalf of the United States of America. All rights reserved.
##CAS REGISTRY NO=55073-86-4
##MOLFORM=C 10 H 22 O
##$NIST SOURCE=MSDC-IR
##SPECTROMETER/DATA SYSTEM=HP-GC/MS/IRD
##STATE=gas
##XUNITS=1/CM
##YUNITS=ABSORBANCE
##XFACTOR=1.0
##YFACTOR=0.000004700
##DELTAX=4.0
##FIRSTX=550.0
##LASTX=3846.0
##FIRSTY=0.000545
##MAXX=3846
##MINX=550
##MAXY=0.047
##MINY=0
##NPOINTS=825
##XYDATA=(X++(Y..Y))
550.0 116 105 104 115 93 67 51 46 56 54
590.0 40 30 23 23 33 22 11 12 18 29
630.0 34 21 18 30 23 11 16 17 2 4
670.0 12 19 28 20 23 36 38 25 21 21
710.0 25 30 31 37 45 50 56 64 62 53
750.0 44 37 38 41 45 49 51 49 43 38
790.0 37 47 58 50 41 43 43 52 57 65
830.0 93 111 124 153 176 185 181 168 153 143
870.0 150 175 214 266 311 338 335 313 277 249
910.0 238 229 220 229 236 226 203 184 178 175
950.0 177 196 224 271 343 442 564 691 801 865
990.0 865 806 729 647 571 503 445 399 373 367
1030.0 379 412 460 522 604 689 787 882 956 1000
1070.0 998 945 854 751 639 527 440 374 328 302
1110.0 283 273 271 281 301 324 354 389 422 451
1150.0 469 484 496 507 515 525 534 541 551 554
1190.0 543 541 548 555 562 578 608 641 687 758
1230.0 839 913 958 954 890 779 655 534 444 390
1270.0 355 334 319 311 313 318 327 339 349 352
1310.0 348 334 317 298 284 283 292 320 367 448
1350.0 592 812 1128 1515 1865 2021 1885 1561 1235 1036
1390.0 1001 1020 986 873 682 478 350 290 265 267
1430.0 278 302 331 360 408 483 586 728 888 1073
1470.0 1277 1440 1473 1365 1148 849 564 372 263 203
1510.0 162 134 111 99 88 76 71 69 65 56
1550.0 51 50 47 45 40 36 34 33 27 23
1590.0 26 29 29 27 27 29 30 30 28 24
1630.0 22 25 27 23 21 27 26 21 23 23
1670.0 21 19 16 20 20 18 19 17 16 17
1710.0 17 20 20 17 13 12 14 16 16 11
1750.0 13 14 12 13 11 11 14 13 11 10
1790.0 13 13 10 8 8 10 10 12 15 15
1830.0 14 12 13 13 12 10 11 12 11 12
1870.0 12 10 12 15 15 11 7 7 7 6
1910.0 12 16 13 10 10 9 9 12 11 10
1950.0 8 8 8 8 10 10 13 16 12 9
1990.0 9 10 10 9 7 4 5 5 4 7
2030.0 10 6 4 5 8 9 6 6 8 6
2070.0 4 6 8 8 8 8 9 9 13 13
2110.0 8 8 9 7 6 6 8 10 8 7
2150.0 6 7 8 7 5 3 5 5 4 3
2190.0 4 6 6 4 2 2 1 0 2 5
2230.0 7 4 3 5 6 7 9 9 8 9
2270.0 10 10 9 11 14 16 18 20 18 14
2310.0 10 3 3 7 9 10 12 12 15 12
2350.0 12 16 20 22 22 24 22 21 18 15
2390.0 17 19 20 19 20 18 19 21 16 15
2430.0 17 18 14 10 9 13 12 12 13 11
2470.0 12 17 19 19 18 15 13 14 16 17
2510.0 16 18 20 21 24 29 29 28 25 21
2550.0 24 25 25 27 31 30 26 24 26 29
2590.0 30 34 38 39 42 45 49 49 45 46
2630.0 51 51 52 57 63 65 66 68 73 75
2670.0 74 78 83 87 93 94 94 95 96 100
2710.0 109 122 132 146 156 154 151 149 146 146
2750.0 148 149 151 147 142 141 145 146 153 164
2790.0 173 183 198 217 237 254 271 293 314 344
2830.0 384 431 487 552 641 759 922 1161 1496 1912
2870.0 2352 2732 2975 3064 3035 2955 2896 2894 2959 3078
2910.0 3218 3330 3395 3437 3529 3742 4106 4628 5303 6160
2950.0 7257 8498 9550 10000 9591 8354 6665 4996 3615 2554
2990.0 1784 1249 885 654 512 416 349 300 270 241
3030.0 216 203 189 175 164 154 148 142 134 128
3070.0 122 117 116 117 118 112 113 115 108 106
3110.0 105 104 102 103 103 97 94 96 91 85
3150.0 92 101 102 102 105 109 109 107 106 112
3190.0 112 104 101 104 104 97 95 88 80 77
3230.0 74 70 61 58 56 54 54 51 41 30
3270.0 27 25 27 27 24 25 25 17 17 14
3310.0 15 18 17 17 16 20 22 19 21 24
3350.0 22 22 28 35 38 37 30 22 21 21
3390.0 22 23 23 26 26 21 19 17 20 16
3430.0 22 28 23 24 25 21 17 16 14 13
3470.0 15 18 18 17 17 20 18 11 13 17
3510.0 14 8 2 2 7 9 3 0 2 6
3550.0 11 9 6 10 10 5 4 4 8 12
3590.0 15 11 13 19 20 27 38 40 44 62
3630.0 81 98 129 172 218 274 323 342 340 306
3670.0 252 206 164 124 102 81 63 54 44 29
3710.0 21 18 17 25 27 22 20 19 15 14
3750.0 16 15 15 14 14 17 21 20 14 16
3790.0 16 23 33 36 37 36 36 37 37 36
3830.0 34 35 37 33 31
##END=
