##TITLE=2-Chloro-6-fluorobenzyl chloride
##JCAMP-DX=4.24
##DATA TYPE=INFRARED SPECTRUM
##ORIGIN=EPA-IR VAPOR PHASE LIBRARY
##OWNER=SRD/NIST
Collection (C) 2018 copyright by the U.S. Secretary of Commerce
on behalf of the United States of America. All rights reserved.
##CAS REGISTRY NO=55117-15-2
##MOLFORM=C 7 H 5 Cl 2 F
##$NIST SOURCE=MSDC-IR
##STATE=gas
##XUNITS=1/CM
##YUNITS=ABSORBANCE
##XFACTOR=1.
##YFACTOR=0.001
##DELTAX=1.92934
##FIRSTX=549.9
##LASTX=3999.5
##FIRSTY=4.74
##MAXX=3999.53
##MINX=549.863
##MAXY=0.13113
##MINY=0
##NPOINTS=1789
##XYDATA=(X++(Y..Y))
549.863 4.74 4.7 4.77 4.74 4.59 4.45 4.31 4.1 3.79 3.65
569.156 3.5 3.26 3.19 3.14 3.05 2.98 2.97 2.93 2.85 2.82
588.450 2.84 2.86 2.749 2.6576 2.6445 2.6257 2.651 2.7123 2.83 2.92
607.743 2.8 2.707 2.6924 2.6834 2.7416 2.87 3.02 3.16 3.5 4.03
627.037 4.44 4.73 5.08 5.49 5.65 5.51 5.36 5.25 5.05 4.73
646.330 4.49 4.44 4.53 4.67 4.95 5.36 5.87 6.52 7.25 8.31
665.624 9.78 11.59 13.97 17.46 22.63 29.28 37.09 45.48 53.52 60.71
684.917 67.69 74.47 77.47 72.13 61.53 52.79 45.36 36.32 27.05 19.39
704.210 13.9 10.19 7.93 6.72 5.98 5.51 5.19 4.87 4.65 4.52
723.504 4.46 4.5 4.67 4.97 5.35 5.99 6.86 7.74 8.7 9.55
742.797 10.2 10.81 11.59 12.51 12.65 11.51 10.21 9.75 9.76 9.95
762.091 10.69 12.32 15.35 20.19 26.97 35.44 44.72 53.77 62.35 72.13
781.384 86.31 103.44 110.35 93.94 72.07 63.9 59.86 51.82 41.79 32.3
800.678 25.15 20.67 18.32 17.47 17.82 19 20.42 21.56 22.17 22.34
819.971 22.32 21.94 21.37 20.45 18.96 17.21 15.78 15.37 16.14 17.97
839.264 20.59 23.64 26.7 29.26 31.17 32.49 33.22 33.05 31.67 28.98
858.558 25.4 21.54 17.92 14.84 12.36 10.37 8.67 7.41 6.58 5.98
877.851 5.6 5.49 5.57 5.38 4.95 4.71 4.64 4.53 4.38 4.25
897.145 4.16 4.06 4 4.09 4.25 4.49 4.9 5.4 6.19 7.37
916.438 8.99 11.26 14.41 18.79 24.71 32.62 43.03 55.93 70.76 85.94
935.732 99.17 108.33 112.59 112.57 109.41 103.64 94.19 80.23 62.67 44.46
955.025 29.47 19.54 13.82 10.81 9.23 7.88 6.67 5.98 5.48 4.94
974.318 4.39 3.86 3.46 3.2 3.03 2.91 2.79 2.7767 2.7804 2.7824
993.612 2.8 2.82 2.83 2.7713 2.72 2.649 2.5281 2.445 2.4408 2.4313
1012.905 2.3897 2.3724 2.3751 2.4309 2.5641 2.7193 2.84 2.97 3.1 3.16
1032.199 3.2 3.22 3.15 3.07 3.02 2.86 2.736 2.697 2.6233 2.5988
1051.492 2.67 2.85 2.98 3.11 3.23 3.29 3.4 3.37 3.24 3.14
1070.786 3.02 2.87 2.7751 2.6725 2.5269 2.4766 2.4491 2.436 2.491 2.5499
1090.079 2.6468 2.7518 2.8 2.84 2.95 3.09 3.19 3.28 3.27 3.32
1109.372 3.45 3.55 3.71 4.05 4.67 5.6 7.03 9.11 11.68 14.42
1128.666 16.86 18.8 20.21 21.2 21.68 21.32 20.44 19.17 17.35 15.37
1147.959 13.65 12.28 11.16 10.38 9.83 9.41 8.89 8.05 7.05 6.27
1167.253 5.97 6.08 6.7 7.81 9.48 11.73 14.48 17.75 21.17 24.44
1186.546 27.14 29.08 30.48 31.03 30.19 28.25 25.8 22.74 19.37 16.24
1205.840 13.67 11.66 10.09 9.11 8.65 8.43 8.37 8.33 8.46 8.75
1225.133 9.12 9.64 10.54 12.12 14.43 17.92 23.05 29.89 38.16 47.27
1244.426 55.98 63.11 68.25 71.23 71.86 70.32 67.08 62.39 56.45 50.43
1263.720 46.23 45.3 47.81 52.66 57.92 61.71 63.38 63.52 61.54 56.82
1283.013 51.62 45.71 37.45 28.19 20.39 15.01 11.47 9.18 7.54 6.36
1302.307 5.51 4.88 4.48 4.23 4.07 3.94 3.84 3.79 3.76 3.7
1321.600 3.66 3.63 3.63 3.66 3.7 3.74 3.82 3.93 4.03 4.18
1340.894 4.37 4.53 4.62 4.66 4.68 4.72 4.67 4.54 4.43 4.26
1360.187 4.03 3.81 3.58 3.42 3.3 3.2 3.13 3.07 3.04 3.08
1379.480 3.1 3.07 3.11 3.15 3.19 3.22 3.28 3.3 3.37 3.43
1398.774 3.46 3.56 3.7 3.79 3.83 3.93 4.04 4.17 4.35 4.63
1418.067 5.11 5.75 6.52 7.56 8.9 10.61 12.94 16.11 20.21 25.38
1437.361 32.04 39.93 49.4 60.59 73.42 87 99.29 109.25 118.19 125.62
1456.654 130.25 131.13 127.46 119.87 109.69 98.43 87.12 75.61 63.8 52.23
1475.948 41.95 32.97 25.6 19.81 15.54 12.49 10.31 8.78 7.89 7.35
1495.241 7.01 6.83 6.72 6.68 6.65 6.69 6.79 6.94 7.23 7.62
1514.534 8.19 8.95 9.8 10.68 11.54 12.22 12.85 13.38 13.68 13.67
1533.828 13.4 12.96 12.45 11.89 11.3 10.81 10.47 10.34 10.51 11.05
1553.121 12 13.37 15.31 18 21.38 25.42 30.4 36.25 43.01 50.54
1572.415 58.28 65.66 72.32 77.58 80.92 82.38 82.18 80.35 76.77 71.87
1591.708 66.49 61.99 59.33 58.34 58.2 57.87 56.66 54.19 50.5 45.83
1611.002 40.43 34.63 28.91 23.33 18.43 14.55 11.62 9.62 8.26 7.29
1630.295 6.57 6.02 5.53 5.11 4.74 4.4 4.12 3.89 3.69 3.54
1649.588 3.44 3.46 3.46 3.55 3.68 3.74 3.83 3.92 3.9 3.84
1668.882 3.85 3.77 3.61 3.47 3.28 3.1 2.95 2.753 2.636 2.5948
1688.175 2.4903 2.4507 2.4275 2.3791 2.3628 2.2881 2.2631 2.3154 2.3529 2.3812
1707.469 2.4053 2.3886 2.3337 2.2924 2.2141 2.1265 2.0439 1.9296 1.87258 1.80755
1726.762 1.7467 1.80029 1.82639 1.81744 1.87071 1.87299 1.9082 2.0066 2.0834 2.224
1746.056 2.4213 2.6624 2.94 3.31 3.67 3.94 4.18 4.31 4.34 4.28
1765.349 4.08 3.8 3.48 3.13 2.769 2.4142 2.1271 1.9347 1.83319 1.79447
1784.642 1.7713 1.7423 1.663 1.635 1.634 1.607 1.624 1.596 1.534 1.502
1803.936 1.491 1.502 1.501 1.492 1.497 1.516 1.527 1.523 1.572 1.651
1823.229 1.7591 1.88687 2.0373 2.2762 2.5939 2.96 3.33 3.68 3.91 4.02
1842.523 4.04 3.91 3.7 3.49 3.16 2.7541 2.393 2.0463 1.7236 1.577
1861.816 1.551 1.489 1.45 1.437 1.46 1.492 1.497 1.515 1.53 1.547
1881.110 1.555 1.581 1.612 1.641 1.646 1.633 1.573 1.552 1.616 1.658
1900.403 1.7182 1.87556 2.0632 2.2746 2.603 3.07 3.63 4.18 4.7 5.11
1919.696 5.34 5.38 5.26 4.99 4.56 4.03 3.5 2.9 2.3261 1.87988
1938.990 1.565 1.391 1.31 1.273 1.222 1.188 1.178 1.144 1.14 1.157
1958.283 1.175 1.171 1.149 1.138 1.163 1.206 1.206 1.19 1.178 1.183
1977.577 1.223 1.228 1.215 1.231 1.222 1.197 1.222 1.236 1.224 1.218
1996.870 1.25 1.286 1.295 1.297 1.272 1.258 1.259 1.267 1.269 1.239
2016.164 1.195 1.198 1.232 1.236 1.237 1.241 1.229 1.228 1.242 1.272
2035.457 1.311 1.327 1.317 1.322 1.298 1.288 1.3 1.297 1.314 1.31
2054.750 1.279 1.28 1.3 1.337 1.402 1.428 1.422 1.435 1.5 1.548
2074.044 1.554 1.534 1.526 1.576 1.624 1.646 1.664 1.6908 1.705 1.7254
2093.337 1.7536 1.7431 1.7428 1.7522 1.6982 1.638 1.621 1.566 1.517 1.474
2112.631 1.395 1.323 1.279 1.288 1.265 1.225 1.221 1.201 1.21 1.239
2131.924 1.245 1.278 1.258 1.209 1.186 1.152 1.113 1.096 1.093 1.071
2151.218 1.06 1.045 1.036 1.027 1.023 1.016 1.014 0.991 0.988 1.016
2170.511 0.993 0.992 1.008 1.053 1.105 1.15 1.209 1.235 1.265 1.293
2189.804 1.324 1.369 1.39 1.386 1.366 1.35 1.341 1.331 1.325 1.336
2209.098 1.322 1.336 1.375 1.388 1.379 1.376 1.356 1.319 1.311 1.277
2228.391 1.281 1.278 1.23 1.217 1.203 1.201 1.216 1.192 1.166 1.136
2247.685 1.093 1.083 1.066 1.029 1.037 1.08 1.118 1.138 1.12 1.141
2266.978 1.161 1.147 1.187 1.25 1.255 1.291 1.336 1.343 1.373 1.382
2286.272 1.404 1.395 1.407 1.481 1.498 1.5 1.53 1.602 1.6913 1.7461
2305.565 1.7952 1.78847 1.7797 1.80937 1.7365 1.611 1.548 1.473 1.378 1.279
2324.858 1.222 1.159 1.097 1.066 1.011 1.012 1.058 1.033 1.035 1.073
2344.152 1.064 1.092 1.121 1.09 1.067 1.062 1.012 0.996 1.038 1.061
2363.445 1.029 1.015 1.072 1.115 1.14 1.191 1.251 1.303 1.321 1.322
2382.739 1.329 1.319 1.316 1.305 1.283 1.233 1.181 1.19 1.18 1.168
2402.032 1.174 1.177 1.164 1.156 1.162 1.162 1.171 1.202 1.223 1.2
2421.326 1.211 1.24 1.213 1.205 1.293 1.37 1.413 1.487 1.503 1.469
2440.619 1.466 1.444 1.468 1.485 1.432 1.341 1.228 1.161 1.104 1.066
2459.912 1.047 1 0.923 0.886 0.888 0.893 0.918 0.959 0.967 0.936
2479.206 0.972 1.018 1.055 1.095 1.12 1.176 1.286 1.315 1.321 1.433
2498.499 1.494 1.485 1.493 1.498 1.469 1.409 1.345 1.332 1.283 1.221
2517.793 1.217 1.221 1.208 1.18 1.198 1.23 1.23 1.237 1.255 1.272
2537.086 1.271 1.257 1.218 1.156 1.089 1.059 1.051 0.992 0.897 0.83
2556.380 0.799 0.796 0.77 0.72 0.72 0.7 0.68 0.68 0.7 0.72
2575.673 0.72 0.7 0.71 0.69 0.7 0.72 0.71 0.75 0.76 0.75
2594.966 0.71 0.7 0.73 0.72 0.68 0.7 0.75 0.74 0.67 0.64
2614.260 0.61 0.62 0.58 0.55 0.6 0.62 0.65 0.64 0.6 0.65
2633.553 0.73 0.77 0.85 0.913 0.903 0.892 0.944 1 1.094 1.157
2652.847 1.058 0.998 1.009 1.009 1.017 1.015 0.95 0.885 0.852 0.76
2672.140 0.68 0.63 0.63 0.63 0.61 0.57 0.59 0.68 0.65 0.59
2691.434 0.67 0.7 0.69 0.71 0.73 0.813 0.853 0.904 1.016 1.033
2710.727 1.057 1.137 1.218 1.275 1.236 1.207 1.235 1.211 1.171 1.133
2730.020 1.078 1.03 1.018 1.009 0.971 0.925 0.88 0.8 0.76 0.72
2749.314 0.71 0.76 0.72 0.62 0.51 0.55 0.58 0.49 0.48 0.51
2768.607 0.48 0.37 0.31 0.34 0.39 0.39 0.34 0.35 0.42 0.41
2787.901 0.32 0.29 0.29 0.26 0.31 0.38 0.33 0.27 0.26 0.28
2807.194 0.21 0.15 0.14 0.14 0.21 0.28 0.28 0.22 0.16 0.18
2826.488 0.13 0.05 0.09 0.13 0.13 0.15 0.12 0.13 0.19 0.24
2845.781 0.27 0.3 0.3 0.26 0.27 0.28 0.33 0.38 0.38 0.43
2865.074 0.57 0.76 0.9 1.008 1.097 1.219 1.32 1.369 1.388 1.29
2884.368 1.197 1.136 1.057 0.901 0.75 0.65 0.61 0.54 0.49 0.47
2903.661 0.39 0.34 0.33 0.23 0.23 0.33 0.18 0.12 0.11 0.07
2922.955 0.09 0.1 0.13 0.04 0 0.11 0.14 0.17 0.12 0.07
2942.248 0.13 0.13 0.15 0.25 0.27 0.26 0.31 0.48 0.7 0.894
2961.542 1.17 1.463 1.78709 2.1106 2.5094 2.99 3.53 4.07 4.71 5.37
2980.835 5.93 6.5 7.03 7.54 7.98 8.34 8.64 8.75 8.6 8.25
3000.128 7.51 6.48 5.61 4.89 4.21 3.62 3.05 2.6574 2.3906 2.1564
3019.422 1.9879 1.82366 1.7593 1.658 1.49 1.385 1.264 1.202 1.094 0.942
3038.715 1.008 1.066 1.02 1.074 1.178 1.227 1.267 1.33 1.412 1.52
3058.009 1.662 1.9408 2.2172 2.5042 3.01 3.76 4.46 5.09 5.84 6.52
3077.302 6.99 7.52 8.03 8.1 8.05 7.84 7.4 6.84 6.18 5.5
3096.596 4.76 3.96 3.41 2.92 2.2092 1.614 1.286 1.088 0.853 0.64
3115.889 0.52 0.44 0.45 0.52 0.62 0.69 0.64 0.58 0.66 0.64
3135.182 0.57 0.62 0.65 0.73 0.78 0.69 0.64 0.66 0.68 0.63
3154.476 0.58 0.58 0.69 0.79 0.75 0.66 0.56 0.55 0.55 0.52
3173.769 0.44 0.36 0.53 0.58 0.46 0.57 0.57 0.48 0.35 0.34
3193.063 0.44 0.52 0.61 0.61 0.48 0.36 0.53 0.56 0.41 0.37
3212.356 0.45 0.61 0.58 0.48 0.49 0.52 0.49 0.51 0.61 0.58
3231.650 0.55 0.64 0.71 0.63 0.57 0.58 0.53 0.54 0.55 0.57
3250.943 0.53 0.5 0.58 0.66 0.72 0.67 0.57 0.57 0.63 0.67
3270.236 0.74 0.76 0.69 0.69 0.7 0.79 0.851 0.74 0.73 0.77
3289.530 0.796 0.911 0.903 0.74 0.852 0.884 0.843 1.087 1.156 1.09
3308.823 1.154 0.981 0.824 0.962 0.951 0.904 0.973 0.962 0.826 0.877
3328.117 0.904 0.893 1.018 0.951 0.842 0.857 0.898 1.003 0.977 1.03
3347.410 1.105 1.047 1.096 1.115 1.105 0.946 0.894 0.928 0.984 1.034
3366.704 0.971 1.095 1.077 0.981 1.096 1.168 1.052 1.07 1.201 1.135
3385.997 1.035 0.97 1.047 1.063 1.036 1.115 1.153 1.11 1.03 1.098
3405.290 1.239 1.322 1.302 1.276 1.298 1.243 1.264 1.206 1.056 1.17
3424.584 1.258 1.179 1.136 1.177 1.207 1.257 1.268 1.32 1.362 1.298
3443.877 1.332 1.282 1.281 1.442 1.429 1.404 1.415 1.296 1.348 1.379
3463.171 1.341 1.244 1.197 1.244 1.22 1.332 1.46 1.455 1.418 1.429
3482.464 1.398 1.292 1.243 1.286 1.333 1.331 1.373 1.378 1.373 1.541
3501.758 1.61 1.429 1.377 1.469 1.431 1.442 1.457 1.496 1.525 1.442
3521.051 1.516 1.425 1.3 1.344 1.336 1.389 1.441 1.451 1.503 1.534
3540.344 1.577 1.663 1.616 1.475 1.437 1.46 1.428 1.5 1.614 1.518
3559.638 1.32 1.27 1.36 1.38 1.481 1.546 1.407 1.431 1.486 1.443
3578.931 1.43 1.524 1.603 1.603 1.572 1.335 1.273 1.414 1.357 1.367
3598.225 1.533 1.558 1.556 1.58 1.594 1.624 1.61 1.545 1.534 1.566
3617.518 1.58 1.568 1.476 1.521 1.604 1.615 1.634 1.635 1.631 1.627
3636.812 1.611 1.56 1.534 1.513 1.586 1.646 1.479 1.368 1.514 1.56
3656.105 1.457 1.485 1.526 1.527 1.586 1.581 1.598 1.555 1.497 1.567
3675.398 1.519 1.451 1.406 1.4 1.479 1.502 1.496 1.513 1.464 1.393
3694.692 1.427 1.441 1.476 1.539 1.495 1.555 1.68 1.648 1.61 1.592
3713.985 1.497 1.553 1.563 1.519 1.579 1.609 1.602 1.571 1.6 1.615
3733.279 1.611 1.605 1.557 1.51 1.464 1.468 1.587 1.437 1.346 1.48
3752.572 1.511 1.529 1.44 1.4 1.448 1.37 1.332 1.454 1.532 1.583
3771.866 1.587 1.568 1.484 1.458 1.559 1.585 1.657 1.547 1.34 1.422
3791.159 1.477 1.466 1.421 1.44 1.427 1.36 1.408 1.457 1.456 1.422
3810.452 1.395 1.365 1.423 1.459 1.394 1.349 1.36 1.407 1.489 1.551
3829.746 1.566 1.511 1.453 1.429 1.441 1.462 1.473 1.497 1.488 1.401
3849.039 1.348 1.406 1.461 1.467 1.43 1.415 1.559 1.633 1.521 1.429
3868.333 1.463 1.48 1.5 1.523 1.494 1.518 1.616 1.647 1.616 1.544
3887.626 1.553 1.64 1.63 1.663 1.7204 1.80122 1.83498 1.7275 1.646 1.7041
3906.920 1.7347 1.7426 1.68 1.642 1.634 1.563 1.57 1.553 1.522 1.583
3926.213 1.56 1.53 1.58 1.614 1.574 1.522 1.588 1.585 1.5 1.444
3945.506 1.513 1.544 1.448 1.41 1.432 1.515 1.526 1.381 1.368 1.459
3964.800 1.424 1.447 1.47 1.421 1.357 1.31 1.345 1.294 1.213 1.315
3984.093 1.398 1.378 1.349 1.26 1.2 1.252 1.238 1.197 1.259
##END=
