##TITLE=p-Decyloxybenzoic acid
##JCAMP-DX=4.24
##DATA TYPE=INFRARED SPECTRUM
##ORIGIN=EPA-IR VAPOR PHASE LIBRARY
##OWNER=SRD/NIST
Collection (C) 2018 copyright by the U.S. Secretary of Commerce
on behalf of the United States of America. All rights reserved.
##CAS REGISTRY NO=5519-23-3
##MOLFORM=C 17 H 26 O 3
##$NIST SOURCE=MSDC-IR
##STATE=gas
##XUNITS=1/CM
##YUNITS=ABSORBANCE
##XFACTOR=1.
##YFACTOR=0.001
##DELTAX=1.92898
##FIRSTX=549.8
##LASTX=4000.7
##FIRSTY=3.5987
##MAXX=4000.7
##MINX=549.759
##MAXY=0.0894887
##MINY=0
##NPOINTS=1790
##XYDATA=(X++(Y..Y))
549.759 3.5987 3.6787 3.8887 4.1387 4.3787 4.8787 5.1587 5.3687 5.6987 5.9987
569.049 6.0787 5.8387 5.3787 5.0787 4.8387 4.7887 4.6687 4.5287 4.8087 5.2387
588.339 5.3687 5.3887 5.8087 5.9787 5.8387 5.7787 5.8087 5.8487 6.0087 6.3487
607.628 6.9587 7.9687 9.1987 10.5087 11.4087 11.1987 10.2187 8.6387 6.6387 5.2087
626.918 4.3387 3.8987 3.7487 3.5487 3.2887 2.9087 2.5387 2.2587 2.2087 1.8787
646.208 1.3787 1.1487 1.0987 1.0987 1.0085 0.973 0.9732 0.8626 0.7886 0.7572
665.498 0.8542 1.0197 1.0294 1.1187 1.2287 1.3387 1.5587 1.7387 1.7787 2.0787
684.787 2.6187 3.0487 3.5787 4.2687 4.8287 5.2087 5.4187 5.4787 5.4887 5.4187
704.077 5.3287 5.2687 5.0787 4.7487 4.2587 4.0587 3.9087 3.6187 3.4887 3.2587
723.367 2.9287 2.7887 2.6087 2.4387 2.4687 2.3587 2.1987 2.0587 2.0287 2.1487
742.657 2.1587 2.1187 2.1687 2.1587 2.5687 2.9987 3.1987 3.6487 4.2787 5.1587
761.947 5.9687 6.7187 7.6787 8.7387 9.3287 9.1887 8.5387 7.5687 6.6587 5.9787
781.236 5.2287 4.5187 4.1487 3.9087 3.6187 3.4087 3.2187 2.8387 2.7687 2.5787
800.526 2.4087 2.5587 2.4187 2.2687 2.3187 2.3887 2.3187 2.1487 1.9387 1.9287
819.816 1.9187 1.9387 1.9787 1.8487 1.9887 2.3787 2.7687 3.1987 3.6087 4.0687
839.106 4.7987 5.5087 6.1287 6.6087 6.5087 6.2587 5.8987 5.2287 4.3587 3.7387
858.395 3.3487 2.9887 2.6787 2.3387 2.0787 1.8987 1.7287 1.6787 1.7787 1.6287
877.685 1.5187 1.7487 1.9087 1.8187 1.7087 1.9587 2.3387 2.4387 2.4587 2.4687
896.975 2.2487 2.1587 2.2087 2.0687 2.0387 2.0087 1.8187 1.9087 1.8587 1.7987
916.265 1.9387 1.7687 1.5887 1.6487 1.7987 1.8187 1.7087 1.6987 1.7887 1.8387
935.555 1.8787 2.0087 2.1487 2.1987 2.3287 2.3087 2.2187 2.3487 2.4187 2.4087
954.844 2.4887 2.5287 2.5287 2.4187 2.1987 2.2387 2.3687 2.6287 2.8287 2.8687
974.134 3.0187 3.0287 3.1987 3.6187 3.9587 4.0387 4.1487 4.4887 4.8487 5.2287
993.424 5.5287 5.7687 6.1587 6.6587 7.1587 7.5687 8.0587 8.8087 9.5487 9.7287
1012.714 9.6887 9.4387 9.2187 9.4687 9.4587 9.5387 9.7787 9.8087 9.7787 9.6887
1032.003 9.7987 9.8487 9.6987 9.2287 9.2487 9.5687 9.6587 9.9487 10.2087 10.6587
1051.293 11.0187 11.2987 11.9387 12.4787 13.1487 14.2387 15.6787 17.6087 20.0087 22.8887
1070.583 25.9587 29.4987 33.3487 36.5287 38.4487 38.5087 35.8387 31.0787 25.7887 20.7687
1089.873 16.5587 13.4787 11.1687 9.4687 8.2687 7.3487 6.4987 5.9487 5.6687 5.2687
1109.163 5.2787 5.3787 4.9087 4.5287 4.3487 4.2187 4.6387 4.7987 4.8587 5.0687
1128.452 4.9387 5.0887 4.8787 4.9487 5.7887 5.9687 6.3187 7.2187 8.1787 9.5387
1147.742 11.4187 13.9787 17.4887 22.8687 30.1487 39.7387 50.9787 60.8687 65.9187 63.8587
1167.032 55.8887 44.7287 34.0787 26.2087 21.2987 18.3987 17.0587 16.9587 17.6387 19.0587
1186.322 20.0787 20.0287 18.9287 17.0687 14.7887 12.9987 11.7187 10.8187 10.1887 9.5287
1205.611 9.5287 9.7787 10.0887 10.5787 10.8787 11.4587 12.5687 13.3787 14.2387 15.4987
1224.901 16.7687 17.9087 19.0987 20.9687 23.1787 25.5187 28.2287 31.4187 34.6687 37.7687
1244.191 41.0087 44.2887 47.1387 48.6987 48.6287 47.1587 44.1687 40.0887 35.4187 30.6487
1263.481 26.5787 23.2287 20.5687 18.3287 16.3187 14.7287 13.6387 12.9187 12.2387 11.8287
1282.771 11.6787 11.6387 11.8587 12.1487 12.6687 13.5487 14.4187 15.2587 15.9487 16.3387
1302.060 16.3587 15.8887 15.1187 14.2787 13.5987 13.3387 13.3487 13.4787 13.6787 13.9187
1321.350 14.2387 14.6887 15.1787 15.4587 15.5087 15.1187 14.2687 13.1087 11.7687 10.5987
1340.640 9.7587 9.2187 8.9887 9.1287 9.4987 10.1487 11.2087 12.6187 14.3187 16.2387
1359.930 18.1287 19.4687 19.7787 18.7387 16.5387 13.8987 11.5587 9.6987 8.2887 7.3287
1379.219 6.7287 6.3587 6.1187 5.9687 5.7587 5.4587 5.1187 4.7287 4.2987 3.9487
1398.509 3.6387 3.4587 3.4087 3.4187 3.5187 3.7487 4.0287 4.3587 4.7687 5.1087
1417.799 5.2787 5.3387 5.1887 4.7187 4.1787 3.7687 3.4687 3.2887 3.2887 3.2887
1437.089 3.3587 3.5387 3.6087 3.7287 3.9887 4.2487 4.5287 4.7787 5.0887 5.4087
1456.378 5.6087 5.9387 6.3087 6.5787 6.8387 7.1887 7.6387 8.1187 8.4187 8.3687
1475.668 7.9587 7.2787 6.3487 5.5287 4.9787 4.5587 4.4087 4.4487 4.7387 5.3687
1494.958 6.1887 7.3987 9.0887 11.2987 14.0087 16.9787 19.8687 21.8087 22.0387 20.3687
1514.248 17.2087 13.5587 10.3987 8.0487 6.3087 5.1687 4.2787 3.6487 3.2287 2.8987
1533.538 2.6787 2.5387 2.4787 2.4087 2.3187 2.2287 2.2087 2.3287 2.3287 2.3387
1552.827 2.4487 2.5987 2.7387 2.7687 2.9587 3.2987 3.7087 4.1587 4.6087 5.1187
1572.117 5.6587 6.2087 6.9187 7.5587 8.0487 8.5987 9.1387 9.8187 10.6387 11.6987
1591.407 13.2187 15.3287 18.0787 21.3887 25.1887 29.1787 32.7087 35.0887 35.5787 33.7487
1610.697 30.0587 25.1987 20.3187 16.1487 12.8187 10.3987 8.5287 6.9887 5.7687 4.8187
1629.986 4.0487 3.3787 2.9087 2.5687 2.3387 2.1487 1.9687 1.8387 1.7487 1.7487
1649.276 1.7687 1.7187 1.6287 1.6187 1.5787 1.5187 1.4987 1.4487 1.4187 1.4187
1668.566 1.4387 1.4087 1.3687 1.3687 1.4587 1.5287 1.5387 1.6287 1.7487 1.8487
1687.856 1.9687 2.1187 2.2087 2.1887 2.2087 2.3387 2.4287 2.5687 2.7187 2.8687
1707.146 3.1287 3.4287 3.7187 4.0187 4.2687 4.4687 4.5687 4.7187 4.9787 5.2787
1726.435 5.7487 6.4387 7.2887 8.3487 9.8287 11.6687 13.8187 16.5787 20.0787 24.9487
1745.725 31.7387 41.0687 53.2487 68.2487 82.2087 89.4887 86.9687 75.2087 58.3487 42.7887
1765.015 31.7987 24.2187 18.9687 15.4287 12.7987 10.8287 9.2587 7.9787 6.9487 6.0487
1784.305 5.2787 4.5887 4.0187 3.5187 3.1587 2.8787 2.6687 2.5287 2.3587 2.2087
1803.594 2.0987 2.0087 1.9387 1.9387 1.9687 1.9887 1.9387 1.8587 1.7987 1.7787
1822.884 1.7187 1.5387 1.3687 1.2887 1.2087 1.0687 0.9822 0.8853 0.7964 0.7673
1842.174 0.7189 0.6434 0.6594 0.6318 0.5771 0.585 0.587 0.5801 0.5383 0.5142
1861.464 0.5076 0.5209 0.5508 0.5476 0.5445 0.5559 0.5682 0.6036 0.626 0.6163
1880.754 0.6403 0.6899 0.7226 0.7638 0.8075 0.8232 0.8418 0.8959 0.921 0.9408
1900.043 0.9959 1.0215 1.0687 1.0887 1.0887 1.1187 1.1287 1.1187 1.0887 1.0192
1919.333 0.9536 0.9287 0.9252 0.9451 0.9165 0.861 0.8725 0.8003 0.7227 0.7462
1938.623 0.7498 0.7058 0.6877 0.6988 0.647 0.6732 0.7582 0.7468 0.7247 0.6921
1957.913 0.7016 0.7783 0.8262 0.8346 0.7813 0.7134 0.7111 0.7555 0.7056 0.6666
1977.202 0.6848 0.6553 0.6654 0.722 0.6994 0.6643 0.6955 0.6936 0.683 0.6677
1996.492 0.67 0.6964 0.678 0.678 0.6865 0.6627 0.6066 0.5806 0.5798 0.6047
2015.782 0.6661 0.7048 0.7306 0.737 0.7104 0.6625 0.6167 0.6401 0.6461 0.607
2035.072 0.5923 0.6189 0.6621 0.6355 0.6216 0.6692 0.6822 0.6233 0.6167 0.6375
2054.362 0.6023 0.5829 0.5682 0.5705 0.5978 0.6334 0.6386 0.5947 0.5709 0.6102
2073.651 0.5963 0.5744 0.5625 0.5722 0.5863 0.5898 0.6193 0.5807 0.5355 0.5206
2092.941 0.5217 0.5356 0.5715 0.5701 0.5196 0.5033 0.467 0.4248 0.4324 0.4983
2112.231 0.5141 0.4577 0.4338 0.4235 0.4388 0.4464 0.4771 0.5564 0.5522 0.4854
2131.521 0.4758 0.5098 0.5173 0.5509 0.5475 0.5222 0.5587 0.5878 0.5256 0.4725
2150.810 0.5629 0.6333 0.6311 0.6501 0.6703 0.6323 0.6043 0.6029 0.6508 0.6315
2170.100 0.5313 0.5676 0.6137 0.6038 0.5879 0.5503 0.4814 0.4216 0.4455 0.4141
2189.390 0.3698 0.3619 0.3812 0.4051 0.3731 0.3371 0.3593 0.3465 0.3782 0.4905
2208.680 0.4089 0.3268 0.3799 0.4374 0.4984 0.4501 0.3933 0.4153 0.3979 0.3952
2227.970 0.4048 0.3405 0.3965 0.4378 0.4114 0.4617 0.4191 0.3915 0.4141 0.3968
2247.259 0.3257 0.2968 0.3662 0.3852 0.3124 0.2651 0.3424 0.4043 0.3489 0.3265
2266.549 0.3378 0.2954 0.2601 0.2403 0.2635 0.3425 0.3465 0.3408 0.3541 0.3594
2285.839 0.3624 0.2865 0.2933 0.4184 0.449 0.3338 0.2604 0.3103 0.3514 0.3071
2305.129 0.3246 0.3791 0.335 0.3544 0.402 0.4 0.4252 0.4297 0.3605 0.4429
2324.418 0.4808 0.3711 0.343 0.4111 0.4171 0.3773 0.3998 0.3648 0.3441 0.367
2343.708 0.4201 0.4578 0.4864 0.5173 0.4388 0.3922 0.4307 0.4673 0.4763 0.4655
2362.998 0.5187 0.5211 0.4962 0.5138 0.5285 0.5315 0.4393 0.4113 0.4996 0.4981
2382.288 0.5114 0.4936 0.4292 0.4609 0.5257 0.5374 0.5363 0.5648 0.5656 0.5076
2401.578 0.5087 0.5709 0.5325 0.5665 0.6043 0.629 0.6867 0.6276 0.6229 0.6409
2420.867 0.6228 0.6222 0.6062 0.5643 0.5571 0.553 0.5269 0.5395 0.5432 0.5072
2440.157 0.5452 0.589 0.5704 0.541 0.5098 0.537 0.567 0.5175 0.493 0.5267
2459.447 0.5011 0.4707 0.49 0.5371 0.6159 0.654 0.5599 0.4949 0.6132 0.6382
2478.737 0.6091 0.6116 0.5878 0.6282 0.6471 0.669 0.603 0.572 0.6462 0.6222
2498.026 0.594 0.5857 0.5918 0.5992 0.5621 0.5306 0.5773 0.6535 0.6385 0.5535
2517.316 0.5451 0.604 0.6362 0.6653 0.6351 0.5423 0.5461 0.6186 0.6765 0.7693
2536.606 0.8029 0.7744 0.8011 0.8439 0.8297 0.8355 0.861 0.8843 0.929 0.9065
2555.896 0.8691 0.8637 0.8399 0.8743 0.8215 0.7994 0.8564 0.8768 0.8807 0.872
2575.186 0.8772 0.8463 0.8876 0.8548 0.7613 0.7797 0.7939 0.8495 0.8901 0.8742
2594.475 0.8471 0.7974 0.7565 0.8088 0.8453 0.7567 0.7111 0.6646 0.6229 0.6745
2613.765 0.7708 0.7282 0.61 0.605 0.6277 0.607 0.6183 0.6708 0.7157 0.6812
2633.055 0.6981 0.775 0.7771 0.6737 0.6376 0.7056 0.6796 0.6326 0.6139 0.6046
2652.345 0.6542 0.7012 0.7376 0.7341 0.7087 0.7307 0.7331 0.7039 0.6853 0.7496
2671.634 0.7928 0.8436 0.823 0.7685 0.8295 0.803 0.7179 0.7364 0.742 0.7952
2690.924 0.835 0.7604 0.7345 0.807 0.827 0.8042 0.7451 0.746 0.8021 0.7485
2710.214 0.7524 0.7289 0.6758 0.6919 0.7473 0.7537 0.7852 0.8428 0.8632 0.9102
2729.504 0.906 0.8524 0.8616 0.9256 0.9443 0.9391 0.9711 1.0076 1.1387 1.1787
2748.794 1.0987 1.1687 1.2187 1.2387 1.2787 1.2487 1.1787 1.1287 1.1687 1.2687
2768.083 1.2587 1.2587 1.3087 1.2787 1.2287 1.1987 1.1987 1.2687 1.3587 1.4487
2787.373 1.3887 1.3887 1.4487 1.4387 1.5287 1.6087 1.7187 1.7087 1.6987 1.8087
2806.663 1.8687 1.8987 1.9187 1.9687 2.0987 2.2987 2.4387 2.5087 2.5987 2.7787
2825.953 2.9287 3.0087 3.2987 3.5787 3.8687 4.1287 4.3487 4.7087 5.1387 5.7687
2845.242 6.5887 7.4487 8.5287 9.8587 11.3387 13.0887 15.0187 16.8887 18.3487 19.3587
2864.532 19.8687 19.7687 19.2787 18.5687 17.7587 16.9887 16.2887 15.7587 15.3587 14.9687
2883.822 14.6187 14.2687 13.9087 13.5787 13.2687 13.1887 13.4087 13.7987 14.3187 15.0487
2903.112 15.9887 17.0687 18.3687 19.8987 21.6187 23.4687 25.3987 27.6987 30.2687 33.1687
2922.401 36.5387 40.1087 43.7287 47.1487 50.0687 51.8287 52.3487 51.8787 50.2887 47.9987
2941.691 45.3387 42.3487 39.4087 36.4587 33.6187 30.9687 28.6487 26.8787 25.4087 24.2687
2960.981 23.5887 23.0487 22.4987 21.9087 20.9287 19.4687 17.7387 15.7787 13.7387 11.8887
2980.271 10.3287 8.9887 7.8487 6.9487 6.2687 5.6587 5.0987 4.6887 4.3287 3.9387
2999.561 3.6787 3.5187 3.3987 3.2187 2.9687 2.7887 2.6387 2.5687 2.5087 2.3787
3018.850 2.2287 2.2487 2.1987 2.1487 2.1287 2.0287 1.9187 1.7687 1.6987 1.6287
3038.140 1.6287 1.5087 1.5087 1.7187 1.7887 1.7587 1.7987 1.8987 1.8887 1.8887
3057.430 1.8587 1.7787 1.6887 1.6787 1.7387 1.7687 1.8387 1.7987 1.7587 1.7987
3076.720 1.8987 1.9887 2.0287 2.1287 2.1287 2.0287 1.9387 1.8087 1.6287 1.5187
3096.009 1.4987 1.4987 1.4187 1.3287 1.3987 1.4087 1.2887 1.2887 1.3787 1.2687
3115.299 1.1587 1.0587 0.984 0.9897 0.9417 0.8661 0.8313 0.7799 0.7281 0.8419
3134.589 0.816 0.7114 0.6891 0.6081 0.4686 0.4401 0.5476 0.6039 0.611 0.5483
3153.879 0.5988 0.6552 0.6062 0.5346 0.4526 0.5397 0.5761 0.4998 0.5347 0.5388
3173.169 0.533 0.4527 0.3448 0.386 0.4294 0.3867 0.3487 0.4368 0.4316 0.4139
3192.458 0.4422 0.4778 0.4907 0.4337 0.3517 0.3324 0.324 0.3078 0.321 0.3656
3211.748 0.3952 0.3568 0.3794 0.3572 0.4198 0.4216 0.3041 0.2527 0.2896 0.3785
3231.038 0.2853 0.2131 0.2609 0.2169 0.1605 0.1909 0.2135 0.2228 0.2932 0.3347
3250.328 0.2329 0.1858 0.2217 0.12076 0.1595 0.2211 0.2327 0.2168 0.1727 0.1831
3269.617 0.1888 0.2656 0.2367 0.2087 0.1737 0.14146 0.3361 0.3571 0.2595 0.3296
3288.907 0.2715 0.14448 0.09877 0.10204 0.14216 0.09897 0.14681 0.2095 0.2501 0.3326
3308.197 0.2049 0.1111 0.062426 0.04937 0.2047 0.2985 0.2885 0.1913 0.255 0.2928
3327.487 0.298 0.3204 0.1959 0.2271 0.2268 0.028 0.08795 0.2543 0.10431 0.08581
3346.777 0.1668 0.1697 0.2156 0.3184 0.26 0.1952 0.2661 0.227 0.2716 0.3084
3366.066 0.2731 0.2623 0.1823 0.1632 0.2257 0.2204 0.2755 0.2485 0.08312 0.0203
3385.356 0.064724 0.2007 0.2673 0.1631 0.1796 0.2512 0.2246 0.2862 0.2763 0.2891
3404.646 0.3093 0.1796 0.1778 0.2371 0.1638 0.0066 0.07822 0.2481 0.2444 0.2404
3423.936 0.2862 0.3384 0.3866 0.4601 0.3378 0.2562 0.3228 0.3502 0.2881 0.2902
3443.225 0.358 0.1663 0.2171 0.4636 0.3866 0.2885 0.1804 0.0413 0.15745 0.2888
3462.515 0.2508 0.2242 0.2674 0.3273 0.3561 0.4125 0.4034 0.3466 0.3121 0.4128
3481.805 0.4439 0.4214 0.6506 0.6895 0.549 0.6454 0.7653 0.7708 0.7048 0.6525
3501.095 0.581 0.5359 0.5856 0.4588 0.3335 0.3768 0.4416 0.4187 0.4494 0.4027
3520.385 0.3115 0.2944 0.3476 0.379 0.3652 0.3578 0.3561 0.4266 0.4785 0.4469
3539.674 0.248 0.1816 0.3052 0.4237 0.4352 0.4638 0.5808 0.6387 0.6392 0.6525
3558.964 0.7678 0.9877 1.1487 1.3687 1.7687 2.3087 3.1987 4.4587 6.3587 8.9987
3578.254 12.5387 17.2987 22.6787 26.8287 27.5787 24.3587 18.4187 12.2287 7.6487 4.7487
3597.544 3.0887 2.3187 1.7787 1.3487 1.0687 0.9686 0.8314 0.6844 0.6969 0.6944
3616.833 0.5992 0.5039 0.3807 0.3661 0.4156 0.3678 0.3316 0.2647 0.362 0.3836
3636.123 0.2949 0.4077 0.3809 0.3443 0.4412 0.4235 0.3759 0.2603 0.2822 0.3833
3655.413 0.417 0.4135 0.399 0.4305 0.3069 0.2212 0.32 0.3887 0.2945 0.07998
3674.703 0.12092 0.3256 0.4281 0.5426 0.6295 0.5886 0.3282 0.2435 0.3088 0.2973
3693.993 0.3474 0.2785 0.2216 0.2589 0.1667 0.1736 0.3889 0.4 0.3416 0.4539
3713.282 0.2961 0.10121 0.14519 0.2268 0.3054 0.2475 0.14246 0.2031 0.303 0.3339
3732.572 0.2363 0.1657 0.3026 0.2615 0.1978 0.2131 0.10186 0.0819 0.09368 0.13657
3751.862 0.2733 0.3412 0.3399 0.3392 0.2465 0.1748 0.2978 0.3583 0.3069 0.2798
3771.152 0.3416 0.4411 0.3577 0.2996 0.3402 0.1785 0.0099 0.05769 0.1737 0.10003
3790.441 0.1411 0.3214 0.386 0.2727 0.1889 0.2789 0.3212 0.2855 0.224 0.1757
3809.731 0.2208 0.2544 0.2969 0.4194 0.4047 0.3834 0.295 0.2601 0.4029 0.363
3829.021 0.2984 0.2765 0.14763 0.11938 0.1967 0.1708 0.1908 0.2583 0.3791 0.4117
3848.311 0.2619 0.1929 0.13024 0.06878 0.037 0 0.0247 0.11629 0.14805 0.14869
3867.601 0.1854 0.08056 0.06974 0.2079 0.09111 0.1737 0.3787 0.4133 0.4112 0.2406
3886.890 0.238 0.253 0.1684 0.14145 0.1971 0.264 0.15531 0.14794 0.296 0.3972
3906.180 0.3314 0.2871 0.2879 0.3288 0.3763 0.219 0.09243 0.14651 0.2321 0.2752
3925.470 0.2128 0.2091 0.2849 0.1592 0.15003 0.3424 0.2937 0.3117 0.3565 0.3229
3944.760 0.3581 0.2275 0.1785 0.13117 0.11896 0.2453 0.2526 0.2558 0.2951 0.3396
3964.049 0.3622 0.3551 0.226 0.3309 0.4694 0.4031 0.2213 0.14185 0.2763 0.2331
3983.339 0.3135 0.4347 0.3076 0.2804 0.3955 0.4548 0.3362 0.242 0.3057 0.3695
##END=
