##TITLE=1-(Chloromethyl)2-methylbenzene
##JCAMP-DX=4.24
##DATA TYPE=INFRARED SPECTRUM
##ORIGIN=NIST Mass Spectrometry Data Center
##OWNER=NIST Standard Reference Data Program
Collection (C) 2018 copyright by the U.S. Secretary of Commerce
on behalf of the United States of America. All rights reserved.
##CAS REGISTRY NO=552-45-4
##MOLFORM=C 8 H 9 Cl
##$NIST SOURCE=MSDC-IR
##SPECTROMETER/DATA SYSTEM=HP-GC/MS/IRD
##STATE=gas
##XUNITS=1/CM
##YUNITS=ABSORBANCE
##XFACTOR=1.0
##YFACTOR=0.000002000
##DELTAX=4.0
##FIRSTX=550.0
##LASTX=3846.0
##FIRSTY=0.000404
##MAXX=3846
##MINX=550
##MAXY=0.02
##MINY=0
##NPOINTS=825
##XYDATA=(X++(Y..Y))
550.0 202 149 138 37 22 109 147 244 466 752
590.0 946 1054 1001 768 484 322 257 227 188 131
630.0 160 217 284 317 401 621 898 1293 1958 2914
670.0 3993 4984 5699 5815 5215 4137 2982 2185 1912 2189
710.0 3067 4447 6063 7951 9879 10000 8982 8020 6667 5249
750.0 4104 3291 2785 2498 2186 1774 1372 1033 706 457
790.0 296 226 216 214 213 214 258 338 515 814
830.0 1158 1381 1441 1332 1091 744 463 364 332 309
870.0 300 257 229 195 154 169 190 194 202 232
910.0 236 197 186 168 152 181 186 181 194 174
950.0 166 162 148 131 110 111 123 133 130 129
990.0 145 148 148 148 149 164 168 190 227 267
1030.0 321 387 492 567 616 623 574 489 358 246
1070.0 211 205 187 171 181 245 325 394 441 442
1110.0 410 349 290 243 197 183 196 206 232 274
1150.0 321 351 361 341 321 329 330 374 430 444
1190.0 445 433 397 364 366 418 475 520 529 514
1230.0 536 610 749 997 1425 2102 2948 3688 4084 4052
1270.0 3630 2908 2163 1699 1456 1314 1209 1051 834 650
1310.0 516 398 300 254 246 237 226 217 230 243
1350.0 247 270 292 298 321 354 410 495 570 608
1390.0 627 614 538 472 450 454 485 543 609 716
1430.0 868 1067 1312 1613 1951 2295 2585 2749 2717 2545
1470.0 2350 2171 2077 2095 2190 2230 2165 1995 1701 1299
1510.0 918 668 528 451 394 364 347 333 318 317
1550.0 312 301 304 303 306 333 373 407 450 486
1590.0 528 580 622 634 612 574 523 433 335 272
1630.0 226 198 174 154 135 136 138 129 139 144
1670.0 136 124 118 120 139 144 162 193 195 179
1710.0 167 156 126 98 96 96 86 81 79 70
1750.0 68 74 72 75 88 102 118 133 166 214
1790.0 257 272 267 264 251 215 185 185 183 194
1830.0 198 183 166 137 91 79 76 73 89 112
1870.0 133 140 153 169 175 189 216 253 294 323
1910.0 328 314 285 245 211 210 226 265 291 273
1950.0 236 178 117 85 62 36 22 23 34 33
1990.0 33 26 25 24 26 31 26 34 37 29
2030.0 28 18 21 18 13 32 35 36 44 27
2070.0 24 33 25 23 20 17 17 17 14 13
2110.0 19 15 9 8 14 22 16 7 4 11
2150.0 3 0 10 15 15 11 8 13 10 1
2190.0 2 16 33 26 25 42 39 27 14 10
2230.0 13 16 8 8 26 21 18 20 23 25
2270.0 24 28 24 17 20 27 37 42 42 51
2310.0 46 53 77 87 92 105 110 109 109 97
2350.0 91 84 73 63 52 61 53 35 39 48
2390.0 44 30 37 37 29 37 27 26 44 47
2430.0 58 67 58 50 52 53 51 53 49 42
2470.0 48 51 46 52 49 41 49 51 44 49
2510.0 43 45 53 51 52 45 48 49 35 36
2550.0 50 45 43 50 44 53 64 59 57 57
2590.0 66 80 76 59 55 56 76 89 75 67
2630.0 71 64 61 69 70 70 64 58 59 65
2670.0 74 78 87 93 98 104 99 114 141 154
2710.0 159 156 152 158 175 173 157 170 186 190
2750.0 205 200 179 160 155 157 157 155 162 176
2790.0 152 148 151 154 162 186 202 204 226 245
2830.0 266 300 339 392 472 550 606 715 851 974
2870.0 1130 1271 1380 1472 1537 1533 1497 1455 1411 1399
2910.0 1435 1523 1657 1873 2097 2279 2416 2475 2485 2442
2950.0 2365 2335 2384 2525 2723 2903 3080 3242 3172 2893
2990.0 2564 2248 2025 1910 1953 2182 2603 3113 3532 3776
3030.0 3819 3659 3324 2957 2719 2666 2796 3074 3435 3754
3070.0 3925 3944 3789 3380 2799 2213 1700 1310 1061 911
3110.0 789 678 574 466 393 353 315 284 255 241
3150.0 234 212 196 181 167 150 134 135 146 131
3190.0 108 99 111 94 81 79 85 113 89 86
3230.0 107 92 67 65 80 79 66 55 50 54
3270.0 68 62 30 41 56 53 72 88 71 51
3310.0 50 52 51 52 44 26 37 42 23 19
3350.0 39 37 43 75 65 45 55 47 42 44
3390.0 45 52 48 52 49 23 35 63 61 52
3430.0 54 53 47 55 60 48 29 26 29 16
3470.0 8 22 47 52 25 35 31 11 13 43
3510.0 60 45 27 14 30 28 29 46 33 24
3550.0 47 49 13 14 28 28 28 10 14 34
3590.0 37 42 46 36 44 45 36 42 54 55
3630.0 36 48 39 16 31 52 34 5 17 43
3670.0 55 34 15 18 27 18 17 32 34 21
3710.0 37 62 63 55 49 53 40 39 60 57
3750.0 58 77 70 50 60 77 93 88 59 63
3790.0 73 47 32 49 73 68 59 59 68 78
3830.0 82 77 90 95 73
##END=
