##TITLE=o-Nitrobenzoic acid
##JCAMP-DX=4.24
##DATA TYPE=INFRARED SPECTRUM
##ORIGIN=EPA-IR VAPOR PHASE LIBRARY
##OWNER=SRD/NIST
Collection (C) 2018 copyright by the U.S. Secretary of Commerce
on behalf of the United States of America. All rights reserved.
##CAS REGISTRY NO=552-16-9
##MOLFORM=C 7 H 5 N O 4
##$NIST SOURCE=MSDC-IR
##STATE=gas
##XUNITS=1/CM
##YUNITS=ABSORBANCE
##XFACTOR=1.
##YFACTOR=0.001
##DELTAX=1.92898
##FIRSTX=549.8
##LASTX=4000.7
##FIRSTY=13.981
##MAXX=4000.7
##MINX=549.759
##MAXY=0.132061
##MINY=0
##NPOINTS=1790
##XYDATA=(X++(Y..Y))
549.759 13.981 14.361 14.601 15.161 15.591 16.011 16.561 16.581 16.131 15.711
569.049 15.451 15.361 14.941 14.161 13.441 12.831 11.821 10.901 10.241 9.501
588.339 8.501 7.751 7.151 6.371 5.991 5.611 5.421 5.161 4.781 4.731
607.628 5.011 5.371 6.151 7.891 10.291 13.541 16.971 19.871 21.501 23.011
626.918 25.491 25.571 24.321 23.851 22.071 18.191 13.851 10.571 8.261 6.791
646.208 6.001 5.461 5.401 5.761 6.101 6.771 7.771 9.121 10.741 12.181
665.498 13.781 15.731 16.251 15.771 15.711 15.281 14.171 12.931 11.701 10.171
684.787 8.881 8.001 7.401 7.021 6.921 7.201 7.551 7.921 8.601 9.571
704.077 10.251 10.951 11.991 13.171 14.161 15.231 16.531 17.591 18.591 19.361
723.367 19.851 20.351 21.021 21.821 22.721 23.901 24.331 23.151 21.591 20.631
742.657 19.941 19.111 18.241 17.471 16.901 16.711 16.751 17.121 18.201 19.741
761.947 21.791 24.031 25.821 27.151 28.091 28.501 28.691 28.951 28.711 27.091
781.236 23.821 20.351 17.111 14.141 12.141 10.511 8.881 7.401 6.041 5.051
800.526 4.121 3.481 3.551 3.571 3.211 2.931 2.851 2.881 2.881 2.891
819.816 3.061 2.931 2.781 2.921 3.041 3.231 3.281 3.131 3.161 3.561
839.106 4.381 5.651 7.271 9.531 12.431 14.921 16.481 17.291 17.821 17.951
858.395 17.481 16.731 15.371 12.941 9.781 6.991 4.961 3.601 3.081 2.841
877.685 2.591 2.431 2.301 2.371 2.131 1.971 2.171 2.141 1.921 1.911
896.975 2.101 2.081 1.791 1.611 1.621 1.631 1.611 1.471 1.341 1.361
916.265 1.431 1.611 1.801 1.851 1.861 1.881 1.901 1.891 1.741 1.731
935.555 1.931 2.001 1.861 1.741 1.951 2.301 2.481 2.551 2.521 2.731
954.844 2.981 2.991 2.791 2.471 2.381 2.231 2.001 1.901 1.861 1.811
974.134 1.581 1.421 1.511 1.641 1.591 1.491 1.481 1.521 1.501 1.471
993.424 1.661 1.831 1.871 1.741 1.731 1.821 1.871 2.121 2.451 2.621
1012.714 2.971 3.451 3.871 4.251 4.901 6.011 6.851 7.411 8.331 9.201
1032.003 9.761 10.601 10.971 11.461 12.261 12.751 13.561 14.461 15.431 17.131
1051.293 19.001 20.891 22.931 24.751 26.331 27.111 27.431 27.621 27.481 26.441
1070.583 25.211 24.231 22.741 21.261 20.381 19.651 19.581 20.611 21.321 22.771
1089.873 25.231 27.731 30.921 34.361 38.041 41.651 44.601 47.241 49.191 49.211
1109.163 47.801 46.251 44.151 41.211 37.721 34.001 30.441 27.101 24.001 21.381
1128.452 18.671 16.081 14.571 13.311 12.051 11.171 10.491 9.981 9.391 9.161
1147.742 9.641 10.021 10.661 12.001 13.541 14.911 16.191 18.291 20.791 23.091
1167.032 25.871 29.031 32.021 34.871 37.631 40.301 42.761 44.781 45.881 45.751
1186.322 44.561 43.031 40.511 37.591 34.381 30.571 27.621 24.691 21.821 19.081
1205.611 16.601 14.891 13.371 12.201 11.061 10.241 9.761 9.431 9.161 8.491
1224.901 8.221 8.211 7.871 7.841 8.411 8.461 8.351 8.711 8.831 8.971
1244.191 9.441 9.651 9.861 10.041 10.161 10.691 10.891 10.641 10.661 11.031
1263.481 11.211 11.601 11.791 11.701 12.071 12.291 12.461 12.831 13.221 13.611
1282.771 14.101 14.751 15.361 15.881 16.441 17.101 17.511 17.821 18.211 18.361
1302.060 18.411 18.451 18.361 18.201 17.981 17.911 17.961 18.081 18.351 18.781
1321.350 19.351 20.111 21.121 22.281 23.651 25.321 27.311 29.691 32.451 35.701
1340.640 39.581 44.021 49.061 54.531 60.181 65.511 70.191 74.011 76.751 78.331
1359.930 78.251 76.341 72.591 67.111 60.531 53.561 46.791 40.631 35.191 30.461
1379.219 26.231 22.681 19.831 17.571 15.841 14.391 13.131 12.041 11.001 10.031
1398.509 9.201 8.331 7.511 6.861 6.231 5.611 5.151 4.791 4.511 4.291
1417.799 4.201 4.151 4.031 4.001 4.121 4.271 4.501 4.821 5.191 5.691
1437.089 6.351 6.881 7.231 7.501 7.691 7.791 7.741 7.571 7.361 7.121
1456.378 6.701 6.111 5.631 5.411 5.381 5.411 5.501 5.721 5.961 6.191
1475.668 6.381 6.511 6.641 6.771 6.841 6.901 6.961 6.951 6.841 6.751
1494.958 6.761 6.761 6.861 7.191 7.601 8.261 9.151 9.861 10.791 12.041
1514.248 13.471 15.161 16.971 19.071 21.551 24.081 26.991 30.241 33.861 37.941
1533.538 42.441 47.451 52.861 59.081 65.791 72.631 79.261 85.221 90.021 93.761
1552.827 96.301 97.491 96.361 92.471 87.171 81.961 75.981 69.431 63.141 57.191
1572.117 51.691 46.731 42.201 38.101 34.371 30.691 27.191 23.971 21.101 18.571
1591.407 16.461 14.721 13.321 12.171 11.271 10.671 10.371 10.041 9.841 9.771
1610.697 9.511 9.261 8.951 8.481 7.991 7.451 6.921 6.521 6.191 5.811
1629.986 5.451 5.191 5.061 4.941 4.691 4.451 4.391 4.281 4.151 4.001
1649.276 3.861 3.891 3.801 3.551 3.391 3.291 3.241 3.271 3.181 3.041
1668.566 3.081 3.051 2.941 2.951 2.961 2.931 2.901 2.881 2.911 2.881
1687.856 2.851 2.901 2.891 2.991 3.091 3.021 3.051 3.201 3.331 3.461
1707.146 3.611 3.781 3.981 4.281 4.661 5.101 5.561 5.981 6.461 7.111
1726.435 7.851 8.681 9.711 10.851 12.101 13.451 15.091 17.081 19.321 21.881
1745.725 24.851 28.281 32.131 36.561 41.601 47.581 54.941 63.481 73.441 84.501
1765.015 95.791 106.541 115.901 123.161 128.741 132.061 131.921 127.611 119.171 107.811
1784.305 95.171 82.151 69.801 58.951 49.831 42.341 36.271 31.161 26.821 23.021
1803.594 19.641 16.621 14.081 11.971 10.291 8.901 7.781 6.941 6.311 5.821
1822.884 5.491 5.201 4.931 4.761 4.581 4.361 4.161 3.921 3.681 3.511
1842.174 3.351 3.181 3.001 2.861 2.781 2.691 2.681 2.771 2.791 2.771
1861.464 2.731 2.641 2.571 2.511 2.471 2.301 2.151 2.031 1.941 1.891
1880.754 1.811 1.781 1.741 1.701 1.661 1.581 1.551 1.461 1.431 1.431
1900.043 1.421 1.441 1.351 1.331 1.351 1.311 1.271 1.231 1.281 1.271
1919.333 1.201 1.241 1.381 1.521 1.651 1.771 1.841 1.911 1.991 2.111
1938.623 2.131 2.161 2.231 2.061 1.941 1.921 1.801 1.681 1.671 1.701
1957.913 1.661 1.641 1.611 1.591 1.631 1.581 1.481 1.451 1.421 1.301
1977.202 1.181 1.0969 0.9974 0.9324 0.8204 0.7135 0.693 0.7285 0.7072 0.6451
1996.492 0.6676 0.6627 0.5971 0.6134 0.6544 0.5907 0.5484 0.5133 0.5106 0.5953
2015.782 0.6677 0.6058 0.5807 0.605 0.5778 0.5651 0.4896 0.5034 0.5296 0.4485
2035.072 0.3936 0.4036 0.4229 0.4628 0.4932 0.5039 0.4915 0.4141 0.385 0.414
2054.362 0.4126 0.3868 0.3474 0.3448 0.447 0.4821 0.4437 0.4653 0.4965 0.5383
2073.651 0.5189 0.4355 0.4622 0.4831 0.4335 0.471 0.5099 0.506 0.487 0.4801
2092.941 0.5069 0.5145 0.5211 0.5616 0.5692 0.5871 0.5714 0.5349 0.5376 0.567
2112.231 0.5971 0.5677 0.5389 0.5153 0.5199 0.5571 0.5619 0.5491 0.5943 0.6468
2131.521 0.6599 0.6426 0.604 0.6286 0.528 0.4813 0.5832 0.6138 0.6077 0.5418
2150.810 0.4792 0.5654 0.6643 0.6386 0.6551 0.6702 0.6515 0.6637 0.726 0.7432
2170.100 0.7655 0.8015 0.7712 0.7648 0.7474 0.7213 0.7068 0.7247 0.7056 0.6687
2189.390 0.6743 0.6565 0.6428 0.6142 0.6446 0.7251 0.7164 0.6562 0.6578 0.7191
2208.680 0.7597 0.7707 0.7789 0.7327 0.6895 0.7036 0.6859 0.6599 0.6799 0.6482
2227.970 0.6309 0.6231 0.666 0.7051 0.6307 0.5979 0.5566 0.5451 0.5475 0.5419
2247.259 0.5347 0.5477 0.5669 0.5555 0.5368 0.5497 0.6466 0.6747 0.6331 0.6019
2266.549 0.601 0.606 0.6744 0.7424 0.7722 0.7693 0.7457 0.7784 0.8984 0.945
2285.839 0.9507 1.011 0.997 1.0472 1.1056 1.181 1.321 1.451 1.551 1.681
2305.129 1.771 1.841 1.961 2.081 2.231 2.341 2.421 2.511 2.571 2.591
2324.418 2.651 2.751 2.841 2.841 2.711 2.631 2.571 2.471 2.481 2.431
2343.708 2.291 2.181 2.111 2.171 2.331 2.581 2.811 2.971 3.141 3.281
2362.998 3.381 3.351 3.261 3.221 3.081 2.841 2.561 2.291 2.121 1.921
2382.288 1.621 1.421 1.261 1.0967 1.0492 1.0754 1.0323 0.9653 0.9432 0.9516
2401.578 1.043 1.0655 0.9735 0.9652 1.0238 1.0191 1.0074 1.0303 1.0087 0.9841
2420.867 0.8853 0.8518 0.885 0.8478 0.8575 0.8065 0.8557 0.8617 0.8062 0.8521
2440.157 0.8329 0.7862 0.7688 0.7598 0.734 0.7805 0.7921 0.7337 0.6966 0.6891
2459.447 0.7268 0.7014 0.6208 0.6315 0.6888 0.7427 0.7754 0.6934 0.6355 0.6105
2478.737 0.6054 0.6493 0.6598 0.6871 0.6297 0.6093 0.6278 0.575 0.5091 0.499
2498.026 0.5614 0.6273 0.6559 0.6182 0.5449 0.5964 0.6646 0.6187 0.6233 0.6681
2517.316 0.7184 0.7254 0.6723 0.5906 0.5432 0.5552 0.5038 0.5583 0.6415 0.5887
2536.606 0.612 0.5574 0.5206 0.6087 0.6444 0.6831 0.6431 0.5549 0.5617 0.4921
2555.896 0.4006 0.4505 0.508 0.5309 0.5315 0.4998 0.5362 0.5957 0.5233 0.4141
2575.186 0.4567 0.6123 0.5863 0.4851 0.5339 0.5907 0.61 0.6563 0.7039 0.7006
2594.475 0.6638 0.6305 0.6266 0.6316 0.6414 0.5986 0.6366 0.6733 0.615 0.5329
2613.765 0.5418 0.5552 0.5771 0.634 0.5937 0.5958 0.5523 0.4809 0.5361 0.6002
2633.055 0.6188 0.5994 0.5283 0.5454 0.6547 0.6524 0.615 0.6845 0.7317 0.6944
2652.345 0.6596 0.7205 0.7681 0.7548 0.6928 0.6004 0.5884 0.6372 0.6932 0.7315
2671.634 0.7667 0.7788 0.6911 0.6424 0.7424 0.8016 0.7793 0.7711 0.902 0.9878
2690.924 0.9495 0.9719 0.9923 1.0531 0.9941 0.9886 1.131 1.111 1.0175 1.0301
2710.214 1.131 1.161 1.0249 0.931 0.9657 0.937 0.9005 0.9913 0.9974 0.9247
2729.504 0.8635 0.8601 0.8798 0.8135 0.7485 0.7758 0.8306 0.8367 0.7558 0.6571
2748.794 0.7224 0.7582 0.6922 0.6184 0.5726 0.5353 0.556 0.6932 0.7494 0.639
2768.083 0.6298 0.625 0.5575 0.5725 0.5516 0.4738 0.4707 0.5272 0.603 0.7096
2787.373 0.7344 0.6141 0.5363 0.5951 0.6659 0.6544 0.7133 0.6889 0.6042 0.6667
2806.663 0.7362 0.6853 0.5585 0.6024 0.6788 0.7295 0.6803 0.6993 0.7997 0.785
2825.953 0.8529 0.9095 0.8641 0.8404 0.9007 0.9512 0.9598 0.9828 1.01 0.9983
2845.242 0.9258 0.981 1.1096 1.191 1.221 1.221 1.201 1.191 1.271 1.281
2864.532 1.341 1.401 1.401 1.491 1.641 1.771 1.831 1.961 2.041 2.021
2883.822 2.201 2.401 2.421 2.391 2.361 2.351 2.281 2.331 2.361 2.271
2903.112 2.231 2.151 2.171 2.141 1.951 1.891 1.831 1.851 1.931 1.721
2922.401 1.541 1.461 1.391 1.511 1.591 1.531 1.481 1.331 1.191 1.251
2941.691 1.241 1.191 1.151 1.0368 1.0104 1.0554 0.9701 0.9689 1.0363 1.0397
2960.981 1.141 1.161 1.131 1.131 1.0959 1.0152 0.9911 1.0275 0.9578 0.9312
2980.271 0.9377 0.8777 0.8704 0.9028 0.8922 0.8389 0.8124 0.8174 0.8305 0.9008
2999.561 0.957 0.9919 1.0497 1.0751 1.121 1.141 1.0924 1.0483 1.086 1.071
3018.850 1.024 1.0688 1.0331 1.0501 1.121 1.0697 1.0977 1.171 1.0372 1.0563
3038.140 1.191 1.291 1.361 1.291 1.361 1.441 1.441 1.501 1.481 1.581
3057.430 1.861 2.061 2.311 2.611 2.941 3.301 3.651 4.011 4.521 5.021
3076.720 5.341 5.761 5.981 6.001 5.961 5.751 5.391 4.951 4.521 4.101
3096.009 3.591 3.041 2.571 2.221 1.911 1.551 1.221 1.131 1.121 0.9571
3115.299 0.8716 0.7986 0.8255 0.8586 0.6729 0.5787 0.6381 0.7512 0.6989 0.6012
3134.589 0.6991 0.6757 0.6736 0.6811 0.6438 0.7256 0.7272 0.6787 0.6255 0.6497
3153.879 0.5629 0.4432 0.4593 0.4353 0.4933 0.5446 0.5189 0.4626 0.5476 0.6588
3173.169 0.5771 0.472 0.5505 0.6587 0.5519 0.6008 0.7098 0.5774 0.5823 0.6791
3192.458 0.5647 0.4852 0.5476 0.5475 0.5726 0.6505 0.6548 0.6427 0.5366 0.3954
3211.748 0.3921 0.5421 0.6286 0.5438 0.5025 0.5245 0.4191 0.3246 0.3593 0.4848
3231.038 0.5122 0.4239 0.3645 0.4569 0.5522 0.5554 0.5654 0.3584 0.343 0.4486
3250.328 0.4075 0.4297 0.4958 0.5345 0.54 0.5569 0.4624 0.4219 0.4875 0.4597
3269.617 0.3727 0.455 0.5097 0.4597 0.5103 0.4779 0.3644 0.4018 0.4238 0.3335
3288.907 0.3516 0.279 0.20831 0.2629 0.3232 0.3479 0.4017 0.4801 0.4978 0.486
3308.197 0.4298 0.592 0.6642 0.5178 0.6419 0.7024 0.6621 0.5338 0.469 0.6231
3327.487 0.6079 0.5741 0.5459 0.5507 0.5001 0.4745 0.6138 0.6027 0.5139 0.4518
3346.777 0.4571 0.4752 0.4264 0.4137 0.4958 0.5063 0.5335 0.6625 0.6875 0.6301
3366.066 0.5882 0.6043 0.6367 0.74 0.7469 0.7131 0.6966 0.6252 0.6335 0.6847
3385.356 0.7164 0.7427 0.7867 0.7626 0.6586 0.6348 0.6404 0.685 0.6889 0.6167
3404.646 0.61 0.644 0.8273 0.989 0.8082 0.5616 0.5142 0.588 0.7633 0.8076
3423.936 0.7136 0.7494 0.7975 0.6674 0.5719 0.5732 0.5275 0.5953 0.6712 0.5461
3443.225 0.5125 0.4984 0.4693 0.5995 0.5933 0.5734 0.6653 0.7571 0.7315 0.6263
3462.515 0.7301 0.832 0.7618 0.6834 0.7448 0.8587 0.8268 0.7162 0.5572 0.5423
3481.805 0.6307 0.6022 0.5743 0.6345 0.6056 0.5947 0.6863 0.7597 0.934 1.151
3501.095 0.9954 0.9201 1.141 1.0867 1.0067 1.0594 1.191 1.291 1.391 1.451
3520.385 1.501 1.661 1.711 1.701 1.891 2.001 2.011 2.071 2.031 2.131
3539.674 2.341 2.491 2.731 3.061 3.471 4.101 4.951 5.941 7.371 9.731
3558.964 13.211 17.991 24.471 32.491 40.891 47.821 52.441 55.281 56.601 56.271
3578.254 53.931 49.611 43.751 36.221 27.531 19.361 13.191 9.231 6.851 5.301
3597.544 4.241 3.641 3.191 2.851 2.471 2.161 2.001 1.831 1.661 1.441
3616.833 1.271 1.1094 1.0567 0.9714 0.9682 1.161 1.121 0.8685 0.7183 0.6362
3636.123 0.5629 0.5217 0.5707 0.6694 0.6207 0.5503 0.5323 0.5482 0.5762 0.5605
3655.413 0.4595 0.4213 0.4488 0.4649 0.463 0.4397 0.5044 0.6128 0.5711 0.4993
3674.703 0.5609 0.615 0.5043 0.5258 0.5808 0.4592 0.3183 0.3293 0.5168 0.6549
3693.993 0.6121 0.4459 0.4003 0.3813 0.284 0.2418 0.3369 0.3846 0.321 0.3707
3713.282 0.4559 0.4617 0.3733 0.3417 0.4429 0.6165 0.6987 0.5242 0.4942 0.5143
3732.572 0.5716 0.669 0.5902 0.5557 0.5086 0.4861 0.5845 0.5037 0.4868 0.5091
3751.862 0.4676 0.5154 0.693 0.7344 0.4531 0.3605 0.3228 0.2365 0.3207 0.2815
3771.152 0.19962 0.20074 0.20726 0.353 0.412 0.2792 0.111412 0 0.13986 0.3713
3790.441 0.34 0.3058 0.356 0.2315 0.1052 0.221 0.366 0.345 0.3701 0.3952
3809.731 0.3092 0.21076 0.2886 0.4265 0.3276 0.2941 0.2652 0.2479 0.4017 0.4183
3829.021 0.4493 0.3237 0.18207 0.252 0.2386 0.2231 0.2513 0.18615 0.0398 0.0999
3848.311 0.2904 0.381 0.4112 0.3606 0.2328 0.15267 0.118935 0.2597 0.39 0.2842
3867.601 0.2152 0.3738 0.3292 0.2406 0.3677 0.2825 0.2552 0.4528 0.4762 0.4064
3886.890 0.3266 0.0574 0.13936 0.2897 0.2157 0.20337 0.15333 0.17365 0.17686 0.2765
3906.180 0.2587 0.12473 0.19138 0.2491 0.18943 0.276 0.3843 0.2828 0.2355 0.3475
3925.470 0.42 0.3613 0.3542 0.244 0.2519 0.4386 0.4654 0.3839 0.2447 0.2199
3944.760 0.20237 0.16725 0.2307 0.2541 0.2447 0.2726 0.386 0.3749 0.13914 0.11742
3964.049 0.2689 0.3815 0.3039 0.13407 0.14871 0.14648 0.119386 0.13538 0.2271 0.20696
3983.339 0.110719 0.16717 0.085 0.0471 0.12626 0.18789 0.2318 0.2343 0.2728 0.15327
##END=
