##TITLE=Ethyl mesitylglyoxylate
##JCAMP-DX=4.24
##DATA TYPE=INFRARED SPECTRUM
##ORIGIN=EPA-IR VAPOR PHASE LIBRARY
##OWNER=SRD/NIST
Collection (C) 2018 copyright by the U.S. Secretary of Commerce
on behalf of the United States of America. All rights reserved.
##CAS REGISTRY NO=5524-57-2
##MOLFORM=C 13 H 16 O 3
##$NIST SOURCE=MSDC-IR
##STATE=gas
##XUNITS=1/CM
##YUNITS=ABSORBANCE
##XFACTOR=1.
##YFACTOR=0.001
##DELTAX=1.92934
##FIRSTX=549.9
##LASTX=3999.5
##FIRSTY=9.74
##MAXX=3999.53
##MINX=549.863
##MAXY=0.28825
##MINY=0
##NPOINTS=1789
##XYDATA=(X++(Y..Y))
549.863 9.74 8.78 8.09 7.29 6.49 5.92 5.78 5.64 5.45 5.29
569.156 4.94 4.71 4.7 4.59 4.34 4.38 4.52 4.5 4.49 4.51
588.450 4.56 4.66 4.82 4.87 5.18 5.78 6.3 7.2 8.29 9.58
607.743 11.22 13.05 14.94 16.52 17.76 18.38 18.2 17.61 16.71 15.49
627.037 14.28 13.21 12.41 12.01 11.63 11.41 11.38 11.32 11.34 11.43
646.330 11.51 11.64 11.74 11.75 11.72 11.63 11.63 11.57 11.42 11.29
665.624 11.09 10.97 10.83 10.58 10.37 10.21 9.95 9.68 9.44 9.17
684.917 8.97 8.75 8.4 8.17 8.02 7.75 7.61 7.52 7.37 7.2
704.210 6.99 6.89 6.85 6.75 6.6 6.46 6.37 6.33 6.25 6.16
723.504 6.08 5.99 5.94 5.99 6.1 6.23 6.41 6.7 7.05 7.45
742.797 7.9 8.38 8.97 9.62 10.4 11.31 12.35 13.36 14.3 15.35
762.091 16.32 17.11 17.84 18.34 18.67 18.96 19.18 19.36 19.34 19.33
781.384 19.49 19.57 19.45 19.44 19.43 19.29 19.1 18.83 18.49 18.12
800.678 17.81 17.57 17.45 17.35 17.38 17.64 18 18.52 19.26 20.23
819.971 21.39 22.52 23.61 24.76 25.76 26.53 27.28 28.06 28.99 30.35
839.264 32.27 34.63 36.99 38.97 40.28 39.73 36.75 32.72 28.67 24.93
858.558 21.81 19.36 17.6 16.41 15.37 14.45 13.56 12.57 11.61 10.69
877.851 9.85 9.24 8.77 8.42 8.24 8.08 7.99 7.92 7.9 8.05
897.145 8.21 8.38 8.68 9 9.45 9.98 10.59 11.48 12.54 13.77
916.438 15.3 17.17 19.41 22.12 25.49 29.53 34.06 38.91 43.68 47.72
935.732 50.34 51.18 50.07 47.31 43.6 39.58 36.03 33.75 33.1 34.44
955.025 37.97 43.66 51.52 61.19 71.52 81.01 88.07 91.46 90.68 85.82
974.318 77.65 67.67 57.52 48.49 41.33 36.21 32.84 30.82 29.94 29.94
993.612 30.72 32.21 34.36 37.12 40.52 44.73 49.69 55.5 62.16 69.52
1012.905 77.62 86.29 95.24 103.96 111.82 118.09 122.12 123.34 121.38 116.36
1032.199 108.76 99.24 88.66 77.97 67.92 58.93 51.3 44.98 39.78 35.48
1051.492 31.87 28.8 26.23 24.11 22.29 20.74 19.51 18.53 17.73 17.13
1070.786 16.66 16.34 16.29 16.42 16.68 17.12 17.81 18.72 19.7 20.91
1090.079 22.23 23.46 24.6 25.46 25.93 26.06 25.87 25.43 24.84 24.31
1109.372 23.91 23.73 23.87 24.3 25.19 26.42 28.32 30.97 34.5 39.6
1128.666 46.31 55.13 67.1 82.8 102.43 125.66 150.29 171.65 185 187.92
1147.959 180.15 162.38 136.87 108.67 83.6 64.81 52.27 44.32 39.38 36.76
1167.253 35.93 36.3 37.97 41.17 45.75 52.33 61.28 72.9 87.9 106.88
1186.546 130.64 158.73 189.86 222.2 252.42 275.87 288.25 287.97 274.38 248.55
1205.840 214.09 176.9 142.42 114.02 92.58 77.06 66.23 58.31 52.13 47.97
1225.133 45.89 44.65 44.15 44.29 45.2 46.61 48.28 50.81 53.61 56.35
1244.426 59.09 61.85 64.19 65.89 66.93 67.28 67.21 66.7 65.84 64.82
1263.720 63.8 63.05 62.84 63.04 63.68 64.73 66.15 67.74 69.23 70.36
1283.013 70.97 70.92 69.92 68.04 65.32 61.99 58.37 54.62 51.08 47.79
1302.307 44.56 41.51 38.5 35.39 32.38 29.42 26.58 24.07 21.89 19.95
1321.600 18.3 16.89 15.77 14.82 13.96 13.29 12.78 12.38 12 11.71
1340.894 11.52 11.39 11.33 11.2 11.14 11.29 11.49 11.76 12.14 12.74
1360.187 13.45 14.24 15.25 16.35 17.4 18.32 19.19 19.96 20.68 21.4
1379.480 22.15 22.9 23.54 24.03 24.11 23.73 23.09 22.21 21.26 20.37
1398.774 19.66 19.18 18.88 18.88 19.02 19.3 19.82 20.47 21.28 22.18
1418.067 23.11 24.18 25.24 26.32 27.4 28.34 29.2 29.91 30.47 30.85
1437.361 31.08 31.25 31.35 31.35 31.26 31.13 31.03 30.88 30.7 30.57
1456.654 30.38 30.16 29.93 29.72 29.55 29.31 29.01 28.65 28.1 27.46
1475.948 26.75 25.86 24.92 23.93 22.85 21.76 20.82 19.88 18.99 18.3
1495.241 17.65 17.09 16.71 16.44 16.19 15.94 15.75 15.67 15.59 15.51
1514.534 15.51 15.55 15.55 15.53 15.54 15.55 15.56 15.6 15.69 15.73
1533.828 15.79 15.94 16.08 16.33 16.59 16.87 17.26 17.68 18.08 18.44
1553.121 18.81 19.17 19.52 19.93 20.36 20.7 20.88 21.01 21.19 21.23
1572.415 21.11 20.96 20.8 20.64 20.45 20.36 20.47 20.77 21.45 22.6
1591.708 24.32 26.71 30.01 34.35 39.76 46.31 53.4 60.1 65.18 67.3
1611.002 65.82 60.91 53.37 43.98 34.51 26.45 20.29 16.21 13.68 12
1630.295 10.9 10.26 9.75 9.37 9.16 9.07 9.05 9.08 9.23 9.42
1649.588 9.64 9.9 10.27 10.68 11.15 11.7 12.3 13.01 13.87 14.74
1668.882 15.72 16.92 18.17 19.44 20.86 22.4 24.02 25.65 27.51 29.69
1688.175 32.03 34.74 37.93 41.61 46.3 51.89 58.7 67.47 77.78 90.54
1707.469 105.26 121.29 137.46 152.07 163.25 169.36 169.91 165.68 157.76 148.46
1726.762 140 134.25 132.47 135.4 143.23 154.46 166.79 177.86 184.6 185.43
1746.056 179.9 169.68 157.86 147.5 141.1 138.96 139.71 141.3 141.44 138.48
1765.349 131.46 120.41 106.41 91.2 75.89 62.52 51.47 42.66 35.92 30.75
1784.642 26.63 23.34 20.76 18.61 16.82 15.32 14.08 12.97 11.96 11.13
1803.936 10.35 9.59 8.94 8.37 7.82 7.29 6.86 6.41 6.01 5.69
1823.229 5.33 5.03 4.77 4.52 4.34 4.18 4.04 3.95 3.84 3.72
1842.523 3.66 3.6 3.53 3.5155 3.5043 3.4688 3.4891 3.5089 3.4874 3.4912
1861.816 3.5272 3.55 3.61 3.68 3.69 3.76 3.84 3.87 3.93 4.03
1881.110 4.08 4.07 4.04 4.04 4.03 3.97 3.9 3.82 3.77 3.63
1900.403 3.446 3.3503 3.2325 3.1287 3.0481 2.9568 2.9084 2.8763 2.7897 2.6876
1919.696 2.6138 2.54401 2.4728 2.401 2.365 2.349 2.331 2.298 2.264 2.265
1938.990 2.287 2.264 2.271 2.26 2.244 2.292 2.291 2.251 2.185 2.157
1958.283 2.146 2.082 2.025 1.949 1.862 1.87 1.92 1.857 1.814 1.798
1977.577 1.746 1.742 1.745 1.742 1.733 1.708 1.679 1.684 1.713 1.734
1996.870 1.743 1.782 1.842 1.867 1.871 1.858 1.839 1.849 1.827 1.79
2016.164 1.793 1.806 1.789 1.754 1.751 1.779 1.798 1.768 1.749 1.755
2035.457 1.768 1.787 1.782 1.793 1.788 1.826 1.906 1.94 1.983 2.052
2054.750 2.093 2.095 2.131 2.169 2.161 2.138 2.13 2.139 2.132 2.118
2074.044 2.112 2.091 2.043 2.011 1.966 1.948 1.952 1.909 1.823 1.811
2093.337 1.855 1.808 1.797 1.81 1.823 1.842 1.813 1.837 1.892 1.928
2112.631 1.947 1.954 1.969 1.981 2.008 2.046 2.088 2.094 2.066 2.056
2131.924 2.084 2.113 2.066 2.014 2.025 2.028 1.974 1.92 1.919 1.885
2151.218 1.846 1.842 1.824 1.815 1.823 1.834 1.815 1.762 1.756 1.792
2170.511 1.783 1.757 1.729 1.697 1.638 1.585 1.557 1.535 1.49 1.4
2189.804 1.32 1.27 1.23 1.23 1.26 1.28 1.28 1.28 1.28 1.29
2209.098 1.35 1.45 1.48 1.44 1.44 1.45 1.48 1.5 1.48 1.48
2228.391 1.48 1.5 1.51 1.48 1.45 1.45 1.47 1.46 1.45 1.41
2247.685 1.38 1.39 1.4 1.4 1.39 1.35 1.36 1.33 1.27 1.26
2266.978 1.27 1.24 1.22 1.24 1.25 1.24 1.26 1.25 1.21 1.19
2286.272 1.18 1.17 1.15 1.16 1.16 1.17 1.17 1.18 1.25 1.25
2305.565 1.26 1.3 1.31 1.32 1.36 1.42 1.47 1.5 1.47 1.48
2324.858 1.538 1.51 1.48 1.49 1.44 1.43 1.5 1.48 1.44 1.47
2344.152 1.45 1.44 1.45 1.43 1.41 1.42 1.4 1.37 1.41 1.45
2363.445 1.43 1.43 1.48 1.52 1.578 1.61 1.644 1.736 1.805 1.819
2382.739 1.818 1.874 1.942 1.952 1.986 2.047 2.097 2.128 2.187 2.231
2402.032 2.231 2.265 2.279 2.296 2.304 2.29 2.279 2.304 2.306 2.32
2421.326 2.326 2.317 2.333 2.303 2.315 2.295 2.254 2.299 2.33 2.303
2440.619 2.273 2.215 2.157 2.189 2.184 2.126 2.115 2.099 2.044 2.021
2459.912 2.041 2.076 2.069 2.038 2.042 2.064 2.08 2.102 2.125 2.075
2479.206 2.024 2.025 2.042 2.03 1.978 1.917 1.867 1.883 1.85 1.814
2498.499 1.756 1.684 1.689 1.653 1.606 1.601 1.52 1.51 1.5 1.41
2517.793 1.4 1.34 1.39 1.47 1.41 1.33 1.28 1.28 1.27 1.28
2537.086 1.31 1.27 1.21 1.19 1.17 1.21 1.24 1.2 1.15 1.12
2556.380 1.1 1.12 1.17 1.17 1.16 1.18 1.22 1.21 1.2 1.22
2575.673 1.15 1.11 1.1 1.1 1.07 1.04 1.07 1.07 1.03 1.07
2594.966 1.13 1.14 1.14 1.14 1.06 1.04 1.07 1 0.98 0.98
2614.260 1.01 1.05 1.06 1.08 1.1 1.12 1.14 1.12 1.13 1.15
2633.553 1.11 1.06 1.15 1.19 1.14 1.2 1.26 1.24 1.2 1.24
2652.847 1.25 1.31 1.36 1.28 1.29 1.4 1.4 1.36 1.38 1.46
2672.140 1.552 1.587 1.573 1.573 1.556 1.563 1.571 1.52 1.47 1.48
2691.434 1.5 1.48 1.41 1.37 1.38 1.4 1.43 1.5 1.49 1.51
2710.727 1.623 1.685 1.746 1.793 1.814 1.967 2.105 2.179 2.386 2.55414
2730.020 2.698 2.855 3.1023 3.4117 3.68 3.95 4.06 4.12 4.26 4.35
2749.314 4.28 4.02 3.82 3.76 3.63 3.3817 3.2001 3.1252 2.9691 2.9048
2768.607 2.9198 2.8995 2.8708 2.8063 2.783 2.7996 2.7531 2.7663 2.8141 2.7945
2787.901 2.801 2.8587 2.9176 2.9254 3.0232 3.215 3.3629 3.4528 3.53 3.62
2807.194 3.73 3.88 4.06 4.17 4.28 4.51 4.7 4.87 5.14 5.3
2826.488 5.4 5.62 5.86 6.2 6.58 6.95 7.36 7.82 8.34 8.99
2845.781 9.79 10.5 11.4 12.53 13.74 15.17 16.63 18.32 20.2 22.15
2865.074 24.08 25.99 27.76 29.1 30.14 30.74 30.98 31 30.88 30.81
2884.368 30.58 30.33 30.09 29.9 29.84 29.76 29.91 30.32 30.93 31.72
2903.661 32.72 33.9 35.3 36.91 38.67 40.59 42.82 45.44 48.29 51.56
2922.955 55.27 59.32 63.46 67.26 70.51 72.94 74.46 75 74.72 73.65
2942.248 71.74 69.17 66.2 62.84 59.3 55.89 52.69 50.11 48.25 47.14
2961.542 46.79 47.26 48.22 49.38 50.85 52.69 55.04 57.72 60.83 64.56
2980.835 68.84 73.19 76.8 78.91 79.21 77.76 74.78 71.11 67.18 63.56
3000.128 60.87 58.69 56.84 55.25 53.97 52.82 51.67 50.75 49.9 49.05
3019.422 48.22 47.19 45.73 44.21 42.52 40.58 38.87 37.32 35.92 34.8
3038.715 33.59 32.12 30.67 29.22 27.52 25.68 23.92 22.12 20.34 18.63
3058.009 17.11 15.74 14.57 13.61 12.7 11.84 11.18 10.58 10.03 9.62
3077.302 9.09 8.57 8.26 7.95 7.6 7.28 6.99 6.72 6.42 6.07
3096.596 5.83 5.53 5.1 4.9 4.76 4.47 4.15 4.03 3.89 3.75
3115.889 3.58 3.2442 3.2241 3.2641 2.9342 2.7831 2.8107 2.6467 2.55722 2.422
3135.182 2.23 2.06 2.073 2 1.85 1.879 1.854 1.629 1.574 1.722
3154.476 1.662 1.567 1.41 1.39 1.45 1.4 1.25 1.23 1.19 0.98
3173.769 0.84 0.73 0.73 0.78 0.8 0.92 0.91 0.75 0.71 0.72
3193.063 0.78 0.84 0.73 0.6 0.54 0.48 0.48 0.46 0.49 0.47
3212.356 0.37 0.43 0.38 0.31 0.37 0.33 0.26 0.21 0.15 0.21
3231.650 0.48 0.62 0.46 0.3 0.13 0.19 0.32 0.11 0.01 0.05
3250.943 0.15 0.2 0.21 0.12 0.01 0.1 0.17 0.14 0.12 0.1
3270.236 0.22 0.37 0.31 0.23 0.11 0.14 0.3 0.39 0.31 0.15
3289.530 0 0.06 0.31 0.29 0.14 0.14 0.07 0.06 0.19 0.19
3308.823 0.27 0.32 0.23 0.27 0.36 0.27 0.49 0.55 0.36 0.42
3328.117 0.47 0.49 0.46 0.46 0.61 0.58 0.44 0.45 0.46 0.51
3347.410 0.49 0.41 0.57 0.72 0.7 0.77 0.78 0.82 0.89 0.83
3366.704 0.88 0.87 0.83 0.8 0.83 0.96 1.02 1.06 0.95 1.07
3385.997 1.3 1.36 1.33 1.33 1.45 1.653 1.691 1.53 1.6 1.803
3405.290 2.014 2.105 2.035 2.045 2.264 2.318 2.171 2.288 2.313 2.244
3424.584 2.292 2.43 2.333 2.002 1.898 1.852 1.77 1.836 1.794 1.803
3443.877 1.934 1.842 1.824 1.763 1.747 1.797 1.83 1.96 2.059 2.118
3463.171 2.267 2.303 2.263 2.196 2.04 2.011 1.988 1.909 1.864 1.823
3482.464 1.618 1.51 1.638 1.719 1.684 1.742 1.793 1.814 1.751 1.669
3501.758 1.766 1.914 1.904 1.835 1.854 1.709 1.47 1.39 1.39 1.28
3521.051 1.26 1.37 1.26 1.02 0.94 0.88 0.8 0.8 0.73 0.65
3540.344 0.78 0.79 0.71 0.78 0.79 0.69 0.67 0.74 0.79 0.76
3559.638 0.67 0.61 0.64 0.76 0.82 0.73 0.57 0.64 0.64 0.53
3578.931 0.5 0.53 0.52 0.46 0.46 0.52 0.61 0.63 0.63 0.71
3598.225 0.71 0.71 0.66 0.53 0.53 0.62 0.65 0.64 0.5 0.55
3617.518 0.6 0.53 0.63 0.74 0.72 0.8 0.88 0.64 0.51 0.61
3636.812 0.79 0.73 0.72 0.7 0.61 0.65 0.61 0.59 0.57 0.58
3656.105 0.63 0.67 0.6 0.63 0.78 0.75 0.79 0.8 0.67 0.75
3675.398 0.74 0.74 0.77 0.79 0.77 0.64 0.58 0.59 0.82 0.82
3694.692 0.79 0.91 0.81 0.75 0.74 0.76 0.76 0.73 0.76 0.78
3713.985 0.79 0.78 0.78 0.86 0.85 0.87 0.89 0.8 0.79 0.83
3733.279 0.85 0.78 0.86 1.04 0.92 0.81 0.89 0.86 0.82 0.76
3752.572 0.8 1 0.97 0.96 1.02 0.93 0.88 1.01 1.14 1.15
3771.866 1.04 0.95 1.03 1.1 1 0.97 1.01 0.99 0.92 0.98
3791.159 1.04 1.11 1.21 1.09 1.02 1.06 1.04 1.02 1.05 1.13
3810.452 1.15 1.09 1.03 1.08 1.08 1.06 1.08 1.05 1.12 1.22
3829.746 1.15 1.06 1.03 0.96 1.06 1.22 1.13 1.12 1.2 1.32
3849.039 1.38 1.35 1.35 1.22 1.17 1.32 1.37 1.26 1.18 1.24
3868.333 1.22 1.12 1.19 1.23 1.21 1.28 1.26 1.23 1.27 1.31
3887.626 1.25 1.14 1.2 1.35 1.39 1.36 1.32 1.28 1.3 1.29
3906.920 1.42 1.42 1.3 1.31 1.38 1.42 1.4 1.43 1.45 1.48
3926.213 1.47 1.39 1.46 1.51 1.648 1.761 1.739 1.723 1.717 1.747
3945.506 1.681 1.721 1.798 1.813 1.759 1.683 1.73 1.704 1.607 1.643
3964.800 1.79 1.836 1.865 1.967 1.872 1.827 1.796 1.644 1.665 1.745
3984.093 1.753 1.716 1.674 1.726 1.695 1.626 1.61 1.663 1.674
##END=
