##TITLE=Isopropyl nicotinate
##JCAMP-DX=4.24
##DATA TYPE=INFRARED SPECTRUM
##ORIGIN=EPA-IR VAPOR PHASE LIBRARY
##OWNER=SRD/NIST
Collection (C) 2018 copyright by the U.S. Secretary of Commerce
on behalf of the United States of America. All rights reserved.
##CAS REGISTRY NO=553-60-6
##MOLFORM=C 9 H 11 N O 2
##$NIST SOURCE=MSDC-IR
##STATE=gas
##XUNITS=1/CM
##YUNITS=ABSORBANCE
##XFACTOR=1.
##YFACTOR=0.001
##DELTAX=3.85796
##FIRSTX=501.5
##LASTX=4000.7
##FIRSTY=0.5052
##MAXX=4000.7
##MINX=501.534
##MAXY=0.345979
##MINY=0
##NPOINTS=908
##XYDATA=(X++(Y..Y))
501.534 0.5052 0.4966 0.6133 0.7121 0.6417 0.6807 0.6778 0.6084 0.523 0.38592
540.114 0.246 0.174 0.139 0.138 0.106 0.086 0.094 0.16 0.185 0.051
578.693 0 0.047 0.069 0.138 0.211 0.3862 0.6909 1.1425 1.969 2.759
617.273 3.089 3.279 2.969 2.129 1.499 1.1768 1.0428 1.1577 1.32 1.449
655.852 1.649 1.809 1.979 2.239 2.539 3.109 4.299 6.429 9.759 14.169
694.432 18.529 22.229 23.319 20.819 17.339 14.419 12.939 13.869 17.509 23.219
733.011 29.729 36.759 39.599 35.609 29.459 22.769 16.349 11.609 8.729 7.179
771.591 6.239 5.579 5.069 4.669 4.339 4.169 4.139 4.279 4.639 5.239
810.170 6.159 7.309 8.529 9.499 9.869 9.689 9.439 10.019 12.049 14.609
848.750 15.979 15.459 12.969 9.379 6.409 4.639 3.669 3.179 3.039 3.129
887.330 3.439 4.009 4.929 6.459 8.799 11.869 15.209 17.649 17.889 15.769
925.909 12.059 8.159 5.549 4.279 3.629 3.309 3.199 3.219 3.299 3.449
964.489 3.709 3.949 4.169 4.499 5.079 5.849 6.819 7.919 8.889 9.919
1003.068 11.569 14.989 22.339 35.179 46.929 49.639 45.509 33.819 19.679 12.669
1041.648 10.189 8.799 8.309 8.659 9.789 11.819 14.879 19.089 24.209 30.059
1080.227 37.509 48.709 67.009 95.459 132.849 171.599 201.489 215.389 211.699 195.889
1118.807 176.859 158.289 138.769 118.979 99.869 81.619 65.529 52.009 40.749 31.999
1157.387 26.189 23.189 22.669 24.529 28.379 32.549 34.919 34.629 31.189 26.059
1195.966 21.699 18.509 16.529 15.869 16.279 17.579 19.749 22.669 26.009 29.469
1234.546 32.779 35.529 37.739 40.459 45.629 56.549 78.489 118.059 178.219 249.829
1273.125 313.059 345.979 331.689 275.039 201.029 131.159 80.919 52.799 38.549 31.359
1311.705 28.259 28.059 29.769 31.039 30.789 29.329 26.599 24.609 24.839 26.519
1350.284 28.619 29.829 29.579 28.399 27.399 27.699 29.709 32.689 34.329 33.939
1388.864 31.759 27.809 23.699 20.959 21.229 25.839 33.369 38.339 38.099 33.089
1427.443 23.989 16.059 12.109 10.399 9.959 10.379 11.399 12.689 14.289 16.369
1466.023 18.469 19.309 18.599 16.479 13.119 9.799 7.419 5.879 4.919 4.339
1504.603 4.009 3.799 3.689 3.689 3.799 3.969 4.169 4.459 4.859 5.429
1543.182 6.149 7.019 8.009 9.149 10.599 12.549 15.169 18.779 23.599 30.509
1581.762 39.299 46.939 48.279 41.999 30.549 18.109 10.069 6.869 5.649 5.039
1620.341 4.659 4.429 4.349 4.429 4.639 4.879 5.149 5.449 5.699 5.869
1658.921 5.999 6.139 6.349 6.669 7.129 7.789 8.699 9.849 11.129 12.469
1697.500 13.839 15.429 17.579 21.349 28.429 41.389 62.969 95.079 136.839 178.609
1736.080 206.239 212.969 196.429 156.039 107.339 67.339 40.329 24.299 15.849 11.599
1774.659 9.439 8.359 7.809 7.469 7.099 6.579 5.939 5.309 4.759 4.319
1813.239 3.989 3.739 3.529 3.359 3.249 3.169 3.079 2.949 2.779 2.609
1851.819 2.439 2.289 2.169 2.059 1.969 1.899 1.839 1.819 1.899 2.059
1890.398 2.309 2.579 2.779 2.909 3.039 3.239 3.509 3.759 3.829 3.649
1928.978 3.339 3.079 3.009 3.159 3.369 3.549 3.589 3.469 3.269 2.989
1967.557 2.739 2.519 2.279 2.019 1.769 1.539 1.3568 1.2406 1.1605 1.1014
2006.137 1.0373 0.9742 0.9371 0.9371 0.9312 0.9259 0.9214 0.8976 0.8714 0.8334
2044.716 0.8106 0.7718 0.7247 0.7041 0.7036 0.709 0.7169 0.7104 0.7155 0.7357
2083.296 0.7394 0.7547 0.7743 0.8033 0.8723 0.9694 1.0873 1.2087 1.3236 1.439
2121.875 1.519 1.529 1.469 1.3475 1.1829 1.0031 0.859 0.7624 0.6935 0.6455
2160.455 0.6178 0.6058 0.5998 0.6042 0.6137 0.6162 0.6244 0.6622 0.7236 0.7839
2199.035 0.8333 0.8931 0.9636 1.0202 1.0677 1.1185 1.1411 1.1633 1.1862 1.1706
2237.614 1.1368 1.0928 1.0365 0.9732 0.9208 0.872 0.8279 0.8075 0.7993 0.8053
2276.194 0.8194 0.8554 0.9051 0.9512 1.0129 1.0473 1.0283 1.0016 0.9894 0.9603
2314.773 0.8882 0.8066 0.7762 0.7384 0.7166 0.745 0.7631 0.7769 0.8215 0.8818
2353.353 0.9281 0.9849 1.0551 1.1268 1.2201 1.3315 1.419 1.479 1.489 1.429
2391.932 1.389 1.3413 1.2576 1.177 1.0978 0.9982 0.8846 0.7937 0.755 0.724
2430.512 0.6889 0.6856 0.6887 0.6884 0.6636 0.6448 0.6581 0.6817 0.7017 0.7187
2469.092 0.7363 0.7383 0.7286 0.7194 0.7159 0.7229 0.7224 0.7308 0.7592 0.7935
2507.671 0.8162 0.8193 0.8214 0.8138 0.8056 0.8074 0.794 0.7909 0.8043 0.8194
2546.251 0.8199 0.8135 0.829 0.8299 0.8142 0.8141 0.8172 0.8059 0.7776 0.8015
2584.830 0.8345 0.8437 0.8479 0.8335 0.8172 0.8163 0.814 0.8131 0.8094 0.7755
2623.410 0.7286 0.6696 0.6278 0.5842 0.5553 0.5644 0.5841 0.6155 0.6277 0.6122
2661.989 0.6146 0.6324 0.6385 0.633 0.6409 0.6535 0.6609 0.6797 0.7074 0.7408
2700.569 0.7555 0.7526 0.7197 0.7243 0.7652 0.7578 0.7511 0.785 0.877 1.0284
2739.148 1.1699 1.2589 1.3064 1.2961 1.242 1.1837 1.1321 1.0815 1.0784 1.0895
2777.728 1.0723 1.0809 1.082 1.09 1.1334 1.1897 1.2336 1.2621 1.3341 1.429
2816.308 1.519 1.669 1.809 1.859 1.949 2.069 2.199 2.359 2.529 2.729
2854.887 3.029 3.409 3.899 4.559 5.409 6.469 7.629 8.639 9.269 9.439
2893.467 9.249 8.939 8.779 8.799 8.949 9.239 9.809 10.679 11.959 13.819
2932.046 16.199 18.979 21.789 23.609 23.509 21.749 19.179 16.879 16.249 18.039
2970.626 22.959 32.349 46.699 60.889 68.379 67.799 56.989 41.529 29.649 21.289
3009.205 15.699 12.349 10.369 9.189 8.559 8.449 9.109 10.839 13.649 16.739
3047.785 19.069 19.889 18.809 16.359 13.579 11.099 9.289 8.529 9.009 10.349
3086.364 11.649 11.949 10.989 8.919 6.349 4.399 3.349 2.819 2.529 2.399
3124.944 2.359 2.329 2.329 2.349 2.329 2.339 2.309 2.139 1.969 1.849
3163.524 1.729 1.659 1.649 1.669 1.639 1.559 1.519 1.449 1.3369 1.2536
3202.103 1.2533 1.2135 1.109 1.0891 1.0711 0.9466 0.8217 0.7428 0.6313 0.5642
3240.683 0.5899 0.5635 0.4857 0.46841 0.4843 0.46216 0.41313 0.4069 0.44612 0.4254
3279.262 0.3565 0.307 0.3024 0.3262 0.3222 0.2895 0.3273 0.40184 0.41127 0.42247
3317.842 0.44822 0.4866 0.5655 0.5716 0.5028 0.43989 0.40794 0.39705 0.38785 0.42632
3356.421 0.46694 0.46399 0.4747 0.4868 0.4805 0.5054 0.4921 0.5064 0.5534 0.5253
3395.001 0.5383 0.5685 0.5835 0.5903 0.5873 0.647 0.7067 0.7296 0.8008 0.9089
3433.580 1.0276 1.2066 1.409 1.679 2.009 2.309 2.459 2.419 2.249 2.049
3472.160 1.759 1.419 1.1569 1.0012 0.9314 0.8361 0.7265 0.6675 0.6113 0.5565
3510.740 0.5425 0.5047 0.4746 0.41777 0.3456 0.374769 0.377849 0.3419 0.3511 0.3827
3549.319 0.36503 0.3328 0.3246 0.3016 0.3123 0.3338 0.3102 0.3141 0.3143 0.3009
3587.899 0.3021 0.289 0.264 0.251 0.258 0.268 0.2756 0.2774 0.3106 0.3296
3626.478 0.2937 0.3005 0.353 0.3395 0.3287 0.3112 0.241 0.244 0.2728 0.2881
3665.058 0.3296 0.3537 0.36209 0.38048 0.40002 0.43764 0.45936 0.43479 0.39337 0.36284
3703.637 0.38184 0.37914 0.373533 0.43307 0.4645 0.4818 0.4856 0.46574 0.41948 0.37654
3742.217 0.3575 0.36201 0.41522 0.40693 0.42217 0.43739 0.42831 0.42081 0.42667 0.4903
3780.797 0.516 0.5442 0.5656 0.5457 0.5648 0.526 0.4725 0.46142 0.44507 0.38491
3819.376 0.40886 0.46246 0.44851 0.45972 0.4209 0.38035 0.3344 0.3312 0.38356 0.43893
3857.956 0.48 0.4376 0.40892 0.44905 0.46723 0.4865 0.5121 0.46882 0.46882 0.5018
3896.535 0.4907 0.5224 0.538 0.501 0.496 0.4941 0.471 0.46657 0.44344 0.46114
3935.115 0.4882 0.43516 0.42728 0.42281 0.38277 0.46189 0.4774 0.376018 0.3414 0.368833
3973.694 0.4192 0.43233 0.42548 0.42032 0.42638 0.46392 0.45325 0.4726
##END=
