##TITLE=Guaiacol carbonate
##JCAMP-DX=4.24
##DATA TYPE=INFRARED SPECTRUM
##ORIGIN=EPA-IR VAPOR PHASE LIBRARY
##OWNER=SRD/NIST
Collection (C) 2018 copyright by the U.S. Secretary of Commerce
on behalf of the United States of America. All rights reserved.
##CAS REGISTRY NO=553-17-3
##MOLFORM=C 15 H 14 O 5
##$NIST SOURCE=MSDC-IR
##STATE=gas
##XUNITS=1/CM
##YUNITS=ABSORBANCE
##XFACTOR=1.
##YFACTOR=0.001
##DELTAX=1.92934
##FIRSTX=549.9
##LASTX=3999.5
##FIRSTY=8.26
##MAXX=3999.53
##MINX=549.863
##MAXY=0.59892
##MINY=0
##NPOINTS=1789
##XYDATA=(X++(Y..Y))
549.863 8.26 8.24 8.15 8 7.78 7.59 7.3 7.04 6.82 6.79
569.156 6.94 6.89 6.93 7.01 6.91 6.78 6.74 6.69 6.58 6.4
588.450 6.13 5.83 5.57 5.31 5.03 4.7944 4.5317 4.2915 4.1974 4.12341
607.743 4.02844 3.9742 3.872 3.82 3.865 3.847 3.921 4.03352 4.11097 4.3082
627.037 4.6355 5.06 5.61 6.28 6.89 7.35 7.57 7.47 7.06 6.46
646.330 5.74 5.1 4.7068 4.5144 4.4203 4.3598 4.3213 4.3711 4.4872 4.5429
665.624 4.5813 4.6692 4.7811 4.9308 5.2 5.48 5.79 6.3 6.99 7.85
684.917 8.9 10.08 11.24 12.09 12.47 12.34 11.73 10.85 10.07 9.53
704.210 9.28 9.36 9.68 10.27 11.15 12.29 13.7 15.44 17.42 19.71
723.504 22.36 25.62 29.83 35.44 43.21 53.91 67.99 85.44 105.33 125.69
742.797 143.25 153.85 155.02 147.69 134.43 117.91 100.93 85.51 72.57 62.3
762.091 54.31 48.07 43.28 39.59 36.81 34.75 33.14 31.9 30.82 29.52
781.384 27.91 26.04 23.99 21.83 19.72 17.82 16.1 14.6 13.46 12.56
800.678 11.8 11.22 10.73 10.38 10.26 10.24 10.32 10.52 10.8 11.17
819.971 11.67 12.21 12.65 12.98 13.11 13.03 12.71 12.14 11.55 10.98
839.264 10.45 9.97 9.54 9.11 8.64 8.23 7.86 7.54 7.25 7
858.558 6.82 6.67 6.59 6.56 6.59 6.77 7.07 7.42 7.77 8.16
877.851 8.58 8.96 9.27 9.46 9.48 9.27 8.86 8.32 7.76 7.25
897.145 6.82 6.47 6.24 6.07 5.98 6.03 6.13 6.26 6.51 6.84
916.438 7.35 8.06 8.84 9.58 10.12 10.37 10.3 9.95 9.47 8.98
935.732 8.58 8.29 8.08 7.97 7.96 8.04 8.16 8.31 8.59 8.91
955.025 9.23 9.64 10.11 10.63 11.28 12.08 13.04 14.2 15.62 17.3
974.318 19.22 21.35 23.42 25.25 26.7 27.68 28.43 29.25 30.33 31.83
993.612 33.79 35.92 38.07 39.93 41.5 43.1 44.95 47.13 49.71 52.6
1012.905 55.65 58.75 61.57 63.99 66.12 67.95 69.6 71.38 73.48 76.01
1032.199 79.04 82.18 84.71 85.99 85.42 82.77 78.01 71.54 64.07 56.28
1051.492 48.82 42.26 36.81 32.42 28.94 26.28 24.3 22.77 21.66 20.85
1070.786 20.34 20.15 20.34 20.87 21.63 22.81 24.58 26.95 30.19 34.55
1090.079 40.37 48.24 58.55 71.76 88 106.52 125.73 142.92 155.06 159.96
1109.372 156.87 146.73 131.59 114.24 97.35 82.43 70.06 60.38 53.29 48.35
1128.666 45.19 43.42 42.77 43.13 44.71 47.7 52.13 58.55 67.53 80.37
1147.959 98.71 124.16 157.12 194.11 232.31 272.73 317.09 365.64 417.5 467.68
1167.253 504.81 518.59 505.98 471.5 425.78 381.65 348.75 330.73 326.19 331.99
1186.546 343.82 355.88 363.17 363.15 355.6 343.24 330.72 322.28 320.27 325.61
1205.840 337.68 355.22 378.17 407.06 440.55 477.34 515.82 551.99 580.49 597.75
1225.133 598.92 580.74 545.54 497.59 442.96 388.14 339.31 300.83 274.28 259.61
1244.426 255.75 261.52 276.4 299.64 329.72 363.57 396.25 421.61 433.94 431.04
1263.720 415.57 393.45 371.69 355.98 347.5 342.9 336.84 324.59 304.37 276.99
1283.013 245.32 213.57 185.29 162.21 144.58 131.7 122.41 115.6 110.42 106.12
1302.307 102 97.57 92.56 86.89 80.62 73.96 67.21 60.74 54.67 49.17
1321.600 44.36 40.15 36.54 33.45 30.77 28.46 26.44 24.66 23.08 21.74
1340.894 20.64 19.76 18.95 18.24 17.75 17.32 16.9 16.62 16.37 16.16
1360.187 15.99 15.9 15.8 15.72 15.66 15.61 15.56 15.54 15.55 15.58
1379.480 15.67 15.76 15.91 16.11 16.25 16.35 16.48 16.57 16.64 16.68
1398.774 16.7 16.76 16.8 16.87 16.98 17.1 17.32 17.6 17.92 18.37
1418.067 18.93 19.63 20.49 21.56 22.97 24.77 27.12 30.02 33.52 37.56
1437.361 41.92 45.76 48.52 49.96 50.3 50.04 50.08 51.59 55.2 60.43
1456.654 66.37 71.32 73.76 73.53 70.8 66.57 62.46 59.39 57.57 56.85
1475.948 57.44 59.72 64.19 71.65 82.89 98.89 121.02 150.29 187.15 228.77
1495.241 270.83 306.85 327.27 327.5 307.6 272.32 227.88 185.58 150.76 122.97
1514.534 102.05 85.85 73.08 62.88 54.07 46.87 40.82 35.75 31.58 28.21
1533.828 25.41 23.19 21.47 20 18.8 17.85 17.09 16.49 16.02 15.63
1553.121 15.35 15.2 15.16 15.19 15.39 15.8 16.35 17.06 17.96 19.1
1572.415 20.48 22.02 23.79 25.77 27.9 30.15 32.41 34.61 36.71 38.77
1591.708 40.88 43.26 46.03 49.11 52.3 55.13 57.01 57.47 56.23 53.24
1611.002 48.84 43.47 37.82 32.19 27.21 23.12 19.7 17.06 15.04 13.45
1630.295 12.19 11.21 10.43 9.79 9.29 8.89 8.55 8.26 8.01 7.85
1649.588 7.71 7.58 7.49 7.52 7.63 7.71 7.8 7.91 8.04 8.15
1668.882 8.24 8.38 8.52 8.6 8.73 8.92 9.12 9.3 9.52 9.77
1688.175 9.94 10.02 10.04 9.96 9.9 9.85 9.7 9.59 9.53 9.44
1707.469 9.42 9.41 9.42 9.43 9.45 9.44 9.51 9.64 9.74 9.89
1726.762 10.07 10.34 10.7 11.05 11.53 12.11 12.7 13.38 14.07 14.83
1746.056 15.71 16.64 17.54 18.45 19.37 20.26 21.22 22.32 23.57 24.99
1765.349 26.63 28.5 30.66 33.13 36 39.37 43.61 49.05 56.34 66
1784.642 78.6 94.5 113.06 133.35 153.85 172.09 185.25 191.62 191.45 188.05
1803.936 184.96 184.42 186.95 191.14 193.87 191.34 180.81 161.69 136.52 109.41
1823.229 84.52 64.29 49.37 39.16 32.23 27.68 24.58 22.39 20.82 19.64
1842.523 18.69 17.94 17.26 16.61 15.99 15.39 14.8 14.16 13.53 12.9
1861.816 12.27 11.71 11.21 10.79 10.48 10.31 10.27 10.35 10.52 10.72
1881.110 10.88 10.95 10.87 10.67 10.34 9.94 9.53 9.1 8.67 8.29
1900.403 7.99 7.73 7.54 7.4 7.33 7.43 7.63 7.88 8.19 8.54
1919.696 8.81 8.94 8.91 8.66 8.21 7.67 7.13 6.63 6.25 5.95
1938.990 5.71 5.55 5.48 5.46 5.43 5.41 5.39 5.36 5.39 5.44
1958.283 5.48 5.49 5.46 5.46 5.45 5.38 5.37 5.4 5.43 5.49
1977.577 5.58 5.68 5.76 5.94 6.11 6.25 6.41 6.57 6.69 6.81
1996.870 6.91 6.97 7.06 7.14 7.14 7.2 7.25 7.28 7.35 7.4
2016.164 7.43 7.46 7.5 7.55 7.65 7.75 7.81 7.91 8.01 8.09
2035.457 8.21 8.36 8.51 8.67 8.82 8.93 9.04 9.14 9.18 9.16
2054.750 9.11 8.97 8.8 8.6 8.39 8.17 7.93 7.74 7.55 7.34
2074.044 7.12 6.9 6.72 6.55 6.37 6.22 6.07 5.97 5.87 5.79
2093.337 5.74 5.63 5.54 5.46 5.38 5.3 5.22 5.14 5.0298 4.9368
2112.631 4.841 4.784 4.7007 4.6194 4.5991 4.6006 4.5965 4.599 4.6374 4.6787
2131.924 4.7341 4.7759 4.8324 4.9158 4.9891 5.06 5.12 5.19 5.24 5.29
2151.218 5.32 5.35 5.37 5.41 5.44 5.42 5.41 5.44 5.43 5.37
2170.511 5.34 5.33 5.3 5.26 5.26 5.3 5.32 5.37 5.47 5.53
2189.804 5.61 5.72 5.8 5.89 6 6.14 6.32 6.48 6.65 6.84
2209.098 7.02 7.17 7.31 7.38 7.36 7.3 7.23 7.07 6.84 6.55
2228.391 6.25 5.97 5.71 5.5 5.33 5.17 5.05 4.9849 4.9131 4.8554
2247.685 4.7992 4.7579 4.7391 4.7357 4.7337 4.6891 4.6687 4.6674 4.6711 4.6943
2266.978 4.6931 4.6814 4.6934 4.707 4.7009 4.6868 4.6767 4.6572 4.5994 4.5357
2286.272 4.4948 4.4338 4.3227 4.2535 4.2233 4.1577 4.09187 4.04546 4.02772 4.06226
2305.565 4.1269 4.1913 4.2514 4.3337 4.3795 4.3802 4.3419 4.2536 4.1688 4.10295
2324.858 4.03419 3.9753 3.9314 3.883 3.821 3.76 3.744 3.748 3.723 3.669
2344.152 3.636 3.652 3.659 3.651 3.675 3.687 3.674 3.676 3.719 3.784
2363.445 3.806 3.802 3.867 3.9621 4.03181 4.1027 4.1919 4.2475 4.261 4.2994
2382.739 4.3364 4.3256 4.2993 4.2724 4.2389 4.2061 4.1447 4.10161 4.03748 3.9425
2402.032 3.923 3.9355 3.9523 3.9765 3.9652 3.9623 4.0158 4.05014 4.09306 4.1543
2421.326 4.1303 4.12232 4.1523 4.164 4.173 4.1983 4.212 4.2089 4.2128 4.197
2440.619 4.1886 4.2179 4.2081 4.1318 4.08593 4.04768 4.04695 4.04784 3.9919 3.9435
2459.912 3.893 3.842 3.841 3.83 3.775 3.769 3.773 3.755 3.74 3.699
2479.206 3.665 3.668 3.636 3.653 3.688 3.695 3.669 3.642 3.64 3.648
2498.499 3.655 3.644 3.626 3.621 3.66 3.701 3.704 3.718 3.733 3.718
2517.793 3.777 3.884 3.9567 3.994 4.04372 4.09704 4.1651 4.242 4.3262 4.4013
2537.086 4.4434 4.5122 4.6044 4.6494 4.6844 4.7437 4.7925 4.8407 4.9157 4.9965
2556.380 5.02 5.005 5.0125 5.0003 4.97 4.9183 4.8831 4.868 4.7676 4.674
2575.673 4.5857 4.4555 4.3447 4.2 4.07603 4.02543 3.9565 3.858 3.757 3.646
2594.966 3.561 3.51 3.446 3.382 3.312 3.309 3.325 3.25 3.192 3.134
2614.260 3.091 3.076 3.035 2.96 2.88 2.82 2.76 2.72 2.72 2.68
2633.553 2.66 2.62 2.54 2.51 2.54 2.53 2.52 2.45 2.43 2.44
2652.847 2.36 2.31 2.28 2.26 2.28 2.23 2.21 2.22 2.23 2.24
2672.140 2.23 2.23 2.23 2.23 2.19 2.16 2.13 2.13 2.13 2.12
2691.434 2.12 2.08 2.07 2.08 2.07 2.05 2.08 2.1 2.08 2.13
2710.727 2.15 2.14 2.19 2.22 2.25 2.29 2.29 2.32 2.39 2.43
2730.020 2.46 2.49 2.5 2.48 2.55 2.6 2.6 2.61 2.64 2.69
2749.314 2.73 2.77 2.81 2.82 2.84 2.9 2.97 3 2.99 3.048
2768.607 3.133 3.202 3.224 3.252 3.325 3.373 3.507 3.595 3.682 3.847
2787.901 3.9558 4.12006 4.296 4.3887 4.4574 4.5542 4.6043 4.7239 4.9113 5.04
2807.194 5.21 5.44 5.76 6.08 6.45 7.04 7.62 8.26 9.02 9.86
2826.488 10.93 12.25 13.89 15.82 18.12 20.86 23.98 27.21 30.14 32.27
2845.781 33.28 32.99 31.4 28.79 25.66 22.55 19.89 17.65 15.89 14.54
2865.074 13.49 12.77 12.21 11.87 11.68 11.66 11.85 12.1 12.42 12.87
2884.368 13.43 13.99 14.59 15.26 15.87 16.47 17.07 17.7 18.44 19.16
2903.661 19.84 20.56 21.3 22 22.62 23.29 23.86 24.34 24.88 25.38
2922.955 26.09 26.96 28.02 29.41 31.24 33.44 35.94 38.87 41.99 45.2
2942.248 48.16 50.6 52.24 52.77 52.28 50.79 48.57 46.14 43.86 41.83
2961.542 40.16 38.74 37.24 35.63 33.8 31.83 29.86 28.05 26.43 25.09
2980.835 24.05 23.2 22.62 22.28 22.22 22.44 22.87 23.59 24.65 26.06
3000.128 27.6 29.24 30.99 32.54 33.65 33.99 33.4 31.93 29.73 27.14
3019.422 24.71 22.67 20.93 19.76 19.12 18.68 18.52 18.75 19.19 19.76
3038.715 20.58 21.5 22.51 23.54 24.43 25.14 25.48 25.55 25.61 25.62
3058.009 25.67 26.17 27.15 28.53 30.38 32.47 34.62 36.59 38.13 39.09
3077.302 39.3 38.63 37.3 35.38 33.01 30.43 27.64 24.81 21.93 19.14
3096.596 16.75 14.61 12.67 11.16 9.96 8.83 7.96 7.33 6.68 6.15
3115.889 5.67 5.17 4.7705 4.3524 3.9431 3.58 3.274 3.041 2.78 2.53
3135.182 2.31 2.19 2.16 2.01 1.85 1.83 1.82 1.75 1.67 1.6
3154.476 1.49 1.42 1.41 1.37 1.31 1.24 1.18 1.21 1.17 1.15
3173.769 1.13 1.1 1.02 0.86 0.82 0.81 0.76 0.76 0.78 0.7
3193.063 0.7 0.68 0.53 0.48 0.51 0.49 0.45 0.44 0.44 0.42
3212.356 0.33 0.3 0.37 0.41 0.33 0.28 0.3 0.3 0.26 0.16
3231.650 0.13 0.09 0.12 0.27 0.22 0.2 0.18 0.11 0.2 0.25
3250.943 0.2 0.2 0.2 0.16 0.21 0.17 0.17 0.2 0.15 0.13
3270.236 0.23 0.25 0.16 0.2 0.22 0.21 0.26 0.18 0.05 0
3289.530 0.08 0.18 0.15 0.17 0.2 0.27 0.21 0.16 0.25 0.21
3308.823 0.21 0.24 0.22 0.21 0.23 0.16 0.19 0.3 0.24 0.27
3328.117 0.3 0.27 0.3 0.3 0.29 0.33 0.29 0.25 0.28 0.27
3347.410 0.3 0.37 0.46 0.46 0.43 0.4 0.36 0.39 0.48 0.45
3366.704 0.39 0.41 0.34 0.32 0.32 0.37 0.44 0.36 0.39 0.45
3385.997 0.44 0.45 0.45 0.45 0.44 0.5 0.51 0.43 0.48 0.46
3405.290 0.41 0.47 0.53 0.59 0.59 0.54 0.68 0.74 0.59 0.51
3424.584 0.47 0.5 0.56 0.57 0.65 0.59 0.46 0.49 0.56 0.61
3443.877 0.64 0.67 0.72 0.67 0.63 0.69 0.72 0.79 0.72 0.66
3463.171 0.74 0.74 0.73 0.79 0.82 0.86 0.9 0.84 0.85 0.92
3482.464 0.91 0.93 0.95 0.94 0.93 0.95 1.01 1.02 1.03 1.01
3501.758 0.98 1.02 1.05 0.95 0.92 1.05 1.09 1.15 1.21 1.2
3521.051 1.22 1.3 1.26 1.07 1.18 1.36 1.37 1.42 1.46 1.56
3540.344 1.49 1.38 1.46 1.43 1.47 1.55 1.54 1.6 1.71 1.8
3559.638 1.84 1.84 1.9 1.88 1.9 2.07 2.12 2.2 2.29 2.28
3578.931 2.2 2.16 2.16 2.2 2.25 2.23 2.26 2.26 2.24 2.28
3598.225 2.34 2.36 2.46 2.5 2.54 2.54 2.4 2.32 2.33 2.32
3617.518 2.26 2.15 2.13 2.14 2.06 1.99 1.96 1.93 1.93 1.9
3636.812 1.9 1.94 1.92 1.9 1.84 1.75 1.72 1.77 1.86 1.84
3656.105 1.76 1.77 1.78 1.79 1.67 1.61 1.68 1.71 1.73 1.74
3675.398 1.69 1.71 1.74 1.69 1.71 1.76 1.69 1.67 1.71 1.77
3694.692 1.79 1.82 1.82 1.81 1.81 1.75 1.74 1.76 1.72 1.65
3713.985 1.73 1.8 1.82 1.75 1.63 1.72 1.82 1.75 1.71 1.71
3733.279 1.71 1.67 1.62 1.68 1.68 1.64 1.63 1.68 1.73 1.75
3752.572 1.74 1.76 1.86 1.81 1.75 1.77 1.82 1.85 1.84 1.79
3771.866 1.79 1.87 1.9 1.92 1.85 1.76 1.81 1.88 1.9 1.92
3791.159 1.93 1.93 1.89 1.91 1.95 1.96 2.01 1.99 2 1.95
3810.452 1.95 2.01 1.95 1.94 2.03 2.05 2.04 2.04 2 1.98
3829.746 2.06 2.08 2.07 2.13 2.21 2.27 2.24 2.13 2.12 2.24
3849.039 2.3 2.34 2.33 2.29 2.26 2.27 2.37 2.39 2.36 2.33
3868.333 2.32 2.28 2.19 2.27 2.32 2.25 2.26 2.33 2.29 2.24
3887.626 2.28 2.33 2.32 2.34 2.4 2.41 2.39 2.43 2.43 2.47
3906.920 2.51 2.44 2.4 2.38 2.39 2.34 2.36 2.38 2.3 2.31
3926.213 2.29 2.25 2.24 2.29 2.28 2.25 2.29 2.32 2.33 2.34
3945.506 2.31 2.35 2.46 2.51 2.52 2.53 2.56 2.55 2.55 2.58
3964.800 2.55 2.49 2.48 2.53 2.54 2.5 2.5 2.48 2.39 2.37
3984.093 2.46 2.46 2.4 2.43 2.5 2.5 2.43 2.37 2.4
##END=
