##TITLE=1-Cyclohexyl-2-methyl-2-propanol
##JCAMP-DX=4.24
##DATA TYPE=INFRARED SPECTRUM
##ORIGIN=NIST Mass Spectrometry Data Center
##OWNER=NIST Standard Reference Data Program
Collection (C) 2018 copyright by the U.S. Secretary of Commerce
on behalf of the United States of America. All rights reserved.
##CAS REGISTRY NO=5531-30-6
##MOLFORM=C 10 H 20 O
##$NIST SOURCE=MSDC-IR
##SPECTROMETER/DATA SYSTEM=HP-GC/MS/IRD
##STATE=gas
##XUNITS=1/CM
##YUNITS=ABSORBANCE
##XFACTOR=1.0
##YFACTOR=0.000005400
##DELTAX=4.0
##FIRSTX=550.0
##LASTX=3846.0
##FIRSTY=0.000130
##MAXX=3846
##MINX=550
##MAXY=0.054
##MINY=0
##NPOINTS=825
##XYDATA=(X++(Y..Y))
550.0 24 25 29 30 23 16 17 27 33 32
590.0 28 21 30 40 28 21 26 20 18 18
630.0 9 6 6 4 17 25 15 9 15 20
670.0 17 18 12 4 16 20 10 13 15 11
710.0 6 5 4 4 9 11 20 33 54 75
750.0 94 114 119 115 108 86 64 48 39 36
790.0 27 20 17 16 13 11 20 39 54 68
830.0 95 122 145 151 146 139 118 107 117 129
870.0 148 191 241 289 347 412 486 564 631 656
910.0 632 572 495 421 365 329 308 305 324 365
950.0 403 419 412 379 333 297 272 252 229 196
990.0 160 131 107 91 83 84 88 94 103 113
1030.0 123 129 137 144 148 163 182 198 222 254
1070.0 286 320 360 390 408 437 470 504 549 602
1110.0 660 712 761 800 828 848 864 873 875 871
1150.0 864 857 844 826 802 776 739 711 695 676
1190.0 669 667 661 653 647 648 656 658 655 648
1230.0 636 613 590 576 563 557 561 557 549 539
1270.0 522 507 497 496 490 474 463 457 452 458
1310.0 472 482 485 486 482 472 461 459 470 494
1350.0 535 595 688 812 943 1045 1089 1077 1011 889
1390.0 737 572 423 324 267 233 213 207 221 249
1430.0 293 368 488 648 798 917 968 924 838 726
1470.0 602 479 368 280 208 157 124 100 82 62
1510.0 55 54 47 40 39 42 38 25 18 25
1550.0 29 20 8 19 24 24 20 19 27 24
1590.0 26 25 24 21 21 23 20 17 20 20
1630.0 19 12 14 19 14 5 8 23 24 21
1670.0 22 18 19 11 10 21 13 3 8 17
1710.0 21 17 11 17 19 10 4 9 12 12
1750.0 10 9 10 11 13 9 12 17 16 16
1790.0 13 8 10 14 17 18 17 16 12 11
1830.0 13 12 11 9 9 13 11 8 9 7
1870.0 9 14 13 13 13 9 7 11 10 6
1910.0 4 4 6 5 6 7 5 4 5 5
1950.0 3 5 5 3 3 3 3 4 3 2
1990.0 3 3 2 2 0 1 5 3 1 3
2030.0 2 3 5 7 6 2 2 5 5 5
2070.0 6 4 3 5 2 4 5 4 6 6
2110.0 6 6 4 6 8 10 9 8 8 9
2150.0 10 5 4 3 5 9 11 9 6 6
2190.0 3 3 5 5 4 5 7 4 4 7
2230.0 7 8 9 8 6 5 7 10 10 7
2270.0 7 9 10 12 11 8 10 11 8 7
2310.0 8 7 7 9 7 7 10 9 5 6
2350.0 8 10 14 17 15 11 14 16 15 13
2390.0 14 14 13 11 8 7 9 13 13 13
2430.0 15 14 13 15 12 14 13 10 12 12
2470.0 10 13 14 16 18 16 17 19 16 12
2510.0 12 14 17 21 22 24 25 26 24 22
2550.0 24 26 23 25 29 29 30 33 35 38
2590.0 42 45 49 52 55 54 54 56 58 62
2630.0 64 65 68 77 86 94 105 115 122 127
2670.0 124 118 112 105 101 97 96 95 93 93
2710.0 90 90 92 94 92 88 87 87 83 86
2750.0 89 89 92 99 108 117 128 141 160 174
2790.0 193 212 227 241 255 273 301 339 388 454
2830.0 542 684 903 1221 1641 2173 2756 3165 3245 3035
2870.0 2626 2193 1915 1809 1845 2000 2266 2656 3159 3774
2910.0 4494 5341 6377 7611 8880 9820 10000 9288 7908 6215
2950.0 4585 3390 2818 2711 2847 3055 3161 3045 2693 2169
2990.0 1611 1143 804 583 438 341 278 233 196 169
3030.0 146 132 126 117 107 96 87 86 85 80
3070.0 77 77 73 70 70 70 68 66 63 63
3110.0 65 64 58 58 58 54 57 58 54 56
3150.0 57 53 51 51 51 54 56 54 50 51
3190.0 54 54 49 45 46 46 48 48 43 40
3230.0 35 39 42 40 38 34 34 33 28 23
3270.0 22 24 25 25 21 21 21 14 10 10
3310.0 10 10 9 13 19 17 19 24 25 23
3350.0 24 26 33 34 32 35 33 28 31 33
3390.0 28 28 36 42 42 36 33 31 30 29
3430.0 30 26 23 28 26 30 30 22 21 23
3470.0 20 20 22 19 17 15 18 21 21 22
3510.0 18 14 14 11 7 7 9 13 11 10
3550.0 7 11 19 10 3 9 18 14 11 8
3590.0 8 12 14 17 22 31 38 53 85 128
3630.0 189 254 294 295 256 198 149 112 86 60
3670.0 37 22 18 23 20 18 24 20 15 12
3710.0 6 8 8 5 9 11 9 9 5 2
3750.0 4 8 21 28 27 23 18 15 11 17
3790.0 17 18 18 11 13 18 23 16 20 32
3830.0 28 19 19 25 27
##END=
