##TITLE=Ethyl 2-pentynoate
##JCAMP-DX=4.24
##DATA TYPE=INFRARED SPECTRUM
##ORIGIN=EPA-IR VAPOR PHASE LIBRARY
##OWNER=SRD/NIST
Collection (C) 2018 copyright by the U.S. Secretary of Commerce
on behalf of the United States of America. All rights reserved.
##CAS REGISTRY NO=55314-57-3
##MOLFORM=C 7 H 10 O 2
##$NIST SOURCE=MSDC-IR
##STATE=gas
##XUNITS=1/CM
##YUNITS=ABSORBANCE
##XFACTOR=1.
##YFACTOR=0.001
##DELTAX=1.92934
##FIRSTX=549.9
##LASTX=3999.5
##FIRSTY=0.373
##MAXX=3999.53
##MINX=549.863
##MAXY=0.025356
##MINY=0
##NPOINTS=1789
##XYDATA=(X++(Y..Y))
549.863 0.373 0.371 0.462 0.472 0.476 0.37 0.366 0.387 0.417 0.497
569.156 0.507 0.397 0.34 0.377 0.367 0.335 0.436 0.522 0.5 0.435
588.450 0.305 0.195 0.27 0.398 0.396 0.397 0.331 0.236 0.328 0.366
607.743 0.328 0.358 0.296 0.28 0.344 0.359 0.324 0.308 0.332 0.321
627.037 0.315 0.29 0.324 0.369 0.355 0.373 0.385 0.405 0.391 0.423
646.330 0.461 0.492 0.543 0.513 0.466 0.438 0.446 0.446 0.48 0.482
665.624 0.478 0.488 0.47 0.445 0.44 0.478 0.447 0.434 0.511 0.533
684.917 0.496 0.467 0.467 0.469 0.46 0.472 0.436 0.44 0.471 0.522
704.210 0.552 0.541 0.531 0.474 0.498 0.533 0.519 0.506 0.516 0.54
723.504 0.525 0.555 0.601 0.626 0.6733 0.6729 0.757112 0.8168 0.80777 0.903
742.797 0.9322 0.9478 1.0033 1.0226 1.0848 1.1368 1.1877 1.1968 1.1653 1.1651
762.091 1.1356 1.1118 1.1158 1.1427 1.1094 1.0448 0.9849 0.9499 0.895 0.82047
781.384 0.82838 0.80044 0.7362 0.7344 0.74659 0.7341 0.7305 0.7458 0.79146 0.81241
800.678 0.76868 0.7264 0.7306 0.76804 0.81581 0.80944 0.79059 0.79512 0.80845 0.8699
819.971 0.84201 0.758221 0.7179 0.7022 0.6867 0.6793 0.636 0.553 0.545 0.535
839.264 0.542 0.529 0.532 0.543 0.531 0.543 0.545 0.609 0.643 0.635
858.558 0.655 0.645 0.6911 0.7071 0.6783 0.6671 0.624 0.617 0.616 0.611
877.851 0.613 0.595 0.558 0.536 0.527 0.534 0.537 0.518 0.512 0.52
897.145 0.534 0.534 0.537 0.554 0.555 0.536 0.504 0.464 0.472 0.51
916.438 0.54 0.553 0.56 0.591 0.596 0.573 0.601 0.59 0.529 0.547
935.732 0.55 0.533 0.59 0.631 0.587 0.571 0.546 0.549 0.613 0.601
955.025 0.559 0.553 0.553 0.55 0.544 0.508 0.496 0.52 0.518 0.518
974.318 0.507 0.534 0.585 0.58 0.554 0.598 0.605 0.579 0.626 0.6693
993.612 0.6676 0.6582 0.7178 0.759474 0.79796 0.83843 0.8621 0.8877 0.8708 0.8696
1012.905 0.9184 0.9975 1.014 0.9889 0.9914 0.9829 0.9906 1.0197 1.0558 1.1238
1032.199 1.2048 1.2822 1.392 1.5694 1.806 2.046 2.306 2.666 3.026 3.266
1051.492 3.436 3.546 3.606 3.596 3.536 3.426 3.266 3.086 2.966 2.946
1070.786 3.096 3.386 3.596 3.836 4.096 4.336 4.566 4.776 4.876 4.866
1090.079 4.786 4.636 4.386 4.086 3.746 3.426 3.196 2.906 2.546 2.236
1109.372 1.986 1.7424 1.5382 1.3828 1.2648 1.206 1.0958 1.0266 0.9792 0.9893
1128.666 1.017 0.9915 0.9846 0.988 0.9631 0.9462 0.9417 0.9227 0.8956 0.8737
1147.959 0.9302 0.9508 0.9648 0.9979 0.9888 1.0049 1.0224 0.9731 0.9988 1.0584
1167.253 1.0417 1.0598 1.1086 1.1217 1.1167 1.1435 1.1524 1.1555 1.2141 1.284
1186.546 1.2726 1.2302 1.2801 1.4006 1.4684 1.513 1.6086 1.739 1.926 2.076
1205.840 2.206 2.316 2.546 2.916 3.306 3.726 4.196 4.746 5.546 6.516
1225.133 7.516 8.886 10.656 12.696 14.966 17.316 19.736 22.026 23.776 24.926
1244.426 25.356 25.006 23.946 22.156 19.846 17.106 14.206 11.526 9.186 7.316
1263.720 5.896 4.776 3.946 3.406 2.926 2.516 2.266 2.156 2.026 1.876
1283.013 1.816 1.7503 1.684 1.6552 1.6559 1.6706 1.6608 1.6617 1.695 1.766
1302.307 1.866 1.946 2.076 2.226 2.356 2.506 2.656 2.746 2.746 2.696
1321.600 2.576 2.456 2.256 1.996 1.7086 1.4643 1.2465 1.0759 0.9957 0.9149
1340.894 0.8765 0.81327 0.7708 0.78156 0.80589 0.84859 0.83456 0.8581 0.9502 1.031
1360.187 1.1598 1.3114 1.4122 1.4423 1.4642 1.4738 1.4744 1.4774 1.3684 1.214
1379.480 1.0875 1.0043 0.9602 0.9477 0.9343 0.8805 0.8629 0.8993 0.9302 0.9081
1398.774 0.917 0.9439 0.9134 0.9032 0.905 0.9013 0.8858 0.8631 0.8706 0.84884
1418.067 0.8779 0.8728 0.84094 0.8816 0.8628 0.83134 0.83642 0.8701 0.9032 0.9356
1437.361 0.9538 0.9555 0.9327 0.9372 0.9402 0.9661 1.0044 1.0003 1.0295 1.1081
1456.654 1.138 1.096 1.1126 1.1752 1.2273 1.1957 1.1705 1.2137 1.2366 1.2176
1475.948 1.1847 1.1229 1.0573 1.0139 0.9274 0.8701 0.8864 0.8731 0.85271 0.8419
1495.241 0.80525 0.77037 0.755218 0.737 0.6863 0.7107 0.77597 0.75474 0.7317 0.6717
1514.534 0.614 0.626 0.654 0.688 0.6569 0.612 0.602 0.594 0.599 0.573
1533.828 0.536 0.548 0.6 0.636 0.615 0.575 0.543 0.497 0.537 0.613
1553.121 0.607 0.595 0.644 0.6927 0.623 0.573 0.566 0.573 0.597 0.582
1572.415 0.549 0.532 0.534 0.522 0.509 0.503 0.505 0.521 0.513 0.483
1591.708 0.488 0.507 0.515 0.523 0.528 0.523 0.51 0.506 0.514 0.527
1611.002 0.546 0.551 0.581 0.629 0.605 0.59 0.596 0.576 0.589 0.636
1630.295 0.653 0.649 0.6654 0.6874 0.656 0.628 0.629 0.646 0.6856 0.6889
1649.588 0.686 0.7394 0.758865 0.6642 0.639 0.6701 0.6962 0.7163 0.6799 0.6975
1668.882 0.760048 0.77827 0.77507 0.8278 0.8599 0.8724 0.8961 0.9447 1.0403 1.0092
1688.175 0.9952 1.0792 1.1412 1.2618 1.3951 1.5073 1.6829 1.776 1.926 2.196
1707.469 2.456 2.776 3.236 3.786 4.396 5.086 5.816 6.556 7.416 8.346
1726.762 9.156 9.706 9.986 10.016 10.016 10.056 10.016 9.716 8.966 7.976
1746.056 6.996 6.116 5.346 4.646 4.036 3.496 3.006 2.556 2.136 1.816
1765.349 1.5969 1.4384 1.3039 1.1468 1.0532 0.9885 0.9301 0.8996 0.8819 0.84736
1784.642 0.82477 0.81277 0.83034 0.81743 0.77628 0.756299 0.7218 0.7379 0.7327 0.6895
1803.936 0.6921 0.6776 0.6651 0.6587 0.625 0.607 0.609 0.6 0.573 0.576
1823.229 0.619 0.631 0.638 0.62 0.617 0.628 0.576 0.572 0.559 0.541
1842.523 0.577 0.564 0.527 0.553 0.572 0.566 0.553 0.595 0.619 0.558
1861.816 0.545 0.575 0.614 0.599 0.581 0.577 0.553 0.548 0.567 0.534
1881.110 0.506 0.531 0.53 0.525 0.516 0.557 0.57 0.524 0.519 0.524
1900.403 0.54 0.542 0.539 0.554 0.536 0.535 0.533 0.536 0.544 0.541
1919.696 0.539 0.531 0.524 0.546 0.554 0.527 0.543 0.557 0.548 0.555
1938.990 0.529 0.512 0.517 0.529 0.533 0.523 0.531 0.542 0.523 0.515
1958.283 0.516 0.502 0.498 0.491 0.504 0.53 0.535 0.507 0.494 0.514
1977.577 0.525 0.501 0.477 0.458 0.456 0.451 0.468 0.508 0.513 0.487
1996.870 0.487 0.491 0.478 0.479 0.467 0.449 0.455 0.485 0.482 0.469
2016.164 0.476 0.488 0.497 0.524 0.519 0.51 0.493 0.478 0.516 0.526
2035.457 0.505 0.505 0.538 0.52 0.467 0.464 0.469 0.498 0.537 0.545
2054.750 0.547 0.526 0.509 0.497 0.46 0.439 0.449 0.475 0.477 0.505
2074.044 0.526 0.485 0.501 0.524 0.517 0.544 0.553 0.556 0.547 0.539
2093.337 0.535 0.524 0.534 0.543 0.539 0.511 0.504 0.516 0.521 0.533
2112.631 0.575 0.565 0.516 0.528 0.553 0.534 0.509 0.537 0.56 0.551
2131.924 0.524 0.54 0.582 0.58 0.582 0.58 0.572 0.549 0.546 0.545
2151.218 0.577 0.62 0.583 0.557 0.568 0.571 0.599 0.624 0.62 0.6567
2170.511 0.6588 0.6572 0.6621 0.638 0.653 0.6609 0.6759 0.7024 0.7311 0.759452
2189.804 0.78368 0.79845 0.8175 0.8727 0.9258 0.9935 1.0419 1.1073 1.19 1.2617
2209.098 1.3464 1.4719 1.6488 1.816 2.026 2.266 2.456 2.666 2.966 3.256
2228.391 3.456 3.636 3.766 3.796 3.786 3.706 3.526 3.316 3.086 2.846
2247.685 2.556 2.316 2.076 1.826 1.6615 1.5066 1.3862 1.3098 1.2196 1.1178
2266.978 1.0488 0.9682 0.9284 0.8924 0.83505 0.833 0.80992 0.77467 0.77771 0.743
2286.272 0.7049 0.7421 0.78008 0.77186 0.762779 0.76875 0.75627 0.760176 0.77287 0.77231
2305.565 0.7325 0.7335 0.78542 0.77889 0.74605 0.7233 0.7094 0.7103 0.7382 0.7345
2324.858 0.7113 0.7282 0.7276 0.7195 0.7054 0.6563 0.647 0.6636 0.6609 0.6585
2344.152 0.649 0.61 0.586 0.588 0.554 0.549 0.586 0.602 0.597 0.59
2363.445 0.588 0.559 0.552 0.547 0.527 0.539 0.554 0.542 0.476 0.504
2382.739 0.53 0.499 0.489 0.497 0.518 0.499 0.501 0.538 0.546 0.528
2402.032 0.503 0.502 0.526 0.492 0.478 0.481 0.483 0.487 0.487 0.487
2421.326 0.471 0.476 0.485 0.479 0.487 0.483 0.475 0.464 0.453 0.451
2440.619 0.464 0.477 0.478 0.493 0.516 0.489 0.455 0.462 0.475 0.495
2459.912 0.456 0.442 0.465 0.46 0.453 0.475 0.5 0.488 0.476 0.457
2479.206 0.458 0.483 0.482 0.471 0.504 0.547 0.525 0.486 0.443 0.444
2498.499 0.477 0.451 0.424 0.457 0.443 0.432 0.489 0.465 0.443 0.455
2517.793 0.503 0.502 0.442 0.459 0.476 0.446 0.431 0.417 0.419 0.444
2537.086 0.451 0.462 0.471 0.443 0.457 0.494 0.468 0.46 0.434 0.424
2556.380 0.443 0.455 0.476 0.448 0.429 0.429 0.432 0.446 0.446 0.454
2575.673 0.451 0.432 0.421 0.436 0.445 0.465 0.462 0.431 0.468 0.481
2594.966 0.452 0.454 0.456 0.429 0.415 0.418 0.42 0.465 0.457 0.441
2614.260 0.45 0.44 0.46 0.478 0.478 0.448 0.45 0.493 0.492 0.448
2633.553 0.414 0.409 0.446 0.458 0.411 0.378 0.387 0.403 0.442 0.503
2652.847 0.485 0.443 0.414 0.397 0.44 0.451 0.437 0.401 0.389 0.443
2672.140 0.45 0.444 0.478 0.486 0.501 0.51 0.465 0.422 0.437 0.438
2691.434 0.406 0.388 0.346 0.352 0.392 0.371 0.384 0.417 0.461 0.477
2710.727 0.485 0.442 0.381 0.455 0.497 0.494 0.451 0.404 0.407 0.424
2730.020 0.495 0.455 0.325 0.362 0.462 0.45 0.441 0.463 0.404 0.425
2749.314 0.448 0.434 0.434 0.43 0.456 0.437 0.448 0.468 0.463 0.478
2768.607 0.464 0.428 0.414 0.41 0.407 0.459 0.498 0.468 0.428 0.455
2787.901 0.477 0.432 0.446 0.488 0.443 0.404 0.444 0.488 0.47 0.392
2807.194 0.325 0.366 0.425 0.439 0.448 0.403 0.309 0.346 0.469 0.463
2826.488 0.493 0.541 0.554 0.624 0.572 0.542 0.595 0.572 0.551 0.552
2845.781 0.606 0.638 0.593 0.613 0.574 0.585 0.637 0.608 0.604 0.639
2865.074 0.6671 0.6951 0.79303 0.78531 0.7126 0.7402 0.81735 0.84297 0.9079 0.9531
2884.368 0.9771 1.0245 1.0125 1.0445 1.1853 1.2294 1.1463 1.1572 1.2036 1.2715
2903.661 1.3022 1.2501 1.2797 1.2453 1.2265 1.2915 1.311 1.2701 1.2752 1.3528
2922.955 1.4133 1.5135 1.5489 1.4727 1.4573 1.5665 1.6399 1.6424 1.7218 1.7418
2942.248 1.776 1.966 2.036 2.096 2.146 2.176 2.216 2.106 2.046 1.936
2961.542 1.936 1.996 1.946 1.816 1.876 2.106 2.196 2.256 2.416 2.716
2980.835 2.976 3.196 3.416 3.426 3.326 3.356 3.316 3.156 2.906 2.596
3000.128 2.226 2.086 1.926 1.756 1.7467 1.5162 1.344 1.2954 1.1843 1.1495
3019.422 1.0787 1.0863 1.1258 0.9828 0.80956 0.77787 0.7031 0.591 0.616 0.6562
3038.715 0.583 0.504 0.467 0.397 0.468 0.494 0.553 0.577 0.455 0.42
3058.009 0.42 0.516 0.544 0.402 0.353 0.507 0.541 0.44 0.454 0.422
3077.302 0.36 0.322 0.404 0.503 0.475 0.447 0.355 0.303 0.342 0.378
3096.596 0.339 0.286 0.308 0.348 0.326 0.319 0.421 0.464 0.41 0.34
3115.889 0.335 0.249 0.234 0.306 0.258 0.301 0.37 0.514 0.458 0.296
3135.182 0.346 0.372 0.422 0.461 0.434 0.437 0.364 0.324 0.358 0.312
3154.476 0.326 0.352 0.307 0.336 0.348 0.298 0.317 0.189 0 0.182
3173.769 0.314 0.34 0.389 0.303 0.233 0.236 0.393 0.472 0.433 0.355
3193.063 0.266 0.273 0.294 0.24 0.194 0.185 0.298 0.272 0.218 0.213
3212.356 0.219 0.281 0.248 0.207 0.213 0.281 0.255 0.215 0.293 0.265
3231.650 0.268 0.347 0.295 0.265 0.182 0.109 0.236 0.32 0.229 0.246
3250.943 0.351 0.297 0.264 0.252 0.073 0.058 0.202 0.253 0.257 0.275
3270.236 0.395 0.505 0.408 0.248 0.153 0.164 0.096 0.142 0.366 0.296
3289.530 0.218 0.252 0.241 0.125 0.121 0.218 0.144 0.109 0.225 0.234
3308.823 0.286 0.408 0.306 0.179 0.177 0.229 0.169 0.194 0.311 0.276
3328.117 0.219 0.213 0.252 0.289 0.254 0.262 0.253 0.253 0.27 0.271
3347.410 0.313 0.261 0.262 0.282 0.2 0.192 0.233 0.177 0.171 0.269
3366.704 0.236 0.163 0.202 0.266 0.231 0.134 0.244 0.366 0.378 0.341
3385.997 0.295 0.321 0.25 0.113 0.161 0.263 0.307 0.342 0.25 0.254
3405.290 0.29 0.304 0.345 0.224 0.166 0.278 0.273 0.206 0.325 0.359
3424.584 0.244 0.333 0.391 0.352 0.426 0.354 0.298 0.251 0.201 0.363
3443.877 0.373 0.295 0.261 0.252 0.303 0.424 0.396 0.35 0.372 0.271
3463.171 0.189 0.229 0.335 0.361 0.337 0.346 0.366 0.295 0.272 0.322
3482.464 0.342 0.295 0.281 0.258 0.299 0.407 0.383 0.393 0.368 0.358
3501.758 0.405 0.326 0.299 0.238 0.192 0.155 0.174 0.31 0.242 0.288
3521.051 0.293 0.177 0.212 0.297 0.374 0.357 0.341 0.288 0.256 0.345
3540.344 0.322 0.275 0.277 0.158 0.117 0.228 0.288 0.348 0.382 0.375
3559.638 0.341 0.258 0.164 0.36 0.521 0.368 0.347 0.34 0.379 0.412
3578.931 0.341 0.334 0.228 0.146 0.262 0.32 0.332 0.272 0.267 0.25
3598.225 0.244 0.329 0.403 0.438 0.443 0.388 0.248 0.198 0.306 0.427
3617.518 0.394 0.325 0.365 0.49 0.491 0.441 0.426 0.43 0.411 0.377
3636.812 0.42 0.442 0.342 0.354 0.366 0.39 0.403 0.33 0.411 0.401
3656.105 0.307 0.329 0.407 0.388 0.38 0.378 0.269 0.24 0.303 0.334
3675.398 0.453 0.58 0.525 0.486 0.453 0.421 0.482 0.506 0.476 0.377
3694.692 0.311 0.347 0.301 0.28 0.316 0.333 0.436 0.463 0.408 0.304
3713.985 0.258 0.413 0.469 0.383 0.367 0.378 0.425 0.481 0.484 0.5
3733.279 0.48 0.508 0.494 0.407 0.417 0.453 0.45 0.446 0.466 0.513
3752.572 0.482 0.336 0.339 0.458 0.526 0.564 0.517 0.375 0.27 0.295
3771.866 0.35 0.362 0.399 0.511 0.57 0.539 0.448 0.415 0.389 0.378
3791.159 0.417 0.342 0.3 0.38 0.411 0.377 0.357 0.36 0.44 0.474
3810.452 0.442 0.436 0.428 0.434 0.468 0.522 0.447 0.42 0.482 0.382
3829.746 0.372 0.469 0.491 0.52 0.524 0.496 0.469 0.523 0.562 0.512
3849.039 0.488 0.453 0.491 0.6 0.546 0.447 0.466 0.445 0.494 0.487
3868.333 0.518 0.518 0.421 0.466 0.431 0.358 0.416 0.456 0.475 0.473
3887.626 0.416 0.376 0.373 0.462 0.429 0.438 0.48 0.414 0.463 0.421
3906.920 0.383 0.488 0.493 0.429 0.436 0.413 0.421 0.496 0.409 0.349
3926.213 0.359 0.372 0.391 0.385 0.417 0.439 0.454 0.517 0.533 0.45
3945.506 0.41 0.425 0.367 0.374 0.433 0.405 0.336 0.34 0.462 0.483
3964.800 0.464 0.446 0.392 0.407 0.455 0.539 0.504 0.451 0.515 0.547
3984.093 0.498 0.399 0.408 0.422 0.36 0.376 0.481 0.51 0.529
##END=
