##TITLE=Phenyl vinyl sulfone
##JCAMP-DX=4.24
##DATA TYPE=INFRARED SPECTRUM
##ORIGIN=NIST Mass Spectrometry Data Center
##OWNER=NIST Standard Reference Data Program
Collection (C) 2018 copyright by the U.S. Secretary of Commerce
on behalf of the United States of America. All rights reserved.
##CAS REGISTRY NO=5535-48-8
##MOLFORM=C 8 H 8 O 2 S
##$NIST SOURCE=MSDC-IR
##SPECTROMETER/DATA SYSTEM=HP-GC/MS/IRD
##STATE=gas
##XUNITS=1/CM
##YUNITS=ABSORBANCE
##XFACTOR=1.0
##YFACTOR=0.000001200
##DELTAX=4.0
##FIRSTX=550.0
##LASTX=3846.0
##FIRSTY=0.001248
##MAXX=3846
##MINX=550
##MAXY=0.012
##MINY=0
##NPOINTS=825
##XYDATA=(X++(Y..Y))
550.0 1040 2179 2182 2226 1947 1501 1163 901 722 617
590.0 414 346 386 376 468 585 674 831 1081 1337
630.0 1612 1970 2272 2401 2267 1962 1534 1073 865 853
670.0 929 1107 1463 2000 2566 3110 3497 3467 3012 2369
710.0 1761 1384 1310 1655 2654 4218 5898 6915 6954 6088
750.0 4730 3817 3655 3696 3513 2966 2133 1300 823 623
790.0 480 411 332 240 144 79 74 35 31 41
830.0 0 13 32 28 10 6 14 27 66 75
870.0 72 62 44 34 37 68 66 71 99 71
910.0 58 84 100 119 124 144 210 292 373 481
950.0 627 871 1226 1628 1913 2042 1883 1384 876 548
990.0 386 340 337 332 295 261 289 351 377 350
1030.0 324 275 171 177 211 171 210 311 360 426
1070.0 552 748 1012 1361 1689 1834 1740 1437 1057 719
1110.0 483 400 382 384 451 653 1010 1515 2474 4082
1150.0 6287 8564 9967 10000 8666 6324 3937 2295 1346 817
1190.0 554 418 277 199 188 153 150 162 157 146
1230.0 153 195 235 305 390 489 559 581 574 541
1270.0 523 521 520 526 514 515 548 605 705 838
1310.0 1001 1229 1580 2075 2711 3531 4527 5656 6705 7380
1350.0 7371 6607 5287 3771 2465 1605 1173 1021 999 987
1390.0 940 824 664 516 395 328 290 266 270 307
1430.0 390 527 702 880 959 918 786 591 435 326
1470.0 279 271 265 262 240 187 142 120 107 84
1510.0 61 56 55 60 67 63 54 44 24 35
1550.0 43 39 45 44 68 85 72 91 117 134
1590.0 147 148 119 106 110 99 92 97 89 72
1630.0 62 59 61 65 54 46 48 47 50 55
1670.0 50 55 73 79 74 75 57 29 20 21
1710.0 35 30 20 28 36 43 40 49 53 53
1750.0 53 60 71 83 91 82 93 108 96 83
1790.0 90 105 125 149 167 152 133 117 97 84
1830.0 74 61 54 45 60 71 74 86 76 66
1870.0 71 74 81 100 128 134 144 184 199 180
1910.0 178 192 189 183 190 201 202 191 190 182
1950.0 174 162 149 151 152 143 117 100 85 57
1990.0 51 53 34 26 38 37 40 48 49 63
2030.0 55 36 25 35 42 41 42 34 37 38
2070.0 37 56 55 35 34 36 26 30 39 36
2110.0 37 47 47 31 3 3 29 30 32 50
2150.0 50 53 65 54 54 64 54 43 34 34
2190.0 38 22 9 2 6 20 33 41 49 48
2230.0 40 48 62 71 74 93 94 81 77 62
2270.0 66 70 59 65 72 59 57 60 39 53
2310.0 79 85 94 91 78 80 79 55 48 49
2350.0 43 37 55 62 51 46 48 47 37 73
2390.0 96 66 49 44 43 62 70 56 61 72
2430.0 69 70 75 68 62 59 67 73 62 62
2470.0 79 89 78 82 93 90 93 96 82 69
2510.0 88 95 73 74 73 65 74 72 55 62
2550.0 53 34 44 75 82 78 93 80 85 108
2590.0 96 79 81 98 99 99 112 101 85 66
2630.0 55 62 66 73 66 41 46 82 101 82
2670.0 97 111 90 76 57 42 59 80 71 64
2710.0 78 57 41 72 86 114 133 96 85 96
2750.0 93 70 62 70 60 57 70 97 92 100
2790.0 99 75 86 83 86 90 65 45 53 63
2830.0 66 61 63 78 88 76 80 96 89 69
2870.0 63 72 94 103 104 112 118 99 84 98
2910.0 95 103 103 99 114 127 109 79 73 87
2950.0 91 107 152 141 108 123 120 102 118 114
2990.0 109 132 149 164 195 248 282 299 381 450
3030.0 434 402 358 298 296 352 420 528 717 976
3070.0 1147 1222 1224 1108 894 662 519 473 412 319
3110.0 253 197 162 149 107 99 108 108 125 134
3150.0 129 125 99 112 139 123 144 155 112 102
3190.0 92 83 107 95 77 78 76 75 93 127
3230.0 113 91 83 89 103 107 122 109 78 42
3270.0 44 60 70 75 74 81 90 104 101 82
3310.0 84 103 89 97 120 80 59 99 88 53
3350.0 39 60 106 89 74 72 55 58 74 64
3390.0 55 73 73 93 103 84 61 46 55 61
3430.0 33 38 58 46 41 65 71 40 7 8
3470.0 31 44 57 36 16 31 14 6 31 47
3510.0 79 74 60 78 49 39 45 45 87 75
3550.0 66 92 75 66 43 28 30 22 44 31
3590.0 27 101 101 43 32 60 99 97 78 75
3630.0 69 75 99 119 72 14 11 35 72 72
3670.0 43 67 79 51 27 26 38 44 55 63
3710.0 85 76 59 59 73 91 71 69 101 94
3750.0 86 99 79 44 77 30 7 41 50 87
3790.0 98 80 92 118 138 123 89 78 71 60
3830.0 56 77 78 74 61
##END=
