##TITLE=1-Ethynylcyclooctanol
##JCAMP-DX=4.24
##DATA TYPE=INFRARED SPECTRUM
##ORIGIN=EPA-IR VAPOR PHASE LIBRARY
##OWNER=SRD/NIST
Collection (C) 2018 copyright by the U.S. Secretary of Commerce
on behalf of the United States of America. All rights reserved.
##CAS REGISTRY NO=55373-76-7
##MOLFORM=C 10 H 16 O
##$NIST SOURCE=MSDC-IR
##STATE=gas
##XUNITS=1/CM
##YUNITS=ABSORBANCE
##XFACTOR=1.
##YFACTOR=0.001
##DELTAX=1.92898
##FIRSTX=549.8
##LASTX=4000.7
##FIRSTY=11.012
##MAXX=4000.7
##MINX=549.759
##MAXY=0.365792
##MINY=0
##NPOINTS=1790
##XYDATA=(X++(Y..Y))
549.759 11.012 11.242 10.572 10.122 9.942 8.832 8.462 8.422 7.932 7.552
569.049 7.092 7.102 7.032 6.412 6.592 6.672 6.312 6.362 6.102 5.812
588.339 5.692 5.302 5.212 5.532 5.782 5.292 5.652 6.462 6.922 7.722
607.628 8.892 11.192 14.082 17.622 22.982 29.432 37.352 45.892 53.762 62.112
626.918 72.552 84.762 92.132 89.102 83.552 82.662 80.292 73.762 70.642 75.772
646.208 84.572 87.592 87.792 86.882 80.762 71.862 62.472 54.522 47.312 38.992
665.498 31.012 24.162 18.112 13.952 11.032 8.822 7.302 6.132 5.282 4.432
684.787 3.582 3.422 3.562 3.652 3.252 2.862 2.662 2.822 3.062 2.862
704.077 2.892 3.232 2.962 2.742 3.052 3.202 3.772 4.162 4.682 5.002
723.367 4.722 4.882 5.682 6.602 6.802 7.092 7.792 8.402 8.242 8.122
742.657 8.522 8.002 7.362 6.802 6.422 6.572 6.352 6.052 6.012 6.082
761.947 6.092 5.972 5.932 5.812 6.162 6.482 6.262 6.272 6.762 7.152
781.236 7.542 8.022 7.892 8.222 8.622 9.122 9.422 9.362 9.732 9.962
800.526 10.112 10.072 9.932 9.382 9.012 8.792 8.832 8.472 7.492 6.812
819.816 7.332 8.792 9.482 7.462 5.402 6.192 6.602 6.382 6.682 7.172
839.106 7.502 7.902 8.112 7.922 8.022 8.242 8.192 8.532 8.642 8.712
858.395 8.722 8.762 9.262 9.562 9.842 10.002 9.942 9.852 10.352 10.882
877.685 11.432 11.832 11.932 12.212 13.302 14.372 14.672 15.252 15.972 16.162
896.975 16.222 16.442 16.502 15.872 14.962 14.072 12.962 12.072 11.262 10.372
916.265 9.262 8.462 8.242 7.932 7.752 7.772 7.452 7.462 8.342 9.002
935.555 9.162 9.792 10.652 11.442 12.192 13.012 14.102 15.202 16.052 16.802
954.844 17.782 18.832 20.422 22.102 24.082 26.692 29.042 31.882 35.302 38.802
974.134 42.402 45.862 47.952 49.842 51.972 53.312 54.492 55.222 55.152 55.142
993.424 55.392 55.752 56.292 56.652 56.992 56.492 55.552 54.252 51.202 47.622
1012.714 44.192 40.492 36.512 32.232 28.702 25.722 23.502 21.862 20.552 20.242
1032.003 20.732 22.092 24.122 26.312 29.272 32.502 36.132 40.862 45.132 48.152
1051.293 50.512 52.732 54.512 55.322 54.252 51.892 49.532 46.492 43.642 40.742
1070.583 36.452 32.322 30.172 28.512 27.102 25.272 23.172 22.342 22.802 22.982
1089.873 23.602 24.112 22.752 22.662 22.422 21.182 20.072 20.012 19.732 19.952
1109.163 20.182 18.902 17.862 17.692 18.412 18.802 19.302 19.912 21.742 24.442
1128.452 24.652 24.802 26.202 26.522 25.732 25.662 25.952 24.992 23.892 23.172
1147.742 21.592 20.242 19.732 18.362 17.172 16.332 15.622 15.072 13.542 12.892
1167.032 13.302 13.342 13.432 13.262 13.072 13.142 13.342 13.102 13.172 13.312
1186.322 13.282 14.122 14.862 14.952 15.392 16.022 15.532 15.872 17.102 16.992
1205.611 17.022 17.402 17.542 17.352 18.062 18.902 19.832 21.822 24.592 26.582
1224.901 27.542 28.102 29.252 31.382 32.542 34.702 36.472 38.452 41.502 44.772
1244.191 49.222 52.912 55.842 58.722 59.942 60.482 60.092 57.962 55.872 53.222
1263.481 49.312 45.632 42.452 39.082 35.952 33.532 31.962 30.572 29.742 29.542
1282.771 29.142 28.952 29.012 28.722 28.422 28.492 28.752 29.532 30.302 30.762
1302.060 31.092 31.462 31.962 32.412 33.052 33.462 33.372 33.072 32.532 32.072
1321.350 31.692 31.022 30.452 29.962 29.032 27.752 26.672 25.862 24.972 23.952
1340.640 23.082 22.532 22.102 21.732 21.742 21.882 22.012 22.332 22.562 22.832
1359.930 23.142 23.102 23.102 22.992 22.592 22.322 21.882 21.112 20.182 19.332
1379.219 18.522 17.472 16.412 15.442 14.452 13.512 12.792 12.062 11.302 10.642
1398.509 9.972 9.532 9.132 8.772 8.612 8.602 8.482 8.432 8.492 8.552
1417.799 8.772 9.232 9.972 10.792 12.012 13.742 15.682 17.812 20.512 23.722
1437.089 27.392 31.142 34.842 38.272 41.192 43.822 45.912 46.552 45.812 44.982
1456.378 44.052 42.842 41.812 40.472 38.902 37.992 37.312 36.532 36.002 35.282
1475.668 34.112 32.282 29.662 26.762 23.982 21.372 18.652 15.962 13.572 11.392
1494.958 9.542 8.012 6.852 5.822 5.322 4.912 4.172 3.682 3.392 3.272
1514.248 2.992 2.662 2.702 2.592 2.452 2.442 2.162 2.142 2.262 2.112
1533.538 1.962 1.752 1.582 1.742 1.912 1.872 1.642 1.532 1.502 1.3762
1552.827 1.3671 1.4126 1.542 1.4588 1.1701 1.2244 1.1258 1.1704 1.3767 1.3129
1572.117 1.3445 1.2441 1.0515 0.9559 0.9576 1.0677 1.1264 1.1149 1.1582 1.0451
1591.407 0.8219 0.7849 0.892 0.6713 0.48906 0.57543 0.54504 0.7355 0.8237 0.7092
1610.697 0.7032 0.6532 0.53049 0.7024 0.877 0.6846 0.4743 0.6885 0.8093 0.793
1629.986 0.8715 0.6721 0.6064 0.54392 0.58886 0.6493 0.4309 0.389 0.4384 0.4181
1649.276 0.48916 0.51433 0.6974 0.7845 0.54741 0.4057 0.5029 0.4675 0.352 0.371
1668.566 0.4634 0.53868 0.499015 0.48984 0.4099 0.4684 0.50215 0.4684 0.56629 0.347
1687.856 0.103 0.268 0.373 0.281 0.143 0.179 0.375 0.223 0.105 0.232
1707.146 0.4088 0.50458 0.355 0.197 0.367 0.331 0.199 0.365 0.444 0.4172
1726.435 0.35 0.227 0.186 0.312 0.203 0.195 0.3927 0.268 0.184 0.274
1745.725 0.343 0.276 0.203 0.071 0.126 0.19 0 0.075 0.253 0.318
1765.015 0.305 0.157 0.079 0.359 0.392 0.236 0.246 0.28 0.374 0.315
1784.305 0.224 0.171 0.133 0.105 0.203 0.3924 0.287 0.232 0.256 0.32
1803.594 0.34 0.165 0.158 0.165 0.243 0.348 0.292 0.342 0.231 0.175
1822.884 0.271 0.209 0.354 0.48361 0.4416 0.437 0.4306 0.313 0.254 0.361
1842.174 0.358 0.334 0.4083 0.391 0.352 0.319 0.36 0.4104 0.4661 0.55201
1861.464 0.4643 0.4288 0.58019 0.6741 0.6142 0.6201 0.50844 0.4152 0.54183 0.48491
1880.754 0.375 0.50553 0.54657 0.379 0.4431 0.50968 0.3977 0.4647 0.647 0.56998
1900.043 0.58387 0.6627 0.54796 0.6305 0.6151 0.56772 0.6532 0.52544 0.500996 0.577
1919.333 0.6286 0.7505 0.637 0.48598 0.4182 0.4762 0.6501 0.6719 0.6076 0.492774
1938.623 0.315 0.343 0.51703 0.52398 0.4763 0.4479 0.499073 0.6027 0.5966 0.4726
1957.913 0.377 0.4278 0.52745 0.49059 0.406 0.359 0.398 0.5553 0.6056 0.6088
1977.202 0.6889 0.704 0.6041 0.51071 0.7247 0.7703 0.6547 0.6966 0.6351 0.50639
1996.492 0.4097 0.4224 0.384 0.377 0.389 0.321 0.306 0.372 0.333 0.4142
2015.782 0.4638 0.4522 0.48 0.337 0.351 0.4819 0.52534 0.54133 0.52814 0.6001
2035.072 0.6645 0.6105 0.500542 0.448 0.4511 0.231 0.051 0.207 0.303 0.386
2054.362 0.5257 0.54388 0.53026 0.461 0.51027 0.5744 0.54666 0.493393 0.481 0.4252
2073.651 0.496017 0.5949 0.6503 0.7292 0.7065 0.6574 0.7085 0.8289 0.7889 0.9066
2092.941 1.0532 1.0602 1.0515 1.0813 1.1016 1.1541 1.1919 1.2362 1.3813 1.522
2112.231 1.3536 1.2156 1.2628 1.2698 1.1183 0.9958 0.9124 0.8845 1.0084 0.9269
2131.521 0.7691 0.6553 0.5862 0.6605 0.8137 0.7567 0.6639 0.7348 0.9036 0.9011
2150.810 0.7517 0.6812 0.594 0.52852 0.6218 0.6992 0.7473 0.7247 0.7696 0.7484
2170.100 0.6686 0.8221 0.8341 0.7887 0.7178 0.58138 0.58048 0.7504 0.8663 0.8055
2189.390 0.56791 0.5981 0.7427 0.6728 0.8071 0.946 0.853 0.713 0.6542 0.5987
2208.680 0.51889 0.53065 0.56539 0.5552 0.6718 0.7629 0.7658 0.6424 0.6775 0.8902
2227.970 0.9064 0.7974 0.7237 0.7557 0.7923 0.921 0.9442 0.7953 0.8719 0.8694
2247.259 0.6732 0.6735 0.9017 0.8335 0.7594 0.9409 0.9581 0.9383 0.9091 0.8515
2266.549 0.8377 0.7785 0.6592 0.7989 0.9437 0.8556 0.8235 1.017 1.0534 0.8004
2285.839 0.7808 0.9436 0.859 0.8318 0.9272 0.8721 0.9773 1.0293 0.9487 0.9078
2305.129 0.8068 0.9199 0.9829 0.9935 0.8195 0.6347 0.7716 0.7098 0.6417 0.51592
2324.418 0.6885 0.8456 0.6609 0.6714 0.7977 0.868 0.9847 0.9587 0.7305 0.7289
2343.708 0.9163 0.992 0.9846 0.786 0.6503 0.7494 0.8275 0.7197 0.57512 0.7185
2362.998 0.7494 0.58403 0.58066 0.57036 0.58689 0.6403 0.6563 0.6467 0.54015 0.51874
2382.288 0.6362 0.7588 0.6455 0.53319 0.50401 0.4442 0.4229 0.428 0.355 0.53115
2401.578 0.6789 0.5056 0.54958 0.8233 0.9256 0.964 0.9872 0.8173 0.6564 0.5989
2420.867 0.6507 0.7754 0.7785 0.6425 0.6324 0.778 0.7434 0.7592 0.9482 0.9988
2440.157 0.9448 0.9693 1.1342 0.9981 0.9564 0.8805 0.8473 1.0315 1.0132 1.1123
2459.447 1.0171 0.7735 0.8677 0.9182 0.6348 0.5497 0.51898 0.51061 0.59131 0.51316
2478.737 0.6726 0.9136 0.9207 1.1216 1.0726 0.7906 0.7396 0.857 0.8997 0.7328
2498.026 0.9425 0.9609 0.55166 0.604 0.8589 0.9772 0.9484 0.808 0.9221 0.7598
2517.316 0.56898 0.8336 0.9574 0.8874 0.6885 0.6809 0.7588 0.8282 0.9081 0.8
2536.606 0.8832 1.075 1.0469 0.9415 0.9551 1.1246 1.1887 1.198 1.1239 1.0917
2555.896 1.2956 1.3748 1.3887 1.4328 1.602 1.662 1.522 1.4367 1.522 1.682
2575.186 1.682 1.892 1.672 1.3499 1.552 1.4676 1.4801 1.542 1.502 1.582
2594.475 1.722 1.882 1.822 1.812 1.862 1.742 1.642 1.682 1.722 1.912
2613.765 1.982 1.942 1.812 1.662 1.892 2.102 1.962 1.882 2.112 2.262
2633.055 2.292 2.332 2.282 2.232 2.222 2.412 2.472 2.442 2.502 2.452
2652.345 2.632 2.962 3.052 3.202 3.512 3.612 3.432 3.452 3.912 4.202
2671.634 4.262 4.482 4.912 5.132 5.192 5.322 5.442 5.802 5.942 6.092
2690.924 6.232 6.442 6.692 6.602 6.712 6.792 6.602 6.462 6.452 6.052
2710.214 5.652 5.462 5.342 5.142 4.832 4.662 4.352 3.992 3.892 4.172
2729.504 4.222 3.502 3.182 3.302 3.172 3.242 3.212 3.092 3.272 3.192
2748.794 3.082 3.112 3.012 2.952 2.912 2.982 3.282 3.082 2.862 3.062
2768.083 3.182 3.512 3.532 3.552 3.942 4.202 4.322 4.342 4.402 4.482
2787.373 4.672 4.952 5.332 5.642 5.722 5.912 6.352 6.802 7.082 7.252
2806.663 7.392 7.462 7.732 8.002 8.182 8.382 8.562 9.202 9.552 9.642
2825.953 10.192 10.542 11.012 12.062 12.962 13.742 15.192 17.442 20.412 23.992
2845.242 28.632 34.652 41.322 48.552 56.002 63.402 70.992 77.512 81.812 84.552
2864.532 86.382 86.812 85.702 83.402 80.202 76.812 73.462 70.312 67.302 64.612
2883.822 62.652 61.542 61.232 61.402 62.872 65.872 69.672 74.292 80.112 87.462
2903.112 96.112 105.992 117.322 129.832 144.092 160.352 179.172 200.982 226.032 252.082
2922.401 276.872 300.382 322.082 341.432 356.772 365.182 365.792 360.392 347.652 327.872
2941.691 304.482 279.212 252.042 225.462 201.402 180.042 161.912 146.222 133.432 123.072
2960.981 114.322 106.332 98.582 90.902 83.052 75.092 66.692 58.252 50.712 43.882
2980.271 37.722 32.472 27.632 23.652 20.682 18.082 15.762 14.152 12.902 11.582
2999.561 10.302 9.222 8.332 7.652 7.032 6.612 6.182 5.382 4.792 5.002
3018.850 4.652 4.052 4.022 3.952 3.702 3.432 3.392 3.272 3.222 3.022
3038.140 2.922 3.052 3.112 2.952 2.722 2.822 2.642 2.432 2.602 2.432
3057.430 2.302 2.132 2.022 2.192 2.052 1.952 2.052 2.022 1.912 1.892
3076.720 1.852 1.762 1.722 1.862 1.572 1.3312 1.592 1.652 1.512 1.572
3096.009 1.4551 1.1629 1.2425 1.2583 1.3352 1.4051 1.346 1.2616 1.3543 1.2786
3115.299 1.2262 1.642 1.3202 0.8792 1.0605 1.2552 1.2241 0.8905 0.8857 1.0078
3134.589 0.7441 0.4682 0.4546 0.8781 1.1523 1.1204 0.9201 0.8922 1.1256 1.2836
3153.879 1.612 1.562 1.522 1.459 1.3171 1.2334 1.0703 0.7675 0.906 1.0958
3173.169 1.1019 1.1889 1.0441 1.071 1.4251 1.642 1.4435 1.1656 0.9728 0.8494
3192.458 0.9528 1.1068 0.8421 0.9078 1.0788 1.2395 1.2957 1.2306 1.0062 1.0109
3211.748 1.4917 1.3061 0.8225 0.9619 1.1369 0.9757 1.1299 1.3181 0.8948 0.8432
3231.038 1.0408 1.2987 1.4658 1.2021 1.3479 1.3785 1.3924 1.3776 1.552 1.492
3250.328 1.3276 1.4762 1.612 1.972 2.062 2.392 2.752 2.882 3.462 3.742
3269.617 4.072 4.882 5.332 5.722 6.292 7.102 8.032 8.722 9.432 10.412
3288.907 11.822 14.032 16.482 18.842 21.222 23.422 25.792 28.992 31.122 32.292
3308.197 34.702 39.202 45.402 52.122 58.452 63.702 67.952 74.312 79.572 73.522
3327.487 65.302 62.702 57.012 45.882 34.052 23.962 16.792 12.782 10.002 8.412
3346.777 7.592 6.482 5.822 5.562 4.832 4.172 3.612 2.972 2.812 2.762
3366.066 2.732 2.492 2.832 2.712 1.872 2.062 2.322 2.282 1.912 2.102
3385.356 2.562 2.182 1.932 2.392 2.132 1.612 1.912 2.202 2.302 1.812
3404.646 1.502 1.842 1.512 0.8188 0.9976 1.502 1.752 1.722 1.2815 1.1659
3423.936 1.2997 1.2035 1.3809 1.4667 1.2681 1.1243 0.9911 0.8176 0.7991 0.8434
3443.225 0.841 1.2237 1.672 1.3786 0.9454 1.0423 1.296 1.2576 1.348 1.2802
3462.515 0.9461 1.1278 1.163 0.9566 0.8461 1.0959 1.2396 0.8872 0.6606 0.6102
3481.805 0.6393 0.4624 0.4484 0.998 1.1235 0.9753 1.2685 1.302 0.8372 0.6093
3501.095 0.7988 0.53862 0.126 0.236 0.167 0.4223 0.8384 1.0728 1.096 0.7181
3520.385 0.304 0.327 0.593 0.347 0.231 0.229 0.493175 0.348 0.156 0.4313
3539.674 0.169 0.066 0.387 0.57776 0.37 0.263 0.7174 0.8919 0.56298 0.7999
3558.964 1.2588 0.8963 0.4576 0.7123 0.8724 0.7176 0.8236 0.7307 0.5979 0.6822
3578.254 0.356 0.348 0.9114 0.9917 0.8554 0.9023 1.1066 1.1529 1.0681 1.1335
3597.544 0.8625 0.8052 0.9165 1.3444 1.882 1.902 2.432 2.762 2.882 3.662
3616.833 4.612 6.342 8.752 11.192 14.262 18.272 22.522 26.292 29.152 31.532
3636.123 32.892 32.422 30.402 27.802 24.732 20.622 16.442 12.512 9.332 6.912
3655.413 5.202 4.112 2.962 2.432 2.332 2.232 2.082 1.582 1.171 1.3681
3674.703 1.3043 0.9308 0.8622 0.726 0.8444 1.1214 1.3849 1.502 1.1416 0.729
3693.993 0.636 0.8871 0.9527 0.7752 0.6901 0.6418 0.53689 0.56947 0.7623 1.0246
3713.282 0.9057 0.9785 0.9234 0.9982 1.0854 0.6725 0.676 0.6248 0.6685 0.9198
3732.572 0.6382 0.4016 0.4766 0.6053 0.53453 0.4828 0.4602 0.9756 1.4507 1.0185
3751.862 0.8816 0.8021 0.6557 0.7626 0.7122 0.54808 0.6756 0.7709 1.0441 1.502
3771.152 1.4541 1.0632 0.9473 0.9698 1.3809 1.582 1.0527 0.9597 1.1814 1.0884
3790.441 0.8375 0.9057 0.8045 0.5949 0.8895 0.7514 0.6919 0.365 0.458 1.186
3809.731 0.9897 0.6903 0.363 0.5904 1.1501 1.185 0.7379 0.332 0.6016 0.8778
3829.021 0.7631 0.346 0.3963 0.9881 1.0658 0.829 0.4411 0.7266 0.8581 0.7097
3848.311 0.984 0.5962 0.5974 0.8204 0.48498 0.377 0.803 1.016 1.05 1.1171
3867.601 1.3353 1.2454 0.9866 1.1921 1.2537 1.306 1.1513 1.1031 1.2219 1.2061
3886.890 1.1082 0.9585 1.0206 1.1488 1.2948 1.582 1.4187 0.7445 0.52517 1.0834
3906.180 1.522 1.532 1.682 1.3471 1.0024 0.7888 1.0644 1.4376 1.2263 1.4275
3925.470 1.3682 1.3931 1.822 1.852 1.712 1.862 1.802 1.622 1.652 1.228
3944.760 1.4013 2.052 2.162 1.722 1.3539 1.0868 0.53584 0.6345 0.6286 0.6304
3964.049 0.6931 0.4518 0.55195 1.0489 1.2228 1.02 0.7959 0.9068 0.9485 0.55334
3983.339 0.5906 0.744 0.8767 0.9972 0.6495 0.374 0.8428 0.9322 0.774 0.6084
##END=
