##TITLE=.alpha.-(4-Chloro-3-nitrophenyl)acetamide
##JCAMP-DX=4.24
##DATA TYPE=INFRARED SPECTRUM
##ORIGIN=EPA-IR VAPOR PHASE LIBRARY
##OWNER=SRD/NIST
Collection (C) 2018 copyright by the U.S. Secretary of Commerce
on behalf of the United States of America. All rights reserved.
##CAS REGISTRY NO=5540-60-3
##MOLFORM=C 8 H 7 Cl N 2 O 3
##$NIST SOURCE=MSDC-IR
##STATE=gas
##XUNITS=1/CM
##YUNITS=ABSORBANCE
##XFACTOR=1.
##YFACTOR=0.001
##DELTAX=1.92898
##FIRSTX=549.8
##LASTX=4000.7
##FIRSTY=1.705
##MAXX=4000.7
##MINX=549.759
##MAXY=0.024295
##MINY=0
##NPOINTS=1790
##XYDATA=(X++(Y..Y))
549.759 1.705 1.665 1.665 1.825 1.745 1.835 1.855 1.845 1.835 1.575
569.049 1.545 1.995 2.155 1.935 2.025 2.185 2.095 1.935 2.015 1.915
588.339 1.725 1.765 1.955 2.015 2.145 2.155 2.045 2.185 2.115 1.855
607.628 1.805 2.005 2.025 2.005 1.965 1.995 2.275 2.265 2.105 2.145
626.918 2.265 2.215 2.215 2.285 2.245 2.075 1.965 2.075 2.085 1.885
646.208 1.875 1.945 1.945 1.845 1.735 1.725 1.905 2.265 2.515 2.775
665.498 3.045 3.265 3.465 3.355 3.005 2.835 2.515 2.125 1.925 1.775
684.787 1.695 1.785 1.765 1.695 1.625 1.595 1.765 1.705 1.615 1.655
704.077 1.705 1.705 1.765 1.825 1.685 1.795 2.005 2.115 2.145 2.205
723.367 2.405 2.395 2.425 2.615 2.775 2.635 2.705 2.955 2.795 2.775
742.657 3.035 3.055 2.895 2.865 2.885 2.825 2.635 2.565 2.625 2.505
761.947 2.425 2.595 2.765 2.835 2.665 2.545 2.715 2.775 2.685 2.695
781.236 2.645 2.405 2.415 2.685 3.015 3.235 3.515 3.765 4.055 4.515
800.526 4.965 5.645 5.985 6.225 6.275 6.125 6.105 6.075 6.065 5.745
819.816 5.725 5.715 5.395 5.055 4.855 4.505 3.905 3.535 3.495 3.165
839.106 2.615 2.565 2.365 2.015 1.985 2.055 2.115 2.235 1.985 1.785
858.395 2.125 2.095 2.035 2.065 1.985 1.945 1.885 2.015 2.165 2.105
877.685 1.805 1.755 2.015 2.155 2.185 2.095 2.135 2.225 2.115 2.015
896.975 2.095 2.185 2.155 2.135 2.115 2.145 2.085 2.045 2.075 1.995
916.265 1.965 1.965 1.685 1.635 1.885 1.795 1.675 1.545 1.445 1.575
935.555 1.465 1.445 1.315 1.0578 1.1736 1.285 1.305 1.285 1.2653 1.261
954.844 1.21 1.295 1.285 1.2095 1.2318 1.1692 1.0877 1.0492 1.0393 0.873
974.134 0.9072 1.1101 1.2145 1.2546 0.9789 0.8811 0.7877 0.882 0.9496 0.9389
993.424 1.0152 0.7569 0.7126 0.7576 0.7828 0.6861 0.7083 0.6864 0.7171 1.1222
1012.714 1.0024 0.8368 0.9218 0.8416 0.9901 1.1761 1.0592 0.8347 0.8263 1.0162
1032.003 1.0797 1.295 1.765 2.115 2.335 2.735 3.585 4.735 5.575 6.315
1051.293 6.825 6.845 6.735 6.315 5.435 4.445 3.675 2.785 2.015 1.595
1070.583 1.735 1.915 1.945 1.935 1.925 1.645 1.605 1.505 1.2065 1.0243
1089.873 1.1348 1.815 1.835 1.515 1.325 1.195 1.0833 1.305 1.655 1.465
1109.163 1.455 1.425 1.274 1.375 1.395 1.445 1.525 1.865 2.155 2.285
1128.452 2.525 3.105 3.405 3.255 3.375 3.195 3.005 2.925 2.745 2.615
1147.742 2.325 2.075 2.015 1.945 1.725 1.715 1.895 1.835 1.825 1.855
1167.032 1.625 1.645 1.545 1.505 1.685 1.535 1.455 1.745 1.825 1.515
1186.322 1.635 1.845 1.755 1.655 1.705 2.005 2.205 1.985 2.295 2.525
1205.611 1.915 1.955 2.295 2.185 2.595 2.835 2.325 2.105 2.355 2.385
1224.901 2.185 2.315 2.615 2.815 2.895 2.985 3.005 3.275 3.565 3.555
1244.191 3.815 4.205 4.465 4.505 4.545 4.865 4.935 4.745 4.685 4.605
1263.481 4.465 4.355 4.165 4.115 4.165 3.965 3.855 4.095 4.215 4.125
1282.771 4.145 4.215 4.145 4.085 4.115 4.185 4.235 4.295 4.425 4.535
1302.060 4.715 4.895 5.065 5.265 5.455 5.655 5.905 6.295 6.645 6.965
1321.350 7.395 7.865 8.375 8.905 9.455 10.045 10.765 11.595 12.475 13.385
1340.640 14.485 15.705 16.835 17.955 18.975 19.685 20.055 20.125 19.785 19.015
1359.930 17.925 16.555 14.985 13.375 11.815 10.325 8.955 7.765 6.805 6.045
1379.219 5.385 4.855 4.415 4.135 3.905 3.685 3.495 3.305 3.165 2.995
1398.509 2.855 2.785 2.695 2.645 2.635 2.595 2.555 2.485 2.435 2.405
1417.799 2.325 2.285 2.335 2.365 2.395 2.425 2.485 2.495 2.435 2.365
1437.089 2.285 2.255 2.175 2.115 2.035 1.845 1.765 1.735 1.725 1.715
1456.378 1.655 1.775 2.025 2.255 2.505 2.855 3.415 4.125 4.915 5.805
1475.668 6.615 7.245 7.535 7.335 6.875 6.235 5.365 4.575 3.975 3.565
1494.958 3.365 3.245 3.235 3.275 3.355 3.535 3.765 4.035 4.415 4.795
1514.248 5.245 5.745 6.195 6.615 7.125 7.665 8.115 8.625 9.155 9.655
1533.538 10.235 11.035 11.905 12.865 14.105 15.615 17.335 19.105 20.775 22.415
1552.827 23.645 24.295 24.215 23.215 21.865 20.405 18.825 17.375 16.065 15.135
1572.117 14.625 14.315 14.215 14.345 14.525 14.695 14.885 14.895 14.635 14.215
1591.407 13.665 12.865 11.835 10.815 10.005 9.185 8.375 7.675 7.015 6.345
1610.697 5.735 5.205 4.675 4.095 3.605 3.275 3.025 2.875 2.665 2.455
1629.986 2.295 2.115 1.915 1.835 1.875 1.855 1.775 1.675 1.655 1.775
1649.276 1.785 1.685 1.645 1.665 1.705 1.775 1.835 1.925 1.945 1.945
1668.566 2.005 2.095 2.285 2.385 2.455 2.595 2.745 2.945 3.105 3.305
1687.856 3.605 3.935 4.235 4.575 4.985 5.425 5.895 6.585 7.205 7.875
1707.146 8.695 9.615 10.575 11.515 12.605 13.775 15.125 16.485 17.685 18.875
1726.435 20.215 21.455 22.565 23.515 24.035 24.295 24.165 23.615 22.815 21.815
1745.725 20.805 19.685 18.515 17.325 16.175 14.915 13.545 12.265 10.885 9.655
1765.015 8.535 7.445 6.605 5.905 5.165 4.525 4.005 3.505 3.105 2.745
1784.305 2.425 2.165 1.995 1.875 1.635 1.515 1.485 1.385 1.325 1.1885
1803.594 1.131 1.0734 0.9999 1.0022 0.9603 0.9126 0.8478 0.8263 0.9005 0.874
1822.884 0.7843 0.742 0.7347 0.7506 0.7557 0.7228 0.6438 0.6006 0.6356 0.6753
1842.174 0.6611 0.6049 0.586 0.5846 0.5629 0.5718 0.5906 0.5921 0.5953 0.5948
1861.464 0.5971 0.5893 0.5468 0.4902 0.4815 0.5153 0.5323 0.5908 0.6085 0.5702
1880.754 0.59 0.6102 0.6463 0.6443 0.6424 0.6649 0.6524 0.6043 0.5926 0.6456
1900.043 0.648 0.652 0.7199 0.6938 0.6365 0.625 0.621 0.6503 0.6165 0.5778
1919.333 0.5915 0.5816 0.5446 0.5359 0.5424 0.5294 0.5168 0.4762 0.4313 0.4101
1938.623 0.4473 0.4712 0.455 0.4423 0.3795 0.36202 0.4225 0.4935 0.468 0.4193
1957.913 0.4167 0.4067 0.427 0.35081 0.29825 0.36265 0.36856 0.37228 0.3843 0.35968
1977.202 0.33734 0.32462 0.3901 0.4109 0.383 0.404 0.36807 0.33583 0.33656 0.36685
1996.492 0.3711 0.32395 0.34633 0.3923 0.34785 0.32833 0.34205 0.3838 0.4081 0.33321
2015.782 0.33626 0.4048 0.418 0.4338 0.3813 0.29735 0.3692 0.4566 0.4122 0.36215
2035.072 0.35326 0.35526 0.3874 0.32039 0.30045 0.36856 0.32876 0.3699 0.4379 0.3845
2054.362 0.33714 0.32623 0.3169 0.32549 0.34433 0.33308 0.35826 0.4051 0.35963 0.33806
2073.651 0.34807 0.3599 0.33463 0.29983 0.276156 0.30005 0.412 0.4115 0.34143 0.35743
2092.941 0.441 0.4342 0.3887 0.34496 0.31889 0.385 0.4096 0.3971 0.413 0.4251
2112.231 0.387 0.36435 0.399 0.4197 0.4431 0.4018 0.37482 0.4263 0.4464 0.4773
2131.521 0.4714 0.4034 0.3842 0.36217 0.3993 0.4776 0.4466 0.4089 0.3861 0.3978
2150.810 0.4046 0.31433 0.3119 0.3937 0.388 0.3822 0.36633 0.34156 0.3442 0.3397
2170.100 0.31862 0.283822 0.2546 0.2318 0.277681 0.35429 0.3768 0.37457 0.3984 0.4688
2189.390 0.4611 0.4498 0.4133 0.37344 0.4856 0.4656 0.376 0.35177 0.32515 0.29479
2208.680 0.31843 0.31266 0.33251 0.37373 0.34907 0.29301 0.2319 0.29938 0.33235 0.34905
2227.970 0.35473 0.32262 0.30762 0.2423 0.2463 0.33351 0.3797 0.3832 0.31685 0.282949
2247.259 0.3854 0.4371 0.36865 0.36535 0.4177 0.35543 0.28865 0.36953 0.4058 0.36277
2266.549 0.35042 0.3911 0.3937 0.3751 0.3782 0.32033 0.31849 0.37458 0.3784 0.35885
2285.839 0.32518 0.34898 0.37033 0.35755 0.36773 0.29264 0.2615 0.30137 0.3431 0.3946
2305.129 0.35719 0.3422 0.32848 0.28948 0.30792 0.30817 0.26703 0.29799 0.32407 0.29146
2324.418 0.3131 0.32189 0.31531 0.32679 0.34942 0.34431 0.31524 0.28774 0.31991 0.3953
2343.708 0.4492 0.4113 0.32155 0.33669 0.408 0.4193 0.4604 0.4706 0.34596 0.276762
2362.998 0.32647 0.33444 0.34561 0.37007 0.34702 0.36022 0.32376 0.3843 0.4281 0.36932
2382.288 0.4231 0.4176 0.4043 0.3815 0.3945 0.4625 0.4947 0.477 0.4011 0.3469
2401.578 0.3895 0.3936 0.3932 0.32283 0.2442 0.35558 0.4506 0.4283 0.376 0.32969
2420.867 0.30477 0.33055 0.36632 0.34668 0.31821 0.3835 0.3894 0.32063 0.387 0.4042
2440.157 0.3955 0.4488 0.3601 0.282394 0.33109 0.4344 0.4621 0.4278 0.4579 0.4481
2459.447 0.36148 0.36118 0.32811 0.33083 0.4298 0.419 0.3663 0.3857 0.4197 0.3875
2478.737 0.3801 0.3981 0.3813 0.4341 0.4274 0.36847 0.3806 0.33799 0.30944 0.28579
2498.026 0.28503 0.32166 0.29652 0.32283 0.4129 0.3754 0.2554 0.275672 0.29343 0.34237
2517.316 0.34782 0.28481 0.31961 0.29188 0.2446 0.274582 0.3308 0.3835 0.28687 0.2725
2536.606 0.428 0.4606 0.431 0.4256 0.4117 0.35211 0.31961 0.34196 0.36581 0.35898
2555.896 0.32329 0.30388 0.33628 0.32093 0.31893 0.33393 0.30153 0.31302 0.4122 0.4665
2575.186 0.3775 0.35241 0.458 0.4656 0.4291 0.4583 0.4406 0.37089 0.4134 0.4793
2594.475 0.4426 0.3799 0.35118 0.36468 0.30284 0.31445 0.4129 0.468 0.4386 0.33712
2613.765 0.36216 0.4668 0.4578 0.4767 0.5102 0.4026 0.36892 0.492 0.4949 0.4176
2633.055 0.442 0.34244 0.26948 0.35477 0.3802 0.33628 0.29586 0.36973 0.405 0.4317
2652.345 0.4144 0.35227 0.29938 0.30438 0.4023 0.3975 0.454 0.5251 0.5391 0.4758
2671.634 0.4287 0.4525 0.4129 0.3987 0.4221 0.4135 0.32943 0.3489 0.4809 0.4713
2690.924 0.43 0.4656 0.5779 0.541 0.4292 0.403 0.36418 0.4261 0.5245 0.4875
2710.214 0.4491 0.4743 0.4722 0.4781 0.5062 0.4937 0.3914 0.4101 0.3863 0.37402
2729.504 0.4246 0.34308 0.33506 0.32427 0.33357 0.4534 0.4594 0.4089 0.4444 0.35353
2748.794 0.1788 0.2617 0.3808 0.31559 0.27204 0.2456 0.31414 0.4231 0.35095 0.32296
2768.083 0.3951 0.4428 0.4437 0.4236 0.36159 0.3603 0.4128 0.3242 0.29198 0.276655
2787.373 0.279009 0.3837 0.5039 0.6028 0.5799 0.4679 0.4076 0.5269 0.5465 0.4743
2806.663 0.5335 0.5419 0.5546 0.5868 0.5403 0.5227 0.4831 0.4863 0.5474 0.6115
2825.953 0.7027 0.6317 0.5693 0.6088 0.659 0.6632 0.6311 0.5266 0.4892 0.6394
2845.242 0.7235 0.7289 0.6797 0.6585 0.6334 0.5601 0.5153 0.5748 0.579 0.4744
2864.532 0.4762 0.5317 0.5809 0.6719 0.6782 0.6768 0.6943 0.7267 0.7246 0.746
2883.822 0.8244 0.805 0.8161 0.8202 0.8064 0.8504 0.9407 0.8986 0.8841 1.0107
2903.112 1.077 1.1694 1.2005 1.1534 1.0465 1.0967 1.2698 1.335 1.425 1.365
2922.401 1.2677 1.365 1.425 1.385 1.475 1.505 1.555 1.555 1.455 1.475
2941.691 1.465 1.345 1.285 1.2546 1.2378 1.2152 1.1555 1.0794 1.0352 1.0288
2960.981 1.0084 1.057 1.1054 1.0866 0.9437 0.8106 0.803 0.8137 0.8291 0.7951
2980.271 0.6981 0.6606 0.7536 0.7315 0.6296 0.5816 0.6092 0.5507 0.4575 0.5313
2999.561 0.5189 0.5082 0.5115 0.5924 0.6171 0.5335 0.5346 0.4871 0.444 0.4801
3018.850 0.5541 0.4854 0.5128 0.6394 0.614 0.5933 0.6698 0.7649 0.8133 0.7766
3038.140 0.7313 0.7467 0.7629 0.7864 0.7504 0.7491 0.8069 0.7514 0.6312 0.6364
3057.430 0.7613 0.7723 0.6965 0.6618 0.6051 0.6886 0.7837 0.814 0.7331 0.6125
3076.720 0.6437 0.6369 0.626 0.6046 0.4887 0.6066 0.715 0.5795 0.5651 0.571
3096.009 0.5768 0.5752 0.5839 0.5387 0.5014 0.5731 0.5482 0.4652 0.4379 0.36064
3115.299 0.3605 0.5085 0.4615 0.36884 0.4848 0.419 0.36515 0.4203 0.4616 0.502
3134.589 0.4246 0.35621 0.32131 0.3801 0.4875 0.493 0.384 0.4098 0.4779 0.4691
3153.879 0.4611 0.4013 0.29582 0.3845 0.5701 0.5116 0.4759 0.5358 0.589 0.4684
3173.169 0.33945 0.4158 0.4197 0.4538 0.4564 0.4076 0.35831 0.418 0.4342 0.30438
3192.458 0.32622 0.32712 0.388 0.499 0.33474 0.29259 0.37267 0.4436 0.4612 0.4245
3211.748 0.4466 0.3797 0.4073 0.3927 0.27141 0.2629 0.4362 0.5012 0.28694 0.131
3231.038 0.2173 0.31348 0.2168 0.143 0.148 0.2394 0.280831 0.30154 0.35976 0.3856
3250.328 0.4073 0.32986 0.2594 0.28787 0.34759 0.26742 0.243 0.32419 0.29935 0.2376
3269.617 0.2397 0.30082 0.42 0.4767 0.419 0.4913 0.5047 0.3769 0.36685 0.3694
3288.907 0.3927 0.4206 0.4821 0.5185 0.4026 0.35506 0.3768 0.4068 0.4235 0.4121
3308.197 0.4121 0.33544 0.4089 0.5693 0.5675 0.4622 0.4184 0.4883 0.5112 0.5238
3327.487 0.5396 0.521 0.5071 0.4111 0.4054 0.4827 0.4718 0.5235 0.5157 0.503
3346.777 0.4119 0.37394 0.4258 0.31968 0.29617 0.4969 0.5114 0.31346 0.4259 0.6447
3366.066 0.5361 0.3727 0.4953 0.5312 0.4816 0.6471 0.8436 0.795 0.6534 0.7436
3385.356 0.8074 0.8647 0.9417 0.9267 0.9973 1.155 1.315 1.365 1.365 1.445
3404.646 1.515 1.595 1.675 1.875 2.055 2.075 2.165 2.315 2.435 2.615
3423.936 2.795 2.825 2.795 2.905 3.245 3.315 3.365 3.365 3.215 3.035
3443.225 2.855 2.695 2.355 2.015 1.765 1.565 1.435 1.405 1.285 1.1404
3462.515 1.0459 1.1303 1.0488 0.8925 0.9899 0.8827 0.91 0.9381 0.8318 0.9295
3481.805 1.0271 0.8868 0.8734 1.0365 1.0576 1.0714 1.0175 0.957 1.0163 1.0771
3501.095 1.1147 1.2219 1.315 1.445 1.495 1.505 1.585 1.565 1.555 1.665
3520.385 1.795 1.805 1.825 1.945 2.045 2.015 1.985 1.945 2.005 2.225
3539.674 2.295 2.295 2.425 2.545 2.775 2.935 3.065 3.225 3.375 3.235
3558.964 2.805 2.565 2.415 2.115 1.815 1.715 1.565 1.285 1.0562 0.8533
3578.254 0.8589 0.8509 0.6825 0.6808 0.6998 0.5796 0.4604 0.3827 0.431 0.5316
3597.544 0.6191 0.614 0.4843 0.5401 0.4659 0.28642 0.225 0.2387 0.30713 0.284715
3616.833 0.281938 0.2126 0.2185 0.2136 0.2172 0.2441 0.26927 0.29738 0.231 0.199
3636.123 0.2113 0.34151 0.4348 0.4449 0.4435 0.379 0.4039 0.3136 0.2284 0.31675
3655.413 0.33377 0.4125 0.4899 0.4702 0.4035 0.4061 0.4196 0.4835 0.521 0.34824
3674.703 0.2305 0.2374 0.3044 0.2479 0.2185 0.29294 0.28646 0.2486 0.153 0.1921
3693.993 0.32971 0.32958 0.423 0.4511 0.32839 0.37295 0.35882 0.31933 0.2446 0.1914
3713.282 0.2273 0.29379 0.32191 0.3935 0.36402 0.30313 0.4122 0.28981 0.1973 0.2321
3732.572 0.34333 0.36982 0.3601 0.35662 0.1934 0.103 0.038 0.124 0.124 0
3751.862 0.071 0.2578 0.33682 0.2396 0.32133 0.4271 0.5126 0.5525 0.3761 0.31104
3771.152 0.29598 0.29081 0.4952 0.5621 0.485 0.3792 0.167 0.2193 0.33118 0.30415
3790.441 0.335 0.4444 0.4305 0.3211 0.3965 0.4014 0.31914 0.4274 0.4246 0.182
3809.731 0.161 0.3315 0.37385 0.26 0.2276 0.2512 0.085 0.2418 0.31026 0.2633
3829.021 0.4123 0.3076 0.1936 0.1762 0.172 0.116 0.1824 0.30708 0.35851 0.32322
3848.311 0.2413 0.2366 0.31657 0.283799 0.2548 0.35549 0.31766 0.31363 0.29783 0.193
3867.601 0.123 0.2445 0.3773 0.27874 0.2581 0.3894 0.4166 0.2251 0.121 0.2089
3886.890 0.30163 0.4268 0.4008 0.31686 0.30167 0.2501 0.2562 0.2048 0.147 0.182
3906.180 0.29734 0.3724 0.37238 0.3885 0.3534 0.3762 0.4256 0.4561 0.4303 0.275853
3925.470 0.36477 0.4296 0.3888 0.3786 0.32823 0.4517 0.4909 0.36723 0.30138 0.26661
3944.760 0.30898 0.32471 0.2522 0.29618 0.4587 0.4767 0.29617 0.36844 0.456 0.35995
3964.049 0.4155 0.46 0.29372 0.112 0.1765 0.282497 0.4734 0.5299 0.4891 0.5248
3983.339 0.4626 0.36611 0.156 0.153 0.28565 0.34044 0.4364 0.389 0.32747 0.3316
##END=
