##TITLE=3-Methylthiophene-2-carbonitrile
##JCAMP-DX=4.24
##DATA TYPE=INFRARED SPECTRUM
##ORIGIN=EPA-IR VAPOR PHASE LIBRARY
##OWNER=SRD/NIST
Collection (C) 2018 copyright by the U.S. Secretary of Commerce
on behalf of the United States of America. All rights reserved.
##CAS REGISTRY NO=55406-13-8
##MOLFORM=C 6 H 5 N S
##$NIST SOURCE=MSDC-IR
##STATE=gas
##XUNITS=1/CM
##YUNITS=ABSORBANCE
##XFACTOR=1.
##YFACTOR=0.001
##DELTAX=1.92898
##FIRSTX=549.8
##LASTX=4000.7
##FIRSTY=2.168
##MAXX=4000.7
##MINX=549.759
##MAXY=0.045598
##MINY=0
##NPOINTS=1790
##XYDATA=(X++(Y..Y))
549.759 2.168 1.758 1.5529 1.4135 1.3956 1.5679 2.218 2.588 2.838 2.818
569.049 2.398 2.158 2.398 2.358 2.668 3.148 2.988 2.918 2.778 1.5809
588.339 1.0138 1.4166 2.238 2.598 2.638 2.968 2.888 2.728 2.978 3.448
607.628 3.788 3.488 3.968 4.628 4.738 4.868 3.818 2.988 2.658 2.928
626.918 3.248 2.838 2.148 2.078 3.038 2.848 1.562 2.308 2.588 1.718
646.208 1.928 2.408 3.128 3.078 2.598 2.068 1.788 2.218 2.198 2.018
665.498 2.278 2.168 1.3566 1.828 1.748 1.1984 1.5112 1.5046 1.5541 1.4314
684.787 1.598 1.5636 1.748 2.548 3.558 4.028 4.908 6.338 7.058 8.428
704.077 10.948 12.878 14.528 15.038 15.118 16.138 18.578 24.318 37.618 45.598
723.367 31.988 19.298 16.298 15.508 15.498 15.048 14.278 12.258 9.628 7.978
742.657 6.958 5.218 3.878 3.198 2.608 2.318 2.078 2.128 2.288 1.938
761.947 1.788 1.1821 1.2328 1.818 1.758 2.078 1.848 1.2576 1.365 1.4721
781.236 1.778 2.228 1.5737 1.2408 1.4408 1.4091 1.3554 1.0308 1.868 2.628
800.526 1.828 1.008 0.9971 1.628 1.5868 1.068 1.4845 2.418 3.428 3.468
819.816 3.928 4.178 4.928 6.578 6.668 6.588 6.428 6.738 7.048 7.118
839.106 6.878 6.628 6.938 7.078 7.028 6.478 6.158 5.858 4.608 3.208
858.395 2.968 3.018 2.908 2.588 2.328 2.528 2.268 2.388 2.668 2.968
877.685 3.358 2.828 2.398 2.378 2.208 2.118 2.468 2.868 2.168 1.2047
896.975 1.5754 1.748 1.868 2.168 1.858 2.088 2.058 1.828 2.438 2.248
916.265 2.138 2.858 2.988 3.268 3.678 3.758 3.998 5.068 5.548 5.378
935.555 5.498 5.298 5.038 5.088 4.978 4.688 4.288 3.458 2.868 2.978
954.844 2.688 1.818 1.958 2.498 2.688 2.468 1.848 1.678 2.608 2.768
974.134 2.278 2.578 2.788 3.228 3.798 3.388 2.978 3.248 2.868 3.068
993.424 3.208 3.668 4.288 4.398 4.928 4.738 3.828 4.518 5.128 4.448
1012.714 5.048 4.828 4.368 5.458 5.688 4.718 4.438 4.328 3.928 3.408
1032.003 3.018 3.328 3.288 3.078 3.318 3.208 2.768 2.758 3.208 3.228
1051.293 2.988 3.308 3.228 2.868 3.348 3.798 2.838 2.448 3.018 3.698
1070.583 4.418 4.878 5.378 3.258 2.248 3.538 2.708 3.318 3.798 3.948
1089.873 3.748 2.188 2.828 2.748 2.558 2.318 1.4693 0.9555 1.2798 1.948
1109.163 1.598 3.158 3.148 3.078 4.278 2.368 1.748 3.858 3.458 2.608
1128.452 2.198 1.0611 1.2438 0.9925 2.398 2.468 2.518 3.458 2.008 1.838
1147.742 2.148 2.298 2.208 1.738 2.058 2.438 2.358 2.748 3.978 4.188
1167.032 3.558 3.718 2.928 2.578 3.428 3.698 4.298 5.028 4.638 4.628
1186.322 4.688 3.798 2.638 2.638 2.888 2.858 2.598 2.798 3.588 3.018
1205.611 3.718 4.948 4.398 2.868 1.888 1.5387 1.908 1.938 1.948 1.898
1224.901 1.2842 1.213 1.0484 1.158 1.2003 0.9775 0.6969 0.65535 0.7741 1.0044
1244.191 1.5718 2.228 2.198 1.668 1.4462 1.4942 1.708 1.4518 0.9578 0.7309
1263.481 1.0716 1.282 0.64182 0.358 0.7254 0.5717 0.7598 0.63989 0.267 0.548
1282.771 0.9636 1.0126 0.9429 1.3821 1.638 1.608 1.313 1.267 1.0733 0.8895
1302.060 1.1926 1.2242 1.3737 1.638 1.4915 1.1778 1.3667 1.4099 1.3013 1.668
1321.350 1.858 1.868 2.178 2.378 2.318 2.358 2.408 2.508 2.468 2.338
1340.640 2.548 2.708 2.528 2.458 2.558 2.548 2.518 2.708 2.558 2.618
1359.930 2.848 2.708 2.778 3.028 3.348 3.618 3.858 3.888 4.118 4.438
1379.219 4.568 4.918 5.208 5.518 5.978 6.458 6.888 7.218 7.688 8.128
1398.509 8.698 9.108 9.278 9.538 9.448 9.098 9.068 8.988 8.518 8.248
1417.799 8.148 7.928 7.428 6.858 6.448 6.238 6.118 6.068 6.288 6.248
1437.089 6.188 6.298 6.138 5.928 5.938 5.958 5.908 5.978 5.688 4.948
1456.378 4.378 4.128 3.978 3.658 3.328 3.138 3.148 3.068 2.718 2.698
1475.668 2.998 3.018 3.098 3.168 3.028 2.998 3.018 3.248 3.288 3.428
1494.958 3.738 3.908 3.808 3.628 3.668 3.658 3.468 3.568 3.808 3.858
1514.248 3.898 4.098 4.408 4.668 4.918 4.798 4.798 4.888 4.728 4.658
1533.538 4.478 4.328 4.498 4.418 3.898 3.528 3.538 3.348 3.108 2.928
1552.827 2.628 2.598 2.538 2.598 2.518 2.208 1.898 2.048 2.208 2.008
1572.117 2.168 2.248 2.238 2.468 2.268 2.348 2.698 2.778 3.028 3.178
1591.407 3.198 3.208 3.258 3.298 3.298 3.058 2.578 2.308 2.248 2.198
1610.697 2.148 1.828 1.758 1.598 1.2393 1.4256 1.678 1.658 1.628 1.588
1629.986 1.3584 1.2828 1.4847 1.658 1.608 1.4898 1.4451 1.2999 1.1861 1.2309
1649.276 1.2386 1.2291 1.0791 1.396 1.557 1.3129 1.2527 1.3292 1.2202 1.0481
1668.566 1.2553 1.2987 1.1308 1.1263 1.2407 1.3607 1.3979 1.2968 1.1948 1.1802
1687.856 1.2776 1.3243 1.1711 0.9202 0.8728 1.1242 1.2239 1.2019 1.2821 1.3083
1707.146 1.4374 1.4248 1.4122 1.4651 1.3245 1.2526 1.2029 1.1638 1.0502 1.087
1726.435 1.2376 1.3038 1.2877 1.302 1.5325 1.678 1.818 2.038 1.978 1.998
1745.725 2.178 2.128 2.298 2.418 2.338 2.508 2.468 2.238 2.128 2.108
1765.015 1.998 1.788 1.678 1.5333 1.4018 1.3611 1.2679 1.2129 1.2234 1.3364
1784.305 1.2656 1.1043 1.2424 1.4202 1.3719 1.3449 1.1713 1.1917 1.3981 1.3428
1803.594 1.2695 1.3225 1.1736 1.0347 1.0605 1.0442 1.1233 1.0327 1.1207 1.1951
1822.884 1.0963 1.0391 1.1513 1.2616 1.3649 1.5505 1.4671 1.2741 1.3018 1.3936
1842.174 1.4167 1.4242 1.313 1.3665 1.2293 1.1495 1.3663 1.3744 1.3521 1.3794
1861.464 1.3565 1.2978 1.3986 1.3277 1.4172 1.5324 1.2952 1.166 1.1536 1.3611
1880.754 1.4912 1.3674 1.2732 1.2223 1.267 1.3598 1.1795 1.0064 1.1931 1.3355
1900.043 1.2417 1.2792 1.5796 1.4539 1.2054 1.2116 1.139 1.3209 1.4295 1.3698
1919.333 1.3322 1.3612 1.3573 1.3698 1.5511 1.516 1.3138 1.1462 1.0926 1.0389
1938.623 1.1206 1.3914 1.4184 1.3971 1.5342 1.3484 1.2234 1.4686 1.47 1.242
1957.913 1.3156 1.4468 1.2825 1.2772 1.4163 1.3662 1.2855 1.0836 1.068 1.4568
1977.202 1.608 1.3778 1.3299 1.4368 1.2994 1.3212 1.4534 1.3975 1.3623 1.3012
1996.492 1.2927 1.5284 1.5098 1.5628 1.748 1.4422 1.2611 1.2317 1.0967 1.1802
2015.782 1.4235 1.4907 1.3308 1.3398 1.4397 1.364 1.1407 1.0172 1.0388 0.9929
2035.072 1.1313 1.2088 1.1533 1.0278 1.0673 1.1741 1.0926 1.026 1.2697 1.4453
2054.362 1.3369 1.2566 1.0433 1.1904 1.2298 1.2238 1.311 1.0688 1.0762 1.3343
2073.651 1.4571 1.4441 1.4247 1.4203 1.4368 1.3617 1.4298 1.5444 1.5332 1.668
2092.941 1.5437 1.2664 1.3225 1.416 1.3495 1.3881 1.297 1.2942 1.3738 1.2895
2112.231 1.2286 1.344 1.4633 1.2742 1.112 1.1034 1.0872 1.1682 1.1863 1.2787
2131.521 1.3162 1.0398 0.9247 1.1871 1.2409 1.0124 1.1347 1.2506 1.0803 1.0817
2150.810 1.286 1.5045 1.5182 1.3634 1.3042 1.4255 1.708 1.618 1.5366 1.5803
2170.100 1.608 1.818 1.898 1.838 1.878 1.858 1.888 1.908 1.798 1.748
2189.390 1.678 1.768 2.018 2.508 2.758 3.088 3.888 4.628 5.458 6.468
2208.680 7.488 8.568 9.618 10.478 11.248 11.828 12.058 12.188 12.208 11.738
2227.970 11.508 10.938 9.768 8.628 7.028 5.468 4.258 3.418 2.798 2.238
2247.259 1.818 1.5509 1.5269 1.5504 1.5442 1.718 1.928 1.888 1.888 1.678
2266.549 1.1265 1.0451 1.3005 1.2194 1.1963 1.3625 1.1161 1.0712 1.18 1.1969
2285.839 1.365 1.3044 1.0899 1.0454 1.1283 1.2236 1.1411 1.3333 1.4346 1.4011
2305.129 1.4771 1.4003 1.608 1.708 1.5206 1.4267 1.4886 1.1919 1.4069 1.738
2324.418 1.668 1.5832 1.2359 1.1176 1.188 1.4245 1.4776 1.5188 1.4931 1.3899
2343.708 1.532 1.608 1.4626 1.317 1.2156 1.0878 1.1228 1.3193 1.608 1.668
2362.998 1.3389 1.0874 1.1949 1.3922 1.2179 1.2311 1.4041 1.2363 1.1966 1.1442
2382.288 1.224 1.3413 1.3084 1.4544 1.4833 1.2881 1.3924 1.4179 1.2353 1.1771
2401.578 0.9623 1.247 1.5676 1.2888 1.2444 1.4647 1.5626 1.2353 0.9703 1.1927
2420.867 1.3914 1.0727 0.9327 1.226 1.3784 1.336 1.2462 1.5088 1.3681 1.2434
2440.157 1.3504 1.0253 1.173 1.658 1.44 1.1383 1.3606 1.3146 1.1047 1.184
2459.447 1.099 1.1269 1.5039 1.3814 1.1791 1.3026 1.049 1.1482 1.3215 1.1531
2478.737 0.9643 0.7816 0.9405 1.0128 0.9893 0.9733 1.1906 1.3762 1.588 1.4807
2498.026 1.4257 1.788 1.4496 1.1064 1.0444 1.1617 1.5078 1.4818 1.5309 1.5257
2517.316 1.21 1.3179 1.4382 1.36 1.3887 1.3082 1.2596 1.1958 1.5477 1.738
2536.606 1.2549 1.0147 0.9169 1.0902 1.2072 1.1324 1.1844 1.1828 1.1427 1.2331
2555.896 1.294 1.5712 1.658 1.3939 1.3582 1.2948 1.3015 1.0147 0.9134 1.0008
2575.186 0.8922 1.0033 0.9611 1.0412 1.3192 1.4122 1.583 1.4053 1.1586 0.936
2594.475 0.8266 1.3381 1.638 1.2337 0.9683 0.9795 0.9524 1.085 1.1577 1.4365
2613.765 1.19 1.2085 1.4673 1.3688 1.4302 1.3825 1.5303 1.473 1.2572 1.3494
2633.055 1.3358 1.2912 1.2306 1.0412 1.0715 1.4141 1.688 1.547 1.3914 1.3272
2652.345 1.2037 1.2738 1.3993 1.3621 1.2964 1.4282 1.3976 1.1072 0.892 0.9933
2671.634 1.1289 1.2837 1.394 1.4192 1.5591 1.4774 1.282 1.4244 1.4343 1.5082
2690.924 1.3756 1.0375 1.0587 0.698 0.6266 1.0911 1.1398 1.2617 1.798 1.598
2710.214 1.1343 1.1142 1.2418 0.9978 0.7497 0.9413 1.2843 1.1414 0.8295 1.0315
2729.504 1.1419 1.1964 1.2719 1.1027 1.0083 1.1957 1.5656 1.2791 1.2311 1.618
2748.794 1.2618 1.1468 1.2046 1.0712 1.0932 1.1354 1.2114 1.4149 1.2711 0.942
2768.083 0.949 1.3155 1.1151 0.8729 0.9278 0.9599 1.4221 1.3626 1.059 0.9538
2787.373 1.1362 1.3811 1.4745 1.4439 1.0999 1.1405 1.2316 0.8819 0.8504 1.1702
2806.663 1.2762 1.0021 1.0358 1.4453 1.818 2.058 2.118 1.868 1.628 1.688
2825.953 1.668 1.648 1.5512 1.778 2.158 1.898 1.838 2.188 2.218 2.128
2845.242 1.5761 1.222 1.3199 1.5202 1.728 1.958 2.188 2.218 2.288 2.618
2864.532 2.758 2.798 3.028 2.888 3.128 3.498 3.098 3.008 3.408 3.418
2883.822 3.058 3.298 3.328 3.058 3.388 3.078 2.848 2.708 2.768 2.808
2903.112 2.308 2.288 2.688 2.688 2.548 3.448 4.308 4.048 3.688 4.218
2922.401 4.778 5.158 5.698 6.098 6.868 7.268 7.038 7.028 6.878 6.848
2941.691 6.848 6.608 6.398 5.848 5.428 5.108 4.788 4.628 4.238 4.168
2960.981 3.758 3.088 2.978 3.158 3.308 3.268 3.198 3.178 3.358 3.488
2980.271 3.308 2.998 2.448 2.398 2.768 2.428 2.538 2.978 2.858 2.448
2999.561 2.198 2.118 2.138 2.358 2.758 2.718 2.808 2.778 1.938 2.138
3018.850 2.508 2.508 2.818 2.828 2.328 2.368 2.748 2.428 2.348 2.818
3038.140 2.908 2.678 2.738 2.248 1.998 2.488 2.528 2.508 2.748 2.538
3057.430 2.448 2.518 2.328 2.398 2.318 2.558 2.838 2.308 2.248 2.628
3076.720 2.738 2.978 2.818 2.538 2.468 2.428 2.478 2.358 2.278 2.398
3096.009 2.238 2.148 2.338 2.158 1.1698 0.6884 1.1555 1.4129 1.638 1.898
3115.299 1.698 1.3276 1.2464 1.474 1.4061 1.4744 1.768 1.988 1.798 1.1292
3134.589 1.0327 1.5869 1.838 1.3543 0.9371 1.2279 1.4735 1.2986 1.451 1.958
3153.879 1.878 1.4002 1.0156 0.7171 0.9992 1.4103 1.4765 1.1488 0.9911 1.2997
3173.169 1.3284 1.3284 1.3225 0.8817 1.1204 1.5365 1.5536 1.0974 0.7458 1.1632
3192.458 1.0897 1.2196 1.628 1.5452 1.4223 1.3912 1.039 0.8843 1.638 2.288
3211.748 1.848 1.0443 1.3556 1.688 1.3421 1.2009 1.1867 1.2166 1.2586 1.1833
3231.038 1.2488 1.4318 0.9429 0.8138 1.1047 1.1339 0.8981 1.163 1.828 1.968
3250.328 1.758 1.1737 1.0824 1.3282 1.628 1.3195 0.7428 0.7942 1.0883 0.9328
3269.617 0.341 0.7445 1.4712 1.3589 1.1069 0.9365 0.9711 1.1452 1.2381 0.9101
3288.907 0.382 0.9399 1.3132 0.8161 0.9773 1.668 1.738 0.9904 1.0417 1.2698
3308.197 1.0956 1.2953 1.2507 0.8486 0.9224 0.9551 0.8467 0.9915 1.2719 1.4756
3327.487 1.4434 1.1819 1.4098 1.708 1.2359 1.1171 1.3821 1.848 2.138 1.648
3346.777 1.2713 1.778 2.428 2.178 1.688 1.3983 1.4475 1.5423 1.2286 1.788
3366.066 1.888 1.4056 1.3604 1.3987 1.3067 0.8659 0.8889 1.3393 1.4293 1.3657
3385.356 1.2849 1.0182 1.2217 1.374 1.3546 1.4417 1.1394 1.064 1.1451 1.2884
3404.646 1.482 1.0669 0.446 0.453 0.8266 0.9311 0.8511 0.8705 0.68299 0.7224
3423.936 1.0603 1.2313 1.5402 1.768 1.778 1.507 1.2293 0.9552 0.8562 1.2152
3443.225 1.3078 1.1976 1.0551 0.9022 1.2206 1.3814 1.0394 1.135 1.2964 1.1241
3462.515 1.2451 1.5069 1.758 1.4903 1.3925 1.668 1.5285 1.45 1.448 1.5316
3481.805 0.9014 0.833 1.0844 0.8456 1.2607 1.3306 1.3163 1.4773 1.193 1.1419
3501.095 1.4525 1.3108 1.1828 1.4054 1.0705 0.8969 1.1713 0.8376 0.7381 1.0702
3520.385 1.1833 1.1913 1.4186 1.4648 1.4365 1.2094 0.9709 0.7968 1.1965 1.958
3539.674 1.4766 1.155 1.243 1.1255 0.8533 1.109 1.3359 1.3913 1.5641 1.3424
3558.964 1.2614 1.3086 0.85 0.7992 1.4208 1.588 1.5401 1.3186 1.438 1.848
3578.254 1.888 1.2287 0.8852 1.648 1.888 1.738 1.658 1.4614 1.2512 0.8298
3597.544 0.66778 0.67611 0.7666 0.9596 0.8464 0.7597 1.2271 1.648 1.798 1.1987
3616.833 0.7639 1.0349 1.1508 1.2238 1.0238 1.0429 0.9598 0.7664 0.8917 0.8424
3636.123 1.1654 0.8636 0.432 0.782 1.079 1.1668 1.2378 1.2042 1.0996 1.3756
3655.413 1.2366 1.1696 1.316 0.927 1.173 1.011 0.7217 1.1435 1.848 2.038
3674.703 0.9755 0.7101 0.9695 1.4472 1.708 1.778 1.5 0.9788 1.0009 0.9349
3693.993 1.2711 1.5457 1.4668 1.1724 1.2291 1.4113 1.3938 0.931 0.7953 1.3379
3713.282 1.618 1.2037 1.4116 1.628 1.3522 1.4527 1.1788 1.3289 1.5063 1.2213
3732.572 1.2351 1.2989 1.2631 1.648 1.5388 1.1471 1.055 1.3795 1.3148 1.0532
3751.862 0.7938 0.84 1.4502 1.598 1.4338 1.2798 1.5537 1.998 1.4623 1.1356
3771.152 1.1639 1.1036 1.618 1.2999 0.315 0.42 0.8528 1.0235 1.5284 1.521
3790.441 1.968 2.198 1.4008 1.2301 1.1239 0.8029 0.9086 1.0585 0.68146 0.356
3809.731 0.7603 1.3167 1.0111 1.2817 2.178 1.788 1.221 1.3428 1.5204 1.628
3829.021 1.5552 1.1438 1.3666 2.058 1.848 1.5109 1.778 1.698 0.893 0.695
3848.311 1.3114 1.968 2.228 1.938 1.1266 0.9593 1.391 0.7346 0 0.416
3867.601 1.283 2.178 2.318 1.2962 0.8109 1.3151 1.392 0.9275 0.7951 1.26
3886.890 1.908 1.658 1.2036 1.0929 1.1785 1.5632 1.5807 1.437 1.758 1.638
3906.180 1.0828 0.9 0.288 0.045 0.9489 1.0376 1.1289 1.918 1.908 1.4748
3925.470 1.2195 1.678 1.888 1.143 0.7976 1.2989 1.35 1.0429 1.1544 1.3582
3944.760 1.5802 1.608 1.608 1.542 1.5781 1.2101 0.8449 1.1935 1.608 1.728
3964.049 1.5757 0.8742 1.0762 1.5552 0.9596 1.5019 1.948 1.2967 1.2443 1.5117
3983.339 1.748 1.5569 0.9226 1.0779 1.437 1.4198 1.1661 1.149 1.3692 0.9733
##END=
