##TITLE=3,4-Methylendioxybenzyl acetone
##JCAMP-DX=4.24
##DATA TYPE=INFRARED SPECTRUM
##ORIGIN=EPA-IR VAPOR PHASE LIBRARY
##OWNER=SRD/NIST
Collection (C) 2018 copyright by the U.S. Secretary of Commerce
on behalf of the United States of America. All rights reserved.
##CAS REGISTRY NO=55418-52-5
##MOLFORM=C 11 H 12 O 3
##$NIST SOURCE=MSDC-IR
##STATE=gas
##XUNITS=1/CM
##YUNITS=ABSORBANCE
##XFACTOR=1.
##YFACTOR=0.001
##DELTAX=1.92898
##FIRSTX=549.8
##LASTX=4000.7
##FIRSTY=1.492
##MAXX=4000.7
##MINX=549.759
##MAXY=0.175552
##MINY=0
##NPOINTS=1790
##XYDATA=(X++(Y..Y))
549.759 1.492 1.562 2.002 2.082 2.042 1.742 1.702 1.812 1.792 1.882
569.049 2.052 2.502 2.622 2.532 3.162 4.022 4.322 4.702 4.972 4.882
588.339 4.832 4.662 4.682 4.662 4.592 4.552 4.522 4.792 4.892 4.752
607.628 4.642 4.442 4.252 4.082 3.982 3.922 3.902 3.892 3.872 4.042
626.918 4.352 4.412 4.332 4.552 4.562 4.092 3.522 3.082 2.752 2.372
646.208 2.192 2.012 1.642 1.492 1.372 1.142 1.112 1.122 1.112 1.0221
665.498 0.8075 0.7568 0.8069 0.8032 0.6242 0.6879 0.7903 0.6232 0.6911 0.5903
684.787 0.435 0.5325 0.5929 0.585 0.6369 0.6489 0.6489 0.7839 0.7302 0.7322
704.077 1.1044 1.402 1.602 1.862 2.022 2.202 2.402 2.532 2.402 2.312
723.367 2.352 2.262 2.312 2.422 2.462 2.592 2.752 2.782 2.732 2.672
742.657 2.642 2.552 2.602 2.722 2.862 2.862 2.842 3.022 3.022 2.952
761.947 3.012 3.282 3.582 3.682 3.752 4.052 4.452 4.992 5.572 6.412
781.236 7.782 9.282 10.872 12.882 15.212 17.692 20.312 23.042 25.842 28.322
800.526 30.232 31.522 31.852 31.242 30.132 28.222 25.482 22.422 19.462 16.782
819.816 14.412 12.452 10.782 9.682 8.932 8.222 7.902 7.712 7.522 7.372
839.106 7.402 7.542 7.542 7.602 7.932 8.302 8.652 9.122 9.612 10.092
858.395 10.552 10.592 10.442 10.292 10.002 9.662 9.082 8.442 7.992 7.582
877.685 7.062 6.382 5.812 5.582 5.652 5.482 5.272 5.482 5.732 6.112
896.975 6.722 7.422 8.312 9.232 10.292 11.452 12.592 14.002 15.432 16.812
916.265 18.222 19.542 20.842 22.172 23.502 24.832 26.002 27.282 28.842 30.462
935.555 32.092 33.692 35.062 36.272 37.102 37.252 36.612 35.412 33.552 30.662
954.844 27.462 24.202 20.932 18.202 15.902 13.752 12.092 10.912 9.902 9.122
974.134 8.532 7.962 7.462 6.882 6.392 6.122 5.972 5.962 5.872 5.902
993.424 6.152 6.472 6.682 7.032 7.562 8.072 8.732 9.392 10.122 11.232
1012.714 12.582 13.892 15.292 16.912 18.832 21.012 23.572 26.282 29.402 33.292
1032.003 37.462 41.752 46.252 50.862 55.522 60.212 64.762 68.542 71.092 72.492
1051.293 72.522 71.012 68.052 63.782 58.412 52.622 46.772 41.112 35.722 30.722
1070.583 26.552 23.312 20.862 18.902 17.482 16.612 16.142 16.162 16.582 16.802
1089.873 17.282 17.972 18.342 18.572 18.452 18.822 19.152 18.892 18.812 18.892
1109.163 19.332 20.182 20.862 21.672 22.692 23.092 22.872 22.502 21.632 20.502
1128.452 19.572 18.602 18.102 18.412 18.772 19.672 21.202 22.922 24.962 26.782
1147.742 28.562 30.752 32.552 33.432 33.992 33.752 33.072 31.912 30.502 29.242
1167.032 28.322 28.192 28.392 29.212 30.802 33.102 36.212 40.202 44.872 49.702
1186.322 53.672 56.282 57.382 56.832 55.112 52.322 48.722 45.662 43.202 41.492
1205.611 41.082 40.802 40.952 41.662 42.692 43.892 45.422 47.902 50.582 53.992
1224.901 58.872 64.592 72.322 82.842 95.062 109.882 127.152 144.472 159.882 170.782
1244.191 175.552 173.472 163.962 148.762 129.902 109.812 91.002 74.862 61.682 50.992
1263.481 42.422 35.652 30.522 26.442 23.312 21.222 19.512 18.172 17.442 16.892
1282.771 16.322 15.942 15.572 15.032 14.542 14.082 13.572 13.052 12.642 12.412
1302.060 12.352 12.292 12.252 12.352 12.512 12.772 13.202 13.712 14.232 14.882
1321.350 15.662 16.442 17.282 18.152 19.112 20.192 21.352 22.612 24.032 25.622
1340.640 27.442 29.552 32.032 34.902 38.072 41.472 44.912 48.252 51.052 52.972
1359.930 53.872 53.442 51.672 48.752 44.912 40.542 36.002 31.712 27.842 24.492
1379.219 21.682 19.412 17.592 16.132 15.092 14.372 13.902 13.662 13.482 13.322
1398.509 13.302 13.382 13.472 13.652 14.032 14.632 15.452 16.452 17.572 18.902
1417.799 20.322 21.912 23.872 26.092 28.742 31.972 35.882 40.552 46.092 52.532
1437.089 59.332 65.582 70.412 72.992 73.012 70.522 65.512 58.552 50.992 44.322
1456.378 39.002 34.952 32.272 30.702 30.192 30.752 32.222 34.822 38.782 44.412
1475.668 52.162 62.592 76.252 93.472 113.772 135.172 154.042 166.342 169.502 163.642
1494.958 150.212 131.172 110.162 91.982 79.202 70.212 63.102 57.622 52.572 45.662
1514.248 36.882 28.992 23.412 19.732 17.182 15.192 13.642 12.342 11.222 10.322
1533.538 9.532 8.842 8.302 7.842 7.372 6.922 6.532 6.182 5.932 5.772
1552.827 5.582 5.362 5.152 5.022 4.942 4.852 4.832 4.762 4.672 4.652
1572.117 4.582 4.552 4.592 4.592 4.642 4.692 4.822 5.012 5.122 5.322
1591.407 5.572 5.812 6.052 6.312 6.572 6.732 6.812 7.002 7.162 7.072
1610.697 6.932 6.712 6.482 6.232 5.912 5.512 5.192 4.952 4.742 4.532
1629.986 4.282 4.132 4.072 3.972 3.752 3.602 3.562 3.452 3.412 3.432
1649.276 3.432 3.512 3.572 3.632 3.802 3.912 4.082 4.302 4.492 4.712
1668.566 5.022 5.302 5.702 6.172 6.612 7.162 7.732 8.372 9.042 9.772
1687.856 10.662 11.592 12.532 13.542 14.672 16.002 17.482 19.052 20.792 22.832
1707.146 25.072 27.532 30.362 33.502 37.172 41.512 46.372 51.842 57.782 63.782
1726.435 69.542 74.482 77.802 79.002 77.902 74.492 69.002 62.322 55.382 48.622
1745.725 42.392 36.892 32.172 28.142 24.742 21.862 19.452 17.412 15.572 14.022
1765.015 12.642 11.312 10.142 9.162 8.322 7.602 6.912 6.312 5.822 5.402
1784.305 5.012 4.652 4.312 4.042 3.812 3.572 3.362 3.182 3.072 2.982
1803.594 2.912 2.912 2.922 2.892 2.912 3.042 3.172 3.292 3.452 3.622
1822.884 3.752 3.842 3.932 4.042 4.082 4.022 4.012 4.012 3.972 3.952
1842.174 3.912 3.812 3.752 3.662 3.562 3.502 3.502 3.512 3.512 3.482
1861.464 3.422 3.402 3.402 3.372 3.322 3.272 3.202 3.122 3.052 3.022
1880.754 2.932 2.862 2.832 2.672 2.532 2.452 2.332 2.232 2.142 1.962
1900.043 1.772 1.712 1.682 1.562 1.442 1.422 1.412 1.332 1.282 1.322
1919.333 1.312 1.302 1.262 1.232 1.242 1.252 1.242 1.302 1.332 1.292
1938.623 1.232 1.202 1.282 1.292 1.222 1.212 1.202 1.222 1.242 1.192
1957.913 1.192 1.192 1.192 1.172 1.152 1.142 1.122 1.152 1.192 1.242
1977.202 1.262 1.222 1.262 1.342 1.342 1.312 1.342 1.432 1.492 1.452
1996.492 1.422 1.442 1.482 1.542 1.572 1.582 1.582 1.562 1.512 1.502
2015.782 1.492 1.472 1.482 1.502 1.522 1.542 1.552 1.562 1.642 1.712
2035.072 1.752 1.772 1.822 1.932 2.022 2.042 2.022 2.002 1.992 1.982
2054.362 1.892 1.852 1.822 1.712 1.672 1.682 1.662 1.602 1.582 1.552
2073.651 1.512 1.522 1.472 1.432 1.402 1.352 1.342 1.352 1.402 1.412
2092.941 1.382 1.362 1.312 1.312 1.342 1.302 1.262 1.232 1.162 1.162
2112.231 1.122 1.0388 1.06 1.112 1.142 1.1067 1.0604 1.0709 1.0766 1.0642
2131.521 1.0781 1.0809 1.0909 1.1015 1.073 1.0014 0.9493 0.9298 0.8913 0.8867
2150.810 0.9363 0.9753 0.9775 0.9418 0.911 0.9587 0.9977 0.9774 0.9887 0.9601
2170.100 0.9221 0.9426 0.9795 1.0007 0.9788 0.9809 0.992 0.9535 0.9513 1.028
2189.390 1.0826 1.0847 1.0602 1.0003 1.0079 1.0224 1.0036 1.0546 1.0638 0.9912
2208.680 0.9712 0.9626 0.9768 0.9509 0.8837 0.9392 0.9523 0.952 0.9724 0.9205
2227.970 0.8871 0.837 0.8005 0.8 0.7351 0.8258 0.9287 0.8475 0.8246 0.8296
2247.259 0.8714 0.9548 0.9366 0.9007 0.9244 0.9263 0.8567 0.8485 0.9405 0.9712
2266.549 0.9523 0.9174 0.9216 0.972 0.9931 1.0166 1.0177 0.9997 1.022 1.0618
2285.839 1.0723 1.0562 1.0452 1.0395 1.152 1.262 1.202 1.212 1.222 1.242
2305.129 1.252 1.252 1.262 1.202 1.172 1.162 1.162 1.0935 1.0156 1.0112
2324.418 1.0337 1.0175 0.9648 0.9581 0.9713 0.9117 0.8761 0.8283 0.7891 0.828
2343.708 0.8743 0.8992 0.9017 0.8822 0.8617 0.897 0.9298 0.9855 1.044 1.0356
2362.998 0.9949 0.9868 0.9814 0.9813 0.9603 0.9375 0.8985 0.8613 0.8631 0.8023
2382.288 0.7431 0.7187 0.7164 0.6823 0.652 0.6582 0.6535 0.6243 0.569 0.5293
2401.578 0.5481 0.5549 0.5524 0.5819 0.5954 0.5932 0.5473 0.5165 0.5658 0.5917
2420.867 0.5263 0.5467 0.5596 0.5223 0.6162 0.7052 0.7124 0.6934 0.6119 0.7028
2440.157 0.7882 0.6757 0.6043 0.6123 0.6462 0.7079 0.7098 0.6514 0.6194 0.5727
2459.447 0.5778 0.6569 0.6743 0.6697 0.7562 0.7137 0.5782 0.5686 0.5832 0.579
2478.737 0.5916 0.6603 0.7379 0.7644 0.7408 0.7239 0.7268 0.7295 0.8355 0.835
2498.026 0.842 0.9182 0.865 0.8353 0.8458 0.8688 0.9239 0.8976 0.9291 0.9952
2517.316 1.0121 1.142 1.172 1.0646 1.0725 1.0857 1.0494 1.152 1.212 1.212
2536.606 1.272 1.342 1.372 1.342 1.342 1.302 1.262 1.282 1.252 1.242
2555.896 1.252 1.212 1.172 1.172 1.192 1.202 1.212 1.202 1.282 1.362
2575.186 1.372 1.332 1.262 1.332 1.412 1.412 1.402 1.432 1.422 1.412
2594.475 1.462 1.402 1.402 1.512 1.522 1.392 1.272 1.222 1.222 1.292
2613.765 1.222 1.0724 1.0375 1.0208 0.9981 0.9603 0.9292 0.9052 0.8818 0.8335
2633.055 0.8247 0.8946 0.8835 0.8819 0.9674 0.9353 0.9739 1.105 1.152 1.162
2652.345 1.1007 1.122 1.142 1.142 1.222 1.242 1.242 1.252 1.302 1.372
2671.634 1.392 1.462 1.542 1.632 1.732 1.782 1.752 1.752 1.732 1.652
2690.924 1.712 1.752 1.642 1.562 1.632 1.582 1.492 1.542 1.592 1.542
2710.214 1.492 1.452 1.442 1.452 1.502 1.612 1.672 1.692 1.672 1.672
2729.504 1.772 1.892 1.892 1.912 2.052 2.122 2.252 2.402 2.402 2.492
2748.794 2.622 2.802 3.032 3.222 3.562 4.082 4.632 5.282 6.142 7.212
2768.083 8.312 9.292 9.982 10.272 10.152 9.722 8.962 7.752 6.422 5.452
2787.373 4.892 4.452 4.102 3.972 3.962 3.982 4.052 4.092 4.172 4.292
2806.663 4.362 4.522 4.762 4.892 5.142 5.382 5.482 5.782 6.152 6.362
2825.953 6.582 6.972 7.572 8.032 8.452 9.022 9.542 10.092 10.582 11.082
2845.242 11.672 12.242 12.982 13.882 14.862 16.072 17.532 19.022 20.592 22.242
2864.532 23.922 25.712 27.552 29.192 30.502 31.702 32.512 33.042 33.382 33.292
2883.822 32.862 32.292 31.872 31.542 31.382 31.332 31.522 31.812 32.072 32.582
2903.112 33.162 33.732 34.342 34.992 35.652 36.292 36.872 37.312 37.642 37.812
2922.401 37.912 38.142 38.282 38.302 38.152 37.712 37.312 36.842 35.942 35.022
2941.691 34.212 33.342 32.462 31.642 30.862 30.092 29.392 28.762 28.152 27.362
2960.981 26.572 25.882 24.912 23.672 22.422 21.012 19.622 18.302 16.922 15.672
2980.271 14.622 13.882 13.292 12.722 12.272 12.182 12.062 11.902 11.992 12.242
2999.561 12.552 12.832 13.182 13.632 14.302 15.102 15.802 16.382 16.932 17.282
3018.850 17.132 16.802 16.362 15.832 15.412 14.902 14.452 14.272 14.062 13.662
3038.140 13.422 13.242 12.762 12.092 11.342 10.772 10.392 9.852 9.532 9.242
3057.430 8.812 8.602 8.462 8.312 8.112 7.982 8.002 7.922 7.752 7.752
3076.720 7.642 7.342 6.912 6.302 5.792 5.392 5.022 4.562 4.232 4.212
3096.009 4.032 3.822 3.732 3.512 3.322 3.232 3.062 2.882 2.782 2.552
3115.299 2.392 2.392 2.232 1.972 1.802 1.712 1.512 1.342 1.242 1.222
3134.589 1.132 0.8874 0.7319 0.7657 0.8274 0.8607 0.7049 0.6467 0.7382 0.7237
3153.879 0.6183 0.556 0.6583 0.6029 0.4371 0.3799 0.434 0.452 0.4447 0.4225
3173.169 0.5134 0.4975 0.4574 0.5762 0.4819 0.2462 0.20551 0.3521 0.3813 0.418
3192.458 0.3794 0.3018 0.3313 0.3084 0.4392 0.5517 0.489 0.3 0.3288 0.4206
3211.748 0.3638 0.2776 0.112787 0.14224 0.2756 0.2567 0.2693 0.4567 0.519 0.4953
3231.038 0.5898 0.5996 0.5539 0.5466 0.4788 0.3575 0.2871 0.3115 0.3594 0.2945
3250.328 0.20347 0.2715 0.3387 0.3481 0.2415 0.20418 0.2996 0.2851 0.2277 0.17358
3269.617 0.2852 0.3049 0.1487 0.15308 0.20355 0.263 0.17332 0 0.16169 0.2991
3288.907 0.18307 0.2675 0.3173 0.2157 0.2578 0.2432 0.10503 0.0478 0.0463 0.116485
3308.197 0.10996 0.0265 0.0184 0.0487 0.1391 0.10329 0.119917 0.2611 0.2508 0.223
3327.487 0.3229 0.3232 0.2212 0.2656 0.454 0.4081 0.1629 0.3512 0.4844 0.3994
3346.777 0.3525 0.3413 0.4061 0.3401 0.4089 0.479 0.5065 0.392 0.2623 0.4217
3366.066 0.3607 0.2788 0.3154 0.3479 0.3264 0.3502 0.3806 0.3305 0.2978 0.2502
3385.356 0.2847 0.3919 0.4272 0.4707 0.606 0.6732 0.6814 0.5647 0.5456 0.7502
3404.646 0.8203 0.6408 0.5714 0.6215 0.6269 0.6428 0.7548 0.8906 0.8888 0.8563
3423.936 0.8906 0.9935 1.1068 1.152 1.232 1.412 1.542 1.502 1.472 1.452
3443.225 1.542 1.702 1.582 1.482 1.532 1.472 1.522 1.382 1.322 1.332
3462.515 1.192 1.0355 0.9384 0.9247 0.9071 0.8666 0.6938 0.6053 0.5761 0.56
3481.805 0.5858 0.5606 0.516 0.4537 0.4931 0.5809 0.4727 0.4009 0.3654 0.3334
3501.095 0.2713 0.2314 0.2743 0.3494 0.4889 0.5087 0.2855 0.18903 0.2978 0.3513
3520.385 0.2793 0.2182 0.2965 0.4216 0.4725 0.224 0.0877 0.2383 0.3722 0.3726
3539.674 0.4969 0.6377 0.4609 0.395 0.4718 0.4135 0.2923 0.3032 0.2851 0.3233
3558.964 0.4381 0.3541 0.3542 0.3663 0.3129 0.3212 0.2779 0.3263 0.3453 0.17656
3578.254 0.0758 0.13416 0.2755 0.3516 0.286 0.2507 0.1627 0.2767 0.4023 0.2273
3597.544 0.3402 0.4591 0.3148 0.344 0.4317 0.3485 0.3257 0.2138 0.2126 0.16148
3616.833 0.0399 0.13387 0.2125 0.2679 0.285 0.3868 0.3725 0.2899 0.2974 0.3595
3636.123 0.4218 0.2189 0.17273 0.3491 0.5215 0.5156 0.3823 0.372 0.3656 0.3759
3655.413 0.2959 0.2406 0.3684 0.4802 0.489 0.4643 0.419 0.2869 0.10491 0.12586
3674.703 0.0993 0.18176 0.4568 0.5231 0.3266 0.237 0.3925 0.4335 0.4184 0.3252
3693.993 0.303 0.3868 0.3736 0.3757 0.3959 0.2583 0.2667 0.4421 0.4248 0.3151
3713.282 0.2659 0.3557 0.428 0.3672 0.3776 0.386 0.3261 0.3357 0.3466 0.352
3732.572 0.3634 0.3319 0.1662 0.2163 0.4598 0.4866 0.3784 0.3532 0.4943 0.3998
3751.862 0.2737 0.3374 0.3866 0.1845 0.0365 0.3157 0.3911 0.3079 0.3484 0.2873
3771.152 0.2805 0.2773 0.0719 0.2131 0.3631 0.2375 0.2344 0.2898 0.2317 0.3626
3790.441 0.5305 0.5751 0.583 0.4759 0.3721 0.3964 0.6171 0.7169 0.6305 0.6561
3809.731 0.7799 0.7623 0.4999 0.4877 0.6617 0.4964 0.4558 0.4384 0.4287 0.4381
3829.021 0.4847 0.5566 0.3875 0.453 0.5512 0.3935 0.3356 0.3736 0.4005 0.5423
3848.311 0.5667 0.3906 0.5435 0.7224 0.5655 0.2597 0.2242 0.5203 0.5993 0.5387
3867.601 0.4102 0.4019 0.3915 0.4631 0.6203 0.6198 0.6234 0.4895 0.5555 0.6617
3886.890 0.6422 0.6979 0.662 0.6091 0.5798 0.5516 0.5304 0.5293 0.5292 0.329
3906.180 0.3187 0.5775 0.5541 0.5705 0.5074 0.4007 0.4625 0.502 0.5295 0.5668
3925.470 0.6585 0.6644 0.6768 0.7399 0.7309 0.6399 0.6595 0.7145 0.623 0.5277
3944.760 0.7177 0.7286 0.5076 0.6979 0.7867 0.529 0.5148 0.7719 0.8104 0.5998
3964.049 0.5132 0.6526 0.7712 0.6303 0.5655 0.7308 0.7629 0.8166 0.8781 0.6537
3983.339 0.5662 0.725 0.7827 0.7302 0.6677 0.7413 0.7127 0.7948 0.8784 0.7783
##END=
