##TITLE=4-(2)(Methylamino)ethyl)pyridine
##JCAMP-DX=4.24
##DATA TYPE=INFRARED SPECTRUM
##ORIGIN=EPA-IR VAPOR PHASE LIBRARY
##OWNER=SRD/NIST
Collection (C) 2018 copyright by the U.S. Secretary of Commerce
on behalf of the United States of America. All rights reserved.
##CAS REGISTRY NO=55496-55-4
##MOLFORM=C 8 H 12 N 2
##$NIST SOURCE=MSDC-IR
##STATE=gas
##XUNITS=1/CM
##YUNITS=ABSORBANCE
##XFACTOR=1.
##YFACTOR=0.001
##DELTAX=1.92898
##FIRSTX=549.8
##LASTX=4000.7
##FIRSTY=5.391
##MAXX=4000.7
##MINX=549.759
##MAXY=0.072521
##MINY=0
##NPOINTS=1790
##XYDATA=(X++(Y..Y))
549.759 5.391 5.581 5.771 6.321 6.881 7.201 7.681 8.491 9.601 10.751
569.049 11.751 12.791 13.941 15.331 16.721 17.171 17.571 18.271 18.511 18.151
588.339 17.411 16.461 15.291 14.211 12.831 11.351 10.291 9.371 8.581 7.921
607.628 7.751 7.591 7.521 7.591 7.391 7.341 7.411 7.791 8.011 8.151
626.918 8.321 8.551 8.961 9.141 9.471 9.821 10.101 10.361 10.521 11.071
646.208 11.511 11.621 12.111 12.521 12.871 13.231 13.611 13.991 14.261 14.531
665.498 14.691 15.071 15.421 15.671 15.751 15.681 15.791 15.821 15.581 15.491
684.787 15.651 15.641 15.591 15.771 15.721 15.801 16.041 16.141 16.281 16.441
704.077 16.691 16.831 16.971 17.041 16.931 16.821 16.751 16.641 16.501 16.451
723.367 16.171 15.821 15.461 14.911 14.491 14.121 13.591 13.121 12.811 12.401
742.657 12.021 11.911 11.711 11.251 11.111 11.121 11.081 11.151 11.421 11.941
761.947 12.711 13.521 14.491 15.691 16.661 17.571 18.521 19.271 19.641 20.091
781.236 20.751 21.301 21.921 22.511 23.421 24.771 25.911 26.741 27.291 27.551
800.526 27.421 26.691 25.401 23.801 22.221 20.391 18.761 17.351 15.781 14.421
819.816 13.261 12.511 11.931 11.291 10.741 10.341 10.041 9.801 9.541 9.041
839.106 8.531 8.071 7.611 7.331 6.931 6.341 5.961 5.471 5.041 4.811
858.395 4.481 4.071 3.681 3.701 3.651 3.491 3.311 3.121 2.901 2.711
877.685 2.801 2.931 2.811 2.681 2.701 2.501 2.381 2.601 2.601 2.431
896.975 2.491 2.691 2.561 2.371 2.501 2.541 2.721 2.931 2.871 2.851
916.265 3.001 3.301 3.491 3.551 3.541 3.571 3.661 3.861 3.821 3.651
935.555 3.841 3.961 3.871 3.871 3.941 4.011 4.291 4.361 4.341 4.471
954.844 4.511 4.641 4.831 4.771 4.701 4.921 5.291 5.441 5.691 6.111
974.134 6.211 6.411 6.971 7.891 9.181 10.591 11.871 12.761 13.191 13.351
993.424 13.361 13.441 13.461 12.771 11.281 9.981 9.301 8.801 8.311 7.781
1012.714 7.371 7.111 6.861 6.651 6.381 6.141 5.791 5.641 5.711 5.301
1032.003 5.141 5.081 4.671 4.511 4.391 4.261 4.371 4.501 4.371 4.411
1051.293 4.721 4.631 4.531 4.751 4.651 4.921 5.741 6.291 6.741 6.891
1070.583 6.901 7.311 7.851 7.911 7.611 7.361 7.241 7.181 7.191 7.351
1089.873 7.871 8.531 9.221 10.011 11.011 12.231 13.351 14.661 16.451 18.121
1109.163 19.781 21.171 22.421 24.071 25.421 26.441 27.141 27.481 27.581 27.351
1128.452 27.111 26.711 25.921 25.001 24.261 23.321 22.271 21.901 21.681 21.481
1147.742 21.651 21.991 22.151 21.841 20.991 19.981 19.091 18.011 16.551 15.011
1167.032 13.701 12.471 11.321 10.401 9.701 9.171 8.781 8.311 8.021 7.921
1186.322 7.591 7.321 7.231 7.091 6.941 6.981 6.751 6.621 6.831 7.041
1205.611 7.361 7.831 8.521 9.411 10.221 10.531 10.641 10.621 10.351 10.051
1224.901 9.811 9.101 7.891 6.911 6.141 5.551 5.251 5.011 4.821 4.841
1244.191 4.721 4.601 4.711 4.661 4.591 4.481 4.471 4.581 4.551 4.591
1263.481 4.581 4.561 4.531 4.511 4.461 4.411 4.421 4.321 4.121 3.991
1282.771 3.921 3.891 3.851 3.821 3.761 3.791 3.781 3.711 3.841 3.941
1302.060 3.901 3.991 4.151 4.251 4.311 4.471 4.691 4.801 4.901 5.031
1321.350 5.111 5.251 5.441 5.621 5.851 6.101 6.411 6.731 7.071 7.481
1340.640 7.971 8.611 9.351 10.191 11.151 12.101 12.991 13.701 14.201 14.551
1359.930 14.641 14.551 14.291 13.741 13.001 12.121 11.151 10.301 9.561 8.881
1379.219 8.401 8.051 7.811 7.801 7.951 8.231 8.731 9.421 10.371 11.471
1398.509 12.731 14.151 15.591 17.051 18.421 19.541 20.401 20.881 21.051 21.151
1417.799 21.151 20.891 20.321 19.581 18.831 18.121 17.461 17.051 16.991 17.131
1437.089 17.471 18.121 19.011 20.101 21.251 22.101 22.671 23.081 23.381 23.431
1456.378 23.291 23.011 22.611 22.271 22.141 22.321 22.661 22.981 23.061 22.891
1475.668 22.591 22.121 21.391 20.341 19.031 17.721 16.431 15.131 13.861 12.711
1494.958 11.661 10.661 9.761 8.801 7.741 6.711 5.831 5.231 4.811 4.481
1514.248 4.281 4.191 4.121 4.141 4.241 4.381 4.591 4.891 5.181 5.511
1533.538 5.961 6.501 7.161 7.911 8.691 9.601 10.621 11.731 12.841 13.831
1552.827 14.821 15.871 16.781 17.571 18.231 18.791 19.261 19.551 19.731 19.831
1572.117 19.881 20.141 20.831 22.061 23.941 26.701 30.641 35.831 42.151 49.371
1591.407 56.811 63.681 68.981 71.951 72.521 70.781 66.801 60.971 53.571 44.691
1610.697 35.201 26.271 19.071 13.951 10.521 8.261 6.761 5.731 5.011 4.531
1629.986 4.161 3.861 3.571 3.461 3.431 3.361 3.331 3.261 3.191 3.121
1649.276 3.141 3.131 3.091 3.091 3.081 3.061 2.951 2.851 2.771 2.701
1668.566 2.561 2.441 2.381 2.231 2.131 2.021 1.921 1.911 1.871 1.791
1687.856 1.741 1.681 1.651 1.681 1.671 1.631 1.571 1.571 1.641 1.671
1707.146 1.641 1.621 1.661 1.631 1.621 1.641 1.661 1.671 1.641 1.631
1726.435 1.631 1.641 1.631 1.511 1.491 1.571 1.581 1.571 1.531 1.511
1745.725 1.481 1.501 1.551 1.481 1.411 1.431 1.421 1.361 1.351 1.351
1765.015 1.321 1.271 1.271 1.271 1.271 1.241 1.251 1.261 1.1734 1.1443
1784.305 1.2085 1.281 1.301 1.261 1.251 1.301 1.391 1.351 1.331 1.391
1803.594 1.381 1.381 1.381 1.401 1.441 1.441 1.461 1.511 1.571 1.601
1822.884 1.631 1.731 1.861 1.951 2.021 2.131 2.191 2.191 2.211 2.211
1842.174 2.151 2.051 1.911 1.731 1.591 1.481 1.371 1.341 1.341 1.311
1861.464 1.281 1.251 1.1877 1.1414 1.1399 1.1756 1.1834 1.1614 1.1719 1.192
1880.754 1.1399 1.1134 1.1586 1.2035 1.231 1.291 1.351 1.331 1.431 1.601
1900.043 1.721 1.831 1.941 2.091 2.281 2.411 2.551 2.771 2.941 3.111
1919.333 3.321 3.411 3.451 3.521 3.481 3.411 3.381 3.261 3.061 2.831
1938.623 2.661 2.481 2.281 2.191 2.121 1.931 1.741 1.591 1.561 1.511
1957.913 1.471 1.381 1.291 1.261 1.129 1.0382 1.073 1.0706 0.9753 0.9787
1977.202 1.0217 1.0289 0.9909 0.9831 0.9904 0.957 0.9104 0.9404 0.971 0.9285
1996.492 0.9179 0.9209 0.9357 0.9623 0.9415 0.8754 0.8625 0.9196 0.9618 0.9576
2015.782 0.9805 0.9533 0.8752 0.8904 0.8974 0.8326 0.8636 0.9397 0.9063 0.9255
2035.072 0.9433 0.9151 0.9298 0.9207 0.8901 0.8561 0.8359 0.8564 0.9393 0.9731
2054.362 0.9163 0.9181 0.9743 1.003 0.9378 0.9101 0.9868 1.0261 1.0145 1.0007
2073.651 1.0564 1.0684 0.9946 0.9733 0.9975 0.998 0.9994 1.0106 1.0244 0.9909
2092.941 0.9584 0.9941 1.0842 1.1022 1.005 0.9542 0.9667 1.0453 1.0285 0.9361
2112.231 0.9578 0.9826 1.0156 1.0082 0.9524 0.9472 0.9394 0.9445 0.9153 0.8523
2131.521 0.8394 0.8209 0.8935 0.9392 0.945 1.0046 0.9409 0.8768 0.9061 0.8861
2150.810 0.8951 0.9137 0.8254 0.7746 0.8375 0.9073 0.848 0.8134 0.8217 0.8383
2170.100 0.8677 0.8805 0.8383 0.7823 0.7964 0.8446 0.9029 0.8738 0.8191 0.7827
2189.390 0.833 0.9014 0.886 0.9272 0.927 0.8734 0.8852 0.8893 0.9094 0.895
2208.680 0.8501 0.822 0.8218 0.8789 0.8513 0.8574 0.881 0.8389 0.8485 0.863
2227.970 0.8705 0.8292 0.7857 0.7896 0.7813 0.7608 0.6769 0.6471 0.6342 0.645
2247.259 0.6855 0.6973 0.744 0.6782 0.6733 0.7458 0.7839 0.751 0.7017 0.6631
2266.549 0.6759 0.8098 0.8705 0.8209 0.817 0.859 0.8835 0.8849 0.9046 0.9988
2285.839 0.9827 0.8794 0.8753 0.9164 0.8976 0.8745 0.9237 1.0055 1.0626 1.0397
2305.129 0.9444 0.9334 0.9601 0.9198 0.9258 0.9742 0.9938 0.9332 0.8614 0.8335
2324.418 0.8464 0.8213 0.7991 0.8303 0.7493 0.6103 0.6628 0.8133 0.8027 0.7658
2343.708 0.8013 0.8051 0.7974 0.8254 0.8308 0.7799 0.7173 0.6785 0.7395 0.8526
2362.998 0.8663 0.8249 0.7567 0.7284 0.7315 0.6875 0.6708 0.7035 0.7899 0.8044
2382.288 0.7766 0.8146 0.8906 0.9015 0.8834 0.9204 0.9425 0.963 0.9985 1.0236
2401.578 0.9452 0.9362 0.9797 0.9998 1.0329 1.1071 1.1352 1.18 1.261 1.271
2420.867 1.241 1.2025 1.271 1.341 1.251 1.209 1.2155 1.281 1.321 1.261
2440.157 1.271 1.271 1.241 1.2043 1.216 1.231 1.231 1.251 1.271 1.241
2459.447 1.1841 1.261 1.281 1.1994 1.1744 1.0815 1.0768 1.1588 1.231 1.1951
2478.737 1.0476 1.0344 1.0131 0.9424 0.9645 1.0017 0.9732 0.9514 0.9402 0.9449
2498.026 0.9767 1.0183 1.0399 1.0151 0.9647 0.9063 0.8827 0.9498 0.9734 0.9567
2517.316 0.9492 0.9284 1.0147 1.0496 1.0495 1.0566 1.0547 1.0966 1.1322 1.114
2536.606 1.1347 1.1662 1.1523 1.221 1.311 1.351 1.331 1.381 1.381 1.281
2555.896 1.321 1.311 1.301 1.321 1.271 1.331 1.441 1.441 1.411 1.411
2575.186 1.421 1.431 1.461 1.491 1.511 1.511 1.521 1.551 1.581 1.591
2594.475 1.631 1.681 1.681 1.721 1.711 1.701 1.701 1.771 1.811 1.731
2613.765 1.751 1.831 1.881 2.001 2.081 2.071 2.061 2.071 2.061 2.121
2633.055 2.171 2.131 2.181 2.221 2.251 2.301 2.351 2.411 2.421 2.481
2652.345 2.591 2.671 2.691 2.701 2.761 2.751 2.801 2.991 3.041 3.051
2671.634 3.181 3.271 3.391 3.591 3.651 3.711 3.811 4.001 4.251 4.351
2690.924 4.451 4.511 4.581 4.841 5.041 5.081 5.131 5.141 5.141 5.291
2710.214 5.341 5.361 5.401 5.321 5.331 5.401 5.321 5.331 5.451 5.481
2729.504 5.591 5.721 5.841 5.941 5.911 6.021 6.271 6.521 6.781 7.021
2748.794 7.281 7.571 7.931 8.391 8.981 9.581 10.111 10.631 11.321 12.241
2768.083 13.231 14.091 15.241 16.591 17.801 19.251 20.921 22.601 24.461 26.651
2787.373 29.001 31.681 34.521 37.351 40.291 43.001 45.211 46.971 48.271 49.021
2806.663 49.261 48.851 47.851 46.541 45.171 43.821 42.551 41.411 40.391 39.511
2825.953 38.611 37.771 36.931 36.101 35.561 35.081 34.671 34.431 34.221 34.251
2845.242 34.621 35.011 35.361 35.971 36.701 37.281 37.651 37.811 37.871 37.731
2864.532 37.351 36.721 35.961 35.431 34.911 34.371 33.941 33.491 33.261 33.391
2883.822 33.521 33.761 34.411 35.091 35.831 36.611 37.371 38.141 38.901 39.581
2903.112 40.141 40.611 41.041 41.431 41.791 42.261 42.831 43.511 44.371 45.361
2922.401 46.581 47.881 49.201 50.481 51.861 53.371 54.691 56.011 57.271 58.481
2941.691 59.521 60.221 60.581 60.681 60.511 59.941 58.771 56.971 54.891 52.621
2960.981 50.341 48.051 45.981 44.331 43.001 42.141 41.511 40.901 40.301 39.401
2980.271 38.101 36.801 35.271 33.301 31.061 28.661 26.451 24.571 22.921 21.541
2999.561 20.391 19.551 18.831 18.281 18.081 18.201 18.681 19.481 20.561 21.971
3018.850 23.491 24.901 26.111 26.881 27.351 27.561 27.411 26.801 25.881 24.671
3038.140 23.641 22.961 22.451 22.471 22.651 22.781 23.361 24.191 25.061 26.311
3057.430 27.601 28.881 30.111 31.001 31.591 31.751 31.531 30.941 30.061 28.861
3076.720 27.211 25.181 22.901 20.441 18.131 16.051 13.981 12.141 10.611 9.201
3096.009 8.101 7.231 6.631 6.091 5.401 4.921 4.461 3.961 3.531 3.161
3115.299 2.911 2.621 2.341 2.151 2.021 2.061 2.011 1.881 1.811 1.771
3134.589 1.631 1.511 1.531 1.521 1.351 1.271 1.261 1.1132 1.1375 1.221
3153.879 1.1677 1.1182 1.1926 1.231 1.2151 1.1888 1.1144 1.0696 1.1073 1.1025
3173.169 0.9915 1.0238 1.1168 1.0697 0.9741 0.8577 0.873 1.056 1.0682 0.9163
3192.458 0.8547 0.8344 0.8166 0.7986 0.8043 0.7642 0.7058 0.717 0.6307 0.681
3211.748 0.707 0.6153 0.8432 0.8855 0.6672 0.6266 0.7372 0.8275 0.6248 0.4715
3231.038 0.605 0.5036 0.30932 0.3794 0.5033 0.5913 0.7073 0.7879 0.6891 0.6414
3250.328 0.4879 0.3353 0.4157 0.3826 0.27822 0.31261 0.5286 0.6108 0.5592 0.5694
3269.617 0.4827 0.459 0.6793 0.6129 0.5128 0.6533 0.6128 0.58 0.6751 0.5473
3288.907 0.3862 0.4449 0.4799 0.4361 0.4762 0.4467 0.3833 0.5727 0.5895 0.3998
3308.197 0.3919 0.4319 0.3808 0.5115 0.5506 0.3464 0.375 0.4901 0.3668 0.30227
3327.487 0.394 0.3471 0.3477 0.446 0.4554 0.4115 0.3728 0.2906 0.29406 0.4281
3346.777 0.5492 0.5765 0.5976 0.6694 0.7367 0.7516 0.7805 0.7007 0.6901 0.839
3366.066 0.794 0.8201 0.7348 0.4534 0.4572 0.5733 0.5277 0.6142 0.6748 0.6654
3385.356 0.7134 0.6455 0.7465 0.7197 0.4894 0.44 0.4591 0.6499 0.7257 0.6071
3404.646 0.5544 0.4986 0.5136 0.6291 0.56 0.595 0.761 0.725 0.644 0.5065
3423.936 0.4734 0.4346 0.4332 0.5094 0.31243 0.31602 0.4598 0.4299 0.3731 0.31465
3443.225 0.3339 0.4281 0.4108 0.21418 0.2088 0.3855 0.4286 0.4389 0.4552 0.31947
3462.515 0.1368 0.112 0.1617 0.047 0.1947 0.27033 0.106 0.1279 0.1298 0.1741
3481.805 0.3562 0.4158 0.3587 0.4105 0.3878 0.30782 0.223943 0.28083 0.4371 0.3467
3501.095 0.223346 0.117 0 0.045 0.21263 0.3566 0.4334 0.25148 0.057 0.1344
3520.385 0.220226 0.31084 0.3431 0.24886 0.3878 0.4795 0.4474 0.4503 0.24469 0.223582
3539.674 0.4711 0.4061 0.1266 0.147 0.3864 0.4502 0.24061 0.099 0.1938 0.3353
3558.964 0.25137 0.25409 0.405 0.3261 0.113 0.1606 0.3256 0.30219 0.25658 0.1886
3578.254 0.223277 0.4154 0.3766 0.32014 0.31563 0.1408 0.05 0.103 0.111 0.035
3597.544 0.1789 0.3845 0.29628 0.21287 0.3415 0.3843 0.27466 0.325 0.3455 0.1802
3616.833 0.3516 0.5189 0.4895 0.3943 0.24203 0.29295 0.2038 0.095 0.1688 0.1963
3636.123 0.2086 0.225625 0.1906 0.18 0.3439 0.3689 0.24279 0.226055 0.26947 0.24777
3655.413 0.25523 0.1806 0.2023 0.4559 0.5572 0.4716 0.3665 0.3249 0.3242 0.4885
3674.703 0.3858 0.194 0.4299 0.6862 0.5745 0.4636 0.5568 0.4987 0.3625 0.3348
3693.993 0.3491 0.4122 0.5187 0.6582 0.6915 0.5551 0.4236 0.31393 0.26215 0.26606
3713.282 0.123 0.1626 0.3253 0.4112 0.3465 0.1503 0.1222 0.1751 0.278 0.30742
3732.572 0.2626 0.31204 0.3795 0.4073 0.29635 0.3488 0.6162 0.5944 0.471 0.3673
3751.862 0.25708 0.30873 0.4063 0.4606 0.4401 0.4165 0.3585 0.3224 0.29181 0.2071
3771.152 0.24489 0.3537 0.3542 0.3845 0.4182 0.23694 0.21749 0.26498 0.23872 0.30201
3790.441 0.32034 0.222534 0.26845 0.5386 0.4191 0.2062 0.225464 0.1727 0.30238 0.4106
3809.731 0.081 0.014 0.3884 0.7006 0.6171 0.3996 0.3724 0.28546 0.3312 0.3667
3829.021 0.4224 0.3769 0.353 0.3614 0.21331 0.1919 0.23132 0.3573 0.23287 0.116
3848.311 0.3895 0.5224 0.4185 0.3569 0.3866 0.4037 0.31899 0.3678 0.6436 0.6679
3867.601 0.4952 0.4299 0.394 0.24299 0.2011 0.28841 0.4584 0.4864 0.4575 0.5123
3886.890 0.3462 0.25096 0.3381 0.3595 0.30251 0.2769 0.4118 0.5138 0.5161 0.44
3906.180 0.3993 0.3587 0.26322 0.3529 0.31889 0.3783 0.5952 0.6262 0.4454 0.4021
3925.470 0.5575 0.5059 0.4083 0.3976 0.3603 0.1835 0.30458 0.4778 0.3804 0.4106
3944.760 0.5482 0.5702 0.5904 0.6072 0.4961 0.5997 0.6179 0.5334 0.5175 0.4301
3964.049 0.4286 0.5426 0.5031 0.4126 0.5745 0.5511 0.4465 0.4318 0.409 0.4602
3983.339 0.4906 0.5743 0.4981 0.3903 0.3785 0.4401 0.4214 0.4153 0.4778 0.3367
##END=
