##TITLE=Nifuroxime
##JCAMP-DX=4.24
##DATA TYPE=INFRARED SPECTRUM
##ORIGIN=NIST Mass Spectrometry Data Center
##OWNER=NIST Standard Reference Data Program
Collection (C) 2018 copyright by the U.S. Secretary of Commerce
on behalf of the United States of America. All rights reserved.
##CAS REGISTRY NO=555-15-7
##MOLFORM=C 5 H 4 N 2 O 4
##$NIST SOURCE=MSDC-IR
##SPECTROMETER/DATA SYSTEM=HP-GC/MS/IRD
##STATE=gas
##XUNITS=1/CM
##YUNITS=ABSORBANCE
##XFACTOR=1.0
##YFACTOR=0.000008300
##DELTAX=4.0
##FIRSTX=550.0
##LASTX=3846.0
##FIRSTY=0.001287
##MAXX=3846
##MINX=550
##MAXY=0.083
##MINY=0
##NPOINTS=825
##XYDATA=(X++(Y..Y))
550.0 155 203 134 164 167 172 162 132 113 98
590.0 85 82 87 86 80 69 50 30 10 2
630.0 2 0 6 11 18 24 30 45 66 97
670.0 107 98 102 106 110 112 111 119 143 175
710.0 230 313 433 588 762 926 1157 1246 1093 997
750.0 898 778 717 716 764 862 1012 1218 1489 1812
790.0 2196 2713 3359 4286 5580 6349 6321 5724 4518 3243
830.0 2256 1644 1229 856 599 460 410 421 475 567
870.0 683 821 950 1077 1246 1438 1661 1893 2030 1963
910.0 1758 1466 1159 995 937 890 869 918 1086 1437
950.0 1973 2563 3144 3763 4439 5045 5218 4697 3441 1948
990.0 1064 840 872 1024 1292 1586 1732 1752 1670 1416
1030.0 1046 717 488 332 232 170 125 95 83 78
1070.0 62 50 40 28 21 16 5 0 6 8
1110.0 9 12 13 16 22 27 27 33 52 74
1150.0 113 165 220 262 291 324 367 415 429 414
1190.0 360 282 233 210 200 213 248 321 460 700
1230.0 1095 1726 2697 3916 4951 5482 5272 4215 2994 2040
1270.0 1371 1070 1022 1116 1309 1607 1966 2225 2319 2317
1310.0 2206 2102 2206 2533 3066 3824 4803 5969 7346 8903
1350.0 10000 9861 8685 6776 4681 3391 2860 2509 2181 2021
1390.0 1976 1929 1857 1726 1529 1275 1003 766 574 445
1430.0 373 346 340 342 354 368 401 453 525 652
1470.0 822 1040 1306 1621 2015 2463 2933 3377 3632 3571
1510.0 3220 2709 2270 2133 2341 2855 3679 4809 6172 7376
1550.0 7927 7806 7247 6085 4752 3721 3076 2654 2346 2069
1590.0 1811 1532 1268 1060 906 787 694 611 540 487
1630.0 444 397 342 286 229 187 158 131 113 101
1670.0 95 93 92 97 101 97 99 99 94 91
1710.0 98 112 135 158 184 206 220 228 228 231
1750.0 234 232 222 204 180 153 126 104 87 76
1790.0 69 66 67 66 63 62 60 57 58 59
1830.0 59 58 56 55 52 45 35 23 19 20
1870.0 21 21 20 22 25 29 35 44 52 62
1910.0 72 78 78 75 65 54 46 38 32 27
1950.0 24 21 15 7 3 3 4 7 10 14
1990.0 13 10 9 4 0 2 1 3 5 7
2030.0 8 12 12 9 7 7 6 7 7 6
2070.0 5 4 4 3 0 0 1 0 2 2
2110.0 4 5 7 13 16 19 23 26 26 29
2150.0 29 30 29 25 25 25 24 26 32 36
2190.0 36 34 31 26 20 14 11 9 8 8
2230.0 5 4 3 0 0 0 3 3 7 9
2270.0 12 12 8 7 9 10 14 20 27 33
2310.0 42 54 63 70 76 78 77 73 69 68
2350.0 73 84 91 94 94 86 71 56 43 34
2390.0 24 17 17 15 13 15 15 17 19 21
2430.0 22 26 29 30 29 32 35 36 36 37
2470.0 39 40 39 39 44 46 48 52 54 59
2510.0 63 63 65 70 69 63 57 56 55 52
2550.0 54 52 51 52 48 45 45 44 45 43
2590.0 43 46 47 44 47 52 57 67 83 95
2630.0 98 97 96 99 105 114 122 132 138 145
2670.0 142 139 134 125 115 106 99 91 83 79
2710.0 80 79 77 81 88 98 107 114 124 124
2750.0 117 110 104 93 78 66 60 57 59 63
2790.0 65 66 67 68 66 65 68 73 76 84
2830.0 92 102 114 121 131 136 134 140 144 147
2870.0 155 167 184 192 197 200 199 192 177 164
2910.0 141 116 100 92 84 77 72 69 67 66
2950.0 70 74 78 84 88 94 101 100 94 86
2990.0 74 65 59 53 49 49 48 46 43 42
3030.0 38 33 30 27 29 33 39 50 60 68
3070.0 67 59 52 46 36 29 34 34 32 30
3110.0 32 36 34 35 41 54 72 92 116 142
3150.0 157 169 175 156 134 117 98 78 62 49
3190.0 32 24 24 22 22 27 31 42 53 56
3230.0 57 53 51 49 42 33 27 22 18 17
3270.0 19 16 6 5 9 7 5 5 3 6
3310.0 7 6 10 6 4 1 0 1 0 3
3350.0 8 9 4 2 3 8 11 7 7 11
3390.0 8 6 9 10 10 7 12 13 9 13
3430.0 13 16 16 9 4 6 6 7 8 9
3470.0 9 11 16 17 17 20 20 22 24 24
3510.0 26 33 34 33 37 36 38 40 42 52
3550.0 58 64 74 86 95 102 112 124 142 162
3590.0 189 227 280 357 492 715 1054 1566 2416 3547
3630.0 5215 6858 6835 5948 4308 1922 709 374 228 165
3670.0 131 113 107 110 112 114 109 98 88 79
3710.0 74 65 49 44 48 42 41 37 34 37
3750.0 33 26 20 17 15 17 15 11 13 10
3790.0 8 10 15 16 15 15 16 19 15 13
3830.0 16 12 11 15 16
##END=
