##TITLE=.alpha.-Propylphenylacetonitrile
##JCAMP-DX=4.24
##DATA TYPE=INFRARED SPECTRUM
##ORIGIN=EPA-IR VAPOR PHASE LIBRARY
##OWNER=SRD/NIST
Collection (C) 2018 copyright by the U.S. Secretary of Commerce
on behalf of the United States of America. All rights reserved.
##CAS REGISTRY NO=5558-78-1
##MOLFORM=C 11 H 13 N
##$NIST SOURCE=MSDC-IR
##STATE=gas
##XUNITS=1/CM
##YUNITS=ABSORBANCE
##XFACTOR=1.
##YFACTOR=0.001
##DELTAX=1.92898
##FIRSTX=549.8
##LASTX=4000.7
##FIRSTY=3.8996
##MAXX=4000.7
##MINX=549.759
##MAXY=0.0841396
##MINY=0
##NPOINTS=1790
##XYDATA=(X++(Y..Y))
549.759 3.8996 3.8896 3.6796 3.9096 4.1996 4.3296 4.3396 4.2396 4.3696 4.4796
569.049 4.5496 4.7696 4.8996 4.5196 4.1596 3.9396 3.2196 2.7796 2.7496 2.4496
588.339 2.1096 1.8296 1.4696 1.3996 1.4296 1.3596 1.3496 1.4396 1.7196 1.8496
607.628 1.9296 2.1896 2.0296 1.7696 1.9196 1.9096 1.9096 2.0796 1.9796 1.8796
626.918 2.0896 2.5396 3.0696 3.5196 3.6796 3.8396 3.8996 3.8296 3.8496 3.4696
646.208 3.2096 3.2496 3.3996 3.6196 3.9996 4.4896 4.9896 5.6096 6.1296 6.6696
665.498 7.4396 8.2496 9.0396 9.8896 10.9296 12.1696 13.4396 15.2396 17.9696 21.5296
684.787 25.8496 31.1496 37.2596 43.1896 48.2296 52.1496 54.1996 53.8096 51.7896 48.2396
704.077 43.4196 37.9996 32.5096 27.8996 24.2196 21.4796 19.6096 18.4396 17.8696 17.5096
723.367 17.4196 17.6596 18.2396 18.9796 19.7996 20.9096 22.2596 23.8696 25.4696 26.9796
742.657 28.4796 29.8796 31.0096 31.6496 31.6396 30.7696 28.9996 26.9696 24.7396 22.1596
761.947 19.4796 16.7296 14.4096 12.4696 10.8496 9.5096 8.4496 7.7196 7.0196 6.5096
781.236 6.0896 5.3996 4.7996 4.4296 4.0896 3.8196 3.4896 3.0296 2.8396 2.7696
800.526 2.5696 2.5996 2.5496 2.4296 2.5396 2.4596 2.3596 2.4196 2.4096 2.3396
819.816 2.3196 2.3496 2.3596 2.3096 2.1296 2.0796 2.1096 2.0896 1.9196 1.8596
839.106 1.8896 1.7596 1.7796 1.8596 1.8296 1.9196 2.0096 1.8896 1.8596 1.6696
858.395 1.7096 1.8996 1.7496 1.5896 1.5296 1.5396 1.5896 1.5996 1.4696 1.6296
877.685 1.9296 1.9696 1.7696 1.7796 1.9396 2.0096 2.3996 2.5296 2.5796 2.7596
896.975 2.6696 2.6496 2.7596 2.8996 2.8996 2.8596 2.8796 2.9296 2.8996 2.7296
916.265 2.6096 2.5596 2.3796 2.1996 2.1296 2.0596 2.0796 2.1496 2.0996 2.1596
935.555 2.1996 2.1696 2.2096 2.2296 2.1296 2.0596 1.8996 1.7596 1.8796 1.7196
954.844 1.5496 1.5196 1.3096 1.1696 1.1896 1.1896 1.2296 1.3596 1.4096 1.3696
974.134 1.3596 1.3596 1.3896 1.5196 1.4896 1.4196 1.5896 1.7596 1.8596 1.9296
993.424 1.8496 1.9996 2.2996 2.3696 2.5496 2.5396 2.3996 2.5396 2.7896 2.5396
1012.714 2.3396 2.6396 2.7596 3.2396 4.1096 5.2096 6.4196 6.9796 7.3196 7.7996
1032.003 7.4796 6.7696 6.3096 5.3596 4.0496 3.0996 2.4596 2.2096 2.2696 2.2896
1051.293 2.4296 2.5196 2.6096 2.9996 3.2596 3.4396 3.7696 4.3196 4.7796 4.9296
1070.583 4.9696 5.1396 5.2196 4.8296 4.7296 4.5996 4.1896 4.0396 3.9396 3.9596
1089.873 3.6896 3.6196 3.8796 4.0696 4.3596 4.6996 4.9096 5.0696 5.2496 5.1796
1109.163 4.9896 4.8196 4.5596 4.3296 4.2096 3.7896 3.3796 3.0196 2.6396 2.0696
1128.452 1.7496 1.6696 1.3596 1.1696 1.1696 1.0996 1.0216 1.0163 0.7158 0.6095
1147.742 0.6575 0.6744 0.8431 0.7719 0.6751 0.7876 0.6031 0.4448 0.6262 0.6896
1167.032 0.7509 0.8242 1.0596 1.2796 1.2996 1.3496 1.3496 1.2596 1.4496 1.7196
1186.322 1.8296 1.9596 1.7896 1.5596 1.5496 1.5896 1.4596 1.2296 1.3896 1.5796
1205.611 1.3696 1.3396 1.3796 1.5896 1.8596 1.7696 1.6296 1.7596 1.8596 1.6996
1224.901 1.6196 1.8296 1.8896 1.6996 1.7796 1.8196 2.0596 2.1196 1.9396 2.0596
1244.191 2.1496 1.9996 1.8196 1.8796 1.9396 1.8596 1.8096 1.9196 2.0296 2.0296
1263.481 2.0296 2.1496 2.3496 2.4696 2.5996 2.8596 3.1196 3.1296 3.0596 3.2196
1282.771 3.3996 3.5496 3.6396 3.7396 3.9196 3.9796 4.0396 4.2596 4.5096 4.6396
1302.060 4.6496 4.7296 4.8696 4.8996 4.9496 5.0996 5.1996 5.2596 5.3396 5.3896
1321.350 5.4396 5.5096 5.5796 5.6596 5.7496 5.8296 5.9896 6.2496 6.4596 6.6096
1340.640 6.7296 6.8196 6.8596 6.7896 6.6396 6.4096 6.0796 5.7996 5.5796 5.3596
1359.930 5.1696 5.0296 4.8796 4.7696 4.7796 4.7796 4.7896 4.9096 5.1596 5.4796
1379.219 5.8496 6.2896 6.6096 6.8796 7.0096 6.9196 6.7296 6.3796 5.9196 5.3596
1398.509 4.7796 4.2896 3.8996 3.5896 3.3896 3.2696 3.1896 3.1496 3.2096 3.3196
1417.799 3.3996 3.5096 3.6696 3.8696 4.1296 4.4896 4.8496 5.3096 5.9996 6.8296
1437.089 7.9496 9.4096 11.1696 13.1796 15.2696 17.3396 19.2696 20.9996 22.4896 23.4996
1456.378 23.7196 23.2696 22.5896 21.8296 20.8896 19.7596 18.5896 17.4796 16.4096 15.4596
1475.668 14.6296 14.0196 13.6596 13.5996 13.8896 14.6696 16.0596 17.7896 19.5896 21.1896
1494.958 22.0996 22.2196 21.7596 20.4796 18.5996 16.3296 13.4396 10.3896 7.7896 5.8996
1514.248 4.6896 3.9196 3.4696 3.1596 2.9696 2.8396 2.7696 2.7896 2.7796 2.6996
1533.538 2.7096 2.6596 2.4896 2.3696 2.2296 2.1096 1.9596 1.8896 1.8596 1.8396
1552.827 1.8196 1.7796 1.7796 1.7996 1.8696 1.8496 1.8196 1.9796 2.1896 2.3196
1572.117 2.4696 2.6796 2.9696 3.2996 3.7296 4.2596 4.8496 5.5296 6.3196 7.1696
1591.407 8.0296 8.8696 9.5396 9.9396 10.1096 10.0596 9.6196 8.9196 8.0896 7.0896
1610.697 6.0096 4.9696 4.1696 3.5296 2.9696 2.5196 2.2096 2.0096 1.8296 1.6696
1629.986 1.5596 1.4796 1.4396 1.4696 1.4196 1.3596 1.3396 1.3396 1.3496 1.4196
1649.276 1.4496 1.4196 1.4996 1.5396 1.4996 1.5296 1.5296 1.5196 1.4996 1.4496
1668.566 1.3696 1.2596 1.2096 1.1696 1.1096 1.0237 1.0034 0.9297 0.8592 0.8326
1687.856 0.7709 0.8144 0.8502 0.8088 0.7584 0.8042 0.8594 0.828 0.8308 0.8502
1707.146 0.8179 0.8296 0.8785 0.9445 1.0029 0.984 1.0461 1.1196 1.0796 1.1396
1726.435 1.2396 1.2996 1.3796 1.4196 1.4596 1.4996 1.5396 1.6696 1.6996 1.6596
1745.725 1.6296 1.6496 1.6096 1.5196 1.4196 1.2896 1.1996 1.0996 1.022 0.9493
1765.015 0.9172 0.9616 0.9887 1.0361 1.1296 1.2596 1.3996 1.4996 1.6196 1.7796
1784.305 2.0896 2.4496 2.7796 3.1396 3.4596 3.6496 3.7196 3.6796 3.4596 3.1596
1803.594 2.8596 2.4796 2.1296 1.8596 1.6796 1.5296 1.3996 1.3196 1.2296 1.1096
1822.884 1.0402 0.9956 0.9517 0.8976 0.8531 0.8318 0.7791 0.7873 0.8354 0.8266
1842.174 0.864 0.9362 1.0231 1.1196 1.1196 1.2296 1.3496 1.4396 1.5996 1.7096
1861.464 1.8196 1.9796 2.0896 2.1496 2.2596 2.3796 2.4296 2.4096 2.3996 2.3996
1880.754 2.3496 2.3396 2.3296 2.1996 2.1096 2.0296 1.8796 1.7096 1.5296 1.3296
1900.043 1.1996 1.1296 1.0396 0.9181 0.8512 0.7849 0.7823 0.7937 0.7632 0.8163
1919.333 0.8895 0.9461 1.0896 1.3096 1.4496 1.5896 1.7996 2.0796 2.2896 2.4796
1938.623 2.7496 2.8796 2.9396 2.9996 3.0596 3.0596 3.0096 3.0096 2.9496 2.8796
1957.913 2.8196 2.6996 2.5096 2.2596 1.9996 1.7196 1.4696 1.1996 0.9377 0.7675
1977.202 0.6403 0.5854 0.5293 0.4726 0.4635 0.4616 0.4791 0.4551 0.4354 0.4243
1996.492 0.3898 0.3892 0.3842 0.3383 0.3359 0.338 0.3411 0.3701 0.358 0.3648
2015.782 0.3798 0.3357 0.3222 0.3213 0.3635 0.425 0.3884 0.3378 0.3263 0.3581
2035.072 0.3731 0.4107 0.43 0.4315 0.475 0.481 0.4129 0.3793 0.3957 0.4031
2054.362 0.4147 0.4105 0.3856 0.3402 0.3844 0.3939 0.3341 0.3302 0.3144 0.3092
2073.651 0.3256 0.3109 0.2827 0.3004 0.3168 0.3249 0.3443 0.312 0.2878 0.2891
2092.941 0.3086 0.3071 0.272 0.2404 0.2398 0.2956 0.3328 0.2898 0.2499 0.2862
2112.231 0.2754 0.2714 0.2588 0.265 0.3176 0.2974 0.2631 0.3024 0.3246 0.3226
2131.521 0.2835 0.2091 0.1667 0.14844 0.1877 0.2147 0.2378 0.2464 0.2079 0.1962
2150.810 0.2041 0.2149 0.2649 0.277 0.2619 0.2648 0.2487 0.3023 0.3329 0.3311
2170.100 0.3059 0.2728 0.3296 0.3674 0.3958 0.4003 0.3467 0.3683 0.4357 0.4543
2189.390 0.4649 0.4904 0.456 0.4105 0.4151 0.4324 0.4602 0.4534 0.4405 0.4524
2208.680 0.4788 0.4824 0.4693 0.4705 0.5266 0.6174 0.6861 0.7485 0.8552 0.9822
2227.970 1.1696 1.4696 1.7796 2.0896 2.3296 2.5096 2.6496 2.7696 2.8396 2.7996
2247.259 2.6696 2.4496 2.1396 1.8396 1.5796 1.3296 1.1596 0.9947 0.8844 0.8259
2266.549 0.7867 0.765 0.6974 0.643 0.6789 0.7081 0.7247 0.7157 0.6946 0.6751
2285.839 0.6171 0.602 0.6057 0.6783 0.6919 0.6278 0.6059 0.6189 0.627 0.5628
2305.129 0.5764 0.6626 0.7651 0.8415 0.8572 0.8693 0.8337 0.8183 0.8185 0.8197
2324.418 0.7893 0.7615 0.8057 0.7615 0.6531 0.6844 0.8124 0.8525 0.8208 0.8322
2343.708 0.8809 0.8984 0.8815 0.8719 0.8676 0.8663 0.8863 0.8411 0.7916 0.785
2362.998 0.8064 0.8532 0.8224 0.7614 0.7969 0.8603 0.8161 0.7736 0.8071 0.8253
2382.288 0.8136 0.7921 0.8381 0.8219 0.8056 0.8036 0.7095 0.7849 0.8389 0.7816
2401.578 0.7847 0.8089 0.8689 0.8694 0.8172 0.8356 0.7301 0.6493 0.7546 0.7638
2420.867 0.708 0.7249 0.7653 0.7673 0.745 0.7055 0.7082 0.7262 0.6996 0.6182
2440.157 0.6237 0.6594 0.6009 0.5964 0.6285 0.6056 0.5786 0.5648 0.5031 0.5205
2459.447 0.5655 0.5521 0.5276 0.5167 0.5312 0.4831 0.4266 0.5017 0.5235 0.4442
2478.737 0.4161 0.4315 0.4796 0.4648 0.465 0.4964 0.4877 0.5633 0.5928 0.5323
2498.026 0.5394 0.5412 0.5391 0.5241 0.4906 0.5084 0.5095 0.5101 0.5087 0.5015
2517.316 0.5282 0.5632 0.5471 0.4965 0.5358 0.5712 0.5806 0.6488 0.7058 0.7205
2536.606 0.6681 0.6112 0.6504 0.7319 0.746 0.7848 0.8271 0.7742 0.7736 0.8247
2555.896 0.8163 0.8005 0.8322 0.828 0.815 0.8024 0.7997 0.8347 0.7625 0.7453
2575.186 0.7739 0.7701 0.8119 0.7981 0.7858 0.7905 0.7944 0.8119 0.8029 0.7633
2594.475 0.8125 0.8111 0.8044 0.8899 0.8157 0.7684 0.8182 0.8115 0.7999 0.7577
2613.765 0.7114 0.6958 0.711 0.7306 0.7356 0.7576 0.7614 0.7653 0.7447 0.7837
2633.055 0.8751 0.8607 0.7798 0.7686 0.8426 0.8829 0.8523 0.8427 0.8433 0.8332
2652.345 0.8998 0.8993 0.9048 0.8961 0.8848 0.9552 0.9471 0.9812 0.9952 0.9399
2671.634 0.9228 0.9632 0.989 0.9988 0.9729 0.9263 0.9006 0.8496 0.8249 0.8295
2690.924 0.7958 0.7354 0.758 0.7873 0.7698 0.758 0.7333 0.6925 0.6948 0.7316
2710.214 0.7256 0.7056 0.731 0.7543 0.8437 0.8748 0.8657 0.9465 0.9704 0.9465
2729.504 0.9319 0.9584 1.0796 1.1996 1.2896 1.3796 1.4896 1.5696 1.6096 1.7696
2748.794 1.8996 1.9696 1.9596 1.8596 1.7796 1.8296 1.8396 1.8596 1.8296 1.7996
2768.083 1.8096 1.7296 1.7596 1.8396 1.8296 1.8896 1.9696 1.9596 1.9696 2.0596
2787.373 2.1696 2.2696 2.2796 2.2196 2.2796 2.3396 2.4396 2.4996 2.4496 2.4996
2806.663 2.5496 2.6196 2.6996 2.7496 2.8596 2.9096 2.9396 3.0296 3.1296 3.2896
2825.953 3.4896 3.6196 3.7096 3.9096 4.0996 4.2196 4.4096 4.7096 4.9496 5.1796
2845.242 5.4396 5.7196 6.1696 6.7496 7.4896 8.3996 9.4096 10.6296 12.1296 13.8996
2864.532 15.8896 17.9696 20.1796 22.4196 24.7996 27.2696 29.6696 31.8896 33.6396 34.7596
2883.822 35.1796 35.0496 34.3196 33.0396 31.3896 29.3696 27.2796 25.4396 23.9696 23.0396
2903.112 22.5396 22.3796 22.3996 22.5996 23.0796 23.6996 24.4096 25.3696 26.5996 28.1596
2922.401 30.1096 32.3296 34.9396 37.9496 41.2896 44.9396 48.9296 53.3496 57.8996 62.3596
2941.691 66.4596 69.6496 71.7496 72.8696 72.9396 72.1696 70.8796 69.4896 68.6096 68.7196
2960.981 70.0896 72.4496 75.4896 79.2296 82.6996 84.1396 82.9796 79.5796 74.2296 66.8696
2980.271 58.6096 50.0896 41.4296 33.7296 27.6496 23.0596 19.6796 17.2296 15.2896 13.8696
2999.561 13.0196 12.2496 11.7296 11.5396 11.4596 11.5296 11.7696 12.1096 12.5096 13.1796
3018.850 14.1496 15.4196 17.0896 19.1396 21.3196 23.6096 25.8396 27.7996 29.2696 29.9896
3038.140 29.7596 28.8496 27.5696 25.6396 23.4896 21.4396 19.5396 18.1496 17.3996 17.2696
3057.430 17.6296 18.6596 20.3896 22.6996 25.3396 28.1496 30.6496 32.3496 33.2496 33.3296
3076.720 32.4996 30.9996 28.9396 26.3196 23.5796 21.1096 19.3096 18.1796 17.2596 16.4796
3096.009 15.5396 14.5396 13.4996 12.4496 11.5696 10.6196 9.7396 8.9596 8.2296 7.5696
3115.299 6.9096 6.2396 5.5696 5.0096 4.5396 3.9896 3.5096 3.1896 2.8196 2.5596
3134.589 2.3296 2.1696 2.1396 2.0396 1.9496 1.8696 1.8196 1.7496 1.6796 1.6296
3153.879 1.6396 1.7196 1.7496 1.6396 1.6596 1.7396 1.6696 1.6596 1.6596 1.7596
3173.169 1.7196 1.5696 1.5796 1.4696 1.4296 1.5096 1.4496 1.2996 1.2696 1.2996
3192.458 1.2696 1.2296 1.2096 1.1496 1.1296 1.0696 0.9435 0.9828 0.9488 0.7528
3211.748 0.7207 0.808 0.8303 0.8033 0.8473 0.853 0.6987 0.7491 0.8415 0.7353
3231.038 0.7694 0.751 0.6888 0.7006 0.6862 0.7623 0.7405 0.6662 0.6705 0.5537
3250.328 0.5368 0.5036 0.4465 0.5916 0.5985 0.4601 0.4969 0.461 0.3546 0.4382
3269.617 0.4663 0.5018 0.4378 0.3808 0.39 0.2721 0.1941 0.261 0.2725 0.2539
3288.907 0.3187 0.3002 0.3486 0.3255 0.1974 0.1842 0.3112 0.3202 0.2898 0.1893
3308.197 0.10165 0.1687 0.2351 0.2712 0.2232 0.1746 0.1714 0.2536 0.2762 0.2902
3327.487 0.2027 0.13538 0.2094 0.2326 0.2409 0.3017 0.3108 0.2496 0.2878 0.265
3346.777 0.2264 0.2822 0.2801 0.3149 0.3313 0.3397 0.2701 0.1777 0.1949 0.3034
3366.066 0.2894 0.2072 0.2288 0.1889 0.2365 0.2901 0.2666 0.2776 0.2849 0.2444
3385.356 0.2107 0.1705 0.10043 0.14263 0.2005 0.2364 0.1609 0.059038 0.08598 0.07388
3404.646 0.159 0.2253 0.1932 0.196 0.1941 0.2287 0.2116 0.1719 0.1888 0.2147
3423.936 0.2546 0.1635 0.04715 0.14076 0.1691 0.1981 0.2784 0.2195 0.2247 0.2375
3443.225 0.2238 0.167 0.09117 0.1913 0.2031 0.09026 0.13547 0.13037 0.11846 0.1794
3462.515 0.196 0.17 0.14878 0.2004 0.2374 0.2001 0.1603 0.221 0.3702 0.3753
3481.805 0.2686 0.1903 0.0984 0.1096 0.1827 0.2191 0.1847 0.12227 0.11137 0.11393
3501.095 0.1935 0.2141 0.2406 0.2505 0.2041 0.2889 0.3804 0.3202 0.1684 0.10491
3520.385 0.1674 0.2442 0.2031 0.1724 0.1794 0.0229 0.0173 0.11122 0.09738 0.12645
3539.674 0.227 0.2606 0.1666 0.0767 0 0.0299 0.1701 0.2656 0.191 0.13092
3558.964 0.1879 0.2272 0.2004 0.2242 0.2173 0.1794 0.2523 0.2084 0.155 0.2671
3578.254 0.2218 0.1087 0.1602 0.1539 0.09543 0.1253 0.1638 0.1941 0.2044 0.1796
3597.544 0.1696 0.1729 0.1973 0.2173 0.1803 0.2828 0.3364 0.2655 0.3038 0.3436
3616.833 0.3424 0.225 0.1735 0.2197 0.2543 0.203 0.191 0.2714 0.3375 0.2825
3636.123 0.2877 0.3916 0.3855 0.4098 0.3711 0.3842 0.4159 0.437 0.4864 0.5411
3655.413 0.5339 0.4323 0.4524 0.5823 0.6114 0.4709 0.3458 0.3678 0.4064 0.4236
3674.703 0.4234 0.3977 0.478 0.5642 0.5017 0.4534 0.4518 0.4503 0.5446 0.6161
3693.993 0.5703 0.4626 0.589 0.7675 0.6329 0.524 0.5135 0.4459 0.514 0.5838
3713.282 0.5592 0.3923 0.3111 0.3936 0.4081 0.4605 0.3555 0.1551 0.2157 0.3783
3732.572 0.2953 0.2958 0.3494 0.3492 0.3923 0.2726 0.2637 0.3911 0.4478 0.3519
3751.862 0.3018 0.333 0.3116 0.3568 0.324 0.3433 0.443 0.3925 0.1581 0.2134
3771.152 0.5091 0.5361 0.4269 0.2813 0.3146 0.4158 0.3405 0.354 0.3337 0.3656
3790.441 0.5221 0.4394 0.3183 0.3316 0.3352 0.3827 0.3109 0.2834 0.3826 0.3099
3809.731 0.3207 0.4557 0.4228 0.3166 0.4047 0.4144 0.2366 0.2415 0.3666 0.3931
3829.021 0.3868 0.3392 0.2775 0.1827 0.11895 0.216 0.2846 0.3383 0.367 0.324
3848.311 0.3901 0.3358 0.3477 0.5088 0.3753 0.2698 0.3898 0.4349 0.3159 0.2911
3867.601 0.3006 0.3254 0.2892 0.2764 0.2763 0.2065 0.2288 0.2214 0.2729 0.3249
3886.890 0.3211 0.2691 0.1508 0.09212 0.1609 0.1794 0.2403 0.261 0.1451 0.2712
3906.180 0.451 0.4856 0.4629 0.4009 0.2504 0.3048 0.3735 0.2609 0.2611 0.342
3925.470 0.372 0.4549 0.4591 0.2952 0.1885 0.11713 0.1716 0.221 0.4089 0.5197
3944.760 0.4851 0.3702 0.2398 0.3615 0.3845 0.4107 0.5689 0.4865 0.3202 0.3244
3964.049 0.3635 0.4802 0.4941 0.3881 0.407 0.5586 0.5627 0.4109 0.4039 0.4968
3983.339 0.4968 0.5332 0.5121 0.447 0.6007 0.6623 0.6904 0.7467 0.7064 0.6703
##END=
