##TITLE=1,4-Cyclohexanediol
##JCAMP-DX=4.24
##DATA TYPE=INFRARED SPECTRUM
##ORIGIN=NIST Mass Spectrometry Data Center
##OWNER=NIST Standard Reference Data Program
Collection (C) 2018 copyright by the U.S. Secretary of Commerce
on behalf of the United States of America. All rights reserved.
##CAS REGISTRY NO=556-48-9
##MOLFORM=C 6 H 12 O 2
##$NIST SOURCE=MSDC-IR
##SPECTROMETER/DATA SYSTEM=HP-GC/MS/IRD
##STATE=gas
##XUNITS=1/CM
##YUNITS=ABSORBANCE
##XFACTOR=1.0
##YFACTOR=0.000000700
##DELTAX=4.0
##FIRSTX=550.0
##LASTX=3846.0
##FIRSTY=0.000025
##MAXX=3846
##MINX=550
##MAXY=0.007
##MINY=0
##NPOINTS=825
##XYDATA=(X++(Y..Y))
550.0 35 76 38 22 73 111 120 66 72 270
590.0 296 256 407 481 520 543 535 476 344 258
630.0 270 222 172 202 163 144 163 154 193 208
670.0 182 165 211 260 279 276 320 344 261 208
710.0 217 230 213 201 221 175 105 142 122 47
750.0 67 129 132 167 150 138 166 193 278 275
790.0 212 161 197 267 326 319 241 261 316 258
830.0 239 256 250 210 205 214 207 246 321 346
870.0 368 375 380 424 491 593 698 747 777 804
910.0 743 677 658 698 754 878 1107 1441 1900 2412
950.0 2804 3115 3307 3285 3168 2980 2785 2621 2499 2392
990.0 2304 2150 1962 1772 1575 1440 1366 1317 1363 1478
1030.0 1524 1633 1930 2329 2847 3530 4379 5297 6220 6997
1070.0 7343 7223 6632 5616 4442 3374 2506 1903 1557 1351
1110.0 1271 1276 1192 1141 1147 1092 1039 1040 1010 1011
1150.0 1020 986 1005 998 977 920 925 980 980 1000
1190.0 1056 1099 1160 1273 1386 1525 1693 1820 1910 1975
1230.0 1995 1997 1961 1878 1792 1736 1679 1606 1503 1383
1270.0 1280 1221 1119 1034 968 901 867 847 836 832
1310.0 851 897 942 963 995 1009 1016 1037 1089 1138
1350.0 1190 1297 1461 1602 1699 1751 1773 1734 1644 1531
1390.0 1389 1236 1105 965 825 743 691 678 730 837
1430.0 973 1092 1220 1337 1453 1481 1373 1277 1132 943
1470.0 759 599 477 379 313 248 210 199 171 125
1510.0 130 149 138 128 124 120 100 92 103 97
1550.0 92 102 100 95 95 99 116 85 69 77
1590.0 77 80 61 63 75 91 104 95 92 78
1630.0 63 76 66 57 79 84 67 66 51 37
1670.0 50 58 56 41 28 28 17 24 25 0
1710.0 2 23 35 36 34 35 41 40 44 49
1750.0 45 18 12 30 23 18 33 48 42 37
1790.0 46 41 30 34 36 27 32 32 17 15
1830.0 31 51 40 9 1 26 51 49 55 47
1870.0 37 48 49 46 46 68 62 43 59 65
1910.0 69 57 53 65 60 49 45 49 73 64
1950.0 60 70 62 36 33 56 62 38 44 45
1990.0 38 60 58 43 50 43 52 43 14 25
2030.0 29 29 41 36 33 40 40 39 32 17
2070.0 11 34 57 45 34 43 76 98 66 34
2110.0 53 70 68 71 56 65 71 63 72 46
2150.0 45 61 51 33 32 23 18 28 26 48
2190.0 61 62 78 75 63 35 43 62 35 29
2230.0 42 51 53 49 68 57 38 58 68 49
2270.0 45 70 68 63 76 83 100 110 88 85
2310.0 96 78 74 81 82 89 91 80 45 36
2350.0 56 71 83 91 100 100 92 98 122 135
2390.0 146 122 106 122 139 137 115 122 119 134
2430.0 137 127 134 118 123 133 118 104 110 107
2470.0 125 149 141 154 158 144 143 120 107 133
2510.0 135 121 139 141 168 180 145 145 124 120
2550.0 149 149 134 148 177 184 176 181 173 166
2590.0 152 159 192 199 200 229 268 254 226 249
2630.0 282 280 281 294 288 296 314 330 344 358
2670.0 381 382 352 327 349 357 348 347 346 341
2710.0 295 274 297 316 301 297 341 330 306 311
2750.0 339 351 359 375 365 356 376 386 371 370
2790.0 380 398 429 465 461 472 497 547 615 692
2830.0 784 890 1084 1368 1688 2096 2641 3156 3475 3755
2870.0 3994 4073 4115 4088 4006 3952 3914 3922 3994 4217
2910.0 4616 5104 5741 6564 7406 8269 9207 9862 10000 9731
2950.0 9038 7888 6503 5036 3632 2494 1665 1114 770 536
2990.0 420 366 328 315 310 274 254 268 264 235
3030.0 217 245 213 119 124 208 203 171 174 176
3070.0 174 163 183 233 212 158 137 118 125 160
3110.0 191 205 209 207 206 175 145 148 160 166
3150.0 147 127 168 167 147 197 234 183 155 167
3190.0 136 98 128 159 157 138 92 94 142 153
3230.0 106 107 138 142 153 194 175 116 144 196
3270.0 209 168 122 145 135 132 171 139 109 118
3310.0 117 159 150 155 191 127 82 134 173 194
3350.0 205 201 188 202 235 202 189 199 188 199
3390.0 177 135 96 136 176 167 195 170 158 166
3430.0 180 144 153 204 195 172 191 223 231 211
3470.0 216 229 228 214 161 130 119 90 137 191
3510.0 181 208 188 159 175 160 119 121 150 191
3550.0 244 237 186 151 67 46 133 129 116 151
3590.0 190 210 179 151 167 219 257 291 396 500
3630.0 622 800 1029 1356 1638 1746 1756 1698 1480 1156
3670.0 836 569 419 333 266 249 251 216 217 242
3710.0 222 186 176 194 243 272 228 206 221 223
3750.0 188 178 238 271 203 181 184 202 239 234
3790.0 263 241 211 242 242 224 266 298 278 291
3830.0 296 302 292 324 326
##END=
