##TITLE=Methyl isothiocyanate
##JCAMP-DX=4.24
##DATA TYPE=INFRARED SPECTRUM
##ORIGIN=NIST Mass Spectrometry Data Center
##OWNER=NIST Standard Reference Data Program
Collection (C) 2018 copyright by the U.S. Secretary of Commerce
on behalf of the United States of America. All rights reserved.
##CAS REGISTRY NO=556-61-6
##MOLFORM=C 2 H 3 N S
##SOURCE REFERENCE=No.290251 (NIST/EPA/NIH MS Database)
##$NIST SOURCE=MSDC-IR
##SPECTROMETER/DATA SYSTEM=HP-GC/MS/IRD
##STATE=gas
##XUNITS=1/CM
##YUNITS=ABSORBANCE
##XFACTOR=1.0
##YFACTOR=0.000012700
##DELTAX=4.0
##FIRSTX=550.0
##LASTX=3846.0
##FIRSTY=0.002451
##MAXX=3846
##MINX=550
##MAXY=0.127
##MINY=0
##NPOINTS=825
##XYDATA=(X++(Y..Y))
550.0 193 336 302 304 294 289 279 265 249 234
590.0 210 192 185 169 144 126 113 95 75 62
630.0 53 41 35 44 57 70 86 109 133 151
670.0 162 171 180 175 164 149 123 100 81 62
710.0 48 35 24 16 11 5 4 8 4 5
750.0 9 10 12 13 13 13 11 10 10 11
790.0 12 12 8 1 0 1 4 0 3 6
830.0 3 1 2 6 4 4 3 3 8 14
870.0 11 5 5 7 10 11 14 18 18 21
910.0 24 27 30 27 26 31 31 30 30 29
950.0 29 32 35 36 39 40 38 40 41 46
990.0 54 61 69 73 81 90 96 104 115 121
1030.0 123 131 136 139 142 144 144 143 144 142
1070.0 138 144 147 144 145 144 140 138 140 137
1110.0 130 118 104 100 101 95 81 75 77 85
1150.0 96 105 114 127 135 140 144 153 160 159
1190.0 148 136 122 108 95 85 78 73 69 64
1230.0 60 55 52 51 50 55 59 64 70 76
1270.0 81 80 78 75 72 68 63 57 51 49
1310.0 48 48 50 53 58 63 70 78 87 97
1350.0 109 115 122 139 156 174 202 238 275 325
1390.0 393 466 566 709 876 1036 1152 1170 1098 1060
1430.0 1071 1008 830 606 411 282 227 195 171 180
1470.0 173 152 151 147 136 133 132 123 122 120
1510.0 110 106 103 96 92 89 89 90 84 86
1550.0 88 82 79 75 68 65 63 59 55 57
1590.0 55 51 50 47 44 41 41 41 40 38
1630.0 35 33 33 31 31 29 27 26 26 23
1670.0 23 23 21 20 18 17 17 15 14 14
1710.0 13 10 10 9 7 8 7 7 6 5
1750.0 5 6 7 8 7 8 10 11 12 12
1790.0 15 19 20 22 23 24 24 26 28 30
1830.0 33 38 41 46 52 58 64 70 79 85
1870.0 94 103 113 122 129 138 149 156 167 181
1910.0 188 198 212 221 232 248 258 265 282 304
1950.0 317 334 365 403 441 490 555 638 737 867
1990.0 1025 1203 1423 1696 2013 2377 2800 3274 3795 4367
2030.0 4980 5622 6276 6922 7545 8139 8694 9190 9596 9866
2070.0 9993 10000 9912 9670 9236 8646 7944 7082 6060 5138
2110.0 4535 4037 3347 2559 1883 1405 1091 897 783 711
2150.0 671 651 644 644 657 672 690 712 739 774
2190.0 819 890 1003 1165 1374 1598 1777 1855 1859 1838
2230.0 1787 1674 1506 1317 1129 932 717 515 374 294
2270.0 251 227 210 196 183 169 154 144 140 134
2310.0 128 120 109 99 91 84 78 74 71 70
2350.0 67 63 65 68 69 68 65 63 62 57
2390.0 51 44 37 32 27 23 20 19 20 20
2430.0 19 18 21 23 22 24 26 28 31 30
2470.0 29 30 29 27 25 24 23 21 19 17
2510.0 16 15 14 13 8 7 10 9 7 9
2550.0 11 12 12 14 19 27 34 38 39 34
2590.0 32 30 28 27 24 20 17 16 12 9
2630.0 9 6 4 2 1 2 4 1 1 2
2670.0 0 3 5 8 13 17 22 29 37 49
2710.0 64 81 97 117 140 161 184 204 220 237
2750.0 248 254 254 243 226 214 197 169 146 135
2790.0 128 120 110 108 115 125 128 124 120 122
2830.0 122 115 105 96 92 95 96 100 112 123
2870.0 137 161 189 221 257 282 285 282 295 310
2910.0 298 277 267 280 323 398 503 609 672 668
2950.0 642 652 675 644 550 432 324 254 208 194
2990.0 185 182 180 168 167 158 156 154 157 156
3030.0 134 123 118 107 101 99 96 85 78 73
3070.0 67 59 61 62 53 50 46 43 36 34
3110.0 34 30 28 23 23 21 20 18 19 19
3150.0 13 12 14 10 11 16 13 10 10 7
3190.0 7 5 6 8 10 7 7 5 2 4
3230.0 3 2 4 5 3 6 9 9 4 2
3270.0 3 5 6 4 4 5 3 2 2 3
3310.0 0 2 6 4 5 6 4 3 5 6
3350.0 6 7 5 1 3 6 8 4 6 9
3390.0 10 10 9 7 10 13 11 11 11 12
3430.0 16 16 14 10 9 7 7 10 12 10
3470.0 9 11 11 11 15 17 16 14 9 9
3510.0 9 9 11 12 10 9 11 12 13 16
3550.0 14 11 10 12 16 16 17 15 13 13
3590.0 13 15 16 14 12 13 18 17 14 17
3630.0 20 21 20 17 17 20 19 18 20 19
3670.0 20 21 20 18 19 18 20 20 18 19
3710.0 19 22 24 21 21 22 22 21 22 19
3750.0 21 24 23 20 16 13 17 20 18 18
3790.0 19 18 16 18 22 23 22 24 25 24
3830.0 24 26 24 24 26
##END=
