##TITLE=o-Acetoxycinnamic acid
##JCAMP-DX=4.24
##DATA TYPE=INFRARED SPECTRUM
##ORIGIN=NIST Mass Spectrometry Data Center
##OWNER=NIST Standard Reference Data Program
Collection (C) 2018 copyright by the U.S. Secretary of Commerce
on behalf of the United States of America. All rights reserved.
##CAS REGISTRY NO=55620-18-3
##MOLFORM=C 11 H 10 O 4
##$NIST SOURCE=MSDC-IR
##SPECTROMETER/DATA SYSTEM=HP-GC/MS/IRD
##STATE=gas
##XUNITS=1/CM
##YUNITS=ABSORBANCE
##XFACTOR=1.0
##YFACTOR=0.000002900
##DELTAX=4.0
##FIRSTX=550.0
##LASTX=3846.0
##FIRSTY=0.002836
##MAXX=3846
##MINX=550
##MAXY=0.029
##MINY=0
##NPOINTS=825
##XYDATA=(X++(Y..Y))
550.0 978 1625 1347 1329 1282 1455 1784 1958 1789 1323
590.0 844 577 405 276 205 155 140 125 133 177
630.0 220 282 364 441 492 471 402 353 313 272
670.0 215 126 67 53 24 1 6 20 21 6
710.0 10 24 50 69 83 120 196 361 673 1079
750.0 1476 1608 1313 886 548 337 234 191 173 159
790.0 182 218 249 263 236 205 168 154 176 212
830.0 274 361 433 462 434 350 275 238 239 287
870.0 348 391 403 412 435 493 611 783 971 1088
910.0 1078 911 678 476 345 303 313 357 399 392
950.0 366 345 351 389 467 586 718 833 883 838
990.0 776 755 793 872 911 880 766 601 468 407
1030.0 389 406 434 438 432 440 440 449 508 583
1070.0 675 791 945 1174 1530 1968 2381 2754 3142 3711
1110.0 4694 5850 6445 6008 4692 3363 2677 2428 2387 2539
1150.0 2906 3308 3575 3793 4258 5285 6779 8205 9206 9763
1190.0 10000 9843 8965 7318 5385 3793 2769 2162 1783 1509
1230.0 1313 1192 1121 1079 1059 1055 1070 1081 1076 1052
1270.0 1017 984 950 914 865 809 758 725 739 788
1310.0 840 871 872 844 804 774 750 783 902 1100
1350.0 1384 1722 2056 2317 2460 2407 2136 1732 1273 866
1390.0 599 447 357 305 261 234 229 235 250 273
1430.0 303 337 398 508 660 805 846 767 617 494
1470.0 495 624 835 996 1029 923 729 537 396 301
1510.0 241 204 177 155 143 132 121 124 128 131
1550.0 140 153 165 184 212 257 296 321 317 299
1590.0 290 295 325 355 367 369 375 413 513 696
1630.0 978 1343 1684 1824 1653 1243 792 498 351 279
1670.0 245 227 225 236 262 294 342 390 447 529
1710.0 625 736 885 1088 1361 1731 2220 2865 3802 5088
1750.0 6463 7329 7162 6082 4768 3874 3664 4016 4613 5078
1790.0 4975 4193 3216 2410 1856 1473 1179 952 753 593
1830.0 474 385 332 298 265 233 202 174 150 129
1870.0 115 111 117 124 115 100 96 92 89 97
1910.0 105 111 101 86 76 68 73 84 90 87
1950.0 74 55 48 50 43 37 39 43 48 53
1990.0 48 41 40 37 41 46 47 48 45 48
2030.0 53 53 49 49 47 45 42 40 40 39
2070.0 35 26 26 27 17 11 16 19 17 17
2110.0 8 4 14 19 13 4 2 4 4 1
2150.0 0 0 7 13 10 7 2 1 2 1
2190.0 0 2 6 9 8 11 12 13 10 10
2230.0 14 9 12 14 11 7 3 0 7 13
2270.0 8 16 27 23 17 16 18 30 40 41
2310.0 45 47 48 56 53 45 45 47 44 39
2350.0 44 56 62 66 72 70 56 43 42 37
2390.0 27 29 29 21 17 21 20 19 22 19
2430.0 15 14 16 15 12 10 7 9 14 17
2470.0 21 26 22 19 16 12 10 11 20 17
2510.0 11 10 4 7 16 15 16 17 16 14
2550.0 13 15 20 22 23 22 15 14 19 19
2590.0 18 7 0 9 7 0 0 4 10 11
2630.0 8 11 9 7 10 12 23 17 1 4
2670.0 13 10 11 11 9 13 23 21 17 18
2710.0 14 14 17 15 9 11 20 20 12 9
2750.0 10 9 18 25 14 20 30 23 16 12
2790.0 15 13 14 21 22 16 11 14 23 28
2830.0 18 15 22 27 26 27 26 24 28 23
2870.0 21 32 31 24 28 29 16 15 24 28
2910.0 34 39 33 30 28 33 55 59 50 56
2950.0 71 85 80 67 59 46 44 59 66 61
2990.0 60 73 77 71 81 86 86 117 151 164
3030.0 191 234 258 252 232 214 204 226 277 350
3070.0 428 488 520 513 455 356 253 180 148 119
3110.0 87 78 62 45 53 51 50 49 42 42
3150.0 44 44 43 27 21 28 24 25 29 17
3190.0 16 24 26 29 31 22 20 19 11 13
3230.0 12 5 2 11 10 11 17 22 21 26
3270.0 32 21 20 35 29 14 15 14 21 22
3310.0 24 25 18 11 14 14 12 23 29 16
3350.0 9 24 35 38 40 40 32 27 29 30
3390.0 40 40 32 22 19 34 32 23 34 43
3430.0 35 31 35 37 48 56 58 57 54 48
3470.0 42 53 69 72 75 83 87 89 90 91
3510.0 90 83 77 72 68 81 94 94 95 110
3550.0 131 147 175 238 358 653 1346 2262 2817 2634
3590.0 1812 945 421 216 152 107 86 81 68 65
3630.0 73 79 75 59 68 77 74 59 51 48
3670.0 33 36 40 37 33 35 38 41 45 43
3710.0 44 51 49 41 32 21 22 33 37 37
3750.0 34 41 53 62 60 41 33 26 30 30
3790.0 28 49 55 46 25 19 32 42 48 56
3830.0 54 52 44 38 27
##END=
