##TITLE=Glyoxime
##JCAMP-DX=4.24
##DATA TYPE=INFRARED SPECTRUM
##ORIGIN=EPA-IR VAPOR PHASE LIBRARY
##OWNER=SRD/NIST
Collection (C) 2018 copyright by the U.S. Secretary of Commerce
on behalf of the United States of America. All rights reserved.
##CAS REGISTRY NO=557-30-2
##MOLFORM=C 2 H 4 N 2 O 2
##$NIST SOURCE=MSDC-IR
##STATE=gas
##XUNITS=1/CM
##YUNITS=ABSORBANCE
##XFACTOR=1.
##YFACTOR=0.001
##DELTAX=1.92898
##FIRSTX=549.8
##LASTX=4000.7
##FIRSTY=1.963
##MAXX=4000.7
##MINX=549.759
##MAXY=0.030123
##MINY=0
##NPOINTS=1790
##XYDATA=(X++(Y..Y))
549.759 1.963 1.733 1.723 1.833 1.883 1.913 1.753 1.603 1.673 1.653
569.049 1.803 1.833 1.643 1.673 1.733 1.683 1.643 1.473 1.713 1.863
588.339 1.953 1.853 1.753 2.043 2.093 2.033 2.123 2.033 1.763 1.833
607.628 1.953 2.113 2.373 2.253 2.033 2.113 2.243 2.323 2.293 2.393
626.918 2.513 2.663 2.803 2.763 2.963 3.473 4.003 4.203 4.803 5.543
646.208 5.753 6.033 6.553 6.703 6.433 6.383 6.313 6.093 5.963 5.613
665.498 5.203 4.923 4.463 3.793 3.233 2.793 2.723 2.623 2.363 2.293
684.787 2.283 2.363 2.413 2.453 2.413 2.353 2.423 2.573 2.303 2.173
704.077 2.433 2.473 2.433 2.463 3.053 3.433 3.203 3.063 2.883 2.793
723.367 2.663 2.723 2.943 2.893 2.863 2.903 3.133 3.293 3.343 3.413
742.657 3.513 3.603 3.443 3.273 3.293 3.373 3.453 3.553 3.553 3.483
761.947 3.523 3.593 3.703 3.793 3.803 3.923 4.043 3.993 4.013 3.953
781.236 3.743 3.703 3.793 3.993 4.153 3.893 3.743 3.683 3.603 3.543
800.526 3.413 3.503 3.633 3.693 3.523 3.473 3.663 3.583 3.363 3.273
819.816 3.343 3.363 3.243 3.223 3.253 3.243 3.363 3.763 4.163 4.813
839.106 4.923 3.963 3.163 2.843 2.863 2.953 3.063 3.063 3.003 3.053
858.395 3.173 3.363 3.513 3.523 3.663 3.833 3.823 3.923 4.313 4.613
877.685 4.973 5.503 5.823 6.203 6.603 6.793 7.003 7.193 7.223 7.243
896.975 7.453 7.883 8.383 9.133 9.703 10.093 10.673 11.313 12.113 13.283
916.265 14.913 16.663 18.233 20.083 22.523 24.913 26.923 28.553 29.633 30.123
935.555 29.713 28.553 27.293 26.413 25.773 24.753 22.393 19.113 15.773 12.653
954.844 10.173 8.363 7.343 6.903 6.603 6.533 6.733 6.683 6.733 6.813
974.134 6.663 6.413 6.263 6.143 6.033 5.673 5.223 4.893 4.473 4.033
993.424 3.493 3.343 3.473 3.523 3.593 3.233 2.863 3.033 3.113 2.693
1012.714 2.193 1.943 1.643 1.343 1.323 1.333 1.193 1.0851 0.9179 1.034
1032.003 1.193 1.0221 0.9814 1.223 1.413 1.333 1.203 1.313 1.0941 0.6469
1051.293 0.9102 1.233 1.1592 1.243 1.313 1.1147 1.0732 1.303 1.203 0.7524
1070.583 0.4411 0.2058 0.24409 0.7451 0.7818 0.5734 0.5411 0.6745 0.7608 0.7703
1089.873 1.0302 0.9534 0.691 0.4193 0.6823 0.7025 0.3779 0.5013 0.7608 0.8409
1109.163 0.527 0.5697 0.4975 0.803 0.9553 0.683 0.6077 0.6249 0.6073 0.286
1128.452 0.5369 0.6192 0.3269 0.4447 0.21798 0.3293 1.1044 1.1362 0.4964 0.5249
1147.742 0.6612 0.797 1.0333 1.0635 1.1733 1.1053 1.0966 1.0193 1.0081 1.1394
1167.032 1.363 1.233 0.9896 0.9641 0.998 1.1595 1.0232 0.8374 0.6915 0.644
1186.322 0.9665 1.213 1.493 1.813 1.613 1.623 2.093 2.043 1.843 1.603
1205.611 1.473 2.143 2.683 2.763 2.433 2.523 3.263 3.263 3.533 4.343
1224.901 4.833 5.183 5.253 5.173 5.133 5.493 5.773 5.823 6.313 6.433
1244.191 6.353 5.963 5.273 5.003 4.583 4.013 3.693 3.653 3.533 3.273
1263.481 3.163 2.973 2.963 3.043 2.833 2.693 2.713 2.653 2.513 2.393
1282.771 2.293 2.363 2.483 2.543 2.573 2.553 2.593 2.833 2.933 2.933
1302.060 3.033 3.173 3.353 3.633 3.903 4.193 4.573 4.923 5.283 5.713
1321.350 6.063 6.303 6.593 6.843 7.083 7.393 7.703 8.163 8.793 9.273
1340.640 9.303 9.183 9.273 9.393 9.533 9.883 10.373 10.913 11.323 11.443
1359.930 11.433 11.233 10.473 9.663 9.403 9.423 9.253 8.803 7.783 6.643
1379.219 5.673 4.843 4.263 4.123 4.373 4.163 3.843 4.013 4.173 3.983
1398.509 3.863 3.493 3.233 3.343 3.143 2.893 2.773 2.513 2.293 2.363
1417.799 2.753 2.633 1.953 1.833 1.673 1.563 1.593 1.483 1.313 1.683
1437.089 1.813 1.072 0.797 0.7919 0.8058 0.8913 0.767 0.7033 0.7133 0.9593
1456.378 1.673 1.253 0.5603 0.5501 0.637 0.5796 0.3797 0.4819 0.9302 0.9994
1475.668 0.7145 0.5097 0.4034 0.4551 0.3676 0.453 0.6585 0.8194 0.6125 0.24943
1494.958 0.5504 0.7577 0.5814 0.5236 0.4307 0.8886 1.683 1.543 1.1423 0.8924
1514.248 0.7435 0.9161 0.8183 1.243 1.253 0.7373 0.8632 0.6732 0.52 0.6838
1533.538 0.7758 0.5747 0.7305 1.193 1.1588 1.0803 0.9471 0.5186 0.6265 0.6329
1552.827 0.6895 0.899 0.9452 1.583 1.293 0.5785 0.4592 0.3882 0.5904 0.6851
1572.117 0.3971 0.5387 0.9279 0.6642 0.4002 0.4472 0.4473 0.4883 0.4893 0.5333
1591.407 0.5324 0.4267 0.4343 0.5509 0.4908 0.4681 0.5462 0.4954 0.4489 0.4415
1610.697 0.4895 0.5221 0.75 1.0039 0.7552 0.6042 0.7705 0.745 0.6651 0.595
1629.986 0.5669 0.656 0.9315 1.1367 0.8466 0.6515 0.6175 0.7647 1.0729 1.0728
1649.276 0.8189 1.323 1.823 1.203 0.7472 0.6076 0.6241 0.7344 0.5821 0.5702
1668.566 0.8308 0.8158 0.6372 0.9371 0.8393 0.6837 0.8868 1.0976 1.503 1.1629
1687.856 0.7737 0.7199 0.5614 0.8152 1.283 1.0766 1.233 1.183 0.7707 0.7784
1707.146 0.5884 0.5189 0.6032 0.8354 1.193 1.553 1.283 0.8276 0.7566 0.6685
1726.435 0.5467 0.7385 0.8628 1.223 1.533 0.9834 0.8269 0.8959 0.809 0.8288
1745.725 0.8278 0.8771 1.213 1.373 0.8405 0.7803 0.897 0.7325 0.9096 0.7985
1765.015 0.6098 1.0667 1.193 1.0339 0.9838 0.7417 0.6458 0.7081 0.7732 0.731
1784.305 0.9045 0.7928 0.6058 0.8563 0.9847 0.7664 0.6426 0.6211 0.7819 0.9476
1803.594 0.6171 0.4544 0.4768 0.4544 0.4863 0.4454 0.4803 0.5662 0.4828 0.403
1822.884 0.5566 0.7133 0.5833 0.5712 0.6022 0.5198 0.4937 0.4449 0.4224 0.4755
1842.174 0.6701 0.8436 0.7434 0.6456 0.5675 0.4961 0.5076 0.4907 0.5476 0.5832
1861.464 0.5793 0.6356 0.6735 0.7463 0.8487 0.6918 0.5287 0.5548 0.6076 0.6874
1880.754 0.7134 0.7119 0.7215 0.7467 0.8602 0.826 0.7919 0.8845 0.9256 0.8717
1900.043 0.8411 0.8864 0.895 0.9884 1.0226 1.0134 1.0229 1.017 1.0407 1.0973
1919.333 0.9871 0.9316 0.8543 0.6847 0.675 0.6537 0.6416 0.5731 0.4511 0.4042
1938.623 0.4262 0.4642 0.5045 0.3934 0.26251 0.26134 0.22444 0.21162 0.2913 0.312
1957.913 0.3196 0.3491 0.332 0.296 0.3227 0.3142 0.24118 0.21999 0.2225 0.25344
1977.202 0.25191 0.2083 0.19484 0.21875 0.21491 0.201 0.22673 0.322 0.3145 0.24996
1996.492 0.2407 0.1763 0.190038 0.187778 0.1537 0.182325 0.22877 0.27378 0.2699 0.24606
2015.782 0.25984 0.296 0.2881 0.3004 0.3076 0.27314 0.24296 0.23665 0.25126 0.27299
2035.072 0.29 0.3316 0.3976 0.3479 0.2705 0.303 0.3332 0.2964 0.3145 0.3301
2054.362 0.25063 0.20972 0.20784 0.18052 0.22539 0.3052 0.25209 0.20924 0.22325 0.20154
2073.651 0.21133 0.1682 0.183344 0.24244 0.22642 0.22354 0.27003 0.27342 0.21652 0.2847
2092.941 0.3509 0.25383 0.18176 0.21721 0.27675 0.3335 0.331 0.2888 0.20729 0.1646
2112.231 0.20472 0.22786 0.26077 0.23797 0.23933 0.26173 0.20539 0.17692 0.19402 0.20649
2131.521 0.21015 0.24983 0.2875 0.2916 0.20011 0.21564 0.3451 0.3289 0.27622 0.26589
2150.810 0.28297 0.26169 0.2842 0.2978 0.325 0.3725 0.3601 0.4139 0.4195 0.3653
2170.100 0.3354 0.26323 0.22461 0.27075 0.2867 0.2841 0.2854 0.3125 0.3373 0.3638
2189.390 0.3584 0.3064 0.3576 0.4107 0.4198 0.4365 0.4734 0.5281 0.5319 0.5932
2208.680 0.6786 0.6046 0.5453 0.5947 0.6733 0.7794 0.8337 0.8337 0.8231 0.8874
2227.970 0.9339 0.9465 0.9885 1.0095 1.1015 1.1264 1.1717 1.303 1.313 1.343
2247.259 1.343 1.313 1.343 1.253 1.273 1.343 1.273 1.183 1.1105 1.0972
2266.549 1.1556 1.168 1.1669 1.223 1.263 1.363 1.413 1.383 1.503 1.583
2285.839 1.553 1.563 1.503 1.393 1.343 1.1388 1.0027 0.9803 0.8441 0.734
2305.129 0.7487 0.739 0.6905 0.6957 0.6783 0.6761 0.7641 0.8197 0.8216 0.8301
2324.418 0.7812 0.7929 0.8529 0.8113 0.7901 0.8192 0.82 0.7646 0.7987 0.821
2343.708 0.7909 0.757 0.6676 0.6648 0.7208 0.767 0.8029 0.8874 1.0033 1.0438
2362.998 1.0603 1.1102 1.0475 0.9123 0.8207 0.7013 0.718 0.7264 0.5937 0.5984
2382.288 0.4793 0.2919 0.2979 0.28019 0.20219 0.172 0.1616 0.19618 0.2529 0.20931
2401.578 0.1412 0.1768 0.25531 0.26964 0.18881 0.1396 0.186277 0.1325 0.0973 0.1334
2420.867 0.1501 0.1969 0.1605 0.17355 0.19945 0.1294 0.1322 0.1645 0.1594 0.27483
2440.157 0.2678 0.0945 0.151 0.24353 0.22454 0.23816 0.24766 0.24652 0.20297 0.17356
2459.447 0.19536 0.1498 0.1701 0.17434 0.1291 0.22929 0.2896 0.2916 0.3484 0.3659
2478.737 0.3856 0.3141 0.2117 0.21254 0.25572 0.3331 0.3734 0.366 0.25882 0.155
2498.026 0.182983 0.22839 0.26786 0.26526 0.24361 0.22211 0.17956 0.1783 0.21667 0.1659
2517.316 0.1483 0.1708 0.1662 0.2206 0.25368 0.24728 0.162 0.1391 0.20216 0.25404
2536.606 0.3037 0.24521 0.1608 0.186435 0.21378 0.25835 0.3025 0.28124 0.2914 0.3396
2555.896 0.3459 0.3057 0.27678 0.3483 0.4342 0.4294 0.3955 0.4941 0.4905 0.446
2575.186 0.3421 0.23228 0.2938 0.3247 0.3531 0.3794 0.4382 0.3993 0.3596 0.3636
2594.475 0.3357 0.3181 0.293 0.3158 0.3758 0.384 0.3558 0.3349 0.3452 0.2948
2613.765 0.2983 0.3634 0.2932 0.21573 0.25435 0.323 0.3371 0.3348 0.3394 0.2886
2633.055 0.19829 0.1667 0.21803 0.22272 0.19624 0.27452 0.3156 0.3025 0.3424 0.3787
2652.345 0.3272 0.22986 0.168 0.22856 0.26794 0.27806 0.3471 0.3456 0.2505 0.2414
2671.634 0.3634 0.3053 0.25019 0.3077 0.3277 0.2954 0.3112 0.27876 0.20313 0.23987
2690.924 0.25463 0.23084 0.20872 0.27898 0.2876 0.28169 0.2913 0.24272 0.206 0.20245
2710.214 0.25299 0.25654 0.346 0.3812 0.2976 0.18063 0.1291 0.1506 0.1266 0.1024
2729.504 0.17753 0.3031 0.27258 0.314 0.3278 0.25936 0.22581 0.23874 0.22226 0.1611
2748.794 0.1483 0.18063 0.22098 0.27611 0.3787 0.3675 0.26861 0.23697 0.22109 0.22504
2768.083 0.23299 0.24982 0.24822 0.27203 0.3325 0.21624 0.133 0.20624 0.27434 0.26812
2787.373 0.21137 0.27191 0.3083 0.2847 0.2918 0.17929 0.0867 0.1298 0.1394 0.1447
2806.663 0.065 0.029 0.1558 0.24519 0.25712 0.17558 0.27109 0.317 0.3321 0.21235
2825.953 0.19567 0.3832 0.2928 0.23526 0.23122 0.18249 0.0871 0.0905 0.21707 0.17612
2845.242 0.082 0.17699 0.3377 0.3383 0.1424 0.052 0.1077 0.1455 0.21918 0.25249
2864.532 0.2903 0.26256 0.18848 0.19919 0.28177 0.4033 0.3906 0.28158 0.1342 0.064
2883.822 0.1109 0.1469 0.25565 0.2968 0.23635 0.202 0.235 0.20713 0.17907 0.2974
2903.112 0.25176 0.18 0.24573 0.2954 0.3272 0.3168 0.26517 0.2094 0.13 0.19453
2922.401 0.31 0.27343 0.1454 0.1643 0.25158 0.24782 0.27841 0.3072 0.3159 0.3942
2941.691 0.4857 0.4591 0.5121 0.5143 0.4575 0.4751 0.4747 0.5275 0.5181 0.4136
2960.981 0.4114 0.5542 0.5003 0.6427 0.6672 0.5018 0.595 0.5839 0.6325 0.6991
2980.271 0.6324 0.4952 0.488 0.5332 0.5422 0.3891 0.3 0.4265 0.4249 0.5032
2999.561 0.5149 0.4777 0.5268 0.5791 0.5846 0.4599 0.4404 0.4554 0.4592 0.5409
3018.850 0.476 0.3696 0.3823 0.4539 0.477 0.3671 0.2862 0.3758 0.4867 0.4352
3038.140 0.3967 0.3366 0.3721 0.575 0.5248 0.3749 0.3914 0.3692 0.3582 0.4507
3057.430 0.4683 0.4076 0.3305 0.3805 0.5159 0.388 0.3732 0.451 0.4229 0.3997
3076.720 0.3369 0.3977 0.4356 0.3143 0.20185 0.22469 0.3992 0.3534 0.1585 0.20252
3096.009 0.26465 0.25723 0.23484 0.22565 0.21706 0.20319 0.25703 0.23212 0.1582 0.187557
3115.299 0.24376 0.3177 0.1571 0 0.0968 0.077 0.067 0.1203 0.22032 0.24858
3134.589 0.1536 0.20396 0.19879 0.1481 0.1272 0.156 0.27458 0.3639 0.3568 0.28202
3153.879 0.22943 0.1559 0.097 0.1585 0.20197 0.027 0.0931 0.3147 0.25946 0.1656
3173.169 0.0859 0.038 0.1406 0.22617 0.22735 0.4057 0.3699 0.1362 0.1093 0.1682
3192.458 0.23575 0.3361 0.3602 0.411 0.4128 0.4061 0.4468 0.4226 0.4421 0.4248
3211.748 0.4681 0.4853 0.4429 0.477 0.462 0.4198 0.3564 0.4194 0.6664 0.6649
3231.038 0.4759 0.3422 0.4305 0.4719 0.4471 0.6035 0.6046 0.3999 0.3732 0.4853
3250.328 0.5093 0.4793 0.5418 0.6468 0.5442 0.4823 0.5366 0.5824 0.5129 0.4918
3269.617 0.5286 0.5098 0.5438 0.5628 0.5891 0.5813 0.4967 0.5021 0.4622 0.3633
3288.907 0.4337 0.4577 0.3448 0.3162 0.4246 0.4762 0.3257 0.24873 0.3392 0.25416
3308.197 0.2288 0.4521 0.4656 0.392 0.4048 0.4591 0.5784 0.558 0.4667 0.4493
3327.487 0.4014 0.3238 0.41 0.4962 0.5367 0.478 0.3526 0.2978 0.4394 0.495
3346.777 0.4669 0.5542 0.5633 0.5297 0.3871 0.3562 0.4098 0.3325 0.3655 0.4894
3366.066 0.3828 0.3204 0.3771 0.4113 0.4338 0.2964 0.26712 0.387 0.3612 0.3233
3385.356 0.4302 0.4082 0.3306 0.4123 0.3393 0.26024 0.3192 0.3895 0.4649 0.27029
3404.646 0.1317 0.3343 0.4685 0.4026 0.3006 0.3305 0.4253 0.3701 0.3614 0.3339
3423.936 0.1713 0.18177 0.26989 0.2965 0.3272 0.2901 0.24258 0.2839 0.4217 0.4188
3443.225 0.3135 0.3031 0.3003 0.406 0.4413 0.356 0.3861 0.4466 0.4924 0.498
3462.515 0.4478 0.3377 0.20865 0.2977 0.3497 0.4331 0.4425 0.3211 0.474 0.7864
3481.805 0.7234 0.5003 0.5052 0.5267 0.4914 0.5527 0.5534 0.3639 0.4566 0.6456
3501.095 0.7242 0.7088 0.5658 0.4952 0.499 0.5823 0.487 0.4657 0.5757 0.5596
3520.385 0.5955 0.7757 0.8612 0.6681 0.5506 0.5037 0.4817 0.5488 0.5479 0.4185
3539.674 0.4518 0.6196 0.8847 1.0334 0.9004 0.7172 0.6203 0.7405 0.8919 0.8028
3558.964 0.8054 0.8915 0.8672 1.0848 1.493 1.393 0.9652 0.8406 0.9575 0.8831
3578.254 0.8089 0.8538 0.9246 1.283 1.673 1.743 1.603 1.683 1.973 2.193
3597.544 2.423 2.803 3.173 3.443 3.813 4.473 5.273 6.033 6.913 7.963
3616.833 9.373 11.293 13.393 15.633 18.443 21.683 25.013 27.353 28.413 28.733
3636.123 28.093 27.303 27.143 27.233 27.173 26.853 25.313 22.023 17.663 13.653
3655.413 10.753 8.303 6.223 4.873 3.903 3.043 2.613 2.723 2.603 2.143
3674.703 2.053 1.913 1.453 1.263 1.144 1.1173 1.353 1.353 1.193 1.0208
3693.993 0.7628 0.6542 0.5995 0.6682 0.6854 0.5264 0.5302 0.6255 0.7632 0.8874
3713.282 0.8275 0.606 0.5556 0.7092 0.6983 0.5742 0.7959 0.9428 0.6788 0.7248
3732.572 1.0085 1.383 1.293 0.7486 0.6259 0.9348 1.313 0.9906 0.725 0.9059
3751.862 0.9617 0.7628 0.5465 0.5556 0.5692 0.4619 0.4701 0.6117 0.6071 0.6463
3771.152 0.5129 0.25696 0.2943 0.4362 0.4243 0.32 0.1999 0.1564 0.1303 0.22977
3790.441 0.4407 0.3384 0.3428 0.5722 0.579 0.5741 0.4217 0.2929 0.4739 0.4609
3809.731 0.3896 0.26439 0.3573 0.6033 0.5625 0.6564 0.599 0.26842 0.2471 0.3592
3829.021 0.304 0.4481 0.6123 0.5414 0.5534 0.5643 0.4304 0.3511 0.3223 0.24303
3848.311 0.26878 0.5136 1.0463 1.273 0.6779 0.3395 0.4802 0.5478 0.6019 0.481
3867.601 0.4262 0.528 0.4872 0.579 0.4492 0.20833 0.5259 0.6299 0.3743 0.5412
3886.890 0.5611 0.3511 0.521 0.414 0.24625 0.3473 0.5407 0.7628 0.8485 0.8387
3906.180 0.5207 0.2869 0.191925 0.1705 0.20274 0.3625 0.5121 0.4273 0.3783 0.3969
3925.470 0.3794 0.3313 0.2908 0.5863 0.6497 0.3308 0.28104 0.25944 0.3991 0.6059
3944.760 0.6161 0.6724 0.5957 0.4583 0.3112 0.21978 0.2837 0.185243 0.1931 0.3286
3964.049 0.3211 0.2982 0.3085 0.2991 0.2883 0.2906 0.4134 0.3979 0.3088 0.2946
3983.339 0.2911 0.183541 0.17581 0.21022 0.1134 0.24807 0.25925 0.1452 0.19309 0.3923
##END=
