##TITLE=2-Bromooctane
##JCAMP-DX=4.24
##DATA TYPE=INFRARED SPECTRUM
##ORIGIN=NIST Mass Spectrometry Data Center
##OWNER=NIST Standard Reference Data Program
Collection (C) 2018 copyright by the U.S. Secretary of Commerce
on behalf of the United States of America. All rights reserved.
##CAS REGISTRY NO=557-35-7
##MOLFORM=C 8 H 17 Br
##$NIST SOURCE=MSDC-IR
##SPECTROMETER/DATA SYSTEM=HP-GC/MS/IRD
##STATE=gas
##XUNITS=1/CM
##YUNITS=ABSORBANCE
##XFACTOR=1.0
##YFACTOR=0.000002800
##DELTAX=4.0
##FIRSTX=550.0
##LASTX=3846.0
##FIRSTY=0.001120
##MAXX=3846
##MINX=550
##MAXY=0.028
##MINY=0
##NPOINTS=825
##XYDATA=(X++(Y..Y))
550.0 400 334 258 195 136 95 99 135 156 176
590.0 180 163 167 166 194 258 332 397 422 395
630.0 302 204 139 100 66 31 11 16 18 18
670.0 13 6 8 14 29 42 46 57 80 107
710.0 119 154 201 220 238 243 223 202 189 182
750.0 170 173 168 152 152 147 140 134 132 134
790.0 142 145 136 139 133 138 138 124 111 78
830.0 75 94 102 110 121 122 132 148 165 181
870.0 186 181 184 184 184 191 189 171 162 161
910.0 147 134 117 99 101 104 84 73 89 89
950.0 95 125 141 152 162 171 187 204 199 199
990.0 220 247 277 314 353 348 318 279 267 253
1030.0 207 195 193 182 177 182 189 192 207 216
1070.0 206 210 205 187 198 191 172 171 172 208
1110.0 240 268 312 364 414 480 551 597 604 568
1150.0 513 464 470 507 560 645 725 770 779 774
1190.0 763 765 795 835 870 898 932 955 967 952
1230.0 922 886 823 743 665 620 605 605 598 590
1270.0 574 551 522 499 480 469 468 465 457 441
1310.0 415 387 364 344 332 333 346 361 373 380
1350.0 397 419 437 455 498 567 695 858 962 942
1390.0 785 580 438 356 314 299 305 327 373 443
1430.0 532 641 774 930 1106 1263 1366 1419 1403 1293
1470.0 1117 906 704 536 406 314 255 216 192 165
1510.0 146 138 125 114 105 100 96 91 84 83
1550.0 85 78 65 59 60 62 60 55 57 64
1590.0 63 61 55 51 55 56 50 48 48 44
1630.0 42 42 45 43 41 39 38 38 32 29
1670.0 28 29 37 36 28 31 26 22 26 27
1710.0 20 11 15 22 16 7 7 14 13 13
1750.0 13 15 18 14 14 16 17 17 16 18
1790.0 15 11 13 16 20 19 17 14 12 13
1830.0 16 16 10 5 8 15 16 14 16 18
1870.0 15 10 15 17 19 18 11 9 13 14
1910.0 8 10 13 11 10 11 14 12 8 9
1950.0 15 13 13 13 10 13 10 4 7 9
1990.0 5 3 3 7 7 9 11 9 11 23
2030.0 22 13 14 14 13 14 10 13 15 12
2070.0 16 15 4 9 11 10 11 9 10 2
2110.0 2 5 0 4 6 3 5 9 8 8
2150.0 8 7 5 4 5 8 7 9 9 7
2190.0 11 15 12 11 13 12 13 14 15 14
2230.0 12 12 9 9 12 17 17 13 13 12
2270.0 13 18 18 12 13 11 5 11 17 17
2310.0 15 11 17 21 20 17 14 19 21 18
2350.0 18 17 15 16 19 20 21 20 17 18
2390.0 13 5 7 13 18 20 20 22 23 14
2430.0 9 18 22 22 23 15 15 27 28 23
2470.0 19 19 18 17 16 16 15 13 21 20
2510.0 21 33 32 24 29 32 35 42 41 34
2550.0 32 35 32 34 43 44 41 47 51 47
2590.0 46 47 61 68 61 57 58 61 63 69
2630.0 68 63 67 72 78 86 93 93 92 92
2670.0 100 106 109 113 108 108 115 118 118 120
2710.0 120 125 124 126 136 150 167 172 175 187
2750.0 191 179 170 176 178 174 189 200 211 232
2790.0 257 285 308 337 373 411 458 514 582 674
2830.0 786 923 1100 1317 1594 1957 2412 2926 3413 3779
2870.0 3949 3981 3933 3839 3716 3561 3430 3406 3545 3848
2910.0 4325 5021 5993 7201 8445 9454 10000 9945 9367 8474
2950.0 7512 6772 6457 6563 6859 6923 6438 5451 4342 3536
2990.0 3069 2683 2215 1704 1270 974 775 656 579 509
3030.0 437 392 362 326 306 285 258 248 235 223
3070.0 207 188 186 185 176 157 153 167 153 140
3110.0 146 145 134 128 119 108 111 114 106 100
3150.0 93 88 89 95 95 91 101 100 95 89
3190.0 79 79 79 77 70 68 58 49 61 55
3230.0 47 56 58 43 41 40 31 42 46 30
3270.0 20 30 39 32 31 31 23 22 21 26
3310.0 30 19 23 26 27 27 22 20 18 24
3350.0 26 26 31 32 29 25 26 21 14 19
3390.0 26 36 38 32 24 31 35 32 27 24
3430.0 18 26 39 38 36 26 15 10 10 13
3470.0 9 21 35 39 40 29 17 20 27 28
3510.0 25 22 24 16 18 29 31 31 22 5
3550.0 19 29 11 10 22 36 36 27 36 28
3590.0 26 30 34 34 36 47 42 33 46 48
3630.0 25 31 41 38 24 13 26 48 45 36
3670.0 39 40 42 46 46 46 37 28 25 26
3710.0 38 35 36 42 40 41 27 30 44 48
3750.0 45 38 36 37 48 38 26 31 40 27
3790.0 16 24 25 23 24 34 30 23 32 29
3830.0 25 41 46 41 33
##END=
