##TITLE=2-Sec-Butylaniline
##JCAMP-DX=4.24
##DATA TYPE=INFRARED SPECTRUM
##ORIGIN=EPA-IR VAPOR PHASE LIBRARY
##OWNER=SRD/NIST
Collection (C) 2018 copyright by the U.S. Secretary of Commerce
on behalf of the United States of America. All rights reserved.
##CAS REGISTRY NO=55751-54-7
##MOLFORM=C 10 H 15 N
##$NIST SOURCE=MSDC-IR
##STATE=gas
##XUNITS=1/CM
##YUNITS=ABSORBANCE
##XFACTOR=1.
##YFACTOR=0.001
##DELTAX=1.92934
##FIRSTX=549.9
##LASTX=3999.5
##FIRSTY=17.29
##MAXX=3999.53
##MINX=549.863
##MAXY=0.17961
##MINY=0
##NPOINTS=1789
##XYDATA=(X++(Y..Y))
549.863 17.29 17.47 17.65 17.7 18.03 18.13 18.11 18.34 18.59 18.77
569.156 18.88 18.93 19.02 18.99 18.98 19.19 19.46 19.64 19.74 19.92
588.450 20.02 19.99 20.11 20.27 20.59 20.83 20.97 21.18 21.36 21.67
607.743 22.01 22.3 22.55 22.8 23.05 23.4 23.64 23.8 24.01 24.26
627.037 24.59 24.82 25 25.22 25.49 25.76 26.02 26.18 26.35 26.53
646.330 26.74 26.95 27.12 27.21 27.11 27.04 27.01 26.92 26.8 26.63
665.624 26.48 26.31 25.97 25.63 25.36 24.95 24.53 24.33 24.1 23.71
684.917 23.36 23.1 22.88 22.69 22.52 22.4 22.38 22.39 22.42 22.5
704.210 22.62 22.76 23.01 23.37 23.73 24.31 25.32 26.85 29.14 32.56
723.504 37.57 44.37 52.98 63.09 73.97 85.04 96.07 107.34 119.18 129.41
742.797 131.78 124.19 113.11 102.58 92.22 81.54 70.57 59.88 50.24 42.32
762.091 36.29 31.75 28.43 26.13 24.5 23.41 22.59 21.91 21.35 20.88
781.384 20.49 20.16 19.95 19.7 19.4 19.19 19.03 18.79 18.62 18.56
800.678 18.41 18.26 18.15 17.97 17.75 17.58 17.34 16.96 16.58 16.11
819.971 15.49 14.99 14.5 13.94 13.45 13.04 12.68 12.37 12.13 12.06
839.264 12.1 12.11 12.19 12.32 12.37 12.23 12.1 12.03 11.81 11.57
858.558 11.36 11.02 10.66 10.3 9.94 9.64 9.34 8.98 8.62 8.33
877.851 8.09 7.85 7.65 7.52 7.37 7.22 7.14 7.1 6.99 6.93
897.145 6.94 6.81 6.69 6.6 6.62 6.74 6.71 6.79 7.03 7.32
916.438 7.6 7.97 8.41 8.78 9.19 9.74 10.07 9.87 9.5 9.21
935.732 8.96 8.72 8.49 8.23 8.02 7.95 7.92 7.98 8.09 8.21
955.025 8.41 8.61 8.75 8.85 8.89 8.89 8.81 8.73 8.7 8.62
974.318 8.54 8.52 8.55 8.69 8.92 9.25 9.67 10.13 10.67 11.18
993.612 11.72 12.34 12.89 13.39 13.99 14.67 15.24 15.67 15.92 16
1012.905 15.96 15.75 15.35 14.79 14.18 13.51 12.86 12.42 12.34 12.59
1032.199 12.95 13.35 13.76 14.06 14.29 14.42 14.41 14.15 13.77 13.38
1051.492 12.9 12.5 12.24 12.09 12.01 12.09 12.22 12.37 12.62 12.85
1070.786 13.08 13.27 13.37 13.4 13.31 13.09 12.82 12.5 12.12 11.68
1090.079 11.31 11 10.66 10.5 10.41 10.33 10.3 10.37 10.55 10.67
1109.372 10.83 11.07 11.28 11.36 11.43 11.44 11.25 10.95 10.6 10.24
1128.666 9.87 9.49 9.21 8.93 8.84 9.06 9.45 9.92 10.7 11.97
1147.959 13.47 14.94 16.16 16.86 17.04 17.15 16.95 15.98 14.61 13.21
1167.253 11.77 10.12 8.4 6.95 5.92 5.2 4.73 4.55 4.4 4.3
1186.546 4.45 4.48 4.4 4.44 4.53 4.69 4.87 4.86 4.78 4.84
1205.840 4.89 5.09 5.57 5.89 6.04 6.49 7.14 7.52 7.75 8.41
1225.133 9.37 10.41 11.39 12.58 14.05 15.69 17.67 19.72 21.93 24.24
1244.426 26.49 28.88 31.17 33.22 35.05 36.74 38.09 38.97 39.47 39.45
1263.720 39.21 38.7 38.05 37.69 37.49 37.42 37.66 38.03 38.4 38.79
1283.013 39.23 39.49 39.29 38.74 37.83 36.58 35.14 33.48 31.66 29.83
1302.307 27.91 25.93 24.02 22.09 20.13 18.32 16.63 15.06 13.64 12.34
1321.600 11.21 10.26 9.42 8.77 8.36 8.04 7.87 7.8 7.77 7.84
1340.894 7.92 8.03 8.23 8.5 8.81 9.21 9.72 10.25 10.81 11.31
1360.187 11.81 12.41 13.14 13.93 14.77 15.73 16.69 17.75 18.97 20.2
1379.480 21 21.18 20.97 20.28 19.11 17.74 16.26 14.58 12.9 11.41
1398.774 10.18 9.25 8.65 8.29 8.1 8.05 8.13 8.26 8.44 8.68
1418.067 8.99 9.4 9.93 10.59 11.42 12.45 13.77 15.44 17.57 20.19
1437.361 23.44 27.12 31.27 35.75 40.4 44.93 49.1 52.48 54.83 56.21
1456.654 56.72 56.35 54.86 52.39 49.29 46.12 43.28 40.98 39.63 39.36
1475.948 40.31 42.46 45.77 50.28 55.64 61.34 66.81 71.38 74.46 75.76
1495.241 75.16 72.67 68.43 62.71 55.84 48.26 40.37 33.29 27.51 22.91
1514.534 19.51 17 15.24 13.95 12.9 12.1 11.36 10.74 10.24 9.8
1533.828 9.47 9.23 8.95 8.73 8.73 8.79 8.88 8.98 9.21 9.48
1553.121 9.77 10.24 10.76 11.41 12.33 13.37 14.51 15.82 17.24 18.81
1572.415 20.37 21.81 23.14 24.35 25.39 26.17 26.67 27 27.27 27.43
1591.708 27.64 28.2 29.19 30.78 33.07 36.16 40.13 44.96 50.69 57.33
1611.002 64.47 71.94 79.16 85.92 91.54 95.4 97.28 97.08 94.9 90.77
1630.295 84.94 77.75 69.61 60.89 52.6 45.09 38.4 32.7 27.92 24.05
1649.588 21.04 18.71 16.79 15.39 14.3 13.43 12.72 12.1 11.56 11.03
1668.882 10.48 9.97 9.49 8.98 8.53 8.12 7.71 7.34 7.03 6.78
1688.175 6.54 6.35 6.13 5.88 5.67 5.5 5.29 5.12 4.95 4.73
1707.469 4.5 4.32 4.17 3.97 3.81 3.66 3.56 3.5 3.41 3.39
1726.762 3.31 3.17 3.13 3.13 3.12 3.11 3.1 3.13 3.2 3.23
1746.056 3.28 3.38 3.47 3.58 3.71 3.93 4.14 4.34 4.56 4.74
1765.349 4.89 5 5.06 5.01 4.94 4.86 4.7 4.53 4.35 4.18
1784.642 4.02 3.9 3.84 3.82 3.79 3.82 3.85 3.83 3.88 3.86
1803.936 3.79 3.72 3.59 3.47 3.37 3.23 3.11 3 2.88 2.77
1823.229 2.64 2.59 2.59 2.55 2.53 2.56 2.61 2.66 2.75 2.85
1842.523 2.95 3.06 3.17 3.25 3.28 3.32 3.4 3.43 3.42 3.42
1861.816 3.4 3.39 3.46 3.6 3.81 4.12 4.51 4.93 5.36 5.7
1881.110 5.95 6.11 6.11 6.03 5.83 5.48 5.12 4.75 4.38 4.02
1900.403 3.79 3.79 3.87 4 4.21 4.41 4.59 4.72 4.78 4.8
1919.696 4.67 4.44 4.15 3.81 3.47 3.07 2.65 2.4 2.2044 1.9865
1938.990 1.822 1.7383 1.7199 1.68 1.6356 1.5801 1.5621 1.6025 1.5714 1.527
1958.283 1.5273 1.5372 1.5437 1.497 1.4811 1.5145 1.4818 1.43675 1.44884 1.478
1977.577 1.4574 1.42269 1.44878 1.4945 1.5041 1.44269 1.41158 1.42323 1.42446 1.40623
1996.870 1.39098 1.40913 1.4569 1.43735 1.40054 1.39391 1.38029 1.38761 1.35623 1.35107
2016.164 1.35822 1.3329 1.3019 1.3056 1.3154 1.3347 1.36618 1.35578 1.35227 1.3273
2035.457 1.3227 1.35374 1.35447 1.36648 1.38064 1.36833 1.3321 1.3099 1.37388 1.41518
2054.750 1.41821 1.454 1.44254 1.42858 1.4729 1.4985 1.4709 1.4684 1.4861 1.4911
2074.044 1.4827 1.4632 1.44133 1.43004 1.44474 1.44338 1.43853 1.42373 1.3695 1.35792
2093.337 1.37979 1.39592 1.39287 1.38095 1.39061 1.38864 1.35535 1.3459 1.36856 1.35412
2112.631 1.3155 1.3118 1.3175 1.288 1.2796 1.2774 1.244 1.193 1.199 1.218
2131.924 1.175 1.143 1.12 1.076 1.073 1.095 1.047 1.016 1.048 1.036
2151.218 1.012 1.011 0.971 0.972 1.031 1.03 1.012 1.047 1.065 1.038
2170.511 1.017 1.002 0.996 1.009 1 1.017 1.054 1.049 1.028 0.997
2189.804 0.988 0.999 1.012 1.004 0.984 0.998 1.036 1.044 1.05 1.031
2209.098 1.014 1.024 0.994 0.99 0.996 1.003 1.014 0.942 0.903 0.98
2228.391 1 0.977 1.013 1.025 0.983 0.993 0.988 0.977 1.003 1.008
2247.685 1.036 1.022 0.976 0.97 0.971 0.977 0.949 0.945 0.989 0.998
2266.978 0.995 1.019 1.038 1.052 1.099 1.109 1.107 1.108 1.091 1.09
2286.272 1.137 1.13 1.118 1.144 1.173 1.176 1.183 1.2522 1.2752 1.3157
2305.565 1.40241 1.4614 1.5301 1.6079 1.6612 1.708 1.7509 1.7584 1.7322 1.7372
2324.858 1.713 1.6388 1.5668 1.5178 1.44353 1.3361 1.2782 1.2713 1.287 1.3072
2344.152 1.291 1.239 1.2626 1.2871 1.2564 1.206 1.13 1.119 1.115 1.094
2363.445 1.101 1.111 1.144 1.155 1.109 1.157 1.213 1.199 1.208 1.237
2382.739 1.2733 1.2855 1.2805 1.2866 1.2818 1.2808 1.3323 1.3151 1.3172 1.34598
2402.032 1.3359 1.3275 1.3181 1.34078 1.3394 1.34903 1.34671 1.3327 1.342 1.36476
2421.326 1.41973 1.44111 1.42087 1.4137 1.44358 1.462 1.43942 1.43392 1.42868 1.43565
2440.619 1.4597 1.44615 1.4654 1.4528 1.42754 1.43928 1.42543 1.44649 1.4816 1.4648
2459.912 1.41863 1.42659 1.40829 1.3629 1.3282 1.2984 1.3293 1.36362 1.37769 1.3265
2479.206 1.2906 1.2789 1.213 1.206 1.237 1.208 1.146 1.104 1.097 1.081
2498.499 1.101 1.141 1.143 1.153 1.113 1.056 1.07 1.116 1.111 1.125
2517.793 1.162 1.134 1.133 1.128 1.138 1.183 1.218 1.2596 1.2528 1.2811
2537.086 1.3329 1.36122 1.36457 1.3369 1.34931 1.38575 1.3671 1.35223 1.38049 1.4568
2556.380 1.4702 1.40675 1.44995 1.4947 1.4989 1.5305 1.5344 1.5108 1.5368 1.5877
2575.673 1.6058 1.6111 1.6049 1.6477 1.696 1.6988 1.6896 1.7138 1.7983 1.8446
2594.966 1.8533 1.8766 1.8863 1.9517 2.017 2.0281 2.0203 2.0019 1.9898 1.9748
2614.260 2.0088 2.0104 1.9631 1.8982 1.8695 1.8479 1.8235 1.8104 1.7863 1.7951
2633.553 1.7907 1.7907 1.8169 1.8786 1.9234 1.8837 1.8816 1.9436 1.9776 1.9343
2652.847 1.9025 1.9163 1.8751 1.9019 1.8954 1.8777 1.9077 1.8185 1.7668 1.7803
2672.140 1.7866 1.7849 1.7579 1.7699 1.8034 1.8269 1.7952 1.8468 1.8877 1.8663
2691.434 1.8947 1.9034 1.954 1.9884 2.0187 2.0621 2.1151 2.1815 2.207 2.2021
2710.727 2.259 2.38 2.42 2.44 2.55 2.66 2.69 2.82 2.98 3.06
2730.020 3.17 3.32 3.47 3.61 3.7 3.65 3.64 3.66 3.71 3.66
2749.314 3.5 3.44 3.35 3.22 3.1 2.99 2.95 2.9 2.93 3.02
2768.607 2.99 3.02 3.15 3.26 3.31 3.36 3.45 3.53 3.73 3.9
2787.901 3.95 4.04 4.14 4.27 4.42 4.58 4.67 4.76 4.91 5.01
2807.194 5.16 5.39 5.64 5.84 6.08 6.32 6.53 6.82 7.13 7.4
2826.488 7.71 8.02 8.29 8.69 9.15 9.51 9.81 10.25 10.87 11.45
2845.781 12.06 12.9 13.96 15.29 16.99 19.18 21.74 24.84 28.44 32.52
2865.074 37 41.7 46.79 51.99 56.96 61.73 66.1 69.6 71.76 72.77
2884.368 72.64 71.28 69.18 66.56 63.47 60.26 57.41 55.08 53.46 52.52
2903.661 52.28 52.94 54.22 56.07 58.67 61.78 65.37 69.48 73.87 78.54
2922.955 83.44 88.5 93.47 97.95 101.74 104.58 106.43 107.1 106.2 104.16
2942.248 101.27 97.99 95.07 93.13 92.91 95.05 100.09 108 118.43 130.78
2961.542 144.34 157.6 168.32 175.7 179.61 178.82 172.56 161.07 145.52 127.76
2980.835 109.85 92.83 76.86 62.6 50.94 41.98 35.33 30.62 27.45 25.32
3000.128 24.15 23.71 23.76 24.51 25.93 27.84 30.24 32.83 35.73 38.91
3019.422 41.87 44.39 46.36 47.79 48.44 48.32 47.47 46.05 44.1 41.64
3038.715 38.93 36.37 34.22 32.53 31.37 30.68 30.66 31.3 32.38 34.03
3058.009 36.31 38.84 41.27 43.37 45.13 46.55 47.33 47.35 46.66 45.32
3077.302 43.36 40.86 38.03 34.99 31.92 28.87 25.89 23.13 20.54 18.2
3096.596 16.3 14.63 13.23 12.11 11.18 10.46 9.7 8.9 8.14 7.57
3115.889 7.15 6.73 6.31 5.8 5.32 4.93 4.69 4.43 4.17 4.08
3135.182 3.86 3.75 3.76 3.62 3.55 3.53 3.5 3.54 3.55 3.58
3154.476 3.5 3.3 3.26 3.35 3.3 3.19 3.15 3.04 3 2.96
3173.769 2.76 2.5 2.42 2.3497 2.37 2.36 2.202 2.2426 2.3233 2.2378
3193.063 2.1991 2.2254 2.2254 2.2155 2.2187 2.227 2.1927 2.1937 2.1439 2.0705
3212.356 2.153 2.1504 2.167 2.2333 2.134 2.008 1.985 1.87 1.66 1.5825
3231.650 1.4819 1.5535 1.5538 1.457 1.39398 1.3137 1.2808 1.2526 1.227 1.121
3250.943 0.973 0.844 0.777 0.813 0.919 0.898 0.806 0.888 0.869 0.681
3270.236 0.549 0.564 0.612 0.535 0.575 0.656 0.696 0.651 0.486 0.385
3289.530 0.451 0.398 0.21 0.15 0.24 0.26 0.06 0.02 0.28 0.36
3308.823 0.28 0.04 0.05 0.2 0.08 0.17 0.11 0 0.13 0.13
3328.117 0.06 0.13 0.21 0.27 0.29 0.22 0.28 0.34 0.29 0.376
3347.410 0.457 0.34 0.351 0.417 0.34 0.498 0.714 0.734 0.657 0.679
3366.704 0.867 0.96 0.931 1.021 1.214 1.2776 1.39897 1.6405 1.9462 2.1674
3385.997 2.47 3.11 3.65 4.31 5.16 5.85 6.48 7.11 7.84 8.43
3405.290 8.72 8.77 8.65 8.44 8.01 7.3 6.6 5.82 5.1 4.37
3424.584 3.84 3.39 2.9 2.56 2.246 2.1889 2.1107 2.0156 1.958 2.0087
3443.877 2.014 1.8733 1.9887 1.9901 2.0163 2.2352 2.42 2.6 2.97 3.27
3463.171 3.57 4.17 4.83 5.66 6.54 7.37 8.29 9.56 10.88 12.04
3482.464 13.17 14.06 14.77 15.21 15.18 14.92 14.44 13.54 12.53 11.57
3501.758 10.35 9.16 8.08 7.03 6.08 5.25 4.55 3.9 3.38 2.99
3521.051 2.69 2.48 2.36 2.1763 2.0087 1.9244 1.7178 1.5229 1.4948 1.3371
3540.344 1.205 1.187 1.138 1.21 1.3087 1.191 0.971 0.968 0.964 0.868
3559.638 0.886 0.873 0.796 0.802 0.853 0.803 0.852 0.883 0.897 0.863
3578.931 0.72 0.662 0.606 0.611 0.793 0.866 0.74 0.766 0.697 0.655
3598.225 0.721 0.788 0.877 0.798 0.803 0.833 0.75 0.834 0.902 0.821
3617.518 0.847 0.893 0.864 0.913 0.808 0.764 0.8 0.762 0.774 0.749
3636.812 0.729 0.728 0.83 0.831 0.769 0.728 0.656 0.613 0.673 0.784
3656.105 0.765 0.697 0.73 0.733 0.656 0.691 0.687 0.664 0.805 0.849
3675.398 0.745 0.757 0.84 0.873 0.872 0.763 0.737 0.801 0.857 0.902
3694.692 0.855 0.858 0.799 0.824 0.94 0.963 1.016 1.019 0.926 0.845
3713.985 0.897 0.821 0.834 1.064 1.031 0.853 0.866 1.043 1.043 0.935
3733.279 0.898 0.899 0.947 0.959 0.943 0.883 0.757 0.719 0.702 0.718
3752.572 0.797 0.929 0.938 0.753 0.719 0.845 0.853 0.825 0.845 0.74
3771.866 0.754 0.817 0.788 0.754 0.741 0.769 0.842 0.912 0.772 0.638
3791.159 0.704 0.776 0.747 0.818 0.919 0.852 0.77 0.668 0.538 0.576
3810.452 0.745 0.822 0.829 0.772 0.755 0.903 0.921 0.882 0.954 1.02
3829.746 1.014 0.936 0.903 0.927 0.969 0.968 1.017 0.961 0.91 1
3849.039 1.005 1.013 1.065 0.997 0.97 1.034 1.126 1.212 1.245 1.182
3868.333 1.128 1.232 1.35741 1.37761 1.36862 1.46 1.5151 1.4568 1.42124 1.5263
3887.626 1.5358 1.5111 1.5097 1.5181 1.6022 1.5404 1.42805 1.3414 1.4092 1.4554
3906.920 1.40767 1.4075 1.36603 1.2755 1.3362 1.4147 1.3812 1.3222 1.34525 1.4642
3926.213 1.43987 1.39606 1.4181 1.4929 1.4695 1.36147 1.3595 1.39551 1.43267 1.39294
3945.506 1.272 1.2607 1.35123 1.4672 1.4657 1.38861 1.327 1.3131 1.37688 1.36223
3964.800 1.38564 1.4957 1.4673 1.41998 1.3341 1.2735 1.34356 1.35657 1.3343 1.38235
3984.093 1.37211 1.37365 1.4209 1.41875 1.4675 1.41843 1.37828 1.4602 1.4557
##END=
