##TITLE=Methyl 2,6-dimethoxy-3-nitrobenzoic acid
##JCAMP-DX=4.24
##DATA TYPE=INFRARED SPECTRUM
##ORIGIN=EPA-IR VAPOR PHASE LIBRARY
##OWNER=SRD/NIST
Collection (C) 2018 copyright by the U.S. Secretary of Commerce
on behalf of the United States of America. All rights reserved.
##CAS REGISTRY NO=55776-20-0
##MOLFORM=C 10 H 11 N O 6
##$NIST SOURCE=MSDC-IR
##STATE=gas
##XUNITS=1/CM
##YUNITS=ABSORBANCE
##XFACTOR=1.
##YFACTOR=0.001
##DELTAX=1.92898
##FIRSTX=549.8
##LASTX=4000.7
##FIRSTY=3.62
##MAXX=4000.7
##MINX=549.759
##MAXY=0.25439
##MINY=0
##NPOINTS=1790
##XYDATA=(X++(Y..Y))
549.759 3.62 4.23 4.14 3.86 4.24 4.7 4.79 5 5.44 5.62
569.049 4.99 4.42 4.16 4.04 3.79 3.06 3.22 4.01 4.54 4.37
588.339 4.33 4.16 4.82 5.51 5.45 5.6 5.56 5.92 6.2 6.38
607.628 6.71 6.98 7.09 7.34 7.7 8.07 8.61 9.28 9.88 11.01
626.918 12.11 12.83 14.39 16.41 17.65 19.43 21.11 22.19 23.84 25.06
646.208 25.82 26.68 26.76 26.34 26.09 24.73 23.52 22.61 21.39 20.19
665.498 19.36 18.31 17.26 16.77 16.02 15.13 14.02 12.78 12.05 12.01
684.787 11.16 9.83 9.34 9.13 8.85 8.63 8.45 8.25 7.85 7.71
704.077 7.92 8.37 8.52 8.39 8.58 8.95 9.4 9.96 11.04 12.21
723.367 13.39 14.3 14.85 15.23 15.59 15.83 15.32 14.2 13.12 12.01
742.657 10.96 9.95 9.25 9.08 8.89 8.41 8.3 8.7 8.64 8.96
761.947 9.41 9.37 9.46 9.66 9.71 10.03 9.94 9.22 9.09 8.98
781.236 8.59 9.07 9.26 8.9 9.23 9.94 10.23 10.36 10.83 11.14
800.526 12.31 14.04 16.21 18.9 22.24 26.2 30.05 33.7 36.16 36.97
819.816 35 31.81 27.92 23.13 20 16.66 13.42 10.89 8.96 7.93
839.106 6.89 6.07 5.36 5.06 5.09 5.09 5.29 5.78 5.5 5.4
858.395 6.28 6.46 7.15 8.42 9.27 10.65 12.03 13.14 14.88 16.11
877.685 16.32 16.19 15.24 13.89 12.2 10.26 9.14 8.66 7.43 6.54
896.975 6.19 5.85 5.95 6.13 6.26 6.55 7 7.57 8.48 9.25
916.265 10.34 12.42 14.46 16.04 17.42 18.38 18.98 18.34 16.87 15.32
935.555 13.65 11.97 10.36 8.94 7.79 7.77 7.62 6.96 6.87 6.8
954.844 6.83 7.24 7.51 8.13 8.93 9.55 10.16 10.97 12.07 13.32
974.134 14.97 16.57 17.92 19.42 20.61 21.39 21.96 21.86 21.33 20.22
993.424 18.97 18.18 17.98 18.72 19.51 20.29 21.91 23.67 24.76 25.71
1012.714 26.57 26.36 25.67 24.41 23 21.73 20.03 19.11 18.04 16.36
1032.003 15.72 15.03 14.53 15.03 15.17 15.24 15.12 15.85 16.45 17.72
1051.293 20.07 21.4 22.93 25.31 28.67 31.49 33.99 38.47 43.91 49.54
1070.583 55.77 62.9 70.66 78.57 87.05 96.46 105.4 115.06 125.98 136.8
1089.873 146.84 155.71 164.29 170.08 171.86 173.84 174.63 172.02 168.19 163.99
1109.163 160.39 158.85 158.5 160.73 164.98 168.61 171.27 170.28 164.52 154.75
1128.452 141.12 125.7 109.26 91.57 76.41 63.64 53.57 46.78 41.59 37.35
1147.742 33.55 32.04 30.35 29.22 30.13 29.08 28.16 28.15 27.43 26.93
1167.032 25.21 23.77 23.54 22.45 22.7 23.09 22.01 21.59 22.48 23.34
1186.322 24.71 25.91 25.62 25.16 24.91 25.39 26.37 27 26.67 26.64
1205.611 28.58 31.44 34.45 37.41 41.67 48.24 56.05 65.3 73.22 81.41
1224.901 91.05 100.01 107.29 113.33 118.28 120.83 122.78 124.94 127.44 129.89
1244.191 133.22 137.99 143.75 151.27 159.9 169.02 177.78 183.13 185.8 186.37
1263.481 182.48 176.38 168.31 158.59 150.07 144.07 139.82 138.39 141.21 147.48
1282.771 157.51 170.9 186.57 203.47 220.57 235.99 247.64 254.39 253.88 245.43
1302.060 230.17 209.51 185.93 161.81 138.93 118.64 101.56 87.78 76.74 67.99
1321.350 61.18 55.77 51.63 48.67 46.56 45.29 45.13 46.06 48 51.28
1340.640 55.87 62.21 70.44 79.78 90.02 100.57 109.83 116.43 119.29 117.77
1359.930 111.9 102.18 90.01 77.33 65.53 55.39 47.12 40.67 35.88 32.64
1379.219 30.26 28.46 27.37 26.85 26.66 27.09 28.09 29.56 31.69 34.48
1398.509 38.22 42.92 48.16 53.95 59.67 64.77 68.83 70.81 70.7 68.4
1417.799 64.31 59.24 54.79 51.5 50.06 51.56 55.56 60.99 66.17 69.99
1437.089 72.32 72.21 68.96 63.35 57.51 53.05 49.78 47.55 47 48.4
1456.378 51.63 56.79 63.66 72.2 81.93 92.78 103.61 113.8 122.45 127.81
1475.668 128.43 124.32 116.06 104.89 92.08 78.82 66.67 56.79 49.49 44.78
1494.958 41.79 40.09 39.31 39.01 39.37 40.3 41.75 43.5 45.44 47.73
1514.248 50.15 52.87 56.04 59.61 64.2 69.29 75.02 81.5 88.72 96.4
1533.538 104.33 111.85 117.8 122.51 124.97 124.7 121.75 116.47 109.61 101.69
1552.827 94.56 88.04 82.92 79.24 77.21 76.6 77.38 80.24 84.64 90.99
1572.117 99.47 109.88 123.06 138.15 153.48 168.82 182.89 193.76 200.01 201.81
1591.407 198.58 190.91 180.1 166.95 152.56 137.4 121.92 106.43 91.61 78.24
1610.697 66.42 56.13 47.92 41.24 35.86 32.05 28.9 26.1 23.81 21.87
1629.986 20.26 18.86 17.85 17 16.17 15.58 14.94 14.27 13.83 13.43
1649.276 12.97 12.54 12.26 12.14 11.94 11.76 11.55 11.28 11.05 10.74
1668.566 10.27 10.09 10.03 9.53 9.15 9.13 9.04 8.75 8.72 8.95
1687.856 8.87 8.86 9.31 9.73 10.26 10.69 11.12 12.17 13.33 14.36
1707.146 15.55 17.02 18.44 19.8 20.91 21.7 22.23 22.54 22.8 23.34
1726.435 23.64 24.32 25.86 27.83 30.85 35.3 41.81 51.98 65.57 83.56
1745.725 105.36 130.16 156.11 181.45 201.62 210.38 206.84 195.49 178.71 157.46
1765.015 133.73 109.83 87.78 69.83 54.92 43.6 35.28 29.44 25.85 23.7
1784.305 22.32 21.41 20.8 20.01 19.05 18 16.86 15.68 14.46 13.27
1803.594 12.29 11.44 10.89 10.32 9.65 9.05 8.52 8.02 7.55 7.23
1822.884 6.82 6.28 5.85 5.74 5.6 5.37 5.31 5.21 5 4.84
1842.174 4.8 4.94 4.98 5.05 5.24 5.35 5.35 5.27 5.37 5.52
1861.464 5.57 5.64 5.72 5.79 5.65 5.5 5.63 5.75 5.82 5.85
1880.754 5.68 5.51 5.43 5.32 5.13 5.16 5.08 4.91 4.91 4.93
1900.043 4.96 4.77 4.61 4.69 4.85 4.86 4.79 4.74 4.83 4.9
1919.333 4.93 5 4.91 4.99 5.06 4.98 5.11 5.27 5.25 5.16
1938.623 5.17 5.23 5.24 5.28 5.1 4.98 5 4.96 4.92 4.79
1957.913 4.83 4.85 4.63 4.5 4.42 4.3 4.23 4.16 3.93 3.84
1977.202 3.87 3.71 3.76 3.81 3.71 3.61 3.62 3.69 3.75 3.76
1996.492 3.73 3.78 3.72 3.68 3.73 3.69 3.55 3.52 3.5 3.54
2015.782 3.64 3.58 3.46 3.45 3.5 3.36 3.33 3.23 3.05 3.18
2035.072 3.16 3.16 3.18 3.11 3.11 3.16 3.22 3.08 3.2 3.35
2054.362 3.27 3.31 3.24 3.11 3.25 3.24 3.11 3.36 3.36 3.32
2073.651 3.4 3.35 3.39 3.43 3.52 3.61 3.64 3.74 3.8 3.92
2092.941 3.96 3.91 3.98 3.95 3.97 4.01 4.06 4.18 4.19 4.07
2112.231 4.13 4.05 3.93 3.79 3.63 3.67 3.53 3.45 3.39 3.29
2131.521 3.25 3.12 3.18 3.26 3.08 3.01 3.24 3.2 2.94 2.82
2150.810 2.9 2.78 2.48 2.6 2.83 2.86 2.91 2.98 2.84 2.82
2170.100 3.08 3.14 3 3.05 3.05 3.07 3.2 3.31 3.25 3.06
2189.390 3.11 3.09 2.93 3.11 3.33 3.18 3.12 3.25 3.21 3.16
2208.680 3.24 3.35 3.57 3.68 3.65 3.6 3.55 3.44 3.44 3.33
2227.970 3.36 3.6 3.62 3.6 3.2 3.01 3.06 2.75 2.66 2.73
2247.259 2.64 2.43 2.27 2.41 2.42 2.21 2.17 2.27 2.36 2.37
2266.549 2.19 2.0182 1.9272 2.09 2.2 2.06 2.08 2.22 2.2 2.17
2285.839 2.14 1.8933 2.03 2.3 1.999 1.9235 2.21 2.19 2.22 2.27
2305.129 2.36 2.44 2.42 2.51 2.76 2.84 2.62 2.55 2.65 2.74
2324.418 2.86 2.83 2.75 2.77 2.72 2.62 2.63 2.64 2.7 2.83
2343.708 2.73 2.7 2.82 2.74 2.5 2.55 2.71 2.79 2.67 2.48
2362.998 2.36 2.22 2.23 2.47 2.52 2.52 2.44 2.48 2.74 2.68
2382.288 2.57 2.68 2.76 2.81 2.78 2.66 2.58 2.58 2.63 2.65
2401.578 2.64 2.48 2.35 2.61 2.8 2.6 2.35 2.33 2.43 2.55
2420.867 2.56 2.37 2.41 2.46 2.21 2.03 2.28 2.51 2.37 2.16
2440.157 2.07 2.33 2.52 2.4 2.3 2.2 2.34 2.59 2.54 2.72
2459.447 2.87 2.6 2.41 2.6 2.94 2.97 2.8 2.62 2.7 2.66
2478.737 2.68 2.83 2.55 2.56 2.51 2.52 2.71 2.62 2.71 2.96
2498.026 2.77 2.61 2.82 2.74 2.73 2.87 3.02 3.21 3.21 2.97
2517.316 2.83 3.04 3.11 2.96 3.13 3.15 3.22 3.23 3.41 3.64
2536.606 3.49 3.37 3.38 3.52 3.5 3.58 3.33 3.13 3.38 3.46
2555.896 3.55 3.51 3.33 3.3 3.51 3.52 3.38 3.37 3.35 3.46
2575.186 3.51 3.35 3.21 3.23 3.22 3.14 3.24 3.25 3.07 3.23
2594.475 3.21 3.05 3.13 3.15 3.12 3.1 3.03 2.73 2.32 2.47
2613.765 2.58 2.44 2.57 2.74 2.78 2.71 2.73 2.51 2.21 2.09
2633.055 2.16 2.4 2.48 2.47 2.22 2.05 2.24 2.24 2.12 2.34
2652.345 2.46 2.39 2.33 2.42 2.66 2.74 2.7 2.51 2.36 2.5
2671.634 2.7 2.71 2.53 2.53 2.43 2.39 2.87 2.91 2.73 2.87
2690.924 3.1 3.09 3.15 3.6 3.7 3.45 3.39 3.45 3.31 3.18
2710.214 3.24 3.13 3.02 3.09 3.03 2.9 2.89 3.13 3.02 2.75
2729.504 2.8 2.78 2.75 2.74 2.54 2.46 2.69 2.8 2.81 3.04
2748.794 3.16 2.85 3.01 3.08 2.87 3.16 3.22 3.02 3.04 3.22
2768.083 3.37 3.39 3.29 3.24 2.93 2.71 3.23 3.38 3.35 3.27
2787.373 3.3 3.77 3.71 3.61 3.64 3.7 3.56 3.64 4.07 4.41
2806.663 4.77 4.76 4.62 4.88 5.16 5.56 6.24 6.89 6.91 7.26
2825.953 7.66 8.09 9.31 10.51 11.5 12.68 14.27 16.37 18.51 20.48
2845.242 22.53 24.27 25.27 25.36 25.02 23.99 22.34 20.73 19.11 17.92
2864.532 17.02 15.84 15.55 15.66 15.43 15.09 14.91 15.32 16.04 16.57
2883.822 16.97 17.45 18 18.52 18.96 19.45 19.9 19.86 19.96 20.29
2903.112 20.35 20.38 20.15 19.96 20.29 20.75 20.86 20.76 20.99 21.45
2922.401 21.42 21.13 21.27 21.48 21.92 23.14 24.78 26.49 28.77 31.62
2941.691 35.21 39.79 44.64 49.24 54.53 60.45 66.28 71.71 75.17 75.95
2960.981 74.28 70.58 64.5 56.65 48.68 41.95 36.85 32.71 29.52 27.33
2980.271 25.61 23.79 22.46 21.71 21.41 21.26 21.32 21.75 22.23 22.57
2999.561 23.02 23.84 24.56 25.23 25.59 26.13 27.21 27.89 28.11 28.41
3018.850 28.26 27.12 25.77 24.36 22.64 20.53 18.76 17.7 16.78 16.02
3038.140 15.16 13.96 13.03 12.21 11.41 10.56 9.97 9.91 9.01 8.74
3057.430 8.85 8.58 8.58 8.3 7.79 7.71 7.87 8.04 8.01 7.59
3076.720 7.69 8.02 7.72 7.61 8.25 8.46 8.15 8.09 8.11 7.99
3096.009 7.98 7.94 7.64 7.19 7.12 6.85 5.96 5.47 5.51 5.49
3115.299 5.23 4.67 4.52 4.22 3.46 3.65 3.73 3.42 3.71 3.51
3134.589 3.57 3.71 3.42 3.25 3.04 2.95 2.63 2.41 2.7 2.72
3153.879 2.32 2.46 2.59 2.51 2.93 2.73 2.32 2.48 2.27 2.21
3173.169 2.33 2.48 2.49 2.5 2.56 2.59 2.26 1.9772 2.16 2.26
3192.458 2.51 2.56 2.75 2.84 2.43 2.38 2.22 1.9899 2.1 2.18
3211.748 1.8693 1.6011 2.0123 1.8947 1.7604 2.18 1.7612 1.6831 1.9817 1.8049
3231.038 1.4526 1.1659 1.5044 1.3425 1.4588 1.5328 1.3636 1.39 1.3406 1.2649
3250.328 0.887 1.08618 1.4626 1.575 1.5554 1.3141 0.9596 0.9674 1.3616 1.6273
3269.617 1.6416 1.439 1.2855 1.218 0.916 0.613 0.678 1.2233 1.3952 1.1863
3288.907 1.1577 0.894 0.746 1.04073 1.04771 0.864 0.665 0.812 1.235 1.10454
3308.197 0.838 0.862 0.849 0.687 0.9914 1.2445 1.12676 0.928 1.2356 1.4126
3327.487 0.9701 0.9666 1.1752 1.1226 1.07891 1.4695 1.5039 1.2283 1.2893 1.3424
3346.777 1.4641 1.6556 1.6085 1.08775 1.12429 1.4681 0.877 0.604 0.719 0.909
3366.066 1.1512 1.3285 0.912 0.526 1.06917 1.3439 1.1623 0.879 1.2302 1.6016
3385.356 1.2297 1.07905 1.4683 1.5397 0.834 0.532 1.0083 1.3021 1.4142 1.4887
3404.646 1.2242 1.1826 1.2249 1.10486 0.915 0.706 0.661 0.9789 1.1427 1.05834
3423.936 0.855 0.846 0.913 0.641 0.795 0.596 0.9595 1.4338 1.07257 0.796
3443.225 0.582 1.1326 1.6485 1.5503 1.07128 0.291 0.51 1.2492 1.4767 1.2615
3462.515 1.2334 1.5835 1.6127 1.4415 1.5731 2.24 2.59 2.15 1.9285 2.43
3481.805 2.78 2.58 2.53 2.32 2.59 3.41 3.22 2.9 3.01 2.7
3501.095 2.09 2.4 3.04 2.75 2.34 1.9576 1.6735 1.6952 1.8377 2.34
3520.385 2.41 1.5996 1.2218 1.3594 1.3 1.1561 1.03685 1.05325 0.989 0.806
3539.674 0.914 1.2864 1.2007 0.971 1.5253 1.5901 1.3177 1.1509 0.765 1.1549
3558.964 1.3621 1.1306 0.9926 0.9875 1.04037 1.0548 1.10228 0.894 0.597 0.677
3578.254 0.906 0.9583 1.08038 1.07364 1.3081 1.5308 1.2066 0.735 0.523 0.69
3597.544 0.775 0.668 1.02769 1.2691 1.02857 0.521 0 0.593 1.12154 1.07938
3616.833 1.2563 0.775 0.315 0.579 1.4024 1.7465 1.1364 0.921 1.2973 1.1665
3636.123 0.844 0.9337 1.0016 1.39 0.924 0.641 1.1339 1.03499 0.788 0.801
3655.413 0.82 0.625 0.751 0.774 0.51 0.784 1.4367 1.2829 0.615 0.77
3674.703 0.9465 0.453 0.78 1.07375 0.58 0.634 0.885 0.9784 0.693 0.744
3693.993 1.3049 0.9492 0.751 1.1689 1.11515 0.849 0.708 0.9332 0.9892 0.551
3713.282 0.923 1.2481 0.919 0.9542 0.741 0.456 0.761 0.828 1.06559 1.3175
3732.572 0.915 0.844 0.697 0.86 1.2515 1.2116 0.923 0.741 1.03733 1.2564
3751.862 1.3778 1.05524 0.723 0.687 0.813 1.09166 1.3371 1.02028 1.07838 1.6395
3771.152 1.4909 1.11511 1.2253 1.7637 1.7485 1.05287 0.417 0.525 0.917 0.861
3790.441 0.947 1.12216 1.02597 0.9812 0.908 1.0128 0.886 0.642 0.92 1.06917
3809.731 1.1305 1.4791 1.8787 1.7407 1.4813 1.5136 1.3959 1.4596 1.7934 1.9274
3829.021 1.6998 1.06781 0.514 0.674 1.3109 1.5372 1.1687 1.1524 0.9661 0.886
3848.311 1.3738 1.829 1.6613 1.3091 1.6461 1.881 1.7599 1.5656 1.7343 1.8348
3867.601 1.4715 1.3628 1.0143 1.2352 1.6738 1.1489 1.09321 0.9301 1.277 1.7465
3886.890 1.3709 1.4565 1.7375 1.5136 1.184 1.3481 1.2084 0.9372 1.1823 1.2932
3906.180 1.1673 1.2477 1.2682 1.1349 0.898 1.5085 1.7155 1.3394 1.3287 1.2469
3925.470 1.3664 1.3244 1.1976 1.3911 1.5222 1.2687 1.4229 1.6846 1.7117 1.737
3944.760 1.1326 0.545 1.135 1.4586 1.2494 1.6757 2.19 1.982 1.3395 1.4832
3964.049 2.08 2.0132 2.0001 1.7853 1.3828 1.4647 1.1465 1.2532 1.6193 1.3761
3983.339 1.4078 1.3862 1.3961 1.7634 2.08 2.21 1.7371 1.6424 1.9637 2.06
##END=
