##TITLE=Methanesulphonyl fluoride
##JCAMP-DX=4.24
##DATA TYPE=INFRARED SPECTRUM
##ORIGIN=EPA-IR VAPOR PHASE LIBRARY
##OWNER=SRD/NIST
Collection (C) 2018 copyright by the U.S. Secretary of Commerce
on behalf of the United States of America. All rights reserved.
##CAS REGISTRY NO=558-25-8
##MOLFORM=C H 3 F O 2 S
##$NIST SOURCE=MSDC-IR
##STATE=gas
##XUNITS=1/CM
##YUNITS=ABSORBANCE
##XFACTOR=1.
##YFACTOR=0.001
##DELTAX=1.92934
##FIRSTX=549.9
##LASTX=3999.5
##FIRSTY=64.29
##MAXX=3999.53
##MINX=549.863
##MAXY=0.42685
##MINY=0
##NPOINTS=1789
##XYDATA=(X++(Y..Y))
549.863 64.29 58.39 51.18 42.92 35.17 28.09 21.95 17.12 13.32 10.37
569.156 8.41 7.04 6.19 5.43 4.6977 4.2927 4.1357 4.1235 4.0012 3.8858
588.450 3.91631 3.8041 3.762 3.8012 3.9753 4.0511 3.89639 3.90184 3.98078 4.0963
607.743 4.1756 4.2091 4.4557 4.5748 4.562 4.5626 4.6017 4.791 4.94 5.21
627.037 5.77 6.05 5.84 5.5 5.27 5.27 5.53 5.82 5.93 5.73
646.330 5.41 5.31 5.2 5.11 5.17 5.16 4.97 4.7275 4.5944 4.4776
665.624 4.3759 4.3292 4.2631 4.1547 4.1275 4.0637 4.0961 4.3107 4.585 5
684.917 5.52 6.17 7.05 8.33 9.94 11.98 14.51 17.62 21.37 25.67
704.210 30.57 35.96 41.7 47.54 53.14 58.46 63.36 67.75 72.01 76.63
723.504 82.41 90.16 100.44 112.99 125.77 135.77 139.16 132.46 115.75 93.6
742.797 79.38 81.29 89.6 95.46 97.68 95.86 90.42 82.5 73.65 65.12
762.091 58.19 53.74 52.25 53.85 58.23 65.21 74.53 85.79 97.97 110.2
781.384 122.83 136.35 150.75 165.66 180.73 195.38 208.34 219.82 229.5 238.4
800.678 246.72 252.26 254.17 259.42 273.7 284.93 280.42 255.13 204.88 166.91
819.971 163.22 167.14 163.4 155.12 144.07 129.4 111.99 93.67 75.81 59.6
839.264 45.81 34.56 25.71 19.41 15.05 12.07 10.05 8.63 7.64 6.93
858.558 6.47 6.13 5.91 5.76 5.61 5.49 5.37 5.3 5.32 5.31
877.851 5.29 5.34 5.33 5.37 5.49 5.53 5.51 5.69 5.81 5.81
897.145 5.92 5.98 6.01 6.02 6.08 6.15 6.27 6.37 6.4 6.47
916.438 6.44 6.31 6.3 6.39 6.43 6.5 6.68 6.94 7.2 7.31
935.732 7.47 7.87 8.44 9.15 10.1 11.29 12.68 14.46 16.51 18.99
955.025 22.21 25.98 29.34 31.73 33.85 35.67 36.84 37.55 38.52 40.82
974.318 45.21 52.26 64.6 76.38 65.72 45 37.86 38.73 41.07 42.68
993.612 42 39.41 36.1 32.22 28.14 24.21 20.56 17.27 14.4 12.01
1012.905 10.08 8.61 7.46 6.54 5.83 5.33 4.94 4.6329 4.4198 4.2467
1032.199 4.1232 4.0175 4.0028 3.95983 3.8689 3.89877 3.92476 3.90231 3.8682 3.832
1051.492 3.8328 3.8112 3.765 3.736 3.771 3.777 3.731 3.647 3.565 3.455
1070.786 3.399 3.471 3.434 3.367 3.355 3.303 3.33 3.397 3.38 3.355
1090.079 3.435 3.474 3.551 3.721 3.662 3.595 3.644 3.661 3.74 3.8219
1109.372 3.796 3.8301 3.8551 3.89976 3.96285 3.93867 3.8426 3.742 3.639 3.556
1128.666 3.546 3.478 3.347 3.203 3.209 3.242 3.242 3.056 2.82 2.974
1147.959 3.106 2.937 2.908 3.191 3.425 3.467 3.5 3.723 4.0746 4.5401
1167.253 5.16 6.01 7.15 8.68 10.83 13.44 17.11 22.01 28.08 35.8
1186.546 45.31 56.88 70.3 85.42 101.93 118.51 134.54 149.6 162.86 173.54
1205.840 182.15 190.16 199.01 211.76 231.79 261.98 302.06 338.25 344.34 296.48
1225.133 218.37 174.46 168.22 170.96 177.39 183.43 182.84 173.92 157.86 137.24
1244.426 114.42 91.45 70.46 52.46 37.96 27.03 19.25 14.09 10.71 8.5
1263.720 7.14 6.49 6.13 5.86 5.76 5.69 5.71 5.76 5.85 5.98
1283.013 6.16 6.34 6.57 6.84 6.99 7.14 7.43 7.99 8.66 9.28
1302.307 9.98 10.78 11.64 12.86 14.36 16.04 17.92 19.79 21.69 23.65
1321.600 25.43 27.08 28.44 29.25 30.4 32.5 35.36 40.31 43.56 42.83
1340.894 45.78 48.49 45.47 40.82 35.66 32.11 32.13 33.27 33.47 32.62
1360.187 30.69 27.99 24.98 22.12 19.85 18.41 18.08 19.14 21.62 25.46
1379.480 30.94 37.92 46.43 56.36 67.62 79.65 91.83 103.86 115.35 125.76
1398.774 135.28 144.74 155.21 169.47 189.85 217.26 252.62 296.51 339.82 332.8
1418.067 292.32 283.13 294.85 303.15 312.02 330.71 359.92 395.63 423.91 426.85
1437.361 391.48 335.26 296.78 288.32 302.54 333.71 358.95 313.95 237.49 202.55
1456.654 187.55 175.48 165.48 152.51 136.86 118.35 99.21 80.84 64.32 49.66
1475.948 38.09 28.91 22.08 16.97 13.41 10.97 9.28 8.01 7.06 6.3
1495.241 5.87 5.54 5.25 5.05 4.99 5.09 5.21 5.16 5.22 5.33
1514.534 5.45 5.6 5.71 5.84 5.94 5.96 6.02 6.01 6.01 6.07
1533.828 6.08 5.99 6 6.03 5.97 5.8 5.64 5.49 5.29 5.09
1553.121 4.8422 4.6524 4.6373 4.61 4.4058 4.1748 4.0832 4.0107 3.94363 3.8731
1572.415 3.779 3.724 3.772 3.774 3.739 3.749 3.725 3.764 3.798 3.8286
1591.708 3.8538 3.8247 3.8482 3.95701 3.99022 3.96626 3.934 3.91662 3.97274 3.92634
1611.002 3.91287 3.8801 3.8703 3.8921 3.705 3.56 3.558 3.504 3.413 3.3
1630.295 3.216 3.204 3.172 3.087 3.005 2.918 2.79 2.73 2.76 2.74
1649.588 2.64 2.57 2.56 2.49 2.43 2.41 2.42 2.4 2.38 2.38
1668.882 2.38 2.37 2.35 2.33 2.3 2.31 2.32 2.3 2.33 2.29
1688.175 2.26 2.31 2.32 2.31 2.33 2.32 2.37 2.35 2.27 2.33
1707.469 2.36 2.29 2.27 2.36 2.41 2.37 2.31 2.32 2.35 2.37
1726.762 2.37 2.37 2.39 2.44 2.44 2.42 2.42 2.4 2.45 2.48
1746.056 2.47 2.48 2.5 2.49 2.41 2.42 2.45 2.42 2.41 2.39
1765.349 2.42 2.48 2.46 2.42 2.41 2.41 2.41 2.39 2.34 2.3
1784.642 2.26 2.2 2.18 2.19 2.2 2.18 2.15 2.11 2.1 2.13
1803.936 2.13 2.11 2.11 2.13 2.12 2.09 2.09 2.1 2.09 2.13
1823.229 2.19 2.18 2.2 2.25 2.26 2.25 2.28 2.3 2.29 2.3
1842.523 2.35 2.39 2.39 2.41 2.43 2.45 2.49 2.52 2.55 2.56
1861.816 2.61 2.64 2.67 2.67 2.66 2.67 2.7 2.75 2.77 2.74
1881.110 2.6 2.47 2.48 2.54 2.55 2.55 2.52 2.49 2.39 2.34
1900.403 2.36 2.31 2.27 2.26 2.26 2.26 2.23 2.19 2.25 2.28
1919.696 2.24 2.3 2.36 2.37 2.4 2.43 2.45 2.49 2.51 2.5
1938.990 2.5 2.54 2.58 2.57 2.61 2.63 2.6 2.62 2.64 2.66
1958.283 2.65 2.59 2.56 2.52 2.49 2.48 2.47 2.49 2.46 2.42
1977.577 2.38 2.35 2.26 2.22 2.24 2.23 2.21 2.17 2.16 2.17
1996.870 2.18 2.19 2.21 2.21 2.19 2.17 2.2 2.2 2.19 2.19
2016.164 2.24 2.28 2.29 2.27 2.26 2.28 2.32 2.4 2.44 2.46
2035.457 2.52 2.57 2.64 2.72 2.77 2.8 2.85 2.915 2.969 3.055
2054.750 3.08 3.115 3.185 3.237 3.293 3.357 3.411 3.44 3.464 3.472
2074.044 3.489 3.456 3.319 3.242 3.213 3.099 2.979 2.961 2.971 2.934
2093.337 2.84 2.71 2.58 2.47 2.44 2.42 2.38 2.33 2.32 2.32
2112.631 2.32 2.36 2.44 2.49 2.5 2.54 2.58 2.62 2.62 2.64
2131.924 2.69 2.75 2.83 2.87 2.928 2.982 2.994 2.999 3.029 3.076
2151.218 3.124 3.189 3.182 3.123 3.105 3.12 3.089 3.057 3.063 3.074
2170.511 3.079 2.992 2.947 2.932 2.912 2.914 2.903 2.86 2.8 2.82
2189.804 2.77 2.68 2.66 2.67 2.68 2.67 2.6 2.52 2.5 2.47
2209.098 2.43 2.38 2.35 2.36 2.37 2.37 2.35 2.3 2.32 2.33
2228.391 2.31 2.29 2.28 2.28 2.24 2.22 2.25 2.25 2.27 2.28
2247.685 2.26 2.24 2.21 2.18 2.2 2.21 2.2 2.24 2.27 2.28
2266.978 2.29 2.29 2.29 2.26 2.31 2.4 2.38 2.38 2.46 2.49
2286.272 2.52 2.58 2.66 2.74 2.81 2.901 2.963 3.048 3.116 3.213
2305.565 3.37 3.436 3.395 3.4 3.397 3.411 3.397 3.311 3.257 3.194
2324.858 3.153 3.084 2.952 2.85 2.86 2.81 2.67 2.59 2.51 2.42
2344.152 2.37 2.34 2.31 2.29 2.3 2.33 2.33 2.34 2.37 2.36
2363.445 2.43 2.51 2.53 2.59 2.61 2.63 2.68 2.66 2.67 2.7
2382.739 2.75 2.82 2.945 3.03 3.079 3.071 3.003 2.996 3.028 3.035
2402.032 3.036 3.087 3.115 3.14 3.184 3.206 3.19 3.175 3.154 3.17
2421.326 3.201 3.206 3.169 3.143 3.176 3.21 3.198 3.185 3.146 3.114
2440.619 3.067 2.908 2.81 2.8 2.77 2.7 2.65 2.59 2.54 2.49
2459.912 2.37 2.28 2.21 2.13 2.09 2.07 1.99 1.91 1.89 1.9
2479.206 1.91 1.9 1.86 1.83 1.86 1.87 1.88 1.88 1.9 1.9
2498.499 1.85 1.86 1.86 1.83 1.88 1.92 1.88 1.86 1.88 1.87
2517.793 1.85 1.88 1.89 1.81 1.8 1.84 1.88 1.9 1.88 1.92
2537.086 1.94 1.89 1.92 1.97 1.91 1.89 1.86 1.78 1.81 1.87
2556.380 1.89 1.91 1.9 1.84 1.84 1.91 1.96 1.95 1.94 1.92
2575.673 1.89 1.9 1.94 1.98 2.03 2.12 2.15 2.15 2.17 2.17
2594.966 2.23 2.37 2.47 2.52 2.59 2.7 2.8 2.9 2.982 3.152
2614.260 3.345 3.418 3.5 3.61 3.766 3.9128 4.0412 4.1936 4.2909 4.4827
2633.553 4.7331 4.839 4.7906 4.6987 4.7017 4.7283 4.7218 4.7519 4.7495 4.7018
2652.847 4.6776 4.5307 4.3008 4.1585 4.0174 3.89929 3.8473 3.747 3.57 3.366
2672.140 3.137 2.87 2.71 2.58 2.46 2.37 2.23 2.14 2 1.89
2691.434 1.83 1.74 1.71 1.68 1.66 1.62 1.53 1.53 1.62 1.6
2710.727 1.53 1.52 1.48 1.46 1.45 1.4 1.44 1.45 1.45 1.46
2730.020 1.4 1.31 1.37 1.49 1.52 1.45 1.35 1.34 1.41 1.35
2749.314 1.21 1.33 1.41 1.32 1.33 1.35 1.34 1.3 1.24 1.29
2768.607 1.32 1.32 1.31 1.3 1.28 1.29 1.29 1.23 1.21 1.2
2787.901 1.07 0.94 0.99 1.04 1 1.03 1.07 1.06 1.03 0.97
2807.194 0.93 0.99 1.05 0.98 0.92 0.94 0.98 1.1 1.13 1.07
2826.488 1.08 1.11 1.12 1.1 1.18 1.22 1.16 1.15 1.11 1.14
2845.781 1.22 1.17 1.25 1.32 1.27 1.3 1.3 1.18 1.07 1.03
2865.074 1.02 1.11 1.24 1.25 1.08 1 1.02 1.03 0.99 0.92
2884.368 1 1.04 0.94 0.88 0.8 0.8 0.85 0.75 0.62 0.62
2903.661 0.74 0.76 0.74 0.73 0.57 0.6 0.68 0.67 0.68 0.67
2922.955 0.77 0.78 0.66 0.64 0.65 0.54 0.64 0.88 0.79 0.69
2942.248 0.75 0.69 0.55 0.56 0.68 0.68 0.69 0.64 0.69 0.77
2961.542 0.69 0.66 0.65 0.64 0.59 0.58 0.51 0.63 0.78 0.66
2980.835 0.62 0.61 0.58 0.53 0.54 0.66 0.66 0.69 0.72 0.58
3000.128 0.57 0.66 0.61 0.53 0.62 0.7 0.73 0.75 0.79 0.86
3019.422 0.83 0.78 0.9 0.95 0.85 0.76 0.79 0.91 1.14 1.5
3038.715 1.44 1.05 0.9 0.94 1.05 1.02 0.82 0.84 0.9 0.73
3058.009 0.6 0.51 0.61 0.59 0.45 0.46 0.41 0.31 0.34 0.35
3077.302 0.39 0.39 0.41 0.42 0.22 0.19 0.28 0.28 0.33 0.31
3096.596 0.31 0.29 0.3 0.33 0.25 0.26 0.25 0.07 0.04 0.23
3115.889 0.27 0.3 0.36 0.34 0.28 0.18 0 0.08 0.12 0.18
3135.182 0.46 0.43 0.27 0.26 0.25 0.21 0.24 0.19 0.08 0.04
3154.476 0.06 0.31 0.41 0.29 0.3 0.29 0.18 0.12 0.13 0.09
3173.769 0.12 0.23 0.24 0.18 0.26 0.25 0.17 0.38 0.44 0.37
3193.063 0.35 0.33 0.33 0.26 0.23 0.18 0.24 0.36 0.36 0.4
3212.356 0.45 0.39 0.4 0.38 0.34 0.48 0.46 0.44 0.5 0.36
3231.650 0.29 0.37 0.31 0.29 0.37 0.41 0.58 0.64 0.6 0.51
3250.943 0.5 0.42 0.41 0.54 0.64 0.58 0.52 0.7 0.63 0.66
3270.236 0.68 0.54 0.61 0.6 0.68 0.72 0.65 0.68 0.67 0.73
3289.530 0.77 0.56 0.48 0.55 0.54 0.42 0.35 0.5 0.68 0.65
3308.823 0.52 0.64 0.68 0.62 0.57 0.55 0.66 0.74 0.74 0.71
3328.117 0.59 0.58 0.72 0.74 0.78 0.72 0.77 0.93 0.88 0.86
3347.410 0.9 0.73 0.68 0.88 0.98 0.95 0.94 0.99 0.83 0.82
3366.704 0.93 0.92 1.12 1.1 0.8 0.87 1.17 1.01 0.91 1.11
3385.997 0.94 1 1.09 0.93 0.97 1.03 0.96 0.9 0.96 0.93
3405.290 0.98 1.08 1.06 1.11 1.16 1.03 1.01 1.16 1.07 1.08
3424.584 1.12 0.94 0.95 1.05 1.08 1.1 1.15 1.08 1.02 1.12
3443.877 1.11 1.04 1.07 0.99 1.09 1.24 1.14 1.2 1.2 1.09
3463.171 1.09 1.19 1.36 1.33 1.29 1.43 1.41 1.29 1.14 1.1
3482.464 1.23 1.21 1.22 1.33 1.29 1.2 1.25 1.33 1.25 1.24
3501.758 1.38 1.46 1.34 1.37 1.4 1.39 1.33 1.25 1.38 1.49
3521.051 1.49 1.38 1.4 1.47 1.47 1.49 1.56 1.54 1.44 1.42
3540.344 1.5 1.66 1.77 1.81 1.74 1.71 1.72 1.69 1.65 1.68
3559.638 1.84 1.77 1.66 1.79 1.73 1.47 1.48 1.66 1.81 1.82
3578.931 1.71 1.78 1.92 1.92 1.85 1.81 1.75 1.71 1.77 1.77
3598.225 1.85 1.93 1.88 1.83 1.82 1.89 1.87 1.82 1.91 1.91
3617.518 1.82 1.8 1.87 1.89 1.86 1.86 1.98 1.9 1.76 1.84
3636.812 1.93 1.89 1.77 1.78 1.84 1.9 1.96 1.9 1.9 2.03
3656.105 1.93 1.85 1.93 1.89 1.95 2.09 2.06 2.02 2.08 2.01
3675.398 2.03 2.17 2.02 1.89 1.98 2.07 2.14 2.09 2.05 2
3694.692 1.92 1.99 1.96 1.89 1.93 1.94 2.08 2.17 2.06 2.01
3713.985 2.02 2.01 1.95 1.97 2.1 2.1 2.03 1.99 2.1 2.15
3733.279 2.07 2.12 2.1 2.08 2.17 2.26 2.26 2.16 2.21 2.32
3752.572 2.25 2.22 2.25 2.2 2.17 2.25 2.32 2.27 2.24 2.3
3771.866 2.34 2.23 2.16 2.22 2.24 2.22 2.23 2.28 2.33 2.3
3791.159 2.3 2.33 2.32 2.28 2.17 2.17 2.14 2.08 2.21 2.26
3810.452 2.19 2.2 2.22 2.38 2.47 2.47 2.51 2.42 2.41 2.38
3829.746 2.33 2.47 2.54 2.53 2.51 2.52 2.57 2.49 2.5 2.65
3849.039 2.7 2.69 2.67 2.66 2.64 2.59 2.48 2.49 2.6 2.58
3868.333 2.45 2.44 2.38 2.31 2.31 2.27 2.28 2.34 2.36 2.31
3887.626 2.3 2.37 2.36 2.21 2.29 2.4 2.35 2.25 2.29 2.44
3906.920 2.54 2.52 2.47 2.47 2.55 2.64 2.62 2.64 2.75 2.84
3926.213 2.88 2.89 2.919 2.83 2.7 2.71 2.72 2.72 2.78 2.72
3945.506 2.67 2.67 2.57 2.47 2.44 2.49 2.42 2.21 2.13 2.3
3964.800 2.38 2.29 2.21 2.24 2.42 2.54 2.54 2.55 2.66 2.83
3984.093 2.9 2.82 2.87 3.036 3.058 3.016 3.005 2.966 2.981
##END=
