##TITLE=Flophemesylamine
##JCAMP-DX=4.24
##DATA TYPE=INFRARED SPECTRUM
##ORIGIN=EPA-IR VAPOR PHASE LIBRARY
##OWNER=SRD/NIST
Collection (C) 2018 copyright by the U.S. Secretary of Commerce
on behalf of the United States of America. All rights reserved.
##CAS REGISTRY NO=55804-98-3
##MOLFORM=C 8 H 8 F 5 N Si
##$NIST SOURCE=MSDC-IR
##STATE=gas
##XUNITS=1/CM
##YUNITS=ABSORBANCE
##XFACTOR=1.
##YFACTOR=0.001
##DELTAX=1.92898
##FIRSTX=549.8
##LASTX=4000.7
##FIRSTY=6.869
##MAXX=4000.7
##MINX=549.759
##MAXY=0.416119
##MINY=0
##NPOINTS=1790
##XYDATA=(X++(Y..Y))
549.759 6.869 6.829 6.759 6.619 7.009 6.729 6.859 7.319 6.859 6.759
569.049 6.899 6.729 6.519 6.949 7.509 7.379 7.269 7.459 7.319 7.569
588.339 7.609 7.139 7.379 7.509 7.409 7.729 7.809 7.729 8.119 8.719
607.628 8.849 8.879 8.899 9.329 10.099 10.329 10.469 10.989 11.709 12.099
626.918 11.659 11.519 12.609 13.669 15.069 16.739 18.689 22.209 26.709 31.909
646.208 38.219 44.939 50.189 53.029 53.129 50.609 45.689 38.929 32.349 27.019
665.498 22.949 20.199 18.499 16.749 15.679 15.259 14.569 14.339 14.359 14.319
684.787 14.319 14.399 14.539 15.179 15.799 15.749 15.979 16.569 16.799 17.019
704.077 17.509 18.319 18.879 19.109 19.739 20.359 20.789 21.249 21.829 22.559
723.367 23.459 24.529 25.599 26.049 26.609 27.639 28.349 29.049 29.539 29.509
742.657 29.529 29.549 29.159 28.789 28.719 28.919 28.849 28.569 28.829 29.109
761.947 29.419 29.829 30.929 32.399 33.669 35.719 37.699 39.199 40.859 42.649
781.236 44.209 45.699 47.139 48.729 50.409 52.129 54.229 57.039 61.029 66.439
800.526 72.029 76.739 80.729 82.659 82.679 80.149 75.479 69.399 62.379 55.899
819.816 50.319 45.399 41.359 38.749 37.029 36.279 36.899 38.569 40.759 43.869
839.106 48.239 53.099 57.879 62.059 66.049 69.929 72.969 75.259 77.029 78.999
858.395 80.979 82.379 84.269 86.889 90.609 95.389 100.359 106.229 112.579 118.889
877.685 125.689 132.679 137.949 141.509 143.179 141.909 137.909 131.389 122.779 112.559
896.975 101.719 91.029 80.369 70.519 62.399 55.419 49.049 43.869 39.669 35.949
916.265 32.869 30.329 28.209 26.489 24.979 23.909 22.859 21.859 21.179 20.719
935.555 20.389 20.279 20.569 21.459 23.479 26.269 29.679 34.519 41.379 50.199
954.844 61.089 74.609 90.999 109.979 130.329 150.269 167.229 177.549 180.229 176.559
974.134 166.799 150.639 128.699 104.259 81.939 63.399 48.499 37.379 29.889 24.579
993.424 20.549 18.149 16.989 16.619 16.529 16.849 18.049 19.049 19.719 20.519
1012.714 20.759 20.259 19.729 19.039 17.649 16.389 15.079 13.829 13.129 12.509
1032.003 12.039 12.289 12.569 12.639 13.329 14.749 15.679 16.079 16.739 16.899
1051.293 16.399 16.139 16.649 16.939 17.799 20.159 23.729 29.639 38.559 49.419
1070.583 64.059 83.209 107.039 137.489 173.659 212.919 250.359 279.099 293.849 292.989
1089.873 274.749 240.019 196.109 149.529 109.279 80.709 62.839 52.889 47.339 43.209
1109.163 39.389 36.459 33.739 31.069 27.179 23.329 20.919 18.649 16.569 15.779
1128.452 15.369 14.779 14.069 13.079 12.269 11.789 10.469 9.489 8.389 6.889
1147.742 6.649 5.979 5.799 5.929 5.309 4.979 4.949 4.699 4.149 4.099
1167.032 4.219 4.099 4.299 4.409 4.319 4.509 4.569 4.249 4.189 4.509
1186.322 5.119 4.589 3.559 3.799 4.299 4.239 4.189 3.789 3.639 3.739
1205.611 3.599 3.559 3.769 5.059 4.999 4.009 3.769 4.379 5.369 5.619
1224.901 5.839 6.199 7.079 8.839 10.769 11.809 13.309 14.839 16.249 18.709
1244.191 21.509 24.459 27.979 31.789 36.159 41.239 46.619 52.679 58.569 63.639
1263.481 66.759 67.379 66.769 64.339 61.109 58.829 57.969 59.169 62.579 68.199
1282.771 74.439 77.749 76.949 72.399 64.139 53.159 41.209 29.979 20.799 15.089
1302.060 12.099 10.289 9.179 8.519 7.939 7.419 7.109 6.759 6.389 6.169
1321.350 6.039 5.819 5.569 5.359 5.369 5.429 5.429 5.519 5.789 6.029
1340.640 6.289 6.609 6.919 7.569 8.449 9.409 10.529 12.099 14.429 17.289
1359.930 20.659 24.599 29.049 33.399 37.019 39.569 40.729 40.459 39.039 36.649
1379.219 33.639 30.699 28.209 26.309 24.869 23.609 22.449 21.329 20.329 19.719
1398.509 19.629 19.799 20.019 20.389 20.909 21.329 21.659 21.989 22.169 22.369
1417.799 22.699 23.009 23.729 24.879 26.519 29.019 32.779 38.059 45.649 56.169
1437.089 70.979 90.329 115.229 146.629 184.379 227.129 273.099 318.179 358.199 388.799
1456.378 408.179 416.119 411.419 393.209 363.219 325.879 285.339 244.799 205.979 169.589
1475.668 137.019 107.969 83.809 64.829 51.449 42.879 38.089 36.069 36.619 39.369
1494.958 44.429 52.329 63.369 77.959 96.419 118.219 142.799 166.689 186.049 198.209
1514.248 200.449 192.209 174.349 150.269 122.299 96.049 73.839 57.339 46.639 40.229
1533.538 36.619 34.779 34.379 34.829 35.389 36.159 37.219 38.419 39.339 39.729
1552.827 39.919 39.819 39.149 38.019 36.529 34.989 33.409 31.859 30.509 29.219
1572.117 28.169 27.239 26.389 25.519 24.449 23.079 21.629 20.289 18.879 17.579
1591.407 16.569 15.919 15.459 15.349 15.709 15.889 16.229 16.959 17.799 18.639
1610.697 19.509 20.459 21.419 22.729 24.269 26.179 28.899 32.759 37.679 43.629
1629.986 50.349 57.389 63.489 67.489 68.839 66.989 62.149 55.259 46.929 38.349
1649.276 30.869 25.099 20.669 17.139 14.499 12.629 11.239 10.059 9.149 8.549
1668.566 8.079 7.559 7.049 6.619 6.039 5.559 5.259 4.949 4.809 4.689
1687.856 4.539 4.509 4.309 4.059 3.779 3.539 3.519 3.369 3.179 3.179
1707.146 3.179 3.239 3.469 3.699 3.839 3.759 3.569 3.469 3.379 3.129
1726.435 2.869 2.659 2.579 2.599 2.519 2.379 2.379 2.289 1.959 1.979
1745.725 2.189 2.029 1.869 1.839 1.759 1.629 1.569 1.569 1.509 1.499
1765.015 1.429 1.479 1.549 1.679 1.839 1.899 1.959 1.959 1.949 1.949
1784.305 1.899 1.739 1.659 1.609 1.409 1.339 1.309 1.1634 1.1076 1.0472
1803.594 0.9705 0.9686 0.9608 1.0034 1.0552 0.9641 0.9415 1.0067 1.0649 1.199
1822.884 1.299 1.349 1.419 1.469 1.559 1.649 1.629 1.589 1.579 1.529
1842.174 1.479 1.309 1.1732 1.1819 1.1444 1.1115 1.1535 1.1474 1.0669 1.1139
1861.464 1.1735 1.209 1.259 1.199 1.239 1.319 1.249 1.299 1.339 1.249
1880.754 1.199 1.209 1.259 1.309 1.259 1.199 1.219 1.309 1.399 1.409
1900.043 1.469 1.569 1.589 1.639 1.759 1.719 1.699 1.749 1.649 1.639
1919.333 1.669 1.639 1.649 1.529 1.389 1.379 1.439 1.519 1.489 1.459
1938.623 1.479 1.409 1.529 1.569 1.519 1.519 1.479 1.519 1.589 1.509
1957.913 1.339 1.349 1.359 1.329 1.289 1.219 1.1218 1.0766 1.0401 1.0311
1977.202 1.0216 0.862 0.9772 1.168 1.06 0.9424 0.9919 1.0766 1.0538 1.1042
1996.492 1.1422 1.1822 1.209 1.1839 1.199 1.1484 1.1753 1.199 1.209 1.189
2015.782 1.1049 1.0957 1.1277 1.0994 1.0329 1.0568 1.146 1.219 1.289 1.339
2035.072 1.349 1.399 1.399 1.369 1.359 1.249 1.279 1.339 1.259 1.1146
2054.362 1.0621 1.0379 0.9472 0.9791 1.0324 0.9187 0.9004 0.8977 0.848 0.9052
2073.651 0.827 0.7116 0.809 0.9437 0.9241 0.9781 1.1596 1.0919 1.0137 1.044
2092.941 1.1112 1.249 1.319 1.329 1.369 1.399 1.349 1.199 1.0483 0.908
2112.231 0.8878 0.8664 0.8465 0.8411 0.7328 0.7318 0.7331 0.6807 0.7315 0.8671
2131.521 0.8746 0.8269 0.7722 0.7533 0.707 0.6557 0.6282 0.5944 0.5981 0.5196
2150.810 0.6108 0.6895 0.6716 0.7799 0.9136 1.0201 0.9892 0.9384 0.8967 0.802
2170.100 0.7913 0.8359 0.8447 0.8239 0.8093 0.8901 0.874 0.7763 0.793 0.8317
2189.390 0.7873 0.7412 0.8204 0.8453 0.85 0.873 0.9316 0.9471 0.9346 1.074
2208.680 1.1274 1.1369 1.1673 1.289 1.439 1.329 1.1658 1.1017 1.1087 1.1272
2227.970 1.0004 0.8295 0.7036 0.7076 0.767 0.7741 0.6352 0.5612 0.6112 0.6265
2247.259 0.5461 0.5275 0.5656 0.5556 0.5589 0.4591 0.4396 0.4682 0.5411 0.61
2266.549 0.6251 0.6368 0.601 0.5983 0.5293 0.5705 0.5679 0.4963 0.543 0.5385
2285.839 0.5959 0.4687 0.3396 0.4572 0.6041 0.7254 0.7221 0.6667 0.6321 0.7369
2305.129 0.8869 0.987 1.0194 1.0662 1.239 1.309 1.299 1.369 1.479 1.659
2324.418 1.809 1.839 1.929 2.089 2.209 2.219 2.249 2.229 2.069 1.989
2343.708 1.829 1.669 1.629 1.579 1.559 1.439 1.429 1.429 1.319 1.429
2362.998 1.559 1.569 1.599 1.739 1.939 1.869 1.729 1.669 1.699 1.619
2382.288 1.399 1.429 1.409 1.339 1.319 1.229 1.229 1.319 1.339 1.369
2401.578 1.469 1.589 1.599 1.569 1.609 1.719 1.939 1.989 1.959 1.919
2420.867 2.029 2.039 1.809 1.759 1.649 1.429 1.219 1.1109 1.0773 1.092
2440.157 1.0595 0.8466 0.7569 0.8471 1.0076 1.1505 1.0904 0.8643 0.8142 0.8782
2459.447 0.8823 0.8316 0.776 0.9198 0.9903 1.0309 1.1255 1.0697 0.9513 1.0345
2478.737 1.189 1.249 1.219 1.279 1.399 1.349 1.319 1.319 1.259 1.309
2498.026 1.419 1.359 1.259 1.239 1.309 1.279 1.289 1.379 1.209 1.0905
2517.316 1.0701 1.1421 1.0739 0.8615 0.9334 1.0281 1.0183 1.189 1.389 1.299
2536.606 1.269 1.389 1.329 1.319 1.339 1.379 1.299 1.369 1.429 1.399
2555.896 1.489 1.449 1.519 1.539 1.559 1.729 1.739 1.669 1.789 1.949
2575.186 2.069 2.079 2.169 2.309 2.309 2.359 2.439 2.509 2.599 2.619
2594.475 2.529 2.479 2.399 2.309 2.299 2.059 1.989 1.969 1.729 1.579
2613.765 1.379 1.279 1.359 1.299 1.189 1.189 1.219 1.1829 1.139 1.279
2633.055 1.359 1.289 1.1794 1.229 1.229 1.1886 1.299 1.339 1.379 1.339
2652.345 1.1509 1.0528 0.9332 0.9219 0.8599 0.7676 0.6738 0.5739 0.6683 0.5931
2671.634 0.3843 0.3608 0.4778 0.4579 0.4867 0.3835 0.3252 0.4221 0.5255 0.6418
2690.924 0.5007 0.3487 0.3946 0.5354 0.5499 0.5695 0.6459 0.6659 0.6874 0.6261
2710.214 0.6044 0.6525 0.6763 0.8952 0.9981 0.8126 0.9071 0.9933 0.9665 0.9864
2729.504 0.9228 0.9359 0.9182 0.8913 0.8438 0.7936 0.8951 1.0794 1.1032 0.8922
2748.794 0.7254 0.8349 0.9421 0.8096 0.7301 0.7927 0.8287 0.6814 0.686 0.834
2768.083 0.8305 0.9317 0.8162 0.7257 0.9665 1.0344 0.9179 0.882 0.892 1.0084
2787.373 1.1501 1.209 1.1777 1.0959 1.349 1.539 1.509 1.599 1.659 1.699
2806.663 1.679 1.729 1.809 1.719 1.659 1.729 1.849 1.689 1.719 1.919
2825.953 1.729 1.519 1.589 1.639 1.629 1.669 1.839 1.999 1.839 1.659
2845.242 1.829 1.949 1.929 1.949 1.869 1.909 1.989 1.949 2.029 2.309
2864.532 2.439 2.429 2.619 2.949 2.959 2.909 3.099 3.369 3.589 3.619
2883.822 3.619 3.649 3.939 4.479 4.739 5.079 5.599 6.149 6.689 7.089
2903.112 7.729 8.429 9.019 9.149 8.989 8.869 8.469 7.869 7.189 6.699
2922.401 6.309 5.629 5.069 4.759 4.599 4.479 4.369 4.389 4.479 4.899
2941.691 5.239 5.669 6.379 6.909 7.989 9.209 10.119 11.349 13.239 15.329
2960.981 17.209 18.749 20.179 21.309 21.759 21.449 20.369 19.119 17.719 16.229
2980.271 14.779 13.519 12.609 11.589 10.549 9.559 8.509 7.659 6.929 6.189
2999.561 5.459 4.849 4.329 3.879 3.709 3.599 3.279 3.029 2.839 2.919
3018.850 2.949 2.679 2.509 2.369 2.199 2.129 2.189 2.199 2.239 2.219
3038.140 2.149 2.029 1.969 1.749 1.589 1.829 2.019 2.039 2.049 2.179
3057.430 2.289 2.179 2.149 2.159 2.189 2.199 2.099 2.279 2.549 2.579
3076.720 2.519 2.569 2.609 2.549 2.509 2.409 2.399 2.419 2.419 2.269
3096.009 2.159 2.159 2.029 2.149 2.299 2.259 1.939 1.679 1.779 1.829
3115.299 1.879 1.759 1.699 1.909 1.859 1.789 1.699 1.509 1.479 1.499
3134.589 1.399 1.459 1.479 1.349 1.369 1.279 1.0207 1.0668 1.099 1.1169
3153.879 1.209 1.0538 0.7694 0.4293 0.5443 0.8662 0.9503 0.9288 0.6892 0.4823
3173.169 0.493 0.6574 0.646 0.5543 0.5279 0.5762 0.8222 0.7338 0.5427 0.5882
3192.458 0.5478 0.568 0.5659 0.4748 0.6002 0.7564 0.5042 0.5774 0.656 0.3169
3211.748 0.3018 0.4676 0.5372 0.6594 0.6252 0.3463 0.4623 0.6141 0.6054 0.63
3231.038 0.7115 0.844 0.7055 0.6511 0.7727 0.8937 0.8405 0.6711 0.6478 0.7486
3250.328 0.6288 0.5359 0.4055 0.1339 0.1785 0.2821 0.6279 0.8577 0.6356 0.5355
3269.617 0.7056 0.6995 0.5321 0.555 0.7617 0.7629 0.5766 0.5212 0.506 0.5918
3288.907 0.4768 0.3712 0.5751 0.6771 0.551 0.329 0.4117 0.3917 0.21975 0.27248
3308.197 0.4237 0.5733 0.5997 0.6388 0.5544 0.4238 0.6678 0.8785 0.7259 0.7791
3327.487 0.9611 1.0229 0.992 1.1034 1.0075 0.8714 1.0177 1.1642 1.259 1.1639
3346.777 1.0327 0.9222 1.0879 1.389 1.309 1.0461 1.0571 1.1152 1.209 1.249
3366.066 1.349 1.419 1.539 1.769 1.839 2.049 1.999 2.029 2.059 1.939
3385.356 2.399 2.799 2.909 3.169 3.599 4.109 4.469 4.799 5.469 6.329
3404.646 6.959 7.949 9.209 10.289 11.519 12.799 14.289 15.709 16.639 17.169
3423.936 17.219 16.699 15.649 14.439 13.029 11.349 9.629 8.159 7.059 6.069
3443.225 5.209 4.549 3.999 3.469 3.159 3.099 2.729 2.489 2.569 2.709
3462.515 2.679 2.449 2.489 2.629 2.889 2.969 2.989 3.169 3.159 3.069
3481.805 3.109 3.459 3.919 4.369 4.649 4.769 5.229 5.529 5.759 6.129
3501.095 6.359 6.459 6.359 6.249 6.029 5.909 5.899 5.499 5.029 4.939
3520.385 4.679 4.339 3.959 3.509 3.259 2.969 2.679 2.449 2.389 2.559
3539.674 2.559 2.289 2.029 1.919 1.859 1.929 2.149 2.199 2.149 1.919
3558.964 1.629 1.659 1.659 1.539 1.369 1.1473 1.319 1.849 1.789 1.489
3578.254 1.299 1.329 1.629 1.749 1.809 1.649 1.549 1.589 1.519 1.419
3597.544 1.399 1.389 1.379 1.359 1.199 1.199 1.379 1.559 1.529 1.419
3616.833 1.469 1.389 1.319 1.369 1.1627 1.1186 1.289 1.239 1.329 1.479
3636.123 1.439 1.329 1.279 1.399 1.389 1.1865 1.219 1.0229 0.8422 0.8627
3655.413 0.9692 1.239 0.9518 0.9623 1.0458 1.0133 0.9484 0.8254 0.8582 0.95
3674.703 1.199 1.0134 0.8373 1.0612 1.399 1.309 1.0099 1.0614 1.0978 1.049
3693.993 1.229 1.359 1.279 1.0489 1.0256 1.0669 1.219 1.329 1.489 1.459
3713.282 1.269 1.339 1.269 1.199 1.289 1.619 1.889 2.089 2.029 1.909
3732.572 1.769 1.599 1.589 1.669 1.659 1.549 1.329 1.249 1.349 1.199
3751.862 1.1561 1.1378 1.1691 1.279 1.219 0.9451 0.9736 1.189 1.1451 0.8973
3771.152 0.8854 0.9069 0.8598 1.1873 1.259 1.0969 0.84 0.6062 0.7657 0.9342
3790.441 0.963 0.9919 0.9895 1.0759 1.0843 1.1266 1.0089 0.6969 0.6938 0.7506
3809.731 0.7634 0.8121 0.8531 0.9497 0.803 0.5489 0.5596 0.8801 0.9025 0.7002
3829.021 0.8033 0.7827 0.6856 0.6923 0.658 0.6417 0.6901 0.7059 0.6183 0.6896
3848.311 0.6406 0.8486 0.981 0.8293 0.7742 0.5102 0.4531 0.4116 0.6075 0.7922
3867.601 0.7405 0.5673 0.3046 0.1479 0.173 0.3874 0.6867 0.5468 0.068 0
3886.890 0.22776 0.5058 0.455 0.3312 0.25685 0.2963 0.672 0.6689 0.6438 0.5918
3906.180 0.3859 0.4406 0.4716 0.5657 0.4959 0.3095 0.3984 0.3395 0.27998 0.4405
3925.470 0.483 0.4142 0.3588 0.20332 0.1167 0.26331 0.3098 0.4437 0.4262 0.24252
3944.760 0.3094 0.4453 0.2892 0.20924 0.3291 0.4919 0.6747 0.4007 0.23122 0.21748
3964.049 0.1514 0.26043 0.4355 0.3813 0.1075 0.3583 0.454 0.2549 0.0905 0.053
3983.339 0.4086 0.6307 0.4492 0.22638 0.4204 0.511 0.1635 0.1623 0.3128 0.3387
##END=
