##TITLE=2,3-Dimethylbenzamide
##JCAMP-DX=4.24
##DATA TYPE=INFRARED SPECTRUM
##ORIGIN=EPA-IR VAPOR PHASE LIBRARY
##OWNER=SRD/NIST
Collection (C) 2018 copyright by the U.S. Secretary of Commerce
on behalf of the United States of America. All rights reserved.
##CAS REGISTRY NO=5580-34-7
##MOLFORM=C 9 H 11 N O
##$NIST SOURCE=MSDC-IR
##STATE=gas
##XUNITS=1/CM
##YUNITS=ABSORBANCE
##XFACTOR=1.
##YFACTOR=0.001
##DELTAX=1.92898
##FIRSTX=549.8
##LASTX=4000.7
##FIRSTY=1.532
##MAXX=4000.7
##MINX=549.759
##MAXY=0.048895
##MINY=0
##NPOINTS=1790
##XYDATA=(X++(Y..Y))
549.759 1.532 1.3216 1.5184 2.535 2.045 2.685 3.455 2.865 2.525 2.655
569.049 2.775 2.285 2.335 2.075 2.155 2.335 2.335 2.375 2.455 2.695
588.339 2.705 2.845 2.915 2.345 1.865 2.005 2.855 3.245 2.825 3.435
607.628 3.845 4.055 3.965 3.385 2.655 2.355 3.225 3.135 2.595 2.355
626.918 2.395 2.255 2.095 2.135 2.385 2.585 2.585 2.895 3.185 2.985
646.208 3.265 3.775 4.035 3.965 3.725 4.075 4.205 3.905 3.825 4.525
665.498 4.945 3.935 3.595 4.025 4.145 3.815 2.915 2.655 2.875 2.675
684.787 2.425 2.495 2.675 2.755 2.705 2.565 2.475 2.535 2.695 2.485
704.077 2.395 2.905 3.155 3.145 3.525 3.515 3.645 3.665 3.795 4.445
723.367 4.385 4.365 4.885 4.965 4.865 5.215 5.495 5.595 5.505 5.955
742.657 6.465 7.015 7.785 7.835 7.845 8.235 8.325 8.225 8.375 8.395
761.947 7.815 7.225 6.965 6.585 6.645 6.785 6.465 5.795 5.495 6.005
781.236 6.225 6.135 6.575 6.945 6.475 5.955 6.555 6.275 5.395 5.235
800.526 4.855 4.825 4.935 5.035 5.005 4.895 4.965 4.395 3.985 3.965
819.816 4.025 4.285 3.375 2.945 2.855 2.985 3.635 3.425 3.005 3.025
839.106 3.225 3.235 3.325 3.625 3.465 3.265 3.165 3.165 3.065 2.495
858.395 2.335 2.375 2.275 2.445 2.555 2.285 2.575 2.865 2.795 2.905
877.685 3.045 2.625 2.665 2.965 2.975 3.265 2.935 2.805 2.995 3.015
896.975 2.895 2.855 2.685 2.695 2.615 2.405 2.195 2.085 2.385 2.395
916.265 2.715 2.525 2.225 2.495 2.635 2.795 2.965 2.455 1.985 2.225
935.555 2.485 2.905 2.965 2.585 2.505 2.525 2.625 2.305 2.255 2.575
954.844 3.075 3.045 2.505 2.445 2.055 1.875 2.325 2.665 3.285 3.645
974.134 3.145 2.965 3.245 3.245 2.945 2.415 2.535 2.995 3.005 3.135
993.424 3.645 3.905 3.175 2.625 2.075 1.835 2.645 2.825 2.285 1.612
1012.714 0.6747 0.6328 0.8254 1.6477 2.635 3.325 3.345 3.345 3.795 3.165
1032.003 3.235 3.425 3.525 3.575 3.315 3.945 4.195 3.565 2.985 2.795
1051.293 3.005 4.025 4.725 3.595 2.735 2.395 2.105 2.135 2.685 2.245
1070.583 2.055 2.515 3.135 4.255 4.765 4.305 3.535 3.515 2.625 2.805
1089.873 2.345 1.855 3.715 3.515 2.195 1.965 1.7163 2.985 3.785 3.155
1109.163 3.085 3.035 2.495 2.255 3.195 3.535 3.485 3.155 2.755 2.225
1128.452 2.175 2.495 3.245 3.105 1.875 1.4368 2.135 3.055 3.155 3.225
1147.742 2.885 2.255 2.025 2.305 2.305 2.155 1.955 2.445 3.125 3.685
1167.032 3.295 2.005 2.155 2.135 1.775 2.305 3.235 2.585 1.7146 1.795
1186.322 1.3341 1.4954 2.055 2.895 2.415 2.175 2.725 3.095 2.255 1.6001
1205.611 2.295 2.945 3.985 3.905 2.735 1.5864 2.105 3.195 2.765 1.735
1224.901 1.795 2.135 2.105 1.4638 1.2942 0.8592 0.322 1.7019 3.175 2.685
1244.191 2.325 2.465 2.705 2.905 2.225 1.6824 1.815 2.195 3.025 3.295
1263.481 2.515 2.945 3.615 3.425 3.065 3.345 4.145 4.315 4.375 4.475
1282.771 4.335 4.225 4.165 4.555 4.825 4.965 5.425 5.405 5.395 5.645
1302.060 6.045 6.655 7.125 7.655 8.155 8.835 9.775 10.755 11.805 12.885
1321.350 14.195 15.675 17.415 19.285 21.125 22.635 23.955 24.855 25.185 24.965
1340.640 23.635 21.925 19.995 17.745 15.595 13.465 11.295 9.355 7.835 6.775
1359.930 6.195 5.825 5.365 4.885 4.505 4.365 4.355 4.305 4.195 4.165
1379.219 4.115 4.055 4.105 4.085 3.985 3.905 3.805 3.635 3.615 3.635
1398.509 3.335 3.115 3.135 3.035 2.835 2.805 2.945 2.995 3.135 3.325
1417.799 3.195 3.235 3.595 3.875 4.005 3.915 3.905 4.175 4.635 4.845
1437.089 4.865 5.025 5.255 5.405 5.465 5.465 5.335 5.275 5.245 5.025
1456.378 4.745 4.735 4.775 4.685 4.585 4.365 4.205 4.115 3.705 3.655
1475.668 3.655 3.605 3.635 3.385 3.155 2.845 2.795 2.635 2.315 2.465
1494.958 2.575 2.465 2.515 2.715 2.595 2.335 2.435 2.465 2.415 2.435
1514.248 2.365 2.205 2.295 2.215 2.095 2.365 2.455 2.405 2.525 2.525
1533.538 2.325 2.365 2.265 2.085 2.435 2.615 2.925 3.075 3.055 3.385
1552.827 3.685 4.175 4.415 4.825 5.505 6.115 7.385 9.175 10.615 11.955
1572.117 14.035 15.925 17.285 18.235 18.515 18.925 18.915 18.135 16.965 15.575
1591.407 14.415 12.955 11.105 9.755 8.535 7.265 6.495 5.965 5.375 4.915
1610.697 4.455 3.835 3.735 3.665 3.515 3.165 3.015 3.375 3.315 3.165
1629.986 3.255 3.195 3.085 2.775 2.595 2.895 3.185 3.175 2.805 2.555
1649.276 2.565 2.645 3.005 3.555 3.675 3.615 3.805 4.075 4.295 4.545
1668.566 4.885 5.305 5.645 5.825 6.365 6.935 7.345 7.495 7.235 7.655
1687.856 8.275 8.415 8.975 10.045 11.145 12.415 14.105 16.805 20.155 23.795
1707.146 27.815 32.215 36.335 40.295 44.115 47.115 48.895 48.705 45.805 41.495
1726.435 37.105 32.605 27.935 23.395 19.245 15.885 13.065 10.745 9.195 8.135
1745.725 7.315 6.885 6.635 6.185 5.705 5.325 4.955 4.325 3.965 3.885
1765.015 3.465 3.245 3.195 2.845 2.795 2.895 2.695 2.615 2.465 2.305
1784.305 2.185 2.115 2.135 2.015 1.895 1.975 2.105 2.015 1.765 1.845
1803.594 2.155 2.105 2.115 1.935 1.775 1.785 1.775 1.755 1.4719 1.5296
1822.884 1.6276 1.4634 1.4281 1.355 1.2713 1.3728 1.3423 1.3657 1.4181 1.4064
1842.174 1.448 1.3525 1.3656 1.6959 1.735 1.5685 1.5989 1.6674 1.755 1.725
1861.464 1.6238 1.5391 1.658 1.6688 1.4425 1.3171 1.4538 1.6516 1.4789 1.3704
1880.754 1.5234 1.5391 1.4653 1.327 1.4089 1.5571 1.5467 1.5439 1.6593 1.5944
1900.043 1.4486 1.5785 1.5746 1.4261 1.4385 1.4155 1.4895 1.7231 1.5929 1.4515
1919.333 1.745 1.915 1.5596 1.5099 1.5034 1.4958 1.5392 1.5846 1.855 1.613
1938.623 1.1397 1.1921 1.2605 1.0918 1.152 1.2941 1.4125 1.2537 1.2517 1.4856
1957.913 1.6012 1.5542 1.5253 1.4155 1.2671 1.3511 1.4265 1.2558 0.9616 1.1335
1977.202 1.3592 1.3589 1.306 1.286 1.342 1.2776 1.1176 1.2334 1.4759 1.2739
1996.492 1.0727 1.1769 1.1276 1.0362 1.1406 1.3676 1.4681 1.3111 1.2941 1.3265
2015.782 1.2609 1.3529 1.3132 1.1831 1.2052 1.2675 1.4078 1.4615 1.3908 1.2183
2035.072 1.1186 1.2329 1.4061 1.5829 1.3551 0.9999 1.0656 1.1901 1.4375 1.4438
2054.362 1.3725 1.4713 1.3788 1.3133 1.3791 1.3903 1.2545 1.1872 1.262 1.3837
2073.651 1.2884 1.3226 1.4204 1.2238 1.1003 1.2952 1.3609 1.2175 1.0533 0.9021
2092.941 1.1432 1.4295 1.2279 1.1168 1.1553 1.0894 0.9261 0.978 1.3294 1.3601
2112.231 1.2944 1.4467 1.3739 1.0579 1.1604 1.2684 1.2933 1.4459 1.3154 1.1182
2131.521 1.1694 1.12 1.1725 1.2849 1.1185 1.0449 1.0181 1.0493 1.1879 1.3649
2150.810 1.3143 1.2074 1.0746 0.9706 1.175 1.2705 1.0986 1.1846 1.2892 1.3002
2170.100 1.51 1.5165 1.2616 1.1718 1.2686 1.3018 1.1298 0.9866 1.0305 1.2513
2189.390 1.1365 1.0508 1.3506 1.2731 1.2982 1.2521 1.006 0.9703 1.1504 1.5285
2208.680 1.6179 1.2572 1.1503 1.2872 1.3383 1.3148 1.4135 1.647 1.5161 1.4032
2227.970 1.5501 1.4211 1.3316 1.3261 1.3046 1.4926 1.3838 1.4028 1.4997 1.3456
2247.259 1.128 1.012 1.3568 1.4462 1.1866 1.1549 1.0922 1.2097 1.3566 1.2043
2266.549 1.0487 0.9403 0.9341 1.134 1.0638 1.0215 1.088 1.0935 1.1903 1.1791
2285.839 1.2165 1.1261 1.1399 1.0666 1.3757 1.6137 1.545 1.6812 1.65 1.5378
2305.129 1.352 1.2591 1.311 1.2526 1.031 1.1546 1.176 1.1007 1.2871 1.3578
2324.418 1.4034 1.2578 1.1373 1.2906 1.3766 1.3477 1.2712 1.2721 1.3206 1.2144
2343.708 1.0176 0.76429 0.72069 1.0209 1.1161 1.1846 1.1478 0.9435 0.9244 0.988
2362.998 0.9749 1.0353 1.1337 1.076 1.2323 1.4309 1.2854 1.0074 1.1639 1.134
2382.288 0.924 1.0156 1.3039 1.4251 1.104 1.1877 1.243 1.303 1.5684 1.3128
2401.578 1.2549 1.3716 1.228 1.1327 1.2366 1.3386 1.2002 1.2132 1.2573 1.0369
2420.867 0.9624 1.018 0.9607 0.74337 0.6617 0.6939 0.73756 1.0307 1.3155 0.9556
2440.157 0.74043 1.0662 1.1675 1.0965 1.1215 1.1477 1.0488 1.043 0.9206 1.0166
2459.447 1.1423 1.1873 1.2852 1.447 1.2614 1.0839 1.0845 0.9565 1.1547 1.3626
2478.737 1.576 1.4576 1.1009 0.9098 1.0559 1.3239 1.5466 1.4005 1.0427 1.0582
2498.026 0.873 0.74817 0.8398 0.8561 0.9908 1.0776 0.9628 1.0558 1.1794 0.9884
2517.316 0.9772 1.1222 1.1377 1.1807 1.2469 1.0527 0.74399 0.74737 0.9149 0.9587
2536.606 0.9157 0.9569 1.0518 1.382 1.5463 1.4106 1.576 1.6226 1.3089 1.2811
2555.896 1.2179 1.226 1.3186 1.2044 1.2546 1.3243 1.4147 1.0342 0.9285 1.1638
2575.186 1.2918 1.4149 1.1968 1.1213 0.9612 1.0895 1.3766 1.2536 1.2237 1.2284
2594.475 0.9366 0.9862 1.3181 1.3244 1.1781 0.78189 0.6852 0.959 1.3674 1.5444
2613.765 1.2619 1.0493 0.9447 0.9586 1.4445 1.5223 0.9942 1.1509 1.3491 1.1252
2633.055 1.1547 1.139 1.2683 1.5179 1.3636 1.2964 1.206 0.9963 0.80336 0.8647
2652.345 1.3602 1.4521 1.2553 1.4362 1.5004 1.2647 1.1497 1.1899 1.0159 0.8408
2671.634 1.1089 1.3766 1.3874 1.2968 1.256 1.0552 0.8946 1.0801 1.4487 1.5017
2690.924 1.3294 1.0112 0.76412 1.0058 1.0454 0.78253 1.0237 1.3344 1.5836 1.3694
2710.214 1.1278 1.2493 1.1725 1.2427 1.105 1.2618 1.4553 1.4369 1.5496 1.4249
2729.504 1.3306 1.4166 1.598 1.4788 1.4392 1.3283 1.3071 1.5097 1.466 1.4145
2748.794 1.298 1.3258 1.3859 1.6759 1.6678 1.4216 1.6073 1.6425 1.4863 1.6494
2768.083 1.855 1.4396 1.2024 1.2213 1.1764 1.3295 1.235 1.1088 1.094 1.1857
2787.373 1.335 1.0576 1.1106 1.0578 0.8298 1.1216 1.325 1.3546 1.5328 1.6515
2806.663 1.537 1.548 1.3828 1.3172 1.6052 1.6455 1.1994 1.0249 1.0287 0.9838
2825.953 0.74043 1.143 1.915 1.935 1.985 1.855 1.915 2.145 1.785 1.4825
2845.242 1.4036 1.6493 2.385 2.295 1.855 2.155 2.125 2.265 2.485 2.395
2864.532 2.495 2.635 2.795 2.755 2.705 2.975 3.435 3.755 3.725 3.305
2883.822 2.975 2.935 3.135 3.085 3.025 3.335 3.745 3.475 2.795 2.865
2903.112 3.285 3.605 3.515 3.415 3.625 3.815 4.115 4.565 5.115 5.285
2922.401 4.955 5.005 5.515 5.975 5.945 6.015 6.285 6.615 6.425 5.915
2941.691 6.205 6.425 6.115 5.695 5.315 5.085 5.215 5.795 5.675 5.015
2960.981 4.735 4.395 4.225 4.225 4.075 3.975 4.255 4.375 4.055 4.575
2980.271 4.755 4.445 4.225 3.725 4.035 4.055 3.375 2.925 2.985 3.155
2999.561 3.295 3.075 2.705 2.825 3.175 3.495 3.475 3.455 3.465 3.635
3018.850 3.905 3.775 3.575 3.805 3.615 3.265 3.835 3.965 3.475 3.415
3038.140 3.605 3.815 3.855 3.605 3.265 3.375 4.045 4.145 4.085 4.655
3057.430 4.975 4.875 5.025 5.045 4.605 4.725 4.985 4.965 4.935 4.945
3076.720 4.765 4.675 4.355 3.875 3.505 3.095 2.875 2.255 1.6482 1.6831
3096.009 1.975 1.915 1.725 1.5409 1.4562 1.6391 1.699 1.4763 1.6032 1.825
3115.299 1.3071 1.5145 1.945 1.5363 1.2557 1.2439 1.0731 1.3236 1.975 2.045
3134.589 2.265 2.205 1.885 1.785 1.795 1.5451 1.2195 1.4161 1.5853 1.785
3153.879 1.785 1.6318 1.885 1.735 1.1879 1.0655 1.4058 1.2695 1.1432 1.5566
3173.169 1.3446 0.9363 1.1512 1.735 1.723 1.485 1.294 1.177 1.4206 1.3231
3192.458 0.9291 0.729061 1.0948 1.6621 1.4219 1.1339 0.734719 0.82297 1.0496 0.77969
3211.748 0.9747 1.0455 1.2437 1.246 0.9001 1.2469 1.6948 1.5692 1.3103 1.3364
3231.038 1.795 1.815 1.6072 1.5259 1.5461 1.775 1.5861 1.1411 0.9948 0.758
3250.328 0.7025 0.726029 0.9778 1.5728 1.6981 1.1465 0.76829 1.3232 1.4114 1.0375
3269.617 1.2949 1.4167 1.261 1.0489 0.914 0.8993 1.0214 1.1726 0.9015 0.76305
3288.907 0.9934 1.3045 1.6251 1.3526 0.9261 0.9513 1.4683 1.895 1.2715 0.8861
3308.197 1.1498 1.4361 1.5701 1.6359 1.5988 1.6153 1.4022 0.8767 1.1113 1.3512
3327.487 1.6211 1.925 1.725 1.4572 1.5858 1.735 1.5934 1.4143 1.664 1.775
3346.777 1.3589 1.2369 1.3184 1.2812 0.9005 0.8411 1.051 1.2437 1.5444 1.4266
3366.066 1.0331 1.1128 1.1732 1.4393 1.845 2.085 2.095 1.745 1.1914 1.2118
3385.356 1.6078 1.5904 1.775 2.175 2.175 1.6659 1.7244 2.435 2.505 2.945
3404.646 3.885 3.585 3.125 3.515 3.945 4.095 4.035 4.475 5.345 5.685
3423.936 5.495 5.865 6.235 5.915 5.775 5.625 5.475 4.965 4.195 4.135
3443.225 3.965 3.155 2.695 2.295 1.6503 0.9287 1.1484 1.5999 1.5623 1.4023
3462.515 0.9789 1.2774 1.6874 1.6836 1.542 1.5517 1.865 1.4404 0.9632 1.6899
3481.805 2.065 1.5508 0.9105 0.205 0.192 0.75199 1.1455 1.2014 1.755 2.395
3501.095 2.045 2.015 2.285 2.275 2.345 2.005 1.955 2.385 2.175 1.7116
3520.385 2.145 2.445 2.835 3.475 3.205 3.245 3.395 3.365 3.595 3.885
3539.674 3.695 3.365 3.385 4.095 4.735 4.435 4.945 5.555 4.815 4.145
3558.964 3.945 3.375 2.935 2.995 2.945 2.955 2.695 2.065 2.195 2.155
3578.254 1.925 1.845 1.4584 1.3294 1.0822 1.0966 1.885 1.955 1.6092 1.1125
3597.544 0.9211 1.2408 1.5018 1.875 1.785 1.589 1.4337 1.716 1.6152 1.5296
3616.833 1.3421 0.8798 1.2216 1.3088 0.8903 0.945 1.5675 1.3317 1.1584 1.141
3636.123 0.97 1.0546 1.1238 0.9703 0.6568 0.8566 0.899 1.1227 1.0059 0.563
3655.413 1.1839 1.6412 1.4849 1.4333 1.2936 0.953 0.848 0.9264 0.9169 1.0242
3674.703 1.2124 1.795 1.955 1.3776 0.891 0.8707 1.2559 1.405 1.2154 1.2107
3693.993 1.765 1.775 1.5406 1.416 1.0022 1.386 1.885 1.2867 0.565 0.9083
3713.282 1.2057 1.0399 1.5273 1.7083 1.0354 0.9553 1.2365 1.4328 1.2852 1.1614
3732.572 1.2332 1.1174 1.2591 1.3402 1.4704 1.3287 0.7117 0.555 0.454 0.546
3751.862 1.4294 1.315 1.2506 2.235 1.755 0.9514 1.4052 1.755 1.5089 1.1655
3771.152 1.2493 1.1696 1.1775 1.2257 0.84 0.43 0.6 0.8034 0.307 0
3790.441 0.324 0.74402 0.701 0.616 0.543 0.296 0.76129 1.325 1.6096 1.4374
3809.731 1.0803 1.2369 1.3395 1.4309 0.7869 0.301 1.0589 0.9288 0.519 0.9531
3829.021 1.0436 0.9935 0.9717 0.8037 0.6574 0.579 0.75622 1.4229 1.3471 0.6699
3848.311 1.0522 1.2855 1.0147 0.9923 0.9395 1.0264 1.3366 1.2407 1.0874 1.3383
3867.601 1.2414 1.5305 1.855 1.5823 1.3594 1.1904 1.0419 0.6908 0.8305 1.0922
3886.890 1.269 1.454 1.1846 0.80749 0.7567 1.5863 1.965 1.4162 1.0648 0.9209
3906.180 1.0403 1.6266 1.805 1.6098 1.4526 1.1032 0.381 0.695 1.0598 0.9052
3925.470 1.3928 1.1149 0.9656 1.3411 1.6563 1.855 1.5747 1.3911 1.2248 1.3785
3944.760 2.005 1.745 1.407 1.0996 1.0316 0.948 0.9432 1.2125 0.6671 0.457
3964.049 0.9656 0.9388 0.611 1.035 1.0287 1.1321 1.4603 1.1985 0.9778 0.6882
3983.339 0.6963 0.534 0.329 0.29 0.428 1.2402 2.065 1.855 1.2124 1.815
##END=
