##TITLE=3-Methyl-4-decanol
##JCAMP-DX=4.24
##DATA TYPE=INFRARED SPECTRUM
##ORIGIN=NIST Mass Spectrometry Data Center
##OWNER=NIST Standard Reference Data Program
Collection (C) 2018 copyright by the U.S. Secretary of Commerce
on behalf of the United States of America. All rights reserved.
##CAS REGISTRY NO=55816-17-6
##MOLFORM=C 11 H 24 O
##$NIST SOURCE=MSDC-IR
##SPECTROMETER/DATA SYSTEM=HP-GC/MS/IRD
##STATE=gas
##XUNITS=1/CM
##YUNITS=ABSORBANCE
##XFACTOR=1.0
##YFACTOR=0.000003800
##DELTAX=4.0
##FIRSTX=550.0
##LASTX=3846.0
##FIRSTY=0.000901
##MAXX=3846
##MINX=550
##MAXY=0.038
##MINY=0
##NPOINTS=825
##XYDATA=(X++(Y..Y))
550.0 237 139 74 90 79 70 77 56 52 60
590.0 55 45 23 28 33 30 42 55 64 73
630.0 70 63 56 55 47 34 34 44 44 34
670.0 35 26 6 18 36 38 40 48 53 61
710.0 89 107 119 131 137 137 130 115 109 107
750.0 96 102 121 125 128 145 154 151 147 135
790.0 118 123 123 124 123 111 112 107 97 95
830.0 99 107 113 119 133 147 148 157 172 184
870.0 191 191 192 197 211 213 211 218 221 230
910.0 239 247 247 255 279 316 349 397 460 529
950.0 603 660 711 753 784 814 841 869 893 908
990.0 896 876 869 873 887 905 924 944 960 958
1030.0 950 939 911 878 832 770 705 656 625 591
1070.0 563 551 545 543 545 559 580 597 604 602
1110.0 598 582 573 572 579 586 603 606 589 557
1150.0 524 492 453 419 395 384 372 375 388 403
1190.0 421 441 458 471 488 507 527 539 551 566
1230.0 566 563 567 561 560 561 556 551 548 549
1270.0 546 530 519 513 496 480 472 467 459 449
1310.0 444 435 425 422 421 426 443 467 487 511
1350.0 541 573 620 681 745 839 962 1079 1161 1156
1390.0 1048 886 725 588 492 437 403 395 388 390
1430.0 424 492 571 653 789 949 1150 1328 1401 1385
1470.0 1270 1067 814 606 472 376 314 274 240 244
1510.0 212 173 179 177 145 124 122 144 146 108
1550.0 90 111 147 110 73 72 77 76 53 48
1590.0 48 44 44 47 44 43 56 61 46 39
1630.0 41 60 54 46 61 92 94 47 38 45
1670.0 48 48 39 61 67 38 53 80 64 36
1710.0 25 40 50 24 14 33 53 39 22 26
1750.0 32 21 19 19 17 35 30 14 16 14
1790.0 22 22 16 15 8 8 8 8 15 19
1830.0 13 7 6 18 21 9 4 5 5 9
1870.0 9 2 4 8 9 10 12 7 2 7
1910.0 7 3 5 9 7 3 3 0 0 4
1950.0 5 4 4 7 8 8 9 9 9 9
1990.0 6 6 5 6 4 7 11 7 8 13
2030.0 13 12 14 15 14 13 13 14 14 13
2070.0 15 16 12 12 10 7 8 6 9 10
2110.0 11 8 7 11 14 13 12 12 8 6
2150.0 8 10 12 11 12 13 16 17 16 16
2190.0 14 13 12 11 11 12 13 13 10 9
2230.0 8 8 8 6 11 14 14 14 11 8
2270.0 10 14 17 18 17 19 20 18 21 24
2310.0 24 24 30 36 36 36 37 38 41 34
2350.0 31 38 45 44 36 30 28 28 29 29
2390.0 28 24 23 28 31 30 28 28 30 31
2430.0 30 26 24 25 29 27 23 25 25 21
2470.0 22 24 21 18 22 25 20 19 20 23
2510.0 28 29 26 28 34 35 36 36 41 44
2550.0 44 46 54 58 59 61 68 73 70 73
2590.0 78 83 85 85 87 93 98 99 101 103
2630.0 105 110 115 119 122 124 126 128 137 144
2670.0 145 147 149 151 154 157 158 158 161 165
2710.0 169 178 183 186 192 203 217 226 231 233
2750.0 233 232 235 239 242 250 262 275 293 314
2790.0 337 361 387 418 448 490 538 594 662 744
2830.0 844 974 1152 1397 1734 2180 2737 3336 3878 4282
2870.0 4527 4677 4826 4941 4909 4719 4476 4334 4398 4684
2910.0 5171 5837 6679 7676 8693 9527 10000 9993 9506 8679
2950.0 7789 7214 7220 7732 8286 8268 7417 5991 4514 3315
2990.0 2451 1866 1469 1197 998 849 739 652 581 526
3030.0 483 446 405 380 359 331 314 301 282 269
3070.0 257 239 226 215 200 197 196 187 182 175
3110.0 162 149 141 141 137 136 133 126 125 128
3150.0 130 124 114 113 114 109 103 98 94 90
3190.0 85 77 74 74 65 56 54 52 44 45
3230.0 41 37 37 37 38 37 33 35 32 22
3270.0 23 24 25 30 30 26 22 17 19 23
3310.0 23 23 21 19 19 20 21 22 23 24
3350.0 28 25 19 21 29 29 27 25 20 26
3390.0 31 30 35 35 30 28 33 36 36 31
3430.0 26 22 23 27 35 34 30 28 30 36
3470.0 37 30 26 26 25 26 28 31 33 29
3510.0 22 20 18 15 12 15 11 6 16 24
3550.0 21 16 14 19 30 30 28 28 27 35
3590.0 38 35 41 47 57 70 78 100 110 137
3630.0 177 194 223 274 363 430 445 439 391 340
3670.0 296 239 165 104 99 98 74 66 64 63
3710.0 74 62 40 49 56 62 78 64 66 88
3750.0 89 71 49 41 45 45 31 34 39 29
3790.0 26 39 55 64 61 50 59 72 65 60
3830.0 63 71 78 63 49
##END=
