##TITLE=O-Trimethylsilylpropargyl alcohol
##JCAMP-DX=4.24
##DATA TYPE=INFRARED SPECTRUM
##ORIGIN=EPA-IR VAPOR PHASE LIBRARY
##OWNER=SRD/NIST
Collection (C) 2018 copyright by the U.S. Secretary of Commerce
on behalf of the United States of America. All rights reserved.
##CAS REGISTRY NO=5582-62-7
##MOLFORM=C 6 H 12 O Si
##$NIST SOURCE=MSDC-IR
##STATE=gas
##XUNITS=1/CM
##YUNITS=ABSORBANCE
##XFACTOR=1.
##YFACTOR=0.001
##DELTAX=1.92934
##FIRSTX=549.9
##LASTX=3999.5
##FIRSTY=6.16
##MAXX=3999.53
##MINX=549.863
##MAXY=0.26357
##MINY=0
##NPOINTS=1789
##XYDATA=(X++(Y..Y))
549.863 6.16 5.96 5.76 5.52 5.21 5.08 4.9 4.82 4.85 4.78
569.156 4.67 4.58 4.65 4.56 4.5 4.8 4.95 4.94 5.07 5.4
588.450 5.95 6.43 6.84 7.48 8.27 9.13 10.18 11.13 12.16 13.45
607.743 14.83 16.24 17.82 19.65 21.45 23.38 25.42 27.58 29.95 32.28
627.037 34.43 36.36 37.98 39.39 40.51 41.15 41.49 41.49 41.18 40.72
646.330 40.16 39.62 39.58 40.11 41.4 43.2 44.1 43.04 40.84 39.1
665.624 37.45 35.29 32.93 30.77 28.6 26.31 24.3 22.62 21.23 20.4
684.917 19.99 19.82 19.87 20.02 20.19 20.47 20.76 20.87 20.97 21.07
704.210 21.09 21.06 21.02 21 21.06 21.02 21.02 21.16 21.31 21.53
723.504 21.82 22.17 22.6 23.19 23.86 24.63 25.49 26.54 27.69 28.93
742.797 30.27 31.67 33.21 34.65 35.99 37.21 38.16 38.83 39.18 39.21
762.091 38.94 38.34 37.44 36.21 34.75 33.11 31.37 29.57 27.75 25.98
781.384 24.29 22.75 21.46 20.39 19.44 18.7 18.22 17.87 17.69 17.8
800.678 18.14 18.64 19.41 20.45 21.65 23.24 25.21 27.48 30.49 34.18
819.971 38.44 43.58 49.8 57.24 66.08 76.27 87.78 100.43 113.91 127.86
839.264 141.83 155.18 166.84 175.94 181.7 184 183.42 180.81 176.91 172.35
858.558 167.81 163.72 160.19 156.93 153.58 150.02 146.02 141.27 135.64 129.24
877.851 122.29 114.75 106.67 98.35 90.05 82.12 74.82 68.3 62.54 57.49
897.145 52.99 49.06 45.73 42.77 40.15 37.89 36.02 34.33 32.91 31.74
916.438 30.63 29.63 28.7 27.8 26.86 25.93 24.91 23.86 22.9 21.91
935.732 20.82 19.65 18.52 17.47 16.37 15.33 14.35 13.35 12.42 11.57
955.025 10.74 10.04 9.45 8.9 8.46 8.09 7.74 7.59 7.55 7.48
974.318 7.5 7.57 7.77 8.03 8.22 8.52 8.89 9.22 9.4 9.62
993.612 9.87 10.05 10.19 10.28 10.32 10.3 10.26 10.16 9.99 9.77
1012.905 9.56 9.36 9.12 8.86 8.67 8.48 8.3 8.16 8.01 7.98
1032.199 8.1 8.26 8.37 8.55 8.88 9.24 9.64 10.1 10.69 11.39
1051.492 12.13 12.95 13.93 15.04 16.32 17.82 19.56 21.51 23.77 26.45
1070.786 29.5 33.02 37.21 42.04 47.62 54.14 61.67 70.22 80.15 91.71
1090.079 104.93 120.02 137.14 156.16 176.61 197.64 217.85 235.67 249.58 258.9
1109.372 263.57 263.36 258.02 247.49 232.52 213.65 191.37 167.04 142.64 120.04
1128.666 100.41 84.2 71.13 60.81 52.53 45.83 40.52 36.07 32.16 28.8
1147.959 25.93 23.31 21 18.99 17.27 15.84 14.71 13.76 12.79 11.9
1167.253 11.24 10.84 10.41 9.95 9.65 9.43 9.12 8.75 8.45 8.37
1186.546 8.41 8.24 8.2 8.41 8.5 8.53 8.65 8.93 9.25 9.51
1205.840 9.7 9.84 10.38 11.1 11.39 11.97 13.26 14.47 15.6 17.17
1225.133 19.08 21.32 24.23 27.6 31.26 35.65 40.46 45.73 51.58 57.71
1244.426 63.99 70.41 76.62 82.47 88.11 93.41 98.41 102.33 104.18 103.85
1263.720 101.56 97.78 93.29 87.37 79.78 72.43 65.47 58.31 51.14 44.09
1283.013 38.02 33.33 29.58 26.64 24.53 22.92 21.54 20.34 19.31 18.46
1302.307 17.56 16.77 16.1 15.34 14.69 14.18 13.7 13.23 12.73 12.28
1321.600 11.87 11.45 11.03 10.69 10.38 10.11 9.91 9.67 9.49 9.41
1340.894 9.38 9.46 9.57 9.69 9.94 10.3 10.87 11.74 12.96 14.52
1360.187 16.41 18.36 19.75 20.33 20.56 20.89 20.8 20.35 20.24 20.03
1379.480 19.09 17.33 15.2 13.25 11.67 10.5 9.72 9.13 8.67 8.37
1398.774 8.15 7.99 7.8 7.7 7.64 7.55 7.46 7.39 7.34 7.28
1418.067 7.17 7.03 6.95 6.92 6.84 6.76 6.74 6.68 6.6 6.6
1437.361 6.63 6.65 6.71 6.76 6.79 6.8 6.8 6.82 6.87 6.86
1456.654 6.78 6.7 6.63 6.57 6.36 6.07 5.85 5.58 5.32 5.01
1475.948 4.75 4.52 4.3 4.13 3.91 3.71 3.56 3.41 3.32 3.24
1495.241 3.17 3.0997 3.0119 2.9788 2.9541 2.8622 2.7901 2.7578 2.7009 2.6626
1514.534 2.6371 2.6094 2.5827 2.5125 2.4855 2.5066 2.4888 2.4777 2.4647 2.4425
1533.828 2.4511 2.4682 2.4414 2.4424 2.4144 2.4135 2.4612 2.4213 2.4117 2.4605
1553.121 2.4848 2.5314 2.5623 2.5458 2.584 2.5896 2.5835 2.6314 2.6113 2.5609
1572.415 2.5732 2.6073 2.5858 2.5503 2.5816 2.6484 2.6321 2.5164 2.4759 2.4926
1591.708 2.4634 2.5027 2.5198 2.4565 2.4364 2.4666 2.5182 2.4955 2.4414 2.4366
1611.002 2.4744 2.439 2.3662 2.3944 2.435 2.4025 2.3928 2.4343 2.4695 2.48
1630.295 2.4975 2.4631 2.4509 2.4779 2.4388 2.3805 2.3841 2.3695 2.2985 2.2572
1649.588 2.24815 2.21729 2.1878 2.16786 2.1346 2.101 2.0776 2.0684 2.024 1.974
1668.882 1.924 1.842 1.82 1.868 1.848 1.812 1.767 1.736 1.71 1.692
1688.175 1.679 1.692 1.679 1.654 1.659 1.642 1.639 1.642 1.677 1.66
1707.469 1.68 1.728 1.713 1.691 1.655 1.614 1.621 1.617 1.57 1.545
1726.762 1.548 1.576 1.57 1.483 1.487 1.512 1.493 1.534 1.544 1.558
1746.056 1.546 1.51 1.516 1.517 1.498 1.487 1.55 1.58 1.592 1.594
1765.349 1.547 1.577 1.606 1.627 1.651 1.643 1.685 1.705 1.734 1.766
1784.642 1.813 1.834 1.88 1.929 1.915 1.959 2.027 2.1057 2.17325 2.21586
1803.936 2.23327 2.2666 2.2893 2.3775 2.4868 2.559 2.6177 2.6544 2.6904 2.7513
1823.229 2.7971 2.8201 2.8514 2.9016 2.9711 3.0041 3.0332 3.0441 3.0246 3.0215
1842.523 3.032 3.0386 3.0467 3.0417 3.0666 3.0935 3.0381 2.996 3.0242 3.0047
1861.816 2.9854 2.9897 2.9536 2.9054 2.8402 2.7482 2.6768 2.6073 2.518 2.4396
1881.110 2.3884 2.32 2.238 2.17853 2.14579 2.0918 1.998 1.929 1.891 1.897
1900.403 1.898 1.867 1.816 1.84 1.874 1.817 1.794 1.807 1.843 1.928
1919.696 1.94 1.949 2.004 2.0725 2.0867 2.1191 2.19676 2.2679 2.3693 2.3869
1938.990 2.4013 2.4582 2.4826 2.4821 2.4842 2.4978 2.5209 2.5135 2.5267 2.5416
1958.283 2.5162 2.5269 2.5676 2.5072 2.4473 2.4746 2.4633 2.4363 2.4153 2.3893
1977.577 2.4652 2.5 2.4508 2.4238 2.3962 2.3962 2.3864 2.3475 2.2789 2.2608
1996.870 2.2849 2.21245 2.18786 2.21112 2.16353 2.14432 2.15046 2.1257 2.0559 2.03
2016.164 2.035 1.996 1.952 1.928 1.897 1.858 1.861 1.862 1.794 1.777
2035.457 1.79 1.729 1.677 1.7 1.703 1.681 1.708 1.726 1.692 1.621
2054.750 1.587 1.61 1.653 1.668 1.641 1.633 1.659 1.699 1.686 1.685
2074.044 1.722 1.762 1.843 1.862 1.86 1.861 1.907 1.974 1.995 2.032
2093.337 2.0892 2.14159 2.16621 2.23968 2.3122 2.395 2.4763 2.5073 2.5268 2.5483
2112.631 2.6091 2.645 2.6419 2.6422 2.6383 2.6307 2.5924 2.5284 2.4681 2.3889
2131.924 2.2949 2.21543 2.1023 2.016 1.947 1.876 1.817 1.791 1.802 1.774
2151.218 1.707 1.727 1.762 1.705 1.727 1.754 1.77 1.783 1.746 1.747
2170.511 1.805 1.876 1.903 1.862 1.866 1.936 1.975 1.988 2.017 2.0509
2189.804 2.0585 2.0936 2.1297 2.1326 2.19257 2.22208 2.22201 2.20977 2.16311 2.16382
2209.098 2.18371 2.18205 2.1304 2.0594 2.008 1.924 1.87 1.843 1.789 1.74
2228.391 1.7 1.655 1.626 1.591 1.573 1.585 1.535 1.475 1.48 1.477
2247.685 1.505 1.507 1.432 1.436 1.476 1.459 1.451 1.451 1.452 1.429
2266.978 1.429 1.459 1.414 1.381 1.375 1.36 1.378 1.395 1.319 1.294
2286.272 1.361 1.355 1.316 1.284 1.252 1.249 1.277 1.327 1.314 1.284
2305.565 1.308 1.299 1.29 1.274 1.214 1.196 1.199 1.185 1.19 1.203
2324.858 1.194 1.168 1.12 1.11 1.183 1.201 1.178 1.169 1.194 1.206
2344.152 1.19 1.203 1.218 1.202 1.186 1.202 1.217 1.195 1.167 1.187
2363.445 1.221 1.243 1.207 1.161 1.181 1.19 1.174 1.157 1.186 1.246
2382.739 1.222 1.214 1.222 1.214 1.222 1.214 1.202 1.216 1.202 1.167
2402.032 1.222 1.244 1.208 1.177 1.179 1.187 1.15 1.13 1.15 1.177
2421.326 1.171 1.12 1.12 1.154 1.13 1.1 1.12 1.151 1.14 1.1
2440.619 1.13 1.14 1.08 1.12 1.181 1.15 1.13 1.163 1.171 1.178
2459.912 1.204 1.194 1.177 1.183 1.217 1.221 1.22 1.252 1.254 1.219
2479.206 1.179 1.197 1.245 1.232 1.189 1.179 1.217 1.224 1.233 1.254
2498.499 1.218 1.202 1.19 1.185 1.238 1.271 1.263 1.27 1.216 1.16
2517.793 1.153 1.166 1.09 1.02 1.05 1.03 0.99 0.98 0.97 1.01
2537.086 1.06 1.01 0.94 0.95 1.01 1.04 1.02 1.03 1.02 0.95
2556.380 0.92 0.9 0.95 1 0.99 0.96 1 1.02 0.98 0.98
2575.673 0.94 0.97 1.03 1.01 0.98 0.98 0.97 1.04 1.1 1.07
2594.966 1.07 1.05 1.02 0.97 0.99 1.05 1.03 1.02 1.03 1.06
2614.260 1.15 1.166 1.13 1.14 1.157 1.176 1.165 1.13 1.162 1.173
2633.553 1.15 1.13 1.09 1.13 1.19 1.195 1.191 1.17 1.19 1.282
2652.847 1.315 1.3 1.302 1.363 1.422 1.407 1.38 1.404 1.444 1.431
2672.140 1.482 1.517 1.445 1.457 1.468 1.444 1.463 1.47 1.538 1.522
2691.434 1.487 1.535 1.561 1.638 1.697 1.727 1.777 1.901 1.96 1.927
2710.727 1.966 2.042 2.0673 2.0816 2.21923 2.3295 2.2763 2.18395 2.20048 2.22132
2730.020 2.0621 1.955 1.981 1.998 1.949 1.852 1.838 1.832 1.772 1.767
2749.314 1.738 1.685 1.65 1.617 1.647 1.682 1.703 1.757 1.814 1.855
2768.607 1.867 1.928 1.984 2.0632 2.19642 2.22482 2.2999 2.4172 2.4765 2.5183
2787.901 2.6526 2.7658 2.8202 2.8781 2.9405 3.1237 3.31 3.48 3.56 3.67
2807.194 3.79 3.85 4.04 4.24 4.4 4.65 4.92 5.07 5.16 5.3
2826.488 5.47 5.59 5.85 6.1 6.25 6.43 6.77 7.21 7.61 8.02
2845.781 8.61 9.22 9.84 10.63 11.38 12.18 13.04 13.98 14.99 15.95
2865.074 16.91 17.76 18.42 18.94 19.37 19.63 19.76 19.83 19.86 19.83
2884.368 19.74 19.81 19.97 20.15 20.4 20.78 21.2 21.52 21.97 22.45
2903.661 22.79 23.06 23.21 23.29 23.29 23.09 22.78 22.43 22.1 21.83
2922.955 21.54 21.48 21.58 21.77 22.19 22.69 23.38 24.3 25.3 26.47
2942.248 27.91 29.47 31.33 33.56 36.03 38.86 41.63 44.21 46.61 48.52
2961.542 49.83 50.44 50.18 49.05 47.07 44.29 40.87 36.72 32.35 28.3
2980.835 24.61 21.19 18.15 15.47 13.14 11.36 9.88 8.64 7.56 6.63
3000.128 5.92 5.47 5.15 4.78 4.56 4.35 4.16 3.94 3.75 3.78
3019.422 3.82 3.79 3.7 3.68 3.71 3.65 3.72 3.83 3.78 3.76
3038.715 3.81 3.9 3.99 4 4 4.13 4.33 4.45 4.48 4.46
3058.009 4.44 4.45 4.44 4.48 4.53 4.54 4.52 4.41 4.28 4.26
3077.302 4.24 4.09 4.05 4.04 3.89 3.76 3.71 3.66 3.6 3.52
3096.596 3.41 3.33 3.0782 2.8801 2.8862 2.7568 2.6642 2.5718 2.4727 2.434
3115.889 2.4376 2.3802 2.1431 2.0744 2.1091 1.965 1.715 1.559 1.615 1.647
3135.182 1.523 1.323 1.251 1.182 1.05 1.02 0.93 0.84 0.82 0.79
3154.476 0.76 0.76 0.65 0.58 0.59 0.6 0.6 0.59 0.76 0.77
3173.769 0.68 0.59 0.6 0.8 0.72 0.59 0.51 0.54 0.75 0.69
3193.063 0.64 0.74 0.56 0.52 0.63 0.58 0.59 0.47 0.46 0.62
3212.356 0.58 0.51 0.56 0.67 0.65 0.48 0.43 0.32 0.26 0.31
3231.650 0.41 0.48 0.55 0.65 0.68 0.59 0.54 0.63 0.89 0.96
3250.943 0.87 1.12 1.292 1.243 1.278 1.391 1.628 1.719 1.797 2.101
3270.236 2.3949 2.6678 2.9264 3.32 3.8 4.33 4.87 5.25 5.65 6.19
3289.530 6.87 7.7 8.8 10.1 11.64 13.13 14.1 14.73 15.44 16.44
3308.823 17.6 19.01 21.15 23.95 26.92 29.4 30.67 30.65 29.9 29.58
3328.117 29.46 28.53 28.4 28.67 26.79 22.84 18.38 14.59 11.67 9.52
3347.410 7.99 6.92 6.03 5.23 4.48 3.88 3.48 3.103 2.6575 2.21374
3366.704 1.766 1.34 1.172 1.14 0.98 0.77 0.79 0.8 0.64 0.51
3385.997 0.35 0.3 0.35 0.28 0.2 0.24 0.27 0.29 0.24 0.24
3405.290 0.42 0.34 0.12 0.06 0.06 0.01 0.03 0.22 0.26 0.17
3424.584 0.15 0.2 0.25 0.25 0.06 0 0.05 0 0.11 0.29
3443.877 0.26 0.16 0.19 0.19 0.23 0.28 0.24 0.25 0.36 0.35
3463.171 0.3 0.31 0.21 0.13 0.25 0.3 0.22 0.31 0.32 0.2
3482.464 0.3 0.37 0.36 0.4 0.38 0.34 0.33 0.39 0.4 0.46
3501.758 0.38 0.24 0.34 0.43 0.53 0.45 0.38 0.45 0.56 0.49
3521.051 0.32 0.4 0.62 0.61 0.39 0.3 0.35 0.55 0.53 0.38
3540.344 0.31 0.42 0.54 0.51 0.54 0.55 0.48 0.46 0.57 0.7
3559.638 0.81 0.76 0.75 0.7 0.68 0.7 0.76 0.81 0.79 0.86
3578.931 0.89 0.92 0.94 1.06 1.09 0.93 0.92 0.91 0.93 1.06
3598.225 0.96 0.81 0.79 0.87 0.94 0.94 0.98 0.99 0.98 1
3617.518 1.07 1.11 1.15 1.196 1.12 1.05 1.1 1.12 1.07 1.1
3636.812 1.221 1.23 1.172 1.249 1.327 1.351 1.268 1.236 1.351 1.377
3656.105 1.349 1.324 1.359 1.262 1.196 1.158 1.03 1.187 1.25 1.192
3675.398 1.177 1.09 1.01 1.06 1.154 1.11 1.12 1.185 1.1 1.09
3694.692 1.258 1.272 1.269 1.316 1.316 1.328 1.276 1.245 1.286 1.298
3713.985 1.282 1.261 1.282 1.327 1.329 1.277 1.294 1.413 1.484 1.456
3733.279 1.488 1.497 1.47 1.605 1.629 1.538 1.461 1.467 1.485 1.406
3752.572 1.411 1.423 1.386 1.536 1.693 1.641 1.544 1.557 1.56 1.471
3771.866 1.501 1.59 1.478 1.382 1.372 1.377 1.312 1.259 1.291 1.311
3791.159 1.354 1.362 1.35 1.312 1.272 1.193 1.205 1.291 1.259 1.266
3810.452 1.391 1.395 1.26 1.159 1.176 1.153 1.07 1.194 1.153 1.11
3829.746 1.09 1.01 1.09 0.99 1.04 1.14 1.13 1.13 1.08 1.06
3849.039 0.9 0.82 0.89 0.94 0.96 0.95 0.87 0.81 0.76 0.76
3868.333 0.79 0.76 0.79 0.86 0.94 0.97 0.98 0.93 0.88 0.93
3887.626 0.95 0.91 0.94 0.98 0.95 0.94 0.96 0.93 0.92 0.99
3906.920 0.96 0.94 1.01 1 1.02 0.94 0.97 1.05 1.02 1.08
3926.213 1.11 1.166 1.242 1.225 1.198 1.297 1.353 1.281 1.249 1.399
3945.506 1.428 1.284 1.252 1.313 1.35 1.265 1.181 1.282 1.292 1.248
3964.800 1.247 1.309 1.296 1.226 1.227 1.14 1.209 1.294 1.254 1.231
3984.093 1.14 1.04 1.05 1.05 0.98 0.98 1 0.98 1.02
##END=
