##TITLE=3-Methyl-3-heptanol
##JCAMP-DX=4.24
##DATA TYPE=INFRARED SPECTRUM
##ORIGIN=NIST Mass Spectrometry Data Center
##OWNER=NIST Standard Reference Data Program
Collection (C) 2018 copyright by the U.S. Secretary of Commerce
on behalf of the United States of America. All rights reserved.
##CAS REGISTRY NO=5582-82-1
##MOLFORM=C 8 H 18 O
##$NIST SOURCE=MSDC-IR
##SPECTROMETER/DATA SYSTEM=HP-GC/MS/IRD
##STATE=gas
##XUNITS=1/CM
##YUNITS=ABSORBANCE
##XFACTOR=1.0
##YFACTOR=0.000001200
##DELTAX=4.0
##FIRSTX=550.0
##LASTX=3846.0
##FIRSTY=0.000278
##MAXX=3846
##MINX=550
##MAXY=0.012
##MINY=0
##NPOINTS=825
##XYDATA=(X++(Y..Y))
550.0 232 130 66 191 204 148 159 86 46 51
590.0 11 6 45 54 57 66 73 56 58 63
630.0 86 113 93 57 100 102 46 68 79 124
670.0 122 84 138 169 169 144 142 162 168 160
710.0 138 201 246 203 213 229 199 237 273 252
750.0 240 254 259 226 217 254 282 284 291 305
790.0 340 326 290 264 221 228 212 168 145 174
830.0 201 167 165 198 251 269 276 296 341 427
870.0 514 572 641 726 787 824 853 864 846 842
910.0 918 1004 1100 1209 1267 1231 1136 1017 870 724
950.0 606 530 505 488 486 544 628 698 780 870
990.0 941 1004 1054 1044 1008 968 891 826 772 714
1030.0 704 698 709 747 762 750 751 757 743 782
1070.0 855 879 870 867 884 892 903 902 905 936
1110.0 955 1008 1084 1162 1276 1365 1423 1489 1556 1630
1150.0 1680 1747 1780 1747 1682 1570 1443 1331 1215 1130
1190.0 1055 1007 958 924 909 898 877 854 859 882
1230.0 898 893 898 931 967 981 990 1021 1033 998
1270.0 980 979 966 952 933 925 948 952 950 940
1310.0 914 889 875 902 925 948 971 951 994 1062
1350.0 1084 1092 1116 1184 1344 1536 1726 1879 1898 1762
1390.0 1521 1225 978 811 696 639 567 499 532 581
1430.0 637 673 769 955 1096 1274 1400 1521 1664 1677
1470.0 1537 1296 1108 911 701 548 461 390 344 230
1510.0 178 225 198 187 230 239 209 173 131 160
1550.0 199 180 150 204 243 245 241 228 237 230
1590.0 228 229 218 209 211 193 174 173 181 193
1630.0 195 165 166 165 138 102 88 117 123 132
1670.0 122 103 87 48 55 103 69 28 39 67
1710.0 84 42 24 78 92 40 3 37 62 51
1750.0 32 55 77 86 67 47 73 93 77 85
1790.0 80 75 75 63 101 107 105 118 105 95
1830.0 106 119 114 73 69 95 106 90 75 71
1870.0 78 99 106 106 97 92 97 100 102 85
1910.0 73 84 80 77 89 88 81 89 74 76
1950.0 93 88 85 82 66 63 72 75 75 68
1990.0 67 87 87 89 84 70 61 53 60 66
2030.0 73 68 57 53 51 56 57 56 52 59
2070.0 59 64 78 65 54 48 38 36 44 48
2110.0 39 37 40 34 30 32 37 30 21 14
2150.0 24 35 42 48 34 24 14 11 20 35
2190.0 43 21 11 23 19 19 10 6 25 25
2230.0 29 22 24 37 25 24 37 31 20 21
2270.0 30 30 27 33 34 35 42 50 46 46
2310.0 58 70 86 98 99 105 111 111 107 92
2350.0 90 113 145 159 137 115 106 98 80 68
2390.0 65 54 43 37 43 55 51 35 35 35
2430.0 30 44 48 48 55 47 40 37 35 22
2470.0 25 33 30 34 28 27 33 32 33 31
2510.0 35 45 49 53 53 58 54 56 79 89
2550.0 86 74 62 63 65 53 46 60 75 72
2590.0 67 74 76 96 107 96 103 103 107 108
2630.0 104 106 127 119 109 123 141 139 131 140
2670.0 148 149 146 150 138 141 153 143 136 151
2710.0 172 174 181 197 210 228 233 245 263 256
2750.0 255 253 258 277 281 265 265 296 323 338
2790.0 336 361 415 457 488 509 552 598 633 706
2830.0 792 894 1019 1182 1390 1629 1952 2308 2685 3072
2870.0 3408 3725 3970 4104 4151 4120 4028 3961 3989 4157
2910.0 4479 4928 5540 6263 7084 7949 8699 9200 9296 9025
2950.0 8607 8328 8459 8997 9651 10000 9803 8955 7566 5981
2990.0 4534 3405 2540 1931 1532 1266 1074 944 844 786
3030.0 724 635 578 544 502 471 442 418 407 394
3070.0 375 359 371 378 343 317 310 299 295 290
3110.0 266 266 257 230 231 230 225 217 194 192
3150.0 221 203 190 191 183 188 191 208 203 187
3190.0 195 169 153 158 148 140 134 131 115 102
3230.0 113 115 93 95 114 113 84 75 83 75
3270.0 61 85 106 100 105 107 106 88 71 83
3310.0 94 109 101 83 86 89 92 84 90 109
3350.0 127 126 121 121 110 109 87 89 90 96
3390.0 109 89 85 116 137 134 136 141 122 114
3430.0 109 110 145 126 108 114 101 85 92 114
3470.0 105 84 72 75 91 101 105 93 59 66
3510.0 102 103 88 75 66 86 83 79 37 25
3550.0 82 89 84 53 0 55 114 92 74 30
3590.0 52 95 107 131 123 108 138 179 238 275
3630.0 364 512 594 623 537 446 401 315 257 198
3670.0 138 111 127 129 88 97 136 129 134 121
3710.0 89 91 92 33 28 72 26 31 28 14
3750.0 44 68 110 124 125 139 133 157 182 174
3790.0 161 153 140 154 186 186 184 153 137 164
3830.0 155 102 79 110 153
##END=
