##TITLE=2-Morpholinoaniline
##JCAMP-DX=4.24
##DATA TYPE=INFRARED SPECTRUM
##ORIGIN=EPA-IR VAPOR PHASE LIBRARY
##OWNER=SRD/NIST
Collection (C) 2018 copyright by the U.S. Secretary of Commerce
on behalf of the United States of America. All rights reserved.
##CAS REGISTRY NO=5585-33-1
##MOLFORM=C 10 H 14 N 2 O
##$NIST SOURCE=MSDC-IR
##STATE=gas
##XUNITS=1/CM
##YUNITS=ABSORBANCE
##XFACTOR=1.
##YFACTOR=0.001
##DELTAX=1.92934
##FIRSTX=549.9
##LASTX=3999.5
##FIRSTY=14.03
##MAXX=3999.53
##MINX=549.863
##MAXY=0.11384
##MINY=0
##NPOINTS=1789
##XYDATA=(X++(Y..Y))
549.863 14.03 14.3 14.73 15.1 15.58 15.95 16.6 17.63 18.37 18.53
569.156 18.81 19.16 19.15 18.88 18.66 18.49 18.26 18.49 18.64 18.71
588.450 19.03 19.31 19.49 19.55 19.78 19.96 20.04 20.24 20.32 20.36
607.743 20.52 20.63 20.63 20.54 20.54 20.62 20.63 20.62 20.67 20.74
627.037 20.92 21.09 21.43 22.04 22.3 22.31 22.13 21.85 21.6 21.14
646.330 20.42 19.48 18.64 17.96 17.41 17.03 16.61 16.14 15.76 15.49
665.624 15.16 14.91 14.73 14.58 14.36 14.1 13.86 13.65 13.57 13.4
684.917 13.28 13.18 12.99 12.85 12.75 12.73 12.79 12.87 12.88 12.85
704.210 12.96 13.16 13.49 14.01 14.72 15.74 17.29 19.42 22.19 25.85
723.504 30.46 36.2 42.92 50.25 57.89 65.58 72.8 78.76 82.77 84.28
742.797 83.25 79.82 74.13 66.84 58.95 51.35 44.4 38.14 32.78 28.39
762.091 24.89 22.29 20.28 18.71 17.53 16.55 15.76 15.01 14.34 13.9
781.384 13.52 13.08 12.69 12.37 12.2 12.05 11.85 11.66 11.63 11.7
800.678 11.67 11.73 11.89 12 12.14 12.24 12.23 12.15 11.84 11.38
819.971 10.98 10.62 10.23 9.93 9.81 9.67 9.86 10.47 11.19 12.16
839.264 13.4 15 16.89 18.89 21 22.75 23.65 23.66 23.11 22.21
858.558 20.5 17.92 15.19 12.82 11.27 10.42 9.86 9.49 9.2 9.03
877.851 9.01 9.07 9.16 9.38 9.71 10.09 10.52 10.92 11.34 11.89
897.145 12.55 13.2 14.02 14.97 16.07 17.5 19.36 21.63 24.31 27.61
916.438 31.75 36.91 42.9 49.64 56.76 63.12 67.75 70.55 71.55 70.46
935.732 67.11 61.51 54.29 46.6 39.2 32.41 26.5 21.62 17.75 14.78
955.025 12.57 11.01 9.88 9.05 8.42 7.93 7.56 7.25 6.93 6.71
974.318 6.59 6.45 6.32 6.21 6.06 5.98 5.93 5.83 5.73 5.74
993.612 5.74 5.71 5.72 5.75 5.78 5.79 5.93 6.15 6.35 6.6
1012.905 7.03 7.62 8.34 9.26 10.43 11.93 13.72 15.56 17.15 18.32
1032.199 19.13 19.61 19.7 19.46 18.86 18 17.24 16.71 16.34 16.04
1051.492 15.77 15.58 15.5 15.39 15.22 15.08 15.11 15.26 15.4 15.57
1070.786 15.88 15.98 15.62 15.19 14.9 14.64 14.41 14.39 14.6 15.13
1090.079 16.04 17.33 19.12 21.55 24.85 28.98 34.08 40.41 47.9 56.36
1109.372 65.68 75.5 85.33 94.67 102.79 109.01 112.72 113.67 111.8 107.13
1128.666 100.18 91.97 83.17 73.9 65.09 57.14 50 43.74 38.38 33.93
1147.959 30.27 27.19 24.86 22.8 20.84 19.28 18.08 17.09 16.02 15.13
1167.253 14.47 14 13.74 13.83 14.06 14.28 14.88 15.59 16.56 18.04
1186.546 19.71 21.9 24.52 27.5 31.04 35.06 39.51 44.31 49.77 55.35
1205.840 60.94 66.67 71.96 75.95 78.24 78.49 76.72 73.1 67.68 61.36
1225.133 54.38 47.26 41.17 36.58 33.51 31.81 31.23 31.61 32.93 35.13
1244.426 37.84 41.49 45.92 50.95 56.18 60.89 64.62 67.16 68.61 68.62
1263.720 67.16 64.63 61.3 57.48 53.58 49.82 46.53 44.05 42.63 42.38
1283.013 42.96 44.07 45.42 46.1 45.75 44.35 42.08 39.09 35.36 31.47
1302.307 27.84 24.88 22.83 21.54 20.89 20.71 20.7 20.67 20.57 20.37
1321.600 19.85 18.89 17.53 15.98 14.41 12.86 11.37 9.98 8.92 8.2
1340.894 7.86 7.8 7.93 8.39 9.04 9.78 10.7 11.77 13 14.39
1360.187 15.86 17.31 18.93 20.78 22.43 23.45 23.61 23.08 22.06 20.59
1379.480 18.61 16.16 13.75 11.87 10.58 9.74 9.15 8.75 8.5 8.33
1398.774 8.23 8.16 8.04 7.89 7.72 7.54 7.33 7.08 6.86 6.71
1418.067 6.57 6.49 6.6 6.74 6.9 7.16 7.56 8.11 8.94 10.06
1437.361 11.72 13.94 16.81 20.47 24.87 29.68 34.22 37.85 40.51 42
1456.654 42.1 40.86 38.48 35.22 31.66 28.24 25.33 23.11 21.8 21.37
1475.948 21.89 23.41 26.01 29.82 34.88 41.61 50.27 60.86 73.44 86.48
1495.241 98.07 106.37 109.59 108.29 103.51 95.35 83.05 68.22 53.49 41.19
1514.534 32.95 27.65 24.16 21.61 19.44 17.71 16.02 14.32 12.71 11.28
1533.828 10.28 9.66 9.3 9.17 9.23 9.42 9.66 9.97 10.4 10.89
1553.121 11.38 11.91 12.45 13.12 13.95 14.82 15.84 16.91 18.23 19.86
1572.415 21.54 23.35 25.44 27.55 29.59 31.66 33.57 35.34 36.96 38.59
1591.708 40.36 42.4 45.11 48.7 53.02 57.93 63.21 68.36 72.56 75.19
1611.002 76.01 75.06 72.28 67.48 61.3 54.33 46.78 39.46 33.07 27.55
1630.295 23 19.42 16.59 14.37 12.74 11.49 10.46 9.63 8.88 8.34
1649.588 7.87 7.35 6.9 6.65 6.42 6.25 6.11 5.93 5.84 5.73
1668.882 5.5 5.4 5.31 5.11 4.95 4.79 4.65 4.54 4.33 4.16
1688.175 4.1 4.04 3.92 3.8 3.61 3.5 3.46 3.36 3.31 3.26
1707.469 3.16 3.03 2.92 2.79 2.69 2.55 2.4619 2.4845 2.4446 2.4839
1726.762 2.54 2.496 2.4638 2.4934 2.55 2.68 2.79 2.87 3.05 3.24
1746.056 3.41 3.53 3.58 3.69 3.81 3.81 3.78 3.74 3.7 3.7
1765.349 3.63 3.44 3.31 3.28 3.15 3.01 2.97 2.93 2.94 2.99
1784.642 2.97 3 3.16 3.16 3.11 3.05 2.98 2.94 2.82 2.72
1803.936 2.63 2.54 2.48 2.4366 2.3758 2.346 2.3235 2.3096 2.3251 2.3401
1823.229 2.4009 2.4425 2.4796 2.56 2.63 2.63 2.64 2.63 2.59 2.56
1842.523 2.52 2.54 2.6 2.67 2.76 2.89 2.96 3.08 3.25 3.39
1861.816 3.52 3.66 3.76 3.83 3.9 3.91 3.91 3.86 3.83 3.79
1881.110 3.66 3.56 3.47 3.34 3.23 3.13 3.1 3.15 3.27 3.42
1900.403 3.61 3.85 4.1 4.33 4.49 4.56 4.54 4.41 4.16 3.91
1919.696 3.62 3.27 2.91 2.69 2.61 2.55 2.56 2.62 2.65 2.65
1938.990 2.69 2.76 2.76 2.82 2.91 2.91 2.94 3 3.05 3.12
1958.283 3.23 3.29 3.31 3.33 3.32 3.35 3.37 3.3 3.24 3.23
1977.577 3.06 2.88 2.77 2.6 2.4763 2.3443 2.182 2.0845 2.0277 1.975
1996.870 1.9494 1.902 1.8642 1.8781 1.8896 1.8934 1.9146 1.938 1.9539 1.9508
2016.164 1.9158 1.925 1.9552 1.9654 1.9447 1.8872 1.8638 1.8239 1.8226 1.8495
2035.457 1.8298 1.7908 1.8452 1.9071 1.8819 1.9104 2.0025 2.1236 2.1104 2.0765
2054.750 2.1437 2.2055 2.2412 2.2239 2.1892 2.1615 2.1351 2.1265 2.144 2.1229
2074.044 2.0394 1.9912 2.0102 2.0072 2.0092 2.0337 2.0936 2.1054 2.0325 2.0475
2093.337 2.0836 2.019 1.9967 2.0325 2.0612 2.0557 2.0018 1.9547 1.9162 1.8926
2112.631 1.8389 1.7727 1.7689 1.7674 1.7324 1.6854 1.6813 1.6341 1.59881 1.6216
2131.924 1.5981 1.6063 1.60555 1.6327 1.6846 1.6285 1.5842 1.54048 1.4854 1.4975
2151.218 1.52832 1.5275 1.50931 1.51254 1.5142 1.4429 1.389 1.4189 1.4674 1.4983
2170.511 1.4865 1.52395 1.5228 1.53529 1.53946 1.51464 1.53551 1.4982 1.53561 1.54924
2189.804 1.50411 1.51372 1.54286 1.55324 1.54004 1.54986 1.53701 1.55167 1.6197 1.6211
2209.098 1.6179 1.6761 1.7097 1.7149 1.7234 1.8034 1.8789 1.8408 1.8585 1.9058
2228.391 1.9316 2.0001 2.0195 2.0498 2.038 1.977 1.9723 1.9573 1.9151 1.8883
2247.685 1.8243 1.7777 1.703 1.635 1.60383 1.57389 1.6304 1.6534 1.635 1.6734
2266.978 1.7099 1.7176 1.7476 1.7698 1.8342 1.9235 1.9139 1.9171 1.9401 1.9015
2286.272 1.9344 1.9962 2.0015 1.9766 1.9753 2.0361 2.097 2.1204 2.1548 2.1702
2305.565 2.199 2.274 2.2832 2.2494 2.2505 2.2273 2.1818 2.1325 2.0742 2.0247
2324.858 1.9532 1.8759 1.7159 1.59836 1.60464 1.5609 1.56944 1.55503 1.4866 1.4715
2344.152 1.4517 1.4243 1.4553 1.50801 1.4979 1.4614 1.4199 1.4141 1.439 1.4671
2363.445 1.4955 1.4686 1.4477 1.4698 1.4927 1.4924 1.50638 1.55288 1.56814 1.57768
2382.739 1.54187 1.4674 1.4502 1.4817 1.53355 1.57749 1.60141 1.6199 1.6851 1.7241
2402.032 1.7058 1.7 1.7637 1.8276 1.8877 1.9482 1.9412 2.0341 2.0792 2.0542
2421.326 2.0665 2.0555 1.9989 1.9307 1.9278 1.9633 1.9389 1.9091 1.9248 1.8708
2440.619 1.829 1.8337 1.8212 1.8134 1.8022 1.7911 1.7826 1.7657 1.7333 1.7058
2459.912 1.7426 1.689 1.629 1.6983 1.7514 1.7715 1.7992 1.8614 1.8571 1.766
2479.206 1.8099 1.8739 1.8322 1.7998 1.7853 1.7412 1.6305 1.60172 1.65 1.6249
2498.499 1.621 1.6408 1.6367 1.6924 1.7709 1.8087 1.8128 1.7969 1.8365 1.9466
2517.793 1.9671 1.9193 1.8817 1.9054 1.9717 2.0389 2.0695 2.0451 2.0483 2.0113
2537.086 1.9676 2.0643 2.1684 2.1787 2.1793 2.1701 2.169 2.1737 2.1919 2.2742
2556.380 2.3235 2.3563 2.3445 2.2736 2.2271 2.2643 2.3624 2.377 2.3359 2.2538
2575.673 2.2267 2.2168 2.2265 2.2475 2.1851 2.1492 2.168 2.1955 2.2287 2.328
2594.966 2.365 2.3624 2.4048 2.4533 2.54 2.55 2.56 2.62 2.61 2.6
2614.260 2.63 2.67 2.66 2.6 2.59 2.53 2.4944 2.4979 2.4613 2.56
2633.553 2.64 2.65 2.69 2.81 2.94 3.04 3.16 3.25 3.37 3.51
2652.847 3.61 3.77 3.99 4.12 4.15 4.28 4.51 4.73 4.97 5.38
2672.140 5.81 6.19 6.58 6.88 7.13 7.39 7.61 7.67 7.51 7.26
2691.434 6.96 6.64 6.37 6.13 5.95 5.82 5.76 5.71 5.68 5.72
2710.727 5.76 5.81 5.92 6.08 6.33 6.61 6.86 7.27 7.69 8.02
2730.020 8.36 8.69 8.94 9.2 9.54 9.8 10.01 10.2 10.36 10.43
2749.314 10.39 10.32 10.22 10.01 9.79 9.54 9.2 8.94 8.69 8.27
2768.607 7.96 7.81 7.63 7.41 7.18 7.12 7.14 7.26 7.42 7.53
2787.901 7.72 8.13 8.77 9.4 9.98 10.74 11.79 12.99 14.24 15.88
2807.194 17.91 20.37 23.55 27.46 32.26 37.84 44.2 51.14 58.34 65.45
2826.488 71.67 76.24 78.65 79.1 78.17 76.18 73.62 71.12 69.55 69.6
2845.781 71.3 74.98 80.31 86.02 90.9 93.51 93.76 92.03 87.51 80.01
2865.074 70.71 61.06 52.37 45.06 39.31 35.22 32.44 30.86 30.17 30.39
2884.368 31.32 32.32 33.47 34.93 36.18 36.79 37.01 37.12 37.06 36.77
2903.661 36.35 35.59 34.72 33.86 32.9 32 31.07 29.97 28.81 27.63
2922.955 26.27 24.82 23.62 22.73 22.14 21.95 22.35 23.38 24.93 27.12
2942.248 30.01 33.31 36.84 41.11 45.92 50.7 55.4 60.66 67.12 74.89
2961.542 84.08 94.21 103.89 111.16 113.84 109.51 99.15 87.57 75.32 60.47
2980.835 45.35 32.92 23.91 17.61 13.35 10.65 8.92 7.88 7.23 6.93
3000.128 6.93 6.89 6.93 7.1 7.49 8.15 8.95 9.95 11.3 12.99
3019.422 14.96 17.18 19.25 21.29 23.17 24.4 25.15 25.64 25.66 25.13
3038.715 24.32 23.37 22.35 21.54 20.9 20.64 20.76 20.89 21.26 21.95
3058.009 22.63 23.25 23.99 24.77 25.49 25.95 26.29 26.55 26.39 25.94
3077.302 25.14 23.95 22.49 20.72 18.84 16.7 14.66 13.01 11.27 9.73
3096.596 8.52 7.41 6.47 5.73 5.16 4.88 4.56 4.07 3.71 3.51
3115.889 3.22 2.9 2.75 2.4506 1.9827 1.8192 1.9603 1.992 1.7765 1.6131
3135.182 1.55533 1.418 1.277 1.203 1.087 1.085 1.081 1.073 1.19 1.204
3154.476 1.25 1.217 1.066 1.183 1.347 1.26 1.192 1.263 1.215 1.174
3173.769 1.191 0.99 1.041 1.095 0.893 0.816 0.788 0.851 0.777 0.662
3193.063 0.728 0.665 0.523 0.49 0.48 0.41 0.527 0.573 0.514 0.595
3212.356 0.578 0.46 0.511 0.44 0.24 0.4 0.5 0.39 0.45 0.49
3231.650 0.36 0.44 0.518 0.46 0.45 0.41 0.26 0.14 0.16 0.19
3250.943 0.19 0.29 0.33 0.4 0.38 0.21 0.2 0.1 0.2 0.32
3270.236 0.35 0.29 0.07 0 0.07 0.26 0.32 0.37 0.32 0.28
3289.530 0.4 0.46 0.42 0.46 0.35 0.21 0.42 0.33 0.36 0.564
3308.823 0.41 0.33 0.39 0.35 0.33 0.523 0.679 0.584 0.46 0.44
3328.117 0.4 0.48 0.592 0.792 0.827 0.66 0.773 1.006 1.346 1.56736
3347.410 1.52357 1.6438 2.2792 3.15 4.02 5.05 6.23 7.29 8.61 10.22
3366.704 11.44 12.49 13.26 13.68 13.82 13.48 12.91 12.03 11.02 10.18
3385.997 9.11 7.98 7.03 6.22 5.56 4.88 4.34 3.86 3.47 3.24
3405.290 3.02 2.85 2.7 2.61 2.5006 2.2944 2.2237 2.2196 2.2856 2.2648
3424.584 2.0536 1.9857 1.84 1.8354 1.9613 1.9711 1.9998 2.0973 2.3775 2.6
3443.877 2.73 3 3.36 3.82 4.25 4.75 5.69 6.49 7.32 8.65
3463.171 9.93 11.3 12.73 14.17 15.5 16.52 17.36 17.71 17.56 17.14
3482.464 16.44 15.37 14.1 12.82 11.51 10.35 9.3 8.21 7.34 6.82
3501.758 6.17 5.49 5.02 4.45 4.2 4.1 3.88 3.75 3.63 3.59
3521.051 3.29 2.98 2.88 2.68 2.4679 2.3114 2.2868 2.0834 1.7994 1.6557
3540.344 1.52725 1.374 1.225 1.082 1.021 0.869 0.783 0.9 0.793 0.695
3559.638 0.725 0.739 0.707 0.586 0.593 0.698 0.754 0.633 0.638 0.633
3578.931 0.564 0.636 0.677 0.643 0.613 0.694 0.782 0.765 0.608 0.672
3598.225 0.82 0.838 0.722 0.603 0.686 0.676 0.54 0.513 0.532 0.556
3617.518 0.688 0.651 0.41 0.39 0.5 0.515 0.38 0.54 0.697 0.573
3636.812 0.576 0.611 0.44 0.28 0.45 0.608 0.654 0.687 0.649 0.676
3656.105 0.713 0.594 0.589 0.549 0.49 0.633 0.641 0.528 0.585 0.664
3675.398 0.662 0.688 0.67 0.518 0.516 0.617 0.677 0.581 0.542 0.742
3694.692 0.864 0.87 0.775 0.778 0.827 0.792 0.791 0.864 0.884 0.903
3713.985 0.985 0.953 0.934 1.058 1.117 1.045 0.961 0.909 0.916 0.908
3733.279 0.858 0.866 0.903 0.949 1.009 0.96 0.891 0.885 0.915 0.958
3752.572 0.92 0.87 0.785 0.72 0.784 0.888 0.959 0.889 0.838 0.921
3771.866 0.983 1.054 1.07 0.974 0.893 1.135 1.223 1.104 1.102 1.034
3791.159 1.061 1.073 0.956 0.991 1.103 1.007 0.958 0.983 0.924 0.945
3810.452 0.914 0.868 0.988 1.07 1.024 1.069 1.049 0.938 0.953 1.113
3829.746 1.114 0.989 1.003 0.983 0.858 0.918 1.03 1.005 0.984 1.065
3849.039 1.074 0.922 0.982 1.001 0.99 1.139 1.278 1.217 1.167 1.216
3868.333 1.173 1.066 1.066 1.207 1.252 1.264 1.303 1.301 1.456 1.4748
3887.626 1.404 1.349 1.397 1.53772 1.4888 1.4983 1.445 1.366 1.324 1.298
3906.920 1.309 1.27 1.268 1.335 1.354 1.402 1.4259 1.402 1.4764 1.494
3926.213 1.52017 1.4568 1.344 1.323 1.287 1.305 1.367 1.4 1.483 1.54376
3945.506 1.51763 1.4941 1.51829 1.6374 1.68 1.6426 1.6283 1.6385 1.6132 1.7035
3964.800 1.9525 2.0464 2.041 2.0121 2.0855 2.2056 2.1521 2.1465 2.1695 2.1305
3984.093 2.1247 2.2473 2.2957 2.2046 2.133 2.1372 2.1553 2.2101 2.2583
##END=
