##TITLE=3,3-Diphenylpropylamine
##JCAMP-DX=4.24
##DATA TYPE=INFRARED SPECTRUM
##ORIGIN=EPA-IR VAPOR PHASE LIBRARY
##OWNER=SRD/NIST
Collection (C) 2018 copyright by the U.S. Secretary of Commerce
on behalf of the United States of America. All rights reserved.
##CAS REGISTRY NO=5586-73-2
##MOLFORM=C 15 H 17 N
##$NIST SOURCE=MSDC-IR
##STATE=gas
##XUNITS=1/CM
##YUNITS=ABSORBANCE
##XFACTOR=1.
##YFACTOR=0.001
##DELTAX=3.85796
##FIRSTX=501.5
##LASTX=4000.7
##FIRSTY=1.61
##MAXX=4000.7
##MINX=501.534
##MAXY=0.04723
##MINY=0.0001619
##NPOINTS=908
##XYDATA=(X++(Y..Y))
501.534 1.61 1.68 1.59 1.84 2.29 2.83 3.63 4.53 5.21 5.33
540.114 4.83 4.27 4.15 4.74 5.64 6.09 5.98 5.33 4.55 4.29
578.693 4.83 5.81 6.56 6.47 5.6 4.59 3.83 3.6 3.94 4.67
617.273 5.33 5.71 5.86 5.82 5.59 5.09 4.45 4.13 4.23 4.56
655.852 5.14 5.92 6.9 8.05 9.26 10.58 12.41 15.54 21.32 30.97
694.432 41.7 47.23 44.9 36.4 27.17 21.27 18.4 17.65 18.26 19.59
733.011 21.43 23.56 25.52 26.84 27.2 26.82 26.13 25.3 24.17 22.72
771.591 21.07 19.42 17.8 16.07 14.16 12.22 10.41 8.85 7.65 6.67
810.170 5.92 5.36 4.97 4.67 4.34 4.12 3.95 3.77 3.66 3.58
848.750 3.48 3.33 3.13 3.02 3 2.97 2.91 2.86 2.85 2.84
887.330 2.82 2.79 2.76 2.81 2.87 2.88 2.75 2.53 2.36 2.16
925.909 1.95 1.88 1.79 1.67 1.62 1.63 1.66 1.65 1.7 1.83
964.489 1.96 2.04 2.12 2.24 2.42 2.54 2.58 2.72 2.93 3.16
1003.068 3.45 3.78 4.09 4.48 5.22 6.54 8.22 9.17 8.78 7.41
1041.648 6.02 5.44 5.54 6.03 6.78 7.65 8.41 8.73 8.36 7.46
1080.227 6.36 5.29 4.32 3.65 3.26 2.87 2.57 2.36 2.25 2.1
1118.807 1.96 1.99 1.97 1.9 1.75 1.54 1.33 1.2 1.25 1.24
1157.387 1.15 1.12 1.13 1.15 1.23 1.45 1.65 1.78 1.74 1.51
1195.966 1.25 1.13 1.17 1.14 1.1 1.14 1.21 1.34 1.47 1.52
1234.546 1.5 1.42 1.33 1.23 1.17 1.15 1.23 1.25 1.22 1.31
1273.125 1.41 1.47 1.54 1.69 1.87 2.06 2.29 2.49 2.57 2.59
1311.705 2.6 2.6 2.67 2.76 2.81 2.84 2.84 2.91 3.08 3.31
1350.284 3.53 3.71 3.8 3.88 4 4.17 4.41 4.57 4.58 4.46
1388.864 4.23 3.88 3.4 2.93 2.52 2.22 2.1 2.12 2.24 2.46
1427.443 2.85 3.51 4.6 6.18 7.96 9.41 9.93 9.04 7.31 6.02
1466.023 5.36 5.25 5.47 6.1 7.73 10.98 15.36 18.19 17.29 13.15
1504.603 8.3 4.93 3.43 2.7 2.34 2.16 2.11 2.12 2.12 2.03
1543.182 1.93 1.85 1.82 1.86 1.97 2.17 2.5 3.03 3.74 4.72
1581.762 5.98 7.46 9.15 10.87 12.07 12.13 10.94 9.17 7.79 7.14
1620.341 6.92 6.66 6.09 5.26 4.35 3.55 2.96 2.56 2.28 2.05
1658.921 1.89 1.74 1.58 1.43 1.32 1.2 1.07 0.9741 0.9198 0.8945
1697.500 0.8777 0.8852 0.9246 0.9453 0.9268 0.9497 1 1.05 1.13 1.23
1736.080 1.31 1.34 1.36 1.33 1.25 1.15 1.08 1.06 1.1 1.19
1774.659 1.32 1.51 1.81 2.25 2.69 2.88 2.71 2.31 1.9 1.62
1813.239 1.45 1.3 1.16 1.04 0.948 0.9052 0.8926 0.9113 0.9558 1.02
1851.819 1.12 1.26 1.41 1.55 1.64 1.72 1.77 1.78 1.72 1.53
1890.398 1.3 1.09 0.9056 0.775 0.7136 0.7096 0.786 0.8958 1.07 1.35
1928.978 1.69 2.08 2.33 2.37 2.31 2.26 2.13 1.81 1.32 0.8564
1967.557 0.5699 0.4347 0.3885 0.3857 0.3633 0.3151 0.2828 0.2566 0.2317 0.223
2006.137 0.2116 0.1904 0.1916 0.2069 0.2263 0.2314 0.2137 0.2121 0.2053 0.2011
2044.716 0.1992 0.1809 0.1833 0.1999 0.1952 0.1844 0.1794 0.1936 0.199 0.1923
2083.296 0.1931 0.1781 0.1767 0.1965 0.2047 0.1798 0.1619 0.1628 0.1667 0.1757
2121.875 0.1797 0.1825 0.1865 0.1719 0.1685 0.1825 0.1755 0.1631 0.1632 0.1695
2160.455 0.1705 0.1789 0.1839 0.1837 0.1855 0.1977 0.2191 0.2289 0.2101 0.2137
2199.035 0.2096 0.1938 0.2219 0.26 0.2514 0.2165 0.2314 0.2418 0.2369 0.2416
2237.614 0.2405 0.2454 0.2579 0.2881 0.3034 0.3082 0.3136 0.3167 0.3288 0.3419
2276.194 0.3581 0.3503 0.3256 0.3162 0.3203 0.3289 0.3339 0.3653 0.4641 0.5452
2314.773 0.5438 0.5269 0.4909 0.4435 0.4451 0.4783 0.4868 0.5015 0.491 0.4279
2353.353 0.406 0.4068 0.3806 0.3719 0.3966 0.4042 0.3768 0.3296 0.2997 0.2819
2391.932 0.2652 0.2705 0.2912 0.2994 0.3064 0.3226 0.3194 0.3063 0.3011 0.3232
2430.512 0.332 0.3222 0.339 0.3495 0.3313 0.3207 0.3299 0.327 0.3223 0.3165
2469.092 0.3044 0.2836 0.293 0.3287 0.3217 0.3199 0.326 0.317 0.3235 0.3229
2507.671 0.3283 0.3451 0.3522 0.3706 0.3644 0.3615 0.3847 0.3881 0.3954 0.3756
2546.251 0.3905 0.4223 0.4078 0.3992 0.3967 0.4109 0.4273 0.4802 0.5176 0.4948
2584.830 0.5184 0.5623 0.5876 0.6053 0.5967 0.5973 0.6018 0.5875 0.5764 0.5655
2623.410 0.5822 0.6185 0.6268 0.6325 0.6656 0.6831 0.6701 0.6756 0.6967 0.7279
2661.989 0.7405 0.7285 0.7453 0.7959 0.8223 0.8225 0.8368 0.8589 0.8784 0.8797
2700.569 0.8717 0.862 0.8782 0.9196 0.9451 0.968 1.02 1.08 1.13 1.19
2739.148 1.26 1.32 1.36 1.41 1.45 1.46 1.47 1.51 1.53 1.55
2777.728 1.56 1.56 1.6 1.63 1.67 1.7 1.73 1.83 1.95 2.08
2816.308 2.26 2.49 2.79 3.2 3.72 4.37 5.14 6.03 7.05 8.19
2854.887 9.46 10.71 11.76 12.51 12.94 13.1 13.04 12.75 12.13 11.21
2893.467 10.16 9.35 8.99 9.14 9.77 10.87 12.58 14.96 17.84 20.86
2932.046 23.43 24.94 24.97 23.37 20.51 17.12 13.74 10.79 8.43 6.61
2970.626 5.29 4.37 3.79 3.44 3.26 3.29 3.49 3.89 4.57 5.43
3009.205 6.43 7.9 10.36 14.06 18.54 22.44 24.06 22.81 19.88 16.9
3047.785 15 14.51 15.64 18.94 24.25 29.07 30.32 27.47 22.5 18.55
3086.364 16.46 14.65 12.49 10.35 8.57 7.18 5.93 4.71 3.59 2.67
3124.944 2.01 1.61 1.31 1.09 1 0.9537 0.9451 0.9383 0.9312 0.9381
3163.524 0.9116 0.8264 0.7179 0.6229 0.5439 0.5154 0.4911 0.4628 0.4733 0.4776
3202.103 0.4974 0.4638 0.4073 0.4044 0.3809 0.3616 0.3422 0.3107 0.3368 0.379
3240.683 0.3974 0.3809 0.3724 0.3652 0.3579 0.3607 0.3456 0.3022 0.2534 0.2466
3279.262 0.2702 0.2935 0.297 0.3287 0.3407 0.3265 0.3281 0.3562 0.3732 0.3242
3317.842 0.3268 0.3753 0.3911 0.4683 0.5839 0.6602 0.7394 0.7943 0.7755 0.6939
3356.421 0.6264 0.5642 0.4827 0.4478 0.4154 0.4088 0.4356 0.4115 0.3903 0.4335
3395.001 0.4544 0.4051 0.433 0.5629 0.6094 0.6512 0.6726 0.5738 0.4893 0.5294
3433.580 0.5159 0.4114 0.4096 0.4283 0.3729 0.3366 0.3296 0.3604 0.3518 0.3041
3472.160 0.308 0.3491 0.3095 0.2654 0.3175 0.3298 0.3628 0.343 0.3179 0.3308
3510.740 0.3342 0.3561 0.3529 0.3473 0.3507 0.3682 0.3784 0.362 0.3257 0.3418
3549.319 0.353 0.3189 0.3242 0.3247 0.328 0.3822 0.4071 0.3979 0.3964 0.3924
3587.899 0.3593 0.3515 0.3972 0.4027 0.3574 0.3621 0.3948 0.4025 0.4441 0.4502
3626.478 0.4146 0.3823 0.399 0.4602 0.5204 0.5233 0.5244 0.5455 0.5429 0.5349
3665.058 0.5143 0.5003 0.5082 0.4711 0.4915 0.5066 0.492 0.5106 0.4833 0.5101
3703.637 0.5259 0.5058 0.4881 0.4508 0.4483 0.4582 0.4277 0.4564 0.4681 0.4156
3742.217 0.413 0.4095 0.3822 0.3625 0.3878 0.3464 0.3095 0.3681 0.402 0.4481
3780.797 0.4583 0.459 0.475 0.4331 0.4032 0.4079 0.379 0.3637 0.4203 0.4372
3819.376 0.4209 0.4142 0.3928 0.3493 0.3839 0.4075 0.3964 0.4333 0.4475 0.4477
3857.956 0.4001 0.4019 0.4202 0.4044 0.4167 0.4317 0.4472 0.4731 0.504 0.4854
3896.535 0.4487 0.458 0.4809 0.5183 0.512 0.496 0.5369 0.5304 0.4723 0.4609
3935.115 0.4423 0.4096 0.4517 0.4701 0.4855 0.4793 0.4498 0.4672 0.487 0.4936
3973.694 0.491 0.4983 0.5147 0.4813 0.4887 0.5393 0.5476 0.5882
##END=
