##TITLE=1,6-Hexane diisothiocyanate
##JCAMP-DX=4.24
##DATA TYPE=INFRARED SPECTRUM
##ORIGIN=EPA-IR VAPOR PHASE LIBRARY
##OWNER=SRD/NIST
Collection (C) 2018 copyright by the U.S. Secretary of Commerce
on behalf of the United States of America. All rights reserved.
##CAS REGISTRY NO=5586-70-9
##MOLFORM=C 8 H 12 N 2 S 2
##$NIST SOURCE=MSDC-IR
##STATE=gas
##XUNITS=1/CM
##YUNITS=ABSORBANCE
##XFACTOR=1.
##YFACTOR=0.001
##DELTAX=1.92898
##FIRSTX=549.8
##LASTX=4000.7
##FIRSTY=13.431
##MAXX=4000.7
##MINX=549.759
##MAXY=0.457731
##MINY=0
##NPOINTS=1790
##XYDATA=(X++(Y..Y))
549.759 13.431 13.271 13.041 12.891 12.911 12.731 12.481 12.041 11.601 10.871
569.049 10.441 10.381 9.951 9.651 9.271 8.711 8.091 7.801 7.611 7.451
588.339 7.331 7.011 6.741 6.241 5.741 5.761 5.691 5.431 5.141 4.941
607.628 4.741 4.451 4.241 3.931 3.671 3.701 3.661 3.641 3.491 3.401
626.918 3.471 3.391 3.301 3.261 3.521 3.581 3.451 3.351 3.451 3.531
646.208 3.491 3.651 3.881 3.991 4.031 4.091 3.961 4.081 4.501 4.551
665.498 4.361 4.361 4.231 3.891 3.681 3.741 3.661 3.341 3.271 3.351
684.787 3.501 3.861 4.091 4.321 4.631 4.921 5.151 5.331 5.771 6.201
704.077 6.471 6.521 6.561 6.751 6.791 6.641 6.621 6.561 6.401 6.511
723.367 6.861 7.171 7.321 7.271 7.431 7.891 7.741 7.491 7.231 6.771
742.657 6.551 6.231 5.741 5.281 4.771 4.341 4.251 4.241 3.861 3.421
761.947 3.301 3.111 2.881 2.791 2.711 2.841 2.891 2.571 2.321 2.281
781.236 2.271 2.181 2.161 2.171 2.011 1.871 1.761 1.731 1.681 1.631
800.526 1.691 1.751 1.841 1.691 1.581 1.651 1.751 1.861 1.821 1.951
819.816 2.061 1.821 1.831 1.931 1.861 1.811 1.831 1.901 1.891 1.881
839.106 1.981 2.001 1.931 1.941 1.971 1.851 1.791 2.061 2.361 2.371
858.395 2.211 2.381 2.441 2.271 2.231 2.161 2.201 2.151 2.061 2.081
877.685 2.171 2.221 2.101 2.001 2.081 2.281 2.271 2.241 2.331 2.481
896.975 2.641 2.801 2.911 2.941 2.981 3.001 3.131 3.221 3.251 3.361
916.265 3.511 3.501 3.711 3.841 3.671 3.761 3.971 4.071 3.951 3.921
935.555 4.061 4.181 4.221 4.061 3.891 3.941 4.151 4.431 4.341 4.231
954.844 4.181 3.871 3.761 3.841 3.971 3.871 3.801 3.741 3.541 3.491
974.134 3.571 3.521 3.461 3.461 3.391 3.281 3.231 3.401 3.601 3.571
993.424 3.661 3.931 3.911 3.711 3.591 3.581 3.671 3.741 3.831 3.651
1012.714 3.611 3.881 3.771 3.711 3.651 3.351 3.521 3.601 3.421 3.201
1032.003 3.171 3.491 3.531 3.481 3.331 3.311 3.461 3.571 3.581 3.491
1051.293 3.401 3.591 3.621 3.531 3.941 4.341 4.241 4.141 4.461 4.231
1070.583 3.781 4.071 4.471 4.331 4.411 4.631 4.671 4.691 4.761 4.741
1089.873 4.831 4.821 4.621 4.651 4.641 4.471 4.021 3.551 3.481 4.011
1109.163 4.261 4.351 4.181 3.811 3.891 3.901 3.761 3.781 3.891 4.001
1128.452 3.871 4.011 4.071 3.671 3.471 3.501 3.421 3.461 3.361 3.131
1147.742 3.391 3.621 3.641 3.581 3.461 3.521 3.731 3.911 3.631 3.331
1167.032 3.301 3.181 3.471 3.711 3.611 3.611 3.711 3.551 3.431 3.811
1186.322 3.811 3.511 3.681 3.651 3.701 3.731 3.771 4.081 3.901 3.701
1205.611 3.671 3.731 3.871 3.851 3.891 4.181 4.301 4.241 4.181 4.241
1224.901 4.301 4.451 4.601 4.641 4.931 5.101 5.101 5.201 5.131 5.391
1244.191 5.721 5.761 5.851 5.931 6.081 6.291 6.181 6.281 6.471 6.311
1263.481 6.361 6.421 6.271 6.211 6.421 6.591 6.741 6.981 7.121 7.411
1282.771 7.871 8.281 8.641 9.201 9.901 10.381 10.941 11.661 12.501 13.311
1302.060 14.041 14.841 15.591 16.221 16.801 17.421 18.031 18.611 19.261 20.021
1321.350 21.001 22.241 23.771 25.711 28.071 30.871 34.161 38.061 42.541 47.431
1340.640 52.731 58.101 63.041 66.951 69.211 69.471 67.861 64.721 60.421 55.481
1359.930 50.471 45.801 41.761 38.271 35.081 32.151 29.291 26.341 23.431 20.641
1379.219 17.951 15.481 13.381 11.621 10.131 8.961 8.021 7.251 6.661 6.161
1398.509 5.681 5.301 5.051 4.851 4.691 4.581 4.441 4.331 4.301 4.261
1417.799 4.281 4.421 4.641 4.911 5.211 5.571 6.061 6.671 7.421 8.291
1437.089 9.431 10.771 12.231 13.821 15.621 17.551 19.781 22.371 25.341 28.661
1456.378 32.071 35.091 36.791 37.121 35.851 32.631 28.101 23.321 19.021 15.391
1475.668 12.421 9.981 8.121 6.731 5.711 4.901 4.301 3.811 3.421 3.181
1494.958 2.891 2.641 2.521 2.321 2.191 2.061 1.861 1.811 1.831 1.771
1514.248 1.631 1.591 1.591 1.451 1.431 1.481 1.411 1.411 1.451 1.461
1533.538 1.411 1.321 1.321 1.261 1.2014 1.2169 1.2157 1.2136 1.082 1.0457
1552.827 1.0841 1.0624 1.0321 0.9763 1.0411 1.0939 1.077 1.0584 0.9716 1.0106
1572.117 1.0526 0.9323 0.9122 1.0061 1.0094 0.9594 0.9454 0.9275 0.9371 0.9527
1591.407 0.9644 0.8947 0.8333 0.844 0.8435 0.8385 0.8639 0.9858 0.9242 0.8383
1610.697 0.8658 0.8782 0.8968 0.7982 0.7506 0.8195 0.8469 0.8898 0.879 0.8092
1629.986 0.8644 0.899 0.8311 0.7756 0.8052 0.9014 0.9164 0.8755 0.857 0.8865
1649.276 0.904 0.8555 0.8431 0.8752 0.8386 0.848 0.89 0.8225 0.8675 0.8456
1668.566 0.7509 0.8335 0.9208 0.8801 0.9138 0.9069 0.8402 0.8223 0.7138 0.744
1687.856 0.8071 0.8447 0.9389 0.9121 0.8206 0.8224 0.7896 0.7883 0.8355 0.8529
1707.146 0.9195 0.9605 0.9518 0.869 0.8402 0.85 0.9073 0.9959 0.9554 0.9441
1726.435 0.9969 0.9553 0.9065 0.8382 0.7374 0.843 0.9539 0.9762 0.9825 0.9471
1745.725 0.9271 0.9357 0.8787 0.8289 0.9235 0.9736 0.9746 1.0209 1.052 1.037
1765.015 1.0597 1.0455 1.0156 1.0361 1.0278 1.1039 1.1151 1.0784 1.1387 1.2007
1784.305 1.206 1.251 1.281 1.2181 1.1682 1.2104 1.2005 1.1943 1.241 1.271
1803.594 1.341 1.331 1.301 1.301 1.361 1.381 1.441 1.511 1.581 1.651
1822.884 1.641 1.631 1.721 1.751 1.761 1.861 1.981 2.101 2.121 2.141
1842.174 2.131 2.151 2.311 2.411 2.561 2.711 2.791 2.851 2.951 3.071
1861.464 3.171 3.341 3.531 3.631 3.741 3.961 4.211 4.421 4.561 4.781
1880.754 5.001 5.201 5.491 5.771 6.021 6.321 6.611 6.881 7.181 7.571
1900.043 7.971 8.331 8.741 9.161 9.551 9.981 10.461 10.951 11.471 12.021
1919.333 12.601 13.161 13.801 14.461 15.101 15.811 16.531 17.301 18.111 19.001
1938.623 19.911 20.771 21.731 22.871 24.031 25.181 26.381 27.671 29.061 30.511
1957.913 32.131 33.881 35.641 37.481 39.501 41.691 43.951 46.411 49.051 51.901
1977.202 54.981 58.221 61.741 65.541 69.621 73.931 78.591 83.621 88.951 94.721
1996.492 100.821 107.281 114.241 121.671 129.531 137.871 146.741 156.081 165.991 176.411
2015.782 187.341 198.941 211.101 223.961 237.411 251.411 266.081 281.311 296.961 312.961
2035.072 329.301 345.581 361.701 377.461 392.451 406.701 419.631 431.061 440.701 448.271
2054.362 453.921 457.231 457.731 455.801 451.451 444.491 435.211 423.791 410.401 395.511
2073.651 379.301 362.041 344.291 326.281 308.301 290.721 273.831 257.711 242.691 228.751
2092.941 215.621 203.461 192.341 182.131 172.711 164.121 156.231 149.031 142.431 136.401
2112.231 130.961 125.901 121.191 116.931 112.941 109.261 105.991 102.771 99.771 97.061
2131.521 94.471 92.181 90.011 87.921 86.001 84.131 82.461 80.871 79.291 77.881
2150.810 76.591 75.321 73.941 72.611 71.381 70.201 69.031 67.861 66.661 65.521
2170.100 64.421 63.391 62.311 61.331 60.441 59.431 58.531 57.791 57.061 56.341
2189.390 55.671 54.991 54.361 53.751 53.051 52.321 51.471 50.391 49.281 48.141
2208.680 46.861 45.451 43.911 42.301 40.601 38.781 36.961 35.161 33.411 31.641
2227.970 29.871 28.171 26.551 25.001 23.571 22.221 20.901 19.701 18.621 17.561
2247.259 16.591 15.671 14.821 14.051 13.341 12.741 12.181 11.631 11.071 10.581
2266.549 10.151 9.691 9.271 8.891 8.521 8.191 7.911 7.681 7.451 7.181
2285.839 6.931 6.691 6.451 6.221 5.961 5.771 5.591 5.381 5.241 5.051
2305.129 4.841 4.641 4.461 4.371 4.221 4.031 3.931 3.811 3.671 3.541
2324.418 3.391 3.341 3.311 3.211 3.081 2.971 2.891 2.781 2.721 2.661
2343.708 2.581 2.571 2.531 2.501 2.381 2.191 2.191 2.191 2.081 2.051
2362.998 1.991 1.971 1.961 1.891 1.831 1.831 1.801 1.731 1.741 1.781
2382.288 1.701 1.631 1.621 1.561 1.551 1.531 1.491 1.521 1.541 1.521
2401.578 1.431 1.381 1.381 1.361 1.391 1.401 1.361 1.381 1.401 1.351
2420.867 1.331 1.381 1.411 1.391 1.381 1.371 1.401 1.491 1.471 1.341
2440.157 1.341 1.411 1.421 1.381 1.351 1.311 1.311 1.371 1.411 1.391
2459.447 1.341 1.341 1.351 1.391 1.441 1.361 1.331 1.381 1.421 1.421
2478.737 1.431 1.471 1.461 1.381 1.361 1.461 1.491 1.441 1.411 1.451
2498.026 1.461 1.471 1.471 1.461 1.521 1.551 1.611 1.621 1.571 1.621
2517.316 1.731 1.781 1.791 1.811 1.811 1.851 1.851 1.791 1.821 1.831
2536.606 1.801 1.891 2.041 2.041 2.061 2.071 2.051 2.031 2.101 2.201
2555.896 2.241 2.231 2.211 2.201 2.151 2.171 2.251 2.261 2.271 2.331
2575.186 2.391 2.351 2.301 2.361 2.401 2.341 2.301 2.301 2.281 2.261
2594.475 2.241 2.191 2.151 2.071 1.941 1.871 1.891 1.851 1.841 1.841
2613.765 1.811 1.781 1.751 1.701 1.671 1.701 1.741 1.711 1.641 1.681
2633.055 1.671 1.621 1.631 1.721 1.811 1.761 1.771 1.831 1.891 1.911
2652.345 1.911 2.011 2.061 2.061 2.231 2.421 2.421 2.431 2.511 2.651
2671.634 2.811 2.951 3.111 3.221 3.381 3.551 3.701 3.861 4.001 4.161
2690.924 4.271 4.431 4.551 4.611 4.671 4.801 4.991 5.091 5.261 5.441
2710.214 5.621 5.801 5.981 6.171 6.371 6.581 6.801 6.981 7.121 7.231
2729.504 7.341 7.451 7.501 7.451 7.371 7.361 7.251 7.031 6.901 6.761
2748.794 6.551 6.401 6.201 5.991 5.781 5.601 5.511 5.431 5.251 5.071
2768.083 5.001 4.891 4.791 4.801 4.661 4.351 4.211 4.281 4.301 4.231
2787.373 4.221 4.201 4.071 4.101 4.221 4.131 4.191 4.231 4.211 4.291
2806.663 4.351 4.401 4.361 4.361 4.361 4.371 4.331 4.321 4.411 4.511
2825.953 4.601 4.701 4.741 4.721 4.881 5.081 5.341 5.601 5.891 6.281
2845.242 6.761 7.481 8.281 9.271 10.601 12.031 13.751 15.601 17.371 19.401
2864.532 21.211 22.641 23.891 24.851 25.491 25.941 26.141 26.591 27.091 27.281
2883.822 27.531 27.561 27.181 26.601 25.701 24.511 23.301 22.081 21.011 20.311
2903.112 19.891 19.601 19.691 20.211 20.991 22.151 23.561 25.211 27.241 29.351
2922.401 31.581 33.961 36.391 38.921 41.581 44.551 48.071 52.521 57.701 63.421
2941.691 69.781 76.491 82.801 88.131 92.011 93.871 93.381 90.231 84.491 76.791
2960.981 67.841 58.661 49.781 41.571 34.481 28.711 24.031 20.181 17.291 15.021
2980.271 13.011 11.361 10.091 9.041 8.151 7.461 6.871 6.331 5.851 5.421
2999.561 5.061 4.691 4.351 4.171 4.001 3.791 3.501 3.291 3.231 3.161
3018.850 3.051 2.801 2.511 2.311 2.301 2.301 2.211 2.171 2.091 2.031
3038.140 1.951 1.941 1.971 1.851 1.791 1.741 1.611 1.531 1.441 1.501
3057.430 1.491 1.351 1.431 1.361 1.1886 1.2185 1.261 1.261 1.1089 0.9346
3076.720 1.0318 1.1462 1.1074 0.9788 0.8629 0.9108 0.9763 0.9845 0.9429 0.865
3096.009 0.85 0.9003 0.8227 0.7808 0.8698 0.8616 0.7476 0.7052 0.7075 0.6962
3115.299 0.729 0.6139 0.5413 0.6486 0.5958 0.5077 0.6167 0.7386 0.7265 0.6655
3134.589 0.6503 0.5496 0.4397 0.4844 0.5103 0.5757 0.5434 0.5046 0.5634 0.4333
3153.879 0.2468 0.26029 0.3675 0.3988 0.3635 0.409 0.5263 0.4687 0.4072 0.4131
3173.169 0.3707 0.3863 0.5233 0.551 0.544 0.492 0.5077 0.5525 0.4935 0.5175
3192.458 0.4239 0.4397 0.4529 0.3924 0.4019 0.467 0.4429 0.3506 0.3486 0.3359
3211.748 0.338 0.30087 0.29264 0.4099 0.4355 0.3877 0.3475 0.28732 0.29318 0.1923
3231.038 0.1729 0.24403 0.24147 0.235892 0.2201 0.26727 0.25586 0.240126 0.24935 0.2103
3250.328 0.2085 0.25279 0.1996 0.1982 0.31997 0.239989 0.092 0.075 0.046 0
3269.617 0.102 0.2292 0.236382 0.076 0.039 0.091 0.106 0.2001 0.1824 0.1426
3288.907 0.1676 0.2517 0.31586 0.2018 0.1481 0.2004 0.12 0.121 0.1574 0.1558
3308.197 0.2183 0.2028 0.13 0.076 0.054 0.061 0.104 0.1487 0.1661 0.1352
3327.487 0.121 0.1404 0.219 0.1664 0.079 0.22737 0.3523 0.237441 0.114 0.176
3346.777 0.3532 0.3328 0.1634 0.1804 0.1992 0.1513 0.1347 0.1679 0.2157 0.11
3366.066 0.015 0.1751 0.29607 0.236296 0.24686 0.25259 0.27447 0.2105 0.074 0.142
3385.356 0.24389 0.3608 0.230979 0.125 0.236116 0.32539 0.30384 0.22302 0.1983 0.26121
3404.646 0.3086 0.30264 0.25883 0.1811 0.2172 0.1557 0.1644 0.1641 0.1755 0.3334
3423.936 0.4457 0.32841 0.22723 0.22784 0.087 0.13 0.26086 0.31951 0.4027 0.3954
3443.225 0.31713 0.3411 0.3442 0.24392 0.3493 0.3641 0.28973 0.232804 0.1458 0.1561
3462.515 0.22501 0.3867 0.4386 0.3483 0.24356 0.31841 0.4105 0.3795 0.3994 0.5086
3481.805 0.4598 0.3807 0.3378 0.2172 0.26183 0.30009 0.27065 0.25637 0.1879 0.29151
3501.095 0.30484 0.1804 0.127 0.088 0.065 0.1874 0.3492 0.2972 0.22361 0.3379
3520.385 0.3354 0.2008 0.129 0.101 0.1639 0.26416 0.31575 0.32307 0.3448 0.27223
3539.674 0.26594 0.236715 0.1 0.114 0.1951 0.28111 0.26692 0.25971 0.22829 0.1495
3558.964 0.1655 0.122 0.22542 0.27701 0.231133 0.30422 0.28671 0.1347 0.061 0.077
3578.254 0.1777 0.25511 0.218 0.2182 0.1634 0.1 0.133 0.118 0.1976 0.25453
3597.544 0.235443 0.31708 0.3696 0.3457 0.2119 0.1668 0.1549 0.2169 0.30984 0.1479
3616.833 0.09 0.1488 0.039 0.037 0.1864 0.32598 0.31818 0.32707 0.4365 0.3498
3636.123 0.24447 0.26311 0.29957 0.3732 0.3297 0.1496 0.1881 0.3422 0.335 0.1829
3655.413 0.1862 0.234656 0.22932 0.32263 0.3511 0.3324 0.3717 0.3624 0.22689 0.1754
3674.703 0.26412 0.25856 0.2079 0.1542 0.22425 0.25047 0.22509 0.3391 0.3321 0.235757
3693.993 0.2057 0.30563 0.2667 0.183 0.31612 0.27023 0.1912 0.27017 0.30757 0.25147
3713.282 0.153 0.27564 0.3534 0.27403 0.174 0.31477 0.3657 0.2163 0.29572 0.3554
3732.572 0.3816 0.22293 0.059 0.237869 0.4363 0.4554 0.4844 0.5407 0.3498 0.1649
3751.862 0.25498 0.32805 0.3836 0.5358 0.5145 0.4825 0.4378 0.29134 0.3352 0.30394
3771.152 0.4389 0.5392 0.4272 0.405 0.3489 0.4222 0.3606 0.4001 0.508 0.30185
3790.441 0.3319 0.4239 0.4535 0.5282 0.4926 0.4986 0.5068 0.5131 0.591 0.5665
3809.731 0.5098 0.6737 0.6247 0.4388 0.3901 0.3177 0.3659 0.4657 0.5778 0.5612
3829.021 0.4719 0.3999 0.4531 0.4969 0.32866 0.3758 0.4754 0.4329 0.3399 0.3634
3848.311 0.5564 0.4573 0.213 0.25418 0.27682 0.4553 0.6681 0.603 0.5518 0.6037
3867.601 0.5972 0.4401 0.538 0.6692 0.6164 0.6817 0.6028 0.6774 0.7084 0.5251
3886.890 0.5626 0.6805 0.8282 0.8974 0.6913 0.5641 0.6387 0.57 0.5337 0.6086
3906.180 0.6462 0.644 0.7729 0.7758 0.7311 0.8036 0.6618 0.6007 0.7397 0.7518
3925.470 0.6534 0.6984 0.7511 0.7885 0.8297 0.8544 0.8768 0.8494 0.835 0.839
3944.760 0.9624 0.8755 0.8028 0.9502 0.9243 0.95 1.0629 1.0964 1.0093 0.9786
3964.049 1.0989 1.1441 1.166 1.1987 1.271 1.271 1.271 1.301 1.271 1.2272
3983.339 1.1888 1.291 1.451 1.551 1.601 1.681 1.741 1.841 1.841 1.701
##END=
