##TITLE=Chlorpyrifos
##JCAMP-DX=4.24
##DATA TYPE=INFRARED SPECTRUM
##ORIGIN=NIST Mass Spectrometry Data Center
##OWNER=NIST Standard Reference Data Program
Collection (C) 2018 copyright by the U.S. Secretary of Commerce
on behalf of the United States of America. All rights reserved.
##CAS REGISTRY NO=5598-15-2
##MOLFORM=C 9 H 11 Cl 3 N O 4 P
##$NIST SOURCE=MSDC-IR
##SPECTROMETER/DATA SYSTEM=HP-GC/MS/IRD
##STATE=gas
##XUNITS=1/CM
##YUNITS=ABSORBANCE
##XFACTOR=1.0
##YFACTOR=0.000026300
##DELTAX=4.0
##FIRSTX=550.0
##LASTX=3846.0
##FIRSTY=0.009889
##MAXX=3846
##MINX=550
##MAXY=0.263
##MINY=0
##NPOINTS=825
##XYDATA=(X++(Y..Y))
550.0 376 535 288 223 177 202 273 401 584 715
590.0 658 452 267 162 102 65 39 22 10 4
630.0 10 26 55 103 174 246 268 243 242 323
670.0 474 572 505 363 276 258 269 289 312 328
710.0 340 352 365 373 379 391 425 493 594 716
750.0 834 913 935 915 872 812 743 677 623 597
790.0 605 647 708 771 822 856 870 877 889 921
830.0 997 1143 1401 1848 2600 3765 5211 6349 6447 5391
870.0 3844 2528 1694 1230 989 892 904 947 874 716
910.0 611 586 618 695 821 1008 1279 1655 2147 2711
950.0 3231 3591 3851 4254 5003 5851 6072 5320 4133 3133
990.0 2466 2055 1836 1771 1845 2060 2436 3008 3845 5014
1030.0 6507 8138 9468 10000 9610 8728 7957 7605 7581 7556
1070.0 7204 6532 5857 5348 4836 4145 3390 2784 2341 1973
1110.0 1657 1405 1223 1101 1019 972 956 969 1012 1097
1150.0 1261 1588 2096 2407 2114 1489 1063 869 751 664
1190.0 600 560 544 555 603 703 865 1080 1266 1291
1230.0 1105 834 631 535 516 546 626 767 984 1303
1270.0 1718 2154 2453 2493 2364 2335 2574 3002 3355 3452
1310.0 3357 3200 3031 2844 2652 2521 2459 2319 1980 1553
1350.0 1233 1067 1004 1020 1129 1328 1546 1725 1984 2494
1390.0 3292 4272 5264 6229 7291 8265 8628 8162 7214 6122
1430.0 4953 3796 2805 2099 1623 1288 1038 852 722 629
1470.0 556 499 454 421 385 348 325 314 315 327
1510.0 358 415 514 676 928 1283 1700 2015 2007 1659
1550.0 1197 841 627 534 523 508 434 325 237 183
1590.0 148 125 110 100 92 84 79 73 67 62
1630.0 58 54 52 50 45 39 34 34 35 36
1670.0 37 37 38 38 35 35 32 31 33 35
1710.0 38 40 42 45 47 44 39 39 38 37
1750.0 38 39 39 41 42 45 49 58 67 78
1790.0 92 97 92 81 72 67 66 64 65 66
1830.0 69 71 71 67 61 57 55 54 54 53
1870.0 51 50 47 44 41 37 31 27 25 20
1910.0 16 14 11 8 7 6 4 4 3 2
1950.0 2 1 0 0 0 0 0 1 0 0
1990.0 1 0 0 1 3 4 7 8 8 8
2030.0 7 6 5 3 1 1 0 1 4 5
2070.0 8 11 14 16 18 20 18 16 12 9
2110.0 7 4 3 1 0 0 1 0 1 2
2150.0 3 3 4 6 5 5 7 6 7 6
2190.0 5 4 5 5 6 6 7 7 8 9
2230.0 11 12 13 14 13 12 11 9 9 8
2270.0 7 7 6 7 6 7 7 8 9 9
2310.0 8 9 10 9 9 8 6 8 9 10
2350.0 11 12 12 13 16 18 19 20 20 19
2390.0 18 17 15 12 9 7 6 7 6 7
2430.0 8 9 9 9 12 11 12 13 14 15
2470.0 16 17 17 18 22 25 28 30 31 30
2510.0 27 25 23 22 22 23 24 26 28 29
2550.0 29 27 23 21 17 14 12 9 7 5
2590.0 5 7 8 8 9 11 12 13 13 11
2630.0 10 10 9 8 8 7 6 8 9 11
2670.0 11 12 11 11 12 11 9 10 10 11
2710.0 11 13 16 18 24 31 39 43 46 49
2750.0 54 60 62 63 62 59 54 53 52 50
2790.0 47 43 40 40 39 40 41 43 46 49
2830.0 52 56 59 60 65 72 79 90 104 124
2870.0 150 183 220 250 261 258 258 272 302 342
2910.0 389 436 477 506 530 575 677 829 936 908
2950.0 775 647 581 576 615 690 797 948 1146 1337
2990.0 1400 1307 1166 1031 881 732 606 509 426 352
3030.0 289 239 197 164 138 117 100 86 77 69
3070.0 63 61 62 58 50 43 39 36 35 33
3110.0 30 28 28 27 26 25 24 23 22 20
3150.0 20 21 21 19 18 17 16 17 18 15
3190.0 13 14 16 17 16 14 14 15 15 13
3230.0 12 11 11 10 9 8 6 8 8 6
3270.0 6 8 7 5 4 4 5 6 6 6
3310.0 4 4 6 5 4 3 3 4 5 5
3350.0 6 6 7 7 6 4 3 5 6 5
3390.0 4 5 4 5 6 5 6 5 6 7
3430.0 8 7 4 3 4 5 6 6 7 6
3470.0 5 5 6 6 5 6 7 7 6 6
3510.0 5 4 5 5 4 5 7 6 4 5
3550.0 7 8 7 6 5 5 7 8 11 12
3590.0 14 14 13 12 9 7 6 7 9 8
3630.0 6 7 7 10 9 7 7 8 10 8
3670.0 7 6 9 11 8 8 9 8 9 8
3710.0 7 8 10 9 8 11 12 12 11 13
3750.0 10 9 11 13 12 13 14 14 13 12
3790.0 12 13 13 12 12 13 12 12 10 10
3830.0 11 10 11 9 12
##END=
