##TITLE=Parathion
##JCAMP-DX=4.24
##DATA TYPE=INFRARED SPECTRUM
##ORIGIN=NIST Mass Spectrometry Data Center
##OWNER=NIST Standard Reference Data Program
Collection (C) 2018 copyright by the U.S. Secretary of Commerce
on behalf of the United States of America. All rights reserved.
##CAS REGISTRY NO=56-38-2
##MOLFORM=C 10 H 14 N O 5 P S
##$NIST SOURCE=MSDC-IR
##SPECTROMETER/DATA SYSTEM=HP-GC/MS/IRD
##STATE=gas
##XUNITS=1/CM
##YUNITS=ABSORBANCE
##XFACTOR=1.0
##YFACTOR=0.000012400
##DELTAX=4.0
##FIRSTX=550.0
##LASTX=3846.0
##FIRSTY=0.000893
##MAXX=3846
##MINX=550
##MAXY=0.124
##MINY=0
##NPOINTS=825
##XYDATA=(X++(Y..Y))
550.0 72 44 0 8 17 27 36 52 62 81
590.0 104 114 115 108 93 84 85 95 115 144
630.0 194 266 369 488 567 572 521 454 401 365
670.0 345 345 358 368 367 341 301 260 225 206
710.0 196 200 220 249 291 360 476 665 955 1342
750.0 1783 2278 2778 2952 2526 1814 1347 1227 1278 1382
790.0 1497 1620 1756 1930 2163 2461 2804 3161 3446 3482
830.0 3174 2662 2211 2010 2097 2391 2708 2804 2533 2029
870.0 1568 1285 1167 1172 1275 1467 1773 2242 2942 3951
910.0 5307 6981 8765 10000 9798 8190 6255 4893 4273 4191
950.0 4399 4665 4813 4750 4476 4048 3527 2989 2495 2102
990.0 1846 1735 1777 1982 2403 3063 3846 4734 5880 7271
1030.0 8609 9539 9844 9583 9042 8516 8105 7702 7108 6212
1070.0 5127 4098 3326 2855 2624 2566 2574 2506 2320 2124
1110.0 1960 1735 1459 1242 1118 1064 1053 1073 1123 1206
1150.0 1343 1585 1944 2177 2021 1606 1273 1111 1031 991
1190.0 992 1049 1193 1468 1932 2658 3642 4695 5595 6318
1230.0 6693 6192 4797 3281 2238 1645 1309 1103 963 863
1270.0 790 746 726 718 703 682 656 631 614 603
1310.0 598 605 645 746 940 1278 1830 2679 3812 4858
1350.0 5160 4476 3412 2595 2067 1684 1378 1136 976 917
1390.0 927 924 842 699 569 484 440 420 415 421
1430.0 428 434 448 471 496 526 559 609 673 755
1470.0 869 1074 1449 2132 3227 4367 4594 3620 2418 1749
1510.0 1505 1497 1641 1932 2357 2874 3392 3758 3837 3582
1550.0 3053 2428 1865 1450 1214 1121 1179 1415 1843 2426
1590.0 2912 2938 2472 1936 1643 1504 1360 1153 902 659
1630.0 471 345 266 222 195 180 176 177 179 180
1670.0 175 169 161 151 137 126 113 101 94 89
1710.0 84 78 76 73 72 68 69 71 73 77
1750.0 82 89 99 112 123 126 120 107 94 90
1790.0 91 96 103 114 127 136 143 147 147 145
1830.0 143 139 136 135 133 132 129 126 123 117
1870.0 111 105 100 96 95 98 104 112 118 120
1910.0 117 106 94 80 65 53 43 37 34 32
1950.0 31 32 34 38 43 49 56 63 68 70
1990.0 69 64 55 43 33 26 22 21 21 22
2030.0 21 16 13 12 11 11 12 11 13 16
2070.0 21 24 27 31 34 31 26 23 19 17
2110.0 18 17 16 15 13 13 13 15 13 12
2150.0 11 9 10 9 10 9 8 7 7 6
2190.0 6 9 11 11 13 14 14 13 13 11
2230.0 10 12 14 16 17 18 19 19 20 19
2270.0 18 17 17 13 9 10 9 8 8 6
2310.0 8 9 9 10 10 9 11 14 16 18
2350.0 18 16 17 19 19 21 24 26 29 31
2390.0 31 29 28 26 25 27 31 33 36 40
2430.0 48 56 63 71 78 79 78 75 71 63
2470.0 52 45 38 32 29 27 25 25 25 27
2510.0 28 26 23 21 19 18 16 14 12 12
2550.0 14 15 15 17 23 26 26 25 25 27
2590.0 28 33 36 34 32 29 29 28 23 19
2630.0 16 14 13 14 15 15 16 16 14 14
2670.0 16 19 20 22 27 26 28 33 36 35
2710.0 32 30 33 36 37 37 36 35 31 31
2750.0 34 37 40 42 43 47 52 54 53 49
2790.0 45 43 44 49 51 54 60 66 72 81
2830.0 87 92 100 109 116 131 150 167 187 217
2870.0 254 293 328 356 373 378 384 402 437 484
2910.0 532 565 569 559 569 624 736 877 984 995
2950.0 909 800 737 742 804 900 1014 1169 1382 1577
2990.0 1613 1496 1317 1103 888 723 606 515 435 363
3030.0 302 252 213 182 159 139 124 114 106 103
3070.0 102 106 117 131 150 162 146 116 90 77
3110.0 66 58 56 52 49 44 41 41 40 38
3150.0 33 32 33 32 28 28 29 32 34 35
3190.0 36 35 36 36 36 34 35 34 35 34
3230.0 31 27 25 21 18 15 13 13 14 12
3270.0 9 8 8 9 8 5 7 10 12 12
3310.0 13 14 10 12 11 13 16 14 12 9
3350.0 9 10 8 10 9 13 13 7 7 11
3390.0 10 9 9 8 7 9 9 10 10 8
3430.0 7 6 5 9 14 13 11 11 9 7
3470.0 6 8 10 8 9 12 11 9 5 5
3510.0 10 10 7 6 11 14 10 10 10 7
3550.0 9 11 10 9 9 5 8 12 9 7
3590.0 6 7 12 13 11 8 9 13 13 11
3630.0 12 12 13 14 16 15 12 12 14 15
3670.0 17 19 18 14 16 19 20 19 19 20
3710.0 23 20 18 22 23 25 22 19 18 21
3750.0 24 25 22 18 21 23 22 19 19 18
3790.0 16 17 19 23 20 17 20 25 22 17
3830.0 19 19 18 16 16
##END=
