##TITLE=1,3-Diphenyl-1,1,3,3-tetramethyldisiloxane
##JCAMP-DX=4.24
##DATA TYPE=INFRARED SPECTRUM
##ORIGIN=EPA-IR VAPOR PHASE LIBRARY
##OWNER=SRD/NIST
Collection (C) 2018 copyright by the U.S. Secretary of Commerce
on behalf of the United States of America. All rights reserved.
##CAS REGISTRY NO=56-33-7
##MOLFORM=C 16 H 22 O Si 2
##$NIST SOURCE=MSDC-IR
##STATE=gas
##XUNITS=1/CM
##YUNITS=ABSORBANCE
##XFACTOR=1.
##YFACTOR=0.001
##DELTAX=1.92934
##FIRSTX=549.9
##LASTX=3999.5
##FIRSTY=9.04
##MAXX=3999.53
##MINX=549.863
##MAXY=0.37173
##MINY=0
##NPOINTS=1789
##XYDATA=(X++(Y..Y))
549.863 9.04 9.16 9.04 8.78 8.52 8.01 7.67 7.39 7 6.75
569.156 6.54 6.39 6.18 5.93 5.77 5.79 5.61 5.28 5.26 5.26
588.450 5.2 5.13 4.99 5 5.07 5.04 5.02 5.09 5.19 5.34
607.743 5.55 5.71 5.77 5.95 6.17 6.28 6.37 6.47 6.6 6.75
627.037 7.04 7.56 8.28 9.27 10.81 12.91 15.43 18.32 21.22 23.64
646.330 25.1 25.4 24.51 22.86 21.01 19.28 18.17 17.69 17.75 18.41
665.624 19.55 21 22.78 24.82 27.03 29.43 32.24 35.59 39.48 44.12
684.917 49.77 56.37 64.07 72.67 81.63 90.46 98.34 104.36 107.75 108.18
704.210 105.83 101.36 95.64 89.67 84.4 80.42 78.11 77.37 77.81 79.04
723.504 80.58 82.15 83.45 84.04 83.45 81.46 78.22 73.89 68.91 63.88
742.797 59.17 54.93 51.26 48.13 45.52 43.43 41.75 40.52 39.83 39.68
762.091 40.3 41.78 44.17 47.74 52.8 59.56 68.47 79.94 94.32 111.6
781.384 131.26 152.37 173.31 191.92 206.18 215.75 221.66 224.51 223.72 218.24
800.678 207.58 192.04 173.07 153.44 136.19 123.03 114.37 110.07 109.66 112.89
819.971 119.58 129.43 141.88 156.15 171.01 184.6 194.94 200.33 199.77 193.19
839.264 181.37 165.98 149.04 132.25 116.77 103.18 91.6 81.93 73.96 67.37
858.558 61.83 57.08 53.08 49.65 46.63 44.01 41.62 39.42 37.47 35.62
877.851 33.87 32.17 30.59 29.13 27.62 26.21 24.85 23.5 22.26 21.06
897.145 19.94 18.89 17.92 17 16.14 15.33 14.59 13.91 13.29 12.8
916.438 12.33 11.9 11.5 11.12 10.87 10.65 10.45 10.32 10.18 10.07
935.732 10.05 10.04 10.01 9.99 10.01 10.01 10 10.06 10.17 10.3
955.025 10.44 10.62 10.89 11.16 11.44 11.83 12.25 12.68 13.18 13.78
974.318 14.43 15.18 16.12 17.15 18.29 19.66 21.29 23.3 26.04 30.07
993.612 35.45 40.41 43.33 44.5 44.37 42.85 41.18 41.8 44.71 48.81
1012.905 53.73 59.43 65.97 73.53 82.21 91.58 100.33 107.1 111.99 116.24
1032.199 121.2 128.31 139.25 154.22 171.93 191.43 212.17 233.8 256.07 278.36
1051.492 300.09 320.5 338.56 353.52 364.52 370.7 371.73 367.56 358.2 344.41
1070.786 326.91 306.72 285.03 262.71 240.5 219.38 199.76 181.71 165.64 151.44
1090.079 139.04 128.4 119.48 112.38 107.17 104.12 103.71 106.78 114.27 127.01
1109.372 145.26 167.91 191.5 210.31 218.87 214.42 196.9 169.15 137.18 107.44
1128.666 83.89 66.73 54.45 45.61 38.96 33.77 29.78 26.59 23.81 21.48
1147.959 19.53 17.85 16.44 15.28 14.31 13.34 12.43 11.81 11.18 10.48
1167.253 9.87 9.4 8.94 8.54 8.12 7.89 7.86 7.82 7.98 8.2
1186.546 8.46 8.89 9.41 9.63 9.59 9.29 8.63 8.09 7.47 7.08
1205.840 6.9 6.49 6.36 6.62 6.92 7.3 7.81 8.3 9.11 10.13
1225.133 11.24 12.44 13.79 15.45 17.68 20.25 23.21 26.69 30.98 36.65
1244.426 43.93 53.33 65.76 81.74 101.02 122.82 144.93 163.01 172.2 170.01
1263.720 157.2 136.81 112.66 88.77 68.4 52.73 41.29 33.31 27.93 24.3
1283.013 21.82 20.06 18.74 17.8 17.14 16.52 15.87 15.37 14.9 14.37
1302.307 13.98 13.65 13.24 12.86 12.52 12.21 11.98 11.75 11.51 11.24
1321.600 10.94 10.61 10.28 9.95 9.61 9.28 8.95 8.66 8.37 8.1
1340.894 7.92 7.78 7.58 7.37 7.19 7.12 7.03 6.92 6.89 6.82
1360.187 6.77 6.77 6.81 6.79 6.77 6.77 6.77 6.8 6.86 6.95
1379.480 7.08 7.24 7.47 7.77 8.18 8.72 9.38 10.07 10.8 11.7
1398.774 12.69 13.61 14.55 15.62 16.7 17.72 18.7 19.71 20.75 21.76
1418.067 22.66 23.55 24.37 24.92 25.07 24.84 24.19 23.07 21.57 19.84
1437.361 17.96 16.21 14.52 12.97 11.7 10.6 9.63 8.84 8.19 7.54
1456.654 6.9 6.45 6.12 5.81 5.56 5.38 5.24 5.11 5.01 4.97
1475.948 4.98 5.09 5.29 5.56 5.87 6.1 6.14 5.98 5.63 5.09
1495.241 4.51 4.0597 3.8612 3.7674 3.7042 3.5879 3.4387 3.4776 3.5646 3.5779
1514.534 3.5823 3.6106 3.6557 3.6518 3.6518 3.661 3.6973 3.7715 3.8359 3.8698
1533.828 3.9573 4.0561 4.1032 4.1943 4.29 4.35 4.42 4.48 4.53 4.63
1553.121 4.6 4.6 4.69 4.76 4.94 5.1 5.28 5.45 5.59 5.81
1572.415 6.06 6.27 6.55 7.03 7.49 8 8.56 9.11 9.67 10.12
1591.708 10.29 10.24 10.11 9.97 9.85 9.79 9.84 9.92 9.96 9.87
1611.002 9.63 9.29 8.86 8.37 7.88 7.41 6.93 6.49 6.13 5.9
1630.295 5.74 5.6 5.52 5.54 5.59 5.6 5.56 5.45 5.22 4.97
1649.588 4.68 4.33 3.9953 3.7812 3.5964 3.3894 3.2271 3.098 3.036 2.944
1668.882 2.87 2.84 2.748 2.714 2.685 2.653 2.684 2.642 2.588 2.57
1688.175 2.573 2.627 2.66 2.636 2.677 2.715 2.666 2.719 2.773 2.776
1707.469 2.767 2.746 2.725 2.715 2.75 2.716 2.732 2.825 2.873 2.93
1726.762 2.976 3.002 3.075 3.113 3.1932 3.3583 3.4076 3.4645 3.5846 3.6789
1746.056 3.7706 3.8599 3.942 3.9686 3.9778 3.9788 3.952 3.9091 3.799 3.7223
1765.349 3.6672 3.5682 3.5558 3.5771 3.6082 3.6255 3.5402 3.4144 3.29925 3.2121
1784.642 3.109 3.093 3.1585 3.25486 3.4836 3.8309 4.26 4.78 5.42 6.15
1803.936 6.8 7.34 7.73 7.83 7.62 7.17 6.61 6.03 5.51 5.08
1823.229 4.65 4.32 4.0826 3.839 3.6047 3.4025 3.27597 3.1582 3.013 2.927
1842.523 2.858 2.804 2.816 2.872 2.915 2.923 3.011 3.1644 3.30281 3.4443
1861.816 3.647 3.8743 4.1 4.36 4.63 4.9 5.17 5.38 5.57 5.81
1881.110 6.07 6.34 6.59 6.77 6.82 6.72 6.43 6.04 5.55 5.03
1900.403 4.59 4.28 4.052 3.9004 3.7734 3.6338 3.5616 3.5304 3.5048 3.5162
1919.696 3.5609 3.6263 3.7287 3.872 4.0151 4.1829 4.39 4.64 4.91 5.16
1938.990 5.42 5.64 5.82 6 6.16 6.29 6.4 6.51 6.6 6.62
1958.283 6.56 6.4 6.1 5.67 5.13 4.56 4.0127 3.5378 3.1931 2.92
1977.577 2.751 2.691 2.609 2.552 2.498 2.423 2.393 2.33 2.274 2.27
1996.870 2.291 2.25 2.17 2.15 2.15 2.14 2.12 2.13 2.11 2.11
2016.164 2.1 2.08 2.11 2.11 2.08 2.1 2.13 2.19 2.21 2.21
2035.457 2.257 2.312 2.393 2.437 2.426 2.42 2.421 2.443 2.435 2.388
2054.750 2.362 2.341 2.29 2.24 2.16 2.12 2.11 2.06 2.02 2.03
2074.044 2.03 2.02 2.01 2 2.03 2.05 2.02 2.04 2 1.99
2093.337 2.03 2.03 2.04 2.04 2.05 2.04 2.04 2.02 1.99 2.03
2112.631 2.01 1.98 2 2.02 2.03 2.03 2.05 2.05 2.02 1.98
2131.924 2.01 2.03 2.01 2.02 2.04 2.06 2.06 2.05 2.07 2.08
2151.218 2.08 2.07 2.07 2.04 2.03 2.06 2.03 2 1.99 1.96
2170.511 1.97 2 2.01 1.98 1.98 2.02 2.04 2.03 1.99 2
2189.804 2.03 2.03 2.03 1.98 1.96 1.95 1.96 1.98 2 1.99
2209.098 1.99 2.03 2.05 2.11 2.16 2.16 2.2 2.23 2.22 2.23
2228.391 2.265 2.276 2.305 2.279 2.24 2.22 2.17 2.12 2.1 2.08
2247.685 2.09 2.1 2.06 2.06 2.06 2.04 2.01 2.01 2.04 2.06
2266.978 2.01 2 2.04 2.04 2.01 2.01 2.05 2.03 2.05 2.09
2286.272 2.08 2.05 2.07 2.05 2.01 2.06 2.09 2.1 2.13 2.19
2305.565 2.305 2.461 2.561 2.62 2.694 2.696 2.609 2.472 2.342 2.22
2324.858 2.12 2.06 2.03 1.99 1.98 2 2.02 2.03 2.07 2.13
2344.152 2.13 2.15 2.16 2.14 2.12 2.13 2.1 2.03 1.99 1.96
2363.445 1.9 1.88 1.87 1.87 1.87 1.86 1.86 1.85 1.82 1.83
2382.739 1.86 1.86 1.82 1.81 1.84 1.85 1.83 1.82 1.82 1.86
2402.032 1.83 1.76 1.77 1.74 1.7 1.71 1.72 1.75 1.73 1.67
2421.326 1.7 1.69 1.65 1.66 1.65 1.66 1.65 1.65 1.67 1.68
2440.619 1.66 1.67 1.65 1.63 1.68 1.72 1.69 1.65 1.65 1.69
2459.912 1.72 1.71 1.7 1.73 1.73 1.71 1.7 1.68 1.73 1.76
2479.206 1.75 1.79 1.84 1.85 1.84 1.86 1.91 1.93 1.95 1.94
2498.499 1.96 1.97 1.95 1.98 1.97 1.92 1.86 1.79 1.78 1.79
2517.793 1.77 1.78 1.72 1.68 1.72 1.73 1.71 1.68 1.69 1.7
2537.086 1.69 1.68 1.7 1.68 1.69 1.71 1.67 1.68 1.69 1.67
2556.380 1.69 1.74 1.75 1.77 1.76 1.76 1.82 1.82 1.81 1.81
2575.673 1.84 1.89 1.92 1.98 2.05 2.04 2.04 2.03 1.98 1.93
2594.966 1.89 1.91 1.88 1.85 1.86 1.88 1.91 1.94 1.97 1.93
2614.260 1.92 1.97 1.98 1.95 1.87 1.85 1.81 1.78 1.8 1.77
2633.553 1.74 1.72 1.74 1.73 1.73 1.73 1.73 1.77 1.78 1.77
2652.847 1.76 1.78 1.81 1.78 1.76 1.78 1.82 1.81 1.82 1.89
2672.140 1.85 1.88 1.89 1.87 1.91 1.93 1.94 1.96 1.97 2.01
2691.434 2.09 2.14 2.21 2.22 2.23 2.28 2.24 2.19 2.18 2.11
2710.727 2.09 2.12 2.05 1.91 1.85 1.83 1.79 1.8 1.82 1.75
2730.020 1.69 1.72 1.73 1.64 1.62 1.69 1.75 1.76 1.79 1.83
2749.314 1.83 1.88 1.96 2 2.02 2.07 2.08 2.14 2.255 2.362
2768.607 2.399 2.402 2.468 2.594 2.695 2.787 2.958 3.056 3.13 3.3402
2787.901 3.4777 3.5468 3.6984 3.8384 3.9422 4.1045 4.28 4.34 4.38 4.51
2807.194 4.6 4.65 4.76 4.82 4.84 4.84 4.81 4.73 4.76 4.85
2826.488 4.84 4.79 4.75 4.75 4.71 4.71 4.81 4.9 4.95 4.99
2845.781 5.07 5.12 5.15 5.27 5.4 5.44 5.5 5.56 5.59 5.65
2865.074 5.71 5.82 5.99 6.19 6.34 6.59 6.92 7.18 7.49 7.94
2884.368 8.43 8.96 9.65 10.5 11.35 12.38 13.49 14.6 15.74 16.8
2903.661 17.53 17.88 17.87 17.46 16.7 15.63 14.42 13.14 12.03 11.1
2922.955 10.39 9.96 9.69 9.59 9.68 9.92 10.33 11.04 11.96 13.19
2942.248 14.91 17.1 20.04 23.94 28.93 35.45 43.82 53.96 65.11 75.68
2961.542 83.56 87.19 85.81 79.82 70.41 59.68 49.64 40.86 33.58 27.9
2980.835 23.7 20.76 18.79 17.52 16.81 16.57 16.74 17.23 17.95 18.91
3000.128 20.12 21.52 23.12 24.91 26.9 28.86 30.64 32.04 32.75 32.66
3019.422 31.8 30.4 28.73 27.22 26 24.98 24.36 24.01 23.75 23.8
3038.715 24.32 25.48 27.4 30.17 34.13 39.55 46.47 54.97 64.39 72.86
3058.009 78.42 80.25 78.59 74.01 67.75 61.86 57.86 55.45 53.59 51.6
3077.302 49.38 46.82 43.76 40.56 37.3 34.08 31.1 28.27 25.59 22.85
3096.596 20.09 17.44 14.83 12.67 10.9 9.47 8.4 7.58 6.96 6.58
3115.889 6.34 6.11 5.93 5.87 5.86 5.93 6.03 5.94 5.94 6.02
3135.182 5.95 5.81 5.49 5.1 4.63 4.0724 3.5318 2.971 2.595 2.401
3154.476 2.261 2.06 1.9 1.82 1.71 1.57 1.52 1.53 1.42 1.29
3173.769 1.31 1.3 1.17 1.09 1.05 1.07 0.9 0.71 0.84 0.83
3193.063 0.68 0.68 0.68 0.58 0.54 0.53 0.49 0.58 0.53 0.35
3212.356 0.32 0.4 0.41 0.43 0.4 0.38 0.37 0.29 0.36 0.38
3231.650 0.34 0.31 0.24 0.18 0.22 0.25 0.25 0.14 0.06 0.11
3250.943 0.05 0.1 0.27 0.26 0.18 0.09 0.14 0.2 0.12 0.19
3270.236 0.15 0.02 0.19 0.24 0.07 0.05 0.12 0.18 0.14 0.17
3289.530 0.19 0.07 0.23 0.43 0.38 0.25 0.11 0.12 0.27 0.28
3308.823 0.24 0.18 0.12 0.15 0.17 0.21 0.17 0.13 0.13 0.18
3328.117 0.37 0.4 0.15 0 0.1 0.19 0.2 0.06 0.16 0.26
3347.410 0.23 0.23 0.24 0.34 0.25 0.17 0.21 0.33 0.29 0.18
3366.704 0.29 0.2 0.05 0.11 0.19 0.17 0.17 0.26 0.29 0.26
3385.997 0.21 0.22 0.25 0.19 0.23 0.36 0.38 0.37 0.29 0.29
3405.290 0.44 0.35 0.23 0.26 0.26 0.3 0.33 0.35 0.45 0.52
3424.584 0.49 0.53 0.46 0.28 0.25 0.29 0.28 0.3 0.43 0.47
3443.877 0.34 0.32 0.41 0.45 0.5 0.4 0.39 0.47 0.44 0.41
3463.171 0.36 0.37 0.53 0.66 0.55 0.44 0.43 0.38 0.35 0.4
3482.464 0.49 0.53 0.6 0.59 0.53 0.53 0.53 0.56 0.54 0.54
3501.758 0.66 0.74 0.68 0.63 0.67 0.69 0.71 0.72 0.78 0.83
3521.051 0.73 0.68 0.67 0.71 0.74 0.78 0.83 0.77 0.83 0.88
3540.344 0.93 1 0.97 0.92 0.92 1.02 0.97 0.83 0.92 1.1
3559.638 1.06 0.99 1.05 1.04 1.04 1.12 1.22 1.2 1.06 1.16
3578.931 1.32 1.22 1.21 1.34 1.38 1.37 1.42 1.49 1.54 1.57
3598.225 1.5 1.51 1.59 1.55 1.48 1.5 1.64 1.73 1.7 1.78
3617.518 1.81 1.81 1.93 1.98 2 2.04 1.97 1.99 2.11 2.11
3636.812 2.11 2.11 2.08 2.07 2.11 2.09 2.09 2.12 2.06 2.09
3656.105 2.04 1.9 1.96 1.98 1.92 1.97 1.98 2.03 2.03 1.99
3675.398 2.03 2.15 2.337 2.387 2.395 2.496 2.527 2.533 2.639 2.704
3694.692 2.676 2.682 2.656 2.477 2.384 2.382 2.385 2.376 2.368 2.372
3713.985 2.333 2.311 2.284 2.297 2.395 2.387 2.406 2.536 2.503 2.383
3733.279 2.441 2.43 2.499 2.66 2.756 2.759 2.677 2.71 2.662 2.557
3752.572 2.517 2.482 2.369 2.274 2.317 2.301 2.07 1.97 2.05 2.04
3771.866 1.96 2.01 1.97 1.97 2.03 1.88 1.78 1.73 1.73 1.77
3791.159 1.8 1.81 1.81 1.82 1.8 1.8 1.72 1.66 1.62 1.56
3810.452 1.54 1.54 1.53 1.5 1.5 1.5 1.49 1.5 1.48 1.5
3829.746 1.5 1.47 1.56 1.55 1.44 1.44 1.44 1.42 1.48 1.47
3849.039 1.5 1.53 1.45 1.4 1.41 1.48 1.53 1.56 1.56 1.54
3868.333 1.53 1.48 1.54 1.57 1.55 1.52 1.57 1.68 1.51 1.49
3887.626 1.59 1.61 1.63 1.52 1.58 1.57 1.51 1.63 1.58 1.61
3906.920 1.67 1.59 1.6 1.58 1.54 1.5 1.51 1.56 1.58 1.6
3926.213 1.64 1.63 1.59 1.57 1.56 1.55 1.54 1.55 1.6 1.66
3945.506 1.66 1.66 1.66 1.63 1.63 1.63 1.63 1.69 1.69 1.69
3964.800 1.71 1.73 1.72 1.72 1.74 1.68 1.75 1.74 1.66 1.73
3984.093 1.75 1.71 1.78 1.82 1.78 1.81 1.89 1.9 1.87
##END=
