##TITLE=Coumaphos
##JCAMP-DX=4.24
##DATA TYPE=INFRARED SPECTRUM
##ORIGIN=NIST Mass Spectrometry Data Center
##OWNER=NIST Standard Reference Data Program
Collection (C) 2018 copyright by the U.S. Secretary of Commerce
on behalf of the United States of America. All rights reserved.
##CAS REGISTRY NO=56-72-4
##MOLFORM=C 14 H 16 Cl O 5 P S
##$NIST SOURCE=MSDC-IR
##SPECTROMETER/DATA SYSTEM=HP-GC/MS/IRD
##STATE=gas
##XUNITS=1/CM
##YUNITS=ABSORBANCE
##XFACTOR=1.0
##YFACTOR=0.000002000
##DELTAX=4.0
##FIRSTX=550.0
##LASTX=3846.0
##FIRSTY=0.000238
##MAXX=3846
##MINX=550
##MAXY=0.02
##MINY=0
##NPOINTS=825
##XYDATA=(X++(Y..Y))
550.0 119 184 134 106 99 89 59 90 90 24
590.0 55 106 76 111 176 248 350 399 434 473
630.0 466 452 484 486 398 325 240 174 167 173
670.0 189 239 312 402 456 373 264 214 201 255
710.0 330 405 564 815 1116 1430 1621 1516 1163 907
750.0 862 833 700 561 533 572 654 785 943 1093
790.0 1226 1369 1499 1655 1886 2134 2360 2629 2899 2992
830.0 2834 2451 1951 1532 1318 1291 1461 1864 2385 2854
870.0 3246 3713 4496 5652 6750 6860 5606 3894 2578 1768
910.0 1330 1127 1021 976 1027 1143 1312 1571 1956 2514
950.0 3259 4039 4521 4499 4202 3854 3495 3220 3096 3218
990.0 3782 4943 6760 8590 9186 8207 6709 5836 5850 6470
1030.0 7337 8103 8648 8938 9065 9086 8984 8629 7812 6572
1070.0 5221 4069 3261 2749 2479 2389 2354 2250 2000 1731
1110.0 1537 1456 1507 1620 1864 2483 3274 3618 3676 4061
1150.0 4627 4689 3984 3049 2356 1963 1790 1769 1879 2020
1190.0 1968 1619 1204 918 768 676 598 541 521 535
1230.0 569 661 833 1131 1501 1757 1860 2150 2894 3708
1270.0 3774 2921 1920 1290 972 805 702 651 667 725
1310.0 827 952 1021 1017 1043 1209 1431 1472 1234 904
1350.0 679 561 498 488 493 529 618 768 1002 1213
1390.0 1239 1128 996 870 812 842 923 978 914 774
1430.0 647 548 490 472 476 473 467 467 456 465
1470.0 522 627 797 1047 1385 1776 2048 2063 1840 1508
1510.0 1139 841 646 512 414 361 338 345 350 342
1550.0 362 404 440 457 479 525 586 668 777 972
1590.0 1335 1907 2794 4002 5150 5555 4900 3708 2646 1873
1630.0 1331 983 729 562 454 394 350 296 275 272
1670.0 269 277 283 300 309 291 299 313 299 268
1710.0 265 299 332 366 426 530 643 739 868 1075
1750.0 1416 1939 2745 3995 5773 7988 9878 10000 8082 5506
1790.0 3562 2420 1810 1459 1223 1031 858 703 584 491
1830.0 422 369 338 336 326 294 277 270 266 259
1870.0 257 240 221 204 185 171 163 151 134 128
1910.0 124 115 109 101 88 76 75 67 69 74
1950.0 83 92 85 78 74 63 60 64 61 56
1990.0 50 45 46 53 56 62 65 47 38 42
2030.0 39 37 31 28 30 30 33 37 29 24
2070.0 26 26 33 49 49 38 35 41 54 51
2110.0 42 46 54 52 47 41 32 38 45 45
2150.0 45 42 35 28 28 34 31 22 19 18
2190.0 19 26 25 25 36 37 31 39 44 34
2230.0 32 35 28 24 32 28 20 28 36 35
2270.0 37 37 40 47 44 44 52 54 48 44
2310.0 51 55 57 59 58 67 69 68 71 66
2350.0 66 69 69 77 67 73 77 72 95 95
2390.0 70 64 63 59 64 55 52 54 40 38
2430.0 41 49 57 41 30 36 42 57 59 52
2470.0 43 28 26 24 23 31 35 30 21 12
2510.0 19 32 28 21 20 24 18 21 23 19
2550.0 19 22 29 25 28 27 32 43 28 20
2590.0 24 22 25 24 23 28 26 25 42 45
2630.0 34 44 37 9 6 28 34 31 20 11
2670.0 16 17 9 0 5 11 21 30 18 19
2710.0 31 26 31 47 48 44 50 60 63 66
2750.0 71 80 66 58 75 72 58 52 50 61
2790.0 68 65 67 60 48 46 45 44 53 51
2830.0 54 71 83 77 87 100 111 124 135 170
2870.0 199 224 250 280 296 296 315 339 358 419
2910.0 481 491 498 508 539 617 731 861 952 954
2950.0 848 726 698 711 741 804 912 1039 1196 1347
2990.0 1369 1254 1110 947 750 585 496 449 399 343
3030.0 304 256 204 203 191 179 193 188 168 157
3070.0 138 130 152 161 174 177 166 154 113 96
3110.0 88 57 34 20 22 29 30 36 47 63
3150.0 71 55 40 39 46 47 45 50 43 38
3190.0 51 56 63 65 59 50 47 54 76 58
3230.0 47 53 56 62 57 39 29 47 40 46
3270.0 55 47 39 51 48 56 79 62 35 17
3310.0 14 22 34 32 29 53 54 45 37 39
3350.0 55 46 50 50 54 68 58 45 30 41
3390.0 59 45 44 53 50 65 88 56 33 38
3430.0 51 64 63 51 65 75 50 55 62 62
3470.0 69 84 96 79 62 61 75 75 98 118
3510.0 107 111 114 149 196 208 192 181 169 163
3550.0 145 131 129 122 130 135 131 114 92 94
3590.0 94 79 86 78 76 96 87 81 88 104
3630.0 98 102 111 87 100 118 98 79 62 93
3670.0 131 124 119 110 122 110 73 85 81 65
3710.0 63 52 62 74 50 72 104 97 97 108
3750.0 75 58 91 105 72 59 74 72 65 61
3790.0 57 81 114 125 109 93 99 110 98 73
3830.0 58 89 120 114 87
##END=
