##TITLE=4-(p-Nitrophenyl)butyric acid
##JCAMP-DX=4.24
##DATA TYPE=INFRARED SPECTRUM
##ORIGIN=EPA-IR VAPOR PHASE LIBRARY
##OWNER=SRD/NIST
Collection (C) 2018 copyright by the U.S. Secretary of Commerce
on behalf of the United States of America. All rights reserved.
##CAS REGISTRY NO=5600-62-4
##MOLFORM=C 10 H 11 N O 4
##$NIST SOURCE=MSDC-IR
##STATE=gas
##XUNITS=1/CM
##YUNITS=ABSORBANCE
##XFACTOR=1.
##YFACTOR=0.001
##DELTAX=1.92898
##FIRSTX=549.8
##LASTX=4000.7
##FIRSTY=8.2862
##MAXX=4000.7
##MINX=549.759
##MAXY=0.0847062
##MINY=0
##NPOINTS=1790
##XYDATA=(X++(Y..Y))
549.759 8.2862 8.6862 9.1962 9.5162 9.6662 9.2862 9.1562 9.1262 8.8362 8.7162
569.049 8.7362 8.8762 8.9062 8.6762 8.5262 8.7062 9.0162 9.2162 9.4062 9.5862
588.339 9.9462 10.1462 10.1862 10.3362 10.6862 10.9062 10.7462 10.7262 10.7462 10.9062
607.628 11.2362 11.5262 11.6662 11.7762 11.7662 11.4262 11.1662 11.0662 10.7462 10.4362
626.918 10.3762 10.3162 10.2962 10.1762 9.8862 9.7062 9.5862 9.5162 9.6162 9.7462
646.208 9.8962 9.5562 8.8662 8.2762 7.6062 7.1462 6.8462 6.2762 5.7962 5.6862
665.498 5.5262 5.4762 5.5462 5.4762 5.3262 5.4262 5.7762 5.9962 6.2162 6.5062
684.787 6.7762 6.9462 7.1262 7.3662 7.5562 7.4562 7.2262 7.1262 6.8362 6.3962
704.077 6.0462 5.7762 5.3762 4.9662 4.8762 4.8562 4.6162 4.4862 4.6662 4.6762
723.367 4.5762 4.7562 4.9962 5.2662 5.7462 6.3262 7.0262 7.3862 7.6562 8.1462
742.657 8.4062 8.2562 7.9362 7.5362 6.9662 6.2862 5.8762 5.3362 4.6862 4.3862
761.947 4.0262 3.4962 3.2462 3.0862 2.6962 2.5562 2.4162 2.3762 2.4362 2.2962
781.236 2.3562 2.5462 2.6762 2.9462 3.2362 3.6762 4.0562 4.4362 4.9262 5.1862
800.526 5.2462 5.1762 5.1162 5.1462 5.2062 5.2262 5.2262 5.2162 5.2062 5.1662
819.816 5.1562 5.0162 4.8562 4.9762 5.2662 5.7262 6.3162 7.0362 8.1262 9.2662
839.106 10.6662 12.3162 14.2262 16.4262 18.6262 20.8762 22.5862 23.4062 23.3262 22.2262
858.395 20.0162 17.0962 14.0662 10.9962 8.4962 6.8962 5.6762 4.8762 4.2862 3.8362
877.685 3.5262 3.0862 2.9462 3.0362 2.8462 2.6862 2.5062 2.4462 2.3962 2.2662
896.975 2.3462 2.3462 2.1362 1.9862 1.9162 1.8562 1.7762 1.6962 1.5962 1.5162
916.265 1.5162 1.4362 1.4262 1.3062 1.1162 1.1062 1.1162 1.1262 1.076 1.0074
935.555 1.0276 1.062 1.0962 1.1462 1.2262 1.2762 1.2362 1.3062 1.3962 1.4262
954.844 1.5862 1.6562 1.6362 1.8362 2.0062 1.9762 2.0962 2.3362 2.4862 2.6062
974.134 2.8462 3.0062 3.0862 3.1562 3.3862 3.5162 3.4362 3.3962 3.3562 3.3362
993.424 3.3962 3.4762 3.4762 3.5762 3.7662 3.9262 4.3562 4.9562 5.4962 6.3362
1012.714 7.4862 8.2462 8.5962 9.0062 8.9662 8.3262 7.6662 7.1962 7.3162 7.5162
1032.003 7.4562 7.3162 6.9962 6.7462 6.5162 6.1062 5.8562 5.9462 6.0362 6.0762
1051.293 5.9962 6.1762 6.5362 6.6762 6.5662 6.7162 7.0562 7.3762 7.5862 7.4862
1070.583 7.6162 8.0062 8.5162 8.7762 9.2962 9.9662 10.3562 11.1762 12.0862 13.2162
1089.873 14.4062 15.5862 16.9562 18.5862 20.4462 22.5862 25.2362 27.7162 30.3962 33.7962
1109.163 37.3462 40.8162 44.1762 47.6562 50.8862 52.9362 53.1562 51.9162 49.3362 45.3962
1128.452 41.0662 37.0762 33.4062 30.1562 27.4362 25.3162 23.7862 22.0362 20.3362 19.5062
1147.742 18.5762 17.4062 16.3962 15.5462 14.8662 14.1862 13.7062 13.5562 13.4762 13.2162
1167.032 13.2362 13.5162 13.9562 14.5962 15.3462 15.8162 15.8062 15.8862 15.7662 15.2162
1186.322 14.7262 14.2662 13.8662 13.7262 13.2262 12.4962 12.1362 11.9862 11.6862 10.9962
1205.611 10.4662 10.2862 9.7862 9.5762 9.4562 9.1462 9.0262 8.7962 8.4062 8.1062
1224.901 8.1062 8.0062 7.8162 7.7462 7.7862 7.7762 7.5562 7.3062 7.1562 7.1662
1244.191 6.9462 6.9062 7.1062 6.7762 6.6662 7.0062 7.3262 7.3662 7.1462 7.0962
1263.481 7.2062 7.2162 7.0162 7.0362 7.0462 6.9362 6.9862 6.9962 6.9762 6.9962
1282.771 7.0562 7.1362 7.1762 7.2162 7.2362 7.3062 7.3562 7.4462 7.6862 7.8962
1302.060 8.0262 8.2062 8.3762 8.4862 8.6362 8.7562 8.8962 9.0762 9.3662 9.8162
1321.350 10.3962 11.2362 12.3362 13.7462 15.6262 18.1362 21.3462 25.3662 30.4562 36.9362
1340.640 45.0262 54.5362 64.8562 74.5162 81.6562 84.7062 82.9362 76.3362 65.9862 54.3962
1359.930 43.9762 35.8962 29.9762 25.7862 22.7862 20.6062 19.0462 17.9362 17.1362 16.6062
1379.219 16.2362 15.9262 15.5662 15.1462 14.5862 13.9062 13.1062 12.1962 11.2662 10.3162
1398.509 9.4162 8.5962 7.9162 7.3562 6.8862 6.5562 6.2662 5.9962 5.8262 5.7362
1417.799 5.6862 5.6262 5.5862 5.5762 5.6362 5.6862 5.7062 5.6962 5.6762 5.6662
1437.089 5.7062 5.8262 5.8962 5.9862 6.1962 6.3762 6.5262 6.6862 6.8062 6.8962
1456.378 6.9762 6.9562 6.8462 6.6362 6.3262 6.0262 5.8562 5.7662 5.7162 5.7762
1475.668 5.8962 6.0862 6.3562 6.7362 7.2762 7.9362 8.6862 9.5862 10.5662 11.3762
1494.958 12.0062 12.2762 12.1062 11.7262 11.2962 11.0062 11.0162 11.4662 12.2962 13.4862
1514.248 15.0162 16.9862 19.4862 22.4662 26.1962 30.2862 34.9962 40.2162 45.5062 50.3862
1533.538 54.5262 57.5562 58.7862 58.2162 55.9362 52.1462 47.1062 41.4862 35.8962 30.5462
1552.827 26.0362 22.1962 19.3362 17.1162 15.2462 13.7762 12.5762 11.6762 10.9162 10.3262
1572.117 9.8062 9.4362 9.1662 8.9762 9.0462 9.2062 9.5362 10.0262 10.6562 11.6662
1591.407 12.8962 14.3162 15.9562 17.5362 18.8662 19.6662 19.7462 19.0162 17.4662 15.4362
1610.697 13.4162 11.5362 9.9062 8.4162 6.9762 5.8362 4.9662 4.2262 3.6962 3.3262
1629.986 2.9962 2.7562 2.5262 2.3562 2.3062 2.3262 2.2462 2.0762 2.0462 2.0762
1649.276 2.0862 2.0862 2.1162 2.0962 2.0562 2.0562 2.0262 2.0462 2.1062 2.0862
1668.566 2.0662 2.0762 2.0362 2.0162 2.0362 2.0262 2.0562 2.0562 2.0862 2.1362
1687.856 2.0662 2.1162 2.2362 2.2962 2.3562 2.4362 2.4862 2.5062 2.6262 2.7962
1707.146 2.9462 3.1162 3.3362 3.5662 3.8162 4.1362 4.4762 4.8862 5.3762 5.8762
1726.435 6.4362 7.0962 7.8662 8.6862 9.5862 10.5662 11.5662 12.8062 14.1162 15.4762
1745.725 16.9662 18.5662 20.1962 21.9362 23.8962 26.0062 28.3362 30.9462 33.9062 37.2262
1765.015 40.9562 45.0362 49.3762 53.6362 57.5362 60.3962 61.8262 61.7262 59.9962 56.9062
1784.305 52.9662 48.5862 44.2762 40.2962 36.6562 33.3562 30.4562 27.7862 25.2762 22.8462
1803.594 20.5862 18.3362 16.1262 14.1062 12.2662 10.5662 9.0362 7.7462 6.6362 5.7062
1822.884 4.9562 4.3462 3.8762 3.5362 3.2262 2.9662 2.7862 2.5662 2.3562 2.2262
1842.174 2.0362 1.8562 1.7362 1.6062 1.5862 1.5362 1.4262 1.3362 1.2562 1.2662
1861.464 1.2462 1.2262 1.2262 1.2162 1.2062 1.1662 1.0962 1.0324 1.0385 1.0361
1880.754 0.9798 0.9948 1.0365 0.9915 0.9719 1.0129 1.0257 1.0096 1.0703 1.1462
1900.043 1.2162 1.2762 1.2762 1.3062 1.4262 1.4962 1.5362 1.5862 1.6162 1.6562
1919.333 1.6262 1.6062 1.5862 1.5162 1.3962 1.3662 1.3162 1.1962 1.0489 0.951
1938.623 0.9305 0.8991 0.8596 0.7943 0.748 0.6996 0.6878 0.702 0.7145 0.7225
1957.913 0.7163 0.6978 0.6476 0.648 0.6799 0.6693 0.6772 0.6869 0.6246 0.588
1977.202 0.6104 0.6259 0.5881 0.5643 0.5797 0.5969 0.586 0.5838 0.5866 0.5365
1996.492 0.4664 0.445 0.4859 0.4817 0.4503 0.4758 0.5175 0.4884 0.48 0.438
2015.782 0.4011 0.4322 0.4347 0.403 0.4183 0.4112 0.3771 0.4231 0.4057 0.3888
2035.072 0.4082 0.3873 0.4046 0.4003 0.4175 0.5022 0.449 0.3976 0.3515 0.3443
2054.362 0.4294 0.4182 0.3708 0.3332 0.3666 0.4104 0.3803 0.3665 0.4392 0.4781
2073.651 0.4418 0.3942 0.3485 0.3555 0.3756 0.3859 0.4019 0.3746 0.3817 0.4066
2092.941 0.4004 0.4079 0.4028 0.4603 0.4658 0.4224 0.459 0.4444 0.4412 0.4652
2112.231 0.4487 0.4885 0.5083 0.4968 0.5385 0.5208 0.538 0.5927 0.5927 0.5566
2131.521 0.5343 0.5456 0.5212 0.5079 0.5442 0.5327 0.5104 0.4649 0.4261 0.4297
2150.810 0.4538 0.4782 0.4387 0.4478 0.5022 0.5289 0.5063 0.4694 0.4376 0.4497
2170.100 0.4535 0.4304 0.4704 0.4435 0.3879 0.449 0.4415 0.4572 0.522 0.49
2189.390 0.4979 0.5446 0.5301 0.5058 0.5064 0.5653 0.5947 0.542 0.5471 0.6543
2208.680 0.6957 0.6252 0.6289 0.6762 0.7215 0.7324 0.7075 0.7107 0.6905 0.6737
2227.970 0.665 0.6404 0.6085 0.5138 0.4964 0.5321 0.5227 0.5617 0.5358 0.4962
2247.259 0.5101 0.5282 0.5665 0.596 0.5355 0.4264 0.4482 0.4679 0.4545 0.5063
2266.549 0.5097 0.4971 0.5575 0.6313 0.5895 0.5184 0.5184 0.4977 0.5549 0.6014
2285.839 0.5993 0.5846 0.5318 0.509 0.5754 0.6405 0.6262 0.6291 0.5854 0.5481
2305.129 0.5822 0.5459 0.4665 0.4394 0.4434 0.481 0.4847 0.5018 0.5074 0.4335
2324.418 0.4534 0.494 0.4892 0.4902 0.5051 0.5407 0.5697 0.6335 0.603 0.5244
2343.708 0.4831 0.4847 0.5203 0.5479 0.5551 0.5552 0.5766 0.6028 0.5706 0.4984
2362.998 0.5306 0.6036 0.6361 0.6219 0.5931 0.5999 0.5408 0.483 0.5317 0.5816
2382.288 0.6777 0.6519 0.5713 0.6314 0.6222 0.5525 0.5039 0.472 0.4888 0.5353
2401.578 0.5418 0.4949 0.4759 0.5074 0.5694 0.613 0.5597 0.4877 0.4873 0.5423
2420.867 0.6155 0.594 0.5382 0.5688 0.5791 0.5366 0.5573 0.5631 0.5796 0.6028
2440.157 0.5762 0.641 0.714 0.7385 0.688 0.7045 0.8713 0.9477 0.9259 0.8552
2459.447 0.8588 0.9117 0.869 0.81 0.781 0.7517 0.663 0.588 0.5861 0.5768
2478.737 0.6126 0.669 0.5638 0.4848 0.5345 0.5439 0.5069 0.5037 0.5406 0.5716
2498.026 0.5689 0.4876 0.4117 0.4423 0.5038 0.5401 0.4737 0.4722 0.4968 0.3775
2517.316 0.3951 0.4384 0.4125 0.4262 0.4857 0.5479 0.4961 0.4581 0.455 0.3865
2536.606 0.4037 0.4558 0.4293 0.4235 0.4176 0.4253 0.3711 0.3243 0.335 0.3599
2555.896 0.43 0.3927 0.3278 0.4265 0.47 0.4728 0.5132 0.5095 0.4915 0.4965
2575.186 0.5555 0.5121 0.4148 0.429 0.4589 0.4252 0.4297 0.4699 0.4668 0.4416
2594.475 0.4291 0.446 0.5304 0.5392 0.54 0.639 0.6241 0.6105 0.6473 0.6503
2613.765 0.6284 0.5321 0.6046 0.7308 0.6927 0.6299 0.5283 0.4766 0.5252 0.4939
2633.055 0.4685 0.5413 0.5539 0.5225 0.5023 0.534 0.5601 0.4183 0.4078 0.547
2652.345 0.5597 0.5441 0.4566 0.4673 0.5743 0.5504 0.549 0.5743 0.5636 0.4997
2671.634 0.5586 0.584 0.5304 0.5997 0.5877 0.5396 0.5521 0.5539 0.5719 0.6295
2690.924 0.6463 0.6608 0.6876 0.7235 0.7024 0.6705 0.6519 0.6426 0.7179 0.7295
2710.214 0.6356 0.6322 0.7667 0.7528 0.6853 0.6863 0.6265 0.5458 0.576 0.6381
2729.504 0.5981 0.4663 0.3363 0.312 0.4852 0.5569 0.5365 0.5694 0.4565 0.425
2748.794 0.4626 0.4316 0.4009 0.4064 0.3821 0.3643 0.3513 0.4701 0.5318 0.4443
2768.083 0.428 0.46 0.5319 0.5282 0.4929 0.5239 0.563 0.5461 0.5704 0.6318
2787.373 0.6019 0.588 0.6534 0.6781 0.6355 0.6651 0.6718 0.5974 0.6562 0.7118
2806.663 0.712 0.6948 0.6906 0.7771 0.8607 0.9101 0.9033 0.8507 0.876 0.9773
2825.953 1.1262 1.1562 1.1162 1.2262 1.2762 1.3062 1.4162 1.4762 1.5962 1.7162
2845.242 1.7562 1.8362 1.9062 2.1762 2.4662 2.6662 2.8862 3.0762 3.4062 3.7162
2864.532 3.9562 4.2662 4.5562 4.7562 4.9662 5.1462 5.2062 5.1362 5.1762 5.0762
2883.822 4.7562 4.5662 4.3962 4.2362 4.0262 3.8562 3.7962 3.6662 3.4862 3.4862
2903.112 3.6462 3.6462 3.7062 3.9262 4.1762 4.4762 4.7562 5.0862 5.5562 6.0662
2922.401 6.6162 7.2862 7.9462 8.5762 9.1762 9.6062 9.9562 10.3462 10.7262 10.8462
2941.691 10.9062 11.1262 11.3362 11.5462 11.7962 12.0962 12.2462 12.3062 12.2562 12.0362
2960.981 11.6762 11.2362 10.7062 10.0162 9.1762 8.4162 7.6662 6.9762 6.3462 5.6362
2980.271 5.1062 4.6562 4.2362 3.8862 3.4962 3.1562 3.0262 2.8262 2.4962 2.2862
2999.561 2.1562 2.0462 2.0362 1.9262 1.7362 1.6362 1.6562 1.6662 1.6062 1.6862
3018.850 1.6862 1.6062 1.5862 1.5262 1.4762 1.5362 1.7462 2.0162 2.1162 2.1962
3038.140 2.4662 2.6862 2.8762 3.1462 3.4262 3.6462 3.6862 3.6962 3.6162 3.5262
3057.430 3.5262 3.3762 3.0962 2.9262 2.6862 2.4462 2.3962 2.3962 2.3362 2.2662
3076.720 2.3462 2.4562 2.5262 2.5062 2.4262 2.2762 1.9462 1.5962 1.2862 1.0263
3096.009 0.9211 0.906 0.8225 0.7061 0.6376 0.6525 0.6357 0.5125 0.4576 0.4489
3115.299 0.4783 0.475 0.3833 0.3479 0.5101 0.5737 0.3962 0.3658 0.3563 0.3948
3134.589 0.483 0.4881 0.3745 0.2347 0.2441 0.3448 0.2648 0.13217 0.14587 0.2485
3153.879 0.2358 0.16853 0.2422 0.3324 0.3619 0.3751 0.3911 0.3352 0.3626 0.3681
3173.169 0.2795 0.2379 0.16112 0.14431 0.1895 0.2335 0.2394 0.2273 0.2536 0.2944
3192.458 0.2985 0.3656 0.5204 0.5775 0.4247 0.2681 0.3977 0.5375 0.4232 0.3601
3211.748 0.3614 0.3025 0.2823 0.3451 0.3709 0.3361 0.4134 0.424 0.3242 0.2544
3231.038 0.17076 0.1952 0.3539 0.4405 0.3939 0.3095 0.3188 0.2554 0.1632 0.17074
3250.328 0.2382 0.2379 0.1963 0.17951 0.2085 0.2749 0.3084 0.2266 0.2651 0.366
3269.617 0.396 0.2817 0.1902 0.2939 0.2049 0.08192 0.0665 0.1963 0.2805 0.2223
3288.907 0.2215 0.2216 0.17866 0.10105 0.13289 0.14577 0.2864 0.3641 0.1894 0.11043
3308.197 0.3004 0.404 0.3553 0.4063 0.3099 0.2886 0.3182 0.2508 0.1991 0.2488
3327.487 0.2959 0.2943 0.242 0.2084 0.2617 0.2147 0.3147 0.3716 0.2681 0.3284
3346.777 0.2868 0.194 0.3677 0.4297 0.1945 0.17017 0.2496 0.1744 0.13053 0.1894
3366.066 0.2542 0.2364 0.2795 0.3672 0.3104 0.2336 0.0244 0.0171 0.1841 0.1774
3385.356 0.16389 0.15139 0.16644 0.12802 0.2055 0.3635 0.2811 0.12472 0.1972 0.3333
3404.646 0.3172 0.2759 0.3291 0.3114 0.2514 0.2684 0.2029 0.1783 0.2845 0.2608
3423.936 0.3422 0.3857 0.3026 0.2347 0.10049 0.17736 0.2967 0.3566 0.296 0.2371
3443.225 0.3286 0.3719 0.3902 0.3448 0.2179 0.2696 0.3981 0.3918 0.3333 0.2696
3462.515 0.277 0.3171 0.3506 0.4476 0.3173 0.2388 0.4053 0.3913 0.484 0.5556
3481.805 0.407 0.2925 0.3382 0.4961 0.5051 0.3616 0.4308 0.5276 0.5909 0.8016
3501.095 0.8232 0.6641 0.5249 0.5002 0.6487 0.8632 0.813 0.6907 0.9471 1.0343
3520.385 0.8554 0.8354 0.971 1.072 1.0343 1.1262 1.2062 1.2962 1.5162 1.6362
3539.674 1.7662 1.9362 2.1062 2.2362 2.4462 2.9362 3.3862 3.8662 4.5462 5.3862
3558.964 6.4862 7.9862 9.9562 12.5062 16.2962 21.2662 25.8762 28.9062 29.7162 28.4062
3578.254 25.2362 20.3462 15.2562 11.4762 8.8162 6.9262 5.5962 4.5362 3.7662 3.1262
3597.544 2.7562 2.3262 1.8662 1.6062 1.4262 1.3562 1.2662 1.1762 1.0233 0.9255
3616.833 0.8957 0.7966 0.7028 0.6846 0.6341 0.6198 0.6725 0.7268 0.7032 0.6363
3636.123 0.7031 0.6249 0.5524 0.5795 0.5189 0.5814 0.6824 0.6564 0.5795 0.3405
3655.413 0.2616 0.4275 0.3756 0.5083 0.5783 0.437 0.3943 0.3688 0.35 0.4311
3674.703 0.4114 0.2477 0.13172 0.2822 0.537 0.4328 0.4325 0.5283 0.362 0.2788
3693.993 0.3297 0.4361 0.4957 0.3809 0.288 0.3678 0.3908 0.2555 0.2382 0.3076
3713.282 0.2269 0.10413 0.0748 0.0643 0.2072 0.3248 0.321 0.2937 0.2931 0.4495
3732.572 0.4074 0.3826 0.3928 0.306 0.3985 0.4522 0.5844 0.5734 0.2964 0.2161
3751.862 0.3066 0.4677 0.4908 0.4828 0.3007 0.2711 0.4174 0.3661 0.3933 0.3276
3771.152 0.3217 0.2759 0.3323 0.3424 0.16054 0.363 0.458 0.2864 0.2142 0.2425
3790.441 0.3608 0.292 0.3317 0.2969 0.13679 0.18411 0.3365 0.4982 0.4763 0.2847
3809.731 0.13171 0.15158 0.1967 0.2899 0.2577 0.2996 0.5206 0.4522 0.3526 0.2869
3829.021 0.4002 0.4602 0.2273 0.203 0.091569 0 0.16946 0.13932 0.0312 0.1981
3848.311 0.3982 0.3736 0.4656 0.4803 0.3322 0.222 0.11946 0.1718 0.11226 0.09966
3867.601 0.13794 0.13887 0.2524 0.4079 0.4077 0.11992 0.10452 0.2958 0.3482 0.18564
3886.890 0.087839 0.2427 0.3295 0.3536 0.2918 0.2353 0.2384 0.2173 0.2512 0.2461
3906.180 0.1964 0.2405 0.18423 0.2468 0.2689 0.11911 0.10645 0.093484 0.268 0.2786
3925.470 0.094059 0.192 0.2451 0.18221 0.0357 0.0447 0.16554 0.17003 0.3151 0.4314
3944.760 0.314 0.2694 0.2384 0.17595 0.14105 0.15162 0.2935 0.4611 0.4706 0.4534
3964.049 0.6005 0.4951 0.2809 0.4251 0.4637 0.3767 0.4736 0.5127 0.3618 0.3478
3983.339 0.347 0.2507 0.3441 0.4343 0.3427 0.2361 0.16788 0.2378 0.3874 0.3276
##END=
