##TITLE=trans-3,5-Dimethylcyclohexene
##JCAMP-DX=4.24
##DATA TYPE=INFRARED SPECTRUM
##ORIGIN=NIST Mass Spectrometry Data Center
##OWNER=NIST Standard Reference Data Program
Collection (C) 2018 copyright by the U.S. Secretary of Commerce
on behalf of the United States of America. All rights reserved.
##CAS REGISTRY NO=56021-63-7
##MOLFORM=C 8 H 14
##$NIST SOURCE=MSDC-IR
##SPECTROMETER/DATA SYSTEM=HP-GC/MS/IRD
##STATE=gas
##XUNITS=1/CM
##YUNITS=ABSORBANCE
##XFACTOR=1.0
##YFACTOR=0.000003000
##DELTAX=4.0
##FIRSTX=550.0
##LASTX=3846.0
##FIRSTY=0.000189
##MAXX=3846
##MINX=550
##MAXY=0.03
##MINY=0
##NPOINTS=825
##XYDATA=(X++(Y..Y))
550.0 63 48 42 22 9 7 15 36 25 8
590.0 15 29 37 56 48 36 32 32 39 48
630.0 53 51 58 81 120 215 322 443 630 834
670.0 1064 1400 1462 1188 998 881 752 665 678 728
710.0 783 923 1184 1182 901 741 630 483 329 203
750.0 134 90 64 48 32 35 42 38 34 24
790.0 28 44 47 65 85 112 145 165 191 213
830.0 218 213 185 153 124 102 101 128 162 196
870.0 247 318 382 373 316 271 220 165 134 111
910.0 92 75 70 75 80 93 105 110 123 134
950.0 135 145 162 170 186 225 293 397 509 576
990.0 590 587 565 483 365 254 181 144 98 78
1030.0 76 59 47 39 35 39 37 39 40 37
1070.0 43 58 67 82 100 125 157 178 196 208
1110.0 219 219 195 180 181 181 173 175 182 164
1150.0 137 112 95 87 83 84 83 86 88 77
1190.0 62 49 43 44 44 46 48 52 56 56
1230.0 62 73 90 104 113 134 157 158 149 145
1270.0 146 156 185 222 268 338 427 494 528 525
1310.0 482 438 381 312 265 258 281 312 342 373
1350.0 422 460 491 542 596 654 708 743 737 683
1390.0 599 496 398 325 256 211 198 213 273 372
1430.0 492 631 811 1012 1207 1366 1458 1497 1421 1235
1470.0 1048 859 675 512 371 269 200 153 120 94
1510.0 75 66 61 59 57 52 48 49 49 52
1550.0 53 49 47 47 51 49 47 55 48 49
1590.0 56 51 56 60 66 79 98 120 148 191
1630.0 247 312 359 383 388 378 354 308 258 230
1670.0 219 209 199 191 176 157 131 98 72 52
1710.0 42 39 26 13 15 13 6 5 7 6
1750.0 0 2 8 10 12 16 16 18 23 25
1790.0 24 28 29 30 31 31 33 37 37 41
1830.0 44 44 43 42 40 39 39 33 29 29
1870.0 28 27 28 29 24 25 24 20 22 16
1910.0 17 21 18 16 18 19 18 15 8 4
1950.0 2 6 9 13 16 15 18 18 19 18
1990.0 17 16 12 9 8 9 10 4 2 7
2030.0 11 9 6 8 10 10 9 8 10 10
2070.0 8 11 14 14 15 16 20 17 12 16
2110.0 17 20 14 12 13 15 13 14 12 10
2150.0 14 15 15 14 12 12 13 14 13 12
2190.0 18 21 20 19 17 16 16 15 15 13
2230.0 14 12 11 8 14 18 15 14 17 20
2270.0 21 25 29 31 28 28 28 26 24 26
2310.0 32 29 28 31 28 33 37 35 34 35
2350.0 33 34 32 28 25 26 24 20 25 33
2390.0 33 31 33 37 40 45 45 48 57 53
2430.0 43 45 51 45 46 43 38 41 45 47
2470.0 50 45 42 42 39 40 39 39 39 39
2510.0 41 41 42 46 41 40 41 40 45 57
2550.0 61 61 63 69 73 74 74 76 83 86
2590.0 98 110 114 116 121 124 118 120 124 123
2630.0 125 127 124 120 120 122 118 108 101 95
2670.0 94 95 90 86 91 99 105 117 133 145
2710.0 158 178 199 224 249 264 264 261 254 245
2750.0 238 230 228 226 233 247 256 269 290 314
2790.0 344 373 404 442 486 550 647 807 1067 1452
2830.0 1934 2430 2918 3314 3514 3619 3804 3962 3949 4162
2870.0 4642 5024 5343 5696 6067 6237 6217 6553 7521 8585
2910.0 9056 9254 9314 8962 8284 7447 6679 6215 6209 6674
2950.0 7522 8888 10000 9817 8946 7895 6339 4492 2953 1923
2990.0 1324 1053 1029 1197 1570 2175 2900 3425 3493 3403
3030.0 3401 3034 2249 1510 1031 771 647 594 558 517
3070.0 466 422 368 320 289 256 236 224 211 202
3110.0 190 178 167 164 161 153 148 137 131 141
3150.0 149 146 146 145 145 150 152 152 154 157
3190.0 168 164 149 143 129 114 103 89 84 80
3230.0 75 65 46 40 45 48 43 39 51 68
3270.0 69 68 66 58 50 47 49 59 61 59
3310.0 56 53 58 61 61 62 62 59 49 45
3350.0 46 46 48 44 33 26 22 28 38 32
3390.0 34 45 47 31 33 39 31 38 33 23
3430.0 19 21 23 26 32 28 20 25 27 23
3470.0 24 20 14 21 29 24 25 29 31 25
3510.0 21 16 9 7 12 25 28 23 21 23
3550.0 29 31 29 25 25 19 18 27 30 29
3590.0 26 23 22 24 21 22 24 28 46 53
3630.0 41 32 31 37 37 33 30 29 30 33
3670.0 35 38 46 52 53 55 61 63 56 49
3710.0 45 43 44 51 58 60 63 51 53 65
3750.0 63 55 45 49 60 64 61 60 60 61
3790.0 67 63 58 69 76 76 64 56 56 56
3830.0 65 74 68 70 70
##END=
