##TITLE=4-Chloro-3-nitrobenzophenone
##JCAMP-DX=4.24
##DATA TYPE=INFRARED SPECTRUM
##ORIGIN=NIST Mass Spectrometry Data Center
##OWNER=NIST Standard Reference Data Program
Collection (C) 2018 copyright by the U.S. Secretary of Commerce
on behalf of the United States of America. All rights reserved.
##CAS REGISTRY NO=56107-02-9
##MOLFORM=C 13 H 8 Cl N O 3
##$NIST SOURCE=MSDC-IR
##SPECTROMETER/DATA SYSTEM=HP-GC/MS/IRD
##STATE=gas
##XUNITS=1/CM
##YUNITS=ABSORBANCE
##XFACTOR=1.0
##YFACTOR=0.000009100
##DELTAX=4.0
##FIRSTX=550.0
##LASTX=3846.0
##FIRSTY=0.003877
##MAXX=3846
##MINX=550
##MAXY=0.091
##MINY=0
##NPOINTS=825
##XYDATA=(X++(Y..Y))
550.0 426 458 243 251 200 199 190 170 135 96
590.0 64 37 18 11 8 23 49 70 74 70
630.0 88 111 144 198 292 449 667 946 1392 2156
670.0 3012 3253 2640 1982 1979 2483 2976 3014 2641 2230
710.0 2051 2228 2759 3296 3200 2447 1630 1108 877 824
750.0 860 1018 1311 1528 1443 1125 848 763 889 1099
790.0 1139 914 581 348 255 238 258 307 430 682
830.0 1037 1345 1393 1130 778 556 523 660 920 1203
870.0 1318 1140 779 478 326 276 298 399 572 745
910.0 819 763 680 659 643 598 568 637 896 1478
950.0 2459 3420 3735 3460 3241 3163 2714 1841 1054 651
990.0 470 450 591 635 440 237 206 273 418 601
1030.0 788 1070 1644 2710 4143 5085 4638 3142 1802 1089
1070.0 737 535 398 301 240 206 200 205 210 223
1110.0 245 292 374 491 606 680 703 711 721 688
1150.0 631 609 645 696 736 829 1147 1710 1972 1553
1190.0 931 657 645 698 785 899 1051 1279 1622 2112
1230.0 2808 3752 4984 6539 8091 8507 7090 5045 4228 5127
1270.0 6935 8561 9254 9118 8556 7634 6422 5215 4220 3543
1310.0 3315 3323 3123 2665 2297 2269 2560 3128 3975 4983
1350.0 5838 6095 5536 4415 3244 2352 1777 1438 1247 1141
1390.0 1072 983 852 717 611 545 508 487 489 506
1430.0 543 621 785 1062 1347 1397 1163 884 796 875
1470.0 1016 1081 976 799 685 672 721 812 942 1122
1510.0 1361 1643 1964 2343 2782 3264 3819 4535 5603 7038
1550.0 8597 9653 9577 8457 7038 5802 5035 4651 4531 4602
1590.0 4937 5569 6259 6373 5448 3865 2491 1670 1248 1022
1630.0 896 834 824 853 898 942 998 1103 1325 1727
1670.0 2484 3926 6280 8770 10000 9020 6580 4244 2763 1945
1710.0 1478 1174 966 840 747 637 510 399 312 248
1750.0 208 188 180 178 181 184 189 184 169 160
1790.0 169 189 215 253 291 302 277 230 182 142
1830.0 114 95 78 62 51 44 39 38 34 33
1870.0 37 44 50 60 79 98 117 132 141 152
1910.0 162 163 153 138 125 117 110 105 101 110
1950.0 134 153 159 145 130 127 114 80 46 25
1990.0 17 15 11 9 11 11 13 12 10 12
2030.0 12 6 4 4 2 3 6 6 4 2
2070.0 2 0 0 3 2 2 6 7 9 13
2110.0 15 17 15 15 16 14 13 14 13 14
2150.0 13 12 12 14 13 11 10 8 8 11
2190.0 11 13 10 6 11 16 13 11 13 13
2230.0 10 12 16 20 23 24 22 19 18 19
2270.0 18 17 21 26 28 27 27 29 28 26
2310.0 30 42 56 59 50 38 35 40 43 40
2350.0 36 30 27 28 32 33 32 35 37 39
2390.0 43 47 49 52 55 61 63 56 52 51
2430.0 49 48 45 40 35 31 23 15 15 14
2470.0 10 7 9 11 11 9 10 13 15 16
2510.0 20 21 25 30 31 31 32 30 33 37
2550.0 39 41 39 37 36 36 38 38 36 35
2590.0 38 43 44 43 40 39 39 37 36 35
2630.0 34 34 30 31 37 37 32 29 28 30
2670.0 29 29 35 41 42 43 46 49 51 49
2710.0 48 49 48 46 46 45 44 44 46 48
2750.0 49 48 46 46 46 40 31 23 14 13
2790.0 10 8 12 12 15 19 25 32 37 39
2830.0 44 53 65 72 78 85 93 102 114 130
2870.0 141 150 158 170 179 184 189 194 188 172
2910.0 158 140 118 101 95 92 85 75 65 61
2950.0 56 44 39 40 40 43 39 40 43 40
2990.0 42 47 57 70 88 109 142 195 267 362
3030.0 473 575 641 636 566 504 521 625 812 1121
3070.0 1502 1711 1616 1391 1255 1153 979 781 611 476
3110.0 355 249 180 139 115 98 85 74 59 59
3150.0 70 69 64 65 59 50 40 29 25 23
3190.0 20 19 23 22 17 19 20 20 17 13
3230.0 10 1 6 12 7 11 11 5 4 7
3270.0 9 14 17 14 13 19 21 19 20 27
3310.0 35 36 37 36 39 47 55 75 107 136
3350.0 159 164 146 125 108 95 86 73 60 52
3390.0 47 46 46 46 39 28 27 28 24 24
3430.0 18 16 21 19 16 18 27 28 21 23
3470.0 25 17 13 14 19 24 21 19 18 18
3510.0 23 21 18 20 19 19 17 18 25 20
3550.0 18 17 18 21 12 9 16 20 25 19
3590.0 16 19 20 24 27 25 24 22 25 22
3630.0 20 28 31 32 28 28 42 43 38 32
3670.0 26 24 27 31 32 39 45 45 46 41
3710.0 36 41 42 40 45 41 34 41 40 42
3750.0 46 43 48 45 43 44 46 43 29 23
3790.0 28 26 27 32 32 34 38 36 32 36
3830.0 40 38 35 34 34
##END=
