##TITLE=Benzothiazol-2-ylacetonitrile
##JCAMP-DX=4.24
##DATA TYPE=INFRARED SPECTRUM
##ORIGIN=EPA-IR VAPOR PHASE LIBRARY
##OWNER=SRD/NIST
Collection (C) 2018 copyright by the U.S. Secretary of Commerce
on behalf of the United States of America. All rights reserved.
##CAS REGISTRY NO=56278-50-3
##MOLFORM=C9 H6 N2 S
##$NIST SOURCE=MSDC-IR
##STATE=gas
##XUNITS=1/CM
##YUNITS=ABSORBANCE
##XFACTOR=1.
##YFACTOR=0.001
##DELTAX=1.92898
##FIRSTX=549.8
##LASTX=4000.7
##FIRSTY=1.1433
##MAXX=4000.7
##MINX=549.759
##MAXY=0.050474
##MINY=0
##NPOINTS=1790
##XYDATA=(X++(Y..Y))
549.759 1.1433 0.7786 0.7874 1.0556 1.374 1.814 1.714 1.804 1.424 0.6986
569.049 1.1785 0.9296 0.7114 1.804 1.794 1.1969 1.2824 0.9697 0.627 1.0582
588.339 1.494 1.314 1.2507 1.0429 1.0727 1.344 1.334 1.1779 1.474 2.374
607.628 2.414 2.384 2.654 2.924 3.664 3.944 4.284 4.894 5.214 5.194
626.918 5.184 6.044 6.564 6.524 7.164 8.234 8.754 9.314 9.464 9.184
646.208 8.994 8.494 8.134 7.144 6.154 5.684 4.704 4.174 4.134 3.594
665.498 3.474 3.504 3.594 3.894 3.894 3.664 3.594 3.774 3.984 4.434
684.787 4.764 4.784 5.124 5.664 6.014 6.424 6.914 7.724 8.794 9.784
704.077 10.504 10.984 11.624 13.184 14.774 15.864 17.124 18.244 19.414 20.964
723.367 23.174 26.834 30.574 29.434 24.784 22.784 22.584 22.344 22.484 22.924
742.657 24.164 26.434 29.514 32.454 34.804 38.284 43.994 50.474 49.864 41.854
761.947 35.914 32.864 29.874 25.794 21.224 16.844 12.654 9.174 6.884 5.534
781.236 4.494 3.104 1.994 1.924 1.864 1.484 1.1834 1.1325 1.1062 0.9346
800.526 0.7876 0.741 1.0119 1.0334 1.2527 1.2177 0.974 1.1201 1.0305 1.494
819.816 2.124 2.344 2.114 0.9193 0.4924 0.9843 1.2491 1.474 1.884 2.294
839.106 2.494 2.644 2.664 3.304 3.874 4.024 4.654 4.934 5.154 5.504
858.395 5.444 5.464 5.934 6.064 5.504 5.084 4.584 4.414 4.154 3.384
877.685 3.014 3.114 2.974 2.854 2.714 2.484 2.844 3.234 2.924 2.604
896.975 2.814 2.734 2.674 2.654 2.754 3.124 3.634 3.974 4.074 4.514
916.265 4.784 4.524 4.464 4.854 4.974 5.024 5.364 5.374 5.054 5.474
935.555 5.854 5.974 5.704 5.184 5.624 6.004 5.764 5.574 5.424 5.024
954.844 4.164 3.944 3.594 2.564 2.024 1.804 1.774 1.544 1.176 1.2648
974.134 1.2321 0.6659 0.6536 0.7303 0.902 1.2853 1.0707 1.1686 1.404 1.494
993.424 1.974 2.414 3.054 3.434 3.934 5.214 6.584 7.754 8.614 8.624
1012.714 7.724 6.834 6.534 5.984 4.754 3.074 2.124 2.174 1.694 1.534
1032.003 1.974 1.744 1.1839 1.0891 1.454 1.2907 1.1372 2.214 3.114 3.194
1051.293 3.574 4.634 5.634 6.654 7.964 8.634 8.564 8.274 8.854 9.004
1070.583 7.974 6.914 5.074 3.824 3.424 3.354 3.394 3.744 4.264 4.644
1089.873 5.844 6.504 6.404 6.584 7.644 9.304 10.154 10.534 11.324 11.344
1109.163 12.544 13.674 14.644 16.034 16.254 16.654 17.834 18.534 17.914 18.264
1128.452 19.224 19.534 18.654 16.544 15.634 15.504 15.154 14.394 13.774 13.824
1147.742 14.584 14.504 13.374 12.934 12.804 12.034 10.044 9.354 9.194 8.414
1167.032 7.494 6.534 5.744 5.544 5.484 4.694 4.314 4.994 4.564 3.444
1186.322 4.114 4.124 3.844 4.184 3.994 3.944 4.064 4.094 3.854 3.184
1205.611 3.754 4.014 3.854 3.974 4.034 4.044 3.974 4.904 4.654 4.344
1224.901 4.724 5.554 6.374 6.664 7.304 8.484 9.414 10.154 10.954 11.054
1244.191 11.114 10.904 9.944 8.684 7.914 7.444 6.414 5.784 5.444 5.174
1263.481 4.954 4.984 4.924 4.714 5.024 5.744 6.244 6.934 8.084 8.674
1282.771 9.494 10.904 12.224 13.664 15.044 16.274 17.344 18.204 19.004 19.284
1302.060 19.084 18.194 17.004 15.754 14.274 13.004 11.874 10.584 9.004 7.604
1321.350 6.754 5.884 4.954 4.314 3.944 3.614 3.234 2.924 2.754 2.734
1340.640 2.654 2.444 2.444 2.494 2.374 2.284 2.214 2.064 2.074 2.214
1359.930 2.064 1.974 1.954 1.814 1.664 1.574 1.584 1.654 1.654 1.664
1379.219 1.734 1.854 1.934 2.004 2.274 2.564 2.864 3.184 3.454 3.984
1398.509 4.594 5.264 6.114 6.994 7.974 9.004 10.314 11.904 13.234 14.234
1417.799 14.964 15.674 16.664 17.874 19.174 20.574 22.244 23.914 24.874 24.734
1437.089 23.844 22.344 20.174 17.434 14.384 11.654 9.884 9.094 8.614 8.254
1456.378 8.074 7.944 7.714 7.474 7.114 6.554 5.914 5.114 4.594 4.304
1475.668 4.024 3.754 3.704 3.854 3.844 3.854 4.054 4.454 4.704 4.874
1494.958 5.384 6.184 7.034 8.004 9.464 11.144 12.854 14.824 16.874 19.074
1514.248 21.074 22.534 23.484 23.974 24.044 23.484 22.344 20.714 18.664 16.604
1533.538 14.564 12.744 11.014 9.524 8.364 7.404 6.694 6.114 5.824 5.544
1552.827 5.324 5.294 5.174 4.854 4.864 4.894 4.664 4.514 4.554 4.344
1572.117 4.014 3.874 3.714 3.674 3.614 3.624 3.564 3.324 3.194 3.204
1591.407 3.314 3.494 3.584 3.524 3.584 3.444 3.194 3.004 2.654 2.424
1610.697 2.304 2.054 1.714 1.574 1.624 1.404 0.9977 0.9876 1.0868 1.0143
1629.986 1.0031 0.9635 0.8586 0.8343 0.9197 1.0309 0.8976 0.8807 0.9419 0.8121
1649.276 0.891 0.9828 0.9401 1.082 1.324 1.514 1.604 1.534 1.504 1.544
1668.566 1.494 1.474 1.414 1.224 1.1631 1.2022 1.344 1.594 1.754 1.854
1687.856 2.154 2.504 2.654 2.774 2.814 2.644 2.424 2.134 1.784 1.654
1707.146 1.504 1.2553 1.1958 1.0666 0.912 0.8855 0.9025 0.9765 0.9311 0.9134
1726.435 0.9675 1.0049 1.0542 1.0415 0.9649 0.903 0.8015 0.7311 0.8789 0.9939
1745.725 0.9239 0.9027 0.8772 0.851 0.7854 0.7975 0.9216 1.0206 1.1826 1.1848
1765.015 1.254 1.584 1.814 1.874 1.994 2.184 2.364 2.444 2.514 2.714
1784.305 2.774 2.634 2.554 2.454 2.194 1.994 1.904 1.824 1.684 1.544
1803.594 1.414 1.424 1.594 1.764 1.974 2.154 2.264 2.324 2.374 2.304
1822.884 2.194 2.014 1.754 1.524 1.2267 1.022 0.9429 0.9364 0.9045 0.8201
1842.174 0.7158 0.6191 0.6789 0.7542 0.7511 0.6871 0.7042 0.9405 1.0421 1.079
1861.464 1.2607 1.424 1.574 1.864 2.054 1.914 1.694 1.604 1.514 1.444
1880.754 1.474 1.334 1.1965 1.2399 1.314 1.404 1.584 1.764 1.984 2.194
1900.043 2.324 2.484 2.624 2.634 2.444 2.234 2.364 2.374 2.004 1.834
1919.333 1.614 1.414 1.524 1.554 1.554 1.684 1.884 2.274 2.624 2.714
1938.623 2.764 2.904 2.834 2.514 2.354 2.184 1.804 1.444 1.1894 1.0824
1957.913 0.9265 0.7976 0.8201 0.8542 0.8814 0.8747 0.7921 0.6766 0.7112 0.8064
1977.202 0.7157 0.576 0.6217 0.7175 0.7655 0.6915 0.6294 0.6013 0.5962 0.6373
1996.492 0.6649 0.7457 0.8089 0.7661 0.6528 0.6037 0.5166 0.5419 0.6457 0.6518
2015.782 0.576 0.4611 0.5458 0.7161 0.7431 0.7003 0.7173 0.7376 0.7442 0.7548
2035.072 0.651 0.5098 0.5599 0.5187 0.566 0.657 0.6039 0.6011 0.5599 0.6054
2054.362 0.6934 0.8749 0.8783 0.7073 0.7368 0.7599 0.7906 0.7271 0.4972 0.428
2073.651 0.571 0.6161 0.4798 0.5528 0.7451 0.8236 0.7485 0.6868 0.7756 0.718
2092.941 0.6302 0.6438 0.592 0.7268 0.8817 0.8782 0.8205 0.5885 0.5923 0.7391
2112.231 0.6656 0.7381 0.8484 0.8375 0.8962 0.9242 0.9819 0.9275 0.8353 0.9189
2131.521 0.9078 0.8498 0.8967 0.8006 0.7549 0.8775 0.8647 0.8734 0.9699 0.9711
2150.810 0.9131 0.8109 0.7833 0.8415 0.9735 1.0346 0.8424 0.7664 0.8596 0.7978
2170.100 0.7347 0.813 0.8324 0.7766 0.7298 0.6883 0.6632 0.5769 0.5683 0.6083
2189.390 0.5702 0.702 0.6876 0.6931 0.7844 0.7224 0.6295 0.5095 0.5783 0.7139
2208.680 0.657 0.6535 0.6794 0.6007 0.5884 0.6993 0.75 0.7162 0.8224 0.8123
2227.970 0.6586 0.6331 0.8169 0.8218 0.799 1.0141 0.9367 0.7392 0.9167 1.0316
2247.259 1.0321 1.1677 1.364 1.464 1.324 1.2482 1.394 1.384 1.2745 1.334
2266.549 1.344 1.2053 1.1506 1.0987 1.0617 1.1799 1.1339 1.0362 1.1283 1.2047
2285.839 1.1776 1.1621 0.9576 0.8193 1.0197 1.1818 1.0307 0.928 1.0486 0.9809
2305.129 0.8751 0.884 0.9398 1.0876 1.135 1.0995 1.1743 1.134 1.0038 1.0133
2324.418 1.1135 1.2156 1.0974 0.927 0.944 0.9622 0.9938 0.9973 0.8761 0.827
2343.708 0.9067 0.8797 0.8299 0.8253 0.8053 0.8458 0.8389 0.7392 0.8624 0.8982
2362.998 0.767 0.6842 0.6362 0.7678 0.928 0.9006 0.8577 0.9326 0.9715 1.0532
2382.288 1.1102 1.0874 0.9512 0.8295 0.7532 0.7478 0.7201 0.6206 0.7176 0.8681
2401.578 0.7962 0.6755 0.7513 0.7908 0.7067 0.8486 0.937 0.8492 0.9259 0.9984
2420.867 0.8451 0.7441 0.8902 0.8297 0.8076 0.9642 1.1029 1.119 1.0518 0.8973
2440.157 0.7833 0.8637 0.7823 0.819 0.9211 0.8015 0.7583 0.7443 0.6487 0.769
2459.447 0.7957 0.7824 0.8363 0.9179 1.0174 0.8216 0.6364 0.6753 0.7046 0.7421
2478.737 0.741 0.6606 0.6623 0.6199 0.6531 0.607 0.665 0.7443 0.5379 0.7097
2498.026 0.7964 0.5714 0.7529 1.0112 0.9806 0.9514 0.8008 0.7832 0.7787 0.6234
2517.316 0.6355 0.6877 0.7401 0.8758 0.9277 0.7248 0.6985 0.8274 0.9114 0.9557
2536.606 0.871 0.7957 0.7631 0.7073 0.6945 0.8136 1.0198 0.9132 0.8629 1.0062
2555.896 0.98 0.8848 0.8583 0.8553 0.9556 1.0061 1.063 1.0767 0.9724 1.0765
2575.186 1.0794 1.0604 1.0983 1.0936 1.0542 1.0434 1.0418 1.026 1.1726 1.2196
2594.475 1.1302 1.0367 1.0993 1.0423 0.9455 0.9436 0.8733 0.8444 0.9053 1.0758
2613.765 1.0585 1.0326 1.1029 1.2081 1.0654 0.9259 1.1404 1.1173 1.133 1.1403
2633.055 1.0096 0.9471 0.9009 0.9567 1.0853 1.26 1.1665 1.1219 1.2186 1.071
2652.345 0.9923 1.0565 1.0718 1.1045 1.0224 0.9353 0.9507 0.8698 0.9523 0.9831
2671.634 0.8577 0.7583 0.8071 0.9242 0.8654 0.948 0.8834 0.788 0.7806 0.7987
2690.924 0.7263 0.8492 1.0657 1.0171 0.8497 0.7482 0.7979 0.7138 0.8069 0.7415
2710.214 0.6527 0.7576 0.6638 0.7684 0.8819 0.7624 0.8909 0.9664 0.9253 1.055
2729.504 1.0794 1.0226 1.0049 0.8032 0.8301 0.9008 0.778 0.935 0.8314 0.6921
2748.794 0.6724 0.6524 0.8717 0.9114 0.7663 0.6849 0.6727 0.7953 0.8029 0.6243
2768.083 0.5221 0.4926 0.6872 0.8253 0.5835 0.5212 0.7049 0.6162 0.4935 0.5557
2787.373 0.5721 0.4777 0.5295 0.7036 1.0214 0.9975 0.7069 0.8243 0.5718 0.4982
2806.663 0.7915 0.7365 0.7938 1.0641 1.1306 1.0077 0.729 0.4865 0.4937 0.5435
2825.953 0.7717 0.8481 0.7898 0.8742 0.8671 0.8756 0.7919 0.5719 0.6292 0.5626
2845.242 0.5204 0.7434 0.8267 0.8212 0.8057 0.6334 0.5247 0.5757 0.6086 0.8014
2864.532 0.7619 0.5038 0.6154 0.7894 0.6712 0.4825 0.537 0.7036 0.7955 0.8561
2883.822 0.7912 0.8895 1.0292 0.9406 0.7412 0.6056 0.7672 0.9473 0.787 0.5377
2903.112 0.4949 0.6162 0.6573 0.8615 0.9737 0.9067 0.7849 0.8436 0.9025 0.7887
2922.401 0.8493 0.9139 0.9304 0.7532 0.8034 1.0026 1.1021 1.1791 1.1557 1.1121
2941.691 1.2604 1.2586 1.1848 1.364 1.121 0.8281 1.0726 1.354 1.3123 1.035
2960.981 0.9717 0.9349 0.9003 0.9249 0.8916 1.2105 1.404 1.1111 1.1346 1.344
2980.271 1.2484 1.1272 1.1377 1.1977 1.2162 1.394 1.604 1.564 1.584 1.654
2999.561 1.754 1.724 1.604 1.744 1.704 1.804 2.084 2.004 1.994 2.294
3018.850 2.504 2.414 2.424 2.574 2.664 2.804 2.854 3.164 3.694 3.894
3038.140 4.004 4.084 4.214 4.394 4.314 4.214 4.374 4.534 4.524 5.154
3057.430 6.404 7.554 8.714 10.304 12.214 14.344 16.544 18.354 19.564 20.204
3076.720 19.994 19.254 18.034 16.014 13.744 11.664 10.024 8.864 7.704 6.404
3096.009 5.504 4.884 4.214 3.744 3.604 3.314 3.034 2.914 3.054 3.164
3115.299 2.914 2.664 2.564 2.374 2.074 2.044 1.824 1.544 1.574 1.324
3134.589 1.137 1.0704 0.7253 0.5545 0.5911 0.7647 0.8661 0.7627 0.9119 0.7846
3153.879 0.4464 0.4606 0.4888 0.3884 0.2796 0.4348 0.47 0.4617 0.593 0.8183
3173.169 0.976 0.8233 0.9026 0.8198 0.6521 0.7859 0.8339 0.8876 1.0274 1.0368
3192.458 1.1081 1.2291 1.0323 0.8408 0.9207 0.9355 0.9733 0.8744 0.7808 0.9504
3211.748 0.8942 0.5848 0.6843 0.704 0.6911 0.9012 0.9568 0.9603 0.7719 0.8493
3231.038 0.818 0.2505 0.185 0.6242 0.7323 0.9306 1.0461 0.8178 0.81 0.857
3250.328 0.5485 0.40296 0.5384 0.564 0.5604 0.5546 0.6432 0.7164 0.5714 0.39304
3269.617 0.5062 0.7449 0.8248 0.7753 0.6306 0.5609 0.5219 0.5007 0.6324 0.6652
3288.907 0.4189 0.2167 0.6868 0.7839 0.55 0.5803 0.2189 0.2363 0.4847 0.6708
3308.197 0.8314 0.77 0.4988 0.4671 0.5835 0.5254 0.7256 0.5811 0.478 0.7569
3327.487 0.886 0.7617 0.4755 0.2775 0.2378 0.34667 0.320726 0.4241 0.5518 0.4882
3346.777 0.39331 0.4356 0.6635 0.7253 0.7956 0.7444 0.6053 0.6996 0.5737 0.40241
3366.066 0.5669 0.5583 0.4174 0.4856 0.597 0.5431 0.4291 0.36383 0.3124 0.5572
3385.356 0.637 0.35813 0.3758 0.5012 0.5125 0.32884 0.164 0.2947 0.4187 0.5076
3404.646 0.5249 0.5337 0.4523 0.40075 0.4382 0.5163 0.6622 0.5524 0.6012 0.9407
3423.936 0.9273 0.6672 0.2912 0 0.181 0.37054 0.5279 0.6164 0.5929 0.7206
3443.225 0.9272 0.9549 0.9351 0.7518 0.5984 0.6237 0.5077 0.2654 0.35905 0.5975
3462.515 0.318628 0.124 0.2204 0.5682 0.7843 0.9324 0.807 0.4433 0.2149 0.37722
3481.805 0.5102 0.40672 0.4202 0.4706 0.5598 0.33849 0.4859 0.6985 0.6556 0.7064
3501.095 0.6613 0.6851 0.6907 0.5385 0.6402 0.7569 0.7277 0.6632 0.4491 0.201
3520.385 0.094 0.4492 0.8235 0.8315 0.559 0.2667 0.32453 0.5463 0.4543 0.39532
3539.674 0.4591 0.2289 0.128 0.2619 0.4304 0.5056 0.5491 0.4529 0.2959 0.5144
3558.964 0.7379 0.6364 0.5868 0.5073 0.4375 0.5845 0.4565 0.2902 0.32629 0.40338
3578.254 0.36158 0.30472 0.201 0.2247 0.6101 0.6678 0.6487 0.5804 0.35968 0.3652
3597.544 0.6292 1.0297 0.9509 0.6292 0.5436 0.4834 0.449 0.4164 0.6359 0.7838
3616.833 0.72 0.9764 0.9545 0.5854 0.4991 0.4798 0.4937 0.5746 0.8065 0.7549
3636.123 0.38801 0.5231 0.5401 0.182 0.3557 0.7321 0.6558 0.382 0.32893 0.4433
3655.413 0.5474 0.7348 0.9557 0.8388 0.7858 0.7061 0.6275 0.7252 0.34653 0.5271
3674.703 0.8338 0.4882 0.4323 0.4347 0.40523 0.4997 0.6452 0.6638 0.6083 0.7446
3693.993 0.8259 0.65 0.4377 0.3 0.2862 0.4528 0.5033 0.4238 0.35293 0.5338
3713.282 0.5951 0.6326 0.6536 0.5897 0.5516 0.8316 1.0608 0.7467 0.7134 0.6397
3732.572 0.4887 0.4787 0.5431 0.5152 0.4433 0.422 0.6194 0.871 0.6517 0.5563
3751.862 0.7292 0.6903 0.6937 0.5393 0.2357 0.32604 0.6836 0.7484 0.6665 0.788
3771.152 0.7632 0.899 0.7927 0.6186 0.7025 0.7748 0.8085 0.7174 0.8674 0.6479
3790.441 0.4346 0.6472 0.436 0.12 0.172 0.4939 0.5735 0.6101 0.5544 0.36162
3809.731 0.4943 0.2987 0.4843 0.7899 0.5957 0.41332 0.5428 0.6589 0.417 0.2715
3829.021 0.3806 0.32933 0.083 0.127 0.166 0.36415 0.6431 0.8273 1.0356 0.9622
3848.311 0.9477 0.8269 0.4526 0.40561 0.5656 0.5792 0.7195 0.9169 0.9094 0.9038
3867.601 0.8848 0.9825 0.8427 0.7133 0.569 0.5907 0.6931 0.551 0.7235 0.9863
3886.890 0.9535 0.5983 0.4963 0.6021 0.5377 0.7234 1.1469 1.1532 0.8094 0.36301
3906.180 0.30799 0.5964 0.7571 0.6287 0.6008 0.7492 0.78 0.7846 0.7499 0.8637
3925.470 0.8732 0.6961 0.6962 0.8223 0.8618 0.8409 0.7953 0.9617 0.8732 0.6339
3944.760 0.7506 0.9661 0.9544 0.7991 0.7532 0.8291 0.6624 0.4671 0.5229 0.39756
3964.049 0.5788 0.8566 0.6629 0.5499 0.5427 0.5592 0.7012 0.8279 0.6675 0.4322
3983.339 0.7255 0.8425 0.5038 0.5297 0.5097 0.5693 0.5702 0.4343 0.5316 0.6551
##END=
