##TITLE=3,3-Dimethylhexane
##JCAMP-DX=4.24
##DATA TYPE=INFRARED SPECTRUM
##ORIGIN=NIST Mass Spectrometry Data Center
##OWNER=NIST Standard Reference Data Program
Collection (C) 2018 copyright by the U.S. Secretary of Commerce
on behalf of the United States of America. All rights reserved.
##CAS REGISTRY NO=563-16-6
##MOLFORM=C 8 H 18
##$NIST SOURCE=MSDC-IR
##SPECTROMETER/DATA SYSTEM=HP-GC/MS/IRD
##STATE=gas
##XUNITS=1/CM
##YUNITS=ABSORBANCE
##XFACTOR=1.0
##YFACTOR=0.000006500
##DELTAX=4.0
##FIRSTX=550.0
##LASTX=3846.0
##FIRSTY=0.000091
##MAXX=3846
##MINX=550
##MAXY=0.065
##MINY=0
##NPOINTS=825
##XYDATA=(X++(Y..Y))
550.0 14 12 1 10 16 19 20 11 11 9
590.0 6 7 11 19 11 17 21 12 17 21
630.0 18 21 21 23 29 32 35 23 14 22
670.0 23 17 19 20 23 23 25 27 24 24
710.0 27 34 40 52 59 63 74 80 85 82
750.0 72 68 66 59 60 69 85 104 113 110
790.0 106 101 86 70 59 46 40 38 36 27
830.0 24 33 34 27 27 32 34 31 33 38
870.0 36 28 25 30 37 40 43 59 75 80
910.0 81 81 79 79 74 75 83 92 101 102
950.0 98 92 77 61 52 44 39 44 55 65
990.0 75 93 121 147 167 182 187 178 157 131
1030.0 109 95 88 87 87 81 73 69 62 51
1070.0 44 49 59 61 63 65 64 59 56 51
1110.0 39 29 28 30 28 27 32 34 39 39
1150.0 42 48 58 79 98 126 162 199 231 257
1190.0 270 267 254 239 218 195 176 159 132 109
1230.0 97 86 79 75 76 79 84 90 88 87
1270.0 85 84 85 86 90 96 102 106 110 112
1310.0 112 109 106 103 103 109 121 139 169 218
1350.0 285 368 462 567 699 787 817 854 873 845
1390.0 778 675 553 429 320 242 203 190 194 211
1430.0 243 294 366 457 572 711 865 1018 1140 1210
1470.0 1215 1155 1028 847 666 501 366 269 205 165
1510.0 134 114 104 96 85 75 71 71 68 63
1550.0 62 65 66 59 53 53 55 51 49 51
1590.0 48 46 44 40 39 40 40 38 36 35
1630.0 34 38 37 33 35 40 38 31 29 29
1670.0 31 34 32 33 30 23 25 31 27 22
1710.0 20 20 24 19 16 17 18 17 14 12
1750.0 11 11 12 13 11 12 12 11 10 8
1790.0 11 11 10 9 9 10 8 6 6 5
1830.0 5 6 7 8 6 3 5 7 8 9
1870.0 7 6 6 5 5 3 8 9 8 7
1910.0 7 8 7 6 5 4 4 4 2 3
1950.0 1 0 2 3 4 3 2 3 4 3
1990.0 0 3 4 3 2 3 5 6 7 6
2030.0 5 4 4 5 8 9 8 5 3 4
2070.0 7 4 3 6 7 7 6 5 5 2
2110.0 2 6 5 0 2 3 4 2 1 3
2150.0 3 3 4 3 3 2 4 6 4 2
2190.0 2 3 5 3 4 7 7 4 3 3
2230.0 6 6 4 3 2 4 7 8 7 8
2270.0 7 8 9 9 10 9 9 10 11 10
2310.0 10 11 11 17 20 21 22 24 23 19
2350.0 19 22 27 28 28 25 19 18 20 17
2390.0 16 20 22 22 21 22 20 19 19 16
2430.0 15 15 14 12 12 13 16 16 14 16
2470.0 14 14 15 15 16 16 15 13 15 16
2510.0 17 17 16 14 15 17 16 21 28 27
2550.0 26 27 30 34 38 36 36 38 36 36
2590.0 37 38 41 44 47 48 51 56 61 65
2630.0 67 71 74 74 73 75 80 81 83 83
2670.0 81 77 77 77 74 75 79 81 85 91
2710.0 101 115 128 138 145 154 165 171 176 177
2750.0 172 165 162 164 167 173 181 188 196 205
2790.0 223 239 261 284 307 336 369 408 459 517
2830.0 591 693 826 994 1197 1426 1672 1925 2182 2473
2870.0 2819 3178 3490 3732 3884 3982 4051 4116 4215 4346
2910.0 4492 4618 4742 4893 5091 5355 5660 5953 6235 6596
2950.0 7151 7936 8882 9668 10000 9630 8509 6943 5211 3665
2990.0 2533 1788 1323 1033 847 728 645 580 537 499
3030.0 462 430 398 371 347 327 313 302 295 285
3070.0 275 266 256 244 237 227 216 207 198 192
3110.0 181 171 165 156 148 141 137 135 135 135
3150.0 132 130 129 126 124 121 117 114 112 105
3190.0 103 105 99 94 92 86 81 82 74 69
3230.0 66 60 54 53 51 46 48 50 45 40
3270.0 37 39 39 40 40 39 36 30 30 34
3310.0 33 31 28 29 32 31 31 29 27 25
3350.0 22 22 23 24 28 30 27 25 24 23
3390.0 22 23 19 17 22 23 20 20 21 18
3430.0 20 23 20 20 19 13 10 11 12 14
3470.0 15 12 10 10 10 11 11 10 14 14
3510.0 10 12 14 13 12 9 7 8 12 12
3550.0 12 11 8 10 10 11 11 9 3 5
3590.0 12 16 15 9 10 11 15 15 11 13
3630.0 17 21 22 18 20 26 27 23 18 19
3670.0 26 28 31 31 26 25 24 28 29 23
3710.0 23 23 22 17 18 22 21 17 20 32
3750.0 35 30 27 24 26 27 24 22 21 27
3790.0 28 26 29 35 37 34 34 35 39 37
3830.0 35 37 34 28 27
##END=
