##TITLE=Bromonitromethane
##JCAMP-DX=4.24
##DATA TYPE=INFRARED SPECTRUM
##ORIGIN=EPA-IR VAPOR PHASE LIBRARY
##OWNER=SRD/NIST
Collection (C) 2018 copyright by the U.S. Secretary of Commerce
on behalf of the United States of America. All rights reserved.
##CAS REGISTRY NO=563-70-2
##MOLFORM=C H 2 Br N O 2
##$NIST SOURCE=MSDC-IR
##STATE=gas
##XUNITS=1/CM
##YUNITS=ABSORBANCE
##XFACTOR=1.
##YFACTOR=0.001
##DELTAX=1.92898
##FIRSTX=549.8
##LASTX=4000.7
##FIRSTY=4.271
##MAXX=4000.7
##MINX=549.759
##MAXY=0.126841
##MINY=0
##NPOINTS=1790
##XYDATA=(X++(Y..Y))
549.759 4.271 4.391 4.851 5.571 5.431 4.901 4.461 4.311 4.351 4.391
569.049 4.221 4.311 4.521 4.301 3.911 3.761 3.651 3.541 3.231 3.031
588.339 2.961 2.581 2.351 2.111 1.951 1.821 1.541 1.461 1.501 1.491
607.628 1.351 1.361 1.411 1.281 1.2149 1.1778 1.124 1.331 1.731 1.691
626.918 1.581 1.821 1.871 1.841 2.271 2.711 2.781 3.191 3.761 4.461
646.208 5.371 6.481 7.561 8.681 10.271 12.071 13.831 16.041 18.791 21.361
665.498 23.821 26.461 28.711 30.221 30.851 30.781 30.391 29.771 29.041 28.311
684.787 27.521 25.741 23.081 20.041 17.031 14.481 12.411 10.961 9.881 9.261
704.077 8.781 8.191 7.851 7.641 7.351 6.931 6.641 6.591 6.491 6.371
723.367 6.441 6.681 7.001 7.481 8.031 8.721 9.531 10.291 11.131 11.891
742.657 12.271 12.571 12.781 12.991 13.121 13.131 13.241 12.901 12.071 11.051
761.947 9.931 8.931 7.861 6.901 6.071 5.081 4.331 3.811 3.351 2.821
781.236 2.441 2.271 2.051 1.831 1.741 1.701 1.591 1.531 1.501 1.431
800.526 1.2062 1.0792 1.1197 1.029 1.0365 1.0024 0.9353 0.9501 0.9175 0.8958
819.816 0.926 0.8388 0.8487 0.8821 0.7328 0.7059 0.8282 0.956 0.8575 0.8593
839.106 1.0059 0.9669 0.7959 0.7449 0.8432 0.9979 1.1663 1.1586 0.9898 0.9665
858.395 1.0552 1.0714 1.2335 1.461 1.411 1.381 1.721 2.021 2.111 2.391
877.685 2.941 3.431 3.911 4.481 4.981 5.431 5.761 6.021 6.441 6.611
896.975 6.661 6.841 6.801 6.681 6.271 5.791 5.281 4.511 4.031 3.671
916.265 3.051 2.481 2.191 1.961 1.611 1.2195 1.1048 1.1655 1.1645 1.1745
935.555 1.1372 0.9784 0.817 0.7663 0.7913 0.7293 0.6416 0.7112 0.7493 0.7606
954.844 0.7553 0.6305 0.5661 0.6345 0.7579 0.6202 0.545 0.5908 0.5848 0.4936
974.134 0.4144 0.4386 0.3829 0.4252 0.2445 0.104 0.3185 0.32544 0.2164 0.30435
993.424 0.455 0.5539 0.6212 0.576 0.4027 0.4094 0.3701 0.2353 0.3632 0.5295
1012.714 0.4882 0.392 0.4081 0.32558 0.2897 0.4212 0.4982 0.5147 0.5478 0.4182
1032.003 0.4048 0.6324 0.7026 0.7319 0.6223 0.5393 0.6524 0.4347 0.1936 0.270766
1051.293 0.5005 0.5342 0.30882 0.3932 0.4709 0.5344 0.2383 0.105 0.30994 0.532
1070.583 0.7168 0.6902 0.7289 0.548 0.7901 0.7845 0.626 1.0959 0.956 0.8832
1089.873 0.9825 1.0188 1.0939 1.0646 1.431 1.2111 1.2213 1.491 1.501 1.631
1109.163 1.631 1.691 1.901 2.301 2.351 2.301 2.261 2.321 2.551 2.701
1128.452 3.271 3.621 3.541 3.671 3.921 4.361 4.641 4.941 5.191 5.311
1147.742 5.361 5.591 5.931 5.901 5.641 5.841 6.231 6.001 6.071 6.291
1167.032 5.911 5.641 5.871 6.031 6.221 6.491 6.531 6.431 6.181 5.601
1186.322 5.201 5.351 5.601 5.531 5.241 5.151 5.231 5.281 5.461 5.581
1205.611 4.951 4.951 5.461 5.341 5.661 5.931 6.051 5.861 5.661 6.031
1224.901 6.431 7.391 8.271 8.761 9.761 11.461 13.441 15.871 18.311 20.641
1244.191 22.881 24.151 24.781 24.681 24.211 24.231 24.631 24.571 23.661 22.571
1263.481 21.691 20.181 17.651 14.961 12.751 10.981 9.431 8.421 7.581 6.881
1282.771 6.561 6.381 6.061 5.651 5.441 5.321 5.291 5.371 5.471 5.621
1302.060 5.881 6.231 6.731 7.411 8.171 9.201 10.321 11.401 12.691 14.081
1321.350 15.561 17.211 19.001 20.941 23.061 25.371 27.721 30.181 32.841 35.531
1340.640 38.241 40.961 43.571 45.911 47.851 49.321 50.281 50.811 50.791 50.261
1359.930 49.281 47.751 45.491 42.271 38.501 35.011 31.491 27.161 22.251 17.711
1379.219 13.981 11.321 9.621 8.561 7.981 7.611 7.351 7.181 7.151 7.211
1398.509 7.351 7.501 7.621 7.621 7.431 7.211 7.001 6.881 6.951 7.151
1417.799 7.151 6.751 6.301 5.971 5.641 5.321 4.961 4.681 4.481 4.291
1437.089 4.011 3.631 3.421 3.321 3.151 3.021 2.861 2.631 2.491 2.391
1456.378 2.241 2.071 1.991 1.901 1.751 1.671 1.641 1.611 1.601 1.561
1475.668 1.501 1.481 1.441 1.421 1.411 1.371 1.361 1.371 1.431 1.521
1494.958 1.591 1.601 1.741 1.931 2.041 2.361 2.661 2.861 3.111 3.451
1514.248 3.921 4.451 5.091 5.841 6.661 7.571 8.681 9.921 11.361 13.011
1533.538 14.871 17.001 19.321 21.911 24.781 27.941 31.461 35.211 39.291 43.771
1552.827 48.491 53.701 59.081 64.871 70.921 76.981 83.251 89.561 95.951 102.241
1572.117 108.031 113.061 117.221 119.991 121.211 121.171 119.871 118.451 118.401 119.411
1591.407 121.421 124.391 126.841 126.531 122.821 116.101 106.851 96.461 85.951 75.991
1610.697 67.021 58.851 51.481 44.711 38.421 32.741 27.691 23.181 19.231 15.821
1629.986 13.041 10.671 8.721 7.171 5.941 4.951 4.141 3.491 3.021 2.701
1649.276 2.441 2.221 1.951 1.721 1.621 1.521 1.341 1.204 1.1593 1.0687
1668.566 0.9928 0.9735 0.9447 0.8861 0.8085 0.828 0.8025 0.7439 0.7907 0.7088
1687.856 0.6092 0.6062 0.6188 0.6205 0.5827 0.615 0.6372 0.6292 0.5703 0.5972
1707.146 0.6319 0.6024 0.629 0.6278 0.6316 0.5764 0.5266 0.5622 0.5752 0.5756
1726.435 0.5577 0.5217 0.5591 0.5741 0.5164 0.4322 0.423 0.5318 0.5722 0.6092
1745.725 0.6154 0.5497 0.5418 0.5086 0.4961 0.4751 0.4667 0.4584 0.4605 0.5086
1765.015 0.5574 0.5348 0.5292 0.6273 0.6556 0.6431 0.6322 0.594 0.5916 0.6177
1784.305 0.614 0.6512 0.7013 0.6998 0.6656 0.6704 0.6568 0.6452 0.6856 0.69
1803.594 0.6649 0.6075 0.5529 0.5397 0.5681 0.6054 0.6042 0.5393 0.495 0.4844
1822.884 0.4353 0.4207 0.4324 0.4534 0.4845 0.4874 0.4833 0.4574 0.4267 0.4501
1842.174 0.4495 0.4385 0.4721 0.4137 0.3703 0.4084 0.3848 0.32464 0.32568 0.3668
1861.464 0.4 0.3958 0.3968 0.4 0.33832 0.27619 0.29517 0.4023 0.3789 0.32094
1880.754 0.367 0.3877 0.4122 0.414 0.3738 0.3659 0.3743 0.3081 0.31347 0.33415
1900.043 0.3418 0.4429 0.4896 0.4553 0.4338 0.4351 0.4391 0.4627 0.4897 0.4357
1919.333 0.4128 0.4376 0.4538 0.4357 0.3843 0.45 0.4507 0.4175 0.4713 0.4809
1938.623 0.4049 0.4211 0.4452 0.3757 0.3774 0.385 0.4356 0.4993 0.4666 0.4306
1957.913 0.4576 0.4872 0.4846 0.5387 0.5997 0.5401 0.4796 0.4645 0.441 0.4549
1977.202 0.4707 0.4711 0.4538 0.4304 0.4054 0.436 0.486 0.5006 0.4772 0.4255
1996.492 0.4493 0.4727 0.4498 0.4003 0.3776 0.3876 0.4035 0.3864 0.33556 0.3765
2015.782 0.3783 0.3671 0.4053 0.4142 0.4015 0.4284 0.4576 0.4371 0.4098 0.3797
2035.072 0.411 0.4583 0.4721 0.4753 0.4525 0.4355 0.3964 0.3751 0.362 0.3641
2054.362 0.4253 0.4586 0.4585 0.428 0.4585 0.4863 0.5363 0.5876 0.5703 0.5967
2073.651 0.5692 0.4909 0.5012 0.5193 0.5245 0.5335 0.5346 0.5412 0.5632 0.569
2092.941 0.4724 0.4484 0.4631 0.4636 0.4586 0.4395 0.4177 0.4026 0.4415 0.4564
2112.231 0.4062 0.3443 0.32931 0.3791 0.4134 0.3665 0.34552 0.35167 0.34061 0.33573
2131.521 0.3756 0.4155 0.3879 0.3903 0.3866 0.36047 0.4136 0.4312 0.4288 0.4934
2150.810 0.4868 0.4498 0.4796 0.4702 0.4119 0.3989 0.4553 0.4889 0.5202 0.5571
2170.100 0.5417 0.5296 0.49 0.484 0.4673 0.3781 0.4296 0.5197 0.5392 0.4868
2189.390 0.4333 0.4241 0.32246 0.33089 0.429 0.4599 0.455 0.4225 0.4166 0.4211
2208.680 0.3995 0.35397 0.3636 0.34193 0.3663 0.4341 0.4382 0.3975 0.4342 0.4711
2227.970 0.4182 0.4269 0.5199 0.6019 0.5842 0.5166 0.4727 0.4298 0.4559 0.5317
2247.259 0.5117 0.5366 0.6326 0.6236 0.5411 0.5388 0.5742 0.5481 0.5579 0.5945
2266.549 0.5653 0.5928 0.6993 0.7434 0.7156 0.7269 0.7281 0.7917 0.8191 0.8232
2285.839 0.919 0.953 0.9227 0.8947 0.9309 0.9751 1.0681 1.0381 0.9597 0.9486
2305.129 0.9076 0.8986 0.9495 1.0054 0.9681 0.9543 0.9543 1.002 1.0551 1.015
2324.418 0.9446 0.8758 0.8326 0.8604 0.8844 0.8562 0.8254 0.7291 0.7587 0.8125
2343.708 0.7298 0.7346 0.7555 0.7115 0.6288 0.5556 0.609 0.6592 0.6961 0.7432
2362.998 0.7544 0.7184 0.6028 0.5824 0.6093 0.5914 0.5882 0.6277 0.5641 0.4456
2382.288 0.4111 0.362 0.29888 0.34365 0.3622 0.30785 0.31318 0.32024 0.3307 0.35266
2401.578 0.3851 0.3638 0.32865 0.33166 0.33563 0.31454 0.3731 0.4106 0.3733 0.4669
2420.867 0.5278 0.4709 0.4386 0.4853 0.4807 0.4432 0.4486 0.4321 0.4934 0.5721
2440.157 0.5536 0.5889 0.6566 0.6691 0.7093 0.713 0.703 0.7268 0.7751 0.8697
2459.447 0.8779 0.8332 0.8717 0.9296 0.9593 1.0073 1.0369 1.0514 1.0066 1.0058
2478.737 1.0917 1.0949 1.0725 1.0882 1.0677 1.0873 1.0556 1.0406 1.0682 1.0626
2498.026 1.0308 0.9602 0.9437 0.9031 0.7985 0.7962 0.7453 0.6372 0.6885 0.6823
2517.316 0.6494 0.6392 0.6028 0.5923 0.5698 0.564 0.5309 0.4337 0.4705 0.4884
2536.606 0.495 0.5443 0.474 0.4825 0.4631 0.4249 0.4 0.35803 0.3657 0.35243
2555.896 0.3523 0.34425 0.3612 0.34045 0.36032 0.3829 0.3844 0.4471 0.4459 0.4485
2575.186 0.4988 0.4736 0.35075 0.33649 0.4089 0.3821 0.3945 0.4151 0.3903 0.3772
2594.475 0.4468 0.4653 0.35823 0.4022 0.4654 0.4541 0.4328 0.4427 0.3825 0.3864
2613.765 0.4266 0.4046 0.4286 0.33882 0.36022 0.3991 0.4201 0.4455 0.4366 0.5006
2633.055 0.5549 0.5949 0.5864 0.5467 0.4804 0.6208 0.7371 0.648 0.711 0.8525
2652.345 0.8639 0.8818 1.0283 1.1621 1.191 1.1698 1.1659 1.2478 1.321 1.381
2671.634 1.531 1.561 1.571 1.581 1.661 1.741 1.751 1.791 1.801 1.821
2690.924 1.871 1.911 1.971 1.991 1.921 1.841 1.681 1.601 1.561 1.521
2710.214 1.531 1.521 1.381 1.1767 1.1486 1.0548 0.9543 0.9025 0.7666 0.6452
2729.504 0.6389 0.6494 0.5921 0.5484 0.5474 0.4853 0.4849 0.465 0.34835 0.3775
2748.794 0.4907 0.5805 0.4402 0.4015 0.4676 0.4097 0.4036 0.4773 0.5682 0.4988
2768.083 0.34997 0.3879 0.3746 0.3146 0.3759 0.30228 0.27616 0.34359 0.266431 0.2759
2787.373 0.4559 0.4171 0.3704 0.4401 0.4248 0.4492 0.4604 0.4171 0.4522 0.4555
2806.663 0.5048 0.5186 0.5172 0.5713 0.5112 0.529 0.5628 0.5352 0.5385 0.4517
2825.953 0.3617 0.4701 0.5704 0.4976 0.4461 0.5147 0.5605 0.5899 0.6385 0.6301
2845.242 0.6251 0.7094 0.7452 0.8253 0.8506 0.7803 0.8938 0.9358 0.996 1.078
2864.532 1.0387 1.0532 1.136 1.2145 1.2277 1.2606 1.291 1.371 1.591 1.741
2883.822 1.791 1.861 1.971 2.101 2.131 2.231 2.401 2.461 2.611 2.781
2903.112 2.931 3.001 3.141 3.271 3.241 3.461 3.621 3.641 3.701 3.761
2922.401 3.801 3.901 3.971 3.901 3.861 3.801 3.661 3.531 3.451 3.391
2941.691 3.361 3.201 3.031 2.841 2.561 2.401 2.231 2.031 1.871 1.721
2960.981 1.531 1.411 1.2425 1.1596 1.1384 0.9513 0.923 0.9842 0.9388 0.8901
2980.271 0.881 0.9446 1.0576 1.1827 1.2154 1.441 1.691 1.731 1.821 1.901
2999.561 1.811 1.701 1.691 1.591 1.471 1.511 1.541 1.321 1.2347 1.1183
3018.850 0.9618 0.7809 0.6175 0.6057 0.6039 0.6161 0.6801 0.6735 0.5918 0.6008
3038.140 0.6391 0.7207 0.8201 0.8252 0.7389 0.7879 0.9169 1.0604 1.1101 1.0494
3057.430 1.1081 1.2173 1.2177 1.2111 1.1662 1.2343 1.421 1.531 1.531 1.471
3076.720 1.471 1.2435 1.0502 1.1625 1.291 1.1925 1.0707 1.1641 1.321 1.291
3096.009 1.1652 1.1382 1.0877 1.0135 0.9718 0.8279 0.7822 0.8249 0.6688 0.5966
3115.299 0.6634 0.6736 0.6264 0.4315 0.3773 0.4245 0.29722 0.261516 0.3714 0.4145
3134.589 0.34845 0.3443 0.4456 0.4874 0.5056 0.4867 0.4235 0.35922 0.1725 0.1912
3153.879 0.4315 0.5388 0.477 0.31674 0.28591 0.35827 0.35842 0.30532 0.3999 0.4365
3173.169 0.36095 0.35453 0.3834 0.35959 0.3643 0.29781 0.1652 0.168 0.1856 0.267583
3192.458 0.2874 0.34182 0.3776 0.2834 0.33615 0.3973 0.4099 0.3657 0.36073 0.35519
3211.748 0.31501 0.26428 0.115 0.2276 0.3466 0.34868 0.28156 0.2248 0.2193 0.2092
3231.038 0.260991 0.2467 0.28655 0.445 0.4508 0.331 0.32082 0.2367 0.2514 0.2291
3250.328 0.2139 0.27482 0.265071 0.28671 0.29556 0.3885 0.5078 0.5463 0.4179 0.31688
3269.617 0.2515 0.2348 0.28115 0.2509 0.27452 0.32558 0.29402 0.3925 0.5437 0.3733
3288.907 0.28885 0.33235 0.3875 0.4539 0.3747 0.25459 0.2151 0.2511 0.3686 0.29151
3308.197 0.107 0.2421 0.27509 0.157 0.2196 0.46 0.5309 0.28896 0 0.046
3327.487 0.1639 0.28521 0.31584 0.1706 0.2422 0.34567 0.4082 0.4351 0.4269 0.4977
3346.777 0.5683 0.5566 0.4891 0.4258 0.3741 0.30733 0.30585 0.3842 0.5869 0.566
3366.066 0.4849 0.4984 0.4349 0.4295 0.4384 0.4136 0.2478 0.241 0.4247 0.4269
3385.356 0.3162 0.2588 0.28553 0.4349 0.6081 0.5791 0.4893 0.3862 0.32314 0.264961
3404.646 0.30193 0.34656 0.30276 0.4103 0.4823 0.4008 0.4011 0.4287 0.4002 0.421
3423.936 0.34245 0.392 0.4768 0.4626 0.484 0.4624 0.34805 0.2257 0.26223 0.381
3443.225 0.4001 0.4441 0.4896 0.4488 0.3823 0.27705 0.29207 0.3632 0.3694 0.417
3462.515 0.408 0.5716 0.5479 0.381 0.34208 0.3398 0.4428 0.5289 0.4724 0.3799
3481.805 0.4564 0.31987 0.3703 0.5691 0.512 0.454 0.3902 0.3741 0.4353 0.4067
3501.095 0.4108 0.4387 0.4388 0.3776 0.30675 0.34857 0.5003 0.6044 0.5478 0.4981
3520.385 0.4193 0.4842 0.5064 0.3832 0.3619 0.471 0.4095 0.29628 0.3848 0.5187
3539.674 0.629 0.6082 0.5029 0.4655 0.4833 0.4991 0.4871 0.4468 0.4642 0.3636
3558.964 0.25332 0.4287 0.5558 0.4898 0.4491 0.4583 0.3803 0.4883 0.5971 0.4689
3578.254 0.4837 0.5344 0.5072 0.5046 0.4931 0.4168 0.2345 0.27659 0.5357 0.5224
3597.544 0.374 0.3675 0.35974 0.30768 0.35316 0.35766 0.3857 0.34616 0.32775 0.30815
3616.833 0.3926 0.5468 0.5359 0.4626 0.4717 0.4466 0.3967 0.5839 0.5594 0.4857
3636.123 0.5154 0.4258 0.3864 0.4766 0.5462 0.5344 0.5272 0.5073 0.5392 0.5119
3655.413 0.4387 0.462 0.4889 0.34723 0.2262 0.33036 0.35901 0.34343 0.4459 0.4627
3674.703 0.4005 0.3658 0.3898 0.4686 0.5694 0.6475 0.5975 0.5493 0.4646 0.5215
3693.993 0.6185 0.4229 0.30516 0.34041 0.2385 0.33225 0.5115 0.4967 0.4306 0.4753
3713.282 0.5352 0.4961 0.4373 0.4113 0.4445 0.4011 0.4002 0.32851 0.4726 0.5649
3732.572 0.3995 0.369 0.28029 0.3834 0.5393 0.5282 0.5633 0.507 0.5304 0.6858
3751.862 0.5826 0.4743 0.5043 0.49 0.4365 0.32952 0.32824 0.5454 0.5921 0.5399
3771.152 0.4833 0.34431 0.25807 0.3763 0.3663 0.3766 0.5942 0.5155 0.4183 0.4427
3790.441 0.3839 0.3627 0.4508 0.4869 0.5783 0.5327 0.3859 0.4214 0.5489 0.654
3809.731 0.6656 0.5022 0.32681 0.33813 0.34377 0.4105 0.5044 0.3918 0.30337 0.3864
3829.021 0.454 0.5075 0.32356 0.15 0.4347 0.5481 0.4497 0.4428 0.4638 0.5641
3848.311 0.5065 0.4525 0.5307 0.5637 0.5468 0.4709 0.505 0.4766 0.4339 0.4611
3867.601 0.5352 0.5549 0.4988 0.4122 0.3695 0.4351 0.5085 0.5195 0.486 0.4319
3886.890 0.4454 0.5397 0.4864 0.4552 0.386 0.32714 0.4512 0.5604 0.4369 0.3972
3906.180 0.35191 0.3786 0.3956 0.4268 0.4467 0.3189 0.4473 0.4936 0.4844 0.5618
3925.470 0.558 0.4249 0.4558 0.5328 0.4123 0.4305 0.4855 0.3731 0.4491 0.6426
3944.760 0.5881 0.4978 0.567 0.6379 0.5802 0.5052 0.6448 0.6986 0.4274 0.3924
3964.049 0.5468 0.5231 0.4721 0.6045 0.7063 0.7125 0.7045 0.6524 0.5856 0.4541
3983.339 0.4074 0.4298 0.4348 0.5106 0.4638 0.4094 0.507 0.3633 0.4001 0.5114
##END=
