##TITLE=4-Ethoxyphenethylamine
##JCAMP-DX=4.24
##DATA TYPE=INFRARED SPECTRUM
##ORIGIN=EPA-IR VAPOR PHASE LIBRARY
##OWNER=SRD/NIST
Collection (C) 2018 copyright by the U.S. Secretary of Commerce
on behalf of the United States of America. All rights reserved.
##CAS REGISTRY NO=56370-30-0
##MOLFORM=C 10 H 15 N O
##$NIST SOURCE=MSDC-IR
##STATE=gas
##XUNITS=1/CM
##YUNITS=ABSORBANCE
##XFACTOR=1.
##YFACTOR=0.001
##DELTAX=1.92898
##FIRSTX=549.8
##LASTX=4000.7
##FIRSTY=7.07
##MAXX=4000.7
##MINX=549.759
##MAXY=0.14195
##MINY=0
##NPOINTS=1790
##XYDATA=(X++(Y..Y))
549.759 7.07 7.33 7.55 7.66 7.84 7.94 8.2 8.31 8.17 7.95
569.049 7.9 8 8.04 8.02 7.87 7.71 7.37 7.06 6.58 6.21
588.339 6.14 5.63 5.15 4.94 4.84 4.56 4.38 4.39 4.14 4.11
607.628 4.06 3.87 3.93 4.08 3.93 3.85 3.95 4.05 4.03 3.98
626.918 4.26 4.37 4.2 4.31 4.38 4.36 4.56 4.71 4.82 4.67
646.208 4.61 4.72 4.83 5.03 5.03 4.81 4.83 5.07 5.14 5.22
665.498 5.26 5.4 5.72 5.89 5.89 6.16 6.43 6.66 6.95 7.2
684.787 7.54 7.88 8.44 8.86 9.19 9.41 9.42 9.58 9.87 10.22
704.077 10.53 10.82 11.09 11.3 11.47 11.6 11.87 12.07 12.39 12.6
723.367 12.76 13.04 13.32 13.56 13.59 14.02 14.55 14.91 15.43 16.02
742.657 16.67 17.42 18.09 18.82 19.68 20.39 21.35 22.24 22.92 23.62
761.947 24.47 25.43 26.2 26.89 27.66 28.43 28.86 28.97 29.09 29.2
781.236 29.08 28.66 28.25 28.04 27.84 27.7 27.43 27.21 27.12 26.97
800.526 26.97 27 26.77 26.62 26.74 26.87 26.68 26.47 26.4 26.17
819.816 25.83 25.34 24.56 23.69 22.81 21.75 20.65 19.51 18.22 17.01
839.106 15.83 14.88 13.96 13.1 12.47 11.9 11.47 10.8 10.23 9.93
858.395 9.64 9.37 8.85 8.49 8.24 7.87 7.64 7.42 7.11 6.79
877.685 6.52 6.56 6.63 6.7 6.81 7.08 7.5 7.96 8.44 8.92
896.975 9.39 9.8 10.27 10.67 10.85 10.77 10.76 10.69 10.58 10.67
916.265 10.74 10.69 10.59 10.46 10.11 9.55 8.92 8.16 7.42 6.95
935.555 6.36 5.68 5.36 5.14 5.02 4.75 4.5 4.43 4.3 4.1
954.844 3.94 3.76 3.72 3.78 3.81 3.99 4.14 4.23 4.18 4.2
974.134 4.52 4.66 4.89 5.1 5.32 5.54 5.68 5.9 6.1 6.31
993.424 6.4 6.34 6.69 7.37 7.78 8.33 8.87 9.64 10.9 12.04
1012.714 12.86 13.49 14.23 14.89 15.4 16.25 17.59 19.26 21.21 23.54
1032.003 26.25 29.2 32 34.34 36.67 38.8 39.94 40.56 40.68 39.71
1051.293 38.54 37.17 35.26 33.53 31.93 30.48 28.87 27.44 26.17 24.64
1070.583 23.15 21.86 20.44 19.14 18.5 18 17.87 17.85 17.96 18.21
1089.873 18.62 19.5 19.57 19.31 19.35 19.1 18.41 18.26 18.6 18.71
1109.163 18.75 18.6 18.26 17.8 17.52 16.7 15.79 14.71 13.19 11.94
1128.452 10.72 9.62 9.17 8.81 8.2 7.85 7.56 7.32 7.16 7.14
1147.742 7.26 7.31 7.68 8.21 9.06 10.31 11.81 13.73 16.34 19.81
1167.032 24.44 29.12 32.29 33.55 33.38 32.49 29.88 25.84 21.08 16.48
1186.322 13.48 11.86 10.96 10.65 10.87 11.26 12.17 13.61 15.28 17.16
1205.611 19.57 22.39 26.05 30.22 34.63 40.51 47.42 54.89 63.23 72.86
1224.901 83.17 94 105.4 116.16 125.32 132.9 138.51 141.53 141.95 139.63
1244.191 134.35 126.84 117.19 105.3 92.46 79.65 67.44 56.91 48.55 42.04
1263.481 36.82 32.94 30.23 27.88 26.14 25.19 24.59 24.14 23.96 23.93
1282.771 24.2 24.63 24.93 25.23 25.54 25.9 26.19 26.18 25.89 25.42
1302.060 24.7 23.6 22.16 20.5 18.74 17.01 15.32 13.83 12.57 11.49
1321.350 10.72 10.09 9.51 9.1 8.82 8.59 8.47 8.31 8.12 8.06
1340.640 8.03 7.96 7.97 8.11 8.23 8.35 8.52 8.79 9 9.17
1359.930 9.43 9.65 9.84 10.03 10.23 10.53 10.85 11.27 11.77 12.41
1379.219 13.28 14.31 15.47 16.78 18.13 19.38 20.37 20.92 20.89 20.26
1398.509 19.13 17.56 15.66 13.61 11.75 10.22 9.07 8.21 7.62 7.28
1417.799 7.06 6.87 6.79 6.77 6.78 6.88 7.09 7.38 7.7 8.07
1437.089 8.41 8.66 8.94 9.21 9.4 9.48 9.51 9.49 9.42 9.4
1456.378 9.44 9.5 9.63 9.81 10.15 10.7 11.44 12.48 13.93 15.98
1475.668 18.5 21.03 22.86 23.99 24.69 25.18 25.42 25.43 26.18 28.58
1494.958 33.23 40.55 50.62 63.57 78.71 94.23 107.56 115.61 117.2 113.02
1514.248 103.76 89.68 71.75 53.75 38.78 28.53 21.99 17.78 14.93 12.93
1533.538 11.49 10.36 9.45 8.73 8.22 7.79 7.42 7.13 6.9 6.67
1552.827 6.55 6.57 6.57 6.64 6.7 6.85 7.13 7.48 7.86 8.39
1572.117 9 9.61 10.32 10.94 11.52 11.98 12.42 12.91 13.41 13.91
1591.407 14.49 15.44 16.72 18.36 20.32 22.44 24.73 26.99 29.04 30.65
1610.697 31.46 31.55 30.87 29.32 27.2 24.73 22.15 19.69 17.4 15.46
1629.986 13.85 12.47 11.28 10.22 9.3 8.5 7.81 7.19 6.68 6.18
1649.276 5.62 5.18 4.81 4.4 4.1 3.88 3.61 3.38 3.27 3.1
1668.566 2.94 2.84 2.76 2.68 2.52 2.4 2.29 2.22 2.18 2.16
1687.856 2.13 2.07 2.03 1.97 1.97 1.96 1.88 1.82 1.83 1.92
1707.146 1.87 1.74 1.73 1.75 1.76 1.77 1.76 1.75 1.75 1.71
1726.435 1.7 1.74 1.75 1.71 1.78 1.85 1.85 1.98 2.03 2.03
1745.725 2.1 2.15 2.19 2.15 2.15 2.22 2.17 2.1 2.08 1.98
1765.015 1.88 1.75 1.63 1.58 1.52 1.46 1.39 1.34 1.32 1.33
1784.305 1.3 1.31 1.32 1.3 1.28 1.29 1.33 1.36 1.36 1.38
1803.594 1.43 1.44 1.44 1.42 1.44 1.45 1.44 1.42 1.45 1.46
1822.884 1.46 1.55 1.57 1.59 1.64 1.62 1.62 1.67 1.74 1.8
1842.174 1.83 1.82 1.92 2 2.05 2.18 2.27 2.31 2.39 2.46
1861.464 2.56 2.6 2.64 2.75 2.8 2.8 2.82 2.85 2.84 2.78
1880.754 2.7 2.63 2.52 2.37 2.27 2.22 2.1 2.01 1.96 1.85
1900.043 1.8 1.79 1.74 1.69 1.64 1.58 1.57 1.58 1.57 1.63
1919.333 1.65 1.61 1.66 1.73 1.72 1.74 1.74 1.82 1.93 1.93
1938.623 1.9 1.88 1.87 1.85 1.84 1.85 1.84 1.83 1.85 1.87
1957.913 1.85 1.82 1.81 1.76 1.74 1.78 1.8 1.77 1.79 1.79
1977.202 1.73 1.67 1.63 1.63 1.51 1.45 1.53 1.54 1.57 1.55
1996.492 1.49 1.45 1.45 1.42 1.44 1.42 1.37 1.43 1.46 1.42
2015.782 1.39 1.42 1.43 1.42 1.45 1.43 1.4 1.4 1.43 1.43
2035.072 1.42 1.48 1.49 1.5 1.58 1.61 1.61 1.62 1.61 1.6
2054.362 1.63 1.65 1.64 1.67 1.68 1.62 1.57 1.5 1.46 1.47
2073.651 1.48 1.47 1.44 1.39 1.35 1.3 1.26 1.27 1.26 1.22
2092.941 1.108 1.0654 1.1 1.0829 1.0442 1.0012 0.9579 0.9273 0.9715 0.9491
2112.231 0.901 0.8452 0.7951 0.7984 0.7692 0.7828 0.8187 0.8195 0.8411 0.8313
2131.521 0.8063 0.8091 0.7767 0.7933 0.7945 0.742 0.7058 0.6923 0.6855 0.6785
2150.810 0.6622 0.6696 0.7017 0.7202 0.7271 0.6978 0.7324 0.7705 0.6919 0.6389
2170.100 0.6182 0.5254 0.5026 0.5892 0.7018 0.721 0.6311 0.6002 0.5938 0.6067
2189.390 0.654 0.5838 0.5443 0.5773 0.5642 0.5794 0.6228 0.6002 0.5558 0.5493
2208.680 0.5914 0.6743 0.6233 0.5254 0.5344 0.6191 0.6547 0.5709 0.4861 0.5458
2227.970 0.5686 0.5704 0.6117 0.6126 0.6029 0.6059 0.6465 0.6554 0.695 0.6997
2247.259 0.629 0.6794 0.7522 0.7001 0.6867 0.7147 0.7071 0.6577 0.6546 0.7746
2266.549 0.7966 0.7867 0.8279 0.7922 0.8096 0.8493 0.8718 0.8683 0.8294 0.8069
2285.839 0.8357 0.8898 0.9353 0.9779 0.9736 0.9049 0.8407 0.8607 0.8811 0.9066
2305.129 0.9374 0.9451 0.9271 0.9526 0.9556 0.9005 0.8593 0.8406 0.8671 0.9074
2324.418 0.9284 0.8655 0.8371 0.8424 0.8488 0.8948 0.9295 0.8946 0.8549 0.8656
2343.708 0.8884 0.8662 0.8535 0.8507 0.8513 0.8957 0.9083 0.8374 0.7528 0.7846
2362.998 0.8133 0.7382 0.7097 0.7209 0.6557 0.6064 0.6695 0.6599 0.5828 0.7054
2382.288 0.8405 0.8334 0.7828 0.7742 0.8324 0.8619 0.9066 0.9704 1.0104 1.0601
2401.578 1.0708 1.111 1.1307 1.1142 1.17 1.29 1.32 1.26 1.3 1.29
2420.867 1.23 1.23 1.18 1.19 1.25 1.25 1.28 1.27 1.26 1.27
2440.157 1.27 1.22 1.19 1.23 1.33 1.39 1.37 1.35 1.43 1.52
2459.447 1.5 1.45 1.47 1.48 1.47 1.44 1.44 1.46 1.41 1.44
2478.737 1.41 1.35 1.39 1.41 1.44 1.37 1.24 1.25 1.25 1.27
2498.026 1.25 1.18 1.1361 1.1461 1.1481 1.1567 1.22 1.25 1.3 1.33
2517.316 1.29 1.3 1.32 1.35 1.4 1.38 1.36 1.4 1.39 1.35
2536.606 1.33 1.43 1.5 1.39 1.3 1.31 1.25 1.1517 1.0811 1.0609
2555.896 1.0718 1.1297 1.1377 1.0262 0.962 1.0401 1.0632 1.0287 1.0187 0.9504
2575.186 0.9439 1.0546 1.157 1.1143 1.0437 1.0814 1.0879 1.0854 1.0513 1.067
2594.475 1.16 1.116 1.1327 1.1579 1.1435 1.19 1.18 1.1172 1.0786 1.1447
2613.765 1.2 1.1541 1.1463 1.1154 1.0477 1.0438 1.22 1.27 1.2 1.2
2633.055 1.21 1.24 1.27 1.35 1.31 1.2 1.17 1.19 1.27 1.3
2652.345 1.28 1.31 1.34 1.36 1.33 1.27 1.29 1.39 1.4 1.35
2671.634 1.35 1.37 1.42 1.52 1.51 1.52 1.56 1.5 1.59 1.65
2690.924 1.59 1.58 1.63 1.74 1.75 1.73 1.87 1.95 2 2.1
2710.214 2.04 2.01 2.08 2.22 2.39 2.36 2.44 2.59 2.69 2.85
2729.504 2.94 2.97 3.01 3.06 3.14 3.2 3.16 3.22 3.3 3.29
2748.794 3.21 3.21 3.15 3.1 3.16 3.16 3.06 2.98 3.03 3.04
2768.083 3 3.01 3.14 3.19 3.12 3.13 3.12 3.14 3.18 3.24
2787.373 3.3 3.35 3.43 3.33 3.33 3.58 3.78 3.84 3.87 4.04
2806.663 4.18 4.39 4.66 4.89 5.07 5.31 5.64 5.84 6.2 6.6
2825.953 6.98 7.43 8.02 8.73 9.41 10.27 11.22 12.38 13.79 15.15
2845.242 16.44 17.86 19.27 20.6 21.85 22.93 23.73 24.29 24.66 24.88
2864.532 24.96 25.01 25.16 25.36 25.71 26.26 26.69 26.99 27.25 27.39
2883.822 27.38 27.32 27.2 27.03 26.95 26.98 27.29 27.9 28.7 29.71
2903.112 30.95 32.44 34.18 35.94 37.8 39.76 41.65 43.35 44.7 45.74
2922.401 46.5 47.13 47.55 48.02 48.7 49.56 50.79 52.1 52.88 52.99
2941.691 52.5 51.32 49.2 46.27 42.97 39.54 36.28 33.35 30.92 28.89
2960.981 27.33 26.15 25.36 24.97 24.91 25.25 25.86 26.85 28.17 29.58
2980.271 30.82 31.93 32.84 33.21 33.02 32.37 31.3 29.63 27.58 25.56
2999.561 23.57 21.66 19.9 18.35 17.13 16.19 15.43 14.8 14.34 14.2
3018.850 14.41 14.75 15.29 16.33 17.54 18.77 19.79 20.25 20.27 19.72
3038.140 18.61 17.06 15.15 13.1 11.31 10.03 9.09 8.56 8.24 8.04
3057.430 7.94 7.89 8.08 8.32 8.53 8.65 8.67 8.6 8.44 8.21
3076.720 7.88 7.46 7.16 6.89 6.54 6.31 6.24 6.25 6.23 6.15
3096.009 5.95 5.76 5.54 5.21 5.11 4.78 4.39 4.2 3.96 3.73
3115.299 3.4 3.21 3.05 2.83 2.72 2.67 2.53 2.26 2.05 2.05
3134.589 1.91 1.79 1.74 1.63 1.55 1.42 1.36 1.31 1.34 1.39
3153.879 1.27 1.119 1.0407 1.1064 1.1101 1.0382 1.0297 1.031 0.9756 0.9521
3173.169 0.9536 0.9094 0.9239 0.8854 0.8532 0.8972 0.8754 0.7777 0.7965 0.8336
3192.458 0.8256 0.7916 0.822 0.8519 0.8082 0.8091 0.8564 0.8317 0.87 0.9019
3211.748 0.8141 0.7905 0.8017 0.8061 0.7708 0.7378 0.6851 0.7416 0.7221 0.6269
3231.038 0.7333 0.8522 0.7314 0.641 0.6284 0.5732 0.5503 0.5427 0.5189 0.5752
3250.328 0.5518 0.4984 0.6162 0.6432 0.4709 0.4828 0.569 0.547 0.4226 0.4024
3269.617 0.4904 0.4183 0.4411 0.4916 0.4622 0.5229 0.5441 0.587 0.5166 0.4388
3288.907 0.5774 0.6129 0.4113 0.3563 0.5619 0.5255 0.4917 0.5391 0.5085 0.5395
3308.197 0.5302 0.4232 0.4884 0.5681 0.5808 0.5525 0.5254 0.5378 0.5408 0.5925
3327.487 0.6584 0.7907 0.8284 0.801 0.8386 0.8644 0.8762 0.9257 1.02 1.0705
3346.777 1.0105 1.0229 1.0857 0.9553 0.7539 0.814 0.8197 0.7195 0.7807 0.7391
3366.066 0.6276 0.5537 0.5491 0.6095 0.5396 0.4438 0.3954 0.44 0.3995 0.3476
3385.356 0.4015 0.5441 0.5372 0.3922 0.4721 0.5172 0.5235 0.5727 0.676 0.6662
3404.646 0.616 0.6789 0.8793 0.9238 0.7428 0.6371 0.7089 0.7841 0.7517 0.7367
3423.936 0.6055 0.584 0.5577 0.5128 0.6732 0.6152 0.4928 0.4399 0.4703 0.55
3443.225 0.4053 0.4193 0.4773 0.3972 0.4286 0.4168 0.3729 0.3842 0.3968 0.3618
3462.515 0.366 0.25412 0.18157 0.2776 0.2708 0.2749 0.3505 0.3226 0.2608 0.22183
3481.805 0.17295 0.24868 0.3593 0.3806 0.3503 0.2932 0.3121 0.447 0.4864 0.2967
3501.095 0.23939 0.4132 0.3766 0.1399 0.1457 0.2934 0.3181 0.2975 0.3002 0.1482
3520.385 0.1356 0.284 0.3494 0.451 0.4025 0.2841 0.3161 0.4299 0.3965 0.3555
3539.674 0.2706 0.3229 0.3306 0.2795 0.2645 0.24053 0.4014 0.4209 0.3012 0.3362
3558.964 0.4435 0.369 0.3648 0.3385 0.3323 0.3905 0.2994 0.23355 0.3365 0.3821
3578.254 0.407 0.3588 0.23471 0.20086 0.19687 0.167944 0 0.1011 0.3876 0.4072
3597.544 0.4349 0.4995 0.4257 0.2658 0.3534 0.4728 0.3362 0.23221 0.2355 0.323
3616.833 0.3619 0.355 0.2882 0.3116 0.434 0.4333 0.334 0.3164 0.2829 0.17172
3636.123 0.162397 0.25261 0.3858 0.4342 0.4367 0.4125 0.2868 0.3446 0.4311 0.4316
3655.413 0.4936 0.4439 0.38 0.3598 0.3654 0.3365 0.2857 0.2948 0.18421 0.19514
3674.703 0.3204 0.4133 0.482 0.4371 0.412 0.3958 0.3639 0.444 0.527 0.4742
3693.993 0.4005 0.372 0.3023 0.289 0.3289 0.3551 0.3841 0.4724 0.4596 0.3323
3713.282 0.4186 0.5779 0.5354 0.4744 0.3695 0.3144 0.3416 0.2961 0.3683 0.4041
3732.572 0.3683 0.4494 0.4654 0.3113 0.2713 0.2981 0.3268 0.352 0.20867 0.22165
3751.862 0.3295 0.2631 0.4262 0.5709 0.4236 0.4396 0.4721 0.4211 0.378 0.3772
3771.152 0.4563 0.5024 0.4733 0.443 0.4227 0.4051 0.3703 0.4157 0.4922 0.4135
3790.441 0.4811 0.3879 0.297 0.3202 0.3046 0.3682 0.4225 0.4141 0.3716 0.5048
3809.731 0.4749 0.3988 0.5332 0.6135 0.5534 0.4683 0.4276 0.4017 0.4515 0.4399
3829.021 0.4529 0.4942 0.5601 0.4374 0.23622 0.3093 0.3188 0.3828 0.5084 0.4533
3848.311 0.3885 0.4302 0.5897 0.6734 0.573 0.4696 0.3639 0.3824 0.6133 0.7185
3867.601 0.5491 0.4595 0.4406 0.4347 0.4023 0.3707 0.3346 0.3412 0.4464 0.52
3886.890 0.4223 0.3825 0.3809 0.4802 0.5189 0.3396 0.3566 0.4544 0.3849 0.398
3906.180 0.4691 0.3055 0.3514 0.3389 0.22289 0.24941 0.3293 0.3665 0.3409 0.3419
3925.470 0.3815 0.556 0.567 0.4979 0.4779 0.4423 0.4817 0.4945 0.4365 0.4677
3944.760 0.4426 0.4673 0.5521 0.5392 0.5632 0.4623 0.3733 0.5336 0.6348 0.5689
3964.049 0.5307 0.4611 0.5052 0.5003 0.433 0.4531 0.4332 0.4219 0.5012 0.4514
3983.339 0.3504 0.5245 0.7414 0.6837 0.5272 0.4156 0.4022 0.4307 0.3884 0.5142
##END=
