##TITLE=2-Chloro-6-fluorobenzyl alcohol
##JCAMP-DX=4.24
##DATA TYPE=INFRARED SPECTRUM
##ORIGIN=EPA-IR VAPOR PHASE LIBRARY
##OWNER=SRD/NIST
Collection (C) 2018 copyright by the U.S. Secretary of Commerce
on behalf of the United States of America. All rights reserved.
##CAS REGISTRY NO=56456-50-9
##MOLFORM=C 7 H 6 Cl F O
##$NIST SOURCE=MSDC-IR
##STATE=gas
##XUNITS=1/CM
##YUNITS=ABSORBANCE
##XFACTOR=1.
##YFACTOR=0.001
##DELTAX=1.92934
##FIRSTX=549.9
##LASTX=3999.5
##FIRSTY=9.77
##MAXX=3999.53
##MINX=549.863
##MAXY=0.11976
##MINY=0
##NPOINTS=1789
##XYDATA=(X++(Y..Y))
549.863 9.77 9.75 9.53 9.04 8.44 7.91 7.46 6.84 6.09 5.52
569.156 5.12 4.86 4.59 4.3 4.12 4.04 3.9 3.73 3.5 3.36
588.450 3.27 3.26 3.22 3.1 3.16 3.16 3.18 3.03 2.94 3.08
607.743 3.13 3.1 3.1 3.15 3.14 3.32 3.53 3.7 4.05 4.41
627.037 4.79 5.11 5.45 5.89 6.35 6.86 6.98 6.65 6.31 6.03
646.330 5.63 5.17 4.72 4.3 3.92 3.66 3.46 3.19 2.97 2.81
665.624 2.7392 2.7374 2.7377 2.6634 2.6398 2.7336 2.81 2.84 2.89 2.89
684.917 2.88 2.92 2.98 3.15 3.35 3.57 3.86 4.28 4.86 5.65
704.210 6.66 7.9 9.37 10.99 12.88 14.97 17.07 19.25 21.42 23.56
723.504 25.24 25.71 24.6 22.56 20.64 18.91 17.04 15.03 13.05 11.28
742.797 9.74 8.49 7.62 7 6.76 6.92 7.51 8.72 10.78 13.93
762.091 18.21 23.31 28.75 33.64 37.47 41.11 48 62.49 80.25 76.95
781.384 54.21 41.89 39.95 37.99 34.16 28.63 22.91 17.98 14.55 12.61
800.678 11.8 11.71 12.17 12.82 13.57 14.4 15.09 15.46 15.61 15.57
819.971 15.41 15.13 14.61 13.84 13.08 12.4 11.79 11.33 11.13 11.21
839.264 11.6 12.64 14.45 17.07 20.74 25.43 31.02 37.24 43.42 49.09
858.558 54.2 58.33 61.01 62.18 62.15 60.6 57.13 52.35 46.95 41.57
877.851 36.57 32.1 28.28 24.92 21.96 19.55 17.57 15.89 14.47 13.22
897.145 12.17 11.31 10.68 10.19 9.77 9.5 9.38 9.32 9.3 9.35
916.438 9.35 9.39 9.55 9.69 9.72 9.85 10.07 10.32 10.64 11.05
935.732 11.51 12.1 12.92 13.93 15.13 16.58 18.39 20.55 23.13 26.09
955.025 29.39 33.09 37.15 41.44 45.38 48.67 51.48 53.78 55.25 55.59
974.318 54.71 52.88 50.41 47.43 44.02 40.51 37.27 34.56 32.55 31.37
993.612 31 31.37 32.4 34.18 36.81 40.17 44.3 49.1 54.56 60.57
1012.905 66.84 73.15 79.09 84.25 88.25 90.68 91.3 89.79 85.95 80.28
1032.199 73.48 66.15 58.55 50.85 43.46 36.74 30.91 26.11 22.23 19.15
1051.492 16.79 15 13.63 12.6 11.87 11.49 11.37 11.25 10.78 10.12
1070.786 9.71 9.5 9.31 9.06 8.73 8.45 8.19 7.93 7.76 7.67
1090.079 7.57 7.51 7.53 7.55 7.67 7.72 7.77 7.9 8.04 8.31
1109.372 8.61 8.92 9.3 9.77 10.36 11.16 12.12 13.26 14.66 16.29
1128.666 18.1 19.92 21.71 23.35 24.62 25.59 26.22 26.57 26.95 27.25
1147.959 27.48 27.79 27.98 28.04 28.16 28.37 28.77 29.22 29.66 29.9
1167.253 29.72 29.37 28.94 28.56 28.54 28.9 29.68 30.86 32.2 33.75
1186.546 35.17 36.37 37.41 38.06 38.35 38.18 37.52 36.4 34.85 33.04
1205.840 31.19 29.38 27.61 26.08 24.92 24.13 23.46 22.9 22.7 23.03
1225.133 23.85 25.29 27.58 30.95 35.48 40.98 47.28 53.72 59.68 64.63
1244.426 67.88 69.27 69.03 67.27 63.93 58.9 52.23 44.44 36.51 29.39
1263.720 23.81 19.9 17.35 15.73 14.74 14.16 13.8 13.6 13.51 13.51
1283.013 13.54 13.55 13.55 13.47 13.35 13.15 12.88 12.55 12.22 11.85
1302.307 11.48 11.08 10.67 10.31 9.95 9.65 9.47 9.43 9.46 9.5
1321.600 9.66 9.86 10.09 10.35 10.71 11.13 11.47 11.76 11.98 12.16
1340.894 12.33 12.43 12.42 12.28 12.14 12.07 12.07 12.15 12.34 12.73
1360.187 13.32 14.1 15.11 16.29 17.67 19.18 20.83 22.57 24.3 25.96
1379.480 27.49 28.77 29.8 30.42 30.59 30.38 29.72 28.67 27.29 25.69
1398.774 23.91 22.09 20.26 18.53 17.03 15.64 14.53 13.73 13.13 12.74
1418.067 12.6 12.71 13.09 13.69 14.64 15.93 17.73 20.15 23.29 27.42
1437.361 33.07 40.29 49.38 60.29 72.39 84.85 96.76 107.02 115.02 119.57
1456.654 119.76 116.31 110.24 102.07 91.92 79.8 66.81 54.32 43.64 35.29
1475.948 29.27 24.66 21.22 18.39 15.82 13.57 11.67 10.12 9.01 8.29
1495.241 7.77 7.42 7.24 7.18 7.24 7.31 7.46 7.76 8.06 8.37
1514.534 8.73 9.08 9.39 9.59 9.78 9.99 10.07 10.12 10.17 10.16
1533.828 10.11 10.07 10.11 10.22 10.44 10.73 11.12 11.59 12.16 12.98
1553.121 14.04 15.43 17.29 19.82 23.14 27.09 31.93 37.6 43.87 50.55
1572.415 57 62.76 67.75 71.62 74.15 75.24 74.78 72.89 69.62 65.25
1591.708 60.72 57.1 54.87 53.65 52.82 51.62 49.71 47.07 43.88 40.25
1611.002 36.1 31.43 26.51 21.75 17.57 14.11 11.44 9.48 8.07 7.02
1630.295 6.27 5.75 5.27 4.83 4.57 4.41 4.22 4.04 3.94 3.92
1649.588 3.95 3.94 3.92 3.97 3.95 3.92 3.83 3.7 3.62 3.48
1668.882 3.3 3.17 3.03 2.91 2.87 2.87 2.81 2.7269 2.6928 2.7047
1688.175 2.6918 2.6579 2.6114 2.5189 2.3775 2.2831 2.2025 2.1465 2.0858 2.0453
1707.469 2.0203 1.9488 1.9318 1.8941 1.81494 1.7437 1.77139 1.8668 1.8922 1.9205
1726.762 1.9433 1.9491 1.9969 2.0007 1.9909 2.0715 2.1487 2.1836 2.2186 2.3332
1746.056 2.5306 2.6803 2.79 3 3.26 3.36 3.43 3.47 3.37 3.31
1765.349 3.21 3.03 2.81 2.5741 2.2938 2.0764 1.9282 1.76337 1.654 1.612
1784.642 1.57 1.555 1.53 1.511 1.527 1.515 1.526 1.543 1.544 1.579
1803.936 1.6 1.612 1.659 1.664 1.643 1.67 1.6847 1.7179 1.79359 1.8781
1823.229 2.0327 2.2226 2.4292 2.6673 2.95 3.24 3.48 3.64 3.67 3.62
1842.523 3.56 3.41 3.18 2.92 2.6588 2.339 2.0623 1.85885 1.659 1.543
1861.816 1.513 1.462 1.438 1.447 1.395 1.405 1.435 1.4 1.41 1.465
1881.110 1.508 1.523 1.487 1.46 1.467 1.491 1.555 1.613 1.664 1.76504
1900.403 1.9022 2.1161 2.4223 2.7455 3.1 3.47 3.81 4.13 4.31 4.35
1919.696 4.28 4.15 4 3.8 3.48 3.06 2.6006 2.1852 1.9086 1.7014
1938.990 1.545 1.476 1.408 1.341 1.303 1.283 1.313 1.32 1.286 1.291
1958.283 1.301 1.287 1.274 1.313 1.361 1.333 1.359 1.436 1.485 1.504
1977.577 1.47 1.456 1.495 1.557 1.587 1.595 1.623 1.6786 1.7154 1.7008
1996.870 1.7387 1.7903 1.80521 1.80214 1.83655 1.9032 1.9558 1.9816 1.9748 2.0092
2016.164 2.0553 2.1155 2.1686 2.2126 2.244 2.2213 2.1845 2.2004 2.2284 2.2259
2035.457 2.2124 2.1846 2.1668 2.1391 2.0836 2.051 1.9843 1.8759 1.85158 1.83633
2054.750 1.77544 1.7542 1.7017 1.648 1.66 1.649 1.618 1.563 1.569 1.611
2074.044 1.603 1.596 1.609 1.6749 1.6885 1.6704 1.6968 1.71 1.7341 1.7638
2093.337 1.79098 1.84795 1.9193 1.965 1.9904 2.0056 2.0304 2.0401 2.0229 1.9915
2112.631 1.9711 1.94 1.8706 1.79568 1.7276 1.669 1.619 1.61 1.571 1.498
2131.924 1.45 1.441 1.41 1.329 1.291 1.283 1.266 1.216 1.22 1.236
2151.218 1.214 1.241 1.242 1.211 1.171 1.144 1.142 1.135 1.155 1.157
2170.511 1.14 1.143 1.179 1.191 1.185 1.191 1.181 1.167 1.139 1.154
2189.804 1.168 1.159 1.163 1.199 1.243 1.242 1.248 1.282 1.302 1.332
2209.098 1.354 1.411 1.46 1.44 1.42 1.394 1.389 1.418 1.425 1.426
2228.391 1.441 1.455 1.448 1.411 1.402 1.391 1.345 1.342 1.356 1.333
2247.685 1.314 1.298 1.288 1.262 1.227 1.244 1.274 1.243 1.243 1.271
2266.978 1.283 1.3 1.289 1.287 1.3 1.312 1.336 1.383 1.398 1.417
2286.272 1.475 1.489 1.518 1.559 1.604 1.658 1.647 1.662 1.6822 1.6717
2305.565 1.693 1.7013 1.682 1.6825 1.7094 1.7283 1.7351 1.709 1.667 1.631
2324.858 1.627 1.637 1.59 1.54 1.56 1.547 1.49 1.462 1.472 1.472
2344.152 1.458 1.476 1.443 1.405 1.41 1.394 1.326 1.326 1.305 1.25
2363.445 1.277 1.282 1.254 1.252 1.288 1.317 1.328 1.358 1.357 1.341
2382.739 1.4 1.411 1.387 1.385 1.387 1.442 1.447 1.444 1.491 1.53
2402.032 1.518 1.496 1.507 1.525 1.575 1.618 1.67 1.6794 1.622 1.588
2421.326 1.599 1.632 1.6906 1.7001 1.6824 1.6791 1.643 1.665 1.7213 1.7117
2440.619 1.6801 1.6996 1.7298 1.76718 1.77021 1.7554 1.7684 1.7444 1.6929 1.656
2459.912 1.6769 1.6771 1.641 1.656 1.6969 1.6749 1.664 1.6796 1.662 1.66
2479.206 1.7227 1.79731 1.83293 1.83206 1.82084 1.85388 1.83626 1.81549 1.82325 1.78591
2498.499 1.7428 1.7244 1.7289 1.659 1.577 1.535 1.521 1.534 1.489 1.448
2517.793 1.414 1.425 1.488 1.52 1.498 1.475 1.449 1.429 1.485 1.493
2537.086 1.418 1.415 1.449 1.394 1.36 1.347 1.307 1.318 1.28 1.23
2556.380 1.243 1.233 1.234 1.21 1.2 1.202 1.25 1.25 1.206 1.256
2575.673 1.214 1.203 1.179 1.142 1.189 1.209 1.236 1.257 1.266 1.221
2594.966 1.198 1.19 1.169 1.143 1.136 1.105 1.064 1.086 1.052 1.024
2614.260 1.026 0.997 1.022 1.064 1.035 1.005 1.002 0.98 0.973 1.058
2633.553 1.089 1.053 1.049 1.065 1.113 1.185 1.227 1.2 1.176 1.254
2652.847 1.309 1.293 1.317 1.342 1.41 1.437 1.393 1.412 1.464 1.482
2672.140 1.445 1.426 1.421 1.364 1.363 1.38 1.395 1.363 1.284 1.248
2691.434 1.229 1.261 1.315 1.341 1.312 1.299 1.261 1.216 1.235 1.293
2710.727 1.337 1.28 1.294 1.368 1.339 1.346 1.417 1.437 1.383 1.342
2730.020 1.366 1.348 1.363 1.396 1.346 1.315 1.346 1.285 1.192 1.19
2749.314 1.174 1.197 1.248 1.247 1.183 1.189 1.213 1.14 1.152 1.137
2768.607 1.09 1.097 1.143 1.173 1.126 1.154 1.231 1.211 1.185 1.223
2787.901 1.259 1.304 1.298 1.261 1.259 1.344 1.382 1.338 1.331 1.354
2807.194 1.365 1.368 1.436 1.499 1.493 1.572 1.6713 1.578 1.599 1.663
2826.488 1.547 1.572 1.7156 1.81121 1.9108 1.9866 2.0058 2.0619 2.1611 2.2789
2845.781 2.4141 2.4446 2.471 2.5745 2.7651 2.97 3.09 3.21 3.44 3.74
2865.074 4.01 4.28 4.66 5.05 5.52 6.09 6.67 7.42 8.2 9.05
2884.368 10.08 11.06 12.04 12.95 13.75 14.55 15.04 15.17 15.09 14.78
2903.661 14.23 13.66 12.96 12.07 11.29 10.56 9.87 9.26 8.7 8.26
2922.955 7.92 7.65 7.47 7.31 7.25 7.37 7.47 7.56 7.8 8.03
2942.248 8.26 8.55 8.9 9.26 9.53 9.88 10.1 10.27 10.39 10.34
2961.542 10.38 10.35 10.29 10.26 10.05 9.85 9.63 9.28 8.95 8.78
2980.835 8.74 8.6 8.43 8.33 8.2 8.15 8.26 8.18 8.06 8.02
3000.128 7.93 7.67 7.45 7.23 6.84 6.41 6.02 5.53 4.92 4.5
3019.422 4.1 3.63 3.22 2.81 2.5988 2.4143 2.1051 1.8869 1.8931 1.8713
3038.715 1.632 1.506 1.515 1.638 1.6971 1.81001 1.9944 2.0077 2.0664 2.1727
3058.009 2.3677 2.7006 3 3.27 3.74 4.46 5.12 5.75 6.28 6.74
3077.302 7.3 7.71 8.02 8.33 8.34 8.07 7.55 6.9 6.23 5.38
3096.596 4.68 4.11 3.46 2.7029 1.9958 1.48 1.142 0.972 0.818 0.61
3115.889 0.49 0.57 0.55 0.43 0.38 0.41 0.49 0.42 0.42 0.43
3135.182 0.42 0.43 0.38 0.39 0.59 0.56 0.37 0.42 0.5 0.5
3154.476 0.49 0.47 0.48 0.54 0.54 0.49 0.47 0.41 0.39 0.23
3173.769 0 0.09 0.17 0.1 0.23 0.42 0.31 0.2 0.19 0.18
3193.063 0.2 0.21 0.22 0.26 0.22 0.1 0.24 0.39 0.22 0.01
3212.356 0.02 0.1 0.16 0.2 0.22 0.2 0.14 0.13 0.09 0.1
3231.650 0.1 0.2 0.3 0.26 0.24 0.28 0.37 0.37 0.3 0.4
3250.943 0.48 0.45 0.4 0.27 0.22 0.25 0.24 0.24 0.26 0.31
3270.236 0.41 0.47 0.46 0.4 0.33 0.36 0.37 0.28 0.31 0.39
3289.530 0.45 0.42 0.28 0.42 0.49 0.35 0.42 0.54 0.61 0.59
3308.823 0.58 0.55 0.57 0.59 0.62 0.57 0.48 0.53 0.55 0.62
3328.117 0.65 0.56 0.62 0.67 0.72 0.74 0.65 0.72 0.76 0.822
3347.410 0.819 0.837 0.934 0.929 0.76 0.64 0.805 0.81 0.839 0.968
3366.704 0.972 1.071 1.069 0.985 0.923 0.859 0.843 0.854 0.88 0.929
3385.997 0.933 0.912 0.939 0.848 0.849 1.046 1.152 1.129 0.997 0.983
3405.290 0.979 0.915 1.075 1.164 1.048 0.988 1.12 1.288 1.273 1.263
3424.584 1.296 1.257 1.199 1.176 1.34 1.504 1.318 1.124 1.167 1.248
3443.877 1.303 1.211 1.17 1.281 1.243 1.196 1.304 1.338 1.281 1.292
3463.171 1.352 1.437 1.456 1.33 1.272 1.351 1.35 1.385 1.449 1.426
3482.464 1.505 1.471 1.376 1.312 1.31 1.34 1.295 1.312 1.374 1.366
3501.758 1.282 1.29 1.387 1.429 1.325 1.286 1.451 1.462 1.256 1.156
3521.051 1.182 1.288 1.282 1.298 1.32 1.286 1.38 1.255 1.183 1.436
3540.344 1.473 1.323 1.317 1.487 1.612 1.561 1.507 1.502 1.531 1.614
3559.638 1.7017 1.7315 1.77139 1.82689 1.959 2.1174 2.2231 2.261 2.2542 2.1846
3578.931 2.2868 2.5003 2.5549 2.5897 2.5681 2.5871 2.7218 2.78 2.79 2.87
3598.225 2.86 2.88 3.03 3.18 3.34 3.47 3.55 3.63 3.9 4.24
3617.518 4.45 4.69 5.02 5.51 6.06 6.77 7.84 9.13 10.44 11.86
3636.812 13.16 14.46 15.88 17.14 18.28 19.22 19.85 20.25 20.46 20.33
3656.105 19.78 18.85 17.63 16.32 15.06 13.67 12.3 10.98 9.51 8.2
3675.398 6.99 6.08 5.58 5 4.53 4.34 4.2 4.06 4.05 4.11
3694.692 4.22 4.38 4.61 4.8 4.79 4.74 4.77 4.84 4.8 4.51
3713.985 4.28 4.06 3.69 3.31 3.04 2.82 2.609 2.467 2.2638 2.0475
3733.279 1.995 1.9156 1.8634 1.9067 1.79852 1.65 1.598 1.63 1.576 1.563
3752.572 1.508 1.564 1.6825 1.627 1.625 1.623 1.666 1.6836 1.6784 1.647
3771.866 1.614 1.7003 1.6848 1.615 1.651 1.661 1.652 1.584 1.641 1.7406
3791.159 1.665 1.641 1.642 1.7136 1.7277 1.635 1.62 1.652 1.666 1.609
3810.452 1.638 1.655 1.557 1.576 1.7213 1.7262 1.6904 1.82197 1.9246 1.84818
3829.746 1.7477 1.7333 1.81372 1.7134 1.635 1.77475 1.79011 1.678 1.637 1.76594
3849.039 1.84279 1.7527 1.7146 1.80959 1.80039 1.79054 1.83019 1.9119 1.8935 1.7572
3868.333 1.67 1.7138 1.82194 1.79421 1.81475 1.8724 1.9048 2.0274 2.0356 1.86189
3887.626 1.878 1.9288 1.8996 1.9771 2.0078 2.0012 1.9542 1.84141 1.80897 1.81653
3906.920 1.8957 1.9011 1.8717 1.8857 1.8749 1.82282 1.7365 1.81524 1.77951 1.7229
3926.213 1.7236 1.7021 1.76179 1.78002 1.7186 1.614 1.655 1.82996 1.80733 1.77819
3945.506 1.78335 1.77182 1.738 1.655 1.7089 1.7227 1.668 1.7213 1.7209 1.584
3964.800 1.548 1.646 1.671 1.568 1.476 1.464 1.463 1.428 1.455 1.393
3984.093 1.378 1.443 1.402 1.366 1.408 1.493 1.472 1.368 1.382
##END=
