##TITLE=2,4-Difluorobenzyl alcohol
##JCAMP-DX=4.24
##DATA TYPE=INFRARED SPECTRUM
##ORIGIN=EPA-IR VAPOR PHASE LIBRARY
##OWNER=SRD/NIST
Collection (C) 2018 copyright by the U.S. Secretary of Commerce
on behalf of the United States of America. All rights reserved.
##CAS REGISTRY NO=56456-47-4
##MOLFORM=C 7 H 6 F 2 O
##$NIST SOURCE=MSDC-IR
##STATE=gas
##XUNITS=1/CM
##YUNITS=ABSORBANCE
##XFACTOR=1.
##YFACTOR=0.001
##DELTAX=1.92898
##FIRSTX=549.8
##LASTX=4000.7
##FIRSTY=5.026
##MAXX=4000.7
##MINX=549.759
##MAXY=0.095776
##MINY=0
##NPOINTS=1790
##XYDATA=(X++(Y..Y))
549.759 5.026 4.956 5.666 5.606 4.986 4.406 3.606 3.876 4.236 3.636
569.049 3.346 3.056 3.266 3.486 3.756 4.366 3.946 3.506 3.756 4.046
588.339 4.126 5.086 5.776 5.466 5.786 6.566 6.976 7.186 7.136 7.406
607.628 8.416 9.926 10.456 9.646 8.656 7.476 6.696 6.186 5.376 5.206
626.918 5.116 4.636 4.366 3.636 3.256 3.096 2.056 1.736 1.5794 1.5896
646.208 2.316 2.196 1.786 1.5086 1.2341 1.1716 1.118 0.8608 1.2443 1.876
665.498 1.746 1.626 1.533 1.529 1.706 1.746 2.296 2.726 2.756 2.886
684.787 2.966 2.846 2.586 2.746 2.846 2.926 3.246 3.656 3.736 3.536
704.077 4.036 4.406 4.116 4.516 4.896 4.606 4.656 5.286 5.506 5.496
723.367 5.736 5.636 5.576 5.916 5.756 5.466 5.816 5.156 4.636 4.636
742.657 4.266 4.186 3.816 3.206 2.816 3.436 3.746 3.656 3.646 3.696
761.947 4.576 5.406 5.526 5.706 6.126 6.106 6.356 6.706 7.126 7.186
781.236 7.716 8.276 7.806 7.756 8.416 9.006 9.096 9.306 10.206 10.736
800.526 11.036 11.606 12.176 12.586 12.656 12.956 13.746 14.506 14.836 13.736
819.816 13.596 14.756 14.796 12.436 10.126 10.686 11.796 13.976 16.116 18.546
839.106 21.706 24.576 27.526 29.956 32.666 38.026 50.316 59.406 47.626 34.836
858.395 31.936 29.436 27.316 24.786 20.746 16.546 13.346 10.146 7.756 6.436
877.685 5.516 4.316 3.706 3.636 3.236 3.546 4.126 3.546 3.196 3.286
896.975 3.356 3.496 3.776 4.296 4.266 4.116 4.066 3.746 4.086 4.336
916.265 4.346 4.826 5.696 6.286 6.386 7.266 8.666 9.546 10.416 11.746
935.555 13.826 16.086 17.746 19.546 21.476 23.336 25.406 27.706 30.206 33.236
954.844 35.866 37.916 39.696 41.416 43.066 44.346 45.086 44.806 44.676 43.756
974.134 41.676 39.666 37.536 35.156 32.036 29.376 27.046 24.686 23.586 23.366
993.424 22.666 21.726 22.116 23.616 25.066 26.156 27.856 30.166 31.826 33.966
1012.714 36.906 39.956 43.016 45.426 46.726 47.286 48.616 49.486 49.016 48.586
1032.003 47.156 45.346 43.626 40.686 37.646 35.886 33.786 30.706 29.196 27.686
1051.293 25.286 23.236 22.086 19.656 17.146 16.456 14.816 13.926 14.126 13.966
1070.583 13.296 12.036 13.056 14.456 15.016 17.466 21.136 27.256 33.936 41.716
1089.873 49.656 55.656 59.356 59.976 59.506 57.586 55.716 53.716 47.916 39.646
1109.163 32.036 26.336 21.126 16.836 14.826 14.756 16.086 19.216 24.016 30.206
1128.452 37.576 46.516 55.286 60.536 62.916 64.076 64.136 62.906 61.336 57.756
1147.742 49.516 38.866 27.936 20.246 16.966 14.536 12.586 12.046 11.966 11.686
1167.032 11.406 11.756 12.606 12.776 13.276 13.336 14.106 14.616 15.256 16.756
1186.322 16.686 15.666 15.586 15.446 15.456 16.086 15.706 15.136 14.316 13.866
1205.611 12.176 10.996 11.486 11.156 9.636 9.356 10.456 11.086 10.896 10.096
1224.901 10.476 10.716 10.676 11.366 10.946 11.336 11.806 11.996 12.946 12.986
1244.191 13.036 14.556 16.676 17.556 18.836 21.606 24.316 26.616 29.716 33.786
1263.481 38.086 43.386 48.436 53.036 58.346 63.826 66.906 68.016 68.936 68.336
1282.771 66.066 62.596 57.606 51.766 45.516 39.286 33.446 28.376 24.396 21.296
1302.060 18.856 16.716 15.136 13.896 12.776 11.976 11.316 10.626 9.956 9.586
1321.350 9.266 8.966 8.806 8.706 8.576 8.586 8.656 8.586 8.556 8.586
1340.640 8.546 8.436 8.606 8.836 8.876 9.016 9.366 9.846 10.346 10.706
1359.930 11.096 11.856 12.676 13.356 14.046 14.966 16.156 17.076 17.906 18.686
1379.219 19.276 19.746 20.056 20.156 19.806 19.286 19.126 18.876 18.466 18.056
1398.509 17.596 17.576 17.736 17.916 18.346 18.956 19.826 20.866 22.156 23.876
1417.799 25.566 27.316 28.996 30.186 31.016 31.376 31.096 30.546 29.856 28.746
1437.089 27.176 25.236 22.956 20.686 18.766 17.226 16.166 16.016 16.346 16.796
1456.378 17.446 18.416 19.426 20.086 20.566 20.936 20.756 20.056 19.576 18.496
1475.668 17.296 16.926 16.736 17.216 18.846 21.456 25.076 30.456 38.036 47.126
1494.958 57.456 68.856 79.416 87.716 93.326 95.776 95.376 92.966 88.676 81.776
1514.248 72.196 60.426 47.736 36.546 27.356 21.046 16.806 14.096 12.316 11.056
1533.538 10.036 9.336 9.116 8.886 8.716 8.916 9.136 9.236 9.336 9.166
1552.827 8.846 8.856 8.946 8.396 8.156 8.736 9.276 9.276 9.476 10.586
1572.117 11.736 12.856 14.326 16.406 19.026 21.636 24.926 29.036 33.046 37.316
1591.407 41.846 46.446 51.426 56.436 61.216 66.416 71.316 75.926 80.186 83.406
1610.697 85.596 86.046 84.726 82.076 78.106 73.156 67.956 62.106 56.096 50.476
1629.986 45.296 40.726 36.336 32.466 29.346 26.546 24.116 22.076 20.006 18.156
1649.276 16.536 14.976 13.176 11.676 10.466 9.486 8.626 7.696 7.056 6.496
1668.566 5.676 5.106 4.786 4.266 3.996 4.026 3.936 3.566 3.256 3.206
1687.856 3.106 3.086 3.216 3.466 3.646 3.756 3.866 3.746 3.616 3.426
1707.146 3.306 3.136 3.036 2.696 2.286 2.326 2.346 1.866 1.5712 1.5961
1726.435 1.5761 1.6203 1.6096 1.5825 1.505 1.5992 1.646 1.626 1.826 1.946
1745.725 2.046 1.886 1.5645 1.666 1.736 1.6243 1.626 1.756 1.726 1.656
1765.015 1.686 1.5617 1.3327 1.1935 1.1076 1.2094 1.2061 1.2724 1.3647 1.2371
1784.305 1.3157 1.261 1.2611 1.6072 1.4972 1.4416 1.4466 1.2665 1.3458 1.3625
1803.594 1.2783 1.2513 1.275 1.4879 1.6147 1.646 1.686 1.48 1.4513 1.5515
1822.884 1.656 1.836 1.946 1.846 1.626 1.5023 1.4599 1.4487 1.3784 1.4445
1842.174 1.597 1.626 1.686 1.806 1.926 1.926 2.026 2.096 2.336 2.496
1861.464 2.376 2.556 2.716 2.706 2.896 2.896 2.796 3.106 3.006 2.786
1880.754 2.946 2.866 2.626 2.386 2.226 2.026 1.826 1.6209 1.4563 1.485
1900.043 1.342 1.3182 1.2966 1.3757 1.398 1.3247 1.4085 1.4809 1.4046 1.2071
1919.333 1.1004 1.2019 1.4171 1.3937 1.2965 1.1275 1.0323 1.2256 1.2734 1.1803
1938.623 1.1709 1.3437 1.4738 1.3639 1.3261 1.3626 1.2975 1.4652 1.4442 1.0695
1957.913 1.0743 1.2754 1.5264 1.499 1.3407 1.4297 1.282 1.1754 1.2981 1.4122
1977.202 1.5914 1.716 1.756 1.6081 1.4777 1.5458 1.6084 1.646 1.756 1.786
1996.492 1.716 1.6142 1.5943 1.666 1.666 1.696 1.746 1.6247 1.686 1.936
2015.782 2.056 1.966 1.706 1.826 1.816 1.696 1.706 1.756 1.896 1.836
2035.072 1.916 2.036 1.826 1.866 2.176 2.166 2.056 1.926 1.746 1.5826
2054.362 1.646 1.746 1.746 1.906 1.876 1.836 1.796 1.696 1.666 1.5796
2073.651 1.5451 1.5657 1.5948 1.4387 1.3319 1.3962 1.3458 1.2886 1.1458 1.1991
2092.941 1.3765 1.4646 1.4255 1.3069 1.3582 1.3438 1.2987 1.2863 1.2623 1.1496
2112.231 1.148 1.2139 1.2607 1.2731 1.0102 0.9179 1.1322 1.3175 1.2973 1.2037
2131.521 1.2284 1.2599 1.26 1.336 1.4182 1.2696 1.3084 1.3355 1.1642 1.0739
2150.810 1.1882 1.2762 1.1302 1.1048 1.1536 1.1008 1.1258 1.1324 1.0904 1.0447
2170.100 1.0666 1.1501 1.2699 1.1598 1.1063 1.3356 1.2664 1.3713 1.4037 1.3012
2189.390 1.3179 1.2072 1.2231 1.2682 1.2973 1.5016 1.636 1.6215 1.5656 1.5156
2208.680 1.4431 1.3702 1.5025 1.6032 1.796 1.896 1.826 1.706 1.5367 1.746
2227.970 1.826 1.706 1.756 1.876 1.936 1.846 1.956 2.166 2.126 2.016
2247.259 2.186 2.106 1.736 1.786 1.716 1.4093 1.4332 1.4949 1.656 1.776
2266.549 1.676 1.696 1.686 1.766 1.6125 1.636 1.5535 1.4101 1.3812 1.4229
2285.839 1.4458 1.4404 1.5967 1.4464 1.3097 1.4189 1.676 1.5315 1.1849 1.397
2305.129 1.756 1.636 1.756 1.886 1.816 1.976 1.876 1.896 1.946 1.696
2324.418 1.736 1.806 1.776 1.866 2.086 1.936 1.6194 1.816 1.896 1.946
2343.708 2.046 2.206 2.436 2.266 2.166 2.126 1.926 1.976 2.086 2.106
2362.998 2.096 2.126 2.106 1.966 2.066 1.966 1.896 2.066 2.156 2.306
2382.288 2.186 2.176 2.216 2.116 2.106 2.016 2.116 2.356 2.566 2.616
2401.578 2.526 2.396 2.476 2.546 2.416 2.326 2.376 2.426 2.216 2.276
2420.867 2.556 2.256 1.996 2.126 1.976 1.876 1.756 1.626 1.856 1.716
2440.157 1.4047 1.4329 1.4464 1.4096 1.4098 1.3338 1.4085 1.4602 1.4828 1.2296
2459.447 1.2808 1.4139 1.2705 1.816 1.976 1.716 1.776 1.696 1.636 1.636
2478.737 1.636 1.686 1.656 1.696 1.5701 1.4658 1.3952 1.5346 1.916 1.5763
2498.026 1.4743 1.646 1.3692 1.3912 1.5507 1.563 1.5096 1.706 1.786 1.766
2517.316 2.006 2.066 2.006 1.856 1.726 1.986 2.046 2.046 2.216 2.196
2536.606 1.786 1.5398 1.996 1.986 1.706 1.3737 0.9895 1.2519 1.646 1.826
2555.896 2.016 2.076 2.136 2.296 2.356 2.166 1.906 1.936 2.026 2.026
2575.186 1.966 1.806 1.666 1.666 1.846 1.5439 1.2716 1.5381 1.611 1.706
2594.475 1.776 1.896 1.936 1.936 1.6077 1.3625 1.5802 1.6056 1.786 1.5951
2613.765 1.3815 1.4099 1.5232 1.736 1.726 1.736 1.716 1.686 1.696 1.736
2633.055 1.946 1.6069 1.315 1.4458 1.4718 1.736 2.006 1.966 1.786 1.836
2652.345 1.776 1.806 1.736 1.5747 1.4218 1.1903 1.3036 1.1216 0.9024 1.3671
2671.634 1.676 1.352 1.646 1.876 1.4966 1.5395 1.726 1.726 1.5748 1.5747
2690.924 1.726 2.116 2.056 1.766 1.926 1.986 1.826 1.756 1.686 1.756
2710.214 1.866 2.096 2.056 1.6244 1.5818 1.906 2.156 1.986 1.976 2.106
2729.504 2.086 2.216 2.196 2.066 2.376 2.156 1.906 2.206 2.666 2.886
2748.794 2.476 2.016 2.126 2.376 2.566 2.796 2.286 1.716 2.186 2.906
2768.083 2.716 2.536 2.766 2.426 2.096 2.086 2.456 2.546 2.576 2.566
2787.373 2.036 1.886 2.136 2.326 2.606 2.756 2.756 2.716 2.476 2.566
2806.663 2.976 3.076 2.866 2.666 2.636 2.836 2.806 2.716 3.026 3.216
2825.953 2.686 2.496 2.646 3.196 3.646 3.726 3.926 4.256 4.366 4.186
2845.242 4.196 4.356 4.806 4.956 5.206 5.216 5.476 5.926 5.886 6.406
2864.532 6.936 7.326 7.636 7.886 8.686 9.296 9.636 10.426 11.386 12.156
2883.822 12.636 13.176 13.576 13.946 14.496 14.636 14.756 15.066 14.566 14.096
2903.112 13.806 13.146 12.736 12.386 11.926 11.576 11.316 10.646 10.376 10.336
2922.401 10.216 10.586 10.496 9.756 9.766 10.396 10.496 10.696 11.056 11.066
2941.691 10.966 11.186 11.626 12.046 12.156 12.246 12.056 11.846 11.876 11.566
2960.981 11.006 11.106 11.506 11.346 10.746 9.746 9.426 9.296 8.766 8.226
2980.271 7.466 6.966 6.906 6.456 5.826 5.276 4.896 4.486 4.476 4.596
2999.561 4.276 3.686 3.286 3.086 2.796 2.856 3.136 3.216 2.946 2.666
3018.850 2.616 2.466 2.376 2.606 2.446 2.476 2.646 2.666 2.826 2.676
3038.140 2.666 2.826 3.036 3.366 3.456 3.686 3.676 3.686 3.846 3.486
3057.430 3.516 3.426 3.166 2.976 2.886 3.066 3.196 3.376 3.066 2.596
3076.720 3.056 3.616 3.636 3.466 3.666 3.696 3.336 3.856 3.936 3.486
3096.009 3.146 2.956 2.936 2.716 2.436 1.976 1.796 1.926 2.026 1.856
3115.299 1.0921 1.0451 1.856 1.786 1.766 2.076 1.676 1.4398 1.4385 1.0502
3134.589 0.9906 1.107 1.2913 1.4344 1.2475 1.5984 1.5449 1.0298 1.3001 1.3085
3153.879 1.2465 1.4965 1.3091 1.1404 1.2642 1.4966 1.796 1.3373 0.9067 1.3946
3173.169 1.463 1.3437 1.696 1.696 1.45 1.6116 1.3424 1.1068 1.2103 1.0208
3192.458 1.1915 1.5039 1.2829 1.0665 1.2736 1.4174 1.5019 1.369 1.2488 1.4206
3211.748 1.3256 1.1556 1.5243 1.746 1.6008 1.786 2.036 1.846 1.3484 1.0854
3231.038 1.1744 1.4096 1.4865 1.488 1.1903 1.2127 1.1985 0.8685 0.8738 1.0437
3250.328 0.9817 0.7729 0.9602 1.1031 1.2408 1.0173 0.8888 0.974 0.9862 1.1969
3269.617 0.7964 0.8037 1.4529 1.3147 1.0464 0.95 0.7807 0.9109 1.0457 0.9439
3288.907 0.932 0.7406 0.62879 1.0476 1.3855 1.3893 1.3911 1.1698 0.8771 0.7285
3308.197 0.5474 0.759 0.9575 0.9295 0.71686 1.1168 1.198 0.7303 1.106 1.585
3327.487 1.3407 1.2297 1.2311 0.8907 0.8311 1.189 1.3679 0.9116 1.0856 1.3427
3346.777 1.0137 1.0244 1.4025 1.4976 1.0059 0.9147 1.636 1.926 1.636 1.5793
3366.066 1.2607 1.2072 1.656 1.786 1.5069 1.048 1.3545 1.756 1.1566 0.8139
3385.356 0.9832 0.9541 1.0585 1.3971 1.1724 0.67549 0.8592 1.0556 0.7752 0.5696
3404.646 0.9429 1.4296 1.304 0.8268 0.65344 0.8022 1.1817 1.3739 1.3509 1.1604
3423.936 0.9094 1.0546 1.124 1.0741 1.1388 0.8607 0.5929 0.8521 0.9326 0.67208
3443.225 0.6911 0.7528 1.0683 1.706 1.856 1.1963 1.0674 1.403 0.65694 0.335
3462.515 0.8982 1.2324 0.895 0.359 0.482 0.9612 0.826 0.447 0.9699 1.017
3481.805 1.0865 1.1353 1.2649 1.0337 0.9319 1.756 1.986 2.006 1.4907 1.3343
3501.095 1.2754 0.6881 1.3831 2.106 1.5951 1.726 1.3789 0.71361 0.8663 1.0386
3520.385 1.2816 1.0702 1.117 1.0436 1.1144 1.736 1.636 1.6117 1.441 1.2736
3539.674 1.4738 1.0882 0.7376 0.9574 1.1008 0.5461 0 0.6158 1.3422 1.5331
3558.964 1.676 1.482 1.1715 1.0436 0.874 1.0295 1.4406 1.5164 1.383 1.562
3578.254 1.856 1.966 1.816 1.746 1.876 1.816 1.946 2.106 2.056 2.096
3597.544 2.006 2.206 2.976 2.916 2.096 1.756 2.116 2.826 2.986 2.906
3616.833 2.906 3.186 3.586 3.566 3.646 3.696 3.296 3.756 4.786 5.386
3636.123 5.816 6.366 6.796 7.546 8.286 8.966 9.896 10.326 11.756 13.146
3655.413 13.556 14.176 13.986 13.426 13.406 13.016 12.606 11.956 10.656 9.826
3674.703 9.586 8.996 7.896 7.856 7.976 6.956 6.376 6.106 5.446 4.666
3693.993 3.906 3.756 3.816 3.676 3.696 3.586 3.126 2.966 3.316 3.406
3713.282 3.176 2.706 2.816 2.686 2.476 2.286 1.4246 1.816 2.286 1.956
3732.572 1.776 1.636 1.3394 1.2364 1.876 1.846 1.2526 1.6175 2.476 2.366
3751.862 1.5866 1.2509 1.2161 1.169 0.963 0.9801 1.1751 1.0346 0.7899 0.9372
3771.152 1.4322 1.816 1.946 1.5658 1.1458 1.208 1.5422 1.656 1.5747 1.876
3790.441 1.926 2.286 1.896 0.9407 1.264 1.6062 1.4642 1.2457 0.904 0.9961
3809.731 1.0371 1.2298 1.766 2.006 1.666 1.5384 1.4167 1.3508 1.3164 1.3491
3829.021 1.756 1.876 1.766 1.796 1.946 1.766 1.676 1.2973 1.0523 1.4213
3848.311 1.646 1.996 1.976 0.9887 0.72577 1.0221 1.2395 1.3631 1.1459 1.5793
3867.601 1.936 1.207 0.7768 0.9208 1.4296 1.866 2.016 1.5897 1.1408 1.5159
3886.890 1.816 1.4556 0.9342 0.7639 1.0068 1.2132 1.2346 1.846 2.066 1.796
3906.180 1.4081 1.5744 1.976 1.3137 1.0161 1.1249 1.1177 1.5943 1.976 1.6107
3925.470 0.8135 0.231 0.117 0.498 1.1449 1.1122 0.5713 0.499 0.124 0.306
3944.760 1.0637 0.981 1.0054 1.5302 1.666 1.1477 0.9104 1.0676 1.5101 1.966
3964.049 1.4247 1.3456 1.696 1.706 2.196 1.776 0.9679 1.3092 1.816 1.3172
3983.339 0.8458 0.5672 0.379 0.7302 1.2817 1.636 1.2373 1.2025 1.706 1.806
##END=
