##TITLE=2,3,4-Trimethyl-2-pentene
##JCAMP-DX=4.24
##DATA TYPE=INFRARED SPECTRUM
##ORIGIN=NIST Mass Spectrometry Data Center
##OWNER=NIST Standard Reference Data Program
Collection (C) 2018 copyright by the U.S. Secretary of Commerce
on behalf of the United States of America. All rights reserved.
##CAS REGISTRY NO=565-77-5
##MOLFORM=C 8 H 16
##$NIST SOURCE=MSDC-IR
##SPECTROMETER/DATA SYSTEM=HP-GC/MS/IRD
##STATE=gas
##XUNITS=1/CM
##YUNITS=ABSORBANCE
##XFACTOR=1.0
##YFACTOR=0.000002600
##DELTAX=4.0
##FIRSTX=550.0
##LASTX=3846.0
##FIRSTY=0.000120
##MAXX=3846
##MINX=550
##MAXY=0.026
##MINY=0
##NPOINTS=825
##XYDATA=(X++(Y..Y))
550.0 46 60 73 63 80 134 122 126 162 179
590.0 164 124 137 103 58 58 47 21 36 79
630.0 88 44 10 23 35 3 29 97 101 72
670.0 77 85 82 68 70 55 26 41 46 26
710.0 20 42 63 73 43 29 46 27 22 37
750.0 37 22 26 48 54 42 34 32 32 44
790.0 61 56 38 29 38 61 50 44 72 34
830.0 7 50 60 63 73 53 54 66 82 92
870.0 68 66 76 78 78 69 71 77 85 76
910.0 79 89 75 76 88 84 90 100 100 103
950.0 111 106 108 116 126 123 116 114 115 109
990.0 95 103 116 116 110 123 136 139 130 141
1030.0 177 202 234 307 358 387 432 463 473 458
1070.0 478 491 480 502 564 643 729 839 990 1105
1110.0 1151 1154 1113 992 810 641 535 490 501 551
1150.0 601 635 606 564 513 411 324 263 235 205
1190.0 178 157 123 95 76 74 83 96 102 108
1230.0 107 107 124 120 115 125 136 159 170 172
1270.0 182 184 182 184 185 176 199 232 255 290
1310.0 324 346 362 371 361 350 352 376 414 484
1350.0 604 740 893 1116 1355 1427 1458 1494 1448 1325
1390.0 1153 990 847 737 667 627 601 593 597 616
1430.0 647 681 738 808 897 1020 1131 1216 1258 1259
1470.0 1212 1123 1012 878 755 660 578 527 483 453
1510.0 430 415 409 386 376 359 338 328 315 297
1550.0 277 269 263 252 229 215 213 199 189 176
1590.0 169 162 148 135 132 142 141 135 130 121
1630.0 115 121 114 101 94 103 110 95 83 78
1670.0 75 62 57 65 66 53 41 40 42 37
1710.0 37 30 28 22 17 25 24 19 25 28
1750.0 25 21 28 30 32 38 32 31 25 23
1790.0 26 22 30 37 25 18 15 15 15 11
1830.0 13 18 18 23 34 32 20 13 19 16
1870.0 4 11 23 28 27 17 15 18 19 24
1910.0 27 26 19 14 15 19 18 8 1 5
1950.0 13 16 16 13 11 11 12 8 3 5
1990.0 14 17 16 8 4 5 2 7 11 13
2030.0 16 28 33 27 14 11 15 18 17 17
2070.0 14 5 3 4 2 3 9 6 3 6
2110.0 13 14 11 8 10 10 10 12 12 4
2150.0 0 10 10 6 13 23 29 22 6 4
2190.0 11 12 15 21 16 2 6 11 14 18
2230.0 9 18 20 15 9 12 28 34 33 26
2270.0 26 30 35 36 29 23 18 22 28 28
2310.0 25 26 33 36 42 43 46 46 44 36
2350.0 45 64 65 64 61 60 59 53 56 65
2390.0 61 61 63 60 60 59 64 63 54 53
2430.0 51 45 51 54 55 63 68 70 61 58
2470.0 67 68 60 60 56 57 57 47 51 64
2510.0 67 65 72 70 64 64 60 65 73 68
2550.0 70 69 63 74 72 78 93 94 86 94
2590.0 101 98 94 102 110 105 104 106 100 105
2630.0 107 110 121 118 121 120 117 126 132 127
2670.0 126 133 139 141 134 135 147 158 178 198
2710.0 207 234 276 311 351 380 385 392 390 389
2750.0 382 370 366 366 370 366 362 377 388 394
2790.0 419 432 456 495 532 574 625 692 750 830
2830.0 941 1067 1212 1396 1644 1988 2446 3004 3647 4332
2870.0 4956 5453 5760 5831 5731 5579 5449 5396 5446 5626
2910.0 5954 6372 6793 7169 7451 7587 7545 7350 7098 6968
2950.0 7189 7831 8680 9500 10000 9903 9226 8040 6616 5400
2990.0 4539 3995 3677 3474 3309 3151 2977 2759 2542 2344
3030.0 2128 1921 1736 1569 1418 1273 1157 1039 936 861
3070.0 784 722 658 594 546 515 495 458 415 386
3110.0 373 360 340 309 288 286 293 275 249 246
3150.0 247 240 234 219 209 210 203 189 175 163
3190.0 168 170 147 131 145 135 106 107 126 130
3230.0 116 109 97 87 88 91 93 84 82 85
3270.0 82 84 82 83 79 72 64 68 76 66
3310.0 65 55 59 62 58 60 52 59 66 59
3350.0 64 63 57 49 40 33 35 29 38 51
3390.0 43 35 34 43 52 53 55 48 60 66
3430.0 51 35 24 20 27 39 46 37 16 35
3470.0 57 43 29 39 38 33 58 81 73 61
3510.0 57 50 41 44 28 2 9 33 25 18
3550.0 33 55 61 38 16 17 23 15 16 17
3590.0 33 53 38 36 44 32 42 67 46 34
3630.0 51 48 39 35 50 58 49 49 33 33
3670.0 37 31 22 18 20 28 50 51 48 52
3710.0 44 43 34 28 38 40 55 56 45 36
3750.0 41 47 33 36 44 36 38 41 59 57
3790.0 38 46 57 62 65 73 74 57 40 43
3830.0 57 65 56 56 56
##END=
