##TITLE=2,4-Dimethyl-3-pentanone
##JCAMP-DX=4.24
##DATA TYPE=INFRARED SPECTRUM
##ORIGIN=NIST Mass Spectrometry Data Center
##OWNER=NIST Standard Reference Data Program
Collection (C) 2018 copyright by the U.S. Secretary of Commerce
on behalf of the United States of America. All rights reserved.
##CAS REGISTRY NO=565-80-0
##MOLFORM=C 7 H 14 O
##$NIST SOURCE=MSDC-IR
##SPECTROMETER/DATA SYSTEM=HP-GC/MS/IRD
##STATE=gas
##XUNITS=1/CM
##YUNITS=ABSORBANCE
##XFACTOR=1.0
##YFACTOR=0.000002200
##DELTAX=4.0
##FIRSTX=550.0
##LASTX=3846.0
##FIRSTY=0.000229
##MAXX=3846
##MINX=550
##MAXY=0.022
##MINY=0
##NPOINTS=825
##XYDATA=(X++(Y..Y))
550.0 104 102 125 138 126 62 43 80 82 102
590.0 134 156 156 148 173 193 166 172 177 150
630.0 102 79 63 55 79 80 89 85 57 59
670.0 87 92 106 116 88 84 94 95 127 157
710.0 149 147 132 138 159 166 176 172 180 167
750.0 159 175 160 146 154 170 174 159 135 130
790.0 127 108 96 111 124 114 94 100 7 36
830.0 150 155 162 179 215 236 256 258 245 239
870.0 232 222 211 210 225 233 233 229 240 239
910.0 236 262 295 315 329 326 336 357 370 396
950.0 417 452 524 632 760 911 1065 1194 1301 1401
990.0 1512 1665 1892 2258 2753 3275 3674 3871 3817 3514
1030.0 2990 2297 1667 1269 1077 993 949 927 946 984
1070.0 1019 1041 1041 1039 1029 995 957 904 857 837
1110.0 823 815 806 767 730 684 621 561 512 469
1150.0 427 391 399 431 467 508 549 585 602 592
1190.0 545 476 406 356 315 260 218 185 135 97
1230.0 91 91 115 128 126 145 161 167 190 209
1270.0 230 253 270 293 321 341 358 368 369 370
1310.0 382 397 429 478 534 608 690 779 872 957
1350.0 1028 1104 1183 1265 1372 1519 1713 1900 2027 2084
1390.0 1948 1704 1426 1044 736 572 505 488 504 545
1430.0 613 704 820 968 1154 1372 1601 1862 2106 2266
1470.0 2312 2227 2015 1755 1446 1117 857 672 534 431
1510.0 355 301 265 232 197 185 175 161 151 137
1550.0 134 130 124 118 116 127 119 112 123 122
1590.0 133 146 143 141 143 154 160 150 158 169
1630.0 168 176 192 203 213 219 237 269 305 352
1670.0 425 508 614 764 953 1214 1568 2051 2713 3508
1710.0 4364 5170 5829 6232 6151 5438 4384 3338 2385 1585
1750.0 1031 709 525 412 327 262 214 180 161 143
1790.0 123 112 103 93 81 79 77 76 74 71
1830.0 63 57 56 59 71 70 62 65 64 54
1870.0 52 60 56 52 54 57 54 60 56 55
1910.0 57 61 55 47 43 38 35 38 36 31
1950.0 35 33 29 29 26 19 17 23 25 20
1990.0 23 28 21 21 22 25 29 25 24 29
2030.0 30 33 29 26 25 24 21 18 16 17
2070.0 17 15 11 8 5 7 10 9 14 25
2110.0 20 15 13 14 11 7 7 12 3 0
2150.0 9 16 8 1 6 15 19 12 9 6
2190.0 10 21 13 12 19 17 24 23 13 20
2230.0 28 29 32 25 24 22 20 25 22 18
2270.0 18 18 14 18 19 19 28 28 22 18
2310.0 17 15 22 29 24 31 44 41 38 33
2350.0 32 35 27 26 31 33 37 37 37 42
2390.0 46 43 46 54 54 50 48 43 47 47
2430.0 35 32 40 47 45 49 45 38 47 54
2470.0 57 52 43 46 48 52 55 57 61 56
2510.0 48 51 52 54 60 60 62 63 72 80
2550.0 69 67 79 87 84 66 64 69 69 75
2590.0 77 71 62 62 66 70 76 77 71 70
2630.0 75 78 90 93 88 90 97 97 85 86
2670.0 89 85 84 88 91 89 90 97 98 104
2710.0 113 121 129 135 141 155 165 170 176 189
2750.0 197 196 198 211 218 213 220 221 221 226
2790.0 233 242 258 277 293 310 336 356 373 388
2830.0 415 449 485 535 603 693 806 955 1193 1514
2870.0 1912 2325 2694 2981 3167 3250 3293 3309 3316 3355
2910.0 3402 3461 3571 3743 4002 4326 4661 4956 5133 5194
2950.0 5249 5470 6058 7069 8268 9327 9983 10000 9351 7947
2990.0 6120 4510 3296 2407 1782 1364 1070 862 700 589
3030.0 505 440 401 358 321 297 273 265 265 264
3070.0 260 253 258 265 254 239 234 235 239 247
3110.0 241 244 250 242 233 236 238 229 219 229
3150.0 237 235 246 246 239 241 231 214 210 208
3190.0 195 184 169 156 153 143 128 113 107 107
3230.0 104 99 88 93 104 98 77 73 78 74
3270.0 69 62 64 75 77 59 60 73 75 74
3310.0 70 65 62 60 55 64 66 59 52 57
3350.0 74 67 57 69 66 81 95 84 81 85
3390.0 88 92 88 89 106 125 138 147 154 162
3430.0 173 169 143 129 126 109 91 73 51 39
3470.0 43 46 43 40 37 35 42 41 18 15
3510.0 23 19 21 29 20 12 30 31 27 37
3550.0 35 34 34 38 45 36 25 22 14 10
3590.0 11 13 20 25 32 35 22 20 29 34
3630.0 33 21 23 35 38 29 19 34 40 40
3670.0 41 39 33 32 32 27 31 34 35 36
3710.0 49 61 55 33 18 32 40 25 7 17
3750.0 41 53 42 27 25 29 30 34 30 27
3790.0 28 34 46 41 42 34 35 53 49 37
3830.0 35 41 43 55 58
##END=
