##TITLE=Phenyl propargyl sulphide
##JCAMP-DX=4.24
##DATA TYPE=INFRARED SPECTRUM
##ORIGIN=EPA-IR VAPOR PHASE LIBRARY
##OWNER=SRD/NIST
Collection (C) 2018 copyright by the U.S. Secretary of Commerce
on behalf of the United States of America. All rights reserved.
##CAS REGISTRY NO=5651-88-7
##MOLFORM=C 9 H 8 S
##$NIST SOURCE=MSDC-IR
##STATE=gas
##XUNITS=1/CM
##YUNITS=ABSORBANCE
##XFACTOR=1.
##YFACTOR=0.001
##DELTAX=1.92898
##FIRSTX=549.8
##LASTX=4000.7
##FIRSTY=2.0596
##MAXX=4000.7
##MINX=549.759
##MAXY=0.02924
##MINY=0
##NPOINTS=1790
##XYDATA=(X++(Y..Y))
549.759 2.0596 2.66 3.01 2.2965 1.8355 2.4358 1.8396 1.63975 2.83 2.0903
569.049 0.823 0.975 2.3599 3.02 2.9 2.66 2.52 3.19 3.25 3.08
588.339 3.04 2.97 2.363 2.5411 3.1 2.6064 2.2669 2.5407 2.95 3.14
607.628 3.39 3.15 3.75 5.6 6.34 7.48 8.74 9.18 9.74 10.91
626.918 13.26 15.7 17.65 20.62 24.58 27.55 29.24 29.04 27.36 24.9
646.208 21.42 18.98 16.89 14.3 12.31 10.06 8.03 7.3 6.87 6.6
665.498 6.81 7.31 7.5 7.03 7 7.36 7.78 8.03 8.98 10.08
684.787 10.36 10.68 11.26 11.64 11.2 11.32 11.5 11.02 10.95 10.57
704.077 9.78 9.72 9.9 9.55 8.8 8.07 8.1 8.64 9.06 9.45
723.367 9.17 8.24 8.39 8.94 9.59 10.58 11.41 12.34 12.99 12.45
742.657 11.9 11.98 10.83 9.13 8.58 8.97 8.49 7.19 6.37 5.42
761.947 4.68 4.09 3.14 2.98 3.02 2.6166 2.79 2.75 2.5597 2.65
781.236 2.66 2.75 2.1658 2.3086 2.3353 1.8154 2.4752 2.6281 2.276 2.3127
800.526 2.81 2.83 2.2828 2.0697 2.4922 2.3547 1.8792 2.0178 2.4002 3.29
819.816 4 2.64 2.0265 2.3338 1.8983 2.2214 2.2019 1.8355 1.8291 2.1042
839.106 1.8766 1.9614 1.928 1.79 2.0422 1.7749 2.0005 2.5121 2.4908 2.474
858.395 2.76 2.78 2.75 2.5292 2.0947 1.70114 2.2332 2.4628 1.7534 1.897
877.685 2.4179 2.203 1.8069 1.8431 1.473 1.6138 2.2069 1.6151 1.7349 2.1754
896.975 2.0271 2.3793 2.0844 1.9657 2.3296 2.419 2.2002 1.7583 1.7772 2.0803
916.265 2.1129 2.1971 2.219 2.67 2.4989 2.0051 2.69 2.73 2.2151 2.4863
935.555 2.4746 2.0755 2.2495 2.79 2.87 2.8 2.91 2.5528 2.4187 3.15
954.844 3.12 2.75 3.01 2.3012 2.2784 2.3969 1.9988 1.69365 1.5444 1.9046
974.134 2.0596 2.3032 2.5782 2.3426 1.7322 1.316 1.403 1.365 1.5393 1.8445
993.424 1.334 1.5304 2.6065 2.98 3.23 3.38 2.73 2.64 2.3489 2.0934
1012.714 2.5684 2.93 3.59 3.74 3.48 4.05 4.53 4.75 5.58 4.87
1032.003 4.07 3.73 2.66 2.5014 2.82 3.18 2.71 3.08 3.13 1.9402
1051.293 2.5043 2.79 1.9207 1.67135 3.4 4.01 2.89 3.49 3.42 3.69
1070.583 4.44 4.19 2.8 2.4364 4.54 5.78 5 4.45 6.03 7.51
1089.873 6.09 4.1 4.37 6.01 5.13 4.04 3.52 3.49 5.07 2.97
1109.163 1.399 3.24 3.61 3.34 4.47 3.59 0 0.692 1.7395 1.759
1128.452 3.08 3.21 3.95 4.65 3.81 2.4839 2.66 3.67 4.42 3.77
1147.742 3.22 3.31 3.95 3.33 1.9615 2.2884 2.187 3.01 4.23 3.19
1167.032 2.69 3.35 3.77 3.87 4.52 4.79 4.45 4.05 3.73 3.59
1186.322 4.21 5.52 5.67 5.76 4.5 2.5448 3 3.34 2.82 3
1205.611 3.86 4.99 4.53 5.15 7.35 6.9 6.72 7.85 7.69 7.77
1224.901 9.26 10.76 11.35 11.77 10.8 9.52 10.45 10.65 8.48 8.78
1244.191 8.74 7.76 8.14 7.95 8.34 8.86 8.81 9.57 10.42 9.87
1263.481 9.45 9.23 8.74 7.85 6.85 6.63 6.55 6.3 5.47 4.33
1282.771 4.57 5.03 4.45 4.27 3.94 3.48 3.59 3.73 3.49 3.39
1302.060 3.41 3.46 3.26 2.8 2.98 3.05 3.04 2.86 2.69 2.8
1321.350 2.7 2.72 2.5726 2.3626 2.5708 2.86 2.6206 2.24 2.2265 2.2088
1340.640 2.1498 2.3257 2.4352 2.3423 2.4286 2.257 2.3436 2.3631 2.0706 2.0843
1359.930 2.0041 2.1477 2.0709 1.8597 2.0385 2.1661 2.2222 2.278 2.3538 2.5209
1379.219 2.5276 2.4251 2.3538 2.3167 2.2313 2.2374 2.331 2.4528 2.76 2.82
1398.509 2.95 3.01 3.02 3.21 3.55 3.74 3.83 4.02 4.1 4.28
1417.799 4.27 4.32 4.66 4.73 4.61 4.8 5.01 5.11 5.06 4.87
1437.089 4.78 4.44 4.27 4.36 4.26 4.19 4.27 4.11 3.82 3.89
1456.378 3.66 3.62 3.92 4.22 4.63 4.89 5.4 6.01 6.69 7.52
1475.668 7.98 8.29 8.36 7.86 7.58 7.11 6.29 5.92 5.37 4.41
1494.958 3.66 3.34 2.94 2.6163 2.2935 2.0809 2.1258 2.1909 2.0204 2.0579
1514.248 2.2187 2.2242 2.2715 2.1774 1.9949 1.8154 2.0406 2.2682 2.1497 1.9275
1533.538 2.0606 2.1606 1.888 1.9948 2.1448 2.0181 2.1325 2.4179 2.6154 2.72
1552.827 2.89 3.04 3.11 2.83 2.4951 2.66 2.94 3.15 3.43 3.53
1572.117 3.56 4.19 4.9 5.08 5.29 5.59 5.71 5.87 5.92 5.49
1591.407 5.22 5.09 4.54 4.18 3.67 2.94 2.4623 2.0701 1.956 2.1974
1610.697 2.1774 2.1766 2.3521 2.3458 2.2799 2.0877 2.2244 2.6235 2.78 2.68
1629.986 2.6052 2.4621 2.1444 2.2577 2.65 2.68 2.5227 2.5498 2.4047 2.1273
1649.276 1.9536 2.0467 2.3156 2.3606 2.4734 2.4081 2.4134 2.6001 2.2399 2.3139
1668.566 2.5652 2.4981 2.116 1.7338 1.9783 2.0127 1.9316 2.0037 2.0324 2.1815
1687.856 2.4411 2.2393 2.0397 2.2424 2.1501 1.9786 2.0834 2.1816 2.1027 1.9666
1707.146 2.0698 2.0216 1.9048 2.2592 2.3986 2.0704 2.2731 2.2594 2.1109 2.2481
1726.435 2.2107 2.3268 2.319 1.9995 2.1818 2.3442 2.3198 2.4921 2.4467 2.3364
1745.725 2.3536 2.3358 2.3255 2.4797 2.2927 2.1075 2.1113 2.234 2.3861 2.4171
1765.015 2.3832 2.3862 2.4144 2.4773 2.5111 2.4694 2.69 2.65 2.4132 2.4409
1784.305 2.5483 2.4944 2.3875 2.4424 2.4824 2.4123 2.3098 2.3697 2.4966 2.4809
1803.594 2.1835 1.9639 2.0476 2.0654 2.0774 2.0081 2.1791 2.2863 2.0134 1.7374
1822.884 1.8274 2.1073 2.1575 2.105 1.9936 2.0026 2.1349 2.1864 2.0705 1.9074
1842.174 1.966 2.283 2.2954 2.0684 2.06 2.1257 2.1537 2.2128 2.2161 2.0128
1861.464 2.2158 2.4497 2.326 2.3223 2.1802 2.2055 2.3736 2.4535 2.3353 2.3654
1880.754 2.3923 2.2107 2.281 2.5027 2.3836 2.0571 2.1394 2.1087 1.8323 1.8109
1900.043 1.8541 1.7679 1.5628 1.5837 1.8035 1.7741 1.7771 2.1379 2.3301 2.2238
1919.333 2.2499 2.0123 1.8487 2.0289 2.1653 2.2156 2.3069 2.3195 2.066 2.0001
1938.623 2.0125 2.0222 2.0238 1.9302 2.2838 2.5532 2.4019 2.2237 1.9573 2.0255
1957.913 2.3235 2.095 1.8389 1.9146 2.0829 2.1599 1.9826 1.7626 1.5615 1.506
1977.202 1.5578 1.67461 1.71152 1.451 1.5447 1.7628 1.8488 1.69317 1.62299 1.7551
1996.492 1.7912 1.9436 1.7577 1.66872 1.70638 1.7595 1.8762 1.9433 1.8534 1.8234
2015.782 1.8999 1.941 1.8256 1.68224 1.7792 1.7413 1.811 1.9834 1.8898 1.67093
2035.072 1.5987 1.803 1.802 1.6173 1.7507 1.62652 1.416 1.508 1.67737 1.67426
2054.362 1.62019 1.576 1.415 1.67554 1.9389 1.9145 1.8282 1.7692 1.948 1.8317
2073.651 1.62609 1.62876 1.6056 1.72607 1.9458 1.9814 1.8005 1.64523 1.498 1.367
2092.941 1.518 1.7963 1.68697 1.522 1.5582 1.6359 1.8053 1.9852 2.0367 1.956
2112.231 1.8575 2.0647 2.1221 1.9628 1.989 2.0879 2.1695 2.3155 2.3124 1.9619
2131.521 1.7708 1.7505 1.8349 1.7616 1.5737 1.7393 2.0371 1.958 1.6191 1.47
2150.810 1.5845 1.854 2.034 1.8828 1.65133 1.5328 1.595 1.70909 1.7829 1.7974
2170.100 1.63873 1.5813 1.51 1.347 1.5782 1.70641 1.489 1.66267 1.7496 1.63329
2189.390 1.5511 1.5796 1.65588 1.66484 1.6052 1.5536 1.66123 1.5639 1.68293 1.9363
2208.680 1.9729 1.7539 1.5592 1.498 1.72679 1.8294 1.529 1.62844 1.67497 1.536
2227.970 1.522 1.62415 1.7604 1.5932 1.6075 1.9139 1.8719 1.71409 1.63052 1.5476
2247.259 1.5858 1.7346 1.5402 1.394 1.419 1.432 1.5824 1.62807 1.464 1.428
2266.549 1.64227 1.8609 2.055 1.9015 1.8399 1.8734 1.8871 1.9154 1.7641 1.64069
2285.839 1.64531 1.7447 1.8568 1.7873 1.7685 1.65637 1.418 1.6104 1.7735 1.8698
2305.129 2.0136 1.883 1.8165 1.7913 1.70343 1.8689 2.0877 1.7427 1.388 1.66992
2324.418 1.9097 1.8186 1.70201 1.6044 1.49 1.71577 1.8071 1.6007 1.525 1.486
2343.708 1.405 1.46 1.7739 1.9447 1.8792 1.9522 2.2519 1.9805 1.63823 1.7704
2362.998 1.7345 1.6004 1.451 1.343 1.67211 1.9909 1.62956 1.51 1.7559 1.8487
2382.288 1.7999 1.8432 1.68258 1.386 1.506 1.72366 1.8077 1.8664 2.03 1.9245
2401.578 1.62696 1.443 1.476 1.493 1.349 1.508 1.7693 1.7774 1.6111 1.7436
2420.867 1.9163 1.8482 1.7375 1.62274 1.518 1.8455 1.7301 1.374 1.379 1.384
2440.157 1.9038 2.1029 1.9126 1.7735 1.5655 1.67166 1.8051 1.8247 1.8875 1.8672
2459.447 1.494 1.163 1.412 1.64369 1.789 1.8116 1.9283 2.0215 1.8779 1.7447
2478.737 1.5405 1.44 1.434 1.504 1.525 1.5804 1.519 1.306 1.316 1.435
2498.026 1.489 1.579 1.503 1.202 1.15 1.281 1.68724 1.6166 1.397 1.628
2517.316 1.7746 1.829 1.8652 1.7604 1.5907 1.432 1.325 1.494 1.43 1.328
2536.606 1.421 1.312 1.256 1.28 1.312 1.5957 1.63365 1.6084 1.65974 1.9364
2555.896 1.9541 1.848 1.70491 1.522 1.8326 1.762 1.7303 1.8498 1.5809 1.251
2575.186 1.374 1.8312 1.7589 1.71471 1.7872 1.64386 1.8853 1.6903 1.326 1.351
2594.475 1.375 1.5352 1.442 1.362 1.64874 1.8406 1.885 1.784 1.5314 1.428
2613.765 1.7509 1.7412 1.5364 1.51 1.512 1.465 1.313 1.358 1.269 1.323
2633.055 1.6719 1.5786 1.4 1.612 1.5 1.5672 1.8339 1.8016 1.5 1.288
2652.345 1.305 1.19 1.259 1.63575 1.9676 1.9477 1.9115 1.792 1.6005 1.5438
2671.634 1.457 1.343 1.408 1.464 1.66792 1.527 1.5335 1.8929 1.6931 1.64066
2690.924 1.7783 1.68255 1.65531 1.65589 1.68361 1.5549 1.5662 1.257 1.127 1.347
2710.214 1.147 1.5791 1.70326 1.384 1.346 1.5384 1.519 1.508 1.8067 1.68144
2729.504 1.467 1.348 1.5366 1.7957 1.512 1.316 1.491 1.5631 1.5862 1.286
2748.794 1.125 1.384 1.70682 2.0853 1.8044 1.496 1.28 1.516 1.9221 1.62892
2768.083 1.374 1.434 1.6106 1.69151 1.521 1.475 1.64633 1.7592 1.67513 1.457
2787.373 1.7385 2.2071 2.4216 2.2036 1.68588 1.5563 1.9692 2.1086 2.0967 1.8098
2806.663 1.64151 1.68961 1.9688 2.1655 1.6021 1.318 1.459 1.5938 1.69346 1.65326
2825.953 1.453 1.5434 1.5919 1.206 1.246 1.69096 1.9847 2.3332 2.3507 1.9164
2845.242 1.63341 1.509 1.512 1.71896 1.5961 1.7451 1.7944 1.433 1.44 1.325
2864.532 1.028 0.977 0.887 1.284 1.8832 1.7992 1.9727 2.0948 1.398 1.083
2883.822 1.374 1.6073 1.5559 1.391 1.355 1.68402 1.8088 1.65388 1.413 1.061
2903.112 1.269 1.9682 2.3165 2.5329 2.2118 1.5459 1.9337 2.0024 2.2379 3.26
2922.401 3.72 3.62 3.72 3.74 4 4.16 3.72 3.5 2.8 2.5414
2941.691 2.72 2.4161 2.2274 2.4369 2.304 1.7948 2.0146 2.3983 2.5534 2.5512
2960.981 2.2608 1.71115 1.473 1.8119 1.9025 1.455 1.529 2.1387 2.1233 2.1979
2980.271 2.4603 2.2195 1.8354 1.5993 1.5701 1.67271 1.7709 1.67498 1.9929 2.4493
2999.561 2.4051 2.559 2.77 2.96 3.39 3.28 3.02 2.88 2.5042 2.78
3018.850 3.21 3.2 3.48 3.31 3.06 3.4 3.33 3.27 2.91 2.69
3038.140 3.16 3.13 2.97 3.35 3.59 3.64 3.94 4.6 5.19 5.65
3057.430 6.48 7.1 8.05 9.12 9.5 9.98 10.6 10.72 10.32 9.92
3076.720 9.79 9.57 8.96 7.99 7.22 6.81 6.92 6.39 5.44 5.35
3096.009 4.85 4.23 3.68 3.32 3.02 2.4249 2.4297 2.79 2.1723 1.8474
3115.299 1.8486 1.8427 2.0136 1.8112 1.68609 1.7704 2.0557 2.012 2.2488 2.6067
3134.589 2.4912 2.0325 1.9072 1.956 1.5645 1.7576 2.0067 1.72792 1.8452 1.8109
3153.879 1.516 1.9827 1.9814 1.322 1.263 1.63044 1.315 0.926 1.189 1.235
3173.169 1.492 1.7552 1.70948 1.8481 1.7959 1.234 1.043 1.244 1.361 1.406
3192.458 1.428 1.525 1.71949 1.8458 2.0312 2.2079 2.3994 2.1584 1.9271 1.7768
3211.748 1.5528 1.7799 2.0595 2.2788 2.0962 1.8471 1.7943 1.46 2.1266 2.0751
3231.038 1.136 1.261 1.461 1.5861 1.8877 1.5668 1.432 1.8735 1.5982 1.7327
3250.328 2.315 2.3602 2.2245 1.9647 1.9594 2.1209 1.7802 1.242 1.282 1.7039
3269.617 2.178 2.2019 1.399 1.147 1.66691 2.108 2.65 2.584 2.5884 3.01
3288.907 3.57 4.06 4.34 4.46 4.53 5.2 5.78 6.03 6.27 7.48
3308.197 8.15 7.96 8.76 9.7 10.09 10.92 11.87 12.5 13.36 14.24
3327.487 14.05 13.43 13.54 13.66 12.4 9.87 8.02 6.63 5.28 4.2
3346.777 3.43 3.05 2.6106 2.78 2.82 2.4964 2.2594 2.5013 2.5896 2.4016
3366.066 2.3584 1.7731 2.0884 2.5058 2.4707 2.5889 2.5632 2.2156 1.5306 1.5885
3385.356 1.8176 1.46 1.184 1.315 1.70042 1.8389 2.1674 2.5366 2.2381 2.373
3404.646 2.4954 2.3601 2.03 1.463 1.486 1.69018 1.202 0.84 1.5454 1.5392
3423.936 1.316 1.64917 1.68835 1.304 1.02 1.393 1.492 1.69921 1.7529 1.62843
3443.225 1.71691 1.8916 2.3089 1.66594 1.64239 2.5574 2.0939 1.367 1.70774 1.8384
3462.515 1.303 1.446 1.8607 1.9405 1.67585 1.036 1.419 2.2002 1.9886 2.1537
3481.805 2.5857 2.2458 1.8381 1.5651 1.404 1.478 1.387 1.502 1.72598 1.7802
3501.095 2.0389 2.1896 1.8136 1.5906 1.64928 1.7793 1.6 1.152 1.439 2.1071
3520.385 1.8414 1.424 1.5418 1.8203 2.2343 1.9897 1.309 1.464 2.4812 2.5043
3539.674 2.0527 1.5583 0.971 1.072 1.279 1.68928 1.9675 1.70383 1.208 1.264
3558.964 1.9054 1.983 1.9246 1.7984 2.0672 2.1061 2.0969 2.1706 1.8926 1.8345
3578.254 1.9645 2.0403 2.0271 2.487 2.4269 2.2633 1.965 1.5596 1.216 0.988
3597.544 1.416 1.326 0.992 1.327 1.7583 1.65726 1.5625 1.9382 1.8215 1.136
3616.833 1.071 1.6156 1.5898 1.9456 2.2065 1.7786 1.8797 1.67804 1.315 1.377
3636.123 1.252 1.432 1.7518 1.7506 1.9271 1.9176 2.1822 2.3357 1.9289 1.9539
3655.413 1.7321 1.438 1.7492 1.38 1.33 2.2012 2.2259 1.63539 1.6179 1.9074
3674.703 1.9966 1.878 1.9101 1.8464 1.5718 1.67815 1.68466 1.7755 1.71802 2.1812
3693.993 1.7985 1.021 1.6193 1.8437 1.8564 1.7869 1.6197 1.8785 1.7348 1.8576
3713.282 1.66739 1.312 1.389 1.152 1.43 1.467 1.63475 1.9186 1.72122 1.784
3732.572 2.2381 2.3054 2.1412 1.5668 1.425 1.8162 1.525 1.5 1.13 0.746
3751.862 1.018 1.249 1.32 1.362 1.441 1.432 1.327 0.94 1.171 1.9107
3771.152 1.8118 1.352 0.98 1.162 1.825 1.9424 1.63168 1.9175 2.0245 1.465
3790.441 1.68712 1.9318 1.8706 1.34 1.224 1.62017 1.405 1.65117 2.2954 2.1046
3809.731 1.7629 2.1348 2.0681 2.1178 2.3107 2.0558 1.8353 1.313 0.932 1.175
3829.021 1.394 1.71755 1.366 0.62 0.694 1.62493 1.9811 1.8683 1.6837 1.326
3848.311 1.422 1.454 1.124 1.253 1.163 0.883 0.895 1.119 1.119 0.843
3867.601 1.232 1.337 1.71419 1.7529 1.6192 1.9904 2.1429 2.0384 1.9527 1.62219
3886.890 1.9387 2.65 1.8811 0.997 1.408 1.9172 1.9614 1.397 1.042 1.413
3906.180 1.53 1.461 1.436 1.6019 1.8066 2.0509 2.3513 2.4117 2.2156 1.895
3925.470 1.286 1.65053 2.1654 1.197 1.5444 1.8248 0.979 1.65385 2.3118 2.1387
3944.760 2.1565 2.1393 1.8027 0.982 1.21 1.9488 1.7479 1.5327 1.9767 1.6133
3964.049 1.093 1.6116 1.167 0.868 1.68327 1.7859 1.252 1.144 1.361 1.7924
3983.339 1.9211 1.69082 2.15 2.2866 1.8401 1.431 0.909 1.305 1.405 1.212
##END=
