##TITLE=.alpha.-Chlordene
##JCAMP-DX=4.24
##DATA TYPE=INFRARED SPECTRUM
##ORIGIN=NIST Mass Spectrometry Data Center
##OWNER=NIST Standard Reference Data Program
Collection (C) 2018 copyright by the U.S. Secretary of Commerce
on behalf of the United States of America. All rights reserved.
##CAS REGISTRY NO=56534-02-2
##MOLFORM=C 10 H 6 Cl 6
##$NIST SOURCE=MSDC-IR
##SPECTROMETER/DATA SYSTEM=HP-GC/MS/IRD
##STATE=gas
##XUNITS=1/CM
##YUNITS=ABSORBANCE
##XFACTOR=1.0
##YFACTOR=0.000000400
##DELTAX=4.0
##FIRSTX=550.0
##LASTX=3846.0
##FIRSTY=0.000906
##MAXX=3846
##MINX=550
##MAXY=0.004
##MINY=0
##NPOINTS=825
##XYDATA=(X++(Y..Y))
550.0 2266 1389 1016 1298 1518 2265 3593 3824 3021 2323
590.0 1673 926 563 535 199 248 509 415 642 1056
630.0 1271 1372 1232 803 537 455 391 427 538 517
670.0 523 745 1359 2398 3891 5162 4975 3312 1949 1628
710.0 1871 2838 3839 3666 2934 2300 2131 2644 2674 2139
750.0 1949 2230 2298 2442 3569 5883 8300 8647 6482 3569
790.0 1762 1094 730 466 426 201 52 254 317 218
830.0 169 217 208 149 17 43 67 76 185 218
870.0 324 437 428 561 833 1197 1425 1458 1720 2471
910.0 4399 6962 7799 5963 3506 2512 2235 1841 1484 1340
950.0 1225 1040 773 554 643 685 711 882 1307 1953
990.0 2370 2293 1974 1876 1852 1610 1718 2049 2108 1622
1030.0 1154 1075 856 886 1079 1358 1881 2120 1987 1659
1070.0 1834 2305 2877 3532 3631 3103 2587 2666 3294 4144
1110.0 4468 3781 2955 2404 2289 3093 4427 6408 8473 8729
1150.0 6835 4168 2599 2257 2422 2460 2175 2097 2665 3757
1190.0 4485 4203 3379 2320 1590 1282 936 728 622 611
1230.0 608 519 721 1097 1833 3199 4843 5223 4063 2943
1270.0 2711 2800 2600 2076 1510 1204 1031 931 891 837
1310.0 831 1040 1374 1582 1477 1069 649 449 335 200
1350.0 211 227 173 144 127 154 153 148 171 157
1390.0 129 104 76 120 143 146 147 176 245 319
1430.0 454 689 1097 1608 1993 1892 1251 645 321 169
1470.0 85 60 95 69 32 65 97 79 76 96
1510.0 91 117 151 133 98 116 181 234 210 190
1550.0 173 201 329 472 622 866 1248 1836 3139 5343
1590.0 7813 9601 10000 8792 6102 3149 1336 635 429 331
1630.0 276 239 155 122 183 169 168 156 147 153
1670.0 85 66 63 97 114 103 80 46 88 82
1710.0 56 79 41 69 148 141 87 38 64 118
1750.0 114 115 151 91 49 91 75 75 95 113
1790.0 123 71 37 69 72 54 57 66 19 0
1830.0 125 118 5 47 107 83 81 96 76 66
1870.0 68 56 60 95 78 78 104 107 146 147
1910.0 170 167 91 87 77 48 45 81 111 96
1950.0 100 90 97 109 75 15 43 71 45 65
1990.0 135 113 79 155 206 147 103 129 109 112
2030.0 133 144 103 36 106 102 72 123 150 166
2070.0 150 123 159 195 149 136 123 138 120 97
2110.0 88 95 112 61 70 90 128 162 141 134
2150.0 185 179 150 135 93 76 73 79 104 83
2190.0 29 46 107 116 123 172 198 136 117 129
2230.0 90 92 107 128 167 186 170 143 109 99
2270.0 139 133 108 149 170 172 145 100 180 268
2310.0 232 184 172 139 147 248 242 178 154 194
2350.0 217 197 209 212 229 234 177 108 59 76
2390.0 109 115 146 153 130 144 145 169 225 194
2430.0 159 194 134 104 111 99 125 137 224 269
2470.0 204 206 166 165 195 132 151 149 64 133
2510.0 240 184 114 117 110 175 136 140 218 189
2550.0 168 181 210 177 111 99 75 72 156 178
2590.0 170 198 171 147 104 98 236 257 125 119
2630.0 154 177 178 156 140 137 174 119 63 87
2670.0 54 68 130 96 93 171 166 206 256 270
2710.0 221 151 139 175 216 175 160 213 196 79
2750.0 65 154 223 208 209 187 117 132 185 165
2790.0 122 91 11 67 194 183 144 165 161 78
2830.0 77 143 79 17 35 83 153 228 203 200
2870.0 282 332 337 218 188 247 211 125 83 127
2910.0 140 156 340 338 175 225 310 364 599 1086
2950.0 1451 1397 969 696 858 1272 2001 2406 2288 2455
2990.0 2805 2881 2084 1005 443 270 251 150 69 182
3030.0 209 173 164 217 246 164 204 268 242 191
3070.0 135 170 289 285 245 182 289 314 136 173
3110.0 156 176 200 186 222 206 203 246 215 134
3150.0 35 83 299 332 293 274 305 276 158 206
3190.0 325 223 66 138 215 208 241 231 252 318
3230.0 237 258 166 20 175 210 174 219 173 136
3270.0 209 236 172 146 166 183 172 210 264 263
3310.0 235 201 209 235 283 447 423 226 162 241
3350.0 143 81 371 482 179 57 103 60 175 305
3390.0 312 444 397 92 206 362 214 175 206 184
3430.0 172 177 253 297 243 342 356 197 117 206
3470.0 199 117 223 352 330 292 380 489 377 353
3510.0 378 343 342 389 426 329 222 197 290 219
3550.0 246 357 391 330 315 327 221 225 368 352
3590.0 388 454 220 140 460 387 157 220 370 435
3630.0 355 197 152 240 276 270 190 279 400 274
3670.0 214 178 130 125 155 305 327 267 237 227
3710.0 233 347 352 288 424 425 265 293 523 513
3750.0 404 207 198 313 220 198 97 107 335 381
3790.0 318 272 206 162 170 170 176 286 249 203
3830.0 263 383 422 363 313
##END=
