##TITLE=3,3-Tetramethyleneglutaric anhydride
##JCAMP-DX=4.24
##DATA TYPE=INFRARED SPECTRUM
##ORIGIN=EPA-IR VAPOR PHASE LIBRARY
##OWNER=SRD/NIST
Collection (C) 2018 copyright by the U.S. Secretary of Commerce
on behalf of the United States of America. All rights reserved.
##CAS REGISTRY NO=5662-95-3
##MOLFORM=C 9 H 12 O 3
##$NIST SOURCE=MSDC-IR
##STATE=gas
##XUNITS=1/CM
##YUNITS=ABSORBANCE
##XFACTOR=1.
##YFACTOR=0.001
##DELTAX=1.92934
##FIRSTX=549.9
##LASTX=3999.5
##FIRSTY=4.17
##MAXX=3999.53
##MINX=549.863
##MAXY=0.16803
##MINY=0
##NPOINTS=1789
##XYDATA=(X++(Y..Y))
549.863 4.17 4.34 4.42 4.53 4.34 4.42 4.51 4.46 4.43 4.51
569.156 4.53 4.56 4.77 4.98 5.35 5.85 6.27 6.81 7.36 7.76
588.450 8.33 8.86 9.34 9.75 10.04 10.25 10.4 10.43 10.37 10.36
607.743 10.13 9.73 9.29 8.92 8.53 8.13 7.71 7.23 6.85 6.45
627.037 5.99 5.51 5.06 4.67 4.27 3.87 3.48 3.19 3.03 2.81
646.330 2.5828 2.4194 2.2639 2.1711 2.1132 2.0013 1.9758 1.931 1.877 1.9549
665.624 1.9398 1.8985 1.9246 1.848 1.7676 1.7121 1.65718 1.62933 1.5452 1.517
684.917 1.5264 1.507 1.49 1.425 1.347 1.284 1.343 1.403 1.373 1.312
704.210 1.283 1.205 1.098 1.136 1.157 1.137 1.147 1.132 1.081 1.068
723.504 1.031 0.962 0.989 0.985 0.984 1.021 0.965 0.956 1.091 1.154
742.797 1.119 1.167 1.215 1.21 1.246 1.296 1.296 1.351 1.391 1.411
762.091 1.429 1.44 1.466 1.566 1.6586 1.6952 1.7761 1.7823 1.815 1.8804
781.384 1.9028 1.9148 1.9305 1.9429 2.0297 2.1532 2.2259 2.2772 2.3787 2.4878
800.678 2.63 2.84 2.93 2.97 3.01 2.99 2.91 2.83 2.75 2.62
819.971 2.4418 2.2708 2.1456 1.9717 1.8412 1.7687 1.67008 1.64301 1.58608 1.474
839.264 1.471 1.5182 1.5081 1.433 1.378 1.395 1.397 1.386 1.389 1.388
858.558 1.377 1.409 1.42 1.448 1.531 1.5249 1.5134 1.5541 1.64686 1.7463
877.851 1.8367 1.923 1.9782 2.0802 2.1738 2.3234 2.49 2.6 2.78 2.98
897.145 3.15 3.33 3.6 3.84 4.09 4.4 4.74 5.18 5.71 6.33
916.438 7.12 8.19 9.4 10.82 12.65 14.75 17.18 19.91 22.81 25.74
935.732 28.51 30.92 32.75 33.89 34.29 34 32.96 31.15 28.69 25.74
955.025 22.71 19.81 17.16 14.88 12.99 11.48 10.23 9.27 8.53 7.96
974.318 7.5 7.03 6.67 6.4 6.13 5.96 5.86 5.8 5.79 5.77
993.612 5.8 5.86 5.96 6.13 6.37 6.7 7.06 7.51 7.98 8.45
1012.905 9 9.72 10.41 11.08 11.83 12.61 13.52 14.59 15.82 17.3
1032.199 19.08 21.14 23.4 25.86 28.57 31.57 34.74 38.19 41.83 45.6
1051.492 49.59 53.82 58.27 62.93 67.87 73.05 78.34 83.58 88.5 92.73
1070.786 95.93 97.74 97.97 96.59 93.68 89.17 82.99 75.61 67.67 59.55
1090.079 51.8 44.92 38.96 34.06 30.03 26.65 24.06 21.85 19.91 18.32
1109.372 16.88 15.69 14.69 13.65 12.83 12.2 11.59 11.16 10.85 10.56
1128.666 10.28 10.14 10 10.08 10.3 10.31 10.33 10.44 10.64 10.93
1147.959 11.09 11.46 12.01 12.52 13.18 13.93 14.71 15.59 16.63 17.86
1167.253 19.24 20.62 21.9 22.93 23.82 24.67 25.19 25.41 25.13 24.23
1186.546 23.38 22.68 21.58 20.26 18.94 17.89 17.1 16.41 15.99 15.86
1205.840 15.92 16.16 16.63 16.82 17.08 17.46 17.75 17.92 18.22 18.89
1225.133 19.7 20.7 21.84 22.67 23.59 24.44 24.93 25.29 25.25 24.93
1244.426 24.28 23.4 22.38 21.07 19.65 18.31 17.04 15.83 14.8 13.88
1263.720 13.03 12.33 11.71 11.3 10.93 10.6 10.36 10.05 9.75 9.44
1283.013 9.01 8.58 8.21 7.85 7.42 7.11 6.81 6.63 6.62 6.65
1302.307 6.77 6.9 6.99 7.08 7.2 7.29 7.39 7.46 7.51 7.47
1321.600 7.38 7.36 7.32 7.22 7.09 6.96 6.8 6.58 6.31 5.96
1340.894 5.61 5.3 4.95 4.55 4.22 3.93 3.62 3.36 3.22 3.12
1360.187 3.01 2.92 2.85 2.86 2.84 2.76 2.67 2.5764 2.5025 2.4432
1379.480 2.4141 2.3738 2.3591 2.3423 2.3331 2.3534 2.361 2.3994 2.4643 2.6
1398.774 2.75 2.92 3.14 3.4 3.77 4.2 4.74 5.32 5.84 6.35
1418.067 6.82 7.19 7.54 7.83 7.95 8.06 8.17 8.11 7.74 7.24
1437.361 6.86 6.62 6.44 6.31 6.22 6.17 6.25 6.38 6.42 6.31
1456.654 6.26 6.37 6.33 6.14 5.94 5.75 5.55 5.36 5.15 5.02
1475.948 4.91 4.79 4.7 4.55 4.38 4.22 4.1 3.91 3.61 3.41
1495.241 3.21 2.99 2.83 2.68 2.5401 2.4014 2.2824 2.2148 2.1971 2.0978
1514.534 1.9981 1.9626 1.8959 1.8146 1.7457 1.7038 1.65537 1.61391 1.5585 1.5483
1533.828 1.5617 1.5026 1.453 1.458 1.482 1.49 1.509 1.5066 1.457 1.4
1553.121 1.383 1.38 1.347 1.37 1.379 1.375 1.391 1.394 1.402 1.414
1572.415 1.407 1.362 1.327 1.326 1.345 1.326 1.353 1.372 1.353 1.388
1591.708 1.4 1.421 1.439 1.382 1.357 1.416 1.4 1.382 1.399 1.413
1611.002 1.464 1.436 1.382 1.416 1.439 1.434 1.454 1.451 1.439 1.459
1630.295 1.4994 1.58929 1.6639 1.60351 1.5781 1.63792 1.6918 1.67381 1.65989 1.7375
1649.588 1.8195 1.8795 1.8838 1.8948 1.9337 1.9685 1.9758 2.0107 2.0717 2.0394
1668.882 2.0751 2.1484 2.158 2.1729 2.1577 2.1513 2.206 2.2167 2.2365 2.2383
1688.175 2.2611 2.3494 2.4014 2.4834 2.5149 2.5642 2.66 2.75 2.88 3
1707.469 3.16 3.36 3.58 3.8 4.06 4.33 4.57 4.88 5.22 5.54
1726.762 5.92 6.34 6.84 7.35 7.93 8.59 9.28 10.05 10.94 11.85
1746.056 12.84 13.92 15.03 16.26 17.52 18.91 20.61 22.61 25.18 28.65
1765.349 33.25 39.48 47.89 58.62 72.38 88.31 105.95 124.13 141.11 154.79
1784.642 163.45 167.39 168.03 165.36 156.75 141.94 123.54 104.01 85.69 69.91
1803.936 57.68 49.11 43.85 41.56 41.87 44.63 49.8 56.88 64.97 72.7
1823.229 78.81 82.94 84.98 83.75 79.11 72.8 64.61 53.73 41.81 31.34
1842.523 23.56 18.2 14.64 12.26 10.54 9.27 8.29 7.56 6.96 6.44
1861.816 5.99 5.62 5.31 5.01 4.75 4.54 4.34 4.1 3.93 3.76
1881.110 3.57 3.4 3.25 3.14 3.03 2.93 2.83 2.7 2.59 2.488
1900.403 2.4166 2.3877 2.3474 2.291 2.2368 2.2119 2.1885 2.1456 2.1515 2.1833
1919.696 2.1846 2.1929 2.1899 2.181 2.1594 2.0644 1.9975 1.9916 1.9871 1.9794
1938.990 1.9296 1.8799 1.8519 1.7976 1.67652 1.61735 1.61298 1.5343 1.487 1.443
1958.283 1.422 1.448 1.424 1.373 1.386 1.419 1.397 1.383 1.371 1.357
1977.577 1.356 1.366 1.378 1.412 1.411 1.338 1.337 1.395 1.358 1.323
1996.870 1.33 1.351 1.391 1.43 1.391 1.347 1.374 1.375 1.369 1.349
2016.164 1.318 1.305 1.286 1.292 1.314 1.317 1.281 1.276 1.249 1.213
2035.457 1.243 1.256 1.252 1.249 1.239 1.244 1.218 1.184 1.201 1.227
2054.750 1.235 1.239 1.223 1.218 1.237 1.217 1.227 1.24 1.237 1.245
2074.044 1.246 1.235 1.205 1.203 1.25 1.287 1.264 1.237 1.249 1.283
2093.337 1.323 1.336 1.311 1.286 1.317 1.338 1.353 1.315 1.311 1.383
2112.631 1.407 1.41 1.441 1.464 1.425 1.459 1.4976 1.44 1.432 1.4986
2131.924 1.5186 1.4908 1.471 1.5118 1.5276 1.5185 1.5573 1.5611 1.5542 1.5884
2151.218 1.62066 1.61673 1.60405 1.5751 1.58238 1.58281 1.5706 1.5446 1.5136 1.5312
2170.511 1.5564 1.58468 1.58084 1.58424 1.5721 1.5525 1.5703 1.61845 1.61101 1.5747
2189.804 1.59798 1.61569 1.5787 1.5579 1.5602 1.5409 1.5476 1.5398 1.5134 1.5048
2209.098 1.5064 1.5079 1.5001 1.468 1.447 1.457 1.488 1.5042 1.5239 1.5603
2228.391 1.5245 1.4983 1.5155 1.5356 1.58611 1.6076 1.60384 1.572 1.5795 1.63168
2247.685 1.62878 1.60673 1.59438 1.58324 1.58263 1.60597 1.62427 1.60952 1.60763 1.61025
2266.978 1.61107 1.63095 1.64502 1.66521 1.694 1.7077 1.6987 1.7085 1.7429 1.7143
2286.272 1.68907 1.68319 1.67992 1.6966 1.7324 1.7322 1.7063 1.7098 1.7199 1.7196
2305.565 1.66564 1.6153 1.62005 1.65524 1.6675 1.6452 1.6205 1.62143 1.60359 1.5281
2324.858 1.5101 1.5114 1.482 1.513 1.4917 1.475 1.476 1.43 1.443 1.459
2344.152 1.437 1.41 1.403 1.412 1.396 1.368 1.397 1.391 1.343 1.362
2363.445 1.408 1.378 1.335 1.307 1.286 1.272 1.255 1.258 1.233 1.232
2382.739 1.239 1.226 1.194 1.183 1.162 1.123 1.165 1.176 1.152 1.141
2402.032 1.111 1.16 1.17 1.132 1.13 1.121 1.094 1.064 1.086 1.091
2421.326 1.114 1.116 1.05 1.049 1.068 1.055 1.037 1.032 1.031 1.037
2440.619 1.072 1.116 1.102 1.074 1.078 1.063 1.045 1.048 1.049 1.057
2459.912 1.053 1.031 1.036 1.044 1.043 1.061 1.051 1.013 1.023 1.065
2479.206 1.081 1.044 1.024 1.047 1.055 1.012 1.011 1.042 0.985 0.984
2498.499 1.061 1.046 1.006 1.003 0.998 0.997 0.994 1 1.032 1.039
2517.793 1.038 1.016 0.949 0.938 0.939 0.939 0.943 0.957 0.993 0.998
2537.086 0.97 0.956 0.972 0.976 1.001 1.029 0.988 0.942 0.951 0.967
2556.380 0.954 0.941 0.97 0.963 1.001 1.024 1.011 1.029 1.026 1.032
2575.673 1.017 1.04 1.022 0.966 0.984 0.974 0.958 0.893 0.881 0.953
2594.966 0.969 0.997 1.05 1.035 0.961 0.976 1.003 1 0.977 0.985
2614.260 0.987 0.918 0.943 0.974 0.931 0.884 0.91 0.974 0.958 0.939
2633.553 0.977 1.013 1.055 1.06 0.986 0.947 0.984 0.97 0.888 0.895
2652.847 0.934 0.947 0.957 0.908 0.899 0.917 0.927 0.915 0.896 0.94
2672.140 0.959 0.938 0.907 0.863 0.902 0.961 0.925 0.903 0.912 0.908
2691.434 0.927 0.92 0.912 0.962 0.977 0.922 0.926 0.964 0.962 1.001
2710.727 1.055 1.011 0.922 0.935 1.024 1.048 0.993 0.971 1.018 1.055
2730.020 1.028 1.008 0.996 1.004 0.999 1.021 1.082 1.065 1.03 1.118
2749.314 1.167 1.096 1.056 1.084 1.068 1.085 1.099 1.081 1.12 1.127
2768.607 1.14 1.172 1.111 1.082 1.101 1.104 1.079 1.109 1.233 1.211
2787.901 1.151 1.182 1.236 1.307 1.281 1.278 1.342 1.326 1.353 1.368
2807.194 1.405 1.467 1.484 1.5277 1.62586 1.7429 1.8942 1.9657 2.0273 2.1583
2826.488 2.2572 2.3171 2.4231 2.5761 2.63 2.5783 2.589 2.77 2.95 3.1
2845.781 3.27 3.45 3.7 4.08 4.49 5.01 5.6 6.24 7.02 7.75
2865.074 8.63 9.71 10.74 11.66 12.48 13.06 13.44 13.77 14.06 14.33
2884.368 14.54 14.64 14.53 14.19 13.91 13.61 13.26 13.01 12.93 12.93
2903.661 13.04 13.33 13.79 14.45 15.07 15.56 15.87 16.15 16.46 16.81
2922.955 17.06 17.34 17.75 18.23 18.84 19.58 20.34 21.12 22 22.88
2942.248 23.76 24.66 25.62 26.51 27.5 28.6 29.65 30.92 32.48 34.25
2961.542 36.06 37.67 38.79 39.02 38.58 37.72 36.13 33.65 30.48 27.01
2980.835 23.62 20.47 17.57 15 12.85 11.01 9.57 8.48 7.58 6.87
3000.128 6.27 5.7 5.18 4.77 4.56 4.2 3.86 3.73 3.51 3.22
3019.422 2.97 2.79 2.61 2.4244 2.2063 2.0839 1.9735 1.8679 1.7811 1.7247
3038.715 1.67869 1.5656 1.465 1.375 1.345 1.28 1.284 1.288 1.225 1.135
3058.009 0.999 0.979 1.058 1.077 0.998 1.015 0.991 0.909 0.884 0.883
3077.302 0.774 0.703 0.727 0.804 0.808 0.692 0.593 0.646 0.743 0.716
3096.596 0.794 0.725 0.636 0.55 0.48 0.48 0.57 0.606 0.54 0.53
3115.889 0.53 0.56 0.48 0.42 0.37 0.44 0.44 0.39 0.46 0.44
3135.182 0.31 0.27 0.43 0.57 0.58 0.42 0.3 0.37 0.33 0.31
3154.476 0.24 0.21 0.27 0.22 0.31 0.36 0.37 0.4 0.41 0.44
3173.769 0.4 0.25 0.26 0.34 0.21 0.05 0.09 0.18 0.24 0.28
3193.063 0.25 0.23 0.31 0.36 0.39 0.35 0.23 0.27 0.32 0.24
3212.356 0.23 0.36 0.36 0.24 0.14 0.07 0.12 0.22 0.25 0.26
3231.650 0.33 0.35 0.26 0.19 0.17 0.32 0.32 0.17 0.1 0.17
3250.943 0.31 0.26 0.28 0.41 0.46 0.4 0.3 0.2 0.21 0.32
3270.236 0.39 0.47 0.43 0.3 0.29 0.25 0.24 0.27 0.35 0.37
3289.530 0.33 0.44 0.43 0.33 0.37 0.39 0.21 0.13 0.26 0.27
3308.823 0.13 0.18 0.35 0.46 0.42 0.28 0.1 0 0.15 0.21
3328.117 0.19 0.23 0.22 0.18 0.13 0.18 0.29 0.37 0.43 0.43
3347.410 0.36 0.32 0.38 0.38 0.28 0.25 0.34 0.38 0.33 0.2
3366.704 0.21 0.27 0.26 0.23 0.18 0.24 0.28 0.33 0.39 0.35
3385.997 0.28 0.39 0.43 0.37 0.46 0.42 0.28 0.25 0.32 0.35
3405.290 0.33 0.38 0.32 0.25 0.3 0.3 0.33 0.33 0.32 0.3
3424.584 0.27 0.39 0.46 0.38 0.38 0.43 0.5 0.47 0.35 0.39
3443.877 0.5 0.5 0.51 0.52 0.48 0.49 0.4 0.42 0.604 0.56
3463.171 0.49 0.606 0.616 0.601 0.49 0.4 0.48 0.51 0.5 0.4
3482.464 0.45 0.53 0.55 0.751 0.721 0.54 0.58 0.54 0.5 0.45
3501.758 0.55 0.678 0.677 0.732 0.802 0.894 0.849 0.798 0.881 0.81
3521.051 0.714 0.787 0.766 0.709 0.675 0.764 0.931 0.974 0.936 0.962
3540.344 0.973 0.926 0.946 1.052 1.162 1.183 1.272 1.384 1.5432 1.6254
3559.638 1.5699 1.61322 1.67819 1.67991 1.67933 1.797 1.8796 2.0047 2.0573 2.0457
3578.931 2.263 2.4424 2.5005 2.62 2.71 2.79 3.01 3.15 2.95 2.9
3598.225 2.92 2.75 2.5853 2.4562 2.3904 2.1975 1.9864 1.8267 1.64854 1.461
3617.518 1.245 1.137 1.178 1.157 1.092 1.11 1.151 1.155 1.083 1.048
3636.812 1.077 1.073 1.096 1.144 1.137 1.115 1.1 1.001 0.966 1.009
3656.105 1.009 1.03 1.015 0.984 0.94 0.924 0.807 0.679 0.825 0.851
3675.398 0.785 0.767 0.854 0.896 0.797 0.787 0.782 0.79 0.785 0.787
3694.692 0.764 0.79 0.841 0.741 0.762 0.82 0.833 0.836 0.725 0.716
3713.985 0.75 0.786 0.815 0.784 0.79 0.813 0.812 0.832 0.898 0.86
3733.279 0.791 0.863 0.862 0.807 0.721 0.639 0.724 0.735 0.663 0.726
3752.572 0.726 0.786 0.89 0.861 0.828 0.82 0.896 0.949 0.925 0.763
3771.866 0.751 0.853 0.814 0.865 0.95 0.988 0.963 0.86 0.822 0.912
3791.159 0.969 0.968 0.985 0.922 0.896 0.912 0.803 0.808 0.912 0.886
3810.452 0.851 0.937 0.914 0.843 0.862 0.874 0.959 1.044 1.062 0.988
3829.746 0.939 0.922 0.971 1.045 1.003 0.917 0.955 0.957 0.914 0.968
3849.039 0.944 0.903 0.84 0.774 0.845 0.944 0.896 0.911 0.904 0.929
3868.333 0.971 0.903 0.907 0.895 0.945 0.98 0.902 0.911 1.014 0.959
3887.626 0.846 0.914 0.942 0.896 0.918 0.974 1.071 1.125 1.053 1.07
3906.920 1.146 1.035 0.92 0.89 0.863 0.935 0.969 1.04 1.127 1.048
3926.213 0.982 1.063 1.053 0.991 1.017 0.933 0.913 0.948 0.904 0.91
3945.506 1.024 1.06 1.105 1.042 0.911 0.948 0.987 1.047 0.986 0.92
3964.800 1.033 1.072 0.967 0.92 0.965 1.05 1.06 1.004 1.013 1.053
3984.093 1.157 1.194 1.136 1.069 1.025 1.099 1.162 1.076 1.036
##END=
