##TITLE=Allyldiethyl amine
##JCAMP-DX=4.24
##DATA TYPE=INFRARED SPECTRUM
##ORIGIN=NIST Mass Spectrometry Data Center
##OWNER=NIST Standard Reference Data Program
Collection (C) 2018 copyright by the U.S. Secretary of Commerce
on behalf of the United States of America. All rights reserved.
##CAS REGISTRY NO=5666-17-1
##MOLFORM=C 7 H 15 N
##$NIST SOURCE=MSDC-IR
##SPECTROMETER/DATA SYSTEM=HP-GC/MS/IRD
##STATE=gas
##XUNITS=1/CM
##YUNITS=ABSORBANCE
##XFACTOR=1.0
##YFACTOR=0.000005300
##DELTAX=4.0
##FIRSTX=550.0
##LASTX=3846.0
##FIRSTY=0.000371
##MAXX=3846
##MINX=550
##MAXY=0.053
##MINY=0
##NPOINTS=825
##XYDATA=(X++(Y..Y))
550.0 70 136 137 145 135 108 97 82 58 66
590.0 77 91 118 150 169 176 192 210 200 189
630.0 174 142 120 111 100 89 81 55 38 35
670.0 28 20 17 10 6 3 3 9 7 16
710.0 27 22 20 22 30 39 57 71 91 135
750.0 185 250 329 407 482 555 602 596 569 552
790.0 535 521 516 508 503 487 455 412 354 298
830.0 255 226 212 197 187 185 184 185 198 214
870.0 240 281 335 398 474 584 748 994 1353 1828
910.0 2334 2709 2858 2801 2502 2008 1526 1170 944 840
950.0 812 815 841 890 938 1001 1088 1207 1375 1565
990.0 1695 1742 1706 1583 1391 1182 1005 902 894 949
1030.0 1047 1192 1375 1591 1829 2078 2324 2535 2696 2805
1070.0 2839 2793 2718 2626 2529 2430 2316 2178 2025 1866
1110.0 1702 1537 1379 1245 1138 1052 992 959 968 1018
1150.0 1103 1226 1389 1568 1734 1866 1943 1983 2009 2051
1190.0 2151 2272 2337 2313 2174 1928 1611 1277 998 798
1230.0 667 590 559 571 612 668 740 813 887 956
1270.0 1030 1118 1227 1347 1460 1547 1591 1583 1546 1500
1310.0 1455 1446 1493 1570 1661 1767 1884 1991 2068 2116
1350.0 2143 2157 2166 2208 2315 2478 2675 2831 2889 2804
1390.0 2565 2217 1842 1533 1332 1239 1192 1157 1132 1105
1430.0 1081 1069 1113 1211 1312 1400 1458 1492 1483 1404
1470.0 1295 1173 1013 831 673 539 425 347 292 248
1510.0 221 209 197 189 182 176 171 165 156 148
1550.0 142 135 123 119 121 120 116 109 112 115
1590.0 116 122 133 148 162 180 208 249 313 398
1630.0 493 578 628 634 585 490 366 251 173 130
1670.0 103 86 80 69 60 57 49 42 40 39
1710.0 33 27 20 20 24 22 15 11 10 11
1750.0 11 13 17 21 21 19 21 23 28 32
1790.0 35 41 47 56 69 82 101 129 160 196
1830.0 239 273 289 290 275 240 195 152 117 88
1870.0 70 60 56 54 49 43 39 38 37 30
1910.0 28 26 23 24 25 24 27 31 31 32
1950.0 33 36 37 41 46 49 47 42 41 38
1990.0 34 28 25 16 14 13 5 1 0 3
2030.0 3 3 4 5 7 6 5 6 8 10
2070.0 13 14 14 11 9 9 12 10 10 16
2110.0 13 8 8 9 7 8 8 10 13 14
2150.0 14 11 9 14 13 11 16 17 16 16
2190.0 16 14 13 12 12 7 2 6 7 9
2230.0 9 11 16 18 19 23 22 22 21 19
2270.0 18 19 18 17 17 15 12 10 10 11
2310.0 11 9 8 10 10 11 13 18 19 22
2350.0 24 28 33 33 34 36 37 38 42 42
2390.0 44 46 46 46 48 49 49 50 52 57
2430.0 56 47 45 48 48 48 41 34 36 36
2470.0 42 40 34 37 35 36 37 42 51 55
2510.0 58 62 64 71 78 79 80 91 105 113
2550.0 122 131 142 150 156 164 173 175 177 185
2590.0 189 190 197 202 209 216 223 235 249 270
2630.0 290 307 325 347 368 384 404 424 448 477
2670.0 504 536 570 605 640 685 729 772 820 871
2710.0 916 960 1002 1041 1085 1132 1174 1229 1301 1388
2750.0 1496 1624 1772 1938 2119 2332 2607 2956 3386 3889
2790.0 4442 5006 5533 5940 6148 6168 6045 5781 5390 4920
2830.0 4423 3943 3503 3120 2813 2594 2456 2413 2474 2630
2870.0 2870 3151 3412 3609 3737 3799 3816 3829 3873 3973
2910.0 4140 4383 4704 5119 5611 6118 6531 6754 6767 6624
2950.0 6419 6287 6456 7092 8105 9169 9892 10000 9393 8146
2990.0 6594 5085 3850 2981 2433 2091 1859 1666 1472 1284
3030.0 1125 1007 929 883 866 877 910 968 1052 1167
3070.0 1316 1487 1648 1762 1757 1580 1354 1116 845 634
3110.0 497 410 351 307 284 276 267 255 242 233
3150.0 227 217 203 194 187 179 168 156 139 123
3190.0 117 109 100 98 95 90 86 79 75 76
3230.0 76 75 71 68 68 68 61 51 45 48
3270.0 57 57 49 48 46 40 37 34 33 35
3310.0 33 29 35 33 33 36 34 29 34 41
3350.0 36 34 33 29 31 26 22 29 32 35
3390.0 29 20 16 15 17 23 29 26 26 22
3430.0 24 30 31 33 30 29 31 31 28 25
3470.0 27 29 16 9 18 16 28 39 26 19
3510.0 17 21 25 24 19 24 26 21 19 18
3550.0 18 25 24 20 10 3 18 33 36 27
3590.0 30 29 24 31 37 39 36 29 25 26
3630.0 27 29 33 25 21 25 29 36 39 39
3670.0 36 41 49 43 41 51 50 46 50 50
3710.0 47 48 42 41 43 36 38 45 48 45
3750.0 40 39 41 38 42 49 49 49 48 55
3790.0 57 49 53 53 39 42 51 52 51 56
3830.0 57 58 65 66 73
##END=
