##TITLE=1,4 Octadiene
##JCAMP-DX=4.24
##DATA TYPE=INFRARED SPECTRUM
##ORIGIN=NIST Mass Spectrometry Data Center
##OWNER=NIST Standard Reference Data Program
Collection (C) 2018 copyright by the U.S. Secretary of Commerce
on behalf of the United States of America. All rights reserved.
##CAS REGISTRY NO=5675-25-2
##MOLFORM=C 8 H 14
##$NIST SOURCE=MSDC-IR
##SPECTROMETER/DATA SYSTEM=HP-GC/MS/IRD
##STATE=gas
##XUNITS=1/CM
##YUNITS=ABSORBANCE
##XFACTOR=1.0
##YFACTOR=0.000002600
##DELTAX=4.0
##FIRSTX=550.0
##LASTX=3846.0
##FIRSTY=0.000944
##MAXX=3846
##MINX=550
##MAXY=0.026
##MINY=0
##NPOINTS=825
##XYDATA=(X++(Y..Y))
550.0 363 210 154 236 279 285 279 293 318 387
590.0 400 349 374 417 433 470 495 468 464 492
630.0 508 490 466 461 459 441 441 459 482 551
670.0 612 676 776 862 1000 1172 1326 1482 1615 1701
710.0 1727 1690 1597 1455 1308 1155 989 841 710 615
750.0 536 458 398 336 293 266 214 164 128 99
790.0 75 62 53 53 61 81 88 100 116 121
830.0 163 223 276 340 393 444 510 579 668 762
870.0 849 963 1108 1283 1490 1739 2046 2383 2774 3173
910.0 3400 3377 3157 2768 2312 1897 1563 1318 1135 1009
950.0 919 856 827 814 838 908 1011 1140 1279 1382
990.0 1435 1419 1351 1241 1113 1007 904 796 718 661
1030.0 595 556 533 514 504 482 449 414 419 447
1070.0 468 490 505 494 472 437 396 363 327 298
1110.0 283 266 244 225 214 193 158 126 83 56
1150.0 39 30 32 23 7 0 12 22 17 29
1190.0 49 51 56 77 95 100 114 135 137 135
1230.0 133 139 147 168 213 261 334 438 526 582
1270.0 623 625 581 511 436 372 334 314 308 312
1310.0 315 326 340 359 395 439 448 419 394 364
1350.0 307 270 272 289 328 389 488 596 684 785
1390.0 902 978 1008 1034 1046 999 929 897 910 952
1430.0 1015 1084 1164 1242 1310 1359 1381 1388 1364 1281
1470.0 1160 1023 871 714 580 480 407 343 287 254
1510.0 231 206 181 170 160 148 143 152 153 140
1550.0 131 129 132 130 131 128 137 149 148 163
1590.0 192 226 260 304 370 457 568 715 912 1160
1630.0 1434 1640 1718 1688 1538 1284 1017 812 664 553
1670.0 467 409 361 324 298 265 239 221 202 173
1710.0 152 139 126 114 98 80 68 61 56 53
1750.0 44 42 44 38 41 49 52 51 60 69
1790.0 79 93 104 132 160 191 236 291 345 378
1830.0 397 390 362 317 264 221 195 176 155 139
1870.0 125 114 104 95 85 79 70 61 57 57
1910.0 65 65 61 64 66 57 53 54 55 61
1950.0 63 66 75 81 82 95 96 86 87 83
1990.0 75 74 72 63 63 65 58 62 66 67
2030.0 69 70 73 74 79 81 76 72 70 64
2070.0 60 61 61 62 61 62 65 64 62 53
2110.0 53 65 69 67 64 60 60 59 61 68
2150.0 68 69 71 67 63 62 65 69 70 71
2190.0 68 69 71 68 68 67 61 59 60 61
2230.0 64 70 70 64 62 62 59 55 52 59
2270.0 65 62 62 66 66 63 63 66 63 62
2310.0 69 71 70 72 70 72 71 68 71 70
2350.0 70 80 82 81 80 76 71 69 74 77
2390.0 75 75 77 74 71 72 67 65 73 80
2430.0 77 72 71 78 81 76 71 68 72 74
2470.0 69 69 69 71 78 82 82 80 77 83
2510.0 85 90 100 102 96 96 102 98 92 103
2550.0 108 105 102 104 106 106 108 111 106 104
2590.0 104 99 100 103 103 103 104 103 108 119
2630.0 118 115 123 124 120 134 142 141 154 161
2670.0 155 152 154 160 164 175 183 197 202 205
2710.0 220 231 234 235 237 249 257 251 253 265
2750.0 272 271 274 278 289 303 310 325 352 392
2790.0 426 452 489 533 583 648 723 805 913 1050
2830.0 1208 1378 1581 1818 2077 2363 2681 3039 3442 3903
2870.0 4359 4787 5129 5279 5288 5226 5125 5089 5172 5356
2910.0 5632 5989 6414 6916 7463 8017 8509 8809 8852 8749
2950.0 8644 8634 8908 9519 10000 9886 9355 8467 7157 5861
2990.0 5012 4591 4507 4713 5071 5412 5603 5561 5251 4708
3030.0 4021 3316 2690 2190 1834 1626 1538 1526 1570 1629
3070.0 1722 1885 2111 2287 2283 2193 2029 1687 1305 1019
3110.0 827 703 601 525 479 439 401 361 328 308
3150.0 291 282 259 244 242 226 205 201 198 191
3190.0 190 181 175 175 160 141 137 139 137 129
3230.0 128 125 116 119 130 136 129 126 125 114
3270.0 114 116 109 105 100 105 107 100 103 104
3310.0 86 79 87 87 89 93 95 84 81 88
3350.0 90 91 86 82 88 88 80 79 71 74
3390.0 78 63 61 68 78 90 79 75 72 66
3430.0 63 60 66 71 69 60 64 77 67 64
3470.0 73 69 65 71 77 79 77 66 60 65
3510.0 71 65 60 63 70 75 74 63 62 68
3550.0 65 68 75 67 59 57 55 69 73 74
3590.0 73 63 63 63 61 68 70 68 68 67
3630.0 64 65 69 65 65 69 77 73 76 73
3670.0 73 77 72 81 92 79 61 66 75 78
3710.0 86 82 78 79 70 65 70 82 89 84
3750.0 93 86 85 77 64 69 67 66 82 82
3790.0 77 74 62 68 74 77 83 78 73 72
3830.0 74 83 83 79 68
##END=
