##TITLE=1-Phenyl-1,2,3-trobromopropane
##JCAMP-DX=4.24
##DATA TYPE=INFRARED SPECTRUM
##ORIGIN=EPA-IR VAPOR PHASE LIBRARY
##OWNER=SRD/NIST
Collection (C) 2018 copyright by the U.S. Secretary of Commerce
on behalf of the United States of America. All rights reserved.
##CAS REGISTRY NO=56762-23-3
##MOLFORM=C 9 H 9 Br 3
##$NIST SOURCE=MSDC-IR
##STATE=gas
##XUNITS=1/CM
##YUNITS=ABSORBANCE
##XFACTOR=1.
##YFACTOR=0.001
##DELTAX=1.92934
##FIRSTX=549.9
##LASTX=3999.5
##FIRSTY=6.038
##MAXX=3999.53
##MINX=549.863
##MAXY=0.029528
##MINY=0
##NPOINTS=1789
##XYDATA=(X++(Y..Y))
549.863 6.038 7.358 8.878 10.258 11.878 13.228 13.988 14.158 13.958 13.808
569.156 13.368 12.878 12.328 11.498 10.518 9.408 8.398 7.728 7.408 7.448
588.450 7.618 7.648 7.438 7.138 6.748 6.128 5.478 5.258 5.308 5.608
607.743 6.228 7.098 7.878 8.248 8.508 8.618 8.298 7.818 7.478 7.178
627.037 7.028 7.028 7.238 7.578 7.858 7.998 7.848 7.508 7.028 6.388
646.330 5.838 5.498 5.268 5.208 5.218 5.228 5.248 5.358 5.558 5.698
665.624 6.018 6.508 7.088 7.738 8.458 9.148 9.748 10.348 11.168 12.398
684.917 14.418 17.268 20.588 24.018 27.078 29.128 29.528 28.108 25.348 21.958
704.210 18.498 15.278 12.588 10.478 9.028 8.118 7.588 7.298 7.268 7.468
723.504 7.738 7.928 8.058 8.108 8.148 8.298 8.518 8.808 9.278 9.918
742.797 10.708 11.548 12.328 12.948 13.108 12.748 11.998 11.088 10.048 9.058
762.091 8.178 7.248 6.418 5.678 4.878 4.218 3.668 3.208 2.888 2.608
781.384 2.448 2.388 2.318 2.308 2.408 2.498 2.598 2.728 2.748 2.828
800.678 2.938 2.908 2.878 2.978 3.108 3.228 3.458 3.848 4.228 4.548
819.971 4.858 4.968 4.878 4.708 4.338 3.838 3.318 2.808 2.368 2.128
839.264 1.938 1.748 1.648 1.588 1.598 1.568 1.578 1.668 1.728 1.818
858.558 1.878 1.908 1.998 2.208 2.508 2.768 3.048 3.338 3.628 3.828
877.851 3.888 3.788 3.608 3.348 2.978 2.618 2.298 1.998 1.788 1.618
897.145 1.4307 1.2989 1.2552 1.1744 1.1178 1.128 1.1462 1.1815 1.2153 1.24
916.438 1.1916 1.1211 1.0964 1.0238 1.0135 1.1088 1.0909 1.0529 1.1116 1.1568
935.732 1.217 1.2886 1.3592 1.4031 1.4714 1.578 1.598 1.648 1.748 1.848
955.025 1.968 2.048 2.188 2.268 2.238 2.208 2.178 2.158 2.188 2.338
974.318 2.498 2.658 2.788 2.788 2.648 2.398 2.158 1.888 1.638 1.508
993.612 1.4593 1.498 1.578 1.678 1.768 1.738 1.618 1.508 1.3521 1.2253
1012.905 1.1931 1.1882 1.2108 1.2911 1.498 1.878 2.338 2.818 3.238 3.428
1032.199 3.278 2.968 2.518 1.928 1.4579 1.1988 1.0977 1.0573 1.0206 1.0452
1051.492 1.1054 1.171 1.2816 1.3903 1.508 1.678 1.918 2.188 2.448 2.658
1070.786 2.788 2.888 2.918 2.818 2.608 2.328 2.028 1.748 1.518 1.379
1090.079 1.3313 1.3809 1.4521 1.508 1.568 1.668 1.788 1.838 1.878 1.888
1109.372 1.948 2.028 2.138 2.338 2.698 3.218 3.808 4.568 5.458 6.288
1128.666 7.038 7.668 8.118 8.358 8.388 8.168 7.728 7.168 6.568 5.988
1147.959 5.528 5.148 4.808 4.548 4.278 4.028 3.898 3.848 3.828 3.928
1167.253 4.108 4.298 4.578 4.848 5.018 5.218 5.518 5.868 6.158 6.348
1186.546 6.558 6.688 6.688 6.728 6.798 6.828 6.928 7.158 7.468 7.858
1205.840 8.278 8.778 9.328 9.758 10.068 10.188 10.028 9.738 9.398 9.078
1225.133 8.908 8.868 8.828 8.738 8.548 8.128 7.508 6.798 6.078 5.388
1244.426 4.828 4.508 4.298 4.238 4.398 4.758 5.298 5.958 6.728 7.368
1263.720 7.768 7.868 7.628 7.188 6.618 6.018 5.538 5.108 4.728 4.458
1283.013 4.258 4.008 3.778 3.598 3.378 3.188 3.048 2.918 2.838 2.778
1302.307 2.788 2.898 3.008 3.148 3.258 3.308 3.328 3.328 3.388 3.438
1321.600 3.538 3.618 3.588 3.538 3.468 3.348 3.178 3.078 3.018 2.958
1340.894 2.918 2.808 2.668 2.568 2.408 2.278 2.228 2.208 2.178 2.078
1360.187 2.008 1.908 1.738 1.558 1.4101 1.3596 1.3652 1.3692 1.3543 1.2852
1379.480 1.2204 1.1849 1.1444 1.153 1.0973 1.0256 1.0117 1.0012 1.0015 1.0002
1398.774 1.0085 1.046 1.1369 1.2606 1.361 1.498 1.778 2.108 2.578 3.328
1418.067 4.308 5.368 6.248 6.848 7.048 7.038 6.968 6.868 6.798 6.638
1437.361 6.208 5.608 5.068 4.778 4.948 5.638 6.538 7.298 7.778 7.778
1456.654 7.118 5.908 4.578 3.448 2.638 2.078 1.728 1.548 1.548 1.588
1475.948 1.638 1.728 1.918 2.258 2.768 3.428 4.218 5.088 5.878 6.478
1495.241 6.688 6.428 5.828 4.968 3.918 2.958 2.248 1.758 1.4336 1.1729
1514.534 1.0248 0.9916 0.9466 0.9278 0.9708 0.946 0.872 0.865 0.8539 0.8082
1533.828 0.7528 0.6711 0.6338 0.6027 0.5797 0.6063 0.56332 0.52599 0.52489 0.47291
1553.121 0.46992 0.49422 0.53301 0.5927 0.55873 0.56305 0.6411 0.686 0.6974 0.705
1572.415 0.7639 0.8437 0.9359 1.0728 1.2117 1.3393 1.4698 1.628 1.748 1.818
1591.708 1.848 1.918 1.978 1.988 1.958 1.788 1.598 1.4185 1.2406 1.0592
1611.002 0.8824 0.7338 0.6396 0.5989 0.5598 0.56677 0.57761 0.54354 0.478792 0.4186
1630.295 0.373 0.338 0.3869 0.4666 0.4531 0.4171 0.438 0.4567 0.4584 0.486622
1649.588 0.50957 0.53081 0.52869 0.54626 0.6108 0.6503 0.6871 0.7045 0.7304 0.7474
1668.882 0.7283 0.6991 0.6828 0.6725 0.649 0.6188 0.5433 0.48373 0.4617 0.4503
1688.175 0.4465 0.459 0.485422 0.50965 0.457 0.4046 0.4498 0.4529 0.4115 0.388
1707.469 0.4171 0.4197 0.394 0.4347 0.4628 0.4671 0.50669 0.52675 0.53564 0.56992
1726.762 0.5838 0.56907 0.6271 0.7281 0.7685 0.749 0.745 0.7664 0.7355 0.7172
1746.056 0.6849 0.672 0.7001 0.6877 0.6453 0.57297 0.51904 0.51968 0.52857 0.53608
1765.349 0.55275 0.57135 0.6088 0.6237 0.6707 0.7113 0.7647 0.8909 0.9445 0.9795
1784.642 1.0625 1.1563 1.3031 1.4516 1.518 1.548 1.4737 1.362 1.2846 1.1405
1803.936 0.9704 0.8808 0.8238 0.7363 0.718 0.6774 0.6415 0.6472 0.598 0.56374
1823.229 0.53104 0.480671 0.4305 0.4171 0.3975 0.3878 0.4119 0.4132 0.4169 0.4362
1842.523 0.432 0.4203 0.432 0.4553 0.4676 0.481464 0.53966 0.5972 0.6174 0.6473
1861.816 0.736 0.8115 0.8782 0.9453 1.0002 1.0149 1.0167 1.0083 0.9718 0.9949
1881.110 1.0293 1.0051 0.9667 0.9904 0.9894 0.9541 0.9001 0.8129 0.7632 0.719
1900.403 0.6303 0.5815 0.55193 0.52835 0.52295 0.49801 0.49125 0.4648 0.4398 0.4636
1919.696 0.487283 0.4666 0.486782 0.54582 0.5915 0.678 0.8148 0.9386 1.0517 1.1788
1938.990 1.2534 1.304 1.3351 1.3393 1.3102 1.2684 1.2286 1.2077 1.2136 1.1973
1958.283 1.2247 1.2388 1.1516 1.0612 0.9368 0.7731 0.6341 0.51689 0.4341 0.369
1977.577 0.361 0.3944 0.432 0.4032 0.343 0.322 0.295 0.271 0.274 0.251
1996.870 0.246 0.275 0.245 0.232 0.249 0.248 0.263 0.278 0.279 0.252
2016.164 0.213 0.241 0.265 0.259 0.278 0.273 0.253 0.227 0.208 0.218
2035.457 0.243 0.258 0.201 0.192 0.235 0.26 0.223 0.206 0.223 0.18
2054.750 0.188 0.217 0.231 0.243 0.216 0.212 0.227 0.212 0.2 0.194
2074.044 0.195 0.185 0.148 0.152 0.189 0.203 0.203 0.225 0.248 0.225
2093.337 0.199 0.191 0.196 0.213 0.225 0.221 0.235 0.228 0.205 0.181
2112.631 0.154 0.205 0.216 0.174 0.181 0.179 0.196 0.217 0.203 0.208
2131.924 0.204 0.203 0.215 0.18 0.144 0.15 0.211 0.243 0.199 0.166
2151.218 0.182 0.21 0.209 0.214 0.227 0.232 0.228 0.245 0.245 0.213
2170.511 0.175 0.178 0.226 0.22 0.208 0.242 0.254 0.248 0.25 0.226
2189.804 0.215 0.236 0.232 0.265 0.3 0.253 0.231 0.248 0.245 0.214
2209.098 0.197 0.2 0.196 0.222 0.267 0.274 0.265 0.269 0.268 0.261
2228.391 0.257 0.264 0.282 0.268 0.278 0.3 0.276 0.271 0.28 0.291
2247.685 0.296 0.267 0.253 0.297 0.33 0.35 0.338 0.332 0.341 0.317
2266.978 0.326 0.345 0.348 0.321 0.307 0.308 0.344 0.4209 0.4155 0.4062
2286.272 0.4275 0.4055 0.4061 0.3921 0.3999 0.4468 0.4366 0.4247 0.4212 0.4348
2305.565 0.46932 0.51073 0.52677 0.53551 0.55377 0.5797 0.6257 0.6063 0.55656 0.5156
2324.858 0.50681 0.48904 0.4736 0.5254 0.53969 0.51698 0.5473 0.593 0.56063 0.478792
2344.152 0.47046 0.51606 0.51564 0.51813 0.49887 0.50303 0.51837 0.4641 0.4575 0.4735
2363.445 0.4626 0.4343 0.4301 0.4376 0.4404 0.4251 0.4227 0.4424 0.4181 0.4136
2382.739 0.4271 0.399 0.33 0.324 0.367 0.363 0.355 0.3782 0.359 0.36
2402.032 0.372 0.344 0.344 0.33 0.357 0.376 0.362 0.3831 0.3871 0.356
2421.326 0.326 0.362 0.377 0.334 0.376 0.3995 0.363 0.323 0.341 0.3805
2440.619 0.342 0.345 0.348 0.321 0.329 0.377 0.3797 0.373 0.4056 0.3978
2459.912 0.3901 0.373 0.346 0.35 0.341 0.371 0.3974 0.357 0.338 0.328
2479.206 0.323 0.356 0.373 0.37 0.377 0.348 0.346 0.372 0.366 0.33
2498.499 0.36 0.362 0.306 0.296 0.323 0.346 0.303 0.323 0.347 0.332
2517.793 0.349 0.349 0.333 0.282 0.256 0.307 0.329 0.314 0.272 0.272
2537.086 0.275 0.258 0.305 0.344 0.323 0.291 0.277 0.28 0.305 0.339
2556.380 0.361 0.313 0.278 0.303 0.332 0.305 0.274 0.329 0.336 0.29
2575.673 0.254 0.233 0.294 0.33 0.297 0.284 0.265 0.278 0.295 0.292
2594.966 0.31 0.326 0.37 0.375 0.366 0.348 0.347 0.365 0.316 0.301
2614.260 0.348 0.345 0.284 0.303 0.312 0.258 0.265 0.327 0.374 0.377
2633.553 0.3834 0.3801 0.359 0.355 0.354 0.339 0.326 0.343 0.342 0.322
2652.847 0.325 0.291 0.294 0.3857 0.4126 0.356 0.287 0.281 0.278 0.289
2672.140 0.324 0.316 0.329 0.354 0.356 0.329 0.307 0.278 0.271 0.301
2691.434 0.287 0.31 0.335 0.301 0.287 0.324 0.347 0.319 0.247 0.207
2710.727 0.225 0.234 0.255 0.247 0.228 0.208 0.245 0.291 0.245 0.281
2730.020 0.342 0.286 0.258 0.215 0.169 0.238 0.221 0.188 0.239 0.287
2749.314 0.314 0.265 0.212 0.215 0.25 0.271 0.309 0.274 0.243 0.292
2768.607 0.328 0.309 0.289 0.374 0.366 0.313 0.358 0.368 0.335 0.311
2787.901 0.318 0.304 0.315 0.338 0.345 0.367 0.343 0.309 0.25 0.289
2807.194 0.352 0.347 0.311 0.302 0.4017 0.354 0.247 0.319 0.325 0.349
2826.488 0.4259 0.4416 0.4502 0.422 0.4276 0.485826 0.52206 0.50488 0.47101 0.50615
2845.781 0.486351 0.358 0.327 0.352 0.4148 0.345 0.33 0.4163 0.3971 0.3989
2865.074 0.4084 0.3815 0.329 0.334 0.381 0.365 0.359 0.37 0.369 0.4411
2884.368 0.47264 0.46986 0.4357 0.359 0.4109 0.4273 0.4135 0.50624 0.51103 0.4303
2903.661 0.4006 0.4191 0.4348 0.4669 0.50847 0.5835 0.49168 0.394 0.4073 0.36
2922.955 0.4105 0.48172 0.49458 0.49662 0.53828 0.56388 0.6401 0.7522 0.8042 0.883
2942.248 0.9357 0.9436 0.8977 0.8848 1.0176 1.0834 1.1102 1.2556 1.518 1.708
2961.542 1.758 1.878 2.058 2.278 2.528 2.668 2.648 2.638 2.538 2.478
2980.835 2.348 2.158 2.008 1.858 1.868 1.738 1.598 1.4628 1.355 1.3574
3000.128 1.2348 1.1416 1.1221 1.2851 1.4515 1.628 1.898 2.068 2.178 2.438
3019.422 2.818 3.388 4.118 4.838 5.808 6.828 7.738 8.598 9.168 9.318
3038.715 9.178 8.748 8.018 7.188 6.348 5.608 5.058 4.838 4.978 5.278
3058.009 5.708 6.348 7.228 8.248 9.478 10.778 11.968 12.928 13.288 12.958
3077.302 12.148 10.978 9.508 8.178 7.378 6.998 6.788 6.638 6.448 6.188
3096.596 5.678 5.128 4.598 4.118 3.818 3.518 3.188 2.948 2.798 2.488
3115.889 2.068 1.738 1.558 1.3279 1.0219 0.9466 0.8453 0.7355 0.6615 0.6117
3135.182 0.51587 0.339 0.379 0.47481 0.487223 0.4516 0.51122 0.56494 0.52608 0.481732
3154.476 0.4018 0.3934 0.4374 0.355 0.291 0.35 0.47034 0.477264 0.377 0.365
3173.769 0.332 0.301 0.322 0.332 0.275 0.215 0.15 0.123 0.172 0.229
3193.063 0.164 0.169 0.193 0.071 0.09 0.199 0.195 0.225 0.298 0.234
3212.356 0.17 0.17 0.154 0.223 0.323 0.252 0.191 0.223 0.314 0.254
3231.650 0.259 0.324 0.288 0.263 0.193 0.133 0.147 0.271 0.261 0.258
3250.943 0.266 0.264 0.182 0.12 0.11 0.029 0.072 0.117 0.104 0.187
3270.236 0.192 0.064 0.177 0.301 0.297 0.292 0.245 0.239 0.197 0.263
3289.530 0.229 0.127 0.139 0.131 0.139 0.144 0.134 0.182 0.227 0.151
3308.823 0.128 0.167 0.171 0.157 0.238 0.246 0.184 0.136 0.064 0.023
3328.117 0.069 0.177 0.199 0.124 0.129 0.207 0.261 0.285 0.231 0.146
3347.410 0.114 0.104 0.12 0.202 0.144 0.02 0.021 0.101 0.159 0.089
3366.704 0.079 0.187 0.211 0.082 0.065 0.11 0.13 0.23 0.291 0.166
3385.997 0.067 0.171 0.183 0.167 0.161 0.106 0.172 0.206 0.084 0.074
3405.290 0.134 0.089 0.059 0.169 0.272 0.301 0.207 0.143 0.098 0.089
3424.584 0.231 0.221 0.115 0.036 0.02 0.042 0.17 0.205 0.162 0.139
3443.877 0.049 0.024 0.074 0.097 0.059 0.048 0.03 0.085 0.111 0.168
3463.171 0.213 0.186 0.169 0.2 0.303 0.189 0.115 0.265 0.297 0.369
3482.464 0.325 0.205 0.247 0.206 0.146 0.164 0.178 0.21 0.175 0.218
3501.758 0.206 0.068 0.038 0.177 0.227 0.084 0.071 0.104 0.177 0.179
3521.051 0.176 0.268 0.308 0.286 0.272 0.195 0.161 0.22 0.148 0.059
3540.344 0.085 0.065 0.171 0.263 0.105 0.073 0.139 0.104 0 0.076
3559.638 0.181 0.184 0.215 0.286 0.373 0.339 0.254 0.141 0.124 0.177
3578.931 0.15 0.284 0.3837 0.266 0.253 0.266 0.214 0.212 0.225 0.318
3598.225 0.4074 0.349 0.228 0.181 0.238 0.315 0.311 0.288 0.256 0.306
3617.518 0.351 0.263 0.257 0.351 0.247 0.218 0.254 0.159 0.176 0.18
3636.812 0.25 0.306 0.354 0.321 0.235 0.298 0.3894 0.345 0.342 0.3976
3656.105 0.3812 0.342 0.366 0.3993 0.341 0.331 0.282 0.273 0.348 0.347
3675.398 0.292 0.28 0.344 0.346 0.302 0.299 0.348 0.33 0.284 0.288
3694.692 0.371 0.365 0.294 0.335 0.3906 0.34 0.254 0.311 0.271 0.257
3713.985 0.263 0.282 0.289 0.305 0.3932 0.313 0.318 0.341 0.291 0.354
3733.279 0.335 0.304 0.296 0.203 0.191 0.319 0.3788 0.316 0.263 0.242
3752.572 0.185 0.11 0.187 0.203 0.189 0.24 0.204 0.194 0.164 0.184
3771.866 0.24 0.294 0.316 0.256 0.244 0.228 0.225 0.197 0.211 0.204
3791.159 0.225 0.265 0.241 0.223 0.201 0.249 0.278 0.294 0.222 0.237
3810.452 0.231 0.147 0.182 0.209 0.231 0.289 0.288 0.253 0.311 0.277
3829.746 0.246 0.295 0.32 0.274 0.2 0.206 0.272 0.314 0.262 0.202
3849.039 0.271 0.35 0.318 0.219 0.202 0.203 0.19 0.264 0.269 0.276
3868.333 0.343 0.325 0.265 0.288 0.305 0.273 0.338 0.349 0.309 0.301
3887.626 0.306 0.4242 0.3969 0.235 0.247 0.352 0.307 0.319 0.4079 0.4349
3906.920 0.3844 0.293 0.257 0.238 0.361 0.423 0.348 0.253 0.305 0.329
3926.213 0.183 0.185 0.241 0.195 0.168 0.259 0.305 0.301 0.309 0.208
3945.506 0.177 0.269 0.269 0.183 0.18 0.236 0.264 0.313 0.273 0.253
3964.800 0.266 0.263 0.273 0.178 0.106 0.191 0.233 0.227 0.305 0.274
3984.093 0.234 0.276 0.305 0.22 0.179 0.295 0.326 0.329 0.289
##END=
