##TITLE=Diethylphthalimidomalonate
##JCAMP-DX=4.24
##DATA TYPE=INFRARED SPECTRUM
##ORIGIN=EPA-IR VAPOR PHASE LIBRARY
##OWNER=SRD/NIST
Collection (C) 2018 copyright by the U.S. Secretary of Commerce
on behalf of the United States of America. All rights reserved.
##CAS REGISTRY NO=5680-61-5
##MOLFORM=C 15 H 15 N O 6
##$NIST SOURCE=MSDC-IR
##STATE=gas
##XUNITS=1/CM
##YUNITS=ABSORBANCE
##XFACTOR=1.
##YFACTOR=0.001
##DELTAX=3.85796
##FIRSTX=501.5
##LASTX=4000.7
##FIRSTY=0.7849
##MAXX=4000.7
##MINX=501.534
##MAXY=0.272769
##MINY=0
##NPOINTS=908
##XYDATA=(X++(Y..Y))
501.534 0.7849 1.0473 1.589 2.679 4.429 6.119 7.389 7.629 7.099 6.849
540.114 7.139 7.659 8.099 8.309 7.969 6.989 5.679 4.419 3.359 2.609
578.693 2.119 1.919 2.059 2.169 2.369 2.589 2.859 3.529 4.959 7.489
617.273 10.719 12.739 12.169 9.569 6.739 4.859 3.899 3.359 3.109 2.959
655.852 2.949 2.999 3.539 4.909 4.939 4.859 5.619 5.799 5.499 5.149
694.432 5.699 8.089 12.879 19.779 25.859 27.629 26.279 25.309 25.969 27.259
733.011 28.029 27.749 26.389 23.899 20.559 16.999 13.689 10.919 8.799 7.299
771.591 6.279 5.709 5.499 5.309 4.859 4.169 3.589 3.379 3.409 3.539
810.170 3.749 3.929 3.959 3.839 3.649 3.459 3.369 3.339 3.489 3.959
848.750 4.759 6.079 7.919 9.929 11.619 12.849 14.199 15.809 15.989 13.569
887.330 9.959 7.239 5.899 5.359 5.309 5.699 6.639 8.319 10.819 13.789
925.909 15.889 15.549 12.859 9.799 7.859 7.119 7.139 7.539 7.949 8.019
964.489 7.799 7.509 7.229 7.089 7.219 7.749 8.769 10.209 11.649 12.509
1003.068 12.929 14.169 16.989 20.779 25.229 31.009 38.819 48.279 57.339 62.739
1041.648 61.929 54.949 44.879 35.489 28.579 24.379 22.019 20.799 20.619 21.519
1080.227 23.629 26.789 29.999 32.949 36.539 41.689 48.039 53.509 55.409 51.509
1118.807 43.279 34.909 29.259 26.619 25.989 26.879 29.319 33.419 39.459 47.369
1157.387 56.179 64.769 72.359 78.439 82.459 84.109 83.319 80.389 75.829 70.209
1195.966 64.509 59.899 57.099 56.599 58.469 62.459 68.099 74.629 81.329 87.729
1234.546 93.469 98.269 101.699 102.739 100.299 94.579 87.349 80.579 75.559 72.139
1273.125 69.089 65.489 61.979 60.179 59.639 58.169 54.829 50.449 45.579 40.389
1311.705 35.539 32.009 30.329 30.189 30.719 31.409 32.979 36.689 41.899 45.569
1350.284 46.379 46.859 50.779 60.339 75.599 93.529 110.309 124.389 134.459 134.419
1388.864 118.489 92.039 65.979 47.519 36.429 30.099 26.599 24.549 22.989 21.119
1427.443 18.609 16.049 14.149 13.209 13.029 13.119 13.219 13.109 13.399 14.739
1466.023 17.149 18.989 17.939 14.749 11.569 9.159 7.529 6.489 5.709 5.129
1504.603 4.619 4.139 3.919 3.679 3.429 3.319 3.279 3.219 3.149 3.029
1543.182 2.959 2.949 2.929 2.859 2.789 2.939 3.149 3.299 3.429 3.609
1581.762 3.869 4.099 4.249 4.299 4.419 4.779 5.299 5.699 5.669 5.249
1620.341 4.749 4.279 3.969 3.739 3.569 3.529 3.419 3.339 3.349 3.519
1658.921 3.809 4.069 4.349 4.659 5.049 5.519 6.049 6.829 7.869 9.159
1697.500 10.849 13.289 16.499 20.519 25.139 30.589 37.709 48.369 66.899 101.189
1736.080 159.369 228.349 272.769 260.919 218.389 190.339 187.809 197.519 207.439 204.409
1774.659 174.709 130.489 96.359 80.219 73.519 66.889 56.569 44.369 34.079 26.699
1813.239 21.479 17.669 14.749 12.549 10.949 9.819 8.979 8.199 7.339 6.509
1851.819 5.799 5.269 4.899 4.649 4.479 4.399 4.299 4.119 3.949 3.819
1890.398 3.729 3.669 3.659 3.659 3.649 3.609 3.409 3.119 2.889 2.759
1928.978 2.769 2.899 3.039 3.009 2.749 2.409 2.109 1.999 2.059 2.209
1967.557 2.379 2.409 2.189 1.819 1.539 1.399 1.319 1.279 1.239 1.1693
2006.137 1.1078 1.0568 1.0203 1.0227 1.0535 1.0673 1.09 1.134 1.1644 1.179
2044.716 1.199 1.199 1.199 1.199 1.189 1.199 1.229 1.239 1.259 1.329
2083.296 1.369 1.399 1.429 1.439 1.419 1.419 1.449 1.499 1.589 1.689
2121.875 1.829 2.079 2.469 2.989 3.659 4.419 5.029 5.239 4.879 3.989
2160.455 2.969 2.169 1.649 1.339 1.164 1.0574 0.9972 0.9537 0.8982 0.8572
2199.035 0.8561 0.8763 0.8931 0.8951 0.905 0.9147 0.916 0.9232 0.9214 0.8968
2237.614 0.8918 0.906 0.9182 0.9453 0.9584 0.9672 1.0039 1.054 1.0888 1.1439
2276.194 1.229 1.319 1.479 1.709 1.939 2.229 2.599 2.989 3.429 3.899
2314.773 4.359 4.789 5.019 5.009 4.929 4.779 4.609 4.449 4.059 3.959
2353.353 4.759 5.709 6.249 6.349 5.969 5.229 4.209 3.109 2.149 1.499
2391.932 1.148 1.0081 0.9367 0.8752 0.8766 0.9059 0.9082 0.9205 0.9325 0.9155
2430.512 0.9315 0.9326 0.9328 0.9725 0.9923 1.0028 1.0231 1.0394 1.0428 1.062
2469.092 1.0791 1.0845 1.0574 1.0353 1.0456 1.0333 0.9963 0.9751 0.9314 0.8208
2507.671 0.7251 0.6631 0.6256 0.5855 0.5522 0.5434 0.5206 0.522 0.5258 0.5211
2546.251 0.5197 0.5057 0.5019 0.4977 0.4651 0.438 0.4307 0.4141 0.3971 0.3931
2584.830 0.3806 0.3588 0.3828 0.3705 0.3425 0.374 0.3901 0.434 0.4678 0.4769
2623.410 0.5092 0.5442 0.5522 0.565 0.5817 0.5711 0.5504 0.5034 0.484 0.4753
2661.989 0.4527 0.4644 0.5039 0.5338 0.5225 0.509 0.5426 0.5538 0.5672 0.6071
2700.569 0.5922 0.5397 0.4772 0.4275 0.3877 0.3924 0.451 0.5123 0.5349 0.5522
2739.148 0.5869 0.5482 0.5426 0.5966 0.6311 0.6747 0.7055 0.7665 0.8515 0.944
2777.728 1.0769 1.135 1.1169 1.1292 1.0978 1.0509 1.0487 1.0651 1.0932 1.1417
2816.308 1.209 1.269 1.369 1.479 1.519 1.579 1.639 1.729 1.849 2.009
2854.887 2.259 2.529 2.769 3.079 3.499 4.099 4.879 5.699 6.279 6.459
2893.467 6.449 6.649 7.219 8.059 8.939 9.699 10.189 10.419 10.789 11.709
2932.046 13.539 16.439 19.789 21.839 21.039 17.999 15.079 13.809 14.129 15.619
2970.626 17.869 20.689 24.459 29.239 32.699 31.689 26.989 22.219 18.819 16.169
3009.205 13.869 11.839 9.939 8.229 6.869 5.809 5.089 4.619 4.269 4.169
3047.785 4.249 4.489 4.979 5.629 6.009 5.749 5.189 5.059 5.599 6.569
3086.364 7.399 7.249 5.989 4.249 2.899 2.129 1.629 1.299 1.0876 0.9728
3124.944 0.9252 0.8668 0.8023 0.7613 0.763 0.765 0.7066 0.647 0.5865 0.5343
3163.524 0.508 0.498 0.483 0.4653 0.4788 0.498 0.4794 0.457 0.4764 0.4722
3202.103 0.4975 0.5714 0.5406 0.4759 0.4582 0.4005 0.3624 0.3464 0.3143 0.27236
3240.683 0.26232 0.24851 0.1671 0.1335 0.1215 0.0867 0.079 0.079 0.033 0.053
3279.262 0.0871 0.0946 0.1459 0.153 0.0919 0.06 0.062 0.068 0.0855 0.062
3317.842 0.073 0.0952 0.078 0.034 0.05 0.052 0.05 0.1102 0.1204 0.1432
3356.421 0.1317 0.0956 0.0936 0.075 0.1012 0.1348 0.1087 0.1231 0.1359 0.1021
3395.001 0.0984 0.1022 0.1068 0.1248 0.1346 0.1503 0.1541 0.19292 0.21766 0.21133
3433.580 0.25857 0.26341 0.2555 0.3013 0.3269 0.3868 0.4634 0.5356 0.6589 0.8089
3472.160 0.966 1.1344 1.269 1.379 1.469 1.549 1.819 2.139 2.499 2.909
3510.740 3.269 3.499 3.509 3.289 3.019 2.719 2.309 1.899 1.529 1.259
3549.319 1.1349 1.0562 0.9286 0.8452 0.754 0.6704 0.6945 0.7201 0.6532 0.5405
3587.899 0.4455 0.434 0.3947 0.3672 0.387 0.3319 0.24406 0.2664 0.2978 0.3382
3626.478 0.25224 0.183272 0.3237 0.3426 0.3222 0.20505 0.1525 0.24671 0.2808 0.2817
3665.058 0.3147 0.3497 0.2986 0.2821 0.3142 0.319 0.2681 0.3159 0.3391 0.2326
3703.637 0.181879 0.20235 0.1221 0.0977 0.1644 0.1288 0.1573 0.1501 0.1364 0.25214
3742.217 0.1615 0.022 0.03 0.0931 0.178565 0.19343 0.179548 0.17259 0.23526 0.22755
3780.797 0.23098 0.25906 0.23278 0.23313 0.182291 0.058 0.039 0.1622 0.1431 0.067
3819.376 0.1246 0.17323 0.178204 0.179654 0.149 0.1196 0.1086 0.1026 0.038 0
3857.956 0.048 0.071 0.0801 0.039 0.012 0.048 0.057 0.022 0.1049 0.151
3896.535 0.082 0.036 0.074 0.1604 0.16988 0.073 0.058 0.1071 0.0808 0.035
3935.115 0.1103 0.136 0.1392 0.22367 0.21374 0.1541 0.1655 0.20843 0.1963 0.20094
3973.694 0.22717 0.179827 0.19152 0.23369 0.19046 0.20172 0.19649 0.24365
##END=
