##TITLE=1,8-Dimethylnaphthalene
##JCAMP-DX=4.24
##DATA TYPE=INFRARED SPECTRUM
##ORIGIN=NIST Mass Spectrometry Data Center
##OWNER=NIST Standard Reference Data Program
Collection (C) 2018 copyright by the U.S. Secretary of Commerce
on behalf of the United States of America. All rights reserved.
##CAS REGISTRY NO=569-41-5
##MOLFORM=C 12 H 12
##$NIST SOURCE=MSDC-IR
##SPECTROMETER/DATA SYSTEM=HP-GC/MS/IRD
##STATE=gas
##XUNITS=1/CM
##YUNITS=ABSORBANCE
##XFACTOR=1.0
##YFACTOR=0.000001600
##DELTAX=4.0
##FIRSTX=550.0
##LASTX=3846.0
##FIRSTY=0.000610
##MAXX=3846
##MINX=550
##MAXY=0.016
##MINY=0
##NPOINTS=825
##XYDATA=(X++(Y..Y))
550.0 381 468 507 425 348 396 395 339 232 90
590.0 84 111 111 113 85 75 75 101 79 34
630.0 23 41 84 90 72 79 26 50 109 130
670.0 198 182 161 208 163 113 152 170 178 213
710.0 198 213 242 248 252 320 427 667 1197 2240
750.0 3825 5397 7416 10000 9220 6295 4719 3286 2121 1807
790.0 2202 3034 3996 5007 6427 6299 4757 3617 2452 1471
830.0 848 506 346 259 254 253 222 194 172 148
870.0 127 117 132 156 161 178 196 187 156 150
910.0 134 122 132 159 203 265 375 491 566 588
950.0 572 475 395 380 356 315 299 286 262 237
990.0 225 242 246 226 238 277 323 403 502 625
1030.0 800 1023 1257 1389 1333 1165 913 603 363 253
1070.0 234 244 231 205 202 213 230 311 479 665
1110.0 773 764 697 549 352 220 165 133 114 96
1150.0 94 145 227 339 373 347 359 308 214 184
1190.0 208 227 231 245 261 259 238 201 169 152
1230.0 167 180 220 334 508 709 846 875 843 721
1270.0 536 372 275 229 184 155 147 135 150 190
1310.0 207 232 252 266 271 255 266 276 282 338
1350.0 471 657 865 1027 1109 1152 1112 1023 982 978
1390.0 961 950 896 772 709 742 825 933 1071 1280
1430.0 1597 2010 2552 3060 3291 3293 3133 2815 2536 2398
1470.0 2148 1777 1530 1332 1190 1128 1149 1186 1176 1102
1510.0 992 852 710 580 496 449 399 375 385 425
1550.0 484 549 635 777 968 1212 1510 1824 2027 2095
1590.0 2028 1799 1474 1146 878 688 558 453 375 343
1630.0 319 284 264 261 259 253 261 270 265 255
1670.0 243 253 272 288 317 348 381 410 434 461
1710.0 470 424 342 267 206 174 147 126 127 140
1750.0 171 229 306 403 506 582 590 534 440 322
1790.0 234 173 135 122 118 111 114 136 180 236
1830.0 280 329 373 403 417 413 388 345 284 218
1870.0 165 128 106 103 112 147 191 260 371 512
1910.0 660 765 793 720 584 415 269 177 117 79
1950.0 61 57 55 58 54 46 43 45 42 32
1990.0 35 49 54 39 33 37 27 31 46 36
2030.0 25 20 28 37 32 31 29 21 22 33
2070.0 24 16 29 25 14 24 21 13 14 5
2110.0 0 7 9 12 13 10 15 19 20 27
2150.0 27 24 19 6 4 12 7 0 12 16
2190.0 13 16 19 21 22 19 11 21 32 29
2230.0 22 26 36 34 35 39 40 28 19 24
2270.0 23 22 24 23 21 30 29 21 30 36
2310.0 49 78 97 111 114 111 112 109 105 97
2350.0 82 68 60 63 65 69 68 63 69 75
2390.0 74 82 88 97 94 72 68 67 66 62
2430.0 65 67 68 71 60 47 47 54 48 52
2470.0 67 68 60 63 66 65 69 72 77 76
2510.0 61 50 52 56 61 63 65 60 56 55
2550.0 55 48 45 44 38 42 44 36 36 46
2590.0 49 55 66 71 77 73 65 61 65 85
2630.0 78 55 61 75 73 76 94 103 102 94
2670.0 83 83 87 80 68 75 84 84 80 89
2710.0 89 84 95 117 147 173 206 245 263 269
2750.0 270 250 226 226 218 226 231 215 210 205
2790.0 208 214 219 236 254 248 253 290 318 331
2830.0 346 380 412 422 457 512 573 653 764 910
2870.0 1101 1305 1483 1614 1703 1704 1658 1623 1641 1748
2910.0 1950 2194 2464 2741 3013 3318 3701 4137 4480 4647
2950.0 4615 4418 4203 4181 4506 5156 5844 6299 6401 6082
2990.0 5277 4261 3527 3146 3010 3056 3209 3406 3652 3951
3030.0 4291 4692 5103 5465 5815 6234 6741 7108 7000 6411
3070.0 5468 4321 3319 2674 2325 2103 1889 1680 1450 1190
3110.0 945 734 576 470 386 326 287 270 264 250
3150.0 247 245 237 228 228 232 232 236 238 221
3190.0 217 217 215 233 238 228 207 185 149 123
3230.0 131 125 93 89 100 72 54 60 57 58
3270.0 65 48 53 73 66 63 74 82 76 70
3310.0 74 56 44 39 27 32 57 55 45 64
3350.0 60 53 35 25 49 63 58 48 50 47
3390.0 31 26 43 57 70 67 33 25 30 18
3430.0 38 53 32 27 41 55 45 28 11 4
3470.0 9 12 35 70 67 61 45 30 44 50
3510.0 57 65 67 46 31 50 39 30 56 47
3550.0 33 36 43 50 41 29 40 40 37 39
3590.0 46 45 46 59 52 48 46 33 41 48
3630.0 32 28 34 23 12 42 33 16 36 41
3670.0 28 21 33 36 42 44 35 50 56 37
3710.0 30 14 25 47 71 59 25 37 52 43
3750.0 53 42 52 62 46 54 73 61 46 68
3790.0 69 75 101 119 117 107 96 90 103 113
3830.0 113 103 116 136 126
##END=
