##TITLE=3,5-Dibromobenzyl bromide
##JCAMP-DX=4.24
##DATA TYPE=INFRARED SPECTRUM
##ORIGIN=EPA-IR VAPOR PHASE LIBRARY
##OWNER=SRD/NIST
Collection (C) 2018 copyright by the U.S. Secretary of Commerce
on behalf of the United States of America. All rights reserved.
##CAS REGISTRY NO=56908-88-4
##MOLFORM=C 7 H 5 Br 3
##$NIST SOURCE=MSDC-IR
##STATE=gas
##XUNITS=1/CM
##YUNITS=ABSORBANCE
##XFACTOR=1.
##YFACTOR=0.001
##DELTAX=1.92898
##FIRSTX=549.8
##LASTX=4000.7
##FIRSTY=1.6896
##MAXX=4000.7
##MINX=549.759
##MAXY=0.08206
##MINY=0
##NPOINTS=1790
##XYDATA=(X++(Y..Y))
549.759 1.6896 2.99 4.96 8.05 10.8 15.23 21.42 25.11 26.08 23.91
569.049 19.51 14.69 10.12 6.96 4.74 3.72 3.11 2.62 2.1558 1.9634
588.339 2.1756 1.6298 1.438 1.8729 1.5615 1.25645 1.5631 1.8451 1.8764 2.0732
607.628 2.25 1.8419 1.8369 2.33 2.52 2.39 2.26 3.06 4.1 5.16
626.918 6.26 7 7.92 8.74 9.52 9.86 9.46 9.01 7.98 7.14
646.208 6.79 6.21 5.94 6.69 6.75 6.04 6.09 6.57 7.39 7.79
665.498 8.49 10 11.5 13.95 16.75 19.83 23.6 26.63 29 30.19
684.787 28.15 23.62 19.22 15.18 11.61 9.46 8.14 6.85 6.24 5.55
704.077 4.31 3.96 4.33 4.27 4 3.47 2.83 2.77 3.46 3.86
723.367 3.84 4.62 5.73 6.17 7.56 10.64 14.62 20.31 28.1 38.04
742.657 49.19 59.11 64.77 64.45 58.92 48.3 34.85 23.33 16.05 12.28
761.947 9.51 7.22 5.89 4.37 3.35 3.38 2.97 2.57 1.9293 1.094
781.236 1.23868 1.5079 1.3938 1.6179 1.6675 1.4805 1.6632 1.8704 1.9304 1.5188
800.526 1.077 1.6644 1.8466 1.1505 0.971 1.6848 2.43 2.66 1.6089 0.814
819.816 1.31549 1.7531 2.71 3.22 3.24 3.54 4.03 4.58 5.03 5.27
839.106 5.96 6.8 7.32 8 9.05 10.96 12.9 14.96 17.18 18.98
858.395 19.7 19.35 18.98 17.91 15.69 13.07 11.12 9.64 7.95 6.91
877.685 7.08 7.54 7.96 7.96 8.29 8.61 7.6 7.21 7.27 6.83
896.975 6.24 5.75 5.35 4.57 4.1 3.71 3.05 3 2.75 2.45
916.265 2.76 2.97 2.7 2.48 2.56 2.33 1.5067 1.27952 1.3863 1.049
935.555 1.21421 1.3748 1.31091 1.31176 0.941 0.941 1.4217 1.31508 1.027 0.953
954.844 0.792 0.862 1.26124 1.1446 1.079 1.25793 1.24997 1.24386 1.2868 1.5301
974.134 1.3694 1.31043 1.27932 1.22296 1.8258 2.1737 1.8149 2.33 2.76 2.63
993.424 2.99 3.49 3.17 2.25 2.0197 1.9373 1.8677 1.8691 2.1481 2.31
1012.714 2.24 2.88 2.88 2.47 2.2094 1.5717 1.5063 1.086 0.988 0.705
1032.003 0 0.484 0.323 0.07 0.468 0.675 0.835 1.18 1.24622 1.059
1051.293 0.71 0.368 0.736 0.887 1.03 0.72 0.581 0.841 0.965 1.1706
1070.583 1.6006 1.4973 1.25946 1.7932 2.1245 2.99 3.69 3.23 3.55 5.85
1089.873 7.85 8.57 8.41 8.36 9.95 9.82 7.89 6.29 6.08 7.26
1109.163 6.11 5.76 7.38 7.26 6.4 6.18 5.63 4.74 3.48 3.24
1128.452 3.24 2.57 2.1994 0.824 0.593 1.6214 2.38 2.58 2.99 3.52
1147.742 3.02 2.26 1.9024 2.52 2.64 2.31 2.2149 2.82 3.15 2.9
1167.032 2.84 2.8 3.04 2.74 2.53 3.14 3.24 2.94 3.37 4.32
1186.322 4.16 4.6 5.03 5.22 7.03 7.77 8.72 9.93 12.24 15.1
1205.611 16.79 20.31 22.88 25.43 31.98 38.51 43.79 49.29 52.78 52.68
1224.901 49.95 43.84 37.74 33.5 30.5 28.58 25.3 22.2 19.94 17.14
1244.191 14.2 11.23 9.49 8.24 6.74 6.26 5.76 5.64 5.38 5.14
1263.481 6.12 6.79 6.3 6.17 6.26 5.74 5.17 4.21 4 3.87
1282.771 3.22 2.66 2.59 2.81 2.9 2.77 2.38 2.38 2.48 2.42
1302.060 2.43 2.1987 1.96 2.0533 1.9028 1.7258 1.5388 1.6308 1.9071 1.9513
1321.350 2.0794 2.0094 2.0435 2.165 2.1314 2.37 2.47 2.34 2.49 2.61
1340.640 2.86 3.16 3.37 3.66 3.97 4.31 4.84 5.72 6.51 7.35
1359.930 8.37 9.69 10.97 11.69 11.8 11.41 10.87 10.07 9.05 8.04
1379.219 7.13 6.55 6.25 6.12 6.08 6.41 6.62 6.5 6.73 7.29
1398.509 8.14 9.14 10.41 12.18 14.07 16.59 19.85 23.55 28.03 33.01
1417.799 37.82 42.43 45.89 47.61 47.51 45.12 40.76 35.1 28.89 23
1437.089 17.89 14.14 11.61 9.93 8.9 8.22 7.34 6.67 6.14 5.7
1456.378 5.37 4.72 4.41 4.13 3.57 3.16 2.93 2.7 2.46 2.22
1475.668 2.0599 1.9073 1.873 2.0608 2.0279 2.1106 2.1348 1.9548 1.7385 1.6616
1494.958 1.8699 2.26 2.52 2.53 2.44 2.32 2.43 2.64 2.69 2.78
1514.248 3.07 3.4 3.73 3.97 4.35 4.87 5.41 6.19 7.29 8.66
1533.538 10.53 13 16.32 20.7 25.69 31.81 38.89 47.13 56.19 65.33
1552.827 73.63 79.62 82.06 80.41 74.83 66.34 55.71 45.28 37.33 31.91
1572.117 28.8 27.99 29.36 32.18 35.16 37.61 38.7 37.86 35.06 30.4
1591.407 24.53 19.04 14.55 11.35 8.98 7.16 6.44 5.78 5.08 4.65
1610.697 4.18 3.81 3.36 3.06 3.08 3.03 2.91 2.89 2.96 3.08
1629.986 2.99 2.83 2.88 2.82 2.6 2.68 2.83 2.57 2.33 2.34
1649.276 2.22 2.25 2.0537 1.749 1.8671 1.808 1.8237 1.9981 2.022 2.0584
1668.566 2.0189 1.718 1.4622 1.5991 1.6527 1.5928 1.6189 1.7085 1.6869 1.7059
1687.856 1.8059 1.6333 1.5842 1.6244 1.6694 1.7625 1.69 1.8331 2.0812 2.0575
1707.146 2.0476 2.0372 2.163 2.67 2.99 3.03 3.34 3.68 3.72 4
1726.435 4.36 4.39 4.47 4.51 4.27 3.92 3.63 3.44 3.25 2.99
1745.725 2.9 3.25 3.57 3.75 3.98 4.14 4.14 4.24 4.3 4.03
1765.015 3.66 3.18 2.98 2.82 2.59 2.66 2.61 2.39 2.26 2.23
1784.305 2.1733 2.0711 1.979 1.9247 1.9074 1.7674 1.7145 1.7262 1.5737 1.4739
1803.594 1.4895 1.4693 1.3483 1.3404 1.30965 1.2004 1.1266 1.21039 1.1899 1.063
1822.884 1.114 1.1212 1.1301 1.083 1.077 1.1676 1.2432 1.3354 1.4255 1.4486
1842.174 1.403 1.4229 1.4584 1.3718 1.4523 1.4588 1.4478 1.4567 1.23371 1.21612
1861.464 1.28435 1.2635 1.26151 1.2063 1.21892 1.12 1.1652 1.23139 1.1283 1.25105
1880.754 1.154 1.018 1.2088 1.1948 1.1893 1.23738 1.1401 1.1604 1.085 1.029
1900.043 1.1328 1.113 1.1866 1.2477 1.086 1.085 1.093 1.047 1.027 1.024
1919.333 1.107 1.1679 1.1718 1.07 0.885 0.988 1.1671 1.1493 1.081 1.058
1938.623 1.1686 1.26008 1.23585 1.23862 1.3481 1.4092 1.4136 1.3945 1.057 0.901
1957.913 0.918 0.936 1.1552 1.1811 1.112 1.1616 1.1203 1.11 1.29755 1.30889
1977.202 1.1583 1.09 1.1922 1.1885 1.22319 1.1598 1.064 1.1523 1.24864 1.387
1996.492 1.4863 1.4178 1.3894 1.4307 1.2409 1.152 1.1213 1.068 1.1554 1.29723
2015.782 1.1907 1.1293 1.1332 1.089 1.004 0.892 0.971 1.062 1.24327 1.30454
2035.072 1.22941 1.092 1.027 0.971 1.032 1.1458 1.044 1.011 1.034 1.039
2054.362 0.91 0.976 1.079 0.981 1.061 1.1881 1.3279 1.29987 1.085 1.29883
2073.651 1.3492 1.1706 1.21013 1.06 0.866 1.002 1.135 1.1999 1.1907 1.066
2092.941 1.2887 1.31951 0.985 0.878 0.795 0.853 1.038 1.1 1.26641 1.29018
2112.231 1.1205 1.075 0.977 0.993 1.108 1.1423 1.1671 1.3611 1.4303 1.171
2131.521 0.978 0.912 0.986 0.954 0.909 0.987 1.043 1.017 1.095 1.1573
2150.810 1.1811 1.1998 1.29885 1.3342 1.2089 1.09 1.109 1.29791 1.22267 1.21091
2170.100 1.22403 1.1666 1.31334 1.3758 1.24923 1.27758 1.4122 1.3405 1.22641 1.1857
2189.390 0.989 0.972 1.113 1.024 1.026 1.096 1.015 1.076 1.1698 1.04
2208.680 1.064 1.1392 1.1661 1.23189 1.21618 1.29406 1.4713 1.323 1.042 1.037
2227.970 1.007 0.924 1.034 1.036 1.034 1.1787 1.28252 1.3518 1.1235 0.973
2247.259 1.113 1.064 0.997 1.006 1.134 1.24034 1.3263 1.4776 1.343 1.022
2266.549 1.04 1.148 1.087 1.033 1.054 1.3432 1.4282 1.28091 1.1654 1.004
2285.839 1.1234 1.5364 1.3863 1.1938 1.3524 1.398 1.4607 1.4369 1.3311 1.1473
2305.129 1.158 1.31621 1.1936 1.24904 1.4523 1.3396 1.4295 1.4205 1.31084 1.22344
2324.418 1.096 1.076 1.07 1.2011 1.3655 1.29701 1.27431 1.3633 1.1897 1.26
2343.708 1.52 1.4248 1.4062 1.29708 1.1386 1.3585 1.4757 1.3926 1.37 1.3916
2362.998 1.24675 1.4896 1.6313 1.4415 1.4001 1.4465 1.49 1.5926 1.7599 1.702
2382.288 1.763 1.9298 1.7554 1.7943 1.9349 1.751 1.3799 1.3708 1.5012 1.597
2401.578 1.8025 1.6965 1.4949 1.4119 1.4346 1.6053 1.6277 1.4007 1.4611 1.5103
2420.867 1.3486 1.1862 1.1839 1.27612 1.074 1.029 1.027 0.941 1.3454 1.6191
2440.157 1.4976 1.3714 1.3633 1.3425 1.3811 1.3581 1.3672 1.27608 0.958 1.023
2459.447 1.173 1.30256 1.4514 1.3432 1.26109 1.3342 1.31711 1.1904 1.04 1.1903
2478.737 1.1229 0.995 1.24129 1.1318 1.1252 1.089 1.024 1.3633 1.28428 1.045
2498.026 1.1744 1.1516 1.064 1.029 0.933 0.782 0.711 0.85 0.781 0.881
2517.316 1.1842 1.1688 1.30122 1.3347 1.31666 1.26015 0.996 0.86 0.954 0.984
2536.606 0.758 0.773 0.898 0.689 0.812 1.2538 1.24448 1.121 1.25549 1.1559
2555.896 0.99 0.928 1.1355 1.25901 1.109 1.3381 1.515 1.4755 1.104 0.927
2575.186 1.1965 1.3419 1.4072 1.189 1.06 1.059 0.851 0.958 1.084 0.94
2594.475 1.1768 1.1885 0.894 1.2089 1.406 1.177 1.094 1.1312 1.3367 1.4982
2613.765 1.4245 1.30964 1.4621 1.4612 1.4137 1.3384 0.962 1.111 1.2729 1.22456
2633.055 1.3617 1.4515 1.5465 1.3602 1.31829 1.639 1.5422 1.4918 1.5613 1.4861
2652.345 1.7887 2.0851 2.0192 1.915 1.6981 1.6686 1.8011 1.5695 1.1958 1.4064
2671.634 1.7677 1.7387 1.6252 1.7129 1.7963 1.8193 1.7787 1.4837 1.069 0.924
2690.924 1.033 0.985 1.114 1.3243 1.4142 1.4306 1.25571 1.3562 1.21208 0.889
2710.214 1.102 1.1805 1.3928 1.5019 0.976 0.888 0.914 0.795 1.082 0.985
2729.504 0.863 1.28079 1.3626 1.5025 1.627 1.3812 1.2081 1.2201 1.1812 0.846
2748.794 0.979 1.27184 1.3866 1.4346 1.4857 1.4177 1.27395 1.26867 1.403 1.1229
2768.083 0.833 0.9 1.051 1.27516 1.1724 1.28816 1.5814 1.5616 1.4691 1.4776
2787.373 1.4511 1.3668 1.4808 1.7334 1.6414 1.23917 1.057 1.1528 1.093 1.087
2806.663 1.484 1.5295 1.3683 1.26036 1.1347 1.22102 1.334 1.29683 1.101 1.4067
2825.953 1.5013 1.1898 1.6242 1.8492 1.6422 1.8278 1.6638 1.3254 1.4564 1.6589
2845.242 1.8549 1.831 1.7353 1.853 1.8091 1.7227 1.7032 1.6645 1.6271 1.4338
2864.532 1.2005 1.28748 1.655 1.7586 1.6363 1.6184 1.8202 2.0602 1.8273 1.4153
2883.822 1.3298 1.4056 1.2052 1.27199 1.3842 1.25978 1.3934 1.25872 0.905 1.31959
2903.112 1.647 1.3278 1.1395 1.3211 1.1691 0.96 1.098 1.1447 0.838 0.609
2922.401 0.979 0.93 1.03 1.4679 1.22341 0.897 0.903 1.1748 1.5058 1.4118
2941.691 1.27295 1.5165 1.6163 1.7076 2.1589 2.1952 2.37 2.81 2.77 2.79
2960.981 2.75 2.32 2.31 3.05 3.49 3.5 4.09 4.84 5.05 5.46
2980.271 6.04 6.22 6.07 5.41 4.26 3.83 3.56 2.85 2.34 2.23
2999.561 2.064 1.8101 1.4643 1.414 2.0234 2.1602 2.1557 1.6168 1.30973 1.9164
3018.850 2.33 2.39 2.45 2.53 2.38 2.1776 2.0792 1.7855 2.1683 2.1779
3038.140 1.4708 1.6051 1.8086 1.4139 1.102 1.4895 1.8548 1.6853 1.7564 1.9369
3057.430 1.9661 2.0396 1.8832 1.9206 1.9597 2.0401 2.55 2.62 1.9783 1.7927
3076.720 2.1238 2.26 2.37 2.44 1.9586 1.7985 2.0102 1.7641 1.3841 1.079
3096.009 0.624 0.567 1.3872 1.7247 1.4375 1.3521 1.7531 1.9462 1.1783 0.632
3115.299 0.926 1.094 1.4731 1.3958 0.974 1.3784 1.5094 1.22976 1.21481 1.7067
3134.589 1.6359 1.28851 1.3475 1.3371 1.3231 1.4402 1.4889 1.22746 1.3331 1.5035
3153.879 1.5645 1.435 1.5014 1.4535 1.23617 1.7155 1.8742 1.22059 1.003 1.003
3173.169 1.051 1.3756 1.1438 1.21367 1.4384 1.534 1.7467 1.4544 1.113 1.25456
3192.458 1.102 0.688 0.71 0.87 0.66 0.465 0.751 1.075 0.908 0.845
3211.748 0.921 1.1 1.4904 1.6049 1.8024 1.8136 1.3953 1.066 0.962 1.048
3231.038 0.963 0.964 1.24746 1.5346 1.2533 1.25238 1.4575 0.871 0.335 0.421
3250.328 1.017 0.921 0.594 1.1391 1.3667 1.066 0.976 1.24221 1.3537 1.2425
3269.617 0.959 0.923 0.844 0.781 0.975 0.321 0.516 1.1243 1.31635 1.3302
3288.907 1.4185 1.3889 0.637 0.419 0.713 1.063 1.3613 1.3383 1.5599 1.3346
3308.197 0.738 0.875 1.1228 1.013 0.866 0.884 1.079 1.3983 1.1527 0.943
3327.487 1.1581 1.27239 1.092 0.787 1.1493 1.4372 1.3908 1.1844 0.899 1.3939
3346.777 1.4955 0.884 1.089 1.8319 1.5369 1.27673 1.21027 0.918 1.22768 1.24604
3366.066 1.203 1.29357 1.2005 1.045 1.1295 1.4709 1.6154 1.3884 1.048 0.955
3385.356 1.037 0.793 0.688 0.942 0.95 1.704 1.745 0.966 0.973 1.1986
3404.646 1.115 1.26149 1.21597 1.089 1.085 0.953 0.649 0.266 0.697 1.3492
3423.936 1.001 0.69 0.793 0.69 0.858 0.913 1.5267 1.6987 1.4922 1.6935
3443.225 1.5416 1.31866 1.1543 1.282 1.1739 0.798 1.091 1.541 1.27345 0.863
3462.515 1 1.1553 0.871 0.448 0.479 1.003 1.24599 1.3634 1.4416 1.3445
3481.805 1.3257 1.29668 1.28325 1.30182 1.1661 0.946 0.809 0.746 0.809 1.063
3501.095 0.976 0.847 1.2025 0.934 0.706 1 1.3496 1.5597 1.22821 0.8
3520.385 0.842 0.84 1.082 1.5032 1.6913 1.8607 2.1261 1.8778 1.1789 1.089
3539.674 1.29278 1.4876 1.4912 1.145 0.891 1.097 0.628 0.455 0.844 0.899
3558.964 0.721 0.707 1.1375 1.3463 1.26292 1.25292 1.3657 0.84 0.59 0.555
3578.254 0.839 1.385 1.3427 0.962 0.521 0.409 0.522 0.791 0.712 0.576
3597.544 0.575 1.053 1.4083 1.347 1.7904 1.9238 1.5937 1.31442 0.994 0.372
3616.833 0.337 1.1362 1.82 1.3616 0.231 0.462 0.979 0.793 0.786 1.23244
3636.123 1.4514 1.5908 1.76 1.4764 1.414 1.4985 1.1787 1.1247 1.3357 0.709
3655.413 0.665 1.095 1.076 1.26048 1.5565 1.7787 1.3921 1.1719 1.3595 1.3913
3674.703 1.02 0.638 1.1524 1.4764 1.21223 1.1949 1.31815 1.3953 1.6536 1.5994
3693.993 1.073 0.603 0.746 0.803 0.619 0.707 0.638 0.629 0.817 0.968
3713.282 0.933 1.006 1.083 1.22456 1.1822 0.627 0.243 0.84 0.836 0.391
3732.572 0.73 0.725 0.776 1.1928 1.24857 0.91 1.23002 1.5629 1.109 1.03
3751.862 1.476 1.6549 1.5048 1.22513 1.21983 1.22834 1.1231 0.839 0.927 0.76
3771.152 0.594 1.1275 1.7549 1.9472 1.5593 1.4659 1.5566 1.6625 1.5008 1.31791
3790.441 1.23818 1.3586 1.4608 1.4492 1.1776 0.868 1.2915 1.8647 2.0894 1.9527
3809.731 1.729 1.4756 1.027 1.3281 1.4481 1.1392 0.992 0.845 1.3278 1.5066
3829.021 1.27481 1.046 0.918 1.1962 1.114 0.974 1.1353 0.987 1.3927 2.0541
3848.311 1.6814 1.023 1.29188 1.7754 1.9815 1.9829 1.745 1.25822 1.05 1.31673
3867.601 1.5397 1.5186 1.1727 1.044 0.725 0.649 1.26117 1.9265 1.938 1.6141
3886.890 1.27853 0.939 0.944 0.895 1.04 1.22503 0.967 0.981 1.055 1.5225
3906.180 1.4673 1.008 1.4585 1.2041 1.111 1.415 1.4052 1.4563 1.6242 1.23889
3925.470 1.101 1.3339 1.23943 1.3608 1.7065 1.8688 1.3958 0.856 0.608 0.403
3944.760 0.778 1.117 1.4376 1.7115 1.596 1.4276 1.3546 1.2659 1.22881 1.26931
3964.049 1.037 1.28683 1.1838 1.1488 1.4953 1.5718 1.6243 1.6274 1.3267 1.22177
3983.339 1.1965 0.968 1.2361 1.3206 1.096 1.4268 1.1624 0.925 1.5176 1.4235
##END=
