##TITLE=2,5-Dichlorothiophene-3-sulphonyl chloride
##JCAMP-DX=4.24
##DATA TYPE=INFRARED SPECTRUM
##ORIGIN=EPA-IR VAPOR PHASE LIBRARY
##OWNER=SRD/NIST
Collection (C) 2018 copyright by the U.S. Secretary of Commerce
on behalf of the United States of America. All rights reserved.
##CAS REGISTRY NO=56946-83-9
##MOLFORM=C 4 H Cl 3 O 2 S 2
##$NIST SOURCE=MSDC-IR
##STATE=gas
##XUNITS=1/CM
##YUNITS=ABSORBANCE
##XFACTOR=1.
##YFACTOR=0.001
##DELTAX=1.92934
##FIRSTX=549.9
##LASTX=3999.5
##FIRSTY=137.94
##MAXX=3999.53
##MINX=549.863
##MAXY=0.18755
##MINY=0
##NPOINTS=1789
##XYDATA=(X++(Y..Y))
549.863 137.94 155.66 174.2 184.19 187.55 185.17 173.34 153.49 125.83 99.49
569.156 80.79 65.98 53.15 43.33 36.5 31.96 28.64 25.77 23.36 21.41
588.450 19.99 19.24 19.19 19.64 20.02 20.13 20 19.63 19 17.97
607.743 16.8 16.2 16.91 19.07 22.98 29.67 40.14 55.02 74.29 96.09
627.037 117.44 135.41 147.92 148.89 133.03 110.87 88.72 65.59 45.78 31.51
646.330 22.13 16.43 13.15 11.23 9.94 8.83 7.87 7.07 6.24 5.54
665.624 5.02 4.62 4.28 4.09 4.17 4.37 4.7 5.17 5.61 5.88
684.917 5.91 5.74 5.38 4.81 4.24 3.69 3.23 2.96 2.82 2.72
704.210 2.6796 2.72 2.77 2.74 2.7 2.6784 2.5981 2.5601 2.5293 2.4206
723.504 2.3151 2.2576 2.2735 2.3214 2.3532 2.4568 2.5825 2.69 2.86 3.04
742.797 3.19 3.34 3.48 3.54 3.59 3.62 3.63 3.59 3.49 3.38
762.091 3.28 3.18 3 2.84 2.77 2.6664 2.6152 2.615 2.6305 2.6285
781.384 2.6365 2.6837 2.6545 2.6218 2.6174 2.5825 2.5734 2.6585 2.78 2.88
800.678 3.01 3.16 3.36 3.6 3.98 4.5 5.24 6.42 7.7 9.1
819.971 10.8 12.91 15.28 17.5 19.3 20.32 20.4 19.38 17.68 16.19
839.264 15.32 15.05 15.37 16.32 17.72 19.32 20.76 21.71 21.88 21.11
858.558 19.49 17.22 14.55 11.82 9.34 7.29 5.74 4.73 4.13 3.78
877.851 3.55 3.33 3.12 2.93 2.73 2.5395 2.3488 2.2031 2.1308 2.0844
897.145 2.0599 2.068 2.0916 2.1578 2.2259 2.2939 2.3821 2.4246 2.431 2.3983
916.438 2.3608 2.3216 2.2736 2.2078 2.1621 2.1062 2.0205 1.9699 1.9585 1.9275
935.732 1.9042 1.8937 1.9102 1.9658 2.0185 2.0963 2.1596 2.2765 2.4454 2.5649
955.025 2.6311 2.6748 2.6873 2.69 2.6769 2.6735 2.6629 2.621 2.6347 2.6763
974.318 2.74 2.86 2.96 3 3.06 3.12 3.27 3.48 3.8 4.35
993.612 5.12 6.13 7.4 8.79 10.16 11.36 12.17 12.55 12.53 12.16
1012.905 11.51 10.75 10.26 10.39 11.21 12.62 14.47 16.8 19.71 23.46
1032.199 28.55 35.49 44.65 55.88 68.28 80.17 89.37 94.05 93.36 87.17
1051.492 76.05 61.18 44.78 30.11 19.57 13.21 9.69 7.78 6.72 6.1
1070.786 5.71 5.45 5.3 5.16 5.07 5.02 4.96 4.84 4.72 4.67
1090.079 4.59 4.46 4.44 4.56 4.69 4.87 5.17 5.52 5.94 6.44
1109.372 7.02 7.82 8.74 9.72 10.91 12.43 14.34 16.76 19.75 23.2
1128.666 26.96 30.51 33.16 34.76 35.1 33.88 31.42 28.27 25.09 22.43
1147.959 20.71 19.79 19.59 20.15 21.05 22.27 23.94 25.9 28.36 31.47
1167.253 35.08 39.3 44.28 50.08 57.05 65.69 76.5 89.89 105.39 122.17
1186.546 139.24 154.69 166 171.55 170.74 162.78 147.4 126.05 102.22 79.35
1205.840 58.95 42.53 30.9 23.09 17.93 14.45 12.04 10.23 8.78 7.69
1225.133 6.67 5.84 5.2 4.69 4.35 3.97 3.62 3.43 3.23 3.1
1244.426 2.95 2.76 2.71 2.6747 2.6109 2.5959 2.6738 2.83 2.94 2.95
1263.720 3.05 3.18 3.22 3.27 3.36 3.46 3.58 3.65 3.63 3.66
1283.013 3.79 3.89 4.02 4.25 4.61 5.2 6.05 7.21 8.5 9.99
1302.307 11.63 13.3 14.92 16.3 17.2 17.54 17.31 16.5 15.21 13.58
1321.600 11.8 10.23 9.06 8.29 7.82 7.54 7.37 7.29 7.29 7.3
1340.894 7.29 7.24 7.12 6.98 6.84 6.8 6.86 7.18 7.66 8.09
1360.187 8.26 7.39 7.01 8.06 9.63 11.39 13.23 15.22 17.36 19.67
1379.480 22.18 24.89 27.81 30.77 33.61 36.54 40.59 46.92 56.23 68.99
1398.774 86.03 107.06 128.56 145.37 152.66 150.51 142.4 128.75 108.3 85.52
1418.067 67.8 58.1 55.91 59.14 65.7 73.68 81.17 86.32 87.81 85.25
1437.361 78.72 69.1 57.15 44.48 33.31 25.03 19.62 16.22 13.9 12.18
1456.654 10.78 9.51 8.38 7.38 6.53 5.78 5.15 4.68 4.38 4.25
1475.948 4.23 4.31 4.49 4.73 5.09 5.56 6.18 7.01 8.04 9.34
1495.241 11.1 13.49 16.6 20.65 25.65 31.26 37.09 41.85 44.63 45.1
1514.534 43.35 39.61 34.07 27.41 20.56 15.11 11.31 8.9 7.42 6.51
1533.828 5.9 5.37 4.89 4.38 3.81 3.38 3.05 2.8 2.69 2.6351
1553.121 2.6189 2.6047 2.5835 2.6007 2.5226 2.3875 2.2742 2.1615 2.0795 2.0235
1572.415 1.9571 1.9099 1.8971 1.8345 1.7839 1.7933 1.77097 1.78052 1.8076 1.8005
1591.708 1.802 1.8341 1.8824 1.9071 1.9508 1.9912 1.9996 1.9684 1.9394 1.9315
1611.002 1.8937 1.873 1.9069 1.9401 1.9502 1.9977 2.1021 2.1889 2.2505 2.3671
1630.295 2.5028 2.6351 2.82 3.01 3.18 3.38 3.62 3.88 4.17 4.43
1649.588 4.64 4.84 5.01 5.05 4.95 4.79 4.54 4.17 3.81 3.45
1668.882 3.1 2.78 2.5151 2.3455 2.2247 2.1388 2.0716 2.0574 2.0898 2.0468
1688.175 2.0069 1.997 1.984 2.0095 2.0358 2.0483 2.0805 2.1008 2.0991 2.0883
1707.469 2.0785 2.0673 2.0532 2.0526 2.0432 2.0301 1.9832 1.9042 1.8492 1.8084
1726.762 1.78111 1.78135 1.76925 1.77615 1.7541 1.6692 1.6318 1.6026 1.554 1.532
1746.056 1.502 1.459 1.459 1.464 1.474 1.47 1.441 1.433 1.446 1.421
1765.349 1.41 1.467 1.462 1.432 1.418 1.401 1.401 1.42 1.442 1.459
1784.642 1.474 1.478 1.471 1.477 1.492 1.475 1.442 1.438 1.453 1.447
1803.936 1.428 1.415 1.417 1.441 1.433 1.386 1.387 1.387 1.368 1.393
1823.229 1.406 1.407 1.435 1.472 1.479 1.496 1.506 1.52 1.536 1.493
1842.523 1.466 1.487 1.476 1.458 1.455 1.469 1.486 1.471 1.479 1.5
1861.816 1.496 1.494 1.502 1.509 1.498 1.475 1.443 1.402 1.4 1.396
1881.110 1.384 1.37 1.359 1.339 1.32 1.34 1.353 1.354 1.374 1.404
1900.403 1.415 1.439 1.441 1.461 1.492 1.51 1.533 1.526 1.519 1.509
1919.696 1.512 1.499 1.455 1.433 1.439 1.453 1.45 1.422 1.408 1.432
1938.990 1.43 1.4 1.405 1.403 1.387 1.382 1.408 1.427 1.403 1.405
1958.283 1.43 1.411 1.363 1.347 1.345 1.341 1.34 1.327 1.34 1.378
1977.577 1.423 1.461 1.466 1.451 1.45 1.475 1.5 1.528 1.562 1.56
1996.870 1.546 1.536 1.515 1.535 1.551 1.545 1.558 1.554 1.54 1.521
2016.164 1.524 1.511 1.489 1.499 1.519 1.546 1.5978 1.6246 1.6374 1.6576
2035.457 1.6431 1.6462 1.671 1.7082 1.71662 1.73054 1.73131 1.69261 1.6517 1.6172
2054.750 1.613 1.574 1.542 1.53 1.509 1.481 1.452 1.464 1.46 1.446
2074.044 1.445 1.445 1.453 1.488 1.522 1.483 1.461 1.473 1.475 1.474
2093.337 1.462 1.461 1.461 1.484 1.51 1.528 1.564 1.586 1.572 1.579
2112.631 1.582 1.556 1.56 1.519 1.475 1.457 1.414 1.384 1.387 1.39
2131.924 1.4 1.426 1.434 1.429 1.431 1.446 1.468 1.497 1.508 1.509
2151.218 1.55 1.588 1.6038 1.6258 1.6354 1.6453 1.6755 1.7067 1.7202 1.72173
2170.511 1.74292 1.774 1.7939 1.812 1.8371 1.8464 1.8261 1.8374 1.8298 1.8496
2189.804 1.8939 1.9233 1.9622 1.996 2.0408 2.097 2.1797 2.256 2.3459 2.4333
2209.098 2.4742 2.5403 2.6357 2.71 2.76 2.81 2.87 2.92 2.93 2.91
2228.391 2.91 2.91 2.87 2.81 2.75 2.6682 2.5578 2.4383 2.3421 2.2448
2247.685 2.1357 2.0383 1.931 1.8209 1.74498 1.6795 1.6227 1.578 1.539 1.523
2266.978 1.491 1.464 1.482 1.51 1.49 1.459 1.447 1.453 1.497 1.507
2286.272 1.509 1.5 1.467 1.494 1.485 1.452 1.466 1.461 1.432 1.438
2305.565 1.459 1.491 1.527 1.54 1.553 1.578 1.6047 1.6427 1.677 1.6727
2324.858 1.68634 1.71422 1.71634 1.71191 1.68607 1.69067 1.68523 1.6673 1.6784 1.6598
2344.152 1.6376 1.6246 1.6186 1.6318 1.6676 1.6935 1.71749 1.72805 1.69467 1.69584
2363.445 1.70172 1.679 1.68793 1.69209 1.6715 1.6393 1.6076 1.553 1.514 1.495
2382.739 1.43 1.385 1.374 1.33 1.305 1.28 1.266 1.259 1.217 1.198
2402.032 1.184 1.18 1.168 1.139 1.162 1.164 1.145 1.17 1.184 1.176
2421.326 1.19 1.205 1.201 1.214 1.246 1.259 1.257 1.27 1.302 1.318
2440.619 1.311 1.309 1.305 1.289 1.294 1.309 1.296 1.245 1.227 1.218
2459.912 1.205 1.206 1.202 1.189 1.185 1.176 1.162 1.205 1.235 1.23
2479.206 1.199 1.182 1.199 1.221 1.228 1.23 1.212 1.218 1.266 1.283
2498.499 1.26 1.266 1.292 1.321 1.368 1.396 1.415 1.417 1.434 1.448
2517.793 1.447 1.41 1.392 1.407 1.372 1.36 1.379 1.371 1.374 1.409
2537.086 1.442 1.485 1.527 1.574 1.6077 1.6464 1.71948 1.76062 1.8055 1.8405
2556.380 1.8548 1.8912 1.912 1.9005 1.8604 1.8314 1.8464 1.8433 1.77758 1.72887
2575.673 1.7455 1.77169 1.7924 1.8383 1.8942 1.9077 1.8848 1.8649 1.851 1.8229
2594.966 1.7925 1.7916 1.74326 1.6478 1.578 1.499 1.455 1.411 1.338 1.326
2614.260 1.322 1.311 1.262 1.206 1.236 1.286 1.274 1.229 1.185 1.164
2633.553 1.148 1.155 1.161 1.111 1.121 1.172 1.177 1.176 1.216 1.226
2652.847 1.147 1.066 1.043 1.033 1.005 0.97 0.951 0.975 1.006 0.999
2672.140 0.975 0.966 1.069 1.103 0.997 0.959 0.961 0.952 0.972 0.999
2691.434 1 0.969 0.959 0.995 1.018 1.101 1.171 1.043 0.956 0.985
2710.727 0.954 0.904 0.91 0.929 0.928 0.912 0.873 0.917 1.04 1.021
2730.020 0.888 0.816 0.795 0.775 0.795 0.82 0.788 0.761 0.755 0.809
2749.314 0.924 1.01 0.915 0.735 0.704 0.741 0.724 0.706 0.738 0.8
2768.607 0.803 0.8 0.894 1.033 1.024 0.847 0.801 0.815 0.79 0.822
2787.901 0.895 0.948 0.954 0.996 1.142 1.342 1.381 1.267 1.252 1.282
2807.194 1.243 1.251 1.251 1.188 1.242 1.332 1.377 1.482 1.408 1.233
2826.488 1.215 1.181 1.093 1.06 1.049 1.074 1.123 1.209 1.32 1.33
2845.781 1.282 1.217 1.178 1.195 1.202 1.256 1.283 1.266 1.274 1.284
2865.074 1.291 1.159 1.046 0.993 0.882 0.763 0.68 0.66 0.68 0.66
2884.368 0.61 0.61 0.61 0.59 0.6 0.61 0.57 0.53 0.54 0.59
2903.661 0.6 0.62 0.58 0.49 0.44 0.46 0.55 0.52 0.42 0.42
2922.955 0.47 0.56 0.55 0.41 0.38 0.44 0.49 0.5 0.44 0.46
2942.248 0.55 0.699 0.67 0.46 0.41 0.35 0.33 0.39 0.4 0.46
2961.542 0.63 0.66 0.39 0.27 0.35 0.38 0.35 0.34 0.42 0.55
2980.835 0.66 0.56 0.43 0.39 0.43 0.44 0.46 0.55 0.719 0.719
3000.128 0.52 0.38 0.31 0.35 0.41 0.47 0.6 0.769 0.69 0.41
3019.422 0.37 0.4 0.38 0.44 0.47 0.52 0.49 0.36 0.3 0.26
3038.715 0.22 0.25 0.36 0.39 0.3 0.23 0.29 0.31 0.32 0.34
3058.009 0.34 0.31 0.22 0.24 0.26 0.31 0.36 0.31 0.34 0.41
3077.302 0.39 0.41 0.46 0.54 0.66 0.802 0.941 0.991 1.159 1.448
3096.596 1.77531 2.1404 2.4597 3.03 3.8 4.71 6.08 7.69 9.15 10.02
3115.889 10.1 9.78 9.19 7.81 5.75 3.74 2.2671 1.445 1.016 0.78
3135.182 0.63 0.51 0.46 0.45 0.35 0.21 0.19 0.21 0.24 0.27
3154.476 0.22 0.16 0.17 0.16 0.11 0.12 0.12 0.1 0.15 0.12
3173.769 0.09 0.15 0.21 0.19 0.11 0.11 0.1 0.08 0.1 0.09
3193.063 0.02 0.05 0.17 0.12 0.08 0.1 0.1 0.05 0.01 0.09
3212.356 0.2 0.2 0.15 0.08 0.05 0.11 0.17 0.16 0.05 0.04
3231.650 0.13 0.12 0.14 0.12 0.06 0.06 0.1 0.15 0.15 0.15
3250.943 0.12 0.11 0.09 0.02 0 0.02 0.03 0.02 0.06 0.14
3270.236 0.08 0 0.01 0.16 0.19 0.14 0.09 0.11 0.22 0.22
3289.530 0.16 0.1 0.09 0.04 0.02 0.05 0.09 0.12 0.22 0.24
3308.823 0.17 0.19 0.2 0.15 0.14 0.16 0.18 0.21 0.19 0.22
3328.117 0.22 0.13 0.14 0.16 0.09 0.15 0.22 0.21 0.26 0.25
3347.410 0.18 0.13 0.1 0.13 0.2 0.2 0.24 0.26 0.19 0.15
3366.704 0.24 0.31 0.29 0.24 0.15 0.1 0.14 0.17 0.21 0.19
3385.997 0.13 0.15 0.23 0.3 0.36 0.45 0.43 0.36 0.33 0.32
3405.290 0.32 0.27 0.29 0.29 0.32 0.32 0.24 0.24 0.25 0.26
3424.584 0.3 0.27 0.28 0.37 0.39 0.37 0.31 0.34 0.33 0.29
3443.877 0.34 0.36 0.37 0.39 0.42 0.37 0.33 0.35 0.39 0.38
3463.171 0.37 0.3 0.27 0.33 0.31 0.28 0.31 0.34 0.35 0.43
3482.464 0.51 0.4 0.37 0.38 0.39 0.48 0.38 0.37 0.43 0.45
3501.758 0.47 0.42 0.42 0.47 0.53 0.58 0.51 0.5 0.48 0.5
3521.051 0.58 0.52 0.48 0.56 0.52 0.43 0.57 0.59 0.5 0.51
3540.344 0.49 0.52 0.52 0.51 0.54 0.51 0.54 0.59 0.59 0.55
3559.638 0.55 0.55 0.57 0.6 0.58 0.59 0.57 0.51 0.53 0.53
3578.931 0.46 0.51 0.56 0.49 0.51 0.56 0.59 0.63 0.63 0.56
3598.225 0.49 0.54 0.57 0.63 0.65 0.6 0.62 0.59 0.61 0.751
3617.518 0.739 0.691 0.728 0.68 0.6 0.62 0.696 0.68 0.65 0.692
3636.812 0.67 0.6 0.698 0.768 0.693 0.698 0.704 0.726 0.68 0.65
3656.105 0.67 0.65 0.758 0.853 0.84 0.818 0.813 0.786 0.793 0.798
3675.398 0.749 0.74 0.769 0.715 0.63 0.709 0.814 0.76 0.706 0.741
3694.692 0.72 0.705 0.71 0.717 0.718 0.736 0.79 0.848 0.829 0.825
3713.985 0.885 0.84 0.819 0.831 0.787 0.788 0.832 0.815 0.807 0.833
3733.279 0.863 0.906 0.897 0.852 0.79 0.824 0.84 0.772 0.79 0.79
3752.572 0.767 0.774 0.746 0.781 0.833 0.775 0.723 0.748 0.788 0.75
3771.866 0.761 0.833 0.853 0.813 0.848 0.885 0.85 0.867 0.88 0.868
3791.159 0.909 0.909 0.897 0.942 1.006 0.999 0.909 0.892 0.853 0.818
3810.452 0.826 0.843 0.83 0.826 0.847 0.806 0.849 0.829 0.754 0.809
3829.746 0.81 0.779 0.818 0.821 0.807 0.812 0.814 0.819 0.81 0.78
3849.039 0.75 0.734 0.824 0.912 0.852 0.797 0.789 0.837 0.806 0.761
3868.333 0.868 0.894 0.806 0.807 0.834 0.833 0.869 0.894 0.873 0.852
3887.626 0.85 0.794 0.797 0.831 0.838 0.867 0.865 0.891 0.942 0.89
3906.920 0.848 0.888 0.894 0.864 0.863 0.864 0.83 0.818 0.841 0.87
3926.213 0.813 0.845 0.932 0.909 0.905 0.904 0.876 0.889 0.869 0.865
3945.506 0.842 0.818 0.83 0.8 0.786 0.815 0.855 0.849 0.84 0.788
3964.800 0.748 0.767 0.806 0.872 0.822 0.799 0.834 0.801 0.812 0.856
3984.093 0.874 0.802 0.792 0.887 0.877 0.835 0.836 0.795 0.737
##END=
