##TITLE=3-Phenyl-p-anisidine
##JCAMP-DX=4.24
##DATA TYPE=INFRARED SPECTRUM
##ORIGIN=EPA-IR VAPOR PHASE LIBRARY
##OWNER=SRD/NIST
Collection (C) 2018 copyright by the U.S. Secretary of Commerce
on behalf of the United States of America. All rights reserved.
##CAS REGISTRY NO=56970-26-4
##MOLFORM=C 13 H 13 N O
##$NIST SOURCE=MSDC-IR
##STATE=gas
##XUNITS=1/CM
##YUNITS=ABSORBANCE
##XFACTOR=1.
##YFACTOR=0.001
##DELTAX=1.92898
##FIRSTX=549.8
##LASTX=4000.7
##FIRSTY=13.08
##MAXX=4000.7
##MINX=549.759
##MAXY=0.11874
##MINY=0
##NPOINTS=1790
##XYDATA=(X++(Y..Y))
549.759 13.08 12.95 13.15 13.67 13.94 14.2 14.14 13.85 13.84 14.02
569.049 14.11 14.14 14.24 14.15 13.99 13.94 13.89 14.05 14.24 14.7
588.339 15.33 16.02 16.68 17.54 18.62 19.29 19.33 18.85 18.19 17.16
607.628 16.21 15.45 14.87 14.48 14.28 14.32 14.74 15.37 15.92 16.86
626.918 18.23 19.55 20.15 20.64 21.29 21.71 22.32 22.77 22.99 23.68
646.208 24.9 26.11 27.32 28.8 30.01 30.86 31.42 31.89 32.18 32.01
665.498 31.62 31.17 30.69 29.87 29.12 28.6 28.23 28.38 29.18 30.84
684.787 33.68 37.75 43.22 49.62 55.27 58.55 60.26 61.5 60.28 56.02
704.077 50.53 45.1 40.2 35.98 32.5 29.87 28.04 26.76 26.1 25.98
723.367 26.46 27.52 28.92 30.45 31.95 33.61 34.98 35.79 36.36 36.25
742.657 35.01 33.06 30.62 27.67 24.58 21.69 19.37 17.6 16.43 15.72
761.947 15.46 15.56 15.62 15.5 15.25 14.88 14.25 13.52 12.68 12.17
781.236 12.02 12.12 12.41 13.24 14.58 16.03 18.03 20.37 22.6 24.66
800.526 26.45 27.88 29.2 30.03 30.08 29.41 28.32 26.76 24.62 22.18
819.816 19.69 17.51 15.6 13.79 12.19 11.04 10.13 9.48 8.99 8.59
839.106 8.25 7.99 8.29 8.59 8.87 9.4 9.92 10.81 12.02 13.12
858.395 14.23 15.36 16.17 16.61 16.36 15.61 14.56 13.52 12.5 11.38
877.685 10.69 10.26 10.04 10.1 10.39 10.83 11.1 11.09 10.72 10.17
896.975 9.68 8.96 8.14 7.35 6.78 6.8 6.87 6.69 6.61 6.33
916.265 5.98 5.62 5.37 5.12 4.78 4.67 4.46 4.38 4.51 4.38
935.555 4.11 4.1 4.37 4.59 4.6 4.58 4.65 4.54 4.34 4.42
954.844 4.64 4.73 4.92 5.13 5.22 5.19 5.25 5.53 5.77 6.1
974.134 6.39 6.68 7.07 7.28 7.45 7.94 8.29 8.62 9.3 10.05
993.424 10.53 11.09 11.98 12.99 14.3 15.62 16.96 18.86 21.6 24.35
1012.714 26.91 30.05 32.91 35.11 37.3 39.35 40.44 40.25 39.61 38.51
1032.003 37.31 36.41 35.27 34.49 33.84 32.53 31.24 30.58 29.85 28.64
1051.293 26.68 24.54 22.81 21.22 19.68 18.07 16.92 16.19 15.96 15.78
1070.583 15.02 14.21 13.71 13.12 12.49 12.11 11.88 11.52 11.25 10.7
1089.873 10.18 9.81 9.15 9.28 9.24 8.78 8.42 8.28 8.33 8.05
1109.163 7.98 8.13 8.18 8.45 8.54 8.71 9.47 10.25 10.88 11.82
1128.452 13.23 15.1 16.66 17.74 18.05 17.84 17.81 17.16 16.01 14.81
1147.742 13.48 11.86 10.38 9.48 8.82 8.43 8.46 8.48 8.62 9.16
1167.032 9.62 10.48 11.77 13 14.1 15.01 15.86 16.38 16.67 16.56
1186.322 16.06 15.59 15.19 15.12 15.48 16.49 17.76 19.11 21.11 23.89
1205.611 26.76 29.7 33.71 38.4 43.45 48.92 55.24 62.28 69.38 76.56
1224.901 83.46 89.31 93.42 95.63 95.93 93.76 89.61 84.16 77.63 71.15
1244.191 65.56 60.98 57.79 56.12 55.27 55.17 55.38 55.16 54.84 53.89
1263.481 52.1 49.86 47.05 44.25 41.29 38.15 35.33 32.78 30.44 28.35
1282.771 26.49 24.83 23.42 22.21 20.99 19.73 18.64 17.82 17.16 16.81
1302.060 16.8 17.06 17.5 18 18.34 18.36 17.99 17.14 15.89 14.29
1321.350 12.51 10.71 9.06 7.88 7.06 6.4 5.9 5.41 4.98 4.68
1340.640 4.41 4.2 4.03 3.89 3.8 3.72 3.68 3.67 3.59 3.59
1359.930 3.59 3.61 3.72 3.81 3.89 4.02 4.1 4.22 4.38 4.49
1379.219 4.61 4.65 4.71 4.91 5.08 5.29 5.49 5.77 6.15 6.57
1398.509 7.14 7.8 8.61 9.63 10.8 12.22 14 16.04 18.41 21.11
1417.799 23.95 26.88 29.62 31.72 33 33.53 33.36 32.37 30.72 28.76
1437.089 26.87 25.41 24.53 24.04 23.79 23.84 24.15 24.68 25.52 26.73
1456.378 28.37 30.33 32.51 34.67 36.64 38.37 40.03 41.85 44.18 47.58
1475.668 52.59 59.71 69.01 80.24 92.47 103.96 112.67 117.57 118.74 116.83
1494.958 112.34 105.8 98.37 91.59 86.19 81.69 77.31 72.26 65.89 58.09
1514.248 49.61 41.55 34.52 28.8 24.41 21.08 18.53 16.61 15.11 13.89
1533.538 12.9 12.13 11.46 10.83 10.4 10.12 9.86 9.65 9.55 9.55
1552.827 9.58 9.68 9.95 10.3 10.75 11.39 12.09 12.86 13.63 14.43
1572.117 15.15 15.56 15.84 16.06 16.18 16.23 16.38 16.82 17.57 18.67
1591.407 20.22 22.17 24.3 26.39 28.19 29.59 30.68 31.57 32.44 33.62
1610.697 35.36 38.04 41.43 44.93 48.1 50.17 50.8 49.98 47.64 43.95
1629.986 39.32 34.23 29.43 25.26 21.72 18.79 16.43 14.54 12.99 11.8
1649.276 10.78 9.9 9.17 8.54 7.96 7.48 7.03 6.7 6.41 6.04
1668.566 5.78 5.56 5.33 5.05 4.76 4.64 4.55 4.36 4.21 4.11
1687.856 3.93 3.76 3.68 3.63 3.58 3.47 3.43 3.41 3.35 3.4
1707.146 3.53 3.59 3.63 3.65 3.69 3.79 3.85 3.89 3.88 3.85
1726.435 3.84 3.79 3.73 3.71 3.69 3.68 3.71 3.73 3.69 3.64
1745.725 3.64 3.62 3.53 3.46 3.31 3.12 3.03 2.98 2.87 2.8
1765.015 2.77 2.68 2.65 2.73 2.85 2.89 2.83 2.91 3.06 3.19
1784.305 3.26 3.42 3.61 3.77 3.97 4.14 4.22 4.18 4.1 3.94
1803.594 3.76 3.58 3.43 3.38 3.33 3.2 3.12 3.13 3.13 3.04
1822.884 2.96 2.94 2.94 2.94 2.9 2.86 2.84 2.88 2.87 2.87
1842.174 2.98 3.02 3 3 3.03 3.11 3.14 3.11 3.15 3.19
1861.464 3.19 3.26 3.41 3.49 3.54 3.6 3.63 3.6 3.59 3.52
1880.754 3.45 3.46 3.4 3.29 3.17 3.04 2.86 2.67 2.45 2.25
1900.043 2.16 2.1 2.02 1.99 1.98 1.98 2.01 1.99 2.01 2.05
1919.333 2.14 2.23 2.36 2.53 2.72 2.94 3.13 3.31 3.57 3.81
1938.623 3.88 3.84 3.77 3.7 3.65 3.65 3.64 3.57 3.51 3.38
1957.913 3.2 3.03 2.84 2.62 2.44 2.38 2.4 2.39 2.41 2.44
1977.202 2.45 2.48 2.5 2.49 2.52 2.56 2.61 2.61 2.59 2.61
1996.492 2.64 2.7 2.71 2.73 2.77 2.72 2.73 2.71 2.62 2.63
2015.782 2.67 2.68 2.68 2.71 2.71 2.72 2.72 2.75 2.77 2.68
2035.072 2.6 2.59 2.57 2.55 2.45 2.36 2.34 2.26 2.19 2.14
2054.362 2.11 2.12 2.09 2.04 2 1.96 1.93 1.86 1.81 1.77
2073.651 1.71 1.7 1.65 1.59 1.54 1.51 1.55 1.53 1.48 1.42
2092.941 1.38 1.3327 1.316 1.308 1.2894 1.2716 1.2565 1.2385 1.2379 1.2438
2112.231 1.1975 1.1893 1.139 1.0653 1.0826 1.0978 1.0861 1.0606 1.0119 0.9852
2131.521 0.9422 0.874 0.8702 0.9614 0.9902 0.9218 0.8656 0.8843 0.8834 0.9434
2150.810 0.9718 0.892 0.9019 0.9369 0.9438 0.9329 0.9637 1.0004 0.9429 0.9012
2170.100 0.9338 0.9529 0.8909 0.8308 0.7649 0.7725 0.8227 0.7979 0.8707 0.9155
2189.390 0.8727 0.833 0.8393 0.8427 0.8764 0.9202 0.9117 0.9384 0.942 0.9371
2208.680 0.9431 0.8825 0.8748 0.9041 0.9297 0.996 0.991 0.9744 1.0035 0.9721
2227.970 0.9879 1.056 1.0262 1.0059 1.0691 1.1375 1.1435 1.1153 1.116 1.1681
2247.259 1.2201 1.2596 1.2797 1.2547 1.2684 1.2238 1.1472 1.1213 1.1425 1.1987
2266.549 1.1928 1.2034 1.2097 1.1828 1.1838 1.1448 1.1729 1.2163 1.1769 1.0972
2285.839 1.0858 1.1104 1.0249 0.9607 0.9288 0.9063 0.868 0.882 0.927 0.9228
2305.129 0.9486 1.0177 1.0622 1.0733 1.1777 1.1979 1.1262 1.0896 1.0287 0.9429
2324.418 0.9014 0.8881 0.902 0.9465 0.9837 1.0204 1.009 1.051 1.0728 1.0141
2343.708 1.0314 1.0137 0.9843 0.9488 0.8941 0.8397 0.8472 0.9611 0.9426 0.9137
2362.998 0.8852 0.8957 0.9461 0.9271 0.9008 0.9156 0.8189 0.7602 0.8819 0.9344
2382.288 0.851 0.7675 0.7541 0.6438 0.5942 0.6873 0.715 0.7391 0.7227 0.7111
2401.578 0.6594 0.5709 0.5946 0.6528 0.6673 0.6717 0.6851 0.6973 0.7309 0.7462
2420.867 0.7737 0.7139 0.6311 0.641 0.682 0.7016 0.7196 0.653 0.6456 0.73
2440.157 0.7647 0.8359 0.8498 0.7585 0.7518 0.8136 0.8769 0.8788 0.8531 0.824
2459.447 0.844 0.8639 0.8588 0.8535 0.8446 0.8571 0.8467 0.9153 0.9304 0.8598
2478.737 0.8724 0.9462 0.9569 1.0073 0.994 0.9379 0.9144 0.8979 0.9642 1.0521
2498.026 1.1008 1.0984 1.1636 1.2044 1.1524 1.1773 1.2803 1.285 1.2849 1.2977
2517.316 1.2674 1.2235 1.2007 1.1975 1.1485 1.1462 1.13 1.0939 1.0825 1.1012
2536.606 1.1286 1.0383 0.9833 0.9323 0.9081 0.9172 0.8157 0.7624 0.7804 0.7957
2555.896 0.7086 0.6502 0.6588 0.6826 0.7256 0.7155 0.6256 0.6311 0.7249 0.7465
2575.186 0.65 0.6228 0.7048 0.783 0.8576 0.8362 0.7861 0.802 0.9072 0.9747
2594.475 0.9605 0.9952 0.968 0.9171 0.954 0.9226 0.8008 0.8314 0.8698 0.7909
2613.765 0.7803 0.8715 0.9049 0.7965 0.8286 0.9187 0.9133 0.8686 0.8422 0.8165
2633.055 0.7833 0.8398 0.8056 0.7643 0.8237 0.7507 0.8474 0.8871 0.749 0.7129
2652.345 0.6511 0.6864 0.7507 0.7283 0.7402 0.7902 0.7354 0.6391 0.6572 0.6287
2671.634 0.6138 0.6387 0.6321 0.679 0.7261 0.7133 0.7991 0.9022 0.798 0.6799
2690.924 0.7347 0.8824 0.9171 0.8653 0.8978 0.9058 0.9749 1.0539 0.9775 0.8668
2710.214 0.9131 0.939 0.8311 0.8283 0.9396 0.9258 0.8775 0.9017 0.8887 0.9014
2729.504 0.8813 0.8657 0.9015 0.8839 0.9019 1.0234 1.0806 1.0637 1.0467 1.0596
2748.794 1.0707 1.134 1.1235 1.0751 1.1133 1.1976 1.2037 1.1537 1.1802 1.2438
2768.083 1.2847 1.34 1.41 1.43 1.51 1.61 1.67 1.69 1.65 1.69
2787.373 1.88 1.98 2.14 2.34 2.38 2.5 2.76 2.99 3.23 3.5
2806.663 3.77 4.1 4.37 4.65 5.21 5.81 6.43 7.26 8.17 9.34
2825.953 10.9 12.67 14.55 16.39 17.86 18.79 19.19 19.04 18.33 17.13
2845.242 15.54 13.89 12.32 10.95 9.97 9.41 8.88 8.37 8.12 7.96
2864.532 7.89 7.89 7.96 7.98 7.92 7.93 8.04 8.24 8.36 8.57
2883.822 8.8 8.92 9.23 9.64 9.98 10.39 10.87 11.45 12.06 12.62
2903.112 13.28 13.94 14.37 14.84 15.36 15.61 15.77 15.95 16.07 16.26
2922.401 16.62 17.08 17.8 18.83 20.09 21.62 23.27 24.8 26.05 27
2941.691 27.51 27.55 27.26 26.65 25.72 24.44 22.81 21.11 19.36 17.79
2960.981 16.48 15.18 14.12 13.13 12.3 11.93 11.71 11.5 11.46 11.61
2980.271 12.02 12.62 13.26 14.12 15.33 16.64 18.02 19.43 20.63 21.58
2999.561 22.12 22.26 22.07 21.49 20.77 20.12 19.87 20.14 20.93 22.22
3018.850 23.89 25.83 27.84 29.69 31.15 32.08 32.6 32.74 32.41 31.74
3038.140 30.81 29.82 28.86 27.98 27.44 27.08 26.83 27.22 28.06 29.36
3057.430 31.16 33.1 35 36.6 37.65 37.55 36.36 34.62 32.31 29.76
3076.720 27.42 25.29 23.64 22.39 21.16 20.08 18.89 17.38 16 14.67
3096.009 13.27 11.92 10.81 10.07 9.43 8.71 8.06 7.52 6.88 6.28
3115.299 5.86 5.47 4.93 4.36 3.94 3.68 3.41 2.99 2.7 2.64
3134.589 2.44 2.26 2.27 2.17 2.01 1.99 1.99 1.8 1.73 1.76
3153.879 1.66 1.76 1.66 1.39 1.2672 1.1639 1.1615 1.1073 1.0239 0.9324
3173.169 0.9819 0.9074 0.7502 0.9303 0.9829 0.9 0.8662 0.7812 0.748 0.7782
3192.458 0.8128 0.8852 0.9465 0.9322 0.9583 0.9809 1.011 1.0164 1.0366 1.0373
3211.748 0.9848 0.9958 0.983 0.9709 1.0521 1.0634 0.9472 0.8067 0.7037 0.8168
3231.038 0.921 0.8533 0.6769 0.7146 0.8668 0.7948 0.9052 1.0717 1.0282 1.0591
3250.328 1.1236 1.0201 0.9469 1.0478 1.1071 0.8333 0.6278 0.6115 0.6855 0.7989
3269.617 0.689 0.5642 0.5381 0.5774 0.5688 0.5609 0.4916 0.4761 0.4407 0.2913
3288.907 0.33151 0.347569 0.3184 0.342399 0.196 0.093 0.203 0.345672 0.33698 0.2416
3308.197 0.2488 0.195 0.086 0.071 0.184 0.179 0.103 0.221 0.2915 0.2771
3327.487 0.2597 0.202 0.2464 0.268 0.018 0.051 0.2489 0.2476 0.2502 0.172
3346.777 0.098 0.086 0.176 0.4155 0.4597 0.38636 0.4498 0.5126 0.6399 0.6205
3366.066 0.6284 0.6791 0.7256 0.9444 1.0503 1.1704 1.4 1.56 1.72 1.87
3385.356 2.11 2.62 3.19 3.61 4.06 4.56 5.19 5.77 5.9 5.96
3404.646 6.06 5.77 5.36 4.79 4.2 3.6 3.04 2.5 1.91 1.65
3423.936 1.63 1.54 1.35 1.34 1.2819 1.1925 1.1743 1.1477 1.0779 1.1096
3443.225 1.34 1.44 1.43 1.35 1.37 1.51 1.52 1.47 1.67 1.96
3462.515 2.16 2.53 2.81 2.92 3.1 3.48 3.92 4.24 4.56 4.96
3481.805 5.3 5.5 5.48 5.24 4.91 4.43 3.85 3.31 2.69 2.12
3501.095 1.84 1.67 1.38 1.0963 0.9464 0.8892 0.8514 0.7527 0.702 0.7214
3520.385 0.7506 0.7709 0.7602 0.8035 0.7448 0.6795 0.5624 0.5165 0.43568 0.33743
3539.674 0.3267 0.3789 0.36898 0.205 0.2549 0.36608 0.177 0.141 0.238 0.2482
3558.964 0.3127 0.096 0.018 0.064 0 0.073 0.312 0.40916 0.33432 0.2741
3578.254 0.173 0.04 0.098 0.212 0.214 0.141 0.037 0.054 0.021 0.135
3597.544 0.2623 0.2748 0.2817 0.141 0.195 0.4175 0.3194 0.113 0.096 0.113
3616.833 0.126 0.212 0.2709 0.212 0.2611 0.3125 0.226 0.178 0.174 0.154
3636.123 0.2539 0.2696 0.2514 0.35721 0.2979 0.2932 0.2478 0.142 0.2793 0.42489
3655.413 0.4697 0.4667 0.38106 0.36268 0.3781 0.43855 0.35584 0.340737 0.33893 0.123
3674.703 0.2849 0.4825 0.36527 0.38702 0.38513 0.39762 0.38976 0.36862 0.37541 0.33294
3693.993 0.4735 0.41344 0.2776 0.2963 0.222 0.36112 0.4911 0.33707 0.2407 0.2543
3713.282 0.39676 0.40921 0.40162 0.33711 0.184 0.2869 0.43701 0.3111 0.159 0.159
3732.572 0.138 0.171 0.2795 0.3009 0.2488 0.174 0.14 0.175 0.181 0.233
3751.862 0.3143 0.2866 0.145 0.123 0.226 0.326 0.3297 0.184 0.203 0.40666
3771.152 0.5327 0.5052 0.37048 0.3025 0.347104 0.35631 0.269 0.268 0.3108 0.161
3790.441 0.12 0.226 0.2434 0.232 0.33087 0.43308 0.5243 0.6156 0.4797 0.269
3809.731 0.238 0.3123 0.2518 0.199 0.3043 0.223 0.2713 0.38504 0.35258 0.2768
3829.021 0.146 0.178 0.154 0.207 0.3231 0.3221 0.3089 0.177 0.112 0.168
3848.311 0.13 0.055 0.028 0.027 0.17 0.2517 0.14 0.191 0.3233 0.3186
3867.601 0.4826 0.5022 0.36989 0.36759 0.37845 0.40689 0.4027 0.4757 0.4415 0.40159
3886.890 0.5079 0.6237 0.6135 0.5586 0.6046 0.6588 0.6895 0.8272 0.7524 0.7156
3906.180 0.7959 0.6589 0.6333 0.5469 0.44 0.5059 0.684 0.7769 0.6516 0.6398
3925.470 0.5975 0.5291 0.5862 0.6547 0.7015 0.6787 0.6376 0.6381 0.7228 0.6208
3944.760 0.4867 0.4915 0.7119 0.7216 0.6389 0.6444 0.5446 0.6211 0.6054 0.55
3964.049 0.5638 0.6204 0.5436 0.4784 0.5418 0.5927 0.6382 0.7824 0.8691 0.8047
3983.339 0.7444 0.7403 0.7998 0.7555 0.713 0.7838 0.8899 0.9435 0.8419 0.6847
##END=
