##TITLE=p-Toluenesulphonylacetonitrile
##JCAMP-DX=4.24
##DATA TYPE=INFRARED SPECTRUM
##ORIGIN=EPA-IR VAPOR PHASE LIBRARY
##OWNER=SRD/NIST
Collection (C) 2018 copyright by the U.S. Secretary of Commerce
on behalf of the United States of America. All rights reserved.
##CAS REGISTRY NO=5697-44-9
##MOLFORM=C 9 H 9 N O 2 S
##$NIST SOURCE=MSDC-IR
##STATE=gas
##XUNITS=1/CM
##YUNITS=ABSORBANCE
##XFACTOR=1.
##YFACTOR=0.001
##DELTAX=1.92934
##FIRSTX=549.9
##LASTX=3999.5
##FIRSTY=0.8178
##MAXX=3999.53
##MINX=549.863
##MAXY=0.009217
##MINY=0
##NPOINTS=1789
##XYDATA=(X++(Y..Y))
549.863 0.8178 0.8383 0.7719 0.8147 1.0946 1.2633 1.347 1.667 2.017 2.337
569.156 2.777 3.017 3.247 3.567 3.667 3.577 3.277 2.937 2.667 2.337
588.450 1.947 1.597 1.311 1.0236 0.8478 0.7685 0.7166 0.6095 0.5607 0.6508
607.743 0.6629 0.6276 0.706 0.8162 0.9515 1.1701 1.3088 1.407 1.477 1.497
627.037 1.497 1.387 1.2328 1.0716 0.9027 0.8061 0.6983 0.6483 0.6012 0.5771
646.330 0.6085 0.6103 0.6348 0.6004 0.5861 0.6233 0.6957 0.782 0.8499 0.9532
665.624 1.0185 1.028 1.0256 0.9705 0.8869 0.8882 0.8637 0.7026 0.6359 0.6148
684.917 0.5553 0.5879 0.5607 0.531 0.6192 0.6776 0.6559 0.5829 0.5847 0.6073
704.210 0.6097 0.6027 0.5923 0.635 0.6941 0.7296 0.7903 0.9006 1.0097 1.1388
723.504 1.327 1.527 1.747 2.077 2.497 2.997 3.497 4.007 4.337 4.457
742.797 4.497 4.287 3.877 3.387 2.807 2.187 1.707 1.337 1.0246 0.8505
762.091 0.7677 0.6713 0.5777 0.5701 0.5613 0.5475 0.5603 0.5713 0.5837 0.6251
781.384 0.632 0.6276 0.7068 0.8112 0.7997 0.7642 0.8295 0.8786 0.9012 0.9798
800.678 1.0917 1.2609 1.447 1.517 1.597 1.737 1.817 1.767 1.657 1.507
819.971 1.367 1.2364 1.0703 0.923 0.7857 0.6908 0.6471 0.6078 0.5795 0.607
839.264 0.6635 0.6863 0.7092 0.726 0.713 0.7687 0.8617 0.9716 1.109 1.3159
858.558 1.637 1.887 2.087 2.337 2.487 2.477 2.427 2.327 2.067 1.747
877.851 1.427 1.1318 0.9583 0.8525 0.7346 0.6337 0.5506 0.5016 0.4742 0.4674
897.145 0.40656 0.36069 0.38574 0.39355 0.37807 0.38282 0.40055 0.40043 0.41419 0.4292
916.438 0.40157 0.3976 0.41047 0.39905 0.39472 0.38325 0.37797 0.37837 0.34083 0.32073
935.732 0.3223 0.336211 0.38236 0.3735 0.3496 0.3148 0.331347 0.38717 0.36932 0.36949
955.025 0.3638 0.36887 0.37853 0.32599 0.332162 0.39321 0.37035 0.34031 0.334075 0.328658
974.318 0.335502 0.3075 0.3046 0.31808 0.331782 0.35779 0.37138 0.36278 0.3105 0.2935
993.612 0.3 0.2911 0.330721 0.36896 0.3452 0.329654 0.37639 0.39464 0.427 0.5143
1012.905 0.5482 0.5818 0.6037 0.5804 0.5904 0.5867 0.5401 0.4983 0.4512 0.40586
1032.199 0.40376 0.39266 0.40347 0.4447 0.4414 0.4398 0.4523 0.4494 0.4985 0.4946
1051.492 0.4579 0.4697 0.4274 0.4434 0.4909 0.4832 0.4754 0.5156 0.5674 0.611
1070.786 0.6828 0.7763 0.9155 1.0562 1.2033 1.397 1.607 1.817 1.987 2.047
1090.079 2.067 2.027 1.917 1.727 1.457 1.2414 1.0457 0.9282 0.8448 0.7051
1109.372 0.6684 0.6519 0.6151 0.6442 0.6536 0.6085 0.6132 0.7643 0.8987 0.9985
1128.666 1.0849 1.2377 1.447 1.737 2.117 2.557 3.067 3.467 3.827 4.107
1147.959 4.177 4.117 4.107 4.097 4.057 4.117 4.447 5.117 6.037 7.227
1167.253 8.337 8.987 9.217 9.107 8.657 7.807 6.597 5.047 3.667 2.757
1186.546 2.187 1.847 1.697 1.597 1.457 1.427 1.32 1.181 1.0529 1.1223
1205.840 1.397 1.527 1.2943 1.1999 1.0907 1.0401 1.2488 1.477 1.657 1.647
1225.133 1.617 1.547 1.637 2.007 2.047 2.167 2.457 2.427 2.257 2.037
1244.426 1.837 1.617 1.367 1.1516 0.9808 0.8522 0.7847 0.7757 0.6675 0.6258
1263.720 0.6845 0.6874 0.6679 0.6681 0.7052 0.7057 0.6671 0.6933 0.7639 0.7709
1283.013 0.7746 0.8469 0.8101 0.7175 0.6949 0.6776 0.7139 0.7299 0.6906 0.6774
1302.307 0.6984 0.7635 0.816 0.7845 0.7277 0.7089 0.6718 0.6138 0.6008 0.6216
1321.600 0.5972 0.572 0.6003 0.6378 0.6822 0.7066 0.737 0.7811 0.8551 0.9973
1340.894 1.1276 1.274 1.477 1.707 2.037 2.467 2.987 3.637 4.417 5.317
1360.187 6.237 7.097 7.807 8.307 8.477 8.187 7.467 6.627 5.687 4.687
1379.480 3.807 3.077 2.477 2.057 1.787 1.657 1.597 1.577 1.607 1.637
1398.774 1.677 1.647 1.537 1.507 1.447 1.327 1.2067 1.1151 1.0068 0.9505
1418.067 0.91 0.8403 0.8035 0.7881 0.7646 0.7239 0.6615 0.6365 0.6564 0.6989
1437.361 0.6854 0.5969 0.5616 0.5613 0.5619 0.5581 0.56 0.5494 0.5418 0.5508
1456.654 0.5974 0.5702 0.5118 0.5182 0.5658 0.5453 0.5105 0.5522 0.5923 0.5924
1475.948 0.5576 0.5344 0.5398 0.5934 0.6268 0.6946 0.7818 0.7999 0.8125 0.7911
1495.241 0.7681 0.7976 0.7835 0.7219 0.6408 0.5944 0.6291 0.5569 0.4836 0.4721
1514.534 0.41538 0.44 0.4827 0.5357 0.5551 0.5163 0.499 0.4498 0.42106 0.4229
1533.828 0.4454 0.4519 0.4753 0.5209 0.4928 0.475 0.4787 0.4537 0.4467 0.42297
1553.121 0.4286 0.4826 0.5009 0.5172 0.4982 0.4616 0.4676 0.4911 0.5146 0.5378
1572.415 0.5484 0.5669 0.5829 0.6203 0.7008 0.7527 0.8131 0.8748 0.984 1.1514
1591.708 1.2518 1.367 1.467 1.477 1.467 1.407 1.2672 1.1322 0.9946 0.8637
1611.002 0.7751 0.6922 0.6578 0.669 0.6079 0.5834 0.5656 0.5002 0.4588 0.41863
1630.295 0.427 0.4883 0.4921 0.4644 0.4399 0.41498 0.4294 0.4413 0.5055 0.5414
1649.588 0.507 0.5237 0.509 0.4216 0.38821 0.38359 0.37564 0.38031 0.36861 0.34728
1668.882 0.36593 0.37224 0.329116 0.334272 0.35293 0.34249 0.3405 0.35601 0.36603 0.34497
1688.175 0.328666 0.2978 0.2847 0.32538 0.34917 0.35796 0.36528 0.330594 0.336269 0.335505
1707.469 0.326177 0.33888 0.3163 0.298 0.34377 0.38107 0.34869 0.34344 0.333578 0.3031
1726.762 0.3122 0.33701 0.36347 0.40531 0.38348 0.32386 0.3252 0.31875 0.3041 0.332173
1746.056 0.35104 0.327488 0.34603 0.35078 0.3126 0.34075 0.39131 0.40492 0.38176 0.34647
1765.349 0.3506 0.38824 0.37965 0.39046 0.40402 0.3587 0.34105 0.35406 0.35558 0.34363
1784.642 0.35125 0.37168 0.35423 0.35658 0.39986 0.40475 0.38968 0.39296 0.4074 0.4363
1803.936 0.41717 0.3968 0.37955 0.335802 0.34188 0.3046 0.2629 0.2699 0.2888 0.328844
1823.229 0.332781 0.313 0.2856 0.2469 0.2644 0.288 0.2686 0.2798 0.3111 0.32283
1842.523 0.2868 0.2672 0.2632 0.2611 0.286 0.2757 0.2516 0.2535 0.2804 0.3047
1861.816 0.2919 0.2845 0.2998 0.2873 0.2884 0.2966 0.2832 0.2791 0.2844 0.2931
1881.110 0.312 0.3154 0.3073 0.2994 0.2908 0.2961 0.34586 0.36771 0.326548 0.34338
1900.403 0.3535 0.34971 0.35109 0.37779 0.41935 0.41555 0.41649 0.41957 0.4091 0.42213
1919.696 0.4459 0.437 0.41402 0.36936 0.35642 0.36701 0.34428 0.332408 0.34549 0.333648
1938.990 0.2961 0.2652 0.2907 0.302 0.272 0.2915 0.2982 0.2628 0.247 0.2603
1958.283 0.2761 0.2846 0.2787 0.2819 0.2851 0.2708 0.2441 0.2489 0.2738 0.2785
1977.577 0.2831 0.2772 0.2705 0.2759 0.2714 0.285 0.2971 0.2864 0.2794 0.2789
1996.870 0.2934 0.3144 0.2954 0.2441 0.2546 0.2796 0.26 0.2915 0.32488 0.2831
2016.164 0.2776 0.2772 0.2592 0.2554 0.2625 0.2916 0.285 0.28 0.2895 0.2759
2035.457 0.2637 0.2703 0.2714 0.2707 0.285 0.2842 0.2808 0.2482 0.221 0.2501
2054.750 0.2732 0.2668 0.2635 0.2596 0.2403 0.2317 0.2739 0.2926 0.2394 0.216
2074.044 0.226 0.2422 0.2666 0.2621 0.2461 0.2502 0.2614 0.2594 0.2639 0.2432
2093.337 0.216 0.2293 0.273 0.2973 0.3016 0.2735 0.224 0.219 0.225 0.2337
2112.631 0.2473 0.2746 0.2646 0.2433 0.2413 0.2275 0.226 0.227 0.2329 0.2385
2131.924 0.208 0.193 0.218 0.217 0.225 0.2405 0.2381 0.243 0.2276 0.2305
2151.218 0.215 0.19 0.204 0.216 0.2367 0.25 0.224 0.213 0.2429 0.243
2170.511 0.2472 0.263 0.2553 0.2444 0.2337 0.2416 0.2696 0.268 0.225 0.213
2189.804 0.2343 0.2301 0.221 0.2315 0.227 0.2311 0.226 0.2278 0.2426 0.2546
2209.098 0.261 0.2429 0.2331 0.219 0.2607 0.2935 0.2617 0.2606 0.2514 0.2395
2228.391 0.2597 0.2725 0.2728 0.2597 0.2425 0.224 0.2473 0.254 0.2406 0.2617
2247.685 0.2762 0.2793 0.2699 0.3048 0.344 0.3128 0.2891 0.288 0.2903 0.301
2266.978 0.2953 0.2938 0.2924 0.2711 0.2573 0.2613 0.2654 0.2649 0.2527 0.2414
2286.272 0.2493 0.2502 0.2416 0.2677 0.3034 0.2867 0.2433 0.263 0.3137 0.2939
2305.565 0.2484 0.2508 0.2508 0.2619 0.2779 0.2731 0.2875 0.2498 0.2498 0.2707
2324.858 0.2719 0.2976 0.2781 0.2538 0.2452 0.265 0.2707 0.2602 0.2895 0.2945
2344.152 0.2512 0.223 0.2559 0.2875 0.2647 0.2513 0.2564 0.255 0.2538 0.2598
2363.445 0.2642 0.2708 0.2752 0.2713 0.2696 0.2609 0.2529 0.2527 0.2496 0.266
2382.739 0.2904 0.2629 0.217 0.221 0.221 0.213 0.2303 0.2294 0.19 0.214
2402.032 0.2685 0.2328 0.2282 0.2318 0.2333 0.2289 0.208 0.222 0.227 0.216
2421.326 0.216 0.2279 0.222 0.2492 0.2472 0.2373 0.2942 0.2889 0.2423 0.2408
2440.619 0.2622 0.2475 0.2358 0.2509 0.2385 0.2378 0.2751 0.2831 0.2431 0.218
2459.912 0.2409 0.256 0.258 0.2829 0.2286 0.197 0.2413 0.2828 0.2607 0.212
2479.206 0.2358 0.2539 0.2639 0.2737 0.2544 0.202 0.201 0.2301 0.213 0.203
2498.499 0.209 0.2296 0.2599 0.2379 0.2324 0.2724 0.2722 0.2628 0.2427 0.2491
2517.793 0.2652 0.2446 0.2386 0.264 0.2514 0.227 0.2506 0.2323 0.21 0.192
2537.086 0.169 0.186 0.197 0.196 0.193 0.174 0.175 0.214 0.217 0.178
2556.380 0.194 0.213 0.199 0.2387 0.2534 0.2485 0.2668 0.247 0.221 0.207
2575.673 0.222 0.2384 0.2342 0.2462 0.2604 0.2399 0.2272 0.2338 0.211 0.192
2594.966 0.2465 0.268 0.209 0.168 0.179 0.2331 0.2377 0.206 0.203 0.206
2614.260 0.177 0.127 0.117 0.137 0.156 0.158 0.142 0.163 0.201 0.211
2633.553 0.209 0.2332 0.2299 0.203 0.175 0.149 0.12 0.12 0.189 0.18
2652.847 0.131 0.177 0.202 0.177 0.194 0.197 0.158 0.137 0.174 0.19
2672.140 0.168 0.155 0.137 0.148 0.156 0.163 0.208 0.168 0.171 0.2462
2691.434 0.195 0.103 0.117 0.189 0.176 0.119 0.123 0.164 0.17 0.198
2710.727 0.201 0.154 0.192 0.206 0.166 0.202 0.199 0.133 0.143 0.144
2730.020 0.113 0.168 0.213 0.2306 0.196 0.174 0.174 0.192 0.2439 0.2528
2749.314 0.2769 0.2302 0.178 0.199 0.165 0.116 0.164 0.218 0.231 0.185
2768.607 0.146 0.154 0.149 0.151 0.149 0.162 0.16 0.163 0.187 0.2322
2787.901 0.2338 0.133 0.089 0.152 0.173 0.124 0.129 0.154 0.172 0.2
2807.194 0.162 0.165 0.2482 0.2773 0.261 0.2669 0.2432 0.218 0.2492 0.2605
2826.488 0.2295 0.178 0.116 0.142 0.137 0.118 0.183 0.2511 0.2528 0.216
2845.781 0.2408 0.2995 0.35212 0.334471 0.2876 0.285 0.3044 0.2972 0.2662 0.2339
2865.074 0.2521 0.32874 0.35759 0.40068 0.40867 0.36684 0.36168 0.336014 0.35041 0.40719
2884.368 0.40018 0.37104 0.33735 0.38332 0.41662 0.40802 0.42296 0.41504 0.39687 0.34566
2903.661 0.39308 0.4281 0.37348 0.35752 0.39017 0.4535 0.5109 0.4797 0.41307 0.4254
2922.955 0.5079 0.5822 0.5996 0.6109 0.6782 0.7148 0.7591 0.8098 0.7494 0.6899
2942.248 0.737 0.7793 0.7698 0.7468 0.6841 0.6461 0.6024 0.4906 0.38973 0.37191
2961.542 0.38956 0.34297 0.2943 0.2685 0.2767 0.35262 0.4038 0.32479 0.32566 0.37751
2980.835 0.32303 0.31915 0.3865 0.329781 0.2733 0.36247 0.40265 0.38047 0.4346 0.4801
3000.128 0.4472 0.38785 0.42045 0.478 0.5045 0.4956 0.472 0.469 0.4943 0.5006
3019.422 0.42433 0.4271 0.5083 0.573 0.5521 0.521 0.5573 0.6051 0.5997 0.6672
3038.715 0.6504 0.5499 0.6184 0.7153 0.7443 0.8239 0.8104 0.7254 0.6549 0.6316
3058.009 0.5924 0.4692 0.4504 0.5651 0.5915 0.5548 0.666 0.7235 0.6953 0.6879
3077.302 0.6553 0.6224 0.5125 0.34843 0.3066 0.262 0.279 0.3158 0.36421 0.3509
3096.596 0.22 0.2794 0.2727 0.196 0.2378 0.2458 0.211 0.186 0.169 0.222
3115.889 0.182 0.106 0.11 0.105 0.144 0.123 0.148 0.2437 0.2765 0.2564
3135.182 0.2497 0.175 0.109 0.153 0.216 0.2998 0.2961 0.2699 0.182 0.138
3154.476 0.182 0.2711 0.32024 0.2344 0.196 0.204 0.182 0.209 0.2503 0.187
3173.769 0.209 0.221 0.143 0.202 0.148 0.061 0.132 0.132 0.151 0.19
3193.063 0.132 0.122 0.145 0.124 0.152 0.326628 0.39386 0.2674 0.2407 0.2501
3212.356 0.2634 0.226 0.134 0.134 0.145 0.177 0.174 0.191 0.273 0.172
3231.650 0.067 0.081 0.162 0.2523 0.278 0.226 0.088 0.095 0.163 0.181
3250.943 0.098 0.089 0.179 0.2457 0.2633 0.12 0.139 0.2523 0.2896 0.2608
3270.236 0.223 0.214 0.202 0.128 0.143 0.217 0.15 0.093 0.055 0.139
3289.530 0.2567 0.2365 0.2 0.172 0.274 0.2317 0.139 0.194 0.225 0.3011
3308.823 0.3608 0.292 0.2382 0.2572 0.147 0.046 0 0.087 0.2479 0.189
3328.117 0.189 0.2946 0.3129 0.219 0.172 0.2414 0.179 0.17 0.2767 0.2637
3347.410 0.193 0.198 0.3159 0.38209 0.35203 0.2986 0.2537 0.2274 0.221 0.2335
3366.704 0.159 0.179 0.2868 0.2968 0.223 0.272 0.2655 0.17 0.205 0.162
3385.997 0.083 0.091 0.216 0.34945 0.212 0.104 0.168 0.119 0.071 0.146
3405.290 0.135 0.098 0.2326 0.32874 0.3111 0.2773 0.205 0.145 0.157 0.162
3424.584 0.2422 0.36302 0.2898 0.194 0.2672 0.2708 0.253 0.37889 0.4383 0.329135
3443.877 0.2306 0.2655 0.2447 0.2597 0.2308 0.172 0.238 0.221 0.173 0.167
3463.171 0.143 0.17 0.087 0.075 0.201 0.221 0.226 0.162 0.202 0.287
3482.464 0.2391 0.163 0.165 0.2313 0.2736 0.2502 0.183 0.215 0.216 0.193
3501.758 0.2607 0.2473 0.207 0.162 0.138 0.102 0.115 0.133 0.138 0.181
3521.051 0.2331 0.33972 0.36676 0.2922 0.213 0.138 0.141 0.21 0.194 0.133
3540.344 0.2 0.204 0.153 0.105 0.075 0.088 0.138 0.216 0.2355 0.329489
3559.638 0.34102 0.2902 0.34783 0.35383 0.2902 0.3137 0.336054 0.222 0.11 0.064
3578.931 0.152 0.2297 0.214 0.2891 0.3045 0.2572 0.185 0.137 0.213 0.2325
3598.225 0.2281 0.2751 0.2554 0.204 0.211 0.3071 0.2999 0.259 0.2642 0.23
3617.518 0.202 0.198 0.163 0.194 0.2612 0.2981 0.37708 0.41925 0.33872 0.2275
3636.812 0.2591 0.273 0.2286 0.213 0.213 0.202 0.207 0.35731 0.333733 0.203
3656.105 0.2338 0.2973 0.2363 0.126 0.179 0.2624 0.252 0.159 0.148 0.223
3675.398 0.214 0.215 0.2702 0.2442 0.156 0.067 0.037 0.11 0.163 0.125
3694.692 0.185 0.2348 0.2542 0.2803 0.169 0.185 0.2952 0.32384 0.3116 0.2678
3713.985 0.3097 0.273 0.18 0.173 0.192 0.2505 0.2521 0.2534 0.19 0.2553
3733.279 0.3036 0.2519 0.2897 0.2585 0.2542 0.2626 0.213 0.19 0.2332 0.2608
3752.572 0.2761 0.2667 0.219 0.159 0.185 0.164 0.139 0.192 0.176 0.164
3771.866 0.145 0.174 0.171 0.12 0.148 0.133 0.1 0.131 0.185 0.212
3791.159 0.221 0.187 0.111 0.122 0.186 0.219 0.213 0.146 0.14 0.2585
3810.452 0.2766 0.199 0.167 0.186 0.2366 0.266 0.209 0.17 0.2794 0.2384
3829.746 0.161 0.239 0.2535 0.251 0.167 0.11 0.138 0.176 0.195 0.161
3849.039 0.176 0.2477 0.247 0.178 0.116 0.138 0.212 0.2277 0.2723 0.2324
3868.333 0.126 0.152 0.196 0.199 0.2669 0.312 0.2996 0.236 0.209 0.2748
3887.626 0.2518 0.194 0.205 0.22 0.222 0.208 0.174 0.122 0.131 0.158
3906.920 0.154 0.185 0.173 0.127 0.189 0.221 0.141 0.116 0.166 0.148
3926.213 0.146 0.2338 0.224 0.189 0.2392 0.2993 0.3139 0.2608 0.195 0.154
3945.506 0.163 0.2513 0.184 0.062 0.113 0.145 0.154 0.215 0.203 0.136
3964.800 0.17 0.169 0.161 0.2447 0.255 0.179 0.083 0.044 0.046 0.072
3984.093 0.156 0.17 0.187 0.139 0.118 0.168 0.123 0.133 0.109
##END=
