##TITLE=17.-alpha.-Estradiol
##JCAMP-DX=4.24
##DATA TYPE=INFRARED SPECTRUM
##ORIGIN=EPA-IR VAPOR PHASE LIBRARY
##OWNER=SRD/NIST
Collection (C) 2018 copyright by the U.S. Secretary of Commerce
on behalf of the United States of America. All rights reserved.
##CAS REGISTRY NO=57-91-0
##MOLFORM=C 18 H 24 O 2
##$NIST SOURCE=MSDC-IR
##STATE=gas
##XUNITS=1/CM
##YUNITS=ABSORBANCE
##XFACTOR=1.
##YFACTOR=0.001
##DELTAX=3.85796
##FIRSTX=501.5
##LASTX=4000.7
##FIRSTY=0.4502
##MAXX=4000.7
##MINX=501.534
##MAXY=0.02185
##MINY=0.0001382
##NPOINTS=908
##XYDATA=(X++(Y..Y))
501.534 0.4502 0.416 0.449 0.656 0.6886 0.5494 0.6398 0.7402 0.7038 0.674
540.114 0.6367 0.5595 0.4887 0.5637 0.6648 0.8341 1.11 1.22 1.08 0.7904
578.693 0.6267 0.5244 0.3848 0.3458 0.3047 0.3179 0.3148 0.275 0.3392 0.5083
617.273 0.5805 0.6593 0.754 0.6798 0.6736 0.7077 0.7158 0.6649 0.5886 0.5067
655.852 0.4271 0.4045 0.3819 0.4069 0.4613 0.4492 0.4204 0.3962 0.3624 0.3507
694.432 0.3606 0.3799 0.4093 0.4699 0.4929 0.4382 0.4363 0.5356 0.6557 0.7776
733.011 0.7946 0.6449 0.4845 0.4529 0.5047 0.5882 0.7009 0.772 0.9072 1.1
771.591 1.29 1.61 1.98 2.19 2.16 1.92 1.64 1.45 1.36 1.37
810.170 1.48 1.53 1.48 1.44 1.39 1.41 1.64 1.97 2.22 2.24
848.750 2.04 1.84 1.81 1.85 1.9 1.9 1.85 1.7 1.53 1.43
887.330 1.26 1.09 1.07 1.19 1.54 2.26 3.32 4.25 4.41 3.76
925.909 3.05 2.63 2.34 2.34 2.51 2.4 2.03 1.67 1.56 1.68
964.489 1.88 2.06 2.06 2.02 2.01 1.9 1.83 1.89 1.89 1.9
1003.068 2.08 2.26 2.36 2.26 2.15 2.2 2.4 2.67 2.86 3.02
1041.648 3.15 3.35 3.57 3.56 3.28 3.16 3.3 3.36 3.3 3.11
1080.227 2.82 2.66 2.77 2.99 3.18 3.15 2.94 2.91 3 3.07
1118.807 3.13 3.11 3.15 3.54 4.25 5.1 5.93 6.5 6.48 6.1
1157.387 5.92 6.11 6.79 8.31 10.62 12.68 13.42 13.1 12.75 12.65
1195.966 12.06 10.51 8.74 7.27 6.13 5.51 5.26 5.22 5.34 5.45
1234.546 5.68 6.05 6.24 6.47 6.97 7.55 7.69 7.16 6.33 5.87
1273.125 6.15 6.81 7.31 7.02 5.93 4.62 3.59 2.99 2.7 2.51
1311.705 2.33 2.21 2.18 2.25 2.37 2.61 2.93 3.12 3.02 2.75
1350.284 2.55 2.42 2.26 2.06 1.98 2.12 2.49 2.97 3.31 3.21
1388.864 2.66 2.05 1.61 1.39 1.31 1.31 1.37 1.5 1.74 2.16
1427.443 2.78 3.59 4.38 4.74 4.56 4.13 3.72 3.45 3.28 3.09
1466.023 2.88 2.79 2.92 3.29 4.09 5.35 7.05 9.07 10.98 11.65
1504.603 10.16 7.28 4.69 2.89 1.89 1.4 1.15 1.04 0.9743 0.9082
1543.182 0.9265 0.9758 1.02 1.09 1.16 1.34 1.57 1.83 2.22 2.79
1581.762 3.33 3.58 3.46 3.2 3.22 3.61 4.25 5.02 5.51 5.4
1620.341 4.73 3.67 2.63 1.91 1.44 1.22 1.06 0.9008 0.7878 0.7095
1658.921 0.6452 0.5663 0.5061 0.4476 0.4002 0.4007 0.3916 0.3651 0.368 0.3599
1697.500 0.3441 0.3406 0.331 0.3401 0.3683 0.3474 0.3846 0.4318 0.4306 0.4168
1736.080 0.4025 0.3956 0.3908 0.4309 0.4959 0.5217 0.4939 0.452 0.3983 0.3444
1774.659 0.3246 0.3282 0.3158 0.2917 0.2728 0.2525 0.2398 0.2337 0.2122 0.2078
1813.239 0.2169 0.2379 0.2542 0.2425 0.2364 0.2396 0.2592 0.2912 0.3129 0.3334
1851.819 0.3295 0.3204 0.3205 0.3352 0.3439 0.3375 0.3409 0.3343 0.3039 0.2639
1890.398 0.2293 0.2264 0.237 0.22 0.1989 0.1871 0.1939 0.1992 0.2008 0.1995
1928.978 0.1894 0.1931 0.1971 0.1801 0.1831 0.1878 0.174 0.1695 0.1775 0.1739
1967.557 0.1688 0.1992 0.2166 0.2244 0.2239 0.2121 0.2064 0.2001 0.2099 0.2064
2006.137 0.2178 0.2153 0.1943 0.2044 0.2 0.1957 0.1914 0.1798 0.1861 0.196
2044.716 0.1884 0.1774 0.1994 0.2121 0.2031 0.1998 0.2162 0.2143 0.1928 0.2147
2083.296 0.2077 0.1901 0.212 0.2042 0.1858 0.2009 0.1961 0.1978 0.1988 0.1861
2121.875 0.1885 0.2002 0.1958 0.1977 0.2051 0.1735 0.1874 0.2059 0.2086 0.218
2160.455 0.2028 0.2127 0.2333 0.2213 0.2279 0.2478 0.2443 0.2146 0.1982 0.2196
2199.035 0.2251 0.224 0.2159 0.2195 0.2293 0.201 0.1859 0.2033 0.211 0.2162
2237.614 0.2065 0.2097 0.2215 0.2153 0.212 0.2249 0.2314 0.221 0.2189 0.2283
2276.194 0.2414 0.2469 0.258 0.2323 0.2347 0.2659 0.2813 0.282 0.2725 0.2861
2314.773 0.2995 0.2985 0.2539 0.2393 0.2631 0.2663 0.2664 0.2798 0.3034 0.3033
2353.353 0.2765 0.2783 0.3 0.2847 0.2867 0.3112 0.3012 0.298 0.318 0.3395
2391.932 0.3375 0.3113 0.3042 0.2964 0.3005 0.3168 0.3096 0.3033 0.3259 0.3474
2430.512 0.3453 0.3488 0.355 0.3452 0.3512 0.3489 0.3423 0.3484 0.3467 0.333
2469.092 0.3158 0.3062 0.3146 0.3206 0.2978 0.29 0.3082 0.3116 0.2925 0.2956
2507.671 0.3009 0.3096 0.3145 0.3149 0.3285 0.3426 0.356 0.3389 0.3207 0.2889
2546.251 0.2647 0.2863 0.3013 0.299 0.2846 0.306 0.3349 0.3184 0.3094 0.333
2584.830 0.337 0.3263 0.3142 0.3283 0.3653 0.3743 0.3887 0.401 0.3967 0.3949
2623.410 0.409 0.4151 0.445 0.4859 0.4678 0.4559 0.4466 0.4396 0.4362 0.4242
2661.989 0.4461 0.4873 0.4851 0.4629 0.4607 0.4699 0.4844 0.4767 0.4625 0.4906
2700.569 0.4971 0.4836 0.4846 0.4614 0.4968 0.5423 0.5384 0.5625 0.565 0.5579
2739.148 0.547 0.5365 0.5665 0.5622 0.5353 0.5502 0.572 0.5842 0.6237 0.6494
2777.728 0.6647 0.6561 0.6593 0.7137 0.7568 0.8001 0.8287 0.8752 0.996 1.1
2816.308 1.23 1.48 1.84 2.39 2.97 3.35 3.52 3.69 4.09 4.76
2854.887 5.72 7.03 8.46 9.52 10.05 10.28 10.44 10.47 10.37 10.37
2893.467 10.51 10.71 10.87 11.2 12.02 13.27 14.7 16.01 17.02 17.73
2932.046 18.54 19.9 21.39 21.85 20.44 17.72 15.28 13.9 13.04 11.81
2970.626 10.02 8 6.29 5.3 4.89 4.56 3.94 3.27 2.96 2.95
3009.205 3.05 3.06 2.86 2.61 2.46 2.41 2.34 2.21 1.99 1.77
3047.785 1.61 1.46 1.4 1.47 1.56 1.59 1.57 1.52 1.34 1.16
3086.364 1.01 0.8635 0.7791 0.7649 0.721 0.6688 0.65 0.6411 0.5949 0.5396
3124.944 0.519 0.4726 0.443 0.4238 0.3636 0.3243 0.2783 0.221 0.2983 0.3571
3163.524 0.3029 0.2822 0.2873 0.2814 0.2862 0.2811 0.2813 0.2494 0.1774 0.1496
3202.103 0.1549 0.2011 0.241 0.2153 0.1962 0.1811 0.1671 0.1626 0.1559 0.1951
3240.683 0.2145 0.1687 0.1725 0.1762 0.1755 0.1706 0.1382 0.1437 0.1733 0.2234
3279.262 0.2616 0.1808 0.1496 0.1721 0.1599 0.2299 0.248 0.19 0.1819 0.1612
3317.842 0.1723 0.1846 0.1761 0.1907 0.1891 0.1991 0.2271 0.2363 0.2389 0.2575
3356.421 0.2786 0.2607 0.2183 0.2132 0.2683 0.3151 0.2825 0.2639 0.2668 0.2823
3395.001 0.3219 0.2779 0.2031 0.2544 0.2899 0.2626 0.2377 0.2262 0.2662 0.2899
3433.580 0.2926 0.2863 0.2681 0.2606 0.2403 0.2646 0.3279 0.3533 0.281 0.2435
3472.160 0.2669 0.2353 0.2651 0.2807 0.2413 0.231 0.2573 0.2872 0.2844 0.2441
3510.740 0.2211 0.2793 0.2837 0.2592 0.2721 0.2508 0.216 0.1924 0.1868 0.223
3549.319 0.2295 0.215 0.2525 0.2967 0.288 0.3193 0.3329 0.2832 0.2267 0.2367
3587.899 0.304 0.3046 0.2941 0.3252 0.3899 0.3937 0.3772 0.4659 0.5639 0.6638
3626.478 0.7878 1.01 1.46 2.36 4.16 7.23 10.74 11.58 8.7 4.79
3665.058 2.4 1.35 0.9606 0.7816 0.5981 0.4814 0.4518 0.4583 0.4709 0.4357
3703.637 0.3414 0.3086 0.2995 0.2938 0.2959 0.2882 0.2674 0.1931 0.1454 0.2177
3742.217 0.2684 0.28 0.27 0.2717 0.2376 0.2516 0.2915 0.2577 0.2599 0.2766
3780.797 0.2979 0.2646 0.2896 0.3147 0.2559 0.2658 0.2644 0.2606 0.3404 0.2911
3819.376 0.1797 0.1976 0.236 0.2376 0.2439 0.2236 0.2118 0.3132 0.3568 0.3018
3857.956 0.3006 0.3174 0.3022 0.3147 0.297 0.2392 0.3042 0.3163 0.2662 0.3074
3896.535 0.2848 0.2716 0.2868 0.2985 0.3035 0.3085 0.3457 0.3785 0.3585 0.3407
3935.115 0.3367 0.3156 0.3138 0.3071 0.2993 0.3001 0.3065 0.3416 0.2967 0.2409
3973.694 0.2811 0.2725 0.261 0.2858 0.2406 0.1434 0.1592 0.2252
##END=
