##TITLE=cis-4-Decen-1-ol
##JCAMP-DX=4.24
##DATA TYPE=INFRARED SPECTRUM
##ORIGIN=EPA-IR VAPOR PHASE LIBRARY
##OWNER=SRD/NIST
Collection (C) 2018 copyright by the U.S. Secretary of Commerce
on behalf of the United States of America. All rights reserved.
##CAS REGISTRY NO=57074-37-0
##MOLFORM=C 10 H 20 O
##$NIST SOURCE=MSDC-IR
##STATE=gas
##XUNITS=1/CM
##YUNITS=ABSORBANCE
##XFACTOR=1.
##YFACTOR=0.001
##DELTAX=1.92898
##FIRSTX=549.8
##LASTX=4000.7
##FIRSTY=3.15
##MAXX=4000.7
##MINX=549.759
##MAXY=0.27733
##MINY=0.0003849
##NPOINTS=1790
##XYDATA=(X++(Y..Y))
549.759 3.15 2.55 2.39 2.53 3.14 3.27 2.73 2.41 2.68 3.48
569.049 3.73 4.09 4.53 4.41 4.32 4.48 5.04 5.24 5.18 5.6
588.339 5.45 5.32 5.49 5.26 5.42 5.62 5.05 4.67 4.6 4.55
607.628 4.77 4.86 4.49 4.25 4.14 4.12 4.5 4.43 4.1 3.78
626.918 3.82 4.47 4.66 4.23 4.39 4.5 4.64 4.76 4.76 4.93
646.208 4.95 4.95 5.06 5.53 5.78 6.04 6.51 6.58 6.79 7.38
665.498 7.83 8.36 8.86 9.25 9.86 10.61 10.97 11.2 11.91 12.77
684.787 13.47 14.35 15.2 16.11 16.86 17.14 17.57 18.48 19.59 20.09
704.077 20.13 20.35 20.6 20.73 20.84 20.79 20.5 20.41 20.01 19.22
723.367 18.73 18.38 17.8 17.08 16.36 15.69 15.02 14.04 13.06 12.32
742.657 11.73 11.18 10.58 10.23 9.73 9.13 8.81 8.74 8.62 8.45
761.947 8.34 8.16 8.2 8.07 7.77 7.44 7.16 7.05 6.97 6.63
781.236 6.22 6.13 6.05 5.55 4.97 4.95 4.86 4.66 4.35 4.18
800.526 4.09 3.88 3.67 3.55 3.56 3.35 3.4 3.63 3.74 3.88
819.816 4.04 4.03 3.93 4.11 4.42 4.32 4.49 5.04 5.61 5.78
839.106 5.92 6.32 6.52 6.53 6.61 6.63 6.29 6.24 6.34 6.46
858.395 6.55 6.63 6.7 6.35 6.01 6.06 6.05 6.03 6.41 6.37
877.685 6.01 6.08 6.21 6.6 7.05 7.05 7.06 7.21 7.34 7.81
896.975 8.31 8.42 8.69 9.09 9.21 9.32 9.63 9.86 9.82 10.08
916.265 10.25 10.37 10.53 10.55 10.6 10.53 10.37 10.66 11.26 11.37
935.555 11.57 11.86 11.67 11.94 12.35 12.31 12.44 12.67 12.92 12.87
954.844 12.94 13.53 13.62 13.76 14.15 13.94 14.04 14.4 14.58 14.76
974.134 15.08 15.4 15.33 15.19 15.72 16.64 16.97 17.25 17.77 18.61
993.424 19.89 20.73 21.54 23.12 24.81 26.29 28.01 29.95 31.84 34.31
1012.714 36.85 38.91 41.73 44.03 45.92 48.02 50.02 52.01 53.26 54.38
1032.003 55.57 56.33 57.06 58.22 59.36 60.22 61.16 62.36 63.67 64.87
1051.293 65.91 66.7 66.73 66.1 65.62 63.97 61.45 59.23 56.39 52.85
1070.583 49.18 45.58 41.9 38.79 35.65 32.15 29.18 26.61 24.44 22.36
1089.873 20.63 19.89 18.99 17.84 16.33 15.22 14.77 14.35 14.02 13.63
1109.163 13.97 13.57 12.46 11.92 11.69 11.5 11.42 11.26 10.33 10.11
1128.452 9.75 9.64 9.76 9.71 10 9.97 10.03 9.45 8.84 8.51
1147.742 8.72 8.8 8.67 8.85 9.37 9.58 9.45 9.62 9.19 8.96
1167.032 9.21 9.12 9.1 9.44 9.28 9.08 9.34 9.2 8.94 9.5
1186.322 10.22 10.11 9.96 9.8 10.28 10.97 11.03 11.02 10.84 11.08
1205.611 11.54 11.16 11.2 11.02 10.49 10.94 11.25 11.7 12.11 11.67
1224.901 11.86 12.24 12.41 12.44 12.49 12.79 12.51 12.25 12.19 12.7
1244.191 12.61 12.21 12.7 13.17 13.5 13.52 13.32 13.36 13.44 13.65
1263.481 14.04 14.13 14.08 13.95 14.22 14.71 14.66 14.73 14.84 14.56
1282.771 14.42 14.77 14.74 14.55 14.37 13.95 13.82 13.8 13.93 14.06
1302.060 14.12 14.36 14.56 14.9 15.24 15.33 15.45 15.58 15.54 15.38
1321.350 15.19 14.86 14.55 14.45 14.42 14.46 14.69 14.92 15.17 15.53
1340.640 15.77 16.15 16.52 16.69 16.73 16.69 16.47 16.25 16.01 15.8
1359.930 15.79 15.78 15.93 16.19 16.5 16.99 17.59 18.33 19.23 20.18
1379.219 21.03 21.75 22.37 22.74 22.77 22.48 22.02 21.64 21.39 21.34
1398.509 21.46 21.45 21.1 20.52 19.65 18.56 17.34 15.92 14.6 13.62
1417.799 13.09 12.8 12.79 12.95 13.28 13.94 14.69 15.71 16.95 18.16
1437.089 19.3 20.41 21.61 22.66 23.64 24.54 25.27 25.94 26.51 27.04
1456.378 27.45 27.6 27.58 27.33 26.8 26.1 25.2 24.09 22.86 21.47
1475.668 19.99 18.36 16.72 15.15 13.66 12.26 10.98 9.83 8.75 7.96
1494.958 7.34 6.66 6.06 5.68 5.29 4.82 4.51 4.32 4.18 3.95
1514.248 3.61 3.41 3.29 3.27 3.25 3.02 2.82 2.75 2.58 2.48
1533.538 2.57 2.56 2.4 2.14 2.15 2.27 2.29 2.26 2.08 1.95
1552.827 1.86 1.81 1.77 1.69 1.74 1.79 1.75 1.76 1.73 1.71
1572.117 1.74 1.73 1.65 1.62 1.69 1.77 1.8 1.77 1.77 1.74
1591.407 1.76 1.82 1.73 1.7 1.83 1.86 1.71 1.7 1.83 1.89
1610.697 2 2.03 1.96 1.95 2.09 2.1 2.08 2.26 2.37 2.49
1629.986 2.64 2.74 2.93 3.06 3.24 3.51 3.73 4.01 4.16 4.3
1649.276 4.61 4.57 4.41 4.38 4.26 4.12 3.93 3.7 3.54 3.48
1668.566 3.42 3.23 3.09 3.1 3.22 3.18 2.96 2.91 2.81 2.8
1687.856 2.79 2.57 2.54 2.66 2.53 2.38 2.36 2.15 2.12 2.15
1707.146 2.06 2.04 1.94 1.76 1.68 1.55 1.56 1.67 1.58 1.36
1726.435 1.26 1.32 1.29 1.2 1.22 1.3 1.28 1.15 1.15 1.14
1745.725 1.15 1.14 1.06 1.08 1.07 1.08 1.09 0.9423 0.905 1.04
1765.015 1.09 0.9896 0.9237 0.9091 0.8892 0.9099 0.957 0.9216 0.796 0.8171
1784.305 0.9105 0.9476 0.8903 0.8262 0.9556 1.06 0.987 0.9305 0.9973 1
1803.594 1.02 1.08 1.06 1.03 1.05 1.08 1.14 1.13 1.15 1.2
1822.884 1.17 1.24 1.22 1.1 1.07 1.05 1.08 1.13 0.9807 0.9036
1842.174 0.9767 0.9775 0.9573 0.9215 0.9536 0.9427 0.9547 0.9393 0.8013 0.8925
1861.464 0.9379 0.9192 0.9437 0.8957 0.9077 0.8932 0.9027 0.9619 0.9661 0.8623
1880.754 0.7793 0.8216 0.9164 0.9765 0.9357 0.9299 0.9435 0.8417 0.8194 0.8943
1900.043 0.8825 0.8257 0.8322 0.8913 0.9327 0.9328 0.9408 0.958 0.9642 0.944
1919.333 0.9739 0.9946 0.8946 0.8605 0.9197 1.03 1.09 1.04 0.981 0.988
1938.623 1.08 1.09 1 0.9624 0.936 0.9448 0.9762 0.9227 0.9276 0.9502
1957.913 0.9035 0.9074 0.8735 0.7605 0.8795 1.11 1.02 0.8574 0.8674 0.9545
1977.202 1.03 0.9655 0.988 1.08 0.9749 0.9248 1 1.09 1.1 1.07
1996.492 1.02 0.961 1.03 1.11 1.06 1.06 1.05 1.06 1.15 1.19
2015.782 1.15 1.15 1.27 1.39 1.37 1.31 1.31 1.35 1.36 1.38
2035.072 1.47 1.54 1.61 1.59 1.5 1.5 1.55 1.51 1.45 1.46
2054.362 1.52 1.44 1.33 1.39 1.45 1.41 1.37 1.32 1.24 1.3
2073.651 1.36 1.34 1.27 1.25 1.28 1.31 1.33 1.27 1.18 1.08
2092.941 1.02 0.973 0.999 1.07 1.08 1.15 1.12 1.05 1.11 0.9396
2112.231 0.8105 0.9191 0.9085 0.8421 0.8749 0.9009 0.8151 0.7659 0.7681 0.7955
2131.521 0.8929 0.9213 0.879 0.9312 1.01 0.9698 0.9715 0.9897 0.8626 0.8002
2150.810 0.78 0.7087 0.839 0.9772 0.8599 0.7527 0.8122 0.9131 0.9555 0.9478
2170.100 0.9743 0.9768 0.9832 0.9662 0.8872 0.7997 0.8626 0.8796 0.8302 0.8653
2189.390 0.9879 1.06 0.9663 0.9055 0.8651 0.825 0.7807 0.9103 1.02 0.9614
2208.680 0.849 0.8724 0.9955 1.03 1.01 1.09 1.06 1 1.04 1.08
2227.970 0.9696 0.7657 0.845 0.9909 1.01 0.9163 0.9139 1.01 1 0.9157
2247.259 0.9782 1.11 1.09 0.9958 0.9102 0.8983 0.9635 1.03 1.09 1.02
2266.549 0.9617 1 0.9777 0.8906 0.8392 0.9408 1.08 0.9944 0.9514 0.9911
2285.839 0.9829 1.13 1.2 1.14 1.12 1.06 1.04 1.15 1.26 1.21
2305.129 1.1 1.09 1.16 1.13 1.14 1.15 1.1 1.13 1.13 1.16
2324.418 1.2 1.18 1.12 1.15 1.23 1.18 1.2 1.38 1.32 1.15
2343.708 1.04 0.956 1.05 1.26 1.28 1.2 1.04 1.03 1.06 1.06
2362.998 1.15 1.07 1.09 1.12 1.09 1.11 1.02 1.06 1.18 1.22
2382.288 1.24 1.36 1.4 1.23 1.18 1.31 1.33 1.33 1.31 1.25
2401.578 1.28 1.38 1.34 1.24 1.25 1.18 1.13 1.2 1.26 1.28
2420.867 1.35 1.38 1.28 1.3 1.31 1.27 1.24 1.22 1.29 1.24
2440.157 1.21 1.3 1.28 1.26 1.24 1.15 1.11 1.19 1.23 1.22
2459.447 1.26 1.33 1.33 1.32 1.34 1.37 1.39 1.33 1.35 1.33
2478.737 1.28 1.28 1.32 1.36 1.3 1.22 1.34 1.43 1.36 1.39
2498.026 1.46 1.44 1.39 1.28 1.28 1.38 1.36 1.4 1.42 1.4
2517.316 1.41 1.43 1.49 1.57 1.54 1.57 1.67 1.56 1.54 1.66
2536.606 1.73 1.66 1.62 1.66 1.61 1.63 1.73 1.73 1.66 1.68
2555.896 1.69 1.73 1.73 1.78 1.92 1.89 1.84 1.8 1.81 1.84
2575.186 1.83 1.79 1.81 1.9 1.88 1.92 1.95 1.89 1.96 2.06
2594.475 2.07 2.06 2.14 2.18 2.17 2.22 2.2 2.21 2.29 2.37
2613.765 2.42 2.36 2.41 2.51 2.46 2.55 2.78 2.76 2.72 2.81
2633.055 2.82 2.79 2.89 2.94 2.97 3.15 3.28 3.3 3.23 3.29
2652.345 3.36 3.39 3.51 3.66 3.8 3.93 4 4.06 4.02 4.01
2671.634 4.13 4.2 4.1 4.19 4.39 4.39 4.35 4.28 4.43 4.51
2690.924 4.35 4.33 4.28 4.28 4.41 4.38 4.35 4.45 4.52 4.5
2710.214 4.57 4.76 4.85 4.95 5.22 5.46 5.57 5.55 5.69 6.06
2729.504 6.26 6.22 6.35 6.59 6.8 6.79 6.74 6.89 6.99 7.11
2748.794 7.24 7.22 7.21 7.15 7.26 7.56 7.68 7.8 7.86 7.85
2768.083 8.06 8.33 8.39 8.44 8.59 8.82 9.04 9.28 9.61 9.89
2787.373 10.25 10.55 10.74 11.13 11.53 11.85 12.17 12.58 12.95 13.31
2806.663 13.82 14.25 14.78 15.41 16.16 17.02 17.81 18.71 19.75 21.07
2825.953 22.51 24.04 25.88 27.87 30.04 32.57 35.53 38.84 42.34 46.54
2845.242 51.36 56.73 62.83 69.4 76.4 83.65 90.95 98 104.45 110.25
2864.532 115.15 118.97 121.71 123.67 125.2 126.06 126.27 125.86 125.07 123.86
2883.822 122.09 120.15 118.08 115.67 113.26 111.79 111.5 112.2 114.08 117.47
2903.112 121.53 126.22 132.48 139.88 148.51 158.42 169.77 182.24 195.37 209.09
2922.401 222.97 236.45 248.88 259.62 268.22 274.34 277.33 277.23 273.84 267.59
2941.691 258.89 248.03 235.83 223.18 210.85 200.11 191.76 185.14 180.35 178.13
2960.981 177.05 176.06 174.25 169.84 162.71 153.38 142.05 128.94 114.68 100.52
2980.271 87.9 77.27 68.53 61.22 55.71 51.75 48.76 47.16 46.92 47.73
2999.561 49.53 52.33 56.06 60.06 63.57 66.55 68.42 68.7 67.32 64.77
3018.850 60.86 55.8 49.95 43.59 37.74 32.32 27.47 23.57 20.35 17.79
3038.140 15.73 13.93 12.75 11.88 10.99 10.3 9.77 9.37 9.08 8.76
3057.430 8.61 8.56 8.37 8.08 7.8 7.68 7.55 7.48 7.16 6.83
3076.720 6.55 6.16 5.72 5.4 5.36 5.21 4.98 4.64 4.44 4.44
3096.009 4.34 4.14 4.05 4.03 3.95 3.77 3.57 3.51 3.4 3.14
3115.299 3.12 3.27 3.24 3.06 3.06 3.14 2.85 2.68 2.67 2.51
3134.589 2.47 2.58 2.52 2.29 2.16 2.48 2.62 2.33 2.31 2.23
3153.879 2.18 2.26 2.26 2.31 2.16 2.02 2.05 1.99 1.92 1.93
3173.169 1.86 1.9 1.86 1.9 1.93 1.75 1.83 1.91 1.79 1.65
3192.458 1.91 1.99 1.71 1.73 1.8 1.66 1.49 1.53 1.48 1.38
3211.748 1.35 1.17 1.11 1.21 1.23 1.25 1.15 1.06 0.973 1.26
3231.038 1.54 1.28 1.15 1.04 1.03 1.32 1.29 1.04 1.28 1.22
3250.328 1.02 1.09 1.12 1.12 0.9114 0.737 0.9309 1.06 0.9717 0.9541
3269.617 0.8234 0.7027 0.904 1.12 0.9896 0.7885 0.7625 0.9474 1.16 1.1
3288.907 0.9506 0.9096 0.8559 0.758 0.7976 0.8813 0.9158 0.8042 0.6909 0.7159
3308.197 0.7543 0.7526 0.7148 0.7632 0.5944 0.5504 0.6793 0.5076 0.3849 0.5401
3327.487 0.6742 0.8163 0.8894 0.8838 0.8946 0.7445 0.7604 0.9797 0.9185 0.5671
3346.777 0.5208 0.7812 0.7245 0.8129 1.01 0.7324 0.6678 0.6952 0.6723 0.859
3366.066 0.811 0.6894 0.8818 0.9115 0.9424 1.16 1.08 0.8924 0.9625 0.9925
3385.356 0.9011 0.8089 0.6607 0.6555 0.869 1.08 1.1 1.15 1.17 1.02
3404.646 0.8902 1.11 1.13 0.9344 0.9682 1.04 1.16 1.13 0.9334 1.02
3423.936 1.12 1.08 1.17 1.02 0.8939 1.06 1.22 1.36 1.19 0.9438
3443.225 1.08 1.24 1.15 1.05 1.03 1.06 1.13 1.08 1.1 1.04
3462.515 1.04 1.25 1.39 1.29 1.2 1.41 1.38 1.11 1.21 1.25
3481.805 1.31 1.39 1.42 1.41 1.16 1.02 1.01 0.8409 0.9093 1.26
3501.095 1.51 1.63 1.47 1.32 1.25 1.23 1.24 1.49 1.68 1.39
3520.385 1.21 1.32 1.14 0.9565 1.09 1.27 1.18 0.9308 0.9025 1.07
3539.674 1.18 1.04 1.09 1.12 0.9792 0.9018 0.9795 1.2 1.34 1.29
3558.964 1.17 1.12 1.11 1.24 1.36 1.41 1.42 1.4 1.45 1.48
3578.254 1.5 1.6 1.77 1.73 1.76 1.95 2.06 2.01 2.11 2.4
3597.544 2.41 2.48 2.65 2.78 3.02 3.21 3.43 3.72 3.97 4.11
3616.833 4.31 4.59 4.77 5.01 5.26 5.46 5.53 5.43 5.44 5.85
3636.123 6.42 6.74 6.92 7.35 7.88 8.49 9.43 10.61 11.7 12.87
3655.413 13.95 14.85 15.94 16.79 17.45 17.71 17.74 17.78 17.51 16.92
3674.703 15.86 14.71 13.53 12.03 10.59 9.61 8.59 7.26 6.39 5.85
3693.993 5.18 4.65 4.34 4.02 3.72 3.42 3.2 2.74 2.47 2.69
3713.282 2.77 2.47 2.3 2.21 2.23 2.32 1.94 1.79 1.75 1.69
3732.572 1.7 1.71 1.54 1.6 1.95 1.87 1.59 1.58 1.65 1.55
3751.862 1.49 1.61 1.68 1.64 1.54 1.43 1.34 1.32 1.36 1.28
3771.152 1.47 1.45 1.37 1.23 1.21 1.42 1.41 1.36 1.32 1.35
3790.441 1.27 1.26 1.33 1.33 1.63 1.87 1.71 1.56 1.83 1.94
3809.731 1.71 1.63 1.72 1.73 1.46 1.44 1.54 1.51 1.49 1.51
3829.021 1.43 1.46 1.75 1.81 1.56 1.46 1.47 1.63 1.75 1.48
3848.311 1.52 1.56 1.48 1.78 1.85 1.75 1.76 1.67 1.68 1.85
3867.601 1.63 1.54 1.53 1.41 1.53 1.76 1.93 1.89 1.61 1.56
3886.890 1.52 1.33 1.22 1.09 1.12 1.36 1.39 1.21 1.24 1.35
3906.180 1.29 1.36 1.53 1.51 1.32 1.01 1.02 1.14 1.04 1.06
3925.470 1.15 1.21 1.18 1.33 1.32 1.13 1.39 1.42 1.43 1.54
3944.760 1.58 1.88 1.85 1.38 1.35 1.53 1.26 1.07 1.45 1.61
3964.049 1.45 1.62 1.58 1.52 1.64 1.57 1.38 1.15 1.09 1.12
3983.339 1.35 1.53 1.26 1.15 1.32 1.24 1.26 1.39 1.44 1.39
##END=
