##TITLE=2-Chloro-5-nitrophenyl isothiocyanate
##JCAMP-DX=4.24
##DATA TYPE=INFRARED SPECTRUM
##ORIGIN=EPA-IR VAPOR PHASE LIBRARY
##OWNER=SRD/NIST
Collection (C) 2018 copyright by the U.S. Secretary of Commerce
on behalf of the United States of America. All rights reserved.
##CAS REGISTRY NO=57135-68-9
##MOLFORM=C 7 H 3 Cl N 2 O 2 S
##$NIST SOURCE=MSDC-IR
##STATE=gas
##XUNITS=1/CM
##YUNITS=ABSORBANCE
##XFACTOR=1.
##YFACTOR=0.001
##DELTAX=1.92898
##FIRSTX=549.8
##LASTX=4000.7
##FIRSTY=5.12
##MAXX=4000.7
##MINX=549.759
##MAXY=0.40594
##MINY=0
##NPOINTS=1790
##XYDATA=(X++(Y..Y))
549.759 5.12 5.56 5.85 5.83 6.05 6.72 7.43 8.14 8.8 9.87
569.049 11.02 11.63 12.32 13.21 14.18 15.38 16.3 16.7 17.13 17.79
588.339 18.52 18.98 18.99 18.57 17.77 16.72 15.33 13.59 11.99 10.84
607.628 9.74 8.84 8.23 7.51 6.86 6.24 5.75 5.27 4.82 4.69
626.918 4.58 4.34 4.16 4.05 4.08 4.18 4.31 4.66 4.88 4.82
646.208 4.72 4.6 4.63 4.91 5.1 5.29 5.48 5.52 5.54 5.54
665.498 5.78 6.13 6.39 6.84 7.33 7.64 7.7 7.49 6.94 6.06
684.787 5.24 4.51 3.82 3.43 3.2 3 3.05 2.88 2.64 2.58
704.077 2.42 2.3 2.35 2.44 2.69 3.05 3.24 3.62 4.68 5.91
723.367 7.45 9.74 12.67 15.95 19.09 22.04 25.25 28.8 30.17 28.16
742.657 25.9 24.95 24.55 24.47 24.89 25.94 27.11 27.97 28.29 27.49
761.947 25.61 22.66 19.31 16.06 13.03 10.47 8.25 6.63 5.61 4.77
781.236 3.89 3.29 3.03 2.91 2.66 2.46 2.22 1.89 1.87 1.68
800.526 1.36 1.5 1.55 1.61 1.91 2.32 3 4.1 5.52 7.15
819.816 8.87 10.34 11.83 13.38 13.9 12.68 10.9 9.73 9.08 8.52
839.106 8.51 9.53 11.38 13.7 16.07 18.12 19.76 20.62 20.55 19.58
858.395 17.75 15.45 12.66 10.3 8.44 7 6.06 5.72 5.63 5.62
877.685 6.27 7.05 8.02 9.37 10.81 12.62 14.67 16.64 18.33 19.2
896.975 18.87 17.51 15.69 13.53 11.02 8.75 6.9 5.38 4.38 3.57
916.265 2.93 2.54 2.36 2.1 2.02 1.97 1.76 1.83 1.81 1.69
935.555 1.71 1.77 1.59 1.5 1.43 1.255 1.36 1.41 1.2888 1.35
954.844 1.39 1.37 1.55 1.59 1.57 1.8 2 2.13 2.51 3.15
974.134 3.98 5.15 6.31 7.48 9.06 10.52 11.48 12.15 12.62 12.53
993.424 11.53 10.13 8.67 7.02 5.57 4.2 3.32 2.95 2.59 2.27
1012.714 2.26 2.45 2.07 1.83 2.16 2.45 2.78 2.98 2.96 3.05
1032.003 3.32 3.56 3.83 4.31 4.92 6.03 7.66 9.15 10.66 13.28
1051.293 16.69 20.25 24.29 28.38 32.25 35.53 37.33 38.06 37.47 35.07
1070.583 31.14 26.37 21.87 17.66 13.8 10.59 8.08 6.55 5.66 5.08
1089.873 4.61 4.5 4.72 4.39 4.44 4.44 4.19 3.94 3.75 3.68
1109.163 3.33 3.03 2.73 2.43 2.03 2.16 2.69 3.1 3.03 3.31
1128.452 3.74 4.18 4.27 4.09 4.08 3.55 2.99 2.78 2.31 1.47
1147.742 1.1206 1.2316 1.46 1.56 1.3092 1.0629 1.1239 1.0678 1.0683 1.1421
1167.032 1.2103 1.51 1.59 1.61 2.02 1.82 1.59 1.7 1.65 1.74
1186.322 1.56 1.53 1.66 1.56 1.86 2.14 1.94 1.68 1.48 1.48
1205.611 1.61 1.66 1.73 1.73 1.83 2.12 2.09 1.86 1.88 1.85
1224.901 2.03 2.35 2.61 3.03 3.53 4.05 4.76 5.73 6.78 7.48
1244.191 7.83 8.32 8.44 8.34 8.47 8.58 8.64 8.71 8.99 9.26
1263.481 9.34 9.37 8.87 8.39 8.3 8.05 7.77 7.51 7.21 7.3
1282.771 7.34 7.03 6.91 6.75 6.47 6.33 6.26 6.15 6.08 5.95
1302.060 5.96 6.13 6.26 6.53 6.88 7.38 8.09 8.95 10.01 11.33
1321.350 13.06 15.16 17.68 20.9 25.08 30.52 37.54 46.44 57.52 70.6
1340.640 85.01 99.17 111.27 119.41 122 118.75 110.16 97.41 82.46 67.75
1359.930 55.65 46.97 40.73 36.08 32.19 28.47 24.85 21.4 18.32 15.8
1379.219 13.83 12.33 11.16 10.35 9.74 9.39 9.36 9.52 9.88 10.64
1398.509 11.85 13.51 15.5 17.67 19.7 21.29 22.16 22.05 21.05 19.21
1417.799 16.92 14.55 12.53 11.05 10.13 9.71 9.54 9.49 9.49 9.53
1437.089 9.56 9.57 9.56 9.53 9.63 10.03 10.66 11.59 13.02 14.98
1456.378 17.69 21.27 25.36 29.74 34.11 38.16 40.98 42.04 41.22 38.73
1475.668 34.97 30.4 25.69 21.47 18.26 15.97 14.42 13.51 13.08 12.84
1494.958 12.84 13.13 13.48 13.96 14.79 15.9 17.35 19.12 21.17 23.58
1514.248 26.04 28.73 31.78 34.95 38.59 42.29 46.07 50.04 54.15 58.85
1533.538 64.95 72.93 82.71 95.15 109.27 122.82 133.54 139 138.36 132.04
1552.827 121.1 105.87 89.62 74.59 63.18 56.7 53.53 52.63 52.84 53.03
1572.117 52.36 50.63 47.88 44.34 40.07 35.37 30.91 27.04 23.84 21.23
1591.407 19.25 17.67 16.4 15.4 14.58 13.7 12.78 11.8 10.83 9.87
1610.697 8.89 8.07 7.34 6.71 6.32 6.01 5.85 5.75 5.68 5.68
1629.986 5.69 5.66 5.63 5.73 5.73 5.6 5.49 5.41 5.38 5.36
1649.276 5.33 5.18 5.02 4.83 4.57 4.22 3.84 3.45 3.08 2.8
1668.566 2.56 2.42 2.3 2.2 2.16 2.09 2.03 2.02 2.01 2.1
1687.856 2.2 2.22 2.24 2.13 2.06 2.08 2.01 1.96 1.96 1.93
1707.146 1.94 1.93 1.92 1.91 1.9 1.95 1.96 1.98 2.01 2
1726.435 2.03 2.08 2.08 2.06 2.06 2.15 2.14 2.12 2.19 2.25
1745.725 2.23 2.17 2.22 2.3 2.34 2.36 2.39 2.49 2.6 2.71
1765.015 2.88 3.06 3.23 3.41 3.53 3.63 3.74 3.79 3.72 3.66
1784.305 3.58 3.51 3.44 3.31 3.23 3.2 3.17 3.11 2.98 2.86
1803.594 2.8 2.8 2.78 2.72 2.72 2.67 2.64 2.69 2.77 2.86
1822.884 2.93 2.96 3.12 3.28 3.42 3.61 3.8 4.08 4.31 4.45
1842.174 4.52 4.56 4.6 4.49 4.33 4.19 4.02 3.94 3.91 3.85
1861.464 3.83 3.9 3.94 4.02 4.17 4.34 4.55 4.82 5.08 5.35
1880.754 5.66 5.99 6.41 6.87 7.37 7.9 8.46 9.06 9.68 10.33
1900.043 11.02 11.66 12.22 12.74 13.24 13.8 14.4 15.03 15.72 16.49
1919.333 17.47 18.56 19.8 21.15 22.51 24.02 25.68 27.43 29.32 31.32
1938.623 33.44 35.75 38.23 40.9 43.86 47.09 50.52 54.21 58.11 62.16
1957.913 66.48 70.93 75.48 80.27 85.19 90.23 95.36 100.51 105.58 110.52
1977.202 115.38 120.09 124.7 129.36 134.14 138.97 144.13 149.58 155.26 161.24
1996.492 167.46 173.92 180.63 187.83 195.71 204.33 213.99 225.04 237.83 252.62
2015.782 269.8 289.61 311.66 335.07 358.28 379.24 395.29 404.52 405.94 399.26
2035.072 385.32 365.79 342.64 317.89 293.2 270.09 249.55 231.9 217.13 205.29
2054.362 196.21 189.75 185.61 183.29 182.41 182.37 182.59 182.49 181.56 179.58
2073.651 176.42 172.21 167.21 161.88 156.57 151.42 146.75 142.74 139.39 136.5
2092.941 134.05 132.07 130.32 128.86 127.54 126.34 125.24 124.18 123.12 121.88
2112.231 120.23 117.96 115.02 111.21 106.35 100.73 94.48 87.74 80.9 74.07
2131.521 67.52 61.39 55.71 50.51 45.98 41.96 38.38 35.38 32.84 30.59
2150.810 28.59 26.99 25.65 24.42 23.32 22.28 21.33 20.49 19.67 18.76
2170.100 17.8 16.93 16.03 15.11 14.26 13.48 12.67 11.94 11.27 10.59
2189.390 10 9.47 8.93 8.49 8.13 7.76 7.45 7.17 6.9 6.67
2208.680 6.54 6.32 6.11 6.05 6.08 6.03 5.94 5.93 5.97 6.1
2227.970 6.22 6.28 6.28 6.29 6.4 6.47 6.49 6.58 6.55 6.51
2247.259 6.54 6.57 6.52 6.41 6.25 6.06 5.83 5.53 5.29 5.12
2266.549 5.03 4.87 4.69 4.57 4.35 4.07 3.79 3.56 3.29 3.07
2285.839 2.89 2.77 2.68 2.57 2.52 2.47 2.48 2.51 2.51 2.53
2305.129 2.54 2.59 2.7 2.8 2.85 2.9 2.94 2.97 3.01 3
2324.418 3.02 3.07 2.98 2.88 2.81 2.74 2.73 2.66 2.57 2.57
2343.708 2.57 2.53 2.5 2.5 2.5 2.42 2.29 2.23 2.32 2.42
2362.998 2.37 2.33 2.45 2.53 2.48 2.48 2.57 2.61 2.63 2.58
2382.288 2.52 2.52 2.51 2.56 2.58 2.45 2.4 2.44 2.38 2.28
2401.578 2.21 2.17 2.12 2.08 2.07 2.05 2.02 1.97 1.85 1.82
2420.867 1.87 1.91 1.98 2 2 2.11 2.24 2.33 2.38 2.36
2440.157 2.47 2.54 2.5 2.56 2.69 2.74 2.76 2.78 2.78 2.87
2459.447 2.89 2.8 2.82 2.86 2.86 2.84 2.83 2.84 2.83 2.87
2478.737 2.84 2.73 2.66 2.65 2.7 2.79 2.8 2.75 2.85 2.97
2498.026 3.08 3.15 3.18 3.3 3.51 3.64 3.7 3.77 3.89 4.02
2517.316 4.12 4.25 4.42 4.56 4.66 4.67 4.76 4.94 5.13 5.37
2536.606 5.58 5.75 5.85 5.92 5.91 5.97 6.01 5.96 5.84 5.86
2555.896 5.89 5.76 5.64 5.58 5.54 5.47 5.4 5.35 5.36 5.28
2575.186 5.14 5.14 5.06 4.91 4.85 4.63 4.31 4.1 3.92 3.71
2594.475 3.53 3.35 3.11 2.92 2.76 2.68 2.56 2.37 2.28 2.14
2613.765 2.04 1.98 1.91 1.91 1.84 1.75 1.72 1.72 1.77 1.73
2633.055 1.72 1.83 1.93 1.86 1.8 1.9 1.95 2.01 2.14 2.13
2652.345 2.1 2.19 2.22 2.27 2.21 2.2 2.3 2.34 2.31 2.32
2671.634 2.39 2.31 2.23 2.26 2.29 2.35 2.36 2.37 2.43 2.51
2690.924 2.54 2.55 2.52 2.55 2.74 2.83 2.82 2.87 2.86 2.82
2710.214 2.8 2.74 2.71 2.67 2.61 2.43 2.41 2.36 2.24 2.18
2729.504 2.13 2.13 2.13 2.09 2.04 2.09 2.1 2.04 2.06 2.04
2748.794 2.09 2.18 2.15 2.25 2.26 2.17 2.32 2.4 2.27 2.25
2768.083 2.42 2.55 2.53 2.56 2.66 2.75 2.82 2.91 2.89 2.95
2787.373 3.03 3.05 3.08 2.97 2.85 2.79 2.76 2.65 2.49 2.37
2806.663 2.29 2.21 2.19 2.02 1.84 1.89 1.93 1.89 1.86 1.73
2825.953 1.69 1.82 1.81 1.84 1.88 1.96 2.05 2.1 2.21 2.22
2845.242 2.23 2.3 2.29 2.34 2.39 2.38 2.43 2.45 2.4 2.47
2864.532 2.53 2.48 2.44 2.52 2.64 2.62 2.69 2.83 2.85 2.81
2883.822 2.9 2.94 2.88 2.91 2.8 2.65 2.66 2.68 2.61 2.58
2903.112 2.49 2.33 2.34 2.46 2.48 2.38 2.35 2.47 2.56 2.41
2922.401 2.3 2.41 2.36 2.24 2.29 2.25 2.19 2.11 1.98 1.97
2941.691 1.91 1.83 1.72 1.61 1.55 1.51 1.46 1.49 1.58 1.52
2960.981 1.38 1.35 1.5 1.47 1.34 1.2932 1.36 1.51 1.44 1.2766
2980.271 1.2751 1.43 1.41 1.41 1.46 1.32 1.2034 1.1122 1.0165 1.11
2999.561 1.1837 1.2326 1.1958 1.112 1.1983 1.32 1.4 1.4 1.35 1.35
3018.850 1.42 1.4 1.41 1.38 1.41 1.53 1.54 1.46 1.33 1.2731
3038.140 1.2172 1.092 1.0376 1.0552 0.9241 0.7933 0.7873 0.8217 0.9044 0.9931
3057.430 1.0622 0.9452 0.8225 0.8851 1.0669 1.2135 1.1767 1.35 1.67 1.92
3076.720 2.18 2.58 3.17 3.62 4.12 4.66 4.97 5.23 5.5 5.54
3096.009 5.4 5.11 4.57 3.94 3.4 3.05 2.88 2.58 2.16 1.86
3115.299 1.56 1.3175 1.2824 1.2138 0.9725 0.7523 0.6934 0.7364 0.7194 0.651
3134.589 0.6162 0.5359 0.4327 0.5575 0.7395 0.638 0.5347 0.4641 0.2938 0.2418
3153.879 0.320184 0.38108 0.37786 0.41185 0.4409 0.4806 0.4504 0.36636 0.37975 0.3593
3173.169 0.21 0.2767 0.37363 0.35861 0.4587 0.4941 0.4442 0.38267 0.36414 0.4346
3192.458 0.4453 0.40826 0.4128 0.533 0.5331 0.38494 0.3746 0.40351 0.33536 0.199
3211.748 0.183 0.2637 0.211 0.178 0.3094 0.3096 0.2571 0.211 0.188 0.2569
3231.038 0.2803 0.276 0.211 0.165 0.2284 0.219 0.186 0.099 0.085 0.153
3250.328 0.12 0.191 0.2999 0.2603 0.2835 0.27 0.095 0.111 0.169 0.116
3269.617 0.164 0.158 0.2926 0.4572 0.265 0.106 0.016 0.148 0.33458 0.2856
3288.907 0.134 0.084 0.216 0.186 0.2272 0.2639 0.193 0.18 0.192 0.267
3308.197 0.3793 0.41734 0.3096 0.328369 0.3017 0.195 0.3034 0.34719 0.168 0.07
3327.487 0.017 0.045 0.136 0.106 0.059 0.051 0.148 0.178 0.175 0.3031
3346.777 0.4635 0.41056 0.329226 0.2927 0.2428 0.2617 0.2965 0.167 0.095 0.329093
3366.066 0.31321 0.2433 0.35698 0.2546 0.2863 0.2882 0.206 0.41953 0.4408 0.319484
3385.356 0.31274 0.2838 0.34893 0.37805 0.32507 0.211 0.074 0.215 0.196 0.143
3404.646 0.165 0.2283 0.4644 0.4326 0.203 0.275 0.156 0 0.2667 0.3022
3423.936 0.2266 0.35964 0.4456 0.4315 0.41392 0.31326 0.2619 0.320181 0.266 0.2842
3443.225 0.4139 0.4528 0.4886 0.5087 0.40647 0.38091 0.2343 0.18 0.34917 0.35364
3462.515 0.2632 0.2343 0.34067 0.325623 0.41751 0.4308 0.38174 0.38906 0.4361 0.5383
3481.805 0.4741 0.38682 0.34481 0.35414 0.3051 0.2934 0.37062 0.5148 0.5145 0.37822
3501.095 0.453 0.34833 0.2 0.36709 0.4569 0.4574 0.5245 0.4279 0.33209 0.4662
3520.385 0.4827 0.4998 0.5884 0.5496 0.4727 0.4663 0.37067 0.2351 0.2416 0.2895
3539.674 0.3149 0.217 0.167 0.219 0.123 0.231 0.2787 0.31636 0.35469 0.107
3558.964 0.161 0.2588 0.213 0.35833 0.5059 0.5013 0.31784 0.2329 0.2995 0.31632
3578.254 0.4729 0.4571 0.283 0.320128 0.37139 0.34782 0.198 0.102 0.131 0.094
3597.544 0.2601 0.4226 0.37794 0.2843 0.2715 0.3069 0.37899 0.40776 0.4342 0.4435
3616.833 0.321405 0.191 0.2233 0.33017 0.36638 0.41876 0.38854 0.2722 0.38303 0.4665
3636.123 0.271 0.215 0.2395 0.2744 0.2309 0.2581 0.2758 0.2655 0.34851 0.4317
3655.413 0.4379 0.37469 0.4228 0.5026 0.4619 0.3653 0.4429 0.324796 0.31379 0.44
3674.703 0.4533 0.4614 0.4496 0.39181 0.41932 0.4765 0.3933 0.445 0.319247 0.201
3693.993 0.218 0.34035 0.5247 0.5905 0.6403 0.566 0.5242 0.4516 0.327627 0.33435
3713.282 0.35546 0.266 0.31361 0.4913 0.4652 0.35513 0.324576 0.437 0.4458 0.26
3732.572 0.2521 0.31321 0.38123 0.4481 0.4462 0.36906 0.31342 0.4465 0.37671 0.216
3751.862 0.2911 0.2818 0.36788 0.5396 0.4901 0.432 0.4597 0.4263 0.4861 0.6211
3771.152 0.6019 0.5692 0.5172 0.5313 0.6385 0.6686 0.6988 0.7178 0.6831 0.6187
3790.441 0.5082 0.458 0.38618 0.2834 0.38663 0.4364 0.4863 0.6183 0.4502 0.38897
3809.731 0.40836 0.40454 0.5113 0.6122 0.6464 0.5719 0.6137 0.5838 0.5754 0.5221
3829.021 0.4654 0.4704 0.4554 0.4952 0.40297 0.4063 0.41713 0.4356 0.37945 0.33484
3848.311 0.5641 0.5812 0.5662 0.8123 0.71 0.6612 0.7148 0.5208 0.5624 0.7189
3867.601 0.6842 0.6869 0.6379 0.6242 0.6767 0.6716 0.6924 0.7451 0.7872 0.8194
3886.890 0.7571 0.6928 0.8839 1.0287 0.9467 0.755 0.74 0.9571 0.8294 0.6168
3906.180 0.8457 0.9864 0.92 0.8809 0.8024 0.8679 0.913 0.991 1.0903 1.0535
3925.470 1.1462 1.2038 1.1165 1.0021 1.0519 1.0592 0.9666 1.1017 1.3121 1.2654
3944.760 1.1698 1.1124 1.0683 1.1067 1.0815 1.0787 1.2771 1.36 1.2139 1.2872
3964.049 1.32 1.0849 1.1799 1.2691 1.198 1.38 1.38 1.2716 1.34 1.36
3983.339 1.314 1.2774 1.44 1.6 1.52 1.41 1.4 1.42 1.43 1.4
##END=
