##TITLE=(Carbethoxyethylidine)triphenyl phosphora
##JCAMP-DX=4.24
##DATA TYPE=INFRARED SPECTRUM
##ORIGIN=NIST Mass Spectrometry Data Center
##OWNER=NIST Standard Reference Data Program
Collection (C) 2018 copyright by the U.S. Secretary of Commerce
on behalf of the United States of America. All rights reserved.
##CAS REGISTRY NO=5717-37-3
##MOLFORM=C 23 H 23 O 2 P
##$NIST SOURCE=MSDC-IR
##SPECTROMETER/DATA SYSTEM=HP-GC/MS/IRD
##STATE=gas
##XUNITS=1/CM
##YUNITS=ABSORBANCE
##XFACTOR=1.0
##YFACTOR=0.000004300
##DELTAX=4.0
##FIRSTX=550.0
##LASTX=3846.0
##FIRSTY=0.031975
##MAXX=3846
##MINX=550
##MAXY=0.043
##MINY=0
##NPOINTS=825
##XYDATA=(X++(Y..Y))
550.0 7436 3081 1713 1106 885 778 635 521 449 395
590.0 338 284 259 254 216 194 208 244 238 202
630.0 196 205 247 297 302 326 398 476 608 799
670.0 1010 1281 1594 2048 2849 3945 4781 4806 4388 4457
710.0 5958 8621 10000 8402 5316 3136 2254 1949 1730 1420
750.0 1104 861 663 523 466 404 348 350 357 334
790.0 277 236 238 221 207 177 142 134 115 107
830.0 105 102 115 106 87 93 90 76 73 71
870.0 71 77 65 38 44 58 55 62 67 58
910.0 40 40 33 32 48 42 36 27 19 2
950.0 1 18 22 21 42 49 56 78 92 130
990.0 206 293 356 302 196 127 95 146 284 434
1030.0 459 326 184 120 117 139 187 279 357 412
1070.0 431 414 434 543 687 856 1123 1580 2420 3861
1110.0 5901 7672 7623 5584 3247 1864 1274 974 774 663
1150.0 618 604 626 655 659 702 820 1074 1381 1480
1190.0 1342 1179 1171 1386 1933 3110 5082 7179 7389 5296
1230.0 2953 1616 1126 909 782 736 739 778 816 808
1270.0 743 670 596 551 534 531 536 541 562 558
1310.0 507 453 419 412 412 404 383 352 323 294
1350.0 286 291 301 315 324 341 359 353 330 304
1390.0 294 289 283 286 307 338 390 497 672 982
1430.0 1493 2056 2303 1941 1277 757 480 350 272 244
1470.0 255 280 375 493 515 417 270 169 132 105
1510.0 74 68 82 74 59 77 98 120 117 104
1550.0 105 120 130 137 170 204 222 242 267 296
1590.0 317 297 239 194 170 152 141 138 130 121
1630.0 119 124 133 144 149 158 184 215 243 263
1670.0 252 228 213 189 167 139 144 147 132 121
1710.0 119 135 142 128 129 144 140 133 141 145
1750.0 153 171 181 199 207 217 235 224 200 182
1790.0 177 197 231 292 372 436 459 428 360 290
1830.0 246 232 215 189 166 148 147 150 148 149
1870.0 168 201 222 256 293 320 328 323 328 303
1910.0 246 193 161 143 128 120 122 137 165 208
1950.0 263 304 320 321 319 297 242 180 137 116
1990.0 96 84 78 71 75 79 79 75 72 69
2030.0 59 58 63 61 57 59 65 66 66 69
2070.0 61 62 67 55 43 51 58 60 63 58
2110.0 50 47 55 58 51 56 58 54 58 59
2150.0 66 68 62 58 52 49 59 64 60 54
2190.0 58 62 66 76 81 83 84 81 84 73
2230.0 64 64 49 55 61 62 59 55 56 58
2270.0 60 63 63 60 56 57 58 65 70 75
2310.0 98 120 127 115 88 71 77 75 73 82
2350.0 76 59 61 58 45 50 63 62 59 59
2390.0 61 54 54 62 60 55 50 43 47 57
2430.0 60 63 55 41 46 46 52 57 49 49
2470.0 43 33 34 41 47 46 40 46 51 34
2510.0 30 40 35 34 31 32 31 30 29 28
2550.0 43 49 52 63 60 59 61 64 63 70
2590.0 69 64 64 61 54 57 67 66 59 57
2630.0 47 37 38 38 42 43 33 27 40 51
2670.0 43 47 59 68 75 76 66 68 81 74
2710.0 51 40 42 40 23 20 22 14 13 8
2750.0 6 5 8 17 18 13 16 29 27 22
2790.0 24 3 1 11 1 0 13 18 16 22
2830.0 33 29 37 44 41 39 36 29 36 45
2870.0 43 44 42 56 58 39 23 21 23 39
2910.0 47 45 53 28 19 27 23 35 32 41
2950.0 55 49 59 86 83 72 84 111 132 141
2990.0 168 217 262 318 399 496 587 636 658 694
3030.0 707 677 672 730 876 1149 1658 2542 3595 4091
3070.0 3657 2859 2421 2229 1920 1550 1200 879 603 404
3110.0 291 220 202 185 164 160 159 194 225 212
3150.0 185 151 110 73 62 61 45 36 50 40
3190.0 27 39 41 26 28 42 32 45 51 41
3230.0 29 5 2 26 42 36 22 27 20 23
3270.0 27 29 35 17 19 42 24 17 20 13
3310.0 13 15 33 45 25 32 45 54 50 49
3350.0 41 29 43 43 42 54 58 39 27 31
3390.0 44 45 26 42 64 50 38 51 56 54
3430.0 57 50 65 74 54 50 59 73 74 63
3470.0 74 72 72 84 54 38 54 72 80 73
3510.0 70 76 85 77 54 57 73 62 53 46
3550.0 32 38 75 77 76 84 60 39 53 87
3590.0 79 79 95 75 79 92 77 63 53 52
3630.0 64 63 68 95 100 96 81 64 69 56
3670.0 74 94 66 57 72 94 81 64 72 83
3710.0 79 58 52 53 44 54 66 66 73 77
3750.0 82 81 77 69 66 76 72 72 49 25
3790.0 46 75 61 53 59 58 74 56 41 80
3830.0 88 53 18 23 37
##END=
