##TITLE=N-(3,4-Dichlorophenyl)piperazine
##JCAMP-DX=4.24
##DATA TYPE=INFRARED SPECTRUM
##ORIGIN=EPA-IR VAPOR PHASE LIBRARY
##OWNER=SRD/NIST
Collection (C) 2018 copyright by the U.S. Secretary of Commerce
on behalf of the United States of America. All rights reserved.
##CAS REGISTRY NO=57260-67-0
##MOLFORM=C 10 H 12 Cl 2 N 2
##$NIST SOURCE=MSDC-IR
##STATE=gas
##XUNITS=1/CM
##YUNITS=ABSORBANCE
##XFACTOR=1.
##YFACTOR=0.001
##DELTAX=1.92934
##FIRSTX=549.9
##LASTX=3999.5
##FIRSTY=16.18
##MAXX=3999.53
##MINX=549.863
##MAXY=0.35305
##MINY=0
##NPOINTS=1789
##XYDATA=(X++(Y..Y))
549.863 16.18 16.68 16.95 16.96 16.59 16.18 16.08 16.17 16.57 17.21
569.156 17.78 18.08 18.11 17.68 16.77 15.85 15.34 15.23 15.5 16.05
588.450 16.84 17.79 18.73 19.26 18.93 17.98 16.93 15.82 14.79 13.92
607.743 13.18 12.72 12.48 12.42 12.41 12.28 12.15 11.94 11.63 11.44
627.037 11.42 11.53 11.72 12.04 12.49 13 13.65 14.43 15.27 16.15
646.330 17.34 18.89 20.94 23.84 27.63 32.56 38.29 44 48.56 51.18
665.624 51.64 50.02 46.71 43.04 40.64 40.3 41.78 43.92 45.24 45.17
684.917 43.97 41.51 37.92 34.37 31.56 29.37 27.7 26.48 25.52 24.82
704.210 24.46 24.44 24.67 25.11 25.78 26.57 27.48 28.54 29.71 30.97
723.504 32.43 34.13 35.94 37.96 40.2 42.67 45.42 48.38 51.71 55.45
742.797 59.64 64.32 69.37 74.78 80.27 85.34 89.23 91.12 90.63 87.62
762.091 82.44 75.65 67.98 60.34 53.4 47.6 42.84 39 36.15 34.3
781.384 33.49 33.79 35.34 38.22 42.42 47.86 54.15 60.51 66.07 70.16
800.678 72.26 71.86 68.71 63.07 56.06 48.84 42.08 36.16 31.15 27.04
819.971 23.97 21.81 20.42 19.76 19.7 20.21 21.27 22.77 24.61 26.73
839.264 28.95 31.04 32.79 33.95 34.2 33.51 32.17 30.45 28.47 26.35
858.558 24.24 22.39 21.02 20.07 19.5 19.37 19.67 20.33 21.25 22.24
877.851 23.11 23.67 23.77 23.3 22.23 20.8 19.07 17.18 15.61 14.52
897.145 13.69 13.07 12.71 12.51 12.5 12.68 12.91 13.2 13.59 14.1
916.438 14.82 15.7 16.7 17.93 19.32 20.98 23.01 25.34 28.03 31.41
935.732 35.91 41.96 50.17 61.1 75 91.1 107.3 120.43 127.28 126.08
955.025 116.93 101.49 82.61 63.8 48.1 36.71 29.04 23.83 20.19 17.56
974.318 15.64 14.17 12.96 12.03 11.36 10.86 10.44 10.11 9.91 9.83
993.612 9.92 10.16 10.57 11.29 12.39 13.95 16.16 19.01 22.43 26.34
1012.905 30.38 34 36.68 38.26 38.86 38.4 36.75 34.15 31.25 28.65
1032.199 26.67 25.39 24.79 24.83 25.47 26.63 28.17 29.86 31.44 32.63
1051.492 33.25 33.1 32.08 30.34 28.07 25.46 22.82 20.32 18.07 16.21
1070.786 14.84 13.88 13.26 12.8 12.44 12.38 12.48 12.7 13.18 13.87
1090.079 14.86 16.26 17.91 19.91 22.28 24.87 27.77 30.81 33.89 36.99
1109.372 40.03 43.13 46.52 50.52 55.4 61.5 69.09 78.3 89.06 101.06
1128.666 113.73 126.17 136.82 143.91 146.56 144.27 137.45 127.5 116.2 105.53
1147.959 96.67 89.65 83.87 78.7 73.54 68.16 62.57 56.76 51.12 45.96
1167.253 41.53 37.89 34.85 32.25 30.16 28.68 27.55 26.82 26.46 26.35
1186.546 26.53 27.04 27.85 28.87 30.31 32.14 34.6 37.67 41.29 45.84
1205.840 51.27 57.91 66.29 76.79 89.83 105.55 124.04 144.49 165.07 183.95
1225.133 198.5 206.89 208.45 202.83 191.31 176.3 159.66 142.98 127.63 114.09
1244.426 102.68 93.61 86.7 81.88 78.86 76.89 75.14 72.72 69.3 64.73
1263.720 59.12 52.93 47.11 42.52 39.23 37.15 36.13 35.82 35.92 36.09
1283.013 35.88 35 33.49 31.47 29.06 26.56 24.47 22.96 21.96 21.52
1302.307 21.56 21.98 22.73 23.86 25.36 27.23 29.56 32.35 35.66 39.43
1321.600 43.55 47.79 51.83 55.33 58.18 60.49 62.27 63.04 62.5 60.82
1340.894 58.2 54.83 50.92 46.84 43.08 39.88 37.45 36.03 35.62 36.23
1360.187 37.84 40.44 44.05 48.52 53.84 59.68 65.55 70.78 74.36 75.4
1379.480 73.6 69.4 63.39 56.6 49.97 44.38 40.2 36.99 34.35 32.12
1398.774 30.15 28.27 26.65 25.24 24.07 23.13 22.46 22.11 22.08 22.46
1418.067 23.34 24.6 26.3 28.61 31.59 35.21 39.75 45.08 51.23 58.06
1437.361 65.69 73.33 81.39 90.1 99.98 111.42 124.51 138 150.29 159.09
1456.654 163.57 163.43 159.95 156.03 155.12 160.17 173.67 196.7 229.03 267.58
1475.948 304.81 335.83 353.05 353.03 334.37 300.33 256.32 209.88 166.53 131.27
1495.241 103.74 82.42 67.11 56.01 48.04 42.38 37.99 34.6 32.29 30.73
1514.534 29.8 29.33 29.16 29.28 29.45 29.57 29.83 30.13 30.44 30.87
1533.828 31.53 32.43 33.78 35.83 38.34 41.18 44.32 47.39 50.1 52.13
1553.121 53.2 53.4 52.86 51.58 49.76 48.18 47.38 47.7 49.28 52.1
1572.415 56.09 61.48 68.85 77.89 88.74 102.08 117.41 134.28 151.19 166.45
1591.708 177.87 183.39 181.46 171.86 155.81 135.38 113.28 92.29 74.46 60.42
1611.002 49.99 42.37 36.9 32.65 29.33 26.81 24.69 22.87 21.33 19.94
1630.295 18.66 17.53 16.55 15.55 14.49 13.53 12.7 11.97 11.28 10.59
1649.588 9.95 9.43 8.95 8.43 7.95 7.59 7.3 7.07 6.86 6.73
1668.882 6.67 6.57 6.47 6.4 6.3 6.24 6.23 6.24 6.29 6.23
1688.175 6.17 6.14 6.09 6.11 6.12 6.09 6.09 6.05 5.99 5.9
1707.469 5.82 5.76 5.7 5.66 5.63 5.63 5.57 5.52 5.54 5.55
1726.762 5.54 5.52 5.51 5.49 5.42 5.26 5.14 5.07 4.91 4.72
1746.056 4.65 4.54 4.4 4.26 4.1109 4.0327 3.9247 3.8341 3.7834 3.6893
1765.349 3.6501 3.702 3.7072 3.6825 3.7182 3.7377 3.7562 3.8107 3.8476 3.8564
1784.642 3.8651 3.8713 3.8698 3.8916 3.8805 3.8337 3.8007 3.7945 3.8365 3.8568
1803.936 3.9097 3.9659 4.036 4.1629 4.25 4.36 4.51 4.65 4.72 4.73
1823.229 4.69 4.54 4.34 4.1633 4.068 4.0217 3.9907 3.9872 4.0431 4.1547
1842.523 4.3 4.44 4.58 4.75 4.91 5.07 5.21 5.34 5.45 5.49
1861.816 5.52 5.51 5.42 5.3 5.2 5.06 4.88 4.68 4.57 4.45
1881.110 4.31 4.22 4.1434 4.077 4.0544 4.0229 3.9969 3.9917 3.9719 3.9566
1900.403 3.9438 3.9538 3.9774 3.9665 3.9236 3.865 3.8036 3.7123 3.6255 3.6158
1919.696 3.5616 3.4761 3.4244 3.3574 3.30116 3.23496 3.1875 3.1556 3.1178 3.097
1938.990 3.065 3.055 3.061 3.06 3.035 3.035 3.036 3.019 3.039 3.064
1958.283 3.059 3.056 3.094 3.137 3.1633 3.157 3.1429 3.11 3.077 3.082
1977.577 3.079 3.072 3.091 3.1393 3.2055 3.24542 3.29489 3.404 3.482 3.5324
1996.870 3.5696 3.6045 3.628 3.5985 3.55 3.5255 3.5024 3.4356 3.4206 3.4409
2016.164 3.4284 3.4368 3.4457 3.4654 3.4926 3.5111 3.507 3.4589 3.4181 3.3418
2035.457 3.25166 3.20375 3.122 3.033 2.946 2.822 2.748 2.741 2.71 2.683
2054.750 2.68 2.675 2.649 2.635 2.675 2.697 2.674 2.661 2.678 2.665
2074.044 2.654 2.629 2.59 2.586 2.563 2.526 2.476 2.423 2.424 2.417
2093.337 2.372 2.327 2.329 2.327 2.32 2.319 2.297 2.277 2.262 2.242
2112.631 2.226 2.216 2.21 2.223 2.246 2.242 2.233 2.246 2.291 2.357
2131.924 2.377 2.396 2.412 2.419 2.45 2.502 2.525 2.498 2.484 2.468
2151.218 2.455 2.493 2.517 2.547 2.589 2.616 2.629 2.625 2.621 2.601
2170.511 2.569 2.524 2.488 2.472 2.435 2.386 2.366 2.349 2.308 2.288
2189.804 2.298 2.297 2.292 2.27 2.241 2.224 2.2 2.18 2.16 2.15
2209.098 2.18 2.2 2.17 2.13 2.11 2.14 2.13 2.11 2.15 2.17
2228.391 2.16 2.17 2.17 2.2 2.247 2.269 2.332 2.389 2.41 2.46
2247.685 2.513 2.562 2.602 2.646 2.681 2.7 2.753 2.79 2.826 2.894
2266.978 2.929 2.93 2.964 3.027 3.058 3.098 3.1173 3.103 3.1371 3.1502
2286.272 3.128 3.1127 3.046 2.965 2.914 2.856 2.787 2.749 2.694 2.628
2305.565 2.599 2.586 2.594 2.581 2.587 2.574 2.562 2.572 2.567 2.595
2324.858 2.607 2.549 2.485 2.467 2.453 2.455 2.435 2.404 2.372 2.349
2344.152 2.369 2.359 2.378 2.399 2.409 2.473 2.538 2.607 2.669 2.694
2363.445 2.698 2.723 2.74 2.749 2.76 2.746 2.699 2.685 2.683 2.647
2382.739 2.617 2.604 2.601 2.604 2.584 2.546 2.533 2.503 2.494 2.489
2402.032 2.461 2.423 2.392 2.375 2.364 2.362 2.339 2.343 2.379 2.366
2421.326 2.345 2.404 2.494 2.528 2.528 2.587 2.629 2.643 2.693 2.754
2440.619 2.798 2.863 2.929 2.991 3.094 3.1975 3.26412 3.3451 3.4818 3.5828
2459.912 3.6412 3.7141 3.7989 3.8573 3.895 3.8854 3.8642 3.8306 3.7703 3.723
2479.206 3.6405 3.5566 3.4893 3.4529 3.4255 3.4147 3.4372 3.4099 3.3955 3.4221
2498.499 3.4382 3.4683 3.4617 3.4319 3.4476 3.463 3.4523 3.423 3.3941 3.3969
2517.793 3.4549 3.486 3.5083 3.6045 3.7106 3.7895 3.8471 3.9077 3.954 4.0099
2537.086 4.0937 4.1574 4.2097 4.22 4.202 4.1794 4.1852 4.1891 4.1562 4.1722
2556.380 4.1561 4.0951 4.1295 4.1777 4.1879 4.1789 4.1819 4.176 4.1234 4.1372
2575.673 4.1719 4.1573 4.1076 4.0589 4.0769 4.1139 4.1381 4.1444 4.1557 4.1935
2594.966 4.1938 4.23 4.28 4.35 4.43 4.45 4.47 4.53 4.57 4.56
2614.260 4.56 4.58 4.66 4.75 4.81 4.81 4.88 5.01 5.13 5.26
2633.553 5.43 5.58 5.73 5.91 6.12 6.34 6.52 6.76 7.05 7.28
2652.847 7.45 7.7 8.04 8.33 8.65 9 9.39 9.82 10.2 10.61
2672.140 11 11.29 11.52 11.72 11.8 11.82 11.77 11.71 11.68 11.58
2691.434 11.46 11.38 11.43 11.46 11.48 11.5 11.45 11.4 11.37 11.33
2710.727 11.39 11.49 11.54 11.68 11.84 12.07 12.5 12.95 13.49 14.18
2730.020 14.91 15.73 16.66 17.57 18.48 19.47 20.45 21.24 21.95 22.61
2749.314 23 23.12 23.06 22.94 22.61 22.14 21.72 21.39 21.23 21.32
2768.607 21.67 22.21 23.07 24.24 25.62 27.27 29.16 31.34 33.78 36.39
2787.901 39.28 42.42 45.94 49.93 54.39 59.44 64.89 70.55 76.31 81.76
2807.194 86.34 89.68 91.73 92.63 92.77 92.71 93.07 94.34 96.82 100.53
2826.488 105.33 110.62 115.88 120.45 123.37 124.03 122.16 117.86 111.69 104.36
2845.781 96.55 88.7 81.14 74.26 68.35 63.34 59.22 55.91 53.09 50.74
2865.074 48.68 46.73 45.06 43.72 42.62 41.74 41.15 40.86 40.86 41.17
2884.368 41.63 42.12 42.75 43.42 43.92 44.28 44.69 45.17 45.69 46.31
2903.661 47.17 48.26 49.44 50.82 52.5 54.37 56.47 58.64 60.77 62.62
2922.955 63.94 64.63 64.73 64.21 63 62.04 62.04 63.24 66.47 72.29
2942.248 81.07 93.38 109.44 128.42 147.57 162.39 169.07 167.24 158.15 142.12
2961.542 121.2 100.57 84.21 72.34 63.7 57.15 52.07 47.91 44.2 40.97
2980.835 37.96 35.12 32.51 29.91 27.25 24.62 22.03 19.54 17.32 15.25
3000.128 13.22 11.53 10.16 9.01 8.04 7.16 6.41 5.93 5.59 5.26
3019.422 4.95 4.76 4.57 4.35 4.38 4.47 4.44 4.44 4.63 4.78
3038.715 4.93 5.07 5.2 5.26 5.42 5.51 5.39 5.25 5.06 4.94
3058.009 4.95 5.05 5.06 5.17 5.47 5.92 6.46 7.06 7.83 8.58
3077.302 9.32 9.96 10.39 10.46 10.35 10.17 9.78 9.31 8.71 8.22
3096.596 7.82 7.36 6.78 6.3 5.89 5.32 4.72 4.0623 3.5596 3.1503
3115.889 2.633 2.317 2.12 1.85 1.63 1.53 1.47 1.35 1.14 1.03
3135.182 0.99 0.92 0.86 0.79 0.71 0.64 0.65 0.63 0.61 0.55
3154.476 0.51 0.49 0.47 0.37 0.36 0.43 0.47 0.52 0.56 0.57
3173.769 0.62 0.62 0.56 0.62 0.58 0.59 0.68 0.56 0.46 0.45
3193.063 0.5 0.56 0.45 0.43 0.45 0.49 0.58 0.56 0.55 0.53
3212.356 0.43 0.43 0.39 0.38 0.45 0.43 0.3 0.27 0.35 0.29
3231.650 0.29 0.29 0.19 0.14 0.14 0.21 0.26 0.16 0.03 0.09
3250.943 0.27 0.22 0.06 0.03 0 0.11 0.19 0.12 0.12 0.16
3270.236 0.24 0.23 0.17 0.23 0.22 0.2 0.17 0.17 0.26 0.3
3289.530 0.29 0.24 0.21 0.27 0.27 0.27 0.29 0.33 0.35 0.28
3308.823 0.29 0.32 0.35 0.48 0.46 0.38 0.52 0.69 0.83 0.93
3328.117 1 1.12 1.14 1.05 0.97 0.86 0.81 0.78 0.7 0.67
3347.410 0.62 0.63 0.64 0.53 0.56 0.63 0.6 0.57 0.62 0.7
3366.704 0.82 0.88 0.94 0.96 0.85 0.78 0.87 0.96 0.9 0.8
3385.997 0.76 0.76 0.62 0.59 0.58 0.47 0.44 0.5 0.61 0.76
3405.290 0.78 0.66 0.73 0.76 0.73 0.7 0.66 0.74 0.79 0.88
3424.584 1.07 1.01 0.93 1.02 1.02 1.01 1.08 1.09 0.9 0.75
3443.877 0.77 0.76 0.81 0.86 0.83 0.75 0.71 0.72 0.83 0.9
3463.171 0.86 0.87 0.8 0.7 0.83 0.9 0.8 0.8 0.85 0.83
3482.464 0.86 0.83 0.68 0.65 0.81 0.88 0.82 0.87 0.91 0.94
3501.758 0.99 0.97 0.9 0.92 0.95 0.88 0.95 1.05 0.96 1
3521.051 1.1 1.07 1.04 0.95 0.92 0.99 0.94 0.87 0.92 0.93
3540.344 0.95 0.93 0.84 0.89 0.93 0.9 0.96 0.94 0.9 0.92
3559.638 0.92 0.91 0.96 0.89 0.89 1.02 0.94 0.94 1.04 1.05
3578.931 1.03 1 0.99 1.03 1.08 1.06 1.01 1.03 1.1 1.08
3598.225 1.17 1.19 1.07 1.11 1.19 1.15 1.15 1.16 1.2 1.21
3617.518 1.15 1.19 1.22 1.25 1.32 1.4 1.37 1.35 1.39 1.36
3636.812 1.3 1.3 1.3 1.24 1.22 1.36 1.43 1.38 1.35 1.38
3656.105 1.41 1.39 1.34 1.28 1.32 1.32 1.3 1.26 1.24 1.34
3675.398 1.4 1.4 1.38 1.36 1.37 1.4 1.43 1.42 1.33 1.31
3694.692 1.37 1.33 1.4 1.45 1.46 1.45 1.39 1.43 1.5 1.55
3713.985 1.48 1.43 1.48 1.5 1.49 1.56 1.61 1.6 1.55 1.54
3733.279 1.63 1.7 1.68 1.65 1.54 1.54 1.72 1.72 1.77 1.75
3752.572 1.67 1.71 1.69 1.71 1.77 1.87 1.92 1.84 1.78 1.8
3771.866 1.8 1.86 1.83 1.76 1.75 1.73 1.78 1.82 1.77 1.7
3791.159 1.71 1.72 1.69 1.64 1.73 1.73 1.7 1.75 1.73 1.71
3810.452 1.69 1.64 1.66 1.66 1.64 1.65 1.7 1.73 1.7 1.7
3829.746 1.64 1.61 1.62 1.65 1.78 1.72 1.61 1.67 1.74 1.73
3849.039 1.74 1.8 1.85 1.87 1.78 1.8 1.88 1.83 1.75 1.77
3868.333 1.71 1.69 1.71 1.73 1.76 1.66 1.65 1.84 1.96 1.91
3887.626 1.87 1.9 1.97 1.99 1.86 1.78 1.87 1.91 1.74 1.65
3906.920 1.67 1.62 1.62 1.66 1.77 1.79 1.7 1.71 1.74 1.73
3926.213 1.79 1.89 1.91 1.89 1.92 2.04 2.03 1.98 2 1.99
3945.506 1.99 2.02 1.99 2 2.04 2.02 1.98 2 2.1 2.18
3964.800 2.16 2.14 2.14 2.21 2.278 2.214 2.19 2.289 2.292 2.237
3984.093 2.232 2.18 2.15 2.236 2.299 2.212 2.2 2.25 2.19
##END=
