##TITLE=N-t-Butoxycarbonylpiperazine
##JCAMP-DX=4.24
##DATA TYPE=INFRARED SPECTRUM
##ORIGIN=EPA-IR VAPOR PHASE LIBRARY
##OWNER=SRD/NIST
Collection (C) 2018 copyright by the U.S. Secretary of Commerce
on behalf of the United States of America. All rights reserved.
##CAS REGISTRY NO=57260-71-6
##MOLFORM=C 9 H 18 N 2 O 2
##$NIST SOURCE=MSDC-IR
##STATE=gas
##XUNITS=1/CM
##YUNITS=ABSORBANCE
##XFACTOR=1.
##YFACTOR=0.001
##DELTAX=1.929
##FIRSTX=549.8
##LASTX=4000.8
##FIRSTY=18.279
##MAXX=4000.75
##MINX=549.766
##MAXY=0.293999
##MINY=0
##NPOINTS=1790
##XYDATA=(X++(Y..Y))
549.766 18.279 19.509 20.369 20.409 19.609 17.909 15.699 13.159 10.629 8.639
569.056 7.149 6.229 5.799 5.299 4.869 4.579 4.119 3.959 3.899 3.839
588.346 3.619 3.339 3.219 3.149 3.229 3.149 2.999 2.859 2.889 3.059
607.636 3.109 3.199 3.349 3.489 3.549 3.749 4.029 4.139 3.989 3.969
626.926 4.289 4.559 4.929 5.429 5.929 6.389 7.039 7.419 7.439 7.439
646.216 7.339 6.949 6.379 5.849 5.519 5.229 4.809 4.499 4.369 4.259
665.506 4.619 6.349 6.119 4.689 4.549 4.519 4.729 4.939 5.059 5.249
684.796 5.559 5.839 6.029 6.269 6.629 6.929 7.219 7.589 8.029 8.529
704.086 8.969 9.489 9.959 10.609 11.329 12.059 12.849 13.719 14.639 15.399
723.376 16.319 17.309 18.279 19.349 20.689 22.079 23.519 25.229 27.239 29.569
742.666 32.029 34.539 36.789 38.659 39.869 40.289 39.959 38.849 37.109 35.009
761.956 32.809 30.579 28.589 27.029 25.779 24.369 22.669 20.949 19.299 17.659
781.246 16.039 14.529 13.309 12.249 11.289 10.529 9.909 9.469 9.039 8.669
800.536 8.419 8.259 8.099 7.999 8.069 8.279 8.609 9.159 9.839 10.299
819.826 10.719 11.209 11.509 11.519 11.299 10.849 10.389 10.029 9.859 9.869
839.116 9.969 10.229 10.429 10.799 11.349 11.979 12.599 13.059 13.439 13.609
858.406 13.639 13.539 13.199 12.739 12.279 12.069 12.339 13.099 14.269 15.629
877.696 16.989 18.109 18.759 18.799 18.359 17.319 15.559 13.399 11.169 9.129
896.986 7.579 6.409 5.569 5.159 4.979 4.989 5.259 5.599 5.959 6.499
916.276 7.109 7.519 7.719 7.559 7.169 6.829 6.429 5.769 5.019 4.459
935.566 3.999 3.639 3.419 3.269 3.059 2.959 2.959 3.019 3.009 2.969
954.856 3.069 3.039 2.989 3.099 3.219 3.279 3.349 3.459 3.599 3.779
974.146 3.979 4.199 4.549 5.019 5.429 5.919 6.519 7.099 7.719 8.339
993.436 8.899 9.359 9.749 10.179 10.649 11.129 11.629 12.079 12.559 13.029
1012.726 13.399 13.599 13.609 13.629 13.509 13.149 12.829 12.649 12.629 12.819
1032.016 13.369 14.359 15.669 17.339 19.459 21.679 23.769 25.549 26.739 27.249
1051.306 27.179 26.539 25.589 24.509 23.389 22.659 22.539 22.889 23.849 25.539
1070.596 27.719 30.259 32.939 35.319 36.959 37.689 37.509 36.519 34.869 32.699
1089.886 30.459 28.559 27.049 26.079 25.929 26.489 27.569 29.359 31.849 35.079
1109.176 39.169 44.289 50.379 57.279 64.759 72.039 78.539 83.919 87.729 89.679
1128.467 89.739 88.099 85.299 82.239 79.939 78.779 78.469 78.769 79.589 80.809
1147.757 82.249 83.889 86.219 89.499 93.919 99.959 107.539 116.529 126.999 138.559
1167.047 150.799 163.189 174.799 184.679 191.749 195.039 193.929 188.119 177.819 163.839
1186.337 147.469 130.039 112.829 97.129 83.739 72.789 64.349 57.999 53.259 49.939
1205.627 47.779 46.439 45.799 46.079 47.129 48.889 51.619 55.479 60.599 67.369
1224.917 76.369 87.829 101.839 118.309 135.989 152.699 166.379 175.199 178.259 175.809
1244.207 168.179 155.589 139.369 122.079 105.959 92.609 82.319 74.699 69.329 65.699
1263.497 63.489 62.519 62.519 63.309 64.639 66.359 68.689 71.279 73.079 72.919
1282.787 70.409 66.019 60.489 54.269 47.139 39.499 32.689 27.699 24.569 22.859
1302.077 22.099 21.849 21.969 22.389 23.059 23.889 24.739 25.459 25.789 25.519
1321.367 25.099 25.089 24.769 23.689 22.489 21.619 21.119 20.979 21.199 21.609
1340.657 21.979 22.349 22.839 23.519 24.419 25.649 27.499 30.229 34.019 38.809
1359.947 44.459 50.689 56.979 62.739 67.669 71.619 73.409 72.669 70.909 69.269
1379.237 68.439 68.959 71.529 76.679 84.659 95.089 106.779 118.629 129.949 139.979
1398.527 148.299 154.349 156.819 155.839 151.989 146.059 138.129 128.429 117.599 106.079
1417.817 94.699 83.649 74.109 66.059 59.249 54.019 49.999 47.089 44.999 43.479
1437.107 42.199 41.089 40.159 39.579 39.349 39.359 39.449 39.549 39.689 39.799
1456.397 39.929 39.889 39.529 38.989 38.269 37.419 36.599 35.909 35.319 34.649
1475.687 33.959 33.289 32.509 31.439 30.079 28.589 26.989 25.249 23.429 21.689
1494.977 19.959 18.189 16.519 14.989 13.579 12.439 11.429 10.429 9.629 8.999
1514.267 8.589 8.239 7.909 7.719 7.559 7.389 7.299 7.219 7.139 7.099
1533.557 7.079 7.009 6.939 6.899 6.779 6.749 6.709 6.569 6.479 6.349
1552.847 6.249 6.139 6.019 5.929 5.719 5.499 5.309 5.069 4.949 4.869
1572.137 4.739 4.639 4.549 4.429 4.369 4.369 4.339 4.279 4.269 4.289
1591.427 4.399 4.489 4.499 4.529 4.579 4.649 4.719 4.749 4.809 4.869
1610.717 4.899 4.939 5.019 5.089 5.139 5.249 5.359 5.469 5.629 5.819
1630.007 6.009 6.219 6.479 6.739 7.029 7.289 7.509 7.739 7.949 8.069
1649.297 8.159 8.319 8.499 8.609 8.819 9.149 9.589 10.139 10.719 11.379
1668.587 12.179 12.979 13.779 14.609 15.469 16.359 17.449 18.759 20.449 22.449
1687.877 24.869 28.179 32.589 38.229 46.229 56.389 69.339 87.279 107.929 134.679
1707.167 166.329 201.399 236.639 266.619 286.119 293.999 292.439 282.559 260.039 224.969
1726.457 183.269 143.319 109.369 83.259 62.339 46.959 36.469 28.619 23.209 19.349
1745.747 16.519 14.369 12.729 11.379 10.229 9.309 8.589 7.949 7.439 6.989
1765.037 6.579 6.259 5.919 5.649 5.449 5.279 5.149 5.049 4.959 4.849
1784.327 4.739 4.589 4.509 4.419 4.279 4.129 3.939 3.799 3.709 3.589
1803.617 3.449 3.339 3.259 3.169 3.139 3.129 3.109 3.069 3.039 2.969
1822.907 2.949 2.949 2.909 2.909 2.889 2.889 2.909 2.879 2.849 2.819
1842.197 2.769 2.719 2.599 2.509 2.429 2.349 2.279 2.189 2.089 2.029
1861.487 2.009 1.989 1.959 1.909 1.849 1.829 1.809 1.789 1.779 1.749
1880.777 1.779 1.849 1.839 1.839 1.879 1.899 1.879 1.859 1.889 1.909
1900.067 1.909 1.899 1.869 1.819 1.819 1.829 1.819 1.809 1.809 1.819
1919.357 1.799 1.819 1.889 1.919 1.949 2.009 2.069 2.089 2.089 2.069
1938.647 2.059 2.059 2.039 2.009 1.949 1.869 1.849 1.799 1.709 1.659
1957.937 1.649 1.639 1.619 1.593 1.5993 1.619 1.5842 1.5955 1.6158 1.5718
1977.227 1.5518 1.5514 1.5861 1.649 1.629 1.6053 1.639 1.6122 1.5702 1.5539
1996.517 1.5141 1.4859 1.5238 1.577 1.5389 1.465 1.4947 1.5361 1.5335 1.5337
2015.807 1.4942 1.4704 1.4834 1.4899 1.4743 1.4674 1.4865 1.4874 1.4864 1.4564
2035.097 1.456 1.5532 1.5978 1.6061 1.629 1.605 1.649 1.709 1.749 1.779
2054.387 1.739 1.729 1.749 1.759 1.709 1.619 1.5825 1.556 1.4842 1.3747
2073.677 1.32 1.2663 1.2061 1.1942 1.1823 1.169 1.1636 1.1307 1.1105 1.1568
2092.967 1.2032 1.1962 1.2201 1.2578 1.2701 1.2458 1.227 1.2541 1.2451 1.2202
2112.257 1.228 1.2346 1.2352 1.2153 1.2129 1.205 1.1892 1.1973 1.2065 1.2096
2131.547 1.1724 1.1276 1.1213 1.1175 1.1027 1.086 1.0673 1.0911 1.0999 1.0697
2150.837 1.0578 1.0418 1.0323 1.0567 1.0516 1.0326 1.0197 1.0386 1.0374 0.9898
2170.127 0.9362 0.8853 0.9527 0.977 0.9652 0.9707 0.9388 0.949 0.9481 0.9364
2189.417 0.9087 0.8686 0.9041 0.9881 0.9967 1.0002 1.0153 1.0458 1.0801 1.0883
2208.707 1.1229 1.1038 1.1102 1.1408 1.1646 1.1956 1.1887 1.1581 1.1706 1.2213
2227.997 1.223 1.136 1.1012 1.1417 1.1239 1.0726 1.0366 1.0485 1.0596 1.0182
2247.287 1.0051 0.9974 0.9632 0.9672 0.9846 0.99 1.0022 1.0144 1.0128 1.0781
2266.577 1.1728 1.2333 1.2749 1.2713 1.3341 1.4435 1.5601 1.669 1.739 1.809
2285.868 1.909 2.019 2.139 2.269 2.389 2.519 2.639 2.779 2.929 3.109
2305.158 3.369 3.589 3.749 3.979 4.189 4.379 4.569 4.759 4.869 4.979
2324.448 5.019 4.929 4.919 4.859 4.719 4.529 4.429 4.389 4.399 4.409
2343.738 4.259 3.979 3.659 3.709 4.199 4.779 5.259 5.599 5.869 6.049
2363.028 6.149 6.179 6.089 5.869 5.529 5.099 4.599 4.039 3.489 2.969
2382.318 2.429 1.969 1.689 1.4051 1.1732 1.0708 0.9577 0.906 0.9052 0.8965
2401.608 0.9094 0.8846 0.8383 0.8577 0.7996 0.7295 0.7547 0.7374 0.69883 0.67443
2420.898 0.66016 0.68734 0.70467 0.71768 0.7291 0.7125 0.7194 0.7238 0.748 0.8004
2440.188 0.7992 0.8176 0.8345 0.8347 0.886 0.9019 0.9188 0.9187 0.9198 0.9016
2459.478 0.9055 0.9193 0.9083 0.8795 0.868 0.8837 0.9001 0.9556 0.9543 0.8984
2478.768 0.8692 0.8637 0.8669 0.9233 0.939 0.9254 0.93 0.9443 0.8861 0.8357
2498.058 0.8687 0.8529 0.8506 0.8996 0.8985 0.9121 0.9361 0.9298 0.9663 0.9904
2517.348 0.9415 0.9612 1.0319 1.0302 1.0396 1.0825 1.0977 1.165 1.2057 1.188
2536.638 1.22 1.2401 1.2608 1.234 1.1543 1.0904 1.0658 1.0312 1.0272 1.0299
2555.928 0.9534 0.9556 1.0041 0.977 0.9405 0.9201 0.9432 0.9487 0.9099 0.9489
2575.218 0.9822 0.9392 0.9789 1.0473 1.0002 0.9839 1.0264 1.0809 1.0751 1.0389
2594.508 1.0788 1.1285 1.1549 1.2365 1.3278 1.3174 1.3062 1.3629 1.4297 1.4848
2613.798 1.5304 1.6085 1.679 1.789 1.919 1.979 2.009 2.089 2.199 2.219
2633.088 2.289 2.349 2.309 2.309 2.289 2.189 2.179 2.209 2.249 2.259
2652.378 2.209 2.219 2.299 2.389 2.459 2.539 2.619 2.739 2.749 2.729
2671.668 2.849 2.979 2.999 3.089 3.199 3.199 3.249 3.319 3.269 3.249
2690.958 3.209 3.129 3.059 2.949 2.899 2.929 2.959 2.969 3.029 3.119
2710.248 3.189 3.299 3.569 3.779 3.949 4.269 4.659 5.139 5.539 5.919
2729.538 6.329 6.789 7.229 7.549 7.979 8.339 8.439 8.379 8.209 7.939
2748.828 7.499 7.049 6.659 6.309 5.959 5.669 5.589 5.479 5.459 5.559
2768.118 5.669 5.749 5.899 6.219 6.589 6.929 7.279 7.709 8.289 8.919
2787.408 9.589 10.379 11.209 12.219 13.389 14.589 15.699 16.659 17.599 18.409
2806.698 19.189 20.109 21.179 22.479 24.099 26.119 28.249 30.459 32.639 34.419
2825.988 35.649 36.119 35.919 35.229 34.439 33.699 32.859 32.239 31.999 31.969
2845.278 32.049 32.219 32.499 32.839 33.219 33.609 34.109 34.709 35.319 35.869
2864.568 36.309 36.499 36.409 36.259 35.819 35.049 34.309 33.539 32.859 32.429
2883.858 32.179 32.119 32.279 32.699 33.289 33.959 34.829 35.749 36.599 37.559
2903.148 38.549 39.679 40.919 42.309 43.739 45.259 46.919 48.639 50.269 51.759
2922.438 53.109 54.019 54.449 54.469 54.379 54.349 54.669 55.529 57.089 59.639
2941.728 63.419 68.629 75.119 81.979 87.559 90.089 89.719 87.749 83.919 77.969
2961.018 70.369 62.379 56.259 52.919 51.899 52.729 54.909 58.209 62.679 67.649
2980.308 71.699 72.659 69.629 64.739 59.249 52.499 44.329 36.199 30.009 26.189
2999.598 24.309 23.629 23.359 23.309 23.349 23.059 22.229 20.929 19.399 17.539
3018.888 15.299 13.049 10.929 9.029 7.419 6.059 4.959 4.269 3.799 3.339
3038.178 3.029 2.779 2.479 2.339 2.219 2.049 1.929 1.909 1.959 1.929
3057.468 1.869 1.839 1.839 1.779 1.699 1.597 1.5633 1.5583 1.5353 1.4752
3076.758 1.4411 1.4837 1.4619 1.4078 1.3978 1.4338 1.4456 1.4824 1.5321 1.5453
3096.048 1.5109 1.4144 1.3739 1.5111 1.709 1.739 1.719 1.739 1.719 1.749
3115.338 1.779 1.769 1.709 1.639 1.5702 1.5822 1.5544 1.4593 1.4147 1.3027
3134.628 1.2361 1.2367 1.1683 1.1537 1.111 1.0531 1.0029 0.8969 0.9398 0.9469
3153.918 0.8798 0.9243 0.9477 1.015 1.0363 0.9673 0.8911 0.8462 0.8967 0.9152
3173.208 0.8882 0.9485 1.0056 1.0109 0.932 0.8977 0.9595 0.9772 0.988 0.9208
3192.498 0.8103 0.8148 0.8151 0.764 0.8582 0.9612 0.874 0.7696 0.71497 0.70743
3211.788 0.8427 0.7458 0.66034 0.8178 0.7496 0.65708 0.793 0.7482 0.5692 0.64268
3231.078 0.7252 0.65157 0.583 0.5777 0.5406 0.511 0.502 0.509 0.514 0.495
3250.368 0.5561 0.511 0.387 0.277 0.15 0.169 0.247 0.259 0.164 0.151
3269.658 0.223 0.263 0.315 0.211 0.086 0.069 0.05 0.141 0.278 0.285
3288.948 0.222 0.219 0.318 0.327 0.285 0.257 0.238 0.265 0.315 0.271
3308.238 0.246 0.34 0.351 0.221 0.246 0.354 0.434 0.51 0.486 0.43
3327.528 0.388 0.502 0.5643 0.5492 0.478 0.347 0.431 0.415 0.353 0.438
3346.818 0.296 0.226 0.389 0.475 0.412 0.385 0.434 0.497 0.5634 0.5517
3366.108 0.5652 0.66858 0.7885 0.71505 0.5634 0.581 0.5608 0.5651 0.7203 0.7341
3385.398 0.6047 0.627106 0.618424 0.5443 0.68615 0.8454 0.8026 0.831 0.9227 0.9975
3404.688 1.137 1.2699 1.3758 1.4632 1.5646 1.6058 1.619 1.6056 1.5905 1.5847
3423.978 1.4616 1.2943 1.12 1.0245 0.942 0.8489 0.8461 0.68302 0.504 0.414
3443.269 0.409 0.515 0.502 0.467 0.518 0.502 0.482 0.506 0.473 0.233
3462.559 0.14 0.211 0.181 0.237 0.278 0.185 0.101 0.143 0.134 0.163
3481.849 0.198 0.198 0.225 0.209 0.129 0.115 0.117 0.116 0.15 0.221
3501.139 0.195 0.166 0.201 0.143 0.12 0.106 0.077 0 0.117 0.232
3520.429 0.189 0.239 0.283 0.31 0.318 0.236 0.203 0.155 0.168 0.231
3539.719 0.159 0.236 0.269 0.167 0.185 0.133 0.101 0.137 0.112 0.216
3559.009 0.309 0.24 0.293 0.309 0.322 0.308 0.213 0.262 0.329 0.245
3578.299 0.178 0.162 0.206 0.258 0.175 0.254 0.334 0.303 0.265 0.241
3597.589 0.277 0.287 0.229 0.173 0.106 0.091 0.173 0.125 0.028 0.114
3616.879 0.182 0.149 0.166 0.313 0.376 0.382 0.319 0.184 0.196 0.182
3636.169 0.185 0.162 0.235 0.263 0.091 0.108 0.172 0.216 0.298 0.229
3655.459 0.237 0.337 0.238 0.23 0.257 0.274 0.184 0.113 0.223 0.213
3674.749 0.181 0.081 0.134 0.274 0.34 0.323 0.187 0.151 0.111 0.103
3694.039 0.227 0.106 0.108 0.377 0.479 0.474 0.464 0.436 0.379 0.269
3713.329 0.276 0.342 0.234 0.228 0.258 0.253 0.3 0.311 0.303 0.276
3732.619 0.249 0.217 0.305 0.372 0.393 0.405 0.268 0.236 0.342 0.35
3751.909 0.294 0.29 0.311 0.353 0.327 0.307 0.315 0.231 0.142 0.144
3771.199 0.115 0.115 0.176 0.282 0.306 0.285 0.246 0.139 0.199 0.225
3790.489 0.226 0.244 0.169 0.212 0.34 0.201 0.032 0.178 0.285 0.28
3809.779 0.318 0.303 0.173 0.226 0.436 0.381 0.272 0.298 0.397 0.48
3829.069 0.352 0.374 0.382 0.236 0.199 0.283 0.397 0.437 0.432 0.35
3848.359 0.327 0.321 0.32 0.39 0.406 0.416 0.412 0.362 0.395 0.387
3867.649 0.355 0.475 0.491 0.444 0.423 0.381 0.316 0.242 0.3 0.43
3886.939 0.482 0.5202 0.5404 0.5711 0.5851 0.5374 0.511 0.5394 0.5853 0.514
3906.229 0.444 0.473 0.499 0.479 0.5361 0.598 0.484 0.463 0.5381 0.5
3925.519 0.5657 0.63181 0.5205 0.5199 0.5851 0.5437 0.469 0.496 0.621461 0.5959
3944.809 0.5217 0.517 0.64677 0.63969 0.6023 0.5343 0.448 0.478 0.346 0.364
3964.099 0.5755 0.5754 0.5299 0.55 0.5978 0.5856 0.5644 0.51 0.358 0.413
3983.389 0.5817 0.5713 0.361 0.355 0.428 0.467 0.5255 0.5619 0.6053 0.606
##END=
