##TITLE=2,3,4-Trimethoxybenzoic acid
##JCAMP-DX=4.24
##DATA TYPE=INFRARED SPECTRUM
##ORIGIN=EPA-IR VAPOR PHASE LIBRARY
##OWNER=SRD/NIST
Collection (C) 2018 copyright by the U.S. Secretary of Commerce
on behalf of the United States of America. All rights reserved.
##CAS REGISTRY NO=573-11-5
##MOLFORM=C 10 H 12 O 5
##$NIST SOURCE=MSDC-IR
##STATE=gas
##XUNITS=1/CM
##YUNITS=ABSORBANCE
##XFACTOR=1.
##YFACTOR=0.001
##DELTAX=1.929
##FIRSTX=549.8
##LASTX=4000.8
##FIRSTY=2.857
##MAXX=4000.75
##MINX=549.766
##MAXY=0.043557
##MINY=0
##NPOINTS=1790
##XYDATA=(X++(Y..Y))
549.766 2.857 2.937 3.067 3.177 3.527 3.747 3.907 4.197 4.117 4.287
569.056 4.487 4.317 4.377 4.567 4.787 4.797 4.817 4.817 4.757 4.857
588.346 4.787 4.817 4.777 4.747 4.627 4.467 4.297 4.117 3.997 3.747
607.636 3.637 3.537 3.407 3.407 3.497 3.417 3.457 3.537 3.447 3.487
626.926 3.597 3.587 3.487 3.407 3.327 3.247 3.187 3.197 3.187 3.247
646.216 3.177 3.137 3.287 3.377 3.337 3.317 3.587 3.597 3.607 3.787
665.506 4.047 4.287 4.307 4.457 4.607 4.977 5.177 5.147 5.247 5.327
684.796 5.247 5.087 4.937 4.797 4.657 4.427 4.177 4.047 3.867 3.707
704.086 3.757 3.737 3.587 3.547 3.457 3.477 3.657 3.697 3.627 3.657
723.376 3.687 3.727 3.937 3.997 3.937 3.987 4.077 4.257 4.627 4.867
742.666 5.027 5.217 5.417 5.557 5.467 5.237 4.937 4.507 4.017 3.647
761.956 3.317 2.937 2.667 2.467 2.287 2.147 1.917 1.897 1.937 1.967
781.246 2.187 2.417 2.727 3.027 3.227 3.447 3.557 3.617 3.687 3.587
800.536 3.497 3.337 2.997 2.667 2.457 2.397 2.417 2.367 2.347 2.357
819.826 2.437 2.527 2.507 2.397 2.357 2.287 2.137 2.037 1.977 1.797
839.116 1.607 1.507 1.365 1.291 1.2809 1.2585 1.1518 1.0802 1.0276 1.0527
858.406 1.1355 1.1367 1.1851 1.2804 1.4425 1.717 1.997 2.337 2.647 2.887
877.696 3.177 3.367 3.467 3.507 3.347 3.047 2.777 2.577 2.357 2.047
896.986 1.807 1.627 1.567 1.597 1.507 1.457 1.467 1.467 1.537 1.677
916.276 1.807 1.877 2.027 2.257 2.487 2.677 2.747 2.817 2.887 2.737
935.566 2.457 2.287 2.257 2.157 1.977 1.937 1.857 1.697 1.617 1.647
954.856 1.657 1.617 1.707 1.797 1.807 1.807 1.837 1.907 2.007 2.107
974.146 2.147 2.267 2.477 2.637 2.787 3.037 3.397 3.767 4.257 4.917
993.436 5.547 6.307 7.277 8.407 9.687 11.007 12.367 13.707 14.997 16.337
1012.726 17.737 19.067 20.347 21.697 22.867 23.667 24.037 23.837 23.107 21.827
1032.016 20.147 18.207 16.047 13.967 12.077 10.447 9.137 8.227 7.727 7.497
1051.306 7.507 7.707 8.017 8.457 9.137 9.987 10.907 11.837 12.707 13.677
1070.596 14.777 15.697 16.487 17.447 18.397 19.347 20.317 21.317 22.447 23.567
1089.886 24.627 25.657 26.547 27.207 27.747 28.137 28.467 28.847 29.317 29.957
1109.176 30.637 31.237 31.727 31.967 31.787 31.107 29.927 28.147 25.867 23.407
1128.467 20.897 18.407 16.037 13.947 12.067 10.557 9.457 8.567 7.937 7.507
1147.757 7.237 7.147 7.177 7.377 7.777 8.327 8.977 9.717 10.507 11.217
1167.047 11.797 12.247 12.627 12.907 12.927 12.797 12.647 12.557 12.577 12.767
1186.337 13.087 13.537 14.087 14.667 15.337 15.977 16.497 16.907 17.157 17.287
1205.627 17.127 16.887 16.547 16.017 15.597 15.127 14.747 14.587 14.587 14.817
1224.917 15.147 15.447 15.787 16.207 16.577 16.797 16.967 17.047 16.797 16.457
1244.207 16.127 15.697 15.257 14.917 14.587 14.277 14.127 14.067 14.127 14.187
1263.497 14.327 14.657 15.187 15.947 16.957 18.427 20.267 22.417 24.947 27.607
1282.787 30.147 32.527 34.467 35.737 36.217 35.747 34.437 32.417 29.897 27.187
1302.077 24.487 21.907 19.697 17.917 16.557 15.637 14.957 14.547 14.407 14.377
1321.367 14.447 14.597 14.837 15.137 15.447 15.747 16.017 16.267 16.447 16.607
1340.657 16.737 16.827 16.897 17.007 17.147 17.237 17.347 17.537 17.697 17.877
1359.947 18.067 18.247 18.347 18.387 18.357 18.197 17.957 17.527 16.987 16.397
1379.237 15.727 15.047 14.387 13.807 13.347 13.017 12.867 12.997 13.407 14.097
1398.527 15.157 16.617 18.437 20.587 22.867 24.937 26.587 27.457 27.467 26.717
1417.817 25.197 22.907 20.177 17.427 15.027 13.177 11.777 10.927 10.407 10.137
1437.107 10.007 9.867 9.837 9.907 10.037 10.317 10.767 11.377 12.257 13.457
1456.397 14.947 16.457 17.837 19.107 19.957 20.347 20.127 19.327 18.217 16.877
1475.687 15.547 14.487 13.997 14.057 14.567 15.467 16.437 17.197 17.487 17.187
1494.977 16.337 14.897 12.987 10.907 9.007 7.517 6.357 5.457 4.817 4.297
1514.267 3.947 3.727 3.487 3.377 3.267 3.117 3.007 2.867 2.777 2.757
1533.557 2.747 2.747 2.767 2.827 2.817 2.777 2.757 2.767 2.937 3.077
1552.847 3.217 3.417 3.717 4.177 4.467 4.697 5.127 5.667 6.217 6.787
1572.137 7.477 8.377 9.487 10.707 12.137 13.827 15.747 17.787 19.677 21.207
1591.427 22.147 22.427 21.967 20.747 18.997 16.847 14.527 12.347 10.437 8.877
1610.717 7.607 6.527 5.777 5.227 4.667 4.157 3.777 3.447 3.117 2.857
1630.007 2.647 2.457 2.387 2.287 2.107 1.987 1.877 1.787 1.737 1.717
1649.297 1.647 1.717 1.787 1.567 1.497 1.507 1.467 1.477 1.477 1.517
1668.587 1.617 1.637 1.597 1.607 1.587 1.597 1.637 1.677 1.787 1.797
1687.877 1.837 1.927 1.957 2.087 2.257 2.327 2.487 2.697 2.817 2.977
1707.167 3.157 3.387 3.607 3.867 4.197 4.577 4.957 5.287 5.667 6.197
1726.457 6.817 7.547 8.487 9.767 11.467 13.307 15.317 17.447 19.277 20.887
1745.747 22.287 23.477 24.527 25.487 26.597 28.117 29.927 31.877 34.077 36.527
1765.037 39.107 41.467 43.077 43.557 42.797 41.107 38.447 34.527 29.317 23.607
1784.327 18.427 14.337 11.397 9.327 7.807 6.607 5.687 4.987 4.427 3.937
1803.617 3.547 3.197 2.897 2.657 2.477 2.357 2.187 2.077 2.027 1.957
1822.907 1.897 1.847 1.787 1.727 1.717 1.617 1.497 1.447 1.3834 1.3133
1842.197 1.2686 1.1882 1.131 1.0826 1.0376 1.0361 1.0418 1.0348 0.9987 0.9561
1861.487 0.941 0.9606 0.9776 0.9854 0.9808 0.9248 0.9121 0.942 0.9649 0.9742
1880.777 0.9669 0.9945 1.0206 1.0731 1.1313 1.1389 1.1055 1.066 1.0895 1.1346
1900.067 1.1605 1.1686 1.1402 1.1173 1.0916 1.0899 1.0945 1.0615 1.0311 0.9863
1919.357 0.9335 0.9347 0.9135 0.8681 0.8622 0.8841 0.9001 0.89 0.8796 0.8589
1938.647 0.848 0.8753 0.8784 0.8693 0.8872 0.8774 0.8839 0.8756 0.898 0.9241
1957.937 0.9326 0.9448 0.9137 0.8806 0.8737 0.8535 0.8026 0.8258 0.8197 0.7894
1977.227 0.8291 0.8457 0.8322 0.7828 0.7587 0.7715 0.7668 0.7144 0.7166 0.7948
1996.517 0.7955 0.7895 0.8124 0.801 0.8058 0.8343 0.8398 0.8236 0.8248 0.8342
2015.807 0.8225 0.8391 0.7968 0.7462 0.7456 0.7329 0.7593 0.758 0.7474 0.7596
2035.097 0.7352 0.7478 0.792 0.809 0.794 0.7724 0.78 0.7936 0.7335 0.6862
2054.387 0.7138 0.6656 0.6215 0.6639 0.6762 0.6583 0.6349 0.6435 0.6414 0.5853
2073.677 0.5772 0.5932 0.5935 0.5881 0.5822 0.6055 0.6361 0.6272 0.674 0.7283
2092.967 0.6958 0.6541 0.6931 0.7483 0.7298 0.7049 0.7202 0.6827 0.6477 0.6776
2112.257 0.6994 0.6973 0.6781 0.6654 0.6384 0.6563 0.6702 0.6685 0.6323 0.6329
2131.547 0.6592 0.6143 0.6245 0.6342 0.6256 0.6255 0.562 0.51337 0.50827 0.52593
2150.837 0.55 0.51413 0.5307 0.6156 0.5845 0.5639 0.5967 0.5811 0.5741 0.5622
2170.127 0.5831 0.5859 0.54375 0.54434 0.53746 0.51618 0.51795 0.51101 0.52434 0.549
2189.417 0.53513 0.51856 0.51721 0.50396 0.53097 0.5735 0.548 0.54025 0.52428 0.53221
2208.707 0.576 0.6043 0.6424 0.6516 0.6507 0.6439 0.6105 0.595 0.6101 0.5841
2227.997 0.5616 0.53961 0.48758 0.48555 0.49671 0.44395 0.3893 0.4264 0.46854 0.4274
2247.287 0.3946 0.3873 0.3742 0.3803 0.4079 0.4107 0.3754 0.4026 0.4331 0.3787
2266.577 0.3879 0.4322 0.4081 0.423 0.44538 0.3873 0.344 0.3555 0.3606 0.3592
2285.868 0.3945 0.3682 0.307 0.324 0.3717 0.3889 0.3892 0.3664 0.3561 0.354
2305.158 0.342 0.343 0.335 0.3748 0.3781 0.346 0.3685 0.3989 0.371 0.3562
2324.448 0.3703 0.3593 0.3683 0.4225 0.51593 0.51936 0.446911 0.4146 0.4136 0.4253
2343.738 0.44124 0.4221 0.4072 0.3876 0.4041 0.456894 0.453446 0.47568 0.51486 0.48215
2363.028 0.446024 0.48045 0.52426 0.52846 0.52112 0.51067 0.51377 0.5583 0.5483 0.50709
2382.318 0.51952 0.51924 0.52834 0.5079 0.450763 0.46795 0.4765 0.46146 0.49523 0.49702
2401.608 0.47865 0.49604 0.52618 0.5028 0.47139 0.51558 0.50279 0.47518 0.47565 0.4672
2420.898 0.5012 0.46322 0.44093 0.448328 0.452757 0.4276 0.4196 0.45936 0.4786 0.4683
2440.188 0.4262 0.4186 0.44537 0.48224 0.48567 0.52255 0.52372 0.49373 0.51538 0.5568
2459.478 0.5822 0.5651 0.53158 0.54256 0.5571 0.5453 0.51461 0.51445 0.5634 0.5584
2478.768 0.50391 0.48854 0.5135 0.5554 0.5508 0.51158 0.50267 0.47406 0.48351 0.53203
2498.058 0.5513 0.53359 0.5226 0.52367 0.559 0.5693 0.50485 0.48755 0.578 0.5989
2517.348 0.5568 0.542 0.51543 0.5521 0.5889 0.582 0.54141 0.5476 0.5754 0.556
2536.638 0.5423 0.53682 0.573 0.5983 0.6142 0.6132 0.5623 0.50999 0.50545 0.5662
2555.928 0.627 0.6228 0.6245 0.6751 0.6738 0.6845 0.7039 0.75 0.7694 0.7733
2575.218 0.7973 0.758 0.742 0.7519 0.7227 0.6227 0.6045 0.633 0.6086 0.5622
2594.508 0.53473 0.5387 0.53995 0.50776 0.48725 0.54523 0.52198 0.51655 0.5905 0.6176
2613.798 0.574 0.49744 0.4611 0.46995 0.49413 0.53495 0.51287 0.49871 0.51667 0.48711
2633.088 0.48861 0.50227 0.50797 0.48416 0.44281 0.4311 0.450346 0.45963 0.4594 0.46478
2652.378 0.4999 0.49094 0.47912 0.48798 0.48122 0.43915 0.4243 0.454956 0.48905 0.47096
2671.668 0.39 0.4186 0.46805 0.453312 0.4156 0.4018 0.448208 0.53323 0.5546 0.48943
2690.958 0.45722 0.48724 0.49282 0.52202 0.5603 0.52507 0.452667 0.3945 0.453107 0.52009
2710.248 0.48114 0.44062 0.48242 0.48797 0.47299 0.49672 0.4639 0.4295 0.48294 0.48175
2729.538 0.455888 0.51062 0.5579 0.50124 0.46439 0.46885 0.446078 0.46534 0.50661 0.50484
2748.828 0.51782 0.53238 0.50053 0.5606 0.5849 0.53894 0.5546 0.53375 0.5558 0.5913
2768.118 0.6313 0.6596 0.6097 0.6272 0.6888 0.7551 0.7097 0.6858 0.7649 0.716
2787.408 0.6829 0.7324 0.7568 0.8578 0.8844 0.849 0.9708 1.0386 1.0315 1.1157
2806.698 1.2334 1.3781 1.517 1.617 1.697 1.887 2.117 2.257 2.457 2.767
2825.988 2.977 3.267 3.767 4.227 4.697 5.117 5.437 5.817 6.167 6.397
2845.278 6.517 6.557 6.487 6.327 5.997 5.587 5.187 4.757 4.457 4.287
2864.568 4.127 3.977 3.917 3.867 3.957 4.047 4.087 4.107 4.167 4.257
2883.858 4.257 4.257 4.307 4.397 4.437 4.457 4.447 4.527 4.707 4.847
2903.148 4.897 4.957 5.107 5.207 5.327 5.457 5.547 5.707 5.767 5.877
2922.438 6.067 6.317 6.627 6.987 7.487 8.107 8.927 9.777 10.817 12.117
2941.728 13.467 14.707 15.577 16.147 16.337 15.977 15.277 14.357 13.177 11.987
2961.018 10.967 10.147 9.537 9.047 8.607 8.207 7.897 7.607 7.307 7.057
2980.308 6.847 6.677 6.557 6.487 6.377 6.487 6.667 6.787 6.907 7.117
2999.598 7.397 7.657 7.927 8.157 8.207 8.007 7.757 7.347 6.817 6.217
3018.888 5.617 5.067 4.577 4.177 3.777 3.377 3.107 3.037 2.947 2.727
3038.178 2.627 2.707 2.617 2.387 2.157 2.167 2.267 2.287 2.177 2.037
3057.468 2.017 2.007 1.947 1.917 1.887 1.877 1.827 1.797 1.917 1.877
3076.758 1.857 1.917 1.847 1.897 2.007 2.037 1.987 1.967 1.967 1.867
3096.048 1.797 1.717 1.537 1.3687 1.3475 1.3634 1.239 1.1224 1.0755 0.9683
3115.338 0.931 0.8593 0.7416 0.8509 0.9012 0.8524 0.8986 0.9277 0.8632 0.84
3134.628 0.8485 0.7592 0.7061 0.7237 0.7437 0.7624 0.7564 0.7357 0.6953 0.5785
3153.918 0.50447 0.49872 0.5553 0.5907 0.5715 0.554 0.449511 0.4876 0.547 0.46938
3173.208 0.45786 0.50257 0.5509 0.5576 0.48031 0.4137 0.3755 0.416 0.53299 0.5552
3192.498 0.5753 0.53153 0.3612 0.358 0.4112 0.4209 0.48771 0.4166 0.3475 0.396
3211.788 0.4083 0.432 0.3667 0.282 0.4278 0.3873 0.189 0.21 0.329 0.456999
3231.078 0.3985 0.3868 0.48699 0.3994 0.327 0.331 0.278 0.275 0.278 0.298
3250.368 0.332 0.318 0.4317 0.4925 0.4289 0.4053 0.4015 0.51738 0.5711 0.47178
3269.658 0.342 0.342 0.4079 0.337 0.3566 0.3883 0.3603 0.4185 0.51267 0.54159
3288.948 0.5598 0.5775 0.5776 0.6356 0.6657 0.676 0.6252 0.6639 0.8734 1.026
3308.238 1.0636 1.0366 1.0777 1.0767 1.1552 1.248 1.202 1.1806 1.196 1.2704
3327.528 1.2905 1.3542 1.607 1.707 1.787 2.007 2.187 2.357 2.577 2.707
3346.818 2.787 3.037 3.197 3.327 3.637 4.017 4.297 4.497 4.787 5.077
3366.108 5.197 5.297 5.437 5.607 5.707 5.787 5.907 5.897 5.797 5.797
3385.398 5.907 5.907 5.737 5.557 5.537 5.497 5.307 5.097 4.927 4.767
3404.688 4.577 4.487 4.407 4.257 4.067 3.887 3.677 3.477 3.427 3.387
3423.978 3.287 3.117 2.897 2.747 2.657 2.587 2.457 2.357 2.297 2.207
3443.269 2.157 2.067 1.977 1.967 1.967 1.887 1.847 1.757 1.647 1.647
3462.559 1.517 1.4178 1.3954 1.2774 1.1977 1.1873 1.1466 1.1582 1.1671 1.0496
3481.849 0.9838 0.9965 0.9302 0.8827 0.9629 0.9037 0.8658 0.9305 0.9513 0.9136
3501.139 0.842 0.7557 0.7386 0.7896 0.6986 0.7339 0.7789 0.8024 0.8118 0.7472
3520.429 0.7687 0.867 0.8678 0.7516 0.735 0.6998 0.6965 0.6818 0.6006 0.6552
3539.719 0.7137 0.6988 0.7667 0.8053 0.8113 0.8058 0.8334 1.0923 1.517 2.117
3559.009 2.987 4.047 5.187 6.117 6.837 7.407 7.617 7.737 7.647 7.067
3578.299 6.427 5.887 5.207 4.487 3.807 2.847 1.947 1.3479 0.8737 0.7257
3597.589 0.6913 0.5642 0.4111 0.324 0.294 0.257 0.3567 0.375 0.339 0.3943
3616.879 0.4855 0.49233 0.338 0.241 0.279 0.279 0.3521 0.3557 0.223 0.257
3636.169 0.25 0.23 0.251 0.298 0.33 0.289 0.249 0.278 0.3622 0.313
3655.459 0.343 0.406 0.316 0.244 0.203 0.229 0.21 0.213 0.233 0.145
3674.749 0.104 0.153 0.168 0.131 0.157 0.176 0.161 0.212 0.275 0.172
3694.039 0.157 0.259 0.216 0.17 0.179 0.115 0.153 0.17 0.098 0.176
3713.329 0.129 0.095 0.212 0.201 0.05 0.17 0.31 0.236 0.168 0.062
3732.619 0.133 0.273 0.273 0.216 0.236 0.268 0.3496 0.332 0.234 0.265
3751.909 0.132 0.052 0.026 0 0.139 0.203 0.131 0.112 0.134 0.17
3771.199 0.31 0.279 0.18 0.246 0.3635 0.3759 0.29 0.188 0.097 0.101
3790.489 0.045 0.047 0.106 0.068 0.058 0.103 0.202 0.192 0.107 0.24
3809.779 0.3693 0.291 0.185 0.2 0.296 0.313 0.273 0.252 0.294 0.315
3829.069 0.279 0.172 0.165 0.185 0.14 0.171 0.164 0.239 0.3606 0.3503
3848.359 0.326 0.306 0.336 0.401 0.307 0.221 0.204 0.232 0.3557 0.43839
3867.649 0.265 0.087 0.124 0.17 0.242 0.28 0.239 0.141 0.161 0.266
3886.939 0.27 0.14 0.135 0.194 0.194 0.277 0.253 0.359 0.4054 0.222
3906.229 0.248 0.243 0.176 0.243 0.346 0.342 0.254 0.217 0.145 0.226
3925.519 0.299 0.18 0.17 0.226 0.153 0.053 0.062 0.189 0.138 0.199
3944.809 0.346 0.269 0.29 0.278 0.26 0.323 0.251 0.135 0.289 0.3983
3964.099 0.336 0.232 0.132 0.218 0.301 0.301 0.302 0.298 0.27 0.264
3983.389 0.28 0.297 0.217 0.19 0.342 0.3985 0.34 0.289 0.325 0.3509
##END=
