##TITLE=9-Bromophenanthrene
##JCAMP-DX=4.24
##DATA TYPE=INFRARED SPECTRUM
##ORIGIN=NIST Mass Spectrometry Data Center
##OWNER=NIST Standard Reference Data Program
Collection (C) 2018 copyright by the U.S. Secretary of Commerce
on behalf of the United States of America. All rights reserved.
##CAS REGISTRY NO=573-17-1
##MOLFORM=C 14 H 9 Br
##$NIST SOURCE=MSDC-IR
##SPECTROMETER/DATA SYSTEM=HP-GC/MS/IRD
##STATE=gas
##XUNITS=1/CM
##YUNITS=ABSORBANCE
##XFACTOR=1.0
##YFACTOR=0.000000800
##DELTAX=4.0
##FIRSTX=550.0
##LASTX=3846.0
##FIRSTY=0.000346
##MAXX=3846
##MINX=550
##MAXY=0.008
##MINY=0
##NPOINTS=825
##XYDATA=(X++(Y..Y))
550.0 433 161 169 205 192 160 338 410 565 965
590.0 1356 1272 770 483 471 713 1031 1202 1045 687
630.0 561 499 460 358 324 382 395 402 467 511
670.0 495 537 582 536 587 692 672 690 926 1278
710.0 2146 3280 4762 5148 4022 4079 5211 7626 10000 9748
750.0 9198 8383 5679 3294 1833 1055 822 756 722 624
790.0 573 566 561 643 742 813 820 793 762 714
830.0 704 838 1150 1761 2353 2512 2226 1659 1326 1399
870.0 1775 2301 2873 2796 2084 1520 1140 1114 1481 2454
910.0 3972 4991 4789 3237 1806 1346 1137 1073 1097 1096
950.0 1012 945 868 759 688 715 759 745 695 730
990.0 822 873 911 901 795 645 613 695 778 741
1030.0 704 820 977 1023 1048 923 629 447 444 457
1070.0 429 426 351 430 495 451 420 408 407 372
1110.0 381 412 397 307 297 307 423 586 742 990
1150.0 1049 895 738 512 404 390 269 292 499 624
1190.0 577 512 531 593 666 577 360 185 40 0
1230.0 49 129 188 220 236 201 231 378 565 875
1270.0 1279 1514 1434 1142 914 780 604 434 304 232
1310.0 239 261 246 250 274 305 333 347 379 453
1350.0 502 595 846 1280 1850 2191 1999 1515 1134 904
1390.0 748 658 643 629 600 653 760 877 977 1022
1430.0 1046 1098 1324 1862 2414 2544 2124 1386 917 788
1470.0 771 826 1008 1403 1990 2465 2404 1790 1109 732
1510.0 636 656 679 694 674 639 575 505 464 499
1550.0 580 683 857 1134 1428 1555 1507 1477 1530 1679
1590.0 1808 1753 1523 1244 1086 1103 1149 1056 832 615
1630.0 479 417 395 381 330 282 292 321 343 373
1670.0 345 329 430 521 581 607 582 557 484 428
1710.0 382 335 390 433 408 371 316 298 324 367
1750.0 437 529 529 456 357 246 226 288 347 356
1790.0 337 319 307 338 388 437 464 431 383 379
1830.0 392 368 325 249 212 205 184 169 166 176
1870.0 192 211 261 318 375 402 343 314 319 346
1910.0 461 530 510 442 360 344 403 548 667 652
1950.0 536 395 262 158 119 109 133 139 113 104
1990.0 117 133 108 92 67 56 84 92 79 109
2030.0 110 93 69 64 91 83 74 62 81 97
2070.0 88 57 45 78 105 120 120 105 111 92
2110.0 65 41 16 34 66 69 38 27 41 47
2150.0 43 44 44 65 89 76 48 46 62 94
2190.0 84 37 7 13 42 37 17 18 35 52
2230.0 52 34 48 76 55 36 46 33 48 44
2270.0 12 21 40 66 70 58 79 93 98 114
2310.0 100 67 63 70 86 72 72 73 57 87
2350.0 75 54 76 69 61 82 82 75 79 77
2390.0 80 70 66 50 30 35 40 52 53 69
2430.0 68 87 96 119 143 125 91 65 94 91
2470.0 91 117 126 105 126 140 92 106 111 76
2510.0 82 92 55 56 87 67 76 120 149 156
2550.0 133 127 143 142 164 181 159 155 143 121
2590.0 131 145 172 179 169 158 153 157 140 115
2630.0 119 148 162 171 185 132 87 51 72 114
2670.0 109 142 145 158 161 150 160 198 198 151
2710.0 166 173 137 146 162 186 182 206 268 228
2750.0 121 124 175 148 196 212 169 155 210 199
2790.0 178 200 201 201 201 196 191 214 216 213
2830.0 233 234 226 244 244 193 238 257 256 236
2870.0 213 242 219 194 183 165 200 238 244 253
2910.0 243 284 320 310 342 324 325 369 334 341
2950.0 359 347 339 332 366 340 252 222 268 346
2990.0 343 366 425 488 563 548 621 832 1003 1159
3030.0 1340 1435 1462 1493 1529 1767 2293 3008 3659 3978
3070.0 4079 4090 4178 4247 3994 3456 2783 2202 1826 1502
3110.0 1119 878 695 525 476 400 305 312 305 288
3150.0 274 263 266 252 287 220 154 206 252 211
3190.0 155 146 246 252 124 145 214 213 208 256
3230.0 237 203 176 190 164 132 183 134 118 159
3270.0 150 139 209 292 242 192 187 276 315 209
3310.0 159 145 222 217 182 244 220 204 197 139
3350.0 130 94 114 149 137 206 232 223 213 160
3390.0 101 70 152 179 126 77 5 96 193 204
3430.0 178 166 147 164 213 136 114 197 157 119
3470.0 169 144 86 60 156 182 76 117 208 191
3510.0 133 67 84 179 146 29 42 130 120 80
3550.0 81 92 144 136 37 41 138 175 188 136
3590.0 81 119 165 146 90 81 148 172 134 237
3630.0 260 186 170 220 189 142 179 154 213 241
3670.0 189 157 176 223 221 213 188 118 83 59
3710.0 31 85 200 234 175 197 108 55 82 96
3750.0 142 144 142 159 158 165 200 237 187 97
3790.0 88 112 168 248 286 275 237 152 125 141
3830.0 144 200 251 264 262
##END=
