##TITLE=4-(4-Ethylphenyl)benzoic acid
##JCAMP-DX=4.24
##DATA TYPE=INFRARED SPECTRUM
##ORIGIN=EPA-IR VAPOR PHASE LIBRARY
##OWNER=SRD/NIST
Collection (C) 2018 copyright by the U.S. Secretary of Commerce
on behalf of the United States of America. All rights reserved.
##CAS REGISTRY NO=5731-13-5
##MOLFORM=C 15 H 14 O 2
##$NIST SOURCE=MSDC-IR
##STATE=gas
##XUNITS=1/CM
##YUNITS=ABSORBANCE
##XFACTOR=1.
##YFACTOR=0.001
##DELTAX=1.92898
##FIRSTX=549.8
##LASTX=4000.7
##FIRSTY=6.093
##MAXX=4000.7
##MINX=549.759
##MAXY=0.110733
##MINY=0
##NPOINTS=1790
##XYDATA=(X++(Y..Y))
549.759 6.093 6.263 6.263 6.313 6.563 6.703 6.943 7.313 7.613 7.883
569.049 7.633 7.333 7.523 7.893 7.823 7.403 7.593 7.363 7.003 6.763
588.339 6.953 6.963 6.543 5.933 4.933 4.323 4.213 3.903 3.543 3.333
607.628 2.933 2.913 3.093 2.823 2.493 2.493 2.573 2.463 2.403 2.183
626.918 2.123 2.353 2.133 2.033 2.343 2.543 2.243 2.183 2.263 1.993
646.208 2.023 2.523 2.643 2.493 2.483 2.983 3.863 4.453 5.703 7.443
665.498 9.753 11.943 12.813 12.703 11.833 10.033 7.873 6.013 4.693 4.193
684.787 4.133 4.073 4.043 4.283 4.613 4.773 5.263 5.823 6.033 6.413
704.077 6.833 6.713 6.653 6.703 6.543 6.383 6.223 5.613 4.953 4.383
723.367 3.973 4.123 4.103 3.993 4.063 4.103 4.193 4.263 4.303 4.343
742.657 4.453 4.473 4.633 5.163 5.723 6.203 7.253 9.063 10.763 12.263
761.947 13.243 13.683 13.353 12.643 12.083 11.603 11.413 10.793 10.003 9.263
781.236 8.503 7.793 7.073 6.423 5.743 5.333 5.053 4.983 5.213 4.763
800.526 4.373 4.193 4.003 4.273 4.613 4.773 5.033 5.473 5.733 6.083
819.816 6.623 7.223 8.003 8.493 8.903 9.273 9.083 8.763 8.413 7.673
839.106 6.743 6.163 5.473 4.873 4.703 4.293 4.013 3.973 3.843 3.633
858.395 3.433 3.293 3.453 3.463 2.863 2.393 2.223 2.263 2.083 1.593
877.685 1.453 1.493 1.2688 1.543 1.863 1.793 1.733 1.623 1.603 1.423
896.975 1.2616 1.3954 1.403 1.3752 1.473 1.3715 1.2176 1.2278 0.9861 1.2308
916.265 1.773 1.433 1.2095 1.1634 1.1524 1.533 1.3398 1.0311 1.0914 1.0346
935.555 1.2828 1.463 1.493 1.563 1.413 1.1238 1.3596 1.683 1.573 1.443
954.844 1.473 1.783 1.603 1.0833 1.2412 1.473 1.693 1.933 1.973 2.163
974.134 2.043 1.723 1.423 1.503 1.723 1.653 1.673 1.743 1.923 1.993
993.424 2.323 2.913 3.223 4.183 5.733 7.253 8.673 9.403 9.163 8.253
1012.714 7.253 6.353 6.033 6.233 6.573 6.553 5.893 5.503 5.353 5.083
1032.003 4.683 4.413 4.193 4.103 4.233 4.283 4.023 4.223 4.983 5.113
1051.293 5.323 5.893 6.123 6.903 8.503 10.133 12.353 15.043 17.713 21.913
1070.583 26.923 32.533 39.633 46.233 50.933 52.143 49.623 44.253 36.003 27.223
1089.873 21.303 17.903 15.623 13.883 11.493 9.353 8.593 8.633 8.593 8.183
1109.163 7.583 6.743 6.303 7.023 7.953 7.313 6.763 6.983 6.743 6.773
1128.452 7.103 6.783 6.743 6.903 6.643 7.053 7.263 6.473 5.943 5.923
1147.742 6.453 7.423 7.863 8.863 10.263 11.393 13.453 16.453 19.963 24.783
1167.032 30.943 36.883 41.523 44.523 44.653 41.443 36.443 31.463 27.443 25.073
1186.322 23.453 22.623 21.613 18.713 15.663 13.373 11.633 10.033 9.423 8.853
1205.611 7.633 7.443 7.223 6.233 5.483 5.453 6.153 7.023 7.033 6.553
1224.901 6.513 6.173 5.363 5.423 6.213 6.133 5.563 5.283 5.303 5.693
1244.191 6.033 6.113 6.253 6.073 5.893 6.223 6.663 6.983 7.333 7.843
1263.481 8.063 8.213 8.973 9.513 9.813 10.013 10.123 10.333 10.263 10.173
1282.771 9.883 9.493 9.243 8.963 8.643 8.273 7.963 7.823 7.583 7.353
1302.060 7.373 7.553 7.613 7.793 8.143 8.403 8.743 9.023 9.303 9.833
1321.350 10.343 10.833 11.373 11.963 12.503 12.933 13.443 14.003 14.223 13.973
1340.640 13.603 13.093 12.533 12.093 11.813 11.873 12.243 12.963 14.033 15.443
1359.930 17.163 18.793 19.673 19.323 17.943 15.813 13.313 11.003 9.123 7.843
1379.219 7.023 6.403 6.063 5.923 5.753 5.753 5.973 6.273 6.503 6.583
1398.509 6.573 6.513 6.323 5.983 5.633 5.273 4.943 4.733 4.563 4.473
1417.799 4.443 4.383 4.223 3.913 3.623 3.283 3.033 2.843 2.773 2.643
1437.089 2.463 2.383 2.443 2.563 2.533 2.523 2.463 2.543 2.663 2.723
1456.378 2.663 2.683 2.843 2.963 3.103 3.123 3.083 3.053 2.983 2.983
1475.668 3.053 3.213 3.373 3.613 3.933 4.243 4.693 5.263 5.863 6.453
1494.958 7.073 7.663 7.783 7.363 6.683 5.553 4.393 3.683 3.133 2.823
1514.248 2.813 2.773 2.823 2.963 3.113 3.203 3.273 3.313 3.133 2.803
1533.538 2.593 2.483 2.283 2.073 2.033 2.093 2.093 2.143 2.123 2.223
1552.827 2.463 2.573 2.553 2.393 2.503 2.673 2.683 2.653 2.683 2.743
1572.117 2.713 2.693 2.603 2.713 2.893 2.943 3.113 3.303 3.533 3.993
1591.407 4.613 5.393 6.273 7.433 8.973 10.723 12.693 14.853 16.943 18.293
1610.697 18.443 17.283 14.933 12.023 9.263 7.053 5.563 4.473 3.673 3.093
1629.986 2.713 2.563 2.363 2.123 2.013 1.993 1.873 1.723 1.763 1.763
1649.276 1.763 1.813 1.783 1.803 1.893 1.823 1.853 1.983 1.893 1.873
1668.566 1.893 1.943 2.003 1.953 2.013 2.073 2.043 2.103 2.163 2.293
1687.856 2.523 2.663 2.753 2.863 2.973 3.143 3.303 3.523 3.673 3.803
1707.146 4.063 4.313 4.653 4.963 5.103 5.073 5.093 5.223 5.283 5.523
1726.435 5.793 6.123 6.763 7.443 8.463 10.083 12.043 14.523 17.803 22.103
1745.725 27.643 35.233 45.953 60.973 79.843 97.923 109.013 110.733 103.013 85.943
1765.015 65.533 48.873 37.193 28.963 22.983 18.653 15.423 13.133 11.513 10.333
1784.305 9.373 8.453 7.743 7.003 6.323 5.823 5.393 5.143 4.823 4.593
1803.594 4.573 4.393 4.253 4.103 3.863 3.613 3.353 3.173 3.063 2.913
1822.884 2.733 2.573 2.393 2.293 2.173 2.003 1.863 1.793 1.633 1.483
1842.174 1.473 1.453 1.35 1.2911 1.2713 1.2541 1.1708 1.1243 1.1989 1.1634
1861.464 1.0621 1.0746 1.0202 0.9197 1.0267 1.0713 1.0965 1.2011 1.1513 1.033
1880.754 1.0645 1.1301 1.1457 1.1927 1.2949 1.443 1.483 1.553 1.543 1.493
1900.043 1.583 1.563 1.583 1.603 1.543 1.483 1.423 1.413 1.413 1.413
1919.333 1.443 1.513 1.543 1.553 1.543 1.603 1.643 1.613 1.573 1.483
1938.623 1.423 1.413 1.3579 1.3346 1.266 1.1344 1.1591 1.1751 1.1132 1.1105
1957.913 1.1005 1.055 1.0331 0.9149 0.7827 0.7872 0.8028 0.8663 0.9402 0.8278
1977.202 0.7684 0.8542 0.8981 0.8886 0.8712 0.7973 0.7735 0.7851 0.7869 0.8005
1996.492 0.7116 0.6084 0.5935 0.6696 0.7142 0.7371 0.7715 0.7996 0.7257 0.746
2015.782 0.7767 0.6013 0.6339 0.7535 0.7645 0.7124 0.6427 0.7064 0.734 0.7013
2035.072 0.7009 0.6599 0.6429 0.6392 0.6243 0.6081 0.7035 0.7593 0.7335 0.7716
2054.362 0.7382 0.7237 0.619 0.5935 0.6198 0.6086 0.6396 0.5403 0.5949 0.7124
2073.651 0.6297 0.5604 0.6212 0.6035 0.5559 0.6419 0.7166 0.713 0.6008 0.5485
2092.941 0.6191 0.5917 0.5969 0.5507 0.5557 0.7381 0.6615 0.582 0.5973 0.563
2112.231 0.5626 0.5629 0.5373 0.5252 0.5511 0.5765 0.6175 0.6227 0.5652 0.5744
2131.521 0.6571 0.6259 0.6292 0.7124 0.788 0.7494 0.709 0.73 0.7763 0.8294
2150.810 0.7709 0.685 0.619 0.6176 0.67 0.7865 0.8966 0.8898 0.7527 0.6784
2170.100 0.6889 0.6808 0.7538 0.7176 0.6516 0.6657 0.652 0.6096 0.6055 0.5257
2189.390 0.5084 0.5281 0.409344 0.44284 0.43199 0.46422 0.5363 0.4674 0.402247 0.48129
2208.680 0.5486 0.528 0.5406 0.5529 0.6392 0.6403 0.7209 0.774 0.6158 0.5132
2227.970 0.5521 0.5679 0.47403 0.39602 0.408209 0.5119 0.5469 0.5483 0.5922 0.6193
2247.259 0.5543 0.519 0.5222 0.4415 0.43016 0.44911 0.49758 0.5065 0.48286 0.5517
2266.549 0.5038 0.5205 0.5605 0.5227 0.6078 0.6734 0.7091 0.7008 0.559 0.412118
2285.839 0.5737 0.6293 0.5719 0.6438 0.6153 0.6327 0.6678 0.6996 0.7125 0.7255
2305.129 0.6422 0.5894 0.6052 0.5582 0.5887 0.5958 0.589 0.5963 0.6336 0.6414
2324.418 0.5824 0.589 0.5963 0.6802 0.785 0.8037 0.7495 0.6059 0.5768 0.5736
2343.708 0.5631 0.6586 0.723 0.6881 0.5928 0.6536 0.8084 0.7627 0.6997 0.7378
2362.998 0.7239 0.6716 0.6161 0.5828 0.6067 0.5884 0.5157 0.663 0.7767 0.6299
2382.288 0.5096 0.5782 0.7957 0.863 0.7945 0.8112 0.7024 0.618 0.5763 0.44875
2401.578 0.5198 0.5348 0.5035 0.6064 0.6977 0.7064 0.6495 0.5863 0.5272 0.6177
2420.867 0.6972 0.5726 0.5769 0.617 0.43464 0.47203 0.6098 0.6029 0.6348 0.63
2440.157 0.5839 0.5611 0.6186 0.6048 0.5155 0.535 0.6461 0.5899 0.47483 0.5201
2459.447 0.561 0.5074 0.47148 0.410109 0.3794 0.46906 0.5491 0.5637 0.5284 0.5083
2478.737 0.46007 0.46557 0.5096 0.5214 0.6326 0.8243 0.82 0.6814 0.5387 0.44352
2498.026 0.43039 0.43204 0.5294 0.5107 0.42155 0.44716 0.5334 0.6027 0.6055 0.622
2517.316 0.5691 0.41825 0.44211 0.48779 0.46492 0.5128 0.47272 0.5676 0.5674 0.3888
2536.606 0.3211 0.408025 0.5781 0.6394 0.5618 0.5785 0.5832 0.6794 0.6777 0.5386
2555.896 0.5994 0.5665 0.49812 0.46689 0.45414 0.49132 0.553 0.5757 0.602 0.5655
2575.186 0.5139 0.6472 0.6853 0.5314 0.5827 0.6558 0.6388 0.5747 0.49679 0.4322
2594.475 0.412151 0.48207 0.49751 0.43454 0.3301 0.3619 0.3714 0.3074 0.5704 0.6832
2613.765 0.42535 0.42695 0.45163 0.5137 0.6241 0.5938 0.50073 0.3384 0.4963 0.7335
2633.055 0.676 0.5002 0.5094 0.5295 0.49341 0.5924 0.6235 0.572 0.49131 0.48424
2652.345 0.4787 0.43814 0.42895 0.43321 0.4638 0.39934 0.41757 0.5598 0.42136 0.3265
2671.634 0.3693 0.3447 0.4679 0.49057 0.47884 0.575 0.5497 0.5263 0.5432 0.41837
2690.924 0.248 0.3266 0.46643 0.48262 0.5844 0.5142 0.3753 0.5643 0.6576 0.5414
2710.214 0.49143 0.5137 0.5847 0.5702 0.6083 0.666 0.65 0.601 0.6854 0.719
2729.504 0.5444 0.6251 0.7433 0.8211 0.8319 0.6524 0.48981 0.47187 0.6227 0.6328
2748.794 0.5224 0.45975 0.49602 0.5594 0.5436 0.6142 0.7151 0.7036 0.6765 0.6683
2768.083 0.5408 0.5201 0.5745 0.6318 0.6791 0.6497 0.6909 0.7853 0.8247 0.7143
2787.373 0.6463 0.6855 0.7051 0.7534 0.9145 0.9019 0.6682 0.5932 0.5965 0.6654
2806.663 0.8361 0.9142 0.7667 0.83 0.9134 0.8594 1.0205 1.1341 1.0131 0.8993
2825.953 0.9595 1.0118 1.2159 1.2835 1.1682 1.1703 1.3128 1.3402 1.3939 1.473
2845.242 1.3612 1.3539 1.553 1.803 1.873 1.883 2.103 2.353 2.663 3.023
2864.532 3.303 3.483 3.603 3.923 4.203 4.063 4.123 4.373 4.363 4.473
2883.822 4.763 5.043 5.003 4.933 5.003 4.733 4.513 4.293 4.223 4.443
2903.112 4.463 4.483 4.633 4.763 4.633 4.543 4.683 4.723 4.543 4.533
2922.401 4.713 4.853 5.033 5.253 5.743 6.283 6.753 7.083 7.473 8.053
2941.691 8.403 8.643 8.693 8.303 7.873 7.423 6.863 6.503 6.363 6.553
2960.981 6.973 7.593 8.523 9.723 11.623 14.073 16.193 17.053 16.613 14.783
2980.271 12.013 9.433 7.563 6.423 5.693 5.133 4.743 4.433 4.163 4.053
2999.561 3.983 3.943 3.833 3.733 3.653 3.723 3.923 4.053 4.063 4.093
3018.850 4.463 5.203 6.123 6.993 7.823 8.563 8.553 7.943 7.223 6.353
3038.140 5.593 5.143 5.043 4.933 4.853 4.833 4.803 4.813 4.813 4.923
3057.430 4.963 4.813 4.743 4.763 4.563 4.403 4.443 4.303 4.203 4.163
3076.720 3.973 3.633 3.533 3.643 3.613 3.753 3.753 3.513 3.343 3.233
3096.009 3.053 2.933 2.823 2.503 2.263 2.093 1.763 1.633 1.603 1.543
3115.299 1.703 1.793 1.543 1.3032 1.3172 1.3416 1.3044 1.2379 1.0801 1.1683
3134.589 1.2416 1.0215 0.9669 0.8957 0.9433 1.1343 1.0671 0.8827 0.8266 0.7923
3153.879 0.6842 0.5811 0.696 0.6918 0.585 0.48696 0.419 0.5999 0.6861 0.7335
3173.169 0.8533 0.9735 0.8097 0.6597 0.752 0.7642 0.6764 0.6719 0.7561 0.6068
3192.458 0.44716 0.45476 0.5062 0.5947 0.6729 0.5265 0.4412 0.6331 0.7697 0.6589
3211.748 0.5814 0.6688 0.6618 0.47756 0.5281 0.6327 0.5408 0.7375 0.6391 0.412691
3231.038 0.42953 0.44989 0.42403 0.412735 0.5306 0.47165 0.3378 0.44046 0.264 0.289
3250.328 0.46553 0.44858 0.5219 0.3309 0.3861 0.50212 0.3507 0.3555 0.4442 0.5546
3269.617 0.749 0.661 0.44172 0.42559 0.44423 0.44482 0.3269 0.3212 0.45305 0.41369
3288.907 0.43702 0.5062 0.6429 0.6863 0.6309 0.711 0.6084 0.44784 0.403063 0.46484
3308.197 0.6313 0.5278 0.3101 0.3554 0.42256 0.5556 0.6509 0.5467 0.4228 0.3968
3327.487 0.3567 0.3784 0.412171 0.379 0.4432 0.5043 0.4778 0.4774 0.5129 0.46364
3346.777 0.48735 0.5568 0.6411 0.7151 0.6487 0.47607 0.6477 0.6601 0.3686 0.3917
3366.066 0.45689 0.48615 0.5826 0.5777 0.5424 0.7346 0.8259 0.5209 0.3095 0.353
3385.356 0.39801 0.3488 0.3206 0.285 0.28 0.5175 0.42024 0.3093 0.4941 0.6308
3404.646 0.6411 0.412863 0.119 0 0.08 0.254 0.5242 0.5407 0.41341 0.4353
3423.936 0.49335 0.5544 0.49948 0.46204 0.6182 0.46115 0.3056 0.48765 0.49273 0.3126
3443.225 0.3293 0.4262 0.3053 0.3451 0.48333 0.3921 0.269 0.39852 0.39405 0.3898
3462.515 0.7414 0.8762 0.7606 0.7413 0.5328 0.47267 0.7596 0.7184 0.5456 0.5305
3481.805 0.6278 0.8795 0.9463 0.8577 0.7344 0.8257 0.9086 1.2978 1.483 1.1277
3501.095 1.1561 1.1392 1.1806 1.1608 1.1078 1.1923 1.1147 0.9093 0.6481 0.627
3520.385 0.5894 0.46106 0.50062 0.662 0.7039 0.5906 0.6023 0.7256 0.6303 0.7078
3539.674 0.8263 0.6248 0.6683 0.8019 1.0545 1.3538 1.348 1.0767 1.2545 1.803
3558.964 1.823 1.853 2.263 2.763 3.393 4.403 5.933 8.233 11.513 16.313
3578.254 22.843 30.343 36.003 36.873 33.453 26.773 18.083 10.483 6.073 3.843
3597.544 2.673 2.243 1.853 1.2377 1.0692 1.2653 1.234 0.9817 0.8892 1.0077
3616.833 0.9078 0.753 0.7071 0.852 1.0119 0.8134 0.49206 0.43022 0.5684 0.7791
3636.123 0.8015 0.6604 0.6958 0.5781 0.4638 0.3315 0.232 0.3764 0.3845 0.49988
3655.413 0.5216 0.5545 0.8235 0.7571 0.5702 0.6169 0.5427 0.3835 0.4449 0.3373
3674.703 0.3096 0.6056 0.6383 0.5331 0.7082 0.6694 0.5305 0.47835 0.5543 0.7834
3693.993 0.8636 0.6555 0.5203 0.615 0.7155 0.8406 0.8249 0.7679 0.6161 0.46462
3713.282 0.48287 0.5484 0.48791 0.39977 0.44526 0.5414 0.49351 0.5342 0.8206 0.8204
3732.572 0.6139 0.46611 0.3873 0.579 0.6478 0.5509 0.6198 0.5692 0.3907 0.211
3751.862 0.265 0.39392 0.43152 0.46846 0.41624 0.47182 0.539 0.5536 0.6483 0.5522
3771.152 0.47144 0.5595 0.555 0.5555 0.4569 0.6677 0.724 0.46179 0.6256 0.6265
3790.441 0.47929 0.5279 0.5342 0.3888 0.257 0.219 0.255 0.3859 0.40191 0.6929
3809.731 0.7909 0.6914 0.44855 0.3193 0.46822 0.5415 0.44578 0.39381 0.5793 0.43711
3829.021 0.253 0.282 0.409876 0.3669 0.388 0.5172 0.5291 0.43363 0.219 0.162
3848.311 0.115 0.186 0.3305 0.3842 0.5056 0.46491 0.46653 0.6263 0.7209 0.6679
3867.601 0.5642 0.41834 0.40127 0.4757 0.5259 0.6353 0.69 0.6373 0.407832 0.44919
3886.890 0.6654 0.6455 0.536 0.301 0.357 0.701 0.7887 0.6082 0.4732 0.5095
3906.180 0.6984 0.7832 0.849 0.9119 0.6476 0.267 0.146 0.09 0.115 0.248
3925.470 0.3138 0.3189 0.42144 0.5362 0.5696 0.5669 0.5191 0.47527 0.5035 0.5615
3944.760 0.6816 0.46731 0.154 0.412864 0.49647 0.477 0.6005 0.5668 0.8974 0.9516
3964.049 0.5598 0.6119 0.7144 0.6679 0.5759 0.5258 0.48556 0.5941 0.591 0.43293
3983.339 0.49312 0.5967 0.7664 1.004 0.7798 0.5033 0.652 0.39333 0.3615 0.6251
##END=
