##TITLE=p-Hexyloxybenzaldehyde
##JCAMP-DX=4.24
##DATA TYPE=INFRARED SPECTRUM
##ORIGIN=EPA-IR VAPOR PHASE LIBRARY
##OWNER=SRD/NIST
Collection (C) 2018 copyright by the U.S. Secretary of Commerce
on behalf of the United States of America. All rights reserved.
##CAS REGISTRY NO=5736-94-7
##MOLFORM=C 13 H 18 O 2
##$NIST SOURCE=MSDC-IR
##STATE=gas
##XUNITS=1/CM
##YUNITS=ABSORBANCE
##XFACTOR=1.
##YFACTOR=0.001
##DELTAX=1.92898
##FIRSTX=549.8
##LASTX=4000.7
##FIRSTY=0.9038
##MAXX=4000.7
##MINX=549.759
##MAXY=0.121676
##MINY=0
##NPOINTS=1790
##XYDATA=(X++(Y..Y))
549.759 0.9038 1.0023 1.296 1.296 1.0693 0.9872 0.8727 0.8711 1.0688 1.1295
569.049 1.0994 0.9715 1.0952 1.406 1.396 1.316 1.376 1.686 2.176 2.526
588.339 3.016 3.396 3.536 3.956 4.456 4.936 5.546 6.336 6.716 6.896
607.628 7.516 8.136 8.606 9.026 9.436 9.516 8.956 8.066 6.806 5.306
626.918 4.136 3.396 2.926 2.946 3.206 3.576 4.096 4.506 4.936 5.386
646.208 5.556 5.506 5.406 4.986 4.426 3.776 3.056 2.556 2.276 1.936
665.498 1.676 1.626 1.546 1.206 1.0303 0.9202 0.9641 1.133 0.9878 0.8331
684.787 0.8715 0.8747 0.8894 0.9303 1.0246 0.957 0.8441 1.0037 1.0216 1.1177
704.077 1.326 1.326 1.306 1.296 1.216 1.396 1.566 1.616 1.726 1.776
723.367 1.806 1.906 1.886 1.886 2.086 2.146 2.156 2.046 2.156 2.466
742.657 2.486 2.516 2.546 2.596 2.606 2.626 2.776 2.756 2.716 2.706
761.947 2.766 2.716 2.656 2.886 3.006 2.936 2.966 3.066 3.156 3.116
781.236 3.006 3.166 3.256 3.406 3.596 3.686 3.866 4.176 4.646 5.226
800.526 5.856 6.626 7.436 8.136 8.866 9.646 10.686 11.896 13.296 14.806
819.816 16.346 17.976 19.346 20.256 20.846 21.216 21.096 20.666 20.076 19.436
839.106 18.866 18.356 17.986 17.816 17.876 17.926 17.776 17.296 16.456 15.266
858.395 13.746 12.136 10.656 9.056 7.616 6.576 5.806 4.976 4.196 3.756
877.685 3.376 2.956 2.686 2.466 2.326 2.496 2.616 2.376 2.086 2.226
896.975 2.356 2.216 2.306 2.456 2.306 2.336 2.406 2.366 2.336 2.396
916.265 2.656 2.806 2.986 3.316 3.586 3.936 4.236 4.396 4.586 4.776
935.555 4.906 4.996 5.066 5.156 5.186 4.856 4.626 4.586 4.286 4.246
954.844 4.136 4.026 3.986 3.686 3.776 3.936 3.856 3.876 3.926 3.986
974.134 4.046 4.106 4.276 4.506 4.506 4.516 5.106 5.556 5.846 6.316
993.424 6.736 7.536 8.606 9.646 10.656 11.576 12.726 14.026 14.946 15.766
1012.714 16.766 17.626 17.896 18.036 18.256 18.076 17.806 17.246 16.456 15.676
1032.003 14.946 14.186 13.626 12.996 12.386 12.116 11.826 11.486 11.246 11.106
1051.293 10.876 10.586 10.136 9.516 8.866 8.116 7.586 7.246 6.856 6.376
1070.583 6.136 5.916 5.676 5.776 5.486 5.426 5.736 5.346 4.736 4.386
1089.873 4.226 4.006 4.106 4.316 4.346 4.896 5.756 6.046 5.776 5.816
1109.163 5.696 5.706 5.666 5.276 5.206 5.216 5.266 5.216 5.086 5.096
1128.452 5.346 5.436 5.466 5.666 6.056 6.736 7.776 9.096 11.076 13.696
1147.742 17.616 24.056 34.216 49.356 67.026 81.246 87.646 85.946 76.196 59.386
1167.032 41.366 27.566 19.046 14.216 11.346 9.816 9.046 8.796 8.766 8.836
1186.322 9.386 10.256 11.516 13.206 15.726 18.726 21.746 25.606 29.426 32.676
1205.611 35.366 36.976 37.546 37.496 37.956 38.866 40.116 42.096 44.446 46.546
1224.901 48.046 49.476 51.206 53.216 56.226 60.306 65.516 71.166 76.446 81.496
1244.191 86.056 89.696 91.816 92.486 91.566 88.426 83.136 76.276 68.006 59.396
1263.481 51.416 43.946 37.556 32.636 28.816 25.806 23.546 21.846 20.526 19.766
1282.771 19.486 19.756 20.556 21.806 23.606 25.736 28.216 31.006 33.326 34.826
1302.060 35.446 34.786 32.916 30.226 27.176 24.066 21.176 18.716 16.606 14.796
1321.350 13.276 11.986 10.926 10.086 9.306 8.586 8.076 7.666 7.256 6.926
1340.640 6.706 6.506 6.356 6.216 6.076 5.916 5.716 5.506 5.326 5.136
1359.930 4.946 4.856 4.876 4.926 5.086 5.296 5.546 5.996 6.656 7.586
1379.219 8.846 10.366 11.936 13.256 14.076 14.236 13.666 12.546 11.106 9.606
1398.509 8.376 7.376 6.616 6.126 5.796 5.636 5.556 5.586 5.766 6.096
1417.799 6.526 7.086 7.656 7.996 8.066 7.926 7.486 6.826 6.276 5.846
1437.089 5.636 5.606 5.636 5.746 5.926 6.156 6.436 6.776 7.166 7.536
1456.378 7.966 8.516 9.086 9.756 10.696 11.986 13.476 14.836 15.656 15.926
1475.668 15.466 14.246 12.666 11.066 9.806 9.016 8.746 9.036 10.006 11.616
1494.958 13.966 17.416 22.066 27.796 33.886 38.936 41.746 41.506 38.316 32.626
1514.248 25.766 19.316 14.386 11.146 8.886 7.396 6.386 5.746 5.276 4.936
1533.538 4.706 4.546 4.446 4.376 4.366 4.356 4.446 4.586 4.686 4.896
1552.827 5.156 5.546 6.056 6.736 7.706 8.866 10.416 12.326 14.746 17.906
1572.117 21.746 25.876 30.206 34.136 36.896 38.806 40.136 41.646 44.426 49.336
1591.407 56.626 65.676 75.596 85.056 92.306 95.796 94.496 88.316 78.306 66.006
1610.697 53.576 42.566 33.806 26.836 21.476 17.476 14.336 12.006 10.196 8.746
1629.986 7.696 6.916 6.246 5.766 5.396 5.056 4.836 4.686 4.516 4.396
1649.276 4.376 4.296 4.206 4.216 4.366 4.546 4.626 4.796 5.136 5.436
1668.566 5.786 6.256 6.766 7.286 7.856 8.376 8.826 9.276 9.826 10.536
1687.856 11.436 12.536 13.856 15.496 17.696 20.506 23.936 28.726 34.416 41.916
1707.146 51.676 64.266 80.166 97.976 113.556 121.676 120.256 110.466 92.426 70.036
1726.435 49.986 35.766 26.216 19.816 15.176 11.816 9.546 7.866 6.576 5.596
1745.725 4.826 4.256 3.826 3.446 3.136 2.896 2.726 2.576 2.506 2.456
1765.015 2.386 2.286 2.246 2.126 2.016 1.936 1.836 1.736 1.616 1.556
1784.305 1.536 1.476 1.446 1.396 1.406 1.386 1.366 1.386 1.296 1.256
1803.594 1.296 1.256 1.226 1.1976 1.145 1.1207 1.1017 1.021 0.9533 0.9822
1822.884 1.0292 1.0169 0.9979 0.9988 0.9537 0.9241 0.9975 1.0452 1.0032 0.9558
1842.174 0.9422 0.9069 0.9203 0.9464 0.9547 0.9563 0.9525 0.994 0.9961 0.9763
1861.464 1.0223 1.0763 1.052 1.0324 1.0592 1.0469 1.0161 1.0427 1.0962 1.1698
1880.754 1.216 1.276 1.376 1.426 1.466 1.556 1.656 1.666 1.646 1.616
1900.043 1.566 1.516 1.456 1.366 1.326 1.256 1.226 1.1861 1.1005 1.0379
1919.333 1.0335 1.0624 1.0254 1.0334 1.0142 0.9949 1.0695 1.0688 1.0018 1.0148
1938.623 1.0189 0.9816 1.0209 1.02 0.9939 0.9826 0.9844 1.0122 1.0479 1.0882
1957.913 1.1096 1.1437 1.1495 1.206 1.226 1.206 1.206 1.226 1.266 1.306
1977.202 1.336 1.326 1.296 1.316 1.356 1.356 1.396 1.406 1.476 1.566
1996.492 1.566 1.566 1.586 1.626 1.726 1.816 1.816 1.856 1.926 1.966
2015.782 1.956 1.876 1.826 1.776 1.656 1.576 1.546 1.496 1.436 1.396
2035.072 1.376 1.336 1.306 1.236 1.256 1.316 1.286 1.236 1.226 1.266
2054.362 1.286 1.226 1.1983 1.1716 1.1249 1.117 1.1457 1.1222 1.0504 1.053
2073.651 1.0315 0.9582 0.9063 0.9202 0.9574 1.0064 1.0038 0.9382 0.8726 0.8615
2092.941 0.8861 0.8772 0.8643 0.8141 0.801 0.8413 0.8163 0.8116 0.8295 0.778
2112.231 0.7149 0.6766 0.7022 0.7139 0.6657 0.6309 0.5816 0.5624 0.5722 0.5908
2131.521 0.618 0.6285 0.5738 0.5577 0.5538 0.525 0.4894 0.4777 0.4741 0.4573
2150.810 0.4744 0.4247 0.475 0.4862 0.4512 0.4888 0.4884 0.4734 0.432 0.4273
2170.100 0.4075 0.4023 0.4076 0.3339 0.3253 0.3936 0.4421 0.4789 0.5088 0.4529
2189.390 0.3603 0.3569 0.4115 0.455 0.3924 0.3694 0.4066 0.4152 0.4498 0.4511
2208.680 0.4649 0.4441 0.3842 0.4126 0.4177 0.3922 0.4043 0.4625 0.4518 0.3643
2227.970 0.4182 0.5062 0.458 0.4216 0.4382 0.4435 0.5229 0.59 0.5288 0.4929
2247.259 0.5076 0.5178 0.5596 0.5648 0.5876 0.609 0.605 0.6164 0.6158 0.5771
2266.549 0.5928 0.6246 0.6046 0.6067 0.6061 0.6692 0.6709 0.6034 0.5989 0.6404
2285.839 0.6367 0.5887 0.5681 0.5442 0.5214 0.5583 0.5958 0.5799 0.5774 0.602
2305.129 0.6262 0.5893 0.5575 0.6079 0.6757 0.6812 0.6339 0.6704 0.7399 0.6581
2324.418 0.6112 0.6484 0.5633 0.5495 0.5442 0.4573 0.4185 0.4071 0.4332 0.4657
2343.708 0.4705 0.4379 0.4588 0.5436 0.6104 0.5988 0.54 0.5111 0.4892 0.4875
2362.998 0.5317 0.5688 0.6293 0.6301 0.5274 0.4921 0.5845 0.6634 0.6451 0.6051
2382.288 0.5842 0.6016 0.6243 0.6347 0.7199 0.753 0.7945 0.8598 0.8703 0.8627
2401.578 0.8244 0.8955 1.0204 1.0093 0.9609 0.9675 1.0186 1.0464 0.9538 0.9252
2420.867 0.9652 0.9758 0.8792 0.8512 0.9746 0.9622 0.9222 0.9339 0.8997 0.9222
2440.157 0.8816 0.8505 0.9495 0.9997 1.0536 1.1308 1.139 1.1165 1.1226 1.1459
2459.447 1.1421 1.1117 1.1154 1.0495 0.9846 1.0464 1.1086 1.088 1.0526 1.0168
2478.737 1.0314 1.0232 0.9593 0.9603 0.9756 1.0471 1.106 1.0308 1.0392 1.148
2498.026 1.1355 1.1155 1.104 1.1038 1.1903 1.226 1.236 1.226 1.256 1.266
2517.316 1.216 1.216 1.236 1.146 1.0994 1.1663 1.206 1.276 1.226 1.246
2536.606 1.446 1.566 1.586 1.606 1.596 1.606 1.716 1.786 1.836 1.806
2555.896 1.806 1.806 1.766 1.796 1.786 1.736 1.706 1.756 1.736 1.746
2575.186 1.786 1.676 1.696 1.756 1.666 1.646 1.706 1.726 1.616 1.546
2594.475 1.526 1.566 1.616 1.506 1.466 1.556 1.496 1.426 1.406 1.306
2613.765 1.306 1.376 1.386 1.306 1.316 1.296 1.184 1.226 1.296 1.256
2633.055 1.1917 1.2007 1.216 1.266 1.286 1.256 1.316 1.316 1.306 1.376
2652.345 1.426 1.466 1.506 1.566 1.646 1.736 1.836 1.966 2.116 2.256
2671.634 2.446 2.716 3.006 3.256 3.526 3.816 4.136 4.416 4.626 4.816
2690.924 5.036 5.376 5.746 6.086 6.486 7.056 7.706 8.436 9.306 10.236
2710.214 11.286 12.476 13.696 14.866 15.986 16.966 17.776 18.266 18.326 17.946
2729.504 17.096 16.046 14.746 13.266 11.876 10.656 9.596 8.696 7.886 7.196
2748.794 6.716 6.286 5.816 5.556 5.476 5.376 5.246 5.186 5.216 5.236
2768.083 5.336 5.486 5.686 6.016 6.366 6.756 7.196 7.726 8.486 9.296
2787.373 9.906 10.506 11.086 11.446 11.676 11.806 11.946 11.976 11.966 12.156
2806.663 12.366 12.576 12.756 12.896 13.196 13.466 13.386 13.016 12.606 12.076
2825.953 11.316 10.536 9.826 9.286 8.876 8.596 8.446 8.436 8.626 8.936
2845.242 9.326 9.816 10.436 11.376 12.526 13.636 14.876 16.236 17.546 18.726
2864.532 19.776 20.776 21.536 21.956 22.306 22.566 22.726 22.886 22.886 22.796
2883.822 22.636 22.286 21.746 21.086 20.456 20.026 19.846 19.856 19.946 20.356
2903.112 21.086 21.926 22.966 24.106 25.466 26.966 28.536 30.306 32.086 34.046
2922.401 36.306 38.666 41.086 43.686 46.306 48.566 50.386 51.706 52.596 53.286
2941.691 53.246 52.306 50.916 49.206 47.266 45.416 43.746 42.376 41.526 41.096
2960.981 40.936 40.916 40.906 40.666 39.816 38.116 35.546 32.246 28.526 24.666
2980.271 21.096 18.226 15.886 13.896 12.306 11.016 9.946 9.096 8.436 7.816
2999.561 7.326 6.906 6.546 6.246 5.826 5.516 5.416 5.226 5.036 4.956
3018.850 4.906 4.836 4.776 4.826 4.976 5.146 5.346 5.526 5.636 5.596
3038.140 5.476 5.226 4.886 4.466 4.006 3.696 3.456 3.246 3.106 3.056
3057.430 2.996 3.046 3.126 3.136 3.316 3.476 3.646 4.046 4.316 4.436
3076.720 4.476 4.366 4.266 4.026 3.736 3.526 3.336 3.326 3.346 3.306
3096.009 3.296 3.386 3.276 3.116 3.086 2.926 2.706 2.416 2.276 2.106
3115.299 1.896 1.896 1.786 1.666 1.596 1.516 1.476 1.356 1.266 1.1796
3134.589 1.0703 1.0657 1.0556 0.9746 0.92 0.869 0.8314 0.8185 0.933 0.9538
3153.879 0.8576 0.8861 0.9537 0.9753 0.9176 0.9135 0.8899 0.748 0.6742 0.7348
3173.169 0.7934 0.8389 0.8039 0.7118 0.708 0.7236 0.7048 0.7475 0.7859 0.709
3192.458 0.5625 0.5612 0.6692 0.7095 0.5956 0.533 0.6748 0.8076 0.7333 0.4733
3211.748 0.49 0.5897 0.4336 0.3287 0.4216 0.4129 0.3555 0.29842 0.27541 0.3356
3231.038 0.29465 0.352 0.489 0.4332 0.29883 0.4013 0.4336 0.3742 0.4125 0.3647
3250.328 0.3458 0.3211 0.172 0.1194 0.22011 0.25643 0.27904 0.3289 0.3667 0.3407
3269.617 0.25233 0.20798 0.2014 0.213719 0.24567 0.1938 0.1638 0.1544 0.1466 0.26095
3288.907 0.28475 0.29623 0.3439 0.3495 0.23605 0.27483 0.3655 0.3993 0.4461 0.4017
3308.197 0.4213 0.3176 0.28781 0.3544 0.29626 0.20702 0.1413 0.042 0.053 0.21863
3327.487 0.3226 0.3762 0.23277 0.089 0.091 0.027 0.1587 0.3973 0.5046 0.5379
3346.777 0.401 0.28742 0.3082 0.26624 0.3985 0.4859 0.4091 0.4141 0.3432 0.3719
3366.066 0.4404 0.4362 0.3946 0.4014 0.4723 0.5276 0.5473 0.5412 0.5562 0.5881
3385.356 0.6313 0.7287 0.832 0.8563 0.9687 0.9643 1.0366 1.0876 1.0474 1.226
3404.646 1.236 1.296 1.556 1.586 1.526 1.616 1.676 1.616 1.526 1.436
3423.936 1.376 1.296 1.0633 0.8093 0.7653 0.7078 0.5258 0.5542 0.6612 0.5864
3443.225 0.5119 0.5334 0.4851 0.5104 0.4549 0.27596 0.3427 0.41 0.4175 0.4007
3462.515 0.27316 0.1407 0.1913 0.308 0.404 0.30477 0.26353 0.4264 0.23802 0.1282
3481.805 0.3211 0.415 0.3569 0.3425 0.3516 0.29855 0.3242 0.2604 0.1763 0.1651
3501.095 0.1518 0.29998 0.3711 0.358 0.2583 0.1688 0.22492 0.205692 0.084 0.063
3520.385 0.1854 0.2728 0.28801 0.205708 0.088 0.068 0.1711 0.206882 0.29211 0.3503
3539.674 0.3871 0.3481 0.213709 0.1769 0.1397 0.24606 0.3557 0.3397 0.3391 0.27452
3558.964 0.29001 0.3235 0.25406 0.2366 0.3116 0.29019 0.1606 0.077 0.1118 0.22295
3578.254 0.2194 0.1947 0.213294 0.26386 0.1742 0.025 0.19961 0.215853 0.1945 0.29026
3597.544 0.22094 0.26713 0.213685 0.183 0.21164 0.099 0 0.046 0.24363 0.3144
3616.833 0.208493 0.1106 0.154 0.25295 0.22109 0.3152 0.325 0.23303 0.3285 0.3322
3636.123 0.3414 0.3152 0.30354 0.3163 0.24599 0.19873 0.2264 0.3249 0.254 0.20433
3655.413 0.29807 0.3925 0.4677 0.5653 0.4849 0.3582 0.3623 0.4274 0.4297 0.454
3674.703 0.5661 0.3475 0.3152 0.4645 0.437 0.3766 0.4374 0.5782 0.553 0.4491
3693.993 0.47 0.4527 0.3774 0.4235 0.383 0.3481 0.3097 0.22497 0.23319 0.24225
3713.282 0.3376 0.4041 0.2381 0.24008 0.4116 0.3857 0.3579 0.3237 0.212723 0.24457
3732.572 0.29362 0.23222 0.27386 0.3716 0.3536 0.3273 0.3869 0.432 0.4254 0.4134
3751.862 0.24619 0.1147 0.28519 0.3801 0.3284 0.3965 0.3955 0.3695 0.456 0.419
3771.152 0.3812 0.3659 0.3362 0.4587 0.5457 0.4195 0.3553 0.3689 0.4658 0.4636
3790.441 0.29299 0.25391 0.3994 0.4875 0.4413 0.3169 0.3931 0.4642 0.3819 0.3952
3809.731 0.3766 0.3471 0.3514 0.3701 0.424 0.4811 0.4817 0.4576 0.4073 0.4329
3829.021 0.4365 0.4951 0.5247 0.4477 0.5027 0.4551 0.3911 0.433 0.3082 0.23765
3848.311 0.23037 0.2646 0.3109 0.26149 0.29225 0.3264 0.4569 0.5397 0.4437 0.4622
3867.601 0.3686 0.27776 0.4153 0.4935 0.3449 0.25493 0.314 0.3434 0.3501 0.4128
3886.890 0.377 0.3682 0.3656 0.26882 0.25582 0.26192 0.316 0.3627 0.4162 0.3554
3906.180 0.3235 0.4001 0.4169 0.373 0.5064 0.662 0.5103 0.3483 0.3385 0.4023
3925.470 0.3563 0.4236 0.5689 0.5363 0.3378 0.3486 0.6255 0.5441 0.3228 0.3816
3944.760 0.4595 0.462 0.407 0.4406 0.5483 0.4956 0.4933 0.5746 0.482 0.4059
3964.049 0.5898 0.5839 0.4364 0.4436 0.3486 0.1861 0.24918 0.4692 0.5756 0.6617
3983.339 0.5374 0.4065 0.4364 0.3856 0.6435 0.7245 0.5577 0.5188 0.5019 0.4581
##END=
