##TITLE=Benzoin acetate
##JCAMP-DX=4.24
##DATA TYPE=INFRARED SPECTRUM
##ORIGIN=NIST Mass Spectrometry Data Center
##OWNER=NIST Standard Reference Data Program
Collection (C) 2018 copyright by the U.S. Secretary of Commerce
on behalf of the United States of America. All rights reserved.
##CAS REGISTRY NO=574-06-1
##MOLFORM=C 16 H 14 O 3
##$NIST SOURCE=MSDC-IR
##SPECTROMETER/DATA SYSTEM=HP-GC/MS/IRD
##STATE=gas
##XUNITS=1/CM
##YUNITS=ABSORBANCE
##XFACTOR=1.0
##YFACTOR=0.000031700
##DELTAX=4.0
##FIRSTX=550.0
##LASTX=3846.0
##FIRSTY=0.003455
##MAXX=3846
##MINX=550
##MAXY=0.317
##MINY=0
##NPOINTS=825
##XYDATA=(X++(Y..Y))
550.0 109 73 0 26 44 103 221 361 432 402
590.0 335 296 306 349 385 394 383 358 328 301
630.0 275 261 256 251 244 249 271 315 385 483
670.0 613 778 978 1239 1632 2144 2480 2325 1799 1276
710.0 953 780 690 630 580 546 551 613 726 842
750.0 880 824 741 661 556 427 316 240 188 148
790.0 117 93 77 66 65 78 102 144 196 236
830.0 248 252 270 304 333 346 348 339 309 258
870.0 212 187 181 185 200 226 263 311 365 423
910.0 474 524 575 629 664 660 623 575 545 539
950.0 579 687 867 1089 1271 1314 1188 967 774 666
990.0 636 689 817 948 996 954 921 956 1034 1104
1030.0 1115 1097 1112 1201 1333 1455 1504 1456 1332 1213
1070.0 1152 1133 1100 1010 873 736 634 565 513 458
1110.0 390 323 268 231 209 198 196 203 217 240
1150.0 279 332 394 464 570 763 1090 1497 1797 1855
1190.0 1790 1870 2231 2869 3813 5108 6707 8387 9677 10000
1230.0 9067 7206 5220 3724 2797 2258 1938 1726 1551 1374
1270.0 1197 1031 889 780 697 633 580 529 481 441
1310.0 416 406 404 407 414 428 445 465 488 512
1350.0 545 610 739 992 1370 1760 1946 1787 1381 949
1390.0 633 440 324 253 211 188 180 186 201 221
1430.0 247 287 359 478 600 634 551 407 287 220
1470.0 190 180 184 206 254 329 398 407 343 249
1510.0 179 145 131 128 128 129 127 122 116 112
1550.0 110 110 113 126 146 180 225 273 309 335
1590.0 365 412 442 420 343 257 199 167 147 134
1630.0 127 126 130 137 145 156 171 189 213 243
1670.0 282 336 404 494 625 798 1011 1267 1601 2099
1710.0 2783 3371 3380 2750 1979 1465 1258 1247 1364 1607
1750.0 2050 2763 3672 4419 4510 3855 2891 2056 1469 1090
1790.0 857 714 618 544 478 412 356 313 282 261
1830.0 241 217 187 155 129 110 99 90 87 87
1870.0 89 94 98 102 104 106 107 103 96 87
1910.0 77 66 59 54 54 58 68 82 98 112
1950.0 120 122 121 116 106 90 70 52 44 38
1990.0 35 31 30 29 27 26 25 23 21 19
2030.0 17 16 15 14 15 17 16 16 17 17
2070.0 16 16 15 15 14 13 12 14 15 16
2110.0 18 21 23 27 28 30 30 32 31 32
2150.0 32 31 29 27 26 24 21 19 18 17
2190.0 16 15 14 13 13 12 11 11 12 13
2230.0 11 10 9 9 9 10 9 9 9 9
2270.0 9 10 12 11 12 13 12 11 11 14
2310.0 19 26 30 27 21 19 19 23 24 23
2350.0 21 18 15 13 14 13 14 14 13 14
2390.0 16 17 16 18 20 21 22 23 23 24
2430.0 25 26 27 26 25 23 22 19 18 15
2470.0 13 11 12 11 10 11 10 10 11 10
2510.0 11 11 11 13 13 12 13 12 13 12
2550.0 13 13 15 16 17 18 19 20 22 23
2590.0 24 25 25 24 24 22 20 20 19 18
2630.0 17 18 17 16 15 15 15 14 16 18
2670.0 17 17 18 17 16 17 16 17 16 17
2710.0 18 17 17 18 19 19 18 19 19 18
2750.0 18 19 19 18 19 20 23 22 23 24
2790.0 25 25 26 27 27 28 28 29 28 29
2830.0 28 29 29 31 33 37 42 44 45 46
2870.0 45 45 46 46 48 50 54 58 64 71
2910.0 78 86 93 103 116 130 145 165 191 220
2950.0 240 240 217 188 164 151 144 142 141 137
2990.0 133 134 139 148 162 182 208 249 316 412
3030.0 535 658 736 732 668 601 596 679 843 1080
3070.0 1299 1345 1169 908 738 673 618 531 436 356
3110.0 292 236 180 135 100 80 67 58 54 53
3150.0 53 52 51 50 47 40 36 32 27 23
3190.0 22 21 19 17 16 16 14 12 14 13
3230.0 13 12 11 12 11 12 11 12 12 11
3270.0 10 11 11 10 11 10 11 12 11 11
3310.0 12 11 11 12 13 14 14 14 13 13
3350.0 14 15 14 15 19 23 26 27 27 28
3390.0 34 39 42 45 48 51 51 48 44 38
3430.0 35 32 30 28 25 23 22 23 23 24
3470.0 26 27 28 31 36 39 42 46 50 53
3510.0 51 48 47 44 41 38 33 31 28 26
3550.0 25 21 19 17 18 19 20 19 17 17
3590.0 16 15 14 15 16 15 14 15 15 14
3630.0 14 16 18 20 21 21 23 25 23 21
3670.0 20 19 20 19 18 18 19 19 20 22
3710.0 22 23 24 22 21 20 18 17 18 19
3750.0 17 17 18 18 17 18 17 17 18 17
3790.0 15 18 18 15 15 17 17 14 16 17
3830.0 16 15 16 15 17
##END=
