##TITLE=DL-Nornicotine
##JCAMP-DX=4.24
##DATA TYPE=INFRARED SPECTRUM
##ORIGIN=EPA-IR VAPOR PHASE LIBRARY
##OWNER=SRD/NIST
Collection (C) 2018 copyright by the U.S. Secretary of Commerce
on behalf of the United States of America. All rights reserved.
##CAS REGISTRY NO=5746-86-1
##MOLFORM=C 9 H 12 N 2
##$NIST SOURCE=MSDC-IR
##STATE=gas
##XUNITS=1/CM
##YUNITS=ABSORBANCE
##XFACTOR=1.
##YFACTOR=0.001
##DELTAX=1.92898
##FIRSTX=549.8
##LASTX=4000.7
##FIRSTY=5.26
##MAXX=4000.7
##MINX=549.759
##MAXY=0.03408
##MINY=0
##NPOINTS=1790
##XYDATA=(X++(Y..Y))
549.759 5.26 5.78 5.04 4.87 5.58 5.1 4.82 4.75 4.19 4.02
569.049 3.22 3.19 4.48 4.15 4.19 4.52 4.28 4 3.64 3.38
588.339 3.05 3.03 3.19 3.54 4.15 3.75 3.9 4.36 3.93 4.16
607.628 4.57 4.27 4.47 5.2 4.45 3.5 3.77 4.28 4.37 4.38
626.918 4.41 4.25 4.7 4.45 4.34 4.17 3.83 4.46 4.67 4.48
646.208 3.94 3.37 3.45 3.97 4.2 4.54 4.58 4.38 4.28 4.03
665.498 3.67 3.71 3.93 3.86 3.67 3.47 3.43 3.8 3.9 4.44
684.787 5.64 5.75 5.88 6.39 6.67 7.31 8.55 9.75 10.86 11.69
704.077 12.25 13.15 13.93 14.93 15.23 14.59 14.67 14.62 14.06 12.8
723.367 11.83 11.7 10.79 10.3 10.2 9.18 7.41 6.44 6.79 7.01
742.657 7.51 8.01 7.24 7.07 6.82 6.43 6.97 7.22 7.16 6.8
761.947 6.62 6.82 7.3 7.63 7.65 7.49 7.64 7.71 8.29 8.81
781.236 8.43 8.24 8.74 9.68 9.87 9.93 10.5 10.45 10.36 10.29
800.526 9.95 10.07 9.73 9.39 9.18 8.65 8.43 8.4 7.38 6.44
819.816 5.61 4.73 5.91 6.41 6.25 6.04 5.36 5.2 5.08 4.74
839.106 4.12 3.92 3.96 4.11 4.29 4.44 4.12 3.76 4.12 4.1
858.395 3.66 3.73 3.8 3.66 3.28 3.15 3.24 3.33 3.63 3.91
877.685 4.37 4.69 4.71 4.18 3.95 4.18 3.91 3.97 4.46 4.57
896.975 4.62 4.8 4.99 4.95 5.02 5.11 4.9 4.6 4.82 5.58
916.265 5.31 4.86 5.21 4.79 4.25 4.9 5.39 4.89 4.92 4.84
935.555 4.03 4.16 4.46 4.43 4.11 3.87 4.27 4.21 3.82 3.77
954.844 3.48 2.65 2.0862 2.2563 2.41 2.41 2.55 2.59 2.52 2.1445
974.134 2.0096 2.2153 2.3265 2.2193 2.3328 2.59 2.67 2.75 2.43 2.7
993.424 2.7 2.3263 2.97 3.87 3.89 3.67 4.12 3.89 4.26 5.92
1012.714 6.41 6.94 7.11 7.66 8.78 8.23 7.84 7.62 7.71 8.23
1032.003 7.21 5.63 5.3 4.86 4.03 3.76 3.52 2.89 3.36 4.22
1051.293 4.55 4.95 3.65 3.73 4.81 4.21 4.05 4.44 5.74 6.44
1070.583 7.11 7.66 7.25 7.04 7.8 8.51 7.37 8.03 11.84 11.86
1089.873 10.01 11.23 11.29 9.64 8.66 9.46 11.53 12.1 10.05 9.8
1109.163 10.65 9.27 8.53 7.89 7.35 5.96 6.77 6.3 4.16 3.77
1128.452 3.26 5.08 6.46 5.68 5.34 5.36 4.76 3.91 3.12 2.82
1147.742 3.85 4.53 2.94 3.28 4.52 3.93 3.55 3.67 3.75 4.47
1167.032 5.36 5.45 4.87 4.82 4.58 4.12 4.4 4.19 4.6 4.48
1186.322 3.85 2.79 3.31 4.65 3.4 2.71 3.56 4.61 5.33 4.2
1205.611 3.68 5.38 5.09 4.89 4.87 3.17 2.69 2.52 2.87 4.89
1224.901 4.63 3.61 3.99 3.59 2.75 3.02 3.22 3.75 4.48 4.54
1244.191 5.11 5.02 3.95 3.75 4.47 4.73 5.1 5.52 5.45 4.97
1263.481 4.52 4.9 5.56 5.55 4.97 5.1 5.24 4.98 5.09 5.37
1282.771 5.32 5.65 6.1 6.37 6.31 6.24 6.67 6.92 7.05 7.27
1302.060 7.31 7.45 7.84 7.96 8.08 8.17 8.04 7.95 7.99 7.83
1321.350 7.42 7.26 7.26 6.95 6.65 6.49 6.24 5.94 5.76 5.71
1340.640 5.88 5.84 5.58 5.52 5.24 4.96 4.75 4.76 4.92 4.98
1359.930 5.03 5.02 4.68 4.48 4.55 4.44 4.32 4.4 4.49 4.45
1379.219 4.56 4.67 5.01 5.31 5.5 5.93 6.21 6.42 6.86 7.2
1398.509 7.3 7.77 8.39 8.87 9.53 10.23 11.05 12.19 13.22 14
1417.799 14.82 15.37 15.56 15.54 15.03 14.37 13.45 12.27 10.92 9.67
1437.089 8.51 7.45 6.65 5.93 5.6 5.36 5 5.03 5.4 5.63
1456.378 5.5 5.57 6.03 6.58 6.86 7.24 7.82 8.1 8.37 8.84
1475.668 9.03 8.98 8.41 7.67 7.31 6.49 5.32 4.57 4.11 3.6
1494.958 3.08 2.83 2.67 2.54 2.64 2.71 2.96 2.7 2.38 2.61
1514.248 2.3413 1.9517 2.1361 2.3207 2.2876 2.0875 1.9678 2.0245 1.9543 2.1193
1533.538 2.2858 2.3382 2.41 2.45 2.51 2.48 2.73 2.82 3.07 3.46
1552.827 3.45 3.37 3.34 3.55 4.2 4.96 5.61 5.77 6.02 6.4
1572.117 6.54 6.93 7.06 6.96 6.81 6.83 6.59 5.77 5.42 4.82
1591.407 4.09 3.95 3.78 3.51 3.38 3.22 2.9 2.8 2.66 2.66
1610.697 2.61 2.85 2.73 2.3563 2.59 2.55 2.46 2.63 2.74 2.66
1629.986 2.43 2.1854 2.37 2.55 2.4 2.2108 2.3306 2.2596 1.8593 1.9986
1649.276 2.1807 2.1264 2.37 2.2165 2.0276 2.2871 2.2071 2.0233 1.8329 1.7198
1668.566 1.8573 1.7567 1.7208 1.8081 1.8366 1.8398 1.8995 1.9557 1.9968 2.0847
1687.856 1.9516 1.951 2.0924 1.9832 1.8593 1.8628 1.8496 1.9307 1.9384 1.7715
1707.146 1.7273 2.0265 2.2017 2.102 1.9511 1.9646 1.9886 1.9874 2.1416 2.1089
1726.435 2.0881 2.2128 2.0095 1.8118 1.891 1.9717 2.0734 2.064 1.9841 1.932
1745.725 2.0396 2.2378 2.216 2.0239 2.0403 2.0171 1.9266 1.7781 1.6048 1.8065
1765.015 1.9205 1.8179 1.8779 1.9317 1.6559 1.5971 1.6707 1.5752 1.4652 1.4769
1784.305 1.5854 1.5534 1.8092 1.8673 1.5337 1.52 1.5794 1.6116 1.6539 1.7148
1803.594 1.6913 1.6321 1.5611 1.5908 1.578 1.5321 1.6107 1.7111 1.7473 1.7969
1822.884 1.8013 1.5724 1.6909 1.753 1.6773 1.773 1.7158 1.7373 1.8459 1.6902
1842.174 1.5807 1.6776 1.751 1.8543 2.0086 1.8778 1.9744 2.1096 1.9558 1.9376
1861.464 1.9235 1.9053 1.996 2.1134 2.03 1.9328 1.8889 1.7961 1.7942 1.994
1880.754 2.0729 2.0026 2.1836 2.3146 2.39 2.62 2.66 2.62 2.69 2.86
1900.043 2.72 2.53 2.4 2.49 2.57 2.37 2.3235 2.225 2.3103 2.2643
1919.333 2.1041 2.1403 2.1554 2.2518 1.9952 1.6992 1.9013 2.1035 1.9288 1.8813
1938.623 2.0974 2.1158 2.0169 1.9055 1.7103 1.814 2.0909 1.982 1.8616 1.8441
1957.913 1.8756 1.8824 1.8277 1.981 2.0858 1.886 1.8643 1.8964 1.4625 1.45211
1977.202 1.6212 1.5428 1.5452 1.723 1.97 1.8148 1.7084 1.7288 1.4743 1.5526
1996.492 1.6688 1.676 1.788 1.7363 1.6132 1.5103 1.5477 1.5145 1.5343 1.6817
2015.782 1.7639 1.7847 1.715 1.7915 1.9102 1.5985 1.5303 1.683 1.5578 1.6093
2035.072 1.7778 1.5974 1.38229 1.5627 1.5894 1.4873 1.5952 1.5968 1.7253 1.7591
2054.362 1.653 1.7678 1.7821 1.6159 1.4878 1.5737 1.6854 1.8176 1.8432 1.7179
2073.651 1.7418 1.6655 1.5535 1.7135 1.7677 1.7609 1.6588 1.5859 1.6763 1.5336
2092.941 1.4915 1.5408 1.5164 1.6608 1.6764 1.565 1.4176 1.3039 1.38755 1.39123
2112.231 1.5933 1.7156 1.8708 2.0545 1.7708 1.6836 1.7284 1.6449 1.5354 1.5164
2131.521 1.5211 1.5831 1.5829 1.40745 1.45253 1.5956 1.6922 1.6616 1.4836 1.6261
2150.810 1.8059 1.6763 1.6003 1.6028 1.4927 1.3474 1.40619 1.5837 1.5261 1.207
2170.100 1.148 1.174 1.38992 1.7343 1.5413 1.40832 1.3295 1.234 1.38434 1.623
2189.390 1.7388 1.7491 1.5932 1.2884 1.39152 1.7401 1.8433 1.797 1.8136 1.7813
2208.680 1.5256 1.5663 1.7592 1.6576 1.702 1.7157 1.5806 1.5254 1.6373 1.717
2227.970 1.6899 1.7408 1.9126 1.9903 1.7266 1.754 1.7054 1.40879 1.6031 1.8583
2247.259 2.0166 2.0009 1.8573 1.7307 1.7373 1.8423 1.6401 1.5471 1.7084 1.7272
2266.549 1.6038 1.3499 1.2936 1.6183 1.8196 1.7732 1.4898 1.229 1.5564 1.7242
2285.839 1.45128 1.35271 1.5496 1.7734 1.7451 1.7532 1.667 1.45415 1.6208 1.7108
2305.129 1.6488 1.7345 1.6066 1.4865 1.44542 1.5621 1.6072 1.492 1.5403 1.6432
2324.418 1.7911 1.7105 1.7347 1.8111 1.41239 1.211 1.5187 1.3736 1.221 1.7344
2343.708 1.8221 1.6744 1.6922 1.8366 1.8197 1.5106 1.5254 1.44558 1.7299 1.8638
2362.998 1.6054 1.5857 1.4812 1.5574 1.6354 1.5719 1.6841 1.6342 1.5381 1.7071
2382.288 1.6231 1.44216 1.5236 1.6647 1.6861 1.6479 1.6302 1.6289 1.5377 1.6739
2401.578 1.7046 1.41755 1.254 1.2967 1.5816 1.7261 1.7618 1.7502 1.5867 1.5584
2420.867 1.8024 1.6939 1.5886 1.6874 1.8703 2.0855 1.9393 1.8242 1.6566 1.6382
2440.157 1.8391 1.8413 1.6199 1.39603 1.38447 1.35735 1.43427 1.43349 1.3191 1.611
2459.447 1.7162 1.5564 1.6121 1.545 1.5269 1.6616 1.5972 1.528 1.5661 1.7437
2478.737 1.7267 1.5659 1.5706 1.5967 1.7516 1.7693 1.7628 1.6431 1.4798 1.5148
2498.026 1.6613 1.758 1.6784 1.5705 1.5168 1.6941 1.8037 1.7031 1.5901 1.5336
2517.316 1.5352 1.7406 1.8917 1.7974 1.8227 1.8395 1.6784 1.7064 1.6177 1.6598
2536.606 1.8502 1.9012 1.7465 1.536 1.278 1.3236 1.7617 2.1115 2.0834 1.7763
2555.896 1.7659 1.9602 1.9714 1.6353 1.6502 1.8152 1.925 1.919 1.8171 1.8651
2575.186 1.6725 1.6879 1.7113 1.7834 2.105 2.1338 1.9884 1.7494 1.6675 1.9342
2594.475 1.9806 1.8399 1.7097 1.4829 1.6558 2.0199 2.1007 1.9555 2.0686 2.2703
2613.765 2.0892 2.078 2.1328 2.0589 2.197 2.3399 2.0737 1.8973 1.986 2.2864
2633.055 2.79 2.41 2.0698 2.2539 2.4 2.46 2.2872 2.3051 2.2583 2.51
2652.345 2.72 2.48 2.49 2.64 2.71 2.5 2.42 2.66 2.58 2.2791
2671.634 2.3522 2.41 2.3522 2.1026 1.7468 1.9628 2.2171 2.3028 2.3356 2.134
2690.924 2.1572 2.36 2.305 2.2187 2.1756 2.2022 2.41 2.52 2.3227 2.48
2710.214 2.64 2.6 2.43 2.0969 2.1829 2.43 2.68 2.54 2.2299 2.295
2729.504 2.55 2.51 2.51 2.86 3.13 3.26 3.06 2.78 2.85 3.11
2748.794 3.08 2.98 3.05 3.06 3.16 3.62 3.86 3.43 3.25 3.4
2768.083 3.61 3.79 4.18 4.47 4.52 4.94 4.93 4.96 5.13 4.86
2787.373 5.13 5.32 5.25 5.72 5.9 5.82 5.83 6.37 7.03 7.18
2806.663 7.28 7.58 8.41 9.11 9.48 9.9 10.34 10.62 11.3 12.09
2825.953 12.63 13.08 13.65 13.98 13.8 13.76 13.78 14.24 14.45 13.89
2845.242 14.02 14.38 14 13.47 12.87 12.87 13.48 13.59 13.36 13.48
2864.532 13.73 13.91 14.3 14.82 15.56 16.03 16.48 17.24 17.86 18.31
2883.822 18.64 18.87 18.64 18.26 18.18 17.88 17.34 17.15 16.68 16.06
2903.112 15.66 15.57 15.41 15.41 15.68 15.66 15.44 15.6 15.91 16.1
2922.401 16.04 16.12 16.27 16 16.17 16.61 16.96 17.38 17.86 18.19
2941.691 18.83 19.95 20.8 21.49 22.31 23.68 24.93 25.8 27.22 28.48
2960.981 30.03 31.28 31.85 32.7 33.81 34.08 33.43 32.36 31.05 30.44
2980.271 29.15 27.02 24.76 22.13 20.16 18.55 17.15 15.84 14.41 13.41
2999.561 12.45 11.94 11.4 10.78 10.95 10.63 10.25 9.78 9.21 9.49
3018.850 9.68 9.63 10.03 10.52 11.14 11.09 11.22 11.66 12.11 12.62
3038.140 12.5 12.67 12.71 12.86 13.23 13.21 13.5 13.52 13.22 12.91
3057.430 12.23 11.37 10.68 9.91 8.87 7.98 7.42 7.48 7.24 7.26
3076.720 7.49 7.15 7.25 7.25 6.88 6.54 6.32 6.15 5.76 5.15
3096.009 4.45 3.76 3.18 3.12 2.93 2.74 2.45 2.49 2.6 2.1405
3115.299 2.2514 2.38 1.9637 2.1092 2.273 1.7966 1.7938 1.6548 1.6121 1.9162
3134.589 1.7867 2.0843 2.2745 2.1546 2.0826 1.9192 1.5786 1.4811 1.9545 2.3587
3153.879 2.0988 1.6608 1.5827 1.7863 1.7035 1.5929 1.8464 1.38472 1.2772 1.6416
3173.169 1.5191 1.5386 2.0289 2.0572 1.6859 1.432 1.39737 1.5594 1.8174 2.0527
3192.458 1.5625 1.137 1.097 1.3591 1.571 1.5169 1.5236 1.24 1.6134 1.6836
3211.748 1.2946 1.6645 2.1309 1.754 0.966 0.894 1.305 1.697 1.7408 1.44011
3231.038 0.766 0.573 0.981 1.537 1.8254 1.224 1.033 1.44158 1.2945 1.5779
3250.328 1.8578 1.6579 1.35564 1.157 1.4842 0.982 0.34 0.402 0.765 1.219
3269.617 1.43171 1.9491 2.2372 1.8212 1.7871 1.8842 1.869 1.7649 1.5847 1.221
3288.907 1.2855 2.1932 2.0673 1.2603 1.3257 1.954 1.7359 1.175 1.9452 1.9935
3308.197 1.3032 1.7709 2.016 1.5063 1.257 1.5212 1.5995 1.346 1.5318 1.6813
3327.487 1.2946 1.155 1.136 1.6124 1.7513 1.177 1.36222 1.4792 1.3294 1.44522
3346.777 1.236 1.5829 1.9687 1.37485 1.2766 1.38516 1.41487 1.7697 1.567 1.43406
3366.066 1.2905 1.007 0.885 1.244 1.4754 1.42162 1.4897 1.2873 1.45651 1.9336
3385.356 2.2002 1.836 1.4638 1.40985 0.88 1.058 1.8561 1.5225 1.173 1.39617
3404.646 1.39202 1.6287 1.958 1.6551 1.6021 1.6586 1.5214 1.3194 1.3358 1.4099
3423.936 1.545 1.5893 1.016 1.124 1.5749 1.5293 1.6049 1.6571 1.4963 1.37019
3443.225 1.123 1.127 1.5724 1.25 0.928 0.8 0.846 1.38303 1.6813 1.3458
3462.515 0.638 0.481 0.949 1.3036 1.133 0.816 0.78 1.2756 1.7221 1.9122
3481.805 2.1285 1.9284 1.244 0.771 0.535 0.93 1.2638 0.935 1.2828 1.9487
3501.095 2.0464 2.0687 1.967 1.2741 0.884 1.092 1.18 1.6716 1.9299 1.5694
3520.385 1.4689 1.204 1.196 1.342 1.42252 1.42859 1.111 1.4871 1.43681 0.934
3539.674 0.964 0.916 0.863 0.807 0.953 1.178 1.254 1.7729 2.2464 1.8394
3558.964 1.5007 1.8704 1.8448 2.0189 1.9807 1.179 1.6043 2.1922 1.5549 1.082
3578.254 0.968 0.905 1.169 1.42863 1.44346 1.254 1.4723 1.6487 1.8105 1.7559
3597.544 1.147 1.3777 1.8914 1.6068 1.6039 2.0137 1.6173 0.981 0.671 1.06
3616.833 1.6744 1.45401 1.149 1.4992 1.2987 1.3108 1.7912 1.42235 1.021 0.734
3636.123 1.128 1.242 1.132 1.068 1.6185 1.9465 0.921 0.672 0.827 1.24
3655.413 1.8275 2.0518 1.5293 1.191 1.531 1.4874 0.847 0.742 1.029 1.3344
3674.703 1.255 0.927 0.978 1.11 1.246 1.221 1.35283 1.041 0.953 1.4735
3693.993 1.208 0.607 0.675 0.576 0.812 1.14 1.212 1.249 0.724 0.931
3713.282 1.253 1.3201 1.5427 1.5059 0.835 0.592 1.093 1.212 1.6225 1.7259
3732.572 1.35704 1.049 1.112 1.4854 1.7116 1.5586 1.6081 1.5968 1.126 0.869
3751.862 1.231 1.5976 1.326 1.35633 1.7732 1.7884 1.6149 1.166 1.057 1.43807
3771.152 1.6753 1.15 0.624 1.178 1.4995 1.7437 1.4755 0.981 1.3189 1.3264
3790.441 1.042 1.158 1.8105 1.8548 1.5452 1.4996 1.5034 1.7167 1.8712 1.6609
3809.731 1.203 1.3386 0.705 0 0.757 1.034 1.3446 2.0215 1.7086 0.891
3829.021 1.205 1.218 0.554 0.93 1.082 0.784 0.968 1.5167 1.44541 0.815
3848.311 0.882 1.187 1.573 1.8059 1.37973 1.3046 0.835 0.874 1.45619 1.41188
3867.601 1.3035 1.5869 2.1884 1.9993 1.8321 2.068 1.9832 1.8514 1.35872 0.607
3886.890 0.856 1.123 1.42853 1.5045 1.36109 1.3186 1.009 1.35069 1.146 0.816
3906.180 1.36918 1.5729 1.8291 1.9566 1.7208 1.8999 1.9427 1.863 1.9575 2.2629
3925.470 1.8214 1.3334 0.975 0.786 0.858 0.409 0.662 1.179 1.2766 1.3253
3944.760 1.4999 1.5291 1.255 1.6032 1.9543 1.8867 1.929 1.9897 1.7968 1.43384
3964.049 1.5448 1.5404 1.5296 1.8659 1.2787 0.755 1.7941 2.2198 1.9043 1.8669
3983.339 1.781 1.8361 2.1638 1.8884 1.3383 1.4721 1.3075 1.5553 1.7768 1.7898
##END=
