##TITLE=4-Chloro-o-anisic acid
##JCAMP-DX=4.24
##DATA TYPE=INFRARED SPECTRUM
##ORIGIN=NIST Mass Spectrometry Data Center
##OWNER=NIST Standard Reference Data Program
Collection (C) 2018 copyright by the U.S. Secretary of Commerce
on behalf of the United States of America. All rights reserved.
##CAS REGISTRY NO=57479-70-6
##MOLFORM=C 8 H 7 Cl O 3
##$NIST SOURCE=MSDC-IR
##SPECTROMETER/DATA SYSTEM=HP-GC/MS/IRD
##STATE=gas
##XUNITS=1/CM
##YUNITS=ABSORBANCE
##XFACTOR=1.0
##YFACTOR=0.000004300
##DELTAX=4.0
##FIRSTX=550.0
##LASTX=3846.0
##FIRSTY=0.003105
##MAXX=3846
##MINX=550
##MAXY=0.043
##MINY=0
##NPOINTS=825
##XYDATA=(X++(Y..Y))
550.0 722 1240 1037 1085 1086 1094 1093 1055 1026 978
590.0 904 807 745 720 670 619 574 509 469 460
630.0 433 415 410 416 406 365 335 343 390 441
670.0 478 483 402 305 269 281 311 347 379 396
710.0 385 363 330 297 289 316 369 427 472 467
750.0 440 441 508 647 829 991 1015 909 743 548
790.0 378 273 231 201 171 163 211 308 427 552
830.0 662 788 891 879 784 689 654 730 965 1463
870.0 2221 2963 3305 3026 2218 1321 694 357 213 148
910.0 100 70 48 29 7 0 9 12 14 36
950.0 49 54 61 66 72 87 115 148 183 235
990.0 308 408 538 735 1020 1359 1736 2125 2455 2675
1030.0 2751 2718 2665 2716 2875 3016 3001 2792 2411 1993
1070.0 1716 1581 1581 1724 1982 2351 2775 3120 3255 3125
1110.0 2835 2608 2549 2554 2472 2207 1827 1488 1255 1099
1150.0 1032 1075 1254 1577 2019 2510 2937 3211 3219 2951
1190.0 2512 2052 1688 1482 1445 1531 1697 1924 2226 2599
1230.0 2973 3275 3488 3612 3689 3754 3801 3779 3610 3274
1270.0 2831 2411 2109 1934 1835 1764 1693 1614 1535 1489
1310.0 1502 1556 1634 1728 1836 1940 2013 2069 2127 2211
1350.0 2325 2464 2614 2737 2803 2805 2760 2753 2872 3195
1390.0 3752 4414 4985 5253 5104 4565 3822 3075 2438 1963
1430.0 1625 1399 1270 1237 1284 1395 1548 1768 2007 2206
1470.0 2362 2509 2593 2597 2514 2271 1873 1406 967 639
1510.0 441 345 293 272 275 290 327 387 490 648
1550.0 885 1218 1663 2170 2589 2869 3012 3136 3488 4222
1590.0 5152 5822 5825 5063 3811 2537 1604 1052 732 538
1630.0 421 337 275 232 203 181 172 175 185 193
1670.0 194 193 204 216 235 266 311 371 447 542
1710.0 649 765 914 1126 1414 1808 2387 3186 4079 4865
1750.0 5456 5898 6525 7662 8995 10000 9964 8735 6953 5000
1790.0 3355 2280 1620 1186 882 663 506 398 325 260
1830.0 214 183 162 146 130 114 102 90 77 68
1870.0 61 58 59 63 72 77 81 86 87 84
1910.0 82 79 75 76 72 62 51 40 32 28
1950.0 21 17 18 16 15 16 15 12 10 8
1990.0 13 15 17 18 14 13 13 6 7 12
2030.0 11 16 19 19 21 27 34 35 32 31
2070.0 29 28 27 24 26 26 25 33 40 41
2110.0 42 43 43 40 34 28 34 42 41 34
2150.0 31 22 17 14 12 9 6 1 0 4
2190.0 5 5 6 3 0 2 7 11 17 21
2230.0 16 13 20 23 20 21 19 17 17 19
2270.0 24 23 26 32 27 25 26 24 21 20
2310.0 21 28 31 34 36 33 36 35 29 30
2350.0 32 32 36 33 28 29 28 26 28 26
2390.0 21 16 12 14 22 30 25 22 33 33
2430.0 29 28 33 32 29 34 28 32 39 39
2470.0 45 43 36 40 48 49 49 52 52 52
2510.0 52 55 67 71 66 58 51 47 52 54
2550.0 52 55 59 55 45 51 52 48 48 47
2590.0 45 46 47 42 46 54 46 46 53 54
2630.0 60 62 61 63 62 63 68 70 75 78
2670.0 74 78 83 84 75 70 77 82 78 71
2710.0 72 75 80 84 78 69 72 73 74 73
2750.0 63 63 75 72 67 69 62 64 68 74
2790.0 87 88 89 103 109 117 135 155 174 199
2830.0 232 277 324 364 398 428 465 477 476 476
2870.0 456 415 371 332 315 306 296 296 315 330
2910.0 345 379 420 447 476 505 552 635 737 852
2950.0 944 990 971 905 827 744 674 618 569 525
2990.0 473 437 438 453 502 584 636 655 613 507
3030.0 397 321 266 230 210 198 186 168 148 135
3070.0 136 142 157 174 189 193 192 172 154 146
3110.0 131 127 114 107 115 110 103 100 100 93
3150.0 87 96 104 99 85 74 81 83 75 71
3190.0 72 72 70 73 70 68 75 71 65 75
3230.0 86 98 101 89 83 91 92 77 72 73
3270.0 72 84 104 94 82 92 100 95 90 87
3310.0 83 93 96 107 127 131 122 131 146 141
3350.0 141 154 166 182 206 224 241 265 296 320
3390.0 360 421 474 530 580 626 687 732 779 847
3430.0 922 977 1039 1108 1158 1170 1153 1122 1075 1018
3470.0 957 890 820 752 699 649 584 511 468 419
3510.0 371 348 331 316 301 293 290 278 268 269
3550.0 303 418 735 1335 1907 2223 2224 1856 1385 998
3590.0 636 346 188 121 102 92 84 81 77 66
3630.0 55 63 70 59 52 39 29 30 30 24
3670.0 21 24 22 28 23 19 20 3 8 28
3710.0 17 1 10 25 22 24 20 8 15 13
3750.0 4 11 21 30 28 26 20 8 12 25
3790.0 24 16 12 8 9 15 18 11 8 17
3830.0 23 11 12 15 18
##END=
