##TITLE=sec-Butylcyclopropane
##JCAMP-DX=4.24
##DATA TYPE=INFRARED SPECTRUM
##ORIGIN=NIST Mass Spectrometry Data Center
##OWNER=NIST Standard Reference Data Program
Collection (C) 2018 copyright by the U.S. Secretary of Commerce
on behalf of the United States of America. All rights reserved.
##CAS REGISTRY NO=5750-02-7
##MOLFORM=C 7 H 14
##$NIST SOURCE=MSDC-IR
##SPECTROMETER/DATA SYSTEM=HP-GC/MS/IRD
##STATE=gas
##XUNITS=1/CM
##YUNITS=ABSORBANCE
##XFACTOR=1.0
##YFACTOR=0.000001300
##DELTAX=4.0
##FIRSTX=550.0
##LASTX=3846.0
##FIRSTY=0.000312
##MAXX=3846
##MINX=550
##MAXY=0.013
##MINY=0
##NPOINTS=825
##XYDATA=(X++(Y..Y))
550.0 240 219 107 198 144 33 52 91 100 179
590.0 226 57 24 30 110 165 90 77 128 60
630.0 14 112 112 105 137 183 144 83 100 161
670.0 150 97 127 97 116 160 85 36 57 91
710.0 136 160 200 227 240 201 113 151 198 209
750.0 222 201 176 220 246 220 256 247 212 238
790.0 240 260 391 485 586 786 840 790 788 755
830.0 705 621 530 489 467 438 382 302 242 233
870.0 259 292 279 270 338 429 464 496 491 521
910.0 588 673 764 788 810 839 786 685 629 579
950.0 510 459 404 359 354 353 362 422 453 479
990.0 604 776 934 1111 1356 1563 1641 1674 1568 1373
1030.0 1185 928 690 510 416 377 337 305 263 222
1070.0 186 181 206 224 241 240 235 250 252 235
1110.0 218 191 133 144 201 243 274 276 277 245
1150.0 287 333 300 304 293 243 248 271 255 238
1190.0 209 214 227 199 201 214 206 166 160 181
1230.0 161 171 205 202 206 213 211 225 253 302
1270.0 343 357 368 386 367 368 393 392 369 345
1310.0 324 310 338 341 280 263 262 247 277 308
1350.0 325 366 449 567 684 796 896 986 1083 1091
1390.0 976 834 683 525 412 353 326 343 404 450
1430.0 511 612 724 888 1070 1245 1411 1542 1596 1537
1470.0 1411 1246 1046 829 656 499 361 260 208 195
1510.0 191 168 139 118 111 120 103 85 94 101
1550.0 109 125 114 74 74 108 101 90 93 101
1590.0 108 85 84 75 45 46 81 93 107 91
1630.0 70 73 62 72 81 55 40 62 89 88
1670.0 85 92 79 54 42 48 55 44 45 54
1710.0 56 57 75 86 80 77 57 47 66 83
1750.0 74 57 56 71 69 41 45 52 28 38
1790.0 65 77 60 57 85 100 104 86 55 53
1830.0 54 66 75 80 78 69 98 105 98 101
1870.0 81 66 68 67 55 63 71 90 116 94
1910.0 88 97 114 113 115 129 97 74 99 117
1950.0 106 92 73 67 72 60 42 19 25 60
1990.0 58 28 44 67 51 37 26 27 32 43
2030.0 66 98 118 103 109 121 114 124 122 119
2070.0 97 69 74 75 69 76 84 64 45 53
2110.0 56 27 12 32 40 36 43 39 32 33
2150.0 4 3 13 24 26 7 13 13 30 40
2190.0 8 9 20 16 39 54 34 23 42 28
2230.0 20 34 42 24 11 16 23 28 30 25
2270.0 23 36 37 26 18 17 38 38 27 15
2310.0 4 1 9 40 42 20 15 17 17 29
2350.0 35 36 49 46 42 48 37 59 75 63
2390.0 53 56 62 52 41 50 39 16 53 63
2430.0 26 1 11 31 38 45 40 34 40 38
2470.0 50 60 55 71 74 53 47 48 48 49
2510.0 50 37 9 4 32 46 35 39 34 46
2550.0 76 88 43 16 57 92 95 87 79 77
2590.0 88 56 20 53 71 57 74 87 73 75
2630.0 84 83 91 84 73 107 112 98 104 104
2670.0 95 92 84 79 83 90 100 87 86 112
2710.0 112 99 106 143 158 157 170 166 183 207
2750.0 191 188 201 210 205 191 172 174 211 234
2790.0 246 258 265 319 349 363 373 400 459 504
2830.0 553 638 764 940 1175 1495 1878 2294 2797 3355
2870.0 3942 4492 4778 4834 4807 4701 4562 4377 4280 4335
2910.0 4575 4904 5277 5652 5929 6084 6141 6107 6127 6277
2950.0 6635 7366 8468 9521 10000 9846 9349 8669 7575 6264
2990.0 5334 4791 4399 4155 4020 3837 3544 3186 2750 2206
3030.0 1672 1300 1080 928 822 768 844 1021 1267 1628
3070.0 2044 2364 2762 3021 2631 2219 1930 1470 1042 738
3110.0 511 358 290 247 230 211 226 246 215 192
3150.0 203 221 224 224 235 237 225 203 198 199
3190.0 188 155 161 142 112 96 71 68 63 83
3230.0 81 73 67 57 71 51 34 55 66 59
3270.0 31 45 99 105 88 89 69 59 66 34
3310.0 38 85 81 83 76 77 78 16 1 6
3350.0 12 36 62 69 40 63 57 49 75 80
3390.0 63 47 60 76 102 82 68 81 55 57
3430.0 59 69 72 77 73 79 103 87 71 59
3470.0 67 73 78 58 55 99 75 43 40 59
3510.0 67 66 95 88 119 117 80 71 68 80
3550.0 56 47 60 58 56 57 36 30 31 24
3590.0 19 0 19 51 31 29 73 105 99 96
3630.0 100 115 71 84 159 114 100 107 58 21
3670.0 40 41 61 101 106 76 61 64 50 31
3710.0 62 105 93 101 99 76 111 121 83 97
3750.0 143 129 87 82 81 83 77 67 81 72
3790.0 82 116 113 116 142 139 87 64 80 112
3830.0 162 102 41 110 99
##END=
