##TITLE=DL-2-Methylbutrylchloride
##JCAMP-DX=4.24
##DATA TYPE=INFRARED SPECTRUM
##ORIGIN=EPA-IR VAPOR PHASE LIBRARY
##OWNER=SRD/NIST
Collection (C) 2018 copyright by the U.S. Secretary of Commerce
on behalf of the United States of America. All rights reserved.
##CAS REGISTRY NO=57526-28-0
##MOLFORM=C 5 H 9 Cl O
##$NIST SOURCE=MSDC-IR
##STATE=gas
##XUNITS=1/CM
##YUNITS=ABSORBANCE
##XFACTOR=1.
##YFACTOR=0.001
##DELTAX=1.92898
##FIRSTX=549.8
##LASTX=4000.7
##FIRSTY=3.86
##MAXX=4000.7
##MINX=549.759
##MAXY=0.04266
##MINY=0.0000104
##NPOINTS=1790
##XYDATA=(X++(Y..Y))
549.759 3.86 4.08 4.17 4.27 4.36 4.38 4.46 4.58 4.76 4.87
569.049 4.9 5.04 5.25 5.46 5.53 5.62 5.75 5.95 6.15 6.33
588.339 6.5 6.53 6.54 6.58 6.58 6.66 6.76 6.72 6.7 6.81
607.628 6.84 6.97 7.17 7.25 7.48 7.88 8.1 8.26 8.57 8.9
626.918 9.21 9.37 9.45 9.73 10.01 10.11 10.37 10.75 11.11 11.49
646.208 11.81 12.03 12.32 12.49 12.47 12.35 12.08 11.9 11.74 11.23
665.498 10.59 10.07 9.47 8.86 8.38 7.99 7.44 6.86 6.41 6.02
684.787 5.67 5.24 4.79 4.46 4.12 3.73 3.4 3.25 3.13 2.89
704.077 2.66 2.57 2.59 2.46 2.23 2.15 2.24 2.22 2.19 2.24
723.367 2.26 2.17 2.08 2.07 2 1.98 1.87 1.85 1.93 1.89
742.657 1.86 1.72 1.67 1.61 1.48 1.51 1.51 1.34 1.19 1.24
761.947 1.25 1.25 1.32 1.29 1.26 1.24 1.19 1.17 1.14 1
781.236 1.04 1.19 1.2 1.17 1.18 1.23 1.24 1.21 1.19 1.21
800.526 1.33 1.43 1.33 1.25 1.23 1.21 1.2 1.06 0.9586 1.01
819.816 1 0.9955 0.9415 0.9977 0.8985 0.6786 0.7309 0.7086 0.7656 0.7983
839.106 0.7045 0.5904 0.5871 0.7229 0.5915 0.4787 0.5756 0.5959 0.5913 0.5812
858.395 0.4993 0.483 0.4388 0.415 0.4459 0.4007 0.4756 0.5403 0.5071 0.4842
877.685 0.5217 0.5338 0.5941 0.6798 0.688 0.7144 0.6682 0.6875 0.736 0.6469
896.975 0.6425 0.6742 0.7255 0.8026 0.7426 0.7452 0.8573 0.7765 0.7203 0.7914
916.265 0.8248 0.9354 1.09 1.17 1.23 1.35 1.48 1.63 1.7 1.75
935.555 1.86 2.02 2.17 2.3 2.44 2.57 2.7 2.77 2.82 2.83
954.844 2.71 2.59 2.44 2.26 2.1 1.91 1.59 1.43 1.42 1.33
974.134 1.23 1.18 1.29 1.41 1.41 1.33 1.36 1.46 1.54 1.54
993.424 1.58 1.76 1.87 2.04 2.18 2.19 2.48 2.85 3.27 3.73
1012.714 4.2 4.9 5.75 6.64 7.58 8.76 10.09 11.35 12.67 14.09
1032.003 15.45 16.78 17.85 18.69 19.14 19.25 19.23 18.91 18.22 17.1
1051.293 15.75 14.43 13.07 11.77 10.48 9.23 8.08 7.14 6.63 6.22
1070.583 5.72 5.46 5.31 5.28 5.36 5.4 5.52 5.63 5.79 5.87
1089.873 5.96 6.16 6.44 6.68 7.04 7.36 7.76 8.2 8.3 8.44
1109.163 8.84 9.3 9.63 10.03 10.56 10.93 11.31 11.96 12.32 12.58
1128.452 12.99 13.14 13.13 13.28 13.21 12.82 12.52 12.31 12.1 11.77
1147.742 11.46 11.22 11.08 10.95 10.89 10.8 10.69 10.7 10.73 10.79
1167.032 10.74 10.73 10.63 10.5 10.34 10.1 9.9 9.52 9.1 8.85
1186.322 8.69 8.41 7.98 7.48 6.99 6.68 6.38 6.05 5.77 5.64
1205.611 5.51 5.48 5.4 5.2 5.25 5.47 5.77 6.08 6.39 6.87
1224.901 7.36 7.75 8.03 8.28 8.51 8.57 8.71 8.75 8.64 8.5
1244.191 8.3 8.15 8.01 8.03 8.09 8.13 8.29 8.64 9.18 9.73
1263.481 10.45 11.16 11.86 12.62 13.34 14.02 14.54 14.89 15.13 15.32
1282.771 15.41 15.29 14.95 14.58 14.2 13.74 13.28 12.84 12.44 12.1
1302.060 11.87 11.7 11.6 11.6 11.7 11.88 12.18 12.63 13.18 13.85
1321.350 14.71 15.79 17.01 18.37 19.95 21.66 23.51 25.51 27.54 29.47
1340.640 31.32 33.05 34.56 35.85 36.88 37.64 38.17 38.47 38.53 38.36
1359.930 38 37.4 36.59 35.61 34.45 33.17 31.77 30.24 28.66 27
1379.219 25.24 23.49 21.81 20.11 18.46 16.95 15.57 14.28 13.15 12.14
1398.509 11.26 10.44 9.7 8.95 8.25 7.61 7.02 6.54 6.1 5.7
1417.799 5.33 5.01 4.78 4.54 4.33 4.22 4.04 3.88 3.76 3.62
1437.089 3.56 3.51 3.46 3.47 3.51 3.54 3.64 3.78 3.93 4.1
1456.378 4.26 4.48 4.66 4.81 4.94 5.05 5.1 5.01 4.81 4.6
1475.668 4.36 4.09 3.83 3.55 3.21 2.85 2.53 2.27 2.04 1.81
1494.958 1.63 1.49 1.35 1.22 1.14 1.1 1.04 0.9571 0.9201 0.871
1514.248 0.8218 0.7851 0.7449 0.7034 0.6999 0.7044 0.6522 0.6211 0.5861 0.5602
1533.538 0.5627 0.5527 0.5318 0.5215 0.4967 0.478 0.4791 0.4592 0.4502 0.4382
1552.827 0.4481 0.4652 0.4818 0.4652 0.4488 0.4755 0.4479 0.4444 0.44 0.4196
1572.117 0.4545 0.4363 0.4094 0.4276 0.4491 0.4715 0.4705 0.4472 0.4529 0.444
1591.407 0.4349 0.4703 0.4657 0.4933 0.5324 0.4825 0.4704 0.4895 0.4803 0.4803
1610.697 0.503 0.4987 0.5048 0.5344 0.5663 0.5755 0.56 0.596 0.6352 0.6349
1629.986 0.651 0.6307 0.6098 0.6362 0.6567 0.6952 0.7292 0.7263 0.7427 0.8086
1649.276 0.8856 0.9032 0.9051 0.95 0.9958 1.05 1.13 1.17 1.24 1.33
1668.566 1.43 1.59 1.72 1.84 1.99 2.15 2.32 2.49 2.72 3.05
1687.856 3.34 3.67 4.1 4.6 5.3 6.12 6.98 8.11 9.38 10.79
1707.146 12.39 14.13 15.9 17.62 19.22 20.6 21.82 22.75 23.42 23.93
1726.435 24.17 24.03 23.56 22.87 22.03 21.22 20.51 19.87 19.28 18.78
1745.725 18.42 18.16 17.93 17.73 17.62 17.54 17.45 17.4 17.4 17.44
1765.015 17.57 17.87 18.26 18.74 19.42 20.37 21.65 23.32 25.45 28
1784.305 30.86 33.95 36.96 39.55 41.47 42.52 42.66 42.19 41.46 40.29
1803.594 38.11 34.71 30.46 25.98 21.71 17.83 14.47 11.65 9.3 7.47
1822.884 6.08 5.08 4.36 3.78 3.35 3.05 2.79 2.57 2.44 2.31
1842.174 2.19 2.15 2.08 2 1.97 1.93 1.86 1.83 1.8 1.69
1861.464 1.58 1.5 1.44 1.37 1.26 1.17 1.07 0.9652 0.8956 0.8258
1880.754 0.752 0.6903 0.6396 0.5768 0.5218 0.4871 0.4602 0.4661 0.4566 0.4134
1900.043 0.3801 0.3877 0.3789 0.3452 0.3387 0.3124 0.3053 0.3238 0.286 0.2611
1919.333 0.2506 0.2651 0.2863 0.2571 0.2355 0.215 0.2121 0.2281 0.2164 0.2105
1938.623 0.2074 0.1911 0.1983 0.194 0.1423 0.1433 0.172 0.1502 0.1441 0.1379
1957.913 0.1216 0.1199 0.1199 0.1079 0.1123 0.1375 0.1192 0.08666 0.1012 0.125
1977.202 0.1193 0.134 0.138 0.1202 0.1133 0.1362 0.1719 0.1367 0.1299 0.1296
1996.492 0.1006 0.0948 0.108 0.1195 0.1289 0.1378 0.0991 0.1028 0.09914 0.07882
2015.782 0.09877 0.1094 0.1318 0.1631 0.1522 0.1388 0.1507 0.1137 0.08086 0.12
2035.072 0.1385 0.1354 0.1342 0.1277 0.1299 0.1381 0.1466 0.1271 0.1081 0.1131
2054.362 0.1139 0.1287 0.1532 0.1537 0.1682 0.1317 0.09561 0.08121 0.08064 0.0938
2073.651 0.0823 0.07004 0.1215 0.1757 0.156 0.135 0.1102 0.07706 0.08319 0.1188
2092.941 0.1109 0.1011 0.1152 0.1033 0.08872 0.0967 0.1206 0.13 0.1475 0.1505
2112.231 0.116 0.1213 0.1263 0.09147 0.08999 0.1271 0.1388 0.1326 0.1393 0.1256
2131.521 0.1073 0.09453 0.09676 0.09975 0.08221 0.06412 0.06962 0.08167 0.08682 0.07484
2150.810 0.07445 0.1077 0.1175 0.1133 0.1137 0.1185 0.1236 0.1095 0.1024 0.1045
2170.100 0.063 0.07311 0.1044 0.06988 0.06338 0.09346 0.07673 0.05331 0.07318 0.06935
2189.390 0.06902 0.05884 0.05336 0.09659 0.1062 0.08611 0.0805 0.1061 0.08533 0.06723
2208.680 0.111 0.1284 0.1258 0.109 0.08267 0.06785 0.09156 0.1444 0.1197 0.0879
2227.970 0.09504 0.08333 0.05357 0.02782 0.0356 0.03137 0.03752 0.07604 0.08471 0.03812
2247.259 0.04222 0.0627 0.05929 0.06218 0.05401 0.06914 0.08312 0.1178 0.1421 0.1351
2266.549 0.1067 0.08056 0.0926 0.1489 0.1583 0.1067 0.0808 0.09299 0.1313 0.1152
2285.839 0.1069 0.1216 0.1145 0.08906 0.1014 0.1902 0.2225 0.176 0.1349 0.1694
2305.129 0.2346 0.2363 0.1971 0.1982 0.2116 0.2085 0.2262 0.2439 0.258 0.2652
2324.418 0.2815 0.2806 0.2642 0.2643 0.2468 0.225 0.208 0.2264 0.2487 0.2584
2343.708 0.2384 0.2188 0.21 0.2078 0.2157 0.2617 0.3043 0.2588 0.2346 0.2824
2362.998 0.3013 0.2901 0.2876 0.297 0.3266 0.3344 0.3091 0.2715 0.2924 0.3229
2382.288 0.3032 0.2653 0.2487 0.2496 0.2538 0.2395 0.2388 0.2814 0.3301 0.3243
2401.578 0.3266 0.3577 0.3014 0.2611 0.2719 0.2966 0.3307 0.315 0.2741 0.2602
2420.867 0.3116 0.3326 0.3161 0.2899 0.2645 0.2929 0.2917 0.3151 0.2947 0.267
2440.157 0.2901 0.2613 0.2244 0.1983 0.2118 0.2351 0.2262 0.255 0.308 0.2781
2459.447 0.2426 0.285 0.2751 0.2668 0.2867 0.2745 0.2511 0.2885 0.3023 0.2532
2478.737 0.2797 0.2704 0.3027 0.338 0.3054 0.2877 0.3113 0.3576 0.3737 0.336
2498.026 0.3064 0.3095 0.2884 0.2843 0.2743 0.2865 0.3157 0.2963 0.2935 0.2803
2517.316 0.2527 0.2483 0.2713 0.3038 0.2965 0.2742 0.2643 0.2447 0.2263 0.2275
2536.606 0.242 0.2911 0.2881 0.2556 0.2223 0.189 0.2033 0.2162 0.2259 0.1877
2555.896 0.1482 0.1431 0.1299 0.1187 0.1589 0.1847 0.1791 0.1617 0.1365 0.1276
2575.186 0.08558 0.09508 0.1439 0.1537 0.1511 0.1274 0.0717 0.05135 0.08303 0.1223
2594.475 0.1376 0.1169 0.1059 0.1027 0.1112 0.1054 0.1504 0.1985 0.1241 0.1238
2613.765 0.1531 0.09389 0.09078 0.1333 0.1339 0.1069 0.1514 0.1802 0.179 0.1971
2633.055 0.1473 0.1114 0.1918 0.2468 0.2039 0.1668 0.1721 0.181 0.197 0.1948
2652.345 0.1847 0.1978 0.2176 0.2273 0.1691 0.1259 0.1198 0.1192 0.1276 0.126
2671.634 0.1147 0.1211 0.09872 0.1097 0.1108 0.07185 0.09201 0.1571 0.1684 0.1645
2690.924 0.1759 0.1572 0.1732 0.1385 0.1382 0.2146 0.1959 0.1737 0.1947 0.1689
2710.214 0.186 0.2383 0.237 0.2151 0.2594 0.2834 0.2865 0.2857 0.3191 0.3626
2729.504 0.3305 0.3403 0.3879 0.4683 0.466 0.4445 0.4762 0.4389 0.4232 0.4423
2748.794 0.4767 0.5638 0.5917 0.5244 0.4906 0.4856 0.4945 0.4878 0.4725 0.491
2768.083 0.4464 0.398 0.4447 0.4837 0.4676 0.4634 0.5274 0.5422 0.463 0.4938
2787.373 0.5074 0.4532 0.5006 0.5243 0.5281 0.528 0.5143 0.5537 0.5658 0.5675
2806.663 0.6149 0.6611 0.6794 0.6539 0.686 0.8293 0.8604 0.8049 0.8753 0.9844
2825.953 0.9937 0.943 1.01 1.1 1.08 1.09 1.13 1.17 1.26 1.38
2845.242 1.42 1.49 1.59 1.71 1.76 1.82 2 2.11 2.29 2.57
2864.532 2.84 3.24 3.68 4.24 4.89 5.48 6.11 6.67 7.02 7.32
2883.822 7.62 7.91 8.07 8.07 8 7.86 7.68 7.47 7.27 7.19
2903.112 7.19 7.25 7.33 7.4 7.49 7.58 7.68 7.76 7.9 8.22
2922.401 8.59 8.9 9.24 9.59 10.04 10.49 10.83 11.18 11.5 11.74
2941.691 11.87 11.99 12.25 12.55 12.92 13.44 14.27 15.33 16.58 18.12
2960.981 19.93 22.02 24.06 25.69 26.76 27.08 26.83 26.27 25.16 23.55
2980.271 21.44 18.97 16.35 13.79 11.6 9.56 7.77 6.43 5.35 4.46
2999.561 3.81 3.31 2.88 2.55 2.25 2.04 1.94 1.74 1.5 1.42
3018.850 1.35 1.14 1.03 0.979 0.9316 0.8966 0.8121 0.7481 0.7236 0.6843
3038.140 0.6639 0.7479 0.7778 0.758 0.7174 0.5903 0.5367 0.5849 0.595 0.5905
3057.430 0.5712 0.5831 0.6486 0.648 0.5985 0.5915 0.6025 0.5834 0.5543 0.5698
3076.720 0.6371 0.613 0.6295 0.6747 0.6771 0.6775 0.6253 0.6675 0.6984 0.6244
3096.009 0.57 0.5803 0.6021 0.5632 0.5418 0.5765 0.6031 0.5449 0.5187 0.4885
3115.299 0.4837 0.5215 0.5118 0.5046 0.532 0.5436 0.4598 0.4367 0.5053 0.5083
3134.589 0.5104 0.5829 0.6241 0.5645 0.4697 0.4496 0.4707 0.4645 0.4311 0.4005
3153.879 0.4015 0.3839 0.4668 0.5548 0.4831 0.3844 0.363 0.3968 0.4358 0.3672
3173.169 0.3212 0.4423 0.48 0.4081 0.4436 0.5168 0.5286 0.516 0.5249 0.5729
3192.458 0.5644 0.5606 0.6066 0.5895 0.4105 0.3937 0.5093 0.4926 0.5218 0.5451
3211.748 0.502 0.4989 0.4622 0.3714 0.3153 0.3226 0.308 0.2451 0.1885 0.1849
3231.038 0.1812 0.2263 0.2329 0.1609 0.1774 0.2595 0.2902 0.2335 0.1933 0.2411
3250.328 0.2545 0.1773 0.1538 0.1797 0.1855 0.2098 0.2122 0.1415 0.09657 0.1884
3269.617 0.2419 0.2299 0.2645 0.2446 0.2582 0.2358 0.2372 0.2495 0.1573 0.1973
3288.907 0.2355 0.1667 0.194 0.2461 0.1763 0.1924 0.1886 0.1769 0.2699 0.2305
3308.197 0.2374 0.2561 0.1624 0.1476 0.2615 0.2442 0.2182 0.2988 0.301 0.2651
3327.487 0.237 0.2033 0.1406 0.1781 0.2421 0.2698 0.2831 0.291 0.2643 0.1699
3346.777 0.2215 0.3447 0.2836 0.1883 0.2737 0.4337 0.4981 0.4227 0.2667 0.2676
3366.066 0.3815 0.3717 0.3225 0.319 0.2794 0.3452 0.4315 0.4127 0.4329 0.5292
3385.356 0.543 0.4424 0.4983 0.5633 0.5866 0.7098 0.7758 0.8248 0.885 0.9086
3404.646 0.9223 1 1.07 1.14 1.22 1.23 1.33 1.45 1.69 1.98
3423.936 2.19 2.41 2.66 3.03 3.56 4.08 4.61 5.23 5.85 6.52
3443.225 7.36 8.15 8.85 9.57 10.13 10.62 11.05 11.38 11.64 11.83
3462.515 11.86 11.71 11.42 11.02 10.49 9.95 9.53 9.02 8.27 7.65
3481.805 7.28 6.87 6.24 5.67 5.29 4.92 4.55 4.12 3.78 3.55
3501.095 3.23 3 2.86 2.64 2.41 2.29 2.17 2.05 1.93 1.76
3520.385 1.65 1.6 1.62 1.57 1.45 1.43 1.53 1.54 1.52 1.67
3539.674 1.67 1.65 1.91 2.21 2.55 3.15 3.69 4.23 4.96 5.54
3558.964 5.96 6.45 6.75 6.8 6.85 6.64 6.2 5.77 5.25 4.63
3578.254 4 3.43 2.9 2.36 2.02 1.78 1.47 1.25 1.1 0.9927
3597.544 0.9318 0.8406 0.7872 0.7726 0.6663 0.5635 0.4608 0.4173 0.4517 0.4683
3616.833 0.4894 0.5517 0.5692 0.4915 0.4441 0.4215 0.4614 0.3912 0.3233 0.2935
3636.123 0.3051 0.3351 0.2835 0.2647 0.2228 0.2418 0.2214 0.1187 0.1694 0.2963
3655.413 0.2767 0.2488 0.2612 0.2331 0.2761 0.2941 0.2089 0.1117 0.1219 0.09273
3674.703 0.1317 0.2838 0.3114 0.2061 0.1939 0.1877 0.2052 0.2651 0.1893 0.1663
3693.993 0.1472 0.2037 0.2358 0.2429 0.2132 0.175 0.1404 0.1678 0.2745 0.2309
3713.282 0.2389 0.2277 0.1267 0.1563 0.171 0.1831 0.2677 0.2705 0.3254 0.3524
3732.572 0.234 0.05081 0.0104 0.1027 0.1563 0.1596 0.1079 0.1358 0.1953 0.1441
3751.862 0.1596 0.208 0.197 0.229 0.265 0.2968 0.1688 0.07523 0.1068 0.0465
3771.152 0.1026 0.2167 0.2169 0.2612 0.2657 0.254 0.2192 0.2776 0.2853 0.1277
3790.441 0.09575 0.1692 0.2991 0.2831 0.2203 0.3008 0.2541 0.1933 0.2165 0.1853
3809.731 0.253 0.3011 0.1918 0.1976 0.2365 0.3162 0.336 0.199 0.2081 0.2376
3829.021 0.2314 0.1134 0.1575 0.2315 0.2711 0.3679 0.2733 0.1059 0.09263 0.2118
3848.311 0.2277 0.1638 0.1302 0.1361 0.1814 0.324 0.438 0.298 0.2248 0.2432
3867.601 0.2415 0.2129 0.1049 0.1706 0.2762 0.2924 0.2925 0.2329 0.2023 0.2404
3886.890 0.3411 0.3213 0.2302 0.2227 0.2566 0.2028 0.02669 0.08404 0.1605 0.1793
3906.180 0.2573 0.3012 0.2665 0.2081 0.1309 0.1446 0.2414 0.1841 0.1186 0.1068
3925.470 0.1462 0.2338 0.1456 0.08774 0.1227 0.1082 0.07979 0.02649 0.08243 0.2049
3944.760 0.1975 0.192 0.1934 0.1147 0.1542 0.2575 0.2022 0.1402 0.1956 0.2337
3964.049 0.1328 0.07743 0.08372 0.2018 0.1803 0.1083 0.2646 0.2209 0.2027 0.2001
3983.339 0.08039 0.1896 0.3215 0.2142 0.1446 0.128 0.1654 0.1949 0.2088 0.1721
##END=
