##TITLE=3-(2-Furyl)-2-phenylpropenal
##JCAMP-DX=4.24
##DATA TYPE=INFRARED SPECTRUM
##ORIGIN=EPA-IR VAPOR PHASE LIBRARY
##OWNER=SRD/NIST
Collection (C) 2018 copyright by the U.S. Secretary of Commerce
on behalf of the United States of America. All rights reserved.
##CAS REGISTRY NO=57568-60-2
##MOLFORM=C 13 H 10 O 2
##$NIST SOURCE=MSDC-IR
##STATE=gas
##XUNITS=1/CM
##YUNITS=ABSORBANCE
##XFACTOR=1.
##YFACTOR=0.001
##DELTAX=1.92934
##FIRSTX=549.9
##LASTX=3999.5
##FIRSTY=12.83
##MAXX=3999.53
##MINX=549.863
##MAXY=0.27631
##MINY=0
##NPOINTS=1789
##XYDATA=(X++(Y..Y))
549.863 12.83 15 17.01 18.33 18.96 18.8 17.92 16.35 14.22 11.85
569.156 9.66 8.11 7.18 6.91 6.88 7.16 8.1 9.43 10.76 12.02
588.450 13.46 16.32 18.08 15.53 12.83 11.73 10.56 9.15 7.77 6.82
607.743 6.37 6.31 6.39 6.66 6.97 7.31 7.71 7.96 8.06 8.02
627.037 7.85 7.59 7.27 7.03 6.71 6.42 6.32 6.4 6.46 6.54
646.330 6.65 6.74 6.9 7.05 7.06 7.08 7.18 7.34 7.58 7.95
665.624 8.49 9.14 9.83 10.43 11.03 11.7 12.41 13.28 14.47 16.23
684.917 18.86 22.61 27.48 33.41 40.24 47.33 54.7 62.49 70 76.26
704.210 79.88 80.34 78.21 73.86 67.29 58.76 49.28 40.31 33 27.91
723.504 24.96 24.22 26 30.84 38.5 47.91 57.04 65.55 76.29 93.72
742.797 99.38 78.97 61.31 53.19 44.01 34.09 25.25 19.4 16.46 15.53
762.091 15.37 15.3 14.94 14.28 13.43 12.42 11.27 10.27 9.57 9.14
781.384 8.94 8.85 8.8 8.74 8.61 8.41 8.24 8.16 8.1 8.14
800.678 8.34 8.86 9.53 9.77 9.68 9.77 9.95 9.92 9.42 8.42
819.971 7.4 6.71 6.14 5.63 5.32 5.19 5.29 5.61 6.06 6.59
839.264 7.11 7.66 8.22 8.67 8.95 9.1 9.09 8.93 8.72 8.49
858.558 8.29 8.17 8.17 8.23 8.41 8.78 9.36 10.19 11.43 13.25
877.851 15.87 19.34 23.01 25.61 26.64 26.65 26.07 24.6 21.45 17.36
897.145 13.96 11.84 10.69 10.13 9.85 9.64 9.47 9.27 9.04 8.79
916.438 8.57 8.36 8.27 8.46 9.06 10.13 11.59 13.38 15.36 17.47
935.732 19.53 20.99 21.5 21.27 20.89 20.32 19.05 17.24 15.36 13.77
955.025 12.59 11.54 10.48 9.48 8.63 8.04 7.65 7.42 7.31 7.28
974.318 7.35 7.54 7.72 7.99 8.36 8.75 9.22 9.81 10.52 11.29
993.612 11.98 12.54 13.34 14.66 16.68 19.68 23.88 29.52 36.86 45.52
1012.905 54.12 60.78 64.34 64.63 63.02 60.19 54.52 46.47 38.57 32.57
1032.199 28.29 24.78 22 20.16 19.06 18.35 17.82 17.38 17.1 17.16
1051.492 17.75 19.02 21.08 23.94 27.31 30.8 34.25 37.68 41.02 43.81
1070.786 45.36 45.5 44.74 44.03 44 44.37 44.85 45.56 46.25 46.28
1090.079 45.14 42.61 38.39 32.5 25.42 18.33 12.81 9.25 7.07 5.62
1109.372 4.54 3.6469 2.9345 2.287 1.73 1.35 1.04 0.75 0.49 0.41
1128.666 0.48 0.49 0.65 1.09 1.806 2.8731 4.34 6.33 8.61 10.69
1147.959 12.29 13.42 14.02 13.84 13.06 12.12 11.11 10.46 10.55 11.18
1167.253 12.32 14.18 16.48 18.73 20.63 21.91 22.65 22.65 21.81 20.33
1186.546 18.51 16.8 15.58 15.15 15.51 16.82 18.91 21.9 25.44 29.01
1205.840 32.93 36.67 39.71 41.97 43.09 42.85 41.21 38.12 33.8 28.8
1225.133 23.81 19.3 15.64 13.33 12.27 12.39 13.95 16.6 20.11 24.05
1244.426 27.34 29.22 29.92 29.43 27.49 24.36 20.46 16.57 13.66 11.91
1263.720 10.96 10.65 10.66 10.77 10.86 10.83 10.63 10.14 9.42 8.49
1283.013 7.54 6.69 5.88 5.17 4.58 4.16 4.01 3.93 3.87 3.9
1302.307 3.93 3.96 3.99 3.99 4.01 4.07 4.11 4.17 4.23 4.29
1321.600 4.43 4.61 4.78 4.99 5.22 5.44 5.65 5.96 6.38 6.8
1340.894 7.22 7.8 8.57 9.63 11.03 12.89 15.32 18.14 20.98 23.29
1360.187 24.6 24.83 24.01 22.29 19.79 16.74 13.94 12 11.03 10.83
1379.480 11.11 11.75 12.63 13.6 14.51 15.17 15.61 15.92 16.08 15.97
1398.774 15.66 15.25 14.84 14.41 13.81 13 12.02 10.96 9.88 8.91
1418.067 8.05 7.17 6.53 6.22 6.1 6.18 6.43 6.86 7.48 8.24
1437.361 8.99 9.57 10.21 11.01 11.54 11.23 10.73 10.76 11.11 11.57
1456.654 12.21 13.1 14.38 16.18 18.73 22.21 26.52 31.45 36.43 41.07
1475.948 45.32 49.22 51.99 52.73 51.04 47.99 44.55 41.1 37.29 32.78
1495.241 28.42 24.93 22.28 20.03 17.69 14.99 12.33 10.23 8.68 7.59
1514.534 6.97 6.63 6.45 6.43 6.44 6.52 6.72 6.96 7.3 7.74
1533.828 8.33 9.13 10.03 11.15 12.49 13.95 15.29 16.42 17.5 18.37
1553.121 18.86 18.97 18.72 18.35 17.97 17.43 16.73 16.04 15.44 15.02
1572.415 14.81 14.81 15.22 16.11 17.38 19.1 21.37 24.25 27.57 31.22
1591.708 34.94 38.55 41.95 45.09 48.03 50.85 53.78 56.96 60.47 64.42
1611.002 68.42 72.12 75.09 77.16 78.05 77.19 74.31 69.67 63.78 57.09
1630.295 49.93 42.58 35.55 29.27 24.39 20.83 18.23 16.41 15.08 14.02
1649.588 13.16 12.39 11.76 11.44 11.25 11.28 11.58 12.05 12.67 13.34
1668.882 13.97 14.66 15.32 15.86 16.57 17.55 18.84 20.4 22.5 25.31
1688.175 29.2 35 44.2 58.46 81.69 114.74 156.71 203.64 241.53 266.77
1707.469 276.31 271.12 249.51 212.42 164.79 116.35 77.51 52.61 37.63 28.84
1726.762 23.53 20.12 17.66 15.71 14.07 12.72 11.61 10.66 9.93 9.31
1746.056 8.81 8.41 8.07 7.83 7.57 7.35 7.18 7.05 7.01 6.99
1765.349 7 7.09 7.15 7.17 7.22 7.35 7.44 7.39 7.18 6.93
1784.642 6.77 6.59 6.49 6.47 6.4 6.35 6.29 6.15 5.98 5.78
1803.936 5.5 5.2 4.93 4.71 4.54 4.42 4.32 4.27 4.23 4.21
1823.229 4.24 4.27 4.23 4.25 4.34 4.46 4.53 4.55 4.6 4.6
1842.523 4.56 4.47 4.36 4.24 4.12 4.04 4 4 4.05 4.13
1861.816 4.22 4.32 4.45 4.59 4.7 4.75 4.77 4.72 4.65 4.59
1881.110 4.46 4.36 4.29 4.25 4.22 4.09 3.92 3.79 3.6346 3.4218
1900.403 3.2299 3.0723 2.9639 2.8792 2.80921 2.77627 2.77075 2.77358 2.80319 2.8832
1919.696 2.9756 3.0727 3.1888 3.3001 3.4653 3.6438 3.85 4.08 4.28 4.45
1938.990 4.57 4.64 4.64 4.55 4.43 4.33 4.27 4.24 4.24 4.18
1958.283 4.05 3.94 3.78 3.5718 3.3671 3.1539 2.9688 2.84103 2.77055 2.7027
1977.577 2.65 2.641 2.64 2.621 2.595 2.579 2.534 2.482 2.445 2.396
1996.870 2.342 2.301 2.261 2.216 2.211 2.209 2.164 2.142 2.134 2.12
2016.164 2.158 2.188 2.162 2.148 2.153 2.154 2.165 2.205 2.234 2.245
2035.457 2.274 2.273 2.267 2.29 2.297 2.302 2.313 2.336 2.334 2.318
2054.750 2.336 2.329 2.335 2.376 2.4 2.395 2.39 2.4 2.416 2.44
2074.044 2.459 2.474 2.499 2.516 2.57 2.615 2.64 2.714 2.78523 2.80272
2093.337 2.82505 2.8557 2.9129 2.986 3.0158 3.0191 3.0338 3.0317 2.9808 2.9084
2112.631 2.82156 2.74148 2.6552 2.534 2.445 2.4 2.368 2.362 2.349 2.334
2131.924 2.313 2.299 2.279 2.259 2.288 2.329 2.365 2.39 2.396 2.41
2151.218 2.435 2.434 2.41 2.387 2.376 2.355 2.313 2.305 2.335 2.371
2170.511 2.385 2.406 2.424 2.437 2.442 2.401 2.343 2.317 2.306 2.252
2189.804 2.208 2.183 2.172 2.171 2.148 2.136 2.14 2.14 2.128 2.157
2209.098 2.17 2.167 2.181 2.194 2.223 2.253 2.306 2.365 2.429 2.498
2228.391 2.588 2.6667 2.7392 2.79507 2.84399 2.8915 2.8688 2.82017 2.77158 2.7046
2247.685 2.639 2.59 2.532 2.513 2.497 2.472 2.477 2.45 2.41 2.361
2266.978 2.305 2.283 2.282 2.257 2.232 2.222 2.239 2.239 2.21 2.197
2286.272 2.191 2.227 2.256 2.228 2.198 2.174 2.17 2.184 2.174 2.181
2305.565 2.242 2.316 2.367 2.435 2.502 2.531 2.536 2.53 2.519 2.487
2324.858 2.445 2.41 2.394 2.383 2.363 2.351 2.344 2.361 2.372 2.337
2344.152 2.308 2.249 2.169 2.151 2.151 2.138 2.162 2.178 2.191 2.232
2363.445 2.245 2.229 2.22 2.206 2.208 2.198 2.152 2.122 2.127 2.141
2382.739 2.121 2.112 2.125 2.14 2.163 2.147 2.145 2.164 2.161 2.158
2402.032 2.156 2.131 2.103 2.1 2.11 2.115 2.102 2.112 2.109 2.097
2421.326 2.074 2.047 2.069 2.086 2.076 2.057 2.02 1.994 2.015 2.042
2440.619 2.024 1.995 1.973 1.977 2.024 2.026 2.018 2.046 2.065 2.03
2459.912 2.004 2.05 2.059 2.06 2.046 2.014 2.018 2.003 1.949 1.933
2479.206 1.98 1.963 1.916 1.925 1.942 1.946 1.96 1.977 1.994 2.012
2498.499 2.046 2.106 2.112 2.095 2.091 2.082 2.097 2.094 2.083 2.063
2517.793 2.027 2.032 2.061 2.081 2.065 2.046 2.095 2.137 2.172 2.201
2537.086 2.242 2.323 2.35 2.376 2.439 2.514 2.586 2.679 2.76062 2.84987
2556.380 2.95 3.0387 3.1074 3.1623 3.2131 3.2454 3.2101 3.089 2.9879 2.8764
2575.673 2.7267 2.626 2.539 2.435 2.373 2.346 2.308 2.272 2.273 2.292
2594.966 2.309 2.338 2.379 2.38 2.455 2.529 2.546 2.611 2.6725 2.77027
2614.260 2.8868 2.99 3.1097 3.2114 3.3194 3.4447 3.5334 3.6172 3.6895 3.75
2633.553 3.81 3.88 3.96 4.04 4.12 4.16 4.14 4.12 4.11 4.07
2652.847 3.99 3.9 3.81 3.76 3.76 3.78 3.86 3.97 4.11 4.37
2672.140 4.7 5.08 5.63 6.39 7.4 8.75 10.54 12.94 16.03 19.86
2691.434 24.29 28.82 32.74 35.34 36.56 36.73 35.76 33.52 30.34 26.85
2710.727 23.72 21.21 19.26 17.79 16.67 15.71 14.83 14.08 13.45 12.88
2730.020 12.39 11.94 11.59 11.3 10.99 10.81 10.72 10.65 10.69 10.87
2749.314 11.12 11.5 12.08 12.7 13.3 13.87 14.35 14.74 14.98 15.07
2768.607 15.05 14.89 14.61 14.31 13.97 13.64 13.45 13.44 13.72 14.41
2787.901 15.54 17.13 19.12 21.49 24.04 26.39 28.27 29.43 29.91 29.82
2807.194 29.2 28.29 27.42 26.9 26.88 27.25 27.75 27.99 27.66 26.68
2826.488 24.9 22.49 19.63 16.6 13.61 11 9.03 7.46 6.25 5.31
2845.781 4.51 3.86 3.3089 2.9 2.547 2.207 1.969 1.71 1.42 1.18
2865.074 0.95 0.68 0.44 0.37 0.34 0.27 0.26 0.21 0.16 0.14
2884.368 0.19 0.23 0.19 0.21 0.28 0.24 0.21 0.25 0.27 0.35
2903.661 0.46 0.47 0.47 0.52 0.52 0.52 0.54 0.52 0.57 0.55
2922.955 0.46 0.49 0.5 0.45 0.5 0.54 0.54 0.52 0.47 0.42
2942.248 0.34 0.36 0.36 0.23 0.14 0.06 0.01 0 0.02 0.06
2961.542 0.06 0.16 0.2 0.1 0.1 0.16 0.12 0.09 0.09 0.15
2980.835 0.27 0.33 0.36 0.41 0.6 0.94 1.32 1.7 2.106 2.536
3000.128 2.9753 3.3668 3.83 4.27 4.67 5.17 5.67 6.17 6.77 7.55
3019.422 8.43 9.31 10.32 11.39 12.36 13.19 13.81 14.17 14.36 14.48
3038.715 14.42 14.21 13.98 13.67 13.49 13.61 14.08 14.9 16.14 17.84
3058.009 19.91 22.19 24.49 26.53 27.9 28.35 28.05 27.31 26.19 24.64
3077.302 22.9 21.38 20.38 19.78 19.27 18.56 17.28 15.64 14.08 12.6
3096.596 11.11 9.89 8.99 8.26 7.72 7.32 6.95 6.48 6.07 5.81
3115.889 5.49 5.24 5.14 5.08 5.14 5.07 4.74 4.47 4.13 3.7084
3135.182 3.2195 2.7237 2.358 2.129 2.014 1.975 1.991 2.073 2.079 2.059
3154.476 2.004 1.946 1.869 1.793 1.66 1.42 1.19 0.99 0.82 0.64
3173.769 0.65 0.68 0.75 0.77 0.66 0.63 0.72 0.71 0.65 0.7
3193.063 0.66 0.59 0.56 0.58 0.55 0.44 0.49 0.59 0.54 0.48
3212.356 0.47 0.54 0.58 0.51 0.49 0.48 0.47 0.46 0.48 0.47
3231.650 0.43 0.45 0.39 0.34 0.4 0.36 0.35 0.33 0.38 0.54
3250.943 0.53 0.47 0.5 0.52 0.48 0.53 0.58 0.53 0.51 0.49
3270.236 0.46 0.43 0.46 0.45 0.45 0.43 0.38 0.43 0.51 0.52
3289.530 0.46 0.47 0.53 0.53 0.49 0.48 0.42 0.45 0.57 0.58
3308.823 0.57 0.57 0.65 0.68 0.63 0.58 0.58 0.64 0.68 0.76
3328.117 0.83 0.76 0.65 0.61 0.59 0.59 0.63 0.66 0.72 0.74
3347.410 0.74 0.77 0.78 0.78 0.77 0.87 0.89 0.81 0.84 0.91
3366.704 1.02 1.2 1.24 1.26 1.45 1.6 1.867 2.33 2.8563 3.3811
3385.997 3.92 4.56 5.08 5.41 5.69 5.75 5.51 5.15 4.68 4.11
3405.290 3.4932 2.9085 2.445 2.038 1.74 1.53 1.34 1.21 1.07 0.98
3424.584 1.01 1.04 0.86 0.74 0.77 0.77 0.76 0.79 0.81 0.78
3443.877 0.73 0.65 0.65 0.71 0.77 0.76 0.81 0.77 0.73 0.7
3463.171 0.65 0.68 0.67 0.69 0.71 0.74 0.78 0.79 0.72 0.75
3482.464 0.76 0.79 0.8 0.77 0.8 0.75 0.67 0.7 0.71 0.7
3501.758 0.77 0.85 0.88 0.92 0.97 0.88 0.74 0.68 0.76 0.87
3521.051 0.84 0.81 0.86 0.91 0.87 0.82 0.73 0.73 0.83 0.83
3540.344 0.86 0.9 0.9 1 0.91 0.84 0.93 0.93 0.91 0.87
3559.638 0.83 0.84 0.9 1.07 1.08 0.97 1.01 1.04 1.03 1.03
3578.931 0.96 0.98 1.04 1.03 1.08 1.08 0.99 0.96 1.02 1.03
3598.225 1 0.98 0.98 1 1 0.98 0.97 0.96 0.98 1.01
3617.518 1.02 1.01 1.02 0.95 0.9 0.92 1 1.03 0.98 0.98
3636.812 0.99 1 1.02 1.07 1.02 1.04 1.13 1.14 1.11 1.16
3656.105 1.17 1.11 1.15 1.16 1.17 1.13 1.16 1.2 1.07 1.04
3675.398 1.06 1.09 1.14 1.14 1.07 1.07 0.99 1 1.14 1.18
3694.692 1.19 1.18 1.19 1.26 1.26 1.24 1.18 1.13 1.16 1.1
3713.985 1.1 1.16 1.15 1.16 1.2 1.27 1.29 1.22 1.21 1.19
3733.279 1.17 1.17 1.11 1.06 1.02 1.02 1.04 1.07 0.99 0.96
3752.572 1.06 1.09 1.13 1.09 1.08 1.13 1.17 1.17 1.11 1.12
3771.866 1.14 1.19 1.23 1.19 1.19 1.18 1.17 1.18 1.17 1.21
3791.159 1.25 1.26 1.22 1.18 1.22 1.26 1.21 1.19 1.15 1.16
3810.452 1.2 1.11 1.05 1.03 1.03 1.08 1.13 1.16 1.17 1.13
3829.746 1.11 1.13 1.08 1.06 1.03 1.02 1.08 1.07 1.05 1.02
3849.039 0.96 0.96 0.95 0.94 1.07 1.15 1.12 1.08 1.02 1
3868.333 1.04 1.08 1.07 1.13 1.17 1.18 1.19 1.18 1.16 1.17
3887.626 1.18 1.17 1.22 1.23 1.2 1.2 1.23 1.26 1.27 1.27
3906.920 1.24 1.22 1.27 1.27 1.3 1.24 1.15 1.16 1.09 1.09
3926.213 1.19 1.18 1.17 1.15 1.06 1.04 1.09 1.13 1.16 1.14
3945.506 1.07 1.05 1.09 1.1 1.07 1.1 1.13 1.11 1.1 1.12
3964.800 1.13 1.09 1.08 1.12 1.18 1.17 1.16 1.23 1.19 1.15
3984.093 1.21 1.19 1.18 1.29 1.37 1.37 1.39 1.5 1.58
##END=
