##TITLE=N-Acetylindole
##JCAMP-DX=4.24
##DATA TYPE=INFRARED SPECTRUM
##ORIGIN=EPA-IR VAPOR PHASE LIBRARY
##OWNER=SRD/NIST
Collection (C) 2018 copyright by the U.S. Secretary of Commerce
on behalf of the United States of America. All rights reserved.
##CAS REGISTRY NO=576-15-8
##MOLFORM=C 10 H 9 N O
##$NIST SOURCE=MSDC-IR
##STATE=gas
##XUNITS=1/CM
##YUNITS=ABSORBANCE
##XFACTOR=1.
##YFACTOR=0.001
##DELTAX=1.92898
##FIRSTX=549.8
##LASTX=4000.7
##FIRSTY=3.08
##MAXX=4000.7
##MINX=549.759
##MAXY=0.18097
##MINY=0
##NPOINTS=1790
##XYDATA=(X++(Y..Y))
549.759 3.08 2.74 2.77 3.53 4.18 3.66 3.8 4.51 4.42 3.48
569.049 3.19 3.85 4.38 4.55 4.99 5.08 4.39 3.93 3.99 4.43
588.339 4.31 4.52 5.27 6.35 8.37 9.83 11.81 13.85 14.54 14.93
607.628 14.91 14.64 14.26 12.28 9.77 8.93 7.72 6.11 4.91 3.95
626.918 3.2 2.54 1.9408 2.23 2.55 2.52 2.62 2.68 3.08 3.09
646.208 3.18 3.08 2.96 3.55 3.74 4.06 5.14 6.38 7.98 9.7
665.498 10.98 12.35 13.96 14.59 15.3 15.94 15.17 14.29 13.05 11.5
684.787 10.44 9.18 8.52 8.75 9.15 9.85 10.84 12.17 13.33 14.45
704.077 16.54 19.48 20.38 17.62 14.65 13.17 12.2 12.07 12.23 12.06
723.367 12.25 13.31 15.47 18.11 21.28 25.59 31.07 36.77 38.47 39.15
742.657 44.5 53.91 56.54 46.23 38.06 36.58 35.64 33.82 31.77 29.29
761.947 26.44 24.21 21.31 18.04 15.66 13.37 10.58 8.51 6.95 5.49
781.236 4.7 4.3 3.66 3.04 2.88 2.64 2.68 2.4 1.6912 1.7349
800.526 2.0206 2.17 2.59 2.42 1.9572 2.0417 2.15 2.15 2.0468 1.9689
819.816 1.7315 1.9245 1.8384 1.8478 2.23 2.14 2.0722 1.9292 2.0244 2.53
839.106 2.66 2.75 2.93 2.87 2.71 2.5 2.55 2.53 2.74 2.94
858.395 2.69 2.77 3.03 2.62 2.34 3 3.92 4.95 5.58 5.61
877.685 5.91 6.21 6.03 5.82 5.81 5.21 4.54 3.45 2.58 2.4
896.975 2.41 2.6 2.58 2.84 3.24 3.57 4.02 4.94 5.94 7.52
916.265 10.21 13.37 16.66 20.5 23.9 25.63 26.4 26.86 26.4 25.05
935.555 23.49 20.44 15.98 11.83 8.54 6.75 6.05 5.06 4.35 3.77
954.844 3.49 3.6 3.53 3.7 4.07 4.57 4.74 4.6 4.34 4.52
974.134 4.75 5.02 4.88 3.91 3.33 3.18 2.94 2.44 2.59 3.32
993.424 3.62 3.41 3.46 4.2 4.9 5.35 6.2 7.46 8.67 9.22
1012.714 9.48 9.86 9.85 9.66 10.02 10.2 9.36 9.3 9.25 8.78
1032.003 8.37 8.15 8.18 6.97 6.09 5.8 5.61 5.42 5.06 4.63
1051.293 3.81 3.89 4.58 4.07 3.33 2.98 3.03 3.74 4.5 4.82
1070.583 5.53 6.56 7.37 8.4 9.69 10.96 11.97 12.2 11.32 11.14
1089.873 10.68 10.06 9.31 7.84 6.07 5.92 7.11 6.31 6.21 7.83
1109.163 8.87 9.59 10.2 10.88 10.96 10.81 10.68 10.97 11.33 9.8
1128.452 9.35 10.9 11.29 10.05 9.56 10.26 9.3 8.58 9.79 9.96
1147.742 9.69 10.15 10.82 10.6 10.77 10.9 9.42 8.37 8.54 8.76
1167.032 8.62 8.6 8.81 9.49 9.52 9.17 9.19 9.6 10.18 10.92
1186.322 11.99 12.85 14.09 15.65 19.32 24.35 29.1 34.7 41.02 47.84
1205.611 52.58 54.79 55.28 55.44 55.66 54.57 49.94 42.78 37.95 36.38
1224.901 37.41 39.7 42.1 44.54 46.87 46.36 43.47 41.15 37.78 32.88
1244.191 26.92 20.92 15.99 12.53 10.83 9.64 8.84 8.63 8.31 8.84
1263.481 9.01 9.1 9.65 9.86 10.33 10.57 11.03 11.92 12.94 13.82
1282.771 15.1 17.03 19.53 22.58 25.63 28.95 32.93 37.98 44.18 51.77
1302.060 61.04 71.32 82.46 94.94 108.69 123.29 138.23 152.47 165.39 175.45
1321.350 180.81 180.97 175.86 165.89 152.14 135.22 115.36 94.94 75 56.1
1340.640 40.69 30.44 24.65 21.65 20.53 20.47 21.04 22.55 24.73 27.52
1359.930 30.91 34.44 37.89 41.82 46.82 52.72 58.82 64.24 67.55 68.8
1379.219 68.91 68.6 67.59 64.83 59.63 52.42 44.68 37.52 31.75 27.25
1398.509 23.61 20.41 17.82 16.08 14.94 14.16 13.56 13.12 12.8 12.77
1417.799 13.21 13.75 14.74 16.37 18.49 20.83 23.4 26.05 28.85 32.09
1437.089 36.48 42.19 49.94 59.16 68.39 75.39 78.82 79.57 79.04 76.92
1456.378 72.29 66.13 56.67 44.51 34.2 27.24 23.34 20.88 19.09 17.54
1475.668 16.74 16.17 14.88 12.97 10.81 9.05 7.76 6.69 6.04 5.56
1494.958 5.11 4.94 4.79 4.58 4.5 4.58 4.8 4.91 5.27 5.69
1514.248 6.13 6.8 7.69 9.09 10.59 12.02 14 16.09 18.01 19.95
1533.538 21.58 22.29 22.23 21.76 21.58 21.22 20.01 18.46 16.73 15.26
1552.827 14.55 13.8 13.21 13.02 12.31 11.77 11.23 10.17 9.24 8.51
1572.117 7.99 7.59 7.23 6.94 6.69 6.67 6.63 6.61 6.76 6.89
1591.407 7.07 6.99 6.88 7.12 7.26 7.43 7.57 7.43 7.38 7.42
1610.697 7.39 7.19 6.8 6.5 6.31 6 5.93 5.64 5.18 4.84
1629.986 4.49 4.43 4.54 4.64 4.71 4.71 4.65 4.75 5.02 5.02
1649.276 5.03 5.37 5.43 5.16 5 4.99 5.3 5.57 5.7 5.79
1668.566 5.84 5.92 6.12 6.35 6.57 6.68 6.8 7.24 7.85 7.9
1687.856 7.91 8.4 8.85 9.4 9.94 10.55 11.7 13.13 14.9 17.63
1707.146 20.97 25.29 31.29 38.87 48.52 60.54 75.11 91.15 107.75 122.53
1726.435 132.89 136.87 135.49 132.79 130.29 124.75 112.27 93.34 73.9 56.37
1745.725 41.91 30.97 22.94 16.93 12.97 10.5 8.84 7.65 6.78 6.19
1765.015 5.97 5.76 5.52 5.56 5.72 5.62 5.46 5.58 5.87 6.09
1784.305 6.27 6.5 6.66 6.86 7.08 7.04 6.8 6.54 6.3 5.79
1803.594 5.31 4.9 4.69 4.68 4.26 3.96 3.83 3.74 3.73 3.58
1822.884 3.52 3.38 3.2 3.15 3.11 3.06 2.84 2.65 2.57 2.37
1842.174 2.3 2.35 2.4 2.39 2.33 2.26 2.26 2.43 2.55 2.59
1861.464 2.55 2.57 2.74 2.84 2.9 3.06 3.07 2.97 3.13 3.23
1880.754 3.14 3.07 3.09 3.1 3 3.05 3.23 3.16 2.98 3.09
1900.043 3.23 3.22 3.14 3.11 3.14 3.06 2.95 2.81 2.66 2.55
1919.333 2.39 2.51 2.6 2.51 2.63 2.74 2.68 2.64 2.63 2.52
1938.623 2.28 2.18 2.13 2.0849 2.0149 1.72 1.6326 1.6594 1.3693 1.1969
1957.913 1.2636 1.19002 1.2149 1.3311 1.285 1.4101 1.5914 1.5119 1.5726 1.7402
1977.202 1.7388 1.7357 1.7516 1.7696 1.9078 1.9748 2.0244 1.9421 1.8483 1.9254
1996.492 1.9912 2.0933 2.11 2.0026 1.863 1.7675 1.7913 1.6927 1.5694 1.591
2015.782 1.4668 1.4861 1.481 1.2416 1.10662 1.15003 1.18038 1.2773 1.3921 1.4292
2035.072 1.502 1.4696 1.5485 1.4592 1.3817 1.4708 1.4839 1.6443 1.6544 1.647
2054.362 1.6693 1.5862 1.5678 1.582 1.4796 1.4262 1.5925 1.5316 1.4131 1.3773
2073.651 1.3538 1.3729 1.3598 1.5025 1.5767 1.5246 1.4501 1.4796 1.5914 1.4286
2092.941 1.19381 1.19934 1.2405 1.12358 1.10887 1.1804 1.18499 1.17684 1.0128 0.921
2112.231 0.968 1.11813 1.2386 1.0173 0.911 1.0859 0.95 0.934 1.0346 0.995
2131.521 1.0235 0.927 1.0229 1.17138 0.95 0.721 0.862 1.0575 1.0157 1.0083
2150.810 0.998 0.994 1.12354 1.0636 1.0006 1.09716 1.075 0.948 0.953 1.0252
2170.100 1.13354 0.887 0.819 0.943 0.79 0.86 0.937 0.85 0.796 0.895
2189.390 0.991 1.0641 1.3197 1.2612 1.0739 1.17368 1.12574 1.0236 1.18516 1.2569
2208.680 0.999 1.11352 1.4313 1.4249 1.2894 1.3497 1.3155 1.10255 0.966 0.911
2227.970 0.948 1.0405 1.232 1.0537 0.916 1.11806 1.09579 1.0368 1.0537 1.09462
2247.259 1.03 1.11192 1.10029 0.989 1.09374 1.0585 1.056 1.0725 0.982 0.882
2266.549 0.953 1.0046 0.995 1.15109 1.2541 1.12916 0.934 1.0108 1.2702 1.3011
2285.839 1.15086 1.0745 1.16473 1.256 1.18872 1.2668 1.4564 1.5643 1.5871 1.4397
2305.129 1.2419 1.2288 1.3475 1.4612 1.5305 1.3682 1.2064 1.2751 1.3021 1.2243
2324.418 1.1718 1.035 1.16346 1.2936 1.10607 1.0386 1.16664 1.2062 1.09989 1.18292
2343.708 1.2163 1.09888 1.12797 1.2831 1.3002 1.18688 1.4099 1.4083 1.2896 1.18744
2362.998 0.92 1.0253 1.0784 1.0396 1.016 0.792 0.763 1.0536 1.13301 1.13034
2382.288 1.1658 1.15164 1.14496 1.3174 1.2488 1.19098 1.3059 1.1021 1.11264 1.18582
2401.578 1.0422 1.0896 1.12059 1.0806 1.2635 1.4203 1.4591 1.4859 1.4167 1.2206
2420.867 1.10811 1.0576 1.0077 1.11193 1.2327 1.15494 1.10371 1.15573 1.12922 1.13232
2440.157 1.0447 0.85 0.85 1.007 1.0126 0.92 0.982 1.15726 1.11562 1.0821
2459.447 1.16471 1.2163 1.2072 1.15442 1.4227 1.6198 1.4354 1.19527 1.0738 1.0206
2478.737 1.15199 1.2855 1.2653 1.2966 1.3406 1.3213 1.19826 1.3202 1.4555 1.2135
2498.026 1.0127 1.13966 1.2258 1.2087 1.2231 1.144 1.2266 1.16397 1.0635 1.2056
2517.316 1.2872 1.3449 1.2883 1.2346 1.3286 1.3858 1.4112 1.3685 1.4396 1.3901
2536.606 1.447 1.7963 1.8133 1.4956 1.12356 1.2884 1.6164 1.5202 1.4267 1.5563
2555.896 1.6294 1.5426 1.4286 1.4926 1.2672 1.10038 1.16429 0.849 0.825 0.976
2575.186 0.908 0.922 1.034 0.998 1.0077 1.0343 1.0687 1.09868 0.941 1.0226
2594.475 1.2631 1.2226 1.18124 1.0774 0.848 1.0816 1.4071 1.5375 1.6564 1.5418
2613.765 1.4367 1.3116 1.301 1.4469 1.3472 1.2721 1.17323 1.13538 1.0777 0.873
2633.055 0.951 1.17652 1.2595 1.2829 1.3542 1.2652 1.2053 1.13677 0.998 0.988
2652.345 0.942 1.16237 1.4079 1.5165 1.5275 1.19466 0.979 1.046 0.961 0.904
2671.634 0.979 0.886 1.1405 1.2742 1.17537 1.3577 1.4225 1.12381 1.09745 1.14048
2690.924 1.0213 1.2483 1.362 1.3781 1.3163 1.2799 1.2844 1.2316 1.0669 0.882
2710.214 0.998 0.956 0.739 0.763 0.876 0.826 0.769 0.868 0.78 0.596
2729.504 0.671 0.793 0.955 1.0282 1.0821 1.16565 1.0392 0.93 0.862 0.781
2748.794 1.069 1.13355 1.11672 1.16465 0.843 0.606 0.628 0.713 0.869 0.913
2768.083 0.772 0.662 0.63 0.825 0.791 0.755 0.994 0.926 0.46 0.356
2787.373 0.672 0.807 0.853 0.865 0.76 0.74 0.891 0.986 0.94 0.893
2806.663 0.884 0.922 1.16146 1.3198 1.0519 1.0368 1.16813 1.0644 1.0724 1.16321
2825.953 0.947 0.78 1.0289 0.993 0.838 1.0059 1.0468 1.18746 1.3811 1.0738
2845.242 0.737 0.945 1.0631 0.85 0.958 1.2449 1.17928 0.957 0.868 0.796
2864.532 0.945 1.11146 0.97 0.793 0.813 1.0194 1.17251 1.13455 1.18521 1.2316
2883.822 0.922 0.575 0.78 1.1477 1.17131 1.12106 1.12038 1.11307 1.19565 1.0517
2903.112 1.0349 1.2483 1.2723 1.2134 1.2496 1.4837 1.4528 1.2623 1.2749 1.1158
2922.401 0.971 1.2498 1.12049 1.043 1.4806 1.9149 2.0567 2.15 2.29 2.47
2941.691 2.69 2.84 2.53 2.11 2.0865 2.0963 2.24 2.0194 1.9194 1.9883
2960.981 1.9101 1.8077 1.6027 1.5009 1.4354 1.5071 1.7486 2.0536 2.0226 2.0193
2980.271 1.9985 2.0169 2.42 2.52 2.48 2.8 2.68 2.25 2.22 2.0241
2999.561 2.1 2.2 2.0007 2.14 2.31 2.49 2.93 3.17 3.76 4.19
3018.850 4.15 4.4 4.6 5.11 5.78 5.95 5.82 6.03 6.22 6.37
3038.140 7.04 7.46 7.48 7.41 7.98 8.81 9.21 9.89 10.41 11.13
3057.430 11.88 12.32 12.99 13.67 14.64 15.73 15.84 15.67 15.78 15.62
3076.720 14.72 13.68 12.59 11.08 9.36 8.29 7.38 6.14 5.2 4.4
3096.009 3.68 3.05 3.17 3.29 3.12 3.27 3.75 3.98 3.8 4
3115.299 4.33 3.99 3.96 4.08 3.79 3.87 3.5 3.03 2.95 2.62
3134.589 2.31 2.0752 1.8274 1.7831 1.5404 1.4458 1.37 1.329 1.6009 1.8212
3153.879 1.6696 1.5881 1.8062 1.8518 1.5202 1.5369 1.73 1.564 1.6859 1.4816
3173.169 1.2619 1.11943 1.09915 0.933 0.643 0.773 0.891 0.76 0.541 0.54
3192.458 1.0507 1.4171 1.4142 1.4188 1.2879 1.0659 0.989 0.836 0.726 0.695
3211.748 0.675 0.948 0.866 0.563 0.692 1.0026 0.814 0.677 0.793 0.697
3231.038 0.611 0.389 0.204 0.436 0.77 0.791 0.838 0.945 0.967 0.92
3250.328 0.873 0.931 1.0399 0.664 0.447 0.591 0.547 0.739 0.846 0.729
3269.617 0.375 0.545 0.827 0.77 0.747 0.758 0.895 1.10884 1.3194 1.0616
3288.907 0.987 1.285 0.829 0.558 0.785 0.914 0.936 0.778 0.889 1.0533
3308.197 0.572 0.389 0.715 0.814 0.979 0.838 0.483 0.301 0.361 0.234
3327.487 0.292 0.735 0.78 0.892 1.0079 1.0184 1.0688 1.19759 0.978 0.527
3346.777 0.579 0.95 1.16572 0.967 0.373 0.299 0.654 0.519 0.595 0.74
3366.066 1.0305 1.424 1.2041 0.941 0.506 0.174 0.327 0.496 0.743 0.988
3385.356 1.05 1.0714 1.2206 1.17922 1.0098 0.885 0.879 1.0564 1.13707 1.10317
3404.646 1.09956 1.2074 1.0585 0.892 0.96 1.0288 1.298 1.15574 0.842 1.2817
3423.936 1.3678 1.4289 1.782 1.6979 2.0128 1.9206 1.8204 2.16 2.31 2.36
3443.225 2.41 2.034 1.8213 1.9542 1.7566 1.8391 1.7586 1.466 1.4876 1.5808
3462.515 1.15552 0.768 0.82 0.723 0.773 1.0246 1.2479 1.14787 0.787 0.758
3481.805 0.843 0.853 0.898 1.3059 1.4429 0.947 0.579 0.578 0.923 1.2263
3501.095 1.25 1.0546 0.775 0.579 0.865 1.4059 1.2045 0.935 1.2079 1.3373
3520.385 1.14782 1.0292 0.883 0.472 0.522 0.569 0.828 1.19254 1.14204 1.374
3539.674 1.3577 1.0758 0.836 0.824 0.548 0.325 0.5 0.654 0.778 0.91
3558.964 0.949 1.0701 1.2942 1.18497 0.718 0.322 0.748 1.4526 1.3874 0.972
3578.254 0.785 0.575 0.819 1.11414 1.13189 1.0887 1.0203 1.10108 1.0925 1.09811
3597.544 1.14778 1.14045 1.3436 1.2581 1.2787 1.3086 1.001 1.083 1.0687 1.18788
3616.833 1.4253 0.793 0.335 0.645 1.0233 1.16707 1.0762 1.0436 0.87 1.2536
3636.123 1.2886 0.444 0.315 0.663 0.994 0.835 0.541 0.487 0.556 0.906
3655.413 1.0832 0.865 0.725 0.939 1.2232 1.14598 0.957 0.911 0.46 0.553
3674.703 0.731 0.559 0.63 0.532 0.225 0.211 0.605 0.919 0.929 0.932
3693.993 0.955 0.848 0.932 1.09328 0.747 0.82 0.952 0.627 0.926 1.14445
3713.282 1.11619 0.546 0.507 1.0337 1.10246 1.2235 1.0128 0.563 0.548 0.629
3732.572 0.881 0.736 0.938 1.0752 0.842 1.3857 1.285 0.922 0.912 1.1244
3751.862 1.0503 0.716 0.549 0.581 0.618 0.204 0.396 0.979 1.11039 1.17969
3771.152 1.0641 0.79 0.443 0.335 0.562 1.10598 1.3111 1.2277 1.0575 1.0198
3790.441 1.3971 1.4264 0.714 0.573 0.895 0.722 1.19469 1.5206 1.2282 1.005
3809.731 1.0055 0.995 0.755 0.475 0.958 1.19497 0.921 1.028 1.16507 0.671
3829.021 0.674 0.774 0.508 0.79 1.6342 1.5807 0.747 1.0879 1.0872 0.898
3848.311 0.674 0.436 0.793 0.619 0.494 0.845 0.636 0.434 0.517 0.728
3867.601 0.906 0.929 0.813 0.889 0.975 0.532 0.467 0.891 1.13889 0.995
3886.890 0.592 0.535 0.82 0.96 0.565 0.04 0.598 1.13218 1.0671 1.0043
3906.180 0.501 0.428 0.303 0.269 0.835 1.3462 1.19489 0.815 1.2023 1.13551
3925.470 0.59 0.674 0.85 0.64 1.0649 1.077 0.354 0.594 0.894 0.958
3944.760 0.883 0.743 0.612 0.394 0.432 0.803 1.2959 1.3509 1.3869 1.281
3964.049 0.974 1.2528 1.4872 1.2933 0.961 0.619 0.644 0.355 0 0.38
3983.339 1.15075 1.4749 1.0872 1.14099 1.2288 1.13924 0.947 1.0614 1.2768 0.883
##END=
