##TITLE=o-Nitroacetophenone
##JCAMP-DX=4.24
##DATA TYPE=INFRARED SPECTRUM
##ORIGIN=NIST Mass Spectrometry Data Center
##OWNER=NIST Standard Reference Data Program
Collection (C) 2018 copyright by the U.S. Secretary of Commerce
on behalf of the United States of America. All rights reserved.
##CAS REGISTRY NO=577-59-3
##MOLFORM=C 8 H 7 N O 3
##$NIST SOURCE=MSDC-IR
##SPECTROMETER/DATA SYSTEM=HP-GC/MS/IRD
##STATE=gas
##XUNITS=1/CM
##YUNITS=ABSORBANCE
##XFACTOR=1.0
##YFACTOR=0.000003100
##DELTAX=4.0
##FIRSTX=550.0
##LASTX=3846.0
##FIRSTY=0.000322
##MAXX=3846
##MINX=550
##MAXY=0.031
##MINY=0
##NPOINTS=825
##XYDATA=(X++(Y..Y))
550.0 104 121 86 103 98 185 350 618 933 1247
590.0 1484 1415 1124 777 473 268 177 137 96 67
630.0 68 68 72 106 148 203 267 337 411 442
670.0 393 324 312 357 450 586 769 984 996 837
710.0 710 603 536 580 727 963 1279 1632 1960 2368
750.0 2449 1962 1541 1221 981 952 1000 1116 1212 985
790.0 661 459 288 174 119 78 30 20 54 66
830.0 68 144 328 722 1223 1539 1620 1521 1148 614
870.0 275 141 86 64 49 37 28 14 1 1
910.0 11 5 5 32 49 81 132 184 263 370
950.0 491 604 672 688 676 637 556 469 395 344
990.0 322 313 325 360 376 386 400 399 397 390
1030.0 405 416 417 404 368 384 407 408 404 362
1070.0 289 233 192 182 191 220 288 323 302 291
1110.0 272 212 160 137 117 99 97 101 112 126
1150.0 136 137 143 150 161 165 161 160 170 196
1190.0 227 274 327 401 509 658 893 1269 1869 2713
1230.0 3618 4318 4584 4317 3529 2537 1857 1600 1567 1564
1270.0 1522 1436 1317 1223 1214 1270 1333 1344 1274 1141
1310.0 1011 926 906 980 1184 1562 2219 3271 4712 6283
1350.0 7567 8249 8097 7011 5376 3843 2671 1870 1377 1092
1390.0 925 819 755 714 680 658 658 669 688 727
1430.0 769 804 815 791 753 700 642 626 655 691
1470.0 714 727 722 709 711 749 833 973 1167 1419
1510.0 1732 2110 2589 3213 4067 5208 6670 8302 9571 10000
1550.0 9554 8347 6663 5279 4570 4007 3353 2728 2165 1665
1590.0 1293 1061 945 894 867 846 805 743 670 593
1630.0 518 462 417 384 359 337 320 314 302 312
1670.0 339 392 472 580 745 972 1264 1632 2126 2813
1710.0 3724 4774 5798 6564 6649 5824 4558 3328 2312 1602
1750.0 1143 838 633 490 399 329 271 227 199 183
1790.0 163 149 145 155 170 184 205 226 240 231
1830.0 196 164 137 112 94 89 88 75 60 47
1870.0 36 36 38 36 35 37 48 54 57 60
1910.0 54 62 77 83 98 120 129 125 111 93
1950.0 86 96 114 117 108 91 68 49 35 24
1990.0 21 19 17 14 17 21 15 13 12 10
2030.0 13 18 21 14 12 14 7 5 7 9
2070.0 12 9 8 15 18 10 6 10 11 13
2110.0 14 13 14 9 4 4 5 6 5 5
2150.0 4 7 2 0 8 11 10 14 16 15
2190.0 14 18 16 15 15 16 21 20 17 11
2230.0 14 14 8 11 10 7 10 7 5 12
2270.0 20 24 22 13 7 15 23 19 23 33
2310.0 39 46 46 44 49 48 40 38 34 19
2350.0 12 21 28 32 31 24 29 33 44 49
2390.0 52 55 51 52 53 47 40 39 36 30
2430.0 28 31 32 27 24 24 23 20 20 19
2470.0 21 26 16 8 17 22 30 29 20 19
2510.0 17 11 7 6 6 7 0 2 2 5
2550.0 8 4 8 16 14 17 32 36 34 25
2590.0 19 20 25 35 39 30 27 34 35 33
2630.0 28 28 30 31 26 20 20 17 26 29
2670.0 28 35 41 47 52 60 69 67 59 50
2710.0 45 44 46 46 38 31 29 24 24 30
2750.0 23 17 24 24 18 15 30 29 29 34
2790.0 32 30 31 32 30 38 48 47 52 63
2830.0 67 67 71 83 99 106 106 118 137 161
2870.0 176 190 218 244 244 240 225 210 201 186
2910.0 177 179 192 198 203 219 216 192 177 158
2950.0 142 141 138 140 142 141 144 147 154 153
2990.0 142 148 175 202 218 220 224 227 226 224
3030.0 227 225 220 217 222 240 266 318 406 520
3070.0 651 772 821 780 678 542 399 272 186 138
3110.0 105 87 82 82 71 57 53 67 64 64
3150.0 62 52 46 46 43 32 21 17 28 37
3190.0 37 34 16 11 36 42 30 21 33 34
3230.0 14 20 23 18 19 19 10 12 19 17
3270.0 20 29 35 17 9 17 10 9 16 23
3310.0 28 21 31 31 16 5 19 28 26 23
3350.0 12 18 32 37 34 42 34 19 24 43
3390.0 64 60 54 78 89 85 109 132 152 155
3430.0 146 137 124 119 105 96 95 68 44 37
3470.0 40 34 29 47 53 54 55 49 50 48
3510.0 25 11 18 32 37 31 37 36 37 43
3550.0 36 36 33 26 24 27 16 13 28 24
3590.0 14 10 17 27 28 12 0 11 24 18
3630.0 19 31 16 9 22 19 27 41 32 25
3670.0 20 9 3 23 42 35 18 16 25 20
3710.0 22 31 31 35 36 32 23 15 11 6
3750.0 14 23 24 40 44 30 26 17 22 37
3790.0 40 37 32 31 36 56 64 31 13 24
3830.0 35 36 13 19 34
##END=
