##TITLE=2-Methylacetophenone
##JCAMP-DX=4.24
##DATA TYPE=INFRARED SPECTRUM
##ORIGIN=NIST Mass Spectrometry Data Center
##OWNER=NIST Standard Reference Data Program
Collection (C) 2018 copyright by the U.S. Secretary of Commerce
on behalf of the United States of America. All rights reserved.
##CAS REGISTRY NO=577-16-2
##MOLFORM=C 9 H 10 O
##$NIST SOURCE=MSDC-IR
##SPECTROMETER/DATA SYSTEM=HP-GC/MS/IRD
##STATE=gas
##XUNITS=1/CM
##YUNITS=ABSORBANCE
##XFACTOR=1.0
##YFACTOR=0.000002300
##DELTAX=4.0
##FIRSTX=550.0
##LASTX=3846.0
##FIRSTY=0.000913
##MAXX=3846
##MINX=550
##MAXY=0.023
##MINY=0
##NPOINTS=825
##XYDATA=(X++(Y..Y))
550.0 397 143 0 34 17 66 165 277 556 995
590.0 1505 2017 2307 2304 2078 1592 1004 562 341 263
630.0 220 167 105 85 104 77 28 21 34 17
670.0 11 28 33 54 91 113 155 232 388 599
710.0 824 1047 1534 1800 1511 1497 1688 1939 2299 2698
750.0 3443 3971 3240 2340 1847 1306 790 451 271 176
790.0 122 105 104 99 91 85 74 70 64 71
830.0 71 56 51 53 67 82 89 105 126 137
870.0 136 118 95 77 80 81 91 106 121 133
910.0 168 225 285 365 473 628 841 1107 1358 1535
950.0 1608 1574 1410 1141 888 707 584 518 467 438
990.0 452 463 474 485 496 502 535 554 562 596
1030.0 657 747 821 872 866 812 754 729 736 752
1070.0 748 710 641 539 423 353 314 278 252 236
1110.0 241 265 297 342 358 368 387 376 364 345
1150.0 342 378 405 411 419 438 435 415 419 461
1190.0 502 545 605 658 713 791 913 1144 1571 2280
1230.0 3337 4699 6094 7117 7571 7332 6281 4623 3100 2183
1270.0 1811 1824 1997 2133 2140 1973 1628 1184 790 564
1310.0 466 432 439 485 564 664 814 1040 1390 1876
1350.0 2374 2744 2903 2852 2550 2036 1560 1267 1111 1038
1390.0 995 948 880 820 799 818 860 928 1018 1107
1430.0 1190 1274 1359 1430 1490 1536 1536 1504 1477 1423
1470.0 1352 1305 1268 1200 1103 997 863 708 581 498
1510.0 452 435 416 403 397 403 412 424 444 469
1550.0 503 544 588 645 709 741 738 728 719 727
1590.0 772 834 863 856 817 736 623 539 488 440
1630.0 405 396 416 458 522 610 735 873 1029 1222
1670.0 1446 1746 2177 2795 3791 5251 7070 8747 9717 10000
1710.0 9553 8087 5991 4250 3171 2472 1952 1545 1222 956
1750.0 755 601 489 405 339 285 244 231 230 237
1790.0 242 240 239 228 207 180 162 160 165 176
1830.0 178 180 182 169 149 131 115 108 109 109
1870.0 109 115 117 121 125 130 136 148 178 201
1910.0 207 205 204 192 172 167 161 172 197 212
1950.0 204 178 152 122 94 76 67 63 55 45
1990.0 44 49 46 41 47 39 31 34 33 30
2030.0 37 38 33 39 48 44 35 30 27 21
2070.0 19 26 28 20 16 24 29 24 23 27
2110.0 21 13 10 10 20 19 13 12 20 25
2150.0 26 22 20 16 17 22 27 30 28 32
2190.0 32 32 28 24 24 19 19 23 23 20
2230.0 21 26 24 24 18 17 23 18 21 29
2270.0 31 35 38 38 39 42 48 59 62 54
2310.0 55 51 39 43 37 27 25 24 18 18
2350.0 18 12 16 22 22 20 23 30 34 33
2390.0 31 28 31 27 28 34 31 23 23 25
2430.0 28 20 12 17 18 22 26 26 25 14
2470.0 11 16 20 26 28 23 14 20 16 9
2510.0 19 28 29 20 16 22 24 26 33 36
2550.0 36 29 20 19 25 28 23 25 31 32
2590.0 24 25 30 27 26 23 21 25 23 20
2630.0 19 16 25 33 38 24 10 20 26 23
2670.0 20 17 22 24 18 16 16 14 16 18
2710.0 11 12 21 30 40 50 56 57 62 70
2750.0 73 74 74 65 57 56 56 52 50 60
2790.0 60 62 71 75 85 102 103 103 116 138
2830.0 166 190 213 233 255 275 305 348 392 426
2870.0 454 485 500 510 524 515 517 518 525 553
2910.0 605 673 759 880 1033 1197 1337 1414 1435 1417
2950.0 1337 1225 1130 1076 1084 1125 1183 1234 1235 1191
2990.0 1138 1103 1091 1111 1186 1296 1425 1549 1632 1641
3030.0 1590 1495 1351 1212 1153 1194 1338 1582 1851 2052
3070.0 2153 2114 1951 1680 1370 1117 934 797 695 615
3110.0 538 450 377 317 272 252 229 200 192 188
3150.0 173 153 131 118 117 106 93 94 93 93
3190.0 81 58 62 69 59 52 58 56 44 37
3230.0 41 45 42 44 36 39 52 47 34 31
3270.0 25 20 25 24 34 41 33 38 27 17
3310.0 16 16 24 31 37 39 48 67 61 42
3350.0 49 70 90 101 106 113 130 149 169 182
3390.0 187 181 172 154 130 124 114 101 104 93
3430.0 70 64 59 67 53 27 31 42 45 43
3470.0 34 23 14 19 27 23 28 36 28 18
3510.0 16 6 14 16 10 11 11 22 38 39
3550.0 17 6 12 26 22 18 30 31 22 24
3590.0 28 13 5 24 35 34 40 30 26 34
3630.0 37 24 35 30 10 18 19 19 22 28
3670.0 21 17 21 25 20 11 14 16 12 26
3710.0 29 27 28 30 23 16 19 15 31 46
3750.0 32 29 32 33 27 8 9 36 46 32
3790.0 24 19 29 32 36 51 39 26 37 40
3830.0 46 40 41 55 50
##END=
