##TITLE=2-Acetylbenzoic acid
##JCAMP-DX=4.24
##DATA TYPE=INFRARED SPECTRUM
##ORIGIN=NIST Mass Spectrometry Data Center
##OWNER=NIST Standard Reference Data Program
Collection (C) 2018 copyright by the U.S. Secretary of Commerce
on behalf of the United States of America. All rights reserved.
##CAS REGISTRY NO=577-56-0
##MOLFORM=C 9 H 8 O 3
##$NIST SOURCE=MSDC-IR
##SPECTROMETER/DATA SYSTEM=HP-GC/MS/IRD
##STATE=gas
##XUNITS=1/CM
##YUNITS=ABSORBANCE
##XFACTOR=1.0
##YFACTOR=0.000001200
##DELTAX=4.0
##FIRSTX=550.0
##LASTX=3846.0
##FIRSTY=0.001308
##MAXX=3846
##MINX=550
##MAXY=0.012
##MINY=0
##NPOINTS=825
##XYDATA=(X++(Y..Y))
550.0 1090 1455 1244 1431 1554 1758 1719 1638 1630 1575
590.0 1510 1346 1124 961 799 699 736 847 1109 1453
630.0 1691 1738 1593 1297 940 605 488 481 385 322
670.0 347 477 683 891 1231 1578 1685 1789 1889 1890
710.0 1880 1722 1536 1369 1144 985 941 969 1117 1492
750.0 1992 2639 3047 2919 2447 1815 1274 879 617 477
790.0 437 384 300 238 180 134 146 140 143 118
830.0 109 128 109 95 147 172 153 151 150 166
870.0 204 237 261 324 428 542 754 1030 1357 1693
910.0 2024 2265 2284 2087 1739 1358 1114 1048 1136 1320
950.0 1508 1570 1443 1232 1019 801 660 587 577 600
990.0 648 796 1064 1467 2008 2601 3059 3213 3078 2742
1030.0 2290 1974 1888 2050 2382 2672 2860 2901 2786 2611
1070.0 2468 2426 2548 2805 3100 3420 3710 3854 3791 3559
1110.0 3276 3051 2905 2857 2848 2849 2827 2747 2654 2641
1150.0 2734 2976 3235 3418 3622 3908 4220 4546 4719 4599
1190.0 4220 3666 3074 2644 2440 2367 2338 2350 2425 2597
1230.0 2951 3484 4031 4476 4675 4520 4118 3732 3489 3397
1270.0 3397 3379 3266 3065 2835 2586 2319 2049 1864 1758
1310.0 1698 1704 1778 1943 2191 2488 2849 3257 3659 3984
1350.0 4151 4112 3895 3528 3118 2739 2434 2218 2074 1919
1390.0 1699 1450 1198 960 813 723 654 619 603 598
1430.0 598 597 616 651 647 648 667 667 679 678
1470.0 654 618 549 474 422 355 287 244 196 174
1510.0 169 163 155 160 172 178 182 201 232 246
1550.0 277 325 367 426 494 549 580 573 529 481
1590.0 489 523 530 516 470 402 319 258 223 211
1630.0 226 248 273 293 318 334 352 376 406 452
1670.0 520 623 746 887 1057 1249 1476 1796 2232 2798
1710.0 3478 4118 4564 4614 4273 3810 3454 3353 3682 4632
1750.0 6284 8162 9532 10000 9415 7848 5933 4613 4160 4251
1790.0 4863 6165 7737 8988 9545 9256 7885 5811 3925 2691
1830.0 1992 1602 1358 1182 1027 891 760 640 538 444
1870.0 372 335 314 304 298 287 281 279 281 273
1910.0 271 295 319 344 380 391 373 356 327 291
1950.0 271 263 266 275 264 238 225 207 188 179
1990.0 175 178 180 173 176 186 181 189 200 200
2030.0 194 190 190 177 156 139 136 132 126 137
2070.0 141 138 146 140 136 152 156 145 139 154
2110.0 163 152 143 157 158 157 156 143 141 140
2150.0 139 136 150 154 135 117 104 99 97 101
2190.0 106 96 78 55 35 21 4 0 4 32
2230.0 60 70 66 65 79 92 91 95 109 115
2270.0 118 120 122 131 130 136 150 154 160 161
2310.0 156 170 181 174 171 162 170 172 167 179
2350.0 167 159 154 142 152 159 148 137 129 126
2390.0 132 128 119 119 123 123 131 131 134 141
2430.0 133 122 142 159 154 152 140 134 130 135
2470.0 139 137 133 112 111 110 109 118 123 111
2510.0 103 124 118 103 93 100 117 124 140 126
2550.0 112 108 99 113 117 115 124 127 121 116
2590.0 108 104 108 108 102 114 114 126 137 116
2630.0 101 106 130 140 139 151 132 114 125 122
2670.0 118 131 148 140 137 135 115 105 96 98
2710.0 124 132 134 115 99 120 124 109 108 93
2750.0 104 120 108 118 117 102 92 111 132 127
2790.0 127 119 123 114 106 122 112 109 128 141
2830.0 133 122 132 141 143 159 159 146 146 155
2870.0 172 160 136 143 141 129 137 140 165 178
2910.0 171 168 169 210 242 259 297 321 305 306
2950.0 317 301 272 216 194 217 254 293 323 389
2990.0 494 599 675 722 691 597 530 478 411 384
3030.0 390 381 410 456 516 562 614 683 758 861
3070.0 996 1086 1108 1065 921 731 575 481 396 322
3110.0 275 233 195 175 154 151 164 175 169 153
3150.0 162 147 117 115 122 122 116 128 117 106
3190.0 122 116 100 130 159 139 119 104 132 162
3230.0 122 90 95 118 131 131 154 176 145 124
3270.0 131 127 121 139 146 127 124 131 121 128
3310.0 127 119 126 137 127 113 131 139 114 131
3350.0 154 142 138 132 136 134 133 152 171 144
3390.0 151 191 210 206 189 209 223 225 216 213
3430.0 222 226 225 223 221 237 228 230 213 202
3470.0 206 207 238 266 263 243 252 263 240 212
3510.0 169 142 162 207 216 243 302 301 330 382
3550.0 440 544 748 1162 1828 2630 3272 3460 3154 2501
3590.0 1729 1141 781 609 555 530 621 789 921 1118
3630.0 1066 834 694 493 369 348 331 285 264 286
3670.0 268 228 231 226 197 199 219 225 237 229
3710.0 203 206 175 171 207 183 152 176 195 197
3750.0 205 196 197 183 171 212 212 176 151 147
3790.0 179 191 187 171 177 199 197 201 176 174
3830.0 181 138 134 154 162
##END=
