##TITLE=Ethyl 2-(trifluoromethylbenzoate
##JCAMP-DX=4.24
##DATA TYPE=INFRARED SPECTRUM
##ORIGIN=EPA-IR VAPOR PHASE LIBRARY
##OWNER=SRD/NIST
Collection (C) 2018 copyright by the U.S. Secretary of Commerce
on behalf of the United States of America. All rights reserved.
##CAS REGISTRY NO=577-62-8
##MOLFORM=C 10 H 9 F 3 O 2
##$NIST SOURCE=MSDC-IR
##STATE=gas
##XUNITS=1/CM
##YUNITS=ABSORBANCE
##XFACTOR=1.
##YFACTOR=0.001
##DELTAX=1.929
##FIRSTX=549.8
##LASTX=4000.8
##FIRSTY=1.1745
##MAXX=4000.75
##MINX=549.766
##MAXY=0.149547
##MINY=0
##NPOINTS=1790
##XYDATA=(X++(Y..Y))
549.766 1.1745 1.1324 1.2015 1.1434 1.0146 1.2496 1.4794 1.1727 1.0887 1.0232
569.056 0.93968 0.9913 1.1004 1.2344 1.2811 1.407 1.385 1.3568 1.4133 1.8162
588.346 2.187 2.387 2.727 3.127 3.317 3.287 3.257 2.977 2.547 2.157
607.636 1.877 1.6964 1.6767 1.4071 1.0635 1.0513 0.9993 0.8372 0.7886 0.91831
626.926 0.9858 0.9587 1.0317 1.2591 1.5683 2.077 2.717 3.467 4.267 4.647
646.216 4.777 5.027 5.007 4.437 3.577 2.637 2.067 1.8044 1.5951 1.4817
665.506 1.5867 1.6815 1.937 2.537 3.187 4.097 5.597 7.157 8.057 8.747
684.796 9.017 8.747 8.257 7.377 6.177 4.997 4.207 3.907 3.597 3.417
704.086 3.487 3.647 4.087 4.407 4.747 5.327 5.987 6.687 7.367 8.107
723.376 8.487 8.477 8.307 7.997 7.617 7.127 6.627 6.217 5.857 5.547
742.666 5.597 5.907 6.227 7.027 8.317 10.207 12.957 16.177 19.297 22.257
761.956 25.627 29.647 30.827 26.847 22.317 19.387 16.437 13.347 10.447 8.047
781.246 6.557 5.647 5.067 4.677 4.267 3.907 3.577 3.267 2.967 2.747
800.536 2.527 2.307 2.097 1.937 1.887 1.7452 1.8516 1.967 1.7575 1.7276
819.826 1.7426 1.7714 1.8291 1.8482 1.8252 1.8218 1.997 2.127 2.327 2.617
839.116 2.837 2.987 3.257 3.637 4.027 4.337 4.657 4.877 4.917 5.137
858.406 5.227 5.047 4.867 4.667 4.437 4.117 3.837 3.697 3.497 3.267
877.696 3.037 2.847 2.727 2.657 2.477 2.347 2.277 2.137 1.897 1.6346
896.986 1.504 1.4676 1.4135 1.3621 1.3533 1.3307 1.3107 1.2626 1.1317 1.0371
916.276 1.1511 1.2749 1.1944 1.2112 1.291 1.3125 1.3801 1.2884 1.2282 1.2531
935.566 1.2922 1.4102 1.5286 1.6277 1.6835 1.8102 2.007 2.167 2.367 2.667
954.856 2.937 2.957 2.897 2.737 2.507 2.307 2.217 2.227 2.187 2.127
974.146 2.097 2.137 2.247 2.387 2.567 2.807 2.987 3.227 3.447 3.627
993.436 3.897 4.307 4.817 5.327 5.907 6.527 7.167 7.897 8.657 9.417
1012.726 10.107 10.617 11.117 11.637 12.387 13.607 15.357 17.847 21.117 24.627
1032.016 28.057 31.097 33.697 36.157 38.877 42.167 46.127 50.797 55.327 58.797
1051.306 60.647 60.517 57.907 52.717 45.227 36.017 27.037 20.227 15.807 13.017
1070.596 11.337 10.487 10.087 10.067 10.397 10.917 11.757 12.927 14.447 16.307
1089.886 18.647 21.727 25.507 29.917 34.827 40.217 45.867 51.297 56.017 59.857
1109.176 62.537 63.817 63.867 62.767 60.687 57.977 54.907 51.807 48.947 46.457
1128.467 44.577 43.307 42.647 42.977 44.287 46.727 50.577 55.787 62.357 70.117
1147.757 78.617 87.487 96.247 104.197 110.607 114.687 116.517 117.117 118.087 120.567
1167.047 124.737 130.307 135.857 139.387 139.227 134.377 125.027 112.337 97.687 82.287
1186.337 67.557 54.697 44.227 36.217 30.187 25.597 22.247 19.737 17.797 16.407
1205.627 15.407 14.647 14.167 13.927 13.817 13.877 13.997 14.237 14.707 15.257
1224.917 15.987 16.937 18.167 19.657 21.417 23.487 26.057 29.217 32.977 37.537
1244.207 42.967 49.387 56.887 65.227 74.157 83.257 91.597 98.257 102.707 104.577
1263.497 103.607 100.267 95.217 89.317 83.807 79.817 78.007 78.267 80.087 83.047
1282.787 86.477 89.637 92.107 93.477 93.587 92.677 91.057 89.467 88.827 90.177
1302.077 94.457 102.147 112.897 125.447 137.267 145.817 149.547 147.587 139.697 126.047
1321.367 107.577 86.677 66.597 49.697 36.977 28.187 22.297 18.307 15.477 13.407
1340.657 11.877 10.727 9.877 9.227 8.797 8.537 8.367 8.427 8.767 9.347
1359.947 10.287 11.587 12.997 14.147 14.847 15.067 14.727 13.877 12.677 11.077
1379.237 9.327 7.907 6.947 6.357 5.977 5.757 5.637 5.527 5.457 5.377
1398.527 5.227 5.117 5.027 4.847 4.697 4.567 4.467 4.397 4.327 4.267
1417.817 4.157 4.087 4.087 4.097 4.117 4.157 4.227 4.347 4.507 4.697
1437.107 4.977 5.317 5.697 6.117 6.497 6.797 6.957 6.997 6.927 6.707
1456.397 6.417 6.177 6.017 5.967 5.937 5.977 6.097 6.207 6.247 6.197
1475.687 6.077 5.907 5.627 5.267 4.977 4.817 4.647 4.427 4.307 4.177
1494.977 4.087 3.977 3.797 3.597 3.317 3.097 2.857 2.747 2.697 2.547
1514.267 2.477 2.437 2.367 2.297 2.317 2.367 2.347 2.337 2.327 2.277
1533.557 2.217 2.237 2.227 2.137 2.127 2.137 2.137 2.157 2.167 2.117
1552.847 2.047 2.037 2.097 2.157 2.267 2.417 2.577 2.757 2.977 3.297
1572.137 3.727 4.177 4.617 5.037 5.387 5.627 5.647 5.477 5.187 4.767
1591.427 4.357 3.967 3.557 3.267 3.197 3.247 3.317 3.327 3.237 3.147
1610.717 3.067 2.907 2.677 2.447 2.257 2.167 2.077 2.007 1.987 1.987
1630.007 2.067 2.117 2.147 2.217 2.217 2.207 2.317 2.377 2.377 2.407
1649.297 2.427 2.397 2.367 2.417 2.467 2.467 2.477 2.517 2.547 2.597
1668.587 2.637 2.697 2.747 2.787 2.817 2.867 2.967 3.097 3.237 3.377
1687.877 3.587 3.787 3.967 4.147 4.427 4.757 5.057 5.507 5.957 6.447
1707.167 6.967 7.527 8.177 8.847 9.657 10.597 11.637 12.777 14.067 15.557
1726.457 17.347 19.497 22.207 25.477 29.607 34.457 39.827 45.997 52.387 58.837
1745.747 64.847 70.027 73.777 75.637 75.447 73.277 69.287 64.007 57.627 50.717
1765.037 43.827 37.137 30.907 25.537 20.987 17.387 14.557 12.417 10.707 9.237
1784.327 8.047 7.037 6.187 5.527 4.987 4.517 4.187 3.907 3.597 3.367
1803.617 3.267 3.107 2.957 2.907 2.857 2.747 2.637 2.587 2.557 2.557
1822.907 2.527 2.457 2.467 2.457 2.417 2.447 2.457 2.427 2.307 2.167
1842.197 2.057 2.007 1.987 1.877 1.7699 1.7191 1.6857 1.6871 1.6305 1.5477
1861.487 1.5355 1.5804 1.5721 1.5284 1.5248 1.4942 1.4522 1.4102 1.3924 1.3579
1880.777 1.3274 1.3251 1.2846 1.2627 1.2754 1.2435 1.189 1.1966 1.2755 1.2632
1900.067 1.1675 1.1802 1.2599 1.2654 1.2388 1.3002 1.3694 1.3369 1.3043 1.3253
1919.357 1.3273 1.3021 1.3672 1.4688 1.5505 1.6856 1.7807 1.877 1.987 2.037
1938.647 2.117 2.047 1.857 1.7685 1.7017 1.605 1.5295 1.4746 1.4556 1.5232
1957.937 1.5924 1.6471 1.7057 1.7068 1.7151 1.7333 1.7075 1.656 1.5657 1.4911
1977.227 1.3686 1.2559 1.1892 1.0943 1.0552 1.0039 0.9591 0.93841 0.89195 0.859071
1996.517 0.8282 0.7914 0.7692 0.749 0.731 0.691 0.661 0.699 0.703 0.647
2015.807 0.634 0.666 0.701 0.713 0.702 0.722 0.702 0.646 0.616 0.611
2035.097 0.63 0.633 0.615 0.646 0.678 0.654 0.677 0.69 0.662 0.655
2054.387 0.672 0.693 0.721 0.725 0.694 0.722 0.757 0.746 0.7861 0.84
2073.677 0.88233 0.93393 0.93176 0.93997 0.93736 0.92045 0.89803 0.89318 0.90528 0.8778
2092.967 0.861722 0.88919 0.88551 0.88223 0.91642 0.92537 0.93753 0.92657 0.91011 0.91189
2112.257 0.90429 0.88259 0.94167 0.94333 0.89812 0.88681 0.847 0.85266 0.8186 0.8163
2131.547 0.8092 0.795 0.7991 0.7764 0.752 0.699 0.747 0.7892 0.7645 0.744
2150.837 0.727 0.714 0.694 0.688 0.644 0.638 0.675 0.694 0.689 0.652
2170.127 0.654 0.645 0.624 0.626 0.624 0.589 0.63 0.691 0.649 0.631
2189.417 0.62 0.618 0.609 0.588 0.656 0.673 0.62 0.676 0.734 0.681
2208.707 0.602 0.629 0.666 0.675 0.697 0.684 0.706 0.712 0.748 0.7893
2227.997 0.8126 0.8147 0.7695 0.8225 0.8265 0.7641 0.7774 0.7811 0.747 0.747
2247.287 0.7661 0.777 0.7776 0.8011 0.864425 0.8681 0.86793 0.91029 0.85191 0.804
2266.577 0.832 0.8057 0.8237 0.8554 0.87409 0.866234 0.84726 0.87514 0.88987 0.89914
2285.868 0.90834 0.89705 0.87621 0.88869 0.85432 0.8141 0.84955 0.88481 0.8801 0.8311
2305.158 0.825 0.85244 0.8446 0.8465 0.87126 0.8235 0.747 0.709 0.717 0.7591
2324.448 0.8171 0.8308 0.8285 0.93562 1.0027 1.0151 1.0438 1.0206 0.95469 0.93387
2343.738 0.93725 0.92657 0.8409 0.7643 0.823 0.84777 0.8084 0.736 0.698 0.713
2363.028 0.686 0.696 0.715 0.696 0.72 0.722 0.704 0.721 0.731 0.737
2382.318 0.749 0.729 0.715 0.723 0.749 0.698 0.659 0.731 0.744 0.729
2401.608 0.7754 0.7795 0.693 0.688 0.755 0.7777 0.706 0.699 0.729 0.68
2420.898 0.657 0.681 0.691 0.658 0.636 0.591 0.606 0.599 0.581 0.589
2440.188 0.54 0.541 0.542 0.522 0.503 0.489 0.477 0.499 0.554 0.592
2459.478 0.582 0.513 0.48 0.492 0.53 0.571 0.533 0.553 0.58 0.59
2478.768 0.653 0.624 0.608 0.631 0.6 0.562 0.543 0.529 0.496 0.519
2498.058 0.544 0.498 0.499 0.538 0.491 0.427 0.481 0.501 0.454 0.404
2517.348 0.379 0.389 0.368 0.338 0.33 0.36 0.395 0.382 0.377 0.388
2536.638 0.348 0.369 0.382 0.393 0.401 0.366 0.408 0.468 0.449 0.395
2555.928 0.372 0.337 0.339 0.398 0.436 0.452 0.429 0.417 0.407 0.358
2575.218 0.342 0.358 0.402 0.371 0.337 0.37 0.34 0.363 0.425 0.395
2594.508 0.415 0.383 0.378 0.471 0.439 0.466 0.455 0.399 0.444 0.394
2613.798 0.367 0.411 0.41 0.448 0.492 0.51 0.526 0.485 0.402 0.359
2633.088 0.399 0.422 0.384 0.362 0.306 0.224 0.191 0.199 0.209 0.234
2652.378 0.294 0.311 0.35 0.272 0.235 0.282 0.279 0.29 0.294 0.302
2671.668 0.29 0.312 0.258 0.226 0.206 0.235 0.312 0.237 0.227 0.281
2690.958 0.286 0.257 0.253 0.25 0.31 0.313 0.262 0.301 0.313 0.331
2710.248 0.289 0.265 0.271 0.242 0.252 0.325 0.39 0.363 0.339 0.366
2729.538 0.371 0.394 0.36 0.34 0.434 0.413 0.321 0.334 0.313 0.29
2748.828 0.334 0.365 0.321 0.379 0.468 0.421 0.425 0.389 0.411 0.559
2768.118 0.632 0.644 0.599 0.535 0.564 0.528 0.52 0.595 0.565 0.539
2787.408 0.573 0.572 0.483 0.415 0.5 0.602 0.564 0.528 0.579 0.658
2806.698 0.718 0.719 0.658 0.641 0.62 0.598 0.573 0.579 0.684 0.755
2825.988 0.8335 0.858611 0.8282 0.8558 0.8418 0.8421 0.88111 0.837 0.7663 0.8117
2845.278 0.9624 0.94219 0.86703 0.9644 1.0754 1.1429 1.2164 1.2727 1.3272 1.3493
2864.568 1.3971 1.5421 1.6351 1.6852 1.8041 1.997 2.187 2.367 2.577 2.747
2883.858 2.947 3.117 3.257 3.357 3.287 3.307 3.317 3.307 3.407 3.577
2903.148 3.587 3.557 3.737 3.957 4.087 4.067 4.167 4.247 4.117 4.077
2922.438 4.027 4.007 4.177 4.327 4.517 4.797 5.227 5.797 6.467 7.107
2941.728 7.697 8.127 8.237 8.167 7.987 7.687 7.207 6.687 6.417 6.337
2961.018 6.367 6.577 6.947 7.397 7.917 8.427 9.047 9.797 10.757 11.967
2980.308 13.167 14.217 15.027 15.547 15.687 15.367 14.647 13.737 12.637 11.407
2999.598 10.317 9.527 8.817 8.197 7.677 7.037 6.507 6.037 5.487 4.887
3018.888 4.447 4.137 3.797 3.557 3.437 3.177 2.897 2.677 2.647 2.777
3038.178 2.787 2.727 2.627 2.497 2.407 2.317 2.357 2.417 2.267 2.237
3057.468 2.377 2.537 2.827 3.197 3.567 4.027 4.547 5.017 5.457 5.887
3076.758 6.317 6.617 6.647 6.597 6.407 6.007 5.457 4.797 4.127 3.417
3096.048 2.757 2.237 1.867 1.5371 1.3428 1.3289 1.1821 1.0172 1.0288 1.0633
3115.338 1.0777 1.0689 0.9765 0.92679 0.87906 0.755 0.642 0.615 0.563 0.471
3134.628 0.479 0.525 0.544 0.576 0.606 0.716 0.7983 0.703 0.581 0.514
3153.918 0.621 0.7907 0.7753 0.727 0.8192 0.7579 0.684 0.712 0.638 0.621
3173.208 0.565 0.574 0.598 0.536 0.544 0.49 0.435 0.471 0.573 0.593
3192.498 0.492 0.465 0.476 0.371 0.266 0.399 0.448 0.401 0.376 0.398
3211.788 0.453 0.399 0.329 0.295 0.184 0.241 0.395 0.243 0.17 0.264
3231.078 0.291 0.222 0.26 0.273 0.117 0.118 0.221 0.261 0.275 0.261
3250.368 0.271 0.135 0.118 0.202 0.146 0.152 0.179 0.249 0.332 0.218
3269.658 0 0.046 0.15 0.225 0.327 0.345 0.193 0.146 0.286 0.269
3288.948 0.168 0.168 0.221 0.185 0.172 0.232 0.184 0.143 0.16 0.189
3308.238 0.173 0.24 0.387 0.283 0.242 0.371 0.37 0.32 0.263 0.319
3327.528 0.378 0.321 0.325 0.386 0.377 0.291 0.279 0.279 0.322 0.363
3346.818 0.374 0.289 0.247 0.331 0.369 0.298 0.322 0.421 0.313 0.263
3366.108 0.302 0.363 0.373 0.262 0.311 0.293 0.143 0.148 0.243 0.216
3385.398 0.283 0.367 0.285 0.271 0.231 0.275 0.276 0.237 0.31 0.379
3404.688 0.266 0.253 0.348 0.422 0.556 0.397 0.323 0.35 0.177 0.178
3423.978 0.371 0.437 0.499 0.585 0.546 0.58 0.559 0.498 0.532 0.448
3443.269 0.366 0.427 0.525 0.501 0.432 0.413 0.418 0.449 0.548 0.659
3462.559 0.651 0.605 0.668 0.7586 0.668 0.614 0.716 0.66 0.658 0.859161
3481.849 0.89698 0.743 0.7678 0.89454 0.7727 0.89451 0.94951 0.725 0.68 0.754
3501.139 0.8163 0.735 0.685 0.656 0.629 0.69 0.652 0.523 0.501 0.485
3520.429 0.435 0.377 0.364 0.37 0.535 0.535 0.319 0.311 0.349 0.33
3539.719 0.337 0.354 0.394 0.283 0.201 0.299 0.336 0.346 0.295 0.284
3559.009 0.309 0.227 0.175 0.241 0.295 0.406 0.384 0.169 0.173 0.284
3578.299 0.268 0.314 0.397 0.39 0.458 0.386 0.275 0.234 0.152 0.283
3597.589 0.324 0.348 0.373 0.22 0.23 0.337 0.402 0.362 0.32 0.237
3616.879 0.263 0.36 0.252 0.254 0.267 0.2 0.255 0.275 0.218 0.217
3636.169 0.329 0.339 0.247 0.232 0.222 0.383 0.456 0.389 0.42 0.429
3655.459 0.395 0.466 0.423 0.285 0.382 0.359 0.257 0.258 0.253 0.285
3674.749 0.312 0.35 0.418 0.487 0.424 0.285 0.261 0.475 0.604 0.619
3694.039 0.567 0.493 0.479 0.39 0.453 0.553 0.562 0.434 0.294 0.249
3713.329 0.295 0.449 0.489 0.479 0.481 0.47 0.435 0.394 0.348 0.329
3732.619 0.292 0.298 0.394 0.389 0.418 0.456 0.548 0.622 0.434 0.254
3751.909 0.41 0.549 0.422 0.34 0.451 0.613 0.606 0.565 0.632 0.615
3771.199 0.544 0.528 0.421 0.439 0.556 0.507 0.405 0.368 0.396 0.299
3790.489 0.244 0.325 0.36 0.328 0.28 0.348 0.468 0.419 0.329 0.353
3809.779 0.322 0.336 0.459 0.437 0.413 0.44 0.355 0.324 0.483 0.568
3829.069 0.427 0.295 0.34 0.53 0.612 0.486 0.391 0.45 0.526 0.51
3848.359 0.443 0.469 0.452 0.334 0.356 0.506 0.489 0.298 0.277 0.3
3867.649 0.207 0.337 0.496 0.417 0.371 0.31 0.325 0.44 0.545 0.544
3886.939 0.383 0.242 0.196 0.226 0.436 0.606 0.646 0.604 0.327 0.37
3906.229 0.531 0.466 0.527 0.486 0.284 0.192 0.242 0.368 0.403 0.318
3925.519 0.299 0.285 0.368 0.528 0.523 0.313 0.314 0.442 0.459 0.424
3944.809 0.465 0.513 0.495 0.55 0.391 0.308 0.341 0.31 0.487 0.61
3964.099 0.339 0.221 0.346 0.372 0.344 0.248 0.232 0.353 0.437 0.545
3983.389 0.515 0.233 0.118 0.266 0.454 0.431 0.403 0.441 0.442 0.395
##END=
