##TITLE=6-Tridecanol
##JCAMP-DX=4.24
##DATA TYPE=INFRARED SPECTRUM
##ORIGIN=NIST Mass Spectrometry Data Center
##OWNER=NIST Standard Reference Data Program
Collection (C) 2018 copyright by the U.S. Secretary of Commerce
on behalf of the United States of America. All rights reserved.
##CAS REGISTRY NO=5770-03-6
##MOLFORM=C 13 H 28 O
##$NIST SOURCE=MSDC-IR
##SPECTROMETER/DATA SYSTEM=HP-GC/MS/IRD
##STATE=gas
##XUNITS=1/CM
##YUNITS=ABSORBANCE
##XFACTOR=1.0
##YFACTOR=0.000005000
##DELTAX=4.0
##FIRSTX=550.0
##LASTX=3846.0
##FIRSTY=0.000600
##MAXX=3846
##MINX=550
##MAXY=0.05
##MINY=0
##NPOINTS=825
##XYDATA=(X++(Y..Y))
550.0 120 97 48 45 61 58 43 16 26 51
590.0 61 39 13 12 16 15 16 21 15 6
630.0 19 18 0 5 12 10 9 13 26 18
670.0 11 24 29 32 42 59 49 37 55 75
710.0 87 93 124 140 132 128 119 115 110 90
750.0 82 82 76 75 81 86 79 64 54 48
790.0 56 68 80 92 77 67 75 82 114 106
830.0 79 84 83 83 80 79 82 82 83 96
870.0 110 113 119 132 140 145 156 165 161 167
910.0 175 174 183 196 216 236 251 268 283 289
950.0 290 289 292 305 318 323 331 348 371 398
990.0 416 427 440 454 465 472 476 483 490 498
1030.0 516 545 567 578 581 572 562 541 516 494
1070.0 472 459 451 430 405 391 380 376 375 382
1110.0 401 418 430 450 466 461 436 388 328 282
1150.0 248 235 238 242 244 247 257 267 282 291
1190.0 294 296 301 308 313 324 335 337 345 357
1230.0 366 382 392 392 396 397 393 387 385 383
1270.0 373 354 349 349 341 336 330 324 328 327
1310.0 316 304 300 300 304 326 351 384 416 439
1350.0 462 484 504 525 548 571 598 633 650 627
1390.0 566 500 437 382 335 299 273 261 266 286
1430.0 323 374 439 513 589 686 777 855 887 852
1470.0 752 608 472 359 275 214 175 153 133 112
1510.0 99 86 75 69 62 61 58 48 44 44
1550.0 42 38 36 35 32 28 26 27 31 30
1590.0 24 24 26 26 29 25 20 18 21 24
1630.0 18 13 16 20 20 15 17 20 16 16
1670.0 18 15 15 14 9 13 9 1 4 12
1710.0 15 12 10 14 17 15 12 12 16 15
1750.0 11 10 8 9 12 11 13 10 7 9
1790.0 6 9 10 7 7 6 4 6 7 10
1830.0 11 14 13 12 12 12 11 12 12 12
1870.0 11 11 13 11 12 8 7 10 9 7
1910.0 8 8 6 8 6 5 7 10 7 8
1950.0 9 6 5 8 5 2 3 4 3 5
1990.0 6 5 5 7 7 8 11 14 15 15
2030.0 17 17 16 14 12 14 13 6 5 6
2070.0 6 4 6 6 4 3 4 5 4 2
2110.0 5 7 9 6 4 7 7 3 4 7
2150.0 5 6 9 9 7 4 2 4 6 5
2190.0 8 9 9 8 6 6 3 7 7 3
2230.0 1 1 6 9 12 11 10 11 12 13
2270.0 9 8 7 8 11 13 13 13 12 15
2310.0 17 15 16 16 15 19 20 19 18 20
2350.0 24 29 28 26 26 26 22 20 17 11
2390.0 14 17 17 19 18 16 16 14 15 16
2430.0 14 15 16 19 18 16 14 13 15 17
2470.0 17 19 17 16 18 20 19 17 19 23
2510.0 21 23 29 30 33 34 32 31 36 39
2550.0 42 48 46 43 46 45 46 48 48 54
2590.0 58 54 53 56 62 68 72 76 76 76
2630.0 78 82 88 91 96 100 103 111 113 118
2670.0 126 129 128 127 126 126 127 123 121 125
2710.0 127 124 129 136 142 147 149 157 169 176
2750.0 179 180 178 181 185 189 206 219 230 247
2790.0 264 283 306 335 363 400 443 497 559 626
2830.0 712 836 1006 1233 1545 1979 2532 3126 3611 3863
2870.0 3851 3667 3468 3310 3134 2958 2895 3016 3315 3766
2910.0 4349 5059 5949 7071 8337 9442 10000 9794 8903 7617
2950.0 6336 5424 5005 4958 4962 4624 3833 2882 2117 1608
2990.0 1271 1041 864 733 640 563 504 448 405 366
3030.0 332 305 275 251 235 216 198 184 177 170
3070.0 160 149 145 143 138 131 120 111 105 103
3110.0 98 96 96 90 86 85 77 74 74 72
3150.0 71 66 61 63 59 58 59 52 47 48
3190.0 49 50 44 34 37 36 33 30 24 22
3230.0 24 24 23 21 22 22 14 10 17 19
3270.0 11 7 15 16 12 11 14 14 12 14
3310.0 18 13 16 23 19 17 10 8 14 13
3350.0 16 22 15 11 16 15 18 18 21 21
3390.0 15 17 17 20 26 20 17 21 18 17
3430.0 21 16 16 17 19 21 16 9 3 5
3470.0 5 10 18 17 12 3 3 11 11 9
3510.0 3 1 9 10 9 12 16 15 4 3
3550.0 9 5 4 5 7 4 1 6 12 13
3590.0 13 11 17 20 19 27 33 40 60 77
3630.0 91 112 139 175 227 281 298 275 214 157
3670.0 112 74 56 54 47 37 32 30 26 23
3710.0 24 22 17 18 21 17 12 18 17 8
3750.0 3 5 17 20 19 22 27 23 22 26
3790.0 26 23 18 13 15 19 14 10 19 23
3830.0 23 21 18 23 27
##END=
