##TITLE=1-Phenyl-1-nonyne
##JCAMP-DX=4.24
##DATA TYPE=INFRARED SPECTRUM
##ORIGIN=NIST Mass Spectrometry Data Center
##OWNER=NIST Standard Reference Data Program
Collection (C) 2018 copyright by the U.S. Secretary of Commerce
on behalf of the United States of America. All rights reserved.
##CAS REGISTRY NO=57718-18-0
##MOLFORM=C 15 H 20
##$NIST SOURCE=MSDC-IR
##SPECTROMETER/DATA SYSTEM=HP-GC/MS/IRD
##STATE=gas
##XUNITS=1/CM
##YUNITS=ABSORBANCE
##XFACTOR=1.0
##YFACTOR=0.000003300
##DELTAX=4.0
##FIRSTX=550.0
##LASTX=3846.0
##FIRSTY=0.000340
##MAXX=3846
##MINX=550
##MAXY=0.033
##MINY=0
##NPOINTS=825
##XYDATA=(X++(Y..Y))
550.0 103 132 127 105 84 63 47 34 36 39
590.0 41 49 55 80 90 91 80 70 76 85
630.0 86 81 89 91 101 153 206 253 338 466
670.0 608 783 996 1209 1417 1501 1402 1250 1069 875
710.0 730 636 569 566 637 762 951 1211 1503 1752
750.0 1966 2019 1824 1535 1242 935 657 444 301 217
790.0 171 154 134 110 111 116 111 90 82 99
830.0 98 102 95 88 102 106 103 112 110 109
870.0 116 122 127 131 138 143 157 187 218 233
910.0 228 209 198 182 153 137 118 99 87 79
950.0 76 74 76 76 74 79 86 86 89 102
990.0 116 121 143 167 195 233 263 285 315 340
1030.0 314 241 177 164 169 183 213 225 231 238
1070.0 225 194 171 154 138 126 109 94 95 100
1110.0 97 81 68 47 25 13 13 23 16 9
1150.0 8 3 8 11 11 17 16 15 16 15
1190.0 13 13 22 32 34 39 45 42 41 45
1230.0 60 78 83 102 129 148 171 188 203 213
1270.0 222 236 251 278 309 335 359 375 388 416
1310.0 450 495 568 672 790 857 835 756 692 670
1350.0 656 614 553 500 461 413 372 354 340 312
1390.0 271 226 200 191 190 206 231 266 329 433
1430.0 597 795 934 956 911 895 919 949 951 917
1470.0 868 849 935 1219 1620 1813 1567 1088 736 546
1510.0 388 273 205 165 138 126 115 104 100 98
1550.0 103 111 126 146 161 184 215 261 331 458
1590.0 635 805 886 808 599 363 195 125 89 70
1630.0 64 58 57 60 63 75 96 114 120 106
1670.0 80 54 41 35 30 25 20 17 19 27
1710.0 32 35 40 51 61 72 75 69 63 60
1750.0 61 56 46 39 37 41 52 64 77 97
1790.0 114 118 105 80 68 65 65 62 51 35
1830.0 28 31 30 30 31 37 45 52 64 75
1870.0 89 100 112 124 120 94 61 40 31 28
1910.0 30 33 46 63 69 83 96 101 107 120
1950.0 136 137 113 76 45 27 18 10 7 7
1990.0 1 0 1 6 8 9 11 10 10 12
2030.0 13 14 16 14 13 14 13 11 7 6
2070.0 6 3 1 3 6 2 3 7 5 3
2110.0 4 2 11 15 18 12 2 6 12 8
2150.0 11 21 19 17 19 16 18 26 34 45
2190.0 49 50 65 86 108 129 151 168 181 189
2230.0 186 181 163 134 108 86 65 60 51 38
2270.0 41 38 30 29 28 29 29 27 28 33
2310.0 39 40 35 31 31 34 30 28 33 31
2350.0 24 28 29 27 21 15 17 20 12 4
2390.0 8 14 7 6 15 18 12 11 15 20
2430.0 16 13 8 7 8 10 15 15 15 20
2470.0 22 20 20 18 23 27 23 19 20 26
2510.0 27 22 26 30 31 28 32 45 48 38
2550.0 29 31 35 35 33 39 42 43 51 46
2590.0 43 54 55 55 65 68 67 64 64 72
2630.0 82 89 88 92 96 101 104 107 112 114
2670.0 110 108 117 116 105 104 107 99 99 105
2710.0 100 99 102 107 113 125 134 142 150 148
2750.0 140 137 154 162 164 165 167 181 197 211
2790.0 233 255 274 300 330 362 402 447 495 560
2830.0 650 765 930 1156 1451 1828 2280 2801 3279 3547
2870.0 3514 3259 2983 2774 2612 2480 2449 2584 2898 3366
2910.0 3927 4550 5306 6272 7436 8669 9654 10000 9485 8242
2950.0 6729 5491 4784 4521 4400 4071 3412 2619 1947 1499
2990.0 1210 1025 900 798 724 693 687 689 713 762
3030.0 838 930 964 910 825 800 905 1115 1354 1556
3070.0 1589 1424 1209 1079 1025 980 913 815 701 576
3110.0 450 345 263 204 169 154 147 147 142 134
3150.0 134 126 115 114 107 90 87 92 82 69
3190.0 74 81 75 66 66 66 58 63 63 46
3230.0 42 44 47 48 46 50 41 32 40 51
3270.0 51 39 34 42 44 38 36 29 26 24
3310.0 29 38 27 24 39 41 26 17 28 43
3350.0 40 30 22 11 11 16 20 23 29 30
3390.0 32 32 21 27 32 33 34 22 20 35
3430.0 48 56 41 34 34 22 17 16 23 24
3470.0 15 18 28 31 24 8 4 13 22 27
3510.0 28 26 12 11 20 22 15 9 12 12
3550.0 19 20 23 26 22 28 25 21 17 17
3590.0 25 24 25 25 24 27 38 44 43 55
3630.0 60 50 39 47 57 54 45 45 40 41
3670.0 49 43 42 50 64 66 64 53 49 46
3710.0 47 62 56 40 43 47 51 51 49 55
3750.0 55 57 69 75 65 55 53 63 66 60
3790.0 54 60 59 51 57 61 54 47 39 44
3830.0 49 43 50 53 41
##END=
