##TITLE=o-Methylanisole
##JCAMP-DX=4.24
##DATA TYPE=INFRARED SPECTRUM
##ORIGIN=NIST Mass Spectrometry Data Center
##OWNER=NIST Standard Reference Data Program
Collection (C) 2018 copyright by the U.S. Secretary of Commerce
on behalf of the United States of America. All rights reserved.
##CAS REGISTRY NO=578-58-5
##MOLFORM=C 8 H 10 O
##$NIST SOURCE=MSDC-IR
##SPECTROMETER/DATA SYSTEM=HP-GC/MS/IRD
##STATE=gas
##XUNITS=1/CM
##YUNITS=ABSORBANCE
##XFACTOR=1.0
##YFACTOR=0.000004000
##DELTAX=4.0
##FIRSTX=550.0
##LASTX=3846.0
##FIRSTY=0.000248
##MAXX=3846
##MINX=550
##MAXY=0.04
##MINY=0
##NPOINTS=825
##XYDATA=(X++(Y..Y))
550.0 62 118 88 53 45 57 85 113 139 164
590.0 161 150 140 95 63 54 48 41 26 30
630.0 34 26 33 35 21 5 3 17 38 49
670.0 29 26 42 52 83 141 256 408 565 730
710.0 1071 1355 1299 1304 1516 1858 2292 2742 3328 3944
750.0 3925 3370 2807 2226 1689 1227 844 565 401 298
790.0 218 183 184 191 215 276 345 363 360 349
830.0 318 248 173 133 118 107 94 97 103 96
870.0 85 65 49 60 74 65 65 83 88 100
910.0 108 114 139 151 135 122 100 83 103 125
950.0 129 137 171 193 207 269 336 381 429 464
990.0 500 556 608 667 774 943 1160 1428 1748 2088
1030.0 2387 2663 2916 3072 3032 2774 2358 1869 1380 922
1070.0 599 454 393 369 374 398 470 596 818 1188
1110.0 1691 2186 2464 2539 2471 2233 1782 1257 871 690
1150.0 666 724 839 1039 1308 1559 1718 1801 1810 1712
1190.0 1491 1242 1080 1019 1054 1192 1488 2039 2928 4211
1230.0 5825 7573 9084 9931 10000 9266 7853 5974 4031 2682
1270.0 2023 1744 1641 1600 1577 1567 1544 1477 1381 1265
1310.0 1134 985 825 673 550 457 378 307 252 224
1350.0 208 203 209 221 244 279 321 350 361 378
1390.0 385 366 341 339 364 410 488 616 830 1107
1430.0 1381 1612 1776 1888 1973 2039 2159 2429 2749 2915
1470.0 3069 3364 3818 4414 4987 5430 5635 5509 5025 4158
1510.0 3066 2120 1433 973 700 564 498 457 436 435
1550.0 431 432 457 515 608 761 963 1214 1474 1736
1590.0 1985 2147 2132 1911 1586 1267 984 723 511 377
1630.0 300 243 203 177 164 154 140 133 134 140
1670.0 142 130 123 120 110 99 89 75 62 63
1710.0 60 59 62 68 78 86 102 122 137 153
1750.0 160 159 152 144 138 123 118 111 98 90
1790.0 87 92 94 91 85 77 68 67 71 75
1830.0 76 75 80 82 83 79 77 88 109 127
1870.0 140 159 176 177 169 155 136 114 99 102
1910.0 112 114 119 118 117 107 85 69 53 38
1950.0 38 40 48 65 73 84 97 105 114 118
1990.0 115 103 93 78 62 61 63 61 62 72
2030.0 78 88 97 107 121 137 143 147 159 162
2070.0 155 148 128 106 90 75 66 62 52 39
2110.0 27 24 18 14 22 24 18 9 5 10
2150.0 14 19 26 23 17 16 18 18 17 23
2190.0 23 16 18 31 39 42 50 42 43 46
2230.0 38 36 31 26 19 25 33 23 12 13
2270.0 20 24 25 26 18 19 27 21 20 26
2310.0 31 36 31 33 30 24 23 16 16 13
2350.0 9 12 6 0 0 0 0 0 1 6
2390.0 10 14 19 30 36 37 44 46 43 44
2430.0 39 27 17 26 31 30 32 28 29 33
2470.0 49 61 64 70 71 56 49 52 42 24
2510.0 21 32 39 45 54 61 63 68 67 58
2550.0 53 56 58 55 53 52 48 51 51 40
2590.0 32 35 32 26 31 33 29 28 20 5
2630.0 0 8 20 16 9 15 11 6 5 1
2670.0 1 10 16 18 18 21 29 36 34 32
2710.0 34 47 58 59 64 69 78 82 78 79
2750.0 83 81 82 82 80 81 80 94 117 128
2790.0 142 175 204 233 267 317 377 458 573 727
2830.0 953 1197 1384 1478 1525 1522 1417 1259 1139 1079
2870.0 1066 1090 1113 1147 1200 1246 1296 1373 1488 1644
2910.0 1820 2015 2226 2413 2610 2836 3058 3249 3379 3402
2950.0 3320 3198 3032 2717 2363 2110 1939 1828 1768 1766
2990.0 1849 1982 2060 2065 2032 1992 1945 1902 1873 1883
3030.0 1888 1868 1811 1691 1582 1540 1562 1629 1716 1799
3070.0 1843 1823 1749 1625 1462 1254 1016 812 654 554
3110.0 484 418 369 315 271 221 181 157 126 113
3150.0 110 112 99 74 81 94 88 70 60 62
3190.0 56 37 43 57 44 41 43 30 26 31
3230.0 36 39 41 35 31 31 30 32 34 37
3270.0 40 30 14 20 36 30 28 37 37 29
3310.0 18 21 31 37 36 23 11 12 18 16
3350.0 20 27 31 16 21 27 27 24 10 8
3390.0 11 8 0 12 32 32 35 37 22 0
3430.0 1 24 27 24 18 7 13 36 31 20
3470.0 23 28 36 28 28 33 44 58 34 34
3510.0 49 29 17 13 29 52 52 42 43 33
3550.0 16 15 33 51 42 30 36 40 33 38
3590.0 56 56 54 45 31 45 67 63 57 46
3630.0 43 45 39 47 49 55 55 44 47 54
3670.0 50 52 58 49 33 31 48 47 30 30
3710.0 29 27 34 51 53 47 54 58 59 58
3750.0 40 42 54 49 47 71 79 61 54 67
3790.0 82 76 62 52 53 63 81 93 78 64
3830.0 58 66 73 69 64
##END=
