##TITLE=8-Aminoquinoline
##JCAMP-DX=4.24
##DATA TYPE=INFRARED SPECTRUM
##ORIGIN=NIST Mass Spectrometry Data Center
##OWNER=NIST Standard Reference Data Program
Collection (C) 2018 copyright by the U.S. Secretary of Commerce
on behalf of the United States of America. All rights reserved.
##CAS REGISTRY NO=578-66-5
##MOLFORM=C 9 H 8 N 2
##$NIST SOURCE=MSDC-IR
##SPECTROMETER/DATA SYSTEM=HP-GC/MS/IRD
##STATE=gas
##XUNITS=1/CM
##YUNITS=ABSORBANCE
##XFACTOR=1.0
##YFACTOR=0.000002200
##DELTAX=4.0
##FIRSTX=550.0
##LASTX=3846.0
##FIRSTY=0.003038
##MAXX=3846
##MINX=550
##MAXY=0.022
##MINY=0
##NPOINTS=825
##XYDATA=(X++(Y..Y))
550.0 1381 1111 961 1054 1142 1267 1344 1394 1442 1430
590.0 1401 1387 1360 1360 1409 1504 1605 1700 1819 1951
630.0 2003 2040 2086 2038 1956 1874 1791 1687 1596 1514
670.0 1428 1391 1369 1364 1396 1440 1504 1539 1479 1404
710.0 1334 1222 1217 1487 1888 2232 2819 3890 3725 2774
750.0 2563 2390 2201 2294 2749 3493 4363 5171 6415 7352
790.0 6282 4949 4387 3769 3319 3076 3418 3667 2780 2150
830.0 1865 1411 1027 767 673 606 564 543 540 513
870.0 492 496 494 499 518 529 520 533 533 502
910.0 475 435 434 416 397 392 373 344 314 314
950.0 315 308 315 302 282 313 312 284 268 245
990.0 228 215 208 251 311 375 399 385 390 351
1030.0 322 294 225 212 222 184 143 145 166 208
1070.0 313 563 871 1120 1236 1265 1234 1037 791 673
1110.0 691 845 1114 1409 1579 1504 1372 1156 824 518
1150.0 274 150 81 44 60 43 11 0 5 49
1190.0 90 104 125 154 198 254 253 276 323 294
1230.0 245 203 183 187 183 202 255 314 391 479
1270.0 529 540 538 494 381 274 229 235 280 355
1310.0 485 722 1084 1560 2040 2317 2413 2491 2415 2234
1350.0 2319 2869 3857 4988 5939 6472 6364 5565 4301 2960
1390.0 1852 1188 894 756 713 715 772 901 1056 1181
1430.0 1280 1284 1160 1025 926 945 1198 1707 2418 3198
1470.0 3761 3964 3999 3954 3861 4057 4700 5448 5849 5911
1510.0 5582 4626 3325 2203 1491 1131 962 905 927 1017
1550.0 1162 1375 1665 1977 2301 2691 3207 3935 4965 6217
1590.0 7445 8493 9422 10000 9985 9581 8814 7639 6229 4919
1630.0 3780 2724 1898 1401 1113 934 797 685 611 554
1670.0 515 484 465 448 421 394 397 418 418 431
1710.0 448 431 393 353 310 273 250 235 243 267
1750.0 280 274 258 247 219 179 152 136 123 133
1790.0 160 184 197 214 228 225 208 183 161 145
1830.0 117 108 122 134 148 158 166 200 255 310
1870.0 352 367 371 369 387 429 493 524 522 499
1910.0 447 380 319 285 287 298 296 291 281 257
1950.0 219 178 150 133 121 127 132 131 129 124
1990.0 125 123 121 114 116 129 127 119 126 140
2030.0 145 150 155 153 148 148 156 165 160 157
2070.0 160 157 149 154 162 153 136 137 136 129
2110.0 133 136 141 154 145 136 148 153 150 158
2150.0 181 184 180 195 203 189 186 180 172 175
2190.0 155 140 155 162 163 171 180 176 167 154
2230.0 150 167 185 179 167 172 173 184 193 189
2270.0 185 179 175 167 153 144 145 139 145 163
2310.0 163 149 131 136 154 149 126 119 128 137
2350.0 149 168 177 177 174 175 178 167 143 144
2390.0 160 155 154 168 186 191 173 164 174 166
2430.0 151 148 144 141 146 150 163 171 163 152
2470.0 146 163 176 175 177 174 180 182 176 179
2510.0 181 176 163 162 155 143 153 154 148 144
2550.0 151 145 144 157 148 145 158 154 146 158
2590.0 166 152 155 180 173 169 188 186 184 191
2630.0 191 201 198 210 220 196 189 180 176 186
2670.0 173 167 149 143 152 162 172 156 166 183
2710.0 178 175 177 185 181 164 160 159 143 148
2750.0 151 149 159 160 143 141 157 156 157 163
2790.0 145 145 160 154 149 172 184 165 157 174
2830.0 168 138 152 191 186 182 200 204 214 242
2870.0 257 247 249 254 224 195 208 208 187 193
2910.0 211 208 219 247 253 278 314 337 364 397
2950.0 455 501 511 522 533 530 502 457 472 484
2990.0 503 552 599 698 844 1035 1306 1668 2094 2649
3030.0 3271 3758 4027 4253 4398 4237 3976 3864 3847 3747
3070.0 3568 3335 2988 2504 2013 1597 1241 987 836 730
3110.0 652 556 481 427 364 304 265 261 294 302
3150.0 313 327 328 331 334 330 344 329 293 284
3190.0 283 295 290 277 244 241 265 280 255 218
3230.0 227 222 206 189 198 209 211 209 187 188
3270.0 181 151 141 163 182 189 191 175 176 185
3310.0 208 202 187 210 216 215 206 201 242 260
3350.0 256 262 277 326 388 483 643 860 1170 1556
3390.0 1927 2183 2291 2242 2027 1645 1255 995 801 590
3430.0 450 378 355 344 337 335 317 343 394 446
3470.0 495 550 663 806 968 1199 1541 1905 2100 2189
3510.0 2175 1979 1708 1414 1188 1031 854 712 609 484
3550.0 391 376 366 349 311 283 294 308 296 269
3590.0 273 278 252 247 260 252 234 235 259 248
3630.0 245 279 270 249 266 262 262 272 275 278
3670.0 298 311 304 307 319 298 289 284 260 270
3710.0 286 289 269 256 292 299 276 263 263 263
3750.0 263 283 288 297 303 311 304 294 291 294
3790.0 305 304 308 331 328 315 314 315 311 308
3830.0 324 329 324 323 315
##END=
