##TITLE=5-Hydroxyquinoline
##JCAMP-DX=4.24
##DATA TYPE=INFRARED SPECTRUM
##ORIGIN=NIST Mass Spectrometry Data Center
##OWNER=NIST Standard Reference Data Program
Collection (C) 2018 copyright by the U.S. Secretary of Commerce
on behalf of the United States of America. All rights reserved.
##CAS REGISTRY NO=578-67-6
##MOLFORM=C 9 H 7 N O
##$NIST SOURCE=MSDC-IR
##SPECTROMETER/DATA SYSTEM=HP-GC/MS/IRD
##STATE=gas
##XUNITS=1/CM
##YUNITS=ABSORBANCE
##XFACTOR=1.0
##YFACTOR=0.000000700
##DELTAX=4.0
##FIRSTX=550.0
##LASTX=3846.0
##FIRSTY=0.000270
##MAXX=3846
##MINX=550
##MAXY=0.007
##MINY=0
##NPOINTS=825
##XYDATA=(X++(Y..Y))
550.0 386 624 662 1056 1251 1157 970 889 708 360
590.0 242 237 172 206 292 325 240 204 256 169
630.0 142 238 246 230 231 196 160 197 236 170
670.0 61 12 6 16 48 100 119 75 78 155
710.0 231 247 332 527 628 804 1147 998 693 643
750.0 574 508 571 811 1209 1945 3064 4421 5740 7479
790.0 9923 10000 7872 6323 4984 3770 2693 1956 1407 898
830.0 643 490 336 246 209 185 195 249 293 320
870.0 327 363 418 451 466 490 457 309 219 164
910.0 132 160 151 163 176 151 126 118 120 151
950.0 199 239 289 328 360 373 353 370 412 486
990.0 693 975 1351 1734 1870 1866 1902 1800 1607 1573
1030.0 1847 2496 3333 3852 4035 4296 4268 3827 3646 3894
1070.0 3887 3621 3474 2889 1887 1096 725 609 620 639
1110.0 771 975 1286 1909 2545 2825 3013 3109 2842 2305
1150.0 1842 1644 1586 1640 1925 2480 3155 3654 4020 4150
1190.0 3777 3199 2724 2402 2309 2264 2201 2264 2225 2116
1230.0 2182 2520 3274 4295 4906 5183 5805 5981 5098 4182
1270.0 3664 2898 1974 1338 976 812 759 741 798 958
1310.0 1192 1401 1513 1533 1423 1179 904 752 734 808
1350.0 955 1164 1405 1636 1867 2032 2060 1991 1889 1792
1390.0 1819 2115 2514 2701 2714 2714 2465 1966 1611 1391
1430.0 1198 1060 937 854 853 1012 1346 1843 2305 2504
1470.0 2458 2278 1872 1387 1072 966 1019 1131 1202 1190
1510.0 1140 1045 885 735 675 676 704 746 893 1162
1550.0 1510 1942 2583 3364 4034 4587 5194 5699 5853 6019
1590.0 6122 5853 5385 4971 4447 3848 3536 3563 3695 3628
1630.0 3352 2904 2277 1575 987 611 396 322 295 279
1670.0 257 254 278 290 289 301 293 286 287 276
1710.0 271 242 214 236 277 279 263 274 275 267
1750.0 259 237 241 239 222 206 197 161 110 85
1790.0 59 38 40 70 100 129 155 170 180 172
1830.0 173 167 135 125 128 103 81 78 86 93
1870.0 78 77 107 146 180 228 272 279 290 340
1910.0 371 388 433 458 435 376 325 300 264 231
1950.0 211 181 150 133 114 81 67 48 30 24
1990.0 21 37 38 14 13 12 16 46 39 35
2030.0 40 54 61 45 43 37 40 37 38 54
2070.0 63 57 44 27 26 28 27 25 31 28
2110.0 13 14 3 7 22 33 44 29 29 59
2150.0 56 25 27 34 20 9 16 26 12 10
2190.0 15 16 5 12 34 44 26 0 5 24
2230.0 38 37 44 41 39 55 71 77 92 104
2270.0 93 76 88 96 94 95 79 55 50 50
2310.0 50 71 76 89 127 135 142 132 126 128
2350.0 111 104 80 48 49 53 59 49 35 36
2390.0 57 75 86 91 71 76 109 100 73 85
2430.0 129 138 133 137 132 122 95 117 131 118
2470.0 133 127 99 70 44 61 66 71 99 106
2510.0 108 113 89 81 81 83 91 64 67 60
2550.0 44 63 49 29 23 30 46 73 67 79
2590.0 80 66 71 51 40 45 53 54 60 78
2630.0 56 17 41 75 57 49 73 82 63 59
2670.0 72 73 73 53 34 27 36 47 53 72
2710.0 63 23 26 42 15 12 45 57 46 27
2750.0 22 36 30 47 51 50 70 49 57 47
2790.0 36 79 88 62 75 82 63 53 60 78
2830.0 78 70 66 79 90 125 163 155 132 114
2870.0 103 78 78 89 90 83 103 109 114 111
2910.0 88 108 108 108 122 162 205 221 234 256
2950.0 306 328 341 369 395 417 400 382 379 392
2990.0 459 531 604 739 864 1046 1279 1529 1911 2316
3030.0 2609 2775 2760 2555 2224 1876 1724 1809 2021 2262
3070.0 2542 2715 2711 2602 2341 2003 1516 1033 741 574
3110.0 451 349 278 191 159 131 100 113 106 83
3150.0 79 86 107 104 104 149 169 140 115 70
3190.0 31 72 54 18 45 71 66 54 50 52
3230.0 63 48 67 37 25 53 69 80 69 61
3270.0 25 0 34 68 74 69 69 66 57 83
3310.0 108 106 117 108 95 141 157 153 147 128
3350.0 155 154 94 77 102 95 82 88 116 108
3390.0 66 127 152 158 163 111 156 123 48 111
3430.0 124 84 123 169 183 159 172 132 106 112
3470.0 87 92 120 125 146 199 171 140 168 160
3510.0 132 139 168 183 191 193 179 130 107 111
3550.0 110 102 116 111 119 147 150 153 146 147
3590.0 149 157 175 163 195 278 299 341 468 655
3630.0 1009 1659 2750 4252 5302 5633 5547 4850 3407 1858
3670.0 927 541 315 182 130 155 168 106 85 109
3710.0 106 127 131 153 124 95 99 66 64 77
3750.0 33 48 129 135 93 78 111 91 108 134
3790.0 125 108 120 142 153 156 170 176 200 200
3830.0 133 140 141 161 247
##END=
