##TITLE=Ridomil
##JCAMP-DX=4.24
##DATA TYPE=INFRARED SPECTRUM
##ORIGIN=NIST Mass Spectrometry Data Center
##OWNER=NIST Standard Reference Data Program
Collection (C) 2018 copyright by the U.S. Secretary of Commerce
on behalf of the United States of America. All rights reserved.
##CAS REGISTRY NO=57837-19-1
##MOLFORM=C 15 H 21 N O 4
##SOURCE REFERENCE=No.289970 (NIST/EPA/NIH MS Database)
##$NIST SOURCE=MSDC-IR
##SPECTROMETER/DATA SYSTEM=HP-GC/MS/IRD
##STATE=gas
##XUNITS=1/CM
##YUNITS=ABSORBANCE
##XFACTOR=1.0
##YFACTOR=0.000019300
##DELTAX=4.0
##FIRSTX=550.0
##LASTX=3846.0
##FIRSTY=0.002470
##MAXX=3846
##MINX=550
##MAXY=0.193
##MINY=0
##NPOINTS=825
##XYDATA=(X++(Y..Y))
550.0 128 117 49 115 158 204 241 264 270 275
590.0 269 255 239 205 166 133 115 112 123 142
630.0 164 178 180 170 147 121 102 87 75 68
670.0 71 80 95 114 133 146 145 139 134 128
710.0 122 124 137 157 179 200 231 276 337 412
750.0 503 653 973 1606 2378 2666 2128 1265 707 517
790.0 460 400 321 236 164 119 96 96 121 167
830.0 230 306 370 399 374 290 181 93 40 15
870.0 5 2 11 29 54 90 141 196 251 299
910.0 337 363 367 358 360 385 432 492 546 573
950.0 572 576 597 629 667 712 776 864 972 1093
990.0 1197 1238 1181 1059 956 907 891 876 871 876
1030.0 910 974 1084 1250 1475 1727 1908 1936 1824 1661
1070.0 1561 1593 1751 2008 2348 2758 3228 3703 4115 4469
1110.0 4868 5454 6258 7043 7412 7203 6636 6006 5399 4806
1150.0 4354 4193 4389 4890 5595 6399 7190 7760 7944 7893
1190.0 7897 7982 7889 7397 6553 5634 4902 4481 4350 4396
1230.0 4461 4420 4301 4259 4434 4852 5415 5942 6261 6258
1270.0 5947 5462 4924 4397 3919 3528 3246 3070 2977 2933
1310.0 2900 2853 2792 2742 2717 2704 2670 2596 2488 2392
1350.0 2344 2330 2297 2239 2243 2414 2794 3279 3618 3585
1390.0 3222 2790 2455 2200 1964 1740 1566 1480 1499 1647
1430.0 1981 2471 2896 3040 3037 3155 3389 3582 3590 3365
1470.0 2981 2539 2130 1791 1519 1299 1111 952 832 744
1510.0 677 629 593 567 550 542 540 533 509 474
1550.0 440 418 405 398 397 405 419 439 464 493
1590.0 513 511 481 439 402 381 377 385 406 442
1630.0 491 560 648 756 902 1093 1354 1705 2233 3051
1670.0 4272 5872 7606 9032 9839 10000 9782 9272 8203 6558
1710.0 4826 3519 2676 2176 1901 1772 1769 1899 2232 2892
1750.0 4051 5810 7923 9576 9463 7280 4556 2664 1692 1231
1790.0 979 813 696 612 545 481 415 358 310 273
1830.0 243 218 202 194 194 195 186 163 133 107
1870.0 90 82 75 69 65 62 60 58 56 58
1910.0 60 65 76 92 120 149 161 144 105 69
1950.0 53 48 47 49 52 55 56 55 56 53
1990.0 50 48 46 44 48 52 57 62 66 69
2030.0 72 72 73 74 73 71 68 66 64 64
2070.0 66 68 70 71 69 65 60 56 52 49
2110.0 46 43 41 36 34 32 31 30 30 29
2150.0 29 28 26 24 23 20 17 13 10 8
2190.0 5 3 2 0 1 3 2 1 0 1
2230.0 1 0 1 1 0 2 2 3 5 5
2270.0 7 9 11 13 13 14 15 15 14 14
2310.0 15 16 18 21 28 36 42 44 40 34
2350.0 31 32 32 31 31 32 32 31 29 30
2390.0 31 30 30 31 29 29 29 26 25 25
2430.0 26 23 20 18 16 15 16 15 16 18
2470.0 19 19 20 21 25 27 27 28 30 29
2510.0 30 30 29 30 29 28 28 29 28 30
2550.0 30 29 31 31 32 32 33 36 37 41
2590.0 45 48 51 53 54 53 52 49 46 45
2630.0 45 43 42 43 41 43 43 43 42 42
2670.0 41 42 43 46 46 51 54 58 62 68
2710.0 75 81 87 95 107 121 134 152 170 186
2750.0 196 200 198 195 194 198 208 225 245 270
2790.0 301 342 391 455 537 647 805 1025 1281 1506
2830.0 1619 1589 1480 1390 1364 1367 1352 1334 1352 1409
2870.0 1479 1554 1645 1759 1887 2002 2088 2146 2202 2297
2910.0 2456 2691 2990 3314 3608 3823 3912 3872 3785 3773
2950.0 3926 4246 4453 4166 3422 2685 2289 2187 2280 2542
2990.0 2903 3178 3160 2820 2361 1994 1785 1705 1692 1676
3030.0 1613 1509 1404 1343 1337 1376 1443 1505 1529 1489
3070.0 1386 1247 1082 893 704 544 431 360 316 284
3110.0 259 234 214 197 180 167 157 147 138 128
3150.0 119 113 106 101 99 94 90 84 76 71
3190.0 65 57 51 48 47 42 37 34 34 33
3230.0 30 30 30 29 27 27 26 23 23 25
3270.0 25 23 23 24 24 23 24 25 27 28
3310.0 30 33 38 44 53 59 62 67 74 77
3350.0 79 79 78 78 79 80 83 84 81 73
3390.0 65 58 51 45 41 35 33 32 29 23
3430.0 21 20 18 16 17 18 21 22 21 22
3470.0 26 30 33 39 45 51 58 65 75 82
3510.0 86 85 72 57 49 44 37 32 27 25
3550.0 21 16 14 10 10 9 10 11 8 5
3590.0 8 5 5 9 8 6 7 6 6 6
3630.0 4 2 3 3 2 3 4 4 3 3
3670.0 2 3 4 3 3 5 5 3 4 3
3710.0 4 3 5 7 6 9 10 11 12 11
3750.0 14 12 14 16 17 16 16 17 18 19
3790.0 19 18 20 23 24 24 25 28 29 28
3830.0 25 24 26 28 26
##END=
