##TITLE=2-Chloro-4-methylphenyl isothiocyanate
##JCAMP-DX=4.24
##DATA TYPE=INFRARED SPECTRUM
##ORIGIN=EPA-IR VAPOR PHASE LIBRARY
##OWNER=SRD/NIST
Collection (C) 2018 copyright by the U.S. Secretary of Commerce
on behalf of the United States of America. All rights reserved.
##CAS REGISTRY NO=57878-93-0
##MOLFORM=C 8 H 6 Cl N S
##$NIST SOURCE=MSDC-IR
##STATE=gas
##XUNITS=1/CM
##YUNITS=ABSORBANCE
##XFACTOR=1.
##YFACTOR=0.001
##DELTAX=1.92898
##FIRSTX=549.8
##LASTX=4000.7
##FIRSTY=14.976
##MAXX=4000.7
##MINX=549.759
##MAXY=0.520606
##MINY=0
##NPOINTS=1790
##XYDATA=(X++(Y..Y))
549.759 14.976 15.026 15.466 14.696 13.286 12.126 10.886 9.896 9.166 8.306
569.049 7.216 6.036 5.516 5.246 4.716 4.776 5.076 4.986 5.126 5.496
588.339 5.766 5.966 6.086 5.996 5.656 5.266 4.536 3.856 3.496 3.126
607.628 2.996 2.796 2.536 2.466 2.306 2.196 2.276 2.236 2.106 2.126
626.918 2.266 2.296 2.146 2.106 2.266 2.166 2.166 2.306 2.136 2.116
646.208 2.196 2.166 2.216 2.506 2.656 2.576 2.686 2.876 2.906 2.986
665.498 3.066 3.026 3.076 3.086 3.296 3.816 4.496 5.516 6.626 7.646
684.787 8.416 8.706 8.566 8.396 8.186 7.146 5.566 4.296 3.466 2.916
704.077 2.316 1.846 1.646 1.456 1.2194 1.0353 1.0699 1.2085 1.276 1.336
723.367 1.286 1.606 1.966 2.056 2.316 2.406 2.476 2.546 2.406 2.306
742.657 2.186 2.036 1.986 1.716 1.326 1.0132 0.7768 0.786 0.8297 1.0763
761.947 1.326 1.536 2.036 2.226 2.136 2.366 2.646 2.756 2.886 2.896
781.236 2.806 2.776 2.996 3.416 3.946 4.806 6.096 8.036 10.596 13.576
800.526 16.946 20.666 24.316 28.056 32.066 35.726 37.266 34.816 30.016 25.796
819.816 22.506 19.126 15.746 12.816 10.316 8.716 7.946 7.666 8.236 9.546
839.106 11.146 13.126 15.456 17.396 18.976 20.346 21.536 22.226 22.526 22.706
858.395 22.096 21.216 20.296 19.406 18.546 17.436 16.606 15.376 13.276 11.356
877.685 10.236 9.136 7.856 7.046 6.456 5.686 5.036 4.686 4.326 4.096
896.975 3.936 3.736 3.556 3.456 3.436 3.636 4.016 4.166 4.246 4.246
916.265 4.576 5.156 5.446 5.786 6.416 7.356 8.686 10.226 12.216 14.936
935.555 18.296 22.376 26.816 31.256 35.126 37.976 39.526 39.316 37.446 34.276
954.844 30.016 25.256 20.816 16.836 13.586 11.416 9.766 8.486 7.476 6.626
974.134 6.316 6.096 5.786 5.616 5.466 5.496 5.376 5.216 5.206 5.206
993.424 5.136 5.016 4.716 4.256 3.966 3.716 3.676 3.676 3.196 3.016
1012.714 2.856 2.426 2.136 2.076 2.176 2.076 2.056 2.086 2.276 2.056
1032.003 1.936 2.446 2.766 2.866 3.076 3.476 4.086 4.646 5.176 5.956
1051.293 7.166 8.756 10.796 13.496 16.226 18.936 21.396 22.566 22.576 22.446
1070.583 22.556 21.196 17.786 14.106 10.866 8.046 6.056 4.526 3.336 2.496
1089.873 2.206 2.096 1.796 1.836 2.066 1.916 1.386 1.1883 1.1723 1.316
1109.163 1.546 1.516 1.606 1.856 1.836 1.796 1.566 1.266 1.406 1.366
1128.452 1.0283 1.0965 1.536 1.716 1.976 2.416 2.626 2.666 2.626 2.536
1147.742 2.306 2.386 2.426 2.266 1.886 1.436 1.2407 1.1503 0.9874 0.8911
1167.032 1.008 0.9864 0.7396 0.674 0.9166 1.0469 1.1465 1.296 1.476 1.596
1186.322 1.736 2.136 2.446 2.596 2.956 3.466 4.326 5.406 6.016 6.576
1205.611 7.546 7.936 7.686 7.736 7.356 6.776 6.406 5.676 4.806 4.106
1224.901 3.206 2.646 2.446 2.306 2.046 1.826 2.196 2.526 2.726 3.106
1244.191 3.396 3.676 4.006 4.316 4.566 4.586 4.386 4.396 4.606 4.566
1263.481 4.706 5.056 5.296 5.726 6.376 7.156 7.806 8.206 8.536 8.586
1282.771 8.236 7.656 6.766 5.686 4.786 4.136 3.506 3.036 2.826 2.666
1302.060 2.506 2.296 2.166 2.026 1.926 1.886 1.846 1.816 1.766 1.766
1321.350 1.786 1.746 1.646 1.566 1.606 1.546 1.466 1.476 1.486 1.456
1340.640 1.446 1.516 1.536 1.526 1.536 1.616 1.766 1.816 1.816 1.936
1359.930 2.046 2.176 2.346 2.436 2.556 2.776 3.006 3.266 3.566 3.886
1379.219 4.216 4.536 4.986 5.636 6.266 6.956 7.726 8.326 8.816 9.196
1398.509 9.516 9.706 9.696 9.446 9.046 8.636 8.296 8.086 7.936 7.836
1417.799 7.856 7.976 8.026 7.946 7.796 7.576 7.206 6.676 6.156 5.716
1437.089 5.386 5.126 4.946 4.866 4.836 4.806 4.876 5.086 5.266 5.466
1456.378 5.746 6.116 6.546 7.066 7.806 8.856 10.276 12.116 14.786 18.446
1475.668 23.346 29.926 38.146 47.786 57.886 67.126 74.046 77.856 78.776 77.056
1494.958 72.666 65.726 56.946 47.696 39.706 33.446 28.146 23.236 18.736 15.066
1514.248 12.576 11.076 10.126 9.446 8.926 8.476 8.176 7.896 7.616 7.526
1533.538 7.356 7.056 6.866 6.766 6.646 6.546 6.566 6.646 6.766 6.896
1552.827 7.026 7.206 7.316 7.336 7.296 7.106 6.786 6.436 5.996 5.596
1572.117 5.246 4.846 4.586 4.436 4.386 4.356 4.456 4.756 4.986 5.196
1591.407 5.526 5.876 6.246 6.526 6.626 6.626 6.486 6.336 5.986 5.486
1610.697 5.096 4.546 3.916 3.446 3.186 3.026 2.816 2.656 2.576 2.526
1629.986 2.486 2.326 2.146 2.036 2.006 1.876 1.806 1.806 1.636 1.536
1649.276 1.446 1.356 1.426 1.496 1.446 1.396 1.376 1.366 1.426 1.496
1668.566 1.546 1.576 1.646 1.756 1.776 1.796 1.836 1.806 1.826 1.866
1687.856 1.856 1.826 1.786 1.726 1.656 1.656 1.676 1.636 1.576 1.546
1707.146 1.576 1.536 1.546 1.636 1.666 1.716 1.886 2.046 2.036 2.126
1726.435 2.386 2.646 2.846 2.966 3.166 3.316 3.386 3.456 3.426 3.446
1745.725 3.406 3.296 3.216 3.096 3.076 2.986 2.856 2.836 2.756 2.656
1765.015 2.636 2.676 2.646 2.626 2.656 2.676 2.686 2.716 2.796 2.926
1784.305 3.026 3.156 3.356 3.486 3.566 3.636 3.746 3.906 4.006 4.046
1803.594 4.126 4.176 4.196 4.196 4.146 4.016 3.916 3.876 3.786 3.616
1822.884 3.496 3.386 3.246 3.206 3.166 3.086 3.056 3.076 3.046 3.036
1842.174 3.066 3.066 3.106 3.186 3.286 3.386 3.516 3.626 3.746 3.856
1861.464 3.986 4.206 4.416 4.696 5.106 5.516 5.916 6.426 7.016 7.676
1880.754 8.376 9.066 9.746 10.326 10.776 11.166 11.436 11.586 11.706 11.736
1900.043 11.736 11.716 11.766 11.926 12.176 12.486 12.826 13.266 13.756 14.256
1919.333 14.756 15.306 15.826 16.336 16.896 17.476 18.086 18.796 19.586 20.476
1938.623 21.516 22.676 24.016 25.486 27.126 28.946 30.916 33.046 35.286 37.676
1957.913 40.226 42.826 45.526 48.346 51.256 54.316 57.566 60.946 64.476 68.266
1977.202 72.246 76.446 81.056 86.116 91.596 97.556 104.076 111.116 118.676 126.656
1996.492 135.066 143.756 152.706 161.886 170.996 179.986 188.706 197.006 204.976 212.616
2015.782 220.156 227.806 235.816 244.686 254.656 265.966 278.866 293.576 310.026 328.416
2035.072 348.466 370.196 393.856 418.936 444.616 469.336 491.486 509.026 519.416 520.606
2054.362 512.366 495.566 470.896 440.546 406.776 372.116 338.916 308.076 280.456 256.506
2073.651 236.256 219.646 206.486 196.416 189.016 184.096 181.406 180.666 181.496 183.786
2092.941 187.306 191.636 196.656 202.106 207.576 212.546 216.356 218.886 219.936 219.116
2112.231 216.406 211.876 205.756 198.296 189.656 180.186 170.296 160.076 149.936 140.296
2131.521 131.336 123.056 115.586 108.946 102.796 96.966 91.516 86.206 80.886 75.656
2150.810 70.516 65.436 60.416 55.616 51.136 46.996 43.346 40.276 37.746 35.656
2170.100 33.976 32.646 31.536 30.596 29.846 29.156 28.566 28.056 27.556 27.036
2189.390 26.616 26.226 25.826 25.466 25.036 24.456 23.766 23.016 22.216 21.336
2208.680 20.366 19.496 18.766 18.126 17.656 17.376 17.176 16.996 16.786 16.536
2227.970 16.116 15.536 14.856 14.106 13.226 12.196 11.236 10.416 9.606 8.836
2247.259 8.126 7.476 6.956 6.456 5.996 5.556 5.126 4.806 4.536 4.306
2266.549 4.136 4.016 3.896 3.746 3.596 3.406 3.276 3.236 3.186 3.126
2285.839 2.986 2.836 2.856 2.786 2.566 2.446 2.416 2.436 2.466 2.476
2305.129 2.456 2.516 2.606 2.706 2.746 2.786 2.866 2.846 2.806 2.806
2324.418 2.806 2.726 2.676 2.676 2.766 2.906 3.016 3.106 3.266 3.476
2343.708 3.596 3.616 3.636 3.586 3.416 3.156 2.906 2.686 2.456 2.226
2362.998 2.086 2.086 2.076 1.966 1.866 1.916 1.986 2.086 2.206 2.256
2382.288 2.296 2.436 2.636 2.736 2.856 2.996 3.166 3.336 3.506 3.636
2401.578 3.746 3.866 3.936 3.896 3.876 3.926 3.916 3.896 3.776 3.646
2420.867 3.506 3.366 3.306 3.156 3.016 2.966 2.866 2.806 2.806 2.726
2440.157 2.616 2.606 2.626 2.686 2.686 2.756 2.906 2.996 3.076 3.156
2459.447 3.236 3.286 3.366 3.476 3.536 3.616 3.676 3.696 3.716 3.606
2478.737 3.516 3.456 3.486 3.546 3.526 3.486 3.516 3.566 3.576 3.676
2498.026 3.716 3.796 3.926 4.046 4.196 4.246 4.336 4.466 4.456 4.556
2517.316 4.666 4.666 4.686 4.736 4.786 4.866 4.986 4.976 4.946 4.906
2536.606 4.956 4.926 4.856 4.846 4.716 4.646 4.606 4.626 4.666 4.666
2555.896 4.646 4.596 4.506 4.346 4.216 4.046 3.916 3.696 3.446 3.316
2575.186 3.126 2.906 2.716 2.566 2.496 2.416 2.316 2.246 2.156 2.026
2594.475 1.896 1.846 1.716 1.616 1.636 1.636 1.576 1.526 1.606 1.606
2613.765 1.566 1.576 1.656 1.666 1.676 1.726 1.736 1.756 1.786 1.806
2633.055 1.896 1.946 1.986 2.036 2.036 2.126 2.206 2.246 2.266 2.376
2652.345 2.516 2.526 2.576 2.726 2.766 2.806 3.046 3.256 3.416 3.546
2671.634 3.696 3.976 4.236 4.616 5.066 5.396 5.716 6.176 6.746 7.336
2690.924 7.926 8.456 8.846 9.166 9.376 9.506 9.566 9.396 9.066 8.696
2710.214 8.206 7.576 6.906 6.156 5.466 4.986 4.496 4.046 3.676 3.326
2729.504 3.026 2.826 2.716 2.626 2.506 2.436 2.486 2.576 2.606 2.626
2748.794 2.636 2.496 2.416 2.386 2.306 2.096 1.976 1.956 1.866 1.876
2768.083 1.806 1.746 1.656 1.576 1.566 1.426 1.286 1.2516 1.0781 1.1067
2787.373 1.2462 1.1345 1.0263 1.0179 1.0936 1.1191 1.1044 1.1099 1.0467 0.9704
2806.663 0.9939 1.0727 1.1389 1.0872 1.2135 1.376 1.286 1.2002 1.2031 1.346
2825.953 1.466 1.466 1.496 1.546 1.666 1.836 1.906 1.996 2.216 2.326
2845.242 2.346 2.586 2.806 2.916 3.226 3.516 3.776 4.156 4.616 5.076
2864.532 5.476 5.976 6.426 6.876 7.176 7.356 7.476 7.446 7.286 7.186
2883.822 7.216 7.096 6.986 6.936 6.966 7.036 6.946 7.006 7.096 6.996
2903.112 6.906 6.876 6.996 7.176 7.346 7.596 8.066 8.596 9.036 9.756
2922.401 10.746 11.796 13.006 14.596 16.116 17.166 17.896 18.146 17.886 17.216
2941.691 16.036 14.426 12.816 11.296 9.966 8.866 8.066 7.616 7.266 6.926
2960.981 6.596 6.326 6.206 6.166 5.886 5.676 5.536 5.256 5.186 5.296
2980.271 5.356 5.356 5.386 5.596 5.906 6.126 6.236 6.456 6.616 6.646
2999.561 6.756 6.886 6.926 6.976 7.056 7.076 7.126 7.156 7.166 7.236
3018.850 7.366 7.476 7.626 7.766 7.936 8.226 8.656 9.206 9.826 10.406
3038.140 10.726 10.836 10.886 10.866 10.576 9.926 9.256 8.686 8.156 7.856
3057.430 7.566 7.356 7.346 7.356 7.446 7.446 7.346 7.106 6.726 6.436
3076.720 6.126 5.666 5.196 4.796 4.376 3.936 3.526 3.236 3.036 2.886
3096.009 2.696 2.436 2.396 2.486 2.426 2.356 2.236 2.056 1.816 1.516
3115.299 1.2461 1.2074 1.2494 1.1067 1.0146 0.8009 0.6903 0.7458 0.7582 0.7762
3134.589 0.8387 0.7288 0.5685 0.6329 0.6357 0.5633 0.5831 0.5948 0.4676 0.4313
3153.879 0.36464 0.3658 0.4919 0.4179 0.32315 0.26235 0.32739 0.4821 0.4237 0.26175
3173.169 0.28675 0.4241 0.4751 0.4801 0.4441 0.4284 0.4222 0.4134 0.3837 0.31934
3192.458 0.2394 0.199 0.2504 0.267189 0.29324 0.4308 0.4437 0.35229 0.30396 0.33823
3211.748 0.36216 0.2499 0.2396 0.4217 0.28579 0.016 0.138 0.247 0.142 0.035
3231.038 0.02 0.1829 0.2139 0.155 0.2197 0.1972 0.33199 0.3693 0.156 0.132
3250.328 0.159 0.153 0.2017 0.1841 0.122 0.2167 0.3257 0.4049 0.3828 0.135
3269.617 0 0.043 0.174 0.28347 0.34885 0.3676 0.34804 0.31587 0.2429 0.2323
3288.907 0.2473 0.32127 0.4281 0.4881 0.4589 0.30583 0.26327 0.3117 0.202 0.067
3308.197 0.1786 0.4039 0.5369 0.4516 0.25765 0.2247 0.2438 0.1849 0.1943 0.142
3327.487 0.158 0.2459 0.2293 0.25615 0.27596 0.1702 0.1924 0.29359 0.197 0.119
3346.777 0.14 0.2402 0.34973 0.32279 0.31702 0.4004 0.4099 0.3326 0.2517 0.34515
3366.066 0.5523 0.6032 0.571 0.5394 0.4113 0.419 0.4859 0.29034 0.26144 0.4614
3385.356 0.4063 0.2211 0.29427 0.3692 0.3752 0.3788 0.28016 0.2144 0.28099 0.28996
3404.646 0.28465 0.33138 0.22 0.1942 0.34983 0.32728 0.2496 0.30176 0.29376 0.2533
3423.936 0.2018 0.34793 0.398 0.2495 0.3172 0.4081 0.28743 0.151 0.2874 0.4382
3443.225 0.4292 0.3864 0.3676 0.31569 0.35133 0.3811 0.2891 0.32788 0.4004 0.34102
3462.515 0.3656 0.3662 0.32296 0.4058 0.31091 0.2197 0.30309 0.30062 0.2547 0.28306
3481.805 0.4347 0.495 0.4851 0.5276 0.4978 0.4766 0.4865 0.4565 0.4664 0.5001
3501.095 0.29133 0.201 0.3788 0.5251 0.3977 0.269978 0.29142 0.28129 0.2522 0.2397
3520.385 0.31936 0.415 0.32878 0.2631 0.275379 0.4106 0.5402 0.41 0.4013 0.541
3539.674 0.599 0.4123 0.28473 0.3163 0.3757 0.3343 0.2445 0.31102 0.32759 0.265152
3558.964 0.30345 0.4094 0.32477 0.2053 0.2423 0.3705 0.3922 0.34353 0.4232 0.431
3578.254 0.423 0.35554 0.32709 0.35604 0.26045 0.32579 0.3666 0.30997 0.3496 0.31149
3597.544 0.4184 0.4676 0.4115 0.493 0.5637 0.5321 0.27719 0.34006 0.4746 0.4942
3616.833 0.5221 0.5128 0.5718 0.5725 0.5278 0.4845 0.499 0.4002 0.36163 0.4811
3636.123 0.5313 0.3718 0.28643 0.4092 0.5326 0.4864 0.31755 0.25992 0.33767 0.3884
3655.413 0.3173 0.34943 0.4461 0.35525 0.35658 0.5644 0.6787 0.4885 0.34928 0.4277
3674.703 0.513 0.4375 0.3701 0.5022 0.4848 0.35751 0.30119 0.5012 0.5827 0.4719
3693.993 0.4484 0.471 0.5221 0.4787 0.3712 0.36569 0.4685 0.4449 0.34647 0.4291
3713.282 0.4524 0.5066 0.571 0.5335 0.5837 0.5929 0.4733 0.4772 0.5139 0.5634
3732.572 0.6203 0.4209 0.4026 0.6335 0.6592 0.5567 0.5976 0.6544 0.5175 0.3888
3751.862 0.36331 0.3882 0.4389 0.5117 0.6048 0.683 0.6294 0.522 0.4824 0.5375
3771.152 0.7228 0.7026 0.7157 0.6376 0.5226 0.4799 0.4154 0.5112 0.6764 0.6274
3790.441 0.589 0.6896 0.5029 0.5226 0.507 0.33649 0.4801 0.5183 0.6064 0.6926
3809.731 0.5342 0.5017 0.3951 0.34227 0.5407 0.7208 0.5787 0.3789 0.5301 0.735
3829.021 0.6944 0.5992 0.6927 0.7439 0.7283 0.6767 0.6982 0.7269 0.6282 0.5963
3848.311 0.6657 0.6854 0.63 0.5784 0.6165 0.7932 0.7782 0.6702 0.6679 0.7163
3867.601 0.8164 0.8887 0.8768 0.7091 0.5468 0.5308 0.7841 0.8559 0.7284 0.6832
3886.890 0.7155 0.8326 0.8023 0.844 0.8664 0.795 0.8443 0.9768 0.9508 0.8493
3906.180 0.8168 0.8695 0.9567 1.0202 1.072 1.1202 1.0638 0.908 1.0065 0.908
3925.470 0.7664 0.9439 1.1554 1.2274 1.286 1.276 1.1879 1.316 1.326 1.2348
3944.760 1.336 1.456 1.546 1.466 1.306 1.406 1.456 1.376 1.286 1.2434
3964.049 1.366 1.2481 1.1934 1.436 1.496 1.366 1.466 1.426 1.266 1.426
3983.339 1.546 1.596 1.656 1.686 1.656 1.626 1.666 1.676 1.686 1.856
##END=
