##TITLE=1-Phenyl-1,2-Propanedione
##JCAMP-DX=4.24
##DATA TYPE=INFRARED SPECTRUM
##ORIGIN=EPA-IR VAPOR PHASE LIBRARY
##OWNER=SRD/NIST
Collection (C) 2018 copyright by the U.S. Secretary of Commerce
on behalf of the United States of America. All rights reserved.
##CAS REGISTRY NO=579-07-7
##MOLFORM=C 9 H 8 O 2
##$NIST SOURCE=MSDC-IR
##STATE=gas
##XUNITS=1/CM
##YUNITS=ABSORBANCE
##XFACTOR=1.
##YFACTOR=0.001
##DELTAX=1.92898
##FIRSTX=549.8
##LASTX=4000.7
##FIRSTY=7.359
##MAXX=4000.7
##MINX=549.759
##MAXY=0.132609
##MINY=0
##NPOINTS=1790
##XYDATA=(X++(Y..Y))
549.759 7.359 8.919 11.049 13.609 17.249 21.889 27.409 33.789 40.839 47.799
569.049 52.729 55.239 55.409 54.159 51.849 48.099 42.929 36.129 28.759 22.169
588.339 17.139 13.369 10.859 9.489 8.569 7.649 7.119 7.029 6.809 6.639
607.628 6.409 6.099 5.829 5.349 4.669 4.299 4.029 3.579 3.209 2.859
626.918 2.639 2.599 2.529 2.419 2.369 2.409 2.559 2.719 2.779 2.889
646.208 3.089 3.209 3.399 3.509 3.649 3.949 4.249 4.919 5.679 6.219
665.498 6.979 7.959 9.119 10.569 12.139 13.919 15.979 18.429 21.499 25.299
684.787 29.319 32.899 36.209 39.599 43.169 47.119 51.669 55.549 56.849 55.189
704.077 51.309 46.549 41.819 37.139 32.589 28.249 24.069 20.099 16.679 13.869
723.367 11.509 9.659 8.299 7.429 6.819 6.169 5.589 5.309 5.199 5.029
742.657 4.749 4.519 4.299 4.089 3.949 3.769 3.709 3.719 3.819 4.039
761.947 4.429 4.839 5.229 5.629 6.189 6.849 7.479 7.829 8.169 8.739
781.236 8.899 8.389 7.459 6.509 5.859 5.309 4.559 4.009 3.639 3.129
800.526 2.689 2.469 2.159 2.009 1.939 1.849 1.959 1.919 1.879 1.829
819.816 1.769 1.899 1.889 1.839 2.029 2.109 2.099 2.239 2.309 2.519
839.106 2.739 2.769 2.899 2.969 3.109 3.459 3.789 4.049 4.279 4.569
858.395 4.879 5.359 5.969 6.639 7.429 8.479 9.779 11.239 13.149 15.639
877.685 18.559 22.229 26.899 32.309 38.269 44.589 50.739 55.829 59.419 61.269
896.975 61.529 59.989 56.409 51.189 44.519 36.959 29.499 23.289 18.589 14.959
916.265 12.169 10.249 8.979 7.959 7.229 6.689 6.359 6.079 5.699 5.409
935.555 5.119 4.869 4.749 4.539 4.309 4.109 4.019 4.069 4.069 4.009
954.844 3.979 4.149 4.239 4.209 4.359 4.349 4.149 4.179 4.409 4.579
974.134 4.649 4.729 4.769 4.729 4.929 4.999 4.969 5.229 5.519 5.789
993.424 6.359 7.149 7.629 7.669 7.719 7.949 8.029 8.059 7.799 7.169
1012.714 6.669 6.239 5.859 5.789 5.699 5.339 4.979 4.749 4.459 4.049
1032.003 3.749 3.459 3.109 2.799 2.499 2.469 2.399 2.289 2.279 2.379
1051.293 2.639 2.739 2.909 3.049 3.209 3.359 3.369 3.359 3.369 3.519
1070.583 3.459 3.409 3.549 3.429 3.129 3.089 2.909 2.759 2.919 2.849
1089.873 2.899 3.309 3.459 3.339 3.429 3.549 3.649 3.899 4.049 4.099
1109.163 4.209 4.699 5.239 5.589 6.149 6.709 7.229 7.949 8.779 9.719
1128.452 11.119 13.049 15.309 18.029 21.759 26.389 31.769 38.219 46.449 56.239
1147.742 66.869 77.669 87.649 96.269 104.109 109.939 110.639 108.439 103.149 93.079
1167.032 81.839 70.019 57.059 44.339 33.449 25.499 20.029 16.139 13.349 11.279
1186.322 9.639 8.319 7.389 6.629 6.129 5.529 4.769 4.349 4.069 3.949
1205.611 3.839 3.709 3.589 3.339 3.209 3.159 3.199 3.309 3.449 3.429
1224.901 3.229 3.349 3.679 3.949 4.249 4.369 4.549 4.929 5.139 5.289
1244.191 5.499 5.859 6.389 6.979 7.769 8.619 9.459 10.479 11.699 13.139
1263.481 14.639 16.229 17.989 19.779 21.559 23.069 24.429 25.509 26.069 26.149
1282.771 25.709 24.899 23.699 22.139 20.319 18.429 16.669 15.229 14.169 13.509
1302.060 13.209 13.179 13.459 13.879 14.279 14.639 14.779 14.639 14.449 14.219
1321.350 13.799 13.159 12.459 11.769 11.199 10.859 10.779 10.839 10.989 11.329
1340.640 11.809 12.499 13.529 14.839 16.419 18.179 19.789 21.089 22.029 22.559
1359.930 22.559 22.079 21.119 19.489 17.239 14.899 12.949 11.409 10.289 9.539
1379.219 8.999 8.619 8.349 8.079 7.829 7.659 7.509 7.389 7.279 7.159
1398.509 7.109 7.099 7.079 7.129 7.239 7.349 7.479 7.679 7.979 8.259
1417.799 8.549 8.849 9.099 9.329 9.599 9.929 10.249 10.639 11.219 12.079
1437.089 13.249 14.699 16.369 17.929 18.909 19.019 18.559 18.139 17.619 16.829
1456.378 15.419 12.869 10.089 7.929 6.499 5.549 4.889 4.379 4.039 3.769
1475.668 3.539 3.359 3.249 3.199 3.139 3.039 2.959 2.899 2.849 2.819
1494.958 2.809 2.779 2.769 2.789 2.849 2.919 2.999 3.099 3.199 3.259
1514.248 3.329 3.409 3.539 3.649 3.789 3.949 4.059 4.139 4.229 4.289
1533.538 4.359 4.469 4.539 4.619 4.679 4.759 4.789 4.779 4.819 4.869
1552.827 4.979 5.119 5.279 5.509 5.819 6.109 6.469 7.029 7.629 8.379
1572.117 9.169 10.009 10.839 11.659 12.549 13.379 14.309 15.269 16.049 16.689
1591.407 17.239 17.719 18.089 18.229 18.069 17.539 16.689 15.519 14.109 12.639
1610.697 11.259 10.019 9.009 8.179 7.559 7.189 6.859 6.589 6.409 6.299
1629.986 6.219 6.189 6.279 6.469 6.709 7.059 7.499 7.919 8.419 9.039
1649.276 9.689 10.499 11.539 12.579 13.909 15.679 17.959 20.929 24.819 29.769
1668.566 36.139 44.319 54.429 66.449 80.079 93.379 105.069 113.859 120.509 126.359
1687.856 130.899 132.609 129.129 120.859 109.619 98.069 87.969 78.879 72.059 66.939
1707.146 63.499 61.709 61.279 61.559 62.409 63.449 64.259 64.719 64.729 64.079
1726.435 62.719 60.579 57.609 54.029 49.919 45.739 41.749 37.769 34.069 30.769
1745.725 27.859 25.239 22.969 20.949 19.209 17.719 16.329 15.029 13.859 12.819
1765.015 11.879 11.029 10.209 9.439 8.669 7.879 7.169 6.539 5.999 5.549
1784.305 5.119 4.689 4.339 4.109 3.959 3.849 3.799 3.809 3.889 3.999
1803.594 4.059 4.189 4.299 4.309 4.299 4.199 4.019 3.829 3.579 3.339
1822.884 3.149 2.949 2.729 2.569 2.429 2.319 2.269 2.199 2.139 2.089
1842.174 2.039 1.959 1.929 1.939 1.919 1.909 1.959 2.009 2.009 1.989
1861.464 1.929 1.869 1.809 1.749 1.729 1.729 1.679 1.669 1.629 1.619
1880.754 1.689 1.749 1.819 1.879 1.939 1.989 2.119 2.239 2.269 2.279
1900.043 2.319 2.379 2.449 2.459 2.409 2.449 2.449 2.359 2.289 2.179
1919.333 2.069 1.979 1.819 1.669 1.559 1.459 1.399 1.339 1.299 1.309
1938.623 1.359 1.429 1.549 1.679 1.809 1.939 2.059 2.219 2.339 2.389
1957.913 2.489 2.629 2.689 2.689 2.719 2.679 2.609 2.509 2.349 2.199
1977.202 2.069 1.849 1.649 1.469 1.269 1.1549 1.0666 0.9741 0.8681 0.7931
1996.492 0.7901 0.7858 0.7734 0.7827 0.741 0.6972 0.6803 0.6733 0.6565 0.633
2015.782 0.6223 0.6229 0.6389 0.6615 0.663 0.6732 0.7191 0.7133 0.7243 0.7155
2035.072 0.6791 0.6909 0.6947 0.6751 0.7016 0.7099 0.6745 0.6356 0.664 0.7008
2054.362 0.69 0.6982 0.7341 0.7437 0.7215 0.7141 0.6847 0.6319 0.5627 0.5079
2073.651 0.4846 0.4924 0.4723 0.4032 0.4163 0.4608 0.4295 0.4086 0.4232 0.4018
2092.941 0.3752 0.414 0.4702 0.449 0.3983 0.3995 0.3757 0.3798 0.412 0.4173
2112.231 0.4171 0.3941 0.3835 0.3736 0.3801 0.4347 0.4726 0.4564 0.4512 0.4823
2131.521 0.5385 0.5287 0.4675 0.4941 0.5245 0.5217 0.5406 0.5493 0.5297 0.5281
2150.810 0.575 0.5954 0.5562 0.5398 0.5825 0.5934 0.5941 0.6326 0.6544 0.6486
2170.100 0.655 0.645 0.6525 0.6448 0.6322 0.6814 0.694 0.691 0.6781 0.6685
2189.390 0.6446 0.5815 0.5486 0.4871 0.4517 0.4794 0.4693 0.4123 0.4172 0.4729
2208.680 0.4709 0.4808 0.5077 0.4815 0.4487 0.4727 0.5212 0.461 0.4484 0.4922
2227.970 0.4841 0.5023 0.5877 0.6316 0.6477 0.722 0.7778 0.8005 0.8639 0.9622
2247.259 0.9703 0.9573 0.9934 1.009 0.9607 0.9116 0.8658 0.8126 0.7863 0.7768
2266.549 0.7565 0.6793 0.6014 0.6138 0.6439 0.6674 0.6493 0.6267 0.628 0.6141
2285.839 0.652 0.6963 0.6766 0.6609 0.6929 0.6782 0.5906 0.5748 0.5755 0.5714
2305.129 0.6058 0.622 0.6614 0.7278 0.783 0.8201 0.8526 0.8423 0.8623 0.9414
2324.418 0.9732 0.9464 0.8558 0.7826 0.7439 0.7123 0.7117 0.7509 0.8196 0.7787
2343.708 0.7322 0.7492 0.7446 0.7258 0.6658 0.6763 0.7358 0.6789 0.6641 0.646
2362.998 0.5789 0.5596 0.5616 0.561 0.5871 0.6534 0.649 0.6156 0.622 0.6095
2382.288 0.5994 0.595 0.5323 0.5089 0.5526 0.5645 0.5613 0.605 0.6124 0.607
2401.578 0.5881 0.5471 0.5407 0.5432 0.5827 0.6362 0.6715 0.7 0.7311 0.7504
2420.867 0.7621 0.7545 0.7453 0.7761 0.8179 0.838 0.8419 0.8198 0.7705 0.826
2440.157 0.8198 0.7048 0.7087 0.7318 0.65 0.5524 0.5747 0.61 0.605 0.5847
2459.447 0.5194 0.3999 0.3275 0.3808 0.4911 0.5271 0.4101 0.389 0.4324 0.4186
2478.737 0.4263 0.4371 0.4705 0.4565 0.4256 0.4232 0.4123 0.4548 0.4973 0.4421
2498.026 0.4313 0.5096 0.5835 0.5777 0.5598 0.5738 0.5547 0.5673 0.6294 0.6556
2517.316 0.5847 0.542 0.583 0.5764 0.5074 0.4691 0.4467 0.4662 0.4934 0.4793
2536.606 0.4866 0.5447 0.5768 0.5391 0.5034 0.5672 0.6289 0.6342 0.5851 0.5392
2555.896 0.543 0.5606 0.6037 0.6271 0.6419 0.7133 0.6988 0.6526 0.7035 0.6943
2575.186 0.6921 0.7279 0.7906 0.8043 0.7414 0.7291 0.7313 0.706 0.7514 0.7524
2594.475 0.7784 0.8277 0.7433 0.6615 0.7039 0.709 0.6585 0.6003 0.4835 0.4711
2613.765 0.5373 0.517 0.5196 0.5863 0.5568 0.5031 0.5102 0.5013 0.4656 0.485
2633.055 0.5353 0.5814 0.5652 0.5241 0.5374 0.5475 0.5102 0.5184 0.5043 0.475
2652.345 0.481 0.4323 0.4219 0.4592 0.4587 0.3962 0.3715 0.3411 0.2908 0.2797
2671.634 0.2829 0.3533 0.3652 0.3412 0.4173 0.45 0.3761 0.2964 0.25494 0.3033
2690.924 0.315 0.3037 0.3598 0.3871 0.3963 0.4639 0.4531 0.4013 0.4559 0.5507
2710.214 0.5983 0.5544 0.5181 0.5013 0.4515 0.4707 0.5694 0.5847 0.5814 0.5355
2729.504 0.5397 0.6011 0.6329 0.6402 0.6335 0.6443 0.6529 0.7595 0.8575 0.7976
2748.794 0.7912 0.8385 0.7857 0.7672 0.7169 0.7299 0.776 0.7492 0.6967 0.6408
2768.083 0.6596 0.6842 0.6424 0.5791 0.6116 0.5765 0.5523 0.5828 0.5813 0.5526
2787.373 0.4707 0.3947 0.3684 0.4156 0.4062 0.3694 0.3798 0.413 0.414 0.4798
2806.663 0.5398 0.5694 0.5629 0.4833 0.4588 0.5084 0.5541 0.5378 0.6128 0.6368
2825.953 0.5935 0.6834 0.6752 0.6311 0.6902 0.7474 0.7625 0.8128 0.9406 1.0051
2845.242 1.0053 0.971 0.952 0.9198 0.9561 0.9822 0.8861 0.8889 0.9666 0.9911
2864.532 0.9793 1.0502 1.1035 1.0383 1.0357 1.1617 1.269 1.249 1.179 1.1668
2883.822 1.1606 1.1648 1.209 1.269 1.289 1.269 1.279 1.269 1.199 1.209
2903.112 1.229 1.269 1.319 1.329 1.319 1.479 1.569 1.379 1.329 1.439
2922.401 1.579 1.669 1.759 1.749 1.759 1.829 1.879 1.989 2.079 2.009
2941.691 1.879 1.859 1.869 1.929 1.879 1.799 1.859 1.919 1.949 2.049
2960.981 2.109 2.139 2.239 2.369 2.469 2.499 2.529 2.619 2.619 2.679
2980.271 2.669 2.619 2.559 2.469 2.549 2.559 2.619 2.719 2.819 2.979
2999.561 3.149 3.479 3.839 4.159 4.489 4.839 5.249 5.509 5.729 6.009
3018.850 6.189 6.319 6.469 6.559 6.549 6.489 6.439 6.489 6.569 6.579
3038.140 6.609 6.679 6.739 6.899 7.069 7.269 7.629 7.999 8.589 9.479
3057.430 10.439 11.569 13.009 14.769 16.529 18.289 19.999 21.279 22.059 22.169
3076.720 21.679 20.889 19.819 18.399 16.829 15.089 13.199 11.709 10.729 10.009
3096.009 9.479 9.069 8.489 7.739 7.049 6.319 5.619 4.919 4.279 3.839
3115.299 3.349 2.799 2.489 2.269 2.099 1.909 1.789 1.719 1.639 1.589
3134.589 1.499 1.499 1.479 1.459 1.529 1.469 1.479 1.489 1.509 1.519
3153.879 1.519 1.489 1.449 1.449 1.449 1.359 1.1687 1.0758 1.0194 0.9662
3173.169 0.8457 0.7763 0.7949 0.7344 0.7089 0.7314 0.6753 0.6223 0.7194 0.7434
3192.458 0.4943 0.4394 0.5029 0.5003 0.6322 0.6895 0.5272 0.4405 0.5704 0.6719
3211.748 0.6057 0.5428 0.518 0.442 0.3446 0.2985 0.424 0.5199 0.4805 0.3521
3231.038 0.309 0.2818 0.305 0.3517 0.2882 0.2842 0.3521 0.386 0.3177 0.3475
3250.328 0.3641 0.3681 0.3697 0.3539 0.3732 0.3366 0.3831 0.4378 0.3883 0.4015
3269.617 0.4995 0.418 0.2965 0.3679 0.4718 0.4979 0.5185 0.5462 0.4867 0.4826
3288.907 0.4665 0.4557 0.4384 0.3746 0.3474 0.3689 0.317 0.331 0.4377 0.4675
3308.197 0.5243 0.5574 0.5252 0.5506 0.6326 0.6394 0.6508 0.7461 0.7712 0.6901
3327.487 0.7153 0.7961 0.8852 0.9796 1.0799 1.299 1.459 1.509 1.629 1.849
3346.777 1.999 2.019 2.209 2.329 2.199 2.179 2.159 2.019 2.009 1.969
3366.066 1.729 1.499 1.439 1.399 1.229 1.1598 1.1254 1.1275 1.0795 0.944
3385.356 0.8801 0.9608 0.973 0.9265 1.0159 1.0685 1.0586 1.0604 1.1013 1.0957
3404.646 1.1019 1.0333 1.0993 1.219 1.249 1.369 1.529 1.569 1.489 1.609
3423.936 1.679 1.699 1.779 1.729 1.659 1.539 1.429 1.439 1.429 1.419
3443.225 1.349 1.219 1.189 1.1587 1.169 1.1012 0.9542 0.8958 0.9217 0.9383
3462.515 0.849 0.6377 0.6241 0.7096 0.687 0.5439 0.5364 0.643 0.4702 0.3824
3481.805 0.4207 0.4849 0.5214 0.371 0.3024 0.3303 0.23069 0.18639 0.22345 0.2774
3501.095 0.2945 0.26207 0.3354 0.3882 0.3808 0.2981 0.19992 0.18412 0.26188 0.4261
3520.385 0.3467 0.25792 0.3326 0.24075 0.22748 0.2936 0.26813 0.25867 0.2053 0.2892
3539.674 0.3598 0.26028 0.3004 0.3177 0.1584 0.0909 0.1523 0.2753 0.2922 0.2714
3558.964 0.3453 0.3143 0.2864 0.22879 0.279 0.3308 0.18626 0.18015 0.3178 0.3169
3578.254 0.204 0.18356 0.21807 0.21508 0.3114 0.3629 0.3094 0.3382 0.3082 0.293
3597.544 0.2816 0.2748 0.2156 0.0863 0 0.035 0.053 0.017 0.0893 0.2006
3616.833 0.21736 0.20455 0.2995 0.3007 0.21522 0.19339 0.24623 0.24551 0.143 0.0862
3636.123 0.059 0.129 0.20136 0.19936 0.2787 0.3797 0.5043 0.5716 0.5403 0.3374
3655.413 0.26634 0.4301 0.4903 0.3758 0.2691 0.19434 0.22645 0.3537 0.3178 0.2838
3674.703 0.2917 0.20968 0.1257 0.1206 0.2507 0.3998 0.3646 0.2945 0.4018 0.4479
3693.993 0.23881 0.1317 0.26311 0.3272 0.3304 0.3835 0.3434 0.3163 0.4434 0.4865
3713.282 0.4621 0.3569 0.2966 0.4206 0.3689 0.24593 0.26117 0.399 0.3418 0.3368
3732.572 0.3886 0.2969 0.3287 0.26028 0.22277 0.26258 0.2931 0.172544 0.049 0.19036
3751.862 0.371 0.4897 0.4856 0.401 0.4031 0.4626 0.4075 0.3251 0.3312 0.3758
3771.152 0.4447 0.3721 0.336 0.3596 0.19721 0.1037 0.0892 0.1286 0.24107 0.2835
3790.441 0.26181 0.16594 0.25675 0.4205 0.4005 0.24745 0.20527 0.21266 0.0994 0.039
3809.731 0.24725 0.3833 0.20218 0.1226 0.1516 0.23615 0.35 0.4835 0.3856 0.26196
3829.021 0.22477 0.1924 0.3301 0.19475 0.0799 0.20314 0.0927 0.017 0.028 0.1152
3848.311 0.18576 0.0824 0.20263 0.3356 0.3136 0.3588 0.3774 0.16545 0.0896 0.24016
3867.601 0.2891 0.3812 0.4221 0.4667 0.3261 0.15954 0.21639 0.2953 0.3151 0.2812
3886.890 0.1455 0.178291 0.3043 0.26264 0.0955 0.175996 0.3153 0.24529 0.2513 0.3511
3906.180 0.4405 0.3729 0.3687 0.3993 0.3423 0.23918 0.25523 0.3932 0.3907 0.17193
3925.470 0.0972 0.1401 0.23374 0.26628 0.3664 0.5268 0.4117 0.3608 0.3625 0.4132
3944.760 0.5078 0.4664 0.3234 0.26824 0.4348 0.5476 0.6001 0.6323 0.5223 0.4836
3964.049 0.5874 0.6224 0.6253 0.605 0.4888 0.4554 0.3624 0.24177 0.3635 0.478
3983.339 0.4766 0.4035 0.3031 0.3921 0.3787 0.3518 0.3816 0.3584 0.4883 0.5268
##END=
