##TITLE=4-Amino-3-bromobenzotrifluoride
##JCAMP-DX=4.24
##DATA TYPE=INFRARED SPECTRUM
##ORIGIN=EPA-IR VAPOR PHASE LIBRARY
##OWNER=SRD/NIST
Collection (C) 2018 copyright by the U.S. Secretary of Commerce
on behalf of the United States of America. All rights reserved.
##CAS REGISTRY NO=57946-63-1
##MOLFORM=C 7 H 5 Br F 3 N
##$NIST SOURCE=MSDC-IR
##STATE=gas
##XUNITS=1/CM
##YUNITS=ABSORBANCE
##XFACTOR=1.
##YFACTOR=0.001
##DELTAX=1.92898
##FIRSTX=549.8
##LASTX=4000.7
##FIRSTY=7.58
##MAXX=4000.7
##MINX=549.759
##MAXY=0.51509
##MINY=0
##NPOINTS=1790
##XYDATA=(X++(Y..Y))
549.759 7.58 7.57 8.26 8.43 7.79 7.64 8.63 8.97 9.14 9.63
569.049 8.86 9.56 10.29 10.34 11.18 11.55 11.83 12.03 12.17 11.85
588.339 11.96 12.66 12.24 12.24 12.8 13.87 15 16.29 18.14 20.7
607.628 24.5 29.35 36.29 44.11 50.21 53.17 53.81 52.65 49.34 42.69
626.918 34.54 27.86 22.54 19.06 16.67 14.93 13.56 12.03 11.14 10.82
646.208 10.86 10.97 10.88 11.21 12.04 12.54 12.57 13.03 13.72 14.83
665.498 16.79 18.2 19.91 22.4 25.41 30.34 36.94 45.14 53.33 58.25
684.787 59.36 58.56 56.22 49.5 39.13 30.17 24.43 21.66 20.85 20.25
704.077 20.21 20.38 20.53 20.79 21.08 21.84 22.67 23.09 23.33 23.04
723.367 22.77 22.08 20.91 19.8 18.75 18.01 17.33 16.71 15.98 15.26
742.657 14.95 15.21 15.08 14.88 15.01 15.22 15.33 15.28 14.98 14.63
761.947 14.33 14.12 14.44 14.58 13.98 13.04 12.53 12.26 11.65 11.35
781.236 11.7 12.2 12.32 12.03 11.71 11.77 12.1 13.12 14.4 16.15
800.526 18.38 21.23 24.59 27.73 30.74 34.1 37.28 39.14 39.82 39.06
819.816 36.55 32.83 29.64 26.52 23.39 20.7 18.23 16.26 14.84 13.99
839.106 13.99 14.32 15.06 16.8 18.08 18.4 18.84 18.64 17.75 16.69
858.395 15.03 13.88 13.11 13.05 13.06 11.92 11.5 11.65 11.83 12.19
877.685 12.51 13.87 16.02 18.29 20.91 23.31 25.4 27.76 30.26 29.42
896.975 25.29 21.54 18.84 16.23 13.34 11.31 9.8 8.28 7.35 7.05
916.265 6.72 6.39 6.1 5.7 5.51 5.74 6.18 6.04 6.38 7.27
935.555 6.77 6.2 6.45 6.7 6.69 6.48 6.39 6.76 6.63 6.07
954.844 5.96 6.18 6.14 5.59 5.72 5.97 5.97 5.54 5.26 5.21
974.134 5.26 5.8 6.08 5.87 5.84 5.66 5.01 5.04 5.28 5.31
993.424 5.4 5.2 5.6 6.07 5.4 5.44 6.38 6.33 6.13 6.14
1012.714 6.38 6.87 7.46 8.83 10.61 11 12.31 15.44 18.09 20.29
1032.003 20.92 22.25 24.67 25.35 25.01 23.6 22.45 21.73 20.14 20.09
1051.293 20.06 19.21 20.11 21.07 22.29 25.48 29.27 33.72 39.83 46.08
1070.583 52.51 59.69 67.27 73.2 76.28 76.83 77.09 75.65 71.03 68.16
1089.873 64 57.72 50.34 44.04 39.43 33.88 28.99 27.23 27.05 25.82
1109.163 27.28 29.7 31.52 35.99 42.26 50.24 59.8 73.7 92.11 112.79
1128.452 136.78 165.12 196.13 228.93 263.41 293.6 312.34 317.64 307.48 283.8
1147.742 256.49 229.18 202.88 178.14 155.63 138.98 129.89 129.21 135.42 146.47
1167.032 160.67 173.96 182.42 181.43 170.12 153.25 135.36 115.02 91.83 69.96
1186.322 52.3 41.84 35.52 30.92 28.35 26.07 23.08 21.22 20.7 18.56
1205.611 16.74 15.89 15.07 15.58 16.79 16.73 15.12 12.28 11.37 12.96
1224.901 13.82 14.17 15.04 14.93 14.34 14.39 14.88 16.45 17.04 17.62
1244.191 20.45 24.07 28.78 35.45 44.74 56.52 69.39 80.46 86.92 89.08
1263.481 86.79 78.26 63.63 48.46 38.57 34.26 33.16 33.73 36.33 40.45
1282.771 45.91 53.17 61.04 69.84 79.56 89.93 101.32 113.48 127.09 143.51
1302.060 162.36 183.09 204.67 226.53 250.89 281.19 320.75 370.66 425.89 476.34
1321.350 509.26 515.09 493.41 444.47 367.75 273.98 185 120.67 83.74 64.26
1340.640 53.07 45.86 40.21 35.4 31.19 27.22 23.63 20.49 18.07 16.1
1359.930 14.5 13.57 13.48 13.78 14.33 15.23 16.23 17.36 18 18.18
1379.219 18.08 17.42 16.48 15.34 14.17 13.26 12.7 12.61 12.82 13.46
1398.509 14.76 16.84 19.55 22.64 25.9 28.92 30.99 31.8 31.46 30.46
1417.799 28.38 24.79 20.55 16.54 13.4 11.24 9.62 8.61 7.94 7.35
1437.089 6.89 6.51 6.12 5.56 5.26 4.98 4.5 4.33 4.06 4.02
1456.378 4.17 4.29 4.51 4.46 4.47 4.54 4.47 4.55 4.75 4.86
1475.668 5.08 5.28 5.17 5.09 5.41 5.86 6.21 6.74 7.45 8.3
1494.958 9.48 11.24 13.55 16.31 19.37 22.28 24.73 26.5 27.46 27.33
1514.248 26.55 24.71 21.94 19.33 17.09 15.42 13.88 12.26 10.64 9.73
1533.538 9 8.28 7.86 7.52 7.17 6.77 6.47 6.15 6.03 6.08
1552.827 6.03 6.16 6.39 6.8 7.05 7.11 7.34 7.34 7.55 7.84
1572.117 8.01 8.32 8.43 8.44 8.59 8.95 9.27 9.84 10.45 11.16
1591.407 12.78 14.63 16.26 18.57 21.2 24.36 28.61 33.92 40.23 48.28
1610.697 58.22 70.02 83.49 99.29 115.54 129.47 140.49 147.14 148.36 143.85
1629.986 134.77 122.21 107.35 91.76 77.5 65.49 55.26 46.36 38.78 32.49
1649.276 26.9 22.4 18.77 15.89 13.59 11.79 10.31 9.08 8.16 7.36
1668.566 6.91 6.37 5.65 5.23 4.91 4.72 4.34 4.2 4.33 4.09
1687.856 3.98 3.99 3.93 3.82 3.64 3.8 4.2 4.45 4.32 4.15
1707.146 4.22 4.33 4.25 4.16 4.42 4.47 4.32 4.37 4.33 4.29
1726.435 4.09 3.95 4.17 4.4 4.28 4.2 4.19 4.14 4.28 4.41
1745.725 4.55 4.7 4.85 5.02 5.13 5.09 5.07 4.9 4.73 4.59
1765.015 4.43 4.43 4.62 4.91 4.93 4.96 5.14 5.15 5.11 5.03
1784.305 4.83 4.66 4.3 3.94 3.72 3.45 3.09 2.8 2.59 2.36
1803.594 2.22 2.0381 1.9962 2.0793 2.0104 2.0388 2.0867 2.0475 2.34 2.46
1822.884 2.31 2.25 2.25 2.35 2.27 2.16 2.31 2.37 2.35 2.36
1842.174 2.23 2.3 2.38 2.18 1.968 2.0145 2.1 2.0849 2.0759 2.16
1861.464 2.19 2.28 2.58 2.78 2.88 2.99 3.18 3.54 3.97 4.52
1880.754 4.88 4.99 4.96 4.74 4.62 4.5 4.14 3.74 3.37 3.08
1900.043 2.71 2.68 2.76 2.56 2.49 2.55 2.38 2.12 2.12 2.2
1919.333 2.34 2.35 2.33 2.33 2.18 2.12 2.21 2.28 2.26 2.2
1938.623 2.0219 2.11 2.2 2.0609 2.11 2.15 2.13 2.0784 1.9237 1.8558
1957.913 1.7934 1.7897 1.8971 2.0083 2.0766 2.025 2.0688 2.0708 2.0326 2.0575
1977.202 2.13 2.29 2.21 2.0836 2.18 2.18 2.0581 2.0818 1.9749 1.9389
1996.492 1.9096 1.9426 2.24 2.24 2.27 2.22 2.0709 2.15 2.15 2.1
2015.782 2.12 2.21 2.35 2.32 2.15 1.9955 2.0864 2.0551 2.0247 1.9979
2035.072 1.9314 2.15 2.0327 1.8878 2.0647 2.13 1.9982 1.8857 1.8098 1.7609
2054.362 1.7661 1.9239 1.8651 1.7968 2.16 2.4 2.37 2.51 2.66 2.61
2073.651 2.56 2.55 2.57 2.68 2.63 2.64 2.68 2.55 2.51 2.43
2092.941 2.26 2.2 2.26 2.24 2.0183 1.968 1.9777 1.9382 2.09 2.0786
2112.231 1.9527 1.845 1.922 2.0658 1.9567 1.8125 1.811 1.7914 1.7541 1.8051
2131.521 1.881 2.0673 2.12 1.8829 1.8187 1.8728 1.7861 1.7551 1.7606 1.9064
2150.810 1.9433 1.8981 2.14 2.36 2.3 2.19 2.27 2.23 2.19 2.31
2170.100 2.25 2.19 2.24 2.29 2.3 2.3 2.36 2.0417 1.8227 1.9938
2189.390 2.0744 2.0584 2.23 2.24 1.9588 1.9337 2.19 2.33 2.26 2.11
2208.680 2.0062 2.0666 2.15 2.18 2.13 2.0773 2.0515 2.19 2.2 2.11
2227.970 2.22 2.21 2.29 2.27 2.15 2.2 2.24 2.27 2.31 2.22
2247.259 2.12 2.24 2.29 2.28 2.45 2.45 2.43 2.48 2.4 2.43
2266.549 2.51 2.55 2.47 2.48 2.62 2.6 2.34 2.16 2.0818 1.8858
2285.839 1.7096 1.7566 1.7838 1.6907 1.5951 1.6446 1.988 2.12 1.9177 2.0349
2305.129 2.1 1.9256 1.9085 1.9596 2.19 2.14 2.09 2.26 2.38 2.45
2324.418 2.54 2.54 2.28 1.9969 2.24 2.34 2.23 2.24 2.2 2.32
2343.708 2.43 2.33 2.25 2.12 2.0352 2.0507 2.018 2.0183 1.9179 2.0249
2362.998 2.0362 1.8838 2.0124 1.9886 1.6966 1.7662 1.7973 1.5652 1.6397 1.7851
2382.288 1.5868 1.4302 1.5417 1.4086 1.3552 1.6226 1.4986 1.4563 1.5367 1.62
2401.578 1.8533 1.7517 1.5304 1.5022 1.5297 1.5437 1.5713 1.579 1.4294 1.3596
2420.867 1.4439 1.3972 1.3447 1.536 1.4304 1.213 1.238 1.1957 1.3115 1.3512
2440.157 1.2567 1.4643 1.544 1.3428 1.5989 1.6714 1.5453 1.5308 1.3201 1.3695
2459.447 1.5597 1.9299 2.0428 1.7876 1.7037 1.6492 1.7828 2.0181 1.9307 1.9293
2478.737 2.059 1.8413 1.6059 1.7849 2.0437 1.8366 1.6436 1.7381 1.5734 1.4218
2498.026 1.4587 1.3519 1.2901 1.2921 1.4874 1.7674 1.6235 1.4128 1.17326 1.0148
2517.316 1.12138 1.18098 1.3605 1.3778 1.17715 0.9936 1.0111 1.2628 1.4441 1.2986
2536.606 1.3573 1.438 1.3779 1.5107 1.6697 1.6867 1.4306 1.6255 1.6824 1.4853
2555.896 1.7095 1.8252 1.8585 1.8969 1.9134 1.9749 1.9744 2.0763 2.37 2.28
2575.186 2.0713 1.9537 1.5841 1.5334 1.6614 1.5356 1.5087 1.53 1.5036 1.6081
2594.475 1.7778 1.742 1.6648 1.9146 2.17 2.24 2.25 2.4 2.69 2.74
2613.765 2.78 3.16 3.32 3.15 3.1 2.99 2.89 3.03 3.26 3.4
2633.055 3.27 3.21 3.33 3.25 2.92 2.66 2.38 2.32 2.24 1.9842
2652.345 2.18 2.27 2.0137 1.8143 1.7333 1.6312 1.4819 1.3536 1.6927 1.76
2671.634 1.2156 1.16409 1.7015 1.5536 1.2125 1.4516 1.1957 1.0318 1.2242 1.4465
2690.924 1.2141 0.919 1.224 1.3207 1.09639 1.0323 1.3125 1.2678 1.14201 1.2959
2710.214 1.0397 0.751 0.985 1.1805 1.0094 0.989 1.0333 1.15891 1.2907 1.2521
2729.504 1.0704 1.048 0.9956 0.843 0.945 0.872 0.745 1.031 1.039 0.642
2748.794 0.861 1.2247 0.988 0.619 0.433 0.679 1.16422 1.2531 1.3608 1.1279
2768.083 0.928 0.903 0.78 0.949 0.941 1.1253 1.2236 1.066 1.15613 1.4194
2787.373 1.038 0.649 0.785 0.915 0.967 1.0423 1.2686 1.2075 1.15538 1.1924
2806.663 1.17751 1.4422 1.3118 1.15657 1.043 0.844 1.2711 1.4548 1.4149 1.357
2825.953 1.4551 1.6286 1.6105 1.6684 1.681 1.5833 1.2327 1.16952 1.3222 1.2567
2845.242 1.12349 1.0577 0.953 0.885 0.971 1.0075 1.0514 1.2505 1.15613 0.753
2864.532 0.746 0.651 0.496 0.888 1.2527 1.3044 1.2653 1.4759 1.7405 1.5855
2883.822 1.4655 1.3061 1.12626 1.223 1.3799 1.5594 1.4179 1.0306 0.856 1.0254
2903.112 1.2744 1.5908 1.7432 1.4871 1.5619 1.8126 1.8493 1.8789 1.8471 1.9974
2922.401 2.27 2.38 2.33 2.18 1.9406 1.6992 1.4299 1.3489 1.6806 1.82
2941.691 1.9256 1.899 1.5211 1.5222 1.3615 1.2485 1.5935 1.6112 1.6961 1.6275
2960.981 1.14688 1.1262 0.9946 0.781 1.12021 1.3638 1.15216 1.09357 1.2665 0.978
2980.271 0.833 0.843 0.905 1.15989 1.11756 1.0768 1.3542 1.4585 1.3352 1.5341
2999.561 1.9598 2.23 2.012 1.8675 2.0856 2.12 2.25 2.35 2.39 2.66
3018.850 2.67 2.91 3.16 2.9 3.1 3.76 3.85 3.71 4.01 4.05
3038.140 4.26 4.95 5.32 5.47 5.26 5.05 4.81 4.54 4.3 3.88
3057.430 3.65 3.51 3.53 3.4 3.34 3.82 4.09 4.13 4.46 4.82
3076.720 4.69 4.46 4.63 4.22 3.47 2.86 2.53 2.42 2.32 2.4
3096.009 2.26 1.7866 1.8838 2.0479 1.9552 2.18 1.7138 1.4466 1.6604 1.6074
3115.299 1.2492 1.12423 1.5834 1.5337 1.2904 1.2396 1.4272 1.5751 1.3312 1.4301
3134.589 1.4026 1.2522 1.3613 1.4059 1.5532 1.6706 1.6367 1.4819 1.5139 1.8547
3153.879 1.822 1.5956 1.7408 1.7243 1.2936 1.3058 1.495 1.6163 1.7373 1.5224
3173.169 1.3578 1.4528 1.4954 1.8567 1.8406 1.6474 1.9453 1.953 1.6818 1.6483
3192.458 1.7967 1.9277 2.2 2.31 1.9782 1.8956 1.9249 2.066 2.45 2.33
3211.748 2.0551 2.0584 1.9672 1.7503 1.7763 1.7633 1.4238 1.5261 1.8262 1.5123
3231.038 1.366 1.207 1.14925 1.15746 1.14051 0.91 1.08665 1.8229 1.8496 1.7661
3250.328 1.5544 1.2963 1.3598 1.4271 1.3724 1.15628 1.199 1.3013 1.0636 1.316
3269.617 1.3962 1.229 1.13353 1.0082 1.0026 0.843 1.08112 1.12567 0.79 0.984
3288.907 0.957 0.539 0.772 1.2174 1.4002 1.0265 1.14025 1.6359 1.6496 1.3904
3308.197 0.899 0.773 0.691 0.567 0.54 0.628 1.017 1.2986 1.1903 0.911
3327.487 1.0132 0.762 0.453 0.559 0.735 0.846 0.921 0.542 0.472 1.1647
3346.777 0.9974 0.729 1.08981 1.2077 1.3553 1.338 1.4358 1.699 1.2187 1.1488
3366.066 1.5266 1.4547 1.7569 1.9065 1.7885 2.11 2.62 3.24 3.35 3.68
3385.356 4.21 4.87 5.62 6.56 7.83 9.12 10.65 12.57 15.14 17.76
3404.646 19.65 21.52 22.83 23.45 23.59 23.55 23.41 22.48 21.44 20.13
3423.936 18.55 17.79 16.9 14.97 13.08 11.94 11.13 9.69 8.15 6.64
3443.225 5.24 4.28 3.79 3.84 3.73 3.05 2.85 3.08 3.04 2.98
3462.515 2.73 2.67 3.52 3.72 3.46 4.04 4.36 4.48 5.19 5.4
3481.805 5.68 6.87 7.26 7.85 9.45 10.94 11.92 12.81 13.75 14.67
3501.095 15.25 15.46 16.03 16.32 15.87 15.29 15.29 14.81 13.89 13.13
3520.385 13.09 13.48 12.6 11.97 11.81 11.08 11.19 11.31 10.67 9.7
3539.674 8.88 8.14 6.95 6.17 5.23 4.03 3.37 3.03 2.61 2.13
3558.964 2.35 2.55 2.0397 1.653 1.5071 1.0319 0.653 1.236 1.16667 1.10013
3578.254 1.5259 1.7152 1.7485 1.10264 0.823 0.417 0.391 1.0549 1.2335 1.3318
3597.544 1.8204 1.5655 0.952 1.0373 0.654 0.48 0.778 0.763 1.0469 1.2457
3616.833 1.09849 1.3691 1.5117 1.16493 1.1801 1.3306 1.4164 1.4695 1.3661 1.4193
3636.123 1.15541 0.927 0.794 0.684 1.18454 1.4174 0.874 0.552 0.697 0.95
3655.413 1.14453 1.13771 1.2285 1.1943 1.0702 0.903 0.653 0.785 1.001 0.508
3674.703 0.771 1.2352 0.908 0.839 0.891 1.16387 1.0953 1.0716 1.11169 1.1036
3693.993 1.10278 0.845 0.798 0.781 1.054 1.2226 1.2158 1.3702 1.3219 1.2131
3713.282 1.2203 1.3852 1.2497 0.85 0.653 0.752 0.711 0.675 1.15619 1.14595
3732.572 0.795 0.743 0.928 0.947 0.916 1.1066 1.5407 1.6783 1.10114 0.855
3751.862 1.10978 0.857 1.0757 1.2426 0.963 1.3711 1.3087 1.5022 1.6768 0.981
3771.152 0.891 1.0551 1.0118 0.987 1.0538 1.5013 1.2671 0.947 1.0149 0.963
3790.441 0.866 0.664 0.356 0 0.235 0.36 1.0423 1.3717 0.669 0.512
3809.731 0.751 0.885 0.653 0.775 1.3825 1.3001 0.944 0.789 0.79 1.2337
3829.021 1.6553 1.7063 1.8294 2.085 2.33 2.3 1.9346 1.9349 1.7542 1.239
3848.311 1.0552 1.2533 1.5687 1.5841 1.5091 1.5304 1.4268 1.0044 0.811 1.1907
3867.601 1.6105 1.7812 1.5967 1.4933 1.9822 1.6178 1.4455 1.9427 1.8728 1.5739
3886.890 1.5672 1.746 1.3502 0.898 1.0493 1.0127 0.82 0.665 0.768 1.4689
3906.180 1.4779 1.0059 1.1013 1.2464 1.0392 0.892 0.577 0.382 0.944 1.756
3925.470 1.5912 0.769 0.383 0.889 1.6371 1.509 1.13506 1.0354 0.688 0.817
3944.760 0.967 1.0412 1.3714 1.4225 1.4664 1.6123 1.5008 1.3949 1.4575 1.3032
3964.049 1.2843 1.4304 1.5031 1.486 1.6071 1.6131 1.5907 1.6246 1.2534 1.08545
3983.339 0.885 1.10886 1.4861 1.4108 1.2447 0.634 0.69 1.2379 1.4181 1.8483
##END=
