##TITLE=Promazine
##JCAMP-DX=4.24
##DATA TYPE=INFRARED SPECTRUM
##ORIGIN=NIST Mass Spectrometry Data Center
##OWNER=NIST Standard Reference Data Program
Collection (C) 2018 copyright by the U.S. Secretary of Commerce
on behalf of the United States of America. All rights reserved.
##CAS REGISTRY NO=58-40-2
##MOLFORM=C 17 H 20 N 2 S
##$NIST SOURCE=MSDC-IR
##SPECTROMETER/DATA SYSTEM=HP-GC/MS/IRD
##STATE=gas
##XUNITS=1/CM
##YUNITS=ABSORBANCE
##XFACTOR=1.0
##YFACTOR=0.000002000
##DELTAX=4.0
##FIRSTX=550.0
##LASTX=3846.0
##FIRSTY=0.000494
##MAXX=3846
##MINX=550
##MAXY=0.02
##MINY=0
##NPOINTS=825
##XYDATA=(X++(Y..Y))
550.0 247 172 128 64 40 75 62 77 92 119
590.0 107 79 97 92 133 138 120 121 102 88
630.0 88 93 81 60 30 0 6 20 62 131
670.0 163 145 134 149 178 236 269 271 266 267
710.0 358 552 955 1522 1773 1707 1980 3131 4751 5437
750.0 4182 2217 1008 537 384 312 247 218 197 174
790.0 164 182 200 196 193 211 228 249 310 352
830.0 349 354 343 329 328 310 292 265 244 235
870.0 224 220 237 224 201 205 205 208 195 165
910.0 157 165 195 225 226 192 140 119 132 133
950.0 128 158 211 270 329 359 359 329 285 261
990.0 265 290 336 392 455 501 527 582 701 917
1030.0 1233 1554 1703 1611 1398 1249 1218 1179 1101 1011
1070.0 900 772 657 596 597 656 757 867 947 918
1110.0 790 695 731 914 1116 1130 939 767 689 650
1150.0 652 673 716 774 807 785 720 636 584 555
1190.0 558 605 690 858 1114 1435 1758 2005 2155 2222
1230.0 2291 2468 2787 3137 3333 3170 2682 2156 1819 1698
1270.0 1739 1844 1896 1839 1677 1485 1349 1254 1153 1062
1310.0 1012 1024 1074 1190 1430 1775 2066 2132 1975 1698
1350.0 1423 1239 1186 1207 1246 1247 1183 1062 916 764
1390.0 620 507 439 420 409 409 427 464 564 735
1430.0 998 1467 2190 2986 3736 4887 6912 9223 10000 8486
1470.0 5967 3988 2983 2489 2095 1740 1432 1117 840 624
1510.0 481 408 338 290 260 246 232 210 219 265
1550.0 329 415 548 759 965 1111 1127 1051 1029 1088
1590.0 1148 1086 878 605 402 289 220 191 183 166
1630.0 153 138 127 119 126 135 134 158 182 181
1670.0 172 158 146 131 124 134 120 92 89 95
1710.0 76 53 46 54 51 34 25 39 56 63
1750.0 66 89 110 121 127 111 89 78 66 61
1790.0 68 85 95 90 89 77 57 42 42 51
1830.0 57 71 87 94 105 105 90 70 59 67
1870.0 96 142 174 184 161 121 96 79 71 90
1910.0 135 173 200 190 137 79 43 27 12 6
1950.0 7 3 5 14 20 18 13 9 6 11
1990.0 19 16 16 17 13 9 14 15 11 12
2030.0 13 8 3 8 16 13 5 8 10 6
2070.0 11 17 18 19 17 16 10 11 25 23
2110.0 14 15 20 19 18 26 23 10 0 3
2150.0 7 11 13 8 7 9 14 11 6 10
2190.0 17 21 15 14 14 11 12 4 0 9
2230.0 10 9 10 10 6 9 16 10 6 14
2270.0 17 20 23 25 27 23 25 29 31 32
2310.0 34 46 54 55 53 38 33 25 20 33
2350.0 35 27 29 29 33 34 28 33 35 26
2390.0 24 29 34 36 38 37 36 40 42 42
2430.0 47 50 49 63 73 66 60 56 60 67
2470.0 65 65 62 61 60 54 58 76 91 90
2510.0 92 96 98 102 108 108 104 110 119 119
2550.0 118 126 142 143 141 145 146 148 142 138
2590.0 126 114 104 96 95 98 103 104 115 121
2630.0 114 116 123 119 117 125 132 140 144 151
2670.0 160 164 179 200 221 231 240 272 305 341
2710.0 392 430 470 522 570 609 650 691 735 793
2750.0 879 1001 1176 1454 1865 2361 2721 2766 2575 2353
2790.0 2198 2102 2022 1917 1805 1762 1813 1941 2062 2023
2830.0 1808 1542 1358 1274 1257 1284 1359 1467 1559 1572
2870.0 1512 1396 1271 1188 1137 1129 1141 1165 1197 1226
2910.0 1248 1290 1366 1488 1648 1808 1938 2059 2222 2401
2950.0 2504 2445 2252 2051 1967 2055 2212 2229 1985 1584
2990.0 1207 941 792 714 665 630 593 548 506 480
3030.0 458 445 456 477 525 602 718 923 1278 1798
3070.0 2314 2442 2024 1385 916 691 551 425 328 259
3110.0 205 183 162 148 146 135 134 144 140 133
3150.0 127 122 97 83 97 96 83 76 73 64
3190.0 60 73 72 60 63 63 52 52 58 47
3230.0 39 40 38 40 39 25 21 32 36 41
3270.0 40 29 27 38 47 37 32 29 17 23
3310.0 33 32 36 35 20 12 22 33 44 44
3350.0 39 42 33 17 25 29 20 38 48 31
3390.0 19 24 28 37 40 36 33 25 26 50
3430.0 72 59 38 57 61 48 46 40 29 27
3470.0 28 33 41 43 41 25 22 32 31 31
3510.0 25 39 47 36 31 26 27 42 48 38
3550.0 35 28 26 42 34 25 24 25 38 32
3590.0 21 27 38 24 7 23 25 21 27 11
3630.0 0 19 39 28 5 10 30 49 53 35
3670.0 17 8 16 28 27 20 33 51 44 35
3710.0 16 5 17 21 23 26 24 28 38 26
3750.0 16 36 43 31 33 46 57 52 50 39
3790.0 34 63 72 61 58 57 47 49 66 61
3830.0 51 53 47 46 66
##END=
