##TITLE=Triphenylethylene
##JCAMP-DX=4.24
##DATA TYPE=INFRARED SPECTRUM
##ORIGIN=NIST Mass Spectrometry Data Center
##OWNER=NIST Standard Reference Data Program
Collection (C) 2018 copyright by the U.S. Secretary of Commerce
on behalf of the United States of America. All rights reserved.
##CAS REGISTRY NO=58-72-0
##MOLFORM=C 20 H 16
##$NIST SOURCE=MSDC-IR
##SPECTROMETER/DATA SYSTEM=HP-GC/MS/IRD
##STATE=gas
##XUNITS=1/CM
##YUNITS=ABSORBANCE
##XFACTOR=1.0
##YFACTOR=0.000002100
##DELTAX=4.0
##FIRSTX=550.0
##LASTX=3846.0
##FIRSTY=0.001705
##MAXX=3846
##MINX=550
##MAXY=0.021
##MINY=0
##NPOINTS=825
##XYDATA=(X++(Y..Y))
550.0 812 1011 520 312 224 316 503 898 1695 2247
590.0 1948 1147 614 510 518 497 474 479 448 371
630.0 364 468 571 653 752 876 1028 1127 1233 1498
670.0 1844 2121 2418 3071 4406 6696 9207 10000 8468 5843
710.0 3929 3158 2888 2554 2008 1548 1317 1306 1572 2239
750.0 3244 4259 4583 3944 3206 2839 2545 2095 1563 1183
790.0 964 817 705 629 600 561 545 527 489 479
830.0 491 498 505 503 500 536 625 745 888 1018
870.0 1009 858 735 680 639 641 682 767 867 894
910.0 893 887 825 730 666 670 713 842 1022 1098
950.0 991 798 668 639 621 615 612 578 546 513
990.0 496 524 591 626 602 605 662 765 1033 1458
1030.0 1686 1444 986 670 531 503 536 591 725 936
1070.0 1119 1122 924 691 517 432 378 366 361 324
1110.0 284 228 214 212 179 145 144 160 149 124
1150.0 129 144 126 103 84 116 214 314 358 304
1190.0 173 78 52 41 43 52 20 1 41 80
1230.0 98 115 120 116 105 119 127 128 144 141
1270.0 136 149 156 166 178 178 194 212 228 246
1310.0 251 251 267 303 349 380 370 355 369 406
1350.0 461 544 643 697 705 674 616 566 516 456
1390.0 428 409 385 385 383 403 440 475 530 615
1430.0 748 960 1329 1758 1915 1667 1215 852 726 713
1470.0 765 905 1153 1518 1987 2539 2907 2688 2000 1295
1510.0 877 681 561 507 498 509 505 479 456 456
1550.0 456 435 425 471 534 629 733 848 991 1191
1590.0 1494 1855 2064 1903 1455 995 707 548 433 365
1630.0 322 277 268 265 257 256 276 333 353 356
1670.0 346 329 312 262 236 244 234 221 229 253
1710.0 263 259 259 295 329 321 314 337 356 350
1750.0 333 321 302 283 270 274 303 320 353 426
1790.0 517 594 610 553 471 403 357 315 271 239
1830.0 229 218 200 191 197 221 256 287 332 377
1870.0 416 450 455 446 420 369 313 259 223 207
1910.0 201 202 228 280 331 404 513 614 645 610
1950.0 583 555 469 329 206 142 120 110 101 86
1990.0 74 67 61 63 68 67 63 57 54 45
2030.0 46 55 44 35 48 43 29 29 28 20
2070.0 14 22 34 31 17 19 26 18 20 19
2110.0 0 6 25 20 18 27 27 23 14 11
2150.0 17 18 18 11 7 16 23 24 31 24
2190.0 18 19 13 7 10 13 23 19 14 16
2230.0 10 15 25 21 22 21 24 33 32 29
2270.0 32 33 30 34 39 36 33 34 44 66
2310.0 100 117 104 73 55 55 55 77 81 58
2350.0 42 39 42 42 44 42 24 19 33 46
2390.0 57 69 65 56 61 70 73 68 74 86
2430.0 74 68 65 60 58 56 60 57 59 70
2470.0 67 53 47 55 63 64 62 62 71 67
2510.0 57 62 75 80 82 91 92 78 85 91
2550.0 81 80 90 81 84 105 101 91 106 117
2590.0 112 113 113 112 115 117 112 114 105 95
2630.0 113 116 100 92 88 78 83 98 102 89
2670.0 94 112 90 93 100 77 81 98 88 83
2710.0 99 109 107 110 120 128 137 132 130 131
2750.0 118 115 129 132 135 135 127 126 125 129
2790.0 133 154 164 163 161 148 144 144 150 162
2830.0 168 170 182 191 193 197 195 189 190 198
2870.0 194 201 229 247 254 251 237 223 224 228
2910.0 217 215 239 273 288 286 295 300 302 313
2950.0 330 350 367 382 396 403 402 420 436 450
2990.0 511 589 677 829 1052 1378 1863 2538 3309 3946
3030.0 4183 3915 3317 2788 2618 2868 3553 4809 6469 7619
3070.0 7355 6057 5003 4545 4047 3311 2602 2110 1801 1506
3110.0 1174 877 631 481 413 393 360 352 379 355
3150.0 317 300 260 223 196 187 178 153 141 125
3190.0 122 119 122 135 127 139 142 129 139 144
3230.0 134 136 137 128 116 118 109 100 108 107
3270.0 112 95 79 91 110 114 95 98 112 108
3310.0 91 88 102 108 88 86 95 82 74 77
3350.0 83 79 65 79 71 72 97 77 77 84
3390.0 82 73 50 48 58 90 98 86 84 90
3430.0 72 43 45 61 82 84 88 85 72 60
3470.0 62 67 58 57 64 55 48 17 23 67
3510.0 58 39 68 80 43 56 59 13 12 48
3550.0 61 50 48 28 29 58 57 63 58 18
3590.0 19 58 66 56 48 50 60 82 90 81
3630.0 82 89 101 97 74 84 103 106 79 86
3670.0 103 100 117 137 116 100 123 108 109 130
3710.0 113 90 85 74 82 96 60 75 112 113
3750.0 105 90 94 99 115 106 115 126 114 98
3790.0 104 114 84 89 116 111 96 96 101 103
3830.0 112 112 97 110 119
##END=
