##TITLE=Lindane
##JCAMP-DX=4.24
##DATA TYPE=INFRARED SPECTRUM
##ORIGIN=NIST Mass Spectrometry Data Center
##OWNER=NIST Standard Reference Data Program
Collection (C) 2018 copyright by the U.S. Secretary of Commerce
on behalf of the United States of America. All rights reserved.
##CAS REGISTRY NO=58-89-9
##MOLFORM=C 6 H 6 Cl 6
##$NIST SOURCE=MSDC-IR
##SPECTROMETER/DATA SYSTEM=HP-GC/MS/IRD
##STATE=gas
##XUNITS=1/CM
##YUNITS=ABSORBANCE
##XFACTOR=1.0
##YFACTOR=0.000001200
##DELTAX=4.0
##FIRSTX=550.0
##LASTX=3846.0
##FIRSTY=0.000362
##MAXX=3846
##MINX=550
##MAXY=0.012
##MINY=0
##NPOINTS=825
##XYDATA=(X++(Y..Y))
550.0 302 258 200 200 235 298 367 367 338 309
590.0 212 92 18 28 77 129 171 190 242 267
630.0 294 366 406 405 390 475 758 1292 1946 2555
670.0 3077 3765 5240 7493 9567 10000 8775 7422 6413 5229
710.0 3570 2137 1404 1080 900 799 684 553 436 367
750.0 369 479 706 1170 2009 3132 4098 4296 3722 2953
790.0 2335 1780 1206 776 669 771 813 786 701 733
830.0 1153 2028 3381 4783 5399 4755 3358 2119 1413 1066
870.0 836 667 538 513 608 760 1028 1465 2079 2665
910.0 2839 2462 1741 1129 835 718 708 857 1282 1898
950.0 2450 2647 2340 1804 1363 1096 863 638 523 493
990.0 470 396 341 320 313 306 314 330 374 501
1030.0 653 730 682 552 357 237 166 117 158 190
1070.0 216 235 267 372 519 746 1078 1412 1643 1634
1110.0 1298 906 624 416 309 250 235 249 259 220
1150.0 204 249 256 236 208 231 229 231 296 326
1190.0 333 413 513 579 619 739 1019 1372 1565 1385
1230.0 1092 1031 1171 1341 1354 1151 888 722 737 935
1270.0 1326 1864 2246 2163 1696 1162 799 666 606 549
1310.0 515 525 617 776 938 1149 1618 2396 3188 3367
1350.0 2644 1642 896 527 398 335 283 229 176 148
1390.0 154 118 103 119 115 119 115 117 132 127
1430.0 117 110 95 89 102 106 77 63 79 80
1470.0 84 74 79 92 98 82 63 79 99 91
1510.0 81 75 65 66 58 54 82 86 75 68
1550.0 62 68 61 64 61 58 55 60 59 48
1590.0 44 53 50 40 48 54 41 28 38 52
1630.0 72 67 57 57 57 30 25 52 67 63
1670.0 41 45 51 32 46 65 47 36 44 44
1710.0 37 37 33 45 49 42 44 52 49 38
1750.0 32 42 50 51 38 18 29 32 32 42
1790.0 28 47 59 50 42 52 75 60 39 22
1830.0 26 35 37 38 43 59 57 47 59 70
1870.0 57 53 63 64 67 85 76 68 71 49
1910.0 37 54 59 50 49 56 72 78 58 52
1950.0 73 78 64 70 78 80 75 64 80 91
1990.0 83 81 78 73 64 61 60 48 62 92
2030.0 83 78 77 60 75 84 62 51 63 65
2070.0 70 67 63 70 81 88 87 82 81 84
2110.0 81 71 67 86 97 98 94 86 78 66
2150.0 65 68 73 89 72 55 67 74 68 70
2190.0 78 72 57 67 76 75 82 75 84 86
2230.0 62 64 88 88 74 73 60 39 54 55
2270.0 44 58 59 70 90 79 77 83 91 83
2310.0 66 80 71 56 65 40 19 53 79 82
2350.0 81 79 91 103 82 74 96 100 66 47
2390.0 69 78 69 64 59 51 81 115 111 99
2430.0 111 108 133 142 126 136 122 117 97 97
2470.0 98 97 110 100 123 145 133 117 107 91
2510.0 87 107 133 153 150 153 159 167 154 108
2550.0 95 125 131 118 125 133 125 106 103 126
2590.0 141 124 127 139 101 75 77 62 59 48
2630.0 53 68 62 81 82 70 70 73 70 65
2670.0 74 58 72 108 77 56 44 26 35 37
2710.0 39 39 37 35 22 21 48 51 38 52
2750.0 59 45 34 36 45 31 27 37 45 53
2790.0 52 59 44 34 40 66 54 26 32 47
2830.0 67 96 101 84 57 47 52 39 23 10
2870.0 0 30 68 59 66 98 106 78 42 26
2910.0 55 71 73 88 103 132 241 449 760 1110
2950.0 1237 1006 605 309 208 190 224 412 700 856
2990.0 696 432 296 224 175 131 91 42 11 21
3030.0 41 63 79 64 50 59 60 44 74 88
3070.0 86 78 56 49 71 84 68 41 42 77
3110.0 59 34 48 71 88 73 43 56 77 60
3150.0 41 59 71 42 17 41 46 37 54 52
3190.0 41 46 43 23 32 71 64 34 64 93
3230.0 90 84 72 78 77 66 57 62 76 77
3270.0 84 86 70 87 96 109 109 94 89 73
3310.0 89 45 0 34 45 45 67 80 67 57
3350.0 64 42 29 73 91 84 84 57 55 96
3390.0 107 66 16 42 101 97 65 46 84 130
3430.0 121 86 78 75 64 43 37 72 98 55
3470.0 10 47 71 62 73 66 55 92 96 68
3510.0 93 108 78 66 82 89 75 55 66 85
3550.0 93 78 73 93 82 83 98 62 49 81
3590.0 74 73 86 112 112 69 70 104 108 108
3630.0 126 137 138 110 94 97 102 107 124 135
3670.0 110 106 122 103 61 71 108 121 137 120
3710.0 84 86 88 73 96 108 102 114 133 104
3750.0 102 129 115 138 153 172 150 112 132 149
3790.0 107 74 88 96 81 76 75 58 103 135
3830.0 92 89 113 105 108
##END=
