##TITLE=3,4-Dichlorophenyl acetic acid
##JCAMP-DX=4.24
##DATA TYPE=INFRARED SPECTRUM
##ORIGIN=EPA-IR VAPOR PHASE LIBRARY
##OWNER=SRD/NIST
Collection (C) 2018 copyright by the U.S. Secretary of Commerce
on behalf of the United States of America. All rights reserved.
##CAS REGISTRY NO=5807-30-7
##MOLFORM=C 8 H 6 Cl 2 O 2
##$NIST SOURCE=MSDC-IR
##STATE=gas
##XUNITS=1/CM
##YUNITS=ABSORBANCE
##XFACTOR=1.
##YFACTOR=0.001
##DELTAX=1.92934
##FIRSTX=549.9
##LASTX=3999.5
##FIRSTY=64.1
##MAXX=3999.53
##MINX=549.863
##MAXY=0.30428
##MINY=0
##NPOINTS=1789
##XYDATA=(X++(Y..Y))
549.863 64.1 59.84 54.26 48.19 42.4 37.36 33.46 30.48 28.14 26.6
569.156 25.59 24.83 24.35 24.22 24.29 24.6 25.15 26.1 27.45 29.07
588.450 30.98 33.31 36.04 39.16 42.74 46.71 51 55.43 59.74 63.97
607.743 67.89 71.17 73.62 75.02 75.62 75.78 75.64 75.31 74.85 74.19
627.037 73.3 72.02 70.32 68.27 65.83 63.02 60.06 57.01 53.92 50.8
646.330 47.64 44.58 41.7 38.92 36.31 33.95 31.87 30.13 28.74 27.83
665.624 27.63 28.4 30.18 33.28 38.12 44.24 50.33 54.87 57.15 56.99
684.917 54.45 49.49 42.69 35.66 29.98 25.86 22.73 20.29 18.42 16.98
704.210 15.82 14.84 14.01 13.39 12.93 12.6 12.39 12.27 12.2 12.24
723.504 12.38 12.57 12.87 13.22 13.61 14.09 14.6 15.17 15.82 16.53
742.797 17.34 18.22 19.09 19.91 20.66 21.33 21.84 22.14 22.28 22.24
762.091 22.02 21.6 20.98 20.1 18.98 17.72 16.45 15.27 14.28 13.41
781.384 12.76 12.47 12.48 12.83 13.61 14.93 16.87 19.48 22.75 26.57
800.678 30.8 35.27 39.8 43.99 46.96 47.22 44.1 39.48 35.01 30.65
819.971 26.28 22.19 18.72 15.91 13.82 12.39 11.44 10.8 10.38 10.15
839.264 10.12 10.2 10.45 10.91 11.48 12.17 13 13.85 14.71 15.58
858.558 16.41 17.23 18 18.63 19.2 19.67 20.07 20.53 21.11 21.9
877.851 22.86 23.97 25.21 26.52 27.77 28.72 29.22 29.18 28.7 27.79
897.145 26.56 25.15 23.54 21.88 20.31 18.92 17.74 16.76 15.98 15.35
916.438 14.83 14.42 14.16 14 13.91 13.89 13.92 13.96 14.02 14.13
935.732 14.26 14.34 14.4 14.41 14.34 14.16 13.81 13.32 12.75 12.16
955.025 11.59 11.06 10.6 10.25 9.93 9.64 9.37 9.08 8.82 8.62
974.318 8.42 8.23 8.09 7.95 7.83 7.75 7.69 7.61 7.55 7.49
993.612 7.47 7.46 7.41 7.4 7.48 7.61 7.83 8.19 8.64 9.3
1012.905 10.24 11.5 13.31 15.88 19.49 24.49 31.23 40.07 50.82 61.85
1032.199 70.29 74.22 74.67 73.13 68.47 59.02 46.79 36.15 28.91 24.37
1051.492 21.54 19.88 19.21 19.21 19.71 20.68 22.06 23.77 25.81 28.26
1070.786 31.14 34.39 38.18 42.56 47.48 53.01 59.25 66.29 74.07 82.73
1090.079 92.41 103.16 115.18 128.68 143.91 161.19 180.71 202.47 226.14 250.52
1109.372 273.33 291.57 302.4 304.28 297.64 283.9 264.75 242.84 222.44 206.93
1128.666 196.54 189.2 182.3 174.29 164.95 154.2 142.05 129.55 118.86 110.71
1147.959 103.84 97.39 91.05 84.61 77.28 69.15 61.69 55.93 51.85 48.97
1167.253 46.94 45.63 44.8 44.21 44.02 44.21 44.73 45.65 46.88 48.43
1186.546 50.29 52.39 54.72 57.1 59.26 60.94 61.89 62.1 61.52 60.18
1205.840 58.22 55.74 53.18 50.84 48.74 47.04 45.56 44.2 43.08 41.94
1225.133 40.78 39.67 38.52 37.43 36.38 35.37 34.53 33.85 33.36 33.09
1244.426 33.01 33.05 33.17 33.32 33.48 33.63 33.6 33.28 32.86 32.35
1263.720 31.68 30.86 30 29.2 28.44 27.71 27.04 26.56 26.28 26.06
1283.013 25.88 25.72 25.51 25.21 24.81 24.28 23.72 23.16 22.59 22.12
1302.307 21.74 21.41 21.19 21.08 21 20.97 21.03 21.2 21.48 21.87
1321.600 22.37 22.99 23.72 24.63 25.76 27.07 28.59 30.38 32.44 34.84
1340.894 37.56 40.51 43.64 46.67 49.37 51.53 53.01 53.71 53.7 53.09
1360.187 51.97 50.49 48.78 46.96 45.08 43.29 41.66 40.18 38.95 38.03
1379.480 37.39 37.05 37.08 37.48 38.22 39.35 40.83 42.5 44.13 45.28
1398.774 45.73 45.54 44.69 43.1 40.83 38.13 35.37 32.9 30.95 29.44
1418.067 28.36 27.6 27.06 26.75 26.57 26.46 26.38 26.25 26.08 25.88
1437.361 25.58 25.21 24.83 24.49 24.34 24.48 25.12 26.4 28.61 32.01
1456.654 37.3 44.7 54.53 67.76 84.43 103.4 121.05 133.95 139.26 136.78
1475.948 127.23 111.36 90.77 68.77 50.36 37.7 30 25.5 22.78 21.07
1495.241 19.83 18.64 17.35 15.93 14.41 12.91 11.39 9.91 8.76 7.89
1514.534 7.26 6.78 6.37 6.13 5.97 5.84 5.79 5.76 5.81 5.94
1533.828 6.16 6.43 6.9 7.61 8.33 9.16 10.24 11.49 12.84 14.31
1553.121 15.69 16.93 17.84 18.36 18.27 17.74 16.91 15.75 14.4 12.98
1572.415 11.76 10.93 10.42 10.23 10.38 10.81 11.47 12.27 13.14 13.91
1591.708 14.4 14.49 14.19 13.59 12.67 11.55 10.45 9.39 8.52 7.86
1611.002 7.33 6.98 6.77 6.57 6.29 6.08 5.93 5.75 5.57 5.39
1630.295 5.24 5.1378 5.0834 5.0353 4.9895 4.9872 4.9794 5.0095 5.0968 5.1721
1649.588 5.24 5.4 5.51 5.49 5.55 5.69 5.83 5.94 6.02 6.15
1668.882 6.27 6.32 6.4 6.54 6.63 6.65 6.78 7.02 7.23 7.38
1688.175 7.61 7.86 8.14 8.51 8.97 9.43 9.97 10.54 11.1 11.81
1707.469 12.6 13.48 14.43 15.48 16.66 18.04 19.51 20.99 22.73 24.7
1726.762 26.87 29.37 32.19 35.36 39.09 43.1 47.6 52.9 58.75 65.44
1746.056 72.84 80.95 89.7 99.09 108.56 118.13 128.11 138.01 148.38 159.39
1765.349 171.07 184.05 198.49 213.54 229.12 243.37 254.94 262.91 266.66 265.88
1784.642 260.2 250.37 237.92 224.28 210.33 196.82 183.72 170.49 157.16 143.5
1803.936 129.84 116.38 103.28 90.83 79.3 68.9 59.77 51.84 45.12 39.37
1823.229 34.53 30.37 26.82 23.86 21.35 19.2 17.37 15.82 14.52 13.43
1842.523 12.51 11.68 10.92 10.28 9.68 9.15 8.69 8.28 7.89 7.58
1861.816 7.34 7.11 6.94 6.82 6.7 6.67 6.68 6.7 6.78 6.9
1881.110 7.06 7.22 7.34 7.43 7.46 7.42 7.29 7.06 6.83 6.54
1900.403 6.22 5.88 5.57 5.31 5.0732 4.8523 4.7012 4.5837 4.4668 4.4022
1919.696 4.3525 4.28229 4.23433 4.17 4.093 4.039 3.972 3.882 3.818 3.772
1938.990 3.739 3.731 3.677 3.651 3.661 3.63 3.605 3.63 3.663 3.674
1958.283 3.679 3.695 3.742 3.779 3.796 3.822 3.865 3.881 3.822 3.788
1977.577 3.824 3.829 3.798 3.77 3.769 3.769 3.78 3.768 3.754 3.744
1996.870 3.741 3.754 3.748 3.756 3.724 3.7 3.722 3.724 3.72 3.7
2016.164 3.662 3.625 3.569 3.503 3.483 3.447 3.404 3.354 3.294 3.279
2035.457 3.254 3.234 3.222 3.16 3.12 3.12 3.13 3.08 3.08 3.08
2054.750 3.04 3 2.98 2.98 2.98 2.99 2.95 2.91 2.91 2.89
2074.044 2.89 2.93 2.92 2.9 2.9 2.88 2.88 2.91 2.91 2.89
2093.337 2.87 2.87 2.89 2.91 2.92 2.93 2.93 2.96 3.01 3.06
2112.631 3.15 3.21 3.289 3.418 3.521 3.625 3.726 3.785 3.824 3.812
2131.924 3.745 3.643 3.54 3.429 3.333 3.268 3.22 3.227 3.22 3.19
2151.218 3.18 3.17 3.19 3.18 3.14 3.11 3.08 3.05 3.05 3.05
2170.511 3.02 3 3 3.03 3.07 3.07 3.09 3.13 3.15 3.18
2189.804 3.2 3.236 3.27 3.286 3.312 3.336 3.356 3.411 3.45 3.477
2209.098 3.51 3.528 3.555 3.591 3.603 3.586 3.6 3.644 3.612 3.556
2228.391 3.535 3.53 3.503 3.456 3.41 3.363 3.312 3.277 3.277 3.239
2247.685 3.21 3.18 3.12 3.12 3.11 3.08 3.06 3.05 3.05 3.04
2266.978 3.05 3.03 3.03 3.07 3.08 3.08 3.08 3.09 3.12 3.16
2286.272 3.18 3.19 3.2 3.21 3.225 3.22 3.21 3.247 3.265 3.259
2305.565 3.261 3.244 3.226 3.2 3.19 3.225 3.248 3.249 3.255 3.281
2324.858 3.289 3.333 3.357 3.301 3.277 3.308 3.305 3.277 3.283 3.261
2344.152 3.225 3.21 3.17 3.17 3.23 3.259 3.288 3.339 3.354 3.338
2363.445 3.313 3.342 3.365 3.355 3.352 3.335 3.3 3.273 3.274 3.302
2382.739 3.308 3.278 3.273 3.276 3.261 3.244 3.22 3.17 3.15 3.12
2402.032 3.09 3.07 3.03 3.01 2.97 2.89 2.87 2.86 2.82 2.8
2421.326 2.78 2.76 2.74 2.75 2.76 2.77 2.8 2.78 2.76 2.74
2440.619 2.75 2.76 2.78 2.79 2.79 2.81 2.81 2.83 2.87 2.88
2459.912 2.88 2.85 2.85 2.87 2.85 2.83 2.82 2.78 2.76 2.74
2479.206 2.72 2.71 2.68 2.61 2.58 2.56 2.52 2.51 2.49 2.44
2498.499 2.44 2.45 2.44 2.43 2.4 2.4 2.43 2.43 2.42 2.44
2517.793 2.48 2.48 2.46 2.51 2.54 2.54 2.56 2.58 2.59 2.62
2537.086 2.61 2.56 2.56 2.54 2.54 2.5 2.47 2.42 2.37 2.33
2556.380 2.29 2.27 2.27 2.25 2.19 2.13 2.13 2.14 2.08 2.06
2575.673 2.09 2.12 2.12 2.11 2.11 2.1 2.1 2.1 2.1 2.12
2594.966 2.12 2.08 2.07 2.09 2.13 2.14 2.12 2.11 2.11 2.09
2614.260 2.09 2.12 2.12 2.13 2.16 2.19 2.22 2.23 2.19 2.16
2633.553 2.17 2.16 2.11 2.09 2.09 2.03 2.02 1.99 1.95 1.92
2652.847 1.94 1.98 1.98 1.94 1.91 1.9 1.9 1.91 1.89 1.86
2672.140 1.86 1.88 1.87 1.83 1.82 1.81 1.83 1.84 1.81 1.81
2691.434 1.79 1.77 1.79 1.75 1.74 1.74 1.69 1.68 1.71 1.66
2710.727 1.66 1.75 1.82 1.82 1.78 1.8 1.84 1.86 1.87 1.88
2730.020 1.88 1.84 1.78 1.73 1.67 1.66 1.65 1.56 1.48 1.45
2749.314 1.42 1.39 1.42 1.42 1.37 1.35 1.35 1.32 1.33 1.32
2768.607 1.3 1.3 1.29 1.26 1.29 1.34 1.36 1.37 1.33 1.36
2787.901 1.41 1.41 1.36 1.31 1.33 1.39 1.41 1.41 1.44 1.47
2807.194 1.42 1.38 1.43 1.47 1.47 1.53 1.63 1.59 1.53 1.57
2826.488 1.66 1.67 1.62 1.62 1.6 1.64 1.78 1.8 1.84 1.87
2845.781 1.89 1.91 1.96 1.94 1.89 1.94 1.92 1.85 1.83 1.84
2865.074 1.8 1.81 1.84 1.84 1.77 1.7 1.69 1.75 1.85 1.91
2884.368 1.91 1.88 1.87 1.98 2.1 2.1 2.19 2.3 2.38 2.5
2903.661 2.66 2.83 3.01 3.302 3.573 3.892 4.2898 4.7441 5.24 5.8
2922.955 6.37 6.89 7.34 7.79 8.14 8.34 8.52 8.65 8.71 8.72
2942.248 8.76 8.68 8.48 8.27 8.03 7.68 7.3 6.97 6.62 6.33
2961.542 6.02 5.77 5.61 5.44 5.26 5.132 5.0108 4.9204 4.9237 4.8323
2980.835 4.7472 4.7454 4.7738 4.7116 4.59 4.5459 4.4615 4.3887 4.30233 4.1568
3000.128 4.061 3.912 3.75 3.566 3.388 3.369 3.331 3.17 3.18 3.21
3019.422 3.18 3.341 3.554 3.752 3.961 4.1675 4.3303 4.5816 4.8477 5.0573
3038.715 5.1504 5.1315 5.1466 5.113 5.1317 5.1867 5.26 5.57 5.98 6.38
3058.009 6.76 7.09 7.44 7.74 7.77 7.57 7.22 6.78 6.34 5.84
3077.302 5.34 4.8197 4.4502 4.25326 4.023 3.866 3.753 3.565 3.392 3.12
3096.596 2.73 2.45 2.16 1.84 1.54 1.29 1.14 1.02 0.89 0.76
3115.889 0.71 0.72 0.77 0.69 0.54 0.52 0.43 0.41 0.47 0.46
3135.182 0.48 0.48 0.44 0.44 0.43 0.48 0.48 0.41 0.33 0.32
3154.476 0.35 0.39 0.44 0.32 0.28 0.3 0.3 0.37 0.31 0.23
3173.769 0.2 0.19 0.08 0 0.07 0.06 0.09 0.18 0.19 0.14
3193.063 0.1 0.08 0.07 0.13 0.16 0.13 0.13 0.05 0.03 0.13
3212.356 0.17 0.15 0.11 0.09 0.14 0.16 0.18 0.23 0.24 0.17
3231.650 0.15 0.16 0.13 0.18 0.26 0.17 0.07 0.1 0.19 0.24
3250.943 0.23 0.13 0.12 0.18 0.18 0.21 0.22 0.18 0.14 0.17
3270.236 0.25 0.2 0.22 0.23 0.2 0.26 0.31 0.34 0.32 0.26
3289.530 0.31 0.41 0.39 0.33 0.28 0.27 0.28 0.28 0.27 0.33
3308.823 0.35 0.25 0.22 0.3 0.31 0.36 0.48 0.43 0.34 0.39
3328.117 0.44 0.35 0.34 0.36 0.34 0.37 0.44 0.43 0.45 0.5
3347.410 0.44 0.49 0.57 0.56 0.55 0.48 0.46 0.57 0.65 0.6
3366.704 0.56 0.55 0.58 0.67 0.77 0.68 0.53 0.58 0.62 0.55
3385.997 0.57 0.71 0.8 0.76 0.72 0.74 0.76 0.85 0.83 0.76
3405.290 0.75 0.79 0.85 0.84 0.85 0.92 0.82 0.86 0.99 0.97
3424.584 0.95 0.97 1.01 0.98 0.98 1 1.09 1.13 1.14 1.21
3443.877 1.12 1.11 1.18 1.22 1.21 1.22 1.35 1.31 1.38 1.48
3463.171 1.52 1.44 1.4 1.47 1.43 1.52 1.64 1.66 1.67 1.68
3482.464 1.73 1.77 1.9 1.92 1.99 2.15 2.18 2.28 2.4 2.6
3501.758 2.69 2.85 3.04 3.16 3.351 3.471 3.674 3.873 3.984 4.186
3521.051 4.4387 4.7288 4.9891 5.3 5.75 6.24 6.8 7.48 8.28 9.32
3540.344 10.43 11.65 13.2 14.8 16.44 18.37 20.65 23.39 26.91 31.68
3559.638 38.55 48.6 62.89 82.13 104.71 125.52 139.49 145.2 142.76 131.71
3578.931 112.79 89.61 67.76 51.09 39.51 31.49 25.86 21.82 18.69 16.16
3598.225 14.02 12.22 10.59 9.13 7.98 7.05 6.4 5.87 5.36 4.9333
3617.518 4.5954 4.3367 4.113 3.99 3.841 3.739 3.629 3.447 3.351 3.256
3636.812 3.17 3.08 3.03 2.93 2.79 2.76 2.73 2.73 2.66 2.52
3656.105 2.47 2.43 2.35 2.3 2.23 2.21 2.33 2.32 2.27 2.26
3675.398 2.23 2.24 2.28 2.24 2.19 2.25 2.3 2.3 2.29 2.31
3694.692 2.35 2.38 2.37 2.4 2.43 2.43 2.44 2.45 2.41 2.26
3713.985 2.26 2.37 2.3 2.23 2.31 2.38 2.36 2.26 2.15 2.16
3733.279 2.27 2.32 2.32 2.29 2.37 2.43 2.38 2.38 2.36 2.33
3752.572 2.4 2.39 2.36 2.44 2.46 2.39 2.39 2.43 2.44 2.46
3771.866 2.45 2.52 2.51 2.46 2.5 2.43 2.36 2.42 2.4 2.36
3791.159 2.44 2.42 2.34 2.29 2.29 2.36 2.4 2.35 2.32 2.31
3810.452 2.32 2.36 2.35 2.26 2.29 2.35 2.25 2.2 2.24 2.27
3829.746 2.32 2.36 2.4 2.42 2.36 2.3 2.36 2.43 2.38 2.34
3849.039 2.38 2.46 2.53 2.45 2.32 2.3 2.32 2.34 2.33 2.3
3868.333 2.31 2.37 2.43 2.41 2.36 2.38 2.41 2.4 2.35 2.35
3887.626 2.44 2.44 2.39 2.3 2.24 2.32 2.32 2.32 2.38 2.34
3906.920 2.33 2.38 2.34 2.31 2.39 2.33 2.28 2.4 2.4 2.31
3926.213 2.3 2.38 2.41 2.32 2.33 2.39 2.37 2.3 2.31 2.38
3945.506 2.38 2.37 2.35 2.37 2.37 2.36 2.38 2.4 2.43 2.44
3964.800 2.42 2.41 2.46 2.41 2.36 2.39 2.37 2.38 2.41 2.45
3984.093 2.44 2.39 2.39 2.45 2.46 2.42 2.42 2.41 2.38
##END=
