##TITLE=2,3-Dimethylnaphthalene
##JCAMP-DX=4.24
##DATA TYPE=INFRARED SPECTRUM
##ORIGIN=NIST Mass Spectrometry Data Center
##OWNER=NIST Standard Reference Data Program
Collection (C) 2018 copyright by the U.S. Secretary of Commerce
on behalf of the United States of America. All rights reserved.
##CAS REGISTRY NO=581-40-8
##MOLFORM=C 12 H 12
##$NIST SOURCE=MSDC-IR
##SPECTROMETER/DATA SYSTEM=HP-GC/MS/IRD
##STATE=gas
##XUNITS=1/CM
##YUNITS=ABSORBANCE
##XFACTOR=1.0
##YFACTOR=0.000002100
##DELTAX=4.0
##FIRSTX=550.0
##LASTX=3846.0
##FIRSTY=0.000103
##MAXX=3846
##MINX=550
##MAXY=0.021
##MINY=0
##NPOINTS=825
##XYDATA=(X++(Y..Y))
550.0 49 44 43 57 52 77 62 9 30 82
590.0 88 33 34 56 93 196 472 819 973 1021
630.0 855 490 271 253 308 343 342 285 219 184
670.0 132 109 105 81 59 79 78 110 173 237
710.0 320 588 1163 2261 3839 5755 7705 9963 10000 7168
750.0 5230 3610 1995 1047 541 326 249 171 134 143
790.0 126 121 120 111 106 107 120 128 141 178
830.0 230 297 400 602 1012 1775 2918 4176 5547 7489
870.0 7617 5635 4183 2911 1703 988 680 582 557 519
910.0 494 436 376 350 356 399 506 594 729 828
950.0 663 495 405 296 238 250 300 379 507 773
990.0 1259 1829 2256 2447 2313 1894 1493 1218 1033 888
1030.0 720 569 455 373 276 211 201 174 163 162
1070.0 168 178 180 167 157 180 167 136 109 84
1110.0 99 121 132 146 181 256 383 558 785 1066
1150.0 1145 1100 1065 816 523 335 228 185 154 146
1190.0 149 153 156 151 188 234 308 484 702 868
1230.0 905 854 664 403 294 293 323 364 457 572
1270.0 585 606 623 520 399 339 313 278 257 253
1310.0 251 257 273 298 334 383 431 483 560 603
1350.0 597 590 600 668 864 1114 1238 1213 1153 924
1390.0 650 495 428 436 474 541 625 748 977 1242
1430.0 1456 1640 1901 2200 2547 3070 3481 3534 3346 2955
1470.0 2448 1984 1769 1850 2150 2598 3136 3556 3516 2979
1510.0 2248 1473 837 562 478 441 414 373 336 357
1550.0 399 420 435 531 647 719 750 797 890 978
1590.0 1090 1213 1277 1236 1147 987 767 593 501 473
1630.0 480 473 476 477 437 364 296 279 272 292
1670.0 371 502 624 674 674 642 534 403 348 343
1710.0 329 283 267 315 359 371 393 473 544 545
1750.0 506 481 422 350 307 296 315 317 305 306
1790.0 319 371 438 452 441 391 321 276 253 230
1830.0 223 223 206 175 165 177 177 155 127 102
1870.0 95 129 180 249 318 361 386 409 428 443
1910.0 447 446 435 424 451 511 529 479 382 256
1950.0 156 100 69 55 41 31 24 31 39 36
1990.0 21 22 37 33 27 44 50 35 38 51
2030.0 67 74 80 84 80 73 67 56 35 24
2070.0 33 34 34 39 34 26 39 35 23 30
2110.0 41 31 26 28 24 29 28 25 33 33
2150.0 31 35 33 36 37 28 23 29 36 38
2190.0 47 61 63 49 36 22 17 17 6 8
2230.0 12 9 22 29 21 24 33 37 43 45
2270.0 42 47 58 74 98 119 130 141 134 115
2310.0 103 84 67 62 60 58 50 39 38 41
2350.0 46 50 50 41 56 89 92 86 80 64
2390.0 59 57 49 53 62 61 63 64 68 71
2430.0 76 89 91 90 82 86 91 101 105 101
2470.0 101 98 97 99 94 87 80 70 70 73
2510.0 70 74 72 63 69 77 62 55 64 61
2550.0 51 45 39 34 37 46 55 58 55 55
2590.0 53 48 60 73 66 62 67 76 69 66
2630.0 70 65 64 51 48 53 62 68 62 64
2670.0 69 61 60 72 73 76 86 97 115 121
2710.0 128 142 143 164 214 277 348 412 430 397
2750.0 338 285 262 269 282 285 288 274 256 256
2790.0 261 283 328 370 411 448 469 500 559 601
2830.0 642 723 815 919 1061 1233 1458 1796 2269 2842
2870.0 3401 3798 3998 4003 3834 3589 3376 3279 3311 3462
2910.0 3744 4187 4885 5961 7301 8399 8851 8661 7866 6910
2950.0 6330 5938 5550 5320 5304 5439 5533 5464 5335 5034
2990.0 4605 4402 4492 4852 5375 5829 5997 5848 5373 4664
3030.0 4047 3734 3768 4237 5209 6635 8145 9078 9340 9048
3070.0 7951 6523 5339 4346 3455 2646 1966 1465 1159 960
3110.0 812 737 656 607 579 540 514 469 421 379
3150.0 337 299 275 264 248 215 188 180 170 165
3190.0 140 122 120 138 137 121 107 111 122 116
3230.0 112 134 134 110 110 110 117 106 78 82
3270.0 84 78 86 79 85 82 61 66 68 64
3310.0 73 83 78 71 71 80 89 71 56 49
3350.0 51 59 64 69 60 62 83 67 49 58
3390.0 47 56 80 78 67 63 71 76 71 55
3430.0 59 79 66 58 58 59 56 62 59 62
3470.0 81 77 79 78 49 27 40 50 41 50
3510.0 66 67 50 46 44 36 40 36 31 30
3550.0 40 34 60 46 0 22 66 91 68 20
3590.0 19 46 73 84 41 8 24 26 49 34
3630.0 26 99 122 128 97 56 70 88 81 62
3670.0 57 74 89 93 91 87 82 80 74 63
3710.0 63 59 73 77 76 78 18 28 53 48
3750.0 44 49 76 87 87 76 64 51 68 82
3790.0 65 60 76 69 60 80 83 65 55 61
3830.0 86 77 59 88 103
##END=
