##TITLE=8-Carboxynaphthalene-1-carboxamide
##JCAMP-DX=4.24
##DATA TYPE=INFRARED SPECTRUM
##ORIGIN=EPA-IR VAPOR PHASE LIBRARY
##OWNER=SRD/NIST
Collection (C) 2018 copyright by the U.S. Secretary of Commerce
on behalf of the United States of America. All rights reserved.
##CAS REGISTRY NO=5811-88-1
##MOLFORM=C 12 H 9 N O 3
##$NIST SOURCE=MSDC-IR
##STATE=gas
##XUNITS=1/CM
##YUNITS=ABSORBANCE
##XFACTOR=1.
##YFACTOR=0.001
##DELTAX=1.92934
##FIRSTX=549.9
##LASTX=3999.5
##FIRSTY=0.7306
##MAXX=3999.53
##MINX=549.863
##MAXY=0.028323
##MINY=0
##NPOINTS=1789
##XYDATA=(X++(Y..Y))
549.863 0.7306 0.79583 0.80323 0.9811 1.0362 0.896 0.72684 0.6976 0.9161 0.80118
569.156 0.523 0.573 0.569 0.478 0.552 0.609 0.6676 0.71006 0.602 0.6696
588.450 0.6704 0.6488 0.7031 0.79685 0.8164 0.6862 0.573 0.517 0.524 0.6601
607.743 0.77135 0.6636 0.605 0.605 0.6916 0.8354 0.77332 0.72518 0.7702 0.76858
627.037 0.8047 0.6965 0.722917 0.8267 0.78228 0.80139 0.8683 0.8045 0.72795 0.871
646.330 1.0247 1.0946 1.0738 1.1804 1.3866 1.4837 1.6047 1.843 2.053 2.123
665.624 2.253 2.403 2.463 2.613 2.703 2.673 2.533 2.293 2.143 1.983
684.917 1.763 1.5516 1.5116 1.4421 1.269 1.206 1.1297 1.0778 1.034 0.9496
704.210 0.9585 0.9857 0.9733 0.9648 0.8907 0.8527 0.8672 0.8699 0.8396 0.7964
723.504 0.9064 0.9862 1.0379 1.1054 1.187 1.3144 1.3792 1.3808 1.3689 1.4937
742.797 1.6854 1.723 1.6212 1.4488 1.4087 1.4562 1.3059 1.189 1.2171 1.2944
762.091 1.3923 1.5809 2.033 2.613 3.183 3.703 4.163 4.713 5.633 6.833
781.384 6.953 5.583 4.563 4.233 3.773 3.103 2.473 2.003 1.6292 1.4708
800.678 1.4323 1.4205 1.476 1.5117 1.4823 1.4948 1.4608 1.4172 1.4258 1.3156
819.971 1.1831 1.06 1.0079 0.9744 0.9581 0.9713 0.9027 0.9266 0.9985 1.0477
839.264 1.1522 1.1234 1.1825 1.3121 1.1163 0.9363 0.9194 0.9303 0.9506 0.8826
858.558 0.8262 0.76755 0.7243 0.74964 0.7526 0.78507 0.8485 0.75904 0.6558 0.70676
877.851 0.70914 0.6823 0.7004 0.72828 0.74573 0.77186 0.76769 0.77725 0.712147 0.6522
897.145 0.6898 0.6697 0.6576 0.70752 0.713969 0.679 0.6599 0.557 0.532 0.6186
916.438 0.6631 0.6935 0.73514 0.70722 0.70533 0.74672 0.74345 0.7359 0.6807 0.6693
935.732 0.6853 0.6489 0.6709 0.6974 0.6703 0.6464 0.6621 0.647 0.58 0.576
955.025 0.594 0.6284 0.6229 0.597 0.63 0.57 0.54 0.519 0.525 0.594
974.318 0.582 0.587 0.6247 0.6304 0.6241 0.607 0.581 0.611 0.6214 0.6255
993.612 0.594 0.53 0.487 0.486 0.464 0.409 0.404 0.325 0.291 0.288
1012.905 0.22 0.185 0.146 0.109 0.151 0.232 0.25 0.283 0.356 0.387
1032.199 0.452 0.571 0.6507 0.6338 0.622 0.6436 0.6678 0.72686 0.80785 0.953
1051.492 1.1027 1.2224 1.3631 1.588 1.853 2.143 2.383 2.553 2.773 2.793
1070.786 2.643 2.463 2.183 2.003 1.783 1.4826 1.2402 1.0614 0.996 0.9764
1090.079 0.8989 0.79251 0.72886 0.6817 0.76331 0.898 0.8622 0.80065 0.79952 0.79894
1109.372 0.7731 0.76309 0.73308 0.6307 0.588 0.59 0.6198 0.656 0.557 0.521
1128.666 0.569 0.6199 0.6834 0.6781 0.6407 0.720381 1.0142 1.0512 0.9355 1.0587
1147.959 1.0199 0.9267 1.0749 1.1473 0.9607 0.9766 0.9541 0.8653 1.0954 1.1877
1167.253 1.1858 1.2476 1.3257 1.3505 1.4194 1.632 1.763 1.863 2.013 2.203
1186.546 2.363 2.583 2.803 2.983 3.303 3.393 3.163 2.953 3.093 3.253
1205.840 3.123 2.773 2.383 2.053 1.833 2.013 2.253 2.363 2.063 2.023
1225.133 2.613 3.053 3.093 3.323 3.613 4.043 4.583 4.993 5.403 5.663
1244.426 5.913 6.393 6.963 7.323 7.273 6.993 6.683 6.463 6.123 5.353
1263.720 4.453 3.673 3.063 2.643 2.423 2.203 2.093 2.013 1.853 1.6533
1283.013 1.5357 1.5432 1.3762 1.2402 1.1784 1.0737 0.9688 0.9604 0.9797 0.9133
1302.307 0.9089 0.9772 1.0084 1.0612 1.1122 1.188 1.3106 1.4156 1.4814 1.5753
1321.600 1.823 2.103 2.373 2.693 3.103 3.503 3.803 4.073 4.323 4.543
1340.894 4.753 4.843 4.843 4.843 4.813 4.793 4.653 4.513 4.433 4.313
1360.187 4.203 4.133 4.133 4.133 4.053 3.903 3.713 3.513 3.303 2.933
1379.480 2.533 2.213 1.903 1.723 1.5429 1.4468 1.4088 1.3429 1.3087 1.2639
1398.774 1.1852 1.1064 1.0758 0.993 0.9432 0.9075 0.8375 0.79808 0.77552 0.80072
1418.067 0.8597 0.9474 1.0496 1.127 1.2073 1.2881 1.3433 1.4025 1.4687 1.5138
1437.361 1.5851 1.6324 1.6238 1.4705 1.3545 1.4039 1.4178 1.341 1.2143 1.1377
1456.654 1.133 1.0497 0.9429 0.904 0.9259 0.9395 0.8737 0.8869 0.9476 0.8885
1475.948 0.8154 0.75384 0.73407 0.75771 0.73162 0.74963 0.7518 0.7472 0.7827 0.79959
1495.241 0.8268 0.8979 0.9411 0.9228 0.9575 1.0272 1.0483 1.0231 0.9861 0.9691
1514.534 0.9307 0.816 0.712999 0.6653 0.6737 0.6722 0.6491 0.6673 0.70822 0.72502
1533.828 0.74294 0.717227 0.695 0.75822 0.73788 0.6611 0.656 0.722573 0.77161 0.75923
1553.121 0.8278 0.8308 0.79172 0.8546 0.8538 0.8694 0.9526 1.059 1.1503 1.2946
1572.415 1.4622 1.6185 1.853 2.123 2.303 2.473 2.663 2.823 2.843 2.923
1591.708 3.053 2.953 2.813 2.693 2.513 2.363 2.183 1.933 1.6233 1.3486
1611.002 1.1808 1.054 0.9616 0.8928 0.8735 0.8404 0.86 0.9396 0.9393 0.8654
1630.295 0.8225 0.8666 0.9324 0.9063 0.8775 0.8879 0.8936 0.9456 1.0226 0.9866
1649.588 0.9722 1.1232 1.1677 1.0698 1.0795 1.1079 1.107 1.1049 1.0685 1.0822
1668.882 1.1949 1.2469 1.2695 1.3518 1.4154 1.5389 1.773 1.923 2.113 2.323
1688.175 2.463 2.683 2.993 3.333 3.743 4.113 4.543 5.073 5.503 6.023
1707.469 6.573 7.313 8.423 9.963 12.033 14.693 17.833 21.073 24.183 26.643
1726.762 28.033 28.323 27.633 25.883 22.943 19.383 15.633 11.973 9.093 6.993
1746.056 5.543 4.553 3.863 3.233 2.663 2.223 1.813 1.4785 1.2069 0.9781
1765.349 0.8779 0.80177 0.75108 0.76862 0.8363 0.8579 0.8694 0.8626 0.81263 0.77722
1784.642 0.702 0.6423 0.56 0.474 0.482 0.482 0.483 0.483 0.509 0.563
1803.936 0.586 0.6831 0.78321 0.75426 0.79829 0.8325 0.77614 0.78099 0.8186 0.8244
1823.229 0.80354 0.76565 0.7028 0.688 0.72585 0.72822 0.71049 0.71121 0.71042 0.70421
1842.523 0.7022 0.722415 0.7423 0.72542 0.74546 0.8318 0.8794 0.8876 0.913 0.8945
1861.816 0.8542 0.8816 0.9152 0.875 0.80984 0.7958 0.77705 0.74211 0.74416 0.74291
1881.110 0.722151 0.74764 0.73167 0.7014 0.70831 0.718232 0.720674 0.721778 0.7603 0.77435
1900.403 0.77688 0.80395 0.8009 0.73858 0.6919 0.6918 0.73137 0.77383 0.73156 0.6886
1919.696 0.714085 0.6813 0.6487 0.6807 0.682 0.6673 0.6418 0.6519 0.6651 0.6276
1938.990 0.6745 0.721249 0.6898 0.718639 0.73895 0.717284 0.73538 0.74681 0.71117 0.6613
1958.283 0.6215 0.65 0.6947 0.6655 0.611 0.6202 0.6336 0.577 0.532 0.514
1977.577 0.507 0.495 0.524 0.53 0.538 0.534 0.516 0.526 0.507 0.522
1996.870 0.504 0.465 0.491 0.513 0.512 0.518 0.496 0.466 0.472 0.48
2016.164 0.478 0.504 0.522 0.517 0.541 0.556 0.553 0.523 0.473 0.488
2035.457 0.515 0.51 0.497 0.47 0.462 0.47 0.472 0.493 0.512 0.49
2054.750 0.495 0.52 0.491 0.479 0.454 0.441 0.48 0.501 0.522 0.543
2074.044 0.569 0.559 0.542 0.506 0.466 0.455 0.435 0.46 0.46 0.458
2093.337 0.433 0.382 0.403 0.458 0.516 0.516 0.467 0.414 0.399 0.434
2112.631 0.464 0.453 0.437 0.444 0.487 0.512 0.478 0.458 0.464 0.457
2131.924 0.466 0.515 0.497 0.494 0.459 0.438 0.511 0.491 0.451 0.465
2151.218 0.496 0.474 0.48 0.528 0.51 0.47 0.465 0.452 0.466 0.486
2170.511 0.467 0.491 0.507 0.495 0.505 0.486 0.468 0.492 0.482 0.479
2189.804 0.504 0.476 0.494 0.499 0.463 0.529 0.539 0.494 0.505 0.515
2209.098 0.49 0.451 0.449 0.433 0.425 0.452 0.488 0.552 0.531 0.484
2228.391 0.5 0.481 0.475 0.492 0.485 0.492 0.462 0.402 0.407 0.441
2247.685 0.474 0.463 0.487 0.497 0.432 0.44 0.444 0.455 0.5 0.495
2266.978 0.47 0.494 0.529 0.541 0.514 0.478 0.459 0.46 0.47 0.465
2286.272 0.506 0.53 0.503 0.485 0.504 0.499 0.481 0.492 0.457 0.446
2305.565 0.47 0.464 0.462 0.436 0.464 0.452 0.402 0.426 0.404 0.399
2324.858 0.443 0.459 0.494 0.547 0.524 0.482 0.47 0.431 0.423 0.443
2344.152 0.456 0.433 0.397 0.413 0.41 0.424 0.425 0.37 0.335 0.345
2363.445 0.411 0.419 0.405 0.401 0.409 0.435 0.431 0.416 0.392 0.369
2382.739 0.376 0.475 0.515 0.445 0.401 0.414 0.466 0.483 0.471 0.47
2402.032 0.444 0.424 0.396 0.404 0.453 0.424 0.364 0.382 0.412 0.386
2421.326 0.402 0.44 0.432 0.435 0.428 0.398 0.404 0.412 0.397 0.404
2440.619 0.401 0.398 0.396 0.407 0.369 0.348 0.375 0.329 0.312 0.308
2459.912 0.327 0.371 0.35 0.345 0.435 0.445 0.378 0.403 0.433 0.368
2479.206 0.284 0.264 0.32 0.36 0.378 0.361 0.328 0.343 0.351 0.338
2498.499 0.323 0.328 0.305 0.299 0.327 0.353 0.375 0.351 0.345 0.399
2517.793 0.379 0.3 0.31 0.337 0.368 0.403 0.363 0.236 0.2 0.303
2537.086 0.33 0.396 0.453 0.364 0.348 0.344 0.33 0.331 0.281 0.303
2556.380 0.312 0.318 0.319 0.297 0.304 0.305 0.341 0.341 0.302 0.318
2575.673 0.349 0.335 0.332 0.379 0.412 0.379 0.386 0.383 0.348 0.35
2594.966 0.357 0.35 0.369 0.379 0.353 0.355 0.306 0.27 0.312 0.381
2614.260 0.358 0.355 0.338 0.276 0.239 0.209 0.24 0.32 0.299 0.232
2633.553 0.238 0.22 0.195 0.244 0.255 0.233 0.252 0.227 0.258 0.252
2652.847 0.212 0.222 0.259 0.238 0.16 0.185 0.241 0.198 0.162 0.224
2672.140 0.25 0.186 0.2 0.217 0.205 0.235 0.22 0.155 0.141 0.211
2691.434 0.242 0.26 0.295 0.311 0.291 0.311 0.286 0.223 0.201 0.197
2710.727 0.252 0.243 0.201 0.2 0.219 0.236 0.244 0.28 0.31 0.321
2730.020 0.305 0.289 0.29 0.304 0.301 0.274 0.312 0.347 0.305 0.289
2749.314 0.29 0.221 0.215 0.244 0.21 0.179 0.114 0.103 0.175 0.205
2768.607 0.18 0.143 0.119 0.147 0.184 0.225 0.286 0.243 0.183 0.176
2787.901 0.256 0.236 0.128 0.122 0.203 0.206 0.148 0.169 0.204 0.226
2807.194 0.191 0.134 0.111 0.162 0.213 0.259 0.224 0.227 0.218 0.206
2826.488 0.213 0.193 0.288 0.235 0.15 0.186 0.221 0.229 0.264 0.271
2845.781 0.16 0.085 0.145 0.117 0.1 0.173 0.203 0.122 0.093 0.209
2865.074 0.151 0.104 0.079 0.134 0.183 0.071 0.15 0.151 0.053 0.024
2884.368 0 0.166 0.243 0.137 0.088 0.079 0.123 0.175 0.082 0.116
2903.661 0.169 0.112 0.096 0.088 0.099 0.123 0.19 0.209 0.202 0.147
2922.955 0.059 0.013 0.049 0.14 0.171 0.144 0.18 0.212 0.226 0.233
2942.248 0.16 0.163 0.204 0.296 0.301 0.243 0.267 0.258 0.22 0.13
2961.542 0.124 0.174 0.158 0.244 0.259 0.138 0.134 0.05 0.071 0.254
2980.835 0.186 0.162 0.271 0.278 0.304 0.357 0.189 0.102 0.23 0.144
3000.128 0.038 0.27 0.46 0.364 0.242 0.17 0.086 0.123 0.261 0.353
3019.422 0.269 0.22 0.277 0.241 0.29 0.285 0.304 0.291 0.146 0.151
3038.715 0.211 0.213 0.243 0.334 0.477 0.571 0.7016 0.718337 0.6884 0.8901
3058.009 0.9866 0.9748 0.9919 1.0732 1.2587 1.4132 1.392 1.267 1.1324 1.0739
3077.302 1.0019 0.9083 0.8163 0.611 0.545 0.554 0.438 0.447 0.461 0.231
3096.596 0.206 0.374 0.418 0.333 0.312 0.277 0.278 0.364 0.349 0.388
3115.889 0.348 0.263 0.299 0.276 0.253 0.202 0.296 0.455 0.372 0.226
3135.182 0.211 0.292 0.344 0.394 0.355 0.305 0.32 0.392 0.528 0.419
3154.476 0.339 0.383 0.369 0.371 0.352 0.389 0.505 0.592 0.364 0.238
3173.769 0.246 0.289 0.389 0.409 0.333 0.248 0.318 0.29 0.208 0.301
3193.063 0.451 0.505 0.502 0.278 0.079 0.127 0.28 0.329 0.212 0.29
3212.356 0.373 0.381 0.474 0.459 0.399 0.369 0.455 0.485 0.421 0.361
3231.650 0.39 0.434 0.402 0.509 0.571 0.562 0.52 0.331 0.291 0.393
3250.943 0.445 0.421 0.459 0.555 0.466 0.458 0.493 0.439 0.501 0.446
3270.236 0.376 0.483 0.485 0.528 0.602 0.467 0.403 0.469 0.472 0.329
3289.530 0.321 0.509 0.518 0.51 0.555 0.6508 0.6474 0.533 0.559 0.516
3308.823 0.5 0.6265 0.573 0.554 0.6372 0.578 0.54 0.476 0.448 0.539
3328.117 0.648 0.591 0.48 0.479 0.485 0.546 0.6674 0.71056 0.612 0.531
3347.410 0.6411 0.7 0.58 0.571 0.557 0.524 0.542 0.503 0.506 0.511
3366.704 0.484 0.479 0.388 0.315 0.38 0.428 0.548 0.6627 0.752 0.873
3385.997 0.81248 0.8158 0.9018 0.9874 1.13 1.1811 1.2777 1.5307 1.7079 1.893
3405.290 2.263 2.593 2.793 2.963 3.173 3.223 3.093 2.953 2.763 2.623
3424.584 2.303 1.913 1.7027 1.401 1.3069 1.2513 0.9869 0.9644 1.0012 0.9193
3443.877 0.8413 0.7829 0.72972 0.79744 0.9181 0.8992 0.79071 0.6378 0.6193 0.6731
3463.171 0.71087 0.8981 0.8556 0.6203 0.6271 0.671 0.6264 0.537 0.406 0.53
3482.464 0.594 0.505 0.441 0.468 0.564 0.6551 0.8345 0.8279 0.6855 0.654
3501.758 0.597 0.555 0.6406 0.6529 0.6228 0.583 0.6304 0.73633 0.6239 0.563
3521.051 0.6249 0.6432 0.75544 0.9037 0.8579 0.6927 0.74305 0.8406 0.72755 0.594
3540.344 0.555 0.73483 0.73262 0.6397 0.73528 0.6761 0.6203 0.6379 0.593 0.563
3559.638 0.559 0.603 0.435 0.431 0.6301 0.6413 0.6893 0.6717 0.6691 0.7026
3578.931 0.8216 0.73701 0.6446 0.7556 0.6971 0.70398 0.74595 0.75259 0.78265 0.6336
3598.225 0.6346 0.6842 0.563 0.482 0.591 0.6597 0.568 0.552 0.6194 0.6729
3617.518 0.589 0.552 0.574 0.6323 0.59 0.468 0.532 0.6661 0.6193 0.504
3636.812 0.445 0.427 0.491 0.572 0.6453 0.6992 0.6756 0.712959 0.76903 0.6971
3656.105 0.6809 0.6708 0.656 0.6542 0.6523 0.6851 0.72754 0.6668 0.554 0.605
3675.398 0.722565 0.6804 0.563 0.452 0.48 0.6405 0.6467 0.664 0.6925 0.598
3694.692 0.6465 0.6609 0.57 0.495 0.525 0.6982 0.70726 0.558 0.587 0.713797
3713.985 0.592 0.491 0.503 0.601 0.657 0.547 0.565 0.6274 0.544 0.542
3733.279 0.573 0.534 0.489 0.472 0.534 0.588 0.71007 0.8583 0.77136 0.6947
3752.572 0.6809 0.582 0.552 0.625 0.6199 0.6425 0.6599 0.548 0.475 0.479
3771.866 0.562 0.556 0.45 0.526 0.579 0.505 0.603 0.628 0.402 0.383
3791.159 0.6312 0.6474 0.552 0.578 0.548 0.459 0.523 0.534 0.527 0.527
3810.452 0.466 0.592 0.70329 0.715321 0.6575 0.6625 0.6747 0.575 0.498 0.485
3829.746 0.586 0.73748 0.79421 0.8358 0.6602 0.521 0.557 0.591 0.70999 0.6696
3849.039 0.7025 0.73895 0.6749 0.6761 0.55 0.589 0.714523 0.577 0.491 0.537
3868.333 0.6264 0.516 0.477 0.558 0.488 0.57 0.6381 0.535 0.47 0.426
3887.626 0.439 0.438 0.458 0.497 0.478 0.554 0.594 0.6306 0.6638 0.6582
3906.920 0.567 0.515 0.583 0.486 0.41 0.496 0.458 0.412 0.445 0.431
3926.213 0.455 0.536 0.516 0.479 0.467 0.388 0.386 0.465 0.503 0.498
3945.506 0.607 0.569 0.447 0.456 0.471 0.471 0.527 0.6253 0.553 0.375
3964.800 0.413 0.547 0.557 0.532 0.53 0.532 0.579 0.582 0.567 0.547
3984.093 0.555 0.524 0.507 0.635 0.6346 0.523 0.476 0.565 0.603
##END=
