##TITLE=m-Methoxybenzamide
##JCAMP-DX=4.24
##DATA TYPE=INFRARED SPECTRUM
##ORIGIN=EPA-IR VAPOR PHASE LIBRARY
##OWNER=SRD/NIST
Collection (C) 2018 copyright by the U.S. Secretary of Commerce
on behalf of the United States of America. All rights reserved.
##CAS REGISTRY NO=5813-86-5
##MOLFORM=C 8 H 9 N O 2
##$NIST SOURCE=MSDC-IR
##STATE=gas
##XUNITS=1/CM
##YUNITS=ABSORBANCE
##XFACTOR=1.
##YFACTOR=0.001
##DELTAX=1.92898
##FIRSTX=549.8
##LASTX=4000.7
##FIRSTY=1.632
##MAXX=4000.7
##MINX=549.759
##MAXY=0.030642
##MINY=0
##NPOINTS=1790
##XYDATA=(X++(Y..Y))
549.759 1.632 1.742 2.062 2.432 2.372 2.162 2.182 2.162 2.342 2.472
569.049 2.512 2.562 2.202 2.122 2.232 2.012 2.092 2.082 1.822 1.762
588.339 1.672 1.562 1.732 1.962 2.092 2.232 2.332 2.302 2.322 2.382
607.628 2.612 2.802 2.732 2.602 2.532 2.582 2.392 2.182 2.192 2.072
626.918 2.042 1.992 1.762 1.532 1.462 1.462 1.502 1.352 1.202 1.302
646.208 1.272 1.292 1.252 1.202 1.242 1.272 1.332 1.322 1.212 1.292
665.498 1.442 1.392 1.582 1.832 1.992 2.242 2.382 2.442 2.722 3.012
684.787 3.072 3.172 3.222 3.112 3.012 3.002 3.082 3.272 3.282 3.372
704.077 3.602 3.672 3.702 3.722 3.672 3.582 3.472 3.422 3.202 3.002
723.367 3.102 3.152 3.142 3.442 3.862 4.212 4.712 5.152 5.502 5.882
742.657 6.292 6.662 7.122 7.392 7.362 7.112 6.572 6.072 5.442 5.062
761.947 4.732 4.292 3.852 3.412 3.102 3.002 2.922 2.822 2.902 2.852
781.236 2.662 2.672 2.922 3.082 3.042 3.032 3.092 3.162 3.112 2.892
800.526 2.762 2.722 2.562 2.502 2.442 2.352 2.322 2.162 2.082 2.082
819.816 2.092 2.162 2.122 1.992 1.962 1.982 2.052 2.042 1.912 1.912
839.106 1.982 2.072 2.202 2.312 2.252 2.252 2.222 2.282 2.382 2.282
858.395 2.472 2.742 2.812 2.952 3.052 3.162 3.252 3.402 3.742 3.942
877.685 3.962 4.052 4.032 3.852 3.812 3.722 3.572 3.272 2.932 2.702
896.975 2.462 2.222 2.092 1.992 1.832 1.682 1.582 1.612 1.522 1.452
916.265 1.562 1.512 1.392 1.382 1.392 1.492 1.402 1.232 1.242 1.192
935.555 1.262 1.302 1.1562 1.1582 1.232 1.161 1.0674 1.192 1.1603 1.0276
954.844 1.1227 1.242 1.252 1.212 1.154 1.0654 1.182 1.322 1.312 1.292
974.134 1.262 1.242 1.372 1.402 1.492 1.712 1.612 1.482 1.522 1.592
993.424 1.722 1.712 1.782 1.802 1.592 1.532 1.572 1.692 1.832 1.952
1012.714 1.972 1.942 2.212 2.592 2.822 3.212 3.532 3.962 4.522 4.892
1032.003 5.272 5.852 6.562 7.142 7.702 8.112 8.272 8.212 8.292 8.312
1051.293 8.082 7.912 7.092 6.412 6.192 5.652 5.142 4.672 4.352 3.902
1070.583 3.632 3.562 3.032 2.662 2.692 2.792 2.712 2.582 2.442 2.342
1089.873 2.402 2.532 2.522 2.402 2.462 2.552 2.242 2.212 2.602 2.572
1109.163 2.652 2.642 2.532 2.592 2.362 2.292 2.272 1.802 1.792 1.962
1128.452 1.782 1.772 1.562 1.212 1.222 1.252 1.282 1.252 1.1286 1.0109
1147.742 0.9451 1.222 1.292 1.1309 1.1224 1.1618 1.0778 0.9878 1.1194 1.342
1167.032 1.272 1.1366 1.302 1.492 1.622 1.642 1.552 1.512 1.402 1.412
1186.322 1.742 1.712 1.622 1.722 1.672 1.752 1.752 1.662 1.672 1.772
1205.611 2.002 2.222 2.322 2.432 2.872 3.382 3.852 4.512 5.162 5.932
1224.901 6.962 7.872 8.852 9.872 10.832 11.602 12.412 13.072 13.322 13.662
1244.191 13.762 13.572 13.322 12.952 12.322 11.552 10.802 9.862 8.882 8.032
1263.481 7.172 6.492 6.172 6.052 5.972 5.982 6.082 6.392 6.662 6.782
1282.771 7.092 7.322 7.322 7.172 7.082 7.062 6.842 6.572 6.332 6.162
1302.060 6.102 6.092 6.242 6.592 7.032 7.492 8.052 8.682 9.372 10.082
1321.350 10.942 12.052 13.422 15.152 17.132 19.432 22.002 24.542 26.752 28.412
1340.640 29.412 29.592 28.942 27.512 25.242 22.212 18.732 15.362 12.402 9.902
1359.930 7.982 6.612 5.612 4.882 4.322 3.852 3.512 3.232 2.942 2.712
1379.219 2.522 2.332 2.142 2.022 1.882 1.752 1.662 1.602 1.572 1.562
1398.509 1.622 1.682 1.752 1.862 2.022 2.182 2.442 2.822 3.252 3.772
1417.799 4.362 5.032 5.782 6.492 7.152 7.702 8.102 8.302 8.222 7.962
1437.089 7.562 7.062 6.512 5.882 5.372 5.052 4.942 4.932 5.002 5.172
1456.378 5.342 5.532 5.752 5.932 5.932 5.882 5.902 5.962 6.022 6.162
1475.668 6.372 6.622 6.892 7.022 7.012 6.992 6.832 6.482 6.112 5.702
1494.958 5.212 4.612 3.982 3.332 2.772 2.362 2.062 1.792 1.612 1.512
1514.248 1.422 1.392 1.392 1.362 1.342 1.332 1.362 1.412 1.442 1.552
1533.538 1.632 1.692 1.782 1.942 2.162 2.302 2.442 2.622 2.832 3.032
1552.827 3.262 3.582 3.942 4.392 4.992 5.712 6.592 7.672 9.022 10.722
1572.117 12.722 14.912 17.352 19.812 21.942 23.542 24.502 24.972 24.872 24.102
1591.407 22.752 20.922 18.852 16.772 14.822 13.062 11.502 10.202 9.082 8.092
1610.697 7.212 6.402 5.732 5.022 4.342 3.872 3.482 3.172 2.902 2.662
1629.986 2.492 2.322 2.152 2.042 1.942 1.912 1.872 1.842 1.852 1.832
1649.276 1.862 1.822 1.792 1.822 1.902 1.992 2.002 2.102 2.242 2.362
1668.566 2.592 2.852 3.092 3.322 3.612 3.912 4.282 4.672 4.992 5.302
1687.856 5.612 5.942 6.222 6.522 6.952 7.532 8.392 9.712 11.272 13.352
1707.146 16.122 19.472 23.042 26.422 28.842 29.912 30.272 30.642 30.632 29.632
1726.435 27.252 23.452 18.982 14.972 11.772 9.462 7.912 6.922 6.262 5.822
1745.725 5.662 5.542 5.412 5.342 5.212 4.962 4.602 4.172 3.722 3.372
1765.015 2.972 2.582 2.272 1.962 1.702 1.512 1.382 1.242 1.1107 1.0357
1784.305 0.9751 0.8997 0.8985 0.867 0.8032 0.8351 0.7985 0.71 0.6724 0.6616
1803.594 0.6532 0.6379 0.6108 0.565 0.5579 0.5567 0.5013 0.4775 0.4863 0.4537
1822.884 0.4854 0.5345 0.5356 0.4535 0.4134 0.4912 0.5104 0.5151 0.5007 0.5027
1842.174 0.5626 0.5875 0.54 0.5468 0.5531 0.5332 0.5157 0.4696 0.5152 0.5688
1861.464 0.5111 0.4796 0.5203 0.525 0.5152 0.4969 0.4504 0.4617 0.4995 0.4543
1880.754 0.431 0.4408 0.4503 0.3818 0.3406 0.3988 0.3904 0.365 0.4136 0.4663
1900.043 0.4467 0.409 0.3976 0.4273 0.441 0.4043 0.426 0.451 0.4619 0.4918
1919.333 0.4887 0.5116 0.5118 0.5314 0.529 0.5136 0.5616 0.5416 0.5197 0.5736
1938.623 0.542 0.5115 0.5657 0.5801 0.5718 0.539 0.53 0.5424 0.4951 0.4477
1957.913 0.4502 0.4848 0.4726 0.4513 0.408 0.3955 0.4248 0.3613 0.3582 0.3716
1977.202 0.3657 0.3331 0.3205 0.3331 0.3396 0.3845 0.3521 0.2952 0.2796 0.3242
1996.492 0.3952 0.4058 0.3404 0.2958 0.3197 0.3308 0.3279 0.319 0.2885 0.26629
2015.782 0.283 0.3221 0.3266 0.2836 0.25349 0.3256 0.4192 0.4061 0.3356 0.3407
2035.072 0.3683 0.3335 0.3012 0.3423 0.3604 0.3701 0.4072 0.3973 0.403 0.3832
2054.362 0.3445 0.3429 0.3554 0.3561 0.3741 0.4211 0.4032 0.3368 0.3436 0.3919
2073.651 0.4371 0.4484 0.4101 0.3998 0.4495 0.481 0.4427 0.4181 0.4021 0.4271
2092.941 0.4178 0.3811 0.3986 0.4509 0.4672 0.4588 0.5144 0.4994 0.47 0.485
2112.231 0.4295 0.349 0.3431 0.3983 0.4205 0.3649 0.334 0.372 0.3761 0.3722
2131.521 0.3764 0.3463 0.3625 0.4109 0.4277 0.4075 0.3822 0.3785 0.3749 0.3355
2150.810 0.3216 0.3075 0.26113 0.25027 0.23522 0.24722 0.2951 0.26577 0.24967 0.23768
2170.100 0.21942 0.25818 0.24237 0.23831 0.21091 0.20143 0.25818 0.25344 0.26349 0.26522
2189.390 0.2451 0.26584 0.23995 0.22731 0.25991 0.25491 0.24805 0.21424 0.171902 0.18932
2208.680 0.18697 0.1657 0.17652 0.20719 0.24879 0.21547 0.19608 0.26474 0.26382 0.20772
2227.970 0.173615 0.16413 0.2267 0.24288 0.19264 0.16939 0.16889 0.179228 0.18982 0.174103
2247.259 0.1496 0.1077 0.1223 0.16786 0.19861 0.18871 0.1638 0.20548 0.20852 0.18873
2266.549 0.16858 0.1595 0.1596 0.1485 0.1433 0.0975 0.1112 0.1497 0.17273 0.2761
2285.839 0.2901 0.25648 0.26853 0.2776 0.24189 0.24092 0.2924 0.25752 0.20693 0.20279
2305.129 0.21144 0.206 0.22516 0.23167 0.19565 0.172248 0.21143 0.24016 0.21958 0.23929
2324.418 0.19099 0.18392 0.19089 0.16838 0.173512 0.174719 0.177208 0.16908 0.0952 0.0949
2343.708 0.19286 0.156 0.0937 0.1276 0.20928 0.20389 0.1512 0.20198 0.20488 0.1319
2362.998 0.1483 0.17932 0.1571 0.1528 0.18235 0.19141 0.22953 0.22916 0.21601 0.21236
2382.288 0.21445 0.24536 0.25557 0.18988 0.1541 0.1963 0.1879 0.1511 0.2062 0.25098
2401.578 0.18291 0.23126 0.2902 0.24487 0.21567 0.19464 0.19677 0.16536 0.1537 0.174694
2420.867 0.18667 0.20888 0.16877 0.18518 0.19695 0.24607 0.27065 0.22341 0.2807 0.2493
2440.157 0.20798 0.2807 0.3097 0.3088 0.24329 0.19538 0.24479 0.3176 0.3036 0.21828
2459.447 0.20526 0.21981 0.22685 0.22725 0.25998 0.22124 0.24844 0.2837 0.25618 0.26478
2478.737 0.25482 0.2726 0.3684 0.4077 0.3737 0.3297 0.2943 0.25316 0.3195 0.408
2498.026 0.3508 0.3275 0.329 0.3677 0.31 0.24428 0.3324 0.3784 0.3023 0.2809
2517.316 0.2844 0.3003 0.319 0.3192 0.2904 0.273 0.2616 0.20484 0.177034 0.1419
2536.606 0.1603 0.174795 0.2172 0.23998 0.1537 0.19187 0.2738 0.24831 0.21352 0.18443
2555.896 0.18425 0.18948 0.181385 0.1956 0.25119 0.2841 0.1943 0.180958 0.20033 0.20607
2575.186 0.3285 0.3085 0.23109 0.25554 0.2899 0.3458 0.3263 0.2725 0.25223 0.2784
2594.475 0.26135 0.26077 0.3624 0.421 0.3823 0.3285 0.3012 0.22934 0.2849 0.3488
2613.765 0.25624 0.21911 0.2857 0.2724 0.21728 0.176516 0.1653 0.25299 0.2795 0.20955
2633.055 0.1425 0.20681 0.23112 0.1414 0.1283 0.177695 0.21848 0.27181 0.2731 0.23652
2652.345 0.22244 0.2472 0.3052 0.26284 0.21701 0.23376 0.2774 0.2751 0.20209 0.16393
2671.634 0.18861 0.22541 0.171318 0.1599 0.16989 0.16579 0.2096 0.21179 0.18956 0.25473
2690.924 0.3068 0.26938 0.25793 0.22697 0.26943 0.2174 0.0918 0.20489 0.2981 0.2906
2710.214 0.27027 0.1885 0.16987 0.19911 0.22729 0.26094 0.3239 0.24707 0.1541 0.18601
2729.504 0.20316 0.2823 0.3525 0.3154 0.24464 0.1708 0.1308 0.18667 0.22199 0.2132
2748.794 0.1998 0.25673 0.2666 0.20995 0.19685 0.2826 0.3445 0.32 0.2935 0.25234
2768.083 0.3109 0.3295 0.3844 0.4367 0.4003 0.3858 0.3309 0.3183 0.3554 0.3488
2787.373 0.3605 0.4422 0.488 0.4533 0.4588 0.4697 0.4677 0.4442 0.4519 0.5086
2806.663 0.5125 0.4627 0.5441 0.6604 0.5418 0.4832 0.5897 0.6542 0.6771 0.7296
2825.953 0.83 0.9423 1.0709 1.212 1.312 1.522 1.832 2.112 2.302 2.362
2845.242 2.372 2.392 2.342 2.252 2.162 1.962 1.742 1.522 1.422 1.342
2864.532 1.192 1.1374 1.1419 1.1045 1.1274 1.172 1.1483 1.0889 0.9986 1.1034
2883.822 1.292 1.232 1.1323 1.252 1.372 1.352 1.352 1.432 1.462 1.442
2903.112 1.482 1.612 1.672 1.612 1.752 1.902 1.902 1.892 1.962 2.162
2922.401 2.282 2.272 2.272 2.322 2.382 2.462 2.492 2.572 2.762 2.972
2941.691 3.222 3.402 3.452 3.722 3.922 3.852 3.752 3.632 3.592 3.542
2960.981 3.382 3.202 3.122 2.932 2.652 2.462 2.272 2.122 2.002 1.882
2980.271 1.892 1.762 1.612 1.622 1.572 1.522 1.692 1.842 1.902 2.182
2999.561 2.392 2.502 2.712 2.942 3.162 3.132 3.072 3.072 2.892 2.752
3018.850 2.562 2.262 1.992 1.812 1.602 1.442 1.422 1.422 1.432 1.352
3038.140 1.372 1.472 1.432 1.532 1.592 1.482 1.412 1.532 1.582 1.532
3057.430 1.642 1.702 1.732 1.842 2.042 2.092 2.062 2.202 2.322 2.392
3076.720 2.472 2.482 2.362 2.262 2.162 2.042 1.842 1.642 1.462 1.312
3096.009 1.282 1.1398 0.9904 0.8573 0.8319 0.8733 0.7887 0.6961 0.6766 0.7048
3115.299 0.6778 0.6389 0.559 0.4347 0.38 0.4416 0.4757 0.4416 0.4187 0.3739
3134.589 0.4087 0.4813 0.4332 0.4037 0.4549 0.4213 0.3959 0.3457 0.3669 0.5146
3153.879 0.4409 0.3139 0.4053 0.4593 0.4162 0.4564 0.4582 0.4239 0.5288 0.4646
3173.169 0.24495 0.21158 0.26913 0.3828 0.3616 0.3964 0.3896 0.21724 0.2983 0.3452
3192.458 0.22404 0.2816 0.3315 0.2814 0.3519 0.3088 0.18045 0.2171 0.3283 0.3537
3211.748 0.2725 0.3434 0.3192 0.1546 0.21016 0.16918 0.21619 0.3312 0.3041 0.23802
3231.038 0.22834 0.23153 0.21996 0.23626 0.23186 0.2726 0.2927 0.299 0.3021 0.22704
3250.328 0.2988 0.2815 0.16303 0.23488 0.3069 0.3271 0.25712 0.172127 0.19125 0.20185
3269.617 0.1339 0.172231 0.22968 0.24518 0.2747 0.2841 0.2123 0.18708 0.26865 0.2769
3288.907 0.3353 0.3336 0.3014 0.3369 0.3111 0.23388 0.393 0.4526 0.3264 0.3335
3308.197 0.21804 0.1463 0.18604 0.0777 0.0727 0.21667 0.25257 0.3521 0.3424 0.3039
3327.487 0.3911 0.4493 0.3442 0.2757 0.3548 0.3863 0.4912 0.5022 0.3141 0.23344
3346.777 0.22969 0.22693 0.19045 0.22484 0.24982 0.21253 0.2898 0.342 0.343 0.3597
3366.066 0.3349 0.3854 0.4499 0.3904 0.4674 0.5378 0.5565 0.5799 0.52 0.4795
3385.356 0.5114 0.6596 0.6914 0.6329 0.6536 0.7301 0.8266 0.7025 0.8444 1.1276
3404.646 1.0467 1.172 1.392 1.382 1.532 1.782 1.982 2.192 2.262 2.442
3423.936 2.772 2.992 3.172 3.322 3.302 3.232 3.332 3.322 3.172 2.912
3443.225 2.512 2.142 1.902 1.642 1.372 1.212 1.1415 1.0913 0.9086 0.8008
3462.515 0.8501 0.7598 0.6301 0.6432 0.7178 0.7431 0.6321 0.532 0.6996 0.7826
3481.805 0.6129 0.5695 0.6194 0.7385 0.693 0.612 0.6833 0.6606 0.6408 0.7502
3501.095 0.8142 0.6247 0.4769 0.5439 0.6975 0.8422 0.9436 0.9603 0.9123 0.9668
3520.385 1.0976 1.1459 1.1713 1.452 1.652 1.602 1.832 1.962 2.002 2.272
3539.674 2.412 2.472 2.482 2.622 2.772 2.712 2.802 2.862 2.582 2.432
3558.964 2.412 2.272 2.012 1.812 1.562 1.252 1.182 1.0514 0.8966 0.8079
3578.254 0.7519 0.6976 0.5633 0.5441 0.5947 0.6677 0.5367 0.4894 0.3981 0.25195
3597.544 0.3136 0.3382 0.3611 0.4258 0.4713 0.3534 0.24354 0.26018 0.3857 0.4645
3616.833 0.5068 0.5006 0.4904 0.3209 0.1585 0.3026 0.3979 0.3968 0.3176 0.2415
3636.123 0.3376 0.3129 0.181556 0.26688 0.2903 0.1821 0.1201 0.1391 0.18744 0.20424
3655.413 0.3174 0.3146 0.2521 0.3427 0.3776 0.2879 0.20606 0.1486 0.16571 0.2862
3674.703 0.3503 0.3713 0.26182 0.24979 0.3834 0.22429 0.16548 0.3025 0.3218 0.3574
3693.993 0.4634 0.4985 0.3295 0.181005 0.19744 0.3423 0.423 0.4509 0.4075 0.17022
3713.282 0.1563 0.26506 0.20717 0.20587 0.23396 0.3221 0.3089 0.1536 0.0809 0.3002
3732.572 0.3766 0.1519 0.23474 0.284 0.2462 0.3709 0.4621 0.4648 0.22929 0.16462
3751.862 0.3371 0.27077 0.3343 0.3389 0.313 0.3418 0.4158 0.5671 0.3921 0.22016
3771.152 0.23934 0.1908 0.174972 0.21334 0.22756 0.3047 0.3819 0.3614 0.176522 0.1364
3790.441 0.3429 0.3509 0.25266 0.23499 0.2769 0.3371 0.3735 0.3672 0.3973 0.3915
3809.731 0.319 0.4064 0.4763 0.5346 0.5028 0.3589 0.23647 0.18283 0.23363 0.24476
3829.021 0.25662 0.3398 0.4279 0.394 0.2492 0.16509 0.1406 0.16484 0.3086 0.2798
3848.311 0.23487 0.26231 0.20446 0.069 0.127 0.3131 0.3784 0.3729 0.3969 0.4753
3867.601 0.5741 0.5695 0.4432 0.4019 0.363 0.26407 0.406 0.6245 0.6209 0.4356
3886.890 0.26055 0.177477 0.0791 0.1545 0.3847 0.4712 0.4014 0.4416 0.5174 0.5161
3906.180 0.3898 0.3932 0.3108 0.25558 0.462 0.4618 0.3986 0.518 0.3492 0.2024
3925.470 0.3663 0.3233 0.1585 0.21578 0.3423 0.3413 0.26023 0.2754 0.20729 0
3944.760 0.051 0.21546 0.3681 0.5187 0.505 0.4164 0.3063 0.5213 0.454 0.171077
3964.049 0.3385 0.3178 0.4058 0.4681 0.4021 0.3499 0.3827 0.4425 0.3379 0.27008
3983.339 0.26237 0.20861 0.1864 0.23213 0.2845 0.321 0.4434 0.4724 0.3156 0.3572
##END=
