##TITLE=Tridiphane
##JCAMP-DX=4.24
##DATA TYPE=INFRARED SPECTRUM
##ORIGIN=NIST Mass Spectrometry Data Center
##OWNER=NIST Standard Reference Data Program
Collection (C) 2018 copyright by the U.S. Secretary of Commerce
on behalf of the United States of America. All rights reserved.
##CAS REGISTRY NO=58138-08-2
##MOLFORM=C 10 H 7 Cl 5 O
##$NIST SOURCE=MSDC-IR
##SPECTROMETER/DATA SYSTEM=HP-GC/MS/IRD
##STATE=gas
##XUNITS=1/CM
##YUNITS=ABSORBANCE
##XFACTOR=1.0
##YFACTOR=0.000020300
##DELTAX=4.0
##FIRSTX=550.0
##LASTX=3846.0
##FIRSTY=0.007856
##MAXX=3846
##MINX=550
##MAXY=0.203
##MINY=0
##NPOINTS=825
##XYDATA=(X++(Y..Y))
550.0 387 529 304 283 198 137 101 113 175 284
590.0 434 596 680 630 617 874 1407 1883 1898 1455
630.0 899 497 285 176 103 58 46 66 117 202
670.0 338 592 1165 2327 3647 3877 3020 2535 2905 3729
710.0 4582 4952 4462 3306 2188 1563 1447 1780 2477 3179
750.0 3223 2447 1512 966 787 805 974 1322 1958 3036
790.0 4609 6640 8754 10000 9376 7084 4551 2864 2086 1804
830.0 1737 1762 1815 1855 1900 2115 2765 3796 4382 3783
870.0 2590 1821 1632 1677 1760 1899 1994 1789 1291 812
910.0 540 444 495 683 951 1143 1145 1031 900 755
950.0 620 555 557 611 735 929 1148 1300 1296 1159
990.0 1034 1048 1198 1390 1455 1263 917 632 487 435
1030.0 428 468 550 644 698 654 529 383 258 178
1070.0 144 152 214 346 602 1011 1481 1761 1622 1154
1110.0 698 455 390 407 400 318 215 177 191 199
1150.0 164 102 48 14 2 0 0 2 12 28
1190.0 57 102 169 271 425 653 959 1275 1502 1636
1230.0 1771 1883 1821 1583 1352 1225 1186 1271 1519 1848
1270.0 1991 1734 1224 797 578 480 437 453 545 713
1310.0 942 1198 1385 1403 1247 1016 832 748 752 837
1350.0 1022 1331 1723 2031 2057 1823 1593 1587 1780 1940
1390.0 1855 1557 1304 1288 1551 2077 2725 3208 3260 2874
1430.0 2291 1746 1304 954 678 484 365 300 277 284
1470.0 321 386 461 500 483 426 365 309 256 213
1510.0 188 185 196 220 259 323 424 583 845 1249
1550.0 1890 2851 4199 5748 6825 6844 5871 4659 3902 3628
1590.0 3435 2908 2107 1380 906 632 464 349 276 233
1630.0 204 177 143 107 81 62 46 35 27 20
1670.0 12 8 7 5 6 6 7 8 14 23
1710.0 40 69 114 175 222 237 225 208 194 181
1750.0 167 167 181 186 172 148 127 110 89 70
1790.0 56 42 31 22 14 8 5 5 6 8
1830.0 8 8 7 5 5 5 4 5 3 1
1870.0 3 4 7 10 12 16 21 24 25 28
1910.0 29 31 33 33 35 34 32 32 30 29
1950.0 30 29 28 28 27 27 28 27 28 27
1990.0 28 28 27 26 28 29 30 32 32 34
2030.0 37 39 41 42 43 45 47 49 54 58
2070.0 62 65 68 70 70 68 64 61 57 55
2110.0 54 52 51 49 51 50 48 49 48 48
2150.0 51 51 52 52 52 53 53 53 55 58
2190.0 61 62 64 64 62 61 62 61 62 63
2230.0 60 59 58 57 58 58 59 62 65 68
2270.0 72 76 78 80 82 81 77 72 64 57
2310.0 53 52 53 52 50 52 53 56 58 59
2350.0 61 63 65 69 74 83 88 93 96 94
2390.0 88 80 73 68 66 65 63 59 54 52
2430.0 51 51 49 50 51 52 53 55 53 52
2470.0 50 48 48 47 48 47 47 48 48 48
2510.0 48 50 52 53 51 51 49 48 47 48
2550.0 47 50 51 52 54 56 58 57 56 55
2590.0 55 56 56 56 58 59 60 60 61 62
2630.0 63 64 65 66 68 69 70 69 69 67
2670.0 66 65 65 64 62 62 63 62 61 62
2710.0 61 60 60 61 61 59 58 58 57 56
2750.0 57 56 57 56 56 57 57 58 59 61
2790.0 62 64 67 68 69 71 74 76 75 75
2830.0 76 77 76 77 78 78 78 80 81 80
2870.0 79 80 79 80 82 84 91 102 118 141
2910.0 179 229 285 333 363 384 416 442 431 373
2950.0 307 261 238 236 250 290 373 445 449 429
2990.0 453 528 612 660 648 584 485 373 283 226
3030.0 203 203 236 322 542 887 1119 1071 844 593
3070.0 408 329 317 313 285 235 171 122 98 86
3110.0 79 76 74 71 70 69 69 68 66 67
3150.0 66 67 65 65 66 65 63 63 63 62
3190.0 60 58 58 58 56 56 56 55 54 51
3230.0 48 51 51 49 52 52 50 51 50 52
3270.0 53 53 53 51 51 51 51 52 53 53
3310.0 54 54 53 54 55 55 54 53 54 55
3350.0 54 56 57 55 55 55 53 52 53 52
3390.0 51 50 51 52 52 51 49 48 51 47
3430.0 48 52 51 47 49 49 51 51 50 51
3470.0 52 51 51 49 50 54 55 56 55 54
3510.0 55 53 52 53 52 53 54 51 48 48
3550.0 52 52 53 52 48 49 52 52 53 53
3590.0 52 53 55 55 53 52 51 52 52 52
3630.0 51 53 54 52 50 48 49 52 53 56
3670.0 55 55 58 57 56 56 54 53 54 55
3710.0 54 55 56 56 56 60 62 61 60 59
3750.0 62 63 62 60 60 63 65 64 65 66
3790.0 67 66 68 72 71 68 68 68 70 71
3830.0 71 72 73 72 73
##END=
