##TITLE=2,4-Dichlorobenzhydrazide
##JCAMP-DX=4.24
##DATA TYPE=INFRARED SPECTRUM
##ORIGIN=EPA-IR VAPOR PHASE LIBRARY
##OWNER=SRD/NIST
Collection (C) 2018 copyright by the U.S. Secretary of Commerce
on behalf of the United States of America. All rights reserved.
##CAS REGISTRY NO=5814-06-2
##MOLFORM=C 7 H 6 Cl 2 N 2 O
##$NIST SOURCE=MSDC-IR
##STATE=gas
##XUNITS=1/CM
##YUNITS=ABSORBANCE
##XFACTOR=1.
##YFACTOR=0.001
##DELTAX=1.929
##FIRSTX=549.8
##LASTX=4000.8
##FIRSTY=0.7872
##MAXX=4000.75
##MINX=549.766
##MAXY=0.011342
##MINY=0
##NPOINTS=1790
##XYDATA=(X++(Y..Y))
549.766 0.7872 0.7935 0.7586 0.7721 0.6369 0.5867 0.6403 0.7968 1.0453 1.1807
569.056 1.222 0.9919 0.9083 0.8734 0.6926 0.7199 0.7682 0.804 0.6578 0.6055
588.346 0.6593 0.7155 0.707 0.6408 0.7183 0.6809 0.56 0.5247 0.6273 0.5545
607.636 0.5009 0.6059 0.6156 0.5653 0.4178 0.4971 0.6642 0.6564 0.5596 0.4008
626.926 0.4029 0.4447 0.5301 0.5573 0.5326 0.503 0.3831 0.4831 0.3544 0.3103
646.216 0.5325 0.5597 0.5987 0.5506 0.4104 0.3669 0.5399 0.6611 0.5725 0.6176
665.506 0.6781 0.5377 0.5371 0.6422 0.7542 0.8529 0.8333 0.7992 0.6809 0.6289
684.796 0.6402 0.594 0.5809 0.5935 0.5855 0.4892 0.4699 0.4691 0.4661 0.4475
704.086 0.3723 0.462 0.4579 0.4689 0.4944 0.4199 0.4048 0.3366 0.3868 0.3574
723.376 0.23465 0.27109 0.3418 0.3833 0.3064 0.24927 0.3811 0.4856 0.5599 0.5661
742.666 0.482 0.5217 0.5694 0.6086 0.7005 0.799 0.9274 0.9519 0.9829 1.069
761.956 1.0522 1.0647 1.1148 1.1377 1.1363 1.232 1.282 1.332 1.572 1.862
781.246 2.152 2.452 2.932 3.382 3.732 3.942 3.992 4.022 3.952 3.752
800.536 3.452 3.112 2.812 2.612 2.472 2.462 2.472 2.622 2.852 3.002
819.826 3.152 3.322 3.482 3.512 3.572 3.542 3.332 3.072 2.862 2.682
839.116 2.472 2.252 2.052 1.942 1.932 1.922 1.942 1.932 1.832 1.882
858.406 2.042 2.082 2.172 2.422 2.642 2.832 2.782 2.462 2.192 2.002
877.696 1.862 1.772 1.612 1.432 1.412 1.472 1.502 1.452 1.512 1.632
896.986 1.712 1.852 1.992 2.172 2.412 2.572 2.902 3.342 3.622 3.932
916.276 4.422 4.972 5.572 6.112 6.642 7.122 7.572 7.932 7.952 7.742
935.566 7.342 6.812 6.172 5.402 4.592 3.882 3.272 2.752 2.382 2.082
954.856 1.812 1.552 1.352 1.292 1.222 1.0687 0.9866 0.9693 0.9581 0.8482
974.146 0.7211 0.7109 0.6944 0.6395 0.679 0.7036 0.6694 0.6589 0.6594 0.5908
993.436 0.5143 0.544 0.6252 0.6308 0.5377 0.5335 0.5925 0.6251 0.5902 0.5454
1012.726 0.5645 0.6091 0.6709 0.6342 0.6521 0.7153 0.6924 0.7334 0.8113 0.8618
1032.016 0.8882 1.0558 1.342 1.532 1.842 2.172 2.322 2.502 2.642 2.602
1051.306 2.522 2.422 2.192 2.002 1.872 1.652 1.532 1.382 1.232 1.282
1070.596 1.252 1.222 1.262 1.352 1.352 1.312 1.402 1.442 1.532 1.732
1089.886 1.892 2.062 2.322 2.682 3.062 3.532 4.032 4.462 4.742 4.782
1109.176 4.592 4.142 3.642 3.132 2.632 2.222 1.982 1.932 1.872 1.802
1128.467 1.742 1.742 1.732 1.722 1.782 1.792 1.692 1.642 1.612 1.522
1147.757 1.412 1.292 1.252 1.0639 0.8909 0.894 0.8688 0.8671 0.918 0.9954
1167.047 1.0296 1.0919 1.1269 1.1421 1.252 1.412 1.422 1.392 1.602 1.742
1186.337 1.742 1.772 1.802 1.852 1.852 1.732 1.642 1.592 1.402 1.232
1205.627 1.212 1.149 1.0412 0.9514 0.8379 0.7989 0.8447 0.8508 0.8256 0.8098
1224.917 0.8206 0.8932 0.9723 0.9953 1.0521 1.192 1.362 1.532 1.672 1.782
1244.207 1.842 1.832 1.802 1.822 1.792 1.712 1.672 1.702 1.772 1.892
1263.497 2.062 2.262 2.522 2.852 3.212 3.582 4.072 4.632 5.212 5.762
1282.787 6.162 6.322 6.222 5.862 5.202 4.412 3.612 2.922 2.362 1.952
1302.077 1.712 1.522 1.352 1.302 1.252 1.157 1.1466 1.1438 1.0535 1.0471
1321.367 1.0517 1.0392 1.0837 1.0901 1.0905 1.1009 1.1164 1.1558 1.1706 1.192
1340.657 1.252 1.252 1.312 1.342 1.352 1.392 1.432 1.542 1.642 1.722
1359.947 1.902 2.142 2.332 2.532 2.782 3.032 3.282 3.392 3.392 3.372
1379.237 3.262 3.062 2.772 2.482 2.182 1.942 1.802 1.652 1.602 1.542
1398.527 1.492 1.522 1.532 1.552 1.582 1.622 1.742 1.902 2.022 2.192
1417.817 2.382 2.652 3.042 3.432 3.852 4.372 4.922 5.462 6.032 6.582
1437.107 7.122 7.602 7.982 8.232 8.412 8.472 8.452 8.362 8.192 7.972
1456.397 7.712 7.532 7.462 7.412 7.312 7.152 6.982 6.692 6.242 5.792
1475.687 5.342 4.922 4.592 4.352 4.202 4.092 4.072 4.062 3.992 3.952
1494.977 3.882 3.742 3.632 3.562 3.422 3.202 3.022 2.922 2.832 2.692
1514.267 2.582 2.492 2.392 2.272 2.152 2.052 1.982 1.932 1.862 1.782
1533.557 1.762 1.822 1.822 1.772 1.792 1.882 1.982 2.052 2.182 2.332
1552.847 2.362 2.402 2.442 2.392 2.492 2.652 2.792 3.022 3.272 3.662
1572.137 4.202 4.782 5.522 6.442 7.402 8.372 9.252 9.882 10.082 9.842
1591.427 9.182 8.232 7.082 5.822 4.682 3.802 3.242 2.922 2.742 2.712
1610.717 2.682 2.652 2.712 2.782 2.942 3.122 3.242 3.342 3.502 3.662
1630.007 3.772 3.812 3.762 3.712 3.692 3.642 3.512 3.362 3.202 3.052
1649.297 2.932 2.822 2.812 2.882 2.882 2.922 3.042 3.152 3.282 3.422
1668.587 3.532 3.772 4.102 4.392 4.752 5.182 5.712 6.302 6.972 7.712
1687.877 8.412 9.122 9.772 10.262 10.732 11.132 11.292 11.342 11.282 11.202
1707.167 11.112 10.992 10.782 10.502 10.152 9.732 9.172 8.372 7.362 6.382
1726.457 5.532 4.782 4.122 3.592 3.102 2.642 2.342 2.082 1.832 1.692
1745.747 1.592 1.472 1.382 1.312 1.292 1.282 1.322 1.372 1.332 1.292
1765.037 1.312 1.302 1.242 1.1528 1.0577 0.9837 0.9418 0.9509 0.9278 0.8752
1784.327 0.8453 0.8452 0.8348 0.7978 0.7882 0.7753 0.7572 0.7358 0.722 0.7689
1803.617 0.7117 0.6019 0.6021 0.5986 0.553 0.5135 0.485 0.456 0.4527 0.4503
1822.907 0.4125 0.427 0.4469 0.4252 0.4339 0.4023 0.3612 0.3904 0.4189 0.3893
1842.197 0.3669 0.3465 0.3548 0.4072 0.394 0.3744 0.3617 0.3581 0.3427 0.3094
1861.487 0.3234 0.3513 0.3448 0.3492 0.3746 0.397 0.3814 0.3652 0.4 0.4118
1880.777 0.4142 0.4273 0.4051 0.3591 0.3523 0.4063 0.4446 0.4499 0.4558 0.4566
1900.067 0.4561 0.4578 0.44 0.41 0.4363 0.4299 0.3878 0.4151 0.4389 0.3907
1919.357 0.3355 0.3378 0.3687 0.3731 0.3905 0.3845 0.3764 0.3984 0.3852 0.3714
1938.647 0.377 0.3662 0.3579 0.3179 0.27212 0.26649 0.3083 0.3372 0.3312 0.3468
1957.937 0.3251 0.3454 0.3594 0.3335 0.3625 0.3717 0.3457 0.3382 0.3654 0.3693
1977.227 0.321 0.3059 0.3418 0.3571 0.3455 0.3227 0.292 0.2945 0.3181 0.2824
1996.517 0.26267 0.32 0.3233 0.2987 0.3228 0.3095 0.287 0.26438 0.23502 0.27029
2015.807 0.2862 0.3119 0.3502 0.3413 0.3569 0.3361 0.3064 0.3271 0.3525 0.3636
2035.097 0.3432 0.3121 0.2928 0.2944 0.2898 0.3159 0.3803 0.3693 0.3421 0.3343
2054.387 0.3186 0.3067 0.2943 0.2946 0.3039 0.27974 0.25971 0.26977 0.27133 0.3057
2073.677 0.3372 0.3266 0.3355 0.3351 0.3184 0.3138 0.2992 0.27992 0.2901 0.3088
2092.967 0.3128 0.3178 0.3084 0.2895 0.27763 0.3084 0.3371 0.3438 0.3706 0.3439
2112.257 0.2874 0.294 0.2994 0.2941 0.308 0.3224 0.3302 0.3127 0.296 0.3053
2131.547 0.2879 0.3015 0.3323 0.3142 0.3077 0.3269 0.3078 0.2946 0.3188 0.3079
2150.837 0.3122 0.3104 0.2878 0.3166 0.3742 0.4073 0.4125 0.3663 0.3471 0.3668
2170.127 0.3285 0.3319 0.336 0.3193 0.3346 0.3498 0.3552 0.305 0.3476 0.3838
2189.417 0.3536 0.3492 0.2981 0.2885 0.3308 0.3286 0.314 0.344 0.342 0.3256
2208.707 0.3481 0.325 0.2864 0.25936 0.27607 0.3298 0.3369 0.3328 0.3638 0.354
2227.997 0.3067 0.2895 0.3097 0.3631 0.3552 0.33 0.3316 0.2833 0.28182 0.3403
2247.287 0.3475 0.3506 0.3767 0.3939 0.3469 0.3312 0.3616 0.3912 0.3933 0.367
2266.577 0.3215 0.28184 0.3495 0.3338 0.27412 0.2966 0.3207 0.3333 0.357 0.406
2285.868 0.4103 0.3934 0.3862 0.4023 0.4181 0.4264 0.3914 0.3546 0.3718 0.3946
2305.158 0.4001 0.4048 0.3941 0.3672 0.3735 0.3221 0.3222 0.3881 0.3806 0.3759
2324.448 0.3688 0.3531 0.3425 0.3065 0.328 0.3598 0.3103 0.27425 0.3083 0.3435
2343.738 0.3546 0.3658 0.3493 0.336 0.3483 0.2934 0.24651 0.3075 0.3258 0.3234
2363.028 0.3794 0.3958 0.3552 0.34 0.3833 0.4154 0.3586 0.3236 0.3699 0.335
2382.318 0.3069 0.3473 0.3383 0.3305 0.3085 0.3264 0.3866 0.3663 0.3205 0.3062
2401.608 0.2989 0.3076 0.3411 0.3425 0.3382 0.3561 0.3993 0.3729 0.31 0.3298
2420.898 0.3761 0.3764 0.3461 0.3568 0.36 0.3479 0.3378 0.3375 0.3695 0.3828
2440.188 0.331 0.3009 0.3518 0.3087 0.3069 0.3741 0.4015 0.4331 0.379 0.3486
2459.478 0.3667 0.3296 0.3309 0.3748 0.3782 0.3812 0.3629 0.3524 0.3482 0.3656
2478.768 0.4053 0.4315 0.3708 0.3264 0.3448 0.3426 0.3871 0.3597 0.3297 0.3752
2498.058 0.3976 0.3914 0.3555 0.3899 0.4212 0.4038 0.4329 0.46 0.4948 0.474
2517.348 0.4277 0.4278 0.449 0.4217 0.3215 0.2952 0.3777 0.4378 0.4024 0.3952
2536.638 0.4262 0.402 0.384 0.4008 0.4458 0.4502 0.4105 0.4066 0.4703 0.4726
2555.928 0.3636 0.3705 0.4354 0.4281 0.4385 0.4224 0.3777 0.3962 0.4628 0.4109
2575.218 0.3155 0.3324 0.34 0.3402 0.3505 0.3642 0.4132 0.4272 0.3938 0.4194
2594.508 0.4438 0.4444 0.3853 0.3485 0.4063 0.4119 0.3318 0.3476 0.4434 0.3917
2613.798 0.416 0.4533 0.4181 0.3752 0.3812 0.4269 0.3968 0.425 0.3824 0.3537
2633.088 0.3964 0.3769 0.3486 0.3743 0.3993 0.4039 0.4044 0.4192 0.4332 0.4428
2652.378 0.4332 0.4038 0.3806 0.3864 0.3995 0.4021 0.4326 0.4669 0.4362 0.3954
2671.668 0.4574 0.4033 0.3063 0.3441 0.3566 0.3392 0.3386 0.4085 0.4503 0.4389
2690.958 0.4184 0.4038 0.3874 0.4058 0.4189 0.3835 0.4751 0.4776 0.4423 0.4801
2710.248 0.495 0.4556 0.446 0.4326 0.4198 0.4406 0.3975 0.4089 0.4936 0.4535
2729.538 0.4166 0.4871 0.4628 0.4562 0.4599 0.4383 0.4691 0.4782 0.5302 0.5853
2748.828 0.4956 0.466 0.5156 0.5339 0.5081 0.455 0.4714 0.4972 0.4267 0.3966
2768.118 0.4551 0.4869 0.5182 0.487 0.4756 0.4696 0.4144 0.3944 0.3506 0.357
2787.408 0.4162 0.35 0.25844 0.3336 0.4756 0.4936 0.4258 0.4632 0.5045 0.5316
2806.698 0.5136 0.3599 0.3005 0.382 0.399 0.4209 0.4722 0.4804 0.5127 0.5048
2825.988 0.5137 0.5296 0.4421 0.3319 0.3749 0.4426 0.4609 0.4295 0.3993 0.4296
2845.278 0.4452 0.4598 0.4304 0.4673 0.4825 0.4608 0.5417 0.5814 0.6099 0.6361
2864.568 0.6877 0.6934 0.606 0.5884 0.5867 0.5281 0.452 0.4138 0.455 0.4453
2883.858 0.3269 0.3374 0.3666 0.358 0.3239 0.3304 0.3643 0.3153 0.2831 0.3176
2903.148 0.3196 0.4065 0.4758 0.4098 0.3882 0.3484 0.4025 0.4052 0.3546 0.3184
2922.438 0.3175 0.3186 0.3011 0.3621 0.4364 0.4151 0.3748 0.3761 0.3788 0.4434
2941.728 0.4345 0.3995 0.4436 0.4049 0.3232 0.26132 0.3014 0.3468 0.3992 0.4105
2961.018 0.3693 0.425 0.4498 0.462 0.3584 0.3812 0.4485 0.4634 0.4142 0.3173
2980.308 0.2845 0.26194 0.2913 0.3136 0.3051 0.24453 0.3038 0.2951 0.3247 0.4196
2999.598 0.3783 0.3499 0.3366 0.25996 0.2844 0.4022 0.3256 0.25902 0.3159 0.3527
3018.888 0.3735 0.4277 0.4387 0.436 0.3983 0.4061 0.4114 0.3981 0.4562 0.3776
3038.178 0.3367 0.375 0.3154 0.3237 0.3352 0.3248 0.362 0.4442 0.4801 0.4868
3057.468 0.4888 0.445 0.404 0.368 0.4072 0.3432 0.3179 0.3884 0.4259 0.3778
3076.758 0.3841 0.4551 0.4996 0.5668 0.5884 0.4925 0.458 0.526 0.4739 0.3511
3096.048 0.3151 0.377 0.4272 0.4999 0.481 0.3631 0.376 0.4167 0.3404 0.3337
3115.338 0.4 0.448 0.3861 0.3064 0.312 0.3467 0.425 0.3589 0.3233 0.3483
3134.628 0.25977 0.23459 0.22167 0.19692 0.2591 0.3229 0.3417 0.3253 0.2903 0.2984
3153.918 0.27047 0.189633 0.20339 0.287 0.3218 0.3032 0.2951 0.27223 0.3163 0.3566
3173.208 0.27604 0.3525 0.4385 0.3204 0.22772 0.24728 0.25291 0.26802 0.3696 0.4333
3192.498 0.3857 0.3871 0.4401 0.396 0.4469 0.4617 0.3865 0.3561 0.3817 0.4668
3211.788 0.4136 0.4162 0.3877 0.2936 0.3278 0.3261 0.26028 0.23268 0.27794 0.3013
3231.078 0.2937 0.3005 0.26146 0.2538 0.1943 0.1506 0.28066 0.2864 0.22432 0.245
3250.368 0.25091 0.24418 0.27806 0.3425 0.3592 0.3105 0.3183 0.3417 0.2828 0.24172
3269.658 0.19774 0.1443 0.24859 0.3401 0.3211 0.3163 0.22067 0.19889 0.17397 0.17589
3288.948 0.25162 0.25475 0.26095 0.27527 0.3068 0.24804 0.20683 0.2906 0.3287 0.3036
3308.238 0.26742 0.2054 0.19276 0.20896 0.2902 0.3551 0.349 0.28015 0.19559 0.27705
3327.528 0.3375 0.3085 0.25051 0.25772 0.3153 0.398 0.4673 0.5329 0.5241 0.5006
3346.818 0.5212 0.4381 0.3981 0.408 0.4515 0.5004 0.4887 0.4412 0.3412 0.3268
3366.108 0.3395 0.4088 0.4207 0.3185 0.4055 0.4009 0.3752 0.3414 0.2839 0.3327
3385.398 0.2987 0.27549 0.3199 0.3206 0.368 0.4408 0.4544 0.4776 0.3826 0.3093
3404.688 0.4167 0.4931 0.5133 0.5212 0.5202 0.4946 0.4959 0.5273 0.5557 0.6259
3423.978 0.7049 0.8118 0.8035 0.7804 0.8783 0.9752 1.0601 1.0821 1.08 1.1607
3443.269 1.352 1.552 1.632 1.642 1.752 1.892 1.982 2.182 2.232 2.282
3462.559 2.492 2.572 2.562 2.492 2.452 2.492 2.452 2.282 2.172 2.012
3481.849 1.842 1.682 1.542 1.482 1.322 1.212 1.1237 1.1314 1.0713 0.9082
3501.139 0.8124 0.7333 0.7312 0.6944 0.5971 0.5287 0.4113 0.327 0.4379 0.4953
3520.429 0.3818 0.3714 0.332 0.2983 0.3034 0.3051 0.3474 0.3273 0.23419 0.22223
3539.719 0.3322 0.3252 0.27693 0.27765 0.3257 0.3251 0.3328 0.3174 0.345 0.2832
3559.009 0.3183 0.3644 0.22149 0.24657 0.2713 0.27282 0.3716 0.3513 0.2931 0.3897
3578.299 0.4236 0.3821 0.4143 0.4994 0.5187 0.4432 0.3891 0.3867 0.3097 0.24168
3597.589 0.2017 0.23664 0.22052 0.1486 0.19693 0.24872 0.27792 0.20422 0.20174 0.24551
3616.879 0.17981 0.187714 0.27408 0.23018 0.19481 0.24135 0.1381 0.20085 0.3259 0.2872
3636.169 0.21261 0.1262 0.1318 0.19342 0.25101 0.3286 0.20843 0.079 0.1117 0.23032
3655.459 0.20943 0 0.1441 0.2951 0.1507 0.19602 0.3159 0.21084 0.1314 0.1714
3674.749 0.1418 0.1574 0.1115 0.0935 0.20652 0.23038 0.27314 0.3374 0.3638 0.3181
3694.039 0.27521 0.27036 0.3136 0.3884 0.3764 0.2809 0.184836 0.1691 0.24799 0.285
3713.329 0.26884 0.2479 0.23348 0.22985 0.25672 0.25109 0.20052 0.22174 0.21586 0.20672
3732.619 0.19732 0.19578 0.325 0.3785 0.3602 0.3892 0.3587 0.3604 0.3684 0.20484
3751.909 0.24465 0.3481 0.2857 0.24786 0.25569 0.3447 0.3249 0.3223 0.3599 0.26171
3771.199 0.26405 0.349 0.2548 0.22893 0.3471 0.3617 0.3084 0.3163 0.3114 0.20645
3790.489 0.23321 0.3809 0.3698 0.3835 0.4035 0.21276 0.1235 0.24387 0.27648 0.23298
3809.779 0.23996 0.25627 0.25112 0.3389 0.4667 0.343 0.24766 0.20349 0.20148 0.3281
3829.069 0.24683 0.22406 0.22412 0.023 0.036 0.1435 0.17312 0.2944 0.3001 0.1627
3848.359 0.1194 0.20134 0.19613 0.1464 0.1621 0.1287 0.20998 0.2885 0.24281 0.26007
3867.649 0.27564 0.271 0.3036 0.3231 0.3165 0.361 0.3717 0.4313 0.3645 0.3347
3886.939 0.3883 0.3685 0.4533 0.387 0.3528 0.3492 0.25728 0.22545 0.24621 0.26982
3906.229 0.2871 0.2711 0.3155 0.3532 0.3314 0.344 0.3538 0.3267 0.3054 0.19455
3925.519 0.1031 0.26119 0.3054 0.24794 0.23146 0.28175 0.3091 0.27229 0.374 0.315
3944.809 0.3279 0.3483 0.20115 0.2912 0.4136 0.3546 0.342 0.3286 0.25871 0.3127
3964.099 0.3335 0.3749 0.3319 0.2273 0.1541 0.1588 0.26282 0.27225 0.27256 0.319
3983.389 0.4182 0.3874 0.26888 0.24186 0.25453 0.3706 0.3823 0.22553 0.21904 0.25977
##END=
