##TITLE=3-(Cyclopropylamino)propionitrile
##JCAMP-DX=4.24
##DATA TYPE=INFRARED SPECTRUM
##ORIGIN=EPA-IR VAPOR PHASE LIBRARY
##OWNER=SRD/NIST
Collection (C) 2018 copyright by the U.S. Secretary of Commerce
on behalf of the United States of America. All rights reserved.
##CAS REGISTRY NO=58196-47-7
##MOLFORM=C 6 H 10 N 2
##$NIST SOURCE=MSDC-IR
##STATE=gas
##XUNITS=1/CM
##YUNITS=ABSORBANCE
##XFACTOR=1.
##YFACTOR=0.001
##DELTAX=1.92898
##FIRSTX=549.8
##LASTX=4000.7
##FIRSTY=3.3926
##MAXX=4000.7
##MINX=549.759
##MAXY=0.0257426
##MINY=0
##NPOINTS=1790
##XYDATA=(X++(Y..Y))
549.759 3.3926 3.3826 3.4626 3.5026 3.2326 3.3126 3.4726 3.5826 3.2226 3.0226
569.049 3.4626 3.6426 3.4726 3.3826 3.6826 3.6326 3.4926 3.5226 3.5126 3.7926
588.339 3.9226 3.8826 4.0026 4.1426 4.0726 4.0726 4.1226 4.1226 4.1526 4.3626
607.628 4.6126 4.6126 4.7526 4.8326 4.8826 5.2226 5.4926 5.8226 6.0326 6.0426
626.918 5.9426 6.1126 6.5326 6.7126 6.8626 6.7326 6.6626 6.9126 7.1526 7.3926
646.208 7.5626 7.7626 8.2626 8.4826 8.4026 8.5626 8.9426 9.1326 9.0926 9.3326
665.498 9.5026 9.5626 9.6826 9.9426 10.1126 9.9626 9.9226 10.0626 10.0826 10.1426
684.787 10.2426 10.0326 9.8426 9.7526 9.7526 9.7026 9.6526 9.6526 9.5526 9.3826
704.077 9.2626 9.2726 9.2726 9.1026 9.0126 9.0426 8.8326 8.6426 8.5126 8.2926
723.367 8.3126 8.5226 8.4626 8.1826 7.9426 7.8226 7.7026 7.6026 7.5026 7.3626
742.657 7.3426 7.1426 6.9326 6.9226 6.8126 6.6926 6.7226 6.7726 6.6526 6.3426
761.947 5.9026 5.5226 5.3626 5.2426 4.9026 4.6826 4.6126 4.3526 4.0726 3.9626
781.236 3.7926 3.8126 3.9826 3.8726 3.9026 3.9926 4.0726 4.1626 4.4126 4.7426
800.526 4.8626 5.0326 5.3026 5.6826 5.8726 5.9026 6.1126 6.3726 6.6626 6.9626
819.816 7.2826 7.3726 7.1426 7.0426 6.9526 6.7026 6.4726 6.2526 6.0026 5.5726
839.106 5.1626 4.8626 4.4626 4.0126 3.8826 3.7926 3.5026 3.4326 3.4226 3.2926
858.395 3.1026 3.1626 3.1326 2.9426 3.0126 2.8826 2.7526 2.8826 2.7926 2.5726
877.685 2.5826 2.5326 2.5226 2.5426 2.4726 2.5026 2.6026 2.5126 2.4226 2.5426
896.975 2.5226 2.4826 2.5426 2.7326 3.0126 3.2526 3.4826 3.8026 4.0326 4.2526
916.265 4.5326 4.8426 5.1726 5.3326 5.4426 5.5926 5.7626 5.7926 5.7126 5.6126
935.555 5.4026 5.2526 5.0526 4.7926 4.5326 4.3026 4.0726 3.8126 3.6426 3.4726
954.844 3.2126 3.1526 3.1226 3.1026 3.2126 3.1826 3.1126 3.0826 3.1126 3.0926
974.134 3.1726 3.3526 3.5326 3.6126 3.6826 3.7526 3.5426 3.5526 3.7226 3.8026
993.424 4.0626 4.4526 4.6626 4.6026 4.9126 5.5326 6.4126 7.5526 8.4626 9.4126
1012.714 10.3826 11.3626 12.0026 12.1026 11.9926 11.6726 11.2626 10.9426 10.6126 9.9826
1032.003 8.8326 7.5326 6.7526 6.2526 5.9626 5.8426 5.4926 4.9426 4.7926 5.0526
1051.293 5.2926 5.1726 5.1026 5.1126 4.8426 4.6726 4.6726 4.8926 4.8926 4.6626
1070.583 4.8926 5.1026 4.9826 5.2326 5.7426 6.1326 6.4926 7.1526 7.9326 8.8326
1089.873 9.9926 10.7426 11.0526 11.7226 12.5426 13.0026 12.9326 12.7926 12.5626 12.0026
1109.163 11.3826 10.4926 9.7026 8.8826 7.6926 6.8626 6.2326 5.4526 4.9026 4.6426
1128.452 4.5026 4.0226 3.7026 3.7926 3.7226 3.4826 3.6726 3.8426 3.7026 3.8826
1147.742 4.1726 4.2126 4.5626 4.9626 5.0426 5.7426 6.2026 6.1826 6.4826 6.7026
1167.032 6.6526 6.3426 6.0426 5.8826 5.7026 5.3726 4.9426 4.8526 4.6226 4.2626
1186.322 4.3426 4.4626 4.4826 4.5926 4.7026 5.0026 5.4926 5.8926 6.5726 7.1726
1205.611 7.5726 8.2626 8.5426 8.8926 9.6426 9.8226 10.0126 10.5426 10.5026 10.0926
1224.901 9.7426 9.3626 8.8726 8.2726 8.2326 8.2026 7.6126 6.8926 6.5526 6.3426
1244.191 5.8626 5.3726 5.2126 5.0526 4.8626 4.8526 4.7626 4.6826 4.4926 4.0926
1263.481 3.7926 3.5826 3.4826 3.3826 3.2726 3.4026 3.3426 3.2626 3.4326 3.3826
1282.771 3.1626 3.0826 3.0826 3.1126 3.0926 3.1326 3.0826 3.0426 3.1826 3.2626
1302.060 3.4126 3.5626 3.6726 3.7826 3.9026 4.1626 4.4726 4.8226 5.1626 5.4726
1321.350 5.8526 6.3326 6.9226 7.5626 8.3026 9.1726 10.2526 11.6126 13.3126 15.3026
1340.640 17.4026 19.5326 21.4026 22.8126 23.7226 24.2326 24.4426 24.3026 23.8626 23.0726
1359.930 21.7726 19.9426 17.7826 15.6926 13.9226 12.5026 11.4126 10.5326 9.8026 9.2526
1379.219 8.7726 8.3626 7.9126 7.4526 7.1326 6.7426 6.2626 5.8426 5.5026 5.3026
1398.509 5.1326 5.0626 5.1626 5.3126 5.6026 6.0126 6.4426 6.9426 7.4826 8.0226
1417.799 8.6426 9.3126 10.0026 10.5826 11.1226 11.6726 12.2726 12.8826 13.5326 14.1626
1437.089 14.7126 15.2626 15.6526 15.9026 16.1326 16.2726 16.3426 16.3126 16.0426 15.6126
1456.378 15.0226 14.3426 13.5926 12.7926 12.1426 11.5226 10.8926 10.1826 9.3926 8.7026
1475.668 8.1126 7.5226 6.9626 6.4026 5.8526 5.3426 4.7826 4.2026 3.6426 3.2126
1494.958 2.8726 2.6526 2.4726 2.2926 2.1326 1.9826 1.8226 1.7226 1.6526 1.6326
1514.248 1.6026 1.4526 1.3826 1.3726 1.3126 1.2926 1.2726 1.2126 1.1626 1.1826
1533.538 1.1726 1.1426 1.0926 1.0326 1.0826 1.1226 1.0826 1.0726 1.1426 1.1826
1552.827 1.1426 1.0926 1.0626 1.0062 0.9986 1.0426 1.0226 1.0526 0.993 0.9253
1572.117 1.0326 1.0426 0.9379 1.0071 1.0526 0.978 0.9774 0.9698 0.9615 1.0151
1591.407 0.9548 0.8265 0.8586 0.9251 0.8265 0.7644 0.8789 0.9113 0.8404 0.8029
1610.697 0.8093 0.8468 0.8631 0.7974 0.7457 0.6965 0.7562 0.7523 0.6439 0.6917
1629.986 0.7607 0.7816 0.7746 0.8119 0.828 0.8238 0.8448 0.8468 0.9283 0.9982
1649.276 1.0052 0.9919 0.9573 0.9702 1.0626 1.1726 1.2626 1.3326 1.3826 1.4426
1668.566 1.4826 1.5326 1.6026 1.5626 1.5426 1.4726 1.4226 1.3826 1.2726 1.2326
1687.856 1.1326 1.0526 0.9792 0.9005 0.9012 0.8573 0.8083 0.8005 0.7904 0.7252
1707.146 0.713 0.8004 0.8285 0.7455 0.7313 0.7929 0.8052 0.7896 0.7705 0.7885
1726.435 0.7644 0.7456 0.8102 0.8733 0.8331 0.8228 0.8416 0.8422 0.8834 0.9027
1745.725 0.9018 0.8947 0.8658 0.91 0.9901 0.9871 1.0123 1.0326 1.0426 1.0826
1765.015 1.1026 1.1026 1.1126 1.1526 1.1426 1.1326 1.1326 1.1526 1.1326 1.1026
1784.305 1.1426 1.1826 1.2026 1.1626 1.1026 1.0626 1.0726 1.0526 0.969 0.914
1803.594 0.9098 0.895 0.8876 0.8721 0.8244 0.8552 0.8879 0.8637 0.8858 0.8986
1822.884 0.8655 0.8318 0.8697 0.8996 0.8977 0.8693 0.8293 0.8434 0.9094 1.0043
1842.174 0.9816 0.9476 0.9524 0.9251 0.9493 1.0426 1.0526 0.9548 0.9382 0.9241
1861.464 0.99 1.0326 1.0326 1.0926 1.1026 1.0526 0.9686 0.9264 0.9434 0.9843
1880.754 0.985 0.9761 0.9555 0.9486 0.9459 0.9403 0.9494 0.9515 0.9136 0.9084
1900.043 0.9411 0.9319 0.9403 0.9551 0.9803 0.9847 0.9856 1.0033 1.017 1.0426
1919.333 1.0526 1.0526 1.1026 1.0826 1.0326 1.0426 1.0626 1.0826 1.0526 1.0526
1938.623 1.0826 1.0726 1.0226 1.0526 1.0526 0.9722 0.9482 0.9519 0.9914 1.0185
1957.913 1.0127 0.9636 0.8947 0.8933 0.9285 0.8834 0.8593 0.9177 0.8966 0.8743
1977.202 0.8345 0.8009 0.8192 0.8604 0.8232 0.7345 0.7579 0.7804 0.7697 0.7621
1996.492 0.737 0.757 0.7632 0.7382 0.7555 0.7259 0.7016 0.7336 0.8041 0.814
2015.782 0.8127 0.8227 0.8074 0.8516 0.8407 0.8252 0.8537 0.8954 0.9695 1.0142
2035.072 0.9927 0.9626 1.0226 1.0726 1.0426 1.0526 1.0426 1.0726 1.1126 1.1126
2054.362 1.1926 1.2126 1.1726 1.1326 1.1426 1.1726 1.1526 1.1626 1.1826 1.1426
2073.651 1.0926 1.0426 1.0526 1.0326 1.0226 1.0102 0.9429 0.9313 0.9181 0.9184
2092.941 0.8798 0.8089 0.809 0.788 0.7595 0.7244 0.6872 0.7449 0.6898 0.6485
2112.231 0.6967 0.7199 0.7178 0.6891 0.7093 0.7381 0.7058 0.6651 0.6741 0.7147
2131.521 0.7272 0.6971 0.7688 0.8165 0.7434 0.7899 0.8126 0.7698 0.833 0.8157
2150.810 0.7509 0.7751 0.7407 0.6952 0.6533 0.6792 0.7438 0.7098 0.6713 0.7243
2170.100 0.7804 0.7267 0.6813 0.721 0.7549 0.7081 0.7566 0.8403 0.7787 0.7761
2189.390 0.8612 0.8827 0.8855 0.8855 0.8851 0.8834 0.8666 0.8358 0.8026 0.7904
2208.680 0.8722 0.8693 0.7829 0.8224 0.9011 0.9179 0.8926 0.9197 0.9761 1.0123
2227.970 1.0137 1.0526 1.1326 1.2826 1.4626 1.6226 1.7926 1.9026 2.0826 2.2626
2247.259 2.3226 2.3726 2.3726 2.3326 2.2926 2.2226 2.1326 1.9326 1.7726 1.5826
2266.549 1.3626 1.2426 1.1326 0.9926 0.9074 0.8289 0.7655 0.7377 0.7562 0.7105
2285.839 0.6191 0.5559 0.5347 0.5517 0.5223 0.4985 0.5452 0.5569 0.4884 0.4623
2305.129 0.4682 0.4594 0.4948 0.5535 0.5232 0.5039 0.4974 0.474 0.4805 0.4977
2324.418 0.5475 0.5435 0.553 0.556 0.5188 0.511 0.4936 0.4312 0.4405 0.5129
2343.708 0.4734 0.4335 0.4642 0.5338 0.5484 0.4997 0.5349 0.5206 0.4919 0.5445
2362.998 0.6015 0.5715 0.5136 0.4948 0.4868 0.5421 0.563 0.4944 0.5065 0.5768
2382.288 0.5336 0.5421 0.5913 0.5525 0.5374 0.608 0.5745 0.4892 0.5213 0.5878
2401.578 0.5786 0.5665 0.6121 0.6051 0.5396 0.5318 0.6142 0.5974 0.5944 0.6405
2420.867 0.6732 0.7095 0.6716 0.6319 0.6455 0.5968 0.5333 0.5702 0.5745 0.5803
2440.157 0.6458 0.597 0.5787 0.6191 0.6563 0.6945 0.6095 0.5859 0.6259 0.628
2459.447 0.6153 0.5707 0.5712 0.621 0.6626 0.6529 0.6365 0.6187 0.5487 0.5296
2478.737 0.6271 0.6519 0.5966 0.5549 0.5035 0.5222 0.5595 0.5708 0.5922 0.525
2498.026 0.4567 0.4861 0.4979 0.544 0.6098 0.625 0.5404 0.4819 0.5078 0.5025
2517.316 0.4942 0.5054 0.4768 0.4696 0.4592 0.4809 0.5207 0.4354 0.429 0.4767
2536.606 0.5154 0.4332 0.3784 0.4602 0.4144 0.4645 0.5585 0.543 0.5672 0.566
2555.896 0.5997 0.6107 0.5297 0.5659 0.5189 0.4428 0.4161 0.4276 0.4645 0.4475
2575.186 0.575 0.5999 0.5114 0.5191 0.5001 0.5028 0.522 0.5601 0.5751 0.5244
2594.475 0.518 0.552 0.5875 0.5045 0.532 0.6083 0.6345 0.7018 0.6244 0.6028
2613.765 0.6502 0.6449 0.6608 0.724 0.7579 0.7438 0.6901 0.7087 0.8011 0.8294
2633.055 0.762 0.7488 0.8095 0.7879 0.7286 0.7418 0.7629 0.7659 0.7917 0.7354
2652.345 0.7053 0.684 0.7186 0.8078 0.8031 0.8015 0.8296 0.8702 0.8856 0.893
2671.634 0.9543 1.0226 1.0926 1.1526 1.1326 1.1626 1.1326 1.1226 1.2626 1.2726
2690.924 1.2626 1.1626 1.1326 1.2026 1.1626 1.1526 1.2326 1.2226 1.1626 1.1726
2710.214 1.1226 1.1326 1.2126 1.1426 1.1526 1.2426 1.2126 1.2226 1.2526 1.2626
2729.504 1.2526 1.2626 1.3026 1.2926 1.3526 1.4226 1.4326 1.6026 1.5626 1.4526
2748.794 1.5526 1.5926 1.5626 1.5126 1.5526 1.5926 1.6226 1.7126 1.7626 1.7726
2768.083 1.6826 1.6026 1.6626 1.6126 1.6226 1.7326 1.7426 1.7826 1.8826 1.9026
2787.373 1.9526 2.1026 2.2126 2.1626 2.1926 2.4326 2.6426 2.7526 2.8526 2.9726
2806.663 3.1326 3.3926 3.6326 3.9726 4.3426 4.6826 5.1626 5.5226 5.9226 6.3626
2825.953 6.9226 7.6526 8.3126 9.0226 9.6826 10.4026 11.1426 11.8226 12.4426 12.9426
2845.242 13.3426 13.6826 14.0126 14.1126 14.0626 13.8826 13.6626 13.4426 13.0726 12.7126
2864.532 12.3926 11.9426 11.3826 10.7926 10.2126 9.7226 9.3526 8.9326 8.5226 8.1226
2883.822 7.8026 7.6026 7.3326 7.1126 7.0626 6.9726 6.8626 6.8526 6.9526 7.0026
2903.112 7.0426 7.3726 7.6826 7.9726 8.3526 8.6626 9.1226 9.7326 10.3126 11.0126
2922.401 11.8526 12.7226 13.7426 14.8526 16.1326 17.3226 18.3626 19.5426 20.6926 21.6626
2941.691 22.6226 23.4526 24.2126 25.0226 25.4626 25.7026 25.7426 25.5126 25.2526 24.6026
2960.981 23.8126 23.1326 22.1626 21.1026 20.0226 18.9526 17.8526 16.6526 15.4526 14.1826
2980.271 13.1326 12.0826 11.1826 10.5426 9.9426 9.5626 9.2926 9.1126 9.0726 9.0726
2999.561 9.2626 9.6226 10.0926 10.7626 11.4826 12.0526 12.5726 13.1526 13.5426 13.6626
3018.850 13.7326 13.6826 13.3626 12.7026 11.9726 11.3126 10.3626 9.2826 8.2226 7.1426
3038.140 6.2226 5.4726 4.8226 4.2726 3.8126 3.3626 3.0026 2.9426 2.8626 2.6526
3057.430 2.5626 2.6326 2.6826 2.7126 2.8426 2.9726 3.2526 3.7026 4.2026 4.6126
3076.720 5.0826 5.8726 6.8026 7.6826 8.5526 9.3426 10.0426 10.5826 11.0326 11.0626
3096.009 10.9326 10.8126 10.1926 9.2726 8.4026 7.5326 6.3426 5.3026 4.5126 3.6626
3115.299 3.1026 2.7026 2.2826 2.0226 1.8026 1.5326 1.3326 1.2126 1.1826 1.1626
3134.589 1.0626 0.9983 0.922 0.7643 0.7418 0.7239 0.6591 0.6562 0.6218 0.5585
3153.879 0.5892 0.6289 0.6889 0.6801 0.6089 0.5629 0.6158 0.6417 0.4919 0.4337
3173.169 0.4118 0.377 0.4192 0.5135 0.5209 0.3915 0.4808 0.565 0.5254 0.5672
3192.458 0.4869 0.4439 0.4449 0.3728 0.3981 0.4305 0.3913 0.4181 0.4308 0.4788
3211.748 0.4162 0.4098 0.4938 0.4692 0.412 0.3377 0.3649 0.3452 0.4057 0.4734
3231.038 0.4939 0.3891 0.3086 0.4188 0.4823 0.5163 0.3493 0.3033 0.4473 0.4093
3250.328 0.33 0.4404 0.4775 0.4156 0.3317 0.2386 0.3525 0.5272 0.4826 0.3362
3269.617 0.3649 0.4615 0.4986 0.3043 0.1605 0.2122 0.3275 0.3705 0.2615 0.3642
3288.907 0.3528 0.361 0.3657 0.3122 0.3435 0.3374 0.3528 0.3012 0.1918 0.1703
3308.197 0.2502 0.3276 0.2311 0.1381 0.2274 0.2974 0.3888 0.3985 0.4738 0.5465
3327.487 0.4222 0.4765 0.5437 0.5413 0.6339 0.6713 0.7107 0.7311 0.7166 0.7414
3346.777 0.7523 0.6791 0.6795 0.6518 0.519 0.5266 0.5952 0.7593 0.8087 0.7177
3366.066 0.7556 0.7177 0.7542 0.8764 0.891 0.8715 0.8683 0.8412 0.8455 0.8746
3385.356 0.9202 0.8813 0.7524 0.6418 0.6353 0.5185 0.4372 0.4875 0.6108 0.6488
3404.646 0.5229 0.5291 0.6009 0.5074 0.4534 0.524 0.4454 0.3651 0.2804 0.4654
3423.936 0.6039 0.3603 0.3794 0.4681 0.3287 0.2373 0.3399 0.4682 0.5171 0.6111
3443.225 0.559 0.5193 0.4967 0.3569 0.2741 0.3851 0.4017 0.2963 0.3027 0.3843
3462.515 0.414 0.1578 0.1776 0.2981 0.2743 0.341 0.3054 0.2543 0.2556 0.3113
3481.805 0.2702 0.271 0.3548 0.2794 0.2875 0.4945 0.5351 0.4255 0.4007 0.5098
3501.095 0.5293 0.4124 0.3426 0.213 0.1921 0.257 0.3154 0.3457 0.3744 0.4161
3520.385 0.3897 0.2688 0.2234 0.2722 0.2313 0.1705 0.08354 0.2239 0.3066 0.3138
3539.674 0.3267 0.3081 0.2137 0.11673 0.2192 0.3224 0.3262 0.2776 0.3616 0.4876
3558.964 0.3998 0.2815 0.3176 0.194 0.1434 0.366 0.3667 0.2265 0.2439 0.2554
3578.254 0.2125 0.2622 0.2364 0.253 0.3398 0.2869 0.346 0.3633 0.377 0.387
3597.544 0.2291 0.2253 0.345 0.3803 0.2416 0.174 0.2473 0.3495 0.256 0.1338
3616.833 0.3329 0.319 0.1675 0.1549 0.2125 0.3037 0.3443 0.2764 0.3327 0.3723
3636.123 0.3089 0.3773 0.3656 0.3877 0.399 0.3666 0.1564 0.04689 0.09951 0.1816
3655.413 0.3655 0.3509 0.3317 0.2448 0.2003 0.294 0.2759 0.2391 0.2271 0.2614
3674.703 0.2142 0.2201 0.4409 0.4045 0.2777 0.3604 0.3803 0.288 0.3711 0.4018
3693.993 0.3289 0.5003 0.4563 0.2932 0.3106 0.2934 0.4212 0.4309 0.2054 0.1431
3713.282 0.284 0.1941 0.11945 0.277 0.2644 0.2236 0.2009 0.1968 0.3296 0.411
3732.572 0.3572 0.2849 0.2515 0.2581 0.1784 0.11986 0.1899 0.4383 0.4888 0.2034
3751.862 0.2031 0.1717 0 0.06599 0.2674 0.448 0.3172 0.2864 0.402 0.4092
3771.152 0.4245 0.4519 0.4476 0.3265 0.2268 0.2226 0.3924 0.4577 0.3796 0.3254
3790.441 0.3089 0.2713 0.3443 0.4437 0.3167 0.3613 0.4273 0.3396 0.4382 0.4877
3809.731 0.4597 0.3661 0.2964 0.2435 0.2098 0.2923 0.2854 0.2466 0.2993 0.3663
3829.021 0.2382 0.2043 0.4207 0.4857 0.4024 0.2859 0.3164 0.3773 0.3614 0.426
3848.311 0.6041 0.579 0.4328 0.3453 0.3503 0.3581 0.3172 0.3404 0.2327 0.2831
3867.601 0.3159 0.2718 0.4182 0.4689 0.2226 0.202 0.2667 0.3715 0.4834 0.4128
3886.890 0.4162 0.3704 0.4995 0.4258 0.2481 0.2671 0.3352 0.4056 0.3994 0.2815
3906.180 0.2446 0.3641 0.3862 0.3931 0.3479 0.3696 0.3548 0.2521 0.2937 0.3257
3925.470 0.296 0.4009 0.4153 0.3457 0.3802 0.3974 0.3815 0.4052 0.3925 0.3229
3944.760 0.2422 0.3796 0.4542 0.4196 0.4619 0.4796 0.5704 0.5045 0.2818 0.2186
3964.049 0.3084 0.3547 0.2496 0.2964 0.4753 0.5206 0.4823 0.3839 0.3696 0.3944
3983.339 0.4201 0.4833 0.5701 0.6041 0.5221 0.413 0.412 0.3762 0.3745 0.4551
##END=
