##TITLE=2,7-Dimethylnaphthalene
##JCAMP-DX=4.24
##DATA TYPE=INFRARED SPECTRUM
##ORIGIN=NIST Mass Spectrometry Data Center
##OWNER=NIST Standard Reference Data Program
Collection (C) 2018 copyright by the U.S. Secretary of Commerce
on behalf of the United States of America. All rights reserved.
##CAS REGISTRY NO=582-16-1
##MOLFORM=C 12 H 12
##$NIST SOURCE=MSDC-IR
##SPECTROMETER/DATA SYSTEM=HP-GC/MS/IRD
##STATE=gas
##XUNITS=1/CM
##YUNITS=ABSORBANCE
##XFACTOR=1.0
##YFACTOR=0.000001800
##DELTAX=4.0
##FIRSTX=550.0
##LASTX=3846.0
##FIRSTY=0.000974
##MAXX=3846
##MINX=550
##MAXY=0.018
##MINY=0
##NPOINTS=825
##XYDATA=(X++(Y..Y))
550.0 541 327 170 130 88 25 5 35 77 87
590.0 28 20 50 30 15 34 66 121 244 489
630.0 664 666 648 435 176 113 95 69 98 105
670.0 90 84 75 90 105 82 37 0 15 47
710.0 41 46 61 81 113 149 138 137 175 212
750.0 263 351 403 352 294 269 232 212 247 299
790.0 369 414 467 629 937 1622 2789 4409 6010 8130
830.0 10000 8380 6017 4536 2833 1621 936 617 481 457
870.0 551 779 1117 1443 1884 2197 1857 1430 1112 766
910.0 505 340 290 298 322 340 372 449 569 804
950.0 1099 1216 1170 929 596 399 324 305 337 387
990.0 416 436 427 393 356 315 297 300 316 347
1030.0 381 411 451 475 431 378 334 283 254 248
1070.0 230 214 199 186 183 168 156 164 168 175
1110.0 193 218 237 293 386 487 591 674 708 673
1150.0 592 518 526 667 865 989 1007 959 833 621
1190.0 470 411 362 320 268 237 249 237 216 241
1230.0 251 258 255 237 258 323 395 473 573 556
1270.0 490 478 395 299 249 222 209 218 238 243
1310.0 247 251 259 272 296 344 410 470 555 643
1350.0 711 773 806 811 789 755 723 703 691 666
1390.0 621 567 521 494 497 516 537 566 626 702
1430.0 789 914 1046 1161 1257 1295 1295 1235 1128 994
1470.0 844 719 634 588 581 661 922 1498 2419 3336
1510.0 3776 3627 2928 1956 1291 1015 907 856 809 762
1550.0 730 708 689 687 697 728 767 805 838 891
1590.0 997 1175 1397 1585 1716 1782 1789 1840 2026 2384
1630.0 2906 3456 3744 3566 2934 2100 1362 900 673 558
1670.0 502 468 453 460 467 471 497 524 513 477
1710.0 438 413 426 476 495 456 376 270 177 131
1750.0 126 135 173 254 379 517 593 583 514 416
1790.0 328 260 224 204 183 165 151 144 139 129
1830.0 138 157 176 188 181 175 165 143 127 125
1870.0 145 184 233 301 389 473 549 591 571 503
1910.0 401 302 245 199 147 116 98 78 61 46
1950.0 38 37 34 29 31 25 21 23 25 36
1990.0 40 27 20 26 28 35 46 47 35 30
2030.0 36 39 42 50 53 67 83 77 70 70
2070.0 59 40 39 42 39 37 39 38 32 32
2110.0 26 25 36 40 45 47 41 49 62 70
2150.0 63 49 41 33 26 18 12 14 21 28
2190.0 27 25 20 17 16 16 14 11 25 28
2230.0 18 18 11 5 0 4 14 17 29 49
2270.0 61 66 75 74 73 70 58 56 73 85
2310.0 88 89 90 101 94 73 68 63 59 52
2350.0 52 55 48 52 53 56 60 58 74 91
2390.0 88 82 79 73 75 69 66 74 80 87
2430.0 95 98 92 85 75 70 75 64 61 70
2470.0 65 69 69 68 65 51 48 48 52 50
2510.0 49 60 67 62 50 56 63 55 50 62
2550.0 78 86 90 79 74 81 74 64 57 55
2590.0 60 54 50 49 53 47 38 42 43 37
2630.0 38 51 61 57 51 47 43 38 40 44
2670.0 48 50 60 66 62 64 72 70 71 85
2710.0 100 113 129 145 176 232 297 339 364 371
2750.0 335 278 235 203 181 164 146 144 161 174
2790.0 179 190 209 234 255 291 331 370 418 478
2830.0 551 636 748 882 1050 1274 1573 1972 2455 2946
2870.0 3313 3504 3516 3390 3246 3151 3141 3235 3387 3582
2910.0 3859 4277 4937 5856 6812 7389 7309 6602 5539 4509
2950.0 3836 3559 3428 3325 3327 3414 3516 3583 3609 3563
2990.0 3446 3333 3313 3492 3942 4671 5452 6013 6229 6097
3030.0 5771 5541 5671 6271 7168 7853 7931 7421 6317 4863
3070.0 3647 2823 2254 1853 1535 1272 1038 833 684 562
3110.0 472 421 374 344 330 298 265 238 207 186
3150.0 178 162 143 140 133 124 117 111 103 98
3190.0 92 83 75 68 66 69 59 48 63 71
3230.0 60 53 59 66 61 43 45 64 50 45
3270.0 51 47 57 66 53 41 38 41 51 48
3310.0 45 57 51 46 27 17 23 30 45 42
3350.0 38 42 49 37 24 30 38 45 39 30
3390.0 22 19 35 34 13 34 59 44 31 43
3430.0 60 56 37 22 23 25 25 19 11 12
3470.0 23 42 36 18 23 31 23 29 47 41
3510.0 42 34 17 23 23 22 23 19 15 18
3550.0 21 11 17 19 18 30 29 11 1 4
3590.0 13 26 24 26 25 22 17 10 1 0
3630.0 24 20 19 51 67 66 65 40 25 31
3670.0 34 42 38 32 50 76 72 61 60 57
3710.0 58 54 49 49 50 52 61 50 46 53
3750.0 45 29 36 34 29 43 50 35 21 29
3790.0 36 41 54 58 59 61 63 59 54 56
3830.0 58 38 43 55 51
##END=
