##TITLE=Tritylamine
##JCAMP-DX=4.24
##DATA TYPE=INFRARED SPECTRUM
##ORIGIN=NIST Mass Spectrometry Data Center
##OWNER=NIST Standard Reference Data Program
Collection (C) 2018 copyright by the U.S. Secretary of Commerce
on behalf of the United States of America. All rights reserved.
##CAS REGISTRY NO=5824-40-8
##MOLFORM=C 19 H 17 N
##$NIST SOURCE=MSDC-IR
##SPECTROMETER/DATA SYSTEM=HP-GC/MS/IRD
##STATE=gas
##XUNITS=1/CM
##YUNITS=ABSORBANCE
##XFACTOR=1.0
##YFACTOR=0.000003600
##DELTAX=4.0
##FIRSTX=550.0
##LASTX=3846.0
##FIRSTY=0.000544
##MAXX=3846
##MINX=550
##MAXY=0.036
##MINY=0
##NPOINTS=825
##XYDATA=(X++(Y..Y))
550.0 151 109 0 39 96 230 456 661 657 482
590.0 332 248 213 232 306 432 617 888 1405 2219
630.0 2703 2292 1456 902 671 602 613 688 837 1039
670.0 1308 1642 2038 2576 3450 5003 7335 9506 10000 8368
710.0 5925 4041 2959 2454 2295 2329 2551 2960 3566 4410
750.0 5391 6133 6185 5400 4145 3002 2255 1847 1626 1511
790.0 1426 1352 1323 1304 1303 1311 1330 1362 1382 1383
830.0 1331 1248 1128 991 867 748 650 582 556 563
870.0 568 570 605 670 767 886 1032 1206 1349 1421
910.0 1364 1202 1026 918 913 986 1055 1097 1118 1079
950.0 982 862 768 725 686 592 512 484 465 440
990.0 439 476 542 608 606 590 660 838 1170 1628
1030.0 1939 1831 1326 838 617 495 380 291 258 262
1070.0 259 258 265 267 244 205 182 160 142 120
1110.0 107 109 103 92 64 48 72 104 127 156
1150.0 199 240 285 336 376 433 553 769 1068 1288
1190.0 1279 1104 944 857 800 751 690 613 533 463
1230.0 408 369 338 314 302 302 315 325 341 361
1270.0 379 402 419 437 446 452 442 419 400 400
1310.0 404 392 365 324 279 244 205 161 131 112
1350.0 102 100 102 112 133 152 174 191 194 175
1390.0 157 152 144 147 164 193 231 283 356 468
1430.0 646 955 1457 2011 2270 1996 1465 1023 819 779
1470.0 844 1045 1441 2071 2815 3318 3212 2538 1723 1107
1510.0 736 550 444 389 367 378 398 422 438 447
1550.0 459 478 511 563 637 733 865 1033 1245 1549
1590.0 1941 2312 2461 2300 1965 1634 1399 1221 1057 903
1630.0 757 621 510 434 375 333 306 287 275 271
1670.0 271 262 239 205 178 149 119 90 71 63
1710.0 62 63 68 78 86 95 110 122 131 142
1750.0 152 162 170 173 177 185 196 196 203 230
1790.0 286 378 472 530 515 441 349 270 211 175
1830.0 144 122 112 100 95 102 113 125 147 174
1870.0 209 252 296 329 354 365 349 313 266 215
1910.0 176 150 138 143 172 226 297 389 476 519
1950.0 518 492 431 334 225 137 89 68 59 54
1990.0 49 42 40 33 31 31 28 25 27 32
2030.0 23 20 23 23 26 30 30 27 26 26
2070.0 22 20 20 21 25 23 20 21 24 25
2110.0 25 26 28 26 25 28 31 29 25 28
2150.0 29 27 28 29 28 29 36 37 35 39
2190.0 40 38 36 31 30 29 23 23 25 20
2230.0 21 23 24 28 27 31 35 33 32 33
2270.0 32 31 30 31 33 31 29 35 42 54
2310.0 75 93 93 67 52 49 47 58 61 64
2350.0 62 53 42 36 35 35 36 33 32 37
2390.0 35 27 29 32 34 38 42 42 40 36
2430.0 30 33 35 37 39 39 33 24 26 32
2470.0 37 33 33 28 26 29 26 27 30 28
2510.0 27 27 28 30 30 27 26 29 35 39
2550.0 40 41 33 39 48 46 46 50 56 60
2590.0 58 56 58 59 57 50 47 44 41 44
2630.0 48 48 42 35 39 39 38 43 38 36
2670.0 35 35 39 29 28 31 28 27 24 23
2710.0 28 35 34 32 44 51 48 47 45 48
2750.0 60 70 64 55 58 61 72 66 65 64
2790.0 60 66 70 64 60 61 57 55 66 73
2830.0 67 69 76 84 85 87 91 92 92 91
2870.0 96 100 106 114 122 128 124 121 119 121
2910.0 117 119 124 121 132 136 137 147 150 145
2950.0 137 135 138 147 160 175 190 199 213 243
2990.0 284 338 417 519 661 880 1203 1625 2131 2646
3030.0 3053 3262 3208 2934 2662 2700 3203 4187 5593 6886
3070.0 7147 6096 4606 3690 3354 3046 2581 2039 1571 1224
3110.0 948 726 552 428 341 283 250 230 214 225
3150.0 242 248 251 234 202 161 129 112 96 86
3190.0 85 88 83 73 64 55 42 36 43 51
3230.0 56 55 57 53 48 58 59 53 54 53
3270.0 52 51 58 59 62 71 75 76 80 77
3310.0 78 90 97 117 135 136 146 143 119 112
3350.0 109 95 77 74 77 79 77 64 59 63
3390.0 63 61 58 60 66 58 52 53 57 54
3430.0 56 64 59 47 52 53 44 42 46 38
3470.0 28 32 33 36 35 25 32 39 31 29
3510.0 32 39 41 32 21 22 21 25 35 36
3550.0 43 46 41 39 29 29 32 31 36 24
3590.0 24 33 32 34 39 43 38 44 49 53
3630.0 63 68 77 76 72 75 77 76 78 71
3670.0 74 79 84 93 87 94 102 102 105 97
3710.0 73 54 57 73 67 67 62 48 58 64
3750.0 60 78 97 100 93 71 70 79 55 52
3790.0 53 49 50 49 53 48 51 53 52 60
3830.0 52 46 64 60 45
##END=
