##TITLE=Dimethyl bicyclo[2.2.1]-5-heptene-2,3-dicarboxylate
##JCAMP-DX=4.24
##DATA TYPE=INFRARED SPECTRUM
##ORIGIN=EPA-IR VAPOR PHASE LIBRARY
##OWNER=SRD/NIST
Collection (C) 2018 copyright by the U.S. Secretary of Commerce
on behalf of the United States of America. All rights reserved.
##CAS REGISTRY NO=5826-73-3
##MOLFORM=C 11 H 14 O 4
##$NIST SOURCE=MSDC-IR
##STATE=gas
##XUNITS=1/CM
##YUNITS=ABSORBANCE
##XFACTOR=1.
##YFACTOR=0.001
##DELTAX=1.92898
##FIRSTX=549.8
##LASTX=4000.7
##FIRSTY=0.4646
##MAXX=4000.7
##MINX=549.759
##MAXY=0.120955
##MINY=0
##NPOINTS=1790
##XYDATA=(X++(Y..Y))
549.759 0.4646 0.2737 0.5243 0.7322 0.6168 0.5288 0.7681 0.8223 0.6143 0.3118
569.049 0.118029 0.4024 0.6634 0.4408 0.4279 0.2781 0.2195 0.4382 0.6098 0.6476
588.339 0.7126 0.8761 0.7093 0.7208 0.7158 0.707 0.8686 0.7991 0.6447 0.74
607.628 0.911 0.9669 1.0293 1.115 0.9924 1.0463 1.1018 1.225 1.585 1.405
626.918 1.425 1.635 1.585 1.725 1.815 1.645 1.575 1.535 1.635 1.675
646.208 1.625 1.645 1.595 1.535 1.405 1.415 1.785 2.225 2.735 2.535
665.498 1.965 1.795 1.795 2.095 2.415 2.625 2.755 2.785 3.005 3.455
684.787 3.815 4.375 5.085 5.545 5.855 6.205 6.595 7.035 7.475 7.935
704.077 8.445 9.165 9.955 10.825 11.785 12.545 13.295 13.855 13.925 13.655
723.367 12.795 11.835 11.065 10.055 9.065 8.275 7.475 6.935 6.605 6.455
742.657 6.415 6.135 5.935 6.115 6.045 5.665 5.335 5.115 4.965 4.715
761.947 4.405 3.955 3.655 3.575 3.775 4.185 4.625 5.175 6.005 6.795
781.236 7.275 7.735 7.905 7.645 7.255 6.665 6.195 5.885 5.335 4.755
800.526 4.365 4.105 3.905 3.865 3.805 3.745 4.045 4.165 4.055 4.295
819.816 4.375 4.215 4.125 3.985 4.005 3.965 3.905 3.995 4.195 4.235
839.106 4.225 4.225 4.285 4.225 4.165 4.135 3.985 3.865 3.745 3.615
858.395 3.395 3.355 3.265 2.985 2.745 2.505 2.455 2.575 2.565 2.515
877.685 2.555 2.755 2.935 3.205 3.515 3.625 3.885 4.365 4.935 5.445
896.975 5.755 6.265 6.785 6.945 7.195 7.505 7.525 7.395 7.095 6.525
916.265 5.855 5.255 4.705 4.235 3.875 3.425 3.165 3.195 3.235 3.305
935.555 3.335 3.705 3.775 3.575 3.695 3.485 3.065 2.795 2.695 2.635
954.844 2.475 2.445 2.375 2.435 2.475 2.405 2.465 2.565 2.705 2.595
974.134 2.285 2.215 2.265 2.275 2.375 2.295 2.205 2.145 1.985 1.925
993.424 2.125 2.405 2.675 2.855 3.035 3.385 3.865 4.295 4.895 5.715
1012.714 6.405 7.325 8.645 10.115 11.825 13.465 15.225 17.215 18.845 20.185
1032.003 21.445 22.055 22.295 22.745 22.425 21.855 21.065 19.945 18.695 17.425
1051.293 16.965 16.575 16.355 16.625 17.305 18.095 19.295 21.355 23.285 24.915
1070.583 26.255 27.305 27.995 27.425 26.355 24.955 23.365 21.275 18.695 17.295
1089.873 15.855 14.055 13.295 13.045 12.675 12.345 12.125 11.705 11.365 11.575
1109.163 11.855 12.065 12.285 12.965 13.545 13.795 14.275 14.815 15.175 16.275
1128.452 17.675 18.755 20.785 23.775 27.125 31.245 35.755 40.415 45.675 50.935
1147.742 55.715 60.745 66.145 70.655 74.345 77.685 80.635 82.695 83.625 83.505
1167.032 82.655 81.455 79.875 78.335 77.405 76.955 77.365 78.895 80.705 82.455
1186.322 84.265 85.465 85.895 85.735 84.545 82.025 78.225 73.865 68.715 63.455
1205.611 58.385 53.315 48.785 45.035 42.205 40.345 38.675 36.695 34.975 33.645
1224.901 32.465 31.475 30.735 30.355 30.335 30.965 32.125 33.955 36.445 39.425
1244.191 42.865 46.095 48.915 51.085 52.215 52.385 51.625 49.555 46.705 43.395
1263.481 39.855 36.395 33.255 30.505 27.885 25.565 23.545 21.835 20.455 19.265
1282.771 18.185 17.275 16.405 15.505 14.905 14.395 13.835 13.415 12.975 12.645
1302.060 12.515 12.485 12.655 12.975 13.505 14.165 14.955 15.995 17.185 18.505
1321.350 19.885 21.305 22.825 24.555 26.405 28.365 30.215 31.625 32.525 32.895
1340.640 32.745 32.085 31.015 29.605 28.055 26.645 25.465 24.615 23.925 23.295
1359.930 22.685 21.925 20.975 19.865 18.605 17.155 15.685 14.195 12.765 11.565
1379.219 10.485 9.555 8.795 8.135 7.545 7.035 6.555 6.085 5.705 5.435
1398.509 5.195 5.005 4.925 4.845 4.835 4.845 4.875 4.985 5.135 5.335
1417.799 5.615 6.115 6.895 8.065 9.835 12.285 15.305 18.555 21.485 23.815
1437.089 25.655 25.965 24.855 23.045 20.275 16.995 14.085 12.045 10.735 9.935
1456.378 9.375 9.005 8.725 8.375 8.025 7.625 7.195 6.785 6.405 5.985
1475.668 5.605 5.255 4.875 4.635 4.385 4.085 3.795 3.545 3.365 3.235
1494.958 3.085 2.995 2.905 2.755 2.705 2.655 2.585 2.545 2.465 2.395
1514.248 2.385 2.355 2.365 2.345 2.305 2.315 2.265 2.225 2.255 2.345
1533.538 2.355 2.295 2.245 2.205 2.275 2.365 2.375 2.295 2.235 2.225
1552.827 2.295 2.315 2.275 2.255 2.315 2.395 2.375 2.435 2.585 2.655
1572.117 2.795 2.865 2.765 2.725 2.675 2.575 2.535 2.405 2.255 2.155
1591.407 2.145 2.125 2.065 2.115 2.115 2.095 2.085 2.055 2.065 2.055
1610.697 2.055 2.065 1.995 2.035 2.185 2.175 2.135 2.165 2.215 2.245
1629.986 2.295 2.315 2.295 2.355 2.385 2.335 2.285 2.285 2.315 2.275
1649.276 2.235 2.205 2.165 2.235 2.335 2.405 2.425 2.455 2.555 2.625
1668.566 2.655 2.735 2.815 2.905 3.005 3.075 3.215 3.335 3.425 3.535
1687.856 3.705 3.885 4.065 4.325 4.555 4.815 5.125 5.555 6.005 6.435
1707.146 6.905 7.455 8.075 8.805 9.675 10.635 11.755 13.055 14.745 16.755
1726.435 19.275 22.355 25.955 30.325 35.695 41.745 48.155 55.155 62.305 69.665
1745.725 76.915 83.975 90.815 97.655 104.015 109.575 114.475 118.545 120.955 119.535
1765.015 112.205 100.615 88.105 76.115 63.435 51.225 40.665 32.245 25.865 21.075
1784.305 17.465 14.645 12.415 10.565 9.145 7.995 7.065 6.355 5.765 5.245
1803.594 4.845 4.455 4.065 3.805 3.615 3.425 3.295 3.185 3.145 3.065
1822.884 2.945 2.905 2.855 2.815 2.765 2.705 2.685 2.655 2.565 2.445
1842.174 2.305 2.235 2.235 2.195 2.085 1.985 1.915 1.835 1.765 1.665
1861.464 1.595 1.565 1.495 1.505 1.445 1.345 1.375 1.385 1.345 1.375
1880.754 1.385 1.335 1.365 1.375 1.345 1.305 1.305 1.275 1.265 1.285
1900.043 1.295 1.325 1.305 1.295 1.255 1.255 1.275 1.305 1.315 1.245
1919.333 1.275 1.265 1.215 1.205 1.185 1.155 1.135 1.155 1.195 1.225
1938.623 1.255 1.205 1.145 1.145 1.175 1.215 1.175 1.165 1.175 1.195
1957.913 1.225 1.185 1.145 1.135 1.155 1.165 1.145 1.0824 1.135 1.225
1977.202 1.235 1.255 1.235 1.235 1.245 1.275 1.275 1.275 1.345 1.375
1996.492 1.335 1.325 1.355 1.355 1.285 1.315 1.375 1.315 1.315 1.295
2015.782 1.315 1.335 1.245 1.165 1.195 1.165 1.145 1.165 1.165 1.195
2035.072 1.235 1.255 1.255 1.225 1.275 1.265 1.275 1.335 1.355 1.335
2054.362 1.345 1.385 1.395 1.425 1.435 1.435 1.415 1.415 1.445 1.445
2073.651 1.465 1.445 1.435 1.455 1.435 1.425 1.395 1.425 1.505 1.545
2092.941 1.535 1.485 1.435 1.375 1.385 1.405 1.395 1.345 1.335 1.315
2112.231 1.275 1.305 1.285 1.205 1.215 1.195 1.125 1.135 1.135 1.0758
2131.521 1.0533 0.9972 1.003 1.0163 0.9918 0.9662 0.9168 0.9478 0.9429 0.873
2150.810 0.8653 0.893 0.885 0.8418 0.8898 0.873 0.8418 0.8688 0.8321 0.884
2170.100 0.853 0.7608 0.7595 0.7749 0.752 0.7 0.7269 0.7107 0.6951 0.6941
2189.390 0.6618 0.6051 0.5913 0.6401 0.6391 0.6401 0.6223 0.6431 0.6681 0.6067
2208.680 0.5804 0.6325 0.6443 0.5984 0.5948 0.5932 0.5566 0.5465 0.5146 0.4666
2227.970 0.5612 0.5937 0.5635 0.5953 0.5671 0.6042 0.6221 0.6175 0.5951 0.6086
2247.259 0.6569 0.6145 0.6074 0.5899 0.5755 0.5861 0.5914 0.5105 0.4235 0.4464
2266.549 0.4864 0.5148 0.5556 0.5597 0.5019 0.5198 0.575 0.5428 0.5094 0.5125
2285.839 0.5407 0.5383 0.5045 0.5455 0.522 0.4809 0.5131 0.599 0.6646 0.6143
2305.129 0.5478 0.5113 0.4919 0.4693 0.4836 0.5284 0.5379 0.4737 0.429 0.5245
2324.418 0.6078 0.5534 0.5372 0.5336 0.499 0.5405 0.5332 0.5093 0.5626 0.5797
2343.708 0.5626 0.5646 0.5936 0.5634 0.5363 0.5177 0.524 0.5021 0.5067 0.6188
2362.998 0.6244 0.6216 0.6351 0.5985 0.5858 0.5671 0.533 0.579 0.613 0.6149
2382.288 0.673 0.659 0.6016 0.5716 0.5789 0.6491 0.6867 0.632 0.5928 0.5332
2401.578 0.4882 0.5373 0.5117 0.4745 0.4621 0.4468 0.4474 0.4414 0.4466 0.4412
2420.867 0.432 0.4984 0.4806 0.421 0.4036 0.3828 0.4336 0.4294 0.3899 0.3517
2440.157 0.3828 0.4403 0.4266 0.4106 0.3683 0.3552 0.382 0.379 0.3401 0.2965
2459.447 0.3179 0.3611 0.3689 0.3658 0.3656 0.3655 0.3193 0.3434 0.4569 0.4545
2478.737 0.3769 0.3222 0.3387 0.4312 0.4009 0.3727 0.4448 0.4192 0.4393 0.4536
2498.026 0.4212 0.4498 0.441 0.4653 0.4736 0.4421 0.4617 0.4392 0.3816 0.3855
2517.316 0.3828 0.4269 0.4313 0.3606 0.3792 0.429 0.4186 0.4496 0.4522 0.4427
2536.606 0.5078 0.5085 0.4609 0.429 0.406 0.379 0.3412 0.3501 0.4215 0.4085
2555.896 0.3815 0.387 0.3681 0.3967 0.419 0.3742 0.3827 0.416 0.3716 0.3791
2575.186 0.4188 0.4017 0.4007 0.4324 0.5034 0.5634 0.4848 0.4223 0.4482 0.4954
2594.475 0.452 0.3776 0.3974 0.3634 0.3814 0.4287 0.4885 0.5017 0.4742 0.4738
2613.765 0.4878 0.4481 0.3794 0.4022 0.4022 0.355 0.2768 0.2733 0.3533 0.3829
2633.055 0.2994 0.2626 0.3082 0.375 0.4035 0.3967 0.3415 0.3049 0.3171 0.3022
2652.345 0.359 0.3776 0.3188 0.3226 0.409 0.4271 0.4584 0.4266 0.3499 0.3666
2671.634 0.3682 0.3647 0.3125 0.2749 0.3326 0.3743 0.313 0.2533 0.2595 0.3225
2690.924 0.3947 0.4268 0.3938 0.3394 0.3553 0.3824 0.3174 0.3253 0.3421 0.3056
2710.214 0.2767 0.3417 0.4422 0.3768 0.3464 0.4008 0.3701 0.2847 0.2812 0.2833
2729.504 0.2441 0.2493 0.3271 0.2926 0.241 0.3356 0.3913 0.337 0.2922 0.2589
2748.794 0.2668 0.3368 0.2986 0.2378 0.2393 0.3037 0.3778 0.3733 0.3131 0.3054
2768.083 0.2806 0.257 0.3155 0.3455 0.4005 0.4591 0.478 0.5243 0.4916 0.427
2787.373 0.473 0.5775 0.5874 0.4958 0.5246 0.5366 0.5356 0.6113 0.6888 0.7303
2806.663 0.6996 0.7076 0.8163 0.8351 0.8876 0.9986 1.0482 1.114 1.135 1.305
2825.953 1.595 1.775 1.935 2.245 2.635 3.025 3.455 4.015 4.555 4.995
2845.242 5.425 5.665 5.835 5.785 5.435 5.135 4.865 4.515 4.375 4.505
2864.532 4.705 5.245 6.145 7.105 8.135 9.015 9.895 10.505 10.515 10.185
2883.822 9.655 9.095 8.535 7.985 7.585 7.375 7.335 7.375 7.475 7.675
2903.112 7.985 8.305 8.655 9.035 9.575 10.195 10.535 10.815 11.205 11.405
2922.401 11.485 11.515 11.655 11.925 12.355 12.945 13.865 15.175 16.645 18.355
2941.691 20.425 22.725 25.175 27.915 30.935 34.195 37.165 39.235 40.365 40.385
2960.981 39.165 37.075 34.795 32.515 30.495 29.225 28.585 28.615 29.875 31.005
2980.271 30.905 32.045 34.445 36.155 37.145 37.695 37.645 36.735 35.005 32.185
2999.561 28.275 23.915 19.845 16.365 13.665 11.845 10.625 9.665 9.015 8.695
3018.850 8.445 8.165 7.855 7.645 7.415 7.085 6.635 6.215 5.865 5.455
3038.140 5.015 4.685 4.475 4.275 3.985 3.685 3.515 3.335 3.205 3.165
3057.430 3.215 3.305 3.325 3.385 3.425 3.605 3.945 4.365 4.765 4.945
3076.720 5.265 5.765 6.045 6.135 6.065 5.855 5.545 5.255 4.955 4.575
3096.009 4.155 3.615 3.245 2.975 2.675 2.415 2.115 1.965 2.035 1.885
3115.299 1.775 1.885 1.785 1.665 1.635 1.475 1.355 1.255 1.265 1.395
3134.589 1.295 1.135 1.185 1.345 1.385 1.385 1.445 1.475 1.515 1.545
3153.879 1.345 1.205 1.155 1.0199 0.9018 0.9208 0.8996 0.758 0.6486 0.6611
3173.169 0.6098 0.5583 0.6245 0.6095 0.5881 0.5704 0.5426 0.4998 0.4268 0.4646
3192.458 0.3868 0.3599 0.5495 0.4008 0.3747 0.4826 0.436 0.4361 0.3478 0.3646
3211.748 0.3874 0.3102 0.2425 0.20593 0.3376 0.417 0.3977 0.3927 0.3906 0.5078
3231.038 0.4982 0.3202 0.2179 0.234 0.2727 0.2335 0.14382 0.2609 0.2979 0.3456
3250.328 0.3694 0.18 0.20044 0.3568 0.4542 0.3074 0.2975 0.4041 0.20103 0.13804
3269.617 0.2269 0.2582 0.20322 0.1026 0.15812 0.2873 0.339 0.2248 0.17232 0.2835
3288.907 0.3155 0.2828 0.3064 0.356 0.4555 0.3532 0.3077 0.3364 0.2871 0.306
3308.197 0.2719 0.3496 0.3507 0.2341 0.19323 0.124011 0.0943 0.15714 0.2161 0.2894
3327.487 0.3119 0.2766 0.2424 0.2619 0.3093 0.3224 0.2707 0.3146 0.3896 0.348
3346.777 0.3769 0.4342 0.3917 0.4057 0.3892 0.3284 0.327 0.2188 0.17224 0.3315
3366.066 0.2722 0.10517 0.19883 0.2937 0.3701 0.3115 0.13344 0.2254 0.3677 0.4133
3385.356 0.3573 0.2371 0.16935 0.18838 0.2498 0.2427 0.2658 0.2689 0.2458 0.218
3404.646 0.2813 0.426 0.3744 0.3209 0.351 0.2911 0.3325 0.3642 0.3724 0.3631
3423.936 0.2782 0.3052 0.4135 0.3974 0.3901 0.4626 0.3755 0.3421 0.4366 0.4976
3443.225 0.3419 0.2857 0.4414 0.4668 0.5636 0.606 0.4717 0.4438 0.5424 0.6721
3462.515 0.6524 0.6162 0.6985 0.7465 0.8967 1.0781 0.9941 0.9094 1.0049 1.0688
3481.805 1.155 1.125 1.0892 1.1147 1.225 1.355 1.265 1.235 1.385 1.475
3501.095 1.295 1.185 1.155 1.1131 1.165 1.145 1.0055 0.8565 0.806 0.8032
3520.385 0.7931 0.6918 0.5728 0.521 0.6515 0.6815 0.6009 0.6459 0.6435 0.5198
3539.674 0.4115 0.3327 0.3013 0.3388 0.4368 0.4614 0.4594 0.3937 0.3438 0.4301
3558.964 0.4092 0.3229 0.2973 0.3612 0.3628 0.3033 0.2651 0.2155 0.20927 0.28
3578.254 0.2549 0.0687 0.0856 0.21055 0.3288 0.4119 0.4466 0.4864 0.3882 0.316
3597.544 0.2701 0.2802 0.2888 0.20919 0.0953 0.13083 0.21069 0.3071 0.4123 0.2656
3616.833 0.1035 0.0752 0.2741 0.3737 0.2606 0.3039 0.2797 0.2587 0.2471 0.3215
3636.123 0.3621 0.2676 0.2808 0.3052 0.3881 0.3842 0.2702 0.2705 0.3458 0.3757
3655.413 0.3672 0.3185 0.2235 0.2455 0.2981 0.20956 0.065 0 0.14955 0.3049
3674.703 0.342 0.3136 0.3352 0.454 0.4286 0.3942 0.3668 0.3193 0.3743 0.3995
3693.993 0.424 0.3779 0.2695 0.233 0.4067 0.4954 0.3772 0.4603 0.4809 0.3815
3713.282 0.3659 0.4139 0.5074 0.4712 0.4296 0.3122 0.2943 0.2936 0.20461 0.298
3732.572 0.462 0.5186 0.3649 0.19731 0.19586 0.2719 0.4027 0.3377 0.2982 0.3294
3751.862 0.292 0.3738 0.4707 0.5677 0.5543 0.6065 0.5212 0.2961 0.2922 0.3527
3771.152 0.3183 0.4481 0.6268 0.6176 0.5626 0.5667 0.7446 0.7862 0.6516 0.5492
3790.441 0.5251 0.5749 0.5506 0.4704 0.39 0.421 0.4408 0.3926 0.421 0.397
3809.731 0.489 0.4812 0.3581 0.3471 0.3286 0.4549 0.4666 0.20112 0.17812 0.4464
3829.021 0.5014 0.4723 0.4761 0.3386 0.383 0.4302 0.3434 0.3789 0.3963 0.3711
3848.311 0.2482 0.2208 0.2957 0.2403 0.3164 0.4848 0.44 0.4073 0.4539 0.5269
3867.601 0.5306 0.4474 0.4506 0.3536 0.266 0.3539 0.3467 0.3034 0.3594 0.3863
3886.890 0.3919 0.4342 0.5047 0.4267 0.4547 0.5734 0.4705 0.5508 0.5371 0.4519
3906.180 0.5977 0.5233 0.4791 0.5862 0.5771 0.5109 0.467 0.4753 0.6435 0.6408
3925.470 0.534 0.6078 0.5826 0.6196 0.5196 0.3692 0.5398 0.6018 0.6335 0.7526
3944.760 0.6239 0.5065 0.4315 0.2948 0.3108 0.2768 0.3937 0.5899 0.4763 0.519
3964.049 0.5815 0.4668 0.394 0.3779 0.4662 0.5084 0.4859 0.4937 0.4289 0.3676
3983.339 0.3902 0.5007 0.6778 0.6961 0.6417 0.6035 0.6284 0.6823 0.7052 0.555
##END=
