##TITLE=3-Benzoylacrylic acid
##JCAMP-DX=4.24
##DATA TYPE=INFRARED SPECTRUM
##ORIGIN=EPA-IR VAPOR PHASE LIBRARY
##OWNER=SRD/NIST
Collection (C) 2018 copyright by the U.S. Secretary of Commerce
on behalf of the United States of America. All rights reserved.
##CAS REGISTRY NO=583-06-2
##MOLFORM=C 10 H 8 O 3
##$NIST SOURCE=MSDC-IR
##STATE=gas
##XUNITS=1/CM
##YUNITS=ABSORBANCE
##XFACTOR=1.
##YFACTOR=0.001
##DELTAX=1.92898
##FIRSTX=549.8
##LASTX=4000.7
##FIRSTY=13.375
##MAXX=4000.7
##MINX=549.759
##MAXY=0.062975
##MINY=0
##NPOINTS=1790
##XYDATA=(X++(Y..Y))
549.759 13.375 13.085 13.225 13.305 13.305 12.895 12.995 13.565 13.405 13.295
569.049 13.075 12.685 12.915 12.865 12.475 12.725 13.395 14.345 16.005 17.775
588.339 18.805 19.205 19.465 19.515 18.855 17.485 16.085 15.145 14.435 13.715
607.628 13.425 13.445 13.005 12.185 11.195 10.445 9.425 8.025 6.985 6.015
626.918 5.455 4.905 4.125 3.745 3.705 3.725 3.585 3.225 3.035 3.005
646.208 2.795 2.625 2.825 3.145 3.185 3.035 3.045 3.225 3.235 3.505
665.498 3.855 4.285 4.555 4.835 5.315 5.625 5.935 6.315 6.825 7.635
684.787 8.485 8.925 9.185 9.255 9.185 9.195 9.095 8.795 8.455 8.145
704.077 8.075 7.875 7.715 8.165 8.585 9.095 10.055 11.035 11.975 13.005
723.367 13.995 14.805 15.605 15.955 15.485 14.615 13.415 12.385 11.475 10.475
742.657 9.565 8.675 7.835 7.255 6.885 6.175 5.695 5.545 5.005 4.675
761.947 4.455 4.035 3.725 3.515 3.245 2.965 2.865 2.815 2.545 2.395
781.236 2.455 2.365 2.415 2.435 2.485 2.675 2.925 3.005 2.795 2.805
800.526 2.835 2.645 2.755 2.975 3.115 3.185 3.085 3.025 2.885 2.575
819.816 2.465 2.255 1.765 1.605 1.725 1.805 1.625 1.545 1.615 1.655
839.106 1.435 1.2088 1.216 1.2572 1.415 1.455 1.585 1.525 1.2995 1.435
858.395 1.545 1.635 1.455 1.2614 1.435 1.605 1.625 1.585 1.775 1.895
877.685 1.825 1.855 2.015 2.225 2.285 2.305 2.405 2.465 2.625 2.865
896.975 3.015 2.935 2.925 2.925 2.905 3.005 3.045 3.005 2.875 2.745
916.265 2.695 2.645 2.665 2.625 2.535 2.575 2.705 2.815 2.795 2.805
935.555 2.855 2.975 3.285 3.335 3.425 3.755 3.895 4.055 4.195 4.035
954.844 4.115 4.545 4.945 5.585 6.175 6.505 6.865 7.195 7.875 8.705
974.134 9.135 9.385 9.485 9.405 9.335 9.155 8.975 9.005 8.995 8.925
993.424 9.035 9.265 9.755 10.925 12.455 13.585 14.445 14.885 15.125 15.415
1012.714 14.635 12.865 10.895 9.225 8.105 7.155 6.465 5.665 4.855 4.705
1032.003 4.325 3.985 3.825 3.645 3.485 3.285 3.475 3.685 3.645 3.575
1051.293 3.905 4.155 4.385 4.765 4.735 4.725 4.745 4.845 4.925 5.155
1070.583 5.545 5.295 4.855 5.035 5.095 5.155 5.345 5.745 6.195 6.485
1089.873 7.325 8.235 9.265 10.225 11.275 12.315 13.345 15.165 17.695 20.125
1109.163 23.565 28.505 33.205 38.245 44.385 50.125 54.575 56.815 56.655 54.855
1128.452 51.155 45.555 39.185 33.405 28.985 25.715 23.895 23.465 23.185 22.935
1147.742 22.845 22.815 22.805 22.865 23.135 22.845 22.265 21.815 21.505 20.745
1167.032 19.485 18.645 18.035 17.705 17.695 17.895 18.005 17.945 17.115 16.045
1186.322 14.985 13.425 12.055 11.355 11.225 11.395 11.555 11.915 12.235 12.745
1205.611 12.995 12.615 11.965 11.265 10.965 10.485 10.105 10.025 10.135 10.775
1224.901 11.515 11.895 12.345 13.405 14.285 14.745 15.325 15.865 16.335 16.915
1244.191 17.555 18.125 18.895 20.115 21.455 22.815 24.345 25.805 27.815 29.955
1263.481 31.625 33.195 34.515 35.395 35.525 34.845 33.535 31.675 29.745 27.835
1282.771 26.005 24.845 24.345 23.985 23.565 23.205 22.675 21.985 21.295 20.515
1302.060 19.715 19.015 18.535 18.375 18.505 18.925 19.545 20.305 21.105 21.575
1321.350 21.675 21.475 21.055 20.365 19.545 19.045 18.895 18.925 19.195 19.575
1340.640 20.025 20.535 20.925 21.285 21.645 21.895 21.905 21.785 21.575 21.175
1359.930 20.475 19.605 18.795 17.735 16.525 15.345 14.125 12.875 11.675 10.545
1379.219 9.425 8.395 7.405 6.495 5.745 5.095 4.505 4.065 3.725 3.435
1398.509 3.205 2.955 2.795 2.675 2.495 2.335 2.305 2.265 2.135 2.015
1417.799 1.965 1.975 1.925 1.895 1.925 1.935 2.045 2.165 2.295 2.435
1437.089 2.825 3.445 4.105 4.995 5.885 6.485 6.605 6.445 6.195 5.595
1456.378 4.555 3.445 2.635 2.135 1.815 1.575 1.425 1.2874 1.2016 1.1855
1475.668 1.2231 1.2525 1.2518 1.304 1.3179 1.2977 1.3206 1.339 1.3476 1.435
1494.958 1.375 1.2359 1.2833 1.2977 1.2431 1.2306 1.2083 1.1635 1.1094 1.1192
1514.248 1.1918 1.2209 1.2428 1.2356 1.2665 1.2778 1.2339 1.2285 1.2586 1.2985
1533.538 1.316 1.2992 1.2919 1.3308 1.3025 1.2728 1.2656 1.3061 1.3278 1.2925
1552.827 1.395 1.495 1.585 1.705 1.765 1.925 2.125 2.265 2.445 2.665
1572.117 2.985 3.315 3.575 3.795 3.955 4.115 4.295 4.475 4.705 5.005
1591.407 5.295 5.535 5.865 6.065 6.125 6.055 5.775 5.425 5.075 4.755
1610.697 4.505 4.405 4.575 4.815 4.925 5.115 5.455 5.755 5.965 6.125
1629.986 6.225 6.245 6.165 5.985 5.755 5.605 5.455 5.375 5.355 5.355
1649.276 5.405 5.555 5.765 6.025 6.505 7.175 7.935 8.935 10.255 11.975
1668.566 14.045 16.335 18.765 21.405 24.265 27.005 29.765 32.215 34.025 34.855
1687.856 34.695 33.945 32.525 30.445 27.525 24.085 20.775 17.465 14.905 12.715
1707.146 10.985 9.805 9.035 8.545 8.245 8.145 8.295 8.565 8.865 9.205
1726.435 9.735 10.395 11.125 12.005 13.145 14.355 15.785 17.495 19.415 21.785
1745.725 24.545 27.835 31.745 36.385 41.785 47.605 53.525 58.595 61.855 62.975
1765.015 61.875 58.685 53.575 46.875 39.555 33.345 28.365 24.605 21.795 19.565
1784.305 17.815 16.375 15.155 14.015 12.995 12.005 11.005 10.085 9.275 8.435
1803.594 7.725 7.195 6.695 6.205 5.775 5.455 5.135 4.725 4.325 3.995
1822.884 3.675 3.365 3.165 2.915 2.595 2.375 2.235 2.125 1.965 1.825
1842.174 1.755 1.645 1.545 1.575 1.605 1.485 1.3501 1.415 1.395 1.3084
1861.464 1.3462 1.261 1.1843 1.1777 1.1714 1.17 1.1412 1.1231 1.1184 1.1649
1880.754 1.1747 1.1168 1.0703 1.1244 1.2008 1.2685 1.2827 1.244 1.2292 1.2773
1900.043 1.3369 1.2969 1.2735 1.2727 1.1952 1.1865 1.2042 1.1923 1.1828 1.0683
1919.333 0.9847 0.937 0.9216 0.893 0.8844 0.8663 0.8374 0.8889 0.882 0.8884
1938.623 0.941 1.0117 1.0472 1.0555 1.0677 1.1292 1.1764 1.1108 1.1271 1.2001
1957.913 1.1945 1.1904 1.2359 1.2012 1.1612 1.1792 1.141 1.1147 1.0684 1.0057
1977.202 0.9523 0.8568 0.8093 0.7695 0.7574 0.751 0.7028 0.6679 0.6314 0.6221
1996.492 0.6293 0.6396 0.6192 0.6083 0.6621 0.6682 0.6237 0.641 0.6702 0.6483
2015.782 0.6165 0.6551 0.7044 0.6933 0.6895 0.6513 0.6432 0.6047 0.5371 0.5764
2035.072 0.6289 0.6286 0.548 0.5103 0.544 0.5383 0.4822 0.4909 0.574 0.5802
2054.362 0.5987 0.6344 0.6283 0.6003 0.5725 0.5662 0.557 0.5588 0.5731 0.5615
2073.651 0.4993 0.4833 0.5006 0.5066 0.5096 0.5232 0.5456 0.5102 0.41056 0.36492
2092.941 0.4564 0.4986 0.5052 0.5047 0.4291 0.3746 0.358481 0.35098 0.354583 0.36828
2112.231 0.4381 0.4364 0.41744 0.43478 0.36994 0.39367 0.44151 0.43444 0.37081 0.2912
2131.521 0.3202 0.40788 0.42093 0.4695 0.4933 0.42552 0.38818 0.37901 0.37392 0.3703
2150.810 0.3842 0.39362 0.3418 0.34597 0.41052 0.45072 0.40863 0.37514 0.42277 0.42446
2170.100 0.40651 0.42576 0.4656 0.43837 0.37523 0.38548 0.42423 0.362117 0.41272 0.5245
2189.390 0.5113 0.4764 0.4602 0.38456 0.36617 0.40225 0.45042 0.4828 0.44409 0.4559
2208.680 0.4761 0.473 0.41656 0.37049 0.4881 0.5964 0.5313 0.5107 0.5144 0.4983
2227.970 0.5224 0.5357 0.5394 0.5338 0.5671 0.565 0.5566 0.5417 0.569 0.5842
2247.259 0.5747 0.5769 0.5569 0.5681 0.579 0.5919 0.5736 0.5541 0.5591 0.5248
2266.549 0.5199 0.5149 0.4802 0.5221 0.5731 0.5954 0.5979 0.6177 0.6298 0.6272
2285.839 0.5795 0.5414 0.5229 0.486 0.4863 0.537 0.5762 0.6204 0.6595 0.5944
2305.129 0.5991 0.6764 0.7104 0.7854 0.8393 0.8185 0.807 0.8775 0.943 0.9329
2324.418 0.925 0.9165 0.8618 0.866 0.8665 0.8072 0.7587 0.7804 0.8745 0.8181
2343.708 0.7342 0.7467 0.7153 0.6916 0.776 0.7748 0.7464 0.7668 0.8166 0.8457
2362.998 0.823 0.7982 0.7901 0.7914 0.7063 0.6897 0.7164 0.6635 0.6348 0.6099
2382.288 0.5355 0.5143 0.5039 0.44185 0.44016 0.432 0.37072 0.44544 0.504 0.43255
2401.578 0.5247 0.5421 0.45234 0.5198 0.5218 0.4761 0.5518 0.5899 0.5349 0.5322
2420.867 0.556 0.5504 0.5268 0.4992 0.4767 0.44633 0.42781 0.4662 0.4705 0.4622
2440.157 0.4968 0.5464 0.5447 0.5281 0.572 0.6456 0.59 0.5349 0.5512 0.4885
2459.447 0.4654 0.5048 0.5308 0.563 0.5512 0.5273 0.4765 0.41813 0.4704 0.6164
2478.737 0.604 0.5065 0.5576 0.5655 0.5198 0.4926 0.5058 0.4875 0.5248 0.575
2498.026 0.5459 0.5325 0.45417 0.3406 0.3764 0.4755 0.43253 0.3668 0.41413 0.4782
2517.316 0.44976 0.42567 0.45192 0.4646 0.4668 0.42284 0.40055 0.5095 0.5753 0.4686
2536.606 0.37603 0.39262 0.45054 0.5073 0.5095 0.4944 0.486 0.4199 0.357947 0.38444
2555.896 0.34934 0.37733 0.4638 0.3753 0.3224 0.41135 0.458 0.42372 0.43958 0.4579
2575.186 0.45331 0.497 0.45079 0.37556 0.39215 0.44584 0.4988 0.4944 0.4787 0.551
2594.475 0.5624 0.41293 0.41122 0.4649 0.35056 0.35123 0.4271 0.41976 0.4708 0.4399
2613.765 0.34604 0.37131 0.4654 0.4848 0.4612 0.4672 0.43675 0.43397 0.5099 0.5347
2633.055 0.478 0.4137 0.38655 0.38386 0.40783 0.42683 0.42306 0.3393 0.314 0.38906
2652.345 0.34917 0.3318 0.34677 0.3139 0.356824 0.40574 0.38044 0.4053 0.3281 0.251
2671.634 0.3205 0.3283 0.2643 0.3187 0.42465 0.39292 0.37884 0.4747 0.4645 0.39885
2690.924 0.43139 0.42047 0.3113 0.288 0.4656 0.5264 0.41798 0.3214 0.3093 0.34763
2710.214 0.40596 0.44791 0.45055 0.4839 0.39177 0.356189 0.404 0.42955 0.43288 0.3395
2729.504 0.3187 0.252 0.2573 0.41117 0.41869 0.35519 0.316 0.3086 0.322 0.40803
2748.794 0.4965 0.44988 0.41835 0.41815 0.37702 0.3337 0.303 0.40027 0.39138 0.3305
2768.083 0.42568 0.4831 0.4629 0.475 0.5346 0.4813 0.42086 0.359993 0.28 0.2895
2787.373 0.37952 0.4819 0.40582 0.2945 0.3241 0.39471 0.35586 0.2861 0.42253 0.5101
2806.663 0.5382 0.5017 0.40832 0.38139 0.3252 0.39693 0.43069 0.37477 0.37569 0.3218
2825.953 0.2742 0.2757 0.3446 0.40057 0.4964 0.5615 0.44107 0.38851 0.4714 0.43832
2845.242 0.43503 0.44223 0.40195 0.5203 0.6302 0.5659 0.5975 0.6747 0.5022 0.4964
2864.532 0.5518 0.44881 0.5179 0.5821 0.5222 0.5119 0.5694 0.5445 0.5671 0.6647
2883.822 0.5568 0.4979 0.5603 0.4905 0.4666 0.4775 0.39539 0.522 0.5328 0.4783
2903.112 0.5634 0.594 0.5444 0.35756 0.3438 0.40889 0.5237 0.6742 0.5858 0.541
2922.401 0.46 0.36818 0.42268 0.381 0.2911 0.3275 0.363818 0.39269 0.44564 0.39358
2941.691 0.41347 0.5526 0.6273 0.5356 0.4596 0.517 0.502 0.39223 0.41973 0.492
2960.981 0.4818 0.41622 0.3303 0.4797 0.5706 0.37247 0.34779 0.4956 0.5703 0.4959
2980.271 0.5408 0.7171 0.8575 0.8285 0.6909 0.6016 0.5563 0.584 0.6827 0.7155
2999.561 0.6938 0.7838 0.8325 0.7201 0.7421 0.8289 0.826 0.9022 1.0582 1.2872
3018.850 1.3145 1.375 1.515 1.795 2.065 2.265 2.475 2.665 2.865 3.065
3038.140 3.325 3.425 3.295 3.175 3.205 3.115 2.965 2.945 3.145 3.335
3057.430 3.435 3.785 4.225 4.545 5.015 5.665 6.285 6.675 6.835 6.905
3076.720 6.705 6.415 5.965 5.455 5.155 4.925 4.755 4.565 4.385 4.075
3096.009 3.645 3.365 3.065 2.895 2.775 2.515 2.165 1.745 1.575 1.615
3115.299 1.3315 1.0109 0.9602 0.9458 0.864 0.7713 0.6905 0.6071 0.6422 0.7008
3134.589 0.7031 0.7401 0.8174 0.8124 0.7074 0.65 0.6147 0.642 0.6607 0.652
3153.879 0.7309 0.78 0.7882 0.7791 0.7938 0.7297 0.6013 0.5532 0.5424 0.4867
3173.169 0.4925 0.43872 0.485 0.5759 0.4565 0.44119 0.4934 0.44276 0.3847 0.341
3192.458 0.41149 0.5616 0.47 0.41278 0.40818 0.3938 0.41906 0.5195 0.44088 0.2892
3211.748 0.2717 0.253 0.3075 0.38432 0.45066 0.3058 0.191 0.3291 0.42409 0.3379
3231.038 0.2683 0.36508 0.41843 0.3233 0.3265 0.2986 0.223 0.18 0.2685 0.3361
3250.328 0.223 0.3212 0.4768 0.43724 0.357196 0.184 0.231 0.39214 0.294 0.188
3269.617 0.218 0.3299 0.40185 0.5724 0.5664 0.35155 0.2799 0.3235 0.5107 0.43099
3288.907 0.3131 0.4705 0.5556 0.5061 0.39309 0.43104 0.5229 0.4938 0.2631 0.19
3308.197 0.39234 0.5484 0.5954 0.5861 0.6463 0.5998 0.5894 0.6641 0.6762 0.6342
3327.487 0.6936 0.666 0.5546 0.6364 0.6388 0.689 0.6962 0.6913 0.7633 0.6888
3346.777 0.6063 0.6791 0.8408 0.7381 0.5976 0.6637 0.6448 0.5649 0.608 0.7554
3366.066 0.6608 0.39752 0.4589 0.621 0.57 0.6143 0.5922 0.537 0.5836 0.592
3385.356 0.477 0.3183 0.41327 0.40088 0.5141 0.5078 0.34806 0.43352 0.43658 0.44984
3404.646 0.42692 0.38839 0.40169 0.4924 0.359999 0.192 0.213 0.197 0.3107 0.357475
3423.936 0.39464 0.5283 0.40397 0.22 0.3381 0.40284 0.43726 0.45419 0.3327 0.3148
3443.225 0.44024 0.5322 0.4905 0.38359 0.37796 0.34573 0.2889 0.379 0.45014 0.4706
3462.515 0.44813 0.41684 0.37946 0.38584 0.358259 0.41284 0.5646 0.6605 0.5418 0.44695
3481.805 0.6182 0.6901 0.6891 0.7114 0.742 0.7623 0.8118 0.8561 0.8391 0.8609
3501.095 0.8936 0.8031 0.787 0.8941 1.0364 1.0109 0.8529 0.913 0.8819 0.8297
3520.385 0.8787 0.8644 0.8873 0.8559 0.8049 0.7704 0.6826 0.6833 0.6459 0.5778
3539.674 0.6744 0.6898 0.6582 0.8349 1.0012 1.1257 1.1831 1.258 1.455 1.755
3558.964 2.115 2.605 3.395 4.545 6.385 9.275 13.485 19.125 25.135 29.715
3578.254 32.265 33.015 32.285 29.285 23.745 17.665 12.635 8.845 6.115 4.225
3597.544 3.005 2.385 1.995 1.775 1.565 1.3109 1.1372 1.0417 0.9474 1.0207
3616.833 0.9569 0.6535 0.7978 0.9865 0.8834 0.7184 0.6582 0.7402 0.6971 0.542
3636.123 0.4886 0.5287 0.426 0.5013 0.6573 0.4826 0.357456 0.4621 0.40582 0.3231
3655.413 0.43224 0.4713 0.5081 0.39608 0.3089 0.38649 0.2825 0.2843 0.3425 0.36528
3674.703 0.4604 0.44612 0.167 0.039 0.2909 0.40515 0.2814 0.254 0.42252 0.35299
3693.993 0.219 0.2606 0.215 0.3419 0.5307 0.4574 0.45415 0.5204 0.4941 0.42654
3713.282 0.2923 0.214 0.3052 0.357795 0.3069 0.39931 0.42618 0.3424 0.3081 0.38008
3732.572 0.5233 0.5191 0.37402 0.2928 0.3069 0.42938 0.41523 0.3286 0.45336 0.5221
3751.862 0.4934 0.37427 0.3068 0.364743 0.3037 0.232 0.274 0.166 0.177 0.338
3771.152 0.356677 0.4562 0.44763 0.3145 0.2722 0.2877 0.238 0.129 0.096 0.087
3790.441 0.123 0.1 0.155 0.19 0.2891 0.3365 0.241 0.118 0.109 0.34553
3809.731 0.37615 0.3327 0.2636 0.223 0.2561 0.35097 0.4635 0.4646 0.37965 0.3346
3829.021 0.364261 0.38113 0.43744 0.40268 0.32 0.42372 0.4944 0.2786 0.246 0.255
3848.311 0.162 0.216 0.2844 0.2961 0.3224 0.258 0.12 0.209 0.3437 0.4765
3867.601 0.499 0.38715 0.3104 0.2958 0.36749 0.43888 0.41259 0.3185 0.173 0.048
3886.890 0.009 0.109 0.225 0.2687 0.208 0.066 0 0.017 0.159 0.245
3906.180 0.177 0.164 0.2861 0.187 0.065 0.086 0.124 0.3157 0.41338 0.36852
3925.470 0.174 0.075 0.3448 0.4273 0.241 0.066 0.136 0.2787 0.2778 0.222
3944.760 0.145 0.2675 0.252 0.216 0.3033 0.2651 0.203 0.2804 0.239 0.173
3964.049 0.188 0.168 0.17 0.113 0.062 0.155 0.3062 0.3868 0.325 0.292
3983.339 0.363238 0.248 0.147 0.243 0.2851 0.242 0.319 0.41674 0.43523 0.43385
##END=
