##TITLE=1-Phenyl-1,4-pentanedione
##JCAMP-DX=4.24
##DATA TYPE=INFRARED SPECTRUM
##ORIGIN=EPA-IR VAPOR PHASE LIBRARY
##OWNER=SRD/NIST
Collection (C) 2018 copyright by the U.S. Secretary of Commerce
on behalf of the United States of America. All rights reserved.
##CAS REGISTRY NO=583-05-1
##MOLFORM=C 11 H 12 O 2
##$NIST SOURCE=MSDC-IR
##STATE=gas
##XUNITS=1/CM
##YUNITS=ABSORBANCE
##XFACTOR=1.
##YFACTOR=0.001
##DELTAX=1.92898
##FIRSTX=549.8
##LASTX=4000.7
##FIRSTY=9.327
##MAXX=4000.7
##MINX=549.759
##MAXY=0.127087
##MINY=0
##NPOINTS=1790
##XYDATA=(X++(Y..Y))
549.759 9.327 9.017 9.317 9.817 9.397 9.927 10.517 10.137 9.847 9.137
569.049 8.297 7.997 7.957 7.557 6.787 6.567 6.377 5.947 5.457 5.677
588.339 5.057 4.397 5.317 5.327 4.197 4.117 4.247 4.207 4.127 4.157
607.628 4.267 3.697 4.057 5.057 4.317 4.077 4.397 3.617 4.127 4.137
626.918 3.557 3.557 3.527 3.927 3.827 3.287 3.467 4.117 4.697 4.907
646.208 5.397 6.707 7.517 7.887 8.547 9.307 9.397 9.337 9.327 8.977
665.498 8.947 8.997 9.557 10.597 12.037 13.367 15.127 17.627 19.867 22.167
684.787 24.647 26.937 28.577 29.117 27.907 26.547 25.247 22.937 21.267 19.587
704.077 17.327 15.797 14.477 13.347 12.607 12.127 12.277 12.387 12.677 13.717
723.367 15.167 16.707 18.617 20.577 22.027 23.697 25.357 26.067 25.597 24.537
742.657 23.117 21.047 19.367 18.167 16.457 14.827 13.477 12.647 11.957 11.517
761.947 11.027 10.587 10.267 9.817 9.437 8.637 7.677 7.137 6.477 5.457
781.236 5.077 4.887 4.387 3.937 3.687 3.647 3.597 3.207 2.807 2.667
800.526 2.297 1.897 1.917 2.017 1.957 2.047 2.497 2.467 2.307 1.5906
819.816 0.6774 0.9945 1.777 1.6886 2.027 2.237 1.997 2.207 2.447 2.577
839.106 2.257 2.387 2.597 2.767 3.117 3.147 2.847 2.037 1.747 2.227
858.395 2.307 2.507 2.687 2.417 2.237 2.447 2.727 3.007 3.167 2.967
877.685 2.917 2.737 2.597 3.067 3.317 3.317 3.247 3.057 3.167 3.537
896.975 3.467 3.347 3.567 3.757 4.267 4.827 4.747 4.897 5.037 5.167
916.265 5.477 5.587 5.457 5.497 5.897 5.717 5.977 6.807 7.057 7.497
935.555 8.347 8.577 8.577 9.297 10.567 11.597 12.547 13.587 14.347 15.447
954.844 16.147 16.857 17.487 17.297 17.037 16.507 16.357 16.317 15.627 15.937
974.134 16.867 17.277 18.187 19.637 21.217 22.907 24.897 26.717 27.847 28.697
993.424 29.027 29.067 28.817 27.357 25.447 23.677 21.807 19.847 17.207 14.417
1012.714 12.187 10.387 9.777 9.537 8.977 9.227 8.787 7.447 6.667 5.897
1032.003 6.137 6.017 5.187 4.817 4.917 4.747 4.477 5.277 5.327 5.817
1051.293 6.447 5.757 6.657 7.437 7.737 8.087 8.347 8.467 8.147 7.997
1070.583 7.187 7.787 7.917 6.857 7.017 6.857 6.277 6.037 6.017 5.757
1089.873 4.767 4.977 4.957 5.237 4.997 4.317 4.337 4.727 5.367 5.447
1109.163 5.217 5.797 6.637 5.747 6.597 7.337 6.947 8.287 8.807 8.897
1128.452 10.027 11.317 12.417 13.357 13.977 15.237 17.067 19.547 22.117 24.527
1147.742 28.857 33.177 37.587 42.447 45.857 47.677 48.037 47.277 45.427 43.077
1167.032 40.717 38.407 36.997 36.417 36.447 37.347 37.807 37.087 36.137 35.337
1186.322 33.517 31.167 29.777 29.147 30.257 31.737 33.487 36.477 38.377 40.717
1205.611 43.447 44.817 45.147 44.607 43.237 41.657 40.827 40.457 39.297 38.517
1224.901 39.187 39.257 39.277 39.767 40.127 41.137 41.507 41.297 41.167 40.517
1244.191 39.707 38.917 37.697 35.297 33.107 31.517 30.797 30.257 30.077 30.357
1263.481 30.477 30.507 30.887 31.707 31.917 32.247 32.587 32.837 32.807 32.737
1282.771 32.917 32.417 31.877 31.267 30.417 29.567 29.027 28.007 26.817 26.097
1302.060 25.627 25.407 25.237 25.407 25.697 25.977 26.577 27.257 27.657 27.877
1321.350 27.847 27.887 27.897 27.827 28.007 28.287 28.817 29.747 30.887 32.057
1340.640 33.367 35.127 37.247 39.577 42.467 45.637 48.417 51.007 52.967 53.777
1359.930 53.387 51.637 48.577 44.537 40.267 36.247 32.517 29.287 26.497 23.957
1379.219 21.907 20.457 19.297 18.257 17.467 16.867 16.577 16.407 16.407 16.677
1398.509 17.047 17.587 18.287 19.107 19.827 20.457 21.077 21.367 21.437 21.227
1417.799 20.887 20.587 20.077 19.457 18.867 18.417 17.887 17.247 16.917 16.967
1437.089 17.387 18.367 19.797 21.347 22.827 23.487 23.277 22.317 20.837 18.937
1456.378 16.117 13.137 10.777 9.367 8.697 7.927 7.007 6.347 5.937 5.717
1475.668 5.377 5.117 5.227 5.097 4.757 4.477 4.587 4.777 4.767 4.667
1494.958 4.647 4.827 4.797 4.647 4.377 4.407 4.497 4.317 4.377 4.437
1514.248 4.637 4.827 4.777 4.627 4.597 4.567 4.607 4.817 4.787 4.437
1533.538 4.247 4.217 4.287 4.517 4.437 4.267 4.347 4.377 4.357 4.467
1552.827 4.557 4.447 4.527 4.737 4.857 5.307 5.697 6.077 6.587 7.027
1572.117 7.577 8.177 8.717 9.297 9.937 10.257 10.337 10.537 10.987 11.097
1591.407 11.227 11.547 11.637 11.677 11.727 11.667 11.167 10.547 9.687 8.597
1610.697 7.677 6.947 6.377 6.007 5.837 5.577 5.257 5.097 5.047 4.797
1629.986 4.827 5.007 4.997 5.267 5.297 5.197 5.457 5.807 6.137 6.587
1649.276 7.017 7.477 8.117 8.747 9.357 9.867 10.647 11.527 12.337 13.227
1668.566 14.377 15.757 17.377 19.417 21.897 24.867 28.817 33.717 40.077 47.887
1687.856 56.797 67.397 79.487 92.207 104.927 115.787 123.007 126.737 127.087 124.567
1707.146 118.127 108.057 96.227 85.067 75.827 69.137 65.377 63.867 64.107 65.837
1726.435 68.547 71.587 74.187 75.567 75.567 74.257 71.337 66.597 60.537 53.727
1745.725 47.057 40.957 35.507 30.977 27.257 24.147 21.717 19.817 18.097 16.577
1765.015 15.197 13.757 12.377 11.497 10.637 9.717 8.857 7.827 7.057 6.467
1784.305 6.027 5.687 5.307 5.087 4.987 4.867 4.867 4.917 4.917 5.057
1803.594 5.007 4.947 4.857 4.777 4.697 4.237 3.747 3.437 3.507 3.377
1822.884 3.017 2.947 2.917 2.647 2.387 2.337 2.287 2.347 2.317 2.297
1842.174 2.257 2.227 2.267 2.167 2.107 2.097 2.147 2.167 2.067 2.147
1861.464 2.197 2.147 2.227 2.117 2.037 2.247 2.247 2.257 2.477 2.547
1880.754 2.617 2.757 2.927 2.967 2.877 2.747 2.777 2.887 3.007 3.117
1900.043 3.067 3.017 2.867 2.717 2.647 2.497 2.407 2.357 2.287 2.177
1919.333 2.087 2.227 2.377 2.287 2.137 2.177 2.167 1.877 1.967 2.417
1938.623 2.417 2.207 2.467 2.717 2.717 2.737 3.047 3.347 3.257 3.097
1957.913 3.157 3.007 3.047 3.227 3.147 2.997 2.757 2.677 2.617 2.297
1977.202 1.997 1.987 1.887 1.747 1.5388 1.4155 1.35 1.41 1.5284 1.4178
1996.492 1.3303 1.277 1.3463 1.3254 1.222 1.2311 1.3818 1.4884 1.512 1.4884
2015.782 1.2973 1.2423 1.2748 1.2159 1.111 1.2419 1.3321 1.0448 0.9726 1.0447
2035.072 1.2145 1.225 1.0432 1.0233 1.1333 1.2216 1.0749 1.082 1.1314 1.1575
2054.362 1.2628 1.2383 1.222 1.2592 1.2659 1.2265 1.087 0.9937 1.2537 1.3855
2073.651 1.2998 1.3868 1.3865 1.3607 1.3599 1.3951 1.2386 1.1058 1.3585 1.443
2092.941 1.4214 1.5729 1.6216 1.5136 1.3904 1.345 1.5262 1.5088 1.4743 1.4907
2112.231 1.2948 1.2676 1.2167 1.2073 1.2562 1.1247 1.1064 1.2693 1.3248 1.3303
2131.521 1.2437 1.2948 1.3263 1.1987 1.285 1.1555 1.0238 1.1475 1.2245 1.2304
2150.810 1.0336 1.0318 1.068 1.0185 1.1001 1.1997 1.1893 1.0806 1.0211 0.9366
2170.100 0.9582 0.9775 0.9913 1.0137 0.9974 0.8995 0.9125 0.8776 0.79966 0.9563
2189.390 1.1273 1.2519 1.1453 1.0989 1.1987 1.134 1.0458 1.0782 1.1199 1.1175
2208.680 1.0084 0.74753 0.73166 0.8379 0.9461 1.067 1.1814 1.1554 1.1615 1.1294
2227.970 1.1395 1.3064 1.2485 1.0339 1.0699 1.2493 1.1818 1.1575 1.164 1.1179
2247.259 1.0131 0.9817 0.9952 1.0422 1.1058 0.9937 1.1014 1.2302 1.1907 1.1186
2266.549 1.0388 1.1315 1.1589 1.1244 1.2009 1.252 1.2484 1.1811 1.048 1.0523
2285.839 1.1486 1.1565 1.1487 1.2281 1.349 1.2824 1.0438 1.0016 1.1578 1.4062
2305.129 1.467 1.3567 1.345 1.4239 1.5658 1.727 1.6652 1.5284 1.6991 1.747
2324.418 1.6106 1.3584 1.2746 1.3484 1.3795 1.5209 1.5251 1.3132 1.3515 1.5107
2343.708 1.4573 1.3867 1.2477 1.1217 1.2437 1.3869 1.2851 1.2562 1.3351 1.3122
2362.998 0.9889 0.9612 1.2187 1.2968 1.3394 1.2993 1.2771 1.1184 0.8545 0.9168
2382.288 1.0047 1.2095 1.2997 0.9677 1.0047 1.225 1.3017 1.3005 1.1854 1.4178
2401.578 1.5181 1.2222 1.1785 1.2374 1.2921 1.3509 1.2229 1.0146 1.009 1.2702
2420.867 1.3392 1.3366 1.2845 1.2415 1.3108 1.3405 1.2061 0.9525 0.9134 0.9771
2440.157 1.0555 1.0452 1.1362 1.2858 1.4061 1.3076 1.0989 0.8738 0.862 0.9694
2459.447 1.0755 1.1149 1.0358 1.0677 1.0507 0.9787 1.0143 1.2778 1.103 1.0362
2478.737 1.1192 0.9046 0.8942 0.9833 1.0748 1.221 1.1404 0.9449 1.0276 1.0186
2498.026 0.9325 1.1217 1.1027 0.9178 0.9209 1.039 0.9741 0.6773 0.8623 1.1882
2517.316 1.1029 0.81244 0.75421 0.9414 0.8669 0.73746 0.836 0.941 1.0047 0.9334
2536.606 0.81178 0.8221 0.851 0.9378 1.0264 0.75544 0.602 0.9043 0.8456 0.735147
2555.896 0.9209 0.8769 0.9432 1.0872 1.0848 1.0059 0.9591 1.0148 0.8465 0.8876
2575.186 0.9905 1.0805 1.3311 1.2783 1.2663 1.404 1.3447 1.0937 1.1215 1.2528
2594.475 0.9127 0.74471 1.1326 1.0212 0.9358 1.2174 1.2683 1.1359 1.0336 0.9516
2613.765 0.9406 0.8477 0.9752 1.0546 0.579 0.511 0.81311 0.9667 1.0424 1.2688
2633.055 1.1847 0.81246 0.75865 0.8974 0.9721 0.9827 0.9864 0.8479 0.8807 0.8851
2652.345 0.79066 0.8569 0.76582 0.669 0.80486 1.0215 1.005 0.81392 0.9201 0.9776
2671.634 0.75333 0.80612 0.9856 1.1275 0.8947 0.6592 0.75649 0.9972 1.2934 1.2915
2690.924 1.2036 1.0827 1.0069 1.0294 1.0398 1.1896 1.1495 1.201 1.2574 1.2129
2710.214 1.2025 1.1319 1.165 1.2753 1.2497 1.1469 1.1371 1.2723 1.3866 0.9852
2729.504 0.75117 0.9353 0.9826 1.2053 1.3734 1.2964 0.9862 1.0562 1.4516 1.3345
2748.794 0.9802 1.0525 1.3041 1.1907 0.9605 1.0492 1.4633 1.6877 1.5343 1.4174
2768.083 1.5241 1.6541 1.4527 1.3093 1.4235 1.4187 1.4859 1.4919 1.6312 1.6213
2787.373 1.4567 1.6552 1.917 1.887 1.6925 1.5807 1.676 1.917 2.027 1.927
2806.663 1.777 1.857 1.837 2.027 2.397 2.317 2.117 2.357 2.567 2.657
2825.953 2.527 2.487 2.767 2.527 2.317 2.317 2.537 2.627 2.487 2.737
2845.242 2.767 2.557 2.687 2.867 3.057 2.947 2.997 3.127 2.997 2.937
2864.532 3.127 3.317 3.387 3.707 3.917 3.777 3.657 3.717 3.817 4.137
2883.822 4.567 5.127 5.617 5.847 6.187 6.977 7.737 8.537 9.597 10.887
2903.112 12.427 14.147 15.837 17.667 19.707 21.087 21.897 22.117 21.877 21.717
2922.401 21.167 20.767 20.417 19.467 18.797 18.037 17.257 16.397 15.267 14.107
2941.691 12.957 12.267 11.867 11.477 10.907 10.377 9.797 9.397 9.477 9.257
2960.981 8.797 8.567 8.307 8.197 8.287 8.177 8.287 8.137 7.697 7.657
2980.271 7.657 7.617 7.227 7.117 7.167 7.007 7.467 7.437 7.117 7.257
2999.561 7.357 7.317 7.187 7.617 8.047 8.127 8.157 8.747 8.717 8.337
3018.850 8.747 8.507 8.317 8.487 8.827 9.207 9.527 10.287 10.797 10.937
3038.140 11.017 11.157 11.267 11.167 11.137 11.167 11.077 11.367 11.607 11.807
3057.430 12.837 14.297 15.617 16.857 18.727 20.397 21.377 22.137 22.127 21.957
3076.720 21.637 20.377 18.577 16.917 15.417 14.467 14.547 14.077 13.227 12.927
3096.009 12.227 11.307 10.157 9.287 8.687 7.637 6.987 6.267 5.597 4.947
3115.299 4.267 3.867 3.217 2.787 2.297 2.207 2.657 2.387 2.027 1.757
3134.589 1.867 2.247 1.977 1.6503 1.59 1.757 1.7035 1.0451 0.9023 1.1284
3153.879 1.3865 1.7074 1.6624 1.6055 1.747 1.4627 1.4288 1.6993 1.618 1.747
3173.169 1.6013 1.3596 1.3949 0.9421 0.728913 0.9821 0.726125 0.257 0.5 1.1876
3192.458 1.3362 1.2684 1.2606 1.1385 1.2239 1.4763 1.2327 0.8987 0.438 0.35
3211.748 0.8336 1.063 1.0675 0.6513 0.75667 1.2295 1.2898 1.3106 1.3023 1.1937
3231.038 1.3841 1.562 1.1683 1.0842 0.8947 0.8432 1.2056 0.9625 0.77936 0.622
3250.328 0.475 0.74146 0.8349 0.455 0.298 0.7044 1.1202 0.9294 0.8304 0.8719
3269.617 0.615 0.9187 1.0284 0.75846 0.726519 0.734616 0.8986 1.0474 1.172 1.0785
3288.907 1.0885 1.3036 1.2507 1.0398 1.1573 1.1931 1.189 1.5102 1.3534 1.1519
3308.197 0.8777 0.516 0.9155 1.0855 0.6669 0.77634 1.0029 1.1828 1.3251 1.2296
3327.487 1.3111 1.1588 1.0991 1.17 1.182 1.1342 1.1646 1.1943 0.9518 1.396
3346.777 1.6056 1.2382 0.9604 1.1064 1.5262 1.727 1.4752 0.8414 0.523 1.1438
3366.066 1.917 1.847 1.917 2.007 1.817 2.097 2.447 2.487 2.677 2.937
3385.356 2.817 2.557 2.397 2.387 2.187 2.057 2.297 2.007 1.5296 1.6577
3404.646 1.4351 1.379 1.857 1.6674 1.448 1.6518 1.5913 1.5218 1.807 2.127
3423.936 2.107 2.227 2.397 2.027 1.887 2.047 2.197 2.067 2.227 2.737
3443.225 2.287 2.187 2.287 2.037 1.997 1.827 1.967 2.007 1.827 1.807
3462.515 1.757 1.4912 1.3868 1.5533 1.7201 1.747 1.2194 0.8851 0.9709 0.9631
3481.805 1.1286 1.3554 1.3711 1.5381 1.6777 1.4566 1.3423 1.2749 1.166 1.5444
3501.095 1.6701 1.1914 1.2629 1.2554 1.1172 1.167 0.9377 0.71738 0.8683 1.3829
3520.385 1.837 1.5347 0.81784 1.1561 1.6006 1.3099 0.9232 0.9381 0.9826 0.9033
3539.674 1.1641 1.3605 1.1919 0.945 0.9983 0.601 0.514 1.0015 1.2463 0.9684
3558.964 0.333 0.405 0.6617 1.1223 1.0678 0.46 0 0.354 0.82142 0.61
3578.254 0.6759 0.626 0.6807 0.6989 0.6332 1.0031 1.17 0.9268 0.8816 1.1671
3597.544 1.2669 0.9763 1.2477 1.0024 0.6887 1.043 0.52 0.288 0.502 0.468
3616.833 0.458 0.24 0.561 0.9305 0.727298 0.548 0.73756 0.9961 0.9597 0.74299
3636.123 0.514 0.6815 0.9696 0.728771 0.7451 0.9329 1.0286 1.2951 1.2762 1.097
3655.413 1.1135 1.2143 0.9582 0.731986 1.1485 1.2749 1.0436 1.0126 0.77374 0.896
3674.703 1.4093 1.3717 1.0877 0.9742 0.726171 0.8327 1.0562 0.78857 0.484 0.507
3693.993 0.74567 1.0185 0.9376 0.838 0.9409 0.9955 1.0307 1.0285 0.9659 1.1044
3713.282 0.8401 0.492 0.7055 1.0867 1.317 1.1374 1.0603 1.2079 1.4726 1.4009
3732.572 1.1819 1.0432 0.9428 1.1598 1.1437 0.8683 0.6706 0.576 0.286 0.296
3751.862 0.727523 0.8623 0.8916 0.79297 0.618 0.7099 0.8709 1.2629 1.6803 1.5933
3771.152 1.0597 0.585 0.75522 0.9046 1.1111 1.3701 0.80718 1.0377 1.757 1.4554
3790.441 0.9543 0.586 0.321 0.617 0.9505 0.8998 0.9819 0.75384 0.6766 0.521
3809.731 0.537 0.6888 0.518 0.8555 0.8965 0.584 0.9252 0.8925 0.446 0.545
3829.021 0.606 1.0202 1.6092 1.4087 0.8797 0.511 0.609 0.72488 0.6564 1.0733
3848.311 1.06 1.0383 1.0597 0.79884 0.82675 0.464 0.424 0.8084 0.9843 1.2518
3867.601 1.2357 1.1373 0.78233 0.486 0.6325 0.6312 0.9241 0.9881 0.619 0.75334
3886.890 1.28 1.2084 1.2736 1.3064 0.9646 1.2791 1.2142 1.0277 0.8401 0.6765
3906.180 0.75544 0.554 0.56 0.911 0.8384 0.78071 1.4027 1.4719 0.8658 0.7002
3925.470 1.1492 1.0987 0.8613 0.8873 0.77666 0.9227 0.9849 0.9805 0.6865 0.8659
3944.760 1.3778 1.1483 0.74936 0.613 0.448 0.582 0.6872 0.259 0.602 1.0702
3964.049 1.2126 1.0122 0.8795 0.82324 1.1207 1.2056 0.8931 0.626 0.82269 1.3336
3983.339 0.618 0.588 1.2572 1.1125 1.1259 1.7199 1.817 1.5577 1.3647 1.6747
##END=
