##TITLE=Ethyl 4-(trifluoromethyl)benzoate
##JCAMP-DX=4.24
##DATA TYPE=INFRARED SPECTRUM
##ORIGIN=EPA-IR VAPOR PHASE LIBRARY
##OWNER=SRD/NIST
Collection (C) 2018 copyright by the U.S. Secretary of Commerce
on behalf of the United States of America. All rights reserved.
##CAS REGISTRY NO=583-02-8
##MOLFORM=C 10 H 9 F 3 O 2
##$NIST SOURCE=MSDC-IR
##STATE=gas
##XUNITS=1/CM
##YUNITS=ABSORBANCE
##XFACTOR=1.
##YFACTOR=0.001
##DELTAX=1.92898
##FIRSTX=549.8
##LASTX=4000.7
##FIRSTY=0.5487
##MAXX=4000.7
##MINX=549.759
##MAXY=0.601133
##MINY=0
##NPOINTS=1790
##XYDATA=(X++(Y..Y))
549.759 0.5487 0.7584 0.9282 0.9073 1.923 2.913 2.233 1.583 1.853 2.373
569.049 2.133 2.223 2.973 3.493 3.733 3.763 3.703 3.613 3.633 4.213
588.339 4.813 4.893 6.003 6.843 7.143 7.693 7.403 6.883 6.823 6.623
607.628 6.323 5.553 4.593 4.253 3.863 3.423 3.133 2.713 2.343 1.923
626.918 1.953 2.383 2.193 2.123 1.893 1.893 2.063 1.723 1.773 1.793
646.208 1.943 1.903 1.683 2.183 2.193 1.913 2.013 1.783 2.193 2.543
665.498 2.593 3.183 3.303 3.133 3.723 4.383 4.923 6.403 8.543 12.183
684.787 16.883 19.623 20.443 22.123 23.803 23.893 24.633 26.743 29.093 31.203
704.077 32.893 33.733 33.003 31.023 28.823 26.233 23.663 21.053 17.933 15.273
723.367 12.783 10.503 9.313 8.423 7.433 6.503 6.073 6.173 5.803 5.513
742.657 5.613 5.533 5.823 6.733 7.843 8.863 10.503 13.323 16.783 20.763
761.947 25.633 30.763 35.513 39.433 41.903 43.203 44.103 44.163 42.503 39.573
781.236 36.193 32.673 29.793 26.243 21.763 18.843 16.573 14.223 12.413 11.133
800.526 10.143 9.593 9.463 8.793 8.233 8.753 9.303 9.423 9.163 9.133
819.816 8.433 8.553 9.413 8.483 9.163 10.043 10.063 11.253 12.383 13.123
839.106 14.413 16.243 19.363 23.313 27.573 32.103 36.423 41.433 45.873 48.873
858.395 51.613 53.843 53.313 49.903 45.273 41.123 36.933 32.263 27.553 22.743
877.685 18.463 15.093 12.373 10.113 8.543 7.483 6.973 6.973 7.093 6.983
896.975 7.133 7.133 6.793 6.633 6.483 6.073 6.123 6.243 5.633 5.003
916.265 4.583 4.543 4.933 4.863 4.393 4.093 3.573 3.333 3.243 2.863
935.555 3.073 3.183 3.083 3.333 3.263 3.243 3.513 3.913 4.343 4.773
954.844 5.063 4.843 4.543 4.663 4.513 4.873 5.653 5.473 5.593 5.993
974.134 6.363 6.763 7.063 7.283 7.503 7.823 8.473 9.543 10.123 10.863
993.424 11.773 13.093 14.733 16.203 18.143 21.033 25.243 31.093 40.303 55.513
1012.714 82.413 118.643 149.893 165.173 169.023 161.483 133.873 96.223 66.233 47.993
1032.003 37.513 30.933 26.793 24.033 21.103 19.773 19.043 19.053 19.773 20.763
1051.293 24.043 29.333 35.593 45.233 60.773 84.783 115.403 146.323 169.233 179.573
1070.583 178.663 163.453 136.483 111.313 98.573 96.013 100.113 109.873 124.073 142.843
1089.873 166.023 193.953 227.683 263.163 295.963 329.813 360.103 379.813 388.463 383.853
1109.163 367.473 341.523 309.323 273.523 243.453 220.143 196.913 176.533 161.303 150.893
1128.452 147.313 149.673 156.733 169.473 186.203 206.283 231.583 261.063 291.893 322.143
1147.742 351.263 376.373 391.293 392.033 379.793 362.313 342.253 320.703 303.733 296.583
1167.032 296.133 301.083 309.323 315.983 316.983 310.503 297.903 277.783 254.023 228.713
1186.322 201.953 173.393 145.143 119.953 98.173 80.243 66.563 56.663 50.063 45.453
1205.611 40.623 37.703 35.653 34.923 37.103 39.353 40.373 42.483 47.323 53.303
1224.901 61.293 71.973 84.163 96.513 108.333 117.333 122.143 121.743 117.543 111.773
1244.191 106.973 106.853 112.793 126.123 147.863 177.963 217.433 266.963 324.613 389.203
1263.481 454.823 514.903 564.553 595.393 601.133 578.283 529.153 462.893 387.243 312.293
1282.771 248.423 200.243 167.563 146.943 134.653 128.853 126.633 127.113 129.313 132.393
1302.060 137.233 145.103 157.383 173.523 193.023 218.813 254.903 302.933 365.183 439.963
1321.350 513.083 563.413 573.893 539.383 463.093 356.453 245.233 159.353 108.193 80.793
1340.640 65.033 54.993 48.073 43.013 39.223 36.263 34.113 32.663 31.653 31.463
1359.930 32.243 34.263 37.683 41.933 45.483 47.313 47.273 45.243 41.233 36.013
1379.219 31.113 27.583 25.223 23.873 23.503 23.863 24.783 26.403 28.853 31.883
1398.509 35.633 39.973 44.833 50.013 54.713 58.133 59.463 58.723 56.213 51.653
1417.799 45.343 38.883 33.403 28.793 24.993 21.953 19.633 17.943 16.723 15.823
1437.089 15.343 15.213 15.303 15.593 15.943 16.313 16.793 17.453 17.913 18.063
1456.378 18.263 18.463 18.563 18.813 19.193 19.723 20.293 20.733 20.663 20.183
1475.668 19.323 18.223 17.063 15.583 14.233 13.143 12.313 11.713 11.033 10.493
1494.958 10.393 10.513 10.913 11.603 12.493 13.743 15.733 18.033 19.783 21.043
1514.248 21.873 21.813 21.003 19.433 17.343 15.433 13.493 11.823 10.653 9.623
1533.538 8.693 8.243 7.933 7.563 7.513 7.523 7.473 7.733 8.003 8.013
1552.827 7.903 7.973 8.353 8.463 8.703 9.273 9.483 9.913 10.233 10.333
1572.117 10.813 11.393 11.723 12.133 12.793 13.283 13.323 12.833 11.863 10.633
1591.407 9.353 7.883 6.683 6.113 5.513 4.683 4.333 4.443 4.463 4.433
1610.697 4.553 4.613 4.683 5.003 5.203 5.093 5.143 5.083 4.903 5.033
1629.986 5.153 4.983 4.823 4.983 4.993 5.023 5.253 5.163 5.053 5.173
1649.276 5.153 4.993 5.053 5.153 5.293 5.713 6.073 6.523 6.843 7.073
1668.566 7.563 7.983 8.363 8.823 9.263 9.643 10.083 10.653 11.283 11.873
1687.856 12.433 13.293 14.263 15.063 16.023 17.093 18.033 18.783 19.593 20.613
1707.146 21.793 23.203 25.093 27.813 31.433 36.113 42.043 49.593 59.333 71.303
1726.435 85.723 103.263 124.103 147.563 174.513 203.273 231.493 257.593 277.023 287.213
1745.725 287.643 278.643 258.983 229.763 196.053 162.663 131.663 105.113 82.633 63.983
1765.015 49.493 38.553 30.373 24.343 20.013 17.273 15.363 14.003 13.233 12.643
1784.305 12.303 12.233 12.143 11.993 12.003 12.203 12.333 12.363 12.403 12.563
1803.594 12.673 12.833 12.943 12.833 12.583 12.243 11.583 10.523 9.463 8.493
1822.884 7.523 6.803 6.163 5.453 4.863 4.653 4.453 4.243 3.983 3.693
1842.174 3.493 3.253 3.053 3.043 2.953 2.803 2.913 2.963 2.943 2.963
1861.464 2.863 2.733 2.823 2.953 2.983 3.093 3.113 3.133 3.193 3.093
1880.754 3.153 3.163 3.113 3.183 3.063 3.063 3.263 3.233 3.083 3.123
1900.043 3.043 2.963 3.163 3.273 3.323 3.513 3.643 3.843 4.253 4.543
1919.333 4.893 5.253 5.633 5.993 6.063 6.223 6.523 6.733 6.743 6.803
1938.623 6.723 6.593 6.523 6.193 5.873 5.593 5.123 4.803 4.753 4.543
1957.913 4.363 4.373 4.283 4.013 3.873 3.853 3.753 3.543 3.513 3.413
1977.202 3.203 3.203 3.133 3.023 2.913 2.793 2.803 2.703 2.423 2.343
1996.492 2.213 2.093 2.063 1.863 1.833 1.903 2.013 2.033 1.863 1.693
2015.782 1.5412 1.583 1.653 1.753 1.903 1.883 1.843 1.883 1.873 1.833
2035.072 1.803 1.933 1.803 1.673 1.623 1.5607 1.703 1.813 1.743 1.723
2054.362 1.903 1.853 1.763 1.813 1.913 1.873 1.753 1.943 2.123 2.193
2073.651 2.233 2.313 2.493 2.623 2.733 2.903 3.163 3.313 3.503 3.623
2092.941 3.533 3.603 3.653 3.403 3.203 3.233 3.123 2.923 2.843 2.823
2112.231 2.853 2.823 2.843 2.903 2.933 2.873 2.953 3.063 2.973 2.873
2131.521 2.543 2.263 2.303 2.263 2.023 2.003 1.933 1.803 1.843 1.843
2150.810 1.833 1.763 1.573 1.3931 1.425 1.4408 1.4597 1.4879 1.4703 1.3049
2170.100 1.3561 1.623 1.593 1.4851 1.5359 1.623 1.5352 1.471 1.633 1.853
2189.390 1.933 2.023 1.893 1.733 1.833 2.133 2.193 2.103 2.123 2.183
2208.680 2.303 2.333 2.493 2.673 2.413 2.423 2.623 2.503 2.343 2.323
2227.970 2.303 2.393 2.353 2.153 2.223 2.303 2.473 2.723 2.563 2.413
2247.259 2.403 2.303 2.293 2.343 2.313 2.203 2.333 2.633 2.503 2.493
2266.549 2.873 2.883 2.853 2.953 3.103 3.333 3.453 3.373 3.423 3.383
2285.839 3.423 3.543 3.283 3.123 3.253 3.063 2.903 2.813 2.603 2.583
2305.129 2.683 2.753 2.643 2.553 2.533 2.333 2.133 2.143 2.113 2.313
2324.418 2.423 2.353 2.413 2.413 2.383 2.383 2.403 2.553 2.643 2.653
2343.708 2.693 2.643 2.603 2.693 2.803 2.843 2.643 2.693 2.683 2.633
2362.998 2.863 2.813 2.773 3.023 3.063 2.923 2.873 2.923 3.033 3.003
2382.288 2.853 2.713 2.603 2.703 2.813 2.793 2.733 2.563 2.463 2.333
2401.578 2.163 2.173 2.103 2.133 2.093 2.003 1.953 1.783 1.693 1.843
2420.867 2.053 1.893 1.883 1.973 2.053 1.993 1.833 1.693 1.5339 1.653
2440.157 1.753 1.713 1.653 1.683 1.633 1.623 1.623 1.583 1.643 1.4136
2459.447 1.3821 1.633 1.713 1.793 1.833 2.003 1.863 1.623 1.573 1.763
2478.737 1.933 1.923 1.883 1.613 1.451 1.593 1.723 1.623 1.623 1.733
2498.026 1.813 1.753 1.623 1.693 1.5583 1.447 1.703 1.743 1.813 1.873
2517.316 1.683 1.563 1.5179 1.573 1.5029 1.3334 1.3848 1.5173 1.5105 1.3741
2536.606 1.3757 1.4202 1.3039 1.1806 1.231 1.4373 1.5251 1.4233 1.2639 1.1866
2555.896 1.2541 1.3884 1.3904 1.3731 1.337 1.393 1.4834 1.4716 1.3872 1.4256
2575.186 1.562 1.5168 1.613 1.5507 1.5022 1.5154 1.4003 1.4157 1.3883 1.404
2594.475 1.5054 1.573 1.713 1.733 1.613 1.613 1.663 1.733 1.903 2.013
2613.765 1.873 1.613 1.5497 1.763 1.893 1.733 1.673 1.863 1.973 2.063
2633.055 2.163 2.233 2.283 2.223 2.213 2.173 2.153 2.283 2.173 1.943
2652.345 1.753 1.4782 1.4415 1.4542 1.2133 1.0986 1.0801 1.0265 1.1522 1.5554
2671.634 1.4728 1.1025 1.2676 1.0957 0.8395 1.0261 0.9512 0.9405 0.9974 1.0704
2690.924 1.0492 1.1021 1.2596 1.0881 0.9405 0.8733 1.1144 1.2045 1.1928 1.3166
2710.214 1.216 1.1866 1.1626 1.311 1.593 1.4928 1.3291 1.369 1.536 1.5459
2729.504 1.573 1.5322 1.5108 1.733 1.633 1.4327 1.5285 1.623 1.583 1.723
2748.794 1.813 1.943 2.103 2.013 1.793 1.873 2.103 1.893 1.643 1.703
2768.083 1.683 1.703 1.993 2.173 2.243 2.173 2.193 2.303 2.283 2.233
2787.373 2.313 2.193 2.063 2.283 2.233 2.293 2.603 2.773 2.673 2.513
2806.663 2.243 2.363 2.833 2.783 2.823 2.973 2.843 2.803 2.883 2.943
2825.953 3.383 3.543 3.573 3.633 3.643 3.753 3.543 3.443 3.553 3.683
2845.242 3.863 4.013 4.133 4.043 4.063 4.163 4.373 4.783 4.983 5.073
2864.532 5.123 5.403 5.793 6.293 6.583 6.813 7.583 8.463 9.163 9.833
2883.822 10.473 11.113 11.263 11.003 10.823 10.633 10.553 10.113 9.933 10.653
2903.112 11.263 11.653 12.443 13.243 13.863 14.313 14.383 14.333 14.653 14.693
2922.401 14.373 14.573 14.663 14.933 15.893 16.863 18.213 20.173 21.973 23.973
2941.691 26.143 27.553 27.953 27.613 26.833 25.573 24.113 22.603 21.433 21.323
2960.981 21.883 22.813 23.633 24.763 26.693 28.703 30.653 33.163 36.643 40.703
2980.271 45.783 51.263 55.923 58.503 58.743 56.243 51.613 46.113 40.253 36.123
2999.561 33.233 30.793 28.823 26.723 24.583 22.583 20.503 18.503 17.093 15.583
3018.850 13.773 12.503 11.653 10.543 9.403 8.833 8.353 7.503 7.013 6.593
3038.140 6.063 5.643 5.213 5.183 5.033 4.833 4.743 4.563 4.583 4.763
3057.430 4.743 4.623 4.573 4.383 4.353 4.453 4.553 4.953 5.373 5.473
3076.720 5.543 5.553 5.673 5.883 5.673 5.423 5.493 5.833 5.453 5.013
3096.009 5.183 5.003 4.833 4.743 4.463 4.533 4.573 4.433 4.173 4.183
3115.299 4.033 3.553 2.983 2.843 2.863 2.713 2.823 2.713 2.563 2.773
3134.589 2.903 2.513 2.633 2.883 2.703 2.353 2.163 2.273 2.433 2.243
3153.879 2.163 2.073 1.913 2.043 1.773 1.683 1.963 1.983 1.973 2.163
3173.169 1.803 1.451 1.823 1.863 1.653 1.753 1.4851 1.3855 1.593 1.593
3192.458 1.623 1.242 0.8877 1.1526 1.562 1.4307 1.0842 1.138 1.5323 1.3871
3211.748 1.0017 1.0714 1.3062 1.3107 1.1277 1.2062 1.4936 1.703 1.693 1.4831
3231.038 1.2171 1.3096 1.4167 1.5583 1.643 1.5101 1.683 1.5516 1.4179 1.5063
3250.328 1.0301 0.8847 1.089 1.2477 1.2748 1.1452 1.3191 1.593 1.3107 1.0283
3269.617 0.9801 0.9249 0.9389 0.6973 0.8385 1.1312 1.0312 0.9847 0.9908 0.9294
3288.907 0.8605 1.1977 1.2748 0.8884 1.2779 1.2321 0.8613 0.9166 0.7306 0.8107
3308.197 0.8711 0.916 0.8725 0.8604 1.221 0.8853 0.63012 0.7987 1.0671 1.1248
3327.487 1.0329 1.3082 1.068 0.60102 0.8558 1.0918 1.0021 1.1492 1.0008 0.9778
3346.777 1.006 0.975 1.0315 0.8577 1.2845 1.4952 1.2484 0.9859 0.61477 0.7933
3366.066 0.981 1.2195 1.2559 0.7463 0.6806 0.7871 0.6076 0.58014 0.835 0.8892
3385.356 0.59674 0.6712 0.7903 0.9609 1.1904 1.1081 0.97 1.0052 0.9287 0.7422
3404.646 1.0095 1.0477 1.1142 1.1558 0.7528 0.9533 1.2423 1.1532 1.1931 1.2183
3423.936 1.0261 1.3013 1.3452 1.2618 1.1235 0.798 1.4107 1.5615 1.3136 1.4121
3443.225 1.613 1.5608 1.813 2.133 2.083 2.363 2.443 2.323 2.633 3.143
3462.515 3.433 3.423 3.453 3.363 3.343 3.103 2.753 2.673 2.843 2.973
3481.805 2.473 2.283 2.483 2.443 2.103 1.913 1.593 1.253 1.1346 0.7426
3501.095 0.5122 0.60897 0.9731 1.2962 0.9877 1.1317 0.9406 0.64122 1.0024 1.2613
3520.385 1.1659 0.6829 0.8903 1.1068 0.664 0.562803 1.0749 1.2004 0.7061 0.414
3539.674 0.329 0.241 0.403 0.64698 0.7604 0.7103 0.7011 0.861 0.6896 0.61678
3558.964 0.854 0.9023 0.46 0.396 0.397 0 0.247 0.456 0.336 0.313
3578.254 0.58395 0.7056 0.392 0.4953 0.7105 0.7337 0.503 0.6721 1.0571 1.0285
3597.544 0.7558 0.327 0.5387 0.7079 0.409 0.5009 0.8824 0.745 0.4941 0.266
3616.833 0.068 0.6869 1.1724 1.0441 0.9554 0.62809 0.295 0.5156 0.6636 0.5229
3636.123 0.8305 1.0823 0.9212 0.9001 0.7446 0.405 0.58453 0.764 0.8798 0.9536
3655.413 0.9784 1.0872 0.751 0.8428 1.3035 1.3784 1.2155 0.9195 0.65376 0.61377
3674.703 0.5917 0.8107 1.016 0.889 0.7169 0.15 0.352 1.0014 1.1303 1.4558
3693.993 1.4371 1.0219 1.1092 0.9294 0.6874 0.8632 1.1754 1.3056 1.0293 1.0494
3713.282 1.0166 0.8392 0.6982 0.84 0.9437 0.9309 1.0743 1.1693 0.8338 0.5061
3732.572 0.7195 1.0178 1.1403 1.0577 0.9359 1.0423 1.2717 1.3068 1.0417 0.7883
3751.862 0.8644 0.9957 1.0584 1.1233 0.9614 0.61343 0.58117 1.1066 1.3504 1.2745
3771.152 1.3594 1.2475 0.9623 1.0109 1.1142 1.0633 1.0907 0.706 0.8069 1.0877
3790.441 0.9524 1.1341 1.1511 1.2159 1.2005 0.8676 1.1714 1.0779 0.6899 0.9109
3809.731 1.153 0.9693 0.57396 0.462 0.5143 0.7526 1.004 1.0535 0.695 0.5336
3829.021 0.852 0.9691 1.0275 1.1021 1.0478 0.9704 0.9302 0.7772 0.59821 0.7626
3848.311 0.57503 0.8928 1.1516 0.7095 0.57693 0.349 0.8308 1.1799 0.9971 1.1644
3867.601 1.2885 1.3927 1.157 0.7568 0.5794 0.535 0.8019 1.0514 1.0738 0.9102
3886.890 0.319 0.336 0.403 0.285 0.6642 0.404 0.26 0.5449 0.64748 0.62264
3906.180 0.513 0.8098 1.2055 1.0001 0.7912 0.6901 0.60826 0.7402 0.7746 1.0511
3925.470 1.2727 1.0899 1.0479 1.027 1.0899 1.2462 1.0039 0.6821 0.65534 0.9057
3944.760 1.1537 1.4273 1.2266 0.9806 1.1429 1.2424 1.1268 1.1324 1.2489 0.7453
3964.049 0.6696 0.8201 0.8057 0.848 0.6929 0.61917 0.6957 0.9222 0.7385 0.62687
3983.339 0.6993 0.9245 1.1506 0.853 0.8931 1.4896 1.2673 1.1955 1.3063 1.4179
##END=
