##TITLE=4-Bromo-o-xylene
##JCAMP-DX=4.24
##DATA TYPE=INFRARED SPECTRUM
##ORIGIN=NIST Mass Spectrometry Data Center
##OWNER=NIST Standard Reference Data Program
Collection (C) 2018 copyright by the U.S. Secretary of Commerce
on behalf of the United States of America. All rights reserved.
##CAS REGISTRY NO=583-71-1
##MOLFORM=C 8 H 9 Br
##$NIST SOURCE=MSDC-IR
##SPECTROMETER/DATA SYSTEM=HP-GC/MS/IRD
##STATE=gas
##XUNITS=1/CM
##YUNITS=ABSORBANCE
##XFACTOR=1.0
##YFACTOR=0.000004200
##DELTAX=4.0
##FIRSTX=550.0
##LASTX=3846.0
##FIRSTY=0.000865
##MAXX=3846
##MINX=550
##MAXY=0.042
##MINY=0
##NPOINTS=825
##XYDATA=(X++(Y..Y))
550.0 206 234 104 80 54 76 79 58 81 150
590.0 199 222 250 283 310 343 436 606 896 1070
630.0 1029 814 426 152 51 21 12 8 5 5
670.0 15 29 89 171 237 313 394 400 350 286
710.0 235 192 141 121 128 132 130 136 168 253
750.0 389 565 746 1019 1265 1217 1147 1194 1352 1771
790.0 2432 3199 3929 5021 5229 4116 3360 2657 1967 1496
830.0 1191 1030 935 1008 1485 2653 4583 6523 7557 7543
870.0 6035 3609 1995 1214 736 457 300 222 189 173
910.0 177 178 154 127 123 129 157 180 204 239
950.0 281 340 411 496 599 730 919 1228 1654 2135
990.0 2495 2550 2293 1853 1418 1122 954 868 823 770
1030.0 715 655 578 538 528 552 613 658 662 643
1070.0 650 680 797 1095 1460 1712 1808 1650 1278 1019
1110.0 981 1090 1249 1413 1584 1802 1993 1981 1817 1499
1150.0 1104 886 891 1071 1474 2157 2806 2972 2696 1958
1190.0 1010 486 328 252 222 214 226 255 286 305
1230.0 315 309 289 269 239 219 230 253 294 353
1270.0 441 518 540 504 429 330 256 226 220 225
1310.0 234 250 264 276 291 305 317 325 337 349
1350.0 371 407 458 536 630 746 900 1078 1291 1531
1390.0 1738 1910 2005 1938 1761 1562 1401 1360 1444 1605
1430.0 1812 2079 2410 2808 3249 3716 4136 4476 4781 4992
1470.0 5240 5915 7297 8987 10000 9758 8138 5628 3416 2089
1510.0 1419 1120 994 945 936 953 990 1040 1109 1198
1550.0 1298 1399 1504 1588 1641 1692 1797 2008 2377 2912
1590.0 3394 3526 3228 2590 1812 1201 851 636 478 362
1630.0 284 239 211 194 189 184 184 184 174 158
1670.0 152 143 137 134 130 133 131 134 137 145
1710.0 174 224 289 364 439 499 515 481 410 304
1750.0 197 131 105 95 88 86 87 83 73 66
1790.0 63 60 62 71 78 82 78 77 80 83
1830.0 87 90 103 126 146 168 195 231 279 328
1870.0 359 362 340 299 243 197 165 133 123 117
1910.0 109 101 93 79 63 49 38 29 26 27
1950.0 26 27 29 28 25 17 13 16 17 13
1990.0 11 17 22 27 28 24 17 7 6 9
2030.0 12 13 9 5 4 0 0 4 7 3
2070.0 0 2 5 6 12 10 8 10 7 7
2110.0 15 23 25 20 22 26 19 20 22 15
2150.0 10 11 8 4 10 12 9 5 7 9
2190.0 10 14 17 20 21 19 13 11 15 19
2230.0 18 20 27 37 37 33 36 34 33 35
2270.0 31 30 27 18 12 11 11 17 25 26
2310.0 21 19 17 23 30 20 18 20 23 24
2350.0 23 32 36 37 41 46 50 49 44 41
2390.0 42 48 49 44 45 47 45 47 43 43
2430.0 47 51 52 56 61 64 67 63 61 57
2470.0 56 52 44 39 41 45 39 33 38 42
2510.0 39 30 20 24 32 39 39 43 50 59
2550.0 65 68 63 62 49 34 34 27 25 22
2590.0 27 29 26 26 27 30 27 14 3 10
2630.0 17 15 20 29 37 40 39 35 43 51
2670.0 51 51 46 47 44 45 48 53 60 67
2710.0 74 81 103 134 165 189 232 270 290 302
2750.0 291 256 235 230 233 239 237 235 225 203
2790.0 196 207 226 236 248 276 313 345 399 468
2830.0 541 630 734 860 1017 1209 1440 1720 2051 2438
2870.0 2816 3125 3313 3381 3349 3272 3193 3126 3098 3130
2910.0 3232 3467 3924 4674 5724 6825 7551 7695 7257 6428
2950.0 5640 5110 4735 4455 4271 4168 4098 4016 3882 3644
2990.0 3300 2917 2559 2306 2223 2296 2503 2757 2919 2931
3030.0 2801 2546 2265 2085 2016 1994 2003 2017 2043 2071
3070.0 2070 2049 1984 1870 1723 1540 1331 1116 916 742
3110.0 598 487 413 356 304 275 252 224 202 176
3150.0 149 137 122 97 89 99 95 88 83 70
3190.0 62 59 47 42 43 34 36 38 46 43
3230.0 31 33 34 30 33 42 45 44 43 30
3270.0 9 4 24 27 22 32 36 18 19 26
3310.0 25 26 22 14 21 18 13 22 21 17
3350.0 13 17 18 8 11 21 23 24 21 16
3390.0 18 20 16 13 13 19 21 22 16 16
3430.0 24 17 17 21 15 13 26 47 31 14
3470.0 15 24 37 40 24 21 19 16 20 24
3510.0 29 15 19 31 17 15 27 26 23 13
3550.0 3 13 36 34 17 23 27 17 20 31
3590.0 38 38 31 17 15 25 32 37 35 27
3630.0 22 26 26 36 40 42 56 39 17 18
3670.0 36 39 37 33 16 12 16 24 28 29
3710.0 28 24 21 18 18 24 20 23 32 29
3750.0 40 50 45 39 46 43 48 47 35 30
3790.0 21 29 44 44 51 49 42 35 30 33
3830.0 49 54 46 41 41
##END=
