##TITLE=3,4-Dimethylhexane
##JCAMP-DX=4.24
##DATA TYPE=INFRARED SPECTRUM
##ORIGIN=NIST Mass Spectrometry Data Center
##OWNER=NIST Standard Reference Data Program
Collection (C) 2018 copyright by the U.S. Secretary of Commerce
on behalf of the United States of America. All rights reserved.
##CAS REGISTRY NO=583-48-2
##MOLFORM=C 8 H 18
##$NIST SOURCE=MSDC-IR
##SPECTROMETER/DATA SYSTEM=HP-GC/MS/IRD
##STATE=gas
##XUNITS=1/CM
##YUNITS=ABSORBANCE
##XFACTOR=1.0
##YFACTOR=0.000005300
##DELTAX=4.0
##FIRSTX=550.0
##LASTX=3846.0
##FIRSTY=0.000488
##MAXX=3846
##MINX=550
##MAXY=0.053
##MINY=0
##NPOINTS=825
##XYDATA=(X++(Y..Y))
550.0 92 49 36 50 58 42 35 46 49 53
590.0 48 43 42 43 47 38 30 34 26 17
630.0 11 7 6 7 7 12 19 14 12 11
670.0 0 7 8 0 8 14 17 25 18 11
710.0 14 17 20 29 22 14 22 29 38 49
750.0 58 76 100 109 119 132 127 121 123 120
790.0 125 127 131 134 135 125 111 97 95 95
830.0 92 87 87 88 92 93 98 110 118 124
870.0 127 118 107 98 90 87 90 99 110 115
910.0 116 113 109 105 92 73 57 47 38 29
950.0 30 28 25 26 28 30 28 25 25 33
990.0 44 59 78 96 108 116 122 121 114 107
1030.0 105 111 116 116 119 119 112 104 100 89
1070.0 75 66 55 48 42 34 31 39 41 41
1110.0 52 64 74 80 79 74 69 66 61 57
1150.0 52 49 46 43 40 39 34 33 31 24
1190.0 19 21 25 32 35 32 30 36 42 47
1230.0 54 60 69 82 92 99 108 118 130 139
1270.0 147 156 162 165 166 171 179 190 201 211
1310.0 217 215 204 185 166 150 144 144 145 150
1350.0 158 174 201 240 303 413 555 693 802 815
1390.0 714 557 397 282 218 192 179 176 185 199
1430.0 223 261 319 409 544 729 946 1165 1328 1390
1470.0 1326 1153 937 716 532 395 301 240 201 176
1510.0 157 140 126 115 107 102 96 93 88 81
1550.0 77 76 75 70 66 59 58 56 57 56
1590.0 54 55 54 51 51 49 48 52 54 54
1630.0 52 51 49 48 47 48 46 39 38 37
1670.0 35 32 29 28 27 25 24 21 21 21
1710.0 19 17 17 15 15 17 17 19 16 13
1750.0 12 12 13 12 10 10 9 10 11 10
1790.0 10 8 6 7 8 10 10 8 8 9
1830.0 9 8 8 9 8 10 10 8 6 2
1870.0 1 2 3 1 2 4 3 3 3 5
1910.0 5 2 3 3 4 3 4 4 3 5
1950.0 4 3 6 4 2 3 0 0 1 1
1990.0 0 2 3 4 3 2 6 5 2 4
2030.0 5 4 5 7 8 7 7 4 3 6
2070.0 7 4 4 7 7 5 5 7 4 2
2110.0 4 2 0 3 5 5 4 4 5 6
2150.0 5 5 6 6 5 6 7 7 4 2
2190.0 5 5 3 2 0 2 4 5 4 3
2230.0 6 7 4 4 4 5 6 6 7 8
2270.0 7 6 6 9 11 15 19 19 16 15
2310.0 14 14 14 15 15 17 19 20 21 23
2350.0 24 25 28 29 28 27 26 29 33 33
2390.0 34 37 39 36 32 32 30 27 24 21
2430.0 19 21 20 18 16 15 16 17 19 21
2470.0 23 23 23 23 22 22 22 22 23 23
2510.0 25 25 23 24 27 29 28 28 32 34
2550.0 35 41 47 53 56 58 65 71 75 80
2590.0 87 90 91 93 96 99 96 93 92 93
2630.0 90 90 93 94 91 89 89 92 94 97
2670.0 100 104 105 108 113 116 117 121 126 131
2710.0 135 143 155 166 179 191 204 221 227 230
2750.0 228 217 208 209 214 218 228 241 256 269
2790.0 283 296 313 335 353 373 395 426 460 499
2830.0 544 603 679 775 904 1086 1339 1687 2142 2711
2870.0 3402 4163 4821 5237 5284 4957 4445 3937 3600 3539
2910.0 3735 4136 4687 5335 6012 6619 7049 7226 7138 6909
2950.0 6841 7216 8089 9219 10000 9879 8820 7150 5360 3864
2990.0 2808 2108 1647 1338 1123 965 847 752 680 619
3030.0 567 526 489 459 435 411 386 364 345 328
3070.0 315 297 284 276 267 256 246 237 228 218
3110.0 214 209 201 195 188 182 177 170 163 159
3150.0 153 144 138 134 125 111 104 97 89 86
3190.0 80 70 64 64 58 51 50 47 41 40
3230.0 39 36 39 40 36 31 25 24 29 26
3270.0 16 17 23 20 13 14 20 21 19 18
3310.0 17 16 11 8 10 10 13 16 14 13
3350.0 12 13 13 11 10 11 13 13 10 9
3390.0 6 10 13 10 6 7 15 18 14 8
3430.0 7 12 10 8 10 8 7 4 6 8
3470.0 8 9 10 9 9 8 3 6 8 5
3510.0 2 0 0 2 3 9 10 7 7 11
3550.0 13 5 7 11 11 10 7 10 12 5
3590.0 3 7 5 5 6 7 6 8 11 10
3630.0 14 15 17 17 15 16 20 16 12 15
3670.0 19 22 22 20 18 21 22 20 24 24
3710.0 20 19 20 16 18 20 14 14 16 16
3750.0 21 19 13 13 17 15 17 18 16 15
3790.0 16 17 16 20 27 24 17 15 15 15
3830.0 15 13 20 18 14
##END=
