##TITLE=2-Methylcyclohexanone
##JCAMP-DX=4.24
##DATA TYPE=INFRARED SPECTRUM
##ORIGIN=NIST Mass Spectrometry Data Center
##OWNER=NIST Standard Reference Data Program
Collection (C) 2018 copyright by the U.S. Secretary of Commerce
on behalf of the United States of America. All rights reserved.
##CAS REGISTRY NO=583-60-8
##MOLFORM=C 7 H 12 O
##$NIST SOURCE=MSDC-IR
##SPECTROMETER/DATA SYSTEM=HP-GC/MS/IRD
##STATE=gas
##XUNITS=1/CM
##YUNITS=ABSORBANCE
##XFACTOR=1.0
##YFACTOR=0.000001600
##DELTAX=4.0
##FIRSTX=550.0
##LASTX=3846.0
##FIRSTY=0.000051
##MAXX=3846
##MINX=550
##MAXY=0.016
##MINY=0
##NPOINTS=825
##XYDATA=(X++(Y..Y))
550.0 32 51 20 41 131 177 138 97 102 82
590.0 68 59 28 29 30 36 47 23 28 16
630.0 1 15 34 53 50 73 82 76 76 74
670.0 50 30 46 66 81 88 107 132 167 194
710.0 226 264 262 228 186 164 145 121 102 77
750.0 65 62 57 56 56 48 48 48 54 75
790.0 89 94 134 174 225 254 269 262 256 240
830.0 208 182 138 131 178 254 317 365 407 407
870.0 403 385 326 260 205 185 190 167 134 131
910.0 124 101 94 102 112 137 158 157 168 198
950.0 227 276 336 388 430 470 514 547 553 535
990.0 489 439 404 379 330 283 252 234 233 247
1030.0 271 297 343 403 459 488 513 534 545 545
1070.0 511 473 462 448 411 393 416 465 562 710
1110.0 856 1003 1113 1152 1180 1147 1043 930 810 709
1150.0 644 583 494 416 342 275 219 193 184 195
1190.0 228 299 428 571 685 782 833 843 804 707
1230.0 575 441 330 262 234 226 219 206 176 153
1270.0 154 166 180 198 231 272 326 405 502 593
1310.0 657 700 710 704 664 601 575 585 606 618
1350.0 617 588 550 534 521 539 561 576 623 605
1390.0 554 509 411 321 310 339 394 490 595 711
1430.0 854 1012 1148 1258 1362 1486 1577 1499 1360 1227
1470.0 1051 838 664 506 368 268 199 156 132 121
1510.0 125 116 103 111 108 88 84 75 78 80
1550.0 72 70 58 57 63 54 47 52 56 64
1590.0 65 73 81 80 86 86 86 91 104 114
1630.0 122 135 154 165 176 187 197 217 245 282
1670.0 313 359 436 515 620 768 967 1299 1845 2687
1710.0 3948 5551 7172 8395 9130 9318 8829 7733 5968 3981
1750.0 2457 1543 1037 749 597 498 423 375 342 306
1790.0 263 233 210 184 165 159 143 118 107 100
1830.0 92 86 82 75 70 60 50 56 53 44
1870.0 54 60 54 49 50 52 42 37 41 45
1910.0 37 28 36 39 36 39 51 51 49 46
1950.0 36 35 37 36 32 16 8 14 18 21
1990.0 26 16 10 23 37 37 34 39 38 41
2030.0 36 26 24 28 19 14 22 16 8 14
2070.0 13 8 4 1 4 1 6 11 5 0
2110.0 10 19 15 13 16 21 22 18 21 26
2150.0 20 23 25 33 30 22 22 28 33 34
2190.0 32 35 35 35 36 27 25 27 25 16
2230.0 7 12 19 16 11 9 7 13 18 31
2270.0 31 26 24 24 35 35 32 35 29 24
2310.0 28 29 27 28 30 24 13 0 0 8
2350.0 15 16 16 6 9 23 28 32 29 23
2390.0 24 33 38 38 37 29 23 13 13 16
2430.0 17 25 32 35 24 22 18 6 2 12
2470.0 9 0 8 14 13 17 26 20 13 23
2510.0 23 14 16 22 16 18 21 27 36 35
2550.0 32 31 24 16 6 18 37 45 43 37
2590.0 28 29 42 37 30 27 41 46 33 41
2630.0 51 46 44 56 75 84 97 104 108 118
2670.0 119 113 101 94 89 77 68 65 58 55
2710.0 62 71 75 69 65 77 83 86 93 92
2750.0 89 84 88 100 103 110 129 147 170 198
2790.0 212 214 223 232 227 233 246 273 312 364
2830.0 427 495 589 740 996 1369 1840 2353 2885 3455
2870.0 3785 3739 3517 3239 2931 2606 2346 2222 2236 2416
2910.0 2740 3183 3858 4872 6108 7334 8649 9878 10000 9253
2950.0 8517 7514 6350 5313 4463 3995 3819 3493 3081 2722
2990.0 2228 1671 1259 936 651 476 361 291 257 231
3030.0 203 181 170 169 149 131 146 156 144 141
3070.0 148 148 135 128 126 113 98 83 82 90
3110.0 85 78 85 91 74 51 57 76 64 60
3150.0 67 64 59 59 70 68 67 67 58 53
3190.0 45 34 33 34 11 9 25 34 37 39
3230.0 38 32 49 47 47 52 54 45 31 24
3270.0 12 16 33 33 30 31 20 13 29 41
3310.0 28 22 37 45 54 49 16 11 22 28
3350.0 23 14 13 15 19 28 22 32 38 33
3390.0 44 47 52 65 75 70 71 91 108 138
3430.0 162 169 185 184 175 156 129 103 83 72
3470.0 61 48 37 37 50 49 34 33 54 51
3510.0 28 26 15 19 24 22 18 0 16 38
3550.0 24 8 4 17 34 35 19 1 11 39
3590.0 61 57 32 19 45 41 33 39 27 30
3630.0 37 42 38 26 30 28 25 44 36 24
3670.0 37 55 44 36 47 53 58 55 39 28
3710.0 42 39 19 31 55 47 37 30 12 5
3750.0 19 21 24 19 12 14 12 18 38 56
3790.0 52 51 48 29 20 19 17 27 30 28
3830.0 24 12 18 42 34
##END=
