##TITLE=4-Methyl-3-nitropyridine
##JCAMP-DX=4.24
##DATA TYPE=INFRARED SPECTRUM
##ORIGIN=EPA-IR VAPOR PHASE LIBRARY
##OWNER=SRD/NIST
Collection (C) 2018 copyright by the U.S. Secretary of Commerce
on behalf of the United States of America. All rights reserved.
##CAS REGISTRY NO=5832-44-0
##MOLFORM=C 6 H 6 N 2 O 2
##$NIST SOURCE=MSDC-IR
##STATE=gas
##XUNITS=1/CM
##YUNITS=ABSORBANCE
##XFACTOR=1.
##YFACTOR=0.001
##DELTAX=1.92898
##FIRSTX=549.8
##LASTX=4000.7
##FIRSTY=4.822
##MAXX=4000.7
##MINX=549.759
##MAXY=0.196022
##MINY=0
##NPOINTS=1790
##XYDATA=(X++(Y..Y))
549.759 4.822 4.332 3.522 3.262 3.412 3.772 3.742 3.602 3.472 3.362
569.049 3.612 3.932 3.792 3.532 3.402 3.082 2.912 2.752 2.922 2.742
588.339 2.362 2.322 2.212 1.892 1.982 2.112 2.122 1.812 1.562 1.642
607.628 1.472 1.532 1.4197 1.0081 1.2455 1.662 1.2025 0.8219 0.656 0.6072
626.918 0.6054 0.268 0.262 0.3675 0.4038 0.5353 0.5396 0.7167 0.5823 0.44757
646.208 0.5237 0.44352 0.4105 0.313 0.3566 0.45617 0.5832 0.6868 0.5816 0.4
665.498 0 0.201 0.7719 0.9376 1.0255 1.3626 2.082 2.282 2.872 4.152
684.787 5.382 6.952 8.902 10.512 12.092 13.602 14.292 14.762 15.282 15.562
704.077 15.322 14.842 13.802 12.392 10.872 9.012 7.842 7.172 6.412 6.082
723.367 6.132 6.122 6.412 7.192 8.162 9.462 10.852 12.102 12.992 13.882
742.657 15.222 17.392 20.532 22.742 21.442 18.052 15.902 14.752 13.802 13.012
761.947 11.782 10.512 9.362 8.042 6.782 5.992 6.082 6.612 6.792 6.802
781.236 7.252 7.962 9.502 11.952 14.222 16.422 17.962 18.472 18.442 18.632
800.526 19.062 19.202 20.022 20.212 19.372 18.682 18.172 18.102 18.722 19.332
819.816 19.632 20.592 22.192 24.722 29.422 35.492 38.282 32.412 24.732 22.482
839.106 22.602 23.602 25.462 28.592 33.922 41.172 48.542 53.532 55.902 57.522
858.395 61.362 63.692 59.162 56.212 55.922 51.242 41.862 30.562 20.822 13.782
877.685 9.282 6.672 5.342 4.622 3.682 3.022 2.862 2.802 2.852 2.462
896.975 2.292 2.552 2.432 2.492 2.572 2.562 2.752 2.902 3.162 3.612
916.265 4.172 4.952 5.192 4.632 4.602 5.282 5.612 5.562 5.172 4.622
935.555 4.482 4.322 4.292 3.922 3.302 3.272 3.272 3.282 2.942 2.662
954.844 3.062 3.132 2.822 2.732 2.762 2.492 2.482 2.632 2.962 3.332
974.134 3.142 2.642 2.472 2.952 3.072 2.872 2.852 3.272 3.722 3.552
993.424 3.132 2.802 2.612 2.722 3.072 3.482 2.832 2.622 2.912 2.452
1012.714 2.752 2.652 2.292 2.522 2.522 2.372 2.432 2.602 2.662 2.982
1032.003 3.582 4.342 4.252 4.472 4.802 4.952 5.682 5.962 6.292 5.922
1051.293 5.562 5.992 6.282 6.482 6.492 6.172 5.772 5.512 5.132 4.692
1070.583 4.532 4.062 3.722 3.462 2.882 2.622 2.342 2.262 2.812 2.682
1089.873 2.202 2.242 2.082 1.752 2.192 2.632 2.192 1.612 1.532 1.612
1109.163 2.742 3.412 3.752 4.012 4.252 5.082 5.192 5.262 5.902 5.782
1128.452 4.732 4.372 4.592 4.702 4.532 3.952 3.732 4.692 4.702 4.082
1147.742 4.022 3.912 3.742 3.292 3.662 4.232 4.402 5.382 6.542 7.852
1167.032 8.362 9.122 11.202 12.002 12.162 12.272 12.092 12.472 12.982 12.932
1186.322 12.922 12.382 11.502 10.192 9.082 9.062 8.492 8.022 8.542 8.802
1205.611 9.472 11.232 11.862 12.312 12.792 13.162 14.132 15.512 15.752 15.902
1224.901 17.302 17.222 15.812 14.572 13.282 12.602 11.722 10.392 9.562 8.792
1244.191 7.542 6.482 6.132 5.782 4.992 4.562 4.572 4.622 4.552 4.552
1263.481 4.502 4.212 4.272 4.322 4.592 4.822 4.712 4.442 4.552 4.782
1282.771 4.772 5.012 5.212 5.382 5.512 5.742 6.162 6.682 7.402 7.962
1302.060 8.562 9.282 9.882 10.592 11.452 12.042 12.482 13.112 13.782 14.552
1321.350 15.452 16.642 18.262 20.312 23.152 27.222 32.662 39.822 49.062 60.642
1340.640 74.872 91.372 108.962 126.572 142.752 156.072 166.172 173.202 176.942 176.122
1359.930 170.572 161.802 148.762 129.472 105.862 82.592 63.612 50.282 41.772 36.552
1379.219 33.742 32.312 31.592 31.192 30.952 31.062 31.642 32.122 31.922 31.182
1398.509 30.002 28.672 27.192 25.602 24.142 22.712 21.352 20.312 19.492 18.602
1417.799 17.822 17.402 17.112 17.172 17.602 18.302 19.192 20.092 21.302 22.732
1437.089 24.162 25.662 27.142 28.442 29.282 29.632 29.772 29.912 29.702 29.152
1456.378 28.422 27.382 26.242 25.062 23.812 22.922 22.432 22.032 22.082 22.432
1475.668 22.872 23.522 24.302 25.132 25.982 26.832 27.792 28.892 30.142 31.512
1494.958 33.072 34.912 37.202 39.982 43.042 46.492 50.522 55.302 60.822 67.172
1514.248 74.222 82.212 91.232 100.952 111.732 123.222 135.252 147.612 159.772 170.832
1533.538 180.532 188.112 193.112 195.602 196.022 194.832 192.052 187.272 180.222 171.702
1552.827 162.622 153.722 145.282 137.162 129.982 123.472 117.082 110.552 103.572 96.572
1572.117 90.012 84.702 80.612 77.962 77.262 77.902 79.902 83.462 88.122 94.072
1591.407 101.232 108.802 116.562 123.592 129.072 132.292 132.362 129.522 124.202 117.772
1610.697 111.122 103.462 94.402 83.242 70.462 57.822 46.222 36.412 28.832 23.102
1629.986 18.762 15.682 13.482 11.892 10.642 9.672 9.062 8.552 8.162 8.022
1649.276 7.822 7.542 7.332 7.132 6.912 6.522 6.112 5.812 5.602 5.222
1668.566 4.862 4.632 4.162 3.772 3.522 3.372 3.322 3.192 2.772 2.472
1687.856 2.532 2.542 2.542 2.402 2.202 2.172 2.102 2.032 1.902 1.822
1707.146 1.772 1.652 1.502 1.572 1.802 1.712 1.3853 1.3452 1.4132 1.492
1726.435 1.562 1.572 1.622 1.692 1.642 1.572 1.592 1.622 1.692 1.822
1745.725 1.942 1.992 2.162 2.202 2.182 2.282 2.232 2.142 2.112 2.112
1765.015 2.102 1.972 1.822 1.762 1.752 1.652 1.572 1.522 1.512 1.472
1784.305 1.3834 1.379 1.462 1.592 1.672 1.762 1.942 2.022 2.022 2.032
1803.594 2.002 1.962 1.902 1.872 1.792 1.722 1.722 1.672 1.572 1.472
1822.884 1.4056 1.4161 1.3849 1.266 1.3427 1.422 1.502 1.662 1.702 1.762
1842.174 1.912 1.992 2.072 2.112 2.132 2.282 2.262 2.252 2.292 2.152
1861.464 2.082 1.982 1.872 1.882 1.862 1.772 1.722 1.742 1.792 1.822
1880.754 1.912 1.952 1.962 2.092 2.382 2.472 2.682 3.022 3.032 3.132
1900.043 3.352 3.332 3.312 3.402 3.282 3.132 3.072 2.882 2.612 2.362
1919.333 2.122 1.952 1.882 1.782 1.702 1.772 1.712 1.682 1.902 2.022
1938.623 2.102 2.282 2.392 2.522 2.562 2.582 2.682 2.592 2.442 2.352
1957.913 2.232 2.072 1.882 1.682 1.542 1.409 1.285 1.2226 1.1683 1.0575
1977.202 0.9028 0.8244 0.9116 0.9822 0.963 0.9214 0.9378 0.9427 0.921 0.9262
1996.492 0.8402 0.8307 0.8287 0.8055 0.9919 1.0828 0.8827 0.8545 0.7874 0.7958
2015.782 0.7951 0.6652 0.7779 0.9947 1.0289 0.893 0.9253 0.836 0.748 0.719
2035.072 0.6976 0.7302 0.7671 0.7592 0.7756 0.8709 0.8639 0.8075 0.7934 0.7807
2054.362 0.7356 0.7364 0.7852 1.0051 1.0692 1.0495 0.9957 0.9731 1.0938 1.0624
2073.651 0.9704 0.988 1.016 0.9857 1.043 1.1602 1.222 1.2113 1.1231 1.0993
2092.941 1.0978 1.1347 1.176 1.114 1.0351 0.9607 0.924 0.8904 0.9166 0.9056
2112.231 1.006 0.9604 0.8592 0.9895 0.9738 0.8851 0.8718 0.8789 0.941 0.8594
2131.521 0.818 0.8934 0.8905 0.9011 0.8754 0.8293 0.8052 0.7904 0.8534 0.8543
2150.810 0.8328 0.9097 0.9668 1.1152 1.1767 1.0468 0.9971 1.1057 1.199 1.1671
2170.100 1.2065 1.4197 1.452 1.4121 1.3859 1.2777 1.1939 1.2608 1.472 1.432
2189.390 1.3829 1.252 1.0967 1.2398 1.2448 1.2028 1.1562 1.0009 1.0665 1.0899
2208.680 0.9771 0.903 0.8949 1.0922 1.128 1.0564 1.0789 1.0086 0.9404 0.9589
2227.970 1.0582 1.0904 1.1774 1.2343 1.1326 1.1304 1.1827 1.3021 1.3393 1.1125
2247.259 0.9625 1.0344 1.1279 1.1713 1.0322 0.9633 0.9522 0.7874 0.7643 0.8562
2266.549 0.8672 0.8646 0.8316 0.8716 0.9875 1.0474 1.1173 1.0396 0.9888 0.9699
2285.839 0.9285 0.9028 0.8938 1.0187 0.8344 0.5772 0.7221 0.8596 0.8229 0.8706
2305.129 0.9707 0.8946 0.7107 0.7459 0.8808 0.9642 0.9428 0.8171 0.8462 0.9562
2324.418 0.9443 0.9054 0.8939 0.9408 1.0994 1.2522 1.3267 1.2771 1.2411 1.2791
2343.708 1.2019 1.2411 1.462 1.3376 1.137 1.1373 1.1013 1.2072 1.2491 1.2198
2362.998 1.1705 1.2032 1.2663 1.1786 1.2248 1.327 1.442 1.552 1.612 1.662
2382.288 1.772 1.792 1.772 1.812 1.822 1.932 2.072 2.112 2.122 2.142
2401.578 2.142 2.332 2.442 2.262 2.242 2.272 2.212 2.182 2.302 2.242
2420.867 2.102 2.052 1.962 1.862 1.822 1.782 1.662 1.672 1.672 1.742
2440.157 1.862 1.852 1.812 1.902 2.062 1.962 1.832 1.972 2.002 2.012
2459.447 2.142 1.992 1.802 1.892 2.072 2.002 1.942 2.032 2.012 2.042
2478.737 2.022 1.762 1.552 1.552 1.542 1.4024 1.1517 1.1029 1.1338 1.0585
2498.026 0.9702 1.0113 1.0367 0.968 0.9884 0.9956 0.9244 0.9045 1.0256 1.0967
2517.316 1.0524 0.9928 0.9999 1.0915 1.1109 0.9578 1.0629 1.2052 1.1243 1.0765
2536.606 1.1042 1.1846 1.1572 1.0827 1.0622 0.9553 0.8554 0.7833 0.6856 0.7736
2555.896 0.9078 0.8855 0.8348 0.7971 0.9066 1.0435 1.0247 0.9903 1.0945 1.1036
2575.186 1.1101 1.2563 1.3079 1.2907 1.2952 1.462 1.462 1.442 1.592 1.702
2594.475 1.772 1.792 1.632 1.582 1.702 1.592 1.3317 1.3488 1.512 1.512
2613.765 1.4002 1.3375 1.3855 1.3876 1.3369 1.2017 1.1643 1.3179 1.2934 1.1884
2633.055 1.3469 1.442 1.2798 1.213 1.3156 1.3539 1.2743 1.2571 1.2815 1.385
2652.345 1.3635 1.3549 1.562 1.562 1.4024 1.562 1.772 1.802 1.802 1.782
2671.634 1.842 1.922 1.902 1.692 1.862 1.932 1.782 1.982 2.272 2.292
2690.924 2.132 2.212 2.242 2.412 2.462 2.402 2.372 2.372 2.532 2.542
2710.214 2.432 2.262 2.182 2.012 2.012 1.982 1.862 1.842 1.702 1.652
2729.504 1.672 1.492 1.422 1.502 1.432 1.3727 1.502 1.492 1.4078 1.492
2748.794 1.482 1.4205 1.492 1.772 1.882 1.742 1.692 1.722 1.692 1.682
2768.083 1.602 1.592 1.552 1.572 1.562 1.2847 1.1881 1.166 1.1956 1.3274
2787.373 1.3698 1.3709 1.3559 1.432 1.592 1.702 1.692 1.582 1.642 1.692
2806.663 1.592 1.672 1.842 1.972 2.142 2.182 2.182 2.142 2.232 2.352
2825.953 2.462 2.672 2.782 2.862 2.932 3.012 3.252 3.292 3.412 3.542
2845.242 3.652 3.922 4.182 4.402 4.502 4.792 5.102 5.322 5.682 6.112
2864.532 6.342 6.572 6.762 7.092 7.562 7.682 7.922 8.102 8.292 8.412
2883.822 8.162 8.172 8.122 7.922 7.672 7.162 6.952 7.012 6.662 6.302
2903.112 6.172 5.942 5.772 5.972 6.032 5.922 6.002 6.202 6.322 6.432
2922.401 6.822 7.202 7.712 8.402 9.132 9.662 10.282 11.062 11.642 12.102
2941.691 12.442 12.762 12.842 12.812 12.702 12.402 12.122 11.742 11.092 10.182
2960.981 9.512 9.192 8.652 8.262 7.822 7.652 7.972 8.172 8.432 8.852
2980.271 9.512 10.212 10.822 11.582 12.262 12.722 13.222 13.372 13.102 12.852
2999.561 12.802 12.702 12.302 11.722 11.232 10.782 10.142 9.512 9.062 8.672
3018.850 8.272 8.062 8.072 7.922 7.892 8.222 8.522 8.622 8.892 9.152
3038.140 9.412 9.722 10.012 10.522 11.012 11.572 12.712 14.212 15.992 18.042
3057.430 20.042 22.092 24.242 26.022 26.992 27.432 27.642 27.072 25.792 24.252
3076.720 22.372 20.092 17.032 13.892 10.992 8.602 6.832 5.532 4.642 3.872
3096.009 3.422 3.182 3.032 2.922 2.652 2.392 2.262 2.202 2.332 2.392
3115.299 2.152 2.042 2.032 1.992 1.762 1.632 1.982 1.952 1.812 1.762
3134.589 1.722 1.682 1.532 1.3336 1.3941 1.572 1.642 1.742 1.662 1.4191
3153.879 1.3238 1.562 1.682 1.662 1.482 1.442 1.442 1.3062 1.3351 1.3409
3173.169 1.4125 1.3761 1.2116 1.1602 1.181 1.0231 1.0317 1.336 1.3222 1.2795
3192.458 1.1473 0.9775 1.2924 1.398 1.2286 1.1629 1.0464 1.1578 1.1774 1.2052
3211.748 1.202 1.1197 1.2995 1.1504 1.0814 1.0704 0.9957 0.9252 0.9678 0.9111
3231.038 0.7364 0.7555 0.6848 0.6402 0.6874 0.76 0.4981 0.430414 0.6447 0.6973
3250.328 0.5726 0.246 0.268 0.6551 0.7677 0.6773 0.7742 0.7041 0.6209 0.8265
3269.617 0.8012 0.5891 0.6966 0.6973 0.6839 0.8082 0.6512 0.49917 0.5286 0.44709
3288.907 0.3236 0.278 0.428826 0.7314 0.7829 0.6424 0.3839 0.4027 0.6401 0.6976
3308.197 0.7848 0.8839 0.9095 0.8224 0.7493 0.9259 1.0012 0.6866 0.47703 0.6412
3327.487 0.8003 0.5711 0.5326 0.7218 0.7144 0.6935 0.5636 0.5423 0.6479 0.5721
3346.777 0.49158 0.5711 0.7026 0.7866 0.49158 0.125 0.111 0.236 0.51302 0.7824
3366.066 0.7748 0.7945 0.8273 0.576 0.50466 0.7339 0.6856 0.641 0.8581 0.9085
3385.356 0.6497 0.5993 0.6373 0.6262 0.7018 0.6622 0.5985 0.5684 0.3788 0.5341
3404.646 0.6918 0.3371 0.161 0.302 0.45019 0.5128 0.5789 0.8589 0.8329 0.6542
3423.936 0.8038 0.5681 0.48608 0.5386 0.5858 0.45199 0.4381 0.46464 0.223 0.3723
3443.225 0.3746 0.209 0.293 0.5765 0.46384 0.165 0.362 0.7418 0.8364 0.7354
3462.515 0.6643 0.5399 0.5456 0.7481 0.7776 0.7096 0.6226 0.50655 0.3965 0.302
3481.805 0.4068 0.8528 1.0678 0.7306 0.50724 0.3415 0.3684 0.5307 0.5298 0.7974
3501.095 0.8394 0.6913 0.5945 0.7032 0.8509 0.6846 0.5377 0.3861 0.428317 0.6897
3520.385 0.7996 0.6288 0.319 0.41 0.8308 0.9476 0.8778 0.6988 0.5067 0.395
3539.674 0.3396 0.284 0.253 0.251 0.282 0.44082 0.6231 0.7399 0.6934 0.3973
3558.964 0.299 0.45889 0.48427 0.46277 0.41545 0.47384 0.6425 0.7608 0.6229 0.47566
3578.254 0.6124 0.6491 0.5974 0.5349 0.424461 0.6838 0.9311 0.5987 0.48252 0.7892
3597.544 0.9278 0.9114 0.7686 0.7725 0.8063 0.6081 0.578 0.43963 0.3 0.5461
3616.833 0.606 0.46729 0.5501 0.6103 0.6187 0.5872 0.6645 1.1239 1.1332 0.7709
3636.123 0.5812 0.48644 0.6049 0.8089 0.7439 0.6069 0.6516 0.5277 0.3307 0.28
3655.413 0.3567 0.50881 0.6632 0.8516 0.8643 0.6821 0.48494 0.49534 0.6227 0.5938
3674.703 0.48369 0.3886 0.41784 0.3733 0.3693 0.45259 0.61 0.6883 0.3922 0.48749
3693.993 0.8111 0.806 0.858 0.8789 0.7505 0.51249 0.3305 0.195 0.238 0.5947
3713.282 0.8094 0.8942 0.9308 0.7813 0.8302 0.8992 0.7729 0.8083 0.8791 0.7599
3732.572 0.6766 0.8344 0.845 0.78 0.8215 0.9104 0.8666 0.6201 0.6491 0.9511
3751.862 0.9683 0.932 0.8209 0.6897 0.736 0.8892 0.7845 0.6216 0.6423 0.6555
3771.152 0.8727 0.9384 0.9273 0.9272 0.8577 0.8462 0.7565 0.5524 0.49809 0.5627
3790.441 0.5646 0.6778 0.7797 0.677 0.5717 0.6368 0.6552 0.50361 0.5403 0.8843
3809.731 1.0656 1.0698 0.9501 0.6392 0.584 0.7524 0.7896 0.7166 0.7734 0.5736
3829.021 0.47728 0.49661 0.7324 1.0016 0.9049 0.8517 0.5897 0.3825 0.6167 0.8218
3848.311 1.0147 0.857 0.46046 0.3868 0.6714 0.9657 0.6508 0.6736 0.6131 0.45033
3867.601 0.5991 0.5539 0.649 0.6868 0.6252 0.6334 0.6782 0.7062 0.9912 1.1588
3886.890 1.0222 0.828 0.7 0.6203 0.3248 0.6548 1.1135 1.1067 0.7728 0.49138
3906.180 0.7522 1.0465 1.0797 0.7826 0.937 1.0512 0.778 0.8695 1.0116 0.8962
3925.470 0.7084 0.9626 1.0886 1.0525 0.9705 0.942 0.8838 0.9255 1.077 1.0439
3944.760 0.9437 0.7714 0.7955 0.7815 0.8339 0.9648 1.0607 1.0631 0.8772 0.6778
3964.049 0.9709 1.0635 0.8041 0.719 0.9329 1.133 0.7445 0.7513 1.0355 0.888
3983.339 0.8886 0.875 0.6461 0.649 0.6506 0.50099 0.6667 0.8386 0.8829 1.1155
##END=
