##TITLE=Chloropropylate
##JCAMP-DX=4.24
##DATA TYPE=INFRARED SPECTRUM
##ORIGIN=NIST Mass Spectrometry Data Center
##OWNER=NIST Standard Reference Data Program
Collection (C) 2018 copyright by the U.S. Secretary of Commerce
on behalf of the United States of America. All rights reserved.
##CAS REGISTRY NO=5836-10-2
##MOLFORM=C 17 H 16 Cl 2 O 3
##$NIST SOURCE=MSDC-IR
##SPECTROMETER/DATA SYSTEM=HP-GC/MS/IRD
##STATE=gas
##XUNITS=1/CM
##YUNITS=ABSORBANCE
##XFACTOR=1.0
##YFACTOR=0.000004200
##DELTAX=4.0
##FIRSTX=550.0
##LASTX=3846.0
##FIRSTY=0.000609
##MAXX=3846
##MINX=550
##MAXY=0.042
##MINY=0
##NPOINTS=825
##XYDATA=(X++(Y..Y))
550.0 145 107 33 5 34 85 144 213 263 271
590.0 213 147 100 76 61 42 39 27 23 37
630.0 47 44 39 24 24 35 36 45 50 36
670.0 45 74 88 83 71 89 101 110 143 166
710.0 189 207 226 238 262 316 394 465 557 792
750.0 1177 1403 1199 844 676 660 716 828 915 991
790.0 1198 1591 1989 2156 2237 2630 3437 4268 4648 4442
830.0 3672 2611 1690 1102 772 575 453 379 337 313
870.0 291 287 302 332 382 506 696 920 1141 1204
910.0 1053 854 821 951 1059 1010 903 868 856 806
950.0 742 733 790 913 1105 1402 1784 2024 1943 1598
990.0 1242 1017 928 998 1344 2570 4261 4032 2122 994
1030.0 769 732 771 853 1010 1236 1551 2030 2666 3362
1070.0 3890 3938 3604 3598 4821 7534 10000 9785 7878 6614
1110.0 5771 4694 3679 2958 2522 2289 2173 2121 2123 2179
1150.0 2390 2861 3537 4128 4174 3650 3057 2741 2617 2501
1190.0 2468 2615 2898 3252 3626 4013 4406 4769 5061 5275
1230.0 5462 5777 6345 7061 7619 7602 6823 5551 4246 3224
1270.0 2473 1908 1506 1215 1006 887 833 815 822 815
1310.0 787 749 719 720 747 798 871 954 1036 1106
1350.0 1153 1179 1197 1219 1253 1308 1475 1730 1825 1785
1390.0 1863 1925 1800 1606 1379 1107 860 686 581 527
1430.0 504 512 546 598 670 779 937 1116 1294 1512
1470.0 1766 2043 2511 3538 5317 6907 6450 4116 2095 1166
1510.0 773 579 467 386 322 282 263 251 241 234
1550.0 240 256 282 318 370 425 480 543 633 796
1590.0 997 1095 975 725 515 393 333 303 288 280
1630.0 283 300 319 335 342 342 339 330 322 313
1670.0 316 340 365 393 439 500 561 619 702 821
1710.0 1001 1272 1721 2530 3995 6109 7750 7415 5580 4005
1750.0 3293 2954 2483 1859 1352 1045 852 714 594 476
1790.0 376 305 261 230 205 179 163 151 139 129
1830.0 120 110 104 94 80 70 63 63 62 66
1870.0 77 86 99 116 141 172 198 217 218 199
1910.0 171 140 117 97 78 66 58 52 44 41
1950.0 41 36 31 25 18 12 13 15 16 15
1990.0 15 11 9 10 14 14 18 16 14 22
2030.0 27 26 26 27 31 34 34 36 32 29
2070.0 32 33 33 32 32 29 27 29 29 21
2110.0 19 20 19 19 20 18 18 19 16 16
2150.0 22 22 21 16 13 14 16 14 13 13
2190.0 11 14 19 14 16 18 16 20 16 16
2230.0 19 20 25 22 12 8 10 13 13 16
2270.0 19 25 32 33 33 38 43 40 43 48
2310.0 45 40 35 33 29 19 12 14 13 7
2350.0 4 7 11 8 11 11 4 2 8 13
2390.0 19 22 20 20 26 26 18 20 25 21
2430.0 15 15 13 8 8 11 13 18 18 18
2470.0 16 15 16 16 24 26 21 20 16 18
2510.0 21 19 21 20 25 33 32 24 23 25
2550.0 16 9 21 22 21 27 32 30 21 12
2590.0 12 16 21 18 10 10 10 8 5 1
2630.0 0 2 4 4 11 12 11 8 11 18
2670.0 26 23 20 24 26 29 30 25 22 23
2710.0 25 27 30 27 27 26 24 31 43 47
2750.0 45 41 39 40 36 35 29 26 27 31
2790.0 37 41 39 37 42 43 48 57 60 64
2830.0 67 74 75 74 77 74 85 95 103 120
2870.0 143 182 232 274 309 318 304 291 287 291
2910.0 302 313 321 343 392 462 573 734 890 929
2950.0 820 678 590 570 608 721 956 1432 2251 3064
2990.0 3121 2350 1484 932 666 538 436 355 298 270
3030.0 267 268 281 288 271 247 231 227 215 205
3070.0 223 275 335 395 447 475 462 415 350 273
3110.0 209 163 121 100 94 82 76 73 69 73
3150.0 76 72 66 62 60 67 74 68 67 71
3190.0 70 74 72 62 55 47 39 40 42 32
3230.0 35 42 47 42 32 33 30 31 25 28
3270.0 32 23 25 26 22 21 25 29 30 21
3310.0 9 14 25 35 31 31 32 27 31 33
3350.0 31 29 28 32 42 40 31 25 32 52
3390.0 54 44 50 57 56 61 56 59 61 64
3430.0 81 95 98 107 124 125 115 115 135 149
3470.0 154 165 179 207 241 276 308 348 415 506
3510.0 618 773 952 1126 1285 1398 1418 1337 1199 1023
3550.0 850 706 584 484 406 332 274 244 225 210
3590.0 211 222 258 323 423 579 713 689 532 353
3630.0 215 142 110 92 83 80 71 57 46 32
3670.0 27 39 44 27 24 25 26 31 31 31
3710.0 25 13 21 34 31 21 19 30 35 30
3750.0 37 36 25 25 25 27 34 38 30 20
3790.0 19 21 34 40 36 35 30 27 36 38
3830.0 44 41 41 48 36
##END=
