##TITLE=Ethyl tiglate
##JCAMP-DX=4.24
##DATA TYPE=INFRARED SPECTRUM
##ORIGIN=EPA-IR VAPOR PHASE LIBRARY
##OWNER=SRD/NIST
Collection (C) 2018 copyright by the U.S. Secretary of Commerce
on behalf of the United States of America. All rights reserved.
##CAS REGISTRY NO=5837-78-5
##MOLFORM=C 7 H 12 O 2
##$NIST SOURCE=MSDC-IR
##STATE=gas
##XUNITS=1/CM
##YUNITS=ABSORBANCE
##XFACTOR=1.
##YFACTOR=0.001
##DELTAX=1.92934
##FIRSTX=549.9
##LASTX=3999.5
##FIRSTY=2.874
##MAXX=3999.53
##MINX=549.863
##MAXY=0.45298
##MINY=0
##NPOINTS=1789
##XYDATA=(X++(Y..Y))
549.863 2.874 3.01 3.134 2.965 2.809 2.907 2.88 2.676 2.537 2.419
569.156 2.51 2.552 2.613 2.56 2.381 2.298 2.425 2.579 2.373 2.27
588.450 2.308 2.24 2.27 2.329 2.306 2.27 2.24 2.21 2.05 2.15
607.743 2.17 1.99 2.02 2.16 2.19 2.13 2.16 2.26 2.38 2.412
627.037 2.46 2.598 2.795 3.026 3.2219 3.5525 4.0246 4.67 5.53 6.42
646.330 7.22 7.81 8.2 8.44 8.58 8.62 8.66 8.55 8.03 7.32
665.624 6.53 5.69 5.03 4.55 4.245 4.09 3.9741 3.8652 3.7192 3.7004
684.917 3.8407 3.8573 3.8704 4.0299 4.2559 4.48 4.72 4.96 5.26 5.67
704.210 6.13 6.73 7.49 8.61 9.99 11.66 13.74 16.09 18.67 21.44
723.504 24.21 27.07 30.1 33.49 37.59 41.63 43.74 43.08 40.89 38.49
742.797 36.25 33.98 31.61 29.04 26.31 23.62 20.97 18.6 16.67 15.05
762.091 13.87 13.15 12.56 12.18 11.98 11.77 11.6 11.55 11.43 11.21
781.384 11.05 10.87 10.58 10.22 9.82 9.43 9.08 8.72 8.35 8.03
800.678 7.77 7.58 7.44 7.37 7.33 7.26 7.19 7.3 7.54 7.64
819.971 7.77 7.88 7.95 8.06 8.12 8.24 8.33 8.35 8.38 8.39
839.264 8.42 8.51 8.72 9.01 9.3 9.71 10.16 10.69 11.48 12.44
858.558 13.35 14.22 15 15.49 15.69 15.71 15.58 15.27 14.67 13.82
877.851 12.79 11.55 10.35 9.29 8.37 7.68 7.12 6.65 6.38 6.13
897.145 5.98 6.01 6.01 5.98 5.99 5.99 6.01 6.09 6.18 6.29
916.438 6.46 6.66 6.9 7.16 7.38 7.65 8.03 8.42 8.75 9.1
935.732 9.41 9.6 9.7 9.74 9.69 9.64 9.55 9.41 9.2 8.93
955.025 8.65 8.45 8.33 8.26 8.25 8.23 8.3 8.45 8.65 8.93
974.318 9.29 9.75 10.28 10.95 11.7 12.49 13.41 14.4 15.5 16.64
993.612 17.71 18.76 19.75 20.72 21.67 22.54 23.36 24.23 25.06 25.81
1012.905 26.66 27.6 28.81 30.28 31.93 33.91 36.12 38.69 41.55 44.63
1032.199 47.98 51.44 55.09 58.85 62.51 66 69.33 72.45 75.2 77.75
1051.492 80.16 82.5 84.91 87.57 90.72 94.39 98.75 103.83 109.53 115.63
1070.786 121.7 127.34 132.24 136.18 138.85 140.07 139.56 137.25 133.37 128.14
1090.079 122.14 115.75 109.08 102.49 96.19 90.31 85.13 80.88 77.58 75.35
1109.372 74.63 76 80.05 87.26 97.97 112.43 130.99 153.21 177.98 203.95
1128.666 229.05 251.73 270.97 286.68 298.88 306.46 308.93 305.25 294.12 277.24
1147.959 257.51 237.23 217.94 200.16 183.69 167.91 152.29 137.13 122.87 109.95
1167.253 98.82 89.2 80.99 74.24 68.36 62.95 58.19 53.8 49.45 45.25
1186.546 41.36 37.78 34.5 31.83 29.91 28.44 27.18 26.29 25.79 25.84
1205.840 26.38 26.66 27.2 28.63 30.44 32.61 35.16 38.05 41.83 46.71
1225.133 52.69 60.06 69.16 80.28 94.1 111.55 132.92 158.24 188.16 221.97
1244.426 258.22 295.32 331.02 363.76 392.41 416.82 436.26 449.11 452.98 445.97
1263.720 428.21 402.26 372.9 343.66 315.1 286.03 254.83 221.55 187.42 154.81
1283.013 126.25 103.2 86.05 73.45 64.14 57.37 52.32 48.47 45.43 42.86
1302.307 40.61 38.57 36.69 34.89 33.06 31.3 29.59 27.91 26.39 25.12
1321.600 24.16 23.49 23.16 23.27 23.89 24.97 26.4 27.95 29.2 29.97
1340.894 30.43 30.79 31.19 31.54 31.61 31.36 30.98 30.84 31.4 32.81
1360.187 34.91 37.35 39.76 41.91 43.89 45.74 47.6 49.58 51.28 52.34
1379.480 52.88 53.13 53.32 53.51 53.45 53.05 52.25 51 49.08 46.57
1398.774 43.71 40.66 37.66 34.77 32.23 30.05 28.21 26.73 25.59 24.66
1418.067 24.05 23.72 23.65 23.76 23.98 24.34 24.84 25.44 26.17 26.92
1437.361 27.71 28.51 29.34 30.15 30.85 31.52 32.12 32.71 33.23 33.45
1456.654 33.53 33.81 34.16 34.39 34.48 34.41 34.13 33.64 32.9 31.98
1475.948 30.92 29.55 28.05 26.44 24.75 23.1 21.62 20.28 19.1 18.11
1495.241 17.16 16.34 15.7 15.13 14.59 14.05 13.6 13.32 13.08 12.89
1514.534 12.67 12.43 12.22 12.02 11.92 11.79 11.66 11.61 11.49 11.36
1533.828 11.2 11.08 10.87 10.6 10.52 10.42 10.27 10.15 9.99 9.88
1553.121 9.75 9.56 9.3 9.03 9.01 9.03 8.91 8.82 8.76 8.7
1572.415 8.68 8.62 8.59 8.69 8.78 8.8 8.83 8.94 9.04 9.1
1591.708 9.17 9.25 9.37 9.49 9.53 9.57 9.68 9.75 9.84 10
1611.002 10.15 10.3 10.5 10.72 11.06 11.46 11.94 12.59 13.32 14.24
1630.295 15.42 16.81 18.56 20.8 23.56 26.83 30.57 34.58 38.78 42.79
1649.588 46.02 48.22 49.55 50.07 49.74 48.46 46.16 42.68 38.43 33.97
1668.882 29.89 26.73 24.73 23.57 23.04 22.99 23.27 23.9 24.8 25.83
1688.175 27.22 28.98 31.12 33.66 36.93 40.82 45.74 52.36 60.12 70.32
1707.469 82.9 98.24 116.75 138.67 164.13 193.35 225.66 256.88 285.37 307.82
1726.762 322.04 329.79 334.91 338.46 337.48 327.98 307.77 279.1 247.26 213.75
1746.056 181.09 150.73 123.83 100.36 81.16 65.79 53.31 43.79 36.47 31.02
1765.349 27.08 24.22 22.18 20.72 19.64 18.91 18.36 17.83 17.27 16.65
1784.642 15.94 15.19 14.39 13.55 12.69 11.82 10.97 10.18 9.44 8.8
1803.936 8.21 7.63 7.06 6.59 6.24 5.95 5.7 5.42 5.18 5
1823.229 4.85 4.73 4.6 4.5 4.46 4.37 4.3 4.2521 4.262 4.253
1842.523 4.1962 4.1733 4.2229 4.2601 4.2405 4.2484 4.2592 4.29 4.31 4.32
1861.816 4.37 4.45 4.5 4.55 4.58 4.64 4.79 4.89 4.92 5.01
1881.110 5.15 5.28 5.42 5.53 5.64 5.76 5.9 6.02 6.09 6.18
1900.403 6.25 6.26 6.29 6.32 6.32 6.27 6.22 6.16 6.06 5.91
1919.696 5.73 5.58 5.43 5.25 5.07 4.93 4.82 4.68 4.49 4.36
1938.990 4.29 4.1957 4.1056 4.0186 3.9634 3.9112 3.8463 3.7432 3.6898 3.6665
1958.283 3.6465 3.6058 3.5388 3.5261 3.4961 3.446 3.4359 3.4384 3.4373 3.4374
1977.577 3.4408 3.4456 3.4658 3.482 3.5312 3.5991 3.6877 3.7761 3.8493 3.9182
1996.870 3.9835 4.0488 4.1066 4.1734 4.195 4.1875 4.195 4.2155 4.1877 4.1483
2016.164 4.0827 4.0559 4.1106 4.0919 4.0472 4.0056 3.9568 3.9359 3.9111 3.8022
2035.457 3.7707 3.7637 3.6893 3.6444 3.5878 3.5338 3.4891 3.4486 3.3982 3.3845
2054.750 3.3826 3.3977 3.402 3.4048 3.4175 3.4329 3.4472 3.445 3.4701 3.511
2074.044 3.5599 3.5722 3.5612 3.5607 3.5748 3.6286 3.6412 3.5288 3.4617 3.4842
2093.337 3.4748 3.4344 3.37999 3.35058 3.32672 3.31639 3.269 3.2448 3.2381 3.2604
2112.631 3.28717 3.2627 3.28361 3.248 3.2225 3.2543 3.2489 3.2411 3.2083 3.16
2131.924 3.128 3.099 3.063 3.004 2.975 2.968 2.936 2.92 2.845 2.805
2151.218 2.822 2.758 2.695 2.669 2.618 2.612 2.666 2.651 2.657 2.679
2170.511 2.696 2.701 2.73 2.77 2.746 2.773 2.783 2.799 2.843 2.88
2189.804 2.884 2.86 2.836 2.822 2.822 2.815 2.821 2.814 2.791 2.795
2209.098 2.758 2.74 2.763 2.707 2.666 2.681 2.688 2.653 2.697 2.729
2228.391 2.677 2.648 2.618 2.626 2.648 2.656 2.649 2.649 2.654 2.663
2247.685 2.693 2.688 2.683 2.687 2.682 2.71 2.747 2.799 2.82 2.807
2266.978 2.813 2.801 2.759 2.755 2.766 2.77 2.778 2.791 2.785 2.743
2286.272 2.732 2.759 2.759 2.724 2.731 2.755 2.761 2.744 2.745 2.745
2305.565 2.758 2.748 2.705 2.71 2.682 2.652 2.66 2.616 2.56 2.572
2324.858 2.547 2.461 2.397 2.432 2.454 2.457 2.466 2.428 2.396 2.384
2344.152 2.372 2.352 2.373 2.363 2.354 2.333 2.25 2.24 2.282 2.282
2363.445 2.303 2.378 2.407 2.475 2.556 2.583 2.667 2.764 2.869 2.942
2382.739 2.998 3.106 3.1957 3.28092 3.33612 3.3892 3.4484 3.5002 3.5327 3.5422
2402.032 3.546 3.512 3.5016 3.4945 3.4323 3.4076 3.35665 3.2384 3.184 3.161
2421.326 3.143 3.126 3.091 3.081 3.063 2.984 2.923 2.89 2.859 2.809
2440.619 2.754 2.781 2.75 2.659 2.633 2.653 2.636 2.624 2.649 2.625
2459.912 2.617 2.656 2.658 2.618 2.63 2.66 2.658 2.645 2.656 2.667
2479.206 2.664 2.659 2.657 2.672 2.663 2.66 2.662 2.681 2.717 2.7
2498.499 2.698 2.73 2.686 2.702 2.718 2.708 2.72 2.705 2.694 2.7
2517.793 2.716 2.699 2.696 2.693 2.639 2.589 2.603 2.611 2.577 2.564
2537.086 2.546 2.491 2.431 2.376 2.323 2.308 2.293 2.284 2.24 2.13
2556.380 2.14 2.13 2.08 2.09 2.09 2.07 2.09 2.08 2.01 2
2575.673 2 1.95 1.94 1.96 1.96 1.99 1.99 1.98 1.96 1.93
2594.966 1.95 1.97 1.97 1.96 1.89 1.88 1.93 1.91 1.87 1.89
2614.260 1.9 1.91 1.91 1.87 1.91 1.87 1.84 1.88 1.87 1.89
2633.553 1.88 1.83 1.8 1.85 1.86 1.87 1.93 1.92 1.89 1.83
2652.847 1.81 1.86 1.88 1.86 1.85 1.89 1.9 1.9 1.89 1.83
2672.140 1.81 1.9 1.91 1.86 1.88 1.87 1.84 1.87 1.88 1.82
2691.434 1.8 1.85 1.88 1.85 1.91 2.03 2.07 2.07 2.12 2.23
2710.727 2.396 2.464 2.489 2.535 2.654 2.795 2.884 3.005 3.09 3.136
2730.020 3.2447 3.30945 3.31255 3.34521 3.4464 3.5425 3.5896 3.668 3.7427 3.8221
2749.314 3.9262 3.9951 4.0456 4.0993 4.1935 4.29 4.35 4.38 4.36 4.34
2768.607 4.34 4.35 4.33 4.246 4.228 4.2071 4.1863 4.1546 4.1282 4.1694
2787.901 4.2048 4.2444 4.29 4.33 4.4 4.48 4.61 4.76 4.87 5.06
2807.194 5.24 5.33 5.5 5.73 5.94 6.17 6.41 6.64 6.92 7.23
2826.488 7.45 7.74 8.17 8.48 8.78 9.25 9.76 10.25 10.89 11.55
2845.781 12.19 13.06 14.09 15.2 16.43 17.93 19.73 21.6 23.55 25.73
2865.074 27.81 29.62 31.46 33.1 34.52 35.81 36.87 37.64 38.21 38.46
2884.368 38.47 38.58 38.76 38.92 39.2 39.57 40.06 40.63 41.26 42.25
2903.661 43.52 44.89 46.41 48.01 49.86 52 54.24 56.86 60 63.44
2922.955 66.85 70.13 73.36 76.58 79.79 82.85 85.58 87.5 88.21 87.86
2942.248 86.75 85.14 83.25 81 78.42 75.62 72.7 70.1 68.23 67.06
2961.542 66.67 67.04 68.05 69.76 72.13 75.43 79.51 84.07 88.54 92.23
2980.835 94.91 96.82 98.08 98.6 98.38 97.15 94.57 90.21 84.52 78.73
3000.128 73.35 68.35 63.79 59.76 55.91 52.23 48.66 45.21 42.03 39.25
3019.422 36.89 34.67 33 31.67 30.36 29.28 28.33 27.43 26.61 25.96
3038.715 25.28 24.56 23.98 23.3 22.59 21.92 21.3 20.6 19.86 19.19
3058.009 18.55 17.82 17.05 16.24 15.45 14.78 14.05 13.3 12.52 11.76
3077.302 11.07 10.33 9.5 8.82 8.28 7.86 7.54 7.19 6.76 6.47
3096.596 6.18 5.93 5.75 5.44 5.19 5.23 5.11 4.77 4.61 4.47
3115.889 4.231 4.04 4.0301 4.0205 3.849 3.5271 3.3007 3.32272 3.2696 3.141
3135.182 2.986 3.001 2.879 2.598 2.451 2.343 2.19 2.12 2.18 2.05
3154.476 1.93 1.89 1.89 1.83 1.73 1.77 1.69 1.59 1.6 1.56
3173.769 1.42 1.28 1.2 1.21 1.21 1.2 1.27 1.26 1.21 1.16
3193.063 1.11 1.06 0.99 0.96 0.91 0.92 0.88 0.73 0.7 0.71
3212.356 0.74 0.6 0.43 0.33 0.41 0.51 0.4 0.38 0.35 0.31
3231.650 0.24 0.2 0.1 0.06 0.22 0.31 0.2 0.13 0.25 0.22
3250.943 0.07 0.1 0.11 0.3 0.36 0.19 0.19 0.11 0 0.02
3270.236 0.08 0.13 0.01 0.04 0.23 0.13 0.13 0.32 0.23 0.05
3289.530 0.05 0.06 0.04 0.12 0.14 0.21 0.23 0.1 0.13 0.19
3308.823 0.18 0.18 0.14 0.15 0.17 0.2 0.31 0.33 0.39 0.41
3328.117 0.28 0.25 0.35 0.38 0.31 0.38 0.4 0.41 0.45 0.41
3347.410 0.25 0.29 0.45 0.4 0.45 0.54 0.5 0.54 0.53 0.52
3366.704 0.62 0.83 0.82 0.67 0.9 1.01 0.99 1.08 1.12 1.15
3385.997 1.06 1.07 1.16 1.07 1.07 1.13 1.1 1.11 1.01 0.93
3405.290 0.89 0.86 1.06 1.1 1.1 1.25 1.43 1.65 1.85 1.92
3424.584 2.07 2.419 2.577 2.619 2.746 2.952 3.2179 3.3936 3.37363 3.31112
3443.877 3.36451 3.32597 3.3261 3.163 2.832 2.74 2.717 2.489 2.17 2.06
3463.171 1.83 1.6 1.52 1.38 1.32 1.23 1.14 1.05 0.98 1.04
3482.464 0.94 0.8 0.76 0.78 0.83 0.91 0.84 0.79 0.81 0.77
3501.758 0.74 0.74 0.69 0.58 0.53 0.55 0.6 0.6 0.53 0.57
3521.051 0.65 0.59 0.57 0.57 0.58 0.54 0.41 0.43 0.52 0.57
3540.344 0.43 0.34 0.46 0.51 0.49 0.53 0.64 0.57 0.47 0.6
3559.638 0.54 0.44 0.43 0.36 0.33 0.36 0.54 0.66 0.56 0.5
3578.931 0.58 0.58 0.5 0.56 0.64 0.72 0.69 0.58 0.67 0.76
3598.225 0.68 0.59 0.62 0.67 0.57 0.56 0.61 0.51 0.51 0.63
3617.518 0.76 0.87 0.9 0.84 0.85 0.8 0.64 0.74 0.8 0.78
3636.812 0.78 0.77 0.85 0.95 0.86 0.66 0.75 0.87 0.79 0.75
3656.105 0.81 0.92 0.96 0.83 0.79 0.88 0.86 0.82 0.77 0.85
3675.398 0.89 0.87 0.93 1 1.06 1.01 0.92 0.88 0.9 0.98
3694.692 1.04 0.97 1.01 1.19 1.16 1.04 1.07 1.1 1.12 1.16
3713.985 1.11 1.04 1.06 1.2 1.3 1.21 1.1 1.11 1.12 1.15
3733.279 1.21 1.11 0.98 1.01 1.05 1.05 1.07 1.01 1.06 1.2
3752.572 1.22 1.25 1.24 1.21 1.28 1.34 1.31 1.26 1.26 1.25
3771.866 1.13 1.13 1.2 1.23 1.3 1.31 1.27 1.28 1.25 1.3
3791.159 1.37 1.38 1.42 1.32 1.26 1.31 1.34 1.41 1.34 1.3
3810.452 1.4 1.38 1.37 1.37 1.3 1.24 1.28 1.37 1.34 1.3
3829.746 1.29 1.29 1.37 1.34 1.3 1.28 1.25 1.38 1.5 1.5
3849.039 1.47 1.4 1.32 1.34 1.43 1.42 1.35 1.45 1.47 1.38
3868.333 1.31 1.26 1.41 1.48 1.44 1.45 1.45 1.45 1.45 1.39
3887.626 1.47 1.5 1.42 1.45 1.51 1.48 1.37 1.38 1.4 1.48
3906.920 1.56 1.54 1.61 1.6 1.53 1.5 1.44 1.46 1.56 1.57
3926.213 1.55 1.56 1.55 1.59 1.64 1.74 1.76 1.62 1.49 1.52
3945.506 1.58 1.58 1.62 1.68 1.73 1.7 1.68 1.75 1.85 1.86
3964.800 1.8 1.77 1.85 1.94 1.83 1.77 1.71 1.69 1.8 1.85
3984.093 1.83 1.74 1.8 1.86 1.83 1.83 1.83 1.81 1.85
##END=
