##TITLE=2,3-Dimethylhexane
##JCAMP-DX=4.24
##DATA TYPE=INFRARED SPECTRUM
##ORIGIN=NIST Mass Spectrometry Data Center
##OWNER=NIST Standard Reference Data Program
Collection (C) 2018 copyright by the U.S. Secretary of Commerce
on behalf of the United States of America. All rights reserved.
##CAS REGISTRY NO=584-94-1
##MOLFORM=C 8 H 18
##$NIST SOURCE=MSDC-IR
##SPECTROMETER/DATA SYSTEM=HP-GC/MS/IRD
##STATE=gas
##XUNITS=1/CM
##YUNITS=ABSORBANCE
##XFACTOR=1.0
##YFACTOR=0.000003700
##DELTAX=4.0
##FIRSTX=550.0
##LASTX=3846.0
##FIRSTY=0.000200
##MAXX=3846
##MINX=550
##MAXY=0.037
##MINY=0
##NPOINTS=825
##XYDATA=(X++(Y..Y))
550.0 54 13 3 8 0 11 27 27 6 13
590.0 10 1 16 24 21 11 10 14 13 18
630.0 32 34 17 16 40 34 23 40 48 33
670.0 19 27 31 29 36 36 35 41 44 48
710.0 57 67 69 68 74 81 84 97 91 69
750.0 74 84 77 73 76 73 59 54 46 36
790.0 39 44 50 51 56 50 48 69 106 90
830.0 65 74 62 56 64 63 63 62 67 72
870.0 71 77 86 97 104 118 130 129 120 110
910.0 104 101 104 101 105 109 106 97 92 98
950.0 100 93 81 79 91 100 102 101 102 107
990.0 113 111 111 113 107 103 101 106 112 119
1030.0 122 124 126 124 120 119 123 129 129 127
1070.0 126 114 105 96 91 92 89 100 125 153
1110.0 197 249 293 330 353 354 321 278 239 207
1150.0 184 161 138 122 111 97 84 82 85 81
1190.0 59 42 43 46 44 47 51 64 75 82
1230.0 89 89 88 91 92 91 97 98 98 105
1270.0 111 120 128 130 134 139 141 153 168 166
1310.0 169 177 179 177 173 178 189 198 215 239
1350.0 278 338 423 542 683 841 979 1075 1130 1115
1390.0 1015 852 676 504 364 281 245 229 233 253
1430.0 282 334 409 505 631 775 913 1040 1119 1140
1470.0 1105 1000 855 701 553 429 330 258 209 173
1510.0 155 140 122 108 100 99 94 84 82 78
1550.0 71 65 64 63 63 66 62 53 49 53
1590.0 60 57 57 60 53 51 52 51 55 53
1630.0 50 52 53 53 55 55 51 50 52 48
1670.0 42 42 47 50 42 39 42 40 35 33
1710.0 33 34 32 28 28 25 21 25 27 26
1750.0 24 21 22 19 18 24 23 25 30 23
1790.0 19 23 22 20 18 20 22 23 20 16
1830.0 16 13 16 23 20 17 20 19 17 18
1870.0 20 21 20 17 14 17 18 19 19 15
1910.0 14 11 14 15 9 5 9 11 8 4
1950.0 4 6 5 6 6 5 3 0 4 7
1990.0 10 12 6 3 7 10 11 12 11 8
2030.0 9 12 7 10 13 11 13 14 15 17
2070.0 12 8 12 14 12 11 9 8 8 10
2110.0 7 10 11 5 3 6 8 4 3 6
2150.0 11 14 13 13 11 10 12 9 6 7
2190.0 11 10 11 17 13 5 1 5 7 4
2230.0 6 11 12 8 3 0 3 5 3 2
2270.0 5 10 7 6 10 8 9 10 8 4
2310.0 6 15 13 8 13 12 12 14 12 12
2350.0 17 20 17 18 25 26 20 12 13 20
2390.0 21 23 24 24 20 17 18 17 15 15
2430.0 18 14 11 14 12 7 10 13 14 12
2470.0 8 8 13 17 12 10 10 10 13 18
2510.0 18 12 17 25 25 25 28 26 23 24
2550.0 28 33 32 33 41 50 56 60 61 69
2590.0 74 75 77 77 79 82 83 84 78 76
2630.0 74 72 70 70 75 75 75 84 85 83
2670.0 87 87 91 97 93 89 88 93 99 101
2710.0 106 122 140 147 153 167 176 175 181 181
2750.0 178 178 174 175 169 168 177 189 206 217
2790.0 231 249 267 282 306 334 366 399 430 460
2830.0 503 559 636 755 915 1128 1403 1747 2178 2704
2870.0 3307 3889 4312 4534 4559 4421 4173 3929 3797 3795
2910.0 3913 4126 4407 4733 5079 5408 5686 5879 6040 6319
2950.0 6842 7669 8708 9624 10000 9645 8586 7036 5349 3877
2990.0 2779 1998 1479 1145 927 780 678 599 536 487
3030.0 448 416 386 358 337 317 294 282 268 250
3070.0 234 233 233 218 211 206 198 199 195 185
3110.0 173 165 162 166 168 167 159 146 143 141
3150.0 142 141 138 137 136 137 125 118 119 108
3190.0 101 101 97 85 82 74 67 65 60 57
3230.0 55 44 35 36 40 40 35 25 23 32
3270.0 29 18 18 24 27 23 24 28 26 27
3310.0 28 24 25 27 19 12 17 17 15 17
3350.0 21 19 11 6 14 18 16 18 21 24
3390.0 20 20 28 31 24 15 17 16 20 24
3430.0 25 28 24 19 16 12 11 19 19 13
3470.0 17 19 10 10 16 18 17 20 20 18
3510.0 12 15 19 2 0 11 12 16 17 21
3550.0 19 11 11 11 6 5 9 7 2 6
3590.0 14 16 16 18 17 10 18 18 11 9
3630.0 13 17 11 6 10 8 4 11 15 19
3670.0 15 5 11 23 25 24 22 19 12 8
3710.0 16 20 27 30 24 20 21 14 14 32
3750.0 33 22 17 24 21 15 16 15 21 36
3790.0 37 22 15 19 26 26 27 29 37 35
3830.0 26 27 30 22 19
##END=
