##TITLE=Allethrin
##JCAMP-DX=4.24
##DATA TYPE=INFRARED SPECTRUM
##ORIGIN=NIST Mass Spectrometry Data Center
##OWNER=NIST Standard Reference Data Program
Collection (C) 2018 copyright by the U.S. Secretary of Commerce
on behalf of the United States of America. All rights reserved.
##CAS REGISTRY NO=584-79-2
##MOLFORM=C 19 H 26 O 3
##SOURCE REFERENCE=No.290053 (NIST/EPA/NIH MS Database)
##$NIST SOURCE=MSDC-IR
##SPECTROMETER/DATA SYSTEM=HP-GC/MS/IRD
##STATE=gas
##XUNITS=1/CM
##YUNITS=ABSORBANCE
##XFACTOR=1.0
##YFACTOR=0.000014500
##DELTAX=4.0
##FIRSTX=550.0
##LASTX=3846.0
##FIRSTY=0.001262
##MAXX=3846
##MINX=550
##MAXY=0.145
##MINY=0
##NPOINTS=825
##XYDATA=(X++(Y..Y))
550.0 87 43 7 10 18 29 40 49 54 55
590.0 62 75 86 91 92 83 61 43 36 27
630.0 18 15 10 2 0 0 2 3 7 11
670.0 19 32 38 38 36 31 25 17 13 18
710.0 25 34 44 60 86 111 127 138 137 129
750.0 119 107 98 93 89 82 75 68 66 66
790.0 66 74 85 102 123 147 167 178 188 202
830.0 224 264 323 387 456 511 534 501 422 349
870.0 309 288 273 264 265 277 300 345 424 550
910.0 724 852 846 762 681 629 595 560 529 505
950.0 501 523 568 614 646 675 723 819 974 1172
990.0 1350 1425 1388 1323 1316 1344 1350 1320 1310 1348
1030.0 1394 1419 1438 1438 1406 1393 1417 1442 1442 1412
1070.0 1369 1332 1284 1203 1113 1058 1055 1124 1287 1567
1110.0 1957 2342 2557 2641 2819 3220 3912 4899 5987 6745
1150.0 6660 5693 4441 3429 2743 2281 1991 1855 1846 1911
1190.0 1936 1836 1634 1445 1345 1349 1439 1575 1714 1795
1230.0 1779 1698 1646 1666 1699 1637 1466 1267 1125 1076
1270.0 1111 1188 1255 1255 1175 1067 971 886 811 769
1310.0 792 880 982 1030 1019 1011 1029 1037 1013 997
1350.0 1029 1065 1043 974 915 910 996 1183 1369 1409
1390.0 1308 1141 976 911 973 1107 1239 1304 1274 1191
1430.0 1103 1030 963 903 853 811 776 743 686 587
1470.0 477 390 326 278 243 218 198 183 170 161
1510.0 155 150 146 141 137 132 129 126 119 115
1550.0 112 110 107 105 103 102 101 99 99 100
1590.0 102 106 111 120 131 148 165 189 224 277
1630.0 351 447 541 597 637 707 785 791 693 549
1670.0 431 362 335 346 387 454 522 593 689 849
1710.0 1099 1497 2178 3427 5624 8432 10000 9016 6597 4285
1750.0 2637 1676 1159 852 648 509 413 346 292 250
1790.0 217 187 165 147 132 124 120 121 122 123
1830.0 120 111 98 82 69 59 48 39 34 29
1870.0 26 24 22 21 19 18 18 17 15 16
1910.0 14 13 12 12 11 10 11 11 10 11
1950.0 13 14 16 17 15 13 12 13 12 11
1990.0 10 10 11 11 10 9 6 7 8 8
2030.0 9 10 11 13 11 10 11 11 10 10
2070.0 9 9 8 8 7 6 8 9 10 10
2110.0 9 8 7 3 4 3 1 2 3 2
2150.0 1 2 1 0 0 0 0 2 1 3
2190.0 4 4 6 7 7 6 5 5 6 6
2230.0 4 5 4 3 4 5 7 7 6 6
2270.0 7 8 8 9 8 9 8 9 10 11
2310.0 10 8 7 9 7 7 10 7 7 7
2350.0 8 6 7 9 8 9 10 8 8 7
2390.0 5 6 7 7 6 5 5 6 8 9
2430.0 9 7 6 6 4 3 3 2 1 2
2470.0 3 3 2 2 3 2 0 1 3 2
2510.0 2 3 2 2 4 4 2 1 2 3
2550.0 5 6 6 5 5 6 5 5 6 5
2590.0 3 3 2 3 3 4 6 6 5 5
2630.0 7 9 7 5 7 9 9 10 10 12
2670.0 12 13 14 15 17 17 17 20 22 23
2710.0 25 28 32 39 46 59 73 88 103 111
2750.0 106 96 83 71 65 63 63 64 66 65
2790.0 66 68 74 83 92 102 113 128 142 161
2830.0 185 214 250 290 333 385 452 537 640 745
2870.0 840 919 980 1012 1017 1016 1022 1038 1080 1162
2910.0 1294 1473 1682 1878 1995 2009 1953 1864 1767 1725
2950.0 1789 1881 1821 1579 1353 1273 1309 1368 1372 1292
2990.0 1150 996 864 756 681 639 616 592 548 493
3030.0 455 436 423 411 389 361 333 315 303 293
3070.0 289 294 310 352 426 454 374 255 186 155
3110.0 136 120 107 95 90 84 78 72 66 61
3150.0 56 51 48 46 42 37 33 29 28 27
3190.0 27 22 18 18 13 10 12 12 13 13
3230.0 13 13 11 12 11 8 10 11 9 9
3270.0 9 9 10 9 8 7 9 9 7 6
3310.0 7 9 6 6 7 8 9 10 4 3
3350.0 4 7 10 10 9 11 14 14 16 19
3390.0 18 18 18 17 17 18 21 26 29 34
3430.0 40 56 80 106 124 125 113 96 79 66
3470.0 58 49 40 30 25 21 19 18 17 15
3510.0 12 12 9 7 7 8 6 3 2 0
3550.0 0 0 0 4 8 8 10 10 8 7
3590.0 7 8 7 3 0 0 1 4 5 3
3630.0 2 3 1 3 1 2 4 5 6 3
3670.0 3 5 6 5 6 6 4 4 4 6
3710.0 9 5 3 9 10 8 8 7 6 8
3750.0 10 12 14 12 8 9 12 11 10 9
3790.0 13 13 13 17 15 15 13 11 14 15
3830.0 13 16 16 15 15
##END=
