##TITLE=3-Benzyloxy-4-methoxybenzoic acid
##JCAMP-DX=4.24
##DATA TYPE=INFRARED SPECTRUM
##ORIGIN=EPA-IR VAPOR PHASE LIBRARY
##OWNER=SRD/NIST
Collection (C) 2018 copyright by the U.S. Secretary of Commerce
on behalf of the United States of America. All rights reserved.
##CAS REGISTRY NO=58452-00-9
##MOLFORM=C 15 H 14 O 4
##$NIST SOURCE=MSDC-IR
##STATE=gas
##XUNITS=1/CM
##YUNITS=ABSORBANCE
##XFACTOR=1.
##YFACTOR=0.001
##DELTAX=1.92898
##FIRSTX=549.8
##LASTX=4000.7
##FIRSTY=3.153
##MAXX=4000.7
##MINX=549.759
##MAXY=0.064373
##MINY=0
##NPOINTS=1790
##XYDATA=(X++(Y..Y))
549.759 3.153 2.773 2.783 3.183 3.033 2.603 1.843 1.703 2.193 2.373
569.049 2.703 2.563 1.913 2.043 2.603 2.703 2.283 2.453 3.553 4.043
588.339 4.053 4.473 4.973 5.153 5.543 6.103 6.653 7.223 7.563 8.293
607.628 8.883 9.173 9.413 8.913 7.973 7.473 7.213 6.343 5.523 5.073
626.918 4.403 3.743 3.113 2.673 2.503 2.203 1.903 1.723 1.793 1.443
646.208 1.1852 1.243 1.383 1.523 1.373 1.333 1.423 1.423 1.303 1.273
665.498 1.533 1.713 1.523 1.293 1.283 1.763 2.433 2.473 2.453 2.833
684.787 3.043 3.653 4.253 4.603 5.423 5.883 5.843 6.033 6.143 5.843
704.077 6.263 6.943 6.913 6.963 7.153 7.123 6.813 6.383 5.893 5.643
723.367 5.563 5.263 5.583 6.213 6.313 6.393 6.633 6.933 6.983 7.153
742.657 7.313 7.293 7.363 7.403 7.993 8.463 8.883 9.573 10.163 10.903
761.947 11.323 11.753 11.603 10.773 9.593 8.413 7.423 6.223 5.103 4.033
781.236 3.343 2.893 2.613 2.333 2.093 1.813 1.823 2.183 1.763 1.433
800.526 1.413 1.423 1.393 1.383 1.693 1.673 1.853 2.253 2.083 1.803
819.816 2.063 1.983 1.843 2.133 2.063 1.973 2.073 2.063 1.983 1.903
839.106 1.583 1.453 1.523 1.533 1.453 1.433 1.273 1.243 1.353 1.2182
858.395 1.273 1.273 1.233 1.363 1.2128 1.303 1.653 1.783 1.643 1.853
877.685 2.243 2.143 2.173 2.163 1.983 2.183 2.323 2.423 2.613 2.653
896.975 2.663 2.573 2.593 2.573 2.883 3.193 3.243 3.323 3.343 3.303
916.265 3.343 3.223 3.103 3.333 3.273 3.083 3.283 3.063 2.793 2.653
935.555 2.383 2.443 2.503 2.403 2.353 2.073 1.803 1.623 1.443 1.773
954.844 2.123 2.243 2.283 2.043 2.083 2.503 2.753 3.143 3.523 3.633
974.134 3.793 4.233 4.713 4.853 5.133 6.063 6.803 6.993 7.773 8.853
993.424 9.683 10.133 10.623 11.593 11.803 12.143 12.973 13.783 14.453 15.143
1012.714 16.013 16.553 16.873 17.003 16.783 16.153 15.193 14.733 14.023 12.753
1032.003 11.743 10.583 9.823 9.373 8.973 7.583 6.063 5.443 5.153 5.023
1051.293 4.723 4.193 3.953 3.953 4.383 5.073 6.123 7.303 8.163 9.183
1070.583 10.333 11.323 11.973 13.493 14.883 15.553 15.473 15.133 15.013 14.203
1089.873 13.453 12.553 11.683 10.963 9.663 8.273 8.243 8.923 9.023 9.583
1109.163 10.003 10.923 13.063 14.023 15.713 18.033 18.713 19.363 19.583 19.543
1128.452 19.613 19.823 19.853 18.983 18.163 16.823 15.963 16.033 16.433 16.733
1147.742 17.093 18.913 20.593 22.873 25.473 26.413 26.353 26.223 25.033 22.603
1167.032 20.503 18.423 16.083 13.803 12.563 12.413 12.093 11.183 11.143 10.973
1186.322 10.123 9.783 9.583 9.373 9.353 10.423 10.983 11.773 13.373 13.433
1205.611 13.403 13.953 14.963 15.343 15.273 15.123 14.663 14.643 14.353 13.513
1224.901 13.153 13.343 13.443 13.433 13.063 12.823 12.093 11.653 11.883 12.103
1244.191 12.433 12.933 13.263 14.153 15.853 17.483 19.073 21.013 23.563 26.063
1263.481 29.073 32.203 34.883 36.503 36.533 35.753 33.503 30.193 26.883 23.893
1282.771 21.323 19.513 18.163 16.823 15.653 14.853 14.183 13.463 12.923 12.563
1302.060 12.153 11.743 11.403 11.023 10.543 10.153 9.833 9.503 9.323 9.293
1321.350 9.283 9.303 9.493 9.753 10.023 10.463 11.013 11.493 12.023 12.753
1340.640 13.583 14.163 14.513 14.813 14.963 14.873 14.483 13.973 13.403 12.923
1359.930 12.623 12.283 12.123 12.053 11.853 11.593 11.163 10.613 10.003 9.303
1379.219 8.503 7.573 6.653 5.853 5.073 4.563 4.233 3.903 3.803 3.973
1398.509 4.153 4.443 5.033 5.623 6.253 7.193 8.313 9.533 10.713 11.923
1417.799 12.993 13.723 14.153 14.043 13.433 12.493 11.373 10.083 8.913 7.963
1437.089 7.343 7.243 7.273 7.433 7.603 7.523 7.223 6.863 6.513 6.233
1456.378 5.963 5.873 5.973 6.073 6.193 6.143 6.053 5.923 5.603 5.343
1475.668 5.163 4.983 4.853 4.893 5.133 5.443 5.853 6.493 7.453 8.663
1494.958 9.973 11.343 12.813 14.733 16.763 18.373 19.713 20.603 20.703 20.043
1514.248 18.393 16.073 13.563 11.173 9.103 7.283 5.873 4.943 4.363 3.903
1533.538 3.413 3.103 3.043 2.963 2.823 2.643 2.563 2.593 2.633 2.673
1552.827 2.703 2.803 2.883 2.843 3.123 3.483 3.643 3.993 4.313 4.823
1572.117 5.263 5.673 6.313 6.913 7.323 7.533 7.793 7.913 8.063 8.353
1591.407 8.863 9.433 9.943 10.523 10.813 10.803 10.533 10.093 9.393 8.263
1610.697 6.933 5.823 4.903 4.013 3.493 3.083 2.643 2.353 2.103 1.923
1629.986 1.903 1.763 1.523 1.543 1.593 1.483 1.423 1.283 1.243 1.233
1649.276 1.1826 1.2098 1.1562 1.1991 1.0981 1.1701 1.283 1.1379 1.117 1.0645
1668.566 1.0769 1.2021 1.273 1.175 1.2024 1.243 1.2018 1.1272 1.0997 1.343
1687.856 1.563 1.693 1.783 1.853 1.973 2.223 2.373 2.533 2.693 2.833
1707.146 2.923 3.113 3.423 3.493 3.463 3.313 3.313 3.443 3.503 3.703
1726.435 4.123 4.513 4.873 5.483 6.393 7.573 9.043 11.113 14.113 18.303
1745.725 24.033 31.663 40.893 50.953 59.573 64.373 63.943 58.203 47.933 35.463
1765.015 24.533 16.913 12.243 9.413 7.633 6.423 5.553 4.973 4.473 4.143
1784.305 3.913 3.753 3.543 3.403 3.223 3.113 3.153 3.043 3.053 3.143
1803.594 3.163 3.133 3.003 2.903 2.673 2.303 2.113 2.003 1.783 1.513
1822.884 1.293 1.2126 1.1193 1.0911 1.0571 1.0443 1.0789 1.0073 0.8915 0.9323
1842.174 1.058 0.8652 0.7698 0.8987 0.9453 0.9358 1.036 1.0596 1.0094 1.0122
1861.464 0.9851 1.042 1.1482 1.1681 1.1767 1.273 1.303 1.313 1.283 1.2007
1880.754 1.1515 1.1614 1.1716 1.1371 1.0727 1.0636 1.0519 1.0145 0.997 0.9014
1900.043 0.8686 0.905 0.8251 0.7883 0.7835 0.7913 0.811 0.6906 0.6807 0.8343
1919.333 0.8581 0.8484 0.9699 1.1246 0.987 0.8355 0.8907 0.8754 0.7783 0.736
1938.623 0.8589 0.9159 0.9711 1.0069 0.8771 0.8675 0.946 0.9056 0.8451 0.8784
1957.913 0.8995 0.9276 0.8987 0.8387 0.849 0.7787 0.6636 0.5779 0.5811 0.5331
1977.202 0.5397 0.6598 0.7007 0.6979 0.678 0.7152 0.7905 0.7898 0.7472 0.6734
1996.492 0.691 0.7535 0.8131 0.8491 0.7883 0.7866 0.8129 0.7948 0.8819 0.9376
2015.782 0.881 0.9337 1.0495 1.0914 1.0363 0.988 0.9529 0.8953 0.8662 0.9737
2035.072 0.9959 0.95 0.9654 0.8981 0.8937 0.8292 0.7913 0.8782 0.8264 0.8592
2054.362 0.942 0.8912 0.8401 0.8244 0.7695 0.754 0.7535 0.7643 0.8002 0.733
2073.651 0.6405 0.642 0.6012 0.5064 0.6202 0.6222 0.5421 0.578 0.5767 0.5024
2092.941 0.4488 0.4469 0.4909 0.5221 0.5097 0.5533 0.495 0.4359 0.512 0.5272
2112.231 0.4504 0.5212 0.6574 0.6362 0.534 0.4464 0.4899 0.5639 0.5058 0.4466
2131.521 0.4538 0.4716 0.4529 0.4705 0.4729 0.4575 0.4794 0.4891 0.5125 0.4859
2150.810 0.5307 0.4802 0.4287 0.4924 0.4479 0.4234 0.5499 0.4977 0.4391 0.5275
2170.100 0.5099 0.453 0.4627 0.49 0.5315 0.6741 0.6262 0.5039 0.4919 0.4856
2189.390 0.5579 0.6404 0.6542 0.5724 0.4838 0.5204 0.5557 0.6174 0.6809 0.6285
2208.680 0.4879 0.4202 0.5063 0.4483 0.3794 0.4477 0.4425 0.5332 0.6247 0.5515
2227.970 0.5572 0.6215 0.451 0.3879 0.5739 0.5373 0.4825 0.4946 0.5165 0.5741
2247.259 0.5229 0.5164 0.4875 0.4628 0.4659 0.5696 0.5683 0.5094 0.59 0.5116
2266.549 0.4638 0.5089 0.6637 0.6379 0.5745 0.5524 0.4623 0.5819 0.557 0.5827
2285.839 0.6714 0.5595 0.5355 0.594 0.6139 0.5855 0.5745 0.4148 0.3624 0.4653
2305.129 0.428 0.3994 0.5057 0.6166 0.5344 0.5056 0.5057 0.5086 0.5474 0.5453
2324.418 0.5879 0.4985 0.4074 0.4138 0.428 0.5151 0.5334 0.4793 0.4383 0.4188
2343.708 0.4185 0.4935 0.6 0.5125 0.4923 0.5933 0.503 0.4325 0.4375 0.4051
2362.998 0.3478 0.4197 0.582 0.6141 0.5674 0.485 0.3771 0.3587 0.31987 0.28118
2382.288 0.371 0.4774 0.5337 0.5762 0.4073 0.22586 0.3412 0.4497 0.4939 0.4846
2401.578 0.497 0.4111 0.359 0.4646 0.4877 0.4669 0.519 0.5855 0.5101 0.5361
2420.867 0.5597 0.5251 0.5048 0.417 0.4712 0.5176 0.5617 0.6298 0.6774 0.6476
2440.157 0.5648 0.4677 0.4038 0.4877 0.4838 0.5146 0.6532 0.6808 0.5967 0.5011
2459.447 0.4989 0.6367 0.6185 0.4432 0.4328 0.5151 0.5888 0.6195 0.5695 0.5242
2478.737 0.5045 0.5054 0.455 0.30128 0.3612 0.492 0.4539 0.5356 0.6187 0.5327
2498.026 0.487 0.4638 0.4322 0.4524 0.5213 0.6183 0.6203 0.6233 0.59 0.55
2517.316 0.5418 0.5565 0.5826 0.5597 0.5035 0.4886 0.5774 0.5681 0.4325 0.565
2536.606 0.6037 0.3998 0.4887 0.5991 0.59 0.6539 0.7122 0.6833 0.6523 0.6524
2555.896 0.6481 0.64 0.582 0.5105 0.5346 0.5625 0.6097 0.687 0.7373 0.7616
2575.186 0.7549 0.7387 0.8335 0.8381 0.6048 0.6642 0.898 0.9345 0.8272 0.813
2594.475 0.8571 0.9049 0.9792 0.8358 0.6545 0.6952 0.7842 0.7871 0.747 0.6965
2613.765 0.5634 0.5005 0.5773 0.5771 0.5468 0.5585 0.6807 0.6304 0.4754 0.5668
2633.055 0.5147 0.4891 0.6136 0.5416 0.4878 0.5564 0.609 0.5711 0.5743 0.5703
2652.345 0.4237 0.4244 0.4826 0.4656 0.5736 0.5347 0.5764 0.7306 0.5099 0.4121
2671.634 0.4561 0.3872 0.3989 0.3943 0.3679 0.30998 0.4531 0.5004 0.3909 0.4127
2690.924 0.398 0.5042 0.4771 0.3694 0.4362 0.463 0.3695 0.1876 0.25487 0.3908
2710.214 0.3599 0.25246 0.22423 0.4492 0.4777 0.452 0.5603 0.5285 0.5506 0.5134
2729.504 0.4788 0.4358 0.408 0.4349 0.29654 0.4032 0.5488 0.4753 0.4155 0.3373
2748.794 0.4545 0.5911 0.6207 0.603 0.6158 0.6195 0.5735 0.5237 0.5542 0.608
2768.083 0.5544 0.6007 0.6336 0.535 0.6143 0.7459 0.661 0.6553 0.7246 0.8159
2787.373 0.7109 0.4747 0.4944 0.4347 0.3491 0.5133 0.7817 0.8663 0.7175 0.7291
2806.663 0.8554 0.8756 0.8423 0.9297 0.9976 0.9722 0.9624 0.9974 1.1113 1.2248
2825.953 1.383 1.483 1.603 1.753 1.943 2.193 2.373 2.533 2.713 3.033
2845.242 3.313 3.313 3.183 3.113 2.953 2.743 2.663 2.583 2.343 2.223
2864.532 2.273 2.303 2.273 2.313 2.303 2.393 2.433 2.543 2.663 2.583
2883.822 2.733 2.903 2.973 2.963 2.933 2.823 2.873 2.973 2.973 3.203
2903.112 3.263 3.233 3.433 3.503 3.513 3.583 3.623 3.433 3.383 3.613
2922.401 3.753 3.813 3.853 4.003 4.253 4.333 4.483 4.863 5.053 5.323
2941.691 5.713 5.863 5.883 5.793 5.623 5.643 5.823 5.703 5.493 5.363
2960.981 5.323 5.303 4.943 4.733 4.503 4.063 3.983 3.733 3.253 3.123
2980.271 3.003 2.823 2.623 2.573 2.563 2.513 2.603 2.543 2.643 2.853
2999.561 2.933 2.983 3.333 3.523 3.293 3.433 3.713 3.663 3.483 3.263
3018.850 3.063 3.273 3.383 3.223 3.373 3.633 3.903 4.093 4.203 4.313
3038.140 4.353 4.223 3.903 3.723 3.573 3.313 3.183 3.043 2.943 3.123
3057.430 3.323 3.433 3.653 3.893 4.043 4.543 5.043 5.303 5.523 5.493
3076.720 5.153 4.733 4.183 3.683 3.603 3.403 3.123 3.133 3.033 2.803
3096.009 2.713 2.443 2.133 1.983 1.813 1.723 1.733 1.683 1.623 1.593
3115.299 1.483 1.303 1.0922 1.0737 1.1372 1.0629 0.9291 0.7559 0.5624 0.5854
3134.589 0.6634 0.5709 0.5878 0.7714 0.7363 0.5733 0.5049 0.5326 0.7257 0.6128
3153.879 0.32874 0.32739 0.3523 0.4818 0.6408 0.631 0.5556 0.6484 0.6431 0.3404
3173.169 0.3577 0.4179 0.24359 0.3839 0.4344 0.1646 0.1765 0.3679 0.29211 0.24717
3192.458 0.27025 0.4876 0.7468 0.4316 0.3998 0.6553 0.4481 0.25268 0.3613 0.4708
3211.748 0.4354 0.4766 0.5086 0.4536 0.2683 0.1649 0.4185 0.3765 0.29569 0.3764
3231.038 0.29473 0.3387 0.1796 0 0.1383 0.3563 0.1795 0.2619 0.31563 0.28159
3250.328 0.5324 0.5984 0.4876 0.21 0.1386 0.087 0.25242 0.3408 0.32165 0.32566
3269.617 0.1988 0.3769 0.4981 0.4854 0.33072 0.1644 0.3934 0.3434 0.26502 0.4842
3288.907 0.3612 0.240711 0.3571 0.3669 0.5347 0.5293 0.3928 0.3651 0.1981 0.1391
3308.197 0.31538 0.31475 0.2072 0.30361 0.4083 0.5094 0.5537 0.4499 0.33043 0.1903
3327.487 0.118 0.3728 0.3886 0.1964 0.236182 0.402 0.5479 0.639 0.604 0.4458
3346.777 0.373 0.4804 0.4395 0.3682 0.4102 0.28777 0.22939 0.3055 0.362 0.33282
3366.066 0.26168 0.4629 0.5456 0.3987 0.3583 0.2085 0.27774 0.3392 0.3541 0.4388
3385.356 0.5075 0.5366 0.4943 0.4376 0.4587 0.6073 0.5679 0.5338 0.4827 0.3762
3404.646 0.4433 0.4097 0.31531 0.27651 0.27844 0.25805 0.4412 0.5363 0.4289 0.3421
3423.936 0.4253 0.3745 0.1391 0.23223 0.2089 0.1604 0.3346 0.5466 0.5629 0.5073
3443.225 0.32834 0.055 0.25268 0.6861 0.6158 0.4658 0.5588 0.5096 0.4586 0.3912
3462.515 0.5031 0.7047 0.6226 0.6791 0.6812 0.4512 0.3518 0.3707 0.309 0.28209
3481.805 0.27109 0.338 0.617 0.7679 0.6749 0.7886 0.7894 0.7619 0.7452 0.5365
3501.095 0.7363 0.8441 0.667 0.5469 0.6058 0.6041 0.6633 0.8327 0.7435 0.5801
3520.385 0.4888 0.6598 0.7238 0.6794 0.7883 0.6265 0.4916 0.3825 0.1967 0.31126
3539.674 0.594 0.8042 0.8076 0.5893 0.543 0.7082 0.7955 0.6385 0.5988 0.9457
3558.964 1.1081 1.1947 1.2022 1.343 1.903 2.513 3.243 4.413 6.273 8.773
3578.254 12.273 16.103 18.843 19.963 19.213 16.973 13.393 9.193 5.893 3.833
3597.544 2.393 1.463 1.1158 0.9517 0.9031 0.8464 0.6031 0.6616 0.904 0.8819
3616.833 0.7922 0.8529 0.832 0.6273 0.6573 0.7421 0.5769 0.4516 0.5231 0.6505
3636.123 0.5544 0.4676 0.423 0.2045 0.233511 0.3745 0.5241 0.5255 0.5833 0.9161
3655.413 0.9041 0.6314 0.5126 0.5259 0.4868 0.2201 0.096 0.3685 0.4415 0.4668
3674.703 0.5015 0.4636 0.442 0.3134 0.32433 0.31657 0.28078 0.4372 0.4749 0.5145
3693.993 0.5173 0.32407 0.25482 0.3457 0.31936 0.22603 0.1815 0.4707 0.5615 0.25257
3713.282 0.25023 0.3521 0.3515 0.106 0.053 0.1739 0.3392 0.494 0.4495 0.4168
3732.572 0.3477 0.32875 0.2166 0.115 0.095 0.08 0.1977 0.3685 0.5202 0.3698
3751.862 0.24758 0.6021 0.695 0.5289 0.4376 0.4387 0.31 0.3227 0.5164 0.3931
3771.152 0.1571 0.31823 0.4308 0.1751 0.239337 0.4538 0.5229 0.4166 0.29676 0.4618
3790.441 0.503 0.4484 0.5251 0.651 0.5371 0.29542 0.2127 0.26316 0.2958 0.26224
3809.731 0.5152 0.5063 0.30827 0.4188 0.5449 0.30536 0.201 0.4346 0.5735 0.4661
3829.021 0.5129 0.546 0.3804 0.5048 0.5926 0.5331 0.4941 0.4922 0.4103 0.4509
3848.311 0.5711 0.4159 0.3737 0.263 0.30147 0.5899 0.5699 0.4028 0.24614 0.27559
3867.601 0.4401 0.5102 0.6206 0.7306 0.794 0.6285 0.5492 0.581 0.613 0.4753
3886.890 0.3434 0.4013 0.3576 0.3917 0.3525 0.4933 0.6725 0.6564 0.4602 0.3583
3906.180 0.5332 0.751 0.601 0.3945 0.31615 0.23949 0.6197 0.7538 0.5859 0.6365
3925.470 0.5199 0.4592 0.4712 0.4933 0.406 0.3492 0.5685 0.6703 0.5968 0.3778
3944.760 0.29818 0.4037 0.4307 0.4663 0.4349 0.3998 0.8024 0.9229 0.4526 0.5446
3964.049 0.9051 0.5495 0.315 0.3116 0.3425 0.5813 0.6616 0.6593 0.5564 0.5444
3983.339 0.5684 0.3389 0.29733 0.6362 0.8677 0.9027 0.8365 0.5517 0.4836 0.5118
##END=
