##TITLE=Tris(dipropylamino)phosphine
##JCAMP-DX=4.24
##DATA TYPE=INFRARED SPECTRUM
##ORIGIN=EPA-IR VAPOR PHASE LIBRARY
##OWNER=SRD/NIST
Collection (C) 2018 copyright by the U.S. Secretary of Commerce
on behalf of the United States of America. All rights reserved.
##CAS REGISTRY NO=5848-64-6
##MOLFORM=C 18 H 42 N 3 P
##$NIST SOURCE=MSDC-IR
##STATE=gas
##XUNITS=1/CM
##YUNITS=ABSORBANCE
##XFACTOR=1.
##YFACTOR=0.001
##DELTAX=1.92898
##FIRSTX=549.8
##LASTX=4000.7
##FIRSTY=1.377
##MAXX=4000.7
##MINX=549.759
##MAXY=0.107657
##MINY=0
##NPOINTS=1790
##XYDATA=(X++(Y..Y))
549.759 1.377 1.527 1.937 2.127 2.107 1.867 2.167 2.177 1.707 1.727
569.049 1.967 1.967 1.627 1.727 1.757 1.597 1.397 0.9486 0.8479 0.9981
588.339 1.2031 1.517 1.537 1.1554 1.0156 1.0603 1.0625 1.0937 1.1824 1.1044
607.628 1.1867 1.427 1.327 1.2349 1.2379 1.2346 1.467 1.937 2.067 2.157
626.918 2.607 2.807 2.807 2.647 2.797 3.147 3.427 3.597 3.777 3.997
646.208 4.167 4.377 4.357 4.467 4.857 5.337 5.787 6.057 6.417 6.847
665.498 7.327 7.867 8.397 8.907 9.497 10.257 10.857 11.227 11.657 12.217
684.787 12.757 13.447 14.217 14.817 15.417 15.847 16.267 16.727 17.247 17.567
704.077 17.707 17.977 18.197 18.217 18.007 17.477 16.507 15.557 14.827 13.887
723.367 12.587 11.377 10.187 9.117 8.397 7.737 7.107 6.677 6.507 6.167
742.657 5.947 5.897 5.717 5.447 5.357 5.207 5.117 4.977 4.817 4.857
761.947 4.737 4.697 4.757 4.847 4.987 5.187 5.407 5.587 5.867 6.227
781.236 6.407 6.327 6.087 6.017 5.747 5.307 4.967 4.487 3.927 3.687
800.526 3.337 2.987 3.007 2.897 2.907 2.947 2.877 2.817 2.717 3.137
819.816 3.527 3.537 3.857 4.017 4.007 4.137 4.287 4.697 5.047 5.307
839.106 5.897 6.307 6.567 6.757 7.097 7.457 7.747 8.227 8.797 9.817
858.395 10.867 12.057 13.287 14.187 15.157 15.767 15.707 15.147 14.167 13.187
877.685 12.397 11.707 10.967 10.337 9.907 9.567 9.307 9.037 8.857 8.667
896.975 8.197 7.857 7.557 7.037 6.597 6.197 5.877 5.657 5.257 4.767
916.265 4.667 4.757 4.707 4.807 4.927 4.977 5.047 5.347 5.837 6.017
935.555 6.177 6.527 7.067 7.837 8.577 9.427 10.387 11.677 13.507 15.237
954.844 17.127 19.797 22.977 26.377 30.007 33.737 37.547 41.327 44.727 47.517
974.134 50.107 51.837 52.127 51.507 49.847 47.217 44.067 40.387 36.487 32.937
993.424 29.437 26.187 23.497 21.207 19.027 16.777 15.157 14.227 13.277 12.467
1012.714 12.057 11.927 11.887 11.777 11.917 12.287 12.597 13.257 13.967 14.157
1032.003 14.387 14.567 14.427 13.667 12.897 12.327 11.577 11.177 10.507 9.727
1051.293 9.647 9.217 8.497 8.267 8.057 8.037 8.227 8.187 8.397 8.927
1070.583 9.447 9.837 9.847 10.207 10.767 10.797 11.217 11.767 12.037 12.057
1089.873 11.457 11.057 11.037 11.147 11.107 10.727 10.457 9.997 9.597 9.897
1109.163 9.867 9.437 8.567 7.787 7.417 7.187 6.967 6.557 6.537 6.897
1128.452 6.647 6.457 7.047 7.277 7.597 8.257 9.317 10.857 11.477 12.037
1147.742 13.207 13.937 15.027 16.027 16.807 18.207 19.997 21.717 23.627 26.037
1167.032 28.437 30.367 31.697 32.767 33.187 32.357 30.747 28.397 25.517 22.257
1186.322 18.987 16.017 13.267 11.267 9.647 8.087 7.427 7.067 6.447 6.037
1205.611 5.547 5.317 5.237 4.937 4.937 4.747 4.387 4.407 4.257 4.147
1224.901 3.957 3.737 3.987 4.157 4.197 4.377 4.567 4.787 5.027 5.377
1244.191 5.737 6.217 6.867 7.237 7.407 7.547 7.517 7.517 7.347 7.047
1263.481 7.167 7.107 6.857 6.777 6.587 6.457 6.127 5.887 5.737 5.577
1282.771 5.617 5.477 5.437 5.647 5.807 5.937 5.917 5.847 5.957 6.007
1302.060 5.947 5.737 5.517 5.347 5.147 4.947 4.757 4.627 4.557 4.537
1321.350 4.567 4.677 4.847 4.957 5.097 5.267 5.357 5.467 5.537 5.647
1340.640 5.917 6.217 6.487 6.757 7.037 7.367 7.777 8.167 8.607 9.097
1359.930 9.467 9.757 10.047 10.307 10.457 10.577 10.777 11.147 11.787 12.647
1379.219 13.517 13.997 13.697 12.677 11.087 9.437 8.027 6.767 5.797 5.177
1398.509 4.717 4.457 4.217 3.917 3.797 3.747 3.627 3.617 3.667 3.627
1417.799 3.607 3.667 3.807 3.887 3.957 4.127 4.427 4.717 5.057 5.367
1437.089 5.807 6.567 7.337 8.017 8.647 9.317 10.157 11.107 12.037 12.867
1456.378 13.627 14.667 15.627 16.287 16.807 16.997 16.657 15.717 14.107 12.257
1475.668 10.347 8.537 7.207 6.167 5.427 4.827 4.207 3.757 3.547 3.347
1494.958 3.117 2.907 2.857 2.787 2.617 2.417 2.137 2.007 2.037 2.057
1514.248 1.967 1.837 1.797 1.667 1.667 1.737 1.667 1.697 1.717 1.637
1533.538 1.577 1.607 1.577 1.437 1.2756 1.2608 1.327 1.397 1.367 1.357
1552.827 1.3069 1.258 1.3015 1.1962 1.1841 1.2916 1.3112 1.2283 1.1807 1.1881
1572.117 1.2103 1.1679 1.1419 1.1752 1.1643 1.1229 1.1525 1.2468 1.2124 1.1854
1591.407 1.1462 1.0425 0.9893 1.0105 1.0128 1.0082 1.0585 1.0199 0.9841 0.9579
1610.697 0.9574 0.9875 1.0295 1.0536 1.0132 0.9882 0.9974 1.0027 1.0276 1.0567
1629.986 1.0784 1.0697 0.9825 0.9265 0.9292 0.9525 0.9614 0.9657 0.8968 0.7954
1649.276 0.874 0.8859 0.6989 0.7595 0.8954 0.8929 0.9311 0.9109 0.8781 0.872
1668.566 0.8768 0.9373 0.9669 0.8731 0.7919 0.85 0.8664 0.8123 0.719 0.7915
1687.856 0.8227 0.7964 0.7822 0.7125 0.682 0.6954 0.6126 0.6126 0.7203 0.644
1707.146 0.6099 0.656 0.7189 0.7138 0.6102 0.5784 0.6314 0.6815 0.7066 0.7359
1726.435 0.7314 0.656 0.6344 0.5606 0.4924 0.6202 0.6327 0.6215 0.6382 0.5563
1745.725 0.559 0.5911 0.5113 0.4578 0.5869 0.5881 0.5303 0.5507 0.4904 0.5129
1765.015 0.5583 0.4611 0.4377 0.4684 0.4776 0.5023 0.4744 0.5126 0.4972 0.4658
1784.305 0.4388 0.38235 0.40854 0.4365 0.4321 0.4447 0.4683 0.4963 0.4477 0.4613
1803.594 0.5188 0.5312 0.532 0.5085 0.5228 0.5039 0.504 0.5741 0.5933 0.4803
1822.884 0.4227 0.4439 0.5035 0.5381 0.5445 0.5068 0.4885 0.5438 0.5121 0.5086
1842.174 0.473 0.4343 0.4699 0.5063 0.5315 0.5407 0.5825 0.5691 0.4967 0.4936
1861.464 0.5603 0.5488 0.5647 0.6013 0.5736 0.5751 0.5433 0.5248 0.4892 0.4724
1880.754 0.5378 0.5604 0.5627 0.6027 0.5413 0.4984 0.5237 0.5144 0.537 0.5236
1900.043 0.5098 0.5499 0.5196 0.4835 0.4603 0.5199 0.5712 0.5179 0.4824 0.4272
1919.333 0.4911 0.5433 0.5043 0.4593 0.4723 0.5343 0.504 0.5092 0.5593 0.5677
1938.623 0.5714 0.504 0.4701 0.4516 0.4078 0.482 0.5169 0.4769 0.474 0.4672
1957.913 0.5289 0.5519 0.4869 0.4829 0.5423 0.5164 0.5102 0.5235 0.5122 0.5302
1977.202 0.5572 0.5571 0.5228 0.4973 0.4954 0.4691 0.4607 0.5305 0.4943 0.4328
1996.492 0.4746 0.5524 0.5903 0.6109 0.6035 0.5926 0.5027 0.4531 0.5129 0.5366
2015.782 0.5876 0.6433 0.6511 0.6334 0.5743 0.5785 0.6481 0.6772 0.6504 0.6614
2035.072 0.6825 0.6368 0.6207 0.6488 0.6902 0.6404 0.6385 0.6973 0.6715 0.6484
2054.362 0.6421 0.6373 0.6606 0.6523 0.6533 0.6461 0.5969 0.5721 0.5955 0.6256
2073.651 0.6606 0.6964 0.6765 0.6776 0.6421 0.5952 0.5742 0.5533 0.608 0.6352
2092.941 0.6391 0.6724 0.6349 0.5964 0.6779 0.6846 0.6498 0.6667 0.7002 0.6727
2112.231 0.6107 0.6498 0.6502 0.6179 0.641 0.6932 0.7416 0.7329 0.6577 0.6624
2131.521 0.6954 0.6514 0.6533 0.7137 0.7365 0.7132 0.6898 0.704 0.728 0.7492
2150.810 0.7308 0.7363 0.8122 0.758 0.7104 0.7852 0.825 0.857 0.8064 0.7393
2170.100 0.8275 0.8789 0.766 0.6975 0.6992 0.7209 0.7655 0.8477 0.8544 0.8024
2189.390 0.8474 0.8088 0.7296 0.7388 0.8094 0.883 0.9163 0.8377 0.7859 0.7978
2208.680 0.7463 0.7145 0.7588 0.7615 0.6961 0.6956 0.6144 0.5902 0.6904 0.6682
2227.970 0.6756 0.7257 0.7478 0.7677 0.6974 0.6821 0.7551 0.8087 0.7536 0.6714
2247.259 0.7424 0.7637 0.6849 0.6625 0.6736 0.7043 0.7458 0.6857 0.6774 0.7238
2266.549 0.7157 0.6907 0.6293 0.6565 0.7149 0.6945 0.7028 0.6973 0.6741 0.7841
2285.839 0.7792 0.6798 0.7051 0.66 0.6091 0.5812 0.4842 0.5476 0.6382 0.6224
2305.129 0.7187 0.7985 0.714 0.7286 0.7689 0.7168 0.7818 0.8641 0.8126 0.8255
2324.418 0.9077 0.9507 1.0294 0.9572 0.9083 0.9944 1.0199 0.9995 0.9765 0.9068
2343.708 0.9276 0.9831 0.9517 0.9114 0.8569 0.8974 0.9317 0.8948 0.854 0.7782
2362.998 0.7489 0.801 0.8923 0.8902 0.7806 0.7251 0.6763 0.6625 0.7364 0.8314
2382.288 0.8223 0.7108 0.6757 0.7511 0.7859 0.8051 0.8004 0.7778 0.7521 0.7889
2401.578 0.8185 0.7999 0.8037 0.746 0.7064 0.678 0.6074 0.6192 0.6421 0.5934
2420.867 0.5791 0.6204 0.6479 0.6054 0.5718 0.6309 0.651 0.5743 0.5778 0.5875
2440.157 0.6092 0.636 0.6489 0.6568 0.6632 0.659 0.5913 0.6006 0.653 0.6601
2459.447 0.655 0.6057 0.5631 0.6204 0.686 0.6723 0.6293 0.6406 0.6022 0.6214
2478.737 0.6751 0.6208 0.5717 0.5378 0.5624 0.6306 0.595 0.5534 0.6093 0.646
2498.026 0.594 0.5646 0.6041 0.5674 0.5374 0.5764 0.5968 0.5786 0.6029 0.6084
2517.316 0.5271 0.5633 0.6835 0.7491 0.7856 0.7564 0.6575 0.6489 0.6727 0.6819
2536.606 0.7426 0.7389 0.7673 0.7516 0.7469 0.8394 0.8955 0.9299 0.948 0.8988
2555.896 0.923 1.0061 0.9523 0.9529 0.9224 0.9344 1.0874 1.0629 1.0009 1.0979
2575.186 1.1324 1.0656 1.0782 1.1615 1.1709 1.1956 1.2516 1.2323 1.2199 1.2552
2594.475 1.317 1.377 1.387 1.377 1.347 1.377 1.457 1.417 1.427 1.467
2613.765 1.517 1.577 1.567 1.647 1.747 1.687 1.577 1.617 1.817 1.807
2633.055 1.637 1.647 1.767 1.787 1.817 1.977 2.017 1.977 1.997 1.987
2652.345 2.057 2.117 2.147 2.157 2.097 2.097 2.057 2.087 2.187 2.147
2671.634 2.257 2.317 2.367 2.437 2.357 2.417 2.557 2.527 2.487 2.567
2690.924 2.687 2.917 2.917 2.917 3.037 3.047 3.097 3.197 3.317 3.447
2710.214 3.687 3.827 3.807 3.887 3.987 4.087 4.147 4.127 4.187 4.367
2729.504 4.487 4.477 4.547 4.567 4.567 4.627 4.657 4.697 4.787 4.747
2748.794 4.687 4.637 4.597 4.587 4.617 4.627 4.627 4.687 4.687 4.737
2768.083 4.747 4.777 4.857 4.927 5.007 5.147 5.367 5.507 5.707 5.987
2787.373 6.267 6.607 6.937 7.227 7.587 8.027 8.527 9.077 9.687 10.377
2806.663 11.017 11.867 12.847 13.887 15.007 16.117 17.517 19.037 20.557 22.107
2825.953 23.697 25.277 26.797 28.287 29.607 30.707 31.577 32.097 32.367 32.387
2845.242 32.267 31.857 31.177 30.547 30.097 29.807 29.677 29.777 30.127 30.787
2864.532 31.807 33.177 34.827 37.197 40.387 44.027 47.937 51.757 54.417 54.957
2883.822 53.217 49.957 46.387 42.917 40.137 38.277 36.977 36.357 36.237 36.387
2903.112 36.777 37.347 38.047 38.807 39.587 40.337 41.207 41.977 42.627 43.357
2922.401 44.107 45.117 46.537 48.517 51.237 54.627 58.737 63.137 66.527 67.957
2941.691 67.337 64.987 61.617 58.557 56.917 57.227 60.067 65.587 73.287 82.447
2960.981 91.857 99.867 105.407 107.657 105.677 99.297 89.207 77.197 65.127 54.237
2980.271 45.237 38.067 32.407 27.857 24.277 21.417 19.107 17.357 15.827 14.357
2999.561 13.237 12.447 11.757 11.057 10.267 9.597 9.237 8.807 8.297 8.057
3018.850 7.707 7.307 6.967 6.717 6.547 6.247 6.007 5.837 5.697 5.477
3038.140 5.147 4.997 4.897 4.667 4.537 4.437 4.237 4.087 3.917 3.837
3057.430 3.757 3.647 3.507 3.407 3.367 3.207 3.117 3.147 3.087 3.057
3076.720 3.057 2.917 2.727 2.677 2.607 2.617 2.737 2.687 2.507 2.377
3096.009 2.397 2.387 2.327 2.337 2.367 2.237 2.137 2.127 2.127 2.127
3115.299 2.057 1.967 1.817 1.777 1.887 1.847 1.777 1.757 1.757 1.767
3134.589 1.697 1.677 1.627 1.487 1.577 1.687 1.557 1.487 1.627 1.637
3153.879 1.577 1.627 1.647 1.527 1.527 1.597 1.487 1.457 1.437 1.567
3173.169 1.607 1.417 1.327 1.248 1.1566 1.08 1.1424 1.2906 1.2815 1.1181
3192.458 0.9892 1.079 1.1145 1.02 1.0434 0.9295 0.8418 0.8753 0.9299 0.9424
3211.748 0.8116 0.6997 0.7246 0.6789 0.5544 0.596 0.6589 0.7327 0.7747 0.7789
3231.038 0.627 0.4875 0.6631 0.7233 0.5659 0.573 0.6425 0.6805 0.6597 0.6545
3250.328 0.7716 0.7056 0.4793 0.40147 0.4363 0.5476 0.6275 0.6295 0.6635 0.5835
3269.617 0.6264 0.7411 0.8534 0.8555 0.7661 0.7035 0.6301 0.693 0.6486 0.6063
3288.907 0.6389 0.6152 0.5635 0.4605 0.4714 0.6815 0.7535 0.6197 0.5248 0.4854
3308.197 0.5584 0.5456 0.4367 0.41312 0.34872 0.30749 0.317782 0.4413 0.5925 0.5838
3327.487 0.5809 0.5887 0.5027 0.4966 0.5094 0.5712 0.6894 0.6438 0.35253 0.32549
3346.777 0.4194 0.40069 0.5251 0.4769 0.38612 0.468 0.5849 0.5336 0.39416 0.32989
3366.066 0.2831 0.39095 0.5808 0.5472 0.39065 0.31201 0.4293 0.3893 0.26 0.4371
3385.356 0.7048 0.6037 0.5173 0.5297 0.37172 0.4864 0.5572 0.4196 0.37892 0.4445
3404.646 0.4803 0.38105 0.3061 0.4234 0.5455 0.4781 0.38372 0.320184 0.4396 0.6077
3423.936 0.5053 0.4301 0.4349 0.3378 0.318547 0.35765 0.40327 0.35055 0.35801 0.39779
3443.225 0.31402 0.37409 0.34871 0.34781 0.37667 0.41477 0.5381 0.4988 0.4025 0.4299
3462.515 0.5248 0.437 0.4368 0.4377 0.4219 0.44 0.4094 0.4575 0.2647 0.153
3481.805 0.2878 0.2377 0.32729 0.41162 0.39028 0.4731 0.38198 0.2696 0.2322 0.2609
3501.095 0.2345 0.3201 0.36443 0.37027 0.41203 0.40799 0.4263 0.35297 0.2866 0.319216
3520.385 0.40485 0.2385 0.158 0.108 0.164 0.323732 0.2887 0.33189 0.437 0.41458
3539.674 0.3446 0.36068 0.212 0.141 0.2784 0.2742 0.2438 0.317316 0.5323 0.4946
3558.964 0.203 0.14 0.2839 0.320884 0.2681 0.37533 0.36707 0.4346 0.4603 0.322841
3578.254 0.36359 0.41464 0.2595 0.177 0.087 0.021 0 0.135 0.33186 0.4176
3597.544 0.5642 0.5249 0.4906 0.4954 0.4577 0.321945 0.299 0.34626 0.188 0.193
3616.833 0.38706 0.38642 0.37042 0.5021 0.5769 0.40274 0.096 0.136 0.4664 0.5399
3636.123 0.33833 0.459 0.6102 0.4852 0.37882 0.37361 0.34329 0.30959 0.2898 0.36926
3655.413 0.5133 0.4568 0.5416 0.628 0.5006 0.39533 0.273 0.199 0.34078 0.424
3674.703 0.4366 0.4296 0.2989 0.323354 0.4394 0.4435 0.4651 0.35813 0.4455 0.5108
3693.993 0.36598 0.4275 0.489 0.519 0.5306 0.4481 0.462 0.571 0.4543 0.36403
3713.282 0.34978 0.35405 0.37572 0.2759 0.2868 0.37181 0.36585 0.2683 0.37846 0.4845
3732.572 0.4321 0.202 0.195 0.5019 0.5577 0.6125 0.4709 0.33586 0.36378 0.4549
3751.862 0.6712 0.6362 0.4481 0.40681 0.4311 0.5352 0.478 0.4642 0.5642 0.5105
3771.152 0.565 0.65 0.6029 0.6037 0.7338 0.6566 0.5037 0.4507 0.5985 0.6244
3790.441 0.5271 0.4328 0.36322 0.5223 0.5654 0.5949 0.6494 0.6878 0.6688 0.5256
3809.731 0.6381 0.8756 0.8333 0.6643 0.6266 0.6379 0.5446 0.5233 0.6068 0.5894
3829.021 0.5141 0.4653 0.5309 0.5876 0.4419 0.37811 0.4609 0.4661 0.4486 0.5023
3848.311 0.5806 0.5624 0.5401 0.6324 0.6639 0.571 0.4825 0.5004 0.4228 0.4513
3867.601 0.599 0.4769 0.39097 0.5306 0.6269 0.40723 0.34038 0.40239 0.31193 0.204
3886.890 0.2172 0.37409 0.2363 0.103 0.4372 0.5029 0.197 0.155 0.2837 0.35407
3906.180 0.35589 0.40025 0.38438 0.4801 0.5621 0.39908 0.2636 0.318968 0.33819 0.35913
3925.470 0.39317 0.4328 0.5409 0.5061 0.4834 0.5435 0.5437 0.5868 0.6093 0.5668
3944.760 0.5459 0.5235 0.5491 0.5183 0.56 0.5987 0.4278 0.5095 0.6314 0.4288
3964.049 0.5018 0.7525 0.7192 0.7196 0.7167 0.7289 0.6848 0.6883 0.7383 0.5585
3983.339 0.5218 0.5931 0.6882 0.8015 0.806 0.8482 0.8183 0.7837 0.8895 0.8185
##END=
