##TITLE=m-Bromobenzoic acid
##JCAMP-DX=4.24
##DATA TYPE=INFRARED SPECTRUM
##ORIGIN=NIST Mass Spectrometry Data Center
##OWNER=NIST Standard Reference Data Program
Collection (C) 2018 copyright by the U.S. Secretary of Commerce
on behalf of the United States of America. All rights reserved.
##CAS REGISTRY NO=585-76-2
##MOLFORM=C 7 H 5 Br O 2
##$NIST SOURCE=MSDC-IR
##SPECTROMETER/DATA SYSTEM=HP-GC/MS/IRD
##STATE=gas
##XUNITS=1/CM
##YUNITS=ABSORBANCE
##XFACTOR=1.0
##YFACTOR=0.000002300
##DELTAX=4.0
##FIRSTX=550.0
##LASTX=3846.0
##FIRSTY=0.001065
##MAXX=3846
##MINX=550
##MAXY=0.023
##MINY=0
##NPOINTS=825
##XYDATA=(X++(Y..Y))
550.0 463 897 836 932 1059 1206 1415 1578 1501 1282
590.0 1012 792 546 390 333 310 351 504 914 1436
630.0 1648 1496 1169 694 349 270 326 549 1094 1757
670.0 2080 2022 1480 770 405 272 169 111 93 86
710.0 108 146 177 236 355 586 940 1367 1836 2320
750.0 2341 1912 1471 997 625 446 360 315 317 329
790.0 351 406 472 528 536 442 310 200 88 54
830.0 69 57 51 28 30 31 22 44 65 42
870.0 23 30 23 32 67 78 99 141 151 126
910.0 118 95 65 56 52 42 7 14 14 0
950.0 11 17 28 40 34 29 28 50 62 58
990.0 80 111 124 158 189 126 73 89 135 167
1030.0 187 257 330 449 626 811 1050 1325 1565 1735
1070.0 1828 1840 1855 2037 2363 2587 2563 2233 1709 1352
1110.0 1207 1086 999 914 834 811 809 863 971 1080
1150.0 1171 1375 1765 2355 2987 3672 4358 4655 4532 3985
1190.0 3172 2457 1868 1328 942 758 700 688 673 625
1230.0 587 581 580 595 638 685 699 693 655 603
1270.0 570 541 554 644 769 887 980 1065 1167 1308
1310.0 1497 1649 1654 1519 1259 981 822 799 879 1069
1350.0 1370 1654 1745 1614 1287 920 698 577 502 456
1390.0 409 375 356 371 451 603 798 1000 1125 1074
1430.0 859 562 330 232 198 183 182 199 245 309
1470.0 377 426 432 387 297 200 136 99 69 36
1510.0 34 38 40 41 41 51 76 106 136 193
1550.0 272 372 500 687 869 966 935 796 609 419
1590.0 301 234 195 175 150 122 98 93 98 94
1630.0 89 79 72 63 61 55 50 69 85 98
1670.0 105 96 90 91 95 110 148 194 277 377
1710.0 480 583 624 611 596 576 607 752 1078 1714
1750.0 2941 5174 8025 9818 10000 8297 4942 2406 1269 752
1790.0 548 463 443 477 538 589 599 523 409 300
1830.0 211 154 115 97 94 83 73 72 72 67
1870.0 70 87 97 107 127 147 155 142 119 86
1910.0 60 32 28 42 41 44 47 50 61 62
1950.0 56 58 51 43 52 58 51 47 45 40
1990.0 37 30 34 36 29 19 21 24 11 5
2030.0 11 14 18 23 23 17 14 16 13 10
2070.0 7 1 1 9 16 14 13 13 8 8
2110.0 11 11 13 10 10 16 21 31 43 33
2150.0 29 28 22 25 27 26 41 42 29 27
2190.0 23 6 10 21 9 6 14 8 13 20
2230.0 22 24 19 10 11 18 8 10 25 24
2270.0 23 26 21 18 10 6 28 33 8 2
2310.0 13 21 29 17 15 28 28 34 32 30
2350.0 23 17 21 21 23 27 32 30 28 30
2390.0 31 30 31 28 20 32 40 29 29 37
2430.0 38 23 15 27 40 39 19 9 21 18
2470.0 17 17 27 48 43 31 35 26 26 35
2510.0 26 27 32 24 17 25 38 33 30 35
2550.0 32 28 34 31 25 26 22 32 18 0
2590.0 14 23 40 56 47 31 24 13 2 9
2630.0 11 10 13 1 3 23 33 39 29 19
2670.0 21 29 27 9 5 16 29 29 21 34
2710.0 33 30 38 41 35 16 19 28 23 24
2750.0 16 22 23 15 24 12 13 30 37 32
2790.0 12 0 25 48 31 11 12 18 26 26
2830.0 30 37 39 40 42 51 45 36 37 42
2870.0 50 48 44 44 57 59 50 42 34 32
2910.0 33 32 31 41 35 40 51 38 36 29
2950.0 27 42 48 33 24 33 36 24 16 23
2990.0 33 37 37 53 72 72 63 48 56 59
3030.0 47 55 48 33 39 58 79 97 129 172
3070.0 230 284 292 279 246 200 174 138 86 82
3110.0 86 74 69 62 51 48 41 40 55 57
3150.0 53 44 44 47 45 65 76 65 49 31
3190.0 19 16 14 30 34 35 40 30 39 45
3230.0 44 30 26 49 52 47 42 37 34 29
3270.0 42 36 23 25 20 38 56 37 19 17
3310.0 24 25 24 39 63 60 32 12 19 20
3350.0 30 53 45 20 21 27 36 48 54 55
3390.0 35 25 45 60 62 40 43 64 57 33
3430.0 11 52 79 69 55 44 83 81 54 72
3470.0 78 61 54 51 68 102 101 92 116 157
3510.0 169 158 137 113 89 74 82 93 109 97
3550.0 114 178 247 348 582 1054 1835 2757 3259 3069
3590.0 2337 1319 583 281 170 139 107 80 103 103
3630.0 85 61 56 51 49 47 56 60 50 58
3670.0 62 40 40 60 46 52 49 8 8 49
3710.0 82 77 65 85 93 62 32 31 33 61
3750.0 67 58 67 51 53 56 57 48 24 17
3790.0 21 23 34 51 45 22 16 11 13 33
3830.0 57 55 43 36 30
##END=
