##TITLE=5-Bromofuroic acid
##JCAMP-DX=4.24
##DATA TYPE=INFRARED SPECTRUM
##ORIGIN=NIST Mass Spectrometry Data Center
##OWNER=NIST Standard Reference Data Program
Collection (C) 2018 copyright by the U.S. Secretary of Commerce
on behalf of the United States of America. All rights reserved.
##CAS REGISTRY NO=585-70-6
##MOLFORM=C 5 H 3 Br O 3
##$NIST SOURCE=MSDC-IR
##SPECTROMETER/DATA SYSTEM=HP-GC/MS/IRD
##STATE=gas
##XUNITS=1/CM
##YUNITS=ABSORBANCE
##XFACTOR=1.0
##YFACTOR=0.000004300
##DELTAX=4.0
##FIRSTX=550.0
##LASTX=3846.0
##FIRSTY=0.001088
##MAXX=3846
##MINX=550
##MAXY=0.043
##MINY=0
##NPOINTS=825
##XYDATA=(X++(Y..Y))
550.0 253 295 146 187 201 221 252 256 256 244
590.0 218 205 196 185 210 230 217 231 264 280
630.0 302 322 299 247 198 144 90 60 57 77
670.0 120 225 464 1078 1857 2170 2181 1793 1011 498
710.0 293 196 147 122 130 154 229 375 590 857
750.0 1125 1375 1522 1422 1181 985 818 712 691 725
790.0 843 938 824 641 486 324 181 85 32 7
830.0 4 12 33 54 60 57 51 50 50 48
870.0 40 35 36 33 36 43 44 44 64 111
910.0 198 348 579 783 870 973 992 900 808 708
950.0 584 401 255 172 123 97 94 108 133 185
990.0 282 429 615 892 1191 1310 1321 1264 1075 838
1030.0 628 466 342 266 236 235 259 323 430 602
1070.0 859 1260 1935 3021 4632 6645 8281 8740 8010 6129
1110.0 3825 2281 1527 1212 1121 1119 1127 1059 958 831
1150.0 643 480 377 329 319 340 426 622 960 1439
1190.0 1972 2370 2538 2502 2185 1770 1450 1118 841 671
1230.0 551 484 461 456 455 470 504 563 637 722
1270.0 814 900 940 931 874 778 699 671 679 733
1310.0 843 971 1069 1110 1118 1071 949 839 831 893
1350.0 1009 1220 1476 1716 1952 2036 1863 1526 1083 663
1390.0 440 326 255 226 186 161 142 122 143 179
1430.0 210 243 335 519 769 1186 1774 2700 3940 5279
1470.0 6228 6284 5405 3849 2137 965 494 314 223 145
1510.0 111 126 99 68 63 57 50 39 35 69
1550.0 110 144 193 342 535 741 941 1110 1183 1151
1590.0 1033 802 546 335 208 148 111 93 90 95
1630.0 105 98 98 100 85 61 48 65 58 41
1670.0 31 34 51 60 93 148 179 187 219 280
1710.0 331 348 375 439 496 559 699 978 1474 2472
1750.0 4501 7322 9265 10000 9472 7538 6253 5926 5934 5435
1790.0 4081 2820 1777 989 619 463 376 336 314 284
1830.0 250 224 198 157 124 112 98 79 65 53
1870.0 57 81 95 100 93 75 68 64 60 52
1910.0 47 37 25 17 16 21 23 15 11 13
1950.0 13 12 11 11 10 13 14 10 6 3
1990.0 0 3 9 14 16 16 23 33 46 52
2030.0 53 52 47 45 44 35 25 23 17 15
2070.0 16 12 12 16 17 15 10 7 5 7
2110.0 10 10 5 4 11 19 32 40 42 45
2150.0 43 35 32 32 34 31 32 34 33 35
2190.0 38 37 37 36 30 27 20 12 13 17
2230.0 17 12 10 9 6 9 13 11 14 18
2270.0 22 22 20 20 22 24 28 27 25 31
2310.0 36 41 50 51 48 45 44 40 37 38
2350.0 39 47 57 61 59 55 49 39 29 24
2390.0 23 23 21 23 25 23 27 30 31 32
2430.0 32 30 26 31 29 31 35 32 34 39
2470.0 36 34 37 41 40 29 22 23 22 21
2510.0 17 17 14 14 18 14 12 10 8 10
2550.0 15 20 20 18 16 15 19 21 22 25
2590.0 30 38 41 43 43 41 38 30 19 12
2630.0 6 3 6 9 13 14 16 17 18 18
2670.0 23 30 35 38 36 36 40 38 36 31
2710.0 26 21 19 27 27 21 22 18 15 16
2750.0 13 12 10 14 14 18 24 29 30 29
2790.0 32 29 26 23 24 24 19 21 25 29
2830.0 30 32 37 38 37 37 27 20 23 23
2870.0 23 19 15 14 20 19 16 19 22 18
2910.0 18 25 22 19 21 27 26 28 34 30
2950.0 29 25 21 20 15 15 18 16 13 10
2990.0 7 5 6 11 16 16 22 22 14 11
3030.0 12 22 34 35 33 34 39 44 39 35
3070.0 39 32 29 25 15 11 16 20 14 16
3110.0 14 19 29 23 26 36 32 33 42 41
3150.0 38 34 30 30 33 33 25 19 21 25
3190.0 21 8 7 20 22 18 17 20 20 23
3230.0 32 35 35 39 32 24 25 20 12 6
3270.0 4 9 9 15 20 14 5 6 9 20
3310.0 22 18 16 22 19 20 26 26 35 33
3350.0 27 29 26 27 27 23 30 28 13 13
3390.0 18 22 26 28 31 31 31 21 17 14
3430.0 13 23 29 29 29 39 48 46 45 41
3470.0 48 50 48 53 56 59 75 90 89 91
3510.0 92 90 96 82 72 88 98 110 110 101
3550.0 130 159 211 309 482 881 1598 2581 3412 3691
3590.0 3350 2439 1378 680 354 205 131 74 63 47
3630.0 22 38 54 55 25 3 18 34 47 36
3670.0 18 9 23 36 16 11 28 34 34 42
3710.0 25 14 21 4 4 7 0 0 0 0
3750.0 0 3 13 17 23 27 33 29 24 23
3790.0 21 19 14 8 16 28 25 19 19 27
3830.0 27 15 15 20 28
##END=
