##TITLE=1,4-Diisopropyl-2-methylbenzene
##JCAMP-DX=4.24
##DATA TYPE=INFRARED SPECTRUM
##ORIGIN=NIST Mass Spectrometry Data Center
##OWNER=NIST Standard Reference Data Program
Collection (C) 2018 copyright by the U.S. Secretary of Commerce
on behalf of the United States of America. All rights reserved.
##CAS REGISTRY NO=58502-85-5
##MOLFORM=C 13 H 20
##$NIST SOURCE=MSDC-IR
##SPECTROMETER/DATA SYSTEM=HP-GC/MS/IRD
##STATE=gas
##XUNITS=1/CM
##YUNITS=ABSORBANCE
##XFACTOR=1.0
##YFACTOR=0.000005700
##DELTAX=4.0
##FIRSTX=550.0
##LASTX=3846.0
##FIRSTY=0.000661
##MAXX=3846
##MINX=550
##MAXY=0.057
##MINY=0
##NPOINTS=825
##XYDATA=(X++(Y..Y))
550.0 116 54 2 0 12 35 51 58 68 71
590.0 83 93 110 161 235 316 394 415 353 263
630.0 167 97 68 55 31 16 14 19 22 20
670.0 30 37 38 38 35 25 16 6 1 10
710.0 9 4 9 14 11 11 15 15 19 20
750.0 14 10 8 15 20 18 19 24 29 33
790.0 37 53 83 145 242 391 586 786 943 862
830.0 625 415 244 145 107 89 88 106 136 184
870.0 247 309 344 308 232 161 103 72 61 63
910.0 74 87 103 142 185 207 198 167 125 87
950.0 55 43 49 54 59 72 86 98 117 143
990.0 168 178 173 156 133 113 113 114 115 126
1030.0 129 143 170 221 276 323 359 390 455 540
1070.0 595 583 521 468 462 487 510 499 451 377
1110.0 293 233 195 168 152 146 138 134 135 124
1150.0 108 96 87 87 102 132 152 149 124 88
1190.0 64 58 67 79 89 94 92 88 87 97
1230.0 111 118 119 113 109 106 109 115 133 156
1270.0 173 186 201 224 254 275 271 256 255 286
1310.0 340 405 455 474 467 447 436 436 415 396
1350.0 395 421 495 599 692 725 703 681 669 657
1390.0 607 531 463 445 481 528 560 567 531 488
1430.0 473 491 534 595 689 801 928 1039 1091 1087
1470.0 1041 961 878 850 884 940 996 1061 1091 1045
1510.0 885 644 438 313 238 196 172 161 161 158
1550.0 150 154 164 157 148 145 138 124 111 107
1590.0 112 130 162 207 255 281 272 226 166 117
1630.0 93 89 90 92 94 93 84 65 55 53
1670.0 52 47 45 50 47 36 37 46 39 30
1710.0 30 37 43 37 37 51 64 66 74 94
1750.0 113 117 117 109 95 77 51 35 35 32
1790.0 30 27 26 26 21 22 22 22 24 30
1830.0 31 27 24 27 29 26 23 23 27 34
1870.0 44 49 61 74 82 83 74 59 44 32
1910.0 25 25 25 22 18 16 14 15 15 13
1950.0 13 12 9 7 7 8 5 6 8 9
1990.0 12 12 10 8 6 5 11 12 10 10
2030.0 6 7 11 9 8 9 8 7 7 7
2070.0 5 5 4 5 7 7 8 9 8 8
2110.0 7 4 5 8 8 7 5 6 7 7
2150.0 7 4 4 5 4 3 1 2 2 0
2190.0 0 1 1 2 5 8 9 8 7 10
2230.0 11 10 11 10 9 10 9 10 11 11
2270.0 8 8 9 7 7 8 10 11 11 13
2310.0 14 15 13 12 11 11 8 7 11 11
2350.0 10 10 13 13 14 17 20 24 22 19
2390.0 18 18 16 15 17 17 18 15 12 12
2430.0 8 13 15 15 16 15 17 20 22 24
2470.0 22 21 22 22 21 20 18 18 17 14
2510.0 16 15 13 14 13 16 15 13 14 18
2550.0 22 23 25 27 28 28 33 42 44 48
2590.0 55 56 54 49 44 42 39 39 42 42
2630.0 36 34 33 34 35 34 33 34 35 35
2670.0 39 45 43 44 48 47 47 50 53 60
2710.0 71 85 99 111 122 126 127 130 129 124
2750.0 120 122 127 128 128 127 122 118 123 130
2790.0 134 145 163 180 196 216 237 254 270 285
2830.0 301 322 360 418 489 584 707 868 1088 1401
2870.0 1820 2280 2651 2814 2762 2602 2463 2403 2406 2448
2910.0 2510 2593 2724 2933 3246 3641 4030 4269 4275 4150
2950.0 4183 4814 6451 8566 10000 9935 8214 5946 4136 2942
2990.0 2248 1857 1642 1526 1468 1436 1399 1337 1237 1113
3030.0 994 907 852 815 783 741 702 669 634 601
3070.0 568 525 486 449 408 372 339 322 310 296
3110.0 291 283 267 245 222 195 173 157 143 137
3150.0 132 129 127 127 128 127 123 125 126 117
3190.0 113 113 109 110 104 94 90 86 84 77
3230.0 73 62 56 49 41 45 48 44 38 33
3270.0 32 36 36 35 35 33 27 25 23 24
3310.0 26 26 27 25 21 19 19 16 13 16
3350.0 21 23 26 32 30 28 25 27 30 26
3390.0 24 25 22 21 19 23 25 27 24 21
3430.0 19 20 27 21 15 9 9 15 12 11
3470.0 16 15 16 19 18 18 12 14 19 15
3510.0 13 13 11 13 20 16 10 9 8 13
3550.0 15 14 14 18 26 21 11 7 11 25
3590.0 28 20 18 14 14 20 17 16 8 5
3630.0 13 8 10 13 18 21 12 12 7 6
3670.0 17 17 13 4 4 13 8 6 6 7
3710.0 13 13 10 14 15 9 25 25 22 23
3750.0 16 10 0 0 0 8 10 10 8 6
3790.0 10 13 13 11 14 19 22 26 27 24
3830.0 22 21 21 20 17
##END=
