##TITLE=2,4,6-Trifluorobenzaldehyde
##JCAMP-DX=4.24
##DATA TYPE=INFRARED SPECTRUM
##ORIGIN=EPA-IR VAPOR PHASE LIBRARY
##OWNER=SRD/NIST
Collection (C) 2018 copyright by the U.S. Secretary of Commerce
on behalf of the United States of America. All rights reserved.
##CAS REGISTRY NO=58551-83-0
##MOLFORM=C 7 H 3 F 3 O
##$NIST SOURCE=MSDC-IR
##STATE=gas
##XUNITS=1/CM
##YUNITS=ABSORBANCE
##XFACTOR=1.
##YFACTOR=0.001
##DELTAX=1.92898
##FIRSTX=549.8
##LASTX=4000.7
##FIRSTY=4.37
##MAXX=4000.7
##MINX=549.759
##MAXY=0.29645
##MINY=0
##NPOINTS=1790
##XYDATA=(X++(Y..Y))
549.759 4.37 3.59 2.37 2.38 2.68 2.69 2.34 2.1232 2.45 3.14
569.049 2.63 1.8739 2.0632 1.7387 1.6796 2.24 2.32 1.5547 2.26 3.18
588.339 2.63 2.0071 1.5462 1.824 1.9193 1.9126 2.0225 2.16 3.3 4.1
607.628 4.9 6.38 7.77 9.04 10.14 11.53 14.09 18.38 19.03 14.63
626.918 12.33 12.55 12.44 12.16 11.73 11.03 10.62 9.87 9.35 9.54
646.208 8.94 8.54 8.38 8.26 8.65 8.31 7.57 7.42 7.2 6.57
665.498 6.14 5.33 4.48 4.1 3.46 3.35 3.31 2.93 2.75 2.9
684.787 3.18 3.09 2.93 2.85 2.75 2.95 3.41 3.69 3.45 3.11
704.077 3.27 3.27 2.82 3.12 3.68 3.55 3.37 3.03 2.65 2.42
723.367 2.43 2.48 2.38 2.66 2.37 2.016 2.31 1.953 1.544 1.7286
742.657 1.8576 1.9205 2.16 1.7621 1.5607 2.32 3.09 2.99 2.59 3.15
761.947 3.74 4.48 4.88 5.16 6.02 6.63 7.57 7.9 8.7 10.9
781.236 13.61 16.85 20.44 24.14 27.62 30.37 31.84 33.14 34.26 33.88
800.526 32.22 29.51 25.43 20.47 16.43 13.84 11.97 10.29 9.44 8.88
819.816 8.28 10.33 13.52 14.98 17.7 23.13 29.4 37.07 46.38 56.15
839.106 62.43 65.14 72.91 87.61 106.38 111.06 85.98 64.08 57.14 51.69
858.395 45.63 38.5 31.59 24.32 17.86 12.8 9.23 7.32 6 5.11
877.685 4.61 3.71 3.11 2.43 1.9521 2.17 2.49 2.14 2.0897 2.48
896.975 2.26 1.9198 1.8524 2.21 2.16 1.8511 2.0463 2.0858 2.3 2.15
916.265 2.14 2.87 2.98 2.74 2.81 2.89 3.05 3.3 2.65 2.28
935.555 2.6 2.7 2.66 2.65 2.88 2.98 2.73 2.79 3.14 3.39
954.844 3.5 3.37 3.6 3.97 3.98 4.11 3.83 3.74 4.3 4.59
974.134 4.72 5.34 5.85 6.54 7.97 9.55 11.31 14.64 20.19 27.84
993.424 36.53 44.04 48.39 49.3 50.09 50.77 48.81 47.12 44.89 38.23
1012.714 29.69 22.61 18.94 18.11 18.54 19.39 20.68 23.12 25.63 28
1032.003 30.49 33 36.06 39.38 43.4 49.03 56.11 63.82 72.97 84.05
1051.293 94.51 101.34 105.47 107.55 106.74 105.96 103.86 97.54 86.88 72.48
1070.583 57.87 45.69 36.09 28.85 23.71 19.71 17 15.52 13.73 12.82
1089.873 13.37 13.24 12.87 12.51 12.37 11.93 12.25 13.14 14.3 18.59
1109.163 24.22 31 41.79 59.07 84.03 114.53 144.49 166.11 176.4 182.84
1128.452 190.99 186.19 174.04 167.16 144.28 105.58 71.34 49.53 38.71 33.77
1147.742 32.56 33.14 33.75 36.93 43.27 51.76 62.09 73.74 85.74 95.6
1167.032 102.31 107.08 112.36 118.01 122.53 123.35 117.65 109.09 101.19 95.1
1186.322 89.89 84.97 81.75 79.74 77.59 74.42 70.33 64.81 60.11 55.31
1205.611 47.43 40.16 33.72 26.14 20.21 15.9 13.56 12.47 9.72 8.19
1224.901 7.64 7.09 5.91 5.2 5.19 5.34 5.61 5.44 5.29 4.9
1244.191 6.22 6.54 6.23 6.38 6.03 6.24 6.72 6.96 7.29 7.67
1263.481 7.61 7.56 7.58 8.05 8.39 8.28 8.67 9.04 9.22 10.11
1282.771 10.93 11.3 12.14 12.41 12.45 12.98 13.33 13.3 13.2 13.12
1302.060 12.72 12.35 12.01 11.47 11.01 10.72 10.63 10.38 10.1 10.08
1321.350 10.02 10.11 10.45 10.78 10.98 11.56 12.59 14.29 16.77 19.99
1340.640 24.2 28.75 33.02 36.67 39.16 39.93 39.55 38.44 36.19 32.85
1359.930 28.37 22.71 16.9 12.19 9.19 7.66 6.98 6.89 6.97 7.08
1379.219 7.33 7.83 8.62 9.68 11.24 13.1 15.63 19.32 24.02 29.36
1398.509 35.41 42.15 48.43 53.75 57.48 59.64 60.83 61.47 62.18 62.93
1417.799 62.49 60.54 58.9 58.55 60.09 63.64 68.56 74.38 80.85 87.34
1437.089 93.63 98.53 101.48 102.33 101.08 97.66 92.3 86.09 78.97 71.12
1456.378 62.34 53.13 44.91 38.12 33.1 29.16 26.01 23.33 21.54 20.07
1475.668 18.6 17.69 17.4 17.48 18.05 18.97 19.74 20.32 20.62 20.64
1494.958 20.28 18.93 17.05 15.75 15.32 15.17 14.89 14.74 14.46 13.85
1514.248 13.64 13.67 13.56 12.93 11.67 10.87 10.11 9.1 8.5 8.21
1533.538 8.14 8.23 8.26 8.3 8.95 9.65 10.17 10.9 12.04 13.44
1552.827 14.9 16.81 18.87 21.38 24.52 28.08 32.82 38.15 44.19 51.84
1572.117 60.19 69.57 80.82 92.39 103.92 116.59 128.97 141.12 152.8 163.77
1591.407 174.14 183.61 192.04 200.17 207.92 214.76 220.18 225.25 229.86 234.41
1610.697 239.54 244.2 247.24 250.13 252.96 255 257.34 261.67 267.56 273.87
1629.986 278.89 281.29 278.57 270.69 258.56 243.06 223.72 201.52 176.4 149.53
1649.276 123.91 101.99 83.4 70.47 61.86 55.13 49.83 45.27 41.77 38.51
1668.566 35.18 32.66 30.88 29.39 28.47 28.31 28.78 29.63 30.67 31.59
1687.856 32.88 34.73 36.17 37.53 39.54 41.64 44.36 48.16 52.5 59.14
1707.146 68.77 83.01 103.91 132.76 170.1 212.36 252.42 278.88 290.4 295.63
1726.435 296.45 286.67 272.77 250.84 204.09 147.45 99.54 64.91 45.25 33.7
1745.725 26.8 22.24 18.87 16.08 13.99 12.44 11.23 10.28 9.76 9.67
1765.015 9.77 9.81 9.96 10.29 10.48 10.63 10.82 10.79 10.85 10.8
1784.305 10.31 9.73 9.01 8.15 7.49 6.95 6.47 5.97 5.46 5.08
1803.594 4.91 4.7 4.67 4.66 4.38 4.32 4.16 3.94 3.81 3.66
1822.884 3.78 3.76 3.62 3.57 3.57 3.68 3.68 3.48 3.35 3.46
1842.174 3.52 3.24 3.07 2.99 2.88 2.84 2.9 2.89 2.79 2.68
1861.464 2.52 2.39 2.29 2.27 2.32 2.29 2.16 2.1261 1.9908 1.9337
1880.754 2.0426 2.0696 1.9869 1.9973 2.0174 1.8988 1.9787 2.0098 1.9419 1.9972
1900.043 1.9955 2.0906 2.0612 1.9874 2.0349 1.9341 2.0117 2.1359 2.16 2.23
1919.333 2.38 2.51 2.62 2.69 2.68 2.7 2.63 2.63 2.66 2.58
1938.623 2.63 2.64 2.63 2.61 2.41 2.3 2.47 2.68 2.71 2.77
1957.913 2.72 2.65 2.88 2.91 2.97 3.09 3.07 3.13 3.02 2.84
1977.202 2.73 2.64 2.6 2.68 2.77 2.73 2.72 2.65 2.51 2.53
1996.492 2.51 2.56 2.56 2.48 2.48 2.39 2.41 2.54 2.43 2.19
2015.782 2.0904 2.1094 2.0216 1.952 1.863 1.6211 1.613 1.5965 1.5633 1.7376
2035.072 1.8291 1.7984 1.6852 1.5846 1.5047 1.5033 1.6494 1.6574 1.6158 1.7541
2054.362 1.7545 1.7229 1.6192 1.4334 1.5863 1.7557 1.6071 1.5477 1.5566 1.6081
2073.651 1.6487 1.5023 1.6048 1.8224 1.7794 1.6439 1.7493 1.7677 1.75 1.9387
2092.941 1.9927 1.9482 1.9537 2.0324 1.8975 1.8936 1.9681 1.8883 1.9173 1.8631
2112.231 1.8825 2.0048 2.0663 2.0867 2.28 2.46 2.61 2.66 2.52 2.59
2131.521 2.75 2.66 2.51 2.45 2.26 2.16 2.18 2.15 2.25 2.26
2150.810 2.1031 2.1211 2.4 2.6 2.79 2.87 2.85 3 3.04 3.16
2170.100 3.43 3.57 3.5 3.55 3.78 3.72 3.64 3.77 3.69 3.52
2189.390 3.58 3.62 3.58 3.52 3.38 3.33 3.23 3.16 3.15 3.13
2208.680 3.19 2.91 2.76 2.82 2.56 2.32 2.24 2.3 2.0563 1.9547
2227.970 2.0062 1.7856 1.8274 1.9687 1.9176 1.7482 1.7303 1.8846 1.9773 2.18
2247.259 2.32 2.27 2.27 2.32 2.46 2.52 2.33 2.1209 2.1042 1.9894
2266.549 1.6841 1.8594 1.9694 1.8187 1.8065 1.5891 1.5388 1.7541 1.8259 1.6439
2285.839 1.7817 1.9278 1.8574 1.7469 1.6038 1.5246 1.5954 1.6953 1.7294 1.6906
2305.129 1.4676 1.3301 1.4103 1.4765 1.4969 1.601 1.6328 1.6106 1.5366 1.735
2324.418 2.0141 1.863 1.6622 1.6903 1.9426 2.0975 2.1283 2.18 2.28 2.33
2343.708 2.32 2.47 2.56 2.63 2.73 2.62 2.5 2.49 2.46 2.5
2362.998 2.48 2.41 2.47 2.59 2.52 2.62 2.82 2.85 2.88 2.84
2382.288 2.85 2.77 2.66 2.75 2.87 2.99 2.94 2.91 3 3.16
2401.578 3.09 3.09 3.37 3.37 3.18 3.05 2.92 2.79 2.58 2.4
2420.867 2.29 2.1183 2.0062 1.8361 1.7577 1.8443 2.0823 1.9671 1.6387 1.8245
2440.157 1.9765 1.9732 2.049 1.9836 1.8832 2.0859 2.45 2.46 2.69 3.08
2459.447 3.25 3.35 3.57 4.09 4.27 4.39 4.51 4.61 4.67 4.66
2478.737 4.51 4.4 4.18 3.92 3.59 3.05 2.71 2.7 2.79 2.73
2498.026 2.69 2.6 2.39 2.21 2.33 2.41 2.43 2.7 2.76 2.6
2517.316 2.56 2.57 2.61 2.64 2.44 2.26 2.31 2.17 1.8975 1.8873
2536.606 2.14 2.16 2.0375 2.0449 1.866 1.5817 1.5847 1.7425 1.8465 1.9121
2555.896 1.8284 2.19 2.27 2.077 2.1395 2.0652 2.22 2.46 2.61 2.59
2575.186 2.54 2.43 2.52 2.57 2.46 2.69 2.81 2.51 2.45 2.61
2594.475 2.73 2.86 2.85 2.87 2.8 2.62 2.76 2.76 2.6 2.8
2613.765 2.72 2.84 3.13 2.92 2.75 2.79 2.58 2.35 2.45 2.42
2633.055 2.47 2.6 2.39 2.35 2.68 2.86 2.95 2.92 2.61 2.58
2652.345 2.64 2.51 2.57 2.54 2.56 2.65 2.41 2.42 2.39 2.24
2671.634 2.43 2.42 2.24 2.25 2.25 2.32 2.43 2.41 2.79 2.85
2690.924 2.65 2.92 3.01 3.21 3.53 3.4 3.32 3.63 4.02 4.01
2710.214 4.04 4.26 4.26 4.36 4.65 5 5.22 5.42 5.65 5.99
2729.504 6.24 6.39 6.72 7.02 7.55 8.25 8.63 9.17 9.63 9.74
2748.794 10.26 10.77 11.03 11.04 11.25 11.62 11.86 12.38 13.12 14.08
2768.083 15.14 16.24 17.42 18.73 19.66 20.19 20.49 20.52 20.05 19.14
2787.373 18.04 16.98 15.76 14.19 12.47 11.08 10.11 9.4 8.84 8.26
2806.663 7.77 7.25 6.96 6.86 6.83 6.58 6.57 6.52 6.24 6.52
2825.953 6.89 7.21 7.69 8.1 8.54 9.13 9.32 9.76 10.61 11.41
2845.242 12.57 13.6 14.68 16.38 18.33 20.67 23.42 25.74 28.2 30.97
2864.532 33.2 34.88 35.82 36.33 36.26 35.09 32.89 30.13 27.12 23.72
2883.822 20 16.92 14.23 11.6 9.9 8.85 7.71 6.44 5.83 5.85
2903.112 5.37 5.17 5.52 5.4 4.97 4.72 4.57 4.52 4.52 4.59
2922.401 4.58 4.44 4.51 4.21 3.82 3.8 3.39 2.75 2.7 2.51
2941.691 2.33 2.33 2.0873 1.8129 1.8957 2.1121 2.0564 1.7913 1.6013 1.4878
2960.981 1.4513 1.6803 1.8247 1.8546 1.8922 1.9347 1.7175 1.7937 2.0177 2.0246
2980.271 1.8242 1.6996 1.653 1.658 1.8751 1.8875 1.8737 1.9307 1.7279 1.6903
2999.561 2.0737 2.16 1.9927 1.9249 1.8653 1.9079 1.7484 1.7918 1.916 1.5695
3018.850 1.5625 1.5673 1.374 1.3135 1.22525 1.2513 1.2558 1.3702 1.5361 1.19058
3038.140 1.0693 1.3354 1.4554 1.3605 1.3137 1.5931 1.7152 1.5362 1.3292 1.275
3057.430 1.3201 1.5548 1.5726 1.3843 1.3812 1.6415 1.6579 1.8609 2.0076 1.6921
3076.720 1.5872 1.4989 1.7631 2.29 2.68 2.56 2.56 2.73 3.06 3.35
3096.009 3.52 4.06 4.24 4.47 4.71 4.59 4.59 4.66 4.62 4.47
3115.299 4.33 3.94 3.36 2.93 2.98 2.56 2.2 2.41 1.9474 1.4995
3134.589 1.4924 1.3903 1.21376 1.1205 1.1095 1.15831 1.23759 1.024 0.927 1.013
3153.879 0.791 0.762 1.029 1.0674 1.011 1.20792 1.15221 1.15101 1.367 1.4402
3173.169 1.4327 1.4628 1.3598 1.6135 1.5852 1.4671 1.5842 1.1906 0.997 0.971
3192.458 1.1245 1.3064 1.3214 1.3321 1.3002 1.4063 1.21143 1.3294 1.7145 1.6221
3211.748 1.4625 1.4419 1.3564 1.2806 1.767 1.6053 1.17964 1.7059 1.7275 1.18944
3231.038 0.979 1.4872 1.4359 1.14141 1.795 2.0781 2.19 2.18 1.9512 1.5351
3250.328 1.398 1.6843 1.8127 1.9818 1.6179 1.7027 1.8263 1.938 2.0066 1.3431
3269.617 1.2741 1.2874 1.2682 1.339 1.23682 1.3323 1.21216 0.951 1.2594 1.4618
3288.907 1.4741 1.3796 1.297 0.923 0.721 1.22985 1.4503 1.4769 1.3043 1.1147
3308.197 1.17494 1.0672 1.0871 1.2498 1.13472 0.818 0.879 1.0852 0.765 1.0845
3327.487 1.443 1.20787 1.4734 1.2971 0.982 1.5118 1.5307 1.0645 1.2627 1.7145
3346.777 1.7771 1.4103 1.13382 1.16289 1.0909 0.907 0.849 0.917 1.18762 1.3901
3366.066 1.426 1.3352 1.3223 1.5496 1.6361 1.5812 1.486 1.5571 1.4556 1.21591
3385.356 1.4319 1.6719 1.3046 1.4036 1.9631 1.8572 1.6336 1.5346 1.19014 1.3168
3404.646 1.7189 1.759 1.9671 2.27 3.19 3.95 3.97 4.22 4.6 4.86
3423.936 5.5 6.11 6.21 6.68 7.13 7.07 6.99 6.44 5.56 5.01
3443.225 4.37 3.88 3.4 3.1 2.68 2.25 2.0453 1.9249 1.7859 1.4187
3462.515 0.95 1.2491 2.0213 1.6639 1.7056 1.5534 1.21243 1.3438 1.3014 1.5511
3481.805 1.6296 1.024 0.796 1.20453 1.19072 1.1196 1.3783 1.5021 1.292 1.22312
3501.095 0.575 0.293 0.67 0.54 0.627 0.865 1.0893 1.23381 0.818 0.42
3520.385 0.675 0.905 1.1262 1.0496 0.553 0.725 1.19763 0.805 0.424 0.929
3539.674 1.17975 1.20385 1.20705 0.709 0.53 1.0493 1.0838 0.907 0.972 0.962
3558.964 1.22237 1.22113 0.602 0.581 1.21018 1.18671 1.15392 1.3429 1.3005 1.3164
3578.254 1.1183 0.97 1.14329 1.15737 1.15634 1.2724 1.304 1.21977 1.0758 0.985
3597.544 0.875 1.15894 1.1149 0.661 0.497 0.714 1.18993 1.0833 0.655 0.731
3616.833 0.791 0.678 0.763 0.577 0.858 1.17412 1.1204 1.19522 1.3025 1.6843
3636.123 1.5243 0.865 0.979 0.95 0.872 1.3624 1.322 1.3201 1.4905 1.4705
3655.413 1.3251 1.14862 1.0641 1.103 0.938 0.705 0.628 0.682 1.1126 1.1218
3674.703 0.877 1.0766 1.0889 1.0626 0.833 0.985 1.0536 1.03 1.4967 1.18485
3693.993 1.0717 1.15414 0.733 0.806 1.1234 0.839 0.602 0.66 0.778 0.83
3713.282 0.961 1.18889 1.017 0.548 0.03 0.353 0.734 1.0676 1.5472 1.3968
3732.572 1.2537 0.79 0.835 1.4013 1.3334 1.14221 0.954 0.888 0.871 1.106
3751.862 1.347 1.15128 0.864 1.091 1.6055 1.21593 0.79 0.945 1.16965 1.2963
3771.152 1.0558 1.0442 1.16504 0.821 0.614 0.751 0.638 0.453 0.953 1.279
3790.441 0.97 0.991 1.1506 0.679 0.477 0.341 0.06 0 0.07 0.612
3809.731 0.958 0.867 0.949 0.858 0.364 0.461 0.879 1.17567 1.18934 0.993
3829.021 1.0596 1.2527 1.1067 0.857 1.14097 1.4247 1.20078 1.1267 1.223 0.893
3848.311 0.703 1.23533 1.6336 1.23435 1.034 0.956 0.691 0.719 0.814 0.508
3867.601 0.614 0.806 0.408 0.428 0.683 0.618 0.53 0.807 1.18414 0.902
3886.890 0.609 0.987 1.0483 0.676 0.367 0.383 0.633 0.79 1.21391 1.4626
3906.180 1.3083 1.014 0.733 0.828 0.851 1.036 1.2781 1.3431 1.3696 1.1172
3925.470 0.969 0.954 0.614 0.642 1.026 0.809 0.838 0.944 0.943 0.961
3944.760 0.535 0.512 0.856 0.722 0.635 0.931 1.1221 0.907 0.665 0.372
3964.049 0.241 0.595 1.026 0.851 0.838 1.0689 1.2835 1.5581 1.1215 0.816
3983.339 0.874 0.659 0.372 0.465 0.824 1.013 0.844 1.0527 1.17872 0.672
##END=
