##TITLE=2,2,4-Trimethyl-3-pentanone
##JCAMP-DX=4.24
##DATA TYPE=INFRARED SPECTRUM
##ORIGIN=NIST Mass Spectrometry Data Center
##OWNER=NIST Standard Reference Data Program
Collection (C) 2018 copyright by the U.S. Secretary of Commerce
on behalf of the United States of America. All rights reserved.
##CAS REGISTRY NO=5857-36-3
##MOLFORM=C 8 H 16 O
##$NIST SOURCE=MSDC-IR
##SPECTROMETER/DATA SYSTEM=HP-GC/MS/IRD
##STATE=gas
##XUNITS=1/CM
##YUNITS=ABSORBANCE
##XFACTOR=1.0
##YFACTOR=0.000004600
##DELTAX=4.0
##FIRSTX=550.0
##LASTX=3846.0
##FIRSTY=0.000120
##MAXX=3846
##MINX=550
##MAXY=0.046
##MINY=0
##NPOINTS=825
##XYDATA=(X++(Y..Y))
550.0 26 69 112 136 177 230 260 248 235 199
590.0 137 99 82 70 64 60 59 64 69 62
630.0 61 56 54 73 70 54 42 32 38 55
670.0 56 51 64 74 73 79 85 76 70 68
710.0 71 73 77 69 56 69 73 67 54 53
750.0 63 60 53 52 57 61 58 55 54 50
790.0 58 72 72 77 95 96 100 102 84 80
830.0 79 68 62 64 66 69 83 102 126 150
870.0 159 159 152 139 119 102 95 94 98 104
910.0 112 123 154 181 209 242 274 291 312 331
950.0 352 385 443 537 687 912 1229 1637 2102 2524
990.0 2810 2904 2778 2469 2039 1639 1376 1236 1198 1233
1030.0 1353 1555 1811 2068 2252 2326 2262 2057 1763 1450
1070.0 1170 962 839 778 747 715 658 574 477 385
1110.0 315 264 233 210 197 189 184 180 169 171
1150.0 183 201 228 261 299 326 336 343 350 352
1190.0 361 385 415 436 441 427 403 372 338 303
1230.0 270 247 232 218 206 194 183 174 159 151
1270.0 151 149 146 149 155 158 167 177 192 212
1310.0 237 278 336 411 497 568 639 702 748 800
1350.0 878 1007 1193 1423 1684 1910 2008 2024 2008 1913
1390.0 1744 1547 1289 1003 772 583 448 383 376 400
1430.0 440 499 589 718 868 1062 1271 1504 1767 2048
1470.0 2305 2439 2428 2284 1983 1603 1173 781 530 386
1510.0 311 271 231 202 189 171 147 127 115 108
1550.0 98 83 69 81 93 92 89 93 100 103
1590.0 101 97 97 98 99 104 107 107 114 122
1630.0 126 127 139 151 163 176 199 249 298 354
1670.0 424 514 641 803 1059 1430 1948 2653 3506 4368
1710.0 5117 5566 5471 4807 3851 2836 1888 1188 777 547
1750.0 414 332 275 231 191 154 136 124 111 109
1790.0 105 103 101 93 91 89 87 85 76 68
1830.0 65 62 57 51 46 51 53 53 54 53
1870.0 53 52 51 51 46 40 41 44 45 43
1910.0 44 46 44 43 44 43 41 39 38 38
1950.0 40 43 44 42 41 41 43 41 39 37
1990.0 34 33 33 34 35 35 33 36 34 32
2030.0 34 36 38 35 33 36 35 33 33 33
2070.0 35 34 29 30 30 27 25 26 27 27
2110.0 29 28 24 27 29 30 30 30 31 30
2150.0 31 33 33 34 35 37 40 41 39 37
2190.0 37 35 33 33 33 34 34 34 33 34
2230.0 41 38 37 37 38 36 32 32 30 33
2270.0 34 33 34 35 35 38 43 45 49 50
2310.0 48 48 47 48 52 56 59 53 53 47
2350.0 42 49 57 62 61 55 49 43 39 42
2390.0 45 46 47 46 39 38 40 40 40 39
2430.0 39 38 37 36 34 31 35 39 39 42
2470.0 41 36 35 37 34 31 31 34 32 29
2510.0 31 33 33 32 31 34 36 35 34 36
2550.0 37 36 38 40 41 42 46 49 47 46
2590.0 43 46 49 50 51 50 49 47 45 44
2630.0 46 47 47 51 54 56 56 58 57 55
2670.0 57 59 62 64 68 72 75 78 80 85
2710.0 92 102 112 120 129 133 131 130 130 133
2750.0 136 143 145 146 152 155 158 163 166 174
2790.0 183 190 202 216 227 239 256 279 297 315
2830.0 338 360 390 432 492 575 712 909 1166 1505
2870.0 1901 2293 2613 2808 2870 2829 2739 2663 2647 2710
2910.0 2838 3007 3211 3467 3788 4164 4558 4942 5277 5574
2950.0 5925 6422 7145 8086 9030 9730 10000 9632 8739 7455
2990.0 5905 4475 3327 2405 1711 1238 929 732 599 503
3030.0 434 383 338 302 274 253 238 226 213 200
3070.0 193 193 187 189 194 194 194 190 188 188
3110.0 188 184 181 179 168 168 175 166 162 168
3150.0 168 173 182 183 180 174 170 165 154 147
3190.0 142 134 130 125 123 114 109 104 95 88
3230.0 80 80 72 67 64 57 55 47 45 49
3270.0 47 46 44 42 38 39 35 32 36 35
3310.0 37 39 35 30 33 35 38 38 33 33
3350.0 40 45 50 53 54 58 64 70 74 77
3390.0 87 91 95 111 125 132 126 117 103 83
3430.0 74 64 51 38 34 36 33 26 23 25
3470.0 21 14 11 13 18 14 14 13 13 19
3510.0 16 16 19 16 21 22 22 19 12 12
3550.0 15 16 20 22 13 16 25 17 14 7
3590.0 6 16 16 9 2 2 8 15 21 13
3630.0 13 20 19 19 5 2 8 12 20 14
3670.0 1 0 7 13 11 7 11 13 9 8
3710.0 5 8 14 15 14 8 8 13 10 5
3750.0 8 14 23 17 12 15 17 20 21 25
3790.0 27 27 25 28 34 35 33 24 24 38
3830.0 36 22 22 28 34
##END=
