##TITLE=4-Bromoisopropylbenzene
##JCAMP-DX=4.24
##DATA TYPE=INFRARED SPECTRUM
##ORIGIN=NIST Mass Spectrometry Data Center
##OWNER=NIST Standard Reference Data Program
Collection (C) 2018 copyright by the U.S. Secretary of Commerce
on behalf of the United States of America. All rights reserved.
##CAS REGISTRY NO=586-61-8
##MOLFORM=C 9 H 11 Br
##$NIST SOURCE=MSDC-IR
##SPECTROMETER/DATA SYSTEM=HP-GC/MS/IRD
##STATE=gas
##XUNITS=1/CM
##YUNITS=ABSORBANCE
##XFACTOR=1.0
##YFACTOR=0.000010200
##DELTAX=4.0
##FIRSTX=550.0
##LASTX=3846.0
##FIRSTY=0.002662
##MAXX=3846
##MINX=550
##MAXY=0.102
##MINY=0
##NPOINTS=825
##XYDATA=(X++(Y..Y))
550.0 261 398 259 217 176 148 143 168 211 292
590.0 398 481 485 411 296 185 110 76 61 55
630.0 62 67 82 117 139 128 86 35 6 0
670.0 5 7 13 18 26 41 58 90 135 190
710.0 253 310 344 337 319 296 279 315 451 684
750.0 887 905 722 439 246 179 178 220 274 320
790.0 367 449 612 899 1339 1904 2456 2915 3055 2728
830.0 2200 1592 1035 648 411 269 187 140 114 96
870.0 84 78 77 81 85 89 92 92 91 91
910.0 87 85 86 85 86 83 78 75 68 65
950.0 58 59 65 70 80 88 95 110 138 186
990.0 278 483 902 1837 3338 4220 3991 2665 1078 439
1030.0 290 254 279 360 500 699 940 1165 1412 1871
1070.0 2762 3765 4187 3644 2379 1413 1121 1079 1017 865
1110.0 664 501 405 357 342 353 382 410 393 318
1150.0 215 136 96 72 61 61 72 92 103 107
1190.0 102 97 96 90 94 118 161 204 220 199
1230.0 149 98 74 72 79 87 98 111 122 125
1270.0 123 119 127 166 265 400 491 496 413 330
1310.0 322 359 412 447 449 420 385 375 393 422
1350.0 451 481 515 558 613 662 687 710 757 822
1390.0 888 956 1022 1082 1090 1027 896 733 604 533
1430.0 512 525 569 646 761 923 1122 1346 1541 1697
1470.0 1856 2159 2825 4069 5592 6285 5608 3820 1963 1018
1510.0 636 441 325 251 203 174 158 145 133 122
1550.0 118 121 128 141 150 154 156 170 208 269
1590.0 330 347 302 212 139 113 111 125 154 189
1630.0 227 260 275 270 242 202 161 129 108 94
1670.0 85 77 68 60 49 41 38 35 31 28
1710.0 26 24 24 26 28 31 38 47 57 73
1750.0 97 116 127 142 161 172 158 120 70 38
1790.0 24 16 11 11 13 14 13 14 16 17
1830.0 16 19 23 26 31 39 48 59 74 94
1870.0 123 162 201 233 258 263 246 211 165 119
1910.0 84 61 47 39 31 24 19 17 15 16
1950.0 16 15 14 14 13 9 6 8 5 4
1990.0 4 3 5 6 5 4 6 8 9 10
2030.0 8 6 5 6 6 5 4 5 4 6
2070.0 8 6 6 9 7 6 4 3 3 2
2110.0 1 2 1 2 1 3 6 5 5 6
2150.0 6 3 3 3 4 2 1 2 2 4
2190.0 6 6 4 1 2 5 7 7 10 11
2230.0 13 17 18 19 21 22 23 27 30 33
2270.0 34 36 39 38 38 39 40 38 35 32
2310.0 29 27 22 20 19 17 16 14 15 16
2350.0 16 18 18 19 23 28 30 32 31 29
2390.0 29 28 25 26 27 25 24 22 20 19
2430.0 20 20 19 19 19 20 23 25 29 31
2470.0 29 30 30 27 25 25 26 28 31 29
2510.0 28 28 28 30 31 31 30 30 34 36
2550.0 39 40 43 50 55 63 70 75 85 89
2590.0 91 96 97 91 84 76 68 59 52 48
2630.0 43 39 38 39 39 42 46 48 49 52
2670.0 53 51 47 48 49 50 50 51 55 57
2710.0 59 67 78 90 99 108 111 109 108 108
2750.0 105 102 103 105 111 116 116 115 117 119
2790.0 123 133 142 155 170 183 198 214 226 233
2830.0 243 257 277 309 363 438 529 647 804 1016
2870.0 1295 1632 1968 2201 2280 2245 2188 2177 2207 2248
2910.0 2270 2266 2260 2286 2372 2536 2773 3006 3152 3212
2950.0 3333 3750 4808 6752 8834 10000 9426 7318 5017 3249
2990.0 2168 1547 1170 942 800 731 729 798 917 1026
3030.0 1066 1025 941 868 820 779 732 681 640 624
3070.0 639 680 741 803 838 835 773 660 524 399
3110.0 300 235 196 175 159 149 143 129 122 126
3150.0 128 126 125 129 131 125 123 121 118 118
3190.0 114 111 112 108 101 95 94 91 80 73
3230.0 63 54 50 44 37 33 33 34 32 28
3270.0 25 21 18 16 19 21 19 25 25 20
3310.0 20 21 22 26 31 36 35 30 30 30
3350.0 24 21 19 16 14 18 16 13 16 13
3390.0 11 12 10 9 16 18 11 10 12 14
3430.0 12 14 17 22 20 21 19 15 13 13
3470.0 15 14 8 9 9 8 10 9 6 8
3510.0 10 6 4 5 5 10 15 14 10 10
3550.0 8 8 7 7 11 11 11 7 5 4
3590.0 5 3 5 9 8 6 2 1 4 8
3630.0 7 6 8 10 12 11 7 8 15 18
3670.0 18 13 11 13 15 17 15 10 11 15
3710.0 19 27 26 24 21 13 13 9 7 4
3750.0 4 6 8 6 7 13 15 14 13 12
3790.0 16 17 17 23 26 20 22 23 23 29
3830.0 37 48 46 38 37
##END=
