##TITLE=3-Nitrosostyrene
##JCAMP-DX=4.24
##DATA TYPE=INFRARED SPECTRUM
##ORIGIN=EPA-IR VAPOR PHASE LIBRARY
##OWNER=SRD/NIST
Collection (C) 2018 copyright by the U.S. Secretary of Commerce
on behalf of the United States of America. All rights reserved.
##CAS REGISTRY NO=586-39-0
##MOLFORM=C 8 H 7 N O 2
##$NIST SOURCE=MSDC-IR
##STATE=gas
##XUNITS=1/CM
##YUNITS=ABSORBANCE
##XFACTOR=1.
##YFACTOR=0.001
##DELTAX=1.92898
##FIRSTX=549.8
##LASTX=4000.7
##FIRSTY=0.8755
##MAXX=4000.7
##MINX=549.759
##MAXY=0.086159
##MINY=0
##NPOINTS=1790
##XYDATA=(X++(Y..Y))
549.759 0.8755 0.8241 0.7561 0.6787 0.8497 0.6791 0.8544 1.09 1.1198 1.439
569.049 1.739 2.159 2.409 2.799 3.499 4.119 5.029 5.979 6.539 7.079
588.339 7.409 7.469 7.239 6.799 6.389 5.769 5.119 4.539 3.829 3.239
607.628 2.659 2.269 2.029 1.699 1.499 1.2674 1.0564 1.0041 0.8764 0.7097
626.918 0.7122 0.7897 0.8299 0.8673 0.7554 0.7071 0.6616 0.6158 0.6352 0.5962
646.208 0.6392 0.8802 1.2542 1.439 1.469 1.449 1.579 2.069 2.489 2.769
665.498 3.319 3.959 4.479 4.989 5.669 6.499 7.279 7.989 8.759 9.609
684.787 10.369 10.999 11.609 12.159 12.659 13.169 13.509 13.269 12.439 11.629
704.077 11.069 10.489 9.719 8.869 8.259 7.839 7.489 7.229 7.109 6.949
723.367 7.019 7.559 8.549 9.889 11.269 12.729 13.819 14.299 14.759 15.399
742.657 15.639 15.009 14.219 13.639 13.269 13.509 13.939 14.039 13.879 13.219
761.947 12.439 11.589 10.669 9.979 9.129 8.269 7.219 5.919 4.889 4.229
781.236 3.649 3.079 2.669 2.369 2.089 1.739 1.529 1.469 1.379 1.339
800.526 1.339 1.359 1.429 1.409 1.449 1.599 1.639 1.799 2.019 2.239
819.816 2.459 2.529 2.689 2.989 3.209 3.569 3.929 4.089 4.269 4.439
839.106 4.569 4.609 4.659 4.609 4.319 4.109 4.069 3.959 3.669 3.359
858.395 3.129 2.959 2.849 2.629 2.369 2.209 2.139 2.099 2.049 1.989
877.685 1.939 1.939 1.839 1.649 1.679 1.559 1.369 1.2717 1.1188 1.309
896.975 1.299 1.1103 1.0853 1.1148 1.2479 1.459 1.699 1.899 2.059 2.119
916.265 2.339 2.769 3.089 3.359 3.859 4.299 4.679 5.299 5.799 6.309
935.555 7.069 7.779 8.619 9.689 10.909 12.129 13.379 14.829 16.359 17.879
954.844 19.129 20.239 21.289 21.959 22.029 21.509 20.409 18.799 16.829 14.809
974.134 12.799 10.639 8.569 6.859 5.609 4.839 4.169 3.519 3.269 3.089
993.424 2.909 2.899 2.919 2.769 2.509 2.169 2.069 2.009 1.869 1.629
1012.714 1.459 1.519 1.479 1.639 1.919 2.039 2.199 2.279 2.119 2.069
1032.003 1.899 1.729 1.579 1.409 1.309 1.1069 1.279 1.339 1.206 1.359
1051.293 1.409 1.439 1.439 1.449 1.619 1.669 1.729 1.749 1.839 1.959
1070.583 1.709 1.749 1.919 1.559 1.369 1.429 1.469 1.719 1.549 1.1643
1089.873 1.1229 1.2766 1.1557 0.9963 0.9052 0.7927 0.8161 0.7968 0.7953 0.958
1109.163 0.8559 0.5882 0.5 0.5394 0.6966 0.7282 0.8267 0.7482 0.4987 0.37506
1128.452 0.35048 0.4622 0.4948 0.3904 0.35993 0.4081 0.6282 0.5499 0.34949 0.37443
1147.742 0.4586 0.6065 0.5543 0.4743 0.5876 0.6731 0.8628 0.9607 0.8584 1.0278
1167.032 1.389 1.849 2.139 2.489 2.999 3.649 4.329 4.729 4.979 5.159
1186.322 5.279 5.199 5.089 4.919 4.489 4.119 4.009 3.869 3.299 2.609
1205.611 2.179 1.779 1.459 1.2684 1.0695 1.0642 1.2212 1.0344 1.014 1.2339
1224.901 1.289 1.299 1.2668 1.359 1.609 1.899 2.089 2.499 3.019 3.509
1244.191 4.269 5.099 5.949 6.489 6.559 6.499 6.559 6.389 5.579 4.389
1263.481 3.129 2.379 2.249 2.089 1.949 2.029 1.969 1.939 1.989 2.009
1282.771 2.239 2.479 2.589 2.679 2.819 2.999 3.249 3.529 3.729 3.929
1302.060 4.289 4.759 5.269 5.959 6.689 7.389 8.199 9.109 10.089 11.139
1321.350 12.329 13.769 15.519 17.649 20.409 23.929 28.389 33.999 40.859 48.909
1340.640 57.799 66.769 74.829 81.129 85.079 86.159 84.159 79.089 71.069 60.869
1359.930 49.979 40.039 31.889 25.639 21.059 17.729 15.269 13.379 11.849 10.559
1379.219 9.459 8.519 7.629 6.849 6.109 5.369 4.719 4.159 3.719 3.349
1398.509 3.029 2.689 2.419 2.229 2.069 1.959 1.859 1.809 1.829 1.879
1417.799 1.949 2.069 2.319 2.589 2.889 3.299 3.769 4.249 4.819 5.419
1437.089 5.959 6.559 7.189 7.699 7.999 8.039 7.829 7.509 7.289 7.129
1456.378 6.779 6.189 5.549 5.029 4.669 4.399 4.159 3.989 3.969 3.969
1475.668 4.039 4.249 4.559 4.949 5.509 6.169 6.939 7.919 8.949 9.849
1494.958 10.569 11.189 11.759 12.329 12.779 13.059 13.329 13.789 14.489 15.299
1514.248 16.319 17.679 19.449 21.709 24.569 27.819 31.599 35.949 40.849 46.159
1533.538 51.669 57.129 61.649 64.739 65.999 65.709 65.149 65.159 64.369 61.109
1552.827 55.719 49.379 43.509 38.149 33.339 29.429 26.069 23.419 21.389 19.809
1572.117 18.659 17.819 17.059 16.159 15.109 13.969 12.869 11.759 10.559 9.379
1591.407 8.359 7.469 6.759 6.169 5.659 5.289 5.019 4.739 4.499 4.429
1610.697 4.419 4.379 4.519 4.739 4.969 5.309 5.789 6.429 7.269 8.259
1629.986 9.479 10.929 12.539 14.249 15.769 16.899 17.529 17.509 16.869 15.749
1649.276 14.109 12.179 9.969 7.829 6.269 5.149 4.429 4.029 3.709 3.469
1668.566 3.249 2.989 2.789 2.649 2.499 2.369 2.269 2.189 2.129 2.079
1687.856 1.989 1.939 1.899 1.849 1.799 1.749 1.729 1.699 1.619 1.569
1707.146 1.519 1.419 1.319 1.2004 1.1261 1.1074 1.0645 0.9925 0.9197 0.9263
1726.435 0.9562 0.9868 0.9988 0.9627 0.9616 1.0398 1.0741 1.0787 1.0291 1.0118
1745.725 1.0329 0.994 0.9879 0.9673 0.9076 0.8338 0.7758 0.6984 0.6536 0.6476
1765.015 0.6649 0.6644 0.636 0.6617 0.7252 0.8188 0.8922 0.9115 0.9609 1.0565
1784.305 1.1513 1.2466 1.359 1.499 1.609 1.689 1.699 1.639 1.589 1.519
1803.594 1.399 1.289 1.148 0.9967 0.9624 0.9779 0.9584 0.9306 0.8892 0.8368
1822.884 0.8199 0.7883 0.7511 0.7319 0.6491 0.6014 0.6255 0.6226 0.5803 0.5562
1842.174 0.5289 0.4989 0.5322 0.5363 0.5613 0.6121 0.6229 0.6144 0.6811 0.7964
1861.464 0.8126 0.8733 0.9531 0.9842 1.026 1.0578 1.1091 1.1659 1.191 1.2414
1880.754 1.2572 1.2564 1.369 1.429 1.429 1.459 1.479 1.459 1.369 1.2346
1900.043 1.1491 1.1278 1.069 0.9845 0.9387 0.9388 0.9546 0.9669 0.9905 1.0077
1919.333 0.9988 1.0312 1.0634 1.0885 1.1126 1.1313 1.1989 1.221 1.2405 1.279
1938.623 1.319 1.349 1.349 1.349 1.349 1.359 1.329 1.319 1.329 1.339
1957.913 1.339 1.369 1.339 1.289 1.2477 1.1586 1.0535 0.9157 0.826 0.7653
1977.202 0.6774 0.5514 0.4643 0.4645 0.4615 0.4353 0.4207 0.4407 0.4761 0.4916
1996.492 0.4649 0.4489 0.4522 0.4138 0.4023 0.422 0.4129 0.3654 0.36789 0.3865
2015.782 0.37385 0.33715 0.31673 0.33141 0.31263 0.31721 0.32785 0.28993 0.2535 0.2467
2035.072 0.287468 0.284863 0.286001 0.30462 0.29972 0.31936 0.30761 0.30138 0.34618 0.3871
2054.362 0.30797 0.31176 0.3808 0.36965 0.37489 0.37605 0.33945 0.33229 0.37362 0.4281
2073.651 0.4055 0.31787 0.34316 0.4079 0.406 0.4038 0.3832 0.33341 0.36195 0.36583
2092.941 0.34929 0.37135 0.35902 0.36175 0.3112 0.2618 0.281959 0.27243 0.2762 0.33412
2112.231 0.36393 0.36055 0.35877 0.34737 0.33206 0.32192 0.32147 0.284685 0.279819 0.27751
2131.521 0.282765 0.33453 0.325 0.26951 0.251 0.29769 0.32418 0.34556 0.3969 0.37619
2150.810 0.33856 0.33562 0.34692 0.31731 0.284541 0.2928 0.31895 0.32226 0.2577 0.2448
2170.100 0.29334 0.29376 0.280672 0.31165 0.284555 0.2639 0.288276 0.27625 0.27087 0.279338
2189.390 0.284324 0.30565 0.30815 0.31584 0.35135 0.32833 0.31258 0.30464 0.37853 0.4455
2208.680 0.3946 0.35751 0.35684 0.4143 0.381 0.397 0.4337 0.392 0.3827 0.3723
2227.970 0.35844 0.36385 0.4347 0.4333 0.397 0.4332 0.4412 0.4419 0.4396 0.4478
2247.259 0.4419 0.4832 0.4731 0.37129 0.35885 0.3879 0.399 0.4187 0.4746 0.478
2266.549 0.5013 0.5502 0.5179 0.476 0.4874 0.4865 0.5131 0.5357 0.5333 0.5296
2285.839 0.5689 0.6023 0.5745 0.5987 0.605 0.5543 0.5905 0.6883 0.6669 0.648
2305.129 0.6318 0.6237 0.6477 0.6575 0.7042 0.7469 0.7485 0.7161 0.753 0.7846
2324.418 0.7253 0.7025 0.614 0.5786 0.597 0.5407 0.5453 0.5162 0.4454 0.4523
2343.708 0.4953 0.4787 0.4315 0.4296 0.464 0.5015 0.531 0.5098 0.473 0.452
2362.998 0.4413 0.4017 0.36262 0.3796 0.4036 0.3812 0.4021 0.3984 0.34714 0.35871
2382.288 0.37141 0.3695 0.3439 0.34595 0.34048 0.32247 0.3929 0.4124 0.3941 0.3964
2401.578 0.33268 0.286682 0.3332 0.4017 0.4012 0.36797 0.35215 0.3815 0.37323 0.3868
2420.867 0.445 0.4382 0.4326 0.4205 0.4108 0.4115 0.3864 0.4061 0.4338 0.4136
2440.157 0.3882 0.3923 0.4153 0.3974 0.3658 0.36367 0.376 0.3811 0.3577 0.3791
2459.447 0.4094 0.36737 0.3987 0.4378 0.3999 0.37733 0.37776 0.4101 0.4361 0.4204
2478.737 0.4292 0.4904 0.5039 0.5187 0.5553 0.5427 0.5383 0.5322 0.5042 0.4994
2498.026 0.5307 0.5562 0.5912 0.5793 0.5416 0.5572 0.5827 0.597 0.5469 0.5391
2517.316 0.5706 0.5233 0.4788 0.4884 0.5017 0.4459 0.4395 0.5575 0.5528 0.4767
2536.606 0.5048 0.4534 0.4045 0.4248 0.4513 0.4841 0.4623 0.4443 0.4352 0.4258
2555.896 0.418 0.4317 0.473 0.4482 0.4447 0.4319 0.4644 0.532 0.501 0.4711
2575.186 0.4819 0.5185 0.5377 0.5122 0.5568 0.6406 0.6298 0.6444 0.7459 0.7765
2594.475 0.7502 0.8043 0.8031 0.7831 0.7839 0.7251 0.7272 0.7383 0.7247 0.7109
2613.765 0.6822 0.6502 0.6171 0.5814 0.5085 0.477 0.4857 0.4682 0.401 0.4056
2633.055 0.4955 0.5394 0.4921 0.4267 0.417 0.4575 0.4344 0.4396 0.4863 0.4623
2652.345 0.4255 0.3978 0.3953 0.287493 0.2173 0.36925 0.4695 0.5245 0.5498 0.4505
2671.634 0.3885 0.3977 0.4535 0.48 0.4969 0.4731 0.3893 0.3843 0.5516 0.6239
2690.924 0.5271 0.4015 0.4505 0.5491 0.5115 0.5677 0.5507 0.488 0.5062 0.4761
2710.214 0.4081 0.37757 0.3973 0.436 0.4043 0.376 0.4202 0.4395 0.3846 0.4021
2729.504 0.4675 0.426 0.3903 0.4154 0.4254 0.4288 0.4383 0.4494 0.4613 0.4388
2748.794 0.411 0.4478 0.4451 0.37283 0.33099 0.4006 0.4121 0.36856 0.4803 0.5321
2768.083 0.495 0.502 0.4355 0.4035 0.4382 0.4577 0.4993 0.5973 0.6008 0.5701
2787.373 0.651 0.6296 0.5905 0.5848 0.563 0.6161 0.6558 0.646 0.6327 0.5759
2806.663 0.5571 0.5895 0.6707 0.7207 0.6724 0.6364 0.6299 0.6421 0.7282 0.809
2825.953 0.8092 0.7743 0.7701 0.7645 0.7831 0.8316 0.8735 0.9835 1.0386 1.028
2845.242 1.0404 1.087 1.0887 1.1232 1.201 1.2631 1.339 1.399 1.439 1.489
2864.532 1.579 1.679 1.659 1.689 1.779 1.849 1.889 1.879 1.979 1.979
2883.822 1.959 2.029 2.019 1.949 1.859 1.829 1.759 1.669 1.669 1.579
2903.112 1.469 1.459 1.439 1.339 1.299 1.329 1.289 1.2517 1.2495 1.1698
2922.401 1.0209 0.9765 0.9984 0.9863 0.9295 0.8836 0.8733 0.7762 0.6402 0.7651
2941.691 0.8614 0.7566 0.7563 0.7719 0.7754 0.8075 0.7631 0.7478 0.7324 0.6081
2960.981 0.555 0.6007 0.6703 0.6429 0.601 0.6942 0.8089 0.8584 0.9026 0.9703
2980.271 0.9939 0.9748 1.0956 1.1056 1.038 1.0893 1.0811 1.0974 1.1819 1.2151
2999.561 1.1804 1.1479 1.116 1.094 1.1906 1.299 1.399 1.509 1.639 1.819
3018.850 2.069 2.419 2.729 3.119 3.609 4.199 4.739 5.179 5.699 5.879
3038.140 5.909 6.009 5.959 5.779 5.479 5.119 4.779 4.599 4.529 4.549
3057.430 4.729 5.019 5.489 6.189 7.099 8.239 9.219 9.739 9.889 9.979
3076.720 10.109 9.899 9.269 8.339 7.459 6.979 6.719 6.519 6.349 6.209
3096.009 6.159 5.939 5.669 5.519 5.449 5.339 5.209 5.209 5.189 5.079
3115.299 4.729 4.319 3.979 3.499 2.909 2.259 1.709 1.409 1.1117 0.9911
3134.589 0.9474 0.7547 0.6913 0.6758 0.7326 0.7671 0.7306 0.7324 0.8189 0.8813
3153.879 0.751 0.5778 0.5144 0.5316 0.5077 0.5283 0.5135 0.4752 0.4501 0.36576
3173.169 0.4219 0.4788 0.5265 0.5813 0.4593 0.4471 0.4699 0.5105 0.5295 0.4344
3192.458 0.3897 0.32853 0.2665 0.32001 0.32924 0.33093 0.3667 0.34037 0.3985 0.4335
3211.748 0.36377 0.4068 0.3868 0.29023 0.3877 0.4134 0.3847 0.4362 0.483 0.4447
3231.038 0.36727 0.29999 0.34778 0.4795 0.4825 0.36186 0.36102 0.4653 0.4021 0.34068
3250.328 0.36229 0.29799 0.2987 0.32072 0.35692 0.34987 0.37501 0.37608 0.2269 0.145
3269.617 0.132 0.1888 0.35202 0.34662 0.1949 0.2352 0.33121 0.37898 0.3989 0.302
3288.907 0.194 0.2037 0.4053 0.5331 0.405 0.31036 0.283153 0.2384 0.243 0.178
3308.197 0.2397 0.32057 0.1919 0.197 0.2294 0.168 0.2104 0.33353 0.32635 0.2304
3327.487 0.207 0.29159 0.27737 0.177 0.076 0.136 0.28276 0.31779 0.37567 0.31252
3346.777 0.2159 0.1829 0.067 0.051 0.092 0.104 0.1854 0.29137 0.2616 0.2651
3366.066 0.34784 0.2996 0.2641 0.1933 0.138 0.2246 0.16 0.12 0.27342 0.4034
3385.356 0.36106 0.33566 0.3011 0.2285 0.2679 0.30096 0.29001 0.2303 0.2045 0.2058
3404.646 0.286171 0.175 0.135 0.283429 0.2012 0.2598 0.33918 0.2311 0.2564 0.3948
3423.936 0.34865 0.325 0.4249 0.3871 0.30776 0.32948 0.3112 0.2468 0.2508 0.2538
3443.225 0.2351 0.2321 0.27161 0.34818 0.3907 0.2467 0.2679 0.31068 0.2265 0.178
3462.515 0.162 0.14 0.169 0.27844 0.2495 0.2308 0.165 0.135 0.2929 0.3813
3481.805 0.29087 0.088 0.073 0.224 0.221 0.2356 0.3123 0.32337 0.37368 0.454
3501.095 0.4138 0.32654 0.27462 0.2438 0.137 0.084 0.159 0.134 0.131 0.2212
3520.385 0.2025 0.153 0.2285 0.27198 0.36373 0.4646 0.3367 0.31621 0.30482 0.155
3539.674 0.1857 0.174 0.2172 0.285443 0.129 0.089 0.157 0.2843 0.3984 0.280174
3558.964 0.175 0.147 0.03 0.144 0.3739 0.4028 0.4359 0.34304 0.29291 0.36301
3578.254 0.2625 0.139 0.31929 0.4678 0.30397 0.142 0.164 0.279248 0.33854 0.32273
3597.544 0.2511 0.2054 0.174 0.29829 0.34146 0.206 0.2344 0.281372 0.2332 0.152
3616.833 0.2 0.2629 0.284871 0.36346 0.2771 0.279574 0.4185 0.4126 0.33456 0.287275
3636.123 0.2465 0.284105 0.286634 0.35154 0.33134 0.31884 0.4055 0.35514 0.29783 0.3967
3655.413 0.5081 0.34924 0.2561 0.29884 0.30001 0.2609 0.2635 0.383 0.4597 0.36134
3674.703 0.36639 0.34577 0.4021 0.3998 0.168 0.178 0.286779 0.34415 0.3922 0.405
3693.993 0.4792 0.4558 0.3532 0.3859 0.4372 0.395 0.28933 0.2107 0.2017 0.078
3713.282 0 0.185 0.281064 0.29476 0.30192 0.30813 0.35043 0.35792 0.30894 0.31328
3732.572 0.36847 0.3886 0.4809 0.3873 0.2386 0.31459 0.2409 0.093 0.1852 0.34633
3751.862 0.4626 0.26 0.071 0.218 0.2554 0.1855 0.194 0.2238 0.2474 0.2466
3771.152 0.281022 0.35475 0.27431 0.2315 0.27671 0.2381 0.2442 0.29334 0.279331 0.2461
3790.441 0.27266 0.241 0.1927 0.2116 0.30878 0.4153 0.3964 0.477 0.5132 0.4047
3809.731 0.31565 0.161 0.2317 0.2631 0.2166 0.2317 0.2167 0.29974 0.33874 0.467
3829.021 0.5055 0.27451 0.2396 0.2386 0.2301 0.280813 0.29177 0.3931 0.4645 0.4913
3848.311 0.32633 0.1791 0.27017 0.31491 0.1958 0.1 0.3241 0.33048 0.2072 0.2577
3867.601 0.165 0.129 0.2339 0.499 0.5011 0.3908 0.4067 0.3848 0.34834 0.4222
3886.890 0.415 0.37544 0.4558 0.31351 0.2322 0.3181 0.34653 0.27653 0.2279 0.33087
3906.180 0.2679 0.2357 0.4439 0.5301 0.29325 0.2347 0.36268 0.33755 0.4181 0.3839
3925.470 0.2306 0.148 0.27527 0.4783 0.3783 0.27567 0.3815 0.4128 0.28936 0.2543
3944.760 0.4162 0.35304 0.2125 0.2085 0.36959 0.5265 0.4298 0.4619 0.4642 0.425
3964.049 0.4399 0.35357 0.31401 0.34106 0.4157 0.4908 0.4051 0.4196 0.5292 0.36976
3983.339 0.36176 0.5311 0.4437 0.4336 0.4203 0.4544 0.5409 0.4804 0.4051 0.3802
##END=
