##TITLE=Nitrosobenzene
##JCAMP-DX=4.24
##DATA TYPE=INFRARED SPECTRUM
##ORIGIN=NIST Mass Spectrometry Data Center
##OWNER=NIST Standard Reference Data Program
Collection (C) 2018 copyright by the U.S. Secretary of Commerce
on behalf of the United States of America. All rights reserved.
##CAS REGISTRY NO=586-96-9
##MOLFORM=C 6 H 5 N O
##$NIST SOURCE=MSDC-IR
##SPECTROMETER/DATA SYSTEM=HP-GC/MS/IRD
##STATE=gas
##XUNITS=1/CM
##YUNITS=ABSORBANCE
##XFACTOR=1.0
##YFACTOR=0.000003900
##DELTAX=4.0
##FIRSTX=550.0
##LASTX=3846.0
##FIRSTY=0.000480
##MAXX=3846
##MINX=550
##MAXY=0.039
##MINY=0
##NPOINTS=825
##XYDATA=(X++(Y..Y))
550.0 123 84 57 63 39 33 43 32 27 11
590.0 8 32 29 29 36 19 30 53 73 93
630.0 112 149 204 278 392 575 812 1070 1331 1554
670.0 1712 1895 2422 2512 2081 1884 1700 1577 1453 1295
710.0 1160 1114 1185 1407 1747 2135 2498 2859 3533 4747
750.0 4855 3739 3275 3157 2906 2549 2132 1816 1645 1614
790.0 1710 1885 2128 2422 2660 2739 2616 2291 1885 1408
830.0 1010 879 901 901 837 772 725 612 453 341
870.0 287 260 245 228 211 205 211 230 269 327
910.0 372 399 429 461 508 514 402 329 300 250
950.0 199 141 102 84 87 90 96 117 151 192
990.0 220 255 322 423 599 710 689 658 629 572
1030.0 439 305 264 266 307 382 483 576 639 735
1070.0 909 1135 1472 2027 2901 4168 5690 7078 7993 8369
1110.0 8250 7599 6249 4348 2662 1648 1134 854 663 570
1150.0 555 555 606 727 799 753 675 591 513 329
1190.0 131 50 25 10 0 6 10 9 26 58
1230.0 80 102 132 162 179 194 217 249 274 303
1270.0 342 375 397 398 417 467 583 791 1000 1088
1310.0 1109 1087 1055 928 628 373 254 203 186 183
1350.0 173 154 133 124 123 122 123 130 131 128
1390.0 127 125 126 123 124 148 193 255 349 517
1430.0 801 1276 1991 2763 3229 3541 3756 3893 3536 2499
1470.0 1761 1469 1289 1047 896 972 1338 2233 4015 6731
1510.0 9081 9918 10000 9714 9324 7240 3837 1688 850 545
1550.0 402 321 263 232 219 227 238 249 261 278
1590.0 298 318 333 339 334 320 304 275 237 202
1630.0 168 131 106 90 75 63 66 84 97 112
1670.0 126 132 139 141 134 128 117 108 100 90
1710.0 84 76 66 64 65 62 64 73 83 96
1750.0 108 124 136 138 139 137 139 144 144 153
1790.0 169 188 208 220 216 200 178 146 110 84
1830.0 68 63 56 46 44 48 48 49 58 73
1870.0 86 102 124 146 173 195 214 231 254 273
1910.0 275 253 221 196 169 150 140 145 161 183
1950.0 197 206 218 224 219 199 165 131 99 74
1990.0 50 34 28 24 23 19 19 22 19 16
2030.0 18 15 15 16 10 8 10 7 2 3
2070.0 5 5 7 9 9 12 13 11 13 17
2110.0 16 13 10 10 7 4 5 6 7 5
2150.0 11 15 11 10 14 16 20 27 32 37
2190.0 42 47 54 61 64 63 53 48 48 40
2230.0 32 32 31 33 33 30 33 36 39 43
2270.0 41 38 33 31 33 32 34 36 46 65
2310.0 80 89 100 109 101 88 78 71 61 45
2350.0 37 42 48 49 47 44 40 40 36 28
2390.0 25 27 25 27 35 32 30 30 24 24
2430.0 25 23 22 19 17 13 12 16 12 9
2470.0 11 12 14 14 12 8 5 4 5 8
2510.0 9 9 10 10 12 13 11 12 3 1
2550.0 5 7 8 9 5 9 17 22 31 36
2590.0 38 37 36 36 40 45 52 51 43 41
2630.0 47 44 33 29 31 30 29 24 23 28
2670.0 33 48 57 61 64 74 78 69 66 66
2710.0 57 47 36 22 17 22 29 33 37 36
2750.0 33 38 38 34 30 30 34 31 23 18
2790.0 20 21 21 16 15 19 21 20 16 12
2830.0 12 15 22 25 25 32 34 36 42 43
2870.0 39 50 59 58 68 78 82 90 97 95
2910.0 87 82 80 86 95 101 99 106 123 142
2950.0 171 189 191 194 194 172 142 127 113 110
2990.0 122 127 131 148 179 215 249 285 330 367
3030.0 400 445 512 594 684 815 1009 1257 1559 1884
3070.0 2118 2199 2172 2071 1852 1483 1104 819 615 456
3110.0 333 255 197 140 104 89 71 63 62 49
3150.0 43 49 50 45 46 54 52 53 59 62
3190.0 48 41 41 34 34 24 28 28 19 20
3230.0 14 12 19 9 6 19 22 22 23 24
3270.0 14 6 14 20 19 24 27 16 13 24
3310.0 29 15 3 8 18 26 19 15 16 15
3350.0 15 8 6 14 13 13 21 24 25 21
3390.0 20 19 15 16 28 29 15 15 13 14
3430.0 19 29 32 21 8 8 26 27 22 21
3470.0 21 28 26 22 32 40 28 12 8 15
3510.0 20 18 24 20 15 13 7 1 12 31
3550.0 28 19 19 24 16 9 16 16 10 15
3590.0 14 13 20 23 30 33 29 25 30 31
3630.0 26 24 27 25 24 23 29 30 33 38
3670.0 41 39 31 38 47 44 51 56 48 45
3710.0 47 42 40 38 37 43 44 48 42 29
3750.0 32 31 28 29 24 22 28 38 34 36
3790.0 35 29 34 33 37 32 17 20 35 43
3830.0 37 32 32 32 39
##END=
