##TITLE=3-Ethylaniline
##JCAMP-DX=4.24
##DATA TYPE=INFRARED SPECTRUM
##ORIGIN=NIST Mass Spectrometry Data Center
##OWNER=NIST Standard Reference Data Program
Collection (C) 2018 copyright by the U.S. Secretary of Commerce
on behalf of the United States of America. All rights reserved.
##CAS REGISTRY NO=587-02-0
##MOLFORM=C 8 H 11 N
##$NIST SOURCE=MSDC-IR
##SPECTROMETER/DATA SYSTEM=HP-GC/MS/IRD
##STATE=gas
##XUNITS=1/CM
##YUNITS=ABSORBANCE
##XFACTOR=1.0
##YFACTOR=0.000002100
##DELTAX=4.0
##FIRSTX=550.0
##LASTX=3846.0
##FIRSTY=0.001069
##MAXX=3846
##MINX=550
##MAXY=0.021
##MINY=0
##NPOINTS=825
##XYDATA=(X++(Y..Y))
550.0 509 712 520 589 576 577 591 607 591 614
590.0 593 600 619 615 635 659 679 683 742 829
630.0 929 1080 1282 1560 1938 2418 3006 3632 4129 4444
670.0 4601 4579 4353 4104 4057 4039 3646 3076 2643 2257
710.0 1882 1592 1414 1330 1311 1297 1305 1345 1405 1510
750.0 1677 1916 2199 2508 2813 3147 3392 3263 2848 2413
790.0 2004 1582 1234 981 788 679 592 551 542 538
830.0 556 620 732 870 1035 1265 1519 1583 1446 1280
870.0 1100 935 814 735 745 869 1058 1206 1254 1224
910.0 1099 858 558 311 168 119 118 100 90 122
950.0 139 144 155 177 211 229 246 266 279 308
990.0 329 316 301 283 247 189 140 128 133 178
1030.0 218 271 367 428 500 597 697 763 788 843
1070.0 880 867 828 813 768 671 555 428 333 246
1110.0 169 138 109 84 84 96 98 114 134 205
1150.0 353 563 831 1037 1104 1062 962 709 387 167
1190.0 62 18 0 1 0 16 34 46 61 90
1230.0 137 181 241 315 404 540 688 883 1159 1532
1270.0 1959 2389 2743 2943 3000 2896 2592 2192 1853 1632
1310.0 1533 1524 1544 1529 1432 1290 1102 876 632 425
1350.0 289 219 179 162 182 202 231 270 288 300
1390.0 308 309 319 336 347 358 399 454 515 614
1430.0 764 969 1260 1645 2134 2648 3016 3179 3201 3089
1470.0 2766 2420 2295 2436 2709 2893 2891 2756 2470 1986
1510.0 1446 1086 897 802 740 703 682 693 737 778
1550.0 830 906 1022 1184 1400 1726 2187 2817 3554 4412
1590.0 5389 6481 7439 8068 8579 9179 9724 10000 9857 9226
1630.0 8143 6647 4950 3475 2389 1688 1244 962 793 679
1670.0 583 511 455 416 407 409 420 452 479 481
1710.0 478 472 443 406 368 327 289 247 202 172
1750.0 158 144 128 107 94 93 90 87 88 89
1790.0 100 117 131 150 175 207 229 228 218 214
1830.0 199 169 149 139 124 108 100 92 84 86
1870.0 97 109 119 135 162 196 229 260 283 289
1910.0 288 268 231 189 151 128 118 115 106 109
1950.0 112 110 108 100 91 89 87 87 85 81
1990.0 84 93 100 104 109 107 104 116 127 130
2030.0 127 123 121 121 134 143 144 139 130 122
2070.0 117 122 112 98 100 99 90 90 100 98
2110.0 98 95 97 108 116 115 106 104 109 116
2150.0 114 112 112 109 106 103 110 122 117 109
2190.0 108 100 97 93 93 93 92 94 90 85
2230.0 90 101 105 108 109 98 100 105 112 124
2270.0 123 125 132 128 116 108 107 105 105 107
2310.0 112 117 120 133 143 139 136 138 147 149
2350.0 138 137 134 132 131 129 127 116 109 106
2390.0 102 93 89 93 93 95 94 93 106 120
2430.0 115 117 121 121 122 122 108 105 111 108
2470.0 105 105 110 110 107 107 114 120 115 103
2510.0 97 95 93 88 95 105 107 107 111 112
2550.0 108 107 111 117 128 126 113 115 122 125
2590.0 124 126 124 126 135 136 133 138 139 136
2630.0 139 133 126 130 142 138 131 122 123 119
2670.0 123 137 129 129 128 141 146 135 135 149
2710.0 157 161 165 172 182 196 219 228 223 230
2750.0 245 234 220 228 218 222 248 257 257 263
2790.0 270 271 278 287 285 294 314 341 378 418
2830.0 461 499 542 606 684 780 916 1092 1277 1478
2870.0 1706 1921 2126 2298 2375 2386 2390 2372 2308 2260
2910.0 2234 2241 2303 2461 2743 3129 3556 3867 3990 3986
2950.0 3906 3825 3984 4594 5378 5836 5783 5435 4707 3572
2990.0 2659 2199 2038 2066 2198 2356 2516 2688 2841 2978
3030.0 3166 3331 3364 3300 3169 2944 2658 2377 2161 1988
3070.0 1816 1651 1460 1269 1087 926 823 743 667 611
3110.0 577 526 462 408 365 332 305 286 265 246
3150.0 247 242 233 222 208 218 228 217 198 187
3190.0 193 207 199 211 224 228 255 262 260 263
3230.0 266 260 229 212 202 181 176 189 180 168
3270.0 155 136 135 140 139 131 106 109 125 120
3310.0 121 124 105 94 105 111 105 91 90 101
3350.0 105 117 148 140 138 184 218 263 315 365
3390.0 461 574 682 756 782 810 768 668 599 524
3430.0 431 335 294 284 253 257 273 277 312 368
3470.0 431 521 623 691 715 722 725 683 601 546
3510.0 480 399 334 269 234 219 178 144 135 124
3550.0 126 138 124 124 148 144 134 126 121 124
3590.0 118 116 118 119 117 112 121 130 125 125
3630.0 123 111 127 121 112 109 107 115 115 126
3670.0 127 115 121 132 124 128 139 142 127 127
3710.0 145 153 145 152 160 156 181 181 171 163
3750.0 149 151 144 150 163 162 164 158 140 133
3790.0 125 116 140 162 146 139 133 123 128 155
3830.0 175 146 144 168 166
##END=
