##TITLE=1-Iodo-3,4-methylenedioxybenzene
##JCAMP-DX=4.24
##DATA TYPE=INFRARED SPECTRUM
##ORIGIN=EPA-IR VAPOR PHASE LIBRARY
##OWNER=SRD/NIST
Collection (C) 2018 copyright by the U.S. Secretary of Commerce
on behalf of the United States of America. All rights reserved.
##CAS REGISTRY NO=5876-51-7
##MOLFORM=C 7 H 5 I O 2
##$NIST SOURCE=MSDC-IR
##STATE=gas
##XUNITS=1/CM
##YUNITS=ABSORBANCE
##XFACTOR=1.
##YFACTOR=0.001
##DELTAX=1.92898
##FIRSTX=549.8
##LASTX=4000.7
##FIRSTY=1.813
##MAXX=4000.7
##MINX=549.759
##MAXY=0.303793
##MINY=0
##NPOINTS=1790
##XYDATA=(X++(Y..Y))
549.759 1.813 2.293 2.683 3.343 5.503 8.813 12.653 15.503 16.143 16.303
569.049 17.663 17.533 13.813 9.593 7.363 6.003 4.593 3.693 3.073 2.483
588.339 1.793 1.373 1.1409 0.7419 0.7093 0.6377 0.5475 0.6574 0.5378 0.4872
607.628 0.5196 0.5214 0.5155 0.6681 0.9659 1.1569 1.223 1.163 1.443 1.583
626.918 1.643 2.003 2.253 2.273 2.153 2.033 1.913 1.823 1.523 1.313
646.208 1.633 2.033 2.603 3.363 4.213 5.423 6.733 7.743 8.623 9.023
665.498 8.753 8.073 6.593 4.913 3.513 2.293 1.663 1.243 0.8385 0.7331
684.787 0.779 0.5495 0.5659 0.6425 0.4826 0.4732 0.3719 0.428 0.511 0.5772
704.077 0.5423 0.5271 0.9193 1.263 1.803 2.633 3.233 3.513 3.543 3.623
723.367 3.413 2.513 1.453 0.8161 0.6057 0.4762 0.3099 0.3583 0.4784 0.4209
742.657 0.4695 0.276 0.1856 0.388 0.4779 0.4626 0.4822 0.6516 0.7385 0.8747
761.947 0.9411 0.8315 0.9457 1.403 2.003 2.503 3.073 4.053 5.633 7.603
781.236 9.973 12.823 16.073 19.733 23.713 27.693 31.433 35.403 39.813 42.213
800.526 39.163 34.613 32.043 28.953 24.823 20.623 16.933 13.753 11.243 9.473
819.816 8.183 7.453 6.913 6.613 6.623 6.583 6.733 7.203 7.793 8.553
839.106 9.673 11.253 12.813 13.803 15.003 17.153 20.363 22.433 23.013 26.083
858.395 31.273 36.063 38.903 38.973 37.903 36.243 32.033 24.453 16.873 11.843
877.685 8.853 7.183 5.903 4.933 4.393 4.033 3.953 4.033 3.933 3.753
896.975 3.753 4.003 4.153 4.183 4.483 4.913 5.323 5.743 6.383 7.473
916.265 8.633 9.643 10.913 12.483 14.493 16.563 18.823 21.453 24.243 27.203
935.555 29.873 32.313 34.703 36.683 37.583 37.283 36.073 34.153 31.993 29.283
954.844 25.443 21.113 17.343 14.223 11.803 9.763 8.153 7.013 6.113 5.323
974.134 4.713 4.393 4.273 4.243 4.193 4.303 4.333 4.373 4.613 4.773
993.424 4.893 5.243 5.563 5.793 6.533 7.173 7.743 8.723 9.693 10.783
1012.714 12.353 14.313 16.713 19.633 23.013 26.683 30.743 35.513 40.653 45.163
1032.003 49.373 54.193 59.643 64.883 69.163 73.093 76.363 78.223 78.393 76.493
1051.293 72.513 66.963 61.323 56.133 50.893 45.723 40.473 35.363 30.373 26.253
1070.583 22.463 19.073 16.613 14.593 13.283 12.703 12.763 12.863 13.603 14.373
1089.873 15.273 17.423 19.313 21.193 23.573 25.593 26.573 26.923 27.313 26.833
1109.163 25.473 23.993 22.553 21.043 19.843 18.643 17.163 15.993 15.283 14.473
1128.452 13.053 11.793 11.213 10.703 10.323 10.623 10.953 11.343 12.453 13.943
1147.742 16.223 18.993 21.683 23.273 23.453 23.203 22.263 19.573 15.633 11.863
1167.032 9.073 7.143 5.723 5.273 4.943 4.493 4.403 4.543 4.803 5.133
1186.322 5.233 5.483 6.353 7.463 8.863 10.593 13.013 16.083 19.533 23.953
1205.611 29.563 36.593 45.823 58.583 75.863 97.853 124.353 155.703 189.253 219.203
1224.901 240.853 249.403 243.463 224.423 195.123 158.843 120.283 87.073 64.093 50.593
1244.191 43.223 38.653 34.913 31.013 27.603 24.833 21.583 18.223 15.353 13.343
1263.481 12.063 11.043 10.183 9.433 8.803 8.303 7.623 7.023 6.883 6.943
1282.771 7.023 6.933 6.933 6.863 6.643 6.413 6.113 5.783 5.533 5.463
1302.060 5.563 6.053 6.943 7.983 9.283 10.993 13.203 15.933 19.083 22.513
1321.350 25.903 29.053 31.853 33.743 33.903 31.833 28.373 24.443 20.003 15.053
1340.640 10.553 7.503 5.793 4.813 4.113 3.793 3.733 3.683 3.763 3.993
1359.930 4.353 4.693 5.003 5.243 5.313 5.353 5.313 5.183 4.983 4.733
1379.219 4.623 4.643 4.953 5.703 6.853 8.513 10.663 12.843 14.463 15.463
1398.509 16.293 16.953 16.943 16.463 16.573 17.833 20.073 23.223 27.373 32.103
1417.799 36.083 38.013 37.803 36.383 34.103 30.363 25.263 20.553 17.523 16.003
1437.089 15.233 14.873 14.863 15.403 16.493 18.203 20.903 25.003 31.133 39.633
1456.378 51.093 65.453 82.523 103.423 129.743 163.663 204.223 247.263 283.793 303.793
1475.668 303.393 290.033 267.003 227.703 174.193 124.693 91.423 72.003 59.753 50.233
1494.958 41.543 34.463 30.663 30.113 31.133 31.123 29.443 27.883 26.253 22.683
1514.248 17.593 13.183 10.513 9.103 8.283 7.853 7.703 7.423 6.993 6.533
1533.538 5.933 5.183 4.483 3.823 3.263 2.903 2.513 2.243 2.183 2.083
1552.827 1.943 1.893 1.923 1.903 1.943 2.023 2.103 2.333 2.623 2.843
1572.117 3.143 3.493 3.893 4.443 4.893 5.343 5.923 6.403 6.743 6.993
1591.407 7.083 7.033 7.003 7.053 6.983 6.853 6.663 6.373 6.013 5.633
1610.697 5.213 4.763 4.353 3.993 3.763 3.583 3.373 3.153 3.053 2.933
1629.986 2.743 2.643 2.573 2.493 2.363 2.233 2.193 2.113 2.053 1.973
1649.276 1.893 1.823 1.723 1.623 1.503 1.433 1.433 1.373 1.313 1.363
1668.566 1.393 1.383 1.403 1.403 1.423 1.543 1.643 1.813 2.003 2.183
1687.856 2.443 2.713 3.003 3.343 3.553 3.593 3.573 3.613 3.673 3.593
1707.146 3.303 3.013 2.803 2.533 2.343 2.303 2.313 2.263 2.373 2.543
1726.435 2.763 2.953 2.933 2.973 2.933 2.653 2.313 2.023 1.903 1.843
1745.725 1.823 1.863 1.833 1.883 2.013 2.133 2.203 2.263 2.353 2.393
1765.015 2.373 2.333 2.343 2.273 2.193 2.073 1.903 1.843 1.803 1.743
1784.305 1.763 1.793 1.823 1.883 1.873 1.853 1.903 1.963 1.983 1.993
1803.594 2.073 2.203 2.313 2.423 2.573 2.733 2.833 2.983 3.173 3.323
1822.884 3.453 3.583 3.643 3.693 3.623 3.443 3.313 3.233 3.053 2.783
1842.174 2.523 2.303 2.193 2.123 2.053 2.003 1.983 1.983 2.033 2.053
1861.464 2.033 2.043 2.083 2.173 2.243 2.303 2.423 2.573 2.653 2.703
1880.754 2.793 2.823 2.823 2.863 2.813 2.683 2.553 2.343 2.123 1.873
1900.043 1.633 1.473 1.263 1.073 0.9213 0.8261 0.7932 0.7639 0.7496 0.7259
1919.333 0.7233 0.7303 0.698 0.6175 0.6118 0.6801 0.6288 0.6253 0.6966 0.6835
1938.623 0.6275 0.7105 0.8242 0.7904 0.7857 0.8384 0.9334 0.9766 1.029 1.1122
1957.913 1.193 1.293 1.383 1.453 1.483 1.513 1.513 1.503 1.473 1.373
1977.202 1.293 1.263 1.203 1.1414 1.1442 1.163 1.0927 1.0621 1.0603 1.0884
1996.492 1.0733 1.0833 1.213 1.333 1.493 1.603 1.703 1.893 2.093 2.253
2015.782 2.403 2.613 2.783 2.793 2.743 2.673 2.603 2.443 2.263 2.223
2035.072 2.143 2.033 1.993 1.933 1.893 1.913 1.893 1.863 1.793 1.723
2054.362 1.683 1.613 1.533 1.513 1.473 1.383 1.313 1.273 1.263 1.223
2073.651 1.173 1.193 1.243 1.223 1.193 1.223 1.163 1.1207 1.0948 1.0641
2092.941 1.0478 1.0341 1.0187 0.9403 0.9204 0.9112 0.8738 0.882 0.8481 0.8073
2112.231 0.8106 0.8502 0.831 0.7792 0.7887 0.8079 0.8642 0.8627 0.7935 0.7677
2131.521 0.7832 0.8403 0.8056 0.7876 0.8353 0.8205 0.7617 0.6833 0.6433 0.6232
2150.810 0.5675 0.6138 0.6805 0.6308 0.5636 0.5096 0.5314 0.5828 0.5354 0.5809
2170.100 0.6729 0.6512 0.6834 0.6849 0.6314 0.6653 0.7331 0.7659 0.8033 0.8781
2189.390 0.8939 0.899 0.8985 0.8938 0.8675 0.8411 0.8773 0.8233 0.7733 0.7844
2208.680 0.7743 0.7709 0.7705 0.8231 0.8893 0.8823 0.845 0.876 0.9931 1.0182
2227.970 0.9378 0.8546 0.7956 0.7768 0.7224 0.692 0.7996 0.8934 0.9454 0.9722
2247.259 0.9214 1.0043 1.183 1.263 1.353 1.433 1.533 1.653 1.683 1.703
2266.549 1.693 1.703 1.763 1.823 1.853 1.743 1.713 1.783 1.683 1.643
2285.839 1.583 1.513 1.493 1.433 1.403 1.413 1.393 1.393 1.503 1.513
2305.129 1.443 1.443 1.413 1.293 1.263 1.203 1.0799 1.0792 1.0242 0.9137
2324.418 0.8769 0.8298 0.8297 0.8448 0.8142 0.7379 0.636 0.6538 0.7329 0.7258
2343.708 0.7 0.693 0.6385 0.6255 0.6836 0.6761 0.6653 0.7054 0.743 0.7297
2362.998 0.6841 0.7059 0.7113 0.6572 0.6326 0.6289 0.635 0.5995 0.5427 0.5326
2382.288 0.5268 0.5178 0.4869 0.4325 0.4706 0.5734 0.6109 0.5277 0.4958 0.5234
2401.578 0.4927 0.5261 0.5523 0.509 0.4866 0.5081 0.4581 0.4358 0.4389 0.4561
2420.867 0.6016 0.5785 0.6138 0.6891 0.6719 0.7226 0.808 0.8986 0.9484 0.9685
2440.157 0.9997 1.0923 1.1277 1.223 1.333 1.343 1.473 1.583 1.613 1.673
2459.447 1.683 1.713 1.743 1.743 1.763 1.663 1.513 1.473 1.393 1.283
2478.737 1.1398 1.0401 0.983 0.9368 0.9439 0.934 0.9108 0.8294 0.8434 0.8692
2498.026 0.7839 0.7799 0.8565 0.7728 0.7559 0.861 0.9091 1.0061 0.9399 0.891
2517.316 0.9615 0.9795 1.0596 1.0949 0.9923 1.0018 1.131 1.183 1.203 1.343
2536.606 1.493 1.463 1.463 1.563 1.723 1.873 1.883 1.903 1.973 2.043
2555.896 2.033 2.043 2.013 1.853 1.783 1.743 1.543 1.353 1.273 1.193
2575.186 1.1388 1.0614 1.1016 1.0986 1.0061 1.0139 0.9575 0.756 0.708 0.7474
2594.475 0.6938 0.7048 0.727 0.7326 0.7635 0.8449 0.7841 0.7173 0.7751 0.7704
2613.765 0.7933 0.841 0.9835 1.0291 1.0031 1.0585 1.0117 1.0532 1.183 1.163
2633.055 1.1257 1.1358 1.132 1.203 1.1603 1.183 1.313 1.253 1.193 1.173
2652.345 1.1122 1.0969 1.0366 0.9851 1.0207 1.0414 1.0055 0.8908 0.8866 0.8991
2671.634 0.9846 1.1532 1.203 1.1179 1.0774 1.173 1.243 1.303 1.363 1.423
2690.924 1.493 1.553 1.573 1.623 1.613 1.473 1.373 1.473 1.423 1.183
2710.214 1.213 1.343 1.293 1.203 1.203 1.293 1.343 1.363 1.373 1.383
2729.504 1.433 1.383 1.403 1.463 1.533 1.673 1.713 1.833 2.013 2.163
2748.794 2.243 2.453 2.703 2.883 3.193 3.473 3.863 4.443 5.133 5.943
2768.083 6.813 7.593 8.343 8.893 8.813 8.393 7.853 7.103 5.973 4.893
2787.373 4.063 3.493 3.173 2.963 2.843 2.843 2.913 3.023 3.163 3.233
2806.663 3.303 3.563 3.753 3.753 3.823 3.913 4.053 4.313 4.503 4.633
2825.953 4.793 4.903 5.093 5.283 5.523 5.813 6.023 6.203 6.603 6.983
2845.242 7.293 7.693 8.213 8.903 9.553 10.293 11.163 12.193 13.333 14.433
2864.532 15.643 16.843 18.013 19.203 20.113 21.093 22.103 22.913 23.723 24.323
2883.822 24.773 25.323 25.653 25.553 25.223 24.843 24.403 23.833 23.423 23.233
2903.112 23.433 23.873 24.303 24.733 24.963 25.113 24.913 24.403 23.803 23.203
2922.401 22.693 21.913 21.313 20.913 20.403 19.993 19.603 19.113 18.653 18.173
2941.691 17.693 17.363 16.923 16.353 15.813 15.283 14.763 14.213 13.763 13.303
2960.981 12.723 12.203 11.783 11.323 10.923 10.773 10.613 10.423 10.273 9.993
2980.271 9.743 9.453 9.073 8.683 8.263 7.903 7.383 6.823 6.433 6.263
2999.561 6.263 6.273 6.413 6.713 7.223 7.953 8.893 9.893 10.833 11.463
3018.850 11.563 11.373 10.983 10.173 9.193 8.383 7.513 6.883 6.313 5.673
3038.140 5.313 5.063 4.713 4.343 4.153 4.043 3.823 3.543 3.403 3.393
3057.430 3.173 2.983 2.973 2.803 2.763 2.803 2.833 3.163 3.573 3.973
3076.720 4.323 4.553 4.813 4.963 4.853 4.593 4.053 3.443 3.073 2.733
3096.009 2.483 2.303 2.063 1.783 1.453 1.223 1.193 1.1615 0.9953 0.8381
3115.299 0.8181 0.7033 0.6348 0.6807 0.6041 0.6473 0.7488 0.63 0.5168 0.4953
3134.589 0.5248 0.507 0.4674 0.4593 0.3695 0.20013 0.1161 0.1258 0.17714 0.3345
3153.879 0.20043 0.043 0.1579 0.24872 0.2833 0.2775 0.22314 0.3083 0.4276 0.4385
3173.169 0.421 0.3963 0.3572 0.322 0.3404 0.3755 0.3518 0.2759 0.24688 0.3597
3192.458 0.4067 0.3704 0.336 0.3505 0.3401 0.2856 0.2885 0.3447 0.4419 0.3623
3211.748 0.4057 0.4878 0.338 0.2717 0.4711 0.5346 0.5189 0.563 0.5473 0.5514
3231.038 0.4576 0.2843 0.19153 0.18753 0.24678 0.2638 0.3054 0.3158 0.1927 0.053
3250.328 0.1363 0.23992 0.24979 0.2943 0.17626 0.163489 0.21374 0.1237 0.144 0.19447
3269.617 0.3007 0.388 0.3083 0.2773 0.25559 0.21012 0.19198 0.18334 0.18697 0.17828
3288.907 0.1432 0.0773 0.052 0.24739 0.22084 0.137 0.2782 0.2881 0.124 0.0914
3308.197 0.22574 0.3054 0.5091 0.4841 0.3121 0.3584 0.2958 0.18833 0.16036 0.0743
3327.487 0.1165 0.24461 0.2847 0.3384 0.3207 0.19849 0.23248 0.2876 0.19654 0.26091
3346.777 0.2801 0.24944 0.22899 0.1166 0.19872 0.288 0.203 0.2713 0.405 0.2914
3366.066 0.23176 0.3332 0.2631 0.1245 0.1165 0.13 0.15392 0.20044 0.167711 0.15667
3385.356 0.23443 0.25494 0.341 0.3769 0.26193 0.22675 0.279 0.2812 0.1467 0.0829
3404.646 0.1237 0.1249 0.21531 0.3526 0.26056 0.167491 0.22595 0.25131 0.18586 0.17799
3423.936 0.23199 0.19072 0.1348 0.1278 0.1445 0.20493 0.23522 0.1364 0.3109 0.3503
3443.225 0.1231 0.0942 0.24094 0.4764 0.4471 0.3308 0.3439 0.2753 0.25436 0.26076
3462.515 0.2184 0.22478 0.297 0.343 0.2983 0.2983 0.267 0.3738 0.4465 0.2703
3481.805 0.2552 0.3563 0.24233 0.2831 0.3858 0.18489 0.25301 0.3691 0.2744 0.17964
3501.095 0.2979 0.3639 0.2838 0.24266 0.2674 0.2899 0.23931 0.23168 0.20336 0.23282
3520.385 0.056 0 0.1107 0.22705 0.2888 0.1115 0.1356 0.25769 0.17733 0.1848
3539.674 0.23428 0.22878 0.1809 0.164016 0.1994 0.1292 0.0802 0.164253 0.22596 0.23236
3558.964 0.17847 0.1402 0.2804 0.3821 0.2934 0.2749 0.24997 0.25368 0.3053 0.2833
3578.254 0.3191 0.3166 0.327 0.22437 0.0703 0.18177 0.21496 0.18351 0.21754 0.2597
3597.544 0.24891 0.21993 0.3973 0.3678 0.3385 0.5003 0.3983 0.23532 0.2905 0.3861
3616.833 0.494 0.4071 0.21559 0.19226 0.24063 0.24102 0.22328 0.3561 0.3889 0.2705
3636.123 0.22682 0.25152 0.2898 0.3701 0.3718 0.3742 0.3503 0.3604 0.424 0.20739
3655.413 0.1381 0.18603 0.1525 0.2255 0.13 0.18699 0.3868 0.2972 0.2821 0.3154
3674.703 0.1303 0.18692 0.3593 0.4048 0.3553 0.3225 0.3162 0.3379 0.3906 0.4358
3693.993 0.4505 0.2923 0.2731 0.2904 0.3015 0.2636 0.0679 0.1253 0.4373 0.5768
3713.282 0.5349 0.4561 0.2769 0.1301 0.1253 0.1022 0.1497 0.284 0.269 0.17342
3732.572 0.24776 0.3479 0.3353 0.24694 0.22625 0.3686 0.3525 0.3006 0.4304 0.3393
3751.862 0.18637 0.2919 0.18341 0.014 0.0836 0.171834 0.3162 0.24047 0.25836 0.4007
3771.152 0.4481 0.5132 0.4447 0.5016 0.4525 0.304 0.2983 0.25581 0.1027 0.1279
3790.441 0.22508 0.286 0.2759 0.3491 0.4988 0.3354 0.1389 0.169123 0.25154 0.1616
3809.731 0.1251 0.23883 0.3727 0.4866 0.432 0.3086 0.3869 0.414 0.3736 0.4185
3829.021 0.5371 0.5685 0.3325 0.26114 0.3059 0.2795 0.3568 0.3034 0.25525 0.24845
3848.311 0.142 0.3454 0.4763 0.3007 0.3521 0.5555 0.6062 0.3989 0.3856 0.4808
3867.601 0.3097 0.19878 0.23286 0.24355 0.259 0.3478 0.3957 0.3755 0.401 0.4916
3886.890 0.5399 0.4025 0.3608 0.4936 0.5067 0.4183 0.22093 0.319 0.5361 0.4059
3906.180 0.403 0.4317 0.3476 0.4701 0.6157 0.6206 0.5847 0.7206 0.6609 0.5361
3925.470 0.7564 0.8307 0.8301 0.9123 1.0346 0.9697 0.7768 0.738 0.8301 0.8696
3944.760 0.887 1.0238 0.9791 0.8609 0.8476 1.0341 1.1421 0.8395 0.6155 0.5829
3964.049 0.6467 0.673 0.6375 0.6007 0.5422 0.5993 0.6265 0.6704 0.656 0.6158
3983.339 0.5392 0.6201 0.6001 0.4942 0.4878 0.3244 0.284 0.17968 0.23943 0.43
##END=
