##TITLE=1,11-Dodecadiene
##JCAMP-DX=4.24
##DATA TYPE=INFRARED SPECTRUM
##ORIGIN=NIST Mass Spectrometry Data Center
##OWNER=NIST Standard Reference Data Program
Collection (C) 2018 copyright by the U.S. Secretary of Commerce
on behalf of the United States of America. All rights reserved.
##CAS REGISTRY NO=5876-87-9
##MOLFORM=C 12 H 22
##$NIST SOURCE=MSDC-IR
##SPECTROMETER/DATA SYSTEM=HP-GC/MS/IRD
##STATE=gas
##XUNITS=1/CM
##YUNITS=ABSORBANCE
##XFACTOR=1.0
##YFACTOR=0.000004300
##DELTAX=4.0
##FIRSTX=550.0
##LASTX=3846.0
##FIRSTY=0.000516
##MAXX=3846
##MINX=550
##MAXY=0.043
##MINY=0
##NPOINTS=825
##XYDATA=(X++(Y..Y))
550.0 120 72 35 47 37 15 8 7 22 25
590.0 26 48 61 85 99 115 140 175 222 251
630.0 248 242 213 179 162 156 141 110 70 49
670.0 46 44 50 42 35 45 46 50 60 73
710.0 89 100 114 122 115 100 99 98 81 74
750.0 66 59 54 54 42 35 39 40 29 26
790.0 34 29 24 33 46 48 51 59 53 52
830.0 67 84 98 113 127 141 158 178 199 222
870.0 254 288 318 371 444 551 705 919 1227 1626
910.0 1984 2093 1873 1474 1131 882 711 596 526 476
950.0 436 413 397 392 399 426 482 563 675 794
990.0 877 885 816 693 565 462 386 329 288 256
1030.0 232 209 188 168 145 133 123 103 92 88
1070.0 77 75 77 72 67 65 59 61 66 57
1110.0 48 52 55 51 51 51 47 38 30 30
1150.0 36 38 33 37 40 42 43 40 43 39
1190.0 36 35 34 38 40 36 36 47 47 47
1230.0 47 51 52 53 57 54 66 75 74 82
1270.0 89 97 108 117 134 147 157 167 169 168
1310.0 171 168 159 158 163 172 184 203 234 266
1350.0 284 280 257 228 205 182 156 134 120 111
1390.0 108 110 121 144 174 202 228 250 275 302
1430.0 343 412 513 624 708 750 757 743 692 592
1470.0 479 364 264 193 141 102 78 66 59 48
1510.0 42 39 35 35 41 43 41 38 33 33
1550.0 33 24 22 27 30 34 39 35 39 44
1590.0 48 58 69 90 118 150 185 241 314 414
1630.0 555 725 864 877 737 525 342 228 156 107
1670.0 78 62 50 40 30 24 20 13 9 6
1710.0 2 3 2 3 3 1 0 0 1 4
1750.0 5 5 3 3 6 5 4 9 12 18
1790.0 17 21 31 42 57 74 100 135 174 202
1830.0 207 184 145 111 84 62 45 36 26 21
1870.0 18 12 13 18 15 12 12 8 5 4
1910.0 5 7 5 7 7 5 7 6 2 3
1950.0 7 10 9 14 21 25 24 24 21 15
1990.0 16 13 10 12 10 11 14 14 11 9
2030.0 11 15 14 16 19 16 16 18 15 11
2070.0 13 13 12 12 13 14 13 15 12 9
2110.0 10 12 10 12 10 11 13 15 14 12
2150.0 14 15 12 12 10 9 14 17 17 15
2190.0 16 16 11 11 13 13 16 17 11 11
2230.0 17 19 20 18 18 18 16 17 18 17
2270.0 18 21 22 21 19 18 19 18 16 18
2310.0 18 17 17 16 13 11 13 12 15 18
2350.0 15 11 12 12 11 14 16 14 16 14
2390.0 8 8 10 13 12 14 17 10 7 12
2430.0 13 14 14 15 15 14 12 12 11 8
2470.0 8 10 11 13 18 17 16 17 18 21
2510.0 22 27 30 29 28 29 31 30 28 28
2550.0 26 28 27 27 32 35 37 40 41 38
2590.0 32 31 39 44 44 46 49 50 49 56
2630.0 62 59 60 62 63 67 69 73 76 78
2670.0 85 93 94 92 88 89 89 88 83 79
2710.0 78 77 75 78 76 72 79 87 86 89
2750.0 97 104 112 121 124 128 137 146 158 169
2790.0 181 199 220 246 276 300 339 393 453 525
2830.0 616 743 918 1164 1517 1989 2544 3072 3407 3425
2870.0 3138 2705 2298 2010 1875 1888 2022 2276 2648 3143
2910.0 3772 4564 5584 6875 8330 9555 10000 9386 7960 6255
2950.0 4690 3472 2619 2062 1718 1524 1421 1378 1361 1321
2990.0 1252 1187 1146 1137 1103 1002 866 721 609 529
3030.0 480 452 439 435 438 458 490 538 612 700
3070.0 811 950 1137 1339 1403 1246 939 654 467 348
3110.0 278 230 199 177 155 138 121 105 96 92
3150.0 84 79 75 67 61 59 56 50 50 45
3190.0 36 37 39 42 42 35 32 26 23 26
3230.0 25 31 32 26 26 29 23 16 16 20
3270.0 25 27 25 21 19 16 14 18 18 16
3310.0 14 18 21 18 19 12 8 17 27 31
3350.0 29 31 28 24 29 21 14 20 23 20
3390.0 20 26 28 26 21 19 20 21 19 15
3430.0 13 11 12 14 14 15 21 22 18 16
3470.0 16 13 8 10 15 16 16 20 18 12
3510.0 17 26 18 11 14 12 6 10 17 15
3550.0 16 15 15 13 10 14 14 11 14 15
3590.0 15 16 21 22 20 20 22 23 26 30
3630.0 26 23 28 28 25 25 25 22 25 23
3670.0 22 16 12 21 26 25 24 23 24 25
3710.0 19 17 23 22 20 23 26 26 26 31
3750.0 28 20 19 28 30 26 31 31 27 29
3790.0 30 28 25 22 24 28 31 27 21 25
3830.0 26 24 21 21 21
##END=
