##TITLE=3-Ethyloctane
##JCAMP-DX=4.24
##DATA TYPE=INFRARED SPECTRUM
##ORIGIN=NIST Mass Spectrometry Data Center
##OWNER=NIST Standard Reference Data Program
Collection (C) 2018 copyright by the U.S. Secretary of Commerce
on behalf of the United States of America. All rights reserved.
##CAS REGISTRY NO=5881-17-4
##MOLFORM=C 10 H 22
##$NIST SOURCE=MSDC-IR
##SPECTROMETER/DATA SYSTEM=HP-GC/MS/IRD
##STATE=gas
##XUNITS=1/CM
##YUNITS=ABSORBANCE
##XFACTOR=1.0
##YFACTOR=0.000002100
##DELTAX=4.0
##FIRSTX=550.0
##LASTX=3846.0
##FIRSTY=0.000435
##MAXX=3846
##MINX=550
##MAXY=0.021
##MINY=0
##NPOINTS=825
##XYDATA=(X++(Y..Y))
550.0 207 154 81 98 96 35 15 20 43 95
590.0 90 83 63 41 47 40 45 22 16 19
630.0 2 48 74 59 32 12 18 28 43 85
670.0 102 75 58 54 79 92 55 56 84 69
710.0 79 111 98 106 124 142 119 106 148 151
750.0 152 144 140 152 166 179 188 179 154 137
790.0 132 123 93 61 55 72 80 77 146 123
830.0 57 85 76 62 59 47 67 86 79 79
870.0 85 94 92 81 83 119 141 146 155 149
910.0 134 117 96 81 83 78 67 70 71 58
950.0 65 75 68 71 82 83 82 86 78 69
990.0 75 81 82 90 92 98 108 104 105 96
1030.0 85 89 80 69 97 106 80 62 68 82
1070.0 74 75 74 72 85 84 71 61 44 45
1110.0 49 37 45 44 61 77 61 63 77 80
1150.0 78 72 64 69 86 63 58 64 64 80
1190.0 80 65 60 65 70 67 50 49 88 98
1230.0 75 88 93 84 101 112 111 114 122 127
1270.0 123 122 133 160 184 192 194 199 205 204
1310.0 201 201 198 193 193 201 227 261 260 264
1350.0 278 281 299 330 348 410 515 614 682 686
1390.0 593 469 365 284 243 221 217 243 257 261
1430.0 284 341 417 510 662 843 1049 1227 1318 1312
1470.0 1204 1032 802 602 465 361 291 252 222 232
1510.0 219 180 178 168 138 125 135 151 148 120
1550.0 104 103 120 110 85 76 81 77 61 60
1590.0 57 70 77 66 55 55 68 69 64 70
1630.0 67 62 63 65 64 74 81 59 40 41
1670.0 59 66 69 79 60 40 48 64 69 54
1710.0 36 52 59 40 36 48 57 38 31 42
1750.0 52 42 34 33 41 51 41 40 43 24
1790.0 33 46 35 37 28 29 26 26 31 31
1830.0 28 28 22 22 30 18 15 28 30 26
1870.0 16 8 14 18 24 26 28 33 25 23
1910.0 18 17 28 25 14 8 11 22 20 19
1950.0 28 32 20 7 11 15 14 16 16 20
1990.0 25 19 16 18 15 19 21 17 18 13
2030.0 17 25 13 12 21 23 28 29 24 22
2070.0 17 13 12 14 13 13 15 18 15 7
2110.0 7 9 4 10 21 12 8 14 17 11
2150.0 3 1 1 12 19 23 18 14 24 21
2190.0 18 20 21 16 10 4 11 21 19 26
2230.0 23 15 24 18 11 14 18 23 21 13
2270.0 9 8 11 16 19 16 19 18 12 10
2310.0 16 17 11 14 27 28 24 15 9 10
2350.0 8 16 28 35 36 32 28 19 11 17
2390.0 28 26 21 19 17 21 24 20 19 15
2430.0 14 27 22 8 8 4 7 20 20 13
2470.0 7 1 2 8 12 6 0 4 10 7
2510.0 9 11 14 27 31 22 25 32 36 33
2550.0 40 48 41 42 51 52 53 52 56 70
2590.0 74 68 67 69 81 82 79 77 66 65
2630.0 76 74 62 66 81 79 81 97 109 110
2670.0 112 116 112 110 115 113 114 112 111 127
2710.0 141 142 144 152 157 164 174 181 205 216
2750.0 208 211 208 202 200 209 216 232 257 275
2790.0 296 329 354 375 401 437 487 523 563 630
2830.0 717 817 956 1161 1469 1901 2469 3118 3751 4263
2870.0 4585 4756 4809 4710 4495 4237 3984 3892 4070 4511
2910.0 5191 6101 7184 8302 9271 9882 10000 9631 8889 7994
2950.0 7250 6946 7273 8054 8663 8515 7501 5897 4242 3003
2990.0 2193 1683 1353 1125 962 845 748 667 601 560
3030.0 540 496 446 405 369 349 332 310 293 279
3070.0 270 253 256 255 235 233 234 216 187 193
3110.0 207 203 183 158 162 154 146 163 167 150
3150.0 130 120 108 106 117 115 101 90 87 87
3190.0 79 77 91 91 81 89 84 67 54 50
3230.0 48 50 42 44 57 42 41 48 51 64
3270.0 57 38 30 32 36 35 19 10 36 39
3310.0 26 27 24 31 15 4 18 22 22 14
3350.0 20 33 30 26 10 10 22 20 9 8
3390.0 22 17 16 33 34 14 11 13 28 19
3430.0 12 26 25 21 22 24 28 29 31 35
3470.0 40 40 36 39 19 1 3 33 49 46
3510.0 41 17 11 27 43 46 43 28 24 28
3550.0 35 38 30 45 70 58 24 20 39 53
3590.0 41 28 44 55 69 83 71 62 50 51
3630.0 55 30 32 61 83 80 64 65 45 44
3670.0 73 76 72 72 88 84 66 63 55 47
3710.0 66 66 43 63 74 72 68 48 92 111
3750.0 77 57 41 51 51 59 59 46 41 40
3790.0 54 54 51 39 31 45 50 66 69 52
3830.0 68 83 75 71 54
##END=
