##TITLE=1,2-Dimethoxy-4-propylbenzene
##JCAMP-DX=4.24
##DATA TYPE=INFRARED SPECTRUM
##ORIGIN=EPA-IR VAPOR PHASE LIBRARY
##OWNER=SRD/NIST
Collection (C) 2018 copyright by the U.S. Secretary of Commerce
on behalf of the United States of America. All rights reserved.
##CAS REGISTRY NO=5888-52-8
##MOLFORM=C 11 H 16 O 2
##$NIST SOURCE=MSDC-IR
##STATE=gas
##XUNITS=1/CM
##YUNITS=ABSORBANCE
##XFACTOR=1.
##YFACTOR=0.001
##DELTAX=1.92898
##FIRSTX=549.8
##LASTX=4000.7
##FIRSTY=1.57
##MAXX=4000.7
##MINX=549.759
##MAXY=0.09156
##MINY=0
##NPOINTS=1790
##XYDATA=(X++(Y..Y))
549.759 1.57 1.74 1.83 1.86 1.87 1.84 1.94 1.9 1.73 1.85
569.049 1.77 1.62 1.75 1.85 1.65 1.52 1.46 1.48 1.43 1.47
588.339 1.56 1.55 1.59 1.39 1.28 1.25 1.52 1.78 1.74 1.65
607.628 1.72 1.92 2.04 1.84 1.82 2.08 2.33 2.42 2.21 2.46
626.918 2.82 2.83 2.79 2.74 2.82 2.76 2.7 2.52 2.33 2.41
646.208 2.25 1.98 1.61 1.33 1.26 1.28 1.3 1.23 1.0968 1.1556
665.498 1.1319 0.9617 0.9843 0.8681 0.8768 1.0037 1.139 1.0999 0.912 1.0362
684.787 1.141 1.41 1.75 1.79 1.72 1.74 1.85 2 1.96 1.91
704.077 1.89 1.6 1.46 1.37 1.37 1.38 1.46 1.85 1.99 2.1
723.367 2.35 2.41 2.58 2.94 3.37 3.74 4.13 4.77 5.3 5.55
742.657 5.93 6.37 6.75 7.27 7.93 8.37 8.61 8.77 8.84 8.73
761.947 8.18 7.8 7.14 6.26 5.75 5.31 4.87 4.55 4.68 4.97
781.236 5.28 5.56 5.91 6.49 6.89 7.09 7.27 7.52 8.19 8.59
800.526 8.96 9.45 9.54 9.85 10.34 10.53 10.59 10.55 10.33 10.12
819.816 9.7 8.91 8.2 7.48 6.64 6.05 5.47 5.15 4.78 4.34
839.106 4.29 4.34 4.19 4.01 3.86 3.73 3.81 3.79 3.93 4.01
858.395 3.9 3.96 3.96 4.03 4.19 4.31 4.45 4.52 4.44 4.2
877.685 4.15 4.29 4.24 4.04 3.83 3.7 3.59 3.38 3.05 2.97
896.975 2.93 2.69 2.54 2.5 2.47 2.28 2.39 2.76 2.88 2.87
916.265 2.93 3.08 3.35 3.48 3.62 3.83 3.89 3.98 4.14 4.23
935.555 4.04 3.74 3.69 3.66 3.34 2.91 2.64 2.67 2.67 2.72
954.844 2.77 2.73 2.74 2.58 2.45 2.59 2.74 2.88 3.2 3.45
974.134 3.58 3.69 3.72 4.03 4.45 4.61 4.88 5.44 6.04 6.44
993.424 6.82 7.5 8.54 9.64 10.49 11.37 12.85 14.86 17.14 19.53
1012.714 22.19 25.27 28.11 31.07 34.22 37.19 39.99 41.73 42.7 43.26
1032.003 42.97 41.68 40.06 38.03 35.1 32.27 28.99 25.3 22.22 19.2
1051.293 16.53 14.36 12.43 11.11 10.04 8.9 8.53 8.41 7.57 7.2
1070.583 7 6.61 6.68 6.74 6.61 6.95 7.11 7.03 7.04 6.79
1089.873 6.68 6.6 6.9 6.91 6.98 7.17 7.02 7.62 7.89 8.17
1109.163 9.57 11.26 12.99 15.15 17.49 19.87 22.74 25.37 27.76 29.14
1128.452 29.86 30.52 30.73 30.97 31.06 30.37 29.52 28.76 28.5 28.82
1147.742 28.64 28.03 27.43 26.98 26.14 24.82 23.22 21.46 19.54 17.47
1167.032 15.67 14.36 13.31 12.22 11.71 11.88 11.75 11.84 12.1 11.78
1186.322 12.08 12.28 11.76 11.99 12.11 11.78 12.43 13.47 14.33 15.4
1205.611 16.87 18.56 20.44 22.6 24.77 26.93 29.5 32.57 35.07 37.45
1224.901 39.82 41.38 42.34 43.12 43.75 43.99 43.56 42.94 42.63 42.09
1244.191 41.43 41.62 42.48 43.62 45.48 48.42 52.3 57 62.35 68.09
1263.481 73.65 78.67 83.04 85.99 87.08 86.54 84.58 81.05 76.4 71.06
1282.771 65.64 60.55 55.63 50.79 46.3 42.16 38.15 34.44 31.06 27.92
1302.060 25 22.43 20.32 18.44 16.83 15.41 14.1 13.07 12.17 11.47
1321.350 10.89 10.4 10.15 10.01 9.96 10.1 10.36 10.64 10.88 11.01
1340.640 10.79 10.34 9.82 9.11 8.27 7.39 6.6 5.98 5.48 5.17
1359.930 5.05 5.07 4.98 4.78 4.77 4.86 4.97 5.18 5.43 5.67
1379.219 5.99 6.31 6.61 6.87 7.01 7.02 7.1 7.45 7.98 8.62
1398.509 9.46 10.61 12.04 13.59 15.25 16.83 18.05 18.89 19.41 19.45
1417.799 18.94 18.06 16.94 15.74 14.64 13.94 13.66 13.81 14.39 15.17
1437.089 16.15 17.18 18.17 19.05 19.75 20.33 20.83 21.26 21.7 22.27
1456.378 22.94 23.6 24.17 24.78 25.22 25.38 25.28 24.93 24.44 23.75
1475.668 22.95 22.1 21.48 21.41 21.9 22.98 24.98 27.85 31.64 36.47
1494.958 42.56 50.03 58.31 67.15 75.77 83.03 88.61 91.56 91.03 87.25
1514.248 80.55 71.67 61.55 51.56 41.71 33.66 27.23 22.26 18.52 15.72
1533.538 13.59 11.97 10.84 9.88 9 8.33 7.83 7.41 7.2 7.09
1552.827 6.99 6.98 7.04 7.24 7.48 7.78 8.2 8.68 9.39 10.17
1572.117 10.85 11.56 12.14 12.55 12.79 12.95 12.82 12.32 11.87 11.52
1591.407 11.04 10.5 10.08 9.76 9.63 9.48 9.37 9.32 9.09 8.76
1610.697 8.38 8.08 7.54 6.83 6.2 5.6 5.05 4.58 4.18 3.66
1629.986 3.28 3.08 2.95 2.86 2.63 2.53 2.43 2.27 2.24 2.14
1649.276 2.07 1.99 2 1.98 1.92 1.95 1.91 1.88 1.78 1.66
1668.566 1.69 1.74 1.71 1.69 1.64 1.68 1.71 1.59 1.61 1.7
1687.856 1.64 1.55 1.55 1.56 1.52 1.61 1.62 1.52 1.54 1.49
1707.146 1.5 1.61 1.64 1.53 1.46 1.44 1.39 1.45 1.48 1.4
1726.435 1.36 1.39 1.37 1.4 1.45 1.46 1.44 1.45 1.47 1.4
1745.725 1.39 1.44 1.44 1.43 1.45 1.43 1.4 1.41 1.46 1.41
1765.015 1.3 1.37 1.42 1.36 1.28 1.28 1.35 1.34 1.26 1.1693
1784.305 1.1751 1.22 1.22 1.1748 1.1898 1.1716 1.1438 1.1519 1.1853 1.27
1803.594 1.27 1.1817 1.1767 1.1892 1.1449 1.1606 1.1824 1.27 1.25 1.1438
1822.884 1.1908 1.33 1.36 1.29 1.35 1.37 1.31 1.32 1.34 1.35
1842.174 1.46 1.54 1.5 1.47 1.44 1.49 1.52 1.5 1.59 1.59
1861.464 1.56 1.59 1.61 1.59 1.62 1.63 1.55 1.46 1.38 1.35
1880.754 1.25 1.1687 1.168 1.1388 1.0905 1.1252 1.0919 0.9995 0.9993 1.0271
1900.043 1.0288 1.0119 1.0227 1.0594 1.1015 1.0592 0.9989 1.0093 1.013 0.9846
1919.333 0.9875 1.0492 1.0514 1.0765 1.0888 1.0369 1.0307 1.1395 1.25 1.1534
1938.623 1.0682 1.1313 1.22 1.25 1.27 1.28 1.25 1.28 1.31 1.37
1957.913 1.43 1.43 1.46 1.45 1.42 1.47 1.52 1.54 1.45 1.39
1977.202 1.41 1.39 1.44 1.48 1.51 1.55 1.51 1.55 1.63 1.58
1996.492 1.54 1.61 1.7 1.77 1.79 1.78 1.83 1.97 2.03 2.08
2015.782 2.2 2.37 2.45 2.41 2.5 2.56 2.52 2.53 2.64 2.74
2035.072 2.7 2.66 2.55 2.45 2.38 2.31 2.3 2.27 2.21 2.11
2054.362 2.01 1.98 1.96 1.94 1.92 1.91 1.9 1.88 1.81 1.71
2073.651 1.64 1.56 1.57 1.63 1.59 1.48 1.42 1.39 1.31 1.24
2092.941 1.184 1.1832 1.1887 1.1393 1.1069 1.0748 1.0004 0.9131 0.8827 0.8459
2112.231 0.8704 0.8626 0.8006 0.8156 0.7769 0.805 0.8108 0.7282 0.7822 0.8525
2131.521 0.8703 0.7709 0.7627 0.8224 0.7875 0.8218 0.7992 0.7977 0.9036 0.9068
2150.810 0.8592 0.841 0.8785 0.9579 0.9813 0.9866 0.9818 1.0428 1.1142 1.1211
2170.100 1.0847 1.065 1.0634 1.0268 0.9694 0.9188 0.9701 1.0368 1.0234 0.9475
2189.390 0.9158 0.9111 0.9778 1.0394 1.0326 1.0794 1.0533 0.9334 0.8837 0.9251
2208.680 0.9643 1.0231 1.0044 0.8594 0.8464 0.9177 0.925 0.8372 0.8322 0.8691
2227.970 0.8224 0.8589 0.9071 0.9649 1.0046 1.035 0.9863 0.8732 0.9486 1.0963
2247.259 1.1978 1.198 1.1613 1.137 1.0529 1.0522 1.1158 1.101 1.0774 1.1088
2266.549 1.1873 1.1323 1.0853 1.1812 1.1525 1.1402 1.1682 1.0545 0.9119 0.9715
2285.839 1.0469 1.0652 1.0401 0.9789 1.0477 1.013 0.9071 0.8202 0.76 0.8565
2305.129 0.8831 0.7811 0.7576 0.7968 0.7448 0.7334 0.8066 0.7636 0.7898 0.8003
2324.418 0.7083 0.7429 0.8199 0.7915 0.8349 0.8824 0.779 0.7034 0.718 0.8
2343.708 0.9005 0.8508 0.7518 0.7406 0.757 0.7639 0.7462 0.7521 0.8237 0.9355
2362.998 0.889 0.8062 0.778 0.795 0.8719 0.8702 0.8382 0.8116 0.8244 0.8618
2382.288 0.8797 0.8567 0.7706 0.7339 0.7937 0.8586 0.8067 0.8083 0.8734 0.8209
2401.578 0.8048 0.8904 0.9346 0.8444 0.815 0.8627 0.9271 0.9172 0.7914 0.7365
2420.867 0.7726 0.8085 0.8484 0.9208 0.9231 0.8778 0.8587 0.8991 0.9345 0.9346
2440.157 0.9481 0.905 0.9125 0.8848 0.8199 0.8874 0.971 0.9319 0.9293 0.9016
2459.447 0.8097 0.8262 0.8207 0.8414 0.8546 0.7697 0.9132 1.0519 1.0043 0.8877
2478.737 0.7815 0.9287 1.0526 1.0601 0.9697 0.9984 1.0688 1.0633 1.1547 1.142
2498.026 1.1406 1.21 1.1557 1.0228 1.0673 1.22 1.25 1.1699 1.1314 1.1368
2517.316 1.21 1.22 1.1614 1.1823 1.1782 1.22 1.28 1.33 1.39 1.43
2536.606 1.42 1.49 1.45 1.37 1.37 1.35 1.42 1.41 1.35 1.38
2555.896 1.44 1.51 1.53 1.48 1.38 1.41 1.45 1.41 1.46 1.48
2575.186 1.34 1.26 1.31 1.41 1.44 1.37 1.25 1.28 1.38 1.3
2594.475 1.25 1.25 1.32 1.32 1.23 1.28 1.3 1.28 1.27 1.3
2613.765 1.2005 1.0543 1.1351 1.1987 1.1512 1.113 1.1554 1.1147 1.1188 1.1718
2633.055 1.0669 1.0558 1.1529 1.1998 1.2034 1.1675 1.0991 1.1507 1.23 1.24
2652.345 1.22 1.0176 1.0176 1.22 1.33 1.27 1.1524 1.22 1.32 1.23
2671.634 1.24 1.33 1.37 1.46 1.41 1.28 1.2095 1.1059 1.0727 1.1122
2690.924 1.0653 1.0311 1.1335 1.1718 1.043 1.09 1.174 1.1666 1.1521 1.29
2710.214 1.3 1.1426 1.23 1.26 1.22 1.25 1.31 1.39 1.42 1.43
2729.504 1.52 1.56 1.54 1.66 1.76 1.7 1.6 1.55 1.79 2
2748.794 1.9 1.88 1.95 1.85 1.82 1.93 2.04 2.06 2.03 2.18
2768.083 2.18 2.11 2.2 2.33 2.4 2.34 2.45 2.51 2.53 2.74
2787.373 2.88 3.04 3.29 3.4 3.53 3.71 3.81 3.98 4.33 4.61
2806.663 4.93 5.4 5.74 6.13 6.71 7.31 7.96 8.69 9.67 10.8
2825.953 11.93 13.39 15.11 16.95 18.78 20.42 21.74 22.57 23.06 23.16
2845.242 22.87 22.32 21.62 20.97 20.45 20.12 20.08 20.19 20.46 20.95
2864.532 21.4 21.9 22.59 23.39 24.27 25.07 25.93 26.66 26.92 26.88
2883.822 26.63 26.01 25.24 24.49 23.67 23.14 22.77 22.73 23.23 23.84
2903.112 24.64 25.82 27.08 28.55 30.26 32.06 33.83 35.69 37.78 39.81
2922.401 42.12 44.96 47.95 51.12 54.27 57.59 60.82 63.41 65.11 65.75
2941.691 65.18 63.59 61.54 59.23 56.71 54.05 51.83 50.26 49.27 49.13
2960.981 49.35 49.6 50.31 50.86 50.45 49.27 47.51 45.03 42.01 38.78
2980.271 35.53 32.42 29.8 28.02 26.92 26.53 26.65 27.04 27.67 28.3
2999.561 28.69 28.6 28 26.92 25.48 23.58 21.47 19.37 17.4 15.67
3018.850 14.52 13.79 13.27 13.05 12.96 13.01 13.12 13.24 13.2 13.09
3038.140 13 12.89 12.81 12.52 12.19 11.98 11.64 11.43 11.29 10.82
3057.430 10.35 10.02 9.56 9.17 8.71 8.2 7.8 7.42 7.1 6.72
3076.720 6.35 6.24 5.94 5.43 5.19 5.18 5.1 4.86 4.5 4.12
3096.009 4.06 3.99 3.88 3.73 3.51 3.42 3.29 3.19 3.14 3.13
3115.299 2.98 2.84 2.92 2.88 2.72 2.61 2.47 2.24 2.17 2.21
3134.589 2.08 2.01 1.91 1.68 1.53 1.56 1.72 1.77 1.66 1.5
3153.879 1.43 1.47 1.46 1.45 1.42 1.42 1.34 1.24 1.29 1.32
3173.169 1.1903 1.1929 1.32 1.1573 0.9684 0.9825 1.1081 1.0907 0.9931 0.9444
3192.458 0.8783 0.933 1.0244 1.1026 1.0131 0.9369 0.9706 0.9184 0.9243 0.9386
3211.748 0.8548 0.8201 0.905 0.9669 0.8267 0.675 0.6636 0.6723 0.6384 0.6369
3231.038 0.8067 0.9774 0.7686 0.5631 0.5363 0.4537 0.6406 0.8124 0.7728 0.731
3250.328 0.7774 0.6553 0.48 0.6045 0.7757 0.6979 0.6591 0.8323 0.7536 0.5982
3269.617 0.5784 0.5333 0.4997 0.4659 0.531 0.6019 0.5678 0.5244 0.5074 0.5546
3288.907 0.5185 0.4928 0.4683 0.4236 0.6246 0.6865 0.6824 0.6985 0.5774 0.4138
3308.197 0.4258 0.6063 0.3964 0.217238 0.387 0.5339 0.5461 0.5467 0.528 0.6163
3327.487 0.6317 0.6332 0.7728 0.6539 0.4076 0.3941 0.5147 0.4852 0.4725 0.4616
3346.777 0.4188 0.4294 0.3465 0.30942 0.4273 0.4753 0.4803 0.5414 0.6454 0.6807
3366.066 0.5397 0.4136 0.4408 0.5133 0.6375 0.7625 0.7405 0.44 0.5566 0.7015
3385.356 0.4716 0.3977 0.3858 0.3885 0.3862 0.5008 0.581 0.5737 0.4594 0.30812
3404.646 0.3218 0.4277 0.3482 0.29065 0.3857 0.3435 0.25846 0.3138 0.483 0.512
3423.936 0.4832 0.5133 0.5036 0.6309 0.5338 0.4526 0.4554 0.5341 0.6144 0.4051
3443.225 0.209373 0.3391 0.5135 0.382 0.4317 0.5491 0.5722 0.519 0.5915 0.5802
3462.515 0.3124 0.4486 0.6311 0.6943 0.6969 0.5734 0.6387 0.6936 0.6418 0.6521
3481.805 0.6355 0.5539 0.5816 0.6407 0.5371 0.4572 0.5851 0.4565 0.3272 0.29436
3501.095 0.3763 0.5276 0.4579 0.4255 0.4736 0.5343 0.3721 0.3411 0.318 0.24754
3520.385 0.3377 0.4004 0.577 0.5359 0.4495 0.4619 0.5056 0.4593 0.3241 0.4592
3539.674 0.4782 0.5208 0.6193 0.6249 0.5668 0.4659 0.4486 0.3678 0.3838 0.5705
3558.964 0.5479 0.4218 0.5753 0.3885 0.2841 0.5601 0.4107 0.24117 0.521 0.6648
3578.254 0.4064 0.3849 0.6639 0.5812 0.4007 0.3719 0.4957 0.5949 0.4223 0.2564
3597.544 0.28916 0.4162 0.3324 0.3709 0.4394 0.3509 0.3474 0.4539 0.4792 0.4119
3616.833 0.3944 0.3463 0.4179 0.4027 0.3774 0.441 0.4288 0.4045 0.29446 0.3707
3636.123 0.5581 0.6043 0.5075 0.4239 0.4117 0.4205 0.4323 0.5996 0.6087 0.4543
3655.413 0.3853 0.4063 0.4923 0.4358 0.3779 0.6164 0.6965 0.6663 0.7232 0.4576
3674.703 0.4134 0.5224 0.3542 0.30161 0.22027 0 0.1957 0.498 0.4957 0.4307
3693.993 0.5007 0.7458 0.6386 0.3856 0.29513 0.1928 0.07 0.05 0.4509 0.6013
3713.282 0.416 0.4842 0.5154 0.5529 0.5947 0.6491 0.7449 0.632 0.5985 0.5245
3732.572 0.5334 0.692 0.7143 0.7997 0.7161 0.6528 0.8204 0.7068 0.6456 0.667
3751.862 0.5774 0.4306 0.5861 0.6661 0.6413 0.6457 0.5547 0.6309 0.6711 0.5809
3771.152 0.5023 0.3983 0.3862 0.6712 0.5844 0.4708 0.5312 0.5071 0.458 0.4267
3790.441 0.3527 0.26624 0.3512 0.4769 0.5149 0.7424 0.724 0.4532 0.389 0.32
3809.731 0.3578 0.4745 0.5892 0.6202 0.4756 0.3814 0.4001 0.4394 0.6326 0.7144
3829.021 0.5503 0.5821 0.8329 0.7796 0.4412 0.4397 0.5777 0.5466 0.5232 0.6653
3848.311 0.8636 0.712 0.6796 0.8171 0.7135 0.6347 0.7233 0.8885 0.9222 0.9306
3867.601 0.8096 0.649 0.6878 0.8628 0.8042 0.6664 0.6348 0.6941 0.8279 0.8882
3886.890 0.8169 0.8092 0.8485 0.7719 0.7441 0.7488 0.6467 0.505 0.536 0.5741
3906.180 0.5196 0.5955 0.7725 0.7738 0.7357 0.833 0.9188 0.7366 0.6531 0.5805
3925.470 0.6704 0.7086 0.6202 0.7699 0.685 0.6096 0.6636 0.6408 0.4745 0.4974
3944.760 0.652 0.5602 0.6692 0.8465 0.8914 1.1131 1.25 1.0537 0.8126 0.8195
3964.049 0.9821 1.0268 0.8546 0.8345 0.857 0.6681 0.7095 0.7906 0.8441 1.0218
3983.339 1.24 1.24 1.1142 0.9164 0.7446 0.9778 1.0637 1.0352 1.0957 1.1252
##END=
