##TITLE=3-Methylhexane
##JCAMP-DX=4.24
##DATA TYPE=INFRARED SPECTRUM
##ORIGIN=NIST Mass Spectrometry Data Center
##OWNER=NIST Standard Reference Data Program
Collection (C) 2018 copyright by the U.S. Secretary of Commerce
on behalf of the United States of America. All rights reserved.
##CAS REGISTRY NO=589-34-4
##MOLFORM=C 7 H 16
##$NIST SOURCE=MSDC-IR
##SPECTROMETER/DATA SYSTEM=HP-GC/MS/IRD
##STATE=gas
##XUNITS=1/CM
##YUNITS=ABSORBANCE
##XFACTOR=1.0
##YFACTOR=0.000002500
##DELTAX=4.0
##FIRSTX=550.0
##LASTX=3846.0
##FIRSTY=0.000738
##MAXX=3846
##MINX=550
##MAXY=0.025
##MINY=0
##NPOINTS=825
##XYDATA=(X++(Y..Y))
550.0 295 178 127 175 143 94 86 113 151 135
590.0 80 67 65 70 60 45 46 47 14 13
630.0 55 55 26 46 91 62 69 66 22 26
670.0 45 55 59 42 5 6 32 46 51 61
710.0 66 83 93 70 67 82 101 119 134 119
750.0 112 123 122 120 112 109 130 137 125 108
790.0 90 75 72 74 78 73 51 40 51 68
830.0 53 49 46 46 55 48 39 44 57 54
870.0 50 60 61 69 72 55 36 25 30 47
910.0 53 56 66 72 71 66 57 63 66 51
950.0 59 74 90 108 114 117 135 141 120 97
990.0 99 95 88 85 87 104 97 87 100 109
1030.0 92 80 84 82 75 72 55 49 57 67
1070.0 65 47 45 37 31 35 39 37 36 41
1110.0 47 62 80 100 120 134 148 153 175 204
1150.0 201 193 178 153 140 134 121 99 88 94
1190.0 102 100 92 85 85 91 102 113 116 138
1230.0 147 136 133 121 118 115 111 135 133 132
1270.0 153 148 144 152 157 162 163 163 164 167
1310.0 167 165 172 180 184 189 199 216 238 265
1350.0 292 317 356 422 518 609 697 780 830 833
1390.0 790 678 526 397 313 261 236 228 230 256
1430.0 302 359 447 575 731 903 1055 1179 1249 1243
1470.0 1178 1049 887 726 571 436 336 263 209 176
1510.0 151 130 122 112 103 99 96 93 84 80
1550.0 74 71 69 61 67 74 74 66 55 48
1590.0 49 49 57 65 62 60 60 63 60 60
1630.0 57 51 58 66 60 58 59 61 55 48
1670.0 44 53 60 54 49 54 56 48 43 39
1710.0 37 45 51 44 38 42 42 37 42 41
1750.0 36 34 33 39 41 37 37 36 32 28
1790.0 31 32 34 35 29 28 25 31 31 25
1830.0 23 26 29 27 25 24 25 27 25 24
1870.0 22 26 27 25 25 22 22 19 17 20
1910.0 16 16 18 16 15 17 20 11 14 17
1950.0 13 14 7 4 11 20 22 20 15 9
1990.0 11 19 19 22 19 16 17 19 18 13
2030.0 18 30 28 26 28 24 22 28 26 23
2070.0 21 16 15 16 5 8 13 12 11 4
2110.0 6 11 14 8 10 12 12 12 8 7
2150.0 8 9 11 13 4 4 15 13 12 14
2190.0 20 20 13 15 11 7 14 4 0 10
2230.0 16 13 9 7 11 15 17 13 15 14
2270.0 12 12 13 15 16 17 19 21 16 8
2310.0 8 14 17 18 12 10 22 25 16 14
2350.0 18 23 28 25 28 26 22 29 30 22
2390.0 16 23 23 18 18 16 9 4 18 26
2430.0 21 20 13 8 4 6 8 9 18 14
2470.0 10 9 12 15 12 10 16 18 11 17
2510.0 15 6 1 2 7 10 14 5 5 12
2550.0 14 16 17 23 21 15 25 34 43 48
2590.0 46 50 47 54 63 60 62 61 56 60
2630.0 63 53 62 74 66 60 69 69 59 61
2670.0 70 74 74 76 87 92 84 79 82 93
2710.0 101 110 129 140 152 163 167 183 185 183
2750.0 194 185 165 157 160 172 190 198 214 234
2790.0 252 265 280 305 342 379 415 456 509 577
2830.0 661 781 934 1132 1378 1685 2040 2426 2842 3309
2870.0 3828 4316 4638 4787 4837 4841 4785 4753 4862 5132
2910.0 5532 5992 6447 6861 7175 7372 7444 7389 7314 7340
2950.0 7593 8142 8943 9707 10000 9653 8752 7411 5767 4157
2990.0 2902 2059 1519 1193 983 821 716 663 608 552
3030.0 521 494 466 447 416 383 357 339 321 301
3070.0 292 288 276 270 263 246 240 222 204 199
3110.0 186 181 172 162 163 157 139 133 140 142
3150.0 135 118 105 97 91 90 100 111 119 111
3190.0 98 91 87 79 68 66 54 34 37 32
3230.0 27 28 27 27 28 39 29 22 27 27
3270.0 26 16 9 9 17 8 8 33 33 19
3310.0 25 31 32 51 41 27 44 31 12 18
3350.0 28 30 27 30 34 24 23 30 24 29
3390.0 33 39 44 36 35 33 33 38 33 24
3430.0 22 30 36 37 19 1 28 42 34 29
3470.0 26 36 34 25 30 39 35 34 29 41
3510.0 61 39 26 32 47 44 26 31 37 43
3550.0 41 53 65 64 53 45 45 42 34 39
3590.0 46 47 56 61 72 70 64 67 52 48
3630.0 46 43 32 34 57 65 85 91 71 61
3670.0 64 86 77 45 58 66 54 47 50 54
3710.0 44 44 51 56 60 50 56 73 62 41
3750.0 35 44 44 20 19 41 48 24 17 49
3790.0 64 55 41 46 52 40 45 62 56 42
3830.0 54 71 65 49 44
##END=
