##TITLE=4-Ethylaniline
##JCAMP-DX=4.24
##DATA TYPE=INFRARED SPECTRUM
##ORIGIN=NIST Mass Spectrometry Data Center
##OWNER=NIST Standard Reference Data Program
Collection (C) 2018 copyright by the U.S. Secretary of Commerce
on behalf of the United States of America. All rights reserved.
##CAS REGISTRY NO=589-16-2
##MOLFORM=C 8 H 11 N
##$NIST SOURCE=MSDC-IR
##SPECTROMETER/DATA SYSTEM=HP-GC/MS/IRD
##STATE=gas
##XUNITS=1/CM
##YUNITS=ABSORBANCE
##XFACTOR=1.0
##YFACTOR=0.000001900
##DELTAX=4.0
##FIRSTX=550.0
##LASTX=3846.0
##FIRSTY=0.001683
##MAXX=3846
##MINX=550
##MAXY=0.019
##MINY=0
##NPOINTS=825
##XYDATA=(X++(Y..Y))
550.0 886 1316 845 764 676 700 652 602 623 688
590.0 698 702 739 756 778 821 905 1064 1224 1427
630.0 1712 2092 2587 3109 3554 3843 3945 3818 3535 3188
670.0 2831 2520 2273 2068 1897 1760 1650 1541 1427 1364
710.0 1332 1293 1213 1138 1057 972 900 843 773 756
750.0 758 743 741 762 772 817 905 1005 1143 1332
790.0 1595 1885 2237 2651 3081 3487 3809 3946 3824 3505
830.0 3066 2590 2128 1678 1304 992 770 647 553 465
870.0 386 330 286 273 265 220 192 181 167 158
910.0 157 171 167 135 108 103 111 117 117 117
950.0 120 167 209 243 289 302 296 288 266 245
990.0 236 220 211 241 267 285 290 282 329 345
1030.0 335 383 415 456 531 602 698 776 794 771
1070.0 732 701 683 672 643 582 555 545 542 577
1110.0 624 684 729 736 679 620 550 456 348 247
1150.0 179 133 105 112 252 543 811 920 927 845
1190.0 595 262 54 0 7 9 32 83 130 194
1230.0 312 466 688 1027 1550 2387 3609 5023 6183 6797
1270.0 6831 6154 4716 3132 2015 1359 995 807 702 667
1310.0 687 730 769 785 775 730 639 527 435 355
1350.0 293 254 232 218 215 223 248 280 297 301
1390.0 305 301 294 299 314 336 378 435 492 544
1430.0 606 664 720 793 861 922 963 987 995 975
1470.0 929 878 850 869 976 1237 1779 2801 4549 6936
1510.0 9065 10000 9869 8869 6718 4123 2340 1470 1043 810
1550.0 667 582 553 561 587 635 704 796 909 1067
1590.0 1274 1521 1863 2360 3060 3948 5021 6140 6989 7268
1630.0 6927 6061 4824 3480 2363 1628 1198 926 737 620
1670.0 541 466 416 375 344 327 310 301 302 309
1710.0 304 291 280 258 244 255 268 279 278 272
1750.0 259 228 197 171 138 102 94 102 105 94
1790.0 86 97 99 90 91 96 107 117 118 132
1830.0 150 166 196 244 283 322 382 432 443 440
1870.0 436 405 350 289 247 214 195 180 173 171
1910.0 170 177 188 188 189 193 172 152 148 142
1950.0 137 138 133 129 129 118 118 126 123 123
1990.0 125 124 124 124 127 131 136 140 149 156
2030.0 151 141 136 137 144 152 158 160 170 178
2070.0 177 177 172 167 172 172 174 171 164 162
2110.0 160 149 135 131 129 122 112 107 102 107
2150.0 125 129 118 112 115 110 117 123 124 129
2190.0 125 118 116 120 119 120 114 102 117 123
2230.0 118 125 124 127 133 140 136 128 131 130
2270.0 132 139 145 149 151 153 152 153 159 171
2310.0 169 163 161 166 170 170 175 171 174 173
2350.0 163 152 153 151 135 124 124 129 113 104
2390.0 109 113 126 136 140 137 133 135 135 126
2430.0 128 133 132 144 149 152 147 143 137 134
2470.0 137 135 135 133 122 113 113 112 119 123
2510.0 118 129 153 167 168 176 170 161 163 153
2550.0 145 141 137 137 141 151 162 161 157 156
2590.0 157 168 169 169 173 179 186 180 170 170
2630.0 179 186 179 173 167 163 158 144 160 173
2670.0 158 154 160 167 171 165 168 180 175 174
2710.0 190 191 181 185 199 208 225 237 247 256
2750.0 254 261 266 270 273 277 285 290 305 308
2790.0 310 298 292 310 323 332 347 383 432 479
2830.0 535 599 681 791 899 1048 1257 1484 1726 1969
2870.0 2219 2459 2627 2712 2731 2675 2601 2549 2489 2446
2910.0 2475 2554 2668 2862 3164 3553 3989 4313 4396 4338
2950.0 4243 4212 4526 5346 6112 6297 6164 5697 4619 3538
2990.0 2992 2857 2961 3139 3305 3436 3519 3584 3719 3887
3030.0 3939 3816 3528 3086 2570 2169 1931 1758 1601 1454
3070.0 1319 1166 1035 941 865 819 798 756 708 682
3110.0 638 589 524 468 435 405 376 342 332 331
3150.0 317 297 276 267 258 274 290 273 264 261
3190.0 255 262 274 272 269 278 276 270 263 247
3230.0 230 248 280 269 252 241 225 212 203 191
3270.0 178 169 158 150 152 157 167 170 150 151
3310.0 179 172 148 140 148 151 156 162 169 151
3350.0 122 132 139 166 199 216 230 236 312 410
3390.0 508 631 747 855 930 913 804 670 548 426
3430.0 341 289 263 296 298 291 328 354 399 459
3470.0 494 533 604 647 651 662 657 605 535 482
3510.0 414 355 307 241 224 212 177 161 159 144
3550.0 146 161 153 138 122 114 117 136 127 121
3590.0 134 116 108 109 106 111 121 118 103 112
3630.0 133 118 116 146 147 156 162 149 148 159
3670.0 162 168 180 176 183 175 161 168 156 157
3710.0 165 169 186 186 181 180 187 177 166 171
3750.0 143 162 173 159 172 154 147 154 139 128
3790.0 139 160 165 178 185 163 157 171 174 181
3830.0 195 195 182 196 205
##END=
