##TITLE=N-Allylaniline
##JCAMP-DX=4.24
##DATA TYPE=INFRARED SPECTRUM
##ORIGIN=NIST Mass Spectrometry Data Center
##OWNER=NIST Standard Reference Data Program
Collection (C) 2018 copyright by the U.S. Secretary of Commerce
on behalf of the United States of America. All rights reserved.
##CAS REGISTRY NO=589-09-3
##MOLFORM=C 9 H 11 N
##$NIST SOURCE=MSDC-IR
##SPECTROMETER/DATA SYSTEM=HP-GC/MS/IRD
##STATE=gas
##XUNITS=1/CM
##YUNITS=ABSORBANCE
##XFACTOR=1.0
##YFACTOR=0.000002800
##DELTAX=4.0
##FIRSTX=550.0
##LASTX=3846.0
##FIRSTY=0.001537
##MAXX=3846
##MINX=550
##MAXY=0.028
##MINY=0
##NPOINTS=825
##XYDATA=(X++(Y..Y))
550.0 549 379 247 241 216 251 263 313 365 357
590.0 316 318 315 314 306 299 299 338 399 466
630.0 511 528 552 568 595 627 664 741 860 991
670.0 1185 1476 1785 2096 2436 2560 2364 2072 1783 1515
710.0 1275 1096 1082 1230 1463 1891 2438 2986 3483 3762
750.0 3542 3004 2413 1771 1222 826 543 362 276 207
790.0 145 122 104 73 50 29 52 98 98 101
830.0 113 91 99 79 42 45 62 106 172 245
870.0 264 247 243 246 263 298 360 472 644 890
910.0 1230 1574 1832 1939 1836 1571 1256 974 752 603
950.0 517 477 467 475 501 549 628 745 896 1059
990.0 1155 1159 1079 917 752 601 492 431 434 467
1030.0 501 528 499 460 460 492 559 633 690 714
1070.0 704 662 646 662 685 706 698 666 628 608
1110.0 605 602 586 545 504 461 419 405 384 378
1150.0 386 358 351 362 415 560 717 805 850 821
1190.0 682 551 490 464 475 514 572 673 836 1050
1230.0 1360 1854 2567 3414 4203 4735 4873 4592 4041 3412
1270.0 2848 2398 2073 1900 1914 2092 2405 2851 3350 3768
1310.0 3956 3823 3386 2762 2102 1552 1159 922 760 642
1350.0 574 508 456 415 378 356 320 278 266 277
1390.0 297 348 417 504 631 801 1017 1283 1560 1784
1430.0 1872 1809 1615 1332 1117 1032 1084 1233 1390 1556
1470.0 1738 1944 2206 2690 3597 5142 7215 9119 10000 9625
1510.0 8092 5824 3702 2309 1543 1147 936 848 798 743
1550.0 733 770 841 845 885 1042 1302 1748 2419 3513
1590.0 5084 6905 8389 8919 8411 7096 5373 3789 2706 2015
1630.0 1550 1296 1139 1037 943 844 685 473 362 312
1670.0 269 241 203 185 151 98 104 116 88 40
1710.0 16 14 16 2 3 22 38 29 27 52
1750.0 77 74 72 64 42 32 23 4 0 2
1790.0 24 35 39 72 97 104 108 133 160 178
1830.0 190 190 197 209 209 192 167 145 125 104
1870.0 75 56 54 62 71 82 103 130 161 188
1910.0 196 201 206 194 174 148 124 93 62 41
1950.0 35 40 43 42 40 42 44 42 37 27
1990.0 30 31 28 40 36 33 45 45 43 54
2030.0 54 59 64 51 56 64 61 60 58 64
2070.0 78 71 67 75 78 83 92 98 91 91
2110.0 99 103 98 96 98 101 105 101 96 92
2150.0 87 92 86 68 73 82 77 75 72 59
2190.0 65 72 67 65 60 59 54 51 55 62
2230.0 62 52 58 67 63 53 58 69 62 48
2270.0 53 65 64 66 59 54 64 67 56 48
2310.0 51 56 51 37 23 24 36 46 34 32
2350.0 32 19 22 27 28 24 18 29 47 53
2390.0 60 72 73 72 73 59 44 41 44 47
2430.0 40 47 52 47 46 34 35 37 31 34
2470.0 29 31 43 50 53 55 67 62 50 47
2510.0 46 52 53 45 50 68 83 87 87 95
2550.0 113 126 131 135 144 133 121 119 118 108
2590.0 90 77 70 71 70 68 72 74 62 54
2630.0 58 58 69 70 74 85 85 82 87 90
2670.0 95 94 99 105 93 84 74 76 83 80
2710.0 80 86 87 81 80 76 82 91 103 126
2750.0 128 128 138 154 165 165 175 184 200 211
2790.0 232 252 260 290 334 386 441 491 552 625
2830.0 711 783 866 957 1043 1129 1201 1234 1241 1235
2870.0 1210 1166 1122 1075 1048 1028 1008 1007 1031 1077
2910.0 1147 1228 1312 1356 1334 1266 1176 1061 948 851
2950.0 770 706 664 646 621 637 690 760 837 922
2990.0 982 1032 1080 1177 1358 1594 1849 2038 2116 2098
3030.0 2006 1903 1841 1894 2072 2339 2629 2807 2831 2728
3070.0 2557 2408 2364 2432 2498 2448 2239 1928 1551 1207
3110.0 927 707 556 423 334 279 214 158 129 111
3150.0 99 91 87 75 69 63 73 74 64 61
3190.0 73 81 59 54 62 69 77 77 71 49
3230.0 34 28 46 53 39 45 51 54 48 45
3270.0 43 55 62 31 27 41 26 23 26 26
3310.0 39 22 20 40 43 34 21 32 45 46
3350.0 51 39 31 40 48 52 47 65 74 87
3390.0 107 132 152 174 208 248 303 352 400 456
3430.0 468 465 453 444 434 391 358 337 300 259
3470.0 217 191 178 141 114 107 104 87 81 81
3510.0 76 75 80 73 45 33 45 56 69 66
3550.0 65 82 85 73 51 43 40 45 47 45
3590.0 60 77 71 62 53 47 55 54 31 45
3630.0 42 30 39 23 45 73 49 43 40 53
3670.0 77 84 77 44 54 73 41 30 44 54
3710.0 79 81 58 50 40 48 62 50 73 82
3750.0 100 100 69 63 79 89 74 75 71 65
3790.0 70 70 84 88 87 82 85 116 102 76
3830.0 82 94 95 84 63
##END=
