##TITLE=Butyl octanoate
##JCAMP-DX=4.24
##DATA TYPE=INFRARED SPECTRUM
##ORIGIN=NIST Mass Spectrometry Data Center
##OWNER=NIST Standard Reference Data Program
Collection (C) 2018 copyright by the U.S. Secretary of Commerce
on behalf of the United States of America. All rights reserved.
##CAS REGISTRY NO=589-75-3
##MOLFORM=C 12 H 24 O 2
##$NIST SOURCE=MSDC-IR
##SPECTROMETER/DATA SYSTEM=HP-GC/MS/IRD
##STATE=gas
##XUNITS=1/CM
##YUNITS=ABSORBANCE
##XFACTOR=1.0
##YFACTOR=0.000016500
##DELTAX=4.0
##FIRSTX=550.0
##LASTX=3846.0
##FIRSTY=0.000165
##MAXX=3846
##MINX=550
##MAXY=0.165
##MINY=0
##NPOINTS=825
##XYDATA=(X++(Y..Y))
550.0 10 2 0 5 6 5 6 8 16 31
590.0 42 53 60 62 64 62 60 62 63 61
630.0 61 64 64 59 55 54 52 49 45 44
670.0 45 47 52 58 65 72 79 91 105 123
710.0 148 173 198 217 229 235 233 232 228 224
750.0 220 211 205 199 188 188 186 180 179 179
790.0 178 177 177 178 179 180 182 185 191 201
830.0 212 222 229 232 230 225 222 222 221 221
870.0 224 227 230 229 230 238 244 251 258 269
910.0 278 287 297 306 318 336 362 394 436 491
950.0 546 598 636 661 677 676 658 631 603 593
990.0 607 652 722 813 917 1017 1106 1177 1216 1212
1030.0 1173 1110 1034 969 943 971 1055 1177 1298 1371
1070.0 1381 1348 1311 1316 1388 1529 1728 1964 2186 2334
1110.0 2376 2326 2225 2127 2082 2126 2292 2605 3089 3756
1150.0 4565 5407 6093 6432 6338 5908 5341 4811 4403 4128
1190.0 3949 3823 3724 3644 3589 3563 3564 3585 3611 3625
1230.0 3620 3596 3561 3519 3441 3307 3116 2893 2672 2466
1270.0 2279 2107 1946 1808 1709 1652 1632 1624 1605 1568
1310.0 1518 1461 1403 1355 1333 1346 1391 1459 1533 1591
1350.0 1611 1582 1505 1389 1255 1135 1054 1033 1064 1095
1390.0 1060 948 800 674 596 561 562 595 657 739
1430.0 825 903 972 1043 1134 1261 1408 1536 1589 1539
1470.0 1403 1198 974 772 609 486 394 331 285 250
1510.0 219 198 181 167 155 143 133 126 118 110
1550.0 105 99 93 90 88 86 85 85 84 83
1590.0 82 80 82 83 82 83 84 85 87 88
1630.0 90 93 96 99 104 109 115 122 132 142
1670.0 154 172 192 217 250 293 350 423 515 625
1710.0 756 911 1108 1360 1693 2169 2900 4001 5488 7063
1750.0 8120 8174 7164 5519 3909 2717 1939 1444 1107 863
1790.0 683 546 443 365 304 256 218 190 166 146
1830.0 131 118 106 96 88 83 78 72 69 65
1870.0 63 60 58 56 54 53 54 53 52 52
1910.0 52 51 50 49 50 49 50 49 48 49
1950.0 50 50 51 51 50 51 50 49 49 50
1990.0 50 49 49 51 52 52 54 55 57 56
2030.0 55 56 55 54 52 52 51 49 47 45
2070.0 45 44 41 39 39 37 36 35 33 31
2110.0 29 27 28 27 25 23 21 22 22 22
2150.0 22 20 19 18 19 18 19 18 18 18
2190.0 17 16 15 15 16 15 15 14 13 14
2230.0 14 13 15 14 13 15 18 16 16 15
2270.0 15 16 16 14 14 15 16 18 18 19
2310.0 19 18 19 18 19 20 19 21 20 18
2350.0 18 17 15 15 16 18 18 17 17 19
2390.0 18 19 17 16 15 14 15 14 11 10
2430.0 9 10 9 7 8 7 7 8 7 5
2470.0 4 5 6 5 6 5 5 5 2 3
2510.0 5 6 5 6 6 7 9 13 15 16
2550.0 15 16 18 21 24 25 27 28 30 34
2590.0 35 35 36 38 40 43 44 45 47 51
2630.0 53 54 58 61 65 70 75 80 83 88
2670.0 93 98 104 104 105 106 106 105 104 105
2710.0 105 106 111 117 123 130 140 150 160 170
2750.0 174 174 176 182 185 189 199 210 224 240
2790.0 259 281 306 331 360 395 438 488 547 616
2830.0 701 807 943 1130 1399 1771 2250 2784 3277 3638
2870.0 3845 3936 3971 3952 3841 3656 3508 3512 3699 4061
2910.0 4588 5276 6113 7073 8093 9035 9715 10000 9856 9348
2950.0 8682 8190 8104 8367 8606 8341 7375 5973 4600 3520
2990.0 2726 2140 1706 1386 1145 963 826 721 640 574
3030.0 519 471 425 383 343 311 284 260 241 224
3070.0 209 197 187 178 171 165 156 144 138 135
3110.0 130 124 118 112 106 100 96 93 91 88
3150.0 83 78 76 74 73 72 69 68 67 60
3190.0 56 57 53 47 41 38 36 31 29 27
3230.0 23 20 18 17 14 12 12 12 10 11
3270.0 10 10 9 6 6 5 4 7 6 4
3310.0 6 6 7 7 6 5 5 4 3 2
3350.0 0 0 2 4 8 6 6 6 4 4
3390.0 4 3 4 8 12 11 8 10 11 11
3430.0 12 15 16 16 18 20 23 29 35 42
3470.0 55 67 75 81 83 79 73 66 55 43
3510.0 33 29 26 23 20 18 12 7 6 5
3550.0 4 6 7 5 6 7 4 1 2 4
3590.0 3 2 4 5 4 2 4 5 5 8
3630.0 8 10 11 13 12 12 14 13 11 11
3670.0 11 10 13 12 11 13 12 14 15 14
3710.0 13 13 13 14 15 15 13 10 13 14
3750.0 13 15 19 19 16 18 17 15 16 17
3790.0 17 16 17 18 20 20 21 21 19 17
3830.0 19 21 23 22 20
##END=
