##TITLE=s-Butyl formate
##JCAMP-DX=4.24
##DATA TYPE=INFRARED SPECTRUM
##ORIGIN=NIST Mass Spectrometry Data Center
##OWNER=NIST Standard Reference Data Program
Collection (C) 2018 copyright by the U.S. Secretary of Commerce
on behalf of the United States of America. All rights reserved.
##CAS REGISTRY NO=589-40-2
##MOLFORM=C 5 H 10 O 2
##$NIST SOURCE=MSDC-IR
##SPECTROMETER/DATA SYSTEM=HP-GC/MS/IRD
##STATE=gas
##XUNITS=1/CM
##YUNITS=ABSORBANCE
##XFACTOR=1.0
##YFACTOR=0.000001500
##DELTAX=4.0
##FIRSTX=550.0
##LASTX=3846.0
##FIRSTY=0.000135
##MAXX=3846
##MINX=550
##MAXY=0.015
##MINY=0
##NPOINTS=825
##XYDATA=(X++(Y..Y))
550.0 90 38 66 99 49 118 155 38 30 79
590.0 52 18 24 46 44 46 64 76 61 88
630.0 119 105 88 83 72 75 90 93 71 90
670.0 97 73 47 15 96 128 70 45 66 107
710.0 116 106 122 102 49 93 161 150 145 157
750.0 157 170 157 158 156 126 141 151 119 129
790.0 157 187 168 136 133 141 151 182 212 225
830.0 300 368 413 443 451 468 467 457 465 473
870.0 450 402 346 294 274 225 160 136 142 166
910.0 168 146 151 172 195 199 147 139 190 187
950.0 204 275 328 374 424 430 413 425 450 474
990.0 466 445 423 405 375 346 333 344 327 262
1030.0 258 259 232 266 278 286 309 331 303 274
1070.0 378 489 610 783 905 1050 1224 1369 1519 1574
1110.0 1564 1610 1682 1725 1706 1658 1644 1748 1892 2141
1150.0 2575 3225 4138 5394 6928 8386 9487 10000 9930 9296
1190.0 8161 6476 4276 2437 1445 969 707 562 487 423
1230.0 360 334 298 271 271 256 239 251 240 217
1270.0 235 227 200 188 171 165 173 173 170 156
1310.0 150 150 160 166 181 209 220 256 285 287
1350.0 296 336 379 406 443 502 566 615 631 630
1390.0 630 599 515 413 330 266 219 209 206 205
1430.0 222 258 308 357 404 452 499 546 552 526
1470.0 513 460 394 350 306 267 215 167 156 154
1510.0 140 122 125 143 136 117 122 136 136 111
1550.0 107 130 136 125 112 113 132 147 140 134
1590.0 148 153 150 146 146 132 104 122 148 152
1630.0 153 156 152 145 158 175 164 159 167 173
1670.0 195 218 242 294 343 397 481 551 631 751
1710.0 956 1256 1762 2563 3770 5319 6592 7460 8442 8171
1750.0 7208 6332 4653 3028 2028 1514 1213 1079 972 876
1790.0 755 556 380 283 230 196 165 139 132 123
1830.0 101 100 109 116 110 102 90 79 81 71
1870.0 62 75 75 79 86 83 84 93 98 84
1910.0 76 73 79 76 86 89 74 90 103 98
1950.0 94 96 106 110 99 100 98 80 78 89
1990.0 95 93 96 103 110 97 97 111 119 128
2030.0 120 98 98 88 70 74 53 41 58 56
2070.0 54 61 54 52 52 67 62 43 53 58
2110.0 66 68 53 42 50 50 55 59 48 43
2150.0 41 46 56 66 74 65 47 41 45 53
2190.0 52 47 50 42 41 42 49 53 42 58
2230.0 74 57 52 47 50 56 46 46 58 70
2270.0 57 64 68 48 46 66 71 62 82 93
2310.0 93 104 112 101 105 136 160 169 179 181
2350.0 159 155 136 104 96 92 82 64 57 48
2390.0 37 39 55 68 51 25 28 40 41 50
2430.0 66 69 44 25 26 18 39 58 44 50
2470.0 48 36 27 50 72 48 43 55 56 57
2510.0 36 37 47 41 49 81 97 71 75 73
2550.0 49 41 45 68 53 36 44 47 31 23
2590.0 35 35 24 27 37 27 21 23 19 31
2630.0 39 33 23 24 37 39 25 28 28 33
2670.0 64 78 69 49 67 69 55 67 66 58
2710.0 47 77 103 107 100 77 104 122 104 94
2750.0 104 103 103 94 81 68 61 60 40 40
2790.0 73 89 100 128 105 59 52 96 147 154
2830.0 161 169 165 181 218 241 270 312 362 420
2870.0 445 499 631 763 885 1044 1205 1369 1566 1737
2910.0 1886 1974 1988 1995 2010 1959 1870 1800 1730 1643
2950.0 1567 1532 1551 1599 1698 1866 2046 2200 2326 2328
2990.0 2086 1755 1416 1116 824 572 410 296 241 201
3030.0 166 155 147 127 125 121 110 105 109 118
3070.0 98 92 118 127 148 181 176 142 133 132
3110.0 130 123 115 105 88 83 111 143 119 105
3150.0 108 77 80 96 106 117 107 105 92 88
3190.0 115 110 108 72 75 90 39 18 37 41
3230.0 38 44 50 53 53 76 99 71 44 50
3270.0 27 18 29 26 55 80 91 83 62 54
3310.0 29 14 21 28 50 51 46 49 63 76
3350.0 80 67 44 35 39 64 60 71 108 106
3390.0 72 15 0 31 42 24 37 54 47 48
3430.0 64 106 106 81 71 73 96 117 167 206
3470.0 209 202 186 151 111 108 128 130 106 71
3510.0 64 54 46 29 23 57 55 64 82 72
3550.0 26 62 97 65 79 77 60 60 39 21
3590.0 36 47 39 52 71 91 105 123 114 97
3630.0 129 97 29 33 20 36 77 85 94 119
3670.0 124 117 117 91 50 49 79 67 68 84
3710.0 68 27 36 87 89 50 43 74 107 78
3750.0 58 57 36 40 81 79 44 58 82 110
3790.0 113 69 64 82 90 91 45 48 82 54
3830.0 47 85 89 84 39
##END=
