##TITLE=N-Methylphenethylamine
##JCAMP-DX=4.24
##DATA TYPE=INFRARED SPECTRUM
##ORIGIN=NIST Mass Spectrometry Data Center
##OWNER=NIST Standard Reference Data Program
Collection (C) 2018 copyright by the U.S. Secretary of Commerce
on behalf of the United States of America. All rights reserved.
##CAS REGISTRY NO=589-08-2
##MOLFORM=C 9 H 13 N
##$NIST SOURCE=MSDC-IR
##SPECTROMETER/DATA SYSTEM=HP-GC/MS/IRD
##STATE=gas
##XUNITS=1/CM
##YUNITS=ABSORBANCE
##XFACTOR=1.0
##YFACTOR=0.000000900
##DELTAX=4.0
##FIRSTX=550.0
##LASTX=3846.0
##FIRSTY=0.000649
##MAXX=3846
##MINX=550
##MAXY=0.009
##MINY=0
##NPOINTS=825
##XYDATA=(X++(Y..Y))
550.0 721 612 405 674 796 944 931 959 1083 1118
590.0 975 915 804 656 513 443 560 638 711 835
630.0 915 1067 1237 1437 1535 1662 1830 2097 2484 2844
670.0 3153 3574 4245 5033 5900 6892 7819 8142 7746 7051
710.0 6204 5470 5020 4866 4995 5170 5366 5634 5625 5250
750.0 4645 3869 3071 2427 1929 1523 1202 1036 905 749
790.0 649 550 453 410 397 322 263 283 279 201
830.0 194 172 124 67 54 76 50 39 14 32
870.0 51 66 97 79 49 82 128 159 212 246
910.0 223 190 156 153 197 242 251 245 256 286
950.0 278 285 369 426 423 386 380 443 494 543
990.0 626 705 802 887 910 934 1016 1140 1263 1384
1030.0 1316 1136 921 633 431 373 386 429 554 694
1070.0 745 814 910 942 992 1154 1419 1733 2101 2534
1110.0 2980 3472 3914 4162 4176 3972 3671 3357 3087 2953
1150.0 2854 2774 2580 2171 1709 1307 1038 852 743 714
1190.0 651 610 634 573 465 414 364 278 228 216
1230.0 182 152 141 160 143 125 141 153 167 163
1270.0 153 126 101 94 105 122 159 191 193 204
1310.0 253 312 350 384 418 483 587 714 846 1051
1350.0 1293 1457 1539 1517 1356 1151 927 737 587 496
1390.0 433 387 383 406 457 517 623 756 916 1159
1430.0 1471 1882 2428 3043 3586 3921 4031 3945 3788 3685
1470.0 3663 3641 3544 3376 3296 3313 3249 3011 2564 1881
1510.0 1193 778 559 456 410 363 313 288 282 267
1550.0 259 258 237 235 276 336 398 493 625 780
1590.0 944 1171 1377 1408 1285 1063 785 508 346 266
1630.0 214 200 223 239 243 233 207 204 208 200
1670.0 178 163 139 93 50 38 46 47 15 6
1710.0 41 79 98 95 91 104 111 101 97 103
1750.0 94 72 66 75 91 101 128 188 258 317
1790.0 348 375 358 325 272 215 198 177 149 121
1830.0 115 124 127 149 185 221 240 259 281 302
1870.0 305 281 260 227 174 133 105 88 84 85
1910.0 93 128 181 224 260 313 360 371 389 401
1950.0 372 298 229 160 104 72 43 35 54 56
1990.0 31 30 36 40 42 28 18 16 8 0
2030.0 19 15 27 45 24 18 28 40 42 44
2070.0 47 53 59 70 75 69 66 56 73 85
2110.0 68 59 47 32 48 56 38 41 47 47
2150.0 39 25 24 30 42 49 59 73 70 56
2190.0 29 17 13 47 80 76 63 61 70 72
2230.0 71 63 54 60 55 71 90 71 44 47
2270.0 82 96 92 107 101 81 87 118 129 139
2310.0 170 174 181 162 107 120 133 129 126 131
2350.0 159 156 134 134 129 99 119 131 108 95
2390.0 84 102 120 111 98 88 117 127 105 126
2430.0 143 144 170 162 142 154 154 150 151 138
2470.0 140 160 154 147 123 96 120 130 113 126
2510.0 141 123 113 127 149 158 172 193 193 204
2550.0 207 209 237 238 244 258 282 286 277 296
2590.0 304 273 264 290 318 333 330 323 347 403
2630.0 402 375 382 424 432 425 430 437 510 534
2670.0 544 576 588 644 723 782 828 875 901 891
2710.0 864 856 862 867 873 901 948 1013 1091 1161
2750.0 1275 1411 1572 1814 2098 2390 2809 3366 4010 4829
2790.0 5755 6650 7336 7666 7589 7257 6820 6353 6027 5793
2830.0 5584 5456 5446 5546 5743 6017 6275 6351 6300 6146
2870.0 5913 5726 5665 5745 5962 6214 6510 6773 6966 7157
2910.0 7365 7583 7961 8407 8830 9243 9653 9951 10000 9860
2950.0 9485 8768 7854 6976 6234 5722 5320 4836 4279 3586
2990.0 2886 2453 2262 2185 2281 2569 2971 3505 4253 5026
3030.0 5574 5712 5442 4833 4101 3575 3480 3825 4426 5014
3070.0 5286 5208 4741 4003 3399 2991 2686 2316 1935 1611
3110.0 1323 1093 887 727 624 503 384 334 304 274
3150.0 291 278 269 279 269 234 209 212 191 159
3190.0 143 147 201 228 162 125 154 128 80 73
3230.0 65 87 68 58 101 105 90 121 130 107
3270.0 90 73 93 101 83 87 83 61 68 54
3310.0 47 65 92 92 49 40 75 78 117 161
3350.0 143 173 164 121 141 165 129 103 95 42
3390.0 49 92 80 73 69 86 117 94 87 80
3430.0 61 31 78 91 83 93 71 60 55 110
3470.0 119 112 139 148 125 82 95 107 93 80
3510.0 99 131 109 44 33 78 85 60 64 107
3550.0 99 52 47 59 86 66 64 71 21 81
3590.0 116 53 12 32 80 116 81 67 94 57
3630.0 17 38 102 154 171 126 109 127 146 137
3670.0 118 154 114 91 98 100 167 166 116 134
3710.0 126 98 77 67 104 121 85 60 89 78
3750.0 77 104 172 183 132 127 123 67 66 135
3790.0 177 143 68 31 51 96 85 117 170 171
3830.0 155 59 41 105 86
##END=
