##TITLE=3-Methylheptane
##JCAMP-DX=4.24
##DATA TYPE=INFRARED SPECTRUM
##ORIGIN=NIST Mass Spectrometry Data Center
##OWNER=NIST Standard Reference Data Program
Collection (C) 2018 copyright by the U.S. Secretary of Commerce
on behalf of the United States of America. All rights reserved.
##CAS REGISTRY NO=589-81-1
##MOLFORM=C 8 H 18
##$NIST SOURCE=MSDC-IR
##SPECTROMETER/DATA SYSTEM=HP-GC/MS/IRD
##STATE=gas
##XUNITS=1/CM
##YUNITS=ABSORBANCE
##XFACTOR=1.0
##YFACTOR=0.000004700
##DELTAX=4.0
##FIRSTX=550.0
##LASTX=3846.0
##FIRSTY=0.000385
##MAXX=3846
##MINX=550
##MAXY=0.047
##MINY=0
##NPOINTS=825
##XYDATA=(X++(Y..Y))
550.0 82 67 58 64 47 48 49 30 30 44
590.0 39 36 27 9 15 31 32 20 26 31
630.0 23 15 7 18 31 35 40 44 40 24
670.0 16 28 32 27 13 7 22 41 46 47
710.0 53 58 78 88 86 97 102 95 92 96
750.0 91 88 100 108 109 116 124 124 123 104
790.0 78 71 60 50 46 36 39 37 18 13
830.0 16 22 17 11 15 8 2 12 20 17
870.0 15 18 25 35 43 47 51 48 54 57
910.0 54 51 43 41 38 32 32 35 41 46
950.0 51 68 85 98 109 112 106 96 86 77
990.0 73 78 72 66 74 77 72 66 63 54
1030.0 50 49 42 38 45 53 53 53 57 58
1070.0 59 67 70 69 58 48 46 44 42 44
1110.0 51 59 65 79 94 106 121 133 138 138
1150.0 144 147 134 119 104 95 87 74 71 72
1190.0 74 80 83 88 98 103 109 118 120 120
1230.0 121 121 124 131 132 127 127 132 135 136
1270.0 137 143 152 159 163 173 187 190 188 190
1310.0 185 178 184 199 213 231 244 254 288 318
1350.0 338 358 373 412 492 593 708 806 859 855
1390.0 782 622 464 362 294 253 227 211 225 258
1430.0 298 349 442 578 726 903 1064 1207 1316 1322
1470.0 1228 1059 874 693 519 385 295 236 194 135
1510.0 101 103 92 81 84 83 77 68 55 56
1550.0 60 56 46 55 68 65 60 59 63 68
1590.0 66 61 57 57 56 56 52 47 47 47
1630.0 52 46 45 47 39 30 30 43 48 47
1670.0 35 30 36 27 25 36 31 16 17 25
1710.0 25 14 6 18 26 15 4 11 17 10
1750.0 2 8 11 13 9 5 10 12 8 7
1790.0 7 12 11 7 14 14 12 14 15 10
1830.0 8 11 14 8 6 10 14 17 14 7
1870.0 3 11 14 14 10 11 14 15 13 9
1910.0 12 10 9 13 14 13 10 8 7 7
1950.0 9 8 8 9 10 9 6 8 8 6
1990.0 3 6 10 6 7 11 10 12 14 11
2030.0 12 15 14 12 9 10 12 13 15 13
2070.0 13 14 14 12 11 11 9 10 12 15
2110.0 14 11 10 5 7 12 11 8 10 9
2150.0 9 11 13 10 7 9 10 11 10 10
2190.0 11 8 8 9 7 9 8 6 9 11
2230.0 9 7 4 6 5 7 10 9 8 7
2270.0 10 11 6 4 7 5 4 4 3 2
2310.0 4 8 5 4 3 2 3 2 7 13
2350.0 11 7 10 10 9 11 13 12 13 17
2390.0 19 20 21 21 20 22 21 20 19 17
2430.0 17 14 13 13 17 15 14 14 16 15
2470.0 12 11 13 15 17 19 17 14 14 15
2510.0 19 23 24 27 29 27 28 29 30 34
2550.0 34 37 40 45 49 51 54 56 63 67
2590.0 65 68 70 74 80 80 83 85 81 82
2630.0 85 84 88 90 88 90 91 94 97 107
2670.0 113 111 115 118 116 120 119 114 118 124
2710.0 134 144 149 155 165 176 187 197 204 204
2750.0 206 202 200 201 202 207 219 236 251 271
2790.0 291 316 343 365 397 434 477 527 583 652
2830.0 737 856 1023 1252 1553 1950 2424 2941 3463 3945
2870.0 4390 4761 4991 5028 4929 4770 4594 4534 4721 5170
2910.0 5820 6579 7396 8172 8780 9137 9219 9022 8621 8211
2950.0 8011 8187 8806 9603 10000 9658 8631 7066 5268 3703
2990.0 2620 1935 1497 1214 1027 889 790 709 645 592
3030.0 544 506 476 451 421 395 375 357 344 327
3070.0 315 303 288 280 270 261 258 243 222 207
3110.0 202 194 182 171 166 162 153 145 142 131
3150.0 130 135 131 134 130 120 113 109 104 98
3190.0 96 93 84 69 63 62 56 47 35 35
3230.0 44 44 35 29 31 30 30 31 27 22
3270.0 18 22 29 26 19 18 17 14 18 19
3310.0 17 18 13 15 22 18 15 19 21 27
3350.0 27 18 23 29 28 29 32 29 20 20
3390.0 22 17 17 22 24 27 25 19 13 14
3430.0 20 17 15 15 14 16 17 10 5 10
3470.0 18 18 14 16 21 18 10 5 2 6
3510.0 18 33 27 15 11 14 13 19 26 15
3550.0 14 23 23 14 0 9 27 29 27 10
3590.0 11 27 29 33 24 10 16 18 21 17
3630.0 13 33 33 26 21 20 36 45 50 44
3670.0 28 27 34 35 35 38 40 42 42 46
3710.0 45 37 36 28 21 24 11 17 22 14
3750.0 27 37 42 46 49 50 57 52 48 51
3790.0 48 52 50 44 48 54 50 42 42 52
3830.0 52 50 46 48 53
##END=
