##TITLE=4-Chloro-3-methylphenol
##JCAMP-DX=4.24
##DATA TYPE=INFRARED SPECTRUM
##ORIGIN=NIST Mass Spectrometry Data Center
##OWNER=NIST Standard Reference Data Program
Collection (C) 2018 copyright by the U.S. Secretary of Commerce
on behalf of the United States of America. All rights reserved.
##CAS REGISTRY NO=59-50-7
##MOLFORM=C 7 H 7 Cl O
##$NIST SOURCE=MSDC-IR
##SPECTROMETER/DATA SYSTEM=HP-GC/MS/IRD
##STATE=gas
##XUNITS=1/CM
##YUNITS=ABSORBANCE
##XFACTOR=1.0
##YFACTOR=0.000001800
##DELTAX=4.0
##FIRSTX=550.0
##LASTX=3846.0
##FIRSTY=0.000522
##MAXX=3846
##MINX=550
##MAXY=0.018
##MINY=0
##NPOINTS=825
##XYDATA=(X++(Y..Y))
550.0 290 402 570 746 826 742 649 530 385 208
590.0 113 106 74 61 82 106 214 454 916 1846
630.0 2968 3607 3743 3565 2680 1306 409 124 69 98
670.0 127 161 182 155 145 188 179 100 88 60
710.0 19 14 9 69 157 148 124 121 67 34
750.0 18 23 88 133 166 225 347 557 822 1114
790.0 1558 2035 2135 2039 2002 1885 1552 1171 1005 1020
830.0 1096 1227 1455 1545 1458 1410 1384 1381 1436 1295
870.0 985 799 662 488 379 345 306 245 159 134
910.0 171 160 124 148 203 243 367 530 621 656
950.0 641 550 411 324 304 304 337 399 474 573
990.0 706 867 1008 1098 1126 1079 945 761 613 542
1030.0 522 613 897 1385 2048 2583 2830 2836 2504 1770
1070.0 1077 769 626 534 536 558 585 665 781 959
1110.0 1263 1732 2326 2899 3383 3738 3976 4253 5098 6609
1150.0 7796 8324 8756 8998 8981 9415 9933 10000 9722 8665
1190.0 6769 5206 4353 3573 2670 1980 1585 1400 1421 1661
1230.0 2055 2496 2883 3066 2963 2640 2230 1890 1810 2116
1270.0 2719 3624 4811 6024 6777 6811 6116 4794 3151 1779
1310.0 1057 729 538 425 374 339 300 257 237 241
1350.0 273 325 359 403 485 574 655 704 713 704
1390.0 725 773 850 1077 1500 2053 2628 3138 3482 3527
1430.0 3285 2904 2478 2122 1943 1928 2076 2466 3242 4510
1470.0 6036 7402 8317 8551 7911 6547 5055 3741 2712 1992
1510.0 1500 1217 1046 959 945 969 1006 1055 1091 1092
1550.0 1114 1194 1356 1582 1898 2313 2755 3081 3209 3139
1590.0 2903 2652 2527 2590 2724 2790 2742 2510 2114 1649
1630.0 1173 773 497 346 269 245 229 193 168 164
1670.0 176 179 185 191 174 155 166 179 172 166
1710.0 161 175 185 175 175 181 176 153 124 101
1750.0 82 67 63 65 58 53 39 30 35 34
1790.0 39 44 37 27 27 41 47 43 53 76
1830.0 100 122 128 140 170 179 163 169 186 187
1870.0 188 189 184 171 133 108 108 85 63 69
1910.0 64 46 39 35 48 48 36 33 28 17
1950.0 17 22 26 37 44 43 40 36 32 26
1990.0 25 19 9 13 17 15 17 20 23 16
2030.0 10 13 21 27 26 13 7 10 10 13
2070.0 24 25 23 23 27 34 44 41 42 50
2110.0 50 26 18 33 28 32 34 29 15 8
2150.0 7 10 19 16 21 33 34 38 45 49
2190.0 44 46 60 62 60 60 47 42 47 43
2230.0 52 55 50 33 22 26 18 23 17 8
2270.0 22 26 21 22 26 32 40 31 30 44
2310.0 55 58 63 68 67 80 95 98 104 104
2350.0 101 114 109 84 65 74 88 90 81 77
2390.0 76 71 67 74 82 80 74 91 110 116
2430.0 110 109 125 128 106 101 101 99 104 109
2470.0 120 114 98 95 96 82 61 51 56 63
2510.0 54 50 50 61 74 65 59 59 68 65
2550.0 48 58 51 32 35 42 58 58 47 61
2590.0 47 25 34 29 21 30 41 44 40 43
2630.0 40 51 69 58 46 51 72 68 49 47
2670.0 40 35 24 22 36 33 13 13 31 32
2710.0 26 25 41 61 65 70 82 90 101 100
2750.0 86 88 93 82 71 73 79 77 71 64
2790.0 65 65 64 50 65 82 83 107 117 124
2830.0 138 139 170 203 212 258 320 378 428 462
2870.0 481 483 465 457 436 410 420 428 465 507
2910.0 556 640 737 862 1037 1195 1287 1306 1271 1193
2950.0 1073 943 866 849 860 860 869 885 897 903
2990.0 880 858 851 829 856 966 1068 1110 1121 1106
3030.0 1012 918 858 824 791 748 721 712 700 673
3070.0 621 562 534 501 451 407 378 372 342 291
3110.0 248 227 193 162 154 136 90 61 60 83
3150.0 99 73 56 50 52 46 43 43 32 38
3190.0 50 49 50 57 54 30 7 23 35 33
3230.0 42 64 44 19 30 46 41 31 42 44
3270.0 37 33 29 25 31 26 17 32 34 35
3310.0 39 32 14 13 33 36 54 60 77 92
3350.0 103 126 123 113 107 115 123 101 95 84
3390.0 70 92 90 50 59 104 95 87 93 53
3430.0 46 76 60 21 18 25 20 21 24 26
3470.0 35 28 23 32 58 58 26 29 30 25
3510.0 18 23 32 32 34 35 32 21 18 18
3550.0 29 30 5 11 35 47 58 59 44 56
3590.0 71 67 82 94 135 192 211 283 394 541
3630.0 869 1446 2437 3959 5576 6324 6163 5608 4319 2472
3670.0 1164 589 311 165 93 55 14 2 15 22
3710.0 19 28 10 0 18 32 22 4 3 37
3750.0 50 30 24 33 60 73 41 17 22 39
3790.0 40 52 73 69 45 25 30 75 78 47
3830.0 47 72 58 27 48
##END=
