##TITLE=2,2-Dimethylhexane
##JCAMP-DX=4.24
##DATA TYPE=INFRARED SPECTRUM
##ORIGIN=EPA-IR VAPOR PHASE LIBRARY
##OWNER=SRD/NIST
Collection (C) 2018 copyright by the U.S. Secretary of Commerce
on behalf of the United States of America. All rights reserved.
##CAS REGISTRY NO=590-73-8
##MOLFORM=C 8 H 18
##$NIST SOURCE=MSDC-IR
##STATE=gas
##XUNITS=1/CM
##YUNITS=ABSORBANCE
##XFACTOR=1.
##YFACTOR=0.001
##DELTAX=3.85796
##FIRSTX=501.5
##LASTX=4000.7
##FIRSTY=0.063
##MAXX=4000.7
##MINX=501.534
##MAXY=0.183525
##MINY=0
##NPOINTS=908
##XYDATA=(X++(Y..Y))
501.534 0.063 0.008 0 0.013 0.049 0.138 0.185 0.115 0.036 0.119
540.114 0.132 0.049 0.125 0.145 0.158 0.206 0.287 0.272 0.049 0.004
578.693 0.09 0.126 0.143 0.169 0.166 0.147 0.218 0.236 0.165 0.189
617.273 0.222 0.187 0.226 0.261 0.225 0.237 0.188 0.103 0.13 0.21
655.852 0.223 0.191 0.225 0.279 0.333 0.3682 0.3853 0.3875 0.3983 0.4127
694.432 0.3933 0.4003 0.43638 0.52038 0.6686 0.7954 0.8993 1.0265 1.2093 1.309
733.011 1.2731 1.2246 1.1985 1.1212 0.9598 0.8876 0.8911 0.8318 0.8336 0.91
771.591 0.8727 0.8329 0.804 0.7626 0.7838 0.7627 0.6611 0.5895 0.5563 0.502
810.170 0.4214 0.3658 0.3642 0.3537 0.3713 0.343 0.308 0.3469 0.3465 0.341
848.750 0.37 0.4212 0.45926 0.51414 0.6009 0.6969 0.815 0.9766 1.1717 1.3664
887.330 1.595 1.775 1.905 1.995 1.935 1.805 1.665 1.455 1.2555 1.0911
925.909 0.9565 0.8692 0.7805 0.7352 0.7249 0.6384 0.53513 0.48723 0.45626 0.4299
964.489 0.4184 0.4337 0.46595 0.4295 0.3948 0.3994 0.3923 0.47349 0.52618 0.5543
1003.068 0.59 0.6418 0.7141 0.7295 0.7589 0.7623 0.7615 0.7457 0.6885 0.6395
1041.648 0.666 0.683 0.6843 0.7055 0.714 0.7983 0.9467 0.991 0.9336 0.9426
1080.227 0.9578 0.9822 1.2288 1.3808 1.3545 1.3972 1.3114 1.1137 0.9585 0.8255
1118.807 0.7126 0.6956 0.6916 0.5849 0.5668 0.645 0.6177 0.6073 0.7435 0.7912
1157.387 0.8335 0.9589 1.0834 1.25 1.535 1.915 2.325 2.725 3.105 3.515
1195.966 3.905 4.095 4.045 3.865 3.525 3.285 3.355 3.565 3.985 4.695
1234.546 5.555 6.325 6.785 6.785 6.335 5.405 4.325 3.395 2.665 2.265
1273.125 1.995 1.805 1.665 1.585 1.585 1.665 1.745 1.795 1.895 2.005
1311.705 2.065 2.135 2.265 2.455 2.775 3.195 3.725 4.365 5.215 6.385
1350.284 8.075 10.325 12.985 15.695 17.865 18.925 18.425 16.695 14.675 13.035
1388.864 11.845 10.665 9.325 8.195 7.005 5.485 4.195 3.545 3.315 3.295
1427.443 3.445 3.755 4.255 4.965 5.945 7.305 9.105 11.245 13.765 16.165
1466.023 18.285 19.795 20.145 19.155 17.165 14.585 11.535 8.555 6.265 4.655
1504.603 3.635 2.895 2.395 2.065 1.815 1.595 1.475 1.37 1.2713 1.2112
1543.182 1.1062 1.0287 0.9831 0.9143 0.8746 0.8323 0.7967 0.784 0.7869 0.7566
1581.762 0.7282 0.7083 0.7124 0.7247 0.7209 0.7003 0.6924 0.7097 0.7012 0.7155
1620.341 0.7065 0.661 0.6354 0.6399 0.6393 0.5964 0.6086 0.6333 0.6323 0.6114
1658.921 0.5801 0.5972 0.6239 0.608 0.5912 0.602 0.6148 0.6146 0.5983 0.5946
1697.500 0.6091 0.6209 0.6073 0.5854 0.5957 0.6037 0.5578 0.51148 0.50949 0.53126
1736.080 0.52844 0.51335 0.49921 0.49088 0.47993 0.453847 0.4348 0.4141 0.398 0.4166
1774.659 0.447138 0.453082 0.46042 0.448425 0.448213 0.44303 0.4248 0.4337 0.4404 0.448326
1813.239 0.446107 0.4402 0.4347 0.44238 0.449156 0.444047 0.4299 0.4222 0.43945 0.4329
1851.819 0.4299 0.45253 0.46667 0.45748 0.444585 0.447846 0.45975 0.46693 0.46135 0.45787
1890.398 0.449952 0.452883 0.45114 0.44382 0.43834 0.44228 0.4593 0.448229 0.425 0.4285
1928.978 0.44369 0.45528 0.454937 0.46135 0.45921 0.445265 0.43974 0.4261 0.4277 0.43777
1967.557 0.44095 0.4428 0.450236 0.449093 0.43908 0.447584 0.45904 0.453836 0.451057 0.454435
2006.137 0.45895 0.44034 0.4278 0.449685 0.46664 0.46423 0.45707 0.44771 0.4761 0.50152
2044.716 0.47573 0.453469 0.45676 0.46907 0.48446 0.47499 0.45584 0.454497 0.452687 0.46244
2083.296 0.46459 0.46902 0.49457 0.49469 0.49385 0.50194 0.494 0.49308 0.49743 0.50118
2121.875 0.4917 0.45611 0.444127 0.46742 0.444694 0.4238 0.4293 0.4213 0.4388 0.43996
2160.455 0.4251 0.4238 0.4326 0.449056 0.45911 0.43851 0.414 0.4198 0.4127 0.4211
2199.035 0.44288 0.451683 0.45334 0.4725 0.47116 0.4322 0.43934 0.47007 0.46496 0.47895
2237.614 0.50013 0.4926 0.4917 0.47874 0.47029 0.51302 0.5452 0.53348 0.53708 0.53849
2276.194 0.53204 0.5545 0.5711 0.5885 0.6024 0.5827 0.5549 0.53638 0.50619 0.48936
2314.773 0.50657 0.50014 0.50495 0.53299 0.54062 0.53556 0.5484 0.5598 0.5862 0.5991
2353.353 0.6034 0.6517 0.6691 0.655 0.6464 0.6396 0.6439 0.6571 0.6632 0.6672
2391.932 0.6881 0.6972 0.6657 0.6569 0.6636 0.6532 0.6485 0.6317 0.5816 0.5589
2430.512 0.5661 0.5594 0.54016 0.5614 0.5908 0.5896 0.5921 0.6 0.5919 0.5867
2469.092 0.5895 0.5633 0.5615 0.5653 0.5744 0.5886 0.5858 0.6024 0.6178 0.6229
2507.671 0.6251 0.6282 0.6464 0.6615 0.6867 0.6962 0.726 0.7585 0.7508 0.7523
2546.251 0.7864 0.827 0.8729 0.9018 0.8888 0.8898 0.9192 0.9377 0.917 0.916
2584.830 0.956 0.9858 0.9886 1.0039 1.0263 1.0707 1.1407 1.1839 1.1932 1.2396
2623.410 1.286 1.3184 1.3626 1.3906 1.4237 1.445 1.475 1.535 1.575 1.635
2661.989 1.695 1.745 1.775 1.765 1.775 1.805 1.865 1.895 1.935 2.005
2700.569 2.095 2.245 2.345 2.445 2.575 2.695 2.805 2.885 2.955 3.005
2739.148 3.015 3.045 3.085 3.085 3.075 3.075 3.085 3.115 3.195 3.315
2777.728 3.465 3.685 3.935 4.205 4.525 4.855 5.255 5.725 6.245 6.795
2816.308 7.415 8.195 9.155 10.385 11.905 13.835 16.215 19.065 22.535 26.735
2854.887 31.785 37.695 44.255 50.775 56.605 61.365 64.245 65.075 64.835 64.385
2893.467 63.995 64.155 65.465 67.875 70.945 74.505 78.945 84.745 91.995 100.735
2932.046 110.445 119.875 128.245 136.525 146.415 158.575 171.475 181.515 183.525 173.185
2970.626 150.895 121.235 90.265 63.185 43.425 30.785 22.835 17.755 14.435 12.195
3009.205 10.615 9.425 8.495 7.775 7.135 6.575 6.095 5.645 5.245 4.905
3047.785 4.575 4.345 4.145 3.955 3.795 3.685 3.595 3.505 3.435 3.365
3086.364 3.325 3.275 3.185 3.085 3.005 2.945 2.885 2.815 2.725 2.595
3124.944 2.535 2.465 2.395 2.385 2.335 2.295 2.275 2.245 2.245 2.275
3163.524 2.255 2.255 2.295 2.295 2.315 2.305 2.335 2.345 2.285 2.255
3202.103 2.255 2.215 2.155 2.085 1.975 1.885 1.825 1.775 1.745 1.605
3240.683 1.4303 1.3554 1.3139 1.2838 1.1851 1.0781 1.043 1.0038 0.9412 0.909
3279.262 0.9043 0.8792 0.8849 0.8645 0.8427 0.897 0.9387 0.8842 0.8358 0.8672
3317.842 0.8534 0.8277 0.8822 0.8555 0.8236 0.8371 0.8291 0.8687 0.8661 0.8386
3356.421 0.8291 0.8079 0.8395 0.8356 0.8228 0.8561 0.8393 0.8174 0.8086 0.7396
3395.001 0.6891 0.7088 0.6843 0.6953 0.6817 0.6046 0.6174 0.6695 0.6749 0.6266
3433.580 0.6118 0.6449 0.6056 0.5823 0.5714 0.5528 0.5029 0.47804 0.5451 0.53044
3472.160 0.52255 0.51227 0.49095 0.46904 0.48381 0.48644 0.3882 0.364 0.3678 0.3751
3510.740 0.4263 0.431 0.3985 0.3933 0.3866 0.3863 0.3762 0.4019 0.43742 0.4164
3549.319 0.4035 0.3854 0.4103 0.3853 0.333 0.3929 0.454047 0.47111 0.47689 0.45932
3587.899 0.44393 0.44233 0.43885 0.454291 0.47093 0.47153 0.43944 0.46157 0.53171 0.5649
3626.478 0.53229 0.50583 0.53341 0.54186 0.51261 0.52705 0.6256 0.5946 0.52887 0.52012
3665.058 0.53592 0.5887 0.5734 0.51401 0.49631 0.50523 0.54139 0.54241 0.52003 0.5566
3703.637 0.5666 0.53042 0.52114 0.51771 0.539 0.5838 0.5757 0.5853 0.6037 0.6045
3742.217 0.5813 0.5702 0.6295 0.645 0.6359 0.6452 0.6332 0.6256 0.5892 0.6031
3780.797 0.641 0.6228 0.6502 0.6805 0.6839 0.7513 0.8237 0.8319 0.8237 0.8276
3819.376 0.8182 0.7971 0.7586 0.8008 0.8177 0.7456 0.7283 0.7301 0.8101 0.8578
3857.956 0.7451 0.6992 0.7385 0.7714 0.7534 0.7318 0.8048 0.8374 0.7965 0.832
3896.535 0.8549 0.799 0.7792 0.7761 0.7086 0.6709 0.7371 0.7801 0.7578 0.7623
3935.115 0.7196 0.6891 0.7494 0.7503 0.7456 0.79 0.8517 0.8524 0.8567 0.8733
3973.694 0.8424 0.7916 0.7724 0.7828 0.7628 0.771 0.7909 0.7787
##END=
