##TITLE=4,4-Dimethyl-2-pentanone
##JCAMP-DX=4.24
##DATA TYPE=INFRARED SPECTRUM
##ORIGIN=NIST Mass Spectrometry Data Center
##OWNER=NIST Standard Reference Data Program
Collection (C) 2018 copyright by the U.S. Secretary of Commerce
on behalf of the United States of America. All rights reserved.
##CAS REGISTRY NO=590-50-1
##MOLFORM=C 7 H 14 O
##$NIST SOURCE=MSDC-IR
##SPECTROMETER/DATA SYSTEM=HP-GC/MS/IRD
##STATE=gas
##XUNITS=1/CM
##YUNITS=ABSORBANCE
##XFACTOR=1.0
##YFACTOR=0.000002200
##DELTAX=4.0
##FIRSTX=550.0
##LASTX=3846.0
##FIRSTY=0.000363
##MAXX=3846
##MINX=550
##MAXY=0.022
##MINY=0
##NPOINTS=825
##XYDATA=(X++(Y..Y))
550.0 165 150 123 124 119 112 119 169 264 391
590.0 575 679 735 697 619 534 379 248 178 152
630.0 120 87 74 82 83 73 83 84 60 39
670.0 25 0 30 87 76 57 34 24 43 59
710.0 55 56 74 64 43 49 41 37 67 74
750.0 51 39 53 75 69 55 58 78 64 53
790.0 81 81 59 66 99 100 93 95 74 56
830.0 70 85 90 78 78 101 114 109 109 123
870.0 125 136 152 162 183 216 243 281 345 391
910.0 446 489 509 513 475 405 364 327 301 306
950.0 319 342 386 433 464 491 501 499 477 428
990.0 382 345 303 270 255 245 227 214 219 215
1030.0 211 226 235 245 252 243 242 248 234 225
1070.0 225 223 232 229 233 260 289 320 353 395
1110.0 467 578 709 876 1099 1376 1689 2000 2238 2353
1150.0 2376 2296 2117 1874 1636 1471 1404 1404 1419 1443
1190.0 1492 1578 1684 1785 1908 2024 2087 2086 2038 1934
1230.0 1773 1587 1405 1231 1060 901 770 671 609 562
1270.0 537 529 527 539 570 633 727 842 1002 1192
1310.0 1364 1512 1624 1698 1767 1850 1986 2221 2627 3191
1350.0 3815 4394 4835 5024 4931 4545 3845 3094 2506 2047
1390.0 1692 1446 1287 1176 1091 1024 976 949 942 942
1430.0 947 961 973 998 1050 1133 1232 1340 1446 1546
1470.0 1627 1665 1612 1495 1338 1159 972 772 602 480
1510.0 400 362 340 309 288 288 285 266 253 254
1550.0 256 256 251 248 235 216 206 210 210 196
1590.0 196 194 190 206 200 192 188 181 191 196
1630.0 201 212 231 239 245 267 293 332 375 426
1670.0 502 616 756 927 1154 1439 1798 2260 2819 3463
1710.0 4178 4901 5590 6136 6390 6313 5923 5294 4480 3580
1750.0 2742 2048 1512 1114 840 648 516 423 351 297
1790.0 261 230 210 195 184 175 160 152 146 138
1830.0 128 122 118 109 104 102 103 94 80 82
1870.0 82 75 72 76 78 73 75 75 66 60
1910.0 62 57 58 60 57 60 59 55 58 61
1950.0 58 62 68 63 60 55 52 49 38 35
1990.0 40 44 44 44 42 44 39 41 46 41
2030.0 33 38 44 41 36 37 35 38 37 33
2070.0 40 45 49 50 42 40 45 51 52 49
2110.0 49 51 52 44 47 52 47 43 47 47
2150.0 44 43 48 46 41 45 46 39 36 35
2190.0 36 41 40 33 29 27 22 23 24 32
2230.0 38 31 21 22 23 18 21 29 33 32
2270.0 30 27 29 32 31 38 41 39 43 45
2310.0 40 32 24 20 22 22 23 15 16 20
2350.0 11 9 12 12 14 19 17 14 13 12
2390.0 20 28 30 28 22 17 17 18 21 16
2430.0 10 12 7 7 3 6 5 0 7 6
2470.0 5 4 9 15 23 19 13 16 24 29
2510.0 25 24 32 34 37 38 34 28 34 33
2550.0 28 31 35 38 37 39 40 35 36 47
2590.0 49 46 44 39 37 36 40 46 43 42
2630.0 45 48 53 53 54 53 59 63 73 77
2670.0 73 73 81 91 92 92 94 97 106 122
2710.0 125 126 139 152 156 168 172 161 161 163
2750.0 161 165 165 159 171 181 187 193 191 200
2790.0 217 235 253 274 310 330 347 391 439 484
2830.0 537 594 658 749 864 1007 1215 1504 1857 2265
2870.0 2698 3108 3440 3651 3766 3803 3809 3839 3886 3952
2910.0 4057 4168 4277 4409 4584 4837 5197 5681 6334 7181
2950.0 8192 9171 9825 10000 9581 8619 7279 5795 4491 3507
2990.0 2789 2241 1826 1524 1280 1073 913 782 669 581
3030.0 512 460 435 410 379 372 372 354 340 332
3070.0 327 313 307 298 270 259 249 232 235 225
3110.0 201 187 186 187 174 166 169 162 146 143
3150.0 150 147 141 140 141 148 144 145 153 165
3190.0 160 142 132 134 135 146 149 134 135 138
3230.0 129 121 131 129 112 106 98 85 85 84
3270.0 78 77 73 68 70 47 33 50 60 57
3310.0 53 40 28 47 52 44 53 50 45 66
3350.0 66 67 86 72 66 80 85 93 96 91
3390.0 92 100 107 96 100 113 118 130 142 152
3430.0 146 145 150 134 124 123 112 100 106 115
3470.0 88 52 44 46 43 43 43 25 7 15
3510.0 39 39 18 21 29 26 17 14 22 24
3550.0 20 24 25 32 39 15 0 11 16 25
3590.0 29 27 22 27 22 11 28 22 11 28
3630.0 30 21 24 25 20 22 19 16 24 36
3670.0 22 11 25 22 15 14 23 29 21 9
3710.0 8 26 35 31 25 24 24 17 27 33
3750.0 27 21 18 21 17 19 24 29 28 22
3790.0 27 32 38 38 27 17 15 18 34 36
3830.0 31 37 43 49 51
##END=
