##TITLE=Terbacil
##JCAMP-DX=4.24
##DATA TYPE=INFRARED SPECTRUM
##ORIGIN=NIST Mass Spectrometry Data Center
##OWNER=NIST Standard Reference Data Program
Collection (C) 2018 copyright by the U.S. Secretary of Commerce
on behalf of the United States of America. All rights reserved.
##CAS REGISTRY NO=5902-51-2
##MOLFORM=C 9 H 13 Cl N 2 O 2
##$NIST SOURCE=MSDC-IR
##SPECTROMETER/DATA SYSTEM=HP-GC/MS/IRD
##STATE=gas
##XUNITS=1/CM
##YUNITS=ABSORBANCE
##XFACTOR=1.0
##YFACTOR=0.000003500
##DELTAX=4.0
##FIRSTX=550.0
##LASTX=3846.0
##FIRSTY=0.001824
##MAXX=3846
##MINX=550
##MAXY=0.035
##MINY=0
##NPOINTS=825
##XYDATA=(X++(Y..Y))
550.0 521 495 476 440 367 265 193 161 161 199
590.0 232 247 239 197 144 100 77 63 57 73
630.0 105 160 221 239 215 167 127 119 112 107
670.0 89 60 49 45 56 53 18 1 7 13
710.0 31 47 65 91 125 180 280 412 539 672
750.0 761 828 901 918 898 805 625 442 282 165
790.0 109 84 67 55 45 49 68 73 81 113
830.0 128 103 71 50 29 11 4 3 6 19
870.0 28 30 28 51 102 99 53 24 20 30
910.0 35 41 55 56 56 48 32 23 29 34
950.0 28 35 40 50 70 79 89 106 108 110
990.0 108 111 129 147 186 246 307 340 342 337
1030.0 302 290 287 286 314 336 355 360 364 365
1070.0 347 340 354 363 372 413 517 692 924 1199
1110.0 1416 1480 1358 1059 729 490 337 263 238 231
1150.0 230 246 273 316 372 463 611 795 1004 1209
1190.0 1330 1302 1113 842 603 439 362 351 358 361
1230.0 366 345 324 331 343 344 333 362 455 601
1270.0 751 852 855 758 622 502 422 376 353 347
1310.0 361 391 436 505 590 679 780 897 1044 1243
1350.0 1536 1957 2537 3205 3749 3937 3624 2974 2358 1971
1390.0 1783 1648 1467 1236 996 788 629 534 493 481
1430.0 494 522 568 632 719 868 1097 1376 1626 1754
1470.0 1715 1552 1351 1187 1047 896 737 604 518 466
1510.0 425 386 340 292 249 222 210 198 186 176
1550.0 162 155 158 149 138 132 130 134 134 132
1590.0 133 138 147 149 159 182 217 261 311 378
1630.0 460 567 714 920 1232 1634 2052 2342 2415 2292
1670.0 2114 2059 2259 2833 3942 5675 7824 9553 10000 8952
1710.0 6752 4530 3127 2651 3005 4073 5491 6467 6435 5377
1750.0 3835 2668 2075 1768 1560 1361 1129 915 756 628
1790.0 511 406 315 251 207 171 142 125 111 94
1830.0 80 70 68 62 58 60 63 63 58 57
1870.0 61 61 60 57 56 58 56 50 50 46
1910.0 49 44 33 23 22 27 30 30 27 20
1950.0 19 23 19 14 16 15 14 14 16 23
1990.0 26 25 25 24 22 20 20 23 24 29
2030.0 26 22 23 21 18 18 16 10 9 10
2070.0 7 4 1 5 14 16 11 12 14 10
2110.0 14 22 24 23 24 28 21 15 14 11
2150.0 12 12 13 13 10 5 6 11 11 9
2190.0 12 17 16 10 17 23 14 14 19 15
2230.0 15 23 22 23 29 29 27 26 28 31
2270.0 29 24 27 31 30 31 35 31 28 30
2310.0 27 23 21 19 19 16 11 22 22 19
2350.0 21 17 15 20 22 22 23 24 23 28
2390.0 31 30 29 27 20 18 24 23 17 19
2430.0 23 21 16 13 16 20 20 17 12 7
2470.0 5 8 13 17 17 17 17 16 18 17
2510.0 20 25 20 14 13 14 19 20 11 7
2550.0 12 17 10 5 6 3 5 3 5 10
2590.0 10 1 4 14 13 15 16 13 14 17
2630.0 19 16 15 15 13 9 4 3 8 11
2670.0 11 15 13 6 3 7 5 6 15 20
2710.0 20 24 32 35 36 39 46 47 46 47
2750.0 48 45 37 37 37 39 50 47 48 50
2790.0 51 57 60 64 69 77 74 63 68 78
2830.0 87 97 105 114 128 139 145 153 170 187
2870.0 202 232 264 289 318 347 362 388 430 464
2910.0 499 540 592 655 723 790 853 913 944 917
2950.0 858 805 796 834 906 1016 1158 1263 1262 1116
2990.0 888 658 489 395 330 294 280 257 245 256
3030.0 269 273 263 241 216 179 154 144 129 116
3070.0 116 109 98 92 89 81 78 85 82 65
3110.0 56 59 53 44 43 46 50 44 41 35
3150.0 31 36 35 32 34 39 34 27 31 30
3190.0 28 36 33 21 23 22 19 32 34 27
3230.0 30 29 21 21 23 14 22 25 14 12
3270.0 17 19 21 20 11 10 13 11 10 16
3310.0 19 26 33 35 40 24 22 35 35 31
3350.0 24 28 37 42 38 34 40 38 42 57
3390.0 76 89 92 81 71 87 100 122 149 194
3430.0 264 335 434 612 882 1199 1433 1460 1280 958
3470.0 627 402 263 181 130 89 61 47 44 37
3510.0 26 26 22 22 36 34 26 23 23 11
3550.0 6 17 17 15 10 16 22 8 6 13
3590.0 6 14 7 0 8 9 17 15 9 17
3630.0 16 10 17 14 17 16 14 24 15 14
3670.0 15 20 11 2 19 22 14 12 6 0
3710.0 15 18 2 4 6 1 1 1 9 10
3750.0 1 2 8 10 10 11 4 1 5 8
3790.0 4 11 10 3 16 19 10 22 23 13
3830.0 17 17 28 29 18
##END=
