##TITLE=Cyclododecyl isothiocyanate
##JCAMP-DX=4.24
##DATA TYPE=INFRARED SPECTRUM
##ORIGIN=EPA-IR VAPOR PHASE LIBRARY
##OWNER=SRD/NIST
Collection (C) 2018 copyright by the U.S. Secretary of Commerce
on behalf of the United States of America. All rights reserved.
##CAS REGISTRY NO=59037-64-8
##MOLFORM=C13 H23 N S
##$NIST SOURCE=MSDC-IR
##STATE=gas
##XUNITS=1/CM
##YUNITS=ABSORBANCE
##XFACTOR=1.
##YFACTOR=0.001
##DELTAX=1.92898
##FIRSTX=549.8
##LASTX=4000.7
##FIRSTY=9.587
##MAXX=4000.7
##MINX=549.759
##MAXY=0.298147
##MINY=0
##NPOINTS=1790
##XYDATA=(X++(Y..Y))
549.759 9.587 9.617 9.537 9.027 8.447 8.267 7.917 7.367 7.127 7.207
569.049 6.987 6.497 5.907 5.467 5.317 5.087 4.897 4.797 4.617 4.337
588.339 4.147 3.977 3.847 3.917 3.737 3.377 3.487 3.457 3.187 3.107
607.628 3.097 2.967 2.867 2.917 2.747 2.407 2.307 2.417 2.567 2.437
626.918 2.277 2.117 2.037 1.937 1.907 2.067 2.057 2.097 2.227 2.237
646.208 2.137 2.247 2.397 2.457 2.567 2.757 3.007 3.237 3.457 3.547
665.498 3.577 3.867 4.137 4.317 4.607 4.847 4.927 4.967 5.087 5.087
684.787 5.137 5.107 5.177 5.407 5.497 5.817 6.137 6.387 6.747 7.177
704.077 7.677 8.087 8.667 9.507 10.337 10.937 11.537 11.947 11.897 11.317
723.367 10.527 9.777 8.937 8.127 7.547 7.067 6.827 6.837 6.777 7.027
742.657 7.437 7.897 8.407 8.947 9.737 10.357 10.807 10.767 10.217 9.617
761.947 8.777 8.187 7.707 7.327 7.307 7.257 7.337 7.537 7.527 7.457
781.236 7.217 6.857 6.287 5.727 5.307 4.907 4.757 4.547 4.477 4.807
800.526 5.047 5.177 5.347 5.417 5.317 5.107 4.977 4.917 4.607 4.427
819.816 4.367 4.257 4.357 4.147 3.767 3.707 3.827 3.697 3.467 3.467
839.106 3.467 3.587 3.767 3.687 3.527 3.487 3.387 3.397 3.407 3.367
858.395 3.497 3.617 3.837 3.987 3.897 3.977 3.897 3.847 3.997 4.107
877.685 4.087 4.017 3.977 3.937 4.007 4.037 3.897 3.707 3.727 3.677
896.975 3.797 3.797 3.717 3.907 4.117 4.467 4.857 5.077 5.087 5.147
916.265 5.387 5.437 5.457 5.377 5.097 4.927 4.727 4.437 4.357 4.457
935.555 4.427 4.427 4.457 4.417 4.547 4.657 4.507 4.427 4.547 4.457
954.844 4.277 4.077 3.967 3.957 3.977 4.037 3.987 3.927 3.857 3.767
974.134 3.677 3.657 3.597 3.587 3.597 3.477 3.497 3.537 3.387 3.377
993.424 3.427 3.437 3.447 3.347 3.407 3.287 3.057 3.187 3.257 2.997
1012.714 3.007 3.247 3.047 3.127 3.477 3.537 3.757 3.967 3.967 4.127
1032.003 3.957 3.677 3.657 3.487 3.437 3.507 3.727 3.817 3.827 3.667
1051.293 3.397 3.277 3.137 3.247 3.247 3.357 3.257 3.047 3.097 2.977
1070.583 2.877 3.177 3.667 3.757 3.847 3.927 3.887 4.177 4.387 4.357
1089.873 4.307 4.647 5.017 4.857 4.877 5.227 5.407 5.527 5.447 5.367
1109.163 5.367 5.337 5.267 5.077 5.047 4.907 4.787 4.607 4.357 4.057
1128.452 3.827 3.527 3.347 3.377 3.397 3.297 3.207 3.277 3.377 3.277
1147.742 3.217 3.487 3.677 3.547 3.467 3.567 3.797 4.017 3.957 4.067
1167.032 4.517 4.547 4.327 4.097 3.837 3.967 4.057 4.087 3.937 3.827
1186.322 4.287 4.637 4.567 4.577 4.827 4.677 4.677 4.857 4.747 4.857
1205.611 5.107 4.997 5.077 5.097 4.807 4.767 4.877 4.987 5.077 5.177
1224.901 5.057 5.007 5.017 4.897 5.067 5.407 5.427 5.567 5.807 5.887
1244.191 6.097 6.277 6.317 6.327 6.457 6.597 6.957 7.167 7.257 7.587
1263.481 7.887 8.117 8.247 8.447 8.647 9.127 9.497 9.417 9.797 10.447
1282.771 10.977 11.647 12.407 13.427 14.497 15.457 16.467 17.467 18.697 19.927
1302.060 20.957 22.047 22.977 23.647 24.127 24.447 24.827 25.307 25.887 26.597
1321.350 27.447 28.437 29.647 31.037 32.317 33.387 34.067 34.277 34.047 33.537
1340.640 32.997 32.577 32.377 32.427 32.687 33.067 33.417 33.737 33.797 33.547
1359.930 33.027 32.067 30.707 29.017 27.037 24.837 22.457 19.977 17.557 15.257
1379.219 13.127 11.317 9.737 8.427 7.367 6.507 5.867 5.387 4.987 4.647
1398.509 4.327 4.097 3.947 3.847 3.757 3.747 3.757 3.747 3.807 3.897
1417.799 3.987 4.087 4.227 4.387 4.597 4.957 5.487 6.197 7.177 8.587
1437.089 10.547 13.127 16.337 20.067 23.947 27.397 29.877 31.017 31.067 30.147
1456.378 28.497 26.967 26.117 26.067 26.687 27.667 28.517 28.797 28.047 25.917
1475.668 22.827 19.357 15.957 12.897 10.357 8.337 6.827 5.727 4.947 4.407
1494.958 3.907 3.487 3.197 2.947 2.727 2.557 2.347 2.227 2.107 1.987
1514.248 1.847 1.767 1.757 1.677 1.617 1.557 1.547 1.517 1.437 1.367
1533.538 1.327 1.307 1.2694 1.2282 1.1853 1.1539 1.1096 1.1341 1.1658 1.168
1552.827 1.1124 1.08 1.1276 1.0445 1.0951 1.1617 1.1086 1.1093 1.1137 1.0997
1572.117 1.1228 1.1811 1.1779 1.1414 1.1197 1.1113 1.1089 1.1118 1.1254 1.0887
1591.407 1.0621 1.0665 1.1087 1.1152 1.0297 1.0271 1.0524 1.1108 1.1019 1.0403
1610.697 1.0465 1.0623 0.9886 0.9656 1.0123 0.9799 0.993 1.0339 0.9986 0.9306
1629.986 0.9296 0.9324 0.9095 0.8477 0.8649 0.8722 0.8543 0.9232 0.8829 0.8312
1649.276 0.8522 0.823 0.8048 0.7881 0.8456 0.8736 0.7993 0.803 0.8561 0.8607
1668.566 0.8486 0.8278 0.8167 0.8295 0.8712 0.9416 0.931 0.8945 0.8575 0.8372
1687.856 0.8644 0.8447 0.8539 0.8336 0.7814 0.8134 0.8449 0.8424 0.8405 0.8902
1707.146 0.8863 0.8487 0.8887 0.9314 0.9139 0.9107 0.9368 1.0046 1.0418 1.0316
1726.435 1.0524 1.0354 1.0118 1.0348 1.0154 1.0045 1.0219 1.0537 1.042 1.0378
1745.725 1.1162 1.1339 1.086 1.0461 1.0812 1.1618 1.1393 1.0995 1.1036 1.085
1765.015 1.0752 1.0423 1.0338 1.0941 1.1054 1.0942 1.1257 1.1037 1.1095 1.1488
1784.305 1.1319 1.1435 1.1482 1.1592 1.1888 1.1464 1.1501 1.172 1.1749 1.2021
1803.594 1.2115 1.2619 1.297 1.327 1.327 1.337 1.357 1.367 1.377 1.387
1822.884 1.377 1.417 1.487 1.497 1.517 1.577 1.607 1.607 1.627 1.667
1842.174 1.717 1.777 1.827 1.867 1.917 1.987 2.037 2.097 2.207 2.267
1861.464 2.327 2.407 2.517 2.657 2.707 2.757 2.877 3.057 3.277 3.437
1880.754 3.557 3.707 3.847 4.027 4.237 4.437 4.647 4.897 5.147 5.387
1900.043 5.687 5.967 6.257 6.597 6.937 7.317 7.687 8.137 8.597 9.097
1919.333 9.617 10.157 10.767 11.407 12.067 12.787 13.537 14.327 15.197 16.157
1938.623 17.117 18.087 19.147 20.327 21.597 22.897 24.307 25.787 27.327 28.987
1957.913 30.827 32.707 34.737 36.927 39.137 41.537 44.117 46.867 49.797 52.847
1977.202 56.047 59.427 63.057 66.897 70.947 75.217 79.737 84.547 89.587 94.987
1996.492 100.647 106.527 112.767 119.407 126.347 133.547 141.077 148.977 157.097 165.567
2015.782 174.377 183.377 192.637 202.087 211.597 221.087 230.387 239.467 248.217 256.507
2035.072 264.297 271.357 277.497 282.727 286.917 289.997 292.097 292.987 292.597 291.137
2054.362 288.597 284.957 280.307 274.557 267.847 260.227 251.827 242.977 233.727 224.327
2073.651 214.977 206.017 197.657 189.787 182.557 176.197 170.607 165.657 161.297 157.497
2092.941 154.137 150.967 147.927 145.047 142.247 139.367 136.627 133.897 131.077 128.357
2112.231 125.747 123.157 120.647 118.157 115.727 113.277 110.677 108.037 105.357 102.457
2131.521 99.327 96.157 92.927 89.597 86.277 82.947 79.797 76.877 73.947 71.127
2150.810 68.567 66.147 63.827 61.587 59.467 57.427 55.437 53.567 51.697 49.837
2170.100 48.067 46.277 44.457 42.747 41.057 39.347 37.677 36.067 34.477 32.897
2189.390 31.377 29.897 28.357 26.957 25.687 24.407 23.187 22.057 20.997 20.037
2208.680 19.077 18.067 17.147 16.357 15.577 14.887 14.197 13.577 13.017 12.437
2227.970 11.847 11.267 10.737 10.247 9.757 9.347 8.957 8.527 8.107 7.777
2247.259 7.497 7.247 6.957 6.617 6.387 6.187 5.937 5.717 5.467 5.217
2266.549 5.027 4.807 4.597 4.437 4.297 4.167 4.017 3.887 3.767 3.617
2285.839 3.527 3.347 3.177 3.187 3.157 3.037 2.967 2.927 2.897 2.797
2305.129 2.707 2.677 2.597 2.557 2.527 2.437 2.427 2.457 2.417 2.317
2324.418 2.237 2.227 2.177 2.107 2.107 2.057 2.037 2.017 1.867 1.857
2343.708 1.937 1.897 1.817 1.767 1.737 1.787 1.757 1.677 1.667 1.627
2362.998 1.627 1.617 1.607 1.637 1.637 1.637 1.637 1.667 1.737 1.747
2382.288 1.737 1.697 1.647 1.637 1.637 1.657 1.667 1.657 1.637 1.597
2401.578 1.617 1.587 1.577 1.607 1.587 1.567 1.537 1.547 1.567 1.547
2420.867 1.537 1.557 1.537 1.477 1.447 1.487 1.527 1.527 1.487 1.517
2440.157 1.537 1.527 1.517 1.537 1.547 1.507 1.537 1.487 1.447 1.477
2459.447 1.537 1.557 1.537 1.567 1.587 1.597 1.577 1.447 1.487 1.567
2478.737 1.617 1.637 1.607 1.567 1.517 1.567 1.607 1.637 1.687 1.737
2498.026 1.777 1.827 1.947 1.947 1.917 1.967 2.007 2.077 2.137 2.137
2517.316 2.067 2.207 2.317 2.297 2.317 2.327 2.387 2.417 2.457 2.487
2536.606 2.547 2.637 2.617 2.587 2.597 2.617 2.697 2.757 2.757 2.827
2555.896 2.887 2.897 2.867 2.897 2.967 2.937 2.847 2.767 2.807 2.897
2575.186 2.907 2.957 2.927 2.967 3.107 3.117 3.157 3.137 3.067 3.017
2594.475 3.037 3.127 3.077 3.047 3.127 3.147 3.017 2.977 3.047 3.047
2613.765 3.007 2.997 3.097 3.117 3.077 3.087 3.177 3.167 3.127 3.197
2633.055 3.257 3.257 3.297 3.427 3.457 3.477 3.547 3.537 3.587 3.707
2652.345 3.787 3.867 3.947 4.067 4.207 4.247 4.307 4.377 4.487 4.737
2671.634 4.887 4.897 4.977 5.047 5.077 5.207 5.227 5.187 5.327 5.307
2690.924 5.197 5.127 5.107 5.177 5.227 5.157 5.047 5.027 5.017 4.967
2710.214 4.997 4.997 4.857 4.777 4.817 4.907 4.927 4.837 4.767 4.767
2729.504 4.837 4.897 4.857 4.727 4.647 4.637 4.657 4.757 4.697 4.657
2748.794 4.627 4.577 4.557 4.577 4.627 4.547 4.547 4.607 4.577 4.547
2768.083 4.627 4.707 4.727 4.707 4.687 4.847 5.047 5.007 5.037 5.207
2787.373 5.317 5.547 5.687 5.727 5.897 6.027 6.217 6.307 6.407 6.617
2806.663 6.797 6.987 7.207 7.447 7.657 7.827 7.997 8.227 8.407 8.577
2825.953 8.857 9.117 9.387 9.687 10.007 10.587 11.397 12.347 13.697 15.697
2845.242 18.437 22.437 28.027 35.247 44.087 53.897 63.637 72.207 78.737 83.207
2864.532 85.727 86.217 85.637 84.727 83.487 81.807 79.017 75.057 70.637 65.677
2883.822 60.627 56.087 52.317 49.577 47.827 47.367 48.187 50.147 53.467 58.577
2903.112 65.637 74.517 85.007 96.597 108.817 120.797 130.717 138.917 147.327 157.417
2922.401 170.307 186.387 205.347 225.857 246.697 266.357 282.337 293.057 298.147 297.357
2941.691 290.277 277.447 260.087 239.977 218.897 198.407 179.527 162.017 145.667 130.407
2960.981 116.037 102.627 89.927 78.297 68.247 59.707 52.617 46.567 41.417 37.047
2980.271 33.297 29.997 26.897 24.137 21.657 19.377 17.447 15.827 14.357 13.027
2999.561 11.807 10.757 9.907 9.147 8.497 7.987 7.567 7.157 6.737 6.327
3018.850 5.967 5.717 5.537 5.337 4.987 4.667 4.417 4.267 4.087 3.817
3038.140 3.727 3.597 3.237 3.017 2.907 2.797 2.797 2.777 2.707 2.607
3057.430 2.477 2.417 2.377 2.367 2.277 2.197 2.247 2.217 2.097 2.097
3076.720 2.137 2.017 1.897 1.877 1.977 2.007 1.827 1.607 1.637 1.657
3096.009 1.487 1.457 1.537 1.487 1.517 1.547 1.417 1.377 1.477 1.487
3115.299 1.457 1.467 1.507 1.507 1.307 1.327 1.367 1.347 1.447 1.437
3134.589 1.347 1.2763 1.1837 1.1241 1.2108 1.297 1.347 1.337 1.184 1.1861
3153.879 1.2203 1.1462 1.1099 1.085 1.1004 1.1478 1.1404 1.0396 0.977 0.9583
3173.169 1.0815 1.1963 1.1342 1.0843 1.093 1.0823 1.1931 1.1126 0.8591 0.9315
3192.458 1.0077 0.9866 1.0599 1.017 1.0072 1.1409 1.0011 0.8287 0.883 0.9171
3211.748 0.9169 0.8851 0.82 0.7026 0.7244 0.8117 0.781 0.7181 0.6696 0.7341
3231.038 0.8188 0.8014 0.7527 0.7737 0.7186 0.6739 0.6592 0.613 0.545 0.5794
3250.328 0.6287 0.5227 0.3858 0.35515 0.5004 0.5524 0.4998 0.6143 0.5904 0.4435
3269.617 0.3975 0.4043 0.4365 0.4156 0.4057 0.3815 0.37352 0.35887 0.34454 0.3203
3288.907 0.36311 0.4024 0.37553 0.404 0.32616 0.174 0.2055 0.33719 0.283068 0.280615
3308.197 0.37134 0.3943 0.3836 0.36182 0.35114 0.3992 0.4147 0.4504 0.5205 0.36983
3327.487 0.282944 0.32648 0.2215 0.099 0.2056 0.2646 0.34722 0.3853 0.159 0.171
3346.777 0.4013 0.4737 0.4236 0.3847 0.35523 0.33323 0.27119 0.283911 0.32753 0.2667
3366.066 0.31128 0.3875 0.4079 0.37263 0.28433 0.33211 0.4178 0.30118 0.276759 0.468
3385.356 0.4596 0.31082 0.27528 0.4005 0.4389 0.35617 0.33865 0.35179 0.3918 0.3915
3404.646 0.3853 0.35412 0.33638 0.4416 0.36025 0.32571 0.4366 0.5213 0.4821 0.3306
3423.936 0.35556 0.3997 0.264 0.2138 0.27437 0.30646 0.3922 0.4332 0.36034 0.35989
3443.225 0.32733 0.30846 0.3773 0.32577 0.32481 0.32887 0.3858 0.3892 0.4113 0.34989
3462.515 0.315 0.4562 0.4205 0.35928 0.33047 0.35718 0.374 0.36311 0.29671 0.29119
3481.805 0.33496 0.2233 0.2043 0.2359 0.279182 0.148 0.07 0.2239 0.1946 0.062
3501.095 0.028 0.125 0.2591 0.30474 0.2584 0.172 0.121 0.2071 0.2476 0.31868
3520.385 0.28821 0.119 0.141 0.1806 0.13 0.2113 0.2454 0.1828 0.2475 0.27513
3539.674 0.2179 0.064 0 0.101 0.171 0.217 0.283772 0.2546 0.2194 0.3146
3558.964 0.33962 0.34799 0.4217 0.4676 0.5523 0.5245 0.3843 0.29556 0.32978 0.2171
3578.254 0.18 0.1847 0.135 0.159 0.144 0.2162 0.2406 0.26965 0.3297 0.33971
3597.544 0.4625 0.521 0.3234 0.3178 0.4263 0.4295 0.4813 0.4993 0.34891 0.3872
3616.833 0.4223 0.4083 0.484 0.4587 0.3975 0.412 0.3854 0.33897 0.33789 0.4283
3636.123 0.5098 0.5328 0.4675 0.482 0.557 0.4944 0.4356 0.406 0.36466 0.286323
3655.413 0.32513 0.28484 0.2742 0.34961 0.37129 0.4249 0.4379 0.34266 0.33927 0.4053
3674.703 0.36498 0.4205 0.5064 0.5294 0.5463 0.5579 0.6402 0.6176 0.4074 0.31874
3693.993 0.4159 0.4716 0.4377 0.35729 0.37687 0.4234 0.4445 0.4491 0.35903 0.36404
3713.282 0.4738 0.473 0.4787 0.5941 0.7141 0.6148 0.5117 0.5149 0.4775 0.4362
3732.572 0.4082 0.412 0.4791 0.5001 0.4848 0.4868 0.495 0.5449 0.4452 0.3908
3751.862 0.4836 0.493 0.4456 0.4785 0.4746 0.5667 0.5805 0.5152 0.4977 0.4767
3771.152 0.5337 0.5976 0.5719 0.4977 0.5567 0.6284 0.6145 0.4874 0.4583 0.4561
3790.441 0.3945 0.4888 0.5287 0.5402 0.4669 0.37607 0.4423 0.5594 0.6413 0.5944
3809.731 0.5203 0.5475 0.6569 0.6387 0.5628 0.5788 0.5317 0.5003 0.4965 0.676
3829.021 0.6815 0.5541 0.8197 0.9248 0.7158 0.6108 0.673 0.6055 0.5694 0.6332
3848.311 0.5953 0.6782 0.7222 0.5812 0.4821 0.7592 0.9117 0.6487 0.6038 0.7219
3867.601 0.7827 0.7365 0.7842 0.664 0.6729 0.7697 0.8588 1.0098 0.9042 0.8394
3886.890 0.7697 0.6719 0.6963 0.7113 0.7311 0.8479 0.8003 0.7471 0.7215 0.7669
3906.180 0.8287 0.8729 0.9702 0.9247 0.8382 0.8432 1.1362 1.1336 0.9415 1.0658
3925.470 1.1152 1.011 0.9467 0.9865 0.973 0.9111 0.9743 1.1008 1.2046 1.307
3944.760 1.437 1.547 1.387 1.2345 1.1729 1.1909 1.327 1.367 1.367 1.497
3964.049 1.447 1.517 1.727 1.747 1.577 1.397 1.517 1.597 1.667 1.667
3983.339 1.637 1.717 1.587 1.597 1.737 1.767 1.857 1.807 1.747 1.857
##END=
