##TITLE=Isobutyl isothiocyanate
##JCAMP-DX=4.24
##DATA TYPE=INFRARED SPECTRUM
##ORIGIN=EPA-IR VAPOR PHASE LIBRARY
##OWNER=SRD/NIST
Collection (C) 2018 copyright by the U.S. Secretary of Commerce
on behalf of the United States of America. All rights reserved.
##CAS REGISTRY NO=591-82-2
##MOLFORM=C 5 H 9 N S
##$NIST SOURCE=MSDC-IR
##STATE=gas
##XUNITS=1/CM
##YUNITS=ABSORBANCE
##XFACTOR=1.
##YFACTOR=0.001
##DELTAX=1.92934
##FIRSTX=549.9
##LASTX=3999.5
##FIRSTY=33.09
##MAXX=3999.53
##MINX=549.863
##MAXY=1.43519
##MINY=0
##NPOINTS=1789
##XYDATA=(X++(Y..Y))
549.863 33.09 31.9 30.65 29.31 28.05 26.76 25.55 24.37 23.2 22.29
569.156 21.5 20.77 20.22 19.72 19.34 19.15 18.97 18.9 18.92 19.01
588.450 19.26 19.44 19.54 19.77 20 20.02 20.01 19.97 19.81 19.58
607.743 19.27 18.82 18.24 17.64 17.02 16.37 15.82 15.2 14.58 14.06
627.037 13.53 13.11 12.73 12.35 12.05 11.71 11.42 11.29 11.19 11.07
646.330 11.04 11.14 11.24 11.33 11.6 11.94 12.41 13.07 13.8 14.6
665.624 15.55 16.69 18.03 19.6 21.25 22.99 24.89 26.89 29.02 31.14
684.917 33.24 35.37 37.55 39.72 41.86 44.11 46.29 48.28 50.11 51.67
704.210 52.79 53.42 53.62 53.39 52.85 52.07 51.03 49.71 48.08 46.11
723.504 43.83 41.39 38.76 35.96 32.95 29.69 26.28 22.95 19.83 17.03
742.797 14.81 13.12 11.82 10.88 10.16 9.56 9.1404 8.8521 8.6345 8.6146
762.091 8.6559 8.6881 8.7716 8.9432 9.2754 9.79 10.55 11.51 12.67 13.86
781.384 14.79 15.47 15.94 16.16 16.2 16.21 16.24 16.09 15.77 15.23
800.678 14.49 13.75 13.13 12.62 12.16 11.87 11.71 11.6 11.42 11.1
819.971 10.76 10.39 9.96 9.5 9.0944 8.704 8.289 7.986 7.748 7.484
839.264 7.35 7.354 7.389 7.425 7.446 7.51 7.64 7.777 7.928 8.02
858.558 8.102 8.195 8.281 8.3345 8.3112 8.2697 8.217 8.188 8.2662 8.4597
877.851 8.734 9.2167 9.86 10.64 11.48 12.3 12.99 13.56 14.08 14.6
897.145 15.16 15.54 15.62 15.52 15.4 15.37 15.7 16.33 17.25 18.5
916.438 19.89 21.37 22.72 23.78 24.58 25.34 26.17 27.18 28.18 28.75
935.732 28.8 28.53 27.93 27.16 26.44 25.81 25.25 24.5 23.32 21.77
955.025 20.09 18.43 16.87 15.39 13.97 12.71 11.62 10.75 10.11 9.58
974.318 9.0943 8.7109 8.43883 8.205 8.036 7.909 7.808 7.69 7.553 7.43
993.612 7.34 7.23 7.1 7.04 6.99 6.9 6.81 6.76 6.72 6.67
1012.905 6.61 6.59 6.59 6.62 6.65 6.7 6.78 6.86 6.99 7.17
1032.199 7.34 7.536 7.805 8.087 8.34374 8.6176 8.9223 9.2423 9.54 9.82
1051.492 10.06 10.27 10.48 10.63 10.74 10.82 10.86 10.87 10.92 11
1070.786 11.09 11.27 11.48 11.73 12.1 12.52 12.93 13.37 13.79 14.21
1090.079 14.62 14.95 15.26 15.55 15.81 16.12 16.43 16.76 17.16 17.64
1109.372 18.19 18.85 19.52 20.19 20.83 21.32 21.57 21.57 21.38 20.95
1128.666 20.27 19.36 18.38 17.45 16.53 15.73 15.08 14.54 14.17 13.9
1147.959 13.79 13.9 14.18 14.57 15.16 16 17.05 18.26 19.55 20.82
1167.253 21.86 22.51 22.73 22.63 22.32 21.82 21.05 19.94 18.55 17.05
1186.546 15.59 14.39 13.46 12.67 12.08 11.68 11.44 11.26 11.07 11.04
1205.840 11.16 11.33 11.48 11.62 11.8 12.06 12.31 12.47 12.7 12.89
1225.133 13.04 13.33 13.63 13.86 14.13 14.37 14.61 14.97 15.46 16.2
1244.426 17.21 18.39 19.74 21.16 22.43 23.39 24.08 24.59 25.01 25.42
1263.720 25.86 26.09 26.08 26.13 26.59 27.7 29.71 32.69 36.66 41.73
1283.013 47.86 54.95 62.42 69.44 75.12 78.84 80.75 81.5 81.37 80.47
1302.307 78.69 74.94 68.45 60.25 52.49 46.77 43.54 42.53 43.41 45.93
1321.600 50 55.73 63.18 72.46 83.47 95.68 108.45 121.51 135.77 151.97
1340.894 168.45 181.28 187.47 187.06 184.34 181.21 174.95 166.58 156.47 142.36
1360.187 124.95 106.89 90.78 78.27 69.36 63.28 59.37 57.1 56.37 57.29
1379.480 60.18 64.95 71.11 77.85 83.91 87.4 87.46 85.46 83.02 80.95
1398.774 79.03 75.21 67.83 57.53 46.82 37.97 31.69 27.77 25.5 24.26
1418.067 23.66 23.35 23.34 23.6 24.09 24.87 26.14 27.98 30.69 34.78
1437.361 40.96 49.28 60.13 72.97 86.29 98.32 107.79 114.03 118.88 124.78
1456.654 129.35 130.44 129.42 124.97 115.85 103.94 92.13 81.92 73.76 67.03
1475.948 61.27 56.06 51.45 46.94 42.47 38.26 34.44 31.05 28.09 25.51
1495.241 23.23 21.21 19.48 17.96 16.68 15.63 14.66 13.69 12.89 12.2
1514.534 11.57 10.96 10.42 9.94 9.47 9.0528 8.6806 8.3292 8.01 7.788
1533.828 7.572 7.3 7.14 7.01 6.86 6.74 6.67 6.55 6.45 6.39
1553.121 6.33 6.3 6.35 6.45 6.43 6.39 6.37 6.42 6.46 6.48
1572.415 6.56 6.64 6.76 6.84 6.91 7.03 7.14 7.24 7.33 7.408
1591.708 7.478 7.552 7.607 7.655 7.747 7.805 7.847 7.859 7.875 7.852
1611.002 7.843 7.844 7.829 7.853 7.825 7.737 7.694 7.662 7.639 7.652
1630.295 7.631 7.584 7.574 7.541 7.481 7.444 7.412 7.33 7.31 7.34
1649.588 7.3 7.28 7.23 7.16 7.13 7.12 7.13 7.13 7.12 7.11
1668.882 7.13 7.14 7.17 7.19 7.17 7.14 7.16 7.23 7.28 7.26
1688.175 7.23 7.26 7.27 7.3 7.32 7.28 7.29 7.26 7.21 7.24
1707.469 7.21 7.14 7.08 7.06 7.06 7.07 7.02 6.9 6.83 6.79
1726.762 6.71 6.65 6.61 6.61 6.57 6.46 6.38 6.33 6.29 6.24
1746.056 6.2 6.17 6.1 6.04 5.99 5.94 5.93 5.92 5.92 5.91
1765.349 5.87 5.91 5.95 5.95 6.05 6.14 6.18 6.27 6.35 6.44
1784.642 6.52 6.58 6.67 6.73 6.73 6.75 6.79 6.79 6.8 6.81
1803.936 6.83 6.9 6.94 6.95 6.97 7 7.05 7.12 7.2 7.29
1823.229 7.394 7.486 7.58 7.703 7.844 7.982 8.132 8.2788 8.43103 8.6194
1842.523 8.8153 8.9822 9.1376 9.296 9.52 9.79 10.04 10.3 10.54 10.8
1861.816 11.14 11.47 11.85 12.24 12.59 13.02 13.47 13.9 14.4 14.92
1881.110 15.47 16.04 16.64 17.26 17.91 18.6 19.28 20.01 20.81 21.57
1900.403 22.39 23.29 24.24 25.25 26.34 27.5 28.69 29.95 31.37 32.84
1919.696 34.43 36.14 37.92 39.87 41.98 44.18 46.53 49.02 51.65 54.44
1938.990 57.35 60.34 63.47 66.75 70.17 73.74 77.45 81.35 85.43 89.69
1958.283 94.16 98.87 103.83 108.99 114.4 120.16 126.26 132.69 139.52 146.71
1977.577 154.28 162.26 170.72 179.74 189.26 199.36 210.08 221.51 233.81 246.91
1996.870 261.02 276.3 292.83 310.72 330.23 351.55 374.81 400.19 427.79 457.77
2016.164 490.26 525.4 563.29 604 647.47 693.58 742.19 793.04 845.5 899.07
2035.457 953.18 1007.19 1060.06 1110.98 1159.62 1205.36 1246.96 1284.82 1317.95 1346.2
2054.750 1370.54 1390.86 1406.82 1419.48 1429.15 1433.49 1435.19 1434.67 1429.56 1421.26
2074.044 1408.55 1389.55 1364.37 1330.4 1287.43 1234.79 1171.04 1098.86 1022.74 946.02
2093.337 869.94 795.93 725.54 660.98 603.82 554.74 513.64 479.68 451.68 428.37
2112.631 408.76 392.22 378.45 367.17 358.15 351.19 346.11 342.72 341.02 340.91
2131.924 342.17 344.55 347.43 350.09 351.59 351.06 348.29 343.43 337.13 329.97
2151.218 322.02 313.51 304.62 295.55 286.46 277.72 269.81 263.04 257.63 253.55
2170.511 250.8 249.09 248.12 247.61 247.17 246.62 245.74 244.27 242.16 239.39
2189.804 235.87 231.63 226.74 221.23 215.15 208.59 201.69 194.48 186.99 179.22
2209.098 171.22 163.01 154.63 146.33 138.3 130.62 123.44 116.78 110.56 104.82
2228.391 99.5 94.53 89.95 85.84 82.14 78.77 75.73 72.95 70.4 68
2247.685 65.72 63.52 61.29 59.06 56.79 54.42 52.03 49.61 47.14 44.71
2266.978 42.36 40.01 37.73 35.59 33.64 31.85 30.21 28.71 27.34 26.03
2286.272 24.82 23.71 22.68 21.7 20.78 19.93 19.18 18.47 17.8 17.17
2305.565 16.61 16.09 15.58 15.09 14.62 14.18 13.77 13.35 13.01 12.68
2324.858 12.3 11.96 11.64 11.33 11.07 10.79 10.51 10.25 10.01 9.77
2344.152 9.53 9.3173 9.1111 8.9237 8.7465 8.5736 8.4503 8.37545 8.2606 8.112
2363.445 8.036 7.955 7.879 7.84 7.806 7.812 7.833 7.835 7.837 7.88
2382.739 7.966 8.013 8.042 8.088 8.123 8.163 8.181 8.2 8.221 8.219
2402.032 8.198 8.157 8.126 8.029 7.891 7.781 7.671 7.555 7.469 7.34
2421.326 7.19 7.06 6.89 6.72 6.59 6.43 6.29 6.2 6.1 6.02
2440.619 5.97 5.92 5.92 5.88 5.85 5.9 5.97 6.02 6.1 6.21
2459.912 6.32 6.41 6.52 6.62 6.76 6.9 7.01 7.17 7.33 7.473
2479.206 7.606 7.728 7.832 7.913 7.97 8.036 8.116 8.234 8.3178 8.36496
2498.499 8.4531 8.5134 8.5956 8.6542 8.6794 8.6908 8.723 8.8049 8.8273 8.8295
2517.793 8.8597 8.8296 8.8366 8.8673 8.8799 8.873 8.8512 8.8429 8.8541 8.8656
2537.086 8.8329 8.8164 8.8816 8.9088 8.9413 9.0396 9.1841 9.36 9.45 9.63
2556.380 9.86 10.08 10.35 10.61 10.89 11.18 11.49 11.79 12.13 12.55
2575.673 12.92 13.23 13.6 13.92 14.13 14.33 14.53 14.63 14.61 14.55
2594.966 14.47 14.33 14.09 13.77 13.35 12.94 12.55 12.12 11.73 11.41
2614.260 11.15 10.87 10.61 10.42 10.29 10.19 10.07 9.97 9.89 9.82
2633.553 9.78 9.71 9.64 9.57 9.5 9.46 9.36 9.267 9.2351 9.0969
2652.847 8.9648 8.8729 8.8342 8.8376 8.7901 8.7369 8.7316 8.7718 8.7657 8.7706
2672.140 8.7874 8.803 8.8638 8.958 9.0128 9.0823 9.1825 9.2183 9.2891 9.3
2691.434 9.3086 9.3453 9.306 9.3031 9.3201 9.295 9.2364 9.2591 9.264 9.2776
2710.727 9.41 9.56 9.76 10.03 10.34 10.64 11.03 11.45 11.92 12.46
2730.020 13.03 13.6 14.23 14.97 15.63 16.32 17.03 17.61 18.22 18.93
2749.314 19.62 20.25 20.82 21.41 21.96 22.4 22.85 23.27 23.6 23.96
2768.607 24.31 24.58 24.81 24.97 25.04 25.07 25.05 25.03 24.93 24.64
2787.901 24.23 23.82 23.4 22.94 22.43 21.95 21.53 21.07 20.64 20.32
2807.194 20.04 19.77 19.52 19.37 19.17 18.98 18.99 19 18.93 18.94
2826.488 19.03 19.17 19.39 19.68 20.01 20.4 20.87 21.41 22.11 22.96
2845.781 23.91 25.06 26.56 28.43 30.63 33.44 36.92 41.12 46.32 52.55
2865.074 60.05 68.78 78.33 88.43 98.59 108.11 116.44 123.29 128.21 131.28
2884.368 132.97 133.53 133.47 132.92 131.65 129.47 126.6 124.07 122.32 120.96
2903.661 120.33 120.76 121.67 122.37 122.96 124 126.06 129.68 135.06 142.29
2922.955 151.25 161.55 172.87 184.93 197.15 209.29 220.68 230.81 239.43 245.87
2942.248 249.9 251.47 251.45 250.88 250.46 250.78 251.76 253.39 255.94 260.43
2961.542 268.32 280.53 296.37 313.75 328.7 336.23 335.38 329.88 321.46 308.22
2980.835 291.61 272.38 247.44 217.43 183.72 148.55 116.73 91.16 72.1 58.35
3000.128 48.3 40.75 34.94 30.41 26.93 24.12 21.78 19.94 18.36 16.9
3019.422 15.57 14.37 13.27 12.09 11.04 10.1 9.1114 8.3192 7.666 6.99
3038.715 6.39 5.95 5.64 5.42 5.22 5.11 5.01 4.87 4.79 4.7
3058.009 4.71 4.79 4.73 4.67 4.75 4.79 4.88 4.95 5.05 5.16
3077.302 5.27 5.38 5.4 5.36 5.42 5.53 5.49 5.57 5.75 5.71
3096.596 5.62 5.5 5.35 5.34 5.34 5.22 5.09 4.96 4.78 4.6
3115.889 4.45 4.32 4.16 4.03 3.9 3.7 3.57 3.55 3.44 3.38
3135.182 3.38 3.31 3.24 3.2 3.1 3.1 3.15 3.08 3.18 3.2
3154.476 3.21 3.31 3.32 3.42 3.47 3.46 3.51 3.6 3.59 3.46
3173.769 3.48 3.61 3.63 3.55 3.51 3.49 3.52 3.49 3.4 3.37
3193.063 3.32 3.23 3.04 2.99 2.85 2.77 2.73 2.58 2.38 2.16
3212.356 2.02 1.82 1.61 1.39 1.28 1.26 1.09 0.89 0.79 0.74
3231.650 0.66 0.61 0.65 0.64 0.56 0.45 0.35 0.31 0.2 0.13
3250.943 0.14 0.15 0.15 0.17 0.23 0.12 0.12 0.14 0 0.09
3270.236 0.22 0.23 0.19 0.23 0.28 0.26 0.29 0.33 0.37 0.39
3289.530 0.47 0.49 0.51 0.74 0.84 0.91 1 1.11 1.17 1.16
3308.823 1.27 1.34 1.33 1.32 1.42 1.42 1.35 1.34 1.35 1.31
3328.117 1.25 1.28 1.4 1.31 1.18 1.17 1.18 1.28 1.34 1.34
3347.410 1.33 1.34 1.48 1.46 1.38 1.41 1.38 1.4 1.47 1.52
3366.704 1.53 1.54 1.56 1.56 1.49 1.61 1.68 1.64 1.71 1.7
3385.997 1.73 1.8 1.73 1.79 1.83 1.69 1.66 1.67 1.7 1.67
3405.290 1.56 1.48 1.58 1.55 1.46 1.43 1.34 1.32 1.35 1.39
3424.584 1.51 1.53 1.44 1.47 1.53 1.53 1.57 1.6 1.59 1.51
3443.877 1.49 1.6 1.52 1.48 1.5 1.44 1.5 1.57 1.62 1.66
3463.171 1.68 1.75 1.88 1.84 1.74 1.72 1.73 1.85 1.94 1.91
3482.464 1.94 1.95 2.04 2.07 1.91 1.86 1.91 2.02 1.99 1.97
3501.758 2 2.02 2.08 2.02 2 2.06 2.15 2.2 2.15 2.23
3521.051 2.28 2.17 2.21 2.33 2.3 2.23 2.23 2.27 2.32 2.33
3540.344 2.26 2.24 2.26 2.38 2.47 2.45 2.49 2.53 2.46 2.46
3559.638 2.49 2.55 2.57 2.48 2.59 2.61 2.55 2.69 2.72 2.61
3578.931 2.61 2.67 2.73 2.71 2.62 2.61 2.67 2.72 2.78 2.84
3598.225 2.91 2.9 2.93 2.95 2.89 2.89 2.86 2.82 2.82 2.84
3617.518 2.89 2.94 2.97 2.97 3.01 3.08 3.02 2.9 3.02 3.2
3636.812 3.18 3.12 3.1 3.11 3.1 3.1 3.2 3.28 3.23 3.17
3656.105 3.17 3.16 3.2 3.28 3.25 3.35 3.41 3.26 3.28 3.38
3675.398 3.39 3.33 3.28 3.34 3.4 3.39 3.37 3.36 3.35 3.41
3694.692 3.39 3.38 3.37 3.32 3.26 3.28 3.39 3.45 3.49 3.45
3713.985 3.38 3.38 3.32 3.3 3.36 3.37 3.4 3.48 3.52 3.51
3733.279 3.53 3.57 3.52 3.55 3.63 3.64 3.63 3.72 3.79 3.77
3752.572 3.76 3.74 3.78 3.79 3.86 3.89 3.86 3.94 3.97 3.93
3771.866 3.96 4.05 4.09 4.11 4.11 4.13 4.2 4.28 4.34 4.29
3791.159 4.28 4.36 4.47 4.51 4.51 4.53 4.54 4.57 4.58 4.58
3810.452 4.59 4.62 4.69 4.75 4.72 4.71 4.75 4.83 4.81 4.8
3829.746 4.87 4.91 4.95 5.01 5.02 5 5.01 5.01 5 4.98
3849.039 5.01 5.02 5 4.99 4.92 4.84 4.91 4.94 4.94 4.99
3868.333 4.93 4.84 4.8 4.82 4.81 4.87 4.92 4.97 5.05 5.06
3887.626 5.03 5 5.02 5.05 5.08 5.08 5.1 5.06 5 5
3906.920 5.06 5.11 5.15 5.13 5.15 5.17 5.19 5.22 5.28 5.26
3926.213 5.32 5.41 5.34 5.42 5.5 5.45 5.45 5.48 5.59 5.64
3945.506 5.57 5.6 5.63 5.64 5.69 5.73 5.82 5.87 5.91 5.92
3964.800 5.96 6 6.04 6.12 6.18 6.2 6.19 6.23 6.31 6.38
3984.093 6.47 6.57 6.63 6.71 6.73 6.74 6.84 6.99 7.15
##END=
