##TITLE=1,4,5,8,9,10-Hexahydroanthracene
##JCAMP-DX=4.24
##DATA TYPE=INFRARED SPECTRUM
##ORIGIN=NIST Mass Spectrometry Data Center
##OWNER=NIST Standard Reference Data Program
Collection (C) 2018 copyright by the U.S. Secretary of Commerce
on behalf of the United States of America. All rights reserved.
##CAS REGISTRY NO=5910-28-1
##MOLFORM=C 14 H 16
##$NIST SOURCE=MSDC-IR
##SPECTROMETER/DATA SYSTEM=HP-GC/MS/IRD
##STATE=gas
##XUNITS=1/CM
##YUNITS=ABSORBANCE
##XFACTOR=1.0
##YFACTOR=0.000001700
##DELTAX=4.0
##FIRSTX=550.0
##LASTX=3846.0
##FIRSTY=0.000481
##MAXX=3846
##MINX=550
##MAXY=0.017
##MINY=0
##NPOINTS=825
##XYDATA=(X++(Y..Y))
550.0 283 163 66 75 97 76 134 187 175 197
590.0 218 232 211 213 241 301 344 359 379 398
630.0 413 495 731 1102 1681 2394 3166 4003 4307 3801
670.0 2951 2073 1330 791 479 318 218 192 211 217
710.0 168 132 138 149 169 195 208 203 195 176
750.0 172 189 164 122 94 66 70 71 30 2
790.0 16 44 66 68 73 106 135 130 114 121
830.0 163 228 320 401 461 465 416 353 261 173
870.0 118 100 81 66 64 51 32 30 22 8
910.0 11 26 56 67 52 44 66 94 128 170
950.0 236 349 561 857 1217 1588 1856 1935 1803 1580
990.0 1378 1080 721 459 289 208 190 178 177 172
1030.0 152 149 114 86 87 81 92 74 56 51
1070.0 29 11 5 5 25 60 76 115 220 329
1110.0 419 430 322 221 150 107 105 94 76 74
1150.0 74 66 61 59 70 105 129 126 112 98
1190.0 102 106 90 66 45 46 54 61 61 59
1230.0 60 80 84 85 95 102 100 95 94 87
1270.0 68 59 71 69 61 62 71 84 94 113
1310.0 141 173 196 210 233 261 295 298 261 200
1350.0 138 104 88 76 74 68 67 69 89 120
1390.0 140 146 143 132 108 106 147 254 440 714
1430.0 992 1090 1047 867 562 324 184 101 61 55
1470.0 46 37 49 59 69 81 80 87 110 102
1510.0 68 58 51 38 30 27 23 20 15 16
1550.0 29 24 23 40 50 55 64 73 82 91
1590.0 102 109 103 109 137 164 185 214 250 296
1630.0 341 374 425 506 611 712 759 709 571 402
1670.0 290 264 294 337 383 425 414 354 278 206
1710.0 130 73 67 69 66 62 54 58 65 62
1750.0 58 58 54 41 28 34 46 42 41 39
1790.0 29 34 26 18 18 21 24 27 30 30
1830.0 36 41 49 49 53 60 54 61 77 82
1870.0 86 91 75 54 51 49 41 35 34 47
1910.0 59 50 41 56 78 94 113 116 102 84
1950.0 50 26 26 21 19 25 20 8 7 9
1990.0 6 15 18 13 12 11 16 17 13 14
2030.0 9 3 2 8 20 25 18 11 6 11
2070.0 20 12 2 1 9 10 10 24 27 19
2110.0 19 16 15 27 33 26 19 19 14 14
2150.0 16 24 31 20 17 21 23 28 34 22
2190.0 5 3 4 7 10 13 12 1 1 5
2230.0 4 0 8 16 16 23 27 30 27 23
2270.0 22 23 23 25 32 26 20 22 26 27
2310.0 22 17 16 29 30 12 20 37 38 45
2350.0 61 57 52 53 41 33 36 39 35 29
2390.0 21 18 20 19 12 10 12 15 22 29
2430.0 22 7 16 16 10 16 14 13 9 15
2470.0 24 25 8 5 28 44 35 21 21 29
2510.0 39 39 42 58 62 60 59 63 61 54
2550.0 55 60 75 65 54 62 66 68 63 66
2590.0 71 70 71 81 85 81 83 94 90 93
2630.0 104 109 124 141 180 217 224 251 291 294
2670.0 273 248 227 217 212 225 255 301 356 412
2710.0 459 486 509 530 542 550 542 525 510 483
2750.0 467 469 480 508 547 609 691 780 875 987
2790.0 1160 1444 1888 2587 3652 5080 6640 8237 9571 10000
2830.0 9754 9188 8455 8001 8015 8399 9106 9580 9005 8036
2870.0 7384 7182 7548 7861 7572 6829 5476 3856 2579 1719
2910.0 1180 839 623 510 451 441 469 518 584 647
2950.0 684 718 753 790 853 930 1046 1134 1176 1149
2990.0 1038 888 736 623 569 598 714 991 1648 3161
3030.0 6061 9004 9805 8179 4886 2140 1099 803 684 646
3070.0 630 591 545 493 435 361 279 213 174 177
3110.0 188 166 163 169 170 168 153 139 125 96
3150.0 81 66 50 43 47 61 55 33 42 37
3190.0 11 9 27 37 24 24 27 18 16 29
3230.0 45 61 78 105 120 120 104 80 62 54
3270.0 45 34 27 29 44 42 42 60 60 51
3310.0 43 52 55 54 64 66 53 39 47 58
3350.0 51 47 46 43 54 66 53 41 49 40
3390.0 28 46 53 36 36 40 27 33 42 39
3430.0 23 2 18 43 50 53 59 52 43 49
3470.0 61 57 49 43 50 57 56 64 67 66
3510.0 65 54 55 52 48 51 55 68 73 65
3550.0 66 75 71 66 45 35 41 49 56 62
3590.0 78 84 77 68 65 64 72 66 55 55
3630.0 55 71 71 74 72 58 63 62 60 64
3670.0 60 60 72 89 90 74 71 84 86 89
3710.0 87 77 73 71 67 65 63 81 88 89
3750.0 87 71 66 81 97 109 101 110 129 119
3790.0 104 94 103 112 110 113 117 116 116 124
3830.0 109 98 109 107 93
##END=
