##TITLE=2,3-Dimethylpyrazine
##JCAMP-DX=4.24
##DATA TYPE=INFRARED SPECTRUM
##ORIGIN=NIST Mass Spectrometry Data Center
##OWNER=NIST Standard Reference Data Program
Collection (C) 2018 copyright by the U.S. Secretary of Commerce
on behalf of the United States of America. All rights reserved.
##CAS REGISTRY NO=5910-89-4
##MOLFORM=C 6 H 8 N 2
##$NIST SOURCE=MSDC-IR
##SPECTROMETER/DATA SYSTEM=HP-GC/MS/IRD
##STATE=gas
##XUNITS=1/CM
##YUNITS=ABSORBANCE
##XFACTOR=1.0
##YFACTOR=0.000001000
##DELTAX=4.0
##FIRSTX=550.0
##LASTX=3846.0
##FIRSTY=0.000110
##MAXX=3846
##MINX=550
##MAXY=0.01
##MINY=0
##NPOINTS=825
##XYDATA=(X++(Y..Y))
550.0 110 135 96 72 0 87 166 77 90 134
590.0 153 196 160 66 58 129 141 50 11 26
630.0 50 116 92 82 115 84 70 62 34 23
670.0 50 82 84 94 189 244 289 380 431 509
710.0 506 476 522 470 334 262 192 120 142 155
750.0 106 94 88 21 33 81 98 133 105 49
790.0 85 150 154 162 186 237 368 538 749 1057
830.0 1296 1441 1923 2882 2669 1671 1447 1342 1079 843
870.0 694 603 582 579 568 543 459 400 361 264
910.0 230 242 249 252 293 383 478 621 855 1138
950.0 1480 1901 2270 2571 2832 2978 2983 2865 2586 2224
990.0 1931 1682 1466 1285 1153 1113 1132 1113 1024 972
1030.0 923 836 786 757 674 632 638 616 599 521
1070.0 459 509 556 560 507 453 416 435 530 575
1110.0 598 636 637 631 686 905 1219 1681 2394 3295
1150.0 4164 4843 5441 6021 6107 5537 5077 4644 3800 2691
1190.0 1732 1196 923 754 700 679 594 544 594 703
1230.0 803 872 949 966 894 826 757 637 508 396
1270.0 334 323 322 306 297 332 366 379 381 383
1310.0 394 381 374 388 395 400 444 491 525 599
1350.0 702 844 1090 1404 1747 2113 2590 3349 4487 5929
1390.0 7426 8552 9270 9761 10000 9977 9452 8189 6980 6299
1430.0 5895 5505 4772 3961 3439 3179 2999 2762 2537 2354
1470.0 2160 1887 1606 1379 1183 1054 980 924 903 899
1510.0 913 959 1053 1192 1350 1476 1537 1563 1563 1472
1550.0 1305 1148 1003 901 862 829 810 786 733 700
1590.0 649 559 478 429 386 331 298 265 232 210
1630.0 197 195 205 201 194 218 246 258 276 313
1670.0 343 358 373 358 336 327 320 281 233 194
1710.0 148 126 114 95 99 112 101 91 102 121
1750.0 125 116 111 120 133 159 188 191 234 293
1790.0 294 267 266 257 229 196 167 145 121 85
1830.0 63 77 82 68 59 60 59 65 81 87
1870.0 113 128 105 112 161 188 219 269 296 326
1910.0 348 367 343 295 245 184 131 102 93 99
1950.0 100 90 84 80 82 79 70 69 71 69
1990.0 68 72 70 70 73 63 58 57 46 35
2030.0 45 56 54 75 72 66 54 43 60 53
2070.0 51 70 78 90 89 96 116 135 148 140
2110.0 145 147 160 173 152 142 130 120 120 121
2150.0 110 77 78 82 47 39 48 44 45 51
2190.0 51 28 19 19 7 2 3 17 25 23
2230.0 33 53 60 74 94 105 107 101 104 87
2270.0 81 82 48 41 56 54 44 43 46 58
2310.0 72 76 73 73 89 83 66 60 58 68
2350.0 59 55 55 59 60 57 57 51 60 59
2390.0 33 43 73 88 85 64 74 59 47 69
2430.0 57 44 31 27 36 47 54 53 57 76
2470.0 65 37 41 56 60 57 48 53 58 31
2510.0 18 53 64 69 94 102 84 62 85 97
2550.0 94 88 70 58 57 72 52 45 62 51
2590.0 35 39 59 46 51 78 89 88 90 86
2630.0 49 35 33 32 34 14 30 44 21 28
2670.0 27 11 14 24 46 47 30 31 37 53
2710.0 71 88 108 137 152 135 138 150 156 158
2750.0 133 102 87 104 121 148 164 155 164 154
2790.0 163 179 181 202 247 270 274 262 270 305
2830.0 328 378 446 523 606 661 703 767 829 906
2870.0 1015 1119 1182 1222 1250 1230 1242 1252 1279 1361
2910.0 1517 1809 2214 2706 3205 3586 3847 4010 4018 3869
2950.0 3567 3255 3021 2726 2360 2065 1888 1783 1693 1573
2990.0 1532 1592 1609 1620 1627 1621 1639 1624 1623 1712
3030.0 1992 2528 3341 4356 5251 5753 5993 5927 5576 4997
3070.0 4008 2940 2162 1645 1330 1186 1135 1015 859 804
3110.0 757 704 657 589 503 430 394 322 253 242
3150.0 240 226 198 180 170 175 171 163 129 69
3190.0 96 97 56 57 84 55 38 60 50 87
3230.0 100 84 102 88 53 66 66 37 16 58
3270.0 96 59 20 14 14 48 62 43 86 105
3310.0 86 83 63 91 123 89 42 53 71 76
3350.0 66 76 113 89 37 34 29 26 27 17
3390.0 24 7 7 44 33 39 15 3 27 26
3430.0 16 41 45 31 36 44 44 25 41 84
3470.0 94 46 56 75 46 39 51 33 19 64
3510.0 122 128 95 75 41 37 24 36 58 72
3550.0 50 49 76 42 58 94 97 74 67 67
3590.0 39 56 91 75 66 70 72 88 87 96
3630.0 98 74 58 59 62 57 50 49 47 50
3670.0 88 82 44 72 62 47 53 46 55 53
3710.0 56 24 55 123 108 94 81 108 132 124
3750.0 80 43 22 2 11 16 68 104 109 54
3790.0 39 118 100 30 28 49 76 81 56 72
3830.0 61 38 92 110 96
##END=
