##TITLE=1-Methylcyclooctanol
##JCAMP-DX=4.24
##DATA TYPE=INFRARED SPECTRUM
##ORIGIN=NIST Mass Spectrometry Data Center
##OWNER=NIST Standard Reference Data Program
Collection (C) 2018 copyright by the U.S. Secretary of Commerce
on behalf of the United States of America. All rights reserved.
##CAS REGISTRY NO=59123-41-0
##MOLFORM=C 9 H 18 O
##$NIST SOURCE=MSDC-IR
##SPECTROMETER/DATA SYSTEM=HP-GC/MS/IRD
##STATE=gas
##XUNITS=1/CM
##YUNITS=ABSORBANCE
##XFACTOR=1.0
##YFACTOR=0.000005000
##DELTAX=4.0
##FIRSTX=550.0
##LASTX=3846.0
##FIRSTY=0.000135
##MAXX=3846
##MINX=550
##MAXY=0.05
##MINY=0
##NPOINTS=825
##XYDATA=(X++(Y..Y))
550.0 27 27 14 18 27 27 39 36 38 26
590.0 16 25 28 40 35 18 21 26 24 25
630.0 29 29 26 27 24 24 29 33 38 48
670.0 49 51 57 56 51 43 37 35 40 44
710.0 41 44 43 44 51 61 77 99 124 138
750.0 136 135 131 121 117 119 124 133 137 145
790.0 153 158 159 153 144 131 123 126 157 159
830.0 152 176 187 202 222 234 247 267 283 297
870.0 321 359 412 471 509 525 515 468 411 363
910.0 315 295 311 336 356 386 407 405 400 378
950.0 345 311 277 240 216 210 210 217 238 266
990.0 296 331 371 405 436 459 472 475 475 467
1030.0 448 428 407 377 339 305 288 285 301 330
1070.0 375 439 501 565 631 695 746 789 824 839
1110.0 846 850 854 866 886 919 935 939 933 909
1150.0 872 820 759 682 601 521 456 412 387 374
1190.0 371 378 394 408 420 439 462 493 524 554
1230.0 584 592 581 562 530 502 479 460 445 437
1270.0 426 415 412 407 403 398 389 381 374 367
1310.0 371 379 387 390 392 394 399 414 417 425
1350.0 453 494 557 645 726 790 828 807 709 591
1390.0 469 364 286 234 210 200 209 236 259 310
1430.0 403 538 706 870 1021 1118 1169 1158 1094 1028
1470.0 978 942 852 708 567 438 321 231 170 150
1510.0 132 104 94 88 75 63 59 60 63 54
1550.0 46 47 50 37 22 21 24 23 18 21
1590.0 21 18 20 20 21 20 23 29 29 28
1630.0 28 33 32 28 31 35 35 23 18 18
1670.0 21 23 22 28 26 19 23 27 23 15
1710.0 13 22 24 13 9 19 30 20 13 18
1750.0 25 19 14 14 19 22 13 9 16 17
1790.0 15 14 14 15 9 5 8 10 10 13
1830.0 11 9 6 8 13 6 0 3 7 10
1870.0 10 3 0 3 6 7 3 2 2 3
1910.0 5 6 7 6 3 6 7 4 6 6
1950.0 6 4 2 4 5 4 4 3 3 4
1990.0 4 5 3 2 5 2 2 4 1 0
2030.0 1 1 3 5 4 3 4 3 3 4
2070.0 4 3 4 5 4 5 4 7 13 12
2110.0 9 7 7 10 8 8 10 10 9 6
2150.0 5 4 6 5 6 9 9 11 11 9
2190.0 11 11 11 14 15 14 16 14 12 9
2230.0 13 15 15 16 16 18 19 18 19 16
2270.0 15 17 14 13 16 14 17 20 14 13
2310.0 16 17 18 17 14 16 14 10 12 13
2350.0 16 15 13 14 16 16 18 20 21 20
2390.0 19 21 21 18 20 19 17 19 16 16
2430.0 18 19 18 19 16 19 21 23 21 20
2470.0 21 23 22 21 21 24 25 25 26 25
2510.0 26 27 26 27 27 27 32 33 32 31
2550.0 30 36 38 36 37 37 41 45 41 40
2590.0 45 47 51 54 54 57 57 58 61 65
2630.0 65 62 64 73 78 78 83 92 103 112
2670.0 118 128 140 151 160 166 174 177 176 174
2710.0 167 158 148 139 132 127 121 122 122 118
2750.0 112 108 116 121 120 122 131 146 156 169
2790.0 185 201 222 240 259 278 299 320 343 377
2830.0 431 511 636 842 1148 1528 1935 2282 2490 2579
2870.0 2553 2459 2349 2268 2255 2332 2518 2828 3298 3943
2910.0 4781 5899 7265 8554 9537 10000 9754 8874 7593 6242
2950.0 5080 4224 3688 3378 3178 2995 2742 2371 1919 1469
2990.0 1062 752 546 411 323 268 232 203 184 166
3030.0 152 141 131 125 117 108 106 108 105 97
3070.0 94 94 90 86 82 80 81 77 78 77
3110.0 72 74 68 61 63 61 59 60 61 58
3150.0 53 53 50 52 60 61 60 59 57 55
3190.0 51 52 56 52 45 44 43 39 35 36
3230.0 39 39 34 33 33 34 34 29 23 20
3270.0 22 24 29 30 27 27 26 24 28 30
3310.0 27 26 25 24 20 22 24 22 22 27
3350.0 30 27 25 25 26 31 34 31 32 34
3390.0 35 38 40 35 30 32 38 39 33 29
3430.0 28 28 24 24 28 24 22 24 25 26
3470.0 24 17 18 21 23 24 19 15 17 17
3510.0 11 11 13 19 20 13 14 13 13 19
3550.0 15 9 10 17 29 22 10 16 26 37
3590.0 37 34 31 31 42 53 66 99 145 212
3630.0 275 311 323 292 247 190 128 82 58 52
3670.0 49 47 42 31 35 42 32 28 29 22
3710.0 31 33 23 26 29 30 43 41 44 43
3750.0 33 29 22 26 25 25 26 27 27 27
3790.0 27 28 35 41 37 30 32 37 40 36
3830.0 33 38 44 37 28
##END=
