##TITLE=3-Heptene (c,t)
##JCAMP-DX=4.24
##DATA TYPE=INFRARED SPECTRUM
##ORIGIN=NIST Mass Spectrometry Data Center
##OWNER=NIST Standard Reference Data Program
Collection (C) 2018 copyright by the U.S. Secretary of Commerce
on behalf of the United States of America. All rights reserved.
##CAS REGISTRY NO=592-78-9
##MOLFORM=C 7 H 14
##$NIST SOURCE=MSDC-IR
##SPECTROMETER/DATA SYSTEM=HP-GC/MS/IRD
##STATE=gas
##XUNITS=1/CM
##YUNITS=ABSORBANCE
##XFACTOR=1.0
##YFACTOR=0.000001400
##DELTAX=4.0
##FIRSTX=550.0
##LASTX=3846.0
##FIRSTY=0.000269
##MAXX=3846
##MINX=550
##MAXY=0.014
##MINY=0
##NPOINTS=825
##XYDATA=(X++(Y..Y))
550.0 192 223 178 88 60 123 170 141 94 74
590.0 44 50 124 85 76 98 75 111 129 56
630.0 0 36 68 64 76 102 114 141 169 179
670.0 125 61 96 156 188 186 140 127 178 162
710.0 143 188 207 207 180 164 182 177 156 174
750.0 191 184 195 203 205 215 227 234 223 214
790.0 199 185 171 169 197 152 127 150 141 158
830.0 166 154 154 159 167 174 172 161 165 185
870.0 199 193 192 219 262 280 282 305 305 319
910.0 362 361 345 347 381 464 551 669 826 1008
950.0 1215 1399 1592 1717 1753 1709 1584 1399 1159 933
990.0 758 615 504 417 361 339 315 302 303 299
1030.0 293 304 317 321 343 381 401 405 426 407
1070.0 376 360 361 366 355 352 338 298 247 238
1110.0 218 164 143 129 116 119 115 118 116 111
1150.0 101 106 109 110 125 127 137 130 109 83
1190.0 78 87 79 98 101 110 115 105 111 115
1230.0 121 107 119 140 155 171 185 214 243 277
1270.0 300 319 335 334 349 388 419 424 432 432
1310.0 413 407 419 427 458 483 494 514 495 460
1350.0 424 386 360 348 364 408 463 514 538 547
1390.0 543 509 459 426 412 404 417 435 463 526
1430.0 618 705 786 885 999 1088 1158 1213 1190 1134
1470.0 1063 944 817 682 560 465 389 332 284 246
1510.0 224 191 177 159 126 118 105 111 121 102
1550.0 94 92 97 98 98 86 76 94 91 79
1590.0 83 84 89 93 84 74 56 61 66 71
1630.0 84 91 94 103 111 101 100 92 83 93
1670.0 96 96 104 111 99 94 102 92 87 97
1710.0 100 95 90 79 78 80 91 91 75 82
1750.0 94 86 83 90 100 105 91 78 80 87
1790.0 84 74 68 60 55 62 53 53 64 66
1830.0 68 59 54 64 62 57 55 37 46 54
1870.0 31 29 36 29 25 34 40 28 27 27
1910.0 23 32 41 42 25 27 40 38 33 24
1950.0 29 35 23 14 14 22 23 18 10 3
1990.0 15 33 28 26 28 49 41 23 30 26
2030.0 31 32 41 59 62 66 55 32 26 28
2070.0 29 30 35 19 12 14 12 25 29 23
2110.0 19 21 37 34 30 22 7 4 8 13
2150.0 14 13 12 19 26 30 35 38 28 11
2190.0 6 15 23 30 20 4 14 8 3 15
2230.0 29 34 29 26 25 19 28 35 16 4
2270.0 21 34 20 17 24 29 29 24 11 7
2310.0 9 19 24 10 22 33 35 39 27 29
2350.0 26 42 47 41 43 34 37 30 31 29
2390.0 27 25 18 14 21 34 53 61 43 23
2430.0 19 18 12 8 15 22 20 21 18 26
2470.0 32 41 42 29 33 33 38 48 38 20
2510.0 22 29 25 47 48 30 27 28 34 51
2550.0 53 54 67 37 17 33 44 37 30 36
2590.0 46 40 37 38 38 41 21 15 32 51
2630.0 52 50 54 65 73 77 82 78 87 86
2670.0 89 91 80 93 91 91 109 91 89 112
2710.0 123 130 121 131 142 152 172 169 178 192
2750.0 211 219 221 237 235 246 261 267 293 313
2790.0 333 359 375 407 456 492 543 621 717 839
2830.0 996 1173 1390 1655 1934 2223 2533 2845 3146 3461
2870.0 3791 4181 4529 4678 4747 4785 4761 4738 4814 5040
2910.0 5314 5635 6038 6491 6959 7464 7955 8245 8292 8245
2950.0 8206 8223 8505 9210 9909 10000 9614 8896 7595 6010
2990.0 4750 3932 3340 2904 2563 2315 2138 1955 1786 1636
3030.0 1487 1325 1164 1026 917 818 710 629 588 536
3070.0 487 456 420 409 390 340 323 319 299 276
3110.0 275 296 290 253 218 203 216 214 198 199
3150.0 203 191 192 192 185 150 133 144 128 122
3190.0 119 121 103 93 135 152 111 80 84 71
3230.0 50 66 92 41 5 47 56 34 42 39
3270.0 45 58 29 27 45 39 48 65 43 57
3310.0 76 45 31 38 22 7 3 14 34 36
3350.0 54 51 23 45 69 43 36 33 37 46
3390.0 15 3 27 48 71 74 41 29 58 54
3430.0 59 46 11 16 25 48 76 84 60 41
3470.0 43 43 45 40 35 57 26 7 32 55
3510.0 62 60 83 73 56 62 52 43 41 40
3550.0 25 22 16 9 51 59 37 30 43 40
3590.0 42 46 55 75 68 64 52 39 45 40
3630.0 45 25 56 70 29 28 37 43 33 31
3670.0 45 74 73 59 81 85 74 68 66 60
3710.0 53 55 64 97 118 117 110 103 112 102
3750.0 81 67 59 85 97 89 67 68 95 108
3790.0 107 86 73 65 37 48 74 86 85 62
3830.0 90 108 108 105 67
##END=
