##TITLE=2-Nonyn-1-ol
##JCAMP-DX=4.24
##DATA TYPE=INFRARED SPECTRUM
##ORIGIN=NIST Mass Spectrometry Data Center
##OWNER=NIST Standard Reference Data Program
Collection (C) 2018 copyright by the U.S. Secretary of Commerce
on behalf of the United States of America. All rights reserved.
##CAS REGISTRY NO=5921-73-3
##MOLFORM=C 9 H 16 O
##$NIST SOURCE=MSDC-IR
##SPECTROMETER/DATA SYSTEM=HP-GC/MS/IRD
##STATE=gas
##XUNITS=1/CM
##YUNITS=ABSORBANCE
##XFACTOR=1.0
##YFACTOR=0.000003500
##DELTAX=4.0
##FIRSTX=550.0
##LASTX=3846.0
##FIRSTY=0.000602
##MAXX=3846
##MINX=550
##MAXY=0.035
##MINY=0
##NPOINTS=825
##XYDATA=(X++(Y..Y))
550.0 172 120 80 80 99 97 79 70 56 66
590.0 58 31 43 60 54 41 42 39 29 25
630.0 22 13 6 30 33 40 56 50 64 73
670.0 71 80 102 122 131 143 163 182 201 231
710.0 241 244 247 238 228 216 202 188 182 162
750.0 134 136 137 125 133 142 137 143 144 131
790.0 132 127 121 124 109 106 110 104 104 99
830.0 96 107 118 117 112 113 119 120 126 137
870.0 142 144 150 148 152 159 165 173 181 192
910.0 217 233 249 283 314 339 364 403 455 509
950.0 572 656 768 892 1037 1217 1416 1639 1885 2160
990.0 2467 2798 3147 3482 3730 3818 3687 3359 2930 2498
1030.0 2135 1826 1547 1306 1098 913 768 656 569 508
1070.0 465 429 405 386 370 369 370 374 397 425
1110.0 445 478 529 611 738 908 1035 1058 976 788
1150.0 597 464 385 337 300 274 261 262 270 276
1190.0 273 272 278 294 313 330 349 363 380 394
1230.0 403 421 431 434 445 465 492 523 552 581
1270.0 604 616 614 608 604 611 620 630 654 676
1310.0 703 746 814 906 991 1050 1079 1098 1127 1183
1350.0 1266 1352 1455 1574 1714 1852 1996 2143 2264 2316
1390.0 2286 2164 1974 1741 1488 1261 1070 917 821 781
1430.0 794 834 878 919 925 928 948 967 963 907
1470.0 815 693 573 462 367 294 241 206 182 150
1510.0 139 138 123 108 103 95 85 70 68 76
1550.0 73 61 40 48 63 59 49 47 58 59
1590.0 53 52 56 53 46 47 38 33 34 32
1630.0 35 28 29 33 25 8 8 32 35 28
1670.0 27 26 28 24 23 35 25 4 5 16
1710.0 19 12 8 15 18 13 5 7 14 18
1750.0 16 16 13 14 14 8 8 11 13 12
1790.0 8 7 11 11 13 12 13 13 12 11
1830.0 8 8 11 6 4 11 13 11 9 9
1870.0 11 12 8 8 8 10 14 12 3 0
1910.0 4 6 6 12 19 22 20 19 22 23
1950.0 27 32 31 29 28 32 38 42 46 50
1990.0 51 53 54 57 57 56 55 50 50 49
2030.0 46 41 40 39 34 31 28 28 27 20
2070.0 16 16 18 16 12 14 16 11 18 23
2110.0 17 15 16 12 15 21 22 17 20 23
2150.0 23 26 29 31 38 46 54 66 81 94
2190.0 110 136 165 201 244 286 331 358 360 331
2230.0 279 230 187 153 136 137 133 131 134 143
2270.0 166 193 215 227 230 216 178 131 92 64
2310.0 45 37 29 21 19 14 8 9 16 16
2350.0 13 11 9 10 9 9 16 21 22 18
2390.0 20 22 25 29 24 20 18 21 24 18
2430.0 18 16 17 18 15 12 13 17 14 11
2470.0 11 6 9 15 9 5 8 9 7 3
2510.0 7 10 13 16 12 13 17 20 22 20
2550.0 23 26 29 32 32 37 39 39 37 34
2590.0 42 47 43 40 43 45 46 50 59 61
2630.0 64 69 73 76 79 84 88 90 91 92
2670.0 92 96 104 102 101 102 101 97 95 95
2710.0 97 101 109 117 124 130 132 142 145 153
2750.0 169 172 175 179 184 190 200 217 234 248
2790.0 266 292 316 340 371 406 451 504 571 647
2830.0 742 868 1030 1256 1559 1942 2395 2877 3334 3684
2870.0 3880 3931 3907 3820 3676 3512 3377 3374 3552 3887
2910.0 4345 4918 5641 6543 7583 8629 9498 10000 9904 9150
2950.0 8014 6898 6117 5710 5452 5012 4294 3396 2530 1889
2990.0 1465 1173 970 820 700 613 537 472 417 371
3030.0 333 307 283 255 237 229 214 202 196 185
3070.0 168 148 139 143 129 123 122 121 118 107
3110.0 96 95 92 86 87 80 70 68 61 57
3150.0 65 65 59 60 57 52 58 55 45 49
3190.0 55 55 54 49 46 44 35 33 29 22
3230.0 28 33 35 36 34 19 6 7 12 19
3270.0 21 19 11 12 18 15 17 16 13 23
3310.0 18 10 3 7 9 12 18 13 14 16
3350.0 11 7 11 16 22 21 19 22 33 37
3390.0 29 20 21 24 30 32 29 25 20 23
3430.0 24 24 18 14 23 23 14 16 18 23
3470.0 32 27 20 25 26 21 25 33 32 28
3510.0 26 28 33 31 26 31 26 23 23 24
3550.0 32 33 30 28 32 32 27 30 38 42
3590.0 48 57 68 82 88 98 119 139 178 225
3630.0 265 315 349 381 410 435 467 488 494 480
3670.0 448 412 376 337 284 229 192 157 123 96
3710.0 85 81 69 51 44 36 28 36 22 11
3750.0 18 27 41 35 28 29 32 30 32 42
3790.0 37 30 29 21 16 22 19 17 19 18
3830.0 19 16 11 6 15
##END=
