##TITLE=Trimethyl phosphonoacetate
##JCAMP-DX=4.24
##DATA TYPE=INFRARED SPECTRUM
##ORIGIN=EPA-IR VAPOR PHASE LIBRARY
##OWNER=SRD/NIST
Collection (C) 2018 copyright by the U.S. Secretary of Commerce
on behalf of the United States of America. All rights reserved.
##CAS REGISTRY NO=5927-18-4
##MOLFORM=C 5 H 11 O 5 P
##$NIST SOURCE=MSDC-IR
##STATE=gas
##XUNITS=1/CM
##YUNITS=ABSORBANCE
##XFACTOR=1.
##YFACTOR=0.001
##DELTAX=1.929
##FIRSTX=549.8
##LASTX=4000.8
##FIRSTY=4.57
##MAXX=4000.75
##MINX=549.766
##MAXY=0.17196
##MINY=0
##NPOINTS=1790
##XYDATA=(X++(Y..Y))
549.766 4.57 4.68 4.52 4.22 3.7 3.45 3.59 3.55 3.22 3.3
569.056 3.52 3.3 3.15 3.26 3.07 3.26 3.59 3.69 3.78 4.03
588.346 4.49 4.98 5.62 6.15 6.6 7.33 8.19 9.08 9.91 10.52
607.636 11.07 11.35 11.25 11.03 10.54 9.96 9.25 8.18 7.11 6.24
626.926 5.53 4.86 4.15 3.5 3.27 3.13 2.77 2.34 1.9944 1.9903
646.216 1.926 1.7324 1.7669 1.7758 1.704 1.7876 1.7379 1.5311 1.4778 1.5483
665.506 1.6692 1.8211 1.725 1.5265 1.5664 1.7167 1.8513 1.8608 1.9718 2.0703
684.796 2.0768 2.2 2.31 2.39 2.63 2.93 3.09 3.36 3.69 3.84
704.086 3.94 4.21 4.56 4.73 4.8 4.9 5.05 5.17 5.11 5.01
723.376 5 4.93 4.88 4.86 4.8 4.94 5.17 5.27 5.55 5.87
742.666 6.14 6.5 6.85 7.19 7.56 7.8 8 8.29 8.5 8.72
761.956 8.97 9.29 9.75 10.22 10.76 11.51 12.56 13.86 15.38 17.19
781.246 19.21 21.38 23.76 26.39 29 31.29 33.32 34.85 35.84 36.14
800.536 35.64 34.46 32.68 30.59 28.12 25.67 23.91 22.52 21.33 20.57
819.826 20.3 20.36 20.54 21 21.67 22.28 22.98 23.65 24.16 24.68
839.116 24.99 25.18 25.08 24.59 23.99 23.26 22.26 21.01 19.79 18.76
858.406 17.76 16.88 16.18 15.79 15.59 15.46 15.59 15.91 16.35 16.9
877.696 17.66 18.69 19.88 21.13 22.49 23.79 24.88 25.81 26.32 26.3
896.986 25.86 24.97 23.6 21.82 19.78 17.63 15.45 13.37 11.5 9.85
916.276 8.54 7.42 6.44 5.75 5.26 4.9 4.58 4.32 4.15 4.07
935.566 3.96 3.75 3.69 3.67 3.67 3.78 3.76 3.68 3.71 3.77
954.856 3.79 3.85 3.96 4.05 4.17 4.3 4.44 4.65 4.9 5.1
974.146 5.3 5.66 5.99 6.33 6.76 7.24 7.71 8.17 8.71 9.34
993.436 10.2 11.05 12 13.2 14.56 16.13 17.85 19.84 22.1 24.65
1012.726 27.55 30.83 34.64 39.1 44.28 50.31 57.57 66.06 75.78 86.88
1032.016 99.18 112.28 125.64 138.54 150.02 159.47 166.32 170.31 171.96 171.44
1051.306 168.99 164.89 159.71 154.39 149.5 145.2 141 136.49 131.45 125.5
1070.596 118.23 109.64 100.02 89.92 80.05 70.97 63.22 56.88 51.9 48.16
1089.886 45.39 43.39 42.08 41.39 41.34 41.84 42.85 44.33 46.14 48.22
1109.176 50.27 52.16 53.82 54.94 55.46 55.38 54.49 52.84 50.64 48.06
1128.467 45.14 41.99 38.85 35.82 33.1 30.76 28.68 26.84 25.3 24.02
1147.757 22.94 22.01 21.33 20.77 20.35 20.06 19.89 19.92 19.98 20
1167.047 20.17 20.46 20.83 21.28 21.76 22.3 22.97 23.57 23.92 24.15
1186.337 24.27 24.39 24.45 24.41 24.26 24.16 24.15 24.05 24.15 24.33
1205.627 24.49 24.77 25.14 25.61 26.07 26.63 27.34 28.13 28.93 29.8
1224.917 30.8 31.84 33.09 34.42 35.79 37.32 38.82 40.59 42.57 44.53
1244.207 46.78 49.32 51.97 54.73 57.64 60.66 63.65 66.51 69.31 72.03
1263.497 74.63 77.43 80.29 83.34 86.93 90.95 95.51 100.58 105.88 111.3
1282.787 116.48 120.86 123.66 124.14 122.4 118.7 113.22 106.48 98.96 90.9
1302.077 82.65 74.75 67.4 60.59 54.41 48.83 43.71 39.02 34.81 30.96
1321.367 27.38 24.2 21.44 18.97 16.79 14.95 13.35 12.05 10.96 9.93
1340.657 9.11 8.48 7.89 7.42 7.03 6.7 6.41 6.18 5.99 5.84
1359.947 5.73 5.61 5.5 5.38 5.36 5.37 5.35 5.37 5.46 5.6
1379.237 5.78 6.01 6.22 6.5 6.9 7.42 7.91 8.35 8.85 9.3
1398.527 9.64 9.99 10.17 10.19 10.07 9.77 9.33 8.89 8.54 8.17
1417.817 7.91 7.75 7.89 8.34 9.11 10.21 11.77 13.63 15.44 16.87
1437.107 18 18.81 18.89 18.55 17.77 16.09 14.09 12.45 11.37 10.73
1456.397 10.25 9.8 9.52 9.19 8.85 8.6 8.39 8.12 7.77 7.42
1475.687 7.07 6.76 6.47 6.23 6 5.64 5.37 5.17 4.96 4.79
1494.977 4.58 4.4 4.36 4.3 4.14 3.98 3.92 3.91 3.92 3.94
1514.267 3.94 3.83 3.77 3.71 3.7 3.73 3.68 3.73 3.78 3.73
1533.557 3.71 3.72 3.65 3.51 3.5 3.57 3.63 3.65 3.63 3.55
1552.847 3.46 3.42 3.35 3.23 3.2 3.25 3.24 3.21 3.14 3.05
1572.137 3.04 2.99 2.9 2.88 2.92 2.93 2.9 2.83 2.79 2.78
1591.427 2.74 2.72 2.74 2.68 2.6 2.62 2.6 2.57 2.54 2.49
1610.717 2.47 2.44 2.34 2.25 2.27 2.34 2.32 2.23 2.12 2.0842
1630.007 2.1 2.0194 1.949 1.9458 1.9627 1.8939 1.9092 1.9551 1.8674 1.8722
1649.297 1.9734 1.9259 1.8784 1.9956 2.0812 2.16 2.17 2.18 2.24 2.3
1668.587 2.31 2.37 2.44 2.42 2.49 2.6 2.68 2.7 2.73 2.88
1687.877 3.01 3.13 3.25 3.35 3.52 3.73 3.92 4.24 4.59 4.89
1707.167 5.3 5.8 6.3 6.8 7.38 8.07 8.78 9.55 10.4 11.36
1726.457 12.52 13.82 15.34 17.06 19.18 21.65 24.46 27.98 31.95 36.62
1745.747 41.93 47.87 54.37 61.32 67.97 73.76 78.65 82.18 84.14 84.4
1765.037 82.73 79.07 73.57 67.01 59.65 52.52 45.75 39.41 33.75 28.88
1784.327 24.8 21.24 18.27 15.85 13.82 12.09 10.67 9.46 8.42 7.56
1803.617 6.88 6.31 5.82 5.31 4.89 4.58 4.33 4.11 3.92 3.74
1822.907 3.59 3.51 3.4 3.27 3.19 3.16 3.09 2.99 2.94 2.95
1842.197 2.9 2.85 2.77 2.68 2.65 2.64 2.64 2.59 2.51 2.47
1861.487 2.47 2.44 2.36 2.34 2.29 2.21 2.26 2.29 2.26 2.23
1880.777 2.24 2.24 2.26 2.29 2.24 2.18 2.19 2.2 2.16 2.15
1900.067 2.13 2.1 2.13 2.0956 2.0848 2.0747 2.0056 1.9676 1.9259 1.8599
1919.357 1.8352 1.8048 1.7656 1.8141 1.7971 1.6853 1.6855 1.7218 1.6852 1.6727
1938.647 1.6741 1.6596 1.6518 1.653 1.6629 1.6397 1.6051 1.6643 1.7223 1.6811
1957.937 1.6435 1.5985 1.5533 1.5314 1.5153 1.5338 1.5481 1.4968 1.464 1.427
1977.227 1.381 1.4149 1.382 1.3541 1.3953 1.4017 1.3802 1.3734 1.4298 1.5012
1996.517 1.5197 1.5 1.5313 1.5497 1.5582 1.6273 1.6891 1.7187 1.744 1.7619
2015.807 1.7668 1.8382 1.8748 1.8663 1.8389 1.8041 1.7716 1.7045 1.715 1.7222
2035.097 1.6487 1.5722 1.5507 1.4875 1.4353 1.4479 1.4219 1.4192 1.4109 1.3752
2054.387 1.3555 1.362 1.3926 1.3641 1.309 1.3078 1.3442 1.356 1.3642 1.3743
2073.677 1.3572 1.369 1.3587 1.3923 1.4176 1.3776 1.3739 1.3851 1.419 1.4662
2092.967 1.4412 1.4038 1.4344 1.4013 1.3643 1.4056 1.4318 1.3842 1.3449 1.316
2112.257 1.3098 1.3108 1.2224 1.2653 1.3265 1.2819 1.2818 1.2895 1.2571 1.2388
2131.547 1.2661 1.2214 1.2162 1.2745 1.2758 1.252 1.24 1.2818 1.3033 1.2641
2150.837 1.2781 1.3033 1.2878 1.2715 1.2018 1.17457 1.19398 1.17971 1.1253 1.0524
2170.127 1.0568 1.0211 0.965 0.981 0.96 0.915 0.908 0.906 0.874 0.899
2189.417 0.897 0.864 0.85 0.859 0.848 0.806 0.789 0.754 0.733 0.737
2208.707 0.771 0.748 0.716 0.742 0.758 0.794 0.77 0.69 0.685 0.661
2227.997 0.613 0.616 0.67 0.718 0.72 0.74 0.72 0.692 0.728 0.723
2247.287 0.694 0.682 0.712 0.734 0.713 0.728 0.699 0.681 0.769 0.816
2266.577 0.762 0.699 0.687 0.733 0.77 0.713 0.704 0.75 0.69 0.693
2285.868 0.8 0.823 0.755 0.718 0.725 0.743 0.755 0.738 0.743 0.795
2305.158 0.848 0.82 0.746 0.715 0.717 0.718 0.704 0.707 0.723 0.739
2324.448 0.72 0.704 0.695 0.677 0.695 0.676 0.666 0.67 0.697 0.69
2343.738 0.588 0.627 0.738 0.669 0.603 0.576 0.578 0.636 0.604 0.562
2363.028 0.564 0.617 0.628 0.59 0.588 0.598 0.656 0.716 0.714 0.628
2382.318 0.59 0.657 0.651 0.598 0.569 0.625 0.668 0.619 0.6 0.651
2401.608 0.653 0.62 0.619 0.608 0.647 0.659 0.629 0.612 0.62 0.677
2420.898 0.678 0.657 0.624 0.604 0.595 0.552 0.556 0.597 0.606 0.627
2440.188 0.65 0.67 0.7 0.671 0.698 0.697 0.668 0.712 0.707 0.675
2459.478 0.653 0.656 0.68 0.682 0.718 0.717 0.661 0.69 0.759 0.809
2478.768 0.734 0.695 0.779 0.753 0.759 0.803 0.75 0.757 0.745 0.653
2498.058 0.667 0.692 0.668 0.664 0.753 0.81 0.687 0.702 0.773 0.724
2517.348 0.715 0.684 0.691 0.67 0.664 0.719 0.677 0.713 0.691 0.63
2536.638 0.631 0.624 0.682 0.693 0.652 0.625 0.631 0.634 0.575 0.637
2555.928 0.696 0.618 0.623 0.703 0.77 0.71 0.647 0.66 0.683 0.659
2575.218 0.658 0.667 0.686 0.745 0.699 0.678 0.729 0.715 0.668 0.627
2594.508 0.613 0.625 0.636 0.745 0.819 0.762 0.755 0.775 0.723 0.748
2613.798 0.794 0.735 0.696 0.765 0.8 0.761 0.768 0.749 0.777 0.822
2633.088 0.758 0.744 0.788 0.817 0.78 0.767 0.804 0.803 0.782 0.702
2652.378 0.756 0.808 0.677 0.707 0.826 0.768 0.711 0.741 0.679 0.667
2671.668 0.65 0.63 0.686 0.714 0.627 0.635 0.742 0.673 0.632 0.679
2690.958 0.679 0.614 0.657 0.695 0.595 0.579 0.636 0.636 0.602 0.529
2710.248 0.532 0.555 0.588 0.661 0.539 0.425 0.452 0.519 0.595 0.548
2729.538 0.531 0.627 0.593 0.538 0.597 0.596 0.586 0.592 0.63 0.672
2748.828 0.64 0.659 0.644 0.587 0.587 0.593 0.543 0.486 0.567 0.654
2768.118 0.633 0.644 0.667 0.625 0.615 0.697 0.766 0.758 0.742 0.755
2787.408 0.736 0.773 0.925 0.971 0.97 0.982 1.0197 1.0341 1.0144 1.0224
2806.698 1.063 1.18828 1.2817 1.3633 1.4262 1.505 1.6712 1.8513 1.9295 2.12
2825.988 2.37 2.51 2.7 2.92 3.13 3.41 3.82 4.39 4.95 5.52
2845.278 6.33 7.27 8.24 9.26 10.34 11.25 11.94 12.29 12.31 12.13
2864.568 11.58 10.87 9.98 8.87 7.89 7.05 6.21 5.66 5.34 5.04
2883.858 4.85 4.78 4.82 4.88 4.95 5.11 5.28 5.52 5.8 6.05
2903.148 6.28 6.53 6.75 7.03 7.39 7.58 7.71 7.9 8.07 8.22
2922.438 8.24 8.25 8.42 8.65 8.89 9.07 9.29 9.77 10.51 11.36
2941.728 12.44 14.09 16.16 18.73 21.91 25.75 30.15 34.43 37.85 40.04
2961.018 41.32 41.48 40.48 38.53 35.54 31.63 27.23 23.18 19.92 17.45
2980.308 15.54 14.21 13.33 12.73 12.38 12.09 11.87 11.88 11.99 12.05
2999.598 12.15 12.21 12.26 12.22 12.18 12.09 11.97 11.69 11.39 11.15
3018.888 10.87 10.61 10.36 10.14 9.75 9.41 9.09 8.77 8.42 7.94
3038.178 7.56 7.26 6.98 6.59 6.17 5.88 5.65 5.53 5.31 5.06
3057.468 5.03 5.02 4.95 4.9 4.73 4.62 4.62 4.59 4.4 4.17
3076.758 4.17 4.17 4.01 3.93 3.93 3.85 3.73 3.48 3.28 3.27
3096.048 3.08 2.92 2.91 2.87 2.88 2.74 2.59 2.51 2.33 2.14
3115.338 2.18 2.0979 1.9609 1.9688 1.8764 1.7978 1.6708 1.4175 1.3217 1.4282
3134.628 1.3793 1.2652 1.19314 1.2037 1.2251 1.18997 1.17652 1.0086 0.891 0.899
3153.918 0.902 0.89 0.775 0.735 0.762 0.707 0.648 0.611 0.563 0.633
3173.208 0.626 0.533 0.703 0.706 0.565 0.549 0.457 0.486 0.478 0.407
3192.498 0.42 0.428 0.384 0.309 0.346 0.409 0.388 0.35 0.394 0.364
3211.788 0.206 0.26 0.371 0.359 0.351 0.39 0.478 0.261 0.229 0.403
3231.078 0.365 0.255 0.3 0.468 0.366 0.273 0.223 0.211 0.241 0.187
3250.368 0.226 0.284 0.234 0.207 0.317 0.333 0.252 0.194 0.221 0.218
3269.658 0.06 0.158 0.313 0.261 0.229 0.246 0.297 0.241 0.236 0.277
3288.948 0.262 0.246 0.29 0.324 0.235 0.212 0.208 0.224 0.28 0.296
3308.238 0.251 0.103 0.132 0.295 0.385 0.362 0.256 0.267 0.231 0.176
3327.528 0.206 0.217 0.154 0.14 0.132 0.118 0.113 0.145 0.142 0.182
3346.818 0.309 0.196 0.151 0.213 0.101 0.1 0.142 0.172 0.299 0.317
3366.108 0.271 0.226 0.09 0 0.06 0.228 0.33 0.254 0.269 0.299
3385.398 0.22 0.242 0.255 0.323 0.279 0.225 0.232 0.217 0.22 0.143
3404.688 0.118 0.163 0.177 0.227 0.135 0.09 0.264 0.233 0.218 0.247
3423.978 0.267 0.233 0.172 0.166 0.17 0.287 0.277 0.09 0.115 0.326
3443.269 0.446 0.441 0.288 0.191 0.279 0.322 0.352 0.344 0.285 0.302
3462.559 0.397 0.359 0.308 0.371 0.384 0.374 0.373 0.357 0.359 0.529
3481.849 0.697 0.651 0.649 0.787 0.852 0.872 0.932 0.846 0.849 0.933
3501.139 0.945 0.919 0.929 0.859 0.864 0.94 0.906 0.909 0.813 0.75
3520.429 0.778 0.77 0.722 0.593 0.546 0.53 0.517 0.537 0.444 0.449
3539.719 0.39 0.302 0.302 0.375 0.37 0.279 0.225 0.251 0.37 0.43
3559.009 0.314 0.179 0.219 0.323 0.283 0.276 0.346 0.34 0.244 0.184
3578.299 0.152 0.189 0.296 0.305 0.403 0.429 0.359 0.24 0.3 0.426
3597.589 0.345 0.284 0.371 0.367 0.316 0.395 0.387 0.324 0.305 0.296
3616.879 0.319 0.342 0.348 0.273 0.26 0.284 0.314 0.315 0.24 0.225
3636.169 0.213 0.253 0.196 0.188 0.314 0.281 0.176 0.08 0.111 0.229
3655.459 0.278 0.348 0.327 0.43 0.55 0.4 0.238 0.221 0.204 0.179
3674.749 0.18 0.316 0.349 0.27 0.275 0.21 0.209 0.283 0.357 0.364
3694.039 0.301 0.314 0.311 0.319 0.394 0.383 0.402 0.381 0.285 0.343
3713.329 0.363 0.328 0.38 0.397 0.402 0.398 0.372 0.338 0.256 0.329
3732.619 0.354 0.412 0.467 0.302 0.264 0.177 0.125 0.154 0.131 0.22
3751.909 0.228 0.196 0.226 0.275 0.479 0.589 0.549 0.385 0.3 0.325
3771.199 0.329 0.401 0.395 0.38 0.378 0.386 0.508 0.456 0.335 0.285
3790.489 0.279 0.412 0.382 0.205 0.219 0.321 0.297 0.323 0.316 0.353
3809.779 0.424 0.4 0.418 0.38 0.348 0.405 0.498 0.478 0.476 0.507
3829.069 0.471 0.459 0.315 0.257 0.295 0.311 0.411 0.438 0.385 0.309
3848.359 0.373 0.502 0.545 0.515 0.566 0.576 0.542 0.516 0.385 0.415
3867.649 0.462 0.408 0.466 0.55 0.517 0.494 0.511 0.448 0.426 0.445
3886.939 0.352 0.345 0.445 0.55 0.614 0.625 0.551 0.602 0.604 0.48
3906.229 0.426 0.407 0.429 0.503 0.62 0.61 0.56 0.542 0.45 0.375
3925.519 0.432 0.472 0.429 0.448 0.528 0.572 0.609 0.526 0.538 0.576
3944.809 0.454 0.33 0.351 0.61 0.612 0.498 0.518 0.47 0.507 0.62
3964.099 0.656 0.688 0.695 0.634 0.609 0.712 0.754 0.56 0.59 0.669
3983.389 0.589 0.609 0.767 0.782 0.714 0.647 0.626 0.797 0.846 0.852
##END=
