##TITLE=2,7-Dimethyl-octa-3,5-diyne-2,7-diol
##JCAMP-DX=4.24
##DATA TYPE=INFRARED SPECTRUM
##ORIGIN=EPA-IR VAPOR PHASE LIBRARY
##OWNER=SRD/NIST
Collection (C) 2018 copyright by the U.S. Secretary of Commerce
on behalf of the United States of America. All rights reserved.
##CAS REGISTRY NO=5929-72-6
##MOLFORM=C 10 H 14 O 2
##$NIST SOURCE=MSDC-IR
##STATE=gas
##XUNITS=1/CM
##YUNITS=ABSORBANCE
##XFACTOR=1.
##YFACTOR=0.001
##DELTAX=1.92898
##FIRSTX=549.8
##LASTX=4000.7
##FIRSTY=3.54
##MAXX=4000.7
##MINX=549.759
##MAXY=0.02884
##MINY=0
##NPOINTS=1790
##XYDATA=(X++(Y..Y))
549.759 3.54 4.35 4.48 3.95 4.14 4.09 3.62 3.78 3.43 3.15
569.049 4 4.34 2.74 2.59 3.26 3.09 3.26 2.78 3.11 4.06
588.339 3.05 2.58 3.07 2.96 2.99 3 3.19 3.03 2.98 2.6
607.628 2.23 2.28 2.0306 1.8991 1.7543 1.7183 1.9655 1.3278 1.4674 1.996
626.918 1.9066 1.9758 2.12 2.83 2.39 1.6745 1.7724 2.12 1.8706 1.4269
646.208 1.5276 2.0287 2.61 2.59 2.78 3.09 2.97 2.68 2.14 1.5552
665.498 1.6759 1.8191 1.9136 2.26 2.22 1.8019 1.6325 1.7282 1.4522 1.3918
684.787 1.6036 1.6334 2.0328 1.8431 1.5411 1.512 1.3549 1.4455 1.342 1.6429
704.077 1.8086 1.3486 1.4813 1.9125 2.0039 1.7897 1.6551 1.6214 1.2388 1.4594
723.367 1.5203 1.0862 1.0394 1.0649 1.3494 1.2959 0.736 0.509 0.883 0.837
742.657 0.774 1.15334 1.4865 1.5048 1.4275 1.7368 1.5498 0.994 0.852 1.11503
761.947 1.15748 1.09492 0.843 0.769 0.855 1.2123 1.3789 0.969 1.3644 1.211
781.236 0.494 0.344 0.671 1.14649 1.12876 1.0666 1.3243 1.3075 0.883 0.863
800.526 0.769 0.67 0.832 0.935 1.2213 1.17788 1.2795 1.6738 1.6033 1.509
819.816 1.8957 1.15196 0.741 2.31 2.61 1.8351 1.7257 1.8061 2.1 1.7626
839.106 1.6114 1.9858 1.9043 1.8842 2.22 2.24 1.7396 1.8165 1.991 2.13
858.395 2.35 2.15 2.16 2.18 2.087 2.22 2.56 2.76 3.23 3.67
877.685 3.78 4.01 4.8 5.8 6.3 6.53 5.69 5 4.84 4.28
896.975 4.34 4.36 3.95 3.68 3.34 3.26 2.88 2.61 2.86 2.86
916.265 3.41 4.33 4.74 4.89 5.02 5.76 6.55 6.71 7.08 7.72
935.555 8.6 9.37 10.01 11.16 11.81 12.03 12.49 12.67 12.85 12.6
954.844 12.04 10.95 9.96 9.76 8.67 7.29 6.39 5.97 5.34 4.42
974.134 4.41 3.91 3.44 3.4 2.71 2.34 2.26 2.42 2.31 2.0896
993.424 1.9961 1.7478 1.9804 2.37 2.18 1.5851 1.3736 1.4598 1.7454 2.1
1012.714 2.0996 2.35 1.8527 0.913 0.964 1.4031 1.6464 1.392 2.0404 2.0188
1032.003 1.0453 1.4653 1.776 0.95 1.10604 2.14 1.8633 1.5523 1.3066 1.5633
1051.293 2.29 2.47 2.88 2.79 2.3 2.96 3.73 3.85 3.35 2.36
1070.583 2.84 3.75 4 4.02 4.23 4.38 4.41 4.4 4.69 5.21
1089.873 5.22 4.74 4.06 4.1 4.45 5.4 6.55 7.62 8.23 8.33
1109.163 7.2 6.13 6.4 6.66 8.18 9.61 8.6 8.08 8.14 8.09
1128.452 9.1 9.33 9.94 11.03 11.54 11.65 12.29 12.72 13.46 14.31
1147.742 15.79 16.99 17.92 18.96 19.89 20.65 21.04 21.95 21.22 20.54
1167.032 21.1 21.81 20.93 19.84 19.2 17.41 15.94 15.57 15.48 14.07
1186.322 12.59 13.03 13.79 13.76 13.55 14.41 14.64 14.05 14.22 15.15
1205.611 16.07 15.24 14.58 14.69 15.53 16.59 16.51 15.32 15.01 13.95
1224.901 11.38 11.26 10.93 10.02 9.28 8.98 9.83 9.44 9.17 9.57
1244.191 9.36 7.78 7.03 7.8 8 7.74 7.41 7.02 6.38 6.83
1263.481 7.22 6.81 6.4 6.38 6.75 6.62 7.02 7.3 7.17 7.34
1282.771 7.22 7.03 7.47 7.88 7.86 8 8.27 8.67 8.81 9.13
1302.060 9.48 9.81 10.36 10.7 10.96 11.38 11.83 12.3 12.74 13.11
1321.350 13.45 13.6 13.69 13.78 13.71 13.43 13.05 12.67 12.32 11.85
1340.640 11.18 10.71 10.32 10.05 9.79 9.47 9.37 9.28 9.27 9.28
1359.930 9.29 9.38 9.38 9.3 9.12 9.07 9.03 8.75 8.51 8.32
1379.219 8.2 8.06 7.74 7.27 6.59 6.07 5.52 4.71 4.01 3.45
1398.509 3.22 2.97 2.59 2.41 2.32 2.29 2.23 2.23 2.39 2.28
1417.799 2.23 2.25 2.16 2.23 2.3 2.28 2.46 2.57 2.62 2.74
1437.089 2.58 2.59 2.92 3.01 2.94 3.03 3.12 2.98 2.92 2.89
1456.378 2.96 3.13 2.93 2.77 2.79 2.76 2.49 2.39 2.49 2.35
1475.668 2.0533 1.8512 1.8751 1.9966 1.8158 1.5352 1.5822 1.6186 1.5914 1.5806
1494.958 1.4695 1.3936 1.4593 1.4437 1.28 1.2996 1.4184 1.3492 1.2998 1.2056
1514.248 1.15419 1.17719 1.15253 1.3574 1.2681 1.11315 1.13174 1.17792 1.3616 1.4382
1533.538 1.402 1.2647 1.2538 1.2523 1.15532 1.208 1.19307 0.942 0.798 1.14413
1552.827 1.3057 1.0795 1.0208 1.11735 1.10004 1.3592 1.387 1.0247 0.939 0.862
1572.117 0.862 1.0264 1 1.0313 1.15212 0.866 0.938 1.2415 1.3107 1.4687
1591.407 1.2424 1.0381 1.11636 1.0131 0.752 0.602 0.74 0.78 0.842 1.09604
1610.697 1.2395 1.2529 1.2897 1.3325 1.19341 1.09254 1.2587 1.18347 1.0012 0.877
1629.986 0.809 0.884 1.16129 1.249 1.12638 1.054 0.848 0.948 0.927 0.829
1649.276 0.983 1.0561 1.12226 0.93 0.718 0.86 1.09599 1.19114 0.996 0.881
1668.566 1.14818 1.2279 1.2055 1.3072 1.19293 1.10134 1.12854 0.909 0.892 1.0293
1687.856 0.891 0.88 1.0093 1.039 0.946 0.849 0.927 0.977 1.0003 1.0664
1707.146 0.897 0.99 1.12966 0.941 1.12959 1.4282 1.2118 1.0104 0.988 1.0111
1726.435 0.965 0.973 0.983 0.98 0.973 0.831 0.9 0.902 0.842 0.797
1745.725 0.796 0.773 0.794 0.98 0.852 0.638 0.767 0.953 0.889 0.743
1765.015 0.872 0.886 1.0454 1.2877 1.18353 1.0066 1.0027 1.0516 0.884 0.882
1784.305 0.952 0.827 0.871 0.956 0.955 0.783 0.698 0.869 0.795 0.877
1803.594 0.955 0.941 0.966 0.883 1.0032 1.0824 0.937 0.917 1.0578 0.964
1822.884 0.941 0.95 0.91 1.0261 0.994 0.951 0.996 0.994 0.904 0.941
1842.174 0.917 0.698 0.613 0.85 0.949 0.973 0.906 0.83 0.907 0.819
1861.464 0.838 1.0772 1.0862 0.953 0.921 0.873 0.852 0.838 0.865 0.99
1880.754 1.12555 1.0549 0.824 0.786 0.93 1.0721 1.0113 0.843 0.841 0.81
1900.043 0.945 0.952 0.726 0.813 0.911 0.877 0.869 0.798 0.768 0.802
1919.333 0.726 0.818 0.92 0.787 0.821 0.71 0.437 0.436 0.659 0.76
1938.623 0.821 0.924 0.898 0.894 1.0263 1.0364 0.81 0.633 0.749 0.886
1957.913 0.75 0.78 0.881 0.813 0.873 0.794 0.724 0.772 0.791 0.847
1977.202 0.861 0.858 1.0524 1.2325 0.951 0.82 0.907 0.829 0.89 1.0833
1996.492 0.878 0.797 0.944 0.836 0.841 0.848 0.657 0.569 0.597 0.523
2015.782 0.55 0.627 0.648 0.774 0.952 0.813 0.776 0.98 0.866 0.868
2035.072 0.981 0.907 0.873 0.685 0.638 0.818 0.93 0.845 0.789 0.976
2054.362 0.949 0.763 0.745 0.741 0.735 0.827 0.953 1.13438 1.0087 0.773
2073.651 0.961 1.0785 1.0075 0.97 0.882 0.975 0.907 0.91 1.0534 0.918
2092.941 0.964 1.0783 0.977 0.737 0.686 0.742 0.926 1.13338 1.13783 1.19716
2112.231 1.3032 1.2569 1.3181 1.4789 1.4657 1.538 1.5248 1.5797 1.8155 1.8525
2131.521 1.9216 2.009 2.26 2.44 2.25 2.23 2.16 2.0991 2.12 2.047
2150.810 1.9802 1.9275 1.8028 1.7137 1.6398 1.5882 1.5234 1.4888 1.4072 1.11354
2170.100 1.0104 0.937 1.0329 1.10167 0.951 0.897 1.0362 1.2236 1.2673 1.18477
2189.390 1.0412 1.0142 0.844 0.76 0.843 0.872 0.775 0.685 0.698 0.719
2208.680 0.86 1.0317 0.907 0.683 0.792 1.18381 1.2281 0.91 1.0235 1.0422
2227.970 0.846 0.834 0.9 0.81 0.895 0.992 0.859 0.852 0.931 0.955
2247.259 0.791 0.771 0.782 0.827 0.909 0.987 1.0516 0.972 0.81 0.709
2266.549 0.889 1.12423 0.992 0.824 0.864 1.0209 0.991 0.904 0.982 0.908
2285.839 0.849 0.969 1.17377 1.15426 1.0145 0.907 0.953 0.927 0.972 0.934
2305.129 0.846 0.953 0.831 0.883 0.886 0.72 0.849 1.09047 0.948 0.924
2324.418 1.11828 1.061 0.995 0.869 0.799 0.996 1.096 0.961 0.991 0.999
2343.708 0.735 0.837 0.875 0.771 0.925 0.924 0.941 0.917 0.735 0.993
2362.998 1.2323 1.09739 1.13041 1.0825 0.987 0.923 0.797 0.599 0.585 0.758
2382.288 0.959 1.0622 0.949 1.0376 0.883 0.765 0.915 0.67 0.695 0.905
2401.578 0.862 0.794 0.908 1.0506 0.976 1.11272 1.0689 0.974 0.784 0.766
2420.867 0.901 0.689 0.71 0.56 0.656 0.971 1.0735 1.0292 0.996 0.955
2440.157 0.86 0.957 0.998 0.985 0.83 0.807 0.976 1.023 1.0456 0.983
2459.447 0.965 0.855 0.661 0.658 0.612 0.543 0.488 0.761 0.857 0.681
2478.737 0.691 0.699 0.969 1.1384 1.2263 1.19044 0.869 0.691 0.73 0.701
2498.026 0.724 0.805 0.808 0.814 0.659 0.844 0.975 0.954 0.963 0.847
2517.316 0.927 0.881 0.755 0.774 0.762 0.932 1.09572 1.0183 0.915 0.882
2536.606 0.907 0.85 1.0178 0.839 0.533 0.812 1.10625 1.0839 0.788 0.763
2555.896 1.0061 1.0487 0.92 0.602 0.613 0.906 1.11431 1.12602 1.13841 1.2102
2575.186 0.884 0.71 0.771 1.0721 1.0843 0.853 0.917 0.752 0.704 1.0169
2594.475 1.0243 0.815 0.799 0.846 0.846 0.935 0.835 0.707 1.0195 1.2336
2613.765 1.0517 0.874 0.902 0.924 0.844 0.79 0.886 0.881 0.75 0.906
2633.055 0.863 0.803 1.0085 1.026 0.992 0.811 0.96 0.916 0.725 0.834
2652.345 0.62 0.597 0.515 0.402 0.591 0.567 0.673 0.732 0.826 0.943
2671.634 0.913 0.843 0.652 0.463 0.553 0.696 0.68 0.776 0.936 1.3059
2690.924 1.09452 0.818 0.884 0.914 0.962 0.977 1.0454 1.0873 1.0638 0.776
2710.214 0.654 0.642 0.908 1.2274 1.13047 1.2021 0.877 0.539 0.649 0.503
2729.504 0.713 0.977 0.925 0.971 1.0616 0.995 1.0412 1.15634 1.19487 1.18883
2748.794 0.777 0.873 1.2404 1.0743 0.846 0.787 0.708 0.714 1.0122 0.979
2768.083 0.723 1.0185 1.09955 0.987 1.09148 0.865 0.771 0.852 0.806 1.0215
2787.373 1.2336 0.974 0.689 0.964 1.323 1.1662 1.15529 1.2115 0.945 1.0583
2806.663 1.0263 0.83 1.0664 1.2481 1.15347 1.13993 1.3275 1.0603 1.0263 1.14959
2825.953 0.949 1.15577 1.0399 0.823 1.16924 1.3328 1.4546 1.4236 1.4329 1.7989
2845.242 1.6702 1.14082 0.876 1.16185 1.5534 1.8534 1.8901 1.6252 1.6023 1.8549
2864.532 2.28 2.46 2.5 2.83 3.17 3.2 3.27 3.24 3.17 3.44
2883.822 3.4 3.06 3.08 3.15 2.83 2.89 3.35 3.29 2.85 2.79
2903.112 3.12 3.19 3.16 2.99 3.02 3.35 3.84 4.17 4.22 4.35
2922.401 4.89 5.52 5.55 5.26 5.97 6.69 7.09 8.07 8.81 9.03
2941.691 9.42 9.46 8.54 7.89 7.37 6.52 5.73 4.89 4.38 4.33
2960.981 4.14 4.37 4.55 4.58 5.42 6.73 7.74 8.68 10.3 12.6
2980.271 15.33 18.32 22 25.42 28.01 28.84 27.43 24.83 21.53 17.88
2999.561 14.07 11.03 8.99 7.61 6.6 5.58 4.5 3.79 3.33 2.94
3018.850 2.56 1.9503 1.9373 1.977 1.9078 1.9081 1.8712 1.7984 1.6688 1.7211
3038.140 1.4657 1.3216 1.3315 1.14847 1.11275 1.2035 1.2626 0.958 0.982 1.16859
3057.430 0.763 0.753 0.687 0.453 1.0672 0.939 0.51 0.788 0.838 1.19905
3076.720 1.3983 1.0863 1.0077 1.0337 0.893 0.868 0.773 0.65 0.756 1.0345
3096.009 0.914 1.0361 1.3476 1.3218 0.934 0.717 1.2693 1.5839 1.6152 1.3846
3115.299 1.2161 1.4661 1.16992 0.572 0.494 0.772 0.785 1.0283 1.6267 1.4029
3134.589 1.2297 1.2435 1.15435 0.897 0.528 0.613 0.808 0.987 0.733 0.498
3153.879 0.512 0.909 1.247 0.782 0.204 0.206 0.702 0.992 1.0153 0.924
3173.169 1.2083 1.0756 0.506 0.491 0.982 1.19763 0.88 0.858 1.14271 1.19119
3192.458 1.16998 1.5873 1.9221 1.411 0.865 1.17304 1.569 1.16758 0.608 0.758
3211.748 1.17931 1.3448 0.966 0.528 0.523 0.676 1.10759 1.2709 0.582 0.416
3231.038 0.38 0.664 1.16999 0.637 0.774 0.801 0.302 0.504 0.645 0.552
3250.328 0.308 0 0.471 1.0524 1.0422 0.76 1.0258 1.4265 1.008 1
3269.617 0.883 0.489 0.586 0.679 0.731 0.515 0.194 0.404 0.78 0.98
3288.907 1.15254 1.082 0.981 1.0525 0.591 0.06 0.515 1.0862 1.19701 1.3262
3308.197 1.0446 1.09689 1.4495 1.323 0.797 0.589 0.747 0.667 0.453 0.179
3327.487 0.481 0.867 0.967 0.887 1 1.2253 0.655 0.522 1.0179 0.904
3346.777 0.855 0.961 0.597 0.35 0.735 0.899 1.0688 1.2062 1.0298 0.944
3366.066 0.561 0.365 0.786 0.814 0.65 0.608 0.473 0.504 0.749 1.16227
3385.356 1.2381 0.74 0.465 0.551 0.722 1.3809 1.5588 0.916 0.522 0.851
3404.646 1.3768 0.875 0.507 0.825 1.19369 1.5708 1.3485 1.3317 1.4409 1.5423
3423.936 1.6097 0.942 0.541 1.1984 1.3356 0.965 1.11507 0.933 0.535 0.722
3443.225 1.2707 1.2481 0.856 0.943 1.10101 0.826 0.239 0.114 0.642 0.898
3462.515 0.967 0.905 0.982 0.81 0.727 0.987 0.84 0.855 1.2223 0.998
3481.805 0.386 0.583 1.0739 0.836 1.0632 1.2749 0.878 0.833 0.438 0.407
3501.095 0.754 0.773 0.968 1.2066 1.4912 1.5832 1.217 1.19075 1.0537 0.818
3520.385 0.692 0.749 1.3691 1.0413 0.235 0.827 0.989 0.546 0.437 0.436
3539.674 0.965 1.13653 0.856 1.055 1.0203 0.945 1.1023 0.767 0.637 1.11692
3558.964 1.6011 1.0476 0.456 0.665 0.67 0.539 0.762 0.92 1.09464 1.0483
3578.254 0.85 0.883 0.66 0.514 0.705 1.0233 1.2789 1.17648 0.909 1.2011
3597.544 1.45 1.2522 1.0323 0.799 0.811 0.761 0.95 1.3054 1.3504 1.7672
3616.833 2.0287 2.13 2.33 2.77 3.38 3.71 4.46 4.74 5.1 6.13
3636.123 6.79 6.9 6.63 6.39 6.23 5.4 4.93 4.9 4.42 3.66
3655.413 3.22 3.17 2.52 2.25 2.31 2.0369 1.6842 1.3208 1.2052 0.854
3674.703 0.777 1.2617 1.2967 0.984 0.608 0.564 0.868 1.4565 1.239 0.851
3693.993 1.0316 0.675 0.351 0.352 0.228 0.648 1.0231 0.842 0.884 0.824
3713.282 0.952 1.09631 0.919 0.847 0.877 1.0758 1.19258 0.865 0.569 0.846
3732.572 0.969 0.514 0.404 0.775 1.0109 1.13288 1.5338 1.18317 0.394 0.865
3751.862 1.7319 1.7802 1.14753 0.399 0.207 0.539 0.674 0.645 0.929 0.727
3771.152 0.717 0.951 0.925 1.10054 1.2477 0.967 0.916 1.4101 1.5971 1.6242
3790.441 1.7423 1.301 0.814 1.18619 1.3213 1.12542 1.0104 0.946 0.953 0.964
3809.731 1.0506 1.3595 1.3958 0.847 0.344 0.627 1.13742 1.4057 1.3917 1.6394
3829.021 1.3499 0.824 1.0249 0.966 0.724 0.905 1.0239 0.867 0.964 0.959
3848.311 0.772 0.897 1.17634 1.3389 1.3063 1.1359 1.0225 0.881 1.0654 1.014
3867.601 0.949 1.3896 1.18536 0.875 1.2387 1.14133 1.11084 1.4826 1.7633 1.9631
3886.890 1.6895 1.415 1.3066 0.863 0.905 0.944 0.59 0.895 1.3791 1.6533
3906.180 1.17037 0.971 1.4079 1.361 1.3016 1.2029 0.974 0.968 1.2815 1.4821
3925.470 1.13595 1.0485 1.09151 1.0189 1.0936 1.15303 0.815 0.348 0.548 1.0006
3944.760 1.0695 1.6459 1.8628 1.16289 1.12402 1.348 1.10226 1.0871 1.0751 1.0196
3964.049 0.99 1.3302 1.6198 1.14397 0.906 0.79 1.2052 1.6224 1.19291 0.726
3983.339 0.848 1.37 1.5796 1.6291 1.3142 0.78 0.89 0.775 0.421 0.848
##END=
