##TITLE=2,4-Dichlorobenzyl mercaptan
##JCAMP-DX=4.24
##DATA TYPE=INFRARED SPECTRUM
##ORIGIN=EPA-IR VAPOR PHASE LIBRARY
##OWNER=SRD/NIST
Collection (C) 2018 copyright by the U.S. Secretary of Commerce
on behalf of the United States of America. All rights reserved.
##CAS REGISTRY NO=59293-67-3
##MOLFORM=C 7 H 6 Cl 2 S
##$NIST SOURCE=MSDC-IR
##STATE=gas
##XUNITS=1/CM
##YUNITS=ABSORBANCE
##XFACTOR=1.
##YFACTOR=0.001
##DELTAX=1.92934
##FIRSTX=549.9
##LASTX=3999.5
##FIRSTY=25.78
##MAXX=3999.53
##MINX=549.863
##MAXY=0.37325
##MINY=0
##NPOINTS=1789
##XYDATA=(X++(Y..Y))
549.863 25.78 28.11 29.65 29.68 28.12 25.9 23.55 21.01 18.45 15.96
569.156 13.77 12.01 10.56 9.59 8.74 7.98 7.5 7.12 6.82 6.64
588.450 6.52 6.32 6.14 6.07 6.01 6.02 6.05 6.11 6.27 6.44
607.743 6.65 6.89 7.16 7.51 8 8.63 9.43 10.45 11.77 13.63
627.037 16.17 19.7 24.5 30.59 37.5 44.28 49.83 53.39 54.71 53.5
646.330 50.09 44.76 38.13 31.97 27.43 24.35 22.54 21.96 22.26 23.38
665.624 25.21 27.54 30.06 32.19 33.61 33.8 32.57 30.51 28.12 25.51
684.917 22.9 20.69 19.13 18.09 17.49 17.39 17.65 18.21 19.05 20.08
704.210 21.32 22.9 24.99 27.59 30.7 34.21 38.04 42.13 46.39 50.98
723.504 55.76 60.42 64.64 68.18 70.78 72.21 72.47 71.44 68.96 65.2
742.797 60.43 54.98 49.42 44.11 39.22 35 31.55 28.78 26.59 24.9
762.091 23.62 22.76 22.25 22.04 22.1 22.4 22.98 23.71 24.54 25.46
781.384 26.5 27.6 28.62 29.65 30.75 32.06 33.67 35.65 38.23 41.63
800.678 46.15 52.06 59.4 68.05 77.66 88.02 98.91 109.77 119.98 128.45
819.971 133.88 136.58 138.78 142.08 147.84 157.86 172.53 191.3 212.57 233.35
839.264 250.1 260.13 261.91 255.12 240.12 218.43 193.25 168.98 149.09 135.03
858.558 126.4 122.18 120.8 122.29 127.46 135.63 130.71 108.71 91.82 81.34
877.851 70.4 59.15 48.43 39.36 32.38 27.52 24.09 21.67 19.87 18.47
897.145 17.33 16.34 15.48 14.72 14.09 13.54 13 12.6 12.23 11.91
916.438 11.64 11.42 11.22 10.99 10.89 10.78 10.6 10.48 10.43 10.38
935.732 10.37 10.52 10.69 10.85 11.09 11.38 11.69 12.01 12.42 12.9
955.025 13.51 14.26 15.14 16.25 17.53 18.86 20.22 21.54 22.62 23.44
974.318 23.95 24.08 23.88 23.31 22.41 21.29 20.1 18.99 17.91 16.84
993.612 15.85 14.97 14.22 13.53 12.95 12.4 11.9 11.55 11.27 11.08
1012.905 10.94 10.85 10.91 11.2 11.75 12.57 13.81 15.68 18.36 22.15
1032.199 27.31 34.24 43.28 54.75 68.75 84.52 100.26 113.48 122.05 126.07
1051.492 127.42 126.37 120.2 107.22 90.04 73.05 58.87 47.96 40 34.68
1070.786 31.54 30.21 30.33 31.67 34.31 38.48 44.64 53.29 64.8 79.32
1090.079 96.7 115.98 135.87 154.37 169.09 178.18 180.82 177.61 169.25 156.18
1109.372 139.62 121.86 105.57 92.23 81.67 73.29 66.71 61.76 58.1 55.55
1128.666 53.86 52.72 52.1 51.78 51.61 51.3 50.54 49.3 47.56 45.15
1147.959 42.2 38.72 34.89 31.21 27.87 25.07 22.92 21.35 20.3 19.56
1167.253 18.99 18.6 18.32 18.13 18.13 18.21 18.35 18.63 18.95 19.31
1186.546 19.66 20.04 20.41 20.76 21.02 21.17 21.17 20.96 20.61 20.09
1205.840 19.44 18.63 17.9 17.36 16.81 16.57 16.64 16.89 17.42 18.22
1225.133 19.24 20.47 21.97 23.82 26.17 29.06 32.63 36.8 41.21 45.62
1244.426 49.46 52.04 53.21 52.95 51.34 48.57 44.83 40.61 36.63 33.18
1263.720 30.3 27.88 25.86 24.26 22.92 21.86 21.15 20.86 20.85 20.92
1283.013 21.04 21.04 20.81 20.31 19.49 18.45 17.18 15.78 14.43 13.24
1302.307 12.25 11.46 10.98 10.67 10.47 10.4 10.41 10.35 10.24 10.14
1321.600 9.98 9.78 9.59 9.4 9.24 9.18 9.22 9.36 9.66 10.04
1340.894 10.48 11.02 11.71 12.53 13.47 14.6 15.98 17.71 19.87 22.55
1360.187 26.01 30.32 35.6 41.92 49.29 57.57 66.37 75.19 83.23 89.56
1379.480 93.44 94.54 93.13 89.73 84.42 77.19 68.62 59.9 52.01 45.42
1398.774 40.26 36.23 33.37 31.69 31.17 31.92 34 37.26 41.47 46.14
1418.067 50.67 54.63 57.39 59.06 59.87 60.02 59.87 59.81 60.18 61.05
1437.361 62.32 63.61 64.88 65.92 67 68.51 71.15 75.71 83.24 94.61
1456.654 112.14 136.67 168.54 209.25 256.64 305.26 344.6 368.14 373.25 362.42
1475.948 336.52 295.9 244.65 191.65 148.49 118.98 100.21 88.12 79.93 74.34
1495.241 70.38 67.08 64.01 60.69 57.04 53.02 48.37 43.33 38.4 33.82
1514.534 30.07 27.06 24.67 22.96 21.6 20.65 20.18 20.08 20.33 21.07
1533.828 22.36 24.12 26.66 30.1 34.26 39.34 45.4 52.14 59.41 66.92
1553.121 73.98 80.33 85.2 88.77 90.88 91.55 91.2 90.29 89.62 90.28
1572.415 93.27 98.87 107.19 117.16 128.06 139.45 149.87 158.03 162.25 161.56
1591.708 155.7 145.31 131.22 114.34 95.92 77.57 60.98 47.39 37.1 29.68
1611.002 24.52 20.96 18.65 16.98 15.71 14.94 14.44 14.06 13.82 13.59
1630.295 13.4 13.23 13.07 12.88 12.57 12.25 11.93 11.59 11.16 10.64
1649.588 10.15 9.75 9.32 8.82 8.37 7.99 7.74 7.48 7.23 7.02
1668.882 6.89 6.7 6.51 6.44 6.3 6.11 6.04 6.02 6.04 5.95
1688.175 5.88 5.88 5.85 5.89 5.97 5.96 5.99 6.04 6.07 6.15
1707.469 6.3 6.57 6.89 7.35 8.05 8.85 9.79 10.91 12.24 13.73
1726.762 15.25 16.68 17.75 18.16 17.89 17.36 16.81 15.88 14.59 13.21
1746.056 12.04 11.27 10.81 10.5 10.3 10.17 10.03 9.8 9.45 8.99
1765.349 8.53 8.07 7.53 7.06 6.65 6.28 5.97 5.76 5.61 5.3997
1784.642 5.2134 5.0928 5.0216 4.9576 4.8516 4.7564 4.6938 4.6913 4.7466 4.802
1803.936 4.8757 4.9997 5.1071 5.1874 5.2557 5.2402 5.1876 5.1 4.9668 4.8159
1823.229 4.6588 4.534 4.398 4.267 4.224 4.209 4.153 4.115 4.107 4.128
1842.523 4.165 4.177 4.155 4.191 4.282 4.333 4.442 4.60565 4.7504 4.9861
1861.816 5.2974 5.61 6.02 6.52 7.14 7.84 8.6 9.45 10.36 11.29
1881.110 12.06 12.64 12.96 12.97 12.7 12.18 11.49 10.63 9.67 8.68
1900.403 7.77 6.98 6.28 5.73 5.3208 5.0035 4.7515 4.5994 4.5295 4.486
1919.696 4.451 4.415 4.415 4.387 4.358 4.354 4.396 4.418 4.4 4.402
1938.990 4.419 4.469 4.5099 4.5064 4.48 4.483 4.472 4.44 4.401 4.361
1958.283 4.328 4.293 4.258 4.229 4.233 4.239 4.233 4.255 4.26 4.271
1977.577 4.274 4.253 4.249 4.228 4.184 4.14 4.086 4.056 4.013 3.933
1996.870 3.867 3.815 3.763 3.688 3.608 3.57 3.58 3.57 3.54 3.54
2016.164 3.55 3.52 3.47 3.45 3.45 3.45 3.44 3.42 3.42 3.4
2035.457 3.43 3.42 3.38 3.37 3.34 3.32 3.34 3.32 3.27 3.23
2054.750 3.21 3.2 3.18 3.16 3.15 3.13 3.1 3.13 3.12 3.09
2074.044 3.09 3.1 3.11 3.08 3.08 3.11 3.12 3.09 3.06 3.08
2093.337 3.12 3.12 3.1 3.1 3.12 3.15 3.17 3.16 3.14 3.14
2112.631 3.11 3.16 3.2 3.17 3.15 3.14 3.15 3.16 3.14 3.13
2131.924 3.13 3.15 3.19 3.21 3.21 3.23 3.21 3.21 3.23 3.21
2151.218 3.22 3.23 3.19 3.13 3.13 3.15 3.11 3.1 3.11 3.12
2170.511 3.09 3.09 3.13 3.13 3.15 3.17 3.23 3.27 3.29 3.32
2189.804 3.34 3.37 3.37 3.4 3.47 3.49 3.48 3.45 3.47 3.47
2209.098 3.44 3.42 3.43 3.46 3.47 3.45 3.46 3.49 3.48 3.46
2228.391 3.44 3.42 3.43 3.43 3.43 3.44 3.41 3.4 3.43 3.42
2247.685 3.4 3.37 3.37 3.39 3.42 3.44 3.43 3.44 3.42 3.37
2266.978 3.4 3.43 3.41 3.44 3.48 3.51 3.52 3.604 3.696 3.697
2286.272 3.708 3.725 3.749 3.805 3.828 3.825 3.861 3.902 3.916 3.912
2305.565 3.869 3.855 3.855 3.846 3.832 3.836 3.849 3.864 3.864 3.812
2324.858 3.782 3.765 3.752 3.764 3.767 3.754 3.736 3.691 3.644 3.59
2344.152 3.51 3.44 3.38 3.3 3.22 3.16 3.13 3.16 3.13 3.07
2363.445 3.08 3.12 3.16 3.17 3.19 3.23 3.28 3.3 3.34 3.43
2382.739 3.48 3.51 3.55 3.56 3.53 3.52 3.51 3.51 3.54 3.52
2402.032 3.5 3.53 3.52 3.51 3.48 3.44 3.41 3.41 3.43 3.42
2421.326 3.4 3.39 3.39 3.38 3.33 3.27 3.26 3.22 3.19 3.21
2440.619 3.17 3.12 3.13 3.07 2.99 2.97 2.95 2.96 2.98 2.94
2459.912 2.95 2.95 2.87 2.85 2.88 2.92 2.93 2.92 2.95 3
2479.206 3.03 3.08 3.11 3.14 3.17 3.17 3.22 3.26 3.26 3.26
2498.499 3.24 3.3 3.35 3.33 3.33 3.38 3.44 3.48 3.49 3.54
2517.793 3.604 3.604 3.592 3.605 3.645 3.633 3.58 3.58 3.58 3.57
2537.086 3.57 3.58 3.59 3.57 3.54 3.46 3.42 3.36 3.3 3.3
2556.380 3.27 3.24 3.18 3.18 3.23 3.25 3.31 3.42 3.56 3.744
2575.673 4.046 4.38 4.7517 5.2335 5.81 6.42 6.88 7.15 7.26 7.22
2594.966 7 6.57 6.03 5.4235 4.8895 4.5341 4.231 3.937 3.779 3.694
2614.260 3.606 3.56 3.53 3.57 3.675 3.697 3.713 3.801 3.849 3.887
2633.553 3.94 3.999 4.063 4.067 4.025 3.973 3.988 3.953 3.93 3.947
2652.847 3.873 3.883 3.873 3.854 3.908 3.917 3.995 4.141 4.235 4.309
2672.140 4.436 4.5479 4.62034 4.65914 4.7677 4.8857 4.8796 4.9114 4.9402 4.9207
2691.434 4.8355 4.7243 4.63556 4.486 4.286 4.138 4.01 3.844 3.707 3.682
2710.727 3.701 3.599 3.44 3.36 3.32 3.34 3.28 3.21 3.17 3.14
2730.020 3.03 2.87 2.78 2.72 2.64 2.53 2.46 2.41 2.36 2.26
2749.314 2.2 2.25 2.25 2.19 2.16 2.1 2.1 2.07 2.01 2
2768.607 1.97 1.94 1.95 2.01 2.04 2.06 2.06 2.05 2.02 2.04
2787.901 2.12 2.16 2.24 2.37 2.35 2.37 2.49 2.49 2.5 2.57
2807.194 2.54 2.53 2.62 2.67 2.58 2.58 2.7 2.8 2.88 2.89
2826.488 2.95 3.07 3.21 3.3 3.45 3.685 3.851 3.995 4.181 4.371
2845.781 4.58542 4.759 4.905 5.1832 5.3713 5.4553 5.5393 5.4998 5.4027 5.308
2865.074 5.1922 4.9983 4.8183 4.65848 4.326 3.971 3.754 3.53 3.31 3.13
2884.368 2.95 2.8 2.68 2.64 2.59 2.54 2.56 2.6 2.63 2.74
2903.661 2.92 3.13 3.28 3.41 3.57 3.824 4.191 4.5265 4.9581 5.5123
2922.955 6.08 6.84 7.71 8.73 9.99 11.46 13.08 14.89 17.06 19.48
2942.248 22 24.78 27.83 30.88 33.66 35.95 37.5 37.86 36.62 34.01
2961.542 30.64 27.1 23.56 20.01 16.82 14.09 11.97 10.36 9.18 8.46
2980.835 7.98 7.7 7.63 7.55 7.48 7.45 7.36 7.25 7.17 7
3000.128 6.9 6.99 7.12 7.2 7.28 7.56 8.01 8.45 8.84 9.38
3019.422 9.93 10.26 10.49 10.59 10.53 10.35 9.95 9.46 8.93 8.44
3038.715 8.07 7.77 7.6 7.57 7.81 8.34 9.05 9.9 11.01 12.24
3058.009 13.35 14.32 15.18 15.72 15.71 15.47 15.08 14.5 13.81 13.15
3077.302 12.54 11.87 11.12 10.37 9.63 8.77 7.65 6.41 5.2412 4.269
3096.596 3.53 2.88 2.5 2.33 2.14 1.94 1.74 1.51 1.4 1.36
3115.889 1.25 1.11 1.1 1.12 1.02 0.91 0.82 0.76 0.68 0.76
3135.182 0.77 0.57 0.52 0.7 0.79 0.73 0.69 0.6 0.57 0.66
3154.476 0.78 0.8 0.79 0.73 0.61 0.59 0.67 0.66 0.61 0.64
3173.769 0.62 0.59 0.49 0.43 0.41 0.3 0.26 0.35 0.42 0.34
3193.063 0.19 0.06 0.16 0.24 0.17 0.16 0.15 0.15 0.22 0.37
3212.356 0.27 0.08 0.08 0.02 0 0.05 0.11 0.18 0.12 0.1
3231.650 0.29 0.31 0.37 0.38 0.29 0.33 0.24 0.19 0.25 0.2
3250.943 0.13 0.19 0.33 0.36 0.29 0.42 0.5 0.45 0.47 0.49
3270.236 0.43 0.43 0.47 0.41 0.36 0.37 0.44 0.55 0.56 0.53
3289.530 0.46 0.49 0.63 0.6 0.46 0.51 0.55 0.56 0.62 0.72
3308.823 0.77 0.64 0.58 0.53 0.62 0.76 0.72 0.68 0.72 0.71
3328.117 0.77 0.72 0.67 0.73 0.65 0.7 0.84 0.83 0.79 0.73
3347.410 0.77 0.77 0.75 0.77 0.7 0.78 0.93 1.05 1.1 1.07
3366.704 1.05 1.06 1.17 1.29 1.27 1.27 1.28 1.2 1.2 1.22
3385.997 1.03 0.93 1.01 0.9 0.97 1.12 1.11 1.09 1.11 1.07
3405.290 1.04 1.12 1.2 1.26 1.16 1.22 1.29 1.28 1.33 1.31
3424.584 1.23 1.24 1.3 1.31 1.38 1.43 1.42 1.44 1.46 1.44
3443.877 1.46 1.52 1.56 1.58 1.52 1.5 1.55 1.55 1.59 1.64
3463.171 1.66 1.68 1.71 1.69 1.71 1.71 1.68 1.7 1.73 1.78
3482.464 1.79 1.75 1.78 1.82 1.87 1.88 1.86 1.94 1.86 1.68
3501.758 1.79 1.95 1.93 1.95 1.85 1.81 1.9 1.91 1.88 1.9
3521.051 1.95 2.01 1.99 1.98 2.08 2.09 2.1 2.3 2.41 2.43
3540.344 2.44 2.43 2.53 2.7 2.77 2.81 2.89 2.94 2.94 3.08
3559.638 3.21 3.22 3.23 3.16 3.07 3.02 2.93 2.84 2.75 2.65
3578.931 2.63 2.5 2.39 2.46 2.43 2.38 2.41 2.37 2.31 2.3
3598.225 2.24 2.29 2.34 2.27 2.26 2.33 2.35 2.34 2.4 2.37
3617.518 2.36 2.35 2.24 2.17 2.23 2.31 2.39 2.46 2.42 2.47
3636.812 2.49 2.44 2.4 2.39 2.44 2.55 2.51 2.48 2.51 2.43
3656.105 2.49 2.55 2.61 2.67 2.71 2.73 2.67 2.65 2.66 2.65
3675.398 2.67 2.76 2.72 2.73 2.8 2.83 2.83 2.83 2.78 2.72
3694.692 2.76 2.83 2.85 2.85 2.98 3.02 2.95 2.9 2.89 2.89
3713.985 2.82 2.87 2.89 2.92 2.95 2.97 3.04 2.95 2.96 3.07
3733.279 3.09 2.99 2.92 2.94 2.99 3.04 3.07 3.1 3.18 3.17
3752.572 3.16 3.16 3.2 3.24 3.18 3.16 3.18 3.21 3.2 3.14
3771.866 3.06 3.02 2.96 2.92 2.95 2.9 2.91 2.93 2.86 2.83
3791.159 2.75 2.76 2.8 2.76 2.85 2.92 2.86 2.75 2.72 2.77
3810.452 2.78 2.78 2.71 2.71 2.71 2.62 2.68 2.76 2.7 2.67
3829.746 2.74 2.73 2.73 2.77 2.78 2.73 2.73 2.75 2.67 2.61
3849.039 2.58 2.67 2.7 2.63 2.71 2.68 2.54 2.56 2.68 2.75
3868.333 2.71 2.71 2.72 2.78 2.77 2.72 2.74 2.73 2.8 2.81
3887.626 2.82 2.84 2.78 2.77 2.75 2.8 2.9 2.94 2.98 3.02
3906.920 3.07 3.14 3.27 3.4 3.5 3.613 3.686 3.664 3.729 3.848
3926.213 3.792 3.696 3.731 3.78 3.641 3.45 3.42 3.35 3.22 3.11
3945.506 2.97 2.96 2.97 2.87 2.8 2.81 2.75 2.65 2.66 2.64
3964.800 2.61 2.62 2.59 2.62 2.66 2.69 2.69 2.55 2.52 2.54
3984.093 2.47 2.46 2.53 2.5 2.48 2.45 2.4 2.37 2.39
##END=
