##TITLE=2-Tridecanone
##JCAMP-DX=4.24
##DATA TYPE=INFRARED SPECTRUM
##ORIGIN=NIST Mass Spectrometry Data Center
##OWNER=NIST Standard Reference Data Program
Collection (C) 2018 copyright by the U.S. Secretary of Commerce
on behalf of the United States of America. All rights reserved.
##CAS REGISTRY NO=593-08-8
##MOLFORM=C 13 H 26 O
##$NIST SOURCE=MSDC-IR
##SPECTROMETER/DATA SYSTEM=HP-GC/MS/IRD
##STATE=gas
##XUNITS=1/CM
##YUNITS=ABSORBANCE
##XFACTOR=1.0
##YFACTOR=0.000006100
##DELTAX=4.0
##FIRSTX=550.0
##LASTX=3846.0
##FIRSTY=0.000634
##MAXX=3846
##MINX=550
##MAXY=0.061
##MINY=0
##NPOINTS=825
##XYDATA=(X++(Y..Y))
550.0 104 78 62 45 47 51 62 76 89 114
590.0 126 119 107 84 60 48 37 24 15 20
630.0 22 8 10 11 7 9 6 0 0 11
670.0 17 3 11 27 36 56 68 82 114 143
710.0 168 195 206 199 188 171 147 124 114 102
750.0 90 84 78 69 66 64 61 58 57 58
790.0 60 54 48 50 51 53 53 43 38 35
830.0 40 43 40 40 41 43 42 42 45 44
870.0 42 49 56 63 67 69 69 71 74 81
910.0 89 91 97 111 121 128 139 145 152 155
950.0 160 162 157 157 154 146 138 127 118 113
990.0 109 103 103 103 98 98 101 97 96 92
1030.0 89 86 86 88 92 92 97 101 109 118
1070.0 118 117 114 110 110 114 117 121 133 152
1110.0 170 184 203 225 249 288 339 407 509 640
1150.0 779 896 962 971 930 858 782 716 653 607
1190.0 573 551 538 530 531 530 530 525 512 493
1230.0 458 424 393 367 348 333 326 323 321 322
1270.0 322 321 322 326 336 343 348 357 369 381
1310.0 389 395 404 424 457 503 576 675 802 956
1350.0 1136 1331 1476 1494 1372 1171 963 792 663 570
1390.0 494 436 403 394 403 424 450 468 482 493
1430.0 506 524 566 626 704 787 867 927 929 863
1470.0 740 596 461 359 285 233 200 176 157 145
1510.0 133 127 125 119 111 103 101 100 96 92
1550.0 88 84 83 81 79 72 66 66 66 61
1590.0 56 58 58 56 55 51 46 45 48 51
1630.0 52 55 56 62 71 77 89 104 118 139
1670.0 166 197 240 301 371 451 553 681 842 1035
1710.0 1273 1561 1914 2287 2623 2812 2733 2409 1968 1543
1750.0 1194 928 726 563 435 341 265 208 165 133
1790.0 107 86 73 65 57 49 43 39 34 31
1830.0 30 27 26 24 24 23 21 17 14 14
1870.0 12 11 13 14 12 11 12 13 9 6
1910.0 9 10 7 4 5 4 5 5 4 5
1950.0 4 3 5 5 4 4 2 1 0 0
1990.0 1 3 2 2 5 7 9 9 8 7
2030.0 8 8 9 10 9 9 10 11 11 12
2070.0 11 11 10 9 11 11 12 12 9 7
2110.0 6 10 11 7 8 8 10 9 6 6
2150.0 9 9 7 8 10 11 10 8 6 8
2190.0 8 5 3 4 5 4 5 4 4 3
2230.0 1 0 0 0 0 0 3 2 2 3
2270.0 5 6 6 5 4 5 8 9 9 8
2310.0 9 10 10 9 9 9 4 5 4 4
2350.0 5 3 5 3 4 7 5 3 0 2
2390.0 3 1 0 1 2 4 4 4 5 2
2430.0 2 3 2 2 4 2 0 1 3 1
2470.0 0 2 5 7 6 7 10 11 8 9
2510.0 10 13 16 18 20 20 19 17 19 20
2550.0 19 19 21 24 23 24 25 25 26 28
2590.0 29 32 33 33 38 41 41 41 41 46
2630.0 49 52 55 57 56 61 68 70 71 80
2670.0 86 90 92 93 94 95 90 88 85 81
2710.0 80 84 86 87 88 90 96 102 105 109
2750.0 115 117 118 124 131 137 147 158 174 191
2790.0 207 228 255 282 312 349 387 431 478 537
2830.0 613 715 853 1054 1370 1854 2506 3188 3657 3742
2870.0 3504 3144 2826 2618 2498 2454 2528 2730 3043 3477
2910.0 4046 4795 5809 7137 8592 9700 10000 9430 8288 6956
2950.0 5736 4813 4231 3904 3655 3274 2708 2103 1614 1280
2990.0 1048 884 774 698 641 593 541 485 433 384
3030.0 341 310 284 259 242 228 216 204 192 180
3070.0 172 165 157 149 139 126 117 110 104 95
3110.0 87 81 80 77 70 67 62 59 55 49
3150.0 46 45 41 38 35 31 29 32 32 28
3190.0 27 28 27 26 22 15 12 10 12 11
3230.0 8 9 10 10 8 4 1 4 8 7
3270.0 8 6 4 4 4 1 0 3 2 3
3310.0 8 5 0 1 5 9 11 10 9 4
3350.0 0 1 9 11 11 10 8 8 10 15
3390.0 18 18 19 24 20 23 32 37 35 39
3430.0 46 51 56 54 53 57 54 43 32 24
3470.0 26 25 19 14 15 15 14 13 8 0
3510.0 0 3 8 5 0 1 0 0 2 1
3550.0 0 1 3 1 6 11 10 13 10 5
3590.0 6 9 11 13 9 7 9 12 13 13
3630.0 14 12 12 14 13 16 16 17 17 18
3670.0 19 14 10 16 17 11 11 12 11 12
3710.0 16 16 11 10 13 9 7 7 7 9
3750.0 9 13 14 10 13 15 15 13 14 14
3790.0 14 16 17 18 18 16 15 14 10 7
3830.0 9 11 14 18 19
##END=
