##TITLE=4-Amino-2,6-dichlorophenol
##JCAMP-DX=4.24
##DATA TYPE=INFRARED SPECTRUM
##ORIGIN=NIST Mass Spectrometry Data Center
##OWNER=NIST Standard Reference Data Program
Collection (C) 2018 copyright by the U.S. Secretary of Commerce
on behalf of the United States of America. All rights reserved.
##CAS REGISTRY NO=5930-28-9
##MOLFORM=C 6 H 5 Cl 2 N O
##$NIST SOURCE=MSDC-IR
##SPECTROMETER/DATA SYSTEM=HP-GC/MS/IRD
##STATE=gas
##XUNITS=1/CM
##YUNITS=ABSORBANCE
##XFACTOR=1.0
##YFACTOR=0.000003100
##DELTAX=4.0
##FIRSTX=550.0
##LASTX=3846.0
##FIRSTY=0.002000
##MAXX=3846
##MINX=550
##MAXY=0.031
##MINY=0
##NPOINTS=825
##XYDATA=(X++(Y..Y))
550.0 645 536 407 472 538 587 683 813 947 1061
590.0 968 737 588 495 468 457 456 471 469 488
630.0 475 490 557 675 856 1103 1401 1704 1981 2097
670.0 2032 1867 1659 1480 1360 1294 1257 1227 1122 942
710.0 771 632 532 458 431 412 413 428 441 454
750.0 436 440 476 535 635 800 1077 1558 2380 3278
790.0 3895 4204 3880 3058 2364 1902 1680 1633 1618 1563
830.0 1558 1604 1475 1297 1138 905 680 486 356 310
870.0 262 188 124 100 100 98 105 112 136 145
910.0 144 148 140 175 219 306 470 722 946 1014
950.0 983 778 426 185 91 49 44 42 20 12
990.0 30 34 24 34 49 61 77 65 98 142
1030.0 177 195 232 261 271 279 293 364 465 600
1070.0 703 728 703 592 424 362 399 454 534 560
1110.0 518 478 421 362 320 306 332 349 387 584
1150.0 993 1681 2586 3390 3802 3726 3174 2362 1626 1155
1190.0 924 858 891 1001 1138 1347 1743 2400 3340 4304
1230.0 4837 4892 4473 3570 2655 1988 1367 829 563 471
1270.0 456 493 581 720 882 1027 1121 1121 1036 959
1310.0 978 1184 1561 1924 2081 1993 1672 1178 724 439
1350.0 277 196 158 130 117 120 130 144 170 207
1390.0 246 299 365 462 610 837 1134 1449 1737 1969
1430.0 2101 2094 1953 1735 1483 1214 1025 1014 1212 1685
1470.0 2564 3987 5984 8182 9736 10000 8978 6877 4333 2360
1510.0 1257 739 504 391 333 308 298 298 310 335
1550.0 373 448 569 766 1078 1475 1857 2106 2114 1882
1590.0 1524 1225 1112 1159 1318 1612 2060 2579 2971 3089
1630.0 2906 2448 1860 1347 973 703 543 446 387 346
1670.0 320 307 292 275 267 261 259 251 231 201
1710.0 163 131 109 104 95 77 70 59 42 40
1750.0 39 31 19 6 7 12 9 12 14 11
1790.0 0 4 14 9 0 2 6 6 5 7
1830.0 7 2 4 10 10 8 16 17 20 26
1870.0 19 18 20 16 22 29 27 26 27 23
1910.0 26 26 28 35 29 23 32 27 22 29
1950.0 38 47 48 48 50 51 49 43 39 35
1990.0 38 36 26 33 32 38 45 48 55 39
2030.0 33 36 34 42 43 42 39 32 42 52
2070.0 55 60 61 62 63 51 46 51 37 32
2110.0 32 27 25 15 13 12 14 19 27 26
2150.0 25 25 22 28 30 37 41 33 32 30
2190.0 24 24 23 19 28 51 46 34 35 35
2230.0 40 42 47 40 32 41 39 41 52 54
2270.0 59 65 72 77 65 48 53 50 35 43
2310.0 41 33 34 36 35 39 45 35 27 28
2350.0 33 29 27 25 33 52 53 51 52 45
2390.0 42 45 47 55 59 69 67 58 63 57
2430.0 50 39 37 46 48 44 48 50 48 41
2470.0 44 57 59 61 60 63 59 54 54 51
2510.0 63 81 72 65 77 77 80 77 64 58
2550.0 59 62 59 47 37 42 39 36 45 56
2590.0 31 10 32 45 35 28 31 40 40 31
2630.0 36 53 65 68 54 54 67 69 64 63
2670.0 58 61 61 53 52 38 36 42 40 50
2710.0 56 54 63 61 43 43 55 54 46 37
2750.0 31 39 44 36 45 55 59 61 47 46
2790.0 49 48 47 50 34 25 34 24 33 48
2830.0 53 47 39 33 27 38 42 38 37 27
2870.0 35 51 57 73 87 69 48 48 68 70
2910.0 59 44 33 38 32 24 24 28 22 14
2950.0 17 19 14 13 24 20 10 34 64 52
2990.0 11 22 38 31 40 40 41 48 43 51
3030.0 63 75 84 107 145 176 192 208 215 179
3070.0 131 113 87 65 64 66 54 39 31 25
3110.0 28 30 21 37 53 41 47 41 29 33
3150.0 44 50 40 30 32 26 13 16 18 23
3190.0 42 38 46 56 70 99 97 110 91 67
3230.0 78 65 57 60 73 80 97 105 100 102
3270.0 108 111 106 97 89 88 87 87 60 50
3310.0 52 54 63 67 53 39 57 70 78 82
3350.0 64 73 87 78 88 107 135 150 158 217
3390.0 285 333 419 490 507 535 528 460 402 341
3430.0 246 188 170 143 122 113 122 139 166 201
3470.0 227 273 313 346 374 392 396 383 353 302
3510.0 259 206 162 168 159 127 149 166 147 161
3550.0 193 255 341 481 821 1581 2760 3830 4381 4295
3590.0 3500 2347 1359 760 458 288 203 168 147 137
3630.0 133 108 112 111 106 104 74 58 68 84
3670.0 77 88 107 84 57 49 44 51 57 54
3710.0 81 111 109 86 62 69 55 46 60 75
3750.0 92 59 54 67 48 50 56 48 45 66
3790.0 86 72 46 38 47 71 75 61 76 80
3830.0 63 78 97 86 82
##END=
