##TITLE=p-Bromobenzoic acid hydrazide
##JCAMP-DX=4.24
##DATA TYPE=INFRARED SPECTRUM
##ORIGIN=EPA-IR VAPOR PHASE LIBRARY
##OWNER=SRD/NIST
Collection (C) 2018 copyright by the U.S. Secretary of Commerce
on behalf of the United States of America. All rights reserved.
##CAS REGISTRY NO=5933-32-4
##MOLFORM=C 7 H 7 Br N 2 O
##$NIST SOURCE=MSDC-IR
##STATE=gas
##XUNITS=1/CM
##YUNITS=ABSORBANCE
##XFACTOR=1.
##YFACTOR=0.001
##DELTAX=3.85796
##FIRSTX=551.7
##LASTX=4000.7
##FIRSTY=1.764
##MAXX=4000.7
##MINX=551.688
##MAXY=0.029784
##MINY=0
##NPOINTS=895
##XYDATA=(X++(Y..Y))
551.688 1.764 1.684 1.554 1.454 1.464 1.474 1.504 1.564 1.504 1.504
590.268 1.544 1.414 1.344 1.354 1.394 1.434 1.474 1.414 1.424 1.494
628.847 1.404 1.314 1.294 1.184 1.0811 1.1395 1.254 1.294 1.164 1.0715
667.427 1.1618 1.214 1.264 1.334 1.354 1.344 1.314 1.334 1.404 1.554
706.006 1.884 2.214 2.244 1.964 1.674 1.714 1.934 2.214 2.674 3.274
744.586 3.854 4.334 4.454 4.144 3.654 3.114 2.594 2.174 1.924 1.794
783.165 1.704 1.714 1.794 1.794 1.904 2.124 2.364 2.594 2.784 3.174
821.745 3.674 4.194 4.724 5.114 5.414 5.394 4.804 4.064 3.354 2.644
860.324 2.094 1.704 1.554 1.604 1.684 1.794 1.984 2.234 2.574 3.024
898.904 3.604 4.344 5.304 6.644 8.244 10.104 12.154 14.144 15.624 15.884
937.484 14.584 12.004 9.164 6.854 5.184 4.154 3.454 2.874 2.474 2.134
976.063 1.824 1.624 1.474 1.414 1.474 1.644 2.104 3.284 6.184 9.224
1014.643 9.654 7.084 3.294 1.544 1.174 0.8931 0.934 0.9848 0.9924 1.264
1053.222 1.794 2.454 3.804 6.144 8.514 9.604 8.564 6.104 4.094 2.644
1091.802 1.954 1.654 1.394 1.564 1.694 1.644 1.474 1.1518 0.8771 0.7481
1130.381 0.7116 0.7323 0.767 0.8045 0.8519 0.8376 0.8492 0.8634 0.8404 0.9949
1168.961 1.294 1.574 1.834 2.004 2.024 1.814 1.544 1.294 1.204 1.344
1207.540 1.524 1.764 1.974 2.074 2.114 2.104 2.104 2.254 2.554 2.964
1246.120 3.394 3.964 4.734 5.554 6.424 7.464 8.574 9.824 11.504 13.424
1284.699 14.684 14.154 11.584 8.134 5.554 4.154 3.364 2.834 2.454 2.194
1323.279 2.024 1.904 1.814 1.774 1.744 1.694 1.624 1.564 1.534 1.494
1361.859 1.474 1.464 1.504 1.574 1.674 1.844 2.044 2.264 2.454 2.674
1400.438 2.904 3.204 3.594 4.104 4.864 5.974 7.574 9.894 13.144 17.244
1439.018 21.554 24.644 25.484 23.904 20.994 17.804 15.164 13.094 11.514 10.314
1477.597 9.404 8.624 7.764 6.844 6.084 5.584 5.184 4.814 4.404 3.994
1516.177 3.604 3.264 2.954 2.604 2.344 2.154 1.994 1.884 1.824 1.894
1554.756 2.064 2.334 2.604 2.894 3.294 3.994 5.374 7.624 10.434 12.464
1593.336 12.294 9.894 6.884 4.994 4.414 4.504 4.904 5.464 6.184 6.894
1631.915 7.464 7.714 7.444 6.854 6.094 5.394 4.914 4.654 4.684 4.904
1670.495 5.374 6.164 7.424 9.394 12.414 16.464 21.624 26.914 29.784 29.544
1709.075 25.764 19.894 14.814 10.974 8.224 6.364 4.974 3.894 3.114 2.534
1747.654 2.124 1.764 1.514 1.374 1.284 1.224 1.1349 1.0853 1.0833 1.0639
1786.234 1.026 0.949 0.8301 0.7237 0.6458 0.5665 0.5341 0.4996 0.4843 0.4748
1824.813 0.4423 0.4211 0.3936 0.3601 0.3261 0.3097 0.3115 0.3103 0.2893 0.2835
1863.393 0.2769 0.2794 0.3064 0.3542 0.414 0.4482 0.4776 0.4996 0.5158 0.5174
1901.972 0.5116 0.5096 0.5094 0.4947 0.4839 0.4747 0.4372 0.4065 0.369 0.3177
1940.552 0.2732 0.23404 0.19974 0.19115 0.18932 0.16253 0.1331 0.1241 0.1353 0.1346
1979.131 0.093 0.0782 0.1027 0.1061 0.0978 0.0922 0.0861 0.0824 0.0835 0.075
2017.711 0.0907 0.1337 0.1513 0.1344 0.1194 0.1024 0.0729 0.059 0.06 0.051
2056.291 0.045 0.034 0.038 0.044 0.044 0.041 0.031 0.033 0.056 0.0888
2094.870 0.0923 0.056 0.013 0.025 0.056 0.049 0.037 0.023 0.018 0.039
2133.450 0.046 0.032 0.02 0.052 0.1019 0.0901 0.0871 0.0993 0.0753 0.061
2172.029 0.064 0.066 0.0702 0.062 0.056 0.0756 0.058 0.033 0.052 0.041
2210.609 0.032 0.056 0.068 0.063 0.044 0.042 0.042 0.058 0.051 0.04
2249.188 0.06 0.0724 0.083 0.0768 0.0642 0.059 0.057 0.059 0.0642 0.0767
2287.768 0.0897 0.0934 0.1037 0.1116 0.1023 0.107 0.1028 0.07 0.0673 0.07
2326.347 0.0785 0.126 0.1213 0.0943 0.1056 0.1122 0.12 0.1369 0.1241 0.0942
2364.927 0.0763 0.0706 0.054 0.052 0.0643 0.077 0.0996 0.1069 0.062 0.02
2403.507 0.036 0.038 0.042 0.0834 0.067 0.023 0.005 0 0.024 0.043
2442.086 0.04 0.009 0.018 0.05 0.046 0.056 0.053 0.056 0.063 0.038
2480.666 0.062 0.0726 0.031 0.008 0.039 0.0643 0.0685 0.1034 0.1221 0.1347
2519.245 0.17427 0.15797 0.18044 0.22907 0.22026 0.22198 0.24333 0.25178 0.2649 0.26255
2557.825 0.23474 0.23223 0.20328 0.17722 0.1768 0.1444 0.1482 0.17682 0.167279 0.152
2596.404 0.1435 0.1215 0.1106 0.1097 0.0759 0.0772 0.0723 0.051 0.063 0.0896
2634.984 0.1054 0.0938 0.0734 0.0718 0.0799 0.0765 0.0881 0.0869 0.061 0.049
2673.563 0.0707 0.0985 0.1147 0.1097 0.0908 0.1207 0.16124 0.128 0.127 0.1346
2712.143 0.1058 0.1187 0.1483 0.1292 0.1278 0.18437 0.169388 0.15422 0.1784 0.1498
2750.722 0.0978 0.1011 0.1174 0.106 0.103 0.1412 0.1331 0.1406 0.1372 0.1203
2789.302 0.164611 0.1313 0.1045 0.1197 0.112 0.1275 0.15874 0.18678 0.19982 0.17795
2827.882 0.21652 0.21695 0.1313 0.1297 0.1527 0.1301 0.1055 0.1088 0.1131 0.1224
2866.461 0.1328 0.1274 0.15576 0.20119 0.19503 0.152 0.16153 0.164362 0.0863 0.03
2905.041 0.0768 0.0982 0.1016 0.1392 0.14 0.1328 0.123 0.0861 0.0893 0.1414
2943.620 0.1454 0.1457 0.19952 0.19525 0.1493 0.15722 0.20384 0.20721 0.1523 0.1875
2982.200 0.18982 0.1497 0.1287 0.1347 0.1408 0.15638 0.20326 0.22511 0.20168 0.22072
3020.779 0.344 0.4558 0.5222 0.5569 0.627 0.7204 0.7605 0.7512 0.7768 0.8102
3059.359 0.8052 0.7483 0.6694 0.6308 0.6626 0.7456 0.8628 0.9226 0.9235 0.893
3097.938 0.7795 0.6044 0.4401 0.3451 0.3183 0.2707 0.22945 0.2752 0.3003 0.23806
3136.518 0.171886 0.22191 0.24928 0.23596 0.25355 0.20856 0.15798 0.1428 0.1899 0.18868
3175.098 0.24253 0.3252 0.3417 0.3906 0.3908 0.3787 0.3649 0.3889 0.4085 0.3978
3213.677 0.3855 0.3639 0.3629 0.3696 0.3433 0.3536 0.3329 0.24402 0.20277 0.2238
3252.257 0.25034 0.2886 0.3363 0.3442 0.3378 0.3034 0.2886 0.3123 0.3096 0.2912
3290.836 0.3352 0.3551 0.357 0.3793 0.3639 0.3729 0.4033 0.3825 0.365 0.415
3329.416 0.4887 0.4957 0.5266 0.6373 0.6932 0.6667 0.6366 0.6247 0.641 0.6458
3367.995 0.5783 0.5628 0.6324 0.6695 0.7339 0.7447 0.7073 0.6888 0.6421 0.625
3406.575 0.599 0.5793 0.5932 0.6744 0.7771 0.8713 0.9606 1.0373 1.1398 1.324
3445.154 1.624 1.984 2.324 2.774 3.264 3.694 4.084 4.324 4.204 3.744
3483.734 3.154 2.574 2.004 1.534 1.264 1.0333 0.805 0.6931 0.6099 0.5167
3522.314 0.4867 0.4743 0.4343 0.3942 0.3825 0.3725 0.3747 0.3501 0.25844 0.25225
3560.893 0.3038 0.3613 0.3854 0.3316 0.2912 0.2966 0.2806 0.2837 0.3817 0.4095
3599.473 0.3804 0.3457 0.3172 0.3036 0.2898 0.311 0.26072 0.24159 0.3248 0.3603
3638.052 0.3479 0.2983 0.282 0.3203 0.3039 0.2673 0.21047 0.18663 0.19322 0.23118
3676.632 0.3045 0.3245 0.2804 0.25096 0.23279 0.24373 0.2745 0.24469 0.2691 0.2863
3715.211 0.2749 0.3119 0.3259 0.2652 0.2689 0.3214 0.2649 0.2801 0.3185 0.3033
3753.791 0.3331 0.2939 0.24816 0.2712 0.24379 0.2681 0.26158 0.21725 0.3154 0.3438
3792.370 0.3071 0.3516 0.3311 0.2949 0.3582 0.344 0.2869 0.26213 0.25917 0.26183
3830.950 0.2842 0.3139 0.3178 0.3104 0.2857 0.2795 0.22528 0.20649 0.294 0.2785
3869.530 0.168118 0.173494 0.18938 0.1926 0.25879 0.25222 0.19785 0.21825 0.2674 0.23915
3908.109 0.17084 0.1495 0.20182 0.2966 0.3098 0.3181 0.3316 0.2493 0.19248 0.23716
3946.689 0.26151 0.2681 0.2885 0.23947 0.25835 0.2703 0.2644 0.274 0.3004 0.3277
3985.268 0.2849 0.3145 0.3235 0.2861 0.3294
##END=
