##TITLE=2,2,3,3-Tetramethylbutane
##JCAMP-DX=4.24
##DATA TYPE=INFRARED SPECTRUM
##ORIGIN=NIST Mass Spectrometry Data Center
##OWNER=NIST Standard Reference Data Program
Collection (C) 2018 copyright by the U.S. Secretary of Commerce
on behalf of the United States of America. All rights reserved.
##CAS REGISTRY NO=594-82-1
##MOLFORM=C 8 H 18
##$NIST SOURCE=MSDC-IR
##SPECTROMETER/DATA SYSTEM=HP-GC/MS/IRD
##STATE=gas
##XUNITS=1/CM
##YUNITS=ABSORBANCE
##XFACTOR=1.0
##YFACTOR=0.000005300
##DELTAX=4.0
##FIRSTX=550.0
##LASTX=3846.0
##FIRSTY=0.000111
##MAXX=3846
##MINX=550
##MAXY=0.053
##MINY=0
##NPOINTS=825
##XYDATA=(X++(Y..Y))
550.0 21 29 16 9 30 26 9 21 38 41
590.0 42 42 34 28 34 42 47 41 33 33
630.0 29 20 24 25 23 24 17 20 16 15
670.0 19 16 15 14 16 27 30 25 32 32
710.0 22 19 22 30 34 33 30 32 31 26
750.0 33 34 33 36 41 55 62 68 84 92
790.0 94 90 84 77 67 46 41 34 0 9
830.0 31 27 29 31 27 20 20 26 32 33
870.0 32 24 18 26 27 22 23 29 33 37
910.0 44 49 60 65 60 58 51 45 41 37
950.0 29 23 23 25 26 26 31 36 38 48
990.0 51 52 59 57 55 49 42 36 30 28
1030.0 24 19 25 23 16 18 18 20 22 17
1070.0 11 15 20 19 18 17 18 21 33 36
1110.0 27 28 37 47 59 67 83 105 131 172
1150.0 234 323 449 635 883 1168 1395 1439 1277 1001
1190.0 725 517 374 271 202 151 115 98 86 71
1230.0 60 53 52 50 50 45 47 46 43 43
1270.0 46 46 45 46 45 46 46 45 50 53
1310.0 56 58 59 61 70 82 93 112 148 216
1350.0 322 486 714 967 1241 1668 2069 2031 2000 1994
1390.0 1618 1238 934 622 405 288 229 196 187 195
1430.0 213 237 272 314 367 454 572 689 804 934
1470.0 1033 1052 1014 943 814 674 549 413 290 200
1510.0 145 113 93 83 70 59 59 63 56 43
1550.0 36 36 39 34 35 35 30 28 26 25
1590.0 22 23 26 27 26 25 27 31 29 25
1630.0 29 30 28 27 26 30 32 28 29 28
1670.0 25 24 25 27 22 25 27 23 26 27
1710.0 26 26 27 29 28 22 23 25 24 21
1750.0 18 18 21 22 19 19 21 21 19 19
1790.0 21 25 24 19 22 25 23 23 22 21
1830.0 21 17 15 17 15 14 15 16 15 14
1870.0 17 17 14 13 14 13 13 10 10 12
1910.0 11 10 7 7 9 10 11 12 10 8
1950.0 9 9 7 9 10 13 13 9 7 9
1990.0 10 8 11 12 12 12 19 22 24 27
2030.0 25 20 12 11 14 11 7 6 8 8
2070.0 6 6 4 3 4 3 1 2 3 4
2110.0 4 3 3 3 1 1 3 6 7 5
2150.0 5 6 8 7 6 7 8 6 1 0
2190.0 0 1 5 7 5 4 4 6 5 5
2230.0 5 4 2 5 9 10 8 6 6 8
2270.0 11 13 12 10 13 14 16 17 11 11
2310.0 13 12 14 9 11 16 17 16 14 12
2350.0 13 15 22 23 20 20 19 19 23 24
2390.0 25 25 22 22 22 21 19 19 20 20
2430.0 17 14 17 16 13 16 19 18 14 15
2470.0 17 20 22 23 25 24 21 18 20 23
2510.0 24 21 21 22 23 26 27 29 27 26
2550.0 28 31 34 34 36 39 39 40 42 44
2590.0 47 45 44 47 48 45 44 46 46 44
2630.0 46 52 52 50 48 45 48 51 49 52
2670.0 55 59 63 63 64 72 80 84 88 95
2710.0 105 114 120 132 136 131 127 126 120 110
2750.0 106 105 105 107 115 126 141 154 158 161
2790.0 164 161 157 161 173 184 192 202 216 236
2830.0 263 294 327 375 437 506 603 737 918 1158
2870.0 1445 1758 2063 2351 2565 2665 2719 2773 2835 2906
2910.0 2975 3037 3091 3132 3153 3195 3313 3543 3934 4515
2950.0 5270 6150 7171 8365 9487 9905 9945 10000 8756 6712
2990.0 5167 3815 2595 1704 1160 853 673 559 482 431
3030.0 389 353 320 288 264 239 217 204 186 164
3070.0 154 150 147 144 135 129 129 127 128 129
3110.0 132 135 135 134 132 134 133 127 129 135
3150.0 137 139 139 139 139 136 135 136 135 135
3190.0 139 138 136 133 130 128 129 128 122 116
3230.0 111 105 101 92 84 79 72 65 60 57
3270.0 56 46 42 42 36 37 43 36 42 48
3310.0 42 44 37 35 37 43 51 48 43 44
3350.0 43 40 41 40 41 43 42 38 33 32
3390.0 38 36 29 31 37 35 28 28 25 29
3430.0 25 24 36 37 38 44 45 39 29 23
3470.0 21 20 24 21 15 17 18 16 10 11
3510.0 13 13 16 12 9 8 8 9 8 8
3550.0 14 12 14 14 7 13 14 4 3 7
3590.0 9 12 11 13 12 9 13 12 9 7
3630.0 6 16 17 17 22 12 4 5 9 15
3670.0 16 19 21 16 15 15 16 23 20 15
3710.0 14 14 13 15 16 12 13 8 12 19
3750.0 21 25 24 12 9 19 19 14 21 26
3790.0 29 30 28 30 33 30 32 30 27 24
3830.0 21 29 29 26 25
##END=
