##TITLE=1-Methoxy-3-(trimethylsilyloxy)-1,3-butadiene
##JCAMP-DX=4.24
##DATA TYPE=INFRARED SPECTRUM
##ORIGIN=EPA-IR VAPOR PHASE LIBRARY
##OWNER=SRD/NIST
Collection (C) 2018 copyright by the U.S. Secretary of Commerce
on behalf of the United States of America. All rights reserved.
##CAS REGISTRY NO=59414-23-2
##MOLFORM=C 8 H 16 O 2 Si
##$NIST SOURCE=MSDC-IR
##STATE=gas
##XUNITS=1/CM
##YUNITS=ABSORBANCE
##XFACTOR=1.
##YFACTOR=0.001
##DELTAX=1.92898
##FIRSTX=549.8
##LASTX=4000.7
##FIRSTY=2.682
##MAXX=4000.7
##MINX=549.759
##MAXY=0.271712
##MINY=0
##NPOINTS=1790
##XYDATA=(X++(Y..Y))
549.759 2.682 2.352 2.652 3.282 3.512 3.542 3.542 3.752 3.612 4.112
569.049 4.692 5.252 6.182 6.212 6.702 7.572 7.782 7.852 7.912 8.232
588.339 8.162 8.062 8.412 8.822 9.392 9.842 10.382 11.002 11.702 12.412
607.628 13.492 14.772 16.312 17.792 18.532 19.112 19.292 18.882 18.952 19.442
626.918 19.192 18.362 18.142 18.002 17.592 17.152 15.982 14.942 14.242 13.192
646.208 12.032 11.072 10.442 10.002 9.482 9.112 9.162 9.472 9.682 9.782
665.498 10.332 11.262 12.202 13.172 14.442 15.882 17.192 18.522 19.992 21.322
684.787 22.672 23.742 24.182 24.662 25.042 25.012 25.032 24.922 24.952 24.792
704.077 24.182 23.842 23.802 23.862 23.822 23.762 23.842 23.832 23.442 23.552
723.367 23.912 24.162 24.262 24.592 24.992 24.982 25.262 25.652 26.292 27.002
742.657 28.012 29.132 30.102 31.242 32.892 34.572 35.542 36.492 37.552 38.362
761.947 38.622 38.712 38.782 38.352 37.992 37.222 35.892 34.952 34.252 33.442
781.236 32.472 31.912 31.342 30.782 30.812 31.472 32.442 33.432 34.852 36.512
800.526 38.612 41.202 43.922 46.712 49.822 53.172 56.862 60.702 64.952 69.822
819.816 75.022 81.102 88.392 96.232 105.092 115.762 128.102 142.562 158.132 174.752
839.106 192.482 210.182 227.802 243.892 256.822 266.622 271.582 271.712 267.302 257.702
858.395 244.222 228.072 209.962 191.302 172.872 155.232 139.602 125.882 113.912 104.002
877.685 95.872 88.842 82.262 76.372 71.412 66.652 62.632 59.212 55.512 52.672
896.975 50.222 48.312 47.352 46.932 46.952 47.552 48.782 50.012 51.552 53.222
916.265 54.312 54.422 54.132 53.992 54.312 55.372 56.932 59.272 61.712 63.632
935.555 65.432 66.012 65.352 64.132 62.252 59.292 55.832 52.272 48.842 45.782
954.844 43.002 40.532 38.092 35.952 34.162 32.732 31.582 30.152 28.732 28.072
974.134 27.132 26.522 26.612 27.252 28.172 29.232 31.662 34.552 37.542 40.952
993.424 44.442 47.372 50.292 53.592 56.962 60.872 65.232 70.472 78.682 91.172
1012.714 107.902 128.922 154.782 183.122 211.692 237.702 256.362 266.612 267.912 259.742
1032.003 242.532 218.392 189.852 160.362 133.702 111.092 91.872 76.232 63.302 53.772
1051.293 46.932 40.712 35.832 32.102 29.702 27.452 25.222 23.722 22.462 21.462
1070.583 20.312 20.032 20.342 20.122 19.912 20.592 20.882 20.962 21.642 21.682
1089.873 22.082 23.292 25.182 26.952 28.362 30.172 33.212 36.242 38.762 42.072
1109.163 45.572 48.212 50.862 55.182 60.132 63.822 68.522 75.052 82.482 90.852
1128.452 98.632 105.832 111.372 114.142 115.332 116.002 114.722 111.802 108.582 105.852
1147.742 104.582 104.452 106.482 109.512 112.272 115.002 115.962 114.712 110.462 105.412
1167.032 98.712 91.492 85.552 78.502 72.802 68.432 66.512 66.692 68.222 72.382
1186.322 77.462 82.952 89.412 96.662 103.832 112.422 121.922 131.332 141.942 153.232
1205.611 166.882 183.072 195.462 204.882 210.742 208.952 202.542 191.492 175.952 156.322
1224.901 135.552 118.482 105.642 95.972 89.102 85.122 83.702 84.382 87.312 92.102
1244.191 98.542 106.512 114.542 122.502 129.562 135.472 140.682 143.582 144.102 142.292
1263.481 138.232 132.472 124.782 116.322 107.432 97.992 89.122 81.262 75.192 71.192
1282.771 68.792 67.962 68.712 70.762 73.802 77.942 83.602 90.632 98.892 108.702
1302.060 119.912 132.672 146.532 160.492 173.662 185.422 195.142 201.892 204.942 202.992
1321.350 195.662 184.482 171.422 156.932 140.782 123.722 106.842 91.812 79.262 68.432
1340.640 58.522 49.672 42.402 36.682 32.312 28.942 26.232 24.142 22.552 21.412
1359.930 20.542 19.952 19.532 19.072 18.892 18.822 18.732 18.722 18.802 18.882
1379.219 18.912 18.932 18.962 18.892 18.772 18.682 18.502 18.382 18.402 18.372
1398.509 18.272 18.192 18.312 18.482 18.602 18.602 18.542 18.522 18.292 18.032
1417.799 17.932 17.832 17.582 17.132 16.982 16.962 16.972 17.212 17.602 18.162
1437.089 18.732 19.452 20.292 20.982 21.612 22.232 22.722 23.082 23.442 23.712
1456.378 24.042 24.482 24.702 24.762 24.632 24.282 23.642 22.702 21.562 20.202
1475.668 18.742 17.292 15.842 14.512 13.292 12.182 11.352 10.792 10.322 9.882
1494.958 9.572 9.252 8.892 8.642 8.622 8.652 8.392 8.362 8.582 8.742
1514.248 8.772 8.842 9.002 8.922 9.012 9.292 9.312 9.372 9.492 9.392
1533.538 9.422 9.562 9.772 10.022 10.272 10.622 11.072 11.662 12.162 12.732
1552.827 13.512 14.482 15.642 16.952 18.322 20.002 22.112 24.292 26.682 29.482
1572.117 32.522 35.632 38.752 41.842 44.952 48.022 50.612 52.552 54.012 54.912
1591.407 55.142 54.992 54.642 54.092 53.442 52.992 52.752 52.992 53.712 54.822
1610.697 56.482 58.392 60.482 63.352 66.832 70.522 74.762 79.802 85.642 92.602
1629.986 100.452 108.912 117.782 126.702 134.682 141.492 147.022 151.072 153.812 155.222
1649.276 155.182 153.922 151.842 149.052 144.852 138.632 130.352 119.902 107.632 94.712
1668.566 81.622 68.882 57.292 46.952 38.182 31.212 25.852 21.852 18.632 16.202
1687.856 14.552 13.312 12.402 11.722 11.072 10.522 10.102 9.702 9.422 9.162
1707.146 8.962 8.762 8.572 8.422 8.192 8.122 8.072 7.962 7.922 7.932
1726.435 8.022 8.102 8.212 8.342 8.512 8.722 8.882 9.072 9.252 9.342
1745.725 9.352 9.282 8.972 8.612 8.362 8.032 7.682 7.322 6.992 6.542
1765.015 6.092 5.752 5.402 5.082 4.882 4.652 4.392 4.162 3.932 3.742
1784.305 3.552 3.572 3.602 3.572 3.612 3.522 3.442 3.402 3.462 3.632
1803.594 3.582 3.482 3.502 3.672 3.732 3.682 3.742 3.842 3.952 4.022
1822.884 4.042 3.992 3.912 3.862 3.812 3.792 3.732 3.642 3.522 3.442
1842.174 3.432 3.452 3.532 3.592 3.652 3.742 3.772 3.762 3.752 3.792
1861.464 3.892 3.872 3.812 3.762 3.602 3.642 3.642 3.392 3.312 3.322
1880.754 3.252 3.262 3.282 3.172 3.092 3.022 2.932 2.892 2.812 2.732
1900.043 2.652 2.542 2.492 2.592 2.572 2.472 2.552 2.612 2.542 2.542
1919.333 2.452 2.402 2.592 2.662 2.732 2.822 2.882 2.912 2.952 3.002
1938.623 2.852 2.892 2.952 2.862 2.792 2.762 2.732 2.672 2.752 2.722
1957.913 2.632 2.702 2.652 2.572 2.572 2.552 2.472 2.382 2.392 2.402
1977.202 2.382 2.452 2.412 2.372 2.352 2.372 2.372 2.282 2.262 2.222
1996.492 2.152 2.242 2.362 2.362 2.352 2.292 2.292 2.362 2.422 2.462
2015.782 2.432 2.432 2.552 2.612 2.582 2.682 2.762 2.712 2.742 2.742
2035.072 2.682 2.832 2.832 2.782 2.892 2.922 2.802 2.702 2.732 2.682
2054.362 2.512 2.542 2.602 2.452 2.382 2.362 2.322 2.402 2.412 2.412
2073.651 2.502 2.642 2.772 2.852 2.962 3.012 3.012 3.152 3.292 3.392
2092.941 3.502 3.452 3.492 3.712 3.802 3.912 3.962 4.022 4.112 4.112
2112.231 4.142 4.052 3.932 3.882 3.802 3.782 3.732 3.742 3.782 3.722
2131.521 3.742 3.732 3.722 3.622 3.572 3.632 3.622 3.622 3.612 3.612
2150.810 3.622 3.572 3.572 3.612 3.382 3.202 3.132 2.952 2.752 2.752
2170.100 2.722 2.532 2.462 2.442 2.382 2.242 2.152 2.172 2.152 2.072
2189.390 2.092 2.142 2.162 2.152 2.162 2.102 2.102 2.152 2.112 2.132
2208.680 2.162 2.192 2.132 2.102 2.222 2.202 2.172 2.022 1.852 1.782
2227.970 1.742 1.672 1.552 1.552 1.622 1.702 1.642 1.592 1.712 1.812
2247.259 1.862 1.932 1.972 1.852 1.862 1.962 1.892 1.992 1.982 1.882
2266.549 1.902 1.942 1.932 1.892 1.862 1.762 1.802 1.832 1.812 1.762
2285.839 1.632 1.572 1.532 1.492 1.362 1.312 1.392 1.472 1.422 1.542
2305.129 1.612 1.562 1.572 1.662 1.802 1.762 1.612 1.752 1.972 1.912
2324.418 1.952 2.062 2.042 1.962 1.922 2.012 1.982 1.792 1.862 2.052
2343.708 2.022 2.032 2.152 2.022 1.872 1.792 1.772 1.672 1.582 1.652
2362.998 1.552 1.502 1.502 1.462 1.502 1.482 1.402 1.442 1.392 1.352
2382.288 1.372 1.362 1.282 1.2379 1.402 1.312 1.0798 1.1666 1.2303 1.1267
2401.578 1.1114 1.2169 1.342 1.282 1.302 1.452 1.542 1.542 1.532 1.602
2420.867 1.652 1.742 1.832 1.792 1.762 1.712 1.662 1.682 1.662 1.552
2440.157 1.392 1.282 1.242 1.1938 1.2291 1.1215 1.0184 1.2206 1.282 1.1727
2459.447 1.194 1.1773 1.1088 1.1978 1.352 1.272 1.262 1.322 1.2276 1.252
2478.737 1.262 1.1664 1.0572 1.0694 1.0108 1.0374 1.1838 1.1265 1.0642 1.1338
2498.026 1.0662 1.0846 1.1944 1.0943 1.0563 1.0471 1.1378 1.1109 1.0467 1.1129
2517.316 1.0942 1.1025 1.0665 1.0064 1.1273 1.0873 0.9012 0.9443 1.0045 1.0363
2536.606 1.0241 0.8385 0.7011 0.8588 0.9026 0.9921 1.1263 1.0392 0.8817 0.9056
2555.896 0.9452 0.9255 1.0509 1.0585 0.8294 0.751 0.8832 0.9434 0.9844 1.0296
2575.186 1.1128 1.1681 1.1269 1.1448 1.2055 1.282 1.452 1.612 1.672 1.612
2594.475 1.512 1.482 1.562 1.602 1.662 1.702 1.732 1.622 1.582 1.712
2613.765 1.792 1.782 1.782 1.682 1.442 1.532 1.702 1.682 1.522 1.492
2633.055 1.492 1.442 1.542 1.622 1.642 1.492 1.472 1.492 1.1943 1.1377
2652.345 1.272 1.342 1.412 1.332 1.292 1.2082 1.1176 1.272 1.252 1.1729
2671.634 1.1405 1.0805 1.1728 1.1669 1.0722 1.071 1.0647 0.9446 0.9638 1.0698
2690.924 1.1259 1.139 1.0103 1.0061 1.1913 1.302 1.1114 1.1114 1.1185 1.0209
2710.214 1.2124 1.272 1.282 1.272 1.1086 1.0185 1.1098 1.2171 1.1441 1.1566
2729.504 1.2252 1.1782 1.292 1.412 1.532 1.532 1.482 1.612 1.522 1.402
2748.794 1.572 1.872 1.982 2.012 2.052 2.042 2.242 2.362 2.512 2.692
2768.083 2.692 2.902 3.122 3.152 3.312 3.542 3.822 4.062 4.212 4.502
2787.373 4.862 5.032 5.102 5.492 5.692 5.702 5.972 6.182 6.332 6.652
2806.663 7.022 7.362 7.672 8.112 8.602 9.052 9.562 10.482 11.582 12.722
2825.953 14.212 16.062 18.382 20.892 23.422 25.692 27.492 28.502 28.852 28.612
2845.242 27.562 25.752 23.462 21.332 19.312 17.332 15.822 14.902 14.372 14.132
2864.532 13.892 13.812 13.862 13.902 14.132 14.482 14.772 15.232 15.932 16.392
2883.822 17.062 17.762 18.702 20.082 21.252 22.742 24.602 26.272 28.042 29.842
2903.112 31.252 32.512 33.622 34.382 34.712 34.542 34.012 33.322 32.702 31.982
2922.401 31.702 31.972 32.462 33.542 35.112 37.552 40.672 43.912 46.772 49.442
2941.691 52.122 54.322 56.132 57.702 59.312 61.542 64.712 68.482 72.312 75.812
2960.981 78.422 79.682 79.272 77.332 73.882 68.892 63.112 57.042 51.152 45.752
2980.271 40.972 36.812 33.312 30.592 28.172 26.252 24.922 24.282 24.402 24.842
2999.561 25.652 27.172 28.962 30.582 31.782 32.182 31.902 30.812 29.062 26.972
3018.850 24.342 21.592 19.162 17.302 16.292 15.582 15.102 14.742 14.452 14.302
3038.140 14.052 14.002 14.012 13.862 13.912 14.162 14.622 14.972 15.282 15.782
3057.430 15.952 16.192 16.362 16.082 15.752 15.352 14.912 14.552 13.972 13.402
3076.720 13.102 12.772 12.572 12.622 12.452 12.022 11.492 11.122 10.702 10.242
3096.009 9.852 9.522 9.362 9.302 9.292 9.342 9.962 10.882 11.932 13.342
3115.299 15.112 16.752 17.442 17.192 16.692 15.712 14.002 12.002 9.652 7.472
3134.589 5.982 4.982 4.302 3.602 3.332 3.172 2.902 2.722 2.572 2.712
3153.879 2.672 2.472 2.602 2.662 2.382 2.292 2.342 2.242 1.982 1.982
3173.169 1.882 1.722 1.802 1.762 1.672 1.692 1.512 1.262 1.332 1.442
3192.458 1.382 1.372 1.322 1.1872 1.412 1.442 1.332 1.432 1.322 1.1616
3211.748 1.372 1.472 1.332 1.272 1.352 1.292 1.1408 1.1022 0.9771 0.9363
3231.038 1.0066 1.1474 1.292 1.312 1.2408 1.1292 1.1387 1.292 1.126 1.0864
3250.328 1.1108 0.7784 0.8064 1.0815 1.0169 0.8415 0.8295 0.8241 0.9534 1.0158
3269.617 0.8961 0.7402 0.5399 0.6779 0.9122 0.8688 0.8971 0.8745 0.9172 0.9474
3288.907 0.7337 0.7112 0.5914 0.6512 0.9479 0.8984 0.8025 0.8901 0.6575 0.6
3308.197 0.8623 0.8272 0.8687 0.764 0.6298 0.8578 1.0385 0.9231 0.5543 0.3461
3327.487 0.2292 0.5334 0.7465 0.5563 0.552 0.6303 0.6185 0.487 0.4836 0.4423
3346.777 0.5506 0.6191 0.6589 0.4584 0.23722 0.25977 0.4918 0.6687 0.5618 0.795
3366.066 0.798 0.6076 0.7249 0.7372 0.5861 0.6478 0.6521 0.6573 0.6522 0.4001
3385.356 0.26858 0.1657 0 0.25644 0.5054 0.6514 0.8631 0.6664 0.5302 0.5292
3404.646 0.6329 0.901 0.8395 0.511 0.3766 0.31988 0.31954 0.473 0.5485 0.5025
3423.936 0.5979 0.7015 0.6084 0.4879 0.5212 0.5613 0.5628 0.5473 0.6367 0.5989
3443.225 0.3928 0.33845 0.32543 0.4437 0.3545 0.28496 0.4614 0.4734 0.3837 0.4458
3462.515 0.5369 0.5621 0.5795 0.5439 0.5685 0.5314 0.4403 0.4496 0.6368 0.6298
3481.805 0.4388 0.4994 0.6124 0.3939 0.4092 0.5762 0.5659 0.4691 0.3648 0.6586
3501.095 0.6898 0.6064 0.708 0.4473 0.358 0.5806 0.5512 0.444 0.32337 0.4726
3520.385 0.7059 0.696 0.5748 0.33684 0.26484 0.5736 0.8706 0.883 0.9432 0.9567
3539.674 0.9427 0.8231 0.5305 0.5248 0.6917 0.8782 1.0041 0.9067 0.8417 0.8404
3558.964 0.9562 0.8569 0.7233 0.7708 0.71 0.7919 0.8584 0.5731 0.6208 0.9847
3578.254 1.262 1.252 1.0167 0.8912 0.7774 1.0725 0.962 0.5687 0.4673 0.7177
3597.544 1.242 1.2217 1.0184 1.1419 1.0912 0.9637 1.0947 1.0965 0.9365 0.8522
3616.833 0.8378 0.9419 1.0976 1.1022 1.1015 0.975 0.7521 0.8348 1.0311 1.1351
3636.123 1.312 1.2339 1.1391 1.332 1.402 1.1679 1.0789 1.1214 1.133 1.1615
3655.413 1.2042 1.1906 1.1938 1.1462 1.2407 1.252 1.2224 1.322 1.1265 1.372
3674.703 1.442 1.252 1.2359 1.0856 1.1352 1.262 1.352 1.1513 0.9012 1.0241
3693.993 1.0995 1.0835 1.0518 0.9462 1.1459 1.1246 1.181 1.262 1.0422 1.1051
3713.282 1.152 1.1013 1.332 1.442 1.462 1.542 1.292 1.362 1.422 1.2243
3732.572 1.382 1.632 1.722 1.502 1.392 1.632 1.712 1.882 1.822 1.452
3751.862 1.522 1.652 1.452 1.362 1.492 1.482 1.642 1.702 1.342 1.342
3771.152 1.452 1.372 1.382 1.282 1.1314 1.0292 0.9896 0.978 0.9631 1.1088
3790.441 1.1886 1.1935 1.362 1.302 1.2053 1.2369 1.302 1.302 1.1572 1.352
3809.731 1.362 1.2193 1.1625 1.0363 1.0024 1.2172 1.292 0.9415 0.8687 1.1129
3829.021 1.1268 0.9369 0.7881 0.664 0.637 0.9106 1.1484 1.0099 0.7557 0.6023
3848.311 0.4751 0.4803 0.6418 0.7219 0.7669 0.6956 0.5027 0.5192 0.7824 0.8335
3867.601 0.7519 0.7556 0.731 0.7677 0.9433 0.7441 0.4591 0.6804 0.7591 0.6555
3886.890 0.7513 0.8296 0.813 0.8953 0.9834 0.579 0.488 0.8259 0.9187 0.7669
3906.180 0.7139 0.8674 0.8492 0.7756 0.553 0.4919 0.6721 0.6244 0.5938 0.6559
3925.470 0.6975 0.6885 0.7965 0.7214 0.5643 0.5853 0.5104 0.7397 0.876 0.7258
3944.760 0.5 0.5184 0.725 0.7303 0.7719 0.8266 0.565 0.4244 0.5357 0.5166
3964.049 0.4802 0.6111 0.8366 1.0194 0.997 0.8126 0.8086 0.8576 0.7041 0.9268
3983.339 1.292 1.292 1.1497 0.9748 0.806 0.4458 0.72 0.9522 1.0086 1.1276
##END=
