##TITLE=Methyl trityl ether
##JCAMP-DX=4.24
##DATA TYPE=INFRARED SPECTRUM
##ORIGIN=EPA-IR VAPOR PHASE LIBRARY
##OWNER=SRD/NIST
Collection (C) 2018 copyright by the U.S. Secretary of Commerce
on behalf of the United States of America. All rights reserved.
##CAS REGISTRY NO=596-31-6
##MOLFORM=C 20 H 18 O
##$NIST SOURCE=MSDC-IR
##STATE=gas
##XUNITS=1/CM
##YUNITS=ABSORBANCE
##XFACTOR=1.
##YFACTOR=0.001
##DELTAX=1.92898
##FIRSTX=549.8
##LASTX=4000.7
##FIRSTY=0.5131
##MAXX=4000.7
##MINX=549.759
##MAXY=0.078507
##MINY=0
##NPOINTS=1790
##XYDATA=(X++(Y..Y))
549.759 0.5131 0.6023 0.8785 1.0557 0.9745 1.2056 1.517 1.607 1.817 1.927
569.049 1.747 1.767 2.097 1.937 1.407 1.437 1.377 1.1681 1.1568 1.0953
588.339 1.0224 0.8662 0.8647 1.1271 1.1521 1.0925 1.0979 1.0762 1.1788 1.407
607.628 1.617 1.777 2.137 2.577 2.997 3.407 3.807 4.227 5.067 7.137
626.918 10.897 15.097 18.747 21.707 22.357 21.267 19.167 16.597 15.077 14.417
646.208 13.767 12.177 10.087 7.917 6.087 4.957 4.397 4.527 4.857 5.237
665.498 5.777 6.297 6.857 7.517 8.397 9.317 10.037 10.697 11.727 13.487
684.787 15.867 18.867 23.247 29.167 36.617 45.687 55.617 65.377 73.527 78.507
704.077 77.497 70.807 61.267 50.177 39.207 30.107 23.257 18.247 14.877 12.517
723.367 10.887 9.947 9.387 9.147 9.657 11.387 14.327 18.507 22.887 26.087
742.657 28.027 28.577 28.297 28.277 28.977 30.617 33.047 35.367 35.557 33.607
761.947 31.407 28.967 26.357 23.797 20.347 16.467 12.877 9.527 6.897 5.167
781.236 4.257 3.527 3.127 2.997 2.707 2.597 2.427 2.177 2.147 2.007
800.526 1.847 1.727 1.797 1.827 1.627 1.757 1.677 1.507 1.527 1.537
819.816 1.577 1.597 1.527 1.607 1.697 1.687 1.697 1.607 1.507 1.517
839.106 1.677 1.817 1.717 1.597 1.717 1.887 2.057 2.007 1.887 1.857
858.395 1.877 2.067 2.297 2.487 2.347 2.337 2.457 2.357 2.627 2.967
877.685 3.107 3.217 3.467 3.937 4.737 6.047 7.567 9.317 11.137 12.417
896.975 13.087 12.997 11.887 10.287 8.587 7.117 6.077 5.487 5.277 5.197
916.265 5.447 5.967 6.297 6.327 6.627 6.807 6.587 6.467 6.257 6.017
935.555 6.107 6.207 6.207 6.477 6.727 6.947 7.247 7.657 8.247 8.867
954.844 9.637 10.237 10.507 10.637 10.397 9.527 8.337 7.007 5.877 4.987
974.134 4.157 3.637 3.397 3.167 2.907 2.717 2.717 2.717 2.797 3.177
993.424 3.517 3.867 4.497 5.087 5.427 5.197 4.777 4.527 4.157 3.717
1012.714 3.527 3.837 4.467 5.087 5.737 6.987 8.387 9.927 11.817 13.747
1032.003 15.337 15.407 14.317 12.977 11.117 9.317 8.257 7.657 7.507 7.637
1051.293 7.907 8.677 9.777 11.427 13.467 15.627 18.797 22.707 27.147 32.177
1070.583 37.567 43.077 48.007 52.037 53.917 53.937 53.777 53.167 51.207 48.167
1089.873 44.207 38.847 33.057 27.437 22.317 17.947 14.797 13.027 11.317 9.767
1109.163 8.657 7.597 6.587 6.027 5.797 5.607 5.067 4.547 4.687 4.687
1128.452 4.457 4.627 4.877 4.707 4.617 5.387 6.117 6.457 7.617 8.867
1147.742 9.677 10.377 10.937 11.327 11.347 11.327 11.427 11.457 11.787 12.297
1167.032 12.767 13.447 14.417 15.037 15.617 16.297 16.677 17.017 17.187 16.847
1186.322 16.327 15.747 14.897 13.967 12.907 12.757 13.197 13.157 13.077 13.487
1205.611 14.127 14.237 14.487 14.977 15.067 15.097 14.937 14.697 14.747 14.187
1224.901 13.237 12.107 10.637 9.377 8.147 7.167 6.157 5.417 4.957 4.307
1244.191 3.917 3.797 3.667 3.487 3.357 3.197 3.277 3.397 3.427 3.287
1263.481 3.117 3.227 3.217 3.077 2.947 2.927 2.877 2.757 2.647 2.497
1282.771 2.417 2.287 2.077 2.017 2.077 2.197 2.177 2.187 2.347 2.477
1302.060 2.677 2.867 2.997 3.127 3.277 3.367 3.447 3.517 3.467 3.437
1321.350 3.447 3.317 3.137 2.937 2.687 2.457 2.277 2.057 1.767 1.497
1340.640 1.407 1.377 1.367 1.397 1.397 1.3364 1.2478 1.1783 1.1495 1.152
1359.930 1.1734 1.1925 1.2579 1.377 1.427 1.487 1.567 1.617 1.717 1.777
1379.219 1.827 1.907 1.957 1.977 1.877 1.897 1.937 1.837 1.717 1.747
1398.509 1.757 1.747 1.757 1.707 1.757 1.857 1.947 2.087 2.247 2.317
1417.799 2.387 2.647 3.037 3.357 3.717 4.077 4.547 5.267 6.207 7.377
1437.089 9.137 11.507 14.127 16.817 19.147 20.667 21.157 19.977 17.387 14.707
1456.378 12.157 10.217 9.237 8.647 8.367 8.407 8.627 8.877 9.107 9.457
1475.668 9.997 11.027 12.547 14.467 16.907 19.567 21.977 23.577 24.047 23.177
1494.958 20.897 17.707 14.447 11.517 9.067 7.187 5.767 4.807 4.197 3.737
1514.248 3.337 2.927 2.587 2.207 2.077 2.097 2.017 2.027 1.997 1.957
1533.538 1.897 1.927 1.957 1.977 2.037 1.987 2.037 2.177 2.107 2.027
1552.827 1.957 1.837 1.807 1.647 1.707 1.837 1.807 1.867 1.957 2.087
1572.117 2.287 2.507 2.747 3.177 3.657 4.147 4.777 5.427 6.137 6.957
1591.407 7.767 8.387 8.887 9.187 9.067 8.507 7.677 6.737 5.747 4.867
1610.697 4.087 3.427 2.957 2.587 2.397 2.217 1.977 1.797 1.707 1.537
1629.986 1.457 1.547 1.497 1.407 1.357 1.367 1.457 1.367 1.256 1.3002
1649.276 1.367 1.2186 1.0871 1.2939 1.387 1.357 1.367 1.357 1.357 1.3035
1668.566 1.3113 1.357 1.3433 1.3169 1.347 1.417 1.407 1.3078 1.2402 1.2879
1687.856 1.2403 1.2633 1.2902 1.137 0.9933 1.0381 0.9831 0.9663 1.0693 1.0676
1707.146 1.069 1.0725 1.0582 0.9854 0.9288 0.8256 0.8156 0.9402 0.9542 0.9768
1726.435 1.0801 1.0522 1.0038 0.9432 0.9145 1.0772 1.1178 1.0926 1.0813 1.077
1745.725 1.1174 1.0862 1.0151 0.9985 1.0882 1.0878 1.0812 1.1846 1.2554 1.357
1765.015 1.497 1.427 1.447 1.617 1.717 1.847 1.897 1.907 1.867 1.827
1784.305 1.817 1.907 2.057 2.177 2.397 2.737 3.027 3.287 3.507 3.707
1803.594 3.987 4.147 4.147 4.147 4.127 4.007 3.757 3.397 3.077 2.827
1822.884 2.477 2.127 1.947 1.767 1.537 1.417 1.347 1.2536 1.2141 1.2508
1842.174 1.1676 1.1305 1.1508 1.1735 1.2875 1.367 1.437 1.507 1.557 1.687
1861.464 1.817 1.907 1.977 2.037 2.107 2.147 2.217 2.257 2.267 2.217
1880.754 2.227 2.287 2.257 2.197 2.117 2.067 2.077 2.087 2.127 2.097
1900.043 2.037 2.027 2.037 2.007 1.887 1.767 1.707 1.647 1.617 1.627
1919.333 1.677 1.647 1.677 1.737 1.697 1.747 1.897 2.047 2.217 2.527
1938.623 2.857 3.167 3.477 3.757 4.047 4.217 4.267 4.307 4.217 3.997
1957.913 3.797 3.537 3.177 2.777 2.357 1.957 1.657 1.387 1.2313 1.1781
1977.202 1.1373 1.1055 1.0299 0.9565 0.9396 0.9198 0.8887 0.8129 0.7656 0.8442
1996.492 0.8814 0.8704 0.8708 0.8299 0.8496 0.8581 0.8153 0.8197 0.8669 0.927
2015.782 0.9226 0.8668 0.8039 0.8257 0.9056 0.8903 0.908 0.9244 0.9176 0.9779
2035.072 1.0211 1.0639 1.0169 0.9242 0.9165 0.9363 0.9049 0.8739 0.8664 0.8475
2054.362 0.7847 0.6984 0.7108 0.6927 0.6608 0.6423 0.6062 0.5822 0.5922 0.5642
2073.651 0.4841 0.4776 0.4809 0.4798 0.4688 0.5083 0.5018 0.4788 0.4849 0.5068
2092.941 0.5831 0.5273 0.4981 0.5358 0.5551 0.6124 0.6372 0.618 0.5725 0.555
2112.231 0.5904 0.6313 0.6001 0.6218 0.6929 0.6644 0.6389 0.6103 0.6008 0.6587
2131.521 0.6699 0.6765 0.6753 0.6493 0.6886 0.678 0.6998 0.7004 0.6355 0.6949
2150.810 0.7611 0.7928 0.7874 0.7749 0.7584 0.7232 0.7306 0.6857 0.6048 0.557
2170.100 0.526 0.5356 0.5628 0.5766 0.5641 0.6052 0.6104 0.5685 0.5471 0.5694
2189.390 0.6194 0.576 0.469 0.43515 0.4877 0.5018 0.5208 0.5016 0.4537 0.4538
2208.680 0.41512 0.40878 0.40477 0.41267 0.4656 0.43234 0.4148 0.43866 0.4099 0.44081
2227.970 0.5397 0.5211 0.4968 0.5645 0.548 0.4911 0.41365 0.4089 0.4836 0.4828
2247.259 0.463 0.4876 0.4613 0.42569 0.43901 0.4598 0.4929 0.42556 0.37258 0.37868
2266.549 0.36378 0.33918 0.351968 0.4131 0.39889 0.352464 0.37842 0.44446 0.48 0.4566
2285.839 0.37258 0.352931 0.44576 0.48 0.44009 0.44189 0.4645 0.4813 0.4721 0.508
2305.129 0.6169 0.6952 0.7908 0.8823 0.9355 1.03 1.0027 0.9476 0.8627 0.7272
2324.418 0.6668 0.6355 0.6269 0.5536 0.4899 0.5264 0.6411 0.6741 0.5893 0.6118
2343.708 0.7045 0.6901 0.6678 0.6549 0.5997 0.6322 0.6571 0.579 0.5118 0.4959
2362.998 0.5039 0.4681 0.5092 0.5816 0.5995 0.5397 0.547 0.5256 0.4736 0.4828
2382.288 0.4715 0.5332 0.5284 0.43104 0.41564 0.42864 0.4648 0.4982 0.4369 0.4234
2401.578 0.4795 0.4708 0.43694 0.42906 0.4506 0.4545 0.43615 0.4597 0.44302 0.4524
2420.867 0.5444 0.5575 0.4648 0.4606 0.4937 0.4809 0.43829 0.461 0.5724 0.5136
2440.157 0.39352 0.40579 0.4562 0.4603 0.4208 0.39929 0.36519 0.37481 0.4013 0.39962
2459.447 0.41952 0.36628 0.37319 0.42847 0.36891 0.3308 0.37664 0.4498 0.4801 0.4625
2478.737 0.449 0.43755 0.41792 0.40841 0.40716 0.42855 0.38073 0.331 0.3027 0.335
2498.026 0.353043 0.2647 0.26 0.347453 0.38598 0.3168 0.38427 0.4764 0.4513 0.39793
2517.316 0.43489 0.4846 0.4587 0.4875 0.5298 0.4893 0.4356 0.4529 0.5189 0.5345
2536.606 0.4473 0.36999 0.40395 0.4485 0.44498 0.44699 0.4734 0.5164 0.4696 0.42837
2555.896 0.5246 0.5516 0.4642 0.5076 0.5299 0.5143 0.549 0.5063 0.4748 0.5577
2575.186 0.6653 0.6959 0.6575 0.6412 0.6407 0.6575 0.692 0.7692 0.8315 0.7869
2594.475 0.7432 0.7076 0.6771 0.7379 0.7205 0.5825 0.5287 0.6259 0.6581 0.6496
2613.765 0.6807 0.6939 0.6349 0.5554 0.5572 0.584 0.627 0.6294 0.5623 0.5666
2633.055 0.6033 0.6398 0.7231 0.665 0.6398 0.6444 0.6339 0.6431 0.624 0.6241
2652.345 0.6189 0.6015 0.5388 0.5022 0.5817 0.5976 0.5031 0.42459 0.4881 0.6303
2671.634 0.5409 0.40552 0.41016 0.37304 0.41364 0.43606 0.40812 0.5143 0.4823 0.39226
2690.924 0.4785 0.4689 0.4507 0.4942 0.4526 0.4186 0.41603 0.43037 0.40997 0.42928
2710.214 0.5217 0.4686 0.355566 0.44055 0.4478 0.43545 0.5127 0.5254 0.5442 0.5477
2729.504 0.6469 0.6211 0.5908 0.6392 0.6021 0.6772 0.6818 0.74 0.7901 0.76
2748.794 0.8257 0.8911 0.8912 0.8996 1.0144 1.0147 0.9766 0.9607 0.9983 1.1174
2768.083 0.987 0.8784 0.9747 1.0182 0.9207 0.9572 1.1005 1.1289 1.1391 1.2382
2787.373 1.329 1.397 1.437 1.377 1.427 1.497 1.687 1.867 1.827 1.917
2806.663 2.007 2.097 2.357 2.657 2.837 3.057 3.457 3.857 4.337 5.127
2825.953 6.427 8.157 9.947 11.627 12.967 13.427 12.727 11.177 9.507 7.767
2845.242 6.097 4.817 3.897 3.387 3.087 2.887 2.687 2.557 2.517 2.587
2864.532 2.637 2.467 2.437 2.537 2.657 2.817 2.977 3.247 3.517 3.757
2883.822 3.957 4.267 4.667 4.907 5.107 5.357 5.607 5.957 6.317 6.677
2903.112 6.927 7.187 7.547 7.907 8.287 8.617 8.917 9.137 9.127 9.147
2922.401 9.257 9.207 9.287 9.577 10.097 10.907 11.987 13.287 14.727 16.277
2941.691 17.647 18.597 19.037 18.887 18.427 17.967 17.257 16.387 15.357 14.257
2960.981 13.127 11.897 10.797 10.117 9.737 9.477 9.697 10.367 11.157 11.937
2980.271 12.657 13.057 13.087 12.617 11.537 10.257 9.027 7.767 6.717 6.097
2999.561 5.737 5.577 5.477 5.607 6.037 6.537 7.117 7.987 9.027 10.257
3018.850 11.837 13.457 15.017 16.617 18.267 19.767 21.237 22.607 23.687 24.397
3038.140 24.517 23.977 22.877 21.517 20.147 19.287 19.357 20.277 22.187 25.107
3057.430 28.837 33.397 38.347 43.377 47.957 50.887 51.367 49.397 45.227 39.487
3076.720 33.657 28.857 25.897 24.597 24.257 24.527 24.647 24.237 23.207 21.437
3096.009 19.137 16.787 14.457 12.437 11.007 9.697 8.577 7.687 6.817 5.897
3115.299 5.167 4.527 3.907 3.407 3.077 2.817 2.547 2.287 2.157 2.047
3134.589 1.957 1.897 1.877 1.847 1.867 1.807 1.777 1.817 1.737 1.817
3153.879 1.857 1.927 1.847 1.677 1.697 1.687 1.647 1.507 1.417 1.2087
3173.169 1.0671 1.0817 1.0569 0.8486 0.6951 0.7165 0.669 0.5685 0.6128 0.7568
3192.458 0.7093 0.6315 0.6007 0.6456 0.6302 0.5314 0.549 0.5629 0.4798 0.46
3211.748 0.39933 0.42058 0.44224 0.36386 0.4903 0.4684 0.351857 0.3957 0.4706 0.501
3231.038 0.33735 0.34119 0.38364 0.3035 0.308 0.29 0.2814 0.3196 0.337 0.289
3250.328 0.2748 0.2778 0.35867 0.41688 0.352379 0.3081 0.38455 0.35849 0.221 0.3184
3269.617 0.350627 0.271 0.39236 0.3761 0.155 0.244 0.393 0.37757 0.4626 0.4651
3288.907 0.2924 0.39054 0.524 0.37994 0.3683 0.4855 0.4875 0.352573 0.142 0.094
3308.197 0.236 0.34192 0.4914 0.463 0.3301 0.3292 0.2725 0.2512 0.3307 0.37709
3327.487 0.353984 0.289 0.2944 0.2873 0.2747 0.3061 0.3026 0.2705 0.3236 0.42607
3346.777 0.40161 0.3006 0.185 0.194 0.198 0.223 0.44589 0.5099 0.38715 0.3156
3366.066 0.292 0.39984 0.40354 0.34511 0.38115 0.2844 0.253 0.43263 0.4353 0.4497
3385.356 0.481 0.4493 0.44625 0.40246 0.41885 0.37323 0.27 0.2708 0.35283 0.3203
3404.646 0.2992 0.297 0.2636 0.2605 0.2934 0.2473 0.199 0.37475 0.4876 0.3086
3423.936 0.244 0.214 0.218 0.2761 0.182 0.244 0.34089 0.346625 0.3007 0.2813
3443.225 0.337 0.34225 0.3229 0.246 0.2 0.2755 0.3313 0.322 0.3369 0.38121
3462.515 0.171 0.007 0.102 0.149 0.2676 0.2739 0.072 0.042 0.2529 0.39377
3481.805 0.43314 0.33969 0.124 0.109 0.165 0.141 0.223 0.266 0.2669 0.2964
3501.095 0.239 0.2697 0.35609 0.39598 0.43177 0.3815 0.3579 0.39043 0.3305 0.3025
3520.385 0.3342 0.3221 0.3239 0.2909 0.2936 0.34787 0.3358 0.235 0.244 0.38058
3539.674 0.2891 0.281 0.2844 0.121 0 0.119 0.179 0.195 0.2659 0.2831
3558.964 0.40592 0.40598 0.42422 0.3145 0.002 0.049 0.2892 0.3362 0.4016 0.272
3578.254 0.3149 0.5382 0.4881 0.2651 0.103 0.088 0.137 0.167 0.213 0.229
3597.544 0.177 0.3087 0.4126 0.4503 0.37389 0.156 0.201 0.3399 0.3214 0.2695
3616.833 0.144 0.059 0.203 0.4722 0.5203 0.356528 0.172 0.2901 0.37847 0.44639
3636.123 0.5232 0.2745 0.39347 0.6444 0.554 0.524 0.6195 0.651 0.653 0.7726
3655.413 0.7027 0.6231 0.6421 0.5481 0.5668 0.6106 0.4969 0.2692 0.238 0.36693
3674.703 0.524 0.5583 0.37897 0.34568 0.5044 0.4972 0.4861 0.5719 0.5869 0.6932
3693.993 0.8232 0.8795 0.8096 0.7789 0.6675 0.5834 0.6993 0.5619 0.43351 0.4821
3713.282 0.6035 0.7031 0.6095 0.4774 0.39251 0.2781 0.274 0.4793 0.5862 0.4678
3732.572 0.34065 0.2815 0.37856 0.4564 0.42334 0.4853 0.3188 0.243 0.4475 0.5377
3751.862 0.41426 0.36695 0.38072 0.44436 0.5246 0.5659 0.5433 0.5063 0.6743 0.6508
3771.152 0.4809 0.4476 0.5311 0.44241 0.202 0.2688 0.43827 0.5168 0.43645 0.228
3790.441 0.3083 0.355333 0.236 0.3081 0.2985 0.3002 0.37782 0.3356 0.244 0.2777
3809.731 0.5415 0.551 0.41177 0.4804 0.42947 0.2825 0.38713 0.41226 0.3486 0.44608
3829.021 0.43103 0.40673 0.355986 0.199 0.161 0.2981 0.39784 0.5005 0.429 0.3114
3848.311 0.3312 0.3051 0.2879 0.193 0.2488 0.2567 0.2763 0.38667 0.241 0.2615
3867.601 0.35183 0.186 0.2989 0.242 0.136 0.27 0.223 0.2661 0.3147 0.2706
3886.890 0.38533 0.42132 0.218 0.2886 0.4656 0.351579 0.37776 0.4829 0.44643 0.44368
3906.180 0.2949 0.40777 0.5434 0.508 0.5691 0.6248 0.5729 0.4638 0.468 0.4943
3925.470 0.5812 0.5564 0.5151 0.4311 0.41315 0.5345 0.5367 0.41874 0.3011 0.39008
3944.760 0.5405 0.4583 0.3102 0.38149 0.43051 0.37856 0.4836 0.5128 0.42689 0.40465
3964.049 0.5801 0.5795 0.4554 0.5398 0.5566 0.5543 0.6075 0.71 0.6177 0.5578
3983.339 0.5449 0.5959 0.7646 0.741 0.6844 0.8669 0.9777 0.8284 0.7864 0.7625
##END=
