##TITLE=Triphenylmethylbromide
##JCAMP-DX=4.24
##DATA TYPE=INFRARED SPECTRUM
##ORIGIN=EPA-IR VAPOR PHASE LIBRARY
##OWNER=SRD/NIST
Collection (C) 2018 copyright by the U.S. Secretary of Commerce
on behalf of the United States of America. All rights reserved.
##CAS REGISTRY NO=596-43-0
##MOLFORM=C 19 H 15 Br
##$NIST SOURCE=MSDC-IR
##STATE=gas
##XUNITS=1/CM
##YUNITS=ABSORBANCE
##XFACTOR=1.
##YFACTOR=0.001
##DELTAX=1.92898
##FIRSTX=549.8
##LASTX=4000.7
##FIRSTY=0.9179
##MAXX=4000.7
##MINX=549.759
##MAXY=0.020306
##MINY=0
##NPOINTS=1790
##XYDATA=(X++(Y..Y))
549.759 0.9179 1.03492 1.219 1.0897 0.719 1.00343 1.3461 1.2806 1.1174 1.0934
569.049 1.4469 1.3915 1.1553 1.1473 1.1188 1.3459 1.3644 1.2253 1.3451 1.4293
588.339 1.2681 1.1502 1.1623 1.2487 1.1943 1.2394 1.2407 1.2371 1.3727 1.5277
607.628 1.7562 2.176 2.876 3.376 3.806 4.526 5.086 5.786 7.226 8.076
626.918 8.066 7.656 6.206 4.526 3.206 2.376 1.9563 1.8309 1.6577 1.3691
646.208 1.4429 1.5697 1.742 1.9082 1.9614 2.186 2.536 2.836 3.336 3.946
665.498 4.716 5.516 6.106 6.386 6.556 6.816 6.816 6.806 7.126 7.406
684.787 8.046 9.226 10.786 12.986 15.476 17.836 19.806 20.306 19.316 17.306
704.077 14.646 11.826 9.526 7.756 6.166 5.156 4.556 4.276 4.136 4.266
723.367 4.516 4.736 5.426 6.516 7.936 10.006 12.036 13.666 15.216 15.286
742.657 13.956 13.066 12.616 12.276 12.256 12.576 12.546 11.836 10.526 8.796
761.947 7.096 5.556 4.396 3.786 3.206 2.646 2.346 2.126 1.8967 1.8311
781.236 1.949 1.976 1.986 1.7897 1.5907 1.6028 1.6055 1.5873 1.46 1.3894
800.526 1.3843 1.502 1.7141 1.7129 1.5989 1.5912 1.6598 1.8637 2.226 2.486
819.816 2.746 2.996 3.296 3.586 3.646 3.656 3.556 3.266 2.936 2.786
839.106 2.746 2.636 2.666 2.666 2.566 2.606 2.616 2.526 2.476 2.196
858.395 1.996 1.986 1.8482 1.7067 1.7004 1.7719 1.7081 1.7565 1.8222 1.8327
877.685 2.046 2.216 2.396 2.626 2.956 3.176 3.026 2.686 2.596 2.356
896.975 1.9519 1.8654 1.6394 1.5006 1.4042 1.1775 1.0875 1.0918 1.1583 1.1887
916.265 1.2292 1.3289 1.3033 1.257 1.1926 1.091 1.0953 1.1322 1.1155 1.02766
935.555 0.837 0.837 0.9322 0.813 0.8 0.9924 1.0742 0.8813 0.809 0.9447
954.844 0.96109 1.00958 1.04979 0.9143 0.9189 1.05719 1.04108 0.972552 0.975187 1.01232
974.134 1.0097 1.01966 1.0912 1.1264 1.1008 1.1222 1.0991 1.1462 1.2532 1.212
993.424 1.3365 1.4288 1.3888 1.4705 1.5067 1.5533 1.6934 1.6688 1.6021 1.45
1012.714 1.3331 1.3444 1.2227 1.1876 1.2485 1.5181 1.6861 1.8386 2.376 2.956
1032.003 3.476 3.836 3.856 3.676 3.376 2.806 2.076 1.8408 1.8033 1.3292
1051.293 1.01505 0.95925 0.99116 1.06056 0.968016 0.9037 1.02018 1.0027 0.9069 1.04225
1070.583 1.231 1.1687 1.2675 1.2295 1.3221 1.5793 1.4762 1.0874 0.711 1.0706
1089.873 1.3207 0.9222 0.98864 1.238 0.99909 0.836 0.9319 1.0899 1.2144 0.844
1109.163 0.772 1.1706 1.1871 1.04728 0.8961 1.02682 1.397 1.2694 1.01245 1.1873
1128.452 1.2971 1.2048 1.2463 1.2321 1.2956 1.6402 1.7975 1.6904 1.6773 1.8384
1147.742 1.7571 1.757 1.7509 1.7461 1.9461 2.136 1.9585 1.8097 1.8578 1.986
1167.032 2.286 2.466 2.666 3.016 3.296 3.746 4.336 4.786 5.306 5.666
1186.322 5.906 5.976 5.686 5.236 4.946 4.876 4.716 4.536 4.356 4.186
1205.611 4.266 4.266 4.086 3.876 3.656 3.346 2.726 2.416 2.326 2.266
1224.901 2.336 2.146 1.966 1.8957 1.9477 1.8924 1.525 1.3019 1.3906 1.51
1244.191 1.5155 1.5295 1.4805 1.5028 1.5197 1.5479 1.465 1.4038 1.5233 1.5621
1263.481 1.5419 1.5198 1.471 1.4366 1.5884 1.62 1.4881 1.4392 1.4759 1.4078
1282.771 1.4228 1.429 1.3286 1.2987 1.2583 1.2758 1.358 1.4286 1.4213 1.3964
1302.060 1.4395 1.4226 1.4651 1.6252 1.706 1.7368 1.7912 1.8508 1.9287 1.9379
1321.350 1.9014 1.8895 1.8699 1.8151 1.7365 1.6756 1.6153 1.5791 1.5726 1.483
1340.640 1.3919 1.3719 1.3452 1.3113 1.3091 1.3028 1.2718 1.2592 1.2521 1.2455
1359.930 1.2679 1.2699 1.242 1.2557 1.3219 1.3834 1.4141 1.5072 1.5717 1.506
1379.219 1.4784 1.4734 1.4505 1.4841 1.4598 1.375 1.3303 1.3162 1.3388 1.3312
1398.509 1.3071 1.3079 1.321 1.3177 1.3284 1.414 1.4335 1.4469 1.495 1.5524
1417.799 1.602 1.6416 1.7494 1.8535 1.9384 2.096 2.326 2.546 2.896 3.426
1437.089 4.126 5.066 6.046 7.016 7.786 7.806 7.116 6.196 5.176 4.156
1456.378 3.386 2.936 2.736 2.716 2.796 2.956 3.096 3.266 3.516 3.816
1475.668 4.146 4.436 4.676 4.996 5.196 5.366 5.616 5.896 6.276 6.596
1494.958 6.816 6.856 6.556 5.986 5.306 4.526 3.746 3.166 2.736 2.506
1514.248 2.326 2.146 2.026 1.9357 1.8672 1.8548 1.8866 1.9242 1.9362 1.9176
1533.538 1.9439 1.9549 1.9201 1.8656 1.8502 1.7935 1.7485 1.7072 1.6606 1.6733
1552.827 1.637 1.576 1.5567 1.6028 1.6847 1.728 1.7596 1.7869 1.7941 1.7853
1572.117 1.8516 1.9554 2.036 2.146 2.276 2.276 2.356 2.546 2.696 2.846
1591.407 3.026 3.196 3.216 3.196 3.156 2.996 2.836 2.606 2.286 2.036
1610.697 1.8111 1.7038 1.6571 1.57 1.5481 1.5457 1.5023 1.4465 1.3322 1.2862
1629.986 1.2627 1.2261 1.3067 1.3262 1.2707 1.2133 1.2146 1.1907 1.1139 1.122
1649.276 1.1539 1.1756 1.1593 1.1563 1.1822 1.1881 1.1937 1.1741 1.1537 1.1234
1668.566 1.1314 1.1011 1.0712 1.02393 1.02837 1.06366 1.02683 1.05064 1.04898 0.97893
1687.856 0.9507 0.9212 0.8974 0.845 0.819 0.8856 0.854 0.812 0.791 0.745
1707.146 0.756 0.79 0.761 0.748 0.774 0.795 0.802 0.768 0.745 0.748
1726.435 0.758 0.76 0.738 0.745 0.751 0.739 0.764 0.785 0.781 0.828
1745.725 0.849 0.9034 0.9445 0.9065 1.00194 1.04924 1.05236 1.1398 1.1578 1.1423
1765.015 1.1162 1.1169 1.1391 1.1339 1.1183 1.102 1.0895 1.0858 1.0714 1.04519
1784.305 1.05344 1.0888 1.1756 1.2977 1.3874 1.5345 1.7574 1.976 2.116 2.126
1803.594 2.066 1.996 1.9018 1.7126 1.5477 1.4374 1.3085 1.2585 1.2247 1.2051
1822.884 1.1561 1.0844 1.02305 0.97712 0.99431 0.98544 0.96138 0.971617 0.99237 0.967774
1842.174 0.951 1.01359 1.02338 0.99053 1.00755 1.0716 1.0864 1.0934 1.1581 1.1336
1861.464 1.1156 1.0925 1.0818 1.1212 1.097 1.1514 1.2158 1.2171 1.2152 1.2369
1880.754 1.3007 1.3137 1.3111 1.3114 1.3897 1.4934 1.5193 1.4939 1.5176 1.4999
1900.043 1.4145 1.4414 1.4317 1.3753 1.3456 1.2584 1.2179 1.1964 1.1243 1.071
1919.333 1.02082 1.01096 1.01012 1.02129 1.0855 1.1507 1.1367 1.1532 1.2155 1.3269
1938.623 1.5106 1.6682 1.7974 1.8807 1.9327 1.8998 1.8394 1.8271 1.7451 1.6127
1957.913 1.593 1.5817 1.5117 1.4282 1.3354 1.2601 1.1228 1.00313 0.9536 0.9279
1977.202 0.9165 0.8773 0.9063 0.9385 0.9116 0.888 0.863 0.835 0.814 0.825
1996.492 0.824 0.804 0.779 0.787 0.826 0.859 0.855 0.816 0.815 0.798
2015.782 0.804 0.81 0.805 0.792 0.795 0.838 0.86 0.815 0.798 0.843
2035.072 0.796 0.788 0.816 0.803 0.741 0.695 0.741 0.728 0.686 0.703
2054.362 0.726 0.739 0.751 0.739 0.734 0.767 0.746 0.733 0.802 0.808
2073.651 0.778 0.784 0.77 0.736 0.743 0.754 0.713 0.711 0.748 0.778
2092.941 0.742 0.687 0.701 0.749 0.732 0.692 0.676 0.655 0.684 0.75
2112.231 0.74 0.705 0.706 0.718 0.758 0.75 0.714 0.702 0.701 0.707
2131.521 0.745 0.757 0.77 0.783 0.724 0.746 0.765 0.742 0.74 0.677
2150.810 0.631 0.712 0.779 0.768 0.75 0.692 0.71 0.796 0.818 0.838
2170.100 0.807 0.773 0.792 0.834 0.85 0.799 0.785 0.824 0.8988 0.8873
2189.390 0.822 0.787 0.797 0.812 0.839 0.8813 0.838 0.824 0.831 0.798
2208.680 0.798 0.781 0.713 0.691 0.743 0.733 0.68 0.681 0.741 0.781
2227.970 0.756 0.688 0.667 0.7 0.713 0.723 0.701 0.664 0.67 0.687
2247.259 0.725 0.784 0.793 0.756 0.749 0.8 0.816 0.783 0.789 0.795
2266.549 0.752 0.721 0.744 0.766 0.749 0.77 0.769 0.694 0.665 0.711
2285.839 0.7 0.676 0.699 0.707 0.748 0.688 0.685 0.721 0.701 0.719
2305.129 0.749 0.783 0.743 0.819 0.9082 0.857 0.8899 0.866 0.761 0.768
2324.418 0.782 0.762 0.773 0.789 0.81 0.817 0.796 0.819 0.84 0.791
2343.708 0.778 0.822 0.82 0.844 0.842 0.824 0.815 0.7 0.628 0.685
2362.998 0.767 0.749 0.717 0.736 0.778 0.762 0.726 0.688 0.713 0.792
2382.288 0.751 0.708 0.675 0.702 0.715 0.719 0.692 0.644 0.626 0.666
2401.578 0.686 0.662 0.713 0.73 0.661 0.652 0.712 0.719 0.667 0.678
2420.867 0.671 0.652 0.646 0.648 0.663 0.629 0.679 0.707 0.642 0.67
2440.157 0.719 0.727 0.679 0.637 0.691 0.634 0.606 0.63 0.618 0.597
2459.447 0.557 0.616 0.718 0.721 0.725 0.759 0.774 0.721 0.657 0.692
2478.737 0.72 0.721 0.681 0.668 0.615 0.603 0.65 0.607 0.547 0.596
2498.026 0.706 0.705 0.656 0.656 0.719 0.71 0.635 0.575 0.595 0.659
2517.316 0.683 0.632 0.591 0.646 0.667 0.657 0.682 0.664 0.639 0.669
2536.606 0.668 0.63 0.582 0.599 0.612 0.629 0.613 0.585 0.673 0.687
2555.896 0.672 0.663 0.641 0.626 0.616 0.638 0.674 0.649 0.601 0.621
2575.186 0.676 0.725 0.67 0.602 0.625 0.702 0.661 0.644 0.713 0.67
2594.475 0.637 0.682 0.718 0.687 0.653 0.603 0.62 0.615 0.594 0.68
2613.765 0.66 0.601 0.647 0.666 0.62 0.588 0.623 0.681 0.677 0.702
2633.055 0.721 0.661 0.632 0.577 0.541 0.616 0.65 0.649 0.612 0.563
2652.345 0.584 0.607 0.604 0.598 0.605 0.62 0.605 0.612 0.646 0.676
2671.634 0.658 0.606 0.641 0.716 0.704 0.66 0.652 0.666 0.656 0.611
2690.924 0.604 0.608 0.604 0.645 0.707 0.736 0.749 0.688 0.624 0.676
2710.214 0.65 0.573 0.575 0.607 0.6 0.541 0.547 0.563 0.588 0.661
2729.504 0.744 0.815 0.79 0.727 0.686 0.642 0.646 0.631 0.564 0.534
2748.794 0.595 0.644 0.667 0.696 0.671 0.681 0.689 0.667 0.597 0.625
2768.083 0.617 0.604 0.63 0.684 0.733 0.725 0.762 0.772 0.796 0.745
2787.373 0.584 0.513 0.613 0.705 0.752 0.768 0.659 0.561 0.644 0.646
2806.663 0.599 0.536 0.437 0.466 0.478 0.448 0.554 0.625 0.643 0.647
2825.953 0.555 0.536 0.571 0.656 0.627 0.547 0.542 0.671 0.722 0.596
2845.242 0.616 0.675 0.656 0.709 0.673 0.558 0.564 0.587 0.625 0.661
2864.532 0.64 0.592 0.591 0.609 0.59 0.612 0.592 0.538 0.599 0.661
2883.822 0.719 0.699 0.591 0.661 0.604 0.541 0.63 0.655 0.71 0.612
2903.112 0.558 0.545 0.501 0.478 0.504 0.615 0.726 0.741 0.699 0.628
2922.401 0.603 0.719 0.779 0.702 0.658 0.689 0.715 0.67 0.667 0.684
2941.691 0.611 0.684 0.731 0.668 0.756 0.823 0.702 0.682 0.773 0.787
2960.981 0.825 0.8733 0.814 0.758 0.836 0.776 0.626 0.644 0.776 0.8855
2980.271 0.9261 0.82 0.695 0.733 0.813 0.82 0.83 0.9163 1.03801 1.2063
2999.561 1.1209 1.05925 1.2276 1.2742 1.2654 1.4235 1.6437 1.7913 1.9344 2.226
3018.850 2.586 2.806 3.106 3.376 3.756 4.166 4.386 4.586 4.806 5.006
3038.140 5.056 5.076 5.016 4.776 4.566 4.546 4.586 4.716 5.186 6.016
3057.430 7.006 7.936 9.076 10.416 11.746 12.986 13.856 13.996 13.396 12.166
3076.720 10.516 8.796 7.246 6.276 5.996 5.876 5.786 5.746 5.586 5.236
3096.009 4.776 4.246 3.736 3.286 2.846 2.616 2.436 2.056 1.8028 1.6871
3115.299 1.5876 1.4492 1.2797 1.2303 1.1819 1.1248 0.99701 0.8774 0.8718 0.836
3134.589 0.828 0.852 0.845 0.826 0.81 0.807 0.79 0.761 0.715 0.766
3153.879 0.719 0.715 0.788 0.704 0.701 0.821 0.834 0.838 0.712 0.593
3173.169 0.664 0.625 0.537 0.544 0.527 0.441 0.516 0.561 0.526 0.54
3192.458 0.555 0.603 0.664 0.535 0.403 0.446 0.455 0.471 0.425 0.289
3211.748 0.342 0.359 0.274 0.404 0.538 0.485 0.516 0.486 0.339 0.271
3231.038 0.332 0.482 0.463 0.405 0.407 0.312 0.337 0.428 0.387 0.348
3250.328 0.274 0.364 0.518 0.461 0.411 0.414 0.364 0.36 0.317 0.267
3269.617 0.383 0.501 0.538 0.352 0.187 0.303 0.359 0.361 0.244 0.251
3288.907 0.399 0.396 0.478 0.449 0.301 0.333 0.469 0.46 0.306 0.304
3308.197 0.348 0.373 0.347 0.325 0.401 0.347 0.329 0.421 0.464 0.499
3327.487 0.518 0.57 0.513 0.406 0.445 0.599 0.511 0.353 0.408 0.36
3346.777 0.329 0.422 0.418 0.462 0.501 0.34 0.363 0.366 0.379 0.408
3366.066 0.409 0.412 0.258 0.251 0.362 0.478 0.563 0.488 0.381 0.301
3385.356 0.413 0.624 0.6 0.558 0.526 0.374 0.287 0.259 0.26 0.348
3404.646 0.362 0.319 0.368 0.306 0.357 0.394 0.19 0.226 0.404 0.437
3423.936 0.441 0.64 0.675 0.418 0.374 0.613 0.686 0.596 0.517 0.387
3443.225 0.334 0.321 0.321 0.429 0.459 0.509 0.494 0.422 0.519 0.423
3462.515 0.359 0.451 0.449 0.453 0.517 0.494 0.428 0.418 0.438 0.407
3481.805 0.261 0.277 0.253 0.262 0.35 0.392 0.378 0.29 0.324 0.431
3501.095 0.564 0.562 0.508 0.427 0.355 0.417 0.487 0.357 0.361 0.49
3520.385 0.518 0.569 0.558 0.505 0.442 0.525 0.419 0.274 0.527 0.532
3539.674 0.307 0.272 0.371 0.462 0.39 0.214 0.134 0.299 0.357 0.22
3558.964 0.31 0.478 0.436 0.277 0.26 0.426 0.421 0.303 0.4 0.415
3578.254 0.26 0.325 0.396 0.385 0.3 0.349 0.4 0.255 0.376 0.495
3597.544 0.475 0.346 0.226 0.317 0.313 0.335 0.348 0.318 0.41 0.472
3616.833 0.473 0.406 0.44 0.423 0.371 0.317 0.357 0.536 0.503 0.486
3636.123 0.501 0.41 0.335 0.265 0.206 0.382 0.523 0.45 0.367 0.407
3655.413 0.621 0.576 0.339 0.317 0.382 0.393 0.364 0.467 0.533 0.376
3674.703 0.249 0.408 0.567 0.55 0.466 0.498 0.491 0.245 0.368 0.502
3693.993 0.532 0.587 0.511 0.514 0.455 0.379 0.287 0.361 0.446 0.434
3713.282 0.501 0.553 0.407 0.225 0.387 0.6 0.565 0.546 0.47 0.421
3732.572 0.38 0.165 0.383 0.397 0.218 0.278 0.197 0.208 0.308 0.154
3751.862 0.089 0.359 0.473 0.459 0.496 0.448 0.375 0.478 0.466 0.382
3771.152 0.273 0.154 0.213 0.27 0.307 0.236 0.202 0.305 0.446 0.478
3790.441 0.293 0.228 0.266 0.316 0.494 0.571 0.43 0.402 0.445 0.263
3809.731 0.284 0.436 0.475 0.464 0.191 0.148 0.26 0.3 0.442 0.353
3829.021 0.123 0.075 0.11 0.145 0.155 0.173 0.276 0.225 0.158 0.184
3848.311 0.127 0.19 0.337 0.266 0.302 0.354 0.295 0.269 0.399 0.518
3867.601 0.519 0.493 0.389 0.384 0.373 0.461 0.437 0.341 0.285 0.146
3886.890 0.218 0.313 0.252 0.33 0.397 0.334 0.377 0.437 0.364 0.276
3906.180 0.198 0.23 0.237 0.273 0.406 0.332 0.34 0.335 0.254 0.362
3925.470 0.338 0.149 0.224 0.236 0.286 0.399 0.354 0.29 0.262 0.317
3944.760 0.292 0.275 0.312 0.404 0.377 0.354 0.373 0.231 0.325 0.388
3964.049 0.33 0.415 0.397 0.346 0.358 0.321 0.243 0.319 0.417 0.227
3983.339 0 0.21 0.416 0.483 0.486 0.391 0.445 0.373 0.235 0.36
##END=
