##TITLE=3,5-Dimethyl-3-heptene
##JCAMP-DX=4.24
##DATA TYPE=INFRARED SPECTRUM
##ORIGIN=EPA-IR VAPOR PHASE LIBRARY
##OWNER=SRD/NIST
Collection (C) 2018 copyright by the U.S. Secretary of Commerce
on behalf of the United States of America. All rights reserved.
##CAS REGISTRY NO=59643-68-4
##MOLFORM=C 9 H 18
##$NIST SOURCE=MSDC-IR
##STATE=gas
##XUNITS=1/CM
##YUNITS=ABSORBANCE
##XFACTOR=1.
##YFACTOR=0.001
##DELTAX=3.85796
##FIRSTX=501.5
##LASTX=4000.7
##FIRSTY=0.365
##MAXX=4000.7
##MINX=501.534
##MAXY=0.080233
##MINY=0
##NPOINTS=908
##XYDATA=(X++(Y..Y))
501.534 0.365 0.2837 0.5046 0.4674 0.3833 0.5384 0.5624 0.6709 0.702 0.6519
540.114 0.6521 0.7381 0.8667 0.8553 0.7222 0.8082 0.929 0.829 0.6666 0.5111
578.693 0.4168 0.2788 0.24721 0.2993 0.2708 0.22951 0.21861 0.21655 0.22799 0.2873
617.273 0.3208 0.19021 0.04 0 0.055 0.055 0.069 0.177888 0.1622 0.18954
655.852 0.22705 0.1172 0.033 0.0808 0.20077 0.22568 0.181379 0.19879 0.2882 0.24351
694.432 0.1623 0.18994 0.18743 0.21664 0.16809 0.1553 0.21666 0.24872 0.27007 0.24453
733.011 0.22985 0.23337 0.20021 0.1902 0.2831 0.3447 0.4385 0.6669 0.893 1.0319
771.591 1.0879 1.1346 1.1433 1.183 1.353 1.433 1.443 1.463 1.393 1.213
810.170 0.96 0.8126 0.9236 1.183 1.233 1.263 1.333 1.463 1.863 2.423
848.750 3.053 3.713 4.313 4.623 4.583 4.143 3.423 2.713 2.113 1.653
887.330 1.323 1.1052 1.0713 1.1203 1.1675 1.213 1.253 1.233 1.1188 0.9876
925.909 0.8488 0.7937 0.8328 0.7911 0.8459 1.0514 1.213 1.273 1.323 1.583
964.489 1.883 2.183 2.583 3.043 3.473 3.663 3.703 3.603 3.413 3.173
1003.068 2.853 2.743 2.673 2.483 2.393 2.153 1.773 1.383 1.1207 1.1001
1041.648 1.1558 1.213 1.303 1.603 1.943 2.173 2.383 2.573 2.673 2.773
1080.227 2.743 2.653 2.513 2.343 2.283 2.033 1.633 1.483 1.393 1.233
1118.807 1.1396 1.0725 1.0685 0.9881 0.9273 0.8217 0.5968 0.5111 0.5648 0.6548
1157.387 0.7042 0.683 0.5975 0.6427 0.7192 0.729 0.8648 1.0081 1.1386 1.273
1195.966 1.333 1.343 1.283 1.243 1.1141 0.9178 0.825 0.7241 0.6789 0.8084
1234.546 0.874 0.8538 0.8957 1.0495 1.1599 1.1721 1.263 1.293 1.223 1.203
1273.125 1.223 1.343 1.493 1.533 1.543 1.573 1.643 1.863 2.113 2.403
1311.705 2.793 3.143 3.353 3.393 3.223 2.913 2.613 2.393 2.253 2.253
1350.284 2.403 2.703 3.163 3.843 4.813 5.993 7.213 8.223 8.793 8.713
1388.864 7.993 6.843 5.583 4.503 3.783 3.353 3.143 3.103 3.163 3.333
1427.443 3.613 4.043 4.683 5.553 6.613 7.813 9.093 10.223 10.923 10.943
1466.023 10.273 9.093 7.603 6.093 4.733 3.713 3.023 2.563 2.253 2.013
1504.603 1.863 1.753 1.623 1.523 1.453 1.393 1.353 1.343 1.303 1.223
1543.182 1.183 1.203 1.173 1.1448 1.1163 1.0701 1.0675 1.0529 1.0127 0.9996
1581.762 0.9713 0.9752 1.0004 0.9523 0.9311 0.9239 0.8601 0.8212 0.815 0.8376
1620.341 0.8621 0.8693 0.8492 0.8559 0.8781 0.9191 1.012 1.0592 1.1519 1.313
1658.921 1.423 1.433 1.403 1.333 1.1591 0.9591 0.8355 0.7464 0.6921 0.6978
1697.500 0.6918 0.686 0.6853 0.6757 0.7014 0.7205 0.7221 0.7095 0.6549 0.6186
1736.080 0.5742 0.5189 0.4597 0.4434 0.4817 0.4418 0.3929 0.3799 0.3573 0.3707
1774.659 0.3759 0.3513 0.3589 0.3617 0.3549 0.3757 0.3695 0.3412 0.3282 0.3555
1813.239 0.3768 0.3463 0.352 0.355 0.3416 0.36 0.34 0.3357 0.3869 0.3865
1851.819 0.3482 0.3461 0.3804 0.3966 0.3675 0.3498 0.3588 0.3579 0.3567 0.3622
1890.398 0.3641 0.3372 0.3292 0.3723 0.3725 0.3507 0.3482 0.3446 0.3177 0.3165
1928.978 0.332 0.3188 0.3049 0.3264 0.3438 0.3417 0.346 0.3219 0.3038 0.2834
1967.557 0.2822 0.2852 0.2876 0.2955 0.3015 0.2917 0.2812 0.2923 0.2849 0.2788
2006.137 0.3013 0.3387 0.3472 0.3517 0.3479 0.3457 0.3422 0.3359 0.3641 0.3641
2044.716 0.3267 0.305 0.3012 0.27234 0.25138 0.27246 0.3036 0.2962 0.2928 0.3057
2083.296 0.2776 0.26473 0.2784 0.2906 0.309 0.3353 0.3259 0.3243 0.3622 0.3676
2121.875 0.3545 0.331 0.2967 0.2869 0.3185 0.3528 0.3531 0.3326 0.3214 0.3341
2160.455 0.3482 0.3394 0.3703 0.3761 0.338 0.3437 0.379 0.366 0.3161 0.3205
2199.035 0.369 0.373 0.3331 0.3307 0.3587 0.3709 0.3562 0.3506 0.3475 0.3517
2237.614 0.3454 0.3194 0.3335 0.3396 0.3298 0.3399 0.3349 0.3405 0.3399 0.347
2276.194 0.3946 0.4271 0.4142 0.3956 0.397 0.3807 0.3858 0.4257 0.4329 0.4437
2314.773 0.4486 0.4194 0.4035 0.4167 0.3932 0.3815 0.4284 0.4493 0.4345 0.4218
2353.353 0.4785 0.5341 0.528 0.5238 0.5277 0.5388 0.5368 0.5123 0.5226 0.507
2391.932 0.4966 0.5364 0.532 0.5278 0.5255 0.4923 0.4536 0.466 0.4827 0.519
2430.512 0.5427 0.538 0.5606 0.5403 0.5103 0.5177 0.5593 0.5694 0.528 0.5038
2469.092 0.5127 0.4776 0.435 0.448 0.4331 0.4177 0.444 0.4447 0.4599 0.4758
2507.671 0.4717 0.4441 0.4326 0.4454 0.469 0.4768 0.4853 0.5064 0.5209 0.5443
2546.251 0.5762 0.5983 0.599 0.6351 0.6499 0.6638 0.7038 0.6968 0.6577 0.677
2584.830 0.7227 0.6907 0.6304 0.6302 0.661 0.673 0.6735 0.7112 0.6956 0.7263
2623.410 0.7964 0.7765 0.7828 0.8121 0.7851 0.7723 0.8121 0.829 0.8504 0.879
2661.989 0.8783 0.8561 0.8249 0.7923 0.8207 0.8928 0.9068 0.8981 0.9127 0.9535
2700.569 1.0092 1.0726 1.1334 1.173 1.273 1.413 1.523 1.643 1.793 1.893
2739.148 1.883 1.893 1.903 1.853 1.823 1.853 1.873 1.913 1.963 1.983
2777.728 2.043 2.143 2.253 2.353 2.483 2.653 2.823 2.963 3.193 3.473
2816.308 3.823 4.253 4.733 5.283 5.963 6.883 8.063 9.573 11.553 14.123
2854.887 17.103 19.993 22.663 25.053 27.183 29.193 30.853 31.803 32.033 31.623
2893.467 30.823 30.243 30.473 31.733 34.063 37.183 40.713 44.373 47.563 49.693
2932.046 50.563 50.193 48.983 47.663 47.543 49.633 54.833 63.803 73.973 80.233
2970.626 80.033 73.513 61.493 46.813 34.283 26.083 20.873 17.333 14.773 12.783
3009.205 11.133 9.783 8.723 7.823 7.103 6.573 6.163 5.773 5.373 5.073
3047.785 4.843 4.643 4.433 4.213 3.983 3.743 3.553 3.363 3.223 3.063
3086.364 2.903 2.773 2.623 2.433 2.303 2.213 2.113 2.023 1.923 1.883
3124.944 1.833 1.743 1.743 1.693 1.573 1.543 1.523 1.453 1.433 1.383
3163.524 1.303 1.313 1.293 1.253 1.223 1.1606 1.1443 1.0209 0.8905 0.8816
3202.103 0.8593 0.8633 0.7923 0.7536 0.7499 0.6998 0.6878 0.696 0.72 0.6909
3240.683 0.6025 0.541 0.5658 0.5612 0.5011 0.469 0.3917 0.358 0.4714 0.5221
3279.262 0.451 0.3751 0.3862 0.4234 0.4047 0.4569 0.5269 0.562 0.5167 0.4956
3317.842 0.4971 0.4952 0.5261 0.5277 0.4907 0.4747 0.4362 0.4321 0.3905 0.3148
3356.421 0.4148 0.4608 0.4637 0.4797 0.4582 0.4217 0.3893 0.3999 0.4535 0.4692
3395.001 0.4353 0.4151 0.3647 0.3434 0.4155 0.4352 0.4162 0.3995 0.347 0.3167
3433.580 0.3623 0.3261 0.3201 0.3092 0.25838 0.25149 0.25266 0.2962 0.24758 0.236
3472.160 0.27249 0.3826 0.4151 0.3274 0.3281 0.2791 0.274 0.3249 0.3374 0.3545
3510.740 0.3754 0.3582 0.3218 0.3274 0.307 0.3059 0.26319 0.22649 0.3521 0.4505
3549.319 0.3671 0.2928 0.3137 0.3168 0.26184 0.27071 0.3267 0.2978 0.2791 0.23675
3587.899 0.182226 0.19221 0.23272 0.26314 0.3201 0.3527 0.3154 0.26425 0.21249 0.23721
3626.478 0.2942 0.3698 0.3661 0.313 0.35 0.3494 0.26544 0.21703 0.2508 0.3017
3665.058 0.3286 0.3087 0.361 0.3618 0.3389 0.3774 0.3932 0.3933 0.3411 0.3219
3703.637 0.3534 0.3803 0.3542 0.3851 0.4104 0.3805 0.3659 0.3743 0.3397 0.2952
3742.217 0.3497 0.3692 0.3253 0.3356 0.3094 0.3351 0.3597 0.2856 0.2891 0.351
3780.797 0.3426 0.3352 0.3724 0.4035 0.4057 0.3547 0.3287 0.3229 0.3579 0.3585
3819.376 0.3648 0.3608 0.26403 0.2912 0.3536 0.402 0.4012 0.3764 0.4602 0.4947
3857.956 0.4066 0.386 0.4018 0.4115 0.4516 0.4733 0.4827 0.3466 0.3377 0.4715
3896.535 0.486 0.4164 0.4441 0.4427 0.3495 0.3444 0.371 0.3818 0.3179 0.3395
3935.115 0.3603 0.3621 0.4934 0.4992 0.4719 0.4758 0.436 0.4488 0.3567 0.25536
3973.694 0.3513 0.4698 0.4449 0.4576 0.4605 0.4834 0.5123 0.4429
##END=
