##TITLE=3,4-Diethyl-2-hexene(E)
##JCAMP-DX=4.24
##DATA TYPE=INFRARED SPECTRUM
##ORIGIN=NIST Mass Spectrometry Data Center
##OWNER=NIST Standard Reference Data Program
Collection (C) 2018 copyright by the U.S. Secretary of Commerce
on behalf of the United States of America. All rights reserved.
##CAS REGISTRY NO=59643-70-8
##MOLFORM=C 10 H 20
##$NIST SOURCE=MSDC-IR
##SPECTROMETER/DATA SYSTEM=HP-GC/MS/IRD
##STATE=gas
##XUNITS=1/CM
##YUNITS=ABSORBANCE
##XFACTOR=1.0
##YFACTOR=0.000003500
##DELTAX=4.0
##FIRSTX=550.0
##LASTX=3846.0
##FIRSTY=0.000319
##MAXX=3846
##MINX=550
##MAXY=0.035
##MINY=0
##NPOINTS=825
##XYDATA=(X++(Y..Y))
550.0 91 48 4 18 26 28 19 22 23 14
590.0 21 19 8 24 50 75 100 123 134 134
630.0 139 135 112 81 71 70 56 39 22 22
670.0 18 10 12 4 9 23 40 38 27 39
710.0 36 44 51 44 39 31 38 43 34 34
750.0 35 38 55 84 117 136 152 173 189 205
790.0 241 276 322 409 514 630 733 796 816 766
830.0 659 544 435 345 285 247 222 210 208 204
870.0 193 169 151 138 117 99 98 107 119 140
910.0 162 172 178 192 208 225 242 254 247 220
950.0 187 158 136 126 115 100 102 116 127 126
990.0 121 123 130 136 148 158 177 197 208 226
1030.0 238 234 228 219 201 191 193 202 209 211
1070.0 212 203 187 173 161 159 163 164 166 157
1110.0 145 138 122 106 103 95 94 102 106 110
1150.0 110 104 84 71 64 52 52 62 64 63
1190.0 70 72 71 64 54 52 52 54 58 63
1230.0 77 89 102 116 125 146 173 186 198 215
1270.0 214 211 211 206 208 219 236 257 275 292
1310.0 301 292 281 264 251 246 248 250 250 250
1350.0 255 270 291 340 435 572 727 862 929 880
1390.0 740 572 426 335 292 276 274 284 301 320
1430.0 359 419 508 639 818 1040 1277 1474 1584 1584
1470.0 1470 1248 996 760 573 441 353 301 263 240
1510.0 228 213 199 191 185 182 177 168 162 156
1550.0 149 142 131 125 118 112 112 108 103 98
1590.0 99 98 94 93 97 101 103 107 112 119
1630.0 122 119 117 118 117 109 104 104 93 79
1670.0 67 55 48 42 37 35 32 27 27 31
1710.0 28 30 28 21 20 19 23 26 23 17
1750.0 20 22 20 19 23 22 18 18 21 17
1790.0 12 18 19 19 24 23 24 29 32 35
1830.0 39 40 44 48 49 50 51 49 42 36
1870.0 32 28 26 20 14 14 16 15 14 13
1910.0 14 13 9 11 11 12 12 5 4 6
1950.0 8 7 4 4 6 7 7 4 4 5
1990.0 4 3 0 2 4 3 6 10 10 5
2030.0 8 13 12 10 11 11 13 15 14 16
2070.0 12 6 9 13 13 10 11 13 10 7
2110.0 6 1 2 5 4 8 9 8 12 11
2150.0 11 13 10 8 8 7 7 6 5 5
2190.0 9 15 16 13 9 10 8 3 4 8
2230.0 11 8 11 14 14 17 16 12 15 16
2270.0 13 12 10 10 16 22 23 26 28 28
2310.0 32 32 29 29 30 27 25 28 23 26
2350.0 27 28 34 34 30 36 42 43 46 45
2390.0 39 39 43 46 44 45 44 39 36 37
2430.0 37 36 39 40 40 38 40 43 43 45
2470.0 45 46 46 43 41 44 46 46 46 44
2510.0 41 41 41 44 49 48 48 50 52 56
2550.0 60 60 62 65 66 70 74 69 72 80
2590.0 80 78 76 80 84 81 81 79 80 85
2630.0 87 88 94 97 96 98 103 106 106 114
2670.0 119 117 119 120 121 122 126 134 141 147
2710.0 154 167 183 204 225 246 264 272 279 275
2750.0 263 253 241 242 251 260 269 282 298 310
2790.0 328 345 364 385 411 440 467 505 562 627
2830.0 700 781 876 995 1157 1407 1772 2289 2965 3743
2870.0 4553 5263 5698 5766 5482 4960 4404 3957 3739 3805
2910.0 4159 4773 5594 6545 7473 8194 8565 8541 8178 7635
2950.0 7225 7216 7745 8774 9705 10000 9505 8224 6587 5018
2990.0 3790 2960 2418 2056 1802 1634 1508 1422 1352 1285
3030.0 1226 1182 1128 1066 1009 946 867 789 718 650
3070.0 585 520 473 444 414 394 370 349 338 322
3110.0 312 300 280 272 268 249 238 228 219 217
3150.0 202 180 169 162 161 156 134 116 111 109
3190.0 104 97 92 90 88 83 80 76 80 76
3230.0 69 71 61 53 53 55 58 55 51 49
3270.0 45 40 43 46 45 43 37 32 28 24
3310.0 27 35 40 29 24 30 28 21 18 22
3350.0 30 33 25 21 26 30 32 32 27 23
3390.0 23 21 23 22 22 28 20 12 15 21
3430.0 20 24 26 21 17 15 14 15 13 5
3470.0 2 4 6 9 14 10 9 12 11 11
3510.0 12 18 14 5 5 12 15 11 11 13
3550.0 13 14 14 7 5 7 6 4 8 11
3590.0 6 5 8 12 14 7 13 20 17 16
3630.0 9 5 11 18 15 13 9 16 12 4
3670.0 16 12 11 15 13 16 17 15 14 15
3710.0 15 15 13 10 7 4 1 4 6 4
3750.0 8 7 7 10 13 11 10 3 7 20
3790.0 20 14 12 9 11 13 13 11 2 2
3830.0 15 18 14 11 11
##END=
