##TITLE=Tri-p-tolyl thiophosphate
##JCAMP-DX=4.24
##DATA TYPE=INFRARED SPECTRUM
##ORIGIN=EPA-IR VAPOR PHASE LIBRARY
##OWNER=SRD/NIST
Collection (C) 2018 copyright by the U.S. Secretary of Commerce
on behalf of the United States of America. All rights reserved.
##CAS REGISTRY NO=597-84-2
##MOLFORM=C 21 H 21 O 3 P S
##$NIST SOURCE=MSDC-IR
##STATE=gas
##XUNITS=1/CM
##YUNITS=ABSORBANCE
##XFACTOR=1.
##YFACTOR=0.001
##DELTAX=1.92898
##FIRSTX=549.8
##LASTX=4000.7
##FIRSTY=7.31
##MAXX=4000.7
##MINX=549.759
##MAXY=0.32556
##MINY=0.000003657
##NPOINTS=1790
##XYDATA=(X++(Y..Y))
549.759 7.31 6.14 5.2 4.47 3.81 3.31 2.94 2.82 2.69 2.18
569.049 1.9 1.92 2.14 2.09 1.77 1.56 1.56 1.58 1.36 1.15
588.339 1.26 1.59 1.74 1.74 1.97 2.25 2.62 3.05 3.32 3.45
607.628 3.49 3.67 3.7 3.57 3.33 3.37 3.25 2.98 2.96 2.86
626.918 2.8 2.82 3 3.15 3.41 3.53 3.66 4.04 4.17 4.12
646.208 3.98 3.98 4.05 3.93 3.79 3.81 3.68 3.61 3.66 3.79
665.498 3.85 3.96 4.18 4.46 4.96 5.44 6.03 6.83 7.9 9.34
684.787 11.2 12.94 14.48 15.94 16.61 16.25 15.32 13.92 12.33 11.3
704.077 10.42 9.45 8.57 7.64 6.7 5.91 5.31 4.83 4.38 4.13
723.367 4.18 4.21 4.4 4.86 5.28 5.76 6.3 7.15 8.6 10.44
742.657 13.32 17.47 22.81 28.8 33.71 36.1 34.51 29.25 22.76 16.97
761.947 12.7 9.81 7.95 6.73 5.99 5.53 5.14 4.97 4.98 5.06
781.236 5.26 5.67 6.15 6.65 7.29 8.07 9.11 10.24 11.47 13.21
800.526 15.19 17.51 20.17 23.14 26.88 31.22 35.77 40.63 45.37 49.2
819.816 51.64 52.65 53.22 53.98 55.71 58.25 60.95 63.19 63.31 59.68
839.106 52.4 43.32 34.5 27.06 21.44 17.71 15.12 13.24 12.02 11.3
858.395 10.74 10.08 9.74 9.59 9.52 9.6 9.76 10.04 10.34 10.77
877.685 11.16 11.59 12.19 12.94 13.55 14.23 15.3 16.4 17.69 19.21
896.975 20.99 23.08 25.72 28.92 32.71 37.51 43.37 50.56 59.91 71.65
916.265 86.04 103.3 122.71 142.48 159.29 170.89 177.54 183.07 192.14 207.2
935.555 228.35 251.94 272.27 285.24 288.06 281 266.87 248.89 229.66 210.15
954.844 190.41 170.34 150.2 130.96 113.23 97.31 83.61 71.95 62.27 54.34
974.134 47.74 42.06 37.24 33.12 29.67 26.77 24.18 21.87 19.85 18.18
993.424 16.74 15.5 14.54 13.87 13.21 12.69 12.52 12.64 13.57 15.59
1012.714 19.66 26.08 31.06 32.06 29.2 22.79 15.98 11.74 9.48 8.13
1032.003 7.28 6.62 6.1 5.95 6.07 5.99 5.59 5.28 5.25 5.19
1051.293 5.07 4.87 4.54 4.39 4.24 3.97 4.05 4.32 4.27 3.96
1070.583 3.74 3.78 3.82 3.65 3.49 3.79 4.18 4.33 4.35 4.4
1089.873 4.52 5 5.37 5.64 6.39 6.84 7.18 7.66 7.74 7.37
1109.163 6.97 6.8 7 7.03 6.86 6.57 6.1 5.88 5.93 6.05
1128.452 6.29 6.3 6.42 7.07 7.59 8.32 9.4 10.66 12.23 14.1
1147.742 16.86 20.7 26.09 33.54 44.24 60.06 82.68 109.71 133.17 143.85
1167.032 137.17 115.43 87.84 65.31 52.63 48.89 52.1 62.6 80.95 108.45
1186.322 147.33 197.3 252.15 299.51 325.56 321.99 291.16 245.8 202.3 170.21
1205.611 149.69 135.8 122.85 108.22 92.96 79.15 68.35 61.56 57.41 54.55
1224.901 52.47 50.81 48.63 45.87 43.1 39.81 35.99 31.94 28.32 25.27
1244.191 22.61 20.2 18.08 16.34 15.04 14.01 12.97 12.08 11.33 10.79
1263.481 10.24 9.69 9.52 9.1 8.56 8.15 7.8 7.55 7.32 7.06
1282.771 6.7 6.31 6.09 6.07 5.96 5.81 5.71 5.61 5.61 5.66
1302.060 5.71 5.72 5.63 5.53 5.39 5.2 4.97 4.86 4.75 4.63
1321.350 4.55 4.47 4.41 4.31 4.23 4.22 4.16 4.07 4.05 4.08
1340.640 4.07 4.04 4.03 4.06 4.06 3.96 3.94 3.97 3.94 4.01
1359.930 4.11 4.14 4.14 4.12 4.16 4.2 4.24 4.28 4.34 4.49
1379.219 4.73 5.02 5.29 5.41 5.38 5.22 5 4.85 4.73 4.65
1398.509 4.7 4.76 4.84 4.97 5.16 5.4 5.57 5.7 5.86 5.99
1417.799 6.05 6.06 6.06 6 5.96 5.94 5.87 5.83 5.77 5.75
1437.089 5.74 5.72 5.76 5.8 5.85 5.93 6.08 6.22 6.44 6.7
1456.378 6.96 7.25 7.57 7.87 8.21 8.64 9.12 9.53 10.05 10.7
1475.668 11.44 12.36 13.66 15.43 17.89 21.38 26.35 33.6 44.34 59.62
1494.958 81.37 111.8 149.17 188.9 220.91 233.64 222.31 192.13 153.72 116.73
1514.248 88.41 67.74 52.49 41.59 32.96 26.59 21.79 18.1 15.33 13.25
1533.538 11.65 10.29 9.35 8.64 7.94 7.4 7.04 6.65 6.37 6.14
1552.827 5.89 5.72 5.54 5.41 5.36 5.31 5.28 5.28 5.39 5.53
1572.117 5.6 5.78 6.12 6.54 7.08 7.81 8.57 9.39 10.44 11.61
1591.407 12.69 13.77 14.97 16 16.97 17.89 18.51 18.82 18.59 17.77
1610.697 16.47 14.77 12.97 11.27 9.98 9.1 8.36 7.81 7.46 7.2
1629.986 7 6.79 6.52 6.26 5.98 5.67 5.34 5 4.71 4.39
1649.276 4.07 3.79 3.5 3.28 3.1 2.86 2.64 2.51 2.4 2.18
1668.566 1.96 1.84 1.75 1.69 1.68 1.62 1.52 1.45 1.42 1.46
1687.856 1.41 1.32 1.33 1.3 1.23 1.21 1.16 1.07 1.13 1.18
1707.146 1.21 1.24 1.24 1.28 1.3 1.28 1.26 1.29 1.41 1.53
1726.435 1.53 1.59 1.7 1.79 1.86 1.96 2.01 2.06 2.2 2.35
1745.725 2.54 2.65 2.76 2.95 3.19 3.39 3.63 3.87 4.07 4.21
1765.015 4.1 3.9 3.67 3.36 3.03 2.79 2.61 2.43 2.26 2.14
1784.305 2.08 2 1.93 1.88 1.78 1.71 1.77 1.8 1.81 1.83
1803.594 1.79 1.71 1.68 1.69 1.67 1.62 1.56 1.51 1.46 1.41
1822.884 1.42 1.47 1.47 1.5 1.49 1.49 1.56 1.59 1.63 1.7
1842.174 1.82 1.93 2.03 2.19 2.39 2.59 2.83 3.04 3.26 3.49
1861.464 3.74 4.02 4.3 4.67 5.04 5.33 5.58 5.7 5.75 5.73
1880.754 5.61 5.4 5.18 4.91 4.67 4.44 4.16 3.96 3.79 3.67
1900.043 3.58 3.46 3.31 3.19 3.07 2.93 2.86 2.77 2.63 2.53
1919.333 2.46 2.38 2.35 2.29 2.15 2.03 1.98 1.87 1.76 1.69
1938.623 1.62 1.56 1.5 1.48 1.41 1.3 1.23 1.17 1.16 1.17
1957.913 1.1 1.06 1.07 1.08 1.08 1.07 1.08 1.06 1.07 1.12
1977.202 1.12 1.11 1.1 1.1 1.14 1.18 1.23 1.26 1.33 1.42
1996.492 1.42 1.42 1.39 1.34 1.27 1.22 1.21 1.17 1.13 1.09
2015.782 1.09 1.16 1.21 1.22 1.27 1.35 1.37 1.36 1.36 1.32
2035.072 1.27 1.19 1.16 1.18 1.15 1.11 1.03 0.9412 0.8942 0.9108
2054.362 0.9294 0.9372 0.9121 0.8487 0.8297 0.7788 0.734 0.7061 0.6803 0.7051
2073.651 0.7088 0.69 0.6238 0.6064 0.6299 0.634 0.6211 0.6273 0.6451 0.5737
2092.941 0.565 0.5717 0.5719 0.576 0.5395 0.501 0.4804 0.4862 0.5021 0.5363
2112.231 0.547 0.5139 0.4521 0.4416 0.4644 0.5035 0.5301 0.4666 0.372 0.3388
2131.521 0.3466 0.358 0.4113 0.4577 0.4167 0.4029 0.4505 0.4351 0.3816 0.3672
2150.810 0.3323 0.297 0.2924 0.3221 0.3509 0.3464 0.3375 0.3327 0.3243 0.3528
2170.100 0.3672 0.3294 0.3619 0.4138 0.4078 0.3772 0.4584 0.5757 0.5104 0.4592
2189.390 0.555 0.597 0.5482 0.5138 0.4996 0.5357 0.5752 0.5683 0.5676 0.5383
2208.680 0.537 0.5493 0.5004 0.447 0.4383 0.4556 0.4403 0.4286 0.4848 0.4568
2227.970 0.3339 0.3197 0.3163 0.3382 0.4103 0.3968 0.3675 0.3236 0.3065 0.3247
2247.259 0.3675 0.3803 0.3425 0.3233 0.3849 0.3989 0.3885 0.4247 0.431 0.4088
2266.549 0.3723 0.3985 0.4512 0.5133 0.5707 0.6058 0.5699 0.5411 0.5602 0.5731
2285.839 0.5969 0.5975 0.6115 0.6431 0.6816 0.688 0.7164 0.7555 0.7394 0.774
2305.129 0.8512 0.8903 0.8555 0.9188 1.01 1.05 1.05 0.9974 1.02 1.03
2324.418 1.02 1.05 1.04 1.05 1.02 0.9932 1.01 0.9774 0.9627 0.9229
2343.708 0.881 0.878 0.9677 1.03 0.9972 1.01 1.07 1.18 1.18 1.13
2362.998 1.16 1.15 1.07 1.02 1.01 1.03 1.11 1.12 1.08 1.1
2382.288 1.13 1.19 1.26 1.29 1.33 1.36 1.36 1.35 1.29 1.27
2401.578 1.26 1.23 1.26 1.18 1.09 1.1 1.09 1.18 1.27 1.21
2420.867 1.17 1.16 1.13 1.12 1.06 1.03 1.03 1.03 0.9448 0.8712
2440.157 0.8539 0.8065 0.8508 0.798 0.6931 0.7022 0.6816 0.6753 0.6948 0.6404
2459.447 0.6563 0.6995 0.6405 0.5984 0.5648 0.5269 0.5069 0.5311 0.5286 0.5295
2478.737 0.5379 0.4736 0.4631 0.5292 0.522 0.4418 0.4548 0.4937 0.4783 0.4774
2498.026 0.5126 0.5693 0.5754 0.587 0.55 0.5131 0.5485 0.5262 0.5173 0.5547
2517.316 0.5203 0.518 0.5854 0.6149 0.5839 0.5468 0.6045 0.6205 0.5457 0.5789
2536.606 0.5847 0.57 0.6729 0.7181 0.687 0.6133 0.6243 0.6513 0.6555 0.6322
2555.896 0.5612 0.5505 0.6055 0.7096 0.7061 0.6984 0.7394 0.7269 0.7086 0.6947
2575.186 0.6755 0.6413 0.6563 0.6726 0.6945 0.6904 0.7513 0.772 0.6877 0.618
2594.475 0.6082 0.5873 0.5057 0.4959 0.4843 0.4925 0.4236 0.2897 0.2825 0.3366
2613.765 0.3148 0.2473 0.2266 0.2776 0.3265 0.2821 0.2336 0.2695 0.2675 0.2316
2633.055 0.2391 0.2495 0.2781 0.2809 0.275 0.3128 0.3075 0.2728 0.2287 0.2327
2652.345 0.3022 0.317 0.3802 0.422 0.3877 0.3532 0.2533 0.2409 0.2711 0.3108
2671.634 0.4205 0.4386 0.4068 0.3969 0.354 0.3465 0.2974 0.3063 0.3735 0.4025
2690.924 0.4313 0.4148 0.4071 0.4093 0.4346 0.4849 0.5252 0.5623 0.5771 0.5564
2710.214 0.5786 0.5575 0.5383 0.5927 0.595 0.6147 0.6002 0.5512 0.5435 0.6223
2729.504 0.7082 0.7821 0.843 0.8797 1.02 1.19 1.32 1.45 1.57 1.59
2748.794 1.51 1.25 1.06 0.9769 0.8729 0.7443 0.6633 0.6758 0.6363 0.6098
2768.083 0.5477 0.474 0.4711 0.4237 0.5183 0.6214 0.5727 0.5569 0.5099 0.5533
2787.373 0.6941 0.6942 0.6639 0.7604 0.8426 0.8771 0.875 0.7962 0.8148 0.8606
2806.663 0.8876 0.9158 0.9377 1.08 1.12 1.04 1.13 1.22 1.22 1.29
2825.953 1.29 1.33 1.52 1.7 1.79 1.82 1.94 2.13 2.35 2.53
2845.242 2.73 2.97 3.29 3.66 4.07 4.56 4.98 5.43 6 6.74
2864.532 7.63 8.48 9.43 10.47 11.49 12.43 13.16 13.48 13.44 13.16
2883.822 12.72 12.13 11.47 10.92 10.51 10.21 9.97 9.78 9.57 9.49
2903.112 9.52 9.56 9.69 9.92 10.31 10.78 11.33 12.1 13.07 14.27
2922.401 15.72 17.41 19.45 21.73 24.05 25.98 27.13 27.33 26.34 24.15
2941.691 21.28 18.26 15.56 13.3 11.49 10.13 9.14 8.43 7.73 7.21
2960.981 6.85 6.55 6.36 6.13 5.99 5.92 5.89 5.89 5.98 6.16
2980.271 6.34 6.63 7.06 7.45 7.88 8.38 8.86 9.33 9.79 10.16
2999.561 10.47 10.76 10.97 11.15 11.37 11.59 11.69 11.73 11.78 11.92
3018.850 12.11 12.39 13.15 14.19 15.54 17.54 19.97 22.61 25.26 27.46
3038.140 28.42 27.7 25.8 23.24 20.64 18.43 16.47 14.69 13.03 11.61
3057.430 10.39 9.41 8.73 8.15 7.68 7.31 6.92 6.52 6.28 6.16
3076.720 5.84 5.46 5.08 4.78 4.56 4.37 4.22 4.15 4.1 4.03
3096.009 4.03 3.96 3.89 3.78 3.74 3.81 3.7 3.56 3.47 3.26
3115.299 3.09 3 2.79 2.55 2.44 2.31 2.11 1.92 1.8 1.56
3134.589 1.24 1.14 1.11 0.9857 0.9407 0.8354 0.7048 0.7316 0.6873 0.5658
3153.879 0.5854 0.6036 0.5269 0.6053 0.6638 0.595 0.4977 0.4701 0.4963 0.4577
3173.169 0.4688 0.5379 0.5524 0.5809 0.5576 0.5405 0.5411 0.5471 0.527 0.5352
3192.458 0.5385 0.453 0.3657 0.3177 0.3573 0.3733 0.4377 0.4236 0.2998 0.3608
3211.748 0.4091 0.3438 0.3983 0.4234 0.4127 0.4117 0.3666 0.3217 0.2951 0.2267
3231.038 0.2405 0.3475 0.3338 0.2999 0.2988 0.2482 0.256 0.2405 0.1792 0.1907
3250.328 0.1935 0.193 0.2012 0.274 0.3 0.2068 0.1596 0.2358 0.2667 0.2645
3269.617 0.3133 0.3079 0.3083 0.2101 0.1541 0.1984 0.2208 0.1753 0.1159 0.1603
3288.907 0.2639 0.183 0.1607 0.2736 0.1692 0.09239 0.1171 0.2511 0.224 0.1483
3308.197 0.2107 0.2491 0.2615 0.2168 0.2389 0.2306 0.2291 0.2837 0.2766 0.2071
3327.487 0.1496 0.1947 0.1818 0.1938 0.1998 0.2146 0.1602 0.2273 0.3283 0.2236
3346.777 0.2686 0.2496 0.2528 0.2555 0.2875 0.2905 0.2376 0.1852 0.07296 0.2132
3366.066 0.2287 0.1077 0.1485 0.09276 0.1031 0.1802 0.1549 0.1221 0.1403 0.1904
3385.356 0.2559 0.1923 0.09206 0.1817 0.219 0.1475 0.1849 0.2385 0.2218 0.1613
3404.646 0.1122 0.1976 0.2214 0.125 0.1494 0.2152 0.1193 0.07616 0.1596 0.2108
3423.936 0.1894 0.02855 0.01466 0.1425 0.187 0.1314 0.1025 0.1188 0.1077 0.09876
3443.225 0.1578 0.2845 0.2498 0.1794 0.2679 0.3014 0.2736 0.2453 0.224 0.2257
3462.515 0.207 0.1925 0.1654 0.185 0.256 0.2658 0.2077 0.1744 0.1189 0.137
3481.805 0.1833 0.1355 0.03116 0.05306 0.1614 0.1991 0.256 0.229 0.1969 0.1901
3501.095 0.1131 0.08304 0.09239 0.08151 0.1226 0.1251 0.05676 0.1045 0.2318 0.2618
3520.385 0.1939 0.2157 0.1856 0.05975 0.02003 0.0517 0.1402 0.1369 0.1279 0.2037
3539.674 0.178 0.1531 0.1216 0.2307 0.2508 0.09873 0.003657 0.05177 0.1308 0.09456
3558.964 0.2136 0.1425 0.01195 0.05937 0.1707 0.1892 0.1134 0.0248 0.07246 0.2298
3578.254 0.2105 0.1837 0.1571 0.1458 0.1615 0.2037 0.1352 0.1569 0.302 0.2282
3597.544 0.149 0.165 0.08568 0.09845 0.214 0.1331 0.07781 0.1581 0.2669 0.2518
3616.833 0.1445 0.1435 0.1483 0.1136 0.09042 0.09029 0.05135 0.1145 0.234 0.2005
3636.123 0.1011 0.06624 0.1079 0.1478 0.03981 0.01463 0.1122 0.1449 0.2452 0.2544
3655.413 0.1756 0.1661 0.2101 0.1429 0.09456 0.07724 0.09118 0.2714 0.2614 0.2957
3674.703 0.3501 0.1867 0.2187 0.3139 0.3548 0.4217 0.5045 0.452 0.276 0.1957
3693.993 0.2404 0.1652 0.0205 0.07778 0.1662 0.184 0.1252 0.1434 0.2605 0.3459
3713.282 0.4241 0.4125 0.2787 0.2525 0.2509 0.1812 0.1833 0.1986 0.1261 0.07989
3732.572 0.1341 0.0987 0.1662 0.3148 0.3087 0.256 0.2164 0.2666 0.2495 0.2822
3751.862 0.351 0.2327 0.295 0.3834 0.2836 0.2454 0.2444 0.1825 0.1171 0.1146
3771.152 0.1546 0.1994 0.1959 0.1437 0.089 0.1906 0.3505 0.276 0.2561 0.3027
3790.441 0.235 0.1921 0.2371 0.2679 0.2734 0.239 0.1415 0.108 0.151 0.2001
3809.731 0.1765 0.2062 0.2026 0.1707 0.2349 0.2449 0.1698 0.289 0.3083 0.2497
3829.021 0.3 0.2221 0.2004 0.2607 0.204 0.1813 0.2189 0.1573 0.2274 0.2488
3848.311 0.1988 0.3401 0.4204 0.3591 0.3237 0.2791 0.2722 0.3205 0.2606 0.262
3867.601 0.3333 0.3429 0.2934 0.3272 0.3446 0.2615 0.3014 0.2637 0.1671 0.1943
3886.890 0.1427 0.1578 0.3285 0.3653 0.2596 0.2359 0.3052 0.3366 0.398 0.4451
3906.180 0.4092 0.3666 0.4182 0.4677 0.3896 0.3338 0.3716 0.3779 0.2291 0.181
3925.470 0.2804 0.2323 0.1804 0.2484 0.2305 0.2032 0.3989 0.4269 0.2978 0.2278
3944.760 0.1759 0.2419 0.2431 0.2968 0.4584 0.4237 0.3841 0.3251 0.1525 0.2344
3964.049 0.2978 0.2708 0.2276 0.2314 0.3825 0.4401 0.4841 0.4222 0.2958 0.213
3983.339 0.242 0.324 0.2261 0.2416 0.3633 0.3699 0.3573 0.4209 0.401 0.3213
##END=
