##TITLE=Hydroxypivaldehyde
##JCAMP-DX=4.24
##DATA TYPE=INFRARED SPECTRUM
##ORIGIN=EPA-IR VAPOR PHASE LIBRARY
##OWNER=SRD/NIST
Collection (C) 2018 copyright by the U.S. Secretary of Commerce
on behalf of the United States of America. All rights reserved.
##CAS REGISTRY NO=597-31-9
##MOLFORM=C 5 H 10 O 2
##$NIST SOURCE=MSDC-IR
##STATE=gas
##XUNITS=1/CM
##YUNITS=ABSORBANCE
##XFACTOR=1.
##YFACTOR=0.001
##DELTAX=3.85796
##FIRSTX=501.5
##LASTX=4000.7
##FIRSTY=1.2361
##MAXX=4000.7
##MINX=501.534
##MAXY=0.0168061
##MINY=0
##NPOINTS=908
##XYDATA=(X++(Y..Y))
501.534 1.2361 0.9751 0.9732 0.9845 0.8996 0.7852 0.7478 0.7399 0.6946 0.6234
540.114 0.5642 0.5339 0.5014 0.5561 0.6563 0.5823 0.5302 0.6193 0.6361 0.5638
578.693 0.5112 0.482 0.4449 0.4585 0.5732 0.6275 0.6184 0.6223 0.6253 0.6021
617.273 0.6283 0.6828 0.7142 0.7565 0.7447 0.7388 0.7931 0.7703 0.6761 0.6198
655.852 0.5141 0.3725 0.2812 0.2748 0.2638 0.2381 0.2309 0.2086 0.1701 0.2033
694.432 0.2507 0.2605 0.2523 0.2038 0.224 0.254 0.2995 0.3352 0.3436 0.3741
733.011 0.4148 0.4636 0.5172 0.5897 0.7123 0.8045 0.9135 1.0561 1.0961 1.0961
771.591 1.0861 1.0661 1.001 0.8938 0.7855 0.6934 0.6199 0.5686 0.5428 0.5336
810.170 0.5005 0.5403 0.5816 0.5489 0.5141 0.569 0.6618 0.7206 0.8287 0.9524
848.750 1.1261 1.3661 1.6761 2.0461 2.4761 2.8761 3.2761 3.7161 3.9861 4.0461
887.330 3.9461 3.7661 3.4661 3.1061 2.7861 2.5461 2.3261 2.1361 2.0361 1.9861
925.909 1.9161 1.7661 1.6361 1.5361 1.4961 1.5161 1.4961 1.4561 1.4161 1.4661
964.489 1.5261 1.5861 1.6961 1.7861 1.9061 2.0561 2.2961 2.5161 2.6461 2.7861
1003.068 3.0561 3.3261 3.5461 3.8761 4.2761 4.7661 5.5061 6.5161 7.7261 9.0561
1041.648 10.3961 11.5261 12.3361 12.7361 12.5061 11.6361 10.2161 8.3961 6.6261 4.9961
1080.227 3.6361 2.7261 2.0761 1.6761 1.3361 1.1061 1.0661 1.0244 1.0312 1.1161
1118.807 1.1961 1.2761 1.3261 1.3661 1.4161 1.5161 1.7161 1.8161 1.8461 1.8561
1157.387 1.8561 1.8561 1.8161 1.7661 1.7161 1.6561 1.5561 1.5761 1.5261 1.4661
1195.966 1.4761 1.4361 1.4861 1.5261 1.5561 1.5861 1.5861 1.6161 1.5861 1.6261
1234.546 1.6461 1.6461 1.7661 1.8461 1.8961 1.9561 1.9761 1.9461 1.9261 1.9261
1273.125 1.9361 1.9261 1.8461 1.7661 1.7561 1.6761 1.5861 1.5161 1.4361 1.3761
1311.705 1.3261 1.3161 1.3061 1.3061 1.3461 1.3561 1.3861 1.4661 1.5861 1.7461
1350.284 1.9561 2.2161 2.4961 2.7861 3.2261 3.6161 3.6861 3.6661 3.6761 3.5561
1388.864 3.3461 3.1461 2.9461 2.7461 2.5861 2.3961 2.1761 2.0061 1.8161 1.6361
1427.443 1.4961 1.4361 1.4761 1.5861 1.7761 2.0261 2.3161 2.6361 2.9561 3.2561
1466.023 3.4261 3.4861 3.5161 3.2761 2.8161 2.4761 2.0761 1.6161 1.2161 0.9062
1504.603 0.7178 0.5684 0.4802 0.4174 0.3618 0.3363 0.3471 0.3412 0.3024 0.2503
1543.182 0.2399 0.2708 0.2663 0.2373 0.221 0.2436 0.2545 0.2321 0.227 0.2318
1581.762 0.2323 0.2564 0.2508 0.2216 0.2348 0.2589 0.2683 0.264 0.2757 0.2767
1620.341 0.2688 0.3138 0.3616 0.3908 0.4208 0.4599 0.5055 0.5546 0.6153 0.694
1658.921 0.7685 0.8765 0.9771 1.0761 1.2061 1.3161 1.4661 1.6661 1.8761 2.1261
1697.500 2.5061 3.0261 3.8061 4.9761 6.5461 8.5161 10.6261 12.5861 14.5161 16.1061
1736.080 16.8061 16.7661 16.2161 14.8261 12.7361 10.5761 8.7161 7.2061 6.0061 5.0561
1774.659 4.2761 3.6261 3.0461 2.5361 2.1261 1.7861 1.5161 1.2761 1.0661 0.9049
1813.239 0.7673 0.6447 0.5596 0.4874 0.4181 0.3683 0.3302 0.3026 0.2791 0.2478
1851.819 0.2473 0.2604 0.2547 0.2421 0.2194 0.207 0.2011 0.1776 0.1641 0.1667
1890.398 0.1491 0.13381 0.13171 0.11907 0.10891 0.11793 0.12396 0.1199 0.11917 0.12157
1928.978 0.1176 0.10387 0.10856 0.13101 0.1394 0.1362 0.13437 0.1365 0.13191 0.12717
1967.557 0.12455 0.1399 0.1381 0.12496 0.1188 0.11587 0.12627 0.13513 0.1452 0.1365
2006.137 0.12369 0.11215 0.11463 0.13319 0.1532 0.1567 0.1607 0.1845 0.1925 0.2028
2044.716 0.1885 0.1679 0.1724 0.1855 0.2012 0.186 0.1936 0.1997 0.1936 0.2149
2083.296 0.2078 0.2039 0.2034 0.1976 0.2095 0.2062 0.2064 0.1952 0.1822 0.1725
2121.875 0.1534 0.1615 0.1593 0.1515 0.1464 0.1362 0.11687 0.09964 0.09904 0.10741
2160.455 0.12622 0.12152 0.09679 0.08888 0.09918 0.097 0.08719 0.06871 0.08103 0.09271
2199.035 0.06631 0.05816 0.0757 0.07286 0.05092 0.05642 0.06846 0.07899 0.10014 0.10036
2237.614 0.08705 0.08225 0.08429 0.09535 0.10625 0.10743 0.08138 0.08041 0.09888 0.07576
2276.194 0.05637 0.06072 0.07524 0.09725 0.09528 0.0901 0.09113 0.08435 0.08448 0.08291
2314.773 0.08832 0.08718 0.07981 0.09661 0.11307 0.10693 0.10898 0.12009 0.11835 0.08817
2353.353 0.07089 0.10374 0.1066 0.08543 0.08814 0.09587 0.09365 0.07882 0.05553 0.08293
2391.932 0.1224 0.12318 0.1274 0.1368 0.13084 0.12933 0.11601 0.08701 0.08526 0.09297
2430.512 0.0824 0.06891 0.08284 0.10132 0.08148 0.05773 0.09158 0.11706 0.09916 0.09298
2469.092 0.10023 0.09818 0.10658 0.10947 0.11364 0.09615 0.07229 0.08454 0.11273 0.13117
2507.671 0.12044 0.12201 0.12893 0.11626 0.10985 0.11512 0.11753 0.10754 0.09919 0.12723
2546.251 0.15 0.1442 0.1378 0.1557 0.173 0.1729 0.1785 0.1666 0.1825 0.2245
2584.830 0.2316 0.2532 0.2784 0.2871 0.317 0.3798 0.448 0.4886 0.5425 0.6219
2623.410 0.6429 0.7107 0.8316 0.9062 0.9693 1.0561 1.1661 1.2761 1.3861 1.5161
2661.989 1.6861 1.8361 2.0461 2.3761 2.7661 3.2561 3.7961 4.3461 4.8561 5.2561
2700.569 5.5861 5.7461 5.6161 5.2261 4.7761 4.3161 3.8561 3.4461 3.1161 2.9261
2739.148 2.8061 2.7461 2.7061 2.7161 2.7461 2.7761 2.8361 2.9161 2.9961 3.1061
2777.728 3.2361 3.3461 3.5161 3.7061 3.8761 4.0361 4.1361 4.1461 4.0761 3.9361
2816.308 3.7361 3.4861 3.2561 3.1061 2.9961 2.9061 2.8861 2.9461 3.0861 3.3561
2854.887 3.6661 4.1061 4.7061 5.3561 5.9361 6.4761 6.9561 7.2261 7.0961 6.7361
2893.467 6.4861 6.3461 6.1761 6.1161 6.2361 6.4361 6.7761 7.1661 7.5261 7.8661
2932.046 8.1261 8.4061 8.6361 8.6261 8.6261 8.8561 9.1661 9.5361 10.0361 10.5961
2970.626 10.7161 10.2361 9.4761 8.5561 7.4061 6.0061 4.5961 3.4361 2.5361 1.8461
3009.205 1.3561 1.0561 0.8307 0.7021 0.5975 0.4749 0.4518 0.4884 0.4616 0.4187
3047.785 0.3911 0.3549 0.3562 0.3728 0.3792 0.3905 0.394 0.3758 0.3401 0.3297
3086.364 0.3232 0.3632 0.3906 0.3919 0.401 0.3344 0.2882 0.3392 0.3693 0.3148
3124.944 0.2636 0.2768 0.2719 0.2511 0.2423 0.2173 0.2384 0.2392 0.248 0.248
3163.524 0.2163 0.2393 0.2706 0.2276 0.2124 0.2447 0.2132 0.1927 0.203 0.1686
3202.103 0.133 0.1531 0.10929 0.05448 0.07144 0.08752 0.09279 0.1407 0.13523 0.04766
3240.683 0.035909 0.06183 0.06712 0.09139 0.09857 0.05272 0.0204 0.07951 0.10183 0.040348
3279.262 0.0595 0.08662 0.07539 0.0862 0.10504 0.11029 0.08999 0.08647 0.10307 0.09565
3317.842 0.045536 0.06129 0.11425 0.13047 0.1171 0.07822 0.05668 0.04998 0.08991 0.1073
3356.421 0.10098 0.13274 0.11021 0.0788 0.12364 0.1391 0.12165 0.12177 0.09534 0.10876
3395.001 0.145 0.10116 0.11452 0.0986 0.11018 0.1966 0.2005 0.2361 0.257 0.2724
3433.580 0.2795 0.298 0.3561 0.4222 0.4572 0.4519 0.494 0.5089 0.4893 0.4342
3472.160 0.392 0.3825 0.3575 0.3336 0.3405 0.338 0.2857 0.311 0.2876 0.2144
3510.740 0.2092 0.2307 0.2579 0.2465 0.2228 0.2319 0.2671 0.284 0.3001 0.3281
3549.319 0.3366 0.3053 0.2856 0.282 0.2758 0.2955 0.3188 0.303 0.3195 0.4127
3587.899 0.5263 0.6271 0.6874 0.8062 0.9688 1.1261 1.3361 1.5961 1.7561 1.7861
3626.478 1.7961 1.7361 1.6961 1.7061 1.6461 1.6061 1.6561 1.7361 1.8861 2.0861
3665.058 2.1861 2.1661 2.1061 2.0161 1.8361 1.6561 1.4461 1.1761 0.9337 0.7925
3703.637 0.682 0.5603 0.4819 0.4053 0.3851 0.3557 0.3052 0.3204 0.3029 0.2585
3742.217 0.2386 0.2216 0.2249 0.23 0.1971 0.2138 0.21 0.1738 0.1456 0.1491
3780.797 0.1632 0.1647 0.1851 0.2101 0.2335 0.2095 0.1815 0.12438 0.1605 0.1918
3819.376 0.13193 0.1913 0.191 0.13019 0.1543 0.1738 0.1726 0.1989 0.1826 0.1527
3857.956 0.159 0.13394 0.11899 0.1497 0.11893 0.10551 0.1834 0.2136 0.1963 0.2002
3896.535 0.1954 0.216 0.1742 0.11143 0.1394 0.09311 0.1412 0.2174 0.1641 0.122
3935.115 0.11506 0.11472 0.09526 0.10052 0.08456 0.07278 0.13041 0.1468 0.09278 0.05608
3973.694 0.06119 0.11336 0.11934 0.09891 0.06261 0 0.041397 0.11778
##END=
