##TITLE=3-Methyl-3-hexanol
##JCAMP-DX=4.24
##DATA TYPE=INFRARED SPECTRUM
##ORIGIN=NIST Mass Spectrometry Data Center
##OWNER=NIST Standard Reference Data Program
Collection (C) 2018 copyright by the U.S. Secretary of Commerce
on behalf of the United States of America. All rights reserved.
##CAS REGISTRY NO=597-96-6
##MOLFORM=C 7 H 16 O
##$NIST SOURCE=MSDC-IR
##SPECTROMETER/DATA SYSTEM=HP-GC/MS/IRD
##STATE=gas
##XUNITS=1/CM
##YUNITS=ABSORBANCE
##XFACTOR=1.0
##YFACTOR=0.000002700
##DELTAX=4.0
##FIRSTX=550.0
##LASTX=3846.0
##FIRSTY=0.000524
##MAXX=3846
##MINX=550
##MAXY=0.027
##MINY=0
##NPOINTS=825
##XYDATA=(X++(Y..Y))
550.0 194 161 137 115 91 107 117 109 93 91
590.0 97 93 76 51 39 36 51 34 9 43
630.0 55 43 58 62 53 38 57 72 56 46
670.0 53 62 56 63 46 42 63 61 55 53
710.0 71 86 104 119 136 152 162 166 168 164
750.0 155 149 130 120 117 103 127 147 147 163
790.0 182 185 176 154 123 106 92 90 113 131
830.0 134 146 186 219 257 320 385 427 449 462
870.0 466 475 493 532 587 662 752 859 967 1071
910.0 1143 1161 1136 1096 1027 960 899 825 731 655
950.0 587 520 474 470 492 550 644 751 866 970
990.0 1040 1061 1026 960 873 776 692 629 571 535
1030.0 542 557 557 566 590 608 618 620 615 604
1070.0 595 588 590 578 570 579 586 601 635 690
1110.0 764 862 985 1114 1244 1356 1461 1554 1634 1717
1150.0 1808 1906 1975 2001 1978 1916 1799 1665 1524 1365
1190.0 1216 1079 966 874 805 769 749 733 742 768
1230.0 791 814 834 857 872 883 907 919 923 922
1270.0 913 905 893 883 878 872 859 842 826 806
1310.0 784 769 749 739 743 743 752 773 804 848
1350.0 902 976 1073 1214 1364 1526 1671 1739 1716 1607
1390.0 1414 1180 940 737 600 512 462 445 455 483
1430.0 528 603 714 848 1006 1173 1319 1440 1495 1460
1470.0 1355 1188 988 787 618 475 367 293 248 221
1510.0 189 166 152 140 126 115 113 115 112 109
1550.0 100 94 105 95 78 78 77 80 70 65
1590.0 66 62 65 60 57 60 61 60 55 50
1630.0 50 53 52 56 55 54 55 40 38 45
1670.0 46 43 40 44 41 37 41 45 41 32
1710.0 28 32 32 24 25 31 32 29 24 19
1750.0 17 11 9 11 15 21 17 12 16 17
1790.0 20 24 20 17 15 11 12 11 13 17
1830.0 17 14 14 19 17 16 18 16 16 15
1870.0 17 18 16 13 9 5 5 6 8 7
1910.0 4 5 10 12 8 7 7 8 6 4
1950.0 9 8 4 1 3 6 1 2 10 11
1990.0 3 0 5 6 4 5 9 12 6 4
2030.0 9 15 18 17 13 13 15 20 18 16
2070.0 18 22 17 14 16 15 15 17 19 16
2110.0 15 19 16 17 15 16 18 16 11 9
2150.0 13 13 13 23 22 14 13 15 20 21
2190.0 18 14 15 18 12 9 12 17 18 17
2230.0 18 16 16 15 13 15 23 29 22 16
2270.0 19 16 15 16 18 23 22 19 19 15
2310.0 16 20 16 20 23 22 24 27 31 31
2350.0 28 26 26 24 22 17 21 25 29 34
2390.0 34 29 26 29 28 26 25 26 22 20
2430.0 18 16 20 23 19 15 13 11 11 13
2470.0 12 8 10 13 17 18 17 20 17 12
2510.0 9 10 17 19 19 17 14 17 18 17
2550.0 16 18 18 23 28 31 30 30 35 41
2590.0 40 41 42 43 43 46 51 50 45 44
2630.0 47 53 60 65 64 69 73 69 63 56
2670.0 53 52 61 67 67 69 72 76 78 87
2710.0 91 96 109 120 137 149 154 164 175 184
2750.0 194 189 173 170 166 165 175 188 204 221
2790.0 237 251 273 299 326 359 398 441 488 549
2830.0 630 722 837 981 1146 1321 1505 1714 1933 2202
2870.0 2548 2956 3336 3634 3832 3903 3893 3847 3844 3935
2910.0 4147 4470 4889 5378 5904 6410 6822 7096 7209 7211
2950.0 7264 7510 8044 8806 9561 10000 9870 9146 7919 6401
2990.0 4909 3638 2648 1940 1462 1146 943 816 726 659
3030.0 597 542 508 478 442 411 388 365 340 326
3070.0 324 317 298 289 275 263 257 237 232 211
3110.0 196 192 179 171 169 162 158 153 145 143
3150.0 143 130 115 114 107 103 107 104 99 94
3190.0 93 96 88 73 74 74 69 65 63 57
3230.0 51 50 40 33 34 34 38 36 23 23
3270.0 31 34 30 20 17 20 24 26 25 27
3310.0 18 16 25 22 19 15 17 25 22 17
3350.0 21 13 9 19 29 34 36 30 26 27
3390.0 26 27 30 34 31 31 41 42 36 38
3430.0 43 46 44 45 43 36 31 34 34 23
3470.0 17 21 26 31 30 26 27 29 27 25
3510.0 15 11 19 23 14 8 21 24 23 20
3550.0 19 23 26 30 35 30 19 12 9 19
3590.0 27 27 43 58 73 78 92 140 202 283
3630.0 384 465 523 561 535 462 375 288 203 148
3670.0 108 82 54 35 36 37 28 25 34 36
3710.0 37 30 19 19 10 8 10 2 22 25
3750.0 21 28 24 27 29 28 20 1 2 15
3790.0 22 21 19 28 34 36 44 42 37 40
3830.0 36 41 46 32 24
##END=
