##TITLE=3-Ethyl-3-hexanol
##JCAMP-DX=4.24
##DATA TYPE=INFRARED SPECTRUM
##ORIGIN=NIST Mass Spectrometry Data Center
##OWNER=NIST Standard Reference Data Program
Collection (C) 2018 copyright by the U.S. Secretary of Commerce
on behalf of the United States of America. All rights reserved.
##CAS REGISTRY NO=597-76-2
##MOLFORM=C 8 H 18 O
##$NIST SOURCE=MSDC-IR
##SPECTROMETER/DATA SYSTEM=HP-GC/MS/IRD
##STATE=gas
##XUNITS=1/CM
##YUNITS=ABSORBANCE
##XFACTOR=1.0
##YFACTOR=0.000003900
##DELTAX=4.0
##FIRSTX=550.0
##LASTX=3846.0
##FIRSTY=0.000675
##MAXX=3846
##MINX=550
##MAXY=0.039
##MINY=0
##NPOINTS=825
##XYDATA=(X++(Y..Y))
550.0 173 126 88 72 61 60 70 67 53 62
590.0 68 49 49 37 22 15 0 9 5 5
630.0 13 3 10 20 11 6 9 2 5 13
670.0 5 14 35 26 17 18 6 7 23 37
710.0 47 61 71 77 84 81 78 80 76 79
750.0 75 59 54 66 74 86 103 120 143 151
790.0 154 170 173 163 143 126 112 91 101 106
830.0 88 101 120 150 199 244 282 324 351 365
870.0 373 388 413 431 444 458 465 470 467 460
910.0 466 484 519 594 714 875 1066 1271 1491 1709
950.0 1881 1955 1924 1827 1698 1549 1378 1199 1022 842
990.0 677 543 443 392 369 370 385 399 416 435
1030.0 445 446 443 438 425 420 408 397 396 396
1070.0 398 411 424 434 448 462 478 496 524 561
1110.0 622 700 786 883 984 1080 1153 1231 1313 1395
1150.0 1482 1554 1561 1504 1388 1234 1065 902 768 663
1190.0 583 524 487 469 460 464 487 517 551 586
1230.0 631 672 708 745 771 786 798 802 789 770
1270.0 752 737 726 719 713 702 699 695 676 657
1310.0 640 621 602 580 570 567 570 590 619 652
1350.0 697 742 786 837 886 944 1009 1059 1088 1069
1390.0 989 860 718 594 501 439 410 404 414 448
1430.0 514 614 743 902 1096 1301 1493 1633 1681 1639
1470.0 1498 1281 1041 812 617 464 350 282 239 214
1510.0 191 171 156 146 137 132 127 117 108 102
1550.0 101 102 100 93 89 87 82 78 78 75
1590.0 73 70 65 65 65 57 54 58 53 46
1630.0 46 49 48 45 44 43 42 40 31 26
1670.0 27 30 29 31 31 27 26 27 21 17
1710.0 12 15 17 5 3 9 8 5 4 5
1750.0 9 10 8 4 4 4 3 3 0 4
1790.0 7 3 4 7 9 9 5 5 7 7
1830.0 6 7 5 5 3 3 5 5 2 3
1870.0 3 1 4 5 2 4 6 4 7 10
1910.0 8 8 10 11 8 5 6 7 4 4
1950.0 8 8 5 4 5 3 5 4 2 3
1990.0 3 0 3 3 2 5 5 8 6 5
2030.0 8 9 8 6 8 9 5 4 6 5
2070.0 5 7 9 10 9 6 4 5 7 7
2110.0 6 2 0 2 4 7 5 5 4 4
2150.0 3 2 1 5 8 5 3 4 3 4
2190.0 5 2 0 2 3 3 4 4 3 6
2230.0 10 9 7 7 10 11 10 9 10 6
2270.0 3 0 4 8 6 6 9 7 5 5
2310.0 5 8 15 19 16 16 16 20 15 9
2350.0 12 16 18 20 20 19 19 20 21 20
2390.0 21 21 23 25 27 27 25 21 19 21
2430.0 17 14 13 10 7 5 4 8 7 0
2470.0 1 4 5 3 3 6 10 9 7 8
2510.0 7 4 2 6 13 11 8 8 9 9
2550.0 8 11 14 16 20 20 24 28 28 33
2590.0 37 37 38 39 37 40 45 46 45 47
2630.0 54 57 56 55 56 56 60 58 53 61
2670.0 62 59 59 59 60 66 73 77 81 86
2710.0 92 101 106 112 127 146 164 182 199 203
2750.0 200 198 198 193 189 193 205 213 223 238
2790.0 254 276 296 313 338 367 405 443 484 536
2830.0 603 682 785 918 1080 1274 1495 1738 1996 2281
2870.0 2641 3068 3508 3889 4120 4184 4104 3945 3826 3827
2910.0 3987 4305 4750 5331 6031 6782 7493 8040 8306 8309
2950.0 8198 8184 8458 9015 9658 10000 9650 8645 7211 5605
2990.0 4158 3041 2264 1739 1377 1129 964 850 765 698
3030.0 639 583 538 500 471 451 426 404 385 368
3070.0 357 349 331 305 293 286 273 264 254 236
3110.0 224 213 197 183 171 163 152 145 143 136
3150.0 128 122 114 110 110 104 99 100 91 81
3190.0 77 68 64 63 56 48 46 40 41 43
3230.0 34 27 25 19 11 14 17 15 16 20
3270.0 24 18 17 21 20 21 26 24 20 13
3310.0 8 12 12 8 5 3 1 8 12 15
3350.0 13 12 13 9 7 14 15 17 25 23
3390.0 17 19 24 21 19 22 23 32 32 23
3430.0 18 20 20 21 35 35 25 22 23 26
3470.0 26 23 22 26 22 20 24 27 26 23
3510.0 17 18 15 16 20 15 12 13 17 21
3550.0 19 18 18 17 21 19 12 17 18 18
3590.0 22 26 27 32 46 63 82 114 166 239
3630.0 327 407 474 512 488 404 310 228 156 106
3670.0 77 59 47 36 35 35 28 28 26 30
3710.0 36 33 27 27 26 26 34 29 24 24
3750.0 28 28 24 25 21 20 21 23 30 30
3790.0 26 28 31 30 29 31 33 36 41 36
3830.0 32 34 45 46 37
##END=
