##TITLE=4-Ethyl-4-heptanol
##JCAMP-DX=4.24
##DATA TYPE=INFRARED SPECTRUM
##ORIGIN=NIST Mass Spectrometry Data Center
##OWNER=NIST Standard Reference Data Program
Collection (C) 2018 copyright by the U.S. Secretary of Commerce
on behalf of the United States of America. All rights reserved.
##CAS REGISTRY NO=597-90-0
##MOLFORM=C 9 H 20 O
##$NIST SOURCE=MSDC-IR
##SPECTROMETER/DATA SYSTEM=HP-GC/MS/IRD
##STATE=gas
##XUNITS=1/CM
##YUNITS=ABSORBANCE
##XFACTOR=1.0
##YFACTOR=0.000004800
##DELTAX=4.0
##FIRSTX=550.0
##LASTX=3846.0
##FIRSTY=0.000427
##MAXX=3846
##MINX=550
##MAXY=0.048
##MINY=0
##NPOINTS=825
##XYDATA=(X++(Y..Y))
550.0 89 58 34 42 39 40 60 57 51 48
590.0 56 59 38 23 18 16 14 14 7 3
630.0 2 5 5 2 7 8 6 6 4 5
670.0 9 13 22 19 17 26 31 35 38 30
710.0 34 43 53 70 83 98 121 134 137 145
750.0 144 131 119 119 115 114 124 139 156 172
790.0 188 188 181 166 144 130 125 117 104 113
830.0 134 160 207 255 299 346 387 404 405 397
870.0 377 358 348 347 365 395 422 442 447 436
910.0 406 366 327 297 286 300 340 415 523 648
950.0 767 885 983 1050 1104 1150 1175 1169 1132 1066
990.0 972 845 710 584 472 387 335 312 303 308
1030.0 320 328 326 331 328 321 319 323 333 341
1070.0 356 374 393 413 419 425 438 447 454 470
1110.0 514 576 647 739 834 937 1036 1119 1192 1270
1150.0 1341 1379 1356 1264 1126 974 826 697 599 526
1190.0 467 435 416 409 415 431 453 475 505 541
1230.0 569 590 618 636 648 661 666 668 672 668
1270.0 658 653 653 649 651 647 636 633 621 600
1310.0 585 571 554 540 526 521 521 530 547 567
1350.0 600 638 682 729 778 837 891 938 960 931
1390.0 847 729 611 518 451 409 388 385 394 428
1430.0 488 576 685 814 969 1132 1292 1421 1475 1451
1470.0 1333 1125 892 675 498 376 294 243 208 187
1510.0 165 150 145 136 124 116 111 112 110 100
1550.0 91 88 90 83 75 70 67 67 59 55
1590.0 54 52 50 50 54 53 50 47 46 48
1630.0 47 47 43 39 39 41 41 34 32 30
1670.0 28 26 24 28 28 20 22 29 25 18
1710.0 17 23 24 16 12 16 17 12 8 6
1750.0 10 11 7 4 6 7 4 2 4 3
1790.0 2 4 5 5 5 6 6 5 4 6
1830.0 7 6 6 6 5 2 2 2 1 0
1870.0 1 0 2 2 2 3 2 0 0 1
1910.0 1 3 2 3 2 3 2 1 1 4
1950.0 6 3 3 1 0 0 0 1 1 3
1990.0 4 2 1 3 1 1 4 1 4 7
2030.0 8 10 11 12 12 10 11 11 13 13
2070.0 11 12 10 9 8 6 7 9 9 6
2110.0 3 3 9 10 7 7 11 10 10 9
2150.0 9 12 10 9 7 5 7 9 9 11
2190.0 14 11 8 9 11 9 8 8 7 11
2230.0 9 7 7 5 7 10 12 10 6 6
2270.0 8 9 7 7 9 8 11 10 3 3
2310.0 9 9 10 15 16 16 16 18 20 19
2350.0 20 22 25 23 23 26 24 24 22 20
2390.0 22 24 23 22 24 26 26 25 21 18
2430.0 18 19 18 16 16 15 10 3 3 7
2470.0 9 8 8 6 6 7 11 12 10 13
2510.0 16 14 13 16 18 19 18 18 19 21
2550.0 22 21 25 27 31 35 35 38 45 47
2590.0 47 48 48 49 51 51 50 52 57 59
2630.0 60 62 63 67 70 68 67 69 70 67
2670.0 69 73 79 80 81 84 87 94 101 104
2710.0 109 113 118 126 141 165 184 196 207 210
2750.0 207 200 195 190 184 191 204 216 227 237
2790.0 250 269 287 311 340 369 402 440 485 543
2830.0 609 695 808 953 1127 1323 1535 1749 1985 2283
2870.0 2700 3234 3756 4118 4236 4124 3867 3634 3560 3666
2910.0 3924 4285 4707 5199 5785 6460 7154 7700 7952 7898
2950.0 7737 7815 8388 9288 10000 9982 8983 7321 5549 4027
2990.0 2930 2199 1717 1391 1164 1002 889 798 728 673
3030.0 625 579 533 494 458 422 392 373 351 326
3070.0 310 295 282 268 252 241 230 217 206 200
3110.0 187 180 175 167 158 151 145 137 130 126
3150.0 121 115 113 110 103 102 98 91 87 86
3190.0 82 78 74 69 66 60 56 45 39 42
3230.0 37 34 29 26 27 26 28 26 21 22
3270.0 24 24 29 20 14 18 23 24 18 17
3310.0 18 15 13 15 12 7 2 7 10 9
3350.0 15 17 20 22 18 19 15 12 18 20
3390.0 18 22 24 22 24 26 27 28 28 22
3430.0 20 22 21 16 16 18 16 17 22 20
3470.0 17 13 10 12 16 16 14 13 15 11
3510.0 9 7 4 14 16 10 7 4 5 11
3550.0 16 17 10 8 16 13 11 14 15 18
3590.0 16 15 20 26 30 41 60 91 136 194
3630.0 269 346 408 441 408 324 239 166 109 80
3670.0 67 53 44 33 31 34 26 21 19 21
3710.0 24 20 18 23 32 30 29 26 25 30
3750.0 31 23 17 19 21 22 19 17 18 19
3790.0 21 23 32 35 30 29 30 32 31 28
3830.0 37 40 36 31 26
##END=
