##TITLE=4-Bromo-2-chlorobenzoic acid
##JCAMP-DX=4.24
##DATA TYPE=INFRARED SPECTRUM
##ORIGIN=EPA-IR VAPOR PHASE LIBRARY
##OWNER=SRD/NIST
Collection (C) 2018 copyright by the U.S. Secretary of Commerce
on behalf of the United States of America. All rights reserved.
##CAS REGISTRY NO=59748-90-2
##MOLFORM=C 7 H 4 Br Cl O 2
##$NIST SOURCE=MSDC-IR
##STATE=gas
##XUNITS=1/CM
##YUNITS=ABSORBANCE
##XFACTOR=1.
##YFACTOR=0.001
##DELTAX=1.92898
##FIRSTX=549.8
##LASTX=4000.7
##FIRSTY=32.176
##MAXX=4000.7
##MINX=549.759
##MAXY=0.239816
##MINY=0
##NPOINTS=1790
##XYDATA=(X++(Y..Y))
549.759 32.176 32.936 33.766 34.156 33.316 32.806 32.686 31.766 30.916 30.406
569.049 29.936 29.606 29.826 30.006 29.716 29.526 27.986 26.086 24.826 22.926
588.339 21.516 20.166 18.476 17.516 16.516 15.686 14.916 14.146 13.586 12.926
607.628 12.126 11.506 10.516 9.506 8.736 8.156 8.396 7.796 7.296 7.276
626.918 6.946 6.646 6.496 6.636 6.686 6.876 7.166 7.456 8.456 10.706
646.208 14.626 18.906 21.976 23.696 24.436 24.366 22.146 17.736 13.596 10.886
665.498 9.536 9.386 9.596 9.956 10.406 11.116 12.546 14.316 16.266 18.356
684.787 20.576 23.086 25.806 27.786 29.316 31.216 33.266 34.776 35.056 34.426
704.077 33.216 30.746 26.996 22.686 18.096 14.266 11.606 9.366 7.846 6.896
723.367 6.216 5.476 4.856 4.496 4.226 4.186 4.146 4.356 4.766 5.156
742.657 5.736 6.576 7.296 7.976 8.946 10.626 12.756 14.996 17.606 20.516
761.947 23.686 26.896 29.676 32.696 35.816 36.286 34.086 32.106 30.486 28.676
781.236 26.656 24.946 23.746 23.096 23.456 25.026 27.446 31.526 37.676 45.926
800.526 57.356 71.746 87.036 99.926 107.846 109.216 103.876 92.486 76.036 57.596
819.816 42.546 33.486 28.726 26.576 25.936 24.996 23.166 21.236 19.056 16.766
839.106 14.846 12.956 11.206 9.876 8.736 7.906 7.346 7.116 7.246 7.646
858.395 8.616 9.846 11.186 12.746 14.156 15.726 17.216 18.176 18.306 16.426
877.685 13.936 12.386 10.676 8.466 6.806 5.926 4.866 3.966 3.546 3.456
896.975 3.576 3.486 3.336 3.136 2.876 2.636 2.516 2.306 2.316 2.476
916.265 2.596 2.776 2.726 2.876 2.946 2.886 2.996 2.676 2.506 2.556
935.555 2.496 2.486 2.146 2.046 2.476 2.546 2.246 2.406 2.706 2.726
954.844 2.446 2.776 2.996 2.716 2.816 2.716 2.686 2.596 2.666 2.716
974.134 2.716 2.956 3.146 3.096 3.096 3.576 3.486 3.146 3.406 3.856
993.424 4.186 4.446 4.576 4.676 4.846 5.296 5.906 6.606 7.206 7.876
1012.714 9.056 9.916 11.106 12.816 14.976 18.256 22.126 26.946 33.176 41.226
1032.003 51.406 62.996 74.726 84.496 90.226 91.376 89.446 85.106 76.586 64.496
1051.293 52.676 43.306 37.006 33.426 31.686 31.406 31.916 33.236 36.146 40.356
1070.583 46.006 52.656 60.766 71.186 82.276 92.626 101.596 107.936 111.156 110.226
1089.873 106.206 101.786 97.486 95.476 99.356 107.126 116.316 125.606 130.416 130.396
1109.163 125.496 114.856 99.826 83.396 68.446 56.856 48.726 43.456 39.516 37.006
1128.452 35.876 34.616 33.726 34.296 35.466 35.966 37.116 38.266 39.426 40.486
1147.742 39.556 38.246 37.906 36.466 34.046 32.406 32.646 34.826 38.546 44.066
1167.032 51.076 59.486 69.556 80.056 89.146 97.266 104.256 108.896 109.726 105.766
1186.322 98.796 89.646 79.496 69.166 58.486 49.336 42.086 36.846 32.656 28.896
1205.611 26.686 24.816 23.016 21.536 20.406 19.446 18.566 17.716 16.446 15.966
1224.901 16.066 15.546 15.666 15.656 15.636 15.646 15.236 15.266 15.116 15.276
1244.191 15.886 16.006 16.126 16.216 16.476 17.016 17.626 18.446 19.346 20.036
1263.481 20.246 20.766 21.226 21.766 22.336 22.526 22.766 23.016 23.226 23.286
1282.771 23.196 23.536 24.106 24.286 24.706 25.536 26.406 27.486 28.946 30.666
1302.060 32.406 34.306 36.456 38.786 41.376 44.086 46.846 49.606 52.236 54.386
1321.350 55.906 56.756 56.626 55.546 53.636 50.926 47.756 44.336 40.776 37.546
1340.640 34.856 32.656 31.256 30.786 31.286 32.786 35.036 37.756 40.556 43.246
1359.930 45.976 48.516 50.376 51.786 53.076 54.246 55.406 56.556 57.586 58.326
1379.219 58.586 58.336 57.356 55.616 53.216 50.246 46.776 43.046 39.226 35.196
1398.509 31.086 26.976 23.016 19.376 16.316 14.156 12.536 11.376 10.766 10.336
1417.799 10.066 9.956 9.946 10.046 10.006 9.956 9.886 9.776 9.606 9.396
1437.089 9.386 9.346 9.216 9.176 9.346 9.736 10.266 10.836 11.666 12.916
1456.378 14.596 16.656 18.986 21.836 25.306 29.176 33.056 36.256 37.836 37.406
1475.668 35.336 31.906 27.036 21.296 16.066 12.096 9.276 7.586 6.556 5.926
1494.958 5.466 5.186 5.126 5.056 5.106 5.326 5.596 5.996 6.336 6.576
1514.248 6.916 7.266 7.646 7.976 8.366 8.646 8.986 9.606 10.376 11.236
1533.538 12.356 13.876 15.456 17.346 19.526 21.876 24.236 26.236 27.776 28.806
1552.827 29.246 29.226 28.936 28.316 28.006 28.756 31.336 36.376 44.586 56.616
1572.117 72.496 91.456 112.386 131.896 145.166 149.576 144.146 129.946 108.766 83.676
1591.407 59.506 40.616 28.306 21.046 16.836 14.326 12.586 11.036 9.776 8.846
1610.697 8.186 7.606 7.096 6.786 6.596 6.286 6.086 6.056 5.766 5.376
1629.986 5.116 4.816 4.496 4.316 4.226 4.006 3.836 3.826 3.836 3.666
1649.276 3.666 3.886 3.876 3.746 3.656 3.806 4.036 4.036 3.926 3.846
1668.566 3.906 3.956 3.986 4.066 4.116 4.146 4.286 4.506 4.766 4.906
1687.856 5.066 5.426 5.786 6.206 6.656 7.206 7.856 8.496 9.116 9.966
1707.146 11.116 12.376 13.676 15.156 16.876 18.916 21.186 23.546 26.306 29.306
1726.435 32.406 35.786 39.386 43.326 48.026 53.326 59.396 66.846 75.666 86.236
1745.725 98.706 113.246 128.986 144.336 156.676 165.856 174.166 181.416 186.486 191.186
1765.015 199.626 213.746 230.186 239.816 238.196 229.606 216.226 193.236 159.246 125.816
1784.305 102.266 87.396 77.666 70.706 65.496 60.996 56.776 52.236 47.256 41.936
1803.594 36.686 31.856 27.506 23.666 20.406 17.676 15.366 13.376 11.776 10.516
1822.884 9.416 8.506 7.796 7.236 6.646 6.056 5.586 5.176 4.786 4.476
1842.174 4.276 4.026 3.856 3.706 3.486 3.266 3.246 3.206 2.966 2.766
1861.464 2.736 2.856 2.866 2.696 2.616 2.566 2.566 2.556 2.566 2.606
1880.754 2.586 2.626 2.636 2.716 2.786 2.786 2.856 2.936 3.106 3.196
1900.043 3.266 3.466 3.536 3.536 3.596 3.546 3.396 3.266 3.116 2.946
1919.333 2.776 2.596 2.386 2.166 2.026 1.936 1.776 1.716 1.606 1.506
1938.623 1.466 1.396 1.416 1.476 1.506 1.596 1.566 1.476 1.526 1.556
1957.913 1.526 1.536 1.596 1.566 1.456 1.376 1.376 1.466 1.516 1.446
1977.202 1.526 1.556 1.606 1.726 1.696 1.656 1.726 1.746 1.616 1.506
1996.492 1.466 1.466 1.426 1.336 1.316 1.171 1.0432 1.1202 1.0848 0.9757
2015.782 0.9831 0.9381 0.9221 0.9479 0.8091 0.7527 0.8046 0.8358 0.8119 0.6991
2035.072 0.6214 0.6539 0.6387 0.6353 0.6628 0.6065 0.6287 0.698 0.7776 0.8553
2054.362 0.8366 0.8175 0.8314 0.8918 0.9023 0.833 0.8636 0.9007 0.9377 0.9708
2073.651 0.8725 0.8963 0.9836 0.9197 0.9094 0.9647 0.8989 0.8059 0.8083 0.8359
2092.941 0.8615 0.8384 0.8314 0.8559 0.9001 0.8821 0.8425 0.8576 0.904 0.962
2112.231 0.9152 0.93 1.091 1.1034 1.0696 1.1312 1.1573 1.1615 1.093 1.0645
2131.521 1.0612 1.0376 1.0752 1.0205 1.0013 1.0606 1.0941 1.0965 1.0612 1.0998
2150.810 1.1533 1.0635 1.1061 1.0733 0.9623 1.0051 1.0313 1.0809 1.1058 1.0708
2170.100 1.0031 0.9691 1.0827 1.1784 1.1248 1.0652 1.1592 1.2605 1.1376 1.008
2189.390 0.966 0.9332 1.0191 1.1379 1.0939 1.1202 1.1766 1.1829 1.202 1.1986
2208.680 1.2806 1.326 1.2704 1.223 1.1538 1.0958 1.0253 1.0052 1.0793 1.1653
2227.970 1.2119 1.1464 1.0117 1.0773 1.1697 1.041 0.9416 0.9201 0.9008 0.7889
2247.259 0.8212 1.015 0.9674 0.8552 0.8771 0.9831 1.0423 0.9018 0.8262 0.883
2266.549 1.0253 1.1035 1.0011 0.9929 1.0105 1.0269 1.1185 1.0615 1.0474 1.0834
2285.839 1.0954 1.1603 1.1502 1.1694 1.202 1.1876 1.2139 1.2028 1.0949 1.0574
2305.129 1.021 1.0528 1.1795 1.286 1.306 1.2091 1.2303 1.2809 1.2153 1.156
2324.418 1.2569 1.376 1.366 1.366 1.406 1.386 1.286 1.426 1.496 1.486
2343.708 1.636 1.676 1.676 1.726 1.746 1.716 1.826 1.906 1.896 1.866
2362.998 1.746 1.796 1.836 1.716 1.556 1.546 1.666 1.576 1.436 1.426
2382.288 1.296 1.2488 1.22 1.1158 1.1512 1.1039 1.073 1.1389 1.1792 1.1662
2401.578 1.1578 1.1629 1.1613 1.1589 1.1799 1.2146 1.1988 1.1437 1.0911 1.0883
2420.867 1.0883 1.1593 1.2815 1.336 1.2662 1.1834 1.1609 1.1393 1.0698 1.123
2440.157 1.1715 1.1315 1.0638 0.9894 1.1097 1.1541 1.0381 1.0058 1.0595 1.0355
2459.447 0.9782 0.921 0.9123 0.9271 0.9771 1.0861 0.9629 0.8689 0.9947 1.0712
2478.737 0.9684 0.9144 0.9826 1.0257 1.051 1.0251 1.0024 1.006 0.9555 1.0592
2498.026 1.2176 1.1829 1.1327 1.191 1.278 1.2486 1.2536 1.366 1.396 1.436
2517.316 1.486 1.436 1.466 1.446 1.446 1.446 1.376 1.386 1.376 1.296
2536.606 1.2532 1.2544 1.2193 1.2344 1.2543 1.2251 1.1834 1.0865 1.0272 0.9873
2555.896 1.0685 1.0264 0.8526 0.8905 0.8888 0.9418 0.9721 0.8266 0.7533 0.6693
2575.186 0.7255 0.825 0.7674 0.7525 0.7165 0.6861 0.7527 0.8343 0.7835 0.6598
2594.475 0.6172 0.7367 0.8411 0.9179 0.7769 0.6705 0.7901 0.9213 1.0197 1.0562
2613.765 1.1625 1.1571 1.1071 1.058 0.9762 0.9732 1.0677 0.9688 0.9649 1.0515
2633.055 1.035 1.0872 1.0796 1.0591 1.0093 0.967 0.9589 1.056 1.0735 0.9099
2652.345 0.9863 0.982 0.896 0.9372 0.8993 0.9318 0.8712 0.841 0.9377 0.8962
2671.634 0.8642 0.9424 0.9515 0.9581 1.0184 0.9898 0.8972 0.8346 0.888 0.9245
2690.924 0.8078 0.7916 0.698 0.6653 0.6961 0.6197 0.7465 0.8445 0.7909 0.7096
2710.214 0.7747 0.8927 0.8387 0.8206 0.8342 0.8201 0.7893 0.769 0.8941 0.811
2729.504 0.7133 0.8544 0.9224 0.7719 0.6391 0.5937 0.5758 0.7104 0.7796 0.6441
2748.794 0.5744 0.6235 0.7363 0.755 0.7972 0.7089 0.561 0.6491 0.6536 0.644
2768.083 0.8003 0.9428 0.8436 0.6834 0.6349 0.7125 0.7606 0.7432 0.7267 0.7729
2787.373 0.8349 0.7011 0.6434 0.649 0.6501 0.7833 0.8474 0.9591 0.9522 0.9405
2806.663 0.9219 0.8528 0.9481 0.9618 1.0285 1.0635 0.942 0.9293 0.8995 0.7841
2825.953 0.6572 0.6855 0.9035 0.8995 0.7297 0.7501 0.7302 0.8032 0.8132 0.7131
2845.242 0.7269 0.8255 0.7984 0.8147 0.9319 0.971 1.1469 1.2034 1.155 1.0556
2864.532 0.9475 0.8731 0.944 0.9851 0.9668 0.9193 0.9097 0.9737 0.8017 0.7187
2883.822 0.8653 0.9135 0.9132 0.7994 0.7421 0.8114 0.7114 0.6571 0.7945 0.8323
2903.112 0.7173 0.7337 0.7154 0.6177 0.7381 0.886 0.7805 0.6503 0.7282 0.6837
2922.401 0.5188 0.5416 0.7215 0.8182 0.7731 0.868 0.8179 0.796 0.8743 0.9177
2941.691 0.9165 0.949 1.0068 1.0285 1.0387 0.8649 0.7758 0.8053 0.8901 0.9746
2960.981 0.868 0.9387 1.0358 0.8293 0.7329 0.8318 0.8695 0.7113 0.7301 0.9098
2980.271 0.9296 0.87 0.9432 0.9719 1.005 1.1427 1.1169 1.1066 1.0346 0.9238
2999.561 1.0013 1.0932 1.0675 1.0931 1.1812 1.2562 1.1584 1.0964 1.168 1.2706
3018.850 1.346 1.2346 1.153 1.2487 1.2806 1.1352 1.1248 1.21 1.316 1.2435
3038.140 1.0175 1.1223 1.1369 0.9799 1.0986 1.2239 0.9947 0.8139 0.9489 0.9639
3057.430 0.8421 0.9183 0.9577 1.0082 1.2096 1.2532 1.476 1.716 1.616 1.636
3076.720 1.776 1.646 1.746 1.976 2.146 2.166 1.906 1.916 1.936 1.776
3096.009 1.556 1.456 1.496 1.566 1.556 1.366 1.2556 1.2163 1.0042 0.9793
3115.299 1.2361 1.1292 0.8127 0.7558 0.7752 0.7222 0.8133 0.9123 0.9001 0.9765
3134.589 0.8399 0.7527 0.8018 0.8123 1.0026 0.9709 0.8033 0.8281 0.7013 0.7785
3153.879 0.9017 0.8475 0.9773 0.97 0.7404 0.6746 0.6472 0.6399 0.8126 0.8247
3173.169 0.7931 0.7343 0.6353 0.5674 0.5068 0.6185 0.4742 0.36252 0.38054 0.2715
3192.458 0.32643 0.33529 0.4508 0.4595 0.38209 0.4444 0.32758 0.32193 0.392 0.31228
3211.748 0.31509 0.2224 0.118 0.2721 0.37011 0.2405 0.32838 0.4925 0.28092 0.209
3231.038 0.38347 0.5764 0.6721 0.6203 0.4801 0.3923 0.3927 0.32846 0.38587 0.35954
3250.328 0.4675 0.7148 0.7828 0.6594 0.4492 0.4702 0.4984 0.36455 0.4117 0.4749
3269.617 0.31929 0.4801 0.5628 0.5095 0.5698 0.5428 0.5665 0.4609 0.3336 0.27818
3288.907 0.2666 0.3273 0.38009 0.4007 0.391 0.38251 0.37856 0.34322 0.33842 0.37141
3308.197 0.4046 0.4294 0.33086 0.4323 0.6156 0.4704 0.4331 0.5345 0.4401 0.4017
3327.487 0.555 0.5523 0.6007 0.7346 0.5531 0.4151 0.4789 0.34638 0.2351 0.4438
3346.777 0.6308 0.5021 0.4684 0.5757 0.5523 0.4458 0.4797 0.5338 0.426 0.4338
3366.066 0.4785 0.5397 0.5461 0.4578 0.4585 0.28414 0.28184 0.4046 0.4269 0.5172
3385.356 0.451 0.466 0.4575 0.6496 0.7779 0.7258 0.6061 0.4993 0.6042 0.6762
3404.646 0.6657 0.4441 0.32787 0.6519 0.8105 0.5978 0.5754 0.5668 0.5299 0.5427
3423.936 0.592 0.6603 0.5414 0.5702 0.6558 0.4566 0.4653 0.5314 0.6034 0.6817
3443.225 0.7679 0.7459 0.627 0.763 0.8651 0.848 0.8024 0.7698 0.7608 0.9779
3462.515 1.2209 1.2534 1.2112 1.229 1.107 1.1352 1.2547 1.376 1.536 1.556
3481.805 1.636 1.706 1.986 2.126 2.086 2.416 2.626 2.556 2.556 2.876
3501.095 3.236 3.346 3.376 3.226 3.166 3.326 3.586 3.746 3.916 4.116
3520.385 4.276 4.656 5.086 5.346 5.666 6.066 6.356 6.636 6.886 6.936
3539.674 7.156 7.616 7.896 8.316 8.926 9.656 10.956 13.246 16.826 22.876
3558.964 33.186 49.246 69.996 91.086 106.116 113.426 116.606 114.936 105.436 89.966
3578.254 75.006 63.556 54.186 45.226 35.476 25.486 17.166 11.796 8.736 6.786
3597.544 5.386 4.606 4.146 3.666 3.206 2.936 2.916 2.946 3.016 2.916
3616.833 2.856 2.716 2.316 2.176 2.106 2.046 1.906 1.846 1.846 1.556
3636.123 1.456 1.466 1.516 1.486 1.376 1.386 1.306 1.0981 0.9716 0.9216
3655.413 0.9348 0.9454 0.882 0.8707 0.7296 0.7316 0.7086 0.4122 0.2518 0.3972
3674.703 0.4468 0.34073 0.5008 0.7192 0.8039 0.9945 1.0088 0.9346 0.9947 0.8152
3693.993 0.7152 0.5975 0.36726 0.32667 0.5992 0.6141 0.5613 0.6004 0.6992 0.7794
3713.282 0.6618 0.6421 0.7083 0.713 0.6635 0.8658 0.842 0.688 0.6681 0.5253
3732.572 0.5699 0.8366 0.6755 0.4903 0.6483 0.7349 0.637 0.7911 0.7603 0.6532
3751.862 0.7849 0.6208 0.525 0.5787 0.4406 0.4025 0.578 0.7802 0.6702 0.395
3771.152 0.4291 0.4607 0.4808 0.4566 0.4795 0.5683 0.6393 0.7212 0.6524 0.5491
3790.441 0.4905 0.5569 0.7661 0.883 0.5518 0.3889 0.5478 0.36054 0.288988 0.3952
3809.731 0.4732 0.567 0.4915 0.397 0.4261 0.5427 0.628 0.546 0.4424 0.32827
3829.021 0.217 0.13 0.2093 0.35108 0.4055 0.533 0.286096 0 0.161 0.105
3848.311 0.056 0.30903 0.32334 0.151 0.185 0.452 0.36517 0.4432 0.8438 0.8449
3867.601 0.6494 0.5386 0.6687 0.6111 0.4663 0.6071 0.5593 0.6279 0.8672 0.9077
3886.890 0.8928 0.6564 0.6164 0.7789 0.6301 0.6157 0.7122 0.5985 0.5077 0.7242
3906.180 0.8148 0.78 0.7434 0.5384 0.7706 0.9056 0.7314 0.4599 0.32915 0.37353
3925.470 0.29934 0.34523 0.5687 0.6285 0.4382 0.36083 0.403 0.4545 0.5015 0.461
3944.760 0.4691 0.4565 0.3988 0.4354 0.32216 0.35603 0.61 0.7833 0.7311 0.698
3964.049 0.7072 0.6105 0.5955 0.7566 0.7309 0.5715 0.4796 0.33698 0.4585 0.4664
3983.339 0.35674 0.51 0.6847 0.6439 0.6497 0.7133 0.544 0.4786 0.5067 0.5412
##END=
