##TITLE=4-Methyl-4-heptanol
##JCAMP-DX=4.24
##DATA TYPE=INFRARED SPECTRUM
##ORIGIN=NIST Mass Spectrometry Data Center
##OWNER=NIST Standard Reference Data Program
Collection (C) 2018 copyright by the U.S. Secretary of Commerce
on behalf of the United States of America. All rights reserved.
##CAS REGISTRY NO=598-01-6
##MOLFORM=C 8 H 18 O
##$NIST SOURCE=MSDC-IR
##SPECTROMETER/DATA SYSTEM=HP-GC/MS/IRD
##STATE=gas
##XUNITS=1/CM
##YUNITS=ABSORBANCE
##XFACTOR=1.0
##YFACTOR=0.000006500
##DELTAX=4.0
##FIRSTX=550.0
##LASTX=3846.0
##FIRSTY=0.000345
##MAXX=3846
##MINX=550
##MAXY=0.065
##MINY=0
##NPOINTS=825
##XYDATA=(X++(Y..Y))
550.0 53 72 47 46 39 45 41 38 39 40
590.0 37 27 23 29 24 16 17 17 19 24
630.0 20 11 10 15 14 2 5 18 10 5
670.0 17 20 26 28 29 37 37 43 51 53
710.0 53 62 65 74 90 105 128 147 161 176
750.0 179 173 168 162 158 150 146 147 147 149
790.0 150 151 149 142 139 134 127 119 107 104
830.0 112 126 151 180 217 275 342 407 463 499
870.0 514 514 505 487 473 478 500 523 548 559
910.0 557 564 589 631 690 755 800 801 760 674
950.0 564 464 380 301 242 218 216 228 261 310
990.0 377 451 537 615 658 654 605 531 464 417
1030.0 392 376 374 390 418 446 481 524 546 557
1070.0 567 568 565 564 554 537 526 521 531 567
1110.0 622 688 776 884 1007 1127 1235 1334 1422 1504
1150.0 1592 1661 1693 1678 1613 1516 1394 1269 1143 1020
1190.0 911 814 732 672 636 614 609 621 642 664
1230.0 683 703 721 737 749 759 774 786 794 799
1270.0 800 797 790 782 770 760 744 727 714 701
1310.0 691 682 674 664 657 653 653 661 677 704
1350.0 748 816 914 1042 1185 1333 1457 1516 1484 1360
1390.0 1170 961 767 626 528 464 427 410 414 439
1430.0 484 549 638 745 869 998 1117 1219 1277 1260
1470.0 1179 1029 845 666 510 385 298 240 204 176
1510.0 157 143 129 120 114 107 102 93 88 83
1550.0 78 71 60 56 57 52 49 47 48 50
1590.0 48 46 48 48 49 48 43 40 42 42
1630.0 40 36 35 38 36 28 24 28 30 29
1670.0 26 24 28 23 22 26 22 15 16 16
1710.0 15 12 11 12 11 9 6 7 7 5
1750.0 4 6 6 5 5 5 4 7 8 10
1790.0 10 7 9 8 8 7 4 4 6 7
1830.0 5 7 10 8 8 9 10 10 9 5
1870.0 5 8 8 6 5 6 7 8 8 6
1910.0 7 8 6 7 10 8 8 9 9 8
1950.0 6 3 3 4 2 0 1 3 3 2
1990.0 2 3 5 6 4 3 7 9 8 6
2030.0 7 8 9 11 11 12 9 8 10 11
2070.0 10 8 7 6 5 5 6 9 10 7
2110.0 5 5 8 7 5 3 7 9 3 2
2150.0 4 4 3 5 8 9 8 8 10 6
2190.0 4 9 8 6 7 9 8 6 1 0
2230.0 4 5 7 8 9 10 8 9 8 8
2270.0 9 8 8 14 14 9 10 12 11 13
2310.0 17 18 13 12 14 17 13 9 11 14
2350.0 14 12 12 17 17 15 18 22 25 28
2390.0 26 26 26 26 26 25 25 25 21 19
2430.0 20 16 14 13 13 10 9 10 10 9
2470.0 6 3 5 8 7 8 9 10 12 15
2510.0 17 16 17 18 17 18 19 20 20 17
2550.0 17 19 21 24 30 33 34 35 37 40
2590.0 40 43 47 50 48 47 53 55 57 58
2630.0 59 61 64 68 72 71 69 65 66 73
2670.0 72 67 68 73 75 76 81 85 87 90
2710.0 97 103 112 127 139 158 175 188 200 206
2750.0 204 191 186 184 183 185 192 200 213 227
2790.0 243 258 283 318 349 388 429 469 521 586
2830.0 666 766 900 1059 1229 1402 1568 1738 1926 2189
2870.0 2587 3103 3587 3895 4009 3950 3777 3637 3665 3862
2910.0 4166 4507 4841 5172 5549 6008 6486 6851 7016 7028
2950.0 7066 7368 8099 9122 9907 10000 9280 7900 6254 4731
2990.0 3519 2611 1953 1495 1197 995 857 762 694 641
3030.0 594 549 507 456 408 368 333 303 283 272
3070.0 251 231 220 209 197 185 171 165 166 152
3110.0 150 152 142 140 138 136 133 127 124 122
3150.0 121 114 105 103 103 101 101 102 102 99
3190.0 96 93 82 77 77 72 64 53 49 47
3230.0 42 39 38 39 38 34 29 32 32 30
3270.0 26 25 25 23 24 20 15 16 17 17
3310.0 20 22 17 15 12 8 7 17 25 22
3350.0 18 20 20 22 19 19 23 22 23 26
3390.0 24 27 31 25 23 29 27 23 26 33
3430.0 29 23 24 26 26 29 34 30 24 19
3470.0 16 21 20 19 16 12 19 25 20 8
3510.0 7 11 8 14 12 7 10 4 0 6
3550.0 4 5 4 1 6 10 9 8 13 17
3590.0 16 14 18 30 35 42 67 98 145 215
3630.0 298 379 431 460 433 357 281 199 138 98
3670.0 67 52 41 34 29 22 15 15 21 15
3710.0 8 13 7 5 18 18 8 13 16 9
3750.0 9 12 19 25 24 21 21 20 18 16
3790.0 22 22 21 25 29 33 27 24 27 31
3830.0 39 32 24 18 17
##END=
