##TITLE=Ethyl phenyl sulfone
##JCAMP-DX=4.24
##DATA TYPE=INFRARED SPECTRUM
##ORIGIN=NIST Mass Spectrometry Data Center
##OWNER=NIST Standard Reference Data Program
Collection (C) 2018 copyright by the U.S. Secretary of Commerce
on behalf of the United States of America. All rights reserved.
##CAS REGISTRY NO=599-70-2
##MOLFORM=C 8 H 10 O 2 S
##$NIST SOURCE=MSDC-IR
##SPECTROMETER/DATA SYSTEM=HP-GC/MS/IRD
##STATE=gas
##XUNITS=1/CM
##YUNITS=ABSORBANCE
##XFACTOR=1.0
##YFACTOR=0.000002400
##DELTAX=4.0
##FIRSTX=550.0
##LASTX=3846.0
##FIRSTY=0.002270
##MAXX=3846
##MINX=550
##MAXY=0.024
##MINY=0
##NPOINTS=825
##XYDATA=(X++(Y..Y))
550.0 946 1425 843 664 589 660 861 1330 1905 2223
590.0 2232 1910 1216 611 332 232 196 174 171 180
630.0 158 159 170 211 275 280 326 431 595 861
670.0 1228 1663 2134 2580 2902 3028 2840 2462 2148 2060
710.0 2348 3103 4195 5177 5461 4924 3786 2469 1559 1177
750.0 1171 1357 1542 1675 1791 1966 2216 2431 2476 2275
790.0 1832 1294 853 581 410 308 235 168 148 132
830.0 107 95 94 97 89 73 67 68 55 55
870.0 54 37 29 30 38 29 8 13 22 11
910.0 9 30 33 28 46 40 24 32 35 42
950.0 39 32 42 57 82 95 111 134 147 154
990.0 168 191 211 232 250 242 263 365 443 492
1030.0 543 587 627 688 735 744 728 696 661 643
1070.0 693 835 1093 1430 1721 1850 1746 1464 1076 725
1110.0 522 436 451 495 623 891 1373 2244 3663 5651
1150.0 7812 9481 10000 9110 7133 4827 2944 1750 1101 769
1190.0 583 462 405 374 360 364 392 472 583 662
1230.0 697 681 624 552 486 457 479 549 632 755
1270.0 922 1071 1142 1123 1027 923 892 946 1059 1223
1310.0 1442 1766 2257 2966 3913 5064 6295 7350 7868 7598
1350.0 6523 4942 3329 2049 1219 777 578 485 431 407
1390.0 389 368 374 398 433 479 512 499 469 463
1430.0 508 630 810 1002 1133 1137 1033 872 729 609
1470.0 527 485 457 415 355 273 200 149 118 101
1510.0 99 104 99 91 94 96 87 73 75 70
1550.0 59 59 58 60 66 70 73 88 98 100
1590.0 107 107 96 88 86 79 71 69 67 59
1630.0 56 55 59 60 53 42 47 59 58 64
1670.0 62 68 83 80 84 81 61 44 34 29
1710.0 30 28 29 33 24 19 23 26 27 47
1750.0 62 68 72 76 79 79 81 83 78 67
1790.0 68 87 108 131 156 173 165 135 108 86
1830.0 73 67 54 52 55 48 44 37 38 46
1870.0 49 56 67 84 102 119 126 130 136 136
1910.0 130 116 92 78 71 61 66 71 77 93
1950.0 111 121 128 134 134 129 114 89 63 43
1990.0 37 38 34 29 29 29 34 32 24 23
2030.0 27 26 20 18 18 20 23 20 17 21
2070.0 25 24 25 28 26 26 23 24 23 18
2110.0 9 7 5 13 27 30 27 29 28 21
2150.0 16 20 26 31 29 29 30 31 31 28
2190.0 27 25 31 29 22 26 25 31 37 43
2230.0 53 65 68 70 73 63 57 52 47 42
2270.0 31 31 33 38 38 26 26 32 33 37
2310.0 47 57 66 66 58 42 31 33 38 37
2350.0 26 22 25 30 37 43 40 40 41 34
2390.0 30 31 30 29 30 36 42 47 45 42
2430.0 42 48 49 46 43 41 40 35 38 41
2470.0 52 60 54 56 58 48 43 44 39 39
2510.0 41 30 19 17 23 23 23 23 13 14
2550.0 17 19 17 10 16 27 33 29 27 23
2590.0 27 29 25 30 34 31 26 17 24 28
2630.0 21 7 12 18 10 11 19 30 36 30
2670.0 31 40 35 33 43 45 40 26 25 27
2710.0 18 17 15 16 20 24 30 33 32 29
2750.0 27 32 37 33 33 38 31 24 22 21
2790.0 33 32 23 23 25 22 22 27 36 42
2830.0 41 45 53 54 48 56 54 66 95 105
2870.0 121 150 192 249 308 332 339 332 307 280
2910.0 245 236 242 260 308 399 518 659 798 899
2950.0 923 851 731 583 461 419 467 566 687 791
2990.0 848 833 757 669 582 481 384 328 305 271
3030.0 261 258 248 247 266 326 412 536 724 986
3070.0 1223 1318 1281 1105 833 615 496 403 312 214
3110.0 146 116 110 92 76 69 67 84 85 63
3150.0 57 79 90 82 79 70 82 78 49 45
3190.0 58 50 24 31 33 34 26 21 21 25
3230.0 32 25 24 13 17 34 38 35 37 25
3270.0 23 39 37 32 22 21 27 21 15 9
3310.0 12 19 10 22 25 13 10 0 13 25
3350.0 31 44 34 35 36 22 26 39 30 17
3390.0 22 28 16 17 21 12 23 34 43 43
3430.0 29 31 39 27 30 48 52 50 49 48
3470.0 46 43 33 30 49 62 61 54 33 32
3510.0 43 31 17 9 19 40 36 16 17 35
3550.0 24 18 26 16 25 22 17 11 9 19
3590.0 20 17 17 24 25 18 13 10 18 9
3630.0 4 28 39 29 21 23 27 23 28 22
3670.0 29 38 34 41 38 41 47 42 51 46
3710.0 36 42 38 16 22 38 42 36 21 28
3750.0 40 54 61 39 42 39 20 22 42 65
3790.0 56 52 51 40 34 28 22 23 30 27
3830.0 23 32 28 29 43
##END=
