##TITLE=Di-p-tolyl sulfone
##JCAMP-DX=4.24
##DATA TYPE=INFRARED SPECTRUM
##ORIGIN=EPA-IR VAPOR PHASE LIBRARY
##OWNER=SRD/NIST
Collection (C) 2018 copyright by the U.S. Secretary of Commerce
on behalf of the United States of America. All rights reserved.
##CAS REGISTRY NO=599-66-6
##MOLFORM=C 14 H 14 O 2 S
##$NIST SOURCE=MSDC-IR
##STATE=gas
##XUNITS=1/CM
##YUNITS=ABSORBANCE
##XFACTOR=1.
##YFACTOR=0.001
##DELTAX=1.92934
##FIRSTX=549.9
##LASTX=3999.5
##FIRSTY=11.038
##MAXX=3999.53
##MINX=549.863
##MAXY=0.017108
##MINY=0
##NPOINTS=1789
##XYDATA=(X++(Y..Y))
549.863 11.038 12.918 13.358 12.688 11.218 8.948 6.258 4.098 2.888 2.268
569.156 1.958 1.768 1.628 1.528 1.498 1.3665 1.3638 1.4496 1.4281 1.2673
588.450 1.1974 1.1641 1.0521 1.0785 1.0976 1.0806 1.1643 1.2199 1.2669 1.2965
607.743 1.2875 1.3577 1.508 1.678 1.728 1.928 2.188 2.528 3.028 3.398
627.037 3.608 3.718 3.708 3.408 2.938 2.538 2.168 1.858 1.768 1.778
646.330 1.748 1.738 1.808 1.918 2.108 2.308 2.528 2.818 3.278 4.018
665.624 5.048 6.608 8.748 11.148 13.248 14.358 14.178 13.108 11.428 9.128
684.917 6.678 4.728 3.548 2.968 2.768 2.858 3.328 4.258 5.428 6.558
704.210 7.368 7.778 7.608 6.758 5.368 3.868 2.818 2.148 1.728 1.4497
723.504 1.2291 1.127 1.0866 0.9792 0.9087 0.9204 0.8966 0.8883 0.8745 0.8276
742.797 0.8382 0.8667 0.8384 0.8192 0.8054 0.7827 0.8078 0.7977 0.7836 0.8293
762.091 0.8303 0.8496 0.8842 0.9085 0.9984 1.0245 1.0447 1.1342 1.2445 1.3773
781.384 1.538 1.658 1.798 1.988 2.088 2.168 2.228 2.298 2.428 2.628
800.678 2.948 3.378 3.738 4.018 4.238 4.288 4.148 3.818 3.468 3.208
819.971 3.058 2.828 2.408 1.998 1.738 1.518 1.3296 1.2218 1.1611 1.1247
839.264 1.1029 1.0635 1.0211 0.9893 0.978 0.9824 0.9963 0.9902 0.9627 0.9212
858.558 0.8486 0.8033 0.7809 0.7603 0.8152 0.8292 0.7756 0.7837 0.7909 0.7698
877.851 0.7787 0.7462 0.7241 0.7601 0.8065 0.7998 0.7629 0.7697 0.8012 0.7915
897.145 0.738 0.7448 0.7688 0.7739 0.7749 0.7595 0.7622 0.7767 0.7794 0.7648
916.438 0.7339 0.7464 0.754 0.7273 0.7374 0.7657 0.7864 0.7807 0.7464 0.7346
935.732 0.733 0.7499 0.7887 0.7748 0.7386 0.7289 0.7365 0.7322 0.7458 0.7795
955.025 0.7784 0.782 0.7843 0.7367 0.7139 0.7395 0.7479 0.7571 0.7858 0.7679
974.318 0.7739 0.8188 0.8018 0.7753 0.783 0.7784 0.7727 0.7975 0.8074 0.806
993.612 0.8102 0.7991 0.7756 0.8045 0.8474 0.8556 0.9014 0.9698 1.0616 1.2339
1012.905 1.508 1.788 1.908 1.938 1.918 1.788 1.578 1.3571 1.1845 1.0631
1032.199 0.9896 0.9619 0.9862 1.0348 1.034 1.022 1.0689 1.1313 1.1349 1.0888
1051.492 1.0652 1.0707 1.0732 1.1052 1.156 1.1773 1.2166 1.3 1.4096 1.538
1070.786 1.688 1.838 1.988 2.078 2.108 2.118 2.068 2.068 2.188 2.348
1090.079 2.618 2.998 3.538 4.398 5.408 6.558 7.768 8.818 9.368 9.298
1109.372 8.678 7.598 6.248 4.798 3.628 2.948 2.498 2.198 2.028 1.998
1128.666 1.978 1.898 1.958 1.998 2.088 2.338 2.508 2.668 3.078 3.518
1147.959 4.138 5.118 6.498 8.328 10.408 12.728 14.978 16.558 17.108 16.728
1167.253 15.498 13.438 10.838 8.288 6.278 4.938 4.158 3.648 3.418 3.398
1186.546 3.248 3.008 2.808 2.768 2.798 2.818 2.688 2.818 3.178 2.978
1205.840 2.818 2.948 2.968 2.718 2.518 2.538 2.468 2.298 2.358 2.238
1225.133 2.028 2.158 2.168 1.948 1.778 1.668 1.668 1.698 1.628 1.658
1244.426 1.718 1.608 1.518 1.4551 1.3687 1.3733 1.4295 1.4241 1.4154 1.518
1263.720 1.568 1.548 1.518 1.568 1.708 1.768 1.798 1.898 1.908 1.898
1283.013 1.908 1.838 1.768 1.658 1.638 1.698 1.768 1.918 2.108 2.238
1302.307 2.348 2.428 2.418 2.318 2.168 2.058 1.968 1.908 1.918 1.968
1321.600 2.088 2.298 2.578 2.928 3.438 4.108 4.928 5.938 7.118 8.308
1340.894 9.378 10.128 10.408 10.108 9.238 7.928 6.498 5.128 3.878 2.918
1360.187 2.238 1.798 1.578 1.478 1.3865 1.2984 1.3127 1.3333 1.3388 1.3581
1379.480 1.4242 1.508 1.548 1.528 1.528 1.548 1.568 1.618 1.658 1.688
1398.774 1.698 1.748 1.778 1.838 1.848 1.798 1.798 1.778 1.718 1.658
1418.067 1.598 1.548 1.538 1.498 1.4719 1.4329 1.3733 1.3211 1.273 1.2661
1437.361 1.2781 1.238 1.2339 1.2505 1.2211 1.1785 1.1388 1.1285 1.1565 1.1826
1456.654 1.1882 1.1564 1.1414 1.1911 1.2143 1.1805 1.1798 1.2119 1.2029 1.1688
1475.948 1.1801 1.242 1.302 1.4076 1.538 1.628 1.758 1.928 2.058 2.128
1495.241 2.158 2.078 1.938 1.828 1.688 1.548 1.4383 1.3301 1.271 1.2099
1514.534 1.1419 1.109 1.0584 1.0263 1.0086 1.0071 1.0006 0.9573 0.9145 0.9221
1533.828 0.9635 0.9655 0.9409 0.9304 0.9343 0.9245 0.9123 0.9136 0.9418 0.9365
1553.121 0.91 0.9237 0.9502 0.9667 0.9372 0.9239 0.9563 1.001 1.0354 1.069
1572.415 1.0635 1.0731 1.1628 1.2378 1.2904 1.3748 1.528 1.678 1.818 1.998
1591.708 2.178 2.328 2.478 2.608 2.628 2.578 2.488 2.288 2.028 1.808
1611.002 1.588 1.4016 1.2566 1.2072 1.1641 1.0893 1.072 1.039 1.0049 0.9633
1630.295 0.9279 0.9192 0.939 0.9299 0.8761 0.8781 0.8878 0.8766 0.885 0.8635
1649.588 0.835 0.8533 0.8527 0.8252 0.7752 0.7323 0.6871 0.6696 0.68 0.6557
1668.882 0.626 0.6142 0.6032 0.5966 0.6054 0.6473 0.6558 0.611 0.6247 0.6229
1688.175 0.5939 0.5994 0.6085 0.6303 0.6293 0.6038 0.6054 0.608 0.57616 0.53442
1707.469 0.51176 0.5229 0.54246 0.53419 0.52623 0.54007 0.52546 0.52653 0.56404 0.5957
1726.762 0.6026 0.54542 0.53486 0.56851 0.6002 0.6231 0.5949 0.5915 0.6197 0.6056
1746.056 0.6018 0.63 0.6596 0.6688 0.6695 0.6896 0.6699 0.6342 0.5998 0.5957
1765.349 0.5914 0.57176 0.57147 0.5816 0.56842 0.54195 0.53581 0.57229 0.57705 0.57424
1784.642 0.6349 0.6689 0.6835 0.6929 0.7308 0.7614 0.7714 0.7414 0.7069 0.7015
1803.936 0.669 0.6204 0.6 0.56799 0.54195 0.50927 0.46984 0.482072 0.4997 0.481761
1823.229 0.4654 0.485088 0.47377 0.47199 0.50273 0.53118 0.49616 0.4597 0.50249 0.51964
1842.523 0.50568 0.4676 0.4356 0.4533 0.4553 0.4364 0.4506 0.49996 0.51572 0.49965
1861.816 0.5173 0.5363 0.52902 0.53078 0.53362 0.53122 0.52242 0.51644 0.5063 0.53998
1881.110 0.5823 0.57244 0.56277 0.5545 0.56745 0.57031 0.614 0.6462 0.6617 0.6872
1900.403 0.6809 0.7209 0.7608 0.7606 0.7641 0.7827 0.7777 0.7667 0.7375 0.7193
1919.696 0.6935 0.6568 0.6449 0.6382 0.6028 0.55298 0.53703 0.54928 0.54757 0.51547
1938.990 0.49519 0.484739 0.50508 0.53328 0.52173 0.5114 0.51238 0.482788 0.48827 0.50936
1958.283 0.52893 0.53861 0.50524 0.48135 0.49096 0.50586 0.49478 0.50005 0.49768 0.4626
1977.577 0.47425 0.50124 0.456 0.4442 0.4558 0.4326 0.4467 0.4482 0.4311 0.449
1996.870 0.4549 0.4357 0.4235 0.4203 0.4171 0.4198 0.4395 0.47205 0.4474 0.4195
2016.164 0.4243 0.4118 0.4325 0.47016 0.4751 0.4516 0.4572 0.47012 0.4546 0.4156
2035.457 0.4008 0.4003 0.3961 0.4198 0.4371 0.4311 0.435 0.4324 0.4144 0.4297
2054.750 0.4396 0.4076 0.3787 0.3817 0.375 0.352 0.349 0.364 0.365 0.352
2074.044 0.3833 0.3899 0.353 0.336 0.319 0.354 0.3826 0.354 0.347 0.359
2093.337 0.3788 0.349 0.335 0.369 0.354 0.334 0.338 0.355 0.35 0.312
2112.631 0.303 0.306 0.328 0.364 0.373 0.367 0.357 0.354 0.315 0.282
2131.924 0.324 0.339 0.33 0.323 0.306 0.283 0.263 0.269 0.275 0.284
2151.218 0.27 0.269 0.295 0.3 0.292 0.307 0.311 0.303 0.288 0.289
2170.511 0.34 0.35 0.321 0.325 0.34 0.351 0.358 0.353 0.329 0.317
2189.804 0.31 0.286 0.284 0.303 0.334 0.332 0.307 0.317 0.32 0.293
2209.098 0.29 0.277 0.278 0.296 0.324 0.317 0.289 0.294 0.281 0.268
2228.391 0.281 0.31 0.319 0.298 0.291 0.328 0.331 0.291 0.295 0.316
2247.685 0.307 0.312 0.328 0.324 0.303 0.297 0.282 0.262 0.283 0.291
2266.978 0.3 0.35 0.346 0.312 0.338 0.358 0.311 0.269 0.267 0.286
2286.272 0.302 0.322 0.329 0.322 0.347 0.345 0.318 0.305 0.302 0.327
2305.565 0.333 0.306 0.316 0.343 0.325 0.299 0.312 0.323 0.301 0.272
2324.858 0.271 0.268 0.241 0.25 0.283 0.303 0.297 0.272 0.255 0.256
2344.152 0.296 0.286 0.27 0.264 0.221 0.225 0.248 0.284 0.298 0.292
2363.445 0.292 0.289 0.287 0.294 0.299 0.273 0.269 0.296 0.3 0.275
2382.739 0.266 0.261 0.243 0.257 0.281 0.298 0.288 0.272 0.274 0.307
2402.032 0.327 0.283 0.289 0.292 0.269 0.281 0.306 0.273 0.234 0.258
2421.326 0.241 0.26 0.284 0.256 0.227 0.226 0.255 0.262 0.247 0.23
2440.619 0.242 0.232 0.214 0.235 0.228 0.199 0.176 0.194 0.207 0.193
2459.912 0.206 0.22 0.245 0.245 0.211 0.222 0.24 0.22 0.223 0.206
2479.206 0.209 0.242 0.24 0.225 0.197 0.196 0.25 0.27 0.269 0.246
2498.499 0.225 0.248 0.222 0.209 0.223 0.219 0.227 0.24 0.226 0.187
2517.793 0.174 0.211 0.236 0.196 0.145 0.161 0.169 0.173 0.185 0.17
2537.086 0.171 0.18 0.174 0.202 0.221 0.183 0.18 0.207 0.24 0.242
2556.380 0.207 0.182 0.174 0.163 0.149 0.182 0.253 0.251 0.21 0.226
2575.673 0.198 0.183 0.211 0.174 0.152 0.185 0.224 0.223 0.197 0.236
2594.966 0.227 0.207 0.218 0.164 0.161 0.206 0.182 0.13 0.175 0.178
2614.260 0.134 0.185 0.185 0.162 0.168 0.133 0.091 0.154 0.19 0.128
2633.553 0.116 0.123 0.113 0.107 0.134 0.126 0.141 0.167 0.149 0.114
2652.847 0.086 0.119 0.138 0.132 0.135 0.104 0.091 0.101 0.109 0.142
2672.140 0.137 0.134 0.081 0.083 0.155 0.15 0.17 0.187 0.146 0.145
2691.434 0.174 0.144 0.168 0.147 0.084 0.114 0.12 0.117 0.099 0.099
2710.727 0.074 0.097 0.165 0.152 0.158 0.139 0.104 0.123 0.1 0.055
2730.020 0.043 0.056 0.09 0.101 0.138 0.156 0.15 0.14 0.127 0.114
2749.314 0.129 0.129 0.112 0.114 0.109 0.148 0.136 0.052 0 0.026
2768.607 0.057 0.037 0.074 0.084 0.062 0.026 0.024 0.086 0.046 0.035
2787.901 0.109 0.161 0.152 0.13 0.137 0.107 0.111 0.119 0.096 0.125
2807.194 0.105 0.096 0.127 0.126 0.141 0.154 0.133 0.071 0.052 0.065
2826.488 0.168 0.287 0.244 0.167 0.165 0.183 0.138 0.114 0.147 0.197
2845.781 0.258 0.294 0.308 0.344 0.38 0.4474 0.4662 0.50292 0.56876 0.6543
2865.074 0.7843 0.7353 0.8077 0.9323 0.8887 0.9039 0.9525 0.9519 0.9566 0.9253
2884.368 0.8759 0.9065 0.8759 0.8505 0.928 0.903 0.7874 0.7949 0.8099 0.8218
2903.661 0.8528 0.8513 0.8565 0.8062 0.7148 0.787 0.9608 1.0321 1.1236 1.2504
2922.955 1.3459 1.498 1.708 1.908 2.098 2.258 2.308 2.228 2.148 2.058
2942.248 1.888 1.678 1.4203 1.234 1.1306 1.0051 0.8834 0.8424 0.8753 0.8274
2961.542 0.7031 0.7173 0.7779 0.734 0.7385 0.7152 0.6597 0.685 0.7231 0.813
2980.835 0.8124 0.7668 0.7931 0.7919 0.7978 0.8516 0.9428 0.9184 0.8729 0.9452
3000.128 0.9649 1.0028 1.1004 1.0723 1.0844 1.1065 1.0715 1.1104 1.1643 1.2401
3019.422 1.308 1.371 1.568 1.718 1.768 1.878 1.968 2.088 2.228 2.218
3038.715 2.138 2.078 2.038 2.038 2.098 2.118 1.978 1.858 1.808 1.728
3058.009 1.668 1.698 1.738 1.728 1.688 1.678 1.658 1.508 1.3568 1.4044
3077.302 1.3488 1.1379 1.0865 1.0557 1.0386 1.0707 1.0036 1.031 1.0281 0.8404
3096.596 0.7639 0.8289 0.756 0.6932 0.7831 0.7243 0.6629 0.7068 0.7592 0.7501
3115.889 0.7443 0.7393 0.7228 0.6782 0.56245 0.51876 0.5957 0.6655 0.6642 0.6059
3135.182 0.53094 0.51019 0.50525 0.54356 0.56894 0.6099 0.6325 0.53742 0.482869 0.54616
3154.476 0.5878 0.625 0.7233 0.6332 0.5438 0.6068 0.6105 0.56948 0.51409 0.54805
3173.769 0.56005 0.50175 0.6241 0.7038 0.6231 0.56841 0.6289 0.6173 0.6407 0.6889
3193.063 0.6201 0.57373 0.56186 0.5932 0.6392 0.6715 0.6154 0.6377 0.6781 0.6721
3212.356 0.6759 0.7791 0.7691 0.7017 0.7792 0.7047 0.7319 0.7919 0.7675 0.8469
3231.650 0.833 0.8257 0.8568 0.8484 0.8184 0.7527 0.818 0.8688 0.7893 0.8857
3250.943 0.8911 0.804 0.7858 0.757 0.8015 0.7892 0.8932 0.9207 0.8198 0.7463
3270.236 0.8177 0.9087 0.8624 0.899 1.0059 1.069 1.0403 0.9511 0.8352 0.8035
3289.530 0.8538 0.9285 0.9138 0.8064 0.8353 0.9389 0.9076 0.9816 1.06 1.0461
3308.823 1.086 1.0236 0.9521 0.9155 0.8839 0.9903 0.9863 0.9896 1.0332 0.9787
3328.117 1.0265 0.9648 0.9314 0.9783 1.0426 1.1247 1.0732 1.0934 1.1377 1.0775
3347.410 1.1251 1.2314 1.2102 1.1051 1.0011 1.0109 1.0946 1.0676 0.9234 0.938
3366.704 1.0736 1.032 1.0681 1.2277 1.1593 1.1288 1.133 1.053 1.112 1.2049
3385.997 1.2626 1.1959 1.1046 1.167 1.1982 1.2316 1.2512 1.1494 1.0726 1.0888
3405.290 1.1244 1.1707 1.1361 1.1258 1.1447 1.0658 1.0237 0.9843 1.0413 1.1333
3424.584 1.0683 1.0646 1.1409 1.076 1.0254 1.1698 1.2038 1.0992 1.1031 1.1085
3443.877 1.0505 0.9213 0.8936 1.0907 1.1675 1.1726 1.0889 1.032 1.0963 1.0268
3463.171 1.0171 1.1058 1.1075 1.1089 1.0703 1.0565 1.1549 1.2168 1.1294 1.0717
3482.464 1.1697 1.1113 1.0815 1.1961 1.1763 1.1106 1.1943 1.1512 1.2143 1.2928
3501.758 1.1656 1.1973 1.2479 1.1966 1.1064 1.0798 1.1805 1.2137 1.1659 1.1674
3521.051 1.2343 1.2527 1.1549 1.0304 1.0149 1.0514 1.0851 1.1317 1.2264 1.1245
3540.344 1.0193 1.074 1.0486 1.0848 1.1377 1.2512 1.2608 1.1276 1.122 1.104
3559.638 1.0797 1.1026 1.1256 1.1956 1.2187 1.1222 1.0517 1.0938 1.112 1.0241
3578.931 0.9834 1.0507 1.0287 1.0327 1.0533 0.9657 0.9511 1.1186 1.1951 1.1249
3598.225 1.0425 0.9934 1.0218 0.9767 1.0076 1.0146 0.9482 1.0027 1.0062 0.9433
3617.518 0.9692 1.0611 1.1024 1.0551 1.0365 1.0566 1.0793 1.1163 1.0846 1.0326
3636.812 1.034 1.0793 1.0817 1.0818 1.0769 1.0063 0.9624 1.0444 1.0942 0.9972
3656.105 0.9759 1.0211 1.024 1.0255 1.021 0.988 0.9332 0.9739 1.0715 1.0417
3675.398 0.9972 1.008 0.9986 0.9516 0.8972 0.9121 1.0239 1.0631 0.9646 0.9008
3694.692 0.8857 0.8769 0.9314 1.0284 0.9939 0.9354 1.0011 1.0624 1.0601 1.0255
3713.985 0.9595 0.891 0.8467 0.8613 0.973 1.0094 0.9455 0.9499 0.9669 0.9353
3733.279 0.9243 0.9805 0.9588 0.9245 0.9105 0.9181 0.9321 0.899 0.9538 0.981
3752.572 0.9184 0.9029 0.8539 0.8349 0.8277 0.821 0.884 0.8807 0.8686 0.8692
3771.866 0.7973 0.7628 0.8246 0.8958 0.863 0.8193 0.8596 0.8914 0.8974 0.7829
3791.159 0.7483 0.8787 0.8809 0.7903 0.7671 0.8232 0.8764 0.8824 0.8196 0.8049
3810.452 0.8313 0.7969 0.8471 0.8964 0.8635 0.8217 0.7537 0.7774 0.84 0.8405
3829.746 0.8583 0.8294 0.7615 0.7718 0.7894 0.7661 0.7473 0.7266 0.7302 0.8162
3849.039 0.9033 0.8898 0.8722 0.8188 0.7886 0.7942 0.7452 0.7834 0.8364 0.8269
3868.333 0.8516 0.7848 0.7322 0.7657 0.7162 0.6336 0.7031 0.7357 0.6667 0.6756
3887.626 0.7298 0.7933 0.7749 0.7709 0.8333 0.8361 0.8239 0.7608 0.7402 0.7826
3906.920 0.7331 0.7353 0.7287 0.6759 0.7157 0.7188 0.6836 0.7187 0.7574 0.7348
3926.213 0.6986 0.6964 0.7583 0.7747 0.653 0.6305 0.6229 0.6172 0.6612 0.6894
3945.506 0.7041 0.6643 0.588 0.6372 0.6704 0.6394 0.6743 0.6658 0.6491 0.6183
3964.800 0.6678 0.7079 0.7079 0.7564 0.7065 0.7059 0.6855 0.6048 0.6304 0.6226
3984.093 0.5901 0.5802 0.5951 0.6602 0.665 0.6812 0.6627 0.5933 0.55056
##END=
