##TITLE=1,2-Bis(phenylsulphonyl)ethane
##JCAMP-DX=4.24
##DATA TYPE=INFRARED SPECTRUM
##ORIGIN=EPA-IR VAPOR PHASE LIBRARY
##OWNER=SRD/NIST
Collection (C) 2018 copyright by the U.S. Secretary of Commerce
on behalf of the United States of America. All rights reserved.
##CAS REGISTRY NO=599-94-0
##MOLFORM=C 14 H 14 O 4 S 2
##$NIST SOURCE=MSDC-IR
##STATE=gas
##XUNITS=1/CM
##YUNITS=ABSORBANCE
##XFACTOR=1.
##YFACTOR=0.001
##DELTAX=1.92934
##FIRSTX=549.9
##LASTX=3999.5
##FIRSTY=2.2145
##MAXX=3999.53
##MINX=549.863
##MAXY=0.0084445
##MINY=0
##NPOINTS=1789
##XYDATA=(X++(Y..Y))
549.863 2.2145 1.8145 1.6745 1.4845 1.3445 1.1945 1.1745 1.2845 1.4645 1.8045
569.156 1.9445 1.9245 1.9245 1.7445 1.3745 1.1645 1.0574 0.9605 0.8833 0.9569
588.450 1.0072 0.9825 0.95 0.9668 1.0945 1.1245 1.1545 1.1945 1.1045 0.8454
607.743 0.6778 0.6524 0.6436 0.6002 0.5464 0.5871 0.6168 0.5043 0.426 0.3932
627.037 0.4129 0.433 0.3567 0.2938 0.3573 0.4431 0.4104 0.4441 0.5035 0.5127
646.330 0.4759 0.4617 0.4926 0.5517 0.6315 0.6358 0.5792 0.6145 0.6915 0.7369
665.624 0.7744 0.8635 1.0352 1.1445 1.2145 1.3245 1.5145 1.7445 2.0245 2.4045
684.917 2.8645 3.2145 3.3145 3.1745 2.8345 2.4045 2.0345 1.8445 1.7745 1.7345
704.210 1.6945 1.7045 1.7345 1.8445 1.9745 2.0945 2.2045 2.3345 2.5845 2.9545
723.504 3.4345 3.9845 4.5445 5.1645 5.6445 5.8145 5.7845 5.4945 5.0045 4.3945
742.797 3.7345 3.2045 2.8245 2.5845 2.4745 2.5045 2.5845 2.6945 2.9645 3.2945
762.091 3.5245 3.6545 3.6245 3.3345 2.8745 2.4045 1.9745 1.6345 1.3945 1.1645
781.384 1.0018 0.9296 0.8675 0.8569 0.8221 0.7631 0.7561 0.7494 0.7113 0.7184
800.678 0.7265 0.6702 0.6045 0.6336 0.6777 0.6146 0.5614 0.5961 0.6051 0.5697
819.971 0.5666 0.5155 0.485 0.4551 0.4235 0.4614 0.4172 0.362 0.3798 0.3984
839.264 0.4243 0.4233 0.3899 0.3721 0.3504 0.3258 0.3287 0.3356 0.37 0.3613
858.558 0.2975 0.3133 0.3073 0.2848 0.2957 0.2571 0.2811 0.3113 0.2973 0.2731
877.851 0.218 0.2334 0.2735 0.275 0.2667 0.2927 0.2698 0.2631 0.2792 0.2307
897.145 0.2342 0.2287 0.2219 0.2447 0.2474 0.2444 0.2264 0.2096 0.2286 0.2689
916.438 0.2443 0.2417 0.2885 0.3136 0.3647 0.3623 0.3648 0.361 0.3354 0.3622
935.732 0.397 0.4418 0.4515 0.4734 0.5043 0.4622 0.4248 0.4165 0.3717 0.321
955.025 0.3308 0.3246 0.2792 0.2657 0.2951 0.2818 0.2616 0.2439 0.2191 0.2676
974.318 0.2617 0.2187 0.2376 0.2588 0.3054 0.3134 0.2571 0.224 0.2216 0.2517
993.612 0.2789 0.3451 0.3974 0.3935 0.3828 0.3762 0.3514 0.3049 0.2966 0.2961
1012.905 0.2774 0.2834 0.3472 0.4011 0.4531 0.5221 0.4989 0.4777 0.4823 0.408
1032.199 0.3323 0.311 0.2899 0.2858 0.2596 0.2475 0.3206 0.3298 0.2914 0.2942
1051.492 0.2669 0.2926 0.3636 0.4018 0.4375 0.4971 0.5646 0.591 0.6276 0.6824
1070.786 0.7154 0.7821 0.9234 1.1645 1.4745 1.9145 2.5045 2.9145 3.0845 2.9645
1090.079 2.5845 2.1645 1.7145 1.2645 0.9667 0.818 0.7819 0.8109 0.7979 0.6639
1109.372 0.5466 0.5946 0.6122 0.5545 0.5616 0.5757 0.5934 0.5759 0.5333 0.5641
1128.666 0.6147 0.825 0.9438 0.995 1.2345 1.5445 1.9145 2.2945 2.8845 3.5845
1147.959 4.3945 5.2645 6.1145 6.8645 7.4845 7.9745 8.2245 8.1845 7.8545 7.3045
1167.253 6.6045 5.7545 4.8645 4.1145 3.3945 2.7845 2.3245 2.0045 1.7045 1.2845
1186.546 1.1245 1.0779 0.9884 0.9546 0.9333 1.033 0.9344 0.8119 1.0901 1.3345
1205.840 1.5345 1.7145 1.8045 1.7145 1.4545 1.4045 1.1645 0.8897 0.936 0.9156
1225.133 0.7788 0.677 0.6099 0.6222 0.6272 0.3946 0.3399 0.4629 0.5222 0.4896
1244.426 0.4764 0.5176 0.5522 0.6396 0.6732 0.6697 0.6897 0.7632 0.7955 0.7736
1263.720 0.7956 0.8634 0.8643 0.8031 0.8185 0.8505 0.78 0.7305 0.8325 0.8705
1283.013 0.8268 0.8263 0.8588 0.9109 0.8964 0.9123 0.941 0.9779 1.0119 0.9968
1302.307 1.0597 1.1645 1.2145 1.1545 1.1345 1.1845 1.2445 1.3145 1.3345 1.4445
1321.600 1.6545 1.9045 2.2145 2.5445 2.8845 3.2345 3.5945 3.9545 4.3745 4.9845
1340.894 5.7245 6.5445 7.3845 8.0645 8.4445 8.4145 7.8945 7.0145 5.8845 4.6645
1360.187 3.5645 2.6545 1.9945 1.5445 1.2445 1.0732 0.912 0.772 0.6811 0.6553
1379.480 0.6399 0.5898 0.5466 0.5222 0.5449 0.5256 0.4517 0.4514 0.4539 0.4518
1398.774 0.4697 0.5067 0.5166 0.5041 0.5389 0.5549 0.5967 0.663 0.7282 0.7577
1418.067 0.7283 0.7401 0.7517 0.6738 0.5828 0.5307 0.4979 0.4908 0.5147 0.5608
1437.361 0.6369 0.7651 0.9192 1.0892 1.2345 1.3145 1.3245 1.1945 0.9439 0.7203
1456.654 0.5346 0.4259 0.3654 0.3261 0.3312 0.3404 0.3358 0.3059 0.2851 0.3249
1475.948 0.348 0.3929 0.426 0.4323 0.4038 0.3295 0.2806 0.2404 0.2409 0.2514
1495.241 0.2394 0.1993 0.18765 0.2217 0.211 0.12474 0.08559 0.13747 0.15652 0.12717
1514.534 0.1118 0.13932 0.15592 0.12508 0.098128 0.11634 0.12814 0.13232 0.14571 0.12935
1533.828 0.10668 0.099338 0.0751 0.0293 0.0509 0.0784 0.096732 0.12742 0.12122 0.11468
1553.121 0.08781 0.0671 0.0499 0.0228 0.0753 0.13788 0.13146 0.13528 0.16736 0.12955
1572.415 0.12681 0.12508 0.098002 0.16769 0.18782 0.2052 0.2347 0.2089 0.2055 0.18662
1591.708 0.16646 0.15441 0.15817 0.18825 0.14881 0.11616 0.14936 0.18116 0.16432 0.14182
1611.002 0.1773 0.18832 0.13315 0.096742 0.13484 0.1225 0.08746 0.13127 0.15679 0.13766
1630.295 0.13587 0.13761 0.09164 0.0551 0.098278 0.14307 0.10714 0.098729 0.12854 0.11412
1649.588 0.103212 0.0324 0 0.098193 0.15397 0.14654 0.12403 0.15114 0.18171 0.16712
1668.882 0.13956 0.14115 0.15184 0.1178 0.1277 0.1523 0.14845 0.11729 0.0677 0.11107
1688.175 0.17902 0.16179 0.1089 0.0697 0.0468 0.0816 0.08726 0.0717 0.0953878 0.099564
1707.469 0.08775 0.053 0.0616 0.0949684 0.08466 0.0386 0.0445 0.08913 0.0809 0.0932
1726.762 0.12742 0.096578 0.0727 0.0704 0.0638 0.103536 0.100035 0.0657 0.09242 0.098046
1746.056 0.0837 0.0805 0.0328 0.0695 0.1311 0.12416 0.12393 0.12926 0.13437 0.15459
1765.349 0.16122 0.15712 0.1325 0.10472 0.11042 0.11322 0.1202 0.13472 0.12729 0.15093
1784.642 0.17662 0.16339 0.15036 0.1391 0.15588 0.15361 0.14672 0.16371 0.18718 0.1955
1803.936 0.1793 0.2022 0.2409 0.2306 0.2299 0.2359 0.2211 0.1964 0.18064 0.17118
1823.229 0.15414 0.11082 0.095227 0.09248 0.0759 0.1052 0.09331 0.0542 0.0636 0.0831
1842.523 0.0789 0.096517 0.098958 0.0737 0.11627 0.11024 0.09078 0.12957 0.14969 0.14724
1861.816 0.13779 0.13039 0.103317 0.09098 0.09845 0.12457 0.1199 0.0924 0.0631 0.0589
1881.110 0.0814 0.11726 0.15266 0.15005 0.15655 0.17974 0.17549 0.15937 0.17527 0.19353
1900.403 0.18189 0.17579 0.1975 0.2011 0.19011 0.17207 0.17814 0.18964 0.18651 0.17789
1919.696 0.16362 0.1595 0.16771 0.16404 0.12893 0.12305 0.13702 0.11285 0.097514 0.12077
1938.990 0.14006 0.13014 0.102251 0.12164 0.16172 0.16184 0.1782 0.1947 0.18427 0.1995
1958.283 0.222 0.2108 0.18806 0.2121 0.2157 0.2013 0.2073 0.1968 0.19248 0.18887
1977.577 0.19116 0.16847 0.17076 0.18865 0.16294 0.16506 0.17065 0.16179 0.15395 0.15242
1996.870 0.1465 0.13624 0.11879 0.08861 0.08882 0.11013 0.13337 0.10852 0.099854 0.14755
2016.164 0.12981 0.12237 0.10741 0.094741 0.094129 0.0688 0.077 0.0836 0.10989 0.08508
2035.457 0.0676 0.11376 0.1294 0.1276 0.10892 0.10599 0.11544 0.099866 0.0776 0.0802
2054.750 0.11066 0.11944 0.11771 0.101885 0.100135 0.11911 0.11294 0.11644 0.11111 0.1123
2074.044 0.12519 0.13349 0.14148 0.12557 0.12233 0.11168 0.10917 0.13544 0.13792 0.132
2093.337 0.14377 0.13407 0.12439 0.13617 0.13726 0.11702 0.12719 0.1326 0.0834 0.0831
2112.631 0.11784 0.15833 0.19358 0.1977 0.18297 0.15747 0.12128 0.11349 0.12952 0.11264
2131.924 0.12165 0.13414 0.13341 0.13289 0.13928 0.13356 0.11938 0.11585 0.12282 0.12402
2151.218 0.13333 0.1628 0.17582 0.1706 0.16268 0.16102 0.16016 0.15303 0.14388 0.17489
2170.511 0.17322 0.15038 0.12716 0.12598 0.15032 0.13957 0.16392 0.18607 0.16641 0.1853
2189.804 0.2096 0.1828 0.15282 0.13314 0.11893 0.12397 0.12529 0.13415 0.14267 0.13834
2209.098 0.13395 0.14857 0.14786 0.12949 0.13208 0.15563 0.16006 0.14961 0.14851 0.14554
2228.391 0.15304 0.15813 0.15127 0.15443 0.16081 0.16988 0.1956 0.2013 0.19212 0.2045
2247.685 0.1949 0.15674 0.15323 0.14674 0.14733 0.17412 0.18245 0.18364 0.17063 0.16437
2266.978 0.19262 0.1965 0.15698 0.16326 0.17628 0.18066 0.1728 0.15509 0.14973 0.13402
2286.272 0.15623 0.14346 0.13665 0.16482 0.13614 0.1196 0.14478 0.15985 0.14664 0.1358
2305.565 0.16511 0.18724 0.19067 0.16589 0.15953 0.16922 0.16105 0.1555 0.13762 0.15729
2324.858 0.18651 0.15373 0.12784 0.12363 0.12334 0.12391 0.1136 0.13117 0.14305 0.13504
2344.152 0.13648 0.15254 0.14401 0.14431 0.13789 0.09323 0.09094 0.104329 0.0811 0.0951893
2363.445 0.10553 0.08689 0.1184 0.14277 0.13788 0.1281 0.15958 0.15647 0.17139 0.2032
2382.739 0.16585 0.13865 0.15147 0.16467 0.14154 0.1361 0.14221 0.16549 0.13907 0.104423
2402.032 0.12035 0.14447 0.15311 0.16553 0.18345 0.17114 0.14005 0.12839 0.16078 0.17322
2421.326 0.14237 0.10995 0.10602 0.11651 0.14402 0.17456 0.18522 0.16203 0.17176 0.18005
2440.619 0.1893 0.1959 0.16235 0.1459 0.14942 0.16886 0.17424 0.16966 0.1577 0.15833
2459.912 0.17447 0.18865 0.16357 0.14194 0.1539 0.14734 0.16012 0.2047 0.2221 0.2147
2479.206 0.2237 0.1984 0.18349 0.18018 0.15407 0.17905 0.2144 0.2002 0.17013 0.17751
2498.499 0.2107 0.2455 0.2152 0.17584 0.18425 0.18623 0.2113 0.2283 0.19001 0.14283
2517.793 0.17012 0.2167 0.2218 0.2231 0.19344 0.16245 0.19201 0.2253 0.2196 0.17251
2537.086 0.16749 0.19431 0.17998 0.1442 0.13473 0.1688 0.19172 0.17682 0.14698 0.1586
2556.380 0.1616 0.1968 0.1991 0.14391 0.11201 0.11612 0.15644 0.16339 0.18858 0.227
2575.673 0.2348 0.2699 0.2544 0.2204 0.17843 0.16764 0.2118 0.198 0.19059 0.212
2594.966 0.2029 0.17763 0.14452 0.1536 0.2007 0.17631 0.18174 0.19415 0.17632 0.1947
2614.260 0.18942 0.1836 0.14536 0.12088 0.14716 0.18532 0.2198 0.2019 0.16437 0.14892
2633.553 0.15864 0.17291 0.18286 0.12836 0.13447 0.2259 0.2239 0.2019 0.2065 0.2244
2652.847 0.2634 0.2079 0.17007 0.2089 0.2166 0.16984 0.1941 0.2254 0.2049 0.2524
2672.140 0.2466 0.2447 0.2449 0.208 0.18828 0.1533 0.17238 0.2159 0.209 0.16288
2691.434 0.17525 0.2307 0.2556 0.2315 0.2256 0.2329 0.2208 0.2396 0.2101 0.15671
2710.727 0.1829 0.2217 0.2124 0.2366 0.2157 0.2062 0.2294 0.1949 0.1998 0.19056
2730.020 0.16311 0.16694 0.18977 0.2425 0.2374 0.2139 0.1989 0.2121 0.2253 0.19179
2749.314 0.216 0.19128 0.14941 0.18826 0.233 0.2566 0.2929 0.3166 0.2408 0.17834
2768.607 0.1969 0.2216 0.2046 0.17398 0.16806 0.15328 0.2012 0.2151 0.2182 0.17959
2787.901 0.13315 0.15389 0.16888 0.15665 0.1706 0.224 0.2353 0.204 0.13674 0.15822
2807.194 0.17875 0.16443 0.17543 0.1993 0.16604 0.15098 0.19053 0.2114 0.2102 0.19269
2826.488 0.18903 0.2149 0.2686 0.2778 0.225 0.2272 0.2215 0.15423 0.14984 0.13388
2845.781 0.11433 0.14269 0.199 0.261 0.2228 0.2047 0.3028 0.27 0.17869 0.18671
2865.074 0.2116 0.2421 0.2568 0.2215 0.17393 0.16212 0.2002 0.2734 0.2916 0.2574
2884.368 0.2431 0.2355 0.2954 0.2817 0.2704 0.3264 0.2537 0.19096 0.18415 0.17553
2903.661 0.2207 0.2679 0.3108 0.3328 0.2632 0.2647 0.2357 0.19069 0.2671 0.2772
2922.955 0.2728 0.2989 0.2761 0.3158 0.2723 0.1981 0.2724 0.3096 0.3955 0.4626
2942.248 0.3559 0.3944 0.5132 0.5586 0.581 0.542 0.4971 0.404 0.3817 0.3762
2961.542 0.3193 0.3544 0.3376 0.2575 0.2916 0.3062 0.203 0.19362 0.2379 0.2338
2980.835 0.2793 0.3088 0.3031 0.3068 0.2933 0.3194 0.3246 0.3406 0.4035 0.4159
3000.128 0.4337 0.4413 0.3982 0.3767 0.3422 0.384 0.4336 0.3736 0.3237 0.3325
3019.422 0.3154 0.3192 0.3368 0.332 0.3865 0.3837 0.3642 0.3828 0.4179 0.3659
3038.715 0.308 0.3764 0.3701 0.3493 0.3974 0.4179 0.4684 0.4295 0.4912 0.6267
3058.009 0.664 0.7089 0.7958 1.0091 1.0762 1.0494 1.2745 1.4645 1.5145 1.5145
3077.302 1.4545 1.2845 1.1445 1.0706 0.9481 0.8986 0.8353 0.7698 0.6983 0.6726
3096.596 0.6865 0.6038 0.4637 0.4381 0.4175 0.3531 0.3139 0.2766 0.2854 0.3456
3115.889 0.3764 0.3745 0.3567 0.2523 0.2371 0.2763 0.2896 0.3135 0.3162 0.286
3135.182 0.2493 0.2543 0.2338 0.2363 0.2615 0.2865 0.3142 0.26 0.2419 0.18777
3154.476 0.17843 0.2041 0.2772 0.2986 0.2562 0.3261 0.2877 0.2499 0.2385 0.2425
3173.769 0.2855 0.2392 0.1669 0.15072 0.15721 0.16548 0.2387 0.2185 0.18963 0.2725
3193.063 0.2399 0.1971 0.201 0.19125 0.13598 0.14688 0.2344 0.333 0.3442 0.2588
3212.356 0.18413 0.19054 0.18036 0.0946794 0.12845 0.18372 0.2695 0.3314 0.354 0.306
3231.650 0.2219 0.2414 0.18335 0.10172 0.104292 0.12865 0.1431 0.14953 0.15805 0.16414
3250.943 0.2749 0.3651 0.331 0.2911 0.2997 0.2689 0.15909 0.1988 0.2721 0.2813
3270.236 0.2745 0.2407 0.16677 0.08525 0.12555 0.17626 0.2348 0.2974 0.2902 0.3323
3289.530 0.2954 0.2419 0.3033 0.3378 0.271 0.2657 0.2924 0.2329 0.2192 0.16708
3308.823 0.0953162 0.0801 0.14986 0.2439 0.19078 0.16322 0.2478 0.2585 0.16512 0.0477
3328.117 0.09069 0.17516 0.2071 0.3426 0.3531 0.2735 0.2856 0.2786 0.2325 0.19301
3347.410 0.205 0.17551 0.187 0.24 0.2818 0.2668 0.2389 0.275 0.3581 0.2528
3366.704 0.13974 0.2604 0.2683 0.26 0.18002 0.14587 0.2599 0.1763 0.15248 0.2024
3385.997 0.12958 0.2098 0.2507 0.2259 0.2396 0.29 0.3332 0.2404 0.1817 0.2244
3405.290 0.11991 0.13855 0.3894 0.4006 0.335 0.2656 0.2443 0.3338 0.2268 0.11811
3424.584 0.2827 0.3179 0.1402 0.16538 0.258 0.2949 0.2967 0.2151 0.2239 0.15005
3443.877 0.097726 0.2463 0.3183 0.2744 0.2232 0.2189 0.2287 0.2574 0.2625 0.2185
3463.171 0.16361 0.2039 0.2239 0.14894 0.14576 0.1401 0.14541 0.2009 0.15855 0.15437
3482.464 0.13238 0.11751 0.2268 0.2492 0.227 0.2206 0.2769 0.2933 0.199 0.1994
3501.758 0.2939 0.2718 0.3203 0.2681 0.16556 0.2458 0.2668 0.2039 0.2199 0.3365
3521.051 0.3197 0.3035 0.3203 0.3052 0.344 0.3436 0.2983 0.2669 0.2298 0.2297
3540.344 0.2728 0.2755 0.2595 0.3258 0.2523 0.12568 0.17002 0.19114 0.2351 0.2886
3559.638 0.311 0.298 0.3457 0.3605 0.335 0.3926 0.3975 0.3933 0.3593 0.3613
3578.931 0.3335 0.2188 0.15633 0.11783 0.12606 0.2038 0.2773 0.3001 0.3209 0.3291
3598.225 0.267 0.2082 0.2668 0.4095 0.3419 0.1665 0.13273 0.2285 0.2751 0.2245
3617.518 0.222 0.2198 0.1597 0.14399 0.1945 0.16409 0.0701 0.0465 0.10632 0.1186
3636.812 0.2185 0.3037 0.18178 0.13915 0.14316 0.14678 0.12147 0.12509 0.2344 0.2425
3656.105 0.2335 0.2977 0.3337 0.3219 0.328 0.3372 0.2332 0.13035 0.12594 0.13017
3675.398 0.13494 0.11163 0.11091 0.13357 0.15534 0.1877 0.18147 0.101652 0.1955 0.312
3694.692 0.2757 0.18407 0.15294 0.2381 0.2417 0.2457 0.2262 0.15439 0.16461 0.2164
3713.985 0.2391 0.2522 0.2325 0.2161 0.2403 0.17854 0.1566 0.13901 0.0487 0.0839
3733.279 0.17062 0.15376 0.11486 0.12271 0.16706 0.2111 0.15839 0.15977 0.1951 0.2254
3752.572 0.2038 0.11967 0.18118 0.2291 0.2174 0.2234 0.2398 0.2142 0.13914 0.11879
3771.866 0.16575 0.18429 0.2385 0.2394 0.2128 0.2628 0.2676 0.2441 0.2039 0.2063
3791.159 0.2417 0.2834 0.2918 0.2807 0.2165 0.16341 0.2087 0.1958 0.104003 0.101471
3810.452 0.12172 0.12535 0.17195 0.16015 0.16992 0.2221 0.17906 0.2227 0.2259 0.17177
3829.746 0.2386 0.2666 0.2306 0.16465 0.13626 0.16554 0.16951 0.16675 0.11746 0.1368
3849.039 0.15267 0.0796 0.0826 0.14315 0.2088 0.18955 0.12166 0.12307 0.17629 0.2185
3868.333 0.2556 0.2506 0.2315 0.2448 0.2847 0.3343 0.3019 0.2393 0.16761 0.14099
3887.626 0.16945 0.16512 0.16899 0.15885 0.2157 0.2355 0.1946 0.2093 0.16705 0.13173
3906.920 0.19196 0.2665 0.1991 0.12436 0.16071 0.08621 0.0414 0.11743 0.13499 0.12258
3926.213 0.16964 0.2101 0.204 0.16913 0.2222 0.2753 0.2175 0.1967 0.18017 0.15101
3945.506 0.1548 0.2059 0.264 0.19384 0.100389 0.14416 0.2498 0.2694 0.1994 0.16252
3964.800 0.15535 0.14904 0.15151 0.1497 0.17719 0.2123 0.216 0.2561 0.2989 0.2913
3984.093 0.2517 0.17962 0.2048 0.259 0.2452 0.207 0.17403 0.2026 0.15576
##END=
