##TITLE=4,4-Dimethyl-3-oxopentanenitrile
##JCAMP-DX=4.24
##DATA TYPE=INFRARED SPECTRUM
##ORIGIN=EPA-IR VAPOR PHASE LIBRARY
##OWNER=SRD/NIST
Collection (C) 2018 copyright by the U.S. Secretary of Commerce
on behalf of the United States of America. All rights reserved.
##CAS REGISTRY NO=59997-51-2
##MOLFORM=C 7 H 11 N O
##$NIST SOURCE=MSDC-IR
##STATE=gas
##XUNITS=1/CM
##YUNITS=ABSORBANCE
##XFACTOR=1.
##YFACTOR=0.001
##DELTAX=1.92898
##FIRSTX=549.8
##LASTX=4000.7
##FIRSTY=2.092
##MAXX=4000.7
##MINX=549.759
##MAXY=0.044222
##MINY=0
##NPOINTS=1790
##XYDATA=(X++(Y..Y))
549.759 2.092 2.192 2.372 2.532 2.652 2.872 2.722 2.622 2.532 2.342
569.049 2.232 2.192 2.232 2.102 1.662 1.322 1.372 1.362 1.252 1.1269
588.339 0.93 0.8027 0.8331 1.0648 1.0742 0.8176 0.6421 0.6624 0.592 0.3938
607.628 0.4788 0.6045 0.5501 0.4775 0.4401 0.5663 0.5778 0.2881 0.236 0.3693
626.918 0.4513 0.4272 0.4686 0.6038 0.6668 0.6198 0.5558 0.7468 0.8884 0.8751
646.208 0.8653 0.7058 0.7489 0.6949 0.5805 0.5878 0.5025 0.6269 0.6749 0.775
665.498 0.9029 0.811 0.8393 0.9988 0.8785 0.7775 0.8906 0.8379 0.7329 0.8249
684.787 0.9103 0.9495 0.9829 0.9264 1.0469 1.172 1.142 1.152 1.272 1.192
704.077 1.142 1.083 0.9058 0.9034 0.997 1.0292 0.8549 0.914 1.019 0.8675
723.367 0.737 0.7797 0.7427 0.7245 0.7228 0.6723 0.7231 0.7705 0.8926 1.0672
742.657 1.0632 0.9351 0.9365 1.022 1.1129 1.0066 1.03 1.172 1.1292 1.252
761.947 1.472 1.452 1.402 1.322 1.262 1.252 1.232 1.0505 0.9986 1.172
781.236 1.0589 0.9403 0.8534 0.7017 0.6484 0.6339 0.6382 0.4712 0.3322 0.4949
800.526 0.5527 0.6909 0.7226 0.5292 0.5616 0.6408 0.6003 0.726 0.7754 0.8425
819.816 0.9386 1.0301 1.182 1.242 1.262 1.152 1.0299 0.9189 0.9594 1.0551
839.106 1.0983 1.182 1.0168 0.6883 0.619 0.6849 0.5927 0.5252 0.6233 0.5083
858.395 0.3915 0.4127 0.5542 0.7463 0.7736 0.7213 0.8208 0.809 0.7911 0.8329
877.685 0.956 1.212 1.352 1.562 1.532 1.592 1.702 1.792 1.962 2.112
896.975 2.482 2.732 2.812 2.962 3.162 3.302 3.442 3.602 3.822 3.982
916.265 3.982 3.922 4.152 4.582 4.642 4.692 4.822 4.762 4.932 4.982
935.555 4.762 4.652 4.522 4.242 3.872 3.522 3.182 2.892 2.782 2.582
954.844 2.072 1.772 1.622 1.362 1.242 1.0622 1.1017 1.222 1.152 1.202
974.134 1.282 1.252 1.262 1.262 1.332 1.522 1.512 1.352 1.172 1.322
993.424 1.742 1.872 1.992 2.132 2.492 3.052 3.372 3.782 4.222 4.562
1012.714 5.062 5.412 5.622 6.052 6.352 6.492 6.392 6.282 6.282 6.322
1032.003 6.612 6.822 6.902 7.092 7.652 8.302 8.952 9.932 10.972 11.942
1051.293 12.872 14.282 15.622 16.392 17.342 18.292 19.022 19.722 19.972 19.942
1070.583 19.702 19.262 19.002 18.652 17.802 16.812 15.732 14.852 13.742 12.012
1089.873 10.542 9.532 8.432 6.882 5.802 5.332 5.102 4.142 3.572 2.942
1109.163 2.422 2.692 2.282 2.102 2.152 2.122 1.852 1.712 1.852 1.832
1128.452 1.772 1.542 1.402 1.192 1.182 1.0955 0.772 0.8955 0.8552 0.901
1147.742 1.1216 1.162 1.392 1.512 1.372 1.522 1.572 1.392 1.322 1.402
1167.032 1.732 1.892 1.802 1.932 2.172 2.232 2.572 2.932 3.002 3.342
1186.322 3.412 3.122 3.482 3.802 3.582 3.582 3.632 3.642 3.732 3.642
1205.611 3.702 3.932 3.892 3.842 4.032 4.242 3.902 3.612 3.462 3.362
1224.901 3.332 2.912 2.622 2.662 2.542 2.252 2.252 2.242 2.332 2.512
1244.191 2.502 2.522 2.652 2.932 3.072 3.162 3.332 3.762 4.032 4.022
1263.481 4.262 4.582 5.012 5.192 5.222 5.542 5.872 5.982 6.032 6.162
1282.771 6.202 6.232 6.352 6.392 6.492 6.492 6.442 6.502 6.582 6.632
1302.060 6.642 6.662 6.712 6.552 6.332 6.212 5.962 5.652 5.322 4.882
1321.350 4.452 4.102 3.712 3.362 3.032 2.722 2.582 2.412 2.272 2.232
1340.640 2.222 2.282 2.322 2.462 2.672 2.922 3.252 3.642 4.182 4.732
1359.930 5.312 6.042 6.782 7.522 8.252 8.902 9.492 9.782 9.662 9.432
1379.219 9.142 8.882 8.712 8.432 8.152 7.992 7.862 7.802 7.842 7.912
1398.509 8.042 8.152 8.192 8.102 8.012 7.872 7.572 7.182 6.712 6.212
1417.799 5.772 5.402 5.062 4.782 4.542 4.332 4.172 4.012 3.922 3.882
1437.089 3.862 3.872 3.972 4.042 4.202 4.472 4.712 5.002 5.402 5.832
1456.378 6.282 6.862 7.432 7.912 8.472 9.192 9.932 10.662 11.372 11.992
1475.668 12.312 12.352 12.272 12.052 11.612 10.992 10.272 9.442 8.522 7.462
1494.958 6.372 5.332 4.362 3.592 3.062 2.602 2.252 2.002 1.822 1.702
1514.248 1.562 1.462 1.392 1.312 1.302 1.242 1.172 1.152 1.106 1.0643
1533.538 0.9977 1.0054 0.9505 0.9567 0.9838 0.9294 0.8563 0.7763 0.7413 0.721
1552.827 0.796 0.762 0.6598 0.6808 0.6928 0.6633 0.6682 0.6649 0.6505 0.6169
1572.117 0.6165 0.6261 0.6649 0.6827 0.6516 0.6794 0.6819 0.6866 0.7079 0.6141
1591.407 0.6044 0.7273 0.743 0.7934 0.8188 0.7851 0.9307 0.9947 1.0004 1.1169
1610.697 1.242 1.352 1.472 1.562 1.602 1.682 1.742 1.732 1.712 1.692
1629.986 1.632 1.572 1.482 1.362 1.292 1.222 1.172 1.142 1.0967 1.0857
1649.276 1.152 1.252 1.262 1.282 1.272 1.312 1.372 1.382 1.452 1.542
1668.566 1.592 1.732 1.862 1.922 2.092 2.282 2.442 2.662 2.992 3.252
1687.856 3.532 3.902 4.322 4.872 5.532 6.212 7.012 8.062 9.262 10.722
1707.146 12.442 14.322 16.512 19.042 21.822 24.822 27.912 30.882 33.812 36.552
1726.435 39.012 41.162 42.862 43.902 44.222 43.712 42.322 40.162 37.522 34.472
1745.725 31.122 27.582 24.002 20.472 17.112 14.192 11.672 9.592 7.952 6.612
1765.015 5.582 4.882 4.282 3.792 3.382 3.042 2.772 2.562 2.422 2.292
1784.305 2.112 1.922 1.812 1.722 1.662 1.622 1.542 1.512 1.472 1.382
1803.594 1.242 1.099 1.0849 1.1024 1.0395 1 0.9542 0.9051 0.895 0.8583
1822.884 0.793 0.7965 0.7636 0.6891 0.6977 0.7292 0.7682 0.7617 0.7313 0.689
1842.174 0.6368 0.6464 0.6231 0.582 0.5981 0.6484 0.6302 0.5768 0.5636 0.5787
1861.464 0.5244 0.4989 0.5614 0.6106 0.5954 0.523 0.48 0.4587 0.4554 0.4717
1880.754 0.5169 0.5621 0.5167 0.5118 0.5654 0.5587 0.5512 0.5339 0.5173 0.5118
1900.043 0.542 0.5451 0.5267 0.4846 0.4365 0.4343 0.4697 0.492 0.4873 0.4853
1919.333 0.464 0.4534 0.4703 0.4192 0.3622 0.4194 0.4205 0.4091 0.4693 0.4411
1938.623 0.3963 0.4105 0.4283 0.4369 0.4279 0.3904 0.362 0.3495 0.3464 0.3841
1957.913 0.4314 0.4165 0.3749 0.3974 0.4638 0.4545 0.3721 0.3643 0.4008 0.4198
1977.202 0.3855 0.3874 0.4395 0.4534 0.431 0.3953 0.4102 0.4462 0.4152 0.3889
1996.492 0.3963 0.3561 0.344 0.3438 0.3762 0.3407 0.2542 0.2498 0.2942 0.3484
2015.782 0.3073 0.2784 0.278 0.2741 0.2954 0.241 0.21487 0.2615 0.3019 0.3206
2035.072 0.3448 0.3344 0.2728 0.3142 0.3755 0.3302 0.2676 0.2934 0.3137 0.2792
2054.362 0.2928 0.3358 0.3206 0.2661 0.2801 0.2546 0.22741 0.2676 0.2496 0.253
2073.651 0.322 0.389 0.4115 0.3784 0.3272 0.3416 0.3822 0.3827 0.3845 0.4271
2092.941 0.4098 0.346 0.337 0.3443 0.36 0.3637 0.3357 0.349 0.3605 0.3272
2112.231 0.3256 0.3083 0.2802 0.3109 0.3082 0.3137 0.3226 0.2748 0.2909 0.3254
2131.521 0.3316 0.36 0.4121 0.3621 0.2576 0.2776 0.3244 0.3594 0.3897 0.3654
2150.810 0.3488 0.3489 0.3438 0.3484 0.3907 0.3896 0.3329 0.3332 0.3042 0.2845
2170.100 0.2946 0.2847 0.2821 0.2854 0.3058 0.2989 0.3163 0.3622 0.3664 0.3955
2189.390 0.4072 0.3277 0.3219 0.3744 0.4244 0.5175 0.5399 0.5489 0.5937 0.6265
2208.680 0.607 0.6034 0.6244 0.6005 0.5829 0.549 0.5546 0.5469 0.4608 0.3833
2227.970 0.4461 0.5412 0.5413 0.4611 0.4792 0.6361 0.7259 0.7716 0.8407 0.9199
2247.259 1.0564 1.212 1.312 1.372 1.402 1.392 1.432 1.422 1.352 1.312
2266.549 1.152 0.9702 0.8729 0.725 0.6338 0.6336 0.578 0.51 0.4406 0.3752
2285.839 0.3827 0.4459 0.4499 0.3948 0.4183 0.4483 0.468 0.4593 0.3778 0.4205
2305.129 0.4111 0.373 0.3866 0.4176 0.5281 0.5009 0.408 0.3756 0.3793 0.4539
2324.418 0.4928 0.4027 0.3273 0.3247 0.3229 0.2991 0.3549 0.3703 0.2716 0.2774
2343.708 0.3009 0.3264 0.3466 0.3144 0.2885 0.22918 0.3009 0.3691 0.2965 0.2502
2362.998 0.2474 0.2663 0.3105 0.3197 0.3292 0.2981 0.3413 0.4121 0.3747 0.3575
2382.288 0.3687 0.3051 0.21962 0.2693 0.3539 0.4235 0.4209 0.4036 0.4234 0.3952
2401.578 0.3876 0.3603 0.2816 0.31 0.3216 0.2784 0.2714 0.2994 0.3207 0.313
2420.867 0.3266 0.3413 0.3739 0.3176 0.20118 0.2685 0.2642 0.18824 0.22757 0.2466
2440.157 0.2592 0.2769 0.2633 0.22451 0.2137 0.2431 0.2969 0.3485 0.3672 0.3149
2459.447 0.2546 0.2465 0.2741 0.3416 0.3131 0.2423 0.2849 0.3482 0.3317 0.2901
2478.737 0.21555 0.22741 0.2768 0.261 0.2737 0.2482 0.2657 0.3373 0.413 0.3574
2498.026 0.243 0.19629 0.2759 0.3466 0.2729 0.2687 0.281 0.291 0.328 0.3674
2517.316 0.4455 0.3978 0.2937 0.295 0.3293 0.3228 0.2851 0.2757 0.3034 0.3101
2536.606 0.3144 0.4007 0.4105 0.3094 0.3093 0.3311 0.3084 0.2995 0.302 0.3333
2555.896 0.3937 0.3713 0.277 0.2575 0.295 0.3417 0.4374 0.4303 0.3819 0.3974
2575.186 0.397 0.4731 0.4723 0.4453 0.5057 0.5207 0.4854 0.4146 0.4032 0.4615
2594.475 0.4629 0.4273 0.3994 0.4093 0.4227 0.3611 0.3732 0.3776 0.3169 0.3793
2613.765 0.4803 0.494 0.4066 0.3838 0.412 0.3414 0.4223 0.5312 0.4367 0.3826
2633.055 0.3292 0.3035 0.4051 0.4215 0.4394 0.4617 0.4043 0.4078 0.4629 0.4582
2652.345 0.3702 0.4173 0.4727 0.4122 0.4163 0.4215 0.3691 0.3622 0.4458 0.4443
2671.634 0.4417 0.4686 0.4164 0.4481 0.503 0.5369 0.4997 0.4989 0.5015 0.4454
2690.924 0.4009 0.3975 0.4742 0.473 0.4798 0.5234 0.4553 0.3888 0.4587 0.5485
2710.214 0.4749 0.484 0.5199 0.4261 0.425 0.5706 0.6426 0.6611 0.6395 0.6007
2729.504 0.6832 0.6609 0.6485 0.6102 0.608 0.6939 0.6041 0.4943 0.5423 0.6449
2748.794 0.6984 0.6323 0.5634 0.5731 0.5184 0.5326 0.6397 0.6822 0.6405 0.578
2768.083 0.5996 0.637 0.6057 0.5827 0.6423 0.6944 0.7054 0.7003 0.6717 0.6891
2787.373 0.7052 0.7179 0.781 0.7956 0.8348 0.8788 0.8595 0.8628 0.8893 1.0129
2806.663 1.0548 0.9405 0.9961 1.1115 1.152 1.1011 1.1121 1.1294 1.0923 1.182
2825.953 1.262 1.312 1.332 1.332 1.372 1.402 1.332 1.452 1.552 1.592
2845.242 1.812 1.922 1.982 2.092 2.252 2.392 2.652 2.932 3.302 3.812
2864.532 4.212 4.752 5.342 5.882 6.492 7.042 7.582 8.012 8.392 8.822
2883.822 9.102 9.292 9.392 9.262 9.152 9.142 9.102 9.152 9.162 9.072
2903.112 9.122 9.282 9.492 9.702 9.832 10.062 10.392 10.662 10.952 11.312
2922.401 11.522 11.742 12.042 12.392 12.782 13.262 13.712 14.182 14.662 15.172
2941.691 15.782 16.332 16.872 17.412 18.022 18.722 19.642 20.772 22.012 23.432
2960.981 25.212 27.242 29.362 31.542 33.552 35.172 36.382 37.262 37.672 37.462
2980.271 36.622 35.322 33.442 31.082 28.542 25.762 22.892 20.102 17.422 15.062
2999.561 13.022 11.242 9.532 8.012 6.772 5.732 4.892 4.182 3.672 3.222
3018.850 2.862 2.502 2.242 2.132 1.982 1.692 1.432 1.372 1.422 1.312
3038.140 1.202 1.142 1.0219 1.0355 1.0314 0.9695 0.9374 0.8665 0.7427 0.6963
3057.430 0.6945 0.7025 0.7204 0.7364 0.6996 0.6439 0.7181 0.6583 0.6061 0.5648
3076.720 0.5802 0.7491 0.6673 0.6121 0.6781 0.6421 0.7144 0.8022 0.7653 0.6768
3096.009 0.6025 0.6746 0.7841 0.7625 0.7526 0.7934 0.7593 0.8252 0.8381 0.6834
3115.299 0.6805 0.7626 0.8735 0.8593 0.7027 0.6879 0.7846 0.7795 0.8094 0.864
3134.589 0.7447 0.7645 0.871 0.8192 0.7052 0.7117 0.7946 0.7464 0.7151 0.7759
3153.879 0.8278 0.7921 0.7753 0.7977 0.8051 0.8554 0.888 0.8253 0.7312 0.7009
3173.169 0.739 0.8473 0.859 0.7557 0.7192 0.8336 0.9828 0.9959 0.9403 0.9561
3192.458 1.0285 1.0665 0.9157 0.8233 0.8824 0.8793 0.8864 0.8371 0.8387 0.8886
3211.748 0.9564 0.9194 0.8101 0.7177 0.7065 0.7067 0.6508 0.6826 0.7126 0.7058
3231.038 0.6532 0.5834 0.4812 0.5118 0.5868 0.631 0.677 0.5865 0.4494 0.443
3250.328 0.4717 0.5132 0.587 0.4048 0.267 0.4349 0.5686 0.4447 0.2874 0.3243
3269.617 0.3038 0.4257 0.46 0.3698 0.3956 0.2964 0.2597 0.22429 0.3411 0.5324
3288.907 0.4318 0.2839 0.351 0.3725 0.3971 0.4416 0.4522 0.4689 0.2809 0.2709
3308.197 0.4205 0.561 0.5485 0.477 0.4372 0.4597 0.4053 0.29 0.3708 0.3875
3327.487 0.3859 0.4672 0.4092 0.3976 0.4882 0.4454 0.3196 0.3243 0.4425 0.4062
3346.777 0.3149 0.21642 0.3292 0.4593 0.4738 0.4648 0.4133 0.292 0.16677 0.2847
3366.066 0.367 0.2891 0.3479 0.3837 0.2638 0.3247 0.32 0.17668 0.20814 0.2791
3385.356 0.3513 0.4066 0.2674 0.15625 0.22531 0.3052 0.4462 0.441 0.369 0.4907
3404.646 0.507 0.4778 0.5224 0.5221 0.4463 0.5093 0.5213 0.6368 0.7101 0.5726
3423.936 0.7197 0.8845 0.8203 0.806 0.8811 0.956 1.0626 0.9499 0.8725 0.9858
3443.225 1.0091 1.0438 1.152 1.1218 1.0185 1.0393 1.162 1.1067 1.0497 1.0142
3462.515 0.8866 0.7548 0.6086 0.6386 0.6965 0.5965 0.5344 0.4445 0.3208 0.3491
3481.805 0.4112 0.3985 0.4474 0.5474 0.4904 0.377 0.3647 0.4073 0.4143 0.4366
3501.095 0.4429 0.3708 0.4323 0.4217 0.2912 0.2321 0.2674 0.4187 0.4394 0.379
3520.385 0.3262 0.2553 0.3198 0.4689 0.4386 0.2967 0.3641 0.5077 0.5615 0.6335
3539.674 0.6197 0.5252 0.5673 0.6907 0.6803 0.5721 0.4723 0.446 0.4146 0.4208
3558.964 0.4103 0.3526 0.2505 0.2371 0.4417 0.3912 0.17406 0.17724 0.20073 0.14932
3578.254 0.14412 0.18063 0.2574 0.2892 0.18394 0.19893 0.2899 0.2593 0.3009 0.3509
3597.544 0.2933 0.2909 0.279 0.2446 0.18579 0.20497 0.4106 0.394 0.2728 0.2694
3616.833 0.3541 0.4386 0.3334 0.21806 0.2538 0.2703 0.20472 0.16893 0.17403 0.3006
3636.123 0.3242 0.2873 0.3552 0.3092 0.2236 0.2399 0.2841 0.2798 0.3186 0.3126
3655.413 0.2914 0.2323 0.14608 0.16053 0.17244 0.14475 0.0864 0.12579 0.15353 0.0954
3674.703 0.12664 0.2325 0.2693 0.20974 0.21655 0.3159 0.2632 0.22096 0.2564 0.1785
3693.993 0.141427 0.15938 0.2516 0.2914 0.20357 0.2339 0.1817 0.17806 0.18588 0.18296
3713.282 0.3356 0.3594 0.3351 0.2614 0.2252 0.22623 0.15449 0.2255 0.2841 0.21589
3732.572 0.16663 0.0843 0.0394 0.21823 0.3399 0.20647 0.18242 0.2827 0.2734 0.1725
3751.862 0.19432 0.2351 0.138196 0.23181 0.2617 0.1183 0.16933 0.14862 0.1169 0.17891
3771.152 0.22688 0.16931 0.107 0.0844 0.12823 0.18249 0.14977 0.2516 0.3204 0.2904
3790.441 0.3384 0.3548 0.2644 0.17032 0.18792 0.2653 0.16871 0.21772 0.3729 0.2739
3809.731 0.15676 0.13788 0.19563 0.23044 0.18739 0.2442 0.21877 0.0687 0.17818 0.19329
3829.021 0.16649 0.3145 0.21684 0.23192 0.383 0.3853 0.3152 0.2456 0.3141 0.3962
3848.311 0.3504 0.3218 0.2866 0.445 0.519 0.3442 0.247 0.21969 0.17605 0.1776
3867.601 0.3024 0.2495 0.097 0.20355 0.2935 0.3036 0.3191 0.2883 0.3833 0.3319
3886.890 0.2454 0.4925 0.5831 0.4181 0.334 0.4469 0.4859 0.4152 0.5124 0.4861
3906.180 0.364 0.3791 0.4714 0.4405 0.21108 0.17562 0.3001 0.22681 0.22637 0.2172
3925.470 0.14964 0.22523 0.2769 0.3759 0.4522 0.503 0.5769 0.4999 0.4218 0.4174
3944.760 0.4459 0.2527 0.16152 0.22997 0.2882 0.2358 0.103 0.18007 0.22805 0.14868
3964.049 0.19317 0.39 0.4261 0.2576 0.1076 0 0.0348 0.2664 0.2677 0.2011
3983.339 0.3721 0.3907 0.4022 0.3634 0.2461 0.301 0.2323 0.22758 0.3333 0.2897
##END=
