##TITLE=Dimethoate
##JCAMP-DX=4.24
##DATA TYPE=INFRARED SPECTRUM
##ORIGIN=NIST Mass Spectrometry Data Center
##OWNER=NIST Standard Reference Data Program
Collection (C) 2018 copyright by the U.S. Secretary of Commerce
on behalf of the United States of America. All rights reserved.
##CAS REGISTRY NO=60-51-5
##MOLFORM=C 5 H 12 N O 3 P S 2
##$NIST SOURCE=MSDC-IR
##SPECTROMETER/DATA SYSTEM=HP-GC/MS/IRD
##STATE=gas
##XUNITS=1/CM
##YUNITS=ABSORBANCE
##XFACTOR=1.0
##YFACTOR=0.000005000
##DELTAX=4.0
##FIRSTX=550.0
##LASTX=3846.0
##FIRSTY=0.001320
##MAXX=3846
##MINX=550
##MAXY=0.05
##MINY=0
##NPOINTS=825
##XYDATA=(X++(Y..Y))
550.0 264 155 8 35 24 11 7 19 36 40
590.0 56 70 83 74 73 80 77 85 107 148
630.0 209 304 453 703 1139 1854 2879 4021 4834 4895
670.0 4175 3061 2024 1307 887 650 498 399 317 254
710.0 208 173 153 146 156 166 177 204 248 285
750.0 312 341 363 386 435 529 664 845 1094 1434
790.0 1845 2324 2827 3296 3715 4053 4237 4209 3943 3480
830.0 2907 2316 1799 1390 1088 866 686 552 453 373
870.0 321 279 249 228 219 221 202 173 157 144
910.0 126 109 105 99 99 106 108 110 120 136
950.0 140 153 175 197 220 249 285 336 413 502
990.0 622 797 1043 1399 1892 2564 3491 4687 6100 7587
1030.0 8873 9729 10000 9661 8945 8091 7176 6162 5065 4003
1070.0 3113 2449 1980 1657 1441 1291 1175 1080 1012 962
1110.0 906 850 810 783 754 745 753 771 771 768
1150.0 778 797 841 909 1005 1119 1220 1286 1280 1215
1190.0 1120 1019 929 862 821 790 781 794 826 867
1230.0 907 942 972 1009 1039 1041 999 928 850 782
1270.0 722 677 641 592 532 466 397 332 274 232
1310.0 204 183 168 154 150 150 153 158 163 169
1350.0 174 174 174 181 182 194 216 241 275 319
1390.0 373 435 505 569 625 671 697 697 676 639
1430.0 606 597 620 668 729 780 829 880 940 1016
1470.0 1107 1220 1354 1520 1719 1942 2166 2368 2518 2604
1510.0 2605 2532 2417 2257 2073 1883 1692 1508 1325 1154
1550.0 1005 886 792 685 592 522 464 409 357 313
1590.0 281 250 225 208 189 173 165 153 142 136
1630.0 132 140 149 156 176 205 242 281 344 421
1670.0 515 635 784 979 1255 1635 2195 3033 4164 5405
1710.0 6307 6421 5663 4423 3257 2427 1864 1426 1085 815
1750.0 606 444 328 246 185 144 112 89 76 67
1790.0 61 53 49 51 50 52 59 70 82 95
1830.0 103 108 114 121 127 130 126 118 111 102
1870.0 90 77 67 54 44 35 30 25 20 14
1910.0 10 10 11 9 8 2 0 0 1 2
1950.0 2 4 4 5 6 7 10 15 16 15
1990.0 15 17 13 12 13 10 7 9 7 4
2030.0 5 6 6 7 10 10 11 14 15 14
2070.0 15 15 15 16 17 17 18 16 16 21
2110.0 21 21 18 16 14 13 9 7 7 7
2150.0 8 7 8 11 14 11 8 11 11 8
2190.0 11 14 13 13 17 16 14 15 13 14
2230.0 16 18 19 15 16 19 18 20 23 22
2270.0 21 22 20 18 17 18 20 16 17 16
2310.0 16 18 17 18 19 18 18 21 20 16
2350.0 19 25 26 27 25 20 12 12 15 13
2390.0 11 13 15 15 15 14 15 13 9 11
2430.0 11 14 16 15 15 16 17 16 17 16
2470.0 15 14 11 14 15 13 15 20 19 20
2510.0 20 16 14 14 19 22 15 14 25 29
2550.0 31 28 33 33 33 31 30 35 35 37
2590.0 31 31 37 38 40 43 41 39 37 40
2630.0 42 38 39 39 43 47 39 34 35 30
2670.0 30 35 35 33 25 23 27 27 29 30
2710.0 32 38 40 42 38 35 40 42 44 41
2750.0 38 41 43 47 53 59 65 66 66 74
2790.0 90 97 103 124 150 173 198 221 230 232
2830.0 237 246 284 363 473 582 638 608 512 422
2870.0 367 355 378 411 443 490 549 605 662 717
2910.0 768 806 842 881 940 1029 1128 1255 1451 1742
2950.0 2105 2398 2438 2171 1716 1284 987 808 710 665
2990.0 637 628 622 605 588 579 574 575 570 548
3030.0 500 447 403 360 335 317 293 282 277 267
3070.0 251 238 234 219 211 203 189 178 170 161
3110.0 146 134 126 108 99 98 93 85 75 63
3150.0 62 68 56 45 44 49 46 39 39 42
3190.0 44 40 38 37 41 45 43 45 48 46
3230.0 50 46 38 41 45 46 43 40 38 37
3270.0 39 40 45 57 62 56 62 59 57 64
3310.0 67 69 74 75 82 91 101 101 103 111
3350.0 119 133 146 162 183 202 219 243 282 326
3390.0 365 400 431 454 469 467 460 461 459 470
3430.0 497 544 601 658 691 668 591 487 393 325
3470.0 279 245 216 195 176 157 139 113 95 73
3510.0 53 56 51 48 42 35 34 31 30 23
3550.0 29 34 19 13 17 15 16 21 24 24
3590.0 23 16 5 20 38 34 29 27 23 31
3630.0 42 31 17 17 20 32 31 28 26 30
3670.0 34 31 28 22 26 17 7 11 14 21
3710.0 37 35 22 14 9 17 25 25 31 44
3750.0 47 33 24 26 24 22 20 30 34 37
3790.0 42 38 39 36 31 29 27 29 37 28
3830.0 27 37 39 45 41
##END=
