##TITLE=Crotonyl isothiocyanate
##JCAMP-DX=4.24
##DATA TYPE=INFRARED SPECTRUM
##ORIGIN=EPA-IR VAPOR PHASE LIBRARY
##OWNER=SRD/NIST
Collection (C) 2018 copyright by the U.S. Secretary of Commerce
on behalf of the United States of America. All rights reserved.
##CAS REGISTRY NO=60034-28-8
##MOLFORM=C 5 H 5 N O S
##$NIST SOURCE=MSDC-IR
##STATE=gas
##XUNITS=1/CM
##YUNITS=ABSORBANCE
##XFACTOR=1.
##YFACTOR=0.001
##DELTAX=1.92898
##FIRSTX=549.8
##LASTX=4000.7
##FIRSTY=2.67
##MAXX=4000.7
##MINX=549.759
##MAXY=0.33152
##MINY=0
##NPOINTS=1790
##XYDATA=(X++(Y..Y))
549.759 2.67 2.49 2.12 2.23 2.63 2.86 3.01 3.02 3.3 3.47
569.049 3.32 3.17 3.14 3.12 3.18 3.14 2.85 2.85 3.03 2.9
588.339 2.92 3.17 3.08 2.98 2.95 2.93 3.13 3.37 3.45 3.65
607.628 3.96 4.21 4.53 4.91 5.46 6.2 7.05 8.07 9.58 11.53
626.918 14.2 18.14 23.06 28.27 32.75 35.89 37.78 39.21 40.9 42.16
646.208 41.91 39.79 36.29 32.56 29.25 26.63 24.85 23.63 22.6 21.64
665.498 20.95 20.13 18.85 17.66 16.65 15.45 14.24 13.25 12.48 11.9
684.787 11.19 10.69 10.47 10.19 9.84 9.58 9.36 9.03 8.69 8.32
704.077 8.04 7.65 7.24 6.95 6.57 6.15 5.84 5.63 5.33 5.03
723.367 4.83 4.72 4.54 4.6 4.74 4.6 4.38 4.23 4.18 4.35
742.657 4.44 4.41 4.54 4.63 4.74 4.71 4.97 5.5 5.86 6.36
761.947 7.02 7.63 8.49 9.55 10.82 12.41 14.44 17.26 20.7 24.3
781.236 28.1 31.91 35.1 37.83 40.12 41.52 42.02 41.18 38.92 36.19
800.526 33.1 29.76 26.43 22.97 19.57 16.61 14.25 12.5 11.21 10.01
819.816 9.16 8.64 8.01 7.41 7.16 7.06 6.81 6.64 6.41 6.02
839.106 5.89 5.69 5.45 5.28 5.12 5.06 4.83 4.72 4.59 4.49
858.395 4.64 4.53 4.39 4.46 4.5 4.54 4.5 4.45 4.41 4.54
877.685 4.8 4.89 5.11 5.46 5.74 6.05 6.57 6.99 7.56 8.42
896.975 9.31 10.46 11.75 13.18 14.64 16.04 17.3 18.45 19.57 20.42
916.265 21.15 21.57 21.67 21.9 21.92 21.86 21.89 21.76 21.47 21.15
935.555 20.71 20.26 19.86 19.57 19.21 18.88 19.02 19.34 19.88 20.53
954.844 21.13 21.69 22.26 22.93 23.64 24.04 23.89 22.55 20.2 18.28
974.134 16.72 15.26 13.97 12.54 11.15 9.77 8.65 8.06 7.5 7.15
993.424 7.03 7.05 7.22 7.6 8.21 8.56 8.68 8.85 9.15 9.33
1012.714 9.1 8.67 8.23 7.61 7.07 6.86 6.62 6.29 5.79 5.58
1032.003 5.54 5.41 5.44 5.18 5.02 5.25 5.44 5.67 5.76 5.88
1051.293 6.3 6.62 6.79 6.93 7.25 7.59 8.11 9 9.53 10.31
1070.583 11.56 12.81 14.5 16.24 17.96 20.17 22.93 25.74 28.43 30.79
1089.873 33.31 35.9 37.23 37.76 38.07 37.68 36.84 35.57 33.92 32.29
1109.163 31.02 30.11 29.48 29.81 31.01 32.76 35.38 38.46 41.85 45.78
1128.452 50.3 54.69 58.7 62.52 65.44 67.66 69.56 70.97 71.48 71.02
1147.742 69.68 67.23 63.62 59.45 55.36 50.56 45.26 40.12 35.29 31.24
1167.032 28.21 25.93 24.32 23.3 23.04 23.69 24.96 26.25 27.83 30.71
1186.322 34.5 38.58 43.23 49.04 55.86 63.22 70.89 79.42 88.15 96.47
1205.611 103.75 109.94 114.57 117.3 118.98 119.1 117.58 113.86 107.78 99.9
1224.901 90.15 79.77 70.11 60.67 51.53 42.78 34.18 26.89 21.71 18.15
1244.191 15.86 14.3 13.05 12.18 11.45 10.73 10.33 10.24 10.08 10.06
1263.481 10.47 11.06 11.59 12.13 12.93 13.73 14.77 16.37 18.4 21.07
1282.771 24.49 28.34 31.84 34.23 35.28 35.13 34.73 34.36 33.03 30.06
1302.060 25.91 21.57 17.95 15.29 13.23 11.66 10.45 9.42 8.59 7.98
1321.350 7.46 6.94 6.55 6.15 5.68 5.29 4.93 4.56 4.22 3.89
1340.640 3.6 3.4 3.28 3.19 3.1 3.02 2.96 2.95 2.97 3.04
1359.930 3.1 3.11 3.12 3.19 3.31 3.43 3.6 3.76 4 4.26
1379.219 4.36 4.4 4.54 4.63 4.59 4.57 4.47 4.26 4.03 3.89
1398.509 3.81 3.79 3.82 3.82 3.85 3.97 4.07 4.1 4.18 4.26
1417.799 4.28 4.38 4.53 4.72 4.9 5.09 5.33 5.6 6 6.46
1437.089 6.99 7.64 8.36 9.12 9.68 9.95 9.92 9.77 9.74 9.64
1456.378 9.25 8.52 7.69 6.84 6.11 5.56 5.05 4.66 4.32 4.09
1475.668 4.02 3.88 3.71 3.62 3.56 3.46 3.36 3.3 3.2 3.1
1494.958 3.1 3.04 2.95 2.84 2.81 2.82 2.74 2.61 2.57 2.53
1514.248 2.47 2.44 2.36 2.29 2.26 2.25 2.22 2.18 2.23 2.26
1533.538 2.32 2.35 2.34 2.41 2.42 2.45 2.49 2.56 2.64 2.6
1552.827 2.6 2.65 2.62 2.58 2.65 2.72 2.74 2.71 2.67 2.69
1572.117 2.75 2.71 2.69 2.78 2.85 2.93 2.99 2.99 3.07 3.25
1591.407 3.34 3.44 3.63 3.79 3.92 4.18 4.54 4.94 5.36 5.75
1610.697 6.33 7.03 7.73 8.44 9.45 10.71 12.11 13.77 15.7 17.97
1629.986 20.68 23.86 27.34 31.2 35.25 39.11 42.45 44.86 46.12 46.42
1649.276 45.73 43.97 41.05 37.07 32.3 27.19 22.51 18.61 15.55 13.35
1668.566 11.87 10.95 10.39 10.12 10.18 10.38 10.7 11.18 11.86 12.75
1687.856 13.83 15.14 16.68 18.62 21.05 24.11 28 32.95 39.15 46.96
1707.146 56.59 68.14 81.68 97.07 113.68 130.48 145.97 158.74 168.09 174.61
1726.435 179.89 184.67 187.14 184.55 176.37 164.11 149.31 132.75 115.14 97.86
1745.725 82.45 69.52 58.99 50.4 43.26 37.31 32.38 28.1 24.37 21.29
1765.015 18.67 16.42 14.51 12.95 11.57 10.37 9.37 8.51 7.84 7.36
1784.305 6.96 6.57 6.24 5.99 5.76 5.63 5.45 5.28 5.2 5.13
1803.594 5.06 4.95 4.87 4.87 4.86 4.86 4.87 4.88 4.93 4.99
1822.884 5.08 5.19 5.29 5.41 5.61 5.8 6 6.27 6.53 6.85
1842.174 7.18 7.58 8 8.38 8.85 9.41 9.97 10.5 11.03 11.65
1861.464 12.31 12.85 13.5 14.23 14.94 15.68 16.45 17.32 18.29 19.34
1880.754 20.48 21.68 22.99 24.45 26.02 27.68 29.44 31.35 33.43 35.62
1900.043 37.97 40.45 43 45.72 48.64 51.64 54.68 57.75 60.86 64.09
1919.333 67.39 70.72 74.1 77.55 81.03 84.59 88.3 92.19 96.28 100.65
1938.623 105.51 110.98 117.16 124.24 132.48 142 152.98 165.64 180.11 196.34
1957.913 214.2 233.16 252.27 270.9 288.04 303.08 315.64 324.81 330.1 331.52
1977.202 329.48 324.33 316.68 307.54 297.31 286.18 274.66 263.18 252.13 241.46
1996.492 231.19 221.52 212.35 203.83 196.06 189.16 183.14 178.05 173.78 170.2
2015.782 167.39 165.15 163.26 161.65 160.21 158.74 157.06 155.02 152.51 149.35
2035.072 145.53 140.94 135.51 129.43 122.92 116.08 108.92 101.75 94.75 87.85
2054.362 81.22 75.03 69.31 64.17 59.56 55.54 51.98 48.82 46.14 43.81
2073.651 41.82 40.09 38.63 37.44 36.34 35.35 34.54 33.84 33.32 32.92
2092.941 32.49 32.13 31.89 31.7 31.53 31.38 31.16 30.89 30.51 30
2112.231 29.46 28.87 28.17 27.29 26.25 25.16 24.11 23.04 21.99 21.05
2131.521 20.15 19.31 18.6 17.98 17.34 16.59 15.65 14.58 13.61 12.68
2150.810 11.81 11.05 10.48 10 9.51 9.12 8.74 8.29 7.87 7.57
2170.100 7.24 6.99 6.81 6.62 6.45 6.32 6.2 6.06 5.98 5.89
2189.390 5.8 5.78 5.77 5.73 5.65 5.59 5.6 5.61 5.53 5.44
2208.680 5.38 5.36 5.38 5.29 5.16 5.11 5.08 4.99 4.87 4.68
2227.970 4.49 4.4 4.22 4.03 3.89 3.75 3.63 3.45 3.3 3.23
2247.259 3.14 3.02 2.9 2.74 2.66 2.63 2.59 2.61 2.52 2.42
2266.549 2.44 2.45 2.4 2.4 2.44 2.39 2.39 2.43 2.38 2.35
2285.839 2.42 2.42 2.39 2.4 2.43 2.45 2.47 2.51 2.46 2.43
2305.129 2.46 2.43 2.37 2.36 2.38 2.33 2.32 2.33 2.27 2.25
2324.418 2.19 2.08 2.05 2 1.97 1.9 1.81 1.76 1.6607 1.6352
2343.708 1.5764 1.5001 1.486 1.4838 1.5444 1.5538 1.5937 1.69 1.73 1.7
2362.998 1.71 1.76 1.74 1.76 1.73 1.6166 1.5965 1.5866 1.5458 1.5694
2382.288 1.591 1.5173 1.4188 1.4144 1.4568 1.4775 1.4519 1.4222 1.3831 1.3751
2401.578 1.4663 1.555 1.5194 1.4899 1.5299 1.517 1.527 1.5153 1.4674 1.4024
2420.867 1.3766 1.4373 1.3988 1.4223 1.4734 1.4317 1.379 1.3624 1.4292 1.5273
2440.157 1.5082 1.4511 1.4786 1.4261 1.4156 1.4369 1.4811 1.5352 1.521 1.547
2459.447 1.5905 1.5279 1.5894 1.76 1.72 1.74 1.77 1.7 1.72 1.77
2478.737 1.73 1.84 1.89 1.75 1.6317 1.636 1.6646 1.6452 1.5686 1.5239
2498.026 1.5505 1.6139 1.6166 1.556 1.5956 1.587 1.6578 1.75 1.79 1.83
2517.316 1.74 1.76 1.86 1.84 1.82 1.89 1.89 1.93 2 1.93
2536.606 1.89 1.98 2.02 1.97 1.98 1.97 1.97 1.93 1.85 1.87
2555.896 1.89 1.9 1.98 2.03 1.89 1.76 1.74 1.76 1.81 1.83
2575.186 1.78 1.78 1.78 1.79 1.86 1.89 1.88 1.89 1.98 2.1
2594.475 2.15 2.2 2.18 2.23 2.32 2.37 2.41 2.49 2.62 2.67
2613.765 2.66 2.7 2.74 2.71 2.69 2.65 2.58 2.63 2.64 2.57
2633.055 2.49 2.37 2.32 2.37 2.32 2.31 2.35 2.39 2.49 2.46
2652.345 2.53 2.64 2.54 2.48 2.5 2.55 2.59 2.53 2.52 2.56
2671.634 2.5 2.47 2.45 2.46 2.36 2.2 2.21 2.2 2.11 1.99
2690.924 1.94 2 2.02 1.99 2.03 1.97 1.75 1.621 1.5908 1.575
2710.214 1.5643 1.5719 1.5902 1.6185 1.6015 1.5062 1.438 1.3766 1.3469 1.3908
2729.504 1.4844 1.5154 1.4948 1.4941 1.5088 1.4764 1.5132 1.6476 1.6524 1.5914
2748.794 1.5821 1.5174 1.4372 1.4402 1.3755 1.3169 1.3445 1.4025 1.3071 1.1711
2768.083 1.116 1.123 1.2236 1.1971 1.0969 1.0651 1.0911 1.1278 1.0838 1.0317
2787.373 1.0518 1.0522 1.0278 1.0199 1.0876 1.1085 1.1586 1.1622 1.012 0.9489
2806.663 0.8865 0.8915 1.0045 0.9764 0.9575 1.055 1.0635 0.9513 0.9054 0.9904
2825.953 1.0275 1.0569 1.1071 1.0515 0.988 0.9803 1.1507 1.3124 1.3354 1.3176
2845.242 1.4122 1.5005 1.5262 1.73 1.84 1.97 2.26 2.51 2.72 2.92
2864.532 3.04 3.14 3.17 3.23 3.3 3.26 3.12 2.97 2.93 2.76
2883.822 2.68 2.7 2.55 2.45 2.34 2.3 2.43 2.36 2.22 2.21
2903.112 2.3 2.4 2.42 2.48 2.59 2.8 3.02 3.42 3.95 4.56
2922.401 5.28 5.9 6.31 6.46 6.58 6.66 6.63 6.58 6.32 5.87
2941.691 5.37 4.97 4.72 4.53 4.48 4.44 4.37 4.46 4.65 4.92
2960.981 4.8 4.54 4.61 4.6 4.61 4.58 4.72 4.94 4.98 5.05
2980.271 5.09 5.05 4.96 4.78 4.7 4.62 4.45 4.26 3.97 3.58
2999.561 3.25 3.03 2.91 2.89 2.72 2.46 2.4 2.43 2.35 2.33
3018.850 2.35 2.39 2.37 2.27 2.33 2.46 2.62 2.7 2.72 2.81
3038.140 2.84 2.99 3.19 3.45 3.64 3.71 3.93 4.23 4.33 4.26
3057.430 4.19 4.09 3.99 3.83 3.56 3.19 2.68 2.28 2.09 1.91
3076.720 1.6886 1.5518 1.5537 1.5023 1.4372 1.4 1.3597 1.2989 1.1335 1.007
3096.009 0.9987 1.0405 1.0655 0.923 0.693637 0.73108 0.76678 0.7957 0.8772 0.9409
3115.299 0.8718 0.75431 0.77429 0.73453 0.7955 0.9101 0.8333 0.615 0.578 0.6797
3134.589 0.5987 0.6525 0.7909 0.72177 0.6082 0.6119 0.572 0.545 0.6524 0.572
3153.879 0.488 0.502 0.448 0.541 0.6018 0.535 0.45 0.371 0.358 0.393
3173.169 0.226 0.207 0.317 0.298 0.392 0.35 0.318 0.292 0.245 0.244
3192.458 0.28 0.22 0.119 0.136 0.236 0.325 0.246 0.165 0.061 0.173
3211.748 0.354 0.246 0.1 0.015 0.077 0.191 0.232 0.162 0.073 0.167
3231.038 0.251 0.239 0.099 0 0.094 0.137 0.148 0.159 0.196 0.117
3250.328 0.099 0.158 0.201 0.263 0.234 0.115 0.065 0.229 0.234 0.032
3269.617 0.074 0.184 0.27 0.341 0.253 0.219 0.237 0.28 0.154 0.099
3288.907 0.116 0.132 0.211 0.192 0.123 0.081 0.25 0.286 0.259 0.321
3308.197 0.34 0.256 0.183 0.277 0.358 0.287 0.145 0.204 0.245 0.153
3327.487 0.206 0.455 0.457 0.363 0.415 0.381 0.468 0.522 0.487 0.483
3346.777 0.252 0.334 0.539 0.521 0.513 0.481 0.579 0.656 0.6333 0.6287
3366.066 0.6393 0.8183 0.8219 0.6767 0.6767 0.77081 0.9028 0.9248 0.8806 0.6445
3385.356 0.556 0.68899 0.6428 0.539 0.69466 0.8648 0.8666 0.8048 0.77436 0.78482
3404.646 0.71409 0.75133 0.9438 1.1288 1.2674 1.4072 1.5192 1.5829 1.6604 1.9
3423.936 2.15 2.03 2.01 2.19 2.28 2.21 2.08 2.15 2.19 2.11
3443.225 2.03 2.06 1.96 1.85 1.89 1.78 1.79 1.78 1.6771 1.5461
3462.515 1.5246 1.4801 1.2749 1.1868 1.1343 1.0879 1.044 1.029 1.0355 1.0529
3481.805 1.0346 0.9433 0.9195 0.8985 0.74757 0.72032 0.893 0.9047 0.8729 1.0474
3501.095 1.0821 1.0528 1.0506 1.1007 1.2249 1.2417 1.1621 1.1717 1.1538 0.9818
3520.385 1.0207 1.138 1.1804 1.3126 1.2363 1.1715 1.0511 0.8948 0.8869 0.866
3539.674 0.9787 0.9854 0.9618 0.9787 0.9448 0.8335 0.74116 0.8242 0.9585 0.8669
3558.964 0.73215 0.698223 0.551 0.415 0.438 0.35 0.305 0.444 0.455 0.468
3578.254 0.419 0.392 0.359 0.393 0.491 0.4 0.389 0.434 0.481 0.56
3597.544 0.515 0.429 0.408 0.427 0.429 0.409 0.416 0.46 0.5 0.411
3616.833 0.347 0.255 0.302 0.411 0.388 0.396 0.35 0.215 0.147 0.313
3636.123 0.464 0.45 0.406 0.259 0.174 0.295 0.302 0.233 0.226 0.328
3655.413 0.266 0.188 0.257 0.167 0.151 0.243 0.301 0.248 0.332 0.417
3674.703 0.348 0.459 0.553 0.539 0.519 0.427 0.412 0.457 0.365 0.251
3693.993 0.304 0.411 0.276 0.253 0.332 0.373 0.438 0.41 0.5 0.525
3713.282 0.443 0.531 0.523 0.419 0.32 0.273 0.276 0.255 0.358 0.285
3732.572 0.385 0.6105 0.553 0.477 0.534 0.533 0.525 0.495 0.451 0.399
3751.862 0.275 0.351 0.4 0.422 0.503 0.343 0.217 0.272 0.403 0.568
3771.152 0.6316 0.509 0.471 0.536 0.454 0.486 0.564 0.6001 0.5984 0.52
3790.441 0.576 0.6732 0.70941 0.76739 0.7524 0.77462 0.8849 0.9264 0.8046 0.6282
3809.731 0.572 0.6617 0.72232 0.7871 0.83 0.8484 0.77092 0.69426 0.68552 0.75922
3829.021 0.9475 0.9733 0.875 0.6576 0.57 0.75704 0.9358 1.0494 1.0733 1.0728
3848.311 1.1156 1.1272 1.1121 1.0284 1.1362 1.2982 1.1838 1.1073 1.1963 1.2263
3867.601 1.2086 1.1481 1.1307 1.142 1.1334 1.1724 1.2056 1.1779 1.176 1.2713
3886.890 1.3219 1.284 1.279 1.3573 1.3396 1.2924 1.4412 1.6089 1.6013 1.5256
3906.180 1.4925 1.4983 1.5025 1.5636 1.5496 1.5662 1.5875 1.672 1.92 1.91
3925.470 1.84 1.89 1.92 1.88 1.82 1.82 1.74 1.73 1.85 1.86
3944.760 1.76 1.6672 1.6595 1.76 1.77 1.6238 1.6346 1.71 1.76 1.79
3964.049 1.78 1.71 1.71 1.88 1.87 1.6369 1.5439 1.6437 1.6435 1.71
3983.339 1.79 1.6231 1.4189 1.4933 1.6131 1.6084 1.5665 1.5464 1.5794 1.4894
##END=
