##TITLE=Tetrahydrodicyclopentadiene
##JCAMP-DX=4.24
##DATA TYPE=INFRARED SPECTRUM
##ORIGIN=NIST Mass Spectrometry Data Center
##OWNER=NIST Standard Reference Data Program
Collection (C) 2018 copyright by the U.S. Secretary of Commerce
on behalf of the United States of America. All rights reserved.
##CAS REGISTRY NO=6004-38-2
##MOLFORM=C 10 H 16
##$NIST SOURCE=MSDC-IR
##SPECTROMETER/DATA SYSTEM=HP-GC/MS/IRD
##STATE=gas
##XUNITS=1/CM
##YUNITS=ABSORBANCE
##XFACTOR=1.0
##YFACTOR=0.000008700
##DELTAX=4.0
##FIRSTX=550.0
##LASTX=3846.0
##FIRSTY=0.000035
##MAXX=3846
##MINX=550
##MAXY=0.087
##MINY=0
##NPOINTS=825
##XYDATA=(X++(Y..Y))
550.0 4 3 10 13 11 10 6 2 2 8
590.0 9 7 8 11 15 22 23 21 13 14
630.0 16 11 8 7 12 14 11 13 16 11
670.0 10 11 11 6 4 9 9 8 8 6
710.0 10 7 9 7 1 6 10 13 12 12
750.0 14 12 8 9 11 15 20 22 28 35
790.0 45 55 56 59 63 63 60 50 50 47
830.0 45 48 47 43 40 40 39 40 44 46
870.0 48 54 58 58 55 51 48 44 43 39
910.0 34 32 31 28 23 19 23 33 44 54
950.0 63 68 68 61 50 41 37 35 32 28
990.0 24 21 23 27 30 30 26 25 18 11
1030.0 11 11 9 8 9 10 10 15 16 10
1070.0 7 10 16 17 16 18 21 21 19 16
1110.0 12 9 8 7 6 8 9 11 14 15
1150.0 20 30 42 59 78 94 100 98 87 70
1190.0 50 33 24 25 26 27 26 26 25 24
1230.0 24 25 29 33 37 39 36 37 37 36
1270.0 39 47 56 65 71 76 80 83 81 74
1310.0 67 61 57 59 61 66 65 62 54 43
1350.0 29 19 15 10 10 10 9 10 11 13
1390.0 15 18 20 21 23 26 31 38 44 55
1430.0 73 102 143 196 255 319 394 467 514 541
1470.0 560 551 505 453 392 312 235 173 124 88
1510.0 62 45 34 26 21 18 15 12 11 12
1550.0 10 8 8 9 9 8 7 7 6 6
1590.0 7 7 8 9 8 7 7 8 8 6
1630.0 6 5 3 1 1 2 2 1 1 2
1670.0 3 2 3 2 3 2 3 2 1 2
1710.0 1 2 3 4 3 4 3 2 2 3
1750.0 1 0 0 2 3 2 1 1 2 3
1790.0 2 4 2 1 1 2 2 0 2 2
1830.0 1 0 0 1 1 0 0 1 1 0
1870.0 0 0 1 0 1 0 2 2 2 2
1910.0 0 2 2 4 4 4 5 4 3 3
1950.0 3 4 6 6 4 4 4 3 5 6
1990.0 5 2 2 3 3 1 4 4 5 5
2030.0 4 5 5 4 3 4 5 4 5 5
2070.0 4 6 8 9 11 9 8 9 8 8
2110.0 10 10 9 10 9 7 7 9 10 9
2150.0 10 12 13 15 17 17 16 14 13 14
2190.0 13 12 12 13 12 11 10 9 8 7
2230.0 9 9 11 13 13 14 12 12 14 13
2270.0 11 12 11 11 11 8 7 7 6 6
2310.0 5 4 4 5 4 4 3 4 7 9
2350.0 10 9 7 7 9 8 7 7 8 8
2390.0 6 6 6 5 6 7 6 5 7 7
2430.0 6 6 7 8 4 5 6 5 4 4
2470.0 5 5 5 4 3 3 2 6 7 5
2510.0 5 6 7 8 8 7 6 7 8 8
2550.0 9 10 10 9 10 13 16 18 19 23
2590.0 25 26 28 29 28 29 31 32 30 30
2630.0 31 30 29 28 28 29 30 29 28 30
2670.0 30 26 22 21 19 17 17 16 16 17
2710.0 18 17 17 19 22 23 23 25 30 32
2750.0 35 37 37 39 41 44 46 48 51 52
2790.0 54 56 58 61 63 64 67 72 77 87
2830.0 101 119 141 177 235 337 502 756 1082 1455
2870.0 1832 2115 2296 2364 2307 2174 2043 1996 2019 2134
2910.0 2348 2554 2745 3010 3438 4033 4808 5895 7211 8538
2950.0 9599 10000 9597 8587 7228 5568 3948 2761 1927 1317
2990.0 895 616 437 318 236 181 150 130 117 107
3030.0 103 97 89 82 77 69 64 62 57 55
3070.0 54 52 51 51 48 44 40 37 35 32
3110.0 29 26 24 22 20 20 19 18 18 17
3150.0 16 14 14 13 12 12 14 15 13 9
3190.0 8 14 16 14 12 14 12 12 13 14
3230.0 14 15 16 13 11 11 10 9 6 6
3270.0 8 7 6 6 4 3 3 6 7 6
3310.0 6 7 6 5 5 4 4 3 3 6
3350.0 4 5 5 4 4 6 8 8 11 17
3390.0 18 20 17 15 13 10 8 10 11 8
3430.0 7 8 8 7 6 4 5 5 4 4
3470.0 6 7 7 6 3 3 5 6 6 5
3510.0 5 3 3 4 5 6 3 1 2 6
3550.0 5 5 7 8 7 5 5 7 5 4
3590.0 8 7 6 8 9 8 7 6 6 7
3630.0 7 6 6 8 8 10 10 10 13 12
3670.0 8 9 8 9 11 11 10 12 13 13
3710.0 14 14 16 18 19 23 25 25 22 19
3750.0 20 17 16 18 17 16 16 17 16 13
3790.0 13 15 15 14 16 16 18 18 14 11
3830.0 14 17 21 19 16
##END=
