##TITLE=Cyclopentylethanone
##JCAMP-DX=4.24
##DATA TYPE=INFRARED SPECTRUM
##ORIGIN=NIST Mass Spectrometry Data Center
##OWNER=NIST Standard Reference Data Program
Collection (C) 2018 copyright by the U.S. Secretary of Commerce
on behalf of the United States of America. All rights reserved.
##CAS REGISTRY NO=6004-60-0
##MOLFORM=C 7 H 12 O
##$NIST SOURCE=MSDC-IR
##SPECTROMETER/DATA SYSTEM=HP-GC/MS/IRD
##STATE=gas
##XUNITS=1/CM
##YUNITS=ABSORBANCE
##XFACTOR=1.0
##YFACTOR=0.000002600
##DELTAX=4.0
##FIRSTX=550.0
##LASTX=3846.0
##FIRSTY=0.000889
##MAXX=3846
##MINX=550
##MAXY=0.026
##MINY=0
##NPOINTS=825
##XYDATA=(X++(Y..Y))
550.0 342 384 450 498 548 568 582 607 623 640
590.0 628 571 515 474 386 325 271 197 165 155
630.0 127 123 105 49 15 18 51 63 37 22
670.0 37 50 62 53 46 64 64 52 57 66
710.0 41 33 26 25 31 9 13 16 15 17
750.0 10 25 27 8 16 22 17 13 1 5
790.0 21 18 25 36 25 29 41 55 65 87
830.0 97 99 107 96 86 82 80 95 100 102
870.0 130 163 198 243 290 325 360 401 435 461
910.0 470 475 461 445 428 401 381 370 376 385
950.0 412 462 512 558 582 576 545 499 442 370
990.0 321 292 271 268 270 263 250 235 223 211
1030.0 202 193 177 156 148 154 151 152 149 156
1070.0 168 178 187 186 214 238 248 277 307 336
1110.0 388 464 555 668 830 1029 1272 1570 1938 2348
1150.0 2742 3073 3315 3449 3445 3317 3103 2842 2575 2320
1190.0 2062 1813 1597 1394 1212 1088 1008 955 933 927
1230.0 926 925 893 837 789 731 680 636 605 596
1270.0 597 598 588 596 612 628 644 655 668 681
1310.0 688 694 725 781 866 1002 1196 1477 1861 2337
1350.0 2844 3254 3478 3480 3267 2846 2263 1688 1268 1002
1390.0 852 763 699 675 677 681 700 734 765 799
1430.0 836 889 957 1017 1056 1083 1073 1035 984 914
1470.0 822 727 645 577 508 460 416 380 350 318
1510.0 306 294 273 262 255 242 228 210 205 205
1550.0 197 194 184 173 165 156 144 135 128 124
1590.0 122 121 120 113 108 104 102 100 109 122
1630.0 123 131 152 170 193 222 251 295 365 457
1670.0 566 697 864 1070 1331 1655 2093 2687 3461 4401
1710.0 5435 6452 7328 7916 8061 7703 6923 5855 4652 3494
1750.0 2524 1792 1295 961 739 587 463 373 306 255
1790.0 220 187 157 137 125 116 102 87 86 84
1830.0 75 68 62 61 59 52 46 44 45 42
1870.0 38 34 32 31 32 34 35 36 29 27
1910.0 33 28 28 26 20 24 30 21 17 21
1950.0 20 17 10 8 12 13 10 15 14 8
1990.0 13 20 14 11 14 18 11 10 12 14
2030.0 12 13 12 12 16 15 13 7 8 15
2070.0 22 17 13 14 12 13 14 14 9 1
2110.0 0 3 6 10 12 9 13 18 10 4
2150.0 6 14 18 14 14 19 23 20 25 29
2190.0 21 19 18 18 16 14 14 15 11 7
2230.0 14 20 16 18 26 34 37 38 40 40
2270.0 39 35 30 32 33 34 29 30 36 35
2310.0 36 38 34 33 38 44 45 45 43 37
2350.0 33 25 20 19 21 25 23 14 14 20
2390.0 19 19 15 2 4 12 8 10 14 9
2430.0 5 4 3 5 5 7 9 10 12 15
2470.0 12 9 11 16 14 14 19 22 22 21
2510.0 18 16 20 19 17 17 20 17 13 14
2550.0 13 10 6 5 11 13 15 21 15 10
2590.0 19 24 17 18 27 28 23 22 24 21
2630.0 11 5 9 19 24 23 24 19 15 22
2670.0 30 34 29 30 36 28 25 30 33 33
2710.0 35 36 43 48 46 49 54 58 55 58
2750.0 60 63 68 68 76 83 88 98 106 115
2790.0 127 128 136 158 175 193 219 253 289 333
2830.0 394 458 534 633 748 897 1119 1420 1817 2313
2870.0 2819 3236 3516 3668 3708 3633 3472 3308 3235 3273
2910.0 3406 3604 3843 4112 4423 4809 5259 5807 6495 7292
2950.0 8128 8922 9591 10000 9961 9386 8341 7059 5796 4646
2990.0 3670 2917 2373 1983 1692 1475 1289 1125 985 842
3030.0 720 619 539 487 446 410 375 353 340 320
3070.0 309 291 270 254 244 231 204 186 163 146
3110.0 129 108 102 98 88 69 65 71 61 58
3150.0 68 61 47 48 43 36 44 45 38 33
3190.0 33 29 34 31 19 17 20 24 26 31
3230.0 28 31 30 23 25 34 32 20 11 4
3270.0 1 0 1 6 11 13 14 9 1 10
3310.0 17 14 13 22 21 16 17 16 10 7
3350.0 16 28 24 17 23 30 31 31 40 47
3390.0 43 48 65 76 100 127 134 144 163 175
3430.0 184 191 184 173 146 124 114 97 75 60
3470.0 61 56 51 53 49 49 52 41 27 32
3510.0 40 37 35 32 30 35 27 32 35 22
3550.0 35 36 30 38 35 40 37 22 26 33
3590.0 35 36 35 28 22 19 14 12 22 34
3630.0 47 49 31 15 20 18 9 9 12 22
3670.0 31 31 29 20 18 17 15 23 24 26
3710.0 50 62 40 20 23 19 17 29 31 26
3750.0 30 30 26 21 24 30 30 31 25 26
3790.0 31 44 47 47 51 49 53 44 42 50
3830.0 40 36 32 36 47
##END=
