##TITLE=3,4-Dimethoxyphenylacethydrazide
##JCAMP-DX=4.24
##DATA TYPE=INFRARED SPECTRUM
##ORIGIN=EPA-IR VAPOR PHASE LIBRARY
##OWNER=SRD/NIST
Collection (C) 2018 copyright by the U.S. Secretary of Commerce
on behalf of the United States of America. All rights reserved.
##CAS REGISTRY NO=60075-23-2
##MOLFORM=C 10 H 14 N 2 O 3
##$NIST SOURCE=MSDC-IR
##STATE=gas
##XUNITS=1/CM
##YUNITS=ABSORBANCE
##XFACTOR=1.
##YFACTOR=0.001
##DELTAX=1.92898
##FIRSTX=549.8
##LASTX=4000.7
##FIRSTY=4.289
##MAXX=4000.7
##MINX=549.759
##MAXY=0.068459
##MINY=0
##NPOINTS=1790
##XYDATA=(X++(Y..Y))
549.759 4.289 3.739 3.959 4.289 4.199 4.249 4.189 4.009 4.329 4.589
569.049 4.399 4.189 3.589 3.149 3.659 4.139 4.269 4.259 4.029 4.159
588.339 4.219 3.939 3.699 3.359 3.679 4.249 4.569 4.679 4.319 4.019
607.628 4.009 3.969 4.219 4.009 3.539 3.999 4.269 3.859 3.849 4.089
626.918 4.249 4.149 4.389 4.389 4.169 4.269 4.199 4.349 3.949 3.649
646.208 3.769 3.579 3.559 3.529 3.199 2.999 3.149 3.029 2.939 3.009
665.498 2.709 2.679 2.819 2.709 2.669 3.109 3.289 3.549 3.739 3.359
684.787 3.669 4.359 4.389 4.039 3.839 3.939 4.039 4.259 4.529 4.229
704.077 3.999 4.149 4.219 4.149 4.069 4.259 4.509 4.629 4.759 4.799
723.367 4.999 5.049 4.949 4.959 4.849 4.669 4.849 5.139 5.209 5.229
742.657 5.509 6.099 6.219 6.219 6.339 6.669 6.909 6.819 6.649 6.449
761.947 6.089 5.919 5.909 5.959 5.949 6.079 6.339 6.109 6.209 6.159
781.236 6.099 6.209 6.109 6.169 6.179 6.319 6.609 6.439 6.059 6.109
800.526 6.189 6.049 6.129 6.189 6.619 6.949 6.569 6.459 6.539 6.579
819.816 6.729 6.669 6.439 6.339 6.239 6.019 5.599 5.519 5.679 5.609
839.106 5.349 5.219 5.489 5.549 5.629 6.029 6.449 6.649 6.709 6.589
858.395 6.269 6.429 6.909 6.829 6.979 7.029 6.779 6.749 6.529 6.239
877.685 6.289 6.409 6.219 6.399 6.349 5.989 5.649 5.619 5.809 5.599
896.975 5.069 5.029 5.129 5.109 5.189 5.139 5.119 5.069 5.289 5.429
916.265 5.409 5.389 5.289 5.239 5.259 5.189 5.219 5.369 5.469 5.769
935.555 5.759 5.689 5.779 6.019 6.119 5.719 5.829 6.239 6.309 6.279
954.844 6.539 6.809 7.089 7.349 7.249 7.309 7.949 8.499 8.839 9.409
974.134 9.879 10.539 11.099 11.819 12.509 12.789 13.119 13.299 13.199 12.939
993.424 12.769 12.759 12.529 12.189 12.179 12.469 12.639 13.239 14.369 15.309
1012.714 16.779 18.779 20.609 22.349 23.939 25.399 26.819 28.089 29.429 30.359
1032.003 30.069 29.439 28.519 26.619 24.349 21.949 19.629 17.029 14.409 12.589
1051.293 10.409 8.869 7.729 6.129 5.369 5.139 5.079 5.079 4.659 4.049
1070.583 3.539 3.109 3.429 3.569 3.799 3.669 2.759 2.979 2.949 2.589
1089.873 3.519 3.829 3.649 3.599 3.009 4.029 5.129 4.709 5.109 6.149
1109.163 6.829 8.249 8.989 9.189 10.189 11.959 13.709 14.889 16.089 17.569
1128.452 18.649 18.649 18.699 18.609 18.639 18.759 18.709 18.689 18.509 18.929
1147.742 19.699 19.759 19.479 19.399 18.649 17.369 16.839 15.919 14.719 14.099
1167.032 13.109 11.859 11.299 10.909 10.229 9.989 9.959 9.919 10.729 11.259
1186.322 10.839 11.129 11.229 10.499 10.199 10.239 10.269 10.279 10.379 11.269
1205.611 12.599 13.389 14.169 16.079 18.119 19.739 21.749 23.829 24.819 25.849
1224.901 28.289 30.449 31.769 32.659 33.289 33.929 34.289 33.909 33.419 33.059
1244.191 32.989 32.989 32.889 33.779 34.999 36.419 38.919 42.089 45.649 49.769
1263.481 53.459 56.789 60.049 62.069 62.989 62.869 61.559 59.219 55.989 52.429
1282.771 48.419 44.329 41.129 38.329 35.389 32.829 30.799 29.009 27.139 25.359
1302.060 23.799 22.549 21.349 20.109 18.949 17.779 16.729 15.619 14.689 13.879
1321.350 12.919 12.129 11.539 11.029 10.639 10.109 9.619 9.259 8.789 8.419
1340.640 7.969 7.419 7.109 6.849 6.529 6.239 5.989 5.759 5.509 5.199
1359.930 4.929 4.669 4.519 4.449 4.319 4.249 4.229 4.199 4.209 4.179
1379.219 4.139 4.149 4.279 4.469 4.609 4.809 5.119 5.439 5.839 6.489
1398.509 7.249 8.039 9.029 10.269 11.819 13.429 14.979 16.659 18.059 19.079
1417.799 19.909 20.579 21.139 21.559 22.009 22.709 23.589 24.569 26.019 27.679
1437.089 29.279 30.819 32.179 33.139 33.679 33.989 34.099 34.029 33.779 33.709
1456.378 33.689 33.719 33.749 33.579 33.179 32.559 31.769 30.739 29.559 28.019
1475.668 26.399 24.939 23.709 22.659 21.999 21.939 22.279 23.149 24.709 26.879
1494.958 29.889 33.839 38.809 44.909 51.669 58.249 63.799 67.499 68.459 66.539
1514.248 61.779 54.939 47.019 39.009 31.749 25.929 21.349 17.939 15.399 13.459
1533.538 11.659 10.299 9.529 8.749 7.889 7.199 6.849 6.609 6.349 6.139
1552.827 5.939 5.779 5.709 5.779 5.919 6.079 6.369 6.769 7.269 7.849
1572.117 8.439 9.159 9.699 10.089 10.499 10.719 10.719 10.529 10.289 10.269
1591.407 10.109 9.929 10.009 9.979 10.099 10.379 10.619 10.849 10.949 10.999
1610.697 11.029 10.979 11.009 11.179 11.149 11.079 11.189 11.409 11.779 12.019
1629.986 12.199 12.419 12.449 12.219 12.189 12.029 11.499 11.069 10.639 10.039
1649.276 9.449 8.999 8.679 8.469 8.219 8.159 8.109 7.989 8.109 8.199
1668.566 8.459 8.819 9.229 9.839 10.559 11.309 12.419 13.639 14.949 16.799
1687.856 18.889 21.229 24.219 27.879 32.299 37.649 43.379 49.259 53.989 57.109
1707.146 58.269 57.309 54.029 49.119 43.699 38.899 34.999 32.149 29.879 27.919
1726.435 26.079 24.319 22.599 20.619 18.469 16.499 14.589 12.719 11.099 9.579
1745.725 8.199 7.059 6.199 5.449 4.839 4.389 3.999 3.619 3.409 3.279
1765.015 3.039 2.759 2.659 2.629 2.509 2.389 2.279 2.139 1.979 1.869
1784.305 1.799 1.739 1.699 1.639 1.669 1.689 1.609 1.539 1.479 1.499
1803.594 1.579 1.509 1.399 1.379 1.359 1.419 1.449 1.319 1.319 1.399
1822.884 1.409 1.309 1.339 1.399 1.369 1.379 1.319 1.299 1.319 1.259
1842.174 1.309 1.409 1.399 1.469 1.509 1.409 1.339 1.419 1.459 1.479
1861.464 1.479 1.429 1.429 1.469 1.379 1.429 1.409 1.309 1.289 1.199
1880.754 1.199 1.329 1.309 1.229 1.249 1.289 1.289 1.199 1.1567 1.1057
1900.043 1.0626 1.0998 1.1192 1.0746 1.0621 1.0911 1.0468 1.0176 1.0958 1.1206
1919.333 1.0744 1.0382 1.0735 1.1706 1.1513 0.9945 0.9596 1.0212 1.0034 1.0343
1938.623 1.044 1.0299 1.0835 1.05 1.0456 1.0583 1.0513 1.1387 1.1463 1.0465
1957.913 0.9891 1.0631 1.1029 1.1327 1.219 1.1752 1.131 1.209 1.209 1.1292
1977.202 1.1162 1.1826 1.189 1.1792 1.279 1.319 1.239 1.309 1.409 1.429
1996.492 1.379 1.349 1.489 1.599 1.579 1.539 1.589 1.589 1.659 1.699
2015.782 1.689 1.769 1.799 1.759 1.729 1.749 1.759 1.679 1.749 1.829
2035.072 1.769 1.789 1.789 1.819 1.869 1.819 1.759 1.579 1.519 1.549
2054.362 1.499 1.589 1.579 1.509 1.529 1.519 1.459 1.359 1.409 1.439
2073.651 1.379 1.379 1.269 1.229 1.1851 1.1558 1.1394 1.0388 0.9366 0.8569
2092.941 0.8293 0.8256 0.8099 0.8204 0.8219 0.8013 0.8057 0.8516 0.8795 0.774
2112.231 0.7385 0.747 0.7583 0.7309 0.6877 0.7268 0.7141 0.709 0.7701 0.746
2131.521 0.7397 0.6765 0.6812 0.7185 0.7148 0.7184 0.6686 0.6941 0.7027 0.8028
2150.810 0.785 0.717 0.6793 0.6829 0.8144 0.8299 0.7796 0.78 0.7221 0.6112
2170.100 0.6253 0.7068 0.796 0.8759 0.8194 0.813 0.8534 0.7755 0.8484 0.9243
2189.390 0.8891 0.8817 0.8525 0.8102 0.833 0.8674 0.7505 0.7043 0.7845 0.7929
2208.680 0.8992 0.9459 0.7888 0.7009 0.6953 0.7384 0.7859 0.7874 0.7594 0.8243
2227.970 0.8889 0.7968 0.6429 0.548 0.6544 0.7652 0.7853 0.8315 0.8645 0.8639
2247.259 0.8673 0.8944 0.8605 0.8473 0.8818 0.931 1.0115 1.0145 0.9596 0.9003
2266.549 0.9463 0.9751 0.9757 0.9818 0.8976 0.8536 0.9278 1.0631 1.0563 0.9493
2285.839 0.9121 0.8055 0.6588 0.7649 0.8034 0.7707 0.8143 0.8215 0.8684 0.8134
2305.129 0.7851 0.8196 0.8197 0.7519 0.6743 0.6259 0.5817 0.605 0.6677 0.7772
2324.418 0.7282 0.6717 0.7581 0.7463 0.6521 0.6492 0.8103 0.8224 0.6343 0.5209
2343.708 0.5478 0.5902 0.5 0.5386 0.5625 0.5072 0.6659 0.629 0.602 0.7022
2362.998 0.7254 0.7817 0.8165 0.8249 0.7481 0.6105 0.6498 0.7064 0.6335 0.636
2382.288 0.6479 0.7063 0.6853 0.6922 0.7418 0.58 0.5952 0.6865 0.5698 0.6731
2401.578 0.6456 0.5818 0.5906 0.5161 0.6204 0.6363 0.6161 0.7107 0.7071 0.6625
2420.867 0.7232 0.7887 0.7557 0.6539 0.6576 0.7393 0.775 0.7756 0.7827 0.7435
2440.157 0.7057 0.7065 0.7244 0.6764 0.6085 0.6229 0.723 0.7893 0.7241 0.7403
2459.447 0.7677 0.7561 0.8016 0.7443 0.7421 0.7514 0.7344 0.8258 0.8292 0.7897
2478.737 0.6813 0.6581 0.7357 0.8403 0.8749 0.7816 0.8135 0.8021 0.7087 0.7121
2498.026 0.8937 1.0167 0.9577 0.9508 0.9489 0.9625 0.9836 1.1001 1.1268 0.8876
2517.316 0.7831 0.9169 1.0455 1.0984 1.0892 1.0513 0.9982 0.9848 1.1032 1.0676
2536.606 0.9769 0.935 0.8633 1.0153 1.219 1.1482 1.061 1.009 1.1327 1.209
2555.896 1.0152 0.9467 1.1377 1.144 1.0902 1.1505 1.1629 1.1719 1.1296 1.14
2575.186 1.1807 1.279 1.219 1.1784 1.249 1.229 1.259 1.1502 1.0256 0.9972
2594.475 0.9103 0.8995 0.9926 0.9904 0.9231 1.0116 1.0154 0.9532 0.9135 0.9617
2613.765 0.9671 0.9447 1.0669 1.0077 0.8774 0.8624 0.9064 1.0458 1.0459 0.924
2633.055 0.905 0.9391 0.9246 0.7852 0.6455 0.6667 0.7264 0.8159 0.9011 0.7934
2652.345 0.7186 0.6393 0.6511 0.8343 0.869 0.8245 0.77 0.8638 0.9636 0.8853
2671.634 0.7963 0.8399 0.9881 0.8908 0.8156 0.8554 0.9006 0.9545 0.954 0.977
2690.924 0.9634 0.9481 0.9426 0.9261 0.8568 0.7614 0.7893 0.8842 0.9501 0.9928
2710.214 0.9873 1.0322 1.033 0.883 0.8462 0.898 0.8673 0.9265 0.8498 0.699
2729.504 0.7291 0.9112 1.0047 1.0014 0.9273 0.7976 0.9173 1.1127 1.172 0.9843
2748.794 0.8002 0.8503 0.9639 1.0942 1.051 0.8884 0.9058 1.0741 1.0587 0.9607
2768.083 1.0441 0.9963 0.9205 1.1164 1.389 1.389 1.1807 1.1428 1.1807 1.1791
2787.373 1.419 1.579 1.499 1.659 1.809 1.689 1.689 1.919 2.129 2.239
2806.663 2.409 2.499 2.549 2.789 3.089 3.399 3.819 4.189 4.469 4.909
2825.953 5.569 6.309 6.969 7.689 8.679 9.699 10.699 11.519 11.849 11.869
2845.242 11.859 11.329 10.309 9.559 8.899 8.099 7.459 7.029 6.809 6.609
2864.532 6.389 6.149 5.859 5.849 5.839 5.869 6.109 6.109 6.179 6.249
2883.822 6.039 6.099 6.319 6.479 6.739 6.809 6.999 7.579 7.919 8.069
2903.112 8.429 9.009 9.589 10.149 10.649 11.089 11.839 12.649 13.119 13.249
2922.401 13.669 14.279 14.769 15.389 16.159 16.829 17.639 18.789 19.679 20.349
2941.691 20.909 21.149 20.969 20.849 20.559 19.739 18.979 18.269 17.579 16.899
2960.981 16.039 15.099 14.439 13.789 12.989 12.439 11.829 11.109 10.749 10.489
2980.271 10.159 9.849 9.709 9.669 9.779 10.089 10.429 10.959 11.509 12.039
2999.561 12.959 13.799 14.249 14.569 14.329 13.919 13.219 12.039 10.669 9.339
3018.850 8.389 7.609 7.059 6.689 6.479 6.249 5.969 5.869 5.949 5.869
3038.140 5.869 6.069 6.029 5.999 5.799 5.539 5.509 5.429 5.259 5.059
3057.430 4.969 4.849 4.729 4.529 4.209 4.099 3.919 3.729 3.579 3.529
3076.720 3.439 3.029 2.869 2.759 2.689 2.499 2.349 2.399 2.249 2.209
3096.009 2.149 1.999 2.069 2.069 1.949 1.789 1.579 1.689 1.839 1.509
3115.299 1.209 1.439 1.529 1.539 1.579 1.499 1.419 1.429 1.529 1.429
3134.589 1.419 1.359 1.1616 1.0221 1.0016 1.0881 1.279 1.1867 0.9816 1.0335
3153.879 1.058 0.9372 0.8998 0.9902 0.9801 0.8712 0.8955 0.9821 1.1573 1.1095
3173.169 0.8581 0.9504 1.1034 1.189 1.1024 1.0155 1.0537 1.0599 0.987 0.9805
3192.458 1.0417 1.1367 1.1147 1.0313 1.1399 1.399 1.239 1.0715 1.144 1.0646
3211.748 0.9452 0.9352 1.0017 1.025 1.1217 1.0081 0.8892 1.0865 1.108 0.9951
3231.038 0.8173 0.6152 0.5783 0.6089 0.8474 0.9708 0.8062 0.7256 0.7222 0.6093
3250.328 0.6476 0.7663 0.7722 0.6843 0.6315 0.4752 0.3552 0.31 0.27467 0.4447
3269.617 0.5558 0.667 0.6054 0.3063 0.6171 0.9392 0.8861 0.9154 0.8643 0.8539
3288.907 0.8225 0.8756 0.7225 0.6275 0.7894 0.8015 0.7358 0.7275 0.9203 0.877
3308.197 0.6792 0.6344 0.4715 0.3855 0.4681 0.6055 0.577 0.6021 0.6456 0.693
3327.487 0.9278 1.0875 1.127 1.0303 1.1847 1.1654 0.9074 0.8139 0.796 0.8997
3346.777 0.9625 1.0457 0.9207 0.762 0.8187 0.6737 0.7102 0.8856 0.696 0.6102
3366.066 0.6097 0.7058 0.8155 0.9094 0.8671 0.738 1.0127 0.9772 0.8578 0.9467
3385.356 0.8694 0.9541 1.189 1.299 1.239 1.329 1.649 1.689 1.629 1.589
3404.646 1.339 1.289 1.439 1.479 1.639 1.839 1.859 1.809 2.039 2.319
3423.936 2.389 2.409 2.539 2.879 2.999 3.179 3.799 4.189 4.449 4.939
3443.225 5.369 5.729 5.869 6.039 6.199 6.439 6.799 6.979 7.069 7.029
3462.515 6.949 6.889 6.689 6.609 6.389 5.969 5.679 5.199 4.729 4.379
3481.805 4.149 3.799 3.289 3.089 3.099 2.859 2.539 2.209 1.929 1.939
3501.095 1.799 1.439 1.239 1.329 1.249 1.1265 1.0579 0.9091 1.1106 0.8602
3520.385 0.5491 0.8681 0.8392 0.771 0.7534 0.5087 0.495 0.7084 0.6002 0.5629
3539.674 0.8984 0.881 0.67 0.6345 0.6064 0.4703 0.3505 0.447 0.501 0.4788
3558.964 0.5703 0.4629 0.4155 0.4681 0.2624 0.3085 0.4884 0.5307 0.5242 0.426
3578.254 0.4818 0.5906 0.5393 0.5984 0.7242 0.5221 0.3865 0.6269 0.6143 0.5538
3597.544 0.5828 0.4423 0.61 0.5814 0.3682 0.3689 0.3387 0.23843 0.3036 0.5913
3616.833 0.4836 0.4025 0.4787 0.2897 0.0953 0.1 0.20963 0.27811 0.3639 0.1745
3636.123 0.077 0.3094 0.632 0.5206 0.4014 0.5085 0.28532 0.26426 0.23889 0.3363
3655.413 0.4179 0.4833 0.7405 0.5941 0.3128 0.1471 0.2391 0.3936 0.304 0.23426
3674.703 0.3008 0.4756 0.4282 0.3283 0.424 0.2144 0.1079 0.3126 0.27674 0.3129
3693.993 0.422 0.3626 0 0.008 0.4862 0.6124 0.25959 0.196368 0.4457 0.4129
3713.282 0.4171 0.6105 0.573 0.5116 0.338 0.1597 0.28159 0.21809 0.2125 0.3673
3732.572 0.5565 0.6092 0.4971 0.5944 0.7222 0.5633 0.5781 0.6654 0.5321 0.4825
3751.862 0.3515 0.27041 0.5397 0.3254 0.1269 0.4344 0.5744 0.5551 0.4789 0.4633
3771.152 0.4056 0.3887 0.4353 0.5272 0.5898 0.4615 0.3002 0.192809 0.25809 0.28673
3790.441 0.4484 0.3725 0.21135 0.4879 0.5376 0.332 0.3362 0.4863 0.4826 0.4178
3809.731 0.4604 0.6963 0.6094 0.393 0.4637 0.3937 0.4665 0.5722 0.4909 0.5464
3829.021 0.6135 0.6361 0.5194 0.3615 0.3501 0.5671 0.815 0.7481 0.7935 0.8694
3848.311 0.7625 0.5084 0.3346 0.3954 0.4134 0.4725 0.5015 0.4226 0.4001 0.4306
3867.601 0.2895 0.27952 0.24321 0.21668 0.24115 0.4265 0.5258 0.4652 0.5538 0.5614
3886.890 0.7589 0.743 0.5612 0.3697 0.4487 0.6439 0.4366 0.1639 0.322 0.6627
3906.180 0.7313 0.5753 0.2938 0.3592 0.6804 0.6471 0.4981 0.4846 0.5004 0.5283
3925.470 0.5604 0.5812 0.5364 0.5609 0.5716 0.24282 0.3306 0.604 0.3783 0.190306
3944.760 0.367 0.5274 0.3696 0.3302 0.3237 0.27074 0.24076 0.3421 0.4505 0.3895
3964.049 0.4334 0.4625 0.27267 0.334 0.4294 0.6324 0.5332 0.3427 0.6193 0.7096
3983.339 0.7557 0.6166 0.4904 0.492 0.415 0.23253 0.2995 0.5481 0.6139 0.7598
##END=
