##TITLE=1,1'-Bi-2-naphthol
##JCAMP-DX=4.24
##DATA TYPE=INFRARED SPECTRUM
##ORIGIN=NIST Mass Spectrometry Data Center
##OWNER=NIST Standard Reference Data Program
Collection (C) 2018 copyright by the U.S. Secretary of Commerce
on behalf of the United States of America. All rights reserved.
##CAS REGISTRY NO=602-09-5
##MOLFORM=C 20 H 14 O 2
##$NIST SOURCE=MSDC-IR
##SPECTROMETER/DATA SYSTEM=HP-GC/MS/IRD
##STATE=gas
##XUNITS=1/CM
##YUNITS=ABSORBANCE
##XFACTOR=1.0
##YFACTOR=0.000004600
##DELTAX=4.0
##FIRSTX=550.0
##LASTX=3846.0
##FIRSTY=0.000543
##MAXX=3846
##MINX=550
##MAXY=0.046
##MINY=0
##NPOINTS=825
##XYDATA=(X++(Y..Y))
550.0 118 183 237 499 739 742 571 432 367 288
590.0 167 62 15 0 2 13 40 95 185 246
630.0 197 89 41 34 45 74 148 320 560 729
670.0 692 492 298 183 128 103 90 86 94 122
710.0 178 250 365 484 549 663 1166 2363 3651 3690
750.0 2385 1108 534 394 393 441 479 470 420 370
790.0 380 479 689 1055 1788 3106 4384 4307 2840 1363
830.0 612 365 283 253 266 319 412 489 453 318
870.0 198 144 122 102 97 91 65 51 44 44
910.0 52 85 155 317 606 809 704 416 251 267
950.0 381 564 737 772 700 685 716 655 477 317
990.0 230 180 166 160 150 152 171 212 267 277
1030.0 223 141 74 47 47 54 66 86 123 147
1070.0 155 152 146 150 153 167 186 200 230 308
1110.0 425 653 1131 1729 1995 1871 2029 2841 3690 3820
1150.0 3231 2478 2126 2225 2336 2229 2143 2481 3452 4739
1190.0 5465 5134 4338 3859 3839 4045 4271 4225 3555 2463
1230.0 1555 1107 1007 1065 1167 1249 1242 1155 1107 1150
1270.0 1184 1120 998 891 818 750 694 725 915 1264
1310.0 1662 1863 1686 1297 1039 1080 1410 1891 2288 2440
1350.0 2262 1818 1411 1327 1547 1925 2369 2763 2894 2594
1390.0 2014 1489 1127 858 621 426 303 256 259 340
1430.0 539 806 966 900 773 853 1204 1703 2077 2158
1470.0 1927 1460 1018 786 767 893 1100 1335 1565 1888
1510.0 2379 2745 2525 1699 868 430 272 225 207 204
1550.0 228 290 371 439 526 682 898 1184 1541 2037
1590.0 2684 3299 3508 3150 2580 2379 2675 2995 2795 2093
1630.0 1360 887 611 452 374 332 290 246 209 192
1670.0 195 212 232 247 247 231 216 203 177 149
1710.0 120 103 99 91 84 86 86 89 111 146
1750.0 193 235 241 206 161 122 95 83 81 85
1790.0 97 114 131 145 141 140 148 150 154 160
1830.0 156 127 85 50 29 21 21 25 30 39
1870.0 51 67 97 133 173 213 241 250 253 267
1910.0 292 282 230 174 149 155 176 199 203 170
1950.0 113 59 31 19 15 11 5 2 0 1
1990.0 3 2 3 6 9 9 4 7 9 10
2030.0 12 12 13 18 22 28 25 20 19 18
2070.0 19 21 21 17 17 17 15 20 24 19
2110.0 19 21 24 26 26 25 20 21 23 16
2150.0 15 17 18 19 23 22 19 21 20 18
2190.0 14 14 10 4 7 13 9 5 5 0
2230.0 2 7 9 12 13 9 12 9 6 14
2270.0 15 16 25 35 35 26 22 22 20 19
2310.0 25 29 24 24 26 24 28 39 45 41
2350.0 39 36 31 26 24 24 17 11 12 11
2390.0 12 15 18 19 26 31 33 34 33 31
2430.0 31 28 24 20 20 27 28 27 28 30
2470.0 30 26 32 40 43 46 50 51 47 45
2510.0 40 38 44 48 52 52 48 48 45 41
2550.0 45 49 44 39 42 40 38 37 35 33
2590.0 33 33 30 26 25 22 18 18 19 15
2630.0 14 14 9 11 19 18 12 9 9 9
2670.0 3 4 11 17 16 13 10 6 2 5
2710.0 12 12 10 15 24 23 20 20 19 15
2750.0 12 15 16 15 13 9 15 20 19 18
2790.0 26 29 27 28 27 21 16 14 6 5
2830.0 8 4 5 5 8 12 17 19 17 16
2870.0 21 21 15 20 24 24 26 25 31 36
2910.0 33 37 44 46 47 51 57 69 91 108
2950.0 119 133 141 141 132 128 133 139 129 138
2990.0 160 177 213 274 339 418 502 554 581 607
3030.0 645 711 824 988 1192 1442 1805 2390 3168 3733
3070.0 3600 2844 1976 1351 974 748 609 513 431 343
3110.0 273 218 168 129 101 84 67 48 42 41
3150.0 38 37 42 34 24 34 45 50 53 59
3190.0 64 65 67 61 56 53 38 26 26 34
3230.0 39 28 23 26 31 32 24 22 17 13
3270.0 19 19 19 22 13 5 8 5 0 4
3310.0 7 9 9 5 16 25 21 19 13 8
3350.0 7 17 27 31 32 38 37 27 19 21
3390.0 35 31 21 24 31 31 24 19 15 16
3430.0 24 35 37 39 39 37 41 37 32 30
3470.0 38 39 39 45 48 64 92 118 142 150
3510.0 137 131 139 151 170 219 274 365 526 825
3550.0 1547 3574 7235 10000 9030 5463 2696 1616 1155 775
3590.0 470 290 208 171 149 132 133 137 119 116
3630.0 122 133 191 293 400 408 288 165 92 55
3670.0 51 51 44 28 28 31 20 22 27 26
3710.0 26 26 27 37 35 32 44 50 47 46
3750.0 57 53 42 38 38 39 44 46 40 45
3790.0 46 41 27 34 42 30 28 36 34 22
3830.0 38 49 32 23 23
##END=
