##TITLE=2-Undecyne
##JCAMP-DX=4.24
##DATA TYPE=INFRARED SPECTRUM
##ORIGIN=NIST Mass Spectrometry Data Center
##OWNER=NIST Standard Reference Data Program
Collection (C) 2018 copyright by the U.S. Secretary of Commerce
on behalf of the United States of America. All rights reserved.
##CAS REGISTRY NO=60212-29-5
##MOLFORM=C 11 H 20
##$NIST SOURCE=MSDC-IR
##SPECTROMETER/DATA SYSTEM=HP-GC/MS/IRD
##STATE=gas
##XUNITS=1/CM
##YUNITS=ABSORBANCE
##XFACTOR=1.0
##YFACTOR=0.000012000
##DELTAX=4.0
##FIRSTX=550.0
##LASTX=3846.0
##FIRSTY=0.000420
##MAXX=3846
##MINX=550
##MAXY=0.12
##MINY=0
##NPOINTS=825
##XYDATA=(X++(Y..Y))
550.0 35 59 50 48 48 51 49 38 29 27
590.0 24 30 32 26 27 26 21 23 25 16
630.0 7 4 6 8 9 10 12 16 17 16
670.0 21 29 32 35 36 40 47 49 60 76
710.0 91 109 120 122 114 111 101 90 88 81
750.0 73 71 73 74 68 65 65 62 56 51
790.0 49 42 36 33 31 29 31 27 28 26
830.0 25 27 29 27 24 25 25 22 25 27
870.0 29 35 36 31 27 30 32 30 29 30
910.0 27 24 22 26 26 26 28 28 29 31
950.0 30 28 26 25 27 25 27 27 22 21
990.0 22 26 27 26 28 31 35 40 40 40
1030.0 42 39 36 34 43 49 45 40 35 33
1070.0 33 31 30 29 30 28 27 30 32 35
1110.0 39 40 34 32 34 32 28 25 21 18
1150.0 18 19 20 26 32 35 36 35 35 36
1190.0 40 43 45 43 44 50 56 57 59 63
1230.0 67 72 78 84 90 93 96 100 103 111
1270.0 124 140 154 169 184 198 207 219 238 252
1310.0 262 282 314 352 393 434 457 450 436 430
1350.0 422 402 388 377 365 359 377 398 387 358
1390.0 314 256 213 202 207 206 220 257 284 304
1430.0 361 459 560 639 698 735 771 812 826 778
1470.0 678 564 456 365 296 251 227 208 183 162
1510.0 149 137 122 113 109 104 97 101 101 89
1550.0 78 73 66 65 63 60 58 56 54 49
1590.0 46 41 39 37 35 35 34 31 29 27
1630.0 24 21 21 21 18 17 18 18 17 16
1670.0 14 16 17 15 13 12 11 10 8 9
1710.0 8 6 6 5 5 6 6 5 4 3
1750.0 2 4 5 6 5 6 6 4 1 1
1790.0 3 5 6 5 5 6 5 6 6 5
1830.0 6 5 5 6 4 4 5 4 2 2
1870.0 3 2 1 0 1 0 0 0 0 2
1910.0 2 2 3 3 3 2 1 2 3 2
1950.0 1 2 3 2 3 4 4 2 1 3
1990.0 4 6 7 6 7 8 11 11 12 12
2030.0 13 16 20 22 24 27 29 28 23 19
2070.0 18 14 10 7 8 8 6 6 8 7
2110.0 7 8 7 9 9 10 8 7 8 8
2150.0 7 8 9 8 7 7 9 9 8 7
2190.0 8 10 10 9 10 7 4 7 7 9
2230.0 9 10 9 8 9 8 6 7 9 10
2270.0 9 8 8 9 11 9 9 10 9 11
2310.0 13 14 13 12 14 15 14 14 16 15
2350.0 12 15 16 17 18 17 18 17 15 13
2390.0 16 18 20 20 22 23 21 20 20 19
2430.0 21 21 21 22 20 19 20 21 21 23
2470.0 26 24 23 27 27 26 27 26 27 29
2510.0 28 30 32 34 35 34 33 34 36 34
2550.0 32 32 36 37 40 39 40 42 44 42
2590.0 45 47 47 48 49 50 53 55 57 59
2630.0 63 65 69 74 76 80 81 84 88 92
2670.0 94 97 102 104 104 101 97 100 96 94
2710.0 95 97 101 107 113 121 135 147 160 175
2750.0 177 170 164 161 160 160 168 174 185 199
2790.0 214 232 253 275 303 336 369 410 463 527
2830.0 606 712 862 1087 1410 1849 2387 2933 3365 3585
2870.0 3572 3389 3133 2870 2643 2488 2441 2555 2836 3267
2910.0 3842 4593 5583 6817 8176 9361 10000 9912 9074 7722
2950.0 6289 5127 4393 4035 3816 3480 2964 2321 1747 1360
2990.0 1101 932 813 737 666 577 513 459 423 397
3030.0 383 371 330 289 258 239 227 222 214 189
3070.0 166 154 149 143 137 128 119 112 105 99
3110.0 94 90 88 83 77 74 73 71 62 60
3150.0 66 63 57 56 55 51 52 53 52 51
3190.0 47 45 46 45 39 32 32 33 31 29
3230.0 29 22 16 20 22 20 19 18 16 20
3270.0 21 20 20 21 19 15 17 19 16 12
3310.0 13 20 21 20 17 19 21 19 20 18
3350.0 19 25 21 14 14 14 14 13 13 16
3390.0 15 15 20 18 16 16 14 10 13 17
3430.0 15 13 15 17 15 16 19 17 17 16
3470.0 16 16 13 12 7 6 8 11 12 7
3510.0 5 6 4 7 9 6 7 6 5 8
3550.0 5 4 5 6 6 5 7 11 10 8
3590.0 9 8 6 10 12 10 15 14 12 13
3630.0 13 14 17 18 15 13 16 15 15 14
3670.0 11 10 14 16 20 24 18 12 10 9
3710.0 14 16 15 15 17 13 13 17 12 8
3750.0 10 16 21 20 20 19 18 16 13 15
3790.0 16 19 19 19 18 13 15 18 16 16
3830.0 17 17 17 22 24
##END=
