##TITLE=.gamma.-(2,4-Dichlorophenoxy)butyricacid
##JCAMP-DX=4.24
##DATA TYPE=INFRARED SPECTRUM
##ORIGIN=EPA-IR VAPOR PHASE LIBRARY
##OWNER=SRD/NIST
Collection (C) 2018 copyright by the U.S. Secretary of Commerce
on behalf of the United States of America. All rights reserved.
##CAS REGISTRY NO=60210-83-5
##MOLFORM=C 10 H 10 Cl 2 O 3
##$NIST SOURCE=MSDC-IR
##STATE=gas
##XUNITS=1/CM
##YUNITS=ABSORBANCE
##XFACTOR=1.
##YFACTOR=0.001
##DELTAX=3.85796
##FIRSTX=501.5
##LASTX=4000.7
##FIRSTY=0.9147
##MAXX=4000.7
##MINX=501.534
##MAXY=0.006393
##MINY=0
##NPOINTS=908
##XYDATA=(X++(Y..Y))
501.534 0.9147 1.0646 1.0889 1.1583 0.9857 0.8137 0.8539 1.0611 1.1109 0.9891
540.114 1.0669 1.097 1.0242 1.0426 1.1839 1.2668 1.3979 1.4236 1.2929 1.3552
578.693 1.2442 1.1937 1.1848 1.078 1.1916 1.3067 1.3077 1.2639 1.1875 1.163
617.273 1.1718 1.1597 1.2186 1.3281 1.3998 1.3972 1.4256 1.421 1.3313 1.3543
655.852 1.3226 1.0228 0.7505 0.7715 0.7581 0.6986 0.7146 0.6951 0.6976 0.749
694.432 0.8394 0.9124 0.9214 0.9493 0.9538 0.9958 1.1218 1.1373 1.1384 1.2112
733.011 1.2301 1.2554 1.1328 0.9319 0.8803 0.8221 0.6486 0.5899 0.7306 0.7971
771.591 0.8032 0.8828 0.972 0.916 0.8816 0.9496 1.0509 1.1612 1.1887 1.21
810.170 1.1817 1.0824 1.0248 0.9353 0.8742 0.904 0.9507 0.9608 0.9638 0.9241
848.750 0.873 0.8507 0.9149 1.0254 1.111 1.2074 1.1808 0.9874 0.7761 0.708
887.330 0.7085 0.6398 0.6005 0.5445 0.51122 0.5823 0.6108 0.6238 0.5923 0.5696
925.909 0.6261 0.7112 0.8242 0.8713 0.8031 0.7743 0.777 0.7916 0.7284 0.6241
964.489 0.6334 0.6031 0.5748 0.6055 0.6469 0.7569 0.7606 0.7262 0.8714 1.0191
1003.068 1.0521 1.1374 1.3616 1.503 1.693 1.903 2.093 2.353 2.453 2.433
1041.648 2.313 2.233 2.243 2.493 2.963 3.293 3.373 3.103 2.793 2.543
1080.227 2.343 2.293 2.263 2.313 2.533 3.103 3.593 3.493 3.143 2.953
1118.807 3.123 3.423 3.673 3.973 4.223 4.203 3.763 3.223 2.853 2.583
1157.387 2.333 2.013 1.783 1.653 1.523 1.4205 1.3232 1.2385 1.3266 1.433
1195.966 1.3995 1.4008 1.543 1.643 1.673 1.733 1.773 1.933 2.253 2.523
1234.546 2.823 3.163 3.453 3.773 4.063 4.243 4.303 4.233 4.063 3.853
1273.125 3.623 3.493 3.373 3.163 2.843 2.413 2.013 1.683 1.433 1.2734
1311.705 1.1555 1.0498 0.9664 0.9192 0.8702 0.8365 0.8291 0.8416 0.8738 0.9213
1350.284 0.9817 1.0215 1.0992 1.1935 1.2671 1.4007 1.593 1.793 1.943 1.983
1388.864 1.883 1.693 1.493 1.2927 1.134 1.0391 0.9737 0.9498 1.0076 1.1194
1427.443 1.2629 1.3745 1.4015 1.3991 1.43 1.493 1.623 1.883 2.393 3.253
1466.023 4.503 5.713 6.323 6.393 6.183 5.573 4.483 3.323 2.433 1.813
1504.603 1.4134 1.1103 0.8863 0.7393 0.6326 0.5646 0.52282 0.46853 0.440442 0.46729
1543.182 0.4659 0.44892 0.45943 0.50265 0.52911 0.5567 0.6102 0.6735 0.7394 0.7632
1581.762 0.7891 0.7769 0.7122 0.6406 0.554 0.45346 0.4061 0.4094 0.4141 0.3914
1620.341 0.3583 0.3637 0.3812 0.3856 0.384 0.3551 0.327 0.3402 0.3762 0.3711
1658.921 0.3499 0.3532 0.369 0.3701 0.3579 0.3535 0.3442 0.3537 0.3475 0.3621
1697.500 0.3962 0.43171 0.50456 0.5438 0.5916 0.6486 0.7261 0.8666 0.9891 1.1362
1736.080 1.2859 1.473 1.733 1.963 2.223 2.603 3.063 3.633 4.263 4.883
1774.659 5.313 5.373 5.023 4.423 3.803 3.263 2.783 2.353 1.973 1.623
1813.239 1.3343 1.1033 0.9408 0.8258 0.7179 0.6129 0.5573 0.52683 0.47715 0.43066
1851.819 0.4165 0.42339 0.4007 0.3774 0.3752 0.3631 0.351 0.3607 0.3456 0.312
1890.398 0.291 0.305 0.323 0.316 0.317 0.321 0.333 0.33 0.326 0.318
1928.978 0.32 0.329 0.316 0.286 0.277 0.275 0.27 0.275 0.283 0.286
1967.557 0.286 0.305 0.298 0.285 0.305 0.327 0.321 0.295 0.294 0.306
2006.137 0.312 0.3338 0.33 0.297 0.312 0.301 0.27 0.273 0.274 0.281
2044.716 0.274 0.286 0.299 0.276 0.29 0.287 0.233 0.214 0.242 0.274
2083.296 0.297 0.296 0.297 0.293 0.294 0.31 0.279 0.245 0.255 0.27
2121.875 0.264 0.276 0.253 0.269 0.305 0.294 0.28 0.27 0.287 0.286
2160.455 0.249 0.244 0.274 0.252 0.254 0.267 0.254 0.265 0.279 0.258
2199.035 0.237 0.248 0.241 0.253 0.298 0.299 0.278 0.29 0.277 0.268
2237.614 0.292 0.296 0.261 0.248 0.268 0.255 0.227 0.251 0.291 0.285
2276.194 0.277 0.27 0.27 0.303 0.296 0.256 0.248 0.278 0.325 0.329
2314.773 0.317 0.312 0.312 0.309 0.315 0.326 0.326 0.33 0.296 0.255
2353.353 0.263 0.272 0.276 0.312 0.315 0.312 0.328 0.302 0.271 0.284
2391.932 0.273 0.25 0.251 0.251 0.25 0.256 0.261 0.26 0.289 0.304
2430.512 0.308 0.338 0.3377 0.293 0.291 0.33 0.323 0.281 0.279 0.279
2469.092 0.273 0.284 0.306 0.321 0.292 0.305 0.3444 0.3416 0.3357 0.3342
2507.671 0.331 0.342 0.321 0.277 0.279 0.313 0.315 0.315 0.295 0.274
2546.251 0.284 0.299 0.288 0.264 0.286 0.3 0.322 0.307 0.258 0.261
2584.830 0.248 0.206 0.232 0.273 0.281 0.246 0.209 0.231 0.242 0.233
2623.410 0.225 0.223 0.227 0.244 0.289 0.301 0.262 0.242 0.286 0.304
2661.989 0.297 0.307 0.29 0.274 0.272 0.293 0.278 0.252 0.27 0.295
2700.569 0.3409 0.3375 0.265 0.225 0.284 0.3349 0.32 0.249 0.22 0.272
2739.148 0.3 0.3421 0.3539 0.323 0.291 0.275 0.277 0.276 0.278 0.245
2777.728 0.276 0.283 0.245 0.255 0.235 0.258 0.303 0.295 0.325 0.3368
2816.308 0.287 0.317 0.329 0.326 0.322 0.29 0.31 0.3588 0.4004 0.4075
2854.887 0.45175 0.48018 0.45211 0.44881 0.51961 0.5951 0.6385 0.6565 0.6614 0.6958
2893.467 0.7152 0.7298 0.6658 0.624 0.64 0.6858 0.6932 0.6828 0.759 0.8331
2932.046 0.934 1.0323 1.071 1.0903 1.0773 1.0295 1.0334 1.0527 1.0932 1.1377
2970.626 1.0873 0.9775 0.8935 0.8276 0.699 0.6036 0.5701 0.47184 0.407 0.4076
3009.205 0.3888 0.3554 0.321 0.297 0.294 0.331 0.3519 0.299 0.287 0.31
3047.785 0.296 0.264 0.222 0.238 0.274 0.3341 0.3513 0.3983 0.45135 0.3922
3086.364 0.3436 0.309 0.271 0.247 0.239 0.222 0.272 0.3577 0.306 0.234
3124.944 0.226 0.171 0.147 0.176 0.209 0.208 0.199 0.202 0.197 0.168
3163.524 0.163 0.228 0.296 0.245 0.18 0.198 0.178 0.176 0.213 0.211
3202.103 0.233 0.207 0.178 0.174 0.181 0.206 0.208 0.24 0.227 0.212
3240.683 0.245 0.227 0.209 0.229 0.227 0.199 0.175 0.195 0.159 0.141
3279.262 0.14 0.153 0.216 0.236 0.239 0.195 0.16 0.157 0.168 0.194
3317.842 0.159 0.13 0.146 0.165 0.214 0.202 0.092 0.124 0.176 0.172
3356.421 0.206 0.185 0.186 0.203 0.252 0.33 0.291 0.24 0.212 0.129
3395.001 0.156 0.24 0.167 0.081 0.117 0.158 0.138 0.126 0.166 0.193
3433.580 0.199 0.227 0.285 0.277 0.207 0.184 0.189 0.191 0.198 0.199
3472.160 0.138 0.114 0.168 0.198 0.23 0.196 0.158 0.232 0.248 0.173
3510.740 0.209 0.248 0.266 0.302 0.264 0.258 0.249 0.235 0.239 0.287
3549.319 0.3346 0.3843 0.5418 0.7433 1.0755 1.683 2.343 2.533 2.023 1.3197
3587.899 0.9129 0.5862 0.4172 0.4167 0.316 0.244 0.23 0.197 0.172 0.137
3626.478 0.175 0.208 0.117 0.096 0.114 0.142 0.185 0.211 0.182 0.163
3665.058 0.224 0.216 0.18 0.158 0.165 0.175 0.153 0.186 0.226 0.201
3703.637 0.203 0.228 0.189 0.166 0.174 0.198 0.261 0.311 0.218 0.079
3742.217 0.07 0.096 0.081 0.079 0.101 0.103 0.095 0.112 0.156 0.188
3780.797 0.18 0.178 0.176 0.164 0.177 0.198 0.179 0.185 0.176 0.07
3819.376 0.063 0.038 0.075 0.19 0.219 0.188 0.104 0.104 0.133 0.129
3857.956 0.098 0.137 0.137 0.142 0.169 0.098 0.065 0.054 0.093 0.094
3896.535 0.081 0.109 0.16 0.186 0.148 0.124 0.17 0.205 0.22 0.206
3935.115 0.148 0.124 0.084 0.108 0.079 0 0.069 0.211 0.159 0.078
3973.694 0.174 0.183 0.201 0.309 0.3355 0.246 0.145 0.154
##END=
