##TITLE=1-(2'-Aminophenyl)pyrrole
##JCAMP-DX=4.24
##DATA TYPE=INFRARED SPECTRUM
##ORIGIN=EPA-IR VAPOR PHASE LIBRARY
##OWNER=SRD/NIST
Collection (C) 2018 copyright by the U.S. Secretary of Commerce
on behalf of the United States of America. All rights reserved.
##CAS REGISTRY NO=6025-60-1
##MOLFORM=C 10 H 10 N 2
##$NIST SOURCE=MSDC-IR
##STATE=gas
##XUNITS=1/CM
##YUNITS=ABSORBANCE
##XFACTOR=1.
##YFACTOR=0.001
##DELTAX=1.92934
##FIRSTX=549.9
##LASTX=3999.5
##FIRSTY=14.43
##MAXX=3999.53
##MINX=549.863
##MAXY=0.16064
##MINY=0
##NPOINTS=1789
##XYDATA=(X++(Y..Y))
549.863 14.43 14.34 14.51 14.45 14.29 14.21 13.96 13.75 13.69 13.69
569.156 13.67 13.67 13.71 13.84 13.9 13.63 13.48 13.52 13.36 13.19
588.450 13.12 12.9 12.72 12.65 12.63 12.68 12.58 12.5 12.52 12.67
607.743 12.83 12.99 13.39 13.93 14.69 15.76 17.04 18.56 20.32 22.25
627.037 23.95 25.13 25.72 26.16 26.93 27.45 27.2 26.24 24.94 23.67
646.330 22.53 21.44 20.57 20.06 19.72 19.65 19.98 20.54 21.18 21.69
665.624 22.15 22.64 22.93 23.11 23.17 22.9 22.18 21.29 20.6 20.19
684.917 20.04 20.03 20.1 20.29 20.52 20.78 21.23 22.1 23.57 25.89
704.210 29.33 34.2 40.81 49.43 60.56 74.29 89.87 105.12 116.09 118.13
723.504 116.07 123.1 135.05 137.57 131.27 122.28 113.74 107.14 103.09 102.2
742.797 105.73 108.7 99.91 85.98 77.24 70.59 63.72 56.41 49 42.13
762.091 36.09 31.3 27.7 25 23.04 21.63 20.62 19.81 19.19 18.76
781.384 18.36 18.03 17.85 17.67 17.51 17.41 17.32 17.18 17.13 17.12
800.678 17.08 17.06 16.98 16.95 16.93 16.73 16.47 16.08 15.64 15.16
819.971 14.5 13.73 12.91 12.22 11.52 10.74 10.05 9.53 9.16 8.89
839.264 8.6 8.45 8.53 8.54 8.42 8.24 8.08 7.93 7.76 7.63
858.558 7.53 7.39 7.28 7.24 7.17 7.15 7.19 7.21 7.12 6.95
877.851 6.89 6.81 6.7 6.64 6.54 6.56 6.6 6.53 6.54 6.62
897.145 6.68 6.83 7 7.15 7.42 7.78 8.37 9.29 10.76 13.19
916.438 16.81 21.61 26.53 29.74 30.76 31.36 31.36 30.96 30.09 26.27
935.732 20.53 15.32 11.66 9.45 8.15 7.35 6.82 6.46 6.21 6.02
955.025 5.88 5.71 5.62 5.61 5.54 5.49 5.46 5.41 5.41 5.42
974.318 5.37 5.26 5.19 5.2 5.16 5.1 5.08 5.07 5.06 5.12
993.612 5.26 5.6 6.11 6.98 8.4 10.39 12.79 14.97 16.24 16.78
1012.905 17.27 17.47 17.36 17.17 16.2 14.77 13.72 13.2 13.18 13.31
1032.199 13.37 13.43 13.35 13.16 12.86 12.45 12.21 12.26 12.73 13.88
1051.492 15.73 18.19 21.12 24.43 28.12 32.38 37.02 42.83 48.22 48.98
1070.786 47.13 45.19 43.14 40.99 37.61 32.95 27.68 22.65 18.41 15.28
1090.079 13.31 12.42 12.46 13.46 15.38 18.04 21.21 24.23 26.11 26.89
1109.372 27.25 26.9 25.67 23.72 20.55 16.45 12.67 9.99 8.51 7.77
1128.666 7.47 7.63 8.04 8.53 9.14 9.76 10.09 10.43 11.08 11.87
1147.959 12.73 13.52 14.01 13.86 13.19 12.64 12.48 12.21 11.34 10.08
1167.253 8.69 7.45 6.42 5.62 5.13 4.75 4.48 4.24 4.23 4.29
1186.546 4.27 4.22 4.26 4.44 4.74 4.78 4.65 4.87 4.96 5.17
1205.840 5.34 5.61 5.98 5.98 6.05 6.31 6.55 6.71 6.88 6.87
1225.133 7.02 7.28 7.22 7.34 7.94 8.54 9.27 10.24 11.3 12.6
1244.426 14.12 15.74 17.48 19 20.1 20.94 21.44 21.62 21.59 21.18
1263.720 20.24 19.28 18.36 17.65 17.31 17.09 17.23 17.65 18.18 18.88
1283.013 19.65 20.36 21.17 22.24 23.38 24.6 26.07 27.73 29.57 31.54
1302.307 33.62 35.91 38.73 42.43 47.23 53.35 60.96 70.25 80.51 89.91
1321.600 96.56 99.64 99.41 96.25 90.16 80.7 67.79 52.38 37.01 24.85
1340.894 16.98 12.38 9.73 8.08 6.97 6.18 5.58 5.16 4.86 4.63
1360.187 4.44 4.29 4.15 4.05 4.01 3.99 4.01 4.06 4.13 4.29
1379.480 4.45 4.54 4.65 4.82 5 5.18 5.36 5.65 6.02 6.4
1398.774 6.79 7.2 7.6 7.92 8.3 8.66 8.97 9.27 9.51 9.7
1418.067 9.9 10.05 10.06 9.98 9.89 9.79 9.66 9.58 9.59 9.76
1437.361 9.99 10.39 11.1 12.07 13.3 14.9 16.78 18.77 20.82 22.77
1456.654 24.57 26.12 27.51 28.91 30.27 31.47 32.47 33.57 34.98 36.32
1475.948 36.92 36.75 36.51 36.79 37.64 38.75 40.06 42.42 47.17 55.26
1495.241 67.31 83.22 101.65 120.8 137.96 150.75 158.3 160.64 158.51 151.92
1514.534 140.57 124.12 103.9 83.66 66.58 54.7 46.69 41.04 36.77 33.37
1533.828 30.47 28.41 27.62 27.84 28.57 29.24 29.64 29.88 30.01 29.9
1553.121 29.51 28.6 27.22 25.64 24.17 23.15 22.45 22.01 21.62 21.11
1572.415 20.63 20.47 20.68 20.97 21.39 22.04 22.79 23.59 24.31 24.89
1591.708 25.38 25.81 26.27 26.87 27.82 29.37 31.64 34.66 38.52 43.25
1611.002 48.72 54.73 60.76 66.51 71.3 74.62 76.28 76.36 75.2 72.68
1630.295 68.51 62.77 56.04 48.84 41.86 35.47 29.88 25.16 21.17 17.94
1649.588 15.46 13.64 12.14 10.94 10.11 9.57 9.27 9.1 8.99 9.04
1668.882 9.19 9.28 9.29 9.32 9.33 9.28 9.21 9.13 8.93 8.59
1688.175 8.16 7.68 7.2 6.84 6.51 6.1 5.75 5.36 5.02 4.86
1707.469 4.8 4.85 5.06 5.44 5.94 6.4 6.64 6.69 6.64 6.46
1726.762 6.18 5.84 5.32 4.67 4.03 3.51 3.22 3.09 2.97 2.93
1746.056 2.92 2.9051 2.96 3 3.06 3.15 3.21 3.36 3.55 3.74
1765.349 3.9 4.01 4.13 4.18 4.21 4.18 4.1 3.98 3.87 3.77
1784.642 3.65 3.55 3.46 3.46 3.48 3.44 3.42 3.43 3.48 3.49
1803.936 3.49 3.48 3.44 3.34 3.22 3.12 2.98 2.8809 2.801 2.7283
1823.229 2.6604 2.5909 2.5864 2.5437 2.4486 2.3972 2.4012 2.4279 2.4599 2.5195
1842.523 2.599 2.6986 2.8237 2.96 3.08 3.14 3.18 3.19 3.16 3.15
1861.816 3.14 3.12 3.03 2.95 2.93 2.92 2.98 3.14 3.33 3.54
1881.110 3.76 3.98 4.17 4.29 4.33 4.32 4.2 4 3.79 3.57
1900.403 3.4 3.24 3.08 2.98 3.03 3.16 3.35 3.57 3.76 3.93
1919.696 4.03 4.07 4.04 3.92 3.74 3.55 3.31 3.06 2.8468 2.7164
1938.990 2.6196 2.5183 2.4231 2.3527 2.2865 2.2405 2.2172 2.1692 2.1203 2.0855
1958.283 2.0714 2.057 2.0513 2.0525 2.0415 2.032 2.0702 2.1016 2.0812 2.043
1977.577 2.0405 2.1006 2.125 2.1082 2.0966 2.1185 2.1511 2.1362 2.0877 2.0818
1996.870 2.0585 1.99954 1.94906 1.9075 1.8504 1.789 1.781 1.78 1.772 1.785
2016.164 1.804 1.793 1.81 1.8514 1.8674 1.8487 1.8409 1.8493 1.8295 1.803
2035.457 1.791 1.773 1.789 1.779 1.724 1.707 1.702 1.689 1.679 1.679
2054.750 1.68 1.679 1.661 1.628 1.642 1.665 1.632 1.598 1.618 1.617
2074.044 1.633 1.671 1.673 1.652 1.601 1.588 1.602 1.623 1.627 1.607
2093.337 1.615 1.611 1.618 1.635 1.64 1.638 1.647 1.645 1.664 1.697
2112.631 1.713 1.734 1.746 1.793 1.8293 1.8385 1.8789 1.92135 1.93131 1.95443
2131.924 1.99439 1.99589 1.97837 1.94807 1.92784 1.91993 1.847 1.773 1.727 1.672
2151.218 1.622 1.591 1.58 1.538 1.508 1.547 1.58 1.601 1.643 1.675
2170.511 1.736 1.811 1.8512 1.874 1.918 1.94211 1.9094 1.8608 1.8373 1.8205
2189.804 1.764 1.719 1.708 1.679 1.619 1.576 1.546 1.547 1.542 1.518
2209.098 1.506 1.499 1.499 1.498 1.49 1.474 1.471 1.475 1.463 1.448
2228.391 1.465 1.504 1.477 1.435 1.474 1.467 1.472 1.541 1.571 1.564
2247.685 1.604 1.667 1.669 1.694 1.761 1.781 1.756 1.743 1.725 1.712
2266.978 1.729 1.714 1.676 1.662 1.656 1.623 1.58 1.556 1.559 1.562
2286.272 1.585 1.592 1.58 1.599 1.567 1.509 1.515 1.519 1.516 1.528
2305.565 1.542 1.577 1.589 1.641 1.679 1.623 1.64 1.676 1.652 1.667
2324.858 1.638 1.593 1.566 1.493 1.414 1.402 1.424 1.427 1.392 1.363
2344.152 1.353 1.337 1.334 1.334 1.332 1.334 1.356 1.389 1.418 1.401
2363.445 1.388 1.397 1.376 1.367 1.35 1.317 1.325 1.327 1.319 1.331
2382.739 1.293 1.259 1.282 1.275 1.269 1.274 1.272 1.27 1.27 1.323
2402.032 1.337 1.296 1.294 1.321 1.312 1.294 1.303 1.307 1.341 1.362
2421.326 1.366 1.394 1.395 1.444 1.463 1.433 1.469 1.537 1.569 1.561
2440.619 1.593 1.649 1.679 1.68 1.67 1.653 1.664 1.715 1.725 1.694
2459.912 1.665 1.613 1.546 1.503 1.438 1.38 1.338 1.3 1.298 1.277
2479.206 1.258 1.207 1.105 1.075 1.065 1.021 1.053 1.015 0.974 1.025
2498.499 1.046 1.041 1.007 1.009 1.069 1.12 1.108 1.066 1.06 1.043
2517.793 1.002 1.019 1.046 1.057 1.072 1.115 1.192 1.184 1.213 1.277
2537.086 1.265 1.272 1.309 1.333 1.384 1.412 1.444 1.543 1.585 1.598
2556.380 1.615 1.662 1.731 1.812 1.8774 1.9099 1.9034 1.91166 2.00336 2.0708
2575.673 2.0966 2.1096 2.0745 2.0725 2.0711 2.0413 2.026 1.99126 1.946 1.8958
2594.966 1.8873 1.8895 1.8812 1.8725 1.93519 2.0695 2.1799 2.2654 2.3169 2.3563
2614.260 2.4533 2.5254 2.572 2.6387 2.69 2.7208 2.6993 2.6924 2.6689 2.6379
2633.553 2.6305 2.5538 2.4014 2.2782 2.2387 2.1959 2.0595 1.94327 1.8601 1.782
2652.847 1.716 1.602 1.491 1.393 1.315 1.253 1.156 1.084 1.04 0.96
2672.140 0.89 0.88 0.83 0.74 0.74 0.71 0.68 0.69 0.72 0.75
2691.434 0.76 0.76 0.76 0.76 0.85 0.936 0.88 0.81 0.79 0.85
2710.727 0.83 0.78 0.81 0.78 0.79 0.79 0.74 0.8 0.84 0.79
2730.020 0.78 0.8 0.83 0.82 0.81 0.8 0.75 0.73 0.76 0.79
2749.314 0.79 0.81 0.8 0.74 0.75 0.71 0.72 0.75 0.73 0.76
2768.607 0.72 0.73 0.78 0.72 0.65 0.69 0.75 0.71 0.7 0.67
2787.901 0.66 0.68 0.69 0.67 0.68 0.67 0.7 0.63 0.51 0.52
2807.194 0.54 0.58 0.5 0.44 0.54 0.54 0.51 0.55 0.56 0.61
2826.488 0.67 0.72 0.75 0.71 0.74 0.79 0.75 0.73 0.71 0.63
2845.781 0.6 0.63 0.69 0.76 0.69 0.64 0.72 0.69 0.65 0.67
2865.074 0.6 0.65 0.69 0.65 0.75 0.74 0.68 0.72 0.76 0.75
2884.368 0.75 0.81 0.77 0.82 0.9 0.77 0.76 0.86 0.78 0.71
2903.661 0.66 0.56 0.49 0.5 0.52 0.45 0.41 0.48 0.45 0.32
2922.955 0.27 0.27 0.26 0.26 0.3 0.26 0.22 0.21 0.12 0.11
2942.248 0.14 0.09 0.1 0.15 0.12 0.02 0 0.02 0.01 0.02
2961.542 0.03 0.07 0.06 0.04 0.1 0.15 0.18 0.23 0.25 0.24
2980.835 0.23 0.23 0.26 0.31 0.36 0.38 0.34 0.42 0.58 0.69
3000.128 0.75 0.85 0.925 1.152 1.504 1.9068 2.3272 2.6777 3.11 3.75
3019.422 4.68 5.66 6.7 7.94 9.27 10.7 12.23 13.7 15.01 16.17
3038.715 17.15 17.89 18.38 18.65 18.62 18.05 17.35 16.73 16.02 15.37
3058.009 14.89 14.75 15.01 15.55 16.37 17.24 18 18.68 19.04 19.16
3077.302 18.89 18.21 17.47 16.7 15.61 14.34 13.21 12.12 11.19 10.37
3096.596 9.52 8.9 8.73 8.62 8.44 8.47 8.88 9.41 9.66 9.52
3115.889 9.2 8.94 8.57 8.29 7.92 7.37 6.88 6.29 6.01 5.91
3135.182 5.78 5.53 5.12 4.87 4.58 4 3.48 2.9167 2.25 1.681
3154.476 1.264 1.101 0.953 0.87 0.84 0.81 0.84 0.74 0.76 0.92
3173.769 0.938 0.921 0.993 0.91 0.79 0.84 0.95 1.057 1.069 1.15
3193.063 1.151 1.07 1.013 1.097 1.142 1.071 1.033 1.033 1.005 1.003
3212.356 1.046 0.998 0.982 0.88 0.83 0.79 0.68 0.55 0.62 0.63
3231.650 0.48 0.43 0.34 0.3 0.34 0.41 0.36 0.21 0.22 0.28
3250.943 0.39 0.49 0.41 0.3 0.29 0.36 0.25 0.3 0.43 0.41
3270.236 0.33 0.38 0.47 0.32 0.26 0.36 0.36 0.38 0.36 0.31
3289.530 0.39 0.39 0.28 0.31 0.42 0.46 0.38 0.37 0.48 0.51
3308.823 0.43 0.42 0.52 0.62 0.73 0.81 0.85 0.89 0.88 0.76
3328.117 0.73 0.81 0.81 0.81 0.84 0.83 0.84 0.89 0.943 0.944
3347.410 0.9 0.78 0.86 1.007 1.054 1.267 1.403 1.315 1.398 1.682
3366.704 1.7 1.813 2.1405 2.4844 2.711 3.06 3.57 4.09 4.91 5.88
3385.997 6.92 8.2 9.82 11.77 13.92 16.23 18.5 20.22 21.38 22.02
3405.290 22.06 21.54 20.21 18.26 16.2 13.87 11.35 9.26 7.64 6.34
3424.584 5.46 4.7 4.06 3.63 3.22 3.03 2.93 2.8732 2.8937 2.715
3443.877 2.6927 2.8262 2.7958 2.8969 3.01 3.18 3.41 3.58 3.87 4.21
3463.171 4.45 4.79 5.27 5.73 6.36 7.1 7.86 8.64 9.49 10.67
3482.464 12.15 13.54 15.04 16.77 18.53 20.25 21.62 22.44 22.87 22.87
3501.758 22.23 21.12 19.6 17.73 15.82 13.69 11.54 9.76 8.33 7.19
3521.051 6.22 5.39 4.72 4.21 3.8 3.5 3.26 3.07 2.8259 2.6298
3540.344 2.6217 2.5182 2.3201 2.2332 2.1082 2.0437 2.0596 1.94208 1.785 1.788
3559.638 1.8906 1.91431 1.8731 1.703 1.525 1.525 1.619 1.667 1.64 1.531
3578.931 1.428 1.373 1.408 1.448 1.451 1.486 1.442 1.408 1.426 1.444
3598.225 1.445 1.445 1.351 1.307 1.495 1.463 1.365 1.396 1.351 1.28
3617.518 1.308 1.409 1.406 1.373 1.384 1.378 1.358 1.395 1.379 1.341
3636.812 1.253 1.231 1.292 1.248 1.28 1.422 1.441 1.366 1.334 1.246
3656.105 1.277 1.373 1.315 1.247 1.313 1.429 1.439 1.444 1.446 1.343
3675.398 1.412 1.449 1.384 1.409 1.42 1.509 1.64 1.617 1.547 1.603
3694.692 1.673 1.638 1.617 1.611 1.618 1.627 1.642 1.643 1.649 1.698
3713.985 1.639 1.598 1.571 1.512 1.535 1.513 1.422 1.379 1.418 1.435
3733.279 1.445 1.487 1.467 1.463 1.454 1.459 1.576 1.642 1.592 1.585
3752.572 1.557 1.512 1.458 1.444 1.489 1.562 1.572 1.521 1.592 1.578
3771.866 1.4 1.399 1.455 1.407 1.397 1.383 1.386 1.346 1.318 1.309
3791.159 1.314 1.419 1.468 1.463 1.533 1.534 1.447 1.416 1.407 1.404
3810.452 1.425 1.442 1.458 1.485 1.447 1.39 1.393 1.334 1.364 1.461
3829.746 1.513 1.602 1.611 1.577 1.595 1.62 1.622 1.634 1.602 1.564
3849.039 1.582 1.72 1.77 1.626 1.585 1.664 1.647 1.633 1.662 1.662
3868.333 1.651 1.714 1.751 1.761 1.741 1.695 1.7 1.637 1.743 1.756
3887.626 1.633 1.68 1.676 1.685 1.747 1.688 1.65 1.682 1.679 1.595
3906.920 1.552 1.601 1.57 1.585 1.583 1.589 1.528 1.48 1.563 1.533
3926.213 1.535 1.568 1.524 1.522 1.595 1.591 1.512 1.416 1.482 1.588
3945.506 1.618 1.691 1.726 1.728 1.746 1.709 1.619 1.699 1.8739 1.8887
3964.800 1.893 1.97378 2.0499 2.1283 2.1943 2.4108 2.6425 2.7762 2.9148 3.02
3984.093 3.04 3.02 2.98 2.8906 2.8547 2.8356 2.7538 2.6489 2.6202
##END=
