##TITLE=2,3-Dimethylbenzoic acid
##JCAMP-DX=4.24
##DATA TYPE=INFRARED SPECTRUM
##ORIGIN=EPA-IR VAPOR PHASE LIBRARY
##OWNER=SRD/NIST
Collection (C) 2018 copyright by the U.S. Secretary of Commerce
on behalf of the United States of America. All rights reserved.
##CAS REGISTRY NO=603-79-2
##MOLFORM=C 9 H 10 O 2
##$NIST SOURCE=MSDC-IR
##STATE=gas
##XUNITS=1/CM
##YUNITS=ABSORBANCE
##XFACTOR=1.
##YFACTOR=0.001
##DELTAX=3.85796
##FIRSTX=501.5
##LASTX=4000.7
##FIRSTY=2.6704
##MAXX=4000.7
##MINX=501.534
##MAXY=0.0934004
##MINY=0
##NPOINTS=908
##XYDATA=(X++(Y..Y))
501.534 2.6704 2.8204 3.0004 3.2904 3.4704 3.6304 3.9804 4.6204 5.2204 5.8504
540.114 6.4804 6.9604 7.4804 7.9804 8.5404 9.1004 9.8204 10.9204 11.9904 13.0204
578.693 14.2904 15.8104 16.5204 16.0004 15.1004 13.9804 13.0104 12.3104 11.3904 10.2304
617.273 8.9504 7.4204 5.4504 3.7504 2.8804 2.4304 2.1304 1.9904 1.9704 2.0604
655.852 2.4004 3.2504 5.2204 9.2004 13.9304 17.0804 18.1704 17.2204 13.7004 8.4804
694.432 4.5904 2.8204 2.0704 1.8804 1.8604 1.9704 2.2804 2.7304 3.4604 4.6204
733.011 6.4704 9.2704 12.6404 16.0204 20.1604 23.2504 21.8604 18.5404 15.5804 12.5404
771.591 9.7004 7.4704 5.9304 4.8404 4.0604 3.4604 3.0504 2.8204 2.7304 2.6104
810.170 2.4004 2.1704 1.9004 1.6404 1.4404 1.2604 1.1804 1.1604 1.059 0.9875
848.750 0.9425 0.8901 0.8593 0.7553 0.6236 0.591 0.597 0.5721 0.5801 0.5979
887.330 0.6503 0.7097 0.7275 0.7296 0.7182 0.7044 0.6855 0.6932 0.7208 0.7217
925.909 0.7347 0.7957 0.8798 0.9288 0.987 1.0648 1.1704 1.2904 1.4004 1.5704
964.489 1.8904 2.2104 2.5004 2.9304 3.4404 3.9304 4.4504 4.9504 5.3904 5.9204
1003.068 6.6204 7.6704 9.2104 11.1004 13.0404 14.5404 15.2504 15.0004 14.0704 12.7304
1041.648 11.4004 10.3704 9.6204 9.1004 8.8304 8.9404 9.4004 10.3004 11.7404 13.7204
1080.227 15.8904 17.6904 19.0304 19.8104 20.0704 20.5804 21.9304 25.0604 30.5704 37.9604
1118.807 46.1404 52.4204 54.1404 51.1904 44.3404 34.4704 24.7704 18.2204 14.6004 12.8004
1157.387 12.4404 13.1804 13.8604 13.8904 13.9204 14.1904 14.2604 14.5804 15.2904 15.6804
1195.966 15.7804 15.5504 15.3004 15.4004 15.3704 14.6704 13.0104 10.5704 8.2304 6.4604
1234.546 5.4204 4.9604 4.8504 4.9604 5.1004 5.3304 5.6604 6.0404 6.5204 7.0604
1273.125 7.6004 8.2104 8.9704 9.7404 10.4604 11.2504 12.0204 12.7204 13.5304 14.5104
1311.705 15.6804 16.7004 17.2304 17.0704 16.0904 14.4204 12.5004 10.9104 9.9404 9.4404
1350.284 9.0804 8.6104 7.9604 7.1304 6.2704 5.7204 5.5704 5.6004 5.6604 5.7304
1388.864 5.6104 5.1804 4.6904 4.2904 3.8904 3.6204 3.5504 3.7204 4.1204 4.7404
1427.443 5.6204 6.7004 7.8604 8.9604 9.8504 10.4204 10.5604 10.2504 9.5804 8.8404
1466.023 8.1304 7.3504 6.5204 5.7704 5.0304 4.2604 3.5904 3.1104 2.8004 2.5704
1504.603 2.4104 2.3004 2.2104 2.1204 2.0204 1.9804 1.9404 1.9204 1.9104 1.9304
1543.182 1.9304 1.9104 1.9404 1.9904 2.0604 2.1104 2.2204 2.4104 2.6204 2.8804
1581.762 3.1404 3.4204 3.5604 3.4904 3.2704 2.9304 2.5104 2.1304 1.8604 1.6604
1620.341 1.5204 1.4604 1.3904 1.3204 1.2804 1.2704 1.2704 1.3104 1.4004 1.4904
1658.921 1.6004 1.7304 1.7904 1.8304 1.8704 1.9504 2.1204 2.3604 2.7104 3.2104
1697.500 3.8804 4.7804 5.9304 7.3004 8.8504 10.6704 12.7404 15.1604 18.2704 22.4804
1736.080 29.1704 40.4304 57.7604 77.2504 89.9204 93.4004 91.4004 76.9804 53.3504 34.9304
1774.659 25.3204 21.1604 19.4304 17.8604 15.5204 12.7404 10.0504 7.6704 5.8304 4.5504
1813.239 3.6704 3.0304 2.5304 2.1304 1.8104 1.5404 1.3204 1.1604 1.0554 0.9951
1851.819 0.9616 0.9674 1.0255 1.1204 1.2004 1.2604 1.2704 1.1904 1.0678 0.9373
1890.398 0.803 0.6711 0.589 0.5614 0.5548 0.5756 0.6212 0.6949 0.7938 0.9031
1928.978 1.0028 1.028 0.9837 0.9033 0.7937 0.6747 0.5741 0.5262 0.497 0.4849
1967.557 0.514 0.5185 0.51 0.5065 0.4778 0.4465 0.4089 0.354 0.3237 0.3045
2006.137 0.2894 0.2925 0.2915 0.2803 0.2783 0.2717 0.258 0.2665 0.2616 0.2428
2044.716 0.2453 0.2482 0.2373 0.2146 0.2131 0.2405 0.2493 0.2286 0.2237 0.2521
2083.296 0.2597 0.2537 0.2529 0.2775 0.3156 0.3342 0.3383 0.3365 0.3308 0.3326
2121.875 0.3318 0.3201 0.3245 0.3254 0.3292 0.3375 0.3312 0.3087 0.2975 0.2919
2160.455 0.2795 0.2846 0.2742 0.2357 0.2174 0.2285 0.2378 0.2506 0.2605 0.2676
2199.035 0.2502 0.2327 0.2425 0.2488 0.2354 0.2389 0.2627 0.2759 0.2918 0.2836
2237.614 0.2677 0.2683 0.2868 0.3068 0.2876 0.2541 0.2416 0.2468 0.2516 0.2408
2276.194 0.2387 0.2343 0.2236 0.2219 0.2051 0.2324 0.2753 0.2767 0.2921 0.3059
2314.773 0.2992 0.2945 0.2986 0.3334 0.3512 0.3474 0.3495 0.351 0.3567 0.338
2353.353 0.3274 0.3147 0.2886 0.2759 0.27 0.2714 0.2718 0.2792 0.303 0.3273
2391.932 0.3438 0.3561 0.3703 0.3723 0.3796 0.3926 0.3728 0.365 0.3642 0.3546
2430.512 0.3469 0.3378 0.3496 0.3426 0.3262 0.345 0.3493 0.3376 0.2969 0.2499
2469.092 0.241 0.2518 0.2789 0.2817 0.2724 0.276 0.2618 0.2516 0.2364 0.2131
2507.671 0.2138 0.197 0.1871 0.1855 0.17628 0.16824 0.15786 0.16717 0.2033 0.228
2546.251 0.2147 0.2189 0.2218 0.2244 0.2637 0.2869 0.2767 0.2507 0.2313 0.2246
2584.830 0.2236 0.2288 0.2154 0.2041 0.2382 0.2565 0.2268 0.2111 0.2017 0.1848
2623.410 0.17623 0.17279 0.1807 0.1889 0.2271 0.2414 0.211 0.2103 0.2196 0.2283
2661.989 0.2155 0.1914 0.18034 0.17758 0.17779 0.17074 0.1752 0.1838 0.17404 0.17986
2700.569 0.1932 0.1945 0.2236 0.2556 0.2741 0.2729 0.3004 0.3591 0.3947 0.4436
2739.148 0.5005 0.541 0.5628 0.5756 0.5815 0.567 0.5419 0.5243 0.5419 0.565
2777.728 0.5961 0.6007 0.5685 0.5737 0.5843 0.5658 0.5725 0.6085 0.6103 0.6111
2816.308 0.648 0.6867 0.7547 0.8245 0.9123 1.0293 1.1704 1.3604 1.5404 1.7904
2854.887 2.0804 2.4104 2.7804 3.1904 3.6704 4.0704 4.3304 4.4704 4.4904 4.4304
2893.467 4.3204 4.2404 4.2304 4.3504 4.6304 5.0704 5.6704 6.4804 7.4004 8.3304
2932.046 9.1404 9.6804 9.9304 9.8904 9.6804 9.3804 9.0304 8.6204 8.1504 7.7104
2970.626 7.4304 7.2604 7.0904 6.8204 6.4204 5.9004 5.3304 4.9104 4.7504 4.7404
3009.205 4.8604 4.9904 5.0004 4.9204 4.7904 4.6704 4.6004 4.5504 4.5404 4.6104
3047.785 4.7704 5.0304 5.3704 5.7504 6.1004 6.4204 6.5804 6.5104 6.1504 5.5404
3086.364 4.7604 3.9004 3.0504 2.3104 1.8204 1.5204 1.3104 1.1104 0.9556 0.8991
3124.944 0.8417 0.7685 0.6941 0.627 0.5882 0.5726 0.5941 0.5756 0.5726 0.5586
3163.524 0.4885 0.4884 0.5042 0.4758 0.4004 0.3683 0.3263 0.2508 0.2419 0.2576
3202.103 0.245 0.234 0.1999 0.15515 0.15953 0.14919 0.14413 0.1539 0.1044 0.079496
3240.683 0.10516 0.11241 0.09388 0.0447 0.051 0.07986 0.0667 0.0804453 0.056 0.0421
3279.262 0.0402 0 0.0212 0.0292 0.0451 0.0524 0.0278 0.07094 0.0674 0.082336
3317.842 0.09812 0.0667 0.086752 0.085524 0.0911 0.10293 0.11918 0.12612 0.13671 0.15401
3356.421 0.1214 0.07094 0.0936 0.11189 0.086861 0.10493 0.12522 0.11084 0.09481 0.1349
3395.001 0.16543 0.12353 0.10577 0.11122 0.090083 0.07886 0.09468 0.11017 0.12444 0.14333
3433.580 0.12607 0.11208 0.14589 0.16738 0.1854 0.2488 0.3001 0.3133 0.3022 0.36
3472.160 0.4821 0.5714 0.6676 0.724 0.8075 0.8772 0.8193 0.7764 0.7361 0.6675
3510.740 0.6236 0.6203 0.6499 0.6862 0.7651 0.7962 0.832 1.0075 1.2904 1.7104
3549.319 2.6604 4.9504 9.0504 13.8504 18.4504 23.2004 26.6204 26.2204 22.6204 18.1404
3587.899 12.9004 7.4404 3.6604 1.9704 1.3704 1.0777 0.9619 0.9529 0.939 0.8617
3626.478 0.7824 0.6773 0.5111 0.3953 0.2745 0.2076 0.1946 0.16647 0.14859 0.16877
3665.058 0.18017 0.12462 0.13013 0.14326 0.13167 0.09346 0.0646 0.07448 0.0712 0.088017
3703.637 0.0442 0.0162 0.0494 0.0496 0.086396 0.11716 0.11442 0.10921 0.09301 0.0691
3742.217 0.0491 0.07478 0.13101 0.11569 0.0627 0.0671 0.086956 0.0574 0.0427 0.090374
3780.797 0.10349 0.0803347 0.0366 0.019 0.0174 0.0107 0.0175 0.0249 0.0641 0.13847
3819.376 0.1915 0.1859 0.11227 0.089338 0.13509 0.11827 0.10459 0.14393 0.17559 0.1945
3857.956 0.2201 0.1989 0.16166 0.13483 0.17933 0.2167 0.2232 0.2227 0.137 0.1165
3896.535 0.14222 0.1824 0.2202 0.1838 0.089774 0.10983 0.17312 0.17201 0.15365 0.14151
3935.115 0.16442 0.11093 0.10732 0.15088 0.13564 0.09278 0.09077 0.12328 0.13276 0.07321
3973.694 0.0644 0.11148 0.12273 0.13556 0.082168 0.07244 0.13748 0.11707
##END=
