##TITLE=1-Methylindole
##JCAMP-DX=4.24
##DATA TYPE=INFRARED SPECTRUM
##ORIGIN=NIST Mass Spectrometry Data Center
##OWNER=NIST Standard Reference Data Program
Collection (C) 2018 copyright by the U.S. Secretary of Commerce
on behalf of the United States of America. All rights reserved.
##CAS REGISTRY NO=603-76-9
##MOLFORM=C 9 H 9 N
##$NIST SOURCE=MSDC-IR
##SPECTROMETER/DATA SYSTEM=HP-GC/MS/IRD
##STATE=gas
##XUNITS=1/CM
##YUNITS=ABSORBANCE
##XFACTOR=1.0
##YFACTOR=0.000005600
##DELTAX=4.0
##FIRSTX=550.0
##LASTX=3846.0
##FIRSTY=0.000426
##MAXX=3846
##MINX=550
##MAXY=0.056
##MINY=0
##NPOINTS=825
##XYDATA=(X++(Y..Y))
550.0 76 82 128 238 379 428 424 481 424 266
590.0 180 121 67 28 11 8 0 15 36 61
630.0 77 73 64 74 92 86 82 95 107 103
670.0 131 183 228 304 467 719 1038 1326 1770 2625
710.0 3024 3204 3989 4872 5454 6978 10000 8535 5508 5051
750.0 4116 2928 2086 1465 988 704 456 290 204 149
790.0 124 121 113 106 106 99 106 124 137 169
830.0 188 205 214 208 186 161 133 104 93 114
870.0 186 298 369 397 392 369 291 182 154 164
910.0 174 183 205 211 175 150 140 124 111 105
950.0 107 109 109 108 108 107 107 111 124 151
990.0 202 294 424 598 783 880 877 806 684 511
1030.0 341 244 196 184 197 230 279 372 520 704
1070.0 853 896 912 938 871 760 682 606 552 537
1110.0 480 397 332 298 304 336 381 429 507 603
1150.0 655 646 619 612 532 417 344 301 290 304
1190.0 343 408 465 465 472 518 538 593 773 1122
1230.0 1660 2160 2278 2285 2372 2050 1437 976 697 520
1270.0 409 359 367 424 519 651 855 1191 1746 2553
1310.0 3424 4124 4613 4756 4300 3465 2705 2151 1772 1556
1350.0 1421 1233 1024 876 766 662 559 504 511 544
1390.0 597 673 729 787 910 1114 1365 1564 1635 1587
1430.0 1471 1282 1072 991 1167 1605 2269 2984 3476 3753
1470.0 3808 3573 3026 2550 2258 1964 1764 1670 1638 1730
1510.0 1944 2096 2136 2106 1953 1681 1405 1244 1188 1157
1550.0 1117 1053 977 886 804 755 742 695 608 529
1590.0 473 466 504 587 683 741 742 697 609 485
1630.0 356 277 252 261 291 318 331 343 364 385
1670.0 413 443 445 425 373 294 228 170 123 102
1710.0 102 99 94 87 83 91 104 120 150 177
1750.0 187 185 184 166 136 111 98 104 122 131
1790.0 136 127 110 83 57 42 33 38 51 68
1830.0 87 101 110 118 115 106 107 122 146 177
1870.0 196 195 187 177 150 121 109 120 149 180
1910.0 188 184 168 133 77 33 17 12 11 12
1950.0 14 16 16 14 13 13 16 17 14 15
1990.0 17 20 20 17 15 15 17 17 16 15
2030.0 15 18 17 15 15 14 12 11 13 16
2070.0 18 19 18 18 18 15 13 16 17 17
2110.0 18 16 12 9 11 13 13 11 14 20
2150.0 21 26 24 18 20 21 16 14 17 17
2190.0 19 24 28 30 30 32 35 40 42 46
2230.0 47 46 47 46 43 36 33 30 26 22
2270.0 18 17 12 11 10 9 9 8 9 11
2310.0 12 9 4 0 0 0 0 0 0 0
2350.0 0 0 0 0 0 0 0 0 3 8
2390.0 11 18 23 27 23 19 13 6 2 1
2430.0 0 1 5 8 17 26 32 36 39 40
2470.0 39 38 43 55 62 62 66 76 82 87
2510.0 92 95 95 92 82 74 64 54 46 41
2550.0 39 37 34 37 39 40 44 43 43 49
2590.0 52 51 49 51 54 57 62 62 61 56
2630.0 55 53 50 49 51 53 56 64 68 77
2670.0 86 84 86 89 90 91 94 99 102 100
2710.0 101 104 104 98 89 85 82 81 79 79
2750.0 81 84 89 98 110 119 132 144 160 173
2790.0 188 210 239 291 369 465 568 650 687 691
2830.0 653 570 480 415 388 388 405 452 516 596
2870.0 698 814 934 1044 1127 1177 1208 1225 1247 1301
2910.0 1403 1525 1642 1741 1835 1917 1992 2092 2201 2273
2950.0 2283 2223 2058 1788 1480 1206 990 838 739 688
2990.0 664 653 635 619 614 620 670 758 876 1022
3030.0 1172 1326 1493 1667 1832 2028 2312 2590 2736 2729
3070.0 2575 2296 1891 1491 1240 1089 957 830 700 566
3110.0 474 442 459 489 505 499 480 430 335 226
3150.0 144 99 74 51 41 39 31 28 33 33
3190.0 34 29 21 36 45 35 33 31 33 39
3230.0 41 36 33 32 24 14 12 22 19 12
3270.0 13 19 20 11 9 13 4 1 9 11
3310.0 10 7 7 11 12 16 13 8 3 8
3350.0 15 8 4 7 11 10 3 6 5 8
3390.0 11 5 1 2 2 3 4 4 2 11
3430.0 6 0 4 11 17 11 9 11 11 19
3470.0 20 13 10 6 7 9 10 13 15 14
3510.0 19 17 12 14 14 7 4 13 21 18
3550.0 11 11 10 18 29 24 18 22 26 23
3590.0 17 20 24 19 21 25 22 20 16 21
3630.0 29 18 13 21 27 27 18 13 3 2
3670.0 20 19 11 6 12 20 12 13 14 11
3710.0 10 9 9 4 0 7 17 7 11 15
3750.0 20 23 20 25 23 20 20 23 30 31
3790.0 32 33 34 33 27 22 24 33 35 33
3830.0 29 29 30 21 10
##END=
