##TITLE=3-Methyldecanoic acid
##JCAMP-DX=4.24
##DATA TYPE=INFRARED SPECTRUM
##ORIGIN=NIST Mass Spectrometry Data Center
##OWNER=NIST Standard Reference Data Program
Collection (C) 2018 copyright by the U.S. Secretary of Commerce
on behalf of the United States of America. All rights reserved.
##CAS REGISTRY NO=60308-82-9
##MOLFORM=C 11 H 22 O 2
##$NIST SOURCE=MSDC-IR
##SPECTROMETER/DATA SYSTEM=HP-GC/MS/IRD
##STATE=gas
##XUNITS=1/CM
##YUNITS=ABSORBANCE
##XFACTOR=1.0
##YFACTOR=0.000001500
##DELTAX=4.0
##FIRSTX=550.0
##LASTX=3846.0
##FIRSTY=0.002069
##MAXX=3846
##MINX=550
##MAXY=0.015
##MINY=0
##NPOINTS=825
##XYDATA=(X++(Y..Y))
550.0 1379 1220 1122 1167 1132 1133 1111 1024 944 913
590.0 916 954 1025 1151 1262 1325 1369 1394 1404 1426
630.0 1438 1333 1205 1088 922 766 652 614 594 537
670.0 514 513 492 502 526 534 552 556 529 522
710.0 502 468 435 397 370 341 298 236 199 171
750.0 133 135 135 101 98 92 55 51 88 81
790.0 44 40 27 8 13 38 44 54 69 56
830.0 59 77 96 98 94 105 113 124 128 139
870.0 142 103 84 106 131 150 173 185 176 152
910.0 137 129 141 141 115 83 83 86 94 99
950.0 99 96 87 92 106 109 98 104 119 124
990.0 128 128 125 147 159 149 169 201 229 272
1030.0 341 433 546 682 850 1019 1166 1355 1548 1703
1070.0 1839 1984 2142 2335 2558 2825 3128 3367 3501 3481
1110.0 3309 3104 2931 2860 2907 3015 3136 3193 3175 3075
1150.0 2908 2692 2448 2218 1995 1786 1613 1455 1325 1231
1190.0 1160 1054 948 876 815 762 737 733 714 671
1230.0 633 618 600 588 575 568 582 589 576 578
1270.0 586 598 587 594 633 648 649 644 649 654
1310.0 648 654 665 673 701 740 785 837 892 944
1350.0 1009 1063 1118 1198 1283 1386 1505 1573 1565 1452
1390.0 1226 966 737 570 477 445 443 465 494 533
1430.0 564 595 628 665 731 829 978 1112 1150 1102
1470.0 983 809 604 439 337 267 215 186 167 174
1510.0 148 111 104 94 70 57 67 90 91 62
1550.0 39 53 81 54 40 42 44 50 38 28
1590.0 21 19 31 27 25 30 44 53 41 31
1630.0 29 50 49 46 55 68 73 55 65 75
1670.0 87 110 112 150 178 167 218 286 310 335
1710.0 388 486 614 733 882 1093 1338 1606 1935 2321
1750.0 2772 3306 3991 4894 5966 7015 7614 7407 6470 5200
1790.0 4051 3187 2571 2091 1662 1300 999 756 594 467
1830.0 371 298 236 200 175 145 119 95 78 71
1870.0 71 65 55 52 48 48 46 41 36 39
1910.0 33 30 32 22 22 29 26 36 42 35
1950.0 22 16 27 30 25 23 19 23 27 34
1990.0 28 16 24 26 21 19 15 17 17 15
2030.0 18 12 11 8 15 21 25 22 16 13
2070.0 18 24 18 14 13 17 17 15 13 13
2110.0 8 11 20 23 21 23 22 14 17 23
2150.0 24 20 18 30 29 25 31 31 36 30
2190.0 28 42 42 37 32 26 26 32 35 26
2230.0 34 44 39 30 34 34 25 29 25 16
2270.0 17 25 35 30 20 18 21 17 19 24
2310.0 30 15 0 0 0 0 0 0 0 0
2350.0 0 0 0 0 0 0 0 5 15 24
2390.0 25 17 22 29 34 33 29 34 41 37
2430.0 33 22 15 23 28 27 19 23 26 32
2470.0 28 17 25 31 24 10 10 20 24 18
2510.0 19 18 18 36 39 27 27 36 42 37
2550.0 35 30 27 34 34 40 43 36 30 36
2590.0 43 39 39 46 51 53 58 66 70 65
2630.0 73 80 67 67 67 74 82 71 77 89
2670.0 94 104 114 119 105 94 101 106 101 95
2710.0 94 104 109 107 119 138 143 141 144 146
2750.0 142 139 138 144 151 154 154 155 174 193
2790.0 212 246 264 282 312 356 401 444 494 560
2830.0 644 748 886 1092 1398 1834 2397 2972 3401 3585
2870.0 3527 3352 3211 3126 3038 2933 2886 2990 3259 3656
2910.0 4228 4981 5955 7208 8571 9629 10000 9573 8558 7303
2950.0 6175 5487 5328 5532 5732 5554 4885 3927 2985 2215
2990.0 1645 1259 989 817 689 577 492 447 406 372
3030.0 340 306 270 262 257 227 204 205 210 187
3070.0 184 192 169 144 139 154 145 131 127 113
3110.0 111 108 108 112 110 100 94 95 92 100
3150.0 109 101 109 114 91 73 104 131 129 124
3190.0 119 102 93 83 78 77 77 85 88 84
3230.0 78 75 65 46 41 47 55 66 68 69
3270.0 71 62 66 64 60 71 67 65 67 66
3310.0 52 31 46 73 78 57 56 67 56 56
3350.0 54 34 28 29 28 25 31 27 38 50
3390.0 47 61 46 34 40 40 34 37 38 43
3430.0 39 38 41 40 33 21 23 40 37 5
3470.0 7 28 28 31 35 44 69 75 67 89
3510.0 91 87 112 117 115 121 147 164 198 248
3550.0 326 475 735 1244 2065 2837 3025 2471 1549 869
3590.0 500 316 241 175 133 128 111 108 102 111
3630.0 104 75 64 58 63 59 44 14 8 24
3670.0 52 69 56 41 49 50 38 38 40 50
3710.0 44 38 34 39 36 28 46 45 50 66
3750.0 82 61 49 59 35 32 24 8 9 24
3790.0 34 36 42 44 40 35 40 58 51 31
3830.0 39 61 66 36 30
##END=
