##TITLE=9,10-Dichloroanthracene
##JCAMP-DX=4.24
##DATA TYPE=INFRARED SPECTRUM
##ORIGIN=NIST Mass Spectrometry Data Center
##OWNER=NIST Standard Reference Data Program
Collection (C) 2018 copyright by the U.S. Secretary of Commerce
on behalf of the United States of America. All rights reserved.
##CAS REGISTRY NO=605-48-1
##MOLFORM=C 14 H 8 Cl 2
##$NIST SOURCE=MSDC-IR
##SPECTROMETER/DATA SYSTEM=HP-GC/MS/IRD
##STATE=gas
##XUNITS=1/CM
##YUNITS=ABSORBANCE
##XFACTOR=1.0
##YFACTOR=0.000002400
##DELTAX=4.0
##FIRSTX=550.0
##LASTX=3846.0
##FIRSTY=0.000403
##MAXX=3846
##MINX=550
##MAXY=0.024
##MINY=0
##NPOINTS=825
##XYDATA=(X++(Y..Y))
550.0 168 135 96 104 142 164 138 165 316 776
590.0 1371 2380 2522 1827 1261 631 295 160 95 64
630.0 74 76 65 62 87 85 82 74 57 66
670.0 91 97 71 99 222 374 509 566 485 321
710.0 223 200 249 278 331 392 525 890 2220 4497
750.0 8005 10000 6997 3627 1608 533 332 251 213 194
790.0 146 133 113 101 96 86 68 72 84 72
830.0 60 82 95 112 160 212 235 220 191 186
870.0 212 226 232 219 186 158 118 100 123 145
910.0 170 169 170 218 344 628 1273 2512 4465 6441
950.0 7169 6059 3707 1749 881 565 393 256 162 116
990.0 99 89 70 73 101 172 346 687 1009 1033
1030.0 751 369 152 78 40 19 30 48 58 57
1070.0 44 39 30 26 23 23 26 41 41 22
1110.0 7 7 11 6 0 19 52 74 88 113
1150.0 152 242 428 595 653 586 422 292 201 135
1190.0 129 145 149 135 124 117 106 102 106 123
1230.0 143 177 222 283 399 704 1422 2502 3323 3327
1270.0 2512 1511 870 533 431 534 830 1438 2637 4413
1310.0 5842 5843 4347 2367 1204 870 740 586 411 309
1350.0 286 289 300 301 284 239 175 147 160 179
1390.0 199 202 184 149 113 106 119 137 185 291
1430.0 543 905 1125 1033 677 352 188 120 98 73
1470.0 59 53 71 81 78 101 149 202 233 202
1510.0 189 244 320 380 383 291 169 85 54 61
1550.0 74 61 29 34 47 53 55 62 93 131
1590.0 172 207 222 237 259 307 352 382 396 365
1630.0 305 222 145 96 62 28 22 49 56 50
1670.0 50 63 85 104 145 229 314 401 482 490
1710.0 392 250 158 139 132 103 90 120 136 125
1750.0 98 78 65 58 54 50 59 74 91 130
1790.0 199 281 330 336 332 361 412 412 334 214
1830.0 123 86 74 59 49 55 63 67 64 53
1870.0 53 59 54 56 58 61 79 119 169 217
1910.0 239 223 214 229 248 241 237 270 324 335
1950.0 278 191 119 88 79 71 58 52 50 47
1990.0 47 44 41 44 48 50 43 42 50 48
2030.0 41 45 55 55 56 59 54 48 48 55
2070.0 60 51 45 48 47 51 60 58 45 50
2110.0 48 36 36 44 43 35 41 46 41 40
2150.0 38 36 37 39 43 44 43 47 54 50
2190.0 39 33 38 44 41 41 41 39 41 43
2230.0 45 46 44 45 52 60 57 56 57 47
2270.0 43 40 40 47 56 54 47 45 49 50
2310.0 54 66 75 79 74 66 61 55 56 54
2350.0 49 31 12 3 15 30 36 47 55 52
2390.0 48 42 43 48 45 42 40 40 37 40
2430.0 39 35 47 48 40 40 44 44 45 52
2470.0 54 52 50 42 32 29 32 35 33 30
2510.0 34 34 38 40 37 31 29 40 45 40
2550.0 41 47 51 47 40 35 35 39 34 31
2590.0 37 41 39 32 33 31 40 48 40 34
2630.0 32 32 30 28 31 34 28 21 28 38
2670.0 41 31 31 41 40 41 47 51 57 57
2710.0 50 39 39 49 47 46 39 36 42 37
2750.0 31 30 36 38 34 42 41 34 36 40
2790.0 38 38 44 41 36 44 58 53 45 46
2830.0 39 37 41 41 46 47 40 49 46 37
2870.0 37 43 48 43 48 49 57 65 63 59
2910.0 64 72 70 64 59 57 57 61 64 61
2950.0 67 80 80 75 86 111 135 160 191 207
2990.0 206 196 170 141 139 143 136 155 187 241
3030.0 343 501 710 951 1137 1157 1010 813 683 665
3070.0 772 1057 1622 2366 2857 2710 1942 1035 490 281
3110.0 197 159 126 98 86 80 82 97 95 92
3150.0 90 88 91 86 86 86 79 80 79 62
3190.0 54 59 55 48 42 47 45 40 44 53
3230.0 52 40 46 41 27 36 50 43 38 36
3270.0 35 36 34 30 28 23 25 37 47 50
3310.0 30 32 50 43 39 30 27 34 36 41
3350.0 38 29 32 30 29 34 32 32 36 48
3390.0 64 58 60 50 46 48 44 53 45 32
3430.0 30 33 41 56 63 64 51 46 49 36
3470.0 29 32 36 47 59 60 53 45 40 29
3510.0 30 50 56 42 23 32 44 39 36 40
3550.0 48 44 29 33 34 24 30 39 40 30
3590.0 25 39 59 56 37 21 25 29 30 25
3630.0 35 49 43 48 38 25 33 37 38 33
3670.0 19 25 38 52 50 40 45 48 49 54
3710.0 43 43 57 48 42 43 38 47 43 33
3750.0 40 43 42 45 55 54 46 52 56 50
3790.0 50 47 40 29 29 49 48 33 30 40
3830.0 38 24 27 38 40
##END=
