##TITLE=1-Phenylnaphthalene
##JCAMP-DX=4.24
##DATA TYPE=INFRARED SPECTRUM
##ORIGIN=NIST Mass Spectrometry Data Center
##OWNER=NIST Standard Reference Data Program
Collection (C) 2018 copyright by the U.S. Secretary of Commerce
on behalf of the United States of America. All rights reserved.
##CAS REGISTRY NO=605-02-7
##MOLFORM=C 16 H 12
##$NIST SOURCE=MSDC-IR
##SPECTROMETER/DATA SYSTEM=HP-GC/MS/IRD
##STATE=gas
##XUNITS=1/CM
##YUNITS=ABSORBANCE
##XFACTOR=1.0
##YFACTOR=0.000003400
##DELTAX=4.0
##FIRSTX=550.0
##LASTX=3846.0
##FIRSTY=0.004151
##MAXX=3846
##MINX=550
##MAXY=0.034
##MINY=0
##NPOINTS=825
##XYDATA=(X++(Y..Y))
550.0 1221 1119 1199 1503 1490 1195 872 644 497 395
590.0 363 329 295 319 400 801 1334 1533 1288 676
630.0 291 239 241 290 356 369 365 413 459 572
670.0 698 706 735 905 1371 2203 3500 4678 4953 4275
710.0 2849 1650 1078 899 880 913 940 954 1101 1555
750.0 2371 3426 4540 5814 7358 9104 10000 9001 7225 5777
790.0 4855 4581 4257 3157 1971 1104 559 340 249 226
830.0 218 202 194 180 169 193 224 287 335 300
870.0 230 162 118 97 99 132 149 157 186 215
910.0 238 232 192 133 93 88 107 148 206 275
950.0 344 437 575 660 618 475 300 178 132 135
990.0 174 244 315 375 478 629 758 828 934 1048
1030.0 1055 871 527 285 197 201 265 360 449 505
1070.0 523 459 325 193 110 69 46 45 72 108
1110.0 144 159 152 119 67 39 41 57 66 43
1150.0 21 50 114 166 166 125 121 160 180 166
1190.0 129 102 94 99 91 71 64 70 75 67
1230.0 70 88 128 189 233 229 178 104 52 32
1270.0 21 0 3 31 68 82 70 73 74 68
1310.0 88 144 182 194 220 220 238 287 185 69
1350.0 71 90 165 254 241 279 394 525 828 1439
1390.0 2086 2416 2214 1569 1014 709 588 586 510 460
1430.0 515 684 794 756 738 623 643 644 477 446
1470.0 508 582 541 651 1065 1545 1795 1803 1603 1502
1510.0 1308 975 833 745 595 485 441 492 514 404
1550.0 328 368 484 420 420 601 809 988 1100 1235
1590.0 1291 1239 1092 899 701 493 362 298 261 247
1630.0 237 291 257 209 250 347 386 274 260 307
1670.0 362 412 419 498 505 415 488 563 459 305
1710.0 248 342 414 325 285 369 430 361 344 406
1750.0 454 391 351 349 384 415 339 269 269 284
1790.0 387 513 637 757 715 612 484 373 350 374
1830.0 364 323 283 298 294 248 257 330 401 450
1870.0 430 352 314 308 327 339 329 305 293 339
1910.0 416 507 602 617 567 521 508 531 566 534
1950.0 458 403 335 251 186 130 89 74 67 70
1990.0 83 74 58 56 51 47 60 61 56 57
2030.0 47 50 57 53 49 57 55 53 56 55
2070.0 52 46 51 54 48 52 58 55 43 47
2110.0 50 46 43 46 47 46 48 49 51 49
2150.0 46 55 55 48 47 49 46 49 53 45
2190.0 46 44 43 52 55 62 64 54 49 62
2230.0 72 77 90 83 77 81 83 85 85 86
2270.0 92 99 103 109 109 103 98 89 93 115
2310.0 136 146 146 141 136 150 159 147 137 127
2350.0 125 133 145 155 155 132 112 100 83 76
2390.0 79 78 73 78 83 81 81 79 86 91
2430.0 88 80 74 66 65 72 70 74 75 74
2470.0 72 70 70 67 67 69 73 71 63 60
2510.0 67 62 59 62 61 68 81 83 77 71
2550.0 70 72 74 75 78 75 73 70 73 77
2590.0 72 74 71 64 64 74 81 81 78 69
2630.0 71 68 65 64 61 64 65 63 61 60
2670.0 59 56 50 54 57 54 54 53 49 49
2710.0 43 45 47 53 55 51 58 65 72 69
2750.0 60 57 57 66 77 79 80 83 81 78
2790.0 76 70 68 71 67 66 83 96 92 85
2830.0 86 95 102 109 119 128 132 139 150 150
2870.0 142 139 143 147 149 155 158 150 152 156
2910.0 164 174 189 213 234 258 276 288 292 293
2950.0 306 307 285 276 274 278 298 320 359 414
2990.0 493 607 737 881 1044 1207 1395 1617 1907 2305
3030.0 2794 3294 3781 4356 5054 5816 6674 7683 8574 8725
3070.0 7917 6542 5307 4571 3985 3342 2701 2148 1678 1286
3110.0 963 723 560 423 340 308 282 254 236 223
3150.0 210 212 208 200 181 157 142 131 130 124
3190.0 124 112 94 99 99 109 107 96 96 96
3230.0 99 95 83 80 66 54 57 55 55 49
3270.0 60 66 58 47 45 57 44 40 41 43
3310.0 47 33 38 43 30 38 48 49 37 34
3350.0 45 34 27 37 53 41 23 25 37 48
3390.0 50 54 45 36 35 43 46 42 40 48
3430.0 54 55 51 64 71 53 60 74 63 43
3470.0 43 47 58 59 48 50 56 86 112 88
3510.0 57 49 69 104 104 46 51 66 100 141
3550.0 104 95 84 119 216 155 43 41 87 176
3590.0 166 104 83 71 128 181 169 153 93 163
3630.0 209 84 49 72 166 217 144 87 38 78
3670.0 166 189 142 83 128 164 113 110 121 104
3710.0 160 164 96 132 139 138 248 196 196 247
3750.0 204 151 99 91 90 99 71 54 46 43
3790.0 54 70 97 119 95 49 81 140 123 93
3830.0 106 155 183 156 106
##END=
