##TITLE=3-Indanedione
##JCAMP-DX=4.24
##DATA TYPE=INFRARED SPECTRUM
##ORIGIN=NIST Mass Spectrometry Data Center
##OWNER=NIST Standard Reference Data Program
Collection (C) 2018 copyright by the U.S. Secretary of Commerce
on behalf of the United States of America. All rights reserved.
##CAS REGISTRY NO=606-23-5
##MOLFORM=C 9 H 6 O 2
##$NIST SOURCE=MSDC-IR
##SPECTROMETER/DATA SYSTEM=HP-GC/MS/IRD
##STATE=gas
##XUNITS=1/CM
##YUNITS=ABSORBANCE
##XFACTOR=1.0
##YFACTOR=0.000005100
##DELTAX=4.0
##FIRSTX=550.0
##LASTX=3846.0
##FIRSTY=0.000944
##MAXX=3846
##MINX=550
##MAXY=0.051
##MINY=0
##NPOINTS=825
##XYDATA=(X++(Y..Y))
550.0 185 135 92 85 105 143 239 356 424 461
590.0 460 390 269 189 164 158 162 167 157 140
630.0 134 116 93 81 71 56 55 43 27 20
670.0 12 8 5 0 3 14 22 29 36 36
710.0 71 120 155 180 200 217 257 326 487 759
750.0 1019 1243 1917 2055 1290 978 765 426 217 115
790.0 62 37 20 17 15 19 16 23 28 25
830.0 26 28 28 20 19 28 28 24 32 37
870.0 37 44 48 42 32 25 28 30 33 43
910.0 59 79 107 123 112 101 88 71 64 73
950.0 80 86 102 115 120 124 124 116 113 111
990.0 107 117 140 153 157 150 129 109 88 65
1030.0 54 53 56 62 70 78 93 102 112 135
1070.0 176 232 280 305 308 276 215 149 88 56
1110.0 56 59 66 84 95 96 98 100 109 144
1150.0 219 286 324 346 352 315 248 220 229 250
1190.0 278 304 329 366 409 454 531 664 854 1159
1230.0 1705 2592 3652 4495 4905 4818 4164 2918 1637 904
1270.0 607 493 454 463 494 540 572 558 525 487
1310.0 455 452 504 602 721 811 837 803 722 599
1350.0 467 382 343 315 289 281 296 299 287 260
1390.0 212 149 112 105 108 109 111 111 104 93
1430.0 80 74 68 63 57 53 52 50 54 56
1470.0 56 55 50 50 55 58 59 57 59 66
1510.0 75 79 76 73 70 64 61 58 60 69
1550.0 78 93 111 133 155 173 199 239 305 403
1590.0 524 623 642 586 498 387 281 203 163 146
1630.0 143 143 143 143 139 133 127 127 136 156
1670.0 174 185 196 219 267 338 443 571 750 1027
1710.0 1495 2327 3784 5925 8191 9545 10000 9878 8392 6043
1750.0 4304 3607 3437 3259 2938 2468 1713 1001 650 508
1790.0 425 357 297 255 221 192 170 155 145 141
1830.0 145 154 165 176 186 195 200 191 171 154
1870.0 139 123 107 92 78 68 62 57 54 50
1910.0 49 51 52 53 54 57 59 62 71 80
1950.0 87 91 93 99 100 95 90 84 75 65
1990.0 55 43 30 28 26 28 28 30 30 30
2030.0 32 35 38 41 38 37 41 41 40 37
2070.0 32 29 28 23 20 19 18 23 24 23
2110.0 25 23 21 22 21 19 22 23 21 20
2150.0 21 21 19 17 18 22 23 20 21 26
2190.0 26 26 29 29 27 30 31 33 34 34
2230.0 30 30 32 33 35 35 36 37 36 36
2270.0 34 32 32 31 35 38 34 30 27 29
2310.0 29 26 26 26 24 23 20 17 16 15
2350.0 15 12 8 8 7 9 13 17 18 14
2390.0 13 12 11 12 16 17 19 19 18 15
2430.0 11 11 13 12 13 15 15 15 16 14
2470.0 12 13 12 10 9 10 9 9 10 9
2510.0 4 5 7 8 11 13 13 12 11 9
2550.0 7 6 10 9 6 6 8 10 9 8
2590.0 6 7 10 11 12 14 14 16 19 22
2630.0 25 25 25 22 20 19 16 16 19 18
2670.0 22 24 21 23 24 18 11 7 2 1
2710.0 0 1 7 11 11 7 7 8 8 7
2750.0 8 8 7 10 10 12 12 9 11 11
2790.0 6 2 1 0 2 7 8 7 8 6
2830.0 4 4 4 7 7 10 12 13 10 8
2870.0 16 23 22 23 25 24 20 15 15 21
2910.0 24 23 24 27 23 16 15 13 8 7
2950.0 7 10 9 7 10 8 4 3 8 10
2990.0 7 6 3 5 11 15 22 34 48 59
3030.0 72 87 101 110 110 111 116 129 160 223
3070.0 318 401 452 458 417 340 230 143 87 53
3110.0 36 20 9 9 8 7 7 7 11 13
3150.0 16 14 13 20 26 26 22 23 28 23
3190.0 21 22 20 19 14 15 15 12 10 6
3230.0 4 3 3 5 8 13 11 6 5 9
3270.0 12 9 6 8 12 13 7 3 4 0
3310.0 8 14 11 12 14 15 10 6 13 15
3350.0 12 18 15 14 18 17 15 17 18 17
3390.0 18 13 6 13 15 14 16 19 23 25
3430.0 31 36 44 55 63 75 93 108 133 162
3470.0 185 205 217 210 183 145 103 67 54 50
3510.0 47 41 40 33 27 28 31 30 25 17
3550.0 13 15 24 21 20 21 12 12 17 13
3590.0 10 12 14 17 17 18 15 7 11 15
3630.0 13 13 10 10 10 6 7 4 0 9
3670.0 12 9 13 17 15 12 9 8 7 4
3710.0 6 7 4 1 0 1 3 0 0 3
3750.0 6 6 5 11 14 10 10 5 9 10
3790.0 10 12 13 9 0 5 16 13 12 8
3830.0 2 3 9 11 12
##END=
