##TITLE=7-Pentadecanone
##JCAMP-DX=4.24
##DATA TYPE=INFRARED SPECTRUM
##ORIGIN=EPA-IR VAPOR PHASE LIBRARY
##OWNER=SRD/NIST
Collection (C) 2018 copyright by the U.S. Secretary of Commerce
on behalf of the United States of America. All rights reserved.
##CAS REGISTRY NO=6064-38-6
##MOLFORM=C 15 H 30 O
##$NIST SOURCE=MSDC-IR
##STATE=gas
##XUNITS=1/CM
##YUNITS=ABSORBANCE
##XFACTOR=1.
##YFACTOR=0.001
##DELTAX=1.92898
##FIRSTX=549.8
##LASTX=4000.7
##FIRSTY=4.066
##MAXX=4000.7
##MINX=549.759
##MAXY=0.584996
##MINY=0
##NPOINTS=1790
##XYDATA=(X++(Y..Y))
549.759 4.066 3.336 3.106 3.516 3.766 3.246 2.456 2.626 2.626 2.636
569.049 3.006 2.766 2.476 2.126 2.276 2.736 2.986 2.886 2.026 1.496
588.339 1.736 2.496 2.626 2.096 2.376 2.536 2.016 1.936 2.056 2.306
607.628 2.396 2.806 3.086 2.876 3.366 3.596 3.226 3.116 3.066 3.416
626.918 3.656 3.416 3.556 3.406 3.316 3.516 3.466 3.466 3.456 3.236
646.208 2.966 2.726 2.476 2.346 2.326 2.186 1.846 1.676 1.926 2.086
665.498 2.306 2.386 2.316 2.166 1.956 2.446 2.596 2.466 2.376 2.486
684.787 2.756 3.036 3.306 3.856 4.476 5.056 5.026 4.916 5.466 6.166
704.077 7.246 7.896 8.386 8.816 9.756 10.886 10.926 11.466 11.796 12.026
723.367 12.266 12.316 12.346 12.186 12.276 12.086 11.856 11.036 10.036 9.786
742.657 9.776 9.346 8.716 8.366 8.236 8.086 7.586 7.976 8.296 7.906
761.947 7.986 7.446 7.186 7.466 7.536 7.186 6.796 6.776 6.866 6.566
781.236 6.146 5.956 5.906 5.916 5.706 5.806 5.566 4.956 4.666 4.806
800.526 4.456 4.386 4.986 4.956 4.486 4.486 4.336 4.216 4.306 4.276
819.816 4.376 4.346 4.216 3.966 4.086 4.516 4.726 4.716 4.746 4.406
839.106 4.426 4.616 4.636 4.856 5.066 4.996 4.766 5.136 5.556 5.496
858.395 5.006 5.016 5.556 5.956 5.706 5.276 5.396 5.786 6.136 5.866
877.685 5.496 5.556 6.046 6.096 5.866 6.206 6.066 6.016 6.246 6.526
896.975 6.766 6.186 6.096 6.246 6.086 6.126 6.126 6.056 6.126 6.086
916.265 5.966 6.026 6.296 6.716 6.626 6.506 6.476 6.376 6.706 6.716
935.555 6.646 6.946 7.246 7.576 7.336 7.196 7.546 7.826 7.926 7.756
954.844 8.086 8.736 8.946 9.146 9.136 9.006 9.276 9.486 9.666 9.926
974.134 10.156 10.366 10.736 10.876 11.286 11.946 12.126 12.576 12.876 13.116
993.424 13.406 13.366 13.916 14.316 14.136 13.666 13.016 13.196 13.306 13.286
1012.714 13.706 14.056 14.496 14.956 15.336 15.476 15.736 15.966 15.906 16.146
1032.003 16.926 16.856 16.716 17.286 17.576 17.896 18.586 19.236 19.666 20.846
1051.293 22.026 23.496 25.006 25.736 27.236 28.626 29.406 30.066 31.556 32.656
1070.583 32.126 31.876 30.116 28.356 27.816 26.746 25.936 24.986 23.646 21.686
1089.873 20.436 19.156 17.926 17.466 17.766 18.326 18.456 19.266 19.106 19.536
1109.163 20.146 21.296 23.106 23.696 24.406 24.886 25.356 27.496 29.836 30.206
1128.452 30.756 32.136 32.836 32.896 31.566 31.086 31.536 30.156 28.176 26.666
1147.742 26.166 25.316 24.046 23.026 22.156 21.686 21.286 20.446 19.626 19.016
1167.032 18.976 19.166 18.646 18.866 20.046 20.516 20.956 21.096 20.846 22.096
1186.322 22.916 22.726 23.476 24.656 24.346 24.126 25.316 25.766 25.976 26.116
1205.611 25.846 25.486 24.726 24.166 24.066 23.826 22.516 21.516 20.706 19.736
1224.901 19.626 20.516 20.846 19.526 18.946 18.336 18.736 20.086 19.686 19.066
1244.191 19.476 19.816 19.606 19.526 20.126 20.666 20.436 20.556 21.306 21.516
1263.481 21.666 22.696 23.196 23.166 23.606 24.236 24.756 24.986 25.536 25.936
1282.771 26.316 26.746 26.606 26.566 26.626 26.536 26.676 26.856 27.036 27.336
1302.060 27.716 28.036 28.336 28.626 28.486 28.526 28.786 28.866 29.046 29.376
1321.350 29.526 29.916 30.596 31.456 32.706 33.976 35.366 37.036 38.806 40.746
1340.640 42.966 45.236 47.276 49.226 51.416 53.426 54.986 56.276 56.976 57.076
1359.930 56.586 55.366 53.546 51.276 48.606 45.606 42.516 39.726 37.336 35.436
1379.219 34.066 32.906 31.826 30.536 28.716 26.916 25.356 23.996 23.016 22.306
1398.509 22.116 22.356 22.686 23.336 24.446 25.686 27.016 28.326 29.466 30.336
1417.799 30.796 31.066 31.236 31.186 31.186 31.336 31.746 32.446 33.256 34.156
1437.089 35.416 37.096 38.976 41.176 43.876 46.776 49.906 53.156 56.506 59.636
1456.378 61.916 63.506 64.146 63.656 62.066 59.386 55.906 51.896 47.256 42.256
1475.668 37.536 33.046 28.986 25.466 22.496 19.946 17.806 16.236 14.796 13.396
1494.958 12.486 11.506 10.566 9.956 9.386 8.766 8.206 7.776 7.456 7.166
1514.248 6.896 6.476 6.036 5.746 5.616 5.506 5.386 5.366 5.166 4.876
1533.538 4.716 4.526 4.416 4.336 4.226 4.186 4.086 3.996 3.946 3.796
1552.827 3.816 3.706 3.556 3.526 3.426 3.446 3.386 3.176 3.136 3.226
1572.117 3.366 3.426 3.266 3.166 3.076 3.076 3.186 3.336 3.296 3.296
1591.407 3.396 3.316 3.226 3.316 3.316 3.236 3.086 3.006 3.236 3.336
1610.697 3.286 3.356 3.286 3.156 3.336 3.536 3.696 3.716 3.696 3.776
1629.986 3.806 3.916 4.096 4.116 4.066 4.206 4.446 4.646 4.866 4.896
1649.276 4.956 5.106 5.416 5.816 6.146 6.536 6.836 7.176 7.546 8.046
1668.566 8.666 9.416 10.226 11.066 12.066 12.876 14.016 15.266 16.466 18.066
1687.856 19.676 21.316 23.406 26.056 29.176 32.886 37.256 42.846 49.366 57.396
1707.146 67.226 78.626 92.056 107.516 124.046 140.676 156.626 169.636 177.886 180.066
1726.435 175.476 164.746 148.856 130.066 109.966 91.186 75.116 61.496 50.796 42.406
1745.725 35.906 30.846 26.696 23.286 20.606 18.366 16.366 14.776 13.476 12.286
1765.015 11.176 10.256 9.606 8.926 8.096 7.446 6.996 6.496 6.146 5.816
1784.305 5.386 5.096 4.876 4.586 4.316 4.036 3.806 3.676 3.506 3.406
1803.594 3.286 3.176 3.056 2.856 2.816 2.826 2.726 2.606 2.486 2.396
1822.884 2.376 2.426 2.366 2.186 2.126 2.096 2.016 2.086 2.146 2.026
1842.174 1.936 1.886 1.836 1.896 2.026 1.846 1.796 1.816 1.596 1.566
1861.464 1.646 1.546 1.486 1.526 1.616 1.636 1.616 1.666 1.606 1.586
1880.754 1.526 1.536 1.536 1.406 1.356 1.366 1.316 1.356 1.466 1.446
1900.043 1.396 1.366 1.366 1.396 1.266 1.1394 1.2276 1.2316 1.1955 1.1875
1919.333 1.186 1.218 1.2419 1.256 1.239 1.2336 1.246 1.286 1.366 1.366
1938.623 1.376 1.306 1.1323 1.055 1.157 1.2427 1.225 1.266 1.256 1.1668
1957.913 1.0733 1.1217 1.2292 1.1976 1.1799 1.192 1.2236 1.326 1.306 1.336
1977.202 1.266 1.1992 1.1742 1.1451 1.1905 1.1867 1.2017 1.2007 1.256 1.256
1996.492 1.2339 1.2057 1.1122 1.2175 1.286 1.204 1.416 1.526 1.416 1.546
2015.782 1.626 1.626 1.676 1.656 1.646 1.626 1.656 1.736 1.816 1.776
2035.072 1.736 1.776 1.816 1.886 1.876 1.836 1.746 1.766 1.916 1.926
2054.362 1.706 1.726 1.816 1.736 1.716 1.756 1.826 1.816 1.796 1.706
2073.651 1.626 1.626 1.716 1.636 1.566 1.576 1.596 1.766 1.696 1.606
2092.941 1.576 1.486 1.536 1.576 1.486 1.556 1.546 1.546 1.666 1.596
2112.231 1.586 1.586 1.596 1.626 1.546 1.496 1.506 1.616 1.746 1.656
2131.521 1.516 1.506 1.556 1.606 1.626 1.636 1.636 1.536 1.476 1.556
2150.810 1.636 1.546 1.626 1.836 1.826 1.826 1.846 1.696 1.596 1.526
2170.100 1.556 1.656 1.596 1.606 1.686 1.746 1.746 1.736 1.786 1.576
2189.390 1.596 1.836 1.706 1.546 1.686 1.906 1.816 1.636 1.606 1.646
2208.680 1.756 1.846 1.776 1.646 1.736 1.726 1.576 1.656 1.796 1.696
2227.970 1.636 1.696 1.746 1.656 1.416 1.406 1.566 1.686 1.636 1.566
2247.259 1.646 1.666 1.606 1.456 1.386 1.536 1.586 1.556 1.656 1.746
2266.549 1.696 1.516 1.446 1.596 1.696 1.656 1.556 1.456 1.396 1.366
2285.839 1.416 1.506 1.506 1.446 1.476 1.586 1.646 1.556 1.486 1.606
2305.129 1.646 1.596 1.626 1.656 1.646 1.596 1.646 1.786 1.766 1.696
2324.418 1.716 1.816 1.866 1.806 1.816 1.786 1.696 1.646 1.596 1.536
2343.708 1.656 1.866 1.906 1.756 1.676 1.766 1.716 1.686 1.616 1.526
2362.998 1.656 1.746 1.726 1.786 1.806 1.816 1.806 1.826 1.876 1.746
2382.288 1.666 1.716 1.746 1.836 1.906 1.916 1.876 1.906 1.936 1.806
2401.578 1.726 1.676 1.576 1.666 1.776 1.756 1.736 1.686 1.686 1.636
2420.867 1.666 1.736 1.646 1.696 1.666 1.546 1.486 1.386 1.566 1.666
2440.157 1.616 1.766 1.666 1.496 1.556 1.636 1.586 1.606 1.626 1.516
2459.447 1.446 1.616 1.656 1.606 1.666 1.676 1.646 1.616 1.566 1.576
2478.737 1.716 1.776 1.646 1.786 1.856 1.776 1.916 1.696 1.616 1.646
2498.026 1.636 1.726 1.766 1.856 1.806 1.706 1.876 1.916 1.876 2.006
2517.316 1.866 1.916 2.056 1.956 1.876 1.806 2.016 2.316 2.336 2.226
2536.606 2.156 2.206 2.316 2.366 2.496 2.586 2.396 2.396 2.486 2.666
2555.896 2.836 2.666 2.616 2.736 2.786 2.786 2.916 2.976 2.926 3.026
2575.186 3.086 3.086 3.186 3.296 3.496 3.406 3.266 3.266 3.246 3.356
2594.475 3.426 3.436 3.466 3.516 3.606 3.646 3.586 3.596 3.696 3.816
2613.765 3.796 3.796 3.976 4.196 4.266 4.246 4.236 4.366 4.356 4.416
2633.055 4.656 4.666 4.736 4.926 5.266 5.476 5.306 5.376 5.626 5.666
2652.345 5.716 5.896 5.926 5.896 6.126 6.226 6.436 6.706 6.696 6.736
2671.634 6.846 6.996 7.256 7.366 7.376 7.396 7.206 7.126 7.206 7.276
2690.924 7.216 6.956 6.796 6.766 6.786 6.696 6.706 6.896 6.816 6.766
2710.214 6.636 6.486 6.526 6.576 6.646 6.876 7.026 7.026 7.236 7.446
2729.504 7.506 7.616 7.776 7.966 8.266 8.626 8.916 8.916 8.966 9.176
2748.794 9.276 9.396 9.336 9.316 9.326 9.416 9.796 10.006 9.936 10.076
2768.083 10.346 10.606 10.896 11.296 11.566 11.686 12.096 12.676 13.186 13.616
2787.373 14.186 14.946 15.646 16.306 17.076 17.836 18.526 19.276 20.256 21.286
2806.663 22.096 23.216 24.446 25.406 26.636 28.046 29.256 30.426 32.156 34.006
2825.953 35.946 38.156 40.336 43.026 46.226 49.876 54.276 59.276 65.146 72.386
2845.242 81.186 91.506 103.926 118.826 135.706 154.296 173.496 191.406 206.846 218.886
2864.532 226.256 229.166 228.846 225.616 220.466 215.026 209.996 205.876 203.206 200.786
2883.822 197.646 194.446 191.156 188.336 187.126 187.836 190.296 194.356 200.336 208.326
2903.112 217.886 229.336 242.716 257.846 275.286 295.116 317.256 342.016 369.856 401.176
2922.401 435.636 471.306 506.396 537.646 561.626 578.006 584.996 581.506 568.356 548.686
2941.691 525.776 499.126 470.806 443.146 417.866 396.106 378.386 365.276 356.536 352.036
2960.981 349.796 347.916 344.206 336.506 322.426 300.786 273.206 241.946 210.256 180.486
2980.271 154.696 133.726 116.186 101.846 90.286 80.536 72.726 66.066 60.076 55.056
2999.561 50.406 46.696 43.606 40.486 37.926 35.536 33.336 31.366 29.696 28.156
3018.850 26.576 25.286 24.076 23.006 22.076 21.076 20.196 19.206 18.366 17.646
3038.140 16.946 16.476 15.836 15.086 14.316 13.756 13.486 13.196 12.606 11.976
3057.430 11.826 11.566 11.026 10.706 10.506 10.286 9.996 9.696 9.676 9.706
3076.720 9.366 8.806 8.686 8.776 8.636 8.506 8.306 8.176 8.016 7.956
3096.009 7.906 7.726 7.486 7.186 7.036 6.966 6.736 6.396 6.086 5.916
3115.299 5.836 5.806 5.756 5.616 5.616 5.706 5.546 5.336 5.116 4.916
3134.589 5.016 4.956 4.786 4.816 4.826 4.836 4.736 4.676 4.716 4.686
3153.879 4.646 4.596 4.486 4.336 4.226 4.276 4.536 4.396 4.296 4.146
3173.169 3.746 3.776 3.836 3.696 3.766 3.786 3.626 3.616 3.496 3.346
3192.458 3.126 2.996 2.946 3.026 3.046 2.656 2.536 2.716 2.746 2.836
3211.748 2.776 2.406 2.236 2.216 2.226 2.256 2.256 2.266 2.326 2.326
3231.038 2.226 2.026 1.876 1.966 1.876 1.636 1.596 1.426 1.516 1.746
3250.328 1.596 1.536 1.676 1.456 1.476 1.586 1.0951 0.9573 1.2256 1.266
3269.617 1.1311 1.2406 1.2398 1.1187 1.306 1.2311 1.2259 1.586 1.566 1.296
3288.907 1.336 1.366 1.2121 1.296 1.406 1.296 1.246 1.286 1.276 1.1152
3308.197 1.0578 1.0658 1.0172 1.1594 1.1714 1.2145 1.486 1.316 0.9826 1.1485
3327.487 1.376 1.426 1.336 1.286 1.396 1.496 1.376 1.256 1.266 1.0103
3346.777 0.875 1.416 1.666 1.706 1.736 1.576 1.626 1.716 1.756 1.526
3366.066 1.506 1.596 1.446 1.626 1.746 1.726 1.856 1.806 1.656 1.526
3385.356 1.616 2.016 1.866 1.536 1.646 1.846 1.936 1.816 1.936 2.186
3404.646 2.266 2.396 2.786 3.036 3.086 3.066 3.076 3.366 3.666 3.726
3423.936 3.386 3.296 3.486 3.636 3.566 3.456 3.706 3.756 3.586 3.256
3443.225 2.956 2.826 2.556 2.246 1.816 1.696 1.906 1.556 1.466 1.2452
3462.515 1.0634 1.356 1.286 1.266 1.1689 0.9476 0.9857 1.0841 0.976 0.8515
3481.805 0.7539 0.8055 0.9894 0.9008 0.4514 0.6264 0.7481 0.6319 0.6648 0.8058
3501.095 0.9299 0.6623 0.6113 0.714 0.63 0.24349 0.3749 0.5658 0.5209 0.6085
3520.385 0.4542 0.5522 0.6182 0.571 0.7363 0.7136 0.7494 0.6662 0.555 0.489
3539.674 0.3995 0.5884 0.7436 0.5323 0.30641 0.3966 0.6339 0.7792 0.7896 0.7193
3558.964 0.5968 0.6201 0.6504 0.5871 0.7457 0.5842 0.6675 1.0976 1.0799 0.9678
3578.254 0.9651 0.9505 0.8003 0.8583 0.4311 0 0.4505 0.9814 1.2036 0.912
3597.544 0.6795 0.8926 1.0822 1.0062 0.8828 1.0233 1.1218 0.8968 0.9539 1.246
3616.833 1.366 1.256 1.1845 1.0501 0.6762 0.7771 0.9658 1.2379 1.476 1.436
3636.123 1.1186 1.0093 1.286 1.1617 1.1182 1.0834 1.0844 1.476 1.476 1.2445
3655.413 1.306 1.366 1.276 1.386 1.516 1.476 1.366 1.1585 1.2042 1.266
3674.703 1.1384 1.202 1.135 1.18 1.306 0.9496 0.8391 1.2077 1.466 1.546
3693.993 1.446 1.1697 1.1704 1.1868 1.1961 1.1119 1.366 1.526 1.0476 1.336
3713.282 1.446 1.286 1.416 1.1446 0.9973 1.246 1.366 1.406 1.1434 0.9282
3732.572 0.8187 0.8457 1.044 1.0846 1.1295 1.336 1.356 1.296 1.546 1.306
3751.862 1.046 1.0267 1.0351 1.2386 1.546 1.406 1.1133 1.0729 1.1323 1.286
3771.152 1.266 1.1502 1.0407 1.336 1.486 1.266 1.22 1.476 1.716 1.446
3790.441 1.416 1.386 1.0919 1.266 1.466 1.2087 0.9715 1.0677 1.0664 1.1152
3809.731 1.296 1.2264 1.075 1.276 1.466 1.256 0.954 1.0219 1.1139 1.306
3829.021 1.596 1.696 1.576 1.366 1.1542 1.296 1.586 1.566 1.586 1.426
3848.311 1.0732 0.9121 1.0477 1.1918 1.296 1.436 1.496 1.456 1.516 1.306
3867.601 1.296 1.606 1.526 1.336 1.336 1.366 1.466 1.656 1.616 1.486
3886.890 1.516 1.586 1.786 1.676 1.396 1.356 1.246 1.246 1.536 1.686
3906.180 1.736 1.746 1.696 1.656 1.906 1.756 1.286 1.316 1.2409 1.306
3925.470 1.346 1.386 1.496 1.526 1.476 1.222 1.256 1.456 1.426 1.486
3944.760 1.876 1.896 1.596 1.726 1.726 1.766 1.946 1.916 1.896 1.626
3964.049 1.456 1.786 2.056 2.126 2.156 2.146 1.996 1.816 1.716 2.186
3983.339 2.456 2.126 2.066 1.886 2.006 2.236 2.426 2.486 2.096 1.706
##END=
