##TITLE=7-Heptadecanone
##JCAMP-DX=4.24
##DATA TYPE=INFRARED SPECTRUM
##ORIGIN=EPA-IR VAPOR PHASE LIBRARY
##OWNER=SRD/NIST
Collection (C) 2018 copyright by the U.S. Secretary of Commerce
on behalf of the United States of America. All rights reserved.
##CAS REGISTRY NO=6064-42-2
##MOLFORM=C 17 H 34 O
##$NIST SOURCE=MSDC-IR
##STATE=gas
##XUNITS=1/CM
##YUNITS=ABSORBANCE
##XFACTOR=1.
##YFACTOR=0.001
##DELTAX=1.92898
##FIRSTX=549.8
##LASTX=4000.7
##FIRSTY=15.63
##MAXX=4000.7
##MINX=549.759
##MAXY=2.04509
##MINY=0.00221
##NPOINTS=1790
##XYDATA=(X++(Y..Y))
549.759 15.63 15.32 14.82 14.26 13.58 12.89 12.57 12.06 11.14 10.24
569.049 9.91 9.95 9.9 9.84 9.85 9.25 8.64 8.63 8.74 8.69
588.339 8.19 8.21 8.44 8.71 9.23 9.24 9.03 9.42 9.8 9.95
607.628 10.33 10.58 10.87 11.44 11.83 11.85 12.12 12.35 12.57 12.91
626.918 12.93 13.1 13.01 12.62 12.85 12.72 12.16 11.95 11.47 11
646.208 10.8 10.33 10 9.92 9.75 9.36 9.05 8.97 8.72 8.87
665.498 9.38 9.64 9.56 9.54 9.81 10.07 10.39 10.89 11.17 11.83
684.787 12.96 13.81 14.89 16.37 18.06 19.74 21.72 24.03 26.43 29.18
704.077 32.53 36.01 39.41 43.01 46.33 49.4 52.36 54.74 56.29 57.37
723.367 57.99 57.92 57.23 56.19 55.18 53.73 52.11 50.42 48.19 45.96
742.657 44.23 42.31 40.12 38.39 36.95 35.7 34.77 33.87 32.98 32.05
761.947 31.21 30.75 30.04 29.44 29.03 28.29 27.5 26.79 25.83 24.92
781.236 24.19 23.34 22.63 22.22 21.48 20.71 20.52 20.09 19.71 19.68
800.526 19.42 19.22 19.26 19.08 18.94 18.54 18.42 18.81 19.08 19.28
819.816 19.19 19.35 19.74 19.88 19.67 19.93 20.34 20.4 20.62 20.74
839.106 20.99 20.97 20.86 21.12 21.25 21.21 21.49 21.83 21.93 22.13
858.395 22.35 22.19 22.28 22.55 22.58 22.91 23 23.06 23.55 23.82
877.685 23.96 24.32 24.69 25.37 25.99 26.34 26.56 26.51 26.57 26.59
896.975 26.32 25.91 25.52 24.96 24.06 23.8 24.21 24.03 23.82 23.86
916.265 23.82 23.79 23.97 24.04 23.95 23.69 23.37 23.35 23.75 24.1
935.555 24.12 24.44 24.92 25.76 26.94 28.25 29.48 30.63 32.12 33.9
954.844 35.74 37.27 38.46 39.65 40.7 41.83 42.9 43.27 44.09 45.31
974.134 46.07 46.5 47.1 48.23 48.55 48.51 49.21 49.78 50.03 50.08
993.424 50.23 50.4 50.31 50.26 50.53 51.01 50.96 50.72 51.33 52.45
1012.714 53.09 54.09 55.37 57.01 59.17 61.32 63.32 65.91 69.17 71.43
1032.003 73.71 75.89 78.32 80.52 82.43 85.09 87.07 89.3 92.26 95.21
1051.293 97.78 99.92 101.69 103.12 105.08 106.6 107.88 109.35 110.52 111.75
1070.583 112.56 112.81 112.86 112.88 112.21 110.11 106.72 103.85 100.62 96.42
1089.873 92.83 89.55 86.25 82.51 80.28 78.99 77.91 78.05 78.49 79.89
1109.163 82.8 87.01 90.52 94.19 99.55 104.47 109.27 114.17 118.53 122.83
1128.452 125.52 126.63 127.21 126.73 124.24 121.06 118.24 114.7 110.35 105.72
1147.742 101.5 98.15 94.52 91.49 88.82 85.91 84.16 83.4 83.28 82.95
1167.032 82.88 83.45 83.28 83.16 83.87 84.33 85.2 86.72 87.66 88.77
1186.322 90.74 92.24 93.39 94.7 96.1 97.66 98.76 99.41 99.06 99.15
1205.611 99.31 98.4 97.25 96.33 94.95 92.9 91.79 92.14 91.3 88.23
1224.901 86.99 86.37 85.03 83.81 82.53 81.91 80.81 79.84 79.37 78.52
1244.191 78.06 78.24 78.51 78.93 80 81.28 83.09 85.38 87.55 89.07
1263.481 90.81 93.15 95.58 97.78 99.54 101.4 103.18 104.95 106.18 106.9
1282.771 107.92 108.87 109.61 110.31 111.1 112.3 113.41 114.67 116.11 117.5
1302.060 119.02 120.54 121.66 122.28 122.84 123.17 123.15 123.19 123.49 124.15
1321.350 125.4 127.22 129.91 133.66 138.27 143.74 150.15 157.53 165.82 174.64
1340.640 183.81 193.03 202.26 211.62 220.79 229.4 236.67 241.84 244.52 244.45
1359.930 241.58 236.1 228.44 218.66 206.78 193.63 180.23 167.73 157.12 149.01
1379.219 143.04 138.11 133.06 127.04 119.58 111.59 104.56 98.98 94.95 92.45
1398.509 91.49 92.01 93.73 96.73 100.98 106.06 111.71 117.27 122.19 125.94
1417.799 128.35 129.73 130.06 130.01 130.48 131.65 133.75 136.85 140.85 145.95
1437.089 152.73 160.89 170.62 182.18 195.23 209.24 224.35 239.86 255.51 270.02
1456.378 281.92 290.24 293.43 291.04 282.97 270.13 253.38 233.17 210.49 186.58
1475.668 163.93 142.97 124.61 108.95 95.92 85.15 76.14 68.53 62.25 56.96
1494.958 52.39 48.46 45.09 42.12 39.56 37.16 34.99 33.13 31.43 29.93
1514.248 28.49 27.02 25.89 24.96 24.09 23.22 22.33 21.62 20.94 20.23
1533.538 19.61 19.03 18.56 18.14 17.74 17.34 16.92 16.58 16.17 15.73
1552.827 15.46 15.19 14.86 14.53 14.42 14.25 14.06 14.02 13.82 13.62
1572.117 13.53 13.5 13.56 13.46 13.48 13.45 13.43 13.43 13.37 13.32
1591.407 13.2 13.12 13.12 13.13 13.27 13.23 13.18 13.28 13.29 13.33
1610.697 13.48 13.63 13.81 13.94 14.14 14.34 14.45 14.72 15.18 15.37
1629.986 15.54 15.83 16.1 16.46 16.87 17.32 17.86 18.37 18.9 19.52
1649.276 20.34 21.28 22.22 23.2 24.37 25.68 27.17 28.9 30.85 32.83
1668.566 35.21 37.99 40.98 44.3 48.17 52.26 56.7 61.51 66.73 72.49
1687.856 78.8 86 94.45 104.37 116.84 131.82 149.38 172.06 198.18 230.31
1707.146 268.78 314.07 366.63 426.18 490.42 555.89 619.22 670.98 703.32 711.78
1726.435 692.65 647.81 582.29 506.2 425.15 351.8 290.23 238.44 197.94 165.76
1745.725 140.61 120.62 104.5 91.2 80.53 71.73 64.13 57.87 52.54 47.96
1765.015 43.95 40.36 37.17 34.35 31.9 29.7 27.73 25.93 24.28 22.84
1784.305 21.51 20.29 19.25 18.12 17.08 16.26 15.52 14.83 14.22 13.65
1803.594 13.13 12.63 12.24 11.83 11.36 10.98 10.68 10.37 9.97 9.61
1822.884 9.37 9.17 8.91 8.65 8.56 8.4 8.25 8.12 8.03 7.98
1842.174 7.86 7.66 7.57 7.45 7.28 7.24 7.13 7.04 6.9 6.81
1861.464 6.8 6.73 6.6 6.39 6.27 6.28 6.28 6.28 6.16 6.04
1880.754 6.07 6.06 5.97 5.93 5.88 5.8 5.76 5.66 5.5 5.52
1900.043 5.51 5.45 5.44 5.39 5.35 5.28 5.25 5.22 5.23 5.23
1919.333 5.22 5.15 4.97 4.98 5.1 5.11 5.06 5.04 5.02 5.01
1938.623 4.94 4.9 4.98 4.96 4.9 4.84 4.86 4.87 4.81 4.86
1957.913 4.89 4.83 4.75 4.76 4.81 4.82 4.78 4.83 4.87 4.84
1977.202 4.91 4.87 4.91 4.98 4.96 4.96 4.98 5.03 5.1 5.2
1996.492 5.35 5.43 5.51 5.55 5.63 5.77 5.92 6.07 6.26 6.49
2015.782 6.67 6.84 6.99 7.19 7.43 7.54 7.64 7.77 7.84 7.94
2035.072 7.94 8.01 8.09 8.01 7.91 7.86 7.77 7.72 7.73 7.65
2054.362 7.63 7.61 7.54 7.47 7.42 7.26 7.1 7.12 7.04 7.01
2073.651 7.04 7.02 6.95 6.8 6.75 6.67 6.62 6.69 6.54 6.41
2092.941 6.45 6.53 6.55 6.52 6.45 6.45 6.44 6.42 6.44 6.41
2112.231 6.5 6.49 6.48 6.61 6.67 6.68 6.72 6.73 6.72 6.79
2131.521 6.86 6.85 6.92 6.91 6.83 6.99 7.17 7.26 7.33 7.37
2150.810 7.47 7.59 7.65 7.59 7.6 7.59 7.52 7.39 7.44 7.56
2170.100 7.57 7.63 7.56 7.51 7.57 7.52 7.51 7.55 7.56 7.56
2189.390 7.46 7.37 7.41 7.33 7.3 7.29 7.23 7.24 7.14 7.19
2208.680 7.23 7.15 7.18 7.13 7.1 7.01 6.93 7.02 7.09 7.09
2227.970 6.95 6.91 6.91 6.86 6.79 6.77 6.88 6.89 6.83 6.95
2247.259 6.97 6.79 6.87 7.05 6.98 6.92 6.95 6.95 6.91 6.83
2266.549 6.79 6.9 6.97 6.82 6.75 6.94 7.06 6.96 6.95 6.89
2285.839 6.92 7.04 7.14 7.17 7.17 7.16 7.26 7.36 7.29 7.28
2305.129 7.31 7.32 7.42 7.57 7.63 7.59 7.56 7.61 7.64 7.6
2324.418 7.63 7.73 7.71 7.6 7.56 7.56 7.67 7.81 7.87 7.78
2343.708 7.69 7.65 7.66 7.69 7.69 7.71 7.63 7.58 7.62 7.54
2362.998 7.5 7.47 7.47 7.46 7.38 7.38 7.38 7.47 7.49 7.48
2382.288 7.55 7.59 7.7 7.76 7.71 7.69 7.68 7.71 7.72 7.71
2401.578 7.75 7.77 7.73 7.79 7.81 7.73 7.75 7.85 7.92 7.83
2420.867 7.75 7.72 7.64 7.68 7.71 7.53 7.48 7.46 7.41 7.4
2440.157 7.3 7.25 7.15 7.06 7.11 7.17 7.13 7.01 6.98 7.02
2459.447 7 6.94 6.88 6.91 6.89 6.92 7.04 7.05 7.02 7.05
2478.737 7.12 7.19 7.29 7.38 7.46 7.53 7.51 7.63 7.7 7.68
2498.026 7.79 8.02 8.15 8.14 8.29 8.43 8.55 8.73 8.87 8.99
2517.316 9.13 9.31 9.49 9.61 9.77 10.1 10.34 10.46 10.67 10.81
2536.606 10.9 11.08 11.24 11.32 11.37 11.47 11.46 11.46 11.56 11.7
2555.896 12.07 12.18 12.16 12.37 12.53 12.67 12.9 13.03 13.28 13.58
2575.186 13.63 13.79 13.98 14.16 14.47 14.73 14.98 15.11 15.22 15.53
2594.475 15.79 15.94 16.22 16.5 16.67 16.88 17.17 17.48 17.74 18.05
2613.765 18.42 18.8 19.04 19.35 19.73 20.22 20.71 21.04 21.24 21.53
2633.055 21.97 22.31 22.76 23.16 23.53 24.05 24.58 25.12 25.68 26.27
2652.345 26.87 27.45 28.01 28.62 29.29 29.97 30.56 31.16 31.73 32.17
2671.634 32.56 33.08 33.57 33.85 34.09 34.21 34.24 34.19 34.13 33.99
2690.924 33.71 33.39 33.05 32.71 32.31 31.95 31.57 31.28 31.07 30.91
2710.214 31.01 31.15 31.27 31.48 31.81 32.12 32.48 33.02 33.64 34.36
2729.504 35.13 35.93 36.76 37.78 38.82 39.85 40.73 41.3 41.88 42.27
2748.794 42.44 42.49 42.64 42.97 43.25 43.55 44.09 44.76 45.46 46.31
2768.083 47.32 48.46 49.55 50.97 52.75 54.41 56.13 58.27 60.81 63.35
2787.373 65.99 69.15 72.37 75.68 79.04 82.47 86.35 90.44 94.52 98.86
2806.663 103.52 108.14 112.99 118.28 123.74 129.42 135.48 142.12 149.25 157.11
2825.953 165.96 175.8 186.83 199.32 213.58 230.57 250.39 274.06 303.19 338.31
2845.242 380.95 432.55 495 569.32 655.14 751.31 849.76 940.98 1015.21 1063.16
2864.532 1088.09 1089.96 1070.92 1040.42 1004.31 968.2 936.68 910.7 891.92 877.99
2883.822 863.66 848.9 835.98 826.67 823.45 829.16 844.44 867.08 897.66 938.02
2903.112 985.29 1039.8 1102.14 1172.37 1249.15 1329.69 1417.93 1516.28 1621.15 1722.34
2922.401 1821.84 1908.4 1964.86 1997.91 2019.6 2045.09 2038.67 2040.94 2032.7 2004.78
2941.691 1985.63 1921.27 1843.01 1775.52 1699.2 1619.58 1545.86 1490.47 1451.98 1425.82
2960.981 1405.78 1385.44 1362.12 1324.64 1264.41 1181.44 1074.71 953.3 831.56 719.03
2980.271 621.65 540.2 472.66 417.11 371.47 333.36 300.94 273.02 249.5 229.22
2999.561 211.36 195.72 182 169.78 158.76 149.18 140.46 132.35 125.15 118.66
3018.850 112.7 107.34 102.27 97.75 93.63 89.44 85.55 81.95 78.3 74.92
3038.140 71.72 68.66 65.95 63.39 60.93 58.38 56.05 54.09 52.1 50.32
3057.430 48.8 47.22 45.66 44.34 43.31 42.24 41.28 40.36 39.5 38.65
3076.720 37.75 37.1 36.38 35.5 34.83 34.26 33.53 32.85 32.38 31.84
3096.009 31.15 30.54 29.97 29.44 28.73 28.25 27.88 27.14 26.48 25.91
3115.299 25.46 25.1 24.69 24.16 23.53 23.2 22.95 22.53 22.16 21.8
3134.589 21.33 20.89 20.7 20.55 20.2 19.92 19.84 19.5 19.15 18.89
3153.879 18.56 18.43 18.25 17.91 17.61 17.42 17.21 17.09 16.94 16.74
3173.169 16.76 16.66 16.28 15.93 15.66 15.32 15.09 14.91 14.54 14.3
3192.458 14.14 13.83 13.37 12.87 12.67 12.57 12.24 11.79 11.37 11.03
3211.748 10.6 10.16 9.83 9.4 9.2 9.11 8.98 8.77 8.49 8.35
3231.038 8.22 7.93 7.6 7.34 7.34 7.32 7.22 6.96 6.62 6.23
3250.328 6.24 6.46 6.18 5.94 5.91 5.81 5.7 5.77 5.85 5.78
3269.617 5.65 5.23 5.06 5.15 5.18 5.14 5.07 5.12 5.09 5.06
3288.907 4.96 4.94 4.95 5.06 4.91 4.64 4.79 4.91 4.91 4.95
3308.197 4.94 4.97 5.06 5.11 5.05 4.89 4.96 4.89 4.98 5.12
3327.487 5.14 5.15 5.13 5.24 5.29 5.23 5.23 5.28 5.17 5.27
3346.777 5.46 5.5 5.66 5.79 5.79 5.79 5.71 5.75 6.07 6.13
3366.066 6.03 6.17 6.42 6.51 6.51 6.53 6.46 6.41 6.54 6.82
3385.356 7.07 7.08 6.96 7.27 7.64 7.67 7.91 8.44 8.97 9.18
3404.646 9.27 9.75 10.37 10.84 11.3 11.76 12.44 13.23 13.68 14
3423.936 14.47 15.03 15.2 15.06 14.82 14.31 13.83 13.27 12.59 11.68
3443.225 10.75 10.05 9.26 8.67 8 7.22 6.71 6.4 6.04 5.74
3462.515 5.28 4.7 4.59 4.4 4.2 4.09 3.87 3.67 3.5 3.42
3481.805 3.52 3.33 2.98 2.92 2.68 2.61 2.85 2.91 2.72 2.61
3501.095 2.57 2.57 2.42 2.42 2.46 2.32 2.32 2.36 2.58 2.57
3520.385 2.53 2.45 2.34 2.34 2.28 2.32 2.36 2.34 2.25 2.23
3539.674 2.31 2.36 2.24 2.21 2.43 2.35 2.34 2.41 2.42 2.5
3558.964 2.54 2.62 2.62 2.64 2.59 2.63 2.74 2.61 2.74 3.07
3578.254 3.25 3.42 3.2 3.13 3.34 3.34 3.27 3.42 3.63 3.64
3597.544 3.69 3.97 4.15 4.12 4.31 4.51 4.63 4.77 4.84 4.78
3616.833 4.82 5.2 5.36 5.52 5.62 5.37 5.5 5.78 5.76 5.8
3636.123 5.97 5.95 5.93 5.96 5.95 5.86 5.7 5.71 5.82 6.03
3655.413 6.14 5.84 5.6 5.55 5.53 5.65 5.87 5.88 5.73 5.8
3674.703 5.82 5.67 5.7 5.7 5.61 5.69 5.88 5.86 5.65 5.68
3693.993 5.6 5.62 5.73 5.72 5.8 5.77 5.8 5.56 5.37 5.54
3713.282 5.64 5.55 5.44 5.55 5.54 5.5 5.57 5.42 5.27 5.3
3732.572 5.49 5.69 5.64 5.56 5.63 5.65 5.71 5.77 5.62 5.44
3751.862 5.61 5.67 5.58 5.6 5.65 5.78 5.86 5.8 5.68 5.73
3771.152 5.75 5.84 6.06 6.21 6.23 5.87 5.65 5.76 5.91 6.03
3790.441 6 6.1 6.2 6.02 5.79 5.83 5.97 5.91 5.86 5.89
3809.731 5.99 6.12 6.16 6.01 6.02 6.06 6.07 6.29 6.38 6.34
3829.021 6.2 5.97 6.07 6.4 6.25 6.13 6.21 6.12 6.23 6.3
3848.311 6.35 6.39 6.45 6.47 6.42 6.51 6.64 6.52 6.36 6.6
3867.601 6.71 6.44 6.4 6.79 7 6.86 6.86 6.75 6.62 6.62
3886.890 6.6 6.76 6.84 6.81 6.8 6.91 7.04 6.95 6.84 7.02
3906.180 7.24 7.25 7.13 7.03 7.21 7.29 7.26 7.13 6.95 7.08
3925.470 7.16 7.15 7.2 7.31 7.37 7.33 7.52 7.56 7.29 7.19
3944.760 7.2 7.3 7.5 7.68 7.81 7.78 8 8.23 8.07 8.24
3964.049 8.36 8.57 8.84 8.81 8.99 9.09 9.19 9.47 9.58 9.67
3983.339 9.68 9.64 9.77 9.7 9.58 9.74 9.83 9.62 9.58 9.77
##END=
