##TITLE=Ethyl 4-bromocrotonate
##JCAMP-DX=4.24
##DATA TYPE=INFRARED SPECTRUM
##ORIGIN=EPA-IR VAPOR PHASE LIBRARY
##OWNER=SRD/NIST
Collection (C) 2018 copyright by the U.S. Secretary of Commerce
on behalf of the United States of America. All rights reserved.
##CAS REGISTRY NO=6065-32-3
##MOLFORM=C 6 H 9 Br O 2
##$NIST SOURCE=MSDC-IR
##STATE=gas
##XUNITS=1/CM
##YUNITS=ABSORBANCE
##XFACTOR=1.
##YFACTOR=0.001
##DELTAX=1.92898
##FIRSTX=549.8
##LASTX=4000.7
##FIRSTY=1.351
##MAXX=4000.7
##MINX=549.759
##MAXY=0.095591
##MINY=0
##NPOINTS=1790
##XYDATA=(X++(Y..Y))
549.759 1.351 1.391 1.481 1.2484 1.247 1.1657 1.441 2.051 1.901 1.971
569.049 2.171 2.141 2.261 2.251 2.441 2.841 3.361 4.021 4.681 4.931
588.339 5.471 6.091 6.241 6.461 6.421 6.031 5.351 4.511 3.991 3.581
607.628 3.151 2.901 2.581 2.401 2.021 1.861 2.071 1.911 1.761 1.851
626.918 1.911 1.761 1.551 1.431 1.551 1.571 1.571 1.411 1.0649 1.2673
646.208 1.3173 1.2265 1.401 1.431 1.2838 1.1791 1.2979 1.2937 1.2414 1.361
665.498 1.371 1.581 1.761 1.621 1.571 1.551 1.731 1.901 1.861 1.941
684.787 2.001 2.091 2.201 2.301 2.541 2.831 2.971 3.051 3.391 3.711
704.077 3.841 3.971 4.291 4.741 4.781 4.771 4.891 4.971 5.171 5.331
723.367 5.391 5.331 5.081 4.821 4.631 4.521 4.201 3.691 3.351 3.191
742.657 3.031 2.711 2.531 2.461 2.281 2.041 1.831 1.801 2.051 2.031
761.947 1.911 1.831 1.661 1.621 1.761 1.771 1.691 1.611 1.631 1.861
781.236 1.861 1.721 1.751 1.821 1.821 1.851 1.921 1.841 1.931 1.931
800.526 1.671 1.611 1.801 1.871 1.921 2.101 2.051 1.891 2.051 2.041
819.816 1.851 1.681 1.591 1.831 1.971 2.051 2.141 2.221 2.421 2.611
839.106 2.621 2.671 2.921 3.181 3.311 3.351 3.311 3.351 3.521 3.671
858.395 4.011 4.371 4.261 4.111 4.041 4.091 4.211 3.951 3.611 3.511
877.685 3.391 3.251 3.281 3.351 3.301 3.111 2.961 2.881 2.911 2.761
896.975 2.661 2.651 2.521 2.731 2.661 2.431 2.561 2.531 2.441 2.291
916.265 2.251 2.501 2.561 2.581 2.781 2.881 2.911 3.071 3.481 3.831
935.555 3.951 4.291 4.661 5.101 5.471 5.771 6.291 6.821 7.751 8.641
954.844 9.401 10.391 11.461 12.651 13.621 14.461 15.381 15.961 16.161 16.151
974.134 15.851 15.081 14.091 12.981 11.691 10.421 9.321 8.181 7.131 6.421
993.424 5.881 5.671 5.381 5.071 5.281 5.621 5.731 5.711 5.801 6.461
1012.714 7.241 7.811 8.601 9.421 10.601 12.101 13.581 15.271 16.881 18.571
1032.003 20.491 22.331 23.951 25.481 26.611 27.341 27.621 27.251 26.561 25.381
1051.293 23.931 22.521 20.851 19.351 18.271 17.371 16.551 15.461 14.121 12.681
1070.583 11.501 10.461 9.611 8.911 8.211 8.271 9.071 9.151 8.911 9.451
1089.873 9.951 10.741 11.601 12.051 12.321 12.101 11.911 11.671 11.241 11.371
1109.163 11.791 12.141 11.941 12.051 13.091 14.391 15.981 17.761 20.761 23.831
1128.452 25.881 27.771 28.401 28.061 27.461 26.321 24.541 22.631 21.631 20.831
1147.742 20.371 20.721 21.271 21.941 23.291 25.481 27.801 30.561 34.061 37.891
1167.032 42.141 46.561 50.671 55.441 60.451 65.311 70.221 74.681 78.821 81.761
1186.322 83.231 83.271 80.681 76.081 70.071 63.011 55.821 49.631 45.291 41.991
1205.611 39.731 38.011 36.401 35.061 32.991 30.781 28.951 26.861 25.401 24.421
1224.901 23.381 22.791 22.641 22.921 23.711 24.891 26.101 27.541 29.111 31.031
1244.191 33.391 35.861 39.141 42.961 47.341 52.351 56.911 60.991 64.321 66.241
1263.481 66.511 65.001 61.911 58.211 54.181 50.091 46.741 44.051 42.081 41.041
1282.771 40.871 41.241 41.841 42.351 42.521 42.671 42.781 42.601 42.271 42.631
1302.060 44.461 47.521 51.321 55.171 58.131 59.541 58.681 55.541 50.531 43.941
1321.350 36.621 29.621 23.991 19.711 16.541 14.301 12.431 11.001 9.931 8.951
1340.640 8.281 7.771 7.311 6.931 6.611 6.421 6.351 6.451 6.721 7.241
1359.930 8.141 9.531 11.381 13.371 14.851 15.401 15.341 14.961 13.781 11.631
1379.219 9.441 7.891 6.971 6.491 6.131 5.901 5.851 5.901 5.931 5.821
1398.509 5.641 5.451 5.291 5.111 4.891 4.741 4.691 4.641 4.591 4.671
1417.799 4.781 4.861 4.981 5.091 5.151 5.211 5.341 5.471 5.531 5.621
1437.089 5.721 5.861 5.931 5.891 5.941 5.931 5.821 5.781 5.771 5.791
1456.378 5.851 5.771 5.721 5.881 6.111 6.271 6.361 6.381 6.361 6.191
1475.668 5.881 5.511 5.041 4.601 4.171 3.761 3.511 3.281 3.021 2.781
1494.958 2.601 2.451 2.291 2.181 2.081 2.041 2.031 1.961 1.911 1.791
1514.248 1.701 1.681 1.691 1.731 1.691 1.671 1.691 1.721 1.691 1.641
1533.538 1.631 1.611 1.621 1.681 1.641 1.571 1.601 1.551 1.611 1.691
1552.827 1.631 1.591 1.561 1.571 1.591 1.521 1.451 1.511 1.541 1.481
1572.117 1.471 1.551 1.551 1.541 1.541 1.531 1.551 1.471 1.481 1.531
1591.407 1.571 1.621 1.611 1.631 1.741 1.661 1.621 1.791 1.791 1.751
1610.697 1.851 2.001 2.111 2.181 2.231 2.341 2.591 2.761 2.921 3.181
1629.986 3.511 3.901 4.401 5.031 5.651 6.411 7.311 8.401 9.651 10.991
1649.276 12.431 13.731 14.771 15.291 15.371 14.891 13.801 12.311 10.701 9.271
1668.566 8.171 7.311 6.611 6.081 5.621 5.291 5.111 5.051 5.071 5.151
1687.856 5.271 5.371 5.501 5.851 6.291 6.651 7.091 7.591 8.041 8.671
1707.146 9.421 10.251 11.291 12.611 14.181 16.101 18.651 21.781 25.711 30.471
1726.435 36.011 42.491 49.971 58.191 67.441 76.881 85.141 91.591 95.021 95.591
1745.725 93.751 89.001 80.881 70.491 60.191 51.001 42.741 35.601 29.311 23.911
1765.015 19.501 16.021 13.261 11.291 9.721 8.461 7.551 6.851 6.281 5.791
1784.305 5.331 4.881 4.491 4.241 4.051 3.801 3.501 3.301 3.121 2.941
1803.594 2.821 2.691 2.631 2.611 2.521 2.361 2.301 2.231 2.121 2.061
1822.884 1.971 1.831 1.721 1.651 1.591 1.531 1.511 1.501 1.431 1.411
1842.174 1.461 1.461 1.401 1.361 1.331 1.341 1.341 1.361 1.331 1.3117
1861.464 1.351 1.341 1.361 1.371 1.341 1.306 1.331 1.361 1.381 1.351
1880.754 1.3096 1.305 1.3187 1.351 1.351 1.381 1.371 1.3044 1.361 1.401
1900.043 1.411 1.411 1.341 1.3114 1.3075 1.3112 1.341 1.3078 1.2487 1.2131
1919.333 1.1562 1.177 1.1964 1.1489 1.1402 1.1618 1.1068 1.0408 1.0321 0.97
1938.623 0.9435 0.9509 0.9172 0.8639 0.868 0.8017 0.6961 0.7542 0.8025 0.739
1957.913 0.7459 0.7899 0.7429 0.717 0.708 0.7164 0.7136 0.7082 0.7625 0.7671
1977.202 0.7282 0.689 0.7063 0.7673 0.7855 0.8286 0.8002 0.7667 0.8385 0.8062
1996.492 0.8388 0.9133 0.8244 0.7856 0.8197 0.8075 0.8171 0.8181 0.7875 0.8224
2015.782 0.7813 0.6829 0.7099 0.7972 0.8417 0.8378 0.8276 0.8491 0.8678 0.8935
2035.072 0.8628 0.8256 0.8269 0.8416 0.8792 0.8977 0.9682 0.9655 0.9589 0.9831
2054.362 0.945 0.9441 0.9441 0.9803 0.9209 0.8032 0.8714 0.9564 0.9332 0.8805
2073.651 0.8355 0.8469 0.8576 0.8374 0.8771 0.8534 0.8189 0.8351 0.8608 0.8894
2092.941 0.8911 0.8615 0.8414 0.8256 0.783 0.7569 0.7541 0.7842 0.8029 0.8163
2112.231 0.8473 0.795 0.7632 0.8361 0.8772 0.8472 0.809 0.7802 0.7924 0.8517
2131.521 0.8262 0.8314 0.8628 0.8265 0.8139 0.7924 0.8098 0.8329 0.8172 0.838
2150.810 0.8254 0.7468 0.7244 0.7138 0.6686 0.6456 0.6466 0.6971 0.6849 0.6533
2170.100 0.6279 0.6568 0.7009 0.6815 0.6573 0.6439 0.606 0.6056 0.6754 0.654
2189.390 0.5453 0.5045 0.5384 0.5529 0.5715 0.5605 0.5568 0.5754 0.5536 0.5026
2208.680 0.5457 0.6191 0.6182 0.6149 0.5903 0.5869 0.6693 0.693 0.6176 0.6149
2227.970 0.6593 0.667 0.6815 0.7052 0.6624 0.5711 0.5736 0.6189 0.6379 0.6946
2247.259 0.7118 0.6738 0.6199 0.6031 0.69 0.6843 0.6672 0.7825 0.761 0.6658
2266.549 0.6978 0.6746 0.6205 0.6574 0.7321 0.738 0.7029 0.6808 0.5981 0.5952
2285.839 0.6785 0.7474 0.737 0.6325 0.5766 0.5404 0.5379 0.6136 0.6388 0.6274
2305.129 0.6512 0.6562 0.6101 0.6342 0.6529 0.6442 0.6028 0.5651 0.5928 0.6598
2324.418 0.6764 0.6543 0.731 0.6484 0.5969 0.6965 0.7146 0.6677 0.6334 0.6055
2343.708 0.675 0.7655 0.779 0.7422 0.7237 0.7432 0.7283 0.7581 0.6612 0.6317
2362.998 0.7596 0.7806 0.7474 0.7432 0.6689 0.6369 0.7018 0.6931 0.6114 0.5756
2382.288 0.5492 0.5327 0.5902 0.645 0.6369 0.6469 0.6393 0.5928 0.5777 0.6214
2401.578 0.7055 0.6863 0.6476 0.6225 0.6549 0.6151 0.5405 0.6001 0.6577 0.6952
2420.867 0.625 0.5745 0.5538 0.4955 0.5332 0.5347 0.5488 0.5841 0.4563 0.4374
2440.157 0.5178 0.4911 0.472 0.4948 0.4331 0.35948 0.4298 0.4771 0.5223 0.5101
2459.447 0.453 0.4507 0.4825 0.5513 0.5595 0.5889 0.5938 0.5314 0.5458 0.5843
2478.737 0.5812 0.559 0.5311 0.44 0.41644 0.4979 0.5107 0.5278 0.5478 0.566
2498.026 0.5753 0.4819 0.34529 0.38999 0.41324 0.41471 0.5303 0.5196 0.4754 0.4307
2517.316 0.4687 0.4409 0.40363 0.41482 0.37411 0.4578 0.5005 0.4748 0.4429 0.4287
2536.606 0.39904 0.3393 0.34439 0.38304 0.37561 0.34803 0.33553 0.325248 0.34047 0.35796
2555.896 0.4034 0.4589 0.491 0.4501 0.40332 0.4506 0.4873 0.4015 0.39392 0.41853
2575.186 0.38097 0.36619 0.39047 0.39641 0.321048 0.31308 0.34559 0.428 0.39639 0.37532
2594.475 0.34897 0.323077 0.4312 0.40118 0.3513 0.4406 0.5631 0.5668 0.4618 0.40593
2613.765 0.34925 0.33555 0.427 0.4553 0.452 0.4361 0.4231 0.40655 0.41531 0.4315
2633.055 0.38288 0.41187 0.41686 0.36989 0.445 0.4562 0.451 0.4963 0.487 0.4673
2652.345 0.492 0.5376 0.4818 0.4461 0.37323 0.33357 0.39858 0.40047 0.4426 0.4523
2671.634 0.4277 0.40149 0.35015 0.305 0.35083 0.3608 0.39064 0.4764 0.444 0.36183
2690.924 0.2719 0.2929 0.35849 0.4613 0.481 0.435 0.41638 0.326316 0.2973 0.41646
2710.214 0.4628 0.39128 0.34736 0.35385 0.40618 0.44 0.4932 0.5383 0.6248 0.6519
2729.504 0.5626 0.5517 0.5557 0.5868 0.6082 0.512 0.4478 0.5169 0.613 0.6541
2748.794 0.579 0.4711 0.5267 0.5034 0.5734 0.6522 0.5559 0.5569 0.6191 0.6675
2768.083 0.5848 0.5585 0.61 0.5801 0.5803 0.6095 0.6783 0.746 0.6802 0.6433
2787.373 0.6362 0.629 0.6356 0.673 0.6906 0.5918 0.6268 0.7507 0.7647 0.7541
2806.663 0.7309 0.6815 0.6515 0.6495 0.7186 0.7768 0.7726 0.8046 0.8185 0.871
2825.953 0.9715 0.9653 0.9585 1.07 1.0748 1.0797 1.1782 1.1515 1.1379 1.2471
2845.242 1.2807 1.276 1.2605 1.361 1.501 1.481 1.541 1.701 1.731 1.701
2864.532 1.851 1.951 2.021 2.231 2.321 2.451 2.711 2.951 3.081 3.211
2883.822 3.371 3.471 3.621 3.761 3.741 3.731 3.821 3.961 4.141 4.231
2903.112 4.251 4.431 4.591 4.711 5.001 5.191 5.281 5.331 5.321 5.301
2922.401 5.331 5.401 5.521 5.631 5.851 6.241 6.761 7.501 8.211 8.971
2941.691 9.701 10.081 10.331 10.511 10.361 9.971 9.701 9.581 9.571 9.791
2960.981 10.091 10.391 10.931 11.531 12.011 12.641 13.481 14.391 15.511 16.761
2980.271 18.121 19.521 20.431 20.681 20.401 19.551 18.251 16.621 14.981 13.491
2999.561 12.341 11.461 10.761 10.051 9.271 8.651 8.091 7.461 6.791 6.221
3018.850 5.651 5.101 4.761 4.421 3.981 3.641 3.391 3.181 3.001 2.821
3038.140 2.551 2.401 2.361 2.361 2.311 2.191 2.141 2.091 2.061 2.101
3057.430 2.071 1.981 1.901 1.771 1.711 1.631 1.541 1.431 1.351 1.381
3076.720 1.411 1.2016 1.1198 1.1673 1.1178 1.0426 0.9273 0.8337 0.8475 0.972
3096.009 0.837 0.7168 0.853 0.9226 0.7623 0.61 0.5765 0.6421 0.7577 0.6317
3115.299 0.5249 0.6266 0.6213 0.5813 0.5884 0.6022 0.5255 0.499 0.5315 0.5158
3134.589 0.5968 0.5605 0.4348 0.5502 0.6418 0.5451 0.4874 0.4819 0.36854 0.41644
3153.879 0.6479 0.718 0.642 0.5612 0.4899 0.4264 0.4604 0.5279 0.425 0.4271
3173.169 0.5753 0.5125 0.4222 0.4332 0.37845 0.2801 0.4262 0.5387 0.41855 0.327073
3192.458 0.39017 0.4415 0.40505 0.35038 0.2452 0.37331 0.4416 0.4666 0.5336 0.36508
3211.748 0.2532 0.2892 0.38343 0.37686 0.166 0.059 0.079 0.167 0.309 0.37856
3231.038 0.4369 0.4209 0.39112 0.38291 0.2305 0.177 0.2736 0.39592 0.34229 0.2489
3250.328 0.2797 0.3054 0.2712 0.301 0.324461 0.2479 0.33811 0.323102 0.33528 0.4561
3269.617 0.37975 0.19 0.2655 0.2899 0.057 0.133 0.2453 0.219 0.2566 0.2863
3288.907 0.263 0.244 0.2524 0.159 0.157 0.2382 0.3107 0.323273 0.2526 0.175
3308.197 0.326619 0.4671 0.3086 0.2965 0.2752 0.33281 0.36363 0.158 0.159 0.128
3327.487 0.161 0.2313 0.256 0.2492 0.2679 0.35153 0.40804 0.4363 0.37083 0.322681
3346.777 0.31344 0.39967 0.36576 0.178 0.196 0.33919 0.2629 0.128 0.162 0.3109
3366.066 0.38577 0.38595 0.37905 0.37584 0.36838 0.37609 0.323544 0.32187 0.36626 0.2722
3385.356 0.248 0.4647 0.6084 0.6007 0.5625 0.4362 0.40822 0.33317 0.2745 0.35692
3404.646 0.327056 0.323148 0.2298 0.2434 0.36295 0.205 0.2228 0.36178 0.3017 0.2339
3423.936 0.329824 0.38867 0.4601 0.6236 0.5075 0.486 0.6317 0.5555 0.5136 0.4592
3443.225 0.4767 0.5771 0.5566 0.6311 0.7523 0.8546 0.904 0.9481 1.1012 1.2177
3462.515 1.2106 1.2052 1.0675 0.9893 1.1755 1.1414 1.2127 1.2114 0.9784 0.8308
3481.805 0.8332 0.8832 0.7237 0.5887 0.546 0.5767 0.6397 0.5662 0.4769 0.40312
3501.095 0.2773 0.37715 0.4405 0.37529 0.35919 0.39883 0.3787 0.3109 0.41921 0.38803
3520.385 0.2996 0.4361 0.4602 0.41411 0.40882 0.38541 0.39864 0.3058 0.2279 0.2411
3539.674 0.2327 0.3014 0.36771 0.3043 0.324773 0.36266 0.4637 0.40256 0.2578 0.2872
3558.964 0.2382 0.2484 0.35122 0.4377 0.2777 0.2386 0.34412 0.35934 0.5095 0.5676
3578.254 0.39127 0.202 0.195 0.38331 0.38319 0.39745 0.4651 0.2682 0.152 0.185
3597.544 0.325793 0.3707 0.34379 0.38249 0.35483 0.4923 0.34324 0.12 0.2766 0.2953
3616.833 0.2451 0.2336 0.2404 0.177 0.158 0.2977 0.208 0.095 0.201 0.174
3636.123 0.21 0.35671 0.34752 0.117 0.112 0.2286 0.113 0.2415 0.39339 0.36112
3655.413 0.37887 0.325531 0.073 0.049 0.243 0.31634 0.37824 0.212 0.2489 0.14
3674.703 0 0.207 0.38275 0.4658 0.4378 0.39665 0.327262 0.34861 0.4716 0.41482
3693.993 0.2774 0.192 0.121 0.195 0.193 0.202 0.197 0.185 0.037 0.142
3713.282 0.3651 0.169 0.175 0.2521 0.153 0.197 0.33715 0.38179 0.3782 0.32839
3732.572 0.197 0.2861 0.34731 0.129 0.171 0.37497 0.39913 0.2306 0.122 0.34166
3751.862 0.256 0.098 0.2479 0.37153 0.4399 0.3034 0.096 0.077 0.2277 0.38644
3771.152 0.38973 0.4435 0.5876 0.4828 0.2381 0.255 0.37267 0.3121 0.2439 0.36914
3790.441 0.4926 0.41385 0.38079 0.40716 0.34306 0.2602 0.2533 0.2721 0.2484 0.39402
3809.731 0.521 0.33162 0.178 0.2583 0.4256 0.41257 0.3728 0.37869 0.3085 0.34493
3829.021 0.4267 0.2897 0.2291 0.2586 0.192 0.2974 0.34127 0.5138 0.5177 0.2485
3848.311 0.101 0.154 0.35756 0.4515 0.5052 0.2613 0.024 0.137 0.189 0.159
3867.601 0.186 0.2452 0.31868 0.326121 0.2804 0.156 0.163 0.35115 0.31968 0.2491
3886.890 0.164 0.114 0.116 0.167 0.34388 0.38916 0.40906 0.4472 0.37162 0.2848
3906.180 0.2518 0.175 0.067 0.056 0.33454 0.5846 0.4547 0.366 0.432 0.38364
3925.470 0.41802 0.38421 0.219 0.207 0.22 0.165 0.157 0.2352 0.2792 0.2535
3944.760 0.085 0.047 0.2848 0.3541 0.31534 0.2515 0.2473 0.2889 0.2929 0.33818
3964.049 0.2345 0.36733 0.36146 0.206 0.2639 0.2682 0.39617 0.4642 0.38005 0.37749
3983.339 0.37817 0.215 0.31761 0.5931 0.6039 0.4827 0.33537 0.4243 0.5738 0.5802
##END=
