##TITLE=2-Methyl-5-octyn-4-ol
##JCAMP-DX=4.24
##DATA TYPE=INFRARED SPECTRUM
##ORIGIN=EPA-IR VAPOR PHASE LIBRARY
##OWNER=SRD/NIST
Collection (C) 2018 copyright by the U.S. Secretary of Commerce
on behalf of the United States of America. All rights reserved.
##CAS REGISTRY NO=60657-70-7
##MOLFORM=C 9 H 16 O
##$NIST SOURCE=MSDC-IR
##STATE=gas
##XUNITS=1/CM
##YUNITS=ABSORBANCE
##XFACTOR=1.
##YFACTOR=0.001
##DELTAX=1.92934
##FIRSTX=549.9
##LASTX=3999.5
##FIRSTY=4.203
##MAXX=3999.53
##MINX=549.863
##MAXY=0.097393
##MINY=0
##NPOINTS=1789
##XYDATA=(X++(Y..Y))
549.863 4.203 4.273 4.123 3.673 3.553 3.523 3.453 3.253 2.873 2.623
569.156 2.523 2.363 2.253 2.173 2.163 2.293 2.203 2.113 2.153 2.003
588.450 1.893 1.843 1.783 1.793 1.813 1.823 1.693 1.743 1.833 1.843
607.743 1.863 1.863 1.833 1.853 1.843 1.813 1.873 1.843 1.873 2.003
627.037 2.103 2.163 2.123 2.123 2.183 2.213 2.223 2.163 2.113 2.063
646.330 2.043 2.063 2.053 2.023 1.943 1.923 1.913 1.893 1.833 1.783
665.624 1.773 1.753 1.823 1.833 1.753 1.743 1.773 1.773 1.773 1.823
684.917 1.803 1.813 1.863 1.853 1.893 1.993 2.033 2.083 2.183 2.303
704.210 2.323 2.333 2.433 2.483 2.513 2.593 2.623 2.603 2.513 2.463
723.504 2.453 2.373 2.333 2.293 2.273 2.263 2.313 2.333 2.363 2.493
742.797 2.613 2.683 2.853 3.003 3.063 3.223 3.353 3.393 3.403 3.433
762.091 3.383 3.233 3.093 2.893 2.723 2.603 2.443 2.323 2.223 2.133
781.384 2.033 2.003 2.003 1.993 1.943 1.823 1.833 1.923 1.953 1.973
800.678 2.013 2.113 2.183 2.243 2.333 2.443 2.633 2.783 2.943 3.123
819.971 3.263 3.363 3.463 3.553 3.653 3.783 3.943 4.023 4.013 4.063
839.264 4.033 3.903 3.743 3.573 3.423 3.213 2.973 2.813 2.693 2.533
858.558 2.423 2.413 2.423 2.453 2.463 2.503 2.553 2.643 2.663 2.773
877.851 2.953 2.963 2.953 2.973 2.913 2.883 2.823 2.733 2.653 2.613
897.145 2.583 2.573 2.663 2.663 2.703 2.803 2.903 3.083 3.293 3.623
916.438 3.913 4.253 4.603 4.933 5.343 5.763 6.153 6.583 7.103 7.623
935.732 8.043 8.473 8.863 9.103 9.353 9.493 9.533 9.523 9.413 9.293
955.025 9.173 9.063 8.943 8.973 9.123 9.333 9.623 10.013 10.523 11.193
974.318 11.913 12.643 13.513 14.393 15.263 16.163 17.013 17.753 18.483 19.093
993.612 19.553 19.943 20.233 20.503 20.673 20.823 21.083 21.393 21.713 22.213
1012.905 22.933 23.783 24.733 25.713 26.673 27.593 28.323 28.833 29.193 29.273
1032.199 29.073 28.673 28.063 27.283 26.413 25.493 24.453 23.363 22.263 21.073
1051.492 19.853 18.653 17.483 16.333 15.113 14.023 13.013 12.043 11.153 10.263
1070.786 9.453 8.813 8.333 7.933 7.563 7.173 6.963 6.873 6.773 6.743
1090.079 6.773 6.933 7.083 7.243 7.433 7.673 8.103 8.463 8.703 8.973
1109.372 9.213 9.393 9.493 9.473 9.343 9.203 9.003 8.823 8.673 8.483
1128.666 8.463 8.593 8.713 8.973 9.393 9.883 10.433 11.113 11.793 12.203
1147.959 12.543 12.763 12.813 12.843 12.693 12.433 12.173 11.893 11.613 11.313
1167.253 10.993 10.463 9.843 9.303 8.743 8.273 7.773 7.133 6.643 6.293
1186.546 6.103 6.053 6.043 5.983 5.983 6.063 6.043 6.133 6.423 6.683
1205.840 6.923 7.123 7.303 7.493 8.093 8.393 8.253 8.403 8.633 9.043
1225.133 9.263 9.143 9.123 9.183 9.283 9.283 9.093 9.013 8.913 8.743
1244.426 8.683 8.473 8.333 8.413 8.393 8.333 8.363 8.333 8.343 8.393
1263.720 8.443 8.463 8.553 8.623 8.583 8.613 8.593 8.643 8.743 8.823
1283.013 8.803 8.813 8.923 8.983 9.023 9.183 9.503 9.883 10.303 10.923
1302.307 11.813 12.943 14.393 16.263 18.543 21.213 23.873 26.043 27.503 28.243
1321.600 28.483 28.243 27.413 25.973 24.023 22.073 20.613 19.693 19.233 19.123
1340.894 19.203 19.453 19.853 20.373 21.023 21.733 22.503 23.273 24.073 24.933
1360.187 25.783 26.543 27.233 27.853 28.303 28.583 28.663 28.463 27.903 27.183
1379.480 26.443 25.653 24.713 23.623 22.453 21.243 19.883 18.503 17.183 15.843
1398.774 14.453 13.113 12.013 11.083 10.233 9.543 9.043 8.593 8.183 7.913
1418.067 7.763 7.633 7.573 7.553 7.623 7.803 8.013 8.263 8.533 8.753
1437.361 8.963 9.193 9.473 9.703 9.943 10.223 10.503 10.823 11.163 11.553
1456.654 12.013 12.483 12.873 13.213 13.523 13.763 13.783 13.573 13.093 12.363
1475.948 11.583 10.693 9.633 8.573 7.623 6.753 5.993 5.383 4.833 4.363
1495.241 3.953 3.573 3.323 3.113 2.873 2.653 2.463 2.293 2.173 2.043
1514.534 1.903 1.863 1.743 1.6031 1.5652 1.5338 1.515 1.4289 1.3536 1.3446
1533.828 1.294 1.2206 1.1875 1.1841 1.1252 1.0684 1.0641 1.0461 1.0326 1.0238
1553.121 1.0246 1.0014 0.9704 0.9451 0.8996 0.879 0.889 0.8871 0.82 0.809
1572.415 0.8503 0.8456 0.8754 0.8467 0.8571 0.8772 0.8116 0.813 0.8259 0.8095
1591.708 0.7774 0.77017 0.7921 0.7748 0.74425 0.75253 0.71468 0.7077 0.73397 0.69939
1611.002 0.66406 0.661 0.6547 0.6406 0.6346 0.6395 0.6367 0.6101 0.5748 0.5738
1630.295 0.5738 0.561 0.566 0.531 0.524 0.524 0.501 0.526 0.5935 0.529
1649.588 0.474 0.522 0.573 0.6148 0.5964 0.56 0.545 0.506 0.492 0.54
1668.882 0.548 0.525 0.493 0.498 0.544 0.508 0.522 0.552 0.519 0.514
1688.175 0.533 0.524 0.519 0.517 0.461 0.42 0.428 0.417 0.39 0.361
1707.469 0.358 0.355 0.298 0.3 0.346 0.308 0.275 0.311 0.263 0.208
1726.762 0.211 0.247 0.307 0.274 0.219 0.234 0.216 0.167 0.163 0.191
1746.056 0.208 0.186 0.196 0.213 0.176 0.166 0.207 0.222 0.195 0.153
1765.349 0.165 0.208 0.183 0.17 0.15 0.124 0.12 0.15 0.164 0.145
1784.642 0.172 0.207 0.2 0.204 0.214 0.165 0.139 0.177 0.151 0.136
1803.936 0.181 0.18 0.185 0.181 0.164 0.154 0.166 0.18 0.184 0.165
1823.229 0.139 0.155 0.159 0.187 0.19 0.143 0.146 0.164 0.14 0.146
1842.523 0.208 0.24 0.196 0.181 0.193 0.181 0.206 0.249 0.261 0.239
1861.816 0.274 0.283 0.246 0.294 0.347 0.361 0.346 0.311 0.284 0.289
1881.110 0.314 0.278 0.263 0.23 0.182 0.202 0.196 0.198 0.215 0.209
1900.403 0.18 0.174 0.214 0.179 0.131 0.165 0.159 0.145 0.157 0.151
1919.696 0.148 0.138 0.122 0.136 0.194 0.207 0.16 0.122 0.151 0.176
1938.990 0.142 0.103 0.095 0.149 0.168 0.12 0.076 0.115 0.147 0.162
1958.283 0.163 0.12 0.14 0.131 0.121 0.166 0.189 0.185 0.151 0.16
1977.577 0.169 0.172 0.188 0.163 0.176 0.203 0.221 0.217 0.211 0.218
1996.870 0.221 0.26 0.252 0.215 0.244 0.308 0.277 0.223 0.232 0.286
2016.164 0.337 0.279 0.242 0.247 0.268 0.264 0.23 0.247 0.244 0.253
2035.457 0.29 0.287 0.29 0.296 0.282 0.255 0.234 0.195 0.166 0.154
2054.750 0.152 0.151 0.119 0.085 0.068 0.069 0.056 0.05 0.056 0.034
2074.044 0.008 0 0.024 0.05 0.023 0.025 0.056 0.049 0.026 0.008
2093.337 0.02 0.022 0.035 0.053 0.043 0.047 0.041 0.023 0.037 0.043
2112.631 0.025 0.036 0.042 0.03 0.053 0.052 0.032 0.051 0.038 0.033
2131.924 0.057 0.07 0.059 0.052 0.065 0.066 0.08 0.11 0.131 0.149
2151.218 0.138 0.142 0.197 0.233 0.268 0.269 0.259 0.317 0.343 0.348
2170.511 0.396 0.421 0.436 0.475 0.526 0.571 0.6336 0.681446 0.71611 0.7979
2189.804 0.8739 0.9126 1.0196 1.1605 1.2603 1.3723 1.5085 1.6279 1.743 1.863
2209.098 1.983 2.103 2.213 2.333 2.443 2.543 2.623 2.693 2.723 2.693
2228.391 2.713 2.723 2.653 2.573 2.463 2.353 2.243 2.143 2.043 1.933
2247.685 1.813 1.743 1.703 1.6385 1.5894 1.5653 1.5347 1.4601 1.3883 1.3427
2266.978 1.339 1.3271 1.2775 1.2161 1.1461 1.0729 1.0305 0.9964 0.9508 0.9224
2286.272 0.8604 0.8097 0.75795 0.72082 0.71417 0.67068 0.6394 0.6094 0.578 0.5973
2305.565 0.5744 0.517 0.514 0.51 0.473 0.436 0.41 0.389 0.344 0.321
2324.858 0.33 0.284 0.264 0.333 0.357 0.293 0.274 0.284 0.27 0.285
2344.152 0.298 0.27 0.259 0.288 0.266 0.235 0.269 0.263 0.246 0.264
2363.445 0.289 0.308 0.323 0.332 0.315 0.292 0.293 0.273 0.284 0.321
2382.739 0.273 0.287 0.341 0.316 0.298 0.327 0.349 0.353 0.349 0.333
2402.032 0.326 0.344 0.33 0.308 0.313 0.33 0.324 0.293 0.333 0.37
2421.326 0.377 0.399 0.403 0.37 0.367 0.387 0.387 0.41 0.431 0.404
2440.619 0.422 0.458 0.427 0.404 0.384 0.372 0.373 0.35 0.33 0.338
2459.912 0.321 0.317 0.352 0.341 0.334 0.347 0.34 0.302 0.316 0.351
2479.206 0.345 0.375 0.401 0.364 0.314 0.309 0.336 0.362 0.397 0.397
2498.499 0.398 0.392 0.39 0.439 0.451 0.42 0.415 0.405 0.358 0.366
2517.793 0.409 0.42 0.399 0.387 0.412 0.415 0.362 0.365 0.449 0.459
2537.086 0.417 0.422 0.435 0.449 0.47 0.478 0.483 0.454 0.455 0.486
2556.380 0.502 0.466 0.483 0.56 0.565 0.568 0.554 0.5767 0.6088 0.6005
2575.673 0.6157 0.6692 0.6625 0.6381 0.6433 0.6461 0.6575 0.6604 0.6599 0.6614
2594.966 0.678758 0.70233 0.71965 0.69383 0.70644 0.7671 0.8246 0.8306 0.8372 0.86
2614.260 0.8905 0.9597 0.9645 0.9853 1.0586 1.1325 1.1355 1.1125 1.1179 1.1088
2633.553 1.075 1.0297 0.9853 0.8688 0.8052 0.8203 0.8305 0.7877 0.7745 0.76857
2652.847 0.6977 0.69538 0.71169 0.69119 0.71064 0.7273 0.70913 0.74256 0.73592 0.6524
2672.140 0.6457 0.67073 0.68376 0.69964 0.6613 0.70666 0.73372 0.76808 0.7996 0.75149
2691.434 0.7857 0.799 0.8509 0.8909 0.9294 1.0111 1.0386 1.0114 1.0045 1.1031
2710.727 1.1634 1.1956 1.2506 1.3259 1.4129 1.5137 1.5984 1.6661 1.723 1.793
2730.020 1.893 1.873 1.893 1.943 1.923 1.953 2.013 1.963 1.973 2.023
2749.314 1.953 1.893 1.833 1.863 1.873 1.853 1.903 1.923 1.983 2.083
2768.607 2.103 2.063 2.023 2.063 2.143 2.123 2.093 2.093 2.093 2.163
2787.901 2.203 2.253 2.323 2.373 2.473 2.523 2.563 2.703 2.813 2.913
2807.194 3.053 3.143 3.243 3.343 3.443 3.703 3.913 4.003 4.193 4.483
2826.488 4.773 4.983 5.283 5.623 6.003 6.443 6.933 7.463 8.143 8.843
2845.781 9.443 10.223 11.063 11.913 12.913 14.063 15.243 16.533 17.973 19.403
2865.074 21.003 22.953 25.003 27.153 29.413 31.463 33.333 35.173 36.703 37.833
2884.368 38.683 39.183 39.363 39.253 39.113 39.083 39.063 39.123 39.433 40.073
2903.661 40.823 41.803 43.073 44.503 46.073 47.753 49.463 51.233 53.163 55.233
2922.955 57.573 60.113 62.563 64.993 67.353 69.573 71.423 72.923 74.073 74.813
2942.248 75.363 75.613 75.673 75.773 76.503 78.093 80.423 83.563 87.353 91.553
2961.542 95.263 97.393 97.323 95.163 91.393 86.163 80.033 73.733 67.903 62.683
2980.835 57.763 53.283 49.373 45.553 41.643 37.453 32.513 27.723 23.983 20.933
3000.128 18.573 16.813 15.343 13.993 12.953 11.983 10.973 9.973 9.113 8.403
3019.422 7.583 6.893 6.253 5.743 5.313 4.833 4.463 4.093 3.803 3.623
3038.715 3.453 3.293 3.243 3.173 2.973 2.863 2.723 2.553 2.423 2.333
3058.009 2.363 2.353 2.393 2.373 2.163 2.163 2.283 2.153 2.093 2.143
3077.302 2.093 2.123 2.153 2.173 2.063 1.983 2.013 1.963 1.973 1.963
3096.596 1.793 1.793 1.953 1.963 1.923 1.833 1.793 1.833 1.823 1.773
3115.889 1.6456 1.693 1.803 1.723 1.5768 1.6002 1.6491 1.6582 1.5558 1.5623
3135.182 1.703 1.693 1.6311 1.5559 1.5725 1.5727 1.5696 1.5713 1.6154 1.621
3154.476 1.5704 1.4974 1.4507 1.4495 1.4234 1.4828 1.4947 1.5758 1.634 1.6449
3173.769 1.6696 1.6572 1.723 1.723 1.4598 1.343 1.443 1.4261 1.4673 1.4723
3193.063 1.4504 1.3767 1.3096 1.3326 1.1698 1.0721 1.1852 1.181 1.0213 1.0174
3212.356 1.0194 0.9767 0.9669 0.8258 0.8959 0.9845 0.9111 0.77189 0.615 0.5994
3231.650 0.55 0.5848 0.71953 0.70115 0.6278 0.69427 0.7953 0.69328 0.681583 0.69269
3250.943 0.6621 0.6139 0.487 0.401 0.49 0.5802 0.554 0.5983 0.544 0.569
3270.236 0.6488 0.516 0.356 0.376 0.38 0.362 0.492 0.571 0.515 0.513
3289.530 0.6287 0.6274 0.548 0.5983 0.6277 0.5906 0.504 0.5897 0.70757 0.70525
3308.823 0.70727 0.673819 0.75257 0.7824 0.5946 0.6009 0.70285 0.653 0.5939 0.74228
3328.117 0.9016 0.7788 0.69952 0.74468 0.7985 0.8154 0.70781 0.6567 0.76588 0.75526
3347.410 0.679681 0.6513 0.76277 0.7966 0.6098 0.6298 0.76394 0.68535 0.69385 0.69993
3366.704 0.6437 0.8184 0.8725 0.8867 0.8903 0.8126 0.8295 0.9252 0.99 0.9055
3385.997 0.8915 0.8467 0.7989 0.9092 0.863 0.8582 0.9272 0.8548 0.8607 0.8783
3405.290 0.8652 0.8126 0.8325 0.837 0.77268 0.73057 0.71614 0.68729 0.67235 0.71535
3424.584 0.73787 0.7601 0.75891 0.68891 0.6445 0.75899 0.8276 0.72603 0.7959 0.9471
3443.877 0.7969 0.63 0.66405 0.822 0.9622 0.8985 0.72575 0.6344 0.73017 0.7962
3463.171 0.7991 0.7981 0.8137 0.8049 0.827 0.8415 0.74692 0.67613 0.5972 0.5814
3482.464 0.71977 0.8106 0.8091 0.862 0.9123 0.9804 0.9717 0.8432 0.8292 0.9075
3501.758 0.8903 0.8937 0.9407 0.931 0.904 0.8722 0.815 0.76447 0.8826 0.9852
3521.051 0.9086 0.9328 0.8505 0.6231 0.677002 0.7775 0.6593 0.6074 0.71548 0.7139
3540.344 0.68546 0.6023 0.515 0.5969 0.5807 0.472 0.455 0.5998 0.66672 0.5763
3559.638 0.449 0.509 0.556 0.417 0.414 0.516 0.6186 0.68855 0.69369 0.66781
3578.931 0.6468 0.68865 0.6284 0.6055 0.6363 0.682526 0.678205 0.57 0.66487 0.75554
3598.225 0.69467 0.75136 0.8083 0.8499 0.8909 0.8137 0.8683 0.9973 1.0507 1.1113
3617.518 1.2227 1.4029 1.5976 1.883 2.323 2.723 3.233 4.133 5.073 6.133
3636.812 7.453 8.843 10.123 11.183 11.993 12.493 12.753 12.683 12.203 11.393
3656.105 10.133 8.643 7.173 5.833 4.803 3.953 3.193 2.543 2.113 1.763
3675.398 1.503 1.2869 1.0675 1.0348 1.0654 1.0296 0.9864 0.8573 0.75743 0.74401
3694.692 0.71361 0.73375 0.75225 0.6362 0.534 0.522 0.57 0.6108 0.5845 0.6205
3713.985 0.68524 0.6402 0.5854 0.6198 0.6428 0.6576 0.5997 0.538 0.569 0.527
3733.279 0.507 0.5742 0.5975 0.6633 0.6394 0.6152 0.67141 0.61 0.6414 0.7751
3752.572 0.66302 0.587 0.74084 0.76352 0.6624 0.5913 0.67057 0.74995 0.7881 0.8565
3771.866 0.9075 0.9168 0.9208 0.9253 0.9018 0.9383 0.8505 0.7301 0.7811 0.8586
3791.159 0.8094 0.8666 0.9247 0.7938 0.76592 0.72532 0.69383 0.8058 0.9133 0.8151
3810.452 0.75337 0.72889 0.71148 0.7803 0.7187 0.6336 0.5746 0.5822 0.6524 0.69695
3829.746 0.69593 0.6048 0.5895 0.6121 0.6138 0.66699 0.6088 0.674012 0.7606 0.66599
3849.039 0.6013 0.545 0.548 0.6312 0.682576 0.6124 0.559 0.6372 0.6568 0.6519
3868.333 0.679379 0.638 0.6411 0.6376 0.66504 0.69029 0.644 0.5796 0.6142 0.6371
3887.626 0.6628 0.68715 0.6345 0.6375 0.6348 0.6892 0.680517 0.5758 0.492 0.433
3906.920 0.484 0.543 0.504 0.476 0.472 0.525 0.5812 0.6103 0.555 0.503
3926.213 0.521 0.464 0.433 0.424 0.491 0.553 0.56 0.554 0.515 0.528
3945.506 0.483 0.496 0.547 0.49 0.458 0.487 0.464 0.411 0.341 0.326
3964.800 0.334 0.407 0.466 0.427 0.412 0.471 0.439 0.406 0.47 0.396
3984.093 0.43 0.48 0.343 0.32 0.447 0.476 0.421 0.46 0.6179
##END=
