##TITLE=Ethyldiethoxy acetate
##JCAMP-DX=4.24
##DATA TYPE=INFRARED SPECTRUM
##ORIGIN=EPA-IR VAPOR PHASE LIBRARY
##OWNER=SRD/NIST
Collection (C) 2018 copyright by the U.S. Secretary of Commerce
on behalf of the United States of America. All rights reserved.
##CAS REGISTRY NO=6065-82-3
##MOLFORM=C 8 H 16 O 4
##$NIST SOURCE=MSDC-IR
##STATE=gas
##XUNITS=1/CM
##YUNITS=ABSORBANCE
##XFACTOR=1.
##YFACTOR=0.001
##DELTAX=3.85796
##FIRSTX=501.5
##LASTX=4000.7
##FIRSTY=0.6621
##MAXX=4000.7
##MINX=501.534
##MAXY=0.237251
##MINY=0
##NPOINTS=908
##XYDATA=(X++(Y..Y))
501.534 0.6621 0.4249 0.4483 0.5263 0.497 0.54 0.5464 0.5737 0.6533 0.5964
540.114 0.5156 0.5414 0.5052 0.4744 0.6361 0.7944 0.8795 0.9634 1.1107 1.251
578.693 1.311 1.451 1.601 1.711 1.861 2.021 2.171 2.301 2.351 2.441
617.273 2.551 2.621 2.711 2.811 2.941 3.111 3.211 3.361 3.561 3.691
655.852 3.791 3.881 3.941 3.981 4.091 4.121 4.011 4.021 4.061 4.041
694.432 4.071 4.141 4.271 4.401 4.481 4.601 4.821 4.951 4.971 5.131
733.011 5.381 5.611 5.861 6.181 6.621 7.101 7.581 8.081 8.411 8.561
771.591 8.671 8.661 8.571 8.431 8.201 8.021 7.841 7.701 7.621 7.541
810.170 7.591 7.621 7.671 7.841 8.031 8.271 8.491 8.731 9.051 9.401
848.750 9.821 10.251 10.571 10.621 10.301 9.631 8.751 7.911 7.251 6.771
887.330 6.461 6.271 6.181 6.161 6.271 6.471 6.811 7.291 7.931 8.861
925.909 10.131 11.721 13.591 15.601 17.551 19.211 20.371 20.841 20.481 19.301
964.489 17.571 15.791 14.441 13.861 14.061 14.951 16.541 18.781 21.771 25.581
1003.068 30.111 35.541 41.981 49.291 57.261 65.481 73.561 80.961 86.681 90.301
1041.648 92.451 94.511 98.511 106.131 117.391 130.971 144.811 156.731 165.281 170.331
1080.227 172.691 173.781 175.021 176.831 179.361 182.971 188.901 198.411 211.531 225.681
1118.807 235.761 237.251 228.341 211.391 191.221 172.191 156.231 142.961 132.191 123.591
1157.387 116.651 111.171 106.761 103.071 99.961 97.161 94.531 92.211 90.451 89.141
1195.966 87.671 85.371 81.571 76.211 69.771 63.051 56.711 51.221 46.891 43.671
1234.546 41.461 40.141 39.671 39.991 41.111 43.111 45.891 49.431 53.441 57.211
1273.125 60.011 61.091 59.921 56.601 51.841 46.751 42.091 38.101 34.721 31.811
1311.705 29.321 27.451 26.491 26.521 27.291 28.181 28.391 27.341 25.211 22.751
1350.284 20.741 19.601 19.461 20.481 22.411 24.621 26.511 27.741 28.161 28.001
1388.864 27.541 26.781 25.641 24.051 22.081 19.971 17.911 16.071 14.541 13.461
1427.443 12.911 12.811 13.111 13.781 14.601 15.251 15.541 15.401 15.081 14.901
1466.023 14.821 14.691 14.371 13.721 12.781 11.501 10.001 8.581 7.351 6.331
1504.603 5.551 4.951 4.551 4.211 3.931 3.691 3.481 3.291 3.141 3.011
1543.182 2.851 2.731 2.621 2.511 2.411 2.351 2.301 2.251 2.221 2.211
1581.762 2.181 2.141 2.141 2.131 2.121 2.131 2.151 2.171 2.161 2.171
1620.341 2.181 2.211 2.251 2.271 2.301 2.361 2.401 2.471 2.551 2.651
1658.921 2.781 2.921 3.091 3.281 3.481 3.701 3.941 4.251 4.621 5.081
1697.500 5.661 6.421 7.341 8.421 9.771 11.461 13.641 16.491 20.391 25.931
1736.080 33.981 45.041 59.071 74.491 89.021 98.961 104.561 108.221 110.121 108.641
1774.659 101.331 88.181 71.381 54.541 40.581 29.881 22.171 16.731 12.961 10.341
1813.239 8.471 7.141 6.161 5.401 4.831 4.411 4.081 3.811 3.621 3.451
1851.819 3.321 3.221 3.171 3.141 3.121 3.131 3.141 3.171 3.171 3.161
1890.398 3.151 3.121 3.061 2.971 2.891 2.791 2.661 2.561 2.481 2.411
1928.978 2.361 2.301 2.251 2.191 2.151 2.141 2.121 2.081 2.061 2.021
1967.557 1.971 1.941 1.931 1.901 1.851 1.811 1.791 1.781 1.761 1.731
2006.137 1.691 1.671 1.671 1.641 1.621 1.621 1.621 1.631 1.651 1.681
2044.716 1.701 1.731 1.751 1.751 1.781 1.811 1.821 1.811 1.791 1.781
2083.296 1.791 1.801 1.801 1.781 1.761 1.731 1.731 1.741 1.741 1.771
2121.875 1.771 1.781 1.801 1.791 1.781 1.771 1.761 1.711 1.651 1.621
2160.455 1.571 1.541 1.521 1.481 1.441 1.431 1.421 1.411 1.411 1.411
2199.035 1.411 1.431 1.431 1.401 1.381 1.391 1.391 1.381 1.371 1.361
2237.614 1.341 1.311 1.311 1.291 1.291 1.311 1.311 1.301 1.291 1.251
2276.194 1.231 1.221 1.201 1.181 1.151 1.1102 1.0848 1.0832 1.06 1.0304
2314.773 1.0208 0.9971 0.9833 0.9853 0.9968 1.0026 0.9807 0.9886 0.98 0.9805
2353.353 0.9992 0.9813 0.9621 0.9557 0.9756 1.0079 1.0448 1.07 1.0774 1.108
2391.932 1.131 1.141 1.161 1.181 1.151 1.0991 1.0735 1.0691 1.0558 1.0043
2430.512 0.9665 0.944 0.9069 0.8867 0.8425 0.7909 0.7923 0.7818 0.7623 0.7705
2469.092 0.7742 0.7664 0.7538 0.7254 0.7035 0.7022 0.6837 0.6594 0.6513 0.6457
2507.671 0.6306 0.6247 0.6186 0.6114 0.6152 0.5951 0.6002 0.623 0.633 0.6537
2546.251 0.6733 0.6817 0.6656 0.6746 0.6911 0.6813 0.7006 0.7445 0.7605 0.7612
2584.830 0.7925 0.8442 0.9065 0.9489 0.9948 1.0736 1.131 1.191 1.261 1.301
2623.410 1.321 1.351 1.381 1.401 1.421 1.411 1.411 1.381 1.351 1.371
2661.989 1.401 1.411 1.431 1.481 1.511 1.531 1.571 1.621 1.671 1.751
2700.569 1.811 1.901 2.031 2.161 2.321 2.521 2.731 2.911 3.081 3.221
2739.148 3.381 3.541 3.671 3.841 4.031 4.221 4.411 4.611 4.841 5.091
2777.728 5.291 5.461 5.661 5.871 6.101 6.331 6.511 6.731 6.971 7.281
2816.308 7.671 8.131 8.661 9.191 9.861 10.681 11.671 12.951 14.531 16.441
2854.887 18.751 21.561 24.841 28.651 33.081 37.811 42.231 45.521 47.201 47.441
2893.467 46.921 46.561 47.001 48.191 49.581 50.701 51.391 51.991 53.241 55.881
2932.046 60.081 64.821 68.081 68.261 65.101 59.831 54.701 52.031 52.981 57.501
2970.626 65.591 77.011 90.131 100.891 104.011 97.291 83.051 66.391 52.151 41.791
3009.205 34.371 28.711 24.101 20.301 17.161 14.591 12.521 10.831 9.371 8.201
3047.785 7.281 6.541 5.911 5.371 4.951 4.611 4.321 4.051 3.791 3.581
3086.364 3.361 3.191 3.061 2.921 2.811 2.721 2.621 2.521 2.441 2.361
3124.944 2.281 2.221 2.111 2.031 2.001 1.931 1.871 1.851 1.781 1.701
3163.524 1.681 1.621 1.531 1.511 1.471 1.421 1.401 1.401 1.371 1.301
3202.103 1.201 1.121 1.0931 1.0049 0.9031 0.8696 0.8226 0.7395 0.71 0.6896
3240.683 0.5892 0.5225 0.5018 0.456 0.3952 0.385 0.3707 0.3419 0.3209 0.3007
3279.262 0.2945 0.2646 0.2245 0.219 0.251 0.2475 0.2254 0.21738 0.2332 0.22026
3317.842 0.20142 0.21839 0.2225 0.19359 0.20319 0.2305 0.21035 0.238 0.2361 0.21156
3356.421 0.2368 0.2289 0.20105 0.19346 0.20662 0.20726 0.19713 0.2411 0.258 0.224
3395.001 0.2225 0.2452 0.2233 0.19594 0.2272 0.2331 0.18342 0.16437 0.20781 0.21473
3433.580 0.21698 0.252 0.2612 0.2769 0.3031 0.3143 0.3197 0.3699 0.4562 0.4797
3472.160 0.5382 0.6576 0.7631 0.8565 0.9282 0.9934 1.0307 1.0341 1.0483 1.0433
3510.740 1.0919 1.221 1.201 1.151 1.1187 1.0147 0.9464 0.8688 0.7715 0.6865
3549.319 0.6242 0.5484 0.4625 0.4019 0.3665 0.3363 0.2941 0.2546 0.23 0.19289
3587.899 0.14052 0.125779 0.15791 0.14872 0.122615 0.14335 0.111 0.0802 0.0547 0
3626.478 0.0371 0.066 0.0856 0.0846 0.0613 0.0593 0.0337 0.0916 0.123833 0.0661
3665.058 0.0649 0.0979 0.1011 0.13809 0.13456 0.14081 0.15625 0.15109 0.17243 0.16101
3703.637 0.18878 0.15267 0.14195 0.19496 0.22002 0.2456 0.237 0.2394 0.2586 0.2442
3742.217 0.2837 0.3098 0.2968 0.3188 0.3327 0.3558 0.3267 0.3219 0.3242 0.2859
3780.797 0.3227 0.3611 0.363 0.3209 0.2755 0.2661 0.2955 0.37 0.3451 0.3154
3819.376 0.359 0.3682 0.327 0.2695 0.2626 0.2512 0.2449 0.284 0.3102 0.2872
3857.956 0.244 0.2558 0.2846 0.2743 0.2636 0.2783 0.2815 0.2442 0.2581 0.2588
3896.535 0.2215 0.252 0.289 0.3003 0.2585 0.2608 0.3119 0.3521 0.3582 0.3891
3935.115 0.3991 0.3798 0.4169 0.4199 0.4142 0.4579 0.5509 0.5634 0.5439 0.5778
3973.694 0.5601 0.5723 0.6489 0.6616 0.6872 0.7572 0.8029 0.8745
##END=
