##TITLE=cis-1-Methyl-4-isopropylcyclohexane
##JCAMP-DX=4.24
##DATA TYPE=INFRARED SPECTRUM
##ORIGIN=NIST Mass Spectrometry Data Center
##OWNER=NIST Standard Reference Data Program
Collection (C) 2018 copyright by the U.S. Secretary of Commerce
on behalf of the United States of America. All rights reserved.
##CAS REGISTRY NO=6069-98-3
##MOLFORM=C 10 H 20
##$NIST SOURCE=MSDC-IR
##SPECTROMETER/DATA SYSTEM=HP-GC/MS/IRD
##STATE=gas
##XUNITS=1/CM
##YUNITS=ABSORBANCE
##XFACTOR=1.0
##YFACTOR=0.000004800
##DELTAX=4.0
##FIRSTX=550.0
##LASTX=3846.0
##FIRSTY=0.000149
##MAXX=3846
##MINX=550
##MAXY=0.048
##MINY=0
##NPOINTS=825
##XYDATA=(X++(Y..Y))
550.0 31 31 43 27 12 10 12 30 30 21
590.0 31 35 28 21 37 52 44 61 86 94
630.0 104 112 102 71 35 36 51 34 16 18
670.0 29 41 39 36 31 31 23 10 16 27
710.0 34 32 28 27 24 26 31 33 34 35
750.0 35 39 49 56 53 51 51 49 54 54
790.0 50 43 34 28 26 29 28 23 22 21
830.0 24 34 40 42 52 60 57 53 58 63
870.0 64 67 63 68 66 49 39 38 38 36
910.0 44 57 63 71 80 85 93 98 94 94
950.0 102 109 118 133 147 149 151 149 132 119
990.0 106 94 93 96 103 111 125 137 133 118
1030.0 106 87 74 76 72 71 79 88 94 102
1070.0 113 124 139 149 149 143 128 106 90 76
1110.0 68 63 55 53 56 59 62 66 74 95
1150.0 124 146 168 195 214 217 205 184 154 125
1190.0 107 97 89 74 64 53 45 55 71 77
1230.0 82 88 78 70 72 87 98 111 126 141
1270.0 149 150 143 136 132 130 134 137 138 134
1310.0 135 143 148 151 154 160 170 183 207 231
1350.0 263 317 397 504 634 766 899 1016 1071 1034
1390.0 914 739 545 372 263 209 185 173 180 208
1430.0 256 337 468 640 826 1003 1154 1243 1250 1185
1470.0 1063 893 711 538 394 290 211 159 123 93
1510.0 78 70 59 53 48 46 45 34 26 29
1550.0 31 28 21 29 31 28 27 24 29 34
1590.0 34 35 34 31 29 28 25 24 25 28
1630.0 30 26 22 23 23 18 17 23 24 23
1670.0 23 21 21 17 16 21 17 9 11 15
1710.0 19 14 10 15 19 18 13 11 12 13
1750.0 14 15 16 15 13 9 8 11 10 10
1790.0 11 10 8 9 13 13 14 13 11 10
1830.0 9 10 12 10 10 11 10 9 10 11
1870.0 11 9 8 11 11 8 8 7 7 10
1910.0 10 11 9 7 7 6 7 4 1 4
1950.0 8 6 6 4 3 4 6 6 4 6
1990.0 5 2 1 3 6 3 4 4 3 3
2030.0 2 1 0 0 0 0 0 2 4 3
2070.0 5 9 11 10 9 9 10 9 9 9
2110.0 6 6 8 8 11 10 6 7 8 6
2150.0 9 10 9 12 14 13 10 9 11 12
2190.0 10 8 11 13 11 13 10 13 17 18
2230.0 15 14 12 13 16 15 13 12 14 17
2270.0 18 17 18 19 18 14 14 15 15 17
2310.0 19 19 19 18 17 14 11 14 13 14
2350.0 14 13 12 12 14 16 22 29 30 30
2390.0 32 32 30 30 32 33 35 38 39 39
2430.0 39 36 34 36 35 37 37 35 32 32
2470.0 34 33 33 33 30 33 35 35 37 41
2510.0 42 43 44 45 49 53 50 48 49 51
2550.0 53 54 59 64 66 69 72 79 86 91
2590.0 99 109 117 124 132 134 137 143 147 150
2630.0 150 148 147 147 145 147 150 157 163 164
2670.0 169 175 174 173 172 164 154 153 158 160
2710.0 158 164 175 184 188 192 194 193 191 185
2750.0 182 182 189 194 197 207 218 224 231 245
2790.0 259 269 281 299 323 349 376 413 461 524
2830.0 609 742 951 1264 1711 2285 2924 3506 3961 4307
2870.0 4553 4674 4651 4544 4459 4438 4521 4768 5179 5751
2910.0 6525 7531 8624 9529 10000 9948 9471 8772 8071 7560
2950.0 7360 7479 7676 7679 7326 6562 5452 4192 3069 2193
2990.0 1544 1093 806 628 516 441 387 348 321 299
3030.0 282 262 244 232 226 223 218 209 201 194
3070.0 192 192 189 187 183 177 172 165 162 160
3110.0 156 154 153 148 150 154 153 148 144 140
3150.0 136 130 119 113 115 112 111 108 104 96
3190.0 89 89 87 75 65 65 64 62 57 56
3230.0 49 49 51 44 40 40 42 44 44 40
3270.0 38 43 46 45 48 51 57 56 50 47
3310.0 47 50 45 44 41 39 41 41 40 37
3350.0 36 35 38 40 36 33 29 30 34 36
3390.0 36 33 28 32 35 31 27 23 25 34
3430.0 28 19 21 21 17 15 18 13 9 15
3470.0 13 13 19 17 16 18 20 23 18 14
3510.0 18 20 20 21 23 20 24 26 17 14
3550.0 19 17 21 22 17 19 16 14 20 19
3590.0 17 18 15 13 15 13 12 19 21 10
3630.0 13 24 24 21 17 17 19 26 28 22
3670.0 19 19 26 27 20 22 27 26 32 36
3710.0 32 30 26 25 28 20 19 23 17 12
3750.0 15 20 23 26 29 26 32 38 37 37
3790.0 34 38 41 36 35 39 39 33 35 36
3830.0 35 36 35 41 45
##END=
