##TITLE=2,3,5,6-Tetramethylbenzenesulphonyl chloride
##JCAMP-DX=4.24
##DATA TYPE=INFRARED SPECTRUM
##ORIGIN=EPA-IR VAPOR PHASE LIBRARY
##OWNER=SRD/NIST
Collection (C) 2018 copyright by the U.S. Secretary of Commerce
on behalf of the United States of America. All rights reserved.
##CAS REGISTRY NO=60706-63-0
##MOLFORM=C 10 H 13 Cl O 2 S
##$NIST SOURCE=MSDC-IR
##STATE=gas
##XUNITS=1/CM
##YUNITS=ABSORBANCE
##XFACTOR=1.
##YFACTOR=0.001
##DELTAX=1.92934
##FIRSTX=549.9
##LASTX=3999.5
##FIRSTY=2.1194
##MAXX=3999.53
##MINX=549.863
##MAXY=0.0228
##MINY=0
##NPOINTS=1789
##XYDATA=(X++(Y..Y))
549.863 2.1194 2.0589 1.9221 1.7197 1.6756 1.6575 1.7505 1.8146 1.9864 2.21
569.156 2.45 2.77 2.78 2.84 2.93 3.13 3.19 3.3 3.61 3.81
588.450 3.91 4.04 4.01 3.72 3.43 2.97 2.52 2.151 1.7454 1.3954
607.743 1.24863 1.19091 1.1169 1.1253 1.1474 1.1026 1.053 1.014 0.913 0.885
627.037 0.859 0.793 0.828 0.869 0.827 0.824 0.811 0.826 0.904 0.88
646.330 0.82 0.845 0.811 0.722 0.733 0.757 0.838 0.967 0.944 0.936
665.624 1.1377 1.3442 1.3771 1.2964 1.25987 1.3094 1.28425 1.21711 1.20811 1.1669
684.917 1.1349 1.1483 1.1572 1.1169 1.135 1.1595 1.1394 1.0927 1.09 1.133
704.210 1.135 1.1552 1.1683 1.19858 1.23596 1.21278 1.21136 1.21464 1.1705 1.1402
723.504 1.079 1.006 0.92 0.91 0.945 0.962 0.946 1.018 1.064 1.002
742.797 0.979 0.956 1.006 1.037 1.003 0.981 0.982 1.038 1.073 1.07
762.091 1.077 1.052 1.064 1.032 0.99 1.027 1.058 1.028 1.052 1.1044
781.384 1.1314 1.1615 1.28153 1.4757 1.611 1.7628 1.9342 2.1129 2.27 2.37
800.678 2.43 2.43 2.43 2.39 2.27 2.1623 2.177 2.22 2.32 2.51
819.971 2.57 2.62 2.69 2.68 2.58 2.51 2.47 2.32 2.1589 2.0735
839.264 2.004 1.9083 1.8913 1.936 1.9665 2.0752 2.24 2.41 2.58 2.76
858.558 2.9 3.13 3.47 3.76 3.73 3.36 2.99 2.67 2.46 2.32
877.851 2.1618 1.9583 1.7619 1.6878 1.5871 1.4691 1.4098 1.3932 1.3509 1.25686
897.145 1.23881 1.2503 1.2749 1.3164 1.3347 1.3239 1.2904 1.22952 1.19683 1.23277
916.438 1.25706 1.25455 1.24048 1.24151 1.25393 1.23422 1.20888 1.22957 1.28848 1.2941
935.732 1.26745 1.27729 1.2942 1.28773 1.28387 1.3036 1.3022 1.326 1.3738 1.409
955.025 1.4956 1.5748 1.5778 1.6529 1.8116 1.9698 2.1034 2.28 2.45 2.59
974.318 2.77 2.95 3.13 3.36 3.53 3.62 3.76 3.91 4.02 4.15
993.612 4.24 4.31 4.36 4.34 4.3 4.22 4.17 4.1 3.91 3.74
1012.905 3.59 3.39 3.23 3.1 2.94 2.79 2.67 2.57 2.47 2.37
1032.199 2.33 2.27 2.1425 2.0741 2.072 2.0555 1.973 1.8959 1.8642 1.8279
1051.492 1.7806 1.7641 1.7494 1.7405 1.6682 1.6038 1.6112 1.5852 1.5864 1.5843
1070.786 1.5408 1.5297 1.4942 1.4779 1.5169 1.5711 1.5589 1.5702 1.6063 1.5819
1090.079 1.6348 1.7222 1.7561 1.7658 1.7929 1.824 1.8354 1.8233 1.8526 1.9097
1109.372 1.9088 1.9001 1.9129 1.953 1.9122 1.8956 1.9101 1.8398 1.7802 1.7113
1128.666 1.6458 1.5258 1.4255 1.388 1.4348 1.4193 1.4459 1.5194 1.5311 1.5984
1147.959 1.6945 1.804 1.9747 2.25 2.62 3.01 3.32 3.56 3.73 3.93
1167.253 4.09 4.09 4 3.9 3.8 3.66 3.46 3.35 3.26 3.15
1186.546 3.15 3.19 3.17 3.18 3.29 3.33 3.36 3.51 3.69 3.79
1205.840 3.79 3.7 3.5 3.2 2.84 2.53 2.23 1.9802 1.7971 1.6952
1225.133 1.5934 1.4625 1.3936 1.4043 1.4673 1.4684 1.4822 1.5525 1.5859 1.6202
1244.426 1.6783 1.7252 1.7512 1.8133 1.8439 1.8851 1.9949 2.0503 2.0916 2.1361
1263.720 2.1857 2.23 2.25 2.24 2.2 2.1278 2.0331 1.9172 1.8226 1.748
1283.013 1.6618 1.6077 1.609 1.6494 1.6748 1.7754 1.8796 1.9627 2.1342 2.33
1302.307 2.55 2.84 3.22 3.63 4.09 4.65 5.32 6.07 6.88 7.79
1321.600 8.76 9.78 10.87 12.02 13.11 14.11 15.05 15.86 16.59 17.22
1340.894 17.56 17.63 17.37 16.86 16.26 15.87 15.79 16.36 17.27 18.01
1360.187 17.39 12.95 10.32 12.23 15.32 18.45 20.7 22.14 22.8 22.79
1379.480 22.15 21 19.38 17.52 15.54 13.46 11.43 9.65 8.05 6.7
1398.774 5.66 4.78 4.14 3.72 3.37 3.08 2.88 2.77 2.71 2.72
1418.067 2.75 2.76 2.81 2.89 3 3.15 3.31 3.51 3.74 4.03
1437.361 4.34 4.58 4.85 5.14 5.41 5.69 5.93 6.19 6.45 6.68
1456.654 6.88 7.01 7.04 7.03 7.06 7.05 6.96 6.85 6.69 6.36
1475.948 6.01 5.67 5.27 4.89 4.63 4.38 4.15 4.04 4 3.98
1495.241 4.05 4.2 4.33 4.41 4.43 4.46 4.4 4.29 4.13 3.94
1514.534 3.74 3.47 3.17 2.95 2.77 2.61 2.57 2.6 2.59 2.6
1533.828 2.62 2.64 2.68 2.76 2.78 2.73 2.7 2.68 2.7 2.73
1553.121 2.73 2.69 2.67 2.67 2.56 2.48 2.43 2.33 2.3 2.25
1572.415 2.1367 2.1053 2.0918 2.0169 1.9442 1.8733 1.8897 1.9136 1.8649 1.8319
1591.708 1.8355 1.852 1.9231 1.9704 1.9744 1.978 1.9469 1.9259 1.9103 1.8382
1611.002 1.7832 1.7517 1.7152 1.6659 1.5436 1.49 1.4959 1.4804 1.4488 1.4368
1630.295 1.4379 1.4124 1.4272 1.4117 1.3405 1.3047 1.2939 1.2996 1.3698 1.3925
1649.588 1.3323 1.3964 1.4384 1.3553 1.3357 1.3324 1.3058 1.2981 1.27587 1.23443
1668.882 1.22835 1.21025 1.19297 1.2275 1.2331 1.22615 1.20789 1.22322 1.26484 1.24269
1688.175 1.23006 1.20403 1.1726 1.24132 1.2863 1.28312 1.3588 1.3475 1.3318 1.3389
1707.469 1.3253 1.3702 1.4441 1.4966 1.5238 1.5869 1.5876 1.5534 1.5583 1.5395
1726.762 1.4991 1.527 1.5748 1.556 1.5321 1.4355 1.367 1.3374 1.23537 1.1209
1746.056 1.018 0.896 0.744 0.605 0.456 0.285 0.13 0.08 0.04 0
1765.349 0.08 0.23 0.363 0.522 0.65 0.731 0.794 0.821 0.895 0.947
1784.642 0.959 1.015 1.038 1.043 1.063 1.024 0.966 0.977 1.013 0.99
1803.936 0.962 0.983 1.015 1.006 1.02 1.032 1.03 1.053 1.067 1.0926
1823.229 1.1365 1.1561 1.1592 1.1464 1.145 1.1673 1.18219 1.1744 1.152 1.1686
1842.523 1.19094 1.1688 1.1349 1.1335 1.1291 1.1201 1.1236 1.1291 1.1417 1.1761
1861.816 1.23693 1.23284 1.18098 1.175 1.1491 1.1544 1.19898 1.23577 1.2907 1.28543
1881.110 1.23204 1.24326 1.27418 1.28806 1.3096 1.28028 1.24996 1.28607 1.3191 1.2903
1900.403 1.26926 1.26257 1.26003 1.27587 1.26076 1.23376 1.20856 1.1742 1.1648 1.20326
1919.696 1.21346 1.20519 1.23009 1.22691 1.23723 1.26241 1.25337 1.22641 1.21853 1.19583
1938.990 1.18145 1.18957 1.151 1.1294 1.1329 1.19761 1.24227 1.18685 1.1676 1.1724
1958.283 1.1545 1.1751 1.18416 1.1746 1.19274 1.20371 1.1731 1.1424 1.1582 1.1638
1977.577 1.1466 1.1381 1.1246 1.1409 1.1606 1.1629 1.19438 1.20903 1.20774 1.21191
1996.870 1.18345 1.1633 1.1814 1.20923 1.22155 1.2074 1.2104 1.20196 1.20022 1.19697
2016.164 1.19624 1.22095 1.20945 1.20239 1.24373 1.23164 1.1977 1.22068 1.22736 1.20439
2035.457 1.18786 1.20428 1.21619 1.2192 1.26065 1.26008 1.23368 1.20856 1.1673 1.20008
2054.750 1.25201 1.24716 1.23247 1.25538 1.24446 1.21864 1.20669 1.21118 1.22848 1.20178
2074.044 1.21091 1.2353 1.21526 1.21829 1.23835 1.24287 1.23673 1.18157 1.1607 1.1641
2093.337 1.18018 1.20053 1.1683 1.1655 1.1363 1.1649 1.19291 1.179 1.19764 1.19797
2112.631 1.21792 1.22615 1.23164 1.22743 1.22322 1.23122 1.22182 1.20575 1.2007 1.18416
2131.924 1.1774 1.1751 1.1636 1.1622 1.18622 1.19623 1.1633 1.1524 1.1398 1.1246
2151.218 1.1491 1.20205 1.21705 1.19532 1.166 1.1579 1.1714 1.18509 1.19937 1.1773
2170.511 1.1515 1.1689 1.19874 1.20406 1.21184 1.20016 1.18869 1.19044 1.1787 1.19905
2189.804 1.19685 1.19751 1.19716 1.1715 1.18505 1.20709 1.21839 1.2196 1.20401 1.19876
2209.098 1.20204 1.21098 1.24165 1.25257 1.23987 1.22698 1.23772 1.2485 1.21089 1.21654
2228.391 1.25166 1.25435 1.21953 1.1775 1.18767 1.22665 1.25235 1.22888 1.22093 1.21671
2247.685 1.1998 1.19426 1.1968 1.21542 1.23348 1.24424 1.23253 1.20275 1.21381 1.24267
2266.978 1.25762 1.25582 1.24644 1.24729 1.24472 1.23692 1.25321 1.26571 1.26897 1.28067
2286.272 1.2686 1.28278 1.28215 1.27113 1.27432 1.2514 1.28393 1.3525 1.3565 1.3437
2305.565 1.3679 1.3931 1.3663 1.3584 1.4237 1.4757 1.4737 1.4702 1.4599 1.4462
2324.858 1.4339 1.4248 1.4547 1.4819 1.4724 1.4369 1.4199 1.4309 1.4442 1.4352
2344.152 1.4153 1.3953 1.3658 1.3655 1.3826 1.4559 1.54 1.5394 1.5393 1.5246
2363.445 1.499 1.4909 1.4887 1.477 1.4484 1.4307 1.3548 1.3402 1.3885 1.3712
2382.739 1.3368 1.25817 1.19454 1.20439 1.2416 1.26076 1.2497 1.25931 1.27008 1.24515
2402.032 1.27614 1.3045 1.25548 1.24369 1.28632 1.3182 1.3186 1.3008 1.27908 1.24653
2421.326 1.24938 1.27267 1.2634 1.24763 1.25421 1.2902 1.3299 1.3673 1.3795 1.38
2440.619 1.3721 1.3658 1.4157 1.4267 1.3899 1.3997 1.4338 1.4454 1.4075 1.4085
2459.912 1.441 1.4413 1.4767 1.5355 1.5268 1.5099 1.5339 1.5485 1.5579 1.5594
2479.206 1.581 1.5846 1.5626 1.5903 1.6231 1.61 1.5695 1.5338 1.5287 1.5388
2498.499 1.5159 1.4078 1.3825 1.4692 1.5233 1.5661 1.5881 1.5857 1.5984 1.6239
2517.793 1.5899 1.5494 1.4876 1.4293 1.3978 1.3218 1.24963 1.20677 1.20955 1.2122
2537.086 1.21557 1.22191 1.18725 1.19789 1.23935 1.26339 1.26978 1.23743 1.24454 1.2321
2556.380 1.21018 1.22404 1.22673 1.24748 1.25296 1.20721 1.1725 1.1674 1.2032 1.20406
2575.673 1.21836 1.25028 1.26665 1.28794 1.22103 1.21637 1.26666 1.24819 1.2155 1.19023
2594.966 1.1666 1.18362 1.18593 1.19496 1.25701 1.24734 1.21207 1.24188 1.23952 1.19597
2614.260 1.21372 1.18887 1.1292 1.18776 1.2239 1.2214 1.23362 1.25384 1.27408 1.25973
2633.553 1.28649 1.27585 1.22406 1.23494 1.24076 1.22702 1.26552 1.21925 1.18517 1.26644
2652.847 1.26477 1.23528 1.26115 1.3245 1.375 1.3348 1.28474 1.3312 1.3341 1.25446
2672.140 1.2208 1.27646 1.26732 1.21587 1.21419 1.20148 1.22672 1.21941 1.24322 1.2639
2691.434 1.28289 1.28693 1.23096 1.25493 1.3088 1.3304 1.375 1.3829 1.3062 1.2845
2710.727 1.3354 1.3884 1.4085 1.3733 1.3985 1.4765 1.5073 1.5134 1.5329 1.5948
2730.020 1.6034 1.6525 1.7314 1.7699 1.7568 1.6661 1.6545 1.6844 1.6982 1.6823
2749.314 1.6823 1.7156 1.7329 1.7136 1.6834 1.6788 1.7233 1.7376 1.6946 1.6795
2768.607 1.6713 1.6401 1.6604 1.7197 1.7615 1.7026 1.6321 1.6559 1.6547 1.673
2787.901 1.6422 1.6376 1.6539 1.6148 1.6265 1.7036 1.7325 1.7115 1.7204 1.7242
2807.194 1.707 1.7028 1.7032 1.7756 1.8472 1.8988 1.9482 1.9483 2.0152 2.0804
2826.488 2.1109 2.1101 2.19 2.28 2.33 2.51 2.6 2.63 2.82 2.96
2845.781 2.99 3.11 3.32 3.45 3.7 3.99 4.3 4.65 5.05 5.54
2865.074 5.98 6.41 6.9 7.33 7.6 7.84 8.13 8.29 8.28 8.17
2884.368 8.03 7.83 7.61 7.36 7.1 7 6.9 6.8 6.81 6.76
2903.661 6.79 6.87 7 7.19 7.48 7.92 8.4 9.04 9.88 10.82
2922.955 11.77 12.72 13.66 14.42 15 15.42 15.65 15.65 15.38 15.02
2942.248 14.49 13.75 13.02 12.34 11.72 11.04 10.53 10.25 9.94 9.55
2961.542 9.2 9.01 8.9 8.76 8.62 8.48 8.43 8.35 8.29 8.21
2980.835 7.99 7.76 7.55 7.35 7.05 6.8 6.71 6.77 6.98 7.23
3000.128 7.45 7.72 7.93 7.98 8.12 8.33 8.42 8.28 7.99 7.56
3019.422 6.99 6.47 5.98 5.54 5.12 4.74 4.54 4.38 4.1 3.88
3038.715 3.86 3.8 3.78 3.75 3.66 3.61 3.56 3.41 3.32 3.31
3058.009 3.29 3.21 3.04 2.98 2.98 2.97 2.89 2.68 2.62 2.55
3077.302 2.43 2.39 2.34 2.3 2.28 2.1882 2.0702 1.9864 1.9648 1.9007
3096.596 1.8109 1.8299 1.759 1.6684 1.6827 1.615 1.5492 1.5803 1.5397 1.5091
3115.889 1.4492 1.4048 1.3741 1.3296 1.3398 1.3688 1.4496 1.4158 1.3127 1.24133
3135.182 1.24815 1.25739 1.21487 1.23913 1.1461 1.012 1.027 1.027 1.004 1
3154.476 0.961 1.007 1.093 0.999 0.979 0.998 0.861 0.925 0.984 0.928
3173.769 0.854 0.801 0.862 0.875 0.838 0.802 0.794 0.768 0.764 0.785
3193.063 0.728 0.698 0.777 0.834 0.907 0.857 0.66 0.62 0.695 0.748
3212.356 0.764 0.817 0.761 0.645 0.725 0.816 0.74 0.69 0.784 0.772
3231.650 0.739 0.695 0.617 0.626 0.638 0.694 0.715 0.623 0.582 0.588
3250.943 0.627 0.606 0.522 0.638 0.684 0.606 0.64 0.736 0.74 0.678
3270.236 0.624 0.548 0.527 0.598 0.635 0.668 0.713 0.543 0.605 0.872
3289.530 0.844 0.774 0.86 0.714 0.552 0.551 0.578 0.622 0.634 0.672
3308.823 0.705 0.66 0.538 0.61 0.701 0.648 0.576 0.584 0.644 0.718
3328.117 0.633 0.477 0.52 0.574 0.556 0.533 0.454 0.441 0.453 0.546
3347.410 0.578 0.52 0.379 0.348 0.534 0.455 0.416 0.582 0.575 0.544
3366.704 0.536 0.496 0.549 0.594 0.533 0.473 0.51 0.522 0.45 0.474
3385.997 0.62 0.559 0.445 0.432 0.5 0.649 0.635 0.499 0.593 0.572
3405.290 0.582 0.7 0.55 0.489 0.505 0.612 0.707 0.689 0.617 0.534
3424.584 0.522 0.427 0.512 0.561 0.464 0.539 0.593 0.613 0.57 0.485
3443.877 0.536 0.601 0.549 0.491 0.55 0.644 0.594 0.544 0.559 0.494
3463.171 0.455 0.435 0.454 0.481 0.503 0.592 0.458 0.393 0.541 0.55
3482.464 0.601 0.61 0.482 0.502 0.637 0.647 0.543 0.526 0.485 0.448
3501.758 0.49 0.512 0.502 0.516 0.537 0.592 0.607 0.537 0.539 0.553
3521.051 0.532 0.525 0.596 0.609 0.604 0.66 0.66 0.635 0.689 0.658
3540.344 0.542 0.51 0.417 0.396 0.368 0.226 0.295 0.407 0.361 0.314
3559.638 0.336 0.342 0.356 0.44 0.431 0.501 0.605 0.58 0.479 0.457
3578.931 0.604 0.675 0.607 0.589 0.616 0.706 0.74 0.673 0.686 0.662
3598.225 0.599 0.641 0.64 0.467 0.503 0.66 0.675 0.597 0.576 0.581
3617.518 0.535 0.592 0.658 0.57 0.543 0.695 0.758 0.73 0.722 0.677
3636.812 0.707 0.769 0.729 0.666 0.671 0.744 0.834 0.858 0.77 0.749
3656.105 0.69 0.683 0.72 0.615 0.591 0.55 0.6 0.784 0.805 0.781
3675.398 0.796 0.761 0.785 0.873 0.79 0.71 0.747 0.744 0.713 0.685
3694.692 0.667 0.76 0.825 0.793 0.861 0.945 0.922 0.943 0.916 0.8
3713.985 0.725 0.717 0.777 0.72 0.651 0.659 0.688 0.735 0.784 0.854
3733.279 0.846 0.747 0.8 0.869 0.843 0.861 0.939 0.898 0.773 0.746
3752.572 0.681 0.653 0.767 0.875 0.843 0.769 0.756 0.785 0.821 0.763
3771.866 0.693 0.749 0.85 0.831 0.756 0.789 0.86 0.846 0.807 0.802
3791.159 0.843 0.884 0.909 0.834 0.778 0.781 0.775 0.803 0.816 0.838
3810.452 0.791 0.735 0.807 0.876 0.905 0.914 0.902 0.818 0.78 0.878
3829.746 0.867 0.79 0.787 0.847 0.866 0.89 0.93 0.898 0.862 0.89
3849.039 0.919 0.899 0.936 0.95 0.851 0.827 0.865 0.857 0.81 0.81
3868.333 0.931 1.035 0.984 0.916 0.9 0.922 0.93 0.847 0.835 0.916
3887.626 0.975 0.933 0.866 0.902 0.941 0.947 0.893 0.95 0.999 0.854
3906.920 0.803 0.921 0.91 0.855 0.895 0.874 0.901 0.951 0.96 0.942
3926.213 0.941 0.944 0.97 0.986 0.939 0.887 0.904 0.87 0.864 0.895
3945.506 0.901 0.976 1.022 0.955 0.841 0.803 0.845 0.978 1.028 0.951
3964.800 0.859 0.834 0.97 1.036 0.956 0.957 1.041 1.037 0.948 0.89
3984.093 0.919 0.916 0.961 0.943 0.864 0.888 0.92 0.974 1.006
##END=
