##TITLE=4-Methoxy-3-methylbenzyl chloride
##JCAMP-DX=4.24
##DATA TYPE=INFRARED SPECTRUM
##ORIGIN=EPA-IR VAPOR PHASE LIBRARY
##OWNER=SRD/NIST
Collection (C) 2018 copyright by the U.S. Secretary of Commerce
on behalf of the United States of America. All rights reserved.
##CAS REGISTRY NO=60736-71-2
##MOLFORM=C 9 H 11 Cl O
##$NIST SOURCE=MSDC-IR
##STATE=gas
##XUNITS=1/CM
##YUNITS=ABSORBANCE
##XFACTOR=1.
##YFACTOR=0.001
##DELTAX=1.92898
##FIRSTX=549.8
##LASTX=4000.7
##FIRSTY=2.013
##MAXX=4000.7
##MINX=549.759
##MAXY=0.163563
##MINY=0
##NPOINTS=1790
##XYDATA=(X++(Y..Y))
549.759 2.013 2.003 1.733 1.393 1.593 2.183 2.493 2.273 2.353 2.723
569.049 3.063 3.113 3.453 4.293 5.053 6.073 7.133 8.763 10.153 10.593
588.339 11.023 11.363 11.153 10.353 9.363 7.933 6.683 5.643 4.683 4.033
607.628 3.443 3.133 3.023 2.613 2.323 2.373 2.233 2.293 2.053 1.683
626.918 1.703 1.723 1.623 1.553 1.803 1.973 2.033 2.173 1.973 1.823
646.208 1.993 1.983 2.123 2.543 2.793 2.783 2.993 3.303 3.703 4.153
665.498 4.563 5.563 6.753 8.083 9.743 11.503 13.343 15.763 18.613 21.193
684.787 23.523 25.213 26.173 26.333 25.453 23.993 22.243 20.033 17.703 15.683
704.077 13.953 12.603 11.653 11.073 10.793 11.163 11.883 12.843 14.453 16.493
723.367 18.883 21.383 23.913 25.903 27.323 28.283 28.523 28.153 27.003 25.493
742.657 23.983 22.363 20.443 18.533 16.653 14.713 13.153 11.943 10.753 9.673
761.947 8.803 7.973 7.363 7.083 6.763 6.263 5.793 5.703 5.673 5.453
781.236 5.483 5.453 5.603 6.043 6.403 6.903 7.843 8.923 9.673 10.793
800.526 12.183 13.383 14.253 14.973 15.493 15.313 14.683 13.843 12.913 11.993
819.816 10.493 9.123 8.203 6.983 5.933 5.113 4.463 3.883 3.303 2.923
839.106 2.703 2.473 2.273 2.073 2.053 2.023 1.813 1.773 1.813 1.943
858.395 1.923 1.963 2.273 2.383 2.573 2.883 3.183 3.443 3.763 4.043
877.685 4.233 4.403 4.603 4.593 4.573 4.603 4.493 4.353 4.133 4.183
896.975 4.073 3.783 3.743 3.493 3.133 3.113 2.893 2.713 2.623 2.533
916.265 2.603 2.663 2.833 2.773 2.743 2.863 2.953 3.153 3.453 3.893
935.555 4.143 4.423 4.733 4.733 4.923 5.013 4.753 4.573 4.293 3.703
954.844 3.313 3.103 2.783 2.833 2.843 2.713 2.783 2.723 2.633 2.893
974.134 3.083 3.323 3.543 3.653 3.993 4.413 4.853 5.093 5.513 6.063
993.424 6.343 6.503 6.863 7.363 7.683 8.003 8.563 9.203 9.993 10.783
1012.714 11.553 12.883 14.583 16.193 18.243 20.653 22.803 25.163 27.533 29.543
1032.003 31.363 32.403 32.493 31.983 30.743 28.703 26.063 23.653 20.943 18.143
1051.293 15.953 13.653 11.143 9.203 8.253 7.173 6.273 6.083 5.483 5.253
1070.583 5.153 4.823 5.053 4.743 4.403 4.523 4.613 4.343 4.353 4.653
1089.873 4.523 4.863 4.973 4.963 5.533 5.603 6.103 7.013 7.643 8.983
1109.163 10.453 12.303 15.213 18.513 22.323 26.913 32.473 38.473 44.743 51.153
1128.452 56.143 59.453 60.843 59.493 56.453 52.163 46.553 40.833 35.373 30.133
1147.742 25.823 22.363 19.813 17.733 15.923 14.173 12.443 11.193 10.223 9.493
1167.032 9.063 9.043 9.123 9.313 9.883 10.693 11.213 11.613 11.753 11.603
1186.322 11.453 11.203 10.893 10.883 10.763 10.543 10.443 10.853 12.083 13.503
1205.611 14.983 17.083 19.813 22.673 26.113 30.423 34.773 38.663 42.053 44.673
1224.901 46.143 46.223 45.653 44.943 44.413 44.633 46.093 50.033 56.843 66.563
1244.191 79.273 94.673 111.653 128.393 143.553 155.533 162.153 163.563 159.343 148.753
1263.481 133.183 114.673 96.853 81.193 67.803 57.113 48.723 42.453 37.933 34.693
1282.771 32.293 30.193 28.253 26.593 25.353 24.333 23.433 22.723 22.353 22.443
1302.060 22.903 23.413 23.783 23.853 23.493 22.743 21.583 19.913 17.983 16.093
1321.350 14.033 12.203 10.783 9.493 8.453 7.683 6.933 6.293 5.813 5.353
1340.640 5.003 4.743 4.473 4.153 3.913 3.773 3.663 3.643 3.593 3.393
1359.930 3.363 3.423 3.393 3.423 3.553 3.653 3.693 3.863 4.133 4.403
1379.219 4.623 4.723 4.773 4.803 4.843 4.873 4.853 4.753 4.653 4.753
1398.509 4.943 5.093 5.313 5.713 6.113 6.493 7.003 7.413 7.753 8.043
1417.799 8.293 8.543 8.733 8.823 8.963 9.193 9.583 10.173 11.043 12.213
1437.089 13.713 15.533 17.423 18.953 19.973 20.603 21.133 21.613 21.503 21.003
1456.378 20.783 21.053 22.023 23.503 24.943 26.063 26.693 26.913 27.063 27.173
1475.668 26.983 26.593 26.463 27.083 28.763 31.563 35.543 40.683 47.043 54.693
1494.958 63.443 72.843 81.983 89.843 95.153 96.863 94.843 89.613 81.693 71.433
1514.248 59.803 48.173 37.953 30.043 24.243 20.263 17.253 14.943 13.313 11.943
1533.538 10.673 9.693 8.933 8.183 7.603 7.153 6.833 6.523 6.043 5.653
1552.827 5.383 5.163 4.983 4.903 4.803 4.653 4.663 4.683 4.563 4.583
1572.117 4.743 4.903 5.123 5.423 5.643 5.953 6.393 6.753 7.233 7.793
1591.407 8.453 9.313 10.273 11.543 13.103 14.823 16.823 18.733 20.303 21.553
1610.697 22.183 21.973 21.123 19.653 17.633 15.383 12.943 10.733 8.963 7.403
1629.986 6.173 5.243 4.503 4.043 3.703 3.403 3.143 2.833 2.643 2.493
1649.276 2.333 2.243 2.143 2.063 2.023 1.923 1.773 1.633 1.513 1.443
1668.566 1.473 1.473 1.423 1.403 1.383 1.333 1.343 1.343 1.253 1.193
1687.856 1.183 1.173 1.173 1.203 1.263 1.263 1.263 1.233 1.213 1.233
1707.146 1.253 1.303 1.333 1.343 1.373 1.513 1.553 1.573 1.693 1.783
1726.435 1.813 1.903 1.973 2.013 2.023 1.943 1.973 1.963 1.863 1.823
1745.725 1.873 1.893 1.843 1.903 1.943 1.883 1.823 1.833 1.823 1.893
1765.015 1.963 1.853 1.773 1.763 1.783 1.763 1.663 1.623 1.593 1.493
1784.305 1.473 1.423 1.323 1.223 1.193 1.203 1.183 1.153 1.173 1.1184
1803.594 0.9824 0.9632 1.0192 1.0265 1.0271 1.0283 0.9933 0.9507 1.0124 0.9966
1822.884 0.9646 1.0458 1.0538 1.0175 1.0637 1.15 1.243 1.303 1.383 1.473
1842.174 1.563 1.723 1.733 1.743 1.783 1.733 1.783 1.823 1.743 1.703
1861.464 1.653 1.633 1.653 1.603 1.573 1.483 1.403 1.343 1.263 1.223
1880.754 1.148 1.0516 0.9723 0.9769 0.9913 0.9441 0.8384 0.7829 0.8249 0.7755
1900.043 0.7043 0.8008 0.8328 0.7802 0.7299 0.6809 0.6574 0.5905 0.5823 0.6464
1919.333 0.6805 0.6687 0.6037 0.6019 0.735 0.7594 0.7637 0.8349 0.8084 0.7811
1938.623 0.7957 0.8256 0.8466 0.8788 0.9799 0.9951 0.9103 0.9518 1.0423 1.0817
1957.913 1.0977 1.1323 1.203 1.263 1.283 1.253 1.233 1.253 1.283 1.353
1977.202 1.363 1.353 1.373 1.453 1.623 1.673 1.683 1.773 1.903 2.023
1996.492 2.193 2.383 2.453 2.523 2.613 2.603 2.523 2.503 2.483 2.333
2015.782 2.213 2.083 1.973 1.883 1.823 1.813 1.743 1.713 1.763 1.783
2035.072 1.783 1.783 1.773 1.783 1.773 1.783 1.843 1.833 1.833 1.853
2054.362 1.823 1.823 1.843 1.873 1.933 1.923 1.883 1.903 1.933 1.943
2073.651 1.883 1.793 1.663 1.583 1.483 1.393 1.333 1.233 1.203 1.0399
2092.941 0.9013 0.877 0.8518 0.8124 0.7187 0.733 0.7647 0.636 0.6003 0.5768
2112.231 0.4807 0.5136 0.5602 0.5263 0.4951 0.5464 0.5803 0.5582 0.5353 0.5833
2131.521 0.6515 0.6151 0.579 0.5664 0.5395 0.5469 0.5672 0.5761 0.6529 0.6931
2150.810 0.6677 0.7343 0.761 0.7858 0.797 0.7396 0.7744 0.8743 0.9047 0.9199
2170.100 0.8649 0.8041 0.8651 0.8781 0.8508 0.8033 0.8328 0.893 0.9523 0.9708
2189.390 0.9067 0.8473 0.7966 0.8585 0.9878 1.0231 0.9718 0.928 0.9593 0.9745
2208.680 0.9303 0.8228 0.7658 0.7336 0.6865 0.7513 0.829 0.8316 0.7489 0.7319
2227.970 0.8121 0.8872 0.9419 0.964 0.9616 0.9967 1.0982 1.1239 1.1118 1.14
2247.259 1.213 1.233 1.203 1.223 1.243 1.263 1.203 1.153 1.0801 0.9743
2266.549 0.931 0.8739 0.7847 0.7716 0.84 0.8209 0.7696 0.7988 0.7891 0.7225
2285.839 0.6824 0.6882 0.6753 0.6341 0.7117 0.7131 0.733 0.817 0.7444 0.7033
2305.129 0.756 0.7013 0.6495 0.6857 0.6605 0.7414 0.7997 0.7548 0.7196 0.7396
2324.418 0.7286 0.6653 0.7044 0.7672 0.7724 0.7324 0.7667 0.7514 0.7204 0.7176
2343.708 0.6645 0.6703 0.7631 0.7379 0.6958 0.7347 0.7505 0.7869 0.8065 0.8027
2362.998 0.8066 0.7164 0.6934 0.8037 0.7889 0.7942 0.7543 0.7289 0.7411 0.7243
2382.288 0.7268 0.6877 0.7121 0.7114 0.7302 0.7983 0.7162 0.6802 0.6769 0.6499
2401.578 0.6474 0.612 0.6744 0.7637 0.7384 0.7284 0.7444 0.7141 0.7257 0.7996
2420.867 0.8424 0.8364 0.7857 0.7447 0.7685 0.8294 0.7956 0.722 0.6767 0.7095
2440.157 0.7813 0.7107 0.77 0.8563 0.7913 0.7224 0.735 0.8021 0.8242 0.7582
2459.447 0.7177 0.7196 0.7306 0.7329 0.7684 0.8235 0.7987 0.808 0.8315 0.9046
2478.737 1.0069 1.0064 1.0224 1.0603 1.0775 1.0411 1.0274 1.0138 1.0301 1.173
2498.026 1.253 1.313 1.423 1.483 1.473 1.493 1.573 1.613 1.573 1.473
2517.316 1.473 1.503 1.473 1.433 1.353 1.343 1.373 1.363 1.353 1.323
2536.606 1.243 1.273 1.343 1.403 1.413 1.393 1.353 1.343 1.283 1.293
2555.896 1.303 1.253 1.243 1.223 1.223 1.173 1.173 1.193 1.233 1.173
2575.186 1.0523 1.0372 0.9929 0.959 0.9381 0.9387 0.9822 1.0039 1.0656 1.0908
2594.475 0.9987 0.963 0.9003 0.9314 1.0413 0.9892 0.8985 0.9005 1.0421 1.1104
2613.765 0.9821 0.8444 0.8349 0.9407 0.923 0.801 0.859 0.9248 0.8851 0.8606
2633.055 0.8232 0.8575 0.841 0.7786 0.8535 0.8703 0.7191 0.6521 0.7285 0.7053
2652.345 0.7158 0.7014 0.6619 0.6843 0.6552 0.6551 0.68 0.65 0.7301 0.8091
2671.634 0.8114 0.7806 0.7305 0.7954 0.765 0.7197 0.7242 0.7971 0.8573 0.8421
2690.924 0.8614 0.8232 0.9136 1.0635 1.1224 1.0985 1.183 1.243 1.183 1.223
2710.214 1.263 1.313 1.273 1.203 1.183 1.173 1.253 1.223 1.1447 1.233
2729.504 1.283 1.353 1.453 1.473 1.563 1.603 1.653 1.643 1.543 1.543
2748.794 1.563 1.623 1.573 1.533 1.403 1.283 1.273 1.153 1.1274 1.213
2768.083 1.233 1.243 1.253 1.263 1.303 1.313 1.513 1.693 1.773 1.793
2787.373 1.873 1.913 1.983 2.133 2.253 2.453 2.633 2.833 2.873 2.933
2806.663 3.203 3.493 3.713 4.033 4.373 4.623 4.893 5.313 5.833 6.433
2825.953 7.093 7.813 8.843 10.203 11.903 13.683 15.433 17.033 18.133 18.753
2845.242 19.093 19.093 18.623 17.553 16.383 15.473 14.483 13.633 13.193 12.853
2864.532 12.593 12.453 12.393 12.363 12.253 12.203 12.133 11.963 11.873 11.953
2883.822 11.963 12.003 12.053 12.133 12.403 12.733 13.143 13.773 14.383 15.033
2903.112 15.843 16.843 17.883 18.903 19.973 21.043 22.123 22.993 23.793 24.583
2922.401 25.343 26.203 27.233 28.473 29.673 30.963 32.473 33.953 35.513 36.933
2941.691 38.063 38.873 39.543 39.913 40.033 40.123 39.813 39.443 39.213 38.913
2960.981 38.123 36.913 35.553 33.863 32.103 30.543 28.883 27.223 25.523 23.983
2980.271 22.893 21.953 21.123 20.583 20.323 20.523 21.133 21.963 23.263 24.903
2999.561 26.923 28.803 29.963 30.583 30.493 29.783 28.573 26.833 24.883 23.153
3018.850 21.593 20.393 19.443 18.513 17.733 16.883 15.963 14.993 14.063 13.193
3038.140 12.433 11.863 11.653 11.473 11.143 11.023 10.793 10.413 10.023 9.643
3057.430 9.253 8.873 8.543 8.273 7.913 7.703 7.673 7.493 7.263 7.113
3076.720 6.993 6.903 6.613 6.313 6.083 5.763 5.563 5.393 5.053 4.773
3096.009 4.663 4.593 4.423 4.283 4.083 3.753 3.653 3.543 3.363 3.253
3115.299 3.163 3.083 3.103 2.983 2.813 2.643 2.393 2.273 2.183 2.203
3134.589 2.213 1.823 1.613 1.453 1.243 1.173 1.273 1.303 0.9999 0.9976
3153.879 1.223 1.373 1.323 1.183 1.163 1.0865 0.9587 0.9683 1.0063 0.9662
3173.169 0.9321 0.848 0.8162 0.8638 0.9307 0.8724 0.6277 0.5719 0.7619 0.892
3192.458 0.7844 0.6743 0.6316 0.7467 0.854 0.803 0.6977 0.7774 0.8749 0.8287
3211.748 0.7524 0.4924 0.4731 0.6382 0.7691 0.6259 0.4759 0.5418 0.5627 0.6092
3231.038 0.4847 0.435 0.3836 0.3503 0.3118 0.2854 0.4354 0.5119 0.5003 0.5464
3250.328 0.5812 0.4345 0.3925 0.3215 0.19118 0.20049 0.2901 0.3876 0.4025 0.4021
3269.617 0.5 0.4184 0.2926 0.3517 0.3647 0.3892 0.4353 0.41 0.2666 0.254
3288.907 0.2769 0.155731 0.2073 0.3254 0.3364 0.3968 0.3816 0.3092 0.2717 0.18468
3308.197 0.2578 0.3655 0.2706 0.14468 0.0943 0.3027 0.4827 0.3052 0.2987 0.3608
3327.487 0.20696 0.16804 0.2742 0.2853 0.18184 0.14655 0.2756 0.25272 0.2488 0.3366
3346.777 0.2684 0.19709 0.22718 0.3137 0.20059 0.2659 0.4255 0.3839 0.3727 0.3326
3366.066 0.2682 0.16929 0.161866 0.0821 0.1231 0.22309 0.18286 0.24067 0.3037 0.3258
3385.356 0.2875 0.1361 0.19647 0.279 0.162463 0.18929 0.2961 0.25047 0.17415 0.3716
3404.646 0.5309 0.3221 0.22185 0.3552 0.3108 0.19852 0.1123 0.1228 0.2691 0.3823
3423.936 0.4377 0.4219 0.3971 0.3981 0.3558 0.2636 0.20252 0.17101 0.2699 0.3151
3443.225 0.20722 0.16974 0.17799 0.19962 0.2903 0.3197 0.3019 0.3501 0.25028 0.20027
3462.515 0.2952 0.24518 0.24915 0.3476 0.14856 0.159164 0.2726 0.19407 0.3287 0.3888
3481.805 0.3419 0.344 0.3139 0.22118 0.17545 0.2874 0.4035 0.3027 0.1276 0.19312
3501.095 0.2945 0.17778 0.24218 0.2731 0.19056 0.18127 0.4523 0.5474 0.2775 0.25016
3520.385 0.3074 0.2677 0.21502 0.2951 0.15166 0.17954 0.4074 0.4563 0.3173 0.168
3539.674 0.137 0.1383 0.2944 0.2777 0.25025 0.3337 0.23425 0.155454 0.0794 0.0842
3558.964 0.089 0.123 0.3082 0.22748 0.1105 0.1754 0.24013 0.1818 0.20916 0.28
3578.254 0.19521 0.1279 0.1238 0.1346 0.24456 0.3185 0.276 0.3001 0.2635 0.2647
3597.544 0.2654 0.1288 0.213 0.2631 0.158992 0.2787 0.3989 0.3362 0.3967 0.3668
3616.833 0.19877 0.1127 0.1371 0.157248 0.104 0.0531 0.05 0.3236 0.4627 0.362
3636.123 0.16687 0.1203 0.22921 0.18286 0.18227 0.24595 0.3338 0.2565 0.22287 0.24874
3655.413 0.153124 0.1124 0 0.0865 0.2695 0.254 0.153625 0.161463 0.162357 0.046
3674.703 0.20875 0.3269 0.2878 0.307 0.271 0.3207 0.3239 0.22157 0.1102 0.1101
3693.993 0.14753 0.03 0.1194 0.23101 0.0821 0.1043 0.22075 0.2901 0.3851 0.4738
3713.282 0.3936 0.2701 0.14959 0.17409 0.17926 0.22831 0.3809 0.3116 0.20559 0.3269
3732.572 0.3718 0.283 0.2628 0.14675 0.16387 0.0892 0.1424 0.3352 0.3808 0.5045
3751.862 0.4132 0.22569 0.2545 0.20596 0.015 0.1081 0.3424 0.4109 0.3874 0.3413
3771.152 0.2706 0.3347 0.4044 0.277 0.172 0.158874 0.17188 0.17826 0.24104 0.3492
3790.441 0.5086 0.5723 0.3958 0.347 0.4648 0.376 0.21033 0.2712 0.3059 0.0698
3809.731 0.22773 0.4036 0.19795 0.0836 0.14537 0.4089 0.3515 0.2311 0.2977 0.4037
3829.021 0.4039 0.1453 0.0567 0.16908 0.4104 0.4372 0.3537 0.389 0.4959 0.5097
3848.311 0.3103 0.3104 0.3241 0.23996 0.3042 0.5052 0.5055 0.4937 0.466 0.2781
3867.601 0.4172 0.5276 0.3175 0.3034 0.4707 0.463 0.4132 0.3921 0.5728 0.5972
3886.890 0.5213 0.647 0.5655 0.5497 0.5444 0.5021 0.41 0.3344 0.2857 0.22214
3906.180 0.2649 0.299 0.3777 0.3635 0.3699 0.3611 0.385 0.3472 0.2797 0.5499
3925.470 0.5679 0.5448 0.8099 0.7723 0.5942 0.4543 0.3216 0.160857 0.1832 0.3584
3944.760 0.4267 0.5024 0.4302 0.4898 0.518 0.3508 0.3171 0.5132 0.5714 0.5221
3964.049 0.6472 0.6027 0.5528 0.6865 0.589 0.6099 0.6857 0.6281 0.6518 0.566
3983.339 0.283 0.2701 0.7439 0.8023 0.5915 0.6839 0.7784 0.6231 0.6363 0.6485
##END=
