##TITLE=2,3-Dimethylhydroquinone
##JCAMP-DX=4.24
##DATA TYPE=INFRARED SPECTRUM
##ORIGIN=NIST Mass Spectrometry Data Center
##OWNER=NIST Standard Reference Data Program
Collection (C) 2018 copyright by the U.S. Secretary of Commerce
on behalf of the United States of America. All rights reserved.
##CAS REGISTRY NO=608-43-5
##MOLFORM=C 8 H 10 O 2
##$NIST SOURCE=MSDC-IR
##SPECTROMETER/DATA SYSTEM=HP-GC/MS/IRD
##STATE=gas
##XUNITS=1/CM
##YUNITS=ABSORBANCE
##XFACTOR=1.0
##YFACTOR=0.000002300
##DELTAX=4.0
##FIRSTX=550.0
##LASTX=3846.0
##FIRSTY=0.001005
##MAXX=3846
##MINX=550
##MAXY=0.023
##MINY=0
##NPOINTS=825
##XYDATA=(X++(Y..Y))
550.0 437 755 671 748 779 747 658 590 609 593
590.0 450 333 260 177 136 122 89 73 88 107
630.0 107 102 125 160 187 182 157 133 104 61
670.0 25 11 14 20 24 34 41 39 55 77
710.0 91 131 175 266 484 931 1688 2457 2889 3034
750.0 2876 2373 1607 987 784 873 1119 1527 2042 2352
790.0 2495 2649 2646 2346 1960 1659 1333 989 733 576
830.0 483 446 481 612 764 824 797 724 576 362
870.0 207 143 119 108 92 81 89 99 98 108
910.0 116 123 135 151 170 196 245 298 326 344
950.0 357 344 327 313 307 317 345 368 406 474
990.0 548 637 736 841 947 1074 1205 1354 1483 1613
1030.0 1735 1798 1867 1943 1981 2009 2069 2208 2480 2941
1070.0 3639 4602 5668 6526 6979 6910 6299 5276 4105 3061
1110.0 2298 1816 1569 1506 1553 1689 1957 2374 2801 3186
1150.0 3691 4311 4909 5485 6063 6634 7147 7390 7234 6813
1190.0 6241 5542 4834 4324 4117 4142 4298 4548 4863 5213
1230.0 5587 5960 6282 6547 6845 7369 8231 9219 9905 10000
1270.0 9519 8446 6862 5252 4151 3553 3160 2823 2504 2214
1310.0 1967 1755 1545 1331 1102 877 675 538 460 413
1350.0 383 374 369 383 412 445 496 556 608 639
1390.0 648 646 631 613 609 613 640 694 774 912
1430.0 1110 1398 1818 2372 3043 3821 4655 5578 6493 7361
1470.0 8090 8629 8857 8634 7973 7012 5948 4886 3969 3275
1510.0 2739 2328 1977 1660 1389 1192 1049 940 859 803
1550.0 769 734 709 687 667 649 646 636 632 634
1590.0 633 627 612 577 538 507 459 409 372 332
1630.0 292 256 231 211 220 270 369 497 605 668
1670.0 683 631 522 372 246 189 163 145 138 134
1710.0 124 123 123 125 133 131 133 140 139 133
1750.0 125 119 116 118 126 130 130 128 129 124
1790.0 119 122 129 139 150 155 158 155 145 126
1830.0 108 90 73 65 61 52 48 46 36 35
1870.0 27 17 20 26 25 25 35 41 43 41
1910.0 37 44 49 44 39 36 31 28 19 12
1950.0 12 11 12 10 4 0 3 11 16 13
1990.0 16 23 23 24 35 55 73 80 80 81
2030.0 79 72 64 54 47 42 33 27 23 24
2070.0 22 13 13 18 16 17 25 33 39 47
2110.0 46 48 59 59 59 60 63 59 51 42
2150.0 38 34 26 14 11 14 17 18 22 24
2190.0 19 14 23 31 25 21 24 21 26 31
2230.0 23 21 27 30 35 40 40 40 45 51
2270.0 52 55 55 56 63 68 62 64 75 74
2310.0 72 73 70 69 78 88 90 92 97 91
2350.0 90 97 91 80 81 84 80 73 69 77
2390.0 81 84 89 85 84 86 77 81 86 82
2430.0 85 88 94 99 104 107 104 107 110 104
2470.0 101 98 99 102 96 91 96 96 94 106
2510.0 113 110 110 108 103 102 109 97 82 85
2550.0 69 62 60 43 33 32 31 28 27 21
2590.0 19 26 23 13 9 16 22 22 25 30
2630.0 30 30 33 24 12 12 26 28 24 27
2670.0 28 31 32 30 29 30 32 40 45 40
2710.0 45 50 50 62 74 94 123 145 147 148
2750.0 151 141 124 117 113 109 115 116 108 113
2790.0 118 114 118 128 133 132 142 157 181 208
2830.0 241 291 340 399 475 563 687 833 990 1158
2870.0 1318 1448 1536 1577 1575 1539 1514 1517 1540 1600
2910.0 1693 1818 1992 2221 2486 2715 2848 2870 2779 2577
2950.0 2278 1941 1645 1393 1188 1034 924 856 827 817
2990.0 827 863 938 1040 1171 1330 1504 1673 1800 1853
3030.0 1840 1761 1642 1502 1382 1280 1183 1095 1006 923
3070.0 856 770 681 597 511 433 369 321 279 242
3110.0 206 169 143 125 109 105 92 77 75 79
3150.0 77 65 53 49 43 43 62 69 55 41
3190.0 38 39 32 29 32 30 34 32 27 34
3230.0 43 34 15 10 17 29 34 31 22 29
3270.0 31 22 28 34 42 47 55 55 51 52
3310.0 59 66 62 60 59 61 63 66 69 71
3350.0 73 79 81 76 78 97 115 120 132 137
3390.0 131 142 145 151 163 160 161 159 153 153
3430.0 146 152 165 160 159 165 172 180 169 163
3470.0 169 161 137 128 134 139 134 123 117 113
3510.0 105 103 118 121 121 117 111 112 106 104
3550.0 105 97 102 100 89 102 109 109 114 138
3590.0 144 144 169 208 243 298 359 417 525 713
3630.0 982 1384 2050 3147 4733 6421 7294 7236 6739 5652
3670.0 3796 2115 1173 716 481 336 269 228 186 158
3710.0 156 149 132 124 118 114 96 88 93 91
3750.0 105 115 104 115 141 148 140 143 149 133
3790.0 135 161 163 157 166 162 162 167 160 155
3830.0 163 164 181 189 174
##END=
