##TITLE=2-Methylresorcinol
##JCAMP-DX=4.24
##DATA TYPE=INFRARED SPECTRUM
##ORIGIN=NIST Mass Spectrometry Data Center
##OWNER=NIST Standard Reference Data Program
Collection (C) 2018 copyright by the U.S. Secretary of Commerce
on behalf of the United States of America. All rights reserved.
##CAS REGISTRY NO=608-25-3
##MOLFORM=C 7 H 8 O 2
##$NIST SOURCE=MSDC-IR
##SPECTROMETER/DATA SYSTEM=HP-GC/MS/IRD
##STATE=gas
##XUNITS=1/CM
##YUNITS=ABSORBANCE
##XFACTOR=1.0
##YFACTOR=0.000001400
##DELTAX=4.0
##FIRSTX=550.0
##LASTX=3846.0
##FIRSTY=0.001415
##MAXX=3846
##MINX=550
##MAXY=0.014
##MINY=0
##NPOINTS=825
##XYDATA=(X++(Y..Y))
550.0 1011 869 731 652 509 425 460 460 385 265
590.0 244 217 174 204 192 164 149 111 94 78
630.0 75 65 19 12 25 25 37 79 127 242
670.0 495 732 936 1287 1667 1870 2413 3267 2904 1858
710.0 1468 1206 831 484 304 259 340 473 716 1127
750.0 1625 2176 2851 3773 4555 4477 3691 3049 2474 1796
790.0 1219 825 563 435 397 376 379 381 355 347
830.0 308 244 219 215 229 204 158 153 139 116
870.0 148 189 231 281 352 484 656 928 1296 1657
910.0 1918 2046 2019 1869 1568 1184 834 574 453 385
950.0 346 310 294 318 324 330 377 454 533 618
990.0 708 838 1025 1221 1499 1887 2335 2770 3136 3422
1030.0 3633 3766 3902 4152 4698 5647 6906 8175 9223 9875
1070.0 10000 9598 8660 7367 6047 4896 3959 3217 2610 2144
1110.0 1823 1609 1470 1456 1602 1940 2572 3492 4475 5404
1150.0 6282 6920 7192 6959 6477 5913 5326 4963 4850 4859
1190.0 4852 4763 4557 4250 3731 3065 2699 2843 3441 4355
1230.0 5351 6055 6425 6472 6153 5581 4883 4475 4682 5345
1270.0 6219 7074 7690 7937 7799 7323 6622 5829 5146 4683
1310.0 4512 4556 4531 4307 3943 3464 2835 2044 1314 868
1350.0 660 535 456 422 403 387 377 369 362 367
1390.0 356 336 313 307 319 320 342 399 485 608
1430.0 788 1075 1517 2133 3044 4353 5930 7496 8660 9284
1470.0 9303 8648 7373 5851 4525 3584 3032 2721 2521 2365
1510.0 2144 1840 1535 1321 1198 1166 1192 1241 1294 1357
1550.0 1460 1594 1774 2034 2385 2851 3415 4044 4694 5351
1590.0 5927 6339 6598 6722 6678 6416 5894 5227 4532 3779
1630.0 3044 2392 1836 1406 1083 867 718 609 526 462
1670.0 426 392 349 318 288 269 258 241 236 230
1710.0 215 209 199 180 176 186 187 185 184 176
1750.0 172 157 143 152 152 142 125 124 132 136
1790.0 134 121 113 108 99 87 72 61 53 57
1830.0 55 40 42 50 55 54 67 95 114 140
1870.0 159 172 201 215 210 202 191 170 132 106
1910.0 78 47 35 36 25 11 7 10 28 36
1950.0 40 53 59 65 72 62 43 39 38 32
1990.0 23 21 23 26 20 7 1 0 2 6
2030.0 3 3 3 6 5 3 9 9 14 23
2070.0 16 12 14 14 15 18 25 25 17 12
2110.0 13 9 12 23 25 25 34 39 37 47
2150.0 57 47 34 24 19 23 30 40 44 52
2190.0 61 63 64 68 80 82 79 70 61 57
2230.0 45 35 33 35 25 16 25 41 47 39
2270.0 40 47 53 62 71 85 101 116 126 127
2310.0 135 137 124 117 108 97 102 116 131 134
2350.0 129 121 126 137 142 143 132 125 126 117
2390.0 105 103 97 94 90 94 100 98 106 107
2430.0 124 141 138 141 141 128 130 138 126 120
2470.0 121 130 140 137 132 128 115 108 106 100
2510.0 93 78 70 70 72 81 92 88 77 81
2550.0 86 79 72 72 67 62 50 40 35 23
2590.0 18 26 29 28 32 34 37 44 47 42
2630.0 38 44 39 26 33 41 40 38 34 28
2670.0 19 11 8 10 17 19 20 13 16 21
2710.0 14 34 57 47 40 68 85 91 104 120
2750.0 130 110 93 88 75 70 58 43 49 45
2790.0 29 41 55 58 75 90 102 121 133 134
2830.0 160 185 207 251 298 355 429 526 642 754
2870.0 847 915 954 969 960 946 947 955 974 1024
2910.0 1093 1165 1246 1347 1452 1540 1576 1574 1513 1379
2950.0 1206 1031 875 747 638 541 474 426 398 381
2990.0 380 387 401 442 497 585 709 865 1049 1244
3030.0 1440 1616 1747 1812 1811 1747 1642 1527 1435 1368
3070.0 1292 1193 1088 991 896 759 606 484 386 301
3110.0 223 166 136 126 109 81 64 51 55 54
3150.0 44 43 37 33 28 27 17 15 24 13
3190.0 10 18 24 34 37 26 36 42 29 28
3230.0 22 25 19 16 19 18 21 23 27 21
3270.0 20 31 27 25 11 14 16 40 48 46
3310.0 71 72 89 110 114 118 127 136 134 122
3350.0 124 140 159 153 145 142 135 137 130 130
3390.0 135 136 146 139 123 128 121 125 141 133
3430.0 119 126 116 100 92 85 76 66 74 81
3470.0 76 57 58 62 62 69 71 58 56 66
3510.0 86 83 65 64 60 72 61 60 81 79
3550.0 67 73 82 104 138 133 111 102 114 142
3590.0 151 167 213 252 302 384 484 652 910 1337
3630.0 2095 3314 5103 7271 8927 9538 9501 8789 7379 5290
3670.0 3030 1584 885 561 404 320 251 200 185 160
3710.0 122 123 123 100 97 116 120 95 98 100
3750.0 79 61 73 69 61 81 78 80 94 88
3790.0 91 108 107 109 119 130 113 110 130 141
3830.0 152 157 170 166 164
##END=
