##TITLE=(4'-Nitrobenzo)-15-crown-5
##JCAMP-DX=4.24
##DATA TYPE=INFRARED SPECTRUM
##ORIGIN=EPA-IR VAPOR PHASE LIBRARY
##OWNER=SRD/NIST
Collection (C) 2018 copyright by the U.S. Secretary of Commerce
on behalf of the United States of America. All rights reserved.
##CAS REGISTRY NO=60835-69-0
##MOLFORM=C 14 H 19 N O 7
##$NIST SOURCE=MSDC-IR
##STATE=gas
##XUNITS=1/CM
##YUNITS=ABSORBANCE
##XFACTOR=1.
##YFACTOR=0.001
##DELTAX=1.92898
##FIRSTX=549.8
##LASTX=4000.7
##FIRSTY=0.9315
##MAXX=4000.7
##MINX=549.759
##MAXY=0.018666
##MINY=0
##NPOINTS=1790
##XYDATA=(X++(Y..Y))
549.759 0.9315 0.8089 0.745 0.7458 0.8946 0.7451 0.671 0.234 0.014 0.6747
569.049 0.9357 0.9594 0.9987 0.8709 0.7004 0.7504 0.58549 0.281 0.316 0.53966
588.339 0.50877 0.362 0.4767 0.4633 0.5413 0.53568 0.54579 0.6255 0.5377 0.58654
607.628 0.6713 0.616 0.501506 0.386 0.5343 0.53116 0.287 0.373 0.4487 0.57933
626.918 0.5564 0.6448 0.9033 0.82 0.7757 0.8343 0.8121 0.8286 0.9006 0.9886
646.208 0.8063 1.0382 1.2344 1.1358 1.0843 0.7708 0.6994 0.6524 0.4822 0.51537
665.498 0.5997 0.56469 0.6886 0.6834 0.52403 0.458 0.4611 0.296 0 0.169
684.787 0.197 0.188 0.58281 0.6209 0.6416 0.646 0.603 0.58597 0.4716 0.6656
704.077 0.6352 0.55665 0.57234 0.52808 0.5632 0.5624 0.57152 0.59445 0.723 0.8634
723.367 1.0268 1.1273 1.1587 1.0257 1.1427 1.3412 1.2431 1.447 1.576 1.606
742.657 1.826 1.896 1.746 1.576 1.4194 1.0859 1.1291 1.2476 1.0094 1.0564
761.947 1.0969 1.0056 1.1633 1.2369 1.267 1.2555 1.1742 1.0678 1.1592 1.3869
781.236 1.2567 1.2766 1.3809 1.3669 1.3238 1.3983 1.566 1.646 1.946 2.346
800.526 2.606 3.066 3.566 3.896 3.786 3.436 3.206 2.706 2.306 2.026
819.816 1.846 1.716 1.626 1.546 1.736 1.946 1.746 1.576 1.4478 1.346
839.106 1.441 1.606 1.526 1.506 1.546 1.496 1.3639 1.3144 1.4349 1.496
858.395 1.796 2.006 1.866 1.836 2.036 2.246 2.356 2.456 2.506 2.406
877.685 2.066 1.846 1.776 1.626 1.646 1.866 1.876 1.686 1.766 1.846
896.975 1.966 1.996 2.036 1.966 1.816 1.996 2.166 2.226 2.276 2.256
916.265 2.216 2.446 2.736 2.976 3.256 3.576 3.726 3.786 3.866 3.836
935.555 3.656 3.526 3.556 3.606 3.696 3.496 3.206 3.166 2.956 2.866
954.844 2.916 2.896 2.926 2.976 3.006 2.986 2.926 2.756 2.516 2.236
974.134 2.306 2.586 2.526 2.376 2.516 2.846 2.896 2.646 2.566 2.736
993.424 2.826 2.706 2.396 2.236 2.346 2.186 2.296 2.516 2.636 2.796
1012.714 2.676 2.776 2.686 2.666 2.906 2.996 2.956 2.676 2.376 2.536
1032.003 2.946 3.076 3.496 3.626 3.786 4.526 4.686 4.666 4.956 5.066
1051.293 5.266 5.356 5.316 5.296 4.626 4.116 3.996 3.766 3.786 3.676
1070.583 3.316 3.006 3.166 3.836 4.006 4.036 4.196 4.306 4.836 5.096
1089.873 4.896 5.356 5.746 5.816 6.136 5.796 5.686 6.076 6.096 6.426
1109.163 6.706 7.486 7.986 8.296 9.386 9.366 9.196 10.156 10.956 11.716
1128.452 12.486 12.916 13.546 14.096 14.456 14.776 14.606 14.106 13.506 13.036
1147.742 12.576 11.626 10.826 10.196 9.316 8.326 7.396 6.676 5.896 5.136
1167.032 4.896 4.776 4.166 3.726 3.476 3.246 3.106 3.066 3.156 3.256
1186.322 3.016 3.136 3.306 2.936 3.266 3.536 3.796 4.416 4.606 4.826
1205.611 5.506 5.966 5.926 6.546 6.836 6.416 6.416 6.516 6.506 6.526
1224.901 6.726 6.676 6.426 6.406 6.496 6.576 6.666 6.966 7.266 7.356
1244.191 7.606 7.916 8.246 8.746 9.186 9.696 10.596 11.326 11.906 12.756
1263.481 14.126 15.546 16.636 17.826 18.666 18.576 17.896 16.826 15.226 13.566
1282.771 12.186 10.986 10.056 9.406 8.896 8.396 7.796 7.236 6.776 6.376
1302.060 6.006 5.746 5.426 5.166 5.176 5.126 4.896 4.766 4.736 4.706
1321.350 4.746 4.886 5.136 5.276 5.466 5.936 6.526 7.186 8.016 8.976
1340.640 10.266 11.966 13.796 15.526 16.846 17.496 17.246 16.036 14.106 12.006
1359.930 10.116 8.486 7.166 6.086 5.276 4.736 4.186 3.696 3.376 3.096
1379.219 2.876 2.676 2.476 2.276 2.146 2.066 1.956 1.886 1.846 1.826
1398.509 1.786 1.726 1.736 1.766 1.806 1.836 1.916 2.016 2.026 2.096
1417.799 2.346 2.506 2.436 2.446 2.466 2.336 2.236 2.116 2.006 2.056
1437.089 2.146 2.196 2.346 2.626 2.926 3.386 3.946 4.416 4.856 5.176
1456.378 5.326 5.206 4.846 4.476 4.146 3.966 3.916 3.836 3.786 3.906
1475.668 3.996 4.146 4.476 4.826 5.226 5.766 6.546 7.436 8.346 9.276
1494.958 10.196 11.016 11.496 11.566 11.296 10.706 9.976 9.116 8.246 7.496
1514.248 6.906 6.536 6.356 6.446 6.886 7.576 8.576 10.036 11.806 13.696
1533.538 15.356 16.526 16.786 16.016 14.406 12.196 9.896 7.936 6.396 5.306
1552.827 4.546 3.996 3.686 3.486 3.276 3.106 3.006 2.886 2.866 2.966
1572.117 3.026 3.136 3.336 3.506 3.706 4.026 4.236 4.356 4.336 4.236
1591.407 4.026 3.756 3.376 2.776 2.306 2.036 1.806 1.596 1.435 1.3015
1610.697 1.3267 1.3414 1.2152 1.0569 0.9682 0.9413 0.8996 0.8239 0.8348 0.8574
1629.986 0.781 0.7754 0.7979 0.8133 0.8212 0.7681 0.6879 0.6466 0.7354 0.8277
1649.276 0.7917 0.7854 0.7591 0.7128 0.739 0.792 0.7591 0.7086 0.7331 0.6601
1668.566 0.6137 0.7244 0.7281 0.6682 0.6603 0.6495 0.6031 0.58581 0.6655 0.722
1687.856 0.7108 0.658 0.55755 0.55735 0.6571 0.7116 0.7362 0.6905 0.6632 0.6769
1707.146 0.6846 0.5978 0.55821 0.6257 0.6717 0.7283 0.7649 0.7916 0.7742 0.7143
1726.435 0.622 0.5717 0.6407 0.7268 0.6585 0.5973 0.59495 0.5969 0.6942 0.6896
1745.725 0.6797 0.6779 0.6266 0.6079 0.6023 0.6339 0.6048 0.59489 0.6113 0.6232
1765.015 0.55584 0.54849 0.6276 0.6533 0.6311 0.54668 0.57581 0.6287 0.55699 0.5124
1784.305 0.56327 0.56987 0.55276 0.53911 0.51817 0.54621 0.54563 0.5549 0.5431 0.51268
1803.594 0.5662 0.5405 0.5525 0.603 0.50686 0.457 0.53251 0.55863 0.55518 0.53564
1822.884 0.505236 0.503586 0.52704 0.54314 0.55191 0.6319 0.6475 0.58482 0.57358 0.549
1842.174 0.56505 0.6362 0.6237 0.52648 0.5521 0.6658 0.673 0.6442 0.6129 0.616
1861.464 0.5564 0.51211 0.52926 0.54268 0.56519 0.52922 0.53945 0.639 0.6763 0.6151
1880.754 0.56571 0.5314 0.497295 0.4966 0.496999 0.55406 0.56762 0.52117 0.504786 0.499247
1900.043 0.54994 0.52419 0.50621 0.5448 0.6154 0.59547 0.499223 0.4922 0.51866 0.55854
1919.333 0.55951 0.56339 0.6048 0.682 0.6686 0.6281 0.6543 0.57288 0.551 0.58185
1938.623 0.58879 0.6327 0.5656 0.55191 0.653 0.7029 0.6933 0.6319 0.56752 0.5865
1957.913 0.58803 0.58142 0.6804 0.7433 0.7038 0.7019 0.7277 0.7648 0.7842 0.7234
1977.202 0.6866 0.689 0.6934 0.7347 0.7219 0.6885 0.6958 0.6808 0.6689 0.6398
1996.492 0.6783 0.6663 0.58621 0.54538 0.55288 0.6084 0.6579 0.6755 0.6228 0.56335
2015.782 0.57509 0.6185 0.6392 0.6258 0.6256 0.6934 0.7213 0.7012 0.6369 0.54582
2035.072 0.55401 0.6186 0.6426 0.6382 0.6266 0.6 0.6128 0.6336 0.6286 0.649
2054.362 0.6969 0.7319 0.7142 0.6339 0.624 0.7651 0.7239 0.54415 0.50672 0.5199
2073.651 0.54314 0.57818 0.54993 0.56095 0.54262 0.54772 0.58378 0.56973 0.6094 0.6452
2092.941 0.661 0.6508 0.6419 0.6529 0.6277 0.57887 0.52776 0.499657 0.52333 0.55475
2112.231 0.55427 0.53938 0.56473 0.6382 0.6285 0.56348 0.5464 0.49043 0.53356 0.5946
2131.521 0.52184 0.4719 0.54504 0.6 0.52847 0.4804 0.55375 0.6237 0.58145 0.57347
2150.810 0.52701 0.51207 0.57165 0.53874 0.4616 0.4735 0.497585 0.497687 0.57782 0.6164
2170.100 0.52693 0.4741 0.4675 0.4668 0.56499 0.6004 0.54305 0.54886 0.59419 0.632
2189.390 0.5712 0.4675 0.4461 0.50656 0.57505 0.4778 0.4142 0.4695 0.4799 0.4378
2208.680 0.49087 0.59259 0.5992 0.6043 0.6567 0.6809 0.59349 0.504204 0.48948 0.49556
2227.970 0.51019 0.54768 0.598 0.6107 0.5715 0.56293 0.56172 0.55077 0.57008 0.57679
2247.259 0.57638 0.49197 0.48699 0.4886 0.48804 0.52991 0.49363 0.53252 0.55478 0.52131
2266.549 0.51732 0.50987 0.5744 0.49463 0.51822 0.6273 0.51926 0.5103 0.53753 0.57556
2285.839 0.58444 0.50933 0.4607 0.4439 0.4065 0.4596 0.56151 0.6959 0.7191 0.5738
2305.129 0.57047 0.597 0.54269 0.58004 0.57342 0.52014 0.51085 0.48702 0.51559 0.56119
2324.418 0.4655 0.328 0.389 0.4292 0.4532 0.56622 0.57957 0.503311 0.53738 0.5972
2343.708 0.52723 0.4687 0.4497 0.4405 0.466 0.57758 0.6591 0.6219 0.54279 0.51483
2362.998 0.56277 0.53102 0.4524 0.4724 0.52567 0.53564 0.53792 0.56488 0.57113 0.55818
2382.288 0.54399 0.4721 0.505144 0.5976 0.54457 0.4709 0.499677 0.4691 0.4341 0.54097
2401.578 0.55828 0.5173 0.50924 0.4421 0.4053 0.4404 0.4686 0.502431 0.4215 0.382
2420.867 0.4857 0.54098 0.53695 0.58 0.58537 0.5663 0.604 0.56825 0.6045 0.6377
2440.157 0.55266 0.53705 0.59583 0.6259 0.58006 0.4785 0.4151 0.4717 0.54148 0.502434
2459.447 0.5307 0.6181 0.55817 0.5309 0.4648 0.43 0.57584 0.54609 0.48994 0.57833
2478.737 0.5357 0.4606 0.5423 0.56189 0.497288 0.56685 0.604 0.55089 0.59308 0.65
2498.026 0.6363 0.56662 0.6125 0.6745 0.6925 0.673 0.57279 0.57421 0.6746 0.678
2517.316 0.59118 0.6347 0.6561 0.55683 0.59596 0.676 0.6253 0.51888 0.4757 0.51654
2536.606 0.497593 0.52448 0.6101 0.6189 0.6077 0.627 0.6384 0.6621 0.6624 0.636
2555.896 0.6704 0.6582 0.6636 0.7813 0.7165 0.6423 0.7663 0.7257 0.6185 0.7175
2575.186 0.7188 0.6682 0.7571 0.7911 0.708 0.6727 0.7033 0.6369 0.6492 0.7229
2594.475 0.8669 0.8769 0.7206 0.6714 0.663 0.6804 0.58911 0.56962 0.6018 0.5421
2613.765 0.51254 0.6981 0.8398 0.7057 0.6264 0.6108 0.6789 0.7566 0.6488 0.59269
2633.055 0.6644 0.6475 0.6351 0.6497 0.6749 0.6654 0.6171 0.6487 0.6673 0.6643
2652.345 0.6815 0.761 0.7195 0.6074 0.58897 0.598 0.6104 0.58844 0.6111 0.6245
2671.634 0.55507 0.6254 0.6718 0.6024 0.6476 0.7794 0.9293 0.8526 0.784 0.7492
2690.924 0.6849 0.7704 0.8061 0.8094 0.7927 0.7891 0.8456 0.9324 0.9261 0.8265
2710.214 0.9063 0.8763 0.7771 0.9264 0.9874 1.0123 1.0414 0.9494 0.9672 0.9725
2729.504 0.8371 0.8623 1.0056 1.0141 1.0169 1.0671 1.0766 1.1221 1.0828 0.9559
2748.794 0.9531 1.0467 1.0833 1.1138 1.0272 0.937 0.9886 1.0464 1.1455 1.1364
2768.083 1.1217 1.1471 1.2129 1.2411 1.1059 1.078 1.2408 1.2808 1.3334 1.3895
2787.373 1.3201 1.3707 1.3933 1.2685 1.3439 1.606 1.616 1.516 1.526 1.606
2806.663 1.706 1.586 1.526 1.666 1.706 1.696 1.806 1.896 1.886 1.946
2825.953 1.986 1.976 2.056 2.146 2.326 2.466 2.476 2.666 3.076 3.376
2845.242 3.556 3.986 4.596 5.176 5.816 6.236 6.656 7.256 7.716 8.096
2864.532 8.256 8.326 8.416 8.366 8.226 7.996 7.766 7.636 7.516 7.406
2883.822 7.266 7.106 7.076 7.096 7.056 7.096 7.036 6.766 6.656 6.646
2903.112 6.516 6.386 6.326 6.316 6.236 6.256 6.366 6.366 6.396 6.526
2922.401 6.646 6.796 6.906 6.936 7.046 7.126 7.076 7.066 7.096 6.976
2941.691 6.926 6.866 6.666 6.506 6.366 6.126 5.856 5.416 5.076 4.856
2960.981 4.576 4.416 4.226 3.906 3.606 3.446 3.216 2.916 2.716 2.566
2980.271 2.456 2.346 2.316 2.176 1.876 1.616 1.4595 1.536 1.506 1.3783
2999.561 1.257 0.9931 0.8852 0.9436 0.8809 0.7801 0.8314 0.9575 0.8789 0.9837
3018.850 1.0101 0.8097 0.7593 0.7478 0.7184 0.6816 0.8632 0.9176 0.79 0.7803
3038.140 0.7237 0.838 0.8567 0.7652 0.7434 0.49214 0.4706 0.7052 0.8068 0.7859
3057.430 0.8002 0.7433 0.6889 0.7012 0.7622 0.7709 0.775 0.6337 0.4584 0.57223
3076.720 0.6874 0.7252 0.6421 0.6591 0.8234 0.8525 0.8663 0.9187 0.8528 0.8398
3096.009 0.8825 0.9091 0.8167 0.7283 0.55583 0.56272 0.7817 0.7159 0.4822 0.4719
3115.299 0.6614 0.5367 0.4513 0.649 0.6701 0.52564 0.4665 0.58471 0.6156 0.6505
3134.589 0.6675 0.54819 0.6339 0.6034 0.4094 0.369 0.54669 0.6704 0.6505 0.58246
3153.879 0.4645 0.4351 0.57746 0.6379 0.711 0.6307 0.36 0.341 0.384 0.347
3173.169 0.344 0.388 0.3 0.4066 0.476 0.368 0.384 0.327 0.389 0.398
3192.458 0.325 0.4703 0.6774 0.7036 0.6378 0.4807 0.4353 0.58514 0.51867 0.4695
3211.748 0.5069 0.4103 0.388 0.501055 0.58159 0.57687 0.4592 0.381 0.53132 0.58935
3231.038 0.59427 0.6412 0.56565 0.4731 0.55887 0.5981 0.4553 0.53083 0.389 0.22
3250.328 0.368 0.4462 0.344 0.4027 0.6771 0.56476 0.4221 0.4768 0.4292 0.302
3269.617 0.35 0.497995 0.4379 0.28 0.269 0.359 0.496992 0.4622 0.374 0.48882
3288.907 0.49321 0.375 0.249 0.214 0.218 0.194 0.29 0.4795 0.4563 0.327
3308.197 0.348 0.49066 0.4095 0.277 0.286 0.329 0.52733 0.55949 0.308 0.116
3327.487 0.226 0.4612 0.4141 0.279 0.33 0.302 0.318 0.53223 0.6765 0.6101
3346.777 0.51496 0.49287 0.56281 0.6289 0.59402 0.4126 0.363 0.37 0.351 0.4736
3366.066 0.55279 0.57401 0.57699 0.5997 0.4633 0.378 0.333 0.365 0.56578 0.6363
3385.356 0.4711 0.371 0.48903 0.56228 0.53499 0.379 0.345 0.4128 0.245 0.344
3404.646 0.666 0.6802 0.57022 0.361 0.324 0.343 0.265 0.369 0.48781 0.495251
3423.936 0.59053 0.4517 0.282 0.39 0.4425 0.371 0.36 0.50917 0.57467 0.4807
3443.225 0.4601 0.357 0.294 0.501428 0.4333 0.256 0.34 0.4387 0.4629 0.6316
3462.515 0.6252 0.57855 0.7199 0.7205 0.52887 0.233 0.179 0.229 0.362 0.4364
3481.805 0.4407 0.347 0.337 0.4471 0.356 0.314 0.4242 0.4639 0.369 0.294
3501.095 0.294 0.4537 0.4786 0.462 0.58349 0.6781 0.4551 0.298 0.3993 0.4385
3520.385 0.394 0.304 0.339 0.4016 0.3 0.204 0.211 0.4137 0.58629 0.55599
3539.674 0.51318 0.4174 0.4793 0.352 0.159 0.267 0.277 0.28 0.373 0.3986
3558.964 0.394 0.4549 0.383 0.302 0.391 0.312 0.36 0.4308 0.319 0.294
3578.254 0.263 0.218 0.315 0.4239 0.393 0.54359 0.504596 0.375 0.4458 0.505369
3597.544 0.3961 0.368 0.4501 0.391 0.4303 0.52091 0.446 0.4151 0.4675 0.4463
3616.833 0.294 0.383 0.49497 0.4713 0.57256 0.4753 0.272 0.227 0.389 0.4796
3636.123 0.4981 0.498348 0.409 0.353 0.318 0.197 0.301 0.4187 0.51738 0.68
3655.413 0.58234 0.441 0.395 0.54649 0.55249 0.357 0.378 0.52447 0.6521 0.6273
3674.703 0.396 0.259 0.327 0.4573 0.504253 0.375 0.391 0.4669 0.247 0.075
3693.993 0.106 0.322 0.36 0.289 0.4343 0.55291 0.4634 0.319 0.56141 0.6078
3713.282 0.4489 0.325 0.223 0.4061 0.58977 0.48703 0.50986 0.539 0.4066 0.386
3732.572 0.49295 0.5631 0.5275 0.52722 0.481 0.4837 0.4687 0.54612 0.6004 0.6776
3751.862 0.6671 0.427 0.377 0.50674 0.328 0.248 0.396 0.321 0.54244 0.53157
3771.152 0.171 0.182 0.201 0.171 0.263 0.332 0.318 0.236 0.117 0.125
3790.441 0.3 0.5196 0.7095 0.53785 0.254 0.364 0.285 0.19 0.445 0.3962
3809.731 0.299 0.234 0.291 0.429 0.3982 0.343 0.391 0.4421 0.392 0.371
3829.021 0.364 0.25 0.244 0.267 0.319 0.52535 0.4378 0.271 0.4037 0.305
3848.311 0.227 0.54354 0.54193 0.4041 0.4397 0.36 0.354 0.379 0.331 0.56144
3867.601 0.7004 0.6283 0.6114 0.656 0.55879 0.384 0.391 0.4074 0.4143 0.50945
3886.890 0.5343 0.4142 0.289 0.207 0.103 0.174 0.371 0.278 0.373 0.6262
3906.180 0.55013 0.499647 0.499435 0.382 0.505198 0.4134 0.363 0.4787 0.373 0.6085
3925.470 0.58816 0.51184 0.5973 0.55517 0.48944 0.341 0.4514 0.7176 0.8506 0.7802
3944.760 0.6817 0.6672 0.704 0.58594 0.382 0.438 0.59368 0.51967 0.369 0.4691
3964.049 0.51005 0.6098 0.7263 0.5131 0.4512 0.53234 0.48706 0.55623 0.6628 0.6676
3983.339 0.54628 0.291 0.278 0.58414 0.6171 0.6498 0.7413 0.54668 0.52074 0.54508
##END=
