##TITLE=2,6-Dinitro-p-cresol
##JCAMP-DX=4.24
##DATA TYPE=INFRARED SPECTRUM
##ORIGIN=EPA-IR VAPOR PHASE LIBRARY
##OWNER=SRD/NIST
Collection (C) 2018 copyright by the U.S. Secretary of Commerce
on behalf of the United States of America. All rights reserved.
##CAS REGISTRY NO=609-93-8
##MOLFORM=C 7 H 6 N 2 O 5
##$NIST SOURCE=MSDC-IR
##STATE=gas
##XUNITS=1/CM
##YUNITS=ABSORBANCE
##XFACTOR=1.
##YFACTOR=0.001
##DELTAX=3.85796
##FIRSTX=501.5
##LASTX=4000.7
##FIRSTY=0.15684
##MAXX=4000.7
##MINX=501.534
##MAXY=0.077918
##MINY=0
##NPOINTS=908
##XYDATA=(X++(Y..Y))
501.534 0.15684 0.11327 0.0482 0.3065 0.5107 0.5166 0.6107 0.7753 0.956 1.258
540.114 1.548 1.968 2.338 2.548 2.528 2.378 2.198 2.038 1.918 1.608
578.693 1.418 1.378 1.268 1.228 1.348 1.368 1.328 1.488 1.628 1.768
617.273 1.938 2.038 2.198 2.388 2.468 2.548 2.738 2.918 3.248 3.628
655.852 3.888 4.138 4.478 4.748 4.968 5.088 5.128 5.088 4.778 4.428
694.432 4.108 3.688 3.398 3.348 3.758 5.128 7.878 11.358 13.818 14.148
733.011 12.028 8.558 5.778 4.198 3.428 3.148 3.348 4.168 5.278 6.558
771.591 7.128 6.568 6.328 6.698 7.248 7.528 7.118 5.888 4.188 2.678
810.170 1.728 1.268 1.0738 0.9438 0.8755 0.8199 0.7607 0.7781 0.7689 0.7519
848.750 0.7566 0.829 1.0071 1.318 1.888 2.718 3.668 4.688 5.188 4.678
887.330 4.058 3.828 4.148 5.318 7.438 10.228 12.488 12.998 11.408 8.158
925.909 4.708 2.598 1.668 1.208 1.0342 1.0047 0.9787 0.9095 0.7943 0.6833
964.489 0.551 0.4768 0.4662 0.4192 0.4587 0.518 0.5734 0.6082 0.6142 0.6439
1003.068 0.6954 0.7443 0.7575 0.7019 0.6703 0.6374 0.5704 0.621 0.5853 0.6717
1041.648 0.8395 0.9945 1.188 1.238 1.208 1.268 1.338 1.228 1.0943 1.104
1080.227 1.208 1.388 1.668 2.078 2.668 3.358 3.938 4.358 4.528 4.268
1118.807 3.698 3.208 2.928 2.708 2.578 2.558 2.638 2.988 3.498 4.178
1157.387 5.168 6.358 7.558 8.308 8.398 7.868 6.808 5.638 4.708 3.898
1195.966 3.288 3.018 2.978 3.208 3.768 4.798 6.328 8.208 9.818 10.678
1234.546 10.988 11.378 12.668 15.508 19.898 25.248 30.158 32.768 32.048 28.378
1273.125 22.988 17.728 13.898 11.868 11.438 12.258 14.198 17.208 21.068 25.408
1311.705 29.518 32.558 34.068 34.158 33.398 32.548 31.998 31.828 31.948 32.138
1350.284 31.958 30.858 28.398 24.668 20.238 16.098 13.078 11.198 10.148 9.628
1388.864 9.388 9.308 9.378 9.728 10.558 11.848 13.348 14.828 16.038 16.768
1427.443 16.798 15.988 14.468 12.538 10.698 9.328 8.568 8.348 8.588 9.248
1466.023 10.208 11.258 12.118 12.458 12.108 11.208 10.018 8.968 8.368 8.268
1504.603 8.648 9.528 10.928 12.828 15.188 17.968 21.178 25.078 30.178 37.238
1543.182 47.188 59.298 70.848 77.918 77.268 66.738 51.648 38.288 29.398 24.638
1581.762 22.418 20.758 18.728 16.128 13.278 10.708 8.868 7.738 7.108 6.878
1620.341 7.098 7.838 9.048 10.378 11.598 12.298 12.188 11.158 9.428 7.318
1658.921 5.368 3.798 2.718 2.048 1.638 1.398 1.278 1.208 1.138 1.0542
1697.500 0.9649 0.8796 0.808 0.7247 0.6209 0.5593 0.5539 0.5375 0.5032 0.483
1736.080 0.4824 0.4782 0.4441 0.3965 0.3507 0.3537 0.3769 0.3857 0.3901 0.4257
1774.659 0.498 0.6125 0.7439 0.8726 0.9995 1.0669 1.0469 0.9275 0.7666 0.6005
1813.239 0.4439 0.3509 0.324 0.3076 0.2994 0.3004 0.2815 0.2727 0.26 0.2419
1851.819 0.21388 0.16987 0.18019 0.17696 0.15908 0.18088 0.16488 0.13394 0.123751 0.1076
1890.398 0.1031 0.1069 0.11264 0.126972 0.13294 0.11524 0.0911 0.0905 0.0927 0.0924
1928.978 0.0823 0.0858 0.0932 0.1043 0.120378 0.1018 0.099 0.1035 0.0958 0.0967
1967.557 0.0924 0.0904 0.0796 0.0738 0.0756 0.0686 0.0651 0.0534 0.0464 0.0479
2006.137 0.0425 0.0414 0.054 0.054 0.072 0.1035 0.0945 0.0627 0.0509 0.0488
2044.716 0.0448 0.0591 0.0778 0.0882 0.0768 0.0862 0.1049 0.1052 0.1003 0.0861
2083.296 0.0706 0.0846 0.122201 0.1304 0.11123 0.1007 0.1042 0.1 0.1013 0.0929
2121.875 0.0931 0.0894 0.0968 0.1053 0.0842 0.0647 0.059 0.0424 0.0339 0.0345
2160.455 0.008 0.001 0.0241 0.0356 0.0315 0.016 0.011 0.01 0 0.018
2199.035 0.0257 0.0272 0.0354 0.071 0.088 0.0592 0.0568 0.0586 0.0672 0.0714
2237.614 0.0703 0.0799 0.0891 0.0949 0.1096 0.11623 0.121579 0.14766 0.17175 0.17689
2276.194 0.18375 0.19866 0.19949 0.18871 0.16304 0.14398 0.14988 0.14481 0.1046 0.0979
2314.773 0.0789 0.0581 0.0918 0.1011 0.13192 0.17868 0.17063 0.16163 0.20581 0.2236
2353.353 0.20556 0.20357 0.21182 0.2323 0.2449 0.2541 0.2669 0.2729 0.2634 0.2495
2391.932 0.2416 0.2169 0.18612 0.18728 0.20249 0.20059 0.20771 0.2414 0.267 0.2624
2430.512 0.2707 0.3012 0.3296 0.3212 0.3353 0.3612 0.356 0.3542 0.3429 0.3607
2469.092 0.3837 0.3405 0.3164 0.308 0.2865 0.2884 0.2911 0.2803 0.2667 0.2799
2507.671 0.2971 0.306 0.2948 0.2874 0.3076 0.3302 0.3467 0.3474 0.3312 0.3372
2546.251 0.3667 0.3669 0.3694 0.374 0.3796 0.4011 0.4082 0.4291 0.4187 0.3856
2584.830 0.3768 0.3816 0.4145 0.4152 0.3771 0.3684 0.384 0.4159 0.4347 0.4416
2623.410 0.4644 0.5078 0.5116 0.4861 0.5049 0.4911 0.4551 0.4505 0.4534 0.448
2661.989 0.4344 0.4433 0.4515 0.4764 0.484 0.4697 0.4799 0.5098 0.5184 0.5337
2700.569 0.5898 0.6427 0.659 0.6587 0.6396 0.6008 0.6292 0.6757 0.7243 0.7565
2739.148 0.749 0.737 0.7274 0.7479 0.7616 0.7397 0.7026 0.6745 0.7091 0.723
2777.728 0.7123 0.7386 0.767 0.7985 0.798 0.775 0.8047 0.8585 0.8777 0.8855
2816.308 0.9142 0.9788 1.0229 1.0221 1.0348 1.0888 1.138 1.228 1.318 1.398
2854.887 1.518 1.658 1.828 2.018 2.228 2.388 2.468 2.548 2.548 2.498
2893.467 2.478 2.458 2.478 2.528 2.538 2.618 2.718 2.838 3.028 3.308
2932.046 3.708 4.088 4.188 3.968 3.558 3.038 2.508 2.138 1.938 1.798
2970.626 1.678 1.588 1.518 1.498 1.458 1.428 1.448 1.488 1.488 1.478
3009.205 1.518 1.588 1.628 1.658 1.698 1.658 1.578 1.508 1.428 1.378
3047.785 1.358 1.368 1.368 1.398 1.468 1.548 1.618 1.668 1.668 1.688
3086.364 1.708 1.618 1.478 1.378 1.358 1.408 1.498 1.508 1.508 1.568
3124.944 1.658 1.678 1.708 1.828 1.918 2.048 2.188 2.358 2.508 2.608
3163.524 2.728 2.918 3.128 3.258 3.428 3.618 3.838 4.098 4.328 4.558
3202.103 4.818 5.048 5.298 5.458 5.618 5.818 5.958 6.068 6.128 6.218
3240.683 6.248 6.248 6.238 6.218 6.228 6.158 6.048 5.958 5.848 5.728
3279.262 5.598 5.418 5.308 5.248 5.168 5.058 4.928 4.838 4.788 4.668
3317.842 4.548 4.468 4.358 4.248 4.168 4.098 4.008 3.888 3.768 3.688
3356.421 3.588 3.468 3.378 3.288 3.178 3.058 2.938 2.858 2.808 2.708
3395.001 2.588 2.548 2.498 2.398 2.328 2.278 2.208 2.158 2.028 1.968
3433.580 1.938 1.888 1.838 1.738 1.708 1.718 1.728 1.688 1.628 1.628
3472.160 1.608 1.508 1.398 1.398 1.418 1.328 1.258 1.248 1.268 1.208
3510.740 1.168 1.178 1.128 1.128 1.198 1.188 1.1024 1.0345 1.0446 1.0505
3549.319 0.9898 0.9037 0.9079 0.9006 0.812 0.749 0.7185 0.677 0.6239 0.583
3587.899 0.5368 0.5353 0.5383 0.5246 0.5291 0.4647 0.4017 0.4107 0.4071 0.3898
3626.478 0.394 0.393 0.3582 0.3176 0.3238 0.2986 0.2747 0.3201 0.2522 0.17854
3665.058 0.2837 0.3136 0.18291 0.12296 0.15803 0.15048 0.18049 0.2359 0.2127 0.16596
3703.637 0.122141 0.16868 0.1982 0.17812 0.1923 0.16777 0.12681 0.1023 0.0818 0.0916
3742.217 0.0975 0.0819 0.11304 0.095 0.066 0.0805 0.0685 0.1047 0.13579 0.0897
3780.797 0.0864 0.11066 0.0517 0.0261 0.0998 0.15451 0.127944 0.124456 0.0871 0.0663
3819.376 0.1055 0.0648 0.0753 0.10839 0.0636 0.0307 0.0797 0.16145 0.17227 0.13185
3857.956 0.1043 0.12108 0.10936 0.125103 0.1555 0.0925 0.0462 0.0826 0.14698 0.13114
3896.535 0.0699 0.0732 0.0669 0.0687 0.0912 0.0973 0.0725 0.0688 0.0888 0.0626
3935.115 0.0702 0.0387 0.011 0.044 0.0645 0.0955 0.13333 0.10868 0.0779 0.12864
3973.694 0.126769 0.0561 0.0726 0.14909 0.14416 0.0921 0.0439 0.0969
##END=
