##TITLE=3-Ethyl-2-methylpentane
##JCAMP-DX=4.24
##DATA TYPE=INFRARED SPECTRUM
##ORIGIN=NIST Mass Spectrometry Data Center
##OWNER=NIST Standard Reference Data Program
Collection (C) 2018 copyright by the U.S. Secretary of Commerce
on behalf of the United States of America. All rights reserved.
##CAS REGISTRY NO=609-26-7
##MOLFORM=C 8 H 18
##$NIST SOURCE=MSDC-IR
##SPECTROMETER/DATA SYSTEM=HP-GC/MS/IRD
##STATE=gas
##XUNITS=1/CM
##YUNITS=ABSORBANCE
##XFACTOR=1.0
##YFACTOR=0.000000700
##DELTAX=4.0
##FIRSTX=550.0
##LASTX=3846.0
##FIRSTY=0.000279
##MAXX=3846
##MINX=550
##MAXY=0.007
##MINY=0
##NPOINTS=825
##XYDATA=(X++(Y..Y))
550.0 398 268 134 120 146 225 248 159 16 73
590.0 182 166 214 249 249 198 220 244 185 182
630.0 177 170 170 181 182 155 135 129 109 75
670.0 67 97 164 130 136 72 2 68 159 216
710.0 212 187 181 189 147 126 142 156 151 137
750.0 140 176 227 236 231 237 241 237 217 225
790.0 227 178 187 218 228 195 174 212 141 129
830.0 251 308 314 245 252 266 200 185 181 187
870.0 207 177 158 234 267 230 238 241 256 259
910.0 277 279 290 307 278 276 298 310 277 242
950.0 230 229 203 186 165 126 116 134 173 166
990.0 141 159 183 241 260 208 194 213 238 282
1030.0 291 265 245 217 181 164 164 160 171 154
1070.0 187 199 154 164 180 200 195 173 248 275
1110.0 272 329 364 429 423 350 360 394 390 383
1150.0 340 314 316 321 334 340 326 308 355 361
1190.0 365 363 323 285 263 279 297 312 335 357
1230.0 334 284 281 240 264 323 330 330 344 353
1270.0 334 332 332 330 357 389 390 341 304 327
1310.0 382 410 411 404 393 397 355 322 327 376
1350.0 429 465 535 620 733 884 994 1089 1194 1213
1390.0 1138 988 829 673 523 430 365 330 348 368
1430.0 371 385 456 570 687 845 1037 1188 1275 1337
1470.0 1336 1222 1070 929 770 628 549 454 359 332
1510.0 323 308 295 265 244 244 243 246 248 225
1550.0 216 218 237 223 195 180 178 165 189 205
1590.0 215 234 216 206 174 159 178 181 174 172
1630.0 184 217 203 182 188 200 226 218 208 202
1670.0 190 171 181 226 229 219 221 213 194 202
1710.0 211 212 239 208 170 187 199 190 189 187
1750.0 167 161 161 149 150 178 193 182 153 143
1790.0 159 156 158 154 148 153 174 176 176 169
1830.0 145 150 146 131 147 155 139 143 139 127
1870.0 135 132 122 133 135 119 119 120 134 119
1910.0 105 108 100 127 135 104 84 96 111 94
1950.0 83 103 115 110 103 91 80 89 113 132
1990.0 117 110 102 92 103 126 119 91 101 102
2030.0 107 103 104 97 74 77 84 92 106 97
2070.0 86 101 106 96 93 93 121 117 83 108
2110.0 126 67 47 77 89 81 52 38 40 56
2150.0 66 76 77 59 54 62 68 77 90 89
2190.0 71 69 75 66 47 32 61 88 56 31
2230.0 59 71 63 76 80 62 57 56 52 48
2270.0 35 55 78 83 79 55 59 51 41 55
2310.0 37 32 46 50 30 2 20 35 30 57
2350.0 49 23 34 51 44 44 58 60 56 56
2390.0 44 39 64 68 43 50 65 50 39 39
2430.0 49 39 34 40 33 55 88 74 19 18
2470.0 44 42 27 8 13 37 36 29 41 30
2510.0 32 43 24 37 57 55 54 58 34 12
2550.0 20 14 2 21 54 66 77 59 57 82
2590.0 102 119 118 120 115 99 79 59 66 98
2630.0 103 88 94 98 83 98 85 42 83 102
2670.0 64 47 60 72 61 73 100 88 63 76
2710.0 106 132 152 153 169 169 164 180 179 145
2750.0 149 182 165 171 175 166 163 161 175 170
2790.0 162 185 227 248 254 296 348 341 354 419
2830.0 464 522 629 739 885 1106 1437 1790 2189 2636
2870.0 3150 3722 4100 4313 4392 4296 4076 3835 3616 3487
2910.0 3536 3764 4110 4552 5042 5501 5858 6116 6357 6597
2950.0 7006 7731 8631 9537 10000 9666 8760 7387 5790 4278
2990.0 3083 2240 1647 1286 1020 865 764 662 619 542
3030.0 495 477 437 407 375 355 304 268 316 306
3070.0 256 241 264 252 243 227 203 203 177 170
3110.0 171 192 176 173 198 181 137 103 127 166
3150.0 152 149 147 156 146 112 85 94 138 125
3190.0 117 119 95 76 78 78 69 28 15 68
3230.0 63 38 29 35 16 5 25 53 72 67
3270.0 43 19 35 46 64 63 45 12 20 31
3310.0 12 52 60 67 66 63 73 90 95 59
3350.0 59 76 64 45 34 54 65 67 87 89
3390.0 63 71 68 69 66 19 0 50 82 104
3430.0 94 51 26 45 78 38 41 53 58 69
3470.0 45 72 100 53 38 68 102 115 86 41
3510.0 57 95 107 115 69 66 77 54 13 78
3550.0 168 111 47 58 81 112 131 144 136 102
3590.0 92 81 94 145 167 134 121 122 96 101
3630.0 102 143 158 128 112 109 134 98 99 121
3670.0 133 162 107 49 96 118 100 128 139 110
3710.0 79 88 84 75 127 133 122 109 81 77
3750.0 71 120 160 156 137 108 71 105 152 100
3790.0 106 154 129 93 73 45 31 72 130 112
3830.0 79 71 100 114 117
##END=
