##TITLE=Ethyl 2-bromobenzoate
##JCAMP-DX=4.24
##DATA TYPE=INFRARED SPECTRUM
##ORIGIN=EPA-IR VAPOR PHASE LIBRARY
##OWNER=SRD/NIST
Collection (C) 2018 copyright by the U.S. Secretary of Commerce
on behalf of the United States of America. All rights reserved.
##CAS REGISTRY NO=6091-64-1
##MOLFORM=C 9 H 9 Br O 2
##$NIST SOURCE=MSDC-IR
##STATE=gas
##XUNITS=1/CM
##YUNITS=ABSORBANCE
##XFACTOR=1.
##YFACTOR=0.001
##DELTAX=1.92898
##FIRSTX=549.8
##LASTX=4000.7
##FIRSTY=1.2725
##MAXX=4000.7
##MINX=549.759
##MAXY=0.146435
##MINY=0
##NPOINTS=1790
##XYDATA=(X++(Y..Y))
549.759 1.2725 1.815 1.5172 1.4442 1.646 1.434 2.225 1.905 0.9131 1.3661
569.049 1.665 0.6199 0.375 0.7948 0.9321 0.9569 1.0603 0.8933 0.5 0.9002
588.339 1.6532 1.1046 0.246 0.353 0.11 0.474 0.7748 0.526 1.1678 1.4303
607.628 1.4803 1.735 1.3661 1.2957 1.3181 1.6181 1.563 1.2086 1.5191 1.0327
626.918 1.065 1.705 1.985 2.635 3.005 3.745 5.255 6.615 7.225 7.425
646.208 7.725 8.035 7.515 6.245 4.875 3.985 3.375 2.805 2.615 2.305
665.498 1.955 1.925 2.455 2.625 2.575 2.595 2.445 3.225 4.585 5.515
684.787 6.385 7.635 8.925 10.155 11.295 12.305 12.925 12.805 12.065 11.235
704.077 10.375 9.155 8.075 7.025 6.045 4.925 4.105 4.485 5.295 6.285
723.367 8.065 10.575 13.725 17.825 23.395 29.855 36.275 43.015 50.745 57.765
742.657 59.105 53.245 44.985 38.585 33.165 27.405 21.495 16.185 12.505 10.365
761.947 8.945 7.935 7.615 6.885 6.185 6.355 6.405 5.805 5.405 5.475
781.236 5.725 5.425 5.045 4.495 4.375 4.585 4.395 4.465 3.865 3.485
800.526 3.815 3.645 3.105 2.945 3.075 3.305 3.095 2.835 2.055 1.1991
819.816 0.468 0.9868 2.685 2.485 2.795 3.685 3.815 4.245 4.485 4.835
839.106 4.995 5.225 5.995 6.375 6.455 6.615 7.295 7.845 7.495 7.315
858.395 7.485 6.885 6.105 6.215 6.155 6.115 6.385 6.225 5.885 5.845
877.685 5.345 4.855 4.465 3.715 3.235 2.745 2.445 2.595 2.715 2.655
896.975 2.625 2.535 2.245 2.155 2.215 2.205 2.075 2.145 2.575 2.355
916.265 2.295 2.685 2.625 2.595 2.585 2.415 2.465 2.495 2.695 2.985
935.555 2.975 2.695 2.485 2.915 3.355 2.945 3.085 3.595 3.725 4.095
954.844 3.945 3.705 3.435 2.895 2.845 3.095 3.285 3.415 3.525 3.585
974.134 3.265 3.525 3.975 4.115 4.125 4.355 4.925 5.105 5.145 5.535
993.424 6.535 7.605 8.475 9.825 11.215 12.245 13.505 14.855 15.485 16.135
1012.714 17.845 19.285 20.175 22.765 25.645 27.985 31.235 34.305 36.345 38.495
1032.003 41.435 44.755 48.395 52.195 54.605 55.195 54.975 52.895 49.685 45.135
1051.293 38.405 31.135 24.425 18.735 14.965 12.455 11.225 10.125 8.425 7.835
1070.583 7.655 7.595 8.625 10.185 10.835 12.255 13.655 15.505 18.725 22.225
1089.873 26.795 31.215 37.085 43.375 50.285 59.015 67.075 73.845 80.695 86.135
1109.163 90.085 92.205 92.915 93.415 93.745 93.665 91.085 88.765 87.955 87.105
1128.452 86.775 84.075 78.455 72.875 65.875 57.455 48.855 41.135 34.665 29.525
1147.742 24.955 21.425 19.135 18.375 18.805 17.575 16.275 16.325 16.455 16.435
1167.032 16.275 15.005 13.985 13.605 13.225 12.525 10.765 10.085 9.405 8.575
1186.322 8.995 8.475 8.435 8.395 7.515 7.635 7.845 7.635 6.495 7.035
1205.611 8.915 8.855 8.335 9.475 10.725 12.475 14.675 17.015 20.485 23.995
1224.901 27.495 31.395 36.735 43.765 52.465 61.955 72.785 84.375 95.455 105.545
1244.191 112.635 115.535 113.515 107.475 98.915 86.865 73.865 63.325 55.845 52.155
1263.481 52.395 55.795 60.885 67.595 76.265 86.865 97.735 108.515 119.815 131.015
1282.771 140.085 144.995 146.435 143.535 135.735 125.035 111.825 96.875 82.385 69.165
1302.060 57.595 48.015 40.305 34.265 29.575 25.995 22.825 19.995 17.545 15.505
1321.350 13.765 12.145 10.845 9.845 8.955 8.235 7.855 7.295 6.625 6.335
1340.640 6.155 5.955 5.785 5.685 5.895 6.335 6.605 6.915 7.655 8.735
1359.930 10.415 12.365 14.405 16.085 16.875 17.145 16.875 16.105 14.755 12.865
1379.219 11.065 9.655 8.775 8.275 8.005 7.925 7.825 7.845 8.005 8.355
1398.509 8.435 8.435 8.675 8.855 9.065 9.285 9.505 9.995 10.675 11.425
1417.799 12.485 13.835 15.205 16.955 18.955 20.685 22.235 23.395 24.315 24.905
1437.089 24.765 23.835 22.435 20.595 18.675 16.735 14.875 13.845 13.195 13.065
1456.378 13.755 14.965 16.335 17.425 18.475 19.735 20.355 20.215 19.755 18.765
1475.668 17.145 15.125 13.185 11.385 9.965 8.875 7.815 7.155 6.735 6.055
1494.958 5.615 5.355 4.975 4.825 4.655 4.345 4.185 4.035 4.035 3.995
1514.248 3.735 3.625 3.685 3.535 3.525 3.615 3.685 3.625 3.555 3.725
1533.538 3.765 3.605 3.555 3.655 3.565 3.425 3.425 3.685 4.015 4.265
1552.827 4.555 5.175 5.835 6.195 7.015 7.785 8.005 8.555 8.955 9.125
1572.117 9.365 9.325 9.375 9.765 10.515 11.705 13.175 14.545 15.575 15.955
1591.407 15.665 15.215 14.165 12.575 10.705 8.775 7.335 6.275 5.665 5.095
1610.697 4.685 4.265 3.715 3.655 3.845 3.845 3.625 3.515 3.395 3.035
1629.986 2.995 3.055 3.135 3.335 3.365 3.285 3.225 3.335 3.255 2.965
1649.276 3.075 3.205 3.165 3.445 3.475 3.355 3.785 3.925 3.875 4.085
1668.566 4.245 4.495 4.575 4.605 5.065 5.515 5.705 5.935 6.245 6.545
1687.856 7.075 7.615 8.255 8.955 9.555 10.365 11.345 12.315 13.315 14.795
1707.146 16.375 17.855 19.775 22.125 24.715 27.825 31.705 35.635 39.785 44.545
1726.435 49.815 55.545 61.925 68.425 75.345 82.115 87.935 93.595 98.405 101.825
1745.725 103.745 103.975 102.705 100.295 96.705 91.975 86.105 79.415 71.535 62.895
1765.015 54.225 45.925 38.415 32.455 27.165 22.835 19.145 16.065 13.755 11.875
1784.305 10.465 9.215 8.295 7.615 6.985 6.515 6.195 5.885 5.645 5.465
1803.594 5.375 5.225 4.995 4.845 4.835 4.775 4.415 4.125 3.965 3.845
1822.884 3.605 3.245 3.305 3.365 3.245 3.055 3.095 3.165 2.915 2.845
1842.174 2.815 2.635 2.605 2.515 2.275 2.205 2.215 2.065 1.955 2.105
1861.464 2.005 2.075 2.175 1.875 1.845 1.995 1.975 1.895 2.135 2.385
1880.754 2.325 2.225 2.245 2.365 2.405 2.385 2.305 2.245 2.245 2.385
1900.043 2.485 2.425 2.355 2.375 2.545 2.635 2.785 2.935 2.975 2.975
1919.333 3.105 3.325 3.205 3.135 3.125 3.105 2.905 2.525 2.495 2.415
1938.623 2.325 2.365 2.325 2.495 2.755 2.865 2.925 2.955 3.035 3.065
1957.913 2.905 2.595 2.365 2.365 2.385 2.285 2.095 2.055 2.015 1.785
1977.202 1.845 1.945 1.885 1.795 1.855 1.935 1.825 1.785 1.675 1.675
1996.492 1.5788 1.4792 1.5515 1.5374 1.6017 1.5891 1.5492 1.564 1.4093 1.3859
2015.782 1.5757 1.715 1.6113 1.3061 1.3649 1.521 1.4923 1.5498 1.5674 1.373
2035.072 1.1956 1.2254 1.2468 1.338 1.3342 1.2444 1.2559 1.1937 1.1017 1.1784
2054.362 1.2651 1.3717 1.4779 1.4562 1.393 1.4347 1.3824 1.236 1.3006 1.4166
2073.651 1.4961 1.4138 1.3574 1.6243 1.825 1.715 1.4844 1.4785 1.5672 1.5578
2092.941 1.569 1.695 1.785 1.655 1.705 1.705 1.4554 1.4833 1.745 1.6234
2112.231 1.5456 1.665 1.5117 1.457 1.685 1.845 1.845 1.685 1.775 1.885
2131.521 1.885 1.905 1.665 1.5759 1.675 1.695 1.6306 1.4816 1.4524 1.5535
2150.810 1.5374 1.4052 1.3106 1.4019 1.3511 1.2033 1.2363 1.1987 1.3328 1.4107
2170.100 1.2318 1.155 1.0572 1.0902 1.1627 1.2462 1.2399 1.1737 1.181 1.2441
2189.390 1.2312 1.2649 1.2494 1.1641 1.2164 0.9694 1.0055 1.1857 1.0064 1.0486
2208.680 1.2037 1.2433 1.2473 1.3581 1.332 1.2037 1.3912 1.5042 1.3532 1.1818
2227.970 1.1738 1.2708 1.3901 1.4088 1.5293 1.5321 1.3428 1.3643 1.5162 1.6098
2247.259 1.5189 1.3892 1.3222 1.5062 1.745 1.568 1.4958 1.5746 1.572 1.609
2266.549 1.4133 1.4775 1.4388 1.2075 1.2027 1.2155 1.3856 1.4669 1.3866 1.3663
2285.839 1.4304 1.5301 1.735 1.755 1.4441 1.2529 1.5122 1.6494 1.4371 1.4303
2305.129 1.5261 1.3753 1.1882 1.3003 1.3102 1.3427 1.5478 1.5521 1.4809 1.4838
2324.418 1.6444 1.845 1.705 1.5328 1.3663 1.3528 1.3032 1.0439 1.1549 1.1844
2343.708 1.295 1.4713 1.4744 1.5582 1.5132 1.3254 1.4204 1.5802 1.4884 1.4955
2362.998 1.4032 1.1857 1.1808 1.2573 1.5267 1.835 1.915 1.725 1.6183 1.6172
2382.288 1.498 1.255 1.3256 1.5505 1.5482 1.4471 1.488 1.6272 1.6123 1.725
2401.578 1.6336 1.5065 1.4576 1.3441 1.2883 1.474 1.4532 1.2708 1.5556 1.5049
2420.867 1.1212 1.0583 1.3398 1.4222 1.1694 1.1659 1.219 1.2083 1.0955 1.1877
2440.157 1.1918 1.0104 1.1716 1.5913 1.665 1.2327 1.2924 1.3346 1.2702 1.3648
2459.447 1.3252 1.2987 1.2342 1.2967 1.2546 1.2422 1.4373 1.39 1.2096 1.1604
2478.737 1.1421 0.9752 0.8986 0.8842 1.0396 1.3583 1.3999 1.1752 1.1572 1.349
2498.026 1.2198 1.0032 1.2186 1.4746 1.3495 1.2792 1.4781 1.3451 1.3148 1.6446
2517.316 1.5362 1.1648 1.167 1.2209 1.2344 1.3427 1.3709 1.3918 1.1428 1.1235
2536.606 1.551 1.6285 1.3847 1.368 1.5102 1.517 1.5986 1.5401 1.1847 1.387
2555.896 1.5876 1.3038 1.2206 1.4574 1.5365 1.6115 1.5159 1.2883 1.2574 1.2838
2575.186 1.2812 1.2071 1.5549 1.6442 1.3237 1.2171 1.2654 1.3645 1.543 1.522
2594.475 1.675 1.3627 1.0641 1.5858 1.4647 1.2872 1.1659 0.97 1.1001 1.2767
2613.765 1.5186 1.745 1.755 1.5739 1.4562 1.0959 0.8388 0.9135 0.9977 1.0427
2633.055 1.3006 1.437 1.1753 0.9285 1.0324 1.135 0.67642 0.74358 0.71321 0.67371
2652.345 0.958 1.0397 1.2903 1.4399 1.2136 1.13 1.2539 1.199 1.3554 1.2406
2671.634 1.0719 0.8225 0.6305 0.9924 1.0325 0.9811 0.9475 0.512 0.69727 1.2642
2690.924 1.2993 1.4324 1.4651 1.3301 1.381 1.2737 1.2501 1.2648 1.2218 1.1338
2710.214 1.1709 1.433 1.4706 1.3124 1.1308 1.1472 1.3137 1.2506 1.3286 1.2866
2729.504 1.3513 1.5822 1.4757 1.2319 1.168 1.2299 1.2441 1.4036 1.3817 1.5313
2748.794 1.725 1.4916 1.3627 1.2884 1.4502 1.665 1.4096 1.3615 1.3012 1.4774
2768.083 1.5828 1.2811 1.4229 1.522 1.3996 1.6018 1.745 1.5861 1.5888 1.4063
2787.373 1.5506 1.5897 1.4674 1.5877 1.428 1.3695 1.4722 1.5734 1.5628 1.4848
2806.663 1.4349 1.675 1.865 1.855 1.825 1.705 2.025 2.015 2.055 2.455
2825.953 2.525 2.565 2.415 2.225 2.235 1.925 1.745 2.035 2.215 2.395
2845.242 2.375 2.335 2.685 2.885 2.525 2.105 2.425 2.975 3.105 3.375
2864.532 3.495 3.305 3.225 3.735 4.225 4.345 4.515 4.745 5.125 5.645
2883.822 6.045 6.175 6.145 6.195 6.425 6.505 6.435 6.375 6.365 6.595
2903.112 6.695 6.865 6.775 6.755 7.355 7.565 7.625 7.535 7.435 7.755
2922.401 8.025 7.885 7.895 8.175 8.585 9.615 10.445 11.145 12.375 13.475
2941.691 14.365 14.845 14.935 15.105 14.665 13.925 13.125 12.295 11.915 11.525
2960.981 11.765 12.305 13.025 14.285 15.195 16.165 17.435 19.105 20.805 22.565
2980.271 24.895 26.915 28.485 28.925 28.315 27.705 26.125 23.765 21.595 19.565
2999.561 17.915 16.185 14.905 13.945 12.925 11.875 10.965 10.495 9.695 8.955
3018.850 8.465 7.495 6.585 6.355 6.095 5.645 5.425 4.945 4.515 4.405
3038.140 4.315 4.325 3.865 3.635 4.195 4.585 4.735 5.195 5.595 6.465
3057.430 7.695 8.905 9.895 10.205 10.935 11.755 12.255 12.865 13.105 13.345
3076.720 13.315 12.925 12.415 11.605 10.325 8.545 7.285 6.575 6.045 5.065
3096.009 4.275 3.975 3.425 3.065 2.785 2.515 2.435 2.555 2.735 2.795
3115.299 2.645 2.245 2.485 2.805 2.595 2.635 2.475 2.185 2.535 2.765
3134.589 2.415 2.335 2.385 2.495 2.435 2.175 1.975 1.845 1.5903 1.3266
3153.879 1.2369 1.397 1.765 1.685 1.3772 1.543 1.5886 1.1827 1.144 1.1413
3173.169 1.1237 1.42 1.855 1.885 1.3726 1.685 1.835 1.3709 1.4183 1.562
3192.458 1.4316 1.3087 1.695 2.025 1.835 1.563 1.1062 0.8462 1.1416 1.1574
3211.748 1.0343 1.1294 1.422 1.5211 1.5001 1.2983 0.994 0.8668 0.9465 1.0187
3231.038 0.9373 0.8868 0.7617 0.5913 0.7899 1.1115 1.1193 0.9786 0.70444 0.6414
3250.328 0.66374 0.72982 0.831 0.9689 1.1478 1.0902 0.9045 1.0833 1.6048 1.745
3269.617 1.765 1.5712 0.9689 1.0373 1.1841 1.2204 1.237 0.9244 1.0598 1.1395
3288.907 0.9385 1.2288 1.3039 1.1077 1.0565 1.146 1.1305 0.664822 0.196 0.6436
3308.197 1.2144 1.0001 0.66824 0.8527 0.8904 0.9654 1.3189 0.54 0 0.75323
3327.487 0.9993 0.6438 0.8462 1.0527 0.9444 1.0283 1.1025 1.1739 1.2955 1.4267
3346.777 1.6422 1.5189 1.2576 1.359 1.1961 1.0727 1.2454 1.0617 0.9425 1.2317
3366.066 1.5204 1.613 1.588 1.2097 0.8653 1.003 1.3067 1.369 1.1189 1.088
3385.356 1.0013 0.993 0.9839 0.7894 1.0603 1.1321 0.8174 0.9153 1.1159 1.0743
3404.646 1.1928 1.1929 1.1772 1.0957 0.9221 1.0994 1.4366 1.3442 0.9363 0.8078
3423.936 0.543 0.441 1.0475 1.4241 1.725 1.895 1.775 1.4408 1.665 1.885
3443.225 1.1926 1.4173 1.785 1.4048 1.4398 1.825 2.165 2.135 1.705 1.5135
3462.515 1.675 1.775 1.5806 1.3111 1.3163 1.5847 1.735 1.855 1.705 1.2431
3481.805 1.274 1.5354 1.945 2.475 2.315 2.035 1.6455 1.0837 1.705 1.735
3501.095 1.1231 1.097 1.2345 1.5577 1.5132 1.1903 1.2138 1.3584 1.655 1.5634
3520.385 1.1979 1.0234 0.9784 1.4854 1.0457 0.383 1.1181 1.4053 1.221 1.1544
3539.674 0.9158 0.9442 0.81 0.516 0.324 0.72263 1.0026 1.015 0.8579 0.69149
3558.964 0.85 1.1614 1.2059 1.2718 1.3909 0.9171 0.8157 0.7801 0.459 0.6235
3578.254 0.6333 0.507 0.8898 0.939 0.6068 0.482 0.7562 0.9004 0.64797 0.403
3597.544 0.581 0.8551 0.914 0.8718 0.75149 0.8137 0.7186 0.504 0.9942 1.2576
3616.833 0.68692 0.509 0.262 0.383 1.0889 1.3343 1.0797 1.1481 1.2698 0.9763
3636.123 0.64577 0.6267 0.7774 0.7766 0.9986 0.6146 0.376 0.486 0.091 0.165
3655.413 0.552 0.8547 1.2395 1.0151 0.6294 0.55 0.8096 0.7551 0.71886 1.2389
3674.703 1.1529 1.0338 0.8413 0.656636 0.8351 1.0889 1.2132 1.0431 0.9752 0.8477
3693.993 1.0413 0.9383 0.65028 0.8911 0.404 0.074 0.379 0.769 1.1415 1.5131
3713.282 1.515 1.165 1.2788 1.0448 0.7578 0.8064 0.67647 1.3267 1.5948 1.1389
3732.572 1.1661 0.8771 0.252 0.269 0.8866 1.4697 1.4587 1.0596 0.8793 0.7301
3751.862 1.0294 1.3519 1.4029 1.5019 1.1845 0.538 0.342 0.7686 1.1092 1.3304
3771.152 1.2976 0.9996 1.0256 1.4908 1.5014 1.685 1.865 1.3596 0.9946 0.9677
3790.441 1.178 0.8014 0.6071 0.8478 0.8811 0.7557 0.5647 0.72459 1.1551 1.4012
3809.731 1.2363 0.7738 0.73615 0.9623 1.0447 1.0676 1.0135 1.3246 1.3547 0.54
3829.021 0.3 0.9164 0.8864 0.503 0.546 0.659631 1.0575 1.46 1.1803 1.0198
3848.311 1.0662 0.9739 0.69292 0.67255 1.0961 1.0696 1.2502 1.0988 0.396 0.5697
3867.601 1.0358 0.8749 0.71673 0.65055 0.499 0.661589 0.8776 0.9425 0.8364 1.0689
3886.890 1.3664 1.3424 1.4095 0.814 0.364 0.5986 0.5 0.354 0.656765 0.4
3906.180 0.132 0.319 0.501 0.8314 1.1084 1.3208 1.1193 0.8693 0.8023 1.21
3925.470 1.027 0.26 0.74411 1.0999 0.8072 0.73647 0.554 0.8385 1.3526 1.5597
3944.760 1.504 1.3226 1.1522 1.1257 1.5087 1.5898 1.1561 0.8139 0.7986 1.1747
3964.049 1.235 1.2031 0.9597 0.8681 1.3056 1.3623 1.4505 1.3067 1.0118 1.1591
3983.339 1.4338 1.4408 1.5009 1.5047 1.1784 1.1117 0.9195 0.8057 0.797 0.67317
##END=
