##TITLE=R-(-)-S-Methyl-S-phenylsulphoxime
##JCAMP-DX=4.24
##DATA TYPE=INFRARED SPECTRUM
##ORIGIN=EPA-IR VAPOR PHASE LIBRARY
##OWNER=SRD/NIST
Collection (C) 2018 copyright by the U.S. Secretary of Commerce
on behalf of the United States of America. All rights reserved.
##CAS REGISTRY NO=60933-65-5
##MOLFORM=C 7 H 9 N O S
##$NIST SOURCE=MSDC-IR
##STATE=gas
##XUNITS=1/CM
##YUNITS=ABSORBANCE
##XFACTOR=1.
##YFACTOR=0.001
##DELTAX=1.92898
##FIRSTX=549.8
##LASTX=4000.7
##FIRSTY=9.287
##MAXX=4000.7
##MINX=549.759
##MAXY=0.141807
##MINY=0
##NPOINTS=1790
##XYDATA=(X++(Y..Y))
549.759 9.287 8.197 7.257 6.747 6.777 6.657 6.257 5.397 4.417 4.777
569.049 5.007 4.857 5.067 4.967 4.897 4.797 4.917 4.337 3.587 3.897
588.339 3.877 3.167 2.967 3.127 3.327 3.147 3.117 3.137 2.847 3.227
607.628 3.527 3.397 3.377 3.327 3.397 3.737 3.367 3.017 3.307 3.087
626.918 2.877 3.317 3.797 3.837 3.657 3.587 3.847 3.917 4.027 4.467
646.208 4.677 4.477 4.697 4.877 5.217 5.837 5.907 6.237 6.717 7.037
665.498 7.837 8.957 10.167 11.467 13.237 15.237 16.997 19.027 21.817 24.837
684.787 27.267 29.877 31.917 31.387 29.367 27.787 26.417 25.307 24.257 23.137
704.077 22.377 22.207 22.977 24.307 26.307 29.577 33.447 37.637 42.177 46.907
723.367 51.557 54.897 57.577 59.367 59.637 58.967 56.627 52.547 48.027 43.897
742.657 39.657 35.417 31.417 28.647 26.817 24.577 22.707 20.907 19.097 17.837
761.947 16.597 15.177 13.627 11.817 10.137 9.137 8.297 7.167 6.417 6.147
781.236 5.787 5.457 5.317 5.307 5.097 5.107 5.427 5.437 5.187 4.817
800.526 4.837 4.817 4.967 5.217 4.887 4.637 4.517 4.527 4.507 4.287
819.816 4.067 4.017 4.167 4.167 4.447 4.847 4.867 4.727 4.947 5.337
839.106 5.467 5.617 5.837 5.837 5.787 6.377 6.557 6.137 6.327 7.047
858.395 7.337 7.267 7.547 7.807 8.007 8.497 8.917 8.977 9.357 9.917
877.685 10.107 10.137 10.797 11.517 11.737 12.307 13.237 13.597 14.147 15.357
896.975 16.137 16.737 17.627 18.757 20.057 21.507 23.097 24.687 26.387 28.317
916.265 30.727 33.177 35.367 37.557 39.737 42.137 44.547 47.047 49.357 51.037
935.555 52.257 53.067 53.737 54.197 54.707 55.127 54.697 54.197 54.047 53.577
954.844 52.837 52.267 51.937 51.567 50.847 50.057 49.107 48.287 48.157 48.647
974.134 49.747 51.337 53.407 56.317 59.117 61.517 63.487 64.767 65.247 64.907
993.424 63.547 61.287 58.477 54.907 51.047 46.427 41.657 38.067 34.847 32.087
1012.714 29.177 26.227 24.457 22.277 20.257 19.607 18.507 16.457 15.637 15.737
1032.003 15.387 14.447 13.377 13.297 13.167 12.897 12.967 12.627 12.457 12.657
1051.293 12.787 12.647 12.617 13.467 14.257 15.177 16.777 18.007 19.507 21.907
1070.583 24.507 26.877 29.757 32.887 34.727 35.307 36.007 37.017 36.417 35.447
1089.873 33.927 30.147 27.207 25.007 23.817 24.307 24.197 24.597 27.107 30.737
1109.163 34.337 39.127 45.837 52.527 57.707 60.907 62.937 64.737 65.327 64.197
1128.452 61.967 58.147 52.987 47.027 41.117 36.317 31.877 26.887 23.137 19.987
1147.742 17.447 15.087 12.397 9.957 7.917 7.017 6.697 6.297 5.707 5.447
1167.032 4.917 4.717 4.537 4.567 4.877 4.427 4.097 3.927 3.737 3.537
1186.322 3.417 3.197 2.787 2.807 3.037 3.107 3.227 3.317 3.777 4.567
1205.611 5.107 4.737 5.287 6.557 7.247 8.057 8.817 9.877 11.437 13.397
1224.901 15.887 19.897 24.447 29.467 36.577 45.557 55.217 65.717 77.647 91.187
1244.191 105.527 119.047 130.067 138.007 141.807 140.757 138.417 135.357 128.867 118.027
1263.481 103.297 87.087 71.377 57.237 45.037 35.167 27.767 21.807 17.397 14.477
1282.771 12.467 10.827 9.987 9.787 9.307 8.987 9.347 9.897 10.227 10.547
1302.060 10.997 11.627 12.147 12.797 13.357 13.567 13.677 13.607 13.227 12.537
1321.350 11.337 10.027 8.967 7.867 6.687 5.587 4.857 4.177 3.497 2.977
1340.640 2.617 2.417 2.227 2.167 2.187 2.167 2.137 2.117 2.187 2.257
1359.930 2.277 2.247 2.337 2.557 2.747 2.937 3.087 3.077 3.087 3.137
1379.219 3.077 3.117 3.197 3.227 3.307 3.357 3.417 3.507 3.607 3.907
1398.509 4.357 4.807 5.267 5.837 6.347 6.817 7.247 7.517 7.607 7.697
1417.799 7.747 7.617 7.667 7.867 8.087 8.297 8.707 9.537 10.567 11.597
1437.089 12.647 13.707 14.497 14.757 14.367 13.877 13.837 13.767 12.767 11.177
1456.378 9.527 7.997 6.897 6.197 5.667 5.377 5.467 5.637 5.807 6.007
1475.668 6.137 6.147 5.957 5.897 5.747 5.047 4.207 3.477 2.877 2.487
1494.958 2.157 1.927 1.767 1.627 1.557 1.437 1.387 1.397 1.347 1.327
1514.248 1.397 1.317 1.217 1.1847 1.1292 1.202 1.297 1.217 1.1261 1.1223
1533.538 1.1592 1.1404 1.0119 0.9807 0.9854 0.9047 0.945 1.0223 0.9664 0.9355
1552.827 0.9455 0.9066 0.8618 0.9388 1.1125 1.0865 1.1269 1.247 1.297 1.347
1572.117 1.427 1.397 1.417 1.617 1.527 1.357 1.427 1.517 1.507 1.547
1591.407 1.507 1.397 1.447 1.397 1.217 1.1864 1.237 1.207 1.1551 1.1686
1610.697 1.237 1.1585 0.959 0.9045 0.8889 0.8822 0.8398 0.7213 0.8055 0.8013
1629.986 0.6415 0.7032 0.754 0.6993 0.7646 0.838 0.7333 0.6718 0.7318 0.7227
1649.276 0.7196 0.6723 0.7915 0.957 0.9325 0.9033 0.8769 0.8395 0.8794 0.995
1668.566 1.0223 1.0842 1.1722 1.217 1.377 1.387 1.257 1.227 1.1097 1.123
1687.856 1.257 1.1069 0.9813 0.8233 0.7405 0.8951 0.7899 0.7062 0.7073 0.5619
1707.146 0.5192 0.5475 0.4253 0.3599 0.3935 0.4717 0.5611 0.623 0.6974 0.6304
1726.435 0.5579 0.6257 0.7131 0.622 0.5702 0.7412 0.8009 0.773 0.7762 0.7725
1745.725 0.8369 0.9023 0.9298 0.9879 1.0499 1.1465 1.207 1.257 1.327 1.387
1765.015 1.477 1.517 1.537 1.497 1.377 1.417 1.417 1.247 1.1171 0.9828
1784.305 0.9237 1.0776 1.217 1.237 1.397 1.667 1.807 1.847 1.957 2.197
1803.594 2.367 2.457 2.567 2.727 2.727 2.647 2.567 2.377 2.187 1.917
1822.884 1.607 1.487 1.417 1.297 1.1974 1.1131 1.1027 1.1247 1.1274 1.1785
1842.174 1.2016 1.1078 1.0114 0.9659 0.9543 0.9618 0.9158 0.9005 0.9545 1.0391
1861.464 0.9417 0.9549 1.1524 1.1271 1.0871 1.2064 1.247 1.297 1.417 1.427
1880.754 1.517 1.697 1.797 1.797 1.917 2.057 2.127 2.177 2.207 2.257
1900.043 2.267 2.357 2.477 2.427 2.367 2.357 2.187 2.057 2.027 1.877
1919.333 1.857 1.767 1.527 1.347 1.1766 1.1408 1.2 1.247 1.247 1.207
1938.623 1.267 1.427 1.617 1.697 1.687 1.877 2.087 2.187 2.237 2.267
1957.913 2.327 2.317 2.437 2.547 2.467 2.347 2.347 2.297 2.177 2.007
1977.202 1.797 1.567 1.467 1.527 1.467 1.327 1.1777 1.217 1.257 1.1618
1996.492 1.1461 1.1717 1.217 1.2015 1.0921 1.0821 1.1464 1.1499 1.1742 1.1134
2015.782 0.9731 1.0732 1.121 1.1023 1.1279 1.194 1.1299 1.071 1.0493 0.9983
2035.072 1.1761 1.297 1.357 1.367 1.297 1.357 1.317 1.287 1.337 1.287
2054.362 1.1769 1.1157 1.227 1.277 1.1297 1.1742 1.1935 1.0331 1.0141 1.018
2073.651 0.9621 0.9446 0.9575 0.9263 0.9355 0.886 0.7866 0.9023 0.8924 0.8385
2092.941 0.8977 0.8901 0.9623 0.9344 0.8064 0.7519 0.7037 0.7095 0.7176 0.7741
2112.231 0.8381 0.7151 0.6719 0.7806 0.7712 0.6816 0.6178 0.5763 0.6255 0.6324
2131.521 0.7213 0.8241 0.6099 0.5716 0.6458 0.5366 0.5095 0.5802 0.6917 0.6092
2150.810 0.6265 0.8375 0.8249 0.8236 0.8953 0.9143 0.9128 0.9285 0.912 0.8777
2170.100 0.9411 1.0097 0.9227 0.8239 0.8954 1.0463 1.0608 0.9765 0.9617 0.9368
2189.390 0.9867 1.237 1.427 1.307 1.1104 1.1656 1.1683 1.1021 1.247 1.2011
2208.680 1.0758 1.0609 1.0563 1.1159 1.1801 1.0321 0.9116 0.9767 0.8866 0.8647
2227.970 0.9287 0.909 0.8426 0.7932 0.7147 0.7561 0.8889 0.9899 1.0112 0.951
2247.259 0.9111 1.0034 1.0122 0.9363 1.0051 0.9284 0.9455 1.0681 1.1132 1.0617
2266.549 1.0435 1.0209 0.9452 0.9182 0.9405 0.8641 0.8837 0.766 0.6592 0.893
2285.839 0.8982 0.7704 0.6805 0.6747 0.7403 0.7347 0.5901 0.6779 0.7171 0.7053
2305.129 0.8681 0.8401 0.8288 0.8315 0.8689 0.9496 0.9471 1.0736 1.257 1.1868
2324.418 1.1086 1.077 1.0338 1.0494 1.0584 1.0673 1.0445 1.0336 0.9824 0.8772
2343.708 0.7661 0.7289 0.7681 0.6992 0.7202 0.7287 0.5848 0.5395 0.5791 0.7158
2362.998 0.7702 0.6831 0.7902 0.8437 0.7478 0.8128 0.8011 0.7023 0.7695 0.8255
2382.288 0.727 0.6586 0.6417 0.7031 0.7868 0.7601 0.6572 0.7218 0.7711 0.5546
2401.578 0.446 0.465 0.481 0.4927 0.5429 0.6125 0.6229 0.6251 0.5988 0.564
2420.867 0.5426 0.4479 0.4636 0.517 0.4374 0.3479 0.3867 0.4789 0.5413 0.4413
2440.157 0.22445 0.3289 0.4197 0.4289 0.4311 0.3608 0.3964 0.456 0.5702 0.5384
2459.447 0.4513 0.4844 0.4809 0.448 0.5147 0.5579 0.532 0.6481 0.7426 0.7079
2478.737 0.6694 0.6456 0.4903 0.455 0.5794 0.5959 0.5912 0.6287 0.7176 0.7699
2498.026 0.8484 0.8775 0.8751 0.792 0.7166 0.6034 0.5706 0.6315 0.5431 0.5215
2517.316 0.6174 0.6615 0.3761 0.22062 0.3741 0.6096 0.5541 0.4728 0.6377 0.5227
2536.606 0.4252 0.6111 0.5898 0.5824 0.677 0.5793 0.594 0.6718 0.5723 0.4192
2555.896 0.5525 0.6609 0.592 0.5745 0.4721 0.3948 0.4119 0.6316 0.6833 0.5099
2575.186 0.7422 0.8498 0.6781 0.6421 0.611 0.6244 0.6349 0.6198 0.6136 0.7921
2594.475 0.8156 0.6011 0.5298 0.6128 0.8141 0.8263 0.6926 0.6471 0.7331 0.6791
2613.765 0.702 0.838 0.7741 0.5983 0.5038 0.4887 0.5156 0.6222 0.4921 0.3646
2633.055 0.519 0.5578 0.6162 0.5335 0.3483 0.4374 0.4761 0.4641 0.5169 0.5453
2652.345 0.6017 0.5697 0.5463 0.732 0.8554 0.78 0.7426 0.7917 0.7759 0.7619
2671.634 0.7426 0.6713 0.5319 0.3991 0.507 0.5475 0.562 0.7817 0.7992 0.6004
2690.924 0.5377 0.6508 0.5489 0.5072 0.6752 0.5431 0.4543 0.4734 0.6294 0.6698
2710.214 0.4775 0.6163 0.7861 0.6493 0.3443 0.4077 0.6873 0.6783 0.5603 0.6349
2729.504 0.6424 0.4327 0.4964 0.606 0.5958 0.5732 0.5356 0.6109 0.5898 0.5049
2748.794 0.5702 0.5959 0.5721 0.5584 0.5656 0.6311 0.6991 0.8104 0.6546 0.5498
2768.083 0.5059 0.4 0.439 0.5151 0.648 0.6625 0.653 0.7409 0.6594 0.4738
2787.373 0.6287 0.7612 0.7083 0.6174 0.5285 0.6099 0.735 0.5745 0.5782 0.8064
2806.663 0.7402 0.7799 0.6708 0.5059 0.6371 0.6504 0.7063 0.743 0.6461 0.5648
2825.953 0.4361 0.6097 0.6388 0.5772 0.6526 0.7721 0.8441 0.7351 0.6611 0.5886
2845.242 0.6703 0.6243 0.6673 0.8255 0.7839 0.7907 0.9442 0.9012 0.7831 0.7495
2864.532 0.7934 0.9099 0.9841 0.8691 0.8061 0.8503 0.9689 0.9575 0.7255 0.6716
2883.822 0.7596 0.8255 0.9819 1.1041 0.9042 0.7433 0.6898 0.7593 0.8223 0.8067
2903.112 0.7209 0.6509 0.7173 0.8144 0.8028 0.9634 0.9956 0.7777 1.0274 1.217
2922.401 1.0958 1.267 1.457 1.387 1.307 1.567 1.847 1.797 1.797 1.717
2941.691 1.757 1.787 1.657 1.557 1.577 1.657 1.347 1.227 1.317 1.093
2960.981 0.8038 0.8258 0.8872 1.0351 1.1214 1.0755 1.0791 0.9393 0.9456 1.0316
2980.271 1.1399 1.1712 1.1115 1.041 1.0989 1.397 1.567 1.727 1.937 2.027
2999.561 2.187 2.277 2.517 2.687 2.697 3.007 3.187 3.297 3.697 3.927
3018.850 4.127 4.167 4.177 4.277 4.067 3.887 3.977 4.057 4.007 3.847
3038.140 3.737 3.797 3.867 4.227 4.587 4.897 5.387 6.107 7.077 8.237
3057.430 9.797 11.437 13.397 15.987 18.507 20.537 22.007 22.777 23.157 23.107
3076.720 22.317 21.307 20.077 17.897 15.177 12.557 10.477 9.137 8.057 7.077
3096.009 5.987 5.277 4.667 3.757 3.247 2.947 2.597 2.127 1.877 2.037
3115.299 1.987 1.397 1.1612 1.217 1.1935 1.277 1.297 1.307 1.247 1.1274
3134.589 1.237 1.427 1.277 1.056 1.0703 1.1641 1.217 1.247 1.347 1.407
3153.879 1.377 1.357 1.307 1.237 1.247 1.367 1.517 1.547 1.367 1.367
3173.169 1.287 1.0464 0.7951 0.6137 0.9878 1.1497 0.9576 1.0359 0.9679 0.7783
3192.458 0.646 0.6479 0.6384 0.6654 0.7619 0.6026 0.5546 0.6252 0.6699 0.6427
3211.748 0.3361 0.4114 0.6411 0.5595 0.486 0.561 0.6567 0.5363 0.5174 0.5479
3231.038 0.4979 0.5675 0.6688 0.7547 0.8605 0.6351 0.5404 0.5637 0.4112 0.5407
3250.328 0.7477 0.6743 0.5696 0.6524 0.6565 0.6671 0.5653 0.6252 0.8389 0.8678
3269.617 0.771 0.6802 0.7978 0.7856 0.565 0.5971 0.7959 0.7773 0.6643 0.5999
3288.907 0.6067 0.5754 0.5537 0.7372 0.7124 0.6158 0.56 0.4973 0.5494 0.6551
3308.197 0.7837 0.7556 0.7146 0.8307 0.8699 0.993 1.0062 1.0876 1.327 1.237
3327.487 0.9723 0.904 1.1819 1.357 1.617 2.077 2.227 2.577 3.317 4.187
3346.777 5.247 6.657 8.477 10.617 13.047 15.637 18.357 20.817 22.857 24.457
3366.066 24.957 24.277 23.147 21.527 19.497 17.277 14.717 11.877 9.467 7.567
3385.356 5.847 4.467 3.387 2.747 2.267 1.897 1.957 1.797 1.457 1.507
3404.646 1.307 1.1946 1.247 1.1246 1.0226 0.7745 0.7833 0.8961 0.7769 0.6796
3423.936 0.7863 0.821 0.7382 0.6847 0.7442 0.6522 0.4763 0.6021 0.7304 0.6342
3443.225 0.4752 0.4992 0.6391 0.5869 0.27708 0.5176 0.7238 0.5128 0.5811 0.6157
3462.515 0.6427 0.5228 0.3863 0.4571 0.3379 0.4763 0.7684 0.6599 0.5656 0.5698
3481.805 0.6402 0.7358 0.5245 0.5203 0.435 0.4266 0.8252 0.814 0.3833 0
3501.095 0.094 0.3835 0.3911 0.28888 0.3709 0.4406 0.5138 0.5519 0.5214 0.3742
3520.385 0.1672 0.3362 0.3587 0.4188 0.68 0.5021 0.4107 0.5328 0.665 0.5352
3539.674 0.4208 0.5996 0.4805 0.20297 0.24048 0.4258 0.3693 0.5022 0.7464 0.7057
3558.964 0.7871 0.7641 0.5645 0.4583 0.22213 0.27426 0.4838 0.5264 0.5574 0.7245
3578.254 0.6374 0.4989 0.7626 0.738 0.394 0.29911 0.4471 0.4337 0.3838 0.29091
3597.544 0.19735 0.5333 0.5619 0.3517 0.6362 0.6123 0.4654 0.469 0.4273 0.5966
3616.833 0.6326 0.29956 0.082 0.4469 0.7839 0.6588 0.433 0.4392 0.4949 0.4648
3636.123 0.4022 0.26531 0.4211 0.6828 0.7241 0.6032 0.5253 0.4405 0.5005 0.5657
3655.413 0.6357 0.5744 0.6111 0.8144 0.6141 0.5452 0.5573 0.6274 0.327 0.1316
3674.703 0.4299 0.3979 0.526 0.904 0.9278 0.8183 0.748 0.6849 0.6897 0.7473
3693.993 0.8402 0.6675 0.5779 0.751 0.887 0.9227 0.732 0.6049 0.5933 0.4606
3713.282 0.5048 0.5801 0.6501 0.4851 0.4838 0.7304 0.5778 0.5629 0.7988 0.8245
3732.572 0.5057 0.3942 0.5054 0.5477 0.5766 0.4925 0.4531 0.7548 0.9076 0.9297
3751.862 0.9405 0.7019 0.436 0.4427 0.7443 0.7782 0.6893 0.7108 0.8031 0.7966
3771.152 0.7708 0.7497 0.7693 0.8446 0.7632 0.5778 0.5355 0.5851 0.4963 0.3954
3790.441 0.3517 0.28652 0.1206 0.211794 0.4581 0.4204 0.4962 0.5425 0.3605 0.4023
3809.731 0.3917 0.29632 0.21821 0.4022 0.5832 0.5301 0.4343 0.4387 0.4744 0.3323
3829.021 0.5339 0.5995 0.3522 0.5083 0.3986 0.28613 0.5874 0.6542 0.6652 0.5418
3848.311 0.339 0.4399 0.352 0.003 0.26636 0.6457 0.6046 0.6058 0.5623 0.3576
3867.601 0.5384 0.4763 0.4367 0.6875 0.5659 0.6099 0.687 0.7159 0.6401 0.625
3886.890 0.7321 0.5942 0.659 0.6774 0.6777 0.8632 0.9406 0.9346 0.7988 0.6932
3906.180 0.6983 0.51 0.5209 0.7685 0.6995 0.5365 0.5934 0.4783 0.529 0.7641
3925.470 0.6926 0.5711 0.208972 0.3453 0.5013 0.3882 0.6292 0.5566 0.6284 0.8758
3944.760 0.7681 0.6535 0.5044 0.488 0.6131 0.5876 0.358 0.3833 0.5649 0.4713
3964.049 0.3615 0.4503 0.3572 0.3836 0.5815 0.5847 0.7987 1.0445 0.7911 0.6681
3983.339 0.8399 0.7522 0.5307 0.6195 0.652 0.4311 0.9099 1.257 0.9877 0.8628
##END=
