##TITLE=2,4,6-Trimethylphenyl isothiocyanate
##JCAMP-DX=4.24
##DATA TYPE=INFRARED SPECTRUM
##ORIGIN=EPA-IR VAPOR PHASE LIBRARY
##OWNER=SRD/NIST
Collection (C) 2018 copyright by the U.S. Secretary of Commerce
on behalf of the United States of America. All rights reserved.
##CAS REGISTRY NO=6095-82-5
##MOLFORM=C 10 H 11 N S
##$NIST SOURCE=MSDC-IR
##STATE=gas
##XUNITS=1/CM
##YUNITS=ABSORBANCE
##XFACTOR=1.
##YFACTOR=0.001
##DELTAX=1.92898
##FIRSTX=549.8
##LASTX=4000.7
##FIRSTY=6.947
##MAXX=4000.7
##MINX=549.759
##MAXY=0.592627
##MINY=0
##NPOINTS=1790
##XYDATA=(X++(Y..Y))
549.759 6.947 7.697 8.257 8.727 9.497 10.317 11.337 11.667 11.287 11.177
569.049 11.137 10.957 10.547 10.167 9.837 9.367 9.057 9.057 9.317 9.237
588.339 9.087 9.557 10.117 10.307 10.187 9.857 9.647 9.497 9.057 8.117
607.628 6.947 5.947 5.367 4.807 4.047 3.457 3.027 2.567 2.057 1.807
626.918 1.687 1.2588 1.1639 1.0612 0.7026 0.436 0.333 0.344 0.141 0.132
646.208 0.234 0.335 0.408 0.258 0.484 0.8415 0.7182 0.7598 0.8387 1.0982
665.498 1.687 1.877 2.047 2.557 3.177 3.647 3.857 4.127 4.337 4.197
684.787 3.877 3.387 3.077 2.907 2.717 2.587 2.327 2.307 2.717 3.127
704.077 3.657 4.307 5.007 5.847 6.637 7.667 8.897 8.817 7.427 6.367
723.367 5.817 5.227 4.637 4.017 3.417 2.817 2.197 1.977 1.837 1.937
742.657 2.467 2.787 3.317 4.067 4.417 4.597 4.567 4.527 4.337 3.607
761.947 3.007 2.517 1.847 1.3487 1.2883 1.3374 1.0808 1.1157 1.2799 1.3303
781.236 1.567 1.5194 1.547 1.707 1.847 1.857 1.747 1.797 1.667 1.557
800.526 1.767 1.917 1.857 1.947 2.137 2.247 2.307 2.127 1.997 2.027
819.816 1.937 1.927 2.047 2.037 2.337 2.947 3.857 5.267 7.047 9.297
839.106 12.017 15.087 18.397 21.507 24.547 28.957 33.567 32.517 27.047 24.097
858.395 23.037 21.587 20.097 19.527 19.807 20.637 22.377 24.737 27.177 29.597
877.685 31.507 32.857 33.787 34.037 33.737 32.927 32.057 30.897 29.687 28.977
896.975 28.417 28.017 27.877 28.067 28.497 29.207 30.157 30.957 31.617 32.137
916.265 32.307 32.237 31.747 30.487 29.017 27.647 25.977 23.987 22.237 20.727
935.555 19.167 17.707 16.317 15.057 14.107 13.387 13.087 13.337 13.907 14.997
954.844 16.667 18.367 19.597 20.177 20.247 19.587 18.167 16.337 14.107 11.727
974.134 9.897 8.367 7.207 6.737 6.367 5.887 5.607 5.537 5.277 5.287
993.424 5.627 5.677 5.727 5.997 6.277 6.517 6.637 6.577 6.647 6.757
1012.714 6.517 6.147 5.877 5.547 4.867 4.467 4.807 4.777 4.527 4.367
1032.003 4.257 4.257 4.217 4.487 4.487 4.197 4.227 3.927 3.667 3.807
1051.293 3.867 3.807 3.537 3.447 3.167 2.947 3.017 2.897 2.667 2.457
1070.583 2.717 2.867 2.537 2.167 2.117 2.037 1.867 1.847 1.867 1.697
1089.873 1.244 0.9239 1.2556 1.4983 1.1398 1.567 1.647 1.1853 1.4049 1.331
1109.163 0.9633 1.2875 1.3607 1.3813 1.4211 1.4622 1.677 1.4359 1.2329 1.1327
1128.452 1.0135 1.2278 1.617 1.5245 1.159 1.0651 1.1939 1.1912 1.0324 1.2889
1147.742 1.5192 1.547 1.707 1.587 1.4669 1.687 1.887 1.797 1.617 1.597
1167.032 1.34 0.9357 1.0314 1.121 1.2419 1.577 1.4542 1.4158 1.587 1.3101
1186.322 1.1633 1.3351 1.4231 1.4209 1.627 1.727 1.677 1.957 1.917 1.997
1205.611 1.937 2.117 2.727 2.647 2.627 3.057 3.937 4.617 5.547 7.257
1224.901 8.347 9.187 10.147 10.977 11.487 11.757 11.487 10.767 9.687 8.347
1244.191 7.157 6.117 5.397 4.877 4.677 4.597 4.567 4.497 4.257 4.087
1263.481 4.197 4.287 4.297 4.227 4.097 3.827 3.727 3.757 3.847 3.707
1282.771 3.317 3.387 3.577 3.637 3.667 3.687 3.827 4.027 4.237 4.397
1302.060 4.407 4.457 4.517 4.287 4.017 3.747 3.377 3.167 3.097 2.957
1321.350 2.877 2.917 2.907 2.867 2.937 2.977 2.957 2.927 2.957 3.037
1340.640 3.047 3.047 3.047 3.067 3.127 3.167 3.167 3.197 3.287 3.367
1359.930 3.507 3.617 3.787 3.997 4.137 4.407 4.757 5.237 5.847 6.447
1379.219 7.037 7.597 7.907 7.997 8.147 8.197 7.867 7.317 6.657 6.127
1398.509 5.837 5.737 5.857 5.987 6.137 6.347 6.557 6.807 7.097 7.367
1417.799 7.737 8.437 9.307 10.277 11.387 12.447 13.527 14.627 15.647 16.607
1437.089 17.707 18.807 19.907 21.057 22.207 23.417 24.527 25.467 26.307 27.197
1456.378 28.327 29.757 31.517 33.807 36.617 39.997 43.537 47.007 49.887 51.607
1475.668 51.917 50.717 47.917 43.837 39.017 33.727 28.487 24.087 20.657 18.057
1494.958 16.137 14.817 13.907 13.187 12.647 12.217 11.957 11.737 11.457 11.237
1514.248 11.077 10.937 10.847 10.717 10.597 10.567 10.487 10.387 10.357 10.337
1533.538 10.347 10.387 10.347 10.317 10.227 10.177 10.157 10.107 10.067 10.047
1552.827 10.017 9.977 9.977 9.937 9.807 9.687 9.687 9.687 9.587 9.467
1572.117 9.347 9.277 9.257 9.157 9.007 8.917 8.817 8.657 8.477 8.287
1591.407 8.037 7.717 7.317 6.927 6.637 6.357 6.027 5.737 5.587 5.387
1610.697 5.057 4.827 4.787 4.557 4.357 4.227 4.057 3.967 3.757 3.567
1629.986 3.487 3.457 3.397 3.257 3.127 3.157 3.117 2.987 2.957 2.847
1649.276 2.667 2.627 2.577 2.407 2.227 2.167 2.217 2.097 1.937 1.967
1668.566 1.977 1.887 1.907 1.927 1.847 1.817 1.877 1.927 1.907 1.997
1687.856 2.077 2.027 2.097 2.267 2.347 2.457 2.577 2.577 2.667 2.837
1707.146 3.097 3.427 3.657 3.967 4.357 4.767 5.167 5.467 5.637 5.697
1726.435 5.667 5.467 5.277 5.087 4.767 4.427 4.157 4.027 3.897 3.797
1745.725 3.827 3.907 3.967 4.107 4.187 4.177 4.087 3.937 3.847 3.697
1765.015 3.537 3.417 3.407 3.377 3.267 3.267 3.297 3.317 3.397 3.477
1784.305 3.467 3.477 3.567 3.607 3.587 3.677 3.757 3.827 3.947 3.997
1803.594 4.017 4.027 4.037 4.087 4.097 4.017 3.927 3.877 3.877 3.957
1822.884 4.027 3.997 4.027 4.067 4.147 4.267 4.367 4.427 4.427 4.447
1842.174 4.487 4.477 4.507 4.537 4.527 4.547 4.557 4.587 4.677 4.767
1861.464 4.887 4.977 5.057 5.167 5.267 5.327 5.447 5.427 5.377 5.387
1880.754 5.307 5.287 5.297 5.227 5.227 5.247 5.207 5.207 5.197 5.157
1900.043 5.117 5.197 5.307 5.347 5.437 5.557 5.597 5.627 5.777 5.957
1919.333 6.117 6.337 6.567 6.787 7.017 7.267 7.557 7.857 8.187 8.537
1938.623 8.947 9.397 9.927 10.517 11.117 11.777 12.457 13.097 13.847 14.727
1957.913 15.627 16.607 17.697 18.807 19.957 21.277 22.697 24.167 25.757 27.537
1977.202 29.337 31.127 33.027 35.017 37.097 39.297 41.667 44.087 46.557 49.277
1996.492 52.197 55.347 58.777 62.427 66.447 70.877 75.627 80.817 86.467 92.657
2015.782 99.437 106.867 114.927 123.537 132.777 142.697 153.197 164.227 175.727 187.767
2035.072 200.257 213.267 226.837 241.167 256.437 272.717 290.177 309.027 329.197 350.327
2054.362 372.637 396.037 419.777 442.977 465.177 486.337 505.927 523.777 539.707 553.717
2073.651 565.947 575.927 584.127 590.007 592.627 591.727 586.427 576.057 560.807 540.597
2092.941 515.807 487.487 456.917 425.627 394.627 365.367 338.987 315.967 296.547 280.657
2112.231 267.827 257.137 248.237 240.877 234.527 229.067 224.447 220.647 217.767 215.817
2131.521 214.867 214.807 215.167 215.527 215.547 215.107 214.047 212.177 209.367 205.347
2150.810 199.917 192.857 184.227 174.147 162.517 149.697 136.277 122.647 109.477 97.167
2170.100 86.117 76.577 68.437 61.747 56.347 51.987 48.437 45.717 43.627 41.927
2189.390 40.667 39.657 38.647 37.547 36.347 34.917 33.167 31.137 29.037 26.917
2208.680 24.727 22.657 20.867 19.307 17.847 16.577 15.597 14.757 13.917 13.047
2227.970 12.267 11.627 10.967 10.337 9.757 9.157 8.587 8.117 7.717 7.297
2247.259 6.777 6.287 5.957 5.637 5.387 5.117 4.777 4.407 4.247 4.117
2266.549 3.827 3.757 3.667 3.477 3.367 3.227 3.167 3.107 2.997 2.957
2285.839 2.887 2.817 2.887 2.957 2.857 2.807 2.927 3.027 3.137 3.307
2305.129 3.397 3.467 3.587 3.627 3.607 3.627 3.657 3.597 3.667 3.697
2324.418 3.537 3.557 3.677 3.717 3.697 3.707 3.777 3.937 4.027 3.977
2343.708 4.017 4.127 4.127 4.117 4.117 4.067 4.127 4.137 4.087 4.127
2362.998 4.087 3.967 4.017 4.157 4.287 4.397 4.547 4.727 4.917 5.117
2382.288 5.257 5.377 5.517 5.587 5.527 5.457 5.337 5.057 4.787 4.557
2401.578 4.357 4.167 4.037 4.007 3.977 3.937 3.917 3.957 4.017 4.047
2420.867 4.047 4.147 4.197 4.257 4.347 4.367 4.407 4.467 4.517 4.577
2440.157 4.637 4.757 4.917 5.077 5.227 5.387 5.517 5.627 5.787 5.877
2459.447 6.087 6.197 6.207 6.257 6.147 5.987 5.817 5.647 5.417 5.127
2478.737 4.887 4.697 4.517 4.287 4.117 4.057 4.127 4.207 4.197 4.187
2498.026 4.147 4.137 4.287 4.307 4.247 4.297 4.337 4.337 4.347 4.377
2517.316 4.257 4.197 4.327 4.307 4.227 4.267 4.337 4.377 4.467 4.507
2536.606 4.447 4.437 4.467 4.397 4.297 4.257 4.227 4.257 4.217 4.147
2555.896 4.067 3.927 3.867 3.897 3.707 3.487 3.527 3.507 3.327 3.107
2575.186 2.937 2.737 2.567 2.457 2.277 2.227 2.197 2.037 1.967 1.887
2594.475 1.707 1.677 1.647 1.547 1.567 1.547 1.4521 1.5084 1.4969 1.4766
2613.765 1.5059 1.4509 1.4404 1.4758 1.4106 1.3878 1.587 1.587 1.4916 1.557
2633.055 1.547 1.667 1.817 1.797 1.767 1.817 1.907 2.027 2.067 2.097
2652.345 2.207 2.307 2.407 2.527 2.627 2.777 2.877 2.867 2.897 3.037
2671.634 3.327 3.527 3.707 3.897 4.077 4.327 4.487 4.597 4.837 5.027
2690.924 5.247 5.567 5.807 6.047 6.357 6.637 6.927 7.217 7.327 7.477
2710.214 7.597 7.687 7.787 7.777 7.707 7.587 7.417 7.267 7.067 6.797
2729.504 6.587 6.397 6.217 6.147 6.117 6.077 6.047 5.987 5.837 5.677
2748.794 5.467 5.197 4.957 4.527 4.237 3.967 3.487 3.077 2.907 2.907
2768.083 2.717 2.537 2.477 2.397 2.307 2.277 2.257 2.157 2.097 2.137
2787.373 2.207 2.247 2.227 2.237 2.257 2.237 2.277 2.267 2.307 2.307
2806.663 2.317 2.487 2.647 2.757 2.817 2.797 2.907 3.157 3.307 3.477
2825.953 3.617 3.717 3.847 4.107 4.407 4.667 5.027 5.347 5.667 6.187
2845.242 6.837 7.417 8.117 8.867 9.627 10.737 11.897 13.137 14.497 16.037
2864.532 17.687 19.097 20.327 21.497 22.247 22.527 22.407 21.957 21.057 19.807
2883.822 18.897 18.147 17.387 16.857 16.437 16.177 16.187 16.357 16.677 17.147
2903.112 17.647 18.417 19.427 20.627 22.217 23.937 26.037 28.757 31.927 35.537
2922.401 39.457 43.317 46.877 50.147 52.367 53.047 52.597 51.007 48.327 44.817
2941.691 41.127 37.617 34.467 31.947 29.957 28.387 27.377 26.707 26.207 25.837
2960.981 25.357 24.867 24.237 23.537 23.147 23.047 23.057 23.397 24.127 25.097
2980.271 26.337 27.527 28.487 29.187 29.577 29.717 29.537 28.997 28.257 27.657
2999.561 27.177 26.937 26.857 26.917 27.217 27.737 28.527 29.287 30.127 31.027
3018.850 31.507 31.637 31.617 31.547 31.207 30.517 29.717 28.867 27.957 27.017
3038.140 26.107 25.117 24.147 23.377 22.397 21.237 20.397 19.327 18.117 16.937
3057.430 15.917 14.907 13.867 13.067 12.207 11.317 10.457 9.867 9.327 8.667
3076.720 8.057 7.447 6.887 6.437 6.097 5.807 5.437 5.007 4.637 4.397
3096.009 4.297 4.147 3.827 3.637 3.497 3.287 3.117 2.997 2.917 2.847
3115.299 2.727 2.477 2.287 2.167 2.117 2.127 2.107 1.987 1.867 1.737
3134.589 1.707 1.667 1.557 1.547 1.3899 1.25 1.2176 1.1371 1.0458 1.0069
3153.879 1.0274 1.042 1.0128 0.8778 0.8608 0.9617 0.8586 0.7913 0.7163 0.6207
3173.169 0.7005 0.6834 0.5137 0.54781 0.59614 0.5101 0.38 0.434 0.6894 0.7162
3192.458 0.5243 0.4747 0.63478 0.56305 0.4635 0.544707 0.4722 0.4429 0.4675 0.393
3211.748 0.4614 0.53469 0.5189 0.432 0.26 0.272 0.368 0.361 0.421 0.388
3231.038 0.323 0.278 0.251 0.289 0.275 0.243 0.112 0.01 0.19 0.301
3250.328 0.252 0.187 0.231 0.302 0.416 0.404 0.25 0.176 0.155 0.328
3269.617 0.5192 0.354 0.323 0.394 0.274 0.35 0.225 0.015 0 0.197
3288.907 0.418 0.337 0.173 0.259 0.421 0.393 0.377 0.373 0.313 0.303
3308.197 0.391 0.4432 0.432 0.31 0.123 0.15 0.081 0.004 0.257 0.4971
3327.487 0.5107 0.371 0.221 0.179 0.27 0.366 0.341 0.284 0.377 0.4938
3346.777 0.431 0.322 0.315 0.4464 0.4689 0.351 0.368 0.423 0.4977 0.409
3366.066 0.164 0.053 0.045 0.046 0.12 0.208 0.36 0.403 0.317 0.364
3385.356 0.314 0.212 0.145 0.23 0.509 0.34 0.077 0.245 0.33 0.275
3404.646 0.167 0.172 0.303 0.317 0.249 0.099 0.185 0.293 0.305 0.61863
3423.936 0.62917 0.4844 0.5106 0.431 0.362 0.339 0.355 0.395 0.345 0.276
3443.225 0.343 0.332 0.4977 0.56569 0.285 0.142 0.085 0.202 0.424 0.431
3462.515 0.269 0.202 0.225 0.259 0.195 0.173 0.298 0.327 0.381 0.4789
3481.805 0.429 0.364 0.401 0.369 0.392 0.386 0.262 0.178 0.05 0.134
3501.095 0.37 0.512 0.427 0.212 0.125 0.201 0.289 0.372 0.34 0.416
3520.385 0.540252 0.427 0.253 0.259 0.385 0.4558 0.4804 0.374 0.345 0.385
3539.674 0.247 0.187 0.227 0.175 0.268 0.4458 0.4708 0.393 0.377 0.317
3558.964 0.237 0.325 0.397 0.4835 0.5232 0.355 0.199 0.364 0.5212 0.39
3578.254 0.397 0.319 0.32 0.4412 0.4761 0.4846 0.361 0.337 0.397 0.4846
3597.544 0.4673 0.373 0.314 0.397 0.451 0.337 0.202 0.083 0.134 0.126
3616.833 0.185 0.368 0.451 0.4777 0.4483 0.389 0.4535 0.339 0.215 0.289
3636.123 0.196 0.071 0.062 0.285 0.319 0.262 0.345 0.29 0.242 0.258
3655.413 0.241 0.223 0.128 0.108 0.209 0.171 0.266 0.259 0.103 0.123
3674.703 0.203 0.262 0.272 0.385 0.366 0.217 0.275 0.271 0.276 0.233
3693.993 0.276 0.345 0.216 0.177 0.135 0.299 0.315 0.133 0.226 0.417
3713.282 0.431 0.36 0.437 0.4551 0.225 0.216 0.331 0.344 0.313 0.3
3732.572 0.335 0.383 0.305 0.212 0.241 0.285 0.371 0.372 0.371 0.4809
3751.862 0.353 0.262 0.363 0.426 0.372 0.348 0.451 0.275 0.174 0.358
3771.152 0.347 0.254 0.404 0.4886 0.362 0.358 0.305 0.202 0.211 0.27
3790.441 0.396 0.339 0.407 0.5239 0.4716 0.55135 0.61619 0.60827 0.4888 0.434
3809.731 0.541185 0.538848 0.431 0.6534 0.8515 0.57344 0.389 0.417 0.4827 0.543674
3829.021 0.53014 0.4972 0.5226 0.57032 0.433 0.4 0.508 0.546812 0.6715 0.7379
3848.311 0.58896 0.56715 0.6708 0.7052 0.6788 0.58633 0.5663 0.60773 0.709 0.7651
3867.601 0.691 0.60737 0.7098 0.6474 0.536346 0.6962 0.8087 0.59508 0.5178 0.7014
3886.890 0.7162 0.6586 0.60145 0.60153 0.7583 0.8069 0.7811 0.8966 0.8832 0.7155
3906.180 0.56877 0.60898 0.8275 0.8677 0.7145 0.7822 0.9411 0.9767 0.8414 0.7836
3925.470 0.7612 0.60594 0.7617 1.018 1.0043 0.9121 0.9999 0.9771 0.9671 1.077
3944.760 1.0489 1.1075 1.1377 1.0933 1.0911 1.0052 0.9294 0.9202 0.981 1.1593
3964.049 1.361 1.4191 1.422 1.4542 1.3216 1.2771 1.2953 1.2698 1.3323 1.2679
3983.339 1.3434 1.3126 1.2099 1.3626 1.4923 1.607 1.567 1.4444 1.3724 1.3976
##END=
