##TITLE=4-Bromo-2-nitrotoluene
##JCAMP-DX=4.24
##DATA TYPE=INFRARED SPECTRUM
##ORIGIN=EPA-IR VAPOR PHASE LIBRARY
##OWNER=SRD/NIST
Collection (C) 2018 copyright by the U.S. Secretary of Commerce
on behalf of the United States of America. All rights reserved.
##CAS REGISTRY NO=60956-26-5
##MOLFORM=C 7 H 6 Br N O 2
##$NIST SOURCE=MSDC-IR
##STATE=gas
##XUNITS=1/CM
##YUNITS=ABSORBANCE
##XFACTOR=1.
##YFACTOR=0.001
##DELTAX=1.92934
##FIRSTX=549.9
##LASTX=3999.5
##FIRSTY=4.04
##MAXX=3999.53
##MINX=549.863
##MAXY=0.24175
##MINY=0
##NPOINTS=1789
##XYDATA=(X++(Y..Y))
549.863 4.04 4.15 4.22 4.5 4.92 5.17 5.36 5.64 5.74 5.72
569.156 5.81 5.84 5.75 5.64 5.39 5.02 4.7 4.61 4.59 4.36
588.450 4.21 4.08 3.94 3.94 4.06 4.21 4.35 4.57 4.83 5.22
607.743 5.74 6.41 7.3 8.43 9.8 11.28 12.64 13.61 14.01 13.79
627.037 13.01 11.78 10.05 8.01 6.1 4.64 3.67 3.06 2.6775 2.5518
646.330 2.4265 2.2797 2.216 2.2963 2.3412 2.4289 2.7123 3 3.41 4.11
665.624 5.06 6.06 7.23 8.44 9.68 10.88 12.01 13.14 14.07 14.69
684.917 15.12 15.47 15.85 16.25 16.77 17.2 17.38 17.31 17.01 16.48
704.210 15.65 14.57 13.19 11.7 10.41 9.43 8.78 8.33 7.96 7.79
723.504 7.71 7.73 7.82 7.96 8.19 8.44 8.61 8.8 9.02 9.39
742.797 9.98 10.67 11.52 12.54 13.58 14.54 15.52 16.31 16.23 15.57
762.091 14.96 14.35 13.7 13.1 12.62 12.32 12.44 13 13.95 15.61
781.384 18.32 22.62 29.12 37.64 46.35 52.21 54.78 55.6 55.32 53.03
800.678 47.13 40.15 35.94 34.95 35.97 38.19 41.48 44.03 41.01 33.71
819.971 28.18 24.31 20.37 16.23 12.49 9.56 7.35 5.9 5 4.49
839.264 4.21 4.09 4.07 4.12 4.28 4.51 4.84 5.32 6.05 7.12
858.558 8.68 10.73 13.47 17.03 21.33 26.07 30.59 34.01 35.98 37.47
877.851 39.37 40.53 39.37 36.15 31.83 27.09 22.47 18.39 14.99 12.1
897.145 9.77 7.87 6.35 5.23 4.45 3.97 3.56 3.27 3.09 2.92
916.438 2.84 2.6993 2.4811 2.3835 2.2899 2.2474 2.2556 2.1478 2.0696 2.0895
935.732 2.0924 2.1126 2.1343 2.1516 2.1916 2.1779 2.2066 2.2561 2.255 2.2221
955.025 2.2254 2.2373 2.2344 2.1966 2.1685 2.2 2.239 2.2672 2.2407 2.2232
974.318 2.2848 2.3686 2.4277 2.468 2.5604 2.6964 2.82 3.02 3.32 3.68
993.612 4.08 4.53 5.03 5.43 5.67 5.78 5.73 5.58 5.36 5.04
1012.905 4.69 4.4 4.24 4.15 4.14 4.18 4.2 4.26 4.37 4.48
1032.199 4.61 4.79 4.89 4.99 5.05 5.05 5.01 4.98 4.92 4.87
1051.492 4.86 4.86 4.88 4.92 5 5.2 5.47 5.77 6.08 6.44
1070.786 6.87 7.34 7.88 8.51 9.26 10.13 11.09 12.25 13.7 15.42
1090.079 17.56 20.28 23.64 27.67 32.25 37.01 41.05 43.67 44.57 43.71
1109.372 41.18 36.92 31.09 24.87 19.66 15.78 12.94 10.83 9.23 8.03
1128.666 7.23 6.62 6.09 5.72 5.61 5.7 5.81 6.18 6.72 7.37
1147.959 8.26 9.33 9.91 9.87 9.72 9.6 9.25 8.43 7.3 6.32
1167.253 5.65 5.15 4.81 4.45 4.16 4.19 4.14 4.24 4.48 4.68
1186.546 4.86 5.16 5.65 5.76 5.99 6.53 6.85 6.89 6.93 6.84
1205.840 6.61 6.34 5.94 5.45 4.98 4.95 5.11 4.97 4.58 4.47
1225.133 4.6 4.66 4.7 4.88 5.05 5.17 5.31 5.49 5.7 6.04
1244.426 6.31 6.32 6.48 6.84 7.39 8.15 8.97 10.15 11.97 14.23
1263.720 16.79 19 20.19 20.51 20.22 19.6 18.48 16.31 13.53 11.21
1283.013 9.81 9.05 8.73 8.69 8.76 8.97 9.18 9.57 10.1 10.59
1302.307 11.24 11.92 12.56 13.3 14.09 14.86 15.66 16.52 17.47 18.57
1321.600 19.87 21.42 23.33 25.67 28.66 32.51 37.41 43.58 51.35 60.99
1340.894 72.82 86.96 103.37 121.55 139.97 156.21 167.48 172.1 170.01 161.66
1360.187 146.61 125.17 100.69 78.07 59.71 46.01 36.34 29.75 25.43 22.8
1379.480 21.41 20.93 21.08 21.58 22.09 22.36 22.43 22.35 21.88 20.77
1398.774 19.36 18.05 17.04 16.27 15.64 15.15 14.8 14.52 14.35 14.32
1418.067 14.41 14.63 14.95 15.38 15.97 16.64 17.43 18.32 19.2 20.14
1437.361 21.12 21.95 22.82 23.72 24.62 25.55 26.47 27.29 28.03 28.75
1456.654 29.5 30.3 31.3 32.61 34.53 37.39 41.48 46.91 53.51 60.53
1475.948 66.17 69.55 70.28 68.87 65.42 60.13 53.43 47.12 42.76 40.64
1495.241 40.05 40.32 41.22 42.66 44.52 46.81 49.67 52.81 56.35 60.52
1514.534 65.05 70.09 75.75 82.07 89.58 97.74 107.43 118.83 132.05 147.2
1533.828 164.57 183.19 201.17 218.56 232.37 240.32 241.75 236.94 226.39 210.74
1553.121 192.2 172.35 155.15 139.97 127.49 118.09 109.99 102.84 96.03 89.09
1572.415 82.11 75.01 67.38 59.93 53.05 46.63 41.1 36.27 32.26 29.03
1591.708 26.52 24.51 22.91 21.7 20.78 19.92 19.02 18.1 17.08 15.91
1611.002 14.7 13.57 12.54 11.59 10.82 10.21 9.71 9.26 8.78 8.35
1630.295 7.97 7.57 7.17 6.75 6.29 5.91 5.6 5.33 5.07 4.83
1649.588 4.6 4.4 4.15 3.89 3.75 3.64 3.51 3.45 3.33 3.25
1668.882 3.25 3.15 3.08 3.11 3.14 3.1 3.06 3.04 3.05 3.04
1688.175 3.01 2.97 2.9 2.84 2.81 2.84 2.87 2.83 2.81 2.85
1707.469 2.83 2.76 2.7316 2.6689 2.6732 2.7241 2.6571 2.5934 2.5589 2.4911
1726.762 2.463 2.5069 2.5171 2.5136 2.4901 2.4535 2.4592 2.5104 2.6076 2.724
1746.056 2.94 3.17 3.42 3.8 4.16 4.52 4.81 5.02 5.14 5.12
1765.349 4.95 4.7 4.37 3.97 3.59 3.25 2.93 2.6241 2.4407 2.3032
1784.642 2.1464 2.0245 1.9173 1.8095 1.7155 1.645 1.596 1.593 1.635 1.6545
1803.936 1.625 1.583 1.609 1.653 1.6523 1.6478 1.6663 1.676 1.6908 1.74115
1823.229 1.7773 1.844 1.9893 2.0429 2.0593 2.0993 2.1124 2.141 2.1399 2.0927
1842.523 2.0545 2.0235 1.9776 1.9123 1.8523 1.80953 1.75448 1.6723 1.619 1.6455
1861.816 1.601 1.548 1.544 1.542 1.546 1.546 1.545 1.557 1.6519 1.7293
1881.110 1.80457 1.9388 2.0779 2.2736 2.524 2.76 3.02 3.32 3.56 3.72
1900.403 3.83 3.85 3.72 3.51 3.28 2.97 2.6222 2.2748 1.9654 1.75001
1919.696 1.564 1.428 1.398 1.383 1.35 1.307 1.288 1.266 1.257 1.279
1938.990 1.279 1.242 1.218 1.249 1.248 1.256 1.274 1.227 1.217 1.242
1958.283 1.235 1.223 1.198 1.214 1.225 1.203 1.213 1.203 1.203 1.216
1977.577 1.225 1.243 1.253 1.265 1.271 1.269 1.281 1.281 1.27 1.25
1996.870 1.224 1.185 1.178 1.157 1.135 1.131 1.102 1.064 1.06 1.107
2016.164 1.166 1.167 1.129 1.119 1.1 1.091 1.107 1.115 1.118 1.099
2035.457 1.077 1.064 1.042 1.052 1.051 1.043 1.037 1.022 1.023 1.043
2054.750 1.064 1.036 1.023 1.058 1.05 1.016 0.998 1.02 1.032 1.011
2074.044 0.99 1.005 1.026 1.001 0.978 0.954 0.951 0.989 0.996 0.951
2093.337 0.927 0.925 0.918 0.937 0.933 0.93 0.921 0.907 0.899 0.927
2112.631 0.929 0.899 0.875 0.836 0.862 0.893 0.858 0.823 0.835 0.864
2131.924 0.894 0.91 0.904 0.885 0.881 0.908 0.907 0.874 0.901 0.906
2151.218 0.903 0.911 0.893 0.912 0.923 0.908 0.931 0.963 0.981 0.994
2170.511 0.992 1.023 1.037 1.044 1.092 1.123 1.135 1.117 1.084 1.072
2189.804 1.05 1.022 0.976 0.96 0.996 0.99 0.986 1.03 1.013 0.959
2209.098 0.974 0.985 1 0.993 0.953 0.941 0.952 0.992 0.991 0.961
2228.391 0.949 0.925 0.912 0.935 0.929 0.917 0.863 0.833 0.885 0.916
2247.685 0.921 0.901 0.878 0.878 0.911 0.96 1.002 1.019 1.008 1.026
2266.978 1.03 1.037 1.024 0.998 1.011 0.939 0.861 0.877 0.891 0.871
2286.272 0.841 0.811 0.836 0.852 0.825 0.85 0.902 0.913 0.947 1.007
2305.565 1.033 1.064 1.092 1.097 1.133 1.106 1.081 1.078 1.048 1.038
2324.858 1.008 0.997 0.989 1.02 1.076 1.062 1.086 1.128 1.165 1.2
2344.152 1.166 1.168 1.224 1.25 1.211 1.169 1.12 1.074 1.06 1.022
2363.445 0.99 1.005 1.001 0.992 0.98 0.968 1.001 1.028 1.023 0.998
2382.739 1.019 1.082 1.146 1.188 1.198 1.211 1.243 1.273 1.292 1.308
2402.032 1.35 1.407 1.443 1.486 1.509 1.531 1.589 1.6467 1.6682 1.6472
2421.326 1.6565 1.6616 1.6644 1.627 1.513 1.411 1.349 1.308 1.268 1.232
2440.619 1.209 1.192 1.192 1.193 1.203 1.187 1.12 1.102 1.131 1.132
2459.912 1.102 1.101 1.129 1.127 1.07 1.007 0.997 1.003 0.987 0.922
2479.206 0.879 0.875 0.845 0.833 0.842 0.864 0.862 0.816 0.785 0.805
2498.499 0.801 0.781 0.771 0.76 0.74 0.71 0.73 0.74 0.745 0.779
2517.793 0.802 0.828 0.854 0.864 0.886 0.912 0.905 0.966 1.059 1.118
2537.086 1.171 1.171 1.14 1.114 1.088 1.073 1.048 0.998 0.959 0.933
2556.380 0.913 0.898 0.861 0.804 0.799 0.769 0.781 0.853 0.858 0.854
2575.673 0.892 0.966 1.029 1.057 1.082 1.12 1.17 1.138 1.079 1.065
2594.966 1.058 1.008 0.922 0.896 0.865 0.805 0.795 0.808 0.828 0.833
2614.260 0.775 0.783 0.818 0.807 0.831 0.884 0.861 0.86 0.886 0.881
2633.553 0.897 0.919 0.905 0.904 0.919 0.956 0.996 1.001 1.011 1.024
2652.847 1.093 1.165 1.178 1.192 1.189 1.174 1.252 1.328 1.31 1.307
2672.140 1.324 1.33 1.357 1.387 1.419 1.419 1.488 1.569 1.603 1.6952
2691.434 1.75708 1.78566 1.81613 1.8528 1.8955 1.9259 1.9421 1.9014 1.8432 1.76046
2710.727 1.639 1.525 1.479 1.362 1.271 1.282 1.221 1.217 1.235 1.202
2730.020 1.213 1.18 1.113 1.132 1.206 1.237 1.3 1.391 1.436 1.452
2749.314 1.493 1.555 1.582 1.633 1.6409 1.551 1.504 1.539 1.485 1.391
2768.607 1.28 1.14 0.996 0.949 0.958 0.902 0.877 0.895 0.91 0.934
2787.901 0.934 0.903 0.946 1.05 1.088 1.057 1.042 1.125 1.236 1.254
2807.194 1.236 1.26 1.334 1.426 1.526 1.6546 1.6968 1.6774 1.76815 1.8951
2826.488 1.9706 2.0782 2.2599 2.4326 2.4913 2.5966 2.6798 2.77 2.87 2.97
2845.781 3.08 3.11 3.25 3.55 3.77 3.87 4.06 4.37 4.72 5.06
2865.074 5.35 5.68 6.01 6.37 6.72 7.06 7.43 7.69 7.84 7.91
2884.368 7.9 7.94 7.94 7.75 7.59 7.35 7.03 6.73 6.38 6.11
2903.661 5.89 5.7 5.54 5.39 5.3 5.3 5.34 5.41 5.47 5.66
2922.955 5.9 6.15 6.57 7.17 8.02 9.06 10.21 11.52 12.97 14.41
2942.248 15.51 16.23 16.59 16.39 15.7 14.64 13.24 11.68 10.17 8.87
2961.542 7.98 7.33 6.83 6.57 6.52 6.71 7.06 7.47 7.95 8.54
2980.835 9.25 9.88 10.37 10.76 10.85 10.76 10.57 10.26 9.9 9.22
3000.128 8.37 7.6 6.85 6.24 5.66 5.17 4.84 4.55 4.24 4.1
3019.422 4.14 4.1 4.13 4.18 4.27 4.53 4.78 4.84 4.91 5.26
3038.715 5.4 5.35 5.43 5.46 5.45 5.51 5.69 5.75 5.66 5.81
3058.009 6.09 6.49 6.96 7.42 7.94 8.57 9.09 9.41 9.58 9.57
3077.302 9.4 8.85 8.15 7.44 6.46 5.45 4.69 4.15 3.69 3.1
3096.596 2.7029 2.5365 2.2864 2.1573 2.1275 1.9514 1.689 1.557 1.477 1.368
3115.889 1.276 1.123 1.018 0.956 0.858 0.881 0.868 0.71 0.61 0.73
3135.182 0.71 0.5 0.43 0.45 0.54 0.52 0.47 0.45 0.44 0.45
3154.476 0.47 0.48 0.54 0.62 0.54 0.51 0.47 0.4 0.54 0.48
3173.769 0.37 0.43 0.4 0.33 0.32 0.24 0.14 0.12 0.06 0.09
3193.063 0.29 0.36 0.32 0.24 0.17 0.15 0.1 0.19 0.44 0.37
3212.356 0.22 0.24 0.18 0.18 0.13 0 0.06 0.16 0.07 0.05
3231.650 0.03 0.08 0.15 0.19 0.14 0.07 0.2 0.23 0.16 0.14
3250.943 0.2 0.17 0.11 0.15 0.22 0.19 0.2 0.32 0.38 0.33
3270.236 0.33 0.32 0.25 0.17 0.13 0.16 0.13 0.12 0.16 0.21
3289.530 0.19 0.13 0.11 0.09 0.17 0.3 0.34 0.37 0.29 0.25
3308.823 0.19 0.18 0.32 0.44 0.56 0.53 0.32 0.08 0.2 0.5
3328.117 0.36 0.26 0.41 0.4 0.42 0.4 0.46 0.56 0.6 0.55
3347.410 0.46 0.45 0.46 0.43 0.35 0.32 0.43 0.56 0.54 0.48
3366.704 0.54 0.62 0.51 0.54 0.62 0.5 0.45 0.44 0.5 0.59
3385.997 0.57 0.58 0.62 0.67 0.73 0.68 0.61 0.58 0.6 0.68
3405.290 0.68 0.63 0.6 0.73 0.822 0.67 0.58 0.65 0.78 0.799
3424.584 0.63 0.59 0.64 0.62 0.67 0.72 0.72 0.71 0.778 0.773
3443.877 0.69 0.61 0.6 0.757 0.864 0.883 0.868 0.921 0.969 0.904
3463.171 0.916 0.937 0.973 0.937 0.801 0.771 0.884 0.957 0.956 0.986
3482.464 0.933 0.911 0.96 0.886 0.786 0.794 0.863 0.933 0.889 0.797
3501.758 0.916 0.988 0.984 0.932 0.805 0.881 0.972 0.919 0.994 1.025
3521.051 0.922 0.859 0.887 0.967 0.889 0.823 0.851 0.876 0.928 1.017
3540.344 1.065 0.985 0.911 0.89 0.968 1.01 1.013 1.02 0.953 0.974
3559.638 1.015 0.977 0.974 1.055 1.061 0.997 0.954 1.042 1.074 1.129
3578.931 1.163 1.074 1.09 1.162 1.209 1.122 1.098 1.078 0.99 0.975
3598.225 0.919 0.899 0.918 0.945 1.048 1.111 1.07 1.017 1.094 1.127
3617.518 1.19 1.166 1.082 1.101 0.972 0.905 0.951 0.929 0.892 0.927
3636.812 1.02 1.129 1.134 1.076 1.058 1.13 1.169 1.04 0.988 1.064
3656.105 1.036 0.972 1.036 1.082 1.153 1.258 1.251 1.183 1.098 1.059
3675.398 1.019 0.98 0.993 1.082 1.064 1.044 1.122 1.201 1.262 1.206
3694.692 1.159 1.195 1.195 1.145 1.111 1.214 1.305 1.172 1.129 1.218
3713.985 1.185 1.094 1.023 1.066 1.184 1.155 1.081 1.114 1.103 1.066
3733.279 1.088 1.112 1.151 1.19 1.175 1.226 1.287 1.257 1.203 1.171
3752.572 1.144 1.061 1.074 1.137 1.16 1.104 1.096 1.157 1.184 1.161
3771.866 1.182 1.245 1.238 1.144 1.135 1.203 1.19 1.144 1.124 1.034
3791.159 1.058 1.081 1.043 1.081 1.116 1.141 1.063 1.077 1.115 1.069
3810.452 1.037 1.017 1.088 1.09 1.048 1.085 1.11 1.053 0.986 1.027
3829.746 1.077 1.101 1.165 1.168 1.016 0.961 1.035 1.048 1.005 1.033
3849.039 1.087 1.093 1.02 1.032 1.166 1.199 1.183 1.18 1.189 1.16
3868.333 1.167 1.21 1.227 1.113 1.065 1.164 1.119 1.075 1.064 1.022
3887.626 1.061 1.1 1.053 1.077 1.106 1.119 1.167 1.13 1.126 1.135
3906.920 1.053 1.076 1.13 1.038 0.996 1.041 1.01 1.059 1.081 1.064
3926.213 1.094 1.08 1.096 1.162 1.175 1.199 1.207 1.145 1.094 1.137
3945.506 1.281 1.318 1.329 1.333 1.365 1.34 1.352 1.402 1.415 1.514
3964.800 1.431 1.358 1.328 1.258 1.232 1.146 1.134 1.157 1.188 1.183
3984.093 1.145 1.162 1.093 1.035 1.096 1.158 1.112 1.018 1.038
##END=
