##TITLE=o-Methoxycinnamic acid
##JCAMP-DX=4.24
##DATA TYPE=INFRARED SPECTRUM
##ORIGIN=EPA-IR VAPOR PHASE LIBRARY
##OWNER=SRD/NIST
Collection (C) 2018 copyright by the U.S. Secretary of Commerce
on behalf of the United States of America. All rights reserved.
##CAS REGISTRY NO=6099-03-2
##MOLFORM=C 10 H 10 O 3
##$NIST SOURCE=MSDC-IR
##STATE=gas
##XUNITS=1/CM
##YUNITS=ABSORBANCE
##XFACTOR=1.
##YFACTOR=0.001
##DELTAX=1.92898
##FIRSTX=549.8
##LASTX=4000.7
##FIRSTY=7.7661
##MAXX=4000.7
##MINX=549.759
##MAXY=0.0469961
##MINY=0
##NPOINTS=1790
##XYDATA=(X++(Y..Y))
549.759 7.7661 8.1661 8.6561 8.3761 8.3061 8.3861 8.1661 8.0261 7.8561 7.7761
569.049 7.6261 7.4161 7.1661 7.2561 7.6161 7.6961 7.5761 7.3461 7.4061 7.4761
588.339 7.3261 7.0861 6.6261 5.9761 4.9961 3.9261 3.2561 2.7161 2.3961 2.2061
607.628 2.0461 1.7861 1.5561 1.5761 1.3761 1.2361 1.1661 1.1761 1.1461 1.1361
626.918 1.3961 1.3861 1.3061 1.4961 1.7461 1.9861 2.0161 2.2161 2.4661 2.4861
646.208 2.6461 2.7961 2.8361 2.9261 2.8461 2.5961 2.3461 2.1061 1.7261 1.3661
665.498 1.0442 0.6328 0.5585 0.637 0.6177 0.5271 0.4716 0.5337 0.6769 0.6748
684.787 0.6788 0.7182 0.6607 0.605 0.5481 0.5279 0.525 0.6395 0.5918 0.4869
704.077 0.6244 0.6986 0.7106 0.698 0.7216 0.8563 1.0268 1.0895 1.1361 1.2361
723.367 1.2561 1.3061 1.4761 1.8861 2.3861 2.9361 3.8161 4.9061 6.0561 7.3661
742.657 8.8561 10.4761 11.9161 13.2061 13.7261 13.1961 12.1061 10.7361 9.5061 8.3161
761.947 7.0561 5.8961 4.8461 4.1961 3.7461 3.3861 3.0461 2.6261 2.2261 1.9961
781.236 1.9261 1.7661 1.6161 1.4361 1.3361 1.1861 0.8771 0.8839 1.0122 0.8948
800.526 0.7403 0.7799 0.6525 0.6054 0.6938 0.6184 0.8278 0.9628 0.8645 1.0253
819.816 1.0281 0.8043 0.834 1.0961 1.2461 1.2561 1.1561 1.0961 1.2561 1.2061
839.106 0.9395 0.9584 1.2461 1.3561 1.3661 1.3761 1.4861 1.5661 1.7461 1.8961
858.395 1.8361 2.0161 2.2661 2.3661 2.4661 2.6961 2.5761 2.5361 2.7661 2.5461
877.685 2.1661 2.0461 2.1261 1.8861 1.6561 1.8161 1.9261 1.8761 1.9061 1.9461
896.975 1.9461 1.9961 1.8261 1.8361 1.9261 1.7861 1.5461 1.4261 1.3861 1.2061
916.265 1.1561 1.1361 1.1761 1.1861 1.0482 1.0034 1.1861 1.2861 1.3661 1.4561
935.555 1.4061 1.5461 1.8761 2.0761 1.9261 1.7861 1.8561 1.7861 1.6961 1.8561
954.844 1.9861 2.0561 2.1561 2.1061 2.1361 2.3461 2.5761 2.7461 3.1061 3.5861
974.134 3.9361 4.4061 4.8561 5.2361 5.6161 5.8061 5.6261 5.5461 5.3561 4.9161
993.424 4.6661 4.3661 3.9861 3.7661 3.6461 3.6061 3.6361 3.6061 3.7161 3.9961
1012.714 4.3661 4.6161 4.8261 5.1961 5.6561 6.0761 6.4761 6.9761 7.0861 6.9761
1032.003 6.9861 7.1261 6.9561 6.7061 6.6361 6.6961 6.5561 6.4061 6.6061 6.2561
1051.293 5.6861 5.4961 5.5461 5.2361 4.5461 3.9861 3.9361 3.8661 3.4661 3.4261
1070.583 3.3361 3.3461 3.5761 3.9361 4.2861 4.3761 4.6961 5.2561 5.8861 6.5561
1089.873 7.3461 8.5361 9.9461 11.7561 13.8661 16.0961 18.4961 21.5761 25.9561 30.6261
1109.163 35.1561 38.9861 41.6661 43.1961 42.7961 41.0861 38.1061 33.4761 27.9561 23.0361
1128.452 19.4261 16.7661 15.1561 13.9561 13.0261 12.6761 12.4861 12.6961 13.1761 13.8161
1147.742 14.8661 15.9661 17.3461 18.3861 18.7461 18.5761 17.4761 16.0761 14.5361 12.5061
1167.032 10.4161 8.4561 7.1061 6.1261 5.3761 5.4061 5.1161 4.8261 4.8061 4.7061
1186.322 4.5661 4.3161 4.3661 4.4061 4.2361 3.9261 3.4961 3.5561 3.7161 3.6161
1205.611 3.6961 3.6461 3.6461 3.8461 3.8861 4.1961 4.7461 5.1061 5.3661 5.8761
1224.901 6.9061 8.4061 9.6361 10.7661 12.1261 13.6561 15.5161 17.1861 18.8161 20.3861
1244.191 21.7061 22.9061 23.6261 23.4961 23.0261 22.4561 21.1861 19.4461 17.7661 15.9061
1263.481 14.0661 12.8261 11.7661 10.7261 9.7561 9.0661 8.5661 8.1861 8.1261 8.0361
1282.771 7.8361 7.8661 7.8161 7.8561 7.9761 7.8561 7.8461 7.7561 7.5461 7.4461
1302.060 7.4661 7.5761 7.6461 7.7561 8.0061 8.1461 8.3161 8.4961 8.6461 8.7361
1321.350 8.6261 8.4161 8.1161 7.7861 7.4161 7.0861 6.8161 6.6161 6.4961 6.4761
1340.640 6.5861 6.8661 7.3461 7.9861 8.7861 9.6561 10.5561 11.3661 11.9761 12.2961
1359.930 12.1861 11.7261 10.9261 9.8261 8.5261 7.2161 5.9761 4.8661 3.9761 3.3361
1379.219 2.8561 2.5261 2.3261 2.1361 1.9661 1.8361 1.8261 1.7161 1.6161 1.6461
1398.509 1.6461 1.6161 1.5661 1.5561 1.5561 1.5761 1.5961 1.6361 1.6961 1.7661
1417.799 1.8761 1.9761 2.0561 2.2061 2.4761 2.8061 3.2361 3.7361 4.2361 4.7161
1437.089 5.1761 5.5061 5.6661 5.7561 5.7761 5.7061 5.5261 5.3961 5.3861 5.4861
1456.378 5.7261 6.1061 6.5761 6.9661 7.2761 7.5661 7.7861 7.9961 8.1861 8.5761
1475.668 9.1961 9.7761 10.4961 11.3361 11.9661 12.3561 12.4861 12.4161 12.1061 11.4861
1494.958 10.6261 9.6161 8.6361 7.8161 7.1661 6.5661 5.9261 5.3061 4.7461 4.2261
1514.248 3.6561 3.0561 2.5561 2.1361 1.7861 1.5761 1.4561 1.3861 1.3361 1.2861
1533.538 1.1961 1.0944 1.0754 1.1361 1.1661 1.1061 1.0877 1.0947 1.1161 1.2161
1552.827 1.2961 1.3361 1.3561 1.5161 1.7561 1.8861 2.1561 2.4961 2.6861 2.9661
1572.117 3.3261 3.5761 3.7561 4.0161 4.2061 4.3261 4.4861 4.6061 4.7561 4.9761
1591.407 5.2661 5.5161 5.8261 5.9561 5.9061 5.8661 5.6361 5.3661 5.0761 4.7961
1610.697 4.5861 4.4361 4.3761 4.4961 4.6661 5.0561 5.8061 6.6261 7.6161 8.8561
1629.986 10.1961 11.5561 12.8761 13.8761 14.2961 14.1761 13.4061 12.1261 10.3661 8.3061
1649.276 6.3561 4.7861 3.5961 2.8361 2.3561 2.0461 1.8461 1.7061 1.6561 1.6161
1668.566 1.5761 1.5961 1.5761 1.5061 1.5761 1.6261 1.6261 1.6361 1.6161 1.6261
1687.856 1.7061 1.7161 1.7461 1.8761 1.9761 2.0961 2.2761 2.4861 2.7161 2.9461
1707.146 3.1961 3.4861 3.8361 4.2361 4.6461 5.0961 5.4761 6.0461 6.7761 7.4761
1726.435 8.4061 9.5561 10.8461 12.5061 14.6861 17.4161 20.5661 24.4361 28.7061 33.2461
1745.725 37.6961 41.7561 44.9261 46.8561 46.9961 45.1061 41.8161 38.0261 33.9561 29.4361
1765.015 24.5961 20.1561 16.6961 14.3261 12.6161 11.4161 10.6561 10.0861 9.6061 9.3261
1784.305 8.9461 8.4761 8.0361 7.4561 6.8161 6.2761 5.7761 5.3061 4.9561 4.5961
1803.594 4.1261 3.7661 3.5461 3.3161 3.1061 2.8761 2.6161 2.4061 2.2361 2.0661
1822.884 1.9561 1.8261 1.6561 1.6061 1.5461 1.3761 1.2561 1.2561 1.1861 1.1161
1842.174 1.1261 1.0612 0.9863 0.9598 0.9456 0.959 0.9249 0.9316 0.8742 0.8506
1861.464 0.9187 0.8747 0.8458 0.878 0.9304 0.8519 0.7728 0.8506 0.8834 0.8655
1880.754 0.8949 0.904 0.9686 1.0187 0.9505 0.9198 0.9968 1.0368 0.9742 0.9023
1900.043 0.8868 0.8095 0.8035 0.8235 0.7323 0.6238 0.5654 0.6109 0.6082 0.6504
1919.333 0.6927 0.6829 0.7629 0.8326 0.8466 0.8467 0.7972 0.785 0.8187 0.8296
1938.623 0.7758 0.701 0.7225 0.6748 0.586 0.6163 0.5837 0.5936 0.6623 0.6057
1957.913 0.545 0.5435 0.6387 0.7091 0.6683 0.6315 0.5988 0.5688 0.5656 0.558
1977.202 0.5237 0.5094 0.5117 0.5188 0.5402 0.5558 0.5529 0.552 0.5356 0.5546
1996.492 0.6045 0.6365 0.6282 0.6308 0.7161 0.6958 0.6372 0.673 0.6814 0.7339
2015.782 0.8393 0.8007 0.7533 0.8221 0.9257 0.9364 0.8492 0.8222 0.7948 0.7821
2035.072 0.815 0.8431 0.8771 0.9282 0.9376 0.9528 0.9158 0.8413 0.891 0.9491
2054.362 0.9153 0.8365 0.8196 0.8675 0.8307 0.8205 0.8607 0.7847 0.7473 0.7715
2073.651 0.7493 0.6724 0.6986 0.7049 0.6343 0.5652 0.5149 0.6316 0.6005 0.5139
2092.941 0.5281 0.5521 0.572 0.5734 0.5386 0.5304 0.5611 0.482 0.4167 0.3748
2112.231 0.4029 0.4713 0.4542 0.4219 0.4686 0.4598 0.4369 0.4677 0.4543 0.427
2131.521 0.4335 0.5151 0.5418 0.4969 0.4909 0.4797 0.5136 0.5748 0.568 0.5543
2150.810 0.4544 0.367 0.3808 0.3953 0.4492 0.4838 0.4248 0.4021 0.4276 0.4703
2170.100 0.5082 0.5225 0.4746 0.4654 0.5128 0.4695 0.493 0.507 0.4738 0.4617
2189.390 0.4619 0.4705 0.5016 0.4832 0.4482 0.4876 0.5499 0.5784 0.5647 0.567
2208.680 0.5516 0.6327 0.7051 0.6989 0.6687 0.6462 0.6495 0.6158 0.5728 0.5922
2227.970 0.6202 0.6133 0.5929 0.6318 0.6374 0.6171 0.6407 0.6372 0.7025 0.6987
2247.259 0.6312 0.5869 0.6152 0.6781 0.6122 0.5632 0.6508 0.6812 0.6159 0.6232
2266.549 0.615 0.6094 0.6572 0.6721 0.577 0.5144 0.5637 0.5858 0.578 0.497
2285.839 0.5032 0.5789 0.561 0.5339 0.5831 0.5666 0.5258 0.5522 0.5985 0.6052
2305.129 0.5302 0.4831 0.5279 0.6456 0.6573 0.5937 0.6155 0.6464 0.6403 0.5548
2324.418 0.5443 0.5929 0.6068 0.6297 0.6238 0.6309 0.5825 0.5995 0.6419 0.6708
2343.708 0.6404 0.5953 0.6096 0.5368 0.54 0.5706 0.5405 0.5817 0.6296 0.5363
2362.998 0.5442 0.5956 0.5487 0.5742 0.603 0.6224 0.6164 0.5202 0.4893 0.5413
2382.288 0.5199 0.5201 0.5519 0.4973 0.3989 0.4384 0.5237 0.5506 0.5554 0.537
2401.578 0.5291 0.4746 0.4811 0.5326 0.5801 0.5671 0.565 0.5658 0.5898 0.59
2420.867 0.4399 0.4998 0.5573 0.474 0.544 0.5756 0.5347 0.5373 0.4797 0.507
2440.157 0.5852 0.5625 0.5255 0.5724 0.625 0.5919 0.5944 0.5493 0.5187 0.5546
2459.447 0.5782 0.6724 0.6658 0.6467 0.7218 0.7647 0.7161 0.6876 0.6676 0.6414
2478.737 0.7033 0.673 0.6157 0.6229 0.6742 0.7046 0.6936 0.6884 0.7386 0.7629
2498.026 0.6921 0.7173 0.705 0.6627 0.661 0.6393 0.6452 0.6165 0.55 0.56
2517.316 0.5877 0.5569 0.686 0.8006 0.753 0.6521 0.581 0.5942 0.6225 0.6834
2536.606 0.6741 0.5904 0.6225 0.672 0.7585 0.7305 0.6628 0.6879 0.7301 0.7138
2555.896 0.5732 0.6175 0.6726 0.6768 0.6783 0.5837 0.6107 0.7426 0.7537 0.7469
2575.186 0.727 0.6581 0.6319 0.6498 0.6552 0.6387 0.6387 0.5626 0.523 0.592
2594.475 0.6573 0.7511 0.7349 0.6502 0.6441 0.6281 0.5645 0.5892 0.6414 0.6325
2613.765 0.7196 0.657 0.6073 0.626 0.5932 0.6268 0.5946 0.5707 0.5978 0.6844
2633.055 0.6937 0.687 0.6439 0.4925 0.5077 0.57 0.5416 0.5967 0.6529 0.6135
2652.345 0.5766 0.5411 0.5787 0.664 0.63 0.5248 0.5548 0.6347 0.58 0.5832
2671.634 0.6108 0.585 0.6149 0.6497 0.6539 0.583 0.4923 0.5185 0.5848 0.6641
2690.924 0.6479 0.5908 0.7009 0.699 0.6381 0.6492 0.6479 0.7017 0.7416 0.697
2710.214 0.7332 0.7042 0.6164 0.6635 0.6713 0.6096 0.603 0.6562 0.6397 0.545
2729.504 0.501 0.521 0.5714 0.6381 0.7207 0.7423 0.6843 0.7066 0.7536 0.8726
2748.794 0.9104 0.8361 0.8231 0.8504 0.7736 0.7574 0.8874 0.8423 0.8161 0.8572
2768.083 0.8503 0.8658 0.7716 0.7757 0.867 0.8112 0.8023 0.81 0.7913 0.7321
2787.373 0.7294 0.6826 0.6848 0.8141 0.8174 0.7727 0.8269 0.8347 0.9184 1.1061
2806.663 1.1361 1.1361 1.0531 1.0155 0.9858 0.9824 1.1261 1.2261 1.2861 1.3361
2825.953 1.4361 1.5561 1.7061 1.8561 2.0761 2.3961 2.6061 2.8161 3.0361 3.2061
2845.242 3.3461 3.4561 3.6261 3.4561 3.1261 2.9561 2.6061 2.2461 2.1661 2.1461
2864.532 2.0761 1.8861 1.6661 1.6261 1.5961 1.6161 1.6461 1.7061 1.7661 1.7761
2883.822 1.7361 1.7961 1.8761 1.9361 1.9561 2.0561 2.0961 2.0561 2.2661 2.4561
2903.112 2.3761 2.3561 2.4961 2.5861 2.5961 2.7061 2.9061 2.9861 2.9761 3.0261
2922.401 3.1661 3.0561 2.9261 3.0261 3.0961 3.1961 3.4561 3.7961 4.0061 4.2361
2941.691 4.5961 4.8961 5.1061 5.2161 5.3961 5.3561 5.2061 5.1161 4.9261 4.8561
2960.981 4.6661 4.2761 4.0661 3.9061 3.5661 3.4061 3.2161 2.8861 2.7461 2.5661
2980.271 2.4161 2.4261 2.4461 2.4461 2.4961 2.3961 2.4061 2.5161 2.5761 2.7361
2999.561 2.9761 3.2061 3.3761 3.5761 3.7761 3.7461 3.5861 3.5061 3.3261 3.2561
3018.850 3.1761 2.9961 2.8461 2.6761 2.7861 2.8961 2.8661 2.8261 2.7161 2.6961
3038.140 2.7161 2.7461 2.6061 2.4661 2.6161 2.6461 2.5261 2.4561 2.5261 2.7261
3057.430 2.8061 2.6761 2.7461 3.0061 3.2261 3.4861 3.5961 3.7861 4.0161 3.9961
3076.720 3.9861 4.0961 4.1961 3.9761 3.6461 3.5861 3.3061 2.8561 2.5361 2.3261
3096.009 2.1361 1.8061 1.7961 1.8061 1.6261 1.6161 1.7261 1.5661 1.3961 1.3661
3115.299 1.1761 1.0812 1.1161 0.9755 0.7931 0.7065 0.6105 0.8542 1.0191 0.8948
3134.589 1.0056 0.965 0.7166 0.7933 0.7846 0.7366 0.8229 0.7145 0.7216 0.7456
3153.879 0.833 0.8534 0.684 0.7061 0.7523 0.7755 0.7613 0.7698 0.8043 0.6738
3173.169 0.715 0.8037 0.8138 0.741 0.7017 0.8247 0.8806 0.7603 0.5713 0.5334
3192.458 0.4175 0.4075 0.4742 0.4594 0.5218 0.6138 0.6602 0.7267 0.6384 0.4748
3211.748 0.4942 0.6166 0.7153 0.6963 0.7491 0.615 0.6151 0.9076 0.8856 0.7341
3231.038 0.7942 0.7096 0.6691 0.652 0.4836 0.4751 0.6435 0.7791 0.6754 0.528
3250.328 0.5303 0.627 0.5757 0.5499 0.4474 0.3709 0.6062 0.6557 0.5603 0.5233
3269.617 0.5252 0.539 0.6311 0.6306 0.4566 0.334 0.438 0.5394 0.5762 0.6137
3288.907 0.4899 0.521 0.6237 0.6504 0.6731 0.5133 0.3298 0.4824 0.6611 0.6138
3308.197 0.5485 0.5804 0.6467 0.6493 0.471 0.4642 0.6071 0.6456 0.6148 0.62
3327.487 0.5518 0.4666 0.4135 0.4094 0.5504 0.585 0.6402 0.7036 0.4765 0.4188
3346.777 0.4776 0.4584 0.6249 0.7176 0.6319 0.3958 0.4289 0.495 0.3935 0.5053
3366.066 0.5553 0.7416 0.8514 0.6164 0.4097 0.4045 0.6312 0.6636 0.5241 0.6001
3385.356 0.6405 0.448 0.3271 0.4781 0.5851 0.4612 0.377 0.4762 0.4879 0.3919
3404.646 0.5088 0.5889 0.5741 0.5133 0.4937 0.5017 0.3955 0.4076 0.3905 0.3149
3423.936 0.3487 0.2725 0.2498 0.446 0.633 0.4828 0.4237 0.5644 0.626 0.617
3443.225 0.5791 0.6592 0.319 0.2012 0.5964 0.7092 0.6008 0.4687 0.4243 0.4311
3462.515 0.5296 0.707 0.8917 0.8478 0.8163 0.7996 0.6731 0.7648 0.7643 0.6943
3481.805 0.6892 0.7917 0.9185 0.7906 0.8163 0.817 0.6701 0.5278 0.5646 0.9364
3501.095 0.9504 0.8042 0.8293 0.7254 0.6633 0.6781 0.8029 0.8107 0.772 0.8442
3520.385 0.8291 0.776 0.8557 0.9344 0.7789 0.6535 0.6681 0.8344 0.7284 0.7391
3539.674 0.8061 0.6731 0.6841 0.6735 0.6089 0.6318 0.7201 0.8164 0.8098 1.0402
3558.964 1.2861 1.1661 1.2761 1.4761 1.7361 2.3161 3.4561 5.3161 7.9661 10.8261
3578.254 13.7761 16.2961 17.6861 18.3861 17.9161 16.2061 13.3261 9.8961 7.1361 4.9661
3597.544 3.3461 2.2061 1.4361 1.2061 1.0725 0.9741 1.0765 0.9822 0.8492 0.7518
3616.833 0.771 0.8598 0.7804 0.7334 0.6256 0.5047 0.4153 0.4513 0.5659 0.5328
3636.123 0.561 0.5197 0.4985 0.5241 0.5621 0.6642 0.5825 0.6659 0.7124 0.6199
3655.413 0.4802 0.4701 0.607 0.5625 0.5236 0.5367 0.5369 0.6167 0.6358 0.5918
3674.703 0.7617 0.7572 0.5986 0.5104 0.6272 0.6364 0.5252 0.5576 0.4224 0.4134
3693.993 0.5062 0.7077 0.7996 0.6427 0.5146 0.4003 0.4395 0.4917 0.2246 0.2333
3713.282 0.3454 0.2158 0.3316 0.5345 0.5913 0.4371 0.3021 0.2819 0.2728 0.2889
3732.572 0.3218 0.283 0.2847 0.5405 0.6537 0.4844 0.4808 0.5147 0.5257 0.5569
3751.862 0.3692 0.3844 0.5489 0.457 0.438 0.3352 0.3872 0.4917 0.4498 0.3831
3771.152 0.5423 0.5706 0.2819 0.4428 0.5016 0.4948 0.5327 0.5234 0.4896 0.3036
3790.441 0.2454 0.3725 0.4567 0.3612 0.4845 0.549 0.6334 0.6104 0.4873 0.6386
3809.731 0.5592 0.3507 0.3297 0.4733 0.5805 0.4883 0.4595 0.4702 0.4242 0.5564
3829.021 0.739 0.7248 0.5638 0.5008 0.5223 0.5559 0.3225 0.3247 0.3878 0.17684
3848.311 0.15609 0.0866 0 0.0823 0.102987 0.2752 0.6126 0.7099 0.5439 0.476
3867.601 0.5908 0.343 0.1555 0.4375 0.4353 0.3312 0.2367 0.2242 0.3842 0.5283
3886.890 0.6094 0.7429 0.8193 0.5097 0.3304 0.366 0.5046 0.5125 0.4275 0.4656
3906.180 0.4682 0.3182 0.2904 0.3558 0.4566 0.6032 0.4627 0.3896 0.508 0.7105
3925.470 0.6855 0.3894 0.3498 0.527 0.7331 0.7744 0.6205 0.6099 0.5377 0.3135
3944.760 0.3714 0.4766 0.3037 0.2599 0.3978 0.4238 0.4451 0.4386 0.3394 0.3848
3964.049 0.4944 0.6108 0.5764 0.5034 0.6153 0.5984 0.5043 0.5176 0.4517 0.3168
3983.339 0.5702 0.6694 0.4374 0.3674 0.2625 0.2664 0.4507 0.5864 0.6712 0.6331
##END=
