##TITLE=Dinoseb, methyl ether
##JCAMP-DX=4.24
##DATA TYPE=INFRARED SPECTRUM
##ORIGIN=NIST Mass Spectrometry Data Center
##OWNER=NIST Standard Reference Data Program
Collection (C) 2018 copyright by the U.S. Secretary of Commerce
on behalf of the United States of America. All rights reserved.
##CAS REGISTRY NO=6099-79-2
##MOLFORM=C 11 H 14 N 2 O 5
##$NIST SOURCE=MSDC-IR
##SPECTROMETER/DATA SYSTEM=HP-GC/MS/IRD
##STATE=gas
##XUNITS=1/CM
##YUNITS=ABSORBANCE
##XFACTOR=1.0
##YFACTOR=0.000011300
##DELTAX=4.0
##FIRSTX=550.0
##LASTX=3846.0
##FIRSTY=0.000463
##MAXX=3846
##MINX=550
##MAXY=0.113
##MINY=0
##NPOINTS=825
##XYDATA=(X++(Y..Y))
550.0 41 50 25 29 27 31 41 43 42 44
590.0 42 33 28 25 21 13 8 7 5 2
630.0 1 5 13 31 51 77 109 148 209 306
670.0 438 598 758 864 863 758 603 455 348 282
710.0 242 231 242 279 365 539 802 1068 1181 1086
750.0 899 749 663 609 561 535 560 607 629 609
790.0 584 586 580 530 431 318 240 196 172 162
830.0 170 198 206 173 120 74 48 37 36 39
870.0 40 45 62 93 141 208 282 342 391 460
910.0 539 587 589 572 547 474 350 223 150 123
950.0 113 121 142 178 222 272 340 446 610 850
990.0 1190 1608 1985 2127 1926 1495 1044 697 470 329
1030.0 249 202 173 164 167 182 213 266 360 504
1070.0 676 850 993 1079 1099 1064 978 843 695 566
1110.0 463 373 295 237 204 197 211 234 254 265
1150.0 254 226 199 189 202 235 272 311 349 382
1190.0 404 426 462 524 628 767 904 978 964 899
1230.0 852 878 1005 1255 1628 2088 2519 2758 2694 2363
1270.0 1930 1545 1264 1073 950 880 854 859 889 943
1310.0 1024 1141 1316 1588 2020 2741 3959 5894 8247 9893
1350.0 9776 8004 5852 4230 3092 2241 1635 1299 1145 1044
1390.0 941 851 800 799 835 905 1005 1111 1195 1226
1430.0 1184 1069 918 804 773 839 988 1222 1505 1800
1470.0 2022 2090 1978 1753 1538 1427 1424 1475 1501 1482
1510.0 1487 1563 1723 1987 2403 3113 4355 6322 8614 10000
1550.0 9652 7958 5981 4385 3299 2631 2301 2194 2257 2434
1590.0 2623 2655 2482 2182 1862 1556 1241 930 677 507
1630.0 407 353 322 300 278 251 216 184 156 136
1670.0 123 112 103 98 92 86 77 68 58 50
1710.0 44 36 30 27 25 23 20 19 20 20
1750.0 22 24 26 30 38 45 54 63 73 82
1790.0 86 89 84 76 71 68 66 62 55 49
1830.0 42 35 27 19 15 12 11 9 7 9
1870.0 10 9 10 10 11 13 12 12 13 12
1910.0 12 14 14 17 17 18 18 17 16 15
1950.0 16 17 16 17 22 25 27 32 40 44
1990.0 45 47 47 43 39 37 34 26 22 21
2030.0 22 23 23 24 24 25 25 24 21 18
2070.0 16 12 9 6 5 4 2 2 0 1
2110.0 2 1 0 0 1 2 1 1 2 3
2150.0 5 5 4 3 4 3 1 1 3 3
2190.0 1 0 2 2 0 2 2 0 2 3
2230.0 5 3 3 5 7 7 8 12 17 19
2270.0 20 21 21 20 18 17 15 12 11 10
2310.0 10 11 10 11 13 11 13 14 13 14
2350.0 16 14 13 12 12 15 15 15 18 18
2390.0 17 19 20 21 22 19 18 20 20 22
2430.0 23 22 21 19 24 26 26 28 31 34
2470.0 36 34 32 33 32 31 31 32 35 35
2510.0 37 41 42 44 46 45 42 42 42 42
2550.0 43 41 44 46 44 45 47 48 47 46
2590.0 47 47 49 54 56 57 56 53 51 52
2630.0 47 43 40 37 40 41 42 42 43 45
2670.0 48 53 57 62 63 63 64 63 64 62
2710.0 56 55 57 61 63 64 68 73 74 75
2750.0 75 72 70 69 68 72 75 77 82 89
2790.0 95 101 108 115 125 136 149 162 181 207
2830.0 238 275 319 361 397 420 436 465 528 629
2870.0 755 888 1011 1120 1178 1136 1014 896 832 821
2910.0 846 900 985 1104 1247 1413 1601 1778 1871 1831
2950.0 1703 1589 1589 1794 2301 2992 3438 3255 2544 1782
2990.0 1239 910 728 621 550 496 454 416 378 348
3030.0 317 285 260 241 227 218 208 196 193 194
3070.0 196 199 204 216 236 279 355 444 495 458
3110.0 347 235 165 132 116 101 89 82 75 70
3150.0 66 63 61 56 55 56 56 55 55 56
3190.0 52 47 44 44 46 41 36 32 29 24
3230.0 20 17 20 21 17 17 16 15 16 16
3270.0 12 12 14 12 8 12 13 10 8 5
3310.0 4 3 6 3 3 7 4 6 5 3
3350.0 3 4 6 6 8 10 12 9 4 6
3390.0 6 6 5 4 5 9 9 5 6 7
3430.0 4 7 6 5 6 6 7 7 6 6
3470.0 9 7 5 9 11 9 7 7 2 1
3510.0 6 6 5 2 1 5 6 7 9 6
3550.0 1 4 7 7 3 2 6 5 4 3
3590.0 5 7 6 8 9 9 7 3 5 7
3630.0 3 11 16 7 0 4 8 8 11 12
3670.0 9 6 7 10 9 7 7 9 10 14
3710.0 16 14 9 7 7 7 8 9 12 13
3750.0 13 11 11 12 13 14 14 19 16 11
3790.0 14 13 10 13 16 17 14 16 19 15
3830.0 14 19 19 17 17
##END=
