##TITLE=1-Methylanthracene
##JCAMP-DX=4.24
##DATA TYPE=INFRARED SPECTRUM
##ORIGIN=NIST Mass Spectrometry Data Center
##OWNER=NIST Standard Reference Data Program
Collection (C) 2018 copyright by the U.S. Secretary of Commerce
on behalf of the United States of America. All rights reserved.
##CAS REGISTRY NO=610-48-0
##MOLFORM=C 15 H 12
##$NIST SOURCE=MSDC-IR
##SPECTROMETER/DATA SYSTEM=HP-GC/MS/IRD
##STATE=gas
##XUNITS=1/CM
##YUNITS=ABSORBANCE
##XFACTOR=1.0
##YFACTOR=0.000000800
##DELTAX=4.0
##FIRSTX=550.0
##LASTX=3846.0
##FIRSTY=0.000464
##MAXX=3846
##MINX=550
##MAXY=0.008
##MINY=0
##NPOINTS=825
##XYDATA=(X++(Y..Y))
550.0 580 176 6 95 15 81 162 76 113 278
590.0 313 236 223 357 533 838 988 860 583 268
630.0 156 223 209 221 293 236 150 235 347 284
670.0 194 200 231 214 245 324 374 433 533 798
710.0 1471 2729 4603 6669 9040 8977 6676 4914 3240 1890
750.0 1269 920 674 618 612 704 1035 1228 1039 827
790.0 674 470 320 212 137 145 144 243 334 297
830.0 255 325 356 493 699 861 1250 2165 3599 5212
870.0 6922 7673 6429 4519 2930 1780 1113 717 547 384
910.0 273 275 233 210 241 263 332 386 448 579
950.0 682 593 458 383 313 282 281 287 250 290
990.0 370 495 747 797 681 543 416 341 230 240
1030.0 315 342 266 200 263 343 471 529 647 653
1070.0 489 397 359 281 205 208 184 121 93 139
1110.0 169 205 250 388 577 671 754 725 639 510
1150.0 351 312 446 596 661 612 530 449 326 335
1190.0 420 397 398 421 367 348 322 247 250 321
1230.0 332 305 241 200 207 236 289 324 365 398
1270.0 382 361 365 351 299 295 345 417 541 674
1310.0 763 825 803 710 630 655 788 848 821 693
1350.0 497 373 360 399 452 543 664 782 818 763
1390.0 668 577 530 506 463 472 506 553 651 750
1430.0 790 781 852 1011 1112 1179 1271 1367 1404 1261
1470.0 982 763 659 568 502 448 385 349 341 300
1510.0 269 270 243 270 372 471 605 742 821 835
1550.0 783 705 662 659 592 494 433 403 387 311
1590.0 264 317 385 426 475 617 809 981 1080 1090
1630.0 995 778 584 490 445 399 345 302 313 371
1670.0 463 518 505 498 472 493 474 473 509 517
1710.0 517 451 394 383 359 320 329 401 473 465
1750.0 454 540 584 587 591 562 518 491 514 529
1790.0 555 590 567 423 281 269 303 334 360 351
1830.0 327 349 383 369 399 416 380 319 230 176
1870.0 164 165 189 199 225 298 385 455 526 645
1910.0 706 705 654 574 545 523 477 397 256 162
1950.0 127 109 123 120 109 109 136 146 120 101
1990.0 60 82 142 135 128 150 128 103 122 104
2030.0 95 127 114 95 88 78 77 79 94 105
2070.0 101 82 53 78 113 109 109 113 89 87
2110.0 75 62 116 120 107 92 90 102 98 70
2150.0 62 91 110 114 106 97 102 87 91 86
2190.0 50 61 85 76 61 57 94 143 98 51
2230.0 70 85 91 88 58 46 77 119 102 88
2270.0 102 95 123 112 91 99 102 132 138 120
2310.0 117 141 142 135 133 118 113 145 150 124
2350.0 123 109 46 22 35 36 81 98 106 117
2390.0 91 89 114 114 89 84 86 105 110 80
2430.0 79 96 93 105 109 92 79 82 36 46
2470.0 101 98 70 97 147 116 91 57 50 93
2510.0 111 99 113 143 132 80 45 72 113 95
2550.0 58 17 8 19 27 69 82 97 77 42
2590.0 51 71 62 101 103 84 67 55 96 108
2630.0 98 126 148 97 86 102 51 49 88 86
2670.0 88 126 129 116 146 120 72 98 118 108
2710.0 111 146 173 144 151 155 130 184 201 206
2750.0 238 221 204 191 157 153 141 156 174 182
2790.0 252 229 163 200 203 224 258 250 257 244
2830.0 260 324 318 317 373 414 480 642 799 895
2870.0 913 985 980 860 826 862 967 1086 1192 1299
2910.0 1378 1415 1465 1538 1631 1796 1979 2061 2092 2086
2950.0 2074 2072 1961 1758 1629 1753 2118 2468 2584 2383
2990.0 1966 1720 1732 1811 1926 2126 2306 2453 2683 2953
3030.0 3235 3541 3837 4333 5283 6615 8147 9487 10000 9243
3070.0 7346 5099 3330 2391 1941 1658 1440 1256 1185 1108
3110.0 971 827 795 760 646 527 428 413 377 311
3150.0 260 223 214 325 403 328 220 198 211 166
3190.0 152 211 261 224 202 211 195 186 195 165
3230.0 171 234 207 189 263 257 229 253 231 182
3270.0 197 250 237 181 150 128 149 225 236 198
3310.0 197 205 235 226 257 253 260 275 276 216
3350.0 175 179 166 148 87 114 156 138 131 145
3390.0 121 83 200 255 214 281 308 230 189 176
3430.0 189 201 146 153 137 131 174 232 206 164
3470.0 256 277 182 162 173 175 218 188 107 148
3510.0 196 178 228 191 173 189 142 117 0 20
3550.0 137 187 253 235 174 251 292 232 274 229
3590.0 143 185 204 162 196 204 194 202 175 110
3630.0 132 236 263 317 348 296 305 294 223 176
3670.0 125 241 308 271 255 193 212 257 207 202
3710.0 237 210 177 191 217 170 188 239 131 137
3750.0 226 250 276 253 198 228 238 197 291 320
3790.0 328 347 334 260 233 252 172 220 316 311
3830.0 336 405 354 284 369
##END=
