##TITLE=2-Dimethylaminobenzoic acid
##JCAMP-DX=4.24
##DATA TYPE=INFRARED SPECTRUM
##ORIGIN=EPA-IR VAPOR PHASE LIBRARY
##OWNER=SRD/NIST
Collection (C) 2018 copyright by the U.S. Secretary of Commerce
on behalf of the United States of America. All rights reserved.
##CAS REGISTRY NO=610-16-2
##MOLFORM=C 9 H 11 N O 2
##$NIST SOURCE=MSDC-IR
##STATE=gas
##XUNITS=1/CM
##YUNITS=ABSORBANCE
##XFACTOR=1.
##YFACTOR=0.001
##DELTAX=1.92898
##FIRSTX=549.8
##LASTX=4000.7
##FIRSTY=4.993
##MAXX=4000.7
##MINX=549.759
##MAXY=0.094823
##MINY=0
##NPOINTS=1790
##XYDATA=(X++(Y..Y))
549.759 4.993 5.123 6.043 6.623 7.233 8.693 8.553 7.653 7.613 7.273
569.049 7.233 8.103 8.493 7.973 7.743 6.963 6.323 5.723 4.923 4.623
588.339 4.313 3.733 3.493 3.313 2.983 2.683 2.133 2.183 2.533 2.693
607.628 2.633 2.593 2.323 1.983 2.223 2.293 2.733 3.673 3.833 3.533
626.918 3.673 3.763 3.673 3.893 3.893 3.683 3.393 3.263 3.193 2.893
646.208 2.453 2.033 2.033 2.053 1.593 1.563 1.603 1.303 1.413 1.703
665.498 1.673 1.833 2.173 2.353 2.503 2.743 3.043 3.023 3.213 3.983
684.787 4.653 5.433 6.493 7.743 8.713 9.043 10.103 12.333 14.153 13.723
704.077 11.523 9.643 8.873 8.473 7.893 7.073 6.123 5.013 4.503 4.503
723.367 4.313 4.393 3.993 3.733 3.933 4.223 4.253 3.893 3.713 3.673
742.657 3.993 4.303 4.433 4.773 5.283 5.613 6.263 7.233 7.843 8.413
761.947 8.943 9.713 10.503 11.113 11.743 10.693 8.673 7.693 7.003 6.103
781.236 5.543 4.893 4.013 3.653 3.753 3.923 4.383 4.373 3.873 3.883
800.526 3.963 3.943 3.753 3.623 3.433 2.823 2.393 2.303 2.033 2.253
819.816 2.403 2.103 2.033 2.213 2.383 2.213 2.153 1.833 1.733 2.173
839.106 2.193 2.083 1.903 1.743 1.573 1.523 1.793 1.883 1.783 1.973
858.395 2.313 2.183 1.883 2.043 1.953 2.223 2.473 2.243 2.643 2.793
877.685 2.733 2.673 2.563 2.453 2.483 2.883 2.743 2.563 2.913 3.373
896.975 3.693 3.873 3.843 3.803 4.043 4.093 4.163 4.533 5.383 6.293
916.265 7.053 7.963 9.053 10.523 11.513 11.993 12.623 13.263 12.983 12.443
935.555 12.093 11.163 10.213 9.403 8.383 7.403 6.723 6.213 5.863 5.313
954.844 4.943 4.793 4.683 4.583 4.243 3.783 3.463 3.043 2.613 2.583
974.134 2.693 2.563 2.173 2.293 2.273 1.813 1.673 1.733 1.743 1.663
993.424 1.733 1.563 1.543 1.823 1.633 1.393 1.673 2.003 2.093 2.333
1012.714 2.553 2.933 3.003 3.193 3.403 3.333 4.493 6.363 7.783 9.373
1032.003 11.203 11.863 13.223 15.173 16.133 16.003 14.743 14.143 13.273 12.523
1051.293 11.773 10.133 8.893 8.303 7.953 7.433 6.703 6.453 6.123 5.903
1070.583 5.803 5.283 5.043 5.103 4.783 4.473 5.633 6.163 6.273 6.423
1089.873 6.643 6.853 6.203 6.343 7.243 7.573 7.823 9.123 11.083 12.563
1109.163 14.393 15.613 14.393 13.943 15.173 15.043 15.113 16.293 15.923 14.343
1128.452 13.023 12.123 11.123 10.183 9.253 9.123 9.983 9.473 8.803 8.983
1147.742 8.303 8.023 8.973 9.413 8.993 8.983 9.663 9.543 8.933 9.333
1167.032 10.123 10.323 11.643 12.713 12.153 11.903 12.043 12.513 12.783 12.483
1186.322 11.733 11.083 9.893 9.173 8.843 7.993 7.593 6.853 6.843 6.753
1205.611 7.223 8.083 7.383 6.693 6.703 7.653 8.083 8.523 9.403 9.873
1224.901 10.123 11.693 13.633 13.553 12.653 12.193 11.423 10.243 9.493 8.273
1244.191 7.373 6.653 5.513 5.363 5.473 5.473 5.803 6.123 6.793 7.883
1263.481 9.243 10.593 12.133 13.713 14.623 15.993 17.143 17.213 17.813 18.503
1282.771 18.293 17.743 17.133 16.543 15.983 15.493 14.833 13.953 13.193 12.303
1302.060 11.153 10.233 9.553 8.893 8.163 7.563 7.323 7.303 7.333 7.273
1321.350 7.173 7.253 7.293 7.333 7.373 7.413 7.503 7.543 7.613 7.593
1340.640 7.583 7.613 7.623 7.533 7.503 7.473 7.423 7.393 7.233 7.133
1359.930 7.093 7.003 7.053 7.173 7.113 7.053 7.173 7.343 7.503 7.563
1379.219 7.553 7.633 7.793 8.023 8.293 8.473 8.703 8.963 9.233 9.603
1398.509 9.873 10.153 10.583 11.063 11.573 12.123 12.673 13.263 13.933 14.583
1417.799 15.293 16.033 16.773 17.483 17.923 18.343 18.693 18.883 19.073 19.353
1437.089 19.853 20.473 21.243 22.183 23.173 24.073 24.953 25.773 26.593 27.563
1456.378 28.633 29.923 31.313 32.663 33.983 35.233 36.673 38.003 38.873 39.403
1475.668 39.283 38.563 37.493 35.903 33.903 32.033 30.133 27.953 25.623 23.343
1494.958 21.253 19.113 17.073 15.323 13.763 12.363 11.103 10.083 9.083 8.263
1514.248 7.743 7.123 6.553 6.093 5.543 5.363 5.183 4.893 4.823 4.643
1533.538 4.413 4.063 3.913 4.003 3.983 3.963 4.013 3.973 3.943 4.123
1552.827 4.143 4.163 4.373 4.473 4.673 5.123 5.473 5.523 5.753 5.983
1572.117 6.133 6.463 6.683 6.883 7.213 7.643 8.163 8.683 9.133 9.933
1591.407 10.783 11.383 11.933 12.223 12.083 11.483 10.833 9.953 8.883 7.963
1610.697 6.843 5.713 5.043 4.643 4.323 4.043 3.903 3.733 3.443 3.283
1629.986 3.323 3.333 3.333 3.353 3.573 3.643 3.583 3.693 3.753 3.723
1649.276 3.593 3.623 3.723 3.813 3.853 3.883 4.083 4.093 3.973 3.943
1668.566 4.003 3.843 3.753 4.053 4.223 4.283 4.363 4.353 4.353 4.463
1687.856 4.703 5.053 5.293 5.483 5.813 6.123 6.443 6.923 7.253 7.563
1707.146 7.973 8.383 8.853 9.303 9.913 10.723 11.613 12.513 13.373 14.513
1726.435 15.933 17.423 19.293 21.613 24.433 27.793 31.903 36.733 42.023 48.163
1745.725 54.803 61.613 68.313 74.983 81.103 86.333 90.723 93.703 94.823 94.013
1765.015 91.553 87.273 81.673 75.233 67.763 59.753 51.653 43.703 36.433 30.263
1784.305 25.143 21.063 17.823 15.253 13.213 11.643 10.483 9.363 8.373 7.603
1803.594 6.833 6.193 5.733 5.243 4.693 4.273 4.043 3.763 3.463 3.253
1822.884 3.153 3.023 2.853 2.643 2.663 2.783 2.773 2.683 2.533 2.523
1842.174 2.493 2.393 2.393 2.243 2.153 2.283 2.243 2.263 2.343 2.253
1861.464 2.103 2.163 2.273 2.173 2.133 2.093 1.933 1.793 1.733 1.763
1880.754 1.823 1.793 1.663 1.613 1.593 1.493 1.433 1.363 1.343 1.403
1900.043 1.373 1.423 1.583 1.553 1.483 1.523 1.633 1.663 1.593 1.703
1919.333 1.743 1.733 1.793 1.783 1.703 1.813 2.073 2.143 2.123 2.113
1938.623 2.123 2.043 2.003 2.023 2.003 1.963 1.923 1.873 1.763 1.773
1957.913 1.793 1.613 1.603 1.773 1.703 1.613 1.603 1.583 1.543 1.553
1977.202 1.563 1.563 1.513 1.403 1.433 1.363 1.353 1.363 1.373 1.423
1996.492 1.443 1.493 1.473 1.453 1.403 1.443 1.523 1.363 1.383 1.473
2015.782 1.413 1.513 1.553 1.503 1.483 1.383 1.393 1.513 1.503 1.423
2035.072 1.483 1.473 1.313 1.303 1.393 1.463 1.443 1.403 1.393 1.433
2054.362 1.423 1.463 1.393 1.293 1.503 1.553 1.523 1.483 1.503 1.603
2073.651 1.603 1.553 1.473 1.383 1.413 1.623 1.683 1.603 1.563 1.543
2092.941 1.623 1.623 1.533 1.493 1.413 1.453 1.533 1.523 1.623 1.663
2112.231 1.513 1.503 1.583 1.553 1.563 1.623 1.623 1.723 1.673 1.463
2131.521 1.533 1.673 1.673 1.633 1.613 1.743 1.883 1.873 1.773 1.793
2150.810 1.823 1.673 1.723 1.843 1.843 1.753 1.683 1.693 1.643 1.723
2170.100 1.713 1.713 1.763 1.723 1.753 1.743 1.723 1.683 1.783 1.813
2189.390 1.703 1.813 1.863 1.893 1.903 1.903 1.893 1.843 1.803 1.723
2208.680 1.903 2.043 2.033 2.003 1.973 2.103 2.163 2.243 2.193 2.033
2227.970 2.143 2.213 2.153 2.013 1.933 2.133 2.173 2.163 2.263 2.213
2247.259 2.173 2.153 2.113 2.143 2.163 2.123 2.103 2.113 2.213 2.253
2266.549 2.163 2.053 2.183 2.243 2.233 2.343 2.203 2.273 2.513 2.473
2285.839 2.503 2.523 2.483 2.503 2.483 2.463 2.503 2.623 2.663 2.563
2305.129 2.633 2.833 2.903 2.983 2.993 2.963 2.933 2.933 2.973 3.123
2324.418 3.193 3.233 3.243 3.053 3.063 3.193 3.153 3.073 3.083 3.063
2343.708 3.153 3.113 3.093 3.123 3.003 2.933 3.023 3.043 3.113 3.223
2362.998 3.093 3.143 3.323 3.323 3.323 3.243 3.163 3.293 3.283 3.133
2382.288 3.103 3.073 3.133 3.273 3.343 3.403 3.333 3.243 3.273 3.293
2401.578 3.333 3.213 3.293 3.363 3.243 3.303 3.433 3.373 3.373 3.533
2420.867 3.423 3.363 3.483 3.623 3.793 3.833 3.663 3.583 3.623 3.713
2440.157 3.803 3.863 3.863 3.823 3.873 3.843 3.793 3.873 3.983 3.973
2459.447 3.943 4.083 4.223 4.153 4.023 3.983 3.953 3.853 3.883 3.843
2478.737 3.773 3.913 4.053 4.133 4.143 4.263 4.353 4.293 4.213 4.403
2498.026 4.533 4.513 4.583 4.653 4.673 4.643 4.713 4.743 4.853 4.773
2517.316 4.773 4.823 4.823 4.933 5.033 5.093 5.103 5.183 5.153 5.243
2536.606 5.353 5.293 5.163 5.093 5.303 5.563 5.533 5.453 5.523 5.643
2555.896 5.733 5.793 5.943 6.053 5.823 5.663 5.733 5.743 5.733 5.803
2575.186 5.783 5.863 6.143 6.213 6.163 6.173 6.233 6.173 6.103 6.043
2594.475 6.233 6.483 6.373 6.363 6.433 6.543 6.483 6.363 6.563 6.773
2613.765 6.683 6.633 6.843 6.973 6.793 6.803 6.783 6.903 7.063 6.833
2633.055 6.853 6.873 6.873 6.993 7.113 7.103 6.863 6.953 7.133 7.043
2652.345 7.093 7.153 7.133 7.073 6.963 6.993 7.093 7.053 7.093 7.173
2671.634 7.203 7.143 6.923 6.973 7.283 7.393 7.223 7.053 7.153 7.113
2690.924 7.023 6.953 7.063 7.183 6.993 6.953 7.063 7.193 7.243 7.253
2710.214 7.333 7.423 7.293 7.303 7.203 7.193 7.393 7.333 7.353 7.333
2729.504 7.463 7.693 7.743 7.873 7.943 7.783 7.863 8.053 8.073 8.143
2748.794 8.203 8.243 8.303 8.403 8.403 8.253 8.233 8.383 8.493 8.593
2768.083 8.683 8.863 8.973 9.073 9.243 9.513 9.833 9.793 9.903 10.263
2787.373 10.473 10.933 11.273 11.633 12.243 12.643 12.963 13.113 13.413 13.813
2806.663 13.563 13.303 13.253 12.773 12.173 11.713 11.323 11.033 10.603 10.463
2825.953 10.553 10.413 10.453 10.743 11.083 11.373 11.763 12.133 12.653 12.823
2845.242 12.983 13.123 12.853 12.803 12.493 12.273 12.243 12.093 12.133 12.093
2864.532 11.993 12.033 12.363 12.653 12.803 12.893 12.923 13.163 13.213 13.083
2883.822 12.843 12.743 12.923 12.833 12.553 12.333 12.253 12.213 11.923 11.693
2903.112 11.673 11.563 11.463 11.343 11.323 11.253 11.343 11.373 11.103 11.153
2922.401 11.193 11.143 11.263 11.473 11.383 11.073 10.953 10.873 10.903 11.163
2941.691 11.453 11.703 12.163 12.913 13.683 14.623 15.573 16.483 17.213 17.803
2960.981 18.273 18.123 17.283 16.113 15.053 14.013 12.893 11.763 11.073 10.663
2980.271 10.273 10.393 10.893 11.483 12.103 12.833 13.393 13.653 13.663 13.343
2999.561 12.983 12.573 11.883 10.993 10.233 9.383 8.533 8.273 7.993 7.603
3018.850 7.533 7.503 7.653 7.673 7.783 7.793 7.613 7.683 7.743 7.793
3038.140 7.923 7.933 7.693 7.603 7.573 7.613 7.603 7.603 7.833 8.113
3057.430 8.653 9.243 9.433 9.843 10.523 10.823 11.233 11.803 12.163 12.593
3076.720 12.563 12.063 11.713 11.123 10.353 9.693 8.943 8.133 7.593 7.313
3096.009 6.993 6.613 6.193 6.243 6.333 5.963 5.973 5.903 5.573 5.583
3115.299 5.613 5.403 5.303 5.363 5.213 5.053 5.193 5.263 5.333 5.443
3134.589 5.163 5.033 5.053 4.963 4.643 4.673 4.863 4.753 4.673 4.653
3153.879 4.633 4.523 4.673 4.803 4.763 4.703 4.693 4.593 4.533 4.533
3173.169 4.363 4.263 4.113 4.083 4.193 4.063 4.013 3.883 3.543 3.613
3192.458 3.803 3.933 3.723 3.413 3.513 3.583 3.363 3.213 3.383 3.433
3211.748 3.433 3.443 3.343 3.393 3.513 3.243 3.183 3.213 3.223 3.003
3231.038 2.693 2.823 3.013 3.213 2.923 2.723 2.853 2.973 3.023 2.913
3250.328 2.923 2.913 2.953 2.993 2.973 3.063 3.103 2.943 2.823 2.713
3269.617 2.603 2.583 2.453 2.453 2.653 2.573 2.393 2.443 2.383 2.223
3288.907 2.213 2.313 2.353 2.213 2.243 2.333 2.363 2.373 2.453 2.383
3308.197 2.193 2.233 2.243 2.043 1.813 1.873 1.963 2.013 1.983 1.863
3327.487 1.753 1.663 1.663 1.733 1.873 1.753 1.783 1.823 1.633 1.653
3346.777 1.793 1.823 1.773 1.683 1.533 1.503 1.433 1.463 1.453 1.493
3366.066 1.533 1.313 1.273 1.253 1.2077 1.2106 1.423 1.323 1.0748 1.253
3385.356 1.323 1.283 1.353 1.343 1.343 1.303 1.093 1.1534 1.353 1.2176
3404.646 1.1845 1.253 1.0677 0.9266 0.9538 1.0592 1.0831 1.0456 1.1802 1.323
3423.936 1.383 1.273 0.9818 1.1164 1.1727 1.1097 1.2015 1.0525 0.937 1.1027
3443.225 1.313 1.273 1.273 1.273 0.9568 0.8633 0.9437 0.9298 1.0077 1.0019
3462.515 1.059 1.0924 1.0911 1.0339 1.0416 1.0404 1.0026 1.1207 1.2152 1.2065
3481.805 0.9461 0.9876 1.363 1.433 1.233 1.333 1.413 1.463 1.443 1.323
3501.095 1.313 1.363 1.273 1.363 1.583 1.623 1.553 1.313 1.1768 1.1477
3520.385 0.991 0.9689 1.0692 1.1682 1.303 1.1582 1.1021 0.8399 0.8557 1.0892
3539.674 0.9234 0.7734 0.8861 1.253 1.413 1.673 2.043 1.893 1.903 2.483
3558.964 2.993 3.203 3.493 4.113 4.233 4.243 4.473 4.763 4.753 4.223
3578.254 3.813 3.803 3.423 2.403 1.813 1.743 1.663 1.2117 0.8727 0.9952
3597.544 0.9803 0.8065 0.7963 0.8534 0.766 0.5882 0.6838 0.6531 0.5797 0.6718
3616.833 0.8249 0.7296 0.4993 0.9338 0.9409 0.735 0.5865 0.3896 0.6015 0.4826
3636.123 0.3535 0.3975 0.28333 0.4708 0.5228 0.415 0.568 0.4356 0.1943 0.5271
3655.413 0.8424 0.8376 0.7738 0.4818 0.3834 0.3593 0.3825 0.6306 0.8356 0.9138
3674.703 0.7009 0.3837 0.3661 0.6495 0.7807 0.4668 0.30316 0.6633 0.5154 0.30052
3693.993 0.4654 0.4426 0.4195 0.3939 0.4746 0.4496 0.4045 0.3897 0.488 0.5237
3713.282 0.4787 0.6338 0.3822 0.095 0.3683 0.4879 0.3695 0.5254 0.6198 0.3553
3732.572 0.1397 0.3636 0.5599 0.5639 0.5724 0.3451 0.4009 0.3744 0.1566 0.029
3751.862 0.2175 0.3982 0.26749 0.457 0.33221 0.109 0.2048 0.1718 0.3594 0.6875
3771.152 0.4527 0.087 0.004 0.30671 0.6948 0.3963 0 0.095 0.101 0.081
3790.441 0.2118 0.4434 0.5311 0.4788 0.667 0.6626 0.5114 0.7971 0.9222 0.5281
3809.731 0.33243 0.4869 0.5318 0.4408 0.4723 0.4575 0.3781 0.4287 0.3429 0.2124
3829.021 0.27234 0.238533 0.27737 0.4953 0.5002 0.1676 0.108 0.3967 0.7058 0.611
3848.311 0.4545 0.6668 0.5703 0.5182 0.6975 0.7227 0.7691 0.6813 0.4546 0.4908
3867.601 0.4353 0.4142 0.6252 0.6255 0.6861 0.7285 0.6516 0.5792 0.4562 0.384
3886.890 0.31766 0.4635 0.5513 0.4621 0.4494 0.4372 0.3618 0.1631 0.3845 0.5901
3906.180 0.5119 0.22993 0.048 0.359 0.6447 0.7682 0.7277 0.7664 0.7522 0.3297
3925.470 0.28069 0.5125 0.592 0.5571 0.4237 0.32351 0.3652 0.5725 0.6035 0.5092
3944.760 0.6883 0.5358 0.32391 0.5877 0.5206 0.2072 0.3338 0.5736 0.7271 0.5579
3964.049 0.1594 0.4559 0.6926 0.4693 0.114 0.24398 0.6001 0.5303 0.4522 0.575
3983.339 0.6037 0.5138 0.5087 0.5023 0.5453 0.5147 0.3459 0.3656 0.4397 0.3802
##END=
