##TITLE=o-Nitrobenzoyl chloride
##JCAMP-DX=4.24
##DATA TYPE=INFRARED SPECTRUM
##ORIGIN=EPA-IR VAPOR PHASE LIBRARY
##OWNER=SRD/NIST
Collection (C) 2018 copyright by the U.S. Secretary of Commerce
on behalf of the United States of America. All rights reserved.
##CAS REGISTRY NO=610-14-0
##MOLFORM=C 7 H 4 Cl N O 3
##$NIST SOURCE=MSDC-IR
##STATE=gas
##XUNITS=1/CM
##YUNITS=ABSORBANCE
##XFACTOR=1.
##YFACTOR=0.001
##DELTAX=1.92898
##FIRSTX=549.8
##LASTX=4000.7
##FIRSTY=1.882
##MAXX=4000.7
##MINX=549.759
##MAXY=0.072772
##MINY=0
##NPOINTS=1790
##XYDATA=(X++(Y..Y))
549.759 1.882 1.922 1.872 1.822 1.982 1.882 1.802 1.752 1.732 1.702
569.049 1.532 1.3577 1.2448 1.2464 1.186 1.193 1.2467 1.3144 1.2496 0.9258
588.339 0.9444 0.9114 0.6209 0.6873 0.8163 0.7383 0.6968 0.8003 0.9622 1.0474
607.628 1.0752 1.0806 1.1946 1.462 1.562 1.512 1.732 1.952 2.302 3.112
626.918 4.002 5.042 6.482 8.102 10.032 12.192 14.412 16.442 17.782 18.312
646.208 18.732 18.552 17.232 15.782 14.322 12.462 10.532 8.772 7.442 6.722
665.498 6.412 6.292 6.282 6.552 7.192 8.002 9.082 10.602 12.562 15.092
684.787 18.002 21.402 25.222 28.702 31.642 34.342 36.472 37.692 38.382 37.412
704.077 33.852 29.212 24.772 20.842 17.352 14.212 11.782 9.762 7.962 6.612
723.367 5.602 4.812 4.332 4.112 4.022 4.032 3.952 3.902 4.102 4.462
742.657 5.172 6.172 6.882 7.342 7.972 9.222 10.652 11.132 10.022 8.972
761.947 8.972 9.152 9.172 9.142 9.472 9.902 10.362 11.012 11.782 12.022
781.236 11.362 9.992 8.522 7.472 6.542 5.632 4.902 4.262 3.702 3.402
800.526 3.172 2.892 2.822 2.962 3.062 3.032 3.022 3.182 3.272 3.412
819.816 3.692 4.022 4.522 5.332 6.302 7.502 9.172 11.502 14.692 18.532
839.106 22.742 26.872 30.372 32.732 34.062 34.492 34.162 33.392 32.342 30.872
858.395 29.302 28.652 28.982 29.982 31.462 33.252 35.122 36.832 38.632 40.982
877.685 43.492 45.862 48.042 49.432 49.632 48.422 46.002 42.422 38.132 33.432
896.975 28.262 23.252 19.012 15.832 13.442 11.812 10.652 9.502 8.722 8.202
916.265 7.732 7.322 6.852 6.532 6.432 6.402 6.322 5.992 5.732 5.652
935.555 5.682 5.822 5.692 5.502 5.352 5.282 5.182 4.982 4.672 4.292
954.844 4.122 3.892 3.532 3.122 2.782 2.582 2.482 2.252 2.112 2.112
974.134 1.862 1.552 1.4452 1.482 1.3679 1.3641 1.3592 1.1839 1.013 0.9731
993.424 1.047 1.1394 1.0214 0.8784 0.8887 0.7784 0.7748 0.9457 1.1133 0.978
1012.714 0.9624 1.0744 0.9872 0.9915 1.0969 1.2136 1.0416 1.0499 1.3215 1.3682
1032.003 1.3647 1.512 1.632 1.532 1.612 1.702 1.752 1.612 1.2968 1.3238
1051.293 1.2137 1.2039 1.3952 1.2357 1.0108 1.2009 1.2486 1.1657 1.1172 1.1307
1070.583 1.3314 1.682 1.892 1.922 1.962 2.002 2.302 2.242 2.262 2.422
1089.873 2.222 2.102 2.102 2.142 2.252 2.122 1.812 1.662 1.912 2.132
1109.163 1.932 1.922 1.892 1.572 1.572 1.592 1.502 1.612 1.662 1.602
1128.452 1.4543 1.4174 1.4611 1.592 1.792 1.782 1.812 1.932 1.892 2.012
1147.742 2.192 2.342 2.562 2.672 2.842 3.182 3.482 3.812 4.142 4.362
1167.032 4.632 4.982 5.562 6.262 6.972 7.972 9.302 10.902 12.922 15.142
1186.322 17.732 20.902 23.982 26.992 29.612 31.572 32.892 33.202 32.502 30.862
1205.611 28.342 25.032 21.322 17.882 14.902 12.392 10.542 9.242 8.192 7.282
1224.901 6.372 5.502 4.932 4.542 4.082 3.692 3.392 3.042 2.792 2.812
1244.191 2.772 2.632 2.542 2.512 2.442 2.312 2.342 2.562 2.882 3.032
1263.481 3.032 3.112 3.172 3.222 3.252 3.282 3.422 3.582 3.802 4.122
1282.771 4.382 4.742 5.192 5.612 6.012 6.422 6.722 6.872 6.912 6.872
1302.060 6.792 6.532 6.232 5.952 5.672 5.442 5.322 5.312 5.412 5.612
1321.350 5.952 6.462 7.182 8.162 9.432 11.182 13.332 15.862 18.942 22.462
1340.640 26.372 30.432 34.432 38.062 40.952 42.852 43.542 43.032 41.312 38.482
1359.930 34.632 30.062 25.202 20.492 16.272 12.792 10.202 8.302 6.912 5.952
1379.219 5.252 4.732 4.312 3.992 3.742 3.562 3.412 3.272 3.122 3.052
1398.509 2.992 2.922 2.902 2.832 2.822 2.802 2.752 2.732 2.712 2.652
1417.799 2.582 2.512 2.542 2.602 2.622 2.652 2.752 2.782 2.882 3.012
1437.089 3.122 3.332 3.422 3.402 3.402 3.402 3.392 3.342 3.232 3.102
1456.378 2.972 2.942 3.052 3.182 3.342 3.572 3.832 4.102 4.322 4.542
1475.668 4.702 4.842 4.922 4.852 4.762 4.722 4.662 4.542 4.442 4.472
1494.958 4.542 4.632 4.792 4.962 5.152 5.402 5.712 6.202 6.732 7.272
1514.248 8.022 8.872 9.822 10.912 12.302 13.942 15.792 17.942 20.412 23.402
1533.538 26.992 31.242 36.032 41.782 48.232 54.792 61.102 66.482 70.252 72.422
1552.827 72.772 71.252 68.122 63.622 58.102 52.212 46.202 41.322 37.792 34.982
1572.117 32.352 29.532 26.622 23.942 21.572 19.262 17.062 15.012 13.212 11.702
1591.407 10.352 9.192 8.372 7.722 7.222 6.932 6.772 6.722 6.632 6.592
1610.697 6.562 6.472 6.442 6.272 6.022 5.812 5.562 5.192 4.832 4.562
1629.986 4.282 4.022 3.772 3.542 3.382 3.232 3.102 2.972 2.832 2.722
1649.276 2.602 2.412 2.232 2.202 2.152 1.992 1.902 1.882 1.832 1.732
1668.566 1.582 1.552 1.582 1.542 1.512 1.522 1.502 1.482 1.4569 1.562
1687.856 1.682 1.782 1.912 1.992 2.122 2.342 2.492 2.692 2.912 3.092
1707.146 3.412 3.742 3.942 4.112 4.382 4.622 4.882 5.152 5.382 5.602
1726.435 5.832 6.062 6.242 6.362 6.512 6.682 6.812 6.972 7.102 7.302
1745.725 7.602 7.872 8.162 8.542 9.022 9.542 10.012 10.542 11.122 11.752
1765.015 12.472 13.172 13.902 14.632 15.472 16.372 17.372 18.482 19.762 21.352
1784.305 23.332 25.692 28.402 31.552 35.252 39.392 43.572 47.752 51.622 55.072
1803.594 57.962 59.772 59.912 58.042 54.652 50.492 45.912 41.132 36.212 31.322
1822.884 26.792 22.802 19.402 16.572 14.172 12.262 10.672 9.322 8.172 7.212
1842.174 6.442 5.712 5.122 4.692 4.222 3.842 3.522 3.302 3.102 2.902
1861.464 2.752 2.602 2.472 2.372 2.262 2.172 2.132 2.092 2.032 2.012
1880.754 2.022 2.022 2.012 1.972 1.922 1.912 1.872 1.832 1.812 1.782
1900.043 1.762 1.712 1.672 1.612 1.582 1.482 1.3954 1.335 1.2632 1.1959
1919.333 1.1711 1.2303 1.2245 1.2002 1.2705 1.3491 1.4463 1.552 1.662 1.702
1938.623 1.692 1.642 1.612 1.582 1.482 1.3401 1.2398 1.1747 1.0816 1.0806
1957.913 1.1327 1.2151 1.2789 1.2977 1.3077 1.3754 1.4142 1.3656 1.297 1.1703
1977.202 1.0832 0.9843 0.897 0.8297 0.7504 0.6962 0.6433 0.6624 0.6357 0.6026
1996.492 0.6092 0.5944 0.5949 0.5788 0.5816 0.618 0.5864 0.567 0.5879 0.5865
2015.782 0.5924 0.5775 0.5886 0.5692 0.54112 0.55439 0.5369 0.54633 0.55507 0.52302
2035.072 0.54787 0.6092 0.612 0.6064 0.6406 0.6522 0.672 0.662 0.6292 0.6258
2054.362 0.6242 0.6619 0.6322 0.5955 0.6218 0.6607 0.6749 0.6501 0.6843 0.6843
2073.651 0.6446 0.641 0.6147 0.5801 0.5881 0.5773 0.5912 0.6659 0.648 0.5671
2092.941 0.5678 0.5825 0.52521 0.52904 0.52645 0.4795 0.47355 0.4413 0.48161 0.51881
2112.231 0.49121 0.48719 0.56045 0.6053 0.53366 0.51903 0.52773 0.5583 0.564 0.50945
2131.521 0.48431 0.49428 0.53738 0.5728 0.5936 0.55181 0.51991 0.54405 0.51933 0.5693
2150.810 0.622 0.54321 0.478 0.47767 0.53221 0.55214 0.49528 0.470111 0.47264 0.53576
2170.100 0.55656 0.51779 0.49638 0.464689 0.45288 0.4316 0.45344 0.48921 0.48078 0.47242
2189.390 0.45416 0.4325 0.4016 0.4232 0.50639 0.48032 0.467451 0.51188 0.48412 0.45573
2208.680 0.48 0.5002 0.51249 0.48617 0.49301 0.51541 0.48017 0.51651 0.53241 0.52243
2227.970 0.51895 0.471239 0.51011 0.55297 0.5149 0.53429 0.6064 0.5972 0.51521 0.48719
2247.259 0.45973 0.4345 0.46043 0.45966 0.49802 0.53521 0.52079 0.52678 0.5322 0.53183
2266.549 0.51773 0.51513 0.50688 0.49803 0.51487 0.467918 0.4342 0.463096 0.463301 0.4385
2285.839 0.4447 0.451 0.4663 0.48514 0.4088 0.339 0.383 0.4064 0.4117 0.4195
2305.129 0.3641 0.359 0.3625 0.329 0.3674 0.35 0.33 0.344 0.327 0.3759
2324.418 0.3723 0.3842 0.4177 0.336 0.318 0.356 0.291 0.28 0.305 0.288
2343.708 0.299 0.26 0.274 0.253 0.189 0.151 0.073 0.099 0.07 0
2362.998 0.061 0.076 0.079 0.084 0.126 0.211 0.208 0.262 0.32 0.3666
2382.288 0.45561 0.51204 0.51037 0.5926 0.6533 0.6011 0.6035 0.6571 0.6665 0.6335
2401.578 0.6356 0.6048 0.5711 0.51327 0.45487 0.51004 0.594 0.6164 0.6334 0.5853
2420.867 0.5855 0.6174 0.5836 0.5736 0.5501 0.54646 0.52385 0.51133 0.48396 0.53284
2440.157 0.5943 0.6078 0.6214 0.5808 0.5369 0.54462 0.5788 0.5664 0.54568 0.54842
2459.447 0.49074 0.46012 0.50906 0.5648 0.5851 0.54506 0.51663 0.49711 0.47957 0.4424
2478.737 0.4293 0.4511 0.45681 0.45531 0.50022 0.52163 0.49368 0.46722 0.4294 0.4368
2498.026 0.4454 0.4429 0.4148 0.404 0.4355 0.50905 0.55456 0.51999 0.52529 0.471518
2517.316 0.4269 0.3735 0.351 0.3981 0.3858 0.4249 0.3797 0.356 0.4033 0.3825
2536.606 0.3622 0.342 0.3808 0.4402 0.4486 0.45391 0.47846 0.45519 0.4254 0.4492
2555.896 0.49903 0.51716 0.50667 0.50806 0.445 0.382 0.4336 0.463081 0.4427 0.4265
2575.186 0.4406 0.466766 0.48127 0.53262 0.451 0.4292 0.51531 0.51074 0.4988 0.50183
2594.475 0.47526 0.48159 0.577 0.6218 0.6706 0.7287 0.6723 0.52145 0.4178 0.4187
2613.765 0.51455 0.55412 0.5809 0.5841 0.5266 0.54605 0.53741 0.52173 0.4766 0.471296
2633.055 0.5843 0.6759 0.729 0.7048 0.7135 0.6697 0.5658 0.5915 0.5855 0.5906
2652.345 0.6249 0.5818 0.5975 0.6496 0.5898 0.5868 0.6423 0.6336 0.645 0.6483
2671.634 0.6889 0.7728 0.8229 0.8528 0.8238 0.8759 0.9675 0.9557 0.9362 0.9712
2690.924 1.0178 1.0695 0.9993 0.9417 0.9213 0.8909 0.8913 0.8661 0.8739 0.8254
2710.214 0.7192 0.6465 0.6239 0.6227 0.6578 0.5887 0.51057 0.56181 0.6135 0.53946
2729.504 0.50563 0.52971 0.51168 0.49826 0.470353 0.47778 0.54752 0.55816 0.49191 0.471699
2748.794 0.50687 0.5943 0.6503 0.54468 0.46079 0.55128 0.5656 0.47618 0.4444 0.4191
2768.083 0.3833 0.4265 0.4325 0.4846 0.5999 0.5927 0.6082 0.5835 0.50502 0.50167
2787.373 0.52492 0.5652 0.6036 0.6044 0.55922 0.5717 0.6084 0.5807 0.5842 0.5729
2806.663 0.5634 0.5881 0.6098 0.635 0.6395 0.6127 0.5831 0.53747 0.5531 0.6047
2825.953 0.5993 0.5895 0.6234 0.5883 0.50424 0.5882 0.6809 0.618 0.663 0.7876
2845.242 0.7731 0.7485 0.7062 0.6896 0.7212 0.7203 0.7535 0.8344 0.9593 1.0019
2864.532 0.9831 1.0702 1.1347 1.1769 1.2702 1.3701 1.472 1.512 1.572 1.612
2883.822 1.642 1.722 1.722 1.692 1.732 1.772 1.762 1.732 1.692 1.572
2903.112 1.4374 1.3975 1.3255 1.3294 1.2955 1.2217 1.2296 1.1641 1.0909 1.0883
2922.401 1.0332 0.9552 0.9131 0.8905 0.8991 0.8735 0.8592 0.7833 0.7715 0.7793
2941.691 0.764 0.7915 0.8069 0.7421 0.7108 0.7406 0.6906 0.7308 0.8256 0.8454
2960.981 0.8518 0.7938 0.6677 0.5837 0.6664 0.8368 0.7749 0.629 0.6072 0.5717
2980.271 0.55279 0.49019 0.4145 0.4225 0.4176 0.4434 0.50628 0.5774 0.5714 0.6179
2999.561 0.7275 0.6437 0.6371 0.7062 0.613 0.5814 0.6553 0.6142 0.6113 0.6532
3018.850 0.6593 0.6104 0.5832 0.6066 0.6061 0.7482 0.7551 0.619 0.6416 0.745
3038.140 0.7059 0.6216 0.6997 0.8165 0.8223 0.8189 0.8129 0.818 0.8063 0.8303
3057.430 0.9856 1.1138 1.2969 1.492 1.592 1.762 2.082 2.532 2.872 3.062
3076.720 3.372 3.722 3.852 3.842 3.862 3.682 3.362 3.072 2.782 2.552
3096.009 2.212 1.842 1.532 1.3632 1.1976 1.0043 0.9081 0.9006 0.8581 0.7739
3115.299 0.7152 0.5463 0.52811 0.6222 0.7134 0.7329 0.5847 0.54658 0.6275 0.5647
3134.589 0.4375 0.337 0.3893 0.50995 0.406 0.3876 0.50508 0.49809 0.4193 0.4488
3153.879 0.469546 0.4386 0.449 0.4262 0.51849 0.53654 0.4444 0.3681 0.321 0.402
3173.169 0.471927 0.449 0.4465 0.5452 0.471253 0.46847 0.4515 0.3831 0.465027 0.46005
3192.458 0.47608 0.5865 0.5742 0.4298 0.3779 0.4475 0.49235 0.51018 0.5783 0.7045
3211.748 0.676 0.5399 0.55642 0.47809 0.4167 0.4061 0.4289 0.50139 0.47695 0.49218
3231.038 0.4295 0.286 0.313 0.4212 0.51298 0.5919 0.54856 0.3961 0.3895 0.48219
3250.328 0.49076 0.46097 0.49589 0.51693 0.47978 0.4219 0.361 0.3676 0.4339 0.49059
3269.617 0.52062 0.453 0.3634 0.287 0.324 0.4283 0.4459 0.3698 0.271 0.287
3288.907 0.335 0.382 0.50861 0.5843 0.49925 0.468412 0.328 0.236 0.4069 0.55611
3308.197 0.50134 0.35 0.3689 0.4489 0.3845 0.328 0.3952 0.4518 0.48759 0.47423
3327.487 0.471257 0.6039 0.5855 0.49624 0.421 0.3954 0.467242 0.51986 0.4357 0.348
3346.777 0.354 0.3927 0.4086 0.4235 0.49322 0.47589 0.467023 0.53146 0.52586 0.3885
3366.066 0.359 0.3784 0.46083 0.53592 0.5628 0.6595 0.5844 0.4406 0.3876 0.355
3385.356 0.4484 0.4016 0.357 0.53239 0.5184 0.46981 0.54811 0.6446 0.7106 0.5955
3404.646 0.3966 0.347 0.49495 0.5458 0.4494 0.45516 0.5746 0.54009 0.3677 0.4176
3423.936 0.4061 0.233 0.31 0.54142 0.51654 0.286 0.231 0.346 0.47466 0.5623
3443.225 0.51484 0.4125 0.341 0.3877 0.339 0.412 0.55394 0.4409 0.3836 0.3833
3462.515 0.4292 0.4225 0.4491 0.4169 0.4483 0.50462 0.49506 0.5854 0.5753 0.5696
3481.805 0.5764 0.52822 0.579 0.6559 0.6792 0.6896 0.7258 0.7701 0.7021 0.6903
3501.095 0.7499 0.7385 0.6998 0.7038 0.6428 0.6588 0.7087 0.6743 0.6934 0.7253
3520.385 0.7635 0.8578 0.7509 0.6052 0.8011 1.0116 0.9576 0.8926 0.8395 0.8187
3539.674 0.8415 0.8077 0.8558 1.0291 1.0244 0.91 0.8799 1.006 1.0633 0.9083
3558.964 0.8129 0.7577 0.8162 0.9242 0.9555 0.9786 1.1596 1.129 1.0652 1.1612
3578.254 1.1317 1.0685 1.0007 1.0651 1.0167 0.9737 1.0768 1.1357 1.1603 1.0227
3597.544 1.0265 1.1409 1.1535 1.1632 0.9682 0.799 0.8801 0.8655 0.916 1.022
3616.833 0.9078 0.9246 0.9719 0.9026 0.9315 0.9761 0.9177 0.7052 0.6387 0.7181
3636.123 0.7407 0.6941 0.6649 0.636 0.6267 0.55339 0.55444 0.56062 0.5266 0.662
3655.413 0.7091 0.6967 0.7166 0.5857 0.55529 0.6933 0.669 0.6714 0.6856 0.5378
3674.703 0.4449 0.5995 0.623 0.49359 0.51019 0.5763 0.47866 0.4409 0.55545 0.6222
3693.993 0.6904 0.5823 0.6083 0.7172 0.54733 0.3643 0.4051 0.53045 0.6217 0.5838
3713.282 0.4484 0.4141 0.49668 0.47371 0.4311 0.47838 0.47819 0.56191 0.6655 0.6907
3732.572 0.5692 0.54995 0.6432 0.6415 0.6752 0.5731 0.45317 0.6144 0.53325 0.4136
3751.862 0.6578 0.702 0.5411 0.4468 0.55222 0.676 0.6769 0.6097 0.54826 0.49863
3771.152 0.6159 0.7482 0.6419 0.54525 0.6187 0.6468 0.6295 0.55576 0.52337 0.5857
3790.441 0.52049 0.6167 0.6521 0.5639 0.4254 0.4319 0.53977 0.55321 0.5625 0.4194
3809.731 0.51606 0.5643 0.289 0.23 0.323 0.50947 0.6277 0.49369 0.48709 0.55453
3829.021 0.51168 0.3929 0.372 0.4272 0.4475 0.54173 0.54738 0.52882 0.4487 0.3691
3848.311 0.3766 0.3976 0.471588 0.3805 0.316 0.3659 0.347 0.201 0.306 0.45215
3867.601 0.345 0.3758 0.49162 0.4393 0.45627 0.47464 0.336 0.4118 0.5862 0.5906
3886.890 0.6305 0.7154 0.5942 0.4156 0.47666 0.6743 0.5939 0.3701 0.3949 0.637
3906.180 0.7169 0.6404 0.6906 0.6204 0.5477 0.6594 0.52124 0.5557 0.7196 0.6391
3925.470 0.5275 0.5778 0.6879 0.6125 0.5669 0.5897 0.6364 0.625 0.562 0.55754
3944.760 0.6396 0.55549 0.4307 0.55842 0.7149 0.9068 0.8381 0.711 0.6919 0.6867
3964.049 0.7189 0.7246 0.8746 0.8562 0.5987 0.4566 0.627 0.7119 0.587 0.55722
3983.339 0.51919 0.4226 0.4368 0.50337 0.6242 0.55586 0.49788 0.47458 0.314 0.3971
##END=
