##TITLE=2,5-Dibromobenzoic acid
##JCAMP-DX=4.24
##DATA TYPE=INFRARED SPECTRUM
##ORIGIN=EPA-IR VAPOR PHASE LIBRARY
##OWNER=SRD/NIST
Collection (C) 2018 copyright by the U.S. Secretary of Commerce
on behalf of the United States of America. All rights reserved.
##CAS REGISTRY NO=610-71-9
##MOLFORM=C 7 H 4 Br 2 O 2
##$NIST SOURCE=MSDC-IR
##STATE=gas
##XUNITS=1/CM
##YUNITS=ABSORBANCE
##XFACTOR=1.
##YFACTOR=0.001
##DELTAX=3.85796
##FIRSTX=501.5
##LASTX=4000.7
##FIRSTY=0.1941
##MAXX=4000.7
##MINX=501.534
##MAXY=0.01889
##MINY=0.0001144
##NPOINTS=908
##XYDATA=(X++(Y..Y))
501.534 0.1941 0.2367 0.509 0.6303 0.7054 0.8932 1.07 1.22 1.31 1.5
540.114 1.79 2.17 2.51 2.94 3.41 3.77 4.08 4.25 4.35 4.3
578.693 4.23 4.21 4.09 3.77 3.28 2.73 2.13 1.71 1.44 1.25
617.273 1.18 1.35 2.03 3.34 4.44 4.56 3.75 2.46 1.45 0.9072
655.852 0.6583 0.5442 0.4686 0.4862 0.7045 1.06 1.63 2.39 2.83 2.74
694.432 2.09 1.34 0.9118 0.6405 0.4205 0.2647 0.2016 0.2145 0.2377 0.2845
733.011 0.3269 0.3129 0.3363 0.3898 0.4774 0.6088 0.7033 0.7585 0.9268 1.18
771.591 1.32 1.44 1.56 1.45 1.28 1.19 1.18 1.28 1.7 2.35
810.170 3.15 3.93 3.79 2.95 2.08 1.21 0.6963 0.4988 0.3672 0.3084
848.750 0.2924 0.2486 0.2755 0.3111 0.2161 0.1577 0.2273 0.3828 0.5296 0.6525
887.330 0.8875 1.09 1.15 1.02 0.7265 0.4758 0.3381 0.288 0.279 0.2601
925.909 0.2769 0.2836 0.2383 0.2007 0.1663 0.1999 0.2564 0.2406 0.2536 0.2845
964.489 0.2267 0.2289 0.2182 0.2296 0.2872 0.2776 0.3156 0.3726 0.4558 0.6507
1003.068 0.876 1.2 1.84 2.95 4.87 7.38 9.23 9.1 7.04 4.78
1041.648 3.37 2.59 2.21 2.05 2.06 2.16 2.39 2.85 3.67 4.91
1080.227 6.46 8.03 9.04 9.2 8.79 8.3 7.96 7.71 7.25 6.42
1118.807 5.54 4.91 4.54 4.4 4.3 4.09 4.04 4.07 3.99 4.11
1157.387 4.44 4.98 5.8 6.88 8.16 9.49 10.4 10.34 9.01 6.86
1195.966 4.78 3.36 2.55 2.11 1.95 1.81 1.58 1.41 1.33 1.23
1234.546 1.21 1.24 1.33 1.56 1.87 2.22 2.42 2.38 2.26 2.19
1273.125 2.19 2.33 2.47 2.58 2.75 2.98 3.27 3.63 4.1 4.57
1311.705 5.05 5.46 5.64 5.47 4.92 4.12 3.27 2.58 2.14 1.87
1350.284 1.71 1.63 1.6 1.65 1.82 2.15 2.62 3.1 3.48 3.81
1388.864 4.11 4.18 3.82 3.13 2.37 1.76 1.38 1.15 1.02 0.9696
1427.443 0.9498 0.9763 1.11 1.34 1.73 2.34 3.2 4.12 4.75 4.61
1466.023 3.71 2.62 1.79 1.29 0.9506 0.7288 0.5685 0.4614 0.3884 0.3507
1504.603 0.3343 0.3148 0.3288 0.3544 0.3705 0.3786 0.3913 0.4148 0.4414 0.4933
1543.182 0.5971 0.7508 0.9242 0.9833 0.8789 0.6879 0.5606 0.5428 0.5637 0.5696
1581.762 0.5305 0.4572 0.3955 0.3503 0.3278 0.3301 0.3183 0.3133 0.3308 0.385
1620.341 0.4451 0.4725 0.4946 0.4819 0.4394 0.3966 0.3498 0.3157 0.3012 0.2948
1658.921 0.3074 0.3263 0.3443 0.34 0.3237 0.3172 0.3407 0.3873 0.4078 0.4498
1697.500 0.5208 0.5959 0.7118 0.8472 1.03 1.28 1.6 2.04 2.61 3.3
1736.080 4.04 4.77 5.68 6.87 8.55 10.62 12.81 14.89 17.01 18.89
1774.659 18.86 15.87 11.41 8.3 7 6.2 5.3 4.21 3.14 2.29
1813.239 1.69 1.27 0.9933 0.8087 0.6671 0.5528 0.4797 0.4225 0.3767 0.3425
1851.819 0.3178 0.2934 0.2849 0.2698 0.2513 0.2633 0.2875 0.2995 0.3026 0.3275
1890.398 0.3729 0.4093 0.4208 0.4135 0.3972 0.3509 0.302 0.2536 0.2151 0.2061
1928.978 0.212 0.1986 0.1861 0.184 0.1662 0.1711 0.1737 0.1565 0.1668 0.1791
1967.557 0.1649 0.1553 0.1529 0.1638 0.1737 0.1748 0.1814 0.1852 0.1655 0.1633
2006.137 0.1865 0.1826 0.1547 0.1482 0.1443 0.1466 0.1585 0.1337 0.1206 0.1221
2044.716 0.1169 0.1199 0.1144 0.1183 0.1201 0.115 0.1194 0.1151 0.1174 0.1208
2083.296 0.1238 0.1271 0.1392 0.1423 0.1438 0.1498 0.1553 0.1717 0.1749 0.1591
2121.875 0.1421 0.1501 0.1746 0.1667 0.1437 0.1441 0.1362 0.1256 0.1314 0.1705
2160.455 0.1781 0.1584 0.1668 0.1766 0.1712 0.1586 0.1671 0.1804 0.1968 0.1774
2199.035 0.149 0.1612 0.1776 0.1797 0.1721 0.173 0.1772 0.1771 0.1623 0.1523
2237.614 0.1716 0.166 0.1448 0.1588 0.149 0.1507 0.1691 0.1588 0.151 0.1548
2276.194 0.1663 0.1713 0.1626 0.1988 0.22 0.1806 0.1771 0.1829 0.174 0.1809
2314.773 0.1926 0.1733 0.1609 0.1756 0.1758 0.1802 0.2077 0.2238 0.2169 0.2113
2353.353 0.2096 0.2139 0.2176 0.2314 0.233 0.225 0.219 0.2135 0.2068 0.1854
2391.932 0.1655 0.1825 0.1886 0.1829 0.1898 0.1851 0.1986 0.1968 0.1866 0.1994
2430.512 0.2082 0.2015 0.1905 0.1744 0.1829 0.2055 0.2033 0.1793 0.1699 0.1841
2469.092 0.163 0.1656 0.1989 0.177 0.1564 0.1768 0.1833 0.1842 0.2026 0.203
2507.671 0.1935 0.1927 0.1957 0.1893 0.1875 0.1852 0.1803 0.2137 0.2228 0.1949
2546.251 0.1843 0.1907 0.1999 0.1868 0.1723 0.1888 0.207 0.2177 0.2213 0.2318
2584.830 0.2396 0.2204 0.2032 0.1964 0.2163 0.2241 0.2045 0.191 0.185 0.1943
2623.410 0.2039 0.1892 0.1683 0.1827 0.2212 0.2163 0.1782 0.1583 0.1803 0.2253
2661.989 0.2107 0.1798 0.2086 0.2157 0.1868 0.1774 0.1935 0.181 0.1631 0.2017
2700.569 0.221 0.2091 0.2025 0.1847 0.1763 0.1779 0.2025 0.1985 0.1894 0.2184
2739.148 0.2147 0.1938 0.1911 0.1703 0.1831 0.2096 0.1933 0.2051 0.2182 0.245
2777.728 0.2339 0.1956 0.2234 0.2486 0.2504 0.2651 0.2813 0.285 0.2802 0.2669
2816.308 0.2639 0.2732 0.2884 0.2927 0.2829 0.261 0.2622 0.2615 0.2327 0.2482
2854.887 0.2638 0.2508 0.2217 0.2119 0.2407 0.2339 0.2286 0.2403 0.2202 0.237
2893.467 0.256 0.2625 0.2436 0.2104 0.2144 0.2512 0.2762 0.2546 0.2522 0.2593
2932.046 0.2357 0.2241 0.237 0.2295 0.2225 0.2256 0.2272 0.2548 0.2445 0.2208
2970.626 0.2088 0.2431 0.3228 0.3048 0.2474 0.2185 0.2445 0.318 0.3006 0.2395
3009.205 0.2455 0.2949 0.2973 0.2683 0.3217 0.3172 0.2821 0.2772 0.2638 0.2562
3047.785 0.2494 0.2812 0.307 0.323 0.3284 0.3628 0.3752 0.3653 0.408 0.4145
3086.364 0.4034 0.3673 0.3209 0.3225 0.2966 0.3044 0.3107 0.2715 0.298 0.2965
3124.944 0.2955 0.2894 0.2874 0.3129 0.28 0.2433 0.2492 0.279 0.2508 0.2046
3163.524 0.189 0.1996 0.2343 0.2913 0.2904 0.2365 0.2426 0.287 0.2836 0.2739
3202.103 0.2872 0.2595 0.2894 0.2935 0.2501 0.2615 0.2551 0.238 0.2285 0.2297
3240.683 0.2254 0.2569 0.235 0.2264 0.275 0.2738 0.2724 0.2649 0.2778 0.2805
3279.262 0.2958 0.2736 0.2672 0.274 0.2444 0.2834 0.3024 0.2184 0.1999 0.2415
3317.842 0.2371 0.2725 0.3139 0.2694 0.2491 0.2773 0.2704 0.2448 0.277 0.3683
3356.421 0.3651 0.3246 0.3005 0.3432 0.3549 0.3012 0.3566 0.3656 0.3362 0.3096
3395.001 0.283 0.2799 0.2893 0.2876 0.3032 0.3367 0.3136 0.3121 0.3327 0.4027
3433.580 0.4181 0.3589 0.3657 0.3675 0.3561 0.3461 0.3779 0.3933 0.3574 0.4148
3472.160 0.4099 0.4213 0.4511 0.4518 0.5394 0.5672 0.5609 0.6208 0.6414 0.5717
3510.740 0.5866 0.7032 0.7394 0.7133 0.7289 0.7807 0.8229 0.9057 0.9727 1.05
3549.319 1.29 1.89 3 4.94 7.26 8.7 8.73 7.31 5.47 3.97
3587.899 2.57 1.55 1.06 0.8336 0.7008 0.5977 0.5987 0.5949 0.4945 0.4238
3626.478 0.4284 0.4288 0.4131 0.4415 0.4357 0.4264 0.435 0.414 0.3926 0.3571
3665.058 0.3524 0.3418 0.3165 0.3355 0.3547 0.3907 0.4254 0.3798 0.3781 0.3997
3703.637 0.3371 0.3007 0.3433 0.3492 0.3204 0.3422 0.3929 0.4068 0.4061 0.3896
3742.217 0.3089 0.3231 0.4248 0.3972 0.2979 0.3158 0.3636 0.365 0.3597 0.3673
3780.797 0.3858 0.4223 0.4381 0.4509 0.4021 0.3344 0.3315 0.3478 0.3633 0.3452
3819.376 0.3277 0.3416 0.413 0.4235 0.3838 0.3268 0.3228 0.3567 0.369 0.3944
3857.956 0.3578 0.3402 0.373 0.3851 0.3963 0.3699 0.3357 0.3564 0.4181 0.3861
3896.535 0.3372 0.3268 0.3507 0.3792 0.3925 0.4124 0.4203 0.4037 0.4136 0.4298
3935.115 0.3457 0.3277 0.3621 0.3912 0.41 0.3838 0.3554 0.4197 0.4193 0.3941
3973.694 0.4379 0.3821 0.3761 0.4278 0.4428 0.4398 0.4005 0.4014
##END=
