##TITLE=2-Nitrophenyl acetate
##JCAMP-DX=4.24
##DATA TYPE=INFRARED SPECTRUM
##ORIGIN=EPA-IR VAPOR PHASE LIBRARY
##OWNER=SRD/NIST
Collection (C) 2018 copyright by the U.S. Secretary of Commerce
on behalf of the United States of America. All rights reserved.
##CAS REGISTRY NO=610-69-5
##MOLFORM=C 8 H 7 N O 4
##$NIST SOURCE=MSDC-IR
##STATE=gas
##XUNITS=1/CM
##YUNITS=ABSORBANCE
##XFACTOR=1.
##YFACTOR=0.001
##DELTAX=1.92934
##FIRSTX=549.9
##LASTX=3999.5
##FIRSTY=7.47
##MAXX=3999.53
##MINX=549.863
##MAXY=0.36348
##MINY=0
##NPOINTS=1789
##XYDATA=(X++(Y..Y))
549.863 7.47 6.34 5.66 5.13 4.53 4.19 4.2 4.27 4.17 4.08
569.156 4.1 4.19 4.26 4.34 4.59 4.93 5.32 5.74 6.18 6.47
588.450 6.56 6.73 6.86 6.81 6.6 6.12 5.53 5.02 4.65 4.22
607.743 3.82 3.65 3.5193 3.4453 3.3498 3.2843 3.3496 3.4091 3.4246 3.4947
627.037 3.69 3.89 4.2 4.64 5.24 6.05 6.95 7.83 8.55 9.02
646.330 9.34 9.56 9.53 9.41 9.2 8.93 8.74 8.87 9.38 10.14
665.624 11.06 12.13 13.13 13.9 14.5 14.82 14.97 14.88 14.55 14.27
684.917 14.21 14.36 14.77 15.39 16.19 17.21 18.37 18.85 18.04 16.7
704.210 15.3 13.93 12.47 10.98 9.72 8.72 8.1 7.8 7.85 8.36
723.504 9.33 10.75 12.57 14.63 16.6 18.59 21.22 24.75 27.05 25.1
742.797 21.43 19.3 17.82 16.08 14.22 12.55 11.5 11.13 11.38 12.14
762.091 13.22 14.35 15.48 16.77 18.14 19.22 19.09 17.37 15.14 13.48
781.384 12.31 11.21 10.16 9.43 9.05 9.04 9.56 10.44 11.5 12.7
800.678 13.96 15.27 16.54 17.63 18.37 18.36 17.65 16.53 15.38 14.4
819.971 13.43 12.56 11.97 11.72 11.96 12.89 14.47 16.73 19.62 22.91
839.264 26.17 28.81 30.57 31.41 31.39 30.53 28.81 26.26 23.1 19.87
858.558 17.16 15.31 14.17 13.5 13.17 13.04 12.86 12.45 11.97 11.59
877.851 11.39 11.49 12.07 13.29 15.32 18.32 22.22 26.99 32.46 38.11
897.145 43.2 47 49.17 49.62 48.26 45.09 40.6 35.27 29.38 23.55
916.438 18.45 14.45 11.53 9.49 8.07 7.01 6.29 5.85 5.64 5.63
935.732 5.74 6.01 6.37 6.74 7.2 7.73 7.96 7.67 7.13 6.64
955.025 6.27 5.91 5.49 5.13 4.9 4.82 4.9 5.08 5.36 5.72
974.318 6.14 6.67 7.31 7.94 8.7 9.55 10.45 11.6 12.96 14.57
993.612 16.61 19.08 21.95 24.93 27.77 30.1 31.67 32.49 32.42 31.41
1012.905 29.62 27.09 24.04 20.84 17.96 15.79 14.36 13.69 13.63 13.93
1032.199 14.27 14.46 14.64 14.88 14.99 14.93 14.68 14.2 13.7 13.41
1051.492 13.33 13.48 13.82 14.4 15.23 16.23 17.45 18.94 20.62 22.44
1070.786 24.47 26.65 28.97 31.39 33.83 36.14 38.02 39.28 39.9 39.69
1090.079 38.64 36.9 34.54 31.75 28.67 25.49 22.53 19.95 17.88 16.32
1109.372 15.1 14.23 13.57 13.06 12.77 12.6 12.63 12.79 13 13.37
1128.666 13.95 14.69 15.55 16.66 17.98 19.52 21.49 23.98 27.25 31.81
1147.959 38.16 46.69 56.42 65.45 72.53 80.09 90.12 99.25 110.56 126.87
1167.253 144.89 166.02 192.86 225.35 261.03 296.24 327.17 350.37 363.01 363.48
1186.546 351.54 328.34 295.87 256.8 215.27 175.11 138.92 108.78 85.67 68.94
1205.840 57.22 49.15 43.66 40.14 38.1 37.41 37.99 39.54 41.56 43.61
1225.133 45.24 46.22 46.43 45.67 43.84 40.93 37.03 32.52 28.14 24.49
1244.426 21.75 19.73 18.28 17.34 16.77 16.58 16.79 17.27 17.83 18.3
1263.720 18.48 18.47 18.3 17.76 17.04 16.16 15.05 13.85 12.79 11.99
1283.013 11.51 11.24 11.05 11.09 11.19 11.27 11.42 11.59 11.73 11.93
1302.307 12.13 12.23 12.3 12.34 12.41 12.57 12.75 13.04 13.49 14.09
1321.600 14.86 15.92 17.3 19.01 21.23 24.11 27.8 32.54 38.55 46
1340.894 55.09 65.6 77.04 88.56 98.81 106.69 111.73 114.15 114.34 111.9
1360.187 106.22 97.73 88.27 79.89 73.57 69.4 66.55 64.03 61.21 57.7
1379.480 53.21 47.86 41.9 35.86 30.25 25.56 21.86 19.05 16.94 15.36
1398.774 14.16 13.18 12.43 11.81 11.26 10.77 10.34 9.99 9.74 9.57
1418.067 9.41 9.29 9.35 9.45 9.58 9.73 9.9 10.09 10.25 10.45
1437.361 10.67 10.79 10.9 11.04 11.2 11.29 11.36 11.45 11.61 11.85
1456.654 12.24 12.76 13.49 14.59 16.09 18.04 20.37 22.92 25.48 27.89
1475.948 30.1 31.95 33.17 33.78 33.67 32.93 31.76 30.3 28.79 27.34
1495.241 26.01 24.91 24.23 23.96 24.1 24.66 25.64 26.97 28.5 30.33
1514.534 32.45 34.88 37.7 40.92 44.69 49 54.23 60.66 68.63 78.47
1533.828 90.43 103.87 117.38 130.04 139.82 145.51 147.24 145.02 138.59 128.7
1553.121 116.35 101.68 87.17 74.27 64.44 57.94 53.52 50.39 47.95 45.89
1572.415 44.03 42.24 40.52 38.99 37.73 36.88 36.58 36.91 38.06 40.14
1591.708 43.1 46.88 51.35 55.98 59.97 62.45 62.96 61.54 58.62 54.47
1611.002 49.31 43.45 37.28 30.97 25.32 20.77 17.2 14.62 12.77 11.41
1630.295 10.35 9.53 8.9 8.39 8.01 7.68 7.38 7.13 6.88 6.67
1649.588 6.51 6.34 6.13 5.96 5.77 5.58 5.43 5.29 5.18 5.06
1668.882 4.92 4.8 4.77 4.74 4.7 4.69 4.7 4.72 4.79 4.89
1688.175 4.98 5.09 5.21 5.36 5.57 5.82 6.11 6.41 6.7 7.02
1707.469 7.35 7.65 7.92 8.13 8.28 8.37 8.4 8.37 8.24 8.17
1726.762 8.09 7.95 7.9 7.89 7.91 7.97 8.1 8.36 8.69 9.08
1746.056 9.52 9.99 10.52 11.05 11.6 12.24 12.91 13.57 14.28 15.09
1765.349 16.04 17.22 18.61 20.27 22.49 25.38 29.19 34.14 40.54 48.39
1784.642 57.5 67.57 78.15 89.09 100.38 111.42 120.07 123.55 121.32 116.17
1803.936 109.99 102.41 93.15 82.86 72.43 62.65 53.89 46.21 39.52 33.75
1823.229 28.78 24.51 20.94 17.98 15.57 13.67 12.19 10.99 10 9.22
1842.523 8.55 7.95 7.45 7.02 6.65 6.27 5.99 5.77 5.52 5.3
1861.816 5.14 5.03 4.93 4.89 4.82 4.74 4.7 4.68 4.65 4.61
1881.110 4.59 4.52 4.44 4.4 4.36 4.34 4.29 4.2 4.12 4.04
1900.403 3.99 3.94 3.89 3.93 4.01 4.07 4.18 4.34 4.48 4.58
1919.696 4.6 4.57 4.52 4.4 4.23 4.04 3.87 3.68 3.4992 3.3781
1938.990 3.3185 3.3272 3.3797 3.4729 3.6173 3.73 3.79 3.84 3.81 3.74
1958.283 3.7 3.606 3.47 3.3104 3.1639 3.1022 3.0472 3.0226 3.0466 3.0679
1977.577 3.1374 3.2313 3.295 3.3572 3.3954 3.3996 3.3795 3.3838 3.3972 3.3801
1996.870 3.2832 3.1711 3.0835 2.9741 2.91 2.8298 2.74133 2.69297 2.67055 2.69216
2016.164 2.73535 2.7456 2.7719 2.8071 2.8221 2.8562 2.9227 2.9948 3.0073 2.9995
2035.457 2.9755 2.918 2.8781 2.8289 2.74472 2.67164 2.6292 2.5698 2.527 2.49
2054.750 2.458 2.45 2.435 2.438 2.442 2.449 2.456 2.463 2.473 2.5
2074.044 2.523 2.558 2.5893 2.5909 2.5866 2.6 2.5855 2.5605 2.5511 2.515
2093.337 2.46 2.407 2.374 2.287 2.245 2.252 2.226 2.191 2.164 2.153
2112.631 2.155 2.155 2.15 2.178 2.16 2.117 2.157 2.162 2.117 2.121
2131.924 2.129 2.098 2.057 2.028 2.004 1.976 1.96 1.95 1.922 1.904
2151.218 1.889 1.904 1.926 1.93 1.958 1.961 1.972 1.976 1.964 1.953
2170.511 1.937 1.939 1.901 1.844 1.806 1.804 1.792 1.713 1.667 1.667
2189.804 1.64 1.62 1.6 1.58 1.57 1.57 1.57 1.54 1.55 1.57
2209.098 1.58 1.58 1.59 1.58 1.57 1.63 1.704 1.713 1.671 1.64
2228.391 1.664 1.692 1.697 1.711 1.682 1.64 1.64 1.62 1.61 1.63
2247.685 1.61 1.59 1.59 1.59 1.59 1.62 1.62 1.57 1.59 1.654
2266.978 1.697 1.706 1.744 1.753 1.755 1.783 1.778 1.798 1.797 1.776
2286.272 1.776 1.785 1.817 1.836 1.849 1.858 1.882 1.864 1.85 1.888
2305.565 1.866 1.831 1.852 1.878 1.891 1.901 1.892 1.894 1.908 1.894
2324.858 1.862 1.808 1.764 1.737 1.74 1.737 1.749 1.778 1.755 1.787
2344.152 1.824 1.829 1.861 1.891 1.896 1.914 1.907 1.905 1.952 1.978
2363.445 2.008 2.019 1.996 1.998 2.053 2.112 2.142 2.203 2.245 2.302
2382.739 2.326 2.281 2.302 2.359 2.367 2.31 2.288 2.293 2.277 2.234
2402.032 2.196 2.192 2.216 2.218 2.182 2.146 2.106 2.098 2.097 2.082
2421.326 2.077 2.058 2.031 2.002 2.004 2.052 2.09 2.112 2.146 2.158
2440.619 2.209 2.269 2.312 2.345 2.315 2.285 2.279 2.269 2.204 2.118
2459.912 2.035 1.983 1.895 1.771 1.731 1.703 1.61 1.56 1.55 1.5
2479.206 1.5 1.51 1.51 1.52 1.55 1.57 1.52 1.53 1.58 1.59
2498.499 1.53 1.49 1.5 1.48 1.47 1.44 1.4 1.34 1.29 1.26
2517.793 1.25 1.25 1.28 1.3 1.28 1.31 1.33 1.33 1.35 1.34
2537.086 1.34 1.36 1.39 1.39 1.37 1.38 1.4 1.4 1.37 1.37
2556.380 1.43 1.46 1.45 1.48 1.46 1.42 1.44 1.45 1.37 1.34
2575.673 1.36 1.33 1.32 1.3 1.29 1.29 1.26 1.23 1.18 1.15
2594.966 1.13 1.14 1.15 1.12 1.12 1.13 1.13 1.16 1.16 1.18
2614.260 1.17 1.1 1.09 1.13 1.14 1.14 1.13 1.08 1.09 1.12
2633.553 1.11 1.13 1.13 1.12 1.1 1.1 1.07 1 1.01 1.02
2652.847 1.04 1.05 1.05 1.03 1.03 1.05 1.06 1.06 1.08 1.14
2672.140 1.17 1.2 1.22 1.25 1.31 1.37 1.38 1.38 1.35 1.35
2691.434 1.42 1.47 1.47 1.41 1.42 1.46 1.4 1.32 1.33 1.3
2710.727 1.22 1.16 1.1 1.08 1.09 1.06 1.03 1.06 1 0.89
2730.020 0.96 1.04 1.04 1.05 1.07 1.04 1.03 1.06 1 0.97
2749.314 0.97 0.94 0.91 0.92 0.93 0.89 0.87 0.83 0.74 0.7
2768.607 0.8 0.83 0.83 0.87 0.77 0.75 0.85 0.84 0.78 0.84
2787.901 0.92 0.95 0.94 0.92 0.93 0.95 0.96 0.97 0.97 0.98
2807.194 0.94 0.92 1 0.93 0.86 0.83 0.84 0.92 0.91 0.91
2826.488 1.01 1 1.02 1.11 1.09 1.05 1.04 1.11 1.23 1.31
2845.781 1.32 1.33 1.37 1.36 1.38 1.43 1.51 1.58 1.64 1.729
2865.074 1.762 1.797 1.962 2.155 2.276 2.329 2.449 2.5611 2.6203 2.71143
2884.368 2.8125 2.8402 2.7955 2.8261 2.8236 2.6351 2.513 2.357 2.198 2.06
2903.661 1.757 1.53 1.56 1.59 1.48 1.38 1.24 1.22 1.26 1.19
2922.955 1.13 1.13 1.16 1.23 1.2 1.16 1.21 1.19 1.3 1.46
2942.248 1.52 1.61 1.711 1.775 1.774 1.82 1.818 1.778 1.679 1.56
2961.542 1.45 1.32 1.18 0.97 0.82 0.81 0.82 0.72 0.63 0.78
2980.835 0.86 0.79 0.8 0.78 0.77 0.89 0.91 0.92 1.02 1.02
3000.128 1.07 1.14 1.14 1.13 1.2 1.3 1.28 1.3 1.43 1.58
3019.422 1.694 1.801 1.956 2.151 2.273 2.333 2.405 2.495 2.5693 2.6127
3038.715 2.66488 2.66976 2.66555 2.67764 2.74793 2.74528 2.68047 2.66189 2.70327 2.73248
3058.009 2.7974 3.0133 3.282 3.5786 3.94 4.33 4.81 5.5 6.33 7.09
3077.302 7.86 8.6 9.17 9.62 9.84 9.87 9.51 8.77 7.93 6.89
3096.596 5.7 4.56 3.6395 2.8048 2.216 1.78 1.35 1.05 0.88 0.87
3115.889 0.76 0.56 0.47 0.43 0.4 0.33 0.24 0.25 0.29 0.32
3135.182 0.31 0.25 0.2 0.29 0.29 0.19 0.21 0.2 0.15 0.18
3154.476 0.23 0.22 0.2 0.11 0.12 0.22 0.25 0.21 0.2 0.19
3173.769 0.08 0 0.07 0.08 0.09 0.12 0.2 0.29 0.2 0.12
3193.063 0.22 0.29 0.28 0.25 0.13 0.12 0.12 0.23 0.24 0.14
3212.356 0.13 0.12 0.13 0.08 0.05 0.09 0.08 0.1 0.14 0.12
3231.650 0.08 0.05 0.06 0.09 0.07 0.12 0.12 0.12 0.17 0.05
3250.943 0.03 0.13 0.11 0.08 0.27 0.28 0.19 0.14 0.13 0.16
3270.236 0.22 0.31 0.28 0.17 0.18 0.3 0.24 0.11 0.22 0.27
3289.530 0.23 0.4 0.42 0.29 0.18 0.26 0.31 0.32 0.39 0.43
3308.823 0.4 0.3 0.26 0.27 0.33 0.4 0.34 0.32 0.37 0.43
3328.117 0.48 0.4 0.43 0.45 0.49 0.61 0.58 0.52 0.51 0.54
3347.410 0.57 0.61 0.6 0.57 0.58 0.53 0.57 0.61 0.49 0.55
3366.704 0.61 0.52 0.6 0.65 0.64 0.6 0.55 0.55 0.67 0.68
3385.997 0.54 0.53 0.64 0.81 0.76 0.68 0.58 0.65 0.72 0.65
3405.290 0.69 0.7 0.71 0.64 0.63 0.63 0.68 0.76 0.72 0.75
3424.584 0.84 0.86 0.85 0.84 0.79 0.83 0.96 0.98 0.98 0.97
3443.877 0.95 0.91 0.86 0.83 0.76 0.76 0.8 0.78 0.76 0.82
3463.171 0.9 0.92 0.98 1.11 1.17 1.12 1.02 1 0.99 1.06
3482.464 1.09 1.08 1.09 1.03 1.15 1.11 0.97 1.1 1.13 1.11
3501.758 1.17 1.17 1.18 1.29 1.38 1.31 1.24 1.2 1.24 1.24
3521.051 1.22 1.37 1.42 1.38 1.45 1.43 1.38 1.39 1.34 1.37
3540.344 1.44 1.48 1.55 1.64 1.6 1.6 1.65 1.62 1.744 1.903
3559.638 2.01 2.099 2.085 2.138 2.249 2.43 2.5506 2.583 2.69142 2.66412
3578.931 2.545 2.64606 2.64667 2.442 2.381 2.273 2.081 2.055 2.001 1.908
3598.225 1.948 1.899 1.755 1.772 1.721 1.688 1.725 1.698 1.663 1.63
3617.518 1.63 1.61 1.55 1.49 1.57 1.6 1.53 1.52 1.49 1.5
3636.812 1.5 1.46 1.43 1.41 1.44 1.42 1.38 1.45 1.47 1.43
3656.105 1.44 1.42 1.33 1.38 1.47 1.5 1.51 1.45 1.5 1.52
3675.398 1.35 1.33 1.44 1.49 1.47 1.47 1.54 1.53 1.55 1.57
3694.692 1.59 1.58 1.49 1.47 1.48 1.5 1.64 1.64 1.55 1.58
3713.985 1.54 1.49 1.49 1.52 1.57 1.48 1.46 1.59 1.65 1.58
3733.279 1.61 1.58 1.46 1.46 1.51 1.51 1.49 1.51 1.45 1.46
3752.572 1.57 1.6 1.56 1.54 1.52 1.51 1.49 1.46 1.51 1.53
3771.866 1.57 1.64 1.6 1.52 1.53 1.58 1.54 1.46 1.47 1.5
3791.159 1.49 1.46 1.45 1.5 1.53 1.52 1.52 1.49 1.42 1.38
3810.452 1.43 1.49 1.47 1.5 1.56 1.53 1.44 1.41 1.47 1.45
3829.746 1.45 1.46 1.41 1.44 1.5 1.49 1.44 1.4 1.45 1.53
3849.039 1.46 1.47 1.49 1.4 1.39 1.43 1.51 1.5 1.46 1.46
3868.333 1.46 1.47 1.48 1.5 1.5 1.48 1.53 1.62 1.62 1.62
3887.626 1.698 1.706 1.64 1.61 1.56 1.51 1.53 1.64 1.661 1.57
3906.920 1.51 1.45 1.47 1.61 1.64 1.57 1.53 1.51 1.53 1.58
3926.213 1.665 1.65 1.53 1.49 1.52 1.66 1.62 1.49 1.59 1.64
3945.506 1.58 1.57 1.56 1.6 1.691 1.6 1.57 1.662 1.696 1.7
3964.800 1.64 1.6 1.6 1.59 1.63 1.655 1.61 1.708 1.725 1.63
3984.093 1.59 1.53 1.54 1.55 1.62 1.672 1.52 1.49 1.672
##END=
