##TITLE=2-Hydroxypropiophenone
##JCAMP-DX=4.24
##DATA TYPE=INFRARED SPECTRUM
##ORIGIN=EPA-IR VAPOR PHASE LIBRARY
##OWNER=SRD/NIST
Collection (C) 2018 copyright by the U.S. Secretary of Commerce
on behalf of the United States of America. All rights reserved.
##CAS REGISTRY NO=610-99-1
##MOLFORM=C 9 H 10 O 2
##$NIST SOURCE=MSDC-IR
##STATE=gas
##XUNITS=1/CM
##YUNITS=ABSORBANCE
##XFACTOR=1.
##YFACTOR=0.001
##DELTAX=1.92934
##FIRSTX=549.9
##LASTX=3999.5
##FIRSTY=3.02
##MAXX=3999.53
##MINX=549.863
##MAXY=0.11699
##MINY=0
##NPOINTS=1789
##XYDATA=(X++(Y..Y))
549.863 3.02 3.23 3.27 3.3 3.21 3.23 3.53 3.48 3.4 3.42
569.156 3.29 3.19 3.24 3.2 3.19 3.29 3.4 3.68 3.92 4.3
588.450 4.9 5.44 6 6.7 7.46 8.09 8.65 9.13 9.45 9.47
607.743 9.29 9.18 8.95 8.55 7.99 7.39 6.98 6.6 6.13 5.8
627.037 5.58 5.4 5.26 5.18 5.19 5.24 5.43 5.59 5.64 5.77
646.330 5.9 5.99 6.14 6.43 6.58 6.57 6.48 6.41 6.38 6.4
665.624 6.45 6.37 6.18 6.11 6.14 6.15 6.23 6.39 6.61 6.82
684.917 7.11 7.45 7.74 8.07 8.38 8.67 8.9 9.16 9.52 9.95
704.210 10.36 10.69 11.2 11.85 12.47 13.13 13.89 14.62 15.33 16.17
723.504 17.16 18.42 19.97 21.77 23.45 25.13 27.47 30.41 33.58 36.65
742.797 39.7 43.38 48.61 55.72 60.41 56.33 47.92 42.73 39.73 36.59
762.091 33.07 29.14 25.11 21.42 18.33 15.91 14.06 12.71 11.68 10.81
781.384 10.13 9.56 9.09 8.74 8.52 8.28 8.03 7.83 7.71 7.59
800.678 7.4 7.27 7.19 7.12 7.17 7.31 7.55 7.97 8.48 9.08
819.971 9.59 10.03 10.45 10.68 10.56 10.26 10.04 9.78 9.31 8.56
839.264 7.69 6.81 6.06 5.5 5.08 4.79 4.62 4.72 5.04 5.65
858.558 5.91 5.26 4.55 4.2 3.98 3.76 3.44 3.11 2.76 2.48
877.851 2.2617 2.067 1.977 1.9015 1.8619 1.8554 1.8056 1.7381 1.7301 1.7426
897.145 1.7119 1.725 1.7941 1.8495 1.9576 1.9954 2.0531 2.1616 2.2649 2.5
916.438 2.74 3.05 3.43 3.94 4.68 5.57 6.76 8.36 10.29 12.5
935.732 14.94 17.46 19.89 22.12 24.14 26.01 27.37 27.87 27.43 26.17
955.025 24.37 22.25 19.86 17.18 14.22 11.13 8.41 6.44 5.19 4.52
974.318 4.15 3.91 3.8 3.81 3.84 4.02 4.33 4.62 5.04 5.66
993.612 6.42 7.27 8.21 9.2 10.21 11.15 11.82 12.16 12.25 12.12
1012.905 11.69 11.12 10.43 9.6 8.76 8.19 7.94 7.8 7.69 7.5
1032.199 7.27 7.08 7 6.95 6.73 6.31 5.72 5.09 4.58 4.21
1051.492 3.93 3.81 3.77 3.78 3.77 3.77 3.81 3.85 3.87 3.85
1070.786 3.85 3.83 3.86 3.89 3.92 4.05 4.2 4.36 4.55 4.77
1090.079 4.93 5.01 5.07 5.11 5.13 5.12 5.05 4.99 5.01 5.08
1109.372 5.19 5.43 5.78 6.14 6.5 6.78 6.97 7.08 7.19 7.32
1128.666 7.47 7.68 8.02 8.55 9.5 10.99 13.26 16.69 21.47 27.63
1147.959 34.48 40.41 43.75 44.67 45.42 46.02 45.14 43.49 39.94 33.73
1167.253 26.93 21.53 18.09 16.21 15.34 15.07 15.36 16.14 17.42 19.28
1186.546 21.92 25.5 29.99 35.37 41.29 47.02 51.68 54.87 56.94 58.22
1205.840 58.67 57.95 55.28 50.62 45.12 39.91 35.6 32.39 30.35 29.46
1225.133 29.47 30.13 31.21 32.43 33.61 34.67 35.62 36.47 37.16 37.58
1244.426 37.71 37.57 37.31 37.19 37.38 37.8 38.27 38.82 39.49 40.24
1263.720 41.12 42.22 43.64 45.25 46.89 48.46 49.76 50.55 50.77 50.54
1283.013 50.1 49.46 48.43 46.56 43.85 40.89 38.16 35.98 34.43 33.41
1302.307 32.84 32.52 32.25 31.93 31.52 31.02 30.35 29.56 28.67 27.76
1321.600 26.89 26.09 25.6 25.65 26.21 27.19 28.42 29.64 30.77 31.82
1340.894 32.72 33.36 33.79 34.02 34.1 34.13 34.1 34 33.81 33.43
1360.187 32.85 32.07 31.09 29.96 28.9 27.87 26.85 25.94 24.98 24.05
1379.480 23.21 22.4 21.62 20.87 20.09 19.15 18.11 16.98 15.76 14.68
1398.774 13.85 13.16 12.63 12.28 12.02 11.92 11.96 12.04 12.23 12.56
1418.067 12.99 13.4 13.94 14.79 15.89 17.23 18.79 20.57 22.68 25.18
1437.361 28.03 30.92 33.71 36.25 38.22 39.52 40.32 40.85 41.22 41.17
1456.654 40.43 39.02 37.53 36.28 35.42 35.09 35.44 36.36 37.83 39.66
1475.948 41.39 42.93 44.09 44.73 44.81 44.55 43.96 42.98 41.4 39.15
1495.241 36.4 33.47 30.6 27.92 25.51 23.3 21.23 19.4 17.8 16.34
1514.534 15.11 14.03 13.07 12.33 11.67 11.11 10.64 10.2 9.84 9.57
1533.828 9.34 9.1 8.91 8.8 8.73 8.64 8.59 8.66 8.86 9.18
1553.121 9.66 10.33 11.28 12.63 14.26 16.13 18.39 21.03 23.79 26.49
1572.415 28.87 30.8 32.26 33.03 33.27 33.17 32.67 31.66 30.03 28.13
1591.708 26.47 25.41 25.15 25.57 26.64 28.25 30.24 32.5 34.75 36.75
1611.002 38.21 39.07 39.26 38.82 37.98 36.83 35.53 34.29 33.44 33.49
1630.295 34.84 37.6 41.9 47.97 55.34 63.8 73.29 83.18 92.95 101.8
1649.588 108.79 113.61 116.4 116.99 115.16 110.68 103.69 94.65 84.41 73.76
1668.882 63.2 53.47 45.12 37.98 31.89 26.98 23.04 19.89 17.13 14.87
1688.175 13.12 11.68 10.51 9.54 8.73 7.97 7.33 6.77 6.34 6.02
1707.469 5.73 5.46 5.23 4.96 4.67 4.42 4.17 3.92 3.66 3.38
1726.762 3.12 2.92 2.78 2.65 2.53 2.41 2.299 2.233 2.1374 2.056
1746.056 2.0232 1.9767 1.9174 1.9105 1.9133 1.885 1.879 1.8607 1.8594 1.8814
1765.349 1.8487 1.8451 1.8992 1.9073 1.939 1.9876 2.0843 2.2097 2.311 2.44
1784.642 2.6 2.8 2.95 3.03 3.1 3.1 2.95 2.8 2.73 2.58
1803.936 2.3519 2.1381 1.9659 1.7782 1.6828 1.6872 1.6521 1.6651 1.7182 1.7441
1823.229 1.7477 1.8153 1.8659 1.8332 1.784 1.755 1.7403 1.6719 1.5984 1.5305
1842.523 1.45956 1.36687 1.2769 1.248 1.242 1.23 1.201 1.179 1.221 1.253
1861.816 1.2894 1.3536 1.38026 1.44047 1.4907 1.5102 1.523 1.5049 1.497 1.487
1881.110 1.42153 1.3153 1.236 1.223 1.194 1.131 1.1 1.105 1.119 1.206
1900.403 1.37236 1.5085 1.5824 1.6685 1.785 1.8064 1.8033 1.7958 1.7572 1.7702
1919.696 1.6958 1.5156 1.37367 1.3184 1.2905 1.3264 1.43444 1.6018 1.8229 2.0145
1938.990 2.1837 2.3091 2.39 2.37 2.3213 2.274 2.1873 2.0035 1.7747 1.5506
1958.283 1.3113 1.127 0.977 0.884 0.85 0.812 0.789 0.797 0.772 0.694
1977.577 0.671 0.704 0.661 0.617 0.633 0.636 0.612 0.601 0.616 0.59
1996.870 0.577 0.584 0.541 0.536 0.562 0.558 0.572 0.601 0.6 0.596
2016.164 0.583 0.558 0.554 0.567 0.579 0.588 0.622 0.647 0.621 0.626
2035.457 0.652 0.642 0.614 0.564 0.547 0.552 0.536 0.509 0.5 0.519
2054.750 0.538 0.519 0.495 0.55 0.588 0.569 0.595 0.636 0.588 0.531
2074.044 0.551 0.556 0.534 0.539 0.568 0.578 0.568 0.566 0.569 0.608
2093.337 0.626 0.591 0.565 0.562 0.589 0.595 0.575 0.593 0.618 0.605
2112.631 0.611 0.64 0.647 0.639 0.641 0.633 0.606 0.584 0.605 0.651
2131.924 0.641 0.623 0.644 0.692 0.721 0.732 0.713 0.656 0.625 0.621
2151.218 0.614 0.614 0.597 0.583 0.568 0.525 0.503 0.491 0.491 0.513
2170.511 0.501 0.472 0.485 0.512 0.53 0.503 0.484 0.502 0.493 0.48
2189.804 0.495 0.478 0.438 0.428 0.449 0.475 0.43 0.386 0.427 0.435
2209.098 0.405 0.413 0.456 0.448 0.402 0.414 0.46 0.495 0.498 0.483
2228.391 0.496 0.544 0.537 0.509 0.535 0.543 0.532 0.578 0.603 0.602
2247.685 0.588 0.574 0.581 0.602 0.618 0.626 0.669 0.705 0.744 0.768
2266.978 0.782 0.809 0.83 0.846 0.901 0.965 0.969 0.945 0.951 0.991
2286.272 1.011 0.972 0.924 0.892 0.856 0.833 0.796 0.778 0.765 0.754
2305.565 0.762 0.774 0.799 0.827 0.869 0.876 0.868 0.886 0.909 0.936
2324.858 0.928 0.923 0.945 0.929 0.935 0.919 0.892 0.899 0.917 0.946
2344.152 0.942 0.93 0.908 0.93 0.943 0.894 0.917 0.967 0.95 0.923
2363.445 0.906 0.9 0.874 0.863 0.886 0.857 0.812 0.839 0.871 0.869
2382.739 0.902 0.911 0.949 1.028 1.029 1.006 1.024 1.053 1.053 1.064
2402.032 1.103 1.079 1.055 1.032 0.993 0.984 0.965 0.937 0.891 0.898
2421.326 0.907 0.89 0.926 0.916 0.904 0.924 0.914 0.941 0.967 0.989
2440.619 1.006 1.01 1.01 1.005 0.993 0.973 0.987 1.011 1 1.01
2459.912 1.027 1.014 1.002 0.977 1.004 1.023 0.993 0.999 1.024 1.05
2479.206 1.032 1.002 1.022 1.068 1.082 1.062 1.085 1.077 1.083 1.127
2498.499 1.141 1.184 1.242 1.2759 1.3022 1.3199 1.3271 1.37404 1.4326 1.44996
2517.793 1.4711 1.44832 1.42248 1.42829 1.4363 1.4865 1.5103 1.45389 1.4019 1.42282
2537.086 1.44008 1.41943 1.44384 1.4775 1.4674 1.45005 1.45414 1.4897 1.4896 1.4851
2556.380 1.495 1.5382 1.5964 1.5983 1.6175 1.6748 1.6914 1.6631 1.645 1.713
2575.673 1.8143 1.7848 1.782 1.8345 1.8963 1.9439 1.9161 1.9601 2.0486 2.0702
2594.966 2.1018 2.1665 2.2107 2.2346 2.2603 2.3108 2.3129 2.3233 2.37 2.39
2614.260 2.37 2.37 2.4 2.39 2.3354 2.3361 2.3178 2.2606 2.2989 2.38
2633.553 2.38 2.3086 2.2532 2.2102 2.1782 2.1868 2.1637 2.1246 2.1414 2.1455
2652.847 2.1008 2.0854 2.0576 2.026 2.0233 2.0378 2.0574 2.0255 2.0508 2.0819
2672.140 2.0541 2.0772 2.0718 2.0683 2.1501 2.1796 2.17 2.248 2.2657 2.2424
2691.434 2.2482 2.2214 2.2783 2.3477 2.39 2.43 2.44 2.4 2.42 2.5
2710.727 2.52 2.59 2.62 2.63 2.65 2.69 2.75 2.82 2.83 2.9
2730.020 2.99 3.02 3.08 3.09 3.06 3.05 3.1 3.2 3.28 3.33
2749.314 3.39 3.44 3.41 3.38 3.41 3.43 3.35 3.3 3.35 3.29
2768.607 3.23 3.2 3.15 3.08 3 2.96 2.97 3.05 2.99 2.91
2787.901 2.92 2.94 2.96 2.98 2.91 2.94 3.02 2.99 2.99 3.06
2807.194 3.12 3.13 3.22 3.28 3.33 3.39 3.45 3.48 3.59 3.72
2826.488 3.77 3.79 3.74 3.8 3.98 4.01 4 4.12 4.15 4.08
2845.781 4.04 4.08 4.15 4.2 4.3 4.34 4.4 4.53 4.58 4.72
2865.074 4.97 5.18 5.34 5.62 5.99 6.34 6.75 7.22 7.74 8.42
2884.368 9.06 9.41 9.82 10.2 10.49 10.69 10.74 10.66 10.51 10.37
2903.661 10.17 10.04 10.13 10.32 10.67 11.13 11.51 11.88 12.28 12.54
2922.955 12.67 12.88 13.12 13.13 13.14 13.15 13.31 13.62 14.09 14.98
2942.248 16.15 17.47 18.67 19.51 19.91 19.89 19.69 19.39 18.9 17.94
2961.542 16.56 15.38 14.5 14.03 14.12 14.69 15.65 16.92 18.54 20.35
2980.835 22.12 23.73 24.95 25.69 25.91 25.97 25.94 25.29 23.76 21.61
3000.128 19.58 18.04 16.77 15.5 14.56 13.78 13.09 12.64 12.31 12.14
3019.422 11.95 11.87 11.96 11.98 12.06 12.3 12.59 12.98 13.29 13.47
3038.715 13.86 14.36 14.88 15.44 16.08 16.7 17.34 18.15 18.93 19.69
3058.009 20.48 21.33 21.99 22.33 22.67 22.83 22.75 22.57 22.33 22.09
3077.302 21.75 21.3 20.78 20.34 19.93 19.4 18.98 18.59 18.17 17.58
3096.596 16.84 16.14 15.53 14.87 14.19 13.68 13.36 12.98 12.71 12.5
3115.889 12.18 12.01 11.84 11.65 11.52 11.31 11.1 11.01 10.99 10.93
3135.182 10.77 10.71 10.76 10.68 10.56 10.65 10.61 10.56 10.73 10.75
3154.476 10.75 10.81 10.84 10.87 10.83 10.84 10.86 10.76 10.66 10.8
3173.769 10.87 10.78 10.8 10.8 10.72 10.67 10.64 10.57 10.53 10.47
3193.063 10.3 10.15 10.24 10.25 10.16 10.03 9.81 9.67 9.63 9.68
3212.356 9.7 9.53 9.4 9.43 9.31 9.16 9.25 9.19 9.11 9.07
3231.650 8.98 8.91 8.84 8.75 8.59 8.62 8.72 8.65 8.65 8.7
3250.943 8.76 8.82 8.81 8.77 8.75 8.76 8.7 8.7 8.66 8.48
3270.236 8.52 8.59 8.49 8.55 8.54 8.4 8.31 8.14 7.99 8.11
3289.530 8.19 8.04 7.95 7.95 7.94 7.87 7.86 7.75 7.46 7.43
3308.823 7.44 7.36 7.3 7.12 6.95 6.85 6.82 6.8 6.67 6.56
3328.117 6.38 6.25 6.15 6 6 5.92 5.89 5.87 5.86 5.76
3347.410 5.52 5.44 5.46 5.4 5.36 5.32 5.23 5.06 4.84 4.88
3366.704 4.92 4.83 4.69 4.52 4.5 4.58 4.56 4.44 4.32 4.32
3385.997 4.28 4.2 4.09 3.96 3.97 3.93 3.79 3.72 3.56 3.52
3405.290 3.57 3.45 3.37 3.29 3.37 3.28 3.21 3.29 3.24 3.06
3424.584 2.86 2.92 2.95 2.86 2.75 2.78 2.87 2.74 2.63 2.54
3443.877 2.52 2.64 2.54 2.39 2.2975 2.3569 2.38 2.1719 2.1445 2.1007
3463.171 2.0065 2.0442 1.974 1.8824 1.8472 1.7561 1.7766 1.8262 1.7162 1.672
3482.464 1.6825 1.648 1.6192 1.6633 1.5869 1.4633 1.37853 1.336 1.38918 1.39715
3501.758 1.3297 1.3348 1.3366 1.2777 1.23 1.212 1.223 1.067 0.991 1.05
3521.051 1.044 1.004 1.016 1.047 0.983 0.97 0.965 0.873 0.849 0.81
3540.344 0.773 0.755 0.768 0.749 0.736 0.749 0.73 0.735 0.765 0.682
3559.638 0.613 0.667 0.629 0.605 0.651 0.618 0.556 0.538 0.473 0.443
3578.931 0.413 0.443 0.494 0.484 0.509 0.459 0.423 0.457 0.412 0.396
3598.225 0.379 0.37 0.434 0.41 0.432 0.499 0.439 0.32 0.28 0.26
3617.518 0.29 0.33 0.29 0.26 0.27 0.36 0.35 0.34 0.33 0.31
3636.812 0.33 0.36 0.379 0.33 0.363 0.461 0.482 0.431 0.35 0.36
3656.105 0.34 0.33 0.379 0.375 0.34 0.29 0.26 0.23 0.18 0.13
3675.398 0.22 0.23 0.14 0.15 0.18 0.15 0.17 0.25 0.19 0.2
3694.692 0.19 0.11 0.09 0.14 0.22 0.24 0.13 0.07 0.05 0.12
3713.985 0.15 0.15 0.17 0.08 0.13 0.17 0.16 0.23 0.21 0.19
3733.279 0.16 0.05 0.02 0.05 0 0.03 0.24 0.2 0.1 0.21
3752.572 0.23 0.13 0.09 0.08 0.02 0.12 0.17 0.16 0.19 0.1
3771.866 0.08 0.12 0.1 0.04 0.06 0.21 0.2 0.12 0.07 0.06
3791.159 0.07 0.08 0.08 0.07 0.14 0.18 0.09 0.05 0.04 0
3810.452 0.04 0.06 0.06 0.14 0.21 0.22 0.21 0.18 0.14 0.12
3829.746 0.08 0.08 0.07 0.1 0.17 0.22 0.13 0.04 0.06 0.08
3849.039 0.06 0.06 0.13 0.12 0.12 0.09 0.12 0.22 0.2 0.12
3868.333 0.06 0.11 0.1 0.13 0.18 0.21 0.3 0.29 0.31 0.32
3887.626 0.32 0.25 0.28 0.34 0.27 0.22 0.17 0.17 0.18 0.24
3906.920 0.26 0.14 0.17 0.23 0.23 0.25 0.19 0.16 0.15 0.12
3926.213 0.17 0.23 0.23 0.2 0.24 0.3 0.25 0.19 0.17 0.2
3945.506 0.18 0.11 0.13 0.16 0.22 0.27 0.21 0.13 0.13 0.21
3964.800 0.25 0.24 0.24 0.17 0.21 0.25 0.18 0.25 0.35 0.3
3984.093 0.27 0.26 0.27 0.32 0.28 0.3 0.3 0.26 0.3
##END=
