##TITLE=cis,cis-2,4-Hexadiene
##JCAMP-DX=4.24
##DATA TYPE=INFRARED SPECTRUM
##ORIGIN=NIST Mass Spectrometry Data Center
##OWNER=NIST Standard Reference Data Program
Collection (C) 2018 copyright by the U.S. Secretary of Commerce
on behalf of the United States of America. All rights reserved.
##CAS REGISTRY NO=6108-61-8
##MOLFORM=C 6 H 10
##$NIST SOURCE=MSDC-IR
##SPECTROMETER/DATA SYSTEM=HP-GC/MS/IRD
##STATE=gas
##XUNITS=1/CM
##YUNITS=ABSORBANCE
##XFACTOR=1.0
##YFACTOR=0.000001600
##DELTAX=4.0
##FIRSTX=550.0
##LASTX=3846.0
##FIRSTY=0.002648
##MAXX=3846
##MINX=550
##MAXY=0.016
##MINY=0
##NPOINTS=825
##XYDATA=(X++(Y..Y))
550.0 1655 1158 813 688 497 393 454 448 403 470
590.0 522 500 479 589 723 809 919 1154 1379 1586
630.0 1892 2358 2860 3352 3826 4308 4872 5350 5820 6415
670.0 6925 7277 7205 6777 6260 5854 5416 4762 4115 3493
710.0 2935 2448 1978 1605 1285 972 764 631 490 423
750.0 403 354 302 274 235 243 293 258 183 197
790.0 183 175 138 80 57 35 37 24 42 62
830.0 47 45 41 40 41 10 11 30 34 52
870.0 58 68 79 130 196 250 335 503 724 1095
910.0 1618 2136 2523 2675 2638 2607 2464 1914 1234 794
950.0 601 524 486 439 431 415 373 345 321 298
990.0 275 296 303 280 262 295 343 332 304 268
1030.0 281 284 256 230 191 186 193 194 184 187
1070.0 198 221 233 221 193 166 180 221 212 150
1110.0 120 133 129 109 87 69 89 121 127 98
1150.0 70 81 78 79 65 38 49 35 15 7
1190.0 5 49 86 96 87 90 105 118 127 150
1230.0 164 136 120 106 93 66 44 48 24 24
1270.0 49 74 82 89 99 94 124 168 192 212
1310.0 232 286 370 467 591 797 1124 1421 1516 1538
1350.0 1640 1755 1685 1509 1438 1467 1585 1777 1995 2117
1390.0 2192 2264 2294 2233 2036 1804 1643 1524 1475 1531
1430.0 1617 1697 1774 1853 1870 1827 1754 1668 1556 1416
1470.0 1276 1148 1038 959 907 877 848 836 853 870
1510.0 863 871 885 883 867 867 850 818 805 783
1550.0 763 746 733 732 744 770 804 851 949 1065
1590.0 1168 1285 1367 1403 1448 1503 1483 1362 1232 1129
1630.0 1032 915 803 708 635 546 455 406 348 302
1670.0 288 275 271 264 267 303 322 327 344 366
1710.0 385 418 467 545 643 733 811 859 848 795
1750.0 710 598 470 338 251 197 177 184 186 185
1790.0 197 214 215 185 196 204 181 157 125 120
1830.0 116 93 73 55 52 61 56 41 28 24
1870.0 39 49 34 24 29 42 50 57 68 76
1910.0 81 92 92 87 74 81 90 86 97 101
1950.0 104 117 137 166 195 229 250 265 283 286
1990.0 277 261 251 231 193 170 149 126 122 113
2030.0 83 53 47 56 46 31 39 47 56 59
2070.0 51 29 27 31 20 18 10 4 8 28
2110.0 38 30 31 55 58 40 30 31 29 29
2150.0 16 5 21 19 21 22 2 0 5 20
2190.0 19 6 22 28 13 13 4 14 21 17
2230.0 20 18 15 16 11 11 36 40 27 25
2270.0 39 45 42 37 46 65 68 64 51 52
2310.0 52 39 46 46 45 49 43 47 58 64
2350.0 54 50 62 61 53 36 32 56 42 50
2390.0 57 38 46 52 48 50 62 62 65 56
2430.0 49 55 61 50 41 74 74 59 59 53
2470.0 62 74 74 72 71 71 77 90 84 67
2510.0 63 57 50 66 58 39 39 22 9 24
2550.0 48 29 20 25 23 21 31 23 34 66
2590.0 64 64 48 32 17 8 24 32 34 16
2630.0 3 23 39 42 40 45 45 54 43 46
2670.0 65 52 44 57 65 60 61 65 70 103
2710.0 135 149 172 204 196 193 231 253 301 354
2750.0 376 417 429 432 431 404 395 377 379 413
2790.0 422 431 460 496 530 572 634 711 778 865
2830.0 994 1139 1329 1569 1860 2240 2772 3368 3892 4256
2870.0 4500 4710 4776 4660 4493 4373 4390 4571 4921 5507
2910.0 6351 7389 8350 8941 9161 9139 8875 8256 7300 6243
2950.0 5393 4832 4455 4184 3990 3886 3850 3876 3953 4146
2990.0 4497 4970 5595 6327 7102 7897 8655 9297 9741 9977
3030.0 10000 9825 9480 8987 8401 7761 7083 6379 5590 4745
3070.0 3987 3324 2717 2187 1784 1502 1268 1075 928 782
3110.0 677 603 553 480 408 377 336 275 237 231
3150.0 222 204 188 193 188 165 156 148 141 114
3190.0 105 122 131 127 107 100 118 136 119 108
3230.0 101 112 126 117 124 124 109 104 92 88
3270.0 84 71 48 25 55 68 59 67 59 65
3310.0 103 84 55 29 6 64 54 20 56 70
3350.0 36 36 58 54 68 74 90 100 80 58
3390.0 35 21 20 15 14 56 45 9 41 59
3430.0 66 66 54 58 62 78 74 51 61 76
3470.0 71 82 98 91 79 62 70 68 39 45
3510.0 54 65 77 76 77 82 97 99 74 76
3550.0 101 102 115 133 112 87 99 112 102 103
3590.0 91 67 95 112 112 118 119 136 123 81
3630.0 89 126 112 111 134 129 122 117 98 114
3670.0 128 104 88 103 117 101 94 111 107 94
3710.0 94 83 101 106 125 101 41 88 68 48
3750.0 107 113 101 84 66 84 107 112 125 129
3790.0 138 158 156 127 113 115 109 105 122 113
3830.0 99 120 123 123 137
##END=
