##TITLE=2-Methylstyrene
##JCAMP-DX=4.24
##DATA TYPE=INFRARED SPECTRUM
##ORIGIN=NIST Mass Spectrometry Data Center
##OWNER=NIST Standard Reference Data Program
Collection (C) 2018 copyright by the U.S. Secretary of Commerce
on behalf of the United States of America. All rights reserved.
##CAS REGISTRY NO=611-15-4
##MOLFORM=C 9 H 10
##$NIST SOURCE=MSDC-IR
##SPECTROMETER/DATA SYSTEM=HP-GC/MS/IRD
##STATE=gas
##XUNITS=1/CM
##YUNITS=ABSORBANCE
##XFACTOR=1.0
##YFACTOR=0.000000800
##DELTAX=4.0
##FIRSTX=550.0
##LASTX=3846.0
##FIRSTY=0.000118
##MAXX=3846
##MINX=550
##MAXY=0.008
##MINY=0
##NPOINTS=825
##XYDATA=(X++(Y..Y))
550.0 147 0 33 23 58 93 238 345 397 440
590.0 443 465 392 343 289 160 180 149 115 162
630.0 154 180 230 205 242 318 316 287 217 228
670.0 262 269 289 287 339 458 504 690 1062 1682
710.0 2646 3634 4397 6100 8930 8077 5898 5853 5756 5753
750.0 6083 6594 7784 9701 10000 8009 6169 4980 3698 2487
790.0 1658 1180 892 737 625 569 554 579 602 555
830.0 569 563 539 560 536 556 687 849 938 1026
870.0 1136 1221 1290 1421 1630 1941 2468 3100 3859 4441
910.0 5470 7045 6562 5315 4864 4361 3676 3025 2602 2386
950.0 2294 2271 2290 2318 2421 2608 2758 2946 3282 3692
990.0 3713 3301 2974 2700 2385 2219 2186 2150 2135 2090
1030.0 1981 1858 1695 1509 1323 1192 1125 1042 930 786
1070.0 663 557 432 392 468 523 603 744 817 887
1110.0 861 751 656 547 451 398 356 342 334 333
1150.0 322 253 215 245 248 187 158 142 101 96
1190.0 125 119 84 117 200 239 245 262 265 244
1230.0 198 136 94 72 83 109 152 224 280 314
1270.0 397 513 606 671 682 699 670 583 482 389
1310.0 327 271 260 269 279 286 287 315 328 327
1350.0 333 375 426 474 571 687 794 948 1066 1136
1390.0 1217 1217 1213 1285 1424 1617 1759 1803 1879 1943
1430.0 1923 1944 2106 2358 2607 2846 3021 3111 3207 3330
1470.0 3551 3927 4352 4602 4654 4467 4052 3346 2439 1634
1510.0 1173 951 787 686 619 573 565 553 543 581
1550.0 649 723 780 893 1010 1089 1151 1186 1220 1218
1590.0 1274 1338 1411 1537 1672 1937 2297 2615 2829 2899
1630.0 2821 2605 2182 1596 1113 819 662 587 535 488
1670.0 453 406 348 325 336 370 371 394 433 435
1710.0 432 399 318 282 289 273 256 277 279 267
1750.0 264 241 216 193 182 210 249 313 409 476
1790.0 510 537 532 496 500 551 628 788 1062 1301
1830.0 1440 1474 1430 1275 977 710 520 389 349 361
1870.0 385 416 426 434 450 474 558 639 686 677
1910.0 643 617 536 469 446 476 520 539 525 478
1950.0 404 323 281 258 215 161 125 91 89 103
1990.0 97 92 92 91 67 54 60 66 46 67
2030.0 74 45 40 55 55 48 47 38 33 37
2070.0 55 57 46 29 29 59 84 80 54 44
2110.0 36 29 42 37 23 40 51 21 18 31
2150.0 29 34 38 37 37 46 36 42 49 52
2190.0 83 101 102 78 65 82 87 66 37 34
2230.0 33 21 28 48 65 83 103 94 85 96
2270.0 98 80 82 105 103 88 75 75 70 81
2310.0 125 151 143 144 178 190 177 158 120 116
2350.0 133 115 116 87 56 72 78 93 116 112
2390.0 90 98 113 105 122 147 138 122 106 120
2430.0 159 153 139 131 113 110 123 137 125 120
2470.0 139 145 143 126 109 95 121 125 127 159
2510.0 146 123 133 145 120 106 127 131 132 142
2550.0 154 167 156 169 183 179 149 140 137 168
2590.0 183 172 171 140 144 166 145 126 131 128
2630.0 135 143 137 140 146 151 139 142 178 196
2670.0 184 177 151 119 152 204 209 203 210 215
2710.0 192 208 221 211 256 290 309 365 404 416
2750.0 398 353 340 303 265 272 274 284 275 290
2790.0 324 318 325 368 410 469 460 457 512 597
2830.0 663 683 751 816 921 1090 1279 1515 1760 2033
2870.0 2263 2416 2541 2604 2564 2519 2502 2432 2450 2531
2910.0 2663 2905 3272 3758 4234 4628 4858 4947 4920 4750
2950.0 4550 4341 4244 4181 4125 4171 4259 4307 4252 4190
2990.0 4129 4183 4404 4838 5521 6337 7143 7740 8069 8070
3030.0 7692 7068 6444 5961 5784 6028 6714 7659 8558 9185
3070.0 9429 9286 8968 8678 8201 7411 6679 5939 5168 4073
3110.0 2824 2061 1625 1341 1178 1048 929 839 793 738
3150.0 648 606 534 452 392 327 288 255 244 260
3190.0 264 275 288 258 224 264 253 187 177 176
3230.0 166 169 208 188 154 214 234 158 125 153
3270.0 169 153 130 124 139 104 77 116 197 194
3310.0 127 133 176 189 161 175 201 207 187 177
3350.0 157 101 83 95 103 114 119 89 81 105
3390.0 125 150 130 141 197 177 123 134 114 79
3430.0 130 160 121 108 79 57 103 99 29 28
3470.0 82 124 113 69 70 60 93 131 99 90
3510.0 121 117 80 84 86 114 120 91 106 146
3550.0 117 106 164 159 128 135 116 114 142 168
3590.0 166 108 66 97 107 81 82 101 145 163
3630.0 99 130 127 127 142 130 149 86 89 98
3670.0 98 133 102 101 84 21 48 119 109 86
3710.0 78 92 125 123 125 108 92 117 158 151
3750.0 140 182 209 134 88 96 76 119 141 86
3790.0 126 154 139 194 260 267 204 180 205 186
3830.0 162 236 325 268 226
##END=
