##TITLE=4,4'-Dimethylbenzophenone
##JCAMP-DX=4.24
##DATA TYPE=INFRARED SPECTRUM
##ORIGIN=EPA-IR VAPOR PHASE LIBRARY
##OWNER=SRD/NIST
Collection (C) 2018 copyright by the U.S. Secretary of Commerce
on behalf of the United States of America. All rights reserved.
##CAS REGISTRY NO=611-97-2
##MOLFORM=C 15 H 14 O
##$NIST SOURCE=MSDC-IR
##STATE=gas
##XUNITS=1/CM
##YUNITS=ABSORBANCE
##XFACTOR=1.
##YFACTOR=0.001
##DELTAX=3.85796
##FIRSTX=501.5
##LASTX=4000.7
##FIRSTY=1.17
##MAXX=4000.7
##MINX=501.534
##MAXY=0.09873
##MINY=0.0001521
##NPOINTS=908
##XYDATA=(X++(Y..Y))
501.534 1.17 1.15 0.9574 0.8267 0.8904 0.8077 0.7103 0.7756 0.943 1.09
540.114 1.16 1.23 1.44 1.78 2.05 2.47 3.43 5.64 9.49 13.92
578.693 16.42 14.89 10.51 6.25 3.61 2.3 1.64 1.4 1.41 1.51
617.273 1.67 1.83 2.19 2.78 3.25 3.34 2.92 2.29 1.82 1.68
655.852 1.78 2.02 2.55 3.51 5.04 6.82 7.7 6.99 5.54 4.16
694.432 3.04 2.37 2.05 2 2.16 2.47 2.83 3.33 4.1 5.42
733.011 8.15 13.45 21.7 31.11 35.78 31.21 22.28 14.54 9.83 8.25
771.591 9.23 11.74 13.23 11.98 8.98 6.82 6.7 7.76 9.21 10.87
810.170 12.47 13.67 14.05 13.97 14.18 15.2 16.6 17.18 16.36 13.92
848.750 10.55 7.44 5.12 3.77 3.17 2.94 2.86 2.84 2.82 2.95
887.330 3.2 3.41 3.73 4.29 5.46 7.84 12.46 21.29 34.53 47.39
925.909 53.21 49.23 39.13 28.18 19.46 14.55 12.52 11.08 9.25 7.77
964.489 7.34 7.06 5.97 4.58 3.78 3.5 3.22 2.91 2.59 2.33
1003.068 2.23 2.36 3.07 4.93 6.9 7.29 5.82 3.93 3.3 3.35
1041.648 3.43 3.49 3.43 3.18 2.89 2.7 2.55 2.52 2.49 2.4
1080.227 2.53 2.61 2.66 2.84 3.1 3.67 4.55 5.72 6.84 7.22
1118.807 6.87 6.18 5.6 5.51 5.91 6.52 7.01 7.15 6.97 6.58
1157.387 6.78 8.05 11.02 16.72 27.41 38.77 40.6 30.68 16.96 9.42
1195.966 8.5 10.16 11.84 12.04 10.93 9.83 9.88 11.01 13.16 15.82
1234.546 18.16 19.43 19.38 19.12 20.73 26.33 37.48 54.72 75.61 92.18
1273.125 98.73 97.18 92.56 84.6 69.46 49.66 33.3 25.01 24.66 30.77
1311.705 36.54 34.81 25.36 15.85 11.11 8.58 6.78 5.59 4.98 4.82
1350.284 4.87 5.02 5.13 5.1 4.98 4.84 4.87 5.13 5.57 6.04
1388.864 6.57 7.36 8.66 10.47 12.37 13.6 13.49 12.2 10.51 9.1
1427.443 8 7.06 6.29 5.73 5.37 5.19 5.13 5.11 5.14 5.25
1466.023 5.33 5.25 5.1 5.07 5.14 5.36 5.75 6.22 6.59 6.75
1504.603 6.63 6.25 5.79 5.39 5.11 4.87 4.68 4.57 4.59 4.74
1543.182 5.03 5.5 6.06 6.58 7.04 7.52 8.08 8.8 9.6 10.45
1581.762 11.38 12.78 15.28 19.53 26.2 35.9 47 53.44 49.69 37
1620.341 23.82 16.17 12.52 10.66 9.72 9.46 9.8 10.78 12.62 16.1
1658.921 22.45 33.91 51.38 70.83 84.15 86.09 75.73 57.67 40.26 27.02
1697.500 18.3 13.09 10.1 8.33 7.29 6.75 6.42 5.95 5.23 4.34
1736.080 3.51 2.91 2.51 2.27 2.15 2.14 2.19 2.29 2.37 2.38
1774.659 2.34 2.28 2.3 2.46 2.7 3.01 3.25 3.23 2.93 2.38
1813.239 1.81 1.42 1.19 1.04 0.9534 0.9097 0.8853 0.8551 0.8754 0.9147
1851.819 0.9223 0.9584 0.982 0.9709 0.9922 1.06 1.13 1.2 1.32 1.45
1890.398 1.58 1.75 1.96 2.23 2.57 2.95 3.28 3.39 3.24 2.87
1928.978 2.36 1.9 1.54 1.28 1.12 1 0.9066 0.8277 0.7839 0.7582
1967.557 0.744 0.7356 0.7102 0.6774 0.6498 0.6189 0.5907 0.5535 0.5116 0.4769
2006.137 0.474 0.4944 0.4826 0.4853 0.4967 0.4753 0.4745 0.5086 0.5441 0.5645
2044.716 0.5493 0.5066 0.4799 0.5094 0.5586 0.6069 0.6468 0.6365 0.6153 0.591
2083.296 0.5409 0.4869 0.4371 0.3988 0.3706 0.3421 0.3204 0.3001 0.2865 0.2785
2121.875 0.2712 0.2723 0.2766 0.2943 0.3036 0.2928 0.316 0.3855 0.4204 0.4514
2160.455 0.5043 0.5055 0.4676 0.4368 0.4183 0.4109 0.4244 0.4351 0.4261 0.4066
2199.035 0.4021 0.4075 0.4048 0.4111 0.4137 0.3952 0.3796 0.3783 0.3795 0.3817
2237.614 0.3787 0.3831 0.4125 0.4189 0.4088 0.4275 0.4485 0.445 0.4377 0.4499
2276.194 0.4734 0.5006 0.5604 0.6244 0.6769 0.7404 0.7611 0.7389 0.7078 0.6584
2314.773 0.5997 0.5484 0.521 0.5339 0.5347 0.5258 0.5181 0.4915 0.461 0.4543
2353.353 0.454 0.4351 0.4547 0.4614 0.4676 0.5147 0.5489 0.5822 0.6253 0.6732
2391.932 0.7324 0.8169 0.9 1 1.14 1.25 1.26 1.18 1.06 0.9465
2430.512 0.8395 0.733 0.6378 0.5607 0.5222 0.5224 0.5415 0.5317 0.4934 0.4851
2469.092 0.4783 0.4492 0.45 0.4601 0.4513 0.453 0.434 0.4294 0.4297 0.4305
2507.671 0.4608 0.495 0.5266 0.5454 0.5636 0.5891 0.6132 0.604 0.62 0.6545
2546.251 0.6537 0.6903 0.7312 0.7671 0.8144 0.863 0.8901 0.897 0.9453 0.9997
2584.830 1.02 1.02 0.9699 0.8773 0.7622 0.6794 0.6211 0.5644 0.5592 0.5951
2623.410 0.6268 0.6198 0.5895 0.5532 0.5307 0.5234 0.5253 0.5266 0.5286 0.5012
2661.989 0.4851 0.4727 0.4401 0.4458 0.4563 0.4596 0.4753 0.4909 0.4911 0.4673
2700.569 0.4945 0.53 0.5594 0.6323 0.6592 0.6776 0.6947 0.7924 0.9901 1.22
2739.148 1.43 1.57 1.58 1.47 1.28 1.12 0.9736 0.8823 0.8665 0.8771
2777.728 0.8962 0.9371 0.9988 1.03 1.06 1.13 1.21 1.25 1.31 1.36
2816.308 1.42 1.52 1.62 1.72 1.88 2.1 2.37 2.7 3.11 3.69
2854.887 4.45 5.41 6.65 8.11 9.59 10.87 11.68 11.83 11.48 10.86
2893.467 10.21 9.71 9.48 9.53 9.98 10.87 12.25 14.44 17.5 20.98
2932.046 23.68 24 21.52 17.48 13.64 10.92 9.31 8.34 7.67 7.28
2970.626 7.04 7.04 7.36 7.96 8.83 9.88 10.97 11.89 12.62 13.11
3009.205 13.39 13.8 14.82 17.12 21.2 26.1 28.91 27.76 23.75 19.83
3047.785 17.3 15.6 14.47 14.04 13.92 13.55 12.84 12.08 11.68 11.36
3086.364 10.77 9.68 8.2 6.66 5.31 4.32 3.73 3.41 3.18 3.04
3124.944 2.79 2.44 2.05 1.65 1.41 1.19 1.02 0.9386 0.8571 0.7649
3163.524 0.676 0.5879 0.5456 0.5304 0.5086 0.4628 0.4372 0.4471 0.4519 0.4481
3202.103 0.4578 0.4448 0.403 0.4149 0.4297 0.4502 0.4539 0.4408 0.4827 0.4291
3240.683 0.3494 0.3388 0.3526 0.415 0.4229 0.3795 0.3683 0.3731 0.4206 0.4535
3279.262 0.4697 0.4821 0.4299 0.4377 0.4976 0.5021 0.503 0.5373 0.5585 0.6439
3317.842 0.8247 1.03 1.25 1.5 1.66 1.63 1.52 1.37 1.19 0.9973
3356.421 0.8248 0.7497 0.6995 0.6494 0.6274 0.5578 0.5264 0.5718 0.5652 0.5068
3395.001 0.4744 0.4429 0.393 0.3651 0.3497 0.3215 0.3179 0.3024 0.2901 0.3318
3433.580 0.352 0.3064 0.298 0.3272 0.3147 0.3113 0.3052 0.2618 0.1896 0.165
3472.160 0.1521 0.1928 0.2363 0.2468 0.241 0.2372 0.2856 0.2541 0.2135 0.2456
3510.740 0.2274 0.2296 0.2847 0.3003 0.2621 0.253 0.2352 0.2091 0.2231 0.1969
3549.319 0.1524 0.1749 0.2267 0.2381 0.219 0.2145 0.2542 0.2537 0.2578 0.2359
3587.899 0.2339 0.2672 0.255 0.2676 0.2762 0.273 0.2969 0.3087 0.2863 0.2492
3626.478 0.2676 0.3058 0.3076 0.3241 0.3505 0.3465 0.3066 0.3157 0.3658 0.4239
3665.058 0.4595 0.4671 0.4509 0.4081 0.446 0.4985 0.4737 0.3988 0.3556 0.3538
3703.637 0.3539 0.3637 0.3756 0.3621 0.31 0.2766 0.3028 0.3402 0.3367 0.3363
3742.217 0.3563 0.316 0.2694 0.2836 0.2727 0.2368 0.2475 0.2715 0.2725 0.2924
3780.797 0.3093 0.3021 0.3002 0.275 0.2814 0.3459 0.3428 0.3555 0.4243 0.3654
3819.376 0.3331 0.3975 0.4071 0.4238 0.4627 0.4208 0.426 0.4897 0.5098 0.5502
3857.956 0.5518 0.4918 0.4451 0.4787 0.5195 0.5171 0.4534 0.4149 0.4865 0.5051
3896.535 0.4347 0.3815 0.3618 0.3916 0.4255 0.4172 0.3803 0.387 0.4075 0.4108
3935.115 0.4522 0.4881 0.4833 0.4613 0.4196 0.3846 0.4062 0.465 0.4949 0.4709
3973.694 0.4647 0.4595 0.4611 0.5034 0.4491 0.4275 0.4958 0.5125
##END=
