##TITLE=4-Hydroxyquinoline
##JCAMP-DX=4.24
##DATA TYPE=INFRARED SPECTRUM
##ORIGIN=EPA-IR VAPOR PHASE LIBRARY
##OWNER=SRD/NIST
Collection (C) 2018 copyright by the U.S. Secretary of Commerce
on behalf of the United States of America. All rights reserved.
##CAS REGISTRY NO=611-36-9
##MOLFORM=C 9 H 7 N O
##$NIST SOURCE=MSDC-IR
##STATE=gas
##XUNITS=1/CM
##YUNITS=ABSORBANCE
##XFACTOR=1.
##YFACTOR=0.001
##DELTAX=3.85796
##FIRSTX=501.5
##LASTX=4000.7
##FIRSTY=7.82
##MAXX=4000.7
##MINX=501.534
##MAXY=0.10137
##MINY=0.0001121
##NPOINTS=908
##XYDATA=(X++(Y..Y))
501.534 7.82 6.83 6.03 5.64 5.18 5.17 5.38 5.64 6 7.13
540.114 6.76 4.34 3.08 2.49 1.81 1.39 1.31 1.31 1.39 1.64
578.693 1.67 1.61 1.3 0.7688 0.5304 0.5474 0.4959 0.4645 0.4554 0.4129
617.273 0.3936 0.3932 0.4452 0.6199 0.8885 0.8897 0.5722 0.5406 0.7216 0.6806
655.852 0.606 0.6134 0.7067 1.02 1.15 0.9612 0.8497 0.7358 0.7376 0.8214
694.432 0.8939 0.9669 1.21 1.46 1.58 1.72 1.93 1.96 2.1 2.57
733.011 3.96 6.39 10.26 14.89 21.53 28.05 32.42 35.39 28.67 20.63
771.591 16.48 11.9 8.06 5.53 4.66 4.68 5.2 6.08 7.32 8.46
810.170 9.18 10.16 12.27 11.45 8.69 7.71 6.59 5.08 4.08 3.55
848.750 3.32 3.5 3.89 4.38 5.42 6.6 6.96 6.6 6.3 5.62
887.330 4.17 2.84 2.07 1.78 1.77 1.81 1.86 1.97 2.09 2.19
925.909 2.33 2.61 3.06 3.65 4.36 5.05 5.64 6.1 6.18 5.88
964.489 5.43 4.96 4.68 4.64 4.68 4.85 5.08 5.29 5.42 5.46
1003.068 5.47 5.45 5.47 5.26 4.86 4.57 4.25 4.1 4.05 3.98
1041.648 4.16 4.2 3.92 3.64 3.43 3.15 2.63 2.17 1.89 1.99
1080.227 2.28 2.35 2.41 2.43 2.32 2.08 1.74 1.46 1.46 1.9
1118.807 2.64 3.88 5.08 5.64 6.31 6.71 6.35 5.93 5.71 5.16
1157.387 4.76 4.56 3.82 3.29 3.64 5.1 7.68 10.23 11.54 11.69
1195.966 11.55 10.3 7.27 4.6 3.09 1.98 1.21 0.7896 0.57 0.4813
1234.546 0.5405 0.6075 0.7707 1.25 1.87 2.48 2.95 3.2 3.33 3.05
1273.125 2.71 2.83 3.4 4.42 5.43 5.96 6.15 6.18 6.08 6
1311.705 6.45 7.46 8.72 10.22 11.51 11.75 11.26 10.51 9.08 7.16
1350.284 5.43 4.11 3.08 2.41 1.91 1.58 1.43 1.43 1.68 2.26
1388.864 2.96 3.52 3.77 3.6 3.36 3.17 3.3 4.25 5.84 7.39
1427.443 8.42 8.82 8.57 7.38 5.6 4.08 3.42 3.91 5.42 8.29
1466.023 13.16 18.61 22.44 23.42 22.67 20.8 18.21 17.5 20.85 27.09
1504.603 33.6 38.7 40.9 39.79 34.82 27.52 20.8 15.93 11.62 8.04
1543.182 6.14 5.47 5.66 6.45 7.58 8.6 9.79 11.17 12.37 13.47
1581.762 14.39 15.35 16.42 18.11 20.84 24.6 29.08 33.46 36.49 37.56
1620.341 36.4 33.3 28.7 24.48 21.6 20.23 22.06 28.7 40.5 58.4
1658.921 78.97 97.07 101.37 97.66 91.73 71.13 44.33 24.58 14.13 9.54
1697.500 7.73 6.96 6.16 5.29 4.73 4.05 2.93 2.01 1.53 1.42
1736.080 1.2 0.9868 0.948 1.05 1.22 1.36 1.58 1.69 1.73 1.58
1774.659 1.22 0.9634 0.7585 0.5487 0.5221 0.5587 0.617 0.6701 0.5315 0.4069
1813.239 0.349 0.3285 0.3851 0.5586 0.6861 0.7129 0.6659 0.634 0.6314 0.5328
1851.819 0.4522 0.4722 0.5325 0.6346 0.854 1.05 1.14 1.23 1.25 1.26
1890.398 1.23 1.14 1.06 1.02 1.02 1.03 0.9985 1.01 1.05 1.05
1928.978 1.06 1.04 0.9781 0.937 0.8704 0.82 0.7807 0.7504 0.712 0.6142
1967.557 0.511 0.3857 0.2764 0.2353 0.212 0.206 0.2251 0.1909 0.1766 0.2164
2006.137 0.2264 0.2154 0.2425 0.289 0.3078 0.3284 0.3306 0.3061 0.3034 0.2983
2044.716 0.2678 0.2349 0.2359 0.2366 0.2466 0.2642 0.26 0.2702 0.2746 0.2693
2083.296 0.2785 0.2931 0.2896 0.2759 0.2702 0.2557 0.2249 0.2176 0.2324 0.2231
2121.875 0.1956 0.2003 0.2142 0.2242 0.2374 0.2612 0.2876 0.3151 0.304 0.2696
2160.455 0.2765 0.2683 0.2681 0.2945 0.309 0.3058 0.3051 0.3253 0.3441 0.3476
2199.035 0.3252 0.3308 0.3478 0.3632 0.4057 0.4004 0.3514 0.3107 0.3026 0.303
2237.614 0.3169 0.3274 0.3311 0.3362 0.3342 0.3285 0.3755 0.4422 0.4633 0.4919
2276.194 0.5355 0.5814 0.6056 0.6094 0.5761 0.5654 0.5984 0.6226 0.6478 0.6532
2314.773 0.6395 0.6679 0.6746 0.6407 0.624 0.6145 0.6192 0.6188 0.6165 0.6168
2353.353 0.7019 0.7601 0.7495 0.7696 0.7556 0.7149 0.6586 0.5904 0.5565 0.5251
2391.932 0.4514 0.4437 0.4712 0.451 0.4419 0.4746 0.4897 0.5012 0.5155 0.5048
2430.512 0.476 0.4697 0.5027 0.531 0.5603 0.6073 0.6351 0.6261 0.6011 0.5587
2469.092 0.5295 0.5237 0.5156 0.4974 0.5125 0.5138 0.5071 0.5329 0.538 0.546
2507.671 0.5894 0.6549 0.7104 0.7395 0.7358 0.7532 0.7588 0.7149 0.6506 0.5964
2546.251 0.5557 0.5651 0.5853 0.6043 0.6291 0.6146 0.6076 0.6183 0.6454 0.6537
2584.830 0.6576 0.6545 0.6404 0.6467 0.6356 0.5988 0.5882 0.6229 0.6979 0.7738
2623.410 0.8144 0.8238 0.8305 0.8583 0.8641 0.8103 0.7348 0.6934 0.7117 0.7247
2661.989 0.7254 0.7362 0.7352 0.7294 0.7145 0.6961 0.691 0.6991 0.71 0.7362
2700.569 0.7435 0.7342 0.7555 0.7438 0.7326 0.7219 0.7096 0.7216 0.7059 0.6837
2739.148 0.6835 0.7062 0.6837 0.6296 0.5991 0.6054 0.6032 0.5983 0.58 0.56
2777.728 0.5922 0.5997 0.5883 0.5952 0.608 0.6192 0.6463 0.6712 0.6618 0.6687
2816.308 0.6904 0.6856 0.6533 0.6432 0.724 0.81 0.8438 0.8024 0.7803 0.8125
2854.887 0.8132 0.7734 0.7925 0.8778 0.852 0.7747 0.7249 0.688 0.695 0.7358
2893.467 0.7604 0.8045 0.8413 0.8503 0.8089 0.803 0.8299 0.7928 0.7664 0.8015
2932.046 0.8078 0.7741 0.7555 0.7863 0.837 0.8689 0.8831 0.9484 1.01 0.9216
2970.626 0.8996 0.9352 0.9662 1.09 1.24 1.38 1.58 1.83 2.06 2.25
3009.205 2.43 2.67 2.94 3.3 3.8 4.26 4.73 5.15 5.46 5.63
3047.785 5.84 6.16 6.6 7.2 8.02 9.02 9.92 10.34 10.04 9.16
3086.364 7.85 6.2 4.64 3.61 2.94 2.31 1.86 1.63 1.43 1.28
3124.944 1.17 1.13 1.13 1.11 1.1 1.12 1.12 1.13 1.1 1.05
3163.524 1.03 0.9646 0.9695 1.01 0.9818 0.9161 0.8886 0.9118 0.9085 0.9359
3202.103 0.9042 0.9351 1.08 1.08 1.05 1.04 1.01 1.07 1.14 1.11
3240.683 1.15 1.18 1.14 1.14 1.14 1.13 1.16 1.22 1.28 1.3
3279.262 1.33 1.32 1.27 1.24 1.23 1.22 1.23 1.29 1.4 1.53
3317.842 1.61 1.64 1.68 1.71 1.6 1.46 1.31 1.15 1.06 1.06
3356.421 1.09 0.9982 0.9188 0.8741 0.8012 0.8108 0.8243 0.7962 0.7713 0.7544
3395.001 0.7096 0.6855 0.7355 0.6849 0.6408 0.7486 0.7692 0.734 0.6956 0.6923
3433.580 0.738 0.8158 0.9647 1.19 1.52 1.98 2.86 4.2 6 8.3
3472.160 10.9 13.41 15.17 15.58 14.55 12.49 9.89 6.93 4.31 2.56
3510.740 1.55 1.1 0.9606 0.9379 0.8652 0.7314 0.6614 0.6135 0.6604 0.7079
3549.319 0.6567 0.6194 0.5212 0.5231 0.6876 0.6219 0.3368 0.3067 0.3725 0.4277
3587.899 0.5075 0.4384 0.3446 0.3264 0.3695 0.4528 0.5395 0.6905 0.9097 1.09
3626.478 1.7 2.8 3.78 4.38 4.47 4.43 3.91 2.62 1.42 0.7393
3665.058 0.4059 0.4131 0.4997 0.3847 0.2296 0.1722 0.2235 0.2443 0.2127 0.2603
3703.637 0.2722 0.2826 0.3447 0.2646 0.2042 0.2576 0.3112 0.3498 0.4107 0.3252
3742.217 0.3874 0.4787 0.3669 0.2845 0.2067 0.2144 0.2585 0.2087 0.1121 0.1653
3780.797 0.2518 0.2222 0.2104 0.2513 0.2762 0.3294 0.3725 0.2717 0.229 0.2852
3819.376 0.3524 0.3668 0.2768 0.2087 0.296 0.3629 0.2784 0.2888 0.5202 0.6383
3857.956 0.4237 0.4812 0.6363 0.6326 0.5276 0.4361 0.533 0.5226 0.4417 0.4755
3896.535 0.5057 0.5533 0.4918 0.3091 0.2467 0.3061 0.3132 0.2615 0.2609 0.3941
3935.115 0.3987 0.2907 0.2705 0.2632 0.2872 0.2661 0.3053 0.2689 0.2194 0.3032
3973.694 0.332 0.3148 0.3028 0.3113 0.3118 0.2486 0.187 0.1853
##END=
