##TITLE=4-Chloroquinoline
##JCAMP-DX=4.24
##DATA TYPE=INFRARED SPECTRUM
##ORIGIN=NIST Mass Spectrometry Data Center
##OWNER=NIST Standard Reference Data Program
Collection (C) 2018 copyright by the U.S. Secretary of Commerce
on behalf of the United States of America. All rights reserved.
##CAS REGISTRY NO=611-35-8
##MOLFORM=C 9 H 6 Cl N
##$NIST SOURCE=MSDC-IR
##SPECTROMETER/DATA SYSTEM=HP-GC/MS/IRD
##STATE=gas
##XUNITS=1/CM
##YUNITS=ABSORBANCE
##XFACTOR=1.0
##YFACTOR=0.000005400
##DELTAX=4.0
##FIRSTX=550.0
##LASTX=3846.0
##FIRSTY=0.000729
##MAXX=3846
##MINX=550
##MAXY=0.054
##MINY=0
##NPOINTS=825
##XYDATA=(X++(Y..Y))
550.0 135 134 59 77 34 16 38 35 24 20
590.0 12 18 8 1 17 31 37 48 95 131
630.0 134 156 162 173 251 481 1114 2442 3781 4377
670.0 4443 3804 2292 957 395 192 109 66 41 15
710.0 30 50 81 130 206 343 643 1242 2382 4027
750.0 5477 7515 10000 8362 5365 4075 2541 1322 777 592
790.0 543 609 872 1385 2084 2913 3950 5017 5874 6350
830.0 7375 7342 4810 3221 2289 1274 779 581 664 753
870.0 548 386 314 195 113 80 61 41 26 19
910.0 20 34 55 74 80 94 104 107 133 188
950.0 262 431 778 1232 1862 2477 2726 2628 2161 1388
990.0 735 426 317 282 304 368 402 423 433 392
1030.0 310 223 216 315 502 735 937 1009 944 771
1070.0 534 326 221 175 156 152 130 94 68 59
1110.0 68 80 95 126 167 221 361 650 916 1045
1150.0 1063 888 524 242 157 173 225 296 385 536
1190.0 761 972 1119 1203 1177 1016 805 619 467 342
1230.0 256 216 222 249 300 323 303 306 297 265
1270.0 292 431 772 1319 1811 2025 1976 1624 1002 470
1310.0 219 152 167 231 340 470 602 731 868 1018
1350.0 1149 1284 1457 1698 2156 3009 3924 4345 4331 3899
1390.0 2848 1775 1282 1237 1440 1710 1864 1853 1625 1225
1430.0 852 638 542 510 520 517 510 526 569 636
1470.0 795 1196 2009 3362 5039 6422 7025 6820 5865 4210
1510.0 2537 1529 1030 809 739 771 981 1469 2318 3440
1550.0 4542 5295 5596 5432 4929 4550 4537 4621 4402 3908
1590.0 3268 2390 1615 1196 1063 1075 1100 1101 1023 858
1630.0 687 548 437 387 387 413 466 507 507 459
1670.0 373 262 164 120 120 137 168 215 266 310
1710.0 332 327 300 256 216 189 176 160 142 136
1750.0 141 141 132 116 93 80 83 92 104 118
1790.0 120 115 122 139 173 221 266 293 298 275
1830.0 248 237 237 232 211 178 128 78 52 44
1870.0 46 57 74 101 151 228 329 448 543 571
1910.0 530 458 367 287 255 259 259 250 243 246
1950.0 260 272 263 230 176 111 55 26 14 8
1990.0 2 1 10 9 8 14 23 29 30 38
2030.0 41 36 34 30 22 15 13 11 13 20
2070.0 22 18 16 16 13 12 17 21 25 35
2110.0 44 47 47 42 35 19 4 0 3 9
2150.0 11 9 7 6 7 8 11 14 15 19
2190.0 20 20 22 18 12 6 2 0 0 5
2230.0 9 12 22 24 22 25 34 44 54 69
2270.0 86 90 80 64 51 46 42 37 32 31
2310.0 29 26 22 25 30 34 40 54 61 64
2350.0 65 62 52 41 37 36 24 20 21 21
2390.0 25 24 26 34 34 33 41 44 53 61
2430.0 58 55 46 35 28 17 12 17 20 15
2470.0 17 25 26 28 33 38 42 38 43 46
2510.0 38 39 39 34 32 37 46 55 56 55
2550.0 54 55 50 44 43 41 40 42 36 36
2590.0 40 39 43 43 48 53 50 48 48 42
2630.0 39 39 41 43 35 26 21 15 13 13
2670.0 14 12 8 0 2 11 16 17 12 7
2710.0 4 7 10 11 14 19 16 21 30 35
2750.0 39 42 40 35 31 27 25 18 23 23
2790.0 21 27 25 18 17 20 18 18 16 15
2830.0 23 25 28 37 42 48 59 73 82 84
2870.0 82 83 74 58 47 45 51 65 64 65
2910.0 72 78 92 101 112 127 141 158 169 181
2950.0 198 210 206 203 224 232 236 262 296 339
2990.0 385 431 480 534 623 760 987 1285 1573 1803
3030.0 1949 1974 1835 1620 1472 1384 1345 1432 1714 2202
3070.0 2791 3285 3505 3398 2981 2325 1667 1169 797 516
3110.0 348 260 213 181 154 138 127 125 128 117
3150.0 111 110 104 96 86 78 77 73 62 50
3190.0 43 50 55 50 40 26 23 22 24 33
3230.0 30 23 21 14 6 12 20 18 21 20
3270.0 20 30 26 16 9 13 16 10 5 7
3310.0 8 11 17 13 13 17 14 11 14 11
3350.0 10 14 16 17 18 22 30 23 10 7
3390.0 9 12 12 14 17 19 24 23 28 25
3430.0 20 28 25 17 24 27 18 4 5 25
3470.0 26 25 31 30 32 33 35 32 32 35
3510.0 33 24 7 13 32 34 24 22 30 41
3550.0 44 42 38 44 53 45 37 46 45 39
3590.0 39 36 37 44 54 45 39 45 45 48
3630.0 42 37 35 46 50 27 30 37 24 33
3670.0 46 35 21 21 29 34 35 41 38 28
3710.0 29 35 30 31 37 37 43 55 55 50
3750.0 49 46 50 52 43 38 40 42 37 30
3790.0 30 38 50 57 58 54 48 54 54 46
3830.0 41 43 55 63 65
##END=
