##TITLE=DL-Mandelic acid
##JCAMP-DX=4.24
##DATA TYPE=INFRARED SPECTRUM
##ORIGIN=EPA-IR VAPOR PHASE LIBRARY
##OWNER=SRD/NIST
Collection (C) 2018 copyright by the U.S. Secretary of Commerce
on behalf of the United States of America. All rights reserved.
##CAS REGISTRY NO=611-72-3
##MOLFORM=C 8 H 8 O 3
##$NIST SOURCE=MSDC-IR
##STATE=gas
##XUNITS=1/CM
##YUNITS=ABSORBANCE
##XFACTOR=1.
##YFACTOR=0.001
##DELTAX=1.92898
##FIRSTX=549.8
##LASTX=4000.7
##FIRSTY=16.82
##MAXX=4000.7
##MINX=549.759
##MAXY=0.0937
##MINY=0.00007483
##NPOINTS=1790
##XYDATA=(X++(Y..Y))
549.759 16.82 17.8 18.7 19.14 19.29 19.24 18.81 18.24 17.71 16.98
569.049 16.19 15.26 14.48 14 13.69 13.59 13.57 13.77 14.31 15.33
588.339 16.72 18.3 20.31 22.82 25.8 29.25 32.77 35.8 38.28 39.96
607.628 40.84 40.69 39.55 37.44 34.21 30.37 26.38 23.03 20.33 18.2
626.918 16.58 15.3 14.44 13.91 13.81 13.73 13.84 14.12 14.35 14.59
646.208 14.82 14.89 14.73 14.51 14.25 13.81 13.33 13.03 12.57 12.11
665.498 12.2 12.85 12.75 12.24 12.45 13 13.63 14.65 15.83 17.2
684.787 18.73 20.51 22.52 24.27 25.88 27.15 27.8 27.9 27.71 27.33
704.077 26.87 26.32 25.54 24.64 23.88 23.36 22.86 22.32 21.54 20.71
723.367 19.82 18.72 17.67 16.58 15.55 14.49 13.55 12.8 12.23 12.11
742.657 12.03 11.88 12 12.16 12.1 11.93 11.66 11.24 10.75 10.06
761.947 9.32 8.77 8.16 7.44 6.75 6.19 5.66 5.14 4.71 4.41
781.236 4.04 3.64 3.33 3.1 3.22 3.2 3 2.83 2.53 2.5
800.526 2.64 2.63 2.63 2.59 2.42 2.36 2.32 2.31 2.24 2.27
819.816 2.3 2.37 2.48 2.56 2.57 2.52 2.68 2.79 2.87 2.98
839.106 3.11 3.11 3.14 3.27 3.45 3.56 3.61 3.78 3.94 4.08
858.395 4.16 4.29 4.31 4.27 4.43 4.76 5.04 5.16 5.32 5.6
877.685 5.83 6 6.21 6.41 6.6 6.71 6.68 6.5 6.37 6.36
896.975 6.09 5.78 5.62 5.42 5.28 5.18 5.17 5.31 5.43 5.45
916.265 5.48 5.56 5.49 5.43 5.16 4.73 4.55 4.22 3.9 3.63
935.555 3.27 2.93 2.73 2.61 2.47 2.41 2.37 2.42 2.44 2.41
954.844 2.35 2.28 2.25 2.22 2.21 2.32 2.48 2.47 2.51 2.58
974.134 2.46 2.57 2.79 2.79 2.89 3 3.08 3.29 3.44 3.51
993.424 3.74 4.04 4.25 4.53 4.95 5.5 5.92 6.29 6.69 7.09
1012.714 7.67 8.38 9.14 10.11 11.19 12.16 12.88 13.36 13.97 14.48
1032.003 14.77 15.42 16.12 16.58 17.2 18.01 19.03 20.58 22.39 24.27
1051.293 26.05 27.8 29.75 31.51 33 34.43 35.68 36.84 37.7 38.26
1070.583 38.71 38.93 39.05 39.29 39.65 40.29 40.77 40.67 40.52 40.44
1089.873 40.35 40.4 40.16 39.7 39.42 39.03 38.74 38.53 38.38 38.74
1109.163 39.27 39.78 41.09 42.73 44.07 45.74 47.87 50.04 51.94 54.05
1128.452 56.07 57.68 58.91 59.23 59.05 58.14 56.53 54.31 51.34 47.89
1147.742 44.48 41.09 37.54 34.5 31.81 29.25 27 25.13 23.66 22.25
1167.032 20.85 19.74 19.15 18.9 18.69 18.64 18.66 18.45 18.52 18.6
1186.322 18.31 18.17 17.79 17.24 16.53 15.64 14.84 14.04 13.28 12.32
1205.611 11.52 11.09 10.79 10.57 10.3 10.36 10.44 10.06 9.84 10.13
1224.901 10.26 10.52 10.83 11.09 11.45 11.84 12.12 12.36 12.58 12.71
1244.191 12.8 12.77 12.82 13.05 13.09 13.21 13.66 13.87 14.06 14.33
1263.481 14.79 15.27 15.56 15.95 16.17 16.42 16.69 16.83 16.95 17
1282.771 17.1 17.19 17.21 17.36 17.52 17.62 17.84 18.11 18.46 18.94
1302.060 19.39 19.92 20.51 21.08 21.77 22.55 23.25 23.86 24.56 25.22
1321.350 25.75 26.19 26.57 26.96 27.23 27.3 27.27 27.16 26.91 26.5
1340.640 25.98 25.38 24.68 23.91 23.11 22.26 21.39 20.52 19.62 18.76
1359.930 17.97 17.18 16.4 15.57 14.8 14.09 13.36 12.72 12.08 11.49
1379.219 10.91 10.32 9.78 9.32 8.9 8.49 8.09 7.76 7.41 7.03
1398.509 6.77 6.45 6.11 5.84 5.59 5.31 5.03 4.8 4.59 4.39
1417.799 4.23 4.09 3.92 3.83 3.8 3.74 3.75 3.85 4 4.25
1437.089 4.55 4.77 5.09 5.43 5.74 6.1 6.39 6.59 6.72 6.76
1456.378 6.75 6.54 6.17 5.73 5.28 4.78 4.3 3.98 3.73 3.45
1475.668 3.26 3.2 3.29 3.5 3.92 4.58 5.34 6.11 6.69 6.94
1494.958 7.09 7.09 6.77 6.36 5.87 5.12 4.13 3.23 2.54 2.06
1514.248 1.8 1.65 1.54 1.53 1.49 1.39 1.35 1.38 1.37 1.34
1533.538 1.36 1.32 1.27 1.32 1.34 1.24 1.18 1.16 1.16 1.16
1552.827 1.14 1.06 1.04 1.16 1.13 1.05 1.08 1.07 1.11 1.17
1572.117 1.15 1.27 1.44 1.38 1.41 1.58 1.7 1.79 1.86 2
1591.407 2.16 2.28 2.44 2.52 2.56 2.57 2.53 2.43 2.29 2.1
1610.697 1.9 1.7 1.51 1.37 1.26 1.18 1.12 1.06 1 0.9296
1629.986 0.9133 0.9452 0.9455 0.9838 0.962 0.9288 0.9713 0.9976 0.9886 0.9719
1649.276 1.07 1.28 1.37 1.27 1.24 1.28 1.34 1.42 1.46 1.47
1668.566 1.56 1.65 1.67 1.76 1.82 1.86 1.89 1.87 1.98 2.07
1687.856 2.14 2.27 2.43 2.62 2.85 3.01 3.3 3.68 3.89 4.3
1707.146 4.8 5.27 5.78 6.28 6.86 7.43 7.89 8.28 8.74 9.19
1726.435 9.65 10.18 10.74 11.35 11.99 12.53 13.27 14.29 15.54 17.22
1745.725 19.25 21.81 24.95 28.75 33.26 38.48 44.62 51.23 58.4 65.79
1765.015 72.85 79.43 85.24 89.61 92.49 93.7 93.09 90.76 86.99 82.27
1784.305 77.02 71.61 66.43 61.63 57.14 52.89 49.02 45.49 42.31 39.34
1803.594 36.63 34 31.44 29.03 26.81 24.72 22.75 20.86 18.99 17.08
1822.884 15.3 13.59 12.01 10.61 9.32 8.22 7.31 6.49 5.78 5.22
1842.174 4.75 4.38 4.02 3.69 3.41 3.17 2.97 2.8 2.62 2.49
1861.464 2.39 2.29 2.25 2.18 2.1 2.02 1.92 1.86 1.81 1.72
1880.754 1.67 1.69 1.69 1.66 1.67 1.66 1.6 1.57 1.52 1.46
1900.043 1.41 1.34 1.27 1.17 1.07 0.941 0.8498 0.8785 0.8568 0.7832
1919.333 0.7734 0.8131 0.8383 0.8609 0.9009 0.9344 1 1.06 1.16 1.31
1938.623 1.36 1.36 1.42 1.47 1.47 1.48 1.53 1.55 1.53 1.53
1957.913 1.46 1.35 1.27 1.17 1.05 0.9455 0.8944 0.82 0.7077 0.6401
1977.202 0.586 0.504 0.5005 0.5445 0.5108 0.4599 0.49 0.5167 0.4774 0.4342
1996.492 0.4786 0.4883 0.4594 0.4686 0.4149 0.4127 0.4284 0.396 0.3905 0.3623
2015.782 0.3858 0.4101 0.4129 0.4064 0.392 0.3747 0.3382 0.3655 0.3936 0.3403
2035.072 0.3223 0.3464 0.3657 0.3516 0.2836 0.2504 0.2666 0.2821 0.2638 0.2898
2054.362 0.3301 0.2965 0.2999 0.2775 0.2636 0.3248 0.2772 0.2274 0.255 0.259
2073.651 0.2594 0.2986 0.3442 0.3363 0.2736 0.2549 0.3237 0.3438 0.2856 0.2086
2092.941 0.2003 0.2285 0.2177 0.1881 0.2111 0.2204 0.2062 0.2824 0.2992 0.2421
2112.231 0.2466 0.2694 0.2444 0.2243 0.2389 0.2458 0.2538 0.2536 0.2321 0.2594
2131.521 0.2776 0.2459 0.2613 0.2645 0.2911 0.3218 0.2981 0.2986 0.2827 0.2861
2150.810 0.3087 0.2735 0.2448 0.2598 0.2425 0.2197 0.2147 0.2123 0.2304 0.2177
2170.100 0.2481 0.273 0.2384 0.2324 0.2269 0.215 0.1944 0.2163 0.2483 0.23
2189.390 0.2449 0.2617 0.2644 0.2521 0.2426 0.2781 0.2998 0.2728 0.2939 0.337
2208.680 0.3308 0.3945 0.4217 0.3943 0.4239 0.4331 0.4322 0.396 0.3967 0.4525
2227.970 0.4516 0.4196 0.4267 0.4477 0.4785 0.4842 0.4581 0.4756 0.4909 0.4897
2247.259 0.4719 0.4775 0.4856 0.4687 0.4275 0.4687 0.5342 0.481 0.4356 0.4469
2266.549 0.4781 0.5242 0.5453 0.5374 0.5234 0.5648 0.5624 0.5152 0.5334 0.5629
2285.839 0.5858 0.6369 0.6677 0.6873 0.7665 0.8229 0.8333 0.8817 0.9949 1.05
2305.129 1.17 1.3 1.35 1.45 1.52 1.59 1.67 1.73 1.77 1.75
2324.418 1.75 1.73 1.77 1.82 1.79 1.75 1.73 1.71 1.68 1.7
2343.708 1.61 1.45 1.36 1.38 1.5 1.74 1.99 2.08 2.15 2.28
2362.998 2.37 2.36 2.27 2.13 2.03 1.88 1.72 1.54 1.33 1.11
2382.288 0.8919 0.735 0.5751 0.4504 0.3924 0.3882 0.3731 0.3454 0.3477 0.3937
2401.578 0.3948 0.3398 0.3209 0.3366 0.3689 0.3586 0.3703 0.4249 0.3993 0.3819
2420.867 0.3657 0.3737 0.4785 0.4919 0.4642 0.5027 0.4835 0.4625 0.4617 0.416
2440.157 0.4263 0.4649 0.4714 0.4277 0.4573 0.5133 0.4806 0.4088 0.3687 0.4235
2459.447 0.4394 0.4172 0.4582 0.5029 0.4845 0.4519 0.4326 0.4143 0.3804 0.3735
2478.737 0.3971 0.3937 0.357 0.3717 0.4069 0.4139 0.3928 0.3083 0.3054 0.3595
2498.026 0.3369 0.336 0.3286 0.2611 0.2769 0.3171 0.302 0.2988 0.2637 0.216
2517.316 0.2228 0.2814 0.2964 0.2144 0.1652 0.1851 0.2266 0.2476 0.2639 0.2738
2536.606 0.2482 0.2461 0.264 0.2685 0.2988 0.2831 0.2852 0.2762 0.2014 0.2183
2555.896 0.1714 0.09976 0.1646 0.1939 0.1984 0.2249 0.2253 0.2169 0.2372 0.2246
2575.186 0.2159 0.2228 0.1691 0.2014 0.2554 0.2421 0.247 0.2607 0.2927 0.3127
2594.475 0.2995 0.3123 0.312 0.2243 0.1974 0.2552 0.2627 0.2826 0.2701 0.2768
2613.765 0.3114 0.2311 0.1953 0.3017 0.3024 0.248 0.266 0.2787 0.2679 0.2475
2633.055 0.2557 0.2808 0.2502 0.2402 0.2483 0.1877 0.2154 0.2199 0.2086 0.254
2652.345 0.2565 0.3144 0.2664 0.1866 0.2321 0.2654 0.2797 0.2566 0.2392 0.2628
2671.634 0.2739 0.2337 0.218 0.2547 0.2701 0.2469 0.25 0.2782 0.2638 0.2215
2690.924 0.245 0.2508 0.2202 0.2235 0.2018 0.1443 0.1438 0.22 0.1681 0.1427
2710.214 0.2311 0.2724 0.2069 0.1764 0.2074 0.206 0.2438 0.2749 0.2513 0.2538
2729.504 0.269 0.2762 0.2932 0.2425 0.2042 0.2154 0.1921 0.1885 0.1671 0.1184
2748.794 0.1816 0.1999 0.1609 0.166 0.1807 0.228 0.2186 0.2139 0.2648 0.3086
2768.083 0.289 0.2187 0.2532 0.3047 0.3174 0.35 0.3963 0.3936 0.4024 0.4684
2787.373 0.4652 0.4316 0.4732 0.5582 0.6114 0.5834 0.5009 0.4645 0.5068 0.4476
2806.663 0.3988 0.4415 0.4254 0.3998 0.4696 0.6084 0.6303 0.6043 0.5907 0.5923
2825.953 0.587 0.6186 0.5711 0.5481 0.6957 0.8108 0.878 0.8984 0.9182 0.9341
2845.242 1.01 1.14 1.28 1.37 1.3 1.36 1.45 1.47 1.51 1.56
2864.532 1.58 1.56 1.56 1.57 1.61 1.63 1.62 1.64 1.66 1.65
2883.822 1.65 1.74 1.85 1.91 2.07 2.25 2.37 2.54 2.71 2.87
2903.112 3.07 3.29 3.56 3.79 3.86 3.95 3.95 3.88 3.8 3.68
2922.401 3.6 3.52 3.41 3.27 3.02 2.8 2.61 2.34 2.17 2.13
2941.691 2.05 1.87 1.75 1.82 1.81 1.65 1.54 1.53 1.48 1.49
2960.981 1.56 1.45 1.33 1.32 1.21 1.11 1.05 1.04 0.9556 0.8888
2980.271 0.9097 0.8701 0.8029 0.8419 0.9406 0.9138 0.8415 0.9236 1.06 1.04
2999.561 1.03 1.14 1.26 1.38 1.6 1.8 1.92 2.15 2.43 2.83
3018.850 3.4 3.86 4.4 5.13 5.76 6.5 7.36 8.14 8.85 9.45
3038.140 9.78 9.97 10.01 9.87 9.62 9.26 8.82 8.35 8 7.88
3057.430 7.98 8.26 8.87 9.82 10.84 11.75 12.49 13.1 13.45 13.49
3076.720 13.29 12.87 12.26 11.42 10.35 9.32 8.44 7.74 7.18 6.81
3096.009 6.48 6.09 5.82 5.54 5.03 4.5 4.1 3.74 3.45 3.05
3115.299 2.64 2.3 2.06 1.82 1.55 1.32 1.15 1 0.799 0.6802
3134.589 0.5693 0.5998 0.6113 0.4978 0.3515 0.4067 0.5243 0.4501 0.4366 0.4439
3153.879 0.4179 0.4348 0.4866 0.4504 0.4303 0.4631 0.4646 0.463 0.4895 0.4542
3173.169 0.443 0.4601 0.4351 0.4228 0.4138 0.3905 0.274 0.1244 0.1428 0.2568
3192.458 0.2099 0.1756 0.2116 0.2431 0.2658 0.2383 0.253 0.356 0.3046 0.156
3211.748 0.1275 0.1734 0.1708 0.1464 0.1125 0.1714 0.2882 0.1983 0.1266 0.1979
3231.038 0.3181 0.3367 0.2917 0.2296 0.1792 0.2491 0.2465 0.2393 0.322 0.3212
3250.328 0.3161 0.2902 0.3093 0.3678 0.368 0.3259 0.2848 0.3608 0.3299 0.2735
3269.617 0.2876 0.2947 0.3233 0.333 0.3058 0.2779 0.3355 0.3795 0.3801 0.3821
3288.907 0.3437 0.3525 0.303 0.2442 0.2907 0.3338 0.2656 0.1624 0.2093 0.291
3308.197 0.2985 0.2437 0.3164 0.375 0.3484 0.3948 0.3904 0.3955 0.4106 0.3204
3327.487 0.3513 0.3984 0.3493 0.2859 0.3294 0.4177 0.3491 0.3003 0.2711 0.3665
3346.777 0.4165 0.3805 0.4683 0.4442 0.4073 0.3904 0.4048 0.4423 0.492 0.467
3366.066 0.407 0.4077 0.3259 0.3853 0.4267 0.4263 0.3689 0.2685 0.3904 0.4477
3385.356 0.3969 0.4559 0.5433 0.5298 0.4564 0.4372 0.4068 0.4325 0.3894 0.2963
3404.646 0.4644 0.4953 0.42 0.4941 0.4999 0.551 0.7015 0.5923 0.4027 0.3967
3423.936 0.5106 0.6049 0.5769 0.6321 0.6162 0.4871 0.4591 0.5279 0.6494 0.782
3443.225 0.7319 0.6578 0.8049 0.9448 0.9179 0.9662 1.17 1.23 1.25 1.42
3462.515 1.53 1.57 1.66 1.89 2.08 2.22 2.4 2.57 2.75 2.89
3481.805 3.19 3.39 3.57 3.86 4.01 4.11 4.3 4.46 4.53 4.71
3501.095 4.91 4.96 4.94 4.91 4.91 4.93 4.92 4.85 4.74 4.76
3520.385 4.8 4.8 4.88 4.91 4.94 5.08 5.15 5.16 5.23 5.38
3539.674 5.63 6.02 6.45 6.95 7.82 9 10.51 12.52 15.04 18.31
3558.964 22.41 27.29 32.83 38.46 43.65 47.95 51.11 53.17 53.86 52.99
3578.254 50.53 46.56 41.43 35.64 29.87 24.68 20.36 16.82 14.06 11.89
3597.544 10.01 8.61 7.62 6.69 5.99 5.54 5.12 4.8 4.54 4.29
3616.833 4.11 4.05 3.98 3.92 4.04 4.17 4.26 4.45 4.71 4.98
3636.123 5.2 5.37 5.51 5.6 5.55 5.55 5.49 5.24 4.98 4.61
3655.413 4.26 3.92 3.41 2.97 2.63 2.34 2.19 2.12 2.04 1.73
3674.703 1.65 1.61 1.32 1.25 1.17 1.14 1.18 1.03 0.9766 0.9345
3693.993 0.8481 0.8215 0.7505 0.7594 0.7335 0.5801 0.5529 0.6004 0.6107 0.6223
3713.282 0.5807 0.5904 0.5795 0.5243 0.5399 0.5755 0.5353 0.4132 0.3808 0.412
3732.572 0.5427 0.6475 0.5343 0.5024 0.5977 0.6136 0.6199 0.5294 0.4457 0.357
3751.862 0.2701 0.3723 0.4973 0.5029 0.4318 0.4029 0.4145 0.3369 0.2968 0.4093
3771.152 0.4264 0.3301 0.3858 0.5134 0.4971 0.5516 0.5376 0.448 0.4945 0.4829
3790.441 0.3862 0.4871 0.5785 0.5268 0.5486 0.6341 0.6535 0.6091 0.6327 0.6549
3809.731 0.5803 0.5742 0.6889 0.6695 0.5645 0.6261 0.6353 0.5659 0.5409 0.4827
3829.021 0.3469 0.4305 0.5992 0.5211 0.5307 0.6677 0.7404 0.671 0.6077 0.5237
3848.311 0.4605 0.524 0.6286 0.5994 0.5004 0.539 0.5638 0.5503 0.5447 0.5209
3867.601 0.6122 0.7185 0.7026 0.5698 0.4522 0.4125 0.5043 0.5708 0.5405 0.4961
3886.890 0.4389 0.4308 0.474 0.4428 0.3662 0.5088 0.6045 0.5571 0.5651 0.5442
3906.180 0.4498 0.4349 0.4227 0.3241 0.271 0.3586 0.3578 0.2628 0.2897 0.3173
3925.470 0.3672 0.4045 0.352 0.3272 0.3101 0.2646 0.2196 0.2539 0.346 0.2483
3944.760 0.1462 0.2771 0.2628 0.2336 0.3234 0.2958 0.2604 0.2399 0.2804 0.1892
3964.049 0.07483 0.08007 0.1713 0.24 0.2014 0.1987 0.2429 0.2532 0.2447 0.2461
3983.339 0.2304 0.1539 0.1137 0.2014 0.2736 0.3335 0.3161 0.3309 0.3428 0.2199
##END=
