##TITLE=1,4-Dihydronaphthalene
##JCAMP-DX=4.24
##DATA TYPE=INFRARED SPECTRUM
##ORIGIN=NIST Mass Spectrometry Data Center
##OWNER=NIST Standard Reference Data Program
Collection (C) 2018 copyright by the U.S. Secretary of Commerce
on behalf of the United States of America. All rights reserved.
##CAS REGISTRY NO=612-17-9
##MOLFORM=C 10 H 10
##$NIST SOURCE=MSDC-IR
##SPECTROMETER/DATA SYSTEM=HP-GC/MS/IRD
##STATE=gas
##XUNITS=1/CM
##YUNITS=ABSORBANCE
##XFACTOR=1.0
##YFACTOR=0.000002200
##DELTAX=4.0
##FIRSTX=550.0
##LASTX=3846.0
##FIRSTY=0.000143
##MAXX=3846
##MINX=550
##MAXY=0.022
##MINY=0
##NPOINTS=825
##XYDATA=(X++(Y..Y))
550.0 65 111 129 152 248 269 236 275 302 263
590.0 242 227 156 130 148 219 317 380 464 623
630.0 743 678 634 723 846 988 1255 1690 1871 1786
670.0 1582 1351 1209 1077 1000 971 889 807 770 837
710.0 1000 1314 2003 3022 4183 5408 6976 9320 10000 7859
750.0 6150 5162 3910 2712 1859 1368 1132 1201 1097 755
790.0 581 472 375 286 241 220 220 221 201 196
830.0 197 167 152 152 152 148 140 129 135 132
870.0 119 113 117 153 206 230 221 248 320 372
910.0 439 566 645 589 485 378 307 263 216 183
950.0 186 214 208 195 210 231 269 340 450 595
990.0 666 663 741 775 684 561 462 422 403 419
1030.0 499 577 579 530 464 398 266 167 153 142
1070.0 124 111 115 117 113 123 135 142 142 155
1110.0 195 227 243 251 247 248 245 233 224 216
1150.0 223 229 243 268 301 367 446 487 514 531
1190.0 495 420 339 264 214 200 215 262 302 325
1230.0 325 320 304 277 249 222 198 191 193 187
1270.0 187 186 181 187 200 198 169 137 108 102
1310.0 104 97 107 120 130 143 166 205 224 220
1350.0 216 185 164 166 163 175 196 212 226 253
1390.0 255 248 250 253 262 286 350 478 621 728
1430.0 766 852 1022 1129 1263 1371 1380 1363 1392 1280
1470.0 1097 1024 1014 1215 1651 2059 2223 2167 1945 1539
1510.0 892 410 248 195 134 107 114 160 174 125
1550.0 108 162 278 330 405 542 686 769 772 760
1590.0 699 599 489 397 345 318 311 300 276 268
1630.0 287 349 370 410 496 588 648 638 638 621
1670.0 553 446 324 256 219 150 159 174 139 86
1710.0 59 64 52 16 0 17 38 19 11 23
1750.0 36 34 44 48 46 69 64 69 92 94
1790.0 137 180 204 235 252 270 264 244 228 219
1830.0 190 147 120 124 125 103 98 110 131 160
1870.0 185 203 219 230 226 216 209 184 180 191
1910.0 195 204 229 253 275 306 317 300 270 221
1950.0 176 126 84 66 57 62 63 53 59 52
1990.0 51 62 54 61 61 51 60 67 62 67
2030.0 63 70 79 78 87 101 102 101 97 99
2070.0 113 100 91 108 119 129 122 112 114 123
2110.0 127 128 133 124 129 142 139 132 129 125
2150.0 134 147 141 134 140 144 132 118 120 114
2190.0 115 120 113 117 125 127 125 128 136 139
2230.0 139 136 139 144 143 134 132 141 149 151
2270.0 147 151 152 154 157 150 154 160 160 160
2310.0 166 169 160 165 164 171 181 180 182 182
2350.0 175 174 177 172 156 151 143 143 153 149
2390.0 150 154 149 155 166 171 164 165 180 186
2430.0 180 176 166 166 163 160 169 164 163 162
2470.0 159 156 159 160 160 168 182 190 183 177
2510.0 183 192 190 171 166 176 173 176 180 171
2550.0 175 182 179 179 188 190 195 191 196 212
2590.0 199 197 203 207 227 229 228 232 216 202
2630.0 205 203 196 187 189 199 208 221 238 241
2670.0 234 223 231 242 227 209 204 209 210 219
2710.0 223 224 236 239 238 250 260 271 280 302
2750.0 333 344 362 406 451 481 514 544 569 590
2790.0 611 632 660 716 821 999 1272 1660 2126 2510
2830.0 2701 2845 2947 2827 2594 2359 2133 1963 1877 1910
2870.0 2055 2311 2684 3207 3835 4255 4245 4130 3972 3448
2910.0 2747 2188 1842 1621 1485 1439 1431 1409 1386 1362
2950.0 1324 1275 1216 1139 1078 1039 1046 1090 1133 1171
2990.0 1221 1333 1435 1559 1815 2184 2674 3186 3704 4505
3030.0 5749 6920 7518 7653 7436 6779 5703 4711 4156 3897
3070.0 3821 3732 3442 2981 2429 1932 1504 1161 922 755
3110.0 649 579 506 425 366 336 329 305 291 277
3150.0 241 241 252 239 247 244 233 219 195 195
3190.0 207 203 176 177 188 184 204 220 221 207
3230.0 194 195 200 200 195 200 217 210 197 206
3270.0 214 215 209 189 185 189 189 196 184 187
3310.0 201 190 187 190 179 179 166 185 171 152
3350.0 163 149 145 150 153 157 159 151 149 163
3390.0 146 140 157 164 159 151 163 151 131 156
3430.0 157 147 133 149 179 163 148 154 148 132
3470.0 131 138 127 114 109 99 123 149 152 152
3510.0 163 176 181 176 158 140 129 139 154 148
3550.0 163 176 156 171 192 181 166 163 167 180
3590.0 181 171 154 155 160 159 165 180 167 171
3630.0 173 140 136 129 156 204 163 117 114 136
3670.0 167 188 174 135 152 174 140 148 172 165
3710.0 191 195 173 160 154 166 194 197 226 253
3750.0 275 243 205 224 221 213 200 212 229 232
3790.0 231 238 235 256 272 251 269 284 287 281
3830.0 243 241 257 255 250
##END=
