##TITLE=1,3,5-Triphenylbenzene
##JCAMP-DX=4.24
##DATA TYPE=INFRARED SPECTRUM
##ORIGIN=NIST Mass Spectrometry Data Center
##OWNER=NIST Standard Reference Data Program
Collection (C) 2018 copyright by the U.S. Secretary of Commerce
on behalf of the United States of America. All rights reserved.
##CAS REGISTRY NO=612-71-5
##MOLFORM=C 24 H 18
##$NIST SOURCE=MSDC-IR
##SPECTROMETER/DATA SYSTEM=HP-GC/MS/IRD
##STATE=gas
##XUNITS=1/CM
##YUNITS=ABSORBANCE
##XFACTOR=1.0
##YFACTOR=0.000001400
##DELTAX=4.0
##FIRSTX=550.0
##LASTX=3846.0
##FIRSTY=0.000073
##MAXX=3846
##MINX=550
##MAXY=0.014
##MINY=0
##NPOINTS=825
##XYDATA=(X++(Y..Y))
550.0 52 68 61 113 195 314 335 259 188 152
590.0 188 218 230 409 976 2354 3740 3463 2212 1583
630.0 1335 960 620 483 463 490 588 758 956 1186
670.0 1422 1563 1640 1882 2698 4885 8260 9484 7468 5060
710.0 3742 3114 2602 2155 1920 1932 2155 2511 3195 5008
750.0 8054 10000 9019 6065 3255 1831 1319 1081 901 737
790.0 641 576 534 530 493 462 488 609 706 602
830.0 371 244 197 180 206 218 249 315 417 574
870.0 845 1437 2184 2156 1291 608 377 308 254 253
910.0 282 250 187 133 101 95 91 94 76 72
950.0 93 112 159 209 199 169 163 189 250 290
990.0 294 285 269 257 252 295 355 475 890 1602
1030.0 1906 1371 687 393 299 280 296 361 530 780
1070.0 963 906 658 462 410 376 310 243 201 185
1110.0 168 119 70 58 30 22 13 4 0 0
1150.0 25 21 5 25 63 109 250 445 505 365
1190.0 192 98 57 47 81 97 94 121 134 162
1230.0 239 341 478 617 619 474 333 244 192 175
1270.0 164 146 123 117 124 137 158 188 235 257
1310.0 248 229 229 259 279 250 210 182 156 143
1350.0 148 165 187 211 243 293 348 375 367 372
1390.0 425 542 792 1267 2080 2957 3117 2297 1295 775
1430.0 607 562 580 672 842 1067 1267 1278 1086 925
1470.0 896 941 1032 1214 1605 2588 4321 5533 4631 2529
1510.0 1189 788 655 618 614 613 599 580 557 547
1550.0 572 650 816 1079 1508 2235 3160 4003 4883 6545
1590.0 8495 8546 6166 3504 1968 1236 897 722 583 470
1630.0 375 328 305 292 293 294 281 287 321 341
1670.0 355 343 295 234 172 143 132 125 129 133
1710.0 142 154 180 208 227 252 285 318 341 353
1750.0 350 326 325 379 466 546 579 571 594 693
1790.0 809 832 737 605 496 422 362 300 263 236
1830.0 201 172 162 164 167 179 202 224 242 298
1870.0 387 454 463 449 444 429 359 248 174 144
1910.0 144 148 164 191 223 307 455 586 589 514
1950.0 511 559 517 350 188 123 100 89 78 72
1990.0 72 70 58 47 46 41 37 38 43 37
2030.0 34 36 26 25 30 28 30 30 24 27
2070.0 32 20 9 19 25 25 21 14 23 22
2110.0 8 10 21 25 22 18 17 21 19 23
2150.0 36 42 35 19 19 36 48 45 41 37
2190.0 33 35 36 37 34 28 34 37 34 28
2230.0 28 29 27 27 31 42 45 42 28 22
2270.0 31 34 34 33 34 38 42 38 38 59
2310.0 106 139 126 85 59 61 81 85 74 60
2350.0 51 56 61 54 56 59 59 53 43 41
2390.0 44 47 46 40 34 33 36 42 54 63
2430.0 58 41 33 33 32 31 25 27 25 18
2470.0 15 21 34 32 31 33 32 32 30 25
2510.0 13 14 23 36 49 41 17 7 17 17
2550.0 27 35 28 23 25 33 35 33 49 67
2590.0 70 69 75 81 84 79 73 75 70 64
2630.0 60 63 58 50 39 34 41 33 24 22
2670.0 21 22 24 14 19 31 37 35 30 34
2710.0 27 22 17 13 11 20 27 14 0 15
2750.0 30 17 25 26 13 14 27 40 47 51
2790.0 44 42 54 57 56 54 56 60 55 61
2830.0 81 87 91 97 91 93 89 93 110 125
2870.0 112 93 91 102 116 104 112 135 142 144
2910.0 140 140 145 137 134 148 163 174 184 176
2950.0 153 145 155 156 167 183 187 211 258 321
2990.0 382 425 500 618 763 910 1107 1379 1804 2500
3030.0 3538 4711 5376 5077 4270 3820 4066 4866 6180 7715
3070.0 8145 6797 5176 4446 4077 3467 2722 2155 1816 1605
3110.0 1393 1143 899 652 457 339 264 246 248 242
3150.0 228 202 181 138 102 85 83 91 81 65
3190.0 32 20 43 56 57 55 62 56 49 53
3230.0 26 12 14 11 22 18 6 23 10 4
3270.0 21 29 25 16 24 20 8 18 29 22
3310.0 33 46 46 43 50 55 53 28 2 3
3350.0 20 23 17 41 49 31 25 22 19 20
3390.0 31 55 55 35 36 36 33 32 50 46
3430.0 33 38 33 29 20 25 23 22 30 19
3470.0 12 27 26 1 18 38 27 12 33 49
3510.0 21 25 35 34 31 22 15 18 19 17
3550.0 27 43 34 29 34 23 17 8 2 32
3590.0 41 23 19 23 37 51 48 38 50 69
3630.0 68 66 56 43 57 76 63 59 81 73
3670.0 83 95 77 70 67 69 83 70 46 40
3710.0 44 53 60 48 34 15 27 56 58 64
3750.0 58 47 41 56 50 20 36 56 43 24
3790.0 23 31 48 59 42 31 27 14 8 11
3830.0 23 24 17 28 27
##END=
