##TITLE=o-Nitrobenzylchloride
##JCAMP-DX=4.24
##DATA TYPE=INFRARED SPECTRUM
##ORIGIN=NIST Mass Spectrometry Data Center
##OWNER=NIST Standard Reference Data Program
Collection (C) 2018 copyright by the U.S. Secretary of Commerce
on behalf of the United States of America. All rights reserved.
##CAS REGISTRY NO=612-23-7
##MOLFORM=C 7 H 6 Cl N O 2
##$NIST SOURCE=MSDC-IR
##SPECTROMETER/DATA SYSTEM=HP-GC/MS/IRD
##STATE=gas
##XUNITS=1/CM
##YUNITS=ABSORBANCE
##XFACTOR=1.0
##YFACTOR=0.000009100
##DELTAX=4.0
##FIRSTX=550.0
##LASTX=3846.0
##FIRSTY=0.000491
##MAXX=3846
##MINX=550
##MAXY=0.091
##MINY=0
##NPOINTS=825
##XYDATA=(X++(Y..Y))
550.0 54 80 84 131 167 201 210 183 138 91
590.0 49 25 16 7 4 3 3 1 8 14
630.0 18 31 46 60 98 177 291 448 609 729
670.0 801 811 804 852 966 1128 1346 1662 2056 2514
710.0 2958 3155 3064 2812 2403 1959 1615 1377 1234 1160
750.0 1121 1074 1019 1002 1061 1159 1312 1483 1359 1052
790.0 876 851 990 1169 1248 1198 1003 692 437 298
830.0 236 229 273 422 751 1251 1663 1820 1760 1412
870.0 868 443 229 139 92 67 56 47 41 36
910.0 34 37 40 35 29 26 21 29 44 60
950.0 81 102 95 72 52 33 19 14 12 11
990.0 5 0 3 5 7 12 21 27 34 46
1030.0 69 109 152 175 178 160 124 87 64 63
1070.0 73 75 73 73 67 58 50 48 48 55
1110.0 67 70 70 77 87 91 93 97 103 118
1150.0 147 194 239 261 264 250 226 213 227 264
1190.0 302 336 359 358 336 298 254 217 195 191
1230.0 198 212 231 265 320 395 492 610 734 842
1270.0 906 919 895 877 906 1003 1132 1230 1250 1186
1310.0 1072 956 907 962 1123 1415 1895 2649 3719 4956
1350.0 5967 6400 6117 5023 3457 2128 1326 915 699 577
1390.0 502 458 433 417 407 406 415 433 457 501
1430.0 575 690 856 1028 1144 1172 1111 956 800 709
1470.0 686 717 779 856 937 1029 1133 1263 1440 1684
1510.0 2007 2409 2936 3647 4588 5824 7340 8828 9827 10000
1550.0 9245 7738 5955 4477 3517 2863 2417 2074 1809 1595
1590.0 1417 1274 1187 1144 1096 1007 873 710 552 432
1630.0 356 309 273 242 215 189 164 140 122 107
1670.0 95 86 81 76 71 67 67 68 71 72
1710.0 76 79 82 85 83 79 74 65 54 45
1750.0 39 39 36 35 35 34 31 30 34 40
1790.0 49 66 90 119 146 163 174 173 151 116
1830.0 92 77 69 66 61 55 49 38 30 25
1870.0 24 24 23 25 26 28 32 35 39 45
1910.0 47 52 62 77 94 107 110 102 90 80
1950.0 77 83 92 96 89 70 47 27 14 8
1990.0 7 4 3 2 5 8 7 6 5 3
2030.0 4 5 5 4 3 4 4 5 4 4
2070.0 6 6 6 4 1 0 0 0 2 2
2110.0 4 6 5 2 1 0 1 2 3 5
2150.0 3 3 4 4 2 4 4 3 4 3
2190.0 4 5 5 7 9 11 12 10 8 10
2230.0 9 8 9 8 9 8 5 1 4 4
2270.0 3 5 4 5 6 7 8 9 14 19
2310.0 22 25 33 41 51 56 59 52 47 44
2350.0 39 39 39 37 33 32 29 26 26 28
2390.0 28 29 31 29 27 24 23 23 22 23
2430.0 23 24 20 17 13 9 7 6 3 5
2470.0 7 7 11 15 18 18 17 16 14 10
2510.0 9 5 4 5 4 3 4 3 4 5
2550.0 7 6 6 8 9 9 10 13 17 20
2590.0 21 20 17 13 15 15 18 20 18 20
2630.0 22 21 21 25 28 27 26 27 30 35
2670.0 34 35 38 43 46 50 56 58 52 49
2710.0 46 40 36 35 35 33 29 27 27 28
2750.0 29 27 25 25 24 23 21 21 24 26
2790.0 25 26 31 34 35 36 39 41 42 48
2830.0 58 67 73 77 86 97 108 117 131 154
2870.0 176 196 217 231 234 231 217 194 168 146
2910.0 129 116 107 100 96 99 101 104 110 114
2950.0 120 132 147 165 197 236 278 315 336 326
2990.0 295 253 209 170 142 126 118 112 117 124
3030.0 131 147 165 179 190 206 229 267 337 438
3070.0 564 686 762 765 692 556 399 269 176 122
3110.0 93 75 64 55 50 51 48 42 41 42
3150.0 41 39 37 34 32 27 20 20 22 22
3190.0 19 18 19 18 21 17 19 18 15 15
3230.0 12 8 11 13 6 3 2 0 3 8
3270.0 8 5 5 8 9 6 9 11 6 6
3310.0 8 8 10 10 10 13 12 9 9 7
3350.0 10 13 13 17 19 17 11 11 14 11
3390.0 10 11 15 17 15 12 9 10 13 10
3430.0 7 11 12 15 19 20 17 13 15 17
3470.0 19 15 14 19 20 18 14 13 15 16
3510.0 19 20 16 17 19 14 13 16 13 15
3550.0 14 15 19 22 19 15 15 13 17 21
3590.0 20 18 19 25 23 21 20 20 20 20
3630.0 20 18 19 20 22 22 25 26 18 17
3670.0 27 32 28 27 25 24 24 21 21 24
3710.0 27 27 29 28 24 27 28 30 31 31
3750.0 30 33 32 27 25 26 23 23 26 26
3790.0 22 21 27 33 32 27 29 31 30 28
3830.0 25 18 14 27 27
##END=
