##TITLE=5-Ethylcyclopentanone
##JCAMP-DX=4.24
##DATA TYPE=INFRARED SPECTRUM
##ORIGIN=NIST Mass Spectrometry Data Center
##OWNER=NIST Standard Reference Data Program
Collection (C) 2018 copyright by the U.S. Secretary of Commerce
on behalf of the United States of America. All rights reserved.
##CAS REGISTRY NO=61215-75-6
##MOLFORM=C 7 H 12 O
##$NIST SOURCE=MSDC-IR
##SPECTROMETER/DATA SYSTEM=HP-GC/MS/IRD
##STATE=gas
##XUNITS=1/CM
##YUNITS=ABSORBANCE
##XFACTOR=1.0
##YFACTOR=0.000002300
##DELTAX=4.0
##FIRSTX=550.0
##LASTX=3846.0
##FIRSTY=0.000297
##MAXX=3846
##MINX=550
##MAXY=0.023
##MINY=0
##NPOINTS=825
##XYDATA=(X++(Y..Y))
550.0 129 131 90 83 99 93 72 70 80 59
590.0 48 49 64 105 118 115 115 122 111 79
630.0 84 89 69 41 4 12 43 56 71 59
670.0 41 56 64 60 55 73 76 61 72 89
710.0 79 71 81 87 71 67 84 93 87 80
750.0 93 111 124 146 197 236 231 223 237 229
790.0 201 183 190 228 258 313 372 383 358 366
830.0 359 303 251 208 166 132 115 104 102 120
870.0 132 140 153 178 226 270 330 410 482 535
910.0 554 536 480 413 330 242 191 167 166 174
950.0 185 208 216 219 223 225 229 228 225 227
990.0 234 250 255 250 254 263 266 262 260 269
1030.0 269 276 289 292 315 349 385 432 477 506
1070.0 520 517 502 482 449 432 433 431 438 456
1110.0 497 555 630 725 872 1071 1332 1645 1987 2282
1150.0 2464 2521 2434 2226 1899 1490 1130 854 656 520
1190.0 430 367 321 295 288 280 273 275 268 260
1230.0 270 292 316 341 364 389 424 461 495 501
1270.0 496 481 428 368 304 260 254 268 296 331
1310.0 365 397 420 441 463 492 521 540 551 537
1350.0 504 456 406 352 320 322 351 380 420 464
1390.0 468 469 500 558 622 671 705 699 658 609
1430.0 549 497 503 571 679 802 918 989 1006 989
1470.0 915 797 682 558 426 322 247 191 155 124
1510.0 102 92 82 78 80 76 70 67 64 75
1550.0 75 66 69 71 66 64 71 70 70 70
1590.0 65 61 60 66 68 68 71 76 84 90
1630.0 99 104 110 114 117 122 128 149 166 178
1670.0 189 204 230 253 276 318 362 419 494 575
1710.0 680 846 1086 1438 1967 2749 3883 5367 7037 8548
1750.0 9516 9945 10000 9379 7896 5977 4155 2752 1817 1253
1790.0 915 718 582 492 436 387 342 306 270 238
1830.0 210 186 169 148 128 120 109 99 93 82
1870.0 80 82 82 78 68 67 63 56 53 52
1910.0 49 51 51 53 56 54 55 52 48 50
1950.0 56 56 54 57 59 61 62 59 52 42
1990.0 40 44 42 34 33 31 33 33 32 29
2030.0 23 29 32 26 27 29 27 27 28 29
2070.0 21 18 20 21 20 20 25 28 24 21
2110.0 19 25 26 21 22 20 21 21 20 30
2150.0 35 31 29 31 34 29 26 28 28 31
2190.0 35 35 37 39 37 36 37 36 33 34
2230.0 39 39 37 31 27 29 28 23 23 27
2270.0 31 28 26 34 38 36 34 33 35 34
2310.0 35 39 37 33 23 18 25 31 27 25
2350.0 25 18 21 24 23 27 30 33 30 22
2390.0 21 23 28 24 17 19 24 26 21 14
2430.0 16 26 26 23 22 21 17 12 12 12
2470.0 16 21 25 19 16 17 15 15 14 12
2510.0 9 11 13 10 2 3 12 14 12 14
2550.0 16 16 20 15 11 18 23 22 17 21
2590.0 25 28 29 29 37 35 34 35 29 27
2630.0 33 32 27 32 37 34 31 32 28 26
2670.0 32 36 37 36 35 31 28 29 34 39
2710.0 48 49 52 62 69 78 91 97 102 106
2750.0 114 119 122 128 136 140 139 150 161 163
2790.0 177 193 206 227 242 256 273 287 305 335
2830.0 365 411 483 574 708 902 1148 1431 1751 2114
2870.0 2508 2903 3183 3324 3373 3293 3094 2881 2681 2563
2910.0 2570 2700 2909 3178 3518 3870 4173 4436 4724 5083
2950.0 5552 6165 6913 7688 8327 8512 7951 6938 5731 4349
2990.0 3052 2089 1459 1067 821 676 581 509 473 442
3030.0 408 383 365 332 293 274 268 251 228 215
3070.0 202 188 171 158 147 134 134 133 130 118
3110.0 109 107 103 112 114 112 114 110 104 99
3150.0 88 79 84 89 84 69 58 61 57 52
3190.0 52 46 48 42 39 33 30 42 42 35
3230.0 28 25 27 27 22 15 20 30 31 26
3270.0 18 16 22 22 24 23 18 15 13 17
3310.0 21 16 14 12 0 0 14 20 15 7
3350.0 4 6 9 17 15 5 1 8 14 13
3390.0 12 14 17 21 27 30 24 20 24 20
3430.0 13 16 27 31 40 55 59 61 77 93
3470.0 106 126 155 178 196 209 203 204 197 161
3510.0 133 118 98 79 71 66 54 46 39 38
3550.0 45 47 34 20 15 21 24 27 38 30
3590.0 24 20 26 43 30 24 29 20 19 13
3630.0 9 24 13 0 9 17 15 22 18 21
3670.0 30 28 35 29 30 37 28 28 35 37
3710.0 37 34 24 24 26 19 17 23 25 32
3750.0 35 35 40 43 38 45 42 25 23 23
3790.0 32 47 57 46 34 43 45 38 50 48
3830.0 32 39 37 35 39
##END=
