##TITLE=Benzoyl hydrazine
##JCAMP-DX=4.24
##DATA TYPE=INFRARED SPECTRUM
##ORIGIN=NIST Mass Spectrometry Data Center
##OWNER=NIST Standard Reference Data Program
Collection (C) 2018 copyright by the U.S. Secretary of Commerce
on behalf of the United States of America. All rights reserved.
##CAS REGISTRY NO=613-94-5
##MOLFORM=C 7 H 8 N 2 O
##$NIST SOURCE=MSDC-IR
##SPECTROMETER/DATA SYSTEM=HP-GC/MS/IRD
##STATE=gas
##XUNITS=1/CM
##YUNITS=ABSORBANCE
##XFACTOR=1.0
##YFACTOR=0.000003000
##DELTAX=4.0
##FIRSTX=550.0
##LASTX=3846.0
##FIRSTY=0.001728
##MAXX=3846
##MINX=550
##MAXY=0.03
##MINY=0
##NPOINTS=825
##XYDATA=(X++(Y..Y))
550.0 576 446 144 202 162 137 125 113 132 175
590.0 187 169 167 172 195 217 205 168 148 166
630.0 191 189 154 167 205 218 263 341 479 752
670.0 1057 1319 1609 1949 2306 2677 3006 3341 3712 4001
710.0 3874 3368 2812 2255 1736 1278 944 725 558 449
750.0 374 332 319 310 319 330 352 397 438 470
790.0 474 464 417 348 301 245 200 187 185 185
830.0 197 201 188 182 177 177 186 195 197 194
870.0 220 258 301 370 478 612 753 936 1140 1397
910.0 1755 2193 2708 3255 3777 4181 4359 4269 3903 3338
950.0 2668 2013 1494 1115 835 639 508 409 327 274
990.0 264 259 251 254 250 254 263 310 366 372
1030.0 335 274 202 146 144 161 163 189 226 245
1070.0 261 276 263 252 249 242 235 223 188 150
1110.0 112 79 47 24 12 0 2 6 22 44
1150.0 59 86 132 161 212 299 376 451 483 450
1190.0 388 298 219 183 179 187 206 237 287 365
1230.0 434 494 558 639 751 907 1142 1523 2100 2828
1270.0 3665 4450 5012 5236 5075 4520 3742 2976 2271 1630
1310.0 1118 785 594 481 410 371 359 357 343 327
1350.0 320 309 296 283 273 271 289 319 365 421
1390.0 485 578 698 848 1051 1321 1693 2201 2856 3622
1430.0 4416 5104 5608 5952 6156 6155 5981 5725 5333 4721
1470.0 4063 3508 3057 2699 2451 2303 2199 2096 1988 1828
1510.0 1590 1332 1109 942 823 731 653 593 554 527
1550.0 513 523 558 608 693 794 881 931 949 964
1590.0 970 974 1020 1117 1256 1421 1604 1845 2132 2432
1630.0 2683 2803 2776 2657 2456 2196 1937 1765 1714 1794
1670.0 1999 2327 2856 3693 5014 6794 8707 9717 9794 10000
1710.0 9139 6914 4889 3528 2627 2055 1685 1381 1124 936
1750.0 799 687 595 530 481 437 387 338 301 282
1790.0 277 294 316 315 304 285 253 213 180 165
1830.0 160 160 161 164 162 163 150 136 131 130
1870.0 138 155 170 186 195 205 216 224 230 219
1910.0 202 188 175 160 154 161 174 187 198 212
1950.0 227 234 240 237 224 207 180 154 132 113
1990.0 102 104 102 102 105 109 110 108 103 101
2030.0 103 104 107 112 108 102 102 106 107 106
2070.0 106 108 112 113 114 119 118 111 115 122
2110.0 114 112 118 120 117 120 127 128 127 125
2150.0 130 132 131 126 126 129 126 125 124 124
2190.0 125 120 117 123 132 129 127 128 129 131
2230.0 133 138 134 138 144 141 131 135 137 132
2270.0 135 134 139 143 137 130 128 127 127 134
2310.0 143 145 148 158 164 161 150 143 146 147
2350.0 148 149 152 149 144 137 132 130 126 132
2390.0 134 123 117 124 131 127 129 132 130 128
2430.0 120 119 123 122 112 116 119 117 124 133
2470.0 132 123 122 129 133 128 127 137 143 142
2510.0 146 147 147 150 153 150 146 146 155 150
2550.0 144 136 136 148 158 157 145 133 140 146
2590.0 141 135 138 137 130 131 120 115 116 119
2630.0 129 132 128 131 135 128 130 135 131 138
2670.0 131 120 118 116 121 128 145 153 152 163
2710.0 158 159 168 167 166 166 161 162 160 157
2750.0 156 147 145 146 139 140 149 152 157 160
2790.0 164 170 171 174 169 159 165 170 156 146
2830.0 142 139 142 147 145 153 159 155 159 157
2870.0 153 159 169 177 183 178 178 182 164 157
2910.0 157 151 148 158 168 156 149 161 171 165
2950.0 164 168 174 172 162 160 147 140 154 175
2990.0 190 196 205 226 252 290 348 407 498 612
3030.0 739 857 935 967 958 931 945 1049 1242 1489
3070.0 1666 1717 1676 1522 1280 1080 954 858 746 626
3110.0 519 439 357 282 249 226 197 193 185 180
3150.0 196 214 216 212 203 193 198 198 196 216
3190.0 232 223 224 230 229 235 231 214 201 201
3230.0 189 177 170 163 171 185 174 167 166 146
3270.0 147 168 182 183 192 205 204 214 218 206
3310.0 210 217 210 220 246 248 243 252 262 256
3350.0 240 238 256 264 248 240 258 282 303 303
3390.0 292 293 291 280 262 261 275 294 321 357
3430.0 404 448 500 574 659 756 906 1076 1266 1458
3470.0 1575 1586 1512 1362 1143 913 728 588 481 385
3510.0 315 278 242 215 201 189 183 177 152 146
3550.0 152 147 138 131 147 150 144 160 170 169
3590.0 166 169 157 135 137 140 129 127 126 120
3630.0 124 126 121 129 137 140 136 137 131 121
3670.0 122 133 145 136 115 116 137 160 149 129
3710.0 138 141 136 129 146 151 137 133 122 121
3750.0 119 118 127 136 118 105 116 115 118 115
3790.0 109 113 116 130 135 123 110 106 112 120
3830.0 130 137 123 112 108
##END=
