##TITLE=N-Methylbenzamide
##JCAMP-DX=4.24
##DATA TYPE=INFRARED SPECTRUM
##ORIGIN=EPA-IR VAPOR PHASE LIBRARY
##OWNER=SRD/NIST
Collection (C) 2018 copyright by the U.S. Secretary of Commerce
on behalf of the United States of America. All rights reserved.
##CAS REGISTRY NO=613-93-4
##MOLFORM=C 8 H 9 N O
##$NIST SOURCE=MSDC-IR
##STATE=gas
##XUNITS=1/CM
##YUNITS=ABSORBANCE
##XFACTOR=1.
##YFACTOR=0.001
##DELTAX=1.92898
##FIRSTX=549.8
##LASTX=4000.7
##FIRSTY=3.27396
##MAXX=4000.7
##MINX=549.759
##MAXY=0.183594
##MINY=0
##NPOINTS=1790
##XYDATA=(X++(Y..Y))
549.759 3.27396 3.46396 3.39396 2.94396 2.94396 3.18396 2.94396 2.87396 2.86396 2.82396
569.049 2.86396 2.88396 2.69396 2.45396 2.47396 2.64396 2.52396 2.53396 2.76396 2.99396
588.339 2.82396 2.51396 2.70396 2.74396 2.48396 2.27396 2.33396 2.58396 2.55396 2.64396
607.628 2.74396 2.57396 2.74396 2.65396 2.29396 2.57396 2.69396 2.37396 2.30396 2.29396
626.918 2.09396 2.05396 2.16396 2.22396 2.12396 2.06396 2.19396 2.41396 2.71396 2.80396
646.208 3.07396 3.69396 4.18396 4.71396 5.62396 6.76396 8.49396 10.704 12.774 14.074
665.498 14.944 16.274 17.564 18.594 19.934 21.144 21.564 21.824 22.734 24.564
684.787 27.364 31.094 35.374 39.244 42.494 45.774 49.284 52.854 56.674 61.274
704.077 67.044 71.424 70.494 65.764 60.914 56.434 52.114 47.814 43.254 38.714
723.367 34.074 29.334 25.304 21.684 18.324 15.744 13.594 11.794 10.364 9.41396
742.657 8.81396 8.25396 7.64396 7.15396 6.77396 6.45396 6.29396 6.15396 6.00396 6.11396
761.947 6.24396 6.17396 6.03396 5.99396 6.11396 6.28396 6.53396 6.75396 6.91396 7.26396
781.236 7.52396 7.74396 8.27396 8.53396 8.62396 8.74396 8.82396 8.75396 8.32396 7.85396
800.526 7.73396 7.52396 6.92396 6.57396 6.66396 6.60396 6.31396 6.20396 6.15396 6.08396
819.816 6.03396 5.94396 5.96396 5.94396 5.71396 5.40396 5.27396 5.19396 4.99396 4.76396
839.106 4.49396 4.29396 4.34396 4.45396 4.28396 4.15396 4.11396 4.11396 4.18396 4.14396
858.395 4.16396 4.36396 4.54396 4.68396 4.60396 4.58396 4.62396 4.75396 4.94396 5.11396
877.685 5.10396 5.14396 5.45396 5.75396 5.93396 5.99396 6.15396 6.38396 6.56396 6.53396
896.975 6.67396 6.84396 6.77396 6.70396 6.53396 6.46396 6.53396 6.54396 6.53396 6.45396
916.265 6.46396 6.50396 6.44396 6.37396 6.32396 6.18396 5.96396 5.72396 5.45396 5.33396
935.555 5.20396 4.81396 4.61396 4.48396 4.51396 4.57396 4.30396 4.12396 4.02396 3.95396
954.844 3.84396 3.86396 4.06396 3.92396 3.74396 3.98396 4.17396 4.18396 4.17396 4.21396
974.134 4.45396 4.76396 5.11396 5.65396 6.36396 7.04396 7.76396 8.56396 9.14396 9.68396
993.424 10.434 11.474 12.504 13.124 13.044 12.664 12.184 11.614 11.134 10.494
1012.714 9.74396 8.95396 8.01396 7.27396 7.14396 7.23396 7.47396 7.33396 6.85396 6.43396
1032.003 5.93396 5.65396 5.47396 5.05396 4.32396 3.52396 2.94396 2.95396 2.96396 2.96396
1051.293 3.30396 3.65396 4.23396 4.74396 4.98396 5.53396 6.10396 6.19396 5.96396 5.97396
1070.583 6.21396 5.95396 5.88396 5.91396 5.47396 5.16396 4.78396 4.30396 4.37396 4.71396
1089.873 4.78396 5.15396 5.31396 5.16396 5.48396 5.43396 5.55396 5.71396 5.46396 5.46396
1109.163 5.50396 5.90396 5.98396 5.55396 5.53396 6.00396 6.59396 6.57396 6.53396 6.96396
1128.452 7.88396 9.16396 10.214 11.394 12.564 13.784 14.784 15.344 16.174 16.544
1147.742 16.544 16.554 16.084 15.244 13.794 12.284 11.424 10.704 9.91396 9.84396
1167.032 10.224 10.574 11.314 12.114 12.784 13.044 13.054 13.214 13.014 12.454
1186.322 12.014 11.174 9.72396 8.20396 7.31396 6.73396 6.09396 5.48396 5.41396 5.65396
1205.611 5.70396 6.00396 6.46396 6.81396 6.92396 7.29396 8.13396 8.85396 9.57396 10.684
1224.901 11.864 12.884 14.104 15.254 16.264 17.454 18.664 20.134 21.724 23.654
1244.191 26.264 29.284 32.984 37.484 43.294 50.574 58.994 68.554 78.874 88.934
1263.481 97.404 103.894 107.764 109.254 108.954 106.414 101.064 92.524 81.114 68.584
1282.771 57.314 48.784 42.774 38.254 34.744 31.844 29.164 26.524 23.964 21.604
1302.060 19.344 17.154 15.214 13.574 12.194 11.014 10.074 9.42396 8.83396 8.33396
1321.350 7.99396 7.76396 7.65396 7.62396 7.59396 7.61396 7.70396 7.81396 7.88396 7.96396
1340.640 8.09396 8.21396 8.32396 8.36396 8.39396 8.41396 8.40396 8.40396 8.41396 8.32396
1359.930 8.23396 8.15396 8.03396 7.93396 7.81396 7.73396 7.71396 7.73396 7.79396 7.88396
1379.219 8.01396 8.14396 8.33396 8.58396 8.86396 9.17396 9.56396 10.054 10.624 11.234
1398.509 11.904 12.814 13.954 15.234 16.704 18.444 20.384 22.264 23.844 24.834
1417.799 25.114 25.114 25.274 25.664 25.864 25.444 24.494 23.344 22.494 22.154
1437.089 22.194 22.544 23.174 24.084 25.244 26.684 28.524 30.754 33.584 36.864
1456.378 40.924 45.844 51.334 57.874 65.284 73.464 81.854 90.244 98.104 105.104
1475.668 110.384 114.074 115.994 116.314 115.094 112.744 109.714 106.544 103.764 102.124
1494.958 101.824 102.654 104.074 105.694 107.204 108.394 109.174 109.114 107.894 105.324
1514.248 101.344 96.274 90.454 84.574 78.334 72.564 67.224 62.174 57.564 53.364
1533.538 49.454 45.774 42.554 39.454 36.524 33.934 31.684 29.664 27.834 26.274
1552.827 24.984 23.844 22.904 22.164 21.404 20.764 20.364 20.124 19.944 19.724
1572.117 19.544 19.434 19.124 18.574 18.024 17.504 17.024 16.504 16.054 15.474
1591.407 14.784 14.284 14.034 13.914 13.964 14.044 14.124 14.274 14.434 14.464
1610.697 14.454 14.334 14.154 13.884 13.604 13.354 13.094 12.764 12.334 11.974
1629.986 11.704 11.434 11.274 11.244 11.154 11.084 11.164 11.314 11.674 12.074
1649.276 12.614 13.404 14.374 15.274 16.294 17.454 18.834 20.374 22.044 23.954
1668.566 26.274 28.874 31.704 34.844 38.764 43.434 49.594 57.024 66.594 78.224
1687.856 91.414 107.434 125.774 144.724 162.914 176.204 180.094 177.084 173.974 176.914
1707.146 183.594 183.294 170.214 148.734 125.204 104.064 86.064 72.044 60.444 50.724
1726.435 42.884 36.774 32.094 28.664 26.034 23.834 21.894 19.874 17.864 15.954
1745.725 14.314 12.894 11.574 10.274 9.03396 8.02396 7.15396 6.32396 5.67396 5.10396
1765.015 4.63396 4.30396 4.04396 3.78396 3.52396 3.27396 3.12396 3.03396 2.94396 2.89396
1784.305 2.83396 2.83396 2.93396 3.08396 3.30396 3.54396 3.74396 3.92396 4.03396 4.08396
1803.594 4.07396 4.03396 3.93396 3.77396 3.58396 3.37396 3.14396 2.92396 2.72396 2.54396
1822.884 2.42396 2.33396 2.26396 2.23396 2.17396 2.09396 2.04396 1.99396 2.01396 1.96396
1842.174 1.91396 1.90396 1.83396 1.79396 1.79396 1.75396 1.66396 1.65396 1.67396 1.61396
1861.464 1.62396 1.65396 1.65396 1.67396 1.71396 1.82396 1.92396 1.98396 2.05396 2.11396
1880.754 2.20396 2.26396 2.32396 2.38396 2.45396 2.57396 2.62396 2.62396 2.65396 2.60396
1900.043 2.47396 2.35396 2.29396 2.22396 2.02396 1.83396 1.76396 1.70396 1.60396 1.50396
1919.333 1.34396 1.29396 1.32396 1.35396 1.39396 1.45396 1.54396 1.61396 1.75396 1.93396
1938.623 2.06396 2.19396 2.30396 2.43396 2.59396 2.64396 2.63396 2.65396 2.77396 2.85396
1957.913 2.89396 2.83396 2.78396 2.70396 2.52396 2.42396 2.30396 2.07396 1.93396 1.77396
1977.202 1.56396 1.39396 1.24396 1.12396 1.07396 1.05396 1.01396 1.03396 1.03396 0.99706
1996.492 0.98256 0.94516 0.90066 0.90786 0.86396 0.78636 0.80066 0.80156 0.72476 0.72176
2015.782 0.73946 0.69846 0.64786 0.62336 0.58096 0.56606 0.56766 0.51296 0.55086 0.55446
2035.072 0.45006 0.42246 0.48946 0.54936 0.57806 0.55876 0.50436 0.52316 0.52156 0.52926
2054.362 0.58076 0.52356 0.44606 0.44036 0.43456 0.50276 0.54686 0.59506 0.61626 0.53416
2073.651 0.57186 0.57476 0.58526 0.60636 0.51856 0.48346 0.54946 0.57556 0.60696 0.66216
2092.941 0.63786 0.59786 0.56136 0.57086 0.51786 0.50866 0.55966 0.55246 0.55616 0.52306
2112.231 0.47786 0.47646 0.50456 0.54366 0.57426 0.54766 0.60016 0.66226 0.69276 0.71886
2131.521 0.73316 0.73376 0.72686 0.75316 0.72006 0.65956 0.61976 0.64066 0.61006 0.55636
2150.810 0.54056 0.52246 0.53496 0.53606 0.52596 0.45456 0.37036 0.37696 0.42156 0.39636
2170.100 0.36896 0.39886 0.41306 0.36656 0.30476 0.34006 0.37776 0.39056 0.37976 0.32726
2189.390 0.30376 0.25866 0.27556 0.30576 0.29286 0.25886 0.30026 0.33696 0.31886 0.32506
2208.680 0.28806 0.27406 0.30546 0.32476 0.29636 0.30506 0.33096 0.33526 0.33046 0.29716
2227.970 0.34406 0.38136 0.38386 0.36096 0.38026 0.41206 0.40176 0.38846 0.33986 0.40866
2247.259 0.43546 0.46716 0.53896 0.48786 0.50036 0.52766 0.48236 0.48386 0.49486 0.52656
2266.549 0.56016 0.60276 0.60176 0.55386 0.59836 0.65326 0.65726 0.62986 0.63076 0.61666
2285.839 0.59616 0.62566 0.56966 0.47976 0.51036 0.51926 0.52656 0.55996 0.50126 0.55286
2305.129 0.65606 0.66306 0.75856 0.83276 0.82236 0.89296 0.90416 0.90606 0.92116 0.87706
2324.418 0.82616 0.79806 0.73926 0.62586 0.60106 0.67536 0.70676 0.68626 0.67076 0.71066
2343.708 0.73866 0.66526 0.58456 0.53116 0.47916 0.47866 0.47376 0.42986 0.41816 0.39916
2362.998 0.35036 0.32876 0.36476 0.35776 0.35776 0.33446 0.30526 0.28756 0.26436 0.30456
2382.288 0.32996 0.35786 0.35686 0.32116 0.31536 0.27486 0.29806 0.35176 0.34396 0.36026
2401.578 0.40226 0.39096 0.37936 0.34636 0.27086 0.24006 0.35596 0.41516 0.35486 0.36436
2420.867 0.36836 0.29476 0.29406 0.29156 0.24156 0.28136 0.31386 0.28966 0.29246 0.35186
2440.157 0.36546 0.38836 0.37956 0.38636 0.38256 0.30526 0.30746 0.37376 0.36836 0.37876
2459.447 0.44806 0.41866 0.43096 0.53816 0.57186 0.60326 0.58486 0.51006 0.55046 0.64156
2478.737 0.61816 0.58806 0.60386 0.61946 0.64146 0.66426 0.71436 0.77996 0.75996 0.70076
2498.026 0.72736 0.74656 0.74116 0.75966 0.79316 0.80296 0.76766 0.80966 0.82176 0.80396
2517.316 0.81766 0.77956 0.80236 0.80736 0.75656 0.74446 0.73546 0.71746 0.75736 0.77846
2536.606 0.71716 0.70576 0.72606 0.75246 0.75666 0.69216 0.65916 0.63926 0.63776 0.61636
2555.896 0.65516 0.67096 0.64036 0.65946 0.65806 0.66756 0.73286 0.79296 0.73636 0.66856
2575.186 0.65006 0.64466 0.64896 0.68946 0.68676 0.67836 0.78556 0.77516 0.76126 0.78636
2594.475 0.78816 0.86326 0.88586 0.83646 0.84486 0.85766 0.85306 0.92386 0.92816 0.81646
2613.765 0.77386 0.78566 0.75526 0.76926 0.69976 0.62446 0.59976 0.60406 0.68196 0.71956
2633.055 0.71826 0.75676 0.77326 0.70686 0.69646 0.69116 0.65536 0.65146 0.58986 0.51216
2652.345 0.55066 0.53866 0.47296 0.50216 0.51236 0.48566 0.53426 0.54456 0.56966 0.52856
2671.634 0.47966 0.54786 0.50256 0.47216 0.50636 0.40016 0.34896 0.43236 0.46106 0.46886
2690.924 0.46426 0.46056 0.38506 0.41036 0.48746 0.43916 0.43356 0.36866 0.33506 0.48066
2710.214 0.57106 0.53356 0.47196 0.55876 0.58746 0.44736 0.46516 0.54066 0.56346 0.58146
2729.504 0.60476 0.66806 0.74336 0.73066 0.73376 0.84286 0.82706 0.75836 0.79706 0.81406
2748.794 0.81786 0.85706 0.92646 0.96726 0.90076 0.90426 1.01396 1.02396 1.04396 1.10396
2768.083 1.11396 1.12396 1.14396 1.17396 1.17396 1.22396 1.32396 1.39396 1.47396 1.55396
2787.373 1.60396 1.69396 1.76396 1.92396 2.13396 2.28396 2.53396 2.87396 3.24396 3.72396
2806.663 4.19396 4.67396 5.18396 5.45396 5.73396 6.05396 6.15396 6.11396 6.03396 5.85396
2825.953 5.45396 4.91396 4.44396 4.03396 3.75396 3.69396 3.64396 3.59396 3.51396 3.47396
2845.242 3.58396 3.68396 3.82396 4.03396 4.23396 4.44396 4.64396 4.98396 5.35396 5.58396
2864.532 5.80396 6.15396 6.58396 7.04396 7.57396 8.08396 8.64396 9.14396 9.55396 10.124
2883.822 10.734 11.274 11.924 12.594 13.194 13.804 14.434 15.034 15.694 16.264
2903.112 16.814 17.494 18.014 18.524 19.144 19.504 19.734 20.074 20.454 20.824
2922.401 21.014 21.294 21.674 22.074 22.614 23.134 23.744 24.354 24.894 25.594
2941.691 26.314 26.914 27.304 27.484 27.564 27.424 26.984 26.264 25.434 24.464
2960.981 23.204 21.854 20.394 18.944 17.414 15.944 14.644 13.374 12.314 11.484
2980.271 10.804 10.364 9.90396 9.33396 8.99396 8.82396 8.62396 8.41396 8.22396 8.13396
2999.561 8.05396 8.11396 8.27396 8.21396 8.34396 8.62396 8.88396 9.20396 9.66396 10.364
3018.850 11.134 12.064 13.174 14.344 15.524 16.534 17.464 18.214 18.514 18.614
3038.140 18.704 18.494 18.004 17.444 16.744 15.994 15.424 15.324 15.714 16.534
3057.430 17.904 19.804 21.914 24.054 26.104 27.654 28.584 29.244 29.664 29.634
3076.720 29.204 28.214 26.384 23.974 21.464 19.254 17.604 16.204 15.014 13.994
3096.009 13.014 12.104 11.154 10.004 9.04396 8.31396 7.43396 6.71396 6.09396 5.55396
3115.299 5.05396 4.53396 4.11396 3.79396 3.38396 2.87396 2.43396 2.17396 2.00396 1.85396
3134.589 1.77396 1.68396 1.57396 1.58396 1.67396 1.61396 1.48396 1.39396 1.34396 1.36396
3153.879 1.21396 1.15396 1.25396 1.21396 1.13396 1.13396 1.10396 1.11396 1.03396 0.89316
3173.169 0.88626 0.97256 0.89926 0.70066 0.67876 0.65946 0.58076 0.50376 0.56566 0.55206
3192.458 0.50906 0.57316 0.55866 0.58866 0.52306 0.36986 0.43386 0.54366 0.53546 0.55676
3211.748 0.52496 0.48716 0.47836 0.43766 0.40956 0.39966 0.40046 0.38476 0.30196 0.18826
3231.038 0.22396 0.27446 0.25526 0.28136 0.29936 0.27096 0.32676 0.37616 0.36476 0.30456
3250.328 0.35036 0.42246 0.31246 0.27646 0.33106 0.33316 0.35486 0.47496 0.48756 0.40326
3269.617 0.34536 0.35156 0.48456 0.53966 0.52126 0.44126 0.38666 0.40546 0.47166 0.47526
3288.907 0.45406 0.53056 0.43376 0.31486 0.35596 0.50836 0.63516 0.53856 0.49086 0.53616
3308.197 0.43016 0.39136 0.54996 0.54126 0.41406 0.55396 0.57246 0.51026 0.52036 0.44806
3327.487 0.42676 0.41536 0.56276 0.62536 0.45926 0.48796 0.53326 0.62906 0.65966 0.54136
3346.777 0.49346 0.47706 0.64786 0.79076 0.73276 0.78576 0.91186 0.97126 0.95296 0.99276
3366.066 1.29396 1.41396 1.42396 1.43396 1.45396 1.67396 1.82396 1.97396 2.14396 2.25396
3385.356 2.33396 2.44396 2.58396 2.66396 2.68396 2.61396 2.56396 2.43396 2.23396 2.02396
3404.646 1.81396 1.72396 1.60396 1.47396 1.37396 1.44396 1.48396 1.36396 1.46396 1.64396
3423.936 1.72396 1.71396 1.65396 1.75396 1.79396 1.80396 1.92396 2.14396 2.33396 2.29396
3443.225 2.23396 2.33396 2.45396 2.57396 2.95396 3.22396 3.31396 3.47396 3.63396 3.95396
3462.515 4.41396 4.90396 5.40396 5.94396 6.66396 7.36396 8.14396 9.10396 9.85396 10.584
3481.805 11.334 11.924 12.444 12.704 12.684 12.594 12.274 11.744 11.204 10.624
3501.095 9.77396 8.69396 7.83396 6.94396 5.88396 4.98396 4.29396 3.70396 3.27396 2.83396
3520.385 2.35396 2.09396 1.81396 1.53396 1.46396 1.38396 1.18396 1.03396 0.93786 0.81256
3539.674 0.79806 0.80296 0.76926 0.67616 0.66916 0.62406 0.56096 0.57196 0.53476 0.52346
3558.964 0.51536 0.47546 0.47996 0.46566 0.32166 0.24166 0.29426 0.28576 0.28366 0.27996
3578.254 0.33666 0.36556 0.23686 0.18986 0.22906 0.36816 0.37386 0.30506 0.25576 0.32606
3597.544 0.41496 0.38606 0.35656 0.27616 0.18766 0.19646 0.16396 0.09698 0.25756 0.26716
3616.833 0.18986 0.23526 0.28056 0.39746 0.36436 0.25356 0.30286 0.34576 0.30796 0.24056
3636.123 0.25426 0.32116 0.38356 0.45226 0.47256 0.44516 0.41506 0.32116 0.27586 0.31116
3655.413 0.31496 0.33256 0.32556 0.27336 0.23956 0.23496 0.27456 0.29736 0.16456 0.31336
3674.703 0.46436 0.34766 0.25396 0.20216 0.34666 0.44216 0.36176 0.41966 0.43566 0.36206
3693.993 0.17466 0.15616 0.27676 0.34226 0.42666 0.56676 0.60006 0.43236 0.39936 0.35426
3713.282 0.27756 0.25396 0.36866 0.24466 0.02771 0 0.20586 0.35746 0.34256 0.38956
3732.572 0.40616 0.47806 0.50736 0.43576 0.37616 0.45506 0.41376 0.30346 0.41516 0.50146
3751.862 0.35706 0.19196 0.15356 0.17616 0.25196 0.22786 0.20236 0.30226 0.36326 0.32896
3771.152 0.26596 0.21936 0.21626 0.24196 0.22376 0.20006 0.17186 0.22626 0.34186 0.29306
3790.441 0.15076 0.11066 0.16916 0.26836 0.32476 0.34896 0.43046 0.34916 0.20806 0.30496
3809.731 0.26476 0.19536 0.23406 0.21296 0.21756 0.20236 0.13686 0.03902 0.11886 0.21796
3829.021 0.18776 0.20186 0.30366 0.21416 0.10836 0.19946 0.14986 0.02362 0.08269 0.20746
3848.311 0.26486 0.31136 0.43096 0.33376 0.28896 0.37876 0.30136 0.26936 0.35816 0.36906
3867.601 0.22276 0.21666 0.26746 0.35286 0.44376 0.48436 0.33456 0.25006 0.21506 0.29276
3886.890 0.44946 0.49586 0.52616 0.41366 0.48096 0.37316 0.28996 0.51486 0.49816 0.47506
3906.180 0.43626 0.37656 0.30546 0.22246 0.28766 0.42486 0.51876 0.43436 0.30496 0.33776
3925.470 0.24476 0.15616 0.31616 0.37226 0.40526 0.36226 0.38166 0.54436 0.43896 0.26436
3944.760 0.35176 0.39016 0.20886 0.14926 0.31646 0.43336 0.45806 0.36876 0.29236 0.27026
3964.049 0.30256 0.32626 0.22136 0.25256 0.31876 0.28906 0.27286 0.30236 0.32046 0.18476
3983.339 0.24426 0.48466 0.51226 0.36966 0.41466 0.34946 0.30826 0.46106 0.41056 0.39216
##END=
