##TITLE=N-Ethyl-N-methyl aniline
##JCAMP-DX=4.24
##DATA TYPE=INFRARED SPECTRUM
##ORIGIN=EPA-IR VAPOR PHASE LIBRARY
##OWNER=SRD/NIST
Collection (C) 2018 copyright by the U.S. Secretary of Commerce
on behalf of the United States of America. All rights reserved.
##CAS REGISTRY NO=613-97-8
##MOLFORM=C 9 H 13 N
##$NIST SOURCE=MSDC-IR
##STATE=gas
##XUNITS=1/CM
##YUNITS=ABSORBANCE
##XFACTOR=1.
##YFACTOR=0.001
##DELTAX=3.85796
##FIRSTX=551.7
##LASTX=4000.7
##FIRSTY=9.85
##MAXX=4000.7
##MINX=551.688
##MAXY=0.23313
##MINY=0.0008382
##NPOINTS=895
##XYDATA=(X++(Y..Y))
551.688 9.85 8.97 8.15 7.51 6.89 6.21 5.57 4.89 4.21 3.76
590.268 3.36 3.09 2.96 2.94 2.92 2.79 2.69 2.69 2.72 2.92
628.847 3.15 3.38 3.71 4.09 4.8 5.73 6.82 8.48 10.83 14.03
667.427 18.63 24.89 32.54 41.13 50.17 59.53 64.29 60.14 52.67 44.88
706.006 36.68 29.69 25.21 23.95 25.92 31 39.02 48.86 58.46 67.94
744.586 78.89 84.44 77.97 66.46 54.46 42.43 31.65 23.22 17.82 14.96
783.165 13.64 13.29 13.34 12.93 12.15 11.03 9.6 8.16 6.86 5.87
821.745 5.16 4.62 4.4 4.4 4.58 4.98 5.46 6.13 7.02 8.06
860.324 9.07 9.96 10.89 12.08 13.79 16.02 18.07 19.31 19.38 18.19
898.904 15.87 12.75 9.9 8.01 6.79 6.01 5.47 5.14 5.03 5
937.484 5.1 5.27 5.53 5.98 6.54 7.14 7.97 9.14 10.54 12.3
976.063 14.56 17.72 23.03 30.93 38.54 42.91 44.06 42.11 35.95 27.95
1014.643 23.37 23.81 27.96 32.73 35.36 35.71 34.28 30.67 26.32 24.35
1053.222 25.12 27.26 29.65 31.91 34.1 35.9 37.02 37.38 36.64 34.74
1091.802 32.24 29.28 26.67 24.86 23.82 23.61 23.78 24.42 25.76 27.92
1130.381 31.36 36.7 44.23 53.47 62.49 68.9 70.88 67.84 60.93 51.73
1168.961 42.97 37.23 35.56 37.35 40.93 45.16 49.65 53.97 57.48 59.72
1207.540 60.71 60.05 57.43 53.29 48.06 42.6 38.04 35.33 35.17 37.79
1246.120 43.45 52.21 63.69 76.33 87.44 94.08 94.42 88.72 78.84 67.16
1284.699 56.51 49.26 45.34 43.43 42.41 41.5 40.39 39.33 39.1 40.36
1323.279 43.38 48.19 54.79 63.04 72.71 83.06 92.63 99.86 104.24 106.23
1361.859 105.94 103.58 99.83 94.67 87.5 78.3 68.11 57.61 47.5 38.68
1400.438 32.09 27.68 25.05 23.83 23.79 24.82 26.19 27.37 28.49 29.77
1439.018 31.05 32.4 34.22 36.52 39.02 41.78 44.58 47.88 51.97 58.12
1477.597 67.44 81.96 104.29 136.71 176.16 212.65 233.13 230.47 207.59 170.16
1516.177 124.74 85.4 60.21 46.63 39.07 34.73 32.21 30.83 30.42 30.97
1554.756 32.41 35.02 38.88 44.02 50.89 59.66 72.44 90.7 115.72 146.3
1593.336 176.48 196.34 199.1 184.52 154.93 117.84 83.04 57.61 41.26 30.66
1631.915 24.14 19.89 17.14 15.29 13.9 12.89 12.04 11.36 10.8 10.27
1670.495 9.8 9.37 8.96 8.59 8.27 8.03 7.85 7.73 7.71 7.79
1709.075 7.94 8.13 8.26 8.26 8.09 7.77 7.35 6.98 6.81 6.76
1747.654 6.81 6.84 6.77 6.57 6.3 6 5.7 5.41 5.16 5
1786.234 4.89 4.86 4.9 5 5.15 5.27 5.41 5.55 5.61 5.59
1824.813 5.5 5.33 5.12 4.89 4.65 4.45 4.34 4.32 4.32 4.41
1863.393 4.59 4.82 5.13 5.42 5.67 5.92 6.17 6.46 6.8 7.19
1901.972 7.66 8.06 8.28 8.41 8.44 8.2 7.67 6.97 6.25 5.53
1940.552 4.78 4.13 3.64 3.32 3.09 2.96 2.87 2.82 2.82 2.85
1979.131 2.92 3.02 3.09 3.11 3.09 3.01 2.86 2.72 2.61 2.51
2017.711 2.46 2.42 2.41 2.41 2.4 2.36 2.33 2.34 2.41 2.48
2056.291 2.6 2.71 2.79 2.91 3.04 3.13 3.19 3.16 3.12 3.07
2094.870 2.92 2.74 2.53 2.31 2.1 1.93 1.77 1.64 1.55 1.48
2133.450 1.49 1.51 1.49 1.51 1.54 1.55 1.56 1.57 1.57 1.6
2172.029 1.66 1.74 1.8 1.85 1.88 1.89 1.87 1.85 1.81 1.86
2210.609 2.01 2.15 2.31 2.5 2.62 2.63 2.57 2.42 2.21 2.04
2249.188 1.93 1.87 1.86 1.92 1.94 1.91 1.93 1.9 1.86 1.85
2287.768 1.9 1.94 1.97 2.1 2.23 2.38 2.62 2.81 2.93 3.04
2326.347 3.02 2.9 2.81 2.73 2.65 2.6 2.56 2.51 2.44 2.42
2364.927 2.39 2.34 2.36 2.37 2.34 2.31 2.31 2.33 2.32 2.32
2403.507 2.37 2.44 2.51 2.57 2.62 2.68 2.68 2.65 2.63 2.65
2442.086 2.66 2.65 2.69 2.75 2.8 2.82 2.87 2.92 2.91 2.94
2480.666 3.01 3 3 2.99 2.97 2.99 3.04 3.09 3.12 3.21
2519.245 3.33 3.44 3.57 3.7 3.83 3.95 4.09 4.3 4.45 4.61
2557.825 4.8 4.92 4.98 5.03 5.03 4.98 4.95 4.93 4.94 4.99
2596.404 5.05 5.05 5.05 5 4.88 4.71 4.56 4.49 4.46 4.44
2634.984 4.41 4.45 4.51 4.6 4.66 4.72 4.83 4.94 5.08 5.27
2673.563 5.48 5.66 5.87 6.13 6.31 6.49 6.67 6.84 7.06 7.2
2712.143 7.4 7.73 8.07 8.45 8.82 9.14 9.55 10.05 10.6 11.28
2750.722 12.14 13.2 14.5 16.12 18.05 20.4 23.27 26.63 30.43 34.68
2789.302 39.26 44.09 49.15 54.16 58.68 62.41 65.15 66.69 66.92 65.95
2827.882 64.22 62.15 60.13 58.49 57.43 56.95 57.09 57.92 59.43 61.74
2866.461 64.88 68.75 73.02 76.9 79.77 81.22 81.17 79.94 78.08 76.21
2905.041 74.79 74.05 74.04 74.85 76.89 80.31 85.02 90.74 96.2 99.84
2943.620 101.16 100.45 98.37 96.44 96.64 100.41 107.92 117.66 126.6 131.03
2982.200 128.55 118.96 103.95 86.66 70.87 58.66 50.2 44.99 42.41 42.14
3020.779 43.7 46.64 50.16 53.4 56 57.23 56.54 54.9 53.47 53.5
3059.359 56.29 60.85 64.13 64.6 62.67 58.65 52.9 47.67 44.71 42.88
3097.938 40.78 37.67 33.36 28.22 23.25 18.95 15.32 12.43 10.17 8.45
3136.518 7.23 6.36 5.73 5.23 4.84 4.45 4.16 3.96 3.77 3.55
3175.098 3.33 3.15 2.99 2.93 2.83 2.72 2.67 2.61 2.45 2.27
3213.677 2.16 2.01 1.83 1.73 1.64 1.59 1.6 1.58 1.49 1.45
3252.257 1.42 1.43 1.41 1.36 1.37 1.29 1.18 1.17 1.27 1.21
3290.836 1.13 1.23 1.23 1.16 1.2 1.23 1.24 1.17 1.12 1.14
3329.416 1.14 1.23 1.2 1.08 1.16 1.2 1.19 1.19 1.13 1.08
3367.995 1.08 1.06 1.06 1.06 0.98 0.9877 1.06 1.07 0.9694 0.8497
3406.575 0.9214 1.03 0.9878 0.953 1.05 1.07 1.01 0.9826 1.04 1.04
3445.154 0.9542 0.9537 0.994 1.09 1.09 1.1 1.12 1.12 1.15 1.16
3483.734 1.11 1 0.9486 1.04 1.06 0.9852 1.04 1.05 1.01 0.9673
3522.314 0.9295 0.9592 0.9606 0.9473 0.8794 0.8382 0.9271 0.9486 0.9354 0.9231
3560.893 0.8927 0.8965 0.9053 0.9776 0.9999 0.9237 0.8984 0.9068 0.957 1.02
3599.473 1.02 1.01 0.9853 0.9872 1.06 1.02 1.01 1.09 1.08 1.08
3638.052 1.07 1.1 1.14 1.12 1.15 1.14 1.17 1.24 1.18 1.11
3676.632 1.04 1.05 1.08 1.09 1.17 1.19 1.14 1.11 1.2 1.23
3715.211 1.17 1.18 1.21 1.25 1.25 1.27 1.34 1.3 1.15 1.06
3753.791 1.13 1.23 1.23 1.21 1.24 1.18 1.09 1.19 1.27 1.27
3792.370 1.3 1.31 1.32 1.29 1.24 1.17 1.18 1.17 0.9825 0.9665
3830.950 1.09 1.07 1.05 1.14 1.15 1.13 1.09 1.03 1.05 1.1
3869.530 1.18 1.13 1.11 1.16 1.1 1.19 1.39 1.41 1.35 1.41
3908.109 1.43 1.46 1.54 1.56 1.47 1.4 1.46 1.49 1.55 1.61
3946.689 1.57 1.58 1.65 1.71 1.67 1.66 1.73 1.71 1.67 1.7
3985.268 1.84 1.92 1.9 1.96 2.02
##END=
