##TITLE=1,2-Bis(cyanomethyl)benzene
##JCAMP-DX=4.24
##DATA TYPE=INFRARED SPECTRUM
##ORIGIN=NIST Mass Spectrometry Data Center
##OWNER=NIST Standard Reference Data Program
Collection (C) 2018 copyright by the U.S. Secretary of Commerce
on behalf of the United States of America. All rights reserved.
##CAS REGISTRY NO=613-73-0
##MOLFORM=C 10 H 8 N 2
##$NIST SOURCE=MSDC-IR
##SPECTROMETER/DATA SYSTEM=HP-GC/MS/IRD
##STATE=gas
##XUNITS=1/CM
##YUNITS=ABSORBANCE
##XFACTOR=1.0
##YFACTOR=0.000003200
##DELTAX=4.0
##FIRSTX=550.0
##LASTX=3846.0
##FIRSTY=0.000269
##MAXX=3846
##MINX=550
##MAXY=0.032
##MINY=0
##NPOINTS=825
##XYDATA=(X++(Y..Y))
550.0 84 61 0 31 30 30 44 49 48 68
590.0 111 149 197 265 384 573 731 819 838 762
630.0 617 480 394 335 285 255 231 212 210 226
670.0 252 279 311 344 398 478 571 676 782 902
710.0 1026 1125 1217 1409 1859 2754 4269 6183 8319 10000
750.0 9206 6958 5028 3189 1912 1305 1007 819 675 550
790.0 435 338 271 232 217 191 176 180 163 186
830.0 226 242 247 245 252 254 249 244 237 230
870.0 218 198 185 172 174 188 194 215 239 259
910.0 280 314 354 408 462 513 550 585 621 647
950.0 655 627 541 412 302 215 158 125 98 81
990.0 76 78 81 83 88 99 107 117 124 122
1030.0 127 148 169 213 300 355 340 295 239 160
1070.0 107 102 132 197 285 359 380 346 277 178
1110.0 104 72 53 36 27 17 18 36 43 53
1150.0 66 95 130 165 222 282 329 320 304 304
1190.0 282 247 221 206 192 178 165 159 160 162
1230.0 166 165 174 197 213 232 253 265 279 292
1270.0 308 317 333 359 375 376 372 360 343 338
1310.0 345 359 381 393 372 325 269 211 163 137
1350.0 127 127 130 139 155 169 188 212 242 284
1390.0 338 403 489 606 778 1048 1470 2069 2780 3418
1430.0 3893 3905 3402 2881 2573 2489 2446 2278 1958 1512
1470.0 1157 1086 1237 1541 1955 2374 2603 2534 2209 1648
1510.0 1038 618 383 266 208 174 153 144 143 140
1550.0 137 139 144 150 157 166 177 194 216 251
1590.0 316 415 514 566 546 472 358 249 168 123
1630.0 106 98 93 91 87 85 87 85 86 93
1670.0 102 113 126 140 160 181 198 195 178 160
1710.0 139 124 112 98 91 83 68 57 53 52
1750.0 52 60 67 74 88 100 114 128 147 162
1790.0 179 202 231 268 300 309 297 271 243 224
1830.0 222 223 224 214 192 163 132 115 113 122
1870.0 126 130 136 139 142 149 154 159 163 166
1910.0 174 191 217 249 280 296 298 279 258 258
1950.0 277 291 285 244 184 125 77 46 35 32
1990.0 32 29 28 27 13 11 18 18 21 21
2030.0 18 23 24 23 23 22 20 23 25 25
2070.0 27 28 32 34 37 42 43 44 50 49
2110.0 45 42 41 39 37 32 28 30 31 27
2150.0 25 23 18 18 21 21 20 21 25 24
2190.0 21 19 22 32 34 31 37 46 55 68
2230.0 90 125 171 237 325 396 435 430 381 306
2270.0 229 170 132 104 84 66 53 46 43 43
2310.0 55 75 92 113 133 153 165 165 158 137
2350.0 118 104 97 94 86 78 77 73 62 50
2390.0 41 40 33 27 29 31 32 29 27 30
2430.0 28 26 26 25 23 25 22 15 12 11
2470.0 12 14 17 15 16 21 20 24 32 33
2510.0 33 36 34 35 36 37 40 37 32 39
2550.0 47 41 35 40 39 39 53 63 70 83
2590.0 84 89 98 108 106 96 87 75 70 66
2630.0 57 54 52 47 44 47 44 39 44 43
2670.0 41 50 52 46 45 42 51 57 51 44
2710.0 48 55 62 67 61 63 70 63 68 80
2750.0 71 67 67 61 55 51 55 51 44 44
2790.0 46 46 45 52 57 62 75 94 103 116
2830.0 137 160 174 179 195 203 186 163 146 133
2870.0 132 128 134 150 165 181 196 220 250 295
2910.0 345 400 483 584 692 794 856 863 814 721
2950.0 604 526 500 502 498 468 422 369 325 281
2990.0 261 262 256 268 311 374 481 664 944 1292
3030.0 1616 1808 1804 1637 1384 1170 1075 1108 1278 1575
3070.0 1948 2306 2556 2579 2342 1901 1386 961 673 513
3110.0 438 374 318 261 198 174 154 137 138 139
3150.0 153 160 167 180 200 215 211 192 186 185
3190.0 170 160 159 143 116 106 96 88 86 69
3230.0 50 44 43 49 49 28 23 30 34 30
3270.0 19 23 29 31 38 33 22 32 40 41
3310.0 37 46 47 36 35 40 38 29 20 9
3350.0 7 13 26 21 19 32 37 31 29 30
3390.0 15 7 12 18 29 36 26 29 31 24
3430.0 32 49 35 25 32 25 25 32 27 17
3470.0 17 31 35 28 31 32 34 41 28 21
3510.0 27 25 26 25 32 41 38 36 32 23
3550.0 26 28 24 35 45 38 29 28 20 19
3590.0 26 28 41 35 13 21 29 36 49 42
3630.0 33 28 45 64 60 59 56 45 42 45
3670.0 36 25 37 52 46 45 57 62 51 39
3710.0 38 37 45 50 35 35 47 49 59 58
3750.0 45 46 41 32 32 53 57 52 56 44
3790.0 31 41 50 51 48 50 65 61 51 66
3830.0 75 82 78 68 83
##END=
