##TITLE=4-Methoxybiphenyl
##JCAMP-DX=4.24
##DATA TYPE=INFRARED SPECTRUM
##ORIGIN=NIST Mass Spectrometry Data Center
##OWNER=NIST Standard Reference Data Program
Collection (C) 2018 copyright by the U.S. Secretary of Commerce
on behalf of the United States of America. All rights reserved.
##CAS REGISTRY NO=613-37-6
##MOLFORM=C 13 H 12 O
##$NIST SOURCE=MSDC-IR
##SPECTROMETER/DATA SYSTEM=HP-GC/MS/IRD
##STATE=gas
##XUNITS=1/CM
##YUNITS=ABSORBANCE
##XFACTOR=1.0
##YFACTOR=0.000002900
##DELTAX=4.0
##FIRSTX=550.0
##LASTX=3846.0
##FIRSTY=0.001424
##MAXX=3846
##MINX=550
##MAXY=0.029
##MINY=0
##NPOINTS=825
##XYDATA=(X++(Y..Y))
550.0 491 594 777 1039 1256 1299 1036 609 339 218
590.0 125 83 57 33 30 42 21 10 31 32
630.0 15 36 83 96 86 73 93 136 176 241
670.0 327 429 594 852 1220 1593 1926 2088 1954 1631
710.0 1279 1021 840 704 603 547 524 569 720 985
750.0 1376 1778 2090 2143 1861 1455 1043 699 483 417
790.0 467 565 659 696 688 681 752 955 1276 1630
830.0 1933 2055 1894 1554 1145 781 521 347 238 183
870.0 153 130 117 109 105 94 82 85 96 92
910.0 78 67 54 47 31 30 41 56 56 59
950.0 81 104 122 128 144 165 184 212 274 385
990.0 524 674 885 1101 1221 1237 1151 1094 1090 1133
1030.0 1321 1636 2046 2487 2758 2629 2123 1522 1069 806
1070.0 650 534 433 361 322 322 355 399 433 460
1110.0 454 405 347 288 251 233 227 236 263 302
1150.0 362 472 677 1114 2104 3443 4204 4013 3022 2020
1190.0 1420 1054 902 892 957 1063 1229 1512 1975 2745
1230.0 4021 5931 8234 9934 10000 8421 6395 5260 5016 5011
1270.0 4903 4631 4360 4227 4091 3718 3032 2248 1645 1260
1310.0 989 777 631 537 479 426 372 326 292 269
1350.0 254 251 252 249 253 252 240 222 200 195
1390.0 197 198 218 255 282 299 309 313 338 409
1430.0 540 740 1040 1354 1533 1545 1485 1527 1734 2060
1470.0 2481 3151 4216 5459 6237 6009 4928 3746 3143 3411
1510.0 4454 5535 5715 4686 3069 1804 1178 921 822 793
1550.0 796 804 809 803 796 800 835 876 933 1016
1590.0 1151 1414 1849 2435 3026 3355 3190 2529 1690 1017
1630.0 640 469 374 312 265 229 209 208 207 194
1670.0 177 154 131 111 98 98 97 94 92 94
1710.0 93 82 84 93 102 114 128 148 165 180
1750.0 178 163 145 116 91 81 79 84 96 124
1790.0 160 178 170 142 124 117 110 97 83 77
1830.0 73 72 80 91 106 127 146 165 190 209
1870.0 227 253 274 271 247 204 153 115 92 76
1910.0 72 72 76 89 100 122 149 168 189 201
1950.0 206 193 161 130 109 99 103 104 97 88
1990.0 78 70 68 63 60 59 63 72 82 102
2030.0 129 148 163 178 182 182 182 180 178 177
2070.0 170 169 165 153 145 127 103 88 77 58
2110.0 39 28 19 14 13 11 10 12 11 4
2150.0 1 0 2 5 7 12 13 6 2 5
2190.0 8 13 11 11 8 13 20 23 25 22
2230.0 14 12 15 16 22 29 30 27 30 35
2270.0 35 41 51 57 59 60 58 58 60 67
2310.0 72 71 64 54 44 37 38 43 38 35
2350.0 37 39 37 30 26 21 20 26 30 33
2390.0 33 35 42 46 54 62 67 72 69 61
2430.0 53 49 47 43 46 52 49 46 54 58
2470.0 56 56 59 60 65 71 75 79 84 94
2510.0 110 116 120 131 130 120 114 115 109 100
2550.0 99 91 78 70 66 66 67 70 64 55
2590.0 60 61 64 71 73 66 60 61 61 49
2630.0 40 46 50 46 46 48 45 45 42 36
2670.0 36 38 38 39 41 40 37 33 34 38
2710.0 43 50 53 48 51 59 62 58 57 66
2750.0 79 80 74 79 88 89 99 112 122 126
2790.0 138 153 162 182 217 246 277 314 359 426
2830.0 539 738 1032 1277 1314 1139 883 687 574 511
2870.0 473 461 457 468 492 533 590 655 748 862
2910.0 964 1033 1067 1068 1072 1118 1253 1468 1675 1766
2950.0 1718 1584 1448 1320 1185 1056 941 852 823 846
2990.0 916 1069 1305 1624 1860 1839 1602 1356 1331 1544
3030.0 1894 2228 2334 2156 1823 1565 1501 1661 2058 2480
3070.0 2640 2446 2044 1726 1535 1386 1230 1062 897 748
3110.0 621 507 422 366 318 273 238 211 194 177
3150.0 160 141 124 111 93 81 78 78 76 66
3190.0 65 74 74 63 55 53 58 63 63 56
3230.0 55 55 47 35 33 31 32 36 28 24
3270.0 24 19 25 31 32 32 30 28 30 28
3310.0 23 24 22 20 20 23 30 32 36 28
3350.0 28 29 29 32 32 28 26 26 24 25
3390.0 24 18 12 21 31 23 21 23 20 24
3430.0 32 27 24 24 29 33 34 33 29 22
3470.0 19 29 32 26 24 21 27 36 27 20
3510.0 21 24 26 16 13 25 31 30 27 21
3550.0 26 31 26 14 7 11 20 23 21 15
3590.0 20 25 24 33 34 25 22 21 25 28
3630.0 32 33 35 29 22 32 35 40 51 40
3670.0 43 52 47 39 38 42 42 45 51 47
3710.0 31 33 50 38 26 30 25 37 40 34
3750.0 42 39 36 42 44 39 39 34 25 33
3790.0 36 30 28 28 33 34 31 30 38 42
3830.0 40 40 37 41 39
##END=
