##TITLE=4-Benzylbiphenyl
##JCAMP-DX=4.24
##DATA TYPE=INFRARED SPECTRUM
##ORIGIN=NIST Mass Spectrometry Data Center
##OWNER=NIST Standard Reference Data Program
Collection (C) 2018 copyright by the U.S. Secretary of Commerce
on behalf of the United States of America. All rights reserved.
##CAS REGISTRY NO=613-42-3
##MOLFORM=C 19 H 16
##$NIST SOURCE=MSDC-IR
##SPECTROMETER/DATA SYSTEM=HP-GC/MS/IRD
##STATE=gas
##XUNITS=1/CM
##YUNITS=ABSORBANCE
##XFACTOR=1.0
##YFACTOR=0.000000800
##DELTAX=4.0
##FIRSTX=550.0
##LASTX=3846.0
##FIRSTY=0.000410
##MAXX=3846
##MINX=550
##MAXY=0.008
##MINY=0
##NPOINTS=825
##XYDATA=(X++(Y..Y))
550.0 512 794 656 964 1052 947 845 807 923 834
590.0 616 631 704 922 1223 1388 1347 1097 821 637
630.0 585 456 459 572 558 632 819 933 1038 1353
670.0 1780 2183 2704 3620 4955 6655 8463 9655 9994 9543
710.0 8261 6841 6005 5685 5346 4944 4786 4902 5448 6334
750.0 7001 7149 6740 5705 4284 3071 2205 1607 1283 1154
790.0 1163 1188 1327 1342 1263 1320 1264 1228 1288 1316
830.0 1465 1694 1880 1999 1889 1565 1202 836 624 540
870.0 472 437 414 346 266 293 342 390 436 453
910.0 430 394 357 318 304 238 211 201 207 207
950.0 161 128 133 154 96 22 20 26 39 111
990.0 338 629 856 1607 2844 2969 1808 922 817 1106
1030.0 1255 974 746 630 526 511 490 561 736 951
1070.0 1023 1019 925 724 474 416 516 658 738 767
1110.0 834 775 708 619 508 488 499 479 458 374
1150.0 387 513 585 645 689 746 945 1238 1351 1295
1190.0 1326 1365 1390 1342 1184 1048 950 896 919 981
1230.0 1007 1004 919 802 720 676 653 637 648 630
1270.0 621 685 685 686 750 792 805 790 767 768
1310.0 771 743 730 714 716 700 596 508 502 508
1350.0 496 490 469 451 479 486 489 481 449 454
1390.0 503 558 659 842 959 945 836 703 667 743
1430.0 921 1174 1511 1824 1947 1933 1760 1527 1387 1347
1470.0 1566 2227 3500 5568 7897 8731 7361 4922 2946 1959
1510.0 1767 1929 1853 1517 1125 807 655 586 506 470
1550.0 447 460 550 639 684 753 836 910 1107 1452
1590.0 1931 2604 3237 3405 2948 2111 1408 948 676 532
1630.0 468 419 386 373 369 382 408 447 493 512
1670.0 481 418 368 329 295 294 289 279 249 236
1710.0 275 268 252 291 347 348 329 376 393 353
1750.0 333 354 372 392 392 436 497 554 676 832
1790.0 949 937 800 620 490 420 378 338 313 280
1830.0 244 241 257 262 296 347 379 414 454 499
1870.0 555 567 595 676 655 604 593 592 586 533
1910.0 480 453 421 411 426 480 565 630 661 678
1950.0 694 654 544 384 208 128 122 138 131 112
1990.0 99 88 80 72 76 93 107 85 84 102
2030.0 102 74 49 72 67 57 84 85 75 65
2070.0 73 83 81 90 90 81 65 64 109 114
2110.0 89 74 53 68 93 89 62 60 51 59
2150.0 73 32 22 62 59 62 95 94 83 71
2190.0 51 58 47 38 83 60 23 45 55 33
2230.0 5 8 41 48 38 39 56 65 76 87
2270.0 94 84 89 80 78 105 92 108 139 106
2310.0 121 183 148 133 126 123 153 145 143 113
2350.0 109 130 127 124 118 108 99 102 90 77
2390.0 56 44 80 115 123 109 57 61 116 115
2430.0 112 120 88 68 100 128 103 112 141 128
2470.0 116 94 78 104 98 74 33 21 67 92
2510.0 85 98 114 121 128 113 102 115 101 85
2550.0 58 39 48 71 89 109 120 110 132 138
2590.0 123 135 131 144 143 140 144 141 143 145
2630.0 154 129 126 125 86 83 79 71 53 37
2670.0 67 77 16 0 36 55 65 63 54 50
2710.0 36 35 88 85 60 102 114 90 58 38
2750.0 73 53 31 57 90 120 62 53 84 85
2790.0 74 81 89 79 97 110 140 161 178 234
2830.0 304 352 422 584 769 906 996 933 811 703
2870.0 630 576 567 647 678 705 761 936 1202 1520
2910.0 1991 2432 2738 2840 2669 2348 1978 1581 1244 988
2950.0 765 675 642 560 550 579 599 686 769 849
2990.0 1010 1192 1396 1634 1981 2385 3050 4141 5739 7776
3030.0 9338 9427 8148 6625 5611 5215 5422 6120 7369 9066
3070.0 10000 9013 7252 6161 5441 4727 4062 3385 2796 2303
3110.0 1827 1475 1170 963 827 704 590 459 385 358
3150.0 309 270 257 243 172 146 197 201 168 127
3190.0 128 147 93 88 115 83 36 18 77 134
3230.0 157 140 163 196 141 118 158 162 102 77
3270.0 96 108 80 81 100 35 22 133 138 118
3310.0 133 157 185 137 119 159 156 111 127 116
3350.0 127 155 112 125 216 286 268 208 186 163
3390.0 153 173 123 102 192 234 194 157 147 123
3430.0 100 105 161 213 169 178 206 209 239 156
3470.0 138 248 295 249 236 223 197 196 193 220
3510.0 235 257 207 164 148 132 164 218 228 211
3550.0 255 263 219 153 140 217 261 234 239 228
3590.0 215 184 143 154 131 95 194 244 212 177
3630.0 132 189 214 301 372 353 341 334 362 337
3670.0 317 338 277 202 268 327 300 246 186 164
3710.0 211 265 315 233 166 251 254 267 294 228
3750.0 328 353 243 240 211 243 287 231 216 187
3790.0 185 266 375 358 286 236 236 277 310 289
3830.0 226 260 250 157 211
##END=
