##TITLE=S-(-)-1-Phenylpropanol
##JCAMP-DX=4.24
##DATA TYPE=INFRARED SPECTRUM
##ORIGIN=EPA-IR VAPOR PHASE LIBRARY
##OWNER=SRD/NIST
Collection (C) 2018 copyright by the U.S. Secretary of Commerce
on behalf of the United States of America. All rights reserved.
##CAS REGISTRY NO=613-87-6
##MOLFORM=C 9 H 12 O
##$NIST SOURCE=MSDC-IR
##STATE=gas
##XUNITS=1/CM
##YUNITS=ABSORBANCE
##XFACTOR=1.
##YFACTOR=0.001
##DELTAX=1.92898
##FIRSTX=549.8
##LASTX=4000.7
##FIRSTY=6.199
##MAXX=4000.7
##MINX=549.759
##MAXY=0.051549
##MINY=0
##NPOINTS=1790
##XYDATA=(X++(Y..Y))
549.759 6.199 5.739 5.079 4.819 3.999 3.219 3.529 3.709 3.769 3.489
569.049 3.129 3.059 3.179 3.029 3.049 2.969 3.229 3.339 2.829 2.709
588.339 3.049 3.329 2.979 3.109 3.779 3.949 4.169 4.379 4.159 4.389
607.628 4.649 4.479 4.239 4.589 5.179 5.089 5.479 5.779 5.309 5.319
626.918 5.699 5.689 5.659 5.449 4.859 4.659 4.499 4.239 4.639 5.019
646.208 5.039 5.239 5.539 5.809 6.109 6.359 6.819 7.099 6.919 6.999
665.498 7.549 8.189 8.439 8.779 9.669 10.859 12.299 14.449 16.959 19.759
684.787 23.409 27.739 31.809 35.679 39.699 43.309 46.359 47.739 46.859 44.699
704.077 42.099 38.919 35.189 31.209 27.619 24.089 20.609 18.009 15.989 14.799
723.367 14.379 14.019 14.179 14.469 15.049 16.189 17.579 18.919 20.409 22.099
742.657 23.069 23.939 25.099 26.149 26.759 26.899 26.699 26.509 25.659 24.639
761.947 23.579 22.259 20.509 18.339 16.059 14.119 12.659 10.879 9.279 8.239
781.236 7.359 6.599 5.709 4.869 4.619 4.599 4.519 4.379 4.079 3.909
800.526 3.889 3.899 3.849 3.689 3.779 3.579 3.399 3.469 3.539 3.749
819.816 3.999 4.229 4.209 4.339 4.749 4.929 5.089 5.159 5.259 5.329
839.106 5.199 4.979 4.659 4.459 4.309 4.289 4.119 3.859 3.559 3.609
858.395 3.909 3.899 4.099 4.609 4.749 4.779 5.249 5.569 5.619 5.759
877.685 5.979 6.579 7.039 7.199 7.779 8.219 8.429 8.629 8.919 9.379
896.975 9.579 9.499 9.419 9.429 9.589 9.469 8.789 8.289 8.059 7.859
916.265 7.429 7.349 7.459 7.309 7.119 6.759 6.629 6.669 6.769 7.089
935.555 7.399 7.789 8.179 8.559 9.159 9.849 10.429 11.219 12.269 13.269
954.844 14.519 15.869 17.029 18.559 20.529 22.079 23.699 25.549 26.629 27.259
974.134 27.909 28.059 28.049 27.799 26.999 26.269 25.699 24.959 24.439 24.489
993.424 24.679 25.359 26.059 26.449 27.019 27.809 28.669 29.209 29.219 29.179
1012.714 29.029 28.689 28.559 28.139 27.269 26.099 25.119 24.449 24.009 23.809
1032.003 23.999 24.459 24.639 23.719 22.579 22.099 21.949 21.449 20.239 19.719
1051.293 19.219 18.109 18.179 18.299 17.529 17.089 16.699 16.859 17.559 18.079
1070.583 17.819 16.959 17.369 18.939 18.929 18.459 19.239 19.419 19.259 19.209
1089.873 18.799 17.799 17.759 18.779 19.059 17.599 16.539 16.149 16.029 16.069
1109.163 14.559 13.569 13.019 12.279 12.199 11.349 10.329 9.819 9.149 8.489
1128.452 7.919 7.379 6.409 6.779 7.419 6.529 6.139 5.859 5.489 5.729
1147.742 5.599 5.559 6.489 7.269 7.449 7.819 8.579 8.899 9.739 10.289
1167.032 10.349 10.839 11.919 12.659 12.999 13.679 13.669 13.869 13.869 13.869
1186.322 14.039 13.949 13.639 13.469 14.069 14.649 14.599 13.969 13.709 14.889
1205.611 15.569 15.339 15.979 16.569 17.189 18.029 17.659 17.569 18.369 18.799
1224.901 18.509 18.339 17.949 17.379 17.179 16.209 14.959 14.919 14.919 14.549
1244.191 14.479 14.019 13.869 13.969 13.749 13.969 14.579 15.029 15.079 14.679
1263.481 14.949 15.789 15.779 15.389 15.449 15.849 15.919 15.769 15.889 16.159
1282.771 16.099 15.979 16.319 16.429 16.419 16.409 16.319 16.129 16.099 16.299
1302.060 16.269 16.179 16.049 15.959 15.959 15.849 15.709 15.649 15.689 15.539
1321.350 15.309 15.179 14.879 14.509 14.299 13.989 13.609 13.419 13.209 12.989
1340.640 12.949 13.129 13.289 13.569 14.019 14.479 15.049 15.619 16.199 16.689
1359.930 17.079 17.539 17.959 18.249 18.489 18.639 18.639 18.709 18.769 18.649
1379.219 18.369 18.079 17.649 17.029 16.419 15.639 14.759 13.979 13.029 12.019
1398.509 11.179 10.409 9.649 8.919 8.259 7.749 7.429 7.049 6.839 6.719
1417.799 6.579 6.519 6.579 6.709 6.929 7.229 7.469 7.969 8.749 9.699
1437.089 10.799 11.889 13.049 14.339 15.659 16.779 17.699 18.379 18.769 18.909
1456.378 18.879 18.569 17.979 17.219 16.359 15.339 14.219 13.279 12.599 11.959
1475.668 11.419 11.069 11.059 11.339 11.799 12.249 12.459 12.469 12.409 12.219
1494.958 11.769 11.079 10.259 9.189 7.979 6.849 5.639 4.679 4.089 3.699
1514.248 3.449 3.259 2.999 2.919 2.849 2.709 2.779 2.709 2.659 2.739
1533.538 2.769 2.819 2.769 2.629 2.579 2.559 2.469 2.389 2.339 2.199
1552.827 2.149 2.179 2.039 1.929 1.999 2.019 2.079 2.079 2.139 2.249
1572.117 2.189 2.319 2.599 2.679 2.809 3.119 3.359 3.619 3.889 4.099
1591.407 4.549 5.099 5.289 5.409 5.559 5.639 5.429 4.909 4.509 4.339
1610.697 3.929 3.269 2.819 2.539 2.219 1.909 1.689 1.639 1.609 1.559
1629.986 1.559 1.579 1.579 1.589 1.549 1.479 1.489 1.579 1.709 1.759
1649.276 1.739 1.779 1.859 1.889 1.879 1.959 2.019 1.969 1.999 2.119
1668.566 2.139 2.109 2.099 2.249 2.379 2.359 2.489 2.669 2.929 3.149
1687.856 3.359 3.739 4.159 4.519 4.939 5.439 5.889 6.129 6.059 5.949
1707.146 5.879 5.759 5.459 5.069 4.579 3.939 3.319 2.929 2.629 2.299
1726.435 2.209 2.099 1.989 1.919 1.819 1.749 1.779 1.889 1.909 1.879
1745.725 1.859 1.799 1.779 1.819 1.689 1.619 1.659 1.569 1.449 1.459
1765.015 1.409 1.399 1.479 1.519 1.459 1.2394 1.359 1.559 1.549 1.689
1784.305 1.829 2.019 2.249 2.509 2.739 2.859 3.009 3.089 3.169 3.239
1803.594 3.079 2.819 2.649 2.479 2.219 1.949 1.789 1.599 1.389 1.3087
1822.884 1.1882 1.1222 1.0903 1.0567 1.0429 0.991 1.0053 1.0833 0.9859 0.8868
1842.174 0.9219 0.9655 1.0767 1.1981 1.2861 1.2809 1.349 1.549 1.549 1.539
1861.464 1.709 1.929 1.979 1.949 2.079 2.209 2.259 2.349 2.519 2.529
1880.754 2.539 2.549 2.539 2.549 2.379 2.219 2.069 2.009 1.899 1.629
1900.043 1.419 1.3175 1.2618 1.2096 1.1409 1.1761 1.0166 0.9413 1.2056 1.349
1919.333 1.429 1.459 1.589 1.749 1.869 2.039 2.249 2.439 2.559 2.659
1938.623 2.739 2.959 3.079 3.029 3.139 3.239 3.159 3.039 2.959 2.799
1957.913 2.529 2.289 2.049 1.899 1.819 1.549 1.2697 1.1866 1.0918 0.9029
1977.202 0.8298 0.7695 0.6689 0.7998 0.8152 0.7063 0.6507 0.6824 0.8281 0.7928
1996.492 0.6585 0.6318 0.5677 0.5231 0.683 0.6867 0.509 0.4999 0.5827 0.6542
2015.782 0.6279 0.6248 0.549 0.4369 0.5004 0.5838 0.6698 0.694 0.626 0.5871
2035.072 0.5949 0.5481 0.5179 0.5095 0.5926 0.6627 0.5269 0.4795 0.5819 0.657
2054.362 0.6779 0.627 0.5121 0.4567 0.5377 0.5668 0.4987 0.41543 0.4807 0.4906
2073.651 0.38802 0.35577 0.32716 0.4558 0.547 0.5101 0.4886 0.4946 0.5705 0.5392
2092.941 0.503 0.4737 0.4901 0.5749 0.5209 0.41369 0.35245 0.3082 0.185 0.207
2112.231 0.40624 0.4292 0.4457 0.41919 0.37894 0.4382 0.4599 0.4975 0.40627 0.35779
2131.521 0.39561 0.254 0.226 0.336319 0.4541 0.5071 0.4789 0.4971 0.4573 0.42725
2150.810 0.459 0.4455 0.38851 0.35174 0.41213 0.4919 0.4891 0.451 0.42432 0.452
2170.100 0.4505 0.4836 0.4951 0.4416 0.5043 0.5239 0.4586 0.5151 0.4803 0.4742
2189.390 0.5048 0.4926 0.5388 0.6082 0.5897 0.5427 0.6098 0.6244 0.5473 0.4427
2208.680 0.51 0.6211 0.5434 0.468 0.5399 0.5028 0.4823 0.5684 0.5107 0.5046
2227.970 0.5494 0.5316 0.5805 0.6461 0.6073 0.5006 0.5525 0.5685 0.39276 0.4575
2247.259 0.5945 0.589 0.5502 0.4532 0.5601 0.6113 0.5084 0.5161 0.6098 0.7404
2266.549 0.6531 0.534 0.4924 0.5324 0.5981 0.6561 0.7252 0.7112 0.6687 0.6644
2285.839 0.6569 0.6549 0.6607 0.5921 0.5908 0.7134 0.8077 0.765 0.6868 0.6982
2305.129 0.7049 0.7053 0.809 0.9112 0.9639 1.0385 1.032 1.0058 0.9804 0.9566
2324.418 0.9997 0.8316 0.6641 0.8386 0.9292 0.8818 0.9529 0.9849 0.9879 1.0111
2343.708 1.0176 0.9904 1.0351 0.9847 0.8357 0.843 0.827 0.6209 0.6374 0.7781
2362.998 0.8092 0.8684 0.8532 0.7488 0.6696 0.6506 0.7345 0.7561 0.6919 0.5971
2382.288 0.6603 0.6953 0.6314 0.6578 0.6213 0.7425 0.8453 0.7673 0.7282 0.7133
2401.578 0.6877 0.8046 0.7382 0.616 0.7099 0.6797 0.7114 0.8114 0.8364 0.9033
2420.867 0.8987 0.8851 0.886 0.8927 0.8456 0.8122 0.8079 0.8162 0.8899 0.8152
2440.157 0.7486 0.8626 0.7847 0.6727 0.7895 0.7835 0.6948 0.7083 0.8109 0.8034
2459.447 0.7402 0.7797 0.7143 0.7063 0.7228 0.7452 0.7947 0.7382 0.7831 0.7266
2478.737 0.6122 0.5959 0.6298 0.6614 0.6338 0.622 0.6318 0.657 0.605 0.5098
2498.026 0.5014 0.6356 0.6724 0.6216 0.6796 0.6433 0.6652 0.8421 0.7494 0.6003
2517.316 0.7111 0.7135 0.6759 0.7368 0.68 0.7297 0.818 0.7027 0.5404 0.553
2536.606 0.6407 0.7327 0.8181 0.8043 0.8152 0.7765 0.6422 0.7185 0.8781 0.9481
2555.896 0.9672 1.0105 1.1416 1.1943 1.1093 0.968 0.9947 1.0669 1.0169 1.0356
2575.186 1.1545 1.0793 1.1836 1.329 1.248 1.2586 1.0952 1.0968 1.0846 1.1234
2594.475 1.2473 1.2078 1.2556 1.2448 1.1919 1.2075 1.2095 1.0079 0.8918 1.065
2613.765 1.1852 1.2334 1.2735 1.128 1.1167 1.1658 1.0195 1.0906 1.1954 1.132
2633.055 1.1686 1.3151 1.349 1.1342 0.8602 0.8214 0.9669 1.0394 1.1542 1.1199
2652.345 1.0415 0.9018 0.9393 1.0429 0.8764 0.9437 1.0712 1.0989 1.2137 1.379
2671.634 1.3219 1.144 1.1664 1.1955 1.1722 1.1776 1.0842 1.1558 1.369 1.449
2690.924 1.519 1.479 1.459 1.559 1.539 1.349 1.2977 1.3097 1.2466 1.278
2710.214 1.429 1.559 1.449 1.429 1.499 1.459 1.469 1.599 1.579 1.609
2729.504 1.659 1.539 1.359 1.399 1.729 1.729 1.779 1.909 1.869 1.889
2748.794 1.919 1.919 1.879 1.859 1.859 1.859 1.879 1.759 1.939 1.999
2768.083 1.929 2.069 2.039 2.149 2.369 2.359 2.359 2.389 2.319 2.239
2787.373 2.349 2.479 2.519 2.569 2.559 2.689 2.659 2.559 2.729 2.929
2806.663 3.019 3.049 3.159 3.439 3.479 3.419 3.749 3.979 4.179 4.549
2825.953 4.799 4.839 4.909 5.229 5.609 6.059 6.519 6.789 7.249 7.879
2845.242 8.479 9.209 10.109 11.209 12.339 13.449 14.719 16.159 17.879 19.619
2864.532 21.039 22.569 24.389 26.279 28.119 30.029 31.959 33.769 35.239 36.119
2883.822 36.459 36.299 35.709 34.889 33.609 31.959 30.019 27.939 26.289 24.729
2903.112 23.519 22.729 22.149 21.969 22.029 22.279 22.639 23.659 24.939 26.419
2922.401 28.259 30.009 32.329 35.119 37.709 40.179 42.529 44.499 45.989 46.859
2941.691 47.149 46.809 45.969 44.559 42.869 41.219 39.549 38.319 37.629 37.489
2960.981 38.419 40.119 42.309 45.119 47.989 50.359 51.549 51.269 50.379 49.219
2980.271 46.959 43.769 40.209 36.279 32.059 27.669 23.529 20.249 17.789 15.929
2999.561 14.479 13.239 12.319 11.939 11.759 11.719 12.119 12.899 13.789 14.709
3018.850 16.069 17.809 19.539 21.239 23.089 24.689 25.979 27.039 27.599 27.659
3038.140 27.079 26.329 25.499 24.289 22.979 21.789 20.739 20.119 19.999 20.369
3057.430 21.369 23.059 25.069 26.919 28.789 30.439 31.439 31.969 32.119 31.639
3076.720 31.029 29.889 27.639 25.519 23.399 21.429 20.059 18.719 17.469 16.429
3096.009 15.399 14.349 13.389 12.329 11.139 10.189 9.229 8.159 7.519 6.759
3115.299 5.929 5.409 4.819 4.209 3.669 3.299 2.979 2.819 2.809 2.479
3134.589 2.079 1.939 1.909 1.889 1.909 1.899 1.839 1.739 1.779 1.569
3153.879 1.2549 1.2528 1.379 1.679 1.769 1.599 1.499 1.399 1.359 1.369
3173.169 1.409 1.2838 1.019 0.8501 0.9434 1.1398 1.1808 1.1134 1.0465 0.922
3192.458 0.8822 1.0126 0.952 0.8435 0.7043 0.7063 0.6555 0.6614 0.6877 0.5895
3211.748 0.7422 0.5717 0.37043 0.5887 0.5955 0.5895 0.6263 0.5121 0.4396 0.32551
3231.038 0.42047 0.6173 0.5401 0.2912 0.228 0.35381 0.38809 0.5337 0.4524 0.4451
3250.328 0.5648 0.3093 0.114 0.447 0.8762 0.8415 0.6693 0.5303 0.5717 0.6852
3269.617 0.4564 0.40816 0.6748 0.6134 0.40141 0.222 0.338684 0.5433 0.5402 0.5445
3288.907 0.5268 0.37086 0.2925 0.40455 0.4815 0.4687 0.3128 0.169 0.195 0.35625
3308.197 0.315 0.39498 0.4254 0.209 0 0.058 0.181 0.143 0.41736 0.48
3327.487 0.37765 0.5085 0.7753 0.635 0.4875 0.5066 0.334113 0.36885 0.36943 0.211
3346.777 0.3154 0.6089 0.4953 0.42889 0.773 0.9709 0.9488 0.8095 0.4834 0.41445
3366.066 0.5595 0.4701 0.6509 0.8193 0.7834 0.758 0.7679 0.7133 0.574 0.604
3385.356 0.7717 0.7674 0.6566 0.8319 0.7872 0.6625 0.8003 0.8913 0.7783 0.5877
3404.646 0.6784 0.8888 0.9696 0.8771 0.6761 0.712 0.9034 0.7415 0.5812 0.5988
3423.936 0.5456 0.5396 0.5209 0.8401 1.0397 1.0487 1.1413 0.8826 0.497 0.42049
3443.225 0.4683 0.4299 0.6033 0.7269 0.6088 0.5265 0.6361 0.6938 0.73 0.9071
3462.515 0.6949 0.40857 0.5027 0.7534 0.8324 0.5321 0.6959 0.631 0.218 0.42076
3481.805 0.6353 0.6296 0.5743 0.7885 0.9616 0.8021 0.6714 0.4839 0.5233 0.5457
3501.095 0.5894 0.8525 0.6661 0.5127 0.659 0.543 0.37578 0.4947 0.6125 0.42133
3520.385 0.39414 0.5829 0.4473 0.6517 0.7894 0.7304 0.7615 0.6114 0.4364 0.36785
3539.674 0.6494 0.7182 0.7182 0.6909 0.6807 0.6053 0.36705 0.39527 0.4331 0.4358
3558.964 0.5983 0.7174 0.6553 0.5047 0.5528 0.5877 0.5638 0.7172 0.6216 0.6099
3578.254 0.909 0.9817 0.8352 0.8762 0.7848 0.7203 0.7412 0.8464 0.9382 1.0389
3597.544 1.0344 0.8563 0.8959 1.0198 1.2633 1.2666 1.2723 1.469 1.809 2.049
3616.833 1.959 2.099 2.509 2.979 3.389 3.689 4.479 5.359 6.099 7.519
3636.123 8.899 10.029 11.099 12.239 13.379 14.079 14.669 14.949 14.669 14.009
3655.413 13.209 12.329 11.039 9.709 8.379 7.109 6.279 5.419 4.369 3.689
3674.703 3.389 2.869 2.439 2.219 1.729 1.2921 1.379 1.589 1.709 1.459
3693.993 1.399 1.479 1.389 1.2957 0.9784 0.8087 0.8137 0.8506 0.8444 0.8558
3713.282 0.9335 1.0737 1.2247 1.0925 0.8418 0.771 0.7511 0.6478 0.5277 0.41428
3732.572 0.42679 0.7965 0.8172 0.8202 1.0366 0.9432 0.8524 0.9037 0.7653 0.5633
3751.862 0.5645 0.7162 0.7265 0.6727 0.6872 0.6316 0.6619 0.7796 0.7328 0.7477
3771.152 0.8148 0.7353 0.6463 0.5055 0.5517 0.659 0.7002 0.594 0.41522 0.5265
3790.441 0.4648 0.5138 0.6608 0.633 0.6439 0.5683 0.6346 0.6304 0.4931 0.5528
3809.731 0.6196 0.7257 0.9961 0.8299 0.6434 0.6545 0.6858 0.9437 0.8295 0.7318
3829.021 0.9108 0.6888 0.5908 0.7706 0.5908 0.7479 0.9228 0.717 0.6147 0.8106
3848.311 0.8768 0.6714 0.9389 1.0413 0.9576 0.8933 0.8892 1.0923 0.9978 0.7445
3867.601 0.9594 1.0255 0.7188 0.7629 0.8001 0.9069 1.2373 1.349 1.2659 1.1218
3886.890 0.9594 1.1734 1.0961 0.6661 0.5556 0.6963 0.8236 0.9285 1.1104 0.9466
3906.180 0.4476 0.4679 0.8772 0.9151 0.9603 0.8471 0.5596 0.43 0.4486 0.6014
3925.470 0.7907 0.8581 0.9544 0.8812 0.6575 0.6138 0.7239 0.8298 0.8402 0.6444
3944.760 0.6281 0.6514 0.42323 0.34754 0.5173 0.646 0.5009 0.3106 0.198 0.6254
3964.049 0.6481 0.37107 0.456 0.5143 0.5937 0.5383 0.4683 0.7083 0.7201 0.6786
3983.339 0.9225 0.7167 0.5456 0.37326 0.2867 0.5323 0.57 0.4394 0.4995 0.7951
##END=
