##TITLE=2,2'-Dinaphthyl ether
##JCAMP-DX=4.24
##DATA TYPE=INFRARED SPECTRUM
##ORIGIN=EPA-IR VAPOR PHASE LIBRARY
##OWNER=SRD/NIST
Collection (C) 2018 copyright by the U.S. Secretary of Commerce
on behalf of the United States of America. All rights reserved.
##CAS REGISTRY NO=613-80-9
##MOLFORM=C 20 H 14 O
##$NIST SOURCE=MSDC-IR
##STATE=gas
##XUNITS=1/CM
##YUNITS=ABSORBANCE
##XFACTOR=1.
##YFACTOR=0.001
##DELTAX=1.92934
##FIRSTX=549.9
##LASTX=3999.5
##FIRSTY=0.857
##MAXX=3999.53
##MINX=549.863
##MAXY=0.086
##MINY=0
##NPOINTS=1789
##XYDATA=(X++(Y..Y))
549.863 0.857 0.9 0.753 0.757 0.768 0.705 0.768 0.725 0.698 0.774
569.156 0.769 0.637 0.652 0.784 0.796 0.823 0.831 0.895 0.957 0.881
588.450 0.79 0.692 0.604 0.656 0.747 0.782 0.806 0.896 1.069 1.2161
607.743 1.2999 1.4985 1.9274 2.45 3.23 4.35 5.18 5.43 5.26 4.55
627.037 3.65 2.96 2.53 2.27 2.0439 1.894 1.7437 1.68 1.6379 1.5756
646.330 1.5395 1.4433 1.3607 1.26274 1.1889 1.1614 1.062 0.947 0.921 0.92
665.624 0.94 0.924 0.883 0.872 0.914 0.954 0.933 0.92 0.926 0.964
684.917 1.002 1.082 1.202 1.28358 1.3944 1.51 1.6074 1.7517 1.8615 1.9426
704.210 2.0136 2.0553 2.0834 2.1534 2.1988 2.2247 2.35 2.51 2.71 2.96
723.504 3.34 3.95 4.7 5.79 7.19 8.87 10.84 12.95 14.99 16.64
742.797 17.76 18.06 17.46 16.11 14.15 11.88 9.72 7.9 6.42 5.36
762.091 4.66 4.11 3.71 3.45 3.19 2.89 2.69 2.6 2.58 2.55
781.384 2.47 2.48 2.61 2.81 3.06 3.46 4.09 4.91 5.95 7.17
800.678 8.57 9.98 11.16 11.82 11.72 10.98 9.64 8.01 6.53 5.38
819.971 4.5 3.87 3.61 3.6 3.66 3.88 4.37 5.08 5.99 7.09
839.264 8.33 9.62 10.86 11.84 12.42 12.5 12.06 11.19 10.03 8.69
858.558 7.45 6.43 5.64 5.19 5.04 5.06 5.18 5.37 5.59 5.79
877.851 5.94 5.98 5.85 5.53 5.19 4.92 4.7 4.54 4.32 4.1
897.145 3.89 3.67 3.49 3.36 3.32 3.32 3.57 4.19 5.18 6.28
916.438 7.08 7.37 7.08 6.28 5.29 4.47 3.92 3.59 3.39 3.3
935.732 3.31 3.37 3.47 3.51 3.6 3.76 4.02 4.38 4.78 5.28
955.025 5.98 7.07 8.89 12.14 17.16 22.77 26.41 26.52 23.28 17.56
974.318 11.63 7.56 5.33 4.17 3.56 3.2 2.9 2.63 2.44 2.2333
993.612 2.0018 1.823 1.6863 1.6003 1.5727 1.5436 1.5333 1.5749 1.6577 1.7434
1012.905 1.8513 1.9184 1.9127 1.8697 1.729 1.5806 1.4865 1.4026 1.334 1.27145
1032.199 1.2349 1.2134 1.214 1.1783 1.133 1.156 1.1728 1.145 1.142 1.139
1051.492 1.115 1.109 1.119 1.143 1.131 1.09 1.09 1.124 1.114 1.051
1070.786 1.038 1.091 1.098 1.03 1.059 1.094 1.133 1.1954 1.151 1.1835
1090.079 1.27312 1.33021 1.3916 1.5822 1.8034 2.0239 2.32 2.63 2.96 3.31
1109.372 3.71 4.09 4.54 5.21 6.4 8 9.31 9.78 9.36 8.14
1128.666 6.75 5.85 5.45 5.21 4.98 4.87 4.97 5.24 5.64 6.14
1147.959 6.63 7.05 7.46 8.04 8.91 10.26 12.47 15.96 21.49 30.04
1167.253 41.15 51.29 55.9 53.21 44.33 32.05 20.86 13.51 9.4 7.25
1186.546 6.18 5.68 5.59 5.8 6.37 7.25 8.42 9.96 11.9 14.42
1205.840 17.65 22.33 28.87 36.92 45.07 50.45 51.04 46.65 38.51 29.53
1225.133 22.24 17.46 15.2 14.8 15.79 18.24 22.25 28.06 35.89 45.88
1244.426 57.62 69.82 80.15 86 85.77 79.37 68.71 56.51 45.33 36.26
1263.720 29.33 24.13 19.85 16.15 13.19 10.91 9.15 7.8 6.73 5.86
1283.013 5.32 4.92 4.55 4.29 4.07 3.9 3.73 3.55 3.38 3.22
1302.307 3.04 2.96 2.94 2.86 2.86 2.91 2.95 3.1 3.24 3.35
1321.600 3.45 3.58 3.71 3.9 4.14 4.44 4.82 5.22 5.8 6.51
1340.894 7.23 7.98 8.74 9.44 10.04 10.64 11.3 12.06 12.82 13.41
1360.187 13.65 13.33 12.61 11.68 10.81 10.32 10.24 10.52 10.93 11.17
1379.480 11.1 10.67 9.95 9.1 8.26 7.55 6.99 6.51 6.04 5.56
1398.774 5.08 4.71 4.45 4.27 4.13 3.93 3.84 3.79 3.72 3.76
1418.067 3.9 4 4.06 4.1 4.06 4.04 4.07 4.2 4.46 4.83
1437.361 5.35 6.03 6.86 7.83 8.88 10.04 11.67 14.13 17.97 23.44
1456.654 30.43 37.55 42.55 44.12 41.73 36.25 29.39 22.99 18.1 14.71
1475.948 12.56 11.17 10.38 9.99 9.89 9.91 9.97 10.12 10.4 10.91
1495.241 11.98 13.85 16.68 20.52 24.97 29.18 31.78 31.39 27.97 22.44
1514.534 16.51 11.6 8.37 6.48 5.3 4.56 4.09 3.79 3.62 3.53
1533.828 3.47 3.44 3.4 3.36 3.25 3.13 3.09 3.04 3.03 3.11
1553.121 3.2 3.31 3.56 3.89 4.22 4.6 5.14 5.79 6.64 7.75
1572.415 9.05 10.63 12.45 14.19 15.84 17.46 18.97 20.56 22.51 24.91
1591.708 27.47 29.65 30.68 29.93 27.36 23.47 19.16 15.37 12.65 10.95
1611.002 10.05 9.88 10.43 11.78 13.86 16.69 20.14 23.7 26.57 27.99
1630.295 27.43 25.01 21.44 17.46 14.02 11.33 9.33 7.88 6.78 5.95
1649.588 5.3 4.84 4.43 4.08 3.82 3.6 3.41 3.26 3.16 3.06
1668.882 2.99 2.93 2.87 2.86 2.9 2.93 2.98 3.07 3.1 3.07
1688.175 3.04 2.94 2.81 2.69 2.57 2.45 2.43 2.4 2.33 2.28
1707.469 2.2591 2.2029 2.1826 2.2053 2.1497 2.0828 2.0602 2.0272 1.9877 2.0004
1726.762 1.9982 1.9965 2.013 2.0065 1.9759 2.0177 2.1506 2.2363 2.31 2.42
1746.056 2.5 2.51 2.47 2.39 2.27 2.1935 2.1411 2.0891 2.0582 2.0086
1765.349 1.9401 1.9421 1.973 2.0235 2.0797 2.0922 2.127 2.1405 2.0759 1.9886
1784.642 1.9389 1.9383 1.9537 1.9536 1.9727 1.935 1.8543 1.858 1.9047 1.8953
1803.936 1.8957 1.9538 1.9709 1.9854 2.0758 2.145 2.2041 2.28 2.32 2.32
1823.229 2.31 2.2547 2.1614 2.0707 1.9967 1.9553 1.8909 1.8205 1.7818 1.7443
1842.523 1.7491 1.7467 1.697 1.6818 1.6684 1.6194 1.6084 1.625 1.6177 1.6619
1861.816 1.7019 1.7343 1.791 1.8482 1.9244 1.9935 2.074 2.1415 2.196 2.2474
1881.110 2.3 2.39 2.45 2.5 2.61 2.67 2.69 2.69 2.63 2.58
1900.403 2.56 2.57 2.55 2.56 2.55 2.52 2.52 2.48 2.39 2.34
1919.696 2.29 2.2406 2.2466 2.2347 2.2579 2.31 2.34 2.46 2.61 2.67
1938.990 2.64 2.58 2.44 2.2398 2.0618 1.9008 1.784 1.7276 1.6917 1.6247
1958.283 1.5859 1.5362 1.4615 1.4509 1.4242 1.3594 1.32989 1.29742 1.26052 1.25262
1977.577 1.27561 1.2593 1.223 1.2213 1.2301 1.25211 1.2301 1.2024 1.1861 1.184
1996.870 1.2019 1.189 1.2052 1.2228 1.197 1.1869 1.2261 1.2434 1.2446 1.27873
2016.164 1.26935 1.25902 1.26336 1.25562 1.2412 1.2237 1.2446 1.27021 1.2472 1.2299
2035.457 1.26029 1.2509 1.2288 1.2123 1.1834 1.2032 1.2306 1.2256 1.25033 1.27103
2054.750 1.28026 1.2967 1.29592 1.32738 1.3842 1.4028 1.4183 1.4459 1.4781 1.5428
2074.044 1.5718 1.5729 1.5949 1.5876 1.535 1.4574 1.414 1.3741 1.32894 1.32198
2093.337 1.32594 1.31479 1.27922 1.2236 1.26063 1.33519 1.32949 1.3022 1.31205 1.3737
2112.631 1.3889 1.3918 1.4131 1.4024 1.3858 1.4386 1.4738 1.4404 1.4286 1.4199
2131.924 1.4215 1.4254 1.3973 1.34726 1.32515 1.3558 1.35231 1.32644 1.3624 1.3834
2151.218 1.33673 1.31266 1.32757 1.30831 1.31758 1.34128 1.33994 1.334 1.3034 1.28856
2170.511 1.28648 1.30805 1.30525 1.26278 1.2436 1.1997 1.144 1.117 1.104 1.12
2189.804 1.126 1.099 1.075 1.071 1.107 1.129 1.11 1.111 1.132 1.15
2209.098 1.1681 1.1671 1.156 1.117 1.114 1.1656 1.152 1.112 1.121 1.139
2228.391 1.1732 1.2009 1.2183 1.2371 1.2153 1.1767 1.132 1.12 1.104 1.079
2247.685 1.104 1.115 1.123 1.128 1.117 1.116 1.117 1.1759 1.2214 1.2113
2266.978 1.2207 1.30047 1.3622 1.3832 1.4462 1.5145 1.546 1.5636 1.5677 1.524
2286.272 1.4341 1.374 1.3101 1.247 1.2345 1.2155 1.2275 1.26393 1.2402 1.2176
2305.565 1.2277 1.2164 1.226 1.27769 1.34238 1.4125 1.4881 1.5769 1.6757 1.7419
2324.858 1.7573 1.7384 1.7357 1.6799 1.5652 1.4982 1.4215 1.3633 1.3686 1.34644
2344.152 1.34181 1.33718 1.32592 1.3982 1.4919 1.5417 1.5523 1.5957 1.6525 1.6891
2363.445 1.6795 1.6203 1.5902 1.595 1.5532 1.5082 1.4775 1.425 1.3866 1.3738
2382.739 1.372 1.35366 1.3319 1.27991 1.25694 1.27904 1.28557 1.30786 1.3476 1.32846
2402.032 1.31312 1.35334 1.3747 1.3606 1.34968 1.33547 1.32296 1.30033 1.2469 1.2368
2421.326 1.222 1.1892 1.1959 1.1758 1.157 1.139 1.115 1.102 1.066 1.111
2440.619 1.123 1.059 1.061 1.052 1.024 1.032 1.069 1.07 1.046 1.077
2459.912 1.109 1.087 1.08 1.082 1.086 1.092 1.076 1.049 1.035 1.034
2479.206 1.046 1.038 1.039 1.06 1.037 1.053 1.079 1.06 1.064 1.088
2498.499 1.111 1.115 1.092 1.073 1.058 1.055 1.065 1.043 1.001 0.982
2517.793 0.992 0.997 0.992 0.976 0.95 0.95 0.952 0.938 0.934 0.927
2537.086 0.916 0.888 0.894 0.939 0.914 0.91 0.956 0.952 0.965 0.998
2556.380 0.963 0.98 1.011 1.007 1.036 1.019 1.021 1.017 0.979 1.003
2575.673 0.977 0.934 0.945 0.955 0.962 1.007 1.027 1.005 1.045 1.071
2594.966 1.056 1.049 1.063 1.062 1.055 1.029 1.004 0.973 0.921 0.916
2614.260 0.913 0.881 0.871 0.915 0.947 0.942 0.886 0.865 0.887 0.856
2633.553 0.834 0.845 0.829 0.814 0.797 0.805 0.81 0.748 0.711 0.737
2652.847 0.776 0.765 0.765 0.766 0.726 0.68 0.609 0.591 0.609 0.614
2672.140 0.628 0.653 0.692 0.694 0.643 0.617 0.644 0.643 0.65 0.686
2691.434 0.689 0.649 0.623 0.649 0.695 0.686 0.646 0.655 0.68 0.717
2710.727 0.746 0.714 0.714 0.727 0.719 0.74 0.73 0.759 0.774 0.748
2730.020 0.732 0.716 0.696 0.681 0.662 0.681 0.711 0.706 0.685 0.7
2749.314 0.699 0.668 0.648 0.618 0.616 0.604 0.619 0.625 0.612 0.567
2768.607 0.517 0.524 0.501 0.524 0.544 0.53 0.498 0.528 0.546 0.5
2787.901 0.547 0.557 0.536 0.572 0.617 0.609 0.606 0.572 0.547 0.596
2807.194 0.598 0.594 0.625 0.611 0.567 0.562 0.588 0.563 0.54 0.514
2826.488 0.515 0.568 0.553 0.53 0.596 0.603 0.516 0.431 0.385 0.486
2845.781 0.561 0.524 0.51 0.467 0.461 0.52 0.558 0.572 0.503 0.483
2865.074 0.536 0.511 0.517 0.506 0.491 0.499 0.482 0.452 0.487 0.498
2884.368 0.464 0.463 0.406 0.356 0.32 0.348 0.463 0.495 0.525 0.563
2903.661 0.508 0.437 0.402 0.398 0.408 0.442 0.451 0.482 0.499 0.48
2922.955 0.465 0.411 0.439 0.53 0.58 0.617 0.604 0.642 0.736 0.777
2942.248 0.797 0.861 0.911 0.918 0.967 1.022 0.999 1.004 1.099 1.043
2961.542 0.957 1.02 1.116 1.147 1.095 1.082 1.05 1.051 1.132 1.2177
2980.835 1.1632 1.078 1.084 1.1815 1.28075 1.30671 1.31938 1.325 1.31924 1.3953
3000.128 1.5634 1.7018 1.808 1.8736 1.9464 2.1628 2.5 2.77 3.1 3.44
3019.422 3.79 4.28 4.84 5.51 6.1 6.39 6.51 6.53 6.31 5.92
3038.715 5.68 5.57 5.62 6.02 6.74 7.78 9.22 11.15 13.49 16.03
3058.009 18.49 20.79 22.45 23.06 22.64 21.41 19.57 17.43 15.35 13.35
3077.302 11.58 10.11 8.84 7.78 7.04 6.47 6 5.59 5.06 4.59
3096.596 4.1 3.5 2.99 2.49 1.9667 1.6352 1.33337 0.995 0.904 0.781
3115.889 0.627 0.553 0.532 0.561 0.464 0.392 0.432 0.404 0.409 0.392
3135.182 0.24 0.18 0.21 0.27 0.374 0.327 0.21 0.12 0.14 0.23
3154.476 0.24 0.19 0.19 0.24 0.23 0.17 0.11 0.06 0.04 0.16
3173.769 0.19 0.16 0.14 0.15 0.17 0.12 0.16 0.23 0.21 0.04
3193.063 0.01 0.07 0.16 0.13 0.06 0.04 0.04 0.07 0.06 0.1
3212.356 0.12 0.11 0.1 0.03 0.01 0.14 0.17 0.04 0.02 0.13
3231.650 0.16 0.12 0.07 0.12 0.22 0.25 0.23 0.19 0.08 0.09
3250.943 0.21 0.17 0.16 0.18 0.274 0.298 0.17 0.2 0.23 0.15
3270.236 0.16 0.17 0.05 0.01 0.04 0.05 0.03 0.07 0.21 0.311
3289.530 0.3 0.17 0.05 0.13 0.23 0.18 0.12 0.14 0.1 0.16
3308.823 0.277 0.16 0.03 0 0.05 0 0.05 0.14 0.12 0.22
3328.117 0.272 0.2 0.16 0.15 0.15 0.17 0.11 0.13 0.25 0.23
3347.410 0.21 0.297 0.325 0.17 0.02 0.11 0.13 0.13 0.21 0.23
3366.704 0.273 0.21 0.17 0.2 0.21 0.278 0.274 0.304 0.285 0.23
3385.997 0.263 0.273 0.25 0.267 0.21 0.11 0.23 0.316 0.25 0.19
3405.290 0.25 0.261 0.19 0.23 0.26 0.359 0.385 0.26 0.314 0.448
3424.584 0.454 0.381 0.326 0.318 0.263 0.291 0.415 0.432 0.341 0.397
3443.877 0.341 0.18 0.317 0.354 0.358 0.412 0.318 0.34 0.323 0.14
3463.171 0.2 0.294 0.269 0.324 0.377 0.386 0.383 0.491 0.519 0.387
3482.464 0.373 0.495 0.457 0.393 0.351 0.309 0.357 0.36 0.343 0.452
3501.758 0.539 0.524 0.541 0.601 0.637 0.606 0.511 0.56 0.587 0.541
3521.051 0.498 0.406 0.479 0.464 0.392 0.526 0.582 0.57 0.692 0.692
3540.344 0.628 0.668 0.668 0.587 0.523 0.539 0.584 0.638 0.654 0.63
3559.638 0.605 0.627 0.695 0.649 0.624 0.638 0.605 0.606 0.65 0.728
3578.931 0.75 0.71 0.611 0.522 0.533 0.606 0.649 0.673 0.678 0.67
3598.225 0.58 0.549 0.655 0.739 0.742 0.731 0.7 0.706 0.762 0.719
3617.518 0.646 0.62 0.617 0.643 0.66 0.715 0.811 0.843 0.79 0.734
3636.812 0.775 0.846 0.841 0.736 0.681 0.762 0.798 0.72 0.673 0.67
3656.105 0.679 0.652 0.679 0.772 0.784 0.701 0.632 0.622 0.692 0.803
3675.398 0.88 0.843 0.795 0.759 0.769 0.794 0.702 0.689 0.74 0.741
3694.692 0.735 0.686 0.692 0.777 0.781 0.718 0.708 0.741 0.788 0.791
3713.985 0.764 0.69 0.67 0.732 0.754 0.711 0.689 0.737 0.745 0.774
3733.279 0.788 0.712 0.685 0.685 0.687 0.767 0.798 0.744 0.654 0.673
3752.572 0.773 0.731 0.666 0.75 0.771 0.711 0.746 0.726 0.705 0.743
3771.866 0.835 0.754 0.702 0.787 0.762 0.736 0.765 0.795 0.826 0.854
3791.159 0.787 0.793 0.786 0.729 0.721 0.788 0.856 0.864 0.836 0.814
3810.452 0.788 0.839 0.875 0.761 0.78 0.866 0.878 0.851 0.81 0.816
3829.746 0.799 0.806 0.798 0.734 0.661 0.679 0.801 0.894 0.92 0.848
3849.039 0.83 0.791 0.728 0.735 0.728 0.718 0.728 0.73 0.751 0.76
3868.333 0.776 0.802 0.671 0.614 0.693 0.705 0.732 0.749 0.676 0.639
3887.626 0.652 0.744 0.832 0.792 0.759 0.728 0.688 0.724 0.782 0.73
3906.920 0.696 0.786 0.771 0.774 0.821 0.802 0.856 0.813 0.719 0.719
3926.213 0.73 0.798 0.825 0.856 0.87 0.859 0.858 0.834 0.887 0.867
3945.506 0.798 0.846 0.855 0.825 0.812 0.767 0.829 0.913 0.908 0.835
3964.800 0.851 0.903 0.919 0.951 0.903 0.837 0.836 0.914 0.98 0.952
3984.093 0.88 0.908 0.954 0.913 0.89 0.898 0.887 0.854 0.862
##END=
