##TITLE=9,10-Dihydroanthracene
##JCAMP-DX=4.24
##DATA TYPE=INFRARED SPECTRUM
##ORIGIN=NIST Mass Spectrometry Data Center
##OWNER=NIST Standard Reference Data Program
Collection (C) 2018 copyright by the U.S. Secretary of Commerce
on behalf of the United States of America. All rights reserved.
##CAS REGISTRY NO=613-31-0
##MOLFORM=C 14 H 12
##$NIST SOURCE=MSDC-IR
##SPECTROMETER/DATA SYSTEM=HP-GC/MS/IRD
##STATE=gas
##XUNITS=1/CM
##YUNITS=ABSORBANCE
##XFACTOR=1.0
##YFACTOR=0.000001600
##DELTAX=4.0
##FIRSTX=550.0
##LASTX=3846.0
##FIRSTY=0.000653
##MAXX=3846
##MINX=550
##MAXY=0.016
##MINY=0
##NPOINTS=825
##XYDATA=(X++(Y..Y))
550.0 408 241 72 22 30 117 160 162 192 317
590.0 466 769 1234 1833 2202 2062 1668 1124 736 644
630.0 608 524 472 430 384 326 286 278 276 286
670.0 284 267 269 305 375 470 582 753 1084 1707
710.0 2785 4346 6072 7994 10000 9889 9245 9297 8454 7383
750.0 6353 5253 4071 3055 2270 1564 1003 671 527 425
790.0 370 310 247 227 237 245 218 208 202 216
830.0 219 207 229 232 241 256 290 345 361 336
870.0 321 327 320 358 441 481 490 465 402 342
910.0 277 223 198 203 242 311 385 483 581 701
950.0 896 971 857 721 568 430 354 321 316 330
990.0 356 362 339 302 266 254 240 239 264 329
1030.0 544 878 1064 1026 775 416 249 208 204 198
1070.0 213 219 190 192 186 172 167 174 211 283
1110.0 406 580 624 613 589 463 380 381 477 608
1150.0 672 666 584 497 493 529 594 630 631 668
1190.0 735 899 1171 1417 1487 1309 942 588 362 266
1230.0 234 237 254 253 238 244 270 313 409 504
1270.0 557 568 565 562 540 503 411 307 232 174
1310.0 149 164 188 224 276 301 297 283 316 362
1350.0 370 342 281 223 237 253 240 245 260 255
1390.0 286 318 333 369 383 428 526 689 968 1188
1430.0 1329 1420 1499 1758 2196 2584 2682 2755 2807 2918
1470.0 3306 3847 4552 5107 5016 4391 3406 2277 1502 988
1510.0 647 475 333 261 244 229 212 179 158 187
1550.0 216 233 280 433 657 930 1160 1212 1095 831
1590.0 614 555 527 489 427 336 249 190 169 163
1630.0 174 169 168 152 114 79 92 154 177 172
1670.0 175 203 230 235 284 355 348 300 254 207
1710.0 163 101 54 69 80 60 34 57 81 64
1750.0 40 59 77 97 110 127 191 295 397 477
1790.0 498 489 449 397 380 368 352 350 362 378
1830.0 384 331 245 164 128 144 164 187 201 190
1870.0 185 185 182 217 254 288 336 374 401 410
1910.0 397 369 346 367 438 544 626 612 502 352
1950.0 203 110 80 60 44 49 48 36 33 28
1990.0 24 25 25 22 25 29 33 36 46 50
2030.0 38 27 26 24 28 26 23 25 24 32
2070.0 39 33 29 23 20 11 0 13 28 28
2110.0 28 24 28 26 27 26 17 18 25 20
2150.0 10 17 23 25 26 18 15 14 11 13
2190.0 22 34 45 43 46 44 22 19 19 22
2230.0 25 34 35 18 18 14 5 14 29 44
2270.0 41 30 27 29 33 35 30 26 42 63
2310.0 83 109 121 128 116 88 83 71 59 56
2350.0 57 55 44 35 33 42 56 58 47 39
2390.0 29 26 34 24 11 31 50 43 33 39
2430.0 53 69 89 86 76 75 63 72 74 68
2470.0 82 83 83 89 98 96 76 61 57 63
2510.0 59 52 59 70 70 67 73 84 82 88
2550.0 100 111 109 101 104 92 77 69 74 69
2590.0 59 65 79 85 97 112 113 117 119 113
2630.0 101 97 110 106 89 89 106 108 101 103
2670.0 110 106 84 99 102 89 99 101 94 90
2710.0 107 113 116 118 111 111 114 115 122 143
2750.0 161 182 207 219 241 263 279 306 319 349
2790.0 387 433 507 594 723 944 1272 1696 2168 2511
2830.0 2546 2337 2017 1650 1401 1324 1358 1497 1721 1957
2870.0 2163 2271 2219 2020 1721 1412 1155 995 926 931
2910.0 976 1087 1273 1541 1902 2366 2851 3157 3184 2949
2950.0 2494 1916 1398 1052 834 673 556 518 528 543
2990.0 600 739 984 1360 1903 2659 3639 4726 5615 6098
3030.0 6155 5685 4854 4278 4206 4529 5016 5411 5748 6190
3070.0 6624 6922 6747 5834 4478 3105 2074 1492 1193 1036
3110.0 899 756 617 507 437 368 307 267 247 244
3150.0 253 252 261 279 257 233 226 201 168 150
3190.0 150 144 132 123 113 117 121 110 108 98
3230.0 85 76 80 96 100 97 99 107 101 89
3270.0 79 68 70 78 90 89 87 90 80 72
3310.0 86 102 80 77 75 71 65 55 53 59
3350.0 80 84 77 88 93 87 97 99 88 77
3390.0 80 75 69 65 63 53 51 73 73 75
3430.0 66 30 16 34 63 64 49 66 84 81
3470.0 69 66 77 71 76 80 65 53 32 26
3510.0 44 67 60 22 4 50 71 76 64 17
3550.0 42 68 65 54 25 28 71 88 77 48
3590.0 46 73 75 72 51 40 53 62 96 77
3630.0 55 87 87 85 64 41 68 78 69 56
3670.0 49 46 67 89 68 76 102 100 98 92
3710.0 65 62 76 58 35 55 46 34 39 44
3750.0 48 66 100 93 84 103 124 113 116 112
3790.0 95 82 87 92 113 133 117 107 122 124
3830.0 122 112 75 80 88
##END=
