##TITLE=.alpha.-Isothiocyanato-.gamma.-butyrolactone
##JCAMP-DX=4.24
##DATA TYPE=INFRARED SPECTRUM
##ORIGIN=EPA-IR VAPOR PHASE LIBRARY
##OWNER=SRD/NIST
Collection (C) 2018 copyright by the U.S. Secretary of Commerce
on behalf of the United States of America. All rights reserved.
##CAS REGISTRY NO=61315-63-7
##MOLFORM=C 5 H 5 N O 2 S
##$NIST SOURCE=MSDC-IR
##STATE=gas
##XUNITS=1/CM
##YUNITS=ABSORBANCE
##XFACTOR=1.
##YFACTOR=0.001
##DELTAX=1.92898
##FIRSTX=549.8
##LASTX=4000.7
##FIRSTY=5.893
##MAXX=4000.7
##MINX=549.759
##MAXY=0.197653
##MINY=0
##NPOINTS=1790
##XYDATA=(X++(Y..Y))
549.759 5.893 5.833 5.793 5.573 5.223 5.223 5.223 5.203 5.683 5.813
569.049 5.343 5.063 5.113 5.153 4.853 4.603 4.653 4.613 4.563 4.213
588.339 3.713 3.653 3.813 3.643 3.163 3.073 2.943 2.473 2.333 2.413
607.628 2.463 2.483 2.293 2.113 2.273 2.333 2.113 2.253 2.383 2.303
626.918 2.243 2.153 2.203 2.323 2.173 2.113 2.253 2.243 2.373 2.673
646.208 2.813 2.893 3.043 3.033 3.053 3.453 3.683 3.703 3.913 4.013
665.498 4.033 3.983 4.093 4.213 4.123 4.223 4.283 4.343 4.483 4.353
684.787 4.253 4.313 4.393 4.363 4.183 4.063 3.713 3.233 2.833 2.483
704.077 2.143 1.963 1.783 1.433 1.443 1.513 1.333 1.1538 1.1004 1.1448
723.367 1.1772 1.1907 1.1775 1.333 1.423 1.2995 1.313 1.443 1.663 1.763
742.657 1.843 1.933 2.153 2.353 2.363 2.363 2.473 2.583 2.743 2.913
761.947 2.833 2.883 3.033 3.213 3.223 3.233 3.253 3.053 2.963 2.903
781.236 2.843 2.873 2.723 2.563 2.383 2.313 2.153 1.883 2.183 2.373
800.526 2.263 2.353 2.423 2.503 2.703 2.963 3.253 3.483 3.643 3.813
819.816 3.853 3.813 3.873 4.023 3.883 3.713 3.743 3.743 3.823 3.953
839.106 4.103 4.223 4.193 4.143 4.333 4.413 4.503 4.603 4.573 4.793
858.395 5.213 5.553 5.903 6.453 6.873 7.113 7.523 8.133 8.623 8.823
877.685 8.973 9.013 8.803 8.453 7.983 7.433 6.863 6.153 5.633 5.283
896.975 4.893 4.603 4.433 4.213 3.933 3.853 3.833 3.713 3.723 3.873
916.265 3.893 3.903 4.023 3.983 3.913 3.963 4.033 4.033 3.953 3.843
935.555 3.843 3.813 3.803 3.833 3.683 3.543 3.593 3.593 3.433 3.423
954.844 3.373 3.163 2.913 2.673 2.633 2.793 2.993 3.113 3.213 3.483
974.134 3.733 4.053 4.483 4.893 5.183 5.603 6.223 6.563 6.763 6.883
993.424 6.993 7.063 7.253 7.393 7.243 7.383 7.763 8.193 8.813 9.973
1012.714 11.263 12.583 14.673 17.053 19.303 21.723 24.193 26.023 27.633 28.783
1032.003 28.933 28.543 28.053 27.773 26.963 25.263 22.493 19.563 16.753 14.053
1051.293 12.193 10.363 8.763 7.813 6.963 6.083 5.833 5.673 5.333 5.073
1070.583 4.783 4.543 4.333 4.353 4.413 4.773 5.353 5.563 5.633 6.033
1089.873 6.543 7.283 7.803 8.273 8.573 8.793 9.353 9.593 9.533 9.593
1109.163 9.733 10.533 11.513 12.663 14.333 15.973 17.923 20.423 23.363 26.983
1128.452 31.413 36.233 41.513 46.933 52.503 58.183 63.863 68.233 70.983 73.113
1147.742 74.133 73.513 71.493 68.223 63.693 58.463 52.993 47.543 41.973 36.953
1167.032 32.693 29.003 25.363 22.253 19.963 17.893 16.033 14.353 12.913 11.723
1186.322 11.283 10.783 10.143 10.263 10.273 9.743 9.593 9.953 10.353 11.113
1205.611 11.693 12.023 12.703 13.423 13.373 13.143 12.863 12.703 12.143 11.613
1224.901 11.003 9.783 8.723 7.613 7.063 6.613 6.053 5.693 5.413 5.053
1244.191 4.703 4.513 4.263 4.033 4.143 4.233 4.123 4.113 4.333 4.753
1263.481 4.743 4.453 4.433 4.653 4.703 4.813 5.073 5.243 5.323 5.373
1282.771 5.353 5.283 5.563 5.793 5.903 6.083 6.243 6.513 6.873 7.403
1302.060 8.023 8.853 9.723 10.583 11.593 12.523 13.313 13.923 14.433 14.923
1321.350 15.213 15.473 15.833 16.233 16.703 17.203 17.693 17.993 17.923 17.413
1340.640 16.543 15.533 14.423 13.233 11.903 10.373 8.823 7.613 6.853 6.493
1359.930 6.493 6.763 7.233 7.743 8.033 8.193 8.283 8.193 7.913 7.493
1379.219 6.963 6.243 5.313 4.463 3.763 3.203 2.853 2.503 2.163 1.923
1398.509 1.833 1.713 1.563 1.533 1.503 1.443 1.413 1.423 1.423 1.423
1417.799 1.353 1.323 1.353 1.353 1.443 1.553 1.623 1.713 1.803 1.883
1437.089 1.953 2.103 2.343 2.513 2.643 2.733 2.833 2.893 2.823 2.773
1456.378 2.763 2.713 2.613 2.463 2.283 2.193 2.093 1.943 1.813 1.803
1475.668 1.823 1.763 1.783 1.883 1.993 2.063 2.163 2.253 2.223 2.133
1494.958 2.053 1.983 1.913 1.743 1.543 1.433 1.353 1.2969 1.24 1.187
1514.248 1.0867 1.0881 1.181 1.1652 1.1062 1.0206 1.0001 1.0445 1.0957 1.1116
1533.538 1.0959 1.0971 1.043 0.9831 0.9852 0.9766 0.9122 0.9452 1.0162 0.9595
1552.827 0.9235 0.899 0.8795 0.9113 1.0051 1.0398 0.9795 0.9578 0.995 0.9174
1572.117 0.8464 0.8873 0.9194 0.9689 0.973 0.9336 0.8934 0.9018 0.9297 0.8841
1591.407 0.8275 0.9199 0.9141 0.8521 0.8677 0.935 0.9791 0.9306 0.9107 0.865
1610.697 0.877 0.9547 0.9885 0.961 0.9918 1.0233 1.0307 1.0557 1.079 1.0701
1629.986 1.0573 0.9814 0.9436 1.0331 1.0988 1.0913 1.0977 1.1826 1.2004 1.1377
1649.276 1.13 1.1678 1.1961 1.2681 1.333 1.353 1.2958 1.3062 1.353 1.295
1668.566 1.2735 1.2608 1.2242 1.333 1.373 1.383 1.423 1.433 1.333 1.3019
1687.856 1.353 1.343 1.403 1.413 1.433 1.503 1.503 1.433 1.423 1.453
1707.146 1.573 1.623 1.593 1.623 1.693 1.673 1.623 1.693 1.673 1.683
1726.435 1.723 1.803 1.963 1.973 1.933 1.993 2.073 2.163 2.233 2.363
1745.725 2.473 2.543 2.693 2.843 2.943 3.133 3.403 3.683 3.973 4.293
1765.015 4.623 5.013 5.493 5.973 6.503 7.163 7.843 8.573 9.373 10.273
1784.305 11.243 12.333 13.553 14.853 16.393 18.253 20.343 22.863 25.943 29.503
1803.594 33.613 38.393 43.873 49.933 56.513 63.453 70.393 76.953 82.503 86.683
1822.884 89.283 90.463 90.593 89.623 87.213 83.033 77.113 69.873 61.793 53.503
1842.174 45.583 38.343 32.183 27.143 23.093 19.933 17.483 15.523 13.993 12.793
1861.464 11.823 11.013 10.243 9.583 8.993 8.473 8.103 7.753 7.403 7.173
1880.754 7.023 6.943 6.903 6.923 7.023 7.103 7.223 7.403 7.683 7.953
1900.043 8.213 8.593 8.933 9.343 9.853 10.313 10.753 11.213 11.753 12.313
1919.333 12.933 13.573 14.213 14.983 15.723 16.443 17.243 18.133 19.143 20.123
1938.623 21.173 22.333 23.553 24.853 26.223 27.683 29.273 30.983 32.763 34.683
1957.913 36.743 38.863 41.013 43.243 45.653 48.273 51.123 54.123 57.193 60.513
1977.202 64.073 67.833 71.793 75.963 80.403 85.063 89.933 95.033 100.383 106.113
1996.492 112.073 118.223 124.813 131.893 139.313 147.123 155.293 163.693 172.043 180.003
2015.782 186.983 192.433 196.103 197.653 196.973 194.123 189.373 182.983 175.373 167.033
2035.072 158.463 150.053 141.933 134.373 127.483 121.113 115.193 109.693 104.503 99.463
2054.362 94.653 90.063 85.503 80.893 76.193 71.403 66.753 62.323 58.053 54.183
2073.651 50.793 47.863 45.443 43.493 42.053 41.233 40.873 40.843 41.153 41.543
2092.941 42.033 42.663 43.203 43.633 43.793 43.693 43.363 42.733 41.923 40.883
2112.231 39.703 38.403 36.933 35.493 33.963 32.303 30.783 29.313 27.933 26.603
2131.521 25.203 23.953 22.803 21.663 20.603 19.603 18.713 17.963 17.313 16.703
2150.810 16.043 15.463 14.933 14.443 14.013 13.543 13.043 12.563 12.133 11.653
2170.100 11.183 10.833 10.473 10.163 9.893 9.683 9.393 9.063 8.803 8.513
2189.390 8.163 7.793 7.523 7.163 6.753 6.393 6.033 5.723 5.443 5.173
2208.680 4.963 4.743 4.543 4.423 4.303 4.173 4.093 4.003 3.923 3.893
2227.970 3.863 3.863 3.803 3.733 3.713 3.693 3.683 3.653 3.593 3.493
2247.259 3.503 3.513 3.453 3.413 3.443 3.453 3.393 3.423 3.433 3.343
2266.549 3.313 3.323 3.253 3.203 3.183 3.173 3.163 3.153 3.103 3.043
2285.839 3.063 3.083 3.123 3.113 3.093 3.133 3.073 2.993 2.983 3.013
2305.129 2.953 2.873 2.893 2.893 2.833 2.743 2.723 2.663 2.643 2.613
2324.418 2.493 2.523 2.523 2.333 2.293 2.333 2.223 2.083 2.023 2.003
2343.708 1.913 1.843 1.833 1.823 1.803 1.793 1.763 1.713 1.673 1.603
2362.998 1.553 1.533 1.493 1.513 1.473 1.413 1.353 1.2798 1.2781 1.2463
2382.288 1.1873 1.1707 1.1424 1.1262 1.1181 1.0884 1.1003 1.0824 1.0529 1.0629
2401.578 1.1113 1.099 0.9969 0.9371 0.9216 1.007 1.0414 0.9781 0.9596 0.9315
2420.867 0.9514 0.9863 1.0013 1.0557 1.0038 0.9722 1.0068 1.0079 0.9942 1.0203
2440.157 1.0627 1.0215 1.006 0.9686 0.9121 0.9112 0.9382 0.9429 0.8562 0.8007
2459.447 0.8518 0.8756 0.8448 0.8383 0.8374 0.78 0.7952 0.8822 0.9266 0.9588
2478.737 1.0027 0.9926 0.9411 0.938 0.9388 0.9716 1.1102 1.115 0.9514 0.9525
2498.026 1.0151 1.0299 1.1003 1.1263 1.109 1.1908 1.2716 1.294 1.27 1.2696
2517.316 1.343 1.3076 1.2419 1.2826 1.373 1.453 1.473 1.453 1.463 1.423
2536.606 1.383 1.463 1.483 1.443 1.343 1.2713 1.373 1.383 1.343 1.343
2555.896 1.2891 1.333 1.453 1.463 1.493 1.523 1.513 1.533 1.503 1.503
2575.186 1.563 1.663 1.693 1.713 1.773 1.793 1.803 1.823 1.833 1.873
2594.475 1.783 1.603 1.573 1.583 1.593 1.543 1.513 1.543 1.533 1.453
2613.765 1.413 1.393 1.323 1.2759 1.2487 1.236 1.2197 1.1795 1.2556 1.2596
2633.055 1.1968 1.1765 1.1127 1.1941 1.2535 1.2733 1.323 1.2194 1.343 1.553
2652.345 1.523 1.473 1.443 1.503 1.493 1.443 1.513 1.563 1.563 1.643
2671.634 1.543 1.463 1.523 1.523 1.583 1.483 1.383 1.513 1.493 1.403
2690.924 1.403 1.433 1.393 1.353 1.373 1.373 1.353 1.383 1.343 1.353
2710.214 1.403 1.403 1.393 1.353 1.333 1.373 1.393 1.353 1.363 1.323
2729.504 1.343 1.353 1.343 1.313 1.2476 1.2647 1.2211 1.1793 1.2015 1.1781
2748.794 1.2104 1.2009 1.1005 1.0567 1.0892 1.1419 1.2176 1.2155 1.1631 1.1836
2768.083 1.2224 1.1608 1.0844 1.1063 1.1017 1.0118 1.0493 1.1159 1.0998 1.1947
2787.373 1.2598 1.2134 1.2551 1.2679 1.1808 1.1736 1.1974 1.1536 1.1747 1.1304
2806.663 1.1146 1.1478 1.1702 1.1803 1.0748 1.1027 1.1998 1.1109 1.0635 1.1268
2825.953 1.0893 1.0555 1.1093 1.1505 1.1885 1.2775 1.3098 1.363 1.413 1.393
2845.242 1.393 1.473 1.473 1.423 1.503 1.553 1.503 1.623 1.743 1.743
2864.532 1.753 1.763 1.873 1.943 1.963 2.123 2.233 2.393 2.633 2.883
2883.822 3.063 3.243 3.473 3.623 3.853 4.253 4.853 5.363 5.763 6.333
2903.112 7.033 7.793 8.793 9.833 10.673 11.363 11.683 11.733 11.593 11.293
2922.401 11.033 10.523 9.543 8.533 7.613 6.793 6.113 5.613 5.283 5.003
2941.691 4.843 4.853 4.783 4.703 4.673 4.773 5.043 5.093 5.193 5.343
2960.981 5.293 5.413 5.603 5.743 6.083 6.283 6.383 6.583 6.793 7.083
2980.271 7.243 7.553 7.933 8.203 8.583 9.043 9.733 10.533 11.263 11.843
2999.561 12.403 12.983 13.203 13.053 12.613 11.893 11.023 9.993 8.863 7.643
3018.850 6.373 5.303 4.403 3.633 3.093 2.713 2.363 2.123 1.833 1.583
3038.140 1.443 1.333 1.2874 1.2244 1.0691 0.8884 0.8571 0.7112 0.6568 0.8524
3057.430 0.7708 0.5383 0.5855 0.6915 0.7104 0.5338 0.5206 0.5393 0.4883 0.5889
3076.720 0.5296 0.4781 0.5449 0.4723 0.2497 0.2872 0.4431 0.4412 0.4308 0.4396
3096.009 0.4471 0.455 0.4234 0.4418 0.5684 0.5184 0.33166 0.205 0.213 0.2888
3115.299 0.314893 0.33954 0.36334 0.4627 0.5489 0.5154 0.4381 0.4334 0.2931 0.19
3134.589 0.32415 0.32746 0.2405 0.123 0.117 0.2614 0.2886 0.30502 0.3104 0.312499
3153.879 0.2621 0.183 0.2185 0.2955 0.34037 0.3709 0.35504 0.34014 0.30572 0.2226
3173.169 0.2343 0.2904 0.3009 0.174 0.065 0.097 0.125 0.19 0.34414 0.4165
3192.458 0.428 0.37545 0.34323 0.37218 0.33766 0.2745 0.2566 0.2155 0.138 0.111
3211.748 0.177 0.40022 0.4449 0.2494 0.2613 0.237 0.152 0.156 0.212 0.38793
3231.038 0.314584 0.173 0.198 0.2362 0.2612 0.193 0.172 0.2397 0.2371 0.2674
3250.328 0.194 0.053 0.146 0.2524 0.188 0.102 0.158 0.196 0.201 0.137
3269.617 0.093 0.048 0.101 0.2497 0.197 0.127 0.136 0.141 0.086 0.184
3288.907 0.33659 0.3589 0.33853 0.2463 0.188 0.18 0.169 0.2219 0.208 0.157
3308.197 0.2515 0.33196 0.31046 0.32887 0.2556 0.2263 0.2228 0.2402 0.3621 0.36992
3327.487 0.3442 0.2466 0.145 0.187 0.184 0.172 0.194 0.111 0 0.047
3346.777 0.116 0.082 0.213 0.2431 0.17 0.096 0.05 0.097 0.084 0.112
3366.066 0.157 0.2733 0.37416 0.39152 0.319523 0.164 0.2535 0.39224 0.36609 0.32856
3385.356 0.3027 0.35802 0.35168 0.2254 0.2736 0.2801 0.194 0.3174 0.37882 0.38405
3404.646 0.40664 0.4263 0.2671 0.151 0.137 0.178 0.30452 0.316163 0.2596 0.2264
3423.936 0.212 0.205 0.2605 0.32885 0.2743 0.136 0.193 0.2401 0.2999 0.263
3443.225 0.14 0.135 0.204 0.2668 0.2837 0.31146 0.36654 0.39676 0.2839 0.2147
3462.515 0.36726 0.4591 0.2795 0.194 0.2543 0.2974 0.2882 0.2836 0.30662 0.36556
3481.805 0.3681 0.33762 0.37378 0.4474 0.35663 0.2856 0.30503 0.2697 0.251 0.179
3501.095 0.2464 0.2591 0.321488 0.33274 0.208 0.2732 0.4189 0.5435 0.40309 0.2491
3520.385 0.39202 0.4766 0.4838 0.4965 0.35974 0.40406 0.446 0.4278 0.383 0.2623
3539.674 0.2573 0.34249 0.40556 0.39146 0.4885 0.4541 0.41172 0.4207 0.427 0.5503
3558.964 0.6258 0.4992 0.4818 0.4679 0.40886 0.5137 0.5156 0.4044 0.36665 0.35198
3578.254 0.36691 0.4812 0.4801 0.5251 0.6876 0.769 0.697 0.7068 0.709 0.6331
3597.544 0.643 0.738 0.9394 1.0265 0.9351 1.0429 1.1535 1.0425 1.2299 1.463
3616.833 1.513 1.473 1.2942 1.353 1.533 1.533 1.533 1.483 1.373 1.353
3636.123 1.423 1.433 1.363 1.2513 1.235 1.2459 1.177 1.1108 1.0077 1.0511
3655.413 1.0191 0.9495 0.9645 0.8086 0.8194 0.915 0.8767 0.8732 0.8841 0.9153
3674.703 0.7695 0.5243 0.4912 0.5076 0.4837 0.58 0.5782 0.591 0.5469 0.40224
3693.993 0.5327 0.5819 0.5027 0.4416 0.4131 0.4907 0.5279 0.5144 0.2836 0.156
3713.282 0.30971 0.4718 0.4923 0.5573 0.5939 0.4793 0.418 0.34782 0.4147 0.36209
3732.572 0.2729 0.31005 0.34992 0.505 0.5623 0.5012 0.4162 0.38371 0.4311 0.4522
3751.862 0.41054 0.3615 0.4386 0.4356 0.37206 0.4357 0.5542 0.6716 0.4892 0.4247
3771.152 0.5384 0.4396 0.4416 0.455 0.4557 0.4412 0.2754 0.2713 0.3916 0.39453
3790.441 0.40756 0.5111 0.6046 0.5919 0.5901 0.4396 0.37024 0.41094 0.40518 0.5722
3809.731 0.5878 0.320313 0.212 0.4255 0.523 0.5221 0.4935 0.4657 0.5605 0.4896
3829.021 0.3835 0.37184 0.37933 0.40995 0.39041 0.5272 0.5006 0.4349 0.5869 0.7004
3848.311 0.6239 0.4303 0.35361 0.4177 0.596 0.6323 0.5681 0.4262 0.4454 0.4878
3867.601 0.6502 0.7368 0.6525 0.6838 0.6474 0.6875 0.6215 0.4899 0.6272 0.6945
3886.890 0.6595 0.6421 0.4874 0.4216 0.5486 0.6717 0.6265 0.7452 0.742 0.5962
3906.180 0.6132 0.6059 0.6413 0.792 0.883 0.87 0.8027 0.7076 0.6954 0.7506
3925.470 0.757 0.8932 0.9382 0.8373 0.827 0.7623 0.8848 0.9585 1.0548 1.1505
3944.760 1.0407 0.9751 1.035 1.0432 1.0343 1.0645 0.9586 1.0442 1.1451 1.1937
3964.049 1.2467 1.1423 1.0381 1.0273 1.0991 1.0909 0.9764 1.0449 1.0553 1.0844
3983.339 1.3102 1.373 1.3119 1.178 1.1918 1.256 1.2462 1.3126 1.2294 1.1758
##END=
