##TITLE=3-Ethyl-2-pentanone
##JCAMP-DX=4.24
##DATA TYPE=INFRARED SPECTRUM
##ORIGIN=NIST Mass Spectrometry Data Center
##OWNER=NIST Standard Reference Data Program
Collection (C) 2018 copyright by the U.S. Secretary of Commerce
on behalf of the United States of America. All rights reserved.
##CAS REGISTRY NO=6137-03-7
##MOLFORM=C 7 H 14 O
##$NIST SOURCE=MSDC-IR
##SPECTROMETER/DATA SYSTEM=HP-GC/MS/IRD
##STATE=gas
##XUNITS=1/CM
##YUNITS=ABSORBANCE
##XFACTOR=1.0
##YFACTOR=0.000001700
##DELTAX=4.0
##FIRSTX=550.0
##LASTX=3846.0
##FIRSTY=0.000347
##MAXX=3846
##MINX=550
##MAXY=0.017
##MINY=0
##NPOINTS=825
##XYDATA=(X++(Y..Y))
550.0 204 160 123 147 177 179 208 263 357 408
590.0 375 389 392 317 291 289 216 169 159 131
630.0 121 83 56 35 23 29 21 14 8 5
670.0 0 21 65 94 129 152 161 183 225 251
710.0 263 257 246 251 228 169 122 87 67 77
750.0 84 94 140 153 150 200 194 160 159 140
790.0 108 78 75 91 104 131 144 149 184 186
830.0 164 142 133 133 127 126 146 184 210 219
870.0 248 271 283 302 305 301 314 335 349 340
910.0 328 308 281 251 223 224 248 296 362 453
950.0 516 535 554 550 496 431 369 305 253 232
990.0 235 237 240 249 283 314 310 301 307 310
1030.0 301 295 278 276 275 257 240 220 202 230
1070.0 264 286 333 402 488 556 616 667 720 768
1110.0 831 916 1028 1160 1283 1375 1433 1436 1394 1323
1150.0 1280 1345 1542 1845 2149 2394 2535 2534 2377 2107
1190.0 1789 1486 1273 1191 1158 1131 1116 1106 1079 1021
1230.0 971 928 909 943 985 1014 1038 1036 985 916
1270.0 816 705 612 541 496 473 478 495 515 525
1310.0 546 587 643 728 845 1025 1292 1629 2058 2539
1350.0 3016 3395 3550 3482 3248 2891 2511 2196 1972 1819
1390.0 1692 1522 1332 1157 985 858 811 813 831 866
1430.0 919 994 1101 1254 1433 1646 1834 1948 1984 1916
1470.0 1760 1531 1274 1018 808 668 559 464 406 376
1510.0 361 343 322 315 315 312 307 302 287 276
1550.0 269 262 248 238 243 235 220 215 219 216
1590.0 206 188 180 180 175 183 192 193 195 203
1630.0 215 232 251 279 299 316 354 414 483 561
1670.0 672 791 934 1087 1290 1574 1990 2599 3480 4624
1710.0 5914 7109 8161 9101 9198 7979 6486 5175 3790 2584
1750.0 1786 1335 1076 888 756 652 556 470 383 306
1790.0 248 210 178 152 133 116 105 93 86 79
1830.0 78 75 75 66 48 41 43 43 32 32
1870.0 43 33 29 36 40 42 33 27 37 49
1910.0 42 35 28 26 33 34 33 25 27 22
1950.0 14 19 22 24 26 21 21 21 18 17
1990.0 24 20 10 9 15 24 14 9 17 14
2030.0 15 22 18 14 19 27 29 24 20 19
2070.0 17 24 30 21 7 2 4 11 12 9
2110.0 14 14 11 18 12 3 9 6 1 5
2150.0 10 16 14 14 17 10 5 7 7 7
2190.0 13 23 22 17 21 23 18 21 15 9
2230.0 14 14 22 25 24 19 13 12 14 17
2270.0 16 18 20 13 7 14 24 17 11 22
2310.0 28 25 25 25 21 17 16 24 21 22
2350.0 23 22 17 14 22 24 18 18 29 29
2390.0 16 17 18 18 22 29 35 32 26 25
2430.0 22 14 15 17 18 25 18 11 16 25
2470.0 27 18 22 26 24 25 27 12 7 10
2510.0 7 9 15 18 4 3 18 14 6 15
2550.0 30 27 20 19 22 27 37 48 48 46
2590.0 44 41 29 31 38 38 41 49 55 47
2630.0 39 42 49 50 61 64 59 63 74 85
2670.0 89 88 88 85 75 83 95 87 84 100
2710.0 104 97 108 125 130 137 160 175 180 187
2750.0 198 216 225 221 227 231 227 237 246 270
2790.0 287 296 305 322 350 371 384 403 447 485
2830.0 532 593 659 755 863 1036 1281 1572 1956 2461
2870.0 3047 3664 4194 4583 4796 4692 4403 4084 3779 3591
2910.0 3594 3820 4281 4928 5672 6455 7140 7518 7611 7555
2950.0 7426 7423 7766 8408 9272 10000 9889 9064 7901 6391
2990.0 4813 3516 2616 2066 1726 1495 1319 1187 1083 988
3030.0 914 847 806 758 707 685 660 628 597 572
3070.0 539 510 505 497 461 423 395 374 356 345
3110.0 328 308 302 278 249 245 246 239 227 222
3150.0 222 218 217 195 170 160 155 141 127 115
3190.0 108 116 109 82 78 93 88 71 66 60
3230.0 56 55 39 42 65 57 43 45 35 33
3270.0 43 48 44 36 46 45 27 35 27 27
3310.0 47 46 26 9 12 15 18 37 43 25
3350.0 17 30 49 56 40 31 43 41 46 74
3390.0 80 91 100 98 123 136 150 173 180 187
3430.0 188 186 194 180 149 114 97 104 88 66
3470.0 51 38 46 49 37 37 47 63 62 49
3510.0 36 29 29 31 11 1 16 31 30 26
3550.0 35 40 29 19 26 22 10 21 40 46
3590.0 31 20 24 25 26 26 36 42 19 18
3630.0 31 20 16 16 25 35 50 54 38 44
3670.0 43 41 42 26 26 37 26 20 29 31
3710.0 30 28 21 37 57 41 28 16 12 36
3750.0 41 46 39 26 24 22 29 25 26 37
3790.0 48 44 27 33 36 29 35 48 64 48
3830.0 19 23 27 34 41
##END=
