##TITLE=4-Methyl-2-heptanone
##JCAMP-DX=4.24
##DATA TYPE=INFRARED SPECTRUM
##ORIGIN=NIST Mass Spectrometry Data Center
##OWNER=NIST Standard Reference Data Program
Collection (C) 2018 copyright by the U.S. Secretary of Commerce
on behalf of the United States of America. All rights reserved.
##CAS REGISTRY NO=6137-06-0
##MOLFORM=C 8 H 16 O
##$NIST SOURCE=MSDC-IR
##SPECTROMETER/DATA SYSTEM=HP-GC/MS/IRD
##STATE=gas
##XUNITS=1/CM
##YUNITS=ABSORBANCE
##XFACTOR=1.0
##YFACTOR=0.000000900
##DELTAX=4.0
##FIRSTX=550.0
##LASTX=3846.0
##FIRSTY=0.001166
##MAXX=3846
##MINX=550
##MAXY=0.009
##MINY=0
##NPOINTS=825
##XYDATA=(X++(Y..Y))
550.0 1295 760 414 613 593 623 679 601 738 943
590.0 844 749 795 740 675 634 474 415 358 299
630.0 343 344 241 179 304 340 291 249 227 250
670.0 240 243 232 194 158 173 192 197 188 199
710.0 199 201 199 201 224 242 282 328 379 367
750.0 336 284 220 166 170 223 210 226 200 207
790.0 236 197 186 209 233 237 245 214 25 109
830.0 240 135 162 173 175 197 188 164 198 242
870.0 188 176 186 163 207 237 264 300 288 247
910.0 188 168 261 338 392 489 561 608 665 745
950.0 750 689 627 576 511 477 478 445 406 374
990.0 324 297 317 350 302 263 290 293 303 295
1030.0 264 260 255 288 279 234 209 188 232 258
1070.0 230 262 289 298 333 364 406 488 583 683
1110.0 761 784 835 913 969 1078 1252 1425 1675 2025
1150.0 2382 2705 2952 3052 3050 2908 2632 2279 1951 1669
1190.0 1465 1355 1316 1233 1150 1154 1243 1354 1396 1393
1230.0 1352 1343 1341 1240 1149 1139 1104 1050 1022 1013
1270.0 1016 1060 1111 1113 1154 1179 1155 1103 1081 1055
1310.0 1059 1072 1078 1137 1229 1361 1505 1746 2138 2639
1350.0 3210 3783 4160 4222 4007 3600 3075 2614 2261 2001
1390.0 1812 1614 1429 1323 1288 1278 1281 1275 1268 1279
1430.0 1273 1228 1227 1295 1373 1457 1562 1694 1757 1715
1470.0 1618 1419 1192 994 758 622 534 475 447 395
1510.0 382 391 366 344 342 341 340 348 340 315
1550.0 306 321 310 299 278 254 278 295 260 246
1590.0 246 227 223 241 234 212 200 223 264 267
1630.0 237 252 291 304 312 304 320 370 412 451
1670.0 536 664 792 938 1129 1348 1592 1930 2381 2996
1710.0 3858 4906 6113 7200 7869 7995 7371 6208 4895 3687
1750.0 2701 2014 1555 1236 1013 861 746 603 468 403
1790.0 380 339 297 252 225 215 206 192 167 159
1830.0 166 164 142 125 118 122 124 114 95 78
1870.0 91 105 104 99 85 79 97 68 71 85
1910.0 62 65 54 57 80 69 41 72 84 53
1950.0 75 99 99 84 70 55 60 63 57 34
1990.0 38 61 36 29 37 39 25 28 46 53
2030.0 60 71 65 52 52 47 52 63 50 32
2070.0 44 66 82 58 37 51 65 70 57 72
2110.0 65 30 42 55 62 69 55 58 57 63
2150.0 78 68 72 66 43 30 56 66 59 71
2190.0 74 59 42 26 40 48 42 33 38 52
2230.0 27 32 52 52 44 28 43 50 42 44
2270.0 46 36 36 50 30 0 23 56 40 52
2310.0 73 57 20 18 37 33 40 29 27 53
2350.0 56 56 43 34 37 27 30 35 36 40
2390.0 39 51 58 55 57 64 52 27 28 5
2430.0 20 54 34 27 59 47 23 29 26 33
2470.0 39 25 36 62 58 62 53 46 49 36
2510.0 50 82 59 29 49 61 52 53 43 55
2550.0 66 56 52 54 59 54 57 66 54 52
2590.0 63 49 36 62 83 89 110 102 58 53
2630.0 68 71 71 62 72 62 31 48 66 44
2670.0 69 114 92 99 143 146 151 165 159 137
2710.0 124 138 148 171 190 227 240 209 187 200
2750.0 241 238 214 234 227 231 249 244 266 265
2790.0 276 310 372 465 484 480 505 537 619 728
2830.0 844 978 1144 1343 1567 1817 2106 2393 2681 3031
2870.0 3439 3913 4448 4831 5034 5077 4993 4918 4985 5211
2910.0 5478 5867 6378 6946 7466 7862 8116 8160 8062 7887
2950.0 7823 8088 8683 9478 10000 9839 8931 7436 5704 4178
2990.0 3011 2248 1781 1488 1396 1326 1210 1092 992 858
3030.0 754 695 649 593 557 571 544 468 431 445
3070.0 434 417 428 406 352 325 317 296 301 296
3110.0 266 263 259 241 232 233 218 203 165 162
3150.0 184 144 134 133 110 97 98 130 111 112
3190.0 106 92 132 105 85 103 88 72 64 102
3230.0 108 66 33 35 42 55 53 30 43 68
3270.0 76 41 22 29 38 85 109 57 54 75
3310.0 83 108 126 107 57 28 65 100 92 90
3350.0 41 11 48 107 90 73 126 140 123 102
3390.0 75 74 103 112 102 115 156 170 180 186
3430.0 216 259 271 256 247 248 203 160 147 158
3470.0 190 174 124 128 124 116 92 38 46 92
3510.0 89 83 134 116 110 110 73 100 108 71
3550.0 88 104 97 108 79 89 109 152 178 132
3590.0 115 103 81 131 174 174 175 137 94 85
3630.0 137 155 136 119 110 129 92 111 171 182
3670.0 167 147 103 116 149 159 149 125 151 177
3710.0 229 249 222 194 154 103 101 86 62 90
3750.0 148 225 187 179 220 205 205 201 173 208
3790.0 265 256 177 150 161 192 240 203 165 194
3830.0 214 243 204 192 205
##END=
