##TITLE=4-Methyl-3-heptanone
##JCAMP-DX=4.24
##DATA TYPE=INFRARED SPECTRUM
##ORIGIN=NIST Mass Spectrometry Data Center
##OWNER=NIST Standard Reference Data Program
Collection (C) 2018 copyright by the U.S. Secretary of Commerce
on behalf of the United States of America. All rights reserved.
##CAS REGISTRY NO=6137-11-7
##MOLFORM=C 8 H 16 O
##$NIST SOURCE=MSDC-IR
##SPECTROMETER/DATA SYSTEM=HP-GC/MS/IRD
##STATE=gas
##XUNITS=1/CM
##YUNITS=ABSORBANCE
##XFACTOR=1.0
##YFACTOR=0.000004900
##DELTAX=4.0
##FIRSTX=550.0
##LASTX=3846.0
##FIRSTY=0.000172
##MAXX=3846
##MINX=550
##MAXY=0.049
##MINY=0
##NPOINTS=825
##XYDATA=(X++(Y..Y))
550.0 35 60 68 49 37 65 62 33 63 72
590.0 69 56 31 33 47 59 61 53 56 53
630.0 36 30 31 15 1 16 34 30 15 6
670.0 15 30 27 25 25 28 30 29 36 45
710.0 41 50 71 77 96 127 137 137 154 158
750.0 144 122 126 130 124 112 116 131 134 134
790.0 130 133 143 147 147 132 116 116 112 102
830.0 89 89 102 105 109 108 100 103 118 128
870.0 133 143 151 151 153 168 180 197 217 242
910.0 276 295 303 327 353 393 490 633 825 1050
950.0 1275 1471 1618 1688 1664 1564 1398 1195 981 784
990.0 650 578 562 605 680 774 870 948 990 1014
1030.0 979 888 800 720 651 595 559 547 549 549
1070.0 582 661 768 904 1104 1345 1562 1742 1861 1856
1110.0 1735 1548 1335 1139 982 864 778 720 688 683
1150.0 702 736 785 819 833 835 809 748 671 596
1190.0 517 433 361 299 256 248 255 269 293 320
1230.0 348 362 355 351 349 341 339 351 354 349
1270.0 345 338 329 322 332 354 387 433 480 536
1310.0 600 670 744 828 928 1040 1161 1263 1338 1379
1350.0 1383 1353 1308 1273 1279 1331 1423 1520 1566 1530
1390.0 1391 1180 967 824 757 744 763 803 844 879
1430.0 923 993 1098 1254 1466 1715 1985 2229 2348 2307
1470.0 2124 1825 1462 1113 840 643 503 409 348 303
1510.0 268 242 220 202 186 169 157 151 144 136
1550.0 125 116 116 112 110 106 106 112 115 113
1590.0 114 120 125 131 137 138 145 152 152 153
1630.0 157 165 173 182 195 214 240 266 304 358
1670.0 427 509 611 748 924 1145 1452 1894 2529 3382
1710.0 4418 5521 6522 7173 7189 6441 5189 3884 2734 1846
1750.0 1263 911 690 535 421 331 263 212 180 158
1790.0 136 113 98 85 77 68 64 61 53 47
1830.0 43 39 35 33 33 28 23 21 19 24
1870.0 26 21 18 20 19 19 23 22 19 15
1910.0 16 19 21 25 22 13 16 19 16 16
1950.0 15 15 13 11 14 12 11 13 12 13
1990.0 13 12 7 7 9 7 12 12 11 9
2030.0 10 13 12 14 17 14 10 11 10 10
2070.0 8 8 12 9 6 5 2 2 0 2
2110.0 7 8 10 10 7 8 14 13 11 14
2150.0 17 16 15 11 6 1 7 9 5 7
2190.0 11 12 14 16 9 4 7 14 18 17
2230.0 13 16 15 13 15 18 20 15 19 23
2270.0 18 13 16 23 20 16 15 20 27 27
2310.0 27 26 26 32 38 39 38 42 44 44
2350.0 49 48 44 43 40 41 46 41 39 45
2390.0 44 42 40 44 45 37 36 39 36 38
2430.0 43 38 34 32 30 33 36 36 34 31
2470.0 31 34 31 28 30 37 43 36 32 37
2510.0 39 38 35 32 37 30 24 30 34 34
2550.0 32 41 46 53 59 51 53 55 56 59
2590.0 57 62 66 59 54 61 64 59 58 63
2630.0 71 77 72 71 76 83 91 89 86 92
2670.0 105 110 113 112 111 114 114 115 118 126
2710.0 131 137 152 167 177 195 202 208 227 243
2750.0 242 235 238 231 226 234 247 261 274 300
2790.0 325 348 373 404 443 482 531 578 622 674
2830.0 737 800 888 1024 1189 1392 1653 1951 2277 2647
2870.0 3082 3582 4064 4431 4655 4723 4659 4556 4533 4623
2910.0 4821 5123 5482 5909 6403 6955 7538 8033 8272 8235
2950.0 8083 8021 8218 8771 9500 10000 9960 9313 8135 6696
2990.0 5311 4123 3179 2465 1945 1592 1348 1163 1022 912
3030.0 828 743 666 613 557 505 463 427 401 379
3070.0 355 335 322 299 286 288 282 273 265 257
3110.0 247 249 253 241 234 224 217 217 212 202
3150.0 193 196 196 192 183 179 174 159 153 162
3190.0 161 136 118 124 128 117 105 85 69 65
3230.0 69 63 58 65 62 50 49 55 53 54
3270.0 58 56 52 48 44 43 43 41 44 42
3310.0 27 27 41 40 36 31 28 33 31 37
3350.0 50 53 50 52 49 45 51 63 68 64
3390.0 69 85 90 96 106 108 116 134 154 162
3430.0 167 163 144 119 106 93 75 69 54 47
3470.0 50 43 36 37 38 36 39 34 23 25
3510.0 37 36 19 8 12 18 29 38 24 15
3550.0 12 13 16 17 25 12 6 18 14 14
3590.0 27 34 29 26 30 36 24 20 21 23
3630.0 36 45 48 35 36 49 47 42 43 34
3670.0 34 37 39 39 29 28 41 47 38 42
3710.0 52 48 35 32 29 31 44 43 50 57
3750.0 54 58 46 33 36 35 33 37 45 39
3790.0 47 57 60 55 49 64 60 52 59 58
3830.0 62 63 49 48 51
##END=
