##TITLE=3-Nitrochalcone
##JCAMP-DX=4.24
##DATA TYPE=INFRARED SPECTRUM
##ORIGIN=EPA-IR VAPOR PHASE LIBRARY
##OWNER=SRD/NIST
Collection (C) 2018 copyright by the U.S. Secretary of Commerce
on behalf of the United States of America. All rights reserved.
##CAS REGISTRY NO=614-48-2
##MOLFORM=C 15 H 11 N O 3
##$NIST SOURCE=MSDC-IR
##STATE=gas
##XUNITS=1/CM
##YUNITS=ABSORBANCE
##XFACTOR=1.
##YFACTOR=0.001
##DELTAX=1.92934
##FIRSTX=549.9
##LASTX=3999.5
##FIRSTY=2.172
##MAXX=3999.53
##MINX=549.863
##MAXY=0.042292
##MINY=0
##NPOINTS=1789
##XYDATA=(X++(Y..Y))
549.863 2.172 2.272 2.402 2.582 2.702 2.762 2.812 2.982 3.362 3.792
569.156 4.222 4.452 4.632 4.672 4.292 3.762 3.262 3.062 3.032 2.992
588.450 2.972 3.032 3.032 2.892 2.682 2.432 2.092 1.7865 1.6641 1.5609
607.743 1.531 1.4759 1.4902 1.6166 1.5976 1.5732 1.5952 1.6131 1.5323 1.5044
627.037 1.523 1.5369 1.575 1.6487 1.798 2.002 2.172 2.332 2.532 2.692
646.330 2.952 3.312 3.742 4.352 5.222 6.342 7.382 8.022 8.102 7.612
665.624 6.882 6.142 5.702 5.642 5.782 6.052 6.372 6.812 7.422 7.892
684.917 8.212 8.512 8.512 8.312 8.102 7.882 7.602 7.322 6.952 6.462
704.210 5.952 5.492 5.092 4.862 4.772 4.742 4.912 5.302 5.952 6.782
723.504 7.802 8.922 9.932 10.922 11.332 10.612 9.382 8.012 6.682 5.552
742.797 4.592 3.922 3.472 3.092 2.882 2.842 2.852 2.902 2.992 3.212
762.091 3.512 3.812 4.112 4.452 4.722 4.782 4.752 4.652 4.462 4.222
781.384 3.972 3.712 3.652 3.822 4.112 4.522 5.092 5.782 6.342 6.642
800.678 6.702 6.532 6.022 5.292 4.622 4.072 3.682 3.422 3.232 3.192
819.971 3.282 3.422 3.572 3.682 3.682 3.482 3.112 2.742 2.562 2.482
839.264 2.482 2.512 2.522 2.602 2.802 3.072 3.422 3.872 4.432 4.952
858.558 5.302 5.552 5.622 5.412 4.962 4.342 3.652 2.992 2.482 2.152
877.851 1.9342 1.8129 1.7676 1.7689 1.7947 1.7683 1.7671 1.8209 1.9044 1.992
897.145 2.012 2.092 2.182 2.202 2.202 2.192 2.202 2.252 2.242 2.262
916.438 2.372 2.462 2.522 2.542 2.502 2.482 2.412 2.332 2.312 2.272
935.732 2.242 2.232 2.222 2.222 2.242 2.292 2.342 2.382 2.492 2.642
955.025 2.872 3.182 3.532 3.992 4.532 5.182 5.872 6.442 6.962 7.412
974.318 7.632 7.662 7.572 7.372 7.052 6.672 6.392 6.302 6.472 6.912
993.612 7.502 8.082 8.482 8.812 9.242 10.062 11.562 13.632 15.622 16.682
1012.905 16.402 14.782 12.262 9.712 7.722 6.372 5.542 5.072 4.862 4.722
1032.199 4.512 4.192 3.702 3.232 2.902 2.682 2.542 2.462 2.452 2.492
1051.492 2.572 2.722 2.882 3.092 3.362 3.652 3.902 4.152 4.282 4.372
1070.786 4.472 4.482 4.442 4.372 4.262 4.072 3.892 3.802 3.812 3.832
1090.079 3.922 4.072 4.212 4.322 4.372 4.282 4.032 3.642 3.262 2.922
1109.372 2.602 2.402 2.242 2.092 1.972 1.894 1.8148 1.7344 1.6624 1.6321
1128.666 1.6344 1.6293 1.6194 1.5998 1.5918 1.6014 1.6405 1.6552 1.7077 1.7667
1147.959 1.8133 1.8768 1.9038 1.952 2.022 2.142 2.312 2.562 2.952 3.352
1167.253 3.692 4.072 4.512 5.252 6.572 8.152 9.292 9.532 8.862 7.402
1186.546 5.862 4.932 4.702 4.962 5.512 6.362 7.432 8.812 10.572 12.732
1205.840 15.212 17.672 19.522 20.182 19.412 17.372 14.642 11.942 9.752 8.072
1225.133 6.822 6.012 5.532 5.282 5.132 5.062 5.082 5.102 5.172 5.252
1244.426 5.342 5.472 5.622 5.842 6.122 6.532 7.092 7.862 8.882 10.152
1263.720 11.532 12.902 14.002 14.612 14.752 14.382 13.772 13.132 12.612 12.282
1283.013 12.092 12.042 12.022 12.022 12.162 12.512 13.002 13.442 13.722 13.922
1302.307 14.122 14.442 15.012 15.772 16.642 17.412 18.032 18.462 18.732 18.862
1321.600 18.772 18.402 17.662 16.572 15.452 14.552 13.992 13.792 13.772 13.942
1340.894 14.412 15.392 17.112 19.582 22.692 26.152 29.292 31.262 31.352 29.382
1360.187 25.752 21.222 16.782 13.162 10.412 8.352 6.892 5.852 5.072 4.472
1379.480 3.992 3.692 3.402 3.162 3.012 2.862 2.702 2.602 2.532 2.452
1398.774 2.372 2.312 2.262 2.212 2.142 2.152 2.202 2.192 2.212 2.272
1418.067 2.372 2.452 2.512 2.632 2.762 2.972 3.252 3.472 3.732 4.112
1437.361 4.422 4.662 5.012 5.472 6.002 6.442 6.372 5.852 5.072 4.172
1456.654 3.522 3.142 2.952 2.902 2.972 3.062 3.192 3.412 3.622 3.842
1475.948 4.032 4.112 4.152 4.182 4.112 4.052 4.092 4.132 4.132 4.212
1495.241 4.412 4.582 4.692 4.762 4.912 5.112 5.212 5.172 5.132 5.152
1514.534 5.252 5.412 5.592 5.902 6.352 6.962 7.882 9.092 10.772 13.012
1533.828 15.952 19.582 23.942 29.482 35.092 39.642 42.292 42.192 39.252 34.172
1553.121 28.452 22.842 18.592 15.282 12.702 11.092 10.142 9.612 9.482 9.592
1572.415 9.802 10.152 10.382 10.332 10.092 9.692 9.232 8.842 8.542 8.332
1591.708 8.252 8.212 8.242 8.362 8.512 8.712 9.042 9.572 10.412 11.682
1611.002 13.382 15.462 17.762 20.052 21.582 21.942 21.002 18.742 15.732 12.592
1630.295 10.082 8.262 6.922 5.932 5.282 4.882 4.652 4.592 4.672 4.752
1649.588 4.832 5.132 5.462 5.662 6.082 6.782 7.682 8.802 10.102 11.582
1668.882 13.112 14.412 15.402 16.272 17.022 17.832 18.692 19.322 19.562 19.172
1688.175 18.112 16.412 14.262 12.162 10.232 8.572 7.302 6.112 5.222 4.592
1707.469 4.092 3.672 3.372 3.172 3.062 2.952 2.792 2.612 2.492 2.372
1726.762 2.272 2.162 2.032 1.992 1.9297 1.7274 1.6559 1.6534 1.6171 1.602
1746.056 1.592 1.5514 1.5247 1.5331 1.515 1.5574 1.575 1.5659 1.5739 1.5426
1765.349 1.5408 1.5881 1.5852 1.5955 1.6367 1.567 1.5026 1.5103 1.495 1.4445
1784.642 1.4577 1.4621 1.4664 1.5137 1.5105 1.5089 1.5636 1.6179 1.708 1.7794
1803.936 1.7663 1.7875 1.7881 1.7423 1.6984 1.6617 1.6395 1.5664 1.52 1.5391
1823.229 1.544 1.5243 1.5109 1.5027 1.4554 1.4373 1.4252 1.3792 1.3507 1.3404
1842.523 1.3514 1.3339 1.2776 1.1992 1.1553 1.1552 1.1636 1.1485 1.1028 1.097
1861.816 1.0629 1.03494 1.0742 1.1325 1.1562 1.1471 1.1815 1.1994 1.2227 1.2592
1881.110 1.2722 1.2663 1.3037 1.3809 1.4369 1.4867 1.5477 1.5843 1.5961 1.5652
1900.403 1.5178 1.4937 1.4373 1.3461 1.2756 1.2317 1.1769 1.1472 1.1111 1.042
1919.696 0.97996 0.97086 1.00486 1.00743 0.99825 1.00215 1.01968 1.0404 1.03244 1.0596
1938.990 1.1219 1.1861 1.2548 1.3043 1.3456 1.3837 1.4019 1.4328 1.4431 1.4128
1958.283 1.3749 1.344 1.3161 1.2451 1.2357 1.2449 1.1851 1.14 1.1094 1.0848
1977.577 1.01824 0.96738 0.942059 0.867 0.8465 0.8569 0.835 0.8486 0.841 0.812
1996.870 0.819 0.825 0.8615 0.893 0.8627 0.837 0.84 0.836 0.859 0.8711
2016.164 0.8609 0.8538 0.8454 0.8532 0.8584 0.84 0.84 0.8561 0.842 0.8462
2035.457 0.84 0.815 0.782 0.754 0.751 0.74 0.752 0.765 0.753 0.744
2054.750 0.74 0.742 0.736 0.755 0.781 0.777 0.759 0.735 0.746 0.741
2074.044 0.716 0.747 0.732 0.674 0.675 0.669 0.685 0.671 0.645 0.685
2093.337 0.7 0.682 0.672 0.663 0.657 0.661 0.67 0.688 0.699 0.727
2112.631 0.745 0.691 0.654 0.676 0.655 0.658 0.692 0.697 0.729 0.725
2131.924 0.687 0.673 0.693 0.697 0.644 0.627 0.646 0.649 0.634 0.642
2151.218 0.648 0.628 0.629 0.629 0.637 0.614 0.629 0.663 0.636 0.632
2170.511 0.627 0.633 0.66 0.664 0.624 0.623 0.659 0.652 0.644 0.608
2189.804 0.591 0.624 0.628 0.647 0.664 0.641 0.612 0.598 0.612 0.627
2209.098 0.627 0.578 0.561 0.592 0.594 0.604 0.627 0.618 0.588 0.61
2228.391 0.613 0.613 0.62 0.596 0.584 0.591 0.598 0.56 0.582 0.626
2247.685 0.598 0.589 0.6 0.588 0.594 0.603 0.613 0.622 0.62 0.632
2266.978 0.643 0.64 0.627 0.634 0.61 0.589 0.622 0.625 0.616 0.629
2286.272 0.641 0.671 0.688 0.666 0.645 0.665 0.674 0.627 0.631 0.673
2305.565 0.652 0.678 0.698 0.701 0.708 0.712 0.771 0.796 0.818 0.837
2324.858 0.82 0.839 0.823 0.759 0.785 0.793 0.802 0.822 0.798 0.749
2344.152 0.728 0.737 0.724 0.695 0.657 0.644 0.666 0.678 0.677 0.669
2363.445 0.668 0.698 0.679 0.653 0.645 0.644 0.648 0.633 0.636 0.611
2382.739 0.585 0.573 0.543 0.54 0.562 0.576 0.557 0.562 0.581 0.564
2402.032 0.554 0.548 0.546 0.524 0.528 0.574 0.579 0.565 0.582 0.57
2421.326 0.527 0.549 0.547 0.503 0.519 0.53 0.515 0.512 0.476 0.482
2440.619 0.521 0.533 0.515 0.502 0.511 0.491 0.498 0.483 0.497 0.536
2459.912 0.511 0.503 0.521 0.507 0.493 0.473 0.459 0.463 0.456 0.456
2479.206 0.449 0.467 0.471 0.471 0.463 0.443 0.443 0.454 0.475 0.458
2498.499 0.418 0.406 0.411 0.407 0.424 0.436 0.423 0.41 0.401 0.401
2517.793 0.399 0.378 0.373 0.392 0.384 0.368 0.382 0.429 0.412 0.343
2537.086 0.295 0.312 0.346 0.345 0.356 0.37 0.373 0.341 0.35 0.379
2556.380 0.375 0.363 0.34 0.388 0.413 0.405 0.403 0.351 0.366 0.414
2575.673 0.38 0.363 0.373 0.392 0.436 0.427 0.412 0.42 0.405 0.398
2594.966 0.387 0.413 0.425 0.387 0.409 0.432 0.439 0.436 0.397 0.344
2614.260 0.342 0.36 0.322 0.303 0.353 0.37 0.346 0.309 0.358 0.408
2633.553 0.37 0.322 0.314 0.339 0.321 0.323 0.337 0.345 0.358 0.333
2652.847 0.29 0.268 0.309 0.337 0.296 0.26 0.233 0.228 0.291 0.354
2672.140 0.321 0.298 0.302 0.311 0.341 0.338 0.283 0.272 0.332 0.339
2691.434 0.289 0.304 0.305 0.289 0.361 0.356 0.313 0.319 0.291 0.2
2710.727 0.198 0.271 0.271 0.278 0.224 0.189 0.193 0.168 0.166 0.165
2730.020 0.169 0.138 0.127 0.125 0.114 0.133 0.144 0.157 0.146 0.056
2749.314 0.049 0.103 0.078 0.076 0.062 0.034 0.075 0.136 0.157 0.165
2768.607 0.159 0.069 0.013 0.084 0.112 0.081 0.02 0.062 0.144 0.153
2787.901 0.148 0.123 0.099 0.051 0.137 0.214 0.168 0.172 0.161 0.11
2807.194 0.088 0.124 0.147 0.155 0.151 0.139 0.161 0.145 0.136 0.176
2826.488 0.19 0.191 0.193 0.196 0.215 0.234 0.232 0.188 0.135 0.121
2845.781 0.198 0.239 0.2 0.192 0.234 0.23 0.232 0.252 0.241 0.341
2865.074 0.348 0.307 0.337 0.383 0.447 0.433 0.407 0.409 0.445 0.489
2884.368 0.579 0.678 0.563 0.48 0.516 0.604 0.605 0.501 0.458 0.452
2903.661 0.424 0.332 0.354 0.298 0.239 0.253 0.181 0.171 0.223 0.229
2922.955 0.175 0.182 0.176 0.131 0.155 0.171 0.142 0.165 0.169 0.106
2942.248 0.101 0.144 0.177 0.153 0.158 0.153 0.097 0.167 0.246 0.284
2961.542 0.18 0.002 0.008 0.04 0.003 0 0.016 0.112 0.126 0.068
2980.835 0.071 0.145 0.191 0.117 0.098 0.102 0.167 0.244 0.293 0.282
3000.128 0.307 0.321 0.332 0.409 0.472 0.439 0.461 0.549 0.645 0.766
3019.422 0.801 0.878 1.1089 1.3455 1.5059 1.7237 1.972 2.242 2.482 2.622
3038.715 2.762 2.902 2.862 2.742 2.622 2.572 2.472 2.482 2.672 2.882
3058.009 3.082 3.252 3.552 3.892 4.292 4.822 5.382 5.842 5.992 5.952
3077.302 5.782 5.432 5.022 4.762 4.582 4.392 4.342 4.232 3.832 3.372
3096.596 2.992 2.632 2.382 2.052 1.8304 1.7081 1.4309 1.1648 1.0739 0.941277
3115.889 0.761 0.634 0.572 0.55 0.513 0.461 0.32 0.245 0.246 0.244
3135.182 0.305 0.302 0.159 0.099 0.204 0.251 0.218 0.238 0.227 0.212
3154.476 0.164 0.163 0.285 0.341 0.326 0.285 0.244 0.222 0.141 0.123
3173.769 0.176 0.233 0.239 0.211 0.253 0.255 0.241 0.258 0.293 0.297
3193.063 0.295 0.334 0.254 0.191 0.221 0.252 0.299 0.309 0.311 0.233
3212.356 0.125 0.107 0.217 0.326 0.366 0.337 0.206 0.217 0.283 0.364
3231.650 0.419 0.382 0.374 0.384 0.326 0.321 0.289 0.198 0.264 0.363
3250.943 0.348 0.281 0.328 0.334 0.356 0.324 0.306 0.319 0.273 0.377
3270.236 0.411 0.419 0.429 0.393 0.406 0.438 0.409 0.338 0.352 0.369
3289.530 0.497 0.546 0.539 0.589 0.569 0.527 0.518 0.592 0.652 0.619
3308.823 0.566 0.606 0.685 0.75 0.634 0.617 0.715 0.778 0.777 0.698
3328.117 0.614 0.636 0.685 0.665 0.826 0.9137 0.752 0.676 0.753 0.698
3347.410 0.626 0.684 0.697 0.698 0.775 0.806 0.825 0.8517 0.804 0.733
3366.704 0.812 0.828 0.701 0.716 0.779 0.778 0.758 0.702 0.679 0.637
3385.997 0.658 0.819 0.746 0.579 0.607 0.711 0.756 0.794 0.69 0.623
3405.290 0.653 0.623 0.69 0.726 0.77 0.76 0.656 0.636 0.685 0.743
3424.584 0.787 0.784 0.729 0.696 0.749 0.719 0.704 0.835 0.748 0.54
3443.877 0.583 0.694 0.759 0.784 0.735 0.735 0.81 0.789 0.677 0.693
3463.171 0.729 0.699 0.688 0.703 0.756 0.722 0.697 0.767 0.723 0.701
3482.464 0.799 0.831 0.788 0.748 0.744 0.772 0.742 0.707 0.733 0.676
3501.758 0.648 0.706 0.686 0.664 0.757 0.822 0.792 0.739 0.78 0.804
3521.051 0.758 0.788 0.779 0.764 0.75 0.702 0.691 0.78 0.833 0.749
3540.344 0.63 0.651 0.813 0.8666 0.798 0.746 0.705 0.672 0.755 0.743
3559.638 0.737 0.8717 0.8631 0.756 0.823 0.8881 0.82 0.77 0.813 0.784
3578.931 0.67 0.773 0.8678 0.779 0.757 0.878 0.8598 0.778 0.754 0.792
3598.225 0.8465 0.836 0.879 0.9056 0.8954 0.812 0.793 0.789 0.765 0.841
3617.518 0.776 0.708 0.776 0.777 0.76 0.838 0.8796 0.819 0.766 0.831
3636.812 0.829 0.726 0.734 0.785 0.761 0.767 0.8629 0.8808 0.809 0.78
3656.105 0.773 0.795 0.821 0.828 0.841 0.82 0.837 0.771 0.781 0.803
3675.398 0.812 0.815 0.804 0.8 0.789 0.8532 0.793 0.759 0.787 0.749
3694.692 0.753 0.77 0.743 0.724 0.725 0.756 0.782 0.837 0.84 0.8534
3713.985 0.839 0.744 0.713 0.73 0.673 0.682 0.729 0.755 0.83 0.803
3733.279 0.8464 0.98359 0.96828 0.8796 0.8904 0.9222 0.8934 0.8647 0.9049 0.8614
3752.572 0.801 0.834 0.839 0.741 0.693 0.727 0.733 0.758 0.651 0.64
3771.866 0.698 0.718 0.736 0.765 0.806 0.805 0.8423 0.784 0.698 0.64
3791.159 0.645 0.764 0.785 0.69 0.705 0.738 0.698 0.64 0.666 0.758
3810.452 0.692 0.664 0.747 0.784 0.681 0.669 0.764 0.72 0.693 0.708
3829.746 0.659 0.59 0.628 0.698 0.754 0.725 0.629 0.623 0.625 0.667
3849.039 0.728 0.693 0.695 0.739 0.792 0.757 0.71 0.745 0.7 0.609
3868.333 0.647 0.705 0.643 0.569 0.568 0.665 0.669 0.657 0.712 0.723
3887.626 0.742 0.735 0.708 0.7 0.75 0.815 0.81 0.752 0.74 0.735
3906.920 0.663 0.619 0.596 0.555 0.551 0.625 0.632 0.601 0.661 0.671
3926.213 0.614 0.603 0.619 0.627 0.584 0.607 0.663 0.61 0.523 0.519
3945.506 0.588 0.572 0.565 0.555 0.595 0.593 0.515 0.56 0.6 0.599
3964.800 0.581 0.532 0.493 0.543 0.556 0.574 0.621 0.597 0.547 0.522
3984.093 0.478 0.498 0.542 0.546 0.564 0.511 0.525 0.554 0.526
##END=
