##TITLE=Cinnamylideneacetophenone
##JCAMP-DX=4.24
##DATA TYPE=INFRARED SPECTRUM
##ORIGIN=EPA-IR VAPOR PHASE LIBRARY
##OWNER=SRD/NIST
Collection (C) 2018 copyright by the U.S. Secretary of Commerce
on behalf of the United States of America. All rights reserved.
##CAS REGISTRY NO=614-57-3
##MOLFORM=C 17 H 14 O
##$NIST SOURCE=MSDC-IR
##STATE=gas
##XUNITS=1/CM
##YUNITS=ABSORBANCE
##XFACTOR=1.
##YFACTOR=0.001
##DELTAX=1.92934
##FIRSTX=549.9
##LASTX=3999.5
##FIRSTY=1.497
##MAXX=3999.53
##MINX=549.863
##MAXY=0.033347
##MINY=0
##NPOINTS=1789
##XYDATA=(X++(Y..Y))
549.863 1.497 1.727 1.737 1.787 1.897 1.947 1.797 1.697 1.677 1.417
569.156 1.2517 1.3388 1.3089 1.1026 1.0991 1.2459 1.1838 1.2442 1.2543 1.206
588.450 1.2623 1.2767 1.2068 1.163 1.3202 1.376 1.3296 1.3467 1.437 1.487
607.743 1.497 1.677 1.917 2.107 2.207 2.337 2.517 2.737 2.977 3.057
627.037 3.097 2.997 2.667 2.377 2.237 2.107 2.057 2.147 2.267 2.377
646.330 2.547 2.777 3.037 3.347 3.747 4.187 4.607 5.067 5.627 6.257
665.624 6.967 7.687 8.247 8.577 8.607 8.497 8.657 9.197 10.107 11.207
684.917 12.407 13.787 15.187 16.467 17.397 17.747 17.497 16.667 15.317 13.617
704.210 11.797 10.157 8.767 7.617 6.787 6.107 5.627 5.347 5.167 5.157
723.504 5.167 5.227 5.357 5.467 5.597 5.757 5.907 5.987 5.977 5.927
742.797 5.837 5.727 5.547 5.347 5.197 5.187 5.347 5.667 6.097 6.507
762.091 6.857 7.077 7.157 6.997 6.657 6.207 5.677 5.117 4.537 4.027
781.384 3.577 3.167 2.857 2.597 2.367 2.227 2.107 1.967 1.897 1.827
800.678 1.797 1.787 1.857 1.927 1.907 1.967 2.067 2.157 2.327 2.437
819.971 2.507 2.657 2.857 3.047 3.257 3.487 3.617 3.617 3.637 3.747
839.264 3.977 4.087 4.007 3.717 3.237 2.827 2.427 2.137 2.037 1.997
858.558 1.937 1.887 1.897 1.967 2.047 2.087 2.107 2.137 2.177 2.177
877.851 2.197 2.177 2.087 2.017 1.907 1.797 1.707 1.637 1.617 1.577
897.145 1.517 1.527 1.527 1.517 1.517 1.527 1.547 1.637 1.687 1.737
916.438 1.797 1.847 1.867 1.947 2.077 2.147 2.237 2.317 2.387 2.537
935.732 2.727 2.927 3.107 3.207 3.267 3.327 3.337 3.367 3.427 3.487
955.025 3.577 3.687 3.807 3.957 4.127 4.287 4.507 4.767 5.107 5.547
974.318 6.067 6.747 7.567 8.527 9.657 10.967 12.417 13.977 15.467 16.727
993.612 17.527 17.817 17.827 17.857 18.187 18.907 20.127 21.667 23.167 24.227
1012.905 24.147 22.387 19.197 15.457 12.227 10.027 8.687 8.007 7.617 7.177
1032.199 6.577 5.717 4.747 3.927 3.397 3.127 2.957 2.847 2.787 2.797
1051.492 2.897 3.027 3.157 3.347 3.637 3.937 4.217 4.507 4.717 4.787
1070.786 4.767 4.707 4.527 4.207 3.807 3.377 2.977 2.567 2.267 2.087
1090.079 1.947 1.857 1.837 1.777 1.707 1.697 1.667 1.577 1.537 1.537
1109.372 1.517 1.507 1.527 1.517 1.437 1.547 1.667 1.667 1.697 1.787
1128.666 1.977 2.267 2.567 2.867 3.197 3.547 3.807 3.837 3.757 3.657
1147.959 3.357 2.997 2.847 2.797 2.957 3.127 3.097 3.027 2.987 2.927
1167.253 3.097 3.657 4.527 5.917 7.777 9.517 10.537 10.537 9.557 8.007
1186.546 6.847 6.467 6.587 7.037 7.467 7.637 7.657 7.577 7.477 7.487
1205.840 7.437 7.507 8.027 8.567 9.107 9.647 9.947 10.367 10.707 10.867
1225.133 11.097 11.417 11.927 12.657 13.347 14.127 15.147 16.317 17.697 19.087
1244.426 20.137 20.227 19.127 17.087 14.847 13.007 11.777 11.187 11.277 11.937
1263.720 13.017 14.457 16.167 17.827 19.057 19.657 19.497 18.777 17.827 16.787
1283.013 15.817 14.947 14.037 13.137 12.347 11.747 11.477 11.397 11.467 11.577
1302.307 11.507 11.177 10.687 10.077 9.497 9.137 9.107 9.247 9.447 9.617
1321.600 9.747 9.807 9.727 9.637 9.567 9.627 9.917 10.437 11.167 11.907
1340.894 12.407 12.377 11.697 10.487 8.927 7.287 5.877 4.827 4.057 3.547
1360.187 3.187 2.887 2.677 2.517 2.407 2.297 2.177 2.097 2.007 1.897
1379.480 1.817 1.757 1.657 1.577 1.487 1.407 1.3835 1.3876 1.3778 1.3609
1398.774 1.447 1.547 1.607 1.677 1.767 1.847 1.897 1.927 1.997 1.977
1418.067 1.967 1.977 1.947 1.927 1.917 1.967 2.017 2.107 2.237 2.457
1437.361 2.817 3.297 3.937 4.707 5.437 5.887 5.867 5.407 4.577 3.687
1456.654 2.977 2.487 2.137 1.927 1.777 1.657 1.577 1.537 1.527 1.517
1475.948 1.507 1.507 1.537 1.607 1.667 1.787 1.967 2.187 2.417 2.597
1495.241 2.677 2.577 2.347 1.997 1.677 1.487 1.3705 1.3213 1.3002 1.3015
1514.534 1.3204 1.3362 1.407 1.427 1.437 1.497 1.537 1.587 1.657 1.697
1533.828 1.727 1.777 1.787 1.827 1.887 1.917 1.967 2.087 2.257 2.427
1553.121 2.607 2.817 3.097 3.467 3.957 4.547 5.267 6.067 6.987 7.937
1572.415 8.907 9.897 11.037 12.407 14.007 16.007 18.467 21.407 24.627 27.677
1591.708 30.087 31.667 32.527 32.997 33.347 33.197 31.877 29.277 25.967 22.907
1611.002 20.867 19.877 19.367 18.687 17.637 16.197 14.547 12.927 11.337 9.807
1630.295 8.407 7.207 6.327 5.707 5.287 5.127 5.127 5.207 5.417 5.837
1649.588 6.407 7.217 8.417 9.917 11.797 14.107 16.477 18.617 20.287 21.307
1668.882 21.627 21.547 21.327 21.047 20.557 19.817 18.787 17.457 15.677 13.727
1688.175 11.877 10.077 8.487 7.137 5.977 5.097 4.427 3.867 3.447 3.107
1707.469 2.827 2.567 2.337 2.127 1.967 1.827 1.687 1.627 1.567 1.487
1726.762 1.427 1.427 1.427 1.407 1.3649 1.3687 1.3682 1.3606 1.3497 1.3096
1746.056 1.3262 1.3544 1.3522 1.343 1.2901 1.2928 1.3603 1.407 1.457 1.507
1765.349 1.487 1.467 1.507 1.517 1.497 1.487 1.467 1.447 1.3834 1.3532
1784.642 1.3731 1.3855 1.3918 1.427 1.467 1.477 1.497 1.497 1.497 1.537
1803.936 1.537 1.507 1.487 1.457 1.437 1.3762 1.3136 1.2372 1.173 1.1408
1823.229 1.1181 1.1074 1.0737 1.0165 0.9748 0.9611 0.9505 0.9478 0.9307 0.9461
1842.523 0.9787 0.9985 1.0229 1.0376 1.0492 1.0489 1.0487 1.0619 1.0834 1.0975
1861.816 1.1128 1.1196 1.1154 1.0972 1.088 1.0978 1.08 1.0595 1.0369 1.0584
1881.110 1.1132 1.1211 1.1587 1.1795 1.1637 1.1364 1.0958 1.0262 0.9546 0.944
1900.403 0.9487 0.9394 0.9078 0.8786 0.8767 0.8633 0.8564 0.8191 0.7661 0.7664
1919.696 0.7654 0.7668 0.8074 0.8083 0.7824 0.775 0.8117 0.8762 0.9214 0.9643
1938.990 1.0122 1.0458 1.0691 1.0901 1.1071 1.1348 1.1966 1.2771 1.3188 1.2953
1958.283 1.22 1.1339 1.052 0.9681 0.8944 0.8466 0.7942 0.7376 0.6684 0.6073
1977.577 0.5462 0.49071 0.49286 0.49063 0.46434 0.4459 0.43193 0.44206 0.46045 0.47266
1996.870 0.46945 0.46847 0.46356 0.43732 0.42617 0.44217 0.43267 0.43051 0.43639 0.41346
2016.164 0.42721 0.45589 0.44255 0.44367 0.48078 0.47125 0.4439 0.45639 0.45696 0.42129
2035.457 0.41285 0.40961 0.39403 0.405069 0.41872 0.42413 0.39064 0.3723 0.3789 0.3591
2054.750 0.3642 0.3656 0.3524 0.3535 0.3702 0.3766 0.3625 0.3476 0.3353 0.296
2074.044 0.283 0.3048 0.3265 0.3575 0.361 0.3156 0.291 0.2985 0.3295 0.3532
2093.337 0.3301 0.3171 0.3037 0.3091 0.3119 0.282 0.29 0.3078 0.3081 0.3133
2112.631 0.286 0.267 0.264 0.2994 0.3121 0.3202 0.3241 0.3119 0.3113 0.3252
2131.924 0.337 0.3159 0.284 0.276 0.3435 0.3536 0.3054 0.3393 0.3602 0.3457
2151.218 0.338 0.3357 0.3373 0.3151 0.3205 0.3428 0.3438 0.3339 0.3415 0.3316
2170.511 0.3053 0.3019 0.3174 0.3283 0.332 0.3321 0.3539 0.3284 0.2993 0.3282
2189.804 0.3265 0.3149 0.2989 0.3097 0.3056 0.28 0.2983 0.3123 0.3168 0.3321
2209.098 0.335 0.338 0.3246 0.3223 0.3394 0.3182 0.3051 0.3176 0.3372 0.3496
2228.391 0.3433 0.3405 0.3502 0.339 0.3232 0.3307 0.3659 0.3795 0.3572 0.3321
2247.685 0.3273 0.3569 0.3639 0.3472 0.3545 0.3804 0.3837 0.39447 0.39261 0.39078
2266.978 0.405553 0.398071 0.403176 0.4092 0.41315 0.42947 0.43984 0.41676 0.4071 0.43167
2286.272 0.42405 0.405764 0.3719 0.3603 0.3744 0.3847 0.41309 0.403369 0.38812 0.40739
2305.565 0.416 0.41935 0.41923 0.42833 0.5199 0.5828 0.5687 0.5594 0.5202 0.5108
2324.858 0.509 0.46929 0.44903 0.46124 0.49176 0.49188 0.45965 0.46554 0.4853 0.43547
2344.152 0.42522 0.47462 0.46075 0.41273 0.401317 0.41372 0.39063 0.3817 0.39331 0.39289
2363.445 0.38848 0.3653 0.3547 0.3355 0.3474 0.3483 0.3385 0.3436 0.3247 0.3217
2382.739 0.3254 0.3059 0.3147 0.3411 0.3432 0.3454 0.3558 0.3698 0.3566 0.337
2402.032 0.3397 0.3712 0.3638 0.3797 0.41451 0.38907 0.3761 0.39272 0.41068 0.39243
2421.326 0.3677 0.3789 0.3847 0.3749 0.3594 0.3543 0.3548 0.3531 0.3628 0.3636
2440.619 0.3779 0.398354 0.3646 0.3358 0.3228 0.3452 0.3704 0.3233 0.313 0.316
2459.912 0.282 0.263 0.285 0.292 0.3066 0.3128 0.325 0.3529 0.333 0.3117
2479.206 0.286 0.289 0.3132 0.294 0.3049 0.3295 0.292 0.283 0.3109 0.2973
2498.499 0.3069 0.3229 0.3017 0.3037 0.3164 0.3229 0.3337 0.3401 0.3323 0.3221
2517.793 0.3226 0.3231 0.3131 0.3182 0.3 0.291 0.3076 0.3096 0.3614 0.3827
2537.086 0.3537 0.3713 0.3787 0.3594 0.3404 0.3311 0.3493 0.3809 0.3568 0.3092
2556.380 0.3153 0.3375 0.3256 0.3368 0.3541 0.3462 0.3412 0.3495 0.3582 0.37
2575.673 0.41353 0.43099 0.43935 0.45706 0.46537 0.45784 0.46406 0.46108 0.46422 0.48437
2594.966 0.5035 0.5394 0.5055 0.49391 0.5149 0.513 0.5162 0.48046 0.487 0.5073
2614.260 0.46934 0.45926 0.47808 0.46231 0.44798 0.43117 0.3922 0.40945 0.42777 0.42223
2633.553 0.39493 0.3754 0.3767 0.3161 0.3024 0.3376 0.3396 0.3297 0.3518 0.3541
2652.847 0.3008 0.294 0.3061 0.3171 0.3278 0.3194 0.297 0.285 0.2991 0.3092
2672.140 0.287 0.278 0.29 0.285 0.3058 0.268 0.251 0.245 0.225 0.251
2691.434 0.291 0.303 0.3302 0.3396 0.3034 0.3005 0.3032 0.3099 0.274 0.229
2710.727 0.266 0.298 0.294 0.3141 0.3487 0.3246 0.236 0.267 0.3387 0.3525
2730.020 0.3527 0.3185 0.286 0.3102 0.3725 0.39539 0.3561 0.3578 0.3509 0.3204
2749.314 0.3465 0.3325 0.291 0.276 0.3387 0.3663 0.3521 0.3597 0.3703 0.3673
2768.607 0.3397 0.3346 0.3189 0.3295 0.3355 0.3552 0.3782 0.396971 0.41156 0.405595
2787.901 0.39321 0.3534 0.3723 0.406848 0.3642 0.3776 0.3692 0.3613 0.42029 0.368
2807.194 0.3501 0.3615 0.3422 0.3509 0.3864 0.381 0.400486 0.42411 0.3619 0.3532
2826.488 0.3868 0.43602 0.48088 0.43713 0.42958 0.48061 0.4376 0.39287 0.43133 0.47706
2845.781 0.5035 0.5293 0.5052 0.49456 0.5224 0.5314 0.5307 0.49104 0.44278 0.5501
2865.074 0.6163 0.5297 0.47068 0.46801 0.5151 0.5607 0.5663 0.5575 0.5656 0.585
2884.368 0.6674 0.7085 0.6782 0.6753 0.6745 0.689 0.6774 0.6442 0.6827 0.7038
2903.661 0.6722 0.6934 0.6792 0.6162 0.6446 0.687 0.618 0.5736 0.6139 0.6404
2922.955 0.6705 0.6289 0.5664 0.5722 0.5581 0.5533 0.5384 0.5873 0.5803 0.5561
2942.248 0.5786 0.5718 0.5443 0.4753 0.5183 0.5613 0.5546 0.5294 0.5273 0.5543
2961.542 0.5252 0.46816 0.6095 0.7512 0.725 0.7488 0.7473 0.6913 0.696 0.7351
2980.835 0.7859 0.8675 0.8723 0.9129 0.9654 1.0229 1.1735 1.2201 1.3332 1.617
3000.128 1.807 1.907 2.027 2.257 2.507 2.687 2.947 3.327 3.687 4.087
3019.422 4.677 5.457 6.297 7.077 7.997 8.987 9.737 10.147 10.167 9.917
3038.715 9.377 8.517 7.597 7.007 6.557 6.207 5.977 5.857 6.017 6.307
3058.009 6.877 7.567 8.467 9.797 11.327 12.757 13.687 13.807 13.027 11.707
3077.302 10.277 9.067 8.427 8.247 8.067 7.897 7.607 7.097 6.547 5.807
3096.596 5.187 4.757 4.257 3.817 3.587 3.347 2.887 2.457 2.087 1.727
3115.889 1.437 1.2268 1.0906 1.0011 0.9466 0.8511 0.674 0.5928 0.5467 0.48962
3135.182 0.48991 0.48881 0.46775 0.401446 0.42176 0.49168 0.5615 0.583 0.5746 0.5629
3154.476 0.5308 0.5032 0.400505 0.3518 0.3326 0.3045 0.288 0.285 0.291 0.232
3173.769 0.262 0.285 0.246 0.255 0.21 0.186 0.247 0.38901 0.3666 0.2
3193.063 0.188 0.195 0.175 0.244 0.202 0.163 0.23 0.16 0.084 0.153
3212.356 0.148 0.208 0.341 0.272 0.154 0.118 0.193 0.226 0.17 0.184
3231.650 0.165 0.044 0.043 0.116 0.099 0.146 0.215 0.201 0.197 0.193
3250.943 0.134 0.183 0.3385 0.3141 0.233 0.236 0.225 0.221 0.213 0.245
3270.236 0.277 0.3297 0.3039 0.254 0.3174 0.3378 0.3286 0.279 0.273 0.3526
3289.530 0.315 0.268 0.285 0.346 0.368 0.3094 0.3518 0.3406 0.362 0.3481
3308.823 0.29 0.3546 0.3697 0.3077 0.367 0.45704 0.405803 0.4268 0.41305 0.383
3328.117 0.3866 0.3812 0.44264 0.3762 0.3518 0.47267 0.45701 0.47307 0.5586 0.6185
3347.410 0.5616 0.404038 0.2984 0.287 0.3375 0.295 0.267 0.283 0.25 0.3082
3366.704 0.3619 0.3054 0.251 0.126 0.056 0.138 0.221 0.189 0.102 0.122
3385.997 0.175 0.262 0.3071 0.206 0.125 0.245 0.247 0.103 0.23 0.237
3405.290 0.162 0.191 0.146 0.039 0.015 0.087 0.052 0 0.018 0.058
3424.584 0.127 0.119 0.166 0.252 0.15 0.141 0.224 0.201 0.223 0.135
3443.877 0.119 0.264 0.283 0.274 0.3153 0.279 0.189 0.17 0.103 0.099
3463.171 0.173 0.226 0.246 0.196 0.155 0.155 0.202 0.166 0.121 0.124
3482.464 0.162 0.157 0.044 0.107 0.218 0.239 0.133 0.083 0.16 0.133
3501.758 0.163 0.234 0.243 0.221 0.201 0.222 0.251 0.261 0.3043 0.286
3521.051 0.193 0.217 0.229 0.225 0.264 0.3287 0.3606 0.3102 0.3013 0.282
3540.344 0.21 0.205 0.221 0.227 0.259 0.261 0.247 0.262 0.256 0.251
3559.638 0.3083 0.3091 0.277 0.3515 0.3842 0.3323 0.3043 0.244 0.24 0.3206
3578.931 0.3349 0.244 0.266 0.3157 0.288 0.281 0.262 0.266 0.202 0.182
3598.225 0.275 0.3057 0.315 0.291 0.236 0.27 0.284 0.285 0.288 0.264
3617.518 0.213 0.191 0.272 0.3037 0.289 0.278 0.3003 0.3522 0.287 0.242
3636.812 0.3354 0.3383 0.3016 0.3852 0.44909 0.44572 0.3815 0.286 0.3464 0.47405
3656.105 0.4416 0.3023 0.219 0.275 0.3271 0.3292 0.3157 0.329 0.349 0.3319
3675.398 0.38943 0.3395 0.289 0.399969 0.44374 0.3267 0.276 0.3496 0.38761 0.3706
3694.692 0.371 0.3736 0.3625 0.3779 0.41055 0.43588 0.4354 0.4295 0.386 0.3112
3713.985 0.3139 0.3708 0.43761 0.48091 0.45077 0.3791 0.3233 0.3144 0.3405 0.348
3733.279 0.3381 0.3697 0.3496 0.3217 0.304 0.229 0.195 0.283 0.3671 0.3728
3752.572 0.3571 0.3813 0.3718 0.3615 0.41331 0.41023 0.43879 0.41725 0.3319 0.282
3771.866 0.271 0.3124 0.265 0.217 0.213 0.239 0.291 0.229 0.245 0.3628
3791.159 0.3589 0.275 0.294 0.28 0.277 0.3303 0.297 0.294 0.275 0.278
3810.452 0.3487 0.43125 0.39379 0.255 0.191 0.268 0.3518 0.37 0.3751 0.3037
3829.746 0.258 0.264 0.278 0.286 0.286 0.3001 0.3449 0.346 0.3321 0.3193
3849.039 0.278 0.296 0.3678 0.3649 0.28 0.3456 0.3863 0.3452 0.3358 0.3293
3868.333 0.27 0.203 0.265 0.3166 0.3553 0.3452 0.3187 0.3452 0.402726 0.3462
3887.626 0.3638 0.45898 0.42383 0.3334 0.29 0.3458 0.41809 0.45924 0.44028 0.45895
3906.920 0.45434 0.40777 0.40885 0.45362 0.44169 0.41599 0.44462 0.46915 0.5036 0.3943
3926.213 0.3306 0.46584 0.43613 0.3411 0.42579 0.4389 0.3534 0.3557 0.3642 0.3188
3945.506 0.274 0.3131 0.3256 0.3294 0.3459 0.3198 0.312 0.3025 0.3257 0.287
3964.800 0.229 0.243 0.258 0.3323 0.39479 0.3557 0.295 0.3364 0.406766 0.3602
3984.093 0.3457 0.396157 0.42307 0.46014 0.40838 0.3687 0.3919 0.3547 0.3504
##END=
