##TITLE=Ethyl 3-furoate
##JCAMP-DX=4.24
##DATA TYPE=INFRARED SPECTRUM
##ORIGIN=EPA-IR VAPOR PHASE LIBRARY
##OWNER=SRD/NIST
Collection (C) 2018 copyright by the U.S. Secretary of Commerce
on behalf of the United States of America. All rights reserved.
##CAS REGISTRY NO=614-98-2
##MOLFORM=C 7 H 8 O 3
##$NIST SOURCE=MSDC-IR
##STATE=gas
##XUNITS=1/CM
##YUNITS=ABSORBANCE
##XFACTOR=1.
##YFACTOR=0.001
##DELTAX=1.92898
##FIRSTX=549.8
##LASTX=4000.7
##FIRSTY=1.438
##MAXX=4000.7
##MINX=549.759
##MAXY=0.614898
##MINY=0
##NPOINTS=1790
##XYDATA=(X++(Y..Y))
549.759 1.438 1.1269 1.2686 1.3673 1.478 1.568 1.2789 1.3075 1.2763 1.0519
569.049 2.318 3.678 4.378 5.128 6.538 9.048 11.198 13.458 16.518 19.788
588.339 23.488 26.898 29.808 33.008 37.068 42.108 44.338 40.998 36.658 33.518
607.628 30.468 27.668 24.908 21.478 17.808 14.898 11.988 9.218 7.548 6.098
626.918 4.858 3.958 3.358 3.358 2.908 2.348 2.208 2.478 2.778 2.878
646.208 2.998 3.058 3.288 3.378 3.298 3.248 3.398 3.608 3.658 3.738
665.498 3.788 3.788 3.828 3.588 3.208 3.268 3.578 3.458 3.248 3.348
684.787 3.228 3.058 3.288 3.358 3.508 3.918 3.978 4.008 4.138 4.458
704.077 5.058 5.968 6.918 7.988 9.848 11.948 14.358 17.648 21.628 25.658
723.367 29.528 33.398 37.418 41.748 47.618 57.398 67.628 70.298 66.898 66.728
742.657 71.058 76.298 81.368 86.328 91.038 95.168 100.918 109.688 121.368 129.798
761.947 126.178 115.348 106.498 100.348 94.058 86.568 77.838 68.738 59.898 51.408
781.236 44.058 38.278 33.668 29.978 27.398 25.638 24.228 23.688 23.788 24.108
800.526 24.498 25.328 27.188 29.278 31.588 33.808 36.008 38.018 39.608 40.988
819.816 42.488 44.398 46.078 46.038 43.698 41.398 39.618 36.418 32.818 30.358
839.106 28.008 25.458 22.968 21.118 19.678 18.538 18.188 18.458 19.558 21.188
858.395 23.568 27.198 33.008 41.858 54.018 66.858 74.498 72.378 68.908 69.718
877.685 69.848 70.648 65.038 50.048 34.798 24.148 17.968 14.288 11.848 10.208
896.975 8.978 7.988 7.068 6.478 6.318 6.398 6.558 6.358 6.158 6.098
916.265 6.258 6.338 6.348 6.468 6.638 7.098 7.658 7.958 8.558 9.338
935.555 10.298 11.908 13.598 15.928 19.488 24.498 31.248 39.998 50.548 61.258
954.844 70.478 76.938 80.988 82.478 82.078 80.298 75.648 67.478 57.278 46.588
974.134 36.658 29.368 25.138 22.698 21.578 22.228 23.778 26.728 31.268 37.258
993.424 44.808 54.418 65.858 76.968 86.048 91.828 93.948 94.648 95.188 94.088
1012.714 90.458 84.728 77.158 69.708 64.678 61.958 62.198 63.318 63.158 62.998
1032.003 62.268 60.038 56.698 52.408 47.358 42.118 37.328 33.088 30.088 28.548
1051.293 27.798 28.678 31.368 35.808 42.648 52.538 67.488 87.918 112.458 137.448
1070.583 156.138 165.038 167.518 167.678 166.188 162.238 150.868 128.998 102.378 79.428
1089.873 63.608 54.048 48.128 45.328 44.978 44.578 44.188 44.958 46.938 49.208
1109.163 52.598 58.988 67.488 79.718 95.608 114.678 139.588 169.238 203.188 239.918
1128.452 276.388 313.228 350.048 383.978 416.898 446.998 470.728 491.418 507.088 518.078
1147.742 531.708 549.608 568.868 589.138 607.218 614.898 609.058 589.198 559.828 524.708
1167.032 484.588 436.998 382.048 320.428 258.218 205.108 165.078 136.938 116.048 99.868
1186.322 86.758 75.878 67.118 59.868 53.818 48.088 42.418 37.978 35.648 33.538
1205.611 30.998 28.438 26.348 25.258 25.038 25.228 24.968 24.638 25.618 27.758
1224.901 30.138 32.838 33.238 31.538 30.568 29.748 28.688 28.248 25.858 21.368
1244.191 17.858 15.678 14.288 14.058 14.418 14.368 14.958 16.388 17.708 19.218
1263.481 20.748 22.648 24.878 27.808 31.818 36.638 43.508 52.398 63.628 78.878
1282.771 98.968 124.698 157.848 198.788 246.278 298.538 351.428 399.228 436.738 461.318
1302.060 473.478 473.118 458.998 428.978 382.848 324.658 262.718 205.918 158.198 120.368
1321.350 91.818 70.998 56.248 45.658 37.938 32.368 28.168 25.058 22.688 20.868
1340.640 19.638 18.828 18.298 18.088 18.138 18.648 19.638 21.108 23.098 25.618
1359.930 28.698 32.008 35.228 37.988 40.228 42.188 44.078 46.148 48.288 50.148
1379.219 51.758 53.228 54.678 56.118 57.238 57.888 58.288 58.268 57.268 54.898
1398.509 51.258 47.108 43.428 40.558 38.068 35.598 33.318 31.058 28.848 26.988
1417.799 25.598 24.398 23.608 23.378 23.278 23.258 23.298 23.508 23.728 23.748
1437.089 23.938 24.308 24.718 24.958 25.068 25.378 25.868 26.508 27.178 27.778
1456.378 28.318 28.788 29.528 30.408 31.088 31.558 31.908 32.048 32.148 32.368
1475.668 32.518 32.558 32.918 33.678 35.048 37.428 40.718 44.968 50.338 56.768
1494.958 64.828 74.728 85.398 95.398 102.808 106.288 106.158 103.798 99.738 93.788
1514.248 85.438 73.568 59.228 46.018 35.128 27.478 22.518 19.108 16.588 14.848
1533.538 13.678 12.808 12.508 12.478 12.598 13.068 13.828 14.898 16.308 18.278
1552.827 20.668 23.748 27.618 32.698 39.108 46.318 54.818 63.618 71.678 78.658
1572.117 84.298 89.048 93.938 99.618 105.518 110.888 115.038 117.338 116.708 113.518
1591.407 109.568 105.068 99.138 90.158 76.888 60.878 45.628 33.798 25.708 20.548
1610.697 17.448 15.558 14.338 13.648 13.148 12.668 12.438 12.408 12.548 12.788
1629.986 13.158 13.858 14.758 15.798 16.828 17.618 18.488 19.308 19.838 20.238
1649.276 20.568 20.788 20.718 20.208 19.638 18.898 17.798 16.708 15.808 15.028
1668.566 14.548 14.188 13.908 13.958 14.208 14.458 15.018 15.768 16.538 17.268
1687.856 18.238 19.418 20.698 22.268 24.018 25.858 28.028 30.358 32.968 36.408
1707.146 40.298 45.048 50.908 57.828 66.548 77.648 91.458 107.868 128.188 152.588
1726.435 181.148 214.388 252.508 293.618 338.178 382.598 421.518 453.208 474.178 487.068
1745.725 493.968 494.658 486.408 466.828 435.328 393.328 343.658 292.888 244.168 200.328
1765.015 162.718 131.048 104.538 83.128 65.678 51.998 41.478 33.448 27.408 22.998
1784.305 19.698 17.178 15.318 13.988 12.988 12.088 11.558 11.188 10.858 10.648
1803.594 10.518 10.368 10.288 10.128 9.868 9.728 9.508 9.108 8.858 8.618
1822.884 8.308 7.978 7.698 7.378 7.018 6.778 6.628 6.388 6.218 6.188
1842.174 6.098 6.068 5.998 5.948 5.958 5.948 5.898 5.818 5.838 5.768
1861.464 5.588 5.528 5.528 5.488 5.348 5.298 5.318 5.338 5.368 5.428
1880.754 5.508 5.578 5.688 5.798 5.788 5.768 5.878 5.768 5.568 5.438
1900.043 5.298 5.228 5.178 4.968 4.708 4.688 4.608 4.558 4.618 4.598
1919.333 4.518 4.458 4.298 4.208 4.158 4.108 4.158 4.028 3.948 3.818
1938.623 3.598 3.588 3.578 3.478 3.368 3.248 3.118 2.898 2.838 2.838
1957.913 2.708 2.688 2.738 2.718 2.668 2.678 2.748 2.798 2.778 2.788
1977.202 2.938 3.028 3.088 3.208 3.438 3.718 3.888 4.078 4.298 4.458
1996.492 4.568 4.718 4.888 4.988 5.048 5.098 5.158 5.058 4.848 4.808
2015.782 4.828 4.688 4.498 4.438 4.288 4.078 3.918 3.738 3.568 3.368
2035.072 3.288 3.238 3.098 2.938 2.838 2.798 2.708 2.638 2.578 2.478
2054.362 2.398 2.318 2.358 2.488 2.478 2.458 2.508 2.478 2.448 2.498
2073.651 2.678 2.708 2.638 2.638 2.658 2.748 2.698 2.638 2.648 2.708
2092.941 2.668 2.628 2.648 2.748 2.788 2.688 2.638 2.568 2.558 2.498
2112.231 2.358 2.288 2.248 2.078 1.928 1.858 1.878 1.868 1.828 1.788
2131.521 1.828 1.868 1.818 1.868 1.848 1.808 1.848 1.968 2.008 1.978
2150.810 2.138 2.238 2.278 2.348 2.378 2.338 2.358 2.428 2.338 2.298
2170.100 2.358 2.388 2.338 2.298 2.208 2.008 1.838 1.828 1.808 1.738
2189.390 1.738 1.608 1.398 1.418 1.498 1.488 1.588 1.708 1.748 1.858
2208.680 1.908 1.928 2.118 2.148 2.238 2.418 2.468 2.738 3.128 3.288
2227.970 3.398 3.508 3.448 3.538 3.778 3.838 3.808 3.718 3.648 3.548
2247.259 3.548 3.608 3.538 3.458 3.458 3.418 3.498 3.518 3.438 3.428
2266.549 3.278 3.198 3.128 3.048 2.958 2.918 2.898 2.978 3.078 2.938
2285.839 2.868 3.078 3.338 3.488 3.588 3.628 3.788 4.128 4.248 4.388
2305.129 4.678 4.898 5.008 5.058 5.228 5.278 5.238 5.268 5.148 4.878
2324.418 4.558 4.198 3.898 3.558 3.198 2.948 2.688 2.488 2.358 2.298
2343.708 2.158 2.038 1.968 1.828 1.798 1.878 1.968 1.998 1.978 1.998
2362.998 1.958 1.838 1.808 1.838 1.798 1.778 1.748 1.598 1.668 1.748
2382.288 1.648 1.608 1.618 1.678 1.578 1.488 1.508 1.508 1.598 1.468
2401.578 1.29 1.3652 1.498 1.468 1.3625 1.488 1.648 1.668 1.628 1.668
2420.867 1.868 1.958 1.958 2.048 2.088 2.028 2.018 2.038 2.178 2.328
2440.157 2.328 2.378 2.398 2.418 2.378 2.298 2.308 2.328 2.428 2.338
2459.447 2.148 2.098 2.058 2.048 2.088 1.968 1.658 1.488 1.518 1.408
2478.737 1.3219 1.2589 1.1472 1.235 1.2604 1.2539 1.2781 1.272 1.222 1.2174
2498.026 1.2156 1.2223 1.2916 1.3706 1.458 1.548 1.748 1.948 2.068 2.098
2517.316 2.128 2.258 2.498 2.598 2.698 2.808 2.778 2.658 2.638 2.888
2536.606 2.988 2.998 2.998 2.988 2.818 2.578 2.458 2.388 2.268 2.108
2555.896 1.898 1.838 1.808 1.718 1.648 1.748 1.768 1.488 1.448 1.538
2575.186 1.588 1.608 1.468 1.3626 1.372 1.2872 1.237 1.3147 1.388 1.478
2594.475 1.418 1.3078 1.3007 1.2752 1.3056 1.3758 1.3464 1.2816 1.3514 1.3694
2613.765 1.302 1.2062 1.277 1.2422 1.1766 1.1577 1.0558 1.0392 1.2289 1.2296
2633.055 1.1592 1.1813 1.1049 1.2472 1.2431 1.2334 1.3208 1.2318 1.2117 1.3581
2652.345 1.2367 1.0992 1.126 1.147 1.1578 1.2169 1.2968 1.1207 1.0917 1.2595
2671.634 1.3389 1.2622 1.2976 1.398 1.3136 1.3675 1.508 1.528 1.398 1.2479
2690.924 1.2801 1.418 1.388 1.418 1.578 1.698 1.698 1.618 1.688 1.688
2710.214 1.798 2.048 2.128 2.488 2.678 2.688 2.898 3.058 3.178 3.288
2729.504 3.448 3.508 3.458 3.628 3.708 3.588 3.548 3.648 3.698 3.598
2748.794 3.348 3.168 3.078 2.978 2.948 2.938 2.698 2.568 2.608 2.508
2768.083 2.538 2.488 2.568 2.598 2.388 2.388 2.458 2.408 2.438 2.608
2787.373 2.658 2.638 2.618 2.658 2.758 2.738 2.688 2.748 2.818 2.898
2806.663 2.918 2.978 3.268 3.268 3.208 3.398 3.618 3.588 3.538 3.648
2825.953 3.708 3.788 3.918 3.888 3.848 3.988 3.888 3.898 4.168 4.388
2845.242 4.568 4.748 4.828 5.018 5.388 5.858 6.238 6.528 6.968 7.528
2864.532 8.318 8.968 9.498 10.428 11.348 12.348 13.748 15.258 16.438 17.428
2883.822 18.108 18.538 18.908 19.188 19.418 19.478 19.528 19.658 20.038 20.438
2903.112 20.948 21.708 22.438 23.138 23.638 24.078 24.368 24.528 24.608 24.778
2922.401 25.128 25.618 26.288 27.318 29.028 31.348 34.278 37.448 40.698 43.328
2941.691 45.148 46.638 47.688 48.238 48.368 47.828 46.828 45.648 44.608 44.108
2960.981 44.398 45.368 46.748 48.798 51.608 55.368 59.918 65.298 71.708 78.148
2980.271 83.368 86.978 89.318 90.158 89.858 88.838 86.228 81.888 75.368 67.678
2999.561 60.908 55.148 49.988 45.638 42.038 38.518 34.968 31.518 28.228 25.258
3018.850 22.738 20.408 18.308 16.708 15.208 13.778 12.468 11.478 10.778 10.138
3038.140 9.358 8.598 8.068 7.578 7.348 7.068 6.838 6.538 6.198 5.998
3057.430 5.708 5.288 4.998 4.828 4.598 4.418 4.168 3.888 3.808 3.828
3076.720 3.718 3.728 3.878 3.728 3.778 3.918 3.688 3.558 3.598 3.558
3096.009 3.528 3.588 3.488 3.358 3.388 3.408 3.438 3.458 3.258 3.368
3115.299 3.608 3.818 4.058 4.308 4.648 4.918 5.018 5.278 5.678 5.828
3134.589 5.788 5.838 5.798 5.368 5.218 5.018 4.738 4.738 4.618 4.408
3153.879 4.318 4.328 4.348 4.328 4.238 4.298 4.198 4.118 4.128 3.768
3173.169 3.518 3.428 3.348 3.378 3.138 2.838 2.538 2.188 2.008 1.938
3192.458 1.768 1.538 1.558 1.598 1.528 1.3585 1.2443 1.2549 1.2164 1.2709
3211.748 1.284 1.0937 1.1934 1.3096 1.1763 0.9652 0.9301 1.0088 0.9495 0.9084
3231.038 0.7767 0.8014 0.8497 0.614 0.6707 0.759 0.6166 0.6917 0.6421 0.43127
3250.328 0.5313 0.5485 0.5197 0.43409 0.3361 0.3409 0.38684 0.575 0.4865 0.3034
3269.617 0.3111 0.2829 0.2 0.46596 0.6163 0.536 0.5059 0.45204 0.41791 0.5009
3288.907 0.7307 0.8119 0.8622 0.8972 0.7892 0.786 1.0676 1.0627 0.8751 1.1855
3308.197 1.3683 1.362 1.428 1.2895 1.2608 1.2871 1.408 1.478 1.438 1.638
3327.487 1.578 1.3258 1.2103 1.1878 1.0822 0.8761 0.8183 0.8806 0.9503 0.8147
3346.777 0.5838 0.4362 0.42613 0.5823 0.6062 0.42627 0.3281 0.2959 0.5202 0.7562
3366.066 0.6341 0.6831 0.7755 0.5972 0.37026 0.2 0.44318 0.42912 0.41444 0.7782
3385.356 0.8051 0.7719 0.6751 0.765 0.7913 0.694 0.7633 0.8599 0.9724 1.1881
3404.646 1.1274 0.8691 0.8715 0.8315 0.6591 0.7844 1.0156 0.9176 0.7535 0.8053
3423.936 1.0257 1.0241 0.8431 0.8652 0.9623 1.0167 1.1647 1.528 1.638 1.568
3443.225 1.718 1.858 2.068 2.348 2.468 2.468 2.748 3.168 3.528 3.788
3462.515 3.978 4.228 4.368 4.278 4.098 4.338 4.518 4.278 4.238 3.948
3481.805 3.618 3.368 3.068 2.688 2.428 2.298 2.008 1.778 1.498 1.1401
3501.095 1.1387 1.2956 1.1892 0.9496 0.8931 0.8078 0.7298 0.611 0.5542 0.7231
3520.385 0.7135 0.6164 0.589 0.41874 0.3065 0.44073 0.47736 0.3561 0.44174 0.5068
3539.674 0.3313 0.3012 0.263 0.3237 0.164 0.19 0.46237 0.39369 0.386834 0.6003
3558.964 0.6815 0.41436 0.24 0.2937 0.3412 0.42359 0.4989 0.44865 0.3524 0.44809
3578.254 0.44535 0.3098 0.148 0.083 0.269 0.257 0.134 0.088 0.104 0.3688
3597.544 0.6054 0.6782 0.5874 0.47251 0.45615 0.496 0.46574 0.45327 0.46186 0.43546
3616.833 0.378637 0.173 0.097 0.117 0.258 0.3677 0.224 0.053 0.05 0.173
3636.123 0.3268 0.5232 0.5369 0.5178 0.4892 0.36978 0.4925 0.6002 0.47347 0.178
3655.413 0.046 0.091 0.178 0.262 0.258 0.123 0.053 0.147 0.2971 0.5998
3674.703 0.7304 0.5172 0.3363 0.3136 0.2908 0.265 0.43782 0.5286 0.4844 0.44549
3693.993 0.238 0.182 0.178 0.247 0.3128 0.14 0.3028 0.5235 0.36985 0.163
3713.282 0.222 0.2985 0.139 0.098 0.238 0.3429 0.265 0.106 0 0.072
3732.572 0.104 0.2952 0.5363 0.3176 0.123 0.233 0.3427 0.348 0.358 0.5461
3751.862 0.5079 0.3432 0.42664 0.2782 0.203 0.45557 0.7151 0.6839 0.39991 0.3661
3771.152 0.253 0.242 0.3566 0.41851 0.5416 0.6765 0.5398 0.3443 0.4952 0.533
3790.441 0.386311 0.2847 0.5003 0.4382 0.2904 0.5187 0.7583 0.8011 0.8481 0.5645
3809.731 0.3279 0.4751 0.37406 0.6136 0.6756 0.3072 0.3577 0.3616 0.6067 0.7406
3829.021 0.47336 0.39821 0.272 0.5231 0.5592 0.41618 0.863 0.8537 0.5522 0.6498
3848.311 0.7005 0.5409 0.43127 0.6783 0.8121 0.5649 0.384137 0.5621 0.7428 0.6423
3867.601 0.2852 0.212 0.3183 0.105 0.107 0.2788 0.269 0.258 0.377735 0.3363
3886.890 0.233 0.194 0.45263 0.6602 0.258 0.2918 0.5734 0.40896 0.3478 0.5544
3906.180 0.5628 0.39193 0.355 0.267 0.243 0.5449 0.5636 0.46955 0.7762 0.7472
3925.470 0.5854 0.6826 0.903 0.682 0.45102 0.4957 0.4936 0.5087 0.45684 0.5823
3944.760 0.5727 0.41435 0.4994 0.84 0.7392 0.5242 0.7427 0.8252 0.747 0.7466
3964.049 0.5578 0.5501 0.7786 0.7959 0.4836 0.6421 0.9313 0.6246 0.5854 0.9285
3983.339 1.0374 1.0677 1.2028 1.3295 1.2712 1.0964 0.8196 0.8294 1.128 1.2328
##END=
