##TITLE=5-Phenylbicyclo[2.2.1]-2-heptene
##JCAMP-DX=4.24
##DATA TYPE=INFRARED SPECTRUM
##ORIGIN=NIST Mass Spectrometry Data Center
##OWNER=NIST Standard Reference Data Program
Collection (C) 2018 copyright by the U.S. Secretary of Commerce
on behalf of the United States of America. All rights reserved.
##CAS REGISTRY NO=6143-30-2
##MOLFORM=C 13 H 14
##$NIST SOURCE=MSDC-IR
##SPECTROMETER/DATA SYSTEM=HP-GC/MS/IRD
##STATE=gas
##XUNITS=1/CM
##YUNITS=ABSORBANCE
##XFACTOR=1.0
##YFACTOR=0.000002900
##DELTAX=4.0
##FIRSTX=550.0
##LASTX=3846.0
##FIRSTY=0.000499
##MAXX=3846
##MINX=550
##MAXY=0.029
##MINY=0
##NPOINTS=825
##XYDATA=(X++(Y..Y))
550.0 172 60 0 42 64 66 39 2 16 58
590.0 66 90 155 247 316 330 297 221 162 146
630.0 152 173 183 202 234 281 352 514 696 712
670.0 758 915 1156 1518 2029 2744 3591 4295 4591 4688
710.0 4873 4945 4780 4347 3450 2418 1729 1348 1146 1023
750.0 961 984 1040 1101 1120 1037 883 717 567 441
790.0 351 297 274 287 312 347 370 387 410 413
830.0 399 371 326 278 245 239 239 225 206 205
870.0 224 279 359 435 495 540 549 548 554 545
910.0 521 444 354 287 241 242 251 258 269 271
950.0 246 210 183 169 153 138 151 167 179 214
990.0 262 327 411 456 449 413 380 385 438 500
1030.0 497 444 378 279 196 163 153 159 187 214
1070.0 240 265 273 270 268 284 306 318 310 277
1110.0 246 220 212 230 266 296 311 298 254 223
1150.0 199 189 180 171 159 159 179 201 215 203
1190.0 187 164 146 150 142 144 157 173 196 207
1230.0 210 212 202 194 216 243 253 247 235 221
1270.0 197 188 194 209 219 225 242 260 280 303
1310.0 337 390 459 535 626 726 798 813 752 649
1350.0 517 395 310 251 206 169 152 144 131 123
1390.0 123 116 109 115 124 132 142 158 181 215
1430.0 270 353 461 585 702 775 796 783 753 704
1470.0 660 614 614 727 920 1129 1269 1243 1047 763
1510.0 487 302 207 171 158 148 142 135 124 123
1550.0 133 145 183 236 299 355 391 424 485 601
1590.0 772 947 1053 1052 935 752 575 445 363 311
1630.0 273 239 199 162 134 124 118 110 111 104
1670.0 94 89 82 72 68 65 61 63 63 65
1710.0 74 86 94 96 102 109 104 102 97 88
1750.0 84 81 77 77 81 93 112 133 160 198
1790.0 234 239 216 186 156 136 121 112 104 94
1830.0 86 84 83 85 94 105 112 120 137 147
1870.0 155 159 144 127 107 85 73 65 61 69
1910.0 77 86 100 121 143 164 173 182 200 200
1950.0 182 155 121 85 59 40 33 34 29 27
1990.0 33 25 18 23 21 12 15 27 33 35
2030.0 30 31 42 46 54 54 43 43 45 45
2070.0 42 36 34 39 46 48 50 50 43 42
2110.0 46 40 34 36 33 30 36 34 34 39
2150.0 38 46 49 47 47 49 49 48 53 59
2190.0 62 64 62 58 55 47 40 40 42 39
2230.0 38 39 40 39 38 33 31 32 34 38
2270.0 38 41 46 41 35 35 34 33 37 43
2310.0 47 47 41 36 34 36 37 40 46 41
2350.0 35 40 45 40 37 36 36 39 36 34
2390.0 35 38 42 40 32 32 28 24 29 33
2430.0 36 38 35 35 35 31 28 28 35 40
2470.0 35 31 25 19 30 32 27 30 31 28
2510.0 20 16 18 21 19 22 23 21 27 27
2550.0 23 27 25 23 22 20 20 22 27 33
2590.0 35 29 31 33 25 20 16 17 21 18
2630.0 20 27 23 19 17 10 10 11 9 11
2670.0 13 13 18 14 5 0 5 3 6 17
2710.0 19 23 28 28 30 32 28 21 22 23
2750.0 21 26 29 25 30 36 39 39 37 41
2790.0 46 46 54 65 72 68 64 71 84 106
2830.0 123 136 148 173 207 259 343 470 671 958
2870.0 1289 1592 1799 1858 1797 1661 1511 1416 1380 1393
2910.0 1446 1511 1548 1578 1628 1755 2016 2392 2797 3189
2950.0 3516 3827 4368 5341 6705 8264 9622 10000 9072 7250
2990.0 4986 3052 1892 1305 1042 978 1048 1216 1449 1687
3030.0 1852 1911 1886 1825 1828 1975 2295 2807 3429 3867
3070.0 3901 3529 2844 2167 1740 1482 1284 1095 913 761
3110.0 630 508 417 349 311 286 267 259 259 236
3150.0 194 156 132 109 84 71 62 53 45 39
3190.0 47 55 54 49 39 38 38 31 27 32
3230.0 36 37 33 31 34 34 30 26 25 19
3270.0 16 15 13 15 18 18 20 16 13 6
3310.0 5 17 26 18 23 32 29 22 18 23
3350.0 24 16 15 18 13 15 8 3 5 6
3390.0 9 12 19 14 6 9 5 9 24 34
3430.0 24 20 29 41 45 38 33 18 19 25
3470.0 22 20 20 11 11 14 8 4 13 22
3510.0 18 13 6 6 7 5 6 3 4 17
3550.0 23 13 9 3 5 7 9 11 11 9
3590.0 7 16 15 8 10 11 1 1 15 16
3630.0 12 18 21 29 27 11 12 18 14 11
3670.0 16 23 26 28 22 26 29 24 24 24
3710.0 18 27 39 41 44 48 50 42 36 39
3750.0 52 54 47 47 42 33 35 51 55 49
3790.0 44 46 47 35 35 41 34 36 45 47
3830.0 41 44 57 61 59
##END=
