##TITLE=1-Chloro-8-phenyloctane
##JCAMP-DX=4.24
##DATA TYPE=INFRARED SPECTRUM
##ORIGIN=EPA-IR VAPOR PHASE LIBRARY
##OWNER=SRD/NIST
Collection (C) 2018 copyright by the U.S. Secretary of Commerce
on behalf of the United States of America. All rights reserved.
##CAS REGISTRY NO=61440-32-2
##MOLFORM=C 14 H 21 Cl
##$NIST SOURCE=MSDC-IR
##STATE=gas
##XUNITS=1/CM
##YUNITS=ABSORBANCE
##XFACTOR=1.
##YFACTOR=0.001
##DELTAX=1.92898
##FIRSTX=549.8
##LASTX=4000.7
##FIRSTY=1.421
##MAXX=4000.7
##MINX=549.759
##MAXY=0.306021
##MINY=0
##NPOINTS=1790
##XYDATA=(X++(Y..Y))
549.759 1.421 1.731 1.761 1.851 2.951 3.701 3.861 4.071 4.871 5.381
569.049 4.991 4.881 4.751 4.271 4.081 3.971 3.561 3.141 3.121 3.211
588.339 2.881 2.241 2.221 2.461 2.311 1.891 1.681 1.841 1.851 1.631
607.628 1.431 1.741 1.951 1.851 2.051 1.941 1.951 2.321 2.651 3.061
626.918 3.121 3.141 3.381 3.641 4.211 4.891 5.431 5.951 6.801 7.921
646.208 9.041 10.081 11.281 12.841 14.731 16.421 17.771 19.141 19.931 20.011
665.498 19.661 18.821 18.021 17.711 17.861 18.501 19.361 20.701 22.781 25.381
684.787 28.661 33.061 38.761 46.121 54.131 60.841 64.381 64.501 61.431 56.231
704.077 51.481 47.891 45.301 43.631 42.671 42.241 42.241 42.851 43.671 44.451
723.367 45.731 47.541 49.591 51.831 54.291 56.781 58.981 60.461 60.671 59.621
742.657 57.301 53.511 49.081 44.551 39.961 36.031 32.431 29.231 26.821 24.611
761.947 22.321 20.171 18.221 16.441 15.021 13.751 12.551 11.591 10.631 9.801
781.236 9.061 8.591 8.361 8.061 7.911 7.711 7.521 7.321 6.921 6.611
800.526 6.291 5.981 5.791 5.551 5.561 5.631 5.551 5.541 5.591 5.441
819.816 5.131 4.841 4.781 4.871 4.811 4.631 4.651 4.641 4.191 3.941
839.106 4.131 4.161 4.061 4.171 4.131 3.931 3.791 3.661 3.801 3.701
858.395 3.621 3.631 3.631 3.761 3.661 3.451 3.441 3.741 3.891 3.971
877.685 3.971 3.831 3.861 4.071 4.301 4.521 4.581 4.301 4.511 4.891
896.975 5.021 5.511 5.881 5.971 6.161 6.111 5.861 5.861 5.661 5.181
916.265 4.951 4.851 4.671 4.421 4.151 3.851 3.831 3.811 3.571 3.601
935.555 3.681 3.721 3.541 3.561 3.681 3.291 3.111 3.291 3.401 3.711
954.844 3.741 3.421 3.321 3.341 3.471 3.501 3.551 3.561 3.611 3.801
974.134 3.931 4.101 4.121 4.061 3.951 3.541 3.861 3.831 3.621 3.821
993.424 3.851 3.941 3.801 3.751 3.831 3.971 4.231 4.251 4.311 4.651
1012.714 4.731 4.811 5.291 5.931 6.691 7.801 9.231 10.801 12.161 12.741
1032.003 12.391 11.321 9.101 7.101 6.101 5.201 4.711 4.721 4.641 4.521
1051.293 4.641 5.151 5.831 5.841 5.741 6.221 6.601 6.401 6.241 6.151
1070.583 5.611 4.951 4.871 5.001 4.811 4.711 4.631 4.401 4.401 4.181
1089.873 3.681 3.491 3.771 3.721 3.391 3.251 2.861 2.321 2.381 2.631
1109.163 2.501 2.321 1.861 1.651 2.491 2.671 2.011 2.231 1.821 1.451
1128.452 1.641 1.431 1.451 1.2213 0.8611 0.6906 0.6646 1.184 1.481 1.2141
1147.742 1.0822 1.381 1.761 1.931 1.471 1.411 1.781 1.791 1.661 1.801
1167.032 1.971 1.851 1.951 1.821 1.761 1.831 2.211 2.671 2.391 2.331
1186.322 2.031 1.781 2.141 2.561 2.551 2.661 3.141 2.911 2.801 2.841
1205.611 2.751 2.661 2.691 2.661 2.691 3.091 2.991 2.861 3.231 3.381
1224.901 3.541 4.041 4.481 5.001 5.631 5.951 5.821 5.901 6.401 6.691
1244.191 6.801 7.031 7.511 8.151 8.491 8.861 9.421 9.891 10.501 10.891
1263.481 11.141 11.841 12.151 12.431 12.891 13.321 14.161 15.141 15.831 16.601
1282.771 17.631 18.711 19.661 20.511 21.381 21.901 21.921 21.871 21.861 21.731
1302.060 21.581 21.571 21.431 21.201 20.941 20.421 19.861 19.261 18.511 17.801
1321.350 17.081 16.251 15.491 14.731 14.021 13.541 13.221 13.011 13.011 13.181
1340.640 13.421 13.791 14.261 14.741 15.161 15.451 15.391 15.081 14.621 13.891
1359.930 13.091 12.391 11.861 11.291 10.651 10.041 9.321 8.481 7.681 6.961
1379.219 6.301 5.681 5.191 4.751 4.431 4.211 4.051 3.961 3.781 3.681
1398.509 3.721 3.801 3.811 3.871 4.041 4.181 4.411 4.681 4.931 5.171
1417.799 5.471 5.981 6.571 7.241 8.081 9.111 10.421 11.861 13.591 15.571
1437.089 17.881 20.541 23.511 26.791 30.431 34.121 37.371 39.791 41.111 41.361
1456.378 40.681 39.371 37.651 35.531 32.851 29.891 26.871 23.791 20.881 18.321
1475.668 16.341 14.901 14.071 13.831 14.221 15.291 17.281 20.151 23.701 27.241
1494.958 29.571 29.921 28.051 24.211 19.161 14.441 10.851 8.381 6.721 5.601
1514.248 4.811 4.221 3.841 3.671 3.491 3.321 3.241 3.111 3.111 3.081
1533.538 2.931 2.831 2.711 2.651 2.591 2.531 2.481 2.381 2.331 2.281
1552.827 2.231 2.321 2.411 2.461 2.621 2.681 2.851 3.021 3.151 3.421
1572.117 3.751 4.041 4.481 5.001 5.511 6.121 6.781 7.421 8.161 9.071
1591.407 9.951 10.961 12.181 13.281 14.371 15.291 15.621 15.241 13.941 11.991
1610.697 9.811 7.761 6.171 5.041 4.191 3.471 2.941 2.621 2.421 2.281
1629.986 2.141 1.981 1.891 1.941 1.961 1.931 1.921 1.861 1.801 1.831
1649.276 1.811 1.771 1.691 1.551 1.531 1.481 1.331 1.281 1.341 1.261
1668.566 1.158 1.1461 1.1815 1.1729 1.04 0.9891 1.0268 1.072 1.0817 1.066
1687.856 1.0724 1.0685 1.0763 1.1546 1.2299 1.2329 1.1545 1.1648 1.235 1.1927
1707.146 1.2109 1.261 1.2449 1.291 1.291 1.271 1.381 1.431 1.481 1.591
1726.435 1.641 1.621 1.631 1.661 1.631 1.691 1.791 1.741 1.641 1.671
1745.725 1.561 1.441 1.421 1.391 1.361 1.311 1.341 1.321 1.2249 1.2468
1765.015 1.321 1.381 1.451 1.561 1.771 1.911 2.091 2.281 2.451 2.671
1784.305 2.981 3.391 3.811 4.161 4.391 4.531 4.391 4.061 3.601 3.131
1803.594 2.791 2.471 2.271 2.071 1.941 1.901 1.731 1.641 1.581 1.541
1822.884 1.551 1.441 1.371 1.401 1.371 1.351 1.471 1.591 1.591 1.621
1842.174 1.681 1.761 1.891 2.021 2.151 2.171 2.291 2.451 2.461 2.531
1861.464 2.731 2.871 2.891 2.981 3.011 2.951 2.901 2.771 2.631 2.541
1880.754 2.351 2.231 2.091 1.871 1.731 1.651 1.611 1.431 1.321 1.301
1900.043 1.196 1.1431 1.1827 1.2231 1.2394 1.321 1.391 1.511 1.721 1.831
1919.333 1.931 2.111 2.361 2.651 2.941 3.131 3.321 3.581 3.821 3.951
1938.623 3.971 3.941 3.901 3.831 3.841 3.821 3.751 3.631 3.331 2.911
1957.913 2.471 2.041 1.681 1.481 1.321 1.1585 1.1045 1.0159 0.9566 0.9462
1977.202 0.9795 1.014 0.9989 0.9835 0.9314 0.8683 0.8709 0.8689 0.8274 0.7982
1996.492 0.8053 0.8513 0.8663 0.8913 0.9585 0.9373 0.8616 0.8706 0.9487 0.994
2015.782 0.9885 1.0468 1.0684 1.0746 1.0329 0.9946 1.0842 1.0877 1.001 1.0673
2035.072 1.1283 1.0364 1.0502 1.093 1.0342 0.9995 1.0245 1.0066 1.0377 1.0373
2054.362 0.9736 0.9546 0.9577 0.9554 0.9563 1.058 1.0841 1.0007 0.9571 1.0018
2073.651 1.0426 0.9953 0.9919 0.981 0.972 1.0016 0.9821 0.8806 0.8702 0.9515
2092.941 0.9933 0.9647 0.8797 0.8983 0.8547 0.8338 0.8977 0.8203 0.7885 0.8232
2112.231 0.8477 0.8773 0.8572 0.8465 0.8219 0.84 0.8198 0.7534 0.7872 0.8774
2131.521 0.889 0.863 0.8606 0.9011 0.9651 0.9711 0.916 0.8525 0.8505 0.9241
2150.810 0.9859 0.9913 0.9546 0.93 0.9799 0.9801 1.0029 1.0337 1.0367 1.0144
2170.100 0.9919 1.0256 1.0521 1.0085 0.9714 0.9561 0.9558 1.0164 1.0513 1.0019
2189.390 1.0065 1.0661 1.0585 1.0749 1.047 1.0213 1.06 1.0802 1.1157 1.1904
2208.680 1.1497 1.0918 1.0513 0.8915 0.8736 0.8968 0.82 0.8554 0.9418 0.986
2227.970 1.0119 1.0376 1.0512 1.0019 0.979 1.0013 0.9888 0.9906 1.1041 1.1038
2247.259 1.026 1.059 1.0948 1.0132 0.9438 1.0126 1.0005 0.9825 1.0684 1.0591
2266.549 1.0941 1.1221 1.0506 1.0982 1.0881 1.0809 1.1487 1.1407 1.1345 1.1444
2285.839 1.1191 1.1224 1.1858 1.1774 1.1281 1.1984 1.1763 1.1561 1.251 1.301
2305.129 1.381 1.451 1.461 1.491 1.551 1.561 1.501 1.371 1.331 1.341
2324.418 1.411 1.411 1.281 1.2221 1.261 1.391 1.451 1.411 1.391 1.411
2343.708 1.381 1.341 1.341 1.271 1.251 1.2434 1.2244 1.214 1.2368 1.291
2362.998 1.2348 1.1646 1.1167 1.1261 1.1474 1.0937 1.1012 1.1533 1.049 1.033
2382.288 1.1766 1.1383 1.0676 1.0884 1.0294 0.9949 1.004 0.9955 1.0421 1.0767
2401.578 0.9874 0.9654 0.9897 0.9633 1.1152 1.0463 1.0229 1.1684 1.0962 1.0273
2420.867 1.0057 1.0577 1.0184 0.9979 1.0433 1.0404 1.088 1.0546 0.9837 0.9863
2440.157 1.0557 1.1357 1.1729 1.1127 0.9886 0.9366 0.949 1.069 1.1721 1.1382
2459.447 1.0564 1.0699 1.0818 0.9829 0.9821 1.0001 1.0131 1.0369 1.0523 1.1138
2478.737 1.0898 0.9884 0.9614 0.9519 0.945 1.0175 1.0558 1.0315 1.1107 1.1535
2498.026 1.1277 1.1544 1.1519 1.1054 1.1022 1.2089 1.331 1.311 1.321 1.371
2517.316 1.361 1.431 1.481 1.411 1.371 1.441 1.481 1.451 1.451 1.531
2536.606 1.461 1.431 1.441 1.391 1.411 1.451 1.431 1.431 1.421 1.451
2555.896 1.481 1.431 1.411 1.361 1.371 1.451 1.501 1.471 1.411 1.451
2575.186 1.441 1.481 1.561 1.591 1.741 1.841 1.791 1.791 1.871 1.901
2594.475 1.981 1.991 1.981 2.031 2.081 2.111 2.201 2.261 2.181 2.141
2613.765 2.281 2.301 2.201 2.301 2.321 2.271 2.351 2.511 2.571 2.651
2633.055 2.631 2.631 2.741 2.731 2.771 2.771 2.711 2.841 2.921 2.891
2652.345 2.871 2.851 2.901 3.041 3.141 3.111 3.121 3.091 3.091 3.241
2671.634 3.321 3.361 3.471 3.551 3.521 3.481 3.541 3.531 3.511 3.571
2690.924 3.601 3.591 3.621 3.581 3.371 3.281 3.321 3.301 3.271 3.171
2710.214 3.101 3.151 3.041 2.931 2.971 3.071 3.121 3.111 3.081 3.041
2729.504 3.011 3.031 3.091 3.111 3.231 3.241 3.251 3.331 3.401 3.431
2748.794 3.431 3.591 3.631 3.571 3.621 3.561 3.531 3.651 3.791 3.941
2768.083 4.121 4.211 4.251 4.361 4.551 4.851 5.041 5.291 5.511 5.551
2787.373 5.631 5.831 6.111 6.331 6.671 6.911 7.011 7.221 7.361 7.701
2806.663 8.111 8.291 8.621 9.141 9.661 10.171 10.731 11.191 11.811 12.721
2825.953 13.671 14.611 15.531 16.541 17.841 19.451 21.401 23.791 26.691 30.381
2845.242 34.781 40.211 47.121 55.401 65.111 75.911 87.401 98.561 108.021 114.561
2864.532 117.121 115.921 111.411 104.281 96.031 87.661 79.801 72.861 66.911 62.041
2883.822 58.401 55.731 54.051 53.451 53.971 55.371 57.551 60.761 64.831 69.561
2903.112 75.051 81.361 88.241 95.691 104.051 113.201 123.381 135.541 149.921 166.421
2922.401 185.121 205.921 227.851 249.621 269.971 287.321 299.831 306.021 304.871 295.651
2941.691 279.031 257.321 232.391 206.171 180.841 157.811 137.921 121.611 109.021 99.571
2960.981 92.131 85.211 78.131 71.071 63.871 57.151 51.231 45.981 41.751 38.221
2980.271 35.161 33.091 31.801 31.091 31.051 31.611 32.801 34.331 35.741 36.461
2999.561 36.231 34.941 33.041 30.961 29.061 27.911 27.561 27.721 28.551 30.241
3018.850 32.871 36.241 40.061 44.551 49.121 53.011 55.531 56.291 55.001 51.491
3038.140 46.551 41.141 36.171 32.101 29.091 27.011 25.871 25.601 25.941 26.951
3057.430 28.681 31.271 34.541 38.371 42.691 46.671 49.031 49.111 47.101 43.321
3076.720 38.841 34.891 32.011 30.041 28.381 26.741 25.091 23.491 21.821 20.161
3096.009 18.561 16.961 15.611 14.541 13.501 12.571 11.781 10.881 9.911 8.961
3115.299 7.911 6.811 5.841 5.081 4.521 4.091 3.711 3.251 2.891 2.741
3134.589 2.541 2.411 2.341 2.161 2.011 2.051 2.041 1.991 1.931 2.041
3153.879 2.001 1.831 1.921 1.911 1.821 1.811 1.731 1.591 1.561 1.471
3173.169 1.301 1.251 1.1626 1.1466 1.2494 1.2315 1.181 1.261 1.341 1.321
3192.458 1.281 1.2031 1.1375 1.1298 1.1029 0.9724 0.9441 1.0677 0.9971 0.8354
3211.748 0.9505 1.0735 0.9012 0.7218 0.745 0.9614 1.0054 0.8046 0.7776 0.8179
3231.038 0.7229 0.7463 0.9018 0.9403 0.8311 0.7989 0.7677 0.6489 0.5139 0.4352
3250.328 0.4422 0.6029 0.8036 0.8169 0.7533 0.6321 0.5433 0.5668 0.6921 0.6988
3269.617 0.6253 0.4921 0.4563 0.7101 0.8084 0.6779 0.5614 0.5583 0.5231 0.5534
3288.907 0.635 0.6405 0.6021 0.5462 0.4336 0.3989 0.5485 0.4922 0.3611 0.4547
3308.197 0.6604 0.6586 0.4918 0.5688 0.6387 0.5625 0.4296 0.34075 0.5494 0.6029
3327.487 0.3697 0.31027 0.32977 0.33569 0.4228 0.4307 0.28067 0.25485 0.31811 0.27705
3346.777 0.1874 0.32908 0.518 0.5618 0.7335 0.7273 0.4904 0.526 0.5947 0.6313
3366.066 0.5927 0.4169 0.4191 0.4648 0.4057 0.28395 0.35004 0.3904 0.4249 0.5293
3385.356 0.4503 0.29906 0.3841 0.4778 0.5504 0.4831 0.33601 0.4104 0.382 0.29723
3404.646 0.2403 0.1901 0.2083 0.27596 0.3516 0.4246 0.4422 0.4244 0.33575 0.3743
3423.936 0.4254 0.3852 0.4947 0.4932 0.5716 0.6716 0.4753 0.4337 0.4387 0.4606
3443.225 0.5692 0.5702 0.4794 0.30323 0.2064 0.239 0.4259 0.5372 0.555 0.3648
3462.515 0.1685 0.251396 0.27569 0.33847 0.3617 0.4106 0.3712 0.2747 0.26978 0.135
3481.805 0.28424 0.4346 0.4242 0.33475 0.2117 0.2376 0.1619 0.27211 0.33694 0.2402
3501.095 0.2242 0.250212 0.2103 0.2003 0.3923 0.3758 0.151 0.075 0.164 0.27136
3520.385 0.24108 0.078 0.098 0.088 0.093 0.136 0.151 0.28298 0.374 0.2386
3539.674 0.126 0.27929 0.1888 0 0.131 0.26106 0.2167 0.1744 0.29004 0.4054
3558.964 0.29687 0.24278 0.1718 0.101 0.28984 0.3589 0.29545 0.34313 0.32565 0.30343
3578.254 0.2182 0.257811 0.30048 0.3583 0.4065 0.27863 0.4381 0.4915 0.4045 0.447
3597.544 0.5265 0.3619 0.1534 0.3617 0.4219 0.3748 0.4538 0.4425 0.5899 0.8418
3616.833 0.9248 0.7722 0.5191 0.5823 0.6826 0.5885 0.6658 0.8168 0.8868 0.9185
3636.123 0.7942 0.7883 0.8918 0.9342 1.0276 1.0197 0.9898 0.8094 0.8658 1.0947
3655.413 0.9729 0.9841 0.884 0.7398 0.767 0.7524 0.8735 0.7858 0.6654 0.7257
3674.703 0.7279 0.6796 0.6172 0.5496 0.5103 0.5146 0.7762 0.88 0.7311 0.571
3693.993 0.4892 0.6952 1.0404 1.0613 0.6991 0.7002 0.8081 0.7193 0.7139 0.8
3713.282 0.8379 0.828 0.7193 0.7614 0.9163 0.8194 0.8046 0.7408 0.7009 0.8404
3732.572 0.6578 0.4181 0.3998 0.3777 0.4552 0.5003 0.4487 0.3736 0.30794 0.4614
3751.862 0.5074 0.7291 0.8611 0.7841 0.7969 0.6296 0.6211 0.5539 0.5322 0.7493
3771.152 0.8384 0.6278 0.5489 0.6791 0.7262 0.6696 0.7793 0.8488 0.7436 0.7345
3790.441 0.5896 0.4304 0.4807 0.6308 0.683 0.7096 0.7352 0.6307 0.5328 0.5622
3809.731 0.6328 0.7097 0.8725 1.0827 0.8817 0.5934 0.6976 0.8139 0.8273 0.8822
3829.021 0.8858 0.8483 0.8168 0.8183 0.7145 0.6413 0.698 0.6228 0.6678 0.6462
3848.311 0.5623 0.6554 0.8654 0.9714 0.7762 0.7267 0.7214 0.7235 0.7554 0.7241
3867.601 0.6705 0.8149 0.883 0.8518 0.8765 0.822 0.7785 0.7172 0.694 0.61
3886.890 0.7361 0.7812 0.7682 0.838 0.7876 0.6232 0.6585 0.8097 0.7291 0.6288
3906.180 0.5276 0.611 0.7169 0.6476 0.8187 0.946 0.7772 0.8282 0.9281 0.9094
3925.470 0.9137 0.886 0.8536 0.8583 0.8522 0.7057 0.6771 0.9334 0.9143 0.8493
3944.760 0.7716 0.5377 0.6877 0.8291 0.7582 0.7073 0.9232 1.042 0.7355 0.706
3964.049 0.8568 0.9192 0.9388 0.8535 0.7487 0.8431 0.8939 0.8682 0.8085 0.7479
3983.339 0.8066 0.8222 1.055 1.1637 0.9509 0.9691 1.034 0.9155 0.8019 0.9783
##END=
