##TITLE=1,2-Diiodbenzene
##JCAMP-DX=4.24
##DATA TYPE=INFRARED SPECTRUM
##ORIGIN=EPA-IR VAPOR PHASE LIBRARY
##OWNER=SRD/NIST
Collection (C) 2018 copyright by the U.S. Secretary of Commerce
on behalf of the United States of America. All rights reserved.
##CAS REGISTRY NO=615-42-9
##MOLFORM=C 6 H 4 I 2
##$NIST SOURCE=MSDC-IR
##STATE=gas
##XUNITS=1/CM
##YUNITS=ABSORBANCE
##XFACTOR=1.
##YFACTOR=0.001
##DELTAX=3.85796
##FIRSTX=551.7
##LASTX=4000.7
##FIRSTY=0.4254
##MAXX=4000.7
##MINX=551.688
##MAXY=0.189509
##MINY=0
##NPOINTS=895
##XYDATA=(X++(Y..Y))
551.688 0.4254 0.4865 0.5264 0.5243 0.7251 1.024 1.3287 1.6287 1.6987 1.4887
590.268 1.2487 0.9826 0.7802 0.7833 0.9828 1.4787 2.5587 4.5787 8.0687 13.3587
628.847 19.1887 21.7187 21.0387 16.4787 9.0787 4.5387 3.2787 4.0087 6.3187 10.2387
667.427 17.0087 26.4287 36.3787 40.3987 36.8987 28.2387 17.1587 9.8287 6.0387 3.7287
706.006 2.8987 2.6887 3.3187 4.8787 9.2887 21.0187 48.9087 89.6387 139.659 189.509
744.586 161.309 100.149 59.9887 26.1187 10.4887 5.9287 4.8887 4.8587 5.2787 5.4587
783.165 5.2687 4.7287 4.0187 3.0687 2.2987 1.8187 1.5587 1.4387 1.4587 1.5187
821.745 1.6087 1.7087 1.8887 2.3787 3.0187 3.2287 2.8387 1.9787 1.1987 0.8458
860.324 0.8664 1.1087 1.4487 1.6787 1.7787 1.7087 1.5587 1.4387 1.4187 1.4387
898.904 1.3987 1.4187 1.3887 1.2287 1.1387 1.3187 1.9287 2.6887 3.2087 3.6687
937.484 4.1787 4.5287 4.9087 5.4787 5.7887 5.6787 5.3987 5.4387 6.8587 10.9887
976.063 19.4987 33.2987 49.8187 62.5387 68.6787 72.9787 81.1387 89.0787 86.6387 69.0787
1014.643 41.6487 22.6887 19.9987 21.1187 20.2087 16.7587 9.5587 4.6287 2.9787 2.2187
1053.222 1.7987 1.5687 1.8287 2.4787 4.1287 7.8587 14.4587 21.4687 24.7387 23.9487
1091.802 18.0187 10.5887 6.9587 5.5587 4.5987 3.5787 2.7187 2.2987 2.2387 2.1687
1130.381 1.7587 1.1287 0.7083 0.5365 0.4927 0.5105 0.6171 0.7482 0.7891 0.7277
1168.961 0.536 0.2984 0.2362 0.2834 0.2913 0.3363 0.4069 0.418 0.455 0.5683
1207.540 0.7293 1.0252 1.2587 1.3987 1.5487 1.6787 1.9087 2.3987 3.5287 6.3887
1246.120 13.3287 21.5187 24.4087 21.5187 13.8487 5.7687 2.4587 1.7087 1.4587 1.2887
1284.699 1.061 0.7988 0.5478 0.3886 0.3169 0.2968 0.3326 0.4508 0.7277 1.2387
1323.279 1.9887 2.7687 3.1687 3.0787 2.6087 2.0087 1.6687 1.6387 1.7787 2.0987
1361.859 2.5287 2.9287 3.2587 3.5987 4.0287 4.7187 5.8387 7.7187 10.2687 12.7687
1400.438 14.7087 17.0787 21.1487 27.2187 35.9487 48.0287 59.6587 70.6987 83.8287 92.9487
1439.018 91.9887 82.4987 63.9287 44.0387 33.3287 26.8787 20.1487 12.8987 7.5887 5.2087
1477.597 4.3387 3.9087 3.3587 2.6887 2.0187 1.5587 1.3187 1.2487 1.2087 1.1987
1516.177 1.2187 1.3087 1.5187 1.9487 2.7487 4.1787 6.5387 10.0887 14.3887 18.6087
1554.756 21.6287 23.1687 23.3487 22.7687 21.4687 18.8587 14.7187 10.2287 6.9887 5.8887
1593.336 5.5687 4.7287 3.3587 1.9087 1.0287 0.7373 0.6817 0.6997 0.7467 0.7754
1631.915 0.7977 0.8048 0.797 0.8458 0.9548 1.1187 1.3387 1.5787 1.8987 2.3387
1670.495 2.9587 3.5687 3.8687 3.6087 2.8587 2.0087 1.4087 1.2787 1.4187 1.5487
1709.075 1.5787 1.4687 1.1987 0.8796 0.6042 0.4041 0.3261 0.3242 0.3324 0.3685
1747.654 0.4073 0.4379 0.4718 0.5041 0.5482 0.6412 0.8719 1.3287 2.1087 3.1787
1786.234 4.1187 4.3987 3.8887 2.9087 1.9287 1.3787 1.3587 1.7287 2.3087 2.8487
1824.813 3.0387 2.7587 2.1587 1.4487 0.9299 0.6651 0.5184 0.4661 0.492 0.594
1863.393 0.8418 1.2287 1.6787 2.0387 2.1287 1.9487 1.6487 1.4687 1.7387 2.5087
1901.972 3.6787 4.9587 5.7687 5.5687 4.5087 3.1787 2.2187 2.0187 2.3687 2.9587
1940.552 3.6187 3.9987 3.8487 3.2187 2.3587 1.5287 1.0296 0.8097 0.7377 0.7317
1979.131 0.7335 0.7543 0.7775 0.8162 0.8486 0.8309 0.7364 0.6075 0.5041 0.4343
2017.711 0.3852 0.3142 0.2516 0.2206 0.21 0.2028 0.1781 0.16651 0.16813 0.192
2056.291 0.2169 0.2487 0.2892 0.3171 0.3528 0.365 0.3557 0.3466 0.3347 0.3349
2094.870 0.3306 0.3125 0.3055 0.3191 0.3319 0.3324 0.306 0.2687 0.2304 0.1918
2133.450 0.15681 0.11764 0.079954 0.0461 0.0407 0.036 0.0298 0.0379 0.0541 0.0476
2172.029 0.0528 0.09784 0.10911 0.10487 0.1234 0.12385 0.10332 0.11129 0.12929 0.16249
2210.609 0.1896 0.2164 0.2678 0.332 0.3853 0.4113 0.4125 0.3789 0.3674 0.3966
2249.188 0.4203 0.3931 0.3433 0.3154 0.3069 0.3149 0.3628 0.4416 0.501 0.5127
2287.768 0.4728 0.3821 0.2827 0.2408 0.2399 0.2756 0.3939 0.6154 0.9634 1.3487
2326.347 1.6887 1.9487 1.9987 1.7187 1.2587 0.7718 0.4137 0.2652 0.2217 0.2318
2364.927 0.2638 0.2834 0.3154 0.338 0.3408 0.342 0.342 0.3565 0.3845 0.4219
2403.507 0.5248 0.7454 1.0002 1.1387 1.1087 0.9384 0.6817 0.4728 0.404 0.4053
2442.086 0.4203 0.4316 0.412 0.3811 0.3616 0.3221 0.3239 0.3793 0.4232 0.489
2480.666 0.5769 0.6802 0.7761 0.8663 0.9574 1.0345 1.0625 1.0056 0.9147 0.825
2519.245 0.7675 0.7755 0.8424 0.9258 1.0099 1.1187 1.2587 1.3887 1.4287 1.4687
2557.825 1.4587 1.3587 1.1787 0.9578 0.7762 0.6212 0.5027 0.4133 0.3438 0.2892
2596.404 0.2386 0.1854 0.14413 0.11505 0.10525 0.09538 0.08934 0.08287 0.07365 0.084529
2634.984 0.08888 0.10278 0.1376 0.14317 0.14753 0.15653 0.14838 0.16624 0.1949 0.2257
2673.563 0.2546 0.2921 0.3636 0.3948 0.392 0.3633 0.3072 0.2398 0.1904 0.189
2712.143 0.15393 0.11554 0.10715 0.09993 0.080578 0.0537 0.0682 0.0786286 0.0332 0
2750.722 0.0284 0.0303 0.0126 0.0278 0.0288 0.0474 0.0646 0.0683 0.09777 0.1154
2789.302 0.10613 0.11792 0.15153 0.14295 0.14583 0.16338 0.15658 0.14253 0.1266 0.14336
2827.882 0.16263 0.1804 0.1837 0.16615 0.2025 0.2404 0.2074 0.16011 0.1271 0.087477
2866.461 0.0523 0.0434 0.0294 0.0318 0.0248 0.0012 0.015 0.0059 0.0202 0.0608
2905.041 0.07306 0.0906 0.10121 0.085841 0.13805 0.2028 0.2096 0.2527 0.3346 0.3847
2943.620 0.4523 0.562 0.6579 0.7564 0.8503 0.92 0.9469 0.9604 0.9873 1.0072
2982.200 1.0109 0.954 0.9071 0.8893 0.8294 0.7681 0.7068 0.6604 0.6552 0.7171
3020.779 0.8279 0.9903 1.2987 1.8287 2.7387 4.4487 7.5087 12.5987 20.1587 29.1687
3059.359 36.6787 38.7287 35.2087 28.6787 21.8487 17.5687 14.8287 11.6787 8.2287 6.1787
3097.938 5.8887 6.2587 6.9087 7.4887 7.8087 7.6187 6.7987 5.4887 3.9487 2.5587
3136.518 1.5687 0.9569 0.6326 0.4948 0.4039 0.3275 0.3058 0.3019 0.3174 0.3479
3175.098 0.3654 0.4145 0.3916 0.3047 0.2971 0.2685 0.2052 0.1805 0.15909 0.14288
3213.677 0.09468 0.0494 0.0478 0.06916 0.0679 0.0303 0.0505 0.09274 0.16304 0.1821
3252.257 0.17583 0.1832 0.16963 0.1836 0.1862 0.15359 0.11876 0.14872 0.17542 0.12314
3290.836 0.08277 0.086422 0.10955 0.13843 0.12545 0.10057 0.088485 0.0762 0.09756 0.10208
3329.416 0.10244 0.14602 0.13014 0.09186 0.10085 0.10307 0.09584 0.1123 0.14625 0.1294
3367.995 0.10518 0.0976 0.11559 0.15818 0.15228 0.11604 0.083105 0.10262 0.09254 0.0653
3406.575 0.06884 0.09223 0.12703 0.10918 0.10095 0.12174 0.1316 0.12641 0.09334 0.086224
3445.154 0.084521 0.082375 0.10969 0.09169 0.0664 0.09438 0.11886 0.11489 0.13985 0.13225
3483.734 0.13633 0.14497 0.13304 0.11767 0.07167 0.09767 0.13681 0.11794 0.13145 0.15511
3522.314 0.1834 0.1835 0.13459 0.15896 0.1897 0.11733 0.0574 0.07446 0.13342 0.1827
3560.893 0.1814 0.1692 0.15553 0.192 0.17345 0.12042 0.10425 0.11244 0.1966 0.222
3599.473 0.216 0.1959 0.17561 0.2064 0.2416 0.256 0.2397 0.2403 0.2562 0.2438
3638.052 0.2508 0.2485 0.17074 0.15506 0.2003 0.1855 0.16372 0.17309 0.2312 0.3064
3676.632 0.3668 0.4147 0.4468 0.5114 0.5258 0.5596 0.646 0.7921 0.9891 1.0787
3715.211 1.065 0.9723 0.8566 0.8208 0.8694 0.8902 0.8354 0.781 0.6731 0.5482
3753.791 0.5408 0.4959 0.3981 0.3835 0.3502 0.3321 0.3729 0.3705 0.3681 0.3817
3792.370 0.357 0.3042 0.2967 0.3029 0.2853 0.2774 0.271 0.2146 0.17838 0.1816
3830.950 0.2247 0.2226 0.17658 0.1863 0.2189 0.2187 0.2067 0.2586 0.2341 0.16884
3869.530 0.1834 0.2463 0.2473 0.2157 0.1959 0.16862 0.1515 0.195 0.2264 0.15808
3908.109 0.15422 0.15915 0.13907 0.13372 0.16973 0.2414 0.2519 0.2653 0.2807 0.2898
3946.689 0.3208 0.3099 0.311 0.3349 0.3506 0.3394 0.3239 0.31 0.2989 0.2872
3985.268 0.2644 0.2696 0.2465 0.2247 0.2191
##END=
