##TITLE=6-Aza-2-thiothymine
##JCAMP-DX=4.24
##DATA TYPE=INFRARED SPECTRUM
##ORIGIN=EPA-IR VAPOR PHASE LIBRARY
##OWNER=SRD/NIST
Collection (C) 2018 copyright by the U.S. Secretary of Commerce
on behalf of the United States of America. All rights reserved.
##CAS REGISTRY NO=615-76-9
##MOLFORM=C 4 H 5 N 3 O S
##$NIST SOURCE=MSDC-IR
##STATE=gas
##XUNITS=1/CM
##YUNITS=ABSORBANCE
##XFACTOR=1.
##YFACTOR=0.001
##DELTAX=1.92934
##FIRSTX=549.9
##LASTX=3999.5
##FIRSTY=1.1641
##MAXX=3999.53
##MINX=549.863
##MAXY=0.027135
##MINY=0
##NPOINTS=1789
##XYDATA=(X++(Y..Y))
549.863 1.1641 1.116 1.0279 1.0894 1.08 1.0149 1.0081 1.058 1.1059 1.0733
569.156 1.109 1.1683 1.0725 1.0909 1.0825 1.0512 1.0874 1.1007 1.1742 1.1404
588.450 1.1572 1.3075 1.4129 1.4869 1.565 1.655 1.825 1.955 2.075 2.205
607.743 2.295 2.315 2.315 2.305 2.245 2.145 2.055 1.915 1.775 1.685
627.037 1.575 1.505 1.3968 1.3122 1.3867 1.3755 1.3183 1.2991 1.2183 1.1884
646.330 1.1939 1.2266 1.2744 1.3204 1.3376 1.3661 1.5114 1.665 1.775 1.855
665.624 1.965 2.125 2.195 2.245 2.425 2.605 2.795 2.995 3.085 3.175
684.917 3.335 3.545 3.735 3.895 4.065 4.145 4.105 3.975 3.825 3.655
704.210 3.455 3.225 2.995 2.745 2.495 2.265 2.075 1.865 1.655 1.5036
723.504 1.4417 1.3859 1.3325 1.2719 1.1912 1.1634 1.1408 1.0978 1.0935 1.1216
742.797 1.1071 1.1021 1.0858 1.0763 1.1509 1.2183 1.2801 1.3728 1.4328 1.5169
762.091 1.695 1.955 1.965 1.685 1.5282 1.4715 1.4293 1.3884 1.32 1.231
781.384 1.1149 1.0108 0.9555 0.9047 0.8152 0.7525 0.7156 0.7158 0.7189 0.7135
800.678 0.696 0.668 0.6705 0.6672 0.6722 0.6966 0.7132 0.6848 0.6504 0.62909
819.971 0.59917 0.60382 0.6525 0.6454 0.64098 0.6044 0.56079 0.62343 0.63411 0.62753
839.264 0.62591 0.58367 0.57342 0.59342 0.59026 0.60693 0.59331 0.54215 0.5328 0.546017
858.558 0.55706 0.58076 0.59456 0.546174 0.53569 0.59961 0.61593 0.57761 0.56339 0.57739
877.851 0.56219 0.54362 0.57881 0.60954 0.63405 0.6477 0.5817 0.5873 0.63126 0.60795
897.145 0.61911 0.6093 0.60186 0.62078 0.63907 0.63719 0.62845 0.64208 0.64284 0.6581
916.438 0.6945 0.6967 0.6669 0.6665 0.6909 0.7042 0.7403 0.7825 0.7876 0.81
935.732 0.8694 0.9192 0.9696 1.0138 1.0568 1.1299 1.1981 1.2331 1.2421 1.235
955.025 1.2134 1.1948 1.171 1.1136 1.028 0.9526 0.8869 0.8128 0.7563 0.7414
974.318 0.7425 0.7381 0.726 0.7424 0.7528 0.7594 0.8212 0.8703 0.9018 0.9523
993.612 1.0155 1.0793 1.1293 1.1999 1.2577 1.3103 1.3964 1.5014 1.585 1.655
1012.905 1.725 1.755 1.775 1.765 1.725 1.695 1.625 1.5339 1.454 1.3667
1032.199 1.2761 1.1602 1.0562 0.978 0.9159 0.8739 0.8499 0.7957 0.7704 0.7706
1051.492 0.7451 0.7669 0.795 0.8036 0.8314 0.8883 0.9392 1.0147 1.1151 1.2186
1070.786 1.3493 1.4544 1.5021 1.595 1.775 1.955 2.125 2.255 2.405 2.565
1090.079 2.695 2.735 2.775 2.785 2.805 2.785 2.685 2.545 2.345 2.155
1109.372 1.995 1.825 1.695 1.645 1.595 1.545 1.575 1.575 1.5174 1.4853
1128.666 1.4967 1.4846 1.3901 1.303 1.2404 1.1393 1.0614 1.0177 0.9701 0.9944
1147.959 0.9814 1 1.0785 1.1518 1.222 1.3101 1.3678 1.4121 1.5161 1.635
1167.253 1.775 1.985 2.245 2.525 2.915 3.455 4.105 4.925 5.975 7.365
1186.546 9.045 11.015 13.135 15.275 17.245 18.615 19.355 19.785 19.765 19.205
1205.840 18.205 16.975 15.265 12.915 10.535 8.625 7.275 6.285 5.685 5.325
1225.133 4.965 4.595 4.275 3.855 3.375 2.925 2.545 2.275 2.035 1.805
1244.426 1.595 1.4304 1.3317 1.3428 1.2951 1.1872 1.1086 1.0769 1.1206 1.1685
1263.720 1.259 1.353 1.4008 1.4328 1.497 1.595 1.645 1.685 1.755 1.865
1283.013 1.905 1.955 2.015 2.025 1.965 1.895 1.825 1.755 1.635 1.5276
1302.307 1.4487 1.3707 1.3278 1.2981 1.3074 1.3928 1.4585 1.5186 1.635 1.755
1321.600 1.865 1.975 2.095 2.195 2.305 2.365 2.405 2.475 2.585 2.615
1340.894 2.385 2.115 2.005 1.915 1.845 1.805 1.775 1.825 1.915 2.055
1360.187 2.355 2.745 2.885 3.015 3.335 3.625 3.915 4.285 4.525 4.735
1379.480 4.835 4.825 4.705 4.575 4.485 4.115 3.675 3.475 3.235 2.815
1398.774 2.455 2.095 1.895 1.895 1.815 1.765 1.775 1.745 1.745 1.865
1418.067 2.055 1.995 1.765 1.765 1.715 1.655 1.645 1.595 1.595 1.835
1437.361 1.895 1.585 1.5003 1.5242 1.565 1.685 1.725 1.775 1.845 2.065
1456.654 2.435 2.295 2.035 2.035 2.135 2.145 2.135 2.255 2.505 2.615
1475.948 2.625 2.715 2.925 3.385 4.005 4.905 6.165 7.765 9.495 11.495
1495.241 14.145 16.965 19.645 22.225 24.325 25.975 27.135 27.135 26.245 24.805
1514.534 22.975 20.775 18.185 15.735 12.985 10.485 8.735 7.385 6.465 5.975
1533.828 5.605 5.135 4.785 4.465 3.915 3.415 2.925 2.365 2.135 1.865
1553.121 1.665 1.595 1.5339 1.665 1.4346 1.1282 1.0662 1.0515 1.0679 1.047
1572.415 0.9682 1.0363 1.1565 1.0848 1.0345 1.0724 1.0899 1.1055 1.172 1.269
1591.708 1.3241 1.3885 1.4382 1.471 1.5127 1.575 1.615 1.595 1.615 1.625
1611.002 1.615 1.555 1.5442 1.5287 1.3944 1.2743 1.231 1.1741 1.0846 1.0276
1630.295 0.969 0.9287 1.0007 1.0185 0.8731 0.8082 0.7687 0.7864 0.8992 0.8863
1649.588 0.7784 0.9046 1.0869 0.8985 0.6963 0.6615 0.7092 0.7465 0.7084 0.7567
1668.882 0.8549 0.8723 0.8898 1.0213 1.0429 1.0803 1.2474 1.4176 1.585 1.5426
1688.175 1.555 1.645 1.685 1.915 2.205 2.285 2.515 2.655 2.695 2.905
1707.469 3.105 3.405 3.825 4.445 5.265 6.255 7.305 8.545 10.305 12.435
1726.762 14.815 17.265 19.395 20.945 21.645 21.435 21.155 20.895 20.535 19.595
1746.056 17.485 14.485 11.465 8.815 6.665 5.375 4.465 3.725 3.265 2.785
1765.349 2.455 2.405 2.205 1.955 1.795 1.595 1.4382 1.3718 1.3357 1.2993
1784.642 1.3451 1.2204 1.1229 1.2349 1.2415 1.137 1.1013 1.0737 1.1436 1.1628
1803.936 0.9615 0.8668 0.8628 0.826 0.8013 0.7392 0.7183 0.7375 0.6731 0.62366
1823.229 0.6764 0.7435 0.6742 0.6525 0.6507 0.62818 0.61823 0.60123 0.6055 0.61915
1842.523 0.7202 0.7524 0.676 0.6492 0.62244 0.5905 0.5727 0.56914 0.59147 0.61715
1861.816 0.63617 0.63023 0.62259 0.6799 0.7086 0.60464 0.5303 0.509 0.497 0.5003
1881.110 0.4842 0.4683 0.4556 0.445 0.4844 0.4728 0.44 0.4559 0.436 0.415
1900.403 0.429 0.443 0.432 0.45 0.4706 0.4573 0.431 0.43 0.4886 0.53538
1919.696 0.5044 0.502 0.4986 0.433 0.405 0.402 0.413 0.415 0.387 0.395
1938.990 0.404 0.439 0.4675 0.418 0.403 0.394 0.386 0.39 0.401 0.398
1958.283 0.398 0.406 0.386 0.385 0.421 0.4504 0.403 0.368 0.364 0.346
1977.577 0.334 0.338 0.361 0.376 0.368 0.373 0.401 0.437 0.422 0.363
1996.870 0.359 0.375 0.379 0.364 0.365 0.379 0.38 0.384 0.368 0.358
2016.164 0.382 0.408 0.404 0.388 0.393 0.39 0.381 0.373 0.377 0.388
2035.457 0.382 0.371 0.385 0.401 0.38 0.372 0.372 0.358 0.359 0.369
2054.750 0.368 0.365 0.372 0.403 0.426 0.44 0.425 0.405 0.413 0.417
2074.044 0.401 0.394 0.394 0.384 0.39 0.382 0.382 0.38 0.369 0.362
2093.337 0.365 0.362 0.371 0.374 0.366 0.376 0.387 0.375 0.365 0.383
2112.631 0.392 0.398 0.4 0.383 0.376 0.392 0.399 0.393 0.37 0.358
2131.924 0.352 0.351 0.353 0.346 0.337 0.338 0.358 0.347 0.332 0.347
2151.218 0.357 0.359 0.369 0.382 0.374 0.374 0.369 0.372 0.394 0.394
2170.511 0.404 0.418 0.392 0.373 0.39 0.395 0.386 0.392 0.409 0.424
2189.804 0.399 0.387 0.399 0.389 0.369 0.373 0.391 0.378 0.37 0.37
2209.098 0.375 0.385 0.381 0.387 0.382 0.369 0.395 0.408 0.404 0.418
2228.391 0.431 0.424 0.418 0.419 0.421 0.4473 0.4687 0.488 0.498 0.5069
2247.685 0.53906 0.551824 0.55981 0.5905 0.63845 0.6617 0.6724 0.6774 0.6846 0.6867
2266.978 0.6749 0.6598 0.63914 0.61368 0.5842 0.55548 0.5326 0.514 0.488 0.4911
2286.272 0.488 0.469 0.4659 0.4692 0.4564 0.45 0.4697 0.4706 0.4666 0.4803
2305.565 0.4687 0.475 0.512 0.5265 0.5304 0.5213 0.54151 0.57711 0.57568 0.57759
2324.858 0.58479 0.58758 0.58158 0.57049 0.57755 0.58379 0.5818 0.58037 0.56553 0.5647
2344.152 0.55624 0.5192 0.4998 0.4982 0.5153 0.56476 0.62206 0.6497 0.6603 0.6748
2363.445 0.6737 0.6531 0.61912 0.6139 0.61543 0.56319 0.5346 0.5202 0.4838 0.436
2382.739 0.415 0.414 0.39 0.388 0.383 0.362 0.362 0.383 0.383 0.365
2402.032 0.366 0.356 0.346 0.352 0.366 0.373 0.377 0.365 0.359 0.361
2421.326 0.35 0.341 0.342 0.333 0.301 0.29 0.305 0.312 0.314 0.32
2440.619 0.314 0.311 0.315 0.32 0.341 0.344 0.333 0.316 0.303 0.314
2459.912 0.324 0.329 0.316 0.327 0.339 0.339 0.352 0.348 0.337 0.338
2479.206 0.339 0.331 0.319 0.331 0.341 0.318 0.316 0.344 0.351 0.343
2498.499 0.359 0.366 0.362 0.356 0.351 0.36 0.363 0.346 0.341 0.351
2517.793 0.337 0.322 0.325 0.3 0.295 0.318 0.33 0.325 0.317 0.338
2537.086 0.355 0.368 0.379 0.343 0.322 0.345 0.333 0.318 0.337 0.328
2556.380 0.316 0.332 0.347 0.348 0.324 0.307 0.326 0.343 0.338 0.315
2575.673 0.296 0.296 0.307 0.305 0.293 0.312 0.301 0.278 0.267 0.265
2594.966 0.283 0.287 0.3 0.302 0.287 0.293 0.302 0.29 0.292 0.297
2614.260 0.281 0.265 0.285 0.293 0.294 0.29 0.282 0.279 0.265 0.278
2633.553 0.301 0.293 0.276 0.286 0.282 0.271 0.269 0.275 0.291 0.285
2652.847 0.283 0.297 0.302 0.311 0.326 0.334 0.325 0.331 0.333 0.339
2672.140 0.335 0.328 0.325 0.322 0.33 0.338 0.359 0.344 0.329 0.34
2691.434 0.357 0.344 0.338 0.368 0.38 0.407 0.421 0.361 0.324 0.336
2710.727 0.345 0.371 0.359 0.335 0.359 0.376 0.361 0.339 0.282 0.264
2730.020 0.306 0.291 0.279 0.303 0.315 0.307 0.284 0.281 0.293 0.288
2749.314 0.272 0.244 0.234 0.27 0.27 0.252 0.236 0.249 0.282 0.258
2768.607 0.266 0.276 0.274 0.292 0.268 0.239 0.238 0.263 0.263 0.235
2787.901 0.251 0.282 0.276 0.284 0.289 0.269 0.281 0.291 0.283 0.298
2807.194 0.298 0.295 0.262 0.217 0.22 0.232 0.228 0.225 0.269 0.321
2826.488 0.314 0.287 0.318 0.342 0.312 0.315 0.32 0.303 0.309 0.314
2845.781 0.321 0.316 0.334 0.373 0.411 0.415 0.396 0.399 0.415 0.405
2865.074 0.405 0.443 0.4635 0.4844 0.4837 0.4782 0.443 0.409 0.423 0.409
2884.368 0.398 0.419 0.384 0.32 0.3 0.332 0.336 0.326 0.333 0.307
2903.661 0.266 0.272 0.29 0.278 0.279 0.27 0.272 0.286 0.304 0.353
2922.955 0.363 0.351 0.387 0.418 0.4692 0.5302 0.5259 0.4926 0.5162 0.545383
2942.248 0.55699 0.567 0.58967 0.56539 0.5071 0.4585 0.394 0.364 0.392 0.413
2961.542 0.362 0.366 0.392 0.365 0.392 0.4563 0.4526 0.4476 0.4513 0.376
2980.835 0.385 0.424 0.385 0.362 0.363 0.354 0.341 0.341 0.35 0.323
3000.128 0.266 0.308 0.306 0.234 0.278 0.377 0.382 0.383 0.35 0.27
3019.422 0.279 0.299 0.271 0.249 0.257 0.215 0.258 0.293 0.268 0.253
3038.715 0.244 0.243 0.216 0.232 0.187 0.142 0.205 0.234 0.202 0.289
3058.009 0.304 0.19 0.174 0.189 0.203 0.229 0.281 0.262 0.245 0.274
3077.302 0.275 0.22 0.169 0.149 0.119 0.212 0.234 0.201 0.214 0.192
3096.596 0.188 0.21 0.279 0.276 0.219 0.217 0.21 0.258 0.302 0.271
3115.889 0.216 0.242 0.273 0.244 0.266 0.212 0.197 0.207 0.107 0.093
3135.182 0.153 0.222 0.266 0.217 0.188 0.217 0.165 0.131 0.162 0.13
3154.476 0.144 0.19 0.156 0.119 0.148 0.162 0.127 0.123 0.128 0.119
3173.769 0.12 0.178 0.188 0.115 0.115 0.16 0.218 0.248 0.199 0.174
3193.063 0.167 0.095 0.076 0.138 0.17 0.16 0.158 0.175 0.17 0.233
3212.356 0.209 0.173 0.205 0.146 0.152 0.193 0.212 0.259 0.24 0.223
3231.650 0.248 0.207 0.159 0.154 0.233 0.268 0.235 0.24 0.175 0.101
3250.943 0.152 0.149 0.148 0.18 0.144 0.176 0.202 0.189 0.194 0.191
3270.236 0.116 0.071 0.102 0.184 0.239 0.217 0.135 0.152 0.281 0.215
3289.530 0.103 0.159 0.231 0.238 0.226 0.15 0.131 0.212 0.247 0.214
3308.823 0.178 0.195 0.194 0.159 0.139 0.156 0.232 0.243 0.236 0.268
3328.117 0.273 0.292 0.298 0.257 0.197 0.178 0.179 0.218 0.245 0.196
3347.410 0.169 0.214 0.224 0.181 0.225 0.26 0.256 0.24 0.19 0.132
3366.704 0.18 0.264 0.215 0.218 0.243 0.243 0.234 0.252 0.284 0.31
3385.997 0.388 0.5141 0.677 0.7826 0.8665 1.0634 1.2873 1.4654 1.635 1.925
3405.290 2.355 2.615 2.835 3.045 3.075 3.065 3.005 2.885 2.845 2.825
3424.584 2.625 2.335 2.025 1.715 1.4877 1.352 1.3312 1.3977 1.4416 1.565
3443.877 1.805 2.095 2.445 2.775 3.075 3.485 3.955 4.295 4.575 4.675
3463.171 4.555 4.295 4.075 4.015 3.875 3.575 3.165 2.645 2.135 1.715
3482.464 1.32 1.0158 0.7905 0.6498 0.553624 0.436 0.354 0.282 0.219 0.231
3501.758 0.337 0.345 0.326 0.345 0.299 0.288 0.221 0.124 0.167 0.223
3521.051 0.224 0.342 0.401 0.336 0.234 0.156 0.198 0.239 0.227 0.211
3540.344 0.171 0.221 0.386 0.437 0.378 0.261 0.233 0.262 0.227 0.21
3559.638 0.297 0.268 0.218 0.435 0.55698 0.382 0.222 0.247 0.258 0.24
3578.931 0.258 0.275 0.272 0.298 0.444 0.4966 0.366 0.294 0.328 0.294
3598.225 0.209 0.194 0.203 0.202 0.273 0.409 0.437 0.399 0.424 0.414
3617.518 0.36 0.339 0.288 0.251 0.265 0.386 0.5252 0.397 0.216 0.159
3636.812 0.128 0.12 0.124 0.156 0.228 0.371 0.4882 0.437 0.32 0.301
3656.105 0.321 0.21 0.082 0.08 0.101 0.119 0.214 0.294 0.28 0.292
3675.398 0.352 0.299 0.19 0.144 0.152 0.181 0.204 0.22 0.21 0.173
3694.692 0.141 0.158 0.202 0.22 0.163 0.128 0.114 0.156 0.276 0.318
3713.985 0.294 0.273 0.24 0.172 0.22 0.31 0.365 0.334 0.223 0.269
3733.279 0.413 0.54325 0.5152 0.327 0.27 0.367 0.472 0.378 0.294 0.348
3752.572 0.336 0.23 0.17 0.179 0.143 0.149 0.169 0.146 0.135 0.15
3771.866 0.104 0.044 0.057 0.059 0.077 0.112 0.131 0.116 0.119 0.113
3791.159 0.083 0.108 0.125 0.136 0.153 0.154 0.171 0.162 0.132 0.071
3810.452 0.052 0.086 0.105 0.14 0.159 0.187 0.138 0.054 0.066 0.065
3829.746 0.045 0.095 0.126 0.137 0.149 0.146 0.158 0.147 0.086 0.045
3849.039 0.124 0.297 0.419 0.382 0.187 0.075 0.139 0.165 0.187 0.235
3868.333 0.247 0.263 0.193 0.153 0.171 0.165 0.23 0.234 0.201 0.238
3887.626 0.209 0.162 0.163 0.163 0.152 0.167 0.298 0.406 0.408 0.327
3906.920 0.146 0.033 0.022 0.038 0.087 0.188 0.19 0.124 0.155 0.201
3926.213 0.179 0.105 0.131 0.208 0.154 0.082 0.063 0.033 0.106 0.153
3945.506 0.149 0.202 0.213 0.141 0.082 0.083 0.051 0.064 0.139 0.135
3964.800 0.072 0.067 0.088 0.12 0.117 0.099 0.072 0.03 0.053 0.045
3984.093 0.033 0.039 0.047 0.08 0.077 0.037 0.033 0.038 0
##END=
