##TITLE=4-Methyl-3-hexanol
##JCAMP-DX=4.24
##DATA TYPE=INFRARED SPECTRUM
##ORIGIN=NIST Mass Spectrometry Data Center
##OWNER=NIST Standard Reference Data Program
Collection (C) 2018 copyright by the U.S. Secretary of Commerce
on behalf of the United States of America. All rights reserved.
##CAS REGISTRY NO=615-29-2
##MOLFORM=C 7 H 16 O
##$NIST SOURCE=MSDC-IR
##SPECTROMETER/DATA SYSTEM=HP-GC/MS/IRD
##STATE=gas
##XUNITS=1/CM
##YUNITS=ABSORBANCE
##XFACTOR=1.0
##YFACTOR=0.000002300
##DELTAX=4.0
##FIRSTX=550.0
##LASTX=3846.0
##FIRSTY=0.000230
##MAXX=3846
##MINX=550
##MAXY=0.023
##MINY=0
##NPOINTS=825
##XYDATA=(X++(Y..Y))
550.0 100 69 53 86 94 51 31 32 18 41
590.0 61 91 83 68 67 87 76 55 63 70
630.0 75 58 47 62 51 36 50 62 55 38
670.0 39 43 37 47 50 36 22 3 13 24
710.0 36 38 44 52 47 53 54 50 64 92
750.0 84 69 86 111 145 158 169 187 192 196
790.0 187 186 179 157 152 157 157 156 150 147
830.0 139 142 153 157 169 184 198 203 210 222
870.0 223 211 194 186 186 184 194 200 220 263
910.0 319 387 461 532 610 698 800 929 1083 1281
950.0 1511 1775 2032 2238 2379 2449 2443 2346 2179 1967
990.0 1733 1511 1311 1141 994 888 831 806 800 804
1030.0 808 804 795 795 786 785 805 820 847 914
1070.0 971 1031 1085 1121 1161 1186 1187 1179 1153 1112
1110.0 1065 1022 986 957 946 945 962 963 960 954
1150.0 908 833 760 694 627 582 536 502 495 490
1190.0 508 549 603 665 724 779 843 918 957 963
1230.0 975 980 949 909 870 826 787 757 740 720
1270.0 717 705 698 702 695 694 697 689 667 636
1310.0 610 574 553 546 534 530 518 493 523 586
1350.0 632 691 748 827 975 1131 1279 1416 1511 1515
1390.0 1449 1299 1096 906 748 631 535 460 451 475
1430.0 509 546 646 821 985 1184 1341 1488 1623 1644
1470.0 1540 1342 1159 950 724 551 442 356 290 195
1510.0 140 158 144 137 151 150 143 127 107 116
1550.0 124 106 87 104 123 125 126 128 131 122
1590.0 113 109 116 113 100 105 107 95 86 86
1630.0 93 81 83 86 63 41 43 72 75 63
1670.0 53 51 50 24 24 45 28 2 6 33
1710.0 42 17 7 43 56 29 11 29 32 17
1750.0 6 14 15 16 10 7 20 26 22 23
1790.0 17 18 24 19 38 41 41 39 30 23
1830.0 27 31 30 20 18 32 42 38 29 23
1870.0 22 32 35 41 42 37 38 39 45 45
1910.0 42 44 33 34 46 44 42 45 39 43
1950.0 47 48 47 44 38 33 34 34 30 29
1990.0 24 28 34 32 30 29 27 36 42 35
2030.0 30 28 31 30 34 37 40 40 29 21
2070.0 26 29 28 33 34 32 32 29 29 31
2110.0 33 33 28 30 37 37 33 26 24 29
2150.0 31 28 23 27 27 25 27 24 19 18
2190.0 18 21 29 31 30 27 30 29 30 35
2230.0 33 28 28 26 21 17 20 27 28 32
2270.0 31 30 28 25 28 25 21 18 15 15
2310.0 8 3 11 16 17 15 16 22 21 17
2350.0 19 17 18 18 17 15 14 26 39 45
2390.0 48 50 48 48 56 65 61 55 54 58
2430.0 66 59 50 52 52 50 45 43 38 42
2470.0 44 40 43 42 40 41 35 34 35 33
2510.0 36 41 42 45 47 41 40 48 53 54
2550.0 56 60 66 66 76 87 90 97 101 102
2590.0 109 117 116 116 125 130 131 133 139 139
2630.0 132 134 139 144 144 135 138 145 144 152
2670.0 158 162 173 171 168 173 175 183 192 195
2710.0 202 214 227 238 252 266 274 289 301 301
2750.0 307 308 305 303 302 313 330 337 345 355
2790.0 372 403 425 443 463 494 533 582 633 696
2830.0 794 915 1058 1237 1459 1733 2047 2410 2818 3274
2870.0 3790 4356 4875 5242 5422 5385 5169 4848 4540 4367
2910.0 4370 4547 4853 5260 5696 6123 6499 6742 6851 6907
2950.0 7009 7306 7919 8773 9612 10000 9715 8818 7427 5823
2990.0 4333 3142 2284 1696 1319 1075 914 798 705 639
3030.0 589 553 527 498 473 442 420 404 387 379
3070.0 370 352 335 323 317 302 280 273 270 254
3110.0 242 237 227 214 216 219 201 190 185 180
3150.0 188 197 196 189 178 170 164 152 152 133
3190.0 112 107 100 99 98 78 69 71 71 69
3230.0 54 49 48 37 40 51 50 48 49 57
3270.0 58 49 50 50 42 46 44 45 50 46
3310.0 39 42 37 32 47 40 31 36 39 41
3350.0 35 16 13 25 26 33 45 47 43 42
3390.0 48 50 56 66 58 53 53 53 66 78
3430.0 79 71 61 65 62 56 49 48 58 58
3470.0 53 59 64 55 50 49 61 67 44 35
3510.0 42 53 53 37 37 43 41 50 46 28
3550.0 39 49 52 32 0 29 60 64 57 19
3590.0 21 56 72 77 65 67 84 98 152 186
3630.0 217 285 355 428 475 541 626 659 646 578
3670.0 481 389 301 229 160 125 126 119 101 88
3710.0 68 67 81 58 50 58 25 38 43 27
3750.0 45 69 89 83 75 78 83 72 79 89
3790.0 90 91 85 88 89 83 83 87 103 111
3830.0 103 91 79 80 97
##END=
