##TITLE=Ethyl acetopyruvate
##JCAMP-DX=4.24
##DATA TYPE=INFRARED SPECTRUM
##ORIGIN=EPA-IR VAPOR PHASE LIBRARY
##OWNER=SRD/NIST
Collection (C) 2018 copyright by the U.S. Secretary of Commerce
on behalf of the United States of America. All rights reserved.
##CAS REGISTRY NO=615-79-2
##MOLFORM=C 7 H 10 O 4
##$NIST SOURCE=MSDC-IR
##STATE=gas
##XUNITS=1/CM
##YUNITS=ABSORBANCE
##XFACTOR=1.
##YFACTOR=0.001
##DELTAX=1.92934
##FIRSTX=549.9
##LASTX=3999.5
##FIRSTY=11.11
##MAXX=3999.53
##MINX=549.863
##MAXY=0.25969
##MINY=0
##NPOINTS=1789
##XYDATA=(X++(Y..Y))
549.863 11.11 11.65 12.08 12.66 13.2 13.76 14.45 15.07 15.66 15.98
569.156 16.16 16.37 16.21 15.6 14.8 13.91 12.94 11.87 10.76 9.81
588.450 9.03 8.21 7.51 7.02 6.7 6.35 5.99 5.72 5.45 5.29
607.743 5.19 5.03 4.87 4.86 4.79 4.72 4.66 4.62 4.56 4.43
627.037 4.33 4.25 4.15 4.03 3.91 3.87 3.82 3.74 3.65 3.55
646.330 3.47 3.43 3.39 3.3 3.2 3.11 3.04 2.94 2.9 2.91
665.624 2.99 3.46 3.38 2.93 2.93 2.97 2.98 2.99 3 3
684.917 3.05 3.13 3.2 3.27 3.32 3.41 3.5 3.62 3.7 3.73
704.210 3.76 3.87 4 4.1 4.26 4.46 4.62 4.79 5 5.2
723.504 5.43 5.75 6.12 6.5 6.98 7.59 8.28 9.01 9.89 10.91
742.797 12.03 13.28 14.65 16.16 17.7 19.21 20.79 22.38 23.95 25.54
762.091 27.06 28.43 29.64 30.66 31.45 31.78 31.63 31.06 30.13 28.91
781.384 27.35 25.58 23.75 21.97 20.29 18.7 17.22 15.91 14.81 13.89
800.678 13.13 12.51 12.05 11.72 11.46 11.28 11.14 11.04 11.02 11
819.971 10.99 10.95 10.98 11.06 11.1 11.2 11.33 11.44 11.68 11.97
839.264 12.31 12.78 13.27 13.81 14.43 15.07 15.8 16.63 17.48 18.27
858.558 18.99 19.63 20.06 20.29 20.36 20.2 19.86 19.47 19.06 18.62
877.851 18.29 18.14 18.07 18.09 18.26 18.61 19.1 19.66 20.34 21.19
897.145 21.99 22.64 23.08 23.26 23.13 22.59 21.73 20.57 19.2 17.73
916.438 16.24 14.93 13.75 12.68 11.76 10.87 10.14 9.56 9.05 8.66
935.732 8.36 8.14 8.01 7.92 7.89 7.92 7.96 8.04 8.2 8.36
955.025 8.51 8.72 9.01 9.33 9.7 10.12 10.59 11.11 11.67 12.31
974.318 13 13.78 14.61 15.46 16.32 17.14 17.95 18.72 19.42 20.1
993.612 20.77 21.5 22.35 23.28 24.39 25.78 27.37 29.13 31.09 33.33
1012.905 35.79 38.26 40.62 42.73 44.3 45.26 45.55 45.11 44.06 42.51
1032.199 40.66 38.27 35.62 33.41 31.69 30.42 29.61 29.29 29.42 29.9
1051.492 30.68 31.7 32.86 34.09 35.34 36.61 37.85 39 40.09 41.22
1070.786 42.43 43.81 45.46 47.42 49.77 52.56 55.73 59.25 63.18 67.35
1090.079 71.74 76.45 81.37 86.52 92.01 97.87 104.14 110.83 117.64 123.79
1109.372 128.57 131.45 131.99 129.93 125.32 118.29 109.11 98.68 88 78.04
1128.666 69.51 62.65 57.41 53.44 50.43 48.14 46.47 45.31 44.45 43.81
1147.959 43.47 43.32 43.21 43.29 43.62 44.07 44.64 45.43 46.41 47.58
1167.253 48.91 50.5 52.41 54.55 57.05 59.95 63.24 66.92 71.01 75.43
1186.546 80.12 84.91 89.56 93.99 97.76 100.67 102.63 103.61 103.59 102.44
1205.840 100.4 98.01 95.36 92.63 90.35 88.49 87.36 87.16 87.43 88.59
1225.133 91.03 94.22 98.24 103.13 109.03 115.91 123.6 132.22 141.63 151.67
1244.426 162.15 172.92 183.8 194.63 205.38 215.92 226.2 235.79 244.37 251.63
1263.720 256.93 259.69 259.28 255.42 248.04 237.27 223.62 208 191.33 174.55
1283.013 158.61 144.19 131.66 121.17 112.5 105.41 99.71 95.07 91.14 87.72
1302.307 84.64 81.79 79.05 76.24 73.33 70.25 67.01 63.7 60.36 57.07
1321.600 53.89 50.89 48.09 45.5 43.24 41.33 39.73 38.48 37.57 36.95
1340.894 36.68 36.76 37.12 37.78 38.76 40.04 41.65 43.65 45.99 48.57
1360.187 51.43 54.62 58.01 61.09 63.21 64.15 63.99 62.99 61.24 58.6
1379.480 55.18 51.54 48.32 45.87 44.19 43.19 42.66 42.4 42.26 42.24
1398.774 42.34 42.51 42.64 42.67 42.7 42.72 42.71 42.69 42.65 42.55
1418.067 42.38 42.22 42.04 41.75 41.37 40.9 40.35 39.74 39.14 38.47
1437.361 37.74 37.09 36.41 35.71 35.06 34.43 33.81 33.24 32.69 32.15
1456.654 31.59 31.16 30.92 30.75 30.63 30.59 30.47 30.24 29.87 29.35
1475.948 28.7 27.94 27.05 26.01 25.02 24.1 23.24 22.46 21.8 21.23
1495.241 20.75 20.31 19.95 19.68 19.5 19.37 19.23 19.13 19.16 19.28
1514.534 19.41 19.57 19.8 20.05 20.39 20.77 21.17 21.62 22.17 22.74
1533.828 23.34 24.01 24.74 25.53 26.34 27.17 28.08 29.11 30.16 31.29
1553.121 32.48 33.82 35.32 36.97 38.76 40.67 42.82 45.25 47.96 50.96
1572.415 54.22 57.74 61.73 65.99 70.43 75.28 80.32 85.54 90.86 96.24
1591.708 101.42 106.42 111.16 115.37 118.96 121.83 123.8 124.91 125.1 124.33
1611.002 122.62 120.15 117.1 113.46 109.56 105.61 101.67 97.93 94.58 91.58
1630.295 89.02 86.91 85.13 83.63 82.48 81.58 80.77 80.03 79.24 78.36
1649.588 77.39 76.23 74.6 72.83 70.89 68.6 66.06 63.27 60.37 57.45
1668.882 54.52 51.63 48.91 46.33 43.98 42.02 40.28 38.91 37.78 36.8
1688.175 36.14 35.74 35.59 35.74 36.08 36.63 37.55 38.84 40.44 42.52
1707.469 45.09 48.19 51.81 55.96 60.75 66.24 72.46 79.09 86.44 94.61
1726.762 103.49 112.93 122.92 132.98 143.27 152.66 160.1 165.3 167.33 166.16
1746.056 162.95 158.92 153.81 146.62 137.86 128.82 120.62 114.09 108.79 104.25
1765.349 99.92 95.39 91.07 87.46 83.77 78.98 72.49 65 57.47 50.4
1784.642 43.9 38.03 32.94 28.57 24.9 21.89 19.5 17.55 15.94 14.57
1803.936 13.45 12.51 11.67 10.92 10.26 9.65 9.11 8.61 8.18 7.78
1823.229 7.37 7.04 6.78 6.54 6.29 6.09 5.91 5.72 5.58 5.47
1842.523 5.34 5.25 5.17 5.07 5 4.95 4.9 4.82 4.77 4.77
1861.816 4.76 4.75 4.72 4.69 4.67 4.67 4.67 4.68 4.66 4.63
1881.110 4.61 4.57 4.51 4.49 4.45 4.38 4.31 4.22 4.17 4.13
1900.403 4.04 3.98 3.92 3.86 3.8 3.7 3.67 3.64 3.55 3.49
1919.696 3.48 3.44 3.39 3.38 3.36 3.31 3.29 3.27 3.24 3.21
1938.990 3.2 3.16 3.13 3.15 3.15 3.15 3.12 3.1 3.09 3.07
1958.283 3.07 3.07 3.05 3.04 3 3.01 3.03 3.02 3.04 3.03
1977.577 3 3 3 2.99 2.96 2.93 2.9 2.8362 2.8264 2.8483
1996.870 2.8062 2.7589 2.7377 2.7333 2.711 2.6725 2.6752 2.6542 2.6222 2.6188
2016.164 2.6052 2.5862 2.5524 2.5447 2.5718 2.5588 2.5397 2.5296 2.5429 2.5662
2035.457 2.566 2.5785 2.5822 2.628 2.6173 2.6219 2.6356 2.6379 2.7116 2.7099
2054.750 2.7384 2.7588 2.8103 2.8542 2.846 2.91 2.8895 2.96 2.93 2.93
2074.044 2.95 2.93 3.01 2.98 3.07 3.01 3.08 3.08 3.1 3.15
2093.337 3.15 3.23 3.23 3.34 3.33 3.45 3.48 3.59 3.63 3.69
2112.631 3.77 3.85 3.95 4.03 4.14 4.2 4.34 4.45 4.6 4.7
2131.924 4.84 4.95 5.02 5.01 5 4.96 4.88 4.79 4.66 4.6
2151.218 4.51 4.37 4.24 4.06 3.84 3.61 3.4 3.22 3.09 3.02
2170.511 2.97 2.94 2.92 2.9 2.9 2.8693 2.8472 2.8325 2.7896 2.7474
2189.804 2.7013 2.6649 2.6731 2.6419 2.5984 2.5864 2.5304 2.4937 2.4974 2.4688
2209.098 2.4321 2.4149 2.4035 2.377 2.3634 2.3623 2.3529 2.3439 2.3463 2.3441
2228.391 2.3335 2.3376 2.3194 2.3076 2.3222 2.316 2.3097 2.3143 2.3078 2.3155
2247.685 2.3242 2.3068 2.2843 2.2958 2.3007 2.2896 2.2979 2.3374 2.3719 2.3815
2266.978 2.4071 2.421 2.4124 2.4213 2.4807 2.498 2.5091 2.5533 2.585 2.6141
2286.272 2.6494 2.6805 2.6986 2.7417 2.7847 2.8187 2.8775 2.94 2.99 3.05
2305.565 3.11 3.19 3.26 3.29 3.32 3.37 3.42 3.44 3.45 3.48
2324.858 3.46 3.42 3.41 3.41 3.38 3.33 3.28 3.27 3.3 3.29
2344.152 3.25 3.22 3.21 3.26 3.36 3.46 3.54 3.63 3.68 3.72
2363.445 3.77 3.78 3.79 3.8 3.75 3.7 3.62 3.48 3.36 3.27
2382.739 3.17 3.05 2.96 2.91 2.8894 2.8529 2.8495 2.8619 2.8727 2.8782
2402.032 2.8505 2.8476 2.8694 2.8858 2.89 2.8847 2.8871 2.8803 2.8728 2.8605
2421.326 2.843 2.8321 2.8288 2.813 2.7953 2.8334 2.8367 2.8238 2.8103 2.7758
2440.619 2.7833 2.8055 2.8334 2.8469 2.8483 2.8826 2.89 2.9 2.93 2.95
2459.912 2.96 2.99 3 3 3.05 3.04 3.04 3.1 3.11 3.1
2479.206 3.11 3.11 3.12 3.16 3.18 3.17 3.16 3.16 3.21 3.25
2498.499 3.27 3.27 3.28 3.29 3.29 3.28 3.28 3.31 3.3 3.27
2517.793 3.29 3.28 3.25 3.26 3.27 3.25 3.26 3.24 3.18 3.19
2537.086 3.19 3.19 3.18 3.15 3.13 3.1 3.1 3.11 3.08 3.06
2556.380 3.05 3.04 3.01 2.95 2.94 2.95 2.91 2.882 2.8518 2.8076
2575.673 2.7697 2.7452 2.7282 2.7131 2.6624 2.6107 2.6182 2.6307 2.6337 2.6263
2594.966 2.6294 2.6391 2.6312 2.649 2.5956 2.5585 2.5929 2.5908 2.595 2.6113
2614.260 2.6058 2.5819 2.5796 2.5912 2.5978 2.6163 2.6509 2.6423 2.6248 2.6385
2633.553 2.6696 2.6933 2.6891 2.7115 2.7338 2.764 2.7901 2.7724 2.7919 2.8279
2652.847 2.8309 2.8487 2.8664 2.873 2.8607 2.8632 2.9 2.97 3.02 3.01
2672.140 3.01 3.02 3.05 3.07 3.08 3.1 3.11 3.17 3.21 3.22
2691.434 3.26 3.27 3.26 3.29 3.34 3.37 3.38 3.42 3.44 3.47
2710.727 3.49 3.49 3.53 3.56 3.56 3.59 3.63 3.64 3.69 3.76
2730.020 3.8 3.79 3.79 3.78 3.77 3.8 3.81 3.84 3.84 3.81
2749.314 3.87 3.9 3.88 3.94 3.99 3.99 4.05 4.08 4.1 4.2
2768.607 4.27 4.28 4.29 4.41 4.48 4.49 4.5 4.52 4.53 4.54
2787.901 4.58 4.62 4.62 4.61 4.6 4.64 4.67 4.66 4.73 4.8
2807.194 4.89 4.94 4.98 5.04 5.11 5.18 5.26 5.29 5.35 5.46
2826.488 5.52 5.57 5.63 5.71 5.75 5.76 5.86 5.95 6.02 6.11
2845.781 6.18 6.18 6.21 6.3 6.44 6.59 6.67 6.76 6.93 7.12
2865.074 7.25 7.46 7.72 7.94 8.28 8.6 8.87 9.32 9.79 10.17
2884.368 10.52 10.79 11 11.15 11.29 11.4 11.47 11.58 11.71 11.92
2903.661 12.25 12.61 13.01 13.33 13.6 13.91 14.2 14.43 14.59 14.73
2922.955 14.95 15.27 15.69 16.27 17 17.94 19.08 20.29 21.59 22.84
2942.248 23.85 24.47 24.68 24.58 24.31 23.83 23.16 22.37 21.59 21.16
2961.542 21.25 21.62 22.3 23.28 24.38 25.68 27.2 28.99 31.18 33.78
2980.835 36.6 39.24 41.23 42.35 42.72 42.53 41.76 40.2 37.86 35.18
3000.128 32.52 30.19 28.37 26.84 25.45 24.16 22.82 21.53 20.28 18.94
3019.422 17.65 16.51 15.39 14.3 13.31 12.39 11.57 10.85 10.16 9.53
3038.715 9.09 8.67 8.28 7.9 7.55 7.28 6.96 6.68 6.53 6.37
3058.009 6.23 6.06 5.89 5.87 5.77 5.63 5.56 5.44 5.32 5.32
3077.302 5.3 5.27 5.21 5.08 5.01 4.96 4.89 4.82 4.77 4.75
3096.596 4.75 4.79 4.77 4.65 4.57 4.62 4.58 4.48 4.38 4.29
3115.889 4.24 4.12 3.99 3.83 3.73 3.65 3.54 3.46 3.46 3.46
3135.182 3.34 3.23 3.15 3.02 2.95 2.94 2.8829 2.8105 2.7655 2.6833
3154.476 2.6395 2.6477 2.6031 2.556 2.526 2.5289 2.5157 2.4753 2.4113 2.3225
3173.769 2.2696 2.2459 2.2269 2.2913 2.3003 2.2289 2.1488 2.0902 2.1175 2.0451
3193.063 2.0399 2.1087 2.0346 2.0216 2.0795 2.0583 2.0294 2.0476 2.0882 2.1043
3212.356 2.0825 2.07 2.0522 2.025 2.0358 2.0777 2.0579 2.068 2.0646 2.0151
3231.650 2.0559 2.0353 2.006 2.0245 1.9672 1.96985 1.91044 1.8065 1.696 1.686
3250.943 1.8203 1.8029 1.779 1.711 1.639 1.689 1.621 1.587 1.6 1.499
3270.236 1.466 1.448 1.416 1.481 1.493 1.417 1.37 1.335 1.331 1.336
3289.530 1.301 1.3 1.317 1.26 1.22 1.179 1.14 1.11 1.133 1.127
3308.823 1.021 0.994 1.001 0.933 0.88 0.972 0.98 0.915 0.86 0.89
3328.117 0.896 0.79 0.79 0.86 0.77 0.62 0.62 0.63 0.61 0.57
3347.410 0.59 0.65 0.62 0.62 0.65 0.65 0.63 0.58 0.5 0.5
3366.704 0.47 0.49 0.56 0.51 0.44 0.46 0.49 0.58 0.57 0.47
3385.997 0.46 0.5 0.53 0.51 0.49 0.48 0.5 0.47 0.41 0.44
3405.290 0.53 0.55 0.52 0.52 0.54 0.57 0.67 0.73 0.69 0.69
3424.584 0.75 0.82 0.86 0.925 1.063 1.114 1.099 1.187 1.358 1.501
3443.877 1.53 1.678 1.789 1.8508 2.007 2.0819 2.1218 2.1762 2.279 2.4434
3463.171 2.5365 2.5716 2.6831 2.7996 2.832 2.6844 2.6097 2.649 2.6205 2.4425
3482.464 2.2537 2.2107 2.0643 1.97245 1.89024 1.764 1.673 1.55 1.44 1.335
3501.758 1.329 1.363 1.326 1.274 1.254 1.236 1.212 1.299 1.309 1.183
3521.051 1.124 1.045 0.976 0.897 0.8 0.7 0.6 0.58 0.46 0.39
3540.344 0.43 0.32 0.24 0.2 0.2 0.21 0.16 0.11 0.14 0.17
3559.638 0.07 0.05 0.07 0.09 0.03 0.02 0.1 0.15 0.24 0.25
3578.931 0.26 0.33 0.35 0.32 0.29 0.24 0.21 0.19 0.2 0.18
3598.225 0.13 0.12 0.09 0.13 0.09 0 0.02 0.04 0.07 0.08
3617.518 0.08 0.06 0.03 0.01 0.01 0.01 0.01 0.08 0.1 0.09
3636.812 0.14 0.19 0.22 0.19 0.14 0.16 0.17 0.13 0.19 0.29
3656.105 0.31 0.31 0.31 0.27 0.27 0.24 0.22 0.24 0.18 0.22
3675.398 0.28 0.2 0.16 0.16 0.22 0.3 0.28 0.23 0.26 0.29
3694.692 0.3 0.28 0.22 0.18 0.19 0.16 0.13 0.17 0.21 0.23
3713.985 0.26 0.26 0.22 0.2 0.18 0.21 0.17 0.13 0.14 0.13
3733.279 0.1 0.04 0.05 0.17 0.24 0.24 0.2 0.24 0.3 0.28
3752.572 0.21 0.2 0.19 0.21 0.2 0.2 0.26 0.24 0.18 0.13
3771.866 0.16 0.18 0.2 0.22 0.19 0.21 0.28 0.29 0.31 0.33
3791.159 0.31 0.32 0.34 0.35 0.38 0.37 0.32 0.3 0.3 0.31
3810.452 0.33 0.34 0.31 0.29 0.29 0.28 0.25 0.23 0.25 0.33
3829.746 0.37 0.35 0.33 0.33 0.32 0.31 0.38 0.41 0.33 0.36
3849.039 0.35 0.31 0.32 0.3 0.3 0.33 0.36 0.32 0.29 0.34
3868.333 0.31 0.24 0.33 0.36 0.32 0.33 0.32 0.28 0.33 0.37
3887.626 0.32 0.33 0.34 0.28 0.25 0.29 0.33 0.31 0.3 0.27
3906.920 0.29 0.31 0.34 0.36 0.35 0.35 0.35 0.35 0.36 0.33
3926.213 0.34 0.32 0.23 0.24 0.28 0.32 0.3 0.27 0.29 0.31
3945.506 0.32 0.34 0.36 0.42 0.4 0.4 0.47 0.48 0.44 0.45
3964.800 0.44 0.38 0.37 0.39 0.43 0.43 0.43 0.44 0.47 0.5
3984.093 0.52 0.51 0.47 0.43 0.44 0.5 0.52 0.5 0.49
##END=
