##TITLE=o-Iodotoluene
##JCAMP-DX=4.24
##DATA TYPE=INFRARED SPECTRUM
##ORIGIN=EPA-IR VAPOR PHASE LIBRARY
##OWNER=SRD/NIST
Collection (C) 2018 copyright by the U.S. Secretary of Commerce
on behalf of the United States of America. All rights reserved.
##CAS REGISTRY NO=615-37-2
##MOLFORM=C 7 H 7 I
##$NIST SOURCE=MSDC-IR
##STATE=gas
##XUNITS=1/CM
##YUNITS=ABSORBANCE
##XFACTOR=1.
##YFACTOR=0.001
##DELTAX=3.85796
##FIRSTX=501.5
##LASTX=4000.7
##FIRSTY=0.9665
##MAXX=4000.7
##MINX=501.534
##MAXY=0.134507
##MINY=0
##NPOINTS=908
##XYDATA=(X++(Y..Y))
501.534 0.9665 0.9682 0.7506 0.7397 1.0463 1.4366 2.3566 3.9266 4.9666 5.2666
540.114 5.3766 4.4366 2.6466 1.4766 0.9939 0.8017 0.8122 0.9093 0.9136 0.8308
578.693 0.736 0.6647 0.4302 0.2828 0.3342 0.4708 0.6105 0.7935 1.0078 1.2866
617.273 1.6066 2.1166 2.9066 4.7466 8.7566 14.2366 18.8666 22.5566 24.4666 21.6066
655.852 15.9566 11.0466 6.8366 3.5966 1.9166 1.3366 1.1366 1.1666 1.2466 1.5666
694.432 1.9266 2.2866 2.6666 3.4866 4.6066 7.5366 13.5366 25.2566 42.3366 62.8266
733.011 79.5666 107.327 134.507 108.247 78.6966 63.6766 42.4766 24.7066 12.9866 7.4766
771.591 4.8666 3.9966 3.6966 3.6866 3.5766 3.4666 3.0966 2.7766 2.4266 2.1866
810.170 2.2266 2.4566 2.4866 2.4466 2.1566 1.7466 1.4966 1.4066 1.3066 1.2866
848.750 1.3566 1.6266 1.8966 1.9766 1.8466 1.6366 1.3466 1.0966 1.0087 0.9954
887.330 1.0426 1.1666 1.3466 1.5166 1.6666 1.8766 2.0966 2.2066 2.2266 2.2366
925.909 2.1766 2.0866 1.9966 1.8866 1.8366 1.9466 2.1566 2.4566 2.7466 3.1066
964.489 3.7166 4.8366 6.8366 9.5466 11.9466 13.2066 13.4766 13.3366 14.2366 19.9166
1003.068 35.9966 63.2366 89.0766 101.327 103.047 88.0566 53.2766 25.8966 17.3866 15.2766
1041.648 14.1466 12.7866 11.5766 10.0066 7.7566 5.8166 4.6266 3.9566 3.4866 3.1066
1080.227 2.6166 2.1166 1.8466 1.7666 1.6866 1.6166 1.6666 1.6466 1.6166 1.6566
1118.807 1.8266 2.0266 2.0866 2.0266 2.0166 2.0766 1.9566 1.8166 1.8066 1.8066
1157.387 1.7366 1.6566 1.5366 1.4166 1.3766 1.2766 1.2366 1.3366 1.4666 1.6666
1195.966 2.0166 2.2566 2.2566 2.1966 1.9466 1.5566 1.3366 1.2766 1.1866 1.1266
1234.546 1.1566 1.2366 1.3466 1.5466 1.8866 2.3366 2.8666 3.4566 4.2766 4.9766
1273.125 4.9066 4.6466 4.4566 3.6866 2.7366 2.1066 1.7366 1.5166 1.4066 1.3466
1311.705 1.3066 1.3466 1.4066 1.4866 1.6166 1.7866 2.0666 2.4166 2.6566 2.7166
1350.284 2.6666 2.5466 2.4066 2.4566 2.8266 3.5566 4.7566 6.5066 8.1566 9.2166
1388.864 10.4166 10.6466 9.3766 8.2266 7.7166 8.0366 9.6466 12.6366 16.4766 20.2866
1427.443 23.6966 26.1466 27.4566 28.9766 31.8866 36.8966 43.5466 49.0166 52.8166 57.2766
1466.023 61.8166 62.0066 56.3866 49.7666 40.9666 27.4866 16.1966 10.4966 7.6966 6.0766
1504.603 5.1166 4.4766 4.0166 3.6766 3.4466 3.2866 3.1766 3.1966 3.4066 3.8966
1543.182 4.8866 6.6466 9.6166 13.7266 18.0766 21.1666 22.4466 22.2866 20.7866 19.1266
1581.762 18.6966 18.3866 16.7266 14.1366 11.0666 7.6566 5.0066 3.4966 2.6566 2.1566
1620.341 1.8366 1.6166 1.4666 1.3966 1.3366 1.2766 1.2966 1.3966 1.6166 1.9166
1658.921 2.3466 2.9166 3.4866 3.8066 3.7566 3.3966 2.8566 2.2566 1.8466 1.7366
1697.500 1.7666 1.7966 1.7366 1.6166 1.4366 1.2166 1.0027 0.8366 0.7357 0.6783
1736.080 0.6311 0.5892 0.5802 0.5782 0.5841 0.6464 0.7993 1.0562 1.4266 1.9366
1774.659 2.4966 2.9266 3.1266 3.0866 2.8366 2.4566 2.0966 1.8866 1.9066 2.1266
1813.239 2.3966 2.5666 2.5366 2.3466 1.9866 1.4966 1.0683 0.828 0.7484 0.7797
1851.819 0.9205 1.1566 1.4266 1.6766 1.8366 1.8866 1.8966 1.9066 1.9866 2.2566
1890.398 2.7966 3.4566 4.0066 4.2666 4.1766 3.7766 3.1766 2.5466 2.1366 2.1166
1928.978 2.4066 2.8766 3.2766 3.3766 3.1366 2.6366 1.9566 1.2766 0.855 0.6612
1967.557 0.567 0.5224 0.4997 0.4897 0.5032 0.5318 0.5536 0.548 0.5228 0.5066
2006.137 0.4958 0.4847 0.5174 0.6108 0.7068 0.787 0.8331 0.8252 0.741 0.5725
2044.716 0.4176 0.3506 0.376 0.409 0.4065 0.4233 0.4189 0.3683 0.325 0.2961
2083.296 0.2588 0.2232 0.2017 0.1661 0.1455 0.1431 0.12358 0.15008 0.17492 0.1789
2121.875 0.1995 0.209 0.2135 0.1849 0.17069 0.15888 0.13443 0.12751 0.12915 0.15192
2160.455 0.18 0.2239 0.2862 0.3277 0.3449 0.3725 0.3695 0.3212 0.2525 0.2179
2199.035 0.2228 0.2096 0.202 0.17478 0.15672 0.16727 0.17645 0.1816 0.2003 0.2431
2237.614 0.2696 0.3223 0.3572 0.3754 0.4036 0.415 0.4532 0.4621 0.4566 0.4624
2276.194 0.4706 0.4592 0.4477 0.4626 0.4561 0.4676 0.4929 0.5413 0.6435 0.8021
2314.773 0.9655 1.0426 1.0491 0.9887 0.7939 0.562 0.4119 0.305 0.2635 0.2574
2353.353 0.2818 0.3489 0.3834 0.3902 0.3942 0.3914 0.3881 0.4007 0.393 0.4025
2391.932 0.4348 0.4423 0.4628 0.5058 0.5372 0.5556 0.6074 0.6618 0.703 0.7662
2430.512 0.8173 0.8223 0.7909 0.7212 0.6292 0.5584 0.4938 0.4312 0.4187 0.4348
2469.092 0.4634 0.4976 0.4952 0.4714 0.457 0.44 0.4109 0.3737 0.3464 0.3127
2507.671 0.3223 0.3965 0.4648 0.5249 0.5885 0.6644 0.7429 0.8068 0.8358 0.8535
2546.251 0.8385 0.8145 0.8177 0.8223 0.8534 0.918 1.0618 1.2466 1.3766 1.4166
2584.830 1.3966 1.3366 1.2566 1.1666 1.0463 0.91 0.7607 0.6248 0.5027 0.3823
2623.410 0.286 0.2427 0.2186 0.2121 0.232 0.2306 0.2203 0.2161 0.2213 0.2272
2661.989 0.2276 0.2187 0.2076 0.2084 0.17536 0.16947 0.1972 0.2138 0.2394 0.2595
2700.569 0.2609 0.2679 0.2993 0.3167 0.3589 0.412 0.4501 0.5289 0.6345 0.7691
2739.148 0.9296 1.1266 1.2266 1.2066 1.1966 1.058 0.8172 0.624 0.4896 0.4352
2777.728 0.4359 0.4547 0.4559 0.4803 0.576 0.6859 0.7846 0.8899 0.9998 1.1566
2816.308 1.3566 1.5366 1.7366 1.9966 2.3066 2.6266 2.9866 3.4666 3.9866 4.5766
2854.887 5.2466 5.9966 6.7466 7.3466 7.7266 7.8966 7.8566 7.5766 7.2466 7.0066
2893.467 6.9566 7.0666 7.3966 8.0166 8.9466 10.2766 12.1966 14.6666 17.4566 19.9366
2932.046 21.2166 21.3966 21.0466 19.7866 17.8866 16.4066 15.6966 15.9666 16.4566 16.5166
2970.626 17.1966 18.7466 20.6366 21.5366 21.1766 20.4466 18.8066 16.8066 15.9666 16.3266
3009.205 17.0666 17.3766 17.0166 16.1866 14.9366 13.5466 12.8066 13.1266 14.6866 17.7566
3047.785 22.2966 27.8466 34.1666 41.4666 48.5666 52.7266 52.1666 47.5466 39.7266 29.2266
3086.364 20.3766 15.6766 12.3866 9.4166 7.2566 5.8466 5.0466 4.5866 4.3466 4.1866
3124.944 3.9366 3.6066 3.1366 2.6266 2.1566 1.7566 1.4166 1.1666 1.0586 0.9696
3163.524 0.8813 0.8451 0.837 0.818 0.7798 0.7398 0.6555 0.5427 0.4838 0.4526
3202.103 0.3758 0.2856 0.2495 0.2169 0.16547 0.12719 0.13751 0.11557 0.084594 0.077636
3240.683 0.0464 0.07188 0.12206 0.14545 0.1803 0.1917 0.1839 0.16076 0.12616 0.14799
3279.262 0.14334 0.13936 0.14905 0.10484 0.07054 0.07382 0.0598 0.0182 0.0214 0.0421
3317.842 0.0916 0.13815 0.09192 0.079199 0.09792 0.08464 0.10309 0.09712 0.083414 0.081736
3356.421 0.0921 0.084874 0.07483 0.0485 0.0567 0.09395 0.10272 0.13659 0.12763 0.10911
3395.001 0.11936 0.10515 0.079428 0.0599 0.0444 0.0394 0.0225 0.0304 0.082763 0.10419
3433.580 0.10143 0.13205 0.11107 0.07001 0.06905 0.10029 0.12217 0.13631 0.14038 0.10802
3472.160 0.08975 0.10135 0.10018 0.1002 0.1205 0.06889 0.0277 0.0443 0.0649 0.0488
3510.740 0.0341 0.0108 0 0.0665 0.07322 0.0762 0.11707 0.12331 0.11909 0.12606
3549.319 0.10973 0.11677 0.1421 0.1491 0.10459 0.075906 0.11212 0.083444 0.076227 0.0964
3587.899 0.12221 0.1952 0.1945 0.13693 0.11424 0.12293 0.13301 0.09541 0.075776 0.14452
3626.478 0.1832 0.09799 0.0579 0.09523 0.12072 0.1564 0.2108 0.2039 0.2138 0.2623
3665.058 0.2104 0.16987 0.1869 0.16733 0.17568 0.15296 0.09475 0.10294 0.1532 0.198
3703.637 0.2168 0.285 0.3318 0.3962 0.4748 0.5166 0.4739 0.3859 0.3733 0.3072
3742.217 0.2474 0.2456 0.2216 0.14824 0.10661 0.11938 0.11873 0.09984 0.11507 0.12538
3780.797 0.15496 0.1953 0.1949 0.2305 0.2356 0.2327 0.247 0.2653 0.2289 0.16661
3819.376 0.1883 0.211 0.2315 0.2531 0.2794 0.3554 0.4305 0.4959 0.6329 0.7504
3857.956 0.7888 0.8417 0.8468 0.729 0.5896 0.4997 0.3941 0.3233 0.2838 0.2523
3896.535 0.2233 0.2086 0.2208 0.2513 0.2189 0.1645 0.2098 0.2731 0.3145 0.3224
3935.115 0.2777 0.2701 0.3078 0.2858 0.297 0.3183 0.3914 0.4351 0.4063 0.4193
3973.694 0.3559 0.3402 0.3035 0.2523 0.3033 0.2642 0.2705 0.356
##END=
