##TITLE=2-methylbenzimidazole
##JCAMP-DX=4.24
##DATA TYPE=INFRARED SPECTRUM
##ORIGIN=EPA-IR VAPOR PHASE LIBRARY
##OWNER=SRD/NIST
Collection (C) 2018 copyright by the U.S. Secretary of Commerce
on behalf of the United States of America. All rights reserved.
##CAS REGISTRY NO=615-15-6
##MOLFORM=C 8 H 8 N 2
##$NIST SOURCE=MSDC-IR
##STATE=gas
##XUNITS=1/CM
##YUNITS=ABSORBANCE
##XFACTOR=1.
##YFACTOR=0.001
##DELTAX=1.92898
##FIRSTX=549.8
##LASTX=4000.7
##FIRSTY=0.34429
##MAXX=4000.7
##MINX=549.759
##MAXY=0.013008
##MINY=0
##NPOINTS=1790
##XYDATA=(X++(Y..Y))
549.759 0.34429 0.28865 0.39626 0.6525 0.5494 0.9291 1.0191 0.6707 0.5104 0.37539
569.049 0.4748 0.6441 0.6427 0.7092 0.9536 0.9161 0.784 0.6441 0.4314 0.4911
588.339 0.5152 0.33704 0.28959 0.2594 0.2143 0.2808 0.2785 0.301295 0.4283 0.3999
607.628 0.4215 0.5967 0.5161 0.5667 0.5734 0.297306 0.2507 0.151 0.2369 0.4307
626.918 0.34933 0.37017 0.36583 0.4085 0.4871 0.4186 0.5783 0.7097 0.6775 0.7323
646.208 0.888 1.0126 1.0051 0.9173 0.9561 1.0637 1.328 1.508 1.418 1.2026
665.498 1.0116 1.0683 1.0099 0.8289 0.8666 1.0015 0.8328 0.6359 0.456 0.34946
684.787 0.35061 0.39331 0.36847 0.2626 0.306742 0.32309 0.35424 0.31402 0.236 0.38597
704.077 0.6238 0.7589 0.9036 1.2096 1.558 1.848 2.208 2.698 3.308 4.028
723.367 4.688 5.198 5.568 5.878 6.268 7.518 10.508 13.008 10.698 7.428
742.657 6.918 6.838 6.678 6.418 5.798 5.048 4.258 3.578 3.008 2.508
761.947 2.198 1.888 1.628 1.348 1.174 1.1681 1.1181 0.9512 0.8061 0.6556
781.236 0.61 0.6342 0.4936 0.38007 0.38903 0.39103 0.4768 0.5346 0.37364 0.31122
800.526 0.4806 0.6489 0.634 0.5519 0.5524 0.666 0.6986 0.7467 0.9903 1.1728
819.816 1.318 1.2845 1.378 1.518 1.498 1.478 1.518 1.558 1.488 1.428
839.106 1.2918 1.2506 1.418 1.548 1.688 2.048 2.298 2.588 3.028 3.258
858.395 3.468 3.718 3.848 3.978 3.958 3.938 3.958 3.868 3.758 3.438
877.685 3.158 2.938 2.598 2.248 2.088 2.008 1.818 1.878 1.968 1.838
896.975 1.628 1.608 1.558 1.468 1.438 1.408 1.368 1.2313 1.2229 1.1341
916.265 0.9897 1.0107 0.9031 0.8007 0.6683 0.5933 0.5603 0.4235 0.5295 0.5719
935.555 0.5046 0.4892 0.453 0.4572 0.4708 0.4406 0.35312 0.35363 0.4156 0.4263
954.844 0.4459 0.4163 0.4554 0.6611 0.6237 0.5885 0.6284 0.6421 0.6927 0.66
974.134 0.8053 0.8123 0.7308 0.8227 0.7623 0.6494 0.7083 0.7659 0.6472 0.7818
993.424 0.9834 0.8891 0.8907 1.0155 1.0784 0.9998 1.0262 1.0883 1.2086 1.528
1012.714 1.558 1.308 1.161 1.0445 1.061 1.2317 1.298 1.0525 0.761 0.7078
1032.003 0.6619 0.4715 0.4209 0.5186 0.5633 0.6234 0.5523 0.5133 0.4284 0.4052
1051.293 0.4963 0.5253 0.5491 0.39359 0.33072 0.38175 0.4486 0.4265 0.36162 0.4411
1070.583 0.623 0.5823 0.4795 0.37683 0.34112 0.5139 0.2759 0.125 0.4191 0.5507
1089.873 0.4408 0.4648 0.5802 0.4372 0.35971 0.2146 0.2737 0.6931 0.8428 0.7188
1109.163 0.38185 0.2448 0.151 0 0.3453 0.5744 0.5947 0.6494 0.4835 0.4643
1128.452 0.459 0.37643 0.39664 0.3986 0.5173 0.535 0.4541 0.535 0.7013 0.7152
1147.742 0.6347 0.5428 0.38432 0.5311 0.4934 0.4207 0.5858 0.6045 0.5103 0.4892
1167.032 0.5539 0.706 0.7807 0.7317 0.8092 0.8789 0.8836 0.9308 1.0751 1.184
1186.322 1.2188 1.2311 1.2636 1.22 1.0869 0.9087 1.155 1.203 1.0509 1.037
1205.611 1.0444 1.2357 1.193 1.2942 1.2405 0.9987 0.9935 1.2802 1.528 1.488
1224.901 1.2727 1.2672 1.2596 1.2403 1.398 1.388 1.438 1.588 1.708 1.708
1244.191 1.708 1.938 2.508 3.358 4.388 5.568 7.008 8.258 8.878 9.188
1263.481 9.448 9.578 9.468 9.218 8.728 7.568 5.778 3.928 2.508 1.698
1282.771 1.2275 1.0568 1.0233 0.9002 0.9408 0.9525 0.8816 0.9495 1.0167 1.0188
1302.060 1.0039 1.0083 1.0262 1.1008 1.149 1.1495 1.1884 1.2392 1.298 1.368
1321.350 1.458 1.558 1.668 1.818 1.928 1.968 2.008 2.148 2.288 2.398
1340.640 2.578 2.748 2.878 2.958 2.928 2.838 2.828 2.858 2.898 2.948
1359.930 2.908 2.868 2.848 2.868 2.898 2.988 3.168 3.378 3.618 3.958
1379.219 4.388 4.848 5.368 5.938 6.468 7.028 7.498 7.798 8.048 8.228
1398.509 8.358 8.448 8.368 8.098 7.698 7.158 6.618 6.038 5.438 4.888
1417.799 4.348 3.788 3.258 2.878 2.668 2.548 2.518 2.628 2.918 3.368
1437.089 3.898 4.538 5.238 5.968 6.628 7.118 7.288 7.238 7.048 6.728
1456.378 6.338 5.888 5.258 4.358 3.398 2.588 2.048 1.658 1.438 1.348
1475.668 1.2936 1.2394 1.19 1.1557 1.097 1.0322 1.0068 0.9827 0.9417 0.8994
1494.958 0.8885 0.8609 0.8339 0.8177 0.7964 0.849 0.9174 0.8984 0.8783 0.9611
1514.248 1.08 1.1332 1.1748 1.308 1.448 1.598 1.808 2.048 2.418 2.848
1533.538 3.338 3.988 4.608 5.258 5.938 6.458 6.708 6.838 6.918 6.898
1552.827 6.738 6.378 5.898 5.268 4.468 3.738 3.128 2.718 2.428 2.158
1572.117 1.948 1.748 1.558 1.458 1.398 1.378 1.368 1.2824 1.1727 1.1053
1591.407 0.9926 0.896 0.914 0.9306 0.9228 0.9741 1.0177 1.0517 1.1132 1.1842
1610.697 1.2438 1.338 1.448 1.558 1.668 1.718 1.688 1.668 1.598 1.518
1629.986 1.498 1.438 1.298 1.152 0.9874 0.8787 0.8015 0.7946 0.8382 0.877
1649.276 0.8695 0.8298 0.8657 0.8529 0.8108 0.8282 0.8284 0.8464 0.8506 0.8011
1668.566 0.7322 0.6233 0.5817 0.578 0.6204 0.6389 0.593 0.5727 0.6076 0.6632
1687.856 0.6008 0.569 0.602 0.5811 0.5656 0.5496 0.5326 0.5272 0.5313 0.5266
1707.146 0.5458 0.5483 0.5344 0.5248 0.516 0.5406 0.4853 0.4709 0.5339 0.5169
1726.435 0.4933 0.4754 0.4882 0.526 0.513 0.494 0.4588 0.4634 0.5223 0.5595
1745.725 0.5535 0.5877 0.6418 0.6787 0.6761 0.658 0.6968 0.7201 0.6534 0.6055
1765.015 0.6692 0.6351 0.5563 0.5793 0.5533 0.5052 0.4953 0.4811 0.4685 0.4213
1784.305 0.39041 0.4402 0.4498 0.4279 0.448 0.5323 0.5719 0.5718 0.5307 0.4993
1803.594 0.5166 0.5081 0.5055 0.4556 0.4193 0.39018 0.36527 0.3937 0.4236 0.4097
1822.884 0.38662 0.39543 0.4327 0.4528 0.445 0.4392 0.4713 0.5129 0.4868 0.4683
1842.174 0.4587 0.4465 0.5055 0.514 0.4877 0.5197 0.4983 0.4219 0.4305 0.4924
1861.464 0.4665 0.4883 0.5823 0.6096 0.6301 0.6251 0.6244 0.635 0.6359 0.6403
1880.754 0.61 0.5859 0.6052 0.6262 0.5709 0.5111 0.493 0.4762 0.4866 0.4711
1900.043 0.4276 0.37397 0.395 0.4731 0.5168 0.513 0.5699 0.639 0.6179 0.6227
1919.333 0.6343 0.6358 0.5732 0.5388 0.5143 0.4799 0.4384 0.34046 0.3429 0.36448
1938.623 0.32957 0.30863 0.32806 0.35268 0.33558 0.33011 0.32132 0.32117 0.32226 0.302471
1957.913 0.33345 0.31792 0.32531 0.36565 0.31533 0.35034 0.35271 0.32467 0.36884 0.35649
1977.202 0.3513 0.34745 0.307038 0.2957 0.29174 0.31831 0.33484 0.2512 0.2411 0.32157
1996.492 0.33967 0.30815 0.33096 0.34406 0.29614 0.2836 0.302744 0.304289 0.34015 0.38819
2015.782 0.39568 0.415 0.38714 0.34919 0.37053 0.37367 0.33637 0.34393 0.38379 0.37055
2035.072 0.37523 0.39084 0.38881 0.35452 0.35641 0.35765 0.31488 0.31714 0.34203 0.34192
2054.362 0.3194 0.305627 0.31665 0.36633 0.38829 0.35968 0.31173 0.34613 0.3968 0.37261
2073.651 0.37943 0.405 0.4122 0.39223 0.35062 0.32266 0.303049 0.31001 0.303164 0.2799
2092.941 0.303164 0.38603 0.4163 0.36442 0.32737 0.30922 0.31064 0.34928 0.37818 0.37773
2112.231 0.35883 0.31085 0.32345 0.3698 0.38434 0.38123 0.38791 0.4225 0.4011 0.34119
2131.521 0.31267 0.31769 0.303859 0.29063 0.31204 0.31847 0.326 0.32987 0.32619 0.34538
2150.810 0.35692 0.34301 0.35895 0.37017 0.35714 0.33261 0.29325 0.2443 0.2454 0.2872
2170.100 0.31105 0.32103 0.2845 0.2124 0.2348 0.29491 0.303869 0.33934 0.31074 0.3022
2189.390 0.33023 0.307207 0.299929 0.29645 0.2627 0.2751 0.33048 0.33957 0.34536 0.36687
2208.680 0.38366 0.39112 0.4104 0.39792 0.34337 0.2798 0.2858 0.36073 0.33671 0.31786
2227.970 0.34061 0.307574 0.29572 0.29094 0.2821 0.29042 0.2869 0.265 0.2508 0.2226
2247.259 0.2428 0.31878 0.38424 0.38071 0.302167 0.305985 0.34253 0.34157 0.37224 0.3397
2266.549 0.2714 0.303702 0.37501 0.39133 0.39382 0.4256 0.4202 0.4017 0.4041 0.39031
2285.839 0.37356 0.4172 0.38725 0.33076 0.34364 0.36354 0.4128 0.39558 0.2839 0.2287
2305.129 0.2489 0.2835 0.2764 0.29062 0.32865 0.36166 0.38482 0.34424 0.31787 0.34222
2324.418 0.34353 0.34906 0.3987 0.39386 0.33235 0.33204 0.36688 0.37029 0.38188 0.38807
2343.708 0.34136 0.37065 0.4332 0.3914 0.34614 0.38257 0.4258 0.4229 0.4423 0.4266
2362.998 0.4027 0.4116 0.4402 0.4337 0.4118 0.4428 0.4494 0.38249 0.39753 0.4084
2382.288 0.36656 0.37443 0.35942 0.4191 0.482 0.419 0.3692 0.38063 0.4018 0.4186
2401.578 0.39412 0.38994 0.4452 0.4376 0.37809 0.3626 0.3789 0.4232 0.4227 0.39249
2420.867 0.4489 0.467 0.39279 0.2517 0.2233 0.299993 0.32131 0.36894 0.4486 0.4088
2440.157 0.35935 0.3914 0.38869 0.431 0.445 0.4581 0.4277 0.35792 0.34335 0.35193
2459.447 0.39341 0.36403 0.34878 0.38048 0.4048 0.37291 0.302791 0.33421 0.401 0.4205
2478.737 0.4182 0.4095 0.4071 0.37789 0.36689 0.4078 0.4311 0.4381 0.4339 0.38762
2498.026 0.37588 0.4186 0.37283 0.35495 0.4248 0.4266 0.4032 0.4313 0.4514 0.4023
2517.316 0.34959 0.36563 0.4337 0.4728 0.4888 0.4981 0.4429 0.4154 0.35757 0.35237
2536.606 0.4277 0.3925 0.3354 0.37524 0.4417 0.4852 0.4456 0.4307 0.4944 0.457
2555.896 0.5146 0.555 0.5727 0.5996 0.4733 0.4374 0.5102 0.5505 0.5112 0.4718
2575.186 0.4457 0.4639 0.5219 0.5041 0.4677 0.4764 0.4531 0.4342 0.4277 0.4949
2594.475 0.5185 0.4428 0.4945 0.4709 0.4448 0.4658 0.4363 0.3988 0.4018 0.4246
2613.765 0.4122 0.4156 0.4458 0.367 0.29422 0.35631 0.34038 0.301142 0.306843 0.299267
2633.055 0.248 0.2589 0.36738 0.4114 0.37149 0.37747 0.3944 0.37841 0.36206 0.38227
2652.345 0.4107 0.36808 0.37181 0.37493 0.39781 0.4316 0.4226 0.37141 0.32045 0.32999
2671.634 0.36838 0.4131 0.37579 0.37682 0.3408 0.31449 0.33599 0.34372 0.408 0.4351
2690.924 0.35398 0.32443 0.39088 0.4136 0.4468 0.39374 0.33741 0.281 0.303451 0.4065
2710.214 0.33683 0.300643 0.2824 0.2546 0.2716 0.2423 0.2879 0.36664 0.35777 0.37459
2729.504 0.4331 0.3916 0.36239 0.3986 0.38161 0.4104 0.4132 0.4434 0.4847 0.4475
2748.794 0.4 0.34452 0.38343 0.38773 0.33909 0.34423 0.297815 0.35232 0.39147 0.35317
2768.083 0.3767 0.403 0.5138 0.5396 0.4566 0.32697 0.2108 0.2405 0.37812 0.5027
2787.373 0.4886 0.4486 0.4786 0.4167 0.3653 0.4281 0.4185 0.4516 0.4688 0.4283
2806.663 0.4596 0.487 0.4804 0.4071 0.35904 0.32301 0.36244 0.4042 0.4155 0.427
2825.953 0.4328 0.4568 0.4649 0.5095 0.4955 0.4984 0.5498 0.4606 0.4169 0.5311
2845.242 0.5344 0.5075 0.5245 0.5058 0.4627 0.4682 0.5077 0.5792 0.6742 0.7182
2864.532 0.7198 0.7088 0.7461 0.7907 0.7991 0.8894 0.8815 0.8312 0.8472 0.8589
2883.822 0.9565 1.0683 1.0893 1.0218 0.9149 0.8399 0.8262 0.8727 0.9399 0.9458
2903.112 0.9835 1.0217 1.0738 1.1624 1.1993 1.267 1.368 1.338 1.398 1.558
2922.401 1.518 1.618 1.848 1.878 1.938 2.078 2.098 2.208 2.248 2.188
2941.691 2.208 2.228 2.208 2.088 1.948 1.828 1.748 1.638 1.488 1.378
2960.981 1.368 1.338 1.2901 1.2458 1.0695 1.0621 1.0008 0.9495 1.0647 1.0105
2980.271 0.8699 0.8048 0.7985 0.7646 0.6805 0.7191 0.7275 0.6878 0.69 0.6557
2999.561 0.6939 0.7098 0.7476 0.722 0.7716 0.7353 0.6841 0.8074 0.85 0.9481
3018.850 0.9862 1.0033 1.09 1.1791 1.2339 1.2333 1.2857 1.538 1.868 1.958
3038.140 1.908 2.088 2.318 2.438 2.528 2.558 2.718 2.858 2.968 3.188
3057.430 3.318 3.428 3.668 4.008 4.308 4.458 4.568 4.568 4.388 4.098
3076.720 3.958 3.898 3.738 3.438 2.948 2.558 2.248 1.998 1.878 1.768
3096.009 1.688 1.538 1.468 1.438 1.2373 1.0506 0.9731 0.9074 0.7201 0.5042
3115.299 0.4192 0.5416 0.5625 0.4921 0.4505 0.31717 0.2618 0.29567 0.2548 0.272
3134.589 0.412 0.3583 0.2862 0.28928 0.2871 0.34695 0.37291 0.4073 0.38014 0.34967
3153.879 0.2931 0.2185 0.2467 0.29107 0.30838 0.35203 0.39477 0.33476 0.2276 0.2684
3173.169 0.38064 0.298653 0.189 0.2875 0.39174 0.37695 0.4424 0.5252 0.4523 0.34003
3192.458 0.32605 0.33833 0.2219 0.1989 0.33799 0.32546 0.33753 0.4084 0.38002 0.33738
3211.748 0.29154 0.253 0.2165 0.2215 0.2397 0.2656 0.4042 0.4508 0.2739 0.124
3231.038 0.183 0.235 0.2507 0.2384 0.166 0.26 0.39627 0.4037 0.33114 0.31551
3250.328 0.35748 0.4148 0.37232 0.30833 0.2568 0.33161 0.4447 0.36342 0.30822 0.2712
3269.617 0.2285 0.2228 0.2489 0.34692 0.31619 0.2816 0.277 0.2377 0.34154 0.36433
3288.907 0.307478 0.32623 0.305533 0.30896 0.36516 0.39199 0.37858 0.37076 0.4444 0.4192
3308.197 0.30613 0.35231 0.36886 0.2736 0.2805 0.298056 0.2212 0.183 0.2083 0.307622
3327.487 0.2855 0.2438 0.2605 0.2204 0.300814 0.34091 0.37367 0.36949 0.2207 0.2457
3346.777 0.33527 0.2769 0.35801 0.37525 0.2445 0.2577 0.2903 0.38834 0.4366 0.4291
3366.066 0.35888 0.2169 0.2156 0.306274 0.4045 0.3997 0.2239 0.118 0.17 0.183
3385.356 0.2631 0.34429 0.3196 0.29336 0.2611 0.2737 0.31068 0.2465 0.175 0.156
3404.646 0.2138 0.408 0.4722 0.39257 0.2798 0.35212 0.4966 0.4307 0.37212 0.39784
3423.936 0.5225 0.5574 0.4622 0.4236 0.4988 0.5674 0.5434 0.4601 0.4502 0.5163
3443.225 0.4882 0.4731 0.5625 0.5822 0.5865 0.6911 0.7964 0.848 0.9141 0.8787
3462.515 0.7876 0.9611 1.093 1.2158 1.418 1.438 1.498 1.808 2.008 1.988
3481.805 2.248 2.488 2.648 2.828 3.098 3.608 3.988 4.448 4.948 5.208
3501.095 5.218 5.028 4.778 4.548 4.458 4.428 4.398 4.168 3.608 2.958
3520.385 2.368 1.858 1.488 1.2523 1.2077 1.0915 0.933 0.7116 0.5303 0.4872
3539.674 0.4841 0.5119 0.4985 0.5576 0.558 0.4255 0.34785 0.4034 0.35554 0.31017
3558.964 0.31609 0.30014 0.4039 0.36783 0.2225 0.2194 0.2662 0.37164 0.38502 0.2724
3578.254 0.2313 0.2477 0.2309 0.2471 0.4093 0.469 0.39036 0.31378 0.38032 0.4235
3597.544 0.33743 0.39484 0.37462 0.3279 0.393 0.4344 0.4292 0.38135 0.37492 0.4219
3616.833 0.4581 0.36216 0.35239 0.38862 0.305511 0.36455 0.4489 0.4624 0.4258 0.281
3636.123 0.32263 0.5013 0.549 0.4739 0.36472 0.2564 0.31748 0.38399 0.31644 0.188
3655.413 0.2781 0.5726 0.5128 0.304574 0.31917 0.32007 0.2806 0.36041 0.4346 0.5095
3674.703 0.5429 0.37657 0.2138 0.2647 0.34109 0.36273 0.4469 0.5455 0.3997 0.187
3693.993 0.167 0.3091 0.5396 0.4658 0.39731 0.3723 0.4091 0.5827 0.4771 0.4278
3713.282 0.4491 0.5077 0.38721 0.36896 0.4058 0.2449 0.2132 0.2509 0.30867 0.4049
3732.572 0.4087 0.34101 0.28911 0.36595 0.39069 0.34042 0.35261 0.195 0.065 0.148
3751.862 0.3155 0.36179 0.4277 0.3515 0.2506 0.2717 0.302219 0.31764 0.226 0.22
3771.152 0.32656 0.38208 0.38311 0.37098 0.37254 0.3986 0.4221 0.31264 0.30625 0.38102
3790.441 0.38864 0.33906 0.299844 0.32031 0.195 0.2111 0.37266 0.4165 0.3599 0.281
3809.731 0.2267 0.151 0.2094 0.327 0.39654 0.37301 0.2751 0.193 0.2383 0.4099
3829.021 0.38229 0.37352 0.4557 0.37768 0.4355 0.519 0.37805 0.34296 0.39402 0.4027
3848.311 0.232 0.185 0.298675 0.28844 0.37319 0.467 0.4686 0.4848 0.591 0.6031
3867.601 0.5109 0.4853 0.4131 0.39225 0.4078 0.401 0.35197 0.35191 0.4674 0.4211
3886.890 0.2513 0.2867 0.303381 0.2664 0.402 0.412 0.3248 0.4637 0.5065 0.37732
3906.180 0.36143 0.2746 0.2744 0.4562 0.5169 0.4535 0.38928 0.35999 0.305933 0.2725
3925.470 0.39531 0.5048 0.5787 0.4937 0.4581 0.4579 0.2551 0.297389 0.38409 0.29509
3944.760 0.412 0.4869 0.375 0.449 0.474 0.32951 0.36969 0.3976 0.4059 0.298954
3964.049 0.2746 0.38739 0.2512 0.2599 0.38571 0.4109 0.32865 0.33912 0.5239 0.4617
3983.339 0.4575 0.5445 0.4958 0.4511 0.4093 0.4929 0.5415 0.5903 0.5042 0.36105
##END=
