##TITLE=4,4'-Diphenyl-2,2'-bipyridine
##JCAMP-DX=4.24
##DATA TYPE=INFRARED SPECTRUM
##ORIGIN=EPA-IR VAPOR PHASE LIBRARY
##OWNER=SRD/NIST
Collection (C) 2018 copyright by the U.S. Secretary of Commerce
on behalf of the United States of America. All rights reserved.
##CAS REGISTRY NO=6153-92-0
##MOLFORM=C 22 H 16 N 2
##$NIST SOURCE=MSDC-IR
##STATE=gas
##XUNITS=1/CM
##YUNITS=ABSORBANCE
##XFACTOR=1.
##YFACTOR=0.001
##DELTAX=3.85796
##FIRSTX=501.5
##LASTX=4000.7
##FIRSTY=0.20583
##MAXX=4000.7
##MINX=501.534
##MAXY=0.007469
##MINY=0
##NPOINTS=908
##XYDATA=(X++(Y..Y))
501.534 0.20583 0.20895 0.3018 0.3953 0.4364 0.2645 0.24453 0.3211 0.2925 0.2791
540.114 0.24188 0.22375 0.25039 0.24396 0.18229 0.1355 0.19747 0.21581 0.1348 0.058
578.693 0.0852 0.24058 0.3487 0.3262 0.3009 0.3652 0.387 0.4379 0.8294 1.999
617.273 2.709 1.699 0.682 0.4365 0.3522 0.3021 0.2643 0.2797 0.3066 0.2878
655.852 0.3136 0.3657 0.5269 0.8846 1.0919 1.0129 0.9452 1.0271 1.289 1.749
694.432 2.059 1.949 1.569 1.159 0.8477 0.7035 0.6219 0.5913 0.5811 0.5965
733.011 0.707 0.7912 0.8675 1.0087 1.379 2.049 2.859 3.229 2.619 1.669
771.591 1.0707 0.7297 0.537 0.4696 0.4203 0.3604 0.2805 0.23319 0.22996 0.244
810.170 0.23546 0.2417 0.2774 0.3437 0.4678 0.7086 1.0658 1.289 1.199 0.8465
848.750 0.4986 0.3558 0.3035 0.25518 0.21996 0.2096 0.25136 0.2864 0.2634 0.28
887.330 0.3321 0.4216 0.5135 0.5451 0.5539 0.4879 0.3797 0.292 0.2624 0.2622
925.909 0.23923 0.20885 0.18592 0.19236 0.15088 0.128 0.20172 0.2174 0.20207 0.2622
964.489 0.2791 0.24192 0.20268 0.20784 0.2628 0.295 0.3592 0.4099 0.3798 0.3408
1003.068 0.2997 0.2711 0.2605 0.22183 0.2693 0.33 0.2826 0.2614 0.2368 0.2805
1041.648 0.4439 0.6129 0.6067 0.3697 0.2999 0.4113 0.4667 0.5271 0.5953 0.5699
1080.227 0.4531 0.3869 0.3663 0.3686 0.3894 0.4401 0.4664 0.3952 0.3104 0.2626
1118.807 0.2687 0.22009 0.19624 0.21497 0.21783 0.17736 0.1312 0.1179 0.1219 0.1155
1157.387 0.1253 0.15777 0.161861 0.1429 0.1254 0.23656 0.3648 0.4168 0.3408 0.2545
1195.966 0.23999 0.25433 0.2684 0.20393 0.2171 0.2795 0.2936 0.366 0.375 0.3476
1234.546 0.3608 0.35 0.3564 0.3621 0.3132 0.2833 0.3309 0.4132 0.4383 0.414
1273.125 0.3936 0.3577 0.3223 0.3491 0.3672 0.373 0.4028 0.3843 0.3661 0.3799
1311.705 0.3749 0.3617 0.3644 0.375 0.3853 0.4128 0.4184 0.3989 0.405 0.5099
1350.284 0.7489 1.159 1.689 1.959 1.679 1.1559 0.7744 0.5784 0.4755 0.4006
1388.864 0.3494 0.3208 0.3017 0.2881 0.2819 0.3199 0.3403 0.3345 0.3484 0.3722
1427.443 0.4194 0.498 0.5702 0.6593 0.8351 1.118 1.649 2.349 2.599 1.919
1466.023 1.0721 0.6643 0.5185 0.4995 0.543 0.6447 0.849 1.056 1.1571 1.0914
1504.603 0.8524 0.6567 0.6092 0.5983 0.6522 0.804 1.0469 1.389 1.839 2.269
1543.182 2.369 2.059 1.639 1.399 1.329 1.479 1.739 2.159 2.859 4.049
1581.762 5.719 7.309 7.469 5.809 3.779 2.549 1.999 1.639 1.259 0.9061
1620.341 0.6804 0.5848 0.5289 0.4676 0.4042 0.3697 0.3392 0.3186 0.2803 0.2872
1658.921 0.3079 0.3063 0.3336 0.3394 0.3555 0.3648 0.316 0.2881 0.2802 0.24592
1697.500 0.20198 0.18657 0.21696 0.24019 0.23453 0.24119 0.2674 0.2653 0.2726 0.288
1736.080 0.2832 0.299 0.2877 0.2734 0.2835 0.2809 0.2759 0.2826 0.2871 0.25765
1774.659 0.25529 0.2751 0.2781 0.2883 0.3306 0.3874 0.4014 0.3799 0.3372 0.2921
1813.239 0.2818 0.2748 0.2698 0.25799 0.25006 0.25243 0.23823 0.22603 0.21524 0.21751
1851.819 0.2348 0.24692 0.25302 0.24542 0.23662 0.2662 0.299 0.2881 0.2937 0.3132
1890.398 0.2965 0.2825 0.2768 0.2742 0.2767 0.2877 0.3062 0.3197 0.3288 0.3229
1928.978 0.3056 0.3038 0.3128 0.3195 0.3231 0.3052 0.3048 0.3246 0.3199 0.2937
1967.557 0.25767 0.22823 0.20768 0.20411 0.19196 0.19177 0.19901 0.18956 0.18399 0.18561
2006.137 0.1847 0.18801 0.18988 0.1869 0.19947 0.19647 0.18128 0.17328 0.167453 0.17577
2044.716 0.18264 0.19708 0.21657 0.2032 0.18616 0.18852 0.19712 0.19554 0.18689 0.18331
2083.296 0.19169 0.19129 0.18601 0.18996 0.17565 0.165243 0.167894 0.16764 0.18102 0.17918
2121.875 0.17087 0.1726 0.18346 0.18075 0.163414 0.160182 0.15422 0.159403 0.167657 0.166225
2160.455 0.17877 0.19128 0.19283 0.19987 0.20436 0.19581 0.17967 0.19138 0.20569 0.17679
2199.035 0.15519 0.165063 0.20373 0.20739 0.17465 0.159088 0.17224 0.18673 0.17665 0.18484
2237.614 0.17419 0.167142 0.18034 0.18365 0.18026 0.17627 0.18039 0.17196 0.1745 0.17596
2276.194 0.18471 0.182 0.17255 0.17391 0.161925 0.17105 0.17497 0.159537 0.16922 0.17844
2314.773 0.18924 0.1935 0.163612 0.1371 0.1263 0.1333 0.1278 0.1411 0.168197 0.163802
2353.353 0.15595 0.1349 0.1143 0.1303 0.1384 0.1375 0.158833 0.17984 0.17513 0.16118
2391.932 0.17721 0.21046 0.20331 0.2007 0.20693 0.17563 0.15453 0.165332 0.16203 0.1424
2430.512 0.168759 0.1923 0.18016 0.18593 0.19416 0.17433 0.17085 0.19072 0.17557 0.162386
2469.092 0.16921 0.17296 0.17669 0.15503 0.1389 0.1415 0.1402 0.15505 0.17361 0.17195
2507.671 0.159773 0.17756 0.168268 0.1387 0.15125 0.16754 0.160545 0.14994 0.15542 0.1761
2546.251 0.17177 0.1463 0.1453 0.15449 0.1485 0.1348 0.1464 0.160906 0.1438 0.1392
2584.830 0.159857 0.163234 0.15354 0.17142 0.18279 0.17866 0.158919 0.15084 0.17716 0.16784
2623.410 0.164908 0.167736 0.18717 0.18536 0.18128 0.19608 0.19138 0.18311 0.15346 0.1441
2661.989 0.15252 0.15287 0.15236 0.162541 0.16074 0.15258 0.1386 0.148 0.16599 0.1469
2700.569 0.160161 0.17086 0.15815 0.159535 0.168227 0.162066 0.15126 0.1352 0.1293 0.15224
2739.148 0.1475 0.15782 0.172 0.160815 0.15347 0.16981 0.19304 0.17533 0.15566 0.14996
2777.728 0.15002 0.1467 0.16896 0.167249 0.15623 0.15164 0.1433 0.175 0.18142 0.18069
2816.308 0.19502 0.16899 0.159588 0.15686 0.1313 0.1386 0.15244 0.17096 0.17248 0.15263
2854.887 0.162041 0.168491 0.18537 0.16984 0.15494 0.18132 0.17056 0.17267 0.1707 0.18427
2893.467 0.20402 0.2012 0.22257 0.21937 0.19058 0.19006 0.1946 0.21558 0.22037 0.23353
2932.046 0.285 0.2908 0.2616 0.22543 0.2168 0.23727 0.24446 0.22937 0.21514 0.20702
2970.626 0.20555 0.20539 0.24667 0.2957 0.2998 0.2816 0.2853 0.3234 0.37 0.4295
3009.205 0.5004 0.6062 0.7622 0.9373 1.0862 1.199 1.279 1.349 1.359 1.269
3047.785 1.169 1.269 1.539 1.839 2.159 2.489 2.469 1.979 1.469 1.219
3086.364 1.15 1.078 0.9414 0.7655 0.628 0.5364 0.4717 0.4034 0.3311 0.2832
3124.944 0.23712 0.20075 0.22833 0.22625 0.2137 0.23068 0.21701 0.20644 0.19564 0.20548
3163.524 0.24152 0.2269 0.164787 0.1457 0.1415 0.1251 0.1306 0.1383 0.141 0.1485
3202.103 0.1206 0.0987 0.1299 0.15727 0.162173 0.17483 0.19746 0.17577 0.14909 0.1438
3240.683 0.17418 0.17287 0.15475 0.17584 0.1162 0.1063 0.15437 0.165747 0.17641 0.166497
3279.262 0.1485 0.1444 0.17388 0.15192 0.141 0.15703 0.1333 0.1406 0.16925 0.168614
3317.842 0.1462 0.0968 0.0833 0.0973 0.1085 0.1265 0.1155 0.1162 0.1428 0.1269
3356.421 0.1199 0.15022 0.1478 0.1467 0.1378 0.1432 0.15439 0.1458 0.1187 0.128
3395.001 0.17192 0.14953 0.1123 0.1136 0.1053 0.1018 0.1055 0.1258 0.17143 0.15112
3433.580 0.1144 0.092 0.0842 0.0891 0.0925 0.1282 0.1344 0.1177 0.1215 0.1187
3472.160 0.1212 0.129 0.1358 0.1422 0.1246 0.1381 0.1303 0.0938 0.1113 0.15327
3510.740 0.1336 0.1234 0.1122 0.1151 0.1259 0.082 0.0899 0.14969 0.19157 0.1877
3549.319 0.162008 0.128 0.0942 0.064 0.1043 0.1219 0.1279 0.14961 0.1353 0.15794
3587.899 0.15423 0.1465 0.1265 0.1291 0.1049 0.1032 0.1238 0.1335 0.17193 0.15707
3626.478 0.15082 0.1316 0.1058 0.081 0.122 0.1826 0.17651 0.152 0.15655 0.18936
3665.058 0.1543 0.1307 0.1402 0.1407 0.162651 0.1391 0.1217 0.1454 0.138 0.15007
3703.637 0.20401 0.160304 0.0961 0.161071 0.17963 0.1148 0.0911 0.1234 0.16137 0.1114
3742.217 0.041 0.004 0 0.052 0.1116 0.0991 0.0992 0.1107 0.0932 0.0882
3780.797 0.0618 0.0806 0.1059 0.1169 0.1432 0.0909 0.011 0.0759 0.1142 0.051
3819.376 0.045 0.123 0.1116 0.0806 0.0796 0.0677 0.1235 0.129 0.1122 0.0973
3857.956 0.0846 0.1232 0.1371 0.1102 0.1145 0.1544 0.1351 0.1345 0.1473 0.1074
3896.535 0.106 0.1063 0.101 0.0824 0.1067 0.1228 0.1364 0.15085 0.1224 0.1217
3935.115 0.15179 0.18936 0.19434 0.18196 0.167598 0.1339 0.1239 0.17045 0.20051 0.2083
3973.694 0.19927 0.16359 0.1228 0.079 0.1186 0.1376 0.0838 0.0905
##END=
