##TITLE=Benzylmalonic acid
##JCAMP-DX=4.24
##DATA TYPE=INFRARED SPECTRUM
##ORIGIN=NIST Mass Spectrometry Data Center
##OWNER=NIST Standard Reference Data Program
Collection (C) 2018 copyright by the U.S. Secretary of Commerce
on behalf of the United States of America. All rights reserved.
##CAS REGISTRY NO=616-75-1
##MOLFORM=C 10 H 10 O 4
##$NIST SOURCE=MSDC-IR
##SPECTROMETER/DATA SYSTEM=HP-GC/MS/IRD
##STATE=gas
##XUNITS=1/CM
##YUNITS=ABSORBANCE
##XFACTOR=1.0
##YFACTOR=0.000003600
##DELTAX=4.0
##FIRSTX=550.0
##LASTX=3846.0
##FIRSTY=0.005155
##MAXX=3846
##MINX=550
##MAXY=0.036
##MINY=0
##NPOINTS=825
##XYDATA=(X++(Y..Y))
550.0 1432 2792 2574 2505 2281 2108 1911 1758 1681 1611
590.0 1542 1487 1432 1416 1433 1464 1512 1547 1526 1504
630.0 1481 1425 1355 1258 1136 1022 929 858 861 1175
670.0 1277 1102 1210 1445 1726 2031 2283 2329 2160 1872
710.0 1562 1311 1147 1038 995 1009 1069 1154 1180 1152
750.0 1093 982 858 750 653 575 505 435 383 343
790.0 332 326 325 303 262 207 136 84 52 31
830.0 19 8 0 2 6 4 9 16 17 22
870.0 31 47 64 80 96 105 118 131 132 138
910.0 136 126 130 137 146 172 210 241 272 293
950.0 294 274 262 260 254 251 252 246 263 288
990.0 313 347 377 415 447 476 519 571 675 782
1030.0 830 827 784 704 672 715 817 977 1172 1365
1070.0 1537 1687 1809 1948 2146 2415 2795 3322 4002 4860
1110.0 5873 6862 7511 7623 7158 6213 5124 4214 3546 3077
1150.0 2710 2392 2133 1924 1766 1692 1676 1688 1708 1714
1190.0 1720 1692 1624 1529 1412 1301 1203 1113 1033 966
1230.0 905 868 844 815 791 796 817 825 833 843
1270.0 833 819 805 782 755 738 722 700 689 685
1310.0 675 672 670 674 680 687 704 737 784 848
1350.0 924 1012 1102 1198 1304 1410 1512 1585 1590 1507
1390.0 1337 1117 909 753 657 610 597 616 655 689
1430.0 717 749 778 808 844 851 825 756 647 515
1470.0 402 331 303 338 461 661 830 858 760 542
1510.0 295 163 115 97 85 76 70 73 73 65
1550.0 63 65 72 78 80 88 112 139 166 205
1590.0 256 327 405 447 434 368 269 171 107 79
1630.0 70 68 61 63 68 73 84 84 83 88
1670.0 103 113 119 138 159 180 216 259 308 370
1710.0 445 539 659 802 985 1226 1527 1883 2296 2781
1750.0 3364 4073 4963 6087 7386 8671 9636 10000 9629 8604
1790.0 7265 5910 4722 3740 2966 2341 1833 1423 1096 849
1830.0 666 533 435 371 328 295 268 245 229 222
1870.0 209 186 165 148 131 117 107 98 93 96
1910.0 97 103 112 121 134 139 143 149 150 152
1950.0 148 135 114 87 62 43 32 34 33 30
1990.0 29 28 23 22 24 20 25 22 12 14
2030.0 19 18 14 11 13 12 8 6 4 3
2070.0 3 4 4 1 0 1 5 9 6 5
2110.0 9 10 10 15 16 12 11 14 13 14
2150.0 18 14 14 16 15 16 23 27 26 29
2190.0 31 26 27 34 35 36 37 36 42 47
2230.0 43 47 52 52 53 61 63 65 70 76
2270.0 90 116 143 171 223 295 379 474 576 693
2310.0 822 939 1045 1119 1157 1166 1120 1065 1017 898
2350.0 883 1126 1373 1490 1482 1341 1097 793 492 262
2390.0 126 68 50 42 38 34 29 21 22 25
2430.0 21 20 21 21 28 23 22 27 22 19
2470.0 15 16 14 10 12 14 15 12 7 7
2510.0 6 5 8 13 13 14 18 11 10 6
2550.0 7 12 1 0 7 8 9 15 16 9
2590.0 7 8 10 19 22 15 9 2 3 7
2630.0 8 8 9 14 17 13 9 9 6 1
2670.0 4 10 14 14 16 11 9 16 19 15
2710.0 9 7 6 3 10 16 13 13 18 14
2750.0 7 10 11 10 10 20 35 34 29 35
2790.0 42 40 39 45 47 49 48 52 59 65
2830.0 75 88 94 109 124 144 172 202 237 259
2870.0 286 308 309 297 286 280 284 291 304 336
2910.0 393 457 548 660 781 901 992 1046 1050 1016
2950.0 962 895 832 787 736 679 628 577 525 484
2990.0 461 456 454 467 505 574 679 834 1029 1270
3030.0 1499 1618 1600 1447 1213 1025 950 995 1161 1381
3070.0 1516 1525 1403 1182 984 848 750 664 569 484
3110.0 404 330 252 182 135 97 78 66 49 35
3150.0 32 33 31 36 39 31 28 26 21 13
3190.0 10 17 21 19 10 9 13 23 29 35
3230.0 32 20 18 19 18 20 22 16 12 7
3270.0 7 17 21 18 10 7 9 13 15 9
3310.0 1 0 9 17 16 4 1 5 0 7
3350.0 16 24 28 28 28 16 13 10 14 25
3390.0 16 18 25 31 39 35 28 23 24 24
3430.0 29 41 31 29 45 44 35 34 30 32
3470.0 41 38 47 60 63 63 70 72 84 107
3510.0 111 126 146 167 196 218 238 278 320 364
3550.0 432 582 844 1368 2382 3556 4087 3951 3174 1915
3590.0 1021 637 442 328 255 202 165 149 140 139
3630.0 130 118 113 105 108 93 62 59 63 50
3670.0 48 49 44 55 59 50 58 67 59 53
3710.0 51 52 53 66 74 71 83 90 69 59
3750.0 60 60 54 45 46 39 37 37 23 28
3790.0 36 30 37 40 36 41 45 47 44 42
3830.0 41 36 37 37 42
##END=
