##TITLE=trans-3-Methyl-2-pentene
##JCAMP-DX=4.24
##DATA TYPE=INFRARED SPECTRUM
##ORIGIN=NIST Mass Spectrometry Data Center
##OWNER=NIST Standard Reference Data Program
Collection (C) 2018 copyright by the U.S. Secretary of Commerce
on behalf of the United States of America. All rights reserved.
##CAS REGISTRY NO=616-12-6
##MOLFORM=C 6 H 12
##$NIST SOURCE=MSDC-IR
##SPECTROMETER/DATA SYSTEM=HP-GC/MS/IRD
##STATE=gas
##XUNITS=1/CM
##YUNITS=ABSORBANCE
##XFACTOR=1.0
##YFACTOR=0.000003900
##DELTAX=4.0
##FIRSTX=550.0
##LASTX=3846.0
##FIRSTY=0.001310
##MAXX=3846
##MINX=550
##MAXY=0.039
##MINY=0
##NPOINTS=825
##XYDATA=(X++(Y..Y))
550.0 336 352 359 353 269 204 186 105 38 42
590.0 51 73 78 34 15 28 23 13 28 35
630.0 20 28 53 37 22 16 30 53 42 44
670.0 47 30 34 32 32 29 4 16 35 50
710.0 53 62 79 97 114 120 139 165 178 200
750.0 221 231 239 226 214 224 252 278 301 360
790.0 427 509 622 716 827 938 1069 1250 1295 1202
830.0 1131 1063 945 780 623 499 385 306 246 191
870.0 165 139 116 121 143 155 154 164 177 196
910.0 220 234 247 247 246 248 237 229 234 243
950.0 276 329 378 427 478 534 588 633 676 712
990.0 713 685 652 613 579 544 484 446 424 417
1030.0 405 382 386 380 378 404 423 460 506 534
1070.0 551 545 523 491 446 400 381 398 423 464
1110.0 501 487 484 477 430 353 278 225 173 141
1150.0 128 115 113 127 132 134 156 185 215 245
1190.0 284 330 360 376 385 361 321 284 246 207
1230.0 185 173 163 163 170 160 152 155 152 154
1270.0 166 180 181 190 203 225 255 292 332 372
1310.0 421 465 497 520 544 571 604 616 609 628
1350.0 684 753 825 924 1052 1199 1356 1486 1558 1593
1390.0 1580 1492 1347 1187 1045 936 872 855 880 944
1430.0 1037 1140 1258 1386 1522 1630 1696 1708 1652 1567
1470.0 1469 1349 1219 1074 942 830 733 667 626 599
1510.0 575 554 542 538 533 524 515 499 484 471
1550.0 455 427 400 375 354 328 309 289 265 253
1590.0 238 220 205 195 195 196 199 200 206 207
1630.0 206 215 221 226 232 244 248 244 247 246
1670.0 240 225 205 189 163 130 105 86 64 52
1710.0 53 54 52 51 45 40 37 37 38 36
1750.0 37 41 44 43 42 45 52 58 52 54
1790.0 63 64 63 62 64 69 74 82 92 97
1830.0 105 113 112 118 126 124 118 108 96 89
1870.0 72 58 56 48 40 40 43 40 35 31
1910.0 24 19 22 24 24 21 17 18 19 17
1950.0 16 14 13 12 13 13 15 19 19 17
1990.0 14 13 14 16 11 9 17 22 22 26
2030.0 23 24 22 25 25 18 14 11 11 13
2070.0 9 5 10 13 10 13 16 13 13 11
2110.0 11 14 17 19 16 10 15 18 12 10
2150.0 11 12 14 11 10 11 10 8 0 3
2190.0 11 7 7 6 6 15 12 8 11 8
2230.0 11 12 2 7 7 8 12 11 9 12
2270.0 13 15 19 17 18 18 17 17 21 18
2310.0 21 26 28 32 34 39 40 38 38 35
2350.0 35 43 46 43 46 50 49 49 47 45
2390.0 42 41 38 39 41 41 45 44 45 46
2430.0 46 43 41 44 46 47 39 40 45 44
2470.0 50 51 47 46 40 38 42 36 31 40
2510.0 38 36 38 37 43 39 38 44 45 40
2550.0 46 50 53 52 52 54 52 48 40 44
2590.0 49 43 41 46 50 55 54 55 58 63
2630.0 76 87 85 81 88 89 94 96 89 86
2670.0 97 110 107 108 111 114 125 136 156 182
2710.0 215 242 260 279 294 314 338 355 367 374
2750.0 385 400 409 414 422 420 415 423 443 469
2790.0 489 508 545 584 634 708 804 930 1074 1254
2830.0 1490 1772 2107 2486 2899 3372 3928 4531 5109 5594
2870.0 6027 6445 6778 7061 7300 7349 7304 7320 7395 7580
2910.0 7906 8340 8793 9160 9456 9698 9766 9605 9241 8809
2950.0 8561 8682 9121 9570 9844 10000 9958 9757 9204 8174
2990.0 7050 6142 5466 4945 4547 4249 4029 3857 3692 3523
3030.0 3344 3147 2926 2669 2397 2133 1889 1663 1467 1300
3070.0 1147 1006 886 801 719 641 577 534 491 451
3110.0 426 401 374 358 346 323 302 291 284 273
3150.0 255 237 223 207 197 189 168 155 157 153
3190.0 132 120 117 100 96 87 77 73 74 71
3230.0 64 66 68 68 66 63 58 45 42 47
3270.0 51 48 42 41 46 58 50 45 53 49
3310.0 42 40 41 38 35 28 35 41 43 42
3350.0 30 25 25 28 37 31 23 29 32 28
3390.0 27 27 32 36 31 25 29 30 25 22
3430.0 25 28 24 30 38 31 25 20 23 25
3470.0 28 28 23 28 38 31 20 22 18 15
3510.0 23 25 25 21 16 17 22 16 8 3
3550.0 3 12 17 18 12 14 19 9 11 24
3590.0 28 18 9 12 10 4 15 22 21 24
3630.0 15 17 28 28 27 25 23 30 27 24
3670.0 27 23 24 25 26 33 43 50 33 31
3710.0 43 45 48 44 33 27 33 49 42 37
3750.0 44 54 45 23 31 46 49 46 46 47
3790.0 52 54 43 44 51 51 44 33 36 42
3830.0 48 51 43 49 57
##END=
