##TITLE=1-Penten-2-ol
##JCAMP-DX=4.24
##DATA TYPE=INFRARED SPECTRUM
##ORIGIN=NIST Mass Spectrometry Data Center
##OWNER=NIST Standard Reference Data Program
Collection (C) 2018 copyright by the U.S. Secretary of Commerce
on behalf of the United States of America. All rights reserved.
##CAS REGISTRY NO=616-25-1
##MOLFORM=C 5 H 10 O
##$NIST SOURCE=MSDC-IR
##SPECTROMETER/DATA SYSTEM=HP-GC/MS/IRD
##STATE=gas
##XUNITS=1/CM
##YUNITS=ABSORBANCE
##XFACTOR=1.0
##YFACTOR=0.000001800
##DELTAX=4.0
##FIRSTX=550.0
##LASTX=3846.0
##FIRSTY=0.001215
##MAXX=3846
##MINX=550
##MAXY=0.018
##MINY=0
##NPOINTS=825
##XYDATA=(X++(Y..Y))
550.0 675 442 303 304 325 372 420 449 415 380
590.0 335 315 349 370 329 285 274 247 227 212
630.0 229 270 309 329 335 415 521 592 668 683
670.0 640 676 701 652 608 562 469 391 352 270
710.0 200 144 111 89 59 15 8 62 71 39
750.0 72 92 105 145 166 179 180 209 221 194
790.0 190 185 149 124 156 180 194 241 292 322
830.0 385 476 562 623 678 770 826 883 931 944
870.0 976 971 992 1060 1125 1259 1542 1942 2471 3185
910.0 4069 4970 5776 6366 6697 6858 6851 6542 6104 5756
950.0 5605 5692 5984 6396 6854 7315 7712 8057 8301 8340
990.0 8200 7907 7462 6905 6340 5819 5337 4878 4436 4073
1030.0 3797 3638 3620 3686 3784 3871 3915 3911 3866 3816
1070.0 3726 3547 3344 3189 3098 3067 3055 3028 3026 3025
1110.0 3033 3024 2975 2911 2860 2796 2698 2575 2440 2331
1150.0 2186 2001 1834 1662 1512 1410 1331 1290 1297 1339
1190.0 1415 1527 1677 1828 2007 2207 2397 2571 2733 2809
1230.0 2834 2818 2786 2729 2607 2484 2366 2260 2188 2140
1270.0 2105 2085 2069 2062 2062 2047 2019 1982 1967 1959
1310.0 1938 1942 1937 1938 1970 2019 2081 2138 2165 2186
1350.0 2221 2241 2252 2242 2220 2211 2198 2168 2132 2115
1390.0 2071 2045 2058 2097 2198 2353 2500 2589 2623 2626
1430.0 2577 2471 2341 2208 2070 1973 1947 1907 1814 1723
1470.0 1638 1459 1246 1074 917 765 624 511 432 385
1510.0 337 292 256 233 216 196 178 176 188 178
1550.0 164 165 165 168 179 191 208 213 203 199
1590.0 216 226 223 225 233 246 267 320 382 439
1630.0 506 568 594 615 635 627 570 467 378 305
1670.0 241 191 148 135 125 108 113 118 111 91
1710.0 71 78 84 66 38 33 50 48 34 15
1750.0 7 6 0 0 7 12 7 3 12 16
1790.0 12 19 33 27 29 51 62 62 85 142
1830.0 223 288 354 425 461 461 458 445 404 338
1870.0 260 187 134 101 78 61 49 53 54 51
1910.0 67 69 56 51 50 48 53 60 68 77
1950.0 72 69 65 71 81 75 65 58 55 55
1990.0 52 45 37 42 36 29 33 25 23 23
2030.0 22 27 17 14 12 12 17 11 11 22
2070.0 17 13 20 16 11 16 14 12 16 12
2110.0 10 11 17 16 19 21 17 9 11 13
2150.0 11 10 4 3 8 10 13 15 14 17
2190.0 25 15 8 19 23 24 23 27 22 10
2230.0 16 22 18 15 9 7 16 16 11 22
2270.0 32 37 27 24 22 8 19 34 39 46
2310.0 48 48 53 45 39 50 38 26 36 34
2350.0 31 39 48 49 42 36 33 34 33 22
2390.0 26 30 27 44 63 50 42 52 52 53
2430.0 50 40 52 55 50 41 24 30 32 21
2470.0 12 4 9 21 9 2 15 15 8 11
2510.0 9 8 5 12 18 31 38 35 44 35
2550.0 40 60 55 53 61 66 65 55 53 77
2590.0 105 109 99 99 94 84 86 74 63 69
2630.0 81 74 71 87 92 94 92 113 117 112
2670.0 126 143 150 140 142 141 141 146 141 142
2710.0 155 176 183 186 209 230 241 243 247 272
2750.0 288 308 331 306 281 281 302 324 336 354
2790.0 381 388 409 445 479 544 623 713 838 1007
2830.0 1207 1460 1771 2118 2539 2994 3451 3888 4303 4724
2870.0 5123 5513 5775 5845 5825 5729 5562 5385 5203 5073
2910.0 5091 5292 5697 6296 7013 7710 8217 8473 8549 8566
2950.0 8547 8514 8636 8926 9412 10000 9868 9349 8884 8274
2990.0 7447 6292 5139 4237 3591 3092 2664 2323 2066 1868
3030.0 1701 1527 1358 1244 1186 1154 1181 1281 1418 1574
3070.0 1798 2080 2338 2519 2693 2667 2405 2209 1975 1631
3110.0 1244 892 642 477 387 331 288 268 242 221
3150.0 205 197 187 171 187 185 164 164 156 140
3190.0 138 109 99 111 96 97 93 67 75 71
3230.0 29 12 2 7 28 27 20 25 24 29
3270.0 34 30 47 55 40 36 37 40 26 33
3310.0 52 36 21 17 16 39 56 45 40 34
3350.0 31 51 68 78 90 96 94 103 110 111
3390.0 93 82 101 121 129 97 92 119 120 132
3430.0 132 120 117 114 113 121 120 105 115 129
3470.0 107 85 98 99 88 102 118 131 116 108
3510.0 128 103 58 80 103 102 125 120 99 118
3550.0 122 128 133 137 161 161 165 161 160 183
3590.0 188 204 251 279 316 368 437 538 696 925
3630.0 1191 1488 1786 1985 2080 2105 2085 2010 1808 1524
3670.0 1211 924 696 527 419 334 289 282 247 195
3710.0 190 187 175 182 166 139 156 148 134 160
3750.0 172 152 131 148 153 154 134 96 117 134
3790.0 121 134 149 162 169 158 174 159 128 170
3830.0 181 151 169 174 165
##END=
