##TITLE=Di-N-octyl phenyl phosphate
##JCAMP-DX=4.24
##DATA TYPE=INFRARED SPECTRUM
##ORIGIN=EPA-IR VAPOR PHASE LIBRARY
##OWNER=SRD/NIST
Collection (C) 2018 copyright by the U.S. Secretary of Commerce
on behalf of the United States of America. All rights reserved.
##CAS REGISTRY NO=6161-81-5
##MOLFORM=C 22 H 39 O 4 P
##$NIST SOURCE=MSDC-IR
##STATE=gas
##XUNITS=1/CM
##YUNITS=ABSORBANCE
##XFACTOR=1.
##YFACTOR=0.001
##DELTAX=1.92934
##FIRSTX=549.9
##LASTX=3999.5
##FIRSTY=14.07
##MAXX=3999.53
##MINX=549.863
##MAXY=0.11377
##MINY=0
##NPOINTS=1789
##XYDATA=(X++(Y..Y))
549.863 14.07 13.06 12.06 11.01 10.13 9.42 8.62 7.97 7.59 7.26
569.156 6.95 6.75 6.63 6.53 6.51 6.39 6.22 6.11 6 5.75
588.450 5.39 5.01 4.6 4.26 3.91 3.68 3.54 3.34 3.13 3
607.743 2.98 3.09 3.21 3.35 3.45 3.37 3.19 3 2.77 2.557
627.037 2.4476 2.3819 2.3263 2.2861 2.2453 2.2389 2.2137 2.1918 2.2391 2.2442
646.330 2.289 2.3491 2.3961 2.4625 2.57 2.69 2.82 2.98 3.09 3.19
665.624 3.3 3.49 3.73 3.97 4.28 4.7 5.19 5.84 6.77 7.92
684.917 9.19 10.22 10.56 10.22 9.4 8.43 7.69 7.12 6.73 6.53
704.210 6.4 6.41 6.53 6.71 6.91 7.05 7.23 7.42 7.51 7.56
723.504 7.66 7.79 7.97 8.21 8.41 8.64 9 9.47 9.98 10.54
742.797 11.24 12.1 13.12 14.24 15.42 16.63 17.79 18.74 19.44 19.91
762.091 20.11 20 19.59 18.92 17.99 16.89 15.76 14.63 13.6 12.69
781.384 11.89 11.23 10.71 10.34 10.06 9.81 9.62 9.47 9.3 9.11
800.678 8.94 8.79 8.65 8.55 8.48 8.39 8.4 8.45 8.52 8.6
819.971 8.69 8.7 8.6 8.52 8.48 8.48 8.5 8.5 8.5 8.5
839.264 8.58 8.72 8.81 8.93 9.08 9.21 9.32 9.43 9.51 9.57
858.558 9.7 9.82 9.88 9.95 10.06 10.11 10.16 10.24 10.29 10.33
877.851 10.39 10.43 10.46 10.52 10.71 11.04 11.35 11.88 12.64 13.44
897.145 14.37 15.32 16.2 16.88 17.42 18.05 18.89 20.05 21.57 23.51
916.438 25.87 28.73 32.22 36.42 41.33 46.91 53.17 59.79 66.42 72.87
935.732 78.8 83.91 88.02 90.84 91.93 90.91 87.64 82.29 75.41 67.77
955.025 60.22 53.46 47.82 43.41 40.16 37.91 36.57 36.02 36.07 36.6
974.318 37.46 38.58 39.78 40.95 42.06 43.11 44.22 45.55 47.17 49.08
993.612 51.3 53.94 57.02 60.62 64.84 69.6 74.49 78.82 82.35 85.16
1012.905 87.77 90.84 94.62 99.25 104.59 109.73 113.17 113.77 111.63 107.84
1032.199 103.92 100.64 97.84 95.22 92.69 90.29 88 85.87 83.91 82.1
1051.492 80.5 79.06 77.78 76.74 75.85 75.04 74.27 73.44 72.42 71.03
1070.786 69.15 66.72 63.82 60.46 56.71 52.74 48.72 44.73 40.82 37.07
1090.079 33.5 30.14 27.12 24.5 22.18 20.19 18.57 17.19 16.02 15.06
1109.372 14.26 13.61 13.17 12.81 12.54 12.31 12.1 11.96 11.78 11.63
1128.666 11.48 11.24 10.98 10.71 10.4 10.12 9.82 9.5 9.24 9.05
1147.959 8.95 8.91 8.95 9.12 9.43 9.88 10.59 11.5 12.36 12.84
1167.253 12.75 12.16 11.29 10.48 9.94 9.69 9.69 9.88 10.23 10.71
1186.546 11.33 12.2 13.22 14.3 15.67 17.42 19.57 22.28 25.63 29.76
1205.840 34.83 40.8 47.36 53.97 59.48 62.65 62.77 59.83 54.75 48.85
1225.133 43.41 39.19 36.15 33.81 31.53 28.98 26.19 23.3 20.66 18.47
1244.426 16.79 15.45 14.42 13.7 13.2 12.84 12.6 12.48 12.46 12.62
1263.720 12.98 13.53 14.28 15.21 16.46 18.11 20.04 22.34 24.95 27.69
1283.013 30.39 32.83 34.72 35.84 36.16 36.04 35.82 35.61 35.56 35.75
1302.307 35.97 36.1 35.98 35.44 34.36 32.67 30.4 27.72 24.84 22.02
1321.600 19.5 17.35 15.55 14.05 12.78 11.75 10.84 10.08 9.4 8.78
1340.894 8.25 7.78 7.47 7.18 6.88 6.67 6.5 6.34 6.18 6.04
1360.187 5.89 5.73 5.62 5.54 5.47 5.46 5.49 5.58 5.74 6.04
1379.480 6.43 6.81 7.21 7.55 7.76 7.8 7.67 7.33 6.82 6.26
1398.774 5.7 5.12 4.61 4.23 3.97 3.79 3.68 3.58 3.53 3.55
1418.067 3.59 3.67 3.8 3.96 4.17 4.42 4.79 5.21 5.68 6.17
1437.361 6.68 7.15 7.56 8.06 8.61 9.24 9.99 10.78 11.6 12.4
1456.654 13.16 13.81 14.29 14.68 14.95 15.15 15.36 15.54 15.74 16.02
1475.948 16.51 17.38 18.83 21.15 24.57 29.06 34.3 39.4 42.69 42.63
1495.241 38.89 32.56 25.75 19.94 15.67 12.61 10.36 8.8 7.65 6.71
1514.534 5.98 5.44 4.99 4.59 4.23 3.97 3.74 3.51 3.33 3.15
1533.828 2.97 2.88 2.79 2.67 2.62 2.6 2.6 2.63 2.68 2.71
1553.121 2.73 2.83 2.95 3.05 3.26 3.51 3.76 4.09 4.54 5.1
1572.415 5.8 6.57 7.47 8.52 9.65 10.91 12.27 13.71 15.22 16.72
1591.708 18.09 19.11 19.39 18.65 16.92 14.51 11.92 9.56 7.6 6.1
1611.002 5 4.21 3.65 3.2 2.85 2.5436 2.3233 2.1723 2.0366 1.9361
1630.295 1.8421 1.7313 1.6779 1.65927 1.61387 1.59472 1.62567 1.59481 1.5285 1.5171
1649.588 1.5304 1.511 1.464 1.4768 1.464 1.466 1.458 1.389 1.395 1.406
1668.882 1.4 1.41 1.416 1.409 1.411 1.431 1.446 1.438 1.402 1.424
1688.175 1.463 1.4718 1.4992 1.5096 1.5201 1.55 1.5387 1.59585 1.65558 1.65967
1707.469 1.6716 1.6846 1.7052 1.7271 1.7405 1.7378 1.7439 1.7651 1.7822 1.7515
1726.762 1.692 1.66298 1.65181 1.64955 1.61037 1.57682 1.57409 1.5582 1.56867 1.59178
1746.056 1.58342 1.5802 1.61473 1.62011 1.63736 1.6843 1.7144 1.7642 1.8124 1.8462
1765.349 1.8853 1.9403 1.9804 1.993 2.0423 2.0873 2.0781 2.0362 1.9748 1.923
1784.642 1.8899 1.8444 1.8063 1.7765 1.7391 1.732 1.7238 1.7249 1.7066 1.64641
1803.936 1.61228 1.57775 1.5593 1.5531 1.5356 1.5153 1.5051 1.4991 1.5046 1.5237
1823.229 1.5354 1.56556 1.56829 1.56014 1.56337 1.57313 1.60442 1.64356 1.66692 1.678
1842.523 1.7108 1.7427 1.7825 1.8099 1.8498 1.8931 1.9077 1.9338 1.9747 1.9717
1861.816 1.9545 1.967 1.9469 1.935 1.9351 1.9493 1.9617 1.9164 1.8469 1.8116
1881.110 1.7772 1.7417 1.7314 1.7121 1.6803 1.65749 1.64578 1.65198 1.6496 1.63278
1900.403 1.63651 1.657 1.65235 1.66002 1.6826 1.6873 1.6986 1.7123 1.7334 1.7633
1919.696 1.8167 1.8664 1.9005 1.9694 2.0543 2.0801 2.1113 2.1173 2.0913 2.0529
1938.990 2.0025 1.9997 1.9724 1.9404 1.959 1.9385 1.8643 1.7894 1.7245 1.64623
1958.283 1.57386 1.5295 1.5006 1.4763 1.465 1.433 1.412 1.433 1.398 1.358
1977.577 1.372 1.38 1.368 1.343 1.336 1.343 1.319 1.279 1.234 1.206
1996.870 1.165 1.146 1.16 1.136 1.099 1.07 1.074 1.058 1.023 1.043
2016.164 1.053 1.033 1.019 1.027 1.039 1.048 1.028 1.011 1.007 1.003
2035.457 1.01 1.001 0.97 0.956 0.947 0.922 0.906 0.896 0.919 0.915
2054.750 0.894 0.896 0.892 0.875 0.849 0.869 0.872 0.859 0.862 0.846
2074.044 0.86 0.861 0.824 0.795 0.816 0.837 0.822 0.798 0.795 0.796
2093.337 0.783 0.788 0.81 0.816 0.816 0.829 0.819 0.816 0.829 0.817
2112.631 0.799 0.789 0.774 0.773 0.787 0.778 0.777 0.836 0.848 0.805
2131.924 0.784 0.776 0.776 0.797 0.811 0.78 0.783 0.825 0.834 0.817
2151.218 0.824 0.818 0.799 0.811 0.791 0.795 0.831 0.856 0.858 0.858
2170.511 0.886 0.885 0.868 0.835 0.819 0.82 0.816 0.831 0.832 0.812
2189.804 0.824 0.833 0.818 0.836 0.843 0.847 0.854 0.851 0.867 0.869
2209.098 0.874 0.871 0.874 0.882 0.869 0.882 0.927 0.926 0.895 0.918
2228.391 0.961 0.957 0.913 0.915 0.928 0.916 0.913 0.906 0.899 0.905
2247.685 0.903 0.923 0.934 0.912 0.902 0.908 0.941 0.952 0.933 0.925
2266.978 0.911 0.905 0.913 0.916 0.908 0.885 0.873 0.881 0.87 0.866
2286.272 0.887 0.88 0.872 0.867 0.868 0.907 0.915 0.909 0.927 0.954
2305.565 0.979 0.983 0.999 1.037 1.039 0.991 0.99 1.01 0.992 0.981
2324.858 0.972 0.969 0.96 0.942 0.933 0.936 0.948 0.951 0.941 0.936
2344.152 0.951 0.952 0.94 0.913 0.899 0.916 0.911 0.903 0.908 0.926
2363.445 0.948 0.935 0.932 0.963 0.968 0.963 0.959 0.964 0.989 0.977
2382.739 0.953 0.967 0.979 0.971 0.952 0.959 0.977 0.959 0.964 1.003
2402.032 1.026 1.048 1.068 1.076 1.075 1.083 1.109 1.132 1.142 1.159
2421.326 1.159 1.181 1.21 1.192 1.207 1.191 1.151 1.163 1.155 1.115
2440.619 1.075 1.027 1 1.024 1.017 0.971 0.946 0.95 0.935 0.883
2459.912 0.85 0.859 0.886 0.893 0.873 0.845 0.826 0.844 0.854 0.822
2479.206 0.814 0.823 0.849 0.855 0.862 0.883 0.889 0.907 0.911 0.894
2498.499 0.882 0.881 0.898 0.933 0.919 0.895 0.912 0.908 0.925 0.962
2517.793 0.956 0.973 0.965 0.94 0.972 0.998 1.035 1.036 1.006 1.031
2537.086 1.042 1.035 1.03 1.034 1.052 1.046 1.053 1.066 1.058 1.078
2556.380 1.123 1.126 1.116 1.101 1.09 1.099 1.109 1.107 1.105 1.115
2575.673 1.095 1.074 1.101 1.101 1.116 1.154 1.148 1.116 1.11 1.121
2594.966 1.095 1.092 1.122 1.142 1.177 1.21 1.175 1.158 1.157 1.181
2614.260 1.242 1.258 1.235 1.222 1.217 1.252 1.308 1.269 1.231 1.245
2633.553 1.284 1.28 1.276 1.331 1.325 1.335 1.364 1.343 1.392 1.413
2652.847 1.43 1.4859 1.4893 1.5088 1.5418 1.5342 1.5351 1.56371 1.59032 1.60054
2672.140 1.58817 1.63281 1.65429 1.62635 1.61088 1.64561 1.6865 1.6818 1.6859 1.734
2691.434 1.7475 1.7099 1.6754 1.679 1.7011 1.7003 1.6935 1.6911 1.7302 1.7598
2710.727 1.7835 1.7363 1.6779 1.7025 1.6885 1.66899 1.7369 1.8017 1.8319 1.8402
2730.020 1.832 1.8757 1.9378 1.9571 1.9693 2.0256 2.1053 2.1687 2.1862 2.2177
2749.314 2.2444 2.2751 2.3559 2.3584 2.3008 2.3246 2.3881 2.3974 2.4195 2.4756
2768.607 2.4692 2.4326 2.4484 2.4874 2.5289 2.5654 2.64 2.71 2.75 2.81
2787.901 2.92 3.01 3.06 3.14 3.2 3.28 3.4 3.55 3.7 3.82
2807.194 3.94 4.06 4.23 4.43 4.69 4.97 5.15 5.37 5.7 6.07
2826.488 6.44 6.83 7.29 7.79 8.4 9.14 9.98 11 12.17 13.53
2845.781 15.23 17.33 19.75 22.62 25.94 29.44 33.06 36.5 39.33 41.24
2865.074 42.13 42.21 41.54 40.31 38.83 37.32 36.02 35.03 34.31 33.63
2884.368 32.85 32.04 31.26 30.71 30.52 30.89 31.98 33.67 35.84 38.39
2903.661 41.24 44.32 47.51 50.74 54.18 57.88 61.79 66.12 71 76.57
2922.955 82.73 89.24 95.66 101.44 106.1 108.91 109.64 108.32 105.19 100.76
2942.248 95.43 89.69 83.82 78.2 73.17 69.23 66.74 65.61 65.77 67.01
2961.542 68.79 70.49 71.41 70.97 68.67 64.51 58.86 52.32 45.68 39.49
2980.835 34.12 29.51 25.49 22.15 19.4 17.03 15.12 13.47 12.09 11.03
3000.128 10.08 9.27 8.6 8.04 7.55 7.08 6.7 6.43 6.22 6.01
3019.422 5.75 5.67 5.63 5.54 5.57 5.61 5.57 5.64 5.77 5.86
3038.715 5.95 6.17 6.39 6.5 6.68 6.73 6.63 6.41 6.13 5.93
3058.009 5.8 5.84 5.97 6.03 6.15 6.39 6.79 7.16 7.54 8.05
3077.302 8.44 8.52 8.23 7.53 6.59 5.66 4.9 4.43 4.13 3.87
3096.596 3.62 3.46 3.27 3.09 2.93 2.63 2.3804 2.2581 2.0566 1.898
3115.889 1.7786 1.60095 1.442 1.299 1.196 1.141 1.121 1.02 0.964 0.968
3135.182 0.947 0.923 0.887 0.793 0.723 0.75 0.755 0.752 0.755 0.783
3154.476 0.769 0.693 0.693 0.754 0.7 0.639 0.634 0.57 0.55 0.596
3173.769 0.606 0.56 0.56 0.708 0.736 0.584 0.48 0.49 0.51 0.49
3193.063 0.46 0.44 0.49 0.48 0.41 0.41 0.39 0.35 0.33 0.32
3212.356 0.28 0.27 0.3 0.33 0.34 0.29 0.24 0.29 0.37 0.3
3231.650 0.16 0.07 0.11 0.13 0.12 0.21 0.25 0.23 0.15 0.07
3250.943 0.13 0.14 0.09 0.12 0.09 0.09 0.12 0.14 0.15 0.11
3270.236 0.07 0 0.01 0.07 0.1 0.12 0.03 0.01 0.13 0.16
3289.530 0.16 0.16 0.17 0.15 0.07 0.16 0.25 0.13 0.03 0.06
3308.823 0.12 0.16 0.14 0.09 0.13 0.1 0.08 0.11 0.14 0.18
3328.117 0.22 0.22 0.12 0.13 0.15 0.12 0.09 0.02 0.13 0.21
3347.410 0.15 0.12 0.11 0.08 0.05 0.07 0.07 0.05 0.16 0.16
3366.704 0.1 0.19 0.2 0.23 0.23 0.19 0.19 0.15 0.15 0.26
3385.997 0.29 0.27 0.2 0.17 0.2 0.24 0.21 0.11 0.07 0.07
3405.290 0.12 0.2 0.15 0.14 0.18 0.18 0.31 0.31 0.23 0.13
3424.584 0.06 0.15 0.19 0.19 0.21 0.13 0.17 0.26 0.23 0.25
3443.877 0.28 0.23 0.15 0.15 0.13 0.14 0.14 0.2 0.26 0.26
3463.171 0.21 0.14 0.23 0.21 0.09 0.1 0.18 0.16 0.22 0.27
3482.464 0.26 0.24 0.19 0.22 0.2 0.13 0.18 0.21 0.19 0.2
3501.758 0.22 0.21 0.24 0.26 0.25 0.25 0.19 0.22 0.26 0.18
3521.051 0.12 0.14 0.21 0.21 0.22 0.33 0.35 0.26 0.23 0.24
3540.344 0.23 0.22 0.3 0.33 0.27 0.21 0.17 0.24 0.24 0.19
3559.638 0.28 0.32 0.35 0.36 0.3 0.32 0.3 0.29 0.32 0.3
3578.931 0.26 0.29 0.32 0.3 0.43 0.54 0.51 0.47 0.37 0.36
3598.225 0.35 0.38 0.41 0.35 0.36 0.34 0.36 0.49 0.55 0.53
3617.518 0.53 0.54 0.48 0.43 0.41 0.41 0.42 0.4 0.48 0.51
3636.812 0.56 0.62 0.59 0.52 0.54 0.589 0.55 0.52 0.5 0.51
3656.105 0.56 0.593 0.572 0.54 0.607 0.66 0.617 0.581 0.58 0.624
3675.398 0.623 0.591 0.55 0.53 0.572 0.65 0.709 0.634 0.57 0.591
3694.692 0.574 0.5 0.53 0.54 0.48 0.52 0.578 0.54 0.53 0.599
3713.985 0.62 0.576 0.596 0.63 0.582 0.55 0.55 0.54 0.597 0.623
3733.279 0.593 0.591 0.55 0.55 0.596 0.623 0.56 0.49 0.5 0.55
3752.572 0.601 0.581 0.611 0.665 0.644 0.619 0.581 0.605 0.692 0.725
3771.866 0.665 0.636 0.649 0.665 0.653 0.654 0.721 0.733 0.728 0.748
3791.159 0.732 0.705 0.645 0.629 0.702 0.698 0.669 0.648 0.633 0.672
3810.452 0.698 0.707 0.689 0.66 0.649 0.652 0.691 0.726 0.74 0.693
3829.746 0.682 0.707 0.703 0.728 0.664 0.632 0.682 0.698 0.728 0.771
3849.039 0.716 0.613 0.612 0.669 0.733 0.713 0.673 0.688 0.725 0.782
3868.333 0.837 0.765 0.676 0.703 0.747 0.791 0.826 0.821 0.795 0.785
3887.626 0.765 0.734 0.712 0.744 0.764 0.799 0.844 0.805 0.804 0.849
3906.920 0.834 0.796 0.823 0.825 0.78 0.82 0.863 0.86 0.881 0.901
3926.213 0.859 0.786 0.769 0.821 0.836 0.803 0.816 0.793 0.776 0.836
3945.506 0.857 0.874 0.901 0.909 0.924 0.915 0.922 0.951 0.939 0.94
3964.800 0.926 0.914 0.94 0.899 0.906 0.957 0.966 0.994 0.97 0.948
3984.093 0.991 0.974 0.988 1.004 1.001 1.002 1.011 1.082 1.118
##END=
