##TITLE=2-Dodecanone
##JCAMP-DX=4.24
##DATA TYPE=INFRARED SPECTRUM
##ORIGIN=NIST Mass Spectrometry Data Center
##OWNER=NIST Standard Reference Data Program
Collection (C) 2018 copyright by the U.S. Secretary of Commerce
on behalf of the United States of America. All rights reserved.
##CAS REGISTRY NO=6175-49-1
##MOLFORM=C 12 H 24 O
##$NIST SOURCE=MSDC-IR
##SPECTROMETER/DATA SYSTEM=HP-GC/MS/IRD
##STATE=gas
##XUNITS=1/CM
##YUNITS=ABSORBANCE
##XFACTOR=1.0
##YFACTOR=0.000005600
##DELTAX=4.0
##FIRSTX=550.0
##LASTX=3846.0
##FIRSTY=0.000526
##MAXX=3846
##MINX=550
##MAXY=0.056
##MINY=0
##NPOINTS=825
##XYDATA=(X++(Y..Y))
550.0 94 71 61 62 52 57 86 105 108 115
590.0 137 132 117 96 78 64 35 21 20 19
630.0 18 12 7 0 8 11 5 16 15 13
670.0 23 27 34 47 52 62 81 104 127 162
710.0 198 216 221 223 211 181 152 138 128 122
750.0 112 94 89 92 89 90 90 83 82 78
790.0 70 78 74 60 52 60 64 56 61 52
830.0 50 55 51 52 59 67 70 70 75 82
870.0 86 87 91 96 102 105 105 107 108 111
910.0 119 132 136 139 149 162 177 192 208 214
950.0 219 222 219 212 208 205 198 193 187 182
990.0 178 176 173 172 171 171 164 154 150 148
1030.0 149 138 124 113 106 105 100 94 95 96
1070.0 91 82 82 86 84 84 93 108 129 149
1110.0 172 192 211 233 258 293 354 437 554 702
1150.0 865 1012 1089 1089 1033 949 864 785 720 669
1190.0 630 606 590 578 574 575 576 571 560 535
1230.0 496 452 414 388 362 348 335 332 338 337
1270.0 339 343 342 347 359 369 376 386 395 404
1310.0 417 432 446 466 501 555 645 767 898 1054
1350.0 1258 1485 1659 1691 1545 1312 1085 897 754 659
1390.0 571 513 483 456 465 484 520 567 572 558
1430.0 568 609 650 685 762 848 964 1035 999 922
1470.0 817 689 527 396 330 288 246 220 204 229
1510.0 222 185 189 190 163 145 146 164 169 137
1550.0 119 136 161 126 93 91 94 86 69 66
1590.0 63 62 63 64 61 62 75 81 73 68
1630.0 71 95 97 99 120 150 168 149 160 191
1670.0 227 267 313 400 483 551 689 861 1030 1224
1710.0 1485 1843 2248 2645 3014 3242 3174 2789 2278 1800
1750.0 1411 1094 852 669 530 425 329 253 210 174
1790.0 152 131 113 104 82 69 62 55 54 58
1830.0 53 44 41 49 49 35 28 28 27 34
1870.0 34 23 21 21 21 24 23 19 17 18
1910.0 16 16 20 18 14 13 9 12 18 15
1950.0 10 10 11 11 11 9 5 5 4 5
1990.0 11 12 9 8 9 9 14 16 11 14
2030.0 17 15 16 18 17 14 15 17 19 18
2070.0 18 17 13 13 16 16 13 13 13 12
2110.0 12 15 16 14 12 13 15 13 14 14
2150.0 13 14 13 12 10 10 12 11 8 7
2190.0 8 9 10 9 10 9 7 7 8 7
2230.0 7 8 8 10 10 10 11 11 10 10
2270.0 9 8 11 12 14 15 13 12 15 18
2310.0 19 20 20 22 23 23 21 20 18 17
2350.0 18 21 27 27 24 23 18 15 13 12
2390.0 14 11 5 5 7 7 6 7 8 9
2430.0 8 7 8 6 8 8 4 2 7 7
2470.0 6 5 8 9 8 9 14 16 16 17
2510.0 17 18 18 18 20 22 25 27 28 25
2550.0 24 26 29 28 29 30 31 33 35 33
2590.0 33 40 44 44 48 49 48 49 51 55
2630.0 59 62 68 70 73 75 77 83 87 93
2670.0 97 99 103 102 102 103 102 100 97 95
2710.0 94 93 95 96 98 104 112 121 123 126
2750.0 133 135 138 145 149 156 168 176 191 210
2790.0 230 257 284 310 339 376 418 462 514 576
2830.0 656 758 901 1112 1433 1911 2540 3191 3646 3770
2870.0 3594 3288 3005 2805 2679 2631 2695 2888 3195 3624
2910.0 4191 4950 5971 7276 8650 9685 10000 9532 8509 7259
2950.0 6086 5181 4608 4290 4041 3644 3026 2344 1795 1417
2990.0 1158 982 863 780 722 671 611 547 489 431
3030.0 385 351 321 298 281 264 250 238 224 215
3070.0 207 195 181 171 163 150 145 145 140 126
3110.0 118 116 104 99 96 88 83 79 75 71
3150.0 70 70 67 61 60 62 62 59 56 50
3190.0 46 42 41 41 37 43 41 32 28 34
3230.0 31 23 23 24 25 21 18 22 27 26
3270.0 23 22 20 20 25 24 21 18 13 13
3310.0 21 20 18 22 20 21 23 19 17 16
3350.0 14 22 30 30 25 23 26 33 28 18
3390.0 18 22 31 35 36 43 44 45 51 52
3430.0 56 69 76 72 69 65 58 57 54 38
3470.0 26 26 29 28 23 19 14 14 18 14
3510.0 11 13 10 15 19 7 4 5 13 24
3550.0 10 4 1 7 34 23 4 7 13 35
3590.0 34 16 9 8 26 40 34 34 28 40
3630.0 50 19 9 13 33 49 34 18 6 21
3670.0 42 45 32 16 29 35 17 14 16 15
3710.0 28 29 17 20 28 31 52 42 44 60
3750.0 50 36 21 19 13 7 3 7 10 6
3790.0 3 3 14 22 16 8 18 28 22 10
3830.0 10 27 41 31 17
##END=
