##TITLE=2,4-Nonanedione
##JCAMP-DX=4.24
##DATA TYPE=INFRARED SPECTRUM
##ORIGIN=EPA-IR VAPOR PHASE LIBRARY
##OWNER=SRD/NIST
Collection (C) 2018 copyright by the U.S. Secretary of Commerce
on behalf of the United States of America. All rights reserved.
##CAS REGISTRY NO=6175-23-1
##MOLFORM=C 9 H 16 O 2
##$NIST SOURCE=MSDC-IR
##STATE=gas
##XUNITS=1/CM
##YUNITS=ABSORBANCE
##XFACTOR=1.
##YFACTOR=0.001
##DELTAX=1.929
##FIRSTX=549.8
##LASTX=4000.8
##FIRSTY=6.245
##MAXX=4000.75
##MINX=549.766
##MAXY=0.108535
##MINY=0
##NPOINTS=1790
##XYDATA=(X++(Y..Y))
549.766 6.245 6.025 5.855 5.845 5.495 5.205 5.115 4.755 4.415 4.295
569.056 4.145 3.825 3.455 3.005 2.925 2.925 2.695 2.665 2.675 2.515
588.346 2.475 2.505 2.355 2.305 2.225 2.165 2.185 2.005 1.945 1.935
607.636 2.005 2.025 2.055 2.115 2.075 2.075 2.045 2.235 2.355 2.365
626.926 2.355 2.325 2.255 2.185 2.165 2.105 2.145 2.115 2.035 2.115
646.216 2.265 2.215 2.045 1.8272 1.7567 1.8329 1.8163 1.7407 1.6842 1.7534
665.506 1.876 1.8197 1.6552 1.578 1.602 1.7361 1.828 1.8293 1.7679 1.7612
684.796 1.9132 2.025 2.035 2.105 2.155 2.115 2.165 2.195 2.295 2.425
704.086 2.505 2.605 2.595 2.695 2.815 2.985 3.225 3.415 3.565 3.725
723.376 3.845 3.905 4.205 4.485 4.665 4.945 5.095 5.225 5.415 5.615
742.666 6.015 6.335 6.685 7.265 7.915 8.715 9.485 10.375 11.365 12.295
761.956 13.215 13.895 14.315 14.485 14.425 14.095 13.455 12.575 11.525 10.415
781.246 9.495 8.635 7.815 7.075 6.405 5.855 5.355 4.965 4.615 4.345
800.536 4.055 3.705 3.535 3.485 3.375 3.255 3.145 3.025 2.955 2.955
819.826 3.065 3.195 3.185 3.185 3.275 3.365 3.515 3.695 3.755 3.805
839.116 3.905 4.095 4.245 4.325 4.485 4.625 4.835 4.925 5.035 5.335
858.406 5.635 5.905 6.075 6.355 6.715 7.015 7.345 7.765 8.175 8.555
877.696 8.925 9.125 9.255 9.515 9.805 9.995 10.205 10.515 10.725 10.865
896.986 11.075 11.325 11.605 11.945 12.255 12.595 12.945 13.265 13.565 13.845
916.276 14.145 14.355 14.495 14.495 14.425 14.405 14.255 13.905 13.575 13.375
935.566 13.135 13.015 12.895 12.665 12.565 12.415 12.225 12.045 11.815 11.545
954.856 11.345 11.215 10.945 10.705 10.605 10.395 10.245 10.145 10.085 10.005
974.146 9.965 9.975 9.875 9.875 9.895 9.865 9.815 9.805 9.775 9.655
993.436 9.565 9.435 9.255 9.105 8.945 8.765 8.565 8.395 8.195 7.925
1012.726 7.775 7.665 7.575 7.495 7.415 7.375 7.335 7.345 7.395 7.405
1032.016 7.375 7.375 7.485 7.585 7.615 7.725 7.875 8.045 8.275 8.475
1051.306 8.765 9.125 9.495 9.885 10.255 10.715 11.125 11.575 12.015 12.385
1070.596 12.785 13.235 13.675 14.075 14.385 14.655 14.915 15.155 15.345 15.365
1089.886 15.355 15.365 15.225 15.015 14.785 14.565 14.455 14.345 14.175 14.175
1109.176 14.355 14.495 14.745 15.175 15.685 16.175 16.675 17.345 18.015 18.655
1128.467 19.355 20.005 20.775 21.725 22.715 23.785 25.005 26.385 27.745 29.145
1147.757 30.485 31.415 31.985 32.255 32.085 31.505 30.505 29.255 27.815 26.345
1167.047 24.985 23.765 22.825 22.025 21.225 20.715 20.485 20.455 20.485 20.565
1186.337 20.775 21.015 21.545 22.035 22.475 22.965 23.385 23.935 24.475 25.005
1205.627 25.585 26.245 27.035 27.855 28.715 29.585 30.335 31.035 31.715 32.445
1224.917 33.105 33.535 34.015 34.405 34.625 34.785 34.675 34.475 34.285 33.935
1244.207 33.525 32.995 32.405 31.835 31.335 30.875 30.375 29.925 29.585 29.275
1263.497 29.005 28.865 28.835 28.825 28.835 28.915 28.975 29.145 29.405 29.715
1282.787 30.045 30.405 30.725 31.015 31.315 31.525 31.655 31.745 31.735 31.615
1302.077 31.355 31.015 30.665 30.285 29.865 29.425 28.965 28.555 28.225 27.965
1321.367 27.765 27.585 27.435 27.425 27.515 27.725 28.065 28.445 28.915 29.395
1340.657 29.985 30.605 31.265 32.105 33.045 34.015 35.135 36.405 37.665 38.795
1359.947 39.575 39.945 39.895 39.425 38.415 36.935 35.315 33.725 32.275 31.085
1379.237 30.125 29.255 28.535 28.045 27.645 27.225 26.835 26.575 26.525 26.645
1398.527 26.955 27.385 27.875 28.515 29.155 29.795 30.475 31.165 31.805 32.385
1417.817 32.985 33.545 33.995 34.365 34.675 34.895 35.075 35.265 35.395 35.445
1437.107 35.455 35.455 35.445 35.435 35.445 35.545 35.665 35.735 35.725 35.705
1456.397 35.735 35.695 35.435 35.105 34.565 33.785 32.965 32.075 31.085 29.985
1475.687 28.865 27.835 26.905 26.025 25.295 24.665 24.155 23.735 23.365 23.035
1494.977 22.785 22.605 22.525 22.515 22.475 22.505 22.585 22.675 22.895 23.085
1514.267 23.245 23.485 23.745 24.045 24.345 24.605 24.895 25.255 25.575 25.875
1533.557 26.265 26.695 27.115 27.585 28.035 28.515 29.085 29.705 30.425 31.225
1552.847 32.045 33.015 34.035 35.205 36.485 37.795 39.305 40.915 42.705 44.715
1572.137 46.795 49.085 51.665 54.385 57.185 60.245 63.555 67.075 70.685 74.475
1591.427 78.395 82.435 86.445 90.365 94.125 97.655 100.815 103.555 105.725 107.355
1610.717 108.315 108.535 108.155 107.115 105.515 103.585 101.225 98.495 95.575 92.415
1630.007 89.085 85.735 82.365 78.885 75.445 72.115 68.745 65.455 62.225 59.045
1649.297 55.985 53.195 50.275 47.485 45.015 42.705 40.635 38.655 36.785 35.185
1668.587 33.835 32.605 31.525 30.655 30.005 29.515 29.155 29.045 29.205 29.555
1687.877 30.105 30.995 32.285 33.905 36.035 38.605 41.575 45.085 48.705 52.745
1707.167 56.885 60.945 64.735 68.075 70.685 72.415 73.235 73.065 71.765 69.545
1726.457 66.615 63.155 59.395 55.605 51.785 48.275 45.075 41.955 39.045 36.235
1745.747 33.585 31.125 28.805 26.565 24.575 22.805 21.135 19.645 18.235 16.955
1765.037 15.815 14.775 13.775 12.855 12.115 11.435 10.745 10.115 9.565 9.115
1784.327 8.705 8.295 7.945 7.655 7.335 7.025 6.815 6.555 6.285 6.155
1803.617 6.005 5.825 5.705 5.565 5.405 5.285 5.185 5.085 4.995 4.915
1822.907 4.835 4.705 4.635 4.575 4.475 4.445 4.435 4.375 4.325 4.285
1842.197 4.205 4.155 4.115 4.055 4.025 4.015 3.955 3.895 3.845 3.795
1861.487 3.775 3.755 3.695 3.615 3.615 3.685 3.645 3.595 3.585 3.505
1880.777 3.455 3.435 3.425 3.375 3.305 3.335 3.355 3.345 3.335 3.305
1900.067 3.285 3.265 3.245 3.235 3.245 3.235 3.225 3.235 3.225 3.175
1919.357 3.165 3.175 3.165 3.175 3.155 3.125 3.115 3.135 3.165 3.115
1938.647 3.105 3.145 3.115 3.075 3.045 3.025 3.055 3.045 3.015 2.985
1957.937 2.995 3.035 3.025 2.975 2.955 2.965 2.945 2.895 2.895 2.925
1977.227 2.935 2.935 2.905 2.875 2.865 2.855 2.855 2.895 2.905 2.875
1996.517 2.845 2.845 2.895 2.855 2.805 2.795 2.795 2.815 2.835 2.815
2015.807 2.755 2.755 2.765 2.765 2.755 2.745 2.755 2.765 2.755 2.765
2035.097 2.755 2.715 2.695 2.735 2.705 2.695 2.715 2.705 2.675 2.635
2054.387 2.665 2.655 2.645 2.665 2.645 2.675 2.655 2.645 2.665 2.645
2073.677 2.665 2.715 2.685 2.665 2.725 2.705 2.655 2.675 2.735 2.715
2092.967 2.685 2.615 2.635 2.665 2.645 2.635 2.605 2.615 2.655 2.635
2112.257 2.595 2.605 2.625 2.605 2.625 2.635 2.605 2.595 2.595 2.645
2131.547 2.685 2.655 2.595 2.615 2.635 2.635 2.665 2.685 2.635 2.585
2150.837 2.625 2.635 2.635 2.635 2.675 2.665 2.585 2.565 2.605 2.635
2170.127 2.635 2.605 2.565 2.575 2.595 2.605 2.585 2.615 2.625 2.605
2189.417 2.615 2.575 2.545 2.545 2.595 2.605 2.605 2.585 2.565 2.575
2208.707 2.605 2.575 2.625 2.655 2.605 2.625 2.615 2.595 2.605 2.605
2227.997 2.595 2.595 2.635 2.615 2.595 2.605 2.625 2.595 2.605 2.655
2247.287 2.635 2.645 2.655 2.655 2.665 2.675 2.655 2.665 2.685 2.645
2266.577 2.605 2.635 2.675 2.615 2.575 2.595 2.635 2.645 2.665 2.685
2285.868 2.715 2.715 2.665 2.685 2.715 2.715 2.695 2.685 2.735 2.755
2305.158 2.715 2.745 2.755 2.745 2.755 2.775 2.755 2.715 2.765 2.795
2324.448 2.795 2.805 2.815 2.855 2.905 2.905 2.875 2.865 2.865 2.885
2343.738 2.895 2.875 2.895 2.905 2.885 2.895 2.935 2.945 2.885 2.895
2363.028 2.935 2.885 2.885 2.915 2.935 2.935 2.955 2.955 2.935 2.925
2382.318 2.985 2.995 2.965 3.025 3.015 2.965 2.915 2.895 2.955 2.945
2401.608 2.905 2.975 2.995 2.915 2.815 2.805 2.875 2.955 2.935 2.925
2420.898 2.925 2.865 2.835 2.835 2.925 2.975 2.965 2.945 2.915 2.895
2440.188 2.895 2.925 2.915 2.905 2.865 2.885 2.895 2.885 2.905 2.915
2459.478 2.915 2.915 2.925 2.935 2.945 2.955 2.975 3.005 3.045 3.025
2478.768 2.965 2.965 3.045 3.055 3.045 3.055 3.115 3.145 3.115 3.125
2498.058 3.135 3.125 3.145 3.215 3.255 3.235 3.235 3.205 3.205 3.285
2517.348 3.295 3.255 3.315 3.355 3.325 3.375 3.435 3.405 3.405 3.415
2536.638 3.405 3.405 3.395 3.355 3.355 3.385 3.405 3.415 3.405 3.355
2555.928 3.305 3.315 3.335 3.345 3.285 3.315 3.395 3.405 3.375 3.345
2575.218 3.345 3.345 3.355 3.315 3.335 3.325 3.315 3.365 3.385 3.365
2594.508 3.345 3.355 3.385 3.375 3.355 3.435 3.475 3.485 3.515 3.485
2613.798 3.485 3.575 3.605 3.545 3.555 3.635 3.665 3.625 3.615 3.735
2633.088 3.785 3.725 3.745 3.795 3.825 3.825 3.845 3.895 3.925 3.915
2652.378 3.935 4.035 4.075 4.065 4.105 4.115 4.155 4.215 4.175 4.175
2671.668 4.255 4.275 4.235 4.295 4.345 4.315 4.335 4.405 4.425 4.335
2690.958 4.275 4.355 4.365 4.355 4.415 4.355 4.345 4.335 4.345 4.415
2710.248 4.485 4.565 4.515 4.455 4.465 4.515 4.585 4.615 4.635 4.655
2729.538 4.685 4.715 4.755 4.805 4.875 4.895 4.915 4.985 5.035 4.955
2748.828 4.905 5.005 5.085 5.115 5.085 5.095 5.095 5.065 5.135 5.235
2768.118 5.225 5.265 5.355 5.405 5.405 5.465 5.555 5.605 5.685 5.745
2787.408 5.865 6.015 6.105 6.155 6.245 6.375 6.445 6.575 6.745 6.835
2806.698 6.995 7.185 7.405 7.645 7.795 7.915 8.115 8.355 8.535 8.755
2825.988 9.105 9.465 9.855 10.325 10.745 11.205 11.815 12.415 13.065 13.945
2845.278 14.995 16.095 17.355 18.865 20.525 22.315 24.215 26.285 28.345 30.315
2864.568 32.225 33.905 35.255 36.335 37.155 37.835 38.465 38.885 39.015 38.835
2883.858 38.465 37.955 37.355 36.635 35.755 34.965 34.475 34.375 34.665 35.275
2903.148 36.155 37.335 38.705 40.395 42.465 44.785 47.415 50.265 53.425 57.005
2922.438 60.885 64.925 68.875 72.735 76.355 79.565 82.325 84.345 85.565 85.935
2941.728 85.355 83.945 82.025 79.925 77.755 75.825 74.215 73.185 73.065 73.615
2961.018 74.655 75.945 76.855 76.785 75.235 72.275 68.275 63.265 57.335 50.845
2980.308 44.445 38.735 33.945 29.985 26.795 24.235 22.105 20.315 18.795 17.525
2999.598 16.425 15.465 14.755 14.225 13.675 13.045 12.575 12.325 11.965 11.485
3018.888 11.165 10.855 10.355 9.995 9.685 9.305 9.005 8.775 8.445 8.155
3038.178 7.985 7.755 7.545 7.385 7.195 7.075 6.955 6.835 6.785 6.685
3057.468 6.615 6.465 6.335 6.265 6.215 6.245 6.205 6.055 5.985 6.035
3076.758 6.025 5.895 5.755 5.685 5.575 5.475 5.435 5.315 5.215 5.105
3096.048 5.045 4.955 4.865 4.765 4.605 4.445 4.325 4.305 4.205 4.015
3115.338 3.905 3.805 3.745 3.785 3.695 3.655 3.595 3.435 3.385 3.375
3134.628 3.285 3.195 3.225 3.245 3.175 3.085 3.025 2.965 2.985 2.965
3153.918 2.865 2.835 2.835 2.835 2.835 2.755 2.725 2.735 2.725 2.715
3173.208 2.575 2.425 2.425 2.565 2.595 2.445 2.395 2.495 2.475 2.415
3192.498 2.425 2.395 2.325 2.315 2.315 2.295 2.245 2.225 2.185 2.135
3211.788 2.125 2.155 2.165 2.075 2.085 2.075 1.985 2.025 1.9067 1.7885
3231.078 2.005 2.085 2.025 2.005 1.9185 1.975 1.995 1.8906 1.8596 1.7949
3250.368 1.8274 1.8479 1.7586 1.755 1.6829 1.6422 1.6972 1.6111 1.5229 1.5396
3269.658 1.5252 1.5965 1.5486 1.4186 1.4895 1.4994 1.4693 1.4668 1.4972 1.4278
3288.948 1.3093 1.3171 1.3083 1.3186 1.3046 1.1606 1.1593 1.3218 1.3761 1.3068
3308.238 1.1458 1.1059 1.1335 1.1295 1.1282 1.0997 0.9503 0.8629 0.97636 1.0388
3327.528 0.96024 0.92203 0.95394 0.95353 0.9454 0.8572 0.822 0.8634 0.8379 0.8497
3346.818 0.97356 0.93728 0.8782 0.8923 0.913 1.00194 0.98799 0.926293 0.8603 0.8383
3366.108 0.762 0.731 0.8262 0.8987 0.9128 0.91753 0.888 0.813 0.8589 0.818
3385.398 0.741 0.734 0.754 0.788 0.787 0.823 0.8791 0.8558 0.8829 0.9607
3404.688 0.98671 1.02145 1.0848 1.0628 1.0556 1.1252 1.1943 1.3 1.3737 1.4221
3423.978 1.4053 1.4949 1.6175 1.6377 1.7149 1.7711 1.6685 1.6257 1.4914 1.3328
3443.269 1.4146 1.3672 1.2627 1.2757 1.2789 1.233 1.1526 1.0462 0.95065 0.782
3462.559 0.755 0.8295 0.736 0.701 0.766 0.667 0.586 0.582 0.565 0.574
3481.849 0.489 0.393 0.308 0.283 0.411 0.445 0.393 0.397 0.426 0.382
3501.139 0.305 0.325 0.341 0.274 0.234 0.363 0.328 0.261 0.32 0.355
3520.429 0.333 0.218 0.182 0.206 0.17 0.113 0.083 0.103 0.106 0.166
3539.719 0.287 0.273 0.22 0.183 0.233 0.252 0.268 0.148 0.067 0.158
3559.009 0.076 0.01 0.049 0.05 0.156 0.167 0.087 0.121 0.082 0.017
3578.299 0.11 0.276 0.273 0.139 0.124 0.206 0.28 0.231 0.198 0.244
3597.589 0.163 0.162 0.201 0.183 0.2 0.214 0.181 0.174 0.149 0.143
3616.879 0.174 0.178 0.175 0.208 0.292 0.287 0.285 0.26 0.206 0.192
3636.169 0.23 0.284 0.209 0.142 0.086 0.102 0.132 0.134 0.172 0.248
3655.459 0.143 0.09 0.204 0.225 0.227 0.13 0.099 0.145 0.223 0.262
3674.749 0.13 0.049 0.102 0.15 0.093 0.157 0.196 0.227 0.314 0.229
3694.039 0.128 0.077 0.069 0.149 0.267 0.237 0.163 0.133 0.2 0.261
3713.329 0.105 0.004 0.018 0 0.025 0.077 0.189 0.249 0.191 0.164
3732.619 0.154 0.188 0.175 0.112 0.095 0.117 0.202 0.391 0.388 0.174
3751.909 0.157 0.264 0.261 0.188 0.166 0.164 0.266 0.305 0.236 0.251
3771.199 0.249 0.249 0.212 0.258 0.25 0.181 0.197 0.238 0.23 0.203
3790.489 0.307 0.446 0.364 0.217 0.288 0.253 0.18 0.18 0.193 0.236
3809.779 0.293 0.297 0.22 0.324 0.363 0.281 0.31 0.302 0.333 0.399
3829.069 0.41 0.385 0.395 0.382 0.234 0.132 0.205 0.318 0.404 0.444
3848.359 0.388 0.341 0.29 0.196 0.281 0.25 0.196 0.292 0.361 0.295
3867.649 0.136 0.227 0.367 0.371 0.315 0.163 0.086 0.112 0.147 0.261
3886.939 0.354 0.353 0.267 0.181 0.182 0.164 0.142 0.244 0.306 0.265
3906.229 0.32 0.361 0.323 0.35 0.408 0.39 0.365 0.373 0.389 0.264
3925.519 0.095 0.124 0.24 0.287 0.251 0.227 0.299 0.297 0.179 0.202
3944.809 0.294 0.367 0.365 0.434 0.438 0.354 0.368 0.43 0.442 0.421
3964.099 0.415 0.4 0.496 0.423 0.449 0.621 0.512 0.482 0.489 0.502
3983.389 0.506 0.495 0.512 0.451 0.404 0.29 0.288 0.511 0.572 0.535
##END=
