##TITLE=3,5-Dibromobenzoic acid
##JCAMP-DX=4.24
##DATA TYPE=INFRARED SPECTRUM
##ORIGIN=EPA-IR VAPOR PHASE LIBRARY
##OWNER=SRD/NIST
Collection (C) 2018 copyright by the U.S. Secretary of Commerce
on behalf of the United States of America. All rights reserved.
##CAS REGISTRY NO=618-58-6
##MOLFORM=C 7 H 4 Br 2 O 2
##$NIST SOURCE=MSDC-IR
##STATE=gas
##XUNITS=1/CM
##YUNITS=ABSORBANCE
##XFACTOR=1.
##YFACTOR=0.001
##DELTAX=1.92898
##FIRSTX=549.8
##LASTX=4000.7
##FIRSTY=14.033
##MAXX=4000.7
##MINX=549.759
##MAXY=0.200233
##MINY=0
##NPOINTS=1790
##XYDATA=(X++(Y..Y))
549.759 14.033 14.043 14.453 14.663 14.573 14.183 13.783 13.613 13.993 14.733
569.049 15.553 17.833 20.693 23.923 27.483 31.603 33.633 30.853 27.003 23.463
588.339 20.213 16.943 14.023 12.193 11.203 10.813 9.863 8.463 7.613 6.743
607.628 6.033 5.473 4.683 4.063 3.723 3.913 4.353 4.623 4.843 5.353
626.918 5.713 6.113 7.443 9.463 12.823 19.723 31.233 46.263 58.313 59.213
646.208 58.043 58.003 47.953 31.933 18.963 11.783 8.823 7.173 6.003 5.653
665.498 5.383 4.603 3.893 3.503 2.963 2.353 2.233 2.083 1.583 1.2536
684.787 1.463 1.533 1.493 1.403 1.0693 1.126 1.383 1.593 1.643 1.803
704.077 2.133 2.303 2.653 3.053 3.513 4.493 5.323 5.673 6.093 6.763
723.367 7.273 7.223 7.883 9.233 10.853 13.613 17.623 22.893 29.743 36.883
742.657 42.193 45.803 47.443 46.003 41.193 34.833 29.543 27.263 26.933 27.043
761.947 27.823 31.613 33.203 26.433 20.783 17.633 13.593 10.113 7.583 6.403
781.236 5.603 5.083 4.503 4.183 4.053 3.673 3.383 3.003 2.823 2.823
800.526 2.333 1.943 1.973 1.763 1.503 1.683 1.643 1.2323 1.063 1.1531
819.816 1.353 1.773 2.083 1.983 1.733 1.763 2.123 2.363 2.273 2.003
839.106 1.863 1.633 1.573 2.013 2.003 1.853 1.923 1.843 1.993 2.243
858.395 2.823 3.673 4.683 5.993 7.653 9.803 11.443 12.573 12.993 11.703
877.685 9.023 6.783 4.963 3.483 2.673 2.003 1.783 1.673 1.643 1.793
896.975 1.883 1.973 2.303 2.673 2.913 3.123 3.203 3.283 2.853 2.503
916.265 2.273 1.773 1.573 1.3159 1.443 1.453 0.9715 1.0547 1.0933 0.9254
935.555 1.1432 1.1515 1.078 1.1063 1.2341 1.2539 1.2479 1.473 1.503 1.2716
954.844 1.014 1.032 1.1334 1.027 0.7199 0.5985 1.0142 1.2611 0.8793 0.8206
974.134 1.2654 1.2705 1.2467 1.2966 1.3045 1.413 1.307 1.473 1.763 1.693
993.424 1.523 1.543 1.503 1.613 1.623 1.643 1.673 1.413 1.2996 1.493
1012.714 1.983 2.033 1.733 1.723 1.853 1.973 1.923 1.963 1.943 1.953
1032.003 2.083 2.013 2.213 2.863 3.013 3.013 3.003 3.123 3.463 3.343
1051.293 3.653 3.623 3.453 3.993 4.443 4.333 3.613 3.653 4.473 5.193
1070.583 5.463 5.903 7.133 8.883 10.613 13.473 17.633 21.983 26.933 31.143
1089.873 33.733 35.723 35.853 34.883 35.053 35.693 37.153 38.633 40.033 42.093
1109.163 43.293 42.413 39.933 36.513 33.643 31.533 29.073 26.693 24.983 22.893
1128.452 20.823 18.953 16.803 14.903 13.153 11.263 10.553 9.993 9.243 9.393
1147.742 9.793 10.553 10.983 11.543 13.053 15.163 18.143 22.223 26.943 32.843
1167.032 40.783 49.873 60.423 73.913 88.393 101.423 110.643 114.263 111.873 103.303
1186.322 88.723 69.533 51.273 37.513 27.863 22.073 18.343 15.853 14.103 12.923
1205.611 12.393 12.133 12.243 12.123 12.153 13.003 13.113 12.573 12.723 12.633
1224.901 12.483 11.603 10.853 10.513 10.603 11.243 11.643 11.973 12.213 12.703
1244.191 12.613 11.973 10.843 9.593 8.933 8.313 7.543 7.313 7.463 6.933
1263.481 6.673 6.963 7.323 7.193 6.853 7.093 7.423 7.643 8.243 9.293
1282.771 10.003 10.223 10.743 11.723 12.363 12.843 13.653 14.843 16.073 17.283
1302.060 18.743 20.513 22.563 24.803 27.453 30.463 33.903 37.923 41.813 44.763
1321.350 46.333 46.123 43.983 39.893 34.273 27.983 22.043 17.273 13.993 11.873
1340.640 10.603 10.113 10.043 10.293 10.753 11.303 11.973 12.733 13.723 15.013
1359.930 16.513 18.283 20.323 22.453 24.463 26.263 27.713 28.373 27.903 26.133
1379.219 23.273 19.833 16.053 12.473 9.523 7.513 6.543 6.213 6.203 6.553
1398.509 7.193 8.083 9.353 11.023 13.023 15.463 18.353 21.323 24.063 26.523
1417.799 28.763 30.773 32.253 32.503 31.433 29.353 26.213 21.833 16.743 12.153
1437.089 9.053 7.473 6.543 5.733 4.913 4.093 3.433 3.093 2.843 2.553
1456.378 2.423 2.423 2.483 2.553 2.583 2.623 2.663 2.603 2.453 2.453
1475.668 2.393 2.293 2.263 2.183 2.183 2.143 1.823 1.703 1.663 1.563
1494.958 1.503 1.513 1.573 1.443 1.343 1.2947 1.2244 1.323 1.423 1.483
1514.248 1.693 2.053 2.383 2.753 3.343 3.893 4.593 5.503 6.363 7.273
1533.538 8.243 9.053 9.983 11.383 13.183 15.393 18.393 22.323 27.113 32.993
1552.827 39.303 45.263 49.423 51.013 49.863 45.683 38.913 31.223 24.233 19.123
1572.117 15.993 14.093 12.733 11.703 10.863 9.583 8.153 6.933 5.773 4.793
1591.407 4.073 3.413 2.833 2.363 2.043 1.763 1.493 1.433 1.463 1.343
1610.697 1.18 1.2543 1.292 1.163 1.1492 1.2373 1.23 1.1826 1.3106 1.363
1629.986 1.363 1.403 1.413 1.513 1.573 1.583 1.763 1.823 1.683 1.663
1649.276 1.533 1.383 1.383 1.323 1.353 1.383 1.423 1.533 1.633 1.763
1668.566 1.943 1.963 1.903 1.863 1.893 1.933 1.893 1.833 1.673 1.633
1687.856 1.573 1.503 1.633 1.653 1.653 1.753 1.923 2.123 2.373 2.783
1707.146 3.353 4.113 5.123 6.483 7.903 9.433 11.273 12.853 13.103 12.053
1726.435 10.933 10.063 9.203 8.273 7.673 7.663 8.073 8.843 9.923 11.443
1745.725 13.373 15.803 19.533 25.323 34.373 48.753 71.083 102.543 140.663 176.283
1765.015 197.203 200.233 189.273 163.853 120.893 74.793 42.663 25.973 17.993 13.783
1784.305 11.453 9.973 9.013 8.423 8.133 7.983 7.923 8.123 8.443 9.133
1803.594 10.123 11.243 12.453 13.413 14.163 14.413 13.623 11.603 9.273 7.403
1822.884 5.733 4.253 3.193 2.503 2.033 1.783 1.613 1.463 1.383 1.2538
1842.174 1.1218 1.1676 1.1758 1.1151 1.0373 0.9944 0.9932 1.0713 1.098 1.0388
1861.464 0.9981 0.9484 0.9434 0.8916 0.9064 0.9158 0.9436 1.0429 1.1305 1.2847
1880.754 1.463 1.643 1.833 1.863 1.713 1.543 1.493 1.333 1.0329 0.8442
1900.043 0.7947 0.7643 0.6973 0.6551 0.645 0.6288 0.6194 0.7193 0.8631 0.9032
1919.333 0.8437 0.8136 0.9126 0.9153 0.7137 0.7201 0.7591 0.7173 0.7812 0.6744
1938.623 0.5383 0.5309 0.5829 0.6311 0.6545 0.6601 0.6184 0.6503 0.7031 0.6713
1957.913 0.6754 0.7637 0.7968 0.6922 0.5995 0.6302 0.5981 0.5589 0.6756 0.7135
1977.202 0.6128 0.5704 0.625 0.6183 0.6053 0.6754 0.6555 0.6676 0.6663 0.7474
1996.492 0.8229 0.7352 0.8151 0.8855 0.862 0.9297 0.9231 0.792 0.7402 0.6961
2015.782 0.6574 0.731 0.7257 0.655 0.6698 0.6576 0.4741 0.327758 0.4228 0.4534
2035.072 0.36207 0.34944 0.40817 0.35852 0.35992 0.4914 0.4582 0.33893 0.3801 0.4938
2054.362 0.514 0.4653 0.41247 0.5049 0.5774 0.5111 0.5006 0.4675 0.40007 0.4418
2073.651 0.501 0.5664 0.5989 0.4899 0.4726 0.4563 0.40984 0.39751 0.37514 0.4275
2092.941 0.4336 0.36868 0.33921 0.31548 0.33503 0.37118 0.34748 0.3388 0.41126 0.4607
2112.231 0.34469 0.2393 0.31774 0.39252 0.4648 0.5055 0.40924 0.4411 0.4471 0.37773
2131.521 0.3901 0.4382 0.4712 0.4515 0.5062 0.5467 0.5194 0.541 0.5768 0.6765
2150.810 0.749 0.7377 0.7002 0.6493 0.6173 0.5203 0.41334 0.4327 0.5323 0.5918
2170.100 0.4895 0.4832 0.5745 0.6574 0.7619 0.744 0.7008 0.6291 0.6287 0.682
2189.390 0.681 0.6948 0.7072 0.7387 0.6696 0.5792 0.6153 0.639 0.5895 0.5322
2208.680 0.6364 0.765 0.7384 0.665 0.5815 0.4728 0.4532 0.4601 0.4633 0.4464
2227.970 0.5113 0.4612 0.332004 0.41128 0.42114 0.41162 0.4416 0.42189 0.39027 0.39038
2247.259 0.4561 0.4669 0.42184 0.5142 0.5594 0.5536 0.5123 0.4575 0.5206 0.5579
2266.549 0.4998 0.4831 0.5228 0.5285 0.5151 0.41051 0.4798 0.5827 0.4938 0.4811
2285.839 0.4816 0.4678 0.42076 0.39062 0.38699 0.35386 0.39987 0.4638 0.4276 0.4941
2305.129 0.5064 0.4634 0.41482 0.2778 0.34592 0.39845 0.34295 0.3075 0.3024 0.4395
2324.418 0.4783 0.437 0.4526 0.4458 0.5337 0.615 0.5246 0.39935 0.4536 0.5277
2343.708 0.6054 0.609 0.5732 0.677 0.7262 0.6278 0.695 0.7991 0.7477 0.7884
2362.998 0.8037 0.6811 0.6028 0.6858 0.6342 0.6217 0.6899 0.665 0.7008 0.6452
2382.288 0.6654 0.6653 0.6082 0.6786 0.6557 0.6039 0.5825 0.5226 0.4859 0.4773
2401.578 0.5117 0.6383 0.6391 0.6216 0.671 0.6491 0.6499 0.6836 0.6877 0.6171
2420.867 0.5511 0.5508 0.4882 0.41028 0.4651 0.5135 0.5342 0.4709 0.4518 0.5744
2440.157 0.5784 0.5173 0.4903 0.4805 0.4708 0.4502 0.4318 0.5644 0.6774 0.5232
2459.447 0.4784 0.5387 0.578 0.6883 0.6097 0.5229 0.5072 0.4521 0.456 0.5752
2478.737 0.6598 0.626 0.5717 0.5104 0.5537 0.5065 0.37859 0.39631 0.4812 0.5184
2498.026 0.4962 0.4634 0.5506 0.6212 0.5596 0.5183 0.4881 0.4276 0.453 0.4913
2517.316 0.4861 0.4962 0.4786 0.4583 0.4101 0.4722 0.5777 0.4684 0.42282 0.5871
2536.606 0.627 0.542 0.4936 0.38187 0.464 0.6279 0.5282 0.4537 0.4363 0.4307
2555.896 0.39709 0.4276 0.5719 0.575 0.6214 0.6764 0.5425 0.502 0.6055 0.6423
2575.186 0.5622 0.4351 0.37683 0.4303 0.4472 0.5186 0.5795 0.6013 0.6365 0.5855
2594.475 0.4956 0.5753 0.7191 0.648 0.5464 0.4266 0.38771 0.4525 0.4233 0.3775
2613.765 0.38785 0.3042 0.2504 0.2757 0.2758 0.35215 0.454 0.4651 0.4519 0.4475
2633.055 0.2443 0.147 0.22 0.37809 0.42186 0.2655 0.37057 0.5673 0.5017 0.38821
2652.345 0.39892 0.4688 0.5574 0.4907 0.39902 0.37777 0.2818 0.34314 0.4305 0.3966
2671.634 0.5052 0.52 0.41911 0.4726 0.4934 0.4945 0.4266 0.325665 0.40027 0.40597
2690.924 0.33929 0.39487 0.5315 0.41375 0.3822 0.41063 0.2285 0.2636 0.40589 0.4764
2710.214 0.4762 0.4335 0.39628 0.327023 0.36334 0.4976 0.5356 0.35417 0.18 0.31903
2729.504 0.38646 0.33496 0.31791 0.2522 0.2801 0.38498 0.4429 0.4775 0.5839 0.6676
2748.794 0.545 0.35658 0.34742 0.4979 0.5856 0.5692 0.5893 0.5541 0.562 0.6762
2768.083 0.623 0.5376 0.5929 0.6274 0.5966 0.591 0.5511 0.35447 0.2566 0.34853
2787.373 0.41937 0.4482 0.433 0.2642 0.2323 0.45 0.5653 0.4931 0.38809 0.36902
2806.663 0.35895 0.38977 0.5115 0.6075 0.6281 0.4917 0.4824 0.6371 0.6787 0.5925
2825.953 0.6193 0.622 0.5926 0.6482 0.6638 0.6689 0.5437 0.5402 0.5686 0.6516
2845.242 0.872 0.885 0.8161 0.7823 0.8298 0.8631 0.8283 0.9649 0.9496 0.75
2864.532 0.6945 0.7719 0.6512 0.6173 0.6628 0.5322 0.4814 0.6091 0.8732 0.7892
2883.822 0.5608 0.4727 0.4684 0.4718 0.3868 0.2813 0.33944 0.36886 0.34053 0.4527
2903.112 0.3793 0.208 0.174 0.38039 0.6065 0.4865 0.2708 0.36975 0.5488 0.4971
2922.401 0.4396 0.36855 0.326473 0.5131 0.493 0.4269 0.5722 0.6219 0.5317 0.5314
2941.691 0.5332 0.4734 0.4692 0.40452 0.40248 0.4262 0.286 0.2285 0.3183 0.3993
2960.981 0.5158 0.5797 0.5166 0.34094 0.39263 0.5148 0.5627 0.5658 0.5793 0.5613
2980.271 0.4409 0.476 0.542 0.6114 0.6892 0.6159 0.671 0.7467 0.8838 1.0082
2999.561 0.923 0.7052 0.5355 0.6068 0.7066 0.7746 0.8045 0.6868 0.6228 0.5621
3018.850 0.4514 0.4386 0.2874 0.2833 0.4174 0.5625 0.7219 0.6903 0.6314 0.5337
3038.140 0.4439 0.4999 0.4929 0.4863 0.40802 0.33327 0.4525 0.5197 0.6497 0.7165
3057.430 0.5759 0.6947 0.8009 0.6724 0.664 0.7757 0.9243 0.9712 0.9619 1.0388
3076.720 1.533 2.083 2.513 3.073 3.283 3.303 3.163 2.903 2.673 2.253
3096.009 1.833 1.333 1.0527 0.9643 0.6852 0.6229 0.6271 0.7057 0.7268 0.40272
3115.299 0.301 0.41335 0.38612 0.5075 0.6023 0.5126 0.35376 0.41768 0.6607 0.7142
3134.589 0.5701 0.569 0.7364 0.7221 0.6912 0.6642 0.6481 0.7017 0.6144 0.493
3153.879 0.39763 0.5558 0.5147 0.35117 0.38712 0.5065 0.6328 0.42137 0.32081 0.39817
3173.169 0.5384 0.6754 0.7961 0.7461 0.5098 0.2512 0.21 0.34654 0.3733 0.522
3192.458 0.6489 0.5934 0.39438 0.3024 0.37348 0.41998 0.4968 0.503 0.5829 0.40964
3211.748 0.139 0.155 0.221 0.2715 0.2862 0.40253 0.2598 0 0.106 0.217
3231.038 0.2265 0.24 0.3114 0.2997 0.41864 0.4491 0.32843 0.4542 0.34006 0.171
3250.328 0.3111 0.322527 0.173 0.033 0.005 0.184 0.3026 0.3022 0.2307 0.051
3269.617 0.071 0.2575 0.326603 0.3062 0.34096 0.41831 0.457 0.4821 0.4288 0.36777
3288.907 0.33739 0.40027 0.4921 0.4488 0.5816 0.4842 0.183 0.2925 0.3993 0.33402
3308.197 0.37153 0.37357 0.3072 0.38707 0.5457 0.4528 0.074 0.19 0.4753 0.4317
3327.487 0.4991 0.5258 0.40993 0.2933 0.213 0.2947 0.4494 0.41919 0.2918 0.40657
3346.777 0.4594 0.4798 0.5021 0.41858 0.328826 0.2835 0.2769 0.121 0.136 0.2773
3366.066 0.3107 0.38569 0.4901 0.4021 0.252 0.3077 0.4237 0.37494 0.33573 0.4392
3385.356 0.4695 0.38703 0.33851 0.38031 0.5871 0.5029 0.3906 0.647 0.5978 0.38326
3404.646 0.40966 0.4971 0.2802 0.082 0.134 0.2405 0.3655 0.466 0.5362 0.5091
3423.936 0.4622 0.4486 0.4243 0.36279 0.501 0.4478 0.3002 0.5168 0.5644 0.42059
3443.225 0.37013 0.41373 0.4907 0.5445 0.517 0.513 0.5158 0.6069 0.664 0.6425
3462.515 0.669 0.613 0.7441 0.7814 0.774 0.9285 0.8557 0.6819 0.6923 0.6061
3481.805 0.725 0.9036 0.7794 0.5582 0.4927 0.5173 0.5439 0.9012 0.982 0.9302
3501.095 1.1234 1.1604 1.0005 1.14 1.433 1.713 1.933 1.693 1.793 1.943
3520.385 1.893 1.903 1.603 1.2834 1.1556 1.0498 1.0415 1.0498 0.9672 0.95
3539.674 0.9659 0.8753 0.8601 0.9087 1.0325 1.2999 1.1534 1.373 1.783 2.123
3558.964 2.973 3.983 5.283 7.543 10.853 15.223 21.083 29.173 39.453 50.353
3578.254 60.053 66.373 67.463 63.493 55.893 45.073 32.353 20.943 12.463 7.183
3597.544 4.493 3.073 2.173 1.553 1.2104 1.0826 1.064 0.8887 0.7122 0.6891
3616.833 0.7257 0.744 0.7532 0.7703 0.908 0.9689 0.7678 0.6694 0.7206 0.7073
3636.123 0.6714 0.6931 0.6905 0.5865 0.5949 0.887 0.8545 0.4792 0.2689 0.4682
3655.413 0.7227 0.6403 0.7145 0.6198 0.6234 0.7081 0.5651 0.5637 0.58 0.6098
3674.703 0.6026 0.8014 0.9458 0.7803 0.8351 0.9421 0.7138 0.441 0.598 0.8292
3693.993 0.6667 0.39239 0.4403 0.5664 0.5775 0.5647 0.5147 0.6131 0.5457 0.4849
3713.282 0.5792 0.4788 0.36867 0.484 0.6756 0.6797 0.6886 0.6259 0.4946 0.5275
3732.572 0.34809 0.305 0.5719 0.6253 0.5267 0.6247 0.5898 0.4895 0.5887 0.4496
3751.862 0.196 0.2953 0.4299 0.34383 0.41193 0.40621 0.2513 0.36903 0.4796 0.36721
3771.152 0.3875 0.4529 0.474 0.34637 0.198 0.4314 0.6657 0.5177 0.4506 0.4529
3790.441 0.32074 0.330378 0.168 0.177 0.34589 0.161 0.097 0.285 0.2488 0.211
3809.731 0.38709 0.35808 0.2662 0.195 0.2669 0.536 0.5695 0.4371 0.3099 0.37444
3829.021 0.4996 0.5446 0.4828 0.177 0.149 0.31503 0.33479 0.4595 0.5224 0.5691
3848.311 0.4421 0.2865 0.34021 0.2558 0.209 0.2687 0.214 0.327089 0.4637 0.5063
3867.601 0.35085 0.101 0.2887 0.504 0.4631 0.312 0.084 0.105 0.174 0.2914
3886.890 0.499 0.6196 0.5373 0.34966 0.4788 0.5587 0.4902 0.2409 0.186 0.4303
3906.180 0.5253 0.5936 0.36938 0.174 0.39914 0.39523 0.177 0.2279 0.34916 0.38845
3925.470 0.4769 0.4452 0.2786 0.38242 0.39462 0.2525 0.3149 0.33306 0.37531 0.5721
3944.760 0.5781 0.40568 0.4445 0.3013 0.125 0.09 0.38013 0.4606 0.3531 0.40279
3964.049 0.4313 0.4575 0.31865 0.3019 0.39134 0.222 0.106 0.174 0.189 0.36362
3983.339 0.36944 0.34352 0.5958 0.40535 0.37249 0.5148 0.34664 0.2585 0.31497 0.4563
##END=
