##TITLE=Ethyl 3,5-dinitrobenzoate
##JCAMP-DX=4.24
##DATA TYPE=INFRARED SPECTRUM
##ORIGIN=EPA-IR VAPOR PHASE LIBRARY
##OWNER=SRD/NIST
Collection (C) 2018 copyright by the U.S. Secretary of Commerce
on behalf of the United States of America. All rights reserved.
##CAS REGISTRY NO=618-71-3
##MOLFORM=C 9 H 8 N 2 O 6
##$NIST SOURCE=MSDC-IR
##STATE=gas
##XUNITS=1/CM
##YUNITS=ABSORBANCE
##XFACTOR=1.
##YFACTOR=0.001
##DELTAX=1.92934
##FIRSTX=549.9
##LASTX=3999.5
##FIRSTY=2.1656
##MAXX=3999.53
##MINX=549.863
##MAXY=0.25167
##MINY=0
##NPOINTS=1789
##XYDATA=(X++(Y..Y))
549.863 2.1656 2.15309 2.14916 2.1982 2.06914 1.909 1.92 1.825 1.7 1.76
569.156 1.75 1.615 1.578 1.541 1.52 1.574 1.545 1.499 1.462 1.473
588.450 1.392 1.341 1.334 1.347 1.316 1.267 1.339 1.285 1.161 1.177
607.743 1.25 1.227 1.315 1.378 1.246 1.116 1.17 1.198 1.19 1.321
627.037 1.405 1.377 1.391 1.44 1.391 1.445 1.58 1.633 1.773 1.939
646.330 2.0137 2.1797 2.4648 2.6476 2.7851 2.9586 3.16 3.38 3.48 3.46
665.624 3.38 3.25 3.18 3.17 3.07 2.9932 2.9325 2.9271 3.09 3.23
684.917 3.32 3.49 3.67 3.85 4.17 4.6 5.13 5.89 6.91 8.38
704.210 10.39 13.13 16.73 21.37 27.66 35.77 45.13 54.85 65.55 76.84
723.504 84.22 86.33 84.25 77.81 69.27 58.86 45.71 32.71 22.79 16.32
742.797 12.3 9.82 8.26 7.13 6.27 5.72 5.32 5 4.86 4.86
762.091 5.04 5.45 5.91 6.55 7.3 8.1 8.57 8.25 7.48 6.74
781.384 6.08 5.52 5.05 4.75 4.62 4.52 4.42 4.24 4.12 4.01
800.678 3.8 3.67 3.65 3.63 3.61 3.6 3.66 3.85 4.2 4.65
819.971 5.33 6.29 7.26 8.13 8.86 9.26 9.22 8.77 8.11 7.48
839.264 7.02 6.69 6.54 6.57 6.78 7.15 7.53 8.07 8.81 9.62
858.558 10.37 10.81 10.85 10.44 9.63 8.52 7.34 6.31 5.53 4.96
877.851 4.56 4.31 4.12 4.02 3.98 3.88 3.86 3.93 4.03 4.21
897.145 4.55 5.03 5.71 6.63 7.96 9.79 12.04 14.64 17.26 19.49
916.438 21.2 22.39 22.89 22.41 21.1 19.3 17.12 14.82 12.5 10.32
935.732 8.46 6.97 5.86 5.1 4.61 4.26 4 3.83 3.68 3.6
955.025 3.62 3.7 3.8 3.88 3.95 4.06 4.18 4.24 4.3 4.41
974.318 4.49 4.58 4.73 4.84 5.01 5.19 5.41 5.71 6.12 6.7
993.612 7.48 8.46 9.65 11.07 12.62 14.35 16.33 18.51 20.92 23.55
1012.905 26.37 29.11 31.27 32.42 32.38 31.2 28.98 26.01 22.74 19.6
1032.199 16.78 14.51 12.71 11.3 10.25 9.38 8.77 8.35 8.02 7.84
1051.492 7.86 8.09 8.62 9.49 10.81 12.67 15.18 18.3 21.71 24.99
1070.786 27.78 29.68 30.58 30.32 29.04 27.35 25.4 23.62 22.28 21.23
1090.079 20.59 20.33 20.22 20.09 19.85 19.29 18.47 17.48 16.3 15.18
1109.372 14.18 13.28 12.72 12.47 12.38 12.4 12.65 13.11 13.58 14.21
1128.666 14.98 15.96 17.24 18.63 20.29 22.54 25.51 29.45 34.52 41.02
1147.959 49.41 59.55 71.03 83.29 95.15 105.32 112.54 115.76 114.59 109.33
1167.253 100.87 90.5 79.5 68.97 59.42 51.19 44.42 38.58 33.16 28.45
1186.546 24.49 20.94 18.05 15.84 14.36 13.31 12.44 11.82 11.47 11.38
1205.840 11.21 11.02 11.07 11.52 12.01 12.35 12.61 12.78 13.18 13.62
1225.133 14.03 14.52 14.94 15.45 16.26 17.1 18.16 19.66 21.37 23.41
1244.426 26.07 29.45 33.84 39.59 46.97 56.51 68.84 84.61 104.59 129.1
1263.720 157.42 187.65 216.34 239.08 251.67 251.53 238.45 214.6 184.42 153.4
1283.013 125.8 103.65 86.66 73.58 63.44 55.36 49 44.24 40.87 38.58
1302.307 37.21 36.63 36.54 36.83 37.19 37.4 37.17 36.34 35.03 33.34
1321.600 31.73 30.82 31.28 33.8 38.9 47.01 58.76 74.64 94.54 116.99
1340.894 138.79 155.32 163.49 162.97 153.84 136.03 112.96 90.56 72.56 59.32
1360.187 49.76 42.75 37.58 33.87 31.19 28.99 26.86 24.64 22.27 19.78
1379.480 17.3 15.18 13.6 12.54 11.88 11.44 11.1 10.92 10.87 10.86
1398.774 10.97 11.16 11.4 11.76 12.13 12.45 12.77 12.96 12.93 12.75
1418.067 12.41 11.92 11.46 11.17 10.93 10.77 10.67 10.54 10.37 10.26
1437.361 10.17 10.15 10.3 10.67 11.21 11.98 13.01 14.2 15.58 16.92
1456.654 18.05 18.84 19.15 18.99 18.45 17.77 17.22 16.88 16.64 16.39
1475.948 16.02 15.5 14.9 14.33 13.74 13.2 12.86 12.7 12.71 12.85
1495.241 13.19 13.75 14.49 15.52 16.82 18.48 20.66 23.14 25.66 28.12
1514.534 29.97 30.7 30.04 28.36 26.21 24.16 22.34 21.05 20.46 20.66
1533.828 21.82 23.97 27.23 32.38 39.67 49.7 63.83 83.12 108.68 141.02
1553.121 175.94 208.39 228.17 230.82 216.13 187.42 147.56 106.49 73.53 51.37
1572.415 38.68 31.66 27.63 25.4 24.42 24.31 24.82 25.89 27.47 29.28
1591.708 31.25 33.16 34.56 35.09 34.46 32.46 29.22 25.46 22.02 19.38
1611.002 17.74 17.12 17.5 18.82 20.74 23.03 25.35 27.13 27.87 27.28
1630.295 25.48 22.79 19.58 16.3 13.62 11.62 10.21 9.19 8.27 7.5
1649.588 6.83 6.27 5.85 5.62 5.47 5.4 5.37 5.37 5.4 5.42
1668.882 5.38 5.27 5.13 4.98 4.87 4.81 4.77 4.76 4.76 4.83
1688.175 5.07 5.3 5.53 5.88 6.26 6.71 7.27 7.93 8.55 9.08
1707.469 9.56 9.97 10.32 10.65 10.97 11.31 11.72 12.26 12.93 13.75
1726.762 14.76 16.08 17.93 20.69 25.03 31.29 40.33 53.7 71.11 91.86
1746.056 112.64 128.97 137.35 137.39 128.86 111.24 87.56 64.79 46.31 33.07
1765.349 24.49 19 15.51 13.37 12.07 11.29 10.82 10.53 10.26 10.01
1784.642 9.77 9.4 8.93 8.41 7.79 7.13 6.52 5.95 5.47 5.07
1803.936 4.67 4.32 4.15 4.06 3.94 3.88 3.86 3.83 3.85 3.9
1823.229 3.94 3.96 4 4.05 4.1 4.18 4.25 4.3 4.3 4.31
1842.523 4.33 4.37 4.39 4.35 4.31 4.29 4.24 4.18 4.13 4.06
1861.816 3.99 3.91 3.88 3.83 3.75 3.68 3.59 3.5 3.38 3.22
1881.110 3.0466 2.886 2.7721 2.5939 2.4066 2.2738 2.1615 2.07425 1.9771 1.835
1900.403 1.752 1.729 1.635 1.558 1.532 1.504 1.487 1.48 1.466 1.434
1919.696 1.441 1.444 1.433 1.452 1.464 1.466 1.472 1.485 1.48 1.478
1938.990 1.524 1.53 1.529 1.567 1.58 1.587 1.593 1.593 1.597 1.58
1958.283 1.577 1.55 1.485 1.496 1.51 1.466 1.441 1.427 1.418 1.389
1977.577 1.353 1.35 1.366 1.351 1.323 1.319 1.306 1.301 1.306 1.324
1996.870 1.332 1.367 1.432 1.443 1.446 1.464 1.48 1.516 1.556 1.595
2016.164 1.638 1.616 1.576 1.61 1.644 1.645 1.669 1.652 1.611 1.567
2035.457 1.529 1.519 1.52 1.515 1.463 1.45 1.455 1.42 1.398 1.384
2054.750 1.369 1.335 1.332 1.346 1.357 1.402 1.411 1.425 1.47 1.483
2074.044 1.471 1.482 1.504 1.511 1.522 1.533 1.514 1.481 1.468 1.49
2093.337 1.493 1.474 1.465 1.434 1.404 1.39 1.362 1.337 1.332 1.316
2112.631 1.336 1.373 1.373 1.358 1.333 1.334 1.353 1.367 1.357 1.348
2131.924 1.367 1.383 1.355 1.347 1.362 1.343 1.31 1.304 1.301 1.262
2151.218 1.268 1.221 1.182 1.193 1.192 1.209 1.214 1.245 1.23 1.2
2170.511 1.242 1.255 1.237 1.263 1.272 1.247 1.242 1.255 1.283 1.313
2189.804 1.307 1.299 1.28 1.278 1.27 1.233 1.222 1.181 1.139 1.152
2209.098 1.138 1.114 1.13 1.103 1.081 1.102 1.111 1.132 1.129 1.107
2228.391 1.114 1.102 1.114 1.131 1.117 1.114 1.119 1.124 1.112 1.09
2247.685 1.079 1.08 1.096 1.103 1.111 1.099 1.079 1.11 1.138 1.144
2266.978 1.12 1.097 1.143 1.18 1.154 1.146 1.153 1.149 1.165 1.17
2286.272 1.144 1.13 1.137 1.148 1.132 1.126 1.152 1.184 1.207 1.238
2305.565 1.256 1.27 1.3 1.308 1.293 1.323 1.38 1.372 1.369 1.377
2324.858 1.36 1.304 1.281 1.341 1.339 1.253 1.228 1.239 1.233 1.231
2344.152 1.215 1.209 1.22 1.205 1.19 1.158 1.137 1.181 1.149 1.091
2363.445 1.119 1.156 1.169 1.144 1.163 1.214 1.233 1.262 1.275 1.237
2382.739 1.233 1.25 1.242 1.212 1.186 1.179 1.173 1.161 1.135 1.12
2402.032 1.122 1.112 1.089 1.112 1.156 1.151 1.154 1.179 1.183 1.196
2421.326 1.222 1.249 1.234 1.203 1.214 1.233 1.255 1.286 1.256 1.203
2440.619 1.204 1.201 1.176 1.178 1.196 1.214 1.232 1.237 1.257 1.265
2459.912 1.264 1.322 1.37 1.392 1.443 1.46 1.47 1.439 1.398 1.387
2479.206 1.316 1.237 1.199 1.14 1.06 1.05 1.05 1.04 1.05 1.06
2498.499 1.05 1.086 1.106 1.104 1.112 1.102 1.087 1.072 1.067 1.066
2517.793 1.02 1 1 1.01 0.99 0.96 0.96 0.96 0.99 1.01
2537.086 0.99 0.99 0.97 0.92 0.93 0.93 0.91 0.85 0.8 0.81
2556.380 0.88 0.91 0.88 0.87 0.85 0.85 0.83 0.81 0.84 0.83
2575.673 0.79 0.84 0.89 0.87 0.87 0.87 0.85 0.87 0.92 0.92
2594.966 0.92 0.95 0.94 0.98 1 0.98 1.01 1.03 1.01 1.02
2614.260 1.06 1.05 1.064 1.086 1.097 1.11 1.05 0.96 0.99 1.02
2633.553 0.95 0.92 0.87 0.84 0.89 0.91 0.91 0.88 0.89 0.92
2652.847 0.91 0.89 0.91 0.96 0.94 0.97 1.03 1.065 1.151 1.208
2672.140 1.234 1.3 1.352 1.399 1.487 1.591 1.667 1.718 1.778 1.811
2691.434 1.76 1.732 1.686 1.608 1.544 1.446 1.37 1.257 1.167 1.187
2710.727 1.168 1.099 1.04 1.06 1.076 1.068 1.069 1.01 0.99 1.07
2730.020 1.116 1.067 1.06 1.106 1.156 1.161 1.122 1.147 1.161 1.171
2749.314 1.223 1.168 1.081 1.112 1.152 1.122 1.136 1.178 1.169 1.188
2768.607 1.244 1.298 1.28 1.246 1.265 1.287 1.262 1.198 1.224 1.25
2787.901 1.228 1.224 1.198 1.094 1.085 1.11 1.102 1.091 1.04 1.05
2807.194 1.114 1.197 1.242 1.321 1.332 1.341 1.398 1.429 1.541 1.609
2826.488 1.572 1.625 1.673 1.671 1.676 1.69 1.75 1.703 1.746 1.845
2845.781 1.847 1.908 2.0348 2.2147 2.2503 2.2809 2.3547 2.3881 2.4816 2.6137
2865.074 2.7395 2.8187 2.941 3.07 3.28 3.56 3.86 4.24 4.69 5.09
2884.368 5.59 6.13 6.52 6.85 7.07 7.18 7.23 7.11 6.94 6.77
2903.661 6.62 6.45 6.24 6.23 6.24 6.15 6.18 6.12 6.03 5.98
2922.955 5.78 5.6 5.54 5.63 5.81 6.06 6.36 6.74 7.28 7.86
2942.248 8.45 8.93 9.27 9.3 8.98 8.53 7.84 7.15 6.68 6.4
2961.542 6.47 6.73 7.16 7.7 8.28 9.04 9.95 10.87 11.84 12.97
2980.835 14.41 16.2 18.24 19.92 20.84 20.98 20.24 18.73 16.7 14.71
3000.128 13.12 11.86 10.95 10.12 9.26 8.44 7.65 7.08 6.56 6.11
3019.422 5.72 5.22 4.71 4.31 3.86 3.42 3.21 2.9558 2.6496 2.5038
3038.715 2.3894 2.2104 2.0298 1.86 1.734 1.694 1.587 1.473 1.505 1.523
3058.009 1.428 1.417 1.423 1.416 1.491 1.695 1.851 1.894 1.938 2.06534
3077.302 2.3005 2.5751 2.9059 3.3 3.85 4.53 5.49 6.68 8 9.67
3096.596 11.74 13.74 15.68 17.77 19.73 21.21 21.83 21.4 19.77 17.1
3115.889 13.8 10.32 7.23 4.96 3.45 2.3887 1.71 1.278 1.04 0.99
3135.182 0.94 0.86 0.82 0.83 0.62 0.5 0.58 0.61 0.57 0.58
3154.476 0.51 0.44 0.47 0.46 0.47 0.46 0.44 0.35 0.3 0.35
3173.769 0.33 0.4 0.51 0.61 0.73 0.76 0.57 0.48 0.53 0.58
3193.063 0.52 0.31 0.23 0.25 0.29 0.22 0.2 0.21 0.19 0.23
3212.356 0.25 0.17 0.1 0.09 0.1 0.19 0.18 0.12 0.09 0.04
3231.650 0.03 0.07 0.06 0.11 0.06 0.01 0.12 0.22 0.08 0.03
3250.943 0.17 0.2 0.33 0.26 0.09 0.07 0.14 0.16 0.07 0.11
3270.236 0.08 0 0.1 0.15 0.16 0.17 0.12 0.1 0.08 0.02
3289.530 0.06 0.15 0.08 0.09 0.12 0.15 0.24 0.23 0.14 0.11
3308.823 0.07 0.04 0.12 0.12 0.08 0.07 0.11 0.13 0.1 0.17
3328.117 0.19 0.21 0.19 0.17 0.26 0.23 0.15 0.12 0.17 0.23
3347.410 0.15 0.21 0.38 0.45 0.48 0.34 0.23 0.35 0.38 0.3
3366.704 0.3 0.37 0.34 0.27 0.28 0.35 0.55 0.55 0.37 0.4
3385.997 0.43 0.4 0.45 0.41 0.34 0.5 0.51 0.36 0.37 0.48
3405.290 0.58 0.5 0.42 0.47 0.58 0.54 0.5 0.52 0.61 0.63
3424.584 0.56 0.55 0.58 0.61 0.55 0.44 0.4 0.5 0.65 0.66
3443.877 0.58 0.57 0.68 0.69 0.7 0.83 0.81 0.72 0.75 0.83
3463.171 0.86 1.02 1.101 1.117 1.206 1.316 1.512 1.655 1.782 1.869
3482.464 1.881 1.784 1.657 1.552 1.46 1.34 1.256 1.162 1.02 1.01
3501.758 0.99 0.9 0.86 0.84 0.83 0.9 0.81 0.67 0.81 0.81
3521.051 0.76 0.76 0.74 0.78 0.7 0.62 0.65 0.64 0.76 0.83
3540.344 0.74 0.68 0.65 0.75 0.75 0.79 0.87 0.78 0.77 0.77
3559.638 0.72 0.75 0.83 0.83 0.9 0.85 0.75 0.81 0.78 0.82
3578.931 0.78 0.69 0.78 0.81 0.82 0.85 0.84 0.8 0.8 0.7
3598.225 0.7 0.83 0.85 0.8 0.8 0.89 0.86 0.82 0.92 1.01
3617.518 0.92 0.87 0.89 0.88 0.83 0.83 0.88 0.88 0.84 0.81
3636.812 0.88 0.82 0.76 0.94 1.01 0.92 0.89 0.82 0.87 0.93
3656.105 0.84 0.8 0.87 0.96 0.97 0.93 0.85 0.83 0.87 0.83
3675.398 0.72 0.71 0.78 0.78 0.81 0.85 0.8 0.93 1.02 0.97
3694.692 1 1.071 1.066 1.071 1.085 0.94 0.85 0.96 1.03 0.94
3713.985 0.93 1 0.95 0.93 0.99 1 0.98 0.98 1 0.97
3733.279 0.96 0.98 0.95 0.99 1.099 1.145 1 0.96 0.96 0.93
3752.572 0.91 0.84 0.85 0.95 1.01 0.99 1 1.01 0.97 0.93
3771.866 0.92 0.94 0.98 1.02 1.01 1.01 1.04 1.03 1 0.95
3791.159 0.92 0.91 0.93 0.98 1.03 1.06 0.94 0.94 1.04 1.074
3810.452 1.05 1.02 1 0.96 0.99 1.067 1.061 1.01 1.072 1.086
3829.746 1.01 0.94 0.92 0.94 0.93 0.96 1.04 1.03 0.96 0.98
3849.039 0.99 1 1.01 0.92 0.93 0.96 0.99 1.077 1.03 0.98
3868.333 1.06 0.98 0.83 0.94 1.01 0.94 0.93 0.97 1.03 1.03
3887.626 1.02 0.99 0.86 0.89 0.98 0.88 0.87 0.95 0.98 0.96
3906.920 0.95 0.96 0.97 0.98 0.97 0.99 0.92 0.94 1 1.01
3926.213 0.99 0.93 0.94 0.99 1.03 1.01 0.95 0.91 0.91 0.91
3945.506 0.94 0.95 0.96 1 1.01 1.01 0.96 0.88 1 1.061
3964.800 0.97 0.95 1 1.01 0.99 0.92 0.88 0.95 1 0.99
3984.093 0.97 0.96 0.95 0.98 0.97 1.02 1.04 1.01 0.98
##END=
