##TITLE=m-Nitrobenzhydrazide
##JCAMP-DX=4.24
##DATA TYPE=INFRARED SPECTRUM
##ORIGIN=EPA-IR VAPOR PHASE LIBRARY
##OWNER=SRD/NIST
Collection (C) 2018 copyright by the U.S. Secretary of Commerce
on behalf of the United States of America. All rights reserved.
##CAS REGISTRY NO=618-94-0
##MOLFORM=C 7 H 7 N 3 O 3
##$NIST SOURCE=MSDC-IR
##STATE=gas
##XUNITS=1/CM
##YUNITS=ABSORBANCE
##XFACTOR=1.
##YFACTOR=0.001
##DELTAX=1.92898
##FIRSTX=549.8
##LASTX=4000.7
##FIRSTY=1.16
##MAXX=4000.7
##MINX=549.759
##MAXY=0.02592
##MINY=0.00009461
##NPOINTS=1790
##XYDATA=(X++(Y..Y))
549.759 1.16 0.9272 0.8015 0.8589 0.9022 1.01 0.8692 0.8451 0.842 0.6417
569.049 0.6944 1.02 1.25 1.03 0.6957 0.9224 0.8812 0.6607 0.755 0.891
588.339 1.01 0.6961 0.7824 0.9516 0.9328 1.1 0.9061 0.7967 0.9251 0.7029
607.628 0.6732 0.9163 0.9346 0.9003 0.664 0.6556 0.8601 0.9767 1.02 0.8795
626.918 0.8872 0.9134 0.8668 0.7531 0.7722 0.9383 0.8084 0.7494 0.7825 0.7835
646.208 1.06 1.27 1.39 1.36 1.32 1.45 1.56 1.49 1.42 1.57
665.498 1.51 1.53 1.83 1.97 1.91 1.87 1.98 1.91 1.85 1.83
684.787 1.75 1.71 1.85 1.96 1.98 2.21 2.26 2.36 2.88 3.51
704.077 4.02 4.7 5.76 6.94 8.3 9.81 11.34 12.58 12.91 12.64
723.367 12.14 11.2 9.97 8.59 7.08 5.8 4.62 3.75 3.18 2.7
742.657 2.25 1.89 1.72 1.53 1.46 1.46 1.25 1.29 1.41 1.24
761.947 1.26 1.38 1.27 1.21 1.33 1.25 0.9625 0.8956 1.03 1.12
781.236 1.02 1.06 1.07 0.87 0.8327 1.06 1.3 1.46 1.69 1.81
800.526 2 2.25 2.54 2.77 2.87 2.79 2.84 2.87 2.64 2.44
819.816 2.22 1.9 1.75 1.7 1.65 1.62 1.57 1.78 2.03 2.13
839.106 2.3 2.66 2.96 2.99 3.08 3.23 3.18 3.08 2.94 2.81
858.395 2.83 2.63 2.38 2.45 2.61 2.62 2.6 2.66 2.67 2.59
877.685 2.65 2.93 2.95 3.01 3.26 3.33 3.51 3.85 3.93 3.88
896.975 3.92 3.97 3.9 3.86 3.79 3.59 3.45 3.31 3.16 2.9
916.265 2.76 2.81 2.67 2.76 2.97 3.34 3.86 4.1 4.38 4.9
935.555 5.41 5.79 6.42 7.01 7.4 7.66 7.66 7.68 7.43 6.88
954.844 6.37 5.78 4.94 4.24 3.78 3.15 2.8 2.72 2.37 2.02
974.134 1.84 1.65 1.69 1.56 1.37 1.35 1.17 1.14 1.1 0.924
993.424 0.8559 0.8113 0.8164 0.8051 0.7653 0.8544 0.8112 0.7619 0.8062 0.7502
1012.714 0.6974 0.5917 0.5768 0.5955 0.4749 0.3229 0.3679 0.5346 0.4856 0.5044
1032.003 0.3944 0.1254 0.2291 0.4626 0.507 0.5267 0.3611 0.4181 0.7452 1.01
1051.293 1.07 0.8612 0.8862 0.8197 0.8161 1.06 1.27 1.25 1.24 1.46
1070.583 1.91 2.12 2.03 1.91 2.05 2.22 2.06 2.09 2.17 2.13
1089.873 1.98 2.06 2.14 2.42 2.56 2.39 2.16 1.92 2.11 2.19
1109.163 1.78 1.42 1.58 1.5 1.12 0.9537 0.8675 0.5692 0.6511 0.9215
1128.452 0.682 0.4522 0.4538 0.6267 0.776 0.733 0.7126 0.5953 0.4214 0.41
1147.742 0.6431 0.8509 0.8016 1.05 1.3 1.35 1.28 1.35 1.7 1.73
1167.032 1.84 1.81 1.43 1.28 1.32 1.28 1.05 1.09 1.15 1.15
1186.322 1.17 1.07 0.9647 0.9454 0.9556 1.07 1.32 1.44 1.26 0.8496
1205.611 0.5783 0.7982 1.15 1.52 1.54 1.21 1.03 1.17 1.35 1.38
1224.901 1.53 1.45 1.17 1.41 1.56 1.55 1.58 1.5 1.7 1.93
1244.191 2.05 2.25 2.54 2.77 3.04 3.44 4.17 5.03 5.62 6.41
1263.481 7.27 8 8.57 8.9 9.13 9.02 8.74 8.54 8.11 7.84
1282.771 7.83 7.91 8.14 8.27 8.45 8.63 8.75 8.7 8.39 7.96
1302.060 7.45 6.96 6.45 5.93 5.52 5.04 4.58 4.22 3.94 3.85
1321.350 3.82 3.76 3.89 4.18 4.57 5.06 5.75 6.63 7.66 9
1340.640 10.68 12.7 15 17.39 19.64 21.43 22.45 22.64 22.14 20.79
1359.930 18.48 15.49 12.43 9.72 7.54 5.91 4.73 3.9 3.31 2.95
1379.219 2.64 2.4 2.3 2.22 2.05 1.93 1.94 1.93 1.88 1.91
1398.509 1.95 2.06 2.17 2.23 2.35 2.56 2.8 3.07 3.38 3.64
1417.799 3.93 4.34 4.81 5.24 5.78 6.32 6.81 7.41 8.02 8.53
1437.089 9.12 9.86 10.57 11.18 11.74 12.03 12.16 12.24 12.03 11.59
1456.378 11.08 10.64 10.2 9.61 9.04 8.63 8.27 7.93 7.65 7.51
1475.668 7.62 7.88 8.21 8.63 9.09 9.52 9.87 10.06 10.29 10.42
1494.958 10.25 10.03 9.72 9.3 8.89 8.33 7.66 7.17 6.86 6.55
1514.248 6.29 6.12 6 5.96 6.16 6.47 6.87 7.62 8.65 9.89
1533.538 11.56 13.7 16.05 18.68 21.43 23.66 25.21 25.92 25.62 24.74
1552.827 23.14 20.57 17.68 14.65 12.12 10.37 9.04 7.99 7.1 6.55
1572.117 6.25 6.05 5.86 5.72 5.68 5.6 5.57 5.47 5.31 5.28
1591.407 5.21 5.09 4.93 4.86 4.86 4.81 4.9 5.04 5.24 5.54
1610.697 5.75 5.98 6.34 6.61 6.73 6.85 6.92 6.9 6.83 6.74
1629.986 6.7 6.69 6.53 6.31 6.16 5.97 5.7 5.38 4.91 4.52
1649.276 4.28 3.9 3.57 3.53 3.58 3.62 3.61 3.56 3.59 3.73
1668.566 3.88 3.98 4.16 4.42 4.7 4.97 5.32 5.62 5.91 6.45
1687.856 7.16 8.06 9.34 11.1 13.43 16.29 19.15 21.77 23.21 23.67
1707.146 23.73 23.29 21.81 19.09 15.83 12.89 10.59 8.99 7.81 6.96
1726.435 6.41 6.01 5.73 5.45 5.04 4.65 4.22 3.78 3.43 3.04
1745.725 2.7 2.37 2.02 1.78 1.7 1.52 1.36 1.32 1.17 1
1765.015 0.9519 0.8702 0.8353 0.8601 0.805 0.7652 0.7482 0.747 0.7127 0.6503
1784.305 0.583 0.6329 0.6617 0.6112 0.6569 0.6878 0.659 0.6302 0.5947 0.5842
1803.594 0.6277 0.684 0.716 0.6838 0.6464 0.6215 0.6603 0.7063 0.698 0.7187
1822.884 0.6213 0.4907 0.4998 0.5093 0.47 0.4864 0.5831 0.6391 0.6079 0.615
1842.174 0.5579 0.471 0.5166 0.4734 0.4864 0.5722 0.5378 0.4954 0.4861 0.501
1861.464 0.4807 0.4051 0.3639 0.3714 0.3644 0.3517 0.3635 0.4188 0.4611 0.4535
1880.754 0.4502 0.4755 0.4856 0.4318 0.4284 0.4634 0.4452 0.3838 0.3842 0.4176
1900.043 0.4602 0.5072 0.5053 0.505 0.4576 0.4197 0.5234 0.5241 0.4454 0.4495
1919.333 0.4479 0.447 0.4789 0.4915 0.4489 0.4387 0.4137 0.3615 0.3539 0.3847
1938.623 0.4111 0.3879 0.3101 0.3597 0.4372 0.431 0.4757 0.509 0.4627 0.4726
1957.913 0.5119 0.4678 0.4428 0.3955 0.3265 0.3465 0.389 0.3428 0.3687 0.4778
1977.202 0.4839 0.4704 0.4095 0.3142 0.2876 0.297 0.3187 0.3288 0.3023 0.2638
1996.492 0.2705 0.2622 0.2539 0.2178 0.1746 0.2318 0.2753 0.2716 0.303 0.3011
2015.782 0.2419 0.2509 0.2272 0.1844 0.2141 0.234 0.2658 0.3061 0.2928 0.2584
2035.072 0.2822 0.2766 0.3002 0.3042 0.2486 0.2807 0.2655 0.2064 0.2045 0.2213
2054.362 0.2239 0.1854 0.1382 0.119 0.09461 0.1605 0.2284 0.2065 0.2115 0.2412
2073.651 0.2659 0.3012 0.311 0.2637 0.2239 0.2384 0.2304 0.1976 0.2281 0.1878
2092.941 0.2125 0.2459 0.2101 0.2436 0.2749 0.3105 0.33 0.2956 0.2577 0.298
2112.231 0.2656 0.1799 0.2135 0.2272 0.226 0.2051 0.1684 0.2405 0.2878 0.2381
2131.521 0.1945 0.179 0.2207 0.2468 0.248 0.2703 0.287 0.2858 0.237 0.2376
2150.810 0.3154 0.2853 0.2485 0.262 0.224 0.2308 0.2434 0.2394 0.2346 0.2405
2170.100 0.2711 0.2515 0.2335 0.2639 0.2972 0.2585 0.1814 0.2436 0.2626 0.2172
2189.390 0.2454 0.2559 0.2991 0.3109 0.2751 0.2749 0.2509 0.2856 0.283 0.2676
2208.680 0.2605 0.2662 0.3094 0.3085 0.3069 0.3146 0.3188 0.3691 0.3745 0.3084
2227.970 0.2548 0.2111 0.2447 0.2915 0.2809 0.2927 0.3197 0.2884 0.2863 0.3275
2247.259 0.3091 0.2698 0.2858 0.3302 0.3528 0.315 0.3082 0.3267 0.2921 0.2666
2266.549 0.231 0.2703 0.3698 0.406 0.3567 0.2506 0.2468 0.2717 0.323 0.3054
2285.839 0.2549 0.3053 0.2686 0.2465 0.3405 0.3282 0.2298 0.2065 0.2119 0.2173
2305.129 0.2691 0.3516 0.3285 0.2481 0.269 0.2537 0.2785 0.3473 0.3783 0.468
2324.418 0.4786 0.4191 0.3419 0.3245 0.3547 0.3373 0.3908 0.3954 0.3931 0.4105
2343.708 0.4158 0.497 0.4941 0.4082 0.4248 0.5317 0.4608 0.4181 0.4426 0.3496
2362.998 0.2765 0.257 0.3164 0.3655 0.3008 0.2915 0.3028 0.1952 0.2216 0.3795
2382.288 0.457 0.3523 0.248 0.3462 0.3597 0.384 0.4111 0.3524 0.3651 0.3808
2401.578 0.3571 0.3186 0.324 0.3096 0.3465 0.3758 0.3213 0.3372 0.3887 0.3333
2420.867 0.3028 0.2829 0.2819 0.3445 0.2989 0.302 0.3913 0.349 0.31 0.3373
2440.157 0.387 0.4122 0.4207 0.4507 0.3852 0.2554 0.2954 0.3739 0.3603 0.3789
2459.447 0.3649 0.3507 0.281 0.2479 0.2871 0.3709 0.4106 0.3884 0.4298 0.4226
2478.737 0.3304 0.2429 0.2348 0.2383 0.2739 0.2906 0.2703 0.3344 0.3711 0.3026
2498.026 0.3418 0.383 0.3818 0.408 0.3547 0.3736 0.3811 0.3898 0.3319 0.268
2517.316 0.3289 0.4065 0.4984 0.4548 0.3388 0.3114 0.355 0.3879 0.3889 0.4128
2536.606 0.4242 0.4876 0.5036 0.4068 0.3798 0.2996 0.2733 0.3199 0.3672 0.4243
2555.896 0.4829 0.4611 0.3476 0.3697 0.435 0.4102 0.4037 0.3465 0.2823 0.3958
2575.186 0.4505 0.378 0.3609 0.4176 0.4879 0.4907 0.3921 0.3841 0.3417 0.3493
2594.475 0.4011 0.4093 0.5298 0.4647 0.3133 0.3329 0.3161 0.2205 0.2757 0.389
2613.765 0.34 0.3203 0.3801 0.3629 0.3828 0.3871 0.3904 0.3708 0.2633 0.3018
2633.055 0.3599 0.321 0.2363 0.1929 0.2499 0.3775 0.4175 0.3629 0.3627 0.3015
2652.345 0.2204 0.3126 0.3781 0.3286 0.3399 0.3372 0.3247 0.3909 0.3822 0.3643
2671.634 0.4417 0.4513 0.4055 0.3843 0.4335 0.4224 0.4272 0.4822 0.4617 0.5125
2690.924 0.5126 0.4277 0.3638 0.3585 0.403 0.4317 0.4559 0.4928 0.4999 0.4213
2710.214 0.5142 0.5593 0.5159 0.4775 0.4044 0.3471 0.3149 0.329 0.37 0.5204
2729.504 0.5138 0.424 0.4663 0.4943 0.3754 0.3508 0.3715 0.4194 0.5138 0.4432
2748.794 0.4179 0.481 0.4354 0.3949 0.4155 0.4381 0.4389 0.362 0.3421 0.2946
2768.083 0.3586 0.4042 0.3531 0.4962 0.5773 0.507 0.3639 0.33 0.4156 0.4534
2787.373 0.3806 0.3755 0.4559 0.4832 0.5749 0.6078 0.5209 0.3626 0.3359 0.5078
2806.663 0.5281 0.4566 0.5135 0.5542 0.505 0.326 0.2517 0.4074 0.5215 0.5249
2825.953 0.5145 0.5103 0.4565 0.4338 0.5157 0.5283 0.4258 0.3614 0.3272 0.3836
2845.242 0.5148 0.5029 0.4998 0.5111 0.4978 0.5767 0.6105 0.6236 0.5134 0.3647
2864.532 0.4923 0.5946 0.5496 0.5282 0.6577 0.7035 0.6733 0.7291 0.7334 0.7191
2883.822 0.7134 0.7333 0.7226 0.7769 0.7886 0.9135 0.989 0.8761 0.8264 0.8188
2903.112 0.8965 0.8997 0.7819 0.7134 0.6177 0.5518 0.6079 0.6115 0.511 0.578
2922.401 0.6885 0.6891 0.6273 0.5009 0.4691 0.4877 0.5329 0.4747 0.471 0.6319
2941.691 0.6404 0.4829 0.4339 0.4274 0.3321 0.3634 0.4205 0.382 0.4268 0.4145
2960.981 0.4845 0.4936 0.4027 0.4088 0.4479 0.4269 0.3708 0.3444 0.1843 0.2049
2980.271 0.3374 0.42 0.4444 0.4018 0.4597 0.4757 0.4483 0.4739 0.3791 0.356
2999.561 0.3705 0.3619 0.4108 0.4501 0.4934 0.4547 0.3643 0.4742 0.5413 0.3994
3018.850 0.3629 0.4684 0.4364 0.2021 0.315 0.4407 0.4409 0.5042 0.5846 0.664
3038.140 0.567 0.5437 0.5541 0.5768 0.5967 0.5714 0.5018 0.4286 0.4696 0.5723
3057.430 0.6309 0.6755 0.806 0.6834 0.7178 0.9601 1.05 1.21 1.37 1.52
3076.720 1.6 1.74 1.81 1.82 1.84 1.9 1.98 1.87 1.8 1.71
3096.009 1.57 1.46 1.24 1.13 0.9895 0.7746 0.6439 0.4377 0.4237 0.4235
3115.299 0.525 0.529 0.4177 0.4435 0.3499 0.3113 0.2886 0.3334 0.3899 0.3242
3134.589 0.3926 0.5019 0.3575 0.2446 0.3812 0.5322 0.457 0.4887 0.6128 0.582
3153.879 0.537 0.4507 0.392 0.4177 0.4813 0.4843 0.383 0.3306 0.4145 0.5426
3173.169 0.4855 0.3402 0.4619 0.5421 0.5947 0.5279 0.4006 0.4805 0.4499 0.475
3192.458 0.6407 0.6147 0.6429 0.7819 0.6226 0.5055 0.5977 0.6578 0.6623 0.7033
3211.748 0.6169 0.5211 0.5521 0.5508 0.7129 0.7491 0.6873 0.6229 0.5485 0.5997
3231.038 0.6129 0.5878 0.6305 0.7153 0.57 0.4289 0.4136 0.5081 0.7691 0.6149
3250.328 0.3946 0.5319 0.3873 0.3243 0.4195 0.4282 0.4568 0.55 0.6133 0.5656
3269.617 0.4776 0.4109 0.5839 0.6081 0.4278 0.4259 0.3973 0.2504 0.3529 0.398
3288.907 0.3903 0.4425 0.3447 0.4292 0.6181 0.6152 0.5421 0.5757 0.5127 0.4205
3308.197 0.5822 0.7828 0.8117 0.6202 0.5848 0.649 0.5913 0.5406 0.4849 0.5942
3327.487 0.7438 0.8388 0.8066 0.7162 0.8289 0.9002 0.8485 0.7078 0.6564 0.8101
3346.777 0.819 0.8266 0.8976 0.8928 0.822 0.7134 0.5822 0.4908 0.4371 0.5983
3366.066 0.6826 0.6533 0.7354 0.8068 0.7375 0.5922 0.6694 0.6706 0.6852 0.6589
3385.356 0.5819 0.6989 0.8602 0.8661 0.8863 0.9728 0.957 0.8431 0.9144 0.8926
3404.646 0.7516 0.8794 0.9081 0.8982 0.9352 0.8972 0.9223 1.02 1.05 0.9108
3423.936 0.804 0.8343 1.04 1.21 1.1 1.21 1.23 1.21 1.44 1.56
3443.225 1.68 1.69 1.73 2.03 2.32 2.26 2.32 2.53 2.72 2.99
3462.515 3.2 3.49 3.66 3.77 3.85 3.91 3.81 3.69 3.55 3.3
3481.805 3.01 2.77 2.51 2.28 1.91 1.53 1.42 1.28 1.17 1.07
3501.095 1.25 1.3 1.12 1.03 0.7912 0.732 0.7827 0.7805 0.8632 0.801
3520.385 0.6738 0.5359 0.3744 0.4016 0.5606 0.5854 0.5599 0.5767 0.4225 0.4761
3539.674 0.572 0.5535 0.4254 0.2992 0.3262 0.354 0.3273 0.5258 0.728 0.591
3558.964 0.4045 0.4032 0.5492 0.4867 0.3801 0.3687 0.4665 0.5513 0.5719 0.5785
3578.254 0.684 0.7417 0.7119 0.6772 0.3788 0.1685 0.3253 0.4506 0.5093 0.6025
3597.544 0.4193 0.2921 0.4468 0.4601 0.3487 0.2637 0.379 0.6642 0.6003 0.372
3616.833 0.4557 0.6345 0.6472 0.6232 0.5735 0.5332 0.4291 0.2903 0.5102 0.581
3636.123 0.5358 0.5619 0.5617 0.5278 0.2714 0.1658 0.1456 0.2825 0.4118 0.3368
3655.413 0.4946 0.5384 0.4944 0.6096 0.527 0.4995 0.6183 0.5609 0.4284 0.316
3674.703 0.2832 0.3123 0.4432 0.5936 0.4707 0.3123 0.4298 0.4363 0.3426 0.2768
3693.993 0.2815 0.4388 0.4616 0.3838 0.3835 0.3761 0.3164 0.4378 0.3982 0.363
3713.282 0.5705 0.5257 0.5273 0.5985 0.5696 0.5168 0.3987 0.4497 0.5412 0.3993
3732.572 0.1484 0.165 0.3128 0.343 0.3635 0.4416 0.3615 0.3746 0.5803 0.7102
3751.862 0.4872 0.3338 0.6323 0.6234 0.5798 0.6297 0.6541 0.5144 0.4504 0.658
3771.152 0.7307 0.5843 0.4258 0.4567 0.5895 0.6309 0.4955 0.5103 0.455 0.4727
3790.441 0.6746 0.6871 0.658 0.5333 0.529 0.6658 0.5219 0.5045 0.6265 0.7212
3809.731 0.788 0.6998 0.7033 0.6672 0.5378 0.4776 0.4902 0.6382 0.568 0.5043
3829.021 0.5307 0.4983 0.564 0.5672 0.4477 0.5724 0.7014 0.5862 0.4502 0.4425
3848.311 0.5046 0.4564 0.4247 0.3695 0.4534 0.639 0.6397 0.5734 0.5577 0.4901
3867.601 0.3385 0.2714 0.4036 0.4331 0.4067 0.4356 0.4022 0.3953 0.4439 0.42
3886.890 0.3898 0.3567 0.4307 0.6009 0.7413 0.8295 0.5213 0.1878 0.3221 0.5242
3906.180 0.5308 0.4297 0.413 0.5477 0.5659 0.4209 0.3237 0.3973 0.481 0.5786
3925.470 0.5179 0.3544 0.3755 0.3629 0.3897 0.479 0.3546 0.3127 0.4766 0.6015
3944.760 0.6023 0.3965 0.5073 0.5477 0.4612 0.6461 0.6848 0.5967 0.6051 0.662
3964.049 0.7321 0.5609 0.3435 0.3878 0.527 0.6345 0.4495 0.5193 0.7433 0.6717
3983.339 0.4276 0.2336 0.3214 0.3676 0.409 0.5302 0.4894 0.5209 0.6108 0.6426
##END=
