##TITLE=m-Toluamide
##JCAMP-DX=4.24
##DATA TYPE=INFRARED SPECTRUM
##ORIGIN=EPA-IR VAPOR PHASE LIBRARY
##OWNER=SRD/NIST
Collection (C) 2018 copyright by the U.S. Secretary of Commerce
on behalf of the United States of America. All rights reserved.
##CAS REGISTRY NO=618-47-3
##MOLFORM=C 8 H 9 N O
##$NIST SOURCE=MSDC-IR
##STATE=gas
##XUNITS=1/CM
##YUNITS=ABSORBANCE
##XFACTOR=1.
##YFACTOR=0.001
##DELTAX=1.92898
##FIRSTX=549.8
##LASTX=4000.7
##FIRSTY=5.349
##MAXX=4000.7
##MINX=549.759
##MAXY=0.089779
##MINY=0
##NPOINTS=1790
##XYDATA=(X++(Y..Y))
549.759 5.349 4.969 4.529 4.349 4.049 3.579 3.099 2.899 3.049 2.909
569.049 2.349 2.389 2.969 2.849 2.309 2.339 2.569 2.479 2.539 2.279
588.339 1.889 2.259 2.599 2.539 2.589 3.129 3.579 4.219 4.949 5.499
607.628 6.509 7.439 8.179 8.929 9.209 8.889 8.829 8.729 8.039 7.569
626.918 7.109 6.209 5.319 4.719 4.099 3.569 3.439 3.389 3.249 3.269
646.208 3.439 3.479 3.379 3.329 3.419 3.449 3.399 3.449 3.569 3.829
665.498 3.879 3.889 4.089 4.259 4.529 4.629 4.809 5.019 5.129 5.419
684.787 5.539 5.569 5.719 5.869 5.799 5.639 5.689 5.799 5.839 5.949
704.077 6.119 6.269 6.649 7.029 7.349 7.879 8.649 9.529 10.589 11.719
723.367 12.859 14.099 15.359 16.769 18.229 19.959 21.589 22.499 23.089 22.689
742.657 20.929 19.039 17.529 16.329 15.199 13.629 12.139 10.849 9.799 9.179
761.947 8.259 7.409 7.169 6.879 6.429 6.169 6.099 5.999 5.859 5.929
781.236 6.109 6.149 6.229 6.499 6.729 6.879 6.879 7.209 7.349 7.219
800.526 7.279 7.159 6.899 6.749 6.609 6.399 6.089 5.839 5.609 5.629
819.816 5.669 5.159 5.199 4.889 4.609 4.699 4.469 4.429 4.439 4.429
839.106 4.389 4.249 4.229 4.209 4.179 4.359 4.309 4.299 4.359 4.399
858.395 4.429 4.399 4.329 4.139 4.169 4.419 4.539 4.559 4.499 4.559
877.685 4.589 4.359 4.149 4.089 4.129 3.929 3.779 3.849 3.769 3.679
896.975 3.809 3.639 3.539 3.599 3.709 3.879 3.709 3.689 3.609 3.689
916.265 3.829 3.659 3.489 3.429 3.379 3.279 3.269 3.309 3.069 2.949
935.555 3.119 3.179 3.119 2.969 3.009 2.959 2.779 2.719 2.559 2.409
954.844 2.549 2.619 2.579 2.559 2.479 2.459 2.499 2.389 2.319 2.299
974.134 2.199 2.169 2.089 2.049 1.939 2.039 2.289 2.319 2.319 2.409
993.424 2.489 2.609 2.489 2.469 2.529 2.089 1.819 2.059 2.099 1.899
1012.714 1.979 2.109 2.069 2.039 1.979 1.929 1.779 1.699 2.029 2.149
1032.003 2.059 2.199 2.239 2.219 2.359 2.519 2.629 3.089 3.409 3.689
1051.293 4.199 4.209 4.429 5.039 5.219 5.279 5.499 5.789 5.789 5.769
1070.583 5.809 5.499 5.389 5.309 4.819 4.649 4.799 4.589 4.029 3.789
1089.873 3.789 3.729 3.479 3.319 3.249 2.889 2.719 2.769 2.489 2.809
1109.163 3.229 2.839 2.409 2.399 2.439 2.249 2.089 2.329 2.819 2.879
1128.452 2.689 2.539 2.349 2.449 2.429 2.189 2.319 2.029 1.579 1.769
1147.742 1.809 1.669 1.719 1.659 1.879 1.939 1.779 1.769 1.539 1.489
1167.032 1.899 1.959 2.159 2.399 2.229 2.219 2.179 2.149 2.159 2.399
1186.322 2.539 2.699 2.839 2.819 3.149 3.529 4.289 5.029 5.219 5.469
1205.611 5.749 6.189 6.399 6.529 6.809 6.539 6.149 5.899 5.649 5.009
1224.901 4.349 3.799 3.539 3.649 3.829 3.599 3.499 3.759 3.559 3.439
1244.191 3.579 3.729 3.919 3.999 4.009 4.029 4.009 4.049 4.139 4.349
1263.481 4.589 4.659 4.659 4.749 4.769 4.839 5.099 5.309 5.259 5.239
1282.771 5.349 5.389 5.549 5.619 5.619 5.919 6.219 6.489 6.879 7.319
1302.060 7.929 8.599 9.339 10.199 10.989 11.919 13.139 14.369 15.839 17.669
1321.350 19.819 22.619 26.099 30.249 35.139 40.529 46.089 51.429 56.069 59.749
1340.640 62.269 63.369 62.959 61.159 57.859 53.029 47.179 40.899 34.749 29.079
1359.930 24.079 19.969 16.719 14.169 12.239 10.789 9.689 8.889 8.309 7.889
1379.219 7.449 7.069 6.679 6.329 6.009 5.689 5.389 5.009 4.649 4.379
1398.509 4.259 4.159 4.049 4.039 4.059 4.069 4.189 4.349 4.429 4.579
1417.799 4.719 4.859 5.059 5.169 5.189 5.299 5.429 5.529 5.589 5.529
1437.089 5.409 5.259 5.149 4.989 4.769 4.569 4.329 4.089 3.849 3.589
1456.378 3.409 3.349 3.319 3.309 3.299 3.309 3.349 3.409 3.469 3.519
1475.668 3.639 3.759 3.819 3.899 3.969 3.909 3.889 3.869 3.719 3.509
1494.958 3.349 3.279 3.179 2.979 2.919 2.879 2.759 2.709 2.669 2.679
1514.248 2.679 2.679 2.699 2.749 2.829 3.009 3.159 3.259 3.419 3.549
1533.538 3.649 3.749 3.919 4.169 4.399 4.599 4.849 5.119 5.359 5.669
1552.827 6.059 6.549 7.249 8.089 8.959 10.019 11.599 13.619 16.089 19.299
1572.117 23.199 27.389 31.679 35.659 38.849 41.359 42.969 43.769 43.709 42.549
1591.407 40.259 36.989 33.129 29.219 25.489 22.159 19.389 16.999 15.209 13.829
1610.697 12.639 11.619 10.699 9.819 8.949 8.159 7.459 6.829 6.269 5.749
1629.986 5.319 4.979 4.779 4.559 4.269 4.139 4.079 3.949 3.959 4.009
1649.276 4.059 4.179 4.299 4.339 4.459 4.639 4.939 5.259 5.649 6.209
1668.566 6.839 7.509 8.249 9.089 9.989 10.929 11.919 12.939 14.189 15.419
1687.856 16.229 16.859 17.569 18.699 20.629 23.219 26.579 31.189 37.059 44.829
1707.146 54.149 64.659 75.169 83.699 88.219 88.479 87.239 87.789 89.779 89.769
1726.435 84.059 72.959 59.479 47.129 37.089 29.749 24.669 20.879 18.239 16.509
1745.725 15.399 14.729 14.309 14.069 13.839 13.339 12.449 11.329 10.129 8.989
1765.015 7.959 7.019 6.149 5.389 4.669 3.989 3.519 3.179 2.829 2.589
1784.305 2.459 2.359 2.319 2.219 2.059 1.959 1.909 1.859 1.819 1.729
1803.594 1.629 1.609 1.579 1.429 1.299 1.299 1.309 1.269 1.209 1.1625
1822.884 1.1843 1.1463 1.0517 1.0889 1.1038 1.0507 1.0804 1.0687 1.0462 1.0829
1842.174 1.1176 1.1377 1.1495 1.1392 1.163 1.1726 1.1479 1.1741 1.209 1.1681
1861.464 1.0761 1.0974 1.139 1.1485 1.1671 1.1091 1.0781 1.088 1.1063 1.209
1880.754 1.259 1.219 1.239 1.279 1.239 1.1696 1.1177 1.0624 1.0797 1.0628
1900.043 0.9528 0.902 0.8766 0.8435 0.8309 0.7852 0.7924 0.837 0.7925 0.7256
1919.333 0.6991 0.7819 0.8475 0.8322 0.8606 0.838 0.8122 0.8443 0.9171 0.9655
1938.623 0.9944 1.0007 1.0482 1.0956 1.0451 0.976 0.9288 0.8762 0.8478 0.8243
1957.913 0.7699 0.7435 0.7744 0.7063 0.605 0.6217 0.5787 0.5665 0.5767 0.5564
1977.202 0.5761 0.5532 0.5202 0.4885 0.4461 0.4716 0.474 0.4267 0.3713 0.3349
1996.492 0.4214 0.4878 0.5282 0.5745 0.5552 0.4675 0.4254 0.4169 0.3089 0.3
2015.782 0.3193 0.3489 0.3537 0.3236 0.3676 0.3827 0.3731 0.4005 0.3767 0.3525
2035.072 0.3455 0.3656 0.4011 0.3664 0.3685 0.3729 0.3864 0.4065 0.4529 0.4162
2054.362 0.3774 0.442 0.4583 0.4615 0.4318 0.4096 0.4162 0.4162 0.4354 0.3943
2073.651 0.3711 0.3812 0.3382 0.3212 0.3132 0.28487 0.27395 0.27037 0.302 0.302
2092.941 0.28876 0.2964 0.25666 0.3008 0.3359 0.2932 0.2949 0.3351 0.3108 0.195591
2112.231 0.192794 0.22129 0.20712 0.1654 0.21069 0.2907 0.28263 0.2922 0.3056 0.3087
2131.521 0.26451 0.25167 0.28827 0.2795 0.22128 0.21075 0.24634 0.21996 0.22722 0.21904
2150.810 0.1157 0.1472 0.23831 0.26629 0.2923 0.2788 0.24001 0.22406 0.22219 0.24447
2170.100 0.22737 0.24984 0.26532 0.18393 0.25961 0.3605 0.3167 0.3154 0.3059 0.26547
2189.390 0.3195 0.389 0.3729 0.27548 0.306 0.3368 0.26307 0.27875 0.3643 0.352
2208.680 0.3218 0.3353 0.3385 0.337 0.3298 0.3431 0.2977 0.27742 0.25452 0.1729
2227.970 0.18005 0.23579 0.3006 0.3232 0.27801 0.2259 0.1944 0.1564 0.194677 0.241
2247.259 0.21164 0.22772 0.26106 0.2929 0.26986 0.2881 0.2996 0.23276 0.19955 0.23175
2266.549 0.3088 0.3184 0.3582 0.4274 0.3446 0.28249 0.2946 0.3313 0.378 0.3563
2285.839 0.3834 0.3955 0.3264 0.2897 0.27905 0.27595 0.27922 0.24828 0.2905 0.3137
2305.129 0.3132 0.3213 0.27956 0.3404 0.3646 0.25344 0.26642 0.27875 0.22964 0.27868
2324.418 0.3092 0.23593 0.21328 0.28681 0.3366 0.317 0.3206 0.3509 0.3506 0.3661
2343.708 0.3374 0.3155 0.3478 0.3138 0.3361 0.3512 0.27249 0.24995 0.3072 0.3075
2362.998 0.192925 0.1657 0.28867 0.3789 0.26008 0.18735 0.2162 0.3005 0.3699 0.3481
2382.288 0.3165 0.3602 0.3725 0.3501 0.4041 0.4395 0.4081 0.4183 0.4655 0.3643
2401.578 0.3659 0.4386 0.3301 0.3112 0.3698 0.4393 0.478 0.455 0.4496 0.434
2420.867 0.4517 0.5528 0.5109 0.3566 0.304 0.3572 0.3521 0.28342 0.3658 0.3557
2440.157 0.27327 0.3378 0.3299 0.26865 0.3191 0.3097 0.26076 0.23921 0.3244 0.411
2459.447 0.3787 0.3022 0.26948 0.25644 0.24456 0.3128 0.3422 0.3518 0.307 0.28781
2478.737 0.27957 0.26199 0.273 0.3082 0.3687 0.3009 0.25405 0.24523 0.296 0.3238
2498.026 0.2879 0.26865 0.25425 0.190978 0.1289 0.1135 0.1387 0.21391 0.25174 0.26722
2517.316 0.198887 0.1651 0.1161 0.1308 0.1655 0.1787 0.192304 0.17948 0.21443 0.21779
2536.606 0.195641 0.189861 0.22207 0.23689 0.22728 0.21381 0.2944 0.3004 0.28021 0.3112
2555.896 0.23422 0.1495 0.0961 0.1789 0.26466 0.1704 0.156 0.189431 0.21295 0.24608
2575.186 0.25839 0.2948 0.308 0.28235 0.24557 0.2546 0.3015 0.3756 0.3394 0.3262
2594.475 0.3495 0.26886 0.25227 0.26745 0.3183 0.3798 0.2648 0.1645 0.25334 0.3962
2613.765 0.3491 0.24597 0.24629 0.23866 0.2766 0.2983 0.28255 0.305 0.3269 0.28577
2633.055 0.26376 0.22122 0.21365 0.26458 0.27451 0.3064 0.31 0.3036 0.27675 0.1747
2652.345 0.21298 0.353 0.25841 0.1427 0.1401 0.1564 0.21892 0.2951 0.3465 0.3558
2671.634 0.3439 0.3359 0.3183 0.26401 0.24637 0.25018 0.23042 0.22981 0.26122 0.3752
2690.924 0.4687 0.4083 0.3038 0.26089 0.24223 0.21039 0.24322 0.3764 0.4599 0.3365
2710.214 0.21887 0.2948 0.2999 0.23446 0.28715 0.3585 0.3662 0.3494 0.3417 0.28585
2729.504 0.22448 0.26018 0.2942 0.3899 0.5238 0.5514 0.4572 0.4246 0.5126 0.5735
2748.794 0.6263 0.6138 0.4941 0.4444 0.4511 0.4072 0.459 0.396 0.4434 0.5438
2768.083 0.4638 0.4418 0.5273 0.5502 0.4908 0.4843 0.5212 0.5828 0.58 0.6291
2787.373 0.6185 0.545 0.5213 0.5334 0.5788 0.5976 0.6039 0.6071 0.6476 0.6125
2806.663 0.5989 0.6471 0.6671 0.6307 0.6171 0.6582 0.603 0.5972 0.7286 0.7255
2825.953 0.5958 0.6126 0.6726 0.7413 0.7709 0.7803 0.8688 0.8672 0.8372 0.9386
2845.242 1.074 1.1199 1.209 1.339 1.419 1.459 1.549 1.809 2.129 2.299
2864.532 2.439 2.669 2.909 3.019 3.109 3.339 3.439 3.449 3.479 3.389
2883.822 3.309 3.299 3.219 3.219 3.239 3.179 3.139 3.119 3.129 3.189
2903.112 3.339 3.539 3.769 3.899 3.999 4.189 4.499 4.909 5.389 5.789
2922.401 6.189 6.619 7.019 7.289 7.399 7.489 7.479 7.289 7.089 6.849
2941.691 6.489 6.109 5.689 5.229 4.779 4.399 4.049 3.719 3.539 3.449
2960.981 3.219 2.939 2.769 2.629 2.489 2.339 2.269 2.249 2.159 2.049
2980.271 2.149 2.379 2.479 2.579 2.769 2.819 2.899 3.099 3.199 3.249
2999.561 3.369 3.529 3.669 3.749 3.849 4.039 4.189 4.349 4.589 4.889
3018.850 5.229 5.689 6.049 6.379 6.659 6.789 7.069 7.529 7.769 7.899
3038.140 7.979 7.949 7.839 7.659 7.609 7.619 7.619 7.569 7.529 7.539
3057.430 7.619 7.639 7.509 7.359 7.189 6.929 6.699 6.469 5.989 5.669
3076.720 5.359 4.859 4.449 4.179 3.929 3.519 3.149 2.949 2.789 2.789
3096.009 2.659 2.329 2.269 2.149 1.939 1.779 1.719 1.699 1.559 1.479
3115.299 1.489 1.409 1.209 1.0902 0.9856 0.8629 0.7434 0.7795 0.8241 0.744
3134.589 0.8487 0.852 0.7949 0.7413 0.6618 0.6994 0.6563 0.676 0.6878 0.6592
3153.879 0.6334 0.5232 0.4503 0.4791 0.5693 0.5868 0.4653 0.3812 0.3983 0.5097
3173.169 0.5698 0.5339 0.4261 0.3682 0.5271 0.5403 0.3903 0.3172 0.307 0.3878
3192.458 0.4833 0.5181 0.4914 0.4461 0.3963 0.3597 0.3414 0.3479 0.3047 0.18521
3211.748 0.25782 0.3658 0.4022 0.4639 0.5012 0.4202 0.3379 0.386 0.3796 0.25353
3231.038 0.22644 0.2453 0.1492 0.1478 0.28751 0.24461 0.1581 0.19766 0.3082 0.3319
3250.328 0.22093 0.24662 0.2902 0.2321 0.23215 0.27452 0.23167 0.28626 0.3108 0.21349
3269.617 0.2651 0.3039 0.3225 0.3851 0.3416 0.3673 0.4161 0.4562 0.4579 0.3841
3288.907 0.4312 0.506 0.4837 0.5036 0.6449 0.5895 0.503 0.5641 0.5114 0.4668
3308.197 0.5811 0.5939 0.5116 0.449 0.3595 0.4084 0.4295 0.331 0.3546 0.3316
3327.487 0.3663 0.5153 0.5026 0.4513 0.4173 0.2923 0.1591 0.2909 0.3234 0.3546
3346.777 0.4401 0.4078 0.4572 0.4917 0.3434 0.3318 0.4904 0.4185 0.4741 0.554
3366.066 0.501 0.4805 0.5467 0.6792 0.6878 0.7284 0.8272 0.9346 0.9531 1.0267
3385.356 1.209 1.239 1.339 1.509 1.609 1.739 1.899 2.069 2.309 2.539
3404.646 2.759 3.059 3.379 3.829 4.189 4.689 5.389 5.959 6.389 6.859
3423.936 7.479 8.049 8.669 9.179 9.419 9.349 9.039 8.659 8.229 7.709
3443.225 7.019 6.209 5.449 4.699 3.939 3.259 2.649 2.249 2.069 1.979
3462.515 1.839 1.589 1.509 1.389 1.1834 1.0775 1.0882 1.1331 1.0639 1.0092
3481.805 0.9819 1.0595 1.1871 1.114 1.089 1.219 1.1312 1.0836 1.1087 1.0696
3501.095 1.0837 1.319 1.509 1.529 1.569 1.779 2.159 2.329 2.439 2.749
3520.385 2.879 3.009 3.299 3.629 3.989 4.339 4.689 5.089 5.509 5.879
3539.674 6.269 6.589 6.979 7.329 7.639 7.889 7.769 7.619 7.339 6.959
3558.964 6.529 5.759 5.099 4.649 4.109 3.429 2.629 2.109 1.759 1.459
3578.254 1.289 1.1779 0.9814 0.8822 0.8858 0.7575 0.8894 0.7592 0.5003 0.6389
3597.544 0.6793 0.3946 0.3233 0.5438 0.534 0.5764 0.5458 0.4868 0.5195 0.5016
3616.833 0.5214 0.4275 0.3866 0.3889 0.2082 0.3152 0.4642 0.3575 0.2955 0.27478
3636.123 0.4302 0.4281 0.3693 0.4373 0.308 0.1208 0.124 0.325 0.3784 0.3466
3655.413 0.3761 0.4444 0.3945 0.25083 0.1724 0.1684 0.27817 0.2983 0.3773 0.3002
3674.703 0.1559 0.18769 0.18239 0.1167 0.3337 0.4699 0.28879 0.3434 0.4315 0.28835
3693.993 0.345 0.388 0.22344 0.21282 0.25251 0.2791 0.3274 0.3008 0.23086 0.3993
3713.282 0.4957 0.3019 0.26294 0.24945 0.1087 0.23171 0.3637 0.3171 0.3078 0.3096
3732.572 0.3991 0.4345 0.3139 0.27787 0.4226 0.3844 0.25537 0.1876 0.28509 0.4453
3751.862 0.3449 0.25856 0.194338 0.18748 0.3231 0.4489 0.409 0.26084 0.24673 0.25632
3771.152 0.1449 0.1353 0.2928 0.3741 0.3199 0.2993 0.25786 0.1069 0.0964 0.25594
3790.441 0.3181 0.20198 0.1397 0.1034 0.081 0.2937 0.4179 0.4196 0.4135 0.3485
3809.731 0.3414 0.27599 0.22758 0.25791 0.3288 0.2955 0.1697 0.24833 0.25006 0.22204
3829.021 0.24342 0.26994 0.28067 0.25419 0.21986 0.061 0.23139 0.22998 0.124 0.3033
3848.311 0.3238 0.3461 0.4347 0.4892 0.3862 0.3256 0.3594 0.2998 0.1101 0.055
3867.601 0.169 0.25813 0.26409 0.23047 0.2972 0.25976 0.24133 0.28819 0.28203 0.2985
3886.890 0.3089 0.2904 0.3495 0.2929 0.20217 0.3167 0.3594 0.3846 0.308 0.24463
3906.180 0.3015 0.375 0.4273 0.4557 0.3687 0.28336 0.20545 0 0.18627 0.4624
3925.470 0.4024 0.3475 0.28161 0.1717 0.25826 0.4522 0.4046 0.2632 0.1483 0.1293
3944.760 0.194848 0.348 0.3771 0.3738 0.24823 0.1064 0.21835 0.3177 0.192835 0.063
3964.049 0.1558 0.190081 0.2929 0.22358 0.27844 0.4015 0.1837 0.1658 0.3576 0.465
3983.339 0.3037 0.035 0.1272 0.3206 0.4768 0.4912 0.4074 0.3807 0.3332 0.23117
##END=
