##TITLE=2-Ethyl-4-methyl-1-pentene
##JCAMP-DX=4.24
##DATA TYPE=INFRARED SPECTRUM
##ORIGIN=NIST Mass Spectrometry Data Center
##OWNER=NIST Standard Reference Data Program
Collection (C) 2018 copyright by the U.S. Secretary of Commerce
on behalf of the United States of America. All rights reserved.
##CAS REGISTRY NO=61847-80-1
##MOLFORM=C 8 H 16
##$NIST SOURCE=MSDC-IR
##SPECTROMETER/DATA SYSTEM=HP-GC/MS/IRD
##STATE=gas
##XUNITS=1/CM
##YUNITS=ABSORBANCE
##XFACTOR=1.0
##YFACTOR=0.000002400
##DELTAX=4.0
##FIRSTX=550.0
##LASTX=3846.0
##FIRSTY=0.000437
##MAXX=3846
##MINX=550
##MAXY=0.024
##MINY=0
##NPOINTS=825
##XYDATA=(X++(Y..Y))
550.0 182 114 72 67 41 93 90 21 50 81
590.0 73 83 83 71 72 70 80 85 79 77
630.0 64 91 78 19 26 18 13 12 6 10
670.0 17 32 45 47 42 38 41 53 44 46
710.0 44 15 16 18 4 2 28 60 53 34
750.0 39 51 50 58 76 88 97 114 133 150
790.0 172 150 147 156 151 149 157 176 179 186
830.0 186 164 142 142 139 154 183 214 269 382
870.0 574 814 1138 1550 1959 2322 2491 2302 1927 1511
910.0 1088 749 513 368 287 227 182 167 139 114
950.0 107 101 108 114 103 108 118 114 108 106
990.0 112 124 141 149 149 147 138 125 122 116
1030.0 112 115 124 139 148 173 199 217 217 205
1070.0 202 188 167 158 165 174 180 186 193 200
1110.0 208 207 181 151 143 134 117 130 154 167
1150.0 220 286 335 364 364 348 323 267 190 148
1190.0 146 159 172 173 181 187 182 187 183 171
1230.0 167 165 173 187 190 193 196 198 201 195
1270.0 197 203 215 215 203 201 199 193 194 187
1310.0 181 186 204 243 282 309 341 375 397 423
1350.0 459 506 589 699 815 919 1000 1057 1064 1015
1390.0 918 797 667 552 492 479 496 538 593 660
1430.0 738 821 930 1055 1173 1302 1415 1498 1539 1520
1470.0 1427 1248 1049 839 639 493 390 309 251 214
1510.0 183 165 156 144 130 118 114 111 100 98
1550.0 100 97 90 92 94 97 103 107 112 114
1590.0 123 131 143 159 183 223 280 361 477 628
1630.0 789 931 1034 1073 1039 933 759 571 406 280
1670.0 197 146 119 97 84 85 77 75 77 73
1710.0 59 52 51 44 40 39 39 42 39 37
1750.0 40 43 45 46 53 68 89 108 136 157
1790.0 164 172 168 145 123 99 80 60 42 36
1830.0 36 34 30 23 18 24 27 22 25 26
1870.0 18 20 32 35 32 21 15 21 25 18
1910.0 12 16 16 10 7 7 8 13 14 6
1950.0 5 11 12 12 8 5 1 4 4 0
1990.0 7 13 8 7 12 16 8 8 18 13
2030.0 8 11 10 11 12 14 13 9 8 6
2070.0 11 16 17 18 17 9 5 9 13 12
2110.0 10 10 7 11 12 10 11 13 9 6
2150.0 9 10 10 15 15 10 8 11 13 15
2190.0 11 11 9 4 7 14 18 13 8 8
2230.0 3 1 11 13 8 14 16 14 15 17
2270.0 18 15 11 11 20 25 23 26 25 23
2310.0 20 17 21 15 11 15 17 24 22 24
2350.0 25 25 26 25 17 22 32 32 30 29
2390.0 28 24 21 22 25 27 29 33 29 26
2430.0 35 44 45 33 24 26 27 33 31 26
2470.0 28 28 28 31 36 38 31 31 35 38
2510.0 40 39 39 36 35 43 46 41 41 43
2550.0 45 49 54 57 59 61 67 67 65 67
2590.0 68 66 68 73 80 81 74 75 80 86
2630.0 84 83 89 100 104 89 95 106 99 92
2670.0 93 97 102 98 100 109 112 112 118 132
2710.0 146 159 172 189 206 217 224 237 236 223
2750.0 217 220 225 227 231 237 251 259 266 283
2790.0 305 327 349 373 404 448 502 565 642 738
2830.0 845 965 1102 1257 1412 1562 1712 1905 2167 2519
2870.0 2946 3352 3705 3983 4161 4253 4328 4458 4656 4909
2910.0 5178 5437 5653 5822 5960 6066 6137 6217 6368 6680
2950.0 7218 7990 8867 9642 10000 9699 8836 7568 6096 4632
2990.0 3438 2619 2064 1659 1359 1134 965 841 748 671
3030.0 603 561 541 518 505 525 572 642 758 943
3070.0 1137 1314 1429 1433 1348 1162 928 709 522 393
3110.0 319 269 237 223 214 197 189 185 177 167
3150.0 163 164 165 173 170 173 181 177 177 182
3190.0 173 161 150 140 129 128 125 109 105 96
3230.0 88 77 70 72 66 67 63 63 70 67
3270.0 58 56 57 56 55 58 53 53 64 59
3310.0 42 40 43 43 49 50 36 27 33 40
3350.0 43 41 44 48 45 34 35 45 46 46
3390.0 41 29 31 39 35 35 32 29 25 22
3430.0 25 25 15 15 22 24 32 36 40 39
3470.0 23 17 28 25 18 29 25 13 24 33
3510.0 23 25 22 17 13 10 16 13 11 22
3550.0 24 14 13 20 16 11 14 12 12 18
3590.0 27 24 11 1 3 5 6 16 32 25
3630.0 15 26 29 33 29 21 14 24 19 5
3670.0 18 35 22 11 18 15 11 31 38 20
3710.0 10 15 25 27 29 34 28 15 1 10
3750.0 28 24 32 34 30 33 42 46 26 16
3790.0 26 38 36 27 38 46 35 35 35 34
3830.0 40 25 21 37 43
##END=
