##TITLE=4-Chlorobenzamide
##JCAMP-DX=4.24
##DATA TYPE=INFRARED SPECTRUM
##ORIGIN=NIST Mass Spectrometry Data Center
##OWNER=NIST Standard Reference Data Program
Collection (C) 2018 copyright by the U.S. Secretary of Commerce
on behalf of the United States of America. All rights reserved.
##CAS REGISTRY NO=619-56-7
##MOLFORM=C 7 H 6 Cl N O
##$NIST SOURCE=MSDC-IR
##SPECTROMETER/DATA SYSTEM=HP-GC/MS/IRD
##STATE=gas
##XUNITS=1/CM
##YUNITS=ABSORBANCE
##XFACTOR=1.0
##YFACTOR=0.000010000
##DELTAX=4.0
##FIRSTX=550.0
##LASTX=3846.0
##FIRSTY=0.001600
##MAXX=3846
##MINX=550
##MAXY=0.1
##MINY=0
##NPOINTS=825
##XYDATA=(X++(Y..Y))
550.0 160 151 33 53 40 39 36 26 13 7
590.0 14 27 36 46 68 90 111 136 164 189
630.0 207 228 242 254 269 283 288 289 314 361
670.0 411 454 491 516 520 493 447 398 347 305
710.0 269 251 252 273 324 417 557 745 958 1173
750.0 1420 1598 1686 1849 1937 1806 1523 1158 854 696
790.0 624 588 578 580 589 610 631 664 722 803
830.0 912 1024 1126 1223 1222 1078 913 760 607 484
870.0 399 347 314 294 282 268 249 233 220 212
910.0 203 196 197 199 200 197 186 173 158 147
950.0 137 137 142 143 152 156 154 154 153 149
990.0 148 163 218 362 730 1184 1321 1278 989 482
1030.0 222 171 164 172 206 252 322 440 584 712
1070.0 802 876 1003 1354 1981 2596 2873 2666 1961 1164
1110.0 725 609 606 584 518 420 277 154 92 56
1150.0 34 24 28 42 74 116 151 168 167 144
1190.0 125 127 139 160 183 209 235 250 249 241
1230.0 232 221 220 234 262 298 338 380 425 476
1270.0 538 606 669 708 721 706 682 669 681 728
1310.0 820 963 1190 1567 2191 3194 4618 6219 7428 7724
1350.0 6889 5193 3374 2061 1376 1070 933 886 901 966
1390.0 1038 1060 1001 864 671 495 390 341 319 300
1430.0 274 238 194 160 142 134 131 132 142 172
1470.0 236 353 560 887 1226 1354 1263 980 573 304
1510.0 203 172 165 170 182 205 234 275 335 413
1550.0 513 636 792 991 1229 1545 1969 2577 3331 4148
1590.0 4902 5365 5275 4631 3647 2535 1607 1048 770 624
1630.0 542 503 484 477 475 474 482 500 535 597
1670.0 694 813 942 1089 1271 1471 1784 2327 3184 4437
1710.0 6242 8370 9737 10000 9777 8180 5667 3790 2612 1861
1750.0 1443 1216 1081 957 804 646 502 387 300 238
1790.0 190 155 130 109 96 85 77 70 64 62
1830.0 63 66 66 63 58 55 54 54 57 60
1870.0 65 71 81 91 100 110 117 117 109 95
1910.0 83 73 69 65 62 57 53 47 40 33
1950.0 26 22 17 15 14 14 16 17 21 25
1990.0 27 26 22 15 11 8 8 10 9 11
2030.0 13 11 9 7 7 6 2 1 2 1
2070.0 0 0 0 1 2 4 5 7 10 13
2110.0 16 17 18 14 12 11 10 9 9 8
2150.0 6 7 8 9 9 8 9 12 12 14
2190.0 15 15 13 11 11 11 12 13 14 15
2230.0 16 17 16 15 13 14 14 11 11 10
2270.0 10 13 16 16 17 19 21 19 16 13
2310.0 11 9 8 8 7 6 3 7 9 10
2350.0 12 14 17 18 20 21 20 19 18 19
2390.0 19 21 25 26 26 27 28 27 25 21
2430.0 17 14 13 12 11 11 10 12 13 11
2470.0 8 10 11 11 9 7 7 7 9 8
2510.0 8 11 12 13 16 19 21 23 26 28
2550.0 28 28 25 23 21 18 18 20 17 14
2590.0 14 12 12 15 15 13 15 16 14 11
2630.0 10 11 11 12 13 12 12 14 15 14
2670.0 15 16 17 16 17 19 18 16 17 19
2710.0 19 20 19 18 15 14 12 8 8 9
2750.0 9 12 13 15 22 24 25 27 31 31
2790.0 29 27 23 20 18 14 14 14 12 14
2830.0 17 17 14 11 10 10 8 7 7 6
2870.0 6 8 8 10 10 12 12 12 15 17
2910.0 19 20 24 26 28 30 29 30 28 23
2950.0 19 18 12 10 11 11 11 13 14 16
2990.0 19 21 20 22 26 30 37 48 61 78
3030.0 106 135 154 163 165 161 159 160 156 152
3070.0 147 142 150 175 196 202 198 189 159 121
3110.0 94 70 50 43 41 40 37 38 39 35
3150.0 33 35 35 33 34 32 29 24 20 20
3190.0 20 19 21 19 17 15 10 10 9 9
3230.0 9 8 8 8 9 11 11 9 9 10
3270.0 14 16 17 20 25 30 36 42 46 46
3310.0 43 40 34 27 23 21 22 25 24 23
3350.0 26 30 28 31 40 49 61 75 93 110
3390.0 131 160 203 254 321 409 523 660 819 987
3430.0 1125 1185 1130 967 744 532 364 258 196 159
3470.0 139 125 115 110 107 107 115 130 145 162
3510.0 188 221 263 317 381 455 547 649 741 817
3550.0 846 808 702 552 401 270 183 132 100 82
3590.0 68 52 41 32 28 28 28 24 22 23
3630.0 17 17 18 12 10 13 17 13 11 17
3670.0 19 13 11 13 15 14 13 10 9 10
3710.0 12 18 21 22 21 20 22 18 13 9
3750.0 4 5 7 8 11 11 8 5 5 8
3790.0 12 10 7 7 6 6 6 7 7 9
3830.0 12 13 10 11 15
##END=
