##TITLE=3-Hydroxy-4-nitrobenzoic acid
##JCAMP-DX=4.24
##DATA TYPE=INFRARED SPECTRUM
##ORIGIN=EPA-IR VAPOR PHASE LIBRARY
##OWNER=SRD/NIST
Collection (C) 2018 copyright by the U.S. Secretary of Commerce
on behalf of the United States of America. All rights reserved.
##CAS REGISTRY NO=619-14-7
##MOLFORM=C 7 H 5 N O 5
##$NIST SOURCE=MSDC-IR
##STATE=gas
##XUNITS=1/CM
##YUNITS=ABSORBANCE
##XFACTOR=1.
##YFACTOR=0.001
##DELTAX=1.929
##FIRSTX=549.8
##LASTX=4000.8
##FIRSTY=1.3632
##MAXX=4000.75
##MINX=549.766
##MAXY=0.010989
##MINY=0
##NPOINTS=1790
##XYDATA=(X++(Y..Y))
549.766 1.3632 1.5158 1.829 1.769 1.3393 1.4224 1.649 1.729 1.759 1.849
569.056 1.889 1.719 1.659 1.739 1.619 1.3812 1.3788 1.549 1.5104 1.4889
588.346 1.739 1.859 1.949 2.229 2.329 2.339 2.379 2.399 2.289 2.229
607.636 2.219 1.959 1.859 1.829 1.619 1.4675 1.4183 1.3166 1.1689 1.1204
626.926 1.0887 1.0848 1.0777 1.1595 1.267 1.2703 1.2242 1.2874 1.4006 1.3771
646.216 1.4014 1.699 2.039 2.199 2.209 2.269 2.409 2.369 2.229 1.969
665.506 1.819 1.839 1.839 1.749 1.669 1.589 1.619 1.739 1.799 1.659
684.796 1.569 1.609 1.4783 1.3674 1.3094 1.2027 1.1759 1.1852 1.1527 1.0932
704.086 1.0661 1.1077 1.112 1.0799 1.0152 1.0458 1.1672 1.3844 1.719 2.109
723.376 2.589 2.999 3.289 3.459 3.639 3.769 3.599 3.209 2.869 2.769
742.666 2.829 3.139 3.379 3.279 2.919 2.619 2.479 2.279 2.079 1.899
761.956 1.769 1.639 1.4416 1.3119 1.2742 1.2339 1.2388 1.2532 1.2146 1.2111
781.246 1.2085 1.1918 1.2417 1.2641 1.3467 1.5238 1.619 1.779 2.009 2.269
800.536 2.589 2.889 3.129 3.209 3.189 3.139 3.049 2.959 2.709 2.519
819.826 2.519 2.429 2.409 2.419 2.439 2.479 2.509 2.639 2.929 3.109
839.116 3.179 3.259 3.199 3.059 2.899 2.669 2.449 2.189 1.949 1.789
858.406 1.669 1.649 1.599 1.5 1.4794 1.4793 1.4384 1.3789 1.3488 1.3529
877.696 1.3662 1.3648 1.3812 1.4131 1.4656 1.649 1.809 1.939 1.989 2.049
896.986 2.059 2.049 1.999 1.819 1.709 1.549 1.41 1.3449 1.2336 1.1435
916.276 1.0348 0.9851 0.9913 0.9727 1.0377 1.0939 1.2228 1.421 1.589 1.679
935.566 1.789 1.899 1.949 1.949 1.869 1.729 1.549 1.383 1.243 1.0682
954.856 0.9594 0.9085 0.8243 0.8035 0.8358 0.8034 0.8071 0.8505 0.7832 0.6953
974.146 0.6913 0.6967 0.6868 0.7 0.6967 0.62332 0.58708 0.60096 0.60167 0.6456
993.436 0.656 0.6541 0.7131 0.7841 0.8437 0.8732 0.9274 0.9892 1.0346 1.0508
1012.726 1.1108 1.1416 1.2573 1.4779 1.549 1.679 1.889 2.159 2.419 2.569
1032.016 2.779 2.979 3.169 3.309 3.369 3.419 3.429 3.309 3.199 3.209
1051.306 3.229 3.289 3.449 3.629 3.849 4.209 4.569 4.859 5.099 5.209
1070.596 5.129 4.979 4.799 4.739 4.869 5.019 5.189 5.409 5.549 5.639
1089.886 5.669 5.559 5.509 5.399 5.109 4.859 4.639 4.319 4.039 3.699
1109.176 3.369 3.149 2.869 2.669 2.509 2.369 2.319 2.299 2.299 2.359
1128.467 2.509 2.649 2.799 3.019 3.379 3.829 4.179 4.529 4.929 5.289
1147.757 5.659 6.069 6.409 6.689 6.859 6.909 6.909 6.819 6.639 6.359
1167.047 6.119 5.899 5.559 5.169 4.819 4.559 4.269 4.049 3.999 3.919
1186.337 3.909 3.889 3.819 3.829 3.869 3.859 3.839 3.859 3.769 3.649
1205.627 3.549 3.439 3.239 3.139 3.059 2.919 2.939 2.979 3.059 3.169
1224.917 3.299 3.459 3.619 3.769 3.839 3.839 3.829 3.739 3.609 3.529
1244.207 3.439 3.329 3.229 3.209 3.269 3.299 3.319 3.429 3.659 3.949
1263.497 4.209 4.449 4.669 4.619 4.379 4.169 4.029 3.919 3.829 3.819
1282.787 3.809 3.839 3.939 4.049 4.159 4.239 4.229 4.149 4.089 3.969
1302.077 3.909 3.939 4.049 4.229 4.429 4.729 5.049 5.379 5.759 6.159
1321.367 6.549 6.849 7.099 7.249 7.259 7.159 6.899 6.519 6.119 5.689
1340.657 5.189 4.699 4.309 3.969 3.699 3.509 3.369 3.299 3.309 3.389
1359.947 3.369 3.329 3.349 3.319 3.209 3.049 2.909 2.809 2.679 2.599
1379.237 2.519 2.439 2.349 2.209 2.059 1.879 1.759 1.689 1.559 1.4088
1398.527 1.2696 1.1974 1.1203 1.064 0.9823 0.8821 0.8371 0.8471 0.8639 0.9015
1417.817 0.9858 1.0493 1.1523 1.2548 1.4017 1.599 1.759 1.899 2.029 2.139
1437.107 2.229 2.379 2.529 2.619 2.659 2.649 2.589 2.509 2.389 2.239
1456.397 2.079 1.889 1.709 1.619 1.649 1.729 1.919 2.159 2.429 2.699
1475.687 2.949 3.169 3.359 3.449 3.519 3.539 3.409 3.199 2.859 2.529
1494.977 2.249 1.969 1.739 1.639 1.619 1.589 1.5248 1.4809 1.4434 1.3686
1514.267 1.3444 1.3016 1.2072 1.1152 1.0849 1.096 1.1285 1.1821 1.2676 1.4046
1533.557 1.5049 1.609 1.749 1.899 2.029 2.079 2.159 2.189 2.169 2.059
1552.847 1.969 1.879 1.749 1.609 1.4815 1.3879 1.2913 1.2951 1.3438 1.4177
1572.137 1.5204 1.709 2.009 2.329 2.639 3.009 3.379 3.709 3.979 4.139
1591.427 4.179 4.149 4.059 3.929 3.769 3.489 3.129 2.849 2.659 2.479
1610.717 2.379 2.399 2.479 2.619 2.739 2.889 3.059 3.149 3.209 3.139
1630.007 2.909 2.699 2.429 2.079 1.789 1.549 1.307 1.1426 1.0275 0.928
1649.297 0.8639 0.751 0.61307 0.54828 0.54632 0.54662 0.5163 0.5131 0.538967 0.5
1668.587 0.4935 0.52568 0.5062 0.4792 0.4646 0.4357 0.4453 0.472 0.4567 0.4513
1687.877 0.4598 0.4341 0.4507 0.4837 0.4587 0.49 0.52733 0.52389 0.55866 0.57986
1707.167 0.61868 0.697 0.7822 0.8389 0.9562 1.1061 1.2642 1.529 1.859 2.179
1726.457 2.469 2.639 2.599 2.409 2.089 1.699 1.467 1.3375 1.2587 1.2641
1745.747 1.4029 1.659 2.059 2.639 3.379 4.369 5.589 7.009 8.589 9.959
1765.037 10.759 10.989 10.929 10.779 10.189 8.859 7.039 5.289 4.019 3.189
1784.327 2.539 2.059 1.789 1.589 1.4593 1.3677 1.2911 1.2558 1.2491 1.283
1803.617 1.3519 1.3263 1.3131 1.3467 1.3167 1.3233 1.272 1.1498 1.0554 0.9466
1822.907 0.8375 0.7609 0.7211 0.6676 0.59456 0.55372 0.536715 0.5002 0.4699 0.4446
1842.197 0.407 0.391 0.423 0.4399 0.413 0.408 0.41 0.367 0.371 0.395
1861.487 0.391 0.372 0.377 0.36 0.334 0.371 0.391 0.366 0.338 0.344
1880.777 0.374 0.409 0.42 0.379 0.36 0.371 0.36 0.365 0.347 0.318
1900.067 0.325 0.355 0.363 0.349 0.346 0.345 0.355 0.367 0.396 0.379
1919.357 0.353 0.365 0.361 0.365 0.349 0.346 0.362 0.367 0.364 0.315
1938.647 0.32 0.324 0.286 0.311 0.305 0.269 0.281 0.301 0.301 0.28
1957.937 0.278 0.271 0.24 0.256 0.251 0.252 0.289 0.325 0.309 0.273
1977.227 0.286 0.269 0.215 0.208 0.245 0.292 0.308 0.292 0.302 0.319
1996.517 0.292 0.283 0.284 0.231 0.265 0.311 0.329 0.311 0.282 0.301
2015.807 0.286 0.296 0.279 0.287 0.347 0.329 0.26 0.236 0.254 0.275
2035.097 0.294 0.311 0.349 0.361 0.359 0.344 0.316 0.316 0.295 0.281
2054.387 0.286 0.314 0.329 0.292 0.279 0.277 0.292 0.312 0.331 0.318
2073.677 0.258 0.261 0.3 0.314 0.288 0.257 0.297 0.346 0.335 0.286
2092.967 0.258 0.272 0.3 0.299 0.303 0.362 0.361 0.31 0.328 0.339
2112.257 0.347 0.331 0.294 0.333 0.38 0.352 0.295 0.291 0.313 0.317
2131.547 0.349 0.364 0.325 0.334 0.312 0.288 0.325 0.365 0.357 0.339
2150.837 0.371 0.358 0.333 0.372 0.405 0.396 0.373 0.369 0.369 0.362
2170.127 0.373 0.379 0.359 0.361 0.353 0.357 0.36 0.346 0.36 0.381
2189.417 0.379 0.356 0.355 0.381 0.395 0.353 0.324 0.351 0.356 0.352
2208.707 0.364 0.379 0.369 0.37 0.386 0.372 0.326 0.303 0.317 0.311
2227.997 0.332 0.322 0.311 0.334 0.334 0.317 0.317 0.345 0.298 0.273
2247.287 0.319 0.307 0.327 0.367 0.39 0.383 0.346 0.341 0.375 0.412
2266.577 0.386 0.402 0.4305 0.418 0.4 0.372 0.343 0.347 0.332 0.314
2285.868 0.353 0.367 0.353 0.341 0.34 0.343 0.383 0.429 0.389 0.368
2305.158 0.426 0.4438 0.4403 0.418 0.412 0.42 0.426 0.421 0.41 0.428
2324.448 0.418 0.413 0.42 0.385 0.348 0.368 0.383 0.391 0.406 0.404
2343.738 0.421 0.415 0.406 0.391 0.362 0.341 0.372 0.4368 0.4346 0.419
2363.028 0.425 0.409 0.4313 0.42 0.363 0.4315 0.4831 0.4434 0.422 0.421
2382.318 0.405 0.389 0.388 0.363 0.397 0.4451 0.4357 0.4568 0.408 0.369
2401.608 0.427 0.42 0.395 0.429 0.41 0.389 0.411 0.407 0.4356 0.4524
2420.898 0.394 0.373 0.372 0.355 0.365 0.373 0.383 0.419 0.4313 0.427
2440.188 0.4495 0.408 0.353 0.363 0.37 0.369 0.371 0.322 0.357 0.403
2459.478 0.349 0.365 0.415 0.406 0.382 0.39 0.396 0.423 0.4681 0.42
2478.768 0.382 0.381 0.358 0.373 0.393 0.374 0.369 0.357 0.338 0.378
2498.058 0.405 0.395 0.362 0.345 0.349 0.354 0.398 0.4381 0.408 0.398
2517.348 0.379 0.394 0.396 0.382 0.407 0.39 0.355 0.324 0.338 0.366
2536.638 0.401 0.44 0.4419 0.4635 0.4502 0.426 0.4321 0.391 0.389 0.4326
2555.928 0.4527 0.393 0.38 0.395 0.381 0.4321 0.4634 0.4642 0.4348 0.399
2575.218 0.396 0.396 0.388 0.373 0.405 0.39 0.368 0.423 0.4351 0.4412
2594.508 0.422 0.4418 0.4483 0.4371 0.4705 0.4345 0.423 0.4782 0.4794 0.4306
2613.798 0.4491 0.4641 0.4537 0.4534 0.422 0.355 0.365 0.4302 0.4641 0.4621
2633.088 0.429 0.4388 0.4429 0.428 0.418 0.401 0.388 0.365 0.397 0.4462
2652.378 0.4428 0.4852 0.4808 0.4704 0.4311 0.386 0.4461 0.492 0.4534 0.416
2671.668 0.395 0.37 0.402 0.413 0.457 0.4752 0.421 0.401 0.4464 0.425
2690.958 0.406 0.4574 0.449 0.386 0.368 0.369 0.405 0.4875 0.485 0.4361
2710.248 0.42 0.4462 0.4587 0.429 0.423 0.4495 0.4372 0.443 0.4325 0.372
2729.538 0.349 0.407 0.4725 0.4761 0.4435 0.4651 0.4712 0.4373 0.434 0.4542
2748.828 0.5156 0.5061 0.4 0.35 0.351 0.363 0.411 0.4569 0.4825 0.419
2768.118 0.44 0.5143 0.4411 0.4353 0.5043 0.4746 0.4473 0.52267 0.4984 0.428
2787.408 0.4574 0.4346 0.424 0.4309 0.381 0.391 0.4821 0.5171 0.4487 0.4402
2806.698 0.482 0.4913 0.492 0.4578 0.4742 0.4544 0.4616 0.4876 0.4774 0.4499
2825.988 0.39 0.4337 0.4717 0.4518 0.438 0.425 0.409 0.355 0.362 0.424
2845.278 0.372 0.371 0.4886 0.55587 0.534557 0.58226 0.639 0.6699 0.6869 0.6636
2864.568 0.6364 0.62518 0.6583 0.60157 0.57404 0.55652 0.58239 0.646 0.6552 0.56645
2883.858 0.4913 0.57334 0.61819 0.62192 0.57172 0.55636 0.6547 0.6592 0.61294 0.6825
2903.148 0.7854 0.8552 0.9195 1.0122 1.0929 1.1 1.1561 1.2413 1.2175 1.1634
2922.438 1.1472 1.117 1.0756 1.0094 0.9787 0.9956 0.9549 0.8729 0.8345 0.8666
2941.728 0.891 0.9131 0.8808 0.8776 0.9243 0.9468 0.8831 0.8307 0.9094 0.9945
2961.018 0.9851 1.0351 1.18 1.16 1.2048 1.3146 1.2162 1.1086 1.0867 0.9859
2980.308 0.8319 0.7438 0.7523 0.7123 0.579 0.4924 0.56566 0.57414 0.52111 0.56895
2999.598 0.56692 0.4972 0.396 0.311 0.288 0.389 0.4397 0.423 0.413 0.376
3018.888 0.334 0.333 0.339 0.374 0.461 0.422 0.416 0.5031 0.5069 0.5092
3038.178 0.4633 0.4691 0.52603 0.4889 0.4486 0.4573 0.4785 0.42 0.4604 0.56278
3057.468 0.54339 0.5154 0.534187 0.55131 0.54871 0.5475 0.529655 0.55468 0.5822 0.5174
3076.758 0.56216 0.6411 0.530346 0.5048 0.54986 0.502 0.4817 0.4457 0.374 0.405
3096.048 0.426 0.406 0.4675 0.425 0.306 0.291 0.331 0.3 0.27 0.355
3115.338 0.329 0.28 0.317 0.296 0.247 0.242 0.289 0.238 0.176 0.291
3134.628 0.395 0.312 0.254 0.323 0.408 0.379 0.255 0.254 0.276 0.249
3153.918 0.251 0.211 0.237 0.309 0.295 0.216 0.199 0.308 0.321 0.28
3173.208 0.341 0.311 0.28 0.332 0.375 0.419 0.406 0.419 0.445 0.369
3192.498 0.291 0.238 0.241 0.26 0.274 0.329 0.363 0.257 0.229 0.309
3211.788 0.315 0.302 0.319 0.391 0.4378 0.48 0.5031 0.4693 0.421 0.4323
3231.078 0.4954 0.56318 0.58502 0.55353 0.60606 0.6243 0.6504 0.6982 0.7026 0.7541
3250.368 0.8239 0.8977 0.9159 0.9205 0.885 0.9356 0.9969 0.9939 1.0379 1.1463
3269.658 1.1402 1.0186 0.9095 1.0046 1.1836 1.1022 1.0839 1.1227 1.0482 1.0725
3288.948 1.0685 1.0076 1.0807 1.1149 1.0478 1.0586 1.0689 1.0178 1.0005 0.9669
3308.238 0.9058 0.8222 0.789 0.9146 0.9963 0.899 0.817 0.8163 0.8417 0.7834
3327.528 0.7402 0.7825 0.769 0.7597 0.7702 0.7817 0.7845 0.8182 0.8247 0.7626
3346.818 0.7091 0.6563 0.6371 0.7916 0.7923 0.6868 0.778 0.7766 0.6478 0.56892
3366.108 0.62262 0.56542 0.4949 0.52705 0.56184 0.58971 0.57689 0.58676 0.56531 0.62296
3385.398 0.60365 0.52031 0.537502 0.4912 0.4376 0.4505 0.54176 0.62293 0.6519 0.60247
3404.688 0.4729 0.461 0.4719 0.479 0.4858 0.397 0.368 0.344 0.37 0.453
3423.978 0.4623 0.375 0.349 0.392 0.423 0.425 0.358 0.372 0.388 0.423
3443.269 0.396 0.231 0.332 0.419 0.33 0.262 0.282 0.388 0.367 0.314
3462.559 0.224 0.173 0.265 0.284 0.268 0.331 0.292 0.322 0.398 0.309
3481.849 0.299 0.279 0.198 0.223 0.257 0.256 0.388 0.407 0.259 0.292
3501.139 0.322 0.359 0.373 0.344 0.418 0.416 0.4323 0.4499 0.426 0.4704
3520.429 0.4568 0.441 0.384 0.37 0.419 0.407 0.372 0.221 0.212 0.361
3539.719 0.281 0.165 0.323 0.4389 0.391 0.389 0.4777 0.57664 0.4958 0.4302
3559.009 0.56542 0.7076 0.8045 1.0152 1.3642 1.799 2.349 3.069 3.919 4.639
3578.299 4.939 4.909 4.779 4.429 3.759 2.969 2.219 1.599 1.0145 0.636
3597.589 0.528618 0.4882 0.47 0.34 0.281 0.355 0.394 0.355 0.272 0.261
3616.879 0.27 0.199 0.231 0.26 0.182 0.166 0.225 0.288 0.424 0.496
3636.169 0.413 0.427 0.4657 0.4364 0.397 0.426 0.4506 0.425 0.299 0.212
3655.459 0.332 0.4357 0.307 0.201 0.296 0.309 0.284 0.332 0.325 0.254
3674.749 0.229 0.243 0.165 0.173 0.27 0.288 0.262 0.275 0.231 0.182
3694.039 0.342 0.4339 0.35 0.232 0.116 0 0.058 0.195 0.15 0.23
3713.329 0.261 0.199 0.161 0.121 0.198 0.127 0.069 0.102 0.153 0.187
3732.619 0.245 0.322 0.191 0.068 0.075 0.109 0.099 0.103 0.126 0.105
3751.909 0.135 0.137 0.16 0.146 0.114 0.206 0.297 0.247 0.176 0.183
3771.199 0.244 0.321 0.374 0.288 0.175 0.131 0.137 0.238 0.19 0.209
3790.489 0.226 0.13 0.134 0.157 0.188 0.185 0.155 0.171 0.215 0.29
3809.779 0.217 0.17 0.257 0.276 0.327 0.323 0.25 0.248 0.31 0.285
3829.069 0.189 0.174 0.213 0.207 0.26 0.32 0.257 0.194 0.114 0.119
3848.359 0.148 0.172 0.297 0.338 0.292 0.22 0.225 0.265 0.254 0.276
3867.649 0.26 0.203 0.125 0.168 0.272 0.224 0.177 0.137 0.049 0.072
3886.939 0.083 0.078 0.104 0.147 0.239 0.157 0.09 0.218 0.272 0.181
3906.229 0.214 0.304 0.238 0.206 0.201 0.113 0.094 0.16 0.158 0.189
3925.519 0.221 0.222 0.201 0.148 0.19 0.31 0.426 0.412 0.338 0.302
3944.809 0.294 0.237 0.21 0.229 0.289 0.174 0.176 0.356 0.348 0.347
3964.099 0.304 0.247 0.295 0.281 0.33 0.416 0.318 0.291 0.284 0.277
3983.389 0.295 0.267 0.288 0.335 0.288 0.226 0.272 0.256 0.207 0.308
##END=
