##TITLE=4-Ethylbenzoic acid
##JCAMP-DX=4.24
##DATA TYPE=INFRARED SPECTRUM
##ORIGIN=EPA-IR VAPOR PHASE LIBRARY
##OWNER=SRD/NIST
Collection (C) 2018 copyright by the U.S. Secretary of Commerce
on behalf of the United States of America. All rights reserved.
##CAS REGISTRY NO=619-64-7
##MOLFORM=C 9 H 10 O 2
##$NIST SOURCE=MSDC-IR
##STATE=gas
##XUNITS=1/CM
##YUNITS=ABSORBANCE
##XFACTOR=1.
##YFACTOR=0.001
##DELTAX=1.929
##FIRSTX=549.8
##LASTX=4000.8
##FIRSTY=4.142
##MAXX=4000.75
##MINX=549.766
##MAXY=0.064972
##MINY=0
##NPOINTS=1790
##XYDATA=(X++(Y..Y))
549.766 4.142 4.522 5.072 5.212 5.372 5.612 5.922 6.222 6.242 6.572
569.056 6.882 7.062 6.882 6.662 6.632 6.482 6.712 7.122 7.572 8.102
588.346 8.202 7.892 7.702 7.552 7.192 6.522 5.552 4.342 3.362 2.762
607.636 2.502 2.322 1.972 1.7231 1.6788 1.5214 1.4094 1.4507 1.5324 1.5554
626.926 1.4854 1.6303 1.6541 1.3691 1.3027 1.427 1.4303 1.3694 1.3946 1.2843
646.216 1.1462 1.3094 1.4137 1.383 1.2969 1.1385 1.1061 1.1196 0.9571 1.1192
665.506 1.3911 1.379 1.4332 1.5249 1.6033 1.7636 1.982 2.432 2.852 3.182
684.796 3.722 4.252 4.922 5.652 6.312 6.942 7.572 8.222 8.832 9.372
704.086 9.742 9.752 9.532 9.112 8.512 7.902 7.222 6.552 6.022 5.522
723.376 5.012 4.672 4.442 4.222 4.122 4.202 4.182 4.152 4.232 4.382
742.666 4.472 4.522 4.632 4.712 4.782 4.932 5.052 5.152 5.272 5.352
761.956 5.492 5.622 5.682 5.712 5.722 5.632 5.562 5.432 5.222 4.912
781.246 4.632 4.512 4.272 4.092 3.982 3.732 3.482 3.252 3.002 2.842
800.536 2.672 2.432 2.232 2.092 1.982 1.872 1.952 2.082 1.902 1.7551
819.826 1.6746 1.5374 1.5025 1.5109 1.5601 1.7238 1.942 2.042 2.082 2.282
839.116 2.612 2.882 3.142 3.312 3.392 3.642 3.982 3.992 3.602 3.282
858.406 3.132 2.952 2.702 2.392 2.122 1.842 1.6814 1.5259 1.4073 1.3283
877.696 1.2751 1.2457 1.1084 1.0064 1.037 1.1173 1.1876 1.2331 1.1416 1.0678
896.986 1.0311 1.0853 1.1656 1.1313 1.08 1.0279 1.0805 1.1276 1.1327 1.1456
916.276 1.1533 1.0812 1.0334 1.0517 1.012 1.0594 1.004 1.001 1.124 1.07
935.566 0.9347 0.8989 0.87614 0.82849 0.84046 0.83583 0.9339 1.1187 1.1315 1.0766
954.856 1.1168 1.1514 1.2466 1.3222 1.3227 1.3089 1.2884 1.3481 1.3723 1.3334
974.146 1.3401 1.31 1.2201 1.2058 1.1692 1.2281 1.3777 1.355 1.3261 1.2966
993.436 1.4024 1.5824 1.6482 1.7087 1.862 2.122 2.392 2.832 3.442 4.172
1012.726 5.012 5.652 5.872 5.852 5.852 5.892 5.732 5.152 4.382 3.832
1032.016 3.612 3.582 3.702 3.932 4.152 4.502 4.852 5.212 5.622 5.992
1051.306 6.462 7.032 7.682 8.332 9.152 10.172 11.462 13.102 15.052 17.482
1070.596 20.252 23.252 26.292 29.092 31.172 32.092 31.952 30.942 29.342 27.092
1089.886 23.882 20.052 16.212 13.002 10.532 8.642 7.222 6.162 5.482 4.952
1109.176 4.652 4.442 4.152 4.012 3.962 3.922 3.972 4.042 4.002 4.002
1128.467 4.072 4.032 4.052 4.102 4.162 4.352 4.552 4.702 5.112 5.602
1147.757 5.982 6.592 7.382 8.462 9.862 11.552 13.762 16.582 19.872 23.302
1167.047 26.442 28.742 29.782 29.892 29.322 28.172 26.362 23.492 20.322 17.812
1186.337 16.092 14.822 13.622 12.632 12.152 11.842 10.872 9.422 8.032 6.772
1205.627 5.962 5.412 4.872 4.522 4.262 4.012 3.802 3.742 3.722 3.662
1224.917 3.602 3.612 3.652 3.682 3.722 3.692 3.792 3.932 3.982 4.062
1244.207 4.182 4.292 4.442 4.642 4.852 5.122 5.392 5.662 5.912 6.052
1263.497 6.172 6.272 6.242 6.202 6.162 6.092 5.972 5.872 5.772 5.722
1282.787 5.692 5.702 5.672 5.622 5.672 5.692 5.792 5.922 5.982 6.052
1302.077 6.102 6.232 6.442 6.602 6.782 6.992 7.242 7.472 7.672 7.852
1321.367 8.032 8.192 8.302 8.442 8.522 8.492 8.492 8.482 8.502 8.522
1340.657 8.512 8.522 8.562 8.752 9.072 9.562 10.192 10.852 11.542 12.042
1359.947 12.292 12.272 11.932 11.292 10.302 9.192 8.002 6.772 5.672 4.722
1379.237 4.042 3.602 3.302 3.062 2.922 2.872 2.842 2.862 3.002 3.092
1398.527 3.202 3.472 3.692 3.932 4.222 4.462 4.632 4.802 4.902 4.792
1417.817 4.622 4.532 4.332 3.912 3.572 3.332 3.092 2.902 2.702 2.552
1437.107 2.502 2.482 2.372 2.292 2.282 2.282 2.332 2.392 2.422 2.432
1456.397 2.422 2.442 2.532 2.542 2.552 2.552 2.512 2.452 2.342 2.202
1475.687 2.142 2.082 1.962 1.872 1.822 1.822 1.7853 1.718 1.7142 1.7556
1494.977 1.756 1.7452 1.852 1.932 1.982 1.992 2.002 2.052 2.052 1.982
1514.267 1.922 1.862 1.754 1.635 1.5875 1.5451 1.4398 1.4712 1.5247 1.4368
1533.557 1.3911 1.3661 1.341 1.3241 1.3239 1.3841 1.3894 1.3942 1.4454 1.4842
1552.847 1.4591 1.487 1.5892 1.618 1.7129 1.862 1.972 2.042 2.092 2.202
1572.137 2.322 2.382 2.442 2.402 2.312 2.302 2.332 2.372 2.462 2.652
1591.427 2.832 3.082 3.452 3.892 4.412 5.012 5.652 6.312 6.992 7.612
1610.717 8.012 8.192 8.182 7.852 7.302 6.582 5.702 4.752 3.862 3.122
1630.007 2.592 2.252 2.042 1.822 1.6626 1.5742 1.5215 1.5059 1.4559 1.4431
1649.297 1.463 1.4092 1.3542 1.4227 1.5224 1.5166 1.4768 1.5156 1.5975 1.6537
1668.587 1.725 1.7666 1.842 1.902 1.892 1.952 2.032 2.082 2.122 2.252
1687.877 2.382 2.472 2.562 2.592 2.682 2.822 2.852 2.882 2.942 3.022
1707.167 3.202 3.312 3.392 3.502 3.612 3.672 3.782 4.012 4.212 4.532
1726.457 4.932 5.432 6.212 7.262 8.692 10.462 12.572 15.352 18.892 23.492
1745.747 29.252 36.292 44.262 52.302 58.782 62.762 64.572 64.972 64.432 62.082
1765.037 56.332 47.652 38.212 30.122 23.572 18.602 14.842 12.032 9.882 8.172
1784.327 6.892 5.992 5.332 4.752 4.322 4.022 3.762 3.582 3.442 3.362
1803.617 3.312 3.282 3.212 3.102 3.032 2.922 2.852 2.812 2.702 2.562
1822.907 2.462 2.312 2.162 2.032 1.902 1.8018 1.6549 1.5311 1.4057 1.3533
1842.197 1.3457 1.2199 1.1044 1.0757 1.1062 1.1173 1.1253 1.1156 1.1003 1.1469
1861.487 1.1788 1.151 1.1532 1.1713 1.1669 1.1923 1.2047 1.2182 1.2509 1.2623
1880.777 1.2339 1.2465 1.2682 1.276 1.2863 1.2707 1.243 1.2351 1.2878 1.2619
1900.067 1.2092 1.2917 1.3451 1.3536 1.4138 1.4218 1.4074 1.4321 1.4624 1.4756
1919.357 1.4959 1.5467 1.5953 1.5977 1.5576 1.5285 1.5181 1.5125 1.4593 1.4037
1938.647 1.3772 1.3272 1.2647 1.2002 1.1779 1.1663 1.1496 1.1247 1.0891 1.0846
1957.937 1.0674 1.0662 1.0846 1.0862 1.0687 1.0706 1.0971 1.1032 1.0649 1.0212
1977.227 1.0772 1.0789 1.0281 1.0193 0.9807 0.9987 1.0314 1.0237 0.9779 0.9226
1996.517 0.9447 0.9459 0.9348 0.9597 0.9624 0.9415 0.9022 0.89627 0.89282 0.87802
2015.807 0.88016 0.91052 0.89605 0.88583 0.9286 0.93 0.9383 0.90167 0.88426 0.90612
2035.097 0.9195 0.9455 0.9318 0.87717 0.83971 0.85059 0.8844 0.926 0.9171 0.87118
2054.387 0.89009 0.9262 0.88287 0.84096 0.88429 0.9043 0.86181 0.85725 0.87158 0.90146
2073.677 0.9146 0.9192 0.9038 0.82856 0.84053 0.88011 0.89688 0.90985 0.89509 0.88821
2092.967 0.88275 0.88694 0.90707 0.9204 0.90327 0.88446 0.9161 0.9329 0.89007 0.89444
2112.257 0.89251 0.88999 0.90814 0.90211 0.8932 0.9172 0.9331 0.914 0.89689 0.89091
2131.547 0.88835 0.9153 0.9199 0.90186 0.9302 0.9381 0.9231 0.932 0.91106 0.89102
2150.837 0.91095 0.9077 0.9404 0.9938 0.9895 0.9581 0.9894 0.9968 0.9563 0.9455
2170.127 0.91032 0.86706 0.87423 0.91119 0.9225 0.90804 0.86702 0.83751 0.84168 0.8057
2189.417 0.815254 0.812551 0.7914 0.877 0.87336 0.820738 0.84414 0.82934 0.7855 0.80965
2208.707 0.80451 0.768 0.7884 0.7924 0.7869 0.8015 0.817654 0.7896 0.7977 0.80375
2227.997 0.82639 0.80428 0.7937 0.85219 0.84581 0.84955 0.87315 0.85469 0.80385 0.7868
2247.287 0.80343 0.82534 0.82825 0.88682 0.9446 0.9035 0.87436 0.84489 0.80816 0.84004
2266.577 0.87063 0.85255 0.84775 0.83901 0.80416 0.8017 0.83866 0.85665 0.87441 0.89485
2285.868 0.85568 0.83747 0.8502 0.85928 0.84618 0.83668 0.87234 0.85484 0.82384 0.7789
2305.158 0.7993 0.87815 0.90249 0.87953 0.85323 0.87127 0.85712 0.87298 0.90323 0.9365
2324.448 0.9445 0.8943 0.9197 0.9472 0.9123 0.9183 0.9591 0.9257 0.90296 0.90527
2343.738 0.84845 0.86338 0.935 0.9599 0.89383 0.83238 0.84975 0.88212 0.89955 0.83967
2363.028 0.7871 0.816075 0.84976 0.818455 0.7771 0.79 0.82253 0.88503 0.9275 0.89069
2382.318 0.80856 0.8518 0.9371 0.88007 0.86532 0.87568 0.85649 0.85802 0.8649 0.87313
2401.608 0.88273 0.87143 0.89572 0.90808 0.88664 0.88731 0.873 0.90088 0.89013 0.9153
2420.898 0.93 0.86885 0.85635 0.86044 0.88032 0.90604 0.8884 0.812242 0.7858 0.82904
2440.188 0.83603 0.83242 0.8091 0.85554 0.88717 0.8397 0.7801 0.7408 0.7649 0.755
2459.478 0.7931 0.7907 0.7524 0.7597 0.7554 0.7567 0.7767 0.7278 0.691 0.7554
2478.768 0.7696 0.752 0.7491 0.7489 0.7381 0.736 0.7156 0.699 0.7423 0.698
2498.058 0.657 0.705 0.7459 0.80268 0.7997 0.7613 0.7801 0.8102 0.81078 0.80428
2517.348 0.786 0.7587 0.7391 0.7311 0.7671 0.81077 0.7933 0.7512 0.7468 0.7595
2536.638 0.7703 0.80435 0.7782 0.757 0.7746 0.7532 0.768 0.80516 0.8627 0.85203
2555.928 0.7945 0.7745 0.81057 0.82238 0.7813 0.7717 0.7255 0.686 0.699 0.7256
2575.218 0.7423 0.7345 0.7412 0.7611 0.711 0.7 0.7287 0.7 0.673 0.656
2594.508 0.697 0.7599 0.80533 0.815185 0.7191 0.697 0.7876 0.7589 0.697 0.645
2613.798 0.612 0.66 0.666 0.658 0.631 0.658 0.7309 0.711 0.701 0.708
2633.088 0.7321 0.7391 0.7166 0.663 0.617 0.634 0.688 0.696 0.647 0.689
2652.378 0.689 0.675 0.73 0.705 0.694 0.7348 0.7172 0.667 0.689 0.677
2671.668 0.647 0.693 0.662 0.655 0.635 0.616 0.693 0.625 0.61 0.673
2690.958 0.669 0.698 0.7402 0.7458 0.679 0.643 0.667 0.664 0.605 0.566
2710.248 0.609 0.655 0.627 0.634 0.703 0.717 0.669 0.664 0.646 0.581
2729.538 0.599 0.646 0.663 0.66 0.687 0.7165 0.7235 0.7496 0.68 0.657
2748.828 0.68 0.649 0.644 0.681 0.674 0.7293 0.811885 0.7631 0.704 0.71
2768.118 0.7351 0.7373 0.758 0.711 0.702 0.7164 0.7565 0.86133 0.85859 0.811672
2787.408 0.7784 0.7752 0.84997 0.85409 0.8644 0.88167 0.814544 0.7813 0.7818 0.84472
2806.698 0.91118 0.88689 0.88339 0.9369 0.9679 0.919 0.7988 0.7571 0.85052 0.9169
2825.988 0.9365 1.0396 1.0854 1.128 1.2086 1.2282 1.2184 1.2098 1.2676 1.3233
2845.278 1.3099 1.3348 1.3952 1.3894 1.4328 1.577 1.7053 1.822 1.912 2.032
2864.568 2.232 2.442 2.642 2.792 2.892 3.072 3.232 3.232 3.382 3.612
2883.858 3.722 3.782 3.742 3.762 3.812 3.812 3.742 3.582 3.582 3.542
2903.148 3.422 3.312 3.332 3.322 3.282 3.292 3.302 3.312 3.302 3.302
2922.438 3.392 3.592 3.842 4.062 4.282 4.592 4.892 5.152 5.492 5.882
2941.728 6.102 6.262 6.312 6.242 6.172 6.032 5.912 5.622 5.472 5.522
2961.018 5.532 5.882 6.462 7.292 8.442 9.622 10.402 10.712 10.752 10.542
2980.308 10.262 9.572 8.262 6.912 5.672 4.712 4.112 3.662 3.442 3.182
2999.598 2.952 2.842 2.622 2.592 2.632 2.522 2.452 2.452 2.362 2.302
3018.888 2.332 2.292 2.252 2.312 2.412 2.502 2.692 2.772 2.782 2.982
3038.178 3.102 3.112 3.162 3.052 2.852 2.722 2.642 2.472 2.262 2.112
3057.468 2.032 1.992 1.962 1.882 1.7457 1.6559 1.7284 1.7969 1.8067 1.7983
3076.758 1.6631 1.6243 1.5564 1.4275 1.3971 1.4642 1.5587 1.5007 1.4428 1.41
3096.048 1.4294 1.4959 1.4886 1.3467 1.1623 0.9979 1.0211 1.2123 1.2487 1.1314
3115.338 1.0141 1.0047 0.9355 0.7943 0.759 0.687 0.7402 0.83885 0.7791 0.711
3134.628 0.7263 0.7254 0.697 0.7441 0.669 0.656 0.637 0.634 0.7257 0.655
3153.918 0.497 0.46 0.496 0.485 0.499 0.58 0.501 0.51 0.607 0.538
3173.208 0.53 0.476 0.491 0.476 0.444 0.468 0.465 0.456 0.48 0.457
3192.498 0.352 0.306 0.358 0.472 0.457 0.426 0.469 0.491 0.474 0.349
3211.788 0.327 0.461 0.491 0.443 0.44 0.396 0.407 0.426 0.333 0.316
3231.078 0.278 0.323 0.481 0.459 0.349 0.347 0.372 0.382 0.302 0.2
3250.368 0.348 0.372 0.3 0.406 0.475 0.575 0.565 0.47 0.416 0.378
3269.658 0.367 0.396 0.364 0.271 0.22 0.206 0.257 0.309 0.342 0.322
3288.948 0.344 0.434 0.465 0.399 0.363 0.411 0.287 0.198 0.313 0.399
3308.238 0.458 0.311 0.184 0.254 0.302 0.413 0.397 0.289 0.284 0.307
3327.528 0.334 0.402 0.376 0.276 0.32 0.346 0.299 0.294 0.21 0.191
3346.818 0.296 0.289 0.351 0.465 0.394 0.401 0.427 0.442 0.448 0.302
3366.108 0.259 0.258 0.266 0.322 0.33 0.339 0.269 0.223 0.309 0.364
3385.398 0.31 0.313 0.399 0.405 0.411 0.424 0.318 0.34 0.358 0.329
3404.688 0.454 0.44 0.321 0.318 0.376 0.417 0.391 0.18 0.183 0.326
3423.978 0.257 0.337 0.403 0.31 0.335 0.466 0.385 0.26 0.355 0.446
3443.269 0.416 0.445 0.498 0.345 0.237 0.259 0.375 0.466 0.407 0.479
3462.559 0.561 0.461 0.389 0.427 0.371 0.397 0.437 0.475 0.545 0.444
3481.849 0.401 0.391 0.466 0.645 0.777 0.7839 0.7694 0.7578 0.76 0.685
3501.139 0.701 0.7879 0.7261 0.692 0.621 0.532 0.536 0.5 0.473 0.417
3520.429 0.341 0.4 0.441 0.53 0.585 0.444 0.428 0.426 0.314 0.322
3539.719 0.422 0.51 0.498 0.444 0.585 0.638 0.601 0.7383 0.7595 0.84431
3559.009 1.1173 1.3857 1.6034 2.022 2.902 4.052 5.582 7.912 10.982 14.392
3578.299 17.672 20.082 21.002 20.772 19.972 18.712 16.662 13.382 9.442 5.992
3597.589 3.592 2.152 1.4053 1.0872 0.90457 0.80665 0.7911 0.7482 0.663 0.7386
3616.879 0.84677 0.659 0.51 0.454 0.393 0.392 0.391 0.437 0.5 0.43
3636.169 0.307 0.38 0.413 0.353 0.365 0.396 0.387 0.35 0.302 0.358
3655.459 0.504 0.354 0.327 0.431 0.375 0.296 0.294 0.226 0.137 0.343
3674.749 0.42 0.346 0.259 0.22 0.313 0.307 0.322 0.335 0.247 0.285
3694.039 0.236 0.154 0.214 0.295 0.213 0.188 0.344 0.354 0.24 0.193
3713.329 0.252 0.236 0.249 0.219 0.304 0.3 0.21 0.345 0.377 0.327
3732.619 0.223 0.126 0.115 0.25 0.329 0.281 0.311 0.299 0.223 0.231
3751.909 0.211 0.214 0.141 0.135 0.283 0.38 0.46 0.461 0.42 0.446
3771.199 0.432 0.431 0.453 0.372 0.37 0.436 0.439 0.376 0.352 0.317
3790.489 0.283 0.325 0.303 0.285 0.406 0.325 0.125 0.137 0.085 0.16
3809.779 0.303 0.146 0.15 0.23 0.307 0.287 0.202 0.148 0.171 0.255
3829.069 0.233 0.326 0.289 0.082 0.037 0.076 0.091 0.035 0.109 0.282
3848.359 0.246 0.131 0.012 0.08 0.196 0.2 0.072 0.067 0.223 0.201
3867.649 0.056 0.021 0.19 0.308 0.207 0.2 0.246 0.074 0.04 0.113
3886.939 0.14 0.175 0.201 0.253 0.265 0.265 0.291 0.258 0.149 0.164
3906.229 0.237 0.233 0.27 0.325 0.258 0.166 0.122 0.178 0.175 0.142
3925.519 0.204 0.217 0.178 0.138 0.213 0.206 0.231 0.343 0.382 0.311
3944.809 0.281 0.278 0.14 0.171 0.355 0.476 0.442 0.337 0.286 0.279
3964.099 0.321 0.256 0.159 0.194 0.206 0.233 0.197 0.162 0.21 0.114
3983.389 0.123 0.194 0.149 0.18 0.221 0.249 0.285 0.092 0 0.213
##END=
