##TITLE=p-Nitrobenzylalcohol
##JCAMP-DX=4.24
##DATA TYPE=INFRARED SPECTRUM
##ORIGIN=NIST Mass Spectrometry Data Center
##OWNER=NIST Standard Reference Data Program
Collection (C) 2018 copyright by the U.S. Secretary of Commerce
on behalf of the United States of America. All rights reserved.
##CAS REGISTRY NO=619-73-8
##MOLFORM=C 7 H 7 N O 3
##$NIST SOURCE=MSDC-IR
##SPECTROMETER/DATA SYSTEM=HP-GC/MS/IRD
##STATE=gas
##XUNITS=1/CM
##YUNITS=ABSORBANCE
##XFACTOR=1.0
##YFACTOR=0.000007400
##DELTAX=4.0
##FIRSTX=550.0
##LASTX=3846.0
##FIRSTY=0.000592
##MAXX=3846
##MINX=550
##MAXY=0.074
##MINY=0
##NPOINTS=825
##XYDATA=(X++(Y..Y))
550.0 80 72 5 5 0 2 3 10 16 9
590.0 1 8 16 13 18 25 30 35 42 47
630.0 46 51 60 57 50 40 31 41 59 81
670.0 124 189 270 344 402 442 464 465 453 451
710.0 465 496 557 659 798 939 1068 1170 1159 1010
750.0 831 655 485 354 282 279 352 524 787 1021
790.0 1133 1111 974 845 833 881 931 972 1009 1093
830.0 1242 1430 1668 1974 2384 2814 2955 2750 2291 1515
870.0 804 469 335 265 225 197 176 167 167 168
910.0 174 184 203 213 223 238 254 272 302 334
950.0 363 395 434 469 506 540 575 616 668 734
990.0 823 949 1115 1366 1757 2127 2274 2315 2255 2169
1030.0 2286 2512 2675 2698 2566 2315 2023 1739 1476 1234
1070.0 1015 838 698 591 514 468 477 537 617 679
1110.0 677 611 503 392 323 301 305 320 344 379
1150.0 421 466 522 594 707 867 1011 1101 1147 1137
1190.0 1120 1124 1101 1028 915 788 685 623 591 569
1230.0 548 534 525 519 517 518 525 532 542 554
1270.0 567 585 609 639 677 722 779 849 934 1022
1310.0 1117 1251 1438 1727 2201 2976 4154 5790 7683 9273
1350.0 10000 9587 8103 6134 4417 3215 2422 1921 1604 1397
1390.0 1248 1137 1043 961 890 822 758 700 647 597
1430.0 555 521 490 468 453 447 461 507 568 623
1470.0 668 708 762 865 1026 1207 1338 1407 1472 1597
1510.0 1883 2419 3240 4361 5709 7119 8318 8983 9031 8533
1550.0 7422 5887 4339 3099 2275 1746 1458 1327 1314 1379
1590.0 1509 1688 1881 2022 2018 1826 1522 1187 874 619
1630.0 439 323 258 231 221 218 218 223 222 214
1670.0 201 184 166 145 120 101 81 64 53 46
1710.0 43 43 46 50 52 51 48 41 38 36
1750.0 34 34 33 35 39 45 57 77 105 132
1790.0 152 156 142 114 83 55 37 27 19 15
1830.0 10 8 8 6 6 3 3 5 7 10
1870.0 12 13 14 18 25 33 43 57 74 94
1910.0 114 127 133 133 124 110 91 71 54 41
1950.0 31 27 23 21 21 20 18 17 15 15
1990.0 14 14 13 11 13 14 16 17 18 20
2030.0 21 20 21 22 21 20 20 21 23 22
2070.0 21 22 25 26 26 24 20 18 19 19
2110.0 16 13 12 16 13 11 9 9 8 6
2150.0 3 1 1 1 1 2 4 3 3 5
2190.0 6 8 13 17 21 23 23 22 22 19
2230.0 18 17 13 11 11 9 10 11 18 22
2270.0 23 26 30 33 35 34 33 31 27 24
2310.0 23 20 17 16 18 17 16 16 15 13
2350.0 13 12 10 13 18 22 28 31 33 35
2390.0 37 37 35 32 29 27 23 22 21 23
2430.0 26 28 30 35 46 54 57 56 54 50
2470.0 42 37 29 23 18 13 13 12 11 12
2510.0 15 16 14 13 13 15 12 7 6 8
2550.0 7 5 2 1 3 3 6 8 8 10
2590.0 13 16 21 24 26 31 32 31 26 22
2630.0 22 21 20 19 19 19 21 23 28 31
2670.0 32 38 43 44 50 60 68 69 74 79
2710.0 79 78 78 76 67 58 53 50 50 51
2750.0 53 55 59 67 73 77 87 95 100 108
2790.0 116 120 126 133 139 146 152 162 179 199
2830.0 223 253 288 328 372 425 485 543 613 691
2870.0 776 869 959 1028 1053 1044 1009 961 919 883
2910.0 857 834 823 824 822 820 809 788 764 739
2950.0 700 652 598 537 472 415 359 313 270 233
2990.0 203 171 150 140 132 128 130 139 149 163
3030.0 184 210 238 269 303 328 343 353 350 340
3070.0 325 305 291 275 246 194 136 87 55 44
3110.0 36 26 24 21 13 7 6 7 7 6
3150.0 9 13 7 4 8 9 10 9 7 8
3190.0 13 15 17 22 26 24 25 22 16 14
3230.0 10 8 2 2 9 8 4 6 8 6
3270.0 4 5 6 7 6 8 8 8 6 10
3310.0 13 9 12 11 7 8 10 9 11 15
3350.0 13 10 10 14 12 13 17 20 22 21
3390.0 23 25 22 22 22 24 30 32 38 35
3430.0 37 41 37 34 36 41 42 40 39 34
3470.0 29 30 36 36 34 34 30 32 32 28
3510.0 35 39 38 35 39 43 39 38 40 37
3550.0 40 43 37 38 39 40 41 49 60 64
3590.0 66 67 67 78 92 108 132 159 191 224
3630.0 260 302 353 415 492 602 724 829 898 907
3670.0 849 758 661 558 458 366 289 232 189 155
3710.0 130 109 99 90 83 76 68 68 64 59
3750.0 53 51 52 44 41 42 40 31 25 31
3790.0 33 33 31 31 38 38 34 35 38 43
3830.0 42 39 44 45 47
##END=
