##TITLE=2-Amino-3,4,5-trimethoxybenzoic acid
##JCAMP-DX=4.24
##DATA TYPE=INFRARED SPECTRUM
##ORIGIN=EPA-IR VAPOR PHASE LIBRARY
##OWNER=SRD/NIST
Collection (C) 2018 copyright by the U.S. Secretary of Commerce
on behalf of the United States of America. All rights reserved.
##CAS REGISTRY NO=61948-85-4
##MOLFORM=C 10 H 13 N O 5
##$NIST SOURCE=MSDC-IR
##STATE=gas
##XUNITS=1/CM
##YUNITS=ABSORBANCE
##XFACTOR=1.
##YFACTOR=0.001
##DELTAX=1.92898
##FIRSTX=549.8
##LASTX=4000.7
##FIRSTY=16.99
##MAXX=4000.7
##MINX=549.759
##MAXY=0.16472
##MINY=0.000005065
##NPOINTS=1790
##XYDATA=(X++(Y..Y))
549.759 16.99 15.95 14.99 13.68 12.49 10.97 9.65 9.29 9.05 8.17
569.049 7.82 7.99 7.96 7.97 7.46 7.02 7.28 7.46 7.48 8.22
588.339 9.04 9.06 8.91 9.28 9.58 9.34 8.92 8.67 8.18 7.64
607.628 7.44 7.15 6.63 6.3 6.19 6.07 6.35 6.87 7.27 7.73
626.918 8.44 9.02 10.07 12.01 14.06 16.17 18.59 20.89 22.86 24.44
646.208 25.47 25.63 24.63 22.56 20.74 19.18 17.21 15.51 14.1 12.82
665.498 11.89 11.51 11.11 10.6 10.22 9.87 10.07 10.64 10.63 10.92
684.787 11.2 11.2 11.69 12.18 12.75 13.33 13.54 13.89 14.53 15.04
704.077 15.09 15.1 15.55 15.63 15 14.34 13.58 12.51 11.34 10.14
723.367 9.28 8.56 7.85 7.57 7.28 7.03 6.96 6.74 6.62 6.77
742.657 6.81 6.75 7 7.39 7.58 7.44 7.35 7.82 7.98 7.81
761.947 8.32 8.8 8.95 9.38 9.93 10.36 11.11 11.81 11.87 12.04
781.236 12.67 13.79 14.93 15.87 16.82 17.68 18.34 17.97 16.57 15.2
800.526 13.54 11.88 10.87 9.81 8.84 8.05 7.69 7.5 7.21 7.09
819.816 6.73 6.42 6.15 6.15 6.34 6.31 6.38 6.57 6.7 6.91
839.106 7.31 7.34 7.12 7.32 7.43 7.29 7.34 7.42 7.38 7.37
858.395 7.43 7.28 6.85 6.58 6.56 6.43 6.71 6.71 6.7 6.71
877.685 6.52 6.7 6.82 6.54 6.12 6.1 6.12 6.07 6.08 6.35
896.975 6.59 6.71 6.98 7.04 7.43 8.15 8.8 9.37 9.76 10.34
916.265 11.25 12.1 12.31 12.15 11.95 11.49 10.87 10.06 9.17 8.27
935.555 7.75 7.37 6.94 7.05 7.12 6.91 6.93 7.11 7.21 7.08
954.844 7.33 7.63 8.18 9.27 9.86 10.86 12.19 13.79 15.93 18.09
974.134 20.24 22.11 23.54 24.64 25.26 24.88 23.7 21.99 19.69 17.51
993.424 15.91 14.7 13.79 13.42 13.73 14.12 14.78 16.44 18.24 20.54
1012.714 23.94 27.75 32.22 36.47 40.37 43.98 45.54 45.63 44.56 41.85
1032.003 39.33 36.71 34.23 33.26 33.12 34.25 36.85 40.44 44.73 49.9
1051.293 55.78 60.48 63.77 66.24 66.96 66.25 64.1 60.48 56.97 54.1
1070.583 50.73 47.74 46.62 45.57 45.28 44.93 44.76 45.87 46.89 47.47
1089.873 46.86 45.98 45.46 44.08 43.22 41.66 40.51 41.04 38.97 36.85
1109.163 36.67 37.37 38.68 39.36 40.45 43.2 47.24 52.95 60.15 68.46
1128.452 77.72 88.56 101.54 116.96 132.15 145.17 155.94 162.87 164.72 160.28
1147.742 150.63 138.3 124.36 110.15 95.95 83.34 73.77 65.81 58.92 53.51
1167.032 49.08 45.65 43.32 40.67 38.69 37.62 36.81 36 35.26 35.41
1186.322 35.56 36.27 37.48 37.94 38.14 38.95 39.12 38.71 36.96 35.19
1205.611 34.26 31.63 30.51 28.6 26.1 26.08 26.19 25.82 25.01 24.44
1224.901 24.75 24.56 23.64 23.82 24.43 23.47 21.83 21.51 21.4 20.49
1244.191 19.83 19.66 19.4 20.17 21.3 22.23 24.12 25.85 27.67 29.75
1263.481 31.74 34.29 36.64 38.56 40.94 43.42 45.52 47.5 48.51 48.45
1282.771 48 45.99 42.9 39.76 36.05 32.32 29.36 26.84 24.54 22.81
1302.060 21.63 20.81 20.26 19.93 19.79 19.69 19.79 19.95 19.99 20.02
1321.350 20.07 20.05 20 19.96 19.82 19.69 19.8 20.12 20.44 20.82
1340.640 21.31 21.89 22.5 23.24 24.19 25.19 26.28 27.55 29.2 31.43
1359.930 33.95 36.78 39.95 43.41 46.75 49.53 51.73 52.91 52.93 51.69
1379.219 49.35 46.09 42.15 37.95 33.84 30.1 26.85 24.12 21.7 19.68
1398.509 18.01 16.92 16.32 15.94 16.01 16.64 17.9 19.84 22.58 26.09
1417.799 30.34 35.02 39.72 43.99 47.53 50.31 51.76 51.77 50.44 48.02
1437.089 44.99 41.8 38.6 35.97 34.55 34.39 35.55 37.96 41.71 46.74
1456.378 52.43 58.2 63.55 67.89 70.91 72.34 71.86 70.19 67.96 65.67
1475.668 64.23 63.67 63.51 63.46 62.89 61.15 57.91 53.3 47.63 41.28
1494.958 34.95 29.11 24.28 20.65 18.02 16 14.41 13.35 12.49 11.85
1514.248 11.7 11.67 11.62 11.75 12.16 12.76 13.43 14.48 15.64 17.11
1533.538 19.21 21.72 24.46 27.62 31.05 34.29 37.08 39.2 40.36 40.36
1552.827 39.36 37.32 34.44 31.07 27.87 25.24 23.09 21.35 20.21 19.62
1572.117 19.53 20.17 21.37 23.08 25.51 28.58 31.72 34.78 37.42 39.4
1591.407 40.47 40.43 39.39 37.25 34.65 31.98 29.45 27.67 26.32 25.39
1610.697 25.03 24.77 24.51 23.85 22.67 21.19 19.49 17.41 15.22 13.28
1629.986 11.46 10.04 8.97 8.02 7.46 7.01 6.71 6.61 6.39 6.26
1649.276 6.14 6.12 6.1 6.02 6.22 6.44 6.49 6.47 6.49 6.53
1668.566 6.67 6.78 6.96 7.3 7.5 7.77 8.16 8.53 8.83 9.05
1687.856 9.55 10.19 10.78 11.63 12.89 14.59 16.62 19.17 22.52 27.01
1707.146 33.19 41.81 53.6 68.94 87.25 106.35 123.18 134.84 140.07 138.33
1726.435 129.39 114.24 95.39 77.34 63.47 54.21 48.36 44.57 41.53 38.72
1745.725 35.6 31.79 27.44 22.81 18.81 15.64 13.05 11.23 9.99 9.13
1765.015 8.5 8.05 7.71 7.34 7 6.82 6.75 6.75 6.76 6.73
1784.305 6.71 6.72 6.72 6.56 6.24 5.87 5.45 4.98 4.51 4.15
1803.594 3.85 3.5 3.16 2.9 2.72 2.58 2.47 2.41 2.25 2.16
1822.884 2.27 2.21 2.12 2.15 2.16 2.14 2.09 2.02 2.02 2.01
1842.174 1.99 1.98 1.89 1.91 1.89 1.77 1.83 1.85 1.76 1.71
1861.464 1.78 1.77 1.71 1.72 1.68 1.69 1.7 1.68 1.73 1.71
1880.754 1.66 1.71 1.78 1.8 1.76 1.72 1.68 1.74 1.75 1.67
1900.043 1.63 1.6 1.65 1.69 1.76 1.96 2 1.85 1.74 1.7
1919.333 1.8 1.95 2.01 2.08 2 2.01 2.05 2.03 2.09 2.14
1938.623 2.32 2.36 2.25 2.21 2.11 2.03 2.06 2.15 2.14 2.06
1957.913 1.95 1.84 1.83 1.81 1.82 1.87 1.8 1.76 1.79 1.76
1977.202 1.7 1.72 1.67 1.62 1.7 1.8 1.83 1.88 1.9 1.85
1996.492 1.86 1.87 1.86 1.8 1.84 1.94 1.93 1.9 1.87 1.93
2015.782 1.87 1.73 1.85 1.97 1.93 1.89 1.92 1.88 1.79 1.93
2035.072 1.98 1.86 1.87 1.86 1.79 1.83 1.87 1.77 1.71 1.71
2054.362 1.78 1.84 1.75 1.68 1.61 1.57 1.6 1.55 1.5 1.54
2073.651 1.56 1.49 1.51 1.56 1.57 1.52 1.37 1.29 1.38 1.42
2092.941 1.32 1.26 1.32 1.38 1.45 1.56 1.55 1.49 1.54 1.67
2112.231 1.69 1.68 1.65 1.57 1.56 1.55 1.55 1.67 1.59 1.56
2131.521 1.67 1.59 1.53 1.5 1.6 1.69 1.54 1.51 1.6 1.57
2150.810 1.57 1.56 1.44 1.5 1.56 1.48 1.48 1.49 1.44 1.48
2170.100 1.52 1.63 1.76 1.52 1.39 1.45 1.49 1.54 1.57 1.52
2189.390 1.42 1.54 1.59 1.39 1.35 1.57 1.62 1.51 1.34 1.18
2208.680 1.25 1.32 1.26 1.17 1.11 0.9837 0.9037 0.9688 0.9316 0.8719
2227.970 0.7871 0.8077 0.9076 0.9953 1.07 0.9496 0.812 0.8204 0.6521 0.6983
2247.259 0.8237 0.8845 1.01 0.8783 0.9123 0.9367 0.8023 0.7932 0.8821 0.9246
2266.549 0.8881 0.8985 0.8608 0.8364 0.7437 0.733 0.9754 1.07 1.08 1.1
2285.839 1.13 1.18 1.09 1.01 1.13 1.21 1.23 1.24 1.22 1.27
2305.129 1.37 1.39 1.36 1.39 1.43 1.44 1.45 1.44 1.45 1.49
2324.418 1.58 1.63 1.53 1.41 1.36 1.4 1.53 1.5 1.34 1.31
2343.708 1.27 1.19 1.18 1.21 1.18 1.27 1.35 1.37 1.45 1.49
2362.998 1.54 1.53 1.44 1.41 1.51 1.5 1.4 1.31 1.23 1.27
2382.288 1.28 1.2 1.17 1.18 1.07 1.11 1.18 1.07 1.06 1.17
2401.578 1.18 1.12 1.02 1.02 1.02 0.9558 1.01 1.08 1.05 1.04
2420.867 1.1 1.14 1.07 0.9142 0.9129 0.9589 0.825 0.7739 1.09 1.28
2440.157 1.24 1.17 1.06 1.15 1.21 1.08 1.06 1.15 1.15 1.2
2459.447 1.2 1.1 1.11 1.25 1.15 1.01 1.05 0.9669 0.882 0.9601
2478.737 1.04 1.06 0.9541 0.9822 1.07 1.05 1.01 1.02 1.04 1.05
2498.026 1.06 1.1 1.09 1.05 1.14 1.13 1.09 1.04 1.11 1.23
2517.316 1.09 1.08 1.13 1.08 1.23 1.27 1.09 1.05 1.02 1
2536.606 1.01 1.1 1.1 0.9975 0.9586 0.9197 1 1.09 1.12 1.06
2555.896 0.9793 0.9436 0.9978 1.05 1.01 0.9203 0.9573 1.12 1.09 0.9956
2575.186 0.9074 0.9634 1.01 0.9485 0.9784 1.02 1.04 1.09 1.28 1.25
2594.475 1.25 1.32 1.29 1.37 1.4 1.26 1.22 1.22 1.16 1.2
2613.765 1.18 1.13 1.11 1.23 1.29 1.16 1.17 1.24 1.14 1.23
2633.055 1.33 1.28 1.32 1.24 1.28 1.23 1.29 1.48 1.35 1.43
2652.345 1.46 1.33 1.35 1.29 1.26 1.3 1.25 1.31 1.47 1.43
2671.634 1.24 1.13 1.2 1.35 1.4 1.28 1.18 1.23 1.41 1.3
2690.924 1.19 1.34 1.47 1.42 1.37 1.35 1.3 1.49 1.47 1.44
2710.214 1.47 1.33 1.32 1.31 1.33 1.44 1.4 1.3 1.3 1.38
2729.504 1.37 1.34 1.32 1.24 1.28 1.32 1.31 1.29 1.45 1.6
2748.794 1.48 1.42 1.53 1.53 1.44 1.44 1.52 1.48 1.49 1.64
2768.083 1.65 1.59 1.53 1.51 1.63 1.83 1.93 1.97 2.01 2.08
2787.373 2.1 2.14 2.11 2.09 2.4 2.74 2.85 2.75 2.96 3.34
2806.663 3.57 3.83 4.2 4.72 5.14 5.41 5.89 6.52 7.32 8.39
2825.953 9.36 10.54 12.1 13.65 15.1 16.24 17.16 17.82 17.8 17.36
2845.242 16.46 15.3 14.11 13.11 12.45 11.71 11.09 10.66 10.31 10.04
2864.532 9.92 9.88 9.96 9.92 9.67 9.82 10.04 10.11 10.48 10.93
2883.822 11.05 11.3 11.56 11.77 12.04 11.96 11.98 12.03 11.91 12.13
2903.112 12.25 12.3 12.71 12.93 13.11 13.66 14.07 14.47 14.88 15.21
2922.401 15.85 16.54 17.38 18.67 20.33 22.26 24.71 27.75 31.08 34.2
2941.691 36.86 38.9 39.94 39.85 38.5 36.24 33.59 30.53 27.57 25.13
2960.981 23.11 21.46 20.36 19.69 18.94 18.42 18.21 18 17.74 17.54
2980.271 17.52 17.35 17.19 17.41 17.72 17.99 18.58 19.48 20.43 21.22
2999.561 21.74 22.04 21.71 20.79 19.57 17.85 15.82 13.96 12.21 10.8
3018.850 9.82 8.89 8.16 7.68 7.33 7.02 6.8 6.48 6.2 6.05
3038.140 5.87 5.67 5.66 5.51 5.24 5.29 5.25 5.21 5.05 4.87
3057.430 4.63 4.5 4.56 4.43 4.43 4.5 4.38 4.3 4.17 4.14
3076.720 4.23 4.09 3.91 3.8 4.02 4.08 3.83 3.64 3.55 3.55
3096.009 3.44 3.41 3.34 3.02 2.97 2.87 2.73 2.85 2.84 2.51
3115.299 2.53 2.54 2.25 2.15 1.87 1.73 1.81 1.57 1.36 1.53
3134.589 1.54 1.38 1.16 1.24 1.37 1.31 1.27 1.44 1.58 1.48
3153.879 1.41 1.27 1.18 1.22 1.18 1.01 1.03 1.08 1.15 1.09
3173.169 0.8916 0.9369 0.8631 0.764 0.9422 0.9942 0.9779 0.8564 0.6728 0.8002
3192.458 0.8189 0.8616 0.714 0.5809 0.7578 0.7189 0.7551 0.665 0.4478 0.4952
3211.748 0.6224 0.6942 0.5928 0.3203 0.3008 0.5239 0.6028 0.4602 0.5561 0.5264
3231.038 0.2588 0.2671 0.3977 0.2722 0.3287 0.6991 0.636 0.58 0.514 0.4488
3250.328 0.643 0.7655 0.7186 0.5812 0.3944 0.417 0.6488 0.7507 0.7841 0.6063
3269.617 0.5867 0.5822 0.5169 0.8505 0.7912 0.51 0.635 0.494 0.5999 0.6812
3288.907 0.5061 0.6283 0.7317 0.8674 0.9225 0.984 0.7948 0.6509 0.8571 1.24
3308.197 1.52 1.41 1.3 1.21 0.9813 0.9556 1.01 0.8817 0.9633 0.913
3327.487 0.8722 0.9711 0.9466 0.8421 0.5836 0.5633 0.5847 0.7445 0.9285 0.7812
3346.777 0.7636 1.05 1.11 0.9585 1.05 1.3 1.54 1.61 1.74 2.09
3366.066 2.42 2.81 3.27 4.05 5.01 5.99 7.32 9.06 11.33 13.94
3385.356 16.3 17.96 19.01 19.56 19.23 17.79 15.75 13.4 11.15 9.06
3404.646 7.3 6.09 5.18 4.56 4.14 4.05 3.96 3.77 3.82 3.84
3423.936 3.79 3.72 3.69 3.45 3.16 3.01 2.7 2.38 2.07 2.03
3443.225 1.96 1.7 1.52 1.53 1.54 1.5 1.43 1.43 1.49 1.49
3462.515 1.64 1.74 1.8 1.92 2.13 2.36 2.52 2.5 2.66 3.32
3481.805 3.9 4.14 4.4 4.9 5.73 6.7 7.91 9.32 10.84 12.67
3501.095 14.27 16.06 18.29 20.03 21.39 22.59 23.03 22.38 21.05 19.1
3520.385 16.97 14.9 12.82 11.15 9.83 8.51 7.35 6.53 5.96 5.32
3539.674 4.71 4.01 3.46 3.16 2.57 2.21 2.32 2.44 2.34 2.38
3558.964 2.65 3 3.71 4.67 6.27 8.42 11 13.91 17.8 23.91
3578.254 31.76 40.16 46.61 49.3 49.07 46.19 40.17 31.67 21.84 13.09
3597.544 7.54 4.6 3.03 2.16 1.61 1.26 1.07 1.13 1.29 0.8527
3616.833 0.746 1.15 0.9346 0.8973 0.9702 0.8793 0.7782 0.6048 0.4944 0.5282
3636.123 0.6161 0.6808 0.4936 0.5187 0.7333 0.8438 0.6996 0.367 0.3941 0.5556
3655.413 0.5139 0.6075 0.6155 0.5326 0.5666 0.4408 0.3422 0.1936 0.3272 0.4608
3674.703 0.3219 0.04117 0.1415 0.5748 0.5242 0.3019 0.2269 0.1248 0.1973 0.3231
3693.993 0.3119 0.3582 0.4705 0.5383 0.4013 0.3852 0.4902 0.4877 0.5987 0.5731
3713.282 0.3637 0.275 0.3719 0.5289 0.5641 0.5897 0.7087 0.5812 0.4477 0.522
3732.572 0.3008 0.1543 0.2218 0.3663 0.6751 0.5932 0.5827 0.6481 0.5014 0.4272
3751.862 0.3504 0.4042 0.4479 0.4967 0.4992 0.3636 0.2373 0.2701 0.1286 0.1465
3771.152 0.425 0.664 0.8412 0.6059 0.4786 0.5458 0.3898 0.2962 0.1241 0.2695
3790.441 0.3504 0.2047 0.2831 0.3352 0.5123 0.5562 0.4087 0.4331 0.406 0.234
3809.731 0.2801 0.4889 0.6283 0.3867 0.3265 0.3953 0.3166 0.2794 0.3529 0.4524
3829.021 0.3694 0.4409 0.5598 0.6093 0.4223 0.2216 0.4703 0.5322 0.2621 0.1624
3848.311 0.2484 0.3993 0.4077 0.2733 0.1699 0.3603 0.4702 0.587 0.7248 0.5589
3867.601 0.5645 0.5171 0.5384 0.57 0.5002 0.4446 0.4864 0.5121 0.3944 0.286
3886.890 0.1664 0.3337 0.4731 0.1458 0.07348 0.2471 0.3216 0.3214 0.005065 0.06725
3906.180 0.4002 0.4789 0.3661 0.2652 0.2804 0.2751 0.4144 0.5653 0.5539 0.4738
3925.470 0.4507 0.6703 0.7416 0.5357 0.3501 0.3056 0.4063 0.5811 0.6151 0.3869
3944.760 0.179 0.1447 0.1775 0.2138 0.5561 0.7636 0.5916 0.3887 0.1606 0.2628
3964.049 0.5045 0.5519 0.4475 0.4114 0.4487 0.4862 0.388 0.5103 0.5343 0.3663
3983.339 0.6804 0.8978 0.8208 0.4219 0.275 0.5522 0.7504 0.6687 0.4586 0.2944
##END=
