##TITLE=5-Methyl-1-hexyn-3-ol
##JCAMP-DX=4.24
##DATA TYPE=INFRARED SPECTRUM
##ORIGIN=EPA-IR VAPOR PHASE LIBRARY
##OWNER=SRD/NIST
Collection (C) 2018 copyright by the U.S. Secretary of Commerce
on behalf of the United States of America. All rights reserved.
##CAS REGISTRY NO=61996-79-0
##MOLFORM=C 7 H 12 O
##$NIST SOURCE=MSDC-IR
##STATE=gas
##XUNITS=1/CM
##YUNITS=ABSORBANCE
##XFACTOR=1.
##YFACTOR=0.001
##DELTAX=1.92898
##FIRSTX=549.8
##LASTX=4000.7
##FIRSTY=7.237
##MAXX=4000.7
##MINX=549.759
##MAXY=0.084387
##MINY=0
##NPOINTS=1790
##XYDATA=(X++(Y..Y))
549.759 7.237 8.067 8.137 7.697 7.197 7.397 7.297 7.647 7.887 7.047
569.049 6.517 5.047 3.347 3.067 4.007 3.417 2.567 2.527 3.037 3.627
588.339 2.967 3.357 3.367 2.467 2.247 2.657 3.427 4.367 5.287 6.007
607.628 6.617 7.387 8.507 10.577 13.277 16.127 19.327 22.247 25.717 30.047
626.918 34.307 38.427 41.877 42.937 44.237 44.347 41.257 38.317 37.017 35.637
646.208 34.227 34.947 37.697 40.607 41.347 38.197 35.177 34.937 32.277 28.547
665.498 25.927 23.697 21.027 17.707 14.907 12.717 10.477 8.297 7.527 6.907
684.787 4.997 3.307 3.407 4.007 3.957 3.607 2.727 2.357 2.567 2.367
704.077 1.897 1.6532 1.306 1.5409 1.937 1.887 2.337 2.657 2.107 1.7423
723.367 2.477 2.357 1.5538 1.7632 1.5764 1.5648 1.987 2.177 2.317 1.6655
742.657 1.0026 1.0519 1.6081 1.7742 1.4989 1.6832 2.017 2.397 2.577 2.637
761.947 2.547 2.507 2.207 2.017 2.647 3.087 2.827 2.617 2.597 2.477
781.236 2.327 2.107 2.367 1.917 1.6316 2.257 2.237 2.117 2.467 3.077
800.526 3.187 2.597 2.567 3.257 2.917 2.737 3.457 3.507 3.117 3.527
819.816 2.407 1.2476 0.9555 2.077 4.497 4.477 4.437 4.527 4.727 4.847
839.106 4.767 4.767 4.807 4.707 4.517 3.917 3.417 3.827 4.047 4.117
858.395 3.217 2.777 3.237 3.537 3.037 2.547 2.647 2.607 2.647 2.767
877.685 3.187 3.057 2.727 2.837 3.397 3.627 3.207 3.167 3.467 3.737
896.975 3.937 3.987 4.127 4.737 5.447 5.717 6.527 7.727 8.157 8.157
916.265 8.647 9.217 9.657 10.497 11.047 11.607 11.357 10.467 10.497 10.877
935.555 10.497 10.647 11.417 10.987 10.277 9.397 8.917 8.507 8.287 8.797
954.844 9.027 8.707 8.037 7.647 8.147 8.307 7.467 7.497 7.527 7.027
974.134 7.567 8.647 9.477 10.347 11.007 11.107 12.237 13.817 14.527 15.697
993.424 17.727 18.967 19.527 20.837 22.707 24.557 25.767 27.087 28.897 30.657
1012.714 32.317 33.457 34.487 35.817 36.797 37.497 37.047 36.727 36.967 36.307
1032.003 36.717 36.297 34.077 33.087 32.707 32.057 31.197 30.187 29.147 26.867
1051.293 26.137 25.897 24.057 23.007 21.367 19.347 18.307 17.437 16.627 15.927
1070.583 14.247 12.577 11.567 10.957 11.657 10.877 10.477 10.397 8.987 7.627
1089.873 6.687 7.027 7.197 7.867 8.547 8.987 9.647 9.517 10.677 12.977
1109.163 12.767 11.117 11.207 12.167 14.377 14.867 13.807 14.237 14.427 14.427
1128.452 14.127 13.407 12.427 11.177 10.127 11.617 11.177 9.307 8.307 8.007
1147.742 8.057 7.397 7.967 8.527 8.607 8.927 8.727 8.487 8.217 8.027
1167.032 8.717 8.777 8.267 7.667 7.187 7.657 7.707 6.647 5.927 5.387
1186.322 4.597 4.477 4.807 5.007 5.157 4.587 3.337 3.317 4.687 4.927
1205.611 3.827 3.247 4.367 4.897 5.397 5.657 5.307 5.797 6.987 7.617
1224.901 6.037 5.577 7.517 8.877 8.307 7.807 9.307 11.187 13.457 14.537
1244.191 14.767 16.087 17.857 17.967 17.647 18.587 18.627 18.657 17.637 15.867
1263.481 15.707 15.097 13.627 13.447 12.777 11.207 10.547 10.567 10.397 9.707
1282.771 9.317 9.177 9.077 9.087 9.447 9.437 9.237 9.317 9.177 9.377
1302.060 9.607 9.957 10.377 10.817 11.467 11.877 12.247 12.717 13.157 13.647
1321.350 14.187 14.527 14.917 15.057 15.027 15.267 15.367 15.377 15.527 15.747
1340.640 16.137 16.587 16.977 17.197 17.327 17.827 18.367 18.997 19.637 20.127
1359.930 20.607 21.157 21.647 21.837 22.097 22.537 22.787 22.727 22.477 22.097
1379.219 21.837 21.557 20.917 20.127 19.377 18.307 17.167 16.117 14.987 13.877
1398.509 12.837 11.827 10.847 9.947 9.077 8.267 7.617 7.307 7.057 6.647
1417.799 6.277 6.117 6.227 6.267 6.107 5.997 6.057 6.297 6.447 6.727
1437.089 7.007 7.297 7.587 7.777 8.157 8.527 8.827 9.227 9.627 9.767
1456.378 10.227 10.797 11.237 11.647 11.867 11.877 12.137 12.107 11.747 11.577
1475.668 11.047 10.387 9.647 8.907 8.197 7.557 6.977 6.287 5.377 4.567
1494.958 4.177 3.987 3.707 3.457 3.117 2.907 2.827 2.637 2.427 2.367
1514.248 2.347 2.457 2.627 2.447 2.437 2.417 2.247 2.157 2.057 1.937
1533.538 1.907 1.847 1.957 2.277 2.147 1.887 1.5742 1.4986 1.685 1.907
1552.827 2.127 2.097 1.927 2.047 2.007 1.526 1.6193 1.897 1.7913 1.7624
1572.117 1.447 1.1899 1.2339 1.0176 0.9588 1.1405 1.3603 1.2524 1.2828 1.324
1591.407 1.4459 1.4004 1.3217 1.3871 0.9425 0.7492 0.7575 0.574 0.638 0.87521
1610.697 0.90542 0.8604 0.605 0.434 0.545 0.7329 1.0736 1.1538 0.7748 0.688
1629.986 0.531 0.476 0.85898 0.659 0.447 0.72 0.84161 0.756 0.7656 0.9558
1649.276 0.90361 0.601 0.507 0.272 0 0.389 0.633 0.541 0.739 0.635
1668.566 0.507 0.552 0.424 0.592 0.572 0.602 1.0241 1.0503 0.7497 0.51
1687.856 0.403 0.493 0.544 0.467 0.512 0.549 0.644 0.575 0.587 0.701
1707.146 0.598 0.376 0.264 0.428 0.456 0.649 0.7385 0.7622 0.7444 0.603
1726.435 0.699 0.583 0.415 0.451 0.16 0.025 0.191 0.117 0.214 0.297
1745.725 0.461 0.525 0.578 0.56 0.333 0.284 0.313 0.648 0.7272 0.442
1765.015 0.507 0.474 0.181 0.236 0.487 0.577 0.601 0.62 0.533 0.446
1784.305 0.49 0.538 0.63 0.652 0.593 0.604 0.65 0.722 0.548 0.551
1803.594 0.688 0.609 0.626 0.677 0.688 0.721 0.7622 0.7847 0.666 0.506
1822.884 0.579 0.693 0.8017 0.9406 0.89865 0.823 0.715 0.7565 0.87278 0.835052
1842.174 0.7315 0.725 0.799 0.9586 0.9368 0.89041 0.807 0.572 0.602 0.703
1861.464 0.84761 0.7447 0.7909 0.9882 0.9431 1.0581 0.9942 0.938 1.0463 0.9424
1880.754 1.005 0.8864 0.82131 1.1099 1.133 1.1515 1.157 0.85895 0.7331 1.0121
1900.043 1.0561 1.0177 0.9962 0.9666 0.9704 0.85969 0.81725 0.85098 0.829797 0.7658
1919.333 0.695 0.534 0.578 0.7521 0.9386 1.0319 0.9347 0.91496 0.9385 0.8039
1938.623 0.56 0.578 0.88354 1.1224 1.0286 0.694 0.8238 1.0012 1.0265 1.242
1957.913 1.0275 0.83824 0.9911 1.0659 1.1459 0.9652 0.8154 0.813 0.7705 0.615
1977.202 0.7902 1.0236 0.90411 1.0696 1.0226 0.7892 0.647 0.85843 0.9993 0.7614
1996.492 0.7902 0.9985 0.9865 1.0451 1.1903 1.0944 1.0385 1.0735 0.9572 0.87368
2015.782 0.91025 1.026 1.0326 0.951 1.1261 1.1052 1.0683 1.1398 1.0189 1.0618
2035.072 1.1111 1.0554 1.075 1.2181 1.2093 1.0354 0.9807 0.90429 1.0295 1.0192
2054.362 0.9523 0.9708 0.830099 0.85688 0.9923 0.9699 0.91322 0.84215 0.7681 0.73
2073.651 0.84423 1.048 1.0455 1.0135 0.9919 1.0614 1.0242 0.7935 0.7564 0.85551
2092.941 1.1324 1.2757 1.2481 1.1491 1.1125 1.2477 1.3481 1.5249 1.4748 1.4363
2112.231 1.3434 1.2447 1.2385 1.343 1.595 1.4937 1.2125 1.2037 1.2735 1.2087
2131.521 1.2075 1.0815 1.2744 1.3811 1.0653 0.91256 1.0005 1.2173 1.0884 0.85571
2150.810 0.9784 1.1734 1.1222 1.219 1.2839 1.292 1.2761 1.2739 1.1712 0.9941
2170.100 1.0761 0.88133 0.7557 1.0247 1.1407 0.9916 1.003 1.0432 0.9429 1.0462
2189.390 1.0921 1.1361 1.2464 1.2502 1.2177 0.962 0.9797 1.0775 0.9711 1.15
2208.680 1.0661 0.9659 1.0867 0.88028 0.9887 1.1692 0.8811 0.591 0.719 0.84466
2227.970 0.87346 1.0539 0.9602 1.0563 1.1238 0.9955 1.1728 1.3052 1.0385 0.8258
2247.259 0.9896 1.0603 1.0158 0.9741 0.90856 1.0175 1.1644 1.1251 1.0132 1.062
2266.549 1.1438 1.1205 1.054 1.0615 1.0652 1.0477 1.1833 1.2234 1.1552 1.1719
2285.839 1.089 0.9714 0.92548 0.982 1.2743 1.3469 1.2554 1.0484 1.0496 1.1726
2305.129 1.1526 1.1714 1.0785 1.1427 1.131 0.91551 1.1106 1.3491 1.3723 1.254
2324.418 1.2871 1.1699 0.89236 1.1059 1.0976 1.273 1.4961 1.1829 1.126 1.1249
2343.708 1.3323 1.2529 1.056 1.0916 1.1158 1.1482 1.276 1.4713 1.2687 1.0904
2362.998 1.1438 0.89652 0.9184 1.3926 1.2895 1.0534 0.9311 1.0799 1.1795 1.0952
2382.288 1.2199 1.4798 1.4569 1.3419 1.0732 0.9325 0.9685 1.1543 1.3062 1.1732
2401.578 0.9921 0.84062 0.88105 0.8121 0.9684 1.6166 1.5879 1.3792 1.3838 1.4824
2420.867 1.7482 1.6188 1.4347 1.2667 1.1669 1.2445 1.0987 0.9953 1.3271 1.7211
2440.157 1.8181 1.4653 1.3954 1.2686 1.1827 0.88724 0.618 1.0392 1.2855 1.2091
2459.447 1.3161 0.9358 0.338 0.588 0.90687 1.224 1.3125 1.3329 1.3383 1.3758
2478.737 1.2483 1.0688 1.5554 1.5761 1.1917 1.5683 1.6868 1.527 1.6499 1.4674
2498.026 1.1975 1.02 1.0702 1.2395 1.4121 1.5224 1.4456 1.0715 0.663 0.7514
2517.316 1.1512 1.0512 1.1023 1.2771 1.3835 1.3618 1.0856 1.1759 1.4017 1.3586
2536.606 1.5709 1.5749 1.4564 1.7904 1.6243 1.6344 1.586 1.1988 1.2798 1.4171
2555.896 1.2906 0.88856 0.7878 1.0448 0.92281 0.9581 1.2405 1.248 1.4037 1.701
2575.186 1.6291 1.4493 1.663 1.897 1.907 1.857 2.127 2.017 1.5654 1.5473
2594.475 1.6667 1.7195 1.6122 1.6612 1.7545 1.7144 1.7221 1.947 1.857 1.6764
2613.765 1.7276 1.58 1.4797 1.3193 1.5119 2.157 2.357 2.277 1.997 1.673
2633.055 1.5737 1.7504 2.077 1.867 1.536 1.6242 1.887 2.287 2.577 2.217
2652.345 1.917 1.937 1.967 2.107 2.247 2.287 2.277 1.877 1.7339 2.007
2671.634 1.917 1.7728 1.947 2.357 1.967 1.4809 1.877 2.157 2.067 1.987
2690.924 2.197 2.277 1.987 1.857 1.847 1.987 1.7762 1.7248 1.887 1.5467
2710.214 1.8268 2.427 2.387 2.377 2.407 2.377 2.577 2.667 2.667 2.777
2729.504 3.027 2.987 2.747 2.747 3.007 3.017 2.857 2.547 2.497 2.827
2748.794 2.707 2.297 2.177 2.127 2.187 2.257 2.037 2.147 2.047 2.087
2768.083 2.467 2.297 2.307 2.397 2.367 2.547 2.947 3.007 2.667 2.397
2787.373 2.477 2.497 2.577 3.237 3.497 3.257 2.947 3.077 3.227 3.067
2806.663 3.607 3.367 3.087 3.877 4.077 3.727 3.717 4.277 4.417 4.737
2825.953 5.187 5.447 5.457 5.257 5.317 5.257 5.537 6.037 6.447 6.947
2845.242 7.567 8.037 8.397 9.317 9.807 9.857 10.907 11.757 12.637 13.847
2864.532 15.297 17.327 18.907 20.957 23.407 25.037 26.167 27.457 28.637 29.627
2883.822 30.487 30.667 30.157 30.097 30.027 29.927 29.877 29.767 30.067 30.197
2903.112 30.457 31.227 31.827 32.537 33.837 35.437 37.067 38.387 40.127 41.857
2922.401 43.587 45.287 46.967 48.957 51.367 53.677 55.047 56.207 57.317 57.567
2941.691 57.237 57.957 59.187 60.397 61.867 63.997 66.857 70.037 73.927 78.807
2960.981 82.987 84.387 83.557 81.867 79.697 76.637 71.657 65.537 59.177 51.887
2980.271 43.657 35.787 29.217 23.597 19.247 16.067 13.937 12.097 10.117 8.717
2999.561 7.477 6.867 6.637 6.727 6.547 5.827 5.457 4.597 4.287 4.417
3018.850 3.907 3.297 3.367 3.677 3.217 3.117 3.487 3.487 2.967 2.327
3038.140 2.267 2.477 2.817 3.047 2.647 2.397 2.767 2.687 2.347 2.477
3057.430 2.437 2.657 2.517 2.197 2.227 2.047 2.017 2.017 2.127 2.017
3076.720 1.937 2.177 2.387 2.537 2.217 2.127 2.397 2.277 2.187 1.6871
3096.009 1.2137 1.6255 1.897 1.3366 1.6963 2.207 2.067 2.437 2.507 2.397
3115.299 2.407 2.837 3.307 2.847 2.057 1.6686 2.127 2.667 2.807 2.577
3134.589 1.927 1.5691 1.7441 2.117 1.987 1.5464 1.957 2.267 2.187 1.917
3153.879 1.927 2.197 1.8001 1.5331 1.8022 2.257 2.307 2.387 2.157 1.877
3173.169 2.157 2.297 2.587 2.797 2.387 1.907 1.977 2.007 1.997 1.7683
3192.458 1.4209 1.7413 2.237 2.217 1.6871 1.4289 1.5921 1.7656 1.7706 1.3965
3211.748 1.4963 1.7378 1.5128 1.4452 1.4003 1.7229 1.5556 1.2665 1.827 2.297
3231.038 1.7026 1.1666 1.4692 1.5032 1.5514 1.3231 1.2624 1.2155 1.2221 1.8022
3250.328 2.147 1.907 1.483 1.6855 2.087 2.387 2.817 2.457 2.437 2.897
3269.617 2.697 2.747 3.327 4.127 3.967 4.117 4.887 4.807 4.557 5.357
3288.907 6.817 7.397 8.127 9.727 10.897 12.337 13.437 13.217 13.917 15.257
3308.197 16.497 18.997 22.467 26.307 29.697 31.967 32.187 31.257 30.827 30.897
3327.487 30.727 30.137 30.527 29.577 25.607 19.907 14.617 10.797 8.317 6.767
3346.777 5.807 5.267 4.547 3.607 3.247 3.587 3.037 2.217 2.497 2.897
3366.066 2.567 2.197 2.307 2.287 2.237 2.357 1.6462 1.1562 1.7945 2.227
3385.356 2.027 1.957 1.3664 1.4331 1.867 1.18 1.2221 1.3578 0.9761 1.2191
3404.646 1.3479 1.329 1.2399 1.1372 1.3553 1.1856 0.7591 0.87145 1.1301 1.1597
3423.936 1.7479 1.867 1.3241 0.9484 1.1578 1.2796 1.1725 1.1296 0.72 0.474
3443.225 0.9844 1.3583 0.9561 1.1113 1.4307 1.2596 1.0706 0.999 1.2599 1.3556
3462.515 1.1951 1.3064 0.85287 0.332 0.348 0.7655 0.84029 0.7976 1.6348 1.4057
3481.805 1.0376 0.7395 0.524 1.1721 1.3036 1.4383 1.3721 1.752 1.574 0.58
3501.095 0.90536 0.9938 1.1276 1.7868 1.7491 1.6184 1.7783 1.5188 1.3797 1.1097
3520.385 0.652 0.90682 1.5473 1.4297 1.148 1.5472 1.6954 1.2776 0.526 0.589
3539.674 1.5693 1.7045 1.7437 1.2612 0.688 1.4338 1.2484 0.7399 0.84061 0.89336
3558.964 1.4328 1.3999 0.69 0.77 0.90425 1.2643 1.5304 1.371 1.4145 1.5863
3578.254 1.5749 1.7289 1.7264 1.2546 1.0507 1.215 1.3758 1.6033 1.7776 1.01
3597.544 0.372 0.7901 1.194 1.3347 1.343 1.5649 1.715 1.967 2.137 2.157
3616.833 2.207 2.427 3.247 3.227 3.137 3.947 5.337 7.067 8.157 9.117
3636.123 10.267 11.707 13.187 14.357 15.017 15.447 16.007 15.687 15.867 16.357
3655.413 15.287 13.817 11.687 9.037 7.327 6.257 5.567 4.917 4.227 3.887
3674.703 3.557 2.437 1.967 2.067 2.247 2.257 1.6829 1.5527 1.6631 1.7424
3693.993 1.6549 1.8257 2.017 1.7001 1.3189 1.3056 1.1656 1.5098 1.6717 1.615
3713.282 1.1696 0.637 1.2328 0.7918 0.517 0.71 0.572 0.697 1.0798 1.2538
3732.572 1.4759 1.7245 1.4297 1.5886 2.027 1.6888 1.2566 1.129 1.0547 1.1455
3751.862 1.27 1.548 1.2734 1.2179 1.5399 1.0148 1.1509 1.6218 1.3516 1.1015
3771.152 1.5345 1.7371 1.0647 1.1904 1.0977 1.2854 1.8184 1.2366 1.0631 1.5436
3790.441 1.4776 1.3038 2.047 1.927 1.277 1.8061 2.047 1.1565 1.2168 1.3662
3809.731 0.7671 0.9442 1.6097 1.5801 1.5176 1.857 1.3866 0.651 0.313 1.2381
3829.021 1.7879 1.5269 2.057 2.227 1.4536 1.1833 1.0788 1.3223 1.6312 1.4587
3848.311 1.5833 1.4184 1.364 1.4233 1.3668 1.3847 1.1912 1.4255 1.2125 0.88756
3867.601 1.109 1.2557 1.3005 1.6287 1.7248 1.0238 0.9316 1.1139 1.6066 1.7007
3886.890 0.85546 0.836436 1.0973 1.0274 1.1735 1.458 1.6611 1.1044 0.608 0.9388
3906.180 1.6213 1.7384 1.3746 1.6528 1.6041 1.3191 1.7114 1.6968 1.5696 1.5511
3925.470 0.88572 1.1642 1.5791 1.0955 1.0965 0.8133 0.557 1.1238 1.527 1.5035
3944.760 2.197 2.697 1.977 0.91132 0.9822 1.2314 1.7717 2.437 2.227 2.017
3964.049 1.6179 1.6628 1.4944 1.1896 1.1878 1.4903 1.6125 1.4508 1.2566 1.2674
3983.339 0.9716 0.372 0.513 1.1748 1.2993 0.9951 1.0195 0.84938 0.512 0.503
##END=
