##TITLE=2-(p-Nitrobenzyl)pyridine
##JCAMP-DX=4.24
##DATA TYPE=INFRARED SPECTRUM
##ORIGIN=EPA-IR VAPOR PHASE LIBRARY
##OWNER=SRD/NIST
Collection (C) 2018 copyright by the U.S. Secretary of Commerce
on behalf of the United States of America. All rights reserved.
##CAS REGISTRY NO=620-87-1
##MOLFORM=C 12 H 10 N 2 O 2
##$NIST SOURCE=MSDC-IR
##STATE=gas
##XUNITS=1/CM
##YUNITS=ABSORBANCE
##XFACTOR=1.
##YFACTOR=0.001
##DELTAX=1.92898
##FIRSTX=549.8
##LASTX=4000.7
##FIRSTY=0.30883
##MAXX=4000.7
##MINX=549.759
##MAXY=0.165526
##MINY=0
##NPOINTS=1790
##XYDATA=(X++(Y..Y))
549.759 0.30883 0.174 0.171 0.03 0 0.194 0.2026 0.29329 0.5696 0.6565
569.049 0.5466 0.7443 1.0315 1.296 1.716 2.156 2.626 3.346 3.716 4.276
588.339 5.356 6.206 7.106 7.766 8.066 8.036 7.866 7.586 7.096 6.416
607.628 5.486 4.786 4.326 3.976 3.616 3.436 3.356 3.236 3.316 3.416
626.918 3.616 3.756 3.746 3.726 3.796 3.816 3.596 3.386 3.286 3.226
646.208 3.036 2.746 2.496 2.286 2.076 1.946 1.886 1.916 1.956 2.026
665.498 2.166 2.396 2.596 2.946 3.456 4.016 4.896 5.836 6.826 7.866
684.787 8.906 9.956 10.916 11.666 12.116 12.286 12.296 12.086 11.626 11.126
704.077 10.456 9.826 9.546 9.416 9.236 9.146 9.396 9.916 10.496 11.316
723.367 12.426 13.986 15.926 18.056 20.646 23.616 26.856 30.276 33.816 37.206
742.657 40.396 43.386 46.036 48.036 48.946 48.626 46.686 42.946 37.566 31.056
761.947 25.096 20.416 16.696 13.866 11.836 10.246 8.936 8.036 7.156 6.436
781.236 5.876 5.446 5.036 4.736 4.676 4.596 4.666 4.706 4.676 5.176
800.526 5.716 6.036 6.716 7.406 8.036 8.806 9.686 10.656 11.736 13.006
819.816 14.466 15.946 17.016 17.346 16.996 16.286 15.276 14.006 12.846 12.006
839.106 11.786 12.136 12.826 14.586 17.406 21.516 27.416 34.156 39.876 42.846
858.395 42.696 39.736 34.066 27.026 20.476 15.516 12.436 10.386 8.846 7.616
877.685 6.766 6.076 5.336 4.796 4.426 4.086 3.926 3.876 3.806 3.516
896.975 3.246 3.116 2.926 2.896 2.966 3.086 3.066 3.026 3.076 2.986
916.265 2.946 2.886 2.796 2.606 2.456 2.496 2.416 2.226 2.196 2.056
935.555 1.866 1.826 1.866 1.906 1.866 1.846 1.746 1.646 1.726 1.816
954.844 1.816 1.736 1.706 1.716 1.686 1.756 1.706 1.636 1.656 1.666
974.134 1.886 1.996 1.936 2.216 2.496 2.786 3.246 3.826 4.566 5.126
993.424 5.226 5.086 4.956 4.626 4.156 3.896 3.816 4.016 4.906 6.626
1012.714 8.856 10.906 11.546 11.216 10.466 8.456 5.746 3.796 2.826 2.476
1032.003 2.606 2.696 2.916 3.306 3.736 4.116 4.506 4.976 4.876 4.736
1051.293 4.646 4.196 3.696 3.326 3.146 2.816 2.326 2.056 1.836 1.796
1070.583 2.166 2.476 2.566 2.846 3.146 3.606 4.276 4.906 5.226 5.286
1089.873 5.556 5.756 6.366 7.206 7.826 8.756 9.586 10.556 11.986 12.816
1109.163 12.626 11.976 10.636 9.126 7.846 6.456 5.256 4.386 3.886 3.566
1128.452 3.376 3.416 3.626 4.076 4.586 5.036 5.186 5.186 5.396 5.276
1147.742 4.716 4.216 3.626 3.206 2.956 2.756 2.536 2.376 2.436 2.636
1167.032 2.966 3.186 3.636 4.546 5.496 6.296 7.046 7.646 8.096 8.266
1186.322 7.926 7.456 7.346 7.116 6.696 6.426 6.016 5.746 5.586 5.516
1205.611 5.806 6.176 6.606 7.236 8.016 8.636 8.996 9.096 8.956 8.556
1224.901 8.026 7.496 6.996 6.556 6.266 6.086 5.886 5.486 5.226 4.926
1244.191 4.556 4.206 3.806 3.576 3.466 3.536 3.556 3.556 3.716 3.656
1263.481 3.676 3.966 4.196 4.286 4.406 4.566 4.736 4.996 5.476 5.806
1282.771 5.916 6.086 6.316 6.526 6.746 7.026 7.326 7.716 8.116 8.586
1302.060 9.246 9.936 10.576 11.266 12.046 12.926 13.856 14.896 16.076 17.496
1321.350 19.246 21.446 24.236 27.776 32.246 37.726 44.436 52.456 61.986 73.316
1340.640 86.576 101.856 118.876 136.436 152.116 162.656 165.526 159.676 145.316 124.286
1359.930 100.466 78.506 60.906 47.966 38.636 31.916 27.166 23.726 21.196 19.336
1379.219 17.906 16.816 15.866 14.986 14.126 13.266 12.456 11.676 10.886 10.076
1398.509 9.456 8.986 8.606 8.416 8.426 8.556 8.946 9.546 10.346 11.416
1417.799 12.726 14.416 16.496 18.936 21.956 25.626 29.876 33.886 36.496 37.016
1437.089 35.556 32.566 28.096 23.096 19.026 16.206 14.406 13.366 12.976 13.116
1456.378 13.836 15.146 16.996 19.476 22.736 26.896 31.426 35.566 38.246 39.006
1475.668 38.056 35.626 32.076 28.456 26.086 25.386 26.046 27.446 29.126 30.576
1494.958 31.206 30.916 29.916 28.466 27.056 26.276 26.436 27.596 29.616 32.506
1514.248 36.206 40.776 46.266 52.526 60.156 68.246 77.136 86.486 95.656 104.146
1533.538 111.406 116.836 119.576 119.646 116.976 111.826 104.276 95.206 85.646 76.006
1552.827 67.456 59.796 53.956 49.556 46.466 44.976 44.786 45.566 46.856 48.426
1572.117 50.116 52.006 54.296 57.066 60.266 63.866 66.996 69.226 70.566 70.876
1591.407 70.056 68.076 65.176 61.726 57.846 53.516 49.046 44.636 40.246 35.866
1610.697 31.556 27.326 23.456 19.906 16.766 14.146 11.916 10.176 8.886 7.846
1629.986 7.036 6.376 5.866 5.516 5.176 4.916 4.746 4.586 4.416 4.256
1649.276 4.146 4.076 3.966 3.776 3.666 3.526 3.376 3.296 3.146 2.986
1668.566 2.836 2.686 2.576 2.526 2.456 2.386 2.336 2.286 2.286 2.316
1687.856 2.296 2.236 2.236 2.246 2.166 2.126 2.166 2.136 2.066 2.026
1707.146 1.976 1.866 1.746 1.696 1.656 1.576 1.536 1.476 1.416 1.406
1726.435 1.396 1.396 1.446 1.516 1.596 1.606 1.586 1.616 1.646 1.686
1745.725 1.746 1.726 1.706 1.706 1.676 1.646 1.646 1.676 1.656 1.596
1765.015 1.626 1.676 1.696 1.706 1.776 1.876 1.986 2.106 2.206 2.346
1784.305 2.496 2.576 2.636 2.656 2.596 2.466 2.296 2.096 1.896 1.676
1803.594 1.486 1.396 1.2898 1.2199 1.1995 1.1734 1.1624 1.1351 1.1061 1.1671
1822.884 1.2516 1.2398 1.2338 1.2951 1.376 1.406 1.386 1.426 1.476 1.436
1842.174 1.406 1.426 1.476 1.436 1.436 1.466 1.476 1.516 1.566 1.606
1861.464 1.606 1.606 1.616 1.566 1.456 1.356 1.2529 1.1389 1.0506 1.003
1880.754 1.0121 1.0639 1.0645 1.0255 1.0636 1.1398 1.2207 1.326 1.416 1.536
1900.043 1.696 1.866 2.096 2.316 2.546 2.726 2.926 3.126 3.246 3.276
1919.333 3.206 3.096 2.986 2.866 2.746 2.626 2.536 2.426 2.316 2.236
1938.623 2.176 2.076 1.966 1.906 1.856 1.786 1.736 1.676 1.586 1.516
1957.913 1.526 1.556 1.656 1.736 1.726 1.806 1.876 1.796 1.696 1.586
1977.202 1.426 1.2537 1.0753 0.9516 0.8709 0.7803 0.7286 0.7141 0.6769 0.6216
1996.492 0.5714 0.5746 0.5921 0.5909 0.548 0.498 0.4506 0.4434 0.4961 0.5084
2015.782 0.5019 0.4895 0.4716 0.4868 0.4811 0.485 0.5028 0.5299 0.5507 0.5487
2035.072 0.6058 0.5915 0.5586 0.6036 0.6327 0.6419 0.6344 0.6191 0.6341 0.5793
2054.362 0.5186 0.5432 0.5606 0.5878 0.591 0.5671 0.561 0.5294 0.5328 0.563
2073.651 0.5754 0.5785 0.6051 0.6285 0.6619 0.6889 0.6744 0.6789 0.6525 0.6443
2092.941 0.6242 0.5561 0.5443 0.5386 0.5364 0.5405 0.5325 0.5357 0.5106 0.518
2112.231 0.5346 0.5167 0.5198 0.4918 0.4535 0.4677 0.5214 0.5378 0.5333 0.5216
2131.521 0.4946 0.5002 0.5261 0.5187 0.5042 0.4765 0.4886 0.451 0.36052 0.38462
2150.810 0.35814 0.34004 0.4117 0.4202 0.37149 0.37413 0.4068 0.418 0.4088 0.4161
2170.100 0.4684 0.4764 0.4793 0.5007 0.5304 0.5463 0.5516 0.5899 0.5845 0.5887
2189.390 0.6002 0.6234 0.6666 0.7085 0.7137 0.6523 0.6806 0.7363 0.724 0.7287
2208.680 0.7813 0.7891 0.7707 0.7935 0.7517 0.7296 0.7853 0.7594 0.6505 0.5861
2227.970 0.5904 0.6047 0.5777 0.6092 0.6411 0.5641 0.5559 0.5678 0.4785 0.477
2247.259 0.4814 0.508 0.5517 0.5423 0.5386 0.5114 0.523 0.5609 0.6442 0.6574
2266.549 0.6322 0.6512 0.6627 0.6643 0.7023 0.767 0.7684 0.8106 0.8611 0.8846
2285.839 0.9408 0.9586 1.0049 1.0445 0.9767 0.9378 0.926 0.8737 0.8449 0.7863
2305.129 0.7639 0.7815 0.7586 0.7349 0.7179 0.669 0.6634 0.7099 0.6386 0.6019
2324.418 0.6231 0.6198 0.6698 0.703 0.6842 0.7075 0.6841 0.6748 0.7395 0.7004
2343.708 0.745 0.7688 0.6905 0.6704 0.6996 0.7292 0.6706 0.6527 0.7043 0.71
2362.998 0.6947 0.6833 0.6644 0.665 0.6844 0.6696 0.6794 0.7288 0.7231 0.7507
2382.288 0.7244 0.6477 0.6498 0.7473 0.7848 0.7297 0.7338 0.7742 0.8101 0.8039
2401.578 0.7249 0.6536 0.6766 0.6825 0.6466 0.6564 0.7583 0.8242 0.767 0.7316
2420.867 0.7288 0.6919 0.7313 0.8545 0.8655 0.801 0.8294 0.8466 0.8577 0.9495
2440.157 0.999 1.0105 1.0726 1.1811 1.2819 1.346 1.356 1.356 1.426 1.456
2459.447 1.436 1.386 1.326 1.2684 1.2524 1.16 1.0561 0.9921 0.9075 0.8665
2478.737 0.7862 0.739 0.7302 0.7368 0.7485 0.6492 0.5969 0.6162 0.6435 0.6693
2498.026 0.6433 0.5666 0.5604 0.668 0.6857 0.6279 0.633 0.6409 0.6144 0.6587
2517.316 0.6969 0.6551 0.6233 0.6232 0.606 0.5747 0.5116 0.5509 0.5548 0.496
2536.606 0.5558 0.5159 0.5111 0.5532 0.4895 0.4651 0.5372 0.5548 0.4852 0.4672
2555.896 0.4506 0.4737 0.5388 0.4776 0.447 0.513 0.5449 0.5211 0.4921 0.517
2575.186 0.5649 0.6032 0.5911 0.5788 0.5749 0.6128 0.6774 0.6341 0.6362 0.7119
2594.475 0.7464 0.7296 0.7513 0.8217 0.8592 0.8923 0.8994 0.9199 0.9602 0.9533
2613.765 0.9298 0.9603 0.9586 0.8794 0.787 0.7751 0.7553 0.7003 0.662 0.6643
2633.055 0.6784 0.701 0.713 0.705 0.6759 0.6424 0.6752 0.6674 0.6452 0.5742
2652.345 0.5328 0.5587 0.5624 0.6151 0.6158 0.6223 0.685 0.7451 0.8094 0.8149
2671.634 0.8717 0.8456 0.807 0.8054 0.7942 0.8693 0.8958 0.9656 0.9627 0.9403
2690.924 1.0323 1.0904 1.1141 1.0643 1.141 1.1621 1.136 1.1953 1.1875 1.1955
2710.214 1.2368 1.2738 1.1473 1.1086 1.1578 1.0965 1.0575 0.9914 0.9358 0.8079
2729.504 0.7372 0.8094 0.8025 0.8089 0.7594 0.7386 0.783 0.7733 0.7303 0.6747
2748.794 0.696 0.7285 0.7374 0.7169 0.7148 0.7496 0.7542 0.7433 0.773 0.8066
2768.083 0.8029 0.8099 0.7457 0.7081 0.7048 0.6483 0.6567 0.6986 0.7277 0.7652
2787.373 0.7773 0.7183 0.6853 0.7132 0.8017 0.8546 0.7671 0.7488 0.8036 0.8491
2806.663 0.8678 0.8938 0.922 0.9261 0.9463 0.9651 0.9751 1.0506 1.1065 1.1659
2825.953 1.346 1.426 1.476 1.616 1.816 2.036 2.196 2.426 2.576 2.706
2845.242 2.856 2.956 3.136 3.226 3.236 3.306 3.326 3.336 3.386 3.286
2864.532 3.206 3.296 3.366 3.316 3.276 3.266 3.226 3.206 3.246 3.196
2883.822 3.196 3.246 3.246 3.236 3.256 3.286 3.346 3.406 3.456 3.656
2903.112 3.856 4.066 4.376 4.716 5.046 5.326 5.796 6.346 6.726 7.206
2922.401 7.646 8.076 8.506 8.656 8.756 8.786 8.866 8.826 8.606 8.516
2941.691 8.246 7.836 7.486 7.216 6.906 6.566 6.276 5.926 5.566 5.246
2960.981 4.886 4.496 4.176 3.906 3.656 3.406 3.156 2.896 2.806 2.806
2980.271 2.746 2.666 2.786 2.956 3.036 3.046 3.206 3.546 3.946 4.416
2999.561 5.016 5.856 6.706 7.536 8.526 9.616 10.596 11.436 12.156 12.476
3018.850 12.166 11.506 10.726 9.826 9.026 8.416 7.986 7.726 7.626 7.726
3038.140 8.046 8.506 9.076 9.726 10.436 11.246 11.936 12.626 13.356 13.986
3057.430 14.566 15.216 15.976 16.676 17.286 18.096 19.246 20.636 22.196 23.706
3076.720 24.706 24.916 24.506 23.126 20.796 18.156 15.586 13.206 10.996 8.936
3096.009 7.236 5.966 4.996 4.266 3.596 3.096 2.726 2.526 2.346 1.996
3115.299 1.796 1.716 1.616 1.486 1.366 1.356 1.436 1.416 1.346 1.406
3134.589 1.576 1.536 1.536 1.596 1.486 1.416 1.326 1.246 1.1889 1.0455
3153.879 0.8577 0.7329 0.7919 0.7316 0.5737 0.6464 0.5879 0.5419 0.6323 0.596
3173.169 0.5647 0.5705 0.6582 0.7366 0.6633 0.61 0.6837 0.7011 0.6671 0.6699
3192.458 0.6766 0.7026 0.7013 0.654 0.7288 0.6868 0.6005 0.7151 0.7727 0.7435
3211.748 0.7391 0.7499 0.5984 0.4139 0.34806 0.36282 0.37876 0.4169 0.4125 0.34896
3231.038 0.4114 0.41 0.36194 0.2857 0.2108 0.2369 0.252 0.251 0.28853 0.233
3250.328 0.2064 0.2332 0.2088 0.34895 0.449 0.2743 0.179 0.2641 0.30308 0.36411
3269.617 0.36497 0.34945 0.35032 0.2736 0.2261 0.3114 0.37596 0.34274 0.29029 0.2153
3288.907 0.2686 0.2795 0.29202 0.31714 0.2631 0.38909 0.4744 0.38193 0.5007 0.4577
3308.197 0.176 0.18 0.2417 0.31573 0.37364 0.33406 0.2847 0.2778 0.31591 0.31806
3327.487 0.36437 0.4126 0.33702 0.34583 0.305866 0.2816 0.4113 0.36155 0.271 0.297828
3346.777 0.295835 0.2141 0.2085 0.36947 0.4701 0.31263 0.2286 0.304769 0.34064 0.3433
3366.066 0.2527 0.175 0.2077 0.37857 0.442 0.3274 0.38696 0.35214 0.179 0.2596
3385.356 0.299771 0.2503 0.1973 0.195 0.303793 0.28852 0.31745 0.2955 0.2601 0.33455
3404.646 0.3312 0.30994 0.32103 0.34805 0.39496 0.5307 0.5599 0.4511 0.34809 0.299458
3423.936 0.38716 0.36511 0.36245 0.37503 0.36075 0.4031 0.38134 0.4179 0.4084 0.33425
3443.225 0.39333 0.453 0.4932 0.4067 0.33748 0.4383 0.38074 0.33162 0.2849 0.30913
3462.515 0.36082 0.32227 0.30803 0.2647 0.2206 0.30698 0.4109 0.32717 0.2675 0.35483
3481.805 0.4398 0.39557 0.28658 0.29405 0.36232 0.35538 0.32825 0.4268 0.4873 0.37043
3501.095 0.2646 0.3662 0.38129 0.2314 0.2049 0.2453 0.31637 0.35743 0.4021 0.38869
3520.385 0.4474 0.4572 0.33815 0.3749 0.35446 0.36681 0.2664 0.2358 0.2698 0.2351
3539.674 0.30757 0.3962 0.37919 0.314 0.31983 0.2502 0.2458 0.2644 0.4387 0.5647
3558.964 0.4863 0.4696 0.4567 0.37707 0.28606 0.2796 0.3507 0.30555 0.39539 0.5599
3578.254 0.5273 0.3254 0.2258 0.35687 0.435 0.3993 0.35658 0.4688 0.4866 0.32311
3597.544 0.33851 0.30837 0.2069 0.31984 0.2782 0.186 0.14 0.12 0.2656 0.302501
3616.833 0.37493 0.4145 0.38141 0.35947 0.4006 0.4912 0.4973 0.4671 0.4392 0.5307
3636.123 0.654 0.569 0.39059 0.3739 0.34809 0.2523 0.31264 0.425 0.4702 0.38555
3655.413 0.38904 0.5164 0.4885 0.5206 0.5177 0.4898 0.667 0.7493 0.6493 0.7123
3674.703 0.7295 0.5016 0.35803 0.482 0.5731 0.5142 0.5688 0.7294 0.7181 0.5311
3693.993 0.5168 0.6485 0.5748 0.4681 0.6231 0.6329 0.5212 0.5744 0.6155 0.652
3713.282 0.6144 0.5285 0.4676 0.4204 0.5871 0.5886 0.4073 0.5149 0.4535 0.34764
3732.572 0.4474 0.4652 0.5269 0.4674 0.4101 0.5808 0.7316 0.6109 0.5115 0.4305
3751.862 0.298266 0.4179 0.503 0.5231 0.5534 0.6651 0.6666 0.5073 0.5315 0.4867
3771.152 0.5328 0.5475 0.523 0.4368 0.4689 0.6612 0.5032 0.4669 0.4762 0.38526
3790.441 0.437 0.4759 0.29516 0.31961 0.464 0.4751 0.5357 0.6609 0.53 0.295033
3809.731 0.2848 0.4045 0.4967 0.5036 0.6131 0.6202 0.5873 0.6945 0.6989 0.6652
3829.021 0.6388 0.504 0.4803 0.5811 0.5052 0.4033 0.38303 0.4543 0.4597 0.34531
3848.311 0.4402 0.4422 0.36322 0.4322 0.5391 0.5668 0.551 0.4447 0.4525 0.5537
3867.601 0.5778 0.4958 0.5799 0.6676 0.6255 0.5365 0.5001 0.6745 0.5817 0.4777
3886.890 0.6065 0.723 0.721 0.6033 0.5813 0.6568 0.699 0.678 0.6422 0.501
3906.180 0.4884 0.6268 0.6275 0.5269 0.32081 0.4022 0.5512 0.34209 0.33769 0.4305
3925.470 0.38919 0.4111 0.4157 0.30802 0.2684 0.4641 0.4263 0.34024 0.428 0.4791
3944.760 0.4322 0.3966 0.5175 0.5309 0.4601 0.5976 0.6188 0.4558 0.4115 0.4744
3964.049 0.4261 0.4162 0.39409 0.2322 0.34153 0.6019 0.478 0.2607 0.31081 0.37234
3983.339 0.2738 0.2648 0.4073 0.4047 0.4055 0.4509 0.4889 0.6004 0.6668 0.7142
##END=
