##TITLE=Diphenylmethane-4-carboxylic acid
##JCAMP-DX=4.24
##DATA TYPE=INFRARED SPECTRUM
##ORIGIN=EPA-IR VAPOR PHASE LIBRARY
##OWNER=SRD/NIST
Collection (C) 2018 copyright by the U.S. Secretary of Commerce
on behalf of the United States of America. All rights reserved.
##CAS REGISTRY NO=620-86-0
##MOLFORM=C 14 H 12 O 2
##$NIST SOURCE=MSDC-IR
##STATE=gas
##XUNITS=1/CM
##YUNITS=ABSORBANCE
##XFACTOR=1.
##YFACTOR=0.001
##DELTAX=1.92898
##FIRSTX=549.8
##LASTX=4000.7
##FIRSTY=12.524
##MAXX=4000.7
##MINX=549.759
##MAXY=0.206584
##MINY=0
##NPOINTS=1790
##XYDATA=(X++(Y..Y))
549.759 12.524 13.514 14.304 15.104 15.914 16.644 17.654 18.704 19.434 20.004
569.049 19.964 19.384 18.544 17.584 16.784 16.054 15.244 14.084 12.914 11.594
588.339 10.084 8.824 7.594 6.444 5.924 5.534 5.184 5.254 5.264 5.324
607.628 5.844 6.824 8.314 10.114 11.354 11.944 12.124 11.674 10.144 8.034
626.918 6.644 5.674 4.904 4.664 4.464 4.274 4.144 4.074 3.944 3.504
646.208 3.424 3.554 3.424 3.324 3.354 3.384 3.464 3.554 3.624 3.774
665.498 4.044 4.404 4.774 5.244 5.814 6.494 7.154 8.024 9.194 10.824
684.787 12.984 15.324 17.874 20.804 23.754 26.364 28.474 30.154 31.594 32.954
704.077 34.834 37.254 39.954 42.984 45.784 47.814 48.414 47.364 44.984 41.374
723.367 37.344 33.474 29.944 27.074 24.814 23.124 22.254 21.954 21.994 22.414
742.657 23.104 23.764 23.904 23.604 23.024 22.044 21.054 20.124 19.264 18.574
761.947 18.174 17.694 16.734 15.344 13.634 11.834 10.124 8.394 7.144 6.394
781.236 5.654 5.154 4.784 4.404 4.094 3.874 3.764 3.574 3.364 3.254
800.526 3.214 3.244 3.164 2.964 2.864 2.974 2.774 2.644 2.714 2.604
819.816 2.454 2.604 2.784 2.834 3.024 2.964 2.944 3.004 3.004 3.054
839.106 3.204 3.524 3.684 3.704 4.164 4.654 4.764 5.034 5.224 5.284
858.395 5.284 5.214 4.934 4.444 4.084 3.724 3.254 2.914 2.604 2.294
877.685 2.304 2.294 2.224 2.244 2.134 2.064 2.074 2.014 2.064 2.154
896.975 2.114 2.244 2.384 2.524 2.734 2.654 2.714 2.654 2.534 2.524
916.265 2.344 2.354 2.384 2.224 2.064 2.114 2.164 2.094 1.974 1.744
935.555 1.654 1.694 1.764 1.704 1.664 1.764 1.674 1.584 1.614 1.724
954.844 1.694 1.664 1.704 1.724 1.934 2.034 1.894 1.794 1.594 1.564
974.134 1.714 1.674 1.824 1.834 1.624 1.624 1.764 1.794 1.824 2.064
993.424 2.114 2.124 2.314 2.744 3.104 3.334 3.734 4.184 4.954 6.354
1012.714 8.894 12.894 16.794 18.444 18.734 18.884 17.364 14.084 11.524 10.124
1032.003 9.164 8.094 6.594 5.594 5.174 5.274 5.534 5.764 6.194 6.974
1051.293 8.084 9.444 11.374 13.564 16.414 20.214 25.384 32.064 40.004 49.634
1070.583 60.914 73.534 85.944 95.354 99.144 97.064 90.394 79.654 66.104 53.074
1089.873 42.214 33.944 27.934 22.974 19.554 17.134 14.894 13.244 11.884 11.044
1109.163 10.464 9.764 9.564 9.764 9.594 8.974 8.844 8.934 8.854 8.804
1128.452 8.704 8.804 8.894 9.274 9.724 9.634 10.044 10.774 11.324 12.254
1147.742 13.584 15.024 17.094 20.064 23.664 28.394 34.614 42.104 50.654 60.194
1167.032 69.584 77.004 81.014 80.994 77.024 69.714 60.334 51.454 44.654 40.534
1186.322 38.794 38.354 38.184 36.774 34.454 31.334 26.834 22.184 18.454 15.604
1205.611 13.134 11.434 10.584 9.724 8.764 8.464 8.304 7.974 7.944 7.934
1224.901 7.924 8.274 8.434 8.424 8.674 9.114 9.534 9.694 9.924 10.034
1244.191 10.234 10.424 10.644 11.134 11.814 12.464 13.124 13.804 14.224 14.334
1263.481 14.194 14.034 13.864 13.484 13.024 12.564 12.384 12.404 12.524 12.634
1282.771 12.634 12.874 13.154 13.464 13.784 13.994 14.384 14.864 15.294 15.814
1302.060 16.404 17.044 17.794 18.594 19.284 19.914 20.384 20.514 20.484 20.224
1321.350 19.664 19.024 18.344 17.684 17.054 16.524 16.214 16.064 16.134 16.634
1340.640 17.644 19.084 20.914 23.104 25.654 28.504 31.484 34.104 35.734 36.214
1359.930 35.394 33.164 29.874 26.114 22.424 19.094 16.194 13.824 11.934 10.344
1379.219 9.004 7.964 7.214 6.584 6.054 5.714 5.474 5.364 5.384 5.514
1398.509 5.774 6.194 6.834 7.654 8.654 9.834 11.104 12.304 13.094 13.284
1417.799 12.844 11.904 10.624 9.224 8.104 7.364 6.854 6.534 6.394 6.324
1437.089 6.394 6.624 6.804 6.894 6.954 6.994 6.974 6.854 6.634 6.254
1456.378 5.774 5.364 4.964 4.504 4.054 3.704 3.424 3.184 2.944 2.804
1475.668 2.884 3.044 3.254 3.644 4.194 5.014 6.124 7.644 9.654 11.594
1494.958 12.704 12.834 12.314 11.174 9.384 7.644 6.514 5.854 5.324 4.744
1514.248 4.204 3.644 3.084 2.734 2.504 2.344 2.264 2.224 2.164 2.154
1533.538 2.194 2.174 2.134 2.174 2.154 2.144 2.304 2.464 2.514 2.594
1552.827 2.794 3.004 3.184 3.404 3.734 4.154 4.564 4.974 5.444 5.784
1572.117 5.974 6.264 6.614 6.874 7.144 7.464 7.764 8.134 8.614 9.334
1591.407 10.384 11.734 13.504 15.684 18.034 20.374 22.504 24.254 25.664 26.534
1610.697 26.684 25.994 24.354 21.684 18.224 14.504 11.014 8.244 6.314 5.044
1629.986 4.244 3.694 3.244 2.954 2.754 2.504 2.404 2.364 2.304 2.274
1649.276 2.274 2.244 2.214 2.274 2.334 2.404 2.434 2.454 2.414 2.424
1668.566 2.444 2.504 2.594 2.654 2.754 2.844 2.974 3.134 3.314 3.534
1687.856 3.804 4.094 4.374 4.644 4.914 5.204 5.424 5.664 5.914 6.234
1707.146 6.594 6.994 7.564 8.194 8.744 9.174 9.554 9.874 10.154 10.584
1726.435 11.264 12.244 13.674 15.614 18.154 21.424 25.624 31.164 38.114 47.004
1745.725 58.574 73.924 94.294 121.074 152.474 182.054 201.474 206.584 198.594 176.714
1765.015 143.214 108.744 81.934 63.314 49.584 39.254 31.604 25.984 21.814 18.694
1784.305 16.364 14.624 13.294 12.134 11.214 10.504 9.944 9.514 9.134 8.714
1803.594 8.344 8.024 7.614 7.224 6.934 6.624 6.274 5.934 5.654 5.324
1822.884 4.994 4.694 4.314 3.904 3.494 3.124 2.804 2.574 2.404 2.214
1842.174 2.064 1.964 1.874 1.844 1.814 1.764 1.764 1.754 1.734 1.704
1861.464 1.734 1.754 1.764 1.734 1.744 1.824 1.854 1.854 1.864 1.944
1880.754 1.954 1.914 1.894 1.894 1.904 1.874 1.864 1.854 1.854 1.874
1900.043 1.884 1.904 1.954 1.974 2.064 2.164 2.284 2.424 2.584 2.714
1919.333 2.824 2.954 3.034 3.154 3.264 3.324 3.324 3.324 3.314 3.204
1938.623 3.064 2.964 2.834 2.704 2.584 2.474 2.384 2.284 2.204 2.104
1957.913 1.954 1.804 1.554 1.384 1.321 1.2456 1.1583 1.0501 1.0171 1.0011
1977.202 0.9947 0.9689 0.9706 0.9928 0.9863 0.9431 0.9428 0.9411 0.9075 0.9203
1996.492 0.9129 0.9094 0.9179 0.898 0.9231 0.8918 0.8805 0.8873 0.7971 0.7809
2015.782 0.7972 0.8154 0.8307 0.7841 0.7396 0.7612 0.7825 0.7305 0.719 0.7363
2035.072 0.7139 0.7355 0.7664 0.7197 0.702 0.7445 0.7104 0.6455 0.6445 0.6256
2054.362 0.6238 0.6916 0.6671 0.6724 0.7092 0.6725 0.6503 0.6604 0.7121 0.7643
2073.651 0.7548 0.7312 0.6955 0.7144 0.6942 0.6689 0.6838 0.6677 0.7264 0.7439
2092.941 0.7472 0.7326 0.726 0.7934 0.7939 0.7496 0.7351 0.6822 0.6282 0.6652
2112.231 0.684 0.6802 0.7199 0.7896 0.7598 0.7295 0.7882 0.7779 0.7768 0.8
2131.521 0.8571 0.8938 0.8374 0.8761 0.965 1.0086 0.99 1.0099 1.065 1.0491
2150.810 1.0282 1.013 1.0459 1.0623 1.0039 0.9378 0.9229 0.8658 0.7967 0.7587
2170.100 0.7278 0.7418 0.6916 0.6042 0.5953 0.6417 0.613 0.5952 0.6383 0.6063
2189.390 0.5045 0.4994 0.5039 0.4868 0.4815 0.4532 0.5122 0.6101 0.5971 0.5771
2208.680 0.6507 0.6314 0.5353 0.5585 0.6208 0.6274 0.6553 0.5978 0.6201 0.6862
2227.970 0.619 0.5942 0.6055 0.5762 0.6007 0.6442 0.6536 0.6827 0.6862 0.6927
2247.259 0.709 0.6547 0.619 0.5994 0.6256 0.6974 0.7104 0.7032 0.6528 0.6557
2266.549 0.6749 0.6961 0.7084 0.7085 0.6558 0.6244 0.673 0.6198 0.6081 0.635
2285.839 0.6267 0.6764 0.6157 0.5816 0.6711 0.6658 0.6636 0.6457 0.6291 0.7051
2305.129 0.7409 0.781 0.8244 0.8256 0.8005 0.8433 0.9082 0.9155 0.9132 0.9326
2324.418 0.9777 1.0005 1.0774 1.0495 1.0163 1.1003 1.0616 1.0719 1.174 1.1452
2343.708 1.101 1.0415 1.0099 1.0659 1.0395 1.0154 1.0556 1.0324 1.0112 1.0468
2362.998 1.1112 1.0704 0.9904 0.9376 0.8913 0.837 0.8116 0.8818 0.9067 0.9071
2382.288 0.87 0.8258 0.8854 0.8617 0.7851 0.8356 0.7861 0.7378 0.7632 0.7292
2401.578 0.7335 0.7501 0.8229 0.9076 0.859 0.8289 0.8334 0.8228 0.8727 0.914
2420.867 0.8748 0.8506 0.8728 0.8478 0.8244 0.9021 0.9339 0.8862 0.8802 0.8364
2440.157 0.8498 0.868 0.8903 0.8776 0.7879 0.8448 0.8651 0.7656 0.7068 0.645
2459.447 0.6814 0.6817 0.6507 0.6948 0.7118 0.7123 0.6891 0.6945 0.6582 0.6646
2478.737 0.6558 0.59 0.6357 0.6889 0.6769 0.6028 0.6125 0.6905 0.6417 0.63
2498.026 0.6693 0.6667 0.6394 0.6374 0.6847 0.683 0.661 0.689 0.6503 0.6106
2517.316 0.699 0.7029 0.7021 0.7276 0.6575 0.6241 0.6309 0.6193 0.5453 0.5978
2536.606 0.7192 0.6781 0.6257 0.6274 0.6256 0.6408 0.6513 0.6484 0.6207 0.6144
2555.896 0.6597 0.6043 0.5853 0.5552 0.5863 0.6754 0.6357 0.64 0.6005 0.6398
2575.186 0.7327 0.7385 0.7673 0.7121 0.6821 0.7284 0.7968 0.795 0.7371 0.7454
2594.475 0.7077 0.6874 0.7522 0.8173 0.8127 0.8048 0.8172 0.8047 0.725 0.6833
2613.765 0.7398 0.796 0.7415 0.6324 0.6209 0.6739 0.7244 0.7765 0.7474 0.6567
2633.055 0.6474 0.6774 0.7227 0.7743 0.7748 0.7507 0.6929 0.5842 0.6047 0.6059
2652.345 0.526 0.5704 0.6344 0.5938 0.5227 0.5196 0.5461 0.521 0.5703 0.6339
2671.634 0.5248 0.4826 0.5175 0.4994 0.5242 0.5244 0.5027 0.4953 0.4971 0.4999
2690.924 0.5342 0.5715 0.5622 0.5553 0.5862 0.6847 0.6486 0.6225 0.6584 0.5979
2710.214 0.5698 0.5221 0.5649 0.6385 0.5945 0.5447 0.509 0.4863 0.5094 0.5745
2729.504 0.5178 0.5257 0.6154 0.6226 0.5906 0.6055 0.6162 0.6138 0.6402 0.6685
2748.794 0.6996 0.6522 0.6002 0.659 0.6927 0.708 0.786 0.7877 0.7841 0.7783
2768.083 0.7683 0.8537 0.8422 0.7863 0.8351 0.9066 0.933 0.8522 0.9013 0.9858
2787.373 0.9535 0.9081 0.9362 0.9165 0.8463 0.7907 0.7991 0.8688 0.8824 0.8557
2806.663 0.7501 0.7966 0.8576 0.855 0.9273 1.0263 1.0174 0.9855 1.0667 1.1629
2825.953 1.2132 1.2444 1.364 1.564 1.774 1.834 1.984 2.274 2.434 2.554
2845.242 2.694 2.844 2.964 3.004 3.014 3.024 2.934 2.894 2.874 2.754
2864.532 2.534 2.304 2.204 2.134 2.104 2.034 1.934 1.894 1.974 2.054
2883.822 2.004 1.944 2.024 2.114 2.304 2.474 2.554 2.824 3.124 3.434
2903.112 3.774 4.104 4.584 5.194 5.784 6.394 7.064 7.664 8.224 8.704
2922.401 8.974 9.154 9.134 8.964 8.714 8.234 7.694 7.094 6.434 5.844
2941.691 5.234 4.634 4.144 3.734 3.344 2.974 2.744 2.474 2.194 1.994
2960.981 1.904 1.864 1.794 1.674 1.594 1.624 1.614 1.494 1.464 1.554
2980.271 1.604 1.624 1.674 1.674 1.814 2.004 2.044 2.164 2.434 2.784
2999.561 3.164 3.464 3.844 4.204 4.554 5.124 5.714 6.214 6.794 7.514
3018.850 8.214 9.104 10.294 11.534 12.984 14.464 15.734 16.834 17.614 17.884
3038.140 17.544 16.774 15.614 14.324 13.144 12.054 11.234 10.594 10.184 10.164
3057.430 10.394 10.764 11.454 12.554 13.914 15.314 16.454 17.114 16.934 16.154
3076.720 14.914 13.344 12.174 11.264 10.544 10.074 9.714 9.344 8.764 8.264
3096.009 7.924 7.464 6.924 6.454 5.974 5.564 5.214 4.704 4.254 3.844
3115.299 3.504 3.194 2.724 2.404 2.204 1.994 1.834 1.614 1.534 1.434
3134.589 1.2275 1.0786 1.0215 1.0027 0.8787 0.7901 0.7981 0.8082 0.7629 0.6913
3153.879 0.6328 0.5998 0.6213 0.613 0.6235 0.7445 0.7042 0.4842 0.515 0.6467
3173.169 0.5906 0.5038 0.5473 0.5518 0.36762 0.2612 0.2834 0.37909 0.39284 0.4566
3192.458 0.5416 0.5041 0.4888 0.588 0.5297 0.39547 0.37886 0.39322 0.4929 0.5155
3211.748 0.45384 0.35888 0.2762 0.2806 0.2968 0.39343 0.4641 0.4945 0.5155 0.40096
3231.038 0.3252 0.3267 0.3327 0.3101 0.236 0.2801 0.36674 0.39479 0.43222 0.2777
3250.328 0.19 0.2848 0.3204 0.2811 0.357427 0.37613 0.2788 0.2733 0.2678 0.325
3269.617 0.3002 0.2826 0.4821 0.41078 0.2667 0.41066 0.43954 0.38381 0.3171 0.39961
3288.907 0.5203 0.5431 0.37116 0.207 0.2899 0.24 0.23 0.212 0.229 0.3373
3308.197 0.3331 0.34524 0.4008 0.36613 0.2739 0.2706 0.2781 0.245 0.213 0.3263
3327.487 0.38099 0.3085 0.37202 0.3288 0.3232 0.5289 0.5023 0.39256 0.41047 0.37271
3346.777 0.36447 0.3044 0.237 0.191 0.2547 0.37944 0.36696 0.314 0.3088 0.4313
3366.066 0.4683 0.39224 0.40832 0.37402 0.2714 0.36886 0.4676 0.42354 0.4641 0.44465
3385.356 0.3301 0.328 0.3913 0.44084 0.3252 0.166 0.171 0.214 0.2892 0.3093
3404.646 0.34469 0.355557 0.2761 0.2717 0.35097 0.43835 0.360077 0.358714 0.5048 0.43203
3423.936 0.2837 0.2643 0.36579 0.41737 0.3411 0.3681 0.41588 0.40491 0.41617 0.34
3443.225 0.37246 0.3318 0.192 0.239 0.3028 0.3289 0.37112 0.353496 0.3052 0.40202
3462.515 0.39312 0.2689 0.3049 0.41355 0.5684 0.5214 0.464 0.5562 0.5847 0.6863
3481.805 0.8553 0.8217 0.6789 0.8757 1.1243 1.2668 1.2483 1.2213 1.554 1.654
3501.095 1.634 1.694 1.614 1.504 1.3258 1.1603 1.0573 0.961 0.9002 0.865
3520.385 0.8739 0.9551 0.7892 0.7231 0.9567 1.0333 0.9775 0.9377 0.919 0.9087
3539.674 0.9856 1.099 1.0963 1.1006 1.0483 1.0086 1.3471 1.684 1.764 1.904
3558.964 2.354 2.904 3.524 4.424 5.894 8.114 11.254 15.904 22.604 32.024
3578.254 44.254 56.904 65.624 67.624 63.574 54.384 40.964 26.794 16.054 9.784
3597.544 6.654 4.894 3.514 2.704 2.024 1.684 1.504 1.2337 1.2206 1.2247
3616.833 1.1827 1.0942 1.025 0.9752 1.0932 1.1524 1.1043 1.048 0.8276 0.6418
3636.123 0.6183 0.6059 0.5822 0.5287 0.5205 0.5404 0.4666 0.6088 0.6866 0.6118
3655.413 0.5747 0.39478 0.464 0.5228 0.5332 0.589 0.37367 0.35253 0.4843 0.5109
3674.703 0.5045 0.476 0.5327 0.6132 0.5566 0.41242 0.34596 0.4706 0.5595 0.43658
3693.993 0.42082 0.4882 0.4658 0.494 0.45147 0.4732 0.4633 0.42457 0.44876 0.39325
3713.282 0.3097 0.2793 0.3197 0.2884 0.3082 0.40855 0.3129 0.2674 0.3112 0.199
3732.572 0.2907 0.3426 0.2895 0.331 0.223 0.125 0.1 0.207 0.2756 0.207
3751.862 0.214 0.2718 0.2542 0.25 0.196 0.188 0.245 0.127 0.154 0.2648
3771.152 0.2913 0.254 0.2613 0.39399 0.4887 0.5025 0.38431 0.222 0.201 0.176
3790.441 0.154 0.223 0.253 0.202 0.226 0.215 0.192 0.3413 0.3008 0.3132
3809.731 0.2996 0.2669 0.357759 0.2584 0.38098 0.5308 0.44664 0.3054 0.2627 0.191
3829.021 0.098 0.2728 0.3759 0.357977 0.353612 0.37336 0.3229 0.18 0.238 0.358803
3848.311 0.40182 0.3928 0.2815 0.2585 0.3009 0.195 0.145 0.212 0.156 0.153
3867.601 0.248 0.2955 0.3104 0.2765 0.2841 0.2554 0.141 0.244 0.3279 0.38779
3886.890 0.3787 0.158 0.167 0.176 0.12 0.154 0.177 0.28 0.219 0.105
3906.180 0.089 0.127 0.227 0.176 0.158 0.196 0.303 0.3314 0.2917 0.2943
3925.470 0.3076 0.243 0.166 0.172 0.233 0.39796 0.3401 0.224 0.189 0.22
3944.760 0.248 0.151 0.159 0.157 0.209 0.111 0.037 0.27 0.299 0.2834
3964.049 0.3105 0.183 0.152 0.251 0.213 0.132 0.09 0.131 0.126 0.04
3983.339 0 0.135 0.2554 0.213 0.175 0.114 0.112 0.2993 0.36457 0.247
##END=
