##TITLE=5-Methylfurfural
##JCAMP-DX=4.24
##DATA TYPE=INFRARED SPECTRUM
##ORIGIN=NIST Mass Spectrometry Data Center
##OWNER=NIST Standard Reference Data Program
Collection (C) 2018 copyright by the U.S. Secretary of Commerce
on behalf of the United States of America. All rights reserved.
##CAS REGISTRY NO=620-02-0
##MOLFORM=C 6 H 6 O 2
##$NIST SOURCE=MSDC-IR
##SPECTROMETER/DATA SYSTEM=HP-GC/MS/IRD
##STATE=gas
##XUNITS=1/CM
##YUNITS=ABSORBANCE
##XFACTOR=1.0
##YFACTOR=0.000006500
##DELTAX=4.0
##FIRSTX=550.0
##LASTX=3846.0
##FIRSTY=0.000169
##MAXX=3846
##MINX=550
##MAXY=0.065
##MINY=0
##NPOINTS=825
##XYDATA=(X++(Y..Y))
550.0 26 20 2 3 3 3 1 2 12 18
590.0 21 17 26 42 50 55 70 87 100 125
630.0 156 187 225 255 269 269 258 238 198 159
670.0 150 142 110 81 72 68 58 63 71 79
710.0 95 115 149 205 280 409 614 924 1349 1824
750.0 2273 2564 2709 2804 2729 2500 2186 1869 1887 2040
790.0 1913 1931 1691 1275 1089 881 670 474 327 230
830.0 169 135 123 116 114 113 113 111 114 115
870.0 106 97 98 100 101 109 116 116 118 119
910.0 120 128 144 162 188 231 286 347 416 478
950.0 554 632 666 677 673 678 704 744 814 920
990.0 1036 1146 1294 1492 1726 1963 2001 1793 1589 1501
1030.0 1285 890 566 374 264 197 154 130 116 108
1070.0 105 91 78 72 67 67 70 72 82 78
1110.0 66 66 60 62 61 58 60 61 61 62
1150.0 61 54 59 66 72 87 124 198 334 507
1190.0 694 975 1240 1307 1220 1152 1080 873 683 620
1230.0 590 568 579 570 495 418 379 376 396 414
1270.0 405 386 365 324 250 170 118 88 74 70
1310.0 71 74 81 92 107 130 167 221 285 345
1350.0 381 402 413 424 444 464 476 499 540 600
1390.0 643 630 581 538 509 455 386 335 309 299
1430.0 297 299 312 330 331 326 327 344 377 399
1470.0 409 427 465 528 632 801 1077 1539 2275 3347
1510.0 4667 5885 6712 7000 6770 6013 4766 3234 1892 1138
1550.0 815 680 617 592 597 627 682 739 765 757
1590.0 738 702 638 549 441 341 269 221 193 173
1630.0 167 164 163 171 192 226 284 357 450 576
1670.0 770 1074 1555 2312 3480 4990 6743 8456 9617 10000
1710.0 9708 8786 7191 5305 3563 2224 1417 1005 800 673
1750.0 579 505 449 397 348 303 265 232 192 154
1790.0 120 97 84 75 72 70 69 69 67 62
1830.0 58 55 52 47 43 44 49 56 68 77
1870.0 82 87 89 86 76 65 55 48 42 38
1910.0 35 35 34 34 36 40 39 37 40 42
1950.0 44 44 43 44 43 44 43 48 55 57
1990.0 56 56 54 49 45 42 38 39 42 42
2030.0 41 40 38 35 32 25 21 18 13 9
2070.0 7 6 5 3 2 1 0 0 2 3
2110.0 2 5 2 2 7 9 11 11 12 14
2150.0 19 23 27 33 36 37 44 50 51 52
2190.0 56 56 52 51 54 55 53 52 49 44
2230.0 38 34 31 30 31 30 29 29 30 29
2270.0 27 25 21 17 13 10 6 3 1 2
2310.0 5 5 6 9 12 14 14 20 20 15
2350.0 17 20 20 21 24 26 26 28 29 28
2390.0 28 30 34 37 39 42 43 43 42 42
2430.0 40 39 40 38 37 39 38 38 35 30
2470.0 32 31 32 35 34 31 29 27 25 22
2510.0 19 17 15 18 21 24 27 30 31 32
2550.0 29 28 27 28 27 25 23 25 27 31
2590.0 34 38 43 46 47 44 41 37 36 36
2630.0 30 31 32 31 32 32 35 43 51 59
2670.0 66 78 101 125 156 202 260 305 340 385
2710.0 428 455 473 492 512 530 539 541 536 529
2750.0 527 518 521 531 543 566 605 661 734 842
2790.0 1000 1202 1361 1392 1392 1447 1474 1390 1263 1130
2830.0 1001 951 928 825 670 528 429 367 333 312
2870.0 301 298 291 280 271 264 255 244 239 236
2910.0 234 238 252 288 362 459 530 547 545 547
2950.0 509 410 322 280 272 273 258 247 244 243
2990.0 243 247 241 222 213 199 175 144 115 98
3030.0 91 91 92 95 102 108 107 111 117 112
3070.0 107 109 109 108 107 106 99 90 89 87
3110.0 90 93 97 104 111 110 95 84 64 39
3150.0 27 26 25 26 25 24 23 24 25 20
3190.0 17 17 16 16 15 12 15 19 24 30
3230.0 30 27 26 26 23 18 15 17 14 10
3270.0 12 12 13 11 7 10 17 21 15 14
3310.0 12 11 13 13 12 7 6 14 16 22
3350.0 29 27 28 44 62 80 105 129 150 166
3390.0 175 174 169 149 120 96 81 70 57 48
3430.0 33 27 33 30 26 25 19 19 20 15
3470.0 8 7 9 10 9 5 6 5 3 2
3510.0 3 5 6 5 8 4 4 6 8 12
3550.0 10 7 0 3 11 9 10 16 11 6
3590.0 9 11 18 15 10 11 8 7 11 14
3630.0 13 17 15 9 12 15 15 13 11 7
3670.0 8 11 10 10 13 16 19 14 8 4
3710.0 1 8 10 6 11 10 5 7 6 2
3750.0 7 15 24 23 20 18 18 17 22 20
3790.0 17 22 21 19 18 14 14 16 14 14
3830.0 17 13 6 8 13
##END=
