##TITLE=3-Benzylpyridine
##JCAMP-DX=4.24
##DATA TYPE=INFRARED SPECTRUM
##ORIGIN=EPA-IR VAPOR PHASE LIBRARY
##OWNER=SRD/NIST
Collection (C) 2018 copyright by the U.S. Secretary of Commerce
on behalf of the United States of America. All rights reserved.
##CAS REGISTRY NO=620-95-1
##MOLFORM=C 12 H 11 N
##$NIST SOURCE=MSDC-IR
##STATE=gas
##XUNITS=1/CM
##YUNITS=ABSORBANCE
##XFACTOR=1.
##YFACTOR=0.001
##DELTAX=3.85796
##FIRSTX=551.7
##LASTX=4000.7
##FIRSTY=2.46
##MAXX=4000.7
##MINX=551.688
##MAXY=0.07546
##MINY=0.0001068
##NPOINTS=895
##XYDATA=(X++(Y..Y))
551.688 2.46 3.96 4.81 4.89 4.08 2.76 2 1.7 1.69 1.84
590.268 2.24 2.79 3.56 4.75 6.34 7.86 8.98 9.86 10.43 11.13
628.847 12.24 12.93 12.51 11.02 8.99 7.27 6.41 6.32 6.94 8.18
667.427 9.94 12.31 15.61 20.45 27.39 37.07 49.22 61.3 70.12 74.6
706.006 75.46 73.3 68.1 61.25 55.25 51.87 51.32 52.56 53.07 50.12
744.586 43.25 34.52 26.95 22.19 20.37 20.78 22.44 23.92 23.61 21.18
783.165 17.48 13.84 11.06 9.05 7.65 6.69 6.05 5.77 5.95 6.35
821.745 6.66 6.63 6.07 5.23 4.26 3.37 2.8 2.39 2.02 1.77
860.324 1.67 1.63 1.61 1.64 1.78 1.98 2.21 2.45 2.74 3.01
898.904 3.17 3.23 3.27 3.34 3.42 3.5 3.52 3.35 3.04 2.77
937.484 2.57 2.45 2.34 2.17 2.04 1.9 1.73 1.67 1.61 1.53
976.063 1.56 1.62 1.73 1.98 2.41 3.21 4.26 5.5 7.28 9.82
1014.643 14.13 20.63 26.44 28.62 25.84 19 11.87 7.14 4.92 4.05
1053.222 3.95 4.36 4.96 5.71 6.32 6.65 6.63 6.46 6.34 6.18
1091.802 6.38 6.55 6.49 6.37 6.2 6.13 6.17 6.22 6.09 5.75
1130.381 5.14 4.39 3.87 3.65 3.68 3.96 4.48 5.04 5.5 5.95
1168.961 6.41 6.93 7.83 9.13 10.61 11.82 12.26 11.56 10 8.18
1207.540 6.43 5.26 4.68 4.27 3.96 3.74 3.58 3.48 3.26 2.91
1246.120 2.53 2.19 2.03 1.93 1.89 1.99 2.18 2.36 2.56 2.83
1284.699 3.07 3.3 3.48 3.53 3.54 3.57 3.57 3.56 3.55 3.52
1323.279 3.49 3.52 3.56 3.55 3.48 3.37 3.25 3.11 3.01 3.01
1361.859 3.15 3.44 3.74 3.98 4.19 4.41 4.79 5.55 6.72 8.26
1400.438 10.25 13.03 17.24 24.01 33.53 41.9 44.92 42.29 34.62 27.06
1439.018 23.21 21.42 20.23 19.13 17.99 16.98 16.87 19.2 24.86 30.31
1477.597 31.72 29.65 25.36 24.51 27.36 27.44 23.79 16.55 8.96 5.48
1516.177 4.24 3.73 3.57 3.63 3.85 4.19 4.66 5.37 6.32 7.71
1554.756 9.66 12.25 15.29 18.15 20.2 20.78 20.04 18.38 16.7 15.84
1593.336 15.95 16.83 17.52 16.8 14.41 10.94 7.45 5.05 3.69 2.88
1631.915 2.46 2.26 2.19 2.16 2.17 2.2 2.19 2.13 1.99 1.84
1670.495 1.72 1.61 1.54 1.57 1.62 1.66 1.75 1.82 1.83 1.82
1709.075 1.85 1.95 2.08 2.18 2.24 2.26 2.25 2.24 2.25 2.25
1747.654 2.27 2.28 2.28 2.31 2.32 2.34 2.41 2.54 2.7 2.98
1786.234 3.41 3.96 4.34 4.29 3.88 3.31 2.78 2.44 2.22 2.06
1824.813 1.94 1.87 1.9 2 2.18 2.45 2.74 3.05 3.38 3.69
1863.393 3.98 4.2 4.28 4.28 4.23 4.24 4.44 4.81 5.17 5.21
1901.972 4.86 4.29 3.75 3.48 3.52 3.72 3.97 4.24 4.45 4.59
1940.552 4.72 4.92 5.04 4.9 4.4 3.56 2.59 1.79 1.33 1.07
1979.131 0.9308 0.8817 0.8279 0.7666 0.7074 0.6813 0.7051 0.7124 0.6826 0.6639
2017.711 0.6436 0.6257 0.6107 0.5939 0.5968 0.6269 0.6383 0.6422 0.6437 0.6239
2056.291 0.6204 0.6433 0.6537 0.6525 0.6769 0.6881 0.665 0.6355 0.6122 0.5536
2094.870 0.4953 0.4783 0.4848 0.5027 0.5062 0.502 0.5079 0.4931 0.4755 0.4819
2133.450 0.465 0.4517 0.44 0.4148 0.4254 0.4292 0.4245 0.449 0.4664 0.4744
2172.029 0.4998 0.5243 0.5147 0.5101 0.5297 0.5372 0.5404 0.5368 0.5567 0.6065
2210.609 0.6427 0.6787 0.6924 0.7011 0.7065 0.7115 0.7006 0.6908 0.7289 0.7499
2249.188 0.778 0.8036 0.7996 0.7826 0.7607 0.7118 0.6645 0.656 0.6318 0.5965
2287.768 0.5821 0.5958 0.6182 0.6516 0.7298 0.8486 0.9488 0.9954 1 0.9686
2326.347 0.9693 1 1.03 1.06 1.07 1.07 1.07 1.07 1.04 1.04
2364.927 1.01 0.9974 0.9655 0.8993 0.8841 0.8493 0.7972 0.7825 0.773 0.749
2403.507 0.7221 0.7097 0.6853 0.6839 0.696 0.6709 0.6526 0.6515 0.6414 0.6215
2442.086 0.6385 0.6621 0.6425 0.6389 0.6462 0.6595 0.6753 0.637 0.5908 0.5817
2480.666 0.5436 0.5259 0.508 0.4571 0.4764 0.509 0.5156 0.5245 0.5617 0.5739
2519.245 0.5612 0.5535 0.537 0.5141 0.49 0.459 0.4534 0.4532 0.4191 0.4151
2557.825 0.4155 0.3885 0.4003 0.4306 0.4677 0.5365 0.5679 0.6358 0.7347 0.8224
2596.404 0.8843 0.9156 0.956 0.9782 0.9677 0.9494 0.9289 0.9124 0.8963 0.8829
2634.984 0.8869 0.8299 0.7773 0.7479 0.6657 0.6072 0.5735 0.5448 0.5543 0.5285
2673.563 0.4898 0.4785 0.4623 0.4492 0.4459 0.4254 0.4083 0.4 0.4379 0.5077
2712.143 0.5441 0.5649 0.5705 0.6104 0.6986 0.7695 0.79 0.8097 0.843 0.8749
2750.722 0.9111 0.9133 0.9145 0.9226 0.9539 1.05 1.09 1.12 1.2 1.23
2789.302 1.27 1.35 1.4 1.46 1.52 1.61 1.72 1.86 2.06 2.3
2827.882 2.66 3.16 3.89 4.82 5.78 6.74 7.54 7.9 7.77 7.31
2866.461 6.65 6.01 5.5 5.22 5.27 5.68 6.48 7.6 9.07 10.96
2905.041 13.32 16.2 19.38 22.38 24.82 26.15 25.89 24.07 21.1 17.62
2943.620 14.21 11.27 9.01 7.39 6.34 5.86 5.79 6.16 7 8.22
2982.200 9.8 11.6 13.73 16.27 19.12 22.08 24.87 27.51 30.73 35.48
3020.779 42.58 52.05 61.86 68.27 68.96 64.38 57.75 53.87 54.02 55.32
3059.359 55.95 56.15 56.06 55.47 53.95 50.49 45.29 40.37 35.69 30.14
3097.938 24.22 19.15 15.25 12.17 9.74 7.71 5.97 4.67 3.75 3.22
3136.518 2.95 2.7 2.48 2.23 1.95 1.71 1.58 1.47 1.36 1.22
3175.098 1.05 0.9294 0.8108 0.6721 0.6411 0.5946 0.5386 0.5197 0.5147 0.5
3213.677 0.4766 0.4854 0.4447 0.3974 0.3945 0.393 0.3814 0.3685 0.3723 0.3505
3252.257 0.3189 0.3125 0.3079 0.3354 0.3221 0.2948 0.3051 0.2883 0.3441 0.3543
3290.836 0.3091 0.2985 0.2948 0.2866 0.2672 0.2493 0.2087 0.2151 0.2298 0.2113
3329.416 0.1776 0.1443 0.1777 0.2007 0.2093 0.2168 0.1758 0.122 0.1167 0.136
3367.995 0.1332 0.1533 0.1874 0.232 0.2377 0.2412 0.2097 0.2216 0.2059 0.1683
3406.575 0.2281 0.2253 0.2517 0.2212 0.2101 0.3001 0.2488 0.1946 0.1544 0.1373
3445.154 0.1861 0.205 0.2254 0.2072 0.1658 0.1788 0.2357 0.2103 0.1462 0.1174
3483.734 0.1586 0.1964 0.1444 0.1359 0.1794 0.1657 0.1142 0.1068 0.1521 0.1688
3522.314 0.1784 0.2529 0.2285 0.1764 0.1826 0.1765 0.151 0.124 0.2251 0.2756
3560.893 0.2211 0.199 0.1741 0.2238 0.2881 0.2726 0.2708 0.2417 0.1909 0.2389
3599.473 0.2953 0.3221 0.3181 0.3287 0.3729 0.4238 0.4395 0.4823 0.5615 0.5693
3638.052 0.5353 0.5483 0.641 0.6726 0.6788 0.6509 0.5474 0.5194 0.4966 0.4425
3676.632 0.4666 0.451 0.4642 0.5217 0.4926 0.4833 0.4914 0.5188 0.4877 0.4251
3715.211 0.439 0.4366 0.4068 0.3688 0.3586 0.345 0.3039 0.3631 0.3725 0.2974
3753.791 0.3218 0.3317 0.3287 0.3608 0.3456 0.2809 0.2636 0.3694 0.387 0.3016
3792.370 0.34 0.3718 0.3453 0.3902 0.4635 0.4483 0.3997 0.4744 0.5303 0.5159
3830.950 0.5004 0.4442 0.4868 0.5286 0.4952 0.4601 0.4804 0.5094 0.4581 0.4339
3869.530 0.4463 0.4649 0.5065 0.4582 0.4447 0.5102 0.5442 0.5555 0.4918 0.4509
3908.109 0.4815 0.485 0.4454 0.4578 0.4714 0.4601 0.389 0.386 0.382 0.3844
3946.689 0.3981 0.327 0.2839 0.3104 0.3463 0.3457 0.3422 0.304 0.3571 0.4016
3985.268 0.3359 0.3289 0.3583 0.407 0.4777
##END=
