##TITLE=Dibenzyl sulphone
##JCAMP-DX=4.24
##DATA TYPE=INFRARED SPECTRUM
##ORIGIN=EPA-IR VAPOR PHASE LIBRARY
##OWNER=SRD/NIST
Collection (C) 2018 copyright by the U.S. Secretary of Commerce
on behalf of the United States of America. All rights reserved.
##CAS REGISTRY NO=620-32-6
##MOLFORM=C 14 H 14 O 2 S
##$NIST SOURCE=MSDC-IR
##STATE=gas
##XUNITS=1/CM
##YUNITS=ABSORBANCE
##XFACTOR=1.
##YFACTOR=0.001
##DELTAX=1.92934
##FIRSTX=549.9
##LASTX=3999.5
##FIRSTY=0.3978
##MAXX=3999.53
##MINX=549.863
##MAXY=0.005339
##MINY=0
##NPOINTS=1789
##XYDATA=(X++(Y..Y))
549.863 0.3978 0.3878 0.3948 0.27471 0.2287 0.28928 0.32896 0.3615 0.3643 0.30564
569.156 0.28814 0.3784 0.3659 0.32623 0.32297 0.34397 0.3823 0.3605 0.3525 0.3867
588.450 0.4132 0.4753 0.5195 0.5284 0.6219 0.6448 0.5753 0.5143 0.4856 0.5074
607.743 0.5185 0.4835 0.4128 0.34333 0.355 0.374 0.3797 0.3829 0.3657 0.34237
627.037 0.33844 0.4046 0.3561 0.3525 0.4118 0.3511 0.385 0.4147 0.34035 0.34333
646.330 0.33978 0.31116 0.3493 0.3669 0.34826 0.31461 0.34527 0.3969 0.4184 0.4898
665.624 0.4842 0.4139 0.4937 0.6106 0.606 0.6195 0.708 0.7784 0.8368 0.8959
684.917 1.0143 1.299 1.619 1.959 2.339 2.599 2.669 2.539 2.299 1.929
704.210 1.569 1.319 1.1021 0.9132 0.8075 0.7597 0.663 0.5943 0.6627 0.6962
723.504 0.6541 0.6345 0.6213 0.6269 0.6358 0.6454 0.6583 0.592 0.5322 0.5319
742.797 0.5296 0.5661 0.5578 0.5509 0.6253 0.6949 0.7365 0.7533 0.8073 0.881
762.091 0.9432 0.9966 1.0284 1.0639 1.1082 1.1407 1.1202 1.071 1.0501 1.0188
781.384 0.9332 0.8715 0.8304 0.7776 0.7367 0.7178 0.7064 0.7089 0.6499 0.599
800.678 0.5398 0.5127 0.5611 0.5382 0.5164 0.5617 0.5782 0.5534 0.6099 0.6779
819.971 0.7452 0.7762 0.7487 0.7383 0.704 0.6512 0.6041 0.5472 0.5265 0.5006
839.264 0.4488 0.4735 0.4865 0.4755 0.5 0.4903 0.4834 0.5775 0.6523 0.6713
858.558 0.7646 0.9118 1.0022 1.0748 1.1408 1.1288 1.1244 1.0583 0.9453 0.8513
877.851 0.7803 0.6805 0.6089 0.6197 0.5599 0.5229 0.5157 0.4316 0.4288 0.4473
897.145 0.4213 0.4362 0.4763 0.4563 0.4439 0.4932 0.5561 0.5871 0.6477 0.7712
916.438 0.8214 0.8489 0.8523 0.7842 0.6787 0.5643 0.5009 0.469 0.4349 0.412
935.732 0.4168 0.3903 0.3537 0.31274 0.31145 0.32099 0.29273 0.32855 0.33872 0.30789
955.025 0.28626 0.29391 0.29487 0.30395 0.29438 0.30125 0.30486 0.28492 0.28155 0.252199
974.318 0.27078 0.28433 0.29016 0.29565 0.2854 0.29904 0.30378 0.29302 0.29381 0.29743
993.612 0.29488 0.2724 0.26833 0.28415 0.28753 0.27703 0.28431 0.29126 0.28616 0.30599
1012.905 0.31633 0.28807 0.255184 0.27885 0.30897 0.3691 0.4603 0.5004 0.5033 0.5255
1032.199 0.5408 0.5155 0.4621 0.4002 0.3711 0.34312 0.32376 0.30472 0.31012 0.32071
1051.492 0.3378 0.34239 0.3106 0.335 0.3789 0.4112 0.4317 0.4613 0.4538 0.4697
1070.786 0.514 0.4654 0.4375 0.4381 0.4175 0.4216 0.3979 0.3912 0.4117 0.3931
1090.079 0.3781 0.3539 0.3525 0.3846 0.395 0.3995 0.4604 0.5753 0.6117 0.681
1109.372 0.8612 1.0587 1.299 1.569 1.949 2.329 2.589 2.809 2.859 2.679
1128.666 2.399 2.079 1.819 1.559 1.369 1.369 1.389 1.359 1.489 1.689
1147.959 1.779 1.839 1.789 1.729 1.769 1.699 1.509 1.259 1.0551 0.9429
1167.253 0.8264 0.7233 0.6905 0.6603 0.5024 0.3631 0.3854 0.5269 0.6241 0.5302
1186.546 0.399 0.4473 0.5524 0.5182 0.3748 0.4637 0.6768 0.6865 0.7222 0.6474
1205.840 0.5719 0.6819 0.5193 0.30862 0.4464 0.556 0.5368 0.4166 0.1742 0.252474
1225.133 0.4347 0.5279 0.5753 0.5256 0.5778 0.5625 0.4957 0.5951 0.6109 0.5812
1244.426 0.6674 0.6603 0.6042 0.674 0.6998 0.6189 0.6384 0.7131 0.7163 0.6793
1263.720 0.6686 0.6292 0.5753 0.5587 0.5402 0.6069 0.5993 0.4758 0.4204 0.4233
1283.013 0.3956 0.3765 0.4076 0.3718 0.3632 0.4474 0.5056 0.4567 0.4269 0.4767
1302.307 0.5316 0.5142 0.5173 0.566 0.5625 0.5494 0.5282 0.5713 0.6385 0.6817
1321.600 0.7738 0.8955 1.0081 1.138 1.319 1.539 1.849 2.299 2.899 3.599
1340.894 4.359 4.969 5.319 5.339 4.969 4.299 3.519 2.709 2.009 1.439
1360.187 1.0423 0.7797 0.6251 0.5703 0.5245 0.4782 0.4519 0.4369 0.4257 0.4314
1379.480 0.4057 0.3836 0.393 0.4148 0.4346 0.4465 0.4598 0.4795 0.503 0.507
1398.774 0.5091 0.5378 0.5938 0.6394 0.6758 0.6914 0.7006 0.7072 0.667 0.6055
1418.067 0.5646 0.5008 0.4639 0.4765 0.4657 0.4345 0.4384 0.4459 0.4323 0.4042
1437.361 0.3907 0.4078 0.4161 0.4326 0.4898 0.5305 0.559 0.6315 0.6739 0.6817
1456.654 0.6527 0.6229 0.6022 0.5583 0.4792 0.4254 0.422 0.368 0.3516 0.3759
1475.948 0.4056 0.4423 0.4378 0.4758 0.5308 0.5761 0.6303 0.7072 0.825 0.9196
1495.241 0.9542 0.9544 0.9432 0.9007 0.786 0.6381 0.5596 0.5017 0.4365 0.3949
1514.534 0.3655 0.34109 0.31935 0.30778 0.27863 0.27302 0.31403 0.30878 0.28064 0.26912
1533.828 0.24625 0.27639 0.27131 0.2186 0.2153 0.2633 0.31223 0.30251 0.31447 0.29023
1553.121 0.24492 0.2271 0.249193 0.255808 0.24685 0.27945 0.30572 0.30889 0.2897 0.31628
1572.415 0.3541 0.352 0.33639 0.32443 0.32781 0.3548 0.3874 0.414 0.4075 0.4032
1591.708 0.41 0.4127 0.4398 0.4485 0.472 0.5294 0.5029 0.4579 0.4644 0.4593
1611.002 0.4462 0.4063 0.32983 0.30346 0.29948 0.27433 0.26721 0.27188 0.28886 0.26535
1630.295 0.24505 0.26949 0.24198 0.223 0.28068 0.30318 0.31238 0.30169 0.27101 0.26541
1649.588 0.2737 0.24601 0.1993 0.2215 0.28342 0.32091 0.28786 0.26765 0.25966 0.26396
1668.882 0.2791 0.2748 0.27676 0.27552 0.28331 0.3055 0.32416 0.27869 0.2141 0.248086
1688.175 0.29887 0.30076 0.32028 0.29703 0.24053 0.2348 0.225 0.24784 0.27206 0.29239
1707.469 0.29522 0.252251 0.24746 0.2771 0.27725 0.250214 0.256679 0.30383 0.32637 0.32282
1726.762 0.32882 0.30925 0.31177 0.33294 0.3113 0.28481 0.2613 0.26162 0.29385 0.318
1746.056 0.34095 0.33158 0.33626 0.34417 0.34157 0.34226 0.30548 0.30616 0.32889 0.33643
1765.349 0.31665 0.2916 0.32344 0.3411 0.3148 0.3074 0.31163 0.34322 0.34395 0.33046
1784.642 0.32715 0.34 0.3898 0.3643 0.34484 0.3624 0.3627 0.3774 0.3649 0.3811
1803.936 0.3869 0.3562 0.3629 0.3496 0.31065 0.307 0.32057 0.32557 0.33235 0.3673
1823.229 0.34046 0.26471 0.26755 0.30201 0.32538 0.30001 0.28862 0.2716 0.257612 0.28997
1842.523 0.28935 0.2983 0.3352 0.32 0.28963 0.32412 0.31917 0.28958 0.29797 0.30564
1861.816 0.30314 0.30672 0.31889 0.31465 0.30186 0.28477 0.30189 0.33695 0.3496 0.33389
1881.110 0.32225 0.3535 0.34772 0.3494 0.3546 0.31928 0.33357 0.3499 0.33076 0.33257
1900.403 0.3698 0.3692 0.3543 0.33728 0.32011 0.352 0.3587 0.33808 0.31017 0.30086
1919.696 0.30097 0.29456 0.28508 0.30427 0.33019 0.31753 0.30943 0.29716 0.33147 0.3666
1938.990 0.3589 0.3499 0.3694 0.3911 0.3829 0.3899 0.4024 0.3917 0.3555 0.34161
1958.283 0.34865 0.3586 0.34823 0.32799 0.30769 0.3021 0.29905 0.30844 0.34189 0.32382
1977.577 0.31215 0.29931 0.27077 0.28458 0.29747 0.30686 0.31819 0.29336 0.26677 0.26982
1996.870 0.29401 0.29004 0.2359 0.2371 0.27441 0.29217 0.28525 0.28814 0.29954 0.28709
2016.164 0.28251 0.29173 0.31885 0.31226 0.29414 0.31958 0.32432 0.29447 0.27695 0.29801
2035.457 0.30539 0.28057 0.29961 0.33531 0.33139 0.31002 0.29289 0.26419 0.24493 0.26883
2054.750 0.28279 0.26639 0.249926 0.254675 0.27037 0.28079 0.26285 0.26946 0.28272 0.256601
2074.044 0.26281 0.27016 0.27261 0.26838 0.28195 0.2816 0.26353 0.28171 0.29629 0.2981
2093.337 0.27923 0.251587 0.24668 0.26345 0.26918 0.257225 0.26269 0.27822 0.2904 0.31609
2112.631 0.31437 0.29481 0.30301 0.28129 0.251254 0.26549 0.26346 0.24553 0.254588 0.28585
2131.924 0.29631 0.29849 0.26726 0.2355 0.27127 0.27459 0.26164 0.27294 0.27579 0.27275
2151.218 0.29092 0.28025 0.26689 0.29515 0.30083 0.29777 0.28455 0.28358 0.28642 0.26654
2170.511 0.26413 0.2885 0.30483 0.28858 0.2711 0.26954 0.26188 0.257789 0.27319 0.29302
2189.804 0.29554 0.26488 0.26595 0.27787 0.26862 0.28737 0.28104 0.27149 0.28726 0.28869
2209.098 0.26901 0.27396 0.26931 0.26633 0.28161 0.2939 0.29417 0.258427 0.258527 0.2903
2228.391 0.29585 0.2974 0.30586 0.311 0.28108 0.26525 0.29769 0.30164 0.29176 0.29795
2247.685 0.29855 0.31062 0.31625 0.28879 0.28663 0.2775 0.27483 0.31154 0.30736 0.27517
2266.978 0.254418 0.256762 0.28318 0.28615 0.29866 0.29939 0.27941 0.27072 0.28084 0.29996
2286.272 0.30673 0.29616 0.28495 0.29105 0.28061 0.26623 0.2777 0.28721 0.26637 0.26197
2305.565 0.28237 0.29647 0.29552 0.30364 0.28665 0.27542 0.27914 0.25958 0.248946 0.24794
2324.858 0.27452 0.27522 0.2382 0.250258 0.2281 0.2164 0.2381 0.2098 0.1997 0.2356
2344.152 0.26658 0.258788 0.24457 0.2388 0.2343 0.1945 0.1721 0.1698 0.1875 0.2003
2363.445 0.1839 0.1829 0.1798 0.1843 0.1872 0.2109 0.2187 0.2163 0.24343 0.254612
2382.739 0.23928 0.26836 0.31273 0.26892 0.25494 0.30438 0.29772 0.26977 0.26385 0.26568
2402.032 0.28454 0.28857 0.29194 0.28331 0.26028 0.27432 0.2657 0.254927 0.30114 0.32811
2421.326 0.31367 0.30685 0.2919 0.257919 0.26269 0.27195 0.27532 0.28455 0.253327 0.24534
2440.619 0.27116 0.27588 0.26969 0.27245 0.2845 0.26834 0.27531 0.29806 0.30563 0.32688
2459.912 0.31929 0.29854 0.3014 0.3167 0.28902 0.2703 0.31419 0.31432 0.27685 0.28937
2479.206 0.29071 0.26147 0.29316 0.3193 0.29447 0.29237 0.27622 0.26758 0.258676 0.254157
2498.499 0.2748 0.26941 0.26722 0.28183 0.26884 0.252864 0.27227 0.28392 0.31204 0.27823
2517.793 0.24728 0.27762 0.26942 0.27016 0.27401 0.29188 0.30408 0.26808 0.251409 0.298
2537.086 0.28039 0.28338 0.31837 0.29397 0.30312 0.29885 0.26871 0.248822 0.249157 0.254692
2556.380 0.24743 0.27356 0.287 0.2421 0.2319 0.2773 0.27812 0.26149 0.27311 0.28503
2575.673 0.24716 0.2367 0.28592 0.26027 0.2362 0.26784 0.249823 0.2305 0.250995 0.252262
2594.966 0.27874 0.30109 0.29543 0.2874 0.28322 0.28721 0.26218 0.24508 0.254743 0.26303
2614.260 0.29917 0.27858 0.24633 0.26435 0.29818 0.30777 0.28494 0.27167 0.26298 0.248034
2633.553 0.2224 0.238 0.2719 0.28044 0.27444 0.28359 0.27089 0.24325 0.253668 0.27521
2652.847 0.250737 0.2244 0.26157 0.28392 0.26666 0.2607 0.26494 0.28851 0.31668 0.31147
2672.140 0.26111 0.23938 0.2316 0.1833 0.1722 0.1921 0.2331 0.2433 0.25991 0.27757
2691.434 0.29338 0.30716 0.28239 0.24364 0.24339 0.27146 0.24777 0.2068 0.1901 0.2278
2710.727 0.248313 0.27917 0.30251 0.29023 0.2794 0.29037 0.31493 0.27913 0.27342 0.31841
2730.020 0.3007 0.27591 0.29896 0.32123 0.28686 0.28113 0.2798 0.2379 0.204 0.188
2749.314 0.26656 0.29166 0.2385 0.2172 0.2118 0.2018 0.2354 0.28951 0.32635 0.3209
2768.607 0.27318 0.213 0.2175 0.269 0.28965 0.27829 0.26182 0.29553 0.28447 0.26242
2787.901 0.27549 0.26896 0.27081 0.29642 0.27369 0.2079 0.2019 0.2256 0.1933 0.1825
2807.194 0.219 0.225 0.2185 0.2169 0.2113 0.2136 0.2164 0.28886 0.33496 0.2804
2826.488 0.2326 0.1989 0.1961 0.2064 0.1805 0.1692 0.1923 0.2163 0.2219 0.2119
2845.781 0.2274 0.2276 0.2365 0.250095 0.2743 0.24611 0.24263 0.31208 0.27433 0.2149
2865.074 0.24399 0.24099 0.1921 0.2124 0.2343 0.2311 0.24682 0.27189 0.30059 0.29529
2884.368 0.2388 0.2256 0.28045 0.28735 0.27661 0.33209 0.31677 0.27549 0.2356 0.2015
2903.661 0.22 0.1959 0.2022 0.229 0.2023 0.2202 0.257583 0.26687 0.28239 0.33548
2922.955 0.3943 0.3577 0.3632 0.4384 0.4441 0.4417 0.4828 0.4572 0.3628 0.32845
2942.248 0.3223 0.28952 0.33794 0.3809 0.33944 0.30895 0.26694 0.2076 0.2219 0.26443
2961.542 0.176 0.1759 0.28406 0.3531 0.34525 0.30219 0.31704 0.3156 0.29575 0.28671
2980.835 0.27771 0.2316 0.2176 0.30336 0.33812 0.31265 0.23962 0.24375 0.30287 0.34633
3000.128 0.3698 0.27852 0.2278 0.33265 0.4341 0.4252 0.414 0.3689 0.3813 0.457
3019.422 0.4597 0.4649 0.596 0.6958 0.7219 0.7964 0.8256 0.7929 0.9062 0.9648
3038.715 1.0022 1.0861 1.0523 0.994 0.8368 0.7559 0.7385 0.6416 0.624 0.6878
3058.009 0.7323 0.7655 0.8042 0.8919 1.029 1.0994 1.1526 1.259 1.289 1.236
3077.302 1.2186 1.148 1.0017 0.8741 0.8412 0.8204 0.7524 0.7517 0.8144 0.7261
3096.596 0.5862 0.5275 0.5098 0.534 0.4736 0.5242 0.5677 0.5216 0.4359 0.31144
3115.889 0.27953 0.32571 0.28339 0.232 0.29016 0.23952 0.1914 0.1915 0.1871 0.1616
3135.182 0.2143 0.24698 0.1584 0.1807 0.26261 0.1911 0.1566 0.24745 0.28474 0.256833
3154.476 0.1836 0.1717 0.138 0.113 0.1962 0.2122 0.26712 0.32116 0.2373 0.2008
3173.769 0.1577 0.139 0.1605 0.1652 0.2101 0.2223 0.2159 0.249731 0.215 0.13
3193.063 0.2116 0.29484 0.1999 0.2115 0.26127 0.24425 0.2257 0.2166 0.31498 0.30935
3212.356 0.1868 0.147 0.146 0.1601 0.138 0.224 0.2019 0.109 0.1964 0.143
3231.650 0.082 0.131 0.1661 0.099 0.009 0.028 0.124 0.27371 0.29607 0.2155
3250.943 0.128 0.122 0.144 0.2215 0.2195 0.102 0.083 0.113 0.122 0.1981
3270.236 0.28756 0.1904 0.147 0.2206 0.1782 0.1523 0.158 0.117 0.1818 0.1576
3289.530 0.1496 0.1785 0.1 0.098 0.121 0.052 0.093 0.2046 0.144 0.1674
3308.823 0.248539 0.28102 0.27027 0.2208 0.2115 0.2356 0.2061 0.1724 0.1865 0.134
3328.117 0.108 0.1748 0.1959 0.1914 0.1793 0.1856 0.2027 0.1881 0.2146 0.1594
3347.410 0.045 0.113 0.26502 0.2345 0.24035 0.226 0.1631 0.1 0 0.029
3366.704 0.113 0.127 0.139 0.2614 0.27256 0.1997 0.1679 0.1568 0.099 0.103
3385.997 0.1996 0.1765 0.1854 0.27907 0.26329 0.1893 0.24178 0.301 0.31304 0.26031
3405.290 0.2135 0.28307 0.32129 0.2061 0.116 0.1815 0.2018 0.1923 0.13 0.135
3424.584 0.2233 0.24316 0.27538 0.31045 0.31228 0.24655 0.2343 0.27695 0.2128 0.158
3443.877 0.189 0.1641 0.12 0.134 0.1881 0.1696 0.1753 0.24294 0.235 0.1514
3463.171 0.095 0.08 0.095 0.1579 0.1826 0.173 0.091 0.011 0.065 0.1717
3482.464 0.114 0.045 0.136 0.173 0.2216 0.251835 0.2027 0.1706 0.126 0.1755
3501.758 0.27989 0.29092 0.2322 0.2105 0.2113 0.1878 0.1677 0.091 0.086 0.256663
3521.051 0.2374 0.1654 0.26274 0.1679 0.122 0.1668 0.121 0.085 0.1564 0.252276
3540.344 0.1976 0.189 0.2468 0.25158 0.31414 0.2194 0.125 0.24564 0.2346 0.2147
3559.638 0.2064 0.144 0.1822 0.1 0.029 0.121 0.126 0.1772 0.2035 0.133
3578.931 0.104 0.124 0.1511 0.1932 0.2607 0.28351 0.29201 0.251072 0.2059 0.2112
3598.225 0.193 0.142 0.1498 0.1798 0.139 0.144 0.113 0.125 0.2404 0.26048
3617.518 0.139 0.051 0.131 0.2126 0.1947 0.1939 0.2349 0.2255 0.2234 0.2088
3636.812 0.1774 0.1785 0.114 0.101 0.1856 0.1639 0.113 0.13 0.099 0.107
3656.105 0.12 0.141 0.148 0.1846 0.29929 0.26347 0.1699 0.139 0.114 0.1721
3675.398 0.1493 0.1861 0.26223 0.1721 0.1909 0.2068 0.1886 0.141 0.075 0.095
3694.692 0.133 0.1812 0.2083 0.1631 0.175 0.2356 0.1852 0.2047 0.237 0.15
3713.985 0.117 0.1969 0.2243 0.1728 0.139 0.121 0.106 0.148 0.193 0.134
3733.279 0.1497 0.133 0.123 0.1626 0.1961 0.217 0.2093 0.2233 0.2132 0.2374
3752.572 0.1554 0.072 0.142 0.2145 0.29954 0.31417 0.255634 0.2357 0.2115 0.1884
3771.866 0.2325 0.2311 0.2073 0.2086 0.1576 0.2265 0.26258 0.2087 0.2076 0.2062
3791.159 0.2054 0.137 0.1593 0.2316 0.14 0.113 0.1645 0.2279 0.2361 0.1901
3810.452 0.2384 0.2109 0.14 0.14 0.131 0.146 0.1552 0.1785 0.26724 0.251586
3829.746 0.2312 0.3117 0.2222 0.1501 0.2055 0.1828 0.219 0.251183 0.129 0.095
3849.039 0.125 0.061 0.134 0.250786 0.213 0.1857 0.1816 0.1615 0.113 0.09
3868.333 0.091 0.039 0.145 0.2186 0.1676 0.2159 0.1903 0.101 0.103 0.173
3887.626 0.2035 0.1916 0.2315 0.26963 0.30837 0.3317 0.257267 0.24714 0.33091 0.26418
3906.920 0.2233 0.252596 0.252019 0.33728 0.32893 0.2212 0.1735 0.084 0.067 0.136
3926.213 0.223 0.2177 0.1819 0.1781 0.1688 0.2353 0.24741 0.1866 0.126 0.1548
3945.506 0.1662 0.141 0.1904 0.1832 0.1841 0.2113 0.26829 0.28774 0.24414 0.251642
3964.800 0.2115 0.1701 0.2205 0.24658 0.2336 0.1793 0.14 0.1753 0.1914 0.1699
3984.093 0.1812 0.26964 0.29052 0.24605 0.26604 0.24623 0.1514 0.149 0.1862
##END=
