##TITLE=4,4-Dihydroxydiphenylmethane
##JCAMP-DX=4.24
##DATA TYPE=INFRARED SPECTRUM
##ORIGIN=NIST Mass Spectrometry Data Center
##OWNER=NIST Standard Reference Data Program
Collection (C) 2018 copyright by the U.S. Secretary of Commerce
on behalf of the United States of America. All rights reserved.
##CAS REGISTRY NO=620-92-8
##MOLFORM=C 13 H 12 O 2
##$NIST SOURCE=MSDC-IR
##SPECTROMETER/DATA SYSTEM=HP-GC/MS/IRD
##STATE=gas
##XUNITS=1/CM
##YUNITS=ABSORBANCE
##XFACTOR=1.0
##YFACTOR=0.000002800
##DELTAX=4.0
##FIRSTX=550.0
##LASTX=3846.0
##FIRSTY=0.000949
##MAXX=3846
##MINX=550
##MAXY=0.028
##MINY=0
##NPOINTS=825
##XYDATA=(X++(Y..Y))
550.0 339 448 637 910 1070 1026 904 673 399 224
590.0 109 58 44 20 7 26 40 42 36 28
630.0 27 36 71 83 64 36 6 10 5 4
670.0 45 58 32 23 18 35 49 29 41 52
710.0 54 66 63 55 60 71 74 94 131 173
750.0 228 311 427 595 800 938 950 887 825 844
790.0 959 1161 1426 1656 1836 1977 2088 2188 2202 2103
830.0 1935 1685 1390 1189 1062 902 682 461 328 269
870.0 224 196 178 160 141 141 153 151 154 139
910.0 131 126 106 90 84 91 85 78 84 72
950.0 56 53 55 63 56 53 61 66 69 75
990.0 92 109 120 142 204 297 329 269 172 114
1030.0 110 125 133 137 146 159 177 199 221 247
1070.0 284 343 429 533 687 875 1004 1035 981 895
1110.0 835 797 771 766 767 793 845 977 1212 1612
1150.0 2228 3186 4696 6942 9097 10000 9565 8529 7583 6501
1190.0 5288 4223 3361 2688 2170 1792 1546 1421 1373 1367
1230.0 1414 1574 1953 2761 4213 5907 6743 6008 4175 2522
1270.0 1619 1135 844 670 573 530 514 520 555 617
1310.0 712 851 1047 1318 1628 1791 1677 1339 954 656
1350.0 462 346 274 222 188 166 154 150 138 124
1390.0 121 124 144 180 226 295 398 553 768 999
1430.0 1184 1253 1180 1007 784 588 441 340 295 282
1470.0 290 323 397 534 761 1144 1811 2999 4905 7202
1510.0 8662 8153 6048 3750 2230 1413 954 678 528 451
1550.0 402 372 350 352 381 422 493 600 748 958
1590.0 1212 1460 1639 1760 1885 2026 2027 1768 1349 934
1630.0 635 451 349 305 296 294 278 245 196 159
1670.0 129 109 96 81 65 63 60 51 51 63
1710.0 71 71 76 93 107 110 116 127 130 129
1750.0 125 123 114 98 76 59 49 36 27 27
1790.0 29 25 28 25 22 30 36 40 41 43
1830.0 52 59 68 76 87 108 126 132 146 156
1870.0 154 152 145 138 132 119 106 95 81 68
1910.0 60 44 33 37 36 37 37 39 42 42
1950.0 41 39 34 30 27 27 31 28 31 35
1990.0 34 38 48 56 62 70 69 70 75 73
2030.0 71 60 48 39 35 31 31 33 30 36
2070.0 37 39 49 54 55 54 52 51 52 46
2110.0 37 34 28 16 10 8 6 12 17 12
2150.0 5 4 6 0 1 6 5 6 6 9
2190.0 11 7 8 10 1 3 10 9 7 13
2230.0 18 16 12 12 15 21 27 26 24 31
2270.0 39 36 36 40 37 31 29 32 29 23
2310.0 26 32 38 42 49 53 56 66 70 66
2350.0 59 53 51 50 48 39 32 36 41 42
2390.0 40 46 51 59 75 90 106 127 140 145
2430.0 144 130 112 96 82 70 63 56 54 51
2470.0 45 44 43 43 47 56 63 67 72 68
2510.0 65 61 50 46 38 25 16 11 18 12
2550.0 5 8 13 20 21 19 18 19 22 25
2590.0 32 39 47 42 38 37 36 31 29 30
2630.0 31 36 33 29 31 25 30 35 22 19
2670.0 26 25 19 20 26 30 33 34 28 22
2710.0 22 21 23 24 21 22 26 31 32 35
2750.0 43 50 56 56 41 32 29 27 24 21
2790.0 22 18 14 16 19 27 32 44 52 54
2830.0 72 102 137 186 236 268 281 277 245 214
2870.0 185 163 159 162 164 174 208 266 347 462
2910.0 601 734 824 843 779 658 521 394 297 232
2950.0 182 147 128 108 93 90 89 103 129 164
2990.0 217 302 430 604 836 1086 1274 1350 1354 1373
3030.0 1411 1402 1312 1151 970 836 757 709 675 646
3070.0 602 544 468 394 329 275 245 222 208 198
3110.0 188 173 155 141 133 118 102 84 58 47
3150.0 41 27 19 21 20 17 19 18 14 23
3190.0 28 26 22 19 19 16 12 12 15 19
3230.0 18 11 12 22 23 13 13 15 16 15
3270.0 3 0 9 10 6 2 6 16 11 10
3310.0 13 10 2 3 9 21 26 28 30 37
3350.0 45 54 63 64 66 62 61 57 58 58
3390.0 55 55 49 45 47 45 46 46 48 52
3430.0 41 40 40 41 45 44 38 34 31 28
3470.0 27 28 25 24 28 34 35 32 27 24
3510.0 23 21 27 28 31 34 22 26 26 11
3550.0 23 31 37 42 30 21 16 22 35 45
3590.0 55 70 85 96 108 126 148 181 262 368
3630.0 545 856 1384 2290 3646 4818 4837 3645 2091 1090
3670.0 623 373 260 195 146 114 97 83 64 50
3710.0 32 24 25 10 11 20 12 13 12 19
3750.0 27 24 31 30 29 24 25 33 34 31
3790.0 34 42 39 35 37 46 52 49 47 48
3830.0 49 49 50 49 42
##END=
