##TITLE=3-(3-Hydroxyphenyl)propionic acid
##JCAMP-DX=4.24
##DATA TYPE=INFRARED SPECTRUM
##ORIGIN=EPA-IR VAPOR PHASE LIBRARY
##OWNER=SRD/NIST
Collection (C) 2018 copyright by the U.S. Secretary of Commerce
on behalf of the United States of America. All rights reserved.
##CAS REGISTRY NO=621-54-5
##MOLFORM=C 9 H 10 O 3
##$NIST SOURCE=MSDC-IR
##STATE=gas
##XUNITS=1/CM
##YUNITS=ABSORBANCE
##XFACTOR=1.
##YFACTOR=0.001
##DELTAX=1.92934
##FIRSTX=549.9
##LASTX=3999.5
##FIRSTY=14.8
##MAXX=3999.53
##MINX=549.863
##MAXY=0.06985
##MINY=0
##NPOINTS=1789
##XYDATA=(X++(Y..Y))
549.863 14.8 15.03 15.39 15.65 15.71 15.51 15.16 14.91 14.71 14.47
569.156 14.17 13.95 13.78 13.68 13.63 13.63 13.64 13.72 13.71 13.65
588.450 13.6 13.41 13.19 12.97 12.66 12.29 11.94 11.61 11.3 10.99
607.743 10.67 10.48 10.38 10.33 10.37 10.5 10.69 10.85 11.15 11.45
627.037 11.6 11.73 11.87 11.92 11.87 11.82 11.62 11.3 10.91 10.43
646.330 10.01 9.52 8.93 8.48 8.13 7.77 7.48 7.25 7.21 7.22
665.624 7.24 7.49 7.83 8.2 8.69 9.32 10.17 11.09 12.12 13.25
684.917 14.42 15.51 16.28 16.36 15.74 14.64 13.31 11.95 10.51 9.13
704.210 7.99 6.99 6.19 5.6 5.18 4.93 4.75 4.6 4.59 4.54
723.504 4.47 4.43 4.4 4.37 4.34 4.33 4.32 4.33 4.33 4.36
742.797 4.5 4.65 4.81 5.04 5.31 5.63 6.03 6.5 7.03 7.64
762.091 8.35 9.08 9.79 10.51 11.14 11.61 11.9 12 11.9 11.64
781.384 11.15 10.44 9.66 8.88 8.14 7.49 6.84 6.24 5.73 5.28
800.678 4.89 4.48 4.11 3.84 3.53 3.28 3.08 2.93 2.87 2.7598
819.971 2.7001 2.7158 2.7377 2.85 3.02 3.16 3.28 3.45 3.7 3.93
839.264 4.26 4.55 4.73 4.88 4.93 4.96 5.01 5.08 5.17 5.27
858.558 5.33 5.36 5.49 5.62 5.69 5.76 5.83 5.86 5.88 5.94
877.851 6.02 6.09 6.28 6.56 6.89 7.33 7.84 8.35 8.81 9.14
897.145 9.25 9.14 8.86 8.43 7.85 7.19 6.53 5.92 5.45 5.15
916.438 4.96 4.89 4.86 4.88 4.99 5.12 5.36 5.63 5.95 6.33
935.732 6.65 6.93 7.13 7.21 7.25 7.17 6.99 6.7 6.36 6.07
955.025 5.83 5.63 5.51 5.44 5.39 5.38 5.41 5.48 5.5 5.52
974.318 5.55 5.59 5.62 5.66 5.69 5.72 5.79 5.89 6.09 6.38
993.612 6.68 6.91 7.02 7.06 7.17 7.25 7.22 7.07 6.9 6.8
1012.905 6.77 6.8 6.89 7.01 7.17 7.33 7.46 7.55 7.62 7.66
1032.199 7.62 7.5 7.38 7.24 7.1 6.93 6.79 6.72 6.67 6.67
1051.492 6.75 6.94 7.19 7.49 7.9 8.36 8.91 9.59 10.33 11.12
1070.786 11.96 12.88 13.76 14.59 15.4 16.14 16.79 17.28 17.74 18.26
1090.079 18.88 19.64 20.6 21.88 23.55 25.69 28.34 31.53 35.27 39.51
1109.372 44.15 49.02 53.75 57.91 61.09 63.02 63.64 62.94 60.99 58.06
1128.666 54.54 50.95 47.79 45.42 43.92 43.27 43.41 44.11 45.16 46.2
1147.959 46.92 47.26 47.14 46.39 44.86 42.59 39.98 37.42 35.08 33.11
1167.253 31.66 30.75 30.38 30.41 30.71 31.21 31.88 32.7 33.53 34.28
1186.546 34.92 35.44 35.84 36.04 35.9 35.37 34.46 33.21 31.69 29.88
1205.840 27.84 25.78 23.8 21.97 20.33 18.88 17.62 16.51 15.54 14.75
1225.133 14.11 13.56 13.12 12.74 12.46 12.32 12.26 12.33 12.51 12.74
1244.426 13.11 13.64 14.26 14.97 15.83 16.78 17.82 18.96 20.11 21.29
1263.720 22.42 23.44 24.35 25.03 25.39 25.43 25.22 24.69 23.88 22.8
1283.013 21.54 20.2 18.86 17.67 16.64 15.81 15.19 14.76 14.5 14.35
1302.307 14.26 14.27 14.3 14.35 14.4 14.35 14.2 14.01 13.74 13.4
1321.600 13 12.53 12.04 11.54 11.05 10.61 10.24 9.9 9.64 9.45
1340.894 9.28 9.18 9.09 9.08 9.11 9.16 9.28 9.45 9.67 9.95
1360.187 10.28 10.64 11 11.34 11.72 12.1 12.46 12.79 13.04 13.22
1379.480 13.27 13.22 12.96 12.58 12.08 11.38 10.64 9.92 9.17 8.51
1398.774 7.96 7.5 7.13 6.81 6.57 6.42 6.35 6.32 6.37 6.56
1418.067 6.8 7.04 7.31 7.67 8.08 8.5 8.96 9.44 10 10.62
1437.361 11.38 12.19 13.16 14.23 15.28 16.29 17.07 17.58 17.8 17.72
1456.654 17.37 16.65 15.69 14.67 13.68 12.79 12.14 11.7 11.41 11.26
1475.948 11.27 11.47 11.81 12.23 12.7 13.11 13.35 13.31 13.02 12.6
1495.241 12 11.13 10.09 9 8.05 7.27 6.53 5.85 5.33 4.87
1514.534 4.57 4.41 4.29 4.24 4.17 4.09 4.04 3.95 3.9 3.85
1533.828 3.77 3.7 3.63 3.64 3.62 3.57 3.61 3.69 3.81 3.93
1553.121 4.09 4.32 4.63 5.01 5.28 5.64 6.17 6.78 7.58 8.55
1572.415 9.63 10.96 12.58 14.3 16.11 18.16 20.26 22.24 24.04 25.56
1591.708 26.78 27.68 28.24 28.53 28.48 28.12 27.66 27.17 26.55 25.83
1611.002 24.92 23.77 22.4 20.75 18.96 17.08 15.12 13.19 11.39 9.75
1630.295 8.3 7.07 6.05 5.2 4.51 3.94 3.55 3.27 3.04 2.87
1649.588 2.7072 2.6805 2.643 2.4901 2.4019 2.3597 2.3377 2.3369 2.3329 2.344
1668.882 2.3866 2.3982 2.3935 2.5073 2.563 2.6025 2.6994 2.7435 2.82 2.87
1688.175 2.93 3.04 3.1 3.19 3.26 3.33 3.52 3.62 3.76 3.99
1707.469 4.19 4.45 4.72 5.06 5.47 5.91 6.36 6.83 7.41 8.06
1726.762 8.75 9.54 10.39 11.31 12.42 13.51 14.69 16.03 17.37 18.83
1746.056 20.37 22.01 23.85 25.95 28.21 30.78 33.75 36.99 40.71 44.81
1765.349 49.15 53.75 58.26 62.31 65.83 68.35 69.7 69.85 68.72 66.29
1784.642 62.68 58.26 53.47 48.54 43.65 39.05 34.95 31.31 28.15 25.35
1803.936 22.9 20.75 18.78 16.97 15.31 13.75 12.36 11.1 9.92 8.85
1823.229 7.96 7.19 6.53 5.99 5.5 5.06 4.72 4.39 4.12 3.89
1842.523 3.68 3.45 3.24 3.08 2.91 2.7597 2.6059 2.473 2.3912 2.3182
1861.816 2.256 2.206 2.1504 2.1066 2.0815 2.0475 2.0316 2.02 2.0013 1.9527
1881.110 1.9181 1.9428 1.949 1.9534 1.9729 1.9896 2.0112 2.0288 2.0458 2.092
1900.403 2.1271 2.1411 2.1652 2.2048 2.2348 2.2609 2.2707 2.2549 2.2767 2.2987
1919.696 2.2446 2.1855 2.1247 2.0233 1.9542 1.89015 1.82394 1.7351 1.647 1.607
1938.990 1.558 1.524 1.491 1.431 1.405 1.407 1.412 1.397 1.381 1.395
1958.283 1.397 1.406 1.394 1.396 1.412 1.404 1.393 1.396 1.4 1.377
1977.577 1.381 1.392 1.398 1.399 1.387 1.398 1.41 1.402 1.418 1.414
1996.870 1.408 1.438 1.421 1.393 1.406 1.41 1.395 1.377 1.372 1.374
2016.164 1.362 1.357 1.325 1.312 1.343 1.343 1.314 1.291 1.307 1.328
2035.457 1.295 1.27 1.31 1.341 1.321 1.284 1.296 1.333 1.338 1.338
2054.750 1.333 1.327 1.328 1.296 1.267 1.262 1.244 1.238 1.25 1.252
2074.044 1.231 1.223 1.232 1.238 1.233 1.223 1.223 1.23 1.231 1.241
2093.337 1.247 1.222 1.226 1.255 1.257 1.251 1.23 1.219 1.22 1.228
2112.631 1.248 1.246 1.261 1.26 1.229 1.215 1.229 1.262 1.251 1.265
2131.924 1.271 1.256 1.281 1.261 1.255 1.269 1.269 1.294 1.317 1.328
2151.218 1.309 1.303 1.328 1.327 1.321 1.326 1.31 1.297 1.305 1.319
2170.511 1.349 1.342 1.316 1.333 1.324 1.298 1.302 1.301 1.281 1.294
2189.804 1.301 1.318 1.315 1.274 1.287 1.298 1.33 1.338 1.34 1.368
2209.098 1.353 1.35 1.348 1.349 1.352 1.364 1.376 1.355 1.346 1.347
2228.391 1.364 1.377 1.37 1.38 1.361 1.338 1.36 1.368 1.359 1.335
2247.685 1.309 1.294 1.285 1.287 1.302 1.292 1.277 1.273 1.244 1.214
2266.978 1.19 1.221 1.23 1.206 1.21 1.205 1.205 1.198 1.187 1.192
2286.272 1.199 1.218 1.249 1.236 1.209 1.196 1.221 1.279 1.296 1.295
2305.565 1.305 1.343 1.379 1.387 1.41 1.456 1.466 1.495 1.531 1.533
2324.858 1.524 1.516 1.542 1.564 1.558 1.554 1.553 1.532 1.533 1.543
2344.152 1.516 1.472 1.476 1.497 1.491 1.508 1.531 1.553 1.576 1.55
2363.445 1.512 1.478 1.474 1.463 1.432 1.436 1.429 1.392 1.372 1.37
2382.739 1.37 1.348 1.34 1.355 1.352 1.33 1.336 1.34 1.34 1.385
2402.032 1.408 1.417 1.4 1.364 1.377 1.395 1.394 1.41 1.438 1.455
2421.326 1.438 1.435 1.402 1.377 1.4 1.423 1.411 1.369 1.368 1.359
2440.619 1.343 1.365 1.391 1.396 1.405 1.402 1.399 1.423 1.43 1.42
2459.912 1.41 1.394 1.4 1.377 1.379 1.408 1.39 1.364 1.361 1.332
2479.206 1.281 1.305 1.301 1.225 1.221 1.228 1.222 1.198 1.174 1.178
2498.499 1.184 1.185 1.153 1.139 1.132 1.134 1.124 1.093 1.094 1.1
2517.793 1.1 1.084 1.057 1.051 1.027 1.036 1.049 1.009 1.015 1.015
2537.086 1.008 1.016 0.992 1 1.014 1.014 1.033 1.039 1.053 1.038
2556.380 1.029 1.061 1.044 0.989 0.98 1.003 0.979 0.938 0.927 0.93
2575.673 0.919 0.925 0.962 0.991 0.985 0.967 0.914 0.896 0.904 0.931
2594.966 0.957 0.954 0.946 0.938 0.966 0.953 0.944 0.949 0.936 0.926
2614.260 0.928 0.958 0.978 0.985 0.961 0.918 0.936 0.955 0.94 0.945
2633.553 0.929 0.887 0.877 0.901 0.928 0.898 0.88 0.901 0.897 0.908
2652.847 0.904 0.901 0.923 0.918 0.905 0.855 0.802 0.83 0.874 0.856
2672.140 0.845 0.86 0.858 0.833 0.841 0.862 0.854 0.823 0.8 0.79
2691.434 0.8 0.78 0.79 0.838 0.8 0.76 0.76 0.79 0.816 0.79
2710.727 0.78 0.79 0.81 0.802 0.78 0.77 0.78 0.811 0.859 0.848
2730.020 0.8 0.75 0.77 0.833 0.859 0.857 0.814 0.816 0.853 0.817
2749.314 0.77 0.8 0.824 0.821 0.79 0.801 0.801 0.79 0.79 0.78
2768.607 0.79 0.815 0.835 0.826 0.807 0.802 0.79 0.803 0.852 0.845
2787.901 0.79 0.75 0.77 0.79 0.803 0.78 0.69 0.64 0.67 0.71
2807.194 0.73 0.79 0.78 0.72 0.72 0.76 0.8 0.823 0.77 0.71
2826.488 0.7 0.74 0.852 0.907 0.904 0.943 1.029 1.111 1.131 1.173
2845.781 1.187 1.196 1.246 1.324 1.389 1.451 1.569 1.621 1.7215 1.86781
2865.074 1.9393 2.0899 2.245 2.2996 2.3924 2.4422 2.3918 2.3244 2.3029 2.3077
2884.368 2.2807 2.269 2.241 2.1588 2.0667 2.0833 2.1317 2.159 2.2009 2.2834
2903.661 2.3845 2.4661 2.5783 2.7813 3 3.21 3.51 3.76 4.04 4.43
2922.955 4.93 5.41 5.74 6.08 6.45 6.81 7.11 7.36 7.53 7.58
2942.248 7.59 7.48 7.3 7.09 6.78 6.49 6.3 6.14 5.97 5.82
2961.542 5.81 5.8 5.62 5.41 5.22 5.03 4.88 4.63 4.49 4.34
2980.835 4.11 3.93 3.76 3.71 3.55 3.35 3.23 3.18 3.18 3.13
3000.128 3.14 3.22 3.28 3.41 3.64 3.85 4.01 4.17 4.41 4.61
3019.422 4.81 4.98 5.05 5.26 5.48 5.69 5.99 6.41 6.85 7.28
3038.715 7.78 8.08 8.26 8.28 8.05 7.82 7.57 7.14 6.75 6.42
3058.009 6.14 5.95 5.68 5.46 5.32 5.11 4.9 4.73 4.66 4.57
3077.302 4.36 4.16 3.97 3.69 3.4 3.18 3.02 2.7444 2.4055 2.2686
3096.596 2.1524 1.9516 1.84909 1.7354 1.536 1.446 1.348 1.306 1.262 1.152
3115.889 1.096 0.953 0.858 0.85 0.808 0.66 0.59 0.56 0.47 0.42
3135.182 0.39 0.34 0.28 0.24 0.29 0.35 0.27 0.19 0.18 0.27
3154.476 0.31 0.3 0.25 0.11 0.07 0.13 0.16 0.21 0.24 0.21
3173.769 0.13 0.03 0 0.05 0.08 0.06 0.06 0.08 0.05 0.07
3193.063 0.13 0.12 0.12 0.14 0.15 0.13 0.1 0.15 0.21 0.18
3212.356 0.1 0.06 0.09 0.17 0.16 0.16 0.22 0.2 0.18 0.16
3231.650 0.18 0.23 0.15 0.11 0.11 0.12 0.14 0.14 0.15 0.14
3250.943 0.12 0.14 0.21 0.22 0.17 0.17 0.23 0.2 0.2 0.21
3270.236 0.16 0.24 0.29 0.27 0.25 0.1 0.03 0.1 0.09 0.04
3289.530 0.07 0.1 0.15 0.22 0.23 0.13 0.15 0.25 0.29 0.33
3308.823 0.32 0.27 0.2 0.19 0.25 0.34 0.36 0.31 0.25 0.28
3328.117 0.35 0.37 0.42 0.47 0.38 0.3 0.37 0.45 0.51 0.61
3347.410 0.68 0.65 0.6 0.56 0.51 0.46 0.42 0.5 0.54 0.55
3366.704 0.59 0.56 0.54 0.52 0.45 0.51 0.59 0.56 0.56 0.56
3385.997 0.55 0.58 0.56 0.55 0.59 0.56 0.52 0.58 0.57 0.55
3405.290 0.59 0.6 0.57 0.59 0.66 0.66 0.62 0.64 0.66 0.62
3424.584 0.57 0.55 0.59 0.65 0.68 0.75 0.72 0.58 0.59 0.55
3443.877 0.53 0.63 0.65 0.67 0.7 0.64 0.6 0.62 0.63 0.65
3463.171 0.72 0.69 0.59 0.65 0.67 0.73 0.78 0.77 0.79 0.79
3482.464 0.809 0.856 0.857 0.849 0.825 0.836 0.855 0.849 0.959 1.086
3501.758 1.107 1.098 1.127 1.143 1.19 1.26 1.265 1.31 1.375 1.454
3521.051 1.54 1.602 1.695 1.689 1.688 1.7801 1.85787 1.9576 1.995 2.0692
3540.344 2.1791 2.3652 2.6183 2.85 3.1 3.4 3.87 4.46 5.12 5.93
3559.638 7.21 9.19 12 15.98 21.03 26.04 29.59 31.14 31.34 30.55
3578.931 28.46 24.66 19.42 14.25 10.35 7.77 6.15 5.09 4.28 3.63
3598.225 3.22 2.95 2.7108 2.5548 2.4054 2.3479 2.3218 2.2293 2.2382 2.285
3617.518 2.3385 2.4948 2.6695 2.95 3.35 3.85 4.52 5.24 6.21 7.64
3636.812 9.38 11.44 13.85 16.58 19.48 22.17 24.05 24.6 24.03 22.76
3656.105 20.79 17.97 14.52 10.96 7.96 5.92 4.56 3.57 2.84 2.3409
3675.398 2.004 1.7 1.499 1.41 1.291 1.28 1.311 1.212 1.091 0.997
3694.692 0.96 0.955 0.948 1 1.062 0.993 0.916 1.006 1.05 0.927
3713.985 0.934 0.93 0.897 0.955 0.946 0.948 0.95 0.957 0.932 0.946
3733.279 0.949 0.894 0.912 0.914 0.96 0.967 0.95 0.894 0.918 0.944
3752.572 0.94 0.959 0.875 0.885 0.925 0.91 0.896 0.932 0.945 0.924
3771.866 0.93 0.943 0.92 0.904 0.9 0.899 0.941 0.946 0.987 0.972
3791.159 0.936 0.926 0.889 0.887 0.872 0.891 0.949 0.961 0.948 1.031
3810.452 1.026 0.889 0.843 0.847 0.867 0.884 0.905 0.894 0.87 0.931
3829.746 0.946 1.015 1.035 0.936 0.932 0.942 0.956 1.059 1.056 0.979
3849.039 0.966 0.996 1.065 1.077 1.083 1.038 1 1.067 1.094 1.119
3868.333 1.145 1.109 1.096 1.078 1.068 1.055 1.033 0.993 0.979 1.025
3887.626 1.08 1.039 0.99 0.991 1.029 1.066 1.002 0.99 1.073 1.066
3906.920 0.983 0.971 1.018 1.047 1.097 1.106 1.064 1.049 1.047 1.059
3926.213 1.056 1.064 1.039 1.071 1.114 1.062 1.058 1.074 1.054 1.038
3945.506 1.06 1.126 1.112 1.068 1.031 1.072 1.149 1.144 1.132 1.09
3964.800 1.043 0.989 0.99 1.037 1.034 0.989 0.916 0.906 0.954 0.928
3984.093 0.927 0.947 0.926 0.89 0.886 0.856 0.876 0.952 0.926
##END=
