##TITLE=Benzyl carbamate
##JCAMP-DX=4.24
##DATA TYPE=INFRARED SPECTRUM
##ORIGIN=NIST Mass Spectrometry Data Center
##OWNER=NIST Standard Reference Data Program
Collection (C) 2018 copyright by the U.S. Secretary of Commerce
on behalf of the United States of America. All rights reserved.
##CAS REGISTRY NO=621-84-1
##MOLFORM=C 8 H 9 N O 2
##$NIST SOURCE=MSDC-IR
##SPECTROMETER/DATA SYSTEM=HP-GC/MS/IRD
##STATE=gas
##XUNITS=1/CM
##YUNITS=ABSORBANCE
##XFACTOR=1.0
##YFACTOR=0.000023500
##DELTAX=4.0
##FIRSTX=550.0
##LASTX=3846.0
##FIRSTY=0.005546
##MAXX=3846
##MINX=550
##MAXY=0.235
##MINY=0
##NPOINTS=825
##XYDATA=(X++(Y..Y))
550.0 236 349 256 281 269 262 257 250 240 217
590.0 194 171 142 113 80 50 30 16 4 2
630.0 2 5 15 29 45 67 92 122 155 201
670.0 270 369 492 630 778 923 1031 1035 957 878
710.0 814 768 757 779 831 917 1035 1160 1261 1304
750.0 1273 1182 1054 924 817 732 655 586 521 471
790.0 431 400 377 373 378 392 413 431 434 420
830.0 394 364 346 338 344 362 376 389 395 392
870.0 378 358 339 321 308 302 302 308 321 336
910.0 352 363 366 358 345 323 294 263 230 201
950.0 173 154 140 132 131 140 154 170 185 204
990.0 230 262 307 362 430 525 668 877 1109 1286
1030.0 1459 1697 2014 2454 2926 3246 3303 3104 2704 2219
1070.0 1759 1379 1111 965 946 1063 1325 1638 1846 1885
1110.0 1726 1385 1016 725 509 356 249 184 145 118
1150.0 97 86 80 81 88 98 120 145 169 193
1190.0 227 284 369 477 578 649 686 697 711 756
1230.0 828 913 994 1066 1115 1147 1173 1200 1229 1247
1270.0 1245 1229 1217 1248 1358 1557 1864 2329 3052 4167
1310.0 5762 7688 9354 10000 9378 7663 5369 3414 2235 1590
1350.0 1213 985 861 827 880 1029 1289 1619 1858 1898
1390.0 1745 1406 995 674 471 345 267 218 193 184
1430.0 188 206 238 282 330 372 397 397 377 339
1470.0 287 238 199 182 190 230 270 274 249 196
1510.0 134 98 92 97 106 122 144 169 195 226
1550.0 266 325 416 568 804 1207 1773 2291 2579 2624
1590.0 2340 1871 1457 1137 889 699 564 465 390 334
1630.0 287 247 210 181 158 141 130 123 120 120
1670.0 125 133 145 166 195 229 271 321 373 427
1710.0 486 552 632 731 860 1036 1273 1590 2011 2552
1750.0 3221 3995 4817 5601 6224 6567 6567 6212 5555 4700
1790.0 3779 2908 2178 1610 1198 914 722 599 518 465
1830.0 424 391 362 330 294 256 219 190 166 150
1870.0 139 131 126 119 110 104 97 90 85 79
1910.0 75 72 73 74 76 79 84 89 94 100
1950.0 104 103 96 85 72 59 51 45 41 38
1990.0 33 30 26 23 19 17 14 13 12 11
2030.0 11 10 10 9 7 5 3 3 2 1
2070.0 2 1 0 0 1 0 1 2 3 2
2110.0 3 4 3 2 4 4 5 7 8 9
2150.0 13 17 17 20 24 27 28 32 36 40
2190.0 47 54 60 67 75 84 97 114 134 158
2230.0 183 209 237 257 268 274 267 253 233 212
2270.0 215 245 279 298 295 266 218 163 113 76
2310.0 54 40 34 31 26 23 21 18 17 16
2350.0 17 19 22 24 24 23 20 17 14 9
2390.0 8 7 8 10 10 11 12 12 11 12
2430.0 12 11 9 9 6 4 3 2 1 0
2470.0 0 1 2 2 3 3 3 3 2 3
2510.0 2 2 3 2 1 2 1 2 1 2
2550.0 1 2 2 3 5 3 3 4 3 3
2590.0 4 6 6 7 8 9 9 8 9 10
2630.0 10 11 12 12 11 9 8 7 6 5
2670.0 6 8 8 7 7 8 10 9 8 7
2710.0 5 4 5 5 4 5 6 7 6 7
2750.0 7 8 9 9 10 12 9 12 13 14
2790.0 17 17 18 21 23 25 29 33 36 39
2830.0 42 48 51 53 56 59 63 66 72 82
2870.0 93 108 123 139 152 164 175 180 179 176
2910.0 172 167 163 166 176 192 217 248 283 320
2950.0 356 389 414 425 419 396 362 320 279 242
2990.0 212 188 170 161 162 176 207 254 320 404
3030.0 503 597 658 673 647 588 533 521 570 661
3070.0 734 750 711 615 504 427 379 339 301 257
3110.0 216 176 143 112 81 58 44 38 37 35
3150.0 32 32 33 29 25 24 21 16 14 11
3190.0 9 10 10 8 7 7 4 2 2 3
3230.0 4 3 3 4 7 8 6 7 6 7
3270.0 6 5 4 4 5 3 3 4 4 3
3310.0 4 7 7 4 1 4 6 8 11 13
3350.0 14 15 16 17 20 21 22 24 24 24
3390.0 26 33 39 46 61 77 99 132 172 221
3430.0 283 354 427 494 532 563 596 634 679 687
3470.0 635 538 406 286 214 175 154 147 153 168
3510.0 185 204 229 259 295 330 365 403 445 490
3550.0 517 527 525 514 504 515 554 609 637 608
3590.0 538 429 307 221 170 130 99 76 60 49
3630.0 44 39 34 29 29 32 34 30 27 25
3670.0 21 19 16 13 11 12 12 10 6 6
3710.0 7 7 7 6 5 4 5 4 2 2
3750.0 2 1 1 2 1 0 0 0 0 0
3790.0 0 0 0 0 0 0 0 0 0 0
3830.0 0 0 0 0 1
##END=
