##TITLE=3-Nitrophenylacetonitrile
##JCAMP-DX=4.24
##DATA TYPE=INFRARED SPECTRUM
##ORIGIN=EPA-IR VAPOR PHASE LIBRARY
##OWNER=SRD/NIST
Collection (C) 2018 copyright by the U.S. Secretary of Commerce
on behalf of the United States of America. All rights reserved.
##CAS REGISTRY NO=621-50-1
##MOLFORM=C 8 H 6 N 2 O 2
##$NIST SOURCE=MSDC-IR
##STATE=gas
##XUNITS=1/CM
##YUNITS=ABSORBANCE
##XFACTOR=1.
##YFACTOR=0.001
##DELTAX=1.92898
##FIRSTX=549.8
##LASTX=4000.7
##FIRSTY=1.1108
##MAXX=4000.7
##MINX=549.759
##MAXY=0.06179
##MINY=0
##NPOINTS=1790
##XYDATA=(X++(Y..Y))
549.759 1.1108 0.9212 0.6926 0.4135 0.5386 0.8224 0.7448 0.5943 0.5669 0.7198
569.049 0.767 0.7938 0.8881 0.9982 1.0376 1.0311 0.8191 0.5991 0.6374 0.7183
588.339 0.6651 0.685 0.7861 0.9531 0.747 0.6204 0.8581 0.9543 0.8615 0.8431
607.628 0.9617 0.9187 0.8971 0.9988 1.259 1.1841 0.9728 1.0559 1.1354 1.155
626.918 0.9844 0.7822 0.8705 0.9277 0.7179 0.5693 0.7992 0.9594 0.8804 1.021
646.208 0.9737 1.0425 1.35 1.52 1.63 1.89 2.28 2.65 2.97 3.41
665.498 4.05 4.87 5.86 6.7 7.31 7.91 8.28 8.48 8.63 8.44
684.787 8 7.38 6.86 6.53 6.35 5.99 5.77 5.81 5.85 5.85
704.077 5.8 5.74 5.72 6.19 6.94 7.51 8.15 8.89 9.56 10.4
723.367 11.47 12.62 13.42 13.18 12.18 10.81 9.62 8.71 7.53 6.47
742.657 5.42 4.29 3.54 3.15 2.69 2.1 1.97 1.81 1.7 1.71
761.947 1.51 1.6 1.66 1.68 1.88 1.87 1.86 2.15 2.46 2.62
781.236 2.94 3.55 4.42 5.41 6.47 7.87 9.3 10.96 13.24 15.23
800.526 16.55 16.89 16.24 15.42 14.32 12.84 10.91 8.84 7.04 5.46
819.816 4.31 3.71 3.17 2.59 2.35 2.18 1.92 1.67 1.5 1.49
839.106 1.47 1.2757 1.2128 1.2952 1.38 1.31 1.121 1.1605 1.37 1.47
858.395 1.44 1.5 1.49 1.52 1.63 1.89 2.2 2.27 2.43 2.56
877.685 2.61 2.78 2.89 3.07 3.14 3 2.93 2.98 2.88 2.73
896.975 2.87 2.79 2.54 2.38 2.43 2.58 2.64 2.86 2.99 2.94
916.265 2.94 3.1 3.24 3.25 3.18 3.06 2.78 2.45 2.34 2.19
935.555 2 1.91 1.81 1.75 1.68 1.63 1.45 1.2928 1.2031 1.1556
954.844 1.1803 1.2035 1.2072 1.2526 1.2311 1.1871 1.1587 1.0771 1.0103 0.84
974.134 0.7943 0.7506 0.7063 0.7914 0.8611 0.8116 0.7291 0.9193 1.0462 0.8465
993.424 0.7263 0.8696 0.9569 0.8144 0.644 0.7632 0.6787 0.5462 0.604 0.6913
1012.714 0.8167 0.8505 0.6861 0.564 0.6546 0.6572 0.5555 0.6336 0.7085 0.5993
1032.003 0.7833 0.9068 0.8551 0.8558 0.7869 0.8894 0.8068 0.5964 0.6806 0.8062
1051.293 1.0189 0.9788 0.9866 0.9869 0.8097 0.935 1.42 1.87 2.32 2.34
1070.583 2.4 3.03 3.12 3.27 3.65 3.48 3.29 3.45 3.84 4.09
1089.873 4.43 4.87 4.97 4.96 5.07 5.11 4.8 4.18 3.14 2.86
1109.163 2.83 2.42 2.26 2.05 1.61 1.2603 1.1973 1.0206 0.9155 1.0776
1128.452 1.0431 0.9313 0.7924 0.8862 0.9741 0.7706 0.6262 0.6254 0.926 0.9664
1147.742 1.1496 1.0967 0.9029 1.1485 1.0578 0.9417 1.258 1.49 1.66 1.81
1167.032 1.64 1.68 2.08 1.81 1.2683 1.2256 1.39 1.2097 1.0413 1.2299
1186.322 1.5 1.58 1.2501 1.049 1.0258 1.1695 1.0665 1.0361 1.47 1.78
1205.611 1.39 1.1901 1.63 1.86 1.52 1.44 1.54 1.2937 1.2664 1.31
1224.901 1.202 1.36 1.43 1.278 1.32 1.2073 1.1272 1.1556 1.1752 1.2964
1244.191 1.51 1.49 1.44 1.6 1.64 1.61 1.78 2.28 2.52 2.33
1263.481 2.33 2.52 2.57 2.75 3.07 3.13 3.06 3.1 3.25 3.31
1282.771 3.43 3.64 3.83 3.98 4.08 4.21 4.41 4.69 4.93 5.13
1302.060 5.24 5.35 5.52 5.72 5.99 6.29 6.59 6.81 7.18 7.7
1321.350 8.19 8.83 9.59 10.61 11.93 13.48 15.43 17.79 20.54 23.67
1340.640 27.15 30.83 34.44 37.79 40.71 43.01 44.58 45.28 45.02 43.65
1359.930 41.25 38.08 34.31 30.29 26.2 22.17 18.47 15.2 12.34 9.93
1379.219 8.07 6.65 5.52 4.71 4.12 3.68 3.36 3.13 2.94 2.87
1398.509 2.86 2.82 2.82 2.84 2.86 2.92 3 3.08 3.27 3.58
1417.799 3.86 4.19 4.59 4.89 5.1 5.27 5.41 5.47 5.46 5.28
1437.089 4.99 4.82 4.71 4.52 4.32 4.29 4.19 3.92 3.7 3.54
1456.378 3.33 3.12 3 3.06 3.17 3.27 3.5 3.78 4.08 4.45
1475.668 4.85 5.28 5.6 5.83 6.01 6.13 6.16 6.17 6.11 6.12
1494.958 6.18 6.22 6.37 6.52 6.71 6.98 7.33 7.77 8.15 8.62
1514.248 9.16 9.89 10.95 12.21 13.85 15.82 18.06 20.7 23.94 27.47
1533.538 31.29 35.45 39.46 43.6 47.69 51.54 55.01 58.02 60.4 61.75
1552.827 61.79 60.51 58.14 54.7 50.52 45.98 40.74 35.09 29.52 24.61
1572.117 20.58 17.62 15.44 13.83 12.83 12.06 11.57 11.29 10.93 10.52
1591.407 9.97 9.38 8.89 8.32 7.69 7.03 6.49 6.06 5.6 5.13
1610.697 4.68 4.23 3.86 3.54 3.27 3.06 2.79 2.58 2.41 2.28
1629.986 2.19 2.07 1.94 1.81 1.76 1.74 1.68 1.7 1.67 1.58
1649.276 1.53 1.54 1.53 1.53 1.55 1.51 1.47 1.42 1.41 1.41
1668.566 1.36 1.38 1.36 1.2426 1.1989 1.1577 1.067 1.0803 1.082 1.0239
1687.856 0.9774 0.9385 0.9039 0.9183 0.9071 0.8756 0.8903 0.9109 0.9251 0.901
1707.146 0.9091 0.9948 1.0269 1.0423 1.1246 1.1887 1.2762 1.32 1.34 1.37
1726.435 1.3 1.2632 1.2978 1.3 1.31 1.2948 1.2541 1.1931 1.1649 1.1357
1745.725 1.0955 1.0531 1.0582 1.1117 1.1115 1.111 1.0993 1.0461 1.01 1.014
1765.015 1.0222 1.012 1.0369 1.0303 1.0154 0.9961 0.9306 0.9554 0.9889 1.034
1784.305 1.0373 1.017 1.0871 1.1014 1.1087 1.118 1.0734 1.0585 1.0853 1.069
1803.594 1.0229 0.9881 0.9532 0.9299 0.9002 0.8679 0.8505 0.8421 0.8181 0.7352
1822.884 0.7355 0.7799 0.7925 0.838 0.7933 0.795 0.8015 0.7745 0.8207 0.8562
1842.174 0.8772 0.8992 0.9478 0.9393 0.9037 1.0098 1.0134 0.9674 1.024 1.0568
1861.464 1.0114 0.9278 0.9279 0.9356 0.9811 0.9908 0.9144 0.858 0.8834 0.918
1880.754 0.8741 0.9079 0.9546 0.975 0.9501 0.9615 1.0485 1.0475 1.1156 1.235
1900.043 1.2225 1.1555 1.131 1.1112 1.0528 0.9767 0.959 0.9282 0.8355 0.7839
1919.333 0.8046 0.8236 0.7414 0.7337 0.7775 0.7477 0.7455 0.7608 0.7681 0.7429
1938.623 0.7579 0.7711 0.8072 0.8787 0.9361 0.96 0.9439 0.9757 1.0589 1.0658
1957.913 1.0548 1.0192 0.9554 0.8842 0.8171 0.8132 0.7411 0.6731 0.6708 0.6262
1977.202 0.6049 0.6371 0.5924 0.5577 0.5515 0.5686 0.5673 0.5567 0.6051 0.6013
1996.492 0.5743 0.6365 0.6372 0.6073 0.6129 0.5876 0.5554 0.5621 0.5654 0.5442
2015.782 0.5772 0.5606 0.5576 0.5551 0.5457 0.5723 0.5478 0.5253 0.5596 0.5818
2035.072 0.5651 0.5504 0.5262 0.5133 0.5246 0.4935 0.5033 0.5278 0.5442 0.5738
2054.362 0.5555 0.564 0.5614 0.5457 0.5224 0.5278 0.5463 0.5617 0.5834 0.5685
2073.651 0.5775 0.5938 0.6088 0.6088 0.5538 0.5149 0.5226 0.5242 0.5033 0.5248
2092.941 0.5974 0.5927 0.5562 0.5634 0.5507 0.5438 0.5603 0.5979 0.6269 0.6049
2112.231 0.5377 0.4623 0.5064 0.5643 0.5712 0.563 0.5597 0.5752 0.5595 0.533
2131.521 0.5245 0.5495 0.5336 0.5353 0.6078 0.5911 0.4866 0.4819 0.552 0.5417
2150.810 0.5189 0.5327 0.4849 0.4984 0.5401 0.4877 0.4837 0.4888 0.4834 0.5022
2170.100 0.4874 0.5303 0.5576 0.5077 0.5113 0.5465 0.5921 0.6035 0.5566 0.5577
2189.390 0.5655 0.5177 0.5121 0.5331 0.5647 0.5347 0.4759 0.5093 0.4976 0.4816
2208.680 0.5011 0.39938 0.4374 0.5647 0.4991 0.4905 0.4926 0.4885 0.5223 0.5309
2227.970 0.511 0.5229 0.582 0.5496 0.5413 0.6566 0.6567 0.6603 0.7058 0.6356
2247.259 0.6894 0.7821 0.7715 0.7884 0.8119 0.7447 0.6816 0.6945 0.7155 0.7301
2266.549 0.7514 0.726 0.7119 0.7319 0.692 0.659 0.6325 0.6325 0.6552 0.6238
2285.839 0.6135 0.6219 0.6025 0.5738 0.5502 0.5836 0.6155 0.6148 0.6287 0.6487
2305.129 0.6725 0.6454 0.6244 0.6629 0.6214 0.5642 0.5682 0.5585 0.5842 0.6135
2324.418 0.6434 0.6787 0.6062 0.6004 0.6512 0.6481 0.6793 0.7399 0.7269 0.6616
2343.708 0.7474 0.8205 0.838 0.7857 0.745 0.8076 0.732 0.6989 0.709 0.6536
2362.998 0.6586 0.6772 0.689 0.6368 0.6113 0.6669 0.67 0.7167 0.7956 0.8094
2382.288 0.7612 0.7053 0.6732 0.6017 0.5559 0.5825 0.5992 0.598 0.6063 0.6614
2401.578 0.7109 0.6949 0.6816 0.662 0.5971 0.6261 0.7058 0.6678 0.6592 0.6485
2420.867 0.6585 0.6693 0.6133 0.6553 0.7174 0.6711 0.5375 0.5102 0.659 0.7732
2440.157 0.7136 0.6212 0.6317 0.6861 0.7058 0.7242 0.7108 0.657 0.6463 0.5697
2459.447 0.5909 0.6381 0.5764 0.558 0.6167 0.6903 0.6464 0.6085 0.6491 0.6682
2478.737 0.6731 0.6636 0.6212 0.6044 0.5557 0.508 0.5053 0.4963 0.5201 0.5404
2498.026 0.5262 0.5121 0.5003 0.5503 0.6196 0.5414 0.4882 0.5705 0.5304 0.5033
2517.316 0.6025 0.6098 0.5616 0.5895 0.6324 0.6292 0.568 0.5684 0.6423 0.6412
2536.606 0.6438 0.6551 0.6293 0.5737 0.6087 0.7037 0.687 0.6349 0.6297 0.5813
2555.896 0.6508 0.7375 0.633 0.6079 0.7295 0.7601 0.7363 0.7153 0.6503 0.7009
2575.186 0.6881 0.6388 0.7189 0.6795 0.6305 0.6947 0.6282 0.6439 0.7014 0.6672
2594.475 0.6361 0.6055 0.6178 0.6519 0.6056 0.5946 0.6541 0.6648 0.6917 0.7018
2613.765 0.6569 0.6631 0.6776 0.543 0.5398 0.5882 0.5202 0.5528 0.6178 0.7017
2633.055 0.7587 0.689 0.5841 0.5854 0.6862 0.7255 0.7488 0.7784 0.7324 0.6741
2652.345 0.6371 0.7278 0.7801 0.7463 0.7106 0.7227 0.8126 0.737 0.6654 0.6535
2671.634 0.6883 0.721 0.679 0.6698 0.7146 0.6802 0.5783 0.6791 0.7827 0.7855
2690.924 0.7979 0.8356 0.8995 0.924 0.8995 0.8352 0.7858 0.7661 0.7902 0.7568
2710.214 0.7682 0.7647 0.7006 0.6891 0.6768 0.7146 0.7084 0.595 0.5498 0.5856
2729.504 0.6463 0.661 0.667 0.6329 0.5784 0.5903 0.6083 0.5871 0.5465 0.5815
2748.794 0.643 0.7205 0.67 0.6614 0.6488 0.5308 0.494 0.5432 0.5343 0.5207
2768.083 0.5443 0.4997 0.5076 0.537 0.5819 0.6006 0.6378 0.5927 0.6119 0.6772
2787.373 0.6483 0.6541 0.6301 0.6335 0.6541 0.7097 0.6689 0.7472 0.8903 0.8115
2806.663 0.8048 0.847 0.8691 0.8077 0.7755 0.7671 0.6989 0.7012 0.6688 0.6116
2825.953 0.6507 0.7333 0.8703 0.9734 0.9611 0.8656 0.7739 0.7805 0.8872 0.9733
2845.242 0.8957 0.9571 1.0106 0.8863 0.9123 0.9089 0.861 1.0208 1.1516 1.1595
2864.532 1.1425 1.1129 1.1424 1.161 1.1457 1.1543 1.2489 1.43 1.51 1.44
2883.822 1.38 1.44 1.47 1.44 1.49 1.55 1.49 1.45 1.55 1.63
2903.112 1.49 1.39 1.4 1.39 1.35 1.32 1.44 1.46 1.4 1.41
2922.401 1.2706 1.2336 1.38 1.5 1.5 1.47 1.54 1.58 1.53 1.43
2941.691 1.4 1.38 1.43 1.39 1.2382 1.1822 1.0112 0.9237 1.0926 1.0856
2960.981 1.052 0.973 0.8373 0.8826 0.8479 0.8971 0.8252 0.743 0.8515 0.8122
2980.271 0.8377 0.9213 0.7814 0.6303 0.6091 0.6944 0.8256 0.8222 0.771 0.7731
2999.561 0.7705 0.7507 0.7458 0.6873 0.6968 0.7112 0.7222 0.7212 0.766 0.8709
3018.850 0.9296 0.9518 1.0049 1.1779 1.2396 1.1749 1.1368 1.2623 1.33 1.33
3038.140 1.2669 1.2456 1.2733 1.31 1.42 1.4 1.38 1.2829 1.281 1.33
3057.430 1.32 1.41 1.61 1.79 1.96 2.22 2.51 2.78 2.94 3
3076.720 2.99 3.02 3.05 3.04 2.84 2.56 2.36 2.19 2.01 1.87
3096.009 1.8 1.61 1.6 1.63 1.53 1.269 1.1181 1.1043 0.9104 0.8208
3115.299 0.7152 0.6875 0.756 0.5853 0.4347 0.4383 0.4975 0.5433 0.5645 0.4594
3134.589 0.4158 0.4742 0.36921 0.39337 0.5658 0.5005 0.4209 0.5805 0.5521 0.4644
3153.879 0.4591 0.4641 0.4091 0.433 0.4818 0.36473 0.39205 0.4067 0.38988 0.4661
3173.169 0.4815 0.4237 0.4678 0.5661 0.4742 0.4132 0.5555 0.6047 0.6306 0.6158
3192.458 0.5762 0.6402 0.6094 0.6013 0.6182 0.4948 0.467 0.6286 0.6442 0.5828
3211.748 0.6634 0.7295 0.6314 0.5961 0.5916 0.4066 0.31525 0.4137 0.5207 0.5377
3231.038 0.5724 0.5846 0.4516 0.4936 0.5295 0.35211 0.2783 0.36876 0.4099 0.4035
3250.328 0.4288 0.4242 0.4371 0.442 0.38002 0.2858 0.29124 0.4119 0.539 0.6589
3269.617 0.5578 0.300198 0.2272 0.2731 0.3986 0.4265 0.435 0.4332 0.35006 0.4374
3288.907 0.4101 0.411 0.4388 0.32605 0.37795 0.4427 0.39574 0.38705 0.3891 0.32166
3308.197 0.4024 0.5092 0.4086 0.32887 0.2847 0.305919 0.299832 0.2598 0.301348 0.2737
3327.487 0.167 0.17 0.165 0.2542 0.2208 0.184 0.4451 0.5117 0.32746 0.185
3346.777 0.2271 0.2538 0.38933 0.37905 0.35849 0.36055 0.138 0.111 0.188 0.29005
3366.066 0.4183 0.4395 0.4441 0.307248 0.186 0.167 0.168 0.34627 0.4654 0.35067
3385.356 0.3976 0.4504 0.300901 0.5371 0.6096 0.36728 0.39362 0.3997 0.31814 0.32743
3404.646 0.31465 0.255 0.2234 0.2398 0.2157 0.188 0.2488 0.175 0.109 0.22
3423.936 0.35766 0.2445 0.2436 0.38684 0.2375 0.159 0.29529 0.35103 0.33912 0.4147
3443.225 0.4223 0.34562 0.37646 0.4127 0.38581 0.2128 0.162 0.2741 0.3372 0.35656
3462.515 0.35518 0.4169 0.36366 0.37736 0.39674 0.38936 0.38419 0.4443 0.46 0.4871
3481.805 0.5602 0.4774 0.33195 0.2609 0.34351 0.4181 0.5384 0.433 0.2512 0.2649
3501.095 0.37614 0.4914 0.4063 0.34973 0.34412 0.32073 0.32705 0.4126 0.5533 0.4479
3520.385 0.2235 0.2464 0.247 0.31854 0.309828 0.2425 0.2851 0.2212 0.2048 0.2486
3539.674 0.34362 0.4917 0.6327 0.4935 0.36368 0.37585 0.31432 0.2622 0.33413 0.32452
3558.964 0.2885 0.305986 0.29833 0.2701 0.31014 0.36724 0.306324 0.2675 0.2658 0.29841
3578.254 0.4437 0.4405 0.2662 0.248 0.39373 0.34914 0.2124 0.2399 0.17 0.195
3597.544 0.32118 0.2798 0.31206 0.32823 0.2041 0.176 0.31477 0.38216 0.34971 0.4053
3616.833 0.35252 0.308634 0.31165 0.2275 0.179 0.2257 0.2472 0.33672 0.496 0.4949
3636.123 0.4088 0.29129 0.35396 0.38599 0.31546 0.38582 0.35766 0.2418 0.152 0.077
3655.413 0.122 0.2434 0.2274 0.31085 0.3409 0.2794 0.2519 0.2871 0.29397 0.2858
3674.703 0.29897 0.37746 0.4345 0.3383 0.4336 0.39125 0.38179 0.4076 0.422 0.495
3693.993 0.4636 0.4635 0.38774 0.36213 0.2503 0.121 0.116 0.2384 0.4274 0.29623
3713.282 0.35828 0.6504 0.5883 0.37169 0.39695 0.5362 0.5484 0.4915 0.4037 0.38773
3732.572 0.5109 0.4696 0.39988 0.4137 0.35922 0.33992 0.3105 0.29602 0.2309 0.2422
3751.862 0.2657 0.2159 0.2798 0.34115 0.2096 0.2172 0.34214 0.31172 0.2666 0.4076
3771.152 0.36837 0.38021 0.5759 0.4831 0.37456 0.29241 0.2837 0.147 0.149 0.29632
3790.441 0.2688 0.37047 0.2766 0.2644 0.5223 0.4262 0.4507 0.5391 0.4181 0.35918
3809.731 0.3521 0.32827 0.34947 0.3276 0.2542 0.2372 0.2896 0.33526 0.247 0.2828
3829.021 0.2278 0.2433 0.34334 0.3405 0.305818 0.2355 0.34116 0.4323 0.34574 0.165
3848.311 0.301257 0.5182 0.4005 0.35334 0.4149 0.4707 0.33958 0.175 0.119 0.153
3867.601 0.263 0.33459 0.37105 0.2485 0.171 0.2334 0.31721 0.34347 0.39795 0.4994
3886.890 0.4874 0.38609 0.309809 0.33741 0.37955 0.4384 0.4732 0.4536 0.38145 0.4144
3906.180 0.4413 0.36041 0.4601 0.39001 0.2733 0.305515 0.2429 0.29064 0.259 0.2259
3925.470 0.29147 0.224 0.2624 0.2633 0.2202 0.2714 0.34416 0.2632 0.2461 0.33757
3944.760 0.32769 0.33913 0.191 0.2523 0.3744 0.2093 0.2846 0.38811 0.38375 0.4129
3964.049 0.195 0 0.116 0.173 0.121 0.2352 0.31378 0.2203 0.179 0.3406
3983.339 0.35218 0.2618 0.4087 0.5203 0.4761 0.31735 0.2818 0.305864 0.198 0.2268
##END=
