##TITLE=2-Phenoxyacetamide
##JCAMP-DX=4.24
##DATA TYPE=INFRARED SPECTRUM
##ORIGIN=EPA-IR VAPOR PHASE LIBRARY
##OWNER=SRD/NIST
Collection (C) 2018 copyright by the U.S. Secretary of Commerce
on behalf of the United States of America. All rights reserved.
##CAS REGISTRY NO=621-88-5
##MOLFORM=C8 H9 N O2
##$NIST SOURCE=MSDC-IR
##STATE=gas
##XUNITS=1/CM
##YUNITS=ABSORBANCE
##XFACTOR=1.
##YFACTOR=0.001
##DELTAX=1.92898
##FIRSTX=549.8
##LASTX=4000.7
##FIRSTY=7.759
##MAXX=4000.7
##MINX=549.759
##MAXY=0.151969
##MINY=0
##NPOINTS=1790
##XYDATA=(X++(Y..Y))
549.759 7.759 7.479 7.009 6.559 6.449 5.829 5.509 5.339 5.449 5.519
569.049 5.069 5.319 5.399 5.199 5.489 5.609 5.429 5.629 5.699 5.629
588.339 5.749 5.849 5.969 5.999 6.069 6.009 5.829 5.829 5.949 5.799
607.628 5.549 5.539 5.439 5.259 5.189 5.249 5.349 5.219 5.009 4.949
626.918 4.699 4.369 4.339 4.329 4.159 3.899 3.929 4.129 4.109 3.959
646.208 3.979 3.999 4.019 4.179 4.369 4.579 4.809 5.049 5.179 5.509
665.498 6.089 6.609 7.049 7.689 8.559 9.459 10.519 11.729 12.699 13.639
684.787 14.749 15.849 16.479 16.269 15.569 14.759 13.849 12.889 11.869 10.829
704.077 9.859 9.109 8.289 7.569 6.939 6.459 6.359 6.339 6.289 6.309
723.367 6.619 7.149 7.789 8.749 9.929 11.259 13.189 15.329 17.519 19.749
742.657 22.019 24.429 26.839 29.309 31.379 32.089 31.359 30.149 28.759 26.959
761.947 25.129 23.179 21.319 19.589 17.799 16.329 15.279 14.549 14.039 13.729
781.236 13.429 13.209 13.079 12.699 12.399 12.269 11.859 11.459 11.199 10.929
800.526 10.769 10.619 10.669 10.819 11.009 11.089 11.099 11.339 11.719 11.929
819.816 12.019 12.229 12.309 12.339 12.259 12.279 12.279 12.029 11.889 11.699
839.106 11.689 11.919 12.049 12.079 11.949 11.899 11.809 11.709 11.849 11.849
858.395 11.619 11.369 11.069 10.799 10.759 10.789 10.639 10.369 10.299 10.299
877.685 10.229 10.089 9.979 9.929 9.889 9.719 9.439 9.319 8.979 8.549
896.975 8.299 8.029 7.699 7.259 6.939 6.779 6.619 6.349 6.179 6.119
916.265 5.979 5.879 5.869 5.719 5.519 5.489 5.509 5.429 5.259 5.179
935.555 5.119 5.039 4.999 4.979 4.889 4.739 4.739 4.779 4.539 4.479
954.844 4.539 4.539 4.659 4.759 4.799 4.799 4.709 4.609 4.589 4.569
974.134 4.789 4.839 4.769 4.899 5.089 5.209 5.139 5.339 5.589 5.819
993.424 6.159 6.239 6.249 6.459 6.499 6.319 6.339 6.409 6.539 6.809
1012.714 6.999 7.089 7.519 8.169 8.869 9.679 10.529 11.769 13.309 14.929
1032.003 17.059 19.849 22.779 25.829 28.909 31.999 35.129 37.569 39.129 40.079
1051.293 40.109 38.819 36.649 34.119 31.369 28.179 24.999 22.149 19.659 17.649
1070.583 16.089 14.729 13.639 12.939 12.159 11.359 10.399 9.619 8.989 8.059
1089.873 6.889 6.249 6.129 5.799 5.489 4.869 4.359 4.429 4.329 4.089
1109.163 4.149 4.039 3.869 3.929 3.589 3.489 3.829 3.789 3.559 3.409
1128.452 3.269 2.999 3.009 3.339 3.479 3.759 4.279 4.659 4.919 5.259
1147.742 6.069 6.419 6.509 7.159 8.019 8.979 10.309 11.899 13.479 14.929
1167.032 16.139 17.039 17.609 17.769 17.389 16.889 16.029 14.619 13.629 13.409
1186.322 13.419 14.049 15.349 17.469 20.259 24.019 29.019 34.679 41.069 48.189
1205.611 54.669 59.399 63.469 66.639 68.279 68.649 68.029 66.779 65.199 63.849
1224.901 63.649 64.849 66.939 69.539 72.179 73.959 74.059 72.829 70.649 67.159
1244.191 62.439 56.549 50.349 44.989 40.899 38.199 36.089 33.939 31.979 30.089
1263.481 28.149 26.179 24.459 23.049 22.049 21.509 21.449 21.689 21.739 21.679
1282.771 21.429 20.999 20.519 20.019 19.529 18.919 18.169 17.419 16.739 16.119
1302.060 15.399 14.759 14.169 13.459 12.929 12.669 12.639 12.799 13.159 13.789
1321.350 14.639 15.629 16.799 18.109 19.529 21.029 22.489 23.749 24.779 25.589
1340.640 26.079 26.259 26.169 25.879 25.449 24.899 24.349 23.859 23.399 22.999
1359.930 22.639 22.319 22.019 21.669 21.359 20.959 20.429 19.899 19.279 18.569
1379.219 17.809 17.059 16.199 15.259 14.299 13.349 12.429 11.539 10.759 10.079
1398.509 9.499 8.939 8.399 7.899 7.519 7.219 6.959 6.709 6.519 6.369
1417.799 6.169 5.979 5.909 5.869 5.859 5.919 6.089 6.419 6.869 7.429
1437.089 8.239 9.289 10.349 11.309 11.979 12.279 12.399 12.389 12.109 11.579
1456.378 10.749 9.889 9.379 9.149 9.199 9.499 10.049 10.779 11.869 13.309
1475.668 15.159 17.779 21.339 26.229 32.549 40.289 48.789 56.539 62.189 64.989
1494.958 65.229 63.569 60.019 54.319 46.209 36.659 27.079 19.679 14.819 11.539
1514.248 9.489 8.179 7.279 6.619 6.149 5.909 5.789 5.769 5.819 5.939
1533.538 6.149 6.449 6.859 7.419 8.159 8.999 9.939 11.159 12.679 14.519
1552.827 16.669 19.379 22.509 26.279 30.759 35.129 39.579 43.929 47.849 51.419
1572.117 54.349 56.369 57.499 57.799 57.419 56.729 56.039 55.379 54.919 54.699
1591.407 54.529 54.179 53.329 51.569 48.839 45.289 41.099 36.419 31.699 27.099
1610.697 22.879 19.229 16.379 14.199 12.499 11.239 10.279 9.499 8.909 8.379
1629.986 7.879 7.479 7.149 6.899 6.699 6.439 6.209 6.079 5.999 5.899
1649.276 5.839 5.799 5.839 5.879 5.829 5.949 6.119 6.229 6.449 6.689
1668.566 6.999 7.419 7.869 8.429 9.049 9.679 10.469 11.239 12.189 13.179
1687.856 14.099 15.069 16.039 17.009 18.039 19.109 20.149 21.329 22.489 23.939
1707.146 25.579 27.479 29.869 32.709 36.139 40.329 45.569 51.609 59.079 68.059
1726.435 78.689 91.009 104.849 118.729 132.049 142.739 149.059 151.969 151.629 147.609
1745.725 139.309 126.859 111.709 95.859 81.309 69.179 58.869 50.569 43.739 38.029
1765.015 33.359 29.539 26.259 23.479 21.049 18.969 17.209 15.709 14.339 13.079
1784.305 12.039 11.129 10.249 9.419 8.679 7.969 7.309 6.679 6.119 5.589
1803.594 5.119 4.699 4.359 4.109 3.839 3.599 3.359 3.199 3.109 3.029
1822.884 2.959 2.879 2.839 2.819 2.789 2.729 2.699 2.709 2.709 2.609
1842.174 2.629 2.649 2.559 2.519 2.499 2.439 2.379 2.299 2.149 2.099
1861.464 2.069 1.939 1.819 1.769 1.749 1.619 1.509 1.469 1.469 1.449
1880.754 1.389 1.369 1.339 1.309 1.319 1.329 1.339 1.359 1.399 1.429
1900.043 1.439 1.529 1.579 1.649 1.739 1.779 1.889 2.009 2.119 2.239
1919.333 2.309 2.389 2.429 2.389 2.369 2.389 2.379 2.399 2.409 2.399
1938.623 2.379 2.319 2.269 2.199 2.119 2.009 1.899 1.799 1.729 1.639
1957.913 1.519 1.429 1.409 1.399 1.399 1.419 1.429 1.409 1.409 1.419
1977.202 1.429 1.459 1.449 1.409 1.459 1.499 1.509 1.499 1.489 1.529
1996.492 1.559 1.559 1.469 1.369 1.299 1.2509 1.2491 1.2189 1.1869 1.1229
2015.782 1.088 1.1299 1.0697 1.1117 1.1641 1.117 1.1472 1.1857 1.2179 1.2551
2035.072 1.329 1.399 1.429 1.449 1.479 1.519 1.499 1.509 1.479 1.469
2054.362 1.389 1.339 1.419 1.429 1.389 1.399 1.429 1.339 1.339 1.389
2073.651 1.339 1.319 1.329 1.309 1.259 1.2077 1.1982 1.2539 1.259 1.2268
2092.941 1.1777 1.1213 1.1233 1.1443 1.1545 1.1074 1.0663 1.0528 1.0346 1.0159
2112.231 0.9814 0.9394 0.8999 0.8224 0.8054 0.8374 0.7849 0.7602 0.7478 0.7174
2131.521 0.6769 0.6175 0.5917 0.5468 0.579 0.636 0.6033 0.6162 0.6058 0.5352
2150.810 0.5328 0.5488 0.496 0.4822 0.5235 0.5419 0.5395 0.5536 0.5404 0.5302
2170.100 0.5391 0.5401 0.5689 0.5381 0.5192 0.536 0.4905 0.5473 0.5919 0.5322
2189.390 0.5017 0.5058 0.5613 0.5557 0.5458 0.5994 0.5985 0.5449 0.5351 0.5613
2208.680 0.5704 0.5656 0.5494 0.5425 0.5007 0.4498 0.4388 0.4943 0.5676 0.5498
2227.970 0.5857 0.5862 0.5177 0.5351 0.5553 0.5139 0.4877 0.5276 0.6112 0.6158
2247.259 0.6153 0.6215 0.6044 0.5684 0.5827 0.6352 0.59 0.5825 0.628 0.5958
2266.549 0.5635 0.6271 0.6961 0.7514 0.7535 0.7207 0.6901 0.6683 0.631 0.6471
2285.839 0.7355 0.7082 0.6476 0.6778 0.6573 0.6169 0.6477 0.6794 0.7039 0.7102
2305.129 0.749 0.8328 0.7942 0.7593 0.7501 0.7318 0.7071 0.6451 0.5927 0.625
2324.418 0.7042 0.6453 0.6545 0.6351 0.6231 0.6909 0.5882 0.5335 0.6066 0.5908
2343.708 0.5851 0.5911 0.5366 0.5424 0.6013 0.6506 0.6457 0.5766 0.6109 0.6715
2362.998 0.7206 0.7285 0.6338 0.6575 0.6733 0.7047 0.7851 0.805 0.8153 0.7697
2382.288 0.807 0.851 0.7484 0.7667 0.819 0.8194 0.8431 0.8551 0.8534 0.8242
2401.578 0.8784 0.9163 0.9345 0.9915 0.9408 0.902 0.9193 0.9683 1.0481 1.0283
2420.867 0.949 0.9303 0.9382 0.9832 1.0474 1.037 1.0695 1.0603 1.0021 0.9453
2440.157 1.0192 1.1146 1.0743 1.0535 1.046 1.0446 0.9888 1.0458 1.1515 1.1001
2459.447 1.0345 1.0746 1.0765 1.0559 1.0784 1.0639 1.0033 1.0062 1.0258 0.9501
2478.737 0.9201 0.8677 0.76 0.7456 0.7432 0.7586 0.7217 0.6176 0.623 0.6446
2498.026 0.6435 0.6173 0.5928 0.6452 0.6394 0.6025 0.5974 0.5506 0.575 0.6453
2517.316 0.5904 0.5686 0.5723 0.5901 0.6539 0.6896 0.6607 0.6812 0.7421 0.65
2536.606 0.6781 0.7292 0.6563 0.6356 0.7076 0.6777 0.6604 0.6956 0.6616 0.6304
2555.896 0.5996 0.585 0.5835 0.6306 0.5706 0.5436 0.5832 0.5473 0.5666 0.5382
2575.186 0.5062 0.5175 0.4685 0.4782 0.4974 0.4432 0.4578 0.5001 0.5316 0.5343
2594.475 0.5091 0.4844 0.4366 0.4282 0.4776 0.5482 0.5533 0.5494 0.4535 0.3844
2613.765 0.4914 0.5485 0.4887 0.4704 0.477 0.4629 0.4473 0.4048 0.4345 0.478
2633.055 0.4516 0.4366 0.3663 0.34716 0.3922 0.4448 0.4709 0.3831 0.3859 0.3782
2652.345 0.30056 0.31958 0.35499 0.3718 0.4385 0.4514 0.4221 0.4143 0.3658 0.32092
2671.634 0.372 0.4266 0.3817 0.33263 0.34864 0.35767 0.35517 0.3767 0.34856 0.30389
2690.924 0.35597 0.3767 0.4193 0.4733 0.4988 0.5351 0.5113 0.4301 0.3737 0.4162
2710.214 0.4615 0.4326 0.4271 0.4015 0.3744 0.35155 0.32986 0.3785 0.34055 0.3998
2729.504 0.4784 0.4244 0.4593 0.497 0.4542 0.5489 0.5521 0.4001 0.4406 0.4003
2748.794 0.30189 0.35516 0.3827 0.35474 0.3624 0.4258 0.4269 0.3988 0.411 0.4393
2768.083 0.5386 0.6008 0.6105 0.5982 0.6004 0.6755 0.6998 0.6765 0.6935 0.6591
2787.373 0.6259 0.7166 0.7229 0.6922 0.6548 0.6657 0.6749 0.6498 0.7105 0.6484
2806.663 0.5808 0.6457 0.7559 0.8427 0.8529 0.9132 0.9681 0.8803 0.8369 0.9389
2825.953 1.0914 1.2501 1.2424 1.1776 1.243 1.319 1.2286 1.1507 1.1688 1.2032
2845.242 1.247 1.289 1.449 1.539 1.579 1.659 1.689 1.859 1.999 2.029
2864.532 2.199 2.329 2.339 2.299 2.319 2.319 2.329 2.319 2.219 2.179
2883.822 2.079 1.969 1.959 1.909 1.959 1.999 2.089 2.279 2.339 2.359
2903.112 2.419 2.569 2.779 2.879 3.009 3.159 3.309 3.549 3.809 4.139
2922.401 4.459 4.809 5.119 5.359 5.529 5.959 6.339 6.469 6.799 7.199
2941.691 7.429 7.659 7.829 7.889 7.709 7.469 7.299 6.949 6.589 6.149
2960.981 5.509 4.839 4.439 4.149 3.899 3.679 3.399 3.179 3.069 2.959
2980.271 2.849 2.709 2.639 2.479 2.139 1.909 1.759 1.739 1.689 1.589
2999.561 1.679 1.739 1.689 1.749 1.989 2.129 2.279 2.589 2.799 2.949
3018.850 3.219 3.639 3.879 4.019 4.389 4.809 5.269 5.819 6.399 7.069
3038.140 7.709 8.259 8.759 9.259 9.569 9.619 9.529 9.339 9.079 8.819
3057.430 8.589 8.479 8.439 8.539 8.809 9.199 9.759 10.369 10.909 11.399
3076.720 11.789 11.859 11.679 11.379 10.979 10.539 9.999 9.229 8.309 7.479
3096.009 7.069 6.759 6.369 6.149 5.859 5.489 5.059 4.519 3.909 3.469
3115.299 3.149 2.739 2.449 2.219 1.839 1.489 1.2255 1.0664 1.0286 1.0735
3134.589 1.0177 0.7863 0.6914 0.8125 0.8164 0.7183 0.6431 0.6 0.5426 0.5779
3153.879 0.7157 0.6596 0.566 0.6285 0.7081 0.5917 0.5166 0.5094 0.5414 0.6281
3173.169 0.498 0.4649 0.5532 0.5357 0.4716 0.4391 0.4856 0.5045 0.4441 0.4358
3192.458 0.6039 0.6816 0.5488 0.5067 0.5026 0.35558 0.386 0.6013 0.6617 0.5629
3211.748 0.524 0.4871 0.4186 0.3616 0.3593 0.433 0.4216 0.3705 0.4075 0.3608
3231.038 0.27323 0.2098 0.1657 0.29236 0.28964 0.1982 0.25279 0.3678 0.31618 0.30748
3250.328 0.32353 0.33579 0.3839 0.31257 0.3631 0.28699 0.26454 0.3951 0.4877 0.4167
3269.617 0.5172 0.4939 0.238 0.29948 0.31632 0.260664 0.239 0.4082 0.5547 0.4295
3288.907 0.4183 0.384 0.3729 0.5101 0.5723 0.5657 0.593 0.5969 0.7069 0.7337
3308.197 0.5327 0.6079 0.6825 0.566 0.5104 0.5785 0.6057 0.4792 0.4669 0.3998
3327.487 0.27411 0.31244 0.3863 0.4524 0.3905 0.32054 0.30341 0.4394 0.5602 0.6071
3346.777 0.564 0.4211 0.5939 0.6649 0.5907 0.6548 0.5857 0.5912 0.7418 0.8266
3366.066 0.9219 0.9333 0.8812 1.0178 1.0626 0.9732 0.9095 0.985 1.2034 1.389
3385.356 1.569 1.699 1.869 2.109 2.299 2.419 2.609 2.979 3.389 3.719
3404.646 4.079 4.529 5.099 5.729 6.399 7.019 7.749 8.539 9.089 9.729
3423.936 10.429 10.959 11.469 11.979 12.139 12.019 11.789 11.269 10.579 9.829
3443.225 9.039 8.279 7.479 6.509 5.599 4.999 4.489 4.099 3.839 3.399
3462.515 3.199 3.069 2.849 2.789 2.689 2.519 2.549 2.559 2.479 2.479
3481.805 2.579 2.729 2.789 2.809 2.879 3.089 3.399 3.569 3.699 4.029
3501.095 4.319 4.529 4.799 5.089 5.469 5.979 6.239 6.419 6.779 7.319
3520.385 8.009 8.789 9.629 10.659 11.809 12.929 13.719 14.489 15.369 16.289
3539.674 17.429 18.409 19.529 21.019 22.699 24.259 25.479 25.769 25.349 24.359
3558.964 22.649 20.389 17.409 14.329 11.319 8.499 6.309 4.769 3.659 2.969
3578.254 2.649 2.269 2.089 1.929 1.679 1.459 1.409 1.459 1.389 1.2329
3597.544 1.2212 1.1256 0.8664 0.8881 0.8896 0.7713 0.7389 0.6826 0.6159 0.6179
3616.833 0.6259 0.6528 0.6953 0.6233 0.4618 0.5436 0.6665 0.6048 0.5917 0.5843
3636.123 0.5728 0.6182 0.6386 0.5356 0.5963 0.6507 0.6116 0.6652 0.6574 0.6571
3655.413 0.6793 0.6125 0.535 0.5962 0.5764 0.5624 0.6058 0.5557 0.5768 0.4852
3674.703 0.28705 0.3817 0.4235 0.31879 0.4974 0.5377 0.4758 0.6452 0.5148 0.3836
3693.993 0.4809 0.5189 0.34357 0.3624 0.4965 0.3873 0.28253 0.2298 0.31628 0.4215
3713.282 0.3862 0.3622 0.3638 0.265639 0.25163 0.260117 0.4242 0.6285 0.5831 0.4749
3732.572 0.4374 0.4951 0.4494 0.33376 0.1933 0.2286 0.4077 0.4636 0.4727 0.4443
3751.862 0.258186 0.3671 0.4626 0.259201 0.2338 0.363 0.4294 0.4426 0.4526 0.4297
3771.152 0.3859 0.29821 0.29585 0.116 0.005 0.2389 0.2395 0.33586 0.5528 0.4272
3790.441 0.4279 0.5226 0.4572 0.4792 0.4571 0.4298 0.5996 0.5618 0.3818 0.30741
3809.731 0.28121 0.35898 0.4412 0.30073 0.28188 0.25685 0.259257 0.4247 0.3767 0.31148
3829.021 0.24984 0.3137 0.5129 0.5112 0.31585 0.32869 0.3996 0.34926 0.34981 0.3897
3848.311 0.2074 0 0.113 0.142 0.25403 0.32214 0.266795 0.30197 0.1915 0.1981
3867.601 0.25648 0.34375 0.556 0.4595 0.34286 0.4353 0.3466 0.2343 0.1844 0.1628
3886.890 0.258926 0.30954 0.25108 0.24987 0.31324 0.3328 0.3887 0.33076 0.3892 0.5526
3906.180 0.4793 0.4524 0.31566 0.32727 0.4697 0.4311 0.2359 0.141 0.264044 0.3031
3925.470 0.4371 0.3964 0.29241 0.31767 0.1861 0.24999 0.35058 0.2354 0.1972 0.2461
3944.760 0.391 0.3908 0.33084 0.4302 0.4783 0.4206 0.35255 0.29493 0.29952 0.3808
3964.049 0.4486 0.29014 0.2263 0.4858 0.4884 0.32729 0.2036 0.33817 0.4951 0.4572
3983.339 0.4427 0.5101 0.6406 0.5558 0.3905 0.4581 0.3717 0.28524 0.4142 0.28327
##END=
