##TITLE=1,4-Dibenzyloxybenzene
##JCAMP-DX=4.24
##DATA TYPE=INFRARED SPECTRUM
##ORIGIN=EPA-IR VAPOR PHASE LIBRARY
##OWNER=SRD/NIST
Collection (C) 2018 copyright by the U.S. Secretary of Commerce
on behalf of the United States of America. All rights reserved.
##CAS REGISTRY NO=621-91-0
##MOLFORM=C20 H18 O2
##$NIST SOURCE=MSDC-IR
##STATE=gas
##XUNITS=1/CM
##YUNITS=ABSORBANCE
##XFACTOR=1.
##YFACTOR=0.001
##DELTAX=1.92898
##FIRSTX=549.8
##LASTX=4000.7
##FIRSTY=2.587
##MAXX=4000.7
##MINX=549.759
##MAXY=0.120457
##MINY=0
##NPOINTS=1790
##XYDATA=(X++(Y..Y))
549.759 2.587 2.277 2.087 2.517 2.397 2.197 2.297 1.877 1.647 1.917
569.049 2.017 2.097 1.927 1.677 1.717 1.847 1.827 1.927 1.977 1.787
588.339 1.937 2.097 1.967 2.017 2.167 2.247 2.467 2.377 2.357 2.367
607.628 2.317 2.277 2.067 1.917 1.707 1.567 1.497 1.427 1.447 1.467
626.918 1.257 1.147 1.1091 1.0527 1.137 1.247 1.317 1.417 1.307 1.167
646.208 1.307 1.267 1.267 1.517 1.347 1.247 1.457 1.687 1.997 2.197
665.498 2.447 2.707 3.007 3.677 4.477 5.027 5.427 6.047 6.877 7.787
684.787 8.717 9.557 10.947 12.857 14.167 14.667 14.657 13.807 12.837 12.057
704.077 11.337 10.877 10.317 9.937 9.677 9.807 10.237 10.437 10.687 10.977
723.367 11.337 12.057 12.677 13.377 14.107 14.707 15.427 15.927 16.307 16.457
742.657 16.047 15.427 15.107 14.707 14.217 13.557 12.897 12.577 11.867 10.997
761.947 10.147 9.077 8.097 7.397 6.747 6.187 5.727 5.477 5.267 4.867
781.236 4.547 4.087 3.557 3.417 3.447 3.537 3.797 3.757 3.517 3.487
800.526 3.617 3.737 3.817 3.907 4.217 4.657 5.337 6.217 6.847 7.607
819.816 8.287 8.947 9.757 10.237 10.457 10.477 10.197 9.757 9.327 8.797
839.106 8.187 7.577 6.927 6.567 6.137 5.757 5.507 5.047 4.497 4.137
858.395 4.087 3.987 3.867 3.657 3.347 3.137 2.977 2.637 2.497 2.557
877.685 2.517 2.627 2.627 2.477 2.467 2.557 2.767 3.067 3.197 3.187
896.975 3.297 3.517 3.817 3.917 3.827 3.817 3.677 3.627 3.517 3.227
916.265 2.957 2.697 2.667 2.737 2.717 2.527 2.447 2.357 2.337 2.227
935.555 2.127 2.127 2.037 2.127 2.267 2.327 2.377 2.467 2.547 2.567
954.844 2.527 2.727 2.977 3.217 3.327 3.517 3.787 4.167 4.757 5.257
974.134 5.687 6.097 6.767 7.487 8.167 8.827 9.427 10.387 11.407 12.277
993.424 13.107 13.957 14.617 15.107 15.897 16.817 17.707 18.607 19.417 20.407
1012.714 21.727 23.177 24.677 26.277 28.027 29.907 30.977 30.567 29.067 26.817
1032.003 25.047 24.327 24.077 23.737 22.697 21.117 19.227 16.917 14.737 12.687
1051.293 10.867 9.547 8.637 7.927 7.187 6.507 6.047 5.797 5.527 5.327
1070.583 5.507 5.727 5.587 5.327 5.487 5.297 4.677 4.197 4.117 4.507
1089.873 4.157 4.067 4.567 4.707 5.217 5.167 4.847 5.177 5.287 4.707
1109.163 3.737 3.227 3.337 3.407 2.937 2.567 2.307 2.207 2.417 2.037
1128.452 1.437 1.517 1.907 2.377 2.027 1.297 1.447 1.677 1.757 1.797
1147.742 2.167 2.557 2.627 2.667 3.037 3.357 3.177 3.647 4.457 4.847
1167.032 5.577 6.767 8.077 9.637 11.987 14.847 17.187 19.647 22.517 25.687
1186.322 30.287 36.107 42.697 49.027 53.077 55.637 57.237 57.397 57.187 57.257
1205.611 57.347 58.877 61.497 64.037 66.657 68.367 68.647 67.797 65.547 62.497
1224.901 59.387 56.217 52.907 49.497 46.027 42.467 39.217 36.337 32.977 29.897
1244.191 27.667 25.147 23.127 21.737 20.407 19.207 18.067 17.077 16.247 15.497
1263.481 14.737 13.927 13.267 12.887 12.587 12.307 11.857 11.397 11.247 11.067
1282.771 10.727 10.527 10.267 9.927 9.537 9.167 8.857 8.577 8.337 8.047
1302.060 7.817 7.667 7.417 7.087 6.797 6.487 6.177 5.827 5.417 5.067
1321.350 4.737 4.487 4.317 4.077 3.877 3.807 3.667 3.517 3.447 3.357
1340.640 3.247 3.227 3.247 3.257 3.297 3.467 3.677 3.857 4.137 4.597
1359.930 5.247 6.017 6.937 7.997 9.017 9.887 10.647 11.307 11.857 12.337
1379.219 12.377 11.607 10.177 8.327 6.557 5.157 4.187 3.517 3.077 2.767
1398.509 2.477 2.327 2.227 2.177 2.197 2.177 2.217 2.267 2.287 2.407
1417.799 2.557 2.667 2.747 2.817 2.957 3.157 3.327 3.467 3.637 3.937
1437.089 4.277 4.637 5.077 5.567 6.107 6.747 7.497 8.207 8.867 9.457
1456.378 9.997 10.537 11.137 11.947 12.857 13.657 13.917 13.367 12.167 10.757
1475.668 9.687 9.177 9.197 9.807 10.857 12.357 14.637 18.007 22.877 29.797
1494.958 39.797 53.817 72.087 93.157 111.827 120.457 114.147 94.507 69.127 46.327
1514.248 31.087 21.987 16.507 13.137 10.747 9.027 7.777 6.887 6.147 5.527
1533.538 5.007 4.557 4.277 3.967 3.677 3.367 3.137 2.977 2.797 2.667
1552.827 2.637 2.577 2.507 2.557 2.517 2.467 2.507 2.547 2.527 2.537
1572.117 2.597 2.667 2.807 2.887 2.917 3.147 3.447 3.597 3.747 3.797
1591.407 3.717 3.637 3.537 3.447 3.357 3.437 3.527 3.437 3.347 3.207
1610.697 3.027 2.927 2.747 2.527 2.337 2.107 1.957 1.857 1.747 1.647
1629.986 1.567 1.507 1.557 1.567 1.467 1.397 1.397 1.307 1.197 1.157
1649.276 1.197 1.327 1.337 1.207 1.137 1.137 1.167 1.207 1.197 1.167
1668.566 1.157 1.197 1.157 1.0811 1.0545 1.0416 1.0134 0.9482 0.9284 0.9323
1687.856 0.8895 0.8543 0.8941 0.8979 0.8864 0.8789 0.8566 0.8462 0.8396 0.8627
1707.146 0.9004 0.9281 0.9572 1.0113 1.0074 0.9693 1.0133 1.137 1.217 1.237
1726.435 1.227 1.227 1.287 1.307 1.247 1.187 1.197 1.197 1.1163 1.1085
1745.725 1.127 1.0199 0.9621 0.9696 0.9416 0.9466 0.949 0.913 0.8369 0.861
1765.015 0.884 0.8375 0.8057 0.8579 0.8815 0.8135 0.8846 1.0223 1.0135 0.9835
1784.305 1.0608 1.127 1.187 1.307 1.427 1.567 1.677 1.747 1.767 1.677
1803.594 1.577 1.457 1.327 1.277 1.237 1.127 1.0977 1.117 1.1078 1.0769
1822.884 1.0559 1.0864 1.1126 1.0634 1.0587 1.117 1.0866 1.1023 1.187 1.207
1842.174 1.217 1.277 1.347 1.397 1.437 1.497 1.497 1.487 1.577 1.607
1861.464 1.597 1.627 1.667 1.647 1.677 1.637 1.557 1.607 1.657 1.617
1880.754 1.597 1.577 1.487 1.347 1.277 1.227 1.127 1.0707 1.0105 0.9211
1900.043 0.914 0.9866 0.9505 0.8933 0.9329 0.9582 0.9574 0.9649 0.9541 0.9281
1919.333 0.967 1.0646 1.147 1.197 1.207 1.267 1.337 1.407 1.447 1.527
1938.623 1.597 1.597 1.627 1.647 1.677 1.697 1.727 1.787 1.787 1.767
1957.913 1.727 1.647 1.567 1.437 1.307 1.247 1.197 1.0884 1.0192 1.0471
1977.202 1.0603 1.0468 1.0104 1.0357 1.0629 1.0653 1.0826 1.147 1.137 1.0902
1996.492 1.0672 1.0735 1.167 1.277 1.317 1.297 1.297 1.317 1.257 1.227
2015.782 1.247 1.277 1.317 1.307 1.317 1.357 1.357 1.337 1.327 1.387
2035.072 1.337 1.307 1.337 1.317 1.337 1.287 1.257 1.257 1.227 1.237
2054.362 1.157 1.147 1.257 1.207 1.157 1.147 1.117 1.127 1.147 1.157
2073.651 1.137 1.0164 0.9659 1.0539 1.0236 0.9706 0.9499 0.9301 0.9451 0.9428
2092.941 0.8881 0.8475 0.8684 0.8529 0.8189 0.7772 0.7314 0.7149 0.7154 0.6882
2112.231 0.6557 0.6429 0.597 0.6031 0.6204 0.6006 0.555 0.5037 0.5081 0.4714
2131.521 0.404 0.4126 0.4589 0.472 0.4759 0.4727 0.4261 0.3974 0.3805 0.3218
2150.810 0.3023 0.3301 0.3699 0.3808 0.3676 0.3414 0.3642 0.456 0.4532 0.3935
2170.100 0.3491 0.3416 0.4012 0.4761 0.4882 0.4916 0.4694 0.4103 0.4099 0.4535
2189.390 0.4278 0.427 0.4985 0.5106 0.4251 0.3789 0.3921 0.428 0.513 0.5
2208.680 0.4926 0.4573 0.423 0.4618 0.4471 0.4104 0.4174 0.4855 0.4857 0.4298
2227.970 0.4688 0.4753 0.4925 0.5192 0.5064 0.489 0.4558 0.4911 0.5133 0.5407
2247.259 0.5567 0.5496 0.505 0.4902 0.5053 0.4886 0.5164 0.5308 0.5333 0.4677
2266.549 0.4028 0.4763 0.5005 0.4658 0.5546 0.6295 0.601 0.5063 0.4512 0.4968
2285.839 0.4828 0.491 0.5117 0.5309 0.6559 0.6219 0.4785 0.4858 0.5521 0.547
2305.129 0.5382 0.6129 0.7242 0.8199 0.8092 0.7961 0.7702 0.7613 0.822 0.7502
2324.418 0.7005 0.7569 0.779 0.7971 0.7318 0.7046 0.7366 0.7793 0.8151 0.8018
2343.708 0.8283 0.8043 0.7843 0.7622 0.7732 0.7626 0.7599 0.7821 0.7195 0.714
2362.998 0.712 0.683 0.6577 0.6904 0.656 0.555 0.5997 0.6479 0.6208 0.6383
2382.288 0.6495 0.645 0.5921 0.5225 0.5529 0.514 0.5732 0.6429 0.6254 0.627
2401.578 0.6607 0.6649 0.6287 0.6637 0.6338 0.5837 0.5668 0.5899 0.6416 0.7238
2420.867 0.6815 0.5765 0.5704 0.6084 0.6684 0.7161 0.7995 0.8192 0.7339 0.8207
2440.157 0.833 0.7806 0.7221 0.6529 0.7332 0.8012 0.8496 0.8682 0.9224 0.8932
2459.447 0.8582 0.86 0.8323 0.8062 0.733 0.6898 0.6914 0.737 0.8015 0.7229
2478.737 0.6521 0.6552 0.6131 0.6156 0.6853 0.6598 0.6003 0.5946 0.5935 0.6193
2498.026 0.6791 0.6848 0.6397 0.6757 0.6043 0.5704 0.5535 0.5451 0.5861 0.5637
2517.316 0.5885 0.6176 0.6274 0.6008 0.5958 0.6619 0.6371 0.5612 0.5761 0.5477
2536.606 0.5379 0.5964 0.5395 0.4631 0.4339 0.4395 0.5539 0.5729 0.4461 0.4184
2555.896 0.3941 0.2794 0.3579 0.4742 0.5128 0.5564 0.4725 0.4134 0.4371 0.4892
2575.186 0.516 0.473 0.4254 0.5112 0.5621 0.5208 0.5197 0.4631 0.4761 0.5246
2594.475 0.553 0.5096 0.4249 0.4618 0.4267 0.4185 0.4227 0.4934 0.6417 0.4988
2613.765 0.3757 0.3668 0.3643 0.365 0.3994 0.3895 0.3863 0.4741 0.4796 0.4544
2633.055 0.4552 0.3995 0.3964 0.4633 0.456 0.4331 0.3228 0.2181 0.2859 0.4131
2652.345 0.4501 0.4665 0.4791 0.4161 0.3188 0.3621 0.3476 0.3486 0.4073 0.3435
2671.634 0.3383 0.4062 0.3578 0.3306 0.4596 0.4835 0.4536 0.4037 0.3853 0.4398
2690.924 0.4518 0.4267 0.449 0.4963 0.4721 0.462 0.4845 0.5412 0.5467 0.5053
2710.214 0.506 0.5068 0.629 0.6976 0.6657 0.6341 0.625 0.6231 0.6288 0.6327
2729.504 0.5695 0.6021 0.6164 0.5773 0.6025 0.5465 0.5532 0.6106 0.5792 0.5362
2748.794 0.5501 0.5519 0.5335 0.5886 0.5564 0.4348 0.4212 0.4751 0.5224 0.5662
2768.083 0.5626 0.5596 0.5743 0.6206 0.65 0.5892 0.5252 0.5861 0.665 0.6752
2787.373 0.6467 0.7139 0.8565 0.8605 0.8311 0.8043 0.7717 0.8324 0.9 0.9123
2806.663 0.8711 0.9512 1.0686 1.102 1.187 1.327 1.377 1.357 1.477 1.557
2825.953 1.507 1.557 1.647 1.677 1.707 1.787 1.877 2.017 2.127 2.177
2845.242 2.227 2.297 2.517 2.617 2.737 2.937 3.137 3.297 3.607 4.007
2864.532 4.337 4.607 4.977 5.427 5.697 6.057 6.377 6.667 6.997 7.147
2883.822 7.147 7.037 6.797 6.487 6.257 5.967 5.607 5.397 5.257 5.127
2903.112 4.937 4.897 4.807 4.697 4.727 4.707 4.727 4.827 4.887 4.937
2922.401 5.097 5.287 5.367 5.447 5.637 5.737 5.817 5.957 6.017 6.057
2941.691 6.107 6.237 6.277 6.217 6.127 5.957 5.797 5.607 5.337 5.087
2960.981 4.677 4.387 4.197 3.777 3.457 3.237 2.957 2.657 2.357 2.147
2980.271 2.007 1.787 1.637 1.677 1.597 1.607 1.807 1.827 1.907 2.047
2999.561 2.127 2.137 2.197 2.337 2.607 2.877 3.077 3.347 3.637 4.027
3018.850 4.587 5.187 5.947 6.897 7.767 8.717 9.607 10.417 11.297 11.867
3038.140 12.267 12.537 12.497 12.347 12.177 11.957 11.457 10.897 10.447 10.027
3057.430 9.807 9.797 10.117 10.787 11.607 12.597 13.517 14.297 14.407 13.707
3076.720 12.377 10.767 9.467 8.607 8.027 7.597 7.187 6.797 6.537 6.097
3096.009 5.857 5.727 5.377 5.027 4.717 4.507 4.227 3.857 3.627 3.307
3115.299 3.037 2.777 2.397 2.027 1.847 1.687 1.387 1.247 1.137 0.854
3134.589 0.6708 0.7311 0.8001 0.7392 0.6105 0.5432 0.4641 0.4095 0.384 0.3733
3153.879 0.3338 0.3826 0.4058 0.3661 0.3994 0.4299 0.4467 0.3564 0.3137 0.3126
3173.169 0.4309 0.4181 0.3178 0.4371 0.4917 0.5469 0.4627 0.3419 0.3501 0.4546
3192.458 0.3258 0.2798 0.4261 0.3233 0.21075 0.2788 0.3284 0.2183 0.17084 0.2466
3211.748 0.3779 0.3135 0.19559 0.2584 0.2754 0.2446 0.3328 0.3479 0.4503 0.4975
3231.038 0.3289 0.2701 0.18909 0.20996 0.3231 0.3032 0.2764 0.2897 0.3342 0.3595
3250.328 0.2574 0.13699 0.241 0.3861 0.2422 0.18919 0.2269 0.18601 0.20549 0.2969
3269.617 0.3586 0.2195 0.0787 0.0481 0.116958 0.20628 0.1057 0.122052 0.2572 0.2583
3288.907 0.2173 0.2162 0.299 0.3597 0.308 0.2815 0.2773 0.2304 0.1751 0.15903
3308.197 0.16258 0.2602 0.2356 0.2442 0.2222 0.121407 0.2627 0.2476 0.13603 0.2246
3327.487 0.3629 0.2515 0.158 0.2853 0.3494 0.2234 0.16953 0.2731 0.3403 0.2623
3346.777 0.1057 0.11045 0.1451 0.2616 0.2773 0.0264 0.0534 0.19552 0.19149 0.2726
3366.066 0.3277 0.132 0.14246 0.2352 0.2483 0.4124 0.4087 0.20139 0.10925 0.2378
3385.356 0.2685 0.12996 0.2754 0.36 0.2596 0.3254 0.3231 0.1028 0.0238 0.2321
3404.646 0.3317 0.2801 0.321 0.19979 0.0346 0.0715 0.117709 0.0826 0 0.0791
3423.936 0.20967 0.15529 0.16296 0.2436 0.2615 0.3084 0.3545 0.3545 0.2882 0.1734
3443.225 0.17822 0.3024 0.2677 0.3005 0.3259 0.2451 0.16476 0.19971 0.296 0.2724
3462.515 0.2398 0.2188 0.2541 0.3048 0.18341 0.0518 0.21587 0.3777 0.19264 0.0926
3481.805 0.246 0.3173 0.3241 0.3847 0.3536 0.2754 0.2321 0.14152 0.2229 0.3632
3501.095 0.20775 0.0899 0.0966 0.13656 0.2317 0.3331 0.3984 0.2243 0.2279 0.4117
3520.385 0.3043 0.116973 0.19598 0.326 0.21239 0.1057 0.15068 0.17623 0.0941 0.1032
3539.674 0.19731 0.2395 0.2292 0.20166 0.307 0.2993 0.16252 0.3697 0.5424 0.4013
3558.964 0.3437 0.3768 0.3416 0.2452 0.2603 0.3399 0.3493 0.4017 0.3816 0.334
3578.254 0.353 0.2585 0.3124 0.3235 0.21563 0.2743 0.2833 0.3808 0.4437 0.3498
3597.544 0.258 0.2516 0.20319 0.223 0.3478 0.5119 0.4466 0.2661 0.2681 0.245
3616.833 0.3236 0.427 0.3847 0.3907 0.372 0.2543 0.3882 0.4635 0.3503 0.4308
3636.123 0.5062 0.4748 0.5086 0.4891 0.3528 0.335 0.3072 0.3295 0.3709 0.3335
3655.413 0.4496 0.4366 0.3277 0.299 0.2872 0.3254 0.3644 0.4027 0.5375 0.59
3674.703 0.5693 0.4285 0.3006 0.3599 0.4922 0.4903 0.3268 0.3303 0.3964 0.4985
3693.993 0.4874 0.2674 0.3172 0.4713 0.4937 0.3949 0.4363 0.5034 0.3398 0.3557
3713.282 0.4144 0.3844 0.3332 0.21579 0.3128 0.4052 0.3676 0.2548 0.2638 0.4224
3732.572 0.3328 0.307 0.4625 0.4403 0.3552 0.3031 0.17103 0.0955 0.19433 0.2811
3751.862 0.3066 0.317 0.2948 0.4029 0.3893 0.3256 0.3293 0.3911 0.4106 0.2754
3771.152 0.17799 0.20388 0.3685 0.468 0.4527 0.3769 0.3883 0.3826 0.20425 0.16624
3790.441 0.1369 0.0798 0.20138 0.3078 0.3288 0.17599 0.16522 0.2601 0.2539 0.3625
3809.731 0.2516 0.2369 0.4847 0.4904 0.4041 0.4341 0.3252 0.2555 0.226 0.3525
3829.021 0.2789 0.0231 0.14482 0.2948 0.3276 0.2447 0.268 0.3108 0.2893 0.2618
3848.311 0.3128 0.445 0.5215 0.4202 0.3394 0.2836 0.19073 0.18442 0.2214 0.3949
3867.601 0.4206 0.3785 0.4766 0.4645 0.3926 0.4 0.4811 0.4842 0.3328 0.20872
3886.890 0.3578 0.5065 0.4667 0.4364 0.33 0.2918 0.4282 0.4535 0.4518 0.395
3906.180 0.2936 0.282 0.2435 0.17588 0.18043 0.3843 0.5968 0.5367 0.4814 0.4569
3925.470 0.3358 0.3558 0.4263 0.4629 0.47 0.3879 0.3925 0.4607 0.3415 0.3603
3944.760 0.4093 0.3164 0.2763 0.19961 0.16884 0.21613 0.4012 0.4614 0.3555 0.2473
3964.049 0.19142 0.289 0.2528 0.3521 0.5488 0.3719 0.2979 0.3713 0.2824 0.2349
3983.339 0.3369 0.4119 0.3149 0.2692 0.3206 0.3394 0.4841 0.5382 0.3829 0.2459
##END=
