##TITLE=3-Hydroxy-4-methoxybenzaldehyde
##JCAMP-DX=4.24
##DATA TYPE=INFRARED SPECTRUM
##ORIGIN=EPA-IR VAPOR PHASE LIBRARY
##OWNER=SRD/NIST
Collection (C) 2018 copyright by the U.S. Secretary of Commerce
on behalf of the United States of America. All rights reserved.
##CAS REGISTRY NO=621-59-0
##MOLFORM=C 8 H 8 O 3
##$NIST SOURCE=MSDC-IR
##STATE=gas
##XUNITS=1/CM
##YUNITS=ABSORBANCE
##XFACTOR=1.
##YFACTOR=0.001
##DELTAX=1.92898
##FIRSTX=549.8
##LASTX=4000.7
##FIRSTY=3.4151
##MAXX=4000.7
##MINX=549.759
##MAXY=0.158605
##MINY=0
##NPOINTS=1790
##XYDATA=(X++(Y..Y))
549.759 3.4151 3.4851 3.3551 3.0251 2.8751 2.9351 2.6651 2.5351 2.6651 2.6351
569.049 2.9151 3.4151 3.7451 3.8351 4.1251 4.4351 4.6751 5.0351 5.2351 5.2951
588.339 5.0751 4.5351 4.1351 3.9351 3.5951 3.2851 3.1851 3.1151 3.0251 2.9551
607.628 2.9651 3.1151 3.5051 4.2851 5.1151 5.9551 7.1251 8.1251 8.7451 9.4251
626.918 10.0351 10.4751 10.6251 10.2251 9.4651 8.8051 8.1751 7.1651 6.0651 5.0351
646.208 4.0851 3.3051 2.8351 2.6851 2.3051 1.9451 1.7551 1.4651 1.3451 1.2751
665.498 1.3551 1.2851 1.2451 1.3651 1.3951 1.4251 1.4251 1.4551 1.4051 1.4751
684.787 1.6351 1.6851 1.6751 1.6051 1.5051 1.4951 1.5751 1.5751 1.6051 1.7651
704.077 1.7151 1.5351 1.6251 1.7151 1.6051 1.7051 1.9151 2.0751 2.2351 2.3651
723.367 2.6151 3.0451 3.5551 4.0551 4.6751 5.7251 6.9351 8.2451 9.6751 11.2851
742.657 13.0051 14.5651 15.7451 16.6351 17.3551 17.8251 17.8951 17.4951 16.6851 15.7251
761.947 14.6351 13.6351 13.1651 13.0151 13.1851 13.9451 15.2951 17.3351 19.5851 21.4951
781.236 23.0351 24.1451 24.7451 24.8851 24.7851 24.4451 23.6351 22.4051 20.9451 19.4851
800.526 18.3851 17.9151 17.5951 16.9351 15.9751 14.7051 13.3651 11.9251 10.7951 9.7051
819.816 8.3551 7.3151 6.5351 5.7051 4.9651 4.4151 3.9451 3.3351 2.9151 2.7351
839.106 2.6151 2.5951 2.4351 2.2751 2.2851 2.4151 2.4651 2.5451 2.8151 3.2251
858.395 3.5751 3.8151 4.2951 4.8551 5.1051 5.6651 6.4351 6.9851 7.2351 7.0951
877.685 6.8951 6.7351 6.5251 6.4851 6.5651 6.6051 6.5351 6.0351 5.2251 4.6151
896.975 4.3151 3.9851 3.6251 3.2351 2.9251 2.6551 2.3351 2.1251 2.0851 2.1551
916.265 2.1051 2.0251 2.0651 2.1951 2.3551 2.5451 2.7751 2.9151 3.1451 3.5751
935.555 4.1351 4.7251 5.1051 5.4351 5.9151 6.2051 6.3251 6.3551 6.6551 6.9551
954.844 6.9651 6.8351 6.7551 6.7951 6.8451 7.0751 7.2651 7.2251 7.1451 7.0751
974.134 7.1151 7.2551 7.2651 6.9451 6.7751 6.6751 6.5551 6.6251 6.5051 6.4051
993.424 6.5051 7.0251 7.4851 7.8051 8.2151 8.6451 9.3051 10.0651 11.1151 12.3551
1012.714 13.7651 15.0351 16.3051 17.7051 19.1051 20.4651 21.5751 22.1751 22.3651 22.5251
1032.003 22.2051 21.2951 19.9151 18.0651 16.5151 14.8051 12.5351 10.3551 8.6551 7.3051
1051.293 6.3051 5.9251 5.2351 4.6551 4.4751 4.1051 3.8051 3.8751 4.0951 4.0251
1070.583 3.8051 3.8351 4.1351 4.6251 4.9251 4.7451 4.9851 5.4151 5.3951 5.8951
1089.873 7.1251 8.3951 9.5151 11.0651 13.7251 17.0751 20.9051 25.9051 31.1051 35.7651
1109.163 40.5751 45.0551 49.2451 53.6651 57.5851 59.9951 59.6451 57.0051 53.2351 49.5251
1128.452 46.3751 42.6251 38.2451 33.2551 28.5651 25.7351 24.3651 23.6451 23.3851 23.3251
1147.742 23.0151 22.6751 22.0351 21.0251 20.1851 18.8751 17.4651 16.3851 15.6951 15.4051
1167.032 15.0351 14.7351 14.7351 14.5551 14.0551 14.0151 14.0851 13.8651 13.8651 13.7851
1186.322 13.6351 13.7451 14.0551 14.6051 15.5351 17.0651 18.8851 20.7751 23.0651 25.2351
1205.611 26.6051 27.2951 27.5151 27.4151 27.0651 26.8051 26.3851 25.8251 25.7451 26.7051
1224.901 28.8151 31.6951 35.3751 39.4051 43.2151 46.6951 49.8351 52.3451 54.3751 55.9751
1244.191 56.5951 56.4151 55.7051 55.0551 55.5251 57.4651 61.1651 66.9451 75.0051 85.6751
1263.481 98.5051 111.975 125.225 137.535 147.635 154.835 158.605 158.555 154.495 146.355
1282.771 134.945 121.745 107.975 94.9051 83.4251 73.3051 63.9851 55.1451 46.8251 39.4051
1302.060 33.2751 28.6451 25.3051 22.9051 21.2951 20.3351 19.8951 19.8651 20.1051 20.6551
1321.350 21.3751 22.1851 23.1651 24.1351 25.0751 25.9251 26.5351 26.8951 26.9751 26.6851
1340.640 26.0151 24.9651 23.5851 21.9151 20.0451 18.1151 16.1851 14.2551 12.4451 10.8351
1359.930 9.4651 8.3651 7.4751 6.8251 6.3451 6.0251 5.8951 5.8851 5.9851 6.2151
1379.219 6.4751 6.7551 7.0851 7.5051 7.9151 8.2151 8.4651 8.5551 8.4551 8.2451
1398.509 7.9151 7.4751 7.0151 6.5551 6.0451 5.5651 5.2051 5.0651 5.1651 5.3551
1417.799 5.6451 6.0751 6.7151 7.4951 8.4851 9.7351 11.3351 13.2051 15.5051 18.1251
1437.089 21.1851 24.3651 27.2551 29.5951 31.2951 32.6051 34.0751 35.9551 37.8051 38.6051
1456.378 38.2151 37.4451 36.6251 35.4651 33.8451 31.9851 29.7551 27.1451 24.5951 22.4351
1475.668 21.0051 20.0351 19.4651 19.2851 19.5351 20.2551 21.6751 23.9051 27.0751 31.2151
1494.958 36.2551 42.2151 48.3951 54.0151 58.2951 60.7851 61.7051 61.0751 58.9251 55.2151
1514.248 50.0551 43.9051 37.4151 31.6351 26.5751 22.7551 19.7751 17.3051 15.1451 13.2751
1533.538 11.7051 10.3451 9.2151 8.2151 7.3551 6.6851 6.2051 5.8851 5.7451 5.6951
1552.827 5.7451 5.9051 6.1351 6.4851 7.1451 7.9951 8.9751 10.0851 11.4251 13.1051
1572.117 15.0051 17.1451 19.5551 22.1551 24.6751 27.0951 29.3351 31.2551 32.7951 33.9151
1591.407 34.6451 35.1651 35.4151 35.5651 35.6851 35.7551 36.0351 36.5651 37.1351 37.6051
1610.697 37.8451 37.5351 36.4251 34.4751 31.8951 28.8251 25.2751 21.5051 18.0051 14.8951
1629.986 12.3451 10.3551 8.8051 7.6751 6.8251 6.1751 5.5951 5.0851 4.6651 4.3551
1649.276 4.1151 3.8351 3.6651 3.6551 3.6451 3.6851 3.7651 3.9051 4.1951 4.5351
1668.566 4.8651 5.2251 5.6351 6.0651 6.5551 7.1051 7.7351 8.3751 9.1251 10.1851
1687.856 11.5751 13.4451 15.9251 19.0851 23.5451 29.3751 36.7251 46.9051 58.2851 71.4351
1707.146 84.7051 96.7551 106.265 112.685 116.125 116.615 113.785 107.565 97.2351 84.2851
1726.435 71.1951 59.8051 50.3251 42.3851 35.0651 28.8051 23.7551 19.4251 15.9751 13.1851
1745.725 10.8451 8.9451 7.4551 6.1651 5.2351 4.5851 4.0651 3.7051 3.4151 3.1851
1765.015 3.0651 2.9351 2.8751 2.8151 2.7151 2.6551 2.5851 2.5451 2.5151 2.4951
1784.305 2.4751 2.4051 2.3651 2.3051 2.2351 2.2651 2.2851 2.2651 2.2451 2.2151
1803.594 2.1251 2.1251 2.0951 2.0251 1.9551 1.8551 1.8051 1.7951 1.7451 1.7351
1822.884 1.7251 1.6551 1.5951 1.5851 1.5951 1.5951 1.5851 1.5851 1.5351 1.4651
1842.174 1.4951 1.5151 1.4851 1.4851 1.5151 1.5451 1.5651 1.5851 1.6351 1.6951
1861.464 1.7151 1.7251 1.7851 1.8351 1.8351 1.8351 1.8351 1.9251 1.9651 1.9451
1880.754 1.9251 1.8651 1.8751 1.8851 1.8351 1.7651 1.7051 1.6451 1.6051 1.5251
1900.043 1.4651 1.4051 1.3351 1.2951 1.2051 1.1051 1.0751 1.0751 1.0336 0.9966
1919.333 0.9981 0.9326 0.9086 0.8961 0.858 0.8657 0.8466 0.7857 0.7796 0.7863
1938.623 0.7946 0.812 0.778 0.7494 0.725 0.7669 0.807 0.7917 0.7979 0.7968
1957.913 0.8197 0.8687 0.8785 0.8924 0.9177 0.9497 1.0137 1.1251 1.1551 1.0951
1977.202 1.1251 1.2751 1.3651 1.4451 1.5251 1.5651 1.5451 1.5651 1.6651 1.7251
1996.492 1.7051 1.6651 1.5951 1.6051 1.6651 1.6251 1.5551 1.6151 1.7251 1.7651
2015.782 1.7651 1.7951 1.8551 1.8951 1.8751 1.8951 1.9251 1.9051 1.8751 1.8651
2035.072 1.8351 1.7951 1.7651 1.7451 1.7251 1.7351 1.7551 1.7251 1.7051 1.7551
2054.362 1.7551 1.7051 1.7051 1.7051 1.6151 1.5351 1.5151 1.4351 1.3151 1.2251
2073.651 1.1851 1.1351 1.0551 1.0285 1.0423 1.0551 1.0509 1.0404 1.0551 1.0651
2092.941 1.0551 1.0551 1.0751 1.0951 1.0551 0.9971 0.9579 0.9153 0.8793 0.8888
2112.231 0.8756 0.8396 0.7558 0.7125 0.7458 0.7212 0.6608 0.615 0.6052 0.6179
2131.521 0.6012 0.6057 0.6601 0.632 0.5486 0.5565 0.5918 0.5949 0.6101 0.6004
2150.810 0.5519 0.5367 0.5202 0.5349 0.5714 0.5554 0.5373 0.5407 0.5151 0.4399
2170.100 0.4379 0.4407 0.4111 0.4499 0.4302 0.4427 0.5095 0.5249 0.5241 0.5351
2189.390 0.5249 0.5153 0.5518 0.5723 0.6105 0.6311 0.5575 0.5473 0.6169 0.6667
2208.680 0.7063 0.6921 0.6647 0.6758 0.7404 0.7672 0.8104 0.8365 0.8038 0.8152
2227.970 0.8512 0.8571 0.8433 0.9505 1.0951 1.1051 1.1251 1.1851 1.1951 1.2351
2247.259 1.2551 1.2551 1.2751 1.2951 1.2651 1.2951 1.3051 1.2351 1.2151 1.2451
2266.549 1.2451 1.1451 1.1351 1.1651 1.033 0.9393 0.9194 0.8264 0.752 0.7572
2285.839 0.7921 0.7359 0.7098 0.7285 0.6973 0.7123 0.7001 0.643 0.6274 0.6326
2305.129 0.5859 0.5288 0.5313 0.5313 0.5024 0.4632 0.4506 0.4598 0.4275 0.3855
2324.418 0.4104 0.4667 0.4589 0.5046 0.5667 0.5505 0.4684 0.4077 0.4173 0.4538
2343.708 0.5368 0.5546 0.5564 0.5758 0.6106 0.5932 0.5121 0.5405 0.5722 0.5842
2362.998 0.6191 0.6086 0.5968 0.6527 0.6958 0.6803 0.655 0.6868 0.7432 0.7712
2382.288 0.7729 0.7589 0.7125 0.7084 0.7422 0.6691 0.6408 0.6617 0.706 0.737
2401.578 0.7059 0.7467 0.7526 0.7493 0.784 0.7922 0.8141 0.7843 0.7974 0.8251
2420.867 0.7813 0.8225 0.858 0.8494 0.8286 0.8232 0.8037 0.7871 0.792 0.7856
2440.157 0.7614 0.7417 0.8156 0.7538 0.7028 0.7699 0.7343 0.7298 0.6781 0.6513
2459.447 0.795 0.7934 0.666 0.6314 0.6377 0.5984 0.6442 0.7037 0.6651 0.6809
2478.737 0.6386 0.5886 0.6443 0.6655 0.6351 0.6283 0.6596 0.6956 0.747 0.7487
2498.026 0.7665 0.7712 0.7608 0.7867 0.8092 0.8764 0.8937 0.9393 1.0343 1.1151
2517.316 1.2051 1.2751 1.3451 1.3451 1.3651 1.4751 1.5551 1.5451 1.5651 1.6351
2536.606 1.7551 1.8351 1.8151 1.8151 1.7951 1.7851 1.7751 1.7951 1.7551 1.7751
2555.896 1.7651 1.7751 1.8551 1.7851 1.7251 1.6551 1.6051 1.6451 1.6451 1.6751
2575.186 1.7051 1.6851 1.6551 1.6051 1.6651 1.7451 1.7251 1.7251 1.6851 1.5851
2594.475 1.5651 1.5351 1.4451 1.4151 1.4451 1.4651 1.4151 1.4251 1.4751 1.4551
2613.765 1.3451 1.3151 1.4351 1.4551 1.3851 1.3651 1.4051 1.4551 1.4551 1.4051
2633.055 1.4151 1.4451 1.4851 1.5251 1.5151 1.5051 1.5051 1.4851 1.5451 1.5551
2652.345 1.5151 1.6351 1.7051 1.7551 1.8351 1.9551 2.0551 2.1451 2.3251 2.3951
2671.634 2.5251 2.7651 2.9351 3.1051 3.3051 3.5951 3.8651 4.1351 4.4951 4.9951
2690.924 5.5351 6.1551 6.8851 7.6651 8.5251 9.4651 10.4651 11.3951 12.2451 13.1551
2710.214 14.0251 14.5951 15.0051 15.2851 15.2951 15.1651 15.0051 14.8251 14.5151 14.1751
2729.504 13.8151 13.5351 13.3751 13.3551 13.4251 13.3551 13.3551 13.2851 13.0651 12.7851
2748.794 12.4051 11.9451 11.4151 10.8551 10.1451 9.3251 8.6451 8.0551 7.4351 6.8851
2768.083 6.5051 6.1351 5.8151 5.5651 5.3251 5.2451 5.3851 5.5751 5.7551 6.0751
2787.373 6.6751 7.4951 8.5151 9.6751 11.0151 12.6251 14.3151 15.8851 17.2351 18.4751
2806.663 19.5751 20.4951 21.1751 21.1951 20.4651 19.3551 18.1451 16.8851 15.5051 14.0051
2825.953 12.4951 11.1451 9.9751 9.1051 8.5451 8.2151 8.2151 8.3451 8.5751 9.0451
2845.242 9.5451 9.9651 10.2151 10.3351 10.3051 10.0051 9.6651 9.1151 8.4451 7.8151
2864.532 6.9951 6.1551 5.3751 4.8051 4.3951 4.0351 3.9051 3.8051 3.7351 3.6851
2883.822 3.6951 3.6551 3.5851 3.6351 3.7251 3.8651 3.9251 4.0051 4.1851 4.3751
2903.112 4.6151 4.8051 5.0451 5.2451 5.4751 5.7851 6.0451 6.3551 6.5251 6.6251
2922.401 6.8051 6.8751 6.8651 7.0251 7.1951 7.3951 7.7851 8.2951 8.9351 9.7751
2941.691 10.7751 11.7051 12.6151 13.4151 14.0451 14.4951 14.7251 14.7551 14.5751 14.3151
2960.981 13.9351 13.4151 12.7751 12.2151 11.6851 11.1251 10.6951 10.1151 9.3651 8.6751
2980.271 8.0351 7.4451 7.0351 6.7051 6.3451 6.0851 5.8551 5.6551 5.6451 5.8451
2999.561 6.1551 6.5751 7.2051 7.8951 8.6951 9.4751 9.9851 10.2351 10.3351 10.1751
3018.850 9.8251 9.3651 8.7151 7.7851 6.7751 5.9751 5.4051 5.0251 4.7551 4.5651
3038.140 4.5451 4.4951 4.4151 4.3751 4.2451 4.1151 3.9051 3.7051 3.6151 3.5251
3057.430 3.4351 3.4851 3.6351 3.7351 3.8251 4.0251 4.2551 4.4651 4.7151 4.8051
3076.720 4.7551 4.7251 4.5451 4.3151 4.0451 3.7651 3.4551 3.1651 2.9651 2.7751
3096.009 2.6751 2.6251 2.4151 2.2351 2.1151 1.9951 1.9251 1.8551 1.7251 1.5351
3115.299 1.5251 1.4751 1.3451 1.3751 1.3651 1.2151 1.1451 1.0551 0.9109 0.9042
3134.589 0.9343 0.9074 0.8266 0.7391 0.7127 0.6953 0.7432 0.7783 0.7872 0.7288
3153.879 0.5839 0.6372 0.7448 0.7269 0.7102 0.7563 0.7529 0.7599 0.7907 0.7751
3173.169 0.7308 0.7325 0.6806 0.6727 0.7188 0.6514 0.619 0.6409 0.5969 0.512
3192.458 0.525 0.6 0.5965 0.5566 0.5012 0.4741 0.4755 0.5344 0.663 0.6802
3211.748 0.6601 0.6266 0.5878 0.5963 0.5309 0.4333 0.4265 0.478 0.5205 0.4754
3231.038 0.4756 0.491 0.4365 0.5118 0.4828 0.3918 0.4459 0.4119 0.3892 0.349
3250.328 0.3967 0.442 0.363 0.4265 0.4546 0.448 0.4544 0.4317 0.3122 0.2579
3269.617 0.4167 0.4607 0.3804 0.3317 0.2193 0.2378 0.3936 0.3979 0.3111 0.2734
3288.907 0.2734 0.2749 0.3124 0.3151 0.2827 0.3304 0.3281 0.36 0.3958 0.2283
3308.197 0.1681 0.3462 0.2964 0.1724 0.2647 0.263 0.2698 0.2374 0.2202 0.2795
3327.487 0.3171 0.353 0.3963 0.3901 0.3877 0.4861 0.4459 0.3601 0.3665 0.3788
3346.777 0.4694 0.5059 0.3942 0.3665 0.4671 0.4519 0.3942 0.3472 0.33 0.4223
3366.066 0.4595 0.4637 0.4429 0.3662 0.3029 0.3218 0.489 0.6249 0.6507 0.6333
3385.356 0.646 0.7157 0.8319 1.0185 1.0059 1.0246 1.1551 1.2951 1.5351 1.7851
3404.646 1.8851 1.9051 2.0951 2.1851 2.1651 2.1451 2.1251 1.9851 1.7751 1.6351
3423.936 1.5551 1.3651 1.2651 1.1551 0.9382 0.9131 0.8471 0.7753 0.6733 0.5459
3443.225 0.5383 0.5817 0.6076 0.5713 0.4869 0.4918 0.5353 0.3502 0.2827 0.3125
3462.515 0.2416 0.2556 0.2493 0.2829 0.2782 0.3007 0.4005 0.4278 0.4429 0.4078
3481.805 0.4933 0.5751 0.3508 0.3086 0.3447 0.2848 0.3213 0.3693 0.4779 0.4206
3501.095 0.361 0.4767 0.5759 0.6066 0.4276 0.2859 0.3614 0.4413 0.5412 0.4834
3520.385 0.4851 0.5384 0.4984 0.5936 0.6343 0.5746 0.5174 0.6525 0.8103 0.9191
3539.674 0.8729 0.8261 0.9131 0.9843 1.1451 1.2451 1.3951 1.5951 1.8351 2.0651
3558.964 2.4651 3.0351 3.5351 4.3551 5.5951 7.3551 9.6751 12.7051 16.8051 21.8151
3578.254 27.5051 33.4051 39.0551 44.0751 47.9151 50.2651 50.4151 48.2851 44.5551 39.7651
3597.544 34.1351 27.9151 21.6851 15.8851 11.2551 7.9751 5.7651 4.4751 3.7151 3.0451
3616.833 2.5951 2.3451 2.0551 1.8151 1.6551 1.6551 1.6451 1.6651 1.8151 1.8551
3636.123 1.7951 1.9451 2.2851 2.4251 2.2151 2.0651 2.0951 2.1251 2.1151 1.9451
3655.413 1.6851 1.4251 1.4051 1.2951 0.9627 0.7176 0.7111 0.6918 0.4943 0.3967
3674.703 0.3834 0.3571 0.3696 0.3209 0.2643 0.2179 0.3088 0.3404 0.2923 0.3881
3693.993 0.4505 0.4103 0.3081 0.2945 0.3307 0.3331 0.34 0.3818 0.3112 0.2034
3713.282 0.299 0.3711 0.3294 0.3021 0.2274 0.202 0.10757 0.0285 0.04645 0.08752
3732.572 0.11636 0.1153 0.178 0.2319 0.2962 0.208 0.11884 0.1843 0.12251 0
3751.862 0.0246 0.0335 0.07055 0.2209 0.10621 0.0552243 0.07091 0.0239 0.08221 0.08629
3771.152 0.14954 0.2006 0.157 0.10587 0.145 0.2025 0.12788 0.062669 0.12874 0.1921
3790.441 0.2315 0.208 0.2223 0.2283 0.2386 0.219 0.2517 0.2268 0.0715 0.10932
3809.731 0.2022 0.2658 0.2435 0.14798 0.1661 0.2142 0.2488 0.3119 0.3031 0.2362
3829.021 0.2716 0.3661 0.3794 0.3716 0.3059 0.2883 0.3543 0.3168 0.2654 0.2494
3848.311 0.2532 0.2267 0.09034 0.2028 0.2425 0.14817 0.2315 0.2536 0.2482 0.09319
3867.601 0.1462 0.2941 0.2434 0.3129 0.3161 0.2944 0.3676 0.3486 0.3242 0.3201
3886.890 0.2972 0.2728 0.3093 0.3554 0.3406 0.3509 0.37 0.4294 0.5596 0.5047
3906.180 0.2565 0.1757 0.1946 0.2613 0.2589 0.2202 0.1864 0.2765 0.2718 0.1874
3925.470 0.281 0.2525 0.1965 0.261 0.4106 0.3759 0.3733 0.4781 0.3822 0.2989
3944.760 0.2464 0.11954 0.1841 0.3056 0.2485 0.1069 0.0552722 0.14322 0.174 0.2013
3964.049 0.3662 0.4459 0.438 0.5261 0.5448 0.4967 0.4351 0.3975 0.4593 0.4704
3983.339 0.5217 0.5064 0.3591 0.3994 0.418 0.4435 0.3935 0.2962 0.3469 0.3028
##END=
