##TITLE=2-Chloro-N,N-dimethyl-4-nitroaniline
##JCAMP-DX=4.24
##DATA TYPE=INFRARED SPECTRUM
##ORIGIN=EPA-IR VAPOR PHASE LIBRARY
##OWNER=SRD/NIST
Collection (C) 2018 copyright by the U.S. Secretary of Commerce
on behalf of the United States of America. All rights reserved.
##CAS REGISTRY NO=6213-19-0
##MOLFORM=C 8 H 9 Cl N 2 O 2
##$NIST SOURCE=MSDC-IR
##STATE=gas
##XUNITS=1/CM
##YUNITS=ABSORBANCE
##XFACTOR=1.
##YFACTOR=0.001
##DELTAX=3.85796
##FIRSTX=551.7
##LASTX=4000.7
##FIRSTY=3.344
##MAXX=4000.7
##MINX=551.688
##MAXY=0.233444
##MINY=0
##NPOINTS=895
##XYDATA=(X++(Y..Y))
551.688 3.344 3.114 2.964 2.874 2.534 1.954 1.674 1.414 1.334 1.434
590.268 1.604 1.984 2.464 3.274 5.024 7.884 10.374 11.004 9.444 6.564
628.847 4.044 2.744 2.244 1.954 1.804 1.804 1.814 2.064 2.624 3.544
667.427 4.814 6.684 9.734 12.774 14.034 13.074 9.814 6.554 5.414 6.054
706.006 7.624 9.784 11.944 11.474 9.314 7.364 5.954 6.014 7.384 9.494
744.586 12.454 13.924 12.084 10.044 9.184 11.174 19.114 30.584 36.994 35.424
783.165 25.834 13.774 7.504 5.224 4.084 3.834 4.324 5.804 8.384 11.314
821.745 14.224 14.624 11.724 8.414 5.724 3.864 2.984 2.664 2.594 2.614
860.324 2.904 3.704 5.324 8.174 12.444 16.834 19.534 20.904 20.804 19.704
898.904 18.654 16.074 12.234 9.174 7.094 6.054 6.084 6.914 8.734 12.294
937.484 18.504 27.174 34.774 36.784 32.194 22.894 13.734 8.294 5.664 4.354
976.063 3.664 3.304 3.114 2.984 2.994 2.964 2.854 2.804 2.824 3.044
1014.643 3.404 3.784 4.474 5.554 7.284 10.304 15.054 20.464 24.564 26.694
1053.222 26.514 23.984 20.624 17.464 14.764 12.614 10.974 10.284 10.304 10.924
1091.802 12.474 14.404 16.314 17.994 19.874 23.304 29.024 35.534 40.684 44.464
1130.381 47.054 47.244 44.124 37.764 30.084 25.854 26.824 31.194 36.204 38.784
1168.961 37.304 32.174 26.374 22.654 20.724 19.744 19.384 18.634 17.504 16.114
1207.540 14.374 12.864 11.704 10.974 10.394 9.684 9.384 9.684 10.504 12.094
1246.120 14.564 18.384 22.984 26.394 27.084 24.924 21.434 18.924 18.334 18.954
1284.699 19.824 20.194 20.044 19.844 20.504 22.684 26.554 32.294 40.514 52.254
1323.279 69.304 93.554 125.614 163.164 201.094 228.984 233.444 210.334 167.034 120.404
1361.859 85.864 63.924 48.264 36.044 27.514 22.494 19.874 18.534 17.714 17.034
1400.438 16.474 16.244 16.524 17.184 17.824 18.224 18.654 19.944 23.014 27.364
1439.018 30.564 31.344 30.394 29.234 29.734 31.404 32.894 34.624 37.494 42.374
1477.597 49.774 59.894 71.774 83.254 90.804 91.494 85.854 77.354 69.974 67.154
1516.177 69.194 75.954 88.164 104.984 121.644 129.424 124.274 106.644 81.524 58.884
1554.756 45.224 38.944 37.484 39.284 44.204 52.804 66.424 83.264 97.814 100.974
1593.336 87.224 62.504 40.044 25.884 18.154 14.134 11.934 10.684 10.054 9.904
1631.915 9.994 10.124 10.134 9.844 9.184 8.384 7.514 6.694 5.944 5.284
1670.495 4.664 4.114 3.634 3.294 3.014 2.774 2.634 2.494 2.434 2.434
1709.075 2.434 2.454 2.464 2.484 2.394 2.244 2.124 1.954 1.804 1.684
1747.654 1.694 1.724 1.774 1.944 2.144 2.284 2.374 2.394 2.384 2.434
1786.234 2.554 2.704 2.724 2.594 2.344 1.984 1.684 1.504 1.434 1.414
1824.813 1.364 1.294 1.244 1.204 1.214 1.214 1.214 1.214 1.174 1.154
1863.393 1.164 1.224 1.364 1.564 1.834 2.104 2.364 2.604 2.664 2.504
1901.972 2.214 1.834 1.454 1.214 1.0908 1.0184 0.9615 0.9889 1.0564 1.114
1940.552 1.174 1.294 1.384 1.354 1.364 1.344 1.234 1.0941 0.9609 0.8815
1979.131 0.8346 0.8064 0.7856 0.7796 0.8166 0.9119 1.0527 1.0901 1.0906 1.0995
2017.711 1.0556 1.0145 0.9779 0.9325 0.8391 0.7814 0.7095 0.6334 0.6536 0.6128
2056.291 0.5734 0.6213 0.6589 0.6988 0.7418 0.7673 0.8163 0.8807 0.9317 1.0086
2094.870 1.104 1.214 1.284 1.334 1.344 1.304 1.234 1.083 0.9372 0.8254
2133.450 0.7548 0.6594 0.6168 0.6635 0.6845 0.7087 0.7637 0.8169 0.8506 0.8541
2172.029 0.8864 0.92 0.9195 0.89 0.8638 0.8516 0.8016 0.7929 0.825 0.8354
2210.609 0.8352 0.8495 0.9116 0.9249 0.9088 0.9586 0.9879 0.9591 0.9649 0.974
2249.188 0.9387 0.9338 0.9264 0.9024 0.9407 0.9858 0.9792 0.9236 0.8669 0.8067
2287.768 0.7632 0.8234 0.8358 0.8304 0.8571 0.842 0.8009 0.7763 0.7592 0.6836
2326.347 0.6269 0.6341 0.6528 0.6342 0.6229 0.6568 0.7352 0.7933 0.828 0.8872
2364.927 0.8679 0.817 0.7971 0.7707 0.7762 0.7945 0.8066 0.8043 0.8043 0.8506
2403.507 0.8842 0.9086 0.9497 0.9561 0.9429 0.9379 0.9681 1.0337 1.0656 1.124
2442.086 1.234 1.384 1.544 1.694 1.894 2.114 2.284 2.364 2.374 2.254
2480.666 2.054 1.884 1.774 1.694 1.604 1.574 1.544 1.504 1.494 1.524
2519.245 1.584 1.634 1.654 1.714 1.814 1.834 1.814 1.824 1.844 1.894
2557.825 2.034 2.154 2.324 2.514 2.684 2.824 2.854 2.764 2.564 2.284
2596.404 2.034 1.894 1.744 1.594 1.514 1.504 1.544 1.554 1.564 1.624
2634.984 1.634 1.624 1.644 1.724 1.784 1.814 1.854 1.894 1.934 1.974
2673.563 2.004 2.014 1.994 1.984 1.984 2.004 2.044 2.134 2.214 2.274
2712.143 2.334 2.374 2.434 2.454 2.504 2.614 2.754 2.914 3.074 3.314
2750.722 3.594 3.874 4.244 4.724 5.384 6.284 7.474 8.924 10.924 13.674
2789.302 17.094 20.954 24.674 27.434 28.564 27.754 25.454 22.524 19.624 17.324
2827.882 16.104 16.274 18.024 21.224 25.414 29.394 31.624 31.474 29.534 27.104
2866.461 25.514 25.104 25.544 26.314 26.814 26.654 25.824 24.514 23.164 22.064
2905.041 21.224 20.694 20.524 20.574 20.894 21.294 21.544 21.984 22.774 23.984
2943.620 25.934 28.774 32.074 34.564 34.624 31.544 26.134 20.584 16.594 14.564
2982.200 14.314 15.264 16.244 15.994 14.224 11.684 9.464 8.074 7.294 6.744
3020.779 6.254 5.734 5.134 4.514 3.984 3.504 3.244 3.154 2.994 2.884
3059.359 2.894 2.984 3.174 3.574 4.364 5.494 6.644 7.334 7.314 6.564
3097.938 5.314 4.144 3.214 2.574 2.174 1.844 1.524 1.314 1.244 1.174
3136.518 1.0816 1.0169 0.9498 0.9175 0.9523 0.956 0.9755 1.0635 1.114 1.144
3175.098 1.184 1.214 1.184 1.0745 1.0458 0.9752 0.8416 0.7089 0.5247 0.3935
3213.677 0.3857 0.4738 0.4525 0.4424 0.4438 0.3732 0.385 0.4185 0.3863 0.3289
3252.257 0.3258 0.3644 0.3451 0.2902 0.2335 0.2217 0.2898 0.298 0.2533 0.2134
3290.836 0.2469 0.2517 0.2379 0.2897 0.3038 0.2766 0.18975 0.108402 0.14683 0.2679
3329.416 0.2648 0.17106 0.0891 0.105568 0.18865 0.12787 0.0724 0.15237 0.1561 0.15981
3367.995 0.14608 0.0929 0.0927 0.0681 0.0496 0.0583 0.029 0.10112 0.2224 0.2593
3406.575 0.2594 0.1564 0.11784 0.18666 0.19861 0.2287 0.2186 0.16864 0.12315 0.0793
3445.154 0.16477 0.16696 0.0768 0.0609 0.0539 0.0842 0.13979 0.15866 0.0813 0.002
3483.734 0.0296 0.0589 0.082 0.0926 0.09579 0.11528 0.0629 0.0213 0.0298 0.1145
3522.314 0.18366 0.12414 0.11576 0.112873 0.0894 0.12423 0.109499 0.0846 0.0635 0.0761
3560.893 0.113711 0.044 0.0095 0.0315 0.0895 0.15102 0.0503 0 0.0906 0.10061
3599.473 0.0606 0.076 0.09568 0.12281 0.0866 0.0588 0.09777 0.1572 0.18716 0.0766
3638.052 0.081 0.103587 0.0454 0.0478 0.0654 0.1237 0.15315 0.13848 0.0804 0.0465
3676.632 0.14612 0.259 0.2389 0.18173 0.17609 0.1827 0.18636 0.14987 0.13601 0.15268
3715.211 0.13294 0.111829 0.11968 0.0182 0.0319 0.108076 0.110319 0.17283 0.19126 0.2449
3753.791 0.2463 0.18361 0.10288 0.10112 0.16089 0.17801 0.18808 0.2116 0.2056 0.16956
3792.370 0.2248 0.2211 0.18371 0.11446 0.0365 0.0636 0.1261 0.2182 0.2401 0.17399
3830.950 0.1619 0.15329 0.15596 0.15943 0.2166 0.2279 0.2272 0.3104 0.3089 0.3232
3869.530 0.2703 0.2763 0.2618 0.19147 0.2539 0.2344 0.2121 0.2333 0.11942 0.17615
3908.109 0.2123 0.0927 0.14077 0.2065 0.2452 0.3039 0.34 0.3155 0.2771 0.2734
3946.689 0.2861 0.335 0.374 0.3979 0.4238 0.3645 0.3688 0.4386 0.382 0.2825
3985.268 0.2849 0.3726 0.4157 0.3611 0.3643
##END=
