##TITLE=1,2-Bis(phenylthio)ethane
##JCAMP-DX=4.24
##DATA TYPE=INFRARED SPECTRUM
##ORIGIN=EPA-IR VAPOR PHASE LIBRARY
##OWNER=SRD/NIST
Collection (C) 2018 copyright by the U.S. Secretary of Commerce
on behalf of the United States of America. All rights reserved.
##CAS REGISTRY NO=622-20-8
##MOLFORM=C 14 H 14 S 2
##$NIST SOURCE=MSDC-IR
##STATE=gas
##XUNITS=1/CM
##YUNITS=ABSORBANCE
##XFACTOR=1.
##YFACTOR=0.001
##DELTAX=1.92934
##FIRSTX=549.9
##LASTX=3999.5
##FIRSTY=1.2314
##MAXX=3999.53
##MINX=549.863
##MAXY=0.081859
##MINY=0
##NPOINTS=1789
##XYDATA=(X++(Y..Y))
549.863 1.2314 1.2192 1.2544 1.1239 1.1621 1.3228 1.2784 1.2945 1.3376 1.3998
569.156 1.2482 1.1752 1.3483 1.3807 1.3634 1.174 1.1177 1.2123 1.3224 1.4035
588.450 1.3145 1.3037 1.3183 1.2916 1.3541 1.3696 1.3005 1.3193 1.3075 1.3043
607.743 1.4246 1.4291 1.4498 1.4306 1.4642 1.62 1.7994 1.9099 1.9077 2.019
627.037 2.089 2.159 2.229 2.349 2.519 2.729 3.039 3.279 3.569 3.939
646.330 4.289 4.789 5.479 6.289 7.139 8.179 9.369 10.589 11.979 13.509
665.624 15.139 16.909 18.789 20.789 23.179 26.029 29.349 33.319 38.229 43.969
684.917 50.269 56.359 61.179 63.749 63.809 61.929 59.089 56.749 55.419 54.749
704.210 54.289 53.389 51.569 48.599 45.079 41.809 39.319 38.009 37.999 39.179
723.504 41.239 44.209 48.129 52.819 58.359 64.639 71.149 77.049 81.009 81.859
742.797 79.129 73.309 65.629 57.309 49.299 42.219 36.129 30.769 26.179 22.319
762.091 19.009 16.219 13.899 11.979 10.379 9.029 7.929 7.089 6.399 5.709
781.384 5.159 4.739 4.309 4.029 3.789 3.569 3.359 3.099 2.929 2.809
800.678 2.659 2.579 2.509 2.439 2.399 2.309 2.309 2.339 2.359 2.439
819.971 2.439 2.499 2.639 2.779 2.929 3.079 3.229 3.399 3.579 3.779
839.264 4.039 4.269 4.449 4.639 4.809 4.989 5.159 5.239 5.269 5.179
858.558 5.009 4.929 4.799 4.629 4.449 4.299 4.199 4.059 3.969 3.919
877.851 3.859 3.799 3.779 3.829 3.949 4.049 4.149 4.289 4.419 4.579
897.145 4.739 4.919 5.199 5.459 5.669 5.739 5.819 5.759 5.469 5.139
916.438 4.729 4.349 4.049 3.759 3.519 3.339 3.159 3.009 2.889 2.769
935.732 2.729 2.699 2.549 2.489 2.499 2.439 2.429 2.379 2.299 2.299
955.025 2.289 2.259 2.299 2.309 2.279 2.279 2.259 2.249 2.259 2.289
974.318 2.289 2.299 2.359 2.389 2.429 2.449 2.499 2.629 2.789 3.069
993.612 3.489 4.199 5.059 5.659 6.029 6.279 6.249 6.079 6.289 7.019
1012.905 8.269 10.279 13.489 18.199 23.599 27.559 28.629 27.699 24.909 19.489
1032.199 13.449 9.279 6.929 5.609 4.919 4.589 4.579 4.689 4.949 5.359
1051.492 5.849 6.439 7.089 7.799 8.579 9.269 9.849 10.359 10.739 10.989
1070.786 11.239 11.739 12.419 13.389 14.789 16.559 18.569 20.419 21.709 22.269
1090.079 22.029 20.819 18.949 16.839 14.749 13.029 11.709 10.729 10.029 9.579
1109.372 9.259 9.049 8.859 8.599 8.329 7.999 7.629 7.229 6.719 6.209
1128.666 5.679 5.179 4.839 4.519 4.229 4.039 3.779 3.579 3.449 3.329
1147.959 3.249 3.159 3.059 3.019 3.119 3.169 3.169 3.199 3.279 3.399
1167.253 3.589 3.779 3.989 4.229 4.449 4.659 4.789 4.879 5.049 5.499
1186.546 6.269 7.359 8.949 11.089 13.689 16.169 17.879 18.439 17.729 15.889
1205.840 13.249 10.479 8.489 7.249 6.349 5.749 5.499 5.379 5.309 5.279
1225.133 5.289 5.289 5.279 5.359 5.369 5.379 5.339 5.399 5.659 5.899
1244.426 6.309 6.869 7.409 8.179 9.199 10.429 11.999 13.859 15.729 17.469
1263.720 18.879 19.499 19.289 18.389 16.849 15.029 13.299 11.929 10.969 10.209
1283.013 9.539 9.059 8.659 8.259 8.009 7.789 7.629 7.429 7.199 6.999
1302.307 6.729 6.409 6.019 5.619 5.299 5.049 4.839 4.589 4.329 4.129
1321.600 3.969 3.839 3.659 3.439 3.239 3.069 2.939 2.829 2.709 2.619
1340.894 2.489 2.399 2.429 2.409 2.389 2.449 2.459 2.469 2.559 2.649
1360.187 2.669 2.699 2.779 2.859 2.909 2.989 3.049 3.089 3.139 3.219
1379.480 3.259 3.229 3.279 3.299 3.309 3.409 3.509 3.649 3.839 4.029
1398.774 4.269 4.579 4.989 5.499 6.119 6.869 7.739 8.739 9.849 11.069
1418.067 12.359 13.799 15.389 17.029 18.739 20.489 22.169 23.689 24.909 25.689
1437.361 26.009 25.809 25.019 23.669 22.029 20.379 18.849 17.669 16.949 16.699
1456.654 16.879 17.409 18.309 19.649 21.489 24.019 27.299 31.349 36.419 42.339
1475.948 48.149 52.609 54.219 52.659 48.219 41.509 33.499 25.809 19.669 15.309
1495.241 12.259 10.009 8.419 7.259 6.379 5.709 5.139 4.729 4.449 4.229
1514.534 3.989 3.819 3.729 3.649 3.579 3.509 3.509 3.489 3.449 3.469
1533.828 3.499 3.529 3.599 3.709 3.869 4.049 4.279 4.549 4.929 5.379
1553.121 5.859 6.449 7.149 8.049 9.119 10.309 11.869 13.709 15.899 18.579
1572.415 21.719 25.359 29.399 33.289 36.439 38.279 38.339 36.589 33.269 28.959
1591.708 24.379 20.079 16.329 13.399 11.179 9.449 8.129 7.109 6.349 5.779
1611.002 5.299 4.879 4.539 4.279 4.029 3.809 3.669 3.539 3.489 3.449
1630.295 3.369 3.379 3.429 3.399 3.329 3.289 3.219 3.209 3.219 3.109
1649.588 3.009 2.949 2.869 2.789 2.689 2.619 2.569 2.479 2.379 2.269
1668.882 2.179 2.119 2.039 1.9832 1.9597 1.9053 1.854 1.8666 1.8889 1.8983
1688.175 1.8994 1.9159 1.9963 2.079 2.099 2.139 2.249 2.309 2.379 2.449
1707.469 2.479 2.559 2.609 2.569 2.539 2.579 2.569 2.519 2.469 2.459
1726.762 2.499 2.469 2.459 2.499 2.529 2.539 2.539 2.539 2.539 2.529
1746.056 2.479 2.409 2.369 2.299 2.209 2.199 2.249 2.289 2.329 2.409
1765.349 2.529 2.729 2.999 3.159 3.309 3.489 3.659 3.859 4.059 4.279
1784.642 4.539 4.769 4.869 4.879 4.839 4.689 4.459 4.179 3.899 3.669
1803.936 3.429 3.209 3.029 2.899 2.819 2.699 2.549 2.429 2.349 2.279
1823.229 2.229 2.209 2.189 2.179 2.219 2.289 2.329 2.379 2.469 2.519
1842.523 2.569 2.689 2.779 2.869 2.979 3.089 3.179 3.299 3.489 3.689
1861.816 3.809 3.939 4.079 4.199 4.319 4.409 4.429 4.339 4.239 4.079
1881.110 3.839 3.619 3.409 3.199 2.979 2.799 2.639 2.469 2.329 2.259
1900.403 2.219 2.159 2.099 2.119 2.189 2.239 2.319 2.479 2.669 2.829
1919.696 2.989 3.139 3.329 3.529 3.729 3.929 4.139 4.349 4.569 4.769
1938.990 4.929 5.089 5.219 5.309 5.359 5.379 5.319 5.169 4.959 4.599
1958.283 4.159 3.729 3.289 2.859 2.499 2.259 2.079 1.9104 1.8079 1.7128
1977.577 1.6243 1.576 1.5138 1.4788 1.4432 1.395 1.3565 1.3138 1.2619 1.2109
1996.870 1.1887 1.1807 1.17 1.1645 1.1628 1.158 1.1419 1.1213 1.1243 1.1444
2016.164 1.1132 1.07364 1.06648 1.04002 1.06663 1.1083 1.05807 1.03244 1.05661 1.01878
2035.457 0.99559 1.0156 1.00543 0.9743 0.9763 1.02294 1.03061 0.9868 1.00773 1.03775
2054.750 0.9884 0.9701 0.9873 1.0073 0.99629 0.9529 0.9416 0.9148 0.897 0.863
2074.044 0.814 0.795 0.799 0.831 0.847 0.865 0.882 0.865 0.864 0.868
2093.337 0.837 0.827 0.851 0.873 0.849 0.842 0.838 0.843 0.855 0.843
2112.631 0.849 0.863 0.883 0.876 0.872 0.851 0.859 0.849 0.831 0.845
2131.924 0.809 0.812 0.822 0.814 0.819 0.823 0.824 0.828 0.824 0.849
2151.218 0.884 0.848 0.847 0.884 0.863 0.842 0.844 0.866 0.897 0.893
2170.511 0.888 0.869 0.834 0.84 0.823 0.801 0.832 0.86 0.849 0.829
2189.804 0.821 0.842 0.85 0.831 0.824 0.792 0.781 0.785 0.789 0.807
2209.098 0.812 0.841 0.863 0.856 0.806 0.749 0.754 0.809 0.814 0.803
2228.391 0.825 0.855 0.859 0.856 0.89 0.9314 0.9587 0.9375 0.9195 0.9102
2247.685 0.9116 0.9234 0.9554 0.961 0.9314 0.944 0.9829 0.9814 0.9427 0.9398
2266.978 0.9541 0.9383 0.9574 0.9567 0.9132 0.93 0.9449 0.935 0.9272 0.898
2286.272 0.856 0.87 0.886 0.882 0.894 0.885 0.9155 0.9504 0.9675 1.02111
2305.565 1.109 1.215 1.3379 1.468 1.5468 1.5627 1.568 1.5616 1.4444 1.3179
2324.858 1.3017 1.3052 1.2898 1.2467 1.2299 1.2614 1.2768 1.2612 1.2523 1.2546
2344.152 1.218 1.1704 1.1349 1.1061 1.08701 1.06703 1.0756 1.06759 1.07555 1.07103
2363.445 1.01288 0.99431 0.99105 0.99294 0.9761 0.976 0.9703 0.9287 0.953 1.00054
2382.739 1.00181 1.01919 1.00872 0.9548 0.9482 0.99027 0.999491 1.00581 1.03272 0.99736
2402.032 0.986 1.03795 1.07046 1.05117 1.07236 1.1048 1.05924 1.03344 1.02972 1.03912
2421.326 1.05463 1.01518 0.9574 0.9276 0.887 0.843 0.846 0.826 0.774 0.779
2440.619 0.747 0.698 0.701 0.675 0.679 0.714 0.717 0.687 0.696 0.733
2459.912 0.746 0.749 0.758 0.759 0.735 0.73 0.732 0.708 0.72 0.688
2479.206 0.635 0.645 0.617 0.59 0.613 0.641 0.643 0.642 0.626 0.636
2498.499 0.663 0.689 0.707 0.71 0.686 0.673 0.71 0.689 0.702 0.743
2517.793 0.748 0.761 0.764 0.78 0.796 0.82 0.833 0.825 0.813 0.781
2537.086 0.799 0.825 0.826 0.854 0.889 0.872 0.824 0.8 0.833 0.846
2556.380 0.799 0.808 0.817 0.792 0.786 0.835 0.871 0.859 0.848 0.869
2575.673 0.877 0.891 0.896 0.868 0.889 0.9114 0.884 0.869 0.867 0.861
2594.966 0.878 0.897 0.888 0.872 0.9336 0.998419 1.03102 0.9713 0.9093 0.9364
2614.260 0.9291 0.9141 0.9062 0.904 0.9233 0.9399 0.9539 0.9088 0.847 0.821
2633.553 0.778 0.743 0.727 0.691 0.701 0.728 0.714 0.736 0.739 0.72
2652.847 0.744 0.762 0.779 0.811 0.853 0.836 0.798 0.835 0.849 0.839
2672.140 0.819 0.818 0.826 0.823 0.781 0.737 0.736 0.757 0.794 0.768
2691.434 0.747 0.767 0.836 0.831 0.805 0.853 0.891 0.786 0.726 0.847
2710.727 0.832 0.686 0.651 0.677 0.629 0.574 0.54 0.53 0.545 0.5
2730.020 0.482 0.494 0.436 0.393 0.427 0.412 0.387 0.443 0.439 0.417
2749.314 0.41 0.434 0.479 0.41 0.335 0.349 0.369 0.34 0.356 0.388
2768.607 0.401 0.421 0.332 0.323 0.379 0.367 0.339 0.244 0.276 0.425
2787.901 0.405 0.408 0.477 0.486 0.519 0.519 0.542 0.649 0.719 0.749
2807.194 0.813 0.9283 1.01252 1.05434 1.1184 1.2696 1.3811 1.4302 1.5041 1.6411
2826.488 1.8051 1.8671 1.999 2.069 2.059 2.049 2.099 2.169 2.129 2.079
2845.781 1.9781 1.9201 1.8983 1.7797 1.8133 1.8324 1.7244 1.647 1.6127 1.6066
2865.074 1.4944 1.4008 1.3566 1.3549 1.4617 1.4614 1.3574 1.3039 1.364 1.4898
2884.368 1.4272 1.3054 1.3154 1.4338 1.5157 1.618 1.8752 2.129 2.339 2.659
2903.661 3.119 3.609 4.199 4.939 5.849 6.879 8.009 9.259 10.439 11.519
2922.955 12.359 12.999 13.319 13.229 13.099 13.109 13.149 13.299 13.489 13.539
2942.248 13.359 12.699 11.719 10.759 9.779 8.769 8.039 7.609 7.349 7.219
2961.542 7.059 6.889 6.849 6.889 6.959 7.169 7.539 7.759 8.009 8.329
2980.835 8.339 8.159 7.869 7.459 7.109 6.839 6.649 6.669 6.829 7.129
3000.128 7.499 7.899 8.419 9.049 9.659 10.269 10.919 11.709 12.469 13.219
3019.422 14.069 14.699 15.159 15.309 15.049 14.379 13.539 12.899 12.319 11.889
3038.715 11.729 11.929 12.339 13.009 14.179 15.719 17.739 20.409 23.859 28.079
3058.009 33.359 39.729 46.839 54.179 60.299 64.049 65.329 64.489 61.929 58.229
3077.302 54.739 52.129 49.599 46.789 43.689 39.899 35.439 30.839 26.289 21.939
3096.596 18.099 14.819 12.139 10.059 8.269 6.869 5.949 5.119 4.239 3.539
3115.889 3.199 2.899 2.669 2.449 2.219 2.159 2.129 2.139 2.159 2.049
3135.182 1.9844 2.079 2.249 2.299 2.269 2.209 2.119 1.9737 1.7151 1.4947
3154.476 1.3613 1.1996 1.05632 1.00865 0.858 0.723 0.692 0.589 0.524 0.575
3173.769 0.604 0.522 0.451 0.477 0.442 0.428 0.398 0.294 0.328 0.426
3193.063 0.418 0.292 0.261 0.393 0.405 0.258 0.244 0.305 0.263 0.186
3212.356 0.115 0.16 0.174 0.195 0.308 0.271 0.132 0.192 0.245 0.21
3231.650 0.344 0.438 0.425 0.351 0.188 0.208 0.28 0.195 0.151 0.156
3250.943 0.2 0.225 0.274 0.307 0.15 0 0.114 0.241 0.261 0.223
3270.236 0.117 0.228 0.259 0.238 0.249 0.124 0.242 0.428 0.404 0.335
3289.530 0.34 0.327 0.364 0.414 0.381 0.345 0.308 0.303 0.263 0.328
3308.823 0.539 0.489 0.342 0.286 0.354 0.506 0.398 0.302 0.363 0.337
3328.117 0.423 0.448 0.379 0.527 0.608 0.535 0.424 0.383 0.405 0.38
3347.410 0.371 0.43 0.347 0.278 0.436 0.453 0.454 0.6 0.612 0.37
3366.704 0.39 0.568 0.602 0.62 0.542 0.531 0.415 0.421 0.526 0.467
3385.997 0.482 0.636 0.695 0.669 0.538 0.477 0.488 0.413 0.501 0.522
3405.290 0.494 0.531 0.632 0.589 0.502 0.573 0.59 0.597 0.57 0.567
3424.584 0.542 0.592 0.571 0.518 0.579 0.582 0.596 0.66 0.676 0.574
3443.877 0.572 0.635 0.709 0.791 0.609 0.464 0.469 0.475 0.572 0.524
3463.171 0.418 0.458 0.46 0.394 0.426 0.471 0.637 0.749 0.662 0.64
3482.464 0.646 0.564 0.493 0.52 0.643 0.613 0.559 0.57 0.524 0.607
3501.758 0.64 0.588 0.655 0.579 0.53 0.545 0.46 0.455 0.521 0.596
3521.051 0.688 0.682 0.596 0.601 0.645 0.56 0.373 0.457 0.617 0.649
3540.344 0.696 0.741 0.674 0.599 0.653 0.543 0.413 0.49 0.499 0.632
3559.638 0.674 0.651 0.759 0.776 0.736 0.584 0.539 0.598 0.616 0.592
3578.931 0.616 0.618 0.648 0.704 0.664 0.671 0.668 0.617 0.492 0.59
3598.225 0.762 0.685 0.591 0.605 0.653 0.667 0.669 0.742 0.82 0.79
3617.518 0.675 0.692 0.797 0.9021 0.9552 0.898 0.865 0.9251 0.9565 0.837
3636.812 0.869 0.9296 0.829 0.8 0.9107 0.9469 0.812 0.775 0.83 0.787
3656.105 0.668 0.605 0.675 0.785 0.82 0.862 0.9187 0.9267 0.9889 0.9549
3675.398 0.835 0.824 0.859 0.925 0.9876 1.1058 1.1708 1.1061 1.203 1.3581
3694.692 1.4572 1.4781 1.3712 1.2776 1.1981 1.09487 1.1153 1.1615 1.1429 0.9881
3713.985 0.894 0.9823 0.9034 0.762 0.805 0.874 0.846 0.784 0.723 0.745
3733.279 0.789 0.812 0.838 0.829 0.798 0.672 0.718 0.9382 1.00568 0.9853
3752.572 1.04782 1.09164 1.06507 1.1001 1.152 1.1512 1.1279 1.0596 1.0201 1.02048
3771.866 0.9601 0.9681 0.99024 0.9343 0.9058 0.9237 0.862 0.832 0.83 0.813
3791.159 0.819 0.78 0.737 0.68 0.69 0.67 0.582 0.598 0.669 0.708
3810.452 0.648 0.627 0.623 0.653 0.669 0.584 0.559 0.521 0.572 0.578
3829.746 0.563 0.585 0.528 0.63 0.637 0.591 0.557 0.552 0.621 0.608
3849.039 0.553 0.479 0.543 0.543 0.515 0.636 0.683 0.639 0.556 0.614
3868.333 0.719 0.768 0.754 0.646 0.622 0.712 0.732 0.689 0.744 0.76
3887.626 0.675 0.651 0.632 0.555 0.531 0.601 0.673 0.633 0.592 0.542
3906.920 0.606 0.667 0.655 0.713 0.568 0.475 0.633 0.706 0.648 0.562
3926.213 0.525 0.516 0.55 0.548 0.557 0.602 0.621 0.606 0.632 0.682
3945.506 0.712 0.682 0.574 0.491 0.472 0.538 0.626 0.694 0.676 0.577
3964.800 0.661 0.708 0.604 0.548 0.565 0.673 0.679 0.64 0.651 0.691
3984.093 0.756 0.855 0.78 0.785 0.9556 0.9109 0.748 0.684 0.652
##END=
