##TITLE=4-Methylstyrene
##JCAMP-DX=4.24
##DATA TYPE=INFRARED SPECTRUM
##ORIGIN=NIST Mass Spectrometry Data Center
##OWNER=NIST Standard Reference Data Program
Collection (C) 2018 copyright by the U.S. Secretary of Commerce
on behalf of the United States of America. All rights reserved.
##CAS REGISTRY NO=622-97-9
##MOLFORM=C 9 H 10
##$NIST SOURCE=MSDC-IR
##SPECTROMETER/DATA SYSTEM=HP-GC/MS/IRD
##STATE=gas
##XUNITS=1/CM
##YUNITS=ABSORBANCE
##XFACTOR=1.0
##YFACTOR=0.000001100
##DELTAX=4.0
##FIRSTX=550.0
##LASTX=3846.0
##FIRSTY=0.000160
##MAXX=3846
##MINX=550
##MAXY=0.011
##MINY=0
##NPOINTS=825
##XYDATA=(X++(Y..Y))
550.0 145 102 130 282 220 241 264 271 248 173
590.0 203 203 149 94 69 98 73 49 28 2
630.0 42 94 47 0 11 57 133 179 205 181
670.0 173 216 145 85 127 138 180 307 385 460
710.0 591 649 619 589 660 581 457 442 445 414
750.0 306 285 329 410 482 492 466 502 621 728
790.0 967 1502 2294 3395 4564 5711 6704 8720 10000 8146
830.0 6754 5975 4698 3516 2480 1720 1311 1146 1032 1023
870.0 1108 1207 1416 1796 2273 2865 3596 4310 5088 5914
910.0 5984 5270 4534 3817 3083 2396 1795 1405 1203 1082
950.0 1109 1238 1458 1717 1978 2277 2607 2867 3069 3382
990.0 3322 2758 2326 2082 2032 2121 2040 1927 1944 1829
1030.0 1550 1287 1223 1139 939 807 704 628 583 484
1070.0 404 377 385 414 433 448 506 630 804 1044
1110.0 1212 1155 1076 1069 970 758 569 443 328 249
1150.0 224 202 180 187 283 455 607 709 756 791
1190.0 775 659 548 515 502 425 424 461 445 461
1230.0 474 443 430 412 382 373 405 461 504 522
1270.0 540 550 555 545 542 555 548 556 553 527
1310.0 495 475 468 491 514 490 463 442 426 426
1350.0 427 446 478 497 503 565 673 762 894 1057
1390.0 1218 1356 1445 1499 1553 1596 1569 1494 1401 1279
1430.0 1144 1024 922 857 813 793 792 808 854 892
1470.0 901 884 925 998 1179 1525 2169 3363 5020 6409
1510.0 6837 6593 5956 4418 2557 1473 1094 975 938 925
1550.0 922 931 939 964 994 989 961 933 875 811
1590.0 811 894 1002 1159 1396 1710 2127 2661 3201 3620
1630.0 3834 3759 3367 2781 2124 1513 1069 802 623 507
1670.0 428 354 310 285 269 246 204 194 204 207
1710.0 201 198 186 182 193 193 181 189 210 239
1750.0 276 308 337 383 424 444 468 501 529 540
1790.0 536 540 574 664 812 982 1128 1231 1244 1152
1830.0 976 749 538 396 325 274 231 237 264 311
1870.0 378 460 580 680 750 784 762 737 695 570
1910.0 429 329 255 211 173 147 150 154 155 145
1950.0 135 161 180 173 172 159 147 126 75 55
1990.0 69 68 89 98 78 64 55 48 47 62
2030.0 52 32 61 91 86 74 69 71 65 59
2070.0 67 65 64 70 57 43 48 48 49 39
2110.0 24 25 19 20 39 37 28 45 43 19
2150.0 9 11 6 9 11 14 14 4 9 17
2190.0 19 20 21 43 39 20 5 6 27 21
2230.0 23 26 19 16 10 15 35 33 24 23
2270.0 29 39 58 70 64 70 82 88 104 119
2310.0 102 76 79 104 109 90 69 92 87 60
2350.0 81 67 44 43 43 46 56 61 58 66
2390.0 66 61 55 53 77 76 58 77 99 88
2430.0 60 75 76 51 85 103 74 50 50 53
2470.0 30 40 51 40 54 56 54 63 62 65
2510.0 70 65 54 46 56 50 42 52 59 37
2550.0 32 35 15 51 96 109 102 95 115 110
2590.0 92 94 95 104 113 93 65 86 117 100
2630.0 74 69 67 52 46 49 49 43 68 85
2670.0 96 77 52 64 66 60 69 82 98 109
2710.0 111 103 103 118 138 197 269 308 309 315
2750.0 271 200 181 176 129 101 97 107 139 153
2790.0 168 178 218 263 301 336 343 370 416 473
2830.0 506 557 628 697 808 985 1231 1489 1813 2198
2870.0 2569 2903 3109 3092 2988 2893 2796 2663 2605 2735
2910.0 2986 3358 3919 4637 5389 5865 5936 5691 5065 4193
2950.0 3396 2848 2595 2528 2569 2736 2992 3281 3608 3966
2990.0 4334 4742 5325 6182 7202 8096 8867 9504 9659 9222
3030.0 8555 7943 7311 6731 6294 5999 5791 5627 5435 5181
3070.0 4919 4777 4807 5068 5609 5865 5537 5085 4481 3374
3110.0 2233 1550 1242 1039 866 758 655 577 483 394
3150.0 336 273 220 164 149 155 130 122 111 96
3190.0 117 152 167 160 121 148 155 129 107 127
3230.0 154 109 102 147 139 119 77 52 76 70
3270.0 104 117 96 70 61 78 80 83 89 84
3310.0 68 65 123 115 53 71 92 78 95 117
3350.0 81 58 63 82 68 55 53 44 64 74
3390.0 107 111 56 61 69 69 84 78 77 108
3430.0 115 64 70 72 72 86 87 77 56 70
3470.0 94 68 16 31 55 64 57 40 25 4
3510.0 24 32 35 65 75 65 108 87 94 98
3550.0 59 52 66 102 122 125 80 50 87 102
3590.0 102 105 89 106 89 49 48 89 84 51
3630.0 109 148 129 77 69 91 109 121 121 121
3670.0 148 171 153 148 161 132 121 152 114 78
3710.0 107 122 92 94 79 53 83 136 162 119
3750.0 99 102 91 67 38 36 21 63 110 103
3790.0 80 66 92 104 81 82 127 136 74 69
3830.0 79 89 133 130 131
##END=
