##TITLE=p-Tolueneacetic acid
##JCAMP-DX=4.24
##DATA TYPE=INFRARED SPECTRUM
##ORIGIN=EPA-IR VAPOR PHASE LIBRARY
##OWNER=SRD/NIST
Collection (C) 2018 copyright by the U.S. Secretary of Commerce
on behalf of the United States of America. All rights reserved.
##CAS REGISTRY NO=622-47-9
##MOLFORM=C 9 H 10 O 2
##$NIST SOURCE=MSDC-IR
##STATE=gas
##XUNITS=1/CM
##YUNITS=ABSORBANCE
##XFACTOR=1.
##YFACTOR=0.001
##DELTAX=1.92898
##FIRSTX=549.8
##LASTX=4000.7
##FIRSTY=24.23
##MAXX=4000.7
##MINX=549.759
##MAXY=0.13262
##MINY=0
##NPOINTS=1790
##XYDATA=(X++(Y..Y))
549.759 24.23 26.25 28.2 29.73 30.7 30.95 30.37 29.23 27.59 25.5
569.049 23.25 21.24 19.63 18.53 18.24 18.53 19.11 20 21.07 22.45
588.339 24.08 25.52 26.96 28.59 30.09 31.25 32.29 33.23 33.81 33.92
607.628 33.68 33.15 32.43 31.74 30.93 30.06 29.21 28.35 27.58 26.81
626.918 26.03 25.26 24.32 23.34 22.43 21.53 20.5 19.43 18.41 17.44
646.208 16.6 15.83 15.31 14.81 14.33 14.1 13.81 13.64 13.68 13.63
665.498 13.71 13.98 14.38 14.82 15.42 16.25 17.16 18.01 18.9 19.72
684.787 20.22 20.34 19.99 19.27 18.14 16.71 15.19 13.71 12.36 11.09
704.077 10.07 9.27 8.57 7.89 7.26 6.76 6.26 5.76 5.35 5
723.367 4.74 4.43 4.17 3.99 3.84 3.71 3.6 3.61 3.56 3.59
742.657 3.77 4.04 4.28 4.48 4.89 5.49 6.06 6.61 7.19 7.91
761.947 8.82 9.71 10.55 11.48 12.36 13.07 13.6 14.03 14.41 14.8
781.236 15.1 15.35 15.62 15.92 16.35 16.82 17.38 17.82 17.94 17.7
800.526 17.14 16.43 15.56 14.57 13.39 12.19 10.87 9.51 8.44 7.41
819.816 6.55 5.88 5.32 4.91 4.54 4.21 4.08 4.09 4.17 4.26
839.106 4.43 4.52 4.61 4.77 4.86 4.87 4.87 4.79 4.64 4.59
858.395 4.47 4.28 4.14 4.23 4.3 4.29 4.3 4.33 4.46 4.45
877.685 4.32 4.38 4.47 4.44 4.44 4.41 4.36 4.24 4.15 4.17
896.975 4.16 4.07 3.98 3.97 3.96 3.91 3.95 3.92 3.88 3.93
916.265 3.93 3.95 4.05 4.13 4.22 4.4 4.57 4.71 4.75 4.79
935.555 4.78 4.72 4.66 4.52 4.37 4.21 4.01 3.86 3.77 3.69
954.844 3.66 3.6 3.52 3.39 3.28 3.26 3.21 3.21 3.2 3.13
974.134 3.03 3 2.95 2.84 2.74 2.66 2.57 2.49 2.5 2.54
993.424 2.48 2.41 2.35 2.34 2.4 2.51 2.59 2.73 3.04 3.53
1012.714 4.25 5.24 6.22 6.7 6.83 6.85 6.84 6.9 6.75 6.05
1032.003 5.2 4.63 4.51 4.59 4.73 4.97 5.11 5.34 5.81 6.3
1051.293 6.71 7.08 7.6 8.25 8.99 9.76 10.56 11.51 12.72 14.23
1070.583 15.78 17.47 19.51 21.72 24.18 27.07 30.31 33.98 38.07 42.56
1089.873 47.61 53.26 59.69 66.71 74.34 82.78 91.87 100.86 109.21 116.5
1109.163 121.55 124.21 124.8 123.16 119.25 112.89 104.35 95.1 86.37 78.44
1128.452 71.45 65.38 59.88 54.91 50.52 46.62 43 39.63 36.47 33.52
1147.742 30.86 28.55 26.56 24.73 23.12 21.82 20.89 20.19 19.6 19.09
1167.032 18.69 18.42 18.26 18.11 18.11 18.41 18.67 18.89 19.26 19.75
1186.322 20.27 20.73 21.25 21.78 22.29 22.88 23.47 24.15 24.82 25.25
1205.611 25.49 25.47 25.24 24.73 23.88 22.94 22.03 20.97 19.87 18.88
1224.901 18.02 17.33 16.57 15.8 15.21 14.7 14.15 13.65 13.19 12.75
1244.191 12.33 11.98 11.71 11.41 11.23 11.15 10.99 10.83 10.73 10.61
1263.481 10.54 10.56 10.63 10.67 10.76 10.84 10.97 11.2 11.4 11.53
1282.771 11.63 11.89 12.14 12.23 12.33 12.42 12.49 12.54 12.53 12.39
1302.060 12.24 12.12 11.97 11.8 11.66 11.57 11.53 11.54 11.62 11.84
1321.350 12.12 12.45 12.88 13.4 13.97 14.63 15.37 16.14 16.97 17.83
1340.640 18.71 19.62 20.48 21.27 21.9 22.35 22.62 22.71 22.59 22.32
1359.930 21.93 21.4 20.69 19.89 19.02 18.09 17.12 16.08 15.02 14
1379.219 13.09 12.23 11.45 10.81 10.23 9.68 9.17 8.71 8.39 8.15
1398.509 8.02 8.01 8.09 8.23 8.44 8.7 9.03 9.4 9.77 10.14
1417.799 10.49 10.79 11.06 11.27 11.43 11.49 11.48 11.38 11.15 10.87
1437.089 10.5 10.05 9.58 9.05 8.54 8.03 7.53 7.07 6.68 6.32
1456.378 5.99 5.7 5.43 5.23 5.07 4.97 4.91 4.8 4.69 4.56
1475.668 4.46 4.4 4.37 4.45 4.6 4.79 5.05 5.38 5.78 6.26
1494.958 6.89 7.71 8.81 10.25 12.19 14.85 18.29 22.12 25.69 28.26
1514.248 29.29 29.1 28.16 26.62 24.1 20.26 15.52 11.24 8.22 6.32
1533.538 5.13 4.41 3.94 3.61 3.37 3.14 2.93 2.75 2.62 2.49
1552.827 2.37 2.27 2.18 2.12 2.04 1.98 1.95 1.93 1.94 1.92
1572.117 1.94 1.95 1.99 2.01 1.96 1.96 2 2.02 2.06 2.09
1591.407 2.14 2.19 2.18 2.19 2.24 2.29 2.31 2.38 2.47 2.58
1610.697 2.66 2.72 2.79 2.83 2.86 2.83 2.82 2.81 2.74 2.66
1629.986 2.57 2.46 2.38 2.32 2.23 2.13 2.05 2.01 1.98 1.91
1649.276 1.84 1.83 1.84 1.82 1.81 1.8 1.82 1.86 1.9 1.93
1668.566 2.01 2.1 2.16 2.24 2.33 2.42 2.53 2.64 2.82 2.96
1687.856 3.11 3.28 3.48 3.7 3.96 4.2 4.46 4.8 5.11 5.48
1707.146 5.89 6.34 6.84 7.45 8.13 8.86 9.7 10.58 11.62 12.83
1726.435 14.17 15.73 17.43 19.32 21.58 24.05 26.75 29.86 33.23 36.94
1745.725 41 45.39 50.05 54.98 60.12 65.37 70.87 76.53 82.39 88.52
1765.015 94.84 101.4 108.19 114.76 120.91 126.03 129.78 132.04 132.62 131.56
1784.305 128.67 124.01 118.02 111.15 103.89 96.6 89.42 82.19 74.93 67.68
1803.594 60.62 53.89 47.52 41.53 36.06 31.13 26.82 23.13 20 17.31
1822.884 15.05 13.19 11.57 10.2 9.04 8.03 7.21 6.49 5.87 5.35
1842.174 4.89 4.51 4.15 3.86 3.64 3.42 3.23 3.1 2.99 2.87
1861.464 2.8 2.74 2.7 2.68 2.68 2.67 2.67 2.72 2.8 2.87
1880.754 2.92 2.98 3.04 3.08 3.13 3.18 3.21 3.19 3.15 3.07
1900.043 2.96 2.88 2.78 2.64 2.49 2.32 2.18 2.06 1.92 1.79
1919.333 1.66 1.55 1.47 1.41 1.34 1.29 1.24 1.17 1.14 1.1117
1938.623 1.1061 1.0964 1.0742 1.0554 1.0535 1.0678 1.071 1.087 1.0845 1.0948
1957.913 1.13 1.12 1.14 1.15 1.12 1.13 1.16 1.18 1.19 1.2
1977.202 1.18 1.18 1.2 1.21 1.22 1.22 1.17 1.14 1.12 1.0995
1996.492 1.0811 1.07 1.0217 0.98 0.9617 0.9316 0.8901 0.8528 0.832 0.8098
2015.782 0.7859 0.7643 0.7261 0.6802 0.6831 0.6789 0.6492 0.6214 0.6146 0.6174
2035.072 0.6058 0.589 0.5764 0.5956 0.5851 0.5473 0.5323 0.5275 0.5058 0.4638
2054.362 0.4613 0.4782 0.4907 0.5052 0.4943 0.4822 0.4647 0.4571 0.4761 0.477
2073.651 0.4803 0.4817 0.4806 0.5153 0.5106 0.4746 0.4869 0.5136 0.5159 0.4931
2092.941 0.473 0.4655 0.4544 0.46 0.4616 0.4659 0.4589 0.4529 0.4667 0.4793
2112.231 0.4637 0.4499 0.4627 0.4735 0.4696 0.4593 0.457 0.4403 0.4601 0.5096
2131.521 0.5059 0.4826 0.4908 0.5126 0.5269 0.5181 0.5214 0.5113 0.5104 0.5317
2150.810 0.547 0.5366 0.5362 0.5632 0.5556 0.5516 0.5652 0.5662 0.5733 0.571
2170.100 0.586 0.6265 0.6367 0.6411 0.6658 0.6785 0.6572 0.6505 0.6656 0.6711
2189.390 0.7031 0.7194 0.7306 0.7486 0.7408 0.7633 0.7962 0.8096 0.8401 0.8693
2208.680 0.87 0.8543 0.8466 0.8735 0.8838 0.8717 0.8712 0.8444 0.8001 0.7656
2227.970 0.742 0.7071 0.684 0.7009 0.7053 0.7141 0.7071 0.6928 0.6834 0.6403
2247.259 0.6159 0.6077 0.5734 0.5571 0.5638 0.5769 0.5623 0.5335 0.5164 0.5
2266.549 0.5276 0.5098 0.4963 0.5424 0.5271 0.4884 0.5136 0.5619 0.5619 0.5476
2285.839 0.5638 0.5897 0.5953 0.63 0.6801 0.7082 0.7609 0.7512 0.7143 0.7289
2305.129 0.7426 0.7726 0.7813 0.7581 0.7624 0.7847 0.7682 0.7742 0.7855 0.7207
2324.418 0.6985 0.7121 0.6927 0.6782 0.6627 0.6833 0.7004 0.6716 0.6413 0.6312
2343.708 0.6539 0.6523 0.6751 0.6911 0.6684 0.6703 0.6391 0.607 0.5944 0.5748
2362.998 0.5656 0.564 0.5727 0.5799 0.5989 0.6156 0.5908 0.5887 0.6038 0.6087
2382.288 0.6291 0.6459 0.6465 0.6483 0.6431 0.6141 0.5878 0.5778 0.6087 0.6084
2401.578 0.57 0.5591 0.5835 0.606 0.5759 0.5769 0.5637 0.5538 0.525 0.4765
2420.867 0.5114 0.5444 0.5521 0.5498 0.5482 0.5557 0.5426 0.5451 0.5836 0.5716
2440.157 0.5495 0.5499 0.5666 0.5772 0.5876 0.6071 0.5836 0.5856 0.5844 0.5615
2459.447 0.5405 0.5267 0.5621 0.565 0.5615 0.5683 0.5874 0.599 0.5851 0.5702
2478.737 0.5085 0.4975 0.512 0.4875 0.4772 0.4579 0.4495 0.473 0.4714 0.4322
2498.026 0.3933 0.4145 0.4212 0.3881 0.376 0.3703 0.4078 0.416 0.3682 0.3674
2517.316 0.3801 0.3526 0.3421 0.3173 0.326 0.3571 0.3553 0.3798 0.3871 0.3473
2536.606 0.3127 0.3143 0.3547 0.3751 0.3524 0.3338 0.3219 0.2971 0.3044 0.3045
2555.896 0.316 0.3393 0.3169 0.2782 0.2917 0.3293 0.3531 0.3796 0.3412 0.3489
2575.186 0.4006 0.3881 0.4136 0.4714 0.5092 0.5405 0.539 0.5372 0.5174 0.4916
2594.475 0.5459 0.5444 0.4877 0.4831 0.4649 0.4778 0.4881 0.4452 0.4084 0.3978
2613.765 0.418 0.4435 0.4325 0.4442 0.4395 0.4223 0.4351 0.4224 0.4362 0.4805
2633.055 0.4707 0.4517 0.4149 0.4362 0.4736 0.4452 0.4203 0.3836 0.3623 0.3716
2652.345 0.3337 0.3044 0.3332 0.3375 0.3483 0.332 0.3148 0.3115 0.3045 0.3578
2671.634 0.365 0.2977 0.2945 0.358 0.3774 0.3512 0.3705 0.3536 0.3366 0.376
2690.924 0.3821 0.3486 0.2971 0.3171 0.3355 0.3423 0.3835 0.4301 0.4623 0.4664
2710.214 0.46 0.4646 0.5103 0.5202 0.5286 0.5686 0.5794 0.6292 0.6902 0.7278
2729.504 0.7457 0.7825 0.8826 0.947 0.9782 1.0428 1.1024 1.071 1.0698 1.0491
2748.794 0.9363 0.8805 0.7954 0.713 0.6538 0.5747 0.5453 0.4832 0.4298 0.4484
2768.083 0.448 0.3871 0.3996 0.4383 0.4241 0.4819 0.5379 0.5409 0.523 0.521
2787.373 0.5051 0.4797 0.4986 0.5359 0.6546 0.7024 0.6903 0.6865 0.7328 0.8539
2806.663 0.8925 0.8899 0.9456 1.0433 1.0906 1.15 1.26 1.33 1.38 1.42
2825.953 1.48 1.57 1.65 1.74 1.93 2.06 2.18 2.32 2.43 2.6
2845.242 2.78 2.97 3.23 3.52 3.79 4.11 4.48 4.84 5.3 5.85
2864.532 6.38 6.89 7.46 8.11 8.68 9.15 9.52 9.76 9.93 10
2883.822 9.92 9.73 9.54 9.37 9.12 8.86 8.75 8.67 8.61 8.67
2903.112 8.87 9.1 9.42 9.91 10.45 11.14 11.93 12.88 14.04 15.35
2922.401 16.8 18.36 19.92 21.36 22.6 23.49 23.91 23.82 23.26 22.35
2941.691 21.04 19.41 17.7 16.02 14.43 13.01 11.9 11.09 10.43 9.85
2960.981 9.41 9.08 8.84 8.59 8.44 8.43 8.44 8.58 8.81 9.07
2980.271 9.37 9.74 10.18 10.57 10.98 11.46 11.92 12.35 12.78 13.23
2999.561 13.69 14.14 14.59 15.08 15.59 16.11 16.68 17.3 18.03 19
3018.850 20.13 21.31 22.52 23.6 24.24 24.51 24.42 23.96 23.22 22.08
3038.140 20.65 19.14 17.75 16.75 16.1 15.68 15.44 15.29 15.07 14.74
3057.430 14.42 14.03 13.54 12.99 12.36 11.62 10.82 10.04 9.25 8.54
3076.720 7.9 7.33 6.9 6.56 6.22 5.93 5.76 5.56 5.29 5.03
3096.009 4.79 4.61 4.45 4.2 3.95 3.72 3.49 3.2 2.92 2.69
3115.299 2.46 2.38 2.27 2.06 1.96 1.99 1.96 1.88 1.79 1.78
3134.589 1.78 1.67 1.57 1.47 1.35 1.21 1.0402 0.8811 0.7486 0.6853
3153.879 0.6254 0.5113 0.4447 0.4293 0.4256 0.3415 0.2758 0.3101 0.2693 0.2653
3173.169 0.3165 0.2797 0.2529 0.2886 0.3047 0.2946 0.229 0.1021 0.14907 0.19124
3192.458 0.18149 0.2416 0.17758 0.14922 0.21656 0.2507 0.2875 0.2865 0.2762 0.273
3211.748 0.20155 0.15618 0.14477 0.13108 0.14593 0.16206 0.062 0.0678 0.18582 0.18077
3231.038 0.15609 0.16983 0.2413 0.2286 0.14015 0.15853 0.1334 0.14986 0.20615 0.19766
3250.328 0.18119 0.15209 0.11808 0.13543 0.12829 0.059 0.0789 0.125664 0.16028 0.19415
3269.617 0.21904 0.17615 0.1754 0.20647 0.1466 0.15095 0.16167 0.1073 0.1042 0.101
3288.907 0.11416 0.14728 0.0729 0.015 0.14167 0.21925 0.21177 0.16578 0.1034 0.11337
3308.197 0.0915 0.0914 0.1524 0.19243 0.15111 0.0614 0.0943 0.0895 0.11627 0.14768
3327.487 0.1037 0.19002 0.15745 0.0466 0.0452 0.015 0 0.0268 0.0852 0.19809
3346.777 0.2452 0.17758 0.17334 0.19776 0.15615 0.18968 0.16452 0.122022 0.11334 0.127308
3366.066 0.0875 0.0592 0.0792 0.0643 0.1043 0.19411 0.2205 0.13812 0.0553 0.0577
3385.356 0.079 0.0855 0.0724 0.0797 0.12567 0.14323 0.17782 0.18525 0.17868 0.18803
3404.646 0.2592 0.3184 0.2927 0.2166 0.15689 0.19587 0.19832 0.2508 0.2653 0.20845
3423.936 0.2374 0.19223 0.2299 0.2876 0.2346 0.20621 0.19753 0.2588 0.3266 0.28
3443.225 0.2416 0.2711 0.19968 0.21732 0.3245 0.2876 0.2405 0.2427 0.2816 0.3094
3462.515 0.299 0.3387 0.3629 0.3334 0.3813 0.3983 0.3786 0.4715 0.5235 0.5109
3481.805 0.5727 0.5966 0.6316 0.6608 0.6539 0.7219 0.7704 0.859 0.9033 0.9889
3501.095 1.0724 1.0788 1.19 1.24 1.28 1.34 1.39 1.55 1.6 1.58
3520.385 1.76 1.92 2.07 2.19 2.28 2.45 2.67 2.92 3.22 3.54
3539.674 3.91 4.42 4.99 5.65 6.44 7.32 8.34 9.66 11.29 13.19
3558.964 15.68 19.15 24 30.55 38.61 46.74 52.67 55.56 56.64 56.36
3578.254 54.41 50.32 43.11 34.06 25.88 19.77 15.49 12.48 10.3 8.56
3597.544 7.06 5.92 5.06 4.4 3.83 3.36 2.99 2.6 2.27 2.06
3616.833 1.87 1.69 1.6 1.41 1.27 1.24 1.16 1.0283 0.9329 0.9335
3636.123 0.9682 0.9194 0.8423 0.796 0.7335 0.7553 0.7123 0.6513 0.6304 0.6031
3655.413 0.6591 0.6288 0.5553 0.5036 0.5518 0.5834 0.519 0.5358 0.5354 0.5529
3674.703 0.5717 0.5526 0.6464 0.5962 0.517 0.5468 0.4522 0.3932 0.4366 0.4878
3693.993 0.4465 0.3688 0.3608 0.3357 0.3206 0.2954 0.2893 0.348 0.272 0.16946
3713.282 0.15331 0.18835 0.2732 0.2612 0.21805 0.23 0.2515 0.2877 0.2614 0.2265
3732.572 0.2242 0.3083 0.3643 0.257 0.2989 0.3778 0.3336 0.2573 0.2216 0.2505
3751.862 0.2669 0.3166 0.2626 0.2449 0.2973 0.299 0.2961 0.21055 0.18878 0.2442
3771.152 0.17239 0.17782 0.15113 0.0981 0.13835 0.20406 0.2537 0.2328 0.2416 0.2523
3790.441 0.3223 0.21116 0.0633 0.19146 0.3393 0.27 0.21335 0.2613 0.2829 0.2487
3809.731 0.2221 0.2603 0.242 0.2086 0.256 0.3154 0.3206 0.3827 0.372 0.3942
3829.021 0.3809 0.2918 0.3118 0.3097 0.3004 0.3245 0.375 0.4315 0.4105 0.3972
3848.311 0.3904 0.3565 0.3471 0.3002 0.3716 0.3271 0.2825 0.3135 0.3369 0.4051
3867.601 0.4091 0.505 0.4638 0.3769 0.3784 0.2914 0.2891 0.3371 0.3517 0.409
3886.890 0.4782 0.448 0.3303 0.3187 0.3573 0.2972 0.3196 0.3357 0.2834 0.3122
3906.180 0.4274 0.4523 0.3696 0.4216 0.4197 0.3917 0.4313 0.3458 0.3188 0.3077
3925.470 0.2432 0.2483 0.3029 0.3635 0.3939 0.3069 0.2438 0.2937 0.3467 0.3637
3944.760 0.3284 0.3105 0.3987 0.5247 0.4376 0.3635 0.3562 0.3362 0.4084 0.3268
3964.049 0.2361 0.3177 0.3475 0.3222 0.2773 0.2568 0.3119 0.2799 0.2767 0.3428
3983.339 0.3806 0.3938 0.309 0.2882 0.3742 0.4047 0.3977 0.3472 0.21547 0.2701
##END=
