##TITLE=1-Formyl-2-phenylhydrazine
##JCAMP-DX=4.24
##DATA TYPE=INFRARED SPECTRUM
##ORIGIN=EPA-IR VAPOR PHASE LIBRARY
##OWNER=SRD/NIST
Collection (C) 2018 copyright by the U.S. Secretary of Commerce
on behalf of the United States of America. All rights reserved.
##CAS REGISTRY NO=622-84-4
##MOLFORM=C 7 H 8 N 2 O
##$NIST SOURCE=MSDC-IR
##STATE=gas
##XUNITS=1/CM
##YUNITS=ABSORBANCE
##XFACTOR=1.
##YFACTOR=0.001
##DELTAX=1.92898
##FIRSTX=549.8
##LASTX=4000.7
##FIRSTY=2.025
##MAXX=4000.7
##MINX=549.759
##MAXY=0.021625
##MINY=0
##NPOINTS=1790
##XYDATA=(X++(Y..Y))
549.759 2.025 1.935 1.875 1.795 1.875 1.675 1.575 1.845 1.865 1.805
569.049 1.645 1.685 1.885 1.805 1.935 1.975 1.665 1.455 1.455 1.385
588.339 1.435 1.535 1.465 1.475 1.475 1.415 1.435 1.375 1.255 1.205
607.628 1.255 1.265 1.245 1.255 1.235 1.305 1.265 1.295 1.495 1.565
626.918 1.385 1.325 1.375 1.315 1.325 1.565 1.645 1.445 1.445 1.365
646.208 1.405 1.465 1.375 1.325 1.345 1.515 1.625 1.625 1.635 1.675
665.498 1.735 1.735 1.735 2.025 2.145 2.095 2.335 2.645 2.845 2.785
684.787 2.695 2.725 2.845 2.995 3.005 2.945 2.735 2.515 2.315 2.205
704.077 2.195 2.085 2.035 1.895 1.755 1.705 1.635 1.705 1.855 1.945
723.367 2.015 1.995 2.045 2.225 2.375 2.565 2.735 2.895 3.105 3.265
742.657 3.535 3.865 4.105 4.215 4.195 4.135 3.955 3.725 3.455 3.125
761.947 2.885 2.895 2.735 2.395 2.185 2.015 1.855 1.685 1.525 1.395
781.236 1.315 1.235 1.1499 1.175 1.175 1.1292 1.0231 0.986 1.01 1.0506
800.526 1.001 0.9211 0.952 0.8924 0.8404 0.8015 0.8348 0.9478 0.8617 0.7588
819.816 0.8375 0.8365 0.7128 0.7032 0.6569 0.6679 0.8789 0.8956 0.8726 0.807
839.106 0.7211 0.7373 0.7831 0.9389 1.1453 1.06 0.8612 0.8627 0.994 1.105
858.395 1.0724 1.0791 1.1212 1.165 1.215 1.165 1.1059 1.185 1.255 1.155
877.685 1.205 1.415 1.415 1.425 1.375 1.235 1.0873 1.1518 1.235 1.1173
896.975 1.0141 0.9463 0.9652 0.9062 0.8554 0.9272 0.9874 0.9483 0.8479 0.8702
916.265 0.8936 0.8215 0.7946 0.7304 0.7942 0.8175 0.8432 1.0081 0.9829 0.8572
935.555 0.8357 0.8513 0.8078 0.6781 0.5549 0.7434 0.848 0.6818 0.6756 0.7757
954.844 0.7718 0.8043 0.8684 0.7149 0.6981 0.7734 0.8303 0.7752 0.7406 0.7793
974.134 0.9335 1.1436 0.928 0.7844 0.9801 1.185 1.225 1.1045 1.0606 1.1078
993.424 1.0482 1.088 1.255 1.245 1.215 1.445 1.475 1.315 1.205 1.375
1012.714 1.725 1.655 1.645 1.715 1.685 1.635 1.735 1.955 1.825 1.845
1032.003 1.965 1.725 1.665 1.785 1.725 1.675 1.595 1.625 1.795 1.935
1051.293 1.845 1.575 1.495 1.705 1.485 1.185 1.535 1.685 1.515 1.435
1070.583 1.595 1.505 1.455 1.735 1.655 1.655 1.355 0.9286 0.8013 0.7676
1089.873 1.0751 1.1177 0.8753 0.9814 0.9063 0.7899 0.9083 0.7247 0.7207 0.8768
1109.163 0.9121 0.6686 0.655 1.0946 1.1241 1.0453 1.1215 1.1469 1.185 1.325
1128.452 1.455 1.295 1.0042 1.0666 1.095 0.6536 0.7192 1.265 1.335 1.185
1147.742 1.615 1.785 1.405 1.305 1.475 1.475 1.265 1.165 1.275 1.585
1167.032 1.595 1.845 2.125 1.875 1.885 1.885 2.015 2.245 2.535 2.825
1186.322 2.725 2.615 2.835 3.205 3.375 3.695 3.805 3.405 3.445 3.755
1205.611 3.905 3.875 3.785 4.135 4.245 4.165 4.345 4.525 4.405 4.275
1224.901 3.955 3.385 3.335 3.335 2.885 2.415 2.075 2.005 1.805 1.535
1244.191 1.495 1.425 1.345 1.235 1.275 1.445 1.405 1.285 1.335 1.285
1263.481 1.225 1.335 1.295 1.1085 1.1086 1.1399 1.165 1.1388 1.0738 0.9568
1282.771 0.8129 0.772 0.792 0.8031 0.8163 0.8281 0.8071 0.8167 0.821 0.8315
1302.060 0.923 0.9989 0.9293 0.8772 0.8299 0.777 0.7713 0.7024 0.6181 0.574
1321.350 0.5773 0.5488 0.4913 0.5079 0.5391 0.524 0.5087 0.5257 0.5029 0.4613
1340.640 0.4965 0.5037 0.4542 0.4229 0.4298 0.4654 0.5116 0.5455 0.5344 0.5071
1359.930 0.516 0.5747 0.6393 0.6755 0.6777 0.6949 0.7445 0.7759 0.7623 0.7897
1379.219 0.8088 0.7573 0.7006 0.6641 0.6574 0.6634 0.6713 0.69 0.7116 0.7253
1398.509 0.7217 0.7649 0.8473 0.9038 0.9748 1.0757 1.165 1.265 1.425 1.545
1417.799 1.675 1.805 1.885 1.945 1.995 2.045 2.035 2.035 2.045 1.995
1437.089 1.915 1.875 1.835 1.815 1.795 1.775 1.825 1.855 1.835 1.825
1456.378 1.805 1.775 1.755 1.715 1.595 1.505 1.515 1.535 1.595 1.615
1475.668 1.665 1.795 1.975 2.225 2.545 3.055 3.695 4.305 4.825 5.165
1494.958 5.315 5.305 5.245 5.095 4.785 4.325 3.625 2.885 2.295 1.805
1514.248 1.435 1.155 1.0098 0.8926 0.8181 0.7443 0.627 0.6172 0.666 0.6493
1533.538 0.5937 0.5979 0.6092 0.6075 0.5816 0.5021 0.4958 0.5406 0.5664 0.5703
1552.827 0.5264 0.5628 0.618 0.6043 0.6352 0.71 0.7084 0.7247 0.7773 0.8102
1572.117 0.8475 0.9172 1.0714 1.205 1.335 1.495 1.655 1.915 2.265 2.605
1591.407 3.015 3.455 3.885 4.265 4.425 4.575 4.635 4.445 4.175 3.825
1610.697 3.355 2.875 2.505 2.085 1.695 1.385 1.1456 1.0312 0.9429 0.8155
1629.986 0.7615 0.7259 0.6007 0.573 0.6314 0.5802 0.5315 0.5329 0.5261 0.5206
1649.276 0.5154 0.5325 0.6065 0.6653 0.6405 0.6256 0.6364 0.6779 0.7402 0.7459
1668.566 0.8108 0.8808 0.9595 1.0709 1.155 1.295 1.465 1.585 1.665 1.775
1687.856 1.945 2.085 2.175 2.305 2.435 2.535 2.655 2.755 2.845 3.045
1707.146 3.245 3.495 3.885 4.305 4.805 5.435 6.185 7.035 8.035 9.155
1726.435 10.375 11.815 13.605 15.575 17.815 19.885 21.175 21.625 21.335 20.645
1745.725 19.835 18.895 17.345 14.695 11.545 8.765 6.745 5.585 4.925 4.465
1765.015 4.165 3.945 3.695 3.445 3.245 3.055 2.745 2.395 2.105 1.845
1784.305 1.645 1.495 1.375 1.255 1.195 1.165 1.1113 1.0559 1.0199 0.984
1803.594 0.9243 0.8145 0.7422 0.7326 0.6829 0.6662 0.6171 0.5817 0.57 0.5431
1822.884 0.5515 0.595 0.6157 0.6217 0.5545 0.5003 0.5536 0.5952 0.6041 0.5538
1842.174 0.5295 0.5012 0.4681 0.4538 0.4531 0.4401 0.4131 0.4559 0.4584 0.3891
1861.464 0.3477 0.3807 0.3382 0.3133 0.3689 0.3928 0.4034 0.388 0.3399 0.2829
1880.754 0.2941 0.3221 0.3413 0.3309 0.3371 0.3622 0.3637 0.3806 0.3637 0.3307
1900.043 0.3057 0.334 0.3518 0.3378 0.3639 0.3957 0.4254 0.4384 0.4295 0.4141
1919.333 0.4125 0.3608 0.3771 0.4549 0.4949 0.4985 0.4739 0.4734 0.4576 0.4715
1938.623 0.4746 0.4511 0.4074 0.3829 0.4029 0.3871 0.3403 0.3152 0.3206 0.3117
1957.913 0.3092 0.281 0.2838 0.3244 0.32 0.2912 0.2853 0.2926 0.2735 0.2598
1977.202 0.2926 0.2946 0.24557 0.24104 0.2943 0.2945 0.2686 0.2984 0.3058 0.2874
1996.492 0.2743 0.24155 0.24154 0.2939 0.315 0.2907 0.2837 0.2799 0.20923 0.17792
2015.782 0.19625 0.19075 0.23135 0.2578 0.2585 0.25149 0.21427 0.24408 0.2665 0.24187
2035.072 0.23106 0.20734 0.19923 0.20798 0.20566 0.21372 0.22198 0.17423 0.1432 0.16935
2054.362 0.21349 0.2661 0.2649 0.24533 0.2576 0.2628 0.20389 0.18865 0.20451 0.19388
2073.651 0.22318 0.2708 0.2639 0.21165 0.2457 0.23702 0.1933 0.16575 0.17901 0.22331
2092.941 0.22723 0.21219 0.21687 0.23765 0.22927 0.23937 0.22514 0.22854 0.20068 0.16713
2112.231 0.17833 0.22045 0.2663 0.268 0.2669 0.24265 0.17568 0.160256 0.19474 0.21391
2131.521 0.23036 0.21222 0.19364 0.17747 0.1322 0.1201 0.1447 0.1247 0.15278 0.18898
2150.810 0.159407 0.18497 0.23088 0.20859 0.21081 0.20912 0.1417 0.156821 0.20067 0.20719
2170.100 0.22606 0.21541 0.18791 0.22591 0.2708 0.21449 0.21285 0.2863 0.25249 0.22529
2189.390 0.24175 0.21604 0.18664 0.18943 0.20749 0.21673 0.21625 0.2293 0.1901 0.18068
2208.680 0.22728 0.24475 0.24598 0.20723 0.18673 0.19473 0.23342 0.24104 0.23037 0.22502
2227.970 0.18214 0.21043 0.23061 0.19049 0.22924 0.2805 0.25227 0.25217 0.2739 0.22321
2247.259 0.2574 0.2684 0.22673 0.21173 0.17535 0.22239 0.2833 0.2629 0.22358 0.2782
2266.549 0.2571 0.24333 0.3097 0.2558 0.22704 0.2799 0.3104 0.3084 0.3712 0.4004
2285.839 0.302 0.3062 0.3583 0.3624 0.301 0.2657 0.31 0.3148 0.34 0.2675
2305.129 0.22252 0.2908 0.2958 0.273 0.2638 0.2884 0.3328 0.346 0.3094 0.2565
2324.418 0.2824 0.3417 0.3343 0.3347 0.362 0.3169 0.2611 0.2816 0.285 0.2692
2343.708 0.2789 0.2847 0.2623 0.2586 0.25203 0.23148 0.2945 0.3013 0.3103 0.3464
2362.998 0.3347 0.4026 0.411 0.3536 0.293 0.24508 0.19894 0.19116 0.21775 0.189
2382.288 0.18563 0.15207 0.14662 0.16524 0.1076 0.1037 0.14567 0.1157 0.1411 0.24877
2401.578 0.23746 0.17982 0.154214 0.17807 0.23418 0.20255 0.18292 0.23652 0.23527 0.16723
2420.867 0.15048 0.18325 0.17485 0.16965 0.21452 0.22101 0.156086 0.1421 0.21457 0.22527
2440.157 0.162474 0.1099 0.1027 0.17616 0.23647 0.18202 0.15145 0.23097 0.2661 0.23089
2459.447 0.23226 0.22694 0.1422 0.16073 0.19793 0.15291 0.163209 0.19857 0.2676 0.2756
2478.737 0.22031 0.17031 0.1357 0.19411 0.20254 0.16519 0.18616 0.157025 0.16525 0.16614
2498.026 0.1348 0.16568 0.18016 0.20212 0.23784 0.2579 0.2056 0.156191 0.1151 0.0932
2517.316 0.17027 0.19523 0.14865 0.17078 0.16526 0.1449 0.157665 0.1363 0.17251 0.23038
2536.606 0.23575 0.17444 0.1161 0.164827 0.17532 0.16537 0.20751 0.17915 0.18111 0.23669
2555.896 0.23609 0.23976 0.24386 0.24546 0.24934 0.265 0.2829 0.23174 0.24347 0.20535
2575.186 0.15074 0.21267 0.3048 0.2968 0.14518 0.1448 0.1417 0.0737 0.1307 0.19488
2594.475 0.21472 0.1934 0.22354 0.1992 0.162299 0.19965 0.156398 0.0622 0.159241 0.24698
2613.765 0.19831 0.20668 0.17681 0.15164 0.2155 0.24095 0.23156 0.21699 0.21184 0.22692
2633.055 0.18973 0.16727 0.1423 0.1307 0.1615 0.18261 0.21981 0.22324 0.18426 0.19072
2652.345 0.24402 0.2678 0.1937 0.1156 0.15181 0.20409 0.21163 0.157373 0.1365 0.21981
2671.634 0.22045 0.15442 0.14633 0.18128 0.18597 0.25165 0.31 0.23627 0.20469 0.2605
2690.924 0.269 0.2678 0.3056 0.2985 0.2792 0.2807 0.2649 0.23347 0.21481 0.24929
2710.214 0.294 0.2561 0.16059 0.20891 0.3163 0.3583 0.3808 0.3804 0.408 0.4811
2729.504 0.5115 0.5145 0.5241 0.4682 0.4158 0.3487 0.2716 0.2967 0.3744 0.3808
2748.794 0.3162 0.3019 0.3059 0.2768 0.19144 0.20175 0.24476 0.24223 0.32 0.3071
2768.083 0.2555 0.24792 0.2688 0.2734 0.20162 0.156129 0.22179 0.2866 0.256 0.2823
2787.373 0.3139 0.3195 0.3354 0.2816 0.3317 0.4044 0.389 0.3773 0.4149 0.4715
2806.663 0.5361 0.5365 0.4661 0.5263 0.6005 0.6146 0.6454 0.7457 0.8673 0.9355
2825.953 1.0379 1.1176 1.255 1.395 1.485 1.615 1.835 2.165 2.445 2.645
2845.242 2.835 3.035 3.225 3.295 3.275 3.195 3.065 3.005 2.895 2.715
2864.532 2.505 2.195 1.925 1.645 1.465 1.435 1.335 1.155 1.0619 1.0039
2883.822 0.9357 0.8674 0.7829 0.6622 0.5701 0.5696 0.474 0.4555 0.4664 0.3545
2903.112 0.4261 0.5154 0.3996 0.2674 0.2949 0.379 0.347 0.3613 0.4483 0.4087
2922.401 0.3199 0.3468 0.3788 0.3729 0.2868 0.24134 0.289 0.258 0.2333 0.3007
2941.691 0.26 0.1446 0.19317 0.2957 0.25049 0.2174 0.2971 0.2936 0.21534 0.22157
2960.981 0.279 0.2796 0.23824 0.22308 0.22243 0.2688 0.3317 0.22848 0.1107 0.157728
2980.271 0.19509 0.20647 0.23069 0.23106 0.2672 0.3802 0.4229 0.3363 0.2774 0.293
2999.561 0.2897 0.25094 0.303 0.4551 0.542 0.4986 0.548 0.6333 0.7005 0.7848
3018.850 0.8675 0.9147 0.9793 1.0583 1.0502 1.1284 1.205 1.205 1.275 1.355
3038.140 1.315 1.275 1.355 1.365 1.365 1.385 1.475 1.495 1.475 1.465
3057.430 1.575 1.745 1.765 1.825 1.905 1.865 1.825 1.745 1.675 1.655
3076.720 1.665 1.585 1.435 1.435 1.395 1.365 1.375 1.345 1.225 1.1489
3096.009 1.155 1.165 1.185 1.056 0.9014 0.8816 0.836 0.7619 0.7082 0.6413
3115.299 0.575 0.5843 0.561 0.4833 0.4155 0.3155 0.23133 0.2592 0.3052 0.27
3134.589 0.298 0.2797 0.23726 0.18765 0.1087 0.1196 0.18636 0.118 0 0.1164
3153.879 0.2397 0.2274 0.24209 0.2615 0.20645 0.1402 0.155604 0.1232 0.048 0.0694
3173.169 0.18967 0.2578 0.3001 0.2923 0.25449 0.18808 0.0718 0.1204 0.23297 0.312
3192.458 0.3415 0.2909 0.20607 0.18636 0.2757 0.363 0.3791 0.3045 0.2994 0.2625
3211.748 0.164622 0.1246 0.1199 0.157818 0.23886 0.2924 0.20578 0.21109 0.2735 0.2766
3231.038 0.22681 0.1406 0.18977 0.3104 0.3307 0.20347 0.1226 0.25025 0.3762 0.3399
3250.328 0.2861 0.21554 0.19982 0.21006 0.0995 0.1008 0.1434 0.155803 0.20487 0.18185
3269.617 0.2588 0.3574 0.323 0.2586 0.2805 0.2555 0.18383 0.20089 0.22125 0.21527
3288.907 0.23372 0.258 0.3435 0.451 0.4595 0.3884 0.4502 0.4555 0.3873 0.3902
3308.197 0.3149 0.21996 0.2582 0.4224 0.5092 0.3962 0.2623 0.2629 0.3426 0.4569
3327.487 0.4583 0.5491 0.6516 0.5521 0.522 0.6235 0.6809 0.7508 0.7563 0.7319
3346.777 0.7898 0.8694 0.9556 0.9323 0.8478 0.8276 1.0126 1.175 1.0505 1.0337
3366.066 1.086 1.0144 0.9348 0.9572 0.9899 0.9784 0.9861 0.9434 0.8252 0.7329
3385.356 0.7488 0.8083 0.8389 0.8198 0.7329 0.7412 0.7447 0.6824 0.6945 0.7343
3404.646 0.7964 0.7509 0.6421 0.6851 0.6458 0.6397 0.7143 0.6895 0.7316 0.7525
3423.936 0.8284 0.8292 0.814 0.9656 0.9776 0.9438 1.0224 1.043 1.0041 1.0336
3443.225 1.1172 1.0361 0.8188 0.8843 0.9931 0.9966 1.0033 0.9061 0.7705 0.7406
3462.515 0.6907 0.6324 0.7541 0.6688 0.552 0.5868 0.5588 0.4766 0.5063 0.6017
3481.805 0.5215 0.4615 0.4888 0.5014 0.459 0.3693 0.3972 0.4004 0.3456 0.25468
3501.095 0.2884 0.324 0.2782 0.349 0.3806 0.3355 0.3355 0.3464 0.2639 0.23002
3520.385 0.158658 0.0991 0.17828 0.18089 0.19767 0.2678 0.2692 0.19608 0.18952 0.2126
3539.674 0.21238 0.3259 0.24202 0.0624 0.1115 0.21863 0.25098 0.24097 0.357 0.3728
3558.964 0.2848 0.2932 0.24777 0.2771 0.24531 0.1083 0.16887 0.21857 0.1199 0.14846
3578.254 0.163761 0.17955 0.24502 0.2026 0.19029 0.2902 0.3394 0.3505 0.3133 0.21715
3597.544 0.21587 0.20404 0.24698 0.2937 0.24846 0.16663 0.1269 0.18153 0.156412 0.1447
3616.833 0.22456 0.25401 0.19618 0.131 0.276 0.3438 0.2938 0.23688 0.19512 0.2662
3636.123 0.24756 0.20701 0.1423 0.008 0.1632 0.3107 0.14867 0.1271 0.20914 0.19085
3655.413 0.158634 0.16961 0.157431 0.20485 0.18725 0.1344 0.1387 0.15087 0.1454 0.1038
3674.703 0.157061 0.17614 0.1151 0.1686 0.20867 0.20359 0.18108 0.164939 0.22297 0.25211
3693.993 0.3252 0.4059 0.3158 0.065 0.001 0.045 0.0985 0.2906 0.3827 0.4122
3713.282 0.2826 0.2571 0.3833 0.23666 0.1174 0.2892 0.2958 0.19461 0.24056 0.17532
3732.572 0.2756 0.4204 0.3254 0.2716 0.3046 0.22691 0.155028 0.2327 0.3418 0.2737
3751.862 0.2356 0.2684 0.15287 0.14695 0.2265 0.24549 0.2856 0.3367 0.24696 0.1272
3771.152 0.17396 0.24582 0.24931 0.17412 0.21824 0.3534 0.2942 0.0733 0.1223 0.3131
3790.441 0.20614 0.18072 0.0949 0.043 0.1405 0.17858 0.19634 0.19072 0.18744 0.20643
3809.731 0.22403 0.2883 0.3916 0.2567 0.18593 0.21638 0.22821 0.2955 0.2874 0.3507
3829.021 0.384 0.2819 0.2521 0.21651 0.1346 0.1088 0.1415 0.19115 0.2659 0.2907
3848.311 0.288 0.16634 0.055 0.22886 0.2614 0.19815 0.16847 0.19273 0.18013 0.15351
3867.601 0.24693 0.3138 0.24001 0.17924 0.22055 0.3019 0.2675 0.2752 0.4017 0.4257
3886.890 0.4585 0.2841 0.1347 0.23948 0.2714 0.18703 0.16025 0.19945 0.28 0.3368
3906.180 0.2815 0.21249 0.0827 0.046 0.1833 0.2064 0.2694 0.264 0.21188 0.2739
3925.470 0.23014 0.1309 0.18294 0.1341 0.136 0.2972 0.19164 0.1436 0.1139 0.15179
3944.760 0.3233 0.373 0.373 0.3418 0.19971 0.0795 0.155387 0.2782 0.3883 0.2929
3964.049 0.1405 0.162956 0.15393 0.2889 0.4236 0.2986 0.1232 0.1149 0.156334 0.158605
3983.339 0.18609 0.20017 0.21792 0.19978 0.21415 0.3859 0.3605 0.22873 0.2679 0.3246
##END=
