##TITLE=1-Phenyl-1-butyne
##JCAMP-DX=4.24
##DATA TYPE=INFRARED SPECTRUM
##ORIGIN=NIST Mass Spectrometry Data Center
##OWNER=NIST Standard Reference Data Program
Collection (C) 2018 copyright by the U.S. Secretary of Commerce
on behalf of the United States of America. All rights reserved.
##CAS REGISTRY NO=622-76-4
##MOLFORM=C 10 H 10
##$NIST SOURCE=MSDC-IR
##SPECTROMETER/DATA SYSTEM=HP-GC/MS/IRD
##STATE=gas
##XUNITS=1/CM
##YUNITS=ABSORBANCE
##XFACTOR=1.0
##YFACTOR=0.000002400
##DELTAX=4.0
##FIRSTX=550.0
##LASTX=3846.0
##FIRSTY=0.002621
##MAXX=3846
##MINX=550
##MAXY=0.024
##MINY=0
##NPOINTS=825
##XYDATA=(X++(Y..Y))
550.0 1092 775 541 437 340 324 336 355 336 266
590.0 284 354 417 484 478 484 464 346 264 216
630.0 231 315 379 429 483 585 767 1079 1460 1956
670.0 2719 3654 4526 5340 6565 7178 6502 5890 5113 4022
710.0 3032 2288 1904 1840 2118 2766 3811 5144 6484 7614
750.0 9126 9879 8457 6972 5815 4249 2803 1754 1053 659
790.0 447 332 289 274 276 273 276 294 246 258
830.0 269 255 248 193 164 148 137 138 129 136
870.0 176 202 231 292 376 439 496 546 570 634
910.0 681 607 520 436 330 229 149 88 56 35
950.0 9 6 9 21 7 4 15 7 38 104
990.0 168 210 284 442 643 773 822 831 812 777
1030.0 715 655 576 521 595 756 962 1170 1325 1379
1070.0 1368 1274 1074 871 727 603 481 394 317 244
1110.0 195 135 92 81 57 49 87 109 94 87
1150.0 75 58 57 66 54 38 37 37 26 18
1190.0 16 17 28 34 31 36 48 74 95 116
1230.0 153 174 217 269 300 353 391 386 384 383
1270.0 387 405 409 409 431 488 618 857 1308 2112
1310.0 3508 5605 7559 8080 7277 5323 2862 1389 860 655
1350.0 556 507 486 491 499 496 506 523 532 539
1390.0 538 543 554 544 557 616 702 826 979 1178
1430.0 1442 1776 2055 2129 2135 2058 1890 1761 1727 1743
1470.0 1814 2123 2877 4261 5887 6776 6610 5438 3617 2170
1510.0 1405 977 715 549 439 378 338 332 353 346
1550.0 335 370 431 467 529 641 792 1014 1337 1832
1590.0 2509 3166 3530 3351 2667 1817 1044 576 376 288
1630.0 254 239 229 229 243 301 387 446 477 443
1670.0 358 243 152 133 124 101 102 120 128 117
1710.0 118 151 208 238 261 308 342 339 308 293
1750.0 294 256 211 188 178 182 201 237 309 409
1790.0 502 544 507 431 341 295 295 281 240 189
1830.0 134 105 108 133 165 194 244 310 368 410
1870.0 449 502 574 604 570 477 353 227 139 120
1910.0 138 166 216 271 322 380 438 478 521 577
1950.0 613 596 518 403 264 141 76 50 38 27
1990.0 25 31 32 24 15 17 25 25 24 28
2030.0 34 40 45 58 68 53 41 47 40 28
2070.0 16 12 14 10 8 1 1 7 3 5
2110.0 17 27 28 20 30 46 55 58 51 51
2150.0 64 80 75 68 73 66 55 57 81 97
2190.0 106 139 187 237 287 331 372 425 498 588
2230.0 664 714 710 637 500 362 270 208 178 166
2270.0 154 137 116 102 98 94 91 93 100 121
2310.0 141 148 144 130 117 98 83 83 82 73
2350.0 60 44 28 24 23 20 23 36 45 51
2390.0 62 66 53 38 30 22 19 19 24 40
2430.0 36 32 35 24 24 25 23 22 27 28
2470.0 31 32 28 29 28 44 68 79 86 89
2510.0 94 90 69 45 37 40 33 29 32 28
2550.0 32 23 0 3 15 17 11 9 19 25
2590.0 38 56 66 72 75 82 98 111 137 170
2630.0 177 182 183 150 87 43 31 27 20 11
2670.0 12 23 30 27 36 54 51 51 64 72
2710.0 73 78 87 88 83 79 98 125 157 174
2750.0 162 161 165 163 166 168 162 159 157 175
2790.0 192 207 219 232 257 283 321 366 424 499
2830.0 581 674 788 923 1095 1345 1701 2070 2298 2342
2870.0 2251 2123 2217 2690 3350 3817 4077 4179 4165 4229
2910.0 4364 4535 4710 4901 5080 5183 5282 5699 6726 7664
2950.0 7769 7233 6041 4860 4555 5014 6422 8719 9983 10000
2990.0 8823 6263 4455 3740 3378 3155 3018 2931 2874 2937
3030.0 3214 3564 3707 3658 3516 3473 3923 4815 5792 6504
3070.0 6574 6213 5603 4875 4416 4230 4033 3576 2987 2428
3110.0 1891 1389 963 662 521 481 464 456 458 467
3150.0 452 407 358 328 294 277 292 285 262 249
3190.0 225 196 160 123 122 131 122 112 112 121
3230.0 115 104 106 109 81 56 74 86 81 76
3270.0 77 76 67 47 25 26 41 49 42 34
3310.0 34 39 41 39 18 9 18 22 26 33
3350.0 31 23 19 21 23 7 8 24 29 26
3390.0 19 18 7 12 21 1 6 20 27 32
3430.0 38 46 42 36 35 46 55 67 80 79
3470.0 65 73 83 74 76 69 52 42 52 51
3510.0 32 38 38 41 46 41 50 56 51 53
3550.0 54 48 47 66 57 25 14 25 33 45
3590.0 49 51 40 23 35 46 50 49 44 46
3630.0 46 43 55 58 75 75 66 75 52 47
3670.0 77 77 54 50 68 69 66 69 71 80
3710.0 74 53 52 64 67 76 82 86 95 99
3750.0 106 93 64 68 88 79 72 89 90 78
3790.0 63 40 55 70 44 23 30 46 37 27
3830.0 36 44 50 31 25
##END=
