##TITLE=Benzyl azide
##JCAMP-DX=4.24
##DATA TYPE=INFRARED SPECTRUM
##ORIGIN=NIST Mass Spectrometry Data Center
##OWNER=NIST Standard Reference Data Program
Collection (C) 2018 copyright by the U.S. Secretary of Commerce
on behalf of the United States of America. All rights reserved.
##CAS REGISTRY NO=622-79-7
##MOLFORM=C 7 H 7 N 3
##$NIST SOURCE=MSDC-IR
##SPECTROMETER/DATA SYSTEM=HP-GC/MS/IRD
##STATE=gas
##XUNITS=1/CM
##YUNITS=ABSORBANCE
##XFACTOR=1.0
##YFACTOR=0.000012400
##DELTAX=4.0
##FIRSTX=550.0
##LASTX=3846.0
##FIRSTY=0.001699
##MAXX=3846
##MINX=550
##MAXY=0.124
##MINY=0
##NPOINTS=825
##XYDATA=(X++(Y..Y))
550.0 137 136 146 195 229 244 236 226 184 135
590.0 107 87 88 97 97 95 101 110 116 107
630.0 102 120 146 169 198 241 293 342 396 472
670.0 574 698 863 1042 1216 1418 1599 1682 1673 1585
710.0 1453 1325 1220 1159 1133 1129 1147 1146 1092 978
750.0 824 653 480 332 228 162 119 101 98 101
790.0 111 124 137 156 173 190 210 241 237 206
830.0 189 158 136 118 103 99 106 120 145 189
870.0 243 296 337 359 357 331 294 256 222 193
910.0 163 144 133 121 105 95 89 80 69 61
950.0 58 53 50 47 36 25 23 16 7 0
990.0 0 8 15 16 21 33 49 79 121 134
1030.0 120 104 70 24 11 14 21 40 64 81
1070.0 88 97 108 112 110 109 89 72 69 74
1110.0 74 68 71 80 91 110 138 171 201 231
1150.0 266 306 339 359 387 431 484 536 576 632
1190.0 692 748 809 867 918 959 995 1048 1117 1203
1230.0 1321 1460 1627 1821 2028 2225 2390 2502 2535 2477
1270.0 2345 2162 1955 1752 1574 1428 1322 1244 1190 1145
1310.0 1101 1057 1023 1006 1008 1027 1055 1075 1063 1001
1350.0 887 739 581 437 334 275 244 222 206 186
1390.0 169 157 142 123 107 100 100 110 123 143
1430.0 180 233 304 388 465 509 518 492 429 335
1470.0 250 192 169 179 232 304 345 346 319 244
1510.0 133 64 38 28 24 21 21 23 21 18
1550.0 21 26 36 48 64 84 100 110 121 131
1590.0 138 140 143 150 155 155 162 182 218 256
1630.0 276 275 261 236 189 124 70 40 26 19
1670.0 11 5 3 2 0 0 1 3 1 0
1710.0 0 6 10 10 11 16 20 24 26 27
1750.0 29 32 33 32 32 35 38 42 50 63
1790.0 79 90 93 89 76 56 38 29 27 25
1830.0 22 20 19 23 28 32 38 45 51 55
1870.0 59 60 62 61 58 57 51 44 38 34
1910.0 35 36 41 47 56 70 81 88 98 107
1950.0 113 112 104 93 81 67 60 56 57 64
1990.0 74 86 104 127 152 182 220 269 328 405
2030.0 506 630 781 974 1214 1507 1861 2286 2791 3388
2070.0 4085 4886 5791 6785 7816 8794 9575 10000 9949 9412
2110.0 8469 7288 6132 5191 4480 3932 3483 3092 2743 2422
2150.0 2130 1874 1658 1475 1325 1202 1103 1022 950 887
2190.0 831 780 733 687 640 593 549 503 458 415
2230.0 374 336 303 274 244 219 200 183 166 151
2270.0 138 125 111 101 93 85 78 74 72 71
2310.0 68 66 63 62 61 56 54 51 52 51
2350.0 48 49 50 50 49 48 45 43 45 48
2390.0 49 49 50 53 57 61 65 67 74 79
2430.0 84 90 92 96 98 100 98 98 102 103
2470.0 101 102 102 103 105 106 105 102 102 100
2510.0 95 89 87 85 81 76 72 66 63 62
2550.0 59 55 54 50 46 45 44 43 39 39
2590.0 38 36 34 33 29 23 19 19 19 13
2630.0 12 15 16 17 15 13 14 14 11 12
2670.0 10 7 6 7 6 3 3 6 3 2
2710.0 5 6 1 1 3 4 3 0 2 5
2750.0 4 6 7 9 11 15 22 25 28 32
2790.0 32 34 36 35 36 39 39 39 44 50
2830.0 62 81 102 121 140 164 195 232 277 326
2870.0 379 429 473 501 504 492 475 457 438 423
2910.0 422 425 437 457 472 481 482 470 448 418
2950.0 385 357 331 314 302 291 277 261 244 229
2990.0 211 200 200 212 239 285 352 440 553 682
3030.0 813 915 959 941 869 768 693 692 772 894
3070.0 989 1029 1017 937 791 658 568 501 436 365
3110.0 294 231 178 131 90 60 44 31 25 22
3150.0 15 12 13 14 13 14 12 7 2 0
3190.0 0 1 2 2 4 10 8 7 11 12
3230.0 14 17 21 28 32 35 39 44 47 47
3270.0 49 53 57 59 62 69 74 71 70 72
3310.0 70 76 82 84 85 77 74 80 75 73
3350.0 73 68 66 66 64 60 54 51 53 54
3390.0 51 46 44 40 37 36 36 33 33 30
3430.0 32 31 31 32 28 27 25 18 17 20
3470.0 18 16 13 11 11 13 15 12 9 9
3510.0 8 6 5 3 2 3 5 6 10 10
3550.0 6 2 1 2 2 1 1 4 7 6
3590.0 7 9 9 5 6 7 4 8 11 11
3630.0 10 9 12 10 10 13 16 16 12 7
3670.0 6 0 2 7 8 8 9 10 8 8
3710.0 7 0 1 5 3 0 0 3 8 10
3750.0 0 0 0 0 0 1 0 0 1 2
3790.0 1 2 1 1 4 5 1 0 0 0
3830.0 5 7 5 4 4
##END=
