##TITLE=9-Fluorenone-4-carboxylic aicd
##JCAMP-DX=4.24
##DATA TYPE=INFRARED SPECTRUM
##ORIGIN=EPA-IR VAPOR PHASE LIBRARY
##OWNER=SRD/NIST
Collection (C) 2018 copyright by the U.S. Secretary of Commerce
on behalf of the United States of America. All rights reserved.
##CAS REGISTRY NO=6223-83-2
##MOLFORM=C 14 H 8 O 2
##$NIST SOURCE=MSDC-IR
##STATE=gas
##XUNITS=1/CM
##YUNITS=ABSORBANCE
##XFACTOR=1.
##YFACTOR=0.001
##DELTAX=3.85796
##FIRSTX=501.5
##LASTX=4000.7
##FIRSTY=0
##MAXX=4000.7
##MINX=501.534
##MAXY=0.012511
##MINY=0
##NPOINTS=908
##XYDATA=(X++(Y..Y))
501.534 0 0.0665 0.115513 0.0909 0.0999 0.2683 0.4055 0.3263 0.2146 0.3475
540.114 0.4737 0.4778 0.629 0.6704 0.6006 0.7018 0.733 0.7612 0.9677 1.121
578.693 1.1075 1.251 1.311 1.171 1.0762 0.8641 0.7526 0.6348 0.5819 0.7702
617.273 1.1021 1.401 1.421 1.181 0.756 0.6133 0.6136 0.6257 1.131 1.791
655.852 2.251 2.271 1.721 1.121 0.9199 0.9087 0.9205 0.9825 1.0704 1.0842
694.432 0.9733 0.7656 0.6022 0.5072 0.3396 0.3231 0.6064 0.9134 1.481 2.461
733.011 3.781 4.591 4.311 3.851 3.411 2.731 2.031 1.431 1.0087 0.7978
771.591 0.6186 0.4706 0.3839 0.4615 0.5807 0.5409 0.539 0.5222 0.4721 0.4256
810.170 0.3456 0.3649 0.5105 0.6267 0.712 0.7412 0.7023 0.7095 0.6741 0.5475
848.750 0.4719 0.4143 0.3233 0.2794 0.242 0.2917 0.2437 0.14569 0.18437 0.2224
887.330 0.2716 0.2976 0.3103 0.265 0.2417 0.225 0.2443 0.3111 0.3308 0.3671
925.909 0.382 0.5094 0.7238 0.8872 1.0882 1.281 1.381 1.281 1.0066 0.7105
964.489 0.5032 0.3255 0.2874 0.406 0.4002 0.367 0.4057 0.444 0.4725 0.529
1003.068 0.5085 0.4526 0.4781 0.5326 0.4123 0.3719 0.466 0.4828 0.3756 0.3192
1041.648 0.4494 0.5091 0.5686 0.8519 1.271 1.891 2.631 2.921 2.831 2.581
1080.227 2.281 2.171 2.311 2.441 2.941 3.711 4.571 5.791 7.151 8.141
1118.807 7.891 6.241 4.191 2.751 1.931 1.551 1.461 1.411 1.231 1.271
1157.387 1.601 1.831 2.021 2.121 2.241 2.301 2.251 2.321 2.381 2.481
1195.966 2.481 2.351 2.171 1.871 1.631 1.401 1.201 1.151 1.141 1.121
1234.546 1.141 1.311 1.561 1.861 2.001 1.921 1.651 1.341 1.211 1.171
1273.125 1.181 1.191 1.161 1.191 1.341 1.691 2.141 2.421 2.381 2.131
1311.705 1.871 1.741 1.711 1.681 1.591 1.491 1.391 1.311 1.291 1.321
1350.284 1.351 1.371 1.351 1.281 1.171 1.019 0.8999 0.8157 0.7473 0.706
1388.864 0.7105 0.7307 0.7514 0.8204 0.9786 1.211 1.511 1.791 1.841 1.611
1427.443 1.281 1.0029 0.8717 0.887 1.0136 1.241 1.401 1.441 1.401 1.351
1466.023 1.331 1.301 1.241 1.131 0.9668 0.7404 0.5832 0.4992 0.4508 0.4252
1504.603 0.4531 0.4549 0.4072 0.4021 0.4302 0.4181 0.3904 0.4125 0.4558 0.4944
1543.182 0.4686 0.4897 0.6032 0.748 0.9888 1.301 1.661 1.961 2.041 1.891
1581.762 1.681 1.621 1.721 1.951 2.311 2.711 2.921 2.771 2.281 1.681
1620.341 1.231 0.9634 0.7806 0.7113 0.6942 0.6322 0.6162 0.6384 0.6702 0.6864
1658.921 0.6401 0.6397 0.6555 0.6705 0.6867 0.7318 0.8453 0.9339 0.9781 1.0908
1697.500 1.251 1.361 1.511 1.821 2.341 3.181 4.571 6.961 10.191 12.461
1736.080 12.511 10.201 6.961 5.411 6.221 8.211 9.571 9.301 7.361 4.851
1774.659 3.271 2.701 2.581 2.561 2.441 2.111 1.741 1.421 1.131 0.9244
1813.239 0.8013 0.7413 0.6976 0.6708 0.643 0.6018 0.5807 0.5868 0.5787 0.5622
1851.819 0.5707 0.5643 0.5428 0.543 0.5859 0.6016 0.5785 0.5523 0.5152 0.5048
1890.398 0.5141 0.5291 0.5538 0.5791 0.5865 0.5651 0.529 0.5344 0.544 0.5407
1928.978 0.5426 0.5484 0.5517 0.5687 0.5816 0.5618 0.5764 0.5872 0.5771 0.539
1967.557 0.4782 0.4745 0.4971 0.4974 0.469 0.471 0.4716 0.4206 0.4285 0.4656
2006.137 0.4816 0.4676 0.4493 0.465 0.4471 0.4292 0.4369 0.4241 0.4386 0.4622
2044.716 0.4588 0.4513 0.4475 0.4339 0.429 0.4504 0.4582 0.4694 0.4749 0.4778
2083.296 0.4841 0.4898 0.466 0.4654 0.466 0.4325 0.4346 0.4402 0.456 0.4698
2121.875 0.4761 0.484 0.4819 0.4885 0.4932 0.5 0.5078 0.4996 0.4811 0.4766
2160.455 0.5015 0.4823 0.4621 0.4759 0.4877 0.5201 0.5097 0.5055 0.5369 0.5073
2199.035 0.4981 0.4952 0.4956 0.5314 0.5123 0.4912 0.489 0.4913 0.5183 0.5193
2237.614 0.5004 0.5078 0.5009 0.5085 0.5486 0.5556 0.5442 0.546 0.5505 0.5366
2276.194 0.5181 0.5176 0.5107 0.518 0.5245 0.5193 0.5356 0.5495 0.564 0.5591
2314.773 0.5579 0.5946 0.6163 0.6108 0.6375 0.6337 0.6257 0.6302 0.5885 0.561
2353.353 0.5631 0.5603 0.591 0.6414 0.6409 0.6206 0.5872 0.5511 0.5397 0.548
2391.932 0.5344 0.5295 0.5509 0.5681 0.5667 0.5633 0.587 0.6063 0.5789 0.5513
2430.512 0.5295 0.5267 0.5269 0.5444 0.5749 0.5803 0.5814 0.5781 0.5652 0.5273
2469.092 0.5444 0.5726 0.5663 0.5464 0.5472 0.5757 0.5994 0.6091 0.5828 0.5532
2507.671 0.544 0.5715 0.5853 0.5736 0.5804 0.5975 0.5638 0.537 0.568 0.6132
2546.251 0.6598 0.6582 0.6193 0.5629 0.55 0.5732 0.5771 0.5533 0.5581 0.5968
2584.830 0.6048 0.5999 0.5957 0.5937 0.619 0.5802 0.5293 0.5657 0.6004 0.622
2623.410 0.6146 0.5822 0.5961 0.6152 0.6116 0.6201 0.6287 0.6253 0.6048 0.6219
2661.989 0.628 0.5916 0.6035 0.6302 0.6094 0.6295 0.6785 0.6654 0.6254 0.6118
2700.569 0.6185 0.5933 0.5856 0.5989 0.5881 0.593 0.5949 0.6159 0.6549 0.6614
2739.148 0.6486 0.6009 0.5816 0.6055 0.6197 0.6316 0.6318 0.6328 0.6364 0.6065
2777.728 0.5957 0.6193 0.6354 0.6443 0.6463 0.6327 0.6588 0.6934 0.6909 0.6612
2816.308 0.6346 0.6544 0.6235 0.6308 0.6407 0.602 0.6337 0.6968 0.6962 0.6655
2854.887 0.6656 0.6794 0.6645 0.6148 0.6441 0.6782 0.6047 0.6168 0.6892 0.6957
2893.467 0.6551 0.6243 0.6413 0.6474 0.662 0.6934 0.6847 0.671 0.7322 0.7536
2932.046 0.6922 0.7152 0.7484 0.6834 0.6641 0.7091 0.6942 0.6496 0.6413 0.6638
2970.626 0.7316 0.7316 0.6659 0.6822 0.6925 0.6569 0.681 0.709 0.7306 0.7525
3009.205 0.744 0.7767 0.787 0.7701 0.8277 0.8381 0.8044 0.835 0.8705 0.8931
3047.785 0.9264 0.9547 1.0592 1.201 1.331 1.451 1.571 1.811 1.981 1.921
3086.364 1.691 1.311 1.0531 0.9242 0.8132 0.7709 0.7997 0.837 0.8272 0.8513
3124.944 0.8771 0.8555 0.7735 0.7131 0.7539 0.7319 0.6786 0.6831 0.7055 0.7686
3163.524 0.7354 0.7232 0.7905 0.7871 0.7601 0.7129 0.7298 0.7717 0.711 0.6955
3202.103 0.7474 0.7942 0.7652 0.6864 0.7056 0.7429 0.7162 0.6867 0.7113 0.7208
3240.683 0.713 0.6998 0.652 0.6624 0.738 0.7359 0.7129 0.7432 0.74 0.7221
3279.262 0.7504 0.7244 0.7201 0.7563 0.7342 0.7098 0.6762 0.6812 0.7361 0.8025
3317.842 0.8294 0.8059 0.7522 0.7073 0.7375 0.761 0.7365 0.7208 0.7128 0.7078
3356.421 0.7416 0.7643 0.7664 0.7382 0.6751 0.6829 0.7168 0.7121 0.7321 0.709
3395.001 0.7244 0.7713 0.777 0.7413 0.6949 0.6927 0.7025 0.7306 0.7742 0.7895
3433.580 0.7617 0.7463 0.8616 0.9243 0.8712 0.9573 0.8966 0.7834 0.7872 0.8119
3472.160 0.8411 0.7906 0.718 0.7297 0.6912 0.6778 0.8014 0.8372 0.8181 0.8541
3510.740 0.8895 0.8406 0.8593 0.9431 0.9033 0.8365 0.8491 0.8497 0.8933 0.9581
3549.319 0.9785 1.131 1.591 2.131 2.611 3.111 3.551 3.821 3.661 2.961
3587.899 2.031 1.401 1.0364 0.8886 0.96 0.9635 0.8632 0.8032 0.8597 0.8912
3626.478 0.9384 0.9118 0.8001 0.8049 0.7774 0.7192 0.7134 0.7078 0.7361 0.7396
3665.058 0.8458 0.9207 0.8534 0.8204 0.8034 0.7917 0.7141 0.6932 0.7298 0.7543
3703.637 0.7456 0.7818 0.7694 0.7493 0.744 0.6825 0.6397 0.7086 0.798 0.7231
3742.217 0.7617 0.8019 0.7621 0.8005 0.7511 0.7166 0.7226 0.6884 0.6366 0.6475
3780.797 0.6671 0.6679 0.6938 0.6959 0.7064 0.7078 0.7138 0.7281 0.7603 0.7929
3819.376 0.831 0.8105 0.7504 0.8378 0.8842 0.8203 0.8459 0.8856 0.898 0.8976
3857.956 0.8473 0.7606 0.7284 0.7582 0.7741 0.7939 0.7376 0.6909 0.7092 0.6501
3896.535 0.6631 0.7491 0.7783 0.7439 0.7084 0.7208 0.7332 0.7869 0.8002 0.7756
3935.115 0.8267 0.8938 0.9085 0.8745 0.8428 0.8371 0.8487 0.8124 0.7177 0.7406
3973.694 0.788 0.7984 0.7944 0.7648 0.8042 0.7977 0.8028 0.8197
##END=
