##TITLE=1-(Trimethylsilyl)propyne
##JCAMP-DX=4.24
##DATA TYPE=INFRARED SPECTRUM
##ORIGIN=EPA-IR VAPOR PHASE LIBRARY
##OWNER=SRD/NIST
Collection (C) 2018 copyright by the U.S. Secretary of Commerce
on behalf of the United States of America. All rights reserved.
##CAS REGISTRY NO=6224-91-5
##MOLFORM=C 6 H 12 Si
##$NIST SOURCE=MSDC-IR
##STATE=gas
##XUNITS=1/CM
##YUNITS=ABSORBANCE
##XFACTOR=1.
##YFACTOR=0.001
##DELTAX=1.92934
##FIRSTX=549.9
##LASTX=3999.5
##FIRSTY=7.57
##MAXX=3999.53
##MINX=549.863
##MAXY=0.40633
##MINY=0
##NPOINTS=1789
##XYDATA=(X++(Y..Y))
549.863 7.57 6.79 6 5.53 5.32 5.19 4.94 4.69 4.58 4.52
569.156 4.45 4.43 4.25 4.07 4.12 4.27 4.3 4.36 4.48 4.45
588.450 4.47 4.4 4.35 4.57 4.64 4.7 4.84 4.96 5.23 5.61
607.743 6.15 6.97 8.11 9.64 11.73 14.44 17.71 21.54 26.13 31.19
627.037 36.19 40.64 43.95 45.86 46.91 47.16 46.09 44.37 42.81 40.11
646.330 35.51 30.06 24.82 20.62 17.69 15.86 14.9 14.41 14.22 14.28
665.624 14.4 14.7 15.27 15.94 16.81 18.05 19.6 21.48 23.54 25.8
684.917 28.42 31.29 34.32 37.45 40.34 42.96 45.15 46.61 47.52 47.77
704.210 47.38 46.44 45.06 43.44 41.6 39.58 37.56 35.6 33.69 31.98
723.504 30.52 29.34 28.39 27.62 27.18 27.11 27.31 27.85 29.03 30.79
742.797 33.12 36.16 39.82 44.07 48.82 53.91 59.28 64.78 70.14 74.94
762.091 78.81 81.45 82.73 82.67 81.29 78.83 75.48 71.41 66.67 61.48
781.384 56.28 51.32 46.83 42.97 39.77 37.21 35.36 34.18 33.58 33.59
800.678 34.26 35.59 37.49 40.08 43.51 47.86 53.42 60.28 68.69 79.08
819.971 91.67 106.57 124.14 144.55 167.49 192.69 219.82 248.11 276.91 305.73
839.264 333.44 358.86 380.66 397.13 406.12 406.33 398.69 385.05 366.02 341.76
858.558 314.37 286.28 258.36 231.31 206.39 184.21 164.49 146.86 131.31 117.81
877.851 106.32 96.79 89 82.57 77.15 72.56 68.54 64.92 61.44 58.19
897.145 55.09 51.86 48.76 45.71 42.62 39.57 36.51 33.56 30.82 28.25
916.438 25.88 23.67 21.63 19.79 18.17 16.65 15.23 13.99 12.85 11.8
935.732 10.87 9.99 9.19 8.53 7.91 7.33 6.86 6.48 6.18 5.92
955.025 5.7 5.44 5.27 5.19 5.06 4.93 4.85 4.87 4.86 4.87
974.318 4.9 5.01 5.24 5.55 5.96 6.44 7.08 7.95 9.09 10.58
993.612 12.45 14.81 17.78 21.45 25.95 31.42 38.01 45.78 54.69 64.68
1012.905 75.63 87.29 98.97 109.75 118.32 123.64 126.27 127.55 126.34 120.53
1032.199 112.32 103.3 92.22 77.32 58.73 40.86 27.57 19.3 14.52 11.58
1051.492 9.65 8.25 7.23 6.47 5.85 5.39 5.03 4.76 4.62 4.57
1070.786 4.46 4.37 4.33 4.27 4.23 4.16 4.12 4.04 3.8886 3.7333
1090.079 3.5152 3.3178 3.2299 3.0928 2.9071 2.791 2.679 2.642 2.675 2.604
1109.372 2.504 2.425 2.378 2.406 2.417 2.389 2.401 2.429 2.356 2.282
1128.666 2.297 2.329 2.334 2.368 2.324 2.278 2.369 2.41 2.413 2.446
1147.959 2.466 2.514 2.554 2.545 2.548 2.638 2.707 2.679 2.703 2.749
1167.253 2.8446 2.98876 3.088 3.124 3.1628 3.2036 3.2446 3.2997 3.3659 3.4399
1186.546 3.4764 3.4861 3.4076 3.3918 3.4062 3.3793 3.4561 3.5069 3.595 3.7481
1205.840 3.95 4.24 4.56 4.93 5.41 5.99 6.78 7.84 9.19 10.89
1225.133 13.01 15.74 19.13 23.46 28.82 35.22 42.8 51.5 61.12 71.2
1244.426 81.55 92.02 102.21 111.8 120.06 126.21 130.01 130.48 126.65 119.35
1263.720 110.07 99.96 89.33 78.27 67.09 56.15 46.11 37.56 30.63 25.15
1283.013 20.8 17.22 14.39 12.25 10.65 9.56 8.91 8.58 8.49 8.47
1302.307 8.47 8.57 8.68 8.82 9.03 9.36 9.86 10.39 10.89 11.22
1321.600 11.47 11.85 12.24 12.75 13.32 13.45 13.02 12.32 11.71 11.26
1340.894 10.95 10.69 10.42 9.94 9.27 8.69 8.29 8.2 8.43 8.85
1360.187 9.26 9.49 9.71 10.16 10.97 11.99 12.92 13.28 12.98 12.77
1379.480 12.75 12.39 12.2 12.46 12.79 13.01 12.92 12.64 12.55 12.72
1398.774 13.21 13.95 14.76 15.27 15.35 15.3 15.36 15.63 16.11 16.59
1418.067 16.81 16.44 15.46 14.38 13.56 13.03 12.63 12.3 11.92 11.44
1437.361 10.96 10.62 10.5 10.5 10.63 10.75 10.71 10.58 10.39 10.22
1456.654 10.03 9.95 9.92 9.93 9.97 9.88 9.67 9.35 9 8.75
1475.948 8.55 8.3 8.01 7.63 7.34 7.27 7.44 7.9 8.47 8.77
1495.241 8.48 7.7 6.9 6.37 6.24 6.3 6.51 6.65 6.38 5.99
1514.534 5.75 5.7 5.84 6.11 6.4 6.43 6.23 6.05 6.09 6.41
1533.828 6.93 7.34 7.19 6.49 5.78 5.32 5.12 5.05 5.01 4.9
1553.121 4.56 4.21 4.03 3.9348 3.95 4.04 4.04 3.898 3.7377 3.7238
1572.415 3.7963 3.8111 3.8004 3.7507 3.601 3.4454 3.2381 3.0673 2.98691 2.924
1591.708 2.9023 2.8514 2.758 2.656 2.578 2.571 2.604 2.654 2.663 2.643
1611.002 2.585 2.485 2.383 2.316 2.279 2.263 2.249 2.213 2.165 2.122
1630.295 2.119 2.109 2.061 1.997 1.997 2.063 2.085 2.05 2.013 1.986
1649.588 1.954 1.85 1.8 1.9 1.91 1.85 1.82 1.79 1.77 1.76
1668.882 1.73 1.69 1.69 1.68 1.7 1.74 1.67 1.59 1.56 1.59
1688.175 1.59 1.56 1.58 1.59 1.56 1.6 1.59 1.58 1.57 1.51
1707.469 1.52 1.58 1.56 1.5 1.51 1.51 1.5 1.53 1.49 1.45
1726.762 1.42 1.38 1.38 1.42 1.43 1.45 1.44 1.43 1.46 1.45
1746.056 1.45 1.44 1.4 1.42 1.48 1.46 1.47 1.51 1.48 1.5
1765.349 1.55 1.53 1.49 1.47 1.53 1.57 1.56 1.55 1.49 1.49
1784.642 1.54 1.56 1.57 1.53 1.49 1.54 1.56 1.52 1.52 1.54
1803.936 1.51 1.5 1.54 1.53 1.49 1.48 1.5 1.51 1.48 1.45
1823.229 1.46 1.47 1.42 1.39 1.43 1.47 1.54 1.56 1.52 1.51
1842.523 1.52 1.55 1.62 1.69 1.71 1.74 1.8 1.8 1.82 1.9
1861.816 2.022 2.135 2.231 2.386 2.521 2.62 2.773 2.8603 2.95745 3.0678
1881.110 3.2003 3.3134 3.3288 3.3828 3.4299 3.4342 3.3895 3.3199 3.236 3.1042
1900.403 2.96364 2.827 2.706 2.61 2.481 2.373 2.316 2.25 2.26 2.285
1919.696 2.291 2.322 2.361 2.42 2.509 2.599 2.698 2.8 2.9226 3.02347
1938.990 3.1584 3.2957 3.3772 3.4866 3.5491 3.5821 3.6468 3.716 3.734 3.7015
1958.283 3.6377 3.5924 3.5016 3.3833 3.2689 3.1552 3.1104 3.01939 2.8822 2.761
1977.577 2.654 2.584 2.502 2.434 2.406 2.375 2.354 2.358 2.404 2.427
1996.870 2.459 2.536 2.609 2.686 2.795 2.93196 3.03439 3.135 3.2756 3.4821
2016.164 3.674 3.8641 4.07 4.23 4.4 4.61 4.82 5.07 5.32 5.58
2035.457 5.85 6.07 6.23 6.35 6.44 6.46 6.36 6.14 5.88 5.53
2054.750 5.07 4.6 4.16 3.8127 3.4798 3.1471 2.9004 2.743 2.622 2.537
2074.044 2.553 2.584 2.561 2.578 2.649 2.748 2.8509 2.9123 3.00611 3.167
2093.337 3.2507 3.3781 3.5191 3.6157 3.7388 3.7964 3.8263 3.8894 3.99 4.07
2112.631 4.14 4.21 4.29 4.43 4.59 4.79 5.05 5.33 5.72 6.2
2131.924 6.74 7.33 8.01 8.84 9.84 10.98 12.32 13.97 15.96 18.33
2151.218 21.17 24.54 28.56 33.3 38.72 44.92 51.86 59.48 67.65 76.14
2170.511 84.66 92.84 100.3 106.64 111.36 114.16 114.88 113.27 109.33 103.2
2189.804 95.09 85.28 74.13 62.1 49.87 38.24 27.96 19.53 13.24 9.14
2209.098 6.74 5.31 4.45 3.9172 3.5486 3.2472 3.0643 2.94679 2.87 2.814
2228.391 2.732 2.674 2.634 2.597 2.591 2.603 2.613 2.621 2.613 2.604
2247.685 2.599 2.624 2.622 2.582 2.541 2.494 2.436 2.403 2.377 2.258
2266.978 2.13 2.078 2.019 1.93 1.87 1.8 1.75 1.73 1.67 1.66
2286.272 1.69 1.7 1.68 1.66 1.66 1.65 1.65 1.62 1.57 1.56
2305.565 1.56 1.58 1.57 1.53 1.52 1.53 1.54 1.52 1.48 1.49
2324.858 1.49 1.46 1.47 1.44 1.41 1.43 1.43 1.41 1.39 1.42
2344.152 1.44 1.46 1.51 1.51 1.5 1.49 1.5 1.49 1.47 1.45
2363.445 1.5 1.6 1.66 1.64 1.69 1.76 1.8 1.84 1.91 2.019
2382.739 2.114 2.195 2.243 2.324 2.394 2.446 2.493 2.566 2.621 2.648
2402.032 2.688 2.669 2.62 2.595 2.515 2.413 2.338 2.211 2.078 1.971
2421.326 1.88 1.84 1.82 1.81 1.76 1.71 1.69 1.7 1.7 1.68
2440.619 1.7 1.7 1.71 1.71 1.71 1.74 1.74 1.74 1.76 1.77
2459.912 1.82 1.83 1.8 1.78 1.77 1.8 1.78 1.74 1.78 1.83
2479.206 1.8 1.83 1.85 1.87 1.945 1.972 2.015 1.976 1.963 2.004
2498.499 2.022 2.044 2.022 1.966 1.92 1.88 1.84 1.8 1.73 1.67
2517.793 1.63 1.65 1.63 1.58 1.52 1.48 1.46 1.47 1.48 1.46
2537.086 1.49 1.47 1.43 1.38 1.38 1.38 1.39 1.41 1.4 1.38
2556.380 1.37 1.4 1.42 1.4 1.38 1.4 1.42 1.43 1.41 1.4
2575.673 1.43 1.43 1.38 1.36 1.41 1.45 1.47 1.48 1.46 1.45
2594.966 1.48 1.49 1.58 1.66 1.67 1.67 1.72 1.79 1.88 1.94
2614.260 1.92 1.941 1.995 1.999 2.06 2.048 1.99 2.022 2.046 2.059
2633.553 2.014 1.955 1.96 1.94 1.95 1.96 1.92 1.91 1.962 2.013
2652.847 2.019 2.032 2.091 2.158 2.156 2.212 2.276 2.343 2.452 2.522
2672.140 2.598 2.662 2.667 2.718 2.722 2.719 2.793 2.8459 2.778 2.716
2691.434 2.686 2.584 2.529 2.485 2.422 2.391 2.36 2.267 2.234 2.279
2710.727 2.308 2.242 2.234 2.334 2.368 2.418 2.488 2.593 2.777 2.93926
2730.020 3.0751 3.2108 3.3146 3.4086 3.5453 3.6125 3.5877 3.5873 3.6767 3.6656
2749.314 3.4488 3.2737 3.1344 3.00108 2.99527 3.03956 3.0951 3.1274 3.1949 3.3298
2768.607 3.4398 3.5667 3.6732 3.7441 3.8607 4.17 4.49 4.69 4.92 5.17
2787.901 5.48 5.82 6.09 6.33 6.58 6.88 7.12 7.36 7.59 7.72
2807.194 7.84 7.95 7.98 8.07 8.22 8.26 8.36 8.54 8.7 8.81
2826.488 8.9 9.05 9.26 9.52 9.79 10.08 10.44 10.9 11.44 12.04
2845.781 12.65 13.32 14.12 14.99 15.91 17.05 18.35 19.64 20.69 21.39
2865.074 21.85 22.35 22.91 23.01 22.92 23.16 23.44 23.45 23.24 23.17
2884.368 23.56 24.5 25.81 27.34 29.22 31.22 33.2 35.28 37.19 38.67
2903.661 39.79 40.72 41.37 41.72 41.78 42 42.58 43.4 44.52 46.05
2922.955 47.91 49.74 51.75 52.99 52.09 50.77 52.07 52.54 50.1 49.45
2942.248 50.25 50.66 51.54 53.95 58.53 65.25 73.71 83.03 91.84 99
2961.542 104.7 109.05 111.5 111.66 109.81 105.98 99.63 90.96 80.85 69.99
2980.835 59.51 50.66 43.19 36.89 31.73 27.39 23.73 20.77 18.7 17.18
3000.128 15.94 15.09 14.93 14.98 14.48 13.6 12.56 11.74 11.45 11.26
3019.422 10.84 10.67 10.95 11.31 11.55 11.72 12.14 12.86 13.59 13.92
3038.715 13.71 13.42 13.31 13.24 13.06 12.68 12.43 12.43 12.4 12.24
3058.009 12.12 12.03 11.98 12.02 11.81 11.3 10.97 10.75 10.47 10.29
3077.302 10.06 9.82 9.72 9.69 9.67 9.47 9.18 9.07 8.81 8.42
3096.596 8.22 7.86 7.49 7.29 7.05 6.89 6.79 6.69 6.52 6.22
3115.889 6.04 6.05 5.82 5.5 5.26 5.09 4.92 4.62 4.26 4.03
3135.182 3.8861 3.6958 3.4855 3.3288 3.0954 2.8868 2.863 2.772 2.654 2.598
3154.476 2.652 2.605 2.678 2.729 2.641 2.83 2.97581 2.8906 2.8641 2.892
3173.769 2.783 2.719 2.75 2.742 2.59 2.559 2.54 2.183 2.049 2.124
3193.063 2.083 1.83 1.62 1.64 1.69 1.52 1.32 1.44 1.39 1.33
3212.356 1.44 1.38 1.35 1.4 1.43 1.49 1.42 1.41 1.6 1.6
3231.650 1.47 1.35 1.26 1.31 1.31 1.18 1.05 0.88 0.8 0.71
3250.943 0.6 0.56 0.57 0.53 0.48 0.49 0.38 0.34 0.25 0.17
3270.236 0.23 0.14 0.23 0.22 0.22 0.39 0.31 0.21 0.29 0.26
3289.530 0.12 0 0.12 0.27 0.13 0.12 0.16 0.17 0.27 0.38
3308.823 0.37 0.28 0.19 0.23 0.2 0.1 0.14 0.15 0.28 0.41
3328.117 0.29 0.21 0.18 0.2 0.31 0.21 0.19 0.29 0.38 0.41
3347.410 0.34 0.37 0.38 0.38 0.42 0.47 0.47 0.49 0.51 0.51
3366.704 0.57 0.5 0.38 0.43 0.53 0.52 0.51 0.44 0.37 0.44
3385.997 0.58 0.6 0.5 0.47 0.34 0.25 0.32 0.48 0.46 0.49
3405.290 0.54 0.38 0.38 0.55 0.6 0.55 0.6 0.52 0.44 0.43
3424.584 0.49 0.71 0.72 0.59 0.52 0.48 0.54 0.69 0.69 0.52
3443.877 0.46 0.59 0.62 0.53 0.37 0.46 0.62 0.61 0.75 0.8
3463.171 0.69 0.68 0.64 0.72 0.74 0.68 0.67 0.69 0.66 0.54
3482.464 0.69 0.77 0.77 0.78 0.81 0.85 0.85 0.79 0.73 0.74
3501.758 0.63 0.62 0.73 0.76 0.79 0.77 0.8 0.94 0.9 0.91
3521.051 0.92 0.95 1.04 0.93 0.97 1.03 1.01 1.11 1.16 1.12
3540.344 1.21 1.23 1.11 1.25 1.31 1.27 1.26 1.18 1.28 1.4
3559.638 1.3 1.29 1.4 1.37 1.27 1.27 1.42 1.39 1.31 1.41
3578.931 1.52 1.58 1.49 1.52 1.6 1.59 1.65 1.69 1.74 1.75
3598.225 1.71 1.78 1.82 1.89 1.88 1.77 1.76 1.77 1.87 1.85
3617.518 1.77 1.79 1.84 1.83 1.83 1.83 1.83 1.978 2.031 2.001
3636.812 2.035 2.122 2.236 2.248 2.26 2.307 2.388 2.595 2.665 2.757
3656.105 2.794 2.825 2.8847 2.813 2.805 2.782 2.675 2.641 2.637 2.624
3675.398 2.534 2.425 2.401 2.356 2.286 2.166 2.097 2.098 2.086 2.162
3694.692 2.123 2.034 2.09 2.035 2.105 2.253 2.228 2.197 2.288 2.385
3713.985 2.518 2.695 2.686 2.594 2.704 2.782 2.729 2.8602 2.96531 3.00771
3733.279 3.03605 2.95975 3.0742 3.2337 3.192 3.1498 3.0582 2.97653 2.98251 2.9107
3752.572 2.8492 2.8811 2.9264 2.805 2.691 2.715 2.662 2.585 2.443 2.344
3771.866 2.462 2.471 2.362 2.234 2.209 2.292 2.259 2.183 2.095 2.187
3791.159 2.31 2.325 2.432 2.437 2.335 2.322 2.38 2.465 2.46 2.355
3810.452 2.266 2.244 2.276 2.285 2.177 2.105 2.123 2.091 2.023 1.973
3829.746 1.83 1.7 1.67 1.56 1.51 1.52 1.53 1.55 1.56 1.56
3849.039 1.6 1.58 1.48 1.39 1.47 1.52 1.54 1.51 1.45 1.48
3868.333 1.43 1.45 1.52 1.55 1.54 1.58 1.57 1.37 1.28 1.38
3887.626 1.53 1.56 1.44 1.36 1.41 1.48 1.54 1.6 1.55 1.46
3906.920 1.47 1.49 1.5 1.57 1.6 1.56 1.51 1.52 1.48 1.46
3926.213 1.55 1.54 1.57 1.62 1.51 1.41 1.45 1.49 1.49 1.51
3945.506 1.48 1.49 1.56 1.52 1.55 1.58 1.63 1.67 1.67 1.69
3964.800 1.63 1.64 1.67 1.66 1.61 1.5 1.44 1.42 1.4 1.42
3984.093 1.42 1.41 1.46 1.47 1.4 1.45 1.42 1.33 1.44
##END=
