##TITLE=(+)-Methyladipic acid
##JCAMP-DX=4.24
##DATA TYPE=INFRARED SPECTRUM
##ORIGIN=EPA-IR VAPOR PHASE LIBRARY
##OWNER=SRD/NIST
Collection (C) 2018 copyright by the U.S. Secretary of Commerce
on behalf of the United States of America. All rights reserved.
##CAS REGISTRY NO=623-82-5
##MOLFORM=C 7 H 12 O 4
##$NIST SOURCE=MSDC-IR
##STATE=gas
##XUNITS=1/CM
##YUNITS=ABSORBANCE
##XFACTOR=1.
##YFACTOR=0.001
##DELTAX=1.92898
##FIRSTX=549.8
##LASTX=4000.7
##FIRSTY=5.002
##MAXX=4000.7
##MINX=549.759
##MAXY=0.039432
##MINY=0
##NPOINTS=1790
##XYDATA=(X++(Y..Y))
549.759 5.002 5.222 5.352 5.392 5.452 5.492 5.452 5.482 5.322 5.012
569.049 4.932 5.052 5.002 4.902 4.762 4.772 4.822 4.752 4.722 4.772
588.339 4.822 4.852 5.042 5.132 5.392 5.862 6.112 6.222 6.342 6.462
607.628 6.632 6.822 6.842 6.772 6.772 6.802 6.782 6.732 6.792 6.772
626.918 6.622 6.532 6.522 6.462 6.222 6.032 5.882 5.472 5.182 5.062
646.208 4.722 4.372 4.192 4.062 3.872 3.682 3.502 3.342 3.222 3.132
665.498 2.892 2.782 2.832 2.772 2.792 2.682 2.532 2.522 2.552 2.572
684.787 2.572 2.492 2.422 2.522 2.472 2.372 2.422 2.412 2.352 2.352
704.077 2.352 2.232 2.132 2.082 1.962 1.922 1.872 1.842 1.762 1.732
723.367 1.812 1.712 1.662 1.602 1.542 1.552 1.432 1.302 1.212 1.252
742.657 1.192 1.132 1.081 0.9588 0.9029 0.9145 0.8695 0.7613 0.7663 0.8236
761.947 0.8692 0.973 0.9943 0.8597 0.7966 0.8635 0.8971 0.9697 1.0188 0.9336
781.236 1.024 1.0502 1.0065 0.9624 0.8757 0.8519 0.851 0.8965 0.778 0.6374
800.526 0.6829 0.6992 0.6364 0.5932 0.539 0.4865 0.5 0.4549 0.47 0.489
819.816 0.4441 0.4452 0.389 0.4008 0.5399 0.5499 0.4867 0.5141 0.4369 0.388
839.106 0.4353 0.5679 0.7023 0.5957 0.5751 0.719 0.7032 0.6706 0.6981 0.6176
858.395 0.7199 0.7607 0.7274 0.837 0.7917 0.8289 0.7874 0.7079 0.797 0.8545
877.685 0.8398 0.8274 0.8524 0.871 0.8432 0.8149 0.793 0.8592 1.0072 1.0264
896.975 0.9952 1.0493 1.106 1.112 1.0893 1.0985 1.0394 0.9984 1.0074 0.9901
916.265 0.9675 0.9339 0.9564 0.9296 0.9567 0.9642 0.8274 0.8538 0.9507 0.9143
935.555 0.8853 0.918 0.9233 0.94 0.9733 0.9838 0.9266 0.8973 1.0073 1.122
954.844 1.202 1.122 1.037 1.142 1.172 1.0465 1.0872 1.262 1.222 1.172
974.134 1.142 1.0761 1.0755 1.0586 0.9791 0.9066 0.8628 0.858 0.8747 0.8003
993.424 0.7903 0.8138 0.8082 0.7896 0.8396 0.9984 1.142 1.0865 1.0405 1.0973
1012.714 1.112 1.232 1.272 1.312 1.472 1.522 1.562 1.682 1.632 1.782
1032.003 2.032 2.122 2.282 2.452 2.642 2.862 3.002 3.312 3.502 3.532
1051.293 4.022 4.612 4.882 5.132 5.562 6.112 6.632 7.032 7.592 8.102
1070.583 8.522 9.032 9.482 9.782 10.172 10.712 10.952 11.222 11.572 12.012
1089.873 12.602 12.912 13.292 13.982 14.702 15.402 15.962 16.542 17.272 17.902
1109.163 18.552 19.002 19.342 19.812 20.192 20.352 20.302 20.112 19.752 19.572
1128.452 19.332 18.922 18.482 17.702 17.042 16.732 16.172 15.582 15.172 14.562
1147.742 14.102 13.622 13.022 12.522 11.952 11.422 10.742 10.172 9.862 9.352
1167.032 8.802 8.432 7.932 7.402 7.012 6.702 6.482 6.222 5.992 5.782
1186.322 5.752 5.692 5.482 5.362 5.372 5.362 5.092 5.002 4.962 4.792
1205.611 4.722 4.542 4.342 4.242 4.102 3.982 3.932 3.832 3.812 3.782
1224.901 3.622 3.532 3.442 3.242 3.192 3.272 3.322 3.192 3.112 3.162
1244.191 3.142 3.162 3.232 3.202 3.182 3.102 3.052 3.082 3.102 3.122
1263.481 3.152 3.192 3.122 3.172 3.282 3.352 3.362 3.262 3.222 3.252
1282.771 3.302 3.292 3.182 3.162 3.192 3.182 3.152 3.112 3.062 3.022
1302.060 2.992 2.952 2.942 2.902 2.852 2.842 2.822 2.792 2.792 2.812
1321.350 2.802 2.792 2.872 2.942 2.982 3.032 3.122 3.192 3.272 3.392
1340.640 3.472 3.572 3.752 3.902 4.002 4.102 4.212 4.342 4.432 4.512
1359.930 4.652 4.792 4.902 5.042 5.202 5.402 5.562 5.742 5.892 6.012
1379.219 6.072 6.102 6.122 6.042 5.842 5.592 5.332 5.012 4.662 4.302
1398.509 3.892 3.502 3.202 2.942 2.712 2.502 2.362 2.322 2.292 2.262
1417.799 2.302 2.282 2.272 2.332 2.362 2.352 2.352 2.322 2.302 2.302
1437.089 2.252 2.202 2.132 2.092 2.072 2.042 2.072 2.132 2.172 2.262
1456.378 2.362 2.362 2.332 2.282 2.172 2.062 1.972 1.842 1.692 1.572
1475.668 1.432 1.292 1.132 1.0335 0.9735 0.882 0.7939 0.7359 0.6678 0.6465
1494.958 0.6563 0.564 0.5047 0.4719 0.4475 0.4706 0.4813 0.4815 0.4403 0.4148
1514.248 0.3801 0.3664 0.3787 0.3887 0.3974 0.3633 0.3361 0.3076 0.3218 0.3608
1533.538 0.3304 0.2954 0.3144 0.3474 0.2942 0.2617 0.2885 0.3093 0.3304 0.3025
1552.827 0.2912 0.2994 0.3232 0.3623 0.3602 0.3264 0.2934 0.2977 0.3302 0.3451
1572.117 0.303 0.2678 0.3083 0.3364 0.3043 0.2966 0.3392 0.3076 0.2625 0.2988
1591.407 0.3398 0.3784 0.3865 0.3483 0.3427 0.3368 0.3334 0.3363 0.3005 0.2703
1610.697 0.286 0.2716 0.2784 0.332 0.2994 0.2943 0.2996 0.3101 0.3623 0.3573
1629.986 0.3358 0.336 0.3859 0.3783 0.3658 0.3853 0.3683 0.4149 0.4321 0.3846
1649.276 0.3755 0.4308 0.4562 0.4566 0.4415 0.438 0.5047 0.5276 0.532 0.5662
1668.566 0.5751 0.5321 0.5296 0.5913 0.6236 0.6612 0.6972 0.7158 0.7685 0.8313
1687.856 0.8573 0.8807 0.9518 1.0373 1.1039 1.182 1.292 1.372 1.462 1.582
1707.146 1.692 1.812 1.992 2.192 2.392 2.602 2.842 3.082 3.392 3.742
1726.435 4.112 4.542 4.992 5.472 6.072 6.682 7.322 8.042 8.772 9.602
1745.725 10.472 11.442 12.552 13.772 15.122 16.612 18.342 20.282 22.522 25.032
1765.015 27.682 30.422 33.102 35.482 37.492 38.832 39.432 39.232 38.132 36.252
1784.305 33.842 31.062 28.132 25.292 22.632 20.152 17.972 16.082 14.412 12.912
1803.594 11.592 10.392 9.262 8.182 7.212 6.372 5.622 4.922 4.322 3.802
1822.884 3.352 2.972 2.642 2.382 2.122 1.892 1.762 1.632 1.432 1.292
1842.174 1.192 1.122 1.055 0.9509 0.8691 0.8303 0.7693 0.7051 0.6779 0.6594
1861.464 0.6252 0.6166 0.5971 0.5428 0.5207 0.5001 0.4681 0.4508 0.4228 0.4329
1880.754 0.4706 0.4338 0.4068 0.3916 0.3908 0.3837 0.3783 0.4085 0.4065 0.4249
1900.043 0.4067 0.3662 0.3707 0.3458 0.3535 0.391 0.3978 0.3612 0.3213 0.365
1919.333 0.3944 0.385 0.3609 0.3573 0.3549 0.3585 0.3526 0.3262 0.3523 0.34
1938.623 0.3044 0.2804 0.2921 0.3403 0.3815 0.3481 0.3012 0.2849 0.2836 0.2949
1957.913 0.2865 0.2803 0.3018 0.3345 0.3093 0.2971 0.3505 0.3494 0.2917 0.2963
1977.202 0.3068 0.2855 0.2892 0.3195 0.3108 0.3011 0.3203 0.2936 0.2538 0.2568
1996.492 0.2875 0.2884 0.2694 0.2602 0.2522 0.2548 0.2411 0.2338 0.2478 0.2515
2015.782 0.2645 0.2599 0.2763 0.2854 0.2363 0.2255 0.2667 0.2413 0.2144 0.2565
2035.072 0.2603 0.2218 0.218 0.20717 0.19851 0.2192 0.2287 0.2314 0.19096 0.20504
2054.362 0.2574 0.2654 0.204 0.17481 0.2495 0.2284 0.17178 0.20006 0.20545 0.20945
2073.651 0.2408 0.2445 0.2145 0.18288 0.1583 0.15974 0.20476 0.19272 0.20042 0.2246
2092.941 0.1549 0.14939 0.20261 0.20277 0.20704 0.2189 0.1952 0.17319 0.20222 0.2322
2112.231 0.21137 0.18175 0.18157 0.18157 0.20195 0.2519 0.2795 0.2283 0.20304 0.2562
2131.521 0.249 0.2433 0.2629 0.2298 0.2279 0.217 0.17768 0.20046 0.21077 0.16416
2150.810 0.15848 0.18846 0.20428 0.2202 0.2181 0.2462 0.2844 0.2382 0.19628 0.20615
2170.100 0.20326 0.242 0.2568 0.2487 0.2513 0.2173 0.2268 0.2581 0.2514 0.2434
2189.390 0.252 0.2709 0.2838 0.3045 0.2896 0.2619 0.276 0.3031 0.3323 0.2763
2208.680 0.2485 0.2801 0.2989 0.3122 0.2978 0.3157 0.3448 0.3211 0.3068 0.3018
2227.970 0.2942 0.2787 0.2828 0.2898 0.2964 0.3008 0.2791 0.2965 0.297 0.2593
2247.259 0.2345 0.2271 0.2456 0.299 0.3429 0.3219 0.2794 0.272 0.2866 0.2694
2266.549 0.2355 0.2289 0.2327 0.2302 0.2451 0.2495 0.2263 0.2422 0.2719 0.2297
2285.839 0.2357 0.2541 0.20999 0.2246 0.20688 0.2173 0.2318 0.20724 0.2179 0.2177
2305.129 0.20429 0.18844 0.17467 0.19895 0.18215 0.15461 0.19568 0.1957 0.18518 0.19132
2324.418 0.21111 0.18954 0.14608 0.17515 0.18786 0.17643 0.2122 0.2353 0.2378 0.2882
2343.708 0.2917 0.2583 0.2288 0.2385 0.2663 0.2654 0.2486 0.2447 0.2488 0.2323
2362.998 0.2511 0.2571 0.2459 0.2401 0.2754 0.2914 0.2414 0.2585 0.2515 0.15244
2382.288 0.15701 0.20086 0.18105 0.18684 0.19918 0.19153 0.20275 0.2584 0.2402 0.2309
2401.578 0.2648 0.2333 0.2166 0.2268 0.2749 0.3034 0.2511 0.20528 0.21051 0.2199
2420.867 0.2332 0.2648 0.2567 0.2026 0.2274 0.2194 0.17509 0.2246 0.235 0.266
2440.157 0.2866 0.2525 0.2477 0.2329 0.291 0.3386 0.308 0.2776 0.2422 0.2799
2459.447 0.3046 0.2659 0.2508 0.2508 0.2524 0.2226 0.2255 0.20806 0.17852 0.2154
2478.737 0.2258 0.23 0.2239 0.21032 0.2334 0.2605 0.2306 0.15695 0.12321 0.16093
2498.026 0.20529 0.19412 0.15507 0.17439 0.2215 0.2469 0.258 0.2522 0.2234 0.20359
2517.316 0.2161 0.17784 0.15764 0.16428 0.18932 0.20204 0.17358 0.17063 0.15956 0.14387
2536.606 0.17292 0.2182 0.2233 0.17275 0.13631 0.13094 0.13911 0.15801 0.18313 0.2211
2555.896 0.20539 0.19323 0.2312 0.2276 0.2313 0.2671 0.2416 0.19379 0.18477 0.15299
2575.186 0.10354 0.0994 0.14016 0.18913 0.2211 0.2372 0.2241 0.2226 0.2378 0.2191
2594.475 0.2182 0.17819 0.11093 0.0944 0.1488 0.2564 0.2768 0.18276 0.17291 0.2793
2613.765 0.2802 0.2244 0.233 0.2399 0.19738 0.21068 0.2535 0.2459 0.2692 0.234
2633.055 0.16082 0.18325 0.18695 0.18751 0.2546 0.2659 0.2343 0.2738 0.2807 0.2339
2652.345 0.19654 0.16026 0.17777 0.2472 0.2319 0.18496 0.2421 0.2628 0.20737 0.21042
2671.634 0.2481 0.2566 0.2338 0.2318 0.3112 0.3443 0.2846 0.2148 0.2542 0.2756
2690.924 0.19154 0.17439 0.2128 0.2377 0.2418 0.237 0.2326 0.20368 0.2226 0.2507
2710.214 0.2334 0.2402 0.284 0.2971 0.2518 0.2501 0.2333 0.1938 0.2514 0.3101
2729.504 0.2801 0.2189 0.2103 0.273 0.3085 0.3401 0.3421 0.3365 0.3689 0.3869
2748.794 0.3276 0.2678 0.2668 0.2298 0.19297 0.2698 0.2996 0.2198 0.2204 0.236
2768.083 0.2349 0.2735 0.3093 0.2378 0.2486 0.3308 0.3007 0.2575 0.2784 0.3076
2787.373 0.3192 0.3458 0.3049 0.2587 0.2835 0.3362 0.3606 0.3234 0.2989 0.3078
2806.663 0.2965 0.3028 0.3214 0.2724 0.2446 0.2976 0.3051 0.3062 0.3206 0.3861
2825.953 0.4463 0.4275 0.4358 0.4709 0.5087 0.5016 0.5363 0.5641 0.5919 0.6516
2845.242 0.6619 0.6579 0.7276 0.8517 0.8322 0.818 0.9132 0.9981 1.0584 1.0982
2864.532 1.182 1.282 1.392 1.492 1.552 1.662 1.832 1.972 2.092 2.232
2883.822 2.232 2.222 2.302 2.302 2.272 2.282 2.272 2.212 2.112 2.072
2903.112 2.102 2.162 2.212 2.292 2.412 2.562 2.672 2.792 3.112 3.362
2922.401 3.572 3.822 4.012 4.202 4.332 4.532 4.692 4.832 5.002 5.132
2941.691 5.232 5.212 5.192 5.182 5.152 5.122 5.042 5.092 5.212 5.262
2960.981 5.462 5.682 5.912 6.212 6.282 6.172 6.152 6.152 6.022 5.642
2980.271 5.192 4.782 4.242 3.722 3.282 2.832 2.472 2.162 1.802 1.612
2999.561 1.442 1.302 1.242 1.152 1.0186 0.8821 0.8262 0.7812 0.7747 0.672
3018.850 0.6062 0.662 0.6464 0.5582 0.5192 0.5378 0.466 0.4113 0.3705 0.3306
3038.140 0.3854 0.3456 0.3343 0.4897 0.464 0.3465 0.3501 0.3078 0.3127 0.3053
3057.430 0.3064 0.3172 0.2216 0.18291 0.2287 0.305 0.3652 0.3212 0.3198 0.3712
3076.720 0.3995 0.3429 0.2407 0.2244 0.224 0.2371 0.2629 0.3694 0.3955 0.3049
3096.009 0.2289 0.2177 0.2575 0.2723 0.3037 0.3142 0.2963 0.2863 0.3319 0.2969
3115.299 0.2394 0.3036 0.3082 0.2782 0.3362 0.3241 0.3232 0.3151 0.2636 0.2408
3134.589 0.225 0.2149 0.2027 0.226 0.284 0.3313 0.21135 0.16336 0.2188 0.2303
3153.879 0.19635 0.2669 0.362 0.2169 0.120479 0.2141 0.2327 0.2646 0.3234 0.2491
3173.169 0.2237 0.2788 0.3263 0.3415 0.2695 0.21173 0.2818 0.2877 0.2453 0.2873
3192.458 0.2738 0.2861 0.3182 0.2575 0.2122 0.15079 0.14156 0.2518 0.3061 0.3159
3211.748 0.285 0.3033 0.3116 0.2978 0.3664 0.3492 0.2949 0.2784 0.2755 0.13676
3231.038 0.10926 0.2173 0.20237 0.16718 0.0898 0.118186 0.19134 0.14429 0.0975 0.14206
3250.328 0.2328 0.2407 0.2264 0.20449 0.15032 0.19589 0.2199 0.2315 0.2916 0.2949
3269.617 0.2531 0.2265 0.2303 0.20037 0.16065 0.19924 0.283 0.2222 0.117843 0.0951
3288.907 0.0854 0.13865 0.20979 0.226 0.2628 0.2595 0.19826 0.18501 0.19468 0.16513
3308.197 0.18441 0.12596 0.120177 0.2174 0.0959 0.0926 0.0919 0 0.0809 0.15049
3327.487 0.19207 0.2132 0.2298 0.2358 0.17286 0.14665 0.2233 0.242 0.18654 0.12759
3346.777 0.13748 0.2348 0.14804 0.0708 0.16466 0.2519 0.2631 0.2583 0.2981 0.3698
3366.066 0.4422 0.2662 0.18236 0.2543 0.2151 0.18833 0.21032 0.275 0.17189 0.13428
3385.356 0.2135 0.17202 0.15029 0.15746 0.1248 0.236 0.3061 0.2509 0.18973 0.12512
3404.646 0.13492 0.119349 0.16227 0.2197 0.1351 0.16168 0.21031 0.13924 0.19146 0.2322
3423.936 0.2842 0.2176 0.18626 0.18796 0.2378 0.2495 0.16297 0.2526 0.2402 0.2382
3443.225 0.2288 0.2127 0.21183 0.1598 0.20891 0.13747 0.0972 0.286 0.3253 0.2736
3462.515 0.2596 0.15612 0.2389 0.3142 0.2136 0.279 0.2675 0.221 0.2611 0.3232
3481.805 0.3049 0.20254 0.20804 0.16696 0.2409 0.3637 0.3307 0.2973 0.3132 0.3863
3501.095 0.4635 0.4933 0.4287 0.4487 0.5691 0.5962 0.5655 0.5793 0.6185 0.607
3520.385 0.5571 0.6113 0.6774 0.7107 0.7755 0.854 0.8479 0.8563 1.0775 1.142
3539.674 1.152 1.262 1.222 1.352 1.492 1.532 1.812 2.132 2.362 2.942
3558.964 3.922 5.082 6.732 8.792 11.242 13.632 15.382 16.142 16.212 15.992
3578.254 15.122 13.352 10.802 8.132 5.902 4.272 3.202 2.402 1.902 1.702
3597.544 1.422 1.162 1.0276 0.9179 0.9342 1.0089 0.9364 0.8068 0.7075 0.6346
3616.833 0.63 0.649 0.5947 0.5314 0.4939 0.4145 0.4726 0.4741 0.3534 0.3285
3636.123 0.2993 0.3322 0.3288 0.3097 0.3483 0.3499 0.278 0.3664 0.445 0.4798
3655.413 0.4756 0.392 0.2775 0.13529 0.0977 0.15098 0.2906 0.2817 0.18795 0.3164
3674.703 0.2947 0.0837 0.087 0.14706 0.18614 0.2446 0.17743 0.2154 0.3527 0.2358
3693.993 0.13128 0.10309 0.19841 0.3401 0.334 0.2289 0.2217 0.3222 0.3353 0.2489
3713.282 0.1458 0.16757 0.2801 0.2616 0.1481 0.18862 0.3033 0.2658 0.2133 0.3139
3732.572 0.2467 0.12695 0.14226 0.2182 0.24 0.17579 0.2127 0.294 0.2438 0.16795
3751.862 0.2319 0.18304 0.10744 0.2225 0.19464 0.17558 0.2884 0.3478 0.3346 0.2254
3771.152 0.16497 0.117664 0.18504 0.2308 0.18633 0.18452 0.2359 0.3422 0.3706 0.2277
3790.441 0.0484 0.12484 0.2697 0.269 0.19482 0.2353 0.3218 0.18405 0.1007 0.17117
3809.731 0.16972 0.14271 0.0959 0.12889 0.0516 0.002 0.0833 0.15545 0.2133 0.2995
3829.021 0.419 0.29 0.0919 0.0669 0.17858 0.2761 0.20904 0.119291 0.120886 0.21068
3848.311 0.2638 0.17524 0.2702 0.3254 0.17072 0.18192 0.2795 0.2589 0.2252 0.16414
3867.601 0.121951 0.117435 0.2202 0.3734 0.2687 0.18734 0.2448 0.3077 0.2699 0.2259
3886.890 0.2168 0.17916 0.19426 0.2431 0.267 0.2375 0.17492 0.2228 0.2603 0.2349
3906.180 0.2409 0.16761 0.116855 0.15148 0.2644 0.20101 0.0568 0.14158 0.2471 0.19803
3925.470 0.19818 0.222 0.2537 0.3076 0.112306 0.0801 0.2491 0.3181 0.4223 0.4766
3944.760 0.334 0.3065 0.3146 0.2589 0.2515 0.2767 0.2881 0.3042 0.3175 0.2192
3964.049 0.13282 0.0904 0.0681 0.0612 0.1107 0.115977 0.14419 0.2218 0.269 0.3189
3983.339 0.2629 0.2146 0.2198 0.115112 0.1012 0.13063 0.16651 0.2892 0.4181 0.4316
##END=
