##TITLE=5-Methyl-3-hexanol
##JCAMP-DX=4.24
##DATA TYPE=INFRARED SPECTRUM
##ORIGIN=NIST Mass Spectrometry Data Center
##OWNER=NIST Standard Reference Data Program
Collection (C) 2018 copyright by the U.S. Secretary of Commerce
on behalf of the United States of America. All rights reserved.
##CAS REGISTRY NO=623-55-2
##MOLFORM=C 7 H 16 O
##$NIST SOURCE=MSDC-IR
##SPECTROMETER/DATA SYSTEM=HP-GC/MS/IRD
##STATE=gas
##XUNITS=1/CM
##YUNITS=ABSORBANCE
##XFACTOR=1.0
##YFACTOR=0.000002500
##DELTAX=4.0
##FIRSTX=550.0
##LASTX=3846.0
##FIRSTY=0.000253
##MAXX=3846
##MINX=550
##MAXY=0.025
##MINY=0
##NPOINTS=825
##XYDATA=(X++(Y..Y))
550.0 101 114 112 89 48 10 42 83 52 26
590.0 41 52 40 47 41 42 38 30 49 52
630.0 52 50 34 28 28 27 49 59 45 30
670.0 26 26 23 33 28 49 49 26 18 6
710.0 12 16 21 20 0 9 30 37 42 44
750.0 42 35 38 55 68 78 78 79 89 102
790.0 92 66 76 122 146 144 164 195 231 280
830.0 315 332 328 316 310 292 258 236 221 209
870.0 212 226 240 255 280 311 334 346 347 361
910.0 383 406 448 487 523 568 621 691 768 891
950.0 1039 1193 1347 1463 1513 1511 1459 1361 1251 1160
990.0 1101 1080 1095 1134 1180 1191 1178 1145 1096 1014
1030.0 928 875 840 799 769 764 769 779 801 827
1070.0 863 892 916 956 987 1008 1025 1044 1062 1058
1110.0 1055 1055 1067 1093 1134 1185 1231 1261 1237 1188
1150.0 1114 1024 962 895 821 749 701 651 606 575
1190.0 570 597 644 701 752 802 852 888 894 886
1230.0 882 866 831 808 797 777 761 749 741 732
1270.0 724 717 708 695 676 654 643 624 602 577
1310.0 555 539 536 551 573 595 623 643 692 771
1350.0 854 969 1112 1266 1439 1588 1682 1727 1708 1616
1390.0 1490 1312 1115 942 777 662 575 520 525 539
1430.0 565 610 692 800 906 1036 1155 1276 1379 1417
1470.0 1381 1250 1079 892 700 539 424 338 272 195
1510.0 150 148 129 114 113 115 110 100 89 92
1550.0 101 95 83 88 95 96 96 97 97 95
1590.0 95 90 83 81 83 79 73 62 58 65
1630.0 62 50 49 54 49 37 33 39 45 44
1670.0 33 32 32 28 27 38 39 22 23 35
1710.0 39 29 22 27 28 16 8 17 19 12
1750.0 2 6 15 21 13 5 8 15 13 11
1790.0 12 10 8 5 16 22 26 28 24 20
1830.0 16 16 22 16 17 24 26 20 17 16
1870.0 18 25 28 24 24 33 27 17 21 24
1910.0 29 22 16 26 28 31 27 21 12 12
1950.0 18 23 27 25 19 18 20 18 21 25
1990.0 22 18 14 17 21 18 24 21 17 20
2030.0 21 20 13 11 18 16 12 13 12 5
2070.0 7 14 9 5 11 11 6 10 11 13
2110.0 17 10 4 3 6 8 12 13 13 13
2150.0 14 14 18 19 16 15 16 19 18 19
2190.0 20 19 22 26 24 16 10 9 13 17
2230.0 16 15 19 16 10 11 8 8 10 6
2270.0 8 12 9 12 17 15 13 7 3 2
2310.0 5 2 2 2 2 2 2 2 2 4
2350.0 9 7 2 3 2 7 11 15 25 25
2390.0 27 27 29 35 38 39 37 32 30 36
2430.0 39 32 35 37 31 31 29 27 26 24
2470.0 26 32 32 30 30 29 31 35 32 26
2510.0 22 27 34 37 35 29 29 36 41 39
2550.0 41 43 47 58 63 74 73 64 69 80
2590.0 78 79 87 90 96 99 100 107 107 104
2630.0 105 109 110 106 106 112 117 118 116 119
2670.0 123 120 124 139 145 139 143 158 163 166
2710.0 173 181 196 212 221 230 237 240 244 252
2750.0 257 259 258 256 258 261 275 295 303 318
2790.0 333 347 366 395 425 461 510 560 613 687
2830.0 773 878 1011 1156 1319 1507 1723 1985 2310 2714
2870.0 3177 3634 4027 4309 4450 4474 4458 4474 4575 4810
2910.0 5145 5543 5998 6470 6887 7207 7393 7413 7359 7367
2950.0 7602 8213 9118 9837 10000 9571 8492 6888 5188 3756
2990.0 2695 1961 1465 1127 894 736 617 544 485 429
3030.0 385 360 343 333 315 294 284 279 261 255
3070.0 257 250 249 241 233 223 214 202 192 193
3110.0 189 178 165 160 160 159 152 141 134 133
3150.0 131 124 118 121 124 127 132 132 132 122
3190.0 106 101 89 85 85 78 78 72 62 51
3230.0 34 32 31 31 29 24 27 30 29 24
3270.0 25 25 26 30 29 25 25 30 35 28
3310.0 21 25 27 26 27 27 28 31 31 28
3350.0 22 16 27 33 34 45 46 41 46 47
3390.0 44 43 51 58 54 42 45 47 39 46
3430.0 45 50 44 23 33 49 49 47 41 39
3470.0 45 46 43 40 37 34 33 23 15 28
3510.0 21 19 26 7 2 26 39 39 26 2
3550.0 7 31 40 22 1 13 34 42 40 22
3590.0 22 35 31 35 41 64 94 119 148 176
3630.0 229 301 368 437 483 533 578 572 530 450
3670.0 352 260 195 159 123 102 98 89 84 78
3710.0 54 49 54 43 46 47 20 34 48 37
3750.0 41 58 68 55 54 60 72 71 58 58
3790.0 70 73 75 80 81 72 69 75 71 79
3830.0 93 85 70 82 90
##END=
