##TITLE=4-Hydroxybenzylalcohol
##JCAMP-DX=4.24
##DATA TYPE=INFRARED SPECTRUM
##ORIGIN=NIST Mass Spectrometry Data Center
##OWNER=NIST Standard Reference Data Program
Collection (C) 2018 copyright by the U.S. Secretary of Commerce
on behalf of the United States of America. All rights reserved.
##CAS REGISTRY NO=623-05-2
##MOLFORM=C 7 H 8 O 2
##$NIST SOURCE=MSDC-IR
##SPECTROMETER/DATA SYSTEM=HP-GC/MS/IRD
##STATE=gas
##XUNITS=1/CM
##YUNITS=ABSORBANCE
##XFACTOR=1.0
##YFACTOR=0.000001000
##DELTAX=4.0
##FIRSTX=550.0
##LASTX=3846.0
##FIRSTY=0.001083
##MAXX=3846
##MINX=550
##MAXY=0.01
##MINY=0
##NPOINTS=825
##XYDATA=(X++(Y..Y))
550.0 1083 1172 1217 1200 1012 809 643 477 394 357
590.0 389 361 312 279 217 175 106 71 102 47
630.0 4 55 96 116 68 17 17 86 72 18
670.0 53 53 76 72 79 96 170 229 177 154
710.0 180 186 196 204 201 214 220 245 277 360
750.0 429 427 468 519 513 550 615 644 701 809
790.0 919 1071 1250 1436 1655 1857 2067 2256 2397 2509
830.0 2463 2358 2296 2160 1962 1700 1440 1219 967 723
870.0 609 547 468 400 384 450 506 492 508 641
910.0 824 786 653 640 653 661 634 580 546 549
950.0 615 678 749 854 945 1052 1177 1289 1445 1605
990.0 1776 2013 2272 2534 2781 2993 3157 3315 3351 3280
1030.0 3094 2825 2464 2056 1746 1506 1336 1201 1086 990
1070.0 904 840 837 866 902 984 1050 1084 1078 1099
1110.0 1093 1035 995 1015 1063 1112 1198 1318 1467 1782
1150.0 2339 3279 4810 6637 8237 9422 10000 9649 8478 6942
1190.0 5443 4217 3320 2742 2385 2152 1994 1890 1811 1737
1230.0 1793 2000 2393 3018 3918 4829 5395 5511 5170 4309
1270.0 3035 1967 1372 1065 932 862 809 804 829 905
1310.0 1043 1239 1450 1620 1737 1789 1754 1615 1391 1181
1350.0 1072 1047 1076 1167 1249 1386 1549 1616 1629 1594
1390.0 1475 1330 1210 1110 1059 1022 1077 1170 1192 1225
1430.0 1280 1320 1236 1039 872 700 613 568 486 475
1470.0 517 562 536 527 626 801 1148 1786 2750 3969
1510.0 4804 4965 4766 4096 2858 1688 1043 793 636 502
1550.0 443 447 509 455 416 489 611 782 978 1246
1590.0 1581 1945 2311 2611 2790 2825 2696 2429 2079 1667
1630.0 1305 1177 1233 1548 2144 2660 2875 2901 2847 2676
1670.0 2125 1344 795 607 506 378 393 447 445 457
1710.0 522 636 673 588 529 507 426 281 220 234
1750.0 264 228 197 196 197 199 168 137 122 84
1790.0 88 96 83 110 100 113 164 187 206 229
1830.0 222 191 168 175 176 151 149 164 172 184
1870.0 203 199 187 174 160 154 147 118 100 96
1910.0 87 86 95 77 59 68 70 69 75 74
1950.0 61 49 56 64 73 59 48 57 59 68
1990.0 95 101 94 90 93 113 109 104 103 91
2030.0 80 77 85 86 84 69 58 56 47 47
2070.0 49 46 49 56 61 63 59 49 50 46
2110.0 48 42 23 18 35 40 30 20 16 23
2150.0 22 10 7 11 28 22 2 9 24 26
2190.0 21 8 0 17 17 11 11 7 16 24
2230.0 18 13 24 25 38 48 45 41 51 57
2270.0 55 45 36 46 54 53 53 56 63 58
2310.0 60 68 70 74 80 87 80 86 100 92
2350.0 89 94 96 89 91 88 73 61 60 66
2390.0 46 47 67 73 75 94 109 116 121 128
2430.0 151 152 143 130 103 71 61 64 78 63
2470.0 52 55 54 71 74 61 66 65 66 74
2510.0 77 88 76 66 69 56 31 22 26 19
2550.0 14 30 32 27 34 29 23 30 29 16
2590.0 21 48 52 47 35 31 47 49 47 45
2630.0 37 31 36 42 46 57 65 56 48 45
2670.0 50 56 61 72 76 74 74 74 78 83
2710.0 83 90 95 93 100 125 128 109 117 124
2750.0 116 123 118 103 103 118 157 162 130 155
2790.0 174 171 171 185 221 234 251 270 265 284
2830.0 328 374 419 461 504 564 615 705 807 901
2870.0 1029 1159 1272 1349 1389 1363 1281 1226 1158 1076
2910.0 1054 1032 1026 1040 1020 1010 999 968 942 927
2950.0 900 830 771 690 604 541 480 422 383 373
2990.0 386 396 461 576 702 852 1022 1155 1231 1268
3030.0 1273 1266 1237 1183 1098 983 878 795 723 676
3070.0 634 561 505 453 409 353 318 322 286 260
3110.0 236 224 212 167 143 146 127 88 93 90
3150.0 61 43 33 18 15 5 3 7 4 19
3190.0 36 57 57 31 18 35 35 10 22 33
3230.0 27 37 30 36 56 39 17 2 29 50
3270.0 36 32 31 44 72 82 71 64 77 91
3310.0 89 79 64 53 48 53 61 69 86 73
3350.0 58 70 85 99 105 109 83 75 102 90
3390.0 89 88 61 67 64 86 116 104 80 82
3430.0 82 92 103 98 103 86 72 77 58 51
3470.0 73 87 101 132 140 125 104 91 105 103
3510.0 70 54 70 115 119 74 90 92 98 125
3550.0 107 87 60 75 145 140 88 88 105 163
3590.0 180 150 162 191 247 298 347 425 513 725
3630.0 1043 1500 2196 3164 4061 4351 4159 3812 3018 1993
3670.0 1309 944 678 458 369 346 298 268 222 174
3710.0 184 172 122 142 156 126 181 195 221 221
3750.0 156 119 117 126 106 91 85 116 116 95
3790.0 90 85 112 135 107 100 123 120 117 123
3830.0 122 144 181 160 117
##END=
