##TITLE=trans-2-Methyl-2-pentenal
##JCAMP-DX=4.24
##DATA TYPE=INFRARED SPECTRUM
##ORIGIN=NIST Mass Spectrometry Data Center
##OWNER=NIST Standard Reference Data Program
Collection (C) 2018 copyright by the U.S. Secretary of Commerce
on behalf of the United States of America. All rights reserved.
##CAS REGISTRY NO=623-36-9
##MOLFORM=C 6 H 10 O
##$NIST SOURCE=MSDC-IR
##SPECTROMETER/DATA SYSTEM=HP-GC/MS/IRD
##STATE=gas
##XUNITS=1/CM
##YUNITS=ABSORBANCE
##XFACTOR=1.0
##YFACTOR=0.000004900
##DELTAX=4.0
##FIRSTX=550.0
##LASTX=3846.0
##FIRSTY=0.000377
##MAXX=3846
##MINX=550
##MAXY=0.049
##MINY=0
##NPOINTS=825
##XYDATA=(X++(Y..Y))
550.0 77 37 9 5 0 3 10 4 7 14
590.0 10 27 40 44 45 54 78 85 86 103
630.0 129 157 174 181 191 200 194 179 159 138
670.0 123 105 86 76 78 70 59 55 58 68
710.0 71 72 73 73 86 93 99 120 144 159
750.0 173 198 231 266 300 334 362 388 394 384
790.0 380 375 366 351 352 358 386 425 444 480
830.0 506 512 506 484 463 456 446 428 416 389
870.0 349 309 270 241 219 195 180 166 158 154
910.0 157 162 165 165 157 149 154 160 158 168
950.0 191 218 249 289 333 380 429 491 557 619
990.0 676 705 707 685 643 578 514 493 511 575
1030.0 654 734 820 882 917 928 909 868 807 733
1070.0 660 584 506 432 360 305 262 226 201 182
1110.0 165 146 139 134 124 113 110 103 97 89
1150.0 84 94 91 92 103 110 121 151 188 230
1190.0 293 386 511 663 806 903 943 930 867 747
1230.0 591 451 357 299 264 242 229 218 211 205
1270.0 199 203 225 243 269 315 377 439 476 475
1310.0 465 446 390 312 259 241 253 277 314 368
1350.0 420 440 454 482 500 501 496 500 521 557
1390.0 590 609 606 591 572 546 491 420 369 351
1430.0 346 350 361 376 393 416 438 449 450 432
1470.0 404 375 348 310 274 252 235 216 196 180
1510.0 173 166 154 146 144 140 135 129 125 127
1550.0 126 124 122 125 128 126 128 133 137 152
1590.0 173 193 222 259 298 340 395 471 569 682
1630.0 804 918 1019 1083 1087 1039 964 885 805 752
1670.0 768 863 1041 1334 1896 2967 4834 7332 9173 9761
1710.0 10000 9943 8355 5225 2733 1614 1107 814 621 484
1750.0 384 310 259 220 190 163 146 137 133 131
1790.0 133 135 136 138 136 127 120 114 109 97
1830.0 88 83 78 71 66 61 58 55 50 47
1870.0 48 46 44 46 48 50 50 51 51 48
1910.0 50 49 48 43 43 43 39 37 37 33
1950.0 30 33 34 34 33 35 34 29 29 30
1990.0 31 32 31 32 29 29 32 36 35 31
2030.0 32 33 29 29 30 27 24 23 21 18
2070.0 16 14 15 16 13 12 15 19 18 14
2110.0 18 17 17 18 15 17 17 18 18 16
2150.0 16 17 16 15 14 8 9 11 8 10
2190.0 12 10 9 8 10 11 12 12 10 9
2230.0 6 4 4 1 0 2 6 8 9 9
2270.0 8 9 10 9 8 7 6 6 5 4
2310.0 3 2 2 0 0 0 0 0 1 6
2350.0 4 1 0 0 3 6 10 14 15 13
2390.0 11 11 13 14 18 22 23 26 28 24
2430.0 22 21 21 18 17 16 14 12 11 10
2470.0 8 9 10 9 10 18 17 12 13 13
2510.0 13 15 20 23 20 18 17 18 15 20
2550.0 23 23 22 20 24 26 24 26 26 32
2590.0 38 37 43 50 50 48 47 49 50 50
2630.0 56 60 63 69 75 88 100 111 133 168
2670.0 208 266 344 446 581 737 894 1013 1079 1131
2710.0 1167 1134 1041 929 823 729 655 614 596 597
2750.0 603 612 628 644 662 679 704 747 811 893
2790.0 985 1092 1203 1290 1326 1309 1269 1207 1103 978
2830.0 847 727 631 562 525 519 533 564 609 664
2870.0 730 817 922 1027 1087 1116 1146 1157 1133 1104
2910.0 1094 1116 1164 1227 1303 1399 1518 1632 1697 1733
2950.0 1778 1821 1845 1910 2081 2335 2530 2543 2453 2324
2990.0 2064 1700 1373 1140 972 839 728 638 567 502
3030.0 450 415 382 355 330 311 295 279 266 251
3070.0 231 210 191 178 164 150 138 128 120 109
3110.0 101 100 94 90 85 85 87 82 80 74
3150.0 68 67 69 70 63 55 50 47 46 39
3190.0 34 35 33 29 28 27 24 25 23 21
3230.0 19 17 20 18 19 22 23 21 16 13
3270.0 19 25 18 17 16 16 19 20 21 19
3310.0 13 18 28 23 21 22 22 25 29 33
3350.0 39 41 42 47 55 68 85 98 124 157
3390.0 178 187 194 193 167 132 108 85 66 56
3430.0 50 40 31 31 32 30 28 15 10 18
3470.0 18 15 14 11 10 16 13 6 5 6
3510.0 4 2 1 4 9 13 11 11 14 13
3550.0 4 2 4 6 10 7 2 6 8 3
3590.0 3 6 5 5 4 4 8 9 5 6
3630.0 0 0 11 15 14 14 16 14 7 4
3670.0 8 16 17 18 14 12 17 14 17 19
3710.0 10 4 2 5 9 6 4 10 8 3
3750.0 0 7 9 2 6 8 15 22 19 11
3790.0 15 19 9 5 10 13 15 10 12 17
3830.0 16 9 10 13 13
##END=
