##TITLE=Ethyldiazoacetate
##JCAMP-DX=4.24
##DATA TYPE=INFRARED SPECTRUM
##ORIGIN=NIST Mass Spectrometry Data Center
##OWNER=NIST Standard Reference Data Program
Collection (C) 2018 copyright by the U.S. Secretary of Commerce
on behalf of the United States of America. All rights reserved.
##CAS REGISTRY NO=623-73-4
##MOLFORM=C 4 H 6 N 2 O 2
##$NIST SOURCE=MSDC-IR
##SPECTROMETER/DATA SYSTEM=HP-GC/MS/IRD
##STATE=gas
##XUNITS=1/CM
##YUNITS=ABSORBANCE
##XFACTOR=1.0
##YFACTOR=0.000003200
##DELTAX=4.0
##FIRSTX=550.0
##LASTX=3846.0
##FIRSTY=0.000973
##MAXX=3846
##MINX=550
##MAXY=0.032
##MINY=0
##NPOINTS=825
##XYDATA=(X++(Y..Y))
550.0 304 386 314 356 349 369 396 400 369 340
590.0 296 256 222 174 137 108 94 86 47 34
630.0 53 60 69 93 130 134 129 96 98 519
670.0 586 186 92 98 109 90 75 73 58 22
710.0 12 26 54 36 13 19 33 59 48 45
750.0 52 40 26 19 7 5 17 19 12 16
790.0 24 28 19 15 27 44 64 78 91 106
830.0 122 151 173 197 236 274 298 322 340 345
870.0 348 364 364 338 332 340 346 345 333 347
910.0 372 374 369 399 383 380 398 474 552 895
950.0 1324 940 540 468 446 462 476 508 536 591
990.0 600 623 665 707 771 784 797 822 874 945
1030.0 988 1016 1048 1112 1229 1317 1405 1498 1536 1555
1070.0 1591 1620 1615 1571 1498 1417 1365 1352 1330 1285
1110.0 1258 1227 1206 1221 1252 1295 1365 1471 1563 1675
1150.0 1807 1932 2121 2386 2626 2809 2967 3013 2950 2835
1190.0 2648 2359 2000 1669 1409 1200 1037 938 883 849
1230.0 832 806 764 689 595 519 450 403 380 367
1270.0 372 404 422 427 431 430 440 456 467 464
1310.0 468 496 583 714 839 1030 1285 1540 1743 1841
1350.0 1831 1805 1824 1798 1713 1640 1561 1495 1482 1446
1390.0 1262 1030 855 739 652 581 528 490 434 382
1430.0 350 338 343 380 410 395 389 390 382 378
1470.0 379 366 333 298 259 208 169 179 212 188
1510.0 120 91 99 106 98 88 87 108 110 81
1550.0 68 71 81 64 49 56 72 80 91 114
1590.0 130 145 152 149 136 120 111 97 85 88
1630.0 94 121 142 162 198 241 278 286 293 314
1670.0 340 369 393 437 483 520 600 702 789 878
1710.0 989 1106 1210 1275 1311 1286 1251 1224 1525 1556
1750.0 966 732 749 766 802 837 853 842 804 774
1790.0 745 690 625 563 499 438 385 346 316 281
1830.0 250 219 183 155 137 122 97 84 81 75
1870.0 70 63 56 58 81 94 78 72 70 66
1910.0 68 72 73 68 60 49 44 38 27 22
1950.0 15 8 3 7 17 18 11 13 27 29
1990.0 38 58 72 84 103 131 159 188 221 262
2030.0 316 373 446 532 620 723 840 983 1157 1374
2070.0 1640 1967 2373 2894 3587 4469 5557 6810 8081 9154
2110.0 9825 10000 9713 9033 7943 6455 4816 3386 2402 1838
2150.0 1533 1336 1207 1130 1076 1025 982 935 879 827
2190.0 773 715 649 582 521 463 397 334 285 239
2230.0 204 176 148 132 120 108 104 108 115 125
2270.0 144 176 219 270 345 448 562 688 849 1022
2310.0 1199 1371 1521 1633 1680 1677 1616 1528 1456 1288
2350.0 1272 1637 2000 2164 2153 1950 1591 1139 702 371
2390.0 174 76 37 27 22 22 19 10 13 11
2430.0 9 19 19 8 9 13 14 16 16 21
2470.0 21 16 15 14 13 18 16 7 2 8
2510.0 15 13 18 19 25 32 26 20 20 23
2550.0 27 24 24 21 19 26 21 18 22 17
2590.0 16 24 34 40 41 39 36 42 52 50
2630.0 54 59 67 87 77 81 86 78 84 125
2670.0 147 144 136 151 187 200 197 213 277 315
2710.0 324 341 362 401 474 534 558 566 582 663
2750.0 681 647 601 612 721 652 624 752 674 521
2790.0 537 679 908 1014 987 966 937 967 974 890
2830.0 853 818 729 705 728 739 743 812 1026 1098
2870.0 1097 1160 1221 1302 1286 1278 1453 1490 1279 1233
2910.0 1262 1231 1207 1277 1318 1260 1275 1328 1337 1364
2950.0 1406 1399 1391 1425 1479 1562 1660 1745 1790 1825
2990.0 1754 1559 1387 1215 1078 958 854 767 720 703
3030.0 671 656 650 664 688 702 700 676 651 612
3070.0 534 457 404 347 306 268 230 210 205 194
3110.0 193 201 224 231 209 213 226 223 206 195
3150.0 187 174 162 150 141 129 116 121 120 93
3190.0 96 104 85 88 88 85 80 73 66 64
3230.0 62 49 42 34 29 35 47 55 45 26
3270.0 29 39 39 41 21 10 31 34 28 27
3310.0 15 15 19 16 9 7 11 2 17 13
3350.0 4 6 13 13 0 17 38 31 10 7
3390.0 21 21 30 38 28 40 55 39 50 64
3430.0 59 60 76 87 103 114 113 107 90 102
3470.0 122 89 85 101 85 92 107 98 94 109
3510.0 116 104 105 82 76 77 45 30 32 40
3550.0 45 64 54 58 69 50 47 66 74 76
3590.0 76 78 69 55 50 52 63 63 64 71
3630.0 71 67 68 55 53 53 37 39 42 51
3670.0 54 47 60 63 72 80 64 69 78 75
3710.0 74 56 40 54 65 79 99 76 80 90
3750.0 68 45 23 10 18 21 9 14 26 25
3790.0 34 37 44 60 53 49 58 60 54 51
3830.0 40 51 53 40 33
##END=
