##TITLE=2,2,3-Trimethyldecane
##JCAMP-DX=4.24
##DATA TYPE=INFRARED SPECTRUM
##ORIGIN=NIST Mass Spectrometry Data Center
##OWNER=NIST Standard Reference Data Program
Collection (C) 2018 copyright by the U.S. Secretary of Commerce
on behalf of the United States of America. All rights reserved.
##CAS REGISTRY NO=62338-09-4
##MOLFORM=C 13 H 28
##$NIST SOURCE=MSDC-IR
##SPECTROMETER/DATA SYSTEM=HP-GC/MS/IRD
##STATE=gas
##XUNITS=1/CM
##YUNITS=ABSORBANCE
##XFACTOR=1.0
##YFACTOR=0.000004500
##DELTAX=4.0
##FIRSTX=550.0
##LASTX=3846.0
##FIRSTY=0.000225
##MAXX=3846
##MINX=550
##MAXY=0.045
##MINY=0
##NPOINTS=825
##XYDATA=(X++(Y..Y))
550.0 50 47 35 27 15 1 16 40 32 10
590.0 26 34 40 57 47 36 40 41 40 37
630.0 43 40 47 53 46 47 37 32 45 31
670.0 26 46 65 74 61 55 83 106 106 120
710.0 132 145 155 167 173 151 138 126 122 126
750.0 119 105 102 102 100 95 92 94 81 75
790.0 68 54 54 50 47 52 58 73 83 73
830.0 76 91 91 82 74 76 68 61 67 70
870.0 71 69 64 61 71 80 79 78 76 81
910.0 88 90 93 97 105 95 83 87 82 79
950.0 74 74 82 83 78 80 85 97 111 120
990.0 122 118 113 113 109 104 101 91 91 95
1030.0 90 97 105 116 129 141 148 148 141 135
1070.0 133 137 149 155 165 194 223 232 223 194
1110.0 166 157 154 150 146 160 170 169 164 153
1150.0 148 138 133 137 154 176 201 226 231 234
1190.0 240 249 253 259 270 276 280 276 262 261
1230.0 272 277 269 241 204 175 158 143 132 129
1270.0 128 130 134 137 145 153 158 164 167 175
1310.0 182 181 186 202 220 241 265 294 335 387
1350.0 455 560 712 913 1135 1276 1285 1212 1107 975
1390.0 847 780 736 629 475 346 281 258 258 274
1430.0 305 349 425 531 648 778 913 1057 1181 1261
1470.0 1276 1217 1110 962 775 584 430 325 254 207
1510.0 173 152 136 121 109 100 92 84 74 63
1550.0 60 63 64 60 56 54 51 47 44 47
1590.0 47 46 45 44 43 42 39 37 40 41
1630.0 38 37 37 42 44 41 38 35 34 35
1670.0 33 31 32 33 30 31 32 31 28 29
1710.0 24 19 22 22 23 22 22 23 21 21
1750.0 22 22 19 17 16 18 19 17 19 19
1790.0 20 18 17 20 18 18 17 15 13 11
1830.0 12 13 13 13 15 12 13 16 17 15
1870.0 16 18 16 16 14 11 13 15 15 18
1910.0 12 6 8 13 12 10 14 13 10 8
1950.0 6 9 6 5 8 6 9 8 8 4
1990.0 0 3 11 12 10 9 11 15 14 14
2030.0 17 15 16 18 16 14 13 14 14 12
2070.0 9 7 5 8 10 9 10 7 5 5
2110.0 5 7 12 13 10 6 3 5 7 8
2150.0 8 9 9 7 7 8 11 11 9 8
2190.0 8 6 8 9 7 6 6 7 7 8
2230.0 4 2 5 11 10 6 2 7 9 11
2270.0 15 11 9 13 15 15 17 14 8 6
2310.0 10 11 9 10 13 10 10 12 10 8
2350.0 10 15 16 15 14 17 18 17 18 20
2390.0 24 29 24 18 19 18 18 20 17 16
2430.0 15 15 16 15 15 19 18 17 20 17
2470.0 16 19 20 15 17 20 20 21 20 25
2510.0 26 26 30 32 31 32 33 34 34 37
2550.0 41 42 42 47 52 51 52 58 62 64
2590.0 66 67 67 69 75 81 82 79 86 90
2630.0 87 88 92 93 95 97 99 100 106 117
2670.0 121 120 123 124 122 119 118 119 124 133
2710.0 136 139 150 160 168 172 172 178 182 179
2750.0 175 181 190 192 198 201 210 227 241 259
2790.0 282 302 325 351 376 407 456 510 562 622
2830.0 707 815 953 1159 1468 1921 2539 3238 3871 4344
2870.0 4600 4666 4605 4449 4216 3968 3825 3857 4066 4443
2910.0 4981 5682 6576 7641 8699 9498 9865 9832 9535 9114
2950.0 8776 8757 9145 9715 10000 9611 8515 7030 5503 4144
2990.0 3040 2205 1635 1266 1024 852 730 635 564 503
3030.0 451 417 384 351 324 302 285 268 251 240
3070.0 226 218 220 212 202 197 194 185 180 179
3110.0 180 175 162 161 158 153 150 144 136 134
3150.0 141 146 146 143 141 136 132 127 120 117
3190.0 116 113 103 98 101 99 92 87 83 75
3230.0 70 64 59 56 52 54 52 46 48 49
3270.0 42 36 34 36 33 30 34 36 38 36
3310.0 34 33 39 46 43 37 33 34 35 34
3350.0 35 37 34 33 34 30 31 37 37 38
3390.0 41 38 32 25 28 28 25 29 27 24
3430.0 22 14 15 20 19 24 30 27 28 31
3470.0 27 24 25 21 14 20 27 27 30 27
3510.0 15 12 17 17 18 15 13 12 10 18
3550.0 22 22 28 25 17 12 15 14 4 4
3590.0 22 29 21 19 20 25 27 27 27 21
3630.0 20 17 17 25 28 29 28 33 35 28
3670.0 26 26 24 27 31 35 40 31 23 31
3710.0 40 37 27 20 24 23 18 20 25 31
3750.0 34 28 27 31 25 24 30 30 28 28
3790.0 28 30 35 40 38 36 40 46 56 54
3830.0 40 43 46 40 39
##END=
