##TITLE=Isoxazole-5-carbonyl chloride
##JCAMP-DX=4.24
##DATA TYPE=INFRARED SPECTRUM
##ORIGIN=EPA-IR VAPOR PHASE LIBRARY
##OWNER=SRD/NIST
Collection (C) 2018 copyright by the U.S. Secretary of Commerce
on behalf of the United States of America. All rights reserved.
##CAS REGISTRY NO=62348-13-4
##MOLFORM=C 4 H 2 Cl N O 2
##$NIST SOURCE=MSDC-IR
##STATE=gas
##XUNITS=1/CM
##YUNITS=ABSORBANCE
##XFACTOR=1.
##YFACTOR=0.001
##DELTAX=1.92898
##FIRSTX=549.8
##LASTX=4000.7
##FIRSTY=13.982
##MAXX=4000.7
##MINX=549.759
##MAXY=0.151402
##MINY=0
##NPOINTS=1790
##XYDATA=(X++(Y..Y))
549.759 13.982 14.022 13.572 12.352 11.052 9.832 9.142 8.712 9.182 9.182
569.049 8.452 8.312 7.212 5.682 5.212 4.842 4.452 4.402 3.142 2.162
588.339 1.902 1.972 2.882 3.092 2.182 1.5823 2.312 2.332 1.6818 1.2107
607.628 1.2711 1.862 2.112 2.292 2.382 2.692 3.062 3.222 3.172 3.022
626.918 2.762 2.942 2.712 2.322 2.292 1.982 1.6964 1.5031 1.842 1.7838
646.208 1.4862 1.6087 1.4463 1.7113 1.822 1.574 1.5704 1.4794 1.942 2.412
665.498 2.902 4.352 3.652 1.962 1.952 2.252 2.572 2.472 2.302 2.802
684.787 3.072 3.152 3.382 3.402 3.862 4.572 5.052 5.552 5.482 5.602
704.077 6.692 8.182 9.152 8.532 7.812 7.132 6.592 6.182 5.882 5.792
723.367 5.602 5.232 4.852 4.382 3.782 3.612 3.462 3.582 3.792 3.952
742.657 4.222 4.882 5.192 5.072 4.942 5.042 5.842 6.192 6.302 6.382
761.947 5.882 5.412 5.472 5.932 6.002 5.972 6.122 6.312 6.522 7.512
781.236 8.992 9.472 10.562 12.722 14.962 17.442 20.142 23.622 27.602 32.282
800.526 37.142 42.962 50.622 60.212 71.682 84.972 99.392 111.302 117.862 119.732
819.816 122.142 128.722 134.312 137.982 143.482 148.092 151.392 151.402 145.912 137.592
839.106 129.212 122.182 118.602 116.792 113.792 108.842 101.572 91.432 78.862 67.132
858.395 57.452 49.602 44.112 39.812 35.522 31.352 27.502 24.672 22.302 19.962
877.685 18.422 17.342 16.972 16.712 16.572 17.222 17.812 19.042 20.932 22.882
896.975 23.962 24.192 24.392 24.922 26.992 29.422 31.432 33.502 34.532 34.292
916.265 33.282 31.782 30.612 30.242 30.052 28.682 25.672 22.412 18.932 14.792
935.555 10.922 7.962 5.682 4.322 3.572 3.182 3.452 3.282 3.052 3.112
954.844 2.862 2.852 2.992 2.992 3.092 3.422 3.452 3.482 3.732 4.022
974.134 4.132 4.972 5.342 5.262 6.012 7.582 9.112 10.352 12.812 15.402
993.424 18.912 23.572 28.622 33.502 36.652 38.912 40.922 43.352 46.392 50.232
1012.714 54.862 58.312 58.462 55.942 53.542 50.502 46.182 40.432 37.172 36.832
1032.003 33.232 28.202 24.452 19.992 14.942 11.272 8.632 6.452 4.782 4.142
1051.293 4.192 4.142 4.362 4.732 4.272 3.792 4.252 4.122 3.362 3.392
1070.583 3.522 2.762 2.822 3.602 3.772 4.372 4.302 2.942 2.132 1.7666
1089.873 1.5044 2.822 3.392 3.062 3.492 4.402 5.002 2.892 2.472 4.122
1109.163 4.042 3.012 3.122 3.252 3.192 3.072 3.632 4.292 4.182 3.512
1128.452 2.822 2.942 2.692 1.982 2.652 3.022 2.272 2.682 3.052 2.822
1147.742 2.802 3.512 3.122 3.142 3.662 3.902 4.902 5.662 6.652 8.832
1167.032 12.132 16.372 20.842 27.262 35.382 42.992 49.032 52.412 52.912 52.392
1186.322 51.762 51.322 51.452 49.052 44.182 37.072 28.872 22.192 16.142 12.832
1205.611 12.352 12.242 14.052 17.282 23.302 28.862 32.112 38.932 45.992 52.632
1224.901 60.112 66.912 72.862 77.622 81.602 82.762 80.342 77.052 72.752 66.362
1244.191 58.442 50.052 42.482 35.302 28.752 22.492 17.162 13.292 10.222 8.322
1263.481 7.172 6.282 6.032 5.692 5.062 4.672 4.222 4.092 4.372 4.412
1282.771 3.832 3.462 3.532 3.522 3.112 2.812 2.842 2.752 2.652 2.532
1302.060 2.512 2.662 2.782 2.702 2.952 3.552 4.142 5.052 6.152 7.332
1321.350 8.702 9.822 11.102 12.642 13.772 14.202 14.122 14.142 13.982 13.092
1340.640 12.002 11.332 10.732 9.522 7.812 6.252 4.942 4.112 3.672 3.272
1359.930 2.962 2.692 2.652 2.632 2.532 2.512 2.482 2.362 2.132 1.982
1379.219 2.102 2.192 2.132 1.972 1.812 1.7242 1.7343 1.6721 1.6029 1.6993
1398.509 1.6973 1.6434 1.5888 1.5114 1.4666 1.5886 1.7717 1.8105 1.852 1.962
1417.799 2.132 2.362 2.482 2.712 2.972 3.242 3.542 3.892 4.412 4.762
1437.089 5.122 5.582 5.932 6.102 5.882 5.542 5.382 5.472 5.652 5.452
1456.378 5.092 4.582 3.952 3.442 2.922 2.652 2.552 2.322 1.922 1.4916
1475.668 1.2313 1.3243 1.3222 1.098 1.0407 0.91197 0.9483 0.88374 0.7532 0.7517
1494.958 0.88799 1.0843 1.0795 1.1157 0.9924 0.8622 0.87283 1.0683 1.3954 1.4868
1514.248 1.3666 1.2489 1.242 1.4368 1.616 1.2871 1.0193 1.2952 1.3631 1.324
1533.538 1.2616 1.1388 1.3358 1.2736 1.3976 1.7496 2.122 2.572 2.762 3.272
1552.827 3.942 4.492 5.232 6.352 7.712 9.082 10.502 11.842 12.862 14.002
1572.117 14.852 14.972 14.392 14.012 13.832 13.342 12.832 11.422 9.192 6.962
1591.407 5.472 4.482 3.482 2.752 2.492 2.322 2.162 2.272 2.362 2.452
1610.697 2.552 2.562 3.142 3.472 3.352 3.392 3.242 3.442 3.512 3.322
1629.986 3.362 3.532 3.432 3.272 3.192 2.902 2.852 2.782 2.592 2.462
1649.276 2.382 2.462 2.342 2.332 2.762 2.912 2.672 2.722 2.882 2.962
1668.566 3.402 3.732 3.852 4.072 4.112 4.282 4.492 4.522 4.632 4.722
1687.856 4.472 4.302 4.372 4.442 4.712 4.742 4.412 4.552 4.842 4.972
1707.146 5.092 5.222 5.622 6.052 6.422 6.772 7.232 7.582 8.062 8.702
1726.435 9.222 9.822 10.422 10.952 11.972 12.882 13.972 15.762 17.622 19.982
1745.725 22.962 26.302 30.472 35.752 42.002 49.482 58.342 67.792 77.502 86.562
1765.015 93.332 97.512 100.322 103.962 111.282 120.902 128.812 133.112 134.232 133.662
1784.305 132.002 128.572 122.452 113.822 104.022 96.092 93.082 93.672 92.952 86.902
1803.594 76.032 63.832 52.772 43.922 37.072 31.962 28.192 25.012 22.692 20.932
1822.884 19.632 18.752 18.182 17.802 17.372 16.882 16.422 16.062 15.642 15.232
1842.174 14.702 13.792 12.762 11.802 10.922 10.172 9.532 8.832 8.092 7.542
1861.464 7.172 6.672 6.142 5.642 5.182 4.792 4.322 3.942 3.692 3.312
1880.754 2.962 2.762 2.552 2.552 2.412 2.172 2.092 2.042 2.082 2.002
1900.043 1.862 1.892 1.932 1.962 1.7944 1.6515 1.6496 1.5437 1.6255 1.7349
1919.333 1.7494 1.7966 1.852 1.902 1.962 1.992 1.922 1.872 1.922 1.842
1938.623 1.6441 1.5646 1.5943 1.5443 1.5276 1.6541 1.6085 1.5381 1.6818 1.7208
1957.913 1.6015 1.4317 1.4877 1.6644 1.5369 1.4311 1.3883 1.2829 1.2829 1.2368
1977.202 0.9773 0.87831 1.0092 1.1121 1.1444 1.0409 0.9558 0.9574 0.9773 1.0016
1996.492 1.0319 1.1483 1.1035 1.022 1.0795 1.1469 1.1275 1.039 0.9526 1.0675
2015.782 1.1497 1.1942 1.3198 1.1366 1.0455 1.057 1.0096 1.0446 1.0294 1.0626
2035.072 1.2897 1.372 1.2259 1.2896 1.4158 1.5092 1.547 1.2858 1.318 1.3621
2054.362 1.2992 1.2853 1.394 1.4741 1.3109 1.2077 1.1646 1.2807 1.1604 1.1818
2073.651 1.3805 1.3046 1.3377 1.2427 1.1928 1.1331 1.1546 1.1605 1.4188 1.4398
2092.941 1.194 1.269 1.1812 1.2767 1.2325 1.3619 1.3181 1.3569 1.3907 1.5387
2112.231 1.6916 1.6641 1.3998 1.1766 1.4312 1.5489 1.419 1.2743 1.4584 1.4271
2131.521 1.4733 1.5978 1.7482 1.7055 1.7547 1.872 1.952 2.232 2.542 2.632
2150.810 2.642 2.812 3.092 3.262 3.052 2.942 3.112 3.082 2.962 3.102
2170.100 3.042 2.972 3.092 3.072 2.892 2.602 2.272 1.932 1.6036 1.3203
2189.390 1.3981 1.4741 1.4897 1.508 1.3595 1.372 1.4035 1.4212 1.4506 1.3012
2208.680 1.1909 1.2425 1.3758 1.4865 1.3813 1.2745 1.1867 1.2128 1.306 1.1116
2227.970 0.9354 0.9949 1.0217 0.9406 1.0861 1.3929 1.3654 1.0941 1.0678 1.2448
2247.259 1.2824 1.2973 1.3584 1.3097 1.185 1.2791 1.2715 1.1766 1.2436 1.2512
2266.549 1.2587 1.2978 1.1434 1.2039 1.1967 1.009 1.0739 1.2199 1.2615 1.3767
2285.839 1.4382 1.3445 1.6018 1.892 2.122 2.292 2.222 2.032 2.072 2.392
2305.129 2.802 3.162 3.402 3.662 3.722 3.752 3.842 3.972 3.952 3.912
2324.418 4.192 4.432 4.382 4.162 4.142 4.012 3.952 4.192 4.032 3.832
2343.708 3.882 3.812 3.492 3.372 3.882 4.402 4.722 5.122 5.552 5.812
2362.998 5.662 5.272 5.422 5.372 4.902 4.562 4.152 3.662 3.122 2.622
2382.288 2.052 1.5273 1.2176 1.111 1.0969 0.90204 0.632 0.537 0.467 0.653
2401.578 0.88252 0.7493 0.624 0.623 0.7 0.7813 0.582 0.378 0.576 0.83209
2420.867 0.664 0.516 0.742 0.88883 0.7858 0.696 0.571 0.624 0.674 0.608
2440.157 0.584 0.7228 0.83197 0.82879 1.0283 0.9659 0.7441 0.7629 0.965 1.0678
2459.447 0.89659 0.678 0.627 0.7774 0.84375 0.7315 0.7524 0.7835 1.0175 1.0571
2478.737 0.7814 0.766 0.655 0.7257 0.862 0.7271 0.83813 0.86411 0.83093 0.85063
2498.026 0.705 0.398 0.331 0.434 0.591 0.658 0.691 0.85821 0.9268 0.814436
2517.316 0.614 0.7333 0.601 0.622 0.820995 0.708 0.7387 0.704 0.643 0.572
2536.606 0.572 0.666 0.699 0.7794 0.7623 0.623 0.562 0.55 0.517 0.452
2555.896 0.431 0.624 0.7714 0.90717 0.7533 0.647 0.8884 0.723 0.605 0.563
2575.186 0.575 0.632 0.466 0.546 0.636 0.7823 0.7539 0.501 0.532 0.71
2594.475 0.734 0.702 0.83849 0.8545 0.7291 0.692 0.7959 0.85247 0.702 0.7541
2613.765 0.682 0.682 0.82944 0.7344 0.641 0.80436 0.86877 0.8336 0.84741 0.7915
2633.055 0.9157 0.91075 1.0071 0.8287 0.616 0.678 0.819989 0.9247 0.9898 1.2388
2652.345 1.1752 0.698 0.7884 1.2796 1.2724 1.2995 1.5857 1.5593 1.293 1.2486
2671.634 1.4416 1.4228 1.3584 1.5553 1.4136 1.3003 1.3805 1.1656 0.9421 0.9749
2690.924 0.9776 1.0785 1.2257 1.1603 1.0178 1.1037 1.2281 0.88122 0.52 0.644
2710.214 0.7123 0.497 0.523 0.562 0.503 0.58 0.465 0.677 1.3416 1.2142
2729.504 0.359 0.328 0.7846 0.789 0.7933 0.672 0.643 0.7473 0.89739 1.1585
2748.794 1.4249 1.942 1.738 0.9873 0.818352 0.7325 0.494 0.449 0.463 0.533
2768.083 0.466 0.7444 1.1214 1.5585 1.942 1.237 0.85273 1.1215 1.1398 1.1143
2787.373 1.2762 1.286 1.3676 1.3479 1.648 2.392 2.422 1.7743 1.3235 1.2932
2806.663 1.5132 1.557 1.5665 1.3886 1.2071 1.404 1.4821 1.932 1.7768 1.1425
2825.953 0.9931 0.7844 0.7852 0.49 0.327 0.83598 0.80463 0.785 1.364 1.4618
2845.242 1.0467 0.9624 0.7611 0.517 0.7683 0.9823 1.0142 0.819624 0.84104 1.1744
2864.532 1.3511 1.2533 1.1169 1.0045 0.7452 0.551 0.86351 1.0923 0.933 1.3047
2883.822 1.6882 1.7413 1.1965 0.7614 1.0393 0.90241 0.479 0.459 0.614 0.577
2903.112 0.705 0.83329 0.7717 0.677 0.635 0.618 0.514 0.243 0.578 0.90551
2922.401 0.86422 1.2979 1.3369 0.87938 0.7128 0.7879 0.454 0.353 0.442 0.352
2941.691 0.391 1.046 1.2591 0.7204 0.7995 1.0489 0.9463 0.596 0.63 1.1339
2960.981 1.832 2.192 1.6656 1.1008 0.7298 0.507 0.355 0.474 1.0126 1.3303
2980.271 1.3156 1.0929 0.820912 0.423 0.701 0.9614 0.7808 1.3537 1.942 1.972
2999.561 1.3654 0.84742 0.811805 0.67 0.607 0.812404 1.224 1.7272 1.6813 0.9569
3018.850 0.80993 1.2567 1.1254 0.87658 1.0024 1.1252 1.2135 1.1213 0.9251 0.673
3038.140 0.513 0.465 0.325 0.7215 0.9428 0.90373 1.4596 1.6091 1.3957 1.095
3057.430 0.9753 0.84516 0.612 0.7298 0.8512 0.86422 0.689 0.813132 1.0535 0.636
3076.720 0.331 0.7561 0.89323 0.561 0.7957 0.9155 0.9946 1.4296 1.2841 0.9926
3096.009 0.9754 0.86785 0.7189 0.7343 0.7873 0.90483 1.1026 1.0912 0.86668 0.85392
3115.299 1.0026 0.7998 0.793 0.8015 0.87305 1.1042 1.0288 0.9358 0.89915 1.2859
3134.589 1.455 1.5172 1.5933 1.4331 1.2822 1.0424 1.3792 1.5417 1.4284 1.982
3153.879 2.132 2.262 2.752 2.692 2.572 2.662 2.552 2.382 2.352 2.272
3173.169 2.352 2.522 2.462 1.7817 1.2702 1.4946 1.275 1.0535 1.0292 0.82469
3192.458 0.80515 0.63 0.7628 1.0183 1.0865 0.995 1.0317 1.0915 0.87042 0.995
3211.748 0.924 0.89543 0.9233 1.0955 1.575 1.4091 0.9478 1.011 0.9994 0.9157
3231.038 1.0619 0.573 0.245 0.7804 0.9516 0.591 0.596 0.56 0.543 0.9132
3250.328 0.694 0.287 0.363 0.498 0.328 0.578 0.7964 0.194 0.034 0.564
3269.617 0.9237 0.90277 0.438 0.477 0.7995 0.7133 0.648 0.80487 0.9273 0.80717
3288.907 0.7951 0.90693 0.90953 0.554 0.47 0.505 0 0.3 0.82896 0.9841
3308.197 1.4268 1.173 1.1585 0.9678 0.568 0.526 0.571 0.674 0.453 0.921
3327.487 1.0325 0.671 0.452 0.578 0.68 1.2035 1.3621 0.7175 0.90652 0.9209
3346.777 0.86214 0.7653 0.619 0.90392 1.0068 0.696 0.648 0.552 0.409 0.602
3366.066 0.67 0.535 0.655 1.0115 1.1479 0.9927 0.813062 0.818218 1.054 1.2059
3385.356 0.9406 0.7664 1.0614 0.9353 0.613 0.7697 1.0856 1.1028 0.7922 0.85277
3404.646 0.81027 0.9327 0.9477 0.527 0.349 0.87515 1.3197 1.1242 1.2517 1.4248
3423.936 1.4992 1.312 1.0753 0.97 0.813129 0.89073 1.2229 1.5465 1.4745 1.0853
3443.225 1.0951 1.016 0.9916 1.3379 1.5519 1.2402 1.1107 1.2563 0.82689 0.9905
3462.515 1.3782 1.514 1.2984 0.9386 1.5057 1.932 1.2962 0.7624 1.015 1.192
3481.805 1.321 1.5226 1.6663 1.842 1.64 1.6206 1.912 1.6187 1.2176 1.3993
3501.095 1.6085 1.902 1.952 1.666 1.922 2.702 2.962 2.382 2.132 2.502
3520.385 2.882 2.742 2.412 2.692 2.662 2.852 3.272 2.732 2.102 1.982
3539.674 2.432 2.252 1.7581 1.832 1.952 2.462 2.982 2.342 2.182 2.942
3558.964 3.152 3.072 3.002 2.912 2.812 2.892 3.132 3.182 2.602 2.562
3578.254 3.042 2.612 2.242 2.062 1.6286 1.7119 1.6915 1.902 2.042 1.3394
3597.544 1.0359 1.2032 1.5597 1.6656 1.4902 1.5587 1.872 1.862 1.3206 1.6165
3616.833 2.012 1.912 1.4216 1.1584 1.391 1.3452 1.5503 1.5438 1.4186 1.4222
3636.123 1.5552 1.5653 1.3176 1.1693 1.283 1.2781 1.2057 1.2562 1.2346 1.0472
3655.413 1.1599 1.271 1.1916 1.324 1.1642 0.9975 0.9596 0.89243 1.0675 1.2147
3674.703 0.9553 1.1961 1.4136 1.1978 1.3706 1.455 0.9495 0.656 0.368 0.681
3693.993 1.0872 0.586 0.7261 0.7644 0.7904 1.2881 1.508 1.2845 1.1095 1.0404
3713.282 1.0446 1.196 1.1587 0.9808 0.9378 1.3318 1.4028 1.3605 1.3001 1.3333
3732.572 1.6646 1.2718 0.9311 1.185 0.9184 0.9999 1.544 1.6147 1.1363 0.7249
3751.862 1.1656 1.4391 1.1524 0.9716 1.0716 1.334 1.5943 1.6059 1.2942 1.1191
3771.152 0.9244 1.1162 1.0677 0.855 0.816801 0.276 0.427 0.675 0.42 0.7981
3790.441 1.1394 1.073 1.0683 0.7213 0.7918 0.84121 0.455 0.514 0.576 0.329
3809.731 0.523 0.88852 1.0563 1.0152 0.7953 0.7618 0.88454 1.1574 0.9653 1.1041
3829.021 1.5533 1.085 0.8422 1.0029 0.9618 1.0928 1.0688 0.672 0.667 1.1925
3848.311 1.3202 1.0302 1.1813 0.9719 0.7124 0.972 0.626 0.7479 1.1805 1.165
3867.601 0.9818 1.0132 1.1698 1.1486 1.3613 1.1579 0.616 0.069 0.266 0.9763
3886.890 0.9492 0.607 0.549 0.625 0.85449 1.289 1.1256 0.9625 1.2936 1.3579
3906.180 1.4496 1.3204 0.9312 1.3593 1.2621 0.406 0.7404 1.1856 1.0631 1.068
3925.470 1.1936 1.0549 0.9755 0.9954 1.2333 1.3172 1.4536 1.7867 1.6244 1.3873
3944.760 1.5005 1.862 1.3969 0.9121 0.9141 1.0511 1.2161 1.0114 1.2962 1.3545
3964.049 0.89074 0.9508 1.2067 1.0433 0.9579 1.2494 1.2956 1.3604 1.4398 1.5604
3983.339 1.3099 0.83968 0.9831 1.0267 1.0992 0.967 1.0381 1.4367 1.0818 0.88244
##END=
