##TITLE=trans-1-Ethyl-4-methylcyclohexane
##JCAMP-DX=4.24
##DATA TYPE=INFRARED SPECTRUM
##ORIGIN=NIST Mass Spectrometry Data Center
##OWNER=NIST Standard Reference Data Program
Collection (C) 2018 copyright by the U.S. Secretary of Commerce
on behalf of the United States of America. All rights reserved.
##CAS REGISTRY NO=6236-88-0
##MOLFORM=C 9 H 18
##$NIST SOURCE=MSDC-IR
##SPECTROMETER/DATA SYSTEM=HP-GC/MS/IRD
##STATE=gas
##XUNITS=1/CM
##YUNITS=ABSORBANCE
##XFACTOR=1.0
##YFACTOR=0.000004000
##DELTAX=4.0
##FIRSTX=550.0
##LASTX=3846.0
##FIRSTY=0.000276
##MAXX=3846
##MINX=550
##MAXY=0.04
##MINY=0
##NPOINTS=825
##XYDATA=(X++(Y..Y))
550.0 69 53 24 25 31 5 10 31 34 36
590.0 34 39 35 40 59 55 42 40 41 33
630.0 45 58 51 48 37 35 42 41 46 46
670.0 46 41 41 41 31 40 39 33 43 45
710.0 51 48 32 25 41 52 49 41 42 54
750.0 60 67 69 63 60 71 83 81 82 86
790.0 80 71 57 43 42 42 37 40 47 49
830.0 47 49 56 63 65 63 53 50 58 74
870.0 93 110 119 126 133 126 123 127 119 114
910.0 119 111 104 93 81 84 74 73 80 96
950.0 123 165 200 216 217 208 180 144 128 126
990.0 126 121 113 109 111 113 109 108 107 100
1030.0 90 73 73 84 86 93 96 106 116 118
1070.0 116 102 87 80 78 77 86 99 103 103
1110.0 100 89 70 58 55 51 45 42 43 46
1150.0 47 53 58 59 65 61 61 60 50 47
1190.0 46 46 48 54 61 72 88 100 120 147
1230.0 165 166 155 137 110 96 96 98 98 99
1270.0 107 121 122 109 100 106 105 97 90 84
1310.0 81 80 81 82 88 97 104 112 123 131
1350.0 137 144 158 178 215 273 339 389 404 390
1390.0 340 270 203 159 136 124 127 133 153 195
1430.0 262 368 511 673 835 989 1074 1062 977 865
1470.0 736 589 450 328 240 179 140 113 94 81
1510.0 75 68 62 58 55 54 54 51 49 47
1550.0 44 44 45 45 45 50 48 41 41 45
1590.0 43 39 36 35 37 38 36 38 39 41
1630.0 41 41 39 38 39 36 36 41 42 43
1670.0 42 37 31 31 37 32 25 29 29 26
1710.0 28 27 23 21 20 20 21 19 14 17
1750.0 23 22 20 22 20 18 21 21 18 16
1790.0 14 17 19 19 15 15 16 12 10 15
1830.0 15 14 15 14 12 13 14 14 13 14
1870.0 15 16 17 18 18 17 16 19 16 15
1910.0 15 13 13 13 12 14 14 9 8 9
1950.0 9 11 15 13 11 11 13 13 9 9
1990.0 10 10 7 6 5 5 8 5 3 5
2030.0 7 13 13 12 12 12 6 2 5 9
2070.0 8 2 3 8 7 7 3 2 2 4
2110.0 2 5 9 5 0 0 1 1 0 3
2150.0 3 4 7 9 8 6 7 6 8 9
2190.0 11 13 10 9 8 10 8 8 9 10
2230.0 10 7 7 8 10 9 8 13 16 11
2270.0 6 10 11 10 10 10 6 2 2 7
2310.0 11 9 10 9 13 14 8 12 15 15
2350.0 18 20 19 17 18 21 15 13 17 18
2390.0 18 19 21 25 29 29 27 28 29 27
2430.0 26 25 23 24 30 27 25 28 24 20
2470.0 22 25 25 24 21 20 20 21 23 23
2510.0 26 31 35 37 38 35 37 37 40 44
2550.0 44 42 44 47 47 49 51 52 57 61
2590.0 67 72 73 76 82 87 94 101 105 106
2630.0 104 102 105 111 119 125 121 118 121 127
2670.0 124 119 121 127 127 126 127 126 122 120
2710.0 117 123 133 136 144 153 158 161 165 165
2750.0 166 167 167 170 169 173 184 194 203 220
2790.0 239 262 280 303 330 358 392 441 508 606
2830.0 764 1020 1416 1977 2608 3146 3581 3861 3875 3774
2870.0 3688 3558 3444 3385 3360 3397 3603 4030 4669 5550
2910.0 6669 8045 9367 10000 9905 9384 8462 7202 6005 5171
2950.0 4745 4739 4778 4664 4475 3954 3227 2493 1785 1214
2990.0 847 629 480 396 340 296 269 245 230 221
3030.0 210 203 199 193 182 178 181 182 181 171
3070.0 165 164 160 150 146 146 135 127 127 127
3110.0 126 124 117 113 116 118 121 127 130 132
3150.0 129 131 132 125 117 107 99 90 82 71
3190.0 61 55 44 44 44 42 42 36 33 40
3230.0 37 32 40 42 40 39 34 42 48 44
3270.0 37 32 31 29 30 32 30 30 37 40
3310.0 32 32 38 40 41 32 27 33 35 33
3350.0 36 39 31 32 37 31 27 33 38 35
3390.0 28 24 22 23 23 20 16 13 12 14
3430.0 16 18 18 21 19 13 18 25 23 23
3470.0 19 14 13 15 17 18 20 24 24 22
3510.0 23 18 19 19 13 14 14 11 7 1
3550.0 4 8 15 11 9 6 7 13 14 15
3590.0 17 12 10 11 9 8 10 16 23 25
3630.0 27 29 30 24 10 10 19 17 22 24
3670.0 20 23 28 28 28 21 16 20 24 26
3710.0 32 25 22 26 28 31 26 27 30 26
3750.0 26 33 28 27 27 27 27 21 21 27
3790.0 35 31 24 29 32 30 33 36 36 38
3830.0 40 35 30 35 39
##END=
