##TITLE=Diethyl azelate
##JCAMP-DX=4.24
##DATA TYPE=INFRARED SPECTRUM
##ORIGIN=EPA-IR VAPOR PHASE LIBRARY
##OWNER=SRD/NIST
Collection (C) 2018 copyright by the U.S. Secretary of Commerce
on behalf of the United States of America. All rights reserved.
##CAS REGISTRY NO=624-17-9
##MOLFORM=C 13 H 24 O 4
##$NIST SOURCE=MSDC-IR
##STATE=gas
##XUNITS=1/CM
##YUNITS=ABSORBANCE
##XFACTOR=1.
##YFACTOR=0.001
##DELTAX=1.92934
##FIRSTX=549.9
##LASTX=3999.5
##FIRSTY=2.0512
##MAXX=3999.53
##MINX=549.863
##MAXY=0.26889
##MINY=0
##NPOINTS=1789
##XYDATA=(X++(Y..Y))
549.863 2.0512 2.1446 2.0207 1.98384 2.0172 2.1066 2.106 2.2002 2.3003 2.4159
569.156 2.432 2.2878 2.2949 2.4163 2.55 2.6891 2.7966 2.749 2.7492 2.8936
588.450 2.98 2.97 3.11 3.33 3.42 3.48 3.46 3.41 3.48 3.44
607.743 3.24 3.26 3.24 3.21 3.23 3.16 3.05 3.07 3.2 3.12
627.037 3.01 3.08 3.1 3.05 3.14 3.16 3.2 3.21 3.09 3.04
646.330 2.98 2.8754 2.8041 2.785 2.6992 2.5315 2.3918 2.352 2.3882 2.2704
665.624 2.2073 2.2735 2.2401 2.2509 2.2375 2.2376 2.177 2.1546 2.2813 2.3734
684.917 2.4437 2.5276 2.6112 2.5696 2.6302 2.8524 3.02 3.06 3.11 3.28
704.210 3.46 3.51 3.63 3.88 4.08 4.23 4.42 4.62 4.8 4.93
723.504 5.07 5.21 5.33 5.37 5.33 5.29 5.21 5.14 5.03 4.89
742.797 4.81 4.8 4.75 4.64 4.63 4.71 4.76 4.85 4.97 5.04
762.091 5.15 5.31 5.4 5.59 5.8 5.91 6.03 6.15 6.26 6.33
781.384 6.36 6.42 6.45 6.46 6.48 6.48 6.49 6.4 6.3 6.29
800.678 6.24 6.16 6.1 6.07 6.02 5.92 5.87 5.81 5.79 5.83
819.971 5.89 5.95 5.99 6.09 6.22 6.3 6.47 6.73 7.02 7.24
839.264 7.54 7.93 8.21 8.52 8.8 8.99 9.23 9.38 9.43 9.44
858.558 9.27 9.07 8.79 8.41 8.11 7.82 7.55 7.29 7.04 6.83
877.851 6.68 6.51 6.36 6.31 6.26 6.19 6.17 6.21 6.24 6.44
897.145 6.67 6.81 7.05 7.31 7.52 7.81 8.16 8.5 8.81 9.18
916.438 9.52 9.75 9.97 10.13 10.16 10.14 10.05 9.99 9.86 9.57
935.732 9.34 9.11 8.84 8.54 8.16 7.86 7.56 7.23 7 6.81
955.025 6.61 6.42 6.25 6.15 6.07 5.99 5.97 5.97 5.99 6.04
974.318 6.12 6.22 6.38 6.55 6.69 6.92 7.27 7.65 8.01 8.45
993.612 9.03 9.69 10.44 11.32 12.35 13.59 15.04 16.68 18.53 20.61
1012.905 23.05 25.76 28.7 31.89 35.29 38.87 42.57 46.47 50.44 54.26
1032.199 57.86 60.95 63.19 64.3 64.14 62.77 60.42 57.55 54.51 51.59
1051.492 49.06 46.96 45.31 44 43.09 42.5 42.28 42.45 42.88 43.62
1070.786 44.59 45.72 46.99 48.49 50.07 51.66 53.28 54.8 56.42 58.1
1090.079 59.79 61.65 63.4 64.88 65.99 66.36 65.91 64.77 63.26 61.71
1109.372 60.31 59.26 58.92 59.11 59.79 61.14 63.19 65.91 69.27 73.39
1128.666 78.07 83.38 89.01 94.73 100.77 107.09 113.55 119.96 126.31 132.66
1147.959 139.17 145.76 152.11 158.04 163.52 168.67 173.29 177.4 180.83 183.4
1167.253 185.13 185.96 185.96 185.25 183.81 181.74 179.19 176.01 172.13 167.78
1186.546 163.16 158.46 153.96 149.57 145.15 140.76 136.59 132.9 129.8 127
1205.840 124.72 122.41 120.34 119.12 117.82 116.64 115.77 115.57 115.72 115.73
1225.133 116.02 116.42 116.91 117.65 118.26 118.7 119.01 118.9 118.34 117.49
1244.426 115.88 113.49 110.45 106.79 102.59 97.94 93.13 88.49 84.13 79.85
1263.720 75.63 71.84 68.44 65.35 62.67 60.27 58.16 56.38 54.96 53.75
1283.013 52.65 51.75 50.9 50.2 49.69 49.29 49.22 49.32 49.43 49.61
1302.307 49.77 49.8 49.71 49.44 48.97 48.33 47.5 46.63 45.69 44.63
1321.600 43.61 42.65 41.82 41.14 40.64 40.41 40.43 40.78 41.33 41.93
1340.894 42.57 43.15 43.49 43.5 43.16 42.42 41.4 40.25 39.2 38.54
1360.187 38.55 39.52 41.67 44.84 48.59 52 53.97 53.89 51.68 47.98
1379.480 43.54 38.95 34.65 31.1 28.23 25.87 24.1 22.79 21.71 20.73
1398.774 19.83 18.98 18.23 17.64 17.23 16.96 16.85 16.87 17.13 17.62
1418.067 18.31 19.08 19.9 20.97 22.02 22.96 23.86 24.56 25 25.32
1437.361 25.51 25.56 25.78 26.14 26.61 27.26 28 28.81 29.69 30.68
1456.654 31.74 32.35 32.52 32.37 31.83 30.97 29.81 28.39 26.6 24.38
1475.948 22.16 20 18.06 16.32 14.73 13.4 12.23 11.2 10.28 9.47
1495.241 8.8 8.2 7.63 7.12 6.67 6.44 6.24 5.85 5.53 5.28
1514.534 5.05 4.93 4.79 4.69 4.61 4.42 4.31 4.18 4.04 4.04
1533.828 4.07 3.97 3.95 3.99 3.91 3.85 3.77 3.62 3.58 3.55
1553.121 3.5 3.51 3.56 3.65 3.52 3.35 3.34 3.34 3.33 3.28
1572.415 3.24 3.27 3.25 3.19 3.13 3.11 3.11 3.11 3.09 3.04
1591.708 3.02 3.02 3.02 3 2.97 3.01 3.07 3.04 3.01 3.02
1611.002 3.05 3.12 3.16 3.21 3.16 3.1 3.16 3.15 3.17 3.23
1630.295 3.26 3.31 3.4 3.48 3.48 3.48 3.52 3.6 3.77 3.83
1649.588 3.85 4.05 4.24 4.22 4.26 4.35 4.54 4.74 4.87 5.04
1668.882 5.29 5.51 5.79 6.17 6.44 6.7 7.1 7.61 8.2 8.7
1688.175 9.19 9.81 10.55 11.5 12.63 13.69 14.95 16.32 17.69 19.38
1707.469 21.22 23.31 25.57 28.06 30.95 34.4 38.34 42.71 48.1 54.53
1726.762 62.1 71.13 81.68 93.82 108.45 124.32 141.51 161.23 181.93 203.66
1746.056 225.05 244.78 260.2 268.89 268.57 258.88 241.33 220.11 197.14 174.13
1765.349 152.38 131.78 112.65 95.92 80.78 68.12 57.68 49 41.82 35.92
1784.642 31.15 27.19 23.94 21.26 18.98 16.98 15.28 13.86 12.68 11.59
1803.936 10.58 9.76 9.1 8.48 7.89 7.35 6.92 6.53 6.17 5.88
1823.229 5.66 5.44 5.18 4.95 4.72 4.49 4.36 4.24 4.07 3.95
1842.523 3.88 3.74 3.63 3.58 3.49 3.4 3.37 3.32 3.25 3.21
1861.816 3.18 3.18 3.16 3.16 3.2 3.15 3.12 3.15 3.19 3.2
1881.110 3.16 3.15 3.15 3.15 3.14 3.11 3.07 3.05 3.03 2.99
1900.403 2.94 2.93 2.9015 2.8492 2.8025 2.804 2.7602 2.7405 2.7741 2.7818
1919.696 2.7772 2.7248 2.6576 2.6503 2.6883 2.7127 2.6866 2.7191 2.7245 2.6928
1938.990 2.6837 2.6761 2.7052 2.7134 2.7001 2.6473 2.5958 2.598 2.5975 2.5793
1958.283 2.5768 2.5355 2.5064 2.5236 2.5423 2.5137 2.4768 2.4818 2.4881 2.4503
1977.577 2.3938 2.337 2.3565 2.4069 2.4341 2.4542 2.4434 2.4488 2.4796 2.4867
1996.870 2.4791 2.5047 2.5094 2.5056 2.5103 2.5242 2.5283 2.5044 2.5065 2.5269
2016.164 2.5636 2.5632 2.5541 2.5593 2.5521 2.5582 2.554 2.5278 2.4926 2.4387
2035.457 2.4118 2.4528 2.4362 2.3902 2.3778 2.3562 2.3233 2.2961 2.277 2.2629
2054.750 2.2295 2.2224 2.2085 2.1602 2.161 2.1155 2.0507 2.0557 2.0829 2.0867
2074.044 2.0594 2.028 2.0265 2.0236 2.00694 1.98425 1.97941 1.94143 1.90532 1.90338
2093.337 1.8588 1.8258 1.784 1.764 1.729 1.672 1.621 1.586 1.559 1.515
2112.631 1.491 1.452 1.438 1.415 1.398 1.419 1.383 1.347 1.345 1.35
2131.924 1.34 1.306 1.297 1.293 1.257 1.211 1.212 1.212 1.193 1.188
2151.218 1.2 1.222 1.212 1.164 1.122 1.125 1.154 1.12 1.097 1.112
2170.511 1.084 1.077 1.066 1.042 1.042 1.039 1.058 1.059 1.052 1.036
2189.804 1.008 1.002 1.004 0.987 1.007 1.069 1.049 1.008 0.997 1.044
2209.098 1.05 1.014 1.071 1.113 1.121 1.12 1.1 1.105 1.129 1.104
2228.391 1.105 1.123 1.148 1.148 1.102 1.092 1.081 1.117 1.112 1.04
2247.685 1.064 1.086 1.076 1.081 1.086 1.108 1.098 1.081 1.1 1.112
2266.978 1.106 1.096 1.082 1.087 1.098 1.128 1.163 1.166 1.188 1.199
2286.272 1.173 1.151 1.165 1.166 1.157 1.193 1.228 1.246 1.267 1.311
2305.565 1.317 1.29 1.293 1.319 1.307 1.314 1.347 1.337 1.356 1.338
2324.858 1.34 1.367 1.355 1.326 1.342 1.387 1.353 1.305 1.32 1.286
2344.152 1.253 1.259 1.268 1.253 1.212 1.24 1.266 1.232 1.187 1.199
2363.445 1.229 1.211 1.208 1.203 1.167 1.143 1.12 1.142 1.143 1.172
2382.739 1.183 1.099 1.097 1.096 1.069 1.067 1.065 1.021 0.981 0.979
2402.032 0.989 1.001 0.985 0.977 0.997 1.011 1.006 0.986 0.999 1.022
2421.326 0.998 0.967 0.958 0.961 0.969 0.956 0.9 0.87 0.85 0.87
2440.619 0.88 0.89 0.9 0.86 0.83 0.83 0.84 0.8 0.79 0.81
2459.912 0.8 0.78 0.79 0.81 0.82 0.76 0.72 0.74 0.76 0.78
2479.206 0.75 0.72 0.71 0.68 0.66 0.65 0.64 0.63 0.66 0.68
2498.499 0.64 0.63 0.64 0.66 0.66 0.61 0.57 0.61 0.62 0.59
2517.793 0.62 0.67 0.64 0.58 0.62 0.66 0.65 0.62 0.63 0.65
2537.086 0.65 0.64 0.63 0.64 0.65 0.62 0.64 0.64 0.62 0.6
2556.380 0.56 0.57 0.62 0.58 0.56 0.59 0.56 0.53 0.56 0.58
2575.673 0.57 0.57 0.6 0.58 0.56 0.61 0.66 0.65 0.64 0.67
2594.966 0.69 0.68 0.65 0.67 0.75 0.78 0.79 0.81 0.78 0.74
2614.260 0.78 0.84 0.87 0.88 0.82 0.83 0.81 0.74 0.77 0.83
2633.553 0.86 0.88 0.84 0.86 0.89 0.89 0.945 1.005 0.991 0.943
2652.847 1.01 1.055 1.11 1.155 1.133 1.131 1.151 1.231 1.261 1.267
2672.140 1.313 1.339 1.345 1.368 1.378 1.344 1.307 1.293 1.311 1.342
2691.434 1.423 1.482 1.413 1.379 1.395 1.334 1.302 1.327 1.344 1.329
2710.727 1.289 1.271 1.257 1.266 1.351 1.356 1.357 1.416 1.386 1.342
2730.020 1.368 1.477 1.531 1.527 1.569 1.502 1.495 1.624 1.663 1.664
2749.314 1.682 1.753 1.8435 1.8441 1.8569 1.97346 1.99087 2.0242 2.0724 2.1553
2768.607 2.2997 2.3897 2.4037 2.4093 2.5144 2.6455 2.7 2.7068 2.7376 2.8283
2787.901 2.94 3.01 3.05 3.1 3.22 3.41 3.58 3.75 3.92 4.04
2807.194 4.17 4.35 4.54 4.83 5.14 5.41 5.67 6.04 6.4 6.68
2826.488 7.09 7.57 7.97 8.41 8.97 9.49 10.15 10.98 11.88 13.02
2845.781 14.43 16.18 18.45 21.23 24.65 28.59 32.76 37.06 41.14 44.59
2865.074 47.07 48.42 48.67 47.91 46.52 44.83 42.96 40.97 39.1 37.52
2884.368 36.16 35.07 34.19 33.64 33.51 33.72 34.41 35.67 37.39 39.58
2903.661 42.41 45.79 49.54 53.77 58.34 63 67.94 73.05 78.29 83.82
2922.955 89.56 95.79 102.44 109.25 116.15 122.9 129.19 134.64 138.91 141.58
2942.248 142.09 140.33 136.39 130.46 123.18 115.13 107.09 99.72 93.32 88.08
2961.542 83.93 80.66 78.38 76.79 75.79 75.58 76 77.18 79.1 81.56
2980.835 84.13 85.86 85.83 83.62 79.28 73.39 66.98 60.98 55.65 50.84
3000.128 46.45 42.63 39.12 35.75 32.65 29.68 26.9 24.38 22.02 19.89
3019.422 18.01 16.17 14.54 13.27 12.16 11.06 10.03 9.2 8.47 7.87
3038.715 7.22 6.67 6.24 5.82 5.42 5.01 4.72 4.53 4.28 3.96
3058.009 3.73 3.49 3.36 3.2 2.8891 2.7307 2.6666 2.4741 2.4787 2.511
3077.302 2.442 2.2798 2.1508 2.2272 2.1474 1.99773 1.96118 1.94357 1.8979 1.8415
3096.596 1.792 1.768 1.662 1.643 1.735 1.668 1.568 1.642 1.621 1.478
3115.889 1.509 1.503 1.527 1.492 1.411 1.306 1.311 1.36 1.243 1.236
3135.182 1.089 0.9 0.983 0.971 0.88 0.912 0.9 1.002 0.975 0.84
3154.476 0.83 0.9 0.86 0.68 0.7 0.81 0.89 0.82 0.74 0.83
3173.769 0.87 0.79 0.65 0.64 0.61 0.56 0.63 0.74 0.72 0.66
3193.063 0.62 0.63 0.6 0.44 0.51 0.45 0.28 0.39 0.49 0.37
3212.356 0.32 0.37 0.35 0.33 0.33 0.35 0.3 0.21 0.17 0.17
3231.650 0.16 0.14 0.21 0.31 0.22 0.09 0.07 0.11 0.06 0.06
3250.943 0.08 0.13 0.18 0.13 0.13 0.07 0.05 0.09 0.11 0.08
3270.236 0.12 0.12 0 0.04 0.06 0.02 0.03 0.07 0.11 0.07
3289.530 0.18 0.19 0.08 0.1 0.14 0.12 0.16 0.29 0.35 0.25
3308.823 0.15 0.2 0.18 0.15 0.17 0.19 0.29 0.37 0.37 0.26
3328.117 0.32 0.32 0.16 0.25 0.37 0.32 0.29 0.44 0.4 0.18
3347.410 0.22 0.33 0.4 0.47 0.45 0.35 0.27 0.32 0.43 0.43
3366.704 0.38 0.4 0.4 0.44 0.61 0.66 0.48 0.4 0.38 0.45
3385.997 0.55 0.55 0.6 0.64 0.58 0.54 0.71 0.69 0.51 0.51
3405.290 0.59 0.68 0.71 0.68 0.75 0.83 0.956 0.84 0.65 0.74
3424.584 0.72 0.73 0.81 0.73 0.77 0.83 0.67 0.63 0.79 0.937
3443.877 1.033 0.981 1.013 1.154 1.193 1.301 1.424 1.459 1.513 1.629
3463.171 1.717 1.847 1.96386 2.1885 2.4538 2.5201 2.6431 2.8111 2.94 3.08
3482.464 3.09 3.1 3.21 3.25 3.15 3.07 3.1 2.8579 2.5289 2.3032
3501.758 2.0363 1.8249 1.723 1.693 1.647 1.456 1.285 1.242 1.184 1.143
3521.051 1.118 0.966 0.916 1.047 1.086 0.996 0.89 0.924 0.89 0.78
3540.344 0.74 0.67 0.72 0.73 0.72 0.78 0.76 0.74 0.71 0.75
3559.638 0.7 0.6 0.7 0.84 0.938 0.91 0.76 0.82 0.86 0.79
3578.931 0.81 0.86 0.9 0.967 1.079 1.062 0.921 0.76 0.89 0.958
3598.225 0.9 0.96 0.89 0.916 0.986 0.978 0.947 0.91 0.9 0.86
3617.518 0.89 0.89 0.81 0.78 0.84 0.935 0.96 0.85 0.81 0.78
3636.812 0.82 0.85 0.79 0.87 0.917 0.967 1.003 0.9 0.76 0.73
3656.105 0.86 0.87 0.83 0.85 0.88 0.928 0.98 1.006 0.959 0.987
3675.398 1.054 1.04 0.96 0.78 0.69 0.7 0.71 0.84 0.95 0.922
3694.692 0.9 0.84 0.85 1.019 0.988 0.9 0.87 0.83 0.87 0.83
3713.985 0.79 0.88 0.934 0.83 0.78 0.79 0.77 0.81 0.9 0.918
3733.279 0.91 0.965 0.969 0.9 0.9 1.068 1.074 0.983 1.089 1.155
3752.572 1.109 1.005 0.95 1.003 1.048 1.054 1.029 1.075 1.064 1.003
3771.866 1.011 0.976 0.969 1.005 1.035 0.999 0.942 0.931 0.945 0.979
3791.159 1.009 1.018 1.037 1.006 1.002 1.049 1.015 0.945 1.037 1.065
3810.452 0.948 0.928 1.058 1.14 1.006 1.031 1.09 1.053 1.005 0.999
3829.746 0.956 0.942 1.058 1.173 1.202 1.111 0.982 0.943 0.943 0.926
3849.039 0.918 1.005 1.181 1.182 1.076 1.047 1.108 1.156 1.094 1.01
3868.333 1.079 1.159 1.104 0.991 0.925 0.914 0.9 0.944 0.984 1.025
3887.626 0.995 0.947 0.974 0.932 0.81 0.88 1.015 0.936 0.947 0.975
3906.920 0.82 0.79 0.86 0.88 0.86 0.86 0.91 0.943 0.933 0.88
3926.213 0.89 0.967 1.046 0.946 0.89 1.023 1.061 1.001 0.917 0.936
3945.506 1.06 1.055 0.981 0.992 0.998 0.994 1.028 1.079 1.082 1.056
3964.800 1.014 0.924 0.91 0.995 1.055 1.002 0.952 1.003 1.1 1.101
3984.093 1.013 1.042 1.159 1.134 1.101 1.129 1.164 1.187 1.218
##END=
