##TITLE=3-Nonanol
##JCAMP-DX=4.24
##DATA TYPE=INFRARED SPECTRUM
##ORIGIN=NIST Mass Spectrometry Data Center
##OWNER=NIST Standard Reference Data Program
Collection (C) 2018 copyright by the U.S. Secretary of Commerce
on behalf of the United States of America. All rights reserved.
##CAS REGISTRY NO=624-51-1
##MOLFORM=C 9 H 20 O
##$NIST SOURCE=MSDC-IR
##SPECTROMETER/DATA SYSTEM=HP-GC/MS/IRD
##STATE=gas
##XUNITS=1/CM
##YUNITS=ABSORBANCE
##XFACTOR=1.0
##YFACTOR=0.000003800
##DELTAX=4.0
##FIRSTX=550.0
##LASTX=3846.0
##FIRSTY=0.000217
##MAXX=3846
##MINX=550
##MAXY=0.038
##MINY=0
##NPOINTS=825
##XYDATA=(X++(Y..Y))
550.0 57 58 42 48 58 54 84 84 73 69
590.0 50 38 33 25 14 1 21 47 34 30
630.0 45 40 36 42 28 25 25 24 20 23
670.0 29 20 21 35 28 17 26 36 55 90
710.0 113 110 120 134 132 126 110 102 112 112
750.0 101 94 89 92 102 116 119 114 115 110
790.0 106 110 94 80 62 61 82 67 22 44
830.0 101 120 139 155 166 176 183 198 205 211
870.0 219 218 233 253 265 272 275 271 268 284
910.0 302 314 333 352 382 425 475 530 587 652
950.0 732 826 922 1008 1059 1072 1054 1004 950 902
990.0 869 849 834 823 818 804 784 762 752 737
1030.0 718 701 686 666 659 657 661 661 644 629
1070.0 624 625 630 643 672 698 711 730 748 756
1110.0 757 757 752 757 772 760 718 659 593 523
1150.0 455 409 385 365 355 359 365 378 388 406
1190.0 424 435 459 491 519 545 577 601 616 634
1230.0 641 639 630 609 587 569 552 542 530 514
1270.0 504 500 493 482 480 478 473 471 468 458
1310.0 447 436 419 412 421 429 446 478 511 551
1350.0 592 631 687 733 773 814 858 892 913 907
1390.0 858 769 667 575 503 445 403 374 374 399
1430.0 431 485 563 652 750 871 987 1076 1120 1098
1470.0 1000 852 688 533 407 318 258 216 181 154
1510.0 145 134 111 99 98 88 75 61 58 66
1550.0 68 63 51 50 52 47 42 42 43 38
1590.0 41 39 40 40 34 33 29 23 23 21
1630.0 24 22 25 27 21 11 5 17 23 21
1670.0 16 18 22 15 15 17 8 1 5 9
1710.0 9 8 7 12 13 12 9 3 6 15
1750.0 15 11 12 11 14 15 10 10 13 17
1790.0 13 2 5 11 7 8 12 10 11 13
1830.0 12 12 12 8 7 10 11 11 8 7
1870.0 10 5 2 4 6 8 5 9 13 11
1910.0 11 11 6 6 5 6 6 5 6 7
1950.0 7 5 3 3 6 8 6 10 12 8
1990.0 4 1 3 5 6 7 8 8 10 12
2030.0 12 11 8 7 10 10 6 4 7 8
2070.0 11 11 7 4 7 7 5 7 5 2
2110.0 5 8 3 4 8 5 7 9 8 8
2150.0 13 12 7 7 11 10 8 10 11 4
2190.0 1 5 7 1 3 5 10 11 12 13
2230.0 10 15 13 7 10 15 14 17 15 13
2270.0 15 17 18 14 14 17 18 18 15 16
2310.0 20 16 15 16 17 17 18 19 16 20
2350.0 24 20 17 15 15 21 25 24 24 25
2390.0 26 25 28 30 27 25 24 23 26 25
2430.0 21 20 22 17 23 27 25 27 22 22
2470.0 21 22 23 21 23 16 14 20 21 21
2510.0 22 25 28 31 36 31 30 33 36 40
2550.0 42 41 39 43 46 54 60 61 67 69
2590.0 68 68 71 73 76 84 86 87 87 84
2630.0 91 97 101 101 107 117 119 124 131 135
2670.0 136 141 150 151 150 148 148 147 150 155
2710.0 150 152 159 159 174 184 189 195 204 212
2750.0 210 209 216 223 226 237 248 260 279 294
2790.0 310 336 363 390 422 461 504 558 627 708
2830.0 812 948 1137 1397 1742 2183 2692 3216 3671 3969
2870.0 4099 4123 4093 4014 3882 3712 3569 3558 3736 4098
2910.0 4653 5401 6344 7439 8553 9480 10000 9955 9357 8399
2950.0 7352 6516 6113 6124 6270 6176 5632 4686 3619 2704
2990.0 2040 1590 1266 1032 862 739 652 582 522 461
3030.0 419 388 356 327 296 272 256 241 236 233
3070.0 220 206 202 197 188 177 167 156 155 149
3110.0 139 141 126 120 115 104 100 99 97 92
3150.0 86 79 80 82 82 80 72 69 67 64
3190.0 57 47 47 39 36 43 34 26 28 20
3230.0 13 17 18 16 16 22 23 12 4 9
3270.0 15 18 15 14 15 12 8 10 5 8
3310.0 11 12 17 14 15 18 18 12 14 18
3350.0 16 13 11 11 8 5 7 9 14 14
3390.0 19 29 28 22 16 27 28 20 22 26
3430.0 17 15 24 28 28 29 30 27 28 34
3470.0 39 27 23 24 14 11 20 20 18 16
3510.0 11 9 16 17 6 5 10 7 9 9
3550.0 10 13 15 15 19 12 0 3 15 28
3590.0 36 30 19 26 39 50 68 88 100 124
3630.0 162 186 223 279 332 392 426 427 387 315
3670.0 236 169 121 99 74 58 45 38 39 31
3710.0 22 21 23 25 21 5 6 13 8 6
3750.0 14 16 10 11 17 18 13 15 23 23
3790.0 23 33 28 10 8 25 22 9 12 19
3830.0 19 14 18 24 26
##END=
