##TITLE=cis-1,4-Dimethylcyclohexane
##JCAMP-DX=4.24
##DATA TYPE=INFRARED SPECTRUM
##ORIGIN=NIST Mass Spectrometry Data Center
##OWNER=NIST Standard Reference Data Program
Collection (C) 2018 copyright by the U.S. Secretary of Commerce
on behalf of the United States of America. All rights reserved.
##CAS REGISTRY NO=624-29-3
##MOLFORM=C 8 H 16
##$NIST SOURCE=MSDC-IR
##SPECTROMETER/DATA SYSTEM=HP-GC/MS/IRD
##STATE=gas
##XUNITS=1/CM
##YUNITS=ABSORBANCE
##XFACTOR=1.0
##YFACTOR=0.000007400
##DELTAX=4.0
##FIRSTX=550.0
##LASTX=3846.0
##FIRSTY=0.000651
##MAXX=3846
##MINX=550
##MAXY=0.074
##MINY=0
##NPOINTS=825
##XYDATA=(X++(Y..Y))
550.0 88 50 15 23 30 27 32 38 32 27
590.0 32 32 19 15 24 24 32 41 46 57
630.0 64 77 81 75 69 47 22 13 14 10
670.0 8 18 21 15 7 9 18 15 11 11
710.0 8 7 10 17 9 0 7 13 13 17
750.0 25 38 39 33 23 16 14 9 9 9
790.0 8 8 6 2 8 13 13 12 17 13
830.0 7 10 12 14 18 20 21 22 22 20
870.0 20 17 12 10 11 10 11 15 20 23
910.0 29 39 51 57 56 57 58 60 59 56
950.0 58 54 48 46 45 50 58 66 75 86
990.0 101 117 124 120 113 106 92 73 53 37
1030.0 30 27 25 25 25 32 35 38 44 49
1070.0 62 75 89 106 118 125 128 125 110 93
1110.0 79 64 52 46 44 43 43 45 46 50
1150.0 56 74 94 110 118 117 112 102 87 65
1190.0 51 44 35 32 32 27 32 38 41 47
1230.0 52 55 58 60 65 68 71 72 72 71
1270.0 70 71 73 80 92 105 118 123 123 118
1310.0 107 91 78 74 76 79 77 76 99 125
1350.0 152 196 250 313 404 490 548 611 629 545
1390.0 457 368 268 200 153 129 120 117 146 197
1430.0 260 341 456 606 740 845 914 950 948 893
1470.0 783 623 494 383 275 187 134 99 74 40
1510.0 22 31 25 21 29 29 24 21 15 18
1550.0 24 21 15 30 40 38 38 41 45 42
1590.0 44 44 42 44 42 40 35 34 34 33
1630.0 36 30 29 31 26 18 19 30 31 24
1670.0 22 23 19 11 13 21 17 8 12 18
1710.0 18 10 8 16 19 9 0 11 14 9
1750.0 5 9 12 14 13 9 15 18 13 12
1790.0 10 11 12 10 17 19 18 17 16 13
1830.0 16 20 21 15 13 19 21 21 20 17
1870.0 17 23 23 22 24 21 20 21 20 21
1910.0 19 17 14 16 18 18 20 19 17 20
1950.0 20 19 19 18 17 17 16 15 14 14
1990.0 12 15 16 15 16 18 15 16 18 15
2030.0 13 12 12 14 15 16 17 17 16 14
2070.0 16 19 20 20 19 21 23 23 22 21
2110.0 19 20 20 20 19 18 18 18 17 17
2150.0 18 19 17 17 20 21 17 15 16 15
2190.0 16 15 14 14 12 12 13 13 12 14
2230.0 16 15 13 15 16 15 13 13 15 15
2270.0 14 12 13 15 14 14 13 13 11 9
2310.0 6 1 0 0 0 0 0 2 3 3
2350.0 2 0 0 0 0 0 0 4 9 15
2390.0 18 19 19 21 20 19 19 20 21 23
2430.0 25 25 23 24 21 24 29 26 26 25
2470.0 23 21 19 20 21 21 23 24 24 25
2510.0 26 26 25 29 31 30 32 32 32 35
2550.0 36 35 33 34 34 32 34 37 41 48
2590.0 54 60 68 76 82 85 88 93 96 99
2630.0 103 108 110 113 117 119 121 124 125 127
2670.0 130 129 125 123 120 119 117 115 112 108
2710.0 105 105 110 114 116 119 120 122 122 120
2750.0 122 126 128 128 132 137 143 150 158 166
2790.0 177 188 204 217 232 252 276 308 349 405
2830.0 488 622 836 1147 1559 2037 2518 2906 3147 3336
2870.0 3371 3259 3164 3123 3199 3366 3656 4137 4767 5615
2910.0 6695 7842 8892 9957 10000 9182 8412 7321 6229 5449
2950.0 4990 4916 4773 4432 4077 3530 2823 2089 1473 978
2990.0 639 441 330 267 225 198 179 167 157 148
3030.0 140 136 137 137 137 141 143 143 143 141
3070.0 140 140 142 140 129 123 119 116 111 106
3110.0 101 98 96 97 103 104 101 101 102 97
3150.0 89 81 76 70 64 58 53 49 46 40
3190.0 34 27 25 27 27 23 20 17 15 12
3230.0 11 12 13 12 11 14 18 25 29 30
3270.0 34 36 37 36 36 33 29 26 24 23
3310.0 23 24 20 21 22 26 31 31 37 35
3350.0 27 26 25 25 24 22 23 23 22 20
3390.0 19 23 23 16 16 12 10 12 11 11
3430.0 15 11 6 7 12 12 12 10 7 9
3470.0 14 16 13 11 11 12 12 7 1 1
3510.0 5 9 10 4 0 11 18 19 17 8
3550.0 12 18 14 10 3 7 17 19 19 8
3590.0 9 14 15 16 9 3 7 10 15 7
3630.0 0 19 27 26 18 13 20 29 32 24
3670.0 16 15 22 24 21 24 30 27 27 30
3710.0 20 16 26 22 16 15 5 9 8 9
3750.0 21 24 23 27 35 34 40 41 41 45
3790.0 44 41 41 39 36 39 42 39 36 38
3830.0 42 42 43 43 40
##END=
