##TITLE=Dimethyl fumarate
##JCAMP-DX=4.24
##DATA TYPE=INFRARED SPECTRUM
##ORIGIN=EPA-IR VAPOR PHASE LIBRARY
##OWNER=SRD/NIST
Collection (C) 2018 copyright by the U.S. Secretary of Commerce
on behalf of the United States of America. All rights reserved.
##CAS REGISTRY NO=624-49-7
##MOLFORM=C 6 H 8 O 4
##$NIST SOURCE=MSDC-IR
##STATE=gas
##XUNITS=1/CM
##YUNITS=ABSORBANCE
##XFACTOR=1.
##YFACTOR=0.001
##DELTAX=1.92898
##FIRSTX=549.8
##LASTX=4000.7
##FIRSTY=0.114
##MAXX=4000.7
##MINX=549.759
##MAXY=0.420803
##MINY=0
##NPOINTS=1790
##XYDATA=(X++(Y..Y))
549.759 0.114 0.114 0.028 0.27804 0.4708 0.2408 0.2549 0.2299 0.27387 0.5158
569.049 0.4049 0.34583 0.4124 0.137 0 0.1964 0.27914 0.158 0.288267 0.4026
588.339 0.34386 0.3848 0.2134 0.35975 0.4981 0.3979 0.2512 0.27515 0.5863 0.4578
607.628 0.32286 0.31793 0.30245 0.4224 0.31579 0.36278 0.4252 0.4167 0.5235 0.6973
626.918 0.7848 0.8705 0.9833 1.0579 1.2218 1.373 1.763 2.213 2.463 3.103
646.208 4.443 6.133 8.453 11.653 15.563 19.543 22.993 26.013 28.473 30.433
665.498 30.623 28.103 24.573 21.273 17.873 13.723 9.523 6.363 4.593 3.883
684.787 3.193 2.603 2.223 2.013 1.733 1.513 1.293 1.1027 1.2324 1.0644
704.077 1.0071 0.9724 1.0142 1.1616 1.1071 1.1708 1.373 1.453 1.333 1.413
723.367 1.553 1.543 1.553 1.583 1.863 2.223 2.183 2.283 2.483 2.703
742.657 3.033 3.423 3.923 4.393 5.003 5.623 6.393 7.253 7.983 8.823
761.947 9.763 10.593 11.393 12.213 13.013 13.563 13.973 14.373 14.293 13.893
781.236 13.673 13.493 13.063 12.473 11.823 11.193 10.533 9.853 9.083 8.483
800.526 8.133 7.633 7.103 6.733 6.243 5.973 6.063 6.103 6.193 6.113
819.816 6.113 6.283 6.303 6.503 6.743 6.933 7.343 7.923 8.533 8.983
839.106 9.543 10.353 11.113 11.843 12.583 13.123 13.553 14.093 14.603 14.943
858.395 15.293 15.603 15.953 16.413 16.793 17.093 17.303 17.323 17.373 17.473
877.685 17.123 16.423 15.873 15.163 14.333 13.303 12.283 11.523 10.633 9.893
896.975 9.403 8.903 8.523 8.373 8.293 8.353 8.653 8.893 8.853 8.843
916.265 8.813 8.803 8.763 8.533 8.363 8.053 7.523 7.233 7.013 6.543
935.555 6.423 6.653 6.793 7.083 7.543 8.073 8.823 9.853 11.333 13.043
954.844 14.953 17.173 19.583 22.373 25.383 28.503 31.783 34.573 37.113 39.843
974.134 42.223 43.843 44.503 44.543 44.033 42.683 40.913 39.053 36.813 34.283
993.424 32.283 30.783 29.743 29.593 30.473 32.743 36.473 41.673 48.233 55.783
1012.714 64.103 72.803 81.303 89.253 96.213 102.083 106.983 111.283 114.223 115.673
1032.003 116.373 115.993 113.963 110.083 103.293 93.693 82.883 70.883 58.663 47.843
1051.293 38.923 32.283 27.863 24.443 22.213 20.943 19.393 17.903 17.133 16.403
1070.583 15.563 15.473 15.593 15.203 14.893 14.813 14.363 14.363 14.383 13.693
1089.873 13.223 12.743 12.253 12.263 12.333 12.403 12.253 12.233 12.733 13.013
1109.163 13.183 13.463 14.063 14.433 14.773 15.403 16.233 17.713 19.053 20.503
1128.452 22.473 25.093 28.373 32.913 38.783 45.993 55.903 69.503 88.673 114.303
1147.742 146.643 184.403 220.743 248.723 266.683 278.953 289.383 291.903 280.053 256.693
1167.032 231.513 210.843 195.103 183.653 173.923 162.073 147.483 132.263 118.713 108.533
1186.322 101.303 96.513 93.173 89.733 86.043 82.263 78.663 75.193 72.083 69.283
1205.611 67.253 67.233 68.973 72.463 78.493 87.053 97.773 110.663 124.373 137.053
1224.901 147.173 153.713 157.903 160.353 160.943 159.663 156.693 154.393 156.553 165.643
1244.191 181.623 202.503 226.583 253.133 281.253 310.683 338.813 360.953 372.633 373.083
1263.481 367.463 359.683 347.323 324.953 294.663 266.113 245.023 230.783 220.483 212.553
1282.771 207.953 209.123 217.153 231.353 250.803 274.103 299.663 325.153 347.813 364.773
1302.060 372.893 370.293 356.153 331.703 299.703 262.113 221.203 180.163 142.883 112.473
1321.350 89.733 73.653 62.223 53.693 47.143 42.023 37.983 34.653 31.803 29.433
1340.640 27.453 25.843 24.533 23.503 22.583 21.713 20.933 20.273 19.653 18.993
1359.930 18.373 17.703 17.003 16.343 15.713 15.103 14.523 13.963 13.453 12.983
1379.219 12.513 12.043 11.583 11.183 10.823 10.513 10.303 10.123 10.073 10.153
1398.509 10.293 10.583 11.023 11.623 12.333 13.043 13.733 14.433 15.103 15.713
1417.799 16.533 17.623 18.913 20.913 24.143 29.013 36.433 47.013 60.673 75.053
1437.089 86.203 91.223 92.173 92.113 89.593 78.973 61.063 44.673 33.783 27.663
1456.378 24.293 22.183 20.783 19.663 18.793 18.073 17.363 16.763 16.183 15.433
1475.668 14.593 13.773 13.053 12.383 11.713 11.083 10.573 10.143 9.703 9.403
1494.958 9.163 8.893 8.693 8.523 8.373 8.283 8.313 8.273 8.183 8.093
1514.248 7.973 7.943 7.963 7.963 7.883 7.813 7.793 7.763 7.793 7.823
1533.538 7.833 7.823 7.803 7.773 7.783 7.773 7.763 7.773 7.743 7.763
1552.827 7.843 7.803 7.733 7.713 7.693 7.623 7.553 7.463 7.393 7.343
1572.117 7.263 7.193 7.093 6.923 6.823 6.793 6.773 6.733 6.713 6.653
1591.407 6.553 6.523 6.513 6.543 6.613 6.643 6.593 6.603 6.753 6.853
1610.697 7.033 7.323 7.593 7.853 8.303 8.883 9.433 10.033 10.713 11.543
1629.986 12.543 13.713 15.033 16.473 17.873 19.243 20.523 21.463 22.213 22.663
1649.276 22.763 22.573 22.113 21.403 20.533 19.773 19.123 18.483 17.933 17.403
1668.566 16.803 16.113 15.403 14.783 14.273 13.903 13.733 13.773 13.873 14.133
1687.856 14.653 15.363 16.263 17.443 18.963 20.693 22.603 24.913 27.453 30.233
1707.146 33.313 36.823 41.043 46.083 51.913 58.793 67.003 76.373 87.573 101.253
1726.435 117.703 137.123 160.023 186.303 217.093 251.803 288.753 327.213 361.773 388.463
1745.725 405.823 416.063 420.803 419.523 409.013 385.883 349.193 304.213 256.203 211.383
1765.015 173.843 142.913 117.343 96.783 79.893 66.613 56.403 48.663 42.923 38.593
1784.305 35.243 32.593 30.303 28.043 25.713 23.253 21.003 18.903 16.873 14.963
1803.594 13.193 11.573 10.193 9.063 8.163 7.373 6.743 6.323 6.033 5.823
1822.884 5.723 5.723 5.653 5.643 5.673 5.753 5.903 5.993 6.023 6.093
1842.174 6.103 6.043 5.883 5.683 5.523 5.313 5.083 4.883 4.693 4.513
1861.464 4.413 4.323 4.193 4.133 4.093 4.073 4.063 4.003 3.953 3.903
1880.754 3.873 3.833 3.793 3.723 3.623 3.533 3.413 3.393 3.353 3.283
1900.043 3.273 3.263 3.303 3.343 3.293 3.233 3.233 3.223 3.193 3.193
1919.333 3.113 3.003 3.013 2.923 2.793 2.753 2.703 2.643 2.613 2.593
1938.623 2.563 2.463 2.463 2.513 2.533 2.623 2.583 2.553 2.583 2.633
1957.913 2.683 2.663 2.633 2.583 2.513 2.513 2.503 2.413 2.343 2.303
1977.202 2.273 2.233 2.183 2.133 2.103 2.033 2.023 2.073 1.983 2.023
1996.492 2.153 2.243 2.343 2.483 2.643 2.753 2.873 2.983 3.083 3.113
2015.782 3.103 3.183 3.193 3.093 3.053 3.033 2.963 2.863 2.773 2.703
2035.072 2.793 2.843 2.863 2.963 3.043 3.113 3.243 3.473 3.633 3.793
2054.362 3.963 4.073 4.253 4.443 4.593 4.753 4.923 5.013 5.113 5.263
2073.651 5.363 5.403 5.453 5.493 5.443 5.433 5.403 5.273 5.193 5.173
2092.941 5.133 5.073 4.943 4.813 4.703 4.623 4.573 4.423 4.273 4.103
2112.231 3.943 3.873 3.703 3.523 3.393 3.163 2.993 2.793 2.593 2.493
2131.521 2.413 2.293 2.193 2.133 2.053 2.023 1.973 1.953 1.933 1.923
2150.810 1.933 1.913 1.883 1.853 1.883 1.933 1.893 1.833 1.793 1.763
2170.100 1.763 1.773 1.773 1.793 1.793 1.753 1.723 1.733 1.743 1.683
2189.390 1.583 1.453 1.363 1.283 1.2111 1.217 1.1385 1.0799 1.1283 1.0933
2208.680 1.0094 0.964 1.093 1.1097 1.0644 1.1082 1.0983 1.0982 1.0892 1.0819
2227.970 1.0862 1.0117 0.9345 0.929 0.9173 0.8735 0.7777 0.7742 0.8224 0.9199
2247.259 0.9585 0.9737 1.0373 1.0316 1.0088 0.9969 1.023 0.9618 0.9021 0.9621
2266.549 1.0073 1.0208 0.9984 0.9457 0.9458 0.9413 0.9567 0.9601 0.9323 0.9381
2285.839 1.0244 1.0629 1.0079 1.1108 1.0823 0.9541 1.0171 1.1076 1.0924 1.0677
2305.129 1.1144 1.1286 1.0725 1.0776 1.0312 0.8785 0.9219 1.0724 1.0679 1.0478
2324.418 1.0598 1.007 1.0124 1.0236 0.9688 0.9158 0.8994 0.9419 1.027 1.0271
2343.708 1.0222 1.0974 1.1404 1.1668 1.1622 1.1307 1.1221 1.1592 1.0997 1.0507
2362.998 1.1008 1.0999 1.0826 1.0544 1.0461 0.9931 0.9612 0.9402 0.9363 0.9459
2382.288 0.9048 0.9059 0.8835 0.861 0.8719 0.8507 0.8866 0.9586 0.9545 0.8749
2401.578 0.7578 0.8052 0.8631 0.8131 0.8085 0.8124 0.8254 0.7996 0.7122 0.6666
2420.867 0.6672 0.5914 0.5779 0.6588 0.6611 0.6973 0.7123 0.685 0.661 0.661
2440.157 0.7005 0.72 0.7886 0.8531 0.7783 0.6823 0.6977 0.7328 0.7513 0.7658
2459.447 0.8141 0.8928 0.895 0.8457 0.8427 0.8962 0.9394 0.9746 0.9724 0.8418
2478.737 0.8708 0.9833 0.9087 0.8882 0.9796 0.9976 1.0701 1.0749 1.0725 1.1497
2498.026 1.146 1.1718 1.1941 1.252 1.313 1.313 1.283 1.2743 1.2776 1.293
2517.316 1.283 1.343 1.393 1.313 1.2722 1.2815 1.1916 1.1768 1.175 1.098
2536.606 1.0747 0.9697 0.8604 0.8705 0.9086 0.8603 0.8045 0.7929 0.8359 0.8168
2555.896 0.6978 0.6541 0.6563 0.7141 0.692 0.6422 0.6379 0.6659 0.7339 0.7369
2575.186 0.6829 0.6775 0.7158 0.7333 0.733 0.7117 0.8093 0.8418 0.811 0.8548
2594.475 0.8868 0.9494 0.9349 0.894 0.9358 0.9807 0.9533 0.9567 0.9833 0.9506
2613.765 0.8861 0.8554 0.8138 0.7326 0.7579 0.8091 0.8473 0.7738 0.6921 0.7202
2633.055 0.739 0.731 0.7255 0.763 0.7931 0.7971 0.715 0.768 0.9514 0.936
2652.345 0.9591 1.0825 1.0487 0.9609 0.9161 0.9207 0.9593 0.9642 0.9309 0.8535
2671.634 0.838 0.8297 0.7756 0.8224 0.8439 0.7184 0.6715 0.6513 0.5941 0.5882
2690.924 0.5892 0.6292 0.6232 0.6271 0.6282 0.6125 0.6625 0.5458 0.5207 0.6087
2710.214 0.5527 0.5884 0.5487 0.5214 0.6094 0.5257 0.4797 0.4993 0.5206 0.5493
2729.504 0.5028 0.4889 0.5127 0.5147 0.4976 0.4728 0.4546 0.506 0.5609 0.4889
2748.794 0.5621 0.6837 0.695 0.7149 0.6184 0.6027 0.6902 0.7022 0.705 0.7413
2768.083 0.7743 0.7516 0.6745 0.7123 0.764 0.6628 0.6624 0.7014 0.7113 0.7515
2787.373 0.7623 0.821 0.9203 0.9833 0.9604 0.9766 1.0563 1.0757 1.0958 1.162
2806.663 1.2541 1.363 1.463 1.623 1.693 1.703 1.853 2.033 2.143 2.363
2825.953 2.723 3.003 3.283 3.693 4.173 4.783 5.713 6.863 8.203 9.793
2845.242 11.443 12.933 14.053 14.673 14.783 14.463 13.613 12.293 10.633 8.983
2864.532 7.593 6.533 5.873 5.453 5.193 5.133 5.213 5.213 5.313 5.533
2883.822 5.753 6.093 6.583 7.093 7.713 8.493 9.213 9.813 10.403 11.093
2903.112 11.743 12.173 12.673 13.123 13.393 13.613 13.713 13.673 13.543 13.383
2922.401 13.103 12.753 12.533 12.513 12.513 12.553 12.853 13.423 14.243 15.393
2941.691 17.013 19.233 22.383 26.693 32.563 40.663 51.403 63.913 75.323 82.283
2960.981 84.153 83.283 81.343 77.033 67.873 54.943 42.273 32.493 25.863 21.813
2980.271 19.443 18.033 17.213 16.953 17.113 17.393 17.843 18.353 18.953 19.623
2999.561 20.283 20.823 21.253 21.473 21.353 21.113 20.733 20.343 20.033 19.563
3018.850 19.063 18.833 18.683 18.443 18.213 17.973 17.693 17.173 16.693 16.263
3038.140 15.553 14.893 13.983 12.993 12.173 11.263 10.443 9.693 8.923 8.233
3057.430 7.853 7.543 7.223 7.003 6.823 6.693 6.563 6.433 6.243 6.133
3076.720 6.143 6.073 5.983 5.793 5.593 5.563 5.523 5.323 5.163 5.123
3096.009 4.973 4.833 4.643 4.563 4.463 4.323 4.273 4.073 3.853 3.683
3115.299 3.613 3.413 3.353 3.343 3.143 2.973 2.823 2.573 2.433 2.493
3134.589 2.343 2.163 2.113 2.123 2.003 1.873 1.843 1.843 1.803 1.673
3153.879 1.623 1.653 1.633 1.563 1.473 1.393 1.393 1.363 1.231 1.2507
3173.169 1.403 1.383 1.1619 1.0636 1.0764 1.1359 1.1698 1.1042 1.0834 1.0828
3192.458 1.0715 0.9953 1.0414 1.0668 0.9488 0.9223 0.7657 0.631 0.5763 0.5125
3211.748 0.6742 0.7421 0.6008 0.6016 0.643 0.4786 0.4864 0.595 0.5706 0.6056
3231.038 0.5978 0.4553 0.4033 0.5415 0.5856 0.4273 0.452 0.5347 0.4617 0.33973
3250.328 0.291004 0.291483 0.2462 0.30541 0.27446 0.27444 0.37456 0.467 0.575 0.529
3269.617 0.5026 0.4825 0.33241 0.3962 0.5098 0.3894 0.417 0.4134 0.402 0.4874
3288.907 0.5213 0.5193 0.37105 0.30048 0.266 0.22 0.37035 0.4783 0.4239 0.37102
3308.197 0.4091 0.449 0.3657 0.4382 0.4904 0.4099 0.4039 0.5356 0.5409 0.4551
3327.487 0.4604 0.37587 0.3851 0.5013 0.5578 0.5764 0.7331 0.6659 0.4438 0.5363
3346.777 0.6537 0.5132 0.4113 0.4803 0.5528 0.6492 0.5843 0.5081 0.4761 0.4883
3366.066 0.5789 0.5892 0.5585 0.5617 0.6334 0.7087 0.7712 0.7013 0.7107 0.6938
3385.356 0.6723 0.7072 0.6706 0.7581 0.8997 0.8979 0.7641 0.6796 0.7272 0.8509
3404.646 0.8243 0.7024 0.6736 0.569 0.5057 0.5454 0.6369 0.7648 0.8239 0.8311
3423.936 0.7204 0.6687 0.7482 0.8199 0.8363 0.9366 0.9599 0.9316 1.0902 1.1089
3443.225 1.1224 1.2278 1.167 1.2581 1.373 1.433 1.733 1.973 1.973 2.093
3462.515 2.463 2.843 3.183 3.573 3.833 4.133 4.573 4.983 5.173 5.133
3481.805 5.293 5.453 5.463 5.453 5.243 4.853 4.533 4.113 3.563 3.163
3501.095 2.803 2.333 2.163 2.023 1.753 1.673 1.623 1.373 1.2061 1.323
3520.385 1.293 1.0703 0.9564 0.8065 0.8288 0.8494 0.6259 0.628 0.6484 0.5235
3539.674 0.6217 0.6489 0.4198 0.4366 0.5115 0.3956 0.4029 0.4338 0.35369 0.386
3558.964 0.37962 0.34918 0.4731 0.512 0.29783 0.2374 0.3869 0.38261 0.3629 0.4672
3578.254 0.4048 0.35429 0.37743 0.35182 0.4725 0.4387 0.218 0.2176 0.4354 0.548
3597.544 0.4045 0.35664 0.31808 0.2357 0.3776 0.3941 0.17 0.132 0.165 0.2321
3616.833 0.34465 0.36761 0.37218 0.2322 0.1943 0.2471 0.2775 0.2078 0.182 0.2674
3636.123 0.287967 0.35108 0.33709 0.1889 0.169 0.266 0.36005 0.4277 0.38216 0.3875
3655.413 0.4931 0.4543 0.34853 0.3995 0.35003 0.33391 0.35729 0.246 0.182 0.1914
3674.703 0.2401 0.2442 0.178 0.2466 0.32295 0.30032 0.2449 0.171 0.162 0.2274
3693.993 0.2359 0.132 0.106 0.2723 0.34983 0.2093 0.2627 0.3997 0.34114 0.1839
3713.282 0.042 0.1 0.18 0.2751 0.4757 0.5205 0.4476 0.4144 0.4147 0.4054
3732.572 0.5837 0.5641 0.33891 0.35491 0.33879 0.3016 0.4115 0.3662 0.34592 0.4242
3751.862 0.4128 0.38293 0.286038 0.2716 0.35335 0.4545 0.36947 0.182 0.144 0.137
3771.152 0.2508 0.27866 0.1931 0.4189 0.5042 0.4103 0.4838 0.4701 0.34752 0.36974
3790.441 0.525 0.5913 0.4717 0.4474 0.5442 0.4584 0.4916 0.5941 0.6156 0.5888
3809.731 0.5022 0.368 0.31818 0.4431 0.4729 0.4595 0.4851 0.4477 0.5565 0.5386
3829.021 0.2533 0.141 0.2675 0.5303 0.5291 0.2439 0.27828 0.4417 0.30332 0.30484
3848.311 0.4022 0.2661 0.267 0.3979 0.4374 0.4538 0.491 0.502 0.4913 0.5003
3867.601 0.5779 0.5567 0.5061 0.5814 0.5848 0.5983 0.4652 0.4778 0.5169 0.4229
3886.890 0.5094 0.484 0.4 0.38226 0.4999 0.4922 0.36485 0.36898 0.34337 0.28055
3906.180 0.30068 0.4616 0.4055 0.286412 0.4221 0.4618 0.4064 0.3914 0.6288 0.6975
3925.470 0.37459 0.32812 0.36873 0.4596 0.5431 0.4961 0.6223 0.6087 0.6676 0.7649
3944.760 0.6747 0.5989 0.5738 0.5703 0.5682 0.6603 0.6732 0.6466 0.5733 0.7516
3964.049 0.7835 0.6853 0.8441 0.8295 0.7417 0.6029 0.4746 0.5989 0.7572 0.7595
3983.339 0.8489 1.0222 0.9365 0.9242 1.0357 1.0718 1.076 1.0343 0.8831 0.7697
##END=
