##TITLE=Methyl 4-octyloxybenzoate
##JCAMP-DX=4.24
##DATA TYPE=INFRARED SPECTRUM
##ORIGIN=EPA-IR VAPOR PHASE LIBRARY
##OWNER=SRD/NIST
Collection (C) 2018 copyright by the U.S. Secretary of Commerce
on behalf of the United States of America. All rights reserved.
##CAS REGISTRY NO=62435-37-4
##MOLFORM=C 16 H 24 O 3
##$NIST SOURCE=MSDC-IR
##STATE=gas
##XUNITS=1/CM
##YUNITS=ABSORBANCE
##XFACTOR=1.
##YFACTOR=0.001
##DELTAX=1.929
##FIRSTX=549.8
##LASTX=4000.8
##FIRSTY=2.73
##MAXX=4000.75
##MINX=549.766
##MAXY=0.28635
##MINY=0
##NPOINTS=1790
##XYDATA=(X++(Y..Y))
549.766 2.73 2.66 2.63 2.2987 2.38 2.2545 2.0766 2.0657 2.0527 2.1266
569.056 1.9609 1.7794 1.8344 2.0524 2.0434 1.8403 1.7048 1.7559 1.8318 1.8558
588.346 2.1443 2.33 2.53 2.86 3.18 3.79 4.17 4.5 5.28 6.07
607.636 6.66 7 7.15 7.08 6.62 6.06 5.83 5.82 5.85 6.05
626.926 6.56 7.16 7.74 8.54 9.26 10.13 11.2 12.28 13.29 13.9
646.216 13.74 12.66 11.01 9.01 6.99 5.46 4.38 3.67 3.23 2.97
665.506 2.94 2.77 2.8 2.98 3.18 3.6 3.94 4.31 5.08 5.99
684.796 6.79 7.63 8.41 9.18 9.86 10.26 10.43 10.22 9.65 9.18
704.086 8.62 7.99 7.51 7.04 6.55 6.13 5.94 5.72 5.45 5.11
723.376 4.75 4.56 4.32 4.08 4.01 4.01 3.99 3.95 4.02 4.26
742.666 4.48 4.73 5.08 5.49 6.28 7.19 8.17 9.48 11.38 14.03
761.956 17.28 20.9 24.54 27.63 29.15 28.72 26.65 23.36 19.78 16.67
781.246 13.99 11.9 10.47 9.31 8.4 7.83 7.25 6.74 6.32 5.88
800.536 5.79 5.78 5.77 5.92 6.1 6.39 6.98 7.52 7.67 7.85
819.826 7.92 7.96 8.33 8.75 9.45 10.5 11.81 13.55 15.69 18.15
839.116 20.94 23.58 25.77 27.14 27.06 25.64 23.12 20.14 17.19 14.65
858.406 12.66 11.03 9.71 8.69 7.89 7.2 6.61 6.11 5.7 5.43
877.696 5.18 4.89 4.72 4.68 4.7 4.74 4.76 4.88 5.05 5.18
896.986 5.33 5.51 5.64 5.79 5.95 5.95 5.88 5.89 5.79 5.61
916.276 5.42 5.25 5.21 5.12 5.02 5.13 5.21 5.21 5.25 5.33
935.566 5.45 5.51 5.66 5.89 6.16 6.48 6.82 7.33 7.95 8.51
954.856 9.15 9.86 10.59 11.4 12.26 13.14 14.04 14.91 15.73 16.4
974.146 16.93 17.3 17.48 17.72 17.98 18.33 18.93 19.58 20.08 20.51
993.436 20.85 21.19 21.57 22.16 23.14 24.56 26.65 29.83 33.59 36.22
1012.726 37.1 36.39 34.6 33.52 33.9 34.93 36.16 37.42 38.47 39.32
1032.016 39.97 40.17 39.93 39.34 38.28 36.91 35.36 33.6 31.85 30.24
1051.306 28.68 27.34 26.29 25.51 25.04 24.79 24.76 24.83 25.01 25.3
1070.596 25.65 26.23 27.03 28.21 29.91 32.04 34.95 38.81 43.57 49.35
1089.886 56.36 64.3 72.77 81.47 89.69 96.81 102.79 107.63 111.1 112.64
1109.176 111.47 107.34 100.57 92.18 83.13 73.96 64.85 56.24 48.78 42.61
1128.467 37.6 33.63 30.52 28.04 26.13 24.62 23.51 22.83 22.55 22.8
1147.757 23.58 25.12 27.77 32.04 38.89 49.64 66.54 92.88 129.92 170.04
1167.047 197.05 200.07 178.03 140.09 102.93 76.16 59.27 49.2 43.53 40.41
1186.337 39 38.64 38.74 38.84 38.71 38.18 37.36 36.68 36.47 36.86
1205.627 37.94 39.58 41.78 44.75 48.41 52.68 57.72 63.72 70.96 79.5
1224.917 89.39 100.64 113.22 126.85 141.34 157.03 174.24 193.17 213.79 235.47
1244.207 256.56 274.25 285.05 286.35 277.83 261.91 242.91 225.81 214.27 210.14
1263.497 213.39 222.99 237.32 253.23 266.56 272.87 268.78 253.71 230.02 201.92
1282.787 173.9 149.25 129.39 114.44 103.57 95.65 89.56 84.35 79.61 75.2
1302.077 71.24 68.05 65.48 63.18 60.67 57.66 54.35 50.99 47.63 44.4
1321.367 41.17 37.95 34.7 31.56 28.74 26.1 23.77 21.76 20.11 18.73
1340.657 17.63 16.78 16.11 15.56 15.15 14.89 14.58 14.33 14.09 13.77
1359.947 13.52 13.29 13.03 12.89 12.85 13.02 13.28 13.55 14.11 14.88
1379.237 15.83 16.98 18.07 18.82 19.02 18.56 17.53 16.26 14.92 13.83
1398.527 13.08 12.66 12.59 12.79 13.36 14.19 15.22 16.35 17.49 18.4
1417.817 18.96 19.1 18.93 19 20 22.41 26.71 33.36 43.14 54.51
1437.107 63.11 64.59 58.54 47.2 36.85 30.74 27.45 25.84 25.15 24.91
1456.397 25.07 25.38 25.77 26.3 27 28.14 29.64 31.27 32.36 32.28
1475.687 30.84 28.19 25.05 21.98 19.59 18.03 17.32 17.37 18.23 19.89
1494.977 22.77 27.25 33.58 42.46 53.95 67.04 80.44 88.75 87.76 77.3
1514.267 61.13 44.44 31.34 23.26 18.06 15.02 13.01 11.63 10.74 10.19
1533.557 9.88 9.65 9.52 9.52 9.49 9.47 9.45 9.4 9.44 9.52
1552.847 9.68 9.98 10.39 10.99 11.81 12.77 14.09 15.68 17.55 19.83
1572.137 22.31 24.83 27.38 29.43 30.74 31.61 32.45 34.05 37.06 41.95
1591.427 48.88 57.97 69.13 82.18 96.34 109.85 120.25 124.76 121.67 111.05
1610.717 95.8 79.4 65.01 53.16 44.04 37.06 31.1 26.08 21.99 18.59
1630.007 15.84 13.74 12.07 10.81 9.88 9.19 8.7 8.34 8.07 7.92
1649.297 7.83 7.77 7.64 7.53 7.4 7.21 7.03 6.85 6.7 6.6
1668.587 6.49 6.38 6.4 6.48 6.59 6.78 6.99 7.18 7.48 7.84
1687.877 8.13 8.47 8.97 9.49 10.07 10.69 11.18 11.59 11.96 12.57
1707.167 13.5 14.83 16.55 18.68 21.45 24.92 29.2 34.1 40.17 47.76
1726.457 57.41 70.13 87.39 109.83 140.68 176.72 210 231.95 232.03 209.5
1745.747 172.28 134.15 103.48 80.42 63.76 51.9 42.64 35.53 29.72 24.99
1765.037 21.23 18.26 15.89 13.97 12.37 11.14 10.04 9.08 8.3 7.69
1784.327 7.21 6.85 6.64 6.51 6.39 6.26 6.1 5.9 5.65 5.33
1803.617 5.01 4.69 4.38 4.13 3.91 3.66 3.41 3.18 2.96 2.8
1822.907 2.67 2.56 2.44 2.33 2.2503 2.2282 2.2026 2.1045 2.0128 2.0169
1842.197 2.0136 1.978 1.9936 2.0127 1.9881 1.9395 1.9265 1.9872 2.0606 2.1071
1861.487 2.1027 2.0785 2.0936 2.1793 2.2551 2.2698 2.2902 2.38 2.47 2.51
1880.777 2.62 2.73 2.78 2.9 3.03 3.12 3.2 3.28 3.4 3.52
1900.067 3.6 3.7 3.88 4.05 4.18 4.25 4.27 4.26 4.25 4.21
1919.357 4.09 3.98 3.92 3.91 3.88 3.86 3.85 3.78 3.71 3.62
1938.647 3.46 3.28 3.15 2.97 2.82 2.68 2.54 2.43 2.31 2.189
1957.937 2.095 2.0659 2.075 2.0426 2.0191 2.0424 2.0174 2.0107 2.0367 2.023
1977.227 2.0106 2.059 2.1424 2.1818 2.2275 2.2366 2.2474 2.33 2.4 2.43
1996.517 2.47 2.54 2.55 2.56 2.62 2.67 2.7 2.75 2.79 2.8
2015.807 2.78 2.86 2.96 2.98 2.97 2.96 2.93 2.9 2.88 2.89
2035.097 2.9 2.86 2.8 2.84 2.92 2.93 2.95 2.99 3.03 3.08
2054.387 3.14 3.23 3.31 3.35 3.38 3.44 3.51 3.56 3.62 3.66
2073.677 3.68 3.69 3.72 3.76 3.76 3.68 3.58 3.52 3.44 3.32
2092.967 3.21 3.07 2.92 2.77 2.61 2.48 2.38 2.294 2.1953 2.0874
2112.257 1.9977 1.9335 1.881 1.8356 1.7727 1.685 1.6344 1.5957 1.5146 1.5099
2131.547 1.4945 1.4159 1.39827 1.36841 1.32536 1.3454 1.30352 1.2473 1.2266 1.16
2150.837 1.167 1.2047 1.185 1.168 1.146 1.095 1.061 1.05 1.012 1.018
2170.127 1.031 1.008 1.002 0.962 0.956 0.974 0.937 0.925 0.935 0.915
2189.417 0.913 0.935 0.957 0.94 0.883 0.871 0.894 0.911 0.969 0.971
2208.707 0.937 0.964 1.009 0.999 1.003 1.052 1.045 1.008 1.014 1.032
2227.997 1.073 1.085 1.061 1.084 1.166 1.187 1.158 1.181 1.183 1.2216
2247.287 1.2287 1.161 1.2064 1.2826 1.2774 1.2586 1.2261 1.2548 1.2714 1.2306
2266.577 1.2121 1.2005 1.2585 1.31212 1.33699 1.29909 1.2722 1.32964 1.34046 1.32111
2285.868 1.30848 1.29847 1.32226 1.33161 1.2699 1.2438 1.2378 1.2023 1.2225 1.2394
2305.158 1.2208 1.195 1.199 1.159 1.135 1.111 1.033 1.041 1.015 0.969
2324.448 0.991 1.023 1.039 1.101 1.126 1.11 1.155 1.176 1.154 1.132
2343.738 1.17 1.167 1.163 1.2086 1.188 1.143 1.117 1.159 1.171 1.187
2363.028 1.2315 1.286 1.33814 1.33369 1.36772 1.38492 1.4174 1.4474 1.4781 1.5169
2382.318 1.5106 1.5556 1.6041 1.5755 1.5544 1.6276 1.6732 1.6743 1.6878 1.7127
2401.608 1.7709 1.7766 1.7073 1.6815 1.7317 1.7682 1.7834 1.757 1.7084 1.7165
2420.898 1.6895 1.5953 1.5943 1.5915 1.5576 1.5799 1.594 1.608 1.6222 1.6309
2440.188 1.6233 1.6354 1.6408 1.6311 1.6133 1.5896 1.6508 1.7252 1.7181 1.7405
2459.478 1.7366 1.7911 1.8366 1.8234 1.8397 1.8451 1.9003 1.9145 1.8687 1.8845
2478.768 1.8396 1.8329 1.8965 1.9353 1.9283 1.9017 1.9095 1.8846 1.8711 1.8724
2498.058 1.854 1.7995 1.7793 1.7982 1.7938 1.8185 1.8273 1.8721 1.9933 2.0243
2517.348 2.1412 2.2585 2.2813 2.34 2.35 2.41 2.45 2.52 2.67 2.73
2536.638 2.79 2.91 3.06 3.11 3.13 3.21 3.29 3.32 3.25 3.17
2555.928 3.14 3.15 3.13 3 2.89 2.83 2.83 2.85 2.88 2.86
2575.218 2.8 2.75 2.73 2.73 2.69 2.61 2.57 2.57 2.51 2.46
2594.508 2.46 2.4 2.36 2.37 2.31 2.2862 2.2777 2.2099 2.1478 2.1035
2613.798 2.06 2.0752 2.0774 1.9936 1.9236 1.9599 1.9339 1.8493 1.8576 1.9073
2633.088 1.9275 1.8835 1.8404 1.8268 1.8309 1.8121 1.839 1.9422 1.8976 1.8229
2652.378 1.9056 1.9421 1.9352 1.9575 1.9665 1.9514 1.9432 1.9264 1.9336 2.0457
2671.668 2.0813 2.032 2.0187 2.052 2.0372 2.0436 2.0605 2.0935 2.1467 2.1608
2690.958 2.1555 2.0971 2.1107 2.0776 2.0099 2.0352 2.0681 2.0875 2.0705 2.0934
2710.248 2.1713 2.1841 2.2092 2.2702 2.35 2.36 2.36 2.39 2.47 2.51
2729.538 2.52 2.6 2.7 2.79 2.92 3.05 3.1 3.18 3.27 3.35
2748.828 3.41 3.46 3.42 3.39 3.42 3.39 3.4 3.42 3.36 3.45
2768.118 3.63 3.64 3.59 3.62 3.69 3.68 3.7 3.76 3.82 3.84
2787.408 3.92 4.11 4.25 4.36 4.46 4.6 4.73 4.85 5.05 5.31
2806.698 5.54 5.7 5.96 6.26 6.52 6.85 7.34 7.81 8.18 8.62
2825.988 9.28 9.98 10.73 11.55 12.49 13.67 15.01 16.7 18.82 21.41
2845.278 24.45 27.56 30.63 33.73 36.93 40.42 44.22 48.24 51.87 54.64
2864.568 56.41 57.05 56.83 56.08 54.97 53.82 52.74 51.91 51.31 50.61
2883.858 49.79 48.82 47.7 46.65 45.97 45.79 46.12 47.05 48.58 50.55
2903.148 53.08 56.18 59.97 64.35 69.18 74.45 80.14 86.29 92.74 99.71
2922.438 107.38 115.51 123.7 131.54 138.44 143.63 146.39 146.94 145.55 142.39
2941.728 138.16 133.25 127.95 122.9 118.63 115.77 114.53 115.41 117.7 119.06
2961.018 117.53 112.59 104.98 96.23 87.77 79.43 70.79 62.03 53.9 46.77
2980.308 40.79 36.1 32.31 29.18 26.7 24.79 23.24 21.99 20.96 20.03
2999.598 19.16 18.32 17.49 16.63 15.99 15.41 14.75 14.19 13.66 13.22
3018.888 12.86 12.36 12.04 11.77 11.34 10.88 10.4 10.04 9.6 9.24
3038.178 8.98 8.75 8.61 8.59 8.61 8.61 8.75 8.84 8.74 8.62
3057.468 8.41 8.1 7.81 7.58 7.48 7.67 7.83 7.93 8.26 8.41
3076.758 8.57 8.83 8.95 8.83 8.36 7.78 7.19 6.75 6.48 6.32
3096.048 6.2 6.08 6.03 5.86 5.63 5.39 5.08 4.74 4.47 4.19
3115.338 3.85 3.59 3.39 3.22 3.07 2.89 2.78 2.64 2.35 2.1421
3134.628 2.05 2.0171 1.9958 1.8893 1.8149 1.831 1.9034 1.9696 1.8983 1.9418
3153.918 1.9604 1.7777 1.7197 1.6312 1.45 1.30507 1.188 1.153 1.2053 1.2845
3173.208 1.30398 1.227 1.166 1.18 1.103 1.042 1.021 0.976 0.969 0.841
3192.498 0.788 0.84 0.753 0.801 0.889 0.796 0.715 0.698 0.781 0.777
3211.788 0.642 0.505 0.47 0.517 0.518 0.472 0.396 0.382 0.443 0.41
3231.078 0.355 0.34 0.346 0.25 0.18 0.26 0.28 0.399 0.443 0.29
3250.368 0.27 0.21 0.19 0.12 0.07 0.15 0.19 0.303 0.311 0.25
3269.658 0.22 0.2 0.26 0.15 0.12 0.21 0.24 0.348 0.29 0.18
3288.948 0.22 0.16 0.1 0.15 0.04 0.08 0.21 0.26 0.23 0.13
3308.238 0.15 0.23 0.28 0.18 0.15 0.22 0.25 0.315 0.429 0.38
3327.528 0.24 0.306 0.414 0.456 0.558 0.598 0.559 0.439 0.393 0.457
3346.818 0.496 0.581 0.531 0.417 0.29 0.25 0.36 0.424 0.314 0.21
3366.108 0.17 0.17 0.1 0.1 0.11 0.1 0.27 0.308 0.304 0.305
3385.398 0.26 0.28 0.302 0.18 0.16 0.16 0.19 0.327 0.22 0.16
3404.688 0.24 0.342 0.347 0.25 0.28 0.337 0.363 0.406 0.429 0.407
3423.978 0.548 0.633 0.537 0.397 0.27 0.388 0.514 0.481 0.519 0.554
3443.269 0.563 0.664 0.844 0.997 1.077 1.144 1.38739 1.5876 1.5621 1.6009
3462.559 1.7077 1.7198 1.588 1.39218 1.151 0.922 0.803 0.763 0.734 0.706
3481.849 0.684 0.653 0.525 0.397 0.35 0.392 0.407 0.378 0.371 0.28
3501.139 0.23 0.28 0.24 0.15 0.18 0.29 0.24 0.11 0.1 0.17
3520.429 0.11 0 0.07 0.13 0.18 0.26 0.22 0.2 0.25 0.19
3539.719 0.17 0.23 0.25 0.23 0.14 0.09 0.17 0.21 0.13 0.14
3559.009 0.14 0.18 0.19 0.15 0.18 0.21 0.29 0.24 0.05 0.09
3578.299 0.2 0.25 0.24 0.15 0.16 0.15 0.18 0.15 0.12 0.22
3597.589 0.21 0.26 0.27 0.21 0.26 0.09 0.12 0.319 0.316 0.326
3616.879 0.22 0.12 0.27 0.29 0.313 0.366 0.399 0.539 0.447 0.321
3636.169 0.414 0.502 0.479 0.403 0.26 0.332 0.451 0.308 0.386 0.418
3655.459 0.28 0.361 0.506 0.502 0.377 0.385 0.407 0.341 0.28 0.322
3674.749 0.373 0.3 0.385 0.469 0.436 0.445 0.338 0.337 0.499 0.507
3694.039 0.444 0.412 0.487 0.534 0.479 0.544 0.569 0.47 0.482 0.397
3713.329 0.384 0.449 0.448 0.44 0.402 0.442 0.495 0.483 0.53 0.61
3732.619 0.569 0.572 0.551 0.492 0.383 0.301 0.361 0.472 0.502 0.475
3751.909 0.546 0.485 0.411 0.49 0.533 0.525 0.425 0.359 0.464 0.496
3771.199 0.456 0.448 0.427 0.511 0.499 0.483 0.486 0.531 0.636 0.517
3790.489 0.353 0.323 0.448 0.555 0.487 0.469 0.468 0.418 0.448 0.523
3809.779 0.645 0.611 0.469 0.479 0.448 0.494 0.574 0.552 0.683 0.646
3829.069 0.547 0.472 0.444 0.448 0.451 0.458 0.461 0.559 0.589 0.654
3848.359 0.564 0.468 0.492 0.643 0.796 0.762 0.745 0.671 0.569 0.542
3867.649 0.518 0.517 0.55 0.592 0.657 0.645 0.57 0.459 0.573 0.751
3886.939 0.788 0.713 0.523 0.685 0.73 0.57 0.554 0.646 0.804 0.732
3906.229 0.69 0.682 0.687 0.829 0.829 0.827 0.787 0.695 0.738 0.659
3925.519 0.649 0.748 0.807 0.837 0.751 0.735 0.78 0.748 0.735 0.685
3944.809 0.62 0.705 0.752 0.815 0.788 0.798 0.752 0.704 0.821 0.912
3964.099 0.9 0.769 0.704 0.71 0.7 0.739 0.876 0.904 0.869 0.738
3983.389 0.733 0.813 0.77 0.824 0.815 0.762 0.788 0.94 1.031 1.037
##END=
