##TITLE=5,7-Dimethylchromone-3-carboxaldehyde
##JCAMP-DX=4.24
##DATA TYPE=INFRARED SPECTRUM
##ORIGIN=EPA-IR VAPOR PHASE LIBRARY
##OWNER=SRD/NIST
Collection (C) 2018 copyright by the U.S. Secretary of Commerce
on behalf of the United States of America. All rights reserved.
##CAS REGISTRY NO=62484-76-8
##MOLFORM=C 12 H 10 O 3
##$NIST SOURCE=MSDC-IR
##STATE=gas
##XUNITS=1/CM
##YUNITS=ABSORBANCE
##XFACTOR=1.
##YFACTOR=0.001
##DELTAX=1.92898
##FIRSTX=549.8
##LASTX=4000.7
##FIRSTY=3.762
##MAXX=4000.7
##MINX=549.759
##MAXY=0.212692
##MINY=0
##NPOINTS=1790
##XYDATA=(X++(Y..Y))
549.759 3.762 3.332 3.482 4.082 4.132 3.462 2.652 3.242 4.942 6.522
569.049 6.952 7.352 8.192 7.882 6.962 6.302 5.532 4.912 4.642 4.882
588.339 5.002 4.582 4.232 4.442 4.572 3.932 3.412 3.052 2.202 1.802
607.628 1.902 1.922 1.792 1.502 1.502 2.062 1.822 0.8619 1.0447 1.552
626.918 0.7787 0.321 0.6849 0.8279 0.6842 0.4266 0.442325 0.9099 1.1663 0.976
646.208 1.3177 1.452 1.1021 1.1112 1.2487 1.0753 1.3282 1.532 1.3769 1.472
665.498 1.622 1.802 2.052 2.422 2.702 3.392 4.552 5.552 6.722 8.002
684.787 8.982 10.112 11.282 10.642 8.812 7.372 6.092 5.132 4.362 3.692
704.077 2.812 2.202 2.282 2.192 2.012 2.182 2.342 2.382 2.802 3.272
723.367 3.602 4.452 5.182 5.882 6.252 6.232 6.652 6.822 6.902 7.302
742.657 7.892 9.282 11.312 14.042 18.302 23.892 31.782 42.582 55.062 66.502
761.947 73.472 75.492 73.912 68.702 59.292 46.042 33.162 24.942 21.182 19.762
781.236 18.662 17.222 16.072 14.992 13.262 11.322 9.642 8.812 8.352 7.362
800.526 6.412 5.732 5.172 5.072 5.012 4.532 4.252 4.282 4.132 3.862
819.816 3.642 3.492 3.442 3.352 3.372 4.022 5.002 6.522 8.512 10.512
839.106 12.682 15.092 17.462 20.582 23.302 21.432 17.512 15.172 13.312 10.742
858.395 8.502 6.922 5.142 3.952 3.122 2.602 2.792 2.502 2.442 2.712
877.685 2.612 2.792 3.402 3.742 3.532 3.962 4.612 4.932 5.562 6.322
896.975 6.752 6.982 6.742 6.802 6.912 6.492 5.832 4.992 4.472 4.352
916.265 4.322 4.492 5.212 5.822 6.272 6.692 7.162 7.972 8.382 8.142
935.555 7.572 7.222 7.092 7.432 8.132 8.672 9.642 10.552 10.542 10.202
954.844 10.042 9.352 7.972 6.222 5.192 4.762 4.362 4.202 3.602 3.232
974.134 3.212 3.072 3.082 3.082 3.202 3.322 3.372 3.492 3.442 3.632
993.424 3.842 3.872 4.092 4.342 4.612 4.842 5.022 5.532 5.992 5.902
1012.714 5.932 6.182 6.362 6.612 7.392 8.292 9.082 9.992 10.992 11.792
1032.003 11.752 11.742 11.192 10.322 10.012 8.862 7.712 6.922 5.902 5.112
1051.293 4.802 4.332 3.732 3.672 3.212 2.462 2.232 2.282 2.622 2.712
1070.583 2.442 2.882 2.672 2.102 2.762 2.612 1.822 1.802 2.392 2.522
1089.873 1.992 1.662 1.572 1.532 1.802 2.892 2.572 1.602 1.782 2.672
1109.163 2.822 3.302 3.642 3.192 3.692 3.792 4.482 4.422 3.422 3.282
1128.452 2.812 2.202 2.502 3.032 2.782 3.002 3.362 3.452 3.212 2.842
1147.742 3.792 4.852 5.362 6.112 7.662 9.092 10.042 11.122 11.962 11.982
1167.032 12.042 12.212 11.102 9.252 7.852 6.712 5.542 5.142 4.902 3.442
1186.322 2.082 2.062 2.872 3.462 3.572 3.892 4.132 4.692 5.892 6.992
1205.611 8.362 10.502 12.462 14.652 17.632 21.222 24.632 27.172 29.532 30.902
1224.901 30.482 29.562 27.752 24.782 21.792 18.502 14.932 13.042 12.592 11.952
1244.191 11.132 10.342 10.532 11.952 13.752 16.032 19.452 23.892 28.762 33.032
1263.481 36.482 39.772 42.472 44.172 45.632 47.812 51.262 55.382 58.672 59.902
1282.771 58.772 55.582 49.972 42.622 35.062 28.112 22.692 18.832 16.062 14.342
1302.060 13.282 12.652 12.442 12.682 13.592 15.212 17.672 21.362 27.052 35.232
1321.350 45.872 58.722 72.432 84.512 92.682 95.802 93.822 87.112 76.192 62.502
1340.640 49.142 39.292 34.082 32.932 34.622 37.882 40.892 42.822 43.402 42.352
1359.930 39.702 35.342 29.912 24.812 20.972 18.552 17.342 17.072 17.412 18.212
1379.219 19.102 19.972 20.762 21.422 22.352 23.792 25.952 29.032 33.322 39.172
1398.509 46.342 53.782 59.952 63.892 65.102 63.532 59.442 52.822 44.802 37.402
1417.799 31.632 27.482 24.792 23.072 22.022 21.582 21.622 22.122 23.032 24.442
1437.089 26.712 29.302 32.382 36.212 40.192 44.022 47.162 49.292 50.262 49.752
1456.378 47.772 44.902 41.552 38.182 35.592 33.872 32.982 32.812 33.192 33.732
1475.668 33.782 33.022 31.622 29.562 26.872 24.012 21.252 18.972 17.262 15.992
1494.958 15.312 14.642 14.152 13.972 13.782 13.652 13.542 13.422 13.402 13.632
1514.248 13.862 14.082 14.402 14.812 15.472 16.112 16.612 17.442 18.522 19.562
1533.538 20.812 22.242 23.992 26.242 28.802 32.002 35.802 39.902 44.372 48.882
1552.827 52.802 56.132 57.932 58.092 56.732 53.702 49.032 43.452 37.872 32.582
1572.117 28.182 24.862 22.272 20.272 19.052 18.462 18.362 18.952 20.042 21.532
1591.407 23.992 27.522 32.322 39.322 49.042 61.862 77.022 93.782 110.762 126.502
1610.697 140.292 151.942 159.892 162.812 161.212 155.762 147.002 135.062 120.152 103.132
1629.986 85.932 70.202 56.992 46.422 38.962 34.782 32.722 32.262 33.452 36.352
1649.276 41.012 47.692 57.742 70.872 87.202 107.492 130.452 155.142 178.362 196.912
1668.566 208.502 212.692 209.542 198.972 181.142 159.332 135.652 113.552 93.862 77.572
1687.856 65.162 55.072 46.912 40.672 36.552 34.802 36.262 41.412 50.172 63.262
1707.146 79.672 96.832 110.822 118.632 120.402 117.362 108.582 93.512 73.732 54.462
1726.435 39.612 29.642 23.282 19.352 16.962 15.462 14.442 13.572 12.572 11.492
1745.725 10.602 9.732 8.782 7.902 7.112 6.662 6.352 6.002 5.722 5.312
1765.015 4.912 4.622 4.272 3.942 3.582 3.292 3.242 3.232 3.212 3.212
1784.305 3.332 3.512 3.552 3.712 3.992 4.092 4.242 4.402 4.362 4.382
1803.594 4.342 4.062 3.712 3.472 3.222 2.962 2.872 2.822 2.742 2.712
1822.884 2.732 2.762 2.792 2.902 2.982 2.902 2.882 2.872 2.802 2.802
1842.174 2.882 2.872 2.792 2.752 2.712 2.762 2.802 2.792 2.732 2.742
1861.464 2.832 2.812 2.652 2.472 2.422 2.332 2.272 2.192 2.072 2.002
1880.754 1.992 1.932 1.872 1.862 1.812 1.712 1.742 1.852 1.842 1.812
1900.043 1.942 2.032 1.982 1.852 1.792 1.762 1.752 1.742 1.772 1.782
1919.333 1.682 1.662 1.722 1.792 1.802 1.732 1.732 1.762 1.772 1.702
1938.623 1.592 1.612 1.642 1.552 1.572 1.522 1.4284 1.4079 1.3757 1.401
1957.913 1.3837 1.2914 1.2424 1.2458 1.3479 1.341 1.2548 1.2275 1.2179 1.3156
1977.202 1.2306 1.201 1.3082 1.2129 1.1772 1.177 1.1923 1.1549 1.0603 1.1235
1996.492 1.0797 1.0278 1.1116 1.1684 1.2219 1.2027 1.1883 1.1609 1.1364 1.2278
2015.782 1.3235 1.3811 1.2419 1.1447 1.1508 1.1768 1.2748 1.3106 1.3501 1.512
2035.072 1.502 1.2961 1.1302 1.1191 1.2018 1.2386 1.2215 1.1042 1.1096 1.1095
2054.362 1.1114 1.2082 1.1944 1.1296 1.2461 1.3266 1.2255 1.1781 1.1427 1.0774
2073.651 1.0251 0.9971 0.8974 0.8233 0.9351 1.1053 1.1594 1.1536 1.0436 0.9369
2092.941 0.9336 0.9832 1.0782 1.0287 0.9467 0.9945 1.0839 1.0652 1.1336 1.2608
2112.231 1.2483 1.2692 1.3388 1.2509 1.1854 1.2936 1.3615 1.2671 1.2508 1.3493
2131.521 1.3496 1.3272 1.2836 1.1916 1.1207 1.0521 1.0807 1.1085 1.0606 1.0652
2150.810 1.0225 0.9816 0.9924 1.0704 1.1043 1.0694 1.2043 1.3784 1.4037 1.381
2170.100 1.386 1.4045 1.472 1.472 1.472 1.502 1.442 1.4357 1.3969 1.472
2189.390 1.482 1.2802 1.1925 1.1956 1.1704 1.1453 1.1532 1.052 0.9049 1.0433
2208.680 1.095 0.9358 0.9839 0.9812 0.8623 0.8595 0.8603 0.775 0.7788 0.8993
2227.970 1.0053 1.1107 1.1408 1.1523 1.1371 1.0128 1.0645 1.0679 0.9995 1.074
2247.259 1.1621 1.1576 1.151 1.2011 1.1637 1.1192 1.1514 1.1882 1.2463 1.2073
2266.549 1.126 1.1191 1.1678 1.199 1.0896 1.2061 1.2667 1.2261 1.3433 1.2257
2285.839 1.1943 1.452 1.4402 1.2875 1.3333 1.3384 1.2091 1.2179 1.3155 1.2768
2305.129 1.3026 1.2881 1.058 0.9997 1.0019 0.9433 1.0637 1.1153 1.0951 1.0822
2324.418 0.9922 1.0327 1.0976 1.048 1.1581 1.1824 1.1195 1.1865 1.281 1.2924
2343.708 1.1987 1.1087 1.0921 1.2321 1.4105 1.4197 1.3728 1.4186 1.4408 1.4228
2362.998 1.502 1.572 1.532 1.632 1.662 1.672 1.692 1.692 1.732 1.712
2382.288 1.652 1.692 1.682 1.512 1.3896 1.2966 1.3055 1.3746 1.452 1.442
2401.578 1.3292 1.3006 1.3748 1.3298 1.2805 1.4188 1.512 1.562 1.522 1.612
2420.867 1.762 1.812 1.992 2.152 2.212 2.322 2.302 2.262 2.412 2.332
2440.157 2.212 2.122 2.092 2.092 1.952 1.872 1.842 1.742 1.562 1.4034
2459.447 1.4143 1.4014 1.282 1.211 1.1978 1.1726 1.1564 1.1411 1.0367 1.0258
2478.737 1.1916 1.1812 0.9611 0.9233 0.9939 1.0441 1.1353 1.0758 0.9706 1.0375
2498.026 1.1294 1.1964 1.2452 1.2832 1.3462 1.3985 1.3617 1.1942 1.235 1.2929
2517.316 1.1721 1.0344 1.0091 1.2587 1.2955 0.905 0.7575 0.8031 0.7993 0.884
2536.606 1.0003 0.9532 0.8554 0.8904 0.8773 0.9133 0.8666 0.7691 0.9286 1.0397
2555.896 1.0383 1.1505 1.0396 0.9773 1.1884 1.1579 1.0155 1.1029 1.1992 1.2643
2575.186 1.2128 1.1038 0.991 0.8707 0.9903 1.0079 0.9127 0.9432 1.0307 1.0684
2594.475 1.0037 0.8537 0.8216 0.9311 1.0275 1.0691 1.1845 1.2637 1.1569 1.0892
2613.765 1.1185 1.1648 1.1275 1.0376 0.9992 1.1188 1.174 1.2474 1.3298 1.2143
2633.055 1.0679 0.996 1.1648 1.3182 1.2294 1.1419 1.0831 1.0287 1.2172 1.4323
2652.345 1.3297 1.2219 1.0293 0.9261 1.0361 1.1058 1.1964 1.2402 1.1864 1.1671
2671.634 1.224 1.2858 1.2738 1.2454 1.3302 1.512 1.802 2.062 2.012 1.942
2690.924 2.012 2.162 2.352 2.402 2.372 2.382 2.212 2.012 1.902 1.802
2710.214 1.802 1.762 1.722 1.782 1.832 1.762 1.652 1.672 1.962 2.082
2729.504 2.132 2.342 2.502 2.562 2.792 3.182 3.232 3.282 3.642 3.852
2748.794 3.882 3.862 3.832 3.592 3.222 3.022 2.842 2.542 2.372 2.272
2768.083 2.072 1.822 1.552 1.532 1.762 1.852 1.662 1.682 1.772 1.922
2787.373 2.012 1.972 2.082 2.172 2.092 2.032 2.182 2.322 2.492 2.622
2806.663 2.452 2.402 2.592 2.732 2.722 2.562 2.572 2.662 2.942 3.372
2825.953 3.472 3.512 3.672 3.642 3.862 4.062 3.972 4.172 4.472 4.702
2845.242 5.272 5.922 6.552 7.632 9.332 11.472 13.942 16.862 20.152 23.432
2864.532 26.032 27.132 27.262 26.652 25.102 22.362 18.702 15.232 12.432 10.482
2883.822 8.842 7.432 6.592 6.192 5.892 5.652 5.552 5.622 5.652 5.622
2903.112 5.552 5.602 5.902 6.082 6.402 6.742 7.142 7.562 8.182 9.152
2922.401 10.152 11.522 13.072 14.642 16.512 18.362 19.892 20.952 21.262 20.992
2941.691 20.082 18.692 16.922 14.732 12.752 11.102 9.882 8.962 8.102 7.532
2960.981 7.292 7.222 7.152 7.342 7.522 7.652 8.012 8.612 9.412 10.162
2980.271 10.592 10.992 11.302 11.092 10.782 10.322 9.862 9.192 8.382 7.832
2999.561 7.302 7.042 6.932 6.902 7.092 7.302 7.472 7.462 7.682 8.072
3018.850 8.282 8.452 8.512 8.732 8.772 9.022 9.352 9.222 9.182 8.902
3038.140 8.492 7.972 7.442 6.932 6.202 5.572 5.302 5.192 5.012 4.892
3057.430 4.692 4.912 5.002 4.652 4.732 4.902 4.632 4.252 4.182 4.002
3076.720 3.782 3.642 3.552 3.432 3.122 2.992 2.852 2.802 2.882 2.672
3096.009 2.592 2.582 2.542 2.332 2.132 2.162 2.172 1.952 1.872 1.822
3115.299 1.562 1.632 1.622 1.3449 1.3595 1.452 1.3027 1.2717 1.2138 1.2491
3134.589 1.2801 0.9928 0.9671 1.0067 0.8953 0.9469 0.9419 1.02 1.0644 0.8455
3153.879 0.83 0.7919 0.5673 0.51165 0.7005 0.8993 0.7448 0.6533 0.7213 0.7441
3173.169 0.7628 0.7207 0.53406 0.6334 0.8761 0.7901 0.7353 0.7242 0.6098 0.6616
3192.458 0.6947 0.6088 0.796 0.7713 0.5771 0.8205 0.9297 0.7212 0.7437 0.8956
3211.748 1.0154 1.0344 0.9377 0.9526 1.0436 1.011 1.0981 0.996 0.9034 1.0319
3231.038 1.1235 0.8888 0.8273 1.008 0.9739 0.9159 0.9132 0.9951 0.762 0.6788
3250.328 0.7692 0.7567 0.844 1.0228 1.0052 0.9576 1.0356 0.8964 0.9508 1.05
3269.617 1.0245 1.11 1.1468 1.1715 1.1876 1.1746 1.2925 1.3895 1.2048 1.0022
3288.907 0.9506 0.7165 0.53241 0.6133 0.7434 0.9594 0.9625 0.9006 0.9444 0.9916
3308.197 1.0285 1.1393 1.389 1.562 1.772 2.132 2.222 2.132 2.122 2.242
3327.487 2.312 2.102 2.122 2.222 2.162 2.072 1.732 1.442 1.462 1.3188
3346.777 1.0182 0.8721 0.8386 0.8585 1.0111 1.1964 0.8857 0.4852 0.6851 0.9079
3366.066 0.8677 0.6725 0.52108 0.5808 0.6111 0.584 0.6934 0.9117 1.0297 1.1294
3385.356 1.1492 1.0652 1.0097 0.9948 1.1426 1.2369 1.3262 1.2863 1.1958 1.3586
3404.646 1.652 2.172 2.582 2.502 2.602 3.002 3.082 2.872 2.522 2.282
3423.936 2.062 1.542 1.053 1.1247 1.2087 0.892 0.6278 0.6792 0.7173 0.7089
3443.225 0.6185 0.5607 0.7245 0.8197 0.7042 0.5527 0.6322 0.6871 0.5868 0.5522
3462.515 0.5663 0.49345 0.3553 0.236 0.4101 0.52774 0.51235 0.49917 0.331 0.3797
3481.805 0.7231 0.5666 0.258 0.3734 0.29 0.117 0.277 0.328 0.298 0.255
3501.095 0.324 0.316 0.265 0.4288 0.266 0.307 0.6088 0.7397 0.5789 0.48065
3520.385 0.52575 0.3549 0.4066 0.441559 0.3808 0.303 0.326 0.46525 0.5772 0.48929
3539.674 0.46586 0.7054 0.5499 0.232 0.252 0.4018 0.5722 0.7913 0.7443 0.551
3558.964 0.50263 0.4276 0.288 0.6291 0.9162 0.7035 0.5787 0.47447 0.444545 0.6406
3578.254 0.8088 0.7663 0.6049 0.47899 0.3989 0.233 0.3723 0.5487 0.43866 0.50134
3597.544 0.50051 0.3764 0.23 0.228 0.317 0.341 0.6414 0.50346 0.202 0.51999
3616.833 0.6887 0.49176 0.450071 0.7469 0.8013 0.50112 0.4066 0.627 0.6769 0.5512
3636.123 0.442849 0.3458 0.5759 0.51852 0.33 0.49932 0.47482 0.236 0.213 0.3815
3655.413 0.157 0.15 0.322 0.233 0.291 0.302 0.168 0.34 0.49249 0.3906
3674.703 0.37 0.3559 0.252 0.237 0.4064 0.53337 0.5498 0.325 0.304 0.3921
3693.993 0.3893 0.244 0.207 0.3596 0.267 0.49466 0.5927 0.3502 0.5762 0.7674
3713.282 0.768 0.44004 0.3638 0.5822 0.3932 0.158 0 0.4551 0.5796 0.161
3732.572 0.3488 0.6137 0.450855 0.446024 0.45387 0.48364 0.6625 0.6271 0.5895 0.6239
3751.862 0.6197 0.46077 0.278 0.3934 0.442152 0.23 0.256 0.3998 0.19 0.115
3771.152 0.233 0.4023 0.3547 0.158 0.3499 0.51642 0.6439 0.6163 0.5508 0.46519
3790.441 0.309 0.376 0.342 0.315 0.5458 0.6455 0.3654 0.3614 0.5598 0.47617
3809.731 0.4229 0.3742 0.241 0.276 0.206 0.329 0.6898 0.8385 0.7069 0.604
3829.021 0.3519 0.03 0.189 0.4111 0.6527 0.5893 0.5457 0.4109 0.293 0.254
3848.311 0.3867 0.8327 0.6463 0.302 0.287 0.3491 0.284 0.359 0.3649 0.211
3867.601 0.52665 0.50217 0.15 0.297 0.51395 0.5683 0.47908 0.214 0.291 0.49548
3886.890 0.6812 0.5625 0.51825 0.7605 0.6675 0.7345 0.53141 0.277 0.4278 0.595
3906.180 0.51637 0.269 0.325 0.279 0.234 0.26 0.165 0.318 0.4115 0.6246
3925.470 0.7351 0.5309 0.3953 0.4134 0.5475 0.5571 0.4779 0.51633 0.5028 0.4187
3944.760 0.43896 0.445608 0.6439 0.5608 0.402 0.6277 0.635 0.28 0.136 0.215
3964.049 0.3836 0.763 0.8068 0.6133 0.6935 0.9354 0.8842 0.6952 0.6258 0.5968
3983.339 0.6364 0.9535 1.0731 0.52229 0.239 0.259 0.43321 0.7414 0.6864 0.7151
##END=
