##TITLE=Di-n-butyl sulphate
##JCAMP-DX=4.24
##DATA TYPE=INFRARED SPECTRUM
##ORIGIN=EPA-IR VAPOR PHASE LIBRARY
##OWNER=SRD/NIST
Collection (C) 2018 copyright by the U.S. Secretary of Commerce
on behalf of the United States of America. All rights reserved.
##CAS REGISTRY NO=625-22-9
##MOLFORM=C 8 H 18 O 4 S
##$NIST SOURCE=MSDC-IR
##STATE=gas
##XUNITS=1/CM
##YUNITS=ABSORBANCE
##XFACTOR=1.
##YFACTOR=0.001
##DELTAX=1.92934
##FIRSTX=549.9
##LASTX=3999.5
##FIRSTY=24.31
##MAXX=3999.53
##MINX=549.863
##MAXY=0.29416
##MINY=0
##NPOINTS=1789
##XYDATA=(X++(Y..Y))
549.863 24.31 24.31 24.45 24.57 24.69 25.12 25.46 25.85 26.46 27.06
569.156 27.47 27.73 27.93 27.86 27.65 27.54 27.21 26.54 25.72 25.09
588.450 24.57 24.25 24.21 24.34 24.98 26.13 27.34 28.61 29.6 30.04
607.743 29.89 29.14 27.79 25.85 23.69 21.49 19.34 17.29 15.47 13.93
627.037 12.56 11.42 10.53 9.73 9 8.37 7.84 7.43 7.16 6.87
646.330 6.7 6.5 6.31 6.18 5.97 5.91 5.9 5.88 5.9 5.89
665.624 5.9 5.97 6.02 5.93 5.88 6.02 6.12 6.26 6.41 6.53
684.917 6.66 6.76 6.98 7.23 7.48 7.84 8.19 8.64 9.24 9.87
704.210 10.5 11.27 12.3 13.53 14.8 16.21 17.85 19.66 21.58 23.67
723.504 25.84 27.92 29.8 31.48 32.83 33.65 34.05 34.16 33.84 33.35
742.797 32.96 32.52 32.1 31.8 31.64 31.54 31.5 31.67 31.95 32.27
762.091 32.67 33.27 33.99 34.75 35.55 36.35 37.17 38.03 38.98 40.06
781.384 41.15 42.44 44.05 45.88 47.94 50.36 53.12 55.99 58.98 62.05
800.678 65.02 67.78 70.35 72.79 74.99 77.12 79.43 81.71 84.04 86.48
819.971 88.68 90.47 91.82 92.64 92.77 92.11 90.79 88.81 86.12 82.77
839.264 78.88 74.56 70.03 65.48 61.13 57.21 53.96 51.59 50.12 49.62
858.558 50.18 51.78 54.51 58.39 63.17 68.81 75.5 83.08 91.47 100.67
877.851 110.35 120.32 130.07 139.07 146.78 152.44 155.6 156 153.69 149.33
897.145 143.57 136.93 130.13 123.73 117.96 113 108.9 105.77 103.6 102.66
916.438 103.34 106.05 111.17 118.82 129.2 142.43 158.56 177.39 198.2 220.17
935.732 241.92 261.73 277.96 289.12 294.16 292.72 285.42 273.69 259.21 243.75
955.025 228.68 214.57 201.76 190.16 179.46 169.39 159.83 150.84 142.55 135.36
974.318 129.26 124.07 119.72 116.31 113.84 112.34 111.89 112.33 113.54 115.25
993.612 117.05 118.57 119.49 119.74 119.21 117.9 115.89 113.3 110.23 106.69
1012.905 102.62 97.9 92.71 87.29 81.48 75.44 69.24 62.99 56.92 51.14
1032.199 45.75 40.89 36.86 33.78 31.8 30.99 31.14 32.1 33.61 35.43
1051.492 37.33 39 40.25 40.91 40.86 40.15 38.86 37.12 35.07 32.79
1070.786 30.35 27.95 25.71 23.57 21.69 20.24 18.86 17.69 16.85 15.97
1090.079 15.19 14.58 13.92 13.35 12.93 12.56 12.24 12.15 12.19 12.12
1109.372 12.18 12.41 12.52 12.59 12.75 12.96 13.09 13.05 12.98 12.98
1128.666 13 12.9 12.66 12.54 12.6 12.54 12.38 12.38 12.44 12.33
1147.959 12.23 12.1 12.18 12.38 12.45 12.6 12.92 13.32 13.81 14.57
1167.253 15.63 16.94 18.57 20.78 23.56 27.25 32.44 39.5 48.6 60.66
1186.546 76.9 97.43 122.07 149.75 177.78 202.33 219.48 227.15 225.53 215.4
1205.840 196.6 170.93 142.06 113.35 88.12 67.78 52.98 42.69 35.58 31.03
1225.133 27.9 25.64 23.94 22.5 21.47 20.59 19.71 18.98 18.27 17.65
1244.426 17.07 16.38 15.82 15.46 15.03 14.63 14.21 13.78 13.55 13.27
1263.720 12.76 12.32 12.01 11.66 11.15 10.65 10.29 9.86 9.52 9.32
1283.013 9.19 9.1 8.95 8.89 8.95 9.01 9.09 9.25 9.37 9.46
1302.307 9.5 9.5 9.5 9.46 9.38 9.31 9.28 9.25 9.26 9.3
1321.600 9.38 9.5 9.62 9.84 10.13 10.38 10.76 11.3 11.84 12.42
1340.894 13.08 13.79 14.53 15.31 16.14 17.04 18.17 19.41 20.78 22.43
1360.187 24.31 26.47 28.97 31.8 35.12 38.9 43.18 47.99 53.24 58.94
1379.480 65.06 71.38 77.94 84.72 91.76 99.13 106.96 115.23 123.76 132.24
1398.774 140.3 147.33 152.62 155.85 156.88 156.15 153.97 150.75 146.88 142.21
1418.067 136.43 129.26 120.71 110.52 98.77 86.3 73.98 62.83 53.31 45.59
1437.361 39.32 34.72 31.36 28.95 27.31 26.33 25.88 25.79 26.05 26.52
1456.654 27.08 27.69 28.3 28.78 29.12 29.33 29.26 28.89 28.17 27.09
1475.948 25.67 23.96 22.11 20.21 18.32 16.54 14.94 13.51 12.18 11.05
1495.241 10.07 9.23 8.57 7.99 7.49 7.03 6.64 6.29 6.02 5.78
1514.534 5.54 5.27 5.06 4.86 4.69 4.58 4.48 4.37 4.2257 4.0981
1533.828 4.0491 4.0495 3.9446 3.776 3.7272 3.7235 3.7014 3.6528 3.6257 3.6385
1553.121 3.5654 3.4602 3.4344 3.3749 3.3722 3.3872 3.3221 3.30004 3.28736 3.25919
1572.415 3.2368 3.24306 3.26014 3.238 3.24409 3.28051 3.33018 3.3477 3.30379 3.28919
1591.708 3.3133 3.31924 3.34503 3.3525 3.34262 3.27615 3.2137 3.28962 3.33548 3.30609
1611.002 3.27389 3.2365 3.25658 3.30643 3.34481 3.3798 3.3644 3.34388 3.32521 3.3144
1630.295 3.31259 3.26008 3.25058 3.2407 3.26185 3.298 3.32439 3.3935 3.4131 3.4377
1649.588 3.4755 3.4864 3.5502 3.5986 3.6389 3.6347 3.5961 3.6548 3.79 3.8661
1668.882 3.8907 3.9151 3.903 3.8919 3.8878 3.9138 3.9349 3.8699 3.7976 3.8501
1688.175 3.9329 3.9256 3.8776 3.8394 3.8162 3.8304 3.8397 3.8689 3.8906 3.8886
1707.469 3.8967 3.9074 3.885 3.8739 3.8849 3.8569 3.9061 3.9593 3.8985 3.8746
1726.762 3.8561 3.904 3.9512 3.8547 3.8247 3.9111 3.9386 3.8917 3.8636 3.8722
1746.056 3.8228 3.7628 3.8063 3.8138 3.7712 3.7527 3.7841 3.7753 3.7403 3.7345
1765.349 3.7023 3.7084 3.7225 3.7187 3.7236 3.712 3.7401 3.751 3.6895 3.6595
1784.642 3.6366 3.5953 3.5812 3.5298 3.4668 3.457 3.4661 3.4105 3.32452 3.3724
1803.936 3.363 3.26565 3.26347 3.25666 3.2331 3.2015 3.1571 3.127 3.111 3.078
1823.229 3.011 2.992 2.965 2.887 2.854 2.821 2.784 2.74 2.695 2.717
1842.523 2.723 2.681 2.644 2.606 2.569 2.539 2.518 2.484 2.475 2.473
1861.816 2.402 2.33 2.331 2.32 2.281 2.266 2.26 2.22 2.18 2.18
1881.110 2.18 2.17 2.17 2.18 2.15 2.11 2.11 2.11 2.1 2.05
1900.403 2.04 2.08 2.1 2.09 2.07 2.06 2.05 2.03 2.01 1.99
1919.696 1.99 1.98 2.01 2.01 1.99 1.98 1.93 1.9 1.95 1.97
1938.990 1.93 1.91 1.88 1.9 1.93 1.92 1.86 1.81 1.83 1.86
1958.283 1.87 1.83 1.8 1.78 1.79 1.82 1.77 1.72 1.71 1.75
1977.577 1.78 1.76 1.72 1.73 1.73 1.71 1.69 1.67 1.72 1.73
1996.870 1.7 1.68 1.67 1.71 1.71 1.69 1.65 1.64 1.67 1.66
2016.164 1.66 1.69 1.73 1.75 1.78 1.77 1.74 1.75 1.79 1.77
2035.457 1.76 1.78 1.79 1.81 1.81 1.82 1.86 1.84 1.77 1.76
2054.750 1.75 1.73 1.74 1.76 1.76 1.77 1.75 1.75 1.76 1.73
2074.044 1.73 1.79 1.83 1.82 1.8 1.81 1.79 1.78 1.77 1.76
2093.337 1.79 1.78 1.77 1.77 1.74 1.76 1.79 1.79 1.8 1.8
2112.631 1.81 1.83 1.83 1.85 1.81 1.74 1.81 1.83 1.8 1.84
2131.924 1.91 1.96 1.93 1.9 1.92 1.94 1.96 1.95 1.95 1.96
2151.218 1.94 1.92 1.94 1.98 2.02 2.01 2 2.02 2 2
2170.511 1.99 2.01 2.01 2.02 2.04 2.06 2.04 2 1.99 2
2189.804 1.95 1.92 1.92 1.89 1.89 1.88 1.88 1.88 1.83 1.81
2209.098 1.85 1.87 1.85 1.82 1.83 1.83 1.77 1.76 1.72 1.71
2228.391 1.7 1.7 1.7 1.7 1.68 1.66 1.65 1.64 1.68 1.64
2247.685 1.65 1.68 1.65 1.64 1.64 1.63 1.63 1.63 1.63 1.65
2266.978 1.65 1.67 1.66 1.64 1.61 1.58 1.6 1.59 1.56 1.56
2286.272 1.6 1.61 1.6 1.6 1.61 1.63 1.62 1.55 1.54 1.59
2305.565 1.6 1.59 1.58 1.57 1.56 1.58 1.53 1.5 1.53 1.54
2324.858 1.55 1.58 1.58 1.59 1.61 1.57 1.58 1.64 1.6 1.6
2344.152 1.65 1.65 1.68 1.64 1.61 1.62 1.64 1.65 1.63 1.64
2363.445 1.65 1.67 1.69 1.68 1.75 1.83 1.81 1.85 1.93 2
2382.739 2.07 2.11 2.14 2.14 2.15 2.18 2.2 2.23 2.251 2.18
2402.032 2.09 2.06 2.04 2.02 2 1.94 1.89 1.87 1.81 1.72
2421.326 1.7 1.77 1.76 1.71 1.71 1.71 1.68 1.71 1.73 1.69
2440.619 1.68 1.67 1.67 1.62 1.61 1.6 1.56 1.54 1.51 1.5
2459.912 1.54 1.53 1.47 1.5 1.51 1.52 1.51 1.45 1.45 1.47
2479.206 1.46 1.48 1.51 1.47 1.43 1.44 1.43 1.44 1.44 1.44
2498.499 1.44 1.46 1.48 1.48 1.48 1.46 1.47 1.51 1.53 1.57
2517.793 1.55 1.51 1.51 1.51 1.54 1.58 1.6 1.56 1.5 1.51
2537.086 1.51 1.52 1.54 1.54 1.57 1.58 1.61 1.7 1.75 1.74
2556.380 1.79 1.85 1.87 1.91 1.89 1.93 2.03 2.06 2.14 2.2
2575.673 2.22 2.312 2.371 2.384 2.382 2.418 2.429 2.435 2.467 2.473
2594.966 2.54 2.568 2.541 2.527 2.495 2.431 2.365 2.372 2.357 2.307
2614.260 2.266 2.24 2.22 2.15 2.07 1.99 1.94 1.91 1.92 1.88
2633.553 1.84 1.88 1.82 1.74 1.77 1.75 1.65 1.67 1.79 1.78
2652.847 1.7 1.76 1.83 1.76 1.81 1.87 1.88 1.9 1.92 1.99
2672.140 2.02 2.02 2.09 2.12 2.09 2.08 2.11 2.11 2.12 2.14
2691.434 2.09 2.09 2.13 2.16 2.14 2.14 2.14 2.08 2.09 2.15
2710.727 2.24 2.254 2.24 2.32 2.315 2.289 2.328 2.325 2.373 2.482
2730.020 2.58 2.59 2.651 2.782 2.892 2.991 3.105 3.2028 3.28479 3.3852
2749.314 3.4362 3.4548 3.4988 3.5475 3.5659 3.6132 3.6086 3.5052 3.4875 3.5314
2768.607 3.5136 3.5112 3.5492 3.573 3.581 3.616 3.6915 3.7258 3.7473 3.8156
2787.901 3.8538 3.9277 4.0099 4.1179 4.26 4.34 4.44 4.52 4.61 4.73
2807.194 4.86 5 5.15 5.41 5.71 5.94 6.14 6.38 6.59 6.89
2826.488 7.33 7.71 8.06 8.55 9.12 9.67 10.36 11.2 12.05 13.03
2845.781 14.1 15.13 16.26 17.4 18.56 19.72 20.83 21.97 23.36 24.91
2865.074 26.69 28.79 31.15 33.87 36.94 40.21 43.61 47.15 50.5 53.3
2884.368 55.18 56.16 56.36 55.75 54.53 52.91 51.26 50.02 49.48 49.67
2903.661 50.44 51.76 53.51 55.6 57.83 60.01 62.08 63.88 65.39 66.77
2922.955 67.93 69.03 70.33 72.13 74.57 77.76 81.63 85.91 90.65 95.37
2942.248 99.42 102.5 104.53 105.73 106.29 106.37 106.67 107.84 110.36 114.87
2961.542 121.22 128.58 136.65 144.71 151.28 155.17 155.52 152.05 145.2 135.78
2980.835 124.6 112.64 100.98 90.33 81.06 72.86 65.53 58.9 52.75 47.14
3000.128 41.98 37.34 33.38 29.87 26.75 23.97 21.58 19.48 17.64 16.16
3019.422 14.77 13.57 12.57 11.72 10.83 10.19 9.78 9.18 8.62 8.16
3038.715 7.87 7.56 7.09 6.7 6.43 6.11 5.8 5.58 5.32 5.09
3058.009 4.89 4.72 4.48 4.2485 4.1044 3.9008 3.8354 3.8801 3.7591 3.5184
3077.302 3.4271 3.3999 3.2227 3.115 3.115 3.041 2.937 2.822 2.635 2.571
3096.596 2.694 2.717 2.608 2.502 2.521 2.557 2.451 2.273 2.2 2.13
3115.889 2.07 2.05 1.97 1.9 1.89 1.86 1.76 1.8 1.7 1.52
3135.182 1.54 1.65 1.63 1.54 1.54 1.52 1.48 1.47 1.48 1.43
3154.476 1.38 1.38 1.36 1.38 1.4 1.28 1.17 1.21 1.24 1.2
3173.769 1.2 1.1 1.03 1.13 1.22 1.18 1.15 1.2 1.17 1.09
3193.063 0.98 0.97 1.04 1.06 0.99 0.95 0.97 0.91 0.86 0.93
3212.356 0.85 0.83 0.81 0.77 0.81 0.78 0.7 0.66 0.62 0.61
3231.650 0.51 0.38 0.39 0.41 0.48 0.56 0.57 0.59 0.55 0.52
3250.943 0.49 0.42 0.42 0.45 0.44 0.3 0.15 0.34 0.59 0.42
3270.236 0.26 0.09 0 0.19 0.24 0.16 0.06 0.2 0.34 0.28
3289.530 0.34 0.41 0.3 0.19 0.23 0.29 0.35 0.32 0.35 0.43
3308.823 0.38 0.31 0.22 0.23 0.26 0.18 0.23 0.22 0.23 0.34
3328.117 0.36 0.24 0.12 0.15 0.37 0.54 0.38 0.37 0.47 0.5
3347.410 0.53 0.31 0.21 0.42 0.42 0.31 0.23 0.25 0.45 0.56
3366.704 0.52 0.48 0.35 0.26 0.34 0.54 0.65 0.54 0.47 0.52
3385.997 0.51 0.42 0.46 0.47 0.4 0.49 0.54 0.39 0.36 0.46
3405.290 0.44 0.42 0.42 0.52 0.61 0.59 0.54 0.37 0.28 0.46
3424.584 0.57 0.53 0.58 0.6 0.56 0.51 0.56 0.63 0.6 0.48
3443.877 0.34 0.4 0.62 0.75 0.6 0.51 0.68 0.73 0.67 0.59
3463.171 0.55 0.56 0.55 0.64 0.62 0.52 0.61 0.68 0.58 0.59
3482.464 0.78 0.66 0.45 0.51 0.61 0.69 0.67 0.69 0.61 0.52
3501.758 0.63 0.72 0.73 0.77 0.78 0.81 0.74 0.65 0.77 0.81
3521.051 0.86 0.88 0.86 0.85 0.88 0.89 0.8 0.77 0.82 0.87
3540.344 0.82 0.89 0.97 0.94 0.85 0.88 0.86 0.8 0.81 0.78
3559.638 0.85 0.99 1.05 0.84 0.71 0.85 0.8 0.76 0.84 0.82
3578.931 0.74 0.68 0.72 0.79 0.81 0.83 0.93 0.88 0.84 0.85
3598.225 0.89 0.97 0.93 0.99 0.96 0.92 0.97 0.94 0.96 1
3617.518 1.01 1.01 1.14 1.21 1.12 1.06 0.91 0.96 1 0.97
3636.812 1.14 1.11 1.15 1.15 1.01 1.08 1.18 1.24 1.32 1.32
3656.105 1.24 1.16 1.14 1.29 1.27 1.16 1.24 1.34 1.3 1.29
3675.398 1.33 1.28 1.36 1.46 1.47 1.33 1.23 1.3 1.27 1.3
3694.692 1.31 1.26 1.31 1.31 1.16 1.21 1.36 1.28 1.28 1.35
3713.985 1.28 1.34 1.41 1.36 1.36 1.35 1.33 1.38 1.33 1.3
3733.279 1.34 1.3 1.32 1.38 1.41 1.46 1.35 1.26 1.28 1.29
3752.572 1.4 1.39 1.39 1.43 1.45 1.43 1.42 1.44 1.42 1.42
3771.866 1.46 1.42 1.38 1.47 1.54 1.55 1.46 1.42 1.53 1.52
3791.159 1.44 1.38 1.43 1.54 1.58 1.58 1.53 1.52 1.4 1.39
3810.452 1.47 1.48 1.42 1.34 1.44 1.46 1.39 1.38 1.37 1.39
3829.746 1.41 1.5 1.51 1.47 1.45 1.49 1.55 1.5 1.54 1.56
3849.039 1.61 1.62 1.55 1.59 1.65 1.7 1.74 1.76 1.75 1.75
3868.333 1.73 1.68 1.74 1.72 1.64 1.6 1.63 1.65 1.7 1.78
3887.626 1.73 1.7 1.71 1.74 1.8 1.82 1.8 1.77 1.78 1.78
3906.920 1.76 1.83 1.86 1.86 1.91 1.92 1.82 1.81 1.86 1.78
3926.213 1.79 1.87 1.82 1.82 1.86 1.9 1.87 1.86 1.8 1.7
3945.506 1.69 1.72 1.78 1.74 1.76 1.8 1.76 1.73 1.84 1.84
3964.800 1.77 1.81 1.84 1.87 1.83 1.74 1.78 1.86 1.8 1.78
3984.093 1.76 1.79 1.85 1.81 1.84 1.9 1.86 1.89 1.93
##END=
