##TITLE=3,5-Dibromopyridine
##JCAMP-DX=4.24
##DATA TYPE=INFRARED SPECTRUM
##ORIGIN=EPA-IR VAPOR PHASE LIBRARY
##OWNER=SRD/NIST
Collection (C) 2018 copyright by the U.S. Secretary of Commerce
on behalf of the United States of America. All rights reserved.
##CAS REGISTRY NO=625-92-3
##MOLFORM=C 5 H 3 Br 2 N
##$NIST SOURCE=MSDC-IR
##STATE=gas
##XUNITS=1/CM
##YUNITS=ABSORBANCE
##XFACTOR=1.
##YFACTOR=0.001
##DELTAX=1.92898
##FIRSTX=549.8
##LASTX=4000.7
##FIRSTY=1.1058
##MAXX=4000.7
##MINX=549.759
##MAXY=0.13198
##MINY=0
##NPOINTS=1790
##XYDATA=(X++(Y..Y))
549.759 1.1058 1.6637 1.7748 1.7111 2.26 1.7526 1.512 1.4463 1.25318 1.8317
569.049 2.0596 2.1583 2.26 1.9939 2.1279 1.9716 1.6275 1.999 1.8204 1.7194
588.339 1.8295 1.322 1.4371 1.812 1.6928 1.6898 1.5412 1.2984 1.5339 1.9487
607.628 2.34 2.47 2.39 2.53 3.01 3.33 3.32 3.32 4.36 6.15
626.918 7.11 7.58 7.88 7.66 8.11 9.57 9.87 8.6 7.32 6.43
646.208 5.34 4.24 3.78 3.45 3 2.88 3.24 3.66 4.14 5.01
665.498 5.95 7.61 9.72 12.87 16.87 20.85 25.09 28.97 32.01 35.08
684.787 39.19 42.08 38.46 30.71 26.61 23.92 20.12 16.36 13.26 10.71
704.077 8.94 8.19 7.5 7.13 6.65 6.1 5.84 5.26 4.46 3.75
723.367 3.27 3.21 3.21 3.5 4.08 4.53 4.96 5.16 5.79 6.63
742.657 7.67 9.86 14.06 21.28 32.59 49.63 71.72 95.47 115.52 127.65
761.947 131.98 128.93 115.47 88.23 55.01 29.91 17.33 12.69 10.68 9.65
781.236 9.26 8.82 7.82 6.53 4.96 4.13 4.24 4.12 4.05 3.87
800.526 3.79 3.66 3.22 3.07 2.84 2.42 2.1334 2.1195 2.0469 1.5528
819.816 1.4038 1.8157 2.19 2.1119 1.7945 1.462 1.22358 1.3837 1.7191 1.658
839.106 1.6303 1.4469 1.228 1.7907 2.105 2.41 3.28 4.13 5.62 7.57
858.395 9.56 12.03 15.28 18.7 21.86 24.87 28.18 31.36 33.39 31.41
877.685 26.17 22.51 19.97 17.38 14.66 11.14 8.29 6.24 4.46 3.71
896.975 3.2 2.63 2.1558 2.1263 2.37 2.23 2.5 2.72 2.96 3.39
916.265 3.61 3.35 2.85 2.8 2.65 2.54 2.49 2.27 2.28 2.3
935.555 2.21 2.1053 2.24 2.31 2.0633 1.8548 1.574 1.7813 1.6683 1.663
954.844 2.1343 1.9185 1.8703 2.26 2.53 2.39 2.6 2.85 2.87 3.44
974.134 3.6 3.47 3.71 4 4.44 4.64 5.15 6.23 7.78 9.75
993.424 12.73 17.08 22.24 28.56 35.74 44.25 53.31 61.26 65.58 64.83
1012.714 62.53 62.61 62.48 57.26 47.83 37.72 28.85 21.74 16.41 11.85
1032.003 8.6 7.03 5.69 4.58 3.72 3.28 3.48 3.54 3.66 4.1
1051.293 4.3 4.3 4.05 4.28 5.27 6.03 6.84 8.16 10.3 11.68
1070.583 13.56 16.37 19 22.17 25.26 27.6 30.52 36.82 47.21 58.42
1089.873 65.99 67.11 64.97 62.28 56.3 44.15 27.75 14.67 8.79 6.77
1109.163 6.15 6.23 6.06 5.48 4.67 4.88 4.71 4.07 4.95 5.54
1128.452 5.22 5.98 6.3 6.36 6.65 5.18 4.35 3.99 3.39 2.88
1147.742 2.61 2.48 1.7091 2.0629 1.8698 1.4034 1.79 2.39 2.34 2.1356
1167.032 2.5 2.67 2.95 3.48 3.92 3.93 4.69 5.86 5.8 6.09
1186.322 6.85 7.83 9.59 10.34 10.5 10.17 9.19 8.02 7.58 6.84
1205.611 4.71 3.51 2.1167 1.5129 1.3367 0 0.375 1.4592 2.39 2.41
1224.901 1.9339 1.8343 1.4765 1.19671 1.18453 1.7595 2.3 2.65 1.9751 1.5332
1244.191 1.8206 1.6583 1.3315 1.4992 1.752 1.5891 1.19113 0.959 1.4947 2.115
1263.481 2.0792 2.0816 2.0111 1.9266 2.1271 2.56 3.3 4.63 6.62 9.59
1282.771 14.51 21.75 30.82 40.11 45.31 45.34 43.65 40.62 34.34 24
1302.060 13.61 7.45 4.89 3.95 3.48 3.06 2.75 2.64 2.61 2.62
1321.350 2.52 2.38 2.44 2.52 2.53 2.69 2.87 2.87 2.95 3.05
1340.640 3.22 3.53 3.96 4.73 5.86 7.41 9.5 12.07 14.78 17.27
1359.930 19.44 20.82 21.44 21.51 20.86 19.43 17.23 14.83 12.8 10.99
1379.219 9.39 8.2 7.74 8.12 9.07 10.6 12.85 15.96 20.47 26.87
1398.509 35.83 48.43 65.4 85.87 105.54 116.7 117.5 113.54 107.65 96.94
1417.799 76.51 54.03 38.3 28.35 21.93 17.26 13.58 10.92 9.16 8.1
1437.089 7.46 7.08 7.05 7.31 7.8 8.18 8.35 8.28 7.99 7.37
1456.378 6.35 4.95 3.85 3.43 3.37 3.47 3.53 3.66 3.71 3.55
1475.668 3.48 3.33 3.02 2.71 2.5 2.46 2.46 2.29 2.16 2.19
1494.958 2.25 2.33 2.34 2.36 2.5 2.81 3.11 3.28 3.42 3.75
1514.248 4.21 4.75 5.1 5.6 6.43 7.26 8.73 11.07 14.08 18.42
1533.538 24.44 32.17 41.85 53.46 66.18 78.16 87.15 90.89 88.5 80.8
1552.827 68.33 51.48 33.71 19.84 12.21 8.86 6.89 5.18 3.92 3.42
1572.117 3.2 2.86 2.66 2.47 2.25 2.0015 1.9097 1.9337 1.6941 1.6049
1591.407 1.5114 1.5307 1.4917 1.2739 1.4571 1.6017 1.5044 1.4455 1.3635 1.3856
1610.697 1.4622 1.3255 1.2945 1.3589 1.24607 1.268 1.419 1.5505 1.6085 1.6031
1629.986 1.6659 1.7343 1.6992 1.6563 1.8132 1.8996 1.8793 1.901 1.9241 1.9529
1649.276 1.9573 1.8723 1.7665 1.7373 1.7286 1.6743 1.657 1.6613 1.5907 1.684
1668.566 1.8982 1.8273 1.7429 1.8779 2.0075 2.004 1.9396 1.8632 1.7925 1.8002
1687.856 1.7393 1.67 1.6954 1.7222 1.6559 1.6456 1.6257 1.5864 1.6698 1.7034
1707.146 1.6488 1.5073 1.514 1.6349 1.6681 1.822 2.0711 2.2 2.28 2.49
1726.435 2.58 2.6 2.63 2.5 2.27 2.049 1.8231 1.6592 1.7243 1.8562
1745.725 1.7778 1.6783 1.6719 1.8184 2.0265 2.1244 2.4 2.61 2.72 3.07
1765.015 3.46 3.88 4.3 4.55 4.76 4.74 4.72 4.73 4.47 4.14
1784.305 3.93 3.67 3.44 3.24 3.01 2.98 3.19 3.44 3.67 4.06
1803.594 4.6 5.12 5.45 5.53 5.42 5.09 4.53 3.97 3.37 2.84
1822.884 2.55 2.34 2.35 2.43 2.65 3.07 3.36 3.62 4.05 4.43
1842.174 4.54 4.67 4.64 4.26 3.79 3.3 2.87 2.55 2.28 2.1436
1861.464 2.1587 2.33 2.38 2.39 2.5 2.63 2.81 2.88 2.76 2.58
1880.754 2.55 2.54 2.5 2.34 2.0518 1.8241 1.7428 1.6959 1.6096 1.5534
1900.043 1.4701 1.4465 1.3866 1.319 1.3991 1.4431 1.4903 1.5179 1.4752 1.4829
1919.333 1.5004 1.6382 1.7197 1.6559 1.6332 1.6821 1.7241 1.6087 1.5561 1.5863
1938.623 1.5016 1.4059 1.4744 1.5562 1.4781 1.3783 1.3082 1.20868 1.18044 1.25661
1957.913 1.4584 1.5034 1.3275 1.2651 1.3137 1.2866 1.3552 1.4893 1.4276 1.3936
1977.202 1.4259 1.4391 1.3967 1.3181 1.3486 1.3862 1.3694 1.325 1.3583 1.4127
1996.492 1.3251 1.3297 1.4527 1.4594 1.2794 1.2854 1.3808 1.4063 1.4967 1.5068
2015.782 1.5931 1.6155 1.6012 1.6234 1.4581 1.3641 1.418 1.5281 1.5878 1.5663
2035.072 1.6647 1.7208 1.733 1.7344 1.8692 1.9314 1.822 1.8021 1.6768 1.5329
2054.362 1.3391 1.307 1.3907 1.3385 1.4763 1.5244 1.3606 1.3633 1.3336 1.2843
2073.651 1.23746 1.296 1.3796 1.2969 1.2824 1.2798 1.2583 1.275 1.3772 1.4793
2092.941 1.4198 1.2941 1.3729 1.4634 1.4876 1.3919 1.3545 1.4037 1.4257 1.427
2112.231 1.3785 1.4037 1.4462 1.3235 1.3165 1.4144 1.3676 1.4592 1.4844 1.5068
2131.521 1.3703 1.2682 1.4741 1.5036 1.5367 1.5404 1.4679 1.5159 1.4487 1.4179
2150.810 1.4518 1.4128 1.3577 1.418 1.5025 1.4828 1.5064 1.5391 1.5063 1.4579
2170.100 1.5135 1.4776 1.4555 1.4656 1.4884 1.4896 1.5026 1.544 1.4991 1.5751
2189.390 1.5028 1.47 1.4954 1.4613 1.4525 1.4632 1.4408 1.3425 1.4362 1.5259
2208.680 1.4332 1.3504 1.3772 1.4525 1.4735 1.3694 1.3405 1.3741 1.3091 1.3076
2227.970 1.3749 1.3481 1.3653 1.3376 1.363 1.4289 1.3002 1.2629 1.2644 1.3212
2247.259 1.3487 1.4108 1.4332 1.4239 1.4712 1.5135 1.6 1.6042 1.6209 1.5749
2266.549 1.5674 1.5902 1.4724 1.5225 1.3984 1.21571 1.3398 1.4673 1.4422 1.339
2285.839 1.4703 1.4739 1.397 1.529 1.482 1.4166 1.407 1.4331 1.5085 1.4894
2305.129 1.5189 1.4445 1.3116 1.4099 1.506 1.4119 1.3376 1.4112 1.4808 1.304
2324.418 1.22241 1.2714 1.3611 1.381 1.4005 1.5083 1.4299 1.3096 1.3806 1.3552
2343.708 1.3337 1.5744 1.8237 1.813 1.516 1.4168 1.4634 1.5427 1.6191 1.7296
2362.998 1.7295 1.7681 1.9294 2.0703 2.124 2.1084 2.17 2.3 2.53 2.63
2382.288 2.63 2.53 2.42 2.47 2.55 2.55 2.36 2.24 2.37 2.4
2401.578 2.22 2.0278 1.9993 2.0781 1.9669 1.745 1.7473 1.752 1.6792 1.5948
2420.867 1.5691 1.4534 1.3155 1.3654 1.3904 1.3756 1.4609 1.5309 1.4306 1.2974
2440.157 1.2618 1.23846 1.2953 1.3892 1.3279 1.2774 1.3323 1.4492 1.5492 1.6531
2459.447 1.6288 1.5183 1.7027 1.7534 1.6395 1.5652 1.5265 1.5558 1.4314 1.4914
2478.737 1.5484 1.5 1.449 1.4244 1.5719 1.5877 1.5128 1.5384 1.5259 1.4773
2498.026 1.4592 1.345 1.327 1.4902 1.535 1.4779 1.4588 1.4809 1.6725 1.6312
2517.316 1.4812 1.4133 1.4018 1.5143 1.5683 1.3953 1.0956 1.1048 1.3058 1.4725
2536.606 1.482 1.4722 1.5928 1.594 1.466 1.4188 1.536 1.4622 1.2809 1.2944
2555.896 1.3505 1.4822 1.4972 1.4827 1.5507 1.6279 1.6135 1.6052 1.5489 1.4095
2575.186 1.5586 1.6674 1.6824 1.6935 1.5903 1.6149 1.5951 1.5186 1.6588 1.7809
2594.475 1.6967 1.6143 1.5765 1.6151 1.5385 1.5247 1.5674 1.4708 1.526 1.6071
2613.765 1.638 1.4512 1.337 1.5424 1.6696 1.66 1.6584 1.6473 1.603 1.5578
2633.055 1.5381 1.4704 1.454 1.436 1.3861 1.5163 1.541 1.4756 1.4392 1.3784
2652.345 1.3211 1.3615 1.4462 1.397 1.4159 1.5191 1.4836 1.3738 1.4713 1.6025
2671.634 1.5605 1.5148 1.508 1.5669 1.7463 1.7145 1.6726 1.8122 1.9587 1.9835
2690.924 1.909 1.8578 1.7992 1.8397 1.9813 2.1371 2.0117 1.9822 2.0424 1.9688
2710.214 2.23 2.33 2.1523 2.3 2.39 2.25 2.1218 2.29 2.33 2.18
2729.504 2.1466 2.29 2.33 2.21 2.1074 1.9454 2.0181 2.22 2.26 2.0863
2748.794 1.9509 1.8786 1.8244 1.6228 1.4683 1.4778 1.5004 1.4694 1.2711 1.1444
2768.083 1.24991 1.2835 1.3231 1.3556 1.3259 1.18788 1.23831 1.4349 1.2832 1.3331
2787.373 1.2973 1.1849 1.3077 1.3235 1.3048 1.25731 1.21826 1.3707 1.3903 1.3155
2806.663 1.4631 1.4528 1.4571 1.4244 1.305 1.3364 1.3434 1.4895 1.6896 1.532
2825.953 1.2617 1.25999 1.3635 1.4287 1.3776 1.437 1.4627 1.4467 1.3135 1.0791
2845.242 1.19536 1.3058 1.24958 1.3243 1.412 1.2736 1.18234 1.012 1.061 1.394
2864.532 1.4669 1.5192 1.533 1.224 1.16301 1.308 1.16723 1.1182 1.388 1.5182
2883.822 1.3848 1.2997 1.2915 1.24025 1.24083 1.2916 1.2808 1.3595 1.3937 1.3076
2903.112 1.16024 1.19178 1.3285 1.3965 1.4924 1.4513 1.2642 1.16794 1.0627 0.911
2922.401 1.0718 1.3033 1.2951 1.4161 1.5292 1.4873 1.3959 1.3135 1.3936 1.5593
2941.691 1.6509 1.6733 1.6298 1.4571 1.4842 1.8051 1.8411 1.8062 1.7901 1.5234
2960.981 1.4108 1.4465 1.4948 1.4066 1.3572 1.4864 1.4332 1.5001 1.6592 1.4757
2980.271 1.3882 1.4655 1.4874 1.5396 1.6043 1.6423 1.5097 1.4271 1.4622 1.4408
2999.561 1.3545 1.3104 1.4031 1.3874 1.3922 1.4483 1.367 1.4508 1.4299 1.4627
3018.850 1.8755 1.9196 1.5553 1.4261 1.584 1.7066 1.7686 1.8281 2.0485 2.33
3038.140 2.65 3.15 4 4.98 5.99 7.49 9.58 12.16 14.32 15.39
3057.430 15.41 14.53 13.13 11.22 8.52 6.13 4.77 3.95 3.28 2.87
3076.720 2.86 2.96 2.87 2.75 2.74 2.51 2.33 2.51 2.61 2.62
3096.009 2.58 2.57 2.61 2.52 2.27 2.142 1.9523 1.8604 1.8663 1.8056
3115.299 2.0593 2.0301 1.625 1.4429 1.4816 1.5832 1.5605 1.2753 1.18109 1.24158
3134.589 1.1094 1.1433 1.0815 0.968 1.22127 1.2921 1.2781 1.4981 1.5636 1.4366
3153.879 1.285 1.1104 1.1171 1.0778 1.1173 1.1967 1.2696 1.3275 1.0949 0.949
3173.169 1.1315 1.345 1.24112 1.23806 1.5012 1.6289 1.3629 1.1124 1.0801 1.19273
3192.458 1.25287 1.3842 1.4954 1.383 1.377 1.3572 1.2973 1.3103 1.3313 1.1402
3211.748 1.1335 1.3515 1.335 1.4748 1.4855 1.3023 1.373 1.2693 1.0971 1.18588
3231.038 1.22628 1.3029 1.3491 1.3067 1.4576 1.378 1.23403 1.4799 1.5038 1.4266
3250.328 1.5998 1.5438 1.3302 1.4403 1.5472 1.0954 1.0924 1.4582 1.4913 1.4661
3269.617 1.5165 1.3496 1.1303 1.16569 1.3054 1.3584 1.22657 1.15096 1.1203 1.1167
3288.907 1.3228 1.4458 1.4874 1.393 1.4012 1.5113 1.4496 1.5224 1.4359 1.0842
3308.197 0.953 1.2824 1.4899 1.6815 1.6876 1.4287 1.4197 1.3407 1.387 1.7338
3327.487 1.6466 1.4146 1.3228 1.3346 1.4354 1.22027 1.2029 1.3783 1.4561 1.3964
3346.777 1.22031 1.24793 1.3629 1.6032 1.4731 1.3417 1.4019 1.3159 1.4199 1.4353
3366.066 1.21573 1.16567 1.3872 1.6147 1.5538 1.3091 1.385 1.3912 1.22308 1.15634
3385.356 1 1.026 1.288 1.3311 1.2849 1.4505 1.4971 1.24108 1.035 0.969
3404.646 1.24359 1.3414 1.24694 1.3958 1.4534 1.5274 1.5516 1.39 1.2863 1.1154
3423.936 1.15231 1.4052 1.4535 1.27 1.235 1.3562 1.18212 1.20305 1.3481 1.064
3443.225 1.035 1.16774 1.3603 1.5225 1.4108 1.0878 0.873 1.25889 1.5172 1.4507
3462.515 1.283 1.2717 1.422 1.4197 1.6095 1.5998 1.343 1.5119 1.5212 1.5015
3481.805 1.3954 1.3795 1.4309 1.2705 1.3178 1.3285 1.3259 1.3423 1.317 1.2782
3501.095 1.5739 1.7458 1.6009 1.4612 1.3092 1.3165 1.3982 1.25301 1.20265 1.24069
3520.385 1.23795 1.3311 1.3192 1.4217 1.3284 1.4616 1.5555 1.21733 1.4142 1.3735
3539.674 0.987 0.882 0.964 1.20658 1.415 1.553 1.3508 1.3475 1.5044 1.4777
3558.964 1.4265 1.2935 1.15261 1.026 1.17724 1.2811 1.24066 1.18555 1.15811 1.2874
3578.254 1.4592 1.42 1.1374 1 1.23923 1.391 1.24054 1.1083 1.1019 1.22875
3597.544 1.4182 1.25235 1.2929 1.5543 1.5644 1.4445 1.3788 1.489 1.5147 1.6357
3616.833 1.6106 1.5183 1.5815 1.5595 1.3218 1.16379 1.2898 1.3872 1.5254 1.3777
3636.123 1.15716 1.2974 1.18057 1.033 1.3038 1.4888 1.4933 1.5798 1.578 1.4245
3655.413 1.23528 1.24222 1.3518 1.4388 1.5824 1.5741 1.6305 1.6892 1.5666 1.3979
3674.703 1.0841 1.21807 1.4705 1.4081 1.5701 1.3929 1.21547 1.4764 1.5124 1.4204
3693.993 1.365 1.4981 1.3845 1.1359 1.20422 1.4037 1.5787 1.5547 1.4601 1.6505
3713.282 1.5747 1.373 1.3408 1.14 1.1207 1.2743 1.4482 1.5391 1.6062 1.5101
3732.572 1.18305 0.927 0.854 0.955 1.24341 1.4316 1.5005 1.4817 1.25122 1.22956
3751.862 1.324 1.3545 1.5991 1.5841 1.4469 1.4557 1.4258 1.4173 1.5162 1.6868
3771.152 1.7103 1.3811 1.0601 1.15092 1.3306 1.3505 1.2987 1.4949 1.4276 1.4923
3790.441 1.7657 1.7667 1.4198 1.1498 1.017 0.946 1.2971 1.4312 1.3554 1.6146
3809.731 1.7553 1.6187 1.5371 1.5728 1.6704 1.6263 1.7133 1.7156 1.6783 1.8361
3829.021 1.7164 1.5406 1.7931 1.8283 1.7345 1.5929 1.2727 1.3742 1.494 1.6909
3848.311 1.6757 1.4549 1.4081 1.3538 1.3164 1.45 1.4523 1.21899 1.25002 1.2695
3867.601 1.4885 1.635 1.4408 1.4932 1.4531 1.25788 1.4377 1.4805 1.4962 1.5626
3886.890 1.5126 1.4147 1.3677 1.3512 1.3804 1.5665 1.5382 1.2989 1.0933 1.3267
3906.180 1.5533 1.4459 1.3879 1.2601 1.18857 1.2997 1.4198 1.4793 1.4589 1.1804
3925.470 1.15413 1.3315 1.3015 1.4458 1.5635 1.2938 1.18721 1.2747 1.2917 1.431
3944.760 1.4297 1.453 1.5178 1.5964 1.6752 1.6421 1.5486 1.5989 1.6171 1.5165
3964.049 1.5466 1.5512 1.5775 1.5699 1.5292 1.398 1.4635 1.7337 1.8007 1.6992
3983.339 1.4257 1.4084 1.4962 1.4908 1.3752 1.3993 1.4427 1.4119 1.3386 1.1424
##END=
