##TITLE=2,5-Dimethylpyrrole
##JCAMP-DX=4.24
##DATA TYPE=INFRARED SPECTRUM
##ORIGIN=NIST Mass Spectrometry Data Center
##OWNER=NIST Standard Reference Data Program
Collection (C) 2018 copyright by the U.S. Secretary of Commerce
on behalf of the United States of America. All rights reserved.
##CAS REGISTRY NO=625-84-3
##MOLFORM=C 6 H 9 N
##$NIST SOURCE=MSDC-IR
##SPECTROMETER/DATA SYSTEM=HP-GC/MS/IRD
##STATE=gas
##XUNITS=1/CM
##YUNITS=ABSORBANCE
##XFACTOR=1.0
##YFACTOR=0.000002600
##DELTAX=4.0
##FIRSTX=550.0
##LASTX=3846.0
##FIRSTY=0.000270
##MAXX=3846
##MINX=550
##MAXY=0.026
##MINY=0
##NPOINTS=825
##XYDATA=(X++(Y..Y))
550.0 104 109 123 128 82 30 9 47 75 80
590.0 113 155 228 336 485 623 764 900 1028 1246
630.0 1733 1863 1349 1044 949 813 658 498 343 227
670.0 181 157 155 163 159 167 168 182 189 201
710.0 262 332 385 521 759 1139 1694 2402 3203 4037
750.0 4819 5455 6933 10000 10000 7005 5745 5330 4590 3641
790.0 2662 1778 1148 758 535 377 274 218 212 198
830.0 179 152 151 171 180 178 189 213 256 337
870.0 453 592 778 1031 1382 1799 2240 2669 2925 2946
910.0 2908 2953 2932 2677 2215 1737 1368 1083 874 746
950.0 709 687 674 683 705 751 820 931 1050 1167
990.0 1198 1111 1064 1141 1187 1124 1066 1058 1162 1359
1030.0 1481 1377 1212 1307 1418 1281 1032 829 665 531
1070.0 450 359 264 223 196 159 165 180 175 153
1110.0 153 166 177 189 202 208 200 208 217 213
1150.0 222 245 307 460 735 1029 1158 1132 1125 1070
1190.0 1007 820 494 283 222 220 236 274 332 419
1230.0 517 622 758 915 1006 992 982 1054 1069 916
1270.0 725 576 465 389 338 295 263 248 251 265
1310.0 280 301 324 352 389 425 470 516 567 624
1350.0 682 750 845 957 1081 1223 1356 1493 1679 1879
1390.0 2057 2257 2544 2923 3328 3607 3682 3610 3437 3130
1430.0 2638 2044 1496 1128 970 958 943 840 758 732
1470.0 731 733 720 710 731 775 843 930 1039 1161
1510.0 1273 1357 1392 1353 1274 1221 1155 1021 847 686
1550.0 569 507 490 485 494 536 633 810 1073 1401
1590.0 1679 1824 1838 1783 1707 1561 1286 978 801 748
1630.0 716 685 672 672 647 566 465 377 305 262
1670.0 226 188 154 137 132 116 96 82 69 64
1710.0 57 52 51 43 44 43 41 33 25 22
1750.0 20 19 15 17 23 34 37 37 40 46
1790.0 51 40 39 37 26 27 28 24 23 25
1830.0 28 28 20 17 31 31 26 27 33 38
1870.0 31 22 23 22 18 15 9 3 0 4
1910.0 6 1 2 4 0 0 6 13 15 14
1950.0 10 13 16 18 19 18 17 23 29 33
1990.0 39 34 40 42 37 39 34 33 40 38
2030.0 25 24 32 32 29 28 32 32 28 26
2070.0 27 23 19 28 30 22 23 23 14 16
2110.0 19 10 9 20 22 19 22 23 22 16
2150.0 10 10 8 13 22 26 28 33 39 40
2190.0 42 47 55 61 61 59 61 55 46 41
2230.0 41 41 34 36 37 32 32 31 24 16
2270.0 14 28 37 37 37 40 43 48 42 32
2310.0 30 30 36 33 29 40 46 45 51 53
2350.0 60 65 66 65 70 76 72 67 68 74
2390.0 77 76 77 86 103 130 150 172 195 193
2430.0 187 192 185 169 149 126 107 89 86 94
2470.0 98 96 96 90 88 96 97 87 85 85
2510.0 81 74 62 57 58 57 45 40 48 55
2550.0 59 62 64 62 71 80 80 91 111 108
2590.0 108 113 112 104 110 119 115 112 126 140
2630.0 142 157 174 182 187 197 201 203 210 201
2670.0 195 196 198 188 171 157 144 142 139 136
2710.0 132 145 172 196 227 286 364 443 508 553
2750.0 580 582 576 524 446 387 355 349 328 319
2790.0 338 364 378 396 433 490 546 606 699 814
2830.0 937 1074 1229 1399 1600 1843 2118 2442 2798 3168
2870.0 3501 3795 4081 4284 4372 4432 4547 4717 4900 5108
2910.0 5422 5900 6411 6774 6915 6877 6752 6635 6328 5350
2950.0 4164 3346 2797 2431 2212 2088 2054 2057 2049 2026
2990.0 1976 1898 1802 1682 1537 1427 1380 1371 1383 1397
3030.0 1416 1414 1383 1330 1255 1167 1062 959 885 848
3070.0 850 885 953 1052 1125 1194 1287 1399 1493 1536
3110.0 1515 1424 1352 1318 1177 932 693 486 348 252
3150.0 186 151 115 89 93 102 102 94 86 90
3190.0 89 79 99 87 66 74 74 83 82 77
3230.0 73 56 54 51 47 54 60 55 53 66
3270.0 57 39 50 58 62 74 84 86 61 46
3310.0 48 48 66 61 34 46 69 72 65 57
3350.0 52 48 46 56 62 56 59 59 67 72
3390.0 66 59 52 68 88 111 113 110 131 163
3430.0 177 224 290 336 404 482 584 708 866 1067
3470.0 1256 1476 1794 2226 2713 3107 3184 2832 2567 2787
3510.0 2836 2318 1637 1110 772 546 369 230 163 119
3550.0 94 91 86 72 71 66 48 60 75 69
3590.0 55 52 46 30 34 50 48 29 37 50
3630.0 43 34 31 48 66 69 47 43 52 41
3670.0 24 15 44 70 76 66 48 58 69 66
3710.0 74 75 67 58 53 58 62 57 53 73
3750.0 81 66 71 86 86 76 84 91 79 73
3790.0 75 81 89 87 95 104 98 103 116 102
3830.0 97 107 102 94 86
##END=
