##TITLE=p-Methoxy-.alpha.-toluenethiol
##JCAMP-DX=4.24
##DATA TYPE=INFRARED SPECTRUM
##ORIGIN=EPA-IR VAPOR PHASE LIBRARY
##OWNER=SRD/NIST
Collection (C) 2018 copyright by the U.S. Secretary of Commerce
on behalf of the United States of America. All rights reserved.
##CAS REGISTRY NO=6258-60-2
##MOLFORM=C 8 H 10 O S
##$NIST SOURCE=MSDC-IR
##STATE=gas
##XUNITS=1/CM
##YUNITS=ABSORBANCE
##XFACTOR=1.
##YFACTOR=0.001
##DELTAX=1.92898
##FIRSTX=549.8
##LASTX=4000.7
##FIRSTY=11.107
##MAXX=4000.7
##MINX=549.759
##MAXY=0.257017
##MINY=0
##NPOINTS=1790
##XYDATA=(X++(Y..Y))
549.759 11.107 9.747 8.497 7.657 7.117 6.337 5.447 4.897 4.537 4.207
569.049 3.757 3.507 3.467 3.297 2.997 2.687 2.567 2.547 2.397 2.197
588.339 2.077 2.117 1.907 1.607 1.707 1.647 1.387 1.407 1.407 1.407
607.628 1.507 1.427 1.427 1.507 1.447 1.487 1.707 1.857 2.037 2.217
626.918 2.277 2.447 2.747 3.037 3.337 3.777 4.297 4.847 5.357 6.137
646.208 7.077 7.987 9.157 10.487 11.727 12.937 14.057 14.877 15.607 16.077
665.498 16.167 16.007 15.557 14.887 14.087 13.277 12.437 11.417 10.437 9.447
684.787 8.517 7.657 6.767 6.187 5.657 5.107 4.697 4.367 4.157 4.037
704.077 3.847 3.657 3.697 3.627 3.587 3.677 3.887 4.187 4.327 4.537
723.367 4.737 4.927 5.097 5.217 5.497 5.787 5.817 5.827 6.007 6.097
742.657 6.147 6.257 6.327 6.237 5.897 5.597 5.487 5.217 4.897 4.707
761.947 4.417 4.267 4.217 4.167 4.157 4.117 4.287 4.397 4.547 4.897
781.236 5.187 5.497 5.857 6.217 6.727 7.507 8.407 9.217 10.107 11.277
800.526 12.577 13.967 15.407 16.837 18.417 20.157 22.037 24.047 26.167 28.487
819.816 30.837 33.127 35.517 37.727 39.657 41.047 41.507 41.007 39.697 37.907
839.106 35.597 32.697 29.337 25.827 22.507 19.397 16.607 14.257 12.207 10.527
858.395 9.177 7.967 7.017 6.357 5.667 5.067 4.727 4.527 4.187 3.787
877.685 3.637 3.477 3.127 2.977 2.987 2.847 2.677 2.657 2.657 2.617
896.975 2.637 2.577 2.497 2.477 2.357 2.357 2.397 2.377 2.277 2.237
916.265 2.297 2.257 2.267 2.357 2.397 2.437 2.437 2.447 2.467 2.497
935.555 2.637 2.757 2.777 2.797 2.967 3.077 3.087 3.197 3.357 3.547
954.844 3.637 3.767 3.957 4.137 4.337 4.657 4.987 5.247 5.587 5.937
974.134 6.267 6.597 6.927 7.137 7.287 7.497 7.657 7.857 8.027 8.217
993.424 8.347 8.477 8.887 9.447 10.157 10.887 11.597 12.627 13.807 14.807
1012.714 16.127 17.897 19.817 21.837 24.237 27.297 30.687 34.377 38.337 42.447
1032.003 46.357 49.977 53.237 55.657 56.787 56.857 55.657 52.917 49.377 45.307
1051.293 40.797 35.907 31.047 26.517 22.547 19.357 16.787 14.657 12.937 11.617
1070.583 10.617 9.687 8.967 8.567 8.137 7.867 7.837 7.887 7.907 8.297
1089.873 8.867 9.207 9.687 10.467 11.237 11.857 12.187 12.407 12.547 12.457
1109.163 12.267 11.987 11.807 11.337 10.727 10.087 9.287 8.647 8.247 7.767
1128.452 7.267 7.027 6.837 6.827 6.907 6.857 6.887 7.007 7.257 7.847
1147.742 8.427 9.197 10.297 11.517 13.307 15.917 19.537 24.587 31.597 40.667
1167.032 50.947 60.417 66.787 69.787 71.227 71.277 68.307 61.387 51.637 41.967
1186.322 34.437 28.937 24.947 21.947 19.857 18.857 18.397 18.357 18.677 19.037
1205.611 19.697 20.707 21.997 23.607 25.417 27.827 30.807 34.587 39.607 45.917
1224.901 53.747 63.517 75.767 91.417 110.787 133.627 159.447 186.707 212.637 234.187
1244.191 249.197 256.897 257.017 249.297 233.107 209.337 181.457 153.867 129.757 109.847
1263.481 94.047 81.807 72.477 65.727 61.107 58.167 56.067 54.707 54.097 53.977
1282.771 54.247 54.857 55.727 56.757 57.687 58.087 57.647 55.987 53.277 49.767
1302.060 45.557 40.787 35.757 30.977 26.857 23.727 21.567 20.147 19.107 18.187
1321.350 17.357 16.477 15.517 14.467 13.367 12.347 11.397 10.557 9.807 9.127
1340.640 8.527 7.957 7.507 7.097 6.717 6.407 6.177 5.887 5.617 5.397
1359.930 5.187 5.027 4.857 4.697 4.517 4.297 4.147 4.067 3.987 3.907
1379.219 3.867 3.827 3.817 3.827 3.877 3.947 4.037 4.187 4.357 4.577
1398.509 4.817 5.067 5.337 5.607 5.937 6.357 6.757 7.107 7.527 8.027
1417.799 8.497 9.007 9.627 10.287 11.077 11.927 12.967 14.237 15.727 17.437
1437.089 19.337 21.207 22.787 23.717 24.007 24.167 24.477 24.677 24.527 24.347
1456.378 24.677 25.697 27.177 29.017 30.707 31.687 31.627 30.847 30.007 29.117
1475.668 27.767 25.807 23.897 22.577 22.137 22.597 24.027 26.537 30.377 35.957
1494.958 44.047 55.727 71.677 92.607 118.477 146.627 174.057 194.377 203.057 201.817
1514.248 193.717 179.347 156.377 125.537 90.527 62.497 43.237 31.287 24.087 19.497
1533.538 16.417 14.197 12.667 11.497 10.597 9.887 9.377 8.937 8.597 8.347
1552.827 8.237 8.167 8.177 8.247 8.397 8.617 8.937 9.437 10.107 10.987
1572.117 12.087 13.317 14.737 16.257 17.737 19.267 20.737 22.197 23.667 25.227
1591.407 26.877 28.857 31.257 34.177 37.747 41.577 45.297 48.527 50.957 52.267
1610.697 52.317 50.987 48.217 44.237 39.637 34.787 29.767 24.957 20.737 17.287
1629.986 14.587 12.597 11.127 9.967 8.987 8.257 7.647 7.147 6.707 6.307
1649.276 5.947 5.657 5.407 5.097 4.727 4.427 4.207 4.017 3.807 3.617
1668.566 3.477 3.347 3.237 3.117 2.987 2.907 2.857 2.777 2.687 2.597
1687.856 2.477 2.367 2.277 2.197 2.097 1.997 1.897 1.787 1.707 1.657
1707.146 1.597 1.587 1.607 1.607 1.587 1.627 1.687 1.707 1.677 1.697
1726.435 1.777 1.807 1.837 1.907 1.987 2.087 2.197 2.317 2.447 2.607
1745.725 2.767 2.937 3.027 3.067 3.037 2.927 2.827 2.727 2.527 2.287
1765.015 2.077 1.947 1.877 1.767 1.657 1.627 1.587 1.567 1.487 1.437
1784.305 1.437 1.387 1.337 1.317 1.277 1.237 1.247 1.267 1.277 1.227
1803.594 1.177 1.177 1.177 1.1635 1.177 1.217 1.247 1.297 1.337 1.397
1822.884 1.447 1.487 1.577 1.637 1.667 1.747 1.827 1.917 1.987 2.027
1842.174 2.097 2.197 2.287 2.387 2.467 2.537 2.627 2.747 2.827 2.877
1861.464 3.007 3.167 3.277 3.317 3.407 3.527 3.537 3.537 3.507 3.477
1880.754 3.397 3.287 3.197 3.097 2.997 2.887 2.787 2.687 2.587 2.527
1900.043 2.437 2.377 2.297 2.257 2.227 2.147 2.067 2.017 1.997 1.957
1919.333 1.907 1.877 1.807 1.737 1.727 1.687 1.607 1.567 1.597 1.567
1938.623 1.507 1.487 1.497 1.527 1.537 1.517 1.497 1.517 1.557 1.607
1957.913 1.637 1.637 1.677 1.737 1.787 1.867 1.917 1.957 2.017 2.137
1977.202 2.247 2.357 2.507 2.617 2.717 2.797 2.867 2.967 3.027 3.067
1996.492 3.087 3.077 3.037 2.987 2.967 2.927 2.867 2.797 2.727 2.667
2015.782 2.627 2.587 2.567 2.527 2.507 2.527 2.527 2.577 2.637 2.627
2035.072 2.617 2.677 2.757 2.807 2.867 2.957 3.057 3.137 3.207 3.277
2054.362 3.407 3.527 3.567 3.637 3.717 3.777 3.837 3.907 3.937 3.947
2073.651 3.947 3.927 3.887 3.757 3.647 3.557 3.387 3.147 2.927 2.677
2092.941 2.447 2.247 1.987 1.727 1.567 1.457 1.337 1.277 1.207 1.1379
2112.231 1.0745 1.0103 0.985 0.9514 0.9159 0.9164 0.8622 0.7974 0.7992 0.7988
2131.521 0.752 0.7323 0.726 0.6762 0.6718 0.6494 0.6013 0.5784 0.5559 0.4949
2150.810 0.4648 0.5257 0.5667 0.5281 0.4877 0.5332 0.5532 0.5132 0.5549 0.5917
2170.100 0.5664 0.5937 0.5924 0.5501 0.5769 0.6117 0.6065 0.6158 0.6257 0.6076
2189.390 0.614 0.6043 0.6111 0.6748 0.6809 0.6722 0.6739 0.6763 0.7206 0.7844
2208.680 0.812 0.7944 0.7947 0.7821 0.7753 0.8046 0.8099 0.8037 0.8073 0.7866
2227.970 0.7806 0.8176 0.8351 0.8527 0.8722 0.8849 0.8995 0.9141 0.9611 0.9969
2247.259 1.0403 1.0562 1.1226 1.257 1.277 1.297 1.357 1.347 1.337 1.307
2266.549 1.307 1.377 1.387 1.357 1.357 1.417 1.457 1.427 1.447 1.437
2285.839 1.397 1.427 1.437 1.397 1.367 1.347 1.337 1.307 1.317 1.257
2305.129 1.187 1.1265 1.1107 1.1595 1.177 1.197 1.197 1.197 1.227 1.247
2324.418 1.227 1.217 1.207 1.197 1.237 1.267 1.277 1.307 1.297 1.267
2343.708 1.317 1.347 1.307 1.247 1.177 1.1094 1.0664 1.0083 0.9181 0.8777
2362.998 0.8189 0.7885 0.7673 0.719 0.6724 0.619 0.6283 0.6679 0.6402 0.6254
2382.288 0.644 0.6345 0.6349 0.6439 0.6279 0.6657 0.7297 0.7615 0.7686 0.8015
2401.578 0.8567 0.9167 1.0029 1.0402 1.0716 1.1469 1.217 1.257 1.317 1.357
2420.867 1.427 1.427 1.367 1.407 1.437 1.397 1.317 1.257 1.257 1.217
2440.157 1.207 1.207 1.227 1.227 1.177 1.1655 1.1404 1.1525 1.187 1.207
2459.447 1.217 1.207 1.237 1.307 1.287 1.337 1.417 1.457 1.527 1.527
2478.737 1.517 1.577 1.687 1.747 1.757 1.747 1.737 1.717 1.717 1.787
2498.026 1.767 1.727 1.727 1.597 1.537 1.587 1.627 1.617 1.577 1.627
2517.316 1.677 1.697 1.797 1.897 1.937 1.997 2.077 2.147 2.187 2.217
2536.606 2.307 2.447 2.507 2.477 2.537 2.587 2.577 2.497 2.377 2.277
2555.896 2.187 2.137 2.067 1.997 1.967 1.987 2.057 2.147 2.257 2.407
2575.186 2.607 2.837 3.117 3.437 3.697 3.827 3.897 3.827 3.707 3.567
2594.475 3.317 3.037 2.757 2.497 2.207 2.027 1.957 1.837 1.677 1.587
2613.765 1.537 1.497 1.407 1.347 1.337 1.397 1.387 1.297 1.257 1.287
2633.055 1.317 1.307 1.317 1.307 1.287 1.237 1.237 1.277 1.177 1.1147
2652.345 1.197 1.187 1.0729 1.0449 1.0588 1.0384 1.0265 1.035 1.0594 1.0401
2671.634 1.0617 1.167 1.1467 1.143 1.207 1.247 1.267 1.297 1.347 1.307
2690.924 1.297 1.307 1.307 1.297 1.267 1.267 1.237 1.237 1.207 1.148
2710.214 1.1562 1.1653 1.197 1.207 1.207 1.237 1.227 1.187 1.1664 1.167
2729.504 1.197 1.217 1.257 1.297 1.257 1.257 1.347 1.387 1.397 1.487
2748.794 1.497 1.507 1.577 1.597 1.587 1.607 1.697 1.707 1.777 1.757
2768.083 1.737 1.787 1.787 1.847 1.937 2.027 2.167 2.217 2.247 2.457
2787.373 2.627 2.707 2.857 3.037 3.167 3.247 3.377 3.657 3.897 4.107
2806.663 4.467 4.707 4.947 5.347 5.727 6.127 6.617 7.117 7.797 8.597
2825.953 9.467 10.617 12.027 13.867 16.117 18.807 21.667 24.087 25.877 26.907
2845.242 27.297 27.197 26.357 24.657 22.337 19.917 17.727 15.927 14.557 13.517
2864.532 12.677 11.967 11.407 10.947 10.617 10.377 10.217 10.137 10.067 10.197
2883.822 10.467 10.737 11.077 11.507 12.047 12.687 13.297 14.077 15.127 16.257
2903.112 17.597 18.957 20.327 21.837 23.407 24.887 25.977 26.907 27.737 28.327
2922.401 28.867 29.567 30.587 31.977 33.657 35.567 37.917 40.447 42.797 44.947
2941.691 46.517 47.447 47.917 47.887 47.257 46.057 44.577 42.887 41.197 39.567
2960.981 37.867 36.087 34.217 32.387 30.637 28.937 27.297 25.927 24.757 23.657
2980.271 22.787 22.157 21.777 21.747 22.027 22.537 23.447 24.797 26.547 28.777
2999.561 31.487 34.447 37.057 38.547 38.737 37.987 36.667 34.817 32.087 28.727
3018.850 25.607 23.227 21.897 21.567 21.817 22.567 23.547 24.357 24.767 24.717
3038.140 24.217 23.187 21.727 19.967 17.997 16.027 14.377 13.067 12.047 11.477
3057.430 11.227 11.047 10.987 11.177 11.637 12.047 12.367 12.647 12.827 12.917
3076.720 12.817 12.457 11.957 11.327 10.697 10.127 9.537 9.157 8.917 8.697
3096.009 8.507 8.287 8.077 7.847 7.687 7.447 7.097 6.757 6.317 5.927
3115.299 5.517 5.107 4.837 4.567 4.267 4.017 3.897 3.627 3.237 3.107
3134.589 2.987 2.767 2.537 2.467 2.267 1.897 1.787 1.737 1.597 1.487
3153.879 1.487 1.437 1.387 1.427 1.387 1.377 1.387 1.377 1.387 1.187
3173.169 1.0994 1.1079 1.028 0.9618 0.9047 0.9044 0.8597 0.845 0.8536 0.8056
3192.458 0.7925 0.7314 0.686 0.6872 0.7429 0.7882 0.9062 0.9049 0.7503 0.6793
3211.748 0.5752 0.592 0.5762 0.5705 0.6215 0.5768 0.5822 0.5976 0.5853 0.5388
3231.038 0.5724 0.561 0.4639 0.4132 0.3441 0.3362 0.2771 0.302 0.4194 0.4385
3250.328 0.4231 0.3491 0.3349 0.3564 0.34 0.3329 0.3459 0.2672 0.18835 0.25927
3269.617 0.2807 0.2706 0.3295 0.3669 0.3205 0.20631 0.172519 0.26621 0.3247 0.335
3288.907 0.3166 0.2814 0.24258 0.21499 0.18003 0.17735 0.2543 0.2992 0.3118 0.3084
3308.197 0.3015 0.2674 0.2693 0.291 0.24386 0.21286 0.26296 0.26004 0.18767 0.1481
3327.487 0.170536 0.19114 0.1346 0.1448 0.173591 0.18996 0.21049 0.21744 0.2733 0.2868
3346.777 0.22175 0.15912 0.175364 0.20672 0.19928 0.14 0.105 0.17847 0.2267 0.16446
3366.066 0.172574 0.22753 0.1464 0.1407 0.26502 0.2712 0.15778 0.19729 0.3113 0.2334
3385.356 0.1168 0.1293 0.19726 0.18831 0.17719 0.21242 0.19622 0.1472 0.1209 0.0887
3404.646 0.029 0.0708 0.18335 0.21384 0.23668 0.2894 0.2784 0.18436 0.1325 0.18126
3423.936 0.2455 0.2764 0.19963 0.1362 0.1497 0.156 0.1292 0.21262 0.3025 0.2855
3443.225 0.3022 0.23544 0.2152 0.20742 0.18545 0.1483 0.1252 0.22652 0.22914 0.18724
3462.515 0.18221 0.1489 0.1309 0.058 0.064 0.19814 0.23153 0.23877 0.22171 0.1065
3481.805 0.17199 0.3421 0.2868 0.20166 0.15936 0.20241 0.3007 0.2979 0.26448 0.26202
3501.095 0.3483 0.3271 0.19448 0.23622 0.22508 0.16394 0.1927 0.176843 0.23679 0.21957
3520.385 0.20028 0.19479 0.21097 0.3088 0.24602 0.25747 0.2691 0.19577 0.21207 0.24275
3539.674 0.22451 0.2713 0.3243 0.3041 0.2803 0.18552 0.15874 0.2949 0.3542 0.3082
3558.964 0.3401 0.3291 0.3334 0.2831 0.2024 0.3086 0.3961 0.3134 0.2212 0.19917
3578.254 0.166729 0.172954 0.20093 0.20736 0.15987 0.055 0 0.1052 0.1452 0.1298
3597.544 0.20774 0.15 0.012 0.051 0.1129 0.23967 0.2974 0.19643 0.24206 0.25662
3616.833 0.2867 0.2764 0.2746 0.26206 0.24734 0.20315 0.22681 0.4042 0.3422 0.172035
3636.123 0.1208 0.22459 0.0998 0.003 0.19796 0.20488 0.15971 0.23311 0.18546 0.167152
3655.413 0.18353 0.2093 0.2976 0.339 0.4039 0.3984 0.25697 0.3108 0.4127 0.3464
3674.703 0.22762 0.21421 0.25791 0.22724 0.19156 0.26459 0.3409 0.3165 0.2614 0.23758
3693.993 0.3299 0.3566 0.2788 0.15819 0.19574 0.24152 0.19841 0.15924 0.2747 0.4048
3713.282 0.3341 0.3547 0.401 0.3378 0.2722 0.26372 0.3339 0.4092 0.3434 0.23748
3732.572 0.18691 0.2815 0.3429 0.26405 0.2748 0.24719 0.18321 0.19424 0.1139 0.19261
3751.862 0.3607 0.2778 0.25534 0.2695 0.2944 0.3909 0.2708 0.17694 0.21421 0.15868
3771.152 0.2975 0.4177 0.3617 0.3548 0.304 0.2737 0.3845 0.5085 0.3726 0.3572
3790.441 0.3986 0.299 0.19631 0.1391 0.2798 0.3568 0.3256 0.4068 0.5245 0.4619
3809.731 0.2697 0.174479 0.2702 0.2855 0.22922 0.2215 0.3412 0.3458 0.2847 0.274
3829.021 0.20661 0.1567 0.176892 0.25318 0.3447 0.2965 0.1353 0.16214 0.16167 0.1193
3848.311 0.23536 0.3399 0.2551 0.3641 0.4382 0.4189 0.3818 0.3376 0.3825 0.3773
3867.601 0.3828 0.4244 0.4614 0.4629 0.5504 0.5683 0.5059 0.5521 0.5313 0.4295
3886.890 0.5701 0.7707 0.7236 0.5746 0.5833 0.6826 0.6276 0.4091 0.4376 0.4687
3906.180 0.4079 0.4758 0.3547 0.25227 0.25504 0.4161 0.5299 0.4424 0.3963 0.2924
3925.470 0.3088 0.4778 0.4227 0.2899 0.3236 0.3755 0.4239 0.4738 0.3692 0.25324
3944.760 0.3517 0.4571 0.4979 0.4536 0.3467 0.4248 0.4718 0.4574 0.3936 0.3304
3964.049 0.25342 0.136 0.4232 0.656 0.4528 0.473 0.6452 0.5521 0.4732 0.4801
3983.339 0.5362 0.501 0.4917 0.5613 0.5079 0.4083 0.4708 0.6055 0.5703 0.5716
##END=
