##TITLE=4-Chloro-.alpha.,.alpha.-dimethylphenyl acetic acid
##JCAMP-DX=4.24
##DATA TYPE=INFRARED SPECTRUM
##ORIGIN=EPA-IR VAPOR PHASE LIBRARY
##OWNER=SRD/NIST
Collection (C) 2018 copyright by the U.S. Secretary of Commerce
on behalf of the United States of America. All rights reserved.
##CAS REGISTRY NO=6258-30-6
##MOLFORM=C 10 H 11 Cl O 2
##$NIST SOURCE=MSDC-IR
##STATE=gas
##XUNITS=1/CM
##YUNITS=ABSORBANCE
##XFACTOR=1.
##YFACTOR=0.001
##DELTAX=1.92898
##FIRSTX=549.8
##LASTX=4000.7
##FIRSTY=16.727
##MAXX=4000.7
##MINX=549.759
##MAXY=0.096377
##MINY=0
##NPOINTS=1790
##XYDATA=(X++(Y..Y))
549.759 16.727 16.607 16.367 16.077 16.337 16.527 16.427 16.277 16.627 17.567
569.049 18.247 18.697 19.447 20.277 20.707 21.117 20.867 20.277 19.497 18.667
588.339 17.417 15.687 14.767 13.907 12.527 11.037 10.247 9.807 9.597 8.977
607.628 8.077 7.647 7.177 6.727 6.527 6.687 6.677 6.087 5.727 5.827
626.918 5.907 6.457 6.627 6.787 7.407 8.357 9.467 10.237 10.397 10.117
646.208 10.117 10.207 9.677 8.387 7.177 5.977 5.487 4.707 3.457 2.987
665.498 2.727 2.187 1.437 1.487 2.027 2.387 2.177 2.157 2.247 1.917
684.787 1.537 1.337 1.697 1.937 2.027 2.317 2.557 2.447 2.167 2.437
704.077 2.587 2.507 2.557 2.937 3.407 3.637 3.827 4.267 4.657 4.767
723.367 5.687 6.907 8.437 10.757 13.277 15.277 15.987 15.697 14.927 13.247
742.657 10.757 8.147 6.317 5.407 5.127 5.147 5.337 5.627 5.987 6.757
761.947 7.377 7.647 7.917 7.587 7.247 6.947 6.257 5.287 4.637 4.567
781.236 4.417 4.367 4.367 3.887 3.157 2.987 3.347 3.457 3.507 3.677
800.526 3.907 4.277 4.747 5.387 5.937 6.937 7.727 8.277 9.357 10.667
819.816 11.287 10.917 11.487 14.127 15.587 15.137 14.407 12.737 10.937 9.477
839.106 7.937 6.797 5.537 4.257 3.737 3.587 3.067 2.477 2.357 2.047
858.395 2.127 2.047 1.547 1.637 1.497 1.192 1.567 1.407 1.1328 1.2536
877.685 1.2141 1.327 1.1044 0.7279 0.4159 0.5805 0.9483 0.849 0.9116 1.0116
896.975 0.8899 1.0031 1.327 1.417 1.517 1.577 1.477 1.727 1.887 1.697
916.265 1.437 1.487 1.547 1.327 1.2496 1.637 2.047 2.087 2.107 1.997
935.555 1.947 2.207 2.207 1.957 2.097 1.977 1.687 1.677 1.647 1.547
954.844 1.697 1.777 1.437 1.587 1.827 1.457 1.387 1.707 1.577 1.1121
974.134 1.147 1.547 1.787 1.747 1.647 1.817 1.717 1.287 1.537 2.097
993.424 2.377 3.127 3.347 3.637 4.727 6.387 9.127 13.117 17.257 20.307
1012.714 22.067 22.257 21.757 20.197 16.477 11.927 8.487 5.807 4.447 4.417
1032.003 4.497 4.367 4.147 4.467 4.577 4.237 3.887 4.317 4.617 5.477
1051.293 6.417 6.377 7.387 8.227 8.977 9.927 10.887 12.377 13.767 14.537
1070.583 16.697 19.297 21.357 23.587 25.777 29.787 33.777 37.247 41.427 47.957
1089.873 55.537 62.647 69.907 76.627 81.967 85.227 85.987 82.747 77.287 72.077
1109.163 64.827 58.047 52.937 48.117 45.677 42.567 39.167 35.837 32.417 29.667
1128.452 26.307 23.177 20.447 18.287 16.487 14.977 13.887 13.037 11.977 11.157
1147.742 11.507 12.417 12.647 11.597 11.477 11.387 10.567 10.377 10.277 9.837
1167.032 9.597 9.557 8.957 8.857 9.307 9.287 9.147 9.177 8.687 8.867
1186.322 9.967 9.887 9.727 9.477 10.347 11.247 10.497 10.767 11.077 10.907
1205.611 11.097 10.527 9.247 8.967 9.897 8.897 6.597 6.657 7.277 6.997
1224.901 6.837 6.457 6.307 6.527 5.347 4.547 5.177 5.367 4.867 4.547
1244.191 4.157 4.137 4.287 4.057 4.007 3.877 3.397 3.397 3.577 3.687
1263.481 3.557 3.337 3.197 3.557 4.167 4.127 4.417 4.977 5.417 5.537
1282.771 5.807 6.137 6.357 6.687 6.917 7.237 7.517 7.637 7.797 7.827
1302.060 7.507 7.217 7.207 6.957 6.527 6.357 6.157 5.847 5.507 5.187
1321.350 4.947 4.687 4.417 4.197 3.917 3.717 3.537 3.427 3.337 3.127
1340.640 3.137 3.287 3.257 3.167 3.217 3.387 3.517 3.567 3.697 4.067
1359.930 4.357 4.427 4.687 4.977 5.407 5.717 5.757 5.837 5.847 5.967
1379.219 6.127 6.347 6.697 6.937 7.427 8.167 8.807 9.317 9.517 9.467
1398.509 9.187 8.647 8.007 7.187 6.267 5.537 4.857 4.417 4.157 3.747
1417.799 3.417 3.307 3.247 3.077 2.947 2.967 3.187 3.287 3.167 3.237
1437.089 3.527 3.747 3.917 4.267 4.647 4.947 5.277 5.567 5.907 6.407
1456.378 6.897 7.417 7.977 8.587 9.337 10.137 11.117 12.217 13.247 14.347
1475.668 15.567 16.897 18.567 20.617 22.967 25.717 28.657 31.467 33.657 34.497
1494.958 33.797 31.797 28.617 24.447 20.077 15.747 12.097 9.557 7.737 6.467
1514.248 5.417 4.667 4.227 3.797 3.447 3.177 3.007 2.927 2.637 2.477
1533.538 2.507 2.427 2.387 2.327 2.167 2.137 2.047 1.937 1.907 1.887
1552.827 1.797 1.707 1.647 1.667 1.597 1.677 2.017 2.047 1.857 1.737
1572.117 1.727 1.657 1.787 1.977 1.877 1.977 2.297 2.387 2.257 2.377
1591.407 2.747 2.847 2.637 2.517 2.557 2.527 2.377 2.367 2.267 1.937
1610.697 1.687 1.587 1.667 1.637 1.627 1.747 1.607 1.447 1.597 1.787
1629.986 1.687 1.787 1.877 1.937 2.127 2.097 2.117 2.167 2.037 1.877
1649.276 1.857 1.747 1.787 1.757 1.667 1.567 1.437 1.437 1.467 1.517
1668.566 1.527 1.597 1.647 1.687 1.607 1.587 1.597 1.497 1.407 1.627
1687.856 1.897 2.047 2.187 2.237 2.247 2.447 2.627 2.767 3.027 3.317
1707.146 3.527 3.677 4.207 4.887 5.417 6.107 7.017 7.867 8.697 9.447
1726.435 10.187 10.807 11.287 11.817 12.347 13.207 14.357 15.647 17.127 19.137
1745.725 21.557 24.697 28.977 34.437 41.117 49.107 58.627 69.077 79.487 88.357
1765.015 94.147 96.377 94.777 89.337 80.127 68.717 57.327 47.317 39.077 32.527
1784.305 27.497 23.747 21.147 19.357 17.977 16.757 15.487 14.227 13.027 11.637
1803.594 10.297 9.097 8.047 7.087 6.197 5.407 4.707 4.327 3.857 3.407
1822.884 3.127 2.807 2.637 2.427 2.307 2.357 2.327 2.157 1.877 1.727
1842.174 1.747 1.767 1.697 1.657 1.607 1.517 1.447 1.507 1.557 1.417
1861.464 1.367 1.467 1.567 1.537 1.537 1.607 1.617 1.657 1.767 1.927
1880.754 1.887 1.747 1.747 1.937 1.977 1.987 2.117 1.977 1.857 1.827
1900.043 1.697 1.577 1.607 1.537 1.537 1.477 1.397 1.457 1.347 1.2408
1919.333 1.2123 1.1977 1.2109 1.1496 1.2159 1.0643 0.8364 0.9775 1.0182 0.9039
1938.623 0.8496 0.7335 0.8587 1.2481 1.2012 0.9238 0.8837 0.9387 1.0259 1.0382
1957.913 1.0111 1.0604 1.0305 0.9464 0.9434 1.0783 1.0862 0.9787 0.8517 0.7139
1977.202 0.7172 0.8109 0.6914 0.689 0.7383 0.6604 0.879 0.9774 0.9295 0.7667
1996.492 0.7214 0.9202 0.8236 0.7288 0.8158 0.76 0.6531 0.7267 0.9134 0.8954
2015.782 0.7903 0.8759 0.9668 0.9326 0.8303 0.8044 0.8931 0.8313 0.7754 0.8239
2035.072 0.7569 0.6421 0.5979 0.651 0.6361 0.627 0.8332 0.8356 0.6595 0.6222
2054.362 0.6824 0.7121 0.6037 0.659 0.6682 0.5494 0.5536 0.5819 0.6083 0.6623
2073.651 0.6169 0.6476 0.7394 0.8199 0.9305 0.8176 0.7019 0.7743 0.6962 0.6449
2092.941 0.667 0.65 0.6271 0.6163 0.6941 0.7668 0.7577 0.6293 0.7119 0.7948
2112.231 0.6849 0.6794 0.6626 0.7038 0.6494 0.5867 0.7608 0.7524 0.6878 0.8503
2131.521 0.7647 0.6497 0.6509 0.5901 0.6286 0.5669 0.6128 0.6755 0.6956 0.6987
2150.810 0.6543 0.5802 0.5385 0.6855 0.8 0.6763 0.7045 0.8263 0.7856 0.8503
2170.100 0.7485 0.5984 0.7046 0.7762 0.7135 0.7276 0.6932 0.6237 0.6867 0.775
2189.390 0.7734 0.8217 0.9587 0.9195 0.8443 0.9268 1.0818 1.0326 0.8728 0.9862
2208.680 1.1338 0.9799 0.9584 1.001 0.9695 0.9825 0.979 0.9088 0.7936 0.896
2227.970 1.1234 1.0891 0.8915 0.786 0.7985 0.7874 0.7742 0.7014 0.6703 0.764
2247.259 0.833 1.0194 0.8793 0.5543 0.5485 0.7237 0.7359 0.6566 0.6842 0.767
2266.549 0.7621 0.7344 0.721 0.697 0.6557 0.6436 0.7913 0.8636 0.7625 0.8805
2285.839 0.9235 0.6669 0.7538 0.8344 0.982 1.0344 0.9227 0.9526 0.8684 0.9184
2305.129 1.0147 0.8942 0.9061 0.9845 0.878 0.9581 0.9638 0.8927 0.9625 1.0247
2324.418 1.0453 0.8797 0.8393 0.8976 0.7603 0.7014 0.7826 0.7823 0.8349 0.8873
2343.708 0.8253 0.8664 0.6749 0.638 0.7561 0.4848 0.4126 0.5211 0.4826 0.61
2362.998 0.6432 0.54 0.6046 0.654 0.654 0.5823 0.6422 0.8049 0.8441 0.9252
2382.288 1.0209 0.9275 0.9123 0.8656 0.7658 0.7453 0.7956 0.7985 0.7051 0.8759
2401.578 0.9365 0.8906 0.9523 0.956 0.9666 0.9516 0.9296 0.7994 0.673 0.6812
2420.867 0.6556 0.6634 0.7659 0.7883 0.6161 0.7197 0.9032 0.8537 0.7988 0.7469
2440.157 0.806 0.6845 0.4928 0.5232 0.6157 0.8131 0.9639 0.7404 0.529 0.7552
2459.447 0.8206 0.958 0.9839 0.7265 0.7251 0.7618 0.8967 0.9844 0.8896 0.7169
2478.737 0.6455 0.657 0.6111 0.5123 0.6282 0.8148 0.7325 0.6912 0.6173 0.3655
2498.026 0.4318 0.7992 0.7225 0.7313 0.852 0.7593 0.865 0.7118 0.5723 0.5892
2517.316 0.6683 0.7442 0.679 0.7678 0.8759 0.7415 0.7727 0.8193 0.7098 0.5882
2536.606 0.5662 0.7441 0.9827 0.9291 0.7295 0.8009 0.9321 0.8067 0.572 0.6532
2555.896 0.7078 0.7624 0.8393 0.7621 0.7535 0.7204 0.5194 0.5665 0.6723 0.5973
2575.186 0.6776 0.7325 0.7257 0.6013 0.7244 0.9362 0.9122 0.9607 0.901 0.8445
2594.475 1.0017 1.0066 0.9477 0.9112 0.8269 0.9344 0.9009 0.7829 0.8918 0.9679
2613.765 0.9738 0.6634 0.3631 0.35602 0.4436 0.6643 0.5969 0.6998 0.6768 0.5893
2633.055 0.6393 0.4685 0.4319 0.5621 0.7241 0.7292 0.7845 0.8848 1.0621 1.0079
2652.345 0.69 0.6221 0.86 0.9501 0.765 0.8223 0.7769 0.6003 0.5219 0.4365
2671.634 0.6121 0.544 0.5336 0.6171 0.6863 0.8659 0.6666 0.6439 0.5653 0.5934
2690.924 0.6775 0.4781 0.6004 0.713 0.7475 0.6589 0.4438 0.6826 1.1663 1.0812
2710.214 0.4705 0.487 0.7754 0.5685 0.5194 0.6748 0.6178 0.4711 0.5535 0.7198
2729.504 0.722 0.8941 0.8176 0.6802 0.8088 0.8927 0.7005 0.6128 0.5848 0.7973
2748.794 1.0957 0.7797 0.7171 0.8196 0.6771 0.5524 0.4959 0.4508 0.5747 0.8345
2768.083 0.9698 0.9019 0.8328 1.0682 1.1826 1.0016 0.7628 0.7004 0.7486 0.7589
2787.373 0.7999 0.7491 0.7516 0.8549 0.8203 0.9451 1.0763 1.0246 1.0611 1.0721
2806.663 1.0822 0.8469 0.7132 1.0318 1.0577 0.8642 0.9193 0.8462 0.7952 0.9475
2825.953 1.0304 1.0299 1.1295 1.0684 1.2146 1.317 1.1018 1.0514 0.8972 1.0176
2845.242 1.417 1.427 1.397 1.397 1.477 1.727 1.547 1.357 1.597 1.767
2864.532 1.867 2.107 2.587 2.787 2.857 3.147 3.457 3.687 3.657 3.787
2883.822 3.787 3.907 4.117 4.317 4.687 4.777 4.617 4.697 4.717 4.487
2903.112 4.327 4.277 4.247 4.057 4.157 4.687 4.757 4.287 4.397 4.877
2922.401 5.247 5.717 5.837 6.207 6.657 6.957 7.587 8.047 8.407 8.827
2941.691 9.057 9.107 9.047 8.997 8.907 8.977 9.097 8.797 8.557 8.317
2960.981 7.947 7.627 7.617 7.767 8.107 8.877 10.277 12.257 14.457 17.147
2980.271 20.257 22.747 24.077 24.547 24.597 23.707 21.687 19.447 17.457 15.767
2999.561 14.687 13.657 12.267 10.877 9.227 7.877 6.687 5.387 4.447 4.007
3018.850 3.607 3.157 3.357 3.227 2.837 2.807 2.697 2.767 2.887 2.807
3038.140 2.757 2.837 2.767 2.877 2.687 2.237 2.037 1.917 2.157 2.197
3057.430 2.157 2.357 2.277 2.047 2.007 2.017 1.977 1.927 1.927 2.317
3076.720 2.687 2.647 2.667 2.687 2.907 3.167 3.197 3.157 3.467 3.597
3096.009 3.557 3.517 3.347 3.267 2.967 2.477 2.247 2.037 1.847 2.057
3115.299 2.017 1.547 1.317 1.1729 1.1045 1.397 1.1013 0.4542 0.5507 0.9919
3134.589 0.988 0.8907 0.9072 0.8388 0.9227 0.8787 0.754 0.9706 1.0913 1.0054
3153.879 0.9807 0.9306 0.6736 0.5945 0.4561 0.35673 0.5833 0.7626 0.7683 0.6815
3173.169 0.5194 0.5737 0.859 0.885 0.7271 0.8018 0.9174 1.0788 1.1521 1.0181
3192.458 1.116 0.9417 0.6768 1.0035 0.9781 0.966 1.0801 0.7917 0.846 1.1764
3211.748 1.0834 0.7008 0.8185 1.2203 1.1566 0.6645 0.6 0.728 0.733 0.8015
3231.038 0.8153 0.8785 1.0837 0.9951 0.8933 0.8976 0.5692 0.7062 0.6152 0.6213
3250.328 0.7341 0.7612 1.0162 1.0173 1.1104 0.8363 0.8993 0.9569 0.8189 0.8008
3269.617 1.287 1.377 0.9487 0.8611 0.6543 0.435 0.4593 0.4905 0.6578 0.4326
3288.907 0.115 0.6303 0.9023 0.984 0.8525 0.8208 0.857 0.9494 0.7484 0.5306
3308.197 0.8305 0.9712 0.8936 0.7011 0.7157 0.8231 0.6253 0.34761 0.5533 0.837
3327.487 1.0069 1.287 1.1007 0.8628 1.0434 0.8598 0.6447 0.6665 0.931 0.8053
3346.777 0.3773 0.4155 0.5762 0.7028 0.8797 1.208 1.0112 0.8887 0.9036 0.7126
3366.066 0.8791 1.1039 1.1326 0.5956 0.33562 0.3921 0.5308 1.0739 1.2258 1.1515
3385.356 1.0218 0.6725 0.5999 0.7175 0.7015 0.9064 1.0524 0.8002 0.5962 0.4745
3404.646 0.6857 0.7939 0.6459 0.6125 0.4931 0.31578 0.4129 0.7583 0.7889 0.847
3423.936 0.9404 0.6562 0.4055 0.5525 0.7914 0.8763 0.8831 0.6691 0.6991 0.6848
3443.225 0.7089 0.7455 0.5604 0.6038 0.5407 0.5578 0.7838 1.1048 1.0633 1.1958
3462.515 1.1744 0.9234 0.7764 0.543 0.9277 1.0214 0.6515 0.7889 0.8871 1.0439
3481.805 0.8827 0.4998 0.8857 1.0307 0.7841 0.9099 0.9768 0.7741 0.7437 0.8691
3501.095 0.9118 1.047 1.2518 1.677 1.997 1.947 1.647 1.607 1.987 2.127
3520.385 1.697 1.497 1.417 1.257 1.667 2.087 2.007 1.527 1.507 1.727
3539.674 1.677 1.797 2.207 2.537 3.117 3.787 4.017 4.977 6.897 8.707
3558.964 11.147 14.607 18.447 22.927 27.847 31.427 33.617 34.617 34.237 31.897
3578.254 27.627 22.937 18.147 14.107 10.827 8.437 6.267 4.537 3.537 2.577
3597.544 1.827 1.537 1.547 1.527 1.777 1.677 1.637 1.667 1.487 1.1285
3616.833 0.5958 0.787 1.357 1.327 0.8482 0.6058 0.099 0.1776 0.7927 0.6825
3636.123 0.5034 0.6845 1.1196 1.119 0.9409 0.8308 0.5785 0.4247 0.9148 1.1475
3655.413 0.7034 0.8153 0.9226 0.6439 0.5453 0.8193 0.7462 0.4223 0.816 0.8855
3674.703 0.5207 0.6314 0.6491 0.683 1.1442 1.0254 0.5911 0.9994 1.317 1.297
3693.993 1.027 0.4399 0.6316 1.0798 0.7884 0.4583 0.5806 0.8486 0.6796 0.35692
3713.282 0.4185 0.5741 0.7631 0.9008 0.7665 0.5088 0.6409 0.5401 0.104 0.32693
3732.572 0.6829 0.609 0.689 0.7503 0.5955 0.9139 1.1598 0.8109 0.5022 0.3643
3751.862 0.145 0.3176 0.4541 0.3588 0.5423 0.34313 0.4443 0.8303 0.5591 0.4294
3771.152 0.6726 0.6514 0.6873 0.7605 0.4904 0.551 0.4325 0.1636 0.2021 0.27365
3790.441 0.5861 0.6692 0.588 0.713 0.7376 0.6528 0.481 0.5097 0.7477 0.6381
3809.731 0.6533 0.7727 0.8134 0.8063 0.6188 0.5723 0.1952 0.30287 0.6811 0.5107
3829.021 0.7273 0.7418 0.6565 0.9132 0.9269 0.9871 0.8353 0.8707 1.0679 0.8741
3848.311 0.9625 0.9223 0.5418 0.5255 0.6905 0.29037 0.29661 0.9823 0.6548 0.29815
3867.601 0.7089 0.6035 0.5441 0.7623 0.8048 0.847 0.725 0.8188 0.9493 0.9277
3886.890 0.5887 0.138 0.425 0.518 0.6614 0.8528 0.598 0.663 0.7777 0.7432
3906.180 0.8225 0.9649 1.0066 1.075 1.2568 1.317 1.2487 1.1378 0.8224 0.7915
3925.470 0.9019 0.8479 0.7495 0.6579 0.6926 0.6612 0.8033 0.8626 0.5246 0.8084
3944.760 1.0655 0.8166 0.5623 0.4659 0.143 0 0.425 0.5964 0.4783 0.29487
3964.049 0.4984 0.7408 0.6956 0.9347 0.9097 0.4888 0.127 0.086 0.28449 0.7931
3983.339 1.457 1.257 0.9446 0.5817 0.3843 0.6992 0.5656 0.5289 0.8506 0.8872
##END=
