##TITLE=m-Phthalaldehyde
##JCAMP-DX=4.24
##DATA TYPE=INFRARED SPECTRUM
##ORIGIN=EPA-IR VAPOR PHASE LIBRARY
##OWNER=SRD/NIST
Collection (C) 2018 copyright by the U.S. Secretary of Commerce
on behalf of the United States of America. All rights reserved.
##CAS REGISTRY NO=626-19-7
##MOLFORM=C 8 H 6 O 2
##$NIST SOURCE=MSDC-IR
##STATE=gas
##XUNITS=1/CM
##YUNITS=ABSORBANCE
##XFACTOR=1.
##YFACTOR=0.001
##DELTAX=1.92898
##FIRSTX=549.8
##LASTX=4000.7
##FIRSTY=0.5884
##MAXX=4000.7
##MINX=549.759
##MAXY=0.192254
##MINY=0
##NPOINTS=1790
##XYDATA=(X++(Y..Y))
549.759 0.5884 0.439705 0.235 0 0.206 0.5416 0.6226 1.0186 1.3774 1.4315
569.049 1.524 1.444 1.3918 1.474 1.584 1.2867 1.2439 1.684 1.754 1.554
588.339 1.484 1.844 1.854 1.734 1.744 1.604 1.484 1.4134 1.534 1.714
607.628 1.604 1.694 1.924 1.954 2.334 2.914 3.354 3.924 4.734 5.424
626.918 6.104 7.274 8.604 9.964 11.754 13.764 15.654 17.244 18.654 19.844
646.208 21.024 21.754 21.434 21.104 20.684 19.374 17.514 15.834 14.584 13.654
665.498 12.704 11.794 11.284 11.284 11.824 12.394 13.494 15.294 16.394 15.674
684.787 14.504 14.324 14.174 13.764 13.254 12.384 11.464 10.544 9.514 8.634
704.077 7.804 6.624 5.554 4.844 4.354 4.014 3.674 3.544 3.264 3.024
723.367 2.874 2.704 2.594 2.474 2.424 2.244 2.164 2.434 2.674 2.574
742.657 2.674 2.844 2.944 3.094 3.234 3.514 3.774 4.244 4.614 4.824
761.947 5.164 5.844 6.684 7.604 8.694 10.174 11.914 13.774 16.004 18.224
781.236 20.414 22.854 24.784 25.944 27.154 27.894 27.224 24.764 22.114 19.964
800.526 17.634 15.294 12.924 10.824 8.834 7.004 5.824 4.984 3.984 3.294
819.816 3.104 2.774 2.524 2.314 2.024 1.844 1.734 1.754 1.684 1.604
839.106 1.674 1.604 1.494 1.434 1.3999 1.2728 1.3295 1.464 1.3216 1.1133
858.395 1.0261 1.1754 1.3361 1.674 1.844 1.804 1.934 1.984 2.084 2.314
877.685 2.494 2.684 2.944 3.244 3.574 3.814 4.284 5.024 5.554 6.064
896.975 6.484 7.014 7.614 7.884 8.034 8.114 8.304 8.134 7.654 7.524
916.265 7.454 7.644 8.214 8.984 10.004 11.084 12.194 13.074 13.474 13.734
935.555 13.934 13.724 13.314 12.384 10.794 8.964 7.194 6.094 5.654 5.424
954.844 5.144 4.894 4.754 4.644 4.754 4.924 4.724 4.334 4.014 3.464
974.134 2.934 2.484 2.124 2.074 1.984 1.984 2.034 2.124 2.214 2.444
993.424 2.884 2.964 2.894 3.034 3.314 3.574 3.344 3.074 2.974 2.774
1012.714 2.614 2.354 1.994 1.664 1.544 1.454 1.2724 1.3209 1.2737 1.1078
1032.003 0.9763 0.8171 0.8606 0.877 0.6684 0.6157 0.9863 1.0724 0.8136 0.7454
1051.293 0.9264 1.0159 0.9573 1.1637 1.514 1.694 2.134 2.484 2.444 2.724
1070.583 3.024 3.154 3.184 3.324 3.294 3.094 3.024 2.634 2.514 2.584
1089.873 2.494 2.664 2.704 2.544 2.884 3.474 3.964 4.854 6.324 8.134
1109.163 9.914 12.014 14.404 17.304 21.104 25.614 30.964 37.094 42.784 47.004
1128.452 50.074 52.234 53.064 52.034 50.224 47.704 42.704 35.574 28.854 23.174
1147.742 17.574 13.284 10.234 7.924 6.694 5.904 5.464 4.904 4.474 4.294
1167.032 4.134 3.974 3.634 3.324 3.294 3.154 2.974 3.154 3.004 2.944
1186.322 3.244 3.374 3.314 3.444 3.654 3.914 4.364 4.704 5.164 5.424
1205.611 5.554 5.764 6.174 6.594 6.924 7.444 8.074 8.544 9.064 9.704
1224.901 10.484 11.484 12.074 12.654 13.394 13.884 13.964 13.694 13.314 12.854
1244.191 12.164 11.414 10.574 9.574 8.524 7.374 6.484 6.084 5.794 5.714
1263.481 6.094 6.514 7.004 7.524 7.934 8.504 9.204 9.824 10.424 10.904
1282.771 11.034 10.954 10.654 10.294 10.234 10.274 9.804 8.884 8.034 7.174
1302.060 6.324 5.514 4.614 3.954 3.454 3.024 2.734 2.524 2.344 2.154
1321.350 2.024 1.864 1.694 1.634 1.584 1.524 1.494 1.514 1.624 1.774
1340.640 1.854 1.984 2.194 2.374 2.674 3.144 3.614 4.204 5.094 6.254
1359.930 7.594 9.054 10.334 11.004 11.164 11.414 12.004 12.354 12.164 11.564
1379.219 10.614 9.554 8.524 7.624 6.884 6.144 5.444 4.984 4.594 4.164
1398.509 3.874 3.484 2.984 2.484 2.144 1.924 1.774 1.724 1.754 1.764
1417.799 1.714 1.744 1.794 1.854 1.964 2.134 2.354 2.574 2.864 3.174
1437.089 3.544 4.004 4.384 4.614 4.664 4.644 4.574 4.404 4.184 3.834
1456.378 3.344 2.904 2.444 2.064 1.904 1.794 1.764 1.804 1.804 1.844
1475.668 1.974 2.084 2.134 2.194 2.234 2.234 2.234 2.214 2.084 1.894
1494.958 1.724 1.574 1.454 1.2916 1.2018 1.0559 0.9435 0.9389 0.8959 0.8517
1514.248 0.8021 0.738 0.7621 0.7672 0.7114 0.6921 0.6379 0.6441 0.707 0.8047
1533.538 0.8823 0.8579 0.8573 0.8741 0.9082 0.9385 1.0636 1.1882 1.1502 1.128
1552.827 1.1694 1.3767 1.554 1.624 1.814 2.024 2.304 2.584 2.864 3.124
1572.117 3.494 3.984 4.544 5.284 6.004 6.814 7.794 8.804 10.094 11.754
1591.407 13.504 15.294 17.114 18.674 19.764 20.324 20.284 19.514 18.154 16.594
1610.697 14.854 12.854 10.674 8.424 6.544 5.154 4.164 3.544 3.194 3.014
1629.986 2.904 2.784 2.664 2.534 2.424 2.454 2.524 2.544 2.584 2.644
1649.276 2.734 2.774 2.774 2.854 3.004 3.144 3.374 3.704 4.144 4.744
1668.566 5.474 6.344 7.304 8.344 9.614 10.904 12.284 13.724 15.384 17.214
1687.856 19.094 21.334 23.934 26.864 30.544 35.114 40.644 47.884 55.694 64.844
1707.146 75.174 86.654 99.854 115.104 132.474 150.824 168.254 180.794 187.554 190.884
1726.435 192.254 189.354 182.524 172.944 155.184 130.624 105.964 83.664 65.544 49.854
1745.725 36.574 25.954 18.364 13.384 10.184 8.144 6.774 5.744 4.984 4.404
1765.015 3.954 3.654 3.404 3.184 3.064 3.004 2.954 2.814 2.684 2.724
1784.305 2.784 2.724 2.694 2.694 2.744 2.794 2.844 2.944 2.974 2.964
1803.594 2.994 3.044 3.114 3.174 3.204 3.134 3.074 3.044 2.944 2.814
1822.884 2.754 2.714 2.584 2.454 2.424 2.384 2.304 2.224 2.154 2.174
1842.174 2.214 2.214 2.184 2.064 1.954 1.964 1.964 1.924 1.954 1.964
1861.464 1.934 1.964 1.994 1.964 1.944 2.014 2.044 1.984 1.984 2.014
1880.754 2.014 1.994 2.004 1.984 1.964 1.954 1.944 2.004 2.024 2.014
1900.043 2.014 2.034 2.044 2.044 1.954 1.914 1.984 2.014 2.034 2.014
1919.333 1.924 1.874 1.924 1.894 1.814 1.744 1.644 1.564 1.514 1.474
1938.623 1.3492 1.2371 1.1599 1.0977 1.1569 1.1616 1.1224 1.177 1.1963 1.1688
1957.913 1.194 1.2543 1.3345 1.3442 1.2962 1.3159 1.3006 1.2733 1.2994 1.3183
1977.202 1.3179 1.2512 1.1552 1.1161 1.0976 1.0911 0.9933 0.9014 0.9407 0.933
1996.492 0.8434 0.7356 0.6647 0.6061 0.5617 0.595 0.633 0.6358 0.588 0.5537
2015.782 0.5609 0.579 0.6004 0.6027 0.5862 0.5851 0.5818 0.5709 0.5681 0.53386
2035.072 0.5388 0.5717 0.5404 0.46601 0.46007 0.52789 0.52026 0.49102 0.52982 0.5427
2054.362 0.5549 0.5758 0.51571 0.46883 0.48536 0.48008 0.4572 0.47661 0.49459 0.49599
2073.651 0.5356 0.51989 0.46416 0.47377 0.47519 0.386 0.4077 0.46285 0.4584 0.48156
2092.941 0.47842 0.45422 0.3892 0.3999 0.4481 0.440047 0.44474 0.4066 0.3654 0.4165
2112.231 0.51195 0.48274 0.4215 0.46275 0.5587 0.53381 0.4879 0.5533 0.6419 0.6869
2131.521 0.7049 0.6965 0.6962 0.7642 0.8094 0.8584 0.8685 0.8862 0.9263 0.861
2150.810 0.7742 0.8139 0.8375 0.821 0.8108 0.7871 0.7536 0.7545 0.7845 0.7775
2170.100 0.7507 0.7041 0.6816 0.6985 0.6996 0.6429 0.6956 0.6871 0.6159 0.5767
2189.390 0.48148 0.46639 0.44398 0.4221 0.4091 0.4083 0.442666 0.47172 0.51366 0.45489
2208.680 0.3591 0.4108 0.42 0.4053 0.4172 0.399 0.42521 0.4288 0.4225 0.3723
2227.970 0.3388 0.378 0.45926 0.47165 0.407 0.3793 0.4138 0.48278 0.45434 0.3908
2247.259 0.438113 0.47331 0.45877 0.45305 0.4913 0.49793 0.4505 0.4224 0.4074 0.4134
2266.549 0.44402 0.49159 0.53349 0.52928 0.51085 0.51655 0.46986 0.3975 0.4032 0.45246
2285.839 0.4169 0.3759 0.381 0.4182 0.45126 0.3934 0.42776 0.47971 0.397 0.4077
2305.129 0.439407 0.3937 0.4015 0.44998 0.443119 0.51259 0.5405 0.442947 0.4237 0.49008
2324.418 0.48257 0.47252 0.48751 0.46295 0.5368 0.5922 0.5939 0.6533 0.7095 0.7116
2343.708 0.6888 0.6301 0.6326 0.7054 0.6954 0.6646 0.7111 0.7587 0.738 0.7672
2362.998 0.8219 0.8031 0.7843 0.753 0.7626 0.7989 0.7804 0.7892 0.7487 0.7158
2382.288 0.7666 0.7359 0.6915 0.7172 0.7163 0.6797 0.6397 0.5925 0.49513 0.4215
2401.578 0.438265 0.51022 0.50597 0.4494 0.48572 0.45288 0.3784 0.3946 0.3967 0.42882
2420.867 0.47742 0.4175 0.3577 0.322 0.3604 0.4172 0.4175 0.4154 0.4157 0.3458
2440.157 0.273 0.334 0.3706 0.3497 0.306 0.296 0.3581 0.3605 0.3442 0.3424
2459.447 0.311 0.4012 0.46946 0.438711 0.4224 0.3609 0.34 0.43521 0.4037 0.3661
2478.737 0.46076 0.52779 0.592 0.5761 0.50315 0.50316 0.5609 0.52513 0.4234 0.4919
2498.026 0.5805 0.5509 0.52225 0.45731 0.42484 0.48061 0.52692 0.5951 0.5998 0.5439
2517.316 0.5473 0.51899 0.5401 0.5469 0.5392 0.6051 0.6217 0.666 0.607 0.5419
2536.606 0.5708 0.5877 0.5709 0.5421 0.5454 0.541 0.5643 0.5975 0.5844 0.5548
2555.896 0.5729 0.5968 0.6089 0.5994 0.6397 0.7074 0.7494 0.6805 0.6547 0.737
2575.186 0.8144 0.8601 0.8487 0.8313 0.7991 0.8286 0.8801 0.9304 0.9833 0.9357
2594.475 0.9141 1.0127 1.0029 1.0599 1.1873 1.2491 1.3027 1.1808 1.1176 1.2384
2613.765 1.2499 1.3069 1.331 1.2772 1.3203 1.3088 1.324 1.312 1.3139 1.3483
2633.055 1.3491 1.4249 1.454 1.454 1.474 1.574 1.724 1.724 1.774 1.864
2652.345 2.004 2.134 2.114 2.264 2.364 2.384 2.514 2.514 2.574 2.674
2671.634 2.724 2.704 2.754 2.814 2.864 3.034 3.094 3.094 3.134 3.324
2690.924 3.754 4.224 4.814 5.634 6.734 8.024 9.704 11.894 14.454 17.404
2710.214 20.644 23.794 26.544 28.834 30.954 32.834 33.894 33.824 32.764 31.044
2729.504 28.844 25.934 22.594 19.354 16.314 13.824 11.884 10.554 9.724 9.064
2748.794 8.664 8.454 8.404 8.424 8.464 8.624 8.714 8.454 8.194 8.044
2768.083 7.914 7.834 7.774 7.924 8.134 8.514 9.234 10.124 11.354 12.944
2787.373 14.794 16.814 19.004 21.454 23.984 26.604 29.414 32.494 35.634 38.234
2806.663 39.984 41.004 41.454 41.204 40.294 38.714 36.394 33.544 30.654 27.804
2825.953 25.154 22.664 20.334 18.374 16.484 14.734 13.224 11.814 10.534 9.414
2845.242 8.544 7.744 7.054 6.444 5.774 5.164 4.704 4.374 4.074 3.704
2864.532 3.434 3.324 3.184 3.084 3.014 2.884 2.774 2.664 2.564 2.434
2883.822 2.334 2.214 2.044 1.974 2.014 2.024 2.044 2.054 1.974 1.884
2903.112 1.874 1.954 1.884 1.794 1.814 1.884 1.834 1.864 1.894 1.734
2922.401 1.694 1.634 1.644 1.694 1.574 1.504 1.574 1.544 1.474 1.444
2941.691 1.2521 1.2057 1.2358 1.1988 1.2779 1.3007 1.2243 1.137 1.1268 1.1133
2960.981 1.1154 1.1795 1.1701 1.1706 1.1355 1.0337 1.0101 1.0046 0.9585 1.0339
2980.271 1.151 1.1528 1.0294 1.0433 1.1109 1.1212 1.093 1.0229 1.116 1.1804
2999.561 1.2608 1.3131 1.3583 1.444 1.614 1.804 1.934 2.154 2.244 2.214
3018.850 2.334 2.544 2.604 2.514 2.544 2.774 2.784 2.684 2.784 2.784
3038.140 2.794 2.854 2.854 3.014 3.174 3.224 3.374 3.564 3.684 3.824
3057.430 3.964 4.154 4.324 4.494 4.744 4.884 4.864 4.954 5.074 5.074
3076.720 5.034 4.964 4.894 4.744 4.414 4.104 3.864 3.594 3.494 3.414
3096.009 3.184 2.904 2.774 2.574 2.414 2.324 1.994 1.824 1.574 1.3081
3115.299 1.3739 1.3503 1.2533 1.017 0.784 0.7518 0.6794 0.6452 0.5671 0.5787
3134.589 0.5359 0.47769 0.5353 0.48105 0.5061 0.6197 0.5927 0.5443 0.48367 0.329
3153.879 0.44486 0.48636 0.331 0.4147 0.46808 0.47141 0.6091 0.6451 0.6407 0.50381
3173.169 0.3486 0.5088 0.7514 0.6979 0.52468 0.47921 0.434481 0.3605 0.52724 0.6445
3192.458 0.5461 0.50681 0.46528 0.558 0.6655 0.5368 0.49349 0.6585 0.549 0.4196
3211.748 0.49664 0.4234 0.302 0.3489 0.348 0.205 0.179 0.238 0.256 0.289
3231.038 0.3 0.257 0.32 0.291 0.116 0.169 0.138 0.221 0.3565 0.226
3250.328 0.184 0.3393 0.4181 0.232 0.248 0.288 0.198 0.167 0.196 0.318
3269.617 0.28 0.19 0.317 0.331 0.24 0.311 0.3559 0.3579 0.362 0.3354
3288.907 0.43253 0.44741 0.31 0.36 0.443277 0.3887 0.47263 0.51007 0.391 0.4132
3308.197 0.48538 0.546 0.52943 0.51831 0.46845 0.328 0.328 0.5497 0.6457 0.45618
3327.487 0.47448 0.5631 0.5476 0.3857 0.317 0.5229 0.47209 0.226 0.218 0.382
3346.777 0.407 0.3607 0.3966 0.3671 0.327 0.264 0.298 0.4137 0.3886 0.47091
3366.066 0.6261 0.5813 0.50903 0.5951 0.7029 0.8247 0.7865 0.6643 0.7622 0.7908
3385.356 0.7197 0.7619 0.9014 1.0073 1.1136 1.2595 1.3447 1.3886 1.504 1.774
3404.646 1.994 2.134 2.414 2.824 2.954 3.124 3.414 3.624 3.734 3.784
3423.936 3.894 3.864 3.754 3.724 3.624 3.464 3.384 3.034 2.694 2.494
3443.225 2.244 2.084 1.864 1.754 1.644 1.3165 1.2566 1.2559 1.0566 0.9885
3462.515 0.9684 0.8625 0.8378 0.9181 0.8854 0.7436 0.7316 0.7565 0.7177 0.6166
3481.805 0.52307 0.5975 0.6413 0.639 0.593 0.53282 0.592 0.6649 0.6829 0.5521
3501.095 0.349 0.45832 0.6173 0.5875 0.6167 0.5953 0.49273 0.49761 0.52855 0.5542
3520.385 0.629 0.5498 0.440655 0.45029 0.53211 0.5512 0.47159 0.3781 0.3759 0.42522
3539.674 0.3371 0.43447 0.5975 0.49019 0.438829 0.440795 0.305 0.211 0.3547 0.51351
3558.964 0.6341 0.7387 0.6344 0.3494 0.3953 0.7257 0.752 0.435697 0.342 0.53361
3578.254 0.49694 0.3955 0.4136 0.6221 0.6664 0.433675 0.3382 0.48026 0.578 0.53254
3597.544 0.4053 0.3374 0.411 0.4561 0.423 0.47758 0.5367 0.3 0.27 0.3682
3616.833 0.3 0.3971 0.49857 0.48807 0.3751 0.311 0.27 0.221 0.258 0.44991
3636.123 0.5632 0.44864 0.3711 0.318 0.263 0.3411 0.4492 0.3631 0.242 0.175
3655.413 0.195 0.4232 0.53324 0.3472 0.42859 0.7161 0.5392 0.245 0.379 0.5577
3674.703 0.43424 0.323 0.49274 0.7385 0.6528 0.48123 0.4138 0.3362 0.3929 0.42942
3693.993 0.3452 0.219 0.321 0.3345 0.3653 0.5603 0.5765 0.5154 0.48317 0.3565
3713.282 0.3396 0.264 0.176 0.253 0.302 0.304 0.45002 0.6385 0.5431 0.46513
3732.572 0.3926 0.3574 0.3586 0.42684 0.3499 0.094 0.144 0.328 0.4132 0.3754
3751.862 0.52135 0.6193 0.318 0.266 0.42822 0.42795 0.42741 0.241 0.181 0.385
3771.152 0.287 0.3898 0.46701 0.47658 0.6693 0.48994 0.258 0.44823 0.45578 0.248
3790.441 0.321 0.277 0.281 0.47041 0.53137 0.53197 0.5902 0.5545 0.4691 0.5641
3809.731 0.5952 0.614 0.6024 0.44458 0.3538 0.287 0.19 0.135 0.442668 0.5498
3829.021 0.3808 0.4235 0.53333 0.6307 0.50766 0.46288 0.5514 0.3612 0.212 0.285
3848.311 0.43216 0.51033 0.3868 0.3954 0.6379 0.6719 0.582 0.5341 0.3843 0.3528
3867.601 0.3411 0.48454 0.5889 0.7179 0.6362 0.341 0.273 0.211 0.293 0.3498
3886.890 0.4216 0.6035 0.5369 0.3748 0.3422 0.172 0.22 0.333 0.177 0.137
3906.180 0.3 0.3859 0.3826 0.327 0.4124 0.48052 0.48591 0.48271 0.295 0.275
3925.470 0.3536 0.50271 0.44802 0.161 0.108 0.208 0.197 0.042 0.168 0.4229
3944.760 0.32 0.291 0.285 0.323 0.53171 0.4097 0.232 0.332 0.46923 0.45669
3964.049 0.256 0.088 0.135 0.163 0.218 0.261 0.233 0.3766 0.4674 0.4208
3983.339 0.319 0.3443 0.5755 0.52267 0.326 0.151 0.159 0.3581 0.47933 0.734
##END=
