##TITLE=Di-sec-butylamine
##JCAMP-DX=4.24
##DATA TYPE=INFRARED SPECTRUM
##ORIGIN=EPA-IR VAPOR PHASE LIBRARY
##OWNER=SRD/NIST
Collection (C) 2018 copyright by the U.S. Secretary of Commerce
on behalf of the United States of America. All rights reserved.
##CAS REGISTRY NO=626-23-3
##MOLFORM=C 8 H 19 N
##$NIST SOURCE=MSDC-IR
##STATE=gas
##XUNITS=1/CM
##YUNITS=ABSORBANCE
##XFACTOR=1.
##YFACTOR=0.001
##DELTAX=3.85796
##FIRSTX=501.5
##LASTX=4000.7
##FIRSTY=3.696
##MAXX=4000.7
##MINX=501.534
##MAXY=0.162066
##MINY=0
##NPOINTS=908
##XYDATA=(X++(Y..Y))
501.534 3.696 3.606 3.436 3.296 3.256 3.326 3.476 3.526 3.406 3.326
540.114 3.496 3.636 3.586 3.696 3.826 3.976 4.266 4.496 4.416 4.256
578.693 4.306 4.156 3.946 3.806 3.696 3.526 3.556 3.746 3.856 3.996
617.273 4.196 4.476 4.756 5.006 5.276 5.686 6.206 6.586 7.026 7.526
655.852 7.956 8.466 8.846 9.216 9.496 9.626 9.696 9.566 9.266 8.816
694.432 8.206 7.546 6.816 6.056 5.306 4.706 4.186 3.776 3.376 2.956
733.011 2.786 2.636 2.386 2.326 2.366 2.456 2.636 2.886 3.326 3.836
771.591 4.236 4.586 4.886 4.896 4.696 4.456 4.136 3.716 3.366 3.216
810.170 3.056 2.956 2.926 2.926 2.916 2.916 2.896 2.786 2.746 2.576
848.750 2.356 2.256 2.046 1.836 1.746 1.696 1.756 1.776 1.736 1.796
887.330 1.826 1.866 1.906 1.836 1.696 1.596 1.636 1.626 1.656 1.786
925.909 1.916 2.126 2.286 2.356 2.476 2.596 2.776 2.966 3.186 3.636
964.489 4.156 4.486 4.656 4.796 4.876 4.756 4.646 4.746 4.906 5.166
1003.068 5.616 6.026 6.296 6.426 6.366 6.256 6.306 6.676 7.446 8.486
1041.648 9.496 10.176 10.256 9.786 8.746 7.386 6.346 5.926 5.936 6.346
1080.227 7.196 8.126 9.116 9.986 10.676 11.336 11.896 12.516 13.086 13.676
1118.807 14.286 14.706 15.076 15.506 16.146 17.296 19.276 22.226 25.976 29.816
1157.387 32.736 33.956 33.036 30.186 25.876 21.136 17.026 13.896 11.506 9.636
1195.966 8.216 7.096 6.236 5.646 5.266 5.036 4.806 4.586 4.466 4.366
1234.546 4.336 4.426 4.596 4.836 5.206 5.626 5.986 6.346 6.546 6.536
1273.125 6.316 6.166 6.266 6.506 6.786 7.106 7.516 7.906 8.156 8.366
1311.705 8.746 9.316 10.106 11.176 12.326 13.526 14.736 15.816 16.686 17.206
1350.284 17.436 17.646 18.366 20.226 23.436 27.406 30.976 33.146 32.826 29.606
1388.864 24.516 19.046 14.206 10.846 8.826 7.736 7.306 7.336 7.886 8.916
1427.443 10.526 12.846 15.716 18.936 22.106 25.056 27.606 29.626 31.146 31.856
1466.023 31.436 29.796 26.916 23.286 19.436 15.716 12.366 9.686 7.716 6.246
1504.603 5.226 4.396 3.846 3.406 3.046 2.786 2.536 2.356 2.266 2.146
1543.182 2.046 1.956 1.866 1.856 1.816 1.736 1.706 1.656 1.646 1.646
1581.762 1.636 1.606 1.566 1.546 1.556 1.526 1.496 1.486 1.506 1.526
1620.341 1.486 1.446 1.446 1.456 1.466 1.456 1.436 1.406 1.366 1.376
1658.921 1.406 1.426 1.416 1.366 1.346 1.296 1.266 1.236 1.196 1.186
1697.500 1.156 1.1405 1.124 1.0941 1.058 1.0301 1.0235 1.0168 1.0039 1.0041
1736.080 0.9799 0.9298 0.8874 0.8389 0.7912 0.7991 0.8167 0.8192 0.8073 0.79
1774.659 0.774 0.8037 0.8061 0.7656 0.7812 0.7785 0.7688 0.7792 0.7882 0.8099
1813.239 0.8047 0.7667 0.7658 0.7597 0.7517 0.7435 0.7442 0.7346 0.6816 0.6741
1851.819 0.6931 0.679 0.6324 0.6005 0.5855 0.5714 0.5651 0.5507 0.5383 0.547
1890.398 0.5417 0.5051 0.4951 0.5112 0.5062 0.4908 0.4709 0.4648 0.4765 0.4879
1928.978 0.4941 0.4835 0.473 0.4575 0.4524 0.4429 0.3993 0.3905 0.3823 0.353
1967.557 0.3253 0.3215 0.333 0.3125 0.2927 0.3059 0.3123 0.3131 0.3187 0.3237
2006.137 0.3238 0.3107 0.3121 0.309 0.3039 0.3076 0.3102 0.2918 0.2919 0.289
2044.716 0.2905 0.33 0.3372 0.3124 0.3043 0.2937 0.2682 0.25416 0.2436 0.2483
2083.296 0.24556 0.24939 0.2701 0.24742 0.24125 0.25459 0.25339 0.25021 0.2631 0.2934
2121.875 0.3353 0.3525 0.3304 0.3334 0.3378 0.3236 0.3503 0.357 0.3758 0.3897
2160.455 0.3601 0.3423 0.3246 0.3478 0.3357 0.3086 0.3216 0.3353 0.3365 0.3144
2199.035 0.3184 0.3206 0.3049 0.2876 0.2911 0.2956 0.3088 0.3049 0.2902 0.2963
2237.614 0.2901 0.2865 0.3009 0.323 0.3313 0.3438 0.352 0.366 0.3669 0.3714
2276.194 0.3729 0.4029 0.4649 0.4735 0.4807 0.4935 0.4818 0.5044 0.5535 0.5291
2314.773 0.5025 0.5067 0.4934 0.5148 0.5285 0.5362 0.5632 0.5388 0.5226 0.5353
2353.353 0.5349 0.5649 0.5777 0.5477 0.5486 0.5646 0.5864 0.5984 0.5758 0.5568
2391.932 0.5868 0.5846 0.5822 0.5892 0.5657 0.5807 0.5997 0.608 0.5917 0.5889
2430.512 0.6198 0.605 0.5723 0.6034 0.6488 0.6338 0.6358 0.6428 0.6225 0.6318
2469.092 0.6119 0.5619 0.5718 0.6035 0.5948 0.5606 0.5347 0.5298 0.5134 0.5087
2507.671 0.5281 0.5327 0.5582 0.6053 0.595 0.6316 0.7115 0.7469 0.8103 0.8978
2546.251 0.9907 1.0941 1.186 1.306 1.446 1.596 1.756 1.926 2.046 2.206
2584.830 2.356 2.436 2.506 2.576 2.636 2.666 2.696 2.756 2.776 2.776
2623.410 2.826 2.856 2.836 2.816 2.826 2.806 2.766 2.706 2.716 2.766
2661.989 2.776 2.816 2.826 2.876 2.956 2.996 3.046 3.046 3.086 3.196
2700.569 3.236 3.296 3.396 3.586 3.796 3.926 4.096 4.246 4.396 4.576
2739.148 4.716 4.866 4.986 5.066 5.166 5.356 5.686 6.016 6.396 6.886
2777.728 7.436 8.066 8.726 9.426 10.166 10.956 11.836 12.756 13.736 14.776
2816.308 15.826 16.906 18.006 19.066 20.096 21.136 22.376 23.996 26.076 28.726
2854.887 32.036 35.736 39.796 44.126 48.406 52.706 56.726 59.316 60.056 59.316
2893.467 57.486 55.536 54.806 56.446 60.636 67.216 75.646 84.596 92.756 98.906
2932.046 102.066 102.046 99.746 96.896 95.996 99.646 109.776 126.336 145.066 158.686
2970.626 162.066 153.616 133.946 107.766 81.756 59.806 42.856 30.886 23.116 18.146
3009.205 14.856 12.596 10.936 9.726 8.816 8.106 7.566 7.186 6.836 6.516
3047.785 6.306 6.076 5.906 5.746 5.596 5.446 5.296 5.166 5.016 4.886
3086.364 4.786 4.666 4.496 4.346 4.126 3.896 3.746 3.586 3.416 3.296
3124.944 3.196 3.056 2.906 2.816 2.776 2.676 2.596 2.526 2.386 2.316
3163.524 2.286 2.246 2.236 2.226 2.086 1.966 1.906 1.836 1.756 1.636
3202.103 1.536 1.436 1.326 1.196 1.0822 0.9686 0.8845 0.8395 0.7959 0.7722
3240.683 0.6852 0.6809 0.6937 0.6362 0.5597 0.4618 0.484 0.5058 0.4658 0.4582
3279.262 0.4852 0.479 0.4872 0.4881 0.4551 0.4619 0.4615 0.501 0.5645 0.5839
3317.842 0.6229 0.6053 0.5867 0.6405 0.6776 0.6125 0.5835 0.688 0.667 0.5772
3356.421 0.6057 0.6344 0.524 0.4111 0.3563 0.3507 0.3447 0.3397 0.4075 0.418
3395.001 0.4442 0.4466 0.3673 0.2636 0.2706 0.36 0.3242 0.287 0.3256 0.3573
3433.580 0.3162 0.2932 0.2724 0.2816 0.2774 0.2754 0.2663 0.22991 0.2534 0.2995
3472.160 0.2846 0.20908 0.19613 0.24362 0.2512 0.21549 0.2808 0.268 0.17516 0.24824
3510.740 0.2864 0.2628 0.25326 0.17441 0.161647 0.17649 0.18015 0.1288 0.0956 0.1011
3549.319 0.1051 0.0884 0.1118 0.21316 0.162123 0.1027 0.0705 0.0688 0.0934 0.0746
3587.899 0.0926 0.0979 0.160698 0.23467 0.20137 0.19199 0.161957 0.0798 0.037 0.034
3626.478 0 0.032 0.128 0.22903 0.298 0.20951 0.155024 0.16678 0.22951 0.3047
3665.058 0.20725 0.17222 0.2578 0.2569 0.22388 0.2611 0.2769 0.2907 0.2753 0.18944
3703.637 0.156923 0.162926 0.1903 0.14986 0.157446 0.25128 0.20372 0.1214 0.0745 0.0657
3742.217 0.044 0.0692 0.137 0.1055 0.0733 0.0852 0.16417 0.2951 0.3127 0.18677
3780.797 0.1136 0.137 0.1493 0.1329 0.22539 0.23407 0.21859 0.25084 0.22165 0.16611
3819.376 0.15061 0.16997 0.19476 0.23327 0.18111 0.156929 0.16883 0.21214 0.2954 0.3868
3857.956 0.3929 0.3291 0.3613 0.5099 0.5168 0.437 0.4374 0.422 0.4018 0.4359
3896.535 0.4297 0.391 0.4409 0.4235 0.4217 0.5131 0.5077 0.4871 0.4474 0.4115
3935.115 0.3895 0.3989 0.4355 0.4 0.4148 0.4356 0.4991 0.5871 0.479 0.4137
3973.694 0.4419 0.4286 0.4935 0.5323 0.5357 0.5336 0.5516 0.5837
##END=
