##TITLE=1,3,5-Triphenyl-1,5-pentadione
##JCAMP-DX=4.24
##DATA TYPE=INFRARED SPECTRUM
##ORIGIN=EPA-IR VAPOR PHASE LIBRARY
##OWNER=SRD/NIST
Collection (C) 2018 copyright by the U.S. Secretary of Commerce
on behalf of the United States of America. All rights reserved.
##CAS REGISTRY NO=6263-84-9
##MOLFORM=C 23 H 19 O 2
##$NIST SOURCE=MSDC-IR
##STATE=gas
##XUNITS=1/CM
##YUNITS=ABSORBANCE
##XFACTOR=1.
##YFACTOR=0.001
##DELTAX=3.85796
##FIRSTX=551.7
##LASTX=4000.7
##FIRSTY=4.571
##MAXX=4000.7
##MINX=551.688
##MAXY=0.039541
##MINY=0
##NPOINTS=895
##XYDATA=(X++(Y..Y))
551.688 4.571 4.251 4.201 3.801 3.241 2.921 2.511 2.151 2.111 2.121
590.268 2.321 2.451 2.571 3.021 3.261 3.331 3.401 3.171 2.621 2.041
628.847 1.551 1.341 1.281 1.451 1.821 2.211 2.831 3.711 4.681 5.411
667.427 5.751 6.251 7.151 8.531 11.421 15.651 19.741 22.011 20.201 15.011
706.006 10.271 7.561 6.101 5.521 5.491 6.081 7.071 8.021 9.431 11.301
744.586 12.401 11.931 10.681 9.561 8.271 6.651 5.071 3.991 3.331 2.861
783.165 2.531 2.211 1.981 1.781 1.571 1.471 1.481 1.371 1.261 1.321
821.745 1.431 1.561 1.611 1.571 1.571 1.471 1.281 1.1093 1.0165 1.0965
860.324 1.271 1.481 1.731 1.781 1.751 1.801 1.581 1.391 1.461 1.521
898.904 1.471 1.451 1.541 1.691 1.791 1.741 1.761 1.831 1.921 1.941
937.484 2.111 2.391 2.601 2.871 3.221 3.661 4.111 4.721 5.551 6.681
976.063 7.931 8.811 8.881 8.261 7.271 6.681 7.181 7.581 7.131 6.571
1014.643 6.201 5.921 5.431 4.731 3.891 3.121 2.681 2.521 2.621 2.541
1053.222 2.371 2.411 2.641 2.941 3.201 3.161 2.861 2.521 1.971 1.661
1091.802 1.621 1.531 1.371 1.411 1.581 1.531 1.641 1.741 1.921 1.991
1130.381 1.831 1.801 1.871 2.181 2.801 3.251 3.641 4.061 4.351 4.861
1168.961 5.881 7.821 10.681 12.931 12.411 10.371 9.941 10.661 11.791 13.441
1207.540 14.651 15.011 14.761 13.871 13.001 12.261 11.571 11.251 11.141 11.111
1246.120 11.351 12.021 13.331 15.411 17.221 17.601 16.721 15.201 13.821 12.651
1284.699 11.591 10.731 9.901 9.321 9.041 8.971 9.061 9.221 9.241 9.021
1323.279 8.821 8.751 8.631 8.311 7.911 7.641 7.521 7.551 7.671 7.721
1361.859 7.521 6.981 6.161 5.341 4.591 3.891 3.301 2.841 2.561 2.451
1400.438 2.451 2.641 2.911 3.121 3.191 3.171 3.191 3.241 3.451 4.021
1439.018 5.171 7.171 9.271 9.171 6.761 4.211 2.801 2.151 1.821 1.711
1477.597 1.751 1.901 2.321 3.091 3.771 3.691 2.921 2.131 1.601 1.341
1516.177 1.241 1.221 1.201 1.191 1.201 1.1541 1.1491 1.175 1.1728 1.201
1554.756 1.221 1.371 1.601 1.951 2.511 3.251 3.991 4.451 4.581 4.781
1593.336 5.411 6.071 5.941 4.911 3.701 2.861 2.371 2.041 1.801 1.641
1631.915 1.641 1.711 1.831 2.051 2.311 2.731 3.211 3.651 4.241 4.981
1670.495 6.191 8.091 10.911 14.911 20.501 27.321 34.601 39.541 38.241 30.941
1709.075 21.751 14.461 9.661 6.691 4.971 3.861 3.181 2.701 2.371 2.131
1747.654 1.941 1.791 1.721 1.671 1.531 1.401 1.361 1.311 1.281 1.281
1786.234 1.301 1.371 1.501 1.591 1.661 1.671 1.511 1.321 1.115 0.9386
1824.813 0.8459 0.7896 0.7399 0.7313 0.7043 0.6768 0.6789 0.7031 0.7218 0.7494
1863.393 0.7984 0.8416 0.8977 0.9142 0.936 1.0041 1.0442 1.0641 1.0759 1.0673
1901.972 1.0159 0.9725 0.9628 0.9072 0.8046 0.7791 0.834 0.8562 0.9216 1.0187
1940.552 1.0687 1.1458 1.261 1.351 1.401 1.311 1.1471 1.0727 0.9993 0.8469
1979.131 0.7238 0.5956 0.4847 0.4587 0.4573 0.4572 0.427 0.4094 0.3859 0.3691
2017.711 0.3586 0.3882 0.432 0.4094 0.3609 0.3151 0.3068 0.2953 0.27909 0.3044
2056.291 0.3571 0.3431 0.2973 0.2956 0.2935 0.28194 0.2627 0.24706 0.23414 0.26592
2094.870 0.3008 0.2968 0.28547 0.27006 0.26011 0.26749 0.293 0.26951 0.23511 0.24847
2133.450 0.22818 0.21546 0.21967 0.21625 0.25007 0.304 0.3273 0.3105 0.27311 0.23833
2172.029 0.21204 0.196034 0.23728 0.27107 0.26734 0.28894 0.25723 0.198067 0.23355 0.27521
2210.609 0.3159 0.3657 0.3242 0.25088 0.23341 0.24599 0.26905 0.28526 0.3002 0.3061
2249.188 0.2941 0.3151 0.3139 0.3261 0.348 0.3196 0.3327 0.3129 0.3443 0.3989
2287.768 0.3511 0.3246 0.3214 0.3642 0.3907 0.3896 0.4374 0.4914 0.5447 0.5383
2326.347 0.469 0.4572 0.4676 0.4908 0.5311 0.439 0.352 0.3602 0.3484 0.4124
2364.927 0.4296 0.3333 0.3144 0.3252 0.3472 0.3303 0.28265 0.3134 0.3189 0.3178
2403.507 0.3267 0.3084 0.2989 0.3055 0.3279 0.3114 0.3019 0.3268 0.3354 0.3113
2442.086 0.3154 0.3333 0.3273 0.3305 0.3347 0.3275 0.3043 0.3025 0.3115 0.28951
2480.666 0.24312 0.18559 0.21073 0.28649 0.26456 0.24792 0.3032 0.2948 0.25998 0.3071
2519.245 0.3299 0.2917 0.28321 0.2877 0.3071 0.2972 0.27383 0.25576 0.24655 0.27285
2557.825 0.26762 0.3018 0.3006 0.2971 0.3248 0.3068 0.3323 0.3622 0.3707 0.4
2596.404 0.4252 0.3763 0.3093 0.341 0.3512 0.2991 0.3132 0.3381 0.3304 0.3209
2634.984 0.28261 0.28798 0.3507 0.3807 0.3404 0.25193 0.26049 0.3634 0.3773 0.26762
2673.563 0.199884 0.24876 0.3071 0.3325 0.3671 0.3817 0.3322 0.28442 0.3006 0.3362
2712.143 0.28032 0.26875 0.338 0.367 0.3619 0.2992 0.3189 0.3186 0.25906 0.3296
2750.722 0.3472 0.3016 0.3013 0.26812 0.3356 0.3949 0.3159 0.3294 0.3379 0.3014
2789.302 0.3458 0.4299 0.4505 0.4433 0.415 0.3934 0.4457 0.4705 0.4559 0.4177
2827.882 0.4034 0.4606 0.5116 0.5689 0.6144 0.6756 0.7501 0.7893 0.8273 0.8696
2866.461 0.9391 0.9606 0.9812 1.0986 1.221 1.461 1.791 2.081 2.591 3.051
2905.041 3.201 3.161 3.041 2.911 2.811 2.761 2.691 2.571 2.451 2.371
2943.620 2.301 2.291 2.311 2.381 2.501 2.681 2.801 2.851 2.691 2.351
2982.200 2.061 1.721 1.551 1.491 1.521 1.701 1.911 2.051 2.341 2.951
3020.779 3.811 5.131 6.601 7.671 7.931 7.241 6.331 5.731 5.781 6.631
3059.359 8.141 10.251 12.811 14.251 12.991 10.211 8.481 8.161 7.721 6.571
3097.938 5.191 4.211 3.511 2.831 2.181 1.641 1.321 1.0161 0.8595 0.7316
3136.518 0.6482 0.7537 0.7822 0.6628 0.5449 0.6215 0.7331 0.6543 0.4934 0.4974
3175.098 0.4725 0.3823 0.3242 0.26133 0.25532 0.25352 0.3018 0.24808 0.074 0.1327
3213.677 0.22271 0.1693 0.1822 0.1405 0.1652 0.264 0.21755 0.1777 0.1504 0.18
3252.257 0.1646 0.1248 0.22648 0.27656 0.20308 0.1727 0.2094 0.1606 0.1762 0.1733
3290.836 0.1755 0.1671 0.089 0.1377 0.27389 0.28143 0.21212 0.2978 0.3416 0.3091
3329.416 0.18736 0.1682 0.3101 0.405 0.3826 0.3449 0.4352 0.4994 0.5402 0.589
3367.995 0.6467 0.6203 0.5695 0.6353 0.7542 0.7666 0.6269 0.5358 0.4317 0.3664
3406.575 0.3539 0.29007 0.27014 0.3106 0.312 0.25159 0.3054 0.3302 0.28441 0.2983
3445.154 0.26835 0.25819 0.27516 0.197352 0.098 0.1224 0.197819 0.18518 0.25048 0.3399
3483.734 0.296 0.194964 0.172 0.25375 0.26082 0.1615 0.1372 0.18508 0.1436 0.1062
3522.314 0.1386 0.1418 0.1358 0.089 0.0975 0.1218 0 0.036 0.1501 0.23175
3560.893 0.25584 0.27177 0.26318 0.1645 0.23319 0.26718 0.20989 0.1763 0.20152 0.20158
3599.473 0.21265 0.21139 0.1633 0.23208 0.23751 0.26765 0.3373 0.28798 0.3287 0.3357
3638.052 0.21826 0.3138 0.3921 0.3114 0.23521 0.22317 0.24019 0.25559 0.3259 0.4005
3676.632 0.28603 0.200291 0.3402 0.3173 0.25938 0.23734 0.19755 0.2505 0.26798 0.26659
3715.211 0.25525 0.26281 0.26955 0.2589 0.22576 0.1783 0.1634 0.1344 0.2034 0.2845
3753.791 0.3313 0.3585 0.353 0.3669 0.21707 0.1125 0.121 0.084 0.0967 0.074
3792.370 0.1295 0.1249 0.08 0.1505 0.190763 0.22569 0.3551 0.4432 0.3824 0.3062
3830.950 0.2911 0.3016 0.22456 0.18723 0.1734 0.13 0.1725 0.21807 0.21286 0.1696
3869.530 0.1542 0.1556 0.1348 0.1254 0.1202 0.028 0.005 0.1647 0.28759 0.22991
3908.109 0.1335 0.1155 0.1519 0.1131 0.06 0.1235 0.20327 0.193392 0.193136 0.1779
3946.689 0.086 0.14 0.20723 0.23825 0.24985 0.22101 0.23211 0.1429 0.1429 0.23435
3985.268 0.1625 0.002 0.038 0.21589 0.26685
##END=
