##TITLE=1-Nitrobutane
##JCAMP-DX=4.24
##DATA TYPE=INFRARED SPECTRUM
##ORIGIN=NIST Mass Spectrometry Data Center
##OWNER=NIST Standard Reference Data Program
Collection (C) 2018 copyright by the U.S. Secretary of Commerce
on behalf of the United States of America. All rights reserved.
##CAS REGISTRY NO=627-05-4
##MOLFORM=C 4 H 9 N O 2
##$NIST SOURCE=MSDC-IR
##SPECTROMETER/DATA SYSTEM=HP-GC/MS/IRD
##STATE=gas
##XUNITS=1/CM
##YUNITS=ABSORBANCE
##XFACTOR=1.0
##YFACTOR=0.000009900
##DELTAX=4.0
##FIRSTX=550.0
##LASTX=3846.0
##FIRSTY=0.000782
##MAXX=3846
##MINX=550
##MAXY=0.099
##MINY=0
##NPOINTS=825
##XYDATA=(X++(Y..Y))
550.0 79 64 53 60 65 81 104 128 156 177
590.0 203 233 259 290 311 328 337 340 333 321
630.0 310 290 275 254 232 212 187 165 138 125
670.0 119 110 109 112 120 128 133 153 179 209
710.0 247 279 301 316 321 314 301 297 310 347
750.0 399 434 445 441 421 369 301 246 203 173
790.0 147 121 103 91 81 74 74 74 67 72
830.0 85 99 125 166 211 251 275 288 285 260
870.0 220 180 148 131 123 119 122 136 150 158
910.0 163 160 147 128 114 88 64 50 40 34
950.0 37 39 34 34 31 24 19 20 19 17
990.0 15 13 8 8 11 12 8 0 9 12
1030.0 6 4 10 14 20 26 36 50 52 49
1070.0 50 54 64 72 75 83 102 129 167 214
1110.0 269 320 363 392 393 381 357 315 272 238
1150.0 215 191 175 171 171 172 181 200 225 259
1190.0 302 344 380 412 440 458 462 452 434 411
1230.0 383 354 333 315 300 291 284 279 278 276
1270.0 277 281 284 293 307 323 342 363 383 401
1310.0 420 446 480 523 588 682 797 932 1087 1260
1350.0 1461 1693 1957 2250 2565 2868 3099 3175 3083 2861
1390.0 2477 1945 1417 1041 828 722 688 711 787 926
1430.0 1110 1267 1368 1443 1496 1479 1380 1253 1149 1066
1470.0 989 910 826 746 684 639 615 618 652 726
1510.0 839 1003 1238 1560 1986 2526 3188 3980 4914 5952
1550.0 7040 8090 9003 9649 9940 10000 9953 9641 8873 7717
1590.0 6375 5040 3843 2869 2110 1526 1092 783 576 438
1630.0 343 278 230 194 168 146 129 113 101 91
1670.0 83 76 69 66 60 55 53 51 46 41
1710.0 39 38 38 34 31 29 28 25 23 23
1750.0 23 20 19 18 18 19 18 16 15 14
1790.0 16 13 14 15 14 12 14 15 15 14
1830.0 12 13 12 12 11 8 7 8 7 7
1870.0 7 9 10 8 7 7 8 8 6 6
1910.0 6 5 4 4 5 5 4 4 5 5
1950.0 5 4 3 3 4 3 3 1 1 3
1990.0 3 2 3 4 3 3 3 5 6 6
2030.0 5 6 7 7 9 9 8 9 10 9
2070.0 8 7 5 4 4 4 2 1 3 5
2110.0 3 3 5 4 6 5 5 5 3 5
2150.0 6 6 5 6 7 6 7 9 8 8
2190.0 8 10 11 12 13 14 15 17 20 23
2230.0 26 29 34 38 47 57 64 72 79 83
2270.0 85 85 80 73 64 59 53 47 40 34
2310.0 32 30 27 24 23 21 19 21 19 17
2350.0 17 15 18 22 23 22 21 21 20 21
2390.0 20 21 23 25 25 26 26 29 30 28
2430.0 30 31 30 28 28 29 27 26 27 28
2470.0 27 26 25 24 24 23 21 16 11 11
2510.0 10 9 6 3 2 3 1 2 3 3
2550.0 5 8 6 6 7 8 8 7 7 10
2590.0 8 7 8 7 7 7 6 6 6 8
2630.0 9 9 12 13 13 15 17 20 24 29
2670.0 32 34 37 39 41 44 48 52 57 62
2710.0 66 72 81 89 95 100 110 119 124 123
2750.0 121 123 119 115 110 107 103 101 102 106
2790.0 109 111 119 128 136 146 159 174 193 211
2830.0 231 260 294 338 398 463 541 633 741 866
2870.0 1015 1189 1374 1513 1586 1623 1635 1616 1570 1544
2910.0 1570 1649 1756 1888 2048 2239 2458 2677 2862 3021
2950.0 3186 3350 3504 3672 3865 4007 3987 3795 3446 2965
2990.0 2400 1868 1456 1157 942 786 676 589 521 464
3030.0 414 370 328 290 257 231 207 182 165 151
3070.0 137 126 120 114 108 105 100 91 84 80
3110.0 76 70 65 68 66 59 57 56 55 53
3150.0 49 47 47 47 46 46 43 41 38 37
3190.0 34 33 36 32 31 28 26 21 18 15
3230.0 11 10 10 12 8 10 11 6 4 6
3270.0 7 6 6 8 3 1 4 6 11 11
3310.0 4 2 6 6 3 3 7 9 6 0
3350.0 6 12 9 6 2 2 4 1 0 7
3390.0 10 8 2 1 4 6 3 6 5 1
3430.0 9 13 8 3 6 9 9 10 9 12
3470.0 8 6 8 10 13 13 14 13 11 12
3510.0 12 10 10 10 9 15 19 16 14 14
3550.0 11 12 13 3 2 9 10 11 12 13
3590.0 11 9 10 12 15 14 12 13 14 15
3630.0 16 21 19 18 17 18 20 17 16 19
3670.0 20 17 19 20 16 14 15 19 22 21
3710.0 16 11 12 18 19 15 18 21 21 22
3750.0 20 16 19 17 12 17 19 15 16 14
3790.0 15 24 27 27 25 21 18 20 22 23
3830.0 24 21 15 14 17
##END=
