##TITLE=Isobutylethyl ether
##JCAMP-DX=4.24
##DATA TYPE=INFRARED SPECTRUM
##ORIGIN=NIST Mass Spectrometry Data Center
##OWNER=NIST Standard Reference Data Program
Collection (C) 2018 copyright by the U.S. Secretary of Commerce
on behalf of the United States of America. All rights reserved.
##CAS REGISTRY NO=627-02-1
##MOLFORM=C 6 H 14 O
##$NIST SOURCE=MSDC-IR
##SPECTROMETER/DATA SYSTEM=HP-GC/MS/IRD
##STATE=gas
##XUNITS=1/CM
##YUNITS=ABSORBANCE
##XFACTOR=1.0
##YFACTOR=0.000005000
##DELTAX=4.0
##FIRSTX=550.0
##LASTX=3846.0
##FIRSTY=0.000340
##MAXX=3846
##MINX=550
##MAXY=0.05
##MINY=0
##NPOINTS=825
##XYDATA=(X++(Y..Y))
550.0 68 70 79 62 55 50 42 19 12 31
590.0 51 44 33 40 32 31 21 30 40 35
630.0 25 23 44 25 7 17 4 12 46 33
670.0 16 28 40 44 50 53 46 43 45 50
710.0 50 52 45 30 28 34 32 40 48 39
750.0 42 50 39 43 59 66 76 93 92 92
790.0 110 130 143 143 148 159 163 157 149 159
830.0 179 207 219 219 235 255 275 302 330 364
870.0 401 426 438 434 421 405 379 348 318 299
910.0 289 289 293 299 299 307 317 329 348 374
950.0 399 414 427 435 436 436 430 444 473 515
990.0 574 629 680 724 748 756 754 742 722 703
1030.0 700 714 761 836 954 1143 1395 1706 2029 2326
1070.0 2585 2801 2981 3140 3337 3634 4080 4694 5477 6423
1110.0 7471 8513 9395 9945 10000 9520 8594 7218 5566 4201
1150.0 3361 2851 2520 2305 2131 1969 1822 1659 1479 1299
1190.0 1128 960 811 691 597 532 487 458 437 413
1230.0 395 391 391 396 405 411 426 439 452 475
1270.0 515 551 584 617 633 642 637 613 580 543
1310.0 502 467 462 487 530 583 655 753 893 1055
1350.0 1191 1290 1383 1501 1610 1734 1959 2229 2395 2401
1390.0 2279 2041 1669 1271 990 828 732 681 653 646
1430.0 654 677 723 797 888 988 1093 1201 1307 1393
1470.0 1419 1375 1276 1136 960 779 621 492 393 319
1510.0 266 227 201 178 153 135 123 114 106 101
1550.0 98 93 91 88 84 81 82 78 77 74
1590.0 72 75 81 82 81 81 79 78 79 74
1630.0 72 71 68 66 64 64 66 68 64 59
1670.0 58 58 55 52 50 48 48 47 45 41
1710.0 39 36 33 34 35 29 25 25 27 27
1750.0 26 25 25 26 25 25 21 19 15 20
1790.0 23 17 15 13 9 10 10 9 12 13
1830.0 10 8 7 12 16 18 16 18 18 18
1870.0 19 20 19 17 19 22 27 35 35 35
1910.0 39 44 45 48 54 56 58 62 71 74
1950.0 72 72 68 70 76 74 75 79 80 85
1990.0 90 91 90 91 94 95 85 76 68 58
2030.0 48 41 38 36 34 32 28 23 22 28
2070.0 29 28 29 30 30 34 37 36 39 41
2110.0 42 44 45 46 44 45 45 41 38 38
2150.0 37 33 33 34 31 23 20 27 28 22
2190.0 15 14 16 16 18 17 15 21 21 18
2230.0 16 21 22 25 29 29 31 29 25 24
2270.0 30 31 28 27 24 23 22 21 18 13
2310.0 10 11 10 7 9 10 7 7 5 3
2350.0 0 3 8 13 14 9 6 8 11 15
2390.0 16 15 12 15 20 21 19 16 16 14
2430.0 12 12 12 10 12 4 0 5 5 9
2470.0 14 11 8 10 11 14 10 6 7 6
2510.0 9 12 13 15 21 20 19 20 22 20
2550.0 25 35 42 49 49 52 57 71 83 94
2590.0 103 104 106 110 109 113 123 125 124 124
2630.0 129 135 132 131 136 144 139 138 148 158
2670.0 164 172 186 200 213 230 251 280 311 341
2710.0 375 408 439 468 499 527 546 562 578 594
2750.0 610 629 651 677 705 744 791 849 906 963
2790.0 1028 1096 1162 1231 1309 1397 1488 1596 1749 1951
2830.0 2208 2537 2941 3425 3963 4526 5100 5643 6126 6548
2870.0 6893 7074 7018 6795 6496 6128 5721 5343 5092 4972
2910.0 4944 4989 5100 5272 5501 5796 6090 6347 6590 6859
2950.0 7163 7505 8014 8567 8801 8807 8679 8125 7131 6032
2990.0 4944 3857 2897 2178 1686 1336 1090 908 776 687
3030.0 619 564 521 478 442 420 402 377 354 335
3070.0 323 313 299 286 277 273 266 255 251 250
3110.0 243 235 223 211 198 190 190 186 185 185
3150.0 180 169 163 166 169 164 163 161 155 152
3190.0 144 132 131 129 122 114 105 95 80 68
3230.0 70 65 57 60 60 51 53 49 45 53
3270.0 55 52 49 41 37 52 59 50 43 47
3310.0 46 39 38 42 39 34 40 37 34 40
3350.0 40 43 43 39 44 44 36 40 37 29
3390.0 34 36 34 33 30 19 23 34 29 25
3430.0 23 15 20 22 19 21 30 36 28 30
3470.0 32 32 33 25 20 26 24 17 12 11
3510.0 18 28 26 18 11 15 18 28 26 7
3550.0 11 19 25 26 22 23 30 24 4 3
3590.0 14 13 15 24 26 20 19 23 23 26
3630.0 22 20 18 14 21 30 17 21 32 33
3670.0 31 21 26 43 47 53 51 48 50 45
3710.0 46 52 44 30 35 51 50 58 69 64
3750.0 53 43 48 44 45 47 49 51 58 61
3790.0 61 61 56 60 62 61 67 72 76 68
3830.0 70 71 56 67 72
##END=
