##TITLE=4-(2,3-Epoxypropyl)morpholine
##JCAMP-DX=4.24
##DATA TYPE=INFRARED SPECTRUM
##ORIGIN=EPA-IR VAPOR PHASE LIBRARY
##OWNER=SRD/NIST
Collection (C) 2018 copyright by the U.S. Secretary of Commerce
on behalf of the United States of America. All rights reserved.
##CAS REGISTRY NO=6270-19-5
##MOLFORM=C 7 H 13 N O 2
##$NIST SOURCE=MSDC-IR
##STATE=gas
##XUNITS=1/CM
##YUNITS=ABSORBANCE
##XFACTOR=1.
##YFACTOR=0.001
##DELTAX=1.92898
##FIRSTX=549.8
##LASTX=4000.7
##FIRSTY=0.4033
##MAXX=4000.7
##MINX=549.759
##MAXY=0.138146
##MINY=0
##NPOINTS=1790
##XYDATA=(X++(Y..Y))
549.759 0.4033 0.5189 0.4304 0.6911 0.9763 1.0833 0.7504 0.4075 0.6135 0.7452
569.049 0.6935 0.5847 0.4783 0.6117 0.8568 0.717 0.5637 0.6775 0.526 0.3349
588.339 0.28546 0.27169 0.5726 0.9223 0.7519 0.5587 0.7867 0.9127 1.0067 1.0465
607.628 0.9564 1.236 1.466 1.776 2.426 3.106 3.976 5.066 6.036 6.506
626.918 6.926 7.176 7.276 7.296 6.616 5.826 4.926 3.916 3.206 2.666
646.208 2.296 2.046 1.966 1.956 1.836 1.836 1.736 1.396 1.386 1.286
665.498 1.226 1.306 1.376 1.416 1.1397 0.9035 0.8715 0.7858 0.901 0.9418
684.787 0.7232 0.5694 0.5543 0.6335 0.719 0.7257 0.6194 0.6396 0.6886 0.6935
704.077 0.7583 0.9075 1.1261 1.1405 1.0434 1.0647 0.9541 0.9601 1.1463 1.0572
723.367 1.123 1.316 1.516 1.836 2.066 2.256 2.446 2.766 3.136 3.366
742.657 3.586 4.036 4.546 4.956 5.336 5.876 6.456 6.986 7.586 8.516
761.947 9.606 10.666 11.546 12.026 12.266 12.616 13.006 13.246 12.976 12.116
781.236 11.276 10.796 10.726 10.856 11.206 11.576 12.026 12.736 13.176 13.316
800.526 13.686 14.196 14.766 15.186 15.596 16.096 16.496 16.796 16.996 17.206
819.816 17.406 17.896 18.526 19.506 20.786 22.376 24.366 26.356 28.296 30.166
839.106 31.976 33.026 33.406 33.866 33.976 33.516 33.026 32.666 32.716 33.686
858.395 35.916 38.906 41.796 44.346 46.096 46.676 46.256 45.286 43.486 40.436
877.685 35.876 30.686 26.156 22.826 20.966 19.716 18.936 19.006 19.456 20.306
896.975 21.686 23.076 24.426 25.976 27.356 28.816 30.506 31.966 32.956 33.446
916.265 33.936 34.606 35.416 35.786 35.186 33.806 32.166 30.576 28.636 26.406
935.555 23.766 20.866 18.036 15.656 13.976 12.496 11.146 10.146 9.566 9.126
954.844 8.916 8.976 9.156 9.646 10.136 10.476 11.056 11.436 11.826 12.316
974.134 12.556 12.646 12.616 12.606 12.566 12.566 12.786 13.156 13.696 14.666
993.424 16.116 18.326 21.696 25.856 30.696 35.806 40.356 43.876 45.876 46.146
1012.714 45.136 43.516 40.986 37.066 31.716 25.796 20.756 17.396 15.566 14.596
1032.003 13.986 13.366 12.256 11.026 10.306 9.756 9.186 8.626 8.206 8.296
1051.293 8.396 8.336 8.496 8.996 9.836 10.756 11.936 12.956 13.416 14.186
1070.583 14.966 15.306 15.816 15.936 16.206 16.286 16.006 16.216 16.116 16.456
1089.873 17.676 19.526 21.956 24.836 28.296 32.986 38.956 45.126 52.416 60.806
1109.163 70.136 80.596 91.216 101.696 111.766 120.506 127.586 133.146 136.486 137.916
1128.452 138.146 137.306 134.496 129.336 122.156 114.636 107.996 102.016 96.586 90.786
1147.742 83.806 75.656 66.736 57.796 49.776 42.526 35.796 30.026 24.986 20.836
1167.032 17.866 15.846 14.186 12.786 12.066 11.486 10.786 10.006 9.366 9.006
1186.322 8.556 7.916 7.666 7.666 7.446 7.246 7.206 7.336 7.416 7.836
1205.611 7.936 7.726 7.586 7.446 7.626 7.576 7.456 7.456 7.846 8.366
1224.901 8.826 8.956 9.526 10.916 12.196 13.176 13.916 14.756 15.406 16.286
1244.191 17.306 18.166 19.116 19.966 20.646 21.186 21.866 22.806 23.846 24.846
1263.481 25.606 26.026 26.216 26.666 27.596 28.526 29.336 30.046 30.666 31.246
1282.771 31.776 32.436 32.996 33.476 33.806 33.586 32.746 31.516 30.036 28.466
1302.060 27.116 25.866 24.676 23.796 23.266 23.236 23.736 24.686 26.066 27.826
1321.350 29.756 31.276 32.086 32.496 32.766 32.866 32.846 32.306 30.966 29.226
1340.640 27.546 26.026 24.826 23.866 22.906 21.776 20.516 19.226 17.866 16.596
1359.930 15.606 14.866 14.356 14.076 14.026 14.106 14.126 14.066 13.886 13.576
1379.219 13.346 13.156 12.986 12.756 12.226 11.576 10.966 10.446 9.986 9.616
1398.509 9.266 8.716 8.186 7.776 7.426 7.246 7.166 7.136 7.136 7.086
1417.799 7.176 7.366 7.626 7.996 8.456 9.076 9.776 10.586 11.546 12.616
1437.089 14.026 15.726 17.446 19.326 21.276 23.086 24.766 26.336 27.586 28.416
1456.378 28.746 28.266 26.986 25.256 23.276 21.056 18.836 16.756 14.836 13.166
1475.668 11.776 10.576 9.586 8.806 8.086 7.456 6.886 6.366 5.886 5.346
1494.958 4.776 4.276 3.806 3.376 3.046 2.786 2.586 2.386 2.276 2.226
1514.248 2.126 2.046 2.106 2.166 2.116 2.106 2.136 2.106 2.126 2.096
1533.538 2.066 2.036 1.966 1.906 1.916 1.866 1.786 1.766 1.696 1.636
1552.827 1.526 1.456 1.446 1.346 1.266 1.286 1.266 1.276 1.276 1.143
1572.117 1.0924 1.1245 1.1578 1.1684 1.1422 1.1558 1.1267 1.1218 1.1345 1.0312
1591.407 1.0077 1.0237 1.028 1.0847 1.0868 1.039 1.0402 1.114 1.1734 1.1537
1610.697 1.1208 1.1038 1.081 1.1207 1.1191 0.9987 0.9317 0.9636 1.0067 1.0429
1629.986 0.9992 0.9017 0.9923 1.0279 0.9315 0.962 0.9488 0.9104 0.9311 0.9324
1649.276 0.9143 0.9144 0.893 0.8443 0.8233 0.779 0.7626 0.817 0.8519 0.9007
1668.566 0.8691 0.8762 0.9738 0.9488 0.9175 0.9357 0.9337 0.9222 0.8903 0.9127
1687.856 0.9153 0.87 0.8705 0.8906 0.8749 0.8887 0.9277 0.9269 0.9758 1.0143
1707.146 0.9966 1.0443 1.1304 1.1111 1.0459 1.0652 1.1176 1.1798 1.216 1.1925
1726.435 1.206 1.236 1.1927 1.1416 1.1441 1.1405 1.1259 1.0668 0.9846 0.9272
1745.725 0.9507 0.9806 0.9516 0.8788 0.8318 0.8764 0.8398 0.7867 0.8416 0.8596
1765.015 0.8718 0.8554 0.8134 0.7963 0.7972 0.8262 0.8363 0.7846 0.751 0.7604
1784.305 0.7658 0.7921 0.7932 0.7602 0.7174 0.7227 0.7476 0.7264 0.7096 0.7295
1803.594 0.7357 0.6879 0.6774 0.7141 0.6287 0.5785 0.6306 0.6541 0.6301 0.6158
1822.884 0.618 0.6161 0.6434 0.5975 0.5989 0.6684 0.6237 0.6212 0.6446 0.6497
1842.174 0.688 0.6715 0.6699 0.6683 0.674 0.7162 0.7599 0.7799 0.7876 0.8072
1861.464 0.7779 0.746 0.8292 0.8899 0.9229 0.9347 0.8801 0.8281 0.8435 0.9034
1880.754 0.9716 0.9912 0.9869 1.0268 1.07 1.1522 1.1734 1.1712 1.226 1.346
1900.043 1.356 1.336 1.416 1.436 1.456 1.536 1.586 1.586 1.616 1.726
1919.333 1.796 1.796 1.856 1.926 2.016 2.066 2.066 2.036 2.026 2.076
1938.623 2.046 2.006 2.006 1.936 1.946 1.936 1.886 1.876 1.916 1.946
1957.913 1.976 2.086 2.176 2.246 2.306 2.376 2.426 2.536 2.666 2.756
1977.202 2.816 2.836 2.846 2.836 2.796 2.746 2.666 2.566 2.456 2.346
1996.492 2.216 2.046 1.916 1.866 1.726 1.566 1.516 1.466 1.396 1.376
2015.782 1.316 1.316 1.346 1.296 1.286 1.326 1.366 1.306 1.266 1.306
2035.072 1.266 1.246 1.266 1.216 1.196 1.246 1.216 1.1279 1.1195 1.1572
2054.362 1.1444 1.068 1.0172 1.0326 1.0398 1.0419 1.0676 1.0718 1.0907 1.0685
2073.651 1.0443 1.0963 1.1326 1.168 1.1554 1.216 1.306 1.356 1.386 1.326
2092.941 1.306 1.286 1.306 1.396 1.366 1.256 1.246 1.286 1.226 1.226
2112.231 1.246 1.206 1.1762 1.1716 1.246 1.226 1.1622 1.1397 1.106 1.1136
2131.521 1.1034 1.1311 1.206 1.206 1.157 1.183 1.226 1.184 1.1455 1.1493
2150.810 1.1567 1.1914 1.246 1.226 1.196 1.206 1.196 1.1512 1.1646 1.1848
2170.100 1.1845 1.1704 1.1469 1.206 1.1896 1.1442 1.123 1.1329 1.0867 1.0594
2189.390 1.1757 1.206 1.163 1.1674 1.1837 1.206 1.1922 1.1869 1.236 1.266
2208.680 1.236 1.246 1.376 1.406 1.366 1.406 1.486 1.526 1.596 1.666
2227.970 1.676 1.746 1.846 1.876 1.956 2.036 2.126 2.246 2.316 2.316
2247.259 2.316 2.296 2.266 2.296 2.246 2.176 2.196 2.156 2.106 2.096
2266.549 2.026 1.936 1.896 1.936 1.946 1.966 2.016 2.016 2.006 1.966
2285.839 1.946 1.916 1.906 1.886 1.836 1.806 1.766 1.696 1.636 1.646
2305.129 1.596 1.526 1.546 1.546 1.506 1.396 1.296 1.286 1.246 1.1864
2324.418 1.1708 1.147 1.0621 1.0395 1.0323 1.0267 1.0565 0.9745 0.9505 0.9932
2343.708 0.9575 0.9917 0.9286 0.8652 0.9095 0.9203 0.9773 0.9937 0.9915 0.9996
2362.998 1.0038 1.0384 1.0875 1.071 1.012 1.1022 1.216 1.196 1.226 1.226
2382.288 1.216 1.256 1.246 1.216 1.266 1.296 1.286 1.246 1.276 1.336
2401.578 1.256 1.1399 1.06 1.1149 1.1783 1.1708 1.1483 1.1017 1.079 1.128
2420.867 1.1004 1.0976 1.0803 1.0047 1.0231 1.0598 1.0521 1.0284 0.972 0.8974
2440.157 0.9478 0.9693 0.9175 0.8839 0.9323 1.0008 1.0014 1.0359 1.0587 1.1142
2459.447 1.1738 1.1873 1.1558 1.1676 1.226 1.216 1.236 1.276 1.306 1.276
2478.737 1.226 1.266 1.266 1.1917 1.1717 1.236 1.296 1.276 1.246 1.182
2498.026 1.286 1.346 1.236 1.206 1.246 1.1807 1.1255 1.1699 1.1575 1.1734
2517.316 1.206 1.206 1.206 1.127 1.1272 1.1668 1.1695 1.236 1.256 1.246
2536.606 1.196 1.276 1.326 1.286 1.296 1.306 1.306 1.336 1.296 1.386
2555.896 1.546 1.626 1.656 1.646 1.696 1.786 1.826 1.846 1.956 1.986
2575.186 1.936 1.916 1.826 1.766 1.826 1.846 1.886 1.886 1.876 1.966
2594.475 1.996 2.036 2.136 2.236 2.246 2.306 2.326 2.396 2.546 2.616
2613.765 2.626 2.596 2.646 2.716 2.826 2.896 2.906 3.036 3.246 3.436
2633.055 3.636 3.726 3.946 4.256 4.496 4.736 4.946 5.186 5.426 5.756
2652.345 5.986 6.146 6.326 6.506 6.746 7.046 7.266 7.456 7.676 7.916
2671.634 8.346 8.826 9.246 9.686 10.226 10.796 11.286 11.686 12.096 12.476
2690.924 12.676 12.856 12.996 13.116 13.276 13.346 13.336 13.236 13.076 12.976
2710.214 12.896 12.836 12.896 13.036 13.136 13.356 13.676 14.176 14.826 15.306
2729.504 15.866 16.626 17.386 18.246 19.236 20.086 20.946 21.896 22.786 23.616
2748.794 24.316 24.866 25.416 25.856 26.256 26.666 27.036 27.406 27.766 28.166
2768.083 28.516 28.986 29.786 30.956 32.456 34.256 36.506 39.186 42.266 45.966
2787.373 50.006 54.436 59.196 64.176 69.446 74.616 79.756 84.816 89.466 93.456
2806.663 96.446 98.276 98.976 98.726 97.516 95.196 91.846 87.746 83.236 78.606
2825.953 74.216 69.906 65.936 62.716 59.916 57.606 56.126 55.456 55.856 57.576
2845.242 60.236 63.846 68.626 74.336 80.746 87.116 92.876 97.646 101.326 103.836
2864.532 103.236 98.886 93.056 87.056 80.916 74.846 69.206 64.056 59.486 55.756
2883.822 53.026 51.016 49.476 48.826 49.066 49.826 50.946 52.356 53.996 55.606
2903.112 56.956 58.116 59.316 60.866 62.806 64.796 66.976 69.186 71.366 73.746
2922.401 76.106 78.276 80.206 81.616 82.466 82.776 82.296 81.486 80.446 78.946
2941.691 77.356 75.826 74.166 72.486 71.296 71.036 72.006 74.526 78.746 84.796
2960.981 92.916 102.346 110.646 115.096 114.706 112.626 112.356 112.256 108.696 100.666
2980.271 89.156 76.676 66.166 58.566 53.206 49.406 46.516 44.286 42.766 41.436
2999.561 40.066 38.636 36.736 34.306 31.736 29.096 26.366 23.786 21.416 19.266
3018.850 17.406 15.896 14.876 14.176 13.846 13.886 14.386 15.546 17.076 18.936
3038.140 21.136 23.446 25.716 27.826 29.616 30.826 31.056 29.926 28.056 26.006
3057.430 23.476 20.636 17.826 15.196 12.926 11.056 9.346 7.716 6.376 5.316
3076.720 4.566 3.956 3.536 3.126 2.836 2.706 2.406 2.256 2.266 2.166
3096.009 2.046 2.066 1.986 1.876 1.816 1.836 1.896 1.676 1.536 1.706
3115.299 1.696 1.536 1.466 1.436 1.426 1.466 1.376 1.276 1.236 1.1698
3134.589 1.1516 1.256 1.266 1.216 1.1129 1.002 1.1296 1.256 1.1859 1.0949
3153.879 1.1374 1.206 1.114 1.0047 0.9947 0.8887 0.8888 0.9612 0.8746 0.8787
3173.169 0.8818 0.8263 0.8192 0.8683 0.8846 0.7493 0.7533 0.874 0.8547 0.8703
3192.458 0.8809 0.842 0.8583 0.8936 0.8637 0.7111 0.8177 0.8997 0.8429 0.8724
3211.748 0.9051 0.9468 0.987 1.0162 1.0277 0.9343 0.8527 0.9663 1.0127 0.9011
3231.038 0.8865 0.915 0.8446 0.9265 0.9809 0.8468 0.7671 0.6828 0.7275 0.8112
3250.328 0.7899 0.7593 0.6795 0.7614 0.7537 0.5971 0.5554 0.591 0.4527 0.3805
3269.617 0.504 0.5806 0.595 0.6733 0.7048 0.4621 0.3954 0.5354 0.5146 0.4259
3288.907 0.4185 0.4523 0.5053 0.4226 0.4572 0.5529 0.5584 0.5698 0.6008 0.589
3308.197 0.4877 0.4176 0.377 0.4437 0.4017 0.3144 0.3117 0.307 0.3977 0.4484
3327.487 0.3418 0.3299 0.4164 0.473 0.4106 0.203765 0.25928 0.4063 0.3726 0.3132
3346.777 0.4053 0.4465 0.4232 0.4079 0.3891 0.4815 0.4865 0.4255 0.3542 0.1704
3366.066 0.1742 0.4377 0.5573 0.545 0.3864 0.3617 0.4407 0.3885 0.337 0.2929
3385.356 0.21644 0.21365 0.21895 0.22993 0.4302 0.471 0.4253 0.3714 0.3419 0.3906
3404.646 0.3141 0.2747 0.27542 0.4191 0.3288 0.23108 0.26173 0.23291 0.3149 0.27038
3423.936 0.3271 0.4297 0.4699 0.4544 0.3408 0.3599 0.3798 0.25821 0.22096 0.3198
3443.225 0.488 0.4871 0.5036 0.4447 0.4222 0.6062 0.5021 0.3321 0.29515 0.4766
3462.515 0.5419 0.332 0.26877 0.21171 0.1708 0.09 0 0.3328 0.4762 0.2964
3481.805 0.3957 0.388 0.3101 0.3584 0.3408 0.27266 0.1727 0.1704 0.1666 0.27737
3501.095 0.3432 0.29318 0.3399 0.357 0.22536 0.1655 0.28552 0.1747 0.018 0.07
3520.385 0.24457 0.3653 0.3114 0.3109 0.1628 0 0.1391 0.1178 0.1726 0.26689
3539.674 0.1909 0.1361 0.1196 0.066 0.092 0.25203 0.3144 0.27755 0.200821 0.1838
3558.964 0.029 0.086 0.332 0.1797 0.203454 0.27961 0.1729 0.1734 0.1576 0.1526
3578.254 0.1449 0.202472 0.1864 0.197541 0.19095 0.26997 0.4949 0.4325 0.19193 0.25738
3597.544 0.3447 0.202988 0.3117 0.3869 0.3916 0.4486 0.4123 0.308 0.4067 0.4037
3616.833 0.27248 0.24798 0.24056 0.26201 0.26138 0.28386 0.3361 0.393 0.3688 0.4198
3636.123 0.3716 0.22146 0.21478 0.27281 0.2728 0.23185 0.28602 0.3314 0.28704 0.23583
3655.413 0.1257 0.1502 0.23929 0.27211 0.305 0.3723 0.3163 0.1519 0.19159 0.3596
3674.703 0.4085 0.3271 0.3883 0.3773 0.322 0.4663 0.6437 0.5203 0.28147 0.3934
3693.993 0.3751 0.4085 0.5091 0.3908 0.27363 0.1692 0.3384 0.552 0.4958 0.5188
3713.282 0.5813 0.6046 0.5806 0.4558 0.4212 0.5202 0.4965 0.3071 0.3376 0.4632
3732.572 0.5671 0.6051 0.7486 0.7801 0.5875 0.6414 0.8158 0.7077 0.6122 0.6828
3751.862 0.6833 0.6029 0.539 0.7282 0.8922 0.8871 0.8402 0.8049 0.7558 0.8542
3771.152 0.9421 0.8711 0.7735 0.7765 0.8341 0.8585 0.8621 0.725 0.709 0.6988
3790.441 0.7183 0.8573 0.8712 0.7118 0.7103 0.818 0.8914 0.9264 0.9838 0.9968
3809.731 0.8441 0.7898 0.9192 1.0188 1.05 1.0333 0.9098 0.9109 0.9835 0.988
3829.021 0.8311 0.8289 0.9475 0.8085 0.8113 0.8696 0.8315 0.9013 0.9969 1.1484
3848.311 1.0591 0.8169 0.754 0.8813 1.0592 1.0425 1.005 0.9368 0.8326 0.9458
3867.601 0.9974 1.0323 1.0557 1.0146 1.0354 0.9452 0.9641 0.893 0.8867 0.8487
3886.890 0.6678 0.695 0.8469 1.0248 1.0355 0.9296 0.842 0.8732 0.9134 0.9051
3906.180 0.9261 0.8337 0.6787 0.7002 0.8939 1.1237 1.1465 0.989 0.9319 1.1058
3925.470 1.1625 1.114 1.08 1.1523 1.1703 1.0494 1.226 1.446 1.466 1.296
3944.760 1.1828 1.286 1.196 1.119 1.1719 1.306 1.476 1.486 1.426 1.366
3964.049 1.446 1.486 1.686 1.786 1.586 1.656 1.696 1.656 1.676 1.576
3983.339 1.456 1.466 1.486 1.596 1.696 1.476 1.416 1.476 1.396 1.246
##END=
