##TITLE=Acetone 2-benzothiazolyhydrazone
##JCAMP-DX=4.24
##DATA TYPE=INFRARED SPECTRUM
##ORIGIN=EPA-IR VAPOR PHASE LIBRARY
##OWNER=SRD/NIST
Collection (C) 2018 copyright by the U.S. Secretary of Commerce
on behalf of the United States of America. All rights reserved.
##CAS REGISTRY NO=6277-26-5
##MOLFORM=C 10 H 11 N 3 S
##$NIST SOURCE=MSDC-IR
##STATE=gas
##XUNITS=1/CM
##YUNITS=ABSORBANCE
##XFACTOR=1.
##YFACTOR=0.001
##DELTAX=1.92898
##FIRSTX=549.8
##LASTX=4000.7
##FIRSTY=4.3453
##MAXX=4000.7
##MINX=549.759
##MAXY=0.10669
##MINY=0
##NPOINTS=1790
##XYDATA=(X++(Y..Y))
549.759 4.3453 4.85 4.73 5 4.55 3.171 2.892 3.9578 4.0851 4.0392
569.049 4.99 4.69 3.6794 3.9314 4.46 4.54 4.74 5.49 5.62 5.05
588.339 5.12 4.46 3.7205 4.0606 4.63 4.63 3.9072 3.7901 3.9093 4.3286
607.628 4.7 4.98 5.19 5.05 5.17 4.86 3.889 3.8403 4.63 4.76
626.918 4.3582 4.3054 4.8 5.16 5.34 5.27 4.87 4.56 4.46 5.2
646.208 6.8 6.83 6.27 6.53 7.09 7.69 7.69 7.9 7.91 7.64
665.498 7.42 6.9 6.8 6.84 6.94 7.32 8.33 9.38 10.59 11.39
684.787 11.2 11.1 10.86 9.89 8.56 7.94 7.39 6.75 7.12 7.54
704.077 7.53 8.22 9.02 9.84 10.38 10.98 11.73 12.8 13.99 14.82
723.367 16.72 17.56 16.59 16.32 16.99 17.46 17.62 18.23 18.03 17.91
742.657 18.45 18.87 19.46 20.29 20.33 18.1 15.96 14.62 12.92 11.6
761.947 10.24 8.63 7.15 6.46 6.15 5.51 4.95 5.11 5.48 5.09
781.236 4.94 5.05 4.78 4.67 4.62 5.05 5.38 4.86 4.45 4.71
800.526 5.24 4.93 4.72 4.92 5.14 4.96 4.59 5.21 6.63 6.3
819.816 5.3 5.35 6.16 6.46 5.81 6.21 6.47 6.43 6.27 5.96
839.106 5.96 5.89 6.09 6.45 6.05 6.03 6.03 5.77 6.19 5.84
858.395 5.88 6.82 7.25 7.08 6.99 8.05 9.45 10.55 11.5 12.48
877.685 12.87 12.5 11.83 10.96 10.07 9.33 8.3 7.38 6.64 6.17
896.975 6.27 6.12 5.86 5.57 5.56 5.74 5.58 5.63 5.94 6.11
916.265 6.2 6.15 6.33 6.59 6.65 5.86 5.31 5.45 5.25 5.24
935.555 5.48 5.57 5.5 5.88 5.83 5.26 5.34 5.59 5.46 5.45
954.844 5.86 5.67 5.65 5.45 4.93 5.46 5.59 5.34 5.75 5.79
974.134 5.9 5.62 5.71 6.12 5.6 5.66 5.63 5.51 5.84 6.26
993.424 6.36 6.14 6.6 7.13 7.14 7.54 8.34 9 9.39 10.03
1012.714 10.59 11.28 11.84 11.64 11.01 10.38 9.44 9.2 9.44 9.41
1032.003 9.36 9.88 9.82 9.68 10.95 11.58 11.03 10.46 10.63 10.75
1051.293 11.35 11.38 10.39 9.78 9.08 9.77 10.81 10.92 11.34 10.31
1070.583 10.14 9.94 10.16 10.88 11.09 11.23 11.11 12.53 12.89 12.28
1089.873 11.62 11.61 12.97 13.72 14.92 15.48 14.4 14.8 15.45 15.83
1109.163 16.84 17.38 17.36 19.11 21.59 23.75 25.6 25.75 25.58 25.79
1128.452 25.2 22.99 20.67 19.05 15.6 13.33 11.94 8.57 6.49 6.24
1147.742 5.77 5.54 4.79 3.5695 4.3606 4.72 4.2546 4.53 4.4014 3.8842
1167.032 3.47819 2.563 2.36 2.978 1.8 0.91 1.24 0.75 0.2 0.7
1186.322 1.83 0.77 0 1.56 2.13 0.96 1.2 3.46635 3.8416 2.671
1205.611 3.108 3.8507 4.59 6.37 6.72 6.86 7.78 8.81 9.75 10.76
1224.901 13.03 14.42 14.87 16.43 18.29 20.44 22.69 25.03 27.48 29.2
1244.191 30.17 30.24 29.39 26.76 23.15 19.51 15.44 11.8 9.69 8.24
1263.481 6.85 6.21 6.12 6.54 7.06 8.29 9.61 9.91 9.87 10.06
1282.771 9.49 9 8.6 8.18 8.49 9.53 11.02 12.23 13.51 14.39
1302.060 14.93 15 14.91 15.06 15.06 15.34 16.17 17.69 19.3 20.71
1321.350 21.86 22.07 21.48 20.18 18.33 16.47 14.48 12.57 11.04 9.84
1340.640 9.3 8.77 8.36 8.24 8.16 8.26 8.45 9.03 9.76 10.36
1359.930 10.96 11.64 12.55 13.37 13.82 14.14 14.32 14.42 14.49 14.29
1379.219 13.96 13.71 13.55 13.42 13.26 13.17 13.05 12.95 12.67 12.39
1398.509 12.24 11.92 11.58 11.3 10.98 10.46 10.01 9.91 9.76 9.52
1417.799 9.34 9.28 9.69 10.22 11.05 12.13 13.54 15.57 18.64 22.59
1437.089 27.62 32.73 36.25 37.62 37.23 35.23 31.35 26.79 23.02 20.7
1456.378 19.13 18.43 18.49 18.71 19.2 20.13 20.93 21.11 20.99 20.07
1475.668 18.09 15.81 13.68 11.63 10.12 9.26 8.82 8.69 8.68 8.66
1494.958 8.51 8.47 8.72 9.08 9.26 9.41 9.78 10.05 10.34 10.8
1514.248 11.4 12.32 13.46 14.52 15.94 17.93 20.4 23.31 26.96 31.84
1533.538 38.15 45.54 53.81 64.34 75.67 86.31 96.2 103.33 106.69 106.62
1552.827 102.79 95.54 87.22 78.01 69.27 62.76 57.35 52.92 48.44 44.14
1572.117 40.68 37.55 34.92 32.7 31.17 30.57 30.3 30.74 32.75 35.88
1591.407 40.18 45.31 51.35 58.21 65.18 71.68 76.26 78.56 78.69 75.62
1610.697 70.42 64.33 57.77 51.63 46.49 41.94 37.87 35.18 33.88 33.93
1629.986 35.03 37.01 39.19 41.45 43.37 44.58 44.51 43.04 40.64 36.98
1649.276 32.96 28.73 24.37 21.13 18.37 16.39 14.94 13.49 12.3 11.34
1668.566 10.35 9.79 9.23 8.51 8.24 7.91 7.47 7.24 7.11 6.84
1687.856 6.66 6.55 6.28 5.9 5.62 5.58 5.59 5.45 5.16 5.17
1707.146 5.24 5.04 5.2 5.13 4.76 4.73 4.71 4.69 4.59 4.45
1726.435 4.45 4.51 4.44 4.3939 4.1944 4.1091 4.2257 4.1621 4.12 4.1879
1745.725 4.4108 4.3581 4.1307 4.3386 4.3919 4.3451 4.47 4.5 4.47 4.4155
1765.015 4.3664 4.4136 4.46 4.2929 4.2352 4.3745 4.47 4.59 4.49 4.3374
1784.305 4.2664 4.0798 4.0358 4.1859 4.2077 4.2557 4.3194 4.3934 4.42 4.44
1803.594 4.68 4.83 4.81 4.75 4.73 4.64 4.51 4.3101 4.2772 4.3928
1822.884 4.53 4.84 4.83 4.77 4.86 4.71 4.56 4.64 4.73 4.6
1842.174 4.43 4.45 4.68 4.61 4.55 4.64 4.74 4.81 4.64 4.66
1861.464 4.76 4.73 4.78 4.73 4.89 5.09 4.95 4.84 4.92 5.1
1880.754 5.06 5.01 5 5.02 5.12 5.04 4.91 4.78 4.74 4.7
1900.043 4.64 4.6 4.53 4.71 4.86 4.81 4.83 4.78 4.89 5.22
1919.333 5.3 5.32 5.38 5.41 5.35 4.99 4.71 4.63 4.44 4.3616
1938.623 4.42 4.4099 4.283 4.31 4.42 4.51 4.6 4.4043 4.3706 4.44
1957.913 4.2643 4.2917 4.48 4.67 4.63 4.54 4.44 4.44 4.49 4.3501
1977.202 4.1982 4.2648 4.53 4.65 4.52 4.3019 4.54 4.57 4.3822 4.56
1996.492 4.56 4.57 4.57 4.48 4.3558 4.3632 4.46 4.58 4.71 4.73
2015.782 4.7 4.47 4.43 4.53 4.3714 4.2796 4.48 4.54 4.5 4.47
2035.072 4.44 4.5 4.65 4.59 4.56 4.53 4.42 4.57 4.5 4.5
2054.362 4.42 4.306 4.57 4.69 4.56 4.45 4.42 4.45 4.3315 4.3327
2073.651 4.58 4.62 4.47 4.3535 4.53 4.59 4.47 4.53 4.62 4.61
2092.941 4.57 4.56 4.61 4.63 4.43 4.3728 4.51 4.43 4.3983 4.4164
2112.231 4.48 4.61 4.6 4.74 4.74 4.64 4.75 4.78 4.68 4.63
2131.521 4.72 4.73 4.68 4.69 4.68 4.56 4.3863 4.52 4.66 4.6
2150.810 4.51 4.47 4.68 4.74 4.81 4.76 4.59 4.61 4.74 4.85
2170.100 4.79 4.69 4.64 4.58 4.47 4.47 4.61 4.68 4.86 4.74
2189.390 4.68 4.91 4.98 4.98 4.95 4.98 4.82 4.8 4.81 4.69
2208.680 4.51 4.58 4.69 4.74 4.8 4.72 4.82 4.77 4.64 4.8
2227.970 4.82 4.64 4.6 4.75 4.9 4.96 4.91 4.73 4.71 4.73
2247.259 4.78 4.76 4.72 4.78 4.72 4.64 4.68 4.6 4.48 4.73
2266.549 4.68 4.78 4.86 4.71 4.84 4.73 4.7 4.74 4.83 4.87
2285.839 4.62 4.53 4.57 4.83 4.93 4.85 4.76 4.87 5.09 5.09
2305.129 4.79 4.5 4.68 4.73 4.86 4.97 4.95 4.8 4.7 4.85
2324.418 4.55 4.48 4.5 4.48 4.8 4.89 4.65 4.65 4.81 4.76
2343.708 4.75 4.64 4.69 4.78 4.62 4.54 4.56 4.3687 4.2877 4.48
2362.998 4.65 4.7 4.57 4.53 4.5 4.46 4.44 4.56 4.95 5.05
2382.288 4.73 4.66 4.84 4.77 4.58 4.48 4.64 4.77 4.71 4.55
2401.578 4.7 5.02 4.87 4.78 4.72 4.59 4.54 4.77 4.85 4.74
2420.867 5.02 5.05 4.96 5.14 5.13 5.28 5.08 4.79 4.96 4.79
2440.157 4.91 5.24 5.06 4.98 5.04 5.15 5.1 4.9 4.89 4.91
2459.447 4.89 4.83 4.8 4.88 5.01 5.12 5.05 4.89 5.06 5.11
2478.737 5.11 5.15 4.98 5.05 5.27 5.28 5.36 5.36 5.06 4.89
2498.026 4.88 4.96 4.94 4.87 4.86 4.84 5 5.12 4.83 4.58
2517.316 4.55 4.59 4.97 5.24 5.09 5.15 5.05 4.89 5.01 5.05
2536.606 5.01 4.82 4.75 4.69 4.76 4.76 4.66 4.66 4.63 4.67
2555.896 4.62 4.84 5.13 5.26 5.31 5.11 4.92 5.05 5.27 4.97
2575.186 4.78 5.18 5.09 4.88 5.06 5.13 5.14 4.9 4.7 5.17
2594.475 5.65 5.5 5.18 4.94 5.15 5.34 5.37 5.47 5.45 5.4
2613.765 5.4 5.61 5.51 5.4 5.24 5.24 5.53 5.53 5.21 4.88
2633.055 5.13 5.21 4.83 4.76 4.96 4.81 4.95 5.11 5.01 5.22
2652.345 5.37 5.08 4.84 4.91 4.77 4.74 4.82 4.75 4.84 5.17
2671.634 5.24 4.88 4.75 4.89 5.11 5.18 4.93 4.78 4.82 4.9
2690.924 5.07 4.9 4.65 4.94 5.04 5.14 5.22 5.21 5.18 4.92
2710.214 5.1 5.26 5.16 4.9 4.77 5.2 5.45 5.21 5.34 5.61
2729.504 5.71 5.66 5.63 5.72 5.43 5.39 5.39 5.22 5.39 5.27
2748.794 5.16 5.17 5.45 5.67 5.29 5.11 5.31 5.75 5.89 5.53
2768.083 5.49 5.64 5.46 5.51 5.63 5.49 5.51 5.56 5.34 4.92
2787.373 5.01 5.71 5.99 5.96 5.87 5.51 5.36 5.93 6.04 5.54
2806.663 5.84 6.03 5.87 6.06 5.8 5.83 6.14 5.82 5.59 5.96
2825.953 6.2 6.35 6.62 6.33 6.31 6.6 6.51 6.64 7.3 7.6
2845.242 7.47 7.65 7.7 7.77 8.38 8.6 8.55 8.81 9.13 9.23
2864.532 8.96 8.86 8.8 8.98 8.86 8.7 8.8 8.39 8.09 8.01
2883.822 8.03 8.15 8.3 8.14 8.17 8.3 8.28 8.28 8.06 8.49
2903.112 8.8 8.88 9.61 10.33 10.87 11.53 12.48 13.77 15.61 17.63
2922.401 18.76 19.16 19.19 18.12 16.65 15.58 14.37 13.3 12.21 11.26
2941.691 10.8 10.86 10.94 11.09 11.09 10.7 10.73 10.4 9.94 9.39
2960.981 8.92 8.61 7.99 7.96 8.17 7.85 7.72 7.85 7.58 7.59
2980.271 7.68 7.99 8.52 8.23 8.41 8.61 8.7 8.9 8.64 9.34
2999.561 9.85 9.68 9.88 9.69 8.96 8.6 8.38 8.25 8.24 8.11
3018.850 8.09 8.09 8.28 8.19 8 8.05 8.35 8.42 8.26 8.58
3038.140 8.81 8.86 9.16 9.15 8.95 9.21 9.42 9.42 9.51 9.9
3057.430 10.69 11.51 11.98 12.75 13.76 14.69 15.2 15.62 15.93 15.72
3076.720 15.09 14.57 14.04 12.97 12.09 10.91 9.94 9.49 8.75 8.16
3096.009 7.82 7.22 6.78 6.43 6.03 5.92 6.09 5.98 5.96 6.08
3115.299 5.91 5.83 5.63 5.44 5.56 5.62 5.71 5.66 5.72 5.6
3134.589 5.17 5.3 5.06 4.58 5.01 5.35 5.52 5.5 4.95 4.95
3153.879 4.98 4.78 4.95 5.09 5.39 5.19 4.61 5.02 5.14 4.79
3173.169 4.98 5.21 5.08 5.31 5.04 4.64 4.9 4.69 4.68 4.57
3192.458 4.2731 4.65 4.95 4.8 4.359 4.49 4.85 4.73 4.024 4.3824
3211.748 5.65 5.39 4.84 4.53 4.75 5.22 4.99 4.65 4.43 4.43
3231.038 4.56 4.65 4.92 4.87 4.3073 4.6 5.09 4.89 4.85 4.91
3250.328 4.78 4.54 4.2446 4.0556 4.74 4.98 4.78 4.46 4.42 4.49
3269.617 4.3551 4.49 4.1819 4.347 4.77 4.69 4.52 4.1907 4.0747 4.68
3288.907 4.9 4.87 4.73 4.59 4.7 4.67 5.03 5.03 4.53 4.3307
3308.197 3.8867 3.7344 4.1135 4.57 4.96 4.81 4.3094 4.1 4.5 4.86
3327.487 4.64 4.346 4.85 5.28 4.84 4.68 4.74 4.66 4.53 4.5
3346.777 4.82 5.37 5.69 5.9 6.19 6.17 5.94 5.62 6.08 6.77
3366.066 6.86 7.21 7.23 7.45 7.93 8.32 8.45 8.13 8.09 7.93
3385.356 8.11 8.29 7.29 6.29 6.44 6.16 5.94 5.83 5.17 4.93
3404.646 5.06 5.11 5.12 5.22 5.08 5.16 5.31 5.32 5.55 5.88
3423.936 6.13 6.41 6.96 6.88 6.97 7.03 6.03 6.22 6.55 5.94
3443.225 5.61 5.47 5.24 4.8 4.89 5.19 5.21 5.28 5.29 5.64
3462.515 6.02 6.29 6.26 6.17 6.68 6.74 6.43 6.16 5.96 5.98
3481.805 5.91 5.61 5.43 5.25 4.78 4.56 4.71 4.6 4.1625 3.9584
3501.095 3.7056 3.5205 3.5435 3.3722 3.9136 4.2061 3.9905 4.3412 3.7591 3.238
3520.385 3.6099 4.1843 4.2904 3.8913 3.9181 4.1914 4.1406 3.9353 3.9295 4.0464
3539.674 3.9914 4.0478 4.1823 4.151 4.179 4.002 3.6464 3.8562 3.7389 3.296
3558.964 3.6949 4.1296 3.8584 3.777 3.7887 3.6721 3.7803 3.7927 3.7736 3.258
3578.254 3.44748 4.0857 3.9725 4.046 4.141 4.3491 4.52 4.023 4.3936 4.3813
3597.544 3.541 3.838 3.9274 3.7261 4.0298 3.9647 3.6003 3.9784 4.53 4.45
3616.833 4.3233 3.9507 3.7194 3.5362 3.048 3.249 3.5818 3.7237 3.8813 3.8968
3636.123 4.346 4.5 3.9808 3.9678 4.033 4.4165 4.78 4.0777 4.1751 4.48
3655.413 4.2523 4.2297 4.1542 3.8436 3.45112 3.6741 4.0392 3.8899 3.3847 3.4286
3674.703 3.8475 3.8919 4.0034 4.3546 4.1999 3.703 3.6258 3.9885 4.63 4.2707
3693.993 3.8037 3.9382 4.1774 4.3069 4.1668 3.7148 4.1963 4.1004 3.136 3.7105
3713.282 4.56 4.82 4.49 4.1179 4.044 3.8078 3.5981 3.6269 3.6381 3.9925
3732.572 4.3013 4.1148 3.954 3.861 4.0836 4.1933 3.9952 3.3327 3.27 3.8366
3751.862 3.7757 3.5998 3.7758 3.9787 3.7916 4.0184 3.8806 3.5959 4.3074 4.2129
3771.152 3.9419 4.42 4.1866 3.5765 3.8717 4.2754 3.952 3.9599 3.9345 4.0189
3790.441 4.1901 4.63 4.78 4.1036 3.7972 3.7101 4.1922 4.1269 4.2694 4.54
3809.731 4.0567 4.1528 4.1819 4.1152 4.3741 3.9747 3.6202 4.018 4.1499 4.0835
3829.021 3.7922 4.0828 4.2902 3.7499 4.0072 4.2525 3.9655 3.9081 3.6828 3.7077
3848.311 3.8019 3.8076 4.056 3.7862 3.49454 3.9695 4.3414 4.2684 3.9222 3.8509
3867.601 4.3126 4.1963 3.9769 3.9984 4.1814 4.59 4.57 4.43 4.3685 3.8367
3886.890 3.8862 4.5 4.48 4.3571 4.49 4.3 4.1612 4.2175 3.8882 3.6012
3906.180 3.9276 4.1286 4.2076 4.1202 3.6912 3.4527 3.8399 4.3177 4.14 4.3551
3925.470 4.49 4.1676 4.0956 4.1917 4.2011 4.59 4.81 4.4173 4.0279 3.9675
3944.760 4.3904 4.51 4.2787 4.47 5.03 4.83 4.43 4.5 4.74 5.19
3964.049 4.96 4.55 4.65 4.61 4.0849 3.8118 4.1918 4.2072 3.8922 3.7979
3983.339 4.2847 4.72 4.77 5.12 5.34 5.18 5.02 4.98 4.9 4.68
##END=
