##TITLE=Diethyl 2-methylbenzylphosphonate
##JCAMP-DX=4.24
##DATA TYPE=INFRARED SPECTRUM
##ORIGIN=EPA-IR VAPOR PHASE LIBRARY
##OWNER=SRD/NIST
Collection (C) 2018 copyright by the U.S. Secretary of Commerce
on behalf of the United States of America. All rights reserved.
##CAS REGISTRY NO=62778-16-9
##MOLFORM=C 12 H 19 O 3 P
##$NIST SOURCE=MSDC-IR
##STATE=gas
##XUNITS=1/CM
##YUNITS=ABSORBANCE
##XFACTOR=1.
##YFACTOR=0.001
##DELTAX=1.92934
##FIRSTX=549.9
##LASTX=3999.5
##FIRSTY=57.09
##MAXX=3999.53
##MINX=549.863
##MAXY=0.4525
##MINY=0
##NPOINTS=1789
##XYDATA=(X++(Y..Y))
549.863 57.09 66.04 73.43 78.21 78.95 75.29 68.23 59.06 48.97 39.34
569.156 31.28 25.09 20.53 17.24 14.87 13.25 11.96 10.8 10.14 9.66
588.450 9.13 8.89 8.87 9.15 10 11.31 12.63 13.53 13.98 13.72
607.743 12.84 11.43 9.84 8.53 7.63 7.14 6.81 6.6 6.48 6.33
627.037 6.19 6.15 6.11 6.12 6.18 6.11 6 6.02 6.12 6.19
646.330 6.23 6.27 6.31 6.44 6.48 6.49 6.7 6.84 6.87 6.97
665.624 7.16 7.39 7.63 8 8.48 8.94 9.38 10.01 10.81 11.69
684.917 12.69 13.73 14.77 15.93 17.01 17.95 18.76 19.3 19.45 19.34
704.210 19.17 19.14 19.49 20.58 22.65 25.68 29.88 35.09 40.78 46.44
723.504 51.27 54.88 57.07 57.68 56.87 54.72 51.77 48.72 45.91 43.39
742.797 41.48 40.44 40.18 40.66 41.6 42.79 44.13 45.44 46.67 48.4
762.091 51.26 55.46 61.15 68.31 76.48 85.06 93.22 99.84 104.07 105.5
781.384 104.21 100.75 95.99 90.77 85.81 81.49 77.78 74.55 71.56 68.57
800.678 65.58 62.54 59.5 56.58 53.74 50.96 48.31 45.83 43.58 41.73
819.971 40.59 40.37 41.18 43.12 46.1 49.68 53.25 56.51 59.05 60.28
839.264 60 58.6 56.61 54.59 52.94 51.9 51.35 50.83 50.13 49
858.558 47.24 44.57 41.08 37.31 33.55 29.95 26.83 24.39 22.64 21.41
877.851 20.6 20.16 19.96 20.01 20.21 20.55 21.1 21.77 22.49 23.38
897.145 24.56 25.79 27.13 28.75 30.64 32.8 35.26 37.98 41.11 44.82
916.438 49 53.89 59.66 66.38 74.33 83.86 95.16 108.38 123.63 140.8
935.732 159.61 179.3 198.86 217.27 233.41 246.35 255.38 260.05 260.29 256.34
955.025 248.56 237.6 224.1 208.79 192.47 175.69 159.19 143.47 128.85 115.66
974.318 103.94 93.84 85.36 78.41 72.89 68.7 65.69 63.68 62.57 62.38
993.612 63.11 64.66 67.07 70.52 75.06 80.9 88.3 97.36 108.48 121.97
1012.905 138.12 157.37 179.95 205.96 235.35 267.69 302.13 337.31 371.17 401.57
1032.199 426.33 443.5 452.19 452.5 445.57 433.58 419.06 404.2 391.15 381.2
1051.492 374.37 369.96 366.52 362.21 355.37 344.47 328.51 307.66 283.15 256.69
1070.786 230.24 205.57 183.92 165.75 151.08 139.77 131.33 125.56 122.19 120.94
1090.079 121.46 123.19 125.32 126.57 125.89 122.72 117.14 109.46 100.49 91.23
1109.372 82.7 75.53 69.46 64.52 60.51 57.06 54.17 51.75 49.7 48.04
1128.666 46.74 45.72 44.96 44.55 44.43 44.55 44.92 45.44 45.81 45.89
1147.959 45.83 45.73 45.41 44.77 44.03 43.38 42.86 42.37 41.83 41.37
1167.253 40.97 40.77 40.83 40.82 40.76 40.21 39.13 37.59 35.43 32.99
1186.546 30.56 28.32 26.42 24.84 23.8 22.96 22.28 22.07 22.33 22.96
1205.840 23.73 24.66 25.65 26.91 27.99 28.86 29.95 30.87 31.94 34.17
1225.133 37.4 41.13 45.34 49.65 53.63 56.73 58.92 60.04 59.82 59.36
1244.426 59.2 59.66 61.57 65.61 72.22 81.74 94.47 110.26 128.01 146.54
1263.720 164.27 178.79 187.91 190.23 186.14 177.12 165.22 152.22 139.34 127.36
1283.013 116.59 106.91 98.04 89.7 81.87 74.42 67.29 60.72 54.74 49.27
1302.307 44.24 39.72 35.69 32.1 28.87 26.04 23.6 21.48 19.71 18.25
1321.600 16.96 15.82 14.96 14.27 13.65 13.13 12.73 12.41 12.11 11.86
1340.894 11.71 11.66 11.67 11.74 11.91 12.16 12.43 12.79 13.28 13.95
1360.187 14.84 15.99 17.31 18.72 20.21 21.62 22.73 23.48 24.2 25.19
1379.480 26.58 28.46 30.97 34.14 37.71 41.16 43.92 45.55 45.85 44.76
1398.774 42.44 39.32 36.07 33.31 31.34 30.23 29.75 29.54 29.26 28.6
1418.067 27.47 26.04 24.45 22.89 21.62 20.67 20.08 19.88 20.01 20.43
1437.361 21.11 21.97 22.94 23.98 24.99 25.84 26.54 27.13 27.58 27.97
1456.654 28.33 28.67 28.9 28.94 28.77 28.34 27.71 26.97 26.2 25.58
1475.948 25.26 25.33 25.87 27.05 28.98 31.68 35.05 38.56 41.42 42.87
1495.241 42.54 40.31 36.44 31.42 26.07 21.38 17.73 15.05 13.19 11.91
1514.534 10.96 10.21 9.6 9.05 8.61 8.23 7.87 7.59 7.34 7.11
1533.828 6.88 6.65 6.51 6.43 6.32 6.18 6.08 5.97 5.87 5.81
1553.121 5.74 5.66 5.65 5.63 5.6 5.64 5.69 5.78 5.92 6.12
1572.415 6.36 6.67 6.98 7.25 7.5 7.71 7.92 8.08 8.18 8.36
1591.708 8.68 9.08 9.57 10.13 10.67 11.04 11.11 10.83 10.27 9.5
1611.002 8.63 7.79 7.04 6.49 6.1 5.73 5.45 5.3 5.22 5.12
1630.295 5.04 4.99 4.98 4.99 4.96 4.92 4.91 4.92 4.95 4.99
1649.588 4.99 5.03 5.11 5.14 5.19 5.29 5.4 5.5 5.58 5.64
1668.882 5.71 5.79 5.8 5.81 5.81 5.78 5.8 5.85 5.93 5.98
1688.175 5.96 5.94 5.94 5.93 5.9 5.84 5.83 5.84 5.77 5.74
1707.469 5.78 5.79 5.88 6.01 6.09 6.19 6.23 6.25 6.3 6.28
1726.762 6.23 6.19 6.1 6.08 6.1 6.04 6.02 6.03 6.02 6.05
1746.056 6.09 6.13 6.13 6.19 6.32 6.39 6.42 6.49 6.52 6.48
1765.349 6.49 6.5 6.51 6.54 6.57 6.56 6.6 6.73 6.91 7.03
1784.642 7.17 7.38 7.57 7.73 7.85 7.9 7.89 7.81 7.63 7.46
1803.936 7.29 7.11 6.97 6.86 6.8 6.81 6.85 6.9 7.03 7.15
1823.229 7.19 7.26 7.31 7.3 7.21 7.05 6.84 6.63 6.42 6.23
1842.523 6.09 5.95 5.8 5.69 5.6 5.55 5.53 5.5 5.52 5.52
1861.816 5.59 5.67 5.73 5.79 5.81 5.79 5.78 5.78 5.67 5.52
1881.110 5.41 5.33 5.27 5.25 5.32 5.43 5.61 5.84 6.1 6.37
1900.403 6.67 6.87 6.92 6.85 6.61 6.3 5.95 5.52 5.14 4.8
1919.696 4.5404 4.4238 4.3497 4.3682 4.481 4.65 4.9 5.19 5.49 5.61
1938.990 5.62 5.5 5.22 4.89 4.4889 4.0609 3.67562 3.39 3.222 3.132
1958.283 3.027 2.941 2.929 2.945 2.914 2.903 2.912 2.88 2.854 2.827
1977.577 2.815 2.799 2.809 2.841 2.8 2.755 2.722 2.728 2.755 2.713
1996.870 2.682 2.664 2.649 2.664 2.642 2.6 2.6 2.61 2.58 2.56
2016.164 2.55 2.52 2.49 2.45 2.42 2.42 2.42 2.39 2.37 2.36
2035.457 2.38 2.36 2.29 2.29 2.28 2.26 2.24 2.21 2.22 2.24
2054.750 2.24 2.24 2.25 2.26 2.24 2.24 2.25 2.24 2.25 2.25
2074.044 2.24 2.25 2.26 2.25 2.25 2.28 2.31 2.35 2.34 2.32
2093.337 2.32 2.33 2.3 2.3 2.34 2.33 2.29 2.25 2.25 2.26
2112.631 2.22 2.2 2.2 2.2 2.2 2.18 2.18 2.21 2.22 2.19
2131.924 2.17 2.17 2.2 2.24 2.27 2.26 2.2 2.18 2.2 2.21
2151.218 2.2 2.19 2.18 2.17 2.19 2.17 2.18 2.18 2.15 2.13
2170.511 2.1 2.1 2.11 2.09 2.04 2.02 2.02 2.04 2.04 2.05
2189.804 2.04 2.03 2.03 2 2 2 2.02 2.06 2.04 2.03
2209.098 2.05 2.05 2.04 2.05 2.05 2.08 2.05 2.03 2.06 2.05
2228.391 2.02 2.05 2.09 2.09 2.06 2.05 2.04 2.06 2.08 2.06
2247.685 2.08 2.12 2.14 2.15 2.15 2.18 2.16 2.13 2.14 2.15
2266.978 2.14 2.09 2.08 2.1 2.06 2.01 1.98 1.97 1.98 1.98
2286.272 1.97 1.97 2 2.03 2.05 2.03 2.03 2.05 2.05 2.09
2305.565 2.13 2.13 2.19 2.24 2.24 2.32 2.44 2.52 2.59 2.64
2324.858 2.682 2.652 2.62 2.61 2.58 2.53 2.45 2.41 2.41 2.42
2344.152 2.37 2.29 2.2 2.15 2.12 2.06 2.03 2.02 2.01 1.94
2363.445 1.91 1.93 1.9 1.87 1.83 1.81 1.78 1.76 1.74 1.7
2382.739 1.71 1.72 1.74 1.73 1.71 1.77 1.77 1.74 1.76 1.79
2402.032 1.8 1.84 1.89 1.93 1.97 1.98 2.05 2.12 2.14 2.11
2421.326 2.11 2.15 2.19 2.23 2.21 2.22 2.26 2.31 2.31 2.28
2440.619 2.3 2.31 2.35 2.37 2.39 2.4 2.42 2.41 2.39 2.42
2459.912 2.38 2.31 2.3 2.29 2.21 2.13 2.05 1.99 1.96 1.9
2479.206 1.87 1.85 1.82 1.8 1.8 1.79 1.79 1.75 1.75 1.77
2498.499 1.75 1.76 1.77 1.74 1.72 1.69 1.69 1.71 1.7 1.75
2517.793 1.76 1.78 1.78 1.75 1.74 1.72 1.67 1.65 1.67 1.62
2537.086 1.59 1.57 1.54 1.55 1.57 1.58 1.61 1.63 1.67 1.66
2556.380 1.67 1.66 1.62 1.65 1.66 1.62 1.63 1.64 1.64 1.64
2575.673 1.66 1.67 1.69 1.75 1.76 1.73 1.69 1.74 1.81 1.84
2594.966 1.85 1.84 1.82 1.76 1.69 1.67 1.65 1.61 1.58 1.59
2614.260 1.65 1.68 1.62 1.56 1.61 1.66 1.6 1.55 1.56 1.59
2633.553 1.61 1.54 1.5 1.58 1.62 1.59 1.61 1.6 1.55 1.57
2652.847 1.61 1.56 1.51 1.51 1.46 1.41 1.42 1.45 1.44 1.44
2672.140 1.42 1.36 1.37 1.34 1.36 1.42 1.45 1.47 1.48 1.52
2691.434 1.53 1.53 1.5 1.52 1.59 1.63 1.63 1.7 1.78 1.82
2710.727 1.86 1.92 2 2.11 2.22 2.35 2.5 2.687 2.87 2.976
2730.020 3.056 3.177 3.327 3.432 3.465 3.509 3.539 3.66247 3.8078 3.844
2749.314 3.8146 3.8168 3.8753 3.8332 3.71393 3.6789 3.70736 3.72545 3.73823 3.788
2768.607 3.8856 3.9134 4.0066 4.1569 4.1797 4.1821 4.21 4.1969 4.1162 4.0071
2787.901 3.8847 3.8401 3.8665 3.8853 3.9145 3.9466 3.9356 3.98 4.1437 4.252
2807.194 4.4051 4.495 4.5366 4.77 5.04 5.24 5.39 5.64 5.82 5.95
2826.488 6.18 6.41 6.66 6.86 7.03 7.24 7.43 7.79 8.22 8.61
2845.781 9.04 9.59 10.21 10.82 11.44 12.18 13.23 14.38 15.56 16.83
2865.074 18.29 19.97 21.85 23.79 25.68 27.52 29.26 30.84 32.03 32.86
2884.368 33.39 33.69 33.98 34.24 34.62 35.27 36.35 37.83 39.5 41.45
2903.661 43.73 46.18 48.62 51 53.16 55.01 56.61 58.06 59.63 61.55
2922.955 64 66.99 70.61 74.79 79.28 83.76 87.62 90.38 91.5 90.87
2942.248 88.6 84.96 80.44 75.66 71.28 67.77 65.51 64.43 64.41 65.43
2961.542 67.12 69.1 71.29 73.83 76.88 80.56 85.11 90.63 96.97 103.66
2980.835 109.63 113.59 114.85 113.24 109.02 102.89 95.65 88.36 81.39 74.96
3000.128 69.07 63.62 59.02 55.31 52.42 50.47 49.54 49.29 49.53 50.46
3019.422 51.55 52.43 52.76 52.18 50.63 48.16 44.87 41.12 37.46 33.9
3038.715 30.96 28.74 27.15 26.33 26.18 26.74 27.77 29.16 30.8 32.35
3058.009 34 35.73 37.45 39.15 40.61 41.63 41.98 41.51 40.19 38.09
3077.302 35.29 31.97 28.42 24.94 21.54 18.45 15.88 13.71 12.11 11.08
3096.596 10.29 9.8 9.36 8.87 8.65 8.34 7.75 7.13 6.54 5.99
3115.889 5.51 4.88 4.3256 4.0742 3.9157 3.67664 3.438 3.261 3.096 3.027
3135.182 2.966 2.888 2.802 2.751 2.73 2.695 2.712 2.709 2.65 2.61
3154.476 2.57 2.4 2.26 2.23 2.01 1.93 1.91 1.71 1.51 1.44
3173.769 1.37 1.31 1.34 1.33 1.3 1.21 1.05 0.9 0.93 0.98
3193.063 1.03 1.16 1.04 0.89 0.99 1.12 1.07 0.96 0.95 0.94
3212.356 0.91 0.83 0.76 0.77 0.87 0.94 0.9 0.81 0.64 0.56
3231.650 0.51 0.51 0.56 0.67 0.68 0.57 0.44 0.39 0.5 0.45
3250.943 0.45 0.5 0.43 0.39 0.35 0.29 0.18 0.1 0.16 0.14
3270.236 0.07 0.12 0.17 0.22 0.22 0.23 0.2 0.2 0.12 0.04
3289.530 0 0.12 0.23 0.19 0.2 0.2 0.18 0.03 0.12 0.26
3308.823 0.1 0.07 0.22 0.31 0.24 0.18 0.22 0.23 0.41 0.35
3328.117 0.21 0.26 0.34 0.31 0.28 0.25 0.27 0.36 0.31 0.27
3347.410 0.29 0.34 0.31 0.27 0.33 0.31 0.33 0.43 0.39 0.44
3366.704 0.56 0.57 0.6 0.62 0.62 0.62 0.66 0.67 0.68 0.54
3385.997 0.48 0.58 0.58 0.56 0.46 0.43 0.43 0.39 0.45 0.5
3405.290 0.54 0.5 0.55 0.65 0.61 0.58 0.53 0.56 0.56 0.55
3424.584 0.55 0.53 0.6 0.58 0.59 0.59 0.58 0.63 0.66 0.74
3443.877 0.7 0.67 0.63 0.61 0.67 0.63 0.67 0.68 0.7 0.79
3463.171 0.79 0.76 0.87 0.86 0.76 0.83 0.86 0.81 0.78 0.86
3482.464 0.88 0.89 0.86 0.84 0.85 0.8 0.78 0.82 0.88 0.91
3501.758 0.86 0.76 0.7 0.84 0.89 0.74 0.7 0.63 0.66 0.77
3521.051 0.77 0.84 0.9 0.94 0.99 0.97 1.01 0.94 0.91 0.92
3540.344 0.95 0.97 0.99 0.98 0.85 1 1.12 1.01 0.93 0.9
3559.638 0.88 0.93 0.96 0.99 1 0.93 1.03 1.18 1.2 1.15
3578.931 1.04 0.97 1.01 1.01 1 1.06 1.06 0.96 1.05 1.2
3598.225 1.19 1.07 1.03 1.14 1.2 1.15 1.07 1.12 1.26 1.25
3617.518 1.2 1.22 1.29 1.32 1.31 1.32 1.26 1.17 1.09 1.13
3636.812 1.23 1.32 1.27 1.24 1.31 1.25 1.25 1.36 1.4 1.38
3656.105 1.32 1.32 1.29 1.25 1.3 1.32 1.33 1.39 1.36 1.29
3675.398 1.33 1.41 1.43 1.41 1.37 1.28 1.32 1.44 1.38 1.25
3694.692 1.28 1.32 1.37 1.42 1.4 1.44 1.52 1.58 1.52 1.46
3713.985 1.46 1.45 1.48 1.53 1.46 1.44 1.52 1.61 1.55 1.47
3733.279 1.5 1.56 1.56 1.54 1.64 1.71 1.67 1.66 1.7 1.63
3752.572 1.56 1.59 1.6 1.55 1.61 1.68 1.67 1.7 1.69 1.73
3771.866 1.82 1.77 1.7 1.8 1.79 1.7 1.71 1.79 1.75 1.72
3791.159 1.77 1.68 1.64 1.66 1.66 1.58 1.56 1.64 1.66 1.62
3810.452 1.66 1.68 1.73 1.7 1.68 1.73 1.67 1.71 1.69 1.64
3829.746 1.75 1.78 1.76 1.82 1.83 1.81 1.81 1.84 1.81 1.74
3849.039 1.78 1.75 1.68 1.71 1.8 1.81 1.87 1.87 1.84 1.88
3868.333 1.84 1.85 1.92 1.95 1.91 1.95 2.06 2.14 2.01 1.88
3887.626 1.97 2.05 2.1 2.12 2.11 2.08 2.09 2.12 2.13 2.19
3906.920 2.28 2.28 2.29 2.3 2.19 2.13 2.17 2.17 2.04 2.01
3926.213 2 1.97 2.04 2 2.02 2.08 2.06 2.02 1.96 1.95
3945.506 2.03 1.98 1.89 1.96 1.95 1.9 1.98 2.05 2.03 2.07
3964.800 2.14 2.16 2.09 2.11 2.16 2.11 2.1 2.14 2.11 2.04
3984.093 1.99 2.06 2.16 2.15 2.07 2.12 2.21 2.25 2.3
##END=
