##TITLE=1-Heptyne
##JCAMP-DX=4.24
##DATA TYPE=INFRARED SPECTRUM
##ORIGIN=NIST Mass Spectrometry Data Center
##OWNER=NIST Standard Reference Data Program
Collection (C) 2018 copyright by the U.S. Secretary of Commerce
on behalf of the United States of America. All rights reserved.
##CAS REGISTRY NO=628-71-7
##MOLFORM=C 7 H 12
##$NIST SOURCE=MSDC-IR
##SPECTROMETER/DATA SYSTEM=HP-GC/MS/IRD
##STATE=gas
##XUNITS=1/CM
##YUNITS=ABSORBANCE
##XFACTOR=1.0
##YFACTOR=0.000003200
##DELTAX=4.0
##FIRSTX=550.0
##LASTX=3846.0
##FIRSTY=0.001021
##MAXX=3846
##MINX=550
##MAXY=0.032
##MINY=0
##NPOINTS=825
##XYDATA=(X++(Y..Y))
550.0 319 276 242 211 189 197 189 177 188 213
590.0 281 357 488 680 986 1448 2126 3050 4353 6264
630.0 8897 9856 8215 6150 4317 2849 1812 1146 753 518
670.0 386 303 229 199 179 174 156 142 139 141
710.0 156 154 181 217 213 220 232 226 214 193
750.0 179 167 130 127 138 123 116 109 86 75
790.0 76 70 60 53 52 50 47 61 52 50
830.0 54 49 50 48 55 55 61 73 70 68
870.0 68 65 71 91 101 97 88 79 69 70
910.0 77 72 59 64 80 88 89 95 100 112
950.0 131 149 164 169 175 180 179 173 170 159
990.0 142 122 104 96 85 79 81 74 80 85
1030.0 85 85 81 75 62 62 56 50 55 56
1070.0 65 61 62 71 80 103 112 108 112 120
1110.0 134 121 86 68 63 61 52 40 28 31
1150.0 40 36 42 45 43 50 56 72 80 79
1190.0 89 103 116 128 144 160 193 263 369 531
1230.0 789 1170 1623 1979 2094 2096 2024 1725 1274 836
1270.0 572 471 417 375 348 334 320 313 316 323
1310.0 347 384 416 444 464 473 490 500 475 442
1350.0 411 387 369 351 346 349 370 388 388 386
1390.0 390 368 319 285 270 272 303 350 412 519
1430.0 641 768 888 978 1052 1097 1114 1123 1100 1033
1470.0 948 841 718 600 487 388 312 251 206 181
1510.0 161 143 125 107 103 106 93 80 78 77
1550.0 74 70 66 58 55 54 53 48 44 46
1590.0 46 41 37 41 36 30 34 33 32 35
1630.0 36 37 36 28 27 29 28 16 10 14
1670.0 14 12 21 22 11 15 16 13 14 14
1710.0 16 17 11 8 7 8 7 5 8 11
1750.0 13 12 12 10 10 9 10 13 5 1
1790.0 0 0 6 11 12 9 8 9 5 9
1830.0 11 13 12 9 8 12 12 10 14 17
1870.0 17 17 16 14 15 16 10 9 11 2
1910.0 1 7 12 7 6 8 10 10 9 12
1950.0 14 20 18 8 8 10 14 16 10 10
1990.0 17 19 15 12 8 15 18 16 20 23
2030.0 26 35 39 34 30 29 34 37 38 41
2070.0 48 59 69 83 102 132 176 223 280 347
2110.0 406 450 463 440 388 317 236 156 102 76
2150.0 60 49 46 43 41 46 44 40 37 38
2190.0 39 37 43 43 32 28 33 35 40 40
2230.0 39 39 35 35 36 34 37 40 37 40
2270.0 48 50 50 46 43 47 49 54 60 56
2310.0 52 55 58 65 60 57 54 54 56 53
2350.0 57 59 49 50 63 71 73 71 65 66
2390.0 67 63 62 66 68 64 68 70 68 70
2430.0 69 59 58 58 58 59 54 63 69 61
2470.0 61 63 61 57 55 60 64 63 67 69
2510.0 70 73 71 67 72 78 79 86 91 91
2550.0 89 89 95 106 104 105 105 103 110 111
2590.0 103 105 111 116 118 121 122 126 131 132
2630.0 140 146 153 165 171 172 177 187 192 199
2670.0 199 198 200 201 210 219 221 222 210 197
2710.0 192 189 189 192 204 215 221 236 245 252
2750.0 253 250 259 254 248 254 264 282 301 316
2790.0 336 355 372 396 429 460 497 557 620 688
2830.0 784 910 1082 1307 1573 1885 2248 2635 3009 3332
2870.0 3603 3827 3929 3879 3749 3633 3532 3461 3518 3777
2910.0 4220 4832 5597 6490 7450 8365 9155 9731 10000 9899
2950.0 9500 8994 8500 8045 7522 6842 6059 5164 4126 3122
2990.0 2354 1810 1433 1163 986 851 746 665 613 575
3030.0 527 488 458 424 395 376 355 336 321 304
3070.0 292 290 276 259 249 241 247 235 226 220
3110.0 210 202 205 207 201 201 197 195 190 180
3150.0 166 156 154 158 158 153 147 144 145 138
3190.0 136 144 140 133 138 134 127 122 118 128
3230.0 130 127 126 134 149 172 191 217 243 270
3270.0 302 355 435 512 583 695 912 1192 1425 1552
3310.0 1779 2290 2861 3180 3078 2973 3079 2581 1634 1049
3350.0 783 621 496 399 324 260 209 177 153 124
3390.0 108 104 100 98 86 82 73 60 66 65
3430.0 66 77 72 56 57 61 59 55 50 48
3470.0 45 55 64 56 54 45 42 55 58 48
3510.0 42 43 42 37 37 34 28 30 32 37
3550.0 43 48 46 42 45 50 41 37 39 41
3590.0 51 50 42 46 49 55 47 39 39 44
3630.0 48 53 58 55 62 62 55 54 54 61
3670.0 57 51 55 51 50 64 69 75 79 71
3710.0 66 63 58 53 50 56 57 55 62 60
3750.0 56 59 60 63 57 52 60 67 60 67
3790.0 66 57 68 76 66 59 59 59 56 64
3830.0 66 56 69 72 58
##END=
