##TITLE=1,5-Dichloropentane
##JCAMP-DX=4.24
##DATA TYPE=INFRARED SPECTRUM
##ORIGIN=NIST Mass Spectrometry Data Center
##OWNER=NIST Standard Reference Data Program
Collection (C) 2018 copyright by the U.S. Secretary of Commerce
on behalf of the United States of America. All rights reserved.
##CAS REGISTRY NO=628-76-2
##MOLFORM=C 5 H 10 Cl 2
##$NIST SOURCE=MSDC-IR
##SPECTROMETER/DATA SYSTEM=HP-GC/MS/IRD
##STATE=gas
##XUNITS=1/CM
##YUNITS=ABSORBANCE
##XFACTOR=1.0
##YFACTOR=0.000000800
##DELTAX=4.0
##FIRSTX=550.0
##LASTX=3846.0
##FIRSTY=0.000103
##MAXX=3846
##MINX=550
##MAXY=0.008
##MINY=0
##NPOINTS=825
##XYDATA=(X++(Y..Y))
550.0 129 44 29 17 30 173 224 199 171 266
590.0 268 191 222 257 180 201 271 337 415 510
630.0 675 852 1049 1342 1684 2201 2727 3106 3423 3335
670.0 2839 2284 1809 1463 1174 1061 1011 1013 1092 1170
710.0 1370 1673 1954 2336 2874 3412 3908 4302 4454 4490
750.0 4436 4161 3775 3251 2656 2192 1815 1463 1216 1056
790.0 937 805 708 693 666 560 512 555 569 625
830.0 659 614 612 617 573 513 463 460 494 518
870.0 509 506 519 519 577 626 686 728 734 795
910.0 796 741 675 615 570 511 508 489 455 512
950.0 563 565 564 581 597 620 648 666 670 641
990.0 618 628 674 692 651 620 565 506 531 516
1030.0 503 534 521 512 504 474 419 392 374 341
1070.0 305 269 269 271 260 258 235 165 95 72
1110.0 82 116 105 67 95 119 101 102 95 80
1150.0 74 77 107 117 88 66 75 117 138 140
1190.0 182 193 200 244 267 281 319 342 363 416
1230.0 505 671 903 1174 1431 1665 1779 1778 1780 1838
1270.0 2008 2304 2715 3130 3485 3710 3824 3875 3902 3928
1310.0 3887 3708 3402 2994 2555 2151 1762 1428 1199 1066
1350.0 968 882 817 762 678 597 538 436 365 342
1390.0 329 312 295 297 310 353 427 526 655 851
1430.0 1123 1434 1825 2301 2791 3069 3112 2888 2407 1939
1470.0 1531 1186 919 697 518 395 338 279 222 198
1510.0 179 157 151 145 151 143 122 105 90 89
1550.0 94 96 90 76 61 58 47 34 38 46
1590.0 47 42 68 52 21 24 35 46 33 35
1630.0 46 42 30 19 27 22 28 39 27 35
1670.0 49 40 22 35 23 10 34 45 38 34
1710.0 47 66 55 44 48 36 31 38 29 22
1750.0 38 39 34 27 39 43 17 16 26 32
1790.0 24 21 33 39 26 18 19 13 17 8
1830.0 2 12 27 33 27 33 26 12 20 19
1870.0 16 21 28 38 51 38 15 44 46 37
1910.0 45 28 25 37 42 52 29 10 10 18
1950.0 35 23 22 30 25 34 55 70 61 40
1990.0 27 35 30 36 47 43 55 65 52 51
2030.0 55 53 62 53 37 46 56 48 46 64
2070.0 73 66 50 39 65 67 47 39 36 51
2110.0 50 44 48 64 62 61 67 48 34 40
2150.0 63 77 77 66 41 50 82 78 66 47
2190.0 26 49 82 84 67 54 36 34 72 75
2230.0 60 87 84 65 79 71 54 46 39 43
2270.0 41 58 91 99 87 72 79 79 58 62
2310.0 90 90 83 83 74 90 101 80 71 61
2350.0 47 53 60 57 67 84 67 41 47 57
2390.0 50 43 44 57 64 37 14 28 44 41
2430.0 36 20 34 50 46 49 64 70 30 19
2470.0 25 13 6 10 0 26 57 60 66 66
2510.0 69 63 56 48 66 63 30 55 55 28
2550.0 52 46 19 41 31 22 39 25 10 26
2590.0 58 57 58 53 66 88 60 53 71 81
2630.0 77 61 52 57 75 67 78 92 102 118
2670.0 94 74 78 116 142 135 124 120 102 103
2710.0 135 166 175 160 129 136 160 145 159 173
2750.0 149 144 158 181 184 158 158 194 204 234
2790.0 239 243 266 283 331 390 406 412 483 597
2830.0 718 852 1054 1309 1563 1845 2130 2402 2652 2875
2870.0 3107 3290 3362 3397 3337 3259 3244 3331 3530 3756
2910.0 4009 4299 4594 4860 5192 5683 6333 7090 7907 8677
2950.0 9326 9787 10000 9821 9247 8431 7354 6231 5388 4896
2990.0 4719 4743 4658 4276 3594 2793 2046 1515 1137 846
3030.0 653 554 488 425 402 362 310 288 257 233
3070.0 207 193 191 160 114 126 146 116 96 111
3110.0 129 122 94 67 71 86 86 80 73 65
3150.0 61 55 69 69 61 74 61 25 35 96
3190.0 127 115 81 51 90 106 103 94 73 55
3230.0 20 26 35 23 21 40 21 40 57 46
3270.0 60 64 65 46 38 48 60 26 26 93
3310.0 95 81 70 51 41 26 23 46 32 41
3350.0 51 7 14 38 40 60 50 58 51 37
3390.0 68 81 69 43 38 41 67 61 40 62
3430.0 27 26 73 44 29 32 37 16 0 22
3470.0 60 61 44 68 77 33 32 43 13 30
3510.0 80 75 97 108 95 48 27 43 27 45
3550.0 83 69 52 61 65 22 34 82 54 28
3590.0 45 86 98 80 89 88 89 110 68 64
3630.0 120 123 80 40 80 148 146 102 96 105
3670.0 76 47 53 65 67 86 83 58 67 106
3710.0 132 127 75 79 113 117 130 125 98 91
3750.0 96 79 84 92 83 80 43 46 108 87
3790.0 89 111 69 63 108 94 64 120 163 121
3830.0 91 52 37 50 72
##END=
