##TITLE=1,3-Diacetoxypropane
##JCAMP-DX=4.24
##DATA TYPE=INFRARED SPECTRUM
##ORIGIN=EPA-IR VAPOR PHASE LIBRARY
##OWNER=SRD/NIST
Collection (C) 2018 copyright by the U.S. Secretary of Commerce
on behalf of the United States of America. All rights reserved.
##CAS REGISTRY NO=628-66-0
##MOLFORM=C 7 H 12 O 4
##$NIST SOURCE=MSDC-IR
##STATE=gas
##XUNITS=1/CM
##YUNITS=ABSORBANCE
##XFACTOR=1.
##YFACTOR=0.001
##DELTAX=1.92898
##FIRSTX=549.8
##LASTX=4000.7
##FIRSTY=0.6141
##MAXX=4000.7
##MINX=549.759
##MAXY=0.245295
##MINY=0
##NPOINTS=1790
##XYDATA=(X++(Y..Y))
549.759 0.6141 0.162 0.108 0.3904 0.3277 0.326 0.6963 0.7953 0.8488 1.0103
569.049 0.5328 0.133 0.182 0.286 0.6943 0.905 0.8395 1.0196 1.3758 1.665
588.339 1.795 2.255 2.645 2.835 3.105 3.465 3.965 4.185 4.425 4.765
607.628 4.855 4.885 4.875 4.695 4.645 4.645 4.595 4.785 4.965 5.485
626.918 6.215 6.705 6.795 6.625 6.855 6.715 6.195 5.705 5.265 4.845
646.208 4.365 3.885 3.415 3.155 2.925 2.475 2.025 1.655 1.645 1.615
665.498 1.2852 1.2075 1.2271 1.1219 0.9761 1.0294 0.9902 0.8888 0.7541 0.6646
684.787 0.8538 0.7505 0.47521 0.6218 0.6919 0.679 0.675 0.5875 0.49909 0.5396
704.077 0.7401 0.7977 0.8102 0.6795 0.50007 0.6365 0.8298 0.8346 0.8598 0.8138
723.367 0.8178 0.8529 0.9402 1.0329 0.9046 0.9688 1.1199 1.1289 1.1952 1.2724
742.657 1.2674 1.377 1.525 1.615 1.775 1.795 1.855 2.025 2.195 2.215
761.947 2.125 2.155 2.105 2.105 2.205 2.055 1.975 2.165 2.125 2.075
781.236 2.055 1.915 1.855 1.735 1.635 1.905 1.945 1.805 1.735 1.715
800.526 1.895 2.035 2.295 2.475 2.585 2.825 2.805 3.005 3.475 3.635
819.816 3.715 3.895 4.075 4.325 4.685 4.725 4.795 4.815 4.675 4.715
839.106 4.935 5.015 4.935 5.105 5.145 4.965 4.955 5.075 5.045 4.805
858.395 4.675 4.665 4.645 4.715 4.775 4.755 4.785 4.785 4.745 4.905
877.685 5.205 5.255 5.035 5.035 5.255 5.355 5.005 4.825 4.975 4.735
896.975 4.385 4.325 4.265 3.995 3.755 3.495 3.265 3.195 3.235 3.205
916.265 2.915 2.895 3.145 3.205 3.385 3.565 3.615 3.875 4.335 4.875
935.555 5.415 5.995 6.545 6.975 7.455 7.895 8.135 8.035 8.125 8.105
954.844 7.545 7.185 6.955 6.625 6.305 6.155 6.255 6.305 6.215 6.145
974.134 6.225 6.345 6.445 6.615 6.715 6.975 7.565 7.985 8.385 8.905
993.424 9.475 10.305 11.105 11.965 12.965 13.695 14.435 15.445 16.225 16.875
1012.714 17.525 18.275 19.385 20.035 20.945 22.205 23.405 24.825 26.315 27.885
1032.003 29.405 31.585 34.205 36.835 39.755 42.945 46.215 49.765 53.365 56.465
1051.293 58.795 60.115 60.965 60.825 59.395 57.065 53.975 50.495 46.515 43.025
1070.583 39.835 36.675 34.055 32.045 30.435 28.245 26.655 25.475 24.405 23.515
1089.873 22.305 20.815 19.675 19.325 18.495 17.175 16.005 15.105 14.115 13.035
1109.163 12.375 12.085 11.275 10.605 9.805 9.015 8.615 7.635 6.995 6.955
1128.452 6.825 6.475 6.005 5.835 5.575 5.465 5.565 5.595 5.415 5.355
1147.742 5.365 5.285 5.585 5.755 5.785 5.685 5.745 6.005 6.125 6.605
1167.032 7.395 7.775 7.815 8.415 9.325 10.115 10.895 11.725 13.255 15.025
1186.322 16.945 19.125 21.585 25.365 30.075 34.995 40.955 49.085 59.095 70.695
1205.611 85.105 102.075 122.005 144.815 168.345 191.555 213.225 230.395 241.265 245.295
1224.901 242.545 233.415 218.555 200.115 180.725 162.615 146.945 134.155 123.705 114.515
1244.191 106.685 99.565 92.435 85.885 79.485 73.245 67.565 62.095 57.125 52.525
1263.481 48.335 44.775 41.275 37.855 34.965 32.325 29.795 27.445 25.125 23.015
1282.771 21.105 19.385 17.975 16.785 15.735 14.835 13.925 13.185 12.585 12.025
1302.060 11.555 11.025 10.555 10.215 9.875 9.485 9.065 8.755 8.595 8.465
1321.350 8.215 8.025 7.975 7.835 7.655 7.485 7.395 7.295 7.135 7.205
1340.640 7.445 7.775 8.365 9.175 10.275 11.695 13.305 15.385 18.195 21.815
1359.930 26.185 30.925 35.455 39.115 41.675 43.255 43.875 43.175 40.955 37.805
1379.219 34.495 31.515 28.985 27.005 25.265 23.655 22.105 20.605 19.125 17.655
1398.509 16.245 14.905 13.715 12.465 11.345 10.355 9.475 8.825 8.335 7.925
1417.799 7.665 7.535 7.475 7.555 7.605 7.665 7.775 7.925 8.035 8.065
1437.089 8.105 8.185 8.315 8.415 8.555 8.775 8.975 9.125 9.285 9.495
1456.378 9.735 9.985 10.185 10.325 10.365 10.275 10.235 10.115 9.805 9.535
1475.668 9.265 8.835 8.325 7.865 7.445 6.955 6.405 5.895 5.505 5.215
1494.958 4.965 4.745 4.555 4.405 4.225 4.105 4.045 3.975 3.905 3.845
1514.248 3.755 3.625 3.555 3.485 3.395 3.305 3.285 3.295 3.195 3.125
1533.538 3.085 3.085 2.965 2.805 2.775 2.745 2.795 2.845 2.735 2.675
1552.827 2.755 2.805 2.755 2.575 2.495 2.575 2.595 2.635 2.575 2.445
1572.117 2.415 2.335 2.245 2.325 2.365 2.385 2.445 2.405 2.345 2.315
1591.407 2.255 2.235 2.345 2.355 2.235 2.225 2.305 2.265 2.215 2.285
1610.697 2.385 2.405 2.345 2.245 2.225 2.255 2.275 2.305 2.395 2.395
1629.986 2.445 2.535 2.475 2.475 2.525 2.555 2.675 2.765 2.735 2.655
1649.276 2.695 2.725 2.695 2.875 3.045 3.125 3.135 3.165 3.245 3.295
1668.566 3.305 3.325 3.495 3.555 3.565 3.675 3.725 3.765 3.865 4.085
1687.856 4.335 4.545 4.785 4.965 5.245 5.675 6.095 6.625 7.115 7.715
1707.146 8.495 9.275 10.155 11.135 12.155 13.385 14.845 16.355 17.975 19.785
1726.435 21.805 24.005 26.535 29.415 32.855 36.785 41.115 46.295 52.105 58.835
1745.725 66.495 75.265 85.325 97.015 109.465 121.845 133.645 143.045 149.255 152.175
1765.015 151.575 147.375 139.235 127.735 113.865 100.525 88.455 77.445 67.455 58.595
1784.305 50.895 44.135 38.435 33.555 29.295 25.635 22.635 20.035 17.805 15.845
1803.594 14.215 12.735 11.435 10.325 9.325 8.425 7.635 7.055 6.565 6.075
1822.884 5.595 5.175 4.795 4.415 4.285 4.135 3.935 3.715 3.515 3.355
1842.174 3.135 2.985 2.915 2.895 2.835 2.815 2.755 2.625 2.585 2.565
1861.464 2.505 2.415 2.405 2.345 2.285 2.295 2.275 2.275 2.195 2.105
1880.754 2.115 2.105 2.065 2.075 2.095 2.035 1.995 2.025 2.085 1.975
1900.043 1.855 1.915 1.915 1.885 1.815 1.735 1.775 1.845 1.815 1.755
1919.333 1.735 1.765 1.725 1.675 1.655 1.635 1.615 1.575 1.595 1.595
1938.623 1.545 1.535 1.565 1.495 1.455 1.455 1.465 1.445 1.455 1.425
1957.913 1.3893 1.3909 1.3606 1.455 1.445 1.4116 1.445 1.475 1.515 1.525
1977.202 1.545 1.565 1.485 1.475 1.505 1.555 1.595 1.545 1.605 1.595
1996.492 1.565 1.585 1.595 1.575 1.615 1.665 1.625 1.665 1.705 1.665
2015.782 1.675 1.635 1.615 1.645 1.655 1.625 1.595 1.625 1.635 1.625
2035.072 1.585 1.615 1.715 1.675 1.655 1.715 1.715 1.685 1.635 1.625
2054.362 1.725 1.755 1.705 1.705 1.775 1.795 1.725 1.725 1.745 1.735
2073.651 1.785 1.765 1.675 1.635 1.605 1.595 1.605 1.605 1.675 1.685
2092.941 1.695 1.685 1.645 1.675 1.705 1.695 1.635 1.665 1.715 1.755
2112.231 1.755 1.675 1.595 1.495 1.505 1.655 1.645 1.525 1.455 1.455
2131.521 1.565 1.545 1.435 1.3636 1.3607 1.3389 1.2423 1.1996 1.1927 1.2049
2150.810 1.1685 1.1138 1.1261 1.1437 1.124 1.0202 0.9597 1.0046 1.0305 1.0034
2170.100 0.9758 0.9671 0.996 1.0043 0.9484 1.0017 1.1199 1.0679 0.9569 0.935
2189.390 0.9562 0.9054 0.8136 0.895 1.0288 1.0413 0.9287 0.876 0.9008 0.8594
2208.680 0.8545 0.9391 0.9707 0.9608 0.9969 0.9685 0.9 0.8306 0.8232 0.8529
2227.970 0.9015 0.994 0.8981 0.8501 0.9594 0.8786 0.822 0.8915 0.8959 0.8576
2247.259 0.8734 0.863 0.8663 0.8946 0.9179 0.9846 0.9527 0.9058 0.9688 0.8964
2266.549 0.856 0.9086 0.8326 0.8937 0.9804 0.8251 0.7744 0.9009 0.8977 0.8792
2285.839 0.8401 0.8096 0.8344 0.7432 0.6667 0.6952 0.7634 0.8838 0.8367 0.8254
2305.129 0.905 0.8666 0.823 0.7037 0.7688 0.8757 0.8419 0.8305 0.8342 0.8482
2324.418 0.8511 0.8945 0.9128 0.8893 0.8626 0.86 0.8606 0.8133 0.8386 0.8856
2343.708 0.9447 1.0573 1.0448 0.9135 0.844 0.7933 0.7976 0.8254 0.8277 0.801
2362.998 0.8855 0.8814 0.7725 0.8156 0.7442 0.6634 0.6882 0.7346 0.7363 0.7379
2382.288 0.7215 0.773 0.856 0.8475 0.894 0.8696 0.8314 0.9023 0.8789 0.7858
2401.578 0.7769 0.8439 0.9111 0.9357 0.9193 0.869 0.8662 0.9607 0.9347 0.9155
2420.867 0.9204 0.9478 0.9464 0.909 0.9688 1.0467 1.0805 1.1181 1.1259 1.0358
2440.157 1.121 1.1577 1.1337 1.1832 1.1856 1.1066 1.0564 1.1355 1.1693 1.1747
2459.447 1.1447 1.0204 1.0621 1.0659 0.9989 1.0266 0.964 0.9271 0.8811 0.8953
2478.737 0.9518 0.8888 0.8883 0.9913 0.9071 0.7788 0.8273 0.8824 0.8723 0.8226
2498.026 0.8452 0.7929 0.7588 0.7475 0.7083 0.7575 0.7431 0.6942 0.7279 0.7618
2517.316 0.7134 0.5693 0.48447 0.597 0.6846 0.7293 0.6653 0.6216 0.7114 0.639
2536.606 0.5299 0.6279 0.6654 0.49368 0.5296 0.6308 0.6718 0.7083 0.7016 0.6808
2555.896 0.6072 0.5554 0.5433 0.6063 0.6966 0.7379 0.719 0.7145 0.7553 0.7435
2575.186 0.7589 0.7264 0.7196 0.7641 0.8202 0.8615 0.8336 0.8161 0.7819 0.8328
2594.475 0.8519 0.8659 0.7856 0.7176 0.7453 0.7816 0.8544 0.8133 0.6756 0.6717
2613.765 0.8167 0.7977 0.6711 0.5882 0.5609 0.6119 0.6843 0.741 0.7225 0.7512
2633.055 0.7496 0.7121 0.7934 0.7129 0.6851 0.7691 0.7655 0.7028 0.691 0.703
2652.345 0.7143 0.6911 0.6085 0.6499 0.774 0.7518 0.6729 0.6209 0.5819 0.6376
2671.634 0.6764 0.7091 0.6912 0.648 0.6421 0.65 0.7192 0.6665 0.6859 0.8808
2690.924 0.9104 0.771 0.79 0.8165 0.7144 0.7723 0.8495 0.7888 0.7453 0.8256
2710.214 0.8565 0.8614 0.8334 0.73 0.841 1.0053 0.9536 0.9489 1.0223 1.0031
2729.504 0.8614 0.9028 1.06 1.1005 1.1575 1.1066 1.0504 1.0773 1.0541 1.07
2748.794 1.1399 1.1938 1.1231 0.9174 0.8862 1.0106 1.1386 1.2051 1.1772 1.1538
2768.083 1.167 1.1678 1.0718 1.0442 1.0368 0.9848 0.9358 0.9206 0.9437 0.9247
2787.373 0.8801 0.8275 0.8255 0.7992 0.771 0.9241 1.0236 0.9834 0.9225 0.8854
2806.663 0.9425 0.9921 1.0709 1.1514 1.218 1.2687 1.1954 1.1783 1.2789 1.3426
2825.953 1.2199 1.2133 1.4031 1.545 1.635 1.655 1.745 1.755 1.805 1.935
2845.242 1.925 1.975 1.975 2.015 2.215 2.335 2.375 2.375 2.445 2.575
2864.532 2.635 2.685 2.745 2.875 2.845 2.835 2.945 3.005 3.325 3.565
2883.822 3.655 3.845 4.015 4.205 4.555 4.965 5.225 5.555 5.865 6.015
2903.112 6.345 6.605 6.785 6.985 7.145 7.195 7.385 7.525 7.515 7.725
2922.401 7.875 8.115 8.375 8.595 8.925 9.225 9.705 10.315 10.715 11.105
2941.691 11.685 12.275 12.915 13.575 14.275 14.985 15.645 16.375 17.165 17.855
2960.981 18.535 19.175 19.645 20.015 20.345 20.355 20.265 20.135 19.765 19.315
2980.271 18.685 17.905 17.005 16.205 15.345 14.365 13.265 12.065 11.085 10.035
2999.561 9.105 8.285 7.465 6.935 6.295 5.495 5.075 4.745 4.405 4.235
3018.850 4.125 3.915 3.745 3.755 3.645 3.525 3.445 3.495 3.455 3.135
3038.140 2.975 3.065 2.995 2.945 2.885 2.705 2.665 2.725 2.835 2.745
3057.430 2.545 2.455 2.575 2.595 2.365 2.295 2.415 2.355 2.245 2.305
3076.720 2.375 2.215 2.145 2.025 1.835 1.935 2.025 2.025 1.845 1.705
3096.009 1.735 1.695 1.685 1.635 1.485 1.535 1.585 1.445 1.3782 1.407
3115.299 1.3653 1.2488 1.3281 1.275 1.1 1.0853 1.0047 1.0182 1.0696 1.0335
3134.589 1.1313 1.2553 1.2318 1.087 1.0233 1.0237 0.8059 0.6651 0.6894 0.733
3153.879 0.7842 0.7424 0.6656 0.693 0.7287 0.6838 0.6889 0.7159 0.6556 0.6027
3173.169 0.5646 0.6349 0.6997 0.657 0.644 0.6265 0.6989 0.5827 0.5813 0.6649
3192.458 0.6136 0.6104 0.5678 0.5851 0.6762 0.7348 0.8083 0.7241 0.5771 0.8014
3211.748 0.8068 0.6261 0.6806 0.6344 0.45591 0.49672 0.5341 0.47985 0.49878 0.5344
3231.038 0.5631 0.5545 0.7366 0.7037 0.46122 0.49583 0.48434 0.42785 0.314 0.291
3250.328 0.4024 0.5053 0.5816 0.5275 0.5503 0.7224 0.5702 0.3593 0.284 0.214
3269.617 0.31 0.50153 0.6175 0.48574 0.416927 0.5586 0.547 0.46604 0.587 0.6277
3288.907 0.5522 0.5284 0.5707 0.5469 0.3886 0.357 0.3722 0.379 0.5744 0.5674
3308.197 0.420467 0.45969 0.532 0.43756 0.3973 0.45635 0.5166 0.48324 0.5237 0.5998
3327.487 0.5332 0.46459 0.40717 0.43438 0.3865 0.50494 0.49565 0.343 0.5541 0.7368
3346.777 0.7827 0.651 0.5619 0.50409 0.48803 0.6748 0.6275 0.51433 0.46134 0.45068
3366.066 0.45165 0.3765 0.302 0.197 0.3378 0.6959 0.6297 0.5059 0.5722 0.45441
3385.356 0.49293 0.40855 0.3645 0.45311 0.3994 0.43904 0.5201 0.5288 0.49124 0.5607
3404.646 0.6202 0.6003 0.619 0.5948 0.5956 0.5871 0.552 0.6689 0.6777 0.5622
3423.936 0.5788 0.46769 0.3475 0.48558 0.6019 0.6105 0.6188 0.7255 0.6251 0.47378
3443.225 0.42821 0.44413 0.6444 0.6919 0.6323 0.7511 0.7595 0.6762 0.6932 0.6188
3462.515 0.6342 0.8444 0.8403 0.8739 1.0587 1.0744 0.9581 0.9986 1.1761 1.093
3481.805 0.9028 0.9028 1.1536 1.445 1.515 1.575 1.565 1.675 1.835 1.985
3501.095 2.075 2.015 2.035 2.025 2.025 1.915 1.885 1.915 1.825 1.825
3520.385 1.875 1.635 1.565 1.465 1.0948 1.098 1.264 1.1944 1.0286 0.9133
3539.674 0.8762 0.7475 0.7423 0.7792 0.6788 0.5152 0.47046 0.5389 0.5944 0.5786
3558.964 0.521 0.6304 0.6279 0.7177 0.694 0.49784 0.46477 0.5873 0.6433 0.767
3578.254 0.6921 0.47672 0.5286 0.3552 0.3238 0.5526 0.43301 0.297 0.4023 0.48131
3597.544 0.5502 0.48514 0.43816 0.6285 0.7186 0.6302 0.5183 0.5889 0.6467 0.5648
3616.833 0.43943 0.344 0.3783 0.42515 0.5458 0.6478 0.50196 0.3163 0.302 0.247
3636.123 0.3345 0.46997 0.50205 0.421813 0.3704 0.5201 0.47971 0.3379 0.44064 0.49328
3655.413 0.3255 0.252 0.298 0.48231 0.5211 0.3751 0.313 0.128 0.286 0.49034
3674.703 0.3692 0.312 0.4044 0.4013 0.315 0.3293 0.195 0 0.077 0.213
3693.993 0.424926 0.6618 0.51237 0.257 0.276 0.3619 0.44533 0.5689 0.50669 0.204
3713.282 0.093 0.298 0.42506 0.41046 0.3632 0.49638 0.5416 0.5586 0.5348 0.254
3732.572 0.163 0.3249 0.43884 0.44757 0.5156 0.5726 0.6221 0.5488 0.3643 0.199
3751.862 0.191 0.3281 0.44989 0.45668 0.40545 0.49798 0.48364 0.277 0.252 0.315
3771.152 0.4017 0.43753 0.3313 0.3494 0.51434 0.5295 0.424502 0.48386 0.3686 0.3167
3790.441 0.45164 0.47765 0.5024 0.41944 0.47211 0.5855 0.46015 0.285 0.158 0.281
3809.731 0.3973 0.50727 0.43399 0.275 0.43831 0.50301 0.5311 0.44524 0.43453 0.49064
3829.021 0.48657 0.3715 0.225 0.223 0.184 0.219 0.418838 0.5272 0.5169 0.50174
3848.311 0.3948 0.265 0.138 0.3365 0.6242 0.6521 0.49661 0.3159 0.5651 0.7552
3867.601 0.653 0.6237 0.5244 0.47636 0.43974 0.40706 0.3394 0.3769 0.46743 0.40782
3886.890 0.3355 0.421612 0.7222 0.7277 0.45282 0.3777 0.43491 0.44317 0.275 0.265
3906.180 0.3587 0.5269 0.6072 0.51013 0.512 0.44833 0.42516 0.536 0.4852 0.46599
3925.470 0.6165 0.6016 0.3904 0.181 0.3797 0.41216 0.374 0.51394 0.6245 0.7445
3944.760 0.7095 0.6377 0.5363 0.3717 0.3947 0.6386 0.6208 0.3955 0.424881 0.5914
3964.049 0.6311 0.6627 0.654 0.5911 0.5657 0.7615 0.7456 0.5637 0.6485 0.884
3983.339 0.8633 0.7132 0.5814 0.561 0.8005 0.7898 0.7648 0.7284 0.7164 0.7365
##END=
