##TITLE=Butyl ethyl ether
##JCAMP-DX=4.24
##DATA TYPE=INFRARED SPECTRUM
##ORIGIN=NIST Mass Spectrometry Data Center
##OWNER=NIST Standard Reference Data Program
Collection (C) 2018 copyright by the U.S. Secretary of Commerce
on behalf of the United States of America. All rights reserved.
##CAS REGISTRY NO=628-81-9
##MOLFORM=C 6 H 14 O
##$NIST SOURCE=MSDC-IR
##SPECTROMETER/DATA SYSTEM=HP-GC/MS/IRD
##STATE=gas
##XUNITS=1/CM
##YUNITS=ABSORBANCE
##XFACTOR=1.0
##YFACTOR=0.000005100
##DELTAX=4.0
##FIRSTX=550.0
##LASTX=3846.0
##FIRSTY=0.000321
##MAXX=3846
##MINX=550
##MAXY=0.051
##MINY=0
##NPOINTS=825
##XYDATA=(X++(Y..Y))
550.0 63 52 66 69 62 62 52 56 46 29
590.0 40 32 24 29 37 29 16 18 32 36
630.0 27 34 32 15 25 40 42 53 47 45
670.0 47 36 46 59 49 46 58 58 54 57
710.0 52 65 80 85 89 107 128 139 144 146
750.0 150 150 146 144 145 152 147 148 158 164
790.0 185 207 219 226 237 239 247 260 292 310
830.0 304 302 301 302 299 286 278 279 283 285
870.0 278 273 283 291 306 330 349 365 360 332
910.0 313 303 279 252 235 228 242 270 289 320
950.0 356 390 429 463 494 522 535 545 551 545
990.0 541 560 586 608 629 650 670 685 698 724
1030.0 758 806 890 1019 1167 1322 1501 1676 1835 2001
1070.0 2161 2309 2482 2710 3010 3383 3833 4376 5043 5856
1110.0 6800 7839 8854 9637 10000 9844 9135 7925 6474 5153
1150.0 4152 3450 2920 2501 2170 1906 1672 1458 1266 1084
1190.0 922 786 674 605 563 533 519 513 525 553
1230.0 572 581 571 565 563 552 541 537 533 525
1270.0 521 512 507 516 539 572 603 621 617 596
1310.0 569 540 516 516 544 595 661 761 914 1101
1350.0 1273 1385 1461 1569 1725 1878 1993 2066 2098 2035
1390.0 1771 1403 1107 919 808 738 690 668 665 683
1430.0 718 759 808 867 934 996 1046 1086 1113 1110
1470.0 1086 1023 932 826 712 609 516 426 354 297
1510.0 254 218 189 165 148 133 120 115 101 88
1550.0 84 81 80 76 71 70 73 64 55 60
1590.0 70 69 65 68 69 70 71 64 58 59
1630.0 56 48 47 47 39 39 41 42 32 30
1670.0 35 28 29 25 25 23 20 18 14 10
1710.0 12 12 8 12 12 11 9 3 0 1
1750.0 4 2 3 8 8 8 7 7 11 16
1790.0 19 19 15 16 15 14 15 17 13 9
1830.0 14 17 16 19 20 21 24 29 30 29
1870.0 29 36 40 36 38 44 49 50 54 57
1910.0 58 63 70 75 79 83 81 85 92 97
1950.0 99 97 98 95 93 92 90 85 81 75
1990.0 74 70 68 67 59 57 55 50 50 47
2030.0 47 47 45 45 41 36 36 35 32 32
2070.0 34 35 39 40 38 42 42 45 47 46
2110.0 44 40 41 45 42 40 40 39 34 31
2150.0 31 28 27 24 26 29 26 29 31 26
2190.0 25 23 25 26 23 27 23 20 17 18
2230.0 24 27 29 29 33 36 36 37 37 39
2270.0 37 31 29 30 32 32 28 23 20 21
2310.0 17 16 18 19 20 21 24 26 25 23
2350.0 26 30 30 32 33 27 21 22 28 29
2390.0 31 37 38 34 34 37 36 34 35 31
2430.0 35 42 34 31 36 34 33 28 19 19
2470.0 25 29 27 24 23 24 22 22 23 25
2510.0 29 28 27 31 32 33 38 39 35 36
2550.0 42 47 55 59 59 64 77 87 91 98
2590.0 107 113 116 116 121 127 132 131 126 131
2630.0 136 140 136 135 151 157 159 166 178 191
2670.0 198 209 226 252 272 283 301 325 346 370
2710.0 396 422 440 456 470 495 525 550 574 600
2750.0 622 636 653 678 710 745 790 844 899 964
2790.0 1028 1087 1151 1226 1295 1361 1451 1568 1719 1918
2830.0 2178 2522 2963 3494 4106 4778 5480 6177 6805 7306
2870.0 7672 7891 7861 7555 7097 6591 6076 5616 5341 5282
2910.0 5390 5638 5993 6445 6978 7567 8140 8548 8729 8745
2950.0 8658 8520 8441 8490 8561 8473 8162 7578 6718 5720
2990.0 4723 3809 3041 2444 1987 1638 1361 1155 1009 891
3030.0 797 722 659 598 540 492 447 404 369 342
3070.0 314 289 277 259 250 242 230 225 220 211
3110.0 207 205 196 190 184 175 168 169 161 150
3150.0 149 145 143 143 138 143 144 139 129 125
3190.0 124 118 121 119 109 109 102 93 93 90
3230.0 86 79 71 65 67 67 61 62 65 59
3270.0 50 52 47 37 35 38 44 39 39 42
3310.0 39 40 36 41 54 53 53 54 46 43
3350.0 45 42 43 47 48 47 50 53 53 44
3390.0 40 38 41 44 40 40 44 45 32 28
3430.0 40 35 35 34 26 38 51 42 34 30
3470.0 21 27 42 36 25 36 40 45 42 34
3510.0 35 22 16 25 38 36 30 41 46 45
3550.0 32 33 39 30 31 31 26 35 38 36
3590.0 36 31 44 46 38 44 38 43 54 61
3630.0 68 57 40 45 67 63 57 59 56 62
3670.0 60 69 71 65 78 87 86 76 67 62
3710.0 64 56 56 65 65 66 71 79 87 82
3750.0 90 89 72 73 77 71 71 71 72 75
3790.0 80 81 73 81 86 76 82 89 87 83
3830.0 91 91 94 112 104
##END=
