##TITLE=4-Chloro-2-nitrobenzoic acid
##JCAMP-DX=4.24
##DATA TYPE=INFRARED SPECTRUM
##ORIGIN=NIST Mass Spectrometry Data Center
##OWNER=NIST Standard Reference Data Program
Collection (C) 2018 copyright by the U.S. Secretary of Commerce
on behalf of the United States of America. All rights reserved.
##CAS REGISTRY NO=6280-88-2
##MOLFORM=C 7 H 4 Cl N O 4
##$NIST SOURCE=MSDC-IR
##SPECTROMETER/DATA SYSTEM=HP-GC/MS/IRD
##STATE=gas
##XUNITS=1/CM
##YUNITS=ABSORBANCE
##XFACTOR=1.0
##YFACTOR=0.000003700
##DELTAX=4.0
##FIRSTX=550.0
##LASTX=3846.0
##FIRSTY=0.002860
##MAXX=3846
##MINX=550
##MAXY=0.037
##MINY=0
##NPOINTS=825
##XYDATA=(X++(Y..Y))
550.0 773 1303 1047 1048 989 939 860 777 746 726
590.0 708 656 590 567 556 527 481 411 344 306
630.0 264 254 259 249 248 285 373 443 466 472
670.0 472 500 569 620 609 572 546 513 474 438
710.0 386 329 289 263 262 269 287 340 396 475
750.0 623 798 928 992 1059 1263 1755 2629 3464 3680
790.0 3159 2039 1045 594 413 329 285 290 340 467
830.0 667 862 974 867 625 409 262 185 160 195
870.0 294 471 750 1101 1342 1306 1020 643 347 188
910.0 125 92 65 48 41 41 35 31 14 0
950.0 8 29 48 44 20 19 34 47 45 41
990.0 45 52 60 62 75 89 109 144 183 229
1030.0 287 388 534 722 991 1366 1707 1863 1829 1672
1070.0 1567 1682 1997 2499 3232 4102 4874 5270 5105 4484
1110.0 3707 3004 2456 2011 1634 1365 1195 1093 1096 1238
1150.0 1418 1522 1555 1589 1812 2323 2991 3548 3760 3544
1190.0 3000 2378 1860 1478 1217 1043 921 818 749 720
1230.0 712 727 748 776 810 835 846 848 866 905
1270.0 955 978 979 962 939 936 968 1019 1085 1161
1310.0 1236 1304 1365 1435 1545 1728 2033 2528 3277 4224
1350.0 5192 5971 6280 5900 4990 3865 2831 2104 1658 1371
1390.0 1165 1002 852 712 589 487 424 389 369 354
1430.0 341 326 315 315 313 315 320 343 394 469
1470.0 554 640 718 752 737 685 623 578 567 592
1510.0 665 786 958 1187 1482 1870 2390 3080 3986 5050
1550.0 6167 7113 7671 7709 7227 6401 5468 4493 3575 2781
1590.0 2194 1837 1700 1713 1745 1680 1457 1116 779 536
1630.0 409 341 300 273 248 223 200 189 187 187
1670.0 191 202 220 237 258 283 284 276 269 268
1710.0 282 306 344 412 497 616 793 1032 1359 1802
1750.0 2392 3158 4149 5478 7182 8920 10000 9782 8227 6142
1790.0 4464 3327 2474 1763 1205 813 561 408 316 263
1830.0 230 213 205 200 196 194 186 174 162 146
1870.0 128 112 99 86 76 72 70 70 70 78
1910.0 88 100 104 98 92 82 66 56 51 45
1950.0 40 38 37 37 37 33 29 25 20 19
1990.0 21 18 18 16 13 15 10 5 9 6
2030.0 2 8 6 6 4 7 8 5 6 8
2070.0 6 3 2 2 7 9 10 11 11 13
2110.0 15 15 14 10 8 7 9 14 15 17
2150.0 16 16 19 23 25 23 25 26 26 27
2190.0 27 23 25 31 29 25 18 20 28 28
2230.0 25 26 22 16 20 26 24 26 30 29
2270.0 30 34 33 30 33 39 47 56 70 84
2310.0 94 108 116 116 122 125 124 125 127 124
2350.0 122 141 165 178 174 156 132 103 72 48
2390.0 33 26 22 23 29 32 29 27 27 26
2430.0 25 27 30 30 33 39 35 30 27 20
2470.0 16 21 20 16 20 23 17 13 18 21
2510.0 24 22 23 23 25 26 25 38 43 44
2550.0 43 44 43 31 26 22 14 14 15 12
2590.0 11 8 8 10 9 8 9 11 13 12
2630.0 6 7 7 4 11 10 5 10 11 16
2670.0 23 23 29 27 31 41 45 44 42 42
2710.0 46 46 34 28 26 26 30 30 29 20
2750.0 9 5 6 9 10 8 14 10 2 9
2790.0 7 12 17 9 11 23 23 19 31 39
2830.0 36 34 27 29 34 41 47 57 64 69
2870.0 70 72 85 94 107 125 132 129 123 119
2910.0 119 116 101 90 90 83 78 68 58 49
2950.0 33 33 36 33 33 29 35 30 14 9
2990.0 14 19 15 16 21 28 34 36 33 25
3030.0 25 39 41 38 39 38 41 44 49 56
3070.0 67 86 111 137 156 167 151 136 129 113
3110.0 105 81 62 49 38 30 24 21 23 24
3150.0 18 18 19 13 10 20 23 19 21 20
3190.0 15 16 23 22 20 12 2 4 9 11
3230.0 13 9 0 0 6 11 8 6 10 15
3270.0 19 14 13 15 24 23 14 9 16 21
3310.0 15 14 14 1 2 10 8 18 25 19
3350.0 6 19 34 23 27 37 32 30 32 28
3390.0 26 32 34 28 38 41 37 38 42 37
3430.0 30 30 42 43 46 43 28 37 36 34
3470.0 44 43 48 60 64 62 62 66 73 81
3510.0 91 101 107 118 126 147 168 192 230 275
3550.0 350 483 740 1313 2556 4174 5093 4815 3455 1787
3590.0 819 492 346 257 200 157 123 100 92 83
3630.0 82 75 63 64 58 41 35 45 43 38
3670.0 43 37 40 36 22 18 20 28 31 23
3710.0 26 35 37 41 44 47 41 34 28 32
3750.0 39 45 46 38 34 29 33 34 31 23
3790.0 15 20 18 10 24 36 33 21 16 22
3830.0 22 19 11 11 15
##END=
