##TITLE=5-Chlorovaleronitrile
##JCAMP-DX=4.24
##DATA TYPE=INFRARED SPECTRUM
##ORIGIN=NIST Mass Spectrometry Data Center
##OWNER=NIST Standard Reference Data Program
Collection (C) 2018 copyright by the U.S. Secretary of Commerce
on behalf of the United States of America. All rights reserved.
##CAS REGISTRY NO=6280-87-1
##MOLFORM=C 5 H 8 Cl N
##$NIST SOURCE=MSDC-IR
##SPECTROMETER/DATA SYSTEM=HP-GC/MS/IRD
##STATE=gas
##XUNITS=1/CM
##YUNITS=ABSORBANCE
##XFACTOR=1.0
##YFACTOR=0.000004400
##DELTAX=4.0
##FIRSTX=550.0
##LASTX=3846.0
##FIRSTY=0.000563
##MAXX=3846
##MINX=550
##MAXY=0.044
##MINY=0
##NPOINTS=825
##XYDATA=(X++(Y..Y))
550.0 128 106 73 97 67 65 67 38 22 27
590.0 6 12 22 35 68 82 109 148 183 246
630.0 342 483 659 894 1218 1630 2085 2459 2668 2704
670.0 2528 2102 1564 1145 889 746 653 611 621 671
710.0 754 851 980 1150 1359 1590 1849 2144 2451 2738
750.0 2888 2880 2737 2437 2078 1748 1476 1276 1132 1028
790.0 976 965 945 899 820 737 672 616 576 541
830.0 531 532 550 600 676 806 952 1055 1085 1049
870.0 954 808 672 580 517 483 458 436 425 420
910.0 419 423 427 432 440 452 461 471 480 470
950.0 447 412 371 338 329 337 359 418 498 585
990.0 670 709 688 628 520 419 362 319 299 285
1030.0 269 254 247 249 262 277 269 256 254 251
1070.0 264 293 287 261 249 225 186 150 116 93
1110.0 90 97 103 102 101 97 101 100 90 105
1150.0 121 122 117 114 121 135 152 163 174 180
1190.0 205 244 262 273 288 312 330 356 390 421
1230.0 450 487 529 601 707 855 1050 1292 1572 1866
1270.0 2165 2404 2555 2667 2791 2935 3141 3406 3624 3721
1310.0 3684 3478 3140 2786 2444 2110 1804 1532 1304 1131
1350.0 1013 934 878 817 746 666 586 519 473 441
1390.0 413 400 414 456 532 653 832 1093 1464 1942
1430.0 2501 3040 3514 3906 4113 4058 3853 3542 3084 2530
1470.0 2025 1590 1224 933 710 545 431 355 299 262
1510.0 234 212 195 177 159 147 139 130 119 106
1550.0 100 97 91 83 80 74 74 75 72 67
1590.0 63 62 58 51 51 57 59 54 54 56
1630.0 53 54 52 54 55 53 53 49 47 45
1670.0 44 44 41 39 33 24 17 11 6 5
1710.0 7 5 7 25 38 42 45 47 47 49
1750.0 51 52 58 59 55 54 51 48 44 43
1790.0 42 44 48 49 48 43 40 38 36 33
1830.0 34 38 38 39 38 36 35 34 40 44
1870.0 42 45 43 43 45 44 47 47 45 37
1910.0 35 35 34 35 36 35 32 32 31 28
1950.0 27 29 31 33 35 33 36 40 36 36
1990.0 36 36 41 41 43 49 48 48 52 51
2030.0 52 56 54 55 59 56 51 51 50 51
2070.0 53 52 52 50 47 51 53 51 53 54
2110.0 54 50 50 57 51 51 53 50 46 45
2150.0 47 46 44 45 46 49 50 48 48 51
2190.0 54 59 64 62 62 69 72 84 102 122
2230.0 151 200 268 346 414 460 471 448 381 294
2270.0 224 171 137 110 88 82 77 70 68 65
2310.0 64 66 64 61 60 58 57 54 53 54
2350.0 55 57 54 53 56 62 65 63 63 56
2390.0 49 46 43 40 43 45 41 33 35 38
2430.0 40 46 49 45 46 46 42 39 33 30
2470.0 35 34 32 36 39 37 36 34 33 39
2510.0 35 29 32 33 31 25 17 14 10 8
2550.0 8 4 10 10 12 13 16 19 22 32
2590.0 37 40 49 59 60 58 57 54 54 54
2630.0 54 52 50 55 58 58 61 65 68 71
2670.0 72 72 72 77 90 96 98 98 101 106
2710.0 115 119 119 109 102 105 105 99 105 108
2750.0 116 122 127 133 129 123 128 133 137 140
2790.0 145 163 179 189 200 220 252 284 327 387
2830.0 454 546 679 836 1017 1204 1399 1584 1775 1971
2870.0 2162 2337 2480 2565 2586 2552 2495 2474 2499 2588
2910.0 2751 2952 3196 3510 3909 4387 4924 5560 6330 7162
2950.0 7983 8794 9524 9996 10000 9522 8666 7530 6282 5191
2990.0 4387 3845 3428 3022 2627 2198 1731 1311 995 757
3030.0 581 456 375 319 274 251 226 199 184 162
3070.0 146 127 124 124 107 99 93 92 90 82
3110.0 80 81 76 72 71 74 76 72 69 66
3150.0 71 84 82 85 80 71 80 87 82 71
3190.0 67 70 70 66 70 67 66 67 58 50
3230.0 50 52 47 49 56 60 61 59 53 45
3270.0 44 50 41 39 43 26 18 19 22 23
3310.0 25 26 34 38 21 11 19 23 23 28
3350.0 23 18 19 13 15 16 15 17 15 13
3390.0 4 1 9 12 7 0 6 4 2 0
3430.0 4 10 6 10 12 5 7 14 10 10
3470.0 12 17 15 16 24 26 24 27 26 12
3510.0 12 22 28 26 32 29 18 17 23 25
3550.0 15 3 7 17 18 23 29 33 33 34
3590.0 33 25 17 24 38 39 40 40 35 36
3630.0 45 46 40 33 32 40 48 43 31 32
3670.0 35 36 42 38 40 41 36 39 45 49
3710.0 42 31 36 36 32 48 53 48 51 56
3750.0 43 41 43 40 43 56 51 32 37 41
3790.0 44 49 55 50 48 49 44 41 40 41
3830.0 51 57 60 65 60
##END=
