##TITLE=N,N-Dipropylformamide
##JCAMP-DX=4.24
##DATA TYPE=INFRARED SPECTRUM
##ORIGIN=EPA-IR VAPOR PHASE LIBRARY
##OWNER=SRD/NIST
Collection (C) 2018 copyright by the U.S. Secretary of Commerce
on behalf of the United States of America. All rights reserved.
##CAS REGISTRY NO=6282-00-4
##MOLFORM=C 7 H 15 N O
##$NIST SOURCE=MSDC-IR
##STATE=gas
##XUNITS=1/CM
##YUNITS=ABSORBANCE
##XFACTOR=1.
##YFACTOR=0.001
##DELTAX=3.85796
##FIRSTX=501.5
##LASTX=4000.7
##FIRSTY=2.2664
##MAXX=4000.7
##MINX=501.534
##MAXY=0.312846
##MINY=0
##NPOINTS=908
##XYDATA=(X++(Y..Y))
501.534 2.2664 2.4764 2.8064 2.8664 2.7064 2.6164 2.3764 2.0564 1.6864 1.2764
540.114 0.9197 0.6097 0.4284 0.3593 0.2756 0.1814 0.1664 0.1719 0.13886 0.13524
578.693 0.06611 0.0332 0 0.0256 0.1485 0.11775 0.05863 0.13059 0.1624 0.1965
617.273 0.3028 0.5343 0.8011 1.0157 1.2164 1.3464 1.4164 1.4464 1.2964 1.0564
655.852 0.863 0.7372 0.6273 0.575 0.6267 0.696 0.8863 1.1164 1.3664 1.6364
694.432 1.7764 1.7864 1.7564 1.5864 1.3764 1.1964 1.1064 1.1764 1.3664 1.7164
733.011 2.1464 2.6264 3.0764 3.4764 3.6064 3.4964 3.2264 2.8064 2.3964 2.1264
771.591 2.0564 2.2264 2.5064 2.7064 2.7964 2.7764 2.6064 2.2864 1.9164 1.6264
810.170 1.4464 1.3364 1.3564 1.5264 1.7364 2.0164 2.3164 2.5964 2.8264 2.9364
848.750 2.9864 3.0464 3.0964 3.2264 3.4064 3.6264 3.9464 4.4464 4.9964 5.5364
887.330 6.1664 6.6964 6.8864 6.7464 6.4464 5.9664 5.6164 5.3864 5.1464 4.9964
925.909 4.7364 4.2664 3.5864 2.8864 2.2864 1.8564 1.5764 1.3264 1.1664 1.0263
964.489 0.9498 0.9647 0.9569 0.9546 0.958 0.9711 1.0287 1.1364 1.3364 1.5264
1003.068 1.6464 1.7864 2.0164 2.2164 2.3664 2.6364 2.8664 3.0464 3.2264 3.3664
1041.648 3.5164 3.7964 4.2264 4.8464 5.7364 6.9364 8.6664 10.7964 13.0164 15.1764
1080.227 17.2664 19.6364 22.4864 26.0564 30.5164 35.5064 40.0164 43.0464 43.6564 41.3064
1118.807 36.3564 29.7464 22.6564 16.4364 11.8964 8.9364 7.0664 5.8564 5.1264 4.7664
1157.387 4.6364 4.6064 4.7864 5.1664 5.7264 6.7164 8.2864 10.3964 13.1164 16.3664
1195.966 19.7764 22.9064 25.5764 27.9764 30.1664 32.2164 33.7164 33.9864 32.9164 30.3264
1234.546 26.0164 20.8864 16.2664 12.9364 10.9564 10.1064 10.1464 10.8364 11.8664 12.8864
1273.125 13.8564 14.5664 14.9464 15.1664 15.3564 15.5064 15.5364 15.3964 15.0464 14.5064
1311.705 13.7864 13.0064 12.3664 11.9764 12.0064 12.5064 13.3564 14.3764 15.4864 16.6564
1350.284 17.8064 18.9064 20.1164 21.6664 23.6864 26.3464 30.0264 34.9564 40.6464 46.0464
1388.864 49.7264 50.6064 49.2364 46.5264 43.1864 40.2364 38.1164 36.5164 34.7864 32.4964
1427.443 29.4864 26.1664 23.2664 21.2464 20.2364 19.9364 20.1564 20.6164 20.9664 20.8264
1466.023 20.0864 18.8464 16.6164 13.8164 11.2964 9.0364 7.1764 5.8464 4.9464 4.3464
1504.603 3.9564 3.6264 3.3864 3.1464 2.9464 2.7764 2.6164 2.4564 2.3264 2.1864
1543.182 2.0664 1.9764 1.8964 1.7964 1.7464 1.7564 1.7564 1.7564 1.7664 1.8064
1581.762 1.8664 1.9164 1.9664 2.0664 2.1264 2.2164 2.3564 2.5264 2.7364 3.0064
1620.341 3.2964 3.5864 3.9164 4.2864 4.6964 5.1664 5.7764 6.7064 7.9564 9.6564
1658.921 11.4064 13.4264 15.9464 19.4064 24.4264 33.0764 48.4864 77.1964 121.816 183.226
1697.500 250.376 296.206 312.846 303.766 256.866 175.856 101.456 56.4564 32.8364 21.5164
1736.080 15.3464 11.9264 9.6864 8.2264 7.1164 6.3564 5.7464 5.2764 4.9164 4.6264
1774.659 4.3264 4.0564 3.7364 3.4064 3.0964 2.7864 2.5064 2.2564 2.0364 1.8764
1813.239 1.7064 1.5764 1.4764 1.3764 1.3064 1.2364 1.1664 1.1364 1.0964 1.0664
1851.819 1.027 0.9882 0.9451 0.9084 0.8403 0.7795 0.7487 0.7159 0.6675 0.6243
1890.398 0.5927 0.5874 0.5639 0.5649 0.5754 0.5784 0.5736 0.5418 0.548 0.5697
1928.978 0.5649 0.5682 0.5782 0.5953 0.631 0.6637 0.6776 0.688 0.7071 0.715
1967.557 0.7172 0.754 0.7747 0.773 0.7735 0.8039 0.8278 0.829 0.8435 0.844
2006.137 0.8223 0.7846 0.7582 0.7206 0.6984 0.7185 0.7334 0.7305 0.709 0.6915
2044.716 0.6805 0.6592 0.6293 0.5895 0.5497 0.5174 0.4832 0.4464 0.4377 0.4441
2083.296 0.4323 0.432 0.4227 0.424 0.4392 0.4387 0.458 0.4683 0.4725 0.5024
2121.875 0.5043 0.5165 0.5195 0.4968 0.4818 0.4754 0.4785 0.4787 0.4627 0.4351
2160.455 0.4217 0.4262 0.4526 0.4695 0.4578 0.4656 0.4837 0.5085 0.531 0.5111
2199.035 0.4966 0.5115 0.5195 0.5206 0.5235 0.5245 0.534 0.5207 0.492 0.4696
2237.614 0.4333 0.4295 0.4227 0.4194 0.428 0.4198 0.414 0.4078 0.4333 0.4558
2276.194 0.4451 0.4526 0.4665 0.4835 0.5239 0.5538 0.5623 0.5948 0.6087 0.6138
2314.773 0.6396 0.6484 0.6785 0.7192 0.741 0.7637 0.7805 0.7771 0.7598 0.7437
2353.353 0.7196 0.6914 0.6703 0.6508 0.6508 0.6516 0.6776 0.7227 0.758 0.7992
2391.932 0.7988 0.8039 0.8149 0.8034 0.7699 0.7359 0.702 0.6465 0.5948 0.5444
2430.512 0.5163 0.5074 0.491 0.4949 0.4943 0.5001 0.529 0.5256 0.5269 0.5384
2469.092 0.5568 0.5642 0.5666 0.5764 0.5768 0.5885 0.594 0.5979 0.6128 0.6236
2507.671 0.6098 0.5986 0.6142 0.6208 0.6202 0.6274 0.629 0.6369 0.6473 0.634
2546.251 0.6299 0.6539 0.6727 0.6669 0.6628 0.6689 0.6513 0.6266 0.6155 0.6255
2584.830 0.6579 0.7046 0.731 0.7287 0.7467 0.7956 0.7848 0.8029 0.8569 0.8632
2623.410 0.891 0.9173 0.9531 1.0126 1.0664 1.1264 1.1564 1.2164 1.3164 1.4364
2661.989 1.5364 1.6364 1.7264 1.8264 1.9364 2.0264 2.1364 2.2564 2.4164 2.5564
2700.569 2.6964 2.8764 2.9864 3.1064 3.3064 3.5164 3.7864 4.1264 4.5664 5.1264
2739.148 5.8164 6.7264 7.9364 9.3864 10.9664 12.5164 13.7364 14.3764 14.3964 13.8164
2777.728 12.8564 11.8264 10.9564 10.4064 10.1464 10.1364 10.3264 10.6664 11.1364 11.8064
2816.308 12.7664 14.1464 16.0664 18.5864 21.6164 24.9364 28.2264 31.1764 33.4664 34.9164
2854.887 35.6864 36.0264 36.3864 37.2264 38.8564 41.4264 44.4464 46.5964 47.0464 45.8464
2893.467 43.2964 40.1564 37.4264 36.0864 36.4664 38.4264 41.7364 46.1064 51.3264 57.0464
2932.046 62.9464 68.3964 72.1664 73.6464 73.1564 71.7964 71.0664 72.5764 77.0964 83.7164
2970.626 89.3564 89.9764 83.5464 70.8664 55.6464 41.2164 29.5364 21.6664 16.8064 13.7564
3009.205 11.7964 10.4164 9.3464 8.5564 7.8364 7.2064 6.6564 6.1464 5.6964 5.2464
3047.785 4.7964 4.3964 4.0464 3.7864 3.5564 3.3464 3.2064 3.1064 3.0164 2.9664
3086.364 2.9564 2.9664 2.9864 2.9764 2.9064 2.8064 2.7364 2.6664 2.5464 2.3864
3124.944 2.2664 2.1664 1.9964 1.8764 1.8164 1.6964 1.6164 1.5764 1.5564 1.5364
3163.524 1.4764 1.4264 1.3764 1.3064 1.2264 1.1264 1.0764 1.0305 0.9684 0.9313
3202.103 0.8885 0.8375 0.7944 0.7483 0.6791 0.6458 0.5875 0.4969 0.4663 0.4576
3240.683 0.4612 0.4652 0.4227 0.351 0.3607 0.4353 0.4537 0.4152 0.3587 0.3702
3279.262 0.386 0.3651 0.3414 0.293 0.2954 0.3076 0.332 0.358 0.3498 0.3708
3317.842 0.3611 0.3475 0.3435 0.357 0.3957 0.3904 0.4404 0.4662 0.5039 0.5533
3356.421 0.5603 0.6883 0.8857 1.0664 1.3064 1.5964 1.9664 2.4664 2.9264 3.1664
3395.001 3.2464 3.0564 2.6064 2.0964 1.5364 1.1664 0.9316 0.7457 0.6429 0.5565
3433.580 0.5081 0.4433 0.3807 0.3347 0.2426 0.165 0.1592 0.1943 0.2362 0.2322
3472.160 0.1934 0.1674 0.13155 0.12744 0.1725 0.1649 0.13842 0.12607 0.12421 0.13529
3510.740 0.09757 0.09441 0.09709 0.06093 0.06048 0.08407 0.12707 0.14279 0.14634 0.1657
3549.319 0.1783 0.09843 0.04823 0.10336 0.147 0.14569 0.163 0.2068 0.1727 0.1617
3587.899 0.1771 0.1628 0.1554 0.1523 0.1575 0.1645 0.1798 0.09578 0.06806 0.1874
3626.478 0.2147 0.187 0.13234 0.12358 0.09984 0.0266 0.050268 0.09716 0.2035 0.2358
3665.058 0.1992 0.1885 0.22 0.2616 0.256 0.2571 0.254 0.258 0.2587 0.2818
3703.637 0.2656 0.2319 0.2167 0.2477 0.2369 0.2417 0.2119 0.1899 0.2804 0.329
3742.217 0.3078 0.2772 0.2694 0.2813 0.3043 0.295 0.331 0.3146 0.2974 0.3984
3780.797 0.3957 0.3143 0.2626 0.263 0.2704 0.2428 0.2879 0.3198 0.2575 0.2488
3819.376 0.315 0.3518 0.3455 0.3138 0.2572 0.2342 0.2739 0.2831 0.269 0.2524
3857.956 0.2161 0.2156 0.24 0.2341 0.239 0.2615 0.2695 0.2028 0.2045 0.2853
3896.535 0.314 0.2987 0.2261 0.2123 0.2471 0.2572 0.2634 0.3473 0.3786 0.3094
3935.115 0.2714 0.2939 0.3546 0.3775 0.3706 0.3813 0.485 0.486 0.4402 0.5082
3973.694 0.5392 0.5482 0.5689 0.603 0.5961 0.5965 0.6183 0.603
##END=
