##TITLE=1,2-Ethylenedithiocyanate
##JCAMP-DX=4.24
##DATA TYPE=INFRARED SPECTRUM
##ORIGIN=EPA-IR VAPOR PHASE LIBRARY
##OWNER=SRD/NIST
Collection (C) 2018 copyright by the U.S. Secretary of Commerce
on behalf of the United States of America. All rights reserved.
##CAS REGISTRY NO=629-17-4
##MOLFORM=C 4 H 4 N 2 S 2
##$NIST SOURCE=MSDC-IR
##STATE=gas
##XUNITS=1/CM
##YUNITS=ABSORBANCE
##XFACTOR=1.
##YFACTOR=0.001
##DELTAX=1.92934
##FIRSTX=549.9
##LASTX=3999.5
##FIRSTY=0.41007
##MAXX=3999.53
##MINX=549.863
##MAXY=0.008544
##MINY=0
##NPOINTS=1789
##XYDATA=(X++(Y..Y))
549.863 0.41007 0.42691 0.42051 0.4924 0.7101 0.7387 0.6847 0.8231 0.7725 0.6557
569.156 0.839 0.969 0.8956 0.9052 1.0236 1.0152 0.9482 0.9187 0.9594 0.9387
588.450 0.9808 1.0207 1.0686 1.1473 1.2158 1.354 1.2992 1.283 1.19 1.1975
607.743 1.2739 1.2344 1.2663 1.1643 1.1442 1.1984 1.2303 1.2692 1.2824 1.284
627.037 1.2756 1.3333 1.3157 1.2912 1.364 1.354 1.2592 1.236 1.2673 1.2792
646.330 1.374 1.434 1.504 1.634 1.634 1.704 1.754 1.834 1.934 1.994
665.624 2.074 2.094 2.074 2.174 2.364 2.574 2.834 3.024 3.234 3.494
684.917 3.624 3.714 3.704 3.574 3.444 3.224 2.824 2.344 1.934 1.604
704.210 1.344 1.1791 1.0114 0.9637 1.064 1.0733 1.0582 1.0048 0.9613 0.9754
723.504 1.0496 1.1017 1.0512 1.0978 1.1714 1.2753 1.344 1.3137 1.354 1.504
742.797 1.584 1.614 1.694 1.734 1.684 1.694 1.704 1.654 1.604 1.594
762.091 1.704 1.684 1.694 1.704 1.694 1.794 1.774 1.754 1.804 1.774
781.384 1.804 1.854 1.744 1.654 1.534 1.394 1.414 1.384 1.344 1.2189
800.678 1.1163 1.1015 1.0073 1.0178 1.1085 1.0626 0.9889 0.9417 0.8937 0.9727
819.971 1.0033 0.9465 0.9525 0.9813 0.9777 1.0047 1.101 1.1356 1.2313 1.414
839.264 1.554 1.794 2.074 2.314 2.564 2.694 2.734 2.744 2.714 2.684
858.558 2.684 2.544 2.344 2.164 2.024 1.864 1.674 1.474 1.354 1.2927
877.851 1.3022 1.3103 1.2977 1.2991 1.2594 1.2696 1.2938 1.2729 1.296 1.374
897.145 1.404 1.444 1.584 1.684 1.714 1.764 1.804 1.874 1.974 2.004
916.438 1.874 1.764 1.734 1.664 1.634 1.584 1.494 1.434 1.3093 1.1888
935.732 1.0899 1.019 0.9956 1.0306 0.9844 0.872 0.8587 0.8694 0.7932 0.7733
955.025 0.8354 0.7977 0.7788 0.815 0.8169 0.766 0.733 0.7162 0.7129 0.7597
974.318 0.7252 0.7164 0.7017 0.625 0.6176 0.5872 0.5789 0.6223 0.6224 0.6112
993.612 0.607 0.586 0.644 0.7036 0.6731 0.6351 0.6691 0.7246 0.6908 0.6521
1012.905 0.6706 0.6934 0.6825 0.7066 0.7378 0.7181 0.6684 0.6186 0.6038 0.6159
1032.199 0.6198 0.5888 0.5827 0.6224 0.6098 0.6077 0.6594 0.6472 0.6154 0.5944
1051.492 0.5803 0.6278 0.6103 0.6081 0.6629 0.6579 0.6457 0.6683 0.6572 0.6208
1070.786 0.6851 0.6988 0.6502 0.6523 0.673 0.707 0.6919 0.606 0.5977 0.6827
1090.079 0.6891 0.673 0.7098 0.7247 0.7755 0.8307 0.8108 0.8555 0.9097 0.9271
1109.372 1.0126 1.0759 1.1202 1.1858 1.2636 1.434 1.624 1.784 1.964 2.134
1128.666 2.304 2.364 2.384 2.424 2.364 2.404 2.444 2.204 1.954 1.874
1147.959 1.734 1.574 1.464 1.3326 1.2772 1.213 1.1862 1.1546 1.0583 0.9677
1167.253 0.8898 0.8731 0.9147 0.9475 1.0103 1.1113 1.0818 1.0672 1.1572 1.1678
1186.546 1.1426 1.1742 1.2839 1.424 1.634 1.974 2.284 2.554 2.984 3.714
1205.840 4.504 5.284 6.014 6.454 6.684 6.834 6.874 6.774 6.444 5.784
1225.133 4.934 4.084 3.464 3.064 2.724 2.604 2.624 2.674 2.704 2.714
1244.426 2.804 2.954 3.144 3.384 3.634 3.864 4.254 4.714 5.164 5.664
1263.720 6.104 6.534 7.014 7.384 7.794 8.144 8.364 8.544 8.484 8.274
1283.013 7.964 7.614 7.144 6.614 6.054 5.384 4.674 4.044 3.534 3.054
1302.307 2.714 2.494 2.354 2.214 1.964 1.794 1.684 1.564 1.414 1.2719
1321.600 1.2195 1.2316 1.1979 1.102 1.0429 0.9968 0.9141 0.8793 0.8701 0.8358
1340.894 0.8459 0.8276 0.7973 0.805 0.7627 0.7405 0.7723 0.7917 0.833 0.8296
1360.187 0.7571 0.7317 0.7559 0.8057 0.8264 0.8199 0.8219 0.8144 0.7951 0.7959
1379.480 0.8068 0.8773 0.9242 0.9379 1.0074 1.0523 1.105 1.1328 1.143 1.2733
1398.774 1.424 1.594 1.774 2.014 2.364 2.754 3.134 3.504 3.894 4.274
1418.067 4.674 5.054 5.364 5.534 5.634 5.754 5.784 5.694 5.524 5.174
1437.361 4.724 4.354 3.954 3.504 3.164 2.744 2.304 2.004 1.754 1.614
1456.654 1.464 1.344 1.2668 1.1377 1.0621 1.0332 0.9839 0.888 0.8415 0.8029
1475.948 0.7466 0.759 0.7978 0.8117 0.7766 0.7255 0.7422 0.7738 0.7907 0.7891
1495.241 0.7545 0.7369 0.7264 0.7163 0.7187 0.6627 0.6052 0.6769 0.6992 0.6254
1514.534 0.6305 0.6356 0.6234 0.666 0.7022 0.6729 0.6065 0.6121 0.6576 0.6131
1533.828 0.5849 0.597 0.6199 0.6461 0.6064 0.5689 0.5813 0.552 0.515 0.5325
1553.121 0.6005 0.6582 0.6024 0.5628 0.5361 0.5151 0.5806 0.6076 0.5645 0.5633
1572.415 0.5553 0.519 0.522 0.5557 0.5586 0.5945 0.6294 0.6284 0.6048 0.6046
1591.708 0.6561 0.6495 0.5974 0.5576 0.5714 0.5591 0.5702 0.5373 0.4801 0.5019
1611.002 0.5599 0.6 0.5889 0.5541 0.5653 0.5588 0.4967 0.5298 0.5284 0.4977
1630.295 0.4444 0.4088 0.4386 0.457 0.4786 0.5025 0.5674 0.5402 0.4872 0.5052
1649.588 0.5322 0.5 0.4694 0.5205 0.5364 0.5458 0.5588 0.5508 0.5084 0.5063
1668.882 0.526 0.5472 0.548 0.531 0.5086 0.4452 0.4593 0.5231 0.4658 0.43389
1688.175 0.4967 0.4931 0.4941 0.4969 0.4605 0.4626 0.4597 0.4451 0.42946 0.4517
1707.469 0.4662 0.5055 0.5337 0.5154 0.5213 0.4946 0.4499 0.4429 0.4639 0.4984
1726.762 0.5496 0.5486 0.5005 0.43225 0.39483 0.4389 0.4989 0.5067 0.4839 0.5014
1746.056 0.4843 0.4491 0.4781 0.4759 0.4599 0.4456 0.4024 0.4575 0.4675 0.41694
1765.349 0.4418 0.4515 0.4615 0.40307 0.38418 0.42855 0.4551 0.4591 0.4447 0.4677
1784.642 0.4801 0.4458 0.4557 0.5066 0.4833 0.4829 0.4845 0.40582 0.35868 0.3977
1803.936 0.42671 0.42416 0.41606 0.41761 0.39046 0.39998 0.42029 0.40718 0.4399 0.4371
1823.229 0.40732 0.38637 0.36299 0.38051 0.40816 0.41083 0.42593 0.37281 0.340628 0.40717
1842.523 0.4382 0.4511 0.4604 0.4452 0.42568 0.41717 0.4457 0.4598 0.3934 0.35024
1861.816 0.38164 0.41768 0.4429 0.4966 0.4949 0.42133 0.41992 0.4565 0.475 0.4473
1881.110 0.40701 0.38792 0.39676 0.40053 0.38288 0.40413 0.42939 0.4741 0.4597 0.40619
1900.403 0.4353 0.4806 0.4365 0.37886 0.40998 0.38022 0.35009 0.43306 0.4586 0.4324
1919.696 0.42533 0.4837 0.5208 0.4772 0.4819 0.5286 0.5205 0.4843 0.4914 0.5119
1938.990 0.5339 0.4907 0.4457 0.4867 0.5092 0.4958 0.4944 0.5122 0.5296 0.5823
1958.283 0.6118 0.5978 0.589 0.5878 0.6106 0.5598 0.5727 0.5967 0.5597 0.546
1977.577 0.5324 0.5557 0.6026 0.6301 0.6183 0.5912 0.5518 0.5758 0.5908 0.5066
1996.870 0.5019 0.5398 0.5082 0.5031 0.5174 0.471 0.4479 0.4484 0.43133 0.4513
2016.164 0.4859 0.4368 0.41194 0.4424 0.42999 0.38122 0.36475 0.38918 0.37324 0.34741
2035.457 0.38929 0.4396 0.4156 0.42287 0.43317 0.37571 0.3718 0.36255 0.35014 0.41596
2054.750 0.42146 0.41414 0.42469 0.37624 0.3223 0.35663 0.39417 0.37188 0.39146 0.3958
2074.044 0.341423 0.337233 0.34833 0.34995 0.36668 0.37565 0.37228 0.37574 0.35317 0.36351
2093.337 0.39418 0.3743 0.35704 0.35244 0.38102 0.43158 0.4412 0.42926 0.4401 0.4927
2112.631 0.5423 0.5784 0.5933 0.5716 0.5553 0.5813 0.6553 0.6842 0.7176 0.7538
2131.924 0.7823 0.8853 1.0211 1.1179 1.2429 1.424 1.634 1.964 2.404 2.874
2151.218 3.424 4.164 4.984 5.724 6.344 6.804 7.034 7.044 6.884 6.604
2170.511 6.224 5.614 4.674 3.674 2.774 2.094 1.654 1.374 1.1682 0.9853
2189.804 0.8586 0.7586 0.6791 0.6359 0.6158 0.5415 0.4546 0.4713 0.4688 0.40705
2209.098 0.36551 0.33771 0.3219 0.305 0.32808 0.35982 0.35692 0.3204 0.315 0.3159
2228.391 0.3141 0.3202 0.2685 0.2433 0.277 0.2858 0.2703 0.2671 0.2469 0.2615
2247.685 0.285 0.2555 0.2881 0.3123 0.3004 0.3004 0.2675 0.3031 0.337043 0.34805
2266.978 0.38534 0.33226 0.3228 0.343462 0.33363 0.3121 0.2853 0.2807 0.2986 0.33168
2286.272 0.3194 0.34904 0.34675 0.3036 0.3237 0.3074 0.3049 0.34867 0.35476 0.32969
2305.565 0.3021 0.3207 0.3157 0.2937 0.3088 0.2963 0.2973 0.32554 0.338808 0.34512
2324.858 0.341966 0.340497 0.305 0.2684 0.2771 0.3036 0.3218 0.3007 0.3086 0.2969
2344.152 0.3117 0.34685 0.2808 0.2968 0.3088 0.2494 0.2552 0.2553 0.22 0.2407
2363.445 0.2745 0.2956 0.2884 0.2902 0.2902 0.2964 0.3238 0.34485 0.33135 0.2754
2382.739 0.3197 0.343836 0.3156 0.3013 0.3235 0.32613 0.2934 0.2994 0.305 0.3209
2402.032 0.35723 0.339297 0.3221 0.34876 0.35654 0.36428 0.323 0.228 0.198 0.2626
2421.326 0.3112 0.2946 0.3004 0.3082 0.3134 0.3183 0.2998 0.3147 0.341276 0.32499
2440.619 0.278 0.2896 0.340148 0.3235 0.2734 0.2769 0.2527 0.195 0.2502 0.255
2459.912 0.2559 0.2531 0.214 0.229 0.211 0.2398 0.2405 0.198 0.189 0.224
2479.206 0.2627 0.221 0.219 0.2779 0.2655 0.232 0.222 0.233 0.2529 0.2606
2498.499 0.205 0.187 0.2541 0.292 0.2888 0.2391 0.255 0.228 0.221 0.2641
2517.793 0.286 0.3108 0.2572 0.228 0.2652 0.3206 0.3216 0.37543 0.41842 0.41541
2537.086 0.4763 0.501 0.5252 0.54 0.4764 0.4608 0.5266 0.5056 0.4626 0.5186
2556.380 0.492 0.41521 0.38115 0.33035 0.2959 0.2509 0.203 0.2711 0.2902 0.228
2575.673 0.207 0.215 0.2361 0.228 0.194 0.203 0.231 0.227 0.2491 0.2456
2594.966 0.178 0.187 0.2556 0.2893 0.264 0.2557 0.2769 0.2675 0.23 0.21
2614.260 0.202 0.198 0.2348 0.2383 0.2382 0.231 0.202 0.2385 0.219 0.212
2633.553 0.185 0.155 0.219 0.187 0.167 0.178 0.182 0.187 0.176 0.201
2652.847 0.208 0.18 0.15 0.115 0.058 0.096 0.189 0.139 0.082 0.076
2672.140 0.142 0.202 0.12 0.069 0.171 0.211 0.145 0.084 0.105 0.166
2691.434 0.175 0.143 0.106 0.194 0.2517 0.171 0.152 0.143 0.09 0.065
2710.727 0 0.051 0.212 0.2377 0.2515 0.268 0.189 0.2365 0.2385 0.166
2730.020 0.172 0.163 0.152 0.176 0.207 0.197 0.169 0.081 0.047 0.057
2749.314 0.059 0.121 0.135 0.126 0.112 0.065 0.106 0.13 0.063 0.048
2768.607 0.019 0.014 0.053 0.068 0.129 0.132 0.097 0.086 0.138 0.129
2787.901 0.029 0.006 0.102 0.167 0.17 0.151 0.126 0.183 0.222 0.214
2807.194 0.23 0.2714 0.38714 0.39024 0.2855 0.36907 0.4971 0.5342 0.5158 0.4487
2826.488 0.4806 0.5433 0.5736 0.5827 0.5594 0.5988 0.611 0.548 0.6083 0.6582
2845.781 0.6646 0.6696 0.6494 0.6851 0.6492 0.6578 0.6764 0.5889 0.5302 0.5516
2865.074 0.5137 0.38511 0.2697 0.2635 0.36496 0.36895 0.342207 0.2838 0.198 0.161
2884.368 0.2937 0.43093 0.36599 0.2467 0.126 0.188 0.33269 0.33279 0.32499 0.39624
2903.661 0.3148 0.2385 0.39445 0.4861 0.36596 0.39691 0.4916 0.5086 0.5488 0.5268
2922.955 0.6978 0.9122 1.0159 1.0929 1.1149 1.2384 1.394 1.484 1.554 1.714
2942.248 1.834 1.774 1.844 1.924 1.854 1.774 1.634 1.614 1.464 1.2966
2961.542 1.3112 1.1568 1.0719 1.0321 0.9671 0.8525 0.7821 0.7444 0.7943 0.8721
2980.835 0.7205 0.6816 0.6153 0.5924 0.7009 0.6022 0.5959 0.6139 0.5977 0.6332
3000.128 0.6754 0.7566 0.6927 0.6014 0.5445 0.455 0.38666 0.43098 0.42618 0.33171
3019.422 0.3103 0.2843 0.2746 0.2413 0.2818 0.37215 0.334393 0.38828 0.40079 0.39268
3038.715 0.484 0.4911 0.4428 0.2834 0.175 0.222 0.311 0.40112 0.4451 0.5099
3058.009 0.39718 0.2701 0.2708 0.2829 0.191 0.15 0.2367 0.3111 0.3615 0.2
3077.302 0.184 0.212 0.139 0.17 0.2759 0.3214 0.32902 0.232 0.119 0.2753
3096.596 0.4971 0.5576 0.4899 0.36847 0.35632 0.37586 0.32808 0.42138 0.4696 0.4842
3115.889 0.43222 0.466 0.5543 0.5663 0.5598 0.4982 0.577 0.4996 0.43255 0.4549
3135.182 0.4352 0.58 0.6566 0.6224 0.6093 0.519 0.4578 0.5245 0.4684 0.42636
3154.476 0.5232 0.5276 0.5344 0.5763 0.6264 0.5705 0.5615 0.649 0.619 0.7105
3173.769 0.7259 0.6303 0.6683 0.6336 0.607 0.6539 0.5367 0.5429 0.5844 0.5099
3193.063 0.6097 0.6938 0.5177 0.39763 0.4991 0.6854 0.6723 0.6434 0.7436 0.6439
3212.356 0.5978 0.7649 0.7924 0.8017 0.7657 0.6958 0.7435 0.6695 0.6186 0.5668
3231.650 0.5655 0.6594 0.6152 0.546 0.6038 0.7157 0.8433 0.7813 0.5318 0.6688
3250.943 0.879 0.8301 0.8246 0.8505 0.9858 1.0611 0.9402 0.7824 0.6892 0.6946
3270.236 0.7615 0.8991 0.8977 0.7198 0.8289 1.0231 0.9341 0.8416 1.0134 1.0911
3289.530 0.899 0.8159 0.8091 0.6951 0.6879 0.7367 0.8309 0.8638 0.851 0.9415
3308.823 0.9624 0.7881 0.7623 0.9325 0.9183 0.9778 1.0329 1.0342 0.9666 0.9305
3328.117 1.1024 1.2132 1.0616 1.0745 1.1957 1.0025 0.7587 0.8293 1.0306 1.034
3347.410 0.8639 0.7745 0.9151 0.971 1.0677 1.1526 1.0507 1.1229 1.1571 0.9661
3366.704 0.9278 0.8821 0.8548 1.0265 0.9415 0.8115 0.9389 1.015 0.9716 0.8559
3385.997 0.7974 1.0227 1.1282 0.9961 0.9818 0.9552 1.1048 1.1106 1.0291 1.0599
3405.290 1.1061 1.0929 1.0311 1.106 1.062 0.9719 0.973 1.0327 0.9776 0.8226
3424.584 0.893 0.991 0.9664 0.9715 0.8845 0.9187 1.0493 0.9484 0.8953 0.9694
3443.877 1.0055 1.0298 0.7871 0.7033 0.8603 0.8679 0.9123 1.1103 1.1543 0.9383
3463.171 0.8514 0.9468 0.9775 0.9872 1.1301 1.1195 1.0356 1.0531 0.8593 0.9375
3482.464 1.0671 0.9471 0.8959 0.8389 0.8666 0.9437 0.9208 0.9381 0.9818 0.8337
3501.758 0.9072 0.9621 0.9543 1.0255 0.9731 0.97 0.9823 1.0365 1.0646 1.0591
3521.051 0.9591 0.8548 0.954 0.9424 0.763 0.7337 0.8252 0.8697 0.8823 0.9281
3540.344 0.9442 0.8766 0.8463 0.7867 0.733 0.8942 1.092 1.0961 0.8394 0.7345
3559.638 0.8412 0.8297 0.8796 0.9471 0.8641 0.8409 0.8946 1.0742 1.1333 0.9205
3578.931 0.8959 0.909 0.9587 0.9902 0.9859 0.9623 0.9013 1.0123 0.9093 0.7738
3598.225 0.9024 1.0297 1.007 0.8631 0.9722 1.0697 0.9686 0.8624 0.8713 0.9735
3617.518 0.9318 0.8023 0.7439 0.8276 0.8587 0.83 0.7748 0.7377 0.8133 0.843
3636.812 0.7723 0.7698 0.7483 0.7793 0.9042 0.8949 0.8595 0.8074 0.7182 0.6489
3656.105 0.7199 0.7102 0.7375 0.7873 0.7763 0.7794 0.7008 0.7119 0.794 0.8132
3675.398 0.6914 0.6946 0.7724 0.7928 0.7307 0.7602 0.9094 0.8194 0.7169 0.7706
3694.692 0.8712 0.8634 0.8597 0.9235 0.8501 0.9021 0.8914 0.7196 0.6833 0.8408
3713.985 0.9306 0.8677 0.7908 0.8203 0.8777 0.8892 0.9585 0.89 0.7684 0.7431
3733.279 0.724 0.7843 0.8442 0.7149 0.7048 0.8587 0.8866 0.818 0.8766 0.8739
3752.572 0.7844 0.743 0.6898 0.7116 0.8277 0.8271 0.7158 0.7345 0.8185 0.8583
3771.866 0.8471 0.78 0.6911 0.7039 0.6874 0.6444 0.7237 0.7204 0.6765 0.7287
3791.159 0.8185 0.787 0.7185 0.7285 0.7211 0.6479 0.6504 0.6942 0.6669 0.5653
3810.452 0.55 0.564 0.5723 0.637 0.6572 0.645 0.6269 0.6311 0.6007 0.6548
3829.746 0.6861 0.6541 0.6939 0.6406 0.5393 0.5912 0.6723 0.6897 0.7317 0.6282
3849.039 0.4963 0.5815 0.7343 0.7565 0.7249 0.8003 0.7985 0.7197 0.6765 0.5612
3868.333 0.6094 0.7201 0.6738 0.5913 0.5022 0.6019 0.6761 0.6332 0.6741 0.6513
3887.626 0.6188 0.6386 0.6819 0.6306 0.6234 0.6811 0.7001 0.6785 0.5677 0.5791
3906.920 0.7389 0.7961 0.7383 0.6813 0.5679 0.4787 0.5304 0.6114 0.6067 0.5819
3926.213 0.6345 0.6544 0.5985 0.5843 0.6231 0.678 0.6303 0.6371 0.7007 0.6561
3945.506 0.4897 0.41933 0.5138 0.6546 0.6578 0.6529 0.6521 0.5883 0.5549 0.4624
3964.800 0.538 0.6785 0.4898 0.5577 0.7858 0.6429 0.6255 0.7318 0.7382 0.6749
3984.093 0.6805 0.6023 0.5667 0.6218 0.62 0.5254 0.5966 0.684 0.5909
##END=
