##TITLE=1-Bromopentadecane
##JCAMP-DX=4.24
##DATA TYPE=INFRARED SPECTRUM
##ORIGIN=NIST Mass Spectrometry Data Center
##OWNER=NIST Standard Reference Data Program
Collection (C) 2018 copyright by the U.S. Secretary of Commerce
on behalf of the United States of America. All rights reserved.
##CAS REGISTRY NO=629-72-1
##MOLFORM=C 15 H 31 Br
##$NIST SOURCE=MSDC-IR
##SPECTROMETER/DATA SYSTEM=HP-GC/MS/IRD
##STATE=gas
##XUNITS=1/CM
##YUNITS=ABSORBANCE
##XFACTOR=1.0
##YFACTOR=0.000007400
##DELTAX=4.0
##FIRSTX=550.0
##LASTX=3846.0
##FIRSTY=0.000274
##MAXX=3846
##MINX=550
##MAXY=0.074
##MINY=0
##NPOINTS=825
##XYDATA=(X++(Y..Y))
550.0 37 39 59 104 127 122 110 93 65 44
590.0 34 13 3 7 7 8 4 5 20 26
630.0 32 60 101 136 158 169 156 124 82 46
670.0 30 31 30 23 22 34 41 50 71 92
710.0 117 139 161 166 163 153 144 134 122 118
750.0 108 100 92 72 65 70 61 47 45 44
790.0 42 45 41 42 44 38 37 33 32 35
830.0 33 28 25 27 25 25 27 28 27 28
870.0 30 31 27 27 30 27 25 24 23 27
910.0 26 23 20 18 19 17 20 20 21 23
950.0 21 18 17 17 17 17 18 18 17 14
990.0 10 9 9 10 12 14 16 14 16 20
1030.0 19 21 22 21 23 21 21 25 23 23
1070.0 23 21 23 25 21 16 11 11 12 14
1110.0 16 18 17 15 17 14 12 14 16 15
1150.0 17 22 21 22 29 32 32 32 44 54
1190.0 65 82 104 126 150 179 213 243 264 278
1230.0 286 295 310 332 354 374 388 398 398 383
1270.0 363 343 321 304 293 284 276 268 258 247
1310.0 229 210 191 175 170 175 192 217 243 272
1350.0 297 302 284 259 239 214 189 172 161 146
1390.0 125 106 96 94 92 96 105 120 143 173
1430.0 221 289 375 468 550 616 685 745 758 701
1470.0 585 443 320 231 170 132 106 88 72 57
1510.0 51 45 38 35 31 28 24 20 16 15
1550.0 16 12 10 10 11 9 11 11 12 13
1590.0 11 11 10 8 10 11 9 8 8 7
1630.0 6 6 10 9 7 5 3 5 5 4
1670.0 4 6 4 2 4 7 4 1 0 1
1710.0 4 3 0 0 3 6 4 3 3 4
1750.0 4 5 6 5 6 6 4 6 6 5
1790.0 6 4 3 1 2 3 5 4 3 4
1830.0 5 4 5 5 4 4 5 7 6 4
1870.0 3 3 3 4 5 6 5 6 5 5
1910.0 7 8 4 3 4 5 6 5 4 5
1950.0 5 4 3 5 6 6 7 9 7 3
1990.0 4 7 8 9 8 10 11 12 14 17
2030.0 15 14 15 14 15 14 11 11 11 10
2070.0 10 11 12 10 9 10 8 7 7 8
2110.0 9 8 7 7 6 7 8 9 9 8
2150.0 8 8 7 8 9 9 8 7 8 8
2190.0 7 5 5 7 9 10 10 9 11 9
2230.0 6 4 6 7 8 8 8 7 7 9
2270.0 8 4 4 8 6 6 7 6 5 6
2310.0 8 7 5 6 7 7 9 9 4 5
2350.0 7 8 10 10 7 9 9 8 8 9
2390.0 10 10 8 6 7 8 7 7 8 6
2430.0 9 12 10 9 8 6 7 8 9 9
2470.0 9 8 10 12 12 11 9 12 16 14
2510.0 14 14 14 16 21 23 24 24 25 25
2550.0 22 21 24 25 25 27 29 30 32 32
2590.0 33 36 38 39 43 49 50 50 54 55
2630.0 55 58 62 64 66 69 72 73 77 83
2670.0 86 90 94 94 95 95 94 93 90 88
2710.0 86 83 83 87 90 91 95 100 102 107
2750.0 108 109 112 115 119 128 135 143 156 169
2790.0 188 209 233 254 276 304 337 380 427 486
2830.0 564 658 792 992 1299 1776 2460 3233 3736 3702
2870.0 3278 2785 2406 2179 2052 2002 2068 2253 2556 2973
2910.0 3520 4231 5230 6639 8328 9689 10000 9189 7735 6147
2950.0 4774 3787 3206 2937 2801 2574 2155 1678 1294 1019
2990.0 826 697 604 549 521 508 482 421 347 291
3030.0 252 216 191 174 156 141 128 115 106 101
3070.0 96 91 85 83 79 73 71 68 65 62
3110.0 59 59 57 51 50 50 45 40 40 39
3150.0 37 36 37 39 40 37 36 34 30 27
3190.0 25 26 23 22 22 19 21 21 17 11
3230.0 11 13 13 15 13 9 8 10 14 12
3270.0 12 14 11 8 9 13 13 9 10 13
3310.0 14 11 6 7 5 5 9 8 8 13
3350.0 15 14 9 11 15 16 11 7 7 5
3390.0 5 9 9 11 14 15 13 12 13 10
3430.0 9 6 2 3 4 7 10 8 8 11
3470.0 9 6 6 8 7 8 9 8 9 5
3510.0 2 5 6 10 12 10 8 5 7 10
3550.0 6 7 7 12 16 12 11 10 12 15
3590.0 17 18 21 19 14 19 21 17 19 24
3630.0 25 21 21 25 26 26 22 16 21 24
3670.0 20 16 15 19 24 25 21 20 26 24
3710.0 20 24 26 23 20 20 19 19 27 30
3750.0 23 21 28 29 26 25 22 26 27 24
3790.0 23 24 25 28 29 28 26 28 30 27
3830.0 24 21 21 31 33
##END=
