##TITLE=1-Pentadecanol
##JCAMP-DX=4.24
##DATA TYPE=INFRARED SPECTRUM
##ORIGIN=NIST Mass Spectrometry Data Center
##OWNER=NIST Standard Reference Data Program
Collection (C) 2018 copyright by the U.S. Secretary of Commerce
on behalf of the United States of America. All rights reserved.
##CAS REGISTRY NO=629-76-5
##MOLFORM=C 15 H 32 O
##$NIST SOURCE=MSDC-IR
##SPECTROMETER/DATA SYSTEM=HP-GC/MS/IRD
##STATE=gas
##XUNITS=1/CM
##YUNITS=ABSORBANCE
##XFACTOR=1.0
##YFACTOR=0.000007700
##DELTAX=4.0
##FIRSTX=550.0
##LASTX=3846.0
##FIRSTY=0.000123
##MAXX=3846
##MINX=550
##MAXY=0.077
##MINY=0
##NPOINTS=825
##XYDATA=(X++(Y..Y))
550.0 16 18 24 29 26 14 9 6 6 7
590.0 4 8 16 21 14 14 19 21 28 34
630.0 28 14 17 17 17 22 25 18 20 18
670.0 20 30 33 40 45 52 67 77 93 112
710.0 130 146 156 153 143 139 130 112 99 96
750.0 89 82 80 76 71 66 64 64 64 59
790.0 61 62 54 56 56 54 58 56 50 52
830.0 59 60 62 68 75 77 80 82 84 85
870.0 89 95 101 107 111 115 117 119 119 125
910.0 134 134 132 131 133 137 141 142 152 161
950.0 168 177 184 192 203 212 221 234 254 278
990.0 301 329 358 388 421 459 503 555 612 675
1030.0 742 796 840 868 880 875 840 785 714 645
1070.0 586 526 471 419 365 314 273 240 213 191
1110.0 176 161 152 144 134 129 121 116 115 114
1150.0 115 118 120 122 123 121 123 126 129 134
1190.0 138 141 144 145 148 150 153 160 166 166
1230.0 169 173 176 178 182 185 188 192 194 196
1270.0 200 200 201 207 216 220 228 237 242 245
1310.0 243 237 231 229 231 241 258 284 312 340
1350.0 359 368 363 353 345 341 341 348 355 350
1390.0 325 291 258 229 206 190 183 181 182 192
1430.0 213 250 305 369 446 529 603 665 683 643
1470.0 561 456 356 275 210 164 131 109 93 80
1510.0 70 64 55 50 48 44 39 35 32 31
1550.0 31 28 26 25 23 21 20 21 20 18
1590.0 16 15 11 10 10 9 11 12 10 10
1630.0 11 10 9 6 3 4 6 7 6 6
1670.0 6 5 6 4 4 6 4 2 4 4
1710.0 3 1 1 2 1 0 1 0 0 1
1750.0 4 2 1 0 1 3 4 2 1 2
1790.0 2 0 0 1 1 2 4 3 3 2
1830.0 2 3 4 4 3 1 1 0 0 0
1870.0 1 2 1 0 0 0 2 4 2 2
1910.0 3 5 3 0 2 6 6 7 6 5
1950.0 3 3 4 5 5 4 5 4 4 5
1990.0 5 3 5 8 9 9 9 11 14 15
2030.0 16 18 19 19 18 15 16 14 11 9
2070.0 10 8 8 10 9 6 4 7 7 7
2110.0 5 4 6 4 5 7 5 5 5 4
2150.0 6 8 8 7 5 5 6 7 7 6
2190.0 6 7 6 6 9 9 9 7 6 7
2230.0 6 6 7 7 6 4 7 8 7 7
2270.0 9 8 9 10 8 7 8 9 10 13
2310.0 14 13 14 13 10 7 6 10 10 11
2350.0 12 11 8 9 9 10 11 10 11 11
2390.0 10 11 12 13 14 15 12 12 13 14
2430.0 14 17 17 15 15 16 14 13 13 12
2470.0 13 16 15 13 14 14 16 17 16 19
2510.0 21 20 21 23 26 27 27 28 30 29
2550.0 28 31 29 32 34 34 36 36 37 39
2590.0 42 44 45 46 50 52 52 55 59 61
2630.0 66 67 67 72 75 78 84 90 93 98
2670.0 101 104 108 113 114 117 115 112 111 109
2710.0 110 111 114 116 118 123 128 134 139 143
2750.0 149 155 158 166 169 177 192 201 215 231
2790.0 248 266 286 308 334 367 402 446 499 560
2830.0 636 737 880 1090 1408 1894 2571 3290 3747 3754
2870.0 3438 3050 2746 2550 2413 2339 2378 2560 2880 3328
2910.0 3901 4633 5629 6989 8561 9768 10000 9192 7760 6197
2950.0 4846 3868 3263 2917 2667 2352 1924 1490 1151 914
2990.0 747 623 531 460 400 355 317 279 252 229
3030.0 210 192 171 155 143 133 122 111 104 97
3070.0 89 86 86 79 76 71 66 61 62 63
3110.0 57 54 55 54 51 47 48 47 46 45
3150.0 40 39 43 42 42 39 35 33 32 32
3190.0 29 29 30 27 25 23 22 20 20 21
3230.0 19 15 17 21 16 15 15 12 12 15
3270.0 12 10 9 7 12 15 10 9 10 8
3310.0 10 16 14 11 7 7 14 12 8 8
3350.0 9 12 9 6 6 7 10 12 15 12
3390.0 9 10 14 13 8 6 11 15 13 7
3430.0 7 9 11 13 14 11 7 11 13 12
3470.0 12 11 11 9 7 13 15 8 10 13
3510.0 16 13 9 8 9 8 4 6 4 4
3550.0 8 8 8 10 14 14 11 12 12 11
3590.0 16 17 17 17 20 24 28 33 35 39
3630.0 48 60 74 89 105 130 164 197 221 230
3670.0 231 213 180 140 109 87 68 59 50 41
3710.0 34 31 31 32 31 32 28 23 21 23
3750.0 20 18 18 17 20 25 24 25 27 26
3790.0 22 19 22 28 31 27 25 26 28 25
3830.0 25 30 33 32 27
##END=
