##TITLE=1,3,5,7-Cyclooctatetraene
##JCAMP-DX=4.24
##DATA TYPE=INFRARED SPECTRUM
##ORIGIN=NIST Mass Spectrometry Data Center
##OWNER=NIST Standard Reference Data Program
Collection (C) 2018 copyright by the U.S. Secretary of Commerce
on behalf of the United States of America. All rights reserved.
##CAS REGISTRY NO=629-20-9
##MOLFORM=C 8 H 8
##$NIST SOURCE=MSDC-IR
##SPECTROMETER/DATA SYSTEM=HP-GC/MS/IRD
##STATE=gas
##XUNITS=1/CM
##YUNITS=ABSORBANCE
##XFACTOR=1.0
##YFACTOR=0.000002300
##DELTAX=4.0
##FIRSTX=550.0
##LASTX=3846.0
##FIRSTY=0.000212
##MAXX=3846
##MINX=550
##MAXY=0.023
##MINY=0
##NPOINTS=825
##XYDATA=(X++(Y..Y))
550.0 92 63 35 55 86 127 116 127 167 222
590.0 313 417 556 761 1156 1736 2299 2605 2654 2601
630.0 2567 2494 2277 2143 2392 2972 3664 4320 5006 7032
670.0 7724 5664 4602 3968 3117 2298 1462 828 436 249
710.0 190 144 106 100 91 106 108 84 80 80
750.0 77 97 108 122 177 306 575 1042 1646 2143
790.0 2066 2448 3488 2704 1927 2193 1957 1370 746 360
830.0 194 136 101 83 65 49 45 58 56 49
870.0 52 60 62 52 39 31 24 40 54 40
910.0 41 42 44 77 112 130 158 203 227 217
950.0 211 213 206 198 179 161 159 146 129 120
990.0 118 101 85 81 63 59 76 101 111 114
1030.0 115 116 113 100 83 71 46 36 30 16
1070.0 15 15 19 6 13 23 8 13 28 18
1110.0 15 25 7 0 3 5 7 9 3 15
1150.0 26 18 17 22 32 44 48 47 65 82
1190.0 74 85 134 201 225 241 255 265 286 251
1230.0 208 174 127 92 78 60 39 38 39 44
1270.0 48 40 37 29 28 34 37 42 42 41
1310.0 45 42 33 35 36 32 28 30 27 26
1350.0 31 23 14 5 11 25 30 35 45 48
1390.0 50 57 54 46 47 48 45 43 34 36
1430.0 35 28 21 12 21 35 32 39 45 36
1470.0 38 36 22 13 15 25 30 34 34 30
1510.0 34 30 32 35 31 33 42 53 61 69
1550.0 74 88 106 114 124 136 139 143 156 169
1590.0 179 194 202 229 265 290 319 377 454 530
1630.0 578 589 574 524 446 343 231 148 108 92
1670.0 81 69 67 72 72 83 105 130 163 193
1710.0 212 218 230 232 231 238 250 266 260 250
1750.0 242 216 173 136 120 122 114 99 92 85
1790.0 80 72 66 57 51 43 47 70 89 95
1830.0 102 111 114 120 120 113 99 80 72 75
1870.0 71 61 58 56 57 74 85 96 116 122
1910.0 122 121 116 107 98 89 79 69 51 35
1950.0 38 38 29 28 32 33 43 52 56 55
1990.0 52 51 67 71 54 53 54 42 29 25
2030.0 19 19 21 21 25 22 23 30 20 17
2070.0 20 17 20 19 17 14 9 16 22 23
2110.0 22 25 27 26 27 28 30 26 26 29
2150.0 30 34 38 40 35 23 22 24 21 22
2190.0 15 14 23 28 30 21 13 16 15 10
2230.0 19 37 33 29 35 29 20 26 24 21
2270.0 29 36 43 46 43 46 52 59 53 39
2310.0 39 47 46 35 32 40 51 46 38 40
2350.0 45 45 42 38 33 29 30 32 42 51
2390.0 40 28 27 30 31 37 44 52 56 62
2430.0 64 53 44 39 34 33 27 27 24 17
2470.0 16 11 5 0 1 9 13 14 15 10
2510.0 7 12 11 9 18 22 23 23 12 13
2550.0 15 19 23 16 11 14 27 35 24 19
2590.0 28 27 23 24 18 22 29 26 21 22
2630.0 24 21 20 26 20 14 22 16 7 18
2670.0 20 15 6 10 19 24 27 27 22 15
2710.0 26 49 48 43 52 56 68 85 97 100
2750.0 98 103 103 94 84 85 79 77 81 90
2790.0 90 72 79 91 99 126 138 149 176 196
2830.0 201 187 160 133 127 104 74 72 64 46
2870.0 49 52 44 62 74 56 59 69 75 76
2910.0 79 80 85 95 116 146 170 224 305 380
2950.0 438 480 503 512 522 523 548 669 943 1441
2990.0 2289 3530 5140 6975 9024 10000 9251 8544 8046 6928
3030.0 5087 3245 2036 1406 1091 912 786 656 542 471
3070.0 404 348 306 260 221 187 156 133 95 71
3110.0 81 95 97 87 75 60 62 74 71 56
3150.0 49 56 49 36 49 56 40 49 61 62
3190.0 69 68 56 44 58 66 56 61 56 55
3230.0 54 57 89 103 96 95 93 92 82 74
3270.0 76 58 50 56 48 40 39 43 52 47
3310.0 27 8 11 30 24 16 21 27 26 18
3350.0 25 34 21 13 26 33 40 35 36 50
3390.0 41 43 44 36 35 33 36 49 58 50
3430.0 45 31 25 22 20 43 40 28 26 26
3470.0 25 14 12 23 23 23 19 8 10 24
3510.0 15 0 10 21 18 5 2 14 20 21
3550.0 32 28 28 38 32 16 13 19 29 44
3590.0 49 44 47 56 66 41 33 62 56 64
3630.0 73 69 75 76 68 58 65 74 68 60
3670.0 62 63 77 77 64 65 61 47 21 20
3710.0 31 25 17 37 49 52 46 42 56 40
3750.0 15 12 14 36 53 43 29 29 47 53
3790.0 32 35 42 32 25 28 28 28 43 50
3830.0 45 40 44 52 60
##END=
