##TITLE=1,7-Heptanediol
##JCAMP-DX=4.24
##DATA TYPE=INFRARED SPECTRUM
##ORIGIN=NIST Mass Spectrometry Data Center
##OWNER=NIST Standard Reference Data Program
Collection (C) 2018 copyright by the U.S. Secretary of Commerce
on behalf of the United States of America. All rights reserved.
##CAS REGISTRY NO=629-30-1
##MOLFORM=C 7 H 16 O 2
##$NIST SOURCE=MSDC-IR
##SPECTROMETER/DATA SYSTEM=HP-GC/MS/IRD
##STATE=gas
##XUNITS=1/CM
##YUNITS=ABSORBANCE
##XFACTOR=1.0
##YFACTOR=0.000002300
##DELTAX=4.0
##FIRSTX=550.0
##LASTX=3846.0
##FIRSTY=0.000154
##MAXX=3846
##MINX=550
##MAXY=0.023
##MINY=0
##NPOINTS=825
##XYDATA=(X++(Y..Y))
550.0 67 52 56 68 48 58 81 85 82 49
590.0 23 20 35 37 36 50 39 26 27 17
630.0 12 39 37 43 67 73 61 49 66 50
670.0 33 42 34 47 60 61 68 72 86 108
710.0 135 143 150 152 151 157 139 123 112 116
750.0 132 126 111 97 99 109 123 120 120 132
790.0 135 135 134 135 134 130 143 148 142 160
830.0 174 175 181 194 202 212 222 231 241 260
870.0 293 306 313 339 349 351 373 391 396 399
910.0 410 429 459 492 527 579 640 696 742 794
950.0 841 883 921 963 997 1045 1108 1176 1255 1345
990.0 1446 1549 1666 1798 1950 2134 2359 2617 2925 3288
1030.0 3667 4034 4335 4525 4532 4358 4049 3691 3332 3021
1070.0 2782 2574 2380 2179 1960 1734 1492 1278 1101 959
1110.0 853 768 702 650 612 590 568 558 562 557
1150.0 543 530 532 550 557 562 573 588 599 619
1190.0 640 654 672 691 699 717 741 749 753 758
1230.0 758 764 782 788 783 787 800 795 786 787
1270.0 791 788 769 752 731 712 703 693 687 673
1310.0 653 645 650 650 655 668 687 722 753 780
1350.0 806 828 845 859 886 951 1026 1103 1157 1177
1390.0 1137 1053 943 817 706 619 553 503 476 477
1430.0 488 514 563 610 653 694 728 735 719 688
1470.0 652 620 574 501 408 314 242 195 163 140
1510.0 122 108 92 84 76 70 67 56 52 54
1550.0 54 44 34 35 31 30 27 26 29 25
1590.0 20 19 25 26 20 15 13 9 14 18
1630.0 16 12 8 6 5 1 0 4 1 1
1670.0 10 9 8 11 10 12 7 4 4 1
1710.0 1 7 5 0 3 6 5 6 10 17
1750.0 17 8 5 7 6 1 2 5 10 15
1790.0 8 1 3 5 9 11 9 7 6 7
1830.0 8 8 5 7 14 18 11 4 4 7
1870.0 9 10 11 16 19 15 11 11 13 19
1910.0 18 12 12 15 15 18 22 21 21 20
1950.0 20 23 20 16 19 23 20 16 20 25
1990.0 25 26 24 23 27 32 36 33 32 39
2030.0 41 38 46 49 44 45 45 41 41 40
2070.0 37 35 34 29 26 22 20 23 17 17
2110.0 17 10 9 15 15 18 15 5 10 12
2150.0 4 4 13 14 11 13 15 14 13 10
2190.0 12 14 12 12 13 13 12 12 17 15
2230.0 7 11 14 12 10 14 19 16 18 24
2270.0 22 21 25 25 21 18 23 26 32 28
2310.0 22 25 26 25 27 19 12 8 11 16
2350.0 22 22 18 24 28 28 35 40 36 35
2390.0 36 32 36 37 38 45 47 47 49 47
2430.0 46 48 46 43 40 42 38 37 40 45
2470.0 43 40 39 42 49 46 43 40 42 48
2510.0 54 55 51 54 60 59 51 51 55 60
2550.0 61 57 54 55 61 56 53 61 65 70
2590.0 71 68 71 76 81 93 99 97 88 90
2630.0 104 111 110 114 123 126 128 135 141 144
2670.0 155 171 173 174 182 189 191 202 213 211
2710.0 210 219 230 236 251 264 270 286 299 302
2750.0 312 326 337 351 355 363 384 403 415 442
2790.0 463 478 500 529 568 606 659 723 789 864
2830.0 976 1121 1319 1588 1931 2346 2828 3327 3792 4177
2870.0 4445 4582 4594 4500 4344 4178 4104 4177 4386 4732
2910.0 5226 5873 6642 7524 8463 9310 9883 10000 9570 8661
2950.0 7489 6267 5131 4154 3340 2666 2115 1678 1341 1085
2990.0 900 750 637 564 481 410 371 338 296 264
3030.0 242 223 202 183 168 151 140 138 132 129
3070.0 123 113 102 96 94 83 74 70 66 73
3110.0 81 70 63 61 58 60 58 54 52 49
3150.0 45 53 54 38 36 43 42 42 36 37
3190.0 49 50 42 27 26 27 27 29 31 21
3230.0 12 15 15 14 20 25 26 25 23 26
3270.0 27 30 34 34 29 22 24 30 22 20
3310.0 16 8 13 18 21 20 17 15 23 25
3350.0 29 35 30 32 35 26 23 25 35 43
3390.0 35 40 52 47 43 44 57 59 52 60
3430.0 61 58 57 69 80 77 68 69 72 68
3470.0 63 62 69 79 81 80 75 71 78 84
3510.0 74 61 57 60 63 56 54 60 63 64
3550.0 58 59 70 71 70 69 70 72 81 86
3590.0 93 102 108 108 117 134 148 159 173 202
3630.0 245 290 346 426 535 679 853 1019 1149 1224
3670.0 1233 1158 1004 792 598 465 367 292 240 203
3710.0 175 151 131 110 94 95 105 91 75 80
3750.0 82 79 71 72 70 61 58 66 68 69
3790.0 69 67 74 73 70 82 94 81 78 93
3830.0 98 85 80 91 109
##END=
