##TITLE=n-Butyl disulfide
##JCAMP-DX=4.24
##DATA TYPE=INFRARED SPECTRUM
##ORIGIN=NIST Mass Spectrometry Data Center
##OWNER=NIST Standard Reference Data Program
Collection (C) 2018 copyright by the U.S. Secretary of Commerce
on behalf of the United States of America. All rights reserved.
##CAS REGISTRY NO=629-45-8
##MOLFORM=C 8 H 18 S 2
##$NIST SOURCE=MSDC-IR
##SPECTROMETER/DATA SYSTEM=HP-GC/MS/IRD
##STATE=gas
##XUNITS=1/CM
##YUNITS=ABSORBANCE
##XFACTOR=1.0
##YFACTOR=0.000002300
##DELTAX=4.0
##FIRSTX=550.0
##LASTX=3846.0
##FIRSTY=0.000267
##MAXX=3846
##MINX=550
##MAXY=0.023
##MINY=0
##NPOINTS=825
##XYDATA=(X++(Y..Y))
550.0 116 54 13 35 15 0 33 33 30 22
590.0 41 52 57 65 54 60 71 77 66 95
630.0 130 101 76 90 84 97 100 72 78 93
670.0 73 73 111 132 133 157 177 176 174 173
710.0 190 208 251 298 295 289 328 391 443 475
750.0 482 444 383 329 298 304 297 291 313 345
790.0 320 274 243 214 210 184 171 177 163 149
830.0 152 126 123 152 133 129 155 170 175 194
870.0 216 222 243 256 235 249 283 298 312 315
910.0 327 342 316 282 246 218 186 178 177 155
950.0 142 152 162 167 167 158 159 152 146 146
990.0 158 155 148 137 122 124 124 118 128 134
1030.0 138 155 168 196 216 234 259 282 300 324
1070.0 349 333 324 326 345 371 360 325 288 242
1110.0 199 192 178 145 135 138 118 97 110 110
1150.0 116 132 132 135 152 170 198 242 268 280
1190.0 279 286 314 373 508 706 892 995 941 778
1230.0 610 488 417 399 434 491 602 774 980 1170
1270.0 1278 1280 1206 1114 1036 960 890 796 692 588
1310.0 481 401 364 350 355 388 445 494 548 569
1350.0 541 505 475 434 434 455 500 593 676 703
1390.0 668 585 532 536 573 629 680 724 783 837
1430.0 912 1003 1103 1186 1221 1267 1308 1367 1436 1414
1470.0 1288 1083 893 712 553 449 380 326 288 213
1510.0 173 182 159 138 135 139 136 110 87 96
1550.0 103 91 62 84 102 98 89 85 96 92
1590.0 95 90 84 80 83 81 69 71 76 73
1630.0 77 66 66 65 51 42 34 56 73 63
1670.0 51 46 47 29 30 50 30 13 17 37
1710.0 52 27 15 41 49 22 8 24 26 17
1750.0 15 26 32 27 20 9 20 37 37 36
1790.0 35 29 20 19 26 29 31 35 31 26
1830.0 27 28 28 21 25 37 41 35 40 33
1870.0 27 35 28 26 26 26 34 39 49 48
1910.0 39 42 34 31 38 32 33 39 32 34
1950.0 45 45 39 32 34 45 44 40 49 47
1990.0 37 36 40 52 52 49 46 48 49 49
2030.0 56 51 43 48 61 68 61 48 46 47
2070.0 47 41 38 36 35 46 46 42 40 45
2110.0 46 36 39 45 37 43 51 44 39 45
2150.0 48 42 37 39 41 38 37 38 39 39
2190.0 34 29 32 39 32 27 34 37 35 34
2230.0 28 28 34 35 36 36 39 45 41 35
2270.0 24 15 18 27 36 33 26 28 29 30
2310.0 42 42 38 36 24 15 19 31 35 41
2350.0 48 42 36 36 33 29 34 36 35 34
2390.0 33 46 44 30 35 36 30 32 34 37
2430.0 32 28 20 12 27 30 26 15 5 15
2470.0 14 14 24 23 20 24 31 24 24 39
2510.0 36 30 42 45 46 44 29 25 34 42
2550.0 37 31 22 27 39 32 42 49 43 41
2590.0 38 33 30 33 49 54 56 66 79 82
2630.0 86 87 74 93 111 107 108 108 87 86
2670.0 106 107 101 97 94 106 107 91 94 91
2710.0 89 107 114 108 132 150 156 182 205 204
2750.0 193 195 207 218 221 223 216 233 262 287
2790.0 320 358 397 435 480 532 590 656 700 750
2830.0 831 938 1080 1258 1486 1791 2119 2429 2753 3091
2870.0 3422 3737 4059 4260 4273 4178 4040 4042 4259 4626
2910.0 5070 5519 5982 6541 7229 7981 8701 9209 9311 9027
2950.0 8637 8456 8709 9368 10000 9922 8849 7106 5223 3762
2990.0 2816 2190 1760 1468 1252 1059 916 811 733 657
3030.0 601 534 472 448 414 375 344 314 300 278
3070.0 248 250 249 239 241 226 207 198 200 206
3110.0 204 201 187 174 173 163 153 142 129 141
3150.0 150 146 136 134 130 127 127 120 114 112
3190.0 115 122 111 105 93 70 75 74 62 68
3230.0 75 77 80 79 71 54 59 67 69 73
3270.0 62 53 57 54 39 40 60 43 30 50
3310.0 55 54 49 52 54 64 59 42 61 70
3350.0 62 48 28 21 28 35 29 36 43 38
3390.0 37 36 38 33 39 37 40 68 59 15
3430.0 5 23 25 37 40 26 23 27 29 48
3470.0 53 35 39 35 35 41 43 50 29 22
3510.0 37 29 38 26 28 47 52 57 52 28
3550.0 45 61 55 61 22 22 43 46 40 32
3590.0 47 44 56 73 42 17 28 41 50 20
3630.0 4 40 61 83 76 35 41 62 65 66
3670.0 60 48 56 69 66 57 66 71 65 65
3710.0 53 37 54 73 65 50 34 43 36 20
3750.0 33 46 44 67 77 85 106 91 95 102
3790.0 81 60 63 65 60 84 94 77 78 93
3830.0 92 69 71 90 83
##END=
