##TITLE=Ethylacetoacetate propyleneglycol ketal
##JCAMP-DX=4.24
##DATA TYPE=INFRARED SPECTRUM
##ORIGIN=EPA-IR VAPOR PHASE LIBRARY
##OWNER=SRD/NIST
Collection (C) 2018 copyright by the U.S. Secretary of Commerce
on behalf of the United States of America. All rights reserved.
##CAS REGISTRY NO=6290-17-1
##MOLFORM=C 9 H 16 O 4
##$NIST SOURCE=MSDC-IR
##STATE=gas
##XUNITS=1/CM
##YUNITS=ABSORBANCE
##XFACTOR=1.
##YFACTOR=0.001
##DELTAX=1.929
##FIRSTX=549.8
##LASTX=4000.8
##FIRSTY=1.9197
##MAXX=4000.75
##MINX=549.766
##MAXY=0.0654
##MINY=0
##NPOINTS=1790
##XYDATA=(X++(Y..Y))
549.766 1.9197 1.7749 1.564 1.4072 1.6671 1.7781 1.6405 1.3893 1.1443 1.4927
569.056 1.6459 1.545 1.822 1.5941 1.5027 1.7604 1.886 1.5103 1.3984 1.7746
588.346 1.8158 1.77 1.9099 1.9663 1.7321 1.7381 1.6775 1.704 1.9079 1.9392
607.636 1.9653 1.8956 1.6673 1.6232 1.6523 1.6374 1.623 1.703 1.691 1.5519
626.926 1.3301 1.1791 1.2703 1.1602 1.1065 1.3588 1.3957 1.3116 1.3112 1.06297
646.216 0.865 0.9571 1.2471 1.3771 1.2039 1.2867 1.3295 1.3663 1.7775 2.08
665.506 2.16 2.34 2.53 2.57 2.55 2.53 2.45 2.13 1.8231 1.6774
684.796 1.6395 1.5788 1.4582 1.4181 1.3505 1.231 1.2711 1.2083 1.1391 1.241
704.086 1.2242 1.1454 1.08011 1.09856 1.2094 1.2506 1.3621 1.4854 1.4747 1.5468
723.376 1.6404 1.5749 1.5176 1.7004 1.8345 1.8645 1.8931 2.05 2.29 2.29
742.666 2.38 2.48 2.59 2.61 2.52 2.76 3.11 3.18 3.19 3.19
761.956 3.17 3.17 3 2.98 3.01 2.89 2.83 2.95 2.85 2.78
781.246 2.9 2.85 2.9 3.01 2.94 2.91 3.03 3.18 3.32 3.37
800.536 3.32 3.42 3.41 3.47 3.52 3.48 3.84 3.94 3.76 3.74
819.826 4.05 4.27 4.34 4.52 4.69 4.98 5.38 5.47 5.64 5.98
839.116 6.2 6.34 6.36 6.43 6.53 6.67 6.78 6.94 7.1 7.26
858.406 7.36 7.49 7.8 8.08 8.27 8.39 8.36 8.24 8.04 7.77
877.696 7.46 7.1 6.69 6.18 5.7 5.34 5.03 4.8 4.73 4.64
896.986 4.68 4.84 4.93 5.14 5.5 5.75 5.98 6.2 6.44 6.67
916.276 6.89 7.09 7.25 7.48 7.66 7.86 8.18 8.35 8.47 8.74
935.566 8.83 8.75 8.77 8.7 8.56 8.55 8.63 8.77 8.85 8.95
954.856 9.32 9.66 9.99 10.35 10.6 10.83 10.77 10.41 9.87 9.15
974.146 8.45 7.75 7.1 6.45 5.87 5.48 5.25 5.03 4.95 5
993.436 5 5.07 5.24 5.56 6.06 6.56 7.08 7.77 8.69 9.71
1012.726 10.92 12.43 14.19 16.21 18.6 21.39 24.46 27.7 31.15 34.7
1032.016 37.9 40.74 43.34 45.33 46.63 47.19 47.08 46.53 45.44 43.88
1051.306 42.03 40.08 37.99 35.8 33.65 31.67 30.13 28.99 28.27 28.05
1070.596 28.31 29.06 30.21 31.72 33.63 35.76 38.07 40.47 42.72 44.72
1089.886 46.5 48.04 49.16 49.87 50.1 49.84 49.23 48.26 47.13 45.88
1109.176 44.45 42.88 41.47 40.19 39.07 37.98 36.83 35.96 35.17 34.55
1128.467 34.08 33.76 33.7 33.7 33.63 33.57 33.56 33.46 33.19 32.82
1147.757 32.24 31.72 31.26 30.71 30.43 30.25 30.24 30.71 31.59 32.74
1167.047 34.03 35.82 38.06 40.46 42.86 45.33 47.77 49.78 51.64 53.03
1186.337 53.64 53.68 53.11 52.03 50.45 48.61 46.71 44.74 42.86 41.21
1205.627 39.8 38.99 38.54 38.36 38.48 38.76 39.23 39.85 40.68 41.67
1224.917 42.76 43.78 44.5 45.08 45.53 45.94 46.11 45.79 45.21 44.44
1244.207 43.27 41.76 40.14 38.33 36.45 34.62 32.91 31.35 29.95 28.65
1263.497 27.5 26.47 25.55 24.82 24.04 23.24 22.68 22.14 21.63 21.21
1282.787 20.85 20.74 20.67 20.7 20.98 21.24 21.62 22.14 22.65 23.16
1302.077 23.7 24.31 24.99 25.66 26.39 27.08 27.7 28.29 28.79 29.11
1321.367 29.11 28.9 28.51 27.93 27.2 26.22 25.14 24 22.77 21.57
1340.657 20.27 18.96 17.73 16.48 15.4 14.43 13.58 13 12.7 12.85
1359.947 13.52 14.78 16.52 18.41 20.31 22.05 23.48 24.83 25.85 25.96
1379.237 25.36 24.38 23.15 21.8 20.28 18.46 16.46 14.52 12.73 11.22
1398.527 10.01 8.98 8.13 7.43 6.9 6.59 6.4 6.25 6.15 6.12
1417.817 6.27 6.48 6.57 6.65 6.75 6.88 6.91 6.93 6.97 7.06
1437.107 7.25 7.36 7.51 7.68 7.89 8.08 8.21 8.29 8.27 8.33
1456.397 8.4 8.22 7.97 7.82 7.75 7.59 7.33 7.11 6.94 6.58
1475.687 6.18 5.85 5.47 5.1 4.68 4.26 3.94 3.6 3.26 2.93
1494.977 2.77 2.62 2.33 2.17 2.13 2.15 2.17 1.9408 1.7799 1.7723
1514.267 1.6974 1.735 1.6929 1.6829 1.7393 1.6196 1.5597 1.5342 1.5288 1.5082
1533.557 1.4474 1.4061 1.4784 1.6502 1.5988 1.454 1.4099 1.3751 1.3533 1.3551
1552.847 1.3797 1.3958 1.5473 1.6728 1.5008 1.3557 1.3091 1.3137 1.383 1.3686
1572.137 1.2729 1.3019 1.4463 1.3633 1.2154 1.3239 1.4392 1.4155 1.3577 1.3246
1591.427 1.3826 1.3966 1.3406 1.3234 1.3049 1.3092 1.3614 1.3329 1.3158 1.3473
1610.717 1.3562 1.3978 1.508 1.549 1.4337 1.4384 1.4958 1.4852 1.4818 1.4826
1630.007 1.4286 1.4517 1.6031 1.6434 1.4689 1.4315 1.5113 1.5077 1.668 1.7097
1649.297 1.611 1.789 1.9245 1.7444 1.7409 1.7875 1.7076 1.7149 1.7899 1.9051
1668.587 2 2.06 2.07 2.19 2.26 2.29 2.4 2.52 2.78 2.89
1687.877 2.94 3.05 3.15 3.41 3.71 3.91 4.24 4.55 4.69 5.03
1707.167 5.39 5.72 6.12 6.64 7.22 7.84 8.45 9.04 9.85 10.96
1726.457 12.31 13.95 16.03 18.62 22.03 25.81 30.17 35.45 40.95 46.75
1745.747 52.35 57.4 61.42 64.22 65.4 64.81 62.44 58.51 53.2 47.12
1765.037 41.05 35.26 29.86 25.26 21.23 17.86 15.15 12.94 11.11 9.55
1784.327 8.33 7.32 6.48 5.88 5.32 4.78 4.34 3.97 3.66 3.41
1803.617 3.17 3 2.81 2.61 2.51 2.43 2.34 2.25 2.19 2.07
1822.907 2.03 1.9797 1.8992 1.9435 1.8972 1.7712 1.7391 1.7497 1.7357 1.707
1842.197 1.684 1.696 1.6808 1.6206 1.5646 1.5469 1.5135 1.4998 1.4812 1.4346
1861.487 1.4054 1.3934 1.4071 1.4925 1.5203 1.4111 1.364 1.3675 1.3877 1.3868
1880.777 1.3944 1.468 1.4767 1.4393 1.4668 1.4644 1.4198 1.3656 1.3371 1.317
1900.067 1.2758 1.3091 1.2874 1.2115 1.2592 1.2704 1.2724 1.2375 1.1907 1.1943
1919.357 1.2121 1.2444 1.2597 1.3056 1.2711 1.2047 1.231 1.2501 1.2055 1.2186
1938.647 1.1983 1.1688 1.25 1.2832 1.2486 1.2043 1.1869 1.197 1.2209 1.2152
1957.937 1.1547 1.1397 1.188 1.2349 1.1982 1.165 1.193 1.1917 1.1481 1.08467
1977.227 1.0067 1.03101 1.07929 1.08202 1.08679 1.00895 1.00311 1.01374 0.99598 1.01075
1996.517 0.999315 1.00083 0.9688 0.9592 0.9339 0.9068 0.9407 0.9811 1.00969 0.9207
2015.807 0.9063 0.9628 0.927 0.9423 0.9641 0.9718 0.936 0.9322 1.01515 1.01795
2035.097 0.9604 0.9612 1.01344 1.00306 0.9539 0.9783 0.99707 1.01932 1.04776 1.03518
2054.387 1.02393 1.06303 1.06699 1.04381 1.06848 1.03607 1.04678 1.08153 1.105 1.1176
2073.677 1.09762 1.04638 0.9893 0.9969 1.00328 0.99092 1.02359 1.06099 1.1337 1.1365
2092.967 1.04028 1.01978 1.00954 1.00482 0.9795 0.893 0.875 0.875 0.854 0.9
2112.257 0.9091 0.857 0.849 0.794 0.813 0.9076 0.837 0.837 0.877 0.803
2131.547 0.802 0.841 0.813 0.786 0.835 0.836 0.737 0.712 0.75 0.711
2150.837 0.695 0.688 0.679 0.73 0.779 0.761 0.725 0.761 0.771 0.762
2170.127 0.742 0.747 0.731 0.673 0.675 0.673 0.706 0.727 0.702 0.671
2189.417 0.674 0.634 0.61 0.64 0.63 0.612 0.607 0.664 0.7 0.678
2208.707 0.681 0.692 0.648 0.661 0.719 0.727 0.731 0.758 0.735 0.712
2227.997 0.719 0.729 0.78 0.79 0.759 0.728 0.68 0.64 0.657 0.703
2247.287 0.712 0.726 0.743 0.745 0.738 0.707 0.669 0.684 0.71 0.683
2266.577 0.657 0.67 0.648 0.684 0.723 0.626 0.581 0.613 0.651 0.616
2285.868 0.612 0.692 0.678 0.631 0.611 0.639 0.659 0.647 0.637 0.612
2305.158 0.656 0.659 0.589 0.624 0.645 0.613 0.608 0.621 0.679 0.714
2324.448 0.717 0.715 0.715 0.744 0.715 0.659 0.632 0.618 0.702 0.724
2343.738 0.652 0.696 0.71 0.722 0.656 0.559 0.596 0.62 0.635 0.684
2363.028 0.735 0.706 0.702 0.621 0.562 0.641 0.641 0.603 0.605 0.626
2382.318 0.614 0.569 0.601 0.618 0.567 0.563 0.597 0.608 0.582 0.558
2401.608 0.581 0.564 0.546 0.592 0.56 0.54 0.499 0.446 0.52 0.577
2420.898 0.605 0.563 0.545 0.586 0.527 0.573 0.663 0.602 0.512 0.522
2440.188 0.461 0.437 0.538 0.578 0.561 0.519 0.468 0.5 0.519 0.516
2459.478 0.568 0.506 0.47 0.499 0.495 0.546 0.601 0.62 0.602 0.621
2478.768 0.594 0.553 0.613 0.574 0.589 0.665 0.613 0.499 0.401 0.396
2498.058 0.434 0.485 0.614 0.637 0.549 0.547 0.501 0.448 0.476 0.483
2517.348 0.527 0.529 0.514 0.572 0.564 0.528 0.533 0.504 0.536 0.588
2536.638 0.474 0.391 0.384 0.411 0.54 0.552 0.437 0.397 0.42 0.458
2555.928 0.481 0.422 0.403 0.48 0.465 0.49 0.598 0.584 0.549 0.486
2575.218 0.378 0.468 0.562 0.519 0.526 0.599 0.567 0.535 0.569 0.522
2594.508 0.52 0.565 0.539 0.541 0.613 0.612 0.65 0.684 0.669 0.746
2613.798 0.695 0.641 0.697 0.689 0.666 0.632 0.649 0.687 0.661 0.576
2633.088 0.547 0.598 0.665 0.749 0.752 0.7 0.695 0.676 0.623 0.66
2652.378 0.709 0.675 0.699 0.653 0.66 0.667 0.631 0.673 0.7 0.74
2671.668 0.73 0.709 0.771 0.812 0.744 0.68 0.665 0.712 0.724 0.697
2690.958 0.767 0.825 0.875 0.9159 0.892 0.888 0.835 0.768 0.779 0.854
2710.248 0.886 0.836 0.861 0.9433 0.9039 0.888 0.9674 1.02611 1.04731 1.0183
2729.538 1.04115 1.03803 0.9849 1.01554 1.02453 1.08275 1.1336 1.1085 1.05494 1.03575
2748.828 1.09302 1.1221 1.1228 1.08315 1.06494 1.0932 1.1431 1.226 1.1735 1.1034
2768.118 1.1587 1.2921 1.324 1.2586 1.2611 1.265 1.2439 1.2659 1.3245 1.261
2787.408 1.2621 1.2614 1.2738 1.3069 1.2871 1.3691 1.3707 1.3597 1.4416 1.4427
2806.698 1.4471 1.5327 1.6631 1.7632 1.8449 1.8922 1.8972 1.9355 2.08 2.24
2825.988 2.26 2.35 2.52 2.61 2.73 2.85 3.02 3.16 3.31 3.65
2845.278 3.87 4.16 4.57 4.91 5.37 5.94 6.49 7.02 7.82 8.89
2864.568 9.88 10.9 12.01 12.95 13.93 14.9 15.73 16.36 16.59 16.71
2883.858 16.81 16.67 16.33 15.91 15.51 15.25 15.09 14.74 14.58 14.65
2903.148 14.57 14.45 14.42 14.37 14.33 14.31 14.34 14.33 14.27 14.37
2922.438 14.69 15.16 15.86 16.91 18.15 19.69 21.27 22.6 23.76 24.58
2941.728 25.01 25 24.39 23.45 22.48 21.44 20.4 19.55 18.93 18.44
2961.018 18.37 18.74 19.38 20.36 21.81 23.76 26.05 28.45 31.08 33.79
2980.308 36.04 37.73 38.9 39.42 39.14 38.17 36.52 34.37 31.92 29.24
2999.598 26.76 24.27 21.77 19.36 16.9 14.64 12.66 10.91 9.45 8.18
3018.888 7.13 6.38 5.54 4.77 4.33 4 3.68 3.43 3.14 2.82
3038.178 2.62 2.52 2.28 2.12 2.05 1.9371 1.839 1.7906 1.7788 1.5774
3057.468 1.5017 1.5344 1.5081 1.4444 1.3127 1.26 1.2573 1.2015 1.2104 1.2157
3076.758 1.1533 1.2293 1.2521 1.1942 1.07883 1.0999 1.1024 0.9826 1.00457 1.08731
3096.048 1.1219 1.05939 0.9482 0.9517 1.06288 1.04228 1.07872 1.02347 0.802 0.771
3115.338 0.885 0.875 0.897 1.0401 0.9196 0.9053 1.05658 0.9094 0.807 0.852
3134.628 0.9264 0.9515 0.884 0.726 0.569 0.492 0.502 0.505 0.523 0.635
3153.918 0.594 0.592 0.572 0.585 0.585 0.655 0.763 0.723 0.793 0.826
3173.208 0.775 0.709 0.583 0.638 0.881 0.9244 0.754 0.581 0.574 0.613
3192.498 0.689 0.824 0.863 0.758 0.589 0.6 0.684 0.648 0.604 0.562
3211.788 0.498 0.5 0.493 0.438 0.421 0.436 0.345 0.264 0.198 0.261
3231.078 0.43 0.4 0.39 0.511 0.6 0.617 0.565 0.413 0.232 0.285
3250.368 0.328 0.333 0.469 0.504 0.437 0.439 0.53 0.421 0.277 0.23
3269.658 0.194 0.127 0.192 0.371 0.338 0.311 0.333 0.092 0.059 0.22
3288.948 0.245 0.183 0.146 0.117 0.232 0.354 0.329 0.385 0.432 0.382
3308.238 0.272 0.207 0.188 0.265 0.243 0.236 0.409 0.317 0.152 0.254
3327.528 0.223 0.221 0.328 0.227 0.187 0.308 0.352 0.231 0.207 0.214
3346.818 0 0.06 0.215 0.157 0.162 0.154 0.171 0.151 0.239 0.284
3366.108 0.366 0.556 0.352 0.215 0.25 0.278 0.434 0.392 0.34 0.463
3385.398 0.377 0.234 0.267 0.4 0.31 0.284 0.323 0.238 0.225 0.25
3404.688 0.411 0.279 0.056 0.2 0.178 0.162 0.32 0.296 0.241 0.193
3423.978 0.173 0.152 0.212 0.319 0.291 0.262 0.305 0.341 0.345 0.417
3443.269 0.375 0.262 0.153 0.266 0.37 0.267 0.425 0.522 0.474 0.436
3462.559 0.436 0.525 0.507 0.524 0.701 0.674 0.532 0.627 0.812 0.765
3481.849 0.794 0.857 0.794 0.753 0.694 0.696 0.653 0.707 0.721 0.771
3501.139 0.72 0.624 0.629 0.536 0.575 0.591 0.633 0.553 0.42 0.381
3520.429 0.305 0.335 0.512 0.447 0.208 0.186 0.24 0.266 0.291 0.263
3539.719 0.199 0.235 0.265 0.264 0.323 0.35 0.253 0.161 0.263 0.351
3559.009 0.286 0.272 0.32 0.362 0.263 0.225 0.297 0.195 0.107 0.092
3578.299 0.088 0.156 0.128 0.011 0.182 0.325 0.288 0.337 0.321 0.24
3597.589 0.248 0.364 0.361 0.267 0.15 0.152 0.393 0.405 0.295 0.285
3616.879 0.156 0.145 0.356 0.383 0.381 0.498 0.518 0.394 0.345 0.367
3636.169 0.354 0.238 0.15 0.21 0.202 0.339 0.519 0.434 0.257 0.363
3655.459 0.474 0.347 0.222 0.322 0.443 0.326 0.148 0.257 0.427 0.309
3674.749 0.25 0.257 0.252 0.29 0.363 0.353 0.232 0.212 0.201 0.264
3694.039 0.388 0.391 0.262 0.146 0.116 0.077 0.131 0.27 0.322 0.317
3713.329 0.239 0.173 0.336 0.447 0.534 0.439 0.161 0.158 0.243 0.349
3732.619 0.452 0.604 0.631 0.367 0.216 0.269 0.368 0.304 0.284 0.384
3751.909 0.389 0.329 0.244 0.342 0.348 0.22 0.348 0.354 0.273 0.29
3771.199 0.243 0.225 0.388 0.442 0.373 0.372 0.413 0.403 0.385 0.499
3790.489 0.413 0.328 0.366 0.509 0.522 0.469 0.476 0.378 0.424 0.411
3809.779 0.235 0.25 0.393 0.517 0.416 0.313 0.386 0.288 0.222 0.212
3829.069 0.23 0.234 0.344 0.363 0.348 0.349 0.402 0.455 0.406 0.44
3848.359 0.376 0.324 0.392 0.539 0.45 0.422 0.479 0.29 0.189 0.253
3867.649 0.382 0.541 0.536 0.405 0.177 0.241 0.432 0.405 0.39 0.542
3886.939 0.577 0.436 0.392 0.31 0.325 0.299 0.282 0.181 0.127 0.334
3906.229 0.516 0.494 0.315 0.435 0.562 0.293 0.207 0.349 0.467 0.424
3925.519 0.253 0.303 0.427 0.428 0.405 0.54 0.488 0.353 0.364 0.346
3944.809 0.356 0.354 0.319 0.272 0.298 0.106 0.052 0.33 0.482 0.381
3964.099 0.295 0.231 0.257 0.34 0.39 0.349 0.149 0.291 0.433 0.274
3983.389 0.259 0.45 0.507 0.494 0.563 0.399 0.33 0.432 0.506 0.543
##END=
