##TITLE=N-(Hydroxymethyl)phenylacetamide
##JCAMP-DX=4.24
##DATA TYPE=INFRARED SPECTRUM
##ORIGIN=EPA-IR VAPOR PHASE LIBRARY
##OWNER=SRD/NIST
Collection (C) 2018 copyright by the U.S. Secretary of Commerce
on behalf of the United States of America. All rights reserved.
##CAS REGISTRY NO=6291-06-1
##MOLFORM=C 9 H 11 N O 2
##$NIST SOURCE=MSDC-IR
##STATE=gas
##XUNITS=1/CM
##YUNITS=ABSORBANCE
##XFACTOR=1.
##YFACTOR=0.001
##DELTAX=1.92898
##FIRSTX=549.8
##LASTX=4000.7
##FIRSTY=2.96
##MAXX=4000.7
##MINX=549.759
##MAXY=0.03433
##MINY=0
##NPOINTS=1790
##XYDATA=(X++(Y..Y))
549.759 2.96 3.74 4.19 4.39 4.94 4.91 4.67 5.03 4.74 4.5
569.049 4.72 4.66 4.32 4.06 3.73 3.22 2.7 2.42 2.5 2.32
588.339 2.4 2.4 2.16 2.24 2.01 1.97 2.02 2.03 2.09 1.73
607.628 1.55 1.8 1.96 1.89 2.09 2.06 1.82 1.7 1.64 1.8
626.918 1.78 1.65 1.73 1.81 1.76 1.79 1.79 1.67 1.59 1.49
646.208 1.38 1.41 1.53 1.48 1.37 1.55 1.78 1.87 1.89 1.95
665.498 2.1 2.11 2.21 2.64 2.64 2.57 2.83 3.19 3.69 3.91
684.787 4.28 4.74 5.12 5.54 5.85 6.49 6.96 7.17 7.14 6.97
704.077 6.98 6.78 6.63 6.44 6.1 5.81 5.56 5.53 5.57 5.56
723.367 5.56 5.76 6.06 6.17 6.37 6.62 6.64 6.63 6.54 6.18
742.657 5.72 5.34 5.08 4.78 4.26 3.66 3.46 3.24 3 2.69
761.947 2.19 2.11 2.37 2.5 2.39 2.14 2.01 2.12 2.17 2.09
781.236 1.94 1.98 2.12 2.04 1.9 2 2.11 1.89 1.85 1.92
800.526 1.95 2.06 1.93 1.74 2.01 2.28 2.16 2.12 2.08 1.97
819.816 2.03 2.12 2.07 2.16 2.18 2 1.93 2.23 2.39 2.29
839.106 2.23 2.05 1.77 1.8 2.17 2.18 2.01 2.02 1.86 1.72
858.395 1.87 1.89 1.92 1.93 1.74 1.66 1.79 1.95 1.95 1.61
877.685 1.65 1.8 1.68 1.41 1.1584 1.2716 1.245 1.2487 1.2765 1.41
896.975 1.47 1.38 1.3617 1.37 1.44 1.3498 1.3354 1.38 1.2992 1.41
916.265 1.47 1.54 1.58 1.47 1.47 1.43 1.3469 1.3034 1.1664 1.047
935.555 1.3232 1.49 1.42 1.3537 1.0911 0.8689 0.8921 0.9995 1.0802 1.1291
954.844 1.1369 1.1062 1.0388 0.9469 1.1048 1.2827 1.1968 1.2012 1.1266 0.9349
974.134 0.8508 0.862 0.7486 0.7177 0.7271 0.4961 0.36147 0.6403 0.8417 0.7054
993.424 0.7859 0.9074 0.9622 0.9763 0.9313 0.812 0.7946 0.9741 1.0423 0.7904
1012.714 0.5788 0.9236 0.9585 1.0322 1.41 1.3177 1.1924 1.2449 1.1775 0.9695
1032.003 1.0929 1.3561 1.2358 0.9294 0.7735 0.806 0.7292 0.5514 0.8714 1.2733
1051.293 0.9014 0.7675 1.0643 1.1335 1.0834 1.2696 1.54 1.56 1.67 1.77
1070.583 2.03 2.17 2.09 1.94 1.81 2.35 2.31 1.74 1.51 1.1139
1089.873 1.029 1.47 1.55 1.2808 1.38 1.39 1.0799 0.5514 0.649 0.7537
1109.163 0.863 1.2049 0.9612 1.1253 1.43 1.0986 0.8535 0.6675 0.372813 0.225
1128.452 0.224 0.3324 0.5209 0.7332 0.7002 1.2356 1.56 1.0041 0.5832 0.7035
1147.742 0.827 0.9521 1.1666 0.9275 0.6355 0.8357 1.113 1.3197 1.123 1.0351
1167.032 1.53 1.2865 1.0292 1.1843 1.1091 1.1255 1.2453 1.1362 1.1712 1.38
1186.322 1.59 1.71 1.2889 1.1053 1.3083 1.75 1.87 1.3425 1.56 1.52
1205.611 1.1999 1.1312 1.0493 1.1036 1.2183 1.42 1.2439 1.0594 1.71 1.94
1224.901 1.7 1.85 1.64 1.7 1.87 1.73 1.81 2.23 2.55 2.31
1244.191 2.27 2.53 2.63 2.54 2.58 2.67 2.75 2.92 3.06 3.1
1263.481 3.07 3.23 3.03 2.83 3.02 3 2.96 3.05 3.07 3.25
1282.771 3.38 3.35 3.49 3.64 3.7 3.66 3.76 4.02 4.15 4.31
1302.060 4.51 4.76 5.05 5.47 5.87 6.2 6.63 7.05 7.48 7.96
1321.350 8.36 8.73 9.03 9.17 9.35 9.49 9.52 9.55 9.49 9.24
1340.640 9 8.77 8.45 8.11 7.73 7.34 6.95 6.58 6.16 5.79
1359.930 5.44 5.18 4.89 4.48 4.12 3.86 3.63 3.3 3.06 2.85
1379.219 2.58 2.41 2.33 2.2 2.02 1.87 1.77 1.64 1.51 1.46
1398.509 1.43 1.38 1.34 1.3276 1.2994 1.2976 1.3648 1.3455 1.3081 1.3289
1417.799 1.3479 1.44 1.56 1.58 1.57 1.6 1.63 1.73 1.8 1.85
1437.089 1.91 1.92 1.98 1.98 1.9 2.02 2.09 2.01 1.91 1.84
1456.378 1.83 1.78 1.62 1.5 1.46 1.3339 1.1495 1.0736 1.0849 1.0861
1475.668 1.0423 1.0323 1.1713 1.3658 1.59 1.89 2.3 2.71 3 3.18
1494.958 3.24 3.25 3.18 3.08 2.93 2.61 2.1 1.56 1.1937 1.0413
1514.248 0.9657 0.8935 0.8375 0.8093 0.8212 0.8384 0.8168 0.8413 0.8833 0.906
1533.538 0.9985 1.0528 1.1451 1.2438 1.2797 1.32 1.42 1.53 1.66 1.84
1552.827 2.01 2.2 2.46 2.75 3.09 3.49 3.98 4.53 5.06 5.77
1572.117 6.63 7.51 8.41 9.35 10.26 10.92 11.39 11.68 11.68 11.54
1591.407 11.22 10.66 9.96 9.18 8.35 7.59 6.87 6.11 5.47 4.93
1610.697 4.32 3.8 3.45 3.21 2.98 2.66 2.43 2.37 2.19 2.08
1629.986 2.08 2.03 1.94 1.86 1.88 1.91 1.93 1.94 1.85 1.83
1649.276 1.93 2 2.04 2.01 1.98 2.03 2.14 2.18 2.26 2.41
1668.566 2.54 2.7 2.84 3.14 3.41 3.58 3.85 4.19 4.54 4.88
1687.856 5.32 5.82 6.33 6.91 7.63 8.33 9.06 9.93 10.88 11.98
1707.146 13.12 14.37 15.7 17.24 19.06 21.09 23.41 25.8 28.23 30.5
1726.435 32.24 33.42 34.11 34.33 33.99 33.26 32.01 29.92 27.33 24.68
1745.725 22.23 20.04 18.26 16.82 15.49 14.29 13.14 12.01 10.91 9.77
1765.015 8.67 7.62 6.66 5.83 5.08 4.49 3.89 3.47 3.15 2.78
1784.305 2.45 2.21 2.05 1.91 1.83 1.72 1.59 1.5 1.48 1.44
1803.594 1.3304 1.2964 1.2544 1.1541 1.1336 1.0673 0.969 0.9466 0.8942 0.8901
1822.884 0.8101 0.8097 0.8238 0.7574 0.813 0.7499 0.6978 0.6375 0.6054 0.6503
1842.174 0.5977 0.6037 0.6707 0.6697 0.6542 0.6637 0.688 0.6833 0.6369 0.6848
1861.464 0.7215 0.6658 0.6852 0.7767 0.7712 0.7649 0.7782 0.7461 0.7478 0.7501
1880.754 0.7056 0.7161 0.7649 0.7129 0.7109 0.7083 0.6863 0.6914 0.6969 0.6885
1900.043 0.6751 0.7071 0.688 0.6538 0.6372 0.6517 0.6342 0.5882 0.6222 0.6378
1919.333 0.6417 0.6304 0.5905 0.6108 0.6993 0.6976 0.6468 0.7323 0.7549 0.747
1938.623 0.7611 0.835 0.8356 0.737 0.7835 0.7945 0.7548 0.7849 0.7716 0.7114
1957.913 0.6802 0.647 0.6224 0.5891 0.5698 0.5348 0.4771 0.45373 0.44833 0.46307
1977.202 0.45558 0.3903 0.39352 0.44067 0.4708 0.4861 0.42455 0.3919 0.42045 0.46585
1996.492 0.46346 0.40587 0.40033 0.41056 0.42674 0.46997 0.4908 0.5003 0.40281 0.3323
2015.782 0.39402 0.41641 0.3865 0.38791 0.40235 0.42056 0.43248 0.39297 0.36283 0.342
2035.072 0.2995 0.3062 0.372555 0.40508 0.38107 0.36616 0.39954 0.44521 0.4229 0.40707
2054.362 0.41556 0.39956 0.4136 0.40391 0.3519 0.36563 0.42436 0.3481 0.3572 0.41637
2073.651 0.40723 0.379561 0.378139 0.40195 0.38536 0.38416 0.3313 0.3435 0.352 0.3411
2092.941 0.377931 0.38009 0.38255 0.36767 0.38834 0.41964 0.42407 0.41219 0.36768 0.3468
2112.231 0.3285 0.2757 0.299 0.3632 0.375608 0.39641 0.4412 0.45186 0.40081 0.40925
2131.521 0.4531 0.40436 0.369691 0.379238 0.41753 0.43132 0.3944 0.39633 0.41009 0.4257
2150.810 0.43376 0.44695 0.39938 0.36546 0.38033 0.375683 0.39051 0.42764 0.5089 0.4992
2170.100 0.427 0.45943 0.45204 0.38033 0.40941 0.46869 0.42179 0.39145 0.36747 0.40806
2189.390 0.4728 0.4016 0.40145 0.44015 0.46441 0.4747 0.41421 0.39852 0.42691 0.44225
2208.680 0.43791 0.4108 0.44791 0.5022 0.4961 0.44512 0.44597 0.38598 0.3515 0.38545
2227.970 0.41437 0.43329 0.39727 0.39115 0.4223 0.42117 0.3465 0.3177 0.3508 0.39319
2247.259 0.40921 0.4053 0.40116 0.46741 0.4795 0.4365 0.39472 0.38427 0.42894 0.372069
2266.549 0.3271 0.3583 0.41543 0.41851 0.372942 0.3539 0.38581 0.4543 0.4976 0.4848
2285.839 0.4606 0.5132 0.5197 0.45327 0.42572 0.38013 0.40235 0.43947 0.39914 0.44436
2305.129 0.4715 0.42393 0.38837 0.43186 0.42941 0.38596 0.3648 0.38943 0.45672 0.5142
2324.418 0.5262 0.5364 0.5255 0.4857 0.4959 0.5844 0.6442 0.5837 0.4879 0.44447
2343.708 0.4724 0.43187 0.40994 0.40269 0.44184 0.4856 0.42516 0.4391 0.43867 0.4525
2362.998 0.46526 0.39533 0.39003 0.3571 0.3097 0.373714 0.43876 0.42606 0.4177 0.3953
2382.288 0.3441 0.41333 0.5444 0.5234 0.44781 0.45861 0.3573 0.2843 0.319 0.3435
2401.578 0.46277 0.485 0.3591 0.3173 0.3442 0.3579 0.36878 0.39659 0.375472 0.372986
2420.867 0.45243 0.45049 0.5121 0.5349 0.44875 0.45706 0.4722 0.45501 0.42275 0.40981
2440.157 0.43821 0.41341 0.39055 0.39733 0.36467 0.38633 0.41986 0.41012 0.41112 0.3548
2459.447 0.3412 0.38011 0.3524 0.2876 0.279 0.303 0.374241 0.3989 0.3495 0.3343
2478.737 0.2862 0.2953 0.37459 0.39405 0.4337 0.4521 0.43585 0.3435 0.3314 0.41526
2498.026 0.371831 0.42484 0.5069 0.44097 0.3496 0.3322 0.39169 0.371303 0.2933 0.3092
2517.316 0.3205 0.3188 0.3564 0.36738 0.2731 0.2909 0.3537 0.3244 0.39149 0.372197
2536.606 0.3063 0.3394 0.41371 0.40965 0.3245 0.3347 0.3834 0.39367 0.373992 0.3552
2555.896 0.4076 0.43439 0.38119 0.376031 0.42707 0.42906 0.39373 0.39695 0.38672 0.4312
2575.186 0.41516 0.3183 0.3593 0.370557 0.42077 0.43008 0.38009 0.42432 0.3337 0.2984
2594.475 0.43067 0.46262 0.44635 0.4818 0.46258 0.39741 0.36444 0.38819 0.42848 0.39631
2613.765 0.3456 0.3256 0.3313 0.393 0.38607 0.38548 0.38983 0.40644 0.45239 0.46733
2633.055 0.5231 0.5136 0.43235 0.3159 0.247 0.3027 0.38629 0.4706 0.5171 0.46612
2652.345 0.36643 0.3211 0.3248 0.3036 0.2972 0.4782 0.5779 0.46002 0.41044 0.43545
2671.634 0.42374 0.36467 0.41831 0.505 0.5027 0.45101 0.3249 0.21 0.238 0.344
2690.924 0.3528 0.39718 0.42447 0.39351 0.36357 0.254 0.2974 0.36391 0.36508 0.36174
2710.214 0.3244 0.42382 0.5086 0.41912 0.40848 0.44953 0.41649 0.40952 0.3182 0.3449
2729.504 0.43596 0.38917 0.42305 0.42244 0.3946 0.40676 0.46169 0.43802 0.3423 0.377142
2748.794 0.377861 0.36305 0.303 0.242 0.3169 0.3546 0.36141 0.5254 0.5637 0.42757
2768.083 0.38222 0.3899 0.43466 0.45195 0.5041 0.4863 0.40349 0.321 0.3405 0.42303
2787.373 0.36507 0.4192 0.4908 0.356 0.375518 0.5433 0.5563 0.4907 0.4796 0.515
2806.663 0.4804 0.46031 0.569 0.5672 0.45859 0.5122 0.5433 0.4887 0.5011 0.5874
2825.953 0.6523 0.6714 0.6981 0.6187 0.5753 0.6377 0.6029 0.6193 0.6993 0.6035
2845.242 0.4985 0.6164 0.6305 0.5487 0.5771 0.534 0.5838 0.7171 0.7141 0.8186
2864.532 0.8081 0.6414 0.5981 0.6243 0.6944 0.5829 0.5638 0.6157 0.6196 0.7416
2883.822 0.8232 0.8459 0.9076 0.9104 0.7631 0.7862 0.9456 0.9069 0.7845 0.8696
2903.112 0.9873 1.0143 1.1019 1.1735 1.38 1.47 1.43 1.41 1.42 1.51
2922.401 1.56 1.76 1.96 1.99 1.9 1.83 1.9 1.87 1.76 1.78
2941.691 1.74 1.7 1.73 1.64 1.56 1.52 1.55 1.52 1.38 1.3231
2960.981 1.42 1.3271 1.1638 1.1387 1.017 0.9502 0.9224 0.9791 0.9794 0.8429
2980.271 0.6548 0.6512 0.8596 0.7626 0.6569 0.7232 0.7381 0.7663 0.7613 0.8286
2999.561 0.9391 0.9832 1.0098 1.124 1.3183 1.43 1.52 1.61 1.89 2.21
3018.850 2.33 2.42 2.74 3.1 3.49 3.75 3.78 4.02 4.09 4.06
3038.140 4.15 4.03 3.72 3.54 3.38 3.05 2.84 2.67 2.5 2.57
3057.430 2.7 2.94 3.3 3.55 3.71 3.92 4.22 4.43 4.36 4.34
3076.720 4.39 4.22 3.89 3.68 3.44 3.03 2.65 2.43 2.37 2.19
3096.009 2.03 1.99 1.96 1.9 1.76 1.63 1.52 1.3242 1.1669 1.1351
3115.299 1.0182 1.0281 1.0126 0.7991 0.7484 0.5942 0.5037 0.5915 0.6446 0.705
3134.589 0.6571 0.6162 0.7349 0.6458 0.3505 0.2788 0.3426 0.40781 0.43113 0.5064
3153.879 0.4738 0.42642 0.4533 0.5235 0.549 0.4729 0.5004 0.5073 0.5092 0.5623
3173.169 0.6155 0.5991 0.5003 0.42621 0.39752 0.5285 0.5975 0.45731 0.4818 0.5768
3192.458 0.4722 0.239 0.38757 0.6198 0.5046 0.5016 0.5786 0.5198 0.3118 0.2771
3211.748 0.40798 0.4755 0.38314 0.3287 0.3391 0.2976 0.3238 0.266 0.14 0.2715
3231.038 0.4774 0.2773 0.142 0.3514 0.41137 0.4921 0.5261 0.38323 0.370856 0.43499
3250.328 0.5156 0.45709 0.46612 0.4774 0.40614 0.3418 0.3262 0.372779 0.378912 0.40824
3269.617 0.376746 0.379736 0.46142 0.43462 0.36216 0.41367 0.3205 0.3112 0.43245 0.2843
3288.907 0.213 0.36084 0.37219 0.38183 0.379693 0.4283 0.4951 0.44542 0.42335 0.42966
3308.197 0.43281 0.2965 0.2868 0.36485 0.3528 0.38928 0.3296 0.266 0.42402 0.42753
3327.487 0.2854 0.257 0.3522 0.42681 0.44762 0.526 0.5775 0.6023 0.6745 0.6187
3346.777 0.552 0.5643 0.525 0.42649 0.41321 0.46886 0.5163 0.44647 0.214 0.142
3366.066 0.288 0.45314 0.5696 0.5544 0.5657 0.6083 0.798 1.0078 0.8349 0.8011
3385.356 0.8091 0.8083 0.9414 0.9675 0.9553 1.0924 1.2201 1.1558 1.2967 1.42
3404.646 1.52 1.74 1.84 1.89 1.89 1.99 2.18 2.4 2.7 2.79
3423.936 2.75 2.76 2.8 2.9 3.07 3.06 3.01 2.95 2.79 2.66
3443.225 2.42 2.21 2 1.76 1.72 1.66 1.45 1.3422 1.2695 1.2079
3462.515 1.1395 1.0822 1.1975 1.1566 1.0657 1.0954 1.1033 1.0735 1.0506 0.8956
3481.805 0.7378 0.9003 1.0607 1.1071 1.0624 1.2359 1.47 1.54 1.58 1.6
3501.095 1.59 1.46 1.43 1.57 1.65 1.64 1.73 1.77 1.92 2.28
3520.385 2.35 2.33 2.43 2.69 2.84 2.82 3.07 3.28 3.28 3.39
3539.674 3.7 3.9 4.07 4.19 4.14 4.09 4.07 4.01 3.76 3.4
3558.964 3.11 2.75 2.31 2.02 1.73 1.48 1.4 1.2524 1.1997 1.1108
3578.254 0.9239 1.0035 0.8896 0.631 0.5617 0.5747 0.4892 0.43393 0.45052 0.45847
3597.544 0.5033 0.6433 0.5757 0.373097 0.40876 0.374133 0.41774 0.5557 0.5781 0.5112
3616.833 0.46892 0.44266 0.39661 0.41859 0.4173 0.3376 0.246 0.2989 0.43717 0.3383
3636.123 0.3047 0.40314 0.38457 0.3288 0.40572 0.5441 0.44897 0.3578 0.3384 0.262
3655.413 0.37261 0.4938 0.41866 0.369317 0.3205 0.204 0.3197 0.379202 0.176 0.2786
3674.703 0.504 0.5643 0.5091 0.39545 0.3459 0.2987 0.2886 0.374486 0.41198 0.5099
3693.993 0.40087 0.245 0.369547 0.372209 0.207 0.2952 0.38678 0.40001 0.4997 0.5816
3713.282 0.4737 0.2743 0.27 0.182 0.155 0.2946 0.44088 0.372805 0.221 0.3449
3732.572 0.3975 0.246 0.3311 0.42886 0.259 0.231 0.37547 0.3456 0.262 0.3362
3751.862 0.45522 0.377981 0.3061 0.2927 0.2714 0.23 0.179 0.214 0.3271 0.42588
3771.152 0.46058 0.5264 0.5816 0.5664 0.5423 0.42592 0.42457 0.40096 0.3105 0.3577
3790.441 0.264 0.242 0.4797 0.4808 0.46278 0.5139 0.226 0.253 0.45885 0.36105
3809.731 0.43432 0.4736 0.39337 0.45457 0.45393 0.3867 0.3467 0.2895 0.199 0.3226
3829.021 0.378807 0.3119 0.3318 0.333 0.338 0.379947 0.3533 0.39975 0.5008 0.2952
3848.311 0.072 0.227 0.46447 0.42552 0.45399 0.371724 0.254 0.28 0.133 0
3867.601 0.153 0.41324 0.41642 0.4988 0.6491 0.5758 0.3968 0.3205 0.3562 0.2996
3886.890 0.189 0.3235 0.357 0.252 0.3251 0.3301 0.43008 0.40477 0.2735 0.379954
3906.180 0.40529 0.36061 0.2876 0.229 0.36944 0.43505 0.269 0.244 0.2934 0.187
3925.470 0.095 0.146 0.114 0.3331 0.43545 0.2947 0.3145 0.3128 0.38736 0.218
3944.760 0.149 0.2737 0.252 0.3039 0.46862 0.5622 0.5127 0.40537 0.36478 0.370624
3964.049 0.45691 0.5127 0.5957 0.6128 0.5751 0.4906 0.3305 0.3436 0.281 0.2717
3983.339 0.3418 0.46292 0.5482 0.3487 0.221 0.3574 0.4833 0.40905 0.2821 0.3082
##END=
