##TITLE=Bis-2-chloroethyl-2-chloroethylphosphon
##JCAMP-DX=4.24
##DATA TYPE=INFRARED SPECTRUM
##ORIGIN=NIST Mass Spectrometry Data Center
##OWNER=NIST Standard Reference Data Program
Collection (C) 2018 copyright by the U.S. Secretary of Commerce
on behalf of the United States of America. All rights reserved.
##CAS REGISTRY NO=6294-34-4
##MOLFORM=C 6 H 12 Cl 3 O 3 P
##$NIST SOURCE=MSDC-IR
##SPECTROMETER/DATA SYSTEM=HP-GC/MS/IRD
##STATE=gas
##XUNITS=1/CM
##YUNITS=ABSORBANCE
##XFACTOR=1.0
##YFACTOR=0.000024800
##DELTAX=4.0
##FIRSTX=550.0
##LASTX=3846.0
##FIRSTY=0.018848
##MAXX=3846
##MINX=550
##MAXY=0.248
##MINY=0
##NPOINTS=825
##XYDATA=(X++(Y..Y))
550.0 760 484 297 214 146 100 72 52 36 23
590.0 9 1 2 2 2 6 12 20 30 46
630.0 66 91 131 188 269 371 478 567 644 745
670.0 911 1111 1257 1259 1129 979 889 857 843 821
710.0 779 729 691 686 715 774 828 866 900 971
750.0 1107 1291 1462 1571 1616 1630 1643 1652 1640 1609
790.0 1589 1604 1650 1713 1761 1775 1764 1758 1773 1805
830.0 1850 1912 1973 2013 2013 1957 1860 1755 1663 1586
870.0 1518 1456 1406 1382 1411 1509 1674 1889 2124 2340
910.0 2520 2649 2714 2716 2688 2693 2806 3030 3241 3304
950.0 3221 3120 3092 3088 2979 2708 2363 2110 2052 2212
990.0 2594 3216 4116 5303 6691 8077 9193 9860 10000 9623
1030.0 8882 8035 7286 6650 6046 5536 5364 5727 6537 7408
1070.0 7932 7965 7643 7154 6576 5908 5157 4351 3556 2847
1110.0 2272 1838 1528 1297 1117 969 849 752 671 604
1150.0 554 517 488 471 468 478 506 556 635 742
1190.0 881 1048 1209 1312 1346 1345 1305 1190 1017 871
1230.0 797 796 866 1018 1282 1676 2167 2656 3073 3447
1270.0 3818 4173 4414 4393 4031 3502 3105 2990 3104 3281
1310.0 3312 3040 2486 1836 1281 900 668 524 428 363
1350.0 316 283 261 246 240 245 268 320 394 453
1390.0 454 410 373 362 360 358 354 344 344 387
1430.0 490 604 651 617 566 567 585 559 488 406
1470.0 337 281 232 194 160 133 109 90 75 64
1510.0 55 48 42 38 33 28 23 20 16 13
1550.0 11 10 9 7 6 4 6 3 4 4
1590.0 4 3 2 2 3 2 2 1 1 2
1630.0 1 0 0 1 1 0 1 2 4 5
1670.0 7 8 9 9 11 13 14 16 18 20
1710.0 22 25 28 31 33 35 34 35 35 34
1750.0 34 36 37 39 41 44 46 48 49 50
1790.0 53 55 54 55 56 57 58 59 60 62
1830.0 64 65 68 70 72 72 71 70 67 63
1870.0 59 56 51 46 43 39 35 31 27 24
1910.0 21 20 18 17 15 13 11 10 9 7
1950.0 8 7 6 7 6 7 8 7 8 11
1990.0 12 13 13 15 17 19 21 21 23 24
2030.0 23 24 23 22 20 19 18 17 15 16
2070.0 16 15 15 14 13 14 13 14 15 16
2110.0 16 15 15 13 11 9 8 8 7 6
2150.0 4 3 2 1 2 1 0 1 1 2
2190.0 3 2 4 5 6 7 8 10 11 12
2230.0 11 12 13 11 9 8 7 6 7 7
2270.0 6 5 5 4 3 4 4 4 3 3
2310.0 4 3 3 4 3 4 4 5 4 6
2350.0 6 6 5 5 6 7 7 8 7 8
2390.0 8 7 7 7 6 6 4 3 4 3
2430.0 2 2 1 2 3 4 3 3 4 5
2470.0 6 7 8 9 10 10 11 12 13 13
2510.0 12 13 14 14 13 12 12 10 8 8
2550.0 7 6 5 4 3 3 1 0 0 2
2590.0 1 0 0 0 0 0 1 0 1 2
2630.0 3 2 2 1 0 2 3 2 3 5
2670.0 6 6 7 9 10 12 13 15 17 20
2710.0 24 26 27 27 26 27 32 37 44 50
2750.0 56 60 56 49 41 34 28 24 21 19
2790.0 18 18 19 21 23 24 28 32 38 44
2830.0 51 59 71 84 100 117 129 137 141 151
2870.0 168 197 242 300 367 428 458 457 440 433
2910.0 443 451 448 444 459 503 573 653 726 778
2950.0 813 857 954 1129 1323 1441 1475 1460 1362 1165
2990.0 933 745 621 552 527 514 474 404 328 263
3030.0 210 173 146 123 104 89 78 67 59 52
3070.0 44 38 35 32 30 28 26 23 20 17
3110.0 15 14 13 14 13 10 9 10 11 13
3150.0 11 9 10 10 9 10 9 9 8 7
3190.0 8 8 7 8 9 10 11 12 10 10
3230.0 11 11 10 10 10 10 8 8 8 7
3270.0 9 9 8 7 8 9 7 6 4 6
3310.0 7 7 7 4 4 6 5 6 5 4
3350.0 5 5 2 1 5 5 4 3 4 5
3390.0 5 4 3 4 5 6 6 5 6 7
3430.0 7 4 4 5 5 6 6 5 6 6
3470.0 5 6 5 5 7 8 6 5 6 6
3510.0 6 7 6 4 6 7 5 4 4 6
3550.0 4 4 5 5 3 4 5 5 4 2
3590.0 2 2 4 6 7 7 6 7 8 7
3630.0 9 11 12 12 11 12 13 12 11 11
3670.0 12 13 12 13 12 13 12 13 11 10
3710.0 12 13 13 11 12 13 14 13 14 15
3750.0 12 13 12 12 13 14 13 12 10 8
3790.0 9 8 9 11 11 9 7 9 8 7
3830.0 8 9 10 10 9
##END=
