##TITLE=Di-n-hexyl sulfide
##JCAMP-DX=4.24
##DATA TYPE=INFRARED SPECTRUM
##ORIGIN=EPA-IR VAPOR PHASE LIBRARY
##OWNER=SRD/NIST
Collection (C) 2018 copyright by the U.S. Secretary of Commerce
on behalf of the United States of America. All rights reserved.
##CAS REGISTRY NO=6294-31-1
##MOLFORM=C 12 H 26 S
##$NIST SOURCE=MSDC-IR
##STATE=gas
##XUNITS=1/CM
##YUNITS=ABSORBANCE
##XFACTOR=1.
##YFACTOR=0.001
##DELTAX=3.85796
##FIRSTX=501.5
##LASTX=4000.7
##FIRSTY=0.7615
##MAXX=4000.7
##MINX=501.534
##MAXY=0.129669
##MINY=0
##NPOINTS=908
##XYDATA=(X++(Y..Y))
501.534 0.7615 0.39152 0.4483 0.4934 0.2851 0.267 0.37359 0.39219 0.40069 0.33476
540.114 0.2883 0.2871 0.2736 0.2944 0.2796 0.33867 0.33082 0.3144 0.320447 0.2977
578.693 0.2759 0.166 0.171 0.2196 0.2219 0.205 0.2349 0.2935 0.3033 0.34857
617.273 0.4192 0.438 0.38889 0.3801 0.4373 0.5495 0.6316 0.5595 0.5519 0.5342
655.852 0.5329 0.5918 0.59 0.5925 0.649 0.7279 0.8093 0.8585 0.9458 1.0665
694.432 1.1805 1.2724 1.469 1.759 1.989 2.269 2.569 2.819 3.059 3.289
733.011 3.449 3.509 3.439 3.259 2.999 2.759 2.579 2.409 2.219 2.029
771.591 1.839 1.789 1.729 1.699 1.649 1.619 1.609 1.529 1.479 1.389
810.170 1.359 1.349 1.2778 1.2324 1.2042 1.1741 1.0848 1.0444 1.1195 1.1483
848.750 1.1836 1.2787 1.3051 1.2864 1.2171 1.1643 1.1837 1.1532 1.1304 1.1587
887.330 1.2034 1.2076 1.1323 1.1116 1.1074 1.0784 1.0989 1.0938 1.0844 1.0952
925.909 1.031 0.8964 0.7716 0.6879 0.6637 0.6965 0.7924 0.9051 0.9759 1.059
964.489 1.1386 1.1316 1.1199 1.1393 1.1697 1.2088 1.18 1.1985 1.2266 1.1496
1003.068 1.0556 0.9704 0.9516 0.8997 0.8575 0.861 0.9257 0.9421 0.8718 0.9044
1041.648 0.9671 0.9484 0.9003 0.9303 0.8944 0.8211 0.8575 0.8573 0.8733 0.9673
1080.227 1.0854 1.1766 1.1405 1.1234 1.2227 1.3155 1.311 1.2893 1.202 1.0638
1118.807 0.9906 0.9711 0.8773 0.7763 0.7528 0.7658 0.7943 0.8933 0.9855 1.0415
1157.387 1.1144 1.2151 1.339 1.509 1.649 1.709 1.709 1.799 1.949 2.139
1195.966 2.359 2.589 2.909 3.209 3.459 3.429 3.299 3.389 3.699 4.229
1234.546 5.009 5.829 6.419 6.699 6.819 6.939 6.949 6.839 6.539 6.269
1273.125 6.219 6.399 6.779 7.039 7.009 6.749 6.409 6.049 5.669 5.189
1311.705 4.669 4.169 3.759 3.519 3.469 3.679 4.069 4.469 4.809 4.979
1350.284 4.939 4.739 4.459 4.209 4.049 3.989 4.079 4.399 4.759 4.819
1388.864 4.439 3.869 3.449 3.239 3.219 3.359 3.689 4.209 4.849 5.509
1427.443 6.199 7.049 8.099 9.159 10.009 10.699 11.409 12.129 12.639 12.649
1466.023 12.019 10.789 9.089 7.289 5.749 4.549 3.679 3.069 2.619 2.269
1504.603 1.979 1.759 1.589 1.409 1.2779 1.1805 1.0928 1.0185 0.9587 0.9067
1543.182 0.8634 0.8069 0.753 0.7106 0.6837 0.6749 0.6584 0.6247 0.6135 0.6152
1581.762 0.6152 0.612 0.5915 0.5898 0.5784 0.5422 0.5328 0.5366 0.532 0.5342
1620.341 0.5186 0.5101 0.5161 0.5117 0.5053 0.4879 0.4904 0.4807 0.4728 0.4839
1658.921 0.4799 0.4762 0.4645 0.4598 0.448 0.4366 0.4494 0.4301 0.39588 0.39334
1697.500 0.38773 0.3591 0.35862 0.37531 0.37174 0.38107 0.36275 0.318493 0.3027 0.3025
1736.080 0.3033 0.3107 0.3088 0.2906 0.278 0.2879 0.2811 0.2732 0.279 0.2914
1774.659 0.2839 0.2531 0.2552 0.2629 0.28 0.2703 0.2547 0.2705 0.2756 0.2802
1813.239 0.2812 0.2708 0.2795 0.2905 0.2591 0.2371 0.2522 0.2574 0.2601 0.2716
1851.819 0.2636 0.2502 0.2538 0.242 0.2297 0.236 0.2231 0.2283 0.2368 0.2412
1890.398 0.254 0.2412 0.231 0.2452 0.2543 0.2474 0.2551 0.2593 0.2591 0.2554
1928.978 0.2435 0.2544 0.2767 0.2808 0.2831 0.2661 0.2536 0.2616 0.2686 0.2778
1967.557 0.2647 0.2491 0.2731 0.3044 0.3069 0.2889 0.2807 0.297 0.32923 0.35467
2006.137 0.35284 0.33589 0.34746 0.37935 0.38221 0.39471 0.4194 0.4197 0.41143 0.41729
2044.716 0.41732 0.41049 0.40592 0.40343 0.39026 0.38018 0.39553 0.39258 0.38451 0.37849
2083.296 0.36581 0.35979 0.34375 0.34706 0.3551 0.36133 0.36846 0.3693 0.36683 0.3628
2121.875 0.37999 0.37932 0.37096 0.37652 0.36162 0.3672 0.36663 0.36373 0.37623 0.38809
2160.455 0.4006 0.39743 0.38952 0.39811 0.41009 0.38878 0.36409 0.35419 0.34984 0.35609
2199.035 0.35542 0.34616 0.36834 0.37174 0.36258 0.36813 0.37099 0.3675 0.35844 0.3613
2237.614 0.37282 0.37743 0.36356 0.35488 0.35385 0.34103 0.31529 0.31123 0.31667 0.328648
2276.194 0.34221 0.327899 0.324465 0.34042 0.3403 0.34481 0.35906 0.36328 0.372 0.34389
2314.773 0.33775 0.37154 0.36529 0.37467 0.39622 0.40589 0.409 0.41172 0.4295 0.41472
2353.353 0.38789 0.39977 0.40865 0.39608 0.37289 0.36134 0.36607 0.38126 0.38263 0.36908
2391.932 0.37516 0.3661 0.35646 0.37681 0.40236 0.40827 0.4209 0.4264 0.38792 0.37373
2430.512 0.41204 0.40578 0.38066 0.37974 0.37421 0.39181 0.39554 0.36594 0.35722 0.34641
2469.092 0.33094 0.33211 0.3334 0.34374 0.35169 0.36146 0.37977 0.37569 0.37136 0.37716
2507.671 0.3829 0.40885 0.4344 0.4558 0.4789 0.4839 0.4829 0.5209 0.5692 0.5856
2546.251 0.5743 0.5704 0.5744 0.5681 0.5656 0.5759 0.5952 0.6015 0.6411 0.697
2584.830 0.7036 0.7066 0.7156 0.7418 0.8013 0.8243 0.8628 0.9096 0.9387 0.9798
2623.410 0.9968 1.0327 1.0673 1.0835 1.1205 1.1792 1.2323 1.2637 1.298 1.349
2661.989 1.379 1.409 1.489 1.559 1.599 1.609 1.599 1.569 1.549 1.539
2700.569 1.499 1.499 1.519 1.499 1.519 1.529 1.579 1.669 1.749 1.829
2739.148 1.929 2.039 2.099 2.119 2.149 2.149 2.169 2.229 2.309 2.449
2777.728 2.619 2.849 3.109 3.379 3.669 3.979 4.309 4.689 5.179 5.749
2816.308 6.479 7.349 8.379 9.639 11.099 12.829 15.109 18.299 22.619 28.159
2854.887 34.529 40.509 44.649 46.389 46.159 44.959 43.889 43.059 41.859 40.339
2893.467 39.579 40.879 44.609 50.589 58.499 68.119 79.459 92.529 106.649 119.599
2932.046 127.989 129.669 125.379 117.009 106.099 94.519 85.129 79.939 78.229 76.439
2970.626 70.279 58.769 45.139 33.639 25.579 20.129 16.389 13.629 11.549 9.979
3009.205 8.709 7.689 6.879 6.219 5.659 5.179 4.799 4.439 4.049 3.689
3047.785 3.459 3.189 2.929 2.769 2.609 2.439 2.319 2.219 2.169 2.109
3086.364 1.979 1.879 1.859 1.829 1.759 1.659 1.589 1.529 1.469 1.419
3124.944 1.329 1.2636 1.2746 1.2467 1.1819 1.1508 1.0908 1.0487 1.0705 1.0539
3163.524 0.9901 0.951 0.9459 0.9219 0.9373 0.962 0.8665 0.7911 0.7846 0.751
3202.103 0.6841 0.6188 0.5967 0.5598 0.516 0.499 0.459 0.39542 0.35413 0.36706
3240.683 0.39098 0.3801 0.33441 0.299 0.2905 0.3041 0.322125 0.322366 0.2799 0.2474
3279.262 0.2262 0.204 0.236 0.222 0.185 0.2192 0.2601 0.2298 0.166 0.2212
3317.842 0.2247 0.146 0.188 0.215 0.173 0.17 0.171 0.126 0.1 0.132
3356.421 0.139 0.137 0.2 0.211 0.159 0.16 0.199 0.2322 0.2 0.154
3395.001 0.16 0.168 0.161 0.11 0.111 0.142 0.161 0.179 0.151 0.13
3433.580 0.108 0.069 0.091 0.125 0.13 0.115 0.077 0.05 0.03 0.026
3472.160 0.03 0.033 0.055 0.065 0.066 0.029 0.031 0.069 0.027 0.006
3510.740 0.039 0.043 0.075 0.1 0.065 0.056 0.069 0.056 0.048 0.065
3549.319 0.013 0 0.028 0.005 0.056 0.131 0.143 0.132 0.097 0.101
3587.899 0.109 0.12 0.135 0.133 0.171 0.191 0.191 0.2246 0.2391 0.2452
3626.478 0.2575 0.2 0.201 0.2495 0.2783 0.233 0.207 0.2698 0.2566 0.2376
3665.058 0.2491 0.2211 0.2608 0.2894 0.2387 0.2794 0.3405 0.2908 0.2466 0.2663
3703.637 0.2905 0.2891 0.2269 0.198 0.17 0.196 0.2488 0.2247 0.203 0.198
3742.217 0.2619 0.2783 0.2378 0.2257 0.217 0.24 0.2382 0.2 0.18 0.186
3780.797 0.2589 0.2841 0.2728 0.2545 0.2272 0.2535 0.2534 0.2688 0.2703 0.2534
3819.376 0.2503 0.21 0.195 0.2416 0.2928 0.2451 0.162 0.185 0.197 0.216
3857.956 0.2324 0.215 0.2321 0.263 0.2486 0.215 0.217 0.2678 0.3023 0.3548
3896.535 0.322384 0.217 0.2306 0.2636 0.2301 0.2193 0.2556 0.2803 0.2476 0.177
3935.115 0.202 0.2402 0.2271 0.199 0.199 0.2512 0.31311 0.35856 0.37398 0.35908
3973.694 0.36474 0.319584 0.2807 0.34551 0.34257 0.2792 0.2938 0.33504
##END=
