##TITLE=4-Methylcyclohexanebromide
##JCAMP-DX=4.24
##DATA TYPE=INFRARED SPECTRUM
##ORIGIN=EPA-IR VAPOR PHASE LIBRARY
##OWNER=SRD/NIST
Collection (C) 2018 copyright by the U.S. Secretary of Commerce
on behalf of the United States of America. All rights reserved.
##CAS REGISTRY NO=6294-40-2
##MOLFORM=C 7 H 13 Br
##$NIST SOURCE=MSDC-IR
##STATE=gas
##XUNITS=1/CM
##YUNITS=ABSORBANCE
##XFACTOR=1.
##YFACTOR=0.001
##DELTAX=1.92898
##FIRSTX=549.8
##LASTX=4000.7
##FIRSTY=0.4418
##MAXX=4000.7
##MINX=549.759
##MAXY=0.13725
##MINY=0
##NPOINTS=1790
##XYDATA=(X++(Y..Y))
549.759 0.4418 0.2627 0.275 0.3202 0.3531 0.3951 0.22938 0.0821 0.0475 0.0619
569.049 0.0918 0.0713 0.0956 0.2919 0.3172 0.2407 0.3526 0.6127 0.7568 0.868
588.339 0.9854 0.9924 1.17 1.4 1.7 2.02 2.22 2.33 2.28 2.14
607.628 2.05 2.14 2.01 1.6 1.15 0.7551 0.5617 0.3919 0.2793 0.19445
626.918 0.12716 0.132463 0.133917 0.0964 0.130681 0.139049 0.1071 0.14959 0.14721 0.20181
646.208 0.2895 0.4203 0.5642 0.7144 0.965 1.29 1.6 1.8 1.98 2.21
665.498 2.27 2.27 2.55 2.88 3.12 3.53 4.11 4.91 5.78 6.43
684.787 6.94 7.64 8.11 8.18 8.64 8.99 8.67 8.27 8.35 8.96
704.077 9.79 10.4 10.5 10.28 9.96 9.5 8.78 7.68 6.2 4.5
723.367 2.89 1.82 1.27 0.886 0.6773 0.5647 0.45 0.4097 0.3704 0.3357
742.657 0.3613 0.3345 0.3226 0.4501 0.6145 0.7219 0.841 0.9161 1.0209 1.1274
761.947 1.21 1.38 1.43 1.35 1.35 1.46 1.61 1.78 1.85 1.77
781.236 1.68 1.61 1.42 1.2 1.0258 0.7408 0.484 0.3028 0.21387 0.22972
800.526 0.20302 0.2516 0.3291 0.3238 0.3617 0.4063 0.4302 0.5689 0.7095 0.8566
819.816 1.18 1.59 2.05 2.61 3.27 3.98 4.8 5.68 6.54 7.38
839.106 8.09 8.55 8.85 9.2 9.47 9.59 9.49 9.07 8.58 8.05
858.395 7.43 6.92 6.46 5.96 5.37 4.67 4.05 3.49 3.1 2.86
877.685 2.56 2.26 2.01 1.72 1.53 1.3 1.008 0.9043 0.8118 0.6202
896.975 0.4591 0.4596 0.493 0.4089 0.4381 0.601 0.6029 0.6354 0.773 0.8275
916.265 0.8716 0.9809 1.0582 1.15 1.26 1.37 1.57 1.82 2.04 2.24
935.555 2.56 2.91 3.3 3.85 4.48 5.13 5.71 6.25 6.83 7.46
954.844 8.03 8.47 8.77 8.86 8.82 8.61 8.27 7.99 7.59 6.85
974.134 6.02 5.29 4.71 4.37 4.17 3.99 3.9 3.94 3.89 3.67
993.424 3.5 3.48 3.44 3.29 3.14 2.96 2.78 2.68 2.58 2.74
1012.714 2.85 3.03 3.5 3.73 3.98 4.36 4.57 4.64 4.52 4.33
1032.003 4.07 3.75 3.36 2.8 2.42 2.23 1.95 1.66 1.56 1.51
1051.293 1.34 1.14 1.16 1.14 1.21 1.31 1.28 1.34 1.31 1.32
1070.583 1.32 1.41 1.53 1.54 1.64 1.77 1.7 1.81 1.95 1.95
1089.873 2.27 2.65 2.91 3 3.14 3.44 3.67 3.82 3.88 3.85
1109.163 3.83 3.65 3.44 3.57 3.74 3.73 3.68 3.42 3.13 3.05
1128.452 2.96 2.63 2.3 2.14 1.85 1.67 1.67 1.54 1.56 1.68
1147.742 1.67 1.56 1.56 1.64 1.68 1.68 1.73 1.75 1.83 2.03
1167.032 2.28 2.57 2.93 3.73 4.76 5.95 7.48 9.18 11.07 13.15
1186.322 14.95 16.22 17 17.27 17.07 16.28 15.15 13.83 11.99 10.02
1205.611 8.27 6.95 6.05 5.3 4.87 4.62 4.32 4.19 4.11 4.17
1224.901 4.41 4.67 5.28 6.3 7.77 9.97 12.86 15.99 18.73 20.95
1244.191 23.18 25.52 27.19 28.04 28.24 27.51 26.04 23.62 20.87 18.8
1263.481 16.51 13.85 11.37 9.27 7.72 6.46 5.32 4.45 3.82 3.43
1282.771 3.24 3.12 3.08 3.09 3.13 3.32 3.63 3.94 4.34 4.82
1302.060 5.29 5.63 5.83 5.97 6.03 5.96 5.86 5.81 5.63 5.22
1321.350 4.73 4.3 3.97 3.77 3.65 3.63 3.71 3.87 4.09 4.42
1340.640 4.87 5.44 6.09 6.77 7.41 7.82 7.99 8.06 8.09 8.05
1359.930 8.02 7.87 7.45 6.91 6.44 6.13 6.04 6.17 6.42 6.67
1379.219 6.87 7.07 7.15 7.07 6.9 6.55 5.98 5.26 4.51 3.84
1398.509 3.33 2.95 2.69 2.54 2.53 2.63 2.8 3.06 3.44 3.94
1417.799 4.57 5.36 6.25 7.23 8.36 9.52 10.72 11.93 13.23 14.68
1437.089 16.29 17.91 19.36 20.67 21.96 23.08 24.13 24.99 25.23 25.11
1456.378 24.85 24.24 23.15 21.75 20.26 18.58 16.75 14.87 13.05 11.22
1475.668 9.54 8.03 6.67 5.43 4.39 3.6 2.94 2.39 2.03 1.75
1494.958 1.53 1.37 1.23 1.1168 1.0009 0.9299 0.8789 0.779 0.7063 0.6846
1514.248 0.6448 0.5862 0.5745 0.5634 0.5065 0.4661 0.4312 0.4342 0.4461 0.4267
1533.538 0.4112 0.3849 0.3809 0.3663 0.3627 0.3661 0.3591 0.3737 0.343 0.3222
1552.827 0.3747 0.3912 0.3951 0.4083 0.3749 0.3519 0.3275 0.302 0.3428 0.3578
1572.117 0.342 0.3334 0.3214 0.3407 0.3688 0.3336 0.2944 0.3229 0.3075 0.2831
1591.407 0.2752 0.2519 0.2668 0.2555 0.2708 0.2894 0.2828 0.2989 0.31 0.3029
1610.697 0.2976 0.307 0.3022 0.3023 0.2884 0.2724 0.2694 0.2768 0.316 0.3075
1629.986 0.2855 0.3196 0.3406 0.3324 0.331 0.3365 0.3491 0.3691 0.3466 0.3332
1649.276 0.325 0.3203 0.3323 0.2983 0.2577 0.2674 0.2864 0.2757 0.2963 0.3182
1668.566 0.3036 0.2779 0.2963 0.3336 0.333 0.3427 0.328 0.3121 0.3301 0.3326
1687.856 0.3085 0.3221 0.3272 0.342 0.3371 0.2632 0.2777 0.3005 0.2788 0.2563
1707.146 0.2523 0.2622 0.2318 0.20055 0.19976 0.17812 0.16825 0.18401 0.16452 0.14222
1726.435 0.132251 0.138506 0.1071 0.0808 0.134796 0.15577 0.12 0.133546 0.15968 0.14802
1745.725 0.12428 0.0893 0.1095 0.1101 0.0895 0.12754 0.16618 0.15481 0.14742 0.16243
1765.015 0.16693 0.17804 0.18593 0.19242 0.2052 0.20426 0.20223 0.18564 0.1438 0.137472
1784.305 0.138822 0.1566 0.16234 0.15729 0.16664 0.18243 0.19289 0.18145 0.19104 0.19423
1803.594 0.17556 0.15228 0.14727 0.16488 0.16052 0.17224 0.20725 0.19109 0.16644 0.15189
1822.884 0.15153 0.1582 0.15123 0.14386 0.16898 0.17641 0.17662 0.20484 0.20792 0.1983
1842.174 0.19089 0.17579 0.18276 0.19574 0.1954 0.1809 0.14607 0.12599 0.12533 0.14017
1861.464 0.14766 0.130788 0.1099 0.1177 0.1165 0.1218 0.13657 0.1269 0.132207 0.138893
1880.754 0.138229 0.14983 0.16561 0.17815 0.19226 0.1785 0.139719 0.16186 0.19697 0.19425
1900.043 0.21917 0.2341 0.22407 0.21242 0.16998 0.1587 0.19294 0.21662 0.19452 0.17274
1919.333 0.17844 0.16962 0.15496 0.14339 0.14822 0.132868 0.137849 0.15391 0.14439 0.13473
1938.623 0.12483 0.13952 0.131718 0.15301 0.18758 0.16476 0.137978 0.132724 0.131553 0.12523
1957.913 0.12253 0.12899 0.14857 0.16736 0.19255 0.1873 0.15762 0.137352 0.16746 0.20075
1977.202 0.18674 0.18551 0.1776 0.14796 0.14107 0.14483 0.14953 0.14167 0.131905 0.12682
1996.492 0.1455 0.15727 0.1047 0.1094 0.14309 0.15811 0.15079 0.129608 0.129266 0.12346
2015.782 0.130552 0.15919 0.16091 0.12 0.1089 0.12035 0.138099 0.15347 0.14433 0.12409
2035.072 0.12573 0.17642 0.1868 0.15033 0.16688 0.19619 0.15724 0.1232 0.1446 0.14703
2054.362 0.14879 0.17005 0.1685 0.16248 0.17726 0.18537 0.17244 0.19108 0.22865 0.2623
2073.651 0.2545 0.22406 0.22178 0.237 0.2725 0.2711 0.2565 0.2759 0.3208 0.3152
2092.941 0.2559 0.2618 0.2772 0.2817 0.2964 0.2758 0.2545 0.236 0.2452 0.2879
2112.231 0.299 0.2868 0.3087 0.3139 0.286 0.3075 0.3433 0.3223 0.3293 0.3592
2131.521 0.3487 0.3134 0.3071 0.3276 0.321 0.3163 0.3135 0.3205 0.3303 0.3531
2150.810 0.3455 0.325 0.363 0.3896 0.4 0.4325 0.4317 0.4228 0.4385 0.4491
2170.100 0.4549 0.454 0.4222 0.3988 0.4042 0.41 0.4209 0.4131 0.3851 0.3686
2189.390 0.3729 0.3965 0.4111 0.3792 0.3635 0.3994 0.4378 0.4498 0.4447 0.4438
2208.680 0.4453 0.4309 0.4183 0.425 0.4398 0.4547 0.4737 0.5079 0.5084 0.4498
2227.970 0.435 0.4417 0.4349 0.4235 0.3944 0.3719 0.3678 0.3588 0.3544 0.3415
2247.259 0.326 0.3254 0.3417 0.3446 0.3374 0.3386 0.3173 0.2931 0.3034 0.3599
2266.549 0.3937 0.3683 0.362 0.3974 0.4356 0.4373 0.4226 0.4273 0.4471 0.4606
2285.839 0.4718 0.455 0.4235 0.4617 0.5008 0.4634 0.439 0.4777 0.4604 0.4519
2305.129 0.506 0.4971 0.4596 0.4969 0.5029 0.4895 0.5218 0.4871 0.4636 0.4811
2324.418 0.4804 0.4652 0.4605 0.4791 0.4833 0.499 0.5248 0.5097 0.4513 0.4335
2343.708 0.4309 0.4056 0.405 0.4118 0.4174 0.3851 0.3893 0.4089 0.3598 0.3744
2362.998 0.3776 0.3684 0.3904 0.3797 0.3506 0.3617 0.391 0.3827 0.3729 0.3834
2382.288 0.3935 0.4336 0.4546 0.3881 0.3808 0.4488 0.4775 0.4879 0.5308 0.5405
2401.578 0.5525 0.5838 0.564 0.5372 0.5676 0.5758 0.555 0.5791 0.6146 0.6206
2420.867 0.6118 0.6256 0.6655 0.6674 0.6511 0.6577 0.6571 0.6584 0.6694 0.6743
2440.157 0.686 0.7007 0.6843 0.6591 0.6398 0.639 0.639 0.6602 0.676 0.6694
2459.447 0.6522 0.6093 0.5714 0.57 0.5713 0.5333 0.4992 0.5018 0.5251 0.5584
2478.737 0.5494 0.5119 0.5073 0.5161 0.5718 0.6031 0.6105 0.5848 0.5912 0.6063
2498.026 0.5821 0.6124 0.6361 0.6388 0.6538 0.6153 0.6027 0.6131 0.59 0.6057
2517.316 0.6145 0.6481 0.6295 0.5666 0.5826 0.5755 0.5557 0.5744 0.5459 0.5151
2536.606 0.4803 0.4708 0.5184 0.5892 0.6212 0.6057 0.6021 0.6037 0.6194 0.5922
2555.896 0.536 0.5478 0.6122 0.6216 0.6004 0.6214 0.673 0.6879 0.6719 0.6652
2575.186 0.6526 0.6663 0.7243 0.7787 0.787 0.7965 0.8819 0.956 0.9692 1.0199
2594.475 1.0677 1.071 1.0993 1.17 1.2 1.21 1.25 1.25 1.26 1.28
2613.765 1.25 1.25 1.32 1.33 1.29 1.32 1.34 1.34 1.42 1.46
2633.055 1.47 1.52 1.53 1.54 1.56 1.55 1.58 1.63 1.65 1.67
2652.345 1.66 1.65 1.67 1.74 1.78 1.76 1.85 1.93 1.97 2.01
2671.634 2 2.01 2.03 2.05 2.03 1.97 1.94 1.89 1.85 1.79
2690.924 1.74 1.75 1.72 1.69 1.62 1.53 1.51 1.52 1.53 1.51
2710.214 1.49 1.53 1.51 1.49 1.52 1.54 1.57 1.63 1.72 1.77
2729.504 1.82 1.86 1.89 1.93 2 2.02 1.99 1.96 1.98 2
2748.794 1.97 1.97 1.93 1.9 1.95 1.96 1.93 1.89 1.9 1.97
2768.083 2.06 2.07 2.1 2.16 2.18 2.23 2.33 2.39 2.46 2.6
2787.373 2.71 2.85 2.94 3.05 3.22 3.35 3.44 3.53 3.62 3.73
2806.663 3.92 4.06 4.16 4.28 4.49 4.72 5.07 5.5 5.97 6.58
2825.953 7.39 8.38 9.58 11.05 12.8 14.79 16.94 19.31 21.93 24.62
2845.242 27.22 29.64 31.92 34.18 36.41 38.53 40.66 42.73 44.5 46.02
2864.532 47.34 48.5 49.7 50.93 52.02 52.76 52.83 52.28 51.5 50.71
2883.822 49.79 48.74 47.63 46.49 45.4 44.62 44.24 44.18 44.47 45.04
2903.112 45.9 46.96 48.3 49.93 51.84 54.37 57.74 62.14 67.74 74.71
2922.401 83.08 92.76 103.38 113.48 121.4 127.06 132.07 135.86 137.23 137.25
2941.691 134.76 130.13 126.79 125.97 126.41 126.64 126.52 125.96 125.23 125.45
2960.981 123.89 118.76 110.84 101.23 90.88 80.34 70.69 61.64 53.44 45.84
2980.271 38.33 31.8 26.44 21.77 17.68 14.17 11.38 9.1 7.3 5.97
2999.561 4.96 4.2 3.57 3.2 2.94 2.66 2.5 2.36 2.23 2.14
3018.850 2.07 2.02 1.97 1.95 1.91 1.85 1.86 1.88 1.85 1.83
3038.140 1.78 1.77 1.76 1.71 1.74 1.78 1.8 1.76 1.77 1.75
3057.430 1.77 1.88 1.9 1.87 1.78 1.75 1.76 1.76 1.78 1.76
3076.720 1.77 1.8 1.84 1.81 1.72 1.67 1.7 1.69 1.64 1.61
3096.009 1.54 1.53 1.51 1.43 1.46 1.43 1.37 1.42 1.42 1.33
3115.299 1.25 1.3 1.38 1.3 1.25 1.34 1.35 1.36 1.38 1.34
3134.589 1.33 1.35 1.34 1.28 1.2 1.14 1.15 1.22 1.24 1.2
3153.879 1.18 1.18 1.14 1.1143 1.14 1.1128 1.0729 1.0533 1.0613 1.14
3173.169 1.16 1.0781 1.0828 1.0597 1.0193 1.0374 1.0228 0.9779 0.9464 0.9544
3192.458 0.8909 0.8095 0.7839 0.7614 0.7675 0.7388 0.6324 0.5587 0.552 0.5718
3211.748 0.6278 0.5836 0.5067 0.5514 0.5362 0.4641 0.4262 0.4274 0.4456 0.4207
3231.038 0.3463 0.3343 0.3858 0.3921 0.3753 0.4017 0.4251 0.4153 0.4413 0.3941
3250.328 0.3473 0.4463 0.561 0.5576 0.4583 0.394 0.464 0.5669 0.629 0.6705
3269.617 0.6503 0.6212 0.5642 0.5946 0.6479 0.6339 0.6053 0.5799 0.5812 0.5287
3288.907 0.4968 0.4632 0.4735 0.4781 0.4543 0.3977 0.3256 0.3536 0.3511 0.3485
3308.197 0.3746 0.3031 0.21063 0.19668 0.2764 0.3663 0.3389 0.3032 0.3393 0.3083
3327.487 0.2905 0.3439 0.3794 0.3695 0.3398 0.3514 0.3693 0.3524 0.3152 0.3445
3346.777 0.3775 0.3525 0.3632 0.4404 0.468 0.4609 0.497 0.4706 0.4664 0.515
3366.066 0.4903 0.4208 0.3859 0.4132 0.3982 0.3603 0.3577 0.4038 0.4373 0.382
3385.356 0.3621 0.4353 0.4738 0.361 0.3495 0.4606 0.3892 0.2713 0.2625 0.3077
3404.646 0.3091 0.314 0.3259 0.2846 0.2983 0.2993 0.2642 0.267 0.2551 0.20997
3423.936 0.241 0.317 0.2782 0.2356 0.21763 0.20075 0.1897 0.19323 0.21322 0.137331
3443.225 0.13236 0.21415 0.17432 0.16456 0.16955 0.14294 0.15603 0.14423 0.12072 0.12798
3462.515 0.18036 0.2285 0.2183 0.20342 0.20738 0.18352 0.17047 0.19367 0.21407 0.2399
3481.805 0.22947 0.20561 0.3015 0.2718 0.2479 0.2405 0.1003 0.0473 0.0878 0.0561
3501.095 0.008 0.0651 0.129105 0.12323 0.0557 0.0714 0.131112 0.0534 0.004 0.0467
3520.385 0.0588 0.0422 0.014 0.0329 0.038 0.0534 0.0517 0.0426 0.025 0.0849
3539.674 0.13009 0.0371 0.008 0.0597 0.0625 0 0.026 0.0783 0.0779 0.0813
3558.964 0.0995 0.0805 0.099 0.0933 0.0532 0.0666 0.1117 0.16757 0.0916 0.0828
3578.254 0.19249 0.17186 0.1058 0.0961 0.066 0.04 0.1131 0.15849 0.0547 0.014
3597.544 0.0358 0.0727 0.0974 0.1252 0.14581 0.0891 0.12464 0.19439 0.16712 0.1051
3616.833 0.22427 0.3008 0.21127 0.15509 0.14569 0.1747 0.18053 0.2 0.15836 0.1013
3636.123 0.0894 0.12061 0.18529 0.15779 0.0862 0.12216 0.22845 0.21131 0.21203 0.262
3655.413 0.22343 0.16645 0.2171 0.3 0.2543 0.14322 0.108 0.21516 0.2895 0.2475
3674.703 0.18596 0.1696 0.15459 0.15633 0.17527 0.14515 0.19633 0.21514 0.2385 0.3158
3693.993 0.2485 0.15786 0.132297 0.1009 0.16194 0.21196 0.136319 0.16233 0.2303 0.2474
3713.282 0.2569 0.2443 0.2837 0.2516 0.2528 0.3419 0.3254 0.18939 0.134222 0.17893
3732.572 0.17617 0.12302 0.15672 0.22775 0.20183 0.22734 0.22963 0.21723 0.2853 0.3068
3751.862 0.21278 0.19636 0.20886 0.21663 0.3218 0.3404 0.2634 0.22942 0.248 0.3095
3771.152 0.2943 0.22501 0.18488 0.19221 0.19075 0.16478 0.19986 0.2854 0.2552 0.21629
3790.441 0.2841 0.3345 0.3225 0.2865 0.3023 0.3619 0.3674 0.2988 0.3368 0.3838
3809.731 0.3452 0.3677 0.3785 0.3718 0.4479 0.4614 0.4575 0.4552 0.4038 0.3516
3829.021 0.3565 0.4565 0.4589 0.4025 0.4279 0.4455 0.382 0.4413 0.4614 0.3625
3848.311 0.3788 0.4593 0.4827 0.4823 0.5326 0.5111 0.4199 0.3106 0.2743 0.2951
3867.601 0.2648 0.20427 0.2329 0.3068 0.2981 0.2672 0.3586 0.3843 0.3954 0.4608
3886.890 0.3695 0.2911 0.3119 0.3615 0.3849 0.3864 0.399 0.4309 0.4078 0.371
3906.180 0.3711 0.3706 0.451 0.4403 0.3449 0.399 0.4408 0.391 0.3892 0.3664
3925.470 0.3177 0.3088 0.2866 0.3078 0.3985 0.3931 0.4348 0.5442 0.5337 0.4301
3944.760 0.339 0.3005 0.3575 0.4408 0.3944 0.3212 0.287 0.3549 0.408 0.372
3964.049 0.4558 0.4032 0.3054 0.3525 0.3671 0.4432 0.4476 0.4533 0.5666 0.5827
3983.339 0.4737 0.3875 0.3213 0.3894 0.5753 0.5855 0.5045 0.4339 0.4521 0.5091
##END=
