##TITLE=Butyl glyoxalate
##JCAMP-DX=4.24
##DATA TYPE=INFRARED SPECTRUM
##ORIGIN=NIST Mass Spectrometry Data Center
##OWNER=NIST Standard Reference Data Program
Collection (C) 2018 copyright by the U.S. Secretary of Commerce
on behalf of the United States of America. All rights reserved.
##CAS REGISTRY NO=6295-06-3
##MOLFORM=C 6 H 10 O 3
##$NIST SOURCE=MSDC-IR
##SPECTROMETER/DATA SYSTEM=HP-GC/MS/IRD
##STATE=gas
##XUNITS=1/CM
##YUNITS=ABSORBANCE
##XFACTOR=1.0
##YFACTOR=0.000007300
##DELTAX=4.0
##FIRSTX=550.0
##LASTX=3846.0
##FIRSTY=0.000584
##MAXX=3846
##MINX=550
##MAXY=0.073
##MINY=0
##NPOINTS=825
##XYDATA=(X++(Y..Y))
550.0 80 55 0 18 35 48 44 59 83 80
590.0 89 105 112 122 121 112 120 132 126 124
630.0 140 150 145 153 163 163 173 184 181 179
670.0 193 189 181 192 184 178 203 217 226 242
710.0 251 270 295 316 342 363 377 390 404 418
750.0 428 427 403 377 355 330 299 274 252 230
790.0 212 196 192 182 171 168 166 175 184 195
830.0 201 207 212 215 212 199 182 165 157 146
870.0 148 165 184 214 244 277 316 369 425 473
910.0 520 559 596 630 680 751 853 998 1193 1415
950.0 1654 1878 2046 2150 2174 2114 2013 1916 1840 1794
990.0 1802 1863 1958 2074 2177 2211 2150 1994 1774 1512
1030.0 1245 1011 829 724 720 777 866 947 982 950
1070.0 847 715 583 464 383 331 288 260 247 242
1110.0 251 264 276 285 289 300 320 349 388 441
1150.0 507 588 698 846 1027 1271 1585 1977 2454 2982
1190.0 3483 3863 4058 4013 3729 3302 2845 2447 2156 1975
1230.0 1891 1900 1981 2125 2340 2631 2996 3426 3913 4453
1270.0 5025 5604 6125 6462 6501 6179 5524 4657 3758 2978
1310.0 2375 1934 1601 1343 1153 1014 916 854 815 779
1350.0 743 714 694 683 692 703 705 689 665 648
1390.0 631 597 537 458 381 318 276 255 248 260
1430.0 286 319 359 406 466 537 611 689 750 777
1470.0 760 703 617 510 399 306 231 174 136 109
1510.0 89 76 66 60 54 48 46 43 37 31
1550.0 30 32 30 29 25 22 26 27 28 30
1590.0 31 35 43 46 51 53 57 64 72 77
1630.0 80 86 93 105 117 134 152 173 198 225
1670.0 257 300 351 417 508 619 764 953 1186 1470
1710.0 1842 2340 3026 3930 5080 6440 7763 8723 9451 10000
1750.0 9813 8971 8004 6947 5828 4919 4242 3659 3084 2487
1790.0 1944 1518 1205 964 786 649 544 466 406 354
1830.0 315 281 251 225 199 175 152 136 118 103
1870.0 90 81 74 65 60 57 51 50 50 44
1910.0 41 37 35 33 35 36 33 35 33 31
1950.0 30 31 30 27 22 20 20 21 17 16
1990.0 18 13 11 11 12 13 11 12 11 10
2030.0 10 13 12 11 12 15 14 13 14 17
2070.0 20 20 23 27 27 30 29 28 30 34
2110.0 36 37 37 35 34 31 37 37 35 31
2150.0 29 31 32 29 26 25 27 28 28 27
2190.0 27 26 25 25 25 20 18 19 16 13
2230.0 11 13 16 18 19 14 10 14 14 13
2270.0 16 17 18 15 11 13 18 18 13 13
2310.0 16 20 23 24 25 26 29 28 28 29
2350.0 30 32 32 33 35 38 38 37 36 34
2390.0 34 29 28 32 33 28 27 30 30 27
2430.0 22 22 24 24 21 19 22 26 23 18
2470.0 18 19 17 19 18 18 21 24 24 25
2510.0 32 34 30 36 44 45 43 41 45 48
2550.0 52 56 54 55 55 58 60 57 52 49
2590.0 50 49 53 56 50 51 59 56 52 56
2630.0 63 69 75 79 84 94 101 111 119 131
2670.0 158 185 200 211 213 206 194 180 172 177
2710.0 183 186 196 207 215 220 228 238 248 260
2750.0 269 274 274 273 277 279 282 283 290 301
2790.0 319 341 377 419 460 517 600 717 875 1100
2830.0 1453 1957 2429 2664 2679 2485 2070 1667 1468 1416
2870.0 1447 1525 1633 1735 1773 1755 1699 1616 1558 1562
2910.0 1623 1717 1822 1938 2077 2249 2468 2724 2952 3118
2950.0 3240 3349 3513 3771 4077 4301 4265 3932 3394 2745
2990.0 2153 1697 1351 1083 877 721 601 514 443 384
3030.0 349 318 286 263 240 214 195 178 162 153
3070.0 149 141 133 132 129 124 123 122 121 120
3110.0 116 106 99 100 100 101 93 81 82 82
3150.0 85 87 79 78 80 82 74 64 67 68
3190.0 66 60 60 61 57 52 51 47 46 50
3230.0 52 44 38 39 33 33 34 39 44 31
3270.0 23 23 32 38 30 37 36 27 24 30
3310.0 33 32 34 36 31 24 29 33 32 36
3350.0 40 33 26 24 28 30 31 36 37 42
3390.0 42 41 34 30 38 47 49 53 62 62
3430.0 63 62 66 83 94 103 124 143 166 192
3470.0 215 234 239 236 218 197 182 158 136 117
3510.0 106 100 98 97 90 84 79 67 62 61
3550.0 50 40 43 46 36 34 33 30 30 32
3590.0 37 34 26 29 24 27 33 28 35 33
3630.0 16 10 13 16 21 17 16 30 29 29
3670.0 30 21 23 24 25 34 39 26 17 27
3710.0 22 13 21 36 39 33 26 14 21 31
3750.0 38 45 39 37 39 41 32 24 21 21
3790.0 23 29 32 28 26 29 36 30 22 24
3830.0 31 32 31 40 45
##END=
