##TITLE=Diethyl dibromomalonate
##JCAMP-DX=4.24
##DATA TYPE=INFRARED SPECTRUM
##ORIGIN=EPA-IR VAPOR PHASE LIBRARY
##OWNER=SRD/NIST
Collection (C) 2018 copyright by the U.S. Secretary of Commerce
on behalf of the United States of America. All rights reserved.
##CAS REGISTRY NO=631-22-1
##MOLFORM=C 7 H 10 Br 2 O 4
##$NIST SOURCE=MSDC-IR
##STATE=gas
##XUNITS=1/CM
##YUNITS=ABSORBANCE
##XFACTOR=1.
##YFACTOR=0.001
##DELTAX=3.85796
##FIRSTX=501.5
##LASTX=4000.7
##FIRSTY=0.9062
##MAXX=4000.7
##MINX=501.534
##MAXY=0.030808
##MINY=0
##NPOINTS=908
##XYDATA=(X++(Y..Y))
501.534 0.9062 1.1673 0.916 0.5916 0.48279 0.45096 0.5095 0.5801 0.5215 0.5963
540.114 0.8322 0.9251 0.7464 0.6222 0.8555 1.1166 1.0892 1.0663 1.1187 1.0997
578.693 1.2269 1.2797 1.1595 1.1572 1.0666 0.9674 1.0694 1.0638 1.0499 1.1454
617.273 1.2249 1.3167 1.3624 1.478 1.778 1.918 1.898 1.938 1.968 1.968
655.852 1.838 1.548 1.3645 1.3277 1.2798 1.2312 1.1656 1.1637 1.1162 1.1062
694.432 1.2282 1.246 1.2864 1.3609 1.438 1.488 1.458 1.3524 1.2566 1.1566
733.011 1.0866 1.0018 0.907 0.9598 1.087 1.1419 1.1653 1.1817 1.2054 1.2649
771.591 1.428 1.528 1.508 1.458 1.3681 1.3528 1.3155 1.3076 1.3394 1.3531
810.170 1.2908 1.2301 1.1921 1.1175 1.0783 1.1129 1.1377 1.1755 1.252 1.3278
848.750 1.498 1.828 2.198 2.478 2.638 2.698 2.498 2.108 1.658 1.2918
887.330 1.1508 1.054 0.9282 0.8667 0.8512 0.8678 0.9323 1.0494 1.109 1.2078
925.909 1.3243 1.448 1.608 1.678 1.638 1.618 1.578 1.538 1.568 1.508
964.489 1.428 1.326 1.2988 1.2692 1.3056 1.428 1.608 1.768 1.978 2.318
1003.068 2.768 3.468 4.388 5.638 7.298 9.198 11.148 12.798 13.698 13.458
1041.648 12.018 9.918 7.888 6.298 5.098 4.078 3.518 3.398 3.338 3.458
1080.227 3.758 4.178 4.878 5.618 6.278 7.008 7.678 8.338 9.058 10.168
1118.807 11.798 13.768 15.978 18.358 20.408 21.418 21.078 19.468 17.058 14.548
1157.387 12.448 10.848 9.788 9.218 8.788 8.588 8.748 9.218 9.998 10.818
1195.966 11.588 12.228 12.458 12.488 12.598 12.978 13.628 14.438 15.478 16.538
1234.546 17.378 17.988 18.498 18.908 19.188 19.408 19.518 19.478 19.368 19.228
1273.125 18.928 18.358 17.718 17.038 16.578 16.458 16.488 16.408 15.888 14.708
1311.705 12.828 10.628 8.508 6.758 5.418 4.408 3.688 3.178 2.798 2.528
1350.284 2.408 2.448 2.738 3.378 4.198 4.708 4.708 4.238 3.498 2.908
1388.864 2.618 2.478 2.408 2.318 2.208 2.068 1.928 1.818 1.738 1.708
1427.443 1.728 1.748 1.808 1.918 1.998 2.098 2.198 2.248 2.338 2.468
1466.023 2.618 2.748 2.718 2.498 2.198 1.868 1.548 1.3137 1.1672 1.0614
1504.603 0.9894 0.917 0.869 0.8386 0.8066 0.7981 0.7749 0.757 0.7633 0.7554
1543.182 0.7119 0.6849 0.7169 0.7445 0.7215 0.6962 0.6935 0.7143 0.744 0.7332
1581.762 0.7168 0.7038 0.7259 0.7517 0.725 0.6769 0.6657 0.6833 0.6918 0.7131
1620.341 0.7434 0.7387 0.711 0.6795 0.6879 0.722 0.7276 0.7526 0.7719 0.7887
1658.921 0.8066 0.8074 0.8451 0.8905 0.9285 1.0036 1.0933 1.1992 1.3219 1.478
1697.500 1.668 1.878 2.158 2.478 2.838 3.308 3.948 4.778 5.958 7.628
1736.080 9.938 13.038 16.968 21.528 26.148 29.678 30.808 28.778 24.518 20.118
1774.659 17.198 15.948 15.268 13.848 11.388 8.578 6.188 4.588 3.618 2.958
1813.239 2.498 2.168 1.888 1.648 1.468 1.3088 1.1938 1.1238 1.0357 0.972
1851.819 0.9466 0.897 0.8345 0.805 0.8057 0.8241 0.8274 0.8079 0.8132 0.8468
1890.398 0.8678 0.8365 0.8065 0.7904 0.7522 0.7089 0.6769 0.6532 0.6436 0.6428
1928.978 0.6167 0.5764 0.5456 0.5339 0.5382 0.5315 0.5252 0.5314 0.5305 0.5138
1967.557 0.4964 0.5203 0.5419 0.5161 0.5096 0.517 0.5328 0.5211 0.5077 0.5335
2006.137 0.5346 0.5214 0.5216 0.5233 0.5098 0.4938 0.4944 0.48153 0.45997 0.47984
2044.716 0.494 0.4885 0.48764 0.49 0.47806 0.48061 0.5025 0.502 0.4971 0.5188
2083.296 0.528 0.5121 0.5162 0.5267 0.524 0.5096 0.5225 0.531 0.5255 0.5106
2121.875 0.47327 0.47622 0.507 0.5311 0.5611 0.5659 0.5363 0.5102 0.4993 0.48637
2160.455 0.47456 0.46558 0.44635 0.43452 0.43342 0.43725 0.42407 0.42789 0.4164 0.38649
2199.035 0.393932 0.392113 0.394989 0.4296 0.4474 0.44347 0.43639 0.42726 0.44359 0.47092
2237.614 0.46707 0.44165 0.42751 0.40149 0.390349 0.40388 0.40329 0.41086 0.395778 0.38023
2276.194 0.40039 0.397431 0.3513 0.3479 0.3771 0.39846 0.40753 0.40816 0.41898 0.41679
2314.773 0.39993 0.40745 0.42477 0.4464 0.45908 0.45183 0.43519 0.40958 0.3743 0.3546
2353.353 0.395125 0.4185 0.41968 0.41249 0.39035 0.3649 0.3761 0.42331 0.43598 0.40923
2391.932 0.40537 0.45257 0.46618 0.41098 0.38655 0.40458 0.43524 0.43251 0.391351 0.38544
2430.512 0.41473 0.41861 0.38322 0.387277 0.41488 0.42512 0.41674 0.39997 0.393797 0.42801
2469.092 0.40728 0.3424 0.3641 0.38612 0.3617 0.3592 0.3581 0.3483 0.3529 0.3684
2507.671 0.3773 0.3408 0.3265 0.3533 0.3318 0.287 0.3014 0.3346 0.3151 0.3328
2546.251 0.3624 0.3471 0.3435 0.357 0.3482 0.3384 0.3499 0.357 0.3315 0.3028
2584.830 0.3294 0.3391 0.3247 0.3066 0.3137 0.285 0.257 0.267 0.275 0.3075
2623.410 0.275 0.248 0.283 0.2971 0.3079 0.2916 0.266 0.236 0.248 0.2925
2661.989 0.3079 0.311 0.284 0.284 0.2912 0.271 0.254 0.261 0.278 0.3085
2700.569 0.2883 0.237 0.265 0.2916 0.3053 0.3275 0.274 0.247 0.279 0.3098
2739.148 0.3644 0.3294 0.28 0.3102 0.3377 0.3505 0.3362 0.3774 0.41229 0.3726
2777.728 0.41494 0.44133 0.393895 0.3468 0.3425 0.388298 0.395239 0.41381 0.43141 0.43626
2816.308 0.43544 0.42628 0.442 0.46197 0.44888 0.4573 0.44565 0.44858 0.5439 0.6189
2854.887 0.6363 0.634 0.6732 0.785 0.9072 1.017 1.1841 1.3218 1.438 1.528
2893.467 1.578 1.548 1.568 1.768 1.918 1.958 2.058 2.078 2.118 2.248
2932.046 2.428 2.828 3.358 3.758 3.938 3.848 3.518 3.268 3.298 3.558
2970.626 4.128 4.848 5.778 6.918 7.778 7.988 7.418 6.368 5.398 4.638
3009.205 3.998 3.488 2.948 2.388 1.998 1.688 1.3074 1.1131 1.0032 0.8889
3047.785 0.8263 0.7206 0.6587 0.6596 0.6282 0.5159 0.45146 0.45746 0.49 0.492
3086.364 0.46238 0.4598 0.43364 0.388953 0.41697 0.47275 0.43661 0.38367 0.2971 0.273
3124.944 0.3592 0.381 0.3617 0.3502 0.3327 0.3221 0.3036 0.286 0.278 0.244
3163.524 0.265 0.3239 0.2993 0.263 0.228 0.242 0.282 0.221 0.176 0.249
3202.103 0.287 0.273 0.263 0.211 0.167 0.181 0.193 0.181 0.198 0.185
3240.683 0.206 0.195 0.144 0.102 0.105 0.133 0.164 0.192 0.164 0.146
3279.262 0.202 0.214 0.132 0.095 0.065 0.115 0.168 0.169 0.185 0.223
3317.842 0.21 0.197 0.218 0.215 0.246 0.249 0.218 0.201 0.128 0.138
3356.421 0.234 0.223 0.199 0.212 0.15 0.122 0.154 0.175 0.2 0.249
3395.001 0.196 0.228 0.271 0.214 0.267 0.259 0.196 0.193 0.253 0.207
3433.580 0.13 0.124 0.16 0.229 0.228 0.144 0.159 0.3008 0.3167 0.214
3472.160 0.242 0.3026 0.397267 0.45184 0.41342 0.3757 0.308 0.3457 0.353 0.3672
3510.740 0.40299 0.397003 0.42343 0.3769 0.3087 0.311 0.3155 0.3002 0.234 0.193
3549.319 0.3057 0.3188 0.208 0.186 0.197 0.257 0.253 0.208 0.229 0.215
3587.899 0.221 0.201 0.173 0.22 0.255 0.246 0.169 0.163 0.218 0.146
3626.478 0.109 0.165 0.138 0.143 0.246 0.266 0.194 0.143 0.096 0.071
3665.058 0.096 0.11 0.147 0.188 0.203 0.209 0.166 0.133 0.175 0.137
3703.637 0.092 0.069 0.102 0.132 0.136 0.213 0.205 0.2 0.193 0.152
3742.217 0.186 0.142 0.153 0.183 0.193 0.216 0.195 0.213 0.192 0.147
3780.797 0.189 0.178 0.091 0.091 0.118 0.218 0.248 0.249 0.274 0.192
3819.376 0.189 0.26 0.233 0.157 0.083 0.004 0.06 0.093 0.083 0.11
3857.956 0.133 0.204 0.245 0.2894 0.196 0.075 0.064 0.075 0.143 0.193
3896.535 0.211 0.261 0.215 0.172 0.139 0.09 0.074 0.071 0.108 0.127
3935.115 0.153 0.155 0.084 0 0.032 0.07 0.104 0.142 0.208 0.206
3973.694 0.177 0.186 0.132 0.131 0.145 0.163 0.167 0.12
##END=
