##TITLE=3-Ethyl-4-octanol
##JCAMP-DX=4.24
##DATA TYPE=INFRARED SPECTRUM
##ORIGIN=NIST Mass Spectrometry Data Center
##OWNER=NIST Standard Reference Data Program
Collection (C) 2018 copyright by the U.S. Secretary of Commerce
on behalf of the United States of America. All rights reserved.
##CAS REGISTRY NO=63126-48-7
##MOLFORM=C 10 H 22 O
##$NIST SOURCE=MSDC-IR
##SPECTROMETER/DATA SYSTEM=HP-GC/MS/IRD
##STATE=gas
##XUNITS=1/CM
##YUNITS=ABSORBANCE
##XFACTOR=1.0
##YFACTOR=0.000004100
##DELTAX=4.0
##FIRSTX=550.0
##LASTX=3846.0
##FIRSTY=0.001558
##MAXX=3846
##MINX=550
##MAXY=0.041
##MINY=0
##NPOINTS=825
##XYDATA=(X++(Y..Y))
550.0 380 164 25 69 55 42 43 40 25 20
590.0 14 25 35 43 52 38 54 63 52 41
630.0 33 25 32 43 38 36 33 27 26 23
670.0 17 15 10 1 9 14 17 31 36 39
710.0 35 39 52 63 73 82 91 125 154 171
750.0 187 196 201 209 229 251 273 280 275 250
790.0 228 214 192 172 166 162 156 161 173 186
830.0 203 208 204 197 190 185 188 195 206 220
870.0 232 252 287 309 324 348 381 402 403 404
910.0 400 376 345 319 289 262 246 248 251 266
950.0 285 305 335 368 396 436 493 559 654 786
990.0 954 1157 1368 1536 1638 1652 1593 1483 1358 1230
1030.0 1097 968 838 735 666 619 587 574 569 564
1070.0 566 576 594 603 614 631 655 678 685 693
1110.0 708 709 703 700 705 712 716 722 715 683
1150.0 626 574 520 475 439 411 410 415 428 453
1190.0 482 519 555 579 603 623 628 623 625 638
1230.0 646 653 662 675 689 701 711 716 711 702
1270.0 692 677 661 638 618 603 590 584 577 562
1310.0 548 529 511 505 507 515 528 544 566 581
1350.0 587 601 617 644 710 811 944 1097 1215 1236
1390.0 1149 979 796 665 575 513 456 413 415 433
1430.0 456 488 551 654 779 947 1112 1293 1456 1491
1470.0 1384 1172 952 741 552 417 337 286 246 186
1510.0 170 176 142 121 129 132 115 78 66 96
1550.0 104 80 29 57 93 91 79 80 103 107
1590.0 107 101 93 97 100 93 73 66 73 77
1630.0 79 55 59 73 56 21 16 63 72 63
1670.0 56 49 51 27 18 52 33 0 11 36
1710.0 49 25 8 37 51 33 12 25 38 34
1750.0 27 35 36 33 32 21 29 44 40 40
1790.0 30 27 33 34 40 41 47 45 39 34
1830.0 30 36 41 30 26 36 38 40 36 24
1870.0 21 33 38 35 31 30 35 42 41 32
1910.0 30 28 26 28 28 32 33 25 23 25
1950.0 24 23 24 24 27 27 23 24 24 26
1990.0 26 23 22 22 23 26 26 25 26 24
2030.0 25 27 29 27 24 27 26 21 20 24
2070.0 25 23 22 18 15 16 18 14 15 13
2110.0 10 11 14 11 7 13 14 12 10 10
2150.0 9 10 11 7 8 12 12 13 10 9
2190.0 11 7 5 6 4 7 9 10 9 11
2230.0 6 2 5 6 3 1 6 5 3 6
2270.0 13 17 11 6 12 17 18 17 19 20
2310.0 16 14 15 16 18 21 23 20 21 22
2350.0 25 29 31 32 31 31 29 31 35 39
2390.0 39 39 41 37 33 33 34 33 29 27
2430.0 31 36 34 30 28 28 27 26 28 31
2470.0 34 34 31 32 36 33 30 31 33 33
2510.0 35 35 38 41 41 47 46 49 54 55
2550.0 58 59 60 66 69 77 83 84 86 95
2590.0 102 101 104 108 113 114 111 112 114 114
2630.0 120 126 127 132 135 137 145 146 145 153
2670.0 159 165 171 175 171 175 180 177 180 191
2710.0 194 200 207 213 223 235 256 277 286 292
2750.0 292 292 293 288 290 298 310 328 340 352
2790.0 377 397 421 451 479 515 559 606 659 727
2830.0 813 930 1078 1258 1495 1794 2174 2648 3207 3815
2870.0 4411 4986 5480 5732 5693 5376 4917 4528 4365 4457
2910.0 4768 5257 5889 6624 7415 8204 8893 9290 9252 8845
2950.0 8329 8083 8420 9265 10000 9916 8820 7027 5168 3737
2990.0 2785 2170 1753 1444 1221 1060 931 822 738 670
3030.0 615 558 508 476 443 415 390 371 354 331
3070.0 316 309 300 285 273 262 263 253 234 225
3110.0 216 208 198 187 181 177 167 160 159 158
3150.0 153 148 143 139 137 131 123 120 112 101
3190.0 91 82 75 72 65 63 64 61 60 57
3230.0 52 49 43 40 41 39 37 37 40 38
3270.0 31 31 36 31 21 24 30 28 22 24
3310.0 32 33 27 27 27 22 21 17 14 19
3350.0 22 24 25 28 31 32 29 27 26 33
3390.0 34 30 29 28 31 31 34 39 35 36
3430.0 36 36 39 37 32 35 38 38 35 28
3470.0 35 34 23 21 26 32 32 26 18 18
3510.0 18 25 32 27 20 13 10 20 25 13
3550.0 19 25 33 31 2 8 26 27 26 7
3590.0 13 33 34 39 39 37 53 60 79 89
3630.0 109 181 245 309 360 418 482 493 443 353
3670.0 242 152 114 106 72 43 45 34 31 39
3710.0 21 20 34 28 26 4 1 1 1 1
3750.0 1 1 17 27 24 20 25 25 31 39
3790.0 43 32 14 10 15 23 20 8 13 27
3830.0 26 12 5 11 28
##END=
