##TITLE=Benzo[b]thiophene-2-carboxylic acid
##JCAMP-DX=4.24
##DATA TYPE=INFRARED SPECTRUM
##ORIGIN=EPA-IR VAPOR PHASE LIBRARY
##OWNER=SRD/NIST
Collection (C) 2018 copyright by the U.S. Secretary of Commerce
on behalf of the United States of America. All rights reserved.
##CAS REGISTRY NO=6314-28-9
##MOLFORM=C 9 H 6 O 2 S
##$NIST SOURCE=MSDC-IR
##STATE=gas
##XUNITS=1/CM
##YUNITS=ABSORBANCE
##XFACTOR=1.
##YFACTOR=0.001
##DELTAX=3.85796
##FIRSTX=551.7
##LASTX=4000.7
##FIRSTY=4.77
##MAXX=4000.7
##MINX=551.688
##MAXY=0.04899
##MINY=0.0005036
##NPOINTS=895
##XYDATA=(X++(Y..Y))
551.688 4.77 4.61 5.23 6.56 7.31 7.79 7.47 6.03 4.92 3.97
590.268 3 2.39 2.09 1.92 1.84 1.82 1.77 1.72 1.76 1.85
628.847 1.92 1.97 1.99 2.07 2.27 2.81 3.66 4.43 5.42 6.03
667.427 5.62 4.85 3.66 2.56 2.12 2.08 2.31 2.7 3.15 3.47
706.006 3.7 3.98 4.47 5.23 6.74 7.54 7.2 7.15 7.1 6.81
744.586 6.7 7.16 7.91 8.39 7.82 6.54 5.31 4.15 3.22 2.58
783.165 2.17 1.98 1.91 1.81 1.72 1.69 1.64 1.59 1.6 1.62
821.745 1.61 1.6 1.61 1.61 1.63 1.65 1.64 1.7 1.85 2.05
860.324 2.27 2.54 2.73 2.63 2.33 2.02 1.75 1.55 1.44 1.38
898.904 1.33 1.28 1.34 1.4 1.41 1.45 1.46 1.5 1.51 1.52
937.484 1.57 1.52 1.48 1.52 1.5 1.5 1.53 1.57 1.62 1.65
976.063 1.74 1.96 2.18 2.49 2.99 3.57 4.12 4.56 4.85 4.95
1014.643 5.08 5.28 5.35 5.39 5.23 4.53 3.62 2.97 2.56 2.25
1053.222 2.16 2.25 2.39 2.66 3.03 3.27 3.46 3.5 3.4 3.32
1091.802 3.31 3.43 3.58 3.82 4.2 4.71 5.4 6.41 7.96 10.28
1130.381 13.92 19.55 27.32 35.91 41.02 40.3 34.7 25.3 16.6 11.49
1168.961 8.58 6.65 5.31 4.5 4.01 3.69 3.57 3.8 4.11 4.29
1207.540 4.26 3.98 3.46 3.04 2.82 2.64 2.53 2.55 2.67 2.91
1246.120 3.13 3.29 3.46 3.59 3.69 3.83 4.03 4.33 4.79 5.39
1284.699 6.12 6.76 7.03 6.89 6.45 5.88 5.41 5.22 5.2 5.14
1323.279 4.98 4.72 4.48 4.38 4.35 4.46 5.02 6.06 7.4 8.56
1361.859 8.76 7.94 6.39 4.46 3.1 2.48 2.17 1.94 1.74 1.61
1400.438 1.55 1.55 1.67 1.88 2.19 2.57 2.97 3.28 3.41 3.3
1439.018 2.98 2.64 2.43 2.41 2.48 2.52 2.46 2.26 2.01 1.83
1477.597 1.74 1.69 1.71 1.79 1.95 2.2 2.57 3.18 4.2 5.72
1516.177 7.73 9.82 10.98 10.52 8.58 5.79 3.48 2.46 2.32 2.59
1554.756 2.98 3.27 3.36 3.1 2.59 2.18 1.98 1.96 2.05 2.17
1593.336 2.27 2.27 2.15 1.98 1.81 1.69 1.6 1.54 1.49 1.42
1631.915 1.37 1.33 1.31 1.32 1.34 1.37 1.42 1.48 1.56 1.65
1670.495 1.77 1.88 1.99 2.11 2.25 2.38 2.52 2.63 2.76 2.89
1709.075 3 3.14 3.33 3.63 4.18 5.21 7.05 10.26 15.75 24.94
1747.654 36.82 45.87 48.99 46.35 36.01 23.95 15.93 10.83 7.44 5.23
1786.234 3.87 3.09 2.66 2.49 2.51 2.59 2.67 2.69 2.59 2.41
1824.813 2.17 1.95 1.81 1.71 1.64 1.58 1.52 1.47 1.42 1.39
1863.393 1.4 1.47 1.53 1.56 1.61 1.66 1.7 1.7 1.68 1.6
1901.972 1.49 1.41 1.34 1.26 1.2 1.17 1.18 1.25 1.31 1.33
1940.552 1.28 1.21 1.11 1.03 0.9867 0.9751 0.9791 0.9711 0.9542 0.9471
1979.131 0.9511 0.949 0.9481 0.9428 0.9363 0.9383 0.9289 0.9383 0.9606 0.9582
2017.711 0.9425 0.9234 0.9101 0.9027 0.8838 0.8664 0.864 0.8321 0.8129 0.8131
2056.291 0.8038 0.7979 0.8018 0.8068 0.7996 0.7901 0.7834 0.7769 0.7419 0.7218
2094.870 0.7159 0.7031 0.6913 0.6712 0.6574 0.6574 0.6614 0.646 0.6479 0.6581
2133.450 0.6442 0.6575 0.6761 0.682 0.7007 0.7088 0.7072 0.7247 0.7414 0.7273
2172.029 0.7228 0.7282 0.7128 0.6855 0.666 0.6485 0.6375 0.6516 0.6557 0.6368
2210.609 0.615 0.6211 0.6341 0.6261 0.6215 0.6381 0.655 0.6552 0.6501 0.6544
2249.188 0.6785 0.6852 0.6862 0.7025 0.7074 0.7158 0.7273 0.7253 0.7231 0.7187
2287.768 0.7263 0.723 0.7124 0.7234 0.7027 0.6766 0.6695 0.6666 0.6727 0.6546
2326.347 0.6496 0.6595 0.6582 0.6556 0.663 0.667 0.6475 0.6384 0.6598 0.6755
2364.927 0.6629 0.6525 0.6514 0.6586 0.6706 0.6817 0.6705 0.6414 0.6477 0.6516
2403.507 0.64 0.6568 0.6764 0.6709 0.6506 0.6547 0.6556 0.6393 0.6692 0.7036
2442.086 0.7058 0.7032 0.7051 0.6946 0.6911 0.6996 0.7057 0.71 0.6854 0.6737
2480.666 0.6849 0.6877 0.6702 0.6683 0.6894 0.6659 0.6452 0.6476 0.6421 0.6096
2519.245 0.6053 0.6345 0.6446 0.654 0.6448 0.6485 0.6646 0.661 0.6636 0.6796
2557.825 0.6721 0.6685 0.6725 0.6612 0.6472 0.6317 0.6168 0.6221 0.6371 0.6439
2596.404 0.6524 0.6484 0.6141 0.6018 0.6136 0.614 0.6061 0.5908 0.5844 0.5789
2634.984 0.5789 0.5952 0.6184 0.6242 0.6204 0.6254 0.6302 0.6597 0.6809 0.6899
2673.563 0.6965 0.6822 0.6557 0.6406 0.6367 0.6244 0.6452 0.6632 0.6613 0.6628
2712.143 0.6622 0.6645 0.6683 0.6796 0.6634 0.6361 0.6394 0.6533 0.662 0.6624
2750.722 0.6644 0.663 0.65 0.6733 0.6688 0.6398 0.6565 0.667 0.6833 0.6785
2789.302 0.6757 0.6854 0.6564 0.6462 0.6549 0.6672 0.6524 0.634 0.6575 0.6742
2827.882 0.6986 0.7308 0.7476 0.7419 0.7292 0.707 0.6874 0.6848 0.6778 0.6855
2866.461 0.6974 0.6905 0.7116 0.7486 0.7693 0.78 0.7893 0.7975 0.7761 0.7749
2905.041 0.7857 0.7755 0.7867 0.783 0.7544 0.7605 0.7607 0.7266 0.7143 0.6992
2943.620 0.6781 0.6986 0.7229 0.7093 0.6924 0.6796 0.6492 0.6585 0.6795 0.6756
2982.200 0.6903 0.7381 0.8168 0.8565 0.8646 0.9153 0.9797 1.02 1.05 1.12
3020.779 1.21 1.3 1.38 1.42 1.45 1.49 1.53 1.61 1.79 2.16
3059.359 2.61 3.05 3.44 3.7 3.78 3.6 3.21 2.73 2.21 1.75
3097.938 1.49 1.33 1.21 1.14 1.02 0.9271 0.8981 0.8353 0.7985 0.8061
3136.518 0.7628 0.7449 0.7526 0.7283 0.6751 0.6684 0.6842 0.6743 0.6718 0.6852
3175.098 0.6893 0.6656 0.6938 0.6897 0.6516 0.6491 0.6428 0.6125 0.6007 0.5966
3213.677 0.6093 0.6193 0.5954 0.597 0.6202 0.6293 0.6029 0.5829 0.6122 0.6282
3252.257 0.5984 0.597 0.6439 0.6782 0.6748 0.7002 0.7229 0.7317 0.6807 0.6652
3290.836 0.6948 0.6568 0.6623 0.6868 0.6704 0.6892 0.6766 0.6315 0.6213 0.6571
3329.416 0.6964 0.7255 0.7321 0.6895 0.6586 0.6774 0.6906 0.6442 0.6361 0.6516
3367.995 0.6338 0.6728 0.6518 0.6194 0.6513 0.6548 0.6903 0.7014 0.669 0.6297
3406.575 0.6122 0.6508 0.6628 0.6327 0.6511 0.6795 0.6681 0.6856 0.6982 0.709
3445.154 0.7506 0.7449 0.7614 0.7997 0.804 0.7955 0.8213 0.8623 0.9096 0.9907
3483.734 1.07 1.1 1.13 1.16 1.12 1.06 0.9884 0.9229 0.9022 0.8902
3522.314 0.8654 0.8449 0.8499 0.8262 0.8397 0.8841 0.8926 0.9452 1.04 1.19
3560.893 1.5 2.18 3.69 6.76 11.65 15.84 16.71 14.7 9.97 4.84
3599.473 2.28 1.46 1.09 0.9271 0.8672 0.8266 0.7888 0.772 0.7639 0.7607
3638.052 0.7301 0.7167 0.7202 0.7278 0.7215 0.7406 0.7713 0.7785 0.827 0.8235
3676.632 0.7638 0.7484 0.7647 0.7338 0.7077 0.6839 0.677 0.6696 0.6701 0.7426
3715.211 0.7121 0.688 0.7284 0.7293 0.7314 0.6805 0.5933 0.6222 0.6778 0.6812
3753.791 0.6902 0.6723 0.667 0.6593 0.6074 0.5991 0.6284 0.649 0.6211 0.5827
3792.370 0.6044 0.6381 0.62 0.6159 0.5873 0.596 0.6187 0.5752 0.5759 0.5702
3830.950 0.5224 0.512 0.515 0.5036 0.505 0.5361 0.5949 0.6303 0.6708 0.6892
3869.530 0.6396 0.5882 0.62 0.6285 0.6096 0.6124 0.6266 0.6349 0.6202 0.6345
3908.109 0.6251 0.6433 0.6884 0.6962 0.6773 0.675 0.6768 0.6566 0.6454 0.6454
3946.689 0.644 0.5902 0.5849 0.6444 0.6248 0.6242 0.6376 0.5681 0.5105 0.5811
3985.268 0.6115 0.566 0.5856 0.5707 0.5586
##END=
