##TITLE=Thianaphthene-2-carboxamide
##JCAMP-DX=4.24
##DATA TYPE=INFRARED SPECTRUM
##ORIGIN=EPA-IR VAPOR PHASE LIBRARY
##OWNER=SRD/NIST
Collection (C) 2018 copyright by the U.S. Secretary of Commerce
on behalf of the United States of America. All rights reserved.
##CAS REGISTRY NO=6314-42-7
##MOLFORM=C 9 H 7 N O S
##$NIST SOURCE=MSDC-IR
##STATE=gas
##XUNITS=1/CM
##YUNITS=ABSORBANCE
##XFACTOR=1.
##YFACTOR=0.001
##DELTAX=1.92898
##FIRSTX=549.8
##LASTX=4000.7
##FIRSTY=2.075
##MAXX=4000.7
##MINX=549.759
##MAXY=0.026455
##MINY=0
##NPOINTS=1790
##XYDATA=(X++(Y..Y))
549.759 2.075 1.6211 1.4648 2.175 2.175 2.385 2.365 0.687 0.041 0.677
569.049 1.0019 1.1565 1.5137 2.065 2.095 1.2401 1.298 1.965 2.035 2.625
588.339 1.6442 1.4307 2.335 1.4959 1.1034 0.84734 1.1631 1.42 0.7945 0.498
607.628 0.728 0.9712 1.53 1.6534 1.4366 1.3906 1.4596 1.6709 1.3384 1.3644
626.918 1.6755 1.677 1.5182 1.885 2.355 2.225 2.595 2.925 2.285 1.915
646.208 2.405 2.845 2.395 1.995 2.105 2.035 1.8091 1.955 2.205 2.045
665.498 1.925 2.215 2.245 1.935 1.8214 2.015 2.295 2.385 2.345 2.665
684.787 2.955 2.765 2.575 2.585 2.665 2.775 2.835 2.955 2.925 2.705
704.077 3.495 3.845 3.285 3.645 4.125 4.105 4.295 4.465 4.425 4.895
723.367 5.065 4.715 4.915 5.545 5.735 5.495 5.375 5.555 5.885 5.815
742.657 5.875 6.375 6.805 7.155 6.775 5.795 5.165 4.795 4.565 4.115
761.947 3.955 4.195 3.935 3.415 3.035 2.935 2.855 2.295 2.035 2.155
781.236 2.155 1.905 2.075 2.335 1.945 1.6121 1.3614 1.5871 1.5897 2.065
800.526 2.285 1.5038 1.4284 1.6493 1.7509 2.095 2.475 2.295 2.015 2.025
819.816 2.595 3.215 3.325 3.315 2.855 2.355 2.455 2.555 1.965 1.5124
839.106 2.105 2.275 1.945 2.175 2.425 2.115 1.975 2.595 2.785 2.345
858.395 2.095 2.045 2.605 3.175 2.735 2.525 2.425 2.475 2.785 2.615
877.685 1.995 1.935 2.875 2.915 2.175 1.7615 1.5368 1.302 1.4806 1.5683
896.975 1.8225 2.245 2.165 1.6502 1.5152 1.623 0.9948 1.2298 1.995 1.6971
916.265 1.4508 1.875 1.915 1.5143 1.7264 1.915 1.719 1.6688 1.5192 1.1661
935.555 1.1936 1.426 1.6168 1.7428 1.6143 1.7222 1.766 1.7083 1.7814 1.6747
954.844 1.905 1.895 1.6078 1.5532 1.845 2.335 2.445 2.155 1.8216 1.885
974.134 1.945 1.7011 1.7407 1.855 1.845 1.4865 0.86137 1.1343 1.865 2.225
993.424 2.305 2.745 2.415 1.6646 2.055 2.105 1.6443 1.915 2.535 2.065
1012.714 1.5623 1.915 2.025 2.025 1.885 1.7313 1.6924 1.4148 0.808 1.342
1032.003 2.025 1.7525 2.185 2.695 2.285 2.105 1.885 1.4106 1.7377 1.4739
1051.293 1.4221 1.945 1.845 1.7999 2.005 2.305 2.025 1.5339 1.3787 1.4548
1070.583 2.465 3.615 2.795 2.955 4.085 3.135 2.845 2.565 3.195 4.495
1089.873 4.565 4.625 4.045 3.155 3.695 4.245 3.665 2.945 2.945 3.185
1109.163 3.445 3.305 3.085 3.525 3.385 2.675 1.7929 2.235 1.6511 1.1141
1128.452 1.668 1.3164 1.6879 2.205 2.515 2.195 2.075 1.4127 1.6419 2.315
1147.742 2.265 2.125 2.125 3.035 3.955 4.145 3.305 3.145 3.345 2.625
1167.032 2.135 2.785 3.485 2.975 1.8331 2.255 3.505 3.835 4.225 4.715
1186.322 4.325 4.165 3.955 4.085 3.965 3.275 2.765 2.335 2.115 2.055
1205.611 2.015 1.8148 2.665 3.715 3.275 2.895 1.7508 0.599 1.238 2.025
1224.901 1.935 1.4749 1.915 1.7967 1.995 2.055 1.7628 2.555 2.565 2.185
1244.191 2.205 1.925 2.345 2.945 3.105 2.865 2.135 1.965 1.985 1.5694
1263.481 1.4068 1.955 2.155 1.885 2.055 2.185 2.505 2.785 2.865 3.145
1282.771 3.615 3.955 3.765 3.865 4.295 5.115 5.685 6.215 6.885 7.285
1302.060 7.905 8.245 8.415 8.635 8.465 8.025 7.645 7.385 6.895 6.245
1321.350 5.905 5.765 5.965 6.645 7.585 8.635 9.775 11.035 12.325 13.165
1340.640 13.595 13.815 13.695 13.385 12.765 12.065 11.185 10.205 9.345 8.425
1359.930 7.525 6.725 5.965 5.115 4.265 3.615 3.285 3.075 2.825 2.585
1379.219 2.415 2.395 2.165 2.115 2.175 1.995 1.835 1.7212 1.7641 1.7708
1398.509 1.5824 1.534 1.6065 1.6012 1.6017 1.6073 1.5366 1.6048 1.6717 1.7116
1417.799 1.995 1.985 2.005 2.285 2.355 2.435 2.555 2.665 2.645 2.635
1437.089 2.695 2.545 2.495 2.435 2.235 2.295 2.405 2.425 2.295 2.155
1456.378 2.335 2.565 2.465 2.325 2.365 2.365 1.975 1.7763 2.035 1.925
1475.668 1.7038 1.7062 1.6887 1.6324 1.4903 1.511 1.636 1.6977 1.6865 1.6091
1494.958 1.8122 1.865 1.7652 1.829 1.985 2.185 2.425 2.705 3.055 3.655
1514.248 4.125 4.485 4.955 5.355 5.625 5.745 6.015 6.015 5.425 4.745
1533.538 4.275 3.975 3.475 2.735 2.445 2.455 2.415 2.445 2.495 2.575
1552.827 2.675 2.955 3.215 3.615 3.875 3.885 4.035 4.255 4.615 5.445
1572.117 6.135 6.875 8.245 9.825 11.695 13.475 14.875 15.745 16.295 16.385
1591.407 15.575 14.285 12.725 11.215 9.605 7.845 6.425 5.465 5.045 4.315
1610.697 3.285 2.965 3.015 2.705 2.195 2.095 2.175 2.225 2.295 2.535
1629.986 2.255 1.945 2.165 2.085 2.135 2.265 2.015 1.915 1.985 1.865
1649.276 1.8196 1.985 2.245 2.355 2.275 2.225 2.495 2.875 3.175 3.425
1668.566 3.445 3.575 3.905 3.925 3.885 3.875 3.965 4.145 4.285 4.355
1687.856 4.295 4.445 4.895 5.665 6.745 8.155 9.815 11.855 14.515 17.685
1707.146 20.555 22.985 24.825 25.895 26.455 26.335 25.455 24.085 21.545 18.375
1726.435 15.215 12.485 10.265 8.525 7.335 6.115 5.145 4.665 4.215 3.865
1745.725 3.695 3.755 3.665 3.595 3.555 3.615 3.545 3.415 3.345 3.205
1765.015 3.135 2.665 2.255 2.125 1.955 1.8322 1.6707 1.6359 1.6376 1.5928
1784.305 1.5305 1.4651 1.5426 1.3879 1.3463 1.3077 1.2407 1.3254 1.3107 1.4768
1803.594 1.5455 1.3573 1.3883 1.4994 1.3287 1.2352 1.1496 1.0567 1.2708 1.3359
1822.884 1.2209 1.1882 1.1652 1.1789 1.1402 1.0558 1.2042 1.3094 1.235 1.2045
1842.174 1.1744 1.2117 1.18 1.0325 0.9726 1.0562 1.112 1.0869 1.1538 1.2736
1861.464 1.2406 1.1394 1.2326 1.2695 1.1863 1.142 1.1044 1.1547 1.241 1.2068
1880.754 1.149 1.167 1.1399 1.0477 0.9985 1.2297 1.3212 1.1567 1.0904 1.1123
1900.043 1.1955 1.0157 0.9616 1.1636 1.169 0.90597 0.87617 1.0069 0.9416 0.87254
1919.333 0.8121 0.9748 1.0082 0.9358 0.9844 1.113 1.1175 1.0772 1.216 1.231
1938.623 1.1192 1.0168 1.0709 1.0669 0.941 0.90721 0.9448 0.9864 0.7996 0.8072
1957.913 0.92659 0.93083 0.89136 0.87263 1.0615 1.0062 0.91266 0.89158 0.87897 0.91344
1977.202 0.8209 0.8062 0.834264 0.8898 0.93298 1.0652 1.0828 0.90732 0.85135 0.8873
1996.492 0.89417 0.681 0.599 0.7411 0.692 0.7377 0.7733 0.718 0.87143 0.91619
2015.782 0.8126 0.7496 0.8028 0.8016 0.7393 0.7716 0.8225 0.82783 0.7946 0.7954
2035.072 0.839397 0.716 0.793 1.0275 1.1179 1.012 0.8047 0.85244 0.937 0.840135
2054.362 0.88577 1.0589 1.0525 0.90472 0.8221 0.89088 0.840252 0.88861 0.9921 0.90444
2073.651 0.9974 1.049 0.90871 0.83864 0.87568 0.92369 0.9394 1.0714 0.92817 0.8248
2092.941 0.9472 0.7518 0.698 0.9734 1.1534 0.97 0.7954 0.86737 0.9598 0.9642
2112.231 0.79 0.7847 0.88436 0.7878 0.708 0.7569 0.82666 0.7365 0.486 0.539
2131.521 0.9465 0.9651 0.7537 0.712 0.695 0.672 0.531 0.72 0.9821 0.7998
2150.810 0.85022 1.0071 1.0193 1.0722 1.0321 0.9777 1.0161 0.91369 0.7404 0.76
2170.100 0.715 0.681 0.7961 0.7534 0.835359 0.86345 0.7639 0.756 0.713 0.731
2189.390 0.7624 0.82535 0.628 0.558 0.695 0.629 0.8015 1.174 1.0827 0.7645
2208.680 0.699 0.694 0.91984 0.9724 0.7771 0.8125 0.87029 0.93198 0.9998 0.732
2227.970 0.596 0.7576 0.722 0.7484 0.91069 0.9998 0.91183 0.813 0.691 0.731
2247.259 0.91348 1.0122 1.0384 0.9565 0.82545 0.728 0.7659 0.722 0.725 0.7898
2266.549 0.639 0.619 0.8178 0.784 0.711 0.9541 1.026 1.0461 0.9759 0.7723
2285.839 0.8197 0.91913 0.9595 0.9504 1.0183 1.0103 0.734 0.8137 0.9655 0.87419
2305.129 0.9729 0.86851 0.764 0.7612 0.7892 0.7926 0.613 0.609 0.8014 0.8176
2324.418 0.82935 0.92738 0.883 0.731 0.399 0.539 0.7791 0.9352 1.1111 0.85935
2343.708 0.7671 0.85212 0.7432 0.617 0.91288 1.0103 0.699 0.666 0.7563 0.681
2362.998 0.532 0.568 0.689 0.7443 0.497 0.612 0.85364 0.726 0.7908 0.9836
2382.288 0.9883 0.92182 1.043 0.88246 0.669 0.83009 0.675 0.456 0.567 0.669
2401.578 0.84522 0.7917 0.69 0.8061 0.89336 0.7515 0.519 0.716 1.0948 0.89915
2420.867 0.686 0.7831 0.732 0.776 1.0331 0.713 0.498 0.563 0.375 0.571
2440.157 1.0026 1.1186 0.9875 1.1494 0.9382 0.8664 0.8253 0.515 0.7905 0.9736
2459.447 0.924 0.90509 0.726 0.559 0.587 0.471 0.499 0.686 0.662 0.456
2478.737 0.478 0.841081 1.1093 0.90154 0.8782 0.87776 0.7611 0.7367 0.648 0.8224
2498.026 0.968 0.725 0.559 0.86351 0.8848 0.768 0.7434 0.73 0.91337 0.7784
2517.316 0.582 0.522 0.592 0.7421 0.684 0.555 0.693 0.7848 0.584 0.717
2536.606 0.7895 0.9372 1.0356 0.67 0.601 0.85254 0.7945 0.8083 1.1591 1.1793
2555.896 0.633 0.655 0.7529 0.596 0.716 0.722 0.7498 0.87046 1.1185 1.0015
2575.186 0.92747 0.9491 0.459 0.512 0.7 0.643 0.88499 0.85255 0.587 0.699
2594.475 0.7792 0.8233 0.90036 0.688 0.614 0.85579 1.0334 1.0862 1.0783 0.91115
2613.765 0.698 0.666 1.2112 1.415 1.1341 1.1477 1.1705 0.8199 0.89948 1.0739
2633.055 0.9567 0.7353 0.501 0.682 0.638 0.692 0.88056 0.7675 0.692 0.792
2652.345 0.87588 0.604 0.457 0.677 0.88732 0.83215 0.649 0.87992 1.1635 0.89577
2671.634 0.842736 0.9696 0.732 0.704 0.666 0.639 0.8191 0.687 0.591 0.7494
2690.924 0.584 0.711 0.92618 0.92869 0.92953 0.9764 0.689 0.503 0.726 0.672
2710.214 0.605 0.643 0.477 0.338 0.6 0.651 0.7416 0.727 0.571 0.7724
2729.504 1.1396 1.0813 0.88119 0.594 0.314 0.7354 1.0065 0.715 0.718 0.7531
2748.794 0.692 0.8066 0.73 0.622 0.467 0.44 0.808 1.0585 0.90792 0.8111
2768.083 0.769 0.7599 0.7742 0.89536 1.1055 1.0276 0.7999 0.508 0.467 0.638
2787.373 0.88342 1.0409 0.90101 0.654 0.366 0.472 0.7816 0.92194 1.2519 1.4011
2806.663 1.274 1.0674 0.9513 0.7979 0.698 0.665 0.52 0.83242 0.9581 0.647
2825.953 0.603 0.90077 0.9944 0.817 0.691 0.585 0.707 0.89172 0.7939 0.7741
2845.242 0.672 0.495 0.88232 1.2114 0.9609 0.606 0.506 0.8018 0.844522 0.842183
2864.532 1.0934 1.1783 0.87322 0.632 0.712 0.435 0.301 0.7542 0.8154 0.426
2883.822 0.89848 0.9784 0.508 0.776 0.7799 0.7877 0.9929 0.7418 1.015 1.0544
2903.112 0.93047 1.0837 0.9979 1.3182 0.9644 0.169 0 0.34 0.482 0.7369
2922.401 1.151 1.0796 0.89286 0.689 0.71 0.84592 0.7977 0.657 0.551 0.386
2941.691 0.543 0.7502 0.508 0.424 0.718 0.82513 0.45 0.416 0.583 0.718
2960.981 0.582 0.46 0.7553 0.89251 0.85205 0.516 0.488 0.395 0.211 0.209
2980.271 0.504 0.7819 0.7544 0.9542 0.9489 0.7701 0.617 0.499 0.447 0.648
2999.561 0.88061 0.552 0.139 0.301 0.397 0.517 0.7694 1.0267 1.087 1.006
3018.850 1.1248 1.0663 0.92204 1.0498 0.83064 0.85796 1.2437 1.27 1.2076 1.2088
3038.140 1.2542 1.3786 1.7086 1.5456 1.4035 1.6818 1.7218 2.125 2.725 2.805
3057.430 2.705 2.775 3.025 3.125 3.125 3.275 3.475 3.425 3.375 3.245
3076.720 3.065 2.985 2.965 2.425 1.6359 2.005 2.265 1.855 1.845 2.115
3096.009 2.155 1.8324 1.6333 1.5523 1.3376 1.3516 1.0521 0.464 0.395 0.657
3115.299 0.9842 1.195 1.3658 1.3018 1.2748 1.2428 0.842128 0.717 0.479 0.333
3134.589 0.293 0.409 1.0733 1.4356 1.5123 1.2688 1.1188 1.0219 1.3494 1.2185
3153.879 0.88028 1.0842 0.537 0.091 0.489 0.82712 0.736 0.551 0.766 1.0233
3173.169 1.1423 1.3675 1.0043 0.591 0.90388 0.7895 0.228 0.418 0.609 0.678
3192.458 0.91721 0.91238 1.1581 1.4467 1.135 0.85173 0.9503 0.9927 0.8032 0.653
3211.748 0.415 0.128 0.421 0.87241 0.724 0.271 0.456 0.839222 0.471 0.533
3231.038 0.663 0.619 0.419 0.301 0.7531 1.0014 0.9576 0.836643 1.0112 0.9374
3250.328 0.691 0.408 0.314 0.4 0.538 0.729 0.417 0.484 0.389 0.392
3269.617 0.82778 0.596 0.714 1.0935 0.7 0.629 0.82518 0.604 0.222 0.625
3288.907 0.676 0.483 0.457 0.48 0.712 0.548 0.481 0.33 0.481 1.1045
3308.197 0.9688 0.093 0.15 0.685 0.9446 0.616 0.615 0.9436 0.585 0.539
3327.487 0.684 0.728 0.671 0.616 0.311 0.135 0.86636 0.91395 0.86624 1.109
3346.777 0.9773 0.88787 0.85427 0.733 0.528 0.7754 1.0234 0.9169 1.1048 1.1664
3366.066 0.697 0.214 0.466 0.88157 0.616 0.658 1.0832 0.7368 0.7826 1.2986
3385.356 1.064 0.87711 0.9557 0.89769 1.2102 1.1713 1.0397 1.7497 1.7675 1.4714
3404.646 1.935 2.035 2.055 2.385 2.135 2.025 2.295 2.505 2.515 3.145
3423.936 3.785 3.325 3.585 3.845 3.525 3.425 3.185 3.075 3.135 2.545
3443.225 1.7269 1.2881 1.2224 1.6702 1.58 1.452 1.5582 1.3975 1.438 1.4425
3462.515 1.1671 1.2116 1.0343 0.7925 0.9978 1.1658 0.9524 0.7887 0.9623 0.9378
3481.805 0.8634 1.0033 1.4302 1.6321 1.146 0.9974 0.9758 0.93301 1.241 0.7376
3501.095 0.7608 1.2255 1.1408 0.89972 0.55 1.2215 1.5217 1.3912 1.845 1.6307
3520.385 1.7117 2.445 2.475 2.075 1.799 1.7701 1.895 2.005 2.075 2.125
3539.674 1.935 1.985 2.405 2.945 3.315 3.135 2.795 2.615 1.975 1.8328
3558.964 2.185 1.7024 1.766 1.965 1.2351 1.1495 1.19 0.9078 0.840539 0.542
3578.254 0.63 0.722 0.88586 0.9451 1.0132 1.1611 0.7864 0.7873 0.7941 0.727
3597.544 0.90932 1.1608 1.0581 1.1612 1.6514 1.2034 0.8034 1.2013 1.1224 0.91522
3616.833 0.85753 0.92404 0.723 0.064 0.018 0.602 1.2989 1.1606 0.835111 0.694
3636.123 0.231 0.111 0.166 0.464 0.582 0.423 0.543 0.564 0.48 0.501
3655.413 1.0348 1.5283 1.5303 1.223 1.0298 0.8039 0.375 0.401 0.8538 0.834916
3674.703 0.92451 1.0516 1.1314 1.2209 0.656 0.638 0.986 0.6 0.283 0.065
3693.993 0.468 1.1197 0.7769 0.91975 1.1043 0.89875 1.0154 1.1422 1.1145 0.689
3713.282 0.586 0.93327 1.1544 0.9809 1.2413 1.3252 0.88797 0.9819 1.1361 1.1493
3732.572 0.9912 0.405 0.087 0.573 0.395 0.215 0.494 0.456 0.455 0.63
3751.862 1.0592 1.1476 0.8262 1.0183 0.9906 0.588 0.642 0.7859 0.8106 0.587
3771.152 0.52 0.708 0.439 0.029 0.567 1.1944 0.569 0.707 1.1418 0.92173
3790.441 1.0298 1.0665 0.7747 0.492 0.84832 0.87252 0.7887 0.7399 0.407 0.123
3809.731 0.361 0.635 0.617 0.91497 0.7598 0.399 0.402 1.0459 1.1026 0.61
3829.021 0.681 0.61 0.28 0.113 0.346 0.88413 1.126 0.8248 0.779 0.9462
3848.311 0.684 0.387 0.548 0.413 0.137 0.714 0.8082 0.101 0.44 0.7657
3867.601 0.67 1.1935 1.1964 1.0162 1.0147 0.579 0.522 0.576 0.409 0.224
3886.890 0.169 0.646 1.4255 1.7383 1.3479 1.0025 0.7965 0.61 0.7374 0.7571
3906.180 0.421 0.623 0.8681 0.7714 0.7741 0.59 0.497 0.487 0.426 0.659
3925.470 0.8614 1.1481 1.2871 0.89868 0.733 0.89163 1.1779 0.9818 0.613 0.7952
3944.760 0.87267 0.707 0.448 0.277 0.363 0.461 0.27 0.434 0.82559 0.447
3964.049 0.642 1.3212 0.9596 0.395 0.507 0.9386 0.8004 0.358 0.335 0.679
3983.339 0.840839 0.86959 0.633 0.7631 0.90279 0.8007 1.1542 0.9383 0.7422 0.408
##END=
