##TITLE=2,6-Dimethylbenzoic acid
##JCAMP-DX=4.24
##DATA TYPE=INFRARED SPECTRUM
##ORIGIN=EPA-IR VAPOR PHASE LIBRARY
##OWNER=SRD/NIST
Collection (C) 2018 copyright by the U.S. Secretary of Commerce
on behalf of the United States of America. All rights reserved.
##CAS REGISTRY NO=632-46-2
##MOLFORM=C 9 H 10 O 2
##$NIST SOURCE=MSDC-IR
##STATE=gas
##XUNITS=1/CM
##YUNITS=ABSORBANCE
##XFACTOR=1.
##YFACTOR=0.001
##DELTAX=3.85796
##FIRSTX=551.7
##LASTX=4000.7
##FIRSTY=4.798
##MAXX=4000.7
##MINX=551.688
##MAXY=0.043478
##MINY=0
##NPOINTS=895
##XYDATA=(X++(Y..Y))
551.688 4.798 5.708 6.348 6.618 6.678 6.488 6.208 6.168 6.178 6.198
590.268 6.188 5.958 5.648 5.118 4.238 3.218 2.478 1.858 1.448 1.328
628.847 1.268 1.08 0.9436 1.0046 1.0276 0.9787 1.0015 1.118 1.278 1.778
667.427 3.038 5.008 6.608 7.858 8.118 7.238 5.738 3.768 2.378 1.838
706.006 1.738 1.808 2.088 2.438 2.538 2.618 2.698 2.658 2.618 2.588
744.586 2.808 3.518 4.648 6.038 7.158 9.098 11.308 9.758 7.438 6.488
783.165 5.088 3.908 3.098 2.438 1.748 1.198 0.9602 0.7977 0.632 0.5619
821.745 0.4386 0.3537 0.4327 0.4919 0.5086 0.5239 0.467 0.4589 0.4102 0.3456
860.324 0.4025 0.4278 0.3357 0.4159 0.3241 0.2376 0.3125 0.27 0.2691 0.3063
898.904 0.3413 0.3243 0.2609 0.244 0.2881 0.4239 0.4864 0.4529 0.5017 0.4956
937.484 0.527 0.5845 0.6046 0.6234 0.616 0.6086 0.6051 0.6905 0.7539 0.7904
976.063 0.7806 0.7813 0.7638 0.8314 0.972 0.9201 1.0836 1.318 1.438 1.628
1014.643 1.818 2.098 2.378 2.648 3.128 3.928 5.158 6.958 9.328 12.308
1053.222 15.258 17.118 17.618 16.408 13.998 11.378 9.198 7.548 6.678 6.898
1091.802 7.798 8.808 9.698 10.768 10.598 9.088 7.478 5.778 4.508 3.628
1130.381 3.188 3.078 3.008 3.338 3.898 4.428 5.148 5.838 6.698 7.968
1168.961 9.338 10.848 12.728 14.598 16.178 17.018 16.438 14.538 11.798 9.088
1207.540 6.728 4.998 3.908 3.258 2.868 2.768 2.748 2.458 2.358 2.378
1246.120 2.378 2.538 2.628 2.688 2.998 3.298 3.568 3.958 4.408 4.988
1284.699 5.708 6.528 7.208 7.748 8.028 7.898 7.468 6.758 5.948 5.158
1323.279 4.438 3.868 3.418 3.068 2.798 2.568 2.388 2.268 2.158 2.078
1361.859 2.018 2.008 2.048 2.078 2.148 2.238 2.268 2.228 2.158 1.978
1400.438 1.768 1.678 1.718 1.868 2.058 2.338 2.608 2.798 2.928 2.998
1439.018 3.008 3.088 3.278 3.618 3.988 4.268 4.428 4.448 4.298 3.958
1477.597 3.578 3.188 2.778 2.408 2.078 1.788 1.578 1.418 1.288 1.188
1516.177 1.148 1.178 1.198 1.238 1.338 1.368 1.398 1.408 1.398 1.418
1554.756 1.458 1.508 1.538 1.708 1.938 2.158 2.468 2.798 3.158 3.418
1593.336 3.368 3.008 2.438 1.838 1.358 1.0575 0.8603 0.7434 0.6781 0.6217
1631.915 0.592 0.5739 0.5949 0.6529 0.7557 0.8191 0.7664 0.7403 0.8133 0.8692
1670.495 0.8586 0.8672 0.9039 0.967 1.0267 1.0574 1.228 1.548 1.938 2.438
1709.075 3.078 3.818 4.578 5.228 5.698 6.148 6.828 8.128 10.468 14.428
1747.654 20.148 27.268 34.458 40.638 43.478 39.408 31.298 23.658 16.768 11.638
1786.234 8.888 7.608 6.808 5.958 4.958 3.868 2.888 2.148 1.688 1.438
1824.813 1.268 1.158 1.0829 1.0536 1.0647 1.0802 1.0817 1.0617 1.0362 0.9698
1863.393 0.8504 0.7159 0.5857 0.5034 0.4511 0.3937 0.3241 0.2862 0.2774 0.2609
1901.972 0.2654 0.2706 0.2993 0.3264 0.3526 0.4221 0.506 0.5568 0.5806 0.5803
1940.552 0.5428 0.4875 0.4111 0.3836 0.3671 0.3309 0.3174 0.2862 0.2603 0.2365
1979.131 0.2473 0.2542 0.2255 0.2159 0.2159 0.17496 0.14893 0.16022 0.18378 0.20271
2017.711 0.17754 0.14504 0.115593 0.115972 0.14143 0.13382 0.0943 0.114462 0.1499 0.17371
2056.291 0.20039 0.178 0.13465 0.12029 0.15598 0.18867 0.16604 0.14881 0.18473 0.2187
2094.870 0.2138 0.19943 0.19414 0.19183 0.18935 0.2204 0.2654 0.2707 0.2491 0.2597
2133.450 0.2662 0.2535 0.2604 0.2247 0.2224 0.2347 0.2312 0.2559 0.2722 0.2455
2172.029 0.20281 0.19253 0.17775 0.16477 0.15526 0.13991 0.1282 0.10634 0.098 0.11828
2210.609 0.12185 0.15196 0.18688 0.17043 0.12704 0.094 0.12231 0.13788 0.13324 0.14648
2249.188 0.16907 0.17966 0.15769 0.1298 0.12884 0.16288 0.15834 0.13982 0.13988 0.14404
2287.768 0.16347 0.14682 0.13658 0.13787 0.13638 0.16553 0.19019 0.20338 0.20173 0.19574
2326.347 0.19215 0.20277 0.2198 0.2369 0.2341 0.19961 0.2262 0.2551 0.2533 0.2767
2364.927 0.2833 0.2629 0.2292 0.2304 0.2199 0.17387 0.16062 0.19877 0.2155 0.19139
2403.507 0.1808 0.1658 0.17019 0.19523 0.2133 0.2133 0.19876 0.18612 0.1978 0.19442
2442.086 0.18475 0.2081 0.17122 0.14267 0.16526 0.14923 0.18811 0.20508 0.16367 0.17902
2480.666 0.15546 0.13477 0.15974 0.17062 0.16728 0.14619 0.116492 0.115785 0.12786 0.13663
2519.245 0.14422 0.14187 0.13296 0.10499 0.0899 0.10418 0.1418 0.15589 0.13088 0.11984
2557.825 0.10613 0.110468 0.13096 0.12727 0.12693 0.13471 0.14563 0.12827 0.089 0.059
2596.404 0.0728 0.10685 0.10562 0.088 0.0967 0.1506 0.17885 0.18678 0.17443 0.15758
2634.984 0.14753 0.16375 0.17872 0.17112 0.1657 0.13535 0.11893 0.1261 0.12694 0.0956
2673.563 0.113452 0.1368 0.116751 0.0958 0.0773 0.0705 0.0499 0.0703 0.11115 0.10604
2712.143 0.109048 0.0755 0.072 0.15197 0.20315 0.2032 0.19989 0.2261 0.2612 0.2879
2750.722 0.3214 0.3341 0.3165 0.3013 0.2639 0.2555 0.2228 0.20105 0.2147 0.20218
2789.302 0.20498 0.2272 0.2991 0.3223 0.2713 0.3033 0.3603 0.3859 0.4579 0.4981
2827.882 0.5407 0.6189 0.5832 0.5437 0.6459 0.7793 0.8804 1.0297 1.228 1.428
2866.461 1.628 1.838 1.958 2.028 2.128 2.128 2.068 2.108 2.068 1.978
2905.041 1.988 2.098 2.218 2.408 2.758 3.208 3.808 4.368 4.738 4.938
2943.620 4.898 4.548 4.128 3.708 3.348 3.208 3.218 3.318 3.428 3.478
2982.200 3.438 3.308 3.108 2.848 2.638 2.488 2.408 2.388 2.478 2.628
3020.779 2.838 3.068 3.238 3.328 3.348 3.358 3.298 3.378 3.658 3.958
3059.359 4.228 4.478 4.588 4.428 4.048 3.488 2.758 2.058 1.528 1.138
3097.938 0.8522 0.661 0.5827 0.5708 0.4968 0.428 0.4314 0.4187 0.4658 0.4661
3136.518 0.3896 0.3651 0.3119 0.2743 0.2947 0.2976 0.2404 0.2067 0.1907 0.18812
3175.098 0.18119 0.16754 0.17575 0.20007 0.2109 0.1451 0.0931 0.107278 0.14182 0.16235
3213.677 0.0928 0.091 0.113615 0.0973 0.14633 0.1282 0.0894 0.115236 0.16068 0.13449
3252.257 0.058 0.0239 0.0379 0.0692 0.0274 0.001 0.017 0.006 0.117694 0.2176
3290.836 0.13719 0.0935 0.0897 0.0354 0.0712 0.111532 0.113533 0.0713 0.0657 0.111835
3329.416 0.12917 0.16172 0.13772 0.109451 0.12597 0.11842 0.112876 0.16879 0.2581 0.2576
3367.995 0.14841 0.12559 0.2114 0.2041 0.17402 0.14864 0.12121 0.18265 0.2164 0.227
3406.575 0.2115 0.116168 0.0954 0.1376 0.17287 0.20174 0.2144 0.2244 0.20429 0.0932
3445.154 0.0653 0.114038 0.16763 0.2453 0.2812 0.3315 0.3272 0.2546 0.2448 0.281
3483.734 0.283 0.3321 0.4665 0.5569 0.5432 0.515 0.5418 0.6388 0.6091 0.5648
3522.314 0.6348 0.6087 0.6735 0.9898 1.498 2.478 4.478 7.648 10.718 12.568
3560.893 12.758 11.338 8.688 5.268 2.588 1.318 0.8064 0.6279 0.5253 0.4204
3599.473 0.4377 0.5202 0.5394 0.4987 0.4804 0.4409 0.3717 0.3206 0.232 0.17977
3638.052 0.15268 0.10149 0.12721 0.2338 0.2274 0.2427 0.18185 0.0284 0.0537 0.0969
3676.632 0.0842 0.110983 0.0822 0.117148 0.114939 0.0134 0.0189 0.0375 0.0746 0.16569
3715.211 0.2324 0.16236 0.0519 0.0521 0.0201 0.0408 0.12964 0.0922 0.107218 0.18799
3753.791 0.1237 0.0318 0.014 0.0955 0.15756 0.0744 0.046 0.064 0.0618 0.14394
3792.370 0.18092 0.14582 0.157 0.1957 0.2131 0.15664 0.0875 0.0679 0.0389 0.107069
3830.950 0.19709 0.15067 0.12876 0.14077 0.15532 0.14561 0.0608 0.008 0.0196 0.0151
3869.530 0.0243 0.0492 0.0675 0.14189 0.14996 0.113364 0.0608 0 0.0762 0.11805
3908.109 0.10432 0.0729 0.0754 0.109449 0.11903 0.15489 0.17899 0.20567 0.2172 0.2517
3946.689 0.2227 0.13203 0.13448 0.14541 0.12128 0.16375 0.16862 0.13128 0.18043 0.17029
3985.268 0.113638 0.0602 0.0784 0.18206 0.15614
##END=
