##TITLE=Tetraphenylethylene
##JCAMP-DX=4.24
##DATA TYPE=INFRARED SPECTRUM
##ORIGIN=NIST Mass Spectrometry Data Center
##OWNER=NIST Standard Reference Data Program
Collection (C) 2018 copyright by the U.S. Secretary of Commerce
on behalf of the United States of America. All rights reserved.
##CAS REGISTRY NO=632-51-9
##MOLFORM=C 26 H 20
##$NIST SOURCE=MSDC-IR
##SPECTROMETER/DATA SYSTEM=HP-GC/MS/IRD
##STATE=gas
##XUNITS=1/CM
##YUNITS=ABSORBANCE
##XFACTOR=1.0
##YFACTOR=0.000003000
##DELTAX=4.0
##FIRSTX=550.0
##LASTX=3846.0
##FIRSTY=0.000315
##MAXX=3846
##MINX=550
##MAXY=0.03
##MINY=0
##NPOINTS=825
##XYDATA=(X++(Y..Y))
550.0 105 51 79 390 1007 1321 887 368 159 107
590.0 71 27 54 150 404 946 1593 1955 1937 1450
630.0 692 285 224 224 237 245 307 417 563 775
670.0 944 1008 1036 1260 2021 4127 7736 10000 8547 5219
710.0 2781 1545 941 696 625 697 1021 1778 2754 3482
750.0 3721 3167 2050 1232 970 896 695 450 309 226
790.0 184 172 175 188 191 175 180 194 188 168
830.0 161 175 149 90 61 64 95 135 141 113
870.0 81 72 68 59 60 65 84 126 188 247
910.0 295 308 251 158 92 69 66 56 51 58
950.0 55 61 82 100 119 156 199 231 215 164
990.0 144 169 226 258 242 209 224 311 496 827
1030.0 1046 853 453 204 126 107 115 180 316 526
1070.0 752 787 562 296 162 112 89 109 145 145
1110.0 108 63 33 21 8 0 6 8 9 24
1150.0 41 46 52 58 59 70 94 130 142 115
1190.0 78 53 51 56 46 38 44 56 73 103
1230.0 136 150 129 108 98 115 149 178 216 255
1270.0 257 204 162 147 138 133 128 120 103 86
1310.0 86 89 91 109 150 196 197 139 85 62
1350.0 49 54 64 80 107 140 155 148 132 105
1390.0 94 97 96 103 103 90 94 121 155 199
1430.0 289 485 847 1231 1228 789 418 272 232 232
1470.0 264 364 568 967 1603 2156 2033 1321 728 484
1510.0 363 283 232 207 214 243 264 255 213 168
1550.0 135 123 147 190 278 392 483 524 539 642
1590.0 882 1185 1325 1134 750 434 262 168 117 91
1630.0 85 86 84 85 98 117 128 139 153 162
1670.0 169 177 175 151 120 95 84 89 84 78
1710.0 86 92 105 116 122 138 165 192 210 223
1750.0 217 178 137 116 119 130 135 143 161 213
1790.0 315 423 457 387 299 256 235 204 167 140
1830.0 114 100 98 95 91 95 117 150 188 237
1870.0 287 315 322 313 290 260 211 155 120 98
1910.0 89 94 113 149 198 283 397 485 469 400
1950.0 380 363 282 171 96 70 67 66 62 55
1990.0 46 44 46 48 43 38 41 44 40 34
2030.0 38 40 33 32 38 41 42 37 28 26
2070.0 30 27 27 31 35 37 38 40 37 30
2110.0 28 29 31 30 30 32 29 29 32 31
2150.0 31 31 27 29 37 41 47 47 41 38
2190.0 42 41 37 36 35 36 34 32 32 33
2230.0 32 30 33 37 39 42 46 47 42 39
2270.0 42 46 49 50 51 54 51 49 56 75
2310.0 102 102 81 68 66 77 93 97 87 67
2350.0 55 54 57 62 61 49 36 35 38 36
2390.0 39 42 42 46 48 48 52 51 48 50
2430.0 53 50 45 38 35 39 41 41 46 44
2470.0 41 43 45 40 36 38 35 32 31 33
2510.0 43 46 45 43 38 36 38 41 34 33
2550.0 35 34 43 48 52 56 53 52 51 49
2590.0 54 60 61 59 51 46 46 49 50 52
2630.0 49 38 38 39 40 38 35 35 31 31
2670.0 32 33 33 29 31 36 34 27 31 34
2710.0 28 29 34 38 46 43 36 39 38 34
2750.0 44 41 35 42 45 45 49 51 45 46
2790.0 50 48 49 53 55 55 47 44 44 50
2830.0 52 54 66 73 73 76 82 84 82 83
2870.0 88 100 107 97 92 90 89 86 87 94
2910.0 88 82 94 109 125 121 104 93 88 88
2950.0 82 82 98 110 131 148 149 145 153 175
2990.0 202 245 307 399 539 757 1067 1484 1935 2292
3030.0 2415 2232 1889 1671 1683 1924 2462 3441 4780 5557
3070.0 5007 4027 3614 3336 2721 2024 1548 1276 1054 813
3110.0 593 435 338 279 243 239 235 227 227 221
3150.0 198 164 133 112 96 81 78 74 71 74
3190.0 68 62 52 44 41 36 39 47 58 54
3230.0 43 44 40 33 30 28 29 37 35 33
3270.0 38 39 41 40 32 36 41 36 41 45
3310.0 39 39 48 47 33 32 48 54 44 41
3350.0 44 39 38 43 48 52 54 53 47 40
3390.0 37 44 43 34 30 32 39 44 48 43
3430.0 45 47 41 33 39 44 45 58 51 39
3470.0 38 35 35 46 50 46 44 45 45 46
3510.0 47 43 50 63 65 57 50 49 45 38
3550.0 37 42 45 54 58 53 45 38 41 38
3590.0 43 51 41 38 44 58 63 54 60 70
3630.0 67 59 65 78 81 75 66 71 68 64
3670.0 68 71 67 65 76 79 75 73 73 70
3710.0 68 67 65 61 60 68 78 72 66 70
3750.0 69 64 63 60 51 44 42 44 44 46
3790.0 39 38 54 69 71 65 61 66 60 49
3830.0 49 51 46 44 42
##END=
