##TITLE=1,1,2,2-Tetraphenylethane
##JCAMP-DX=4.24
##DATA TYPE=INFRARED SPECTRUM
##ORIGIN=NIST Mass Spectrometry Data Center
##OWNER=NIST Standard Reference Data Program
Collection (C) 2018 copyright by the U.S. Secretary of Commerce
on behalf of the United States of America. All rights reserved.
##CAS REGISTRY NO=632-50-8
##MOLFORM=C 26 H 22
##$NIST SOURCE=MSDC-IR
##SPECTROMETER/DATA SYSTEM=HP-GC/MS/IRD
##STATE=gas
##XUNITS=1/CM
##YUNITS=ABSORBANCE
##XFACTOR=1.0
##YFACTOR=0.000002000
##DELTAX=4.0
##FIRSTX=550.0
##LASTX=3846.0
##FIRSTY=0.000706
##MAXX=3846
##MINX=550
##MAXY=0.02
##MINY=0
##NPOINTS=825
##XYDATA=(X++(Y..Y))
550.0 353 936 1202 1310 1152 763 444 314 239 246
590.0 279 374 635 1429 2734 3171 2153 984 476 275
630.0 232 238 210 207 239 288 363 458 600 812
670.0 1006 1172 1376 1744 2637 4968 8464 10000 8021 4895
710.0 2835 1800 1279 1066 1115 1590 2911 4475 4618 3205
750.0 1743 1028 714 549 469 417 363 344 335 314
790.0 290 249 215 197 181 152 125 120 122 115
830.0 61 64 85 49 57 73 65 64 84 97
870.0 85 87 84 82 79 76 108 149 187 233
910.0 260 251 211 160 131 108 89 76 46 14
950.0 12 23 45 63 65 93 95 60 72 97
990.0 93 101 140 210 231 198 196 240 377 696
1030.0 1044 1006 574 248 123 85 111 178 305 494
1070.0 712 760 553 306 183 132 92 112 165 157
1110.0 92 56 65 61 54 46 53 62 77 82
1150.0 70 77 88 90 97 135 183 223 252 229
1190.0 182 165 173 198 215 218 203 166 160 164
1230.0 185 191 163 142 128 132 130 123 130 132
1270.0 139 144 151 159 156 145 139 132 129 127
1310.0 125 138 159 179 201 252 309 308 251 193
1350.0 166 159 149 148 157 176 191 188 163 137
1390.0 124 115 108 114 121 119 126 146 161 194
1430.0 256 336 453 681 1060 1360 1211 751 428 326
1470.0 341 411 565 868 1443 2290 2936 2800 1945 1055
1510.0 530 323 259 236 218 223 209 190 159 136
1550.0 136 148 177 215 274 349 449 624 844 1070
1590.0 1320 1604 1766 1619 1207 765 471 301 205 158
1630.0 131 123 117 115 132 152 162 155 130 106
1670.0 97 93 85 71 73 73 79 91 85 87
1710.0 96 110 129 125 128 153 179 178 166 162
1750.0 151 136 125 128 139 161 212 271 341 417
1790.0 446 402 319 259 227 193 154 132 113 103
1830.0 102 102 105 117 136 153 172 199 227 242
1870.0 235 227 227 214 200 170 135 117 108 96
1910.0 102 119 139 181 251 359 428 407 345 337
1950.0 370 327 209 116 73 58 51 47 47 46
1990.0 35 29 33 35 30 26 33 33 17 14
2030.0 21 18 15 13 9 12 24 26 24 28
2070.0 31 27 16 15 29 33 16 13 21 16
2110.0 9 13 8 0 10 14 11 7 12 21
2150.0 24 28 20 18 21 8 14 25 17 24
2190.0 26 21 28 21 15 12 18 18 18 30
2230.0 22 24 20 14 22 32 30 23 19 18
2270.0 25 25 15 10 15 29 31 24 28 58
2310.0 80 76 55 42 36 42 42 34 51 51
2350.0 34 36 45 41 46 51 42 39 33 25
2390.0 28 32 27 30 46 44 37 45 47 49
2430.0 40 26 41 37 36 49 37 28 26 31
2470.0 28 34 50 38 45 72 70 51 42 39
2510.0 39 47 48 50 56 46 37 50 54 48
2550.0 51 53 44 37 48 61 72 74 63 62
2590.0 67 64 69 77 71 72 65 47 49 53
2630.0 47 44 50 54 43 38 48 50 52 60
2670.0 43 38 43 38 42 36 31 34 28 20
2710.0 19 29 34 34 31 17 20 24 28 34
2750.0 42 57 53 43 55 61 58 57 72 72
2790.0 67 69 74 76 60 52 46 53 59 55
2830.0 56 65 77 74 77 100 114 113 99 108
2870.0 137 152 157 178 187 205 256 312 397 512
2910.0 661 796 805 679 536 426 343 300 268 224
2950.0 198 183 177 181 186 195 198 209 229 251
2990.0 296 367 453 583 720 848 1069 1532 2292 3301
3030.0 4145 4236 3563 2797 2386 2252 2345 2800 3743 4994
3070.0 5564 4745 3462 2843 2734 2527 2085 1603 1277 1091
3110.0 929 713 500 356 271 235 201 170 154 165
3150.0 176 167 157 134 128 124 105 111 95 56
3190.0 57 87 85 64 34 26 40 32 18 11
3230.0 31 46 43 53 44 39 51 49 41 33
3270.0 31 39 47 48 45 47 62 44 25 42
3310.0 54 39 30 40 42 42 54 56 51 45
3350.0 29 32 32 28 36 37 42 47 33 30
3390.0 34 29 24 22 47 47 40 44 30 20
3430.0 57 81 79 63 45 58 47 33 55 68
3470.0 79 77 49 46 48 50 43 47 75 58
3510.0 37 39 36 40 60 64 42 55 68 59
3550.0 59 52 56 64 70 76 37 30 56 63
3590.0 78 69 52 58 62 65 56 71 89 81
3630.0 68 57 67 78 96 118 94 74 83 85
3670.0 109 107 89 94 106 103 111 99 95 117
3710.0 103 68 54 74 74 66 92 97 89 94
3750.0 78 77 94 89 60 51 54 63 51 54
3790.0 66 94 109 90 88 99 101 84 43 54
3830.0 97 99 90 94 84
##END=
