##TITLE=2,4,6-Tribromotoluene
##JCAMP-DX=4.24
##DATA TYPE=INFRARED SPECTRUM
##ORIGIN=EPA-IR VAPOR PHASE LIBRARY
##OWNER=SRD/NIST
Collection (C) 2018 copyright by the U.S. Secretary of Commerce
on behalf of the United States of America. All rights reserved.
##CAS REGISTRY NO=6320-40-7
##MOLFORM=C 7 H 5 Br 3
##$NIST SOURCE=MSDC-IR
##STATE=gas
##XUNITS=1/CM
##YUNITS=ABSORBANCE
##XFACTOR=1.
##YFACTOR=0.001
##DELTAX=1.92934
##FIRSTX=549.9
##LASTX=3999.5
##FIRSTY=2.274
##MAXX=3999.53
##MINX=549.863
##MAXY=0.044834
##MINY=0
##NPOINTS=1789
##XYDATA=(X++(Y..Y))
549.863 2.274 2.104 1.9151 1.8002 1.7516 1.7194 1.6938 1.7452 1.7164 1.6801
569.156 1.7076 1.6785 1.6644 1.6561 1.6506 1.6349 1.6889 1.8084 1.7418 1.5928
588.450 1.5242 1.5041 1.498 1.522 1.6565 1.6738 1.649 1.6724 1.6501 1.5517
607.743 1.4565 1.5094 1.5104 1.5081 1.4726 1.4182 1.4846 1.4785 1.4217 1.4491
627.037 1.4621 1.4397 1.4018 1.4537 1.6613 1.8469 2.144 2.684 3.434 4.524
646.330 6.184 8.634 11.694 14.594 16.444 16.884 15.834 13.304 9.834 6.574
665.624 4.504 3.454 3.014 3.084 3.484 4.224 5.074 5.804 6.774 7.254
684.917 6.014 4.664 4.114 3.494 2.914 2.624 2.554 2.604 2.734 2.864
704.210 3.064 3.334 3.714 4.294 5.074 6.234 7.984 10.374 13.524 17.304
723.504 21.274 25.114 28.534 30.854 31.264 29.614 26.484 22.374 17.574 12.874
742.797 9.214 6.904 5.494 4.544 3.884 3.374 2.994 2.664 2.434 2.334
762.091 2.134 1.9576 1.9303 1.8461 1.7352 1.6654 1.5688 1.5058 1.5025 1.5574
781.384 1.6243 1.6429 1.7189 1.8986 2.044 2.214 2.554 2.974 3.544 4.304
800.678 5.174 6.294 7.794 9.674 12.284 15.854 20.064 24.114 26.874 27.494
819.971 25.774 21.894 16.514 11.124 7.094 4.794 3.634 3.064 2.844 2.734
839.264 2.744 3.034 3.574 4.354 5.644 7.554 10.004 12.764 15.504 18.124
858.558 20.244 19.124 14.914 11.844 9.454 6.694 4.644 3.334 2.574 2.144
877.851 1.8572 1.7055 1.6412 1.5942 1.595 1.5675 1.571 1.6208 1.6737 1.6557
897.145 1.5975 1.5604 1.4672 1.3467 1.3506 1.3677 1.3102 1.3069 1.314 1.2603
916.438 1.2469 1.2454 1.27 1.2882 1.2856 1.3117 1.3486 1.3702 1.4122 1.4345
935.732 1.4106 1.4776 1.5296 1.6015 1.6962 1.773 1.8914 1.9615 2.064 2.274
955.025 2.584 2.884 3.214 3.624 4.064 4.584 5.194 5.784 6.304 6.844
974.318 7.474 8.144 8.834 9.544 10.254 11.114 12.004 12.794 13.424 13.734
993.612 13.604 12.974 11.924 10.514 9.024 7.704 6.674 5.914 5.304 4.844
1012.905 4.504 4.254 4.034 3.874 3.764 3.724 3.664 3.574 3.594 3.664
1032.199 3.704 3.764 3.854 3.934 4.064 4.234 4.374 4.504 4.644 4.804
1051.492 4.894 4.834 4.634 4.384 4.144 3.854 3.594 3.454 3.324 3.164
1070.786 3.034 2.964 2.854 2.714 2.664 2.564 2.374 2.304 2.244 2.164
1090.079 2.114 2.134 2.164 2.124 2.114 2.164 2.244 2.424 2.754 3.154
1109.372 3.574 3.944 4.154 4.114 3.744 3.224 2.654 2.204 1.984 1.8384
1128.666 1.7467 1.6888 1.5998 1.4774 1.3669 1.313 1.2392 1.25 1.3415 1.3466
1147.959 1.3688 1.4526 1.5726 1.7085 1.7681 1.8183 1.874 1.8341 1.7671 1.6912
1167.253 1.6392 1.734 1.8974 2.024 2.164 2.444 2.744 2.964 3.074 3.024
1186.546 2.814 2.524 2.214 1.9103 1.6535 1.5487 1.6362 1.7628 1.844 1.8224
1205.840 1.7849 1.7646 1.6336 1.4746 1.3725 1.2805 1.2523 1.2979 1.3172 1.3397
1225.133 1.4137 1.4445 1.4892 1.6052 1.7386 1.8914 2.144 2.534 2.934 3.274
1244.426 3.514 3.604 3.534 3.214 2.754 2.274 1.7632 1.4179 1.2603 1.1492
1263.720 1.05506 0.98989 0.9503 0.9537 1.00581 1.01526 1.02484 1.05549 1.0609 1.06732
1283.013 1.05871 1.03022 1.05555 1.0898 1.1002 1.1345 1.106 1.1034 1.0994 1.1239
1302.307 1.1645 1.161 1.2131 1.2745 1.2646 1.3272 1.4368 1.528 1.6023 1.6502
1321.600 1.7116 1.7664 1.788 1.7904 1.8595 2.024 2.294 2.684 3.274 4.204
1340.894 5.574 7.474 10.034 13.124 16.604 19.914 22.254 23.174 22.604 21.014
1360.187 19.124 17.614 17.044 17.704 19.124 20.304 20.604 20.024 18.634 16.714
1379.480 14.914 13.854 13.554 13.674 13.984 14.254 14.194 13.584 12.534 11.394
1398.774 10.374 9.464 8.704 8.204 7.964 7.884 8.004 8.284 8.824 9.774
1418.067 11.304 13.614 16.634 20.624 25.614 31.044 36.124 39.644 40.824 39.424
1437.361 35.624 30.344 24.474 19.104 14.754 11.394 8.824 6.964 5.744 4.964
1456.654 4.554 4.374 4.274 4.224 4.274 4.384 4.444 4.524 4.604 4.614
1475.948 4.534 4.444 4.314 4.184 4.044 3.864 3.714 3.664 3.654 3.624
1495.241 3.664 3.744 3.904 4.184 4.564 5.074 5.784 6.684 7.834 9.344
1514.534 11.124 13.174 15.644 18.434 21.414 24.134 26.434 27.974 28.514 28.004
1533.828 26.594 24.674 22.584 20.614 19.254 18.604 18.754 19.804 21.634 24.284
1553.121 27.614 31.444 35.344 39.084 42.144 44.134 44.834 44.114 41.924 38.104
1572.415 32.904 26.944 20.644 14.764 10.144 6.994 5.094 3.904 3.184 2.754
1591.708 2.424 2.194 2.054 1.9172 1.7641 1.628 1.5704 1.5142 1.4776 1.4703
1611.002 1.4413 1.4072 1.3342 1.2776 1.2637 1.2459 1.2745 1.3061 1.2495 1.1999
1630.295 1.2579 1.3107 1.3489 1.3581 1.3063 1.3339 1.3023 1.2872 1.3269 1.2615
1649.588 1.2403 1.252 1.2424 1.1831 1.1356 1.1518 1.1442 1.06022 1.03487 1.0759
1668.882 1.0836 1.04867 1.0423 1.06932 1.02979 0.9629 0.9435 1.00086 1.06944 1.03218
1688.175 0.97086 0.977743 0.96923 1.01527 1.06562 1.01569 1.0906 1.1969 1.2313 1.333
1707.469 1.4415 1.5962 1.834 2.104 2.424 2.744 3.084 3.404 3.664 3.834
1726.762 3.824 3.654 3.364 3.064 2.734 2.414 2.204 2.094 1.9255 1.7742
1746.056 1.6903 1.5377 1.3809 1.2781 1.147 1.04007 1.01756 1.00052 1.02117 1.0743
1765.349 1.03951 1.01905 1.02777 1.02388 1.01949 0.98852 0.9546 0.9292 0.9073 0.8871
1784.642 0.8775 0.874 0.855 0.847 0.871 0.865 0.822 0.818 0.814 0.79
1803.936 0.798 0.77 0.751 0.76 0.747 0.722 0.705 0.649 0.622 0.618
1823.229 0.595 0.6 0.633 0.637 0.62 0.635 0.66 0.642 0.617 0.639
1842.523 0.658 0.713 0.725 0.687 0.7 0.709 0.71 0.754 0.771 0.761
1861.816 0.721 0.646 0.617 0.607 0.598 0.595 0.565 0.575 0.633 0.629
1881.110 0.595 0.634 0.684 0.696 0.688 0.665 0.632 0.644 0.681 0.641
1900.403 0.62 0.626 0.627 0.654 0.654 0.635 0.608 0.604 0.599 0.585
1919.696 0.611 0.596 0.558 0.586 0.635 0.637 0.588 0.535 0.532 0.563
1938.990 0.599 0.574 0.545 0.552 0.553 0.517 0.51 0.581 0.568 0.503
1958.283 0.52 0.542 0.52 0.516 0.515 0.49 0.453 0.471 0.538 0.529
1977.577 0.48 0.514 0.543 0.535 0.547 0.542 0.519 0.52 0.557 0.522
1996.870 0.486 0.517 0.527 0.505 0.495 0.54 0.543 0.518 0.539 0.554
2016.164 0.575 0.603 0.571 0.538 0.531 0.557 0.6 0.599 0.585 0.595
2035.457 0.603 0.585 0.59 0.607 0.614 0.628 0.595 0.608 0.647 0.601
2054.750 0.562 0.552 0.547 0.546 0.586 0.612 0.572 0.515 0.528 0.536
2074.044 0.504 0.519 0.502 0.472 0.478 0.469 0.473 0.507 0.533 0.536
2093.337 0.49 0.48 0.49 0.484 0.496 0.5 0.505 0.483 0.461 0.462
2112.631 0.462 0.456 0.452 0.445 0.439 0.44 0.479 0.478 0.419 0.404
2131.924 0.405 0.391 0.386 0.412 0.432 0.458 0.459 0.443 0.417 0.419
2151.218 0.43 0.44 0.484 0.48 0.462 0.48 0.501 0.467 0.431 0.462
2170.511 0.486 0.442 0.449 0.493 0.464 0.48 0.499 0.494 0.462 0.432
2189.804 0.454 0.465 0.465 0.47 0.503 0.493 0.462 0.474 0.498 0.483
2209.098 0.496 0.51 0.482 0.479 0.468 0.467 0.461 0.46 0.463 0.492
2228.391 0.534 0.496 0.426 0.409 0.431 0.444 0.474 0.469 0.452 0.498
2247.685 0.474 0.453 0.489 0.502 0.506 0.479 0.437 0.435 0.455 0.461
2266.978 0.432 0.421 0.452 0.451 0.451 0.45 0.452 0.469 0.496 0.495
2286.272 0.493 0.529 0.537 0.547 0.54 0.529 0.516 0.476 0.458 0.442
2305.565 0.442 0.422 0.398 0.393 0.408 0.413 0.396 0.414 0.394 0.383
2324.858 0.383 0.385 0.39 0.366 0.376 0.389 0.383 0.397 0.403 0.369
2344.152 0.319 0.343 0.373 0.365 0.381 0.386 0.359 0.373 0.367 0.357
2363.445 0.388 0.363 0.339 0.351 0.358 0.364 0.368 0.391 0.409 0.372
2382.739 0.369 0.418 0.413 0.403 0.441 0.452 0.442 0.456 0.446 0.456
2402.032 0.508 0.498 0.512 0.564 0.586 0.539 0.487 0.453 0.422 0.444
2421.326 0.477 0.476 0.432 0.411 0.412 0.429 0.419 0.362 0.354 0.393
2440.619 0.412 0.394 0.4 0.421 0.433 0.431 0.427 0.372 0.376 0.408
2459.912 0.394 0.385 0.367 0.384 0.384 0.356 0.328 0.338 0.371 0.385
2479.206 0.372 0.324 0.293 0.259 0.255 0.292 0.294 0.302 0.283 0.249
2498.499 0.276 0.287 0.238 0.26 0.314 0.303 0.29 0.284 0.236 0.244
2517.793 0.278 0.274 0.293 0.32 0.302 0.215 0.205 0.272 0.274 0.227
2537.086 0.19 0.233 0.265 0.241 0.289 0.31 0.325 0.366 0.353 0.342
2556.380 0.391 0.382 0.347 0.354 0.367 0.345 0.318 0.322 0.32 0.296
2575.673 0.306 0.397 0.428 0.416 0.45 0.498 0.485 0.464 0.513 0.534
2594.966 0.502 0.447 0.411 0.393 0.362 0.386 0.394 0.38 0.363 0.341
2614.260 0.332 0.355 0.369 0.336 0.332 0.324 0.27 0.258 0.315 0.359
2633.553 0.307 0.285 0.353 0.338 0.295 0.301 0.313 0.305 0.297 0.244
2652.847 0.246 0.251 0.174 0.193 0.233 0.244 0.217 0.18 0.183 0.235
2672.140 0.273 0.244 0.244 0.303 0.257 0.169 0.168 0.184 0.179 0.166
2691.434 0.118 0.064 0.027 0.011 0.055 0.093 0.045 0.032 0.05 0.038
2710.727 0.041 0.052 0.029 0.014 0.063 0.074 0.098 0.038 0 0.02
2730.020 0.007 0.052 0.095 0.111 0.12 0.059 0.118 0.237 0.17 0.207
2749.314 0.293 0.314 0.298 0.25 0.283 0.321 0.312 0.306 0.291 0.318
2768.607 0.35 0.37 0.3 0.271 0.34 0.328 0.275 0.236 0.208 0.189
2787.901 0.244 0.291 0.291 0.295 0.216 0.181 0.21 0.22 0.23 0.189
2807.194 0.151 0.154 0.234 0.178 0.09 0.129 0.162 0.206 0.143 0.021
2826.488 0.104 0.209 0.164 0.171 0.251 0.217 0.119 0.101 0.185 0.213
2845.781 0.195 0.221 0.217 0.253 0.338 0.473 0.581 0.58 0.647 0.802
2865.074 0.804 0.859 0.9474 0.9496 0.9012 0.861 0.825 0.681 0.604 0.584
2884.368 0.55 0.535 0.509 0.486 0.467 0.456 0.449 0.51 0.636 0.657
2903.661 0.69 0.748 0.764 0.8845 0.9284 0.9296 0.96742 1.119 1.2979 1.3517
2922.955 1.6038 1.8575 1.9709 2.204 2.584 2.894 3.104 3.344 3.564 3.664
2942.248 3.654 3.554 3.394 3.094 2.764 2.604 2.534 2.454 2.294 2.134
2961.542 1.912 1.6877 1.563 1.4603 1.4035 1.2884 1.1525 1.02589 0.882 0.749
2980.835 0.649 0.648 0.637 0.696 0.8 0.686 0.559 0.581 0.598 0.566
3000.128 0.632 0.596 0.464 0.538 0.65 0.645 0.535 0.575 0.649 0.676
3019.422 0.805 0.82 0.771 0.74 0.832 0.9294 0.9029 0.9132 0.9441 0.9229
3038.715 0.9081 0.981165 0.9331 0.841 0.8934 0.980801 0.974906 0.866 0.805 0.756
3058.009 0.755 0.807 0.759 0.722 0.704 0.665 0.702 0.634 0.55 0.601
3077.302 0.67 0.748 0.648 0.652 0.804 0.75 0.778 0.8995 0.96734 0.8994
3096.596 0.81 0.815 0.794 0.768 0.845 0.753 0.621 0.559 0.527 0.435
3115.889 0.242 0.237 0.214 0.231 0.386 0.341 0.205 0.248 0.301 0.322
3135.182 0.343 0.258 0.179 0.204 0.183 0.157 0.117 0.046 0.106 0.185
3154.476 0.224 0.232 0.228 0.237 0.244 0.269 0.158 0.201 0.3 0.191
3173.769 0.254 0.317 0.117 0.016 0.036 0.119 0.273 0.343 0.246 0.258
3193.063 0.323 0.238 0.174 0.203 0.192 0.155 0.178 0.158 0.127 0.124
3212.356 0.213 0.212 0.235 0.274 0.193 0.29 0.348 0.242 0.203 0.29
3231.650 0.347 0.352 0.296 0.21 0.31 0.353 0.254 0.349 0.403 0.334
3250.943 0.323 0.32 0.28 0.272 0.277 0.341 0.44 0.418 0.348 0.203
3270.236 0.202 0.362 0.382 0.404 0.453 0.363 0.352 0.283 0.309 0.425
3289.530 0.526 0.594 0.488 0.373 0.275 0.297 0.447 0.497 0.575 0.599
3308.823 0.501 0.438 0.353 0.395 0.414 0.435 0.597 0.601 0.502 0.524
3328.117 0.512 0.473 0.467 0.51 0.573 0.539 0.495 0.521 0.515 0.512
3347.410 0.602 0.612 0.529 0.576 0.58 0.456 0.369 0.403 0.413 0.487
3366.704 0.575 0.527 0.45 0.515 0.529 0.526 0.619 0.636 0.645 0.595
3385.997 0.568 0.594 0.563 0.516 0.575 0.599 0.599 0.612 0.628 0.627
3405.290 0.683 0.778 0.818 0.753 0.641 0.635 0.708 0.809 0.668 0.622
3424.584 0.739 0.619 0.572 0.647 0.584 0.679 0.84 0.789 0.739 0.669
3443.877 0.737 0.801 0.699 0.764 0.829 0.73 0.617 0.669 0.757 0.757
3463.171 0.819 0.783 0.722 0.747 0.705 0.682 0.698 0.65 0.623 0.675
3482.464 0.739 0.603 0.539 0.591 0.542 0.611 0.658 0.689 0.759 0.715
3501.758 0.691 0.623 0.663 0.727 0.694 0.745 0.72 0.658 0.762 0.753
3521.051 0.674 0.76 0.617 0.559 0.733 0.742 0.701 0.737 0.794 0.783
3540.344 0.757 0.792 0.791 0.751 0.71 0.771 0.801 0.841 0.9196 0.838
3559.638 0.817 0.725 0.66 0.841 0.8862 0.854 0.799 0.72 0.723 0.674
3578.931 0.616 0.727 0.762 0.687 0.618 0.691 0.826 0.77 0.701 0.741
3598.225 0.822 0.761 0.691 0.669 0.621 0.587 0.609 0.64 0.671 0.72
3617.518 0.772 0.759 0.676 0.685 0.677 0.671 0.698 0.724 0.722 0.704
3636.812 0.714 0.711 0.75 0.768 0.684 0.733 0.849 0.7 0.577 0.614
3656.105 0.697 0.767 0.736 0.673 0.642 0.634 0.558 0.609 0.687 0.616
3675.398 0.675 0.699 0.664 0.681 0.723 0.688 0.727 0.803 0.769 0.813
3694.692 0.758 0.674 0.7 0.748 0.816 0.856 0.821 0.783 0.77 0.762
3713.985 0.682 0.646 0.613 0.659 0.687 0.617 0.689 0.703 0.665 0.599
3733.279 0.606 0.72 0.7 0.664 0.691 0.618 0.621 0.689 0.759 0.808
3752.572 0.716 0.593 0.492 0.599 0.688 0.58 0.54 0.571 0.512 0.501
3771.866 0.591 0.599 0.641 0.621 0.614 0.626 0.646 0.713 0.737 0.775
3791.159 0.768 0.782 0.695 0.628 0.694 0.732 0.668 0.636 0.638 0.604
3810.452 0.641 0.701 0.763 0.703 0.62 0.628 0.607 0.642 0.741 0.672
3829.746 0.586 0.557 0.597 0.673 0.656 0.686 0.707 0.603 0.49 0.549
3849.039 0.631 0.664 0.661 0.624 0.601 0.577 0.612 0.622 0.546 0.503
3868.333 0.541 0.55 0.524 0.577 0.578 0.618 0.673 0.633 0.598 0.618
3887.626 0.667 0.597 0.574 0.649 0.646 0.59 0.559 0.548 0.688 0.766
3906.920 0.71 0.7 0.619 0.522 0.53 0.613 0.609 0.532 0.517 0.558
3926.213 0.564 0.597 0.588 0.483 0.493 0.543 0.555 0.527 0.504 0.48
3945.506 0.451 0.546 0.583 0.508 0.527 0.551 0.47 0.54 0.594 0.496
3964.800 0.468 0.488 0.529 0.467 0.434 0.445 0.436 0.544 0.614 0.524
3984.093 0.419 0.435 0.447 0.474 0.546 0.544 0.483 0.456 0.44
##END=
