##TITLE=2-Bromothiophenol
##JCAMP-DX=4.24
##DATA TYPE=INFRARED SPECTRUM
##ORIGIN=EPA-IR VAPOR PHASE LIBRARY
##OWNER=SRD/NIST
Collection (C) 2018 copyright by the U.S. Secretary of Commerce
on behalf of the United States of America. All rights reserved.
##CAS REGISTRY NO=6320-02-1
##MOLFORM=C 6 H 5 Br S
##$NIST SOURCE=MSDC-IR
##STATE=gas
##XUNITS=1/CM
##YUNITS=ABSORBANCE
##XFACTOR=1.
##YFACTOR=0.001
##DELTAX=1.92934
##FIRSTX=549.9
##LASTX=3999.5
##FIRSTY=2.6999
##MAXX=3999.53
##MINX=549.863
##MAXY=0.15292
##MINY=0
##NPOINTS=1789
##XYDATA=(X++(Y..Y))
549.863 2.6999 2.79 2.98 3.09 3 2.94 2.98 3.03 3.2 3.22
569.156 3.18 3.14 3.15 3.11 2.83 2.6216 2.5201 2.4959 2.4536 2.4111
588.450 2.3605 2.2678 2.2351 2.1774 2.194 2.2272 2.2717 2.2815 2.2147 2.283
607.743 2.3494 2.4065 2.482 2.6456 2.76 2.78 2.9 3.05 3.32 3.74
627.037 4.24 4.95 5.94 7.08 8.32 9.61 11.16 12.78 14.26 15.52
646.330 16.35 16.82 16.82 16.2 15.26 14.15 12.72 11.06 9.36 7.73
665.624 6.27 5.09 4.18 3.61 3.36 3.24 3.2 3.22 3.26 3.38
684.917 3.59 3.89 4.18 4.58 5.08 5.41 5.78 6.39 7.15 8.06
704.210 8.93 9.79 10.76 11.8 13.01 14.63 16.89 20.09 24.6 30.71
723.504 38.6 48.27 59.14 70.23 80.3 89.18 98.03 110.68 132.03 152.92
742.797 144.38 107.76 82.32 73.33 66 57.21 46.7 35.93 26.34 18.79
762.091 13.37 9.79 7.47 5.99 4.97 4.29 3.82 3.44 3.18 2.95
781.384 2.6652 2.4479 2.3154 2.3024 2.2714 2.2128 2.2448 2.3101 2.3341 2.3195
800.678 2.5359 2.83 3.01 3.23 3.45 3.46 3.63 3.99 4.07 3.92
819.971 3.65 3.3 3.07 2.95 2.81 2.6988 2.7212 2.85 2.84 2.77
839.264 2.6969 2.6884 2.77 2.84 2.89 3 3.16 3.27 3.32 3.3
858.558 3.26 3.24 3.16 3.04 2.98 2.84 2.6603 2.5473 2.3654 2.1851
877.851 2.0554 2.0382 2.0211 2.0617 2.1639 2.2023 2.2837 2.3982 2.5558 2.6452
897.145 2.7093 2.86 2.97 3.13 3.29 3.46 3.69 3.89 4.05 4.24
916.438 4.4 4.53 4.72 4.91 5.06 5.23 5.5 5.77 5.99 6.21
935.732 6.29 6.23 6.02 5.75 5.5 5.16 4.73 4.32 3.97 3.67
955.025 3.38 3.19 3.09 3.04 3.07 3.09 3.17 3.29 3.47 3.7
974.318 3.9 4.11 4.38 4.72 5.05 5.43 5.81 6.22 6.73 7.3
993.612 7.97 8.69 9.55 10.51 11.6 12.98 14.74 17.13 20.33 24.53
1012.905 29.86 36.23 43.08 49.52 54.84 58.59 60.72 61.32 60.76 59.31
1032.199 55.79 49.91 42.06 33.22 25.58 20.01 15.98 12.64 9.82 7.61
1051.492 6.08 5.15 4.53 4.11 3.85 3.69 3.56 3.44 3.29 3.25
1070.786 3.25 3.29 3.4 3.43 3.54 3.79 4.14 4.57 5.07 5.77
1090.079 6.72 7.87 9.29 11.03 12.98 15.18 17.48 19.75 21.78 23.36
1109.372 24.77 26.02 26.76 26.76 26.05 24.64 22.65 20.71 18.94 16.9
1128.666 14.56 12.18 10.02 8.36 7.29 6.54 5.95 5.45 4.96 4.6
1147.959 4.41 4.26 4.28 4.28 4.22 4.12 4.01 4.01 3.88 3.75
1167.253 3.68 3.62 3.45 3.27 3.19 2.93 2.6186 2.5119 2.4617 2.4073
1186.546 2.3419 2.0627 1.9241 1.8785 1.78174 1.559 1.282 1.434 1.299 0.952
1205.840 0.933 0.985 0.887 0.55 0.47 0.861 1.348 1.437 1.146 1.03
1225.133 1.317 1.6484 1.80887 1.9008 2.2998 2.84 3.34 4.02 4.95 6.12
1244.426 7.59 9.5 11.65 13.62 15.24 16.23 16.37 16.24 16.16 15.89
1263.720 15.13 13.73 11.68 9.43 7.5 6.08 5 4.16 3.57 3.15
1283.013 2.8 2.5014 2.2557 2.0902 2.0319 1.8769 1.72386 1.74181 1.77884 1.80499
1302.307 1.7697 1.6954 1.7175 1.74081 1.73455 1.74991 1.6996 1.6714 1.73042 1.7821
1321.600 1.81635 1.8793 1.9585 2.0317 2.1151 2.2368 2.4391 2.6897 2.97 3.24
1340.894 3.49 3.69 3.84 3.94 3.96 3.95 3.87 3.7 3.51 3.28
1360.187 3.02 2.8 2.6163 2.4831 2.4495 2.4944 2.5816 2.74 2.95 3.24
1379.480 3.63 4 4.39 4.81 5.2 5.48 5.65 5.79 5.93 6.01
1398.774 6.11 6.3 6.55 7 7.66 8.71 10.27 12.46 15.38 18.88
1418.067 22.67 26.45 29.55 31.97 34.12 36.27 38.4 40.24 41.7 43.13
1437.361 45.31 48.79 53.87 59.82 65.26 69.13 71.17 71.66 71.07 69.62
1456.654 66.77 62.19 55.57 47.13 38.55 31.22 25.74 21.73 18.73 16.3
1475.948 14.35 12.56 10.87 9.27 7.84 6.62 5.63 4.91 4.36 3.93
1495.241 3.61 3.35 3.12 2.96 2.84 2.74 2.6647 2.5807 2.4939 2.4183
1514.534 2.3882 2.3693 2.337 2.3158 2.3048 2.3452 2.4549 2.518 2.6239 2.82
1533.828 3.06 3.29 3.55 3.99 4.52 5.22 6.15 7.23 8.49 9.88
1553.121 11.23 12.44 13.3 13.98 14.69 15.36 15.87 16.31 16.79 17.03
1572.415 16.88 16.61 16.3 15.93 15.54 15.08 14.35 13.2 11.6 9.78
1591.708 8.03 6.59 5.56 4.78 4.15 3.66 3.26 2.98 2.78 2.5483
1611.002 2.3797 2.2983 2.1973 2.1777 2.2255 2.2044 2.2105 2.2288 2.2279 2.2174
1630.295 2.2002 2.1836 2.1298 2.0871 2.0832 2.0415 1.9845 2.0004 2.0194 1.9918
1649.588 1.9933 2.0684 2.2365 2.3846 2.5525 2.726 2.9 3.12 3.38 3.64
1668.882 3.82 3.96 4.06 4.12 4.11 4.05 3.95 3.83 3.67 3.44
1688.175 3.24 3.13 3.04 2.93 2.86 2.8 2.77 2.75 2.6529 2.5744
1707.469 2.5087 2.3957 2.3223 2.2664 2.2102 2.1269 2.0299 1.95 1.8558 1.78283
1726.762 1.74942 1.74415 1.7102 1.72008 1.7198 1.6757 1.6867 1.72032 1.72507 1.72499
1746.056 1.78852 1.844 1.8857 1.9334 1.9568 2.0215 2.1106 2.2294 2.4177 2.6054
1765.349 2.76 2.96 3.14 3.34 3.56 3.72 3.86 3.98 4.04 4.01
1784.642 3.91 3.86 3.78 3.65 3.49 3.31 3.18 3.08 3.04 2.99
1803.936 3 3.06 3.15 3.23 3.26 3.3 3.34 3.36 3.29 3.2
1823.229 3.1 2.96 2.81 2.6787 2.5251 2.3688 2.235 2.1428 2.0722 1.9923
1842.523 1.9822 2.0033 1.9943 1.9654 2.0406 2.1345 2.2116 2.3374 2.4031 2.4838
1861.816 2.5919 2.7245 2.85 2.92 2.99 2.97 2.94 2.96 2.96 2.95
1881.110 3.02 3.12 3.23 3.43 3.66 3.89 4.15 4.43 4.65 4.84
1900.403 4.98 5.01 4.97 4.87 4.71 4.5 4.27 4.07 3.84 3.57
1919.696 3.41 3.37 3.39 3.49 3.66 3.86 4.04 4.16 4.21 4.21
1938.990 4.16 4.05 3.86 3.62 3.37 3.02 2.7042 2.4372 2.1807 2.0021
1958.283 1.8489 1.74084 1.6936 1.6834 1.6662 1.6546 1.6794 1.6753 1.6382 1.621
1977.577 1.625 1.6395 1.6503 1.6728 1.6518 1.6529 1.6662 1.6527 1.6688 1.6496
1996.870 1.6346 1.62 1.587 1.565 1.531 1.492 1.498 1.53 1.508 1.497
2016.164 1.486 1.493 1.553 1.498 1.445 1.514 1.548 1.537 1.553 1.602
2035.457 1.601 1.612 1.6409 1.6369 1.6697 1.6755 1.6924 1.6999 1.6343 1.619
2054.750 1.622 1.613 1.611 1.549 1.518 1.534 1.536 1.468 1.414 1.459
2074.044 1.478 1.47 1.492 1.475 1.45 1.461 1.508 1.501 1.49 1.536
2093.337 1.531 1.537 1.565 1.546 1.529 1.525 1.536 1.563 1.58 1.545
2112.631 1.495 1.553 1.576 1.543 1.557 1.533 1.522 1.528 1.533 1.553
2131.924 1.549 1.517 1.512 1.533 1.491 1.491 1.495 1.469 1.485 1.499
2151.218 1.52 1.528 1.555 1.57 1.557 1.537 1.518 1.537 1.552 1.509
2170.511 1.474 1.479 1.502 1.479 1.49 1.551 1.524 1.493 1.492 1.509
2189.804 1.528 1.514 1.474 1.474 1.511 1.506 1.487 1.504 1.511 1.503
2209.098 1.518 1.529 1.539 1.547 1.564 1.589 1.568 1.577 1.594 1.584
2228.391 1.596 1.611 1.592 1.594 1.608 1.617 1.6481 1.6498 1.622 1.614
2247.685 1.6359 1.625 1.605 1.627 1.655 1.6919 1.76067 1.76295 1.75322 1.79549
2266.978 1.82274 1.8167 1.79126 1.8346 1.8527 1.8379 1.8751 1.9438 1.996 2.0163
2286.272 2.0817 2.1425 2.1566 2.1728 2.1348 2.0958 2.1157 2.1456 2.1458 2.1015
2305.565 2.0399 2.0105 2.0018 2.0096 2.0344 2.0625 2.1189 2.1836 2.2024 2.2095
2324.858 2.2364 2.2249 2.2159 2.1889 2.1258 2.0654 2.0089 1.976 1.9528 1.9324
2344.152 1.9063 1.8996 1.9198 1.9282 1.9414 1.9297 1.9169 1.8971 1.8954 1.9059
2363.445 1.8877 1.8955 1.9284 1.934 1.9191 1.9317 1.9685 1.9662 1.9216 1.8824
2382.739 1.8491 1.82903 1.79394 1.77896 1.73583 1.7045 1.73394 1.715 1.7023 1.7145
2402.032 1.75335 1.80264 1.8355 1.8401 1.8532 1.9096 1.956 1.9886 2.003 2.0478
2421.326 2.1145 2.1388 2.1232 2.0686 2.0477 2.0335 1.9868 1.943 1.8595 1.82127
2440.619 1.8248 1.78073 1.76472 1.75556 1.6891 1.6623 1.6718 1.6361 1.614 1.618
2459.912 1.628 1.6602 1.6631 1.6685 1.676 1.6638 1.623 1.59 1.6393 1.6564
2479.206 1.6568 1.6438 1.611 1.623 1.667 1.6801 1.7089 1.7195 1.72075 1.78111
2498.499 1.81131 1.8302 1.8895 1.9792 2.0493 2.1239 2.1941 2.259 2.3452 2.3729
2517.793 2.4022 2.4645 2.5094 2.5283 2.5259 2.5082 2.4785 2.428 2.38 2.3442
2537.086 2.2771 2.2366 2.2288 2.2245 2.1712 2.1152 2.1278 2.1474 2.1873 2.2268
2556.380 2.2876 2.3483 2.4475 2.6102 2.73 2.92 3.14 3.38 3.68 4.06
2575.673 4.6 5.26 6 6.89 7.79 8.64 9.34 9.74 9.77 9.51
2594.966 9.19 8.8 8.25 7.41 6.25 5 3.96 3.2 2.6508 2.3244
2614.260 2.1067 1.9221 1.8262 1.7658 1.73225 1.75082 1.72011 1.671 1.63 1.6
2633.553 1.554 1.539 1.569 1.547 1.548 1.575 1.579 1.618 1.6564 1.6358
2652.847 1.6621 1.6625 1.628 1.6625 1.6682 1.6349 1.632 1.618 1.582 1.604
2672.140 1.6539 1.6584 1.6587 1.67 1.6835 1.6631 1.6312 1.617 1.6389 1.6368
2691.434 1.614 1.6741 1.6931 1.6913 1.76314 1.81434 1.77624 1.6742 1.646 1.6899
2710.727 1.6563 1.6508 1.6831 1.6472 1.602 1.596 1.6529 1.6443 1.539 1.545
2730.020 1.584 1.577 1.575 1.551 1.559 1.612 1.6681 1.6526 1.6621 1.622
2749.314 1.59 1.6594 1.6585 1.6383 1.6309 1.621 1.6641 1.7062 1.6454 1.563
2768.607 1.597 1.61 1.555 1.57 1.577 1.587 1.562 1.493 1.445 1.42
2787.901 1.438 1.447 1.453 1.501 1.498 1.48 1.486 1.507 1.503 1.497
2807.194 1.559 1.594 1.618 1.604 1.579 1.6539 1.6611 1.6441 1.7023 1.76869
2826.488 1.76582 1.75369 1.8315 1.8993 1.8959 1.8447 1.8431 1.8392 1.8993 1.8735
2845.781 1.79345 1.8354 1.8894 1.8632 1.75095 1.6896 1.6397 1.601 1.619 1.572
2865.074 1.524 1.536 1.475 1.415 1.417 1.408 1.332 1.286 1.283 1.333
2884.368 1.347 1.271 1.222 1.139 1.115 1.096 1.131 1.209 1.171 1.07
2903.661 1.022 1.064 1.131 1.222 1.194 1.125 1.076 1.144 1.178 1.166
2922.955 1.213 1.171 1.157 1.184 1.155 1.156 1.249 1.376 1.451 1.435
2942.248 1.367 1.353 1.441 1.458 1.496 1.529 1.521 1.6666 1.7124 1.7043
2961.542 1.75666 1.8419 1.9475 1.9208 1.9181 1.9229 1.9194 1.9193 1.9911 2.0893
2980.835 2.1348 2.2014 2.3809 2.5071 2.518 2.6805 2.82 2.83 2.89 2.95
3000.128 3 2.97 2.94 2.97 2.98 2.84 2.5787 2.5051 2.4437 2.3357
3019.422 2.3628 2.3018 2.2039 2.1906 2.0996 2.0395 2.1379 2.3683 2.4745 2.6121
3038.715 3 3.41 3.95 4.77 5.96 7.44 9.2 11.45 14.18 17.31
3058.009 20.74 24.41 28.01 31.31 33.9 35.26 35.63 35.09 33.67 31.49
3077.302 28.94 25.99 21.82 17.38 13.96 11.71 10.24 8.88 7.45 6.18
3096.596 5.17 4.44 3.9 3.6 3.49 3.42 3.45 3.52 3.53 3.66
3115.889 3.92 4.12 4.18 4.12 4.02 3.94 3.85 3.66 3.25 2.91
3135.182 2.6793 2.3561 1.994 1.6342 1.405 1.248 1.163 1.2 1.121 1.061
3154.476 1.034 0.883 0.801 0.818 0.734 0.7 0.73 0.73 0.67 0.58
3173.769 0.65 0.69 0.59 0.55 0.64 0.65 0.53 0.41 0.49 0.61
3193.063 0.56 0.57 0.69 0.64 0.56 0.67 0.6 0.47 0.43 0.42
3212.356 0.47 0.53 0.51 0.41 0.37 0.47 0.49 0.37 0.33 0.35
3231.650 0.38 0.37 0.31 0.25 0.32 0.36 0.35 0.32 0.33 0.38
3250.943 0.35 0.39 0.43 0.36 0.27 0.29 0.22 0.19 0.17 0.14
3270.236 0.27 0.41 0.48 0.29 0.23 0.3 0.22 0.13 0.12 0.18
3289.530 0.23 0.15 0.09 0.21 0.27 0.23 0.17 0.17 0.27 0.2
3308.823 0.18 0.23 0.19 0.2 0.12 0.08 0.12 0.15 0.3 0.26
3328.117 0.19 0.22 0.26 0.11 0 0.08 0.06 0.08 0.06 0.03
3347.410 0.07 0.1 0.14 0.22 0.24 0.24 0.16 0.13 0.11 0.11
3366.704 0.17 0.2 0.2 0.22 0.16 0.13 0.13 0.06 0.11 0.14
3385.997 0.21 0.21 0.09 0.04 0.09 0.14 0.07 0.19 0.29 0.19
3405.290 0.16 0.2 0.19 0.22 0.16 0.06 0.12 0.23 0.31 0.25
3424.584 0.17 0.11 0.13 0.29 0.31 0.17 0.15 0.24 0.29 0.33
3443.877 0.37 0.38 0.28 0.27 0.38 0.38 0.27 0.27 0.4 0.49
3463.171 0.55 0.59 0.56 0.65 0.7 0.737 0.904 1.131 1.275 1.491
3482.464 1.73557 2.0114 2.254 2.3364 2.4536 2.3237 2.1543 2.182 2.155 1.9807
3501.758 1.80867 1.617 1.273 1.042 0.874 0.779 0.67 0.61 0.61 0.59
3521.051 0.59 0.45 0.39 0.43 0.4 0.3 0.29 0.32 0.28 0.19
3540.344 0.27 0.32 0.29 0.37 0.33 0.22 0.23 0.26 0.26 0.22
3559.638 0.3 0.31 0.23 0.3 0.4 0.41 0.39 0.42 0.34 0.36
3578.931 0.43 0.34 0.34 0.38 0.36 0.36 0.24 0.24 0.34 0.36
3598.225 0.27 0.21 0.29 0.35 0.37 0.36 0.44 0.5 0.51 0.49
3617.518 0.5 0.43 0.3 0.37 0.39 0.33 0.38 0.48 0.56 0.56
3636.812 0.49 0.44 0.46 0.47 0.44 0.54 0.63 0.6 0.55 0.45
3656.105 0.45 0.53 0.59 0.59 0.5 0.47 0.5 0.55 0.63 0.55
3675.398 0.5 0.59 0.57 0.57 0.56 0.51 0.54 0.69 0.7 0.61
3694.692 0.69 0.66 0.7 0.759 0.743 0.825 0.823 0.838 0.903 0.83
3713.985 0.777 0.887 1.025 1.071 1.101 1.153 1.177 1.083 1.022 0.993
3733.279 0.928 0.944 0.941 0.929 0.912 0.972 0.961 0.841 0.815 0.845
3752.572 0.918 0.918 0.921 0.983 0.999 0.934 0.946 0.99 1.061 1.093
3771.866 1.083 1.075 1.045 1.055 1.05 1.151 1.103 1.044 1.121 1.134
3791.159 1.056 1.127 1.138 1.067 1.002 0.9 0.972 0.947 0.901 0.814
3810.452 0.764 0.763 0.71 0.72 0.734 0.752 0.739 0.775 0.8 0.817
3829.746 0.869 0.845 0.818 0.812 0.801 0.773 0.72 0.752 0.849 0.818
3849.039 0.847 0.893 0.906 0.95 0.833 0.789 0.793 0.7 0.72 0.774
3868.333 0.802 0.806 0.73 0.732 0.77 0.793 0.783 0.732 0.71 0.763
3887.626 0.815 0.766 0.71 0.71 0.7 0.68 0.68 0.71 0.736 0.809
3906.920 0.815 0.774 0.837 0.879 0.822 0.745 0.818 0.813 0.7 0.71
3926.213 0.834 0.829 0.83 0.874 0.848 0.831 0.71 0.69 0.8 0.87
3945.506 0.859 0.812 0.85 0.903 0.912 0.894 0.851 0.771 0.749 0.8
3964.800 0.816 0.845 0.917 0.877 0.846 0.958 0.969 0.919 0.948 0.888
3984.093 0.838 0.898 0.938 0.982 0.983 0.975 1.023 0.959 1.013
##END=
