##TITLE=3-Methyl-4-hexyn-3-ol
##JCAMP-DX=4.24
##DATA TYPE=INFRARED SPECTRUM
##ORIGIN=EPA-IR VAPOR PHASE LIBRARY
##OWNER=SRD/NIST
Collection (C) 2018 copyright by the U.S. Secretary of Commerce
on behalf of the United States of America. All rights reserved.
##CAS REGISTRY NO=6320-68-9
##MOLFORM=C 7 H 12 O
##$NIST SOURCE=MSDC-IR
##STATE=gas
##XUNITS=1/CM
##YUNITS=ABSORBANCE
##XFACTOR=1.
##YFACTOR=0.001
##DELTAX=1.92898
##FIRSTX=549.8
##LASTX=4000.7
##FIRSTY=7.5
##MAXX=4000.7
##MINX=549.759
##MAXY=0.0845
##MINY=0
##NPOINTS=1790
##XYDATA=(X++(Y..Y))
549.759 7.5 7.86 7.71 7.56 7.32 7.38 6.96 6.1 6.21 6.3
569.049 5.11 4.18 4.14 4.07 5.05 5.66 4.94 6.38 7.4 6.24
588.339 5.59 6.23 6.33 5.55 4.77 5.28 5.73 5.49 4.77 4.23
607.628 5.33 5.68 5 4.81 5.64 6.09 6.29 6.61 5.82 5.45
626.918 5.65 5.73 5.96 5.13 4.79 4.62 4.49 5.2 4.92 4.59
646.208 5.1 4.72 4.15 4.06 3.9 3.59 3.91 3.99 3.69 3.78
665.498 3.54 3.39 2.92 2.68 2.8 2.95 2.99 3.22 2.81 1.97
684.787 2.44 3.21 3.06 2.63 2.93 2.88 2.76 2.74 2.5 2.93
704.077 2.79 2.52 3.06 2.41 1.1113 1.5731 2.15 1.7319 1.2856 0.9822
723.367 1.0441 2.01 2.68 2.12 1.6545 1.3385 1.8 2.22 1.6302 1.3629
742.657 1.92 2.36 1.4764 1.1481 2.01 1.79 1.1785 2.01 1.99 1.431
761.947 2.11 1.82 1.6084 1.88 2.11 2.24 1.87 2.12 2.51 2.11
781.236 1.98 2.57 2.9 2.56 2.69 3.1 2.95 2.61 2.3 2.53
800.526 2.2 2.35 3.06 2.98 2.83 2.49 2.32 1.96 1.88 2.39
819.816 1.99 1.1748 0.633 1.81 3.99 4.06 3.68 3.93 4.57 5.65
839.106 6.29 6.85 7.29 7.63 8.15 8.06 7.99 8.19 8.47 9.1
858.395 8.88 7.88 7.62 7.51 6.74 6.21 5.97 6.04 6.05 5.9
877.685 5.97 5.93 6.57 7.61 8.49 9.61 11.09 12.92 15.23 18
896.975 20.56 22.54 24.99 28.06 30.45 32.56 34.83 36.03 35.98 34.43
916.265 32.24 30.2 27.38 24.73 22.1 19.82 16.85 14.06 12.12 10.45
935.555 9.18 7.36 6.28 6.21 6.17 5.87 5.55 5.24 5.55 5.93
954.844 6.56 6.71 7.48 9.32 10.12 11.33 12.37 13.23 14.36 14.92
974.134 16.37 18.2 19.37 20.69 21.1 21 21.28 21.91 21.93 21.01
993.424 20.4 20.18 20.05 19.55 18.72 17.78 16.83 16.26 15.43 14.65
1012.714 14.37 13.66 13.33 13.38 13.31 13.31 13.7 14.22 14.5 15.62
1032.003 16.13 16.02 16.29 17.01 17.62 16.85 15.71 15.27 14.25 12.54
1051.293 11.52 11.26 10.97 9.7 8.19 8.46 8.65 8.56 8.9 7.76
1070.583 6.88 6.67 7.17 7.61 8.63 8.8 7.58 8.88 9.43 8.72
1089.873 10.07 11.43 11.38 10.81 10.86 12.45 14.05 15.1 14.26 14.54
1109.163 17.14 18.59 21.2 22.62 22.68 25.27 28.83 30.79 31.13 31.27
1128.452 32.2 33.31 34.21 34.9 35.93 35.5 34.18 34.88 36.5 36.43
1147.742 35.77 36.33 36.25 34.55 33.97 34.53 33.28 30.66 28.93 27.74
1167.032 26.07 25.11 24.28 22.48 21.93 19.53 17.36 18.48 17.74 17.12
1186.322 17.99 18.12 18.68 19.34 19.43 19.48 20.04 21.06 21.75 22.1
1205.611 22.65 22.85 23.18 22.99 21.17 21.56 23 21.51 20.09 19.75
1224.901 20.48 21.03 19.89 20.57 20.89 21.06 20.94 21.13 21.08 20.04
1244.191 19.52 18.81 19.25 19.51 19.29 19.37 18.65 18.34 19.2 20.02
1263.481 20.06 20.13 19.96 19.41 19.44 19.82 19.41 18.99 19.25 19.75
1282.771 20.08 20.13 20.34 20.66 20.72 21.01 21.34 21.25 21.65 22.48
1302.060 23.05 23.73 24.1 24.04 24.5 25.32 26.33 27.17 27.87 28.84
1321.350 29.68 30.61 31.78 32.87 33.92 35.12 36.22 36.8 37.14 37.63
1340.640 37.95 38.08 38.15 37.98 37.48 36.5 35.43 34.42 33.2 32.28
1359.930 31.66 30.81 29.93 29.31 29.06 29.29 29.79 30.25 30.03 29.42
1379.219 28.45 27.18 25.94 24.43 22.77 21.09 19.32 17.15 15.18 13.62
1398.509 12.12 11.02 10.32 9.79 9.32 8.78 8.53 8.48 8.55 8.79
1417.799 8.96 9.03 8.79 8.58 8.42 8.51 8.93 9.29 9.42 9.74
1437.089 10.28 10.81 11.46 12 12.8 13.46 13.84 14.37 14.94 15.53
1456.378 16.29 16.64 16.36 16.13 15.75 14.68 13.76 13.06 12.21 11.49
1475.668 10.63 9.76 9.01 8.23 7.66 7.18 6.56 6.35 6.13 5.89
1494.958 5.93 5.75 5.46 5.4 5.35 5.2 5.06 4.55 4.18 3.93
1514.248 3.57 3.74 3.65 3.44 3.41 3.16 3.14 3.37 3.43 3.29
1533.538 3.29 3.09 3.09 3.28 3.48 3.67 3.74 3.82 3.68 3.46
1552.827 3 2.86 3.14 2.9 2.73 2.78 2.56 2.65 2.94 2.98
1572.117 3.02 3.17 2.97 2.83 2.89 2.45 2.23 2.62 2.69 2.49
1591.407 2.61 2.65 2.18 2.31 2.88 3 3 3.02 2.87 2.94
1610.697 2.92 2.76 2.98 3.01 2.91 3.08 3.06 2.9 2.82 2.51
1629.986 2.35 2.64 2.83 2.42 2.25 2.37 2.35 2.47 2.24 2.09
1649.276 2.34 2.66 2.6 2.13 1.98 2 1.96 1.89 1.98 2.2
1668.566 2.4 2.32 2.13 1.87 1.734 2.06 2.28 2.37 2.32 2.13
1687.856 2.05 2.02 1.96 1.92 2.01 2.04 2.07 1.97 1.91 1.99
1707.146 1.95 2.07 2.04 1.93 1.95 1.97 2.02 1.85 1.6863 1.6109
1726.435 1.6073 1.6763 1.4859 1.4569 1.89 1.83 1.562 1.505 1.4666 1.5242
1745.725 1.8 1.95 1.9 1.96 2.05 1.96 1.8 1.5671 1.177 1.0885
1765.015 1.1361 1.3751 1.567 1.3951 1.2833 1.355 1.5106 1.6394 1.7367 1.5846
1784.305 1.3665 1.4083 1.3604 1.0344 0.856 0.9884 1.3422 1.6985 1.6115 1.3233
1803.594 1.3738 1.4238 1.2447 1.2272 1.3312 1.2469 1.2352 1.2834 1.3055 1.4203
1822.884 1.4884 1.3079 1.1095 1.0408 1.0499 1.0886 1.1312 1.269 1.2554 1.2195
1842.174 1.0797 1.0564 1.1332 1.1073 1.0305 1.0035 0.9927 1.0671 1.1306 0.9696
1861.464 0.9419 0.9455 0.9482 0.8917 0.8537 0.8945 0.9879 1.0445 1.0379 1.1171
1880.754 1.1711 1.1898 1.1662 1.2221 1.3613 1.2433 1.17 1.2493 1.0954 1.2068
1900.043 1.2326 1.041 0.9877 0.8811 0.9162 1.0475 1.046 0.9729 0.9024 0.9169
1919.333 0.9233 0.921 0.9493 0.9106 0.9218 0.9504 1.0404 0.9539 0.81438 0.9421
1938.623 0.9173 0.83979 0.969 1.0223 0.81835 0.83892 0.9564 0.9432 0.9208 0.7365
1957.913 0.6521 0.750988 0.82756 0.9603 1.0633 0.9867 0.8969 1.0688 1.0786 0.926
1977.202 0.9414 0.8636 0.9567 0.9014 0.82694 0.8626 0.8943 0.9869 0.84425 0.84219
1996.492 0.7355 0.55 0.7152 0.82503 0.8808 1.1435 1.2132 1.2418 1.151 0.79702
2015.782 0.78057 0.8775 0.7188 0.6632 0.84086 1.0372 1.0165 1.032 1.1964 1.1953
2035.072 0.9898 0.8951 0.9668 0.80087 1.1368 1.3508 1.2294 1.2258 1.189 1.2859
2054.362 1.2811 1.2303 1.1692 1.0571 1.0253 0.9731 0.9031 0.8809 1.0217 1.1341
2073.651 1.0853 1.0244 0.9703 1.0455 1.0327 0.99 0.8753 0.881 1.0072 0.8792
2092.941 0.83446 0.8 0.83764 0.82257 0.80948 0.83518 0.577 0.609 0.8537 0.84163
2112.231 0.8732 0.9109 0.9273 1.0535 0.8797 0.7719 0.85 0.9118 1.0089 1.1334
2131.521 0.8702 0.633 0.74398 0.76127 0.77602 0.7487 0.8562 1.0759 1.0166 1.0972
2150.810 1.2677 1.1179 1.0694 0.9571 1.096 1.3618 1.1864 1.0316 0.9886 1.0425
2170.100 1.0546 1.0025 1.1253 1.2229 1.0924 0.9454 0.9682 1.0726 1.2104 1.4772
2189.390 1.5544 1.5755 1.6889 1.5923 1.6351 1.6822 1.86 2.1 2.28 2.48
2208.680 2.57 2.72 2.65 2.81 3.23 3.51 3.82 4.16 4.39 4.54
2227.970 4.67 4.96 5.13 5.07 4.99 4.89 4.89 4.92 4.7 4.43
2247.259 4.42 4.55 4.42 4.13 3.91 3.61 3.55 3.49 3.12 2.96
2266.549 3.02 2.8 2.66 2.51 2.32 2.14 1.97 1.98 1.76 1.6781
2285.839 1.9 1.623 1.5077 1.5242 1.2451 1.2528 1.2776 1.1346 1.142 1.2265
2305.129 1.2218 1.1707 1.0193 1.1632 1.3257 1.2725 1.049 0.9023 1.0053 1.0819
2324.418 1.054 0.9762 0.8572 0.9473 1.0355 1.0376 1.0486 1.1809 1.1498 0.84641
2343.708 1.1146 1.193 1.0108 1.0001 1.0829 1.3621 1.5619 1.5116 1.4567 1.3223
2362.998 1.3295 1.6094 1.3893 1.1328 1.1233 1.2902 1.4031 1.1864 1.1963 1.176
2382.288 1.1591 1.1231 1.1681 1.2759 1.0617 1.1678 1.2557 1.2041 1.4751 1.4478
2401.578 1.2184 1.3434 1.375 1.2874 1.0293 0.80085 0.9475 1.0988 1.1703 0.9053
2420.867 0.6532 1.2019 1.5765 1.3888 1.2351 1.2945 1.3013 1.1657 1.1651 1.2238
2440.157 1.4439 1.3686 1.1142 1.0395 1.143 1.0544 1.1978 1.5456 1.4086 1.4745
2459.447 1.4394 1.2152 1.2063 1.1357 1.1501 1.2497 0.9043 0.77218 0.9152 0.915
2478.737 0.9778 1.0875 1.1853 1.2446 1.3096 1.0545 0.9551 1.0025 1.0641 1.287
2498.026 1.1432 0.8562 0.9265 1.1141 1.1369 1.1668 1.2734 1.134 1.2099 0.9772
2517.316 0.582 0.84336 1.1077 1.166 1.0821 0.8792 0.7181 0.9802 1.1806 1.2685
2536.606 1.3255 1.0917 0.9665 0.8705 0.6864 0.755017 0.754086 0.629 0.7144 0.8741
2555.896 0.77117 0.552 0.64 0.7894 0.74045 0.8208 0.7087 0.577 0.83698 0.81764
2575.186 0.584 0.80114 1.1422 0.937 0.552 0.6843 0.9907 0.9858 0.77437 0.81848
2594.475 1.0824 1.1865 1.1287 0.9267 0.9269 0.9849 1.1498 1.1725 1.0056 1.097
2613.765 0.9792 0.7044 0.6656 0.81639 0.9818 1.0601 1.0503 0.8686 0.8668 0.8869
2633.055 0.759891 0.9267 0.963 0.9246 0.9841 1.116 0.9 0.64 0.9633 1.0164
2652.345 0.9569 1.0937 0.8588 0.79688 0.8045 0.6569 0.9929 1.2334 1.2238 1.1497
2671.634 1.009 1.1208 1.2123 1.1205 0.8898 1.0779 1.3291 0.9641 1.0884 1.2383
2690.924 1.0288 0.9581 0.7891 0.7293 0.9621 1.2976 1.1543 0.80094 1.0533 1.3848
2710.214 1.1872 1.1657 1.431 0.8654 0.641 1.4367 1.84 1.6602 1.5178 1.4234
2729.504 1.3481 1.6539 2.22 2.46 2.51 2.38 2.22 2.57 2.66 2.98
2748.794 3.19 2.97 2.86 2.66 2.71 2.96 2.44 2.3 2.27 1.76
2768.083 2.2 2.41 2.23 2.12 2.29 2.22 1.95 2.23 2.12 1.75
2787.373 1.85 2.14 2.09 2.05 2.16 2.39 2.62 2.42 2.26 2.51
2806.663 2.79 2.82 2.74 2.65 2.94 3.22 3.1 2.86 2.96 3.55
2825.953 3.68 3.92 4.47 4.74 4.57 4.52 5.25 6.02 6.76 7.28
2845.242 7.61 8.48 9.29 10.06 10.87 11.61 12.81 13.72 15.04 16.9
2864.532 18.29 19.74 20.78 21.9 23.23 24.33 25.22 26.03 26.8 27.07
2883.822 27.52 27.63 27.18 26.63 26.38 25.93 24.87 23.81 23.16 22.4
2903.112 21.97 22.11 21.74 21.86 22.99 24.53 26.53 29.54 33.58 38.48
2922.401 43.88 49.95 56.53 61.72 65.74 68.79 71.7 74.99 74.96 73.55
2941.691 73.62 72.25 67.76 62.2 57.03 52.64 49.32 46.13 44.11 43.38
2960.981 43.37 44.9 47.76 51.94 56.8 61.86 67.5 73.67 79.73 83.71
2980.271 84.5 84.33 84.22 82.62 78.55 72.95 66.5 59.54 52.93 46.02
2999.561 39.2 33.23 27.96 24.17 21.08 17.85 14.95 12.26 11.09 10.39
3018.850 9.1 8.47 7.89 7.58 7.79 7.02 6.88 7.25 7.09 7.17
3038.140 7.01 6.49 6.2 6.26 5.73 5.35 5.29 5.34 5.14 4.87
3057.430 5.12 4.86 4.71 5.03 5.21 5.23 5.15 5.21 4.88 4.41
3076.720 4.13 3.99 4.31 4.2 3.75 3.89 4.03 4.18 4.45 4.4
3096.009 4.02 3.96 4.22 3.86 3.51 3.13 2.76 2.85 3.15 3.14
3115.299 2.87 2.84 2.86 2.67 2.34 2.27 2.33 2.11 2 2.08
3134.589 1.6634 1.4688 1.476 1.84 2.07 1.6456 1.476 1.3168 1.2867 1.2509
3153.879 1.7481 2.45 1.88 1.3029 1.3679 1.6669 1.78 0.9535 0.81718 1.82
3173.169 1.94 1.661 1.1347 1.0229 1.4318 1.4221 1.2817 1.76 2.1 1.7029
3192.458 1.4544 1.5623 1.6301 1.4251 1.4454 1.85 2.36 2.08 1.7324 1.98
3211.748 2.08 1.88 1.95 1.6783 1.5772 1.2376 1.0461 1.0387 1.0331 1.5945
3231.038 1.653 1.4564 1.449 1.507 1.92 2.16 1.6825 2.03 2.14 1.3677
3250.328 1.2683 1.6292 1.5005 1.3827 1.486 1.1238 0.9325 1.083 1.5116 1.5197
3269.617 0.6763 0.153 0.82717 1.6905 1.666 1.5398 1.4223 1.139 0.82038 1.1293
3288.907 1.553 1.1072 1.1895 1.1247 0.8592 1.0004 0.76045 0.9548 1.3381 1.2232
3308.197 1.2984 1.3159 1.0758 1.3449 1.4726 1.3328 1.2877 1.4081 1.3437 1.3462
3327.487 1.5537 1.0848 1.1878 1.6735 1.5185 1.2937 1.2569 1.5315 1.77 1.3988
3346.777 1.3712 1.77 1.4386 1.4501 1.6037 1.3735 1.4502 1.627 1.4201 1.2883
3366.066 1.5757 1.81 1.5294 0.6784 0.7071 1.3266 1.3763 1.6738 1.6295 1.4349
3385.356 1.0688 0.7373 1.1749 1.0294 1.352 1.95 1.6638 1.6314 1.77 1.296
3404.646 1.2418 1.1872 0.644 1.116 1.5006 1.38 1.2831 1.4737 1.97 1.98
3423.936 1.5684 1.3491 1.2638 1.3162 1.666 1.93 1.6769 1.4358 1.87 1.79
3443.225 1.1009 0.9955 0.9487 1.0472 1.5838 1.1915 1.1004 1.5506 0.8644 0.405
3462.515 0.586 0.77112 1.152 0.82351 0.6519 1.43 1.82 1.5343 1.4837 1.7209
3481.805 1.5965 1.2836 1.1861 1.6458 2.24 2 1.4021 1.3609 1.3692 1.1266
3501.095 0.7096 0.62 1.3583 1.6637 1.7468 1.5423 1.3136 1.5879 1.5223 1.0867
3520.385 0.7288 0.356 0.754285 1.7487 1.4095 1.1631 1.6075 1.6911 1.2959 1.3102
3539.674 1.2193 1.2896 1.6596 1.3711 1.1841 1.5313 1.3399 1.2128 1.1134 1.3098
3558.964 1.1176 0.6659 1.4432 1.4624 0.79718 0.48 0.9331 1.0974 0.9326 0.8042
3578.254 0.58 0.9976 1.3273 1.2158 1.2988 1.4508 0.79701 0.76368 1.1777 0.8757
3597.544 1.6451 1.78 1.2898 1.7008 1.86 2.17 2.23 2.44 2.71 2.76
3616.833 2.93 3.27 4.33 5.2 6.12 7.28 9.11 10.66 11.32 12.19
3636.123 13.37 14.22 15.23 16.14 16.23 16.33 15.51 13.72 12.83 11.84
3655.413 10.13 9.12 8.6 7.31 5.63 4.48 3.75 3.26 3.25 2.54
3674.703 2.07 1.86 1.6523 2.38 1.96 0.9118 1.188 1.6913 1.3294 1.5414
3693.993 1.85 1.75 1.2809 1.2853 1.068 0.124 0.33 1.041 1.1967 1.5276
3713.282 1.4263 1.036 0.83128 0.8063 1.0985 1.1255 0.7039 0.4 0.238 0.269
3732.572 0.6936 0.77918 0.8637 0.9499 0.7164 0.6976 0.84481 0.749622 0.649 0.919
3751.862 0.9314 0.9381 1.7023 1.6942 1.2439 0.82751 0.751426 1.2216 1.4941 1.91
3771.152 1.5407 0.9886 0.9726 1.0357 1.5822 1.3759 0.469 0.417 1.0052 1.0572
3790.441 1.2219 1.5368 1.3021 1.6386 1.547 1.0631 1.1243 1.1045 0.646 0.504
3809.731 1.1551 1.1366 0.7153 0.6695 0.535 0.678 0.8893 1.3422 1.6769 1.1544
3829.021 0.80456 0.79124 0.7817 0.6889 0.9754 1.1802 1.1643 1.3988 1.1081 0.6773
3848.311 0.491 0.167 0 0.207 0.599 0.9172 0.8494 0.82776 1.0029 1.2623
3867.601 1.699 1.3263 0.6584 0.9278 0.83583 1.0452 1.1077 0.471 0.393 0.84641
3886.890 1.3471 1.0407 0.82111 0.9718 0.81228 0.681 0.642 0.555 0.9601 0.9811
3906.180 1.0878 1.6884 1.2563 0.951 0.8536 1.0528 2.25 2.34 1.378 0.81828
3925.470 0.626 1.044 0.9981 0.154 0.482 1.1164 0.9524 0.626 0.348 0.559
3944.760 1.5899 1.79 1.1693 0.83296 0.608 0.454 0.509 0.518 0.74758 0.83364
3964.049 0.484 1.0584 1.4399 1.3881 1.77 1.6369 1.341 0.9963 0.083 0.155
3983.339 1.2793 2.17 1.94 1.3563 0.8857 0.754585 1.3004 1.2948 1.4965 1.76
##END=
