##TITLE=3-Bromothiophenol
##JCAMP-DX=4.24
##DATA TYPE=INFRARED SPECTRUM
##ORIGIN=EPA-IR VAPOR PHASE LIBRARY
##OWNER=SRD/NIST
Collection (C) 2018 copyright by the U.S. Secretary of Commerce
on behalf of the United States of America. All rights reserved.
##CAS REGISTRY NO=6320-01-0
##MOLFORM=C 6 H 5 Br S
##$NIST SOURCE=MSDC-IR
##STATE=gas
##XUNITS=1/CM
##YUNITS=ABSORBANCE
##XFACTOR=1.
##YFACTOR=0.001
##DELTAX=1.92898
##FIRSTX=549.8
##LASTX=4000.7
##FIRSTY=0.3104
##MAXX=4000.7
##MINX=549.759
##MAXY=0.114965
##MINY=0
##NPOINTS=1790
##XYDATA=(X++(Y..Y))
549.759 0.3104 0.5619 0.4221 0.5105 0.3995 0.4722 0.647 0.5314 0.3823 0.19912
569.049 0.18886 0.4225 0.732 0.7268 0.6116 0.8399 0.8605 0.7512 0.9061 0.8555
588.339 0.803 0.9622 1.0211 1.072 1.255 0.9191 0.7641 0.8475 0.9614 1.185
607.628 1.285 1.495 1.515 1.435 1.335 1.195 1.255 1.325 1.565 1.705
626.918 1.615 1.725 1.815 2.145 2.685 3.175 3.725 4.225 4.985 6.335
646.208 7.925 9.405 10.545 11.125 11.185 11.695 13.395 15.205 16.035 16.655
665.498 17.805 19.275 21.355 24.655 29.385 29.335 24.195 21.035 19.385 17.505
684.787 15.555 13.615 11.565 9.595 8.055 6.825 5.775 5.065 4.445 4.095
704.077 4.095 3.875 3.755 3.725 3.575 3.495 3.535 3.705 3.845 3.975
723.367 4.325 4.965 5.885 7.095 8.665 10.965 14.335 18.775 24.345 31.425
742.657 40.135 49.655 59.675 70.605 82.555 93.925 103.025 108.655 110.025 109.275
761.947 107.285 103.265 99.455 95.625 85.295 70.175 59.225 52.625 46.265 39.345
781.236 32.665 26.195 20.165 15.455 11.825 9.005 7.145 5.665 4.515 4.055
800.526 3.825 3.565 3.225 2.985 2.775 2.495 2.405 2.675 3.015 3.145
819.816 3.035 2.945 3.105 3.135 3.085 3.195 3.155 2.805 2.765 2.895
839.106 2.705 2.745 2.955 3.235 3.655 4.205 5.045 5.855 6.545 7.295
858.395 7.945 8.755 9.415 9.715 10.245 10.505 10.355 10.235 10.135 10.035
877.685 9.425 8.245 7.245 6.515 5.665 4.865 4.325 3.855 3.285 2.925
896.975 2.805 2.665 2.695 2.915 3.165 3.465 3.765 4.065 4.395 4.555
916.265 4.685 4.785 4.655 4.505 4.445 4.065 3.665 3.545 3.325 3.215
935.555 3.075 2.695 2.465 2.345 2.255 2.195 2.075 1.875 2.015 2.175
954.844 1.845 1.795 1.875 1.915 1.865 1.715 1.795 1.775 1.835 2.005
974.134 2.265 2.555 2.735 3.285 3.955 4.775 6.195 7.535 8.275 8.385
993.424 8.255 8.345 8.725 8.485 7.525 6.725 6.105 5.755 5.325 5.035
1012.714 5.215 5.375 5.095 4.795 4.815 4.575 4.365 4.575 5.005 5.025
1032.003 5.105 5.525 5.495 5.745 6.335 6.885 7.755 8.805 10.065 11.515
1051.293 13.045 14.905 16.745 18.425 20.005 21.325 22.485 23.455 23.955 24.705
1070.583 26.425 28.335 30.625 32.705 33.495 33.235 32.755 32.055 30.505 28.085
1089.873 24.975 22.115 19.685 18.115 17.285 16.115 14.785 13.655 12.865 12.385
1109.163 11.925 11.305 10.365 10.095 10.095 8.915 8.185 8.595 8.605 7.655
1128.452 6.205 5.295 4.785 4.195 3.945 3.685 3.505 3.185 2.765 2.625
1147.742 2.875 2.795 2.295 2.565 2.655 2.665 3.045 3.385 3.565 3.195
1167.032 2.965 2.975 2.935 2.845 2.885 2.935 2.705 2.545 2.735 2.945
1186.322 2.745 2.605 2.565 2.255 2.195 2.215 2.145 1.875 1.765 1.625
1205.611 1.575 1.475 1.0421 1.405 1.545 1.275 1.315 1.375 1.435 1.085
1224.901 0.8719 1.425 1.645 1.855 2.025 2.035 2.325 2.425 2.735 2.925
1244.191 3.065 3.285 3.245 3.055 2.815 2.825 2.885 2.625 2.315 2.095
1263.481 1.885 1.965 1.845 1.565 1.725 2.095 2.395 2.845 3.215 3.575
1282.771 3.975 4.255 4.525 4.565 4.525 4.345 4.105 3.825 3.385 2.965
1302.060 2.615 2.475 2.585 2.955 3.315 3.565 3.865 4.115 4.285 4.345
1321.350 4.305 4.095 3.685 3.305 2.935 2.455 2.085 1.815 1.615 1.425
1340.640 1.195 1.0992 1.1169 1.1687 1.225 1.235 1.355 1.525 1.685 1.925
1359.930 2.255 2.675 3.205 3.925 4.795 5.925 7.285 8.745 10.395 12.195
1379.219 13.995 15.615 17.015 18.115 19.125 20.165 21.075 21.915 22.505 22.855
1398.509 23.005 23.015 23.235 23.535 23.385 22.415 20.835 19.125 17.515 15.955
1417.799 14.145 12.175 10.465 9.105 8.035 7.325 6.995 6.965 7.225 7.785
1437.089 8.665 9.945 11.755 14.235 17.765 22.755 29.745 38.995 50.335 61.985
1456.378 71.455 76.385 76.945 75.775 73.305 68.885 60.585 48.505 37.465 30.395
1475.668 26.745 24.725 22.985 20.795 18.375 15.815 13.205 10.745 8.435 6.575
1494.958 5.295 4.405 3.805 3.475 3.385 3.275 3.095 3.015 3.045 3.015
1514.248 3.045 3.135 3.325 3.545 3.785 4.125 4.585 5.095 5.765 6.765
1533.538 7.965 9.445 11.345 13.715 16.575 20.245 25.025 31.015 38.285 46.955
1552.827 56.785 67.855 79.055 89.835 99.515 107.045 112.245 114.965 114.605 110.825
1572.117 103.995 95.545 87.055 79.015 70.935 61.875 51.815 41.695 32.975 25.665
1591.407 19.455 14.605 11.215 8.855 7.205 6.085 5.245 4.645 4.255 4.075
1610.697 3.945 3.845 3.875 3.765 3.555 3.425 3.255 2.955 2.715 2.485
1629.986 2.235 1.985 1.875 1.835 1.795 1.905 2.015 2.025 2.125 2.275
1649.276 2.365 2.535 2.725 2.965 3.085 3.045 3.025 2.885 2.705 2.615
1668.566 2.455 2.175 1.915 1.695 1.525 1.335 1.175 1.0961 1.0534 1.0308
1687.856 1.0407 1.175 1.245 1.245 1.215 1.225 1.325 1.405 1.475 1.565
1707.146 1.625 1.705 1.825 1.985 2.095 2.215 2.385 2.495 2.555 2.645
1726.435 2.725 2.885 3.145 3.235 3.355 3.505 3.475 3.465 3.465 3.495
1745.725 3.535 3.445 3.365 3.285 3.195 3.135 3.095 3.045 2.965 2.865
1765.015 2.785 2.785 2.715 2.665 2.645 2.625 2.575 2.485 2.425 2.345
1784.305 2.265 2.195 2.165 2.015 1.815 1.765 1.695 1.545 1.445 1.335
1803.594 1.225 1.1572 1.157 1.195 1.175 1.1458 1.205 1.215 1.215 1.295
1822.884 1.325 1.365 1.505 1.655 1.755 1.805 1.855 2.055 2.235 2.355
1842.174 2.535 2.725 2.855 3.045 3.255 3.315 3.265 3.225 3.175 3.065
1861.464 2.905 2.665 2.415 2.145 1.895 1.715 1.595 1.485 1.355 1.205
1880.754 1.0167 0.9166 0.9376 0.9473 0.9078 0.885 0.8795 0.8831 0.8995 0.993
1900.043 1.1313 1.235 1.285 1.415 1.595 1.735 1.945 2.155 2.335 2.445
1919.333 2.605 2.805 2.885 2.865 2.795 2.705 2.605 2.425 2.205 1.945
1938.623 1.735 1.565 1.325 1.1377 1.0007 0.8728 0.7708 0.7202 0.7063 0.6925
1957.913 0.6311 0.6113 0.5878 0.5051 0.5182 0.5432 0.504 0.5252 0.5209 0.4381
1977.202 0.4596 0.5039 0.49 0.5065 0.4945 0.4266 0.4483 0.4934 0.4345 0.3973
1996.492 0.4573 0.4448 0.3861 0.3667 0.3458 0.3338 0.3855 0.439 0.4075 0.3667
2015.782 0.3438 0.3527 0.2926 0.3463 0.3662 0.25527 0.27071 0.3395 0.4206 0.3685
2035.072 0.3004 0.3601 0.3966 0.351 0.3238 0.3379 0.3332 0.3385 0.3363 0.3473
2054.362 0.3382 0.3004 0.3348 0.3381 0.3466 0.373 0.3093 0.26917 0.2755 0.26754
2073.651 0.24558 0.2923 0.3407 0.3462 0.3104 0.2789 0.3065 0.3123 0.2961 0.2901
2092.941 0.3533 0.3409 0.24467 0.16866 0.18605 0.2939 0.24056 0.16545 0.19203 0.2827
2112.231 0.3019 0.2772 0.3055 0.2955 0.3095 0.24149 0.21842 0.2779 0.3048 0.3233
2131.521 0.24607 0.21053 0.24652 0.3111 0.3925 0.3484 0.32 0.3503 0.3618 0.3604
2150.810 0.3518 0.3417 0.3622 0.44 0.4575 0.3834 0.3437 0.4101 0.5076 0.5527
2170.100 0.4935 0.5551 0.6236 0.5706 0.5539 0.5598 0.5764 0.5417 0.5349 0.5133
2189.390 0.5382 0.566 0.5516 0.6493 0.6591 0.6027 0.6118 0.5543 0.4874 0.3754
2208.680 0.3187 0.3429 0.3573 0.3895 0.3973 0.3778 0.3328 0.341 0.3571 0.3544
2227.970 0.4507 0.4544 0.3635 0.3826 0.3509 0.3944 0.5079 0.4657 0.4525 0.4624
2247.259 0.3496 0.3029 0.3952 0.487 0.4775 0.4256 0.4349 0.4709 0.4303 0.3651
2266.549 0.3166 0.3509 0.4344 0.4436 0.4229 0.4507 0.4443 0.4555 0.4851 0.4479
2285.839 0.416 0.4357 0.4403 0.4159 0.3443 0.3431 0.426 0.444 0.465 0.4751
2305.129 0.4947 0.4693 0.4029 0.4228 0.5234 0.5642 0.5659 0.6363 0.6912 0.6689
2324.418 0.7033 0.8245 0.8681 0.8385 0.7726 0.7777 0.8186 0.8235 0.8495 0.8571
2343.708 0.9023 0.8746 0.7935 0.8791 0.8989 0.8059 0.7346 0.7284 0.7795 0.7752
2362.998 0.7884 0.8409 0.7909 0.7551 0.7994 0.7768 0.7869 0.8494 0.8599 0.7743
2382.288 0.6891 0.7208 0.761 0.7532 0.7728 0.776 0.7195 0.7507 0.8331 0.7918
2401.578 0.8083 0.8304 0.7894 0.7954 0.7775 0.7226 0.669 0.7126 0.6607 0.5381
2420.867 0.5248 0.5879 0.6051 0.5015 0.4337 0.4604 0.448 0.4449 0.5002 0.518
2440.157 0.4809 0.4486 0.4796 0.5415 0.619 0.5181 0.4325 0.4802 0.4295 0.4191
2459.447 0.4699 0.4793 0.5239 0.5346 0.5149 0.4762 0.4648 0.4331 0.3922 0.4114
2478.737 0.3819 0.4339 0.551 0.5346 0.4498 0.4845 0.4945 0.5255 0.5145 0.5216
2498.026 0.5338 0.49 0.5135 0.5278 0.5318 0.502 0.5454 0.523 0.4466 0.4668
2517.316 0.5085 0.5351 0.5359 0.4844 0.4334 0.4013 0.3642 0.2993 0.3212 0.386
2536.606 0.4198 0.5045 0.4746 0.4011 0.4683 0.5232 0.4969 0.5902 0.637 0.6339
2555.896 0.6118 0.5687 0.6348 0.5875 0.6263 0.7244 0.721 0.6717 0.744 0.8108
2575.186 0.7443 0.7597 0.794 0.8544 0.9427 0.8821 0.7815 0.7461 0.7702 0.7734
2594.475 0.7039 0.7394 0.7616 0.6828 0.5817 0.579 0.5405 0.4983 0.5756 0.6018
2613.765 0.6377 0.6951 0.63 0.6 0.6585 0.7741 0.8977 0.831 0.7307 0.7285
2633.055 0.8253 0.9048 0.8416 0.7979 0.7939 0.8331 0.9202 0.8947 0.8909 0.9006
2652.345 0.8744 0.8693 0.8241 0.8596 0.8319 0.7632 0.7447 0.7619 0.7704 0.7655
2671.634 0.8081 0.808 0.7842 0.7548 0.7395 0.7763 0.7397 0.7273 0.7604 0.6332
2690.924 0.5494 0.5726 0.5853 0.5523 0.4761 0.5428 0.549 0.4562 0.4364 0.3795
2710.214 0.3847 0.4449 0.4586 0.3845 0.3734 0.4082 0.4677 0.527 0.483 0.4508
2729.504 0.4003 0.3315 0.3925 0.3676 0.2968 0.391 0.4214 0.4575 0.4673 0.3785
2748.794 0.2933 0.26142 0.2773 0.27167 0.26212 0.3072 0.3153 0.292 0.2835 0.26162
2768.083 0.3289 0.3439 0.3312 0.3277 0.26655 0.2905 0.315 0.3336 0.446 0.59
2787.373 0.6045 0.5146 0.5124 0.5537 0.5877 0.6181 0.5603 0.5321 0.6185 0.6024
2806.663 0.5327 0.448 0.4988 0.4978 0.4608 0.5711 0.5767 0.5583 0.4732 0.4158
2825.953 0.3688 0.4843 0.5393 0.3952 0.4277 0.4151 0.396 0.3956 0.3892 0.3907
2845.242 0.3768 0.3739 0.3014 0.2412 0.26386 0.3681 0.3532 0.3226 0.42 0.4692
2864.532 0.5537 0.4828 0.284 0.3629 0.4692 0.5463 0.508 0.3953 0.4428 0.3884
2883.822 0.24755 0.22382 0.26306 0.3441 0.3941 0.4256 0.4731 0.4997 0.5601 0.5046
2903.112 0.4631 0.4911 0.5127 0.6162 0.5846 0.4817 0.5929 0.6787 0.6193 0.4723
2922.401 0.5386 0.7018 0.697 0.6533 0.5361 0.3843 0.3725 0.4599 0.4283 0.4175
2941.691 0.4251 0.3601 0.3784 0.4303 0.3812 0.3793 0.5289 0.4804 0.3697 0.3793
2960.981 0.3803 0.4273 0.5434 0.5729 0.5072 0.4892 0.5444 0.5185 0.5824 0.6579
2980.271 0.6275 0.7515 0.9742 1.0998 1.0659 1.098 1.245 1.375 1.495 1.755
2999.561 1.895 1.885 1.945 1.965 1.995 2.095 2.065 1.885 1.825 1.745
3018.850 1.685 1.665 1.595 1.535 1.475 1.485 1.465 1.555 1.585 1.575
3038.140 1.785 1.945 2.215 2.595 3.205 3.965 4.725 5.845 7.055 8.345
3057.430 9.835 11.445 13.095 14.505 15.505 16.295 16.755 16.915 16.985 16.635
3076.720 15.595 14.195 12.665 11.115 9.865 9.075 8.265 7.275 6.155 4.905
3096.009 3.805 3.015 2.485 2.115 1.835 1.425 1.255 1.1712 0.9886 0.997
3115.299 1.1172 1.235 1.1571 0.977 1.0578 1.1096 0.9532 0.8694 0.858 0.8261
3134.589 1.0261 1.0899 0.9963 0.9273 0.8694 0.8168 0.6641 0.6135 0.5441 0.6015
3153.879 0.7325 0.61 0.4055 0.3793 0.4604 0.449 0.3914 0.464 0.4027 0.2996
3173.169 0.3065 0.3737 0.3879 0.2934 0.20212 0.3068 0.3416 0.11 0.16775 0.3766
3192.458 0.3451 0.3606 0.4154 0.4276 0.3416 0.1473 0.118 0.1024 0.1239 0.1479
3211.748 0.0754 0.0989 0.0821 0.05 0.1361 0.062 0.0794 0.20535 0.20616 0.301
3231.038 0.3189 0.22729 0.3384 0.4788 0.4857 0.3057 0.0897 0.1228 0.1603 0.1299
3250.328 0.2176 0.4349 0.2788 0.071 0.0992 0.19771 0.3228 0.25933 0.20248 0.184893
3269.617 0.1027 0.039 0.1287 0.26214 0.3986 0.3856 0.23649 0.1017 0.0979 0.0762
3288.907 0.062 0.0884 0.26099 0.4238 0.3862 0.3762 0.23598 0.1025 0.16 0.1032
3308.197 0.035 0.20411 0.181116 0.22784 0.4022 0.4103 0.3427 0.305 0.2807 0.23345
3327.487 0.25662 0.25063 0.16989 0.1202 0.19303 0.1564 0.20799 0.24376 0.0843 0.16543
3346.777 0.2914 0.24731 0.1698 0.1333 0.0772 0.0853 0.17989 0.2201 0.3008 0.4668
3366.066 0.5263 0.3363 0.1157 0.066 0.026 0.1236 0.2972 0.3335 0.27438 0.2216
3385.356 0.20228 0.21059 0.16902 0.0874 0.1318 0.22692 0.3016 0.27087 0.2958 0.3579
3404.646 0.25188 0.2948 0.3016 0.178122 0.184652 0.2881 0.4089 0.3411 0.24923 0.17247
3423.936 0.1416 0.182536 0.16878 0.18919 0.059 0.001 0.21278 0.3201 0.3142 0.3472
3443.225 0.307 0.19888 0.19432 0.20836 0.1583 0.1828 0.20796 0.1368 0.174757 0.20274
3462.515 0.1279 0.0915 0.2869 0.4443 0.3731 0.2941 0.3129 0.3774 0.5082 0.6377
3481.805 0.5709 0.4476 0.5326 0.6449 0.5673 0.572 0.6743 0.7097 0.7555 0.797
3501.095 0.8546 0.775 0.6966 0.6916 0.6382 0.6883 0.5946 0.4764 0.4411 0.5012
3520.385 0.5513 0.4593 0.24043 0.1632 0.3786 0.3414 0.26751 0.26842 0.1586 0.18744
3539.674 0.1581 0.19418 0.3698 0.3665 0.22786 0.2905 0.4137 0.366 0.1342 0.039
3558.964 0.18607 0.23581 0.1609 0.0874 0.21772 0.3349 0.24885 0.1192 0.056 0.1319
3578.254 0.182428 0.182603 0.018 0 0.16999 0.19095 0.19092 0.1627 0.1258 0.19732
3597.544 0.2949 0.20175 0.23599 0.3032 0.25824 0.26673 0.2232 0.3603 0.5182 0.3309
3616.833 0.21104 0.174116 0.184532 0.21329 0.178752 0.25697 0.3192 0.2995 0.23984 0.2494
3636.123 0.21997 0.21683 0.24758 0.22825 0.20787 0.2755 0.3419 0.3896 0.3948 0.4216
3655.413 0.3765 0.4672 0.6018 0.321 0.1324 0.18991 0.2778 0.3167 0.23838 0.22611
3674.703 0.25364 0.22135 0.24827 0.2903 0.2982 0.25205 0.3145 0.3098 0.24705 0.3043
3693.993 0.3945 0.4525 0.472 0.3807 0.3221 0.21982 0.24784 0.4631 0.3848 0.3776
3713.282 0.4319 0.3621 0.3189 0.3618 0.6373 0.742 0.5389 0.518 0.6584 0.6718
3732.572 0.7105 0.7471 0.604 0.5714 0.6783 0.7224 0.7412 0.6221 0.5215 0.5823
3751.862 0.4754 0.2636 0.3101 0.474 0.366 0.17083 0.1023 0.21585 0.26574 0.1183
3771.152 0.1502 0.26648 0.3752 0.3894 0.3609 0.4119 0.4157 0.3748 0.3654 0.3263
3790.441 0.22926 0.1291 0.08 0.139 0.16927 0.25022 0.3003 0.3328 0.21333 0.25252
3809.731 0.2956 0.22912 0.4257 0.5789 0.5501 0.5059 0.3655 0.3004 0.4503 0.6379
3829.021 0.6494 0.569 0.5905 0.4351 0.3211 0.4048 0.4827 0.3362 0.25125 0.3447
3848.311 0.4011 0.3445 0.26908 0.3019 0.4189 0.4507 0.3596 0.23097 0.23448 0.3366
3867.601 0.3097 0.2825 0.2818 0.2892 0.2853 0.24083 0.252 0.2644 0.3658 0.4471
3886.890 0.26881 0.26646 0.3968 0.2997 0.3035 0.3496 0.3611 0.284 0.16623 0.17363
3906.180 0.3331 0.349 0.21349 0.19387 0.20505 0.1245 0.1091 0.23321 0.23036 0.21831
3925.470 0.2835 0.3201 0.24349 0.1633 0.26029 0.25604 0.1489 0.26067 0.374 0.27098
3944.760 0.20731 0.3161 0.3978 0.3451 0.23173 0.3069 0.25014 0.23007 0.3474 0.17085
3964.049 0.06 0.175364 0.299 0.4899 0.5824 0.4047 0.3965 0.5047 0.4378 0.4402
3983.339 0.4232 0.3966 0.4128 0.3752 0.4296 0.3444 0.4162 0.4448 0.2793 0.4191
##END=
