##TITLE=Diethyl formamidomalonate
##JCAMP-DX=4.24
##DATA TYPE=INFRARED SPECTRUM
##ORIGIN=EPA-IR VAPOR PHASE LIBRARY
##OWNER=SRD/NIST
Collection (C) 2018 copyright by the U.S. Secretary of Commerce
on behalf of the United States of America. All rights reserved.
##CAS REGISTRY NO=6326-44-9
##MOLFORM=C 8 H 13 N O 5
##$NIST SOURCE=MSDC-IR
##STATE=gas
##XUNITS=1/CM
##YUNITS=ABSORBANCE
##XFACTOR=1.
##YFACTOR=0.001
##DELTAX=1.929
##FIRSTX=549.8
##LASTX=4000.8
##FIRSTY=8.32
##MAXX=4000.75
##MINX=549.766
##MAXY=0.23383
##MINY=0
##NPOINTS=1790
##XYDATA=(X++(Y..Y))
549.766 8.32 8.13 8.05 8.09 8.13 7.92 7.54 7.33 7.53 7.95
569.056 8.26 8.41 8.55 8.69 8.61 8.9 9.19 9.18 8.94 8.75
588.346 8.87 8.77 8.65 8.72 8.52 8.32 8.13 7.85 7.73 7.54
607.636 7.27 7.05 6.98 6.97 6.82 6.58 6.49 6.4 6.3 6.35
626.926 6.38 6.4 6.49 6.56 6.52 6.53 6.33 6.37 6.67 6.79
646.216 6.68 6.46 6.2 6.14 6.25 6.26 6.28 6.1 6.07 6.11
665.506 6.21 6.98 6.88 6.07 5.89 6.07 6.17 6.11 6.16 6.15
684.796 6.19 6.27 6.28 6.3 6.23 6.21 6.47 6.62 6.69 6.71
704.086 6.78 6.96 7.02 7.06 7.28 7.55 7.55 7.44 7.64 7.7
723.376 7.61 7.61 7.59 7.61 7.49 7.4 7.3 7.19 6.98 6.78
742.666 6.71 6.53 6.35 6.2 6.11 5.99 5.7 5.56 5.6 5.6
761.956 5.5 5.34 5.31 5.36 5.46 5.52 5.53 5.46 5.45 5.52
781.246 5.59 5.73 5.72 5.64 5.61 5.58 5.56 5.53 5.51 5.52
800.536 5.35 5.13 5.23 5.21 5.14 5.24 4.97 4.7 4.97 5.06
819.826 4.95 5.14 5.26 5.32 5.34 5.45 5.62 5.8 6.16 6.53
839.116 7.02 7.51 8.15 8.9 9.66 10.78 11.97 13.21 14.64 15.79
858.406 16.72 17.46 17.66 17.44 16.79 15.67 14.18 12.54 10.94 9.47
877.696 8.27 7.22 6.4 5.75 5.16 4.82 4.57 4.5 4.46 4.37
896.986 4.26 4.03 3.96 3.99 3.98 4.03 4.05 4.08 4.22 4.34
916.276 4.42 4.47 4.5 4.81 5.15 5.37 5.57 5.71 5.96 6.23
935.566 6.48 6.64 6.81 7.04 7.15 7.35 7.61 7.67 7.71 7.78
954.856 7.96 8.16 8.29 8.44 8.63 8.71 8.83 9.14 9.36 9.62
974.146 9.96 10.27 10.61 10.95 11.31 11.8 12.29 12.87 13.54 14.27
993.436 15.24 16.31 17.51 19 20.82 22.85 25.19 27.85 30.71 33.87
1012.726 37.24 40.83 44.54 48.26 51.99 55.55 58.74 61.34 63.25 64.41
1032.016 64.47 63.52 61.66 58.8 55.18 50.95 46.59 42.32 38.23 34.6
1051.306 31.49 28.91 26.87 25.33 24.12 23.38 22.93 22.79 22.91 23.09
1070.596 23.54 24.21 24.8 25.35 25.95 26.49 27.06 27.72 28.44 29.35
1089.886 30.38 31.46 32.37 32.94 33.46 33.62 33.13 32.33 31.22 29.96
1109.176 28.64 27.37 26.38 25.7 25.24 24.96 25.22 25.86 26.78 28.23
1128.467 30.02 32.21 35.1 38.61 42.81 47.76 53.44 59.8 66.86 74.37
1147.757 81.92 89.25 96.04 102.02 106.91 110.68 113.29 114.94 116.13 117.2
1167.047 118.39 120.11 122.78 126.45 131.24 136.93 143.5 150.85 158.34 165.7
1186.337 172.25 177.18 180.1 180.35 177.66 172.35 164.87 155.8 145.83 135.67
1205.627 125.89 117.22 110.25 104.95 101.33 99.29 98.52 98.83 100.12 102.05
1224.917 104.36 106.86 109.15 110.94 112.11 112.53 111.88 110.29 108.15 105.3
1244.207 101.86 98.33 94.68 91.17 87.97 85.09 82.74 80.93 79.61 78.87
1263.497 78.66 79 79.67 80.57 81.67 82.75 83.68 84.34 84.74 84.83
1282.787 84.48 83.85 83.03 82.08 81.25 80.64 80.35 80.37 80.79 81.75
1302.077 83.15 84.82 86.75 88.84 90.78 92.37 93.6 94.2 93.99 93.08
1321.367 91.41 89.11 86.13 82.4 78.17 73.43 68.24 62.73 56.88 50.9
1340.657 45.08 39.74 34.92 30.71 27.33 24.78 23.02 22 21.71 22.28
1359.947 23.88 26.45 29.84 33.62 37.09 39.7 41.11 41.5 40.78 38.81
1379.237 35.84 32.38 29.02 26.33 24.52 23.19 22 21.1 20.35 19.59
1398.527 18.89 18.25 17.69 17.18 16.7 16.24 15.79 15.46 15.24 15.03
1417.817 14.91 14.9 15 15.16 15.44 15.8 16.31 16.91 17.53 18.29
1437.107 19.27 20.31 21.5 22.72 23.94 25.25 26.58 27.89 29.31 30.72
1456.397 32.23 34.17 36.39 38.97 41.99 45.51 49.34 53.48 58.05 62.96
1475.687 67.64 72.11 75.75 78.3 79.42 78.83 76.53 72.79 67.59 61.55
1494.977 54.97 48.08 41.72 36.01 31.08 26.94 23.27 20.34 18.08 16.13
1514.267 14.49 13.1 11.97 10.99 10.17 9.5 8.85 8.34 7.94 7.57
1533.557 7.15 6.74 6.39 6.08 5.86 5.68 5.56 5.47 5.32 5.15
1552.847 4.93 4.81 4.7 4.47 4.43 4.43 4.37 4.36 4.28 4.19
1572.137 4.15 4.05 3.93 3.97 4.05 4.02 3.92 3.88 3.89 3.88
1591.427 3.88 3.84 3.81 3.8 3.83 3.87 3.87 3.86 3.89 3.92
1610.717 3.92 3.96 3.95 3.97 4.09 4.15 4.19 4.22 4.24 4.29
1630.007 4.34 4.4 4.38 4.34 4.43 4.49 4.51 4.53 4.58 4.64
1649.297 4.76 4.82 4.89 5.13 5.34 5.49 5.71 5.98 6.29 6.57
1668.587 6.9 7.36 7.91 8.48 9.16 9.93 10.76 11.69 12.76 14.06
1687.877 15.47 16.99 18.71 20.6 23.02 25.95 29.29 33.51 38.03 43.41
1707.167 49.73 57.3 66.64 78.54 94.09 113.78 136.89 159.5 181.44 203.78
1726.457 224.29 233.83 229.08 219.84 211.29 203.24 194.78 186.86 181.69 179.28
1745.747 178.99 179.7 180.4 180.52 180.56 181.58 183.9 186.6 188.83 190.58
1765.037 191.57 191.55 190.17 186.8 180.1 169.73 155.8 139.8 123.01 106.12
1784.327 89.95 75.38 63.24 53.32 45.3 38.86 33.79 29.55 26.16 23.33
1803.617 20.98 19.02 17.37 16 14.76 13.65 12.74 11.89 11.16 10.56
1822.907 10.02 9.5 9.04 8.64 8.37 8.14 7.86 7.59 7.38 7.22
1842.197 7.05 6.79 6.62 6.5 6.35 6.25 6.17 6.05 5.84 5.6
1861.487 5.53 5.53 5.46 5.29 5.15 5.08 4.94 4.8 4.67 4.49
1880.777 4.36 4.33 4.28 4.17 4.04 3.94 3.82 3.65 3.52 3.44
1900.067 3.35 3.21 3.12 3.04 2.9 2.78 2.71 2.61 2.53 2.48
1919.357 2.43 2.36 2.34 2.31 2.25 2.21 2.23 2.18 2.1 2.09
1938.647 2.12 2.08 2.06 2.03 2.0084 2.04 2.02 2.04 2.02 1.9534
1957.937 1.9319 1.9063 1.8892 1.8958 1.9088 1.8705 1.8277 1.8263 1.7627 1.7178
1977.227 1.7516 1.7805 1.6817 1.6108 1.6464 1.6878 1.6856 1.6641 1.6496 1.6418
1996.517 1.6221 1.6074 1.6506 1.6838 1.7168 1.6962 1.672 1.7041 1.7091 1.7317
2015.807 1.7332 1.6654 1.6362 1.6615 1.6553 1.6496 1.6416 1.6403 1.6198 1.5563
2035.097 1.5813 1.5994 1.5992 1.5937 1.6046 1.6191 1.6186 1.6026 1.5427 1.5205
2054.387 1.5215 1.5056 1.5387 1.5881 1.5784 1.5014 1.4584 1.5246 1.5798 1.6052
2073.677 1.5857 1.5237 1.5471 1.6089 1.6412 1.6039 1.6087 1.6412 1.6124 1.5841
2092.967 1.592 1.6147 1.6144 1.6173 1.5538 1.5073 1.5091 1.4911 1.4715 1.4485
2112.257 1.3872 1.3613 1.3388 1.3025 1.3248 1.3509 1.3771 1.359 1.332 1.304
2131.547 1.3347 1.3511 1.2478 1.2715 1.2997 1.2582 1.2971 1.3144 1.3024 1.2561
2150.837 1.2385 1.248 1.2768 1.3041 1.2776 1.291 1.3304 1.3565 1.3762 1.3628
2170.127 1.3658 1.3506 1.3034 1.2813 1.2784 1.2866 1.2452 1.1484 1.139 1.1508
2189.417 1.07797 1.03814 1.05363 1.05495 1.04181 1.07404 1.06331 1.06634 1.10827 1.10855
2208.707 1.09087 1.06169 1.07102 1.1196 1.1431 1.1368 1.1447 1.10698 1.0988 1.1827
2227.997 1.201 1.2088 1.2188 1.2178 1.2208 1.2468 1.2714 1.2444 1.2898 1.3199
2247.287 1.3355 1.3338 1.297 1.323 1.3315 1.348 1.4051 1.4366 1.4211 1.4138
2266.577 1.3859 1.3806 1.4452 1.4526 1.4464 1.4407 1.4429 1.4578 1.4588 1.5117
2285.868 1.6035 1.6363 1.6719 1.704 1.7555 1.862 1.9472 2.0067 2.06 2.15
2305.158 2.27 2.36 2.43 2.54 2.6 2.71 2.81 2.88 2.92 2.93
2324.448 2.92 2.85 2.9 2.96 2.85 2.77 2.75 2.74 2.72 2.7
2343.738 2.64 2.46 2.32 2.39 2.55 2.77 3.03 3.21 3.34 3.46
2363.028 3.45 3.42 3.39 3.23 3.12 2.98 2.7 2.45 2.23 1.9828
2382.318 1.7674 1.6321 1.4758 1.3038 1.233 1.1925 1.131 1.1459 1.1539 1.1157
2401.608 1.10446 1.06991 1.05748 1.08753 1.10087 1.1333 1.1208 1.1208 1.1376 1.1413
2420.898 1.1449 1.09975 1.09932 1.122 1.1168 1.1216 1.1342 1.1646 1.1101 1.02794
2440.188 1.03137 1.08498 1.1578 1.1145 1.07134 1.09105 1.09267 1.1385 1.1553 1.134
2459.478 1.1581 1.1453 1.1685 1.2352 1.1897 1.09861 1.10658 1.1478 1.1482 1.1491
2478.768 1.1544 1.08193 1.0269 1.05707 1.06357 1.0656 1.07919 1.03839 0.9579 0.9452
2498.058 0.9649 0.9899 1.00703 0.9968 1.04977 1.08914 1.03311 1.00324 1.01483 1.00693
2517.348 1.01787 1.02342 1.00835 1.00376 1.02397 1.05067 1.08538 1.02853 0.9776 1.0219
2536.638 1.0712 1.09504 1.1222 1.1302 1.07848 1.1136 1.1665 1.1357 1.1305 1.1319
2555.928 1.10603 1.1241 1.1503 1.1541 1.1177 1.0455 1.01386 0.978 0.9765 1.00235
2575.218 0.9459 0.888 0.85 0.862 0.909 0.866 0.864 0.905 0.83 0.84
2594.508 0.9202 0.893 0.815 0.765 0.85 0.9442 0.9201 0.9295 0.9484 0.9104
2613.798 0.892 0.843 0.799 0.848 0.874 0.855 0.784 0.777 0.781 0.776
2633.088 0.807 0.784 0.803 0.829 0.767 0.755 0.782 0.78 0.809 0.849
2652.378 0.878 0.851 0.814 0.817 0.857 0.902 0.9109 0.9782 1.03081 1.05769
2671.668 1.1153 1.1192 1.07842 1.07851 1.1615 1.2208 1.1824 1.1527 1.1958 1.2289
2690.958 1.2749 1.31 1.3258 1.3643 1.4154 1.4259 1.4219 1.4079 1.4142 1.4784
2710.248 1.5049 1.5014 1.5601 1.6033 1.6397 1.718 1.8426 2.0034 2.16 2.34
2729.538 2.57 2.87 3.22 3.58 4.04 4.6 5.34 6.04 6.63 7.15
2748.828 7.46 7.51 7.22 6.72 6.11 5.46 4.86 4.3 3.82 3.41
2768.118 3.16 2.97 2.83 2.79 2.67 2.55 2.48 2.41 2.42 2.44
2787.408 2.4 2.38 2.4 2.37 2.42 2.53 2.55 2.53 2.63 2.75
2806.698 2.78 2.93 3.11 3.25 3.37 3.56 3.77 4 4.29 4.53
2825.988 4.89 5.32 5.75 6.3 7.11 8.17 9.5 11.12 13.14 15.74
2845.278 18.84 22.36 26.1 29.77 33.08 35.58 37.09 37.43 36.71 35.44
2864.568 33.72 31.76 29.92 28.33 27.12 26.23 25.4 24.58 23.57 22.24
2883.858 20.77 19.34 17.82 16.41 15.12 13.97 13.1 12.52 12.14 12
2903.148 12.01 12.18 12.55 12.88 13.12 13.39 13.67 13.7 13.64 13.62
2922.438 13.7 13.96 14.16 14.56 15.32 16.3 17.61 19.17 20.83 22.56
2941.728 24.07 25.1 25.61 25.72 25.45 24.71 23.87 22.98 22.11 21.67
2961.018 21.72 22.23 23.17 24.41 25.87 27.58 29.51 31.76 34.57 37.84
2980.308 41.37 44.91 47.8 49.62 50.27 49.48 47.42 44.45 40.9 37.19
2999.598 33.73 30.83 28.41 26.34 24.38 22.48 20.73 18.93 17.19 15.68
3018.888 14.26 12.93 11.61 10.42 9.52 8.61 7.81 7.15 6.55 6.04
3038.178 5.58 5.15 4.71 4.36 4.13 3.77 3.4 3.19 3.12 3
3057.468 2.82 2.62 2.43 2.24 2.17 2.18 1.9716 1.8985 1.9627 1.9381
3076.758 1.9125 1.8284 1.746 1.7451 1.7294 1.6727 1.5986 1.5414 1.5884 1.6565
3096.048 1.6402 1.6734 1.84 1.8527 1.8148 1.9769 2.18 2.14 2.01 2.07
3115.338 1.9334 1.6968 1.5874 1.6144 1.6169 1.5609 1.4293 1.2846 1.1635 1.07284
3134.628 1.04378 1.01965 1.02232 0.9326 0.857 0.803 0.872 0.855 0.754 0.803
3153.918 0.836 0.819 0.768 0.733 0.789 0.803 0.692 0.528 0.56 0.825
3173.208 0.805 0.609 0.597 0.636 0.62 0.562 0.544 0.626 0.608 0.499
3192.498 0.561 0.599 0.584 0.571 0.495 0.504 0.535 0.444 0.409 0.435
3211.788 0.359 0.396 0.514 0.436 0.364 0.352 0.301 0.276 0.313 0.332
3231.078 0.259 0.302 0.334 0.238 0.334 0.389 0.262 0.206 0.17 0.167
3250.368 0.144 0.153 0.298 0.313 0.209 0.145 0.098 0.019 0.08 0.197
3269.658 0.15 0.062 0.081 0.109 0.077 0.125 0.123 0.032 0 0.169
3288.948 0.277 0.236 0.281 0.278 0.269 0.329 0.313 0.237 0.214 0.22
3308.238 0.251 0.247 0.144 0.097 0.089 0.106 0.124 0.134 0.167 0.242
3327.528 0.272 0.215 0.245 0.312 0.317 0.287 0.324 0.297 0.195 0.209
3346.818 0.333 0.34 0.226 0.282 0.316 0.395 0.469 0.46 0.334 0.324
3366.108 0.435 0.538 0.63 0.614 0.688 0.744 0.79 0.832 0.794 0.88
3385.398 1.04853 1.127 1.2817 1.3816 1.4093 1.578 1.8709 2.15 2.43 2.73
3404.688 3.14 3.72 4.26 4.81 5.48 6.13 6.84 7.75 8.62 9.38
3423.978 10.41 11.42 12.53 13.84 15.23 16.92 18.71 20.44 22.18 23.64
3443.269 24.55 25.02 24.91 24.19 22.94 21.18 19.06 17.16 15.38 13.52
3462.559 11.93 10.67 9.64 8.74 7.97 7.2 6.58 6.07 5.5 4.99
3481.849 4.49 4.07 3.93 3.83 3.4 3 2.8 2.64 2.53 2.5
3501.139 2.53 2.45 2.17 1.9559 1.8809 1.7436 1.6348 1.7084 1.6722 1.4572
3520.429 1.4821 1.4259 1.3118 1.3168 1.2151 1.2007 1.2778 1.2825 1.2667 1.2789
3539.719 1.2238 1.1156 1.03191 0.889 0.803 0.796 0.738 0.712 0.786 0.733
3559.009 0.471 0.46 0.611 0.505 0.427 0.456 0.428 0.369 0.209 0.235
3578.299 0.33 0.399 0.369 0.216 0.183 0.21 0.255 0.265 0.238 0.203
3597.589 0.3 0.372 0.43 0.437 0.376 0.322 0.427 0.484 0.323 0.271
3616.879 0.24 0.132 0.119 0.241 0.272 0.239 0.189 0.338 0.474 0.428
3636.169 0.344 0.38 0.423 0.341 0.28 0.311 0.419 0.369 0.247 0.236
3655.459 0.292 0.314 0.395 0.444 0.374 0.394 0.274 0.141 0.121 0.195
3674.749 0.217 0.132 0.197 0.263 0.259 0.273 0.286 0.274 0.356 0.364
3694.039 0.419 0.37 0.124 0.051 0.065 0.18 0.374 0.357 0.205 0.133
3713.329 0.108 0.155 0.232 0.359 0.459 0.288 0.266 0.312 0.249 0.326
3732.619 0.391 0.383 0.318 0.238 0.161 0.193 0.181 0.235 0.273 0.196
3751.909 0.192 0.192 0.26 0.193 0.157 0.185 0.195 0.311 0.351 0.416
3771.199 0.472 0.31 0.235 0.247 0.243 0.251 0.223 0.23 0.24 0.29
3790.489 0.28 0.222 0.255 0.196 0.184 0.217 0.26 0.286 0.237 0.279
3809.779 0.345 0.429 0.315 0.082 0.164 0.273 0.285 0.303 0.396 0.433
3829.069 0.258 0.251 0.222 0.189 0.285 0.376 0.289 0.272 0.426 0.347
3848.359 0.229 0.339 0.5 0.455 0.325 0.393 0.442 0.454 0.508 0.425
3867.649 0.412 0.3 0.251 0.355 0.384 0.331 0.292 0.359 0.423 0.397
3886.939 0.331 0.347 0.35 0.385 0.394 0.338 0.385 0.391 0.281 0.298
3906.229 0.308 0.332 0.394 0.413 0.509 0.577 0.473 0.461 0.426 0.362
3925.519 0.521 0.578 0.395 0.428 0.466 0.474 0.542 0.446 0.47 0.543
3944.809 0.55 0.526 0.544 0.638 0.736 0.695 0.643 0.559 0.478 0.305
3964.099 0.231 0.508 0.636 0.632 0.616 0.598 0.539 0.502 0.637 0.714
3983.389 0.634 0.556 0.651 0.709 0.608 0.424 0.406 0.603 0.742 0.66
##END=
