##TITLE=3-Dibutylamino-1-propyne
##JCAMP-DX=4.24
##DATA TYPE=INFRARED SPECTRUM
##ORIGIN=EPA-IR VAPOR PHASE LIBRARY
##OWNER=SRD/NIST
Collection (C) 2018 copyright by the U.S. Secretary of Commerce
on behalf of the United States of America. All rights reserved.
##CAS REGISTRY NO=6336-58-9
##MOLFORM=C 11 H 21 N
##$NIST SOURCE=MSDC-IR
##STATE=gas
##XUNITS=1/CM
##YUNITS=ABSORBANCE
##XFACTOR=1.
##YFACTOR=0.001
##DELTAX=1.929
##FIRSTX=549.8
##LASTX=4000.8
##FIRSTY=1.503
##MAXX=4000.75
##MINX=549.766
##MAXY=0.065513
##MINY=0
##NPOINTS=1790
##XYDATA=(X++(Y..Y))
549.766 1.503 1.4132 1.3932 1.693 1.683 1.503 1.2851 1.3158 1.336 1.1615
569.056 1.2013 1.3622 1.3765 1.433 1.553 1.553 1.384 1.563 1.723 1.593
588.346 1.903 2.233 2.283 2.093 2.133 2.393 2.513 2.643 2.883 3.063
607.636 3.373 4.333 5.913 8.063 10.693 13.703 17.253 20.173 22.503 24.163
626.926 24.053 23.493 20.923 16.343 13.143 11.743 11.923 13.793 16.733 19.493
646.216 21.403 23.403 22.983 19.863 17.503 15.333 12.933 10.773 8.613 6.593
665.506 5.013 3.963 3.363 2.683 2.113 1.983 1.783 1.553 1.463 1.3972
684.796 1.3245 1.2869 1.2313 1.1075 1.0042 1.0789 1.1197 1.016 0.9588 0.99
704.086 1.0642 1.05 0.9686 1.0871 1.2545 1.3269 1.4112 1.553 1.703 1.683
723.376 1.743 1.853 1.923 2.083 2.243 2.203 2.133 2.193 2.243 2.243
742.666 2.303 2.413 2.403 2.243 2.113 2.053 2.023 1.873 1.603 1.513
761.956 1.583 1.473 1.3555 1.2931 1.3055 1.443 1.503 1.543 1.563 1.623
781.246 1.603 1.643 1.753 1.853 1.943 1.903 1.943 2.003 1.883 1.853
800.536 1.843 1.793 1.713 1.693 1.633 1.633 1.763 1.633 1.443 1.4164
819.826 1.4016 1.3485 1.4059 1.4018 1.1661 1.194 1.4023 1.3725 1.4291 1.493
839.116 1.463 1.473 1.483 1.473 1.533 1.613 1.513 1.349 1.386 1.543
858.406 1.513 1.533 1.603 1.613 1.763 1.853 1.883 2.093 2.353 2.533
877.696 2.733 3.013 3.363 3.613 3.813 4.193 4.593 4.863 5.103 5.283
896.986 5.353 5.363 5.293 5.093 4.853 4.513 4.073 3.663 3.323 3.093
916.276 2.853 2.773 2.763 2.693 2.783 2.843 2.963 3.233 3.453 3.673
935.566 3.853 4.053 4.193 4.293 4.383 4.403 4.383 4.413 4.493 4.453
954.856 4.393 4.293 4.073 3.853 3.693 3.563 3.323 3.133 2.983 2.773
974.146 2.693 2.593 2.453 2.413 2.383 2.333 2.263 2.193 2.093 2.003
993.436 2.003 1.933 1.813 1.763 1.753 1.713 1.633 1.543 1.533 1.503
1012.726 1.473 1.463 1.453 1.463 1.503 1.513 1.533 1.693 1.843 1.933
1032.016 2.063 2.233 2.453 2.723 2.983 3.243 3.453 3.693 3.933 4.133
1051.306 4.373 4.613 4.903 5.133 5.273 5.673 6.193 6.653 7.273 7.953
1070.596 8.623 9.393 10.223 10.903 11.513 12.173 12.583 12.963 13.223 13.323
1089.886 13.313 13.153 12.873 12.423 11.843 11.113 10.383 9.643 8.973 8.353
1109.176 7.713 7.233 6.923 6.673 6.433 6.163 6.023 5.913 5.863 5.813
1128.467 5.623 5.513 5.673 5.873 6.063 6.373 6.703 7.033 7.423 7.803
1147.757 8.023 8.243 8.433 8.583 8.603 8.553 8.483 8.383 8.343 8.193
1167.047 7.983 7.773 7.423 7.083 6.713 6.283 5.833 5.363 4.873 4.303
1186.337 3.843 3.423 3.003 2.663 2.463 2.243 1.953 1.843 1.963 1.973
1205.627 1.833 1.863 1.993 2.073 2.103 2.243 2.483 2.633 2.833 3.153
1224.917 3.543 4.153 4.793 5.553 6.693 7.903 9.013 10.053 10.963 11.693
1244.207 11.943 11.723 11.403 10.843 10.013 9.133 8.193 7.303 6.623 6.093
1263.497 5.693 5.343 5.123 4.993 4.763 4.633 4.583 4.543 4.613 4.693
1282.787 4.643 4.633 4.773 4.963 5.293 5.603 5.873 6.243 6.633 6.933
1302.077 7.133 7.283 7.343 7.483 7.633 7.843 8.193 8.583 9.053 9.493
1321.367 9.893 10.143 10.243 10.153 9.863 9.413 8.903 8.393 7.913 7.463
1340.657 7.083 6.933 6.883 6.863 6.993 7.173 7.363 7.533 7.743 7.993
1359.947 8.113 8.223 8.293 8.273 8.203 8.083 7.893 7.743 7.673 7.513
1379.237 7.263 7.023 6.753 6.383 5.923 5.433 4.953 4.493 4.033 3.683
1398.527 3.453 3.213 3.043 2.923 2.813 2.683 2.703 2.783 2.853 2.973
1417.817 3.063 3.223 3.463 3.713 4.033 4.393 4.783 5.173 5.613 6.013
1437.107 6.313 6.623 6.853 7.063 7.333 7.633 7.973 8.303 8.723 9.193
1456.397 9.683 10.123 10.563 10.783 10.713 10.553 10.173 9.593 8.843 7.953
1475.687 7.033 6.103 5.293 4.543 3.913 3.413 3.013 2.673 2.413 2.233
1494.977 2.023 1.853 1.753 1.713 1.663 1.533 1.3729 1.3699 1.3671 1.2509
1514.267 1.1819 1.1502 1.0918 1.0517 1.0425 1.0123 1.0099 0.9636 0.9133 0.9126
1533.557 0.8794 0.8814 0.7931 0.6355 0.6438 0.6906 0.7448 0.7517 0.6922 0.6755
1552.847 0.6467 0.6154 0.5436 0.46323 0.47859 0.52642 0.533 0.51639 0.52348 0.50909
1572.137 0.46916 0.42631 0.437256 0.5032 0.52314 0.5478 0.5625 0.50234 0.47016 0.50657
1591.427 0.53194 0.46233 0.4201 0.42418 0.44622 0.46882 0.441218 0.439785 0.4254 0.4212
1610.717 0.44741 0.45585 0.4227 0.4149 0.47374 0.45237 0.3804 0.3872 0.4138 0.3884
1630.007 0.3908 0.4114 0.3904 0.3525 0.42452 0.47888 0.4217 0.3907 0.4019 0.3752
1649.297 0.3517 0.321 0.262 0.3535 0.3829 0.3934 0.48245 0.5485 0.5411 0.49101
1668.587 0.49194 0.5417 0.5785 0.48961 0.46147 0.50283 0.48791 0.3945 0.311 0.3463
1687.877 0.372 0.3799 0.4109 0.3816 0.304 0.293 0.281 0.3403 0.3772 0.3363
1707.167 0.3412 0.367 0.3623 0.325 0.298 0.239 0.241 0.307 0.283 0.276
1726.457 0.318 0.318 0.298 0.293 0.247 0.265 0.288 0.255 0.263 0.281
1745.747 0.322 0.291 0.315 0.3486 0.287 0.228 0.294 0.3656 0.3402 0.3672
1765.037 0.318 0.284 0.282 0.233 0.223 0.29 0.308 0.29 0.303 0.3
1784.327 0.294 0.28 0.271 0.264 0.275 0.296 0.273 0.255 0.293 0.278
1803.617 0.23 0.205 0.242 0.283 0.295 0.292 0.279 0.287 0.286 0.267
1822.907 0.258 0.286 0.305 0.32 0.326 0.326 0.326 0.32 0.314 0.296
1842.197 0.295 0.32 0.327 0.308 0.302 0.297 0.31 0.333 0.322 0.322
1861.487 0.3364 0.321 0.3465 0.352 0.305 0.316 0.3382 0.3637 0.3368 0.312
1880.777 0.318 0.292 0.308 0.329 0.354 0.3606 0.313 0.3336 0.357 0.3551
1900.067 0.3874 0.3618 0.3555 0.3804 0.3499 0.3458 0.3514 0.328 0.323 0.323
1919.357 0.3459 0.3538 0.334 0.328 0.3549 0.3876 0.3824 0.3517 0.3624 0.3777
1938.647 0.3411 0.3492 0.4016 0.3778 0.3334 0.3752 0.3701 0.323 0.3584 0.3983
1957.937 0.3992 0.3712 0.358 0.3399 0.315 0.328 0.3593 0.321 0.324 0.3881
1977.227 0.369 0.319 0.329 0.3439 0.33 0.3391 0.304 0.266 0.294 0.3467
1996.517 0.3488 0.314 0.292 0.27 0.274 0.313 0.314 0.265 0.262 0.307
2015.807 0.305 0.294 0.295 0.31 0.325 0.319 0.33 0.3361 0.329 0.3521
2035.097 0.333 0.304 0.331 0.332 0.298 0.303 0.3431 0.3625 0.321 0.291
2054.387 0.308 0.294 0.293 0.289 0.31 0.3455 0.315 0.319 0.328 0.3564
2073.677 0.3585 0.3389 0.331 0.316 0.321 0.314 0.3372 0.3393 0.3455 0.3525
2092.967 0.311 0.3749 0.4201 0.3763 0.4138 0.44451 0.4201 0.42404 0.42665 0.3743
2112.257 0.3458 0.3915 0.43372 0.4146 0.3812 0.3774 0.3982 0.3954 0.3861 0.3664
2131.547 0.327 0.3414 0.3638 0.3361 0.3682 0.3763 0.3396 0.3348 0.3401 0.318
2150.837 0.269 0.243 0.273 0.302 0.272 0.274 0.323 0.3894 0.372 0.3681
2170.127 0.3811 0.3555 0.3818 0.3563 0.316 0.297 0.292 0.318 0.3703 0.3571
2189.417 0.311 0.295 0.322 0.3705 0.3853 0.3756 0.3725 0.3795 0.3906 0.3795
2208.707 0.3649 0.3871 0.3639 0.3677 0.4034 0.3905 0.3554 0.3449 0.3435 0.3894
2227.997 0.3923 0.3497 0.3828 0.3885 0.3475 0.3408 0.3507 0.341 0.347 0.4094
2247.287 0.3801 0.331 0.3667 0.3496 0.3473 0.3781 0.3795 0.3483 0.3515 0.346
2266.577 0.321 0.3456 0.3586 0.317 0.313 0.333 0.356 0.3765 0.3477 0.3493
2285.868 0.42593 0.435627 0.3869 0.3998 0.3887 0.4185 0.44384 0.3841 0.3617 0.3731
2305.158 0.4073 0.434992 0.4053 0.3857 0.4147 0.44867 0.433381 0.44814 0.436186 0.4014
2324.448 0.44676 0.42437 0.3594 0.3408 0.3464 0.3603 0.3712 0.3719 0.3526 0.328
2343.738 0.321 0.33 0.3511 0.4047 0.386 0.3693 0.4009 0.3542 0.3358 0.3387
2363.028 0.3791 0.47035 0.45409 0.376 0.3876 0.44939 0.47834 0.46729 0.4072 0.3734
2382.318 0.42 0.479 0.42937 0.3479 0.395 0.4199 0.4028 0.3996 0.4009 0.44618
2401.608 0.4763 0.48498 0.434412 0.4125 0.49271 0.50263 0.46377 0.4499 0.4186 0.3806
2420.898 0.3793 0.3827 0.3612 0.381 0.3746 0.3777 0.42969 0.45484 0.4193 0.4151
2440.188 0.4113 0.3509 0.361 0.3777 0.3717 0.4155 0.4075 0.3994 0.3896 0.3349
2459.478 0.3688 0.3906 0.3774 0.3594 0.345 0.3392 0.3563 0.3362 0.3669 0.432884
2478.768 0.3753 0.3353 0.322 0.327 0.391 0.4013 0.327 0.296 0.322 0.3563
2498.058 0.3379 0.3445 0.4157 0.432678 0.4102 0.47165 0.45234 0.3969 0.46221 0.4264
2517.348 0.374 0.46749 0.52348 0.50394 0.49504 0.42588 0.3911 0.45115 0.5577 0.5959
2536.638 0.5687 0.6139 0.6218 0.5839 0.5989 0.6362 0.6799 0.6756 0.6293 0.6479
2555.928 0.6842 0.6812 0.6943 0.7477 0.7816 0.6925 0.6457 0.6892 0.7432 0.7311
2575.218 0.7349 0.8068 0.8018 0.8117 0.8572 0.8728 0.8384 0.8113 0.8412 0.8707
2594.508 0.8531 0.8885 0.9609 0.9653 0.9355 1.0037 1.1156 1.1169 1.0369 1.0515
2613.798 1.0718 1.0236 1.0932 1.1635 1.1988 1.204 1.131 1.1273 1.1787 1.2075
2633.088 1.2699 1.2783 1.2356 1.2213 1.286 1.4086 1.473 1.443 1.443 1.483
2652.378 1.443 1.513 1.563 1.563 1.633 1.753 1.803 1.803 1.873 1.953
2671.668 2.023 2.083 2.073 2.063 2.183 2.233 2.223 2.263 2.323 2.373
2690.958 2.363 2.453 2.543 2.603 2.693 2.723 2.723 2.813 2.973 3.033
2710.248 3.063 3.063 3.153 3.253 3.283 3.313 3.353 3.513 3.633 3.623
2729.538 3.683 3.773 3.853 4.073 4.333 4.483 4.563 4.593 4.593 4.703
2748.828 4.803 4.833 4.893 4.943 5.053 5.173 5.273 5.433 5.613 5.793
2768.118 5.973 6.133 6.373 6.753 7.093 7.463 8.033 8.533 9.103 9.783
2787.408 10.413 10.993 11.463 11.903 12.383 12.803 13.193 13.633 14.023 14.323
2806.698 14.573 14.933 15.273 15.513 15.843 16.243 16.593 17.023 17.453 17.833
2825.988 18.143 18.343 18.483 18.403 18.173 17.793 17.323 16.863 16.333 15.853
2845.278 15.623 15.543 15.493 15.773 16.303 17.013 18.023 19.233 20.633 22.003
2864.568 23.473 24.973 26.273 27.363 28.283 29.053 29.633 29.953 29.863 29.523
2883.858 29.023 28.303 27.493 26.583 25.543 24.753 24.373 24.253 24.473 24.993
2903.148 25.683 26.573 27.633 28.773 30.013 31.483 33.073 34.643 36.343 38.343
2922.438 40.773 43.573 46.603 49.823 53.193 56.653 59.883 62.543 64.423 65.423
2941.728 65.513 64.953 63.793 62.073 60.273 58.683 57.583 57.303 57.993 59.363
2961.018 61.053 62.583 63.183 62.363 59.943 55.833 50.443 44.443 38.133 32.003
2980.308 26.553 22.193 18.933 16.403 14.413 12.873 11.743 10.813 9.883 8.943
2999.598 8.213 7.693 7.293 6.883 6.383 5.973 5.733 5.383 5.073 4.913
3018.888 4.643 4.493 4.343 4.073 3.783 3.663 3.493 3.323 3.303 3.163
3038.178 2.953 2.863 2.753 2.543 2.463 2.433 2.343 2.233 2.183 2.133
3057.468 2.053 2.003 1.863 1.843 1.873 1.823 1.783 1.743 1.713 1.653
3076.758 1.533 1.4325 1.463 1.583 1.623 1.513 1.453 1.4243 1.4214 1.4318
3096.048 1.3467 1.3125 1.3273 1.2371 1.1967 1.3008 1.2519 1.1771 1.1189 1.1447
3115.338 1.1927 1.1764 1.1475 1.0571 1.0891 1.0634 1.0476 1.0327 1.0184 1.0272
3134.628 1.0611 1.0982 1.0175 0.9724 0.9631 1.0083 1.0087 0.9171 0.9092 0.9693
3153.918 0.9409 0.8694 0.8026 0.8155 0.9261 0.8669 0.7729 0.7621 0.7613 0.77
3173.208 0.7566 0.8159 0.8707 0.7489 0.5543 0.6437 0.7559 0.749 0.7357 0.7253
3192.498 0.7389 0.7304 0.8085 0.8613 0.8258 0.7012 0.6849 0.8133 0.7924 0.6963
3211.788 0.7286 0.7137 0.6072 0.5763 0.581 0.5535 0.51197 0.47364 0.42756 0.42634
3231.078 0.47495 0.52798 0.5933 0.50844 0.5361 0.6187 0.5606 0.52336 0.6118 0.7098
3250.368 0.6364 0.6164 0.697 0.7908 0.8701 0.9106 0.9769 1.0248 1.1005 1.1026
3269.658 1.0533 1.2276 1.3366 1.453 1.723 1.923 1.983 2.093 2.313 2.463
3288.948 2.633 2.923 3.293 3.903 4.593 5.233 5.743 6.163 6.563 6.863
3308.238 7.123 7.423 8.143 9.313 10.763 12.373 13.993 15.293 15.963 16.043
3327.528 15.463 13.973 11.873 9.683 7.703 6.063 4.663 3.763 3.133 2.503
3346.818 2.013 1.683 1.503 1.2767 1.102 1.0629 0.9691 0.8481 0.8285 0.809
3366.108 0.7556 0.7015 0.6007 0.543 0.5454 0.52712 0.46662 0.5519 0.6309 0.5847
3385.398 0.5015 0.44521 0.49145 0.53299 0.437149 0.4003 0.46075 0.45564 0.356 0.316
3404.688 0.3378 0.3499 0.3512 0.3598 0.3699 0.3362 0.4111 0.3569 0.183 0.094
3423.978 0.147 0.24 0.227 0.243 0.207 0.18 0.25 0.235 0.271 0.325
3443.269 0.252 0.193 0.282 0.295 0.307 0.3716 0.262 0.252 0.3536 0.355
3462.559 0.292 0.299 0.3829 0.348 0.217 0.178 0.116 0.064 0.074 0.163
3481.849 0.231 0.252 0.292 0.3657 0.312 0.173 0.113 0.09 0.135 0.164
3501.139 0.203 0.255 0.223 0.181 0.211 0.197 0.199 0.246 0.197 0.181
3520.429 0.119 0.068 0.155 0.18 0.215 0.169 0.103 0.204 0.219 0.132
3539.719 0.044 0.022 0.099 0.132 0.196 0.204 0.077 0.041 0.116 0.162
3559.009 0.141 0.155 0.14 0.103 0.141 0.189 0.277 0.312 0.177 0.195
3578.299 0.22 0.11 0.23 0.3414 0.283 0.238 0.159 0.206 0.232 0.105
3597.589 0.144 0.128 0.055 0.084 0.203 0.248 0.153 0.123 0.212 0.228
3616.879 0.222 0.156 0.113 0.239 0.159 0.098 0.176 0.207 0.252 0.265
3636.169 0.228 0.178 0.207 0.289 0.205 0.098 0.111 0.076 0.135 0.13
3655.459 0.131 0.237 0.3718 0.3624 0.204 0.149 0.057 0.075 0.127 0.09
3674.749 0.083 0.091 0.1 0.185 0.275 0.253 0.17 0.223 0.179 0.057
3694.039 0.169 0.257 0.144 0.057 0.045 0.115 0.211 0.102 0.051 0.185
3713.329 0.252 0.233 0.159 0.104 0.124 0.155 0.213 0.193 0.223 0.257
3732.619 0.199 0.18 0.167 0.215 0.268 0.177 0.046 0.126 0.3 0.218
3751.909 0.165 0.254 0.287 0.236 0.11 0.159 0.224 0.209 0.289 0.33
3771.199 0.243 0.226 0.193 0.135 0.096 0.055 0.076 0.153 0.196 0.113
3790.489 0.069 0.096 0.157 0.13 0.139 0.241 0.3343 0.257 0.146 0.08
3809.779 0 0.068 0.204 0.314 0.242 0.26 0.323 0.256 0.2 0.159
3829.069 0.171 0.151 0.156 0.171 0.191 0.162 0.29 0.4074 0.265 0.233
3848.359 0.214 0.165 0.133 0.22 0.297 0.235 0.155 0.156 0.224 0.213
3867.649 0.252 0.293 0.286 0.279 0.181 0.236 0.299 0.177 0.114 0.178
3886.939 0.3833 0.34 0.29 0.4055 0.421 0.3857 0.3428 0.272 0.3425 0.3875
3906.229 0.203 0.22 0.3663 0.3387 0.224 0.3461 0.3727 0.4018 0.5587 0.51258
3925.519 0.52778 0.5698 0.48654 0.3791 0.4211 0.46575 0.44707 0.435813 0.3945 0.302
3944.809 0.3769 0.47449 0.4005 0.45573 0.45809 0.4195 0.324 0.275 0.3733 0.432989
3964.099 0.411 0.3491 0.336 0.46759 0.6749 0.5766 0.4643 0.50795 0.5621 0.6085
3983.389 0.5461 0.46514 0.3899 0.325 0.3718 0.3444 0.3518 0.42395 0.3768 0.3403
##END=
