##TITLE=N,N-Dimethylethanesulfonamide
##JCAMP-DX=4.24
##DATA TYPE=INFRARED SPECTRUM
##ORIGIN=EPA-IR VAPOR PHASE LIBRARY
##OWNER=SRD/NIST
Collection (C) 2018 copyright by the U.S. Secretary of Commerce
on behalf of the United States of America. All rights reserved.
##CAS REGISTRY NO=6338-68-7
##MOLFORM=C 4 H 11 N O 2 S
##$NIST SOURCE=MSDC-IR
##STATE=gas
##XUNITS=1/CM
##YUNITS=ABSORBANCE
##XFACTOR=1.
##YFACTOR=0.001
##DELTAX=1.92898
##FIRSTX=549.8
##LASTX=4000.7
##FIRSTY=6.167
##MAXX=4000.7
##MINX=549.759
##MAXY=0.077207
##MINY=0
##NPOINTS=1790
##XYDATA=(X++(Y..Y))
549.759 6.167 5.227 4.257 3.577 3.137 2.637 2.047 1.627 1.1555 0.7808
569.049 0.804 0.8865 0.8429 1.012 1.0977 0.9256 0.7948 0.7353 0.41013 0.39208
588.339 0.7415 0.6549 0.728 0.7368 0.5069 0.5835 0.7676 0.8535 0.8787 0.9311
607.628 0.9775 0.9654 1.0388 0.9808 1.0882 1.1778 1.1691 1.517 1.917 1.997
626.918 2.117 2.397 2.607 2.977 3.367 3.687 4.117 4.497 4.687 4.927
646.208 5.087 4.887 4.637 4.517 4.537 4.587 4.397 4.257 4.327 4.487
665.498 4.507 4.537 4.737 5.047 5.427 5.607 5.687 5.957 6.197 6.007
684.787 5.687 5.527 5.377 5.077 4.517 4.017 3.657 3.277 2.957 2.857
704.077 2.957 3.107 3.327 3.577 3.947 4.417 5.137 6.027 7.187 8.547
723.367 10.077 11.927 14.097 16.667 19.547 22.517 25.317 28.077 30.567 32.747
742.657 34.347 35.387 35.717 34.997 33.617 31.707 29.717 27.437 24.627 21.597
761.947 18.497 15.887 13.947 12.887 12.537 12.577 12.827 13.047 13.427 13.917
781.236 14.357 14.857 14.677 13.537 12.597 11.897 11.027 9.977 8.717 7.277
800.526 6.057 5.097 4.077 3.307 2.807 2.487 2.207 1.907 1.667 1.507
819.816 1.527 1.547 1.417 1.2343 1.1184 1.1549 1.2139 1.18 1.1074 0.8848
839.106 0.8931 1.0301 1.0453 1.1497 1.1694 1.1768 1.1528 1.0453 1.0805 1.099
858.395 1.0021 1.0302 1.2247 1.215 1.1558 1.2086 1.1462 1.187 1.3071 1.2723
877.685 1.3284 1.477 1.477 1.487 1.587 1.637 1.727 1.767 1.817 1.917
896.975 2.097 2.257 2.387 2.667 2.777 2.847 3.147 3.577 3.917 4.227
916.265 4.847 5.407 5.827 6.777 7.817 8.797 10.157 11.757 13.447 15.327
935.555 17.397 19.667 21.957 24.327 27.017 29.547 31.727 33.527 35.237 36.677
954.844 37.417 37.687 37.407 36.547 35.127 33.287 31.187 28.847 26.317 23.687
974.134 21.167 18.677 16.437 14.527 12.867 11.487 10.347 9.267 8.357 7.717
993.424 7.097 6.557 6.107 5.667 5.467 5.107 4.687 4.407 4.117 4.097
1012.714 4.097 3.957 3.867 3.817 3.907 4.017 4.017 4.087 4.167 4.417
1032.003 4.917 5.227 5.397 5.677 6.127 6.387 6.577 6.877 7.047 7.167
1051.293 7.167 7.147 7.227 6.987 6.657 6.377 5.967 5.647 5.277 4.987
1070.583 4.417 4.147 3.847 3.327 3.257 3.097 2.877 2.777 2.547 2.597
1089.873 2.627 2.397 2.407 2.237 2.267 2.567 2.447 2.497 2.757 2.717
1109.163 2.567 2.627 2.917 3.157 3.357 3.657 4.157 4.827 5.517 6.687
1128.452 8.457 10.357 12.867 16.037 19.677 23.907 28.387 32.937 37.327 41.407
1147.742 45.337 49.577 54.207 57.817 58.057 55.127 51.357 48.067 45.177 41.897
1167.032 37.647 32.747 27.707 22.937 19.267 16.097 13.157 11.027 9.647 8.977
1186.322 8.707 8.457 8.357 8.197 8.007 8.157 7.987 7.957 8.197 7.997
1205.611 7.797 7.857 7.827 7.517 7.367 7.237 7.047 7.217 7.267 6.977
1224.901 6.737 6.637 6.727 6.757 6.717 6.907 7.097 7.097 7.217 7.367
1244.191 7.407 7.687 8.097 8.457 8.947 9.387 9.717 10.117 10.447 10.877
1263.481 11.367 11.567 11.657 11.817 11.907 11.967 11.897 11.707 11.497 11.207
1282.771 10.897 10.507 10.247 10.067 9.737 9.317 8.807 8.347 7.937 7.507
1302.060 7.237 6.957 6.687 6.507 6.427 6.407 6.437 6.677 7.097 7.637
1321.350 8.357 9.347 10.697 12.417 14.517 17.137 20.407 24.317 28.997 34.327
1340.640 40.027 45.827 51.417 56.747 61.767 66.527 71.047 74.987 77.207 76.437
1359.930 72.677 67.557 62.497 57.627 52.457 46.767 40.647 34.437 28.547 23.407
1379.219 19.097 15.597 12.967 11.037 9.517 8.337 7.457 6.867 6.467 6.267
1398.509 6.197 6.117 6.057 6.077 6.187 6.247 6.327 6.487 6.627 6.647
1417.799 6.547 6.407 6.257 6.057 5.887 5.757 5.667 5.607 5.517 5.467
1437.089 5.507 5.647 5.767 5.957 6.257 6.527 6.777 7.077 7.387 7.597
1456.378 7.787 7.937 8.097 8.307 8.387 8.317 8.157 7.907 7.657 7.407
1475.668 7.147 6.917 6.627 6.247 5.827 5.467 5.157 4.887 4.597 4.287
1494.958 4.047 3.847 3.657 3.437 3.227 3.077 2.917 2.757 2.597 2.497
1514.248 2.437 2.347 2.267 2.177 2.117 2.137 2.077 1.957 1.907 1.947
1533.538 1.947 1.857 1.787 1.767 1.777 1.687 1.637 1.617 1.527 1.507
1552.827 1.537 1.547 1.577 1.567 1.557 1.547 1.577 1.567 1.487 1.477
1572.117 1.487 1.467 1.437 1.467 1.457 1.437 1.467 1.427 1.417 1.427
1591.407 1.407 1.437 1.447 1.417 1.427 1.437 1.467 1.477 1.467 1.397
1610.697 1.3388 1.3443 1.3255 1.2426 1.2535 1.2712 1.2442 1.2578 1.2778 1.2548
1629.986 1.2011 1.201 1.1883 1.1462 1.0284 0.979 1.055 1.0164 0.9355 0.9392
1649.276 0.9307 0.9335 0.9712 0.9252 0.8299 0.7798 0.77 0.7558 0.7045 0.6919
1668.566 0.706 0.7033 0.702 0.6491 0.5804 0.578 0.5823 0.5861 0.6393 0.6498
1687.856 0.6111 0.6089 0.6472 0.6697 0.675 0.6619 0.6047 0.5575 0.5907 0.5987
1707.146 0.5315 0.477 0.5125 0.5857 0.5581 0.5248 0.5286 0.4943 0.4804 0.4804
1726.435 0.4659 0.4598 0.4515 0.41817 0.40638 0.4206 0.4579 0.4763 0.43934 0.41806
1745.725 0.41455 0.39794 0.36428 0.36934 0.38457 0.42281 0.42704 0.36924 0.38882 0.38344
1765.015 0.36338 0.40941 0.41221 0.37189 0.36137 0.38047 0.36144 0.354361 0.37474 0.37643
1784.305 0.35922 0.3685 0.37408 0.36842 0.34288 0.2895 0.3016 0.350787 0.36163 0.3315
1803.594 0.35317 0.38506 0.351042 0.3238 0.34205 0.36595 0.37936 0.36652 0.36532 0.36952
1822.884 0.34296 0.3329 0.2873 0.2912 0.2933 0.2647 0.2903 0.2899 0.2832 0.2688
1842.174 0.2506 0.2615 0.229 0.187 0.183 0.202 0.235 0.225 0.225 0.231
1861.464 0.2471 0.2527 0.2513 0.261 0.265 0.238 0.2581 0.2969 0.2775 0.2685
1880.754 0.295 0.3077 0.2905 0.2962 0.2877 0.3348 0.37483 0.3038 0.2848 0.3212
1900.043 0.33932 0.3222 0.2822 0.2867 0.322 0.3675 0.36853 0.3269 0.3105 0.350825
1919.333 0.3888 0.3718 0.39488 0.39521 0.37127 0.37541 0.33851 0.34634 0.36232 0.36111
1938.623 0.39132 0.42694 0.42036 0.3651 0.34593 0.34529 0.33837 0.36431 0.37175 0.36913
1957.913 0.36568 0.37626 0.36145 0.3014 0.3006 0.2951 0.2816 0.2967 0.2607 0.2481
1977.202 0.3084 0.3265 0.3079 0.2796 0.2722 0.2765 0.2705 0.2473 0.2869 0.3244
1996.492 0.2918 0.2843 0.298 0.334 0.354953 0.36501 0.37192 0.3874 0.38877 0.38111
2015.782 0.38138 0.36982 0.38163 0.36044 0.3193 0.3269 0.3141 0.2896 0.3257 0.3341
2035.072 0.3251 0.2993 0.244 0.2836 0.2961 0.3103 0.3346 0.2867 0.2574 0.2658
2054.362 0.2888 0.3076 0.3202 0.3072 0.3236 0.3214 0.3047 0.305 0.2783 0.2621
2073.651 0.301 0.3241 0.3036 0.2857 0.2927 0.3019 0.3032 0.2931 0.2489 0.227
2092.941 0.241 0.2976 0.327 0.2818 0.2515 0.273 0.2816 0.3012 0.3147 0.2925
2112.231 0.2915 0.2823 0.2979 0.3005 0.2645 0.2866 0.277 0.249 0.2645 0.27
2131.521 0.2794 0.3007 0.3083 0.2844 0.305 0.33726 0.3198 0.313 0.3162 0.2974
2150.810 0.267 0.298 0.352996 0.35886 0.331 0.2753 0.2908 0.3327 0.3316 0.302
2170.100 0.2965 0.2984 0.2944 0.2946 0.3011 0.31 0.291 0.28 0.283 0.33751
2189.390 0.35724 0.356803 0.36032 0.3067 0.2738 0.3347 0.36706 0.323 0.3383 0.38176
2208.680 0.37056 0.351936 0.3177 0.3001 0.2989 0.3064 0.2939 0.2801 0.2857 0.2934
2227.970 0.307 0.2844 0.2634 0.2862 0.292 0.2927 0.3103 0.3046 0.3039 0.2725
2247.259 0.2586 0.2948 0.36933 0.40861 0.37709 0.3329 0.3043 0.35754 0.42383 0.39213
2266.549 0.38379 0.353643 0.311 0.347808 0.3286 0.34303 0.37393 0.34557 0.37321 0.40844
2285.839 0.42585 0.4663 0.42253 0.3328 0.3225 0.39949 0.42219 0.40281 0.36932 0.37909
2305.129 0.4641 0.4446 0.41128 0.40011 0.39929 0.42506 0.38245 0.2879 0.3016 0.36742
2324.418 0.3223 0.303 0.2939 0.2826 0.2906 0.347292 0.37545 0.3125 0.2984 0.2981
2343.708 0.2544 0.24 0.2827 0.2872 0.2643 0.2685 0.2927 0.3017 0.3202 0.3294
2362.998 0.34311 0.3364 0.3062 0.3295 0.352101 0.3247 0.351727 0.40085 0.38872 0.38405
2382.288 0.40322 0.38153 0.39818 0.43088 0.42002 0.4478 0.42429 0.37801 0.37618 0.38007
2401.578 0.39371 0.36691 0.347236 0.37868 0.39041 0.36629 0.36119 0.38778 0.3829 0.38157
2420.867 0.39496 0.3659 0.36546 0.40488 0.38128 0.42156 0.4684 0.40942 0.44158 0.4543
2440.157 0.4054 0.351823 0.33905 0.41751 0.43201 0.42477 0.4364 0.36441 0.334 0.3287
2459.447 0.3154 0.34312 0.3184 0.355349 0.43215 0.41315 0.38548 0.43577 0.4539 0.4812
2478.737 0.5153 0.5209 0.5558 0.5694 0.6109 0.6481 0.6022 0.6065 0.6453 0.6373
2498.026 0.6605 0.6994 0.6769 0.6418 0.6764 0.6801 0.6414 0.6418 0.6156 0.5664
2517.316 0.5287 0.5111 0.4686 0.43097 0.43068 0.3732 0.352744 0.39012 0.41047 0.36184
2536.606 0.3344 0.35835 0.3233 0.35021 0.36236 0.33864 0.3184 0.2666 0.2656 0.2873
2555.896 0.3285 0.3151 0.2936 0.237 0.2785 0.36485 0.3051 0.289 0.3161 0.36879
2575.186 0.39662 0.36904 0.3116 0.3005 0.33 0.3013 0.33918 0.346951 0.3068 0.3029
2594.475 0.3017 0.3199 0.3094 0.3189 0.3121 0.2969 0.2648 0.243 0.2931 0.2842
2613.765 0.2773 0.36188 0.39366 0.37014 0.40082 0.38065 0.346587 0.33958 0.3315 0.356009
2633.055 0.34074 0.36531 0.37071 0.4057 0.4081 0.353443 0.37702 0.39072 0.37035 0.354613
2652.345 0.36233 0.34238 0.2964 0.297 0.354411 0.37114 0.34114 0.3333 0.39346 0.38928
2671.634 0.347702 0.3348 0.2965 0.3622 0.44283 0.43506 0.43919 0.43181 0.37784 0.353183
2690.924 0.37887 0.39983 0.45 0.5065 0.4828 0.4622 0.5334 0.5268 0.4861 0.5245
2710.214 0.543 0.4732 0.4578 0.5284 0.5018 0.5264 0.5695 0.5437 0.564 0.6278
2729.504 0.636 0.5579 0.5462 0.5825 0.7163 0.7793 0.7725 0.7969 0.7634 0.7633
2748.794 0.7487 0.7278 0.8257 0.9 0.9148 0.9386 0.958 0.9224 0.9071 1.0114
2768.083 1.0795 1.1425 1.1971 1.1969 1.2685 1.3192 1.377 1.467 1.517 1.667
2787.373 1.757 1.787 1.987 2.197 2.337 2.627 2.937 3.187 3.497 3.877
2806.663 4.327 4.677 4.987 5.357 5.717 5.947 5.997 6.077 6.177 6.247
2825.953 6.257 6.157 5.877 5.687 5.627 5.477 5.407 5.467 5.577 5.757
2845.242 5.967 6.137 6.327 6.507 6.757 7.077 7.297 7.577 7.887 8.127
2864.532 8.307 8.407 8.547 8.697 8.867 9.127 9.397 9.697 9.977 10.287
2883.822 10.647 10.917 11.297 11.807 12.237 12.517 12.867 13.117 13.277 13.487
2903.112 13.657 13.727 13.817 13.857 13.837 13.917 14.047 14.227 14.467 14.757
2922.401 15.187 15.687 16.197 16.937 17.837 18.697 19.537 20.407 21.327 22.127
2941.691 22.927 23.467 23.727 23.867 23.787 23.447 22.767 21.727 20.557 19.457
2960.981 18.357 17.177 15.867 14.647 13.597 12.677 12.017 11.517 11.087 10.747
2980.271 10.497 10.317 10.377 10.607 10.647 10.487 10.257 10.117 9.837 9.567
2999.561 9.457 9.147 8.587 8.037 7.587 7.147 6.677 6.197 5.737 5.287
3018.850 4.877 4.567 4.227 3.887 3.717 3.467 3.227 3.077 2.887 2.667
3038.140 2.487 2.387 2.307 2.267 2.187 2.097 1.937 1.927 1.917 1.687
3057.430 1.617 1.607 1.577 1.557 1.517 1.467 1.447 1.487 1.497 1.517
3076.720 1.537 1.567 1.507 1.397 1.397 1.3285 1.2889 1.3213 1.3414 1.3011
3096.009 1.2289 1.2269 1.2044 1.1306 1.0931 1.055 1.0559 1.1309 1.173 1.0877
3115.299 1.0071 0.984 0.9726 0.9349 0.8494 0.8641 0.8633 0.8199 0.8544 0.9434
3134.589 0.9033 0.812 0.7129 0.6499 0.6699 0.7283 0.7759 0.7547 0.7069 0.7236
3153.879 0.7547 0.6894 0.6054 0.5237 0.5588 0.7579 0.7571 0.5846 0.5525 0.4694
3173.169 0.43324 0.5314 0.5391 0.44388 0.4774 0.4556 0.36608 0.3958 0.44412 0.44427
3192.458 0.42765 0.44174 0.4629 0.42012 0.38467 0.40264 0.352535 0.34132 0.34307 0.3276
3211.748 0.2905 0.3019 0.347193 0.2553 0.194 0.222 0.3016 0.40154 0.34265 0.2896
3231.038 0.3111 0.34149 0.33936 0.334 0.2647 0.2782 0.311 0.2874 0.3176 0.2779
3250.328 0.246 0.2733 0.3204 0.37154 0.40549 0.2953 0.2526 0.2544 0.2488 0.2657
3269.617 0.2737 0.3115 0.2543 0.219 0.2719 0.346819 0.2642 0.173 0.237 0.2768
3288.907 0.2855 0.2913 0.2576 0.245 0.2916 0.3192 0.33919 0.39071 0.38618 0.3178
3308.197 0.191 0.137 0.23 0.2952 0.2887 0.349297 0.3013 0.244 0.2877 0.2521
3327.487 0.168 0.153 0.208 0.243 0.2 0.146 0.232 0.214 0.2 0.179
3346.777 0.057 0.057 0.133 0.151 0.09 0.068 0.166 0.2555 0.2788 0.197
3366.066 0.174 0.229 0.226 0.164 0.116 0.111 0.136 0.163 0.244 0.2603
3385.356 0.088 0.071 0.126 0.203 0.243 0.2613 0.224 0.196 0.243 0.2601
3404.646 0.2769 0.237 0.222 0.193 0.121 0.194 0.2624 0.2483 0.2685 0.232
3423.936 0.222 0.182 0.192 0.209 0.201 0.2772 0.3275 0.28 0.2575 0.2503
3443.225 0.127 0.136 0.2 0.222 0.231 0.288 0.2765 0.13 0.075 0.119
3462.515 0.183 0.209 0.145 0.08 0.134 0.211 0.36294 0.42524 0.23 0.173
3481.805 0.16 0.16 0.105 0.011 0.172 0.198 0.2473 0.34443 0.2483 0.204
3501.095 0.148 0.073 0.083 0.153 0.2819 0.2849 0.204 0.138 0.189 0.2848
3520.385 0.175 0.107 0.2531 0.3055 0.2749 0.213 0.213 0.2513 0.243 0.2655
3539.674 0.204 0.231 0.2845 0.197 0.189 0.18 0.102 0.121 0.214 0.2636
3558.964 0.226 0.155 0.071 0.088 0.171 0.119 0.156 0.229 0.208 0.141
3578.254 0 0.013 0.132 0.161 0.097 0.133 0.078 0.053 0.218 0.244
3597.544 0.222 0.224 0.178 0.134 0.213 0.2954 0.18 0.116 0.162 0.228
3616.833 0.29 0.2871 0.3098 0.2485 0.171 0.109 0.102 0.189 0.152 0.196
3636.123 0.193 0.174 0.2752 0.241 0.131 0.137 0.234 0.24 0.3324 0.34093
3655.413 0.191 0.183 0.2536 0.229 0.116 0.151 0.209 0.2476 0.183 0.122
3674.703 0.2673 0.2729 0.221 0.2878 0.2817 0.2648 0.3185 0.2774 0.148 0.093
3693.993 0.12 0.029 0.132 0.33712 0.2922 0.34303 0.2932 0.137 0.122 0.204
3713.282 0.233 0.139 0.113 0.155 0.114 0.087 0.101 0.048 0.155 0.2539
3732.572 0.2657 0.242 0.246 0.2999 0.24 0.218 0.237 0.2521 0.2475 0.2562
3751.862 0.2729 0.254 0.2662 0.225 0.3056 0.3273 0.113 0.119 0.171 0.132
3771.152 0.193 0.147 0.092 0.247 0.2719 0.2746 0.165 0.134 0.351834 0.4063
3790.441 0.3207 0.2739 0.3333 0.2502 0.2837 0.39316 0.36886 0.2947 0.2902 0.34009
3809.731 0.33933 0.3053 0.2659 0.149 0.146 0.212 0.122 0.146 0.212 0.246
3829.021 0.35808 0.3366 0.2483 0.2548 0.2643 0.158 0.107 0.236 0.2843 0.2699
3848.311 0.239 0.204 0.204 0.3107 0.3213 0.103 0.071 0.188 0.236 0.2996
3867.601 0.36614 0.44349 0.38916 0.3369 0.3193 0.2848 0.237 0.2809 0.2897 0.2476
3886.890 0.2587 0.2856 0.3344 0.239 0.172 0.3043 0.44614 0.3204 0.158 0.2623
3906.180 0.311 0.202 0.2815 0.38582 0.32 0.2528 0.198 0.191 0.208 0.197
3925.470 0.2969 0.349835 0.3455 0.3138 0.2529 0.214 0.3035 0.34217 0.35333 0.43466
3944.760 0.43648 0.3106 0.24 0.2879 0.308 0.346427 0.34598 0.34207 0.40941 0.39513
3964.049 0.39371 0.355619 0.2574 0.353487 0.40227 0.39364 0.37064 0.36586 0.38604 0.3327
3983.339 0.40693 0.4521 0.355495 0.354166 0.2775 0.40136 0.44664 0.350572 0.4839 0.4619
##END=
