##TITLE=Phendimetrazine
##JCAMP-DX=4.24
##DATA TYPE=INFRARED SPECTRUM
##ORIGIN=NIST Mass Spectrometry Data Center
##OWNER=NIST Standard Reference Data Program
Collection (C) 2018 copyright by the U.S. Secretary of Commerce
on behalf of the United States of America. All rights reserved.
##CAS REGISTRY NO=634-03-7
##MOLFORM=C 12 H 17 N O
##$NIST SOURCE=MSDC-IR
##SPECTROMETER/DATA SYSTEM=HP-GC/MS/IRD
##STATE=gas
##XUNITS=1/CM
##YUNITS=ABSORBANCE
##XFACTOR=1.0
##YFACTOR=0.000000900
##DELTAX=4.0
##FIRSTX=550.0
##LASTX=3846.0
##FIRSTY=0.000119
##MAXX=3846
##MINX=550
##MAXY=0.009
##MINY=0
##NPOINTS=825
##XYDATA=(X++(Y..Y))
550.0 132 31 0 72 71 35 133 118 42 136
590.0 298 459 648 699 579 432 271 173 122 83
630.0 215 461 756 923 909 782 577 451 428 439
670.0 475 517 666 994 1648 2673 3510 3873 3594 2718
710.0 1834 1173 810 697 676 772 1073 1634 2372 3035
750.0 3336 3144 2445 1532 912 664 594 652 750 777
790.0 727 613 460 348 257 198 173 153 74 152
830.0 273 258 296 304 360 380 358 381 423 494
870.0 590 695 792 762 652 585 618 779 968 1103
910.0 1115 1071 1021 949 948 1085 1259 1322 1219 910
950.0 603 483 419 423 504 576 703 872 1080 1424
990.0 1938 2481 2800 2787 2411 1807 1331 1118 1150 1307
1030.0 1451 1430 1267 1074 1005 961 969 1191 1581 2007
1070.0 2426 2937 3779 4860 5593 5757 5481 5398 6131 7356
1110.0 8571 9539 10000 9746 8764 7220 5687 4605 3844 3139
1150.0 2546 2341 2449 2588 2576 2312 1851 1392 1053 845
1190.0 730 677 674 661 643 655 711 810 890 936
1230.0 1023 1184 1363 1508 1556 1587 1697 1997 2460 2858
1270.0 3070 3097 3058 2972 2752 2326 1776 1314 1013 877
1310.0 843 880 986 1088 1139 1160 1173 1237 1441 1724
1350.0 2009 2121 1975 1741 1588 1625 1776 1841 1754 1481
1390.0 1122 810 577 443 380 367 378 394 423 483
1430.0 585 764 1106 1600 2150 2590 2780 2678 2397 2067
1470.0 1768 1502 1281 1142 1071 1024 976 869 687 517
1510.0 391 319 274 236 206 194 192 169 147 143
1550.0 152 123 83 110 129 146 183 214 268 320
1590.0 349 363 377 389 360 312 239 179 170 159
1630.0 150 145 148 149 146 156 176 184 166 136
1670.0 110 92 75 66 65 66 55 71 74 77
1710.0 92 82 71 98 98 69 75 98 113 122
1750.0 109 89 99 104 88 73 70 80 89 144
1790.0 204 244 261 230 187 144 127 109 92 84
1830.0 77 69 77 87 87 90 97 124 155 175
1870.0 194 190 189 196 157 142 131 115 100 75
1910.0 75 86 96 112 148 170 184 234 254 248
1950.0 242 224 202 167 119 89 74 63 59 88
1990.0 101 87 83 85 90 96 116 116 108 108
2030.0 107 110 87 73 77 77 75 68 67 58
2070.0 73 84 74 68 63 56 72 87 91 81
2110.0 54 49 53 62 57 34 14 13 16 17
2150.0 36 34 31 53 53 46 31 20 49 70
2190.0 70 60 52 51 51 52 43 48 47 23
2230.0 28 39 47 27 12 27 32 46 52 44
2270.0 40 51 61 59 74 66 48 47 54 74
2310.0 78 56 60 71 65 47 60 73 61 74
2350.0 77 77 74 57 56 58 50 56 72 73
2390.0 64 45 28 44 50 43 37 51 67 71
2430.0 74 73 76 71 86 102 103 98 97 97
2470.0 90 81 95 101 85 86 91 103 120 108
2510.0 93 118 143 135 146 141 112 126 149 165
2550.0 178 190 206 215 223 221 238 260 267 259
2590.0 278 294 272 278 287 291 312 329 328 304
2630.0 269 251 260 260 236 253 284 293 280 307
2670.0 374 406 461 556 645 759 866 933 966 954
2710.0 920 914 942 957 977 992 1005 1053 1144 1231
2750.0 1304 1389 1487 1709 2034 2407 2888 3467 4119 4975
2790.0 5952 6804 7212 6986 6288 5402 4584 3879 3300 2893
2830.0 2683 2679 2932 3444 4159 5076 6070 6844 7072 6516
2870.0 5416 4289 3514 3129 2952 2880 2802 2727 2785 2970
2910.0 3201 3355 3447 3622 4118 5013 5768 5870 5290 4460
2950.0 4186 4721 5747 6921 7429 6968 5996 4767 4120 4255
2990.0 4556 4585 4084 3271 2447 1754 1357 1280 1396 1694
3030.0 2078 2391 2525 2414 2119 1829 1684 1714 1980 2404
3070.0 2684 2640 2326 1893 1622 1481 1313 1120 951 812
3110.0 687 598 506 424 365 336 313 267 229 222
3150.0 233 221 213 231 241 213 194 189 164 152
3190.0 137 140 139 129 134 116 120 128 102 114
3230.0 142 116 99 102 98 110 98 54 41 70
3270.0 84 77 81 96 117 96 89 105 80 77
3310.0 79 66 48 48 94 118 124 109 102 73
3350.0 22 38 84 82 74 77 68 91 95 77
3390.0 104 100 104 90 60 71 102 99 84 73
3430.0 67 62 59 66 70 61 52 66 37 14
3470.0 50 67 59 32 28 44 69 99 97 98
3510.0 77 37 52 60 56 90 115 79 33 24
3550.0 53 89 101 114 111 119 101 80 79 80
3590.0 66 41 52 72 76 74 88 79 60 63
3630.0 66 80 111 147 152 142 140 126 104 104
3670.0 104 122 103 90 90 82 100 119 137 112
3710.0 95 128 113 86 101 85 74 123 100 43
3750.0 83 102 76 85 108 120 131 99 91 114
3790.0 106 112 98 94 104 120 147 151 134 109
3830.0 116 123 79 85 138
##END=
