##TITLE=Pyrrole-2-carboxylic acid
##JCAMP-DX=4.24
##DATA TYPE=INFRARED SPECTRUM
##ORIGIN=EPA-IR VAPOR PHASE LIBRARY
##OWNER=SRD/NIST
Collection (C) 2018 copyright by the U.S. Secretary of Commerce
on behalf of the United States of America. All rights reserved.
##CAS REGISTRY NO=634-97-9
##MOLFORM=C5 H5 N O2
##$NIST SOURCE=MSDC-IR
##STATE=gas
##XUNITS=1/CM
##YUNITS=ABSORBANCE
##XFACTOR=1.
##YFACTOR=0.001
##DELTAX=1.92898
##FIRSTX=549.8
##LASTX=4000.7
##FIRSTY=9.425
##MAXX=4000.7
##MINX=549.759
##MAXY=0.037335
##MINY=0
##NPOINTS=1790
##XYDATA=(X++(Y..Y))
549.759 9.425 9.385 9.375 9.295 8.685 8.045 7.935 7.325 6.445 6.075
569.049 5.815 5.295 4.475 4.055 4.075 3.715 3.495 3.195 2.675 2.195
588.339 2.085 2.145 2.095 2.095 1.995 1.535 1.295 1.205 1.225 1.475
607.628 1.675 1.495 1.285 1.495 1.815 1.995 1.675 1.425 1.295 1.205
626.918 1.465 1.475 1.465 1.555 1.365 1.425 1.595 1.545 1.455 1.355
646.208 1.355 1.445 1.495 1.525 1.535 1.585 1.715 1.635 1.495 1.365
665.498 2.435 6.425 6.375 3.615 3.585 4.125 4.945 5.575 5.995 6.425
684.787 6.355 6.485 7.495 7.595 7.075 7.185 7.285 6.845 6.305 5.755
704.077 5.135 4.625 4.265 4.135 4.375 4.955 6.295 8.335 11.585 13.825
723.367 11.305 8.375 7.615 7.705 8.635 10.595 14.115 15.865 13.005 10.405
742.657 10.125 10.265 10.305 10.115 9.995 9.775 9.585 9.845 9.365 7.875
761.947 7.255 8.045 9.115 7.865 5.715 5.025 4.845 4.505 4.225 3.985
781.236 3.725 3.495 3.025 2.525 2.365 1.965 1.725 1.775 1.585 1.465
800.526 1.315 1.1727 1.235 1.325 1.265 1.225 1.245 1.17 1.1484 1.255
819.816 1.275 1.355 1.605 1.395 1.1736 1.275 1.1429 0.9937 0.9595 0.9377
839.106 0.9064 0.8542 0.8517 0.9053 0.9163 0.9158 0.8975 0.7241 0.6676 0.8223
858.395 1.0049 1.012 0.9021 0.9625 1.0234 1.183 1.245 0.9967 0.962 1.1823
877.685 1.295 1.355 1.445 1.535 1.435 1.205 1.265 1.365 1.255 1.0409
896.975 1.0047 0.9162 0.7609 0.7624 0.7896 0.8655 0.9532 1.0006 0.919 0.7743
916.265 0.6973 0.904 1.0648 1.1495 1.285 1.385 1.475 1.525 1.825 1.995
935.555 1.995 2.105 2.075 2.065 2.355 2.485 2.385 2.375 2.305 2.205
954.844 2.155 1.895 1.665 1.635 1.415 1.205 1.275 1.345 1.385 1.375
974.134 1.305 1.415 1.565 1.575 1.775 1.755 1.555 1.495 1.635 1.915
993.424 2.015 1.975 1.835 1.795 1.985 2.195 1.995 1.925 2.085 2.225
1012.714 2.565 2.985 3.615 4.145 4.575 4.925 4.885 4.825 4.845 5.005
1032.003 5.065 5.365 5.655 5.585 5.235 4.885 4.975 5.085 5.015 4.975
1051.293 5.175 5.085 5.095 5.325 5.555 5.995 6.375 6.735 7.075 7.615
1070.583 8.195 9.115 10.355 11.255 12.815 14.865 16.905 18.765 20.165 20.895
1089.873 21.355 21.625 21.875 22.805 23.635 23.905 24.095 23.955 22.485 20.235
1109.163 17.975 16.065 14.765 13.655 12.975 12.455 12.195 12.315 12.145 11.925
1128.452 11.655 11.225 10.475 10.135 9.925 9.735 9.605 9.515 9.415 8.885
1147.742 8.185 7.625 6.915 5.925 5.405 5.145 4.935 4.655 4.405 4.305
1167.032 4.205 4.175 4.105 3.935 4.065 4.275 4.105 4.055 4.205 4.055
1186.322 3.965 4.125 4.325 4.675 4.905 4.965 5.165 5.245 5.575 6.035
1205.611 6.445 6.615 6.535 6.805 6.885 6.955 7.165 7.315 7.195 6.925
1224.901 6.755 6.365 6.115 5.995 5.685 5.625 5.545 5.285 4.885 4.705
1244.191 4.945 4.805 4.635 4.785 4.895 4.925 4.965 5.175 5.395 5.695
1263.481 6.085 6.225 6.075 6.065 6.245 6.225 6.155 6.255 6.495 6.775
1282.771 6.965 7.085 7.315 7.395 7.205 6.975 6.645 6.405 6.275 6.035
1302.060 5.685 5.495 5.295 4.945 4.515 4.155 3.905 3.705 3.685 3.715
1321.350 3.755 3.845 3.915 3.975 4.035 4.095 4.175 4.265 4.365 4.495
1340.640 4.635 4.695 4.675 4.625 4.555 4.515 4.465 4.455 4.485 4.485
1359.930 4.505 4.455 4.305 4.135 4.015 3.945 3.795 3.645 3.525 3.445
1379.219 3.395 3.245 3.155 3.115 3.015 2.925 2.885 2.905 3.015 3.215
1398.509 3.585 4.055 4.655 5.445 6.375 7.445 8.625 9.905 11.215 12.395
1417.799 13.345 13.895 14.095 14.185 14.175 14.175 13.965 13.575 13.185 12.565
1437.089 11.395 9.975 8.695 7.675 7.035 6.585 6.215 5.915 5.685 5.555
1456.378 5.375 5.075 4.675 4.255 3.815 3.235 2.725 2.345 2.075 1.845
1475.668 1.605 1.365 1.275 1.1739 0.9957 0.8658 0.7519 0.7053 0.6422 0.59
1494.958 0.5829 0.5976 0.5596 0.4999 0.4654 0.5024 0.6216 0.6175 0.5702 0.5513
1514.248 0.5377 0.6331 0.7395 0.7578 0.8182 0.8442 0.8431 0.9098 0.9921 1.1197
1533.538 1.295 1.455 1.685 2.085 2.495 2.825 3.215 3.645 4.075 4.495
1552.827 4.815 5.015 5.135 5.145 4.975 4.925 4.885 4.765 4.605 4.175
1572.117 3.625 3.175 2.685 2.105 1.765 1.585 1.425 1.335 1.255 1.1483
1591.407 1.0712 1.0586 1.0025 0.9678 0.9277 0.8994 0.9886 1.0086 1.0162 0.9709
1610.697 0.9102 0.921 0.9931 1.098 1.0927 1.1209 1.1124 1.1362 1.225 1.275
1629.986 1.325 1.235 1.245 1.415 1.425 1.375 1.485 1.615 1.685 1.685
1649.276 1.595 1.635 1.685 1.605 1.635 1.605 1.525 1.615 1.625 1.585
1668.566 1.665 1.665 1.645 1.755 1.785 1.795 1.915 2.065 2.235 2.335
1687.856 2.335 2.355 2.485 2.685 2.925 3.025 3.145 3.375 3.555 3.815
1707.146 4.215 4.625 5.135 5.855 6.625 7.585 8.915 10.355 12.375 14.865
1726.435 17.745 21.165 24.675 27.945 30.925 32.805 33.735 34.205 34.325 34.485
1745.725 34.775 35.655 36.955 37.335 35.865 33.015 29.405 25.885 22.925 20.455
1765.015 18.375 16.955 15.995 15.225 14.665 14.265 13.385 11.605 9.305 7.115
1784.305 5.445 4.205 3.345 2.835 2.475 2.155 1.895 1.685 1.515 1.415
1803.594 1.355 1.285 1.235 1.195 1.1331 1.1019 1.098 1.1256 1.164 1.1591
1822.884 1.1781 1.255 1.305 1.315 1.285 1.255 1.305 1.325 1.295 1.315
1842.174 1.315 1.295 1.285 1.235 1.205 1.1334 1.0874 1.1242 1.1462 1.0883
1861.464 1.0256 1.0071 0.9516 0.8838 0.859 0.8355 0.8552 0.8466 0.8086 0.8089
1880.754 0.7453 0.709 0.7106 0.6859 0.6712 0.6682 0.693 0.6422 0.6179 0.6752
1900.043 0.7033 0.7243 0.7082 0.6765 0.6261 0.6556 0.7003 0.6625 0.6839 0.8074
1919.333 0.7795 0.7156 0.7727 0.7248 0.6916 0.7776 0.8062 0.7319 0.6736 0.6606
1938.623 0.6092 0.6302 0.6905 0.6202 0.5877 0.6137 0.6648 0.7903 0.7699 0.7128
1957.913 0.6842 0.6078 0.5932 0.6227 0.6677 0.6489 0.6342 0.6438 0.6729 0.6968
1977.202 0.6627 0.6312 0.6271 0.5782 0.5655 0.6331 0.6157 0.5823 0.6036 0.609
1996.492 0.5437 0.4843 0.4703 0.4409 0.4745 0.4928 0.4689 0.4676 0.4796 0.4825
2015.782 0.4854 0.4733 0.432 0.4029 0.3791 0.4476 0.4363 0.406 0.4811 0.5053
2035.072 0.4801 0.4696 0.4797 0.4633 0.4678 0.4738 0.4583 0.4571 0.4647 0.4204
2054.362 0.4468 0.4686 0.4325 0.467 0.5175 0.5093 0.4843 0.5117 0.4976 0.4243
2073.651 0.4126 0.4002 0.3865 0.4384 0.4831 0.4692 0.4246 0.3881 0.4111 0.4608
2092.941 0.4688 0.4805 0.4655 0.4698 0.4456 0.4422 0.5159 0.4695 0.4759 0.5668
2112.231 0.5736 0.5134 0.444 0.4288 0.4767 0.4884 0.4495 0.466 0.4657 0.4492
2131.521 0.4166 0.4715 0.5365 0.5122 0.478 0.4938 0.5633 0.564 0.5497 0.5431
2150.810 0.5625 0.5406 0.4864 0.4845 0.5012 0.535 0.4891 0.5144 0.5843 0.5078
2170.100 0.4559 0.4933 0.4837 0.4287 0.4188 0.438 0.3901 0.4081 0.4778 0.4782
2189.390 0.4461 0.3953 0.3759 0.3456 0.3679 0.3527 0.3532 0.3956 0.3646 0.3204
2208.680 0.27304 0.2944 0.3021 0.351 0.4503 0.4131 0.3815 0.4071 0.4005 0.426
2227.970 0.3964 0.3671 0.3898 0.3554 0.3691 0.4168 0.4259 0.4562 0.427 0.3814
2247.259 0.4542 0.4909 0.5261 0.6049 0.6372 0.5681 0.5509 0.6254 0.6633 0.7271
2266.549 0.8396 0.8145 0.7861 0.8554 0.9734 1.1591 1.205 1.245 1.365 1.555
2285.839 1.785 1.955 2.135 2.385 2.655 2.925 3.285 3.725 4.085 4.405
2305.129 4.745 5.195 5.585 5.925 6.205 6.495 6.865 7.195 7.415 7.495
2324.418 7.565 7.515 7.495 7.605 7.465 7.105 6.835 6.735 6.835 6.855
2343.708 6.625 6.285 5.685 5.535 6.335 7.405 8.305 8.965 9.425 9.725
2362.998 9.965 9.885 9.605 9.245 8.715 8.095 7.255 6.275 5.255 4.255
2382.288 3.375 2.565 1.865 1.325 1.0102 0.7839 0.5417 0.4638 0.491 0.4992
2401.578 0.4737 0.5195 0.5528 0.49 0.3899 0.3877 0.4383 0.4218 0.3529 0.3801
2420.867 0.4249 0.4166 0.4254 0.4095 0.4677 0.5378 0.5894 0.6286 0.5866 0.5388
2440.157 0.5341 0.4515 0.4131 0.4901 0.5563 0.5603 0.5941 0.613 0.5281 0.5196
2459.447 0.5838 0.5913 0.5544 0.4895 0.5063 0.5629 0.4993 0.4741 0.4474 0.3898
2478.737 0.4254 0.4783 0.5294 0.5577 0.599 0.5643 0.4959 0.5234 0.4479 0.3963
2498.026 0.4398 0.4472 0.4791 0.5452 0.5043 0.475 0.5425 0.5604 0.5267 0.5244
2517.316 0.5118 0.5099 0.5062 0.4873 0.5268 0.5292 0.4021 0.3743 0.4408 0.4235
2536.606 0.465 0.5224 0.4991 0.5542 0.5711 0.5197 0.572 0.5254 0.4748 0.4103
2555.896 0.3546 0.3554 0.26432 0.23664 0.28218 0.3673 0.3896 0.3486 0.366 0.3783
2575.186 0.4698 0.4468 0.3464 0.28136 0.24663 0.3054 0.27581 0.27662 0.3919 0.4866
2594.475 0.4984 0.4167 0.25088 0.18201 0.23971 0.26496 0.22693 0.22731 0.3659 0.3904
2613.765 0.3084 0.27398 0.26983 0.2923 0.3259 0.4224 0.4207 0.391 0.4368 0.4066
2633.055 0.4382 0.4791 0.4465 0.3569 0.3422 0.3266 0.3502 0.4106 0.25373 0.2974
2652.345 0.3684 0.26305 0.34 0.3823 0.3089 0.3554 0.2998 0.2976 0.3405 0.3505
2671.634 0.3564 0.2946 0.3289 0.3857 0.4099 0.3872 0.3665 0.2851 0.3099 0.3201
2690.924 0.2931 0.3712 0.24683 0.1495 0.24846 0.3473 0.3879 0.3974 0.359 0.27189
2710.214 0.2749 0.2856 0.3033 0.27431 0.25344 0.22613 0.1047 0.076 0.2101 0.23016
2729.504 0.06 0 0.1731 0.3199 0.27165 0.184847 0.1516 0.20707 0.27416 0.24644
2748.794 0.21376 0.26938 0.24 0.25095 0.23207 0.20004 0.293 0.26797 0.162 0.20312
2768.083 0.26743 0.19137 0.22154 0.23622 0.189252 0.22228 0.25583 0.3236 0.3189 0.20465
2787.373 0.25096 0.2695 0.1359 0.181 0.19763 0.1472 0.185637 0.27864 0.3017 0.192783
2806.663 0.24128 0.3291 0.25638 0.190559 0.23313 0.26609 0.20895 0.1586 0.21065 0.20105
2825.953 0.25123 0.402 0.4986 0.5437 0.3896 0.3203 0.3271 0.1724 0.086 0.20164
2845.242 0.20727 0.21287 0.3755 0.3888 0.3122 0.3326 0.3539 0.4127 0.4179 0.3431
2864.532 0.3845 0.416 0.4503 0.467 0.413 0.3907 0.4092 0.3502 0.22428 0.21415
2883.822 0.23961 0.27001 0.26196 0.22937 0.1603 0.1726 0.2916 0.24568 0.3033 0.442
2903.112 0.4168 0.369 0.3317 0.3272 0.27484 0.1618 0.189798 0.3455 0.25672 0.1636
2922.401 0.3184 0.18371 0.22975 0.4279 0.2867 0.1543 0.1347 0.21653 0.2905 0.25506
2941.691 0.191735 0.1096 0.022 0.014 0.17618 0.4624 0.4936 0.2926 0.3085 0.5046
2960.981 0.5494 0.4249 0.3152 0.3787 0.4114 0.3416 0.3647 0.4445 0.412 0.3832
2980.271 0.4396 0.3569 0.363 0.5016 0.5565 0.4729 0.4753 0.3346 0.1504 0.28439
2999.561 0.4129 0.3934 0.392 0.4282 0.4078 0.3871 0.4408 0.4059 0.21774 0.23085
3018.850 0.3716 0.3716 0.3558 0.2983 0.26877 0.3251 0.28145 0.23418 0.2913 0.3136
3038.140 0.4184 0.4283 0.325 0.3462 0.2918 0.2381 0.19949 0.22622 0.3112 0.3834
3057.430 0.4444 0.4115 0.3742 0.3975 0.3611 0.3799 0.4897 0.4949 0.5226 0.5331
3076.720 0.4158 0.42 0.4686 0.3165 0.22134 0.4634 0.6091 0.489 0.5468 0.6183
3096.009 0.4658 0.4753 0.4798 0.4495 0.522 0.4724 0.6103 0.7348 0.6846 0.6781
3115.299 0.7107 0.8057 0.7951 0.7981 0.8828 0.7998 0.6683 0.6941 0.6779 0.6241
3134.589 0.6439 0.6135 0.6179 0.7465 0.6855 0.663 0.7267 0.7124 0.7178 0.7327
3153.879 0.7403 0.6147 0.3897 0.2923 0.4138 0.3726 0.4894 0.5777 0.5494 0.6714
3173.169 0.6561 0.4145 0.413 0.5082 0.5438 0.6595 0.4874 0.396 0.4773 0.522
3192.458 0.4997 0.5246 0.4197 0.3822 0.5502 0.56 0.4713 0.4731 0.4202 0.4751
3211.748 0.4859 0.2962 0.24438 0.18138 0.1237 0.1343 0.17706 0.19737 0.26584 0.4171
3231.038 0.435 0.3675 0.3137 0.301 0.3149 0.3834 0.4294 0.3084 0.190365 0.2952
3250.328 0.332 0.28234 0.3552 0.3971 0.3624 0.326 0.3641 0.3759 0.4208 0.4395
3269.617 0.3044 0.3374 0.4327 0.4563 0.5046 0.4571 0.3875 0.47 0.5003 0.4694
3288.907 0.475 0.4104 0.4896 0.5012 0.3649 0.3861 0.4249 0.5296 0.5985 0.5901
3308.197 0.5663 0.6274 0.7597 0.7262 0.6105 0.6276 0.6468 0.5466 0.5129 0.488
3327.487 0.4666 0.4855 0.4935 0.4999 0.5484 0.4828 0.3363 0.4197 0.4954 0.4001
3346.777 0.364 0.3762 0.4083 0.3487 0.3982 0.3015 0.184388 0.3923 0.4496 0.5024
3366.066 0.4786 0.3788 0.4958 0.5511 0.4721 0.3849 0.4493 0.5685 0.5655 0.4506
3385.356 0.4115 0.4856 0.5635 0.6638 0.6434 0.4822 0.4431 0.4577 0.4887 0.5324
3404.646 0.6516 0.6896 0.5679 0.599 0.6863 0.8429 0.8179 0.6565 0.5878 0.4802
3423.936 0.4329 0.4809 0.6289 0.8223 0.7365 0.6222 0.7964 0.7991 0.6882 0.7684
3443.225 0.8799 0.9888 1.0533 1.0495 1.0873 1.255 1.485 1.655 1.665 1.915
3462.515 2.375 2.565 2.815 3.185 3.625 4.085 4.495 5.015 5.385 6.195
3481.805 7.095 7.455 7.745 7.945 7.915 7.615 7.395 7.625 7.995 8.265
3501.095 8.405 8.225 7.675 6.915 6.395 5.855 5.165 4.755 4.545 4.215
3520.385 3.835 3.485 3.135 2.635 2.315 2.325 2.155 1.835 1.795 1.565
3539.674 1.495 1.655 1.455 1.505 1.455 1.1733 1.1708 1.285 1.315 1.275
3558.964 1.315 1.405 1.525 1.565 1.815 2.395 3.055 4.065 5.375 6.645
3578.254 7.835 9.135 10.055 10.455 10.525 10.595 10.725 10.585 10.195 9.845
3597.544 9.315 8.295 6.915 5.395 3.905 2.725 2.015 1.515 1.1333 0.9989
3616.833 1.0417 0.9494 0.819 0.6651 0.6581 0.6749 0.671 0.7625 0.7243 0.5577
3636.123 0.4588 0.4688 0.5479 0.6467 0.66 0.6045 0.6033 0.5911 0.514 0.5253
3655.413 0.6794 0.8723 0.6699 0.4265 0.4036 0.452 0.4502 0.5087 0.6539 0.634
3674.703 0.7455 0.6901 0.5019 0.4193 0.4712 0.4804 0.4505 0.6904 0.906 0.6821
3693.993 0.4414 0.4586 0.5272 0.5506 0.5821 0.7689 0.8279 0.6921 0.6746 0.6087
3713.282 0.442 0.6096 0.5955 0.4959 0.6001 0.6549 0.6705 0.5421 0.3141 0.4062
3732.572 0.7098 0.7213 0.6005 0.5617 0.6457 0.6678 0.6375 0.5152 0.4086 0.4769
3751.862 0.5442 0.4096 0.21911 0.3314 0.4567 0.3997 0.3517 0.3723 0.4678 0.6081
3771.152 0.5901 0.4714 0.26891 0.2948 0.4893 0.4162 0.4521 0.3501 0.027 0.1759
3790.441 0.3554 0.293 0.3524 0.3936 0.318 0.3038 0.4663 0.4051 0.19505 0.1571
3809.731 0.26836 0.4438 0.5065 0.5346 0.4933 0.4866 0.7454 0.4404 0.2966 0.5253
3829.021 0.4797 0.4405 0.4102 0.3756 0.3823 0.3752 0.22826 0.0864 0.009 0.19887
3848.311 0.5293 0.3878 0.24066 0.5264 0.4526 0.3418 0.4503 0.4374 0.3156 0.3294
3867.601 0.4977 0.551 0.7039 0.751 0.6479 0.3803 0.25299 0.3234 0.22911 0.3098
3886.890 0.4344 0.3323 0.3175 0.485 0.4477 0.3277 0.3274 0.3828 0.5764 0.6117
3906.180 0.4446 0.3599 0.3251 0.3519 0.4232 0.384 0.4894 0.574 0.2907 0.26968
3925.470 0.4912 0.5761 0.4298 0.3907 0.4099 0.4019 0.4747 0.5606 0.6695 0.5207
3944.760 0.4703 0.496 0.26508 0.3271 0.472 0.5406 0.5364 0.3772 0.2986 0.25746
3964.049 0.14 0.22125 0.4802 0.6021 0.5362 0.3346 0.3714 0.6164 0.5744 0.5179
3983.339 0.5114 0.4053 0.4813 0.4345 0.4793 0.6003 0.5097 0.192113 0.23549 0.4672
##END=
