##TITLE=N-Benzylformamide
##JCAMP-DX=4.24
##DATA TYPE=INFRARED SPECTRUM
##ORIGIN=NIST Mass Spectrometry Data Center
##OWNER=NIST Standard Reference Data Program
Collection (C) 2018 copyright by the U.S. Secretary of Commerce
on behalf of the United States of America. All rights reserved.
##CAS REGISTRY NO=6343-54-0
##MOLFORM=C 8 H 9 N O
##$NIST SOURCE=MSDC-IR
##SPECTROMETER/DATA SYSTEM=HP-GC/MS/IRD
##STATE=gas
##XUNITS=1/CM
##YUNITS=ABSORBANCE
##XFACTOR=1.0
##YFACTOR=0.000031700
##DELTAX=4.0
##FIRSTX=550.0
##LASTX=3846.0
##FIRSTY=0.005706
##MAXX=3846
##MINX=550
##MAXY=0.317
##MINY=0
##NPOINTS=825
##XYDATA=(X++(Y..Y))
550.0 180 263 189 218 238 272 311 353 392 417
590.0 425 419 396 356 315 272 232 199 173 153
630.0 137 125 114 103 92 86 86 94 114 154
670.0 212 296 405 532 667 809 948 1003 965 904
710.0 832 766 717 698 712 744 783 815 820 790
750.0 725 623 501 382 278 194 135 98 74 59
790.0 51 46 45 43 46 49 49 43 35 26
830.0 18 10 4 0 1 0 1 3 5 7
870.0 9 12 15 19 25 32 42 54 66 78
910.0 87 98 111 125 146 166 187 207 220 226
950.0 222 209 192 176 160 144 128 116 106 98
990.0 92 90 89 89 91 98 117 160 213 232
1030.0 216 189 139 87 69 71 82 98 116 133
1070.0 145 150 150 145 135 120 108 101 94 91
1110.0 90 92 99 109 126 149 181 226 288 372
1150.0 489 652 886 1213 1603 1952 2136 2120 1943 1646
1190.0 1340 1147 1067 1032 992 929 832 727 643 592
1230.0 577 589 611 622 618 598 569 543 529 530
1270.0 548 575 591 578 535 463 378 303 248 212
1310.0 184 164 151 140 131 127 126 131 146 170
1350.0 195 217 234 250 271 305 333 346 358 360
1390.0 340 319 307 294 286 292 314 353 411 493
1430.0 605 747 919 1105 1291 1463 1612 1773 1940 2119
1470.0 2328 2586 2861 3072 3143 3038 2745 2293 1805 1357
1510.0 977 716 538 411 318 249 199 162 134 111
1550.0 94 82 75 70 68 70 75 84 94 107
1590.0 124 145 167 180 177 161 136 106 82 71
1630.0 68 70 75 84 95 110 131 154 184 225
1670.0 277 348 443 561 715 903 1140 1442 1847 2371
1710.0 3117 4311 6139 7983 9244 10000 9618 8088 6350 4563
1750.0 3052 2135 1550 1121 817 611 470 377 310 263
1790.0 231 208 186 162 137 112 91 76 69 64
1830.0 62 60 60 59 60 61 61 62 63 64
1870.0 64 62 59 53 45 39 32 27 24 24
1910.0 25 28 33 39 45 53 62 67 72 75
1950.0 78 75 68 55 41 27 17 12 8 7
1990.0 6 4 2 3 3 1 1 0 0 0
2030.0 1 0 1 0 1 2 1 1 3 4
2070.0 3 2 3 4 4 5 6 7 7 8
2110.0 9 10 9 9 8 9 8 7 6 5
2150.0 4 5 5 4 5 6 7 8 9 10
2190.0 11 10 8 8 9 8 7 5 4 4
2230.0 2 3 2 2 3 2 1 1 0 1
2270.0 0 1 2 1 1 2 1 3 4 7
2310.0 9 11 12 13 12 12 13 13 12 13
2350.0 12 9 8 6 4 3 3 4 4 3
2390.0 2 3 5 6 5 6 7 9 11 12
2430.0 12 11 12 12 12 11 10 9 8 7
2470.0 8 7 6 7 6 7 6 7 6 5
2510.0 5 4 3 2 3 4 3 2 1 1
2550.0 0 1 2 1 1 3 4 5 6 6
2590.0 7 9 10 12 13 16 18 19 21 24
2630.0 26 28 29 30 32 33 34 35 36 38
2670.0 38 39 40 42 44 49 53 57 63 68
2710.0 75 86 99 120 148 185 235 302 374 422
2750.0 430 400 338 266 211 174 152 141 136 137
2790.0 145 157 175 201 234 281 349 443 573 750
2830.0 982 1267 1540 1709 1725 1586 1344 1095 902 762
2870.0 658 579 519 468 426 391 365 346 333 330
2910.0 336 349 370 397 424 446 456 456 443 418
2950.0 389 356 321 284 247 214 184 158 138 125
2990.0 116 117 127 146 177 221 277 349 435 532
3030.0 629 693 713 692 633 554 500 505 573 676
3070.0 754 779 754 671 559 469 413 374 338 296
3110.0 253 210 168 126 89 62 43 33 28 24
3150.0 23 22 21 22 24 24 23 20 17 13
3190.0 12 11 11 10 9 7 6 6 4 6
3230.0 4 3 3 2 1 1 1 2 2 1
3270.0 0 1 1 0 1 2 3 2 3 3
3310.0 4 5 4 5 6 7 6 7 7 6
3350.0 7 8 9 10 10 12 16 18 22 27
3390.0 32 38 47 58 72 87 108 134 164 197
3430.0 232 266 295 324 351 379 408 430 439 427
3470.0 393 345 291 236 189 152 121 94 74 56
3510.0 43 33 25 20 16 15 14 9 8 9
3550.0 8 9 8 6 7 8 7 6 7 7
3590.0 6 6 5 5 6 5 6 4 6 6
3630.0 5 7 8 8 10 11 11 10 9 10
3670.0 9 8 7 6 5 5 6 7 8 9
3710.0 8 8 8 7 7 8 7 5 4 5
3750.0 8 7 5 6 6 5 4 5 5 5
3790.0 5 6 8 7 8 7 5 6 7 8
3830.0 7 8 7 7 6
##END=
