##TITLE=4-Methoxyphenylacetamide
##JCAMP-DX=4.24
##DATA TYPE=INFRARED SPECTRUM
##ORIGIN=EPA-IR VAPOR PHASE LIBRARY
##OWNER=SRD/NIST
Collection (C) 2018 copyright by the U.S. Secretary of Commerce
on behalf of the United States of America. All rights reserved.
##CAS REGISTRY NO=6343-93-7
##MOLFORM=C 9 H 11 N O 2
##$NIST SOURCE=MSDC-IR
##STATE=gas
##XUNITS=1/CM
##YUNITS=ABSORBANCE
##XFACTOR=1.
##YFACTOR=0.001
##DELTAX=1.92934
##FIRSTX=549.9
##LASTX=3999.5
##FIRSTY=4.988
##MAXX=3999.53
##MINX=549.863
##MAXY=0.035408
##MINY=0
##NPOINTS=1789
##XYDATA=(X++(Y..Y))
549.863 4.988 5.098 5.138 5.148 5.138 5.118 5.038 5.088 5.008 4.838
569.156 4.668 4.368 4.218 4.048 3.788 3.588 3.418 3.298 3.088 2.798
588.450 2.638 2.608 2.578 2.588 2.508 2.458 2.398 2.328 2.338 2.278
607.743 2.248 2.118 2.088 2.178 2.108 2.018 2.038 1.988 2.028 2.028
627.037 1.948 1.958 2.008 2.068 2.018 2.038 2.048 2.018 1.998 1.888
646.330 1.798 1.738 1.6369 1.6007 1.6463 1.654 1.6173 1.5646 1.4985 1.5394
665.624 1.6297 1.6241 1.6224 1.5666 1.4936 1.4929 1.5109 1.5967 1.6082 1.5603
684.917 1.5866 1.6285 1.6583 1.6897 1.7054 1.6904 1.758 1.848 1.818 1.838
704.210 1.898 1.858 1.868 1.928 1.978 1.978 1.938 1.848 1.848 1.988
723.504 1.988 1.898 1.908 1.978 2.018 2.038 2.048 2.018 2.058 2.128
742.797 2.108 2.068 2.138 2.198 2.208 2.288 2.368 2.468 2.588 2.808
762.091 3.088 3.328 3.548 3.748 4.008 4.178 4.188 4.218 4.258 4.218
781.384 4.178 4.178 4.218 4.288 4.328 4.468 4.708 4.928 5.168 5.408
800.678 5.648 5.868 6.048 6.208 6.388 6.438 6.378 6.318 6.208 5.998
819.971 5.748 5.568 5.288 5.028 4.768 4.438 4.208 4.008 3.808 3.748
839.264 3.738 3.668 3.578 3.528 3.558 3.568 3.508 3.398 3.318 3.238
858.558 3.148 3.008 2.968 3.008 2.918 2.778 2.708 2.668 2.578 2.468
877.851 2.438 2.408 2.328 2.268 2.138 2.078 2.058 2.008 1.988 1.968
897.145 1.908 1.898 1.878 1.778 1.71 1.699 1.6743 1.6736 1.7254 1.748
916.438 1.7002 1.6548 1.6859 1.758 1.758 1.6957 1.662 1.7176 1.738 1.7171
935.732 1.738 1.728 1.705 1.6688 1.6512 1.6306 1.593 1.5595 1.5513 1.5348
955.025 1.5139 1.514 1.4895 1.504 1.559 1.6206 1.6323 1.5879 1.595 1.6048
974.318 1.6082 1.6514 1.6711 1.6508 1.6517 1.638 1.6763 1.798 1.898 1.898
993.612 1.828 1.828 1.878 1.928 2.018 2.138 2.278 2.438 2.618 2.778
1012.905 2.968 3.208 3.408 3.688 4.048 4.428 4.848 5.328 5.908 6.548
1032.199 7.068 7.598 8.018 8.308 8.498 8.458 8.218 7.808 7.228 6.558
1051.492 5.878 5.178 4.508 4.018 3.638 3.338 3.088 2.878 2.758 2.708
1070.786 2.658 2.568 2.538 2.548 2.528 2.438 2.448 2.468 2.378 2.378
1090.079 2.348 2.298 2.428 2.508 2.488 2.548 2.588 2.568 2.628 2.668
1109.372 2.578 2.508 2.438 2.418 2.328 2.158 2.178 2.188 2.088 2.038
1128.666 1.898 1.768 1.778 1.788 1.7268 1.788 1.898 1.938 1.968 2.028
1147.959 2.168 2.348 2.338 2.418 2.578 2.798 3.198 3.638 4.158 5.018
1167.253 6.228 7.608 8.938 9.708 10.108 10.248 10.198 9.668 8.558 7.158
1186.546 5.838 5.058 4.578 4.218 3.818 3.558 3.498 3.568 3.898 4.008
1205.840 3.938 3.998 4.318 4.738 5.038 5.338 5.638 5.878 6.478 7.398
1225.133 8.188 8.988 10.018 11.538 13.448 15.838 18.608 21.698 25.198 28.598
1244.426 31.668 33.998 34.938 34.668 33.438 31.078 27.708 23.818 20.138 17.078
1263.720 14.728 13.078 11.948 11.188 10.578 10.108 9.778 9.608 9.598 9.748
1283.013 9.978 10.168 10.328 10.598 10.868 10.918 10.878 10.808 10.478 10.078
1302.307 9.748 9.368 9.008 8.798 8.718 8.768 8.908 9.098 9.338 9.578
1321.600 9.748 9.968 10.168 10.238 10.238 10.158 10.008 9.828 9.568 9.258
1340.894 8.918 8.558 8.188 7.858 7.538 7.128 6.738 6.378 6.008 5.648
1360.187 5.328 5.018 4.688 4.358 4.108 3.878 3.598 3.348 3.138 2.978
1379.480 2.828 2.648 2.488 2.438 2.368 2.268 2.208 2.178 2.148 2.098
1398.774 2.058 2.028 2.018 2.008 2.018 2.018 2.038 2.098 2.148 2.268
1418.067 2.418 2.528 2.588 2.668 2.758 2.888 3.038 3.158 3.298 3.488
1437.361 3.668 3.738 3.798 3.858 3.928 3.968 3.968 3.928 3.848 3.828
1456.654 3.888 3.998 4.158 4.348 4.548 4.658 4.598 4.498 4.418 4.248
1475.948 3.978 3.668 3.448 3.378 3.448 3.588 3.908 4.378 4.978 5.788
1495.241 6.918 8.518 10.738 13.538 16.858 20.578 24.218 26.798 28.038 27.878
1514.534 26.598 24.308 20.918 16.958 12.778 9.528 7.268 5.738 4.728 4.108
1533.828 3.708 3.368 3.138 3.038 2.948 2.878 2.828 2.788 2.858 2.938
1553.121 3.148 3.378 3.628 3.978 4.308 4.688 5.148 5.768 6.438 7.118
1572.415 7.868 8.738 9.718 10.588 11.318 11.918 12.248 12.378 12.298 11.998
1591.708 11.548 11.028 10.558 10.188 9.918 9.668 9.548 9.538 9.528 9.428
1611.002 9.188 8.848 8.358 7.698 6.988 6.248 5.498 4.838 4.278 3.828
1630.295 3.478 3.248 3.148 3.068 2.908 2.788 2.698 2.608 2.618 2.588
1649.588 2.568 2.638 2.668 2.588 2.568 2.618 2.708 2.828 2.888 2.968
1668.882 3.138 3.248 3.368 3.568 3.748 4.008 4.308 4.568 4.928 5.308
1688.175 5.618 6.078 6.678 7.278 8.008 8.688 9.518 10.508 11.378 12.368
1707.469 13.488 14.698 15.978 17.438 19.108 21.058 23.368 25.828 28.488 31.168
1726.762 33.358 34.808 35.408 35.178 34.018 32.038 29.378 26.318 23.548 21.188
1746.056 19.288 17.788 16.548 15.368 14.168 13.088 12.028 10.918 9.818 8.738
1765.349 7.738 6.898 6.118 5.388 4.728 4.128 3.698 3.358 3.008 2.678
1784.642 2.468 2.238 2.008 1.908 1.818 1.6919 1.5902 1.5423 1.4691 1.3988
1803.936 1.3128 1.2857 1.281 1.2019 1.1863 1.1678 1.1404 1.1234 1.071 1.0288
1823.229 1.0296 1.0817 1.107 1.0911 1.0623 0.9988 0.9783 1.0112 1.0318 1.038
1842.523 1.0763 1.0974 1.1108 1.0661 1.0348 1.086 1.1071 1.1306 1.1427 1.1297
1861.816 1.1092 1.1246 1.1522 1.1567 1.1765 1.1623 1.1712 1.172 1.1509 1.1873
1881.110 1.1911 1.188 1.1919 1.2038 1.1966 1.1191 1.0745 1.0622 1.0606 1.0707
1900.403 1.02 0.991 0.9673 0.9446 0.9435 0.9073 0.8806 0.8589 0.9216 0.9335
1919.696 0.8911 0.9089 0.9074 0.869 0.8357 0.8455 0.8673 0.9256 0.927 0.8727
1938.990 0.8553 0.899 0.9039 0.8734 0.8711 0.8638 0.8656 0.8413 0.81211 0.80904
1958.283 0.81873 0.82052 0.82494 0.8346 0.80556 0.78636 0.782 0.78778 0.79291 0.78046
1977.577 0.77453 0.7821 0.81044 0.8448 0.81788 0.78271 0.79821 0.78783 0.79272 0.82283
1996.870 0.81428 0.83 0.8771 0.8596 0.8422 0.8864 0.9437 1.0006 1.0247 0.9995
2016.164 0.9977 1.029 1.0261 1.0304 1.0143 0.9887 0.9722 0.9384 0.9729 0.972
2035.457 0.9246 0.9338 0.9264 0.9199 0.9303 0.9307 0.9563 0.9367 0.9283 0.9893
2054.750 1.0128 1.0179 1.0234 1.0212 1.0213 1.017 0.9957 0.9892 0.9869 0.9691
2074.044 0.9549 0.9678 0.9749 0.9256 0.9066 0.9041 0.899 0.889 0.8511 0.81552
2093.337 0.78581 0.79176 0.80643 0.78355 0.72476 0.6981 0.6972 0.6637 0.6763 0.6676
2112.631 0.6528 0.6698 0.6861 0.7141 0.6937 0.6984 0.7161 0.6491 0.624 0.6459
2131.924 0.613 0.609 0.6366 0.622 0.583 0.59 0.618 0.6394 0.612 0.559
2151.218 0.601 0.6593 0.606 0.596 0.6294 0.594 0.582 0.585 0.614 0.614
2170.511 0.551 0.572 0.616 0.586 0.573 0.581 0.577 0.53 0.494 0.522
2189.804 0.587 0.586 0.541 0.532 0.526 0.541 0.556 0.549 0.537 0.544
2209.098 0.588 0.58 0.546 0.573 0.585 0.58 0.571 0.583 0.58 0.59
2228.391 0.581 0.566 0.593 0.597 0.6 0.581 0.57 0.586 0.586 0.562
2247.685 0.572 0.568 0.591 0.628 0.599 0.567 0.622 0.6635 0.6736 0.6625
2266.978 0.613 0.594 0.618 0.6406 0.6514 0.684 0.7166 0.77041 0.74876 0.695
2286.272 0.6993 0.6868 0.6844 0.7128 0.6841 0.6478 0.6835 0.7001 0.6716 0.62
2305.565 0.602 0.6459 0.6389 0.627 0.6323 0.587 0.579 0.607 0.619 0.618
2324.858 0.601 0.588 0.584 0.602 0.621 0.618 0.638 0.613 0.571 0.589
2344.152 0.624 0.615 0.591 0.612 0.621 0.603 0.578 0.597 0.6441 0.6294
2363.445 0.616 0.606 0.603 0.587 0.557 0.589 0.59 0.57 0.578 0.591
2382.739 0.567 0.498 0.487 0.502 0.523 0.546 0.504 0.475 0.475 0.491
2402.032 0.513 0.525 0.516 0.524 0.553 0.529 0.518 0.534 0.529 0.492
2421.326 0.517 0.57 0.579 0.529 0.507 0.535 0.503 0.503 0.496 0.468
2440.619 0.491 0.534 0.544 0.523 0.499 0.491 0.516 0.521 0.507 0.507
2459.912 0.491 0.473 0.487 0.526 0.564 0.571 0.561 0.558 0.511 0.487
2479.206 0.519 0.575 0.592 0.578 0.566 0.551 0.588 0.587 0.562 0.557
2498.499 0.536 0.555 0.544 0.457 0.47 0.531 0.501 0.508 0.526 0.566
2517.793 0.619 0.58 0.568 0.533 0.496 0.556 0.604 0.59 0.621 0.627
2537.086 0.617 0.6386 0.602 0.606 0.615 0.581 0.573 0.562 0.584 0.6298
2556.380 0.608 0.545 0.478 0.461 0.459 0.456 0.429 0.447 0.488 0.437
2575.673 0.393 0.453 0.456 0.374 0.409 0.459 0.432 0.435 0.487 0.515
2594.966 0.497 0.427 0.381 0.434 0.463 0.419 0.42 0.427 0.438 0.442
2614.260 0.399 0.361 0.336 0.352 0.393 0.399 0.384 0.4 0.44 0.414
2633.553 0.356 0.313 0.295 0.349 0.345 0.34 0.373 0.363 0.323 0.277
2652.847 0.31 0.416 0.416 0.369 0.337 0.304 0.306 0.296 0.291 0.3
2672.140 0.291 0.29 0.32 0.333 0.361 0.371 0.316 0.35 0.35 0.293
2691.434 0.345 0.322 0.321 0.329 0.33 0.375 0.331 0.287 0.278 0.272
2710.727 0.287 0.31 0.359 0.402 0.386 0.341 0.318 0.355 0.406 0.381
2730.020 0.292 0.226 0.263 0.33 0.346 0.344 0.336 0.36 0.369 0.339
2749.314 0.323 0.327 0.379 0.388 0.32 0.292 0.329 0.4 0.374 0.389
2768.607 0.38 0.308 0.352 0.436 0.433 0.359 0.389 0.439 0.445 0.511
2787.901 0.475 0.436 0.544 0.594 0.601 0.6416 0.6784 0.7159 0.76633 0.7176
2807.194 0.76566 0.8289 0.8509 0.8588 0.8662 0.9968 1.1293 1.1805 1.2567 1.3556
2826.488 1.3817 1.569 1.848 1.998 2.198 2.518 2.858 3.248 3.458 3.558
2845.781 3.638 3.548 3.438 3.198 2.758 2.388 2.218 1.988 1.768 1.6843
2865.074 1.6315 1.5545 1.5193 1.5325 1.47 1.3615 1.357 1.3676 1.382 1.4518
2884.368 1.5161 1.5773 1.6341 1.7216 1.818 1.868 1.958 2.228 2.428 2.578
2903.661 2.778 3.018 3.168 3.328 3.578 3.928 4.178 4.248 4.308 4.418
2922.955 4.458 4.488 4.638 4.758 4.948 5.108 5.238 5.468 5.618 5.658
2942.248 5.798 5.868 5.728 5.648 5.648 5.508 5.278 5.118 4.938 4.688
2961.542 4.548 4.288 3.938 3.698 3.398 3.168 2.998 2.858 2.738 2.608
2980.835 2.608 2.578 2.548 2.578 2.648 2.758 2.888 3.128 3.408 3.748
3000.128 4.068 4.278 4.608 5.008 5.108 4.958 4.788 4.548 4.178 3.778
3019.422 3.288 3.018 2.978 2.888 2.898 3.008 3.088 3.178 3.158 3.068
3038.715 2.988 2.888 2.738 2.448 2.208 2.048 1.868 1.6657 1.5734 1.5675
3058.009 1.5739 1.4577 1.3931 1.4432 1.4562 1.491 1.5897 1.5446 1.5104 1.6977
3077.302 1.6596 1.5958 1.5572 1.3856 1.2266 1.1951 1.1748 1.0428 1.0531 1.0393
3096.596 0.9884 1.081 1.0408 0.9369 1.0277 1.0244 0.8931 0.9678 0.9509 0.8163
3115.889 0.80835 0.81818 0.7139 0.7056 0.78465 0.80319 0.6749 0.532 0.485 0.424
3135.182 0.414 0.342 0.32 0.364 0.404 0.35 0.305 0.276 0.386 0.411
3154.476 0.33 0.322 0.417 0.474 0.27 0.303 0.369 0.195 0.219 0.255
3173.769 0.086 0.117 0.183 0.161 0.238 0.268 0.287 0.119 0.076 0.139
3193.063 0.156 0.201 0.182 0.31 0.278 0.173 0.232 0.308 0.309 0.389
3212.356 0.344 0.195 0.15 0.188 0.147 0.146 0.265 0.287 0.187 0.209
3231.650 0.3 0.309 0.32 0.258 0.21 0.274 0.313 0.254 0.2 0.104
3250.943 0.022 0.163 0.206 0.158 0.252 0.36 0.348 0.183 0.038 0.129
3270.236 0.271 0.225 0.297 0.151 0 0.142 0.145 0.074 0.138 0.252
3289.530 0.261 0.298 0.407 0.493 0.424 0.382 0.324 0.21 0.258 0.299
3308.823 0.266 0.217 0.394 0.426 0.208 0.183 0.209 0.218 0.295 0.419
3328.117 0.478 0.308 0.177 0.196 0.295 0.366 0.373 0.326 0.269 0.369
3347.410 0.371 0.398 0.479 0.378 0.376 0.518 0.469 0.483 0.556 0.321
3366.704 0.303 0.486 0.526 0.545 0.458 0.38 0.317 0.45 0.6754 0.80186
3385.997 0.76382 0.78541 0.9895 1.1426 1.039 1.0209 1.2563 1.4136 1.4705 1.5293
3405.290 1.5888 1.6229 1.758 1.888 2.058 2.168 2.228 2.338 2.538 2.688
3424.584 2.628 2.538 2.678 2.848 2.788 2.648 2.458 2.278 2.258 2.208
3443.877 2.158 2.048 1.918 1.838 1.5673 1.4111 1.4343 1.2942 1.1234 1.0455
3463.171 1.0048 0.9793 1.0987 1.0607 0.8831 1.023 1.1736 1.0932 1.0282 0.9906
3482.464 1.0036 0.9398 0.78392 0.9294 1.085 1.1029 1.2551 1.3598 1.2975 1.2926
3501.758 1.419 1.5183 1.6361 1.808 1.838 2.018 2.108 2.028 2.188 2.458
3521.051 2.628 2.698 2.808 2.828 2.828 2.948 3.158 3.328 3.428 3.528
3540.344 3.658 3.908 4.208 4.418 4.508 4.448 4.328 4.098 3.688 3.238
3559.638 2.788 2.328 2.038 1.908 1.6896 1.4784 1.4277 1.2455 1.0198 0.9284
3578.931 0.9245 1.1453 1.003 0.75009 0.76446 0.6986 0.574 0.612 0.626 0.497
3598.225 0.529 0.603 0.595 0.7214 0.72211 0.6312 0.7003 0.6473 0.6406 0.623
3617.518 0.537 0.603 0.584 0.488 0.497 0.628 0.612 0.559 0.608 0.552
3636.812 0.553 0.529 0.396 0.366 0.41 0.425 0.586 0.6692 0.552 0.601
3656.105 0.561 0.457 0.541 0.625 0.6414 0.575 0.513 0.544 0.571 0.541
3675.398 0.521 0.581 0.571 0.507 0.568 0.6834 0.67 0.612 0.604 0.611
3694.692 0.562 0.375 0.424 0.547 0.492 0.45 0.464 0.616 0.6846 0.593
3713.985 0.6625 0.7148 0.6519 0.565 0.509 0.575 0.6556 0.514 0.418 0.548
3733.279 0.6347 0.6661 0.626 0.601 0.58 0.524 0.517 0.6544 0.74927 0.6655
3752.572 0.589 0.542 0.45 0.368 0.392 0.513 0.565 0.471 0.432 0.474
3771.866 0.459 0.51 0.559 0.586 0.568 0.6365 0.61 0.418 0.39 0.459
3791.159 0.51 0.534 0.565 0.591 0.582 0.576 0.559 0.576 0.597 0.444
3810.452 0.431 0.527 0.498 0.434 0.344 0.346 0.464 0.549 0.515 0.484
3829.746 0.491 0.504 0.556 0.54 0.518 0.469 0.501 0.595 0.584 0.62
3849.039 0.621 0.6624 0.7179 0.586 0.511 0.484 0.445 0.422 0.446 0.479
3868.333 0.558 0.542 0.497 0.493 0.554 0.602 0.467 0.421 0.466 0.454
3887.626 0.427 0.455 0.47 0.481 0.455 0.444 0.509 0.563 0.617 0.6507
3906.920 0.544 0.458 0.492 0.512 0.476 0.429 0.5 0.598 0.482 0.408
3926.213 0.506 0.446 0.456 0.577 0.535 0.493 0.474 0.469 0.444 0.458
3945.506 0.485 0.5 0.496 0.52 0.524 0.431 0.438 0.471 0.507 0.51
3964.800 0.507 0.47 0.477 0.505 0.467 0.466 0.478 0.55 0.578 0.522
3984.093 0.517 0.466 0.494 0.512 0.465 0.473 0.531 0.6288 0.62
##END=
