##TITLE=Methyl-3-amino-4-hydroxybenzoate
##JCAMP-DX=4.24
##DATA TYPE=INFRARED SPECTRUM
##ORIGIN=EPA-IR VAPOR PHASE LIBRARY
##OWNER=SRD/NIST
Collection (C) 2018 copyright by the U.S. Secretary of Commerce
on behalf of the United States of America. All rights reserved.
##CAS REGISTRY NO=63435-16-5
##MOLFORM=C 8 H 9 N O 3
##$NIST SOURCE=MSDC-IR
##STATE=gas
##XUNITS=1/CM
##YUNITS=ABSORBANCE
##XFACTOR=1.
##YFACTOR=0.001
##DELTAX=1.92898
##FIRSTX=549.8
##LASTX=4000.7
##FIRSTY=3.5106
##MAXX=4000.7
##MINX=549.759
##MAXY=0.0708806
##MINY=0
##NPOINTS=1790
##XYDATA=(X++(Y..Y))
549.759 3.5106 3.4306 3.4106 3.6506 3.6806 3.7706 3.9906 4.0006 4.2106 4.4706
569.049 4.4506 4.4506 4.5306 4.5906 4.5506 4.3606 4.2006 3.9906 3.7806 3.7906
588.339 3.6806 3.4406 3.4206 3.3906 3.4106 3.3706 3.3306 3.3706 3.2806 3.1506
607.628 3.2306 3.4006 3.4106 3.4006 3.4306 3.4706 3.4906 3.6106 3.8606 4.1806
626.918 4.5006 4.7806 5.2306 5.8306 6.2006 6.3906 6.4506 6.4206 6.4206 6.3406
646.208 6.0306 5.6506 5.2806 5.0906 5.0106 4.9306 4.9206 4.8106 4.7706 4.7206
665.498 4.6106 4.5806 4.5506 4.5006 4.4406 4.4206 4.4606 4.4406 4.2706 4.1306
684.787 4.1606 4.2406 4.2906 4.1906 4.2506 4.2706 4.2506 4.3006 4.3506 4.4306
704.077 4.4706 4.7006 4.9106 5.0306 5.1906 5.3306 5.4406 5.4606 5.5506 5.5906
723.367 5.5806 5.6106 5.6106 5.7006 5.7406 5.7306 5.8506 6.0406 6.2306 6.4706
742.657 6.8506 7.4006 7.9906 8.7906 9.8106 10.7806 11.7206 12.7606 14.1906 15.9706
761.947 17.2606 17.6906 17.7806 17.6606 17.1706 16.3506 15.2606 13.9006 12.3406 10.6806
781.236 9.0506 7.5806 6.4306 5.7106 5.2506 5.0706 4.9206 4.8006 4.7706 4.8306
800.526 4.8606 4.7906 4.7806 4.6906 4.5906 4.4706 4.2306 4.1506 4.0206 3.8706
819.816 3.7906 3.7706 3.7806 3.7206 3.7406 3.6806 3.5806 3.4806 3.3206 3.1506
839.106 3.0806 3.0006 2.8606 2.8106 2.7706 2.7406 2.6606 2.5506 2.5106 2.4506
858.395 2.4206 2.3506 2.2606 2.3806 2.4706 2.4806 2.6506 2.9806 3.2306 3.4206
877.685 3.6506 3.9206 4.2106 4.4706 4.7406 4.9606 5.1106 5.3106 5.4106 5.4506
896.975 5.4906 5.4806 5.3506 5.1806 5.1206 4.9706 4.6706 4.3406 3.9506 3.6406
916.265 3.3606 2.9606 2.7006 2.6006 2.4306 2.2006 2.0106 1.9206 1.8906 1.8506
935.555 1.8006 1.7206 1.6606 1.7306 1.7506 1.6606 1.6706 1.7206 1.7006 1.6306
954.844 1.6406 1.6706 1.7306 1.8406 1.8606 1.9806 2.0806 2.1606 2.3606 2.4306
974.134 2.6306 3.0606 3.3906 3.6806 3.9806 4.3906 4.8706 5.3506 5.7606 6.1406
993.424 6.5306 6.6506 6.3606 6.0606 5.6406 5.0806 4.5506 3.7906 3.0606 2.7406
1012.714 2.5106 2.2206 2.1506 2.1306 2.2106 2.3506 2.2906 2.2006 2.1406 2.0506
1032.003 2.0306 2.0706 2.0706 2.1106 2.3206 2.4606 2.5306 2.5906 2.6306 2.7106
1051.293 2.8506 3.1306 3.3606 3.5806 3.8106 3.9906 4.3406 4.5706 4.8306 5.2206
1070.583 5.6206 6.2306 6.8006 7.5106 8.3106 9.2306 10.6006 11.9306 13.4106 15.1806
1089.873 16.8506 18.8606 20.6506 21.8506 22.7206 23.3106 23.6006 23.4606 23.0706 22.4206
1109.163 21.4606 20.3106 19.3606 18.7006 18.4606 18.5706 19.1706 20.3406 22.4406 24.9906
1128.452 26.9606 28.6406 29.8106 29.7406 28.9506 27.4506 24.8306 21.7706 18.7406 16.0106
1147.742 14.3106 13.6606 13.8206 14.6406 15.8106 17.2006 18.6906 19.9506 20.5806 20.7606
1167.032 20.4706 19.7906 18.9406 17.7306 16.2706 15.0906 14.4206 14.1906 14.1606 14.4006
1186.322 15.0606 15.7906 16.7906 18.1606 19.6206 21.3806 23.3906 25.7006 28.5406 31.5606
1205.611 34.8506 38.4906 42.1306 45.7306 49.3806 52.7806 55.9206 58.7406 60.7106 61.9106
1224.901 61.8206 60.0206 57.0206 53.2206 48.4306 43.0006 37.3806 31.6606 26.6106 22.6506
1244.191 19.7206 17.6106 16.2006 15.2606 14.6206 14.5206 14.6706 14.7706 15.0506 15.3806
1263.481 15.6106 16.0406 16.4206 16.6806 17.1806 17.8506 18.7206 20.2206 22.5706 25.8906
1282.771 30.2906 35.5706 41.6406 48.2506 54.9006 60.9506 65.8006 69.1106 70.7906 70.8806
1302.060 69.2006 65.6106 60.3906 54.4306 48.5706 42.8006 36.9306 31.1806 25.9506 21.6806
1321.350 18.5906 16.4706 15.0806 14.2006 13.6306 13.3306 13.1506 13.0006 12.8306 12.5506
1340.640 12.0606 11.3206 10.4506 9.5506 8.5906 7.5806 6.6206 5.7806 5.1506 4.6706
1359.930 4.3106 4.1006 3.9006 3.7406 3.5806 3.4306 3.3206 3.1906 3.0506 2.9606
1379.219 2.9006 2.8006 2.7506 2.7706 2.7906 2.7906 2.8306 2.8806 2.9306 3.0106
1398.509 3.0706 3.1306 3.2206 3.3406 3.4406 3.5406 3.6506 3.7306 3.8706 4.0606
1417.799 4.3106 4.6606 5.1106 5.7506 6.6206 7.7806 9.4006 11.3706 13.5706 15.7206
1437.089 17.7606 19.4006 20.5006 20.9006 20.4406 19.2106 17.3506 15.2306 13.0806 11.1506
1456.378 9.4806 8.0006 6.8406 5.9506 5.2906 4.8106 4.5106 4.3506 4.2706 4.1506
1475.668 4.1006 4.0906 4.1106 4.1906 4.3406 4.5806 4.9106 5.3706 5.9406 6.7006
1494.958 7.6906 8.8906 10.3206 12.0006 13.7706 15.5406 17.2906 18.7406 19.7506 20.3006
1514.248 20.2306 19.4506 18.0306 16.2206 14.1106 12.0506 10.0306 8.1606 6.6006 5.3806
1533.538 4.4906 3.8406 3.4106 3.1306 2.9206 2.8006 2.7506 2.7006 2.6906 2.7106
1552.827 2.7706 2.8506 2.9106 2.9906 3.1506 3.3406 3.5606 3.7906 4.0706 4.4306
1572.117 4.8906 5.3806 5.9606 6.7206 7.5206 8.3506 9.2906 10.3206 11.3106 12.2406
1591.407 13.0706 13.7406 14.2906 14.7106 14.9106 14.9306 14.8706 14.7106 14.4906 14.3306
1610.697 14.2406 14.2806 14.4106 14.6006 14.8206 15.0406 15.2306 15.3106 15.1806 14.8206
1629.986 14.2406 13.4606 12.5106 11.3706 10.2206 9.1006 7.9906 7.0106 6.2306 5.5806
1649.276 5.0006 4.5606 4.1006 3.7106 3.4406 3.2006 3.0206 2.8706 2.7106 2.6006
1668.566 2.5506 2.4906 2.4506 2.4506 2.5306 2.6506 2.7606 2.8906 3.0806 3.2806
1687.856 3.4906 3.7306 3.9206 4.0706 4.2006 4.2706 4.3206 4.4506 4.5606 4.6406
1707.146 4.7706 4.9806 5.3806 6.0006 6.8706 8.0606 9.6506 11.6706 14.4006 17.8906
1726.435 22.3806 27.9706 34.6806 41.8606 48.8606 54.3106 57.4106 58.9406 59.4206 58.5106
1745.725 55.1106 48.7106 40.1506 31.1406 23.4406 17.6506 13.3006 10.1606 7.9106 6.3206
1765.015 5.2706 4.6006 4.1806 3.9106 3.7506 3.6406 3.6106 3.6506 3.6406 3.6706
1784.305 3.7006 3.6806 3.6306 3.5006 3.2806 2.9906 2.7006 2.4506 2.2306 2.0106
1803.594 1.7806 1.5906 1.4506 1.3106 1.2206 1.1406 1.1006 1.0706 1.0116 0.9971
1822.884 0.9813 0.9747 1.0049 0.9927 0.9629 0.9603 0.9567 0.9503 0.9451 0.9287
1842.174 0.902 0.9003 0.9371 0.9589 0.9339 0.9062 0.9073 0.9068 0.9213 0.9496
1861.464 0.9257 0.9443 0.9673 0.9894 1.0296 1.0482 1.0706 1.0321 0.9953 0.9979
1880.754 0.9817 0.9676 0.9495 0.9439 0.9581 0.9601 0.9839 1.0077 0.9926 0.9703
1900.043 0.9591 0.9511 0.954 0.9175 0.8957 0.8865 0.8106 0.7608 0.7301 0.7084
1919.333 0.6606 0.6037 0.5637 0.5531 0.5887 0.595 0.5883 0.5982 0.6009 0.5726
1938.623 0.5476 0.513 0.4968 0.5203 0.5131 0.5103 0.5244 0.5041 0.4821 0.5009
1957.913 0.5156 0.5029 0.4935 0.5078 0.5393 0.5718 0.5782 0.5687 0.5824 0.599
1977.202 0.5867 0.5757 0.5981 0.6045 0.5763 0.5627 0.5801 0.5865 0.5857 0.593
1996.492 0.603 0.5901 0.5585 0.5735 0.5951 0.5697 0.5731 0.5944 0.5888 0.5866
2015.782 0.6146 0.6699 0.6887 0.6498 0.6324 0.6498 0.7041 0.7504 0.7423 0.7399
2035.072 0.7438 0.7328 0.7129 0.7119 0.7034 0.7001 0.7237 0.7519 0.7391 0.7391
2054.362 0.7933 0.8042 0.8104 0.8695 0.9085 0.8853 0.8887 0.9059 0.886 0.8651
2073.651 0.8587 0.8317 0.7844 0.7493 0.7724 0.777 0.698 0.6563 0.6652 0.6284
2092.941 0.5522 0.5367 0.5425 0.5419 0.5137 0.5013 0.5369 0.5489 0.5687 0.568
2112.231 0.5565 0.5264 0.5108 0.5535 0.5388 0.5035 0.5066 0.5116 0.5104 0.5352
2131.521 0.5363 0.5169 0.5073 0.514 0.5245 0.5104 0.4884 0.4288 0.4287 0.4916
2150.810 0.4428 0.4136 0.463 0.4447 0.4285 0.3861 0.3824 0.421 0.3974 0.368
2170.100 0.3423 0.3365 0.3124 0.2902 0.3138 0.3152 0.3146 0.3203 0.3038 0.333
2189.390 0.3446 0.3299 0.2989 0.2669 0.2986 0.3214 0.3325 0.3417 0.3373 0.334
2208.680 0.3345 0.3068 0.3069 0.3178 0.2999 0.3042 0.2679 0.2749 0.3047 0.3098
2227.970 0.3157 0.3008 0.3286 0.3457 0.3567 0.347 0.3363 0.316 0.2904 0.3256
2247.259 0.3296 0.2759 0.2823 0.3049 0.2962 0.2866 0.2703 0.3254 0.362 0.3113
2266.549 0.2923 0.3046 0.3076 0.3119 0.3309 0.3386 0.3106 0.3172 0.3564 0.3661
2285.839 0.378 0.3566 0.3411 0.405 0.4028 0.3533 0.3329 0.3186 0.3337 0.3379
2305.129 0.3105 0.2764 0.2826 0.3244 0.3201 0.3269 0.3731 0.394 0.3653 0.3561
2324.418 0.3692 0.3336 0.3323 0.3276 0.3087 0.3132 0.3127 0.3415 0.3519 0.3532
2343.708 0.3691 0.3728 0.3897 0.4174 0.4429 0.4501 0.4497 0.4578 0.4378 0.4386
2362.998 0.4455 0.4256 0.4169 0.4014 0.413 0.4305 0.4018 0.4114 0.4383 0.4308
2382.288 0.3895 0.3866 0.4056 0.4157 0.4252 0.4291 0.4316 0.4286 0.4049 0.3647
2401.578 0.3472 0.3514 0.3514 0.3533 0.3741 0.3992 0.3776 0.3651 0.3769 0.3728
2420.867 0.365 0.376 0.4262 0.418 0.3898 0.424 0.4138 0.3834 0.3469 0.2893
2440.157 0.2789 0.2605 0.2723 0.316 0.3081 0.2911 0.292 0.3307 0.3238 0.3176
2459.447 0.386 0.3476 0.3081 0.3852 0.4214 0.3538 0.3226 0.368 0.4031 0.4381
2478.737 0.4382 0.3993 0.3924 0.3668 0.3739 0.4127 0.4392 0.5037 0.486 0.4461
2498.026 0.4736 0.4896 0.496 0.4712 0.4566 0.4816 0.4491 0.4435 0.482 0.5026
2517.316 0.5084 0.5376 0.5591 0.5449 0.5709 0.5915 0.6107 0.5276 0.4263 0.3969
2536.606 0.4207 0.4409 0.393 0.3844 0.3982 0.3993 0.3651 0.3369 0.3337 0.3086
2555.896 0.3234 0.3719 0.3807 0.3779 0.3741 0.3701 0.3874 0.4079 0.3473 0.3265
2575.186 0.3886 0.3615 0.3317 0.335 0.3405 0.3673 0.3755 0.3607 0.3864 0.3693
2594.475 0.2849 0.2922 0.3445 0.3772 0.3887 0.4124 0.4124 0.4126 0.4147 0.3469
2613.765 0.3209 0.348 0.3061 0.2418 0.3036 0.3282 0.3137 0.3428 0.3391 0.3793
2633.055 0.4072 0.362 0.4015 0.5014 0.5418 0.5815 0.5591 0.5166 0.5249 0.4762
2652.345 0.4767 0.5333 0.4917 0.4651 0.4983 0.504 0.5521 0.5608 0.4902 0.4511
2671.634 0.4065 0.3649 0.4109 0.4388 0.3647 0.3768 0.4432 0.4076 0.3387 0.3041
2690.924 0.3108 0.3522 0.3975 0.3514 0.325 0.3403 0.3317 0.3057 0.2524 0.2504
2710.214 0.2856 0.2883 0.2615 0.2589 0.2328 0.2219 0.2525 0.2946 0.3335 0.3318
2729.504 0.3369 0.3023 0.2434 0.2076 0.2321 0.2932 0.2784 0.2653 0.2753 0.2452
2748.794 0.2155 0.2622 0.2921 0.2201 0.215 0.241 0.2587 0.2883 0.2598 0.2774
2768.083 0.3317 0.3033 0.2563 0.2508 0.2785 0.2892 0.1967 0.164 0.2504 0.248
2787.373 0.1849 0.1962 0.2018 0.2087 0.2638 0.2611 0.2888 0.3253 0.2833 0.2764
2806.663 0.3095 0.2887 0.3319 0.4018 0.426 0.4481 0.4374 0.462 0.5528 0.5506
2825.953 0.5239 0.6612 0.7216 0.727 0.7861 0.9291 1.1206 1.2706 1.4506 1.7006
2845.242 1.8906 1.9406 1.9706 1.9506 1.8106 1.6406 1.4506 1.2306 1.0493 0.9105
2864.532 0.82 0.8326 0.8288 0.788 0.7711 0.7666 0.7738 0.7885 0.8945 0.9553
2883.822 0.9709 1.001 1.0706 1.1906 1.2406 1.2606 1.3706 1.4906 1.5806 1.7106
2903.112 1.7906 1.8106 1.8906 2.0606 2.1306 2.1206 2.1206 2.1506 2.1706 2.2106
2922.401 2.1706 2.0706 2.0706 2.0006 1.9706 2.0106 2.0206 2.1606 2.3506 2.5906
2941.691 2.8006 3.1706 3.7806 4.5006 5.4206 6.6006 7.9106 9.0906 9.8706 10.1506
2960.981 10.1806 9.9306 9.2606 8.1806 6.7806 5.3506 4.2006 3.3806 2.8406 2.5806
2980.271 2.4006 2.3206 2.3306 2.3306 2.3906 2.5006 2.6206 2.6906 2.7406 2.8606
2999.561 3.0706 3.1006 3.0906 3.1306 3.1306 3.1406 3.0906 3.0606 3.0806 3.0906
3018.850 3.0806 3.1006 3.0806 2.9806 2.8806 2.8906 2.8906 2.8906 2.7906 2.6906
3038.140 2.6806 2.6006 2.4906 2.4806 2.4806 2.3506 2.3306 2.3506 2.3506 2.3506
3057.430 2.3106 2.3306 2.2506 2.1606 2.0206 1.8106 1.7406 1.6506 1.5706 1.5606
3076.720 1.6306 1.5806 1.4806 1.5106 1.5006 1.3806 1.2906 1.3006 1.2706 1.2106
3096.009 1.1606 1.0706 0.9573 0.7996 0.7575 0.8291 0.8031 0.7797 0.718 0.5362
3115.299 0.5074 0.619 0.6015 0.5528 0.5033 0.5083 0.5793 0.5184 0.465 0.438
3134.589 0.391 0.346 0.3345 0.4321 0.4999 0.4892 0.3632 0.2682 0.3045 0.3844
3153.879 0.41 0.4046 0.3654 0.3518 0.395 0.3806 0.3589 0.3888 0.3787 0.3739
3173.169 0.3097 0.2425 0.3082 0.3806 0.4302 0.3933 0.4385 0.4676 0.3792 0.3736
3192.458 0.4202 0.3942 0.388 0.4373 0.4101 0.4874 0.573 0.537 0.4953 0.4669
3211.748 0.4744 0.4021 0.4019 0.3753 0.2902 0.2531 0.2244 0.2895 0.3651 0.3607
3231.038 0.3661 0.4531 0.3509 0.2595 0.2959 0.1937 0.14507 0.2051 0.2163 0.1799
3250.328 0.2388 0.2811 0.2891 0.2815 0.2771 0.3114 0.2591 0.1742 0.07976 0.08369
3269.617 0.1617 0.1823 0.15231 0.09884 0.13685 0.2559 0.2386 0.2386 0.2268 0.11268
3288.907 0.1428 0.1779 0.217 0.2373 0.1901 0.2228 0.2981 0.3496 0.323 0.3217
3308.197 0.3624 0.2588 0.1783 0.3096 0.4195 0.3676 0.4025 0.5434 0.5699 0.6035
3327.487 0.6977 0.7365 0.6309 0.5712 0.6351 0.6819 0.731 0.7363 0.7254 0.8346
3346.777 0.8817 0.8113 0.96 1.0368 0.9283 0.951 1.053 1.1106 1.026 0.9992
3366.066 1.0706 1.044 0.96 1.1106 1.3206 1.2906 1.2106 1.1406 1.0517 1.1206
3385.356 1.2806 1.2806 1.2506 1.2606 1.3906 1.5506 1.6306 1.8006 1.8906 2.0606
3404.646 2.3206 2.4906 2.5706 2.7506 2.8806 2.8306 2.9006 2.9706 2.8806 2.7506
3423.936 2.5606 2.3306 2.1806 1.9906 1.8006 1.6206 1.5206 1.4806 1.4906 1.4706
3443.225 1.3706 1.4506 1.6106 1.7206 1.7606 1.7606 1.8906 1.9906 2.0606 2.1506
3462.515 2.2206 2.2506 2.3106 2.3606 2.3406 2.4006 2.5806 2.6306 2.6606 2.7906
3481.805 2.9406 3.0406 3.1606 3.3306 3.5706 3.8006 3.9106 4.0406 4.2106 4.3706
3501.095 4.4806 4.4906 4.5106 4.4606 4.3806 4.3406 4.1706 4.0406 3.8206 3.6306
3520.385 3.5906 3.4206 3.1006 2.9006 2.8306 2.7406 2.7206 2.5906 2.4006 2.2706
3539.674 2.1406 2.1406 2.1306 1.8906 1.6806 1.7306 1.7306 1.6306 1.5806 1.4206
3558.964 1.3306 1.3806 1.3706 1.4006 1.4106 1.3706 1.3106 1.2906 1.2806 1.1806
3578.254 1.1306 1.1206 1.1606 1.2206 1.2406 1.1106 1.0806 1.1206 1.0091 1.0063
3597.544 1.0231 1.0199 1.0284 0.9356 0.837 0.8824 0.8955 0.805 0.8253 0.8408
3616.833 0.8297 0.7946 0.9296 1.0021 0.9498 1.0283 1.1006 1.2306 1.3506 1.5306
3636.123 1.7506 2.0606 2.5606 3.1806 4.0606 5.2906 6.7206 8.2706 9.5206 10.0906
3655.413 10.0006 9.5906 9.3306 8.7106 7.3506 5.4906 3.8006 2.6106 1.9206 1.5806
3674.703 1.1806 0.8773 0.76 0.6854 0.5486 0.4049 0.3859 0.4598 0.502 0.4545
3693.993 0.4411 0.4387 0.3958 0.398 0.3571 0.3409 0.3561 0.3419 0.2892 0.3062
3713.282 0.3671 0.2777 0.2564 0.2524 0.1917 0.221 0.3208 0.4054 0.3793 0.3321
3732.572 0.3502 0.3671 0.4085 0.3548 0.2452 0.2596 0.4002 0.4507 0.2876 0.3247
3751.862 0.3886 0.2364 0.2518 0.2817 0.1816 0.15149 0.2093 0.10947 0 0.05565
3771.152 0.2308 0.3586 0.1872 0.1622 0.2543 0.3201 0.448 0.378 0.2797 0.2886
3790.441 0.2846 0.1886 0.2344 0.2366 0.15385 0.2337 0.2029 0.14056 0.2252 0.296
3809.731 0.3239 0.4387 0.463 0.3047 0.0833 0.024 0.1981 0.2805 0.2507 0.2561
3829.021 0.2913 0.3084 0.2131 0.15454 0.302 0.4284 0.3094 0.2843 0.3063 0.3263
3848.311 0.2992 0.2177 0.2505 0.3141 0.4773 0.6034 0.4712 0.3134 0.3538 0.3877
3867.601 0.3408 0.2974 0.1988 0.09405 0.2594 0.3138 0.2454 0.2902 0.3766 0.4056
3886.890 0.3988 0.4941 0.4109 0.2757 0.3506 0.2594 0.08542 0.3091 0.4094 0.2701
3906.180 0.2941 0.3502 0.3647 0.3386 0.2866 0.2461 0.1521 0.13645 0.13212 0.09531
3925.470 0.09143 0.1727 0.3044 0.2957 0.2497 0.328 0.3245 0.2278 0.3387 0.3951
3944.760 0.3212 0.3371 0.2571 0.2881 0.3069 0.318 0.3629 0.3414 0.3711 0.2302
3964.049 0.1679 0.3466 0.4673 0.3044 0.2465 0.1928 0.2389 0.4625 0.3867 0.3178
3983.339 0.3114 0.2507 0.2202 0.13658 0.1841 0.2121 0.1766 0.1831 0.14361 0.12703
##END=
