##TITLE=4-Aminobutyraldehyde diethyl acetal
##JCAMP-DX=4.24
##DATA TYPE=INFRARED SPECTRUM
##ORIGIN=NIST Mass Spectrometry Data Center
##OWNER=NIST Standard Reference Data Program
Collection (C) 2018 copyright by the U.S. Secretary of Commerce
on behalf of the United States of America. All rights reserved.
##CAS REGISTRY NO=6346-09-4
##MOLFORM=C 8 H 19 N O 2
##$NIST SOURCE=MSDC-IR
##SPECTROMETER/DATA SYSTEM=HP-GC/MS/IRD
##STATE=gas
##XUNITS=1/CM
##YUNITS=ABSORBANCE
##XFACTOR=1.0
##YFACTOR=0.000002400
##DELTAX=4.0
##FIRSTX=550.0
##LASTX=3846.0
##FIRSTY=0.000187
##MAXX=3846
##MINX=550
##MAXY=0.024
##MINY=0
##NPOINTS=825
##XYDATA=(X++(Y..Y))
550.0 78 139 112 114 113 72 34 46 33 0
590.0 22 53 56 49 53 68 84 88 103 119
630.0 117 108 98 146 197 210 206 204 225 245
670.0 263 262 289 309 321 343 356 396 439 485
710.0 543 594 649 730 840 937 1054 1194 1320 1434
750.0 1522 1585 1659 1737 1821 1885 1899 1875 1772 1604
790.0 1438 1285 1130 1012 913 840 780 721 677 669
830.0 644 619 615 608 614 619 635 645 627 606
870.0 601 599 580 560 576 616 633 633 636 645
910.0 648 668 695 703 728 775 831 902 1008 1138
950.0 1295 1461 1622 1810 2009 2173 2318 2444 2566 2672
990.0 2770 2868 2930 2964 2988 3003 3048 3145 3323 3601
1030.0 3985 4486 5147 5970 6918 7919 8876 9613 10000 9993
1070.0 9613 8962 8214 7535 6999 6589 6299 6094 5966 5951
1110.0 6087 6406 6852 7301 7596 7588 7232 6626 5924 5246
1150.0 4627 4088 3628 3216 2866 2551 2266 2019 1795 1609
1190.0 1457 1301 1176 1083 1000 932 879 833 793 743
1230.0 699 663 637 609 583 579 574 571 588 600
1270.0 609 619 615 629 657 696 736 765 791 811
1310.0 827 844 864 914 1013 1165 1399 1691 1972 2171
1350.0 2201 2098 1962 1931 2101 2439 2752 2878 2715 2320
1390.0 1910 1597 1355 1169 1030 912 818 751 705 696
1430.0 729 795 885 981 1053 1066 1010 915 809 724
1470.0 679 639 603 572 513 439 376 321 274 241
1510.0 215 197 176 159 158 155 144 136 117 111
1550.0 115 107 114 121 126 140 150 157 165 182
1590.0 211 252 291 340 401 473 549 600 626 610
1630.0 557 482 396 325 268 223 183 154 130 104
1670.0 82 69 56 55 47 27 14 16 14 3
1710.0 5 10 12 7 0 4 15 10 0 3
1750.0 5 1 1 0 2 5 1 1 7 8
1790.0 12 16 10 10 13 11 11 22 20 22
1830.0 28 24 21 23 23 14 14 22 27 29
1870.0 30 34 36 39 39 38 39 47 57 59
1910.0 56 53 49 51 58 64 67 68 72 73
1950.0 74 76 68 61 60 63 71 69 59 48
1990.0 38 34 33 32 31 27 21 19 19 19
2030.0 12 11 13 11 12 9 7 4 3 8
2070.0 8 3 3 0 0 5 10 11 11 13
2110.0 18 23 18 17 19 16 14 12 9 16
2150.0 21 23 24 26 23 12 12 16 18 16
2190.0 19 21 13 10 9 12 12 15 23 22
2230.0 18 11 8 18 12 14 20 16 16 14
2270.0 12 15 11 7 11 9 8 9 7 9
2310.0 1 1 13 13 8 0 0 0 2 4
2350.0 7 7 12 12 12 15 11 3 0 5
2390.0 13 11 8 9 10 19 31 36 35 34
2430.0 35 25 16 16 21 21 22 18 19 20
2470.0 9 15 21 20 26 32 25 33 44 35
2510.0 31 35 31 23 25 31 31 35 39 47
2550.0 55 55 55 58 62 63 65 66 75 88
2590.0 107 119 122 127 134 147 157 163 171 181
2630.0 192 195 215 234 235 231 235 251 260 273
2670.0 278 272 274 284 285 295 315 314 308 322
2710.0 346 361 367 396 436 456 467 482 504 533
2750.0 557 574 594 611 635 657 679 704 738 772
2790.0 805 838 869 902 939 998 1073 1157 1256 1379
2830.0 1550 1761 2004 2299 2654 3039 3425 3797 4136 4437
2870.0 4687 4892 5047 5119 5113 5060 4988 4954 4995 5092
2910.0 5231 5389 5559 5767 6063 6459 6839 7082 7165 7052
2950.0 6757 6358 5913 5492 5230 5264 5572 5948 6023 5538
2990.0 4624 3581 2701 2108 1726 1474 1294 1134 996 871
3030.0 772 671 582 518 453 401 359 321 296 264
3070.0 250 247 231 208 198 194 185 180 166 149
3110.0 143 162 170 157 158 155 148 138 119 116
3150.0 129 124 112 130 148 137 124 117 117 130
3190.0 134 127 122 120 121 114 112 121 107 82
3230.0 70 60 72 82 71 70 75 80 79 69
3270.0 65 57 61 68 63 61 60 68 66 53
3310.0 55 68 71 75 83 78 85 101 102 122
3350.0 131 115 105 78 53 64 75 62 53 61
3390.0 60 54 50 49 51 70 82 80 81 68
3430.0 60 64 69 69 61 56 61 64 48 23
3470.0 23 38 32 32 43 44 41 36 44 48
3510.0 47 28 15 33 51 46 34 16 0 4
3550.0 5 19 31 39 47 41 37 23 22 36
3590.0 26 20 28 27 25 30 30 30 23 21
3630.0 38 41 33 56 78 82 73 83 92 81
3670.0 82 84 86 90 90 88 92 105 80 44
3710.0 47 43 56 79 92 79 66 76 63 54
3750.0 54 47 60 66 67 74 60 57 55 54
3790.0 64 62 62 73 87 78 76 86 79 89
3830.0 89 78 81 86 90
##END=
