##TITLE=Tetramethyl pyromellitate
##JCAMP-DX=4.24
##DATA TYPE=INFRARED SPECTRUM
##ORIGIN=EPA-IR VAPOR PHASE LIBRARY
##OWNER=SRD/NIST
Collection (C) 2018 copyright by the U.S. Secretary of Commerce
on behalf of the United States of America. All rights reserved.
##CAS REGISTRY NO=635-10-9
##MOLFORM=C 14 H 14 O 8
##$NIST SOURCE=MSDC-IR
##STATE=gas
##XUNITS=1/CM
##YUNITS=ABSORBANCE
##XFACTOR=1.
##YFACTOR=0.001
##DELTAX=1.92898
##FIRSTX=549.8
##LASTX=4000.7
##FIRSTY=3.285
##MAXX=4000.7
##MINX=549.759
##MAXY=0.432595
##MINY=0
##NPOINTS=1790
##XYDATA=(X++(Y..Y))
549.759 3.285 3.165 3.115 2.885 2.715 2.825 2.605 2.615 2.675 2.375
569.049 2.345 2.395 2.195 2.245 2.265 2.265 2.315 2.315 2.175 2.285
588.339 2.385 2.235 2.155 2.035 1.985 2.115 2.455 2.445 2.235 2.175
607.628 2.215 2.165 2.015 2.025 2.065 1.985 1.895 1.925 1.915 1.875
626.918 1.885 2.015 2.085 1.935 1.785 1.835 1.995 2.095 2.105 2.035
646.208 1.955 1.865 1.925 1.975 1.955 1.945 2.185 2.265 2.005 1.945
665.498 2.105 2.185 2.145 2.225 2.305 2.405 2.405 2.295 2.345 2.455
684.787 2.335 2.255 2.425 2.375 2.305 2.445 2.505 2.525 2.505 2.475
704.077 2.615 2.685 2.685 2.765 2.865 2.955 3.235 3.575 3.635 3.715
723.367 3.855 4.095 4.405 4.775 5.135 5.465 6.005 6.575 7.265 8.285
742.657 9.375 10.485 11.525 12.075 12.085 11.665 10.985 10.245 9.445 8.795
761.947 8.445 8.065 8.095 8.335 8.535 9.135 9.645 10.215 10.995 11.675
781.236 12.485 13.445 14.535 15.815 16.885 17.795 18.465 18.685 19.205 20.065
800.526 20.985 22.115 22.775 22.585 21.745 19.975 17.605 15.315 13.595 12.375
819.816 11.815 11.725 11.745 12.285 13.165 14.165 15.125 15.745 15.685 14.615
839.106 12.585 10.285 8.235 6.775 5.755 4.995 4.695 4.285 3.735 3.555
858.395 3.405 3.455 3.535 3.495 3.635 3.735 3.985 4.305 4.535 4.985
877.685 5.515 6.065 6.495 6.965 7.535 8.005 8.275 8.275 8.315 8.345
896.975 8.355 8.245 7.965 7.815 7.835 7.775 7.745 8.135 8.415 8.495
916.265 8.755 8.785 8.625 8.275 7.645 7.015 6.305 5.635 5.195 4.905
935.555 4.575 4.405 4.285 4.135 4.295 4.455 4.485 4.825 5.305 5.745
954.844 6.265 7.065 8.015 8.795 9.565 10.425 11.635 13.135 15.005 17.305
974.134 20.125 23.465 26.895 29.705 31.415 31.585 30.245 27.555 23.725 19.825
993.424 16.345 13.335 11.115 9.525 8.305 7.625 7.215 6.965 6.905 7.235
1012.714 7.815 7.945 8.015 8.405 8.865 9.385 9.725 9.845 9.915 9.925
1032.003 9.925 10.065 10.255 10.165 9.755 9.675 9.815 9.905 10.395 10.835
1051.293 10.975 11.415 11.685 11.785 12.315 13.155 14.515 15.785 17.265 19.295
1070.583 21.685 24.565 28.055 32.665 38.635 46.315 55.295 66.685 80.605 96.275
1089.873 113.245 129.935 144.405 154.165 158.115 156.045 148.565 137.735 126.385 116.925
1109.163 110.285 107.775 109.995 116.015 125.895 137.355 147.825 155.725 158.735 155.385
1128.452 146.135 132.345 116.545 101.495 88.025 76.045 65.595 57.565 51.155 45.515
1147.742 40.705 36.535 33.295 30.905 28.905 27.445 26.455 25.535 24.695 24.175
1167.032 24.185 24.345 24.535 24.655 24.965 26.005 27.605 29.205 30.545 32.075
1186.322 33.935 35.805 37.685 39.355 40.785 41.845 43.085 44.665 46.595 48.775
1205.611 51.255 55.155 59.655 64.485 70.195 77.155 85.115 93.865 104.435 116.675
1224.901 130.065 145.395 163.205 183.235 205.645 230.935 259.285 290.225 322.115 353.315
1244.191 382.465 407.395 424.795 432.595 430.475 417.845 396.235 368.955 338.555 308.005
1263.481 279.185 252.775 229.295 208.955 191.185 175.955 163.575 153.895 146.625 141.545
1282.771 138.545 136.925 135.955 134.555 131.655 126.925 120.095 111.545 102.135 93.155
1302.060 85.335 78.945 74.175 70.575 67.645 64.995 62.235 59.305 56.095 52.485
1321.350 48.675 44.795 40.935 37.255 33.795 30.735 28.005 25.525 23.295 21.415
1340.640 19.875 18.555 17.455 16.605 15.985 15.485 15.165 15.025 15.005 15.185
1359.930 15.605 16.195 16.965 17.965 19.175 20.475 21.895 23.365 24.735 25.905
1379.219 26.595 26.605 25.905 24.595 22.725 20.575 18.525 16.625 15.015 13.845
1398.509 12.895 12.185 11.745 11.495 11.495 11.665 11.905 12.135 12.355 12.575
1417.799 12.865 13.415 14.425 16.185 19.255 24.245 32.385 44.485 59.205 72.225
1437.089 79.655 78.915 69.995 56.445 43.235 33.235 26.635 22.675 20.365 18.935
1456.378 18.005 17.435 17.045 16.655 16.325 16.005 15.685 15.405 15.175 15.005
1475.668 15.015 15.355 15.905 16.595 17.505 18.505 19.445 20.185 20.555 20.415
1494.958 19.785 18.765 17.485 16.205 15.005 13.875 12.915 12.055 11.335 10.765
1514.248 10.245 9.725 9.295 8.905 8.645 8.435 8.175 8.005 7.875 7.765
1533.538 7.725 7.725 7.665 7.625 7.675 7.775 7.825 7.855 7.915 7.985
1552.827 8.045 8.055 8.175 8.215 8.165 8.125 8.015 7.905 7.735 7.535
1572.117 7.305 7.055 6.825 6.725 6.655 6.525 6.425 6.325 6.255 6.175
1591.407 6.135 6.115 6.105 6.055 5.955 5.965 5.975 5.905 5.825 5.825
1610.697 5.825 5.755 5.645 5.575 5.475 5.335 5.305 5.285 5.225 5.175
1629.986 5.145 5.105 5.055 5.015 5.035 5.085 5.055 4.985 4.985 5.035
1649.276 5.115 5.165 5.235 5.415 5.535 5.675 5.925 6.125 6.275 6.425
1668.566 6.555 6.735 6.975 7.155 7.335 7.595 7.855 8.195 8.575 8.965
1687.856 9.425 9.885 10.435 11.085 11.735 12.535 13.435 14.455 15.585 16.845
1707.146 18.165 19.575 21.115 22.735 24.535 26.625 29.085 32.025 35.835 40.755
1726.435 46.835 54.455 64.105 75.925 90.595 107.945 128.045 152.325 180.815 214.645
1745.725 253.755 296.595 337.535 369.305 384.545 379.685 356.545 321.995 283.185 245.935
1765.015 212.525 182.735 156.015 132.645 111.925 94.105 78.695 65.615 54.775 45.805
1784.305 38.615 32.835 28.245 24.515 21.615 19.375 17.605 16.275 15.265 14.405
1803.594 13.835 13.445 13.045 12.645 12.305 11.935 11.525 11.105 10.715 10.315
1822.884 9.865 9.405 8.925 8.445 8.025 7.595 7.175 6.795 6.415 6.125
1842.174 5.895 5.625 5.385 5.135 4.885 4.695 4.525 4.365 4.165 3.985
1861.464 3.845 3.675 3.525 3.415 3.285 3.185 3.065 3.005 2.985 2.915
1880.754 2.885 2.825 2.725 2.635 2.565 2.575 2.545 2.505 2.525 2.495
1900.043 2.465 2.465 2.465 2.485 2.485 2.535 2.595 2.595 2.645 2.735
1919.333 2.815 2.835 2.895 2.945 3.015 3.115 3.155 3.195 3.155 3.105
1938.623 3.105 3.085 3.035 3.035 2.965 2.855 2.745 2.625 2.555 2.485
1957.913 2.445 2.455 2.425 2.425 2.455 2.465 2.435 2.425 2.555 2.645
1977.202 2.635 2.705 2.775 2.845 2.915 2.935 2.945 2.935 2.955 2.955
1996.492 2.905 2.845 2.745 2.695 2.625 2.595 2.565 2.495 2.395 2.355
2015.782 2.355 2.325 2.285 2.245 2.245 2.245 2.255 2.225 2.275 2.265
2035.072 2.245 2.245 2.285 2.335 2.325 2.375 2.405 2.475 2.505 2.465
2054.362 2.525 2.565 2.485 2.395 2.395 2.355 2.355 2.375 2.355 2.335
2073.651 2.275 2.255 2.325 2.355 2.345 2.335 2.365 2.395 2.335 2.295
2092.941 2.375 2.415 2.405 2.385 2.345 2.395 2.435 2.395 2.375 2.355
2112.231 2.395 2.475 2.475 2.435 2.425 2.375 2.345 2.345 2.235 2.145
2131.521 2.125 2.105 2.115 2.105 2.065 2.025 1.995 1.975 1.895 1.825
2150.810 1.835 1.795 1.705 1.675 1.615 1.495 1.445 1.375 1.295 1.295
2170.100 1.235 1.1662 1.0744 1.0329 1.0634 1.0897 1.0707 1.0763 1.0854 1.0743
2189.390 1.0507 0.9715 1.0054 1.0774 1.1081 1.1396 1.1059 1.0805 1.1292 1.15
2208.680 1.0985 1.1061 1.1305 1.1418 1.1071 1.0957 1.0691 1.0325 1.0247 1.0482
2227.970 1.0631 0.9999 0.9484 0.9005 0.894 0.9333 0.9255 0.8799 0.8544 0.8598
2247.259 0.8154 0.7823 0.793 0.7783 0.7699 0.7473 0.7916 0.8039 0.7663 0.7797
2266.549 0.8324 0.8447 0.8193 0.8566 0.8883 0.8843 0.8656 0.8231 0.8053 0.7702
2285.839 0.7701 0.7923 0.6975 0.6555 0.738 0.7824 0.7851 0.7036 0.6365 0.6587
2305.129 0.7101 0.7321 0.7307 0.7485 0.7295 0.7311 0.7179 0.7422 0.8486 0.8814
2324.418 0.8815 0.9387 0.9966 1.0026 0.9824 0.9756 0.976 0.9503 0.9325 0.9722
2343.708 0.9478 0.9512 0.9914 0.9855 0.9368 0.9048 0.9022 0.8945 0.9104 0.9291
2362.998 0.8936 0.8567 0.9001 0.9203 0.9041 0.9398 0.9798 0.9863 1.009 0.9685
2382.288 1.0311 1.0944 1.1348 1.235 1.235 1.2084 1.255 1.245 1.235 1.215
2401.578 1.1794 1.1689 1.1269 0.9861 0.9399 0.9919 0.9734 0.9644 0.9442 0.9516
2420.867 0.9338 0.9076 0.8998 0.8324 0.8048 0.8195 0.8535 0.8841 0.8532 0.8213
2440.157 0.8732 0.8851 0.7795 0.7051 0.7716 0.839 0.8229 0.8128 0.812 0.8261
2459.447 0.8212 0.787 0.8009 0.8039 0.7399 0.7205 0.6701 0.6225 0.6589 0.7781
2478.737 0.8327 0.7498 0.7488 0.8508 0.8474 0.7523 0.7368 0.7498 0.7076 0.6984
2498.026 0.7534 0.7905 0.7542 0.7513 0.8336 0.7862 0.7041 0.7301 0.7254 0.75
2517.316 0.8227 0.8345 0.7476 0.7905 0.7981 0.741 0.745 0.7469 0.7502 0.8058
2536.606 0.8719 0.8065 0.8241 0.8961 0.9202 0.9423 0.971 0.9765 0.9713 0.9412
2555.896 0.8749 0.8495 0.9019 0.9436 0.9419 0.9291 0.9846 0.9628 0.8959 0.9919
2575.186 1.0089 0.9648 0.9461 0.9242 0.8795 0.8979 0.9697 0.9642 0.987 1.0105
2594.475 1.0163 1.0249 1.0133 1.0057 0.9726 0.925 0.8676 0.9059 0.932 0.9378
2613.765 0.9728 0.9195 0.8481 0.8052 0.8371 0.7691 0.7214 0.7261 0.6879 0.7137
2633.055 0.7302 0.7075 0.7418 0.7427 0.789 0.864 0.7747 0.7435 0.8067 0.811
2652.345 0.7329 0.7212 0.7141 0.679 0.7569 0.7213 0.6278 0.6333 0.6721 0.6935
2671.634 0.6964 0.6664 0.6225 0.5989 0.6385 0.653 0.6113 0.5714 0.579 0.5995
2690.924 0.5562 0.5263 0.5056 0.437 0.4272 0.5044 0.5397 0.5425 0.5453 0.549
2710.214 0.5626 0.5711 0.6146 0.6034 0.4818 0.5385 0.6075 0.5299 0.4977 0.4337
2729.504 0.4098 0.5091 0.5509 0.4706 0.4427 0.5389 0.5933 0.5632 0.4905 0.5187
2748.794 0.5584 0.5119 0.5409 0.5272 0.4597 0.4555 0.5109 0.5131 0.5021 0.5843
2768.083 0.6315 0.6035 0.5772 0.6007 0.5954 0.5252 0.6225 0.7326 0.6243 0.5476
2787.373 0.6822 0.8178 0.8678 0.9075 0.8606 0.8827 0.913 0.9965 1.0555 1.0252
2806.663 1.1584 1.265 1.345 1.455 1.525 1.615 1.715 1.865 2.065 2.305
2825.953 2.515 2.655 2.885 3.175 3.435 3.925 4.615 5.385 6.425 7.825
2845.242 9.485 11.115 12.385 12.875 12.465 11.275 9.545 7.725 6.295 5.305
2864.532 4.705 4.285 4.005 3.855 3.815 3.905 3.995 4.095 4.305 4.575
2883.822 4.875 5.235 5.595 6.035 6.715 7.455 8.045 8.705 9.235 9.515
2903.112 9.745 9.885 10.035 10.135 10.235 10.315 10.265 10.165 9.945 9.745
2922.401 9.505 9.245 9.185 9.235 9.395 9.665 10.075 10.615 11.385 12.375
2941.691 13.685 15.535 17.895 21.205 25.855 32.375 41.665 54.365 68.885 80.885
2960.981 86.215 83.395 73.215 58.005 42.525 30.855 23.345 18.735 15.785 13.865
2980.271 12.825 12.175 11.825 11.835 11.875 12.115 12.435 12.895 13.425 13.815
2999.561 14.285 14.705 14.975 15.035 14.995 14.815 14.495 14.205 13.825 13.495
3018.850 13.145 12.835 12.645 12.535 12.485 12.315 12.205 11.985 11.455 10.925
3038.140 10.375 9.805 9.165 8.505 8.015 7.445 6.815 6.375 6.035 5.725
3057.430 5.405 5.025 4.815 4.615 4.455 4.465 4.395 4.255 4.135 4.045
3076.720 3.945 3.875 3.875 3.845 3.855 3.885 3.875 3.755 3.635 3.685
3096.009 3.625 3.475 3.455 3.385 3.325 3.285 3.205 3.115 2.975 2.805
3115.299 2.755 2.705 2.625 2.545 2.415 2.385 2.315 2.135 2.045 1.985
3134.589 1.865 1.795 1.725 1.715 1.655 1.555 1.425 1.365 1.345 1.255
3153.879 1.1954 1.1906 1.225 1.1921 1.1325 1.1091 1.0994 1.0135 1.0084 0.997
3173.169 0.9519 0.9619 1.0025 0.9497 0.8531 0.9 0.9311 0.8571 0.8241 0.9256
3192.458 0.9652 0.8349 0.794 0.7968 0.7745 0.7219 0.649 0.637 0.5705 0.5554
3211.748 0.5253 0.6274 0.6705 0.4888 0.4015 0.382 0.2572 0.219082 0.3913 0.451
3231.038 0.3856 0.3213 0.27533 0.31138 0.3239 0.31392 0.385 0.4849 0.5093 0.4341
3250.328 0.4676 0.5278 0.472 0.3316 0.29882 0.30604 0.3462 0.4186 0.3189 0.26905
3269.617 0.217739 0.26447 0.3863 0.4356 0.4358 0.3427 0.30141 0.29654 0.3253 0.26433
3288.907 0.219987 0.3216 0.3963 0.4098 0.4156 0.4416 0.332 0.223272 0.23637 0.30219
3308.197 0.3466 0.3354 0.29814 0.3775 0.3542 0.2645 0.4102 0.4107 0.411 0.4401
3327.487 0.4093 0.30396 0.3564 0.3954 0.31048 0.4352 0.3517 0.3174 0.3239 0.1904
3346.777 0.27867 0.3175 0.30717 0.3356 0.3911 0.4899 0.3588 0.368 0.4966 0.4253
3366.066 0.4032 0.3543 0.3335 0.3825 0.4163 0.4009 0.3168 0.30041 0.3578 0.3172
3385.356 0.27201 0.3359 0.29256 0.31115 0.3733 0.3226 0.346 0.4059 0.3542 0.23992
3404.646 0.36 0.4794 0.4296 0.5119 0.5155 0.3858 0.3981 0.4169 0.3984 0.4596
3423.936 0.3902 0.3355 0.353 0.31329 0.4348 0.558 0.6019 0.6541 0.6614 0.5718
3443.225 0.511 0.6972 0.8948 0.8723 0.741 0.803 1.0275 1.0951 1.09 1.1763
3462.515 1.395 1.585 1.725 1.845 1.915 2.115 2.355 2.595 2.865 3.005
3481.805 3.135 3.335 3.485 3.535 3.555 3.485 3.335 3.275 3.235 2.955
3501.095 2.665 2.545 2.405 2.165 1.915 1.815 1.735 1.665 1.485 1.265
3520.385 1.12 0.9783 1.0399 1.0674 0.9216 0.8678 0.9374 0.8267 0.6449 0.6604
3539.674 0.664 0.6544 0.6585 0.5046 0.30849 0.4414 0.5834 0.508 0.4169 0.4608
3558.964 0.5649 0.4821 0.4595 0.4915 0.4759 0.4476 0.4585 0.5344 0.4832 0.413
3578.254 0.363 0.27356 0.27391 0.3255 0.3046 0.1771 0.1811 0.22984 0.23774 0.30078
3597.544 0.31106 0.34 0.4448 0.4079 0.24697 0.1608 0.215236 0.27341 0.2541 0.3131
3616.833 0.3459 0.3512 0.3649 0.3556 0.327 0.3278 0.26703 0.214582 0.1658 0.1659
3636.123 0.22521 0.28831 0.218929 0.219194 0.27933 0.216459 0.220303 0.26753 0.23661 0.1761
3655.413 0.22658 0.27432 0.3659 0.2915 0.21324 0.3226 0.316 0.24477 0.20735 0.22539
3674.703 0.098 0 0.052 0.171 0.23767 0.1174 0.101 0.1403 0.218128 0.3321
3693.993 0.27616 0.095 0.113 0.084 0.065 0.27234 0.27966 0.1993 0.1343 0.1566
3713.282 0.365 0.366 0.23107 0.1697 0.153 0.20674 0.20852 0.1796 0.25379 0.29096
3732.572 0.31124 0.30906 0.27894 0.20974 0.091 0.075 0.1246 0.25576 0.4038 0.28011
3751.862 0.1233 0.059 0.08 0.1999 0.30637 0.29854 0.25222 0.386 0.4874 0.397
3771.152 0.28845 0.29313 0.4032 0.3742 0.3208 0.4471 0.3878 0.4371 0.4917 0.456
3790.441 0.4271 0.1964 0.092 0.30536 0.4337 0.4356 0.4095 0.31374 0.23969 0.25582
3809.731 0.27178 0.26772 0.3327 0.3778 0.318 0.191 0.21041 0.28503 0.29718 0.3703
3829.021 0.3446 0.1979 0.25736 0.3417 0.3296 0.214619 0.26968 0.3655 0.1834 0.1602
3848.311 0.26934 0.28545 0.1703 0.1502 0.24224 0.232 0.2391 0.301 0.3605 0.3646
3867.601 0.26045 0.26694 0.4027 0.3874 0.4762 0.5898 0.5249 0.4715 0.372 0.28119
3886.890 0.3201 0.3469 0.26917 0.20619 0.27507 0.3322 0.27664 0.25674 0.3569 0.412
3906.180 0.4335 0.4436 0.4285 0.4942 0.4992 0.4276 0.4476 0.4914 0.4327 0.3411
3925.470 0.3676 0.4241 0.3951 0.3266 0.29501 0.3449 0.27086 0.25808 0.4827 0.4727
3944.760 0.4393 0.5204 0.3712 0.29283 0.3849 0.5431 0.5056 0.385 0.4351 0.5733
3964.049 0.591 0.5126 0.5216 0.4451 0.4783 0.5258 0.4792 0.4557 0.416 0.4434
3983.339 0.4643 0.5797 0.6579 0.5573 0.439 0.4459 0.4911 0.4767 0.4112 0.364
##END=
