##TITLE=p-Hydroxythiophenol
##JCAMP-DX=4.24
##DATA TYPE=INFRARED SPECTRUM
##ORIGIN=NIST Mass Spectrometry Data Center
##OWNER=NIST Standard Reference Data Program
Collection (C) 2018 copyright by the U.S. Secretary of Commerce
on behalf of the United States of America. All rights reserved.
##CAS REGISTRY NO=637-89-8
##MOLFORM=C 6 H 6 O S
##$NIST SOURCE=MSDC-IR
##SPECTROMETER/DATA SYSTEM=HP-GC/MS/IRD
##STATE=gas
##XUNITS=1/CM
##YUNITS=ABSORBANCE
##XFACTOR=1.0
##YFACTOR=0.000001000
##DELTAX=4.0
##FIRSTX=550.0
##LASTX=3846.0
##FIRSTY=0.000082
##MAXX=3846
##MINX=550
##MAXY=0.01
##MINY=0
##NPOINTS=825
##XYDATA=(X++(Y..Y))
550.0 82 78 67 25 37 39 74 103 124 158
590.0 139 96 87 99 73 10 41 221 359 484
630.0 698 768 699 662 493 255 79 14 4 0
670.0 7 28 43 42 43 55 81 106 126 84
710.0 82 102 90 79 67 72 119 118 64 68
750.0 97 99 119 171 208 261 327 388 543 739
790.0 950 1269 1616 1900 2100 2292 2523 2733 2565 2176
830.0 1879 1525 1160 801 553 353 228 189 196 203
870.0 152 97 81 99 120 114 82 79 109 117
910.0 140 173 181 166 129 107 141 156 127 116
950.0 121 110 120 143 164 123 60 66 131 167
990.0 168 193 206 265 343 334 276 239 262 236
1030.0 166 93 124 202 183 226 242 202 186 212
1070.0 303 396 448 511 654 846 1008 1086 1119 1112
1110.0 949 799 721 671 698 685 662 695 749 838
1150.0 1238 2121 3844 6372 8538 9604 10000 9505 7467 4988
1190.0 3363 2428 1835 1506 1342 1246 1215 1223 1240 1331
1230.0 1456 1717 2307 3295 4492 5556 6100 6049 5357 4001
1270.0 2470 1467 1041 834 675 514 440 464 520 676
1310.0 917 1111 1226 1306 1272 1083 861 674 519 408
1350.0 334 293 254 239 205 164 162 139 130 151
1390.0 163 198 288 443 667 931 1158 1284 1283 1142
1430.0 885 626 427 324 301 293 343 399 462 610
1470.0 854 1308 2137 3476 5159 6431 6665 6246 5398 3825
1510.0 2109 1196 860 678 532 429 386 373 317 274
1550.0 293 330 425 513 621 814 1040 1311 1602 1849
1590.0 2060 2222 2227 2037 1734 1397 1053 675 414 290
1630.0 247 257 236 229 257 282 268 208 177 162
1670.0 154 135 127 151 132 96 118 143 129 118
1710.0 111 138 179 163 145 156 166 173 177 168
1750.0 159 157 143 124 97 86 81 70 88 67
1790.0 41 44 33 30 39 56 77 97 110 112
1830.0 113 108 105 135 153 149 163 175 187 188
1870.0 201 202 182 196 190 137 123 122 98 85
1910.0 67 33 40 45 43 50 55 46 33 33
1950.0 37 37 35 33 39 55 59 56 44 47
1990.0 69 58 56 65 45 34 44 55 63 39
2030.0 29 38 36 37 37 19 26 66 80 82
2070.0 81 74 86 81 82 86 87 84 55 48
2110.0 55 42 25 17 29 34 10 0 13 35
2150.0 32 16 37 47 27 23 35 29 33 27
2190.0 8 22 34 30 29 3 12 51 45 52
2230.0 65 46 40 56 56 49 64 49 43 50
2270.0 44 73 94 82 77 80 65 62 74 73
2310.0 74 83 99 102 117 130 130 135 124 87
2350.0 67 63 58 74 81 81 71 59 67 68
2390.0 70 75 82 110 142 149 148 160 175 179
2430.0 187 149 112 116 105 90 88 82 75 74
2470.0 69 69 58 74 113 110 104 104 105 88
2510.0 93 102 79 71 61 62 86 74 51 62
2550.0 79 82 74 70 73 97 118 138 148 125
2590.0 100 95 107 87 57 50 38 33 53 71
2630.0 47 42 77 63 43 47 64 86 82 66
2670.0 79 110 95 55 53 74 69 55 63 83
2710.0 74 48 41 33 39 71 111 104 71 61
2750.0 61 73 40 31 35 28 30 43 65 51
2790.0 34 45 63 64 83 61 26 38 57 83
2830.0 80 49 51 56 67 95 92 82 90 78
2870.0 71 58 47 47 86 91 50 56 63 56
2910.0 47 65 56 28 32 39 55 94 100 90
2950.0 50 6 65 101 78 68 113 144 107 137
2990.0 206 230 234 259 312 337 346 421 542 684
3030.0 798 841 832 750 608 486 439 450 472 498
3070.0 499 496 473 450 464 445 400 362 311 274
3110.0 216 161 136 83 67 81 66 17 6 53
3150.0 61 75 95 84 90 58 62 77 57 46
3190.0 69 66 45 74 74 61 64 134 157 74
3230.0 65 89 85 122 102 27 11 26 66 77
3270.0 22 42 27 0 18 20 38 24 15 59
3310.0 64 10 8 14 46 96 87 65 93 95
3350.0 49 56 104 165 153 98 51 64 102 100
3390.0 117 137 131 138 111 95 96 97 109 159
3430.0 158 96 100 88 63 35 56 130 151 120
3470.0 105 104 78 67 77 74 78 78 73 65
3510.0 61 56 67 66 53 71 97 101 62 39
3550.0 35 60 98 109 125 143 113 82 90 117
3590.0 143 165 152 144 191 247 274 333 364 458
3630.0 767 1182 1810 2746 3655 3883 3656 3352 2572 1533
3670.0 895 609 427 283 183 183 186 108 126 185
3710.0 207 195 177 157 88 58 62 33 83 123
3750.0 133 126 88 83 72 78 96 94 115 119
3790.0 83 134 195 186 125 97 119 138 135 126
3830.0 129 103 85 156 131
##END=
