##TITLE=Phenylpropiolic acid
##JCAMP-DX=4.24
##DATA TYPE=INFRARED SPECTRUM
##ORIGIN=EPA-IR VAPOR PHASE LIBRARY
##OWNER=SRD/NIST
Collection (C) 2018 copyright by the U.S. Secretary of Commerce
on behalf of the United States of America. All rights reserved.
##CAS REGISTRY NO=637-44-5
##MOLFORM=C 9 H 6 O 2
##$NIST SOURCE=MSDC-IR
##STATE=gas
##XUNITS=1/CM
##YUNITS=ABSORBANCE
##XFACTOR=1.
##YFACTOR=0.001
##DELTAX=1.92898
##FIRSTX=549.8
##LASTX=4000.7
##FIRSTY=11.049
##MAXX=4000.7
##MINX=549.759
##MAXY=0.125859
##MINY=0
##NPOINTS=1790
##XYDATA=(X++(Y..Y))
549.759 11.049 12.049 13.069 13.789 13.949 14.459 14.869 14.929 14.499 13.999
569.049 13.679 12.419 11.029 9.979 8.999 8.419 8.429 8.469 8.679 9.299
588.339 9.929 10.239 10.619 11.709 13.319 13.489 12.879 13.389 14.209 15.749
607.628 18.539 25.429 36.099 33.819 28.339 34.019 32.909 27.649 26.939 27.129
626.918 26.459 24.779 23.369 23.739 25.309 27.129 29.249 31.969 38.019 42.899
646.208 40.689 33.739 27.649 25.999 26.319 25.489 24.959 23.709 23.349 21.449
665.498 31.669 88.219 86.449 36.639 26.119 24.089 24.289 25.219 26.359 27.909
684.787 29.779 32.539 36.739 34.579 29.319 27.109 26.139 25.339 23.839 22.599
704.077 21.369 19.659 17.739 15.849 14.369 13.079 11.979 12.699 15.769 13.399
723.367 9.719 9.999 10.549 11.479 12.979 14.919 16.899 19.069 21.689 24.409
742.657 25.819 27.059 29.079 31.849 36.529 44.449 54.219 52.099 37.759 30.559
761.947 29.199 28.019 27.179 24.939 22.069 19.079 15.969 13.209 11.109 9.189
781.236 7.459 5.909 4.689 3.889 3.289 2.749 2.349 2.029 1.799 1.499
800.526 1.219 1.439 1.479 1.249 1.279 1.1301 0.9716 1.0875 1.249 1.199
819.816 1.1355 1.209 1.18 0.9308 0.9129 1.1142 1.0876 0.853 0.735 0.7993
839.106 0.7065 0.68 0.7111 0.6172 0.7175 0.8249 0.6726 0.7146 0.9708 1.0204
858.395 1.1715 1.299 1.379 1.589 1.759 1.889 2.219 2.339 2.239 2.329
877.685 2.559 3.049 3.189 3.099 3.079 3.149 3.419 3.599 3.699 3.649
896.975 3.449 3.399 3.499 3.459 3.259 3.139 3.139 3.339 3.739 3.909
916.265 3.409 2.799 2.629 2.649 2.479 2.409 2.399 2.279 2.079 1.729
935.555 1.639 1.529 1.219 1.1111 1.0696 1.1121 1.1806 1.0506 1.0047 0.8108
954.844 0.8491 1.048 1.0159 0.8996 0.773 0.6514 0.6855 0.7284 0.5208 0.6072
974.134 0.7261 0.6707 0.6289 0.5906 0.735 0.6583 0.6622 0.7079 0.5711 0.8506
993.424 1.1191 1.1436 1.0648 1.0546 1.249 1.299 1.479 1.729 1.829 2.089
1012.714 2.479 2.869 3.059 3.429 3.659 3.539 3.509 3.359 3.179 3.249
1032.003 3.219 2.889 2.809 2.759 2.219 1.939 1.989 2.179 2.459 2.589
1051.293 2.759 2.919 3.029 3.059 3.639 4.009 3.769 3.669 4.179 4.629
1070.583 4.439 4.489 4.519 4.669 4.789 4.379 4.329 4.629 4.529 4.939
1089.873 5.949 6.079 6.109 6.759 7.489 8.249 9.369 10.509 11.419 13.249
1109.163 15.479 17.469 19.689 22.829 26.469 30.449 34.939 40.249 46.719 54.019
1128.452 61.489 68.169 72.849 74.139 71.879 67.479 62.149 54.979 45.309 35.049
1147.742 27.149 21.949 18.049 15.449 13.799 12.479 11.329 9.969 9.069 8.079
1167.032 6.999 6.659 6.439 5.909 5.469 5.189 4.909 4.869 4.959 4.999
1186.322 5.029 5.229 5.189 5.239 5.389 5.399 5.749 6.199 6.509 6.689
1205.611 7.849 9.939 11.389 12.829 14.629 15.729 16.249 16.029 15.559 15.569
1224.901 16.409 17.339 17.299 16.459 14.599 12.359 10.519 8.919 8.109 7.779
1244.191 7.249 6.929 6.629 6.239 6.359 6.759 7.109 7.349 7.299 7.379
1263.481 7.639 7.989 8.279 8.469 8.839 9.209 9.429 9.809 10.349 10.889
1282.771 11.469 12.199 13.129 14.249 15.489 16.579 17.459 18.389 19.269 20.069
1302.060 20.779 21.289 21.379 20.949 20.089 18.889 17.529 16.079 14.379 12.519
1321.350 10.759 9.199 7.919 6.849 6.029 5.499 5.129 4.869 4.819 4.779
1340.640 4.699 4.739 4.959 5.289 5.639 6.239 7.319 9.059 11.659 15.059
1359.930 18.509 20.619 20.879 20.409 20.089 18.979 15.599 10.939 7.179 4.919
1379.219 3.629 2.959 2.549 2.199 1.939 1.689 1.559 1.469 1.339 1.249
1398.509 1.1896 1.064 0.9421 0.8987 0.8869 0.8745 0.8864 0.9693 1.0938 1.1842
1417.799 1.329 1.539 1.769 1.929 2.129 2.449 2.759 3.029 3.309 3.579
1437.089 3.779 3.799 3.699 3.469 3.289 3.289 3.379 3.449 3.329 3.019
1456.378 2.709 2.419 2.159 2.039 2.039 2.269 2.799 3.429 4.319 5.649
1475.668 7.259 9.039 10.829 12.529 13.879 14.769 15.179 15.349 15.479 15.559
1494.958 15.049 13.659 11.699 9.489 7.469 5.839 4.529 3.659 3.099 2.689
1514.248 2.459 2.309 2.099 1.869 1.739 1.549 1.309 1.219 1.1056 0.9617
1533.538 0.9618 0.991 0.9212 0.8612 0.812 0.7835 0.7416 0.699 0.7383 0.771
1552.827 0.8256 0.921 0.9726 1.0196 1.0233 1.0847 1.239 1.359 1.439 1.619
1572.117 1.839 2.109 2.379 2.529 2.849 3.279 3.629 3.939 4.129 4.249
1591.407 4.439 4.609 4.759 4.759 4.589 4.339 4.009 3.739 3.529 3.269
1610.697 2.859 2.389 2.059 1.719 1.459 1.309 1.1462 0.9843 0.9573 1.0146
1629.986 0.901 0.8418 0.8647 0.8183 0.6914 0.6907 0.828 0.8767 0.9772 1.0436
1649.276 1.0815 1.249 1.369 1.369 1.459 1.709 1.919 1.959 1.989 2.019
1668.566 2.069 2.079 2.119 2.159 2.069 2.069 2.069 2.029 2.159 2.319
1687.856 2.419 2.539 2.609 2.679 2.779 2.959 3.269 3.559 3.739 4.089
1707.146 4.659 5.219 5.709 6.299 7.049 7.869 8.669 9.549 10.609 11.829
1726.435 13.399 15.079 16.829 18.969 21.599 24.879 29.059 34.929 42.369 51.349
1745.725 60.299 66.709 68.719 67.619 66.229 64.509 58.339 47.089 35.909 28.549
1765.015 24.609 22.289 20.639 19.359 18.219 17.319 16.569 15.909 15.269 14.669
1784.305 14.079 13.379 12.619 11.719 10.749 9.899 9.089 8.299 7.579 6.859
1803.594 6.189 5.589 5.029 4.539 4.139 3.679 3.209 2.829 2.499 2.299
1822.884 2.129 1.929 1.839 1.739 1.679 1.619 1.499 1.429 1.369 1.309
1842.174 1.239 1.209 1.239 1.1889 1.1201 1.1317 1.209 1.229 1.259 1.329
1861.464 1.339 1.359 1.479 1.529 1.569 1.639 1.649 1.659 1.779 1.919
1880.754 1.969 2.039 2.079 2.079 2.019 1.959 1.979 1.929 1.819 1.729
1900.043 1.619 1.569 1.499 1.249 1.0753 0.9984 1.0066 1.0554 1.0577 1.0853
1919.333 1.197 1.309 1.349 1.379 1.409 1.509 1.649 1.749 1.839 1.899
1938.623 1.889 1.909 1.929 1.929 1.989 2.089 2.229 2.319 2.329 2.279
1957.913 2.119 2.009 1.919 1.739 1.619 1.559 1.409 1.1854 0.9858 0.8763
1977.202 0.7897 0.7024 0.5899 0.5097 0.4362 0.4016 0.4355 0.4669 0.5101 0.5275
1996.492 0.5674 0.545 0.5308 0.6034 0.6471 0.6077 0.5127 0.5555 0.5724 0.501
2015.782 0.5265 0.5673 0.6722 0.7874 0.7305 0.641 0.6368 0.6453 0.658 0.63
2035.072 0.5481 0.497 0.4653 0.3538 0.312 0.3867 0.4406 0.4596 0.3803 0.4013
2054.362 0.3991 0.3376 0.4145 0.505 0.5213 0.5308 0.5353 0.5302 0.5069 0.5311
2073.651 0.646 0.7465 0.8089 0.8168 0.869 0.9301 0.969 1.0794 1.219 1.359
2092.941 1.539 1.709 1.839 2.029 2.179 2.329 2.519 2.579 2.539 2.489
2112.231 2.499 2.499 2.469 2.369 2.189 2.049 1.869 1.689 1.509 1.339
2131.521 1.1855 1.0601 0.9339 0.8602 0.8427 0.9003 0.9508 0.9905 1.0106 1.092
2150.810 1.1655 1.1766 1.319 1.449 1.499 1.639 1.909 2.209 2.379 2.569
2170.100 2.919 3.189 3.489 3.859 4.319 4.839 5.249 5.709 6.259 6.769
2189.390 7.319 7.909 8.459 9.049 9.719 10.449 11.219 12.109 13.159 14.249
2208.680 15.499 16.919 18.459 20.089 21.659 23.079 24.359 25.269 25.589 25.359
2227.970 24.479 23.019 20.949 18.529 16.019 13.539 11.429 9.689 8.429 7.729
2247.259 7.519 7.709 8.089 8.669 9.329 9.879 10.319 10.719 11.099 11.269
2266.549 11.309 11.549 11.759 12.149 12.859 13.949 15.409 17.129 19.249 21.869
2285.839 24.889 28.299 32.079 36.289 40.809 45.399 50.279 55.099 59.179 63.899
2305.129 70.439 76.859 82.079 86.719 88.609 88.329 90.799 96.409 99.849 101.279
2324.418 98.889 93.759 94.889 97.439 94.669 90.339 89.059 90.489 92.959 95.449
2343.708 98.059 95.429 85.939 85.179 96.169 109.179 119.019 123.739 125.859 125.679
2362.998 124.649 121.979 117.259 112.069 105.679 98.259 89.959 80.309 69.439 57.599
2382.288 45.599 34.059 23.669 15.349 9.409 5.559 3.339 2.219 1.629 1.399
2401.578 1.359 1.229 1.0913 1.0527 1.0033 0.9281 0.892 0.8454 0.8095 0.8218
2420.867 0.8265 0.8499 0.8296 0.7884 0.7443 0.8277 0.9109 0.8524 0.7991 0.7708
2440.157 0.7288 0.7141 0.7029 0.6675 0.6304 0.6151 0.6251 0.6231 0.6247 0.6512
2459.447 0.6763 0.6609 0.627 0.6275 0.6168 0.6168 0.664 0.6689 0.5429 0.5497
2478.737 0.6614 0.6969 0.737 0.7272 0.6892 0.7144 0.7353 0.7049 0.6735 0.6815
2498.026 0.772 0.7931 0.7043 0.66 0.7127 0.6993 0.7268 0.7951 0.8122 0.8584
2517.316 0.8258 0.7817 0.7394 0.7416 0.7789 0.7564 0.7521 0.7093 0.584 0.5759
2536.606 0.632 0.6651 0.6344 0.5632 0.5587 0.6236 0.5747 0.5408 0.5934 0.5711
2555.896 0.534 0.477 0.5091 0.5071 0.4938 0.5784 0.6762 0.6496 0.5748 0.5308
2575.186 0.5566 0.593 0.4533 0.3775 0.4377 0.4775 0.5258 0.5864 0.5666 0.46
2594.475 0.4528 0.626 0.6646 0.4732 0.4439 0.6001 0.6434 0.5687 0.4357 0.3443
2613.765 0.3584 0.4214 0.3534 0.3106 0.3808 0.3157 0.3184 0.385 0.4811 0.5164
2633.055 0.5035 0.5775 0.5285 0.4513 0.3942 0.4188 0.4547 0.4677 0.5353 0.4657
2652.345 0.3493 0.3878 0.5272 0.5332 0.4078 0.3761 0.3754 0.3662 0.3731 0.4085
2671.634 0.467 0.4575 0.3843 0.3854 0.4354 0.5002 0.4732 0.3978 0.3687 0.2998
2690.924 0.4043 0.4789 0.3998 0.4457 0.5364 0.5341 0.5642 0.5784 0.5141 0.3997
2710.214 0.4019 0.5223 0.4968 0.4698 0.5043 0.5312 0.4652 0.5268 0.5922 0.4268
2729.504 0.3639 0.366 0.309 0.3464 0.3909 0.3568 0.4043 0.3988 0.362 0.29316
2748.794 0.22285 0.26614 0.29221 0.3291 0.3731 0.3052 0.4146 0.4685 0.27032 0.25738
2768.083 0.3523 0.4067 0.4791 0.493 0.4692 0.4766 0.3647 0.28441 0.28188 0.3302
2787.373 0.3961 0.3844 0.4421 0.4334 0.2973 0.29265 0.29755 0.28139 0.3491 0.3075
2806.663 0.28183 0.3211 0.3535 0.3601 0.28377 0.28751 0.207446 0.29829 0.4714 0.4147
2825.953 0.22886 0.1675 0.3132 0.26936 0.151 0.26822 0.492 0.5295 0.5308 0.5314
2845.242 0.4762 0.4988 0.5445 0.5123 0.3521 0.3203 0.3713 0.4336 0.5279 0.5705
2864.532 0.5866 0.5931 0.5477 0.4464 0.5047 0.6386 0.6315 0.6094 0.506 0.5053
2883.822 0.5802 0.5598 0.5978 0.5632 0.5941 0.5185 0.4255 0.4866 0.4377 0.4155
2903.112 0.4982 0.5654 0.5682 0.4498 0.4428 0.6052 0.721 0.5875 0.435 0.4693
2922.401 0.6021 0.5823 0.5414 0.6662 0.6735 0.7083 0.6618 0.6128 0.6089 0.6265
2941.691 0.602 0.4683 0.5148 0.5043 0.4326 0.4926 0.4235 0.2878 0.25356 0.4634
2960.981 0.5232 0.4077 0.4071 0.4614 0.4882 0.4776 0.4848 0.4879 0.5978 0.6468
2980.271 0.5671 0.6372 0.7351 0.6744 0.7162 0.88 0.8894 0.9508 1.0938 1.249
2999.561 1.399 1.389 1.569 1.729 1.849 2.179 2.519 2.759 3.099 3.459
3018.850 3.739 4.109 4.309 4.559 5.069 5.539 6.119 6.709 6.939 7.139
3038.140 7.299 7.439 7.749 7.959 8.169 8.419 8.709 8.929 9.299 9.839
3057.430 10.579 11.659 12.709 13.609 14.599 15.529 16.099 16.629 16.909 17.009
3076.720 16.899 16.589 16.329 15.459 14.289 13.289 12.539 12.149 11.999 12.019
3096.009 11.879 11.189 10.289 9.439 8.419 7.449 6.639 5.969 5.379 4.659
3115.299 3.849 3.139 2.519 2.029 1.719 1.489 1.349 1.209 1.031 1.0578
3134.589 1.1236 1.269 1.209 0.9683 0.8307 0.6723 0.8237 0.9941 0.9328 0.836
3153.879 0.8163 0.7586 0.7213 0.5178 0.4947 0.642 0.5522 0.4516 0.3772 0.4078
3173.169 0.3896 0.5283 0.451 0.24577 0.4806 0.4666 0.4045 0.5153 0.3779 0.4099
3192.458 0.3686 0.3374 0.3321 0.22101 0.4252 0.5284 0.4091 0.4114 0.3678 0.4094
3211.748 0.5046 0.3655 0.336 0.3786 0.21412 0.19623 0.4216 0.4794 0.5736 0.6388
3231.038 0.548 0.4116 0.3811 0.6409 0.7287 0.6242 0.605 0.6906 0.6879 0.6526
3250.328 0.6309 0.6642 0.8304 0.9779 0.9628 1.059 1.1889 1.249 1.519 1.719
3269.617 1.929 2.339 2.579 3.019 3.319 3.459 3.919 4.429 5.059 5.649
3288.907 6.269 7.009 7.639 8.439 9.379 9.979 10.639 11.609 12.719 13.849
3308.197 14.859 15.909 17.319 18.879 20.489 22.509 24.569 26.169 27.129 27.859
3327.487 28.389 27.919 26.229 23.889 22.319 21.989 21.649 19.879 16.909 13.309
3346.777 9.579 6.619 4.629 3.529 2.969 2.419 1.859 1.449 1.1878 1.1875
3366.066 1.1415 1.0601 1.078 1.0051 0.8212 0.669 0.7845 0.8867 0.8151 0.5079
3385.356 0.3559 0.5474 0.4821 0.29817 0.3785 0.4018 0.4662 0.5429 0.4933 0.467
3404.646 0.4473 0.5327 0.5872 0.4998 0.4288 0.3966 0.5031 0.5291 0.2484 0.29816
3423.936 0.3738 0.25618 0.25941 0.4101 0.6208 0.5609 0.5155 0.4218 0.28346 0.23173
3443.225 0.1782 0.3027 0.4327 0.6031 0.6676 0.7034 0.5535 0.4774 0.5733 0.5947
3462.515 0.7553 0.927 0.9408 0.7437 0.8832 1.0239 0.9246 0.9638 1.1076 1.0231
3481.805 0.9447 1.1468 1.199 1.0725 1.0491 1.0075 0.9843 0.844 0.7119 0.6534
3501.095 0.632 0.7258 0.9369 1.319 1.449 1.1933 1.0968 1.0896 0.9484 0.8349
3520.385 1.0116 1.0853 0.8211 0.7455 0.7435 0.6412 0.6614 0.8504 0.7198 0.6864
3539.674 0.849 1.1782 1.339 1.339 1.409 1.469 1.889 2.369 2.719 3.299
3558.964 4.359 6.059 8.909 13.239 18.439 23.099 25.319 25.159 24.649 24.229
3578.254 21.969 16.899 11.429 7.699 5.469 4.279 3.729 3.509 3.359 3.389
3597.544 3.369 3.249 2.949 2.559 2.379 2.419 2.189 1.719 1.609 1.639
3616.833 1.799 1.829 1.959 2.329 2.429 2.589 2.679 2.769 2.859 2.709
3636.123 2.589 2.399 2.169 1.999 1.749 1.469 1.249 1.0655 0.9214 0.9845
3655.413 0.9338 0.6779 0.6161 0.8005 0.9556 1.0384 0.9549 0.9435 1.0847 1.239
3674.703 1.459 1.449 1.359 1.669 2.019 2.219 2.229 2.289 2.579 2.769
3693.993 2.789 2.739 2.879 2.899 3.019 3.139 3.039 2.889 2.579 2.149
3713.282 1.889 1.789 1.859 2.069 2.499 2.879 2.899 3.069 3.509 3.879
3732.572 4.039 4.199 4.189 3.949 3.559 3.209 2.989 2.609 2.169 1.869
3751.862 1.439 1.0208 0.7892 0.6494 0.5157 0.3372 0.3311 0.3051 0.28508 0.3687
3771.152 0.4421 0.4086 0.3958 0.26163 0.21234 0.1479 0.08 0.28147 0.3706 0.24759
3790.441 0.1048 0.18944 0.1771 0.1873 0.3614 0.3521 0.4614 0.5637 0.4368 0.3415
3809.731 0.27023 0.19287 0.1806 0.4296 0.5859 0.4219 0.4138 0.4558 0.19508 0.4581
3829.021 0.8596 0.7161 0.4192 0.4248 0.4058 0.1637 0.28154 0.3944 0.3997 0.3463
3848.311 0.3391 0.3338 0.1621 0 0.067 0.1033 0.3663 0.5784 0.4097 0.3339
3867.601 0.3431 0.3484 0.4018 0.3627 0.3371 0.25149 0.1592 0.26095 0.3104 0.4212
3886.890 0.5951 0.4627 0.23434 0.19195 0.1495 0.1362 0.206355 0.4344 0.4112 0.1788
3906.180 0.27328 0.23588 0.202337 0.4536 0.4244 0.4091 0.5026 0.28751 0.3283 0.823
3925.470 0.7768 0.4798 0.6703 0.8199 0.8701 0.6481 0.4655 0.4556 0.5708 0.7602
3944.760 0.6526 0.5978 0.527 0.4568 0.5985 0.5542 0.3767 0.4124 0.4504 0.27186
3964.049 0.1046 0.24568 0.3248 0.23404 0.1079 0.22664 0.4034 0.4171 0.4651 0.4141
3983.339 0.4113 0.5389 0.5581 0.5255 0.5238 0.5206 0.5557 0.5407 0.3496 0.200906
##END=
