##TITLE=4-Vinylanisole
##JCAMP-DX=4.24
##DATA TYPE=INFRARED SPECTRUM
##ORIGIN=NIST Mass Spectrometry Data Center
##OWNER=NIST Standard Reference Data Program
Collection (C) 2018 copyright by the U.S. Secretary of Commerce
on behalf of the United States of America. All rights reserved.
##CAS REGISTRY NO=637-69-4
##MOLFORM=C 9 H 10 O
##$NIST SOURCE=MSDC-IR
##SPECTROMETER/DATA SYSTEM=HP-GC/MS/IRD
##STATE=gas
##XUNITS=1/CM
##YUNITS=ABSORBANCE
##XFACTOR=1.0
##YFACTOR=0.000004400
##DELTAX=4.0
##FIRSTX=550.0
##LASTX=3846.0
##FIRSTY=0.001298
##MAXX=3846
##MINX=550
##MAXY=0.044
##MINY=0
##NPOINTS=825
##XYDATA=(X++(Y..Y))
550.0 295 396 280 254 211 190 140 111 112 99
590.0 67 49 43 29 30 34 30 22 28 40
630.0 55 75 74 65 60 43 33 24 10 2
670.0 4 16 40 60 70 107 168 241 315 358
710.0 362 329 242 142 76 44 35 42 38 30
750.0 33 39 41 44 62 73 69 87 121 159
790.0 198 249 340 460 587 743 978 1283 1630 1948
830.0 2341 2657 2431 2033 1722 1364 1011 726 522 408
870.0 368 382 438 539 680 843 993 1169 1338 1314
910.0 1157 991 821 647 487 372 297 256 249 263
950.0 286 316 373 444 512 600 694 766 837 916
990.0 913 859 838 835 856 936 1134 1409 1682 1936
1030.0 2142 2256 2282 2219 2048 1795 1485 1135 816 599
1070.0 454 366 323 285 276 288 311 353 409 448
1110.0 454 453 441 397 327 282 278 282 306 362
1150.0 447 617 955 1596 2422 2935 3048 2874 2233 1457
1190.0 1003 806 731 733 794 897 1061 1324 1724 2325
1230.0 3222 4535 6270 8129 9543 10000 9320 7712 5699 4026
1270.0 3153 2872 2833 2860 2835 2728 2525 2210 1856 1524
1310.0 1225 983 820 716 618 510 413 345 294 252
1350.0 228 210 195 182 172 171 172 176 190 211
1390.0 246 297 365 451 528 576 596 588 558 537
1430.0 553 615 721 819 883 959 1022 1072 1165 1237
1470.0 1234 1190 1134 1096 1161 1485 2246 3692 5723 7468
1510.0 8059 7521 5989 3634 1762 930 611 465 391 357
1550.0 351 366 417 494 586 690 791 889 998 1161
1590.0 1435 1832 2281 2689 2942 2966 2789 2512 2245 2000
1630.0 1759 1522 1227 874 589 427 328 256 212 180
1670.0 156 137 118 107 98 88 83 83 80 75
1710.0 75 82 87 85 81 81 86 98 111 116
1750.0 121 118 110 97 84 71 69 74 82 88
1790.0 102 129 165 210 251 278 284 265 228 182
1830.0 141 109 93 93 92 92 94 104 122 139
1870.0 154 163 167 168 158 140 115 93 82 70
1910.0 58 52 48 49 52 54 68 84 99 108
1950.0 112 125 133 128 120 113 106 95 90 89
1990.0 88 93 92 87 86 83 78 73 74 76
2030.0 78 88 101 109 120 136 147 156 165 173
2070.0 173 165 157 147 130 113 95 80 65 53
2110.0 42 35 32 25 23 19 12 9 11 10
2150.0 6 5 2 4 5 4 4 1 4 7
2190.0 6 9 17 25 28 28 34 37 37 32
2230.0 24 17 11 11 11 12 15 16 20 22
2270.0 29 40 44 47 52 53 47 47 48 45
2310.0 45 45 42 40 40 38 36 34 31 28
2350.0 25 20 16 10 6 8 7 6 10 10
2390.0 9 15 22 30 36 41 45 45 47 48
2430.0 48 44 37 33 32 34 26 22 34 36
2470.0 37 45 45 41 44 52 55 57 57 59
2510.0 60 62 71 80 80 81 88 92 93 95
2550.0 94 87 74 59 48 42 35 27 24 23
2590.0 22 29 28 25 24 21 24 22 14 14
2630.0 20 19 16 15 17 19 17 13 9 1
2670.0 5 8 9 10 8 7 13 20 17 15
2710.0 15 16 17 19 22 21 23 31 29 30
2750.0 39 46 49 46 49 60 64 65 79 88
2790.0 97 116 138 155 169 197 230 271 327 405
2830.0 522 703 903 1032 1065 1001 842 660 525 447
2870.0 404 381 374 382 407 447 497 562 648 752
2910.0 855 942 1004 1031 1058 1125 1231 1359 1474 1538
2950.0 1553 1527 1457 1355 1236 1128 1051 1002 982 1010
2990.0 1082 1222 1471 1776 2015 2089 1993 1743 1419 1173
3030.0 1082 1095 1122 1115 1065 982 890 814 766 758
3070.0 785 827 881 969 1127 1260 1255 1188 1037 762
3110.0 525 402 329 270 222 187 159 139 118 98
3150.0 85 76 67 62 56 57 55 37 39 51
3190.0 46 43 38 37 43 48 48 42 41 39
3230.0 37 35 26 22 23 24 25 26 23 18
3270.0 16 16 16 13 12 17 16 10 7 13
3310.0 16 13 14 11 9 19 18 8 7 13
3350.0 18 30 27 8 0 6 11 15 22 25
3390.0 16 5 1 7 11 5 5 7 3 8
3430.0 8 4 6 15 17 11 7 5 17 22
3470.0 6 0 7 18 22 11 8 19 16 6
3510.0 6 5 8 9 9 13 14 17 23 16
3550.0 11 19 18 5 6 24 25 22 25 23
3590.0 23 25 20 19 17 15 14 14 11 9
3630.0 10 8 11 22 29 29 31 31 30 36
3670.0 42 43 42 34 24 21 21 27 27 26
3710.0 28 24 37 44 37 39 29 17 23 33
3750.0 29 27 29 28 24 21 21 32 36 26
3790.0 24 27 25 22 21 11 6 11 12 21
3830.0 33 40 44 38 33
##END=
