##TITLE=2-Amino-4-acetamidoanisole
##JCAMP-DX=4.24
##DATA TYPE=INFRARED SPECTRUM
##ORIGIN=NIST Mass Spectrometry Data Center
##OWNER=NIST Standard Reference Data Program
Collection (C) 2018 copyright by the U.S. Secretary of Commerce
on behalf of the United States of America. All rights reserved.
##CAS REGISTRY NO=6375-47-9
##MOLFORM=C 9 H 12 N 2 O 2
##$NIST SOURCE=MSDC-IR
##SPECTROMETER/DATA SYSTEM=HP-GC/MS/IRD
##STATE=gas
##XUNITS=1/CM
##YUNITS=ABSORBANCE
##XFACTOR=1.0
##YFACTOR=0.000003100
##DELTAX=4.0
##FIRSTX=550.0
##LASTX=3846.0
##FIRSTY=0.001135
##MAXX=3846
##MINX=550
##MAXY=0.031
##MINY=0
##NPOINTS=825
##XYDATA=(X++(Y..Y))
550.0 366 489 335 375 353 357 359 375 381 384
590.0 398 410 394 391 390 382 394 385 389 405
630.0 388 400 401 367 348 349 345 343 338 310
670.0 284 285 289 280 265 247 238 223 219 220
710.0 213 207 200 191 193 198 209 241 268 328
750.0 427 527 598 629 616 579 567 577 577 557
790.0 529 496 467 444 398 336 281 259 276 299
830.0 316 322 308 309 323 354 394 421 418 371
870.0 301 226 158 114 82 62 57 60 64 51
910.0 47 46 34 43 50 52 57 56 67 90
950.0 108 128 151 175 211 251 307 382 478 582
990.0 687 769 808 821 829 854 932 1066 1193 1290
1030.0 1351 1346 1279 1166 1008 848 694 564 494 443
1070.0 399 380 371 366 365 363 346 312 277 248
1110.0 214 187 173 189 215 264 359 454 522 545
1150.0 536 543 601 726 888 1005 1013 959 932 974
1190.0 1102 1317 1674 2276 3236 4608 6318 8010 9175 9433
1230.0 8734 7356 5681 4087 2853 2063 1623 1393 1305 1325
1270.0 1446 1648 1892 2118 2272 2322 2260 2120 1972 1847
1310.0 1717 1553 1351 1145 964 813 689 593 542 540
1350.0 587 712 943 1230 1484 1601 1539 1380 1191 1031
1390.0 956 966 1051 1217 1434 1678 1901 2058 2178 2315
1430.0 2488 2614 2614 2456 2164 1870 1657 1560 1599 1725
1470.0 1856 1987 2143 2381 2768 3331 4099 5130 6423 7882
1510.0 9235 10000 9871 8824 7216 5490 3991 2890 2135 1638
1550.0 1309 1086 938 832 766 737 743 778 850 963
1590.0 1115 1323 1578 1891 2246 2603 2896 3067 3041 2801
1630.0 2408 1954 1516 1167 914 741 631 563 531 524
1670.0 536 563 622 712 854 1056 1332 1704 2245 3087
1710.0 4355 5782 6738 6739 5784 4457 3352 2575 2022 1623
1750.0 1327 1081 863 676 526 421 348 291 243 202
1790.0 167 147 126 111 109 102 93 88 78 65
1830.0 56 55 49 37 33 32 24 15 13 13
1870.0 15 13 12 13 9 5 4 3 2 6
1910.0 6 0 0 11 16 15 18 23 20 18
1950.0 24 29 30 34 39 41 45 54 56 52
1990.0 47 46 42 30 30 37 35 36 40 39
2030.0 38 40 41 36 36 37 39 38 33 31
2070.0 38 40 34 32 30 23 21 22 19 20
2110.0 24 23 27 33 29 29 33 33 31 35
2150.0 36 32 32 35 36 33 33 36 38 38
2190.0 38 35 32 32 31 27 35 33 33 40
2230.0 42 49 46 44 48 52 54 51 57 63
2270.0 65 64 55 47 44 45 43 40 39 41
2310.0 41 34 34 31 31 43 51 51 44 41
2350.0 44 47 49 55 54 55 52 42 45 44
2390.0 42 49 44 40 42 45 46 47 50 55
2430.0 56 49 51 52 48 43 47 51 47 50
2470.0 50 47 56 58 52 55 54 58 61 60
2510.0 61 55 51 44 43 45 44 49 57 54
2550.0 49 54 59 60 56 51 54 56 57 54
2590.0 52 55 60 60 58 58 60 59 53 52
2630.0 53 50 55 60 60 59 58 60 61 58
2670.0 60 66 67 65 69 69 68 69 68 67
2710.0 68 73 65 63 73 69 71 69 57 60
2750.0 74 78 76 78 77 76 69 66 80 91
2790.0 103 112 121 137 146 161 185 216 250 300
2830.0 373 495 627 716 719 631 515 417 356 322
2870.0 298 300 299 296 315 335 361 400 455 521
2910.0 588 653 706 733 758 810 899 1011 1119 1174
2950.0 1159 1081 971 874 771 685 621 563 545 570
2990.0 620 712 848 951 964 880 751 645 590 577
3030.0 575 570 560 535 490 444 418 404 388 381
3070.0 379 369 365 353 329 301 275 236 201 187
3110.0 179 170 159 150 131 124 123 111 104 100
3150.0 102 95 85 81 89 87 77 80 85 96
3190.0 90 90 95 84 84 83 76 68 65 62
3230.0 64 70 63 49 51 59 65 69 63 65
3270.0 64 53 51 51 54 53 48 53 58 63
3310.0 61 55 54 48 50 55 50 52 58 52
3350.0 58 66 70 76 82 98 111 115 132 171
3390.0 220 286 389 510 634 730 745 683 581 495
3430.0 415 368 340 310 304 320 345 383 437 467
3470.0 465 448 408 386 398 437 499 554 575 563
3510.0 511 416 313 242 178 131 122 118 106 85
3550.0 81 78 74 61 51 54 63 64 58 59
3590.0 55 59 59 47 35 35 46 49 45 46
3630.0 42 43 52 60 56 56 53 36 44 58
3670.0 56 45 37 49 66 58 46 54 58 60
3710.0 65 67 68 55 55 58 55 72 65 59
3750.0 57 54 64 62 55 56 54 56 67 67
3790.0 60 65 64 65 69 65 65 72 81 80
3830.0 72 76 76 73 80
##END=
