##TITLE=Acetoacet-2,5-dimethoxyanilide
##JCAMP-DX=4.24
##DATA TYPE=INFRARED SPECTRUM
##ORIGIN=NIST Mass Spectrometry Data Center
##OWNER=NIST Standard Reference Data Program
Collection (C) 2018 copyright by the U.S. Secretary of Commerce
on behalf of the United States of America. All rights reserved.
##CAS REGISTRY NO=6375-27-5
##MOLFORM=C 12 H 15 N O 4
##$NIST SOURCE=MSDC-IR
##SPECTROMETER/DATA SYSTEM=HP-GC/MS/IRD
##STATE=gas
##XUNITS=1/CM
##YUNITS=ABSORBANCE
##XFACTOR=1.0
##YFACTOR=0.000003900
##DELTAX=4.0
##FIRSTX=550.0
##LASTX=3846.0
##FIRSTY=0.000963
##MAXX=3846
##MINX=550
##MAXY=0.039
##MINY=0
##NPOINTS=825
##XYDATA=(X++(Y..Y))
550.0 247 297 148 156 179 202 207 200 194 189
590.0 190 206 201 204 232 249 264 261 285 321
630.0 308 304 316 310 293 294 300 285 287 303
670.0 290 270 284 298 311 348 407 518 670 828
710.0 922 917 824 677 558 478 419 379 372 386
750.0 430 490 534 567 581 570 570 584 591 585
790.0 563 533 487 426 386 370 380 418 475 528
830.0 590 661 708 731 675 555 439 318 212 142
870.0 92 67 51 44 45 51 57 59 61 63
910.0 68 74 79 88 98 121 174 219 256 267
950.0 262 236 196 167 147 145 158 193 246 291
990.0 332 385 446 518 618 745 876 1017 1192 1414
1030.0 1717 2069 2387 2607 2657 2503 2175 1759 1347 1015
1070.0 796 670 608 590 575 532 484 434 388 346
1110.0 304 280 287 309 353 426 497 579 672 791
1150.0 963 1205 1513 1822 2058 2186 2200 2112 2012 1997
1190.0 2076 2306 2758 3459 4471 5854 7555 9152 10000 9703
1230.0 8268 6058 3888 2414 1586 1119 842 674 573 523
1270.0 516 544 588 637 680 704 713 707 679 639
1310.0 598 551 484 408 324 245 180 120 77 48
1350.0 31 15 11 6 0 3 2 8 29 40
1390.0 47 63 77 100 140 186 255 355 479 621
1430.0 780 938 1056 1132 1182 1202 1226 1299 1406 1505
1470.0 1540 1533 1497 1469 1592 1995 2756 3966 5502 6957
1510.0 7821 7705 6664 5015 3389 2207 1478 1064 820 669
1550.0 575 520 489 466 456 476 524 595 685 819
1590.0 991 1209 1469 1786 2156 2541 2856 3017 2981 2743
1630.0 2353 1895 1438 1053 773 586 456 364 299 243
1670.0 206 178 148 130 115 103 86 70 64 54
1710.0 47 42 35 27 24 27 24 17 11 6
1750.0 5 6 8 6 9 17 14 14 23 26
1790.0 21 22 29 29 22 18 22 22 15 16
1830.0 18 16 15 18 15 11 11 11 13 23
1870.0 27 29 29 27 26 27 24 26 31 35
1910.0 40 38 35 32 28 26 22 22 25 29
1950.0 32 34 41 51 58 70 84 88 92 97
1990.0 98 93 84 79 76 72 77 79 78 82
2030.0 87 87 83 84 92 95 93 94 93 92
2070.0 93 87 79 75 71 59 55 54 49 49
2110.0 53 54 53 52 48 44 45 50 53 55
2150.0 54 59 61 58 58 57 53 49 47 51
2190.0 56 53 54 59 62 63 63 66 68 66
2230.0 69 70 74 74 72 67 64 65 64 63
2270.0 60 58 62 60 52 48 45 48 50 48
2310.0 46 44 44 42 40 41 37 35 39 41
2350.0 43 41 39 45 46 42 43 41 39 45
2390.0 48 46 47 51 48 45 49 54 57 52
2430.0 47 54 54 45 45 53 53 53 58 60
2470.0 57 57 57 57 63 68 70 75 77 80
2510.0 78 72 73 70 68 74 73 66 63 63
2550.0 66 67 63 65 70 67 67 67 63 66
2590.0 68 62 66 75 73 74 70 70 76 74
2630.0 72 72 75 76 78 80 77 67 64 62
2670.0 64 70 73 68 68 71 66 62 64 68
2710.0 76 78 78 87 89 83 83 90 96 100
2750.0 99 94 98 104 107 112 122 142 154 167
2790.0 186 214 246 275 306 337 382 446 534 667
2830.0 873 1108 1280 1327 1265 1098 895 742 649 603
2870.0 589 586 596 620 648 686 740 801 881 987
2910.0 1099 1197 1259 1297 1337 1420 1566 1755 1912 1983
2950.0 1954 1832 1627 1397 1201 1042 937 898 916 995
2990.0 1175 1419 1602 1632 1500 1234 909 676 559 507
3030.0 503 523 555 558 537 523 494 454 420 403
3070.0 390 367 360 351 329 316 297 269 246 226
3110.0 212 202 189 179 161 149 136 122 127 124
3150.0 115 113 117 116 115 120 126 116 105 101
3190.0 99 98 103 106 101 94 96 99 90 81
3230.0 86 84 73 62 67 72 70 74 72 75
3270.0 69 55 58 60 55 48 43 45 57 57
3310.0 53 53 47 53 56 53 50 46 54 67
3350.0 72 70 64 69 75 80 100 117 135 161
3390.0 202 256 334 417 472 481 442 378 277 203
3430.0 164 121 106 108 100 86 87 95 108 129
3470.0 153 176 206 262 331 402 466 502 493 456
3510.0 394 319 247 197 160 127 103 79 69 67
3550.0 67 60 49 55 59 50 47 50 49 47
3590.0 45 48 61 56 45 51 50 45 55 66
3630.0 66 55 45 45 55 59 49 49 47 58
3670.0 53 56 65 57 52 59 70 61 49 58
3710.0 66 67 75 82 79 76 77 81 77 71
3750.0 85 82 71 69 65 59 67 82 91 87
3790.0 71 58 57 65 64 67 79 80 81 76
3830.0 65 73 83 81 72
##END=
