##TITLE=Tetradecaneamide
##JCAMP-DX=4.24
##DATA TYPE=INFRARED SPECTRUM
##ORIGIN=EPA-IR VAPOR PHASE LIBRARY
##OWNER=SRD/NIST
Collection (C) 2018 copyright by the U.S. Secretary of Commerce
on behalf of the United States of America. All rights reserved.
##CAS REGISTRY NO=638-58-4
##MOLFORM=C 14 H 29 N O
##$NIST SOURCE=MSDC-IR
##STATE=gas
##XUNITS=1/CM
##YUNITS=ABSORBANCE
##XFACTOR=1.
##YFACTOR=0.001
##DELTAX=1.92898
##FIRSTX=549.8
##LASTX=4000.7
##FIRSTY=1.379
##MAXX=4000.7
##MINX=549.759
##MAXY=0.069399
##MINY=0
##NPOINTS=1790
##XYDATA=(X++(Y..Y))
549.759 1.379 1.569 1.819 1.849 1.659 1.649 1.669 1.539 1.889 2.109
569.049 1.919 1.679 1.729 2.099 2.209 2.119 1.949 1.899 1.939 2.129
588.339 2.349 2.469 2.359 2.289 2.209 2.069 2.079 2.049 2.169 2.409
607.628 2.429 2.409 2.459 2.389 2.369 2.349 2.129 1.779 1.709 1.769
626.918 1.589 1.449 1.519 1.579 1.579 1.539 1.379 1.1434 1.1555 1.0972
646.208 0.9433 0.9508 1.1336 1.199 1.0283 0.9903 1.0181 0.9361 0.9016 1.005
665.498 1.0299 1.0467 1.0226 1.0498 1.0756 0.9026 0.8333 0.8287 0.9791 1.219
684.787 1.209 1.1676 1.1723 1.1602 1.239 1.449 1.759 1.779 1.709 1.799
704.077 1.969 2.229 2.369 2.469 2.509 2.609 2.859 2.919 2.839 2.939
723.367 3.179 3.239 3.219 3.319 3.349 3.359 3.319 3.329 3.309 3.339
742.657 3.389 3.219 3.259 3.249 3.189 3.129 2.969 2.999 3.059 3.109
761.947 2.939 2.739 2.759 2.959 3.009 2.839 2.649 2.499 2.469 2.289
781.236 2.219 2.319 2.369 2.379 2.289 2.199 2.119 2.299 2.329 2.209
800.526 2.059 1.829 1.929 1.929 1.779 1.679 1.679 1.659 1.669 1.729
819.816 1.739 1.759 1.759 1.799 1.899 1.859 1.709 1.609 1.709 1.699
839.106 1.619 1.599 1.609 1.669 1.639 1.809 1.899 1.759 1.829 1.959
858.395 1.919 1.909 1.829 1.739 1.629 1.419 1.509 1.769 1.809 1.779
877.685 1.869 1.719 1.579 1.649 1.599 1.549 1.549 1.579 1.559 1.529
896.975 1.579 1.569 1.379 1.239 1.359 1.369 1.279 1.369 1.389 1.289
916.265 1.249 1.229 1.209 1.309 1.379 1.289 1.289 1.299 1.219 1.189
935.555 1.0696 0.9866 1.1231 1.289 1.229 1.1058 1.148 1.1576 1.0191 1.0717
954.844 1.199 1.1526 1.0969 1.1061 1.229 1.289 1.249 1.219 1.092 0.9458
974.134 0.9667 1.0576 1.0753 1.1128 1.1715 1.279 1.249 1.1695 1.1412 0.9744
993.424 0.9178 1.0242 1.179 1.1696 0.9932 1.0558 1.399 1.249 0.905 1.0175
1012.714 1.0136 1.0314 1.1395 1.1387 1.1175 0.986 1.0418 1.0659 1.199 1.289
1032.003 1.058 1.1417 1.1441 1.189 1.269 1.259 1.479 1.579 1.639 1.719
1051.293 1.689 1.779 1.569 1.419 1.519 1.619 1.569 1.419 1.449 1.479
1070.583 1.539 1.389 1.359 1.539 1.299 1.13 1.319 1.289 1.409 1.519
1089.873 1.349 1.229 1.329 1.299 1.279 1.239 1.126 1.1351 0.9659 1.0144
1109.163 1.399 1.409 1.0905 1.189 0.9963 0.9604 1.116 1.0926 1.1446 0.9374
1128.452 1.072 1.359 0.9533 0.7572 0.8893 1.0048 1.279 1.0879 0.724 0.7236
1147.742 0.9856 1.1382 0.937 0.9981 1.319 1.279 1.0884 1.1241 1.219 1.189
1167.032 1.1295 1.1773 1.299 1.239 1.369 1.639 1.449 1.339 1.529 1.579
1186.322 1.419 1.389 1.419 1.459 1.659 1.609 1.569 1.509 1.799 1.899
1205.611 1.779 2.169 2.269 2.179 2.199 2.429 2.409 2.299 2.369 2.479
1224.901 2.669 2.799 3.049 3.089 3.179 3.309 3.279 3.519 3.709 3.909
1244.191 4.049 4.039 4.129 4.269 4.419 4.639 4.799 5.019 5.209 5.299
1263.481 5.429 5.479 5.499 5.629 5.779 5.749 5.769 5.939 5.999 5.909
1282.771 5.769 5.659 5.639 5.599 5.549 5.449 5.329 5.369 5.439 5.459
1302.060 5.439 5.369 5.329 5.289 5.239 5.189 5.169 5.209 5.199 5.199
1321.350 5.299 5.409 5.499 5.629 5.809 6.049 6.269 6.489 6.709 6.949
1340.640 7.129 7.299 7.449 7.529 7.659 7.759 7.789 7.859 7.979 8.009
1359.930 7.969 7.939 7.989 7.999 8.009 8.019 7.929 7.839 7.649 7.369
1379.219 7.059 6.709 6.289 5.859 5.409 4.949 4.489 4.069 3.749 3.449
1398.509 3.189 2.969 2.809 2.649 2.489 2.379 2.279 2.219 2.199 2.169
1417.799 2.169 2.219 2.249 2.299 2.399 2.469 2.619 2.769 2.869 2.969
1437.089 3.139 3.339 3.569 3.759 3.989 4.259 4.519 4.839 5.149 5.459
1456.378 5.749 5.959 6.029 5.999 5.849 5.539 5.129 4.699 4.249 3.769
1475.668 3.339 2.909 2.529 2.249 2.049 1.819 1.609 1.449 1.309 1.259
1494.958 1.1723 1.0751 1.0381 1.051 1.0617 0.9996 0.9395 0.9042 0.9213 0.9077
1514.248 0.8581 0.8924 0.9347 0.9164 0.8726 0.8045 0.8218 0.925 0.9825 1.0281
1533.538 1.023 1.0393 1.1349 1.219 1.209 1.199 1.329 1.479 1.569 1.669
1552.827 1.769 1.949 2.149 2.379 2.609 2.899 3.249 3.539 3.949 4.429
1572.117 4.989 5.649 6.419 7.349 8.309 9.139 9.879 10.469 10.579 10.339
1591.407 9.889 9.359 8.709 7.959 7.249 6.559 5.909 5.339 4.839 4.359
1610.697 3.929 3.609 3.369 3.089 2.849 2.639 2.419 2.269 2.149 1.999
1629.986 1.919 1.839 1.759 1.669 1.569 1.469 1.469 1.509 1.479 1.479
1649.276 1.459 1.489 1.509 1.549 1.619 1.689 1.779 1.799 1.909 2.099
1668.566 2.229 2.309 2.469 2.729 2.939 3.129 3.469 3.779 4.129 4.589
1687.856 4.999 5.469 6.099 6.749 7.489 8.309 9.059 10.009 10.919 11.859
1707.146 12.859 13.949 15.099 16.279 17.609 18.969 20.419 21.989 23.519 25.019
1726.435 26.409 27.419 28.089 28.319 27.919 27.029 25.819 24.279 22.619 20.949
1745.725 19.279 17.649 16.129 14.689 13.369 12.129 10.889 9.759 8.699 7.669
1765.015 6.719 5.879 5.129 4.479 3.929 3.479 3.039 2.669 2.429 2.199
1784.305 1.959 1.779 1.629 1.489 1.379 1.249 1.189 1.1335 1.0487 1.0263
1803.594 0.9988 0.8848 0.7844 0.7646 0.7596 0.692 0.6826 0.6679 0.6196 0.6378
1822.884 0.6587 0.6355 0.5878 0.5696 0.6012 0.5872 0.5522 0.5653 0.5544 0.5425
1842.174 0.5719 0.568 0.5541 0.5381 0.5149 0.5183 0.5509 0.5526 0.5649 0.5574
1861.464 0.4981 0.4724 0.4971 0.4914 0.4442 0.4416 0.451 0.4407 0.4275 0.3827
1880.754 0.3847 0.426 0.3785 0.3265 0.3348 0.3639 0.3815 0.4296 0.443 0.3869
1900.043 0.3657 0.3882 0.4311 0.399 0.3127 0.3418 0.3636 0.3696 0.4334 0.4033
1919.333 0.3459 0.3642 0.3672 0.3483 0.3924 0.441 0.4304 0.397 0.3757 0.3923
1938.623 0.4229 0.3912 0.36 0.3753 0.4112 0.4153 0.3764 0.3791 0.3742 0.3567
1957.913 0.3248 0.3269 0.401 0.3442 0.3249 0.3918 0.3793 0.3994 0.4005 0.3406
1977.202 0.3225 0.3809 0.3609 0.3048 0.26311 0.20108 0.26825 0.3683 0.3938 0.4209
1996.492 0.3557 0.3076 0.37 0.3667 0.3226 0.3004 0.3226 0.3547 0.3759 0.4258
2015.782 0.4029 0.3626 0.3762 0.384 0.3802 0.393 0.3953 0.3706 0.4215 0.3973
2035.072 0.3607 0.3569 0.367 0.4193 0.4016 0.3912 0.3863 0.3706 0.3672 0.3243
2054.362 0.2972 0.3264 0.3533 0.3255 0.3067 0.3718 0.37 0.3826 0.4171 0.3462
2073.651 0.3115 0.3443 0.3429 0.3494 0.3353 0.3327 0.3609 0.3178 0.3056 0.305
2092.941 0.2554 0.26588 0.2843 0.2984 0.3156 0.3273 0.3479 0.3144 0.2941 0.3334
2112.231 0.3013 0.26103 0.23876 0.26825 0.3593 0.3738 0.3118 0.2952 0.3564 0.3925
2131.521 0.4002 0.3796 0.3652 0.3279 0.3121 0.3421 0.321 0.27583 0.24089 0.253
2150.810 0.3059 0.3059 0.319 0.3081 0.3143 0.3444 0.3656 0.394 0.3343 0.3033
2170.100 0.3734 0.4025 0.3769 0.4042 0.37 0.3567 0.4178 0.4172 0.4091 0.3804
2189.390 0.3826 0.4061 0.4111 0.4015 0.37 0.3778 0.3782 0.3609 0.3769 0.3509
2208.680 0.3232 0.3486 0.3269 0.3267 0.375 0.3392 0.26724 0.2863 0.3451 0.3616
2227.970 0.3732 0.3553 0.3501 0.3602 0.3433 0.3667 0.3572 0.3625 0.3938 0.391
2247.259 0.3565 0.3419 0.367 0.3645 0.3884 0.3482 0.3565 0.4048 0.3621 0.3403
2266.549 0.3712 0.4368 0.4182 0.3716 0.3261 0.3016 0.3005 0.3276 0.3968 0.3801
2285.839 0.326 0.3013 0.3866 0.4982 0.4726 0.4135 0.4088 0.4305 0.4512 0.399
2305.129 0.4098 0.4267 0.3491 0.3307 0.3256 0.3684 0.3766 0.2955 0.2896 0.3334
2324.418 0.3569 0.3417 0.3404 0.4153 0.4289 0.3676 0.3501 0.3698 0.3897 0.3478
2343.708 0.3413 0.3879 0.4032 0.3529 0.308 0.366 0.411 0.4173 0.4179 0.4336
2362.998 0.398 0.3709 0.3813 0.3764 0.424 0.453 0.4454 0.4184 0.4171 0.4369
2382.288 0.4067 0.3861 0.3346 0.25545 0.3012 0.3633 0.3043 0.23685 0.27029 0.334
2401.578 0.3359 0.3559 0.4121 0.3601 0.3065 0.3436 0.3453 0.3593 0.3639 0.3841
2420.867 0.4625 0.4293 0.3811 0.3781 0.3528 0.3132 0.27084 0.2969 0.3655 0.3893
2440.157 0.3156 0.3067 0.34 0.2923 0.26253 0.25549 0.23377 0.2813 0.4015 0.4163
2459.447 0.3941 0.3855 0.3851 0.4175 0.4225 0.3842 0.3297 0.3116 0.302 0.2986
2478.737 0.3039 0.3263 0.3403 0.348 0.375 0.3346 0.2687 0.3341 0.4018 0.386
2498.026 0.3697 0.3457 0.334 0.3144 0.3678 0.4185 0.365 0.405 0.4803 0.4798
2517.316 0.4129 0.3682 0.3826 0.3961 0.3492 0.3443 0.433 0.447 0.411 0.4145
2536.606 0.4681 0.4844 0.4848 0.4837 0.5033 0.538 0.5036 0.4556 0.4496 0.4774
2555.896 0.5197 0.5039 0.4514 0.4192 0.4022 0.4411 0.4615 0.4722 0.4965 0.4497
2575.186 0.4667 0.5324 0.5923 0.5848 0.4937 0.5018 0.5534 0.5784 0.5442 0.5425
2594.475 0.5259 0.5418 0.6026 0.5828 0.5726 0.568 0.6046 0.6325 0.6012 0.6208
2613.765 0.5646 0.5202 0.6032 0.6093 0.5538 0.5493 0.5465 0.572 0.6165 0.6193
2633.055 0.6902 0.7014 0.6845 0.6475 0.6346 0.6984 0.7315 0.7375 0.7569 0.7876
2652.345 0.8244 0.8208 0.767 0.7918 0.8723 0.8881 0.8406 0.7308 0.7251 0.8899
2671.634 0.973 0.9229 0.8665 0.8673 0.8643 0.8422 0.8872 0.9518 0.9587 0.9369
2690.924 0.8788 0.8604 0.8729 0.9249 1.0197 1.0585 1.0111 0.8556 0.8496 0.9326
2710.214 0.9524 0.9526 0.8519 0.7448 0.7677 0.8864 0.9023 0.9135 0.9798 0.972
2729.504 0.9364 0.9559 0.9911 0.9341 0.8755 0.8965 1.013 1.0802 1.0122 1.0284
2748.794 1.0435 0.9741 0.9647 0.9846 0.9736 1.0394 1.0462 1.0054 1.0483 1.1451
2768.083 1.1733 1.1353 1.179 1.269 1.379 1.399 1.299 1.279 1.349 1.409
2787.373 1.529 1.589 1.509 1.549 1.609 1.649 1.779 1.939 2.009 2.089
2806.663 2.199 2.189 2.259 2.529 2.709 2.769 2.849 2.969 3.239 3.369
2825.953 3.399 3.629 3.979 4.249 4.529 4.929 5.309 5.819 6.489 7.319
2845.242 8.279 9.469 11.199 13.229 15.469 18.049 20.669 23.059 24.809 25.799
2864.532 26.069 25.339 24.099 22.689 20.949 19.369 18.109 17.059 16.209 15.509
2883.822 14.969 14.439 14.079 13.969 13.939 14.149 14.589 15.229 16.229 17.429
2903.112 18.699 20.179 21.969 23.979 26.149 28.599 31.429 34.609 38.429 43.039
2922.401 48.159 53.599 59.159 64.029 67.559 69.399 69.249 67.299 63.779 59.159
2941.691 54.109 49.029 44.029 39.319 35.209 31.749 28.799 26.479 24.789 23.459
2960.981 22.479 21.679 20.829 20.049 19.159 17.859 16.229 14.449 12.629 11.029
2980.271 9.749 8.569 7.539 6.769 6.199 5.579 5.059 4.589 4.149 3.849
2999.561 3.619 3.429 3.209 3.009 2.769 2.669 2.619 2.479 2.359 2.279
3018.850 2.229 2.129 1.919 1.729 1.689 1.639 1.659 1.689 1.559 1.369
3038.140 1.329 1.299 1.229 1.269 1.269 1.199 1.1678 1.1624 1.189 1.1717
3057.430 1.1399 1.1301 0.9799 0.8201 0.8111 0.8716 0.8449 0.8231 0.8707 0.7781
3076.720 0.586 0.5608 0.6612 0.8063 0.8859 0.7902 0.76 0.8314 0.8008 0.8008
3096.009 0.8407 0.7078 0.6199 0.7735 0.7863 0.691 0.6676 0.5951 0.6638 0.7062
3115.299 0.5869 0.5229 0.682 0.766 0.7812 0.7527 0.6541 0.6137 0.6121 0.6921
3134.589 0.5301 0.4943 0.6349 0.568 0.5267 0.6071 0.6617 0.7128 0.6658 0.5044
3153.879 0.5239 0.5307 0.4554 0.5742 0.6853 0.5855 0.5955 0.5712 0.5239 0.5434
3173.169 0.4985 0.555 0.5997 0.4607 0.3931 0.4147 0.345 0.4978 0.5742 0.5172
3192.458 0.5533 0.5045 0.4806 0.454 0.472 0.4414 0.4292 0.4021 0.26131 0.3182
3211.748 0.4177 0.3728 0.2846 0.2037 0.21447 0.3241 0.3886 0.3284 0.26653 0.3134
3231.038 0.25647 0.2883 0.3543 0.27712 0.3311 0.3965 0.343 0.26048 0.3045 0.305
3250.328 0.338 0.4246 0.3636 0.4059 0.3955 0.2512 0.19775 0.179553 0.1961 0.21873
3269.617 0.2722 0.20809 0.2257 0.3293 0.364 0.369 0.2417 0.3002 0.387 0.3732
3288.907 0.3727 0.3278 0.1512 0.1145 0.297 0.3333 0.26664 0.2748 0.333 0.3068
3308.197 0.20373 0.3046 0.376 0.1635 0.1222 0.22409 0.26476 0.21512 0.23331 0.332
3327.487 0.2974 0.3045 0.24053 0.1288 0 0.04 0.2419 0.27018 0.3734 0.3775
3346.777 0.24896 0.3347 0.4299 0.4464 0.4821 0.3671 0.20434 0.3973 0.4515 0.26995
3366.066 0.3229 0.369 0.4776 0.6665 0.6703 0.5152 0.6194 0.8042 0.6471 0.4364
3385.356 0.4861 0.6548 0.818 0.8658 0.896 0.9223 1.0456 1.209 1.289 1.399
3404.646 1.289 1.259 1.539 1.679 1.729 1.969 2.089 2.209 2.279 2.289
3423.936 2.319 2.169 2.349 2.649 2.589 2.749 2.909 2.959 2.999 2.909
3443.225 2.809 2.569 2.129 1.759 1.559 1.359 1.239 1.269 1.299 1.199
3462.515 1.1196 0.9867 0.8437 0.8079 0.8204 0.819 0.7579 0.8035 0.7998 0.664
3481.805 0.74 0.9402 0.9202 0.7743 0.707 0.6838 0.7099 0.747 0.7943 1.0327
3501.095 1.1674 1.036 1.0486 1.219 1.1434 1.179 1.1179 1.1335 1.409 1.519
3520.385 1.529 1.479 1.539 1.699 1.719 1.599 1.689 1.629 1.489 1.489
3539.674 1.499 1.549 1.699 1.849 1.959 2.059 2.099 2.189 2.369 2.599
3558.964 2.829 2.759 2.459 2.309 2.239 2.019 1.679 1.389 1.1152 1.0113
3578.254 1.0876 0.9036 0.7089 0.7576 0.7651 0.6806 0.568 0.5126 0.598 0.534
3597.544 0.3013 0.3168 0.4769 0.4534 0.4109 0.422 0.4181 0.3767 0.3364 0.3471
3616.833 0.2038 0.18905 0.3021 0.3529 0.3156 0.184566 0.1027 0.118 0.26583 0.3697
3636.123 0.1582 0.019 0.1688 0.3157 0.3764 0.418 0.4416 0.4887 0.4458 0.3745
3655.413 0.4313 0.3363 0.4215 0.4943 0.3986 0.3868 0.4085 0.4739 0.4754 0.4339
3674.703 0.4132 0.3152 0.3381 0.3416 0.157 0.1601 0.2279 0.2532 0.21648 0.22619
3693.993 0.1246 0.19919 0.4236 0.3255 0.20743 0.23438 0.3428 0.4052 0.4143 0.455
3713.282 0.4472 0.5065 0.5673 0.4677 0.3291 0.3009 0.368 0.3203 0.22865 0.185296
3732.572 0.21096 0.1453 0.2881 0.2878 0.072 0.17051 0.22174 0.2956 0.3082 0.3073
3751.862 0.5201 0.482 0.4015 0.5005 0.5188 0.3345 0.3425 0.4503 0.3263 0.4612
3771.152 0.468 0.3113 0.3307 0.3745 0.24983 0.028 0.2219 0.3322 0.2866 0.3897
3790.441 0.3905 0.3377 0.3338 0.445 0.5084 0.3351 0.26367 0.3678 0.3756 0.3035
3809.731 0.22817 0.3387 0.4935 0.5411 0.4608 0.293 0.3182 0.4389 0.5385 0.6262
3829.021 0.4712 0.3029 0.4609 0.4776 0.2295 0.3008 0.3703 0.309 0.4097 0.27185
3848.311 0.1621 0.179673 0.1029 0.22488 0.2891 0.26181 0.5117 0.6068 0.4002 0.302
3867.601 0.3027 0.297 0.2822 0.4216 0.488 0.413 0.512 0.455 0.323 0.26138
3886.890 0.27354 0.3602 0.4223 0.5679 0.4758 0.2809 0.3157 0.4717 0.4947 0.3437
3906.180 0.1026 0.17399 0.3236 0.3309 0.3833 0.22031 0.3341 0.4115 0.323 0.4806
3925.470 0.4449 0.379 0.4177 0.5782 0.6573 0.4028 0.3348 0.3605 0.4491 0.5117
3944.760 0.3782 0.3837 0.4061 0.3967 0.25832 0.1516 0.3172 0.4082 0.3675 0.3098
3964.049 0.4813 0.5923 0.3493 0.24958 0.20222 0.23 0.3447 0.27685 0.22339 0.3932
3983.339 0.4098 0.4652 0.7242 0.7258 0.6944 0.6739 0.5237 0.4969 0.6601 0.5904
##END=
