##TITLE=3-Pentanol formate
##JCAMP-DX=4.24
##DATA TYPE=INFRARED SPECTRUM
##ORIGIN=NIST Mass Spectrometry Data Center
##OWNER=NIST Standard Reference Data Program
Collection (C) 2018 copyright by the U.S. Secretary of Commerce
on behalf of the United States of America. All rights reserved.
##CAS REGISTRY NO=638-49-3
##MOLFORM=C 6 H 12 O 2
##$NIST SOURCE=MSDC-IR
##SPECTROMETER/DATA SYSTEM=HP-GC/MS/IRD
##STATE=gas
##XUNITS=1/CM
##YUNITS=ABSORBANCE
##XFACTOR=1.0
##YFACTOR=0.000001400
##DELTAX=4.0
##FIRSTX=550.0
##LASTX=3846.0
##FIRSTY=0.000477
##MAXX=3846
##MINX=550
##MAXY=0.014
##MINY=0
##NPOINTS=825
##XYDATA=(X++(Y..Y))
550.0 341 219 168 157 101 195 280 226 191 241
590.0 231 202 213 188 145 178 237 208 187 211
630.0 176 138 91 68 38 13 28 35 3 31
670.0 59 52 63 86 101 106 118 78 59 48
710.0 44 64 65 71 91 98 103 126 134 131
750.0 141 145 124 138 158 182 192 191 209 240
790.0 304 361 388 408 444 481 488 490 472 416
830.0 368 334 282 260 262 225 188 194 193 160
870.0 153 157 145 138 160 201 238 273 335 427
910.0 552 712 937 1229 1561 1891 2136 2318 2399 2379
950.0 2236 1987 1677 1348 1037 761 579 510 481 459
990.0 498 577 656 733 802 869 918 944 947 913
1030.0 854 781 703 661 649 614 599 567 575 657
1070.0 737 841 994 1142 1287 1473 1688 1926 2220 2482
1110.0 2612 2668 2726 2758 2728 2575 2338 2165 2119 2164
1150.0 2232 2318 2374 2402 2368 2273 2121 1933 1719 1482
1190.0 1247 1031 844 711 610 542 516 501 473 434
1230.0 445 489 504 503 520 544 542 546 548 527
1270.0 509 501 485 485 504 532 568 625 714 791
1310.0 903 1051 1212 1386 1580 1815 2072 2313 2517 2631
1350.0 2681 2670 2563 2406 2207 1994 1816 1691 1621 1615
1390.0 1656 1672 1631 1583 1586 1620 1670 1720 1785 1852
1430.0 1902 1937 1964 2004 2068 2191 2341 2401 2285 2145
1470.0 2063 1942 1729 1461 1200 982 824 706 616 549
1510.0 493 448 408 368 337 321 301 291 272 245
1550.0 231 235 242 217 197 184 179 193 192 195
1590.0 205 197 212 228 223 227 247 252 252 258
1630.0 268 286 306 312 324 369 399 411 458 528
1670.0 627 759 918 1136 1459 1889 2443 3172 4095 5188
1710.0 6385 7579 8652 9435 9878 10000 9861 9475 8681 7438
1750.0 5948 4534 3358 2437 1760 1287 956 728 568 459
1790.0 402 347 299 257 244 220 181 182 161 129
1830.0 130 125 119 115 111 102 94 88 76 77
1870.0 95 87 85 99 88 84 82 89 96 96
1910.0 89 84 81 69 83 96 89 99 97 90
1950.0 78 65 81 97 93 81 77 70 68 69
1990.0 76 79 67 66 73 69 59 71 72 55
2030.0 52 58 71 68 55 50 48 48 56 67
2070.0 60 47 51 56 55 61 58 54 58 62
2110.0 71 71 47 40 49 66 68 52 57 59
2150.0 59 53 38 34 52 59 58 51 30 21
2190.0 32 49 45 44 53 51 40 32 42 47
2230.0 36 31 28 33 35 16 22 44 49 53
2270.0 50 40 38 44 45 43 41 47 56 68
2310.0 63 56 61 75 84 87 89 81 75 73
2350.0 81 79 76 72 63 58 50 47 55 65
2390.0 65 64 63 59 50 44 57 63 50 51
2430.0 43 35 52 67 71 68 68 62 58 53
2470.0 55 66 67 57 38 40 50 37 38 40
2510.0 11 4 6 6 11 13 13 13 31 31
2550.0 28 35 29 16 25 31 38 38 34 39
2590.0 18 15 36 30 22 39 45 33 31 26
2630.0 4 9 29 34 28 25 36 43 54 50
2670.0 50 57 58 79 79 73 96 92 76 80
2710.0 84 86 90 107 125 135 142 137 148 169
2750.0 190 197 202 217 202 191 201 206 232 264
2790.0 282 314 357 393 428 448 491 537 595 648
2830.0 680 706 738 781 827 900 987 1091 1231 1404
2870.0 1610 1918 2299 2698 3059 3427 3800 4126 4397 4550
2910.0 4637 4706 4763 4801 4813 4900 5162 5505 5712 5798
2950.0 5864 5979 6174 6278 6313 6505 6824 7101 7220 7160
2990.0 6954 6414 5562 4628 3777 3079 2518 2078 1727 1448
3030.0 1220 1043 907 809 702 604 547 505 458 418
3070.0 389 391 397 354 321 317 303 284 278 277
3110.0 262 246 266 276 221 184 188 193 212 212
3150.0 196 189 179 171 171 189 195 157 131 156
3190.0 146 140 130 93 66 66 85 100 93 92
3230.0 80 38 40 38 35 46 42 52 65 62
3270.0 40 33 32 45 34 35 66 51 43 21
3310.0 3 20 29 64 64 65 65 53 42 49
3350.0 28 0 36 65 51 53 75 108 77 28
3390.0 66 79 94 102 138 166 181 185 173 208
3430.0 243 253 236 240 248 235 198 182 180 167
3470.0 140 122 114 67 76 102 60 31 25 32
3510.0 19 32 53 37 38 48 43 37 15 18
3550.0 56 73 61 45 16 31 64 52 36 20
3590.0 40 75 65 71 86 67 40 33 25 35
3630.0 51 46 36 44 62 38 1 36 67 59
3670.0 57 57 69 66 66 58 58 69 69 70
3710.0 83 69 41 65 68 42 46 48 45 41
3750.0 45 18 23 50 73 84 41 15 21 9
3790.0 7 37 79 88 71 72 82 62 72 61
3830.0 52 92 72 51 70
##END=
