##TITLE=Dodecyl-3-mercaptopropionate
##JCAMP-DX=4.24
##DATA TYPE=INFRARED SPECTRUM
##ORIGIN=EPA-IR VAPOR PHASE LIBRARY
##OWNER=SRD/NIST
Collection (C) 2018 copyright by the U.S. Secretary of Commerce
on behalf of the United States of America. All rights reserved.
##CAS REGISTRY NO=6380-71-8
##MOLFORM=C 15 H 30 O 2 S
##$NIST SOURCE=MSDC-IR
##STATE=gas
##XUNITS=1/CM
##YUNITS=ABSORBANCE
##XFACTOR=1.
##YFACTOR=0.001
##DELTAX=1.92898
##FIRSTX=549.8
##LASTX=4000.7
##FIRSTY=0.4935
##MAXX=4000.7
##MINX=549.759
##MAXY=0.189322
##MINY=0
##NPOINTS=1790
##XYDATA=(X++(Y..Y))
549.759 0.4935 0.4938 0.4397 0.5709 0.3557 0.2685 0.5828 0.5229 0.5272 0.5364
569.049 0.4544 0.5034 0.7237 0.8732 1.0224 1.0918 0.9442 1.0918 1.1718 1.2618
588.339 1.2318 0.9928 1.0818 1.2218 1.1818 1.1418 1.0818 1.0033 0.949 0.9417
607.628 1.0518 0.9063 0.8108 0.839 0.863 0.9465 0.8053 0.7487 0.8219 0.9581
626.918 1.0365 1.0131 0.9421 0.9111 0.9925 1.1618 1.4418 1.5018 1.3218 1.3718
646.208 1.4818 1.3518 1.4918 1.5718 1.4518 1.6618 1.8418 1.8418 2.0618 2.2518
665.498 2.3618 2.5718 2.6918 2.8518 3.0118 3.0718 2.8718 2.5618 2.3018 2.2318
684.787 2.1018 2.0118 1.9218 1.8718 1.8318 1.6318 1.7218 1.7918 1.8518 2.0018
704.077 2.1918 2.3318 2.4718 2.6118 2.8218 3.1318 3.3918 3.4718 3.3418 3.5118
723.367 3.6918 3.5718 3.4418 3.2218 3.1618 3.2618 3.1618 3.0318 2.9218 2.6818
742.657 2.5318 2.6318 2.6718 2.5818 2.5218 2.4318 2.4818 2.7018 2.8218 2.7718
761.947 2.7518 2.6818 2.6318 2.6418 2.6818 2.6718 2.5918 2.6118 2.5818 2.5818
781.236 2.4318 2.3818 2.4618 2.3318 2.2918 2.1718 2.0518 2.0218 1.9918 1.9918
800.526 2.0818 1.9718 1.7818 1.8018 1.8618 1.8218 1.8918 1.9318 1.8118 1.9918
819.816 1.9618 1.9318 2.0718 1.9818 2.0218 2.0518 2.0318 2.0418 2.1218 2.3518
839.106 2.3818 2.4118 2.5418 2.4818 2.4118 2.4418 2.4918 2.6718 2.8418 2.8218
858.395 2.8918 2.9918 3.0118 2.9718 2.9718 3.1518 3.2618 3.3018 3.2118 3.2318
877.685 3.3218 3.3518 3.4218 3.4518 3.6018 3.6518 3.6118 3.6518 3.6818 3.9418
896.975 4.0618 3.9018 3.8918 4.0218 4.1618 4.1918 4.0418 3.9718 4.0618 4.1418
916.265 4.2618 4.4618 4.4818 4.4818 4.6318 4.6318 4.7118 4.8818 4.9618 5.1518
935.555 5.2818 5.4318 5.6518 5.6818 5.8118 6.0318 6.2818 6.5318 6.8018 6.8818
954.844 6.9518 7.1118 7.3018 7.5518 7.7918 7.9018 7.8718 7.9818 8.1418 8.4518
974.134 8.5518 8.6118 8.9918 9.0918 9.1818 9.4518 9.5018 9.7418 10.0818 10.3518
993.424 10.6518 11.0318 11.3418 11.7418 12.1918 12.5418 12.9118 13.1318 13.2118 13.2618
1012.714 13.4318 13.5418 13.6118 13.3618 13.1718 13.3018 13.1118 12.7118 12.4618 12.5618
1032.003 12.7518 12.8218 13.0018 13.3518 13.8118 13.8418 13.7518 14.1018 14.3118 14.5218
1051.293 14.8318 14.9018 14.6118 14.1718 13.8018 13.4818 13.0218 12.4818 12.1818 11.3118
1070.583 10.5818 10.3318 9.6818 9.4018 8.9918 8.5818 8.2218 7.7718 7.9518 7.6918
1089.873 7.4218 7.4518 7.4618 7.6018 7.5818 7.4218 7.5918 7.8618 8.2418 9.0318
1109.163 9.5218 10.0318 10.7618 11.4318 12.3818 13.6118 14.8518 15.9818 17.5418 19.5018
1128.452 21.2918 23.0818 25.1318 27.1818 29.6718 32.5718 35.5618 38.8518 42.4118 46.1018
1147.742 50.1018 54.0918 57.7818 61.0418 63.6118 65.1418 65.7918 65.3918 64.2418 62.9218
1167.032 61.2818 59.2418 56.8518 54.7918 52.5918 50.3418 48.9418 47.9418 47.1518 46.7918
1186.322 46.8518 47.2418 47.8018 48.5318 49.2018 49.6818 49.9418 50.0318 49.9118 49.3618
1205.611 48.8118 48.7518 48.5218 48.3418 48.2118 47.9518 48.1418 48.3318 48.6818 49.4018
1224.901 49.8718 50.0718 49.7918 49.2818 48.8018 48.0718 47.2918 46.4818 45.6718 44.7718
1244.191 43.7218 43.0318 42.0618 40.4718 39.0118 37.4018 35.6818 33.6918 31.4618 29.5818
1263.481 27.5118 25.6518 24.4118 23.0818 21.9918 21.1018 20.2818 19.8118 19.3518 18.9518
1282.771 18.5418 18.3118 18.2618 18.0718 17.9518 17.9718 18.1018 18.1318 17.8018 17.4418
1302.060 17.0418 16.4318 15.8018 15.1418 14.5518 14.1618 13.9818 13.9418 14.0618 14.3718
1321.350 14.9318 15.7218 16.6918 17.8318 19.0318 20.1918 21.4218 22.6718 23.8418 24.9818
1340.640 26.2018 27.4918 28.7218 29.8018 30.5618 30.7618 30.3618 29.3118 27.6118 25.5318
1359.930 23.2318 20.9018 18.8118 16.9618 15.3818 14.0918 13.0718 12.3118 11.8418 11.6818
1379.219 11.8118 12.1118 12.4518 12.7418 12.8118 12.6618 12.2918 11.6918 10.9518 10.1418
1398.509 9.3518 8.7018 8.2118 7.8718 7.7318 7.7218 7.8218 8.0318 8.3118 8.6118
1417.799 9.0118 9.5418 10.0818 10.5818 11.1218 11.6818 12.1318 12.5418 12.8818 13.1018
1437.089 13.2418 13.3818 13.5418 13.8018 14.1318 14.5218 15.0718 15.7118 16.4518 17.1918
1456.378 17.9018 18.6318 19.0818 19.1718 18.9618 18.3918 17.5018 16.2818 14.8518 13.3418
1475.668 11.8218 10.3618 9.0818 7.9018 6.9018 6.1218 5.4118 4.8418 4.4318 4.0318
1494.958 3.7418 3.5218 3.2618 3.0518 2.9318 2.7718 2.6418 2.5518 2.4618 2.3918
1514.248 2.2718 2.1518 2.0518 2.0318 2.0118 1.9418 1.9118 1.8418 1.7318 1.6218
1533.538 1.5518 1.5318 1.5318 1.4418 1.3418 1.4018 1.4418 1.4218 1.3718 1.3518
1552.827 1.3318 1.2718 1.2718 1.2818 1.2118 1.2118 1.3118 1.3018 1.2418 1.1618
1572.117 1.1418 1.2118 1.2718 1.3018 1.2518 1.2018 1.2318 1.2118 1.1618 1.1418
1591.407 1.1618 1.1518 1.1818 1.1418 1.1618 1.1918 1.0918 1.1718 1.1918 1.1118
1610.697 1.1418 1.2118 1.1718 1.0818 1.1318 1.2018 1.2018 1.1418 1.1118 1.1418
1629.986 1.1118 1.1218 1.1718 1.1918 1.1918 1.2018 1.1918 1.2218 1.2718 1.3218
1649.276 1.3518 1.3318 1.3818 1.4918 1.5418 1.5518 1.5218 1.5518 1.7018 1.7718
1668.566 1.8218 1.8318 1.8818 1.9818 2.0218 2.0918 2.1918 2.3118 2.4118 2.5318
1687.856 2.7718 2.9918 3.1818 3.4618 3.7218 4.0118 4.3918 4.8318 5.3718 5.9618
1707.146 6.5518 7.2118 7.9018 8.6418 9.5218 10.4518 11.4418 12.6418 14.0418 15.7318
1726.435 17.7418 20.0518 22.8518 26.1718 30.0718 34.6818 39.9918 46.2918 53.6718 62.1518
1745.725 71.4218 81.1718 90.3518 97.1918 99.8718 97.6218 90.8318 81.3618 71.0218 60.9418
1765.015 51.8818 43.9518 37.0818 31.3718 26.6118 22.6718 19.4518 16.8218 14.6418 12.8518
1784.305 11.3618 10.0418 8.8918 7.9618 7.1618 6.3818 5.7518 5.2518 4.7818 4.3418
1803.594 4.0018 3.7018 3.4018 3.1318 2.8918 2.6918 2.4818 2.3618 2.3218 2.2118
1822.884 2.0918 1.9918 1.9118 1.8318 1.7318 1.6518 1.6318 1.5718 1.4818 1.4518
1842.174 1.4318 1.3418 1.3618 1.3418 1.2818 1.2818 1.2318 1.1718 1.1518 1.1718
1861.464 1.1718 1.1618 1.1118 1.0381 1.0918 1.1318 1.0618 1.0258 1.0406 1.0518
1880.754 1.0366 1.0205 1.0415 0.9894 0.9283 0.9576 0.9928 0.9585 0.9667 0.93
1900.043 0.8697 0.9157 0.9451 0.9336 0.9218 0.9071 0.9103 0.8981 0.8708 0.8669
1919.333 0.8848 0.9128 0.9302 0.9154 0.8817 0.8748 0.8869 0.8758 0.8868 0.8778
1938.623 0.8617 0.8951 0.8739 0.8514 0.8432 0.8114 0.8096 0.8689 0.9032 0.8759
1957.913 0.8829 0.9447 0.9291 0.8559 0.8346 0.8173 0.8576 0.9089 0.879 0.9017
1977.202 0.9164 0.8882 0.8839 0.8391 0.8531 0.9094 0.9067 0.8758 0.8572 0.8876
1996.492 0.9173 0.9253 0.9347 0.9621 0.9627 0.9942 1.0015 0.9725 0.9384 0.9354
2015.782 1.009 1.0269 1.0371 1.0718 1.0418 1.0518 1.1418 1.1118 1.0518 1.0618
2035.072 1.0718 1.0418 1.0718 1.1118 1.0376 0.9666 0.9979 1.0176 1.0002 1.029
2054.362 1.0918 1.1118 1.0347 0.9616 0.9645 0.9809 0.9799 0.9361 0.9503 0.969
2073.651 0.9239 0.8855 0.8882 0.9508 0.9977 0.9099 0.8391 0.8915 0.8615 0.843
2092.941 0.87 0.8878 0.9133 0.889 0.8802 0.8813 0.8808 0.8602 0.8186 0.7889
2112.231 0.7881 0.7811 0.7751 0.7696 0.7414 0.7147 0.7324 0.7314 0.7033 0.7346
2131.521 0.758 0.7176 0.7 0.7302 0.6834 0.6334 0.6582 0.6745 0.6659 0.6782
2150.810 0.6893 0.6526 0.653 0.6781 0.6869 0.6684 0.6676 0.6626 0.6307 0.6272
2170.100 0.6619 0.6917 0.7069 0.6575 0.6033 0.6604 0.7535 0.7496 0.6915 0.6578
2189.390 0.6265 0.6513 0.6587 0.6351 0.6429 0.6613 0.6893 0.6708 0.6782 0.6869
2208.680 0.6486 0.6569 0.6387 0.5854 0.5954 0.6544 0.6805 0.6425 0.6331 0.6308
2227.970 0.6084 0.5942 0.5764 0.6128 0.6664 0.6374 0.5909 0.5728 0.5454 0.6022
2247.259 0.6422 0.5912 0.5731 0.5947 0.5795 0.5521 0.5673 0.5624 0.594 0.6644
2266.549 0.6506 0.625 0.6415 0.6618 0.6827 0.6845 0.6643 0.645 0.6565 0.6822
2285.839 0.6291 0.5837 0.5987 0.5951 0.6627 0.7319 0.6779 0.6595 0.6801 0.6599
2305.129 0.7036 0.7785 0.7336 0.6887 0.6779 0.6112 0.6043 0.6619 0.6883 0.7213
2324.418 0.7267 0.7586 0.7993 0.8018 0.7559 0.6719 0.6642 0.7186 0.692 0.6564
2343.708 0.6801 0.6859 0.7415 0.7355 0.6646 0.6874 0.7501 0.7236 0.6628 0.669
2362.998 0.6862 0.6577 0.6288 0.6119 0.576 0.6194 0.7388 0.6933 0.6222 0.6511
2382.288 0.6883 0.7019 0.6603 0.621 0.6769 0.6803 0.5658 0.5932 0.6076 0.5715
2401.578 0.6482 0.7199 0.7332 0.7312 0.6476 0.6125 0.6917 0.7063 0.6991 0.7056
2420.867 0.7067 0.7126 0.743 0.6768 0.6303 0.6395 0.6304 0.6688 0.6649 0.6616
2440.157 0.6511 0.648 0.6242 0.6245 0.6344 0.6167 0.5763 0.5491 0.5931 0.6163
2459.447 0.6427 0.6629 0.6346 0.5992 0.552 0.5448 0.5609 0.6453 0.7288 0.6689
2478.737 0.6031 0.583 0.5361 0.6096 0.6938 0.6267 0.5592 0.5419 0.5659 0.6321
2498.026 0.7032 0.6491 0.6379 0.7051 0.735 0.6888 0.6513 0.6544 0.6782 0.7007
2517.316 0.7753 0.8216 0.7572 0.7135 0.7031 0.6938 0.7283 0.8164 0.8059 0.7872
2536.606 0.7815 0.8375 0.9591 0.935 0.8421 0.8573 0.8816 0.8459 0.8233 0.8525
2555.896 0.8974 0.9632 0.9666 0.9218 0.9442 0.9833 1.0343 1.0818 1.1818 1.2218
2575.186 1.2218 1.2418 1.2518 1.3618 1.4018 1.4218 1.5518 1.6718 1.7418 1.7218
2594.475 1.7018 1.7018 1.6918 1.6518 1.5818 1.5018 1.4218 1.4618 1.4618 1.3618
2613.765 1.4118 1.4218 1.4718 1.5618 1.5218 1.4718 1.5318 1.6218 1.5418 1.4618
2633.055 1.4518 1.4618 1.5618 1.6318 1.6818 1.7018 1.6918 1.6718 1.6018 1.5918
2652.345 1.7618 1.8318 1.8018 1.8918 1.8718 1.8818 1.9118 1.9218 1.9418 1.9218
2671.634 2.0118 2.1118 2.0918 2.0318 2.0618 2.1818 2.2418 2.1518 2.0718 2.0718
2690.924 2.0618 2.0418 2.1118 2.1518 2.1218 2.1918 2.1618 2.0918 2.1418 2.1018
2710.214 2.0218 1.9518 1.9418 2.0218 1.9718 1.9618 2.0718 2.1218 2.1418 2.1518
2729.504 2.1718 2.1918 2.2118 2.2618 2.3218 2.3718 2.3718 2.3618 2.3718 2.4118
2748.794 2.4318 2.5018 2.5118 2.4518 2.5318 2.6118 2.5718 2.6418 2.6918 2.6918
2768.083 2.8618 2.9218 2.8418 2.8818 2.9918 3.1318 3.2518 3.2518 3.3418 3.4818
2787.373 3.6118 3.7518 3.7818 3.8718 4.0918 4.3318 4.5118 4.6218 4.7618 5.0318
2806.663 5.2618 5.4818 5.7518 6.0018 6.3518 6.7018 7.0618 7.5618 8.0518 8.4918
2825.953 8.9818 9.5618 10.2218 10.9318 11.6418 12.5118 13.7118 15.1118 16.7718 18.9318
2845.242 21.6118 24.7918 28.7018 33.7618 39.8118 46.6518 53.8918 60.5818 65.8818 69.0618
2864.532 69.6718 68.0618 64.8118 60.5718 56.1818 52.1618 48.7318 45.8818 43.7318 42.1118
2883.822 40.8418 39.7818 38.8718 38.2418 38.2118 38.9418 40.2618 42.1718 44.6018 47.6918
2903.112 51.2618 55.3518 60.0718 65.2618 70.9618 77.2818 84.6318 93.1318 102.922 114.362
2922.401 127.402 141.962 157.052 170.862 181.852 188.302 189.322 185.552 177.802 167.182
2941.691 154.832 141.812 128.982 116.852 106.102 97.2018 89.9418 84.5618 80.7918 78.2118
2960.981 76.8818 75.9518 74.5718 72.5518 69.4218 65.0318 59.6218 53.5118 47.5918 42.3618
2980.271 37.9018 34.1518 30.9518 28.2118 25.7618 23.4818 21.3718 19.4518 17.6918 15.9618
2999.561 14.4418 13.1318 12.0518 11.1118 10.2518 9.4918 8.8018 8.1418 7.5718 7.0718
3018.850 6.5518 6.2418 6.1018 5.8218 5.4518 5.0718 4.8118 4.6518 4.3918 4.1918
3038.140 4.0718 3.9718 3.7318 3.4618 3.3918 3.3418 3.1518 3.0118 2.9318 2.9318
3057.430 2.8418 2.6518 2.6418 2.5218 2.4118 2.4418 2.3818 2.2018 2.2118 2.1918
3076.720 2.0318 2.0418 2.0318 1.8618 1.8118 1.8218 1.7318 1.7018 1.6218 1.6018
3096.009 1.6718 1.6618 1.7218 1.6618 1.4718 1.5018 1.5618 1.4818 1.3618 1.2718
3115.299 1.2118 1.2818 1.3718 1.2918 1.1518 1.1918 1.2318 1.1818 1.2418 1.2618
3134.589 1.1218 1.0393 1.0231 1.0255 1.0124 1.0024 0.9969 0.9129 0.9269 0.8913
3153.879 0.8687 0.9112 0.8468 0.8483 0.9485 0.9723 0.9193 0.8322 0.7923 0.7465
3173.169 0.6737 0.7941 0.8295 0.7118 0.6457 0.6411 0.7368 0.709 0.6053 0.6852
3192.458 0.6358 0.6344 0.741 0.7278 0.7037 0.7221 0.6984 0.5828 0.4078 0.3351
3211.748 0.4359 0.4919 0.4413 0.3417 0.4944 0.5364 0.4653 0.4745 0.4241 0.5062
3231.038 0.5488 0.4915 0.4667 0.5118 0.4848 0.467 0.4679 0.3922 0.3582 0.335
3250.328 0.3906 0.4635 0.4436 0.4132 0.3184 0.1777 0.3067 0.4128 0.2452 0.223
3269.617 0.2875 0.3249 0.3085 0.0291 0.10151 0.3302 0.261 0.2904 0.2534 0.194
3288.907 0.2523 0.1848 0.1682 0.3242 0.2478 0.07651 0.04356 0.08241 0.1935 0.2292
3308.197 0.222 0.1424 0.1014 0.2388 0.1298 0.11951 0.3216 0.2688 0.13068 0.1818
3327.487 0.2586 0.202 0.2112 0.2781 0.3205 0.311 0.1853 0.2091 0.287 0.2367
3346.777 0.1922 0.1525 0.2612 0.2858 0.1772 0.2903 0.3391 0.2624 0.2262 0.2891
3366.066 0.3758 0.324 0.2389 0.2675 0.2583 0.2584 0.2313 0.217 0.3307 0.3677
3385.356 0.4322 0.3855 0.2407 0.2308 0.3144 0.1968 0.08197 0.339 0.463 0.3556
3404.646 0.4002 0.4405 0.3531 0.2415 0.2101 0.219 0.1893 0.2554 0.2936 0.2467
3423.936 0.2935 0.2804 0.1558 0.2528 0.297 0.2598 0.2862 0.2354 0.3288 0.4353
3443.225 0.3932 0.3092 0.3028 0.3452 0.397 0.2854 0.263 0.3269 0.2291 0.2615
3462.515 0.3788 0.4876 0.5623 0.5692 0.5809 0.7031 0.8132 0.738 0.8096 0.8973
3481.805 0.9369 0.9961 0.9487 0.9691 0.9807 0.8928 0.8967 0.9928 0.8767 0.6867
3501.095 0.6505 0.6718 0.7092 0.6558 0.5079 0.4176 0.3407 0.2916 0.3688 0.4493
3520.385 0.3751 0.2339 0.1045 0.1467 0.3371 0.3513 0.2717 0.2006 0.1874 0.2136
3539.674 0.11407 0.1463 0.1921 0.06214 0 0.1596 0.2849 0.2774 0.1993 0.049843
3558.964 0.1295 0.2905 0.3201 0.2554 0.11249 0.08952 0.08497 0.043336 0.07544 0.1897
3578.254 0.3164 0.2272 0.08639 0.10237 0.1684 0.1737 0.145 0.1711 0.1697 0.1849
3597.544 0.3574 0.4386 0.3658 0.1838 0.06639 0.2053 0.3213 0.2776 0.2244 0.3735
3616.833 0.4165 0.2383 0.2567 0.3165 0.2336 0.13493 0.2033 0.3941 0.3326 0.2839
3636.123 0.4351 0.4682 0.3742 0.2261 0.2023 0.2194 0.2609 0.3613 0.3486 0.3044
3655.413 0.3122 0.317 0.3071 0.3654 0.3573 0.3344 0.4615 0.538 0.4654 0.3586
3674.703 0.382 0.425 0.4957 0.4128 0.3144 0.4765 0.4196 0.2583 0.1685 0.1459
3693.993 0.2056 0.2485 0.2545 0.1438 0.09104 0.1562 0.2261 0.2333 0.2579 0.3264
3713.282 0.3354 0.2336 0.26 0.3609 0.4259 0.3935 0.2436 0.1612 0.2073 0.2448
3732.572 0.0849 0.1562 0.2913 0.1681 0.1596 0.2803 0.352 0.2745 0.1906 0.206
3751.862 0.117 0.1966 0.4434 0.5057 0.3553 0.3611 0.4155 0.2972 0.3532 0.3945
3771.152 0.3304 0.2623 0.3115 0.3872 0.328 0.2275 0.2113 0.3441 0.3829 0.3545
3790.441 0.288 0.2397 0.2592 0.339 0.2162 0.1632 0.3548 0.4706 0.4228 0.25
3809.731 0.1845 0.08096 0.06587 0.2078 0.2304 0.1952 0.232 0.3233 0.4355 0.3752
3829.021 0.2336 0.11316 0.09215 0.1434 0.1988 0.3477 0.3887 0.3247 0.2874 0.2399
3848.311 0.2885 0.3479 0.2532 0.3562 0.4274 0.2395 0.2126 0.2591 0.2474 0.3293
3867.601 0.3322 0.3526 0.3801 0.3135 0.4071 0.5061 0.4226 0.3455 0.3581 0.3251
3886.890 0.3289 0.315 0.313 0.3344 0.3267 0.2007 0.1475 0.2264 0.2043 0.329
3906.180 0.3671 0.3357 0.3395 0.258 0.3753 0.2787 0.1603 0.2447 0.1997 0.3062
3925.470 0.4032 0.4289 0.4402 0.3446 0.2806 0.4367 0.3688 0.10891 0.1686 0.3458
3944.760 0.3991 0.3805 0.4952 0.4458 0.4965 0.4988 0.3735 0.4595 0.4436 0.3264
3964.049 0.3572 0.3844 0.3314 0.4484 0.4228 0.3133 0.3278 0.4051 0.5459 0.5491
3983.339 0.4373 0.4353 0.4341 0.353 0.4247 0.4664 0.5116 0.7186 0.8061 0.7367
##END=
