##TITLE=Diethyl sulfate
##JCAMP-DX=4.24
##DATA TYPE=INFRARED SPECTRUM
##ORIGIN=EPA-IR VAPOR PHASE LIBRARY
##OWNER=SRD/NIST
Collection (C) 2018 copyright by the U.S. Secretary of Commerce
on behalf of the United States of America. All rights reserved.
##CAS REGISTRY NO=64-67-5
##MOLFORM=C 4 H 10 O 4 S
##$NIST SOURCE=MSDC-IR
##STATE=gas
##XUNITS=1/CM
##YUNITS=ABSORBANCE
##XFACTOR=1.
##YFACTOR=0.001
##DELTAX=3.85796
##FIRSTX=501.5
##LASTX=4000.7
##FIRSTY=6.134
##MAXX=4000.7
##MINX=501.534
##MAXY=0.180894
##MINY=0
##NPOINTS=908
##XYDATA=(X++(Y..Y))
501.534 6.134 7.584 8.814 9.434 9.594 9.424 9.014 8.424 7.954 7.774
540.114 7.804 8.034 8.464 9.124 9.834 10.594 11.264 11.594 11.674 11.464
578.693 11.214 11.064 11.084 11.654 12.884 14.234 15.084 15.014 13.934 12.224
617.273 10.034 7.814 6.044 4.714 3.854 3.264 2.774 2.374 2.074 1.874
655.852 1.724 1.664 1.604 1.484 1.494 1.534 1.594 1.704 1.744 1.844
694.432 2.064 2.294 2.614 2.974 3.484 4.224 5.134 6.374 8.004 9.994
733.011 12.364 14.924 17.464 19.694 21.424 22.534 23.164 23.644 24.324 25.624
771.591 27.834 31.014 34.744 38.524 41.964 44.744 46.814 48.314 49.484 50.324
810.170 50.364 48.724 45.144 39.844 33.324 26.594 20.734 16.294 13.344 11.554
848.750 10.524 10.074 10.034 10.344 11.044 12.134 13.704 16.014 19.424 24.404
887.330 31.774 42.814 58.784 80.114 105.834 132.994 157.354 174.494 180.894 175.524
925.909 160.214 138.874 115.674 93.864 75.144 59.934 47.964 38.534 31.274 26.064
964.489 22.644 20.794 20.294 21.094 23.504 27.994 35.214 45.674 59.204 74.444
1003.068 89.014 100.494 107.084 107.544 101.904 91.784 80.044 68.774 58.444 48.834
1041.648 40.044 32.464 26.374 21.764 18.374 15.984 14.334 13.244 12.504 12.124
1080.227 12.204 12.564 13.034 13.524 13.774 13.594 12.984 12.054 11.004 10.044
1118.807 9.244 8.584 8.084 7.744 7.534 7.494 7.524 7.624 7.914 8.244
1157.387 8.534 8.964 9.754 11.084 13.274 17.194 24.064 35.064 50.604 69.474
1195.966 88.034 99.994 101.904 95.954 82.114 62.294 42.524 26.894 16.874 11.434
1234.546 8.594 7.054 6.204 5.654 5.224 4.944 4.784 4.734 4.694 4.534
1273.125 4.444 4.454 4.454 4.424 4.434 4.434 4.414 4.384 4.374 4.334
1311.705 4.224 4.144 4.094 4.114 4.224 4.434 4.804 5.344 6.084 7.084
1350.284 8.404 10.114 12.224 14.784 17.914 21.664 26.294 32.264 39.944 49.414
1388.864 60.334 71.774 82.374 90.704 95.764 96.764 93.874 88.004 79.804 69.714
1427.443 57.804 45.274 34.174 25.344 18.884 14.584 11.924 10.254 9.054 8.084
1466.023 7.304 6.644 6.054 5.544 5.114 4.704 4.314 3.914 3.514 3.144
1504.603 2.814 2.544 2.304 2.114 1.974 1.844 1.734 1.624 1.534 1.444
1543.182 1.344 1.2678 1.2088 1.1419 1.1055 1.0607 0.9993 0.9509 0.9291 0.9201
1581.762 0.8994 0.9068 0.8852 0.8471 0.8623 0.8556 0.8654 0.8938 0.9229 0.9842
1620.341 1.0343 1.102 1.1782 1.2585 1.364 1.474 1.574 1.664 1.754 1.834
1658.921 1.864 1.874 1.874 1.864 1.864 1.844 1.814 1.794 1.764 1.764
1697.500 1.794 1.794 1.784 1.794 1.834 1.864 1.874 1.874 1.884 1.904
1736.080 1.924 1.924 1.894 1.854 1.794 1.704 1.614 1.494 1.374 1.2698
1774.659 1.1571 1.0665 1.005 0.9535 0.9235 0.9137 0.931 0.9638 1.0119 1.0405
1813.239 1.0663 1.1064 1.1257 1.134 1.1214 1.1091 1.0873 1.0228 0.9627 0.8789
1851.819 0.7761 0.6857 0.598 0.5198 0.4585 0.4037 0.36407 0.34586 0.32954 0.31281
1890.398 0.29485 0.29415 0.3117 0.31558 0.31409 0.32607 0.33244 0.33496 0.34913 0.36632
1928.978 0.3747 0.3885 0.3955 0.381 0.35037 0.31653 0.282037 0.2635 0.2449 0.2229
1967.557 0.2115 0.2008 0.1992 0.194 0.171 0.165 0.163 0.151 0.161 0.158
2006.137 0.138 0.141 0.138 0.119 0.116 0.123 0.126 0.127 0.129 0.126
2044.716 0.123 0.131 0.157 0.173 0.1874 0.2047 0.2069 0.2068 0.2065 0.2225
2083.296 0.2372 0.2467 0.2621 0.278542 0.28722 0.28945 0.30415 0.31733 0.3188 0.30803
2121.875 0.30269 0.30058 0.2949 0.277744 0.26589 0.2608 0.2495 0.2334 0.2235 0.2234
2160.455 0.2333 0.2286 0.2025 0.2055 0.2226 0.2133 0.2161 0.2334 0.227 0.2082
2199.035 0.1993 0.2053 0.202 0.2086 0.2215 0.221 0.2004 0.172 0.16 0.139
2237.614 0.128 0.13 0.12 0.112 0.115 0.134 0.14 0.144 0.145 0.133
2276.194 0.16 0.1868 0.1859 0.1988 0.2008 0.1893 0.2038 0.2085 0.1844 0.1757
2314.773 0.184 0.1756 0.152 0.166 0.181 0.163 0.166 0.161 0.131 0.116
2353.353 0.118 0.12 0.13 0.149 0.161 0.172 0.192 0.2314 0.29989 0.35902
2391.932 0.3843 0.423 0.4552 0.4524 0.4371 0.4157 0.3743 0.30838 0.2634 0.2504
2430.512 0.2307 0.2145 0.2063 0.2031 0.1982 0.1993 0.2286 0.2326 0.2146 0.2131
2469.092 0.2178 0.1899 0.149 0.148 0.151 0.142 0.127 0.111 0.101 0.093
2507.671 0.078 0.062 0.071 0.062 0.053 0.07 0.076 0.077 0.06 0.047
2546.251 0.08 0.114 0.13 0.161 0.2005 0.2366 0.26946 0.30826 0.3424 0.3728
2584.830 0.4152 0.4655 0.5188 0.5397 0.5338 0.5405 0.5263 0.491 0.4429 0.3778
2623.410 0.34919 0.2842 0.1914 0.145 0.106 0.071 0.065 0.055 0.011 0.014
2661.989 0.042 0.059 0.066 0.043 0.033 0.041 0.013 0.016 0.04 0.06
2700.569 0.083 0.078 0.079 0.074 0.095 0.15 0.1921 0.2038 0.2263 0.26893
2739.148 0.29271 0.2898 0.281446 0.29933 0.31771 0.36806 0.4093 0.4542 0.5401 0.5759
2777.728 0.6183 0.6649 0.6746 0.6759 0.6539 0.6442 0.6669 0.7007 0.7319 0.7717
2816.308 0.827 0.9024 0.9623 1.0313 1.0998 1.1496 1.2382 1.344 1.424 1.504
2854.887 1.654 1.874 2.154 2.504 2.914 3.454 3.994 4.464 4.814 5.074
2893.467 5.264 5.444 5.714 6.144 6.674 7.254 7.894 8.504 9.134 9.964
2932.046 11.234 12.954 14.684 15.784 16.154 15.894 15.074 14.004 13.264 13.404
2970.626 14.534 16.464 19.014 21.964 24.594 26.464 27.304 26.854 25.254 22.734
3009.205 19.944 17.254 14.684 12.354 10.384 8.764 7.404 6.284 5.304 4.424
3047.785 3.714 3.174 2.734 2.314 2.014 1.754 1.484 1.304 1.1783 1.0643
3086.364 0.9595 0.8651 0.8186 0.7976 0.7278 0.6735 0.6527 0.6419 0.6003 0.5575
3124.944 0.5703 0.5419 0.5293 0.5526 0.556 0.5462 0.547 0.5041 0.4893 0.504
3163.524 0.5336 0.5614 0.5131 0.4905 0.4935 0.4583 0.4359 0.4686 0.4567 0.3995
3202.103 0.3859 0.3905 0.3952 0.4008 0.3792 0.33519 0.31997 0.3487 0.32766 0.280285
3240.683 0.2599 0.2392 0.2507 0.26805 0.2 0.149 0.163 0.163 0.167 0.1932
3279.262 0.171 0.15 0.153 0.126 0.103 0.152 0.1861 0.153 0.107 0.033
3317.842 0.042 0.074 0.082 0.069 0.061 0.08 0.07 0.059 0.119 0.1788
3356.421 0.13 0.099 0.107 0.084 0.086 0.075 0.049 0.086 0.108 0.114
3395.001 0.068 0.022 0.066 0.094 0.067 0.004 0 0.01 0.034 0.081
3433.580 0.046 0.031 0.082 0.101 0.077 0.069 0.085 0.082 0.089 0.069
3472.160 0.008 0.02 0.066 0.07 0.08 0.059 0.054 0.136 0.15 0.071
3510.740 0.001 0.038 0.097 0.145 0.14 0.108 0.136 0.102 0.101 0.155
3549.319 0.116 0.081 0.056 0.061 0.065 0.053 0.08 0.069 0.052 0.073
3587.899 0.068 0.08 0.062 0.034 0.094 0.069 0.037 0.037 0.009 0.006
3626.478 0.05 0.102 0.098 0.082 0.083 0.062 0.069 0.059 0.054 0.071
3665.058 0.06 0.068 0.108 0.085 0.068 0.087 0.092 0.103 0.064 0.05
3703.637 0.074 0.082 0.091 0.069 0.075 0.098 0.06 0.075 0.125 0.089
3742.217 0.057 0.094 0.128 0.111 0.138 0.149 0.107 0.099 0.114 0.155
3780.797 0.157 0.163 0.172 0.162 0.168 0.1846 0.1965 0.1748 0.168 0.173
3819.376 0.161 0.1945 0.22 0.1954 0.1923 0.1835 0.1866 0.2218 0.2222 0.1825
3857.956 0.141 0.134 0.1817 0.2281 0.159 0.154 0.192 0.1968 0.2426 0.27244
3896.535 0.2343 0.2184 0.31343 0.37042 0.33209 0.26846 0.2431 0.2159 0.26557 0.30185
3935.115 0.2258 0.2354 0.277385 0.27166 0.2341 0.2158 0.2526 0.2467 0.2094 0.1953
3973.694 0.193 0.2467 0.27172 0.248 0.2561 0.2434 0.2413 0.276218
##END=
