##TITLE=2,3-Difluorophenol
##JCAMP-DX=4.24
##DATA TYPE=INFRARED SPECTRUM
##ORIGIN=EPA-IR VAPOR PHASE LIBRARY
##OWNER=SRD/NIST
Collection (C) 2018 copyright by the U.S. Secretary of Commerce
on behalf of the United States of America. All rights reserved.
##CAS REGISTRY NO=6418-38-8
##MOLFORM=C 6 H 4 F 2 O
##$NIST SOURCE=MSDC-IR
##STATE=gas
##XUNITS=1/CM
##YUNITS=ABSORBANCE
##XFACTOR=1.
##YFACTOR=0.001
##DELTAX=1.92898
##FIRSTX=549.8
##LASTX=4000.7
##FIRSTY=2.363
##MAXX=4000.7
##MINX=549.759
##MAXY=0.184313
##MINY=0
##NPOINTS=1790
##XYDATA=(X++(Y..Y))
549.759 2.363 2.783 4.123 5.073 4.223 4.413 5.043 4.723 4.513 4.743
569.049 5.573 5.703 4.763 4.333 4.223 3.703 3.913 4.553 3.993 2.943
588.339 2.743 2.913 2.923 2.383 2.523 2.883 2.573 2.033 1.783 1.6962
607.628 2.023 2.933 2.243 0.9561 1.3916 1.893 1.923 1.903 1.6083 1.833
626.918 2.323 2.643 2.803 3.283 3.573 3.693 3.723 4.003 4.613 4.853
646.208 4.843 4.873 4.843 4.833 4.483 3.893 4.003 4.533 4.113 3.913
665.498 4.373 4.933 6.113 7.243 8.863 11.683 16.293 21.113 26.543 33.803
684.787 40.533 46.123 50.043 48.853 45.043 46.203 51.013 56.043 64.583 78.203
704.077 77.073 53.223 35.033 28.693 25.953 24.543 22.483 19.773 16.503 13.483
723.367 10.513 7.993 6.383 5.103 3.703 3.453 3.843 3.713 4.113 4.873
742.657 5.443 6.863 8.983 11.263 14.183 17.513 21.573 26.143 29.993 32.993
761.947 35.923 40.003 45.153 53.663 66.993 78.913 72.893 51.653 39.403 37.023
781.236 35.833 34.463 31.453 27.693 23.713 19.053 14.843 12.453 10.523 9.023
800.526 9.173 9.973 10.583 10.603 10.213 10.283 10.823 11.363 12.113 12.373
819.816 12.353 13.023 13.383 13.513 13.513 13.293 12.943 11.813 10.873 10.753
839.106 10.513 10.103 9.403 8.153 7.073 6.063 5.163 4.723 4.213 3.683
858.395 3.043 2.283 1.973 2.193 1.943 1.6672 2.153 2.153 1.6081 1.5837
877.685 1.783 1.753 2.173 1.963 1.863 2.053 1.783 1.783 1.783 1.6896
896.975 1.6931 1.883 2.003 2.073 2.123 1.5486 1.5925 2.163 1.823 2.103
916.265 2.163 2.093 2.353 2.073 1.5072 1.783 2.533 2.603 2.853 3.083
935.555 3.293 3.463 3.733 3.873 3.653 3.193 3.113 3.463 3.783 4.003
954.844 3.843 3.493 3.583 3.643 3.443 3.733 4.133 4.473 4.593 4.533
974.134 4.563 5.683 6.473 6.213 6.363 7.493 8.513 9.753 12.083 13.733
993.424 15.293 18.333 21.843 25.553 30.873 38.273 45.503 52.763 62.263 73.313
1012.714 85.173 96.963 107.163 113.713 115.843 116.223 116.843 118.473 114.073 103.683
1032.003 99.133 97.203 88.853 74.593 60.853 51.033 44.813 40.763 37.613 35.913
1051.293 34.693 33.543 32.753 32.333 31.193 28.893 26.243 22.503 18.753 17.333
1070.583 14.923 12.143 10.783 9.973 9.853 8.543 7.963 7.343 6.433 5.033
1089.873 4.293 3.863 3.383 4.403 5.273 4.713 5.063 5.753 4.373 4.843
1109.163 7.483 7.853 6.553 6.823 7.163 6.223 6.113 7.503 7.553 7.763
1128.452 8.873 9.663 11.493 13.883 15.033 17.173 19.243 19.423 20.773 21.943
1147.742 21.563 22.333 23.303 24.243 25.763 27.363 30.793 38.303 49.163 62.953
1167.032 80.103 98.733 116.383 130.563 138.373 142.913 149.733 154.303 152.793 153.483
1186.322 155.283 149.523 136.293 116.363 93.623 73.723 60.583 52.063 44.643 38.583
1205.611 33.353 30.083 29.053 29.303 30.723 34.033 39.433 46.273 54.893 62.253
1224.901 68.283 72.303 72.503 73.943 75.443 75.773 74.543 71.443 69.683 65.273
1244.191 58.333 50.113 43.113 39.223 36.293 35.353 35.183 33.933 33.023 33.003
1263.481 32.833 32.363 32.313 32.413 32.543 32.793 33.223 33.823 34.453 36.073
1282.771 39.003 42.393 45.603 48.993 52.273 55.013 57.573 59.353 60.313 61.053
1302.060 61.363 61.133 59.793 57.153 53.883 50.413 47.263 44.123 40.963 38.473
1321.350 36.273 34.313 32.683 31.503 30.363 29.003 27.893 27.123 26.693 27.033
1340.640 28.543 31.043 34.423 38.203 41.703 44.113 45.003 44.543 43.323 42.693
1359.930 42.023 40.233 38.313 36.023 31.993 26.163 19.993 14.403 9.973 7.363
1379.219 5.863 4.723 4.113 3.783 3.513 3.503 3.463 3.083 2.763 2.803
1398.509 2.773 2.643 2.523 2.333 2.193 2.323 2.363 2.523 2.813 2.863
1417.799 3.203 3.683 3.913 4.103 4.403 4.813 4.963 5.203 5.443 5.443
1437.089 5.733 6.043 6.273 6.553 6.793 7.103 7.593 7.923 8.753 10.133
1456.378 11.713 13.913 16.963 20.823 25.783 32.273 40.053 49.313 59.683 70.913
1475.668 81.643 91.403 98.743 103.573 106.823 109.543 113.073 118.173 123.163 127.703
1494.958 134.283 142.643 149.693 155.693 160.853 165.593 169.963 173.963 177.543 181.263
1514.248 184.313 183.273 176.663 167.543 156.143 143.773 130.823 117.923 104.983 93.033
1533.538 81.423 70.023 60.543 52.183 45.273 39.813 35.183 31.733 29.243 27.263
1552.827 26.333 25.873 25.213 24.403 23.773 23.193 22.603 22.083 21.803 21.353
1572.117 21.053 21.253 21.543 21.523 21.783 22.633 23.953 25.413 27.013 29.003
1591.407 30.883 32.703 34.843 37.783 40.773 44.023 47.153 50.703 55.043 59.513
1610.697 64.063 69.113 73.893 78.603 82.803 85.353 86.243 85.163 82.683 79.483
1629.986 75.143 70.223 65.663 60.383 54.203 47.673 41.133 35.163 29.853 25.383
1649.276 21.803 19.133 16.393 13.213 10.893 9.463 8.393 7.603 7.003 6.603
1668.566 6.083 5.603 5.033 4.433 3.883 3.263 2.943 2.723 2.383 2.033
1687.856 1.843 1.793 1.853 1.883 1.903 2.093 2.243 2.323 2.303 2.343
1707.146 2.433 2.533 2.673 2.953 3.273 3.513 3.663 3.653 3.453 3.353
1726.435 3.413 3.473 3.403 3.113 3.013 2.943 2.763 2.443 2.183 2.103
1745.725 1.893 1.793 1.5896 1.6154 1.6927 1.5104 1.5209 1.5402 1.5771 1.7
1765.015 1.5448 1.325 1.4039 1.4011 1.458 1.6186 1.4722 1.401 1.5871 1.713
1784.305 1.823 1.793 1.5804 1.6823 2.063 2.193 2.163 2.263 2.563 2.853
1803.594 2.753 2.723 2.993 3.103 3.153 3.093 3.093 3.103 3.043 3.073
1822.884 2.823 2.523 2.363 2.183 2.043 1.883 1.6755 1.4999 1.5482 1.6121
1842.174 1.6471 1.6816 1.5636 1.5879 1.6257 1.6039 1.6218 1.4382 1.3993 1.6321
1861.464 1.6332 1.4173 1.4686 1.5052 1.5196 1.5851 1.743 1.863 1.793 1.833
1880.754 1.933 2.153 2.373 2.673 2.973 3.033 3.273 3.473 3.313 3.283
1900.043 3.323 3.303 3.273 3.073 2.983 3.063 2.953 2.653 2.333 2.173
1919.333 1.863 1.733 1.6256 1.3779 1.334 1.3681 1.4178 1.3489 1.2932 1.299
1938.623 1.199 1.1418 1.264 1.168 1.0232 1.1399 1.2704 1.1398 1.0919 1.3304
1957.913 1.3872 1.274 1.3254 1.4083 1.3916 1.3635 1.4392 1.3222 1.2698 1.2982
1977.202 1.0786 0.9727 1.0753 1.2687 1.2942 1.2075 1.2734 1.2826 1.2854 1.5154
1996.492 1.6439 1.5323 1.5069 1.4127 1.1592 1.0839 1.1673 1.2875 1.3917 1.2661
2015.782 1.0583 1.0394 1.1913 1.1964 1.0255 0.9981 1.1577 1.2953 1.372 1.5868
2035.072 1.723 1.803 1.833 1.973 2.083 1.983 1.973 2.063 2.073 2.103
2054.362 2.273 2.233 2.273 2.133 1.853 1.923 1.973 1.793 1.6168 1.5888
2073.651 1.431 1.4462 1.3898 1.2073 1.1884 1.1493 1.0603 0.9565 1.0225 1.0657
2092.941 0.8699 0.8203 0.8455 0.80245 0.732 0.74873 0.8906 0.8162 0.744 0.8728
2112.231 0.8652 0.8545 0.8709 0.9064 0.9321 0.9386 1.1227 1.1961 1.1544 1.2009
2131.521 1.148 0.9789 0.8399 0.80255 0.9062 0.78151 0.6659 0.75061 0.76203 0.77457
2150.810 0.7312 0.73703 0.8247 0.8261 0.8272 0.73263 0.74599 0.8527 0.9423 1.1215
2170.100 1.1528 1.1851 1.3733 1.6356 1.524 1.2939 1.4199 1.5322 1.5288 1.5371
2189.390 1.5981 1.4825 1.4073 1.5997 1.773 1.823 1.933 2.003 1.803 1.6237
2208.680 1.743 1.783 1.6412 1.6527 1.5883 1.5625 1.5236 1.2309 1.1108 1.0994
2227.970 0.8814 0.71993 0.9174 1.1826 1.201 1.2986 1.3295 1.037 1.2077 1.4242
2247.259 1.2365 1.2257 1.3339 1.5044 1.5767 1.4507 1.482 1.6297 1.5339 1.4805
2266.549 1.5314 1.3418 1.3182 1.5194 1.566 1.5866 1.5228 1.703 1.6962 1.515
2285.839 1.6819 1.813 1.813 1.923 2.273 2.163 2.343 2.433 2.153 2.193
2305.129 2.393 2.613 2.573 2.673 2.773 2.913 2.963 2.953 3.053 3.083
2324.418 2.903 2.813 2.973 2.883 2.623 2.633 2.683 2.523 2.173 1.933
2343.708 1.993 1.823 1.713 1.5923 1.467 1.4291 1.2508 1.215 1.1761 1.1618
2362.998 1.1531 1.2595 1.2966 1.4173 1.6523 1.4857 1.3388 1.4616 1.4669 1.2656
2382.288 1.2767 1.4326 1.6003 1.4296 1.1941 1.29 1.4679 1.3903 1.3367 1.388
2401.578 1.2912 1.5189 1.6199 1.3553 1.3898 1.6342 1.3241 1.3054 1.4584 1.4458
2420.867 1.4379 1.3014 1.3812 1.4648 1.5486 1.6525 1.763 1.743 1.923 2.323
2440.157 2.533 2.623 2.623 2.453 2.313 2.503 2.723 2.703 2.693 2.473
2459.447 2.183 2.203 2.243 2.123 2.193 2.323 2.143 2.033 1.903 1.883
2478.737 2.053 1.883 1.773 1.833 1.943 1.843 1.773 2.043 1.963 1.793
2498.026 1.873 2.123 2.303 2.233 2.413 2.583 2.623 2.663 2.653 2.843
2517.316 2.933 3.163 3.133 3.053 3.383 3.543 3.693 3.643 3.583 3.683
2536.606 3.613 3.453 3.193 3.213 3.093 2.803 2.483 1.873 1.793 1.893
2555.896 1.6324 1.4474 1.6098 1.933 1.963 1.5981 1.4795 1.2948 1.1251 1.2282
2575.186 1.0976 1.0475 1.1758 1.2114 1.088 1.1404 1.113 1.014 1.0819 0.8986
2594.475 0.9227 0.9971 0.9489 0.9372 0.71999 0.6786 0.8123 0.78023 0.8643 0.8906
2613.765 0.8237 0.834 0.8442 0.873 0.9837 1.1237 0.8489 0.8694 1.1641 1.1302
2633.055 1.2366 1.5541 1.5284 1.4256 1.5208 1.6804 1.843 1.4579 1.4513 1.953
2652.345 1.783 1.5567 1.609 1.6128 1.677 1.6151 1.6658 1.4858 1.0616 0.9501
2671.634 1.1472 1.2367 0.9818 0.9528 1.2454 1.3161 1.0873 0.8272 0.74036 0.9617
2690.924 0.8614 0.6613 0.704766 0.9542 1.2614 1.3115 1.1086 0.8675 1.0497 1.1053
2710.214 0.8338 0.8415 0.8398 1.0617 1.3838 1.4382 1.2884 1.3263 1.3878 1.0147
2729.504 0.9106 0.70124 0.6345 0.902 0.9977 1.1402 1.1169 1.1778 1.1239 0.913
2748.794 0.9628 0.9016 0.717 0.79596 0.8887 0.8753 1.1001 1.1158 1.1564 1.3629
2768.083 1.2707 1.2528 1.3495 1.5027 1.525 1.0946 0.9696 1.0974 0.9873 0.9004
2787.373 0.79922 0.511 0.73487 1.3121 1.1854 0.9073 0.6715 0.74759 0.72393 0.6826
2806.663 0.69321 0.352 0.447 0.8398 1.0473 0.77993 0.574 0.6891 0.8265 0.813
2825.953 0.6855 0.583 0.6497 0.8258 0.702905 0.6185 0.72629 0.8692 1.0026 0.6354
2845.242 0.488 0.8376 0.72207 0.391 0.505 0.9261 0.9473 0.9133 1.1871 1.0383
2864.532 0.462 0.581 0.8403 0.546 0.6101 0.73127 0.6118 0.6477 0.8757 0.9181
2883.822 0.87 0.9213 0.8993 0.8542 0.72368 0.497 0.6381 0.601 0.5 0.462
2903.112 0.209 0.248 0.262 0.455 0.308 0.158 0.293 0.217 0.326 0.588
2922.401 0.72088 0.337 0.144 0.399 0.79662 0.871 0.532 0.6279 0.6775 0.56
2941.691 0.8374 0.8109 0.651 0.597 0.408 0.6077 0.618 0.6292 0.71717 0.377
2960.981 0.439 0.8771 0.9254 1.0677 1.0379 0.9913 1.0698 0.6351 0.589 0.76377
2980.271 0.9669 0.9084 0.8398 0.73287 0.8397 0.8134 0.442 0.6757 0.613 0.438
2999.561 0.70036 0.9013 0.9603 1.0104 0.9978 0.9598 0.8111 0.78018 0.75081 0.6673
3018.850 0.8224 0.9146 1.2208 1.2107 1.2028 1.1792 1.2878 1.783 1.763 1.913
3038.140 2.293 2.713 3.173 3.573 3.863 4.333 4.743 4.973 5.213 5.593
3057.430 5.823 5.883 6.333 7.253 7.113 6.593 6.903 7.043 7.043 7.133
3076.720 7.123 7.083 6.803 6.003 5.633 5.303 5.333 5.033 4.703 4.233
3096.009 3.513 3.163 2.913 3.133 2.263 1.773 2.163 2.533 2.673 1.983
3115.299 1.6001 1.2723 1.0027 1.2695 1.5264 1.5796 1.4062 1.0557 0.72019 0.565
3134.589 0.576 0.6799 0.8633 1.4087 1.2093 0.416 0.551 1.0179 0.8122 0.401
3153.879 0.34 0.502 0.407 0.425 0.6735 0.453 0.583 0.76173 0.69959 0.69965
3173.169 0.381 0.176 0.179 0.349 0.31 0.484 0.69561 0.6101 0.322 0.403
3192.458 0.77141 0.8575 0.6094 0.6324 0.554 0 0.305 0.8556 1.0126 0.70871
3211.748 0.321 0.325 0.519 0.79728 0.7579 0.707282 0.6775 0.6452 0.465 0.195
3231.038 0.512 0.9207 1.0253 1.1309 0.9967 1.1058 1.5884 1.603 1.753 1.5032
3250.328 1.3038 1.843 2.353 2.383 1.5551 0.9905 0.984 0.73374 1.0073 1.4231
3269.617 1.3658 1.2016 1.1764 1.1622 1.1651 1.3275 1.4198 1.3129 1.5201 1.713
3288.907 1.843 1.873 1.099 0.595 0.9501 1.0886 0.8893 1.1084 0.9074 0.9092
3308.197 1.325 1.43 1.1619 1.3712 1.923 1.803 1.3871 1.4708 1.4912 1.2898
3327.487 1.2381 0.9962 1.3378 1.2737 0.9828 1.3039 1.2297 1.1302 1.2274 0.76564
3346.777 1.0459 1.863 1.5276 0.981 1.4021 1.4157 0.9309 1.0715 0.8074 0.599
3366.066 1.0982 0.706104 0.355 0.9121 0.9394 0.577 0.446 0.79847 0.9562 0.497
3385.356 0.163 0.398 0.6675 0.6741 0.707992 0.6535 0.9123 1.0857 0.6324 0.72415
3404.646 0.911 0.6713 0.72739 0.703116 0.8953 0.8843 0.374 0.426 0.468 0.479
3423.936 0.8244 0.651 0.548 0.527 0.185 0.576 0.513 0.458 0.8925 0.547
3443.225 0.449 0.6653 0.439 0.102 0.231 0.552 0.71425 0.8415 0.9896 0.77473
3462.515 0.8755 1.1951 1.0092 0.76107 0.79297 0.827 0.78945 0.6541 0.128 0.335
3481.805 0.9529 0.998 0.6442 0.6827 0.8874 0.215 0.168 0.367 0.33 0.9676
3501.095 1.4849 1.4118 0.9131 0.6197 0.77794 0.7704 0.408 0.367 0.75059 0.556
3520.385 0.358 0.73817 0.597 0.541 0.74105 0.589 0.6278 0.6695 0.8573 0.9053
3539.674 0.7327 0.596 0.437 0.82 0.9038 0.9645 1.2007 0.8181 0.75582 1.1233
3558.964 1.2984 1.1389 1.3042 1.3811 1.0497 1.0185 1.1037 1.0731 0.9143 1.3515
3578.254 1.4134 1.2362 1.3449 1.2835 1.753 2.153 2.583 3.253 3.483 3.743
3597.544 4.793 6.203 7.613 9.903 14.243 20.123 27.563 37.283 48.823 61.863
3616.833 75.023 86.553 94.903 99.073 98.883 96.033 92.793 94.433 98.183 95.743
3636.123 87.653 76.553 62.943 49.313 38.223 29.723 23.673 19.303 16.433 14.433
3655.413 13.043 12.063 11.243 10.493 9.543 8.553 6.983 5.163 4.263 4.053
3674.703 3.323 2.193 1.913 1.793 1.5683 2.003 1.6858 1.0586 1.4009 1.4793
3693.993 0.9602 0.561 0.555 0.8855 1.078 1.1239 1.2093 0.9711 1.0667 1.4009
3713.282 1.5528 1.1863 0.76674 0.6647 0.563 0.8929 1.0352 0.79394 0.9105 1.3524
3732.572 1.1122 0.78209 0.9347 0.78122 0.8744 1.0336 1.0827 1.0767 1.4465 2.033
3751.862 2.033 1.3882 1.3704 1.5454 0.968 0.6703 0.483 0.54 0.6266 0.8059
3771.152 0.69967 0.524 0.432 0.71724 0.8961 0.279 0.318 0.9579 1.4399 1.0966
3790.441 0.582 0.9812 1.2186 0.79901 0.538 0.72544 1.156 1.1786 0.8329 0.8587
3809.731 1.1049 0.6471 0.245 0.6356 0.8555 0.77373 0.78493 0.574 0.8465 1.0019
3829.021 0.6377 0.70184 1.0431 1.4306 1.4945 1.299 1.3972 1.5089 0.9536 0.596
3848.311 0.917 1.2152 1.6102 1.2741 0.8302 0.497 0.891 1.773 1.6903 1.6194
3867.601 1.803 1.713 1.0334 0.712501 1.0598 1.6715 1.6991 1.0789 1.0035 1.4695
3886.890 2.073 2.393 1.6818 1.3265 1.3341 1.3987 1.793 1.6872 1.6509 1.903
3906.180 1.863 1.2902 0.991 1.1736 1.3625 1.6111 1.693 1.6054 1.5723 1.773
3925.470 1.983 2.153 1.963 1.236 1.5257 1.943 1.4793 1.2001 1.409 1.813
3944.760 1.923 1.3301 1.1131 1.4805 1.4263 1.0443 1.0172 1.3689 1.1043 1.524
3964.049 1.4973 0.8658 1.0776 0.8277 0.27 0.55 1.0873 0.8314 0.6744 0.75171
3983.339 0.9159 0.8917 0.548 0.6725 1.3708 1.5139 1.4402 1.703 1.4936 1.6202
##END=
