##TITLE=Phthalaldehyde
##JCAMP-DX=4.24
##DATA TYPE=INFRARED SPECTRUM
##ORIGIN=EPA-IR VAPOR PHASE LIBRARY
##OWNER=SRD/NIST
Collection (C) 2018 copyright by the U.S. Secretary of Commerce
on behalf of the United States of America. All rights reserved.
##CAS REGISTRY NO=643-79-8
##MOLFORM=C 8 H 6 O 2
##$NIST SOURCE=MSDC-IR
##STATE=gas
##XUNITS=1/CM
##YUNITS=ABSORBANCE
##XFACTOR=1.
##YFACTOR=0.001
##DELTAX=1.92898
##FIRSTX=549.8
##LASTX=4000.7
##FIRSTY=2.497
##MAXX=4000.7
##MINX=549.759
##MAXY=0.307787
##MINY=0
##NPOINTS=1790
##XYDATA=(X++(Y..Y))
549.759 2.497 2.477 2.517 2.527 2.317 2.267 2.547 2.567 2.347 2.147
569.049 2.177 2.127 1.967 2.127 2.337 2.447 2.517 2.677 2.887 2.667
588.339 2.597 2.897 3.077 3.147 3.387 3.897 4.057 4.407 5.057 5.767
607.628 6.557 7.357 8.407 9.477 10.357 11.277 12.287 12.917 13.407 13.687
626.918 13.487 13.297 12.997 12.297 11.507 10.587 9.567 8.987 8.987 8.927
646.208 8.827 9.277 9.757 10.207 10.647 10.997 11.387 11.627 11.737 11.547
665.498 11.257 11.107 10.907 10.427 9.837 9.187 8.557 8.007 7.497 7.077
684.787 6.797 6.637 6.517 6.237 5.967 5.897 5.757 5.477 5.337 5.377
704.077 5.377 5.247 5.327 5.557 5.827 6.077 6.167 6.487 6.957 7.517
723.367 8.267 9.317 10.567 12.057 14.227 16.607 19.407 23.067 27.087 31.257
742.657 35.327 39.217 42.947 46.877 52.267 59.397 66.327 68.427 62.207 52.417
761.947 45.617 41.817 38.897 36.077 32.777 29.097 25.797 23.137 21.277 20.317
781.236 20.067 20.447 20.967 21.717 23.067 24.467 25.817 27.207 28.497 29.777
800.526 30.687 31.427 31.957 32.047 31.697 31.067 30.417 29.587 28.367 27.127
819.816 25.957 24.707 23.417 21.617 20.077 19.047 18.037 17.447 17.287 17.517
839.106 18.227 19.677 21.697 24.067 26.477 28.387 29.507 29.737 29.367 29.087
858.395 29.397 29.127 27.637 25.057 21.447 17.697 14.377 11.617 9.837 8.487
877.685 7.127 5.977 5.127 4.627 4.087 3.727 3.447 3.037 2.907 2.687
896.975 2.197 2.127 2.177 2.057 1.857 1.637 1.687 1.627 1.477 1.527
916.265 1.577 1.507 1.447 1.477 1.477 1.427 1.337 1.2712 1.2452 1.1723
935.555 1.1626 1.327 1.397 1.2636 1.1647 1.2284 1.278 1.2639 1.317 1.467
954.844 1.567 1.527 1.1994 0.9986 1.1544 1.1854 1.447 1.697 1.537 1.577
974.134 1.657 1.797 1.957 2.047 2.317 2.617 2.737 2.987 3.107 2.957
993.424 2.947 2.747 2.387 2.107 1.967 2.107 1.947 1.537 1.487 1.327
1012.714 1.0804 1.1708 1.2627 1.152 1.0954 1.1172 1.0914 1.1636 1.0969 0.6723
1032.003 0.4934 0.6528 0.8258 1.0016 0.9489 0.8181 0.9034 0.9522 1.0363 1.1919
1051.293 1.417 1.557 1.357 0.9166 1.0016 1.407 1.547 1.667 1.507 1.2539
1070.583 1.1983 1.1221 0.9928 0.94 1.387 1.947 1.807 1.687 1.587 1.2183
1089.873 1.827 2.807 3.007 2.917 2.747 2.777 2.837 2.787 3.107 3.367
1109.163 3.297 2.697 2.567 2.737 2.757 2.717 2.347 2.197 2.197 2.287
1128.452 2.327 2.507 3.087 3.057 2.847 3.117 3.297 3.417 3.597 4.277
1147.742 5.427 6.007 6.267 6.967 7.857 8.747 10.157 12.147 13.807 16.347
1167.032 19.627 23.427 28.227 33.837 40.737 48.227 56.237 64.717 72.857 79.817
1186.322 85.347 89.427 91.597 91.267 88.357 83.577 77.187 68.747 58.967 49.267
1205.611 40.277 32.557 26.107 20.907 17.087 14.337 12.227 10.807 9.787 8.647
1224.901 7.907 7.467 7.027 6.797 6.217 5.737 5.627 5.397 5.567 5.527
1244.191 5.097 5.207 5.527 5.977 6.747 8.047 10.387 13.467 16.747 20.187
1263.481 22.817 24.197 25.197 27.107 28.027 27.097 27.227 27.397 25.917 23.237
1282.771 20.347 18.227 16.757 15.607 14.667 13.797 13.157 12.637 11.937 11.167
1302.060 10.397 9.337 8.027 6.747 5.527 4.547 3.817 3.287 2.857 2.517
1321.350 2.337 2.247 2.187 2.077 2.067 2.037 1.977 1.967 1.987 1.997
1340.640 1.997 1.947 1.947 1.997 2.027 2.037 2.027 2.037 2.057 2.077
1359.930 2.137 2.197 2.317 2.437 2.557 2.767 3.047 3.387 3.917 4.507
1379.219 5.197 5.957 6.717 7.527 8.337 8.927 9.257 9.447 9.437 9.297
1398.509 9.157 8.967 8.557 7.997 7.307 6.557 5.887 5.307 4.837 4.467
1417.799 4.117 3.837 3.667 3.487 3.277 3.107 2.997 3.037 3.067 3.077
1437.089 3.227 3.447 3.657 3.887 4.077 4.177 4.227 4.207 4.217 4.177
1456.378 4.107 4.037 3.887 3.717 3.537 3.467 3.527 3.687 3.907 4.227
1475.668 4.607 4.937 5.247 5.537 5.757 5.927 5.937 5.837 5.687 5.617
1494.958 5.517 5.197 4.757 4.307 3.847 3.437 3.077 2.837 2.777 2.707
1514.248 2.557 2.527 2.487 2.357 2.307 2.267 2.267 2.267 2.357 2.397
1533.538 2.407 2.497 2.577 2.637 2.837 3.047 3.307 3.617 4.037 4.657
1552.827 5.357 6.337 7.557 9.167 11.097 13.117 15.357 17.567 19.557 21.117
1572.117 22.207 22.927 23.537 24.347 25.097 25.667 25.987 25.867 25.377 24.987
1591.407 24.697 24.457 24.147 23.577 22.967 22.187 21.187 19.787 17.857 15.637
1610.697 13.397 11.447 10.077 9.257 8.787 8.527 8.627 8.827 8.977 9.217
1629.986 9.467 9.687 9.947 10.277 10.447 10.537 10.627 10.637 10.717 10.867
1649.276 10.957 11.047 11.147 11.287 11.497 11.917 12.497 13.117 13.917 14.817
1668.566 15.907 17.107 18.397 19.867 21.647 23.657 26.107 29.007 32.827 37.627
1687.856 43.487 51.187 61.257 73.837 90.077 109.617 131.727 157.787 183.217 208.677
1707.146 231.527 250.597 266.557 283.237 299.597 307.787 305.347 295.007 276.577 252.417
1726.435 225.307 198.627 174.157 151.307 126.847 102.017 79.337 59.667 44.817 34.167
1745.725 26.857 21.807 18.317 15.777 13.947 12.567 11.487 10.627 10.027 9.607
1765.015 9.217 8.937 8.727 8.527 8.387 8.227 8.097 7.987 7.867 7.717
1784.305 7.517 7.287 7.037 6.817 6.617 6.317 5.947 5.607 5.307 4.997
1803.594 4.647 4.317 4.117 3.907 3.687 3.517 3.437 3.387 3.277 3.217
1822.884 3.217 3.157 3.107 3.087 3.087 3.027 2.997 2.897 2.777 2.767
1842.174 2.707 2.627 2.557 2.547 2.617 2.677 2.737 2.847 2.897 2.907
1861.464 2.937 2.967 2.957 2.937 2.837 2.757 2.667 2.527 2.427 2.337
1880.754 2.227 2.097 1.967 1.867 1.847 1.847 1.917 1.947 1.927 1.947
1900.043 1.897 1.897 1.967 1.977 1.987 2.027 1.937 1.897 1.907 1.887
1919.333 1.907 1.897 2.017 2.147 2.207 2.307 2.367 2.417 2.487 2.577
1938.623 2.737 2.797 2.707 2.727 2.767 2.777 2.757 2.687 2.647 2.657
1957.913 2.667 2.767 2.917 2.997 3.097 3.157 3.217 3.327 3.327 3.267
1977.202 3.217 3.147 3.097 2.967 2.727 2.607 2.457 2.247 2.167 2.077
1996.492 1.957 1.847 1.737 1.677 1.617 1.537 1.507 1.457 1.427 1.407
2015.782 1.357 1.377 1.347 1.2629 1.347 1.307 1.2378 1.2922 1.357 1.327
2035.072 1.2707 1.307 1.347 1.367 1.337 1.2819 1.293 1.2611 1.1987 1.1047
2054.362 1.0359 1.0488 0.9417 0.8699 0.9227 0.9385 0.8692 0.773 0.7546 0.7832
2073.651 0.7827 0.7979 0.7972 0.7305 0.7321 0.7701 0.7656 0.729 0.6819 0.6404
2092.941 0.6168 0.6328 0.6653 0.7282 0.7483 0.7277 0.7001 0.6785 0.6466 0.6552
2112.231 0.6726 0.6294 0.643 0.6913 0.6719 0.6194 0.6135 0.6112 0.6109 0.5806
2131.521 0.6095 0.562 0.5178 0.5578 0.6016 0.6742 0.632 0.5959 0.6238 0.6095
2150.810 0.5692 0.5794 0.5906 0.5723 0.6083 0.6132 0.5785 0.5903 0.5712 0.5636
2170.100 0.5536 0.4849 0.4667 0.5273 0.5548 0.5809 0.5794 0.537 0.5282 0.5585
2189.390 0.5324 0.4663 0.4773 0.5139 0.5036 0.5433 0.5648 0.5145 0.5302 0.6551
2208.680 0.7096 0.6321 0.6558 0.7156 0.705 0.6758 0.6951 0.7134 0.6762 0.6249
2227.970 0.5981 0.6106 0.6182 0.6479 0.6656 0.6732 0.66 0.6529 0.7007 0.6924
2247.259 0.679 0.76 0.7384 0.6845 0.7405 0.7262 0.7332 0.7516 0.7274 0.8054
2266.549 0.8532 0.8198 0.8272 0.8594 0.803 0.7932 0.8177 0.814 0.9073 0.9522
2285.839 0.9096 0.853 0.8723 0.9508 0.9287 0.892 0.8694 0.8223 0.842 0.8782
2305.129 0.871 0.8579 0.865 0.8721 0.9367 0.9853 0.9878 1.0491 1.067 1.005
2324.418 0.972 0.988 0.9699 0.9294 0.8838 0.8745 0.847 0.75 0.7227 0.7867
2343.708 0.8219 0.783 0.7521 0.7347 0.7309 0.7346 0.7631 0.7744 0.7882 0.8198
2362.998 0.7878 0.7754 0.8152 0.8832 0.9355 0.9995 0.9977 0.9707 0.9677 0.8804
2382.288 0.8355 0.7956 0.7656 0.7885 0.707 0.6811 0.688 0.5885 0.6201 0.5914
2401.578 0.5148 0.5307 0.4971 0.5371 0.6148 0.5858 0.6193 0.6224 0.5786 0.6564
2420.867 0.6561 0.563 0.5578 0.6872 0.691 0.5634 0.5939 0.6958 0.73 0.7017
2440.157 0.707 0.7538 0.6586 0.6363 0.6964 0.7327 0.8468 0.8225 0.7641 0.8008
2459.447 0.856 0.939 0.9544 0.8941 0.875 0.8239 0.7659 0.7755 0.8024 0.8329
2478.737 0.7428 0.7099 0.7028 0.7207 0.7633 0.7294 0.7031 0.683 0.6423 0.5893
2498.026 0.6338 0.6134 0.5335 0.4722 0.4997 0.554 0.4678 0.4417 0.5332 0.5624
2517.316 0.4791 0.4944 0.5837 0.5509 0.5571 0.6455 0.6781 0.602 0.5897 0.6142
2536.606 0.6801 0.7559 0.6806 0.7141 0.8072 0.8073 0.7634 0.6724 0.7173 0.816
2555.896 0.7853 0.7756 0.8821 0.971 0.9847 1.0394 0.9948 1.0685 1.2018 1.1608
2575.186 1.1292 1.1776 1.2918 1.307 1.2853 1.397 1.457 1.427 1.477 1.437
2594.475 1.397 1.437 1.407 1.337 1.387 1.437 1.347 1.307 1.297 1.2537
2613.765 1.2332 1.2604 1.347 1.357 1.367 1.427 1.347 1.357 1.477 1.507
2633.055 1.557 1.687 1.827 2.017 2.197 2.247 2.347 2.517 2.757 3.027
2652.345 3.207 3.467 3.827 4.077 4.227 4.397 4.557 4.637 4.727 4.887
2671.634 4.947 4.927 4.947 4.907 4.807 4.777 4.717 4.607 4.637 4.657
2690.924 4.657 4.737 4.887 5.087 5.387 5.657 6.027 6.627 7.307 8.157
2710.214 9.447 11.217 13.437 16.367 20.027 24.287 28.957 33.407 37.027 39.487
2729.504 40.647 40.927 41.287 42.187 42.457 40.987 37.897 33.897 29.567 25.417
2748.794 21.907 19.187 17.027 15.177 13.717 12.467 11.287 10.357 9.717 9.317
2768.083 8.967 8.687 8.637 8.637 8.787 9.067 9.357 9.767 10.317 10.917
2787.373 11.567 12.307 13.157 14.177 15.197 16.297 17.777 19.547 21.537 23.627
2806.663 25.727 27.747 29.707 31.277 32.417 33.287 33.767 33.787 33.567 33.177
2825.953 32.197 30.757 29.127 27.547 26.117 24.877 23.757 22.787 22.257 21.917
2845.242 21.467 21.087 20.967 20.767 20.337 19.997 19.567 19.107 18.597 18.017
2864.532 17.457 16.857 16.437 16.117 15.877 15.667 15.487 15.447 15.417 15.407
2883.822 15.567 15.817 16.127 16.337 16.487 16.617 16.597 16.477 16.067 15.587
2903.112 15.087 14.287 13.367 12.477 11.587 10.707 9.777 8.837 8.027 7.227
2922.401 6.487 5.967 5.537 5.157 4.847 4.647 4.577 4.417 4.187 4.097
2941.691 4.067 4.067 4.047 3.937 3.757 3.567 3.567 3.467 3.267 3.147
2960.981 3.027 2.967 2.937 2.847 2.727 2.777 2.777 2.687 2.497 2.417
2980.271 2.527 2.597 2.527 2.437 2.447 2.427 2.437 2.477 2.497 2.587
2999.561 2.507 2.397 2.577 2.707 2.677 2.857 3.077 3.377 3.767 3.997
3018.850 4.307 4.577 4.867 5.177 5.337 5.497 5.637 5.727 5.857 5.877
3038.140 5.847 5.737 5.637 5.657 5.617 5.747 6.087 6.467 7.017 7.597
3057.430 8.247 8.957 9.737 10.907 12.397 13.807 15.187 16.497 17.347 17.847
3076.720 18.017 17.957 17.667 16.927 15.987 14.907 13.597 11.777 9.657 7.747
3096.009 6.177 5.087 4.407 3.907 3.577 3.317 2.987 2.667 2.337 2.207
3115.299 2.257 2.107 1.807 1.687 1.707 1.707 1.687 1.667 1.537 1.537
3134.589 1.597 1.607 1.717 1.727 1.867 1.887 1.877 1.987 2.027 2.087
3153.879 2.027 1.877 1.747 1.717 1.547 1.457 1.517 1.307 1.0649 1.0928
3173.169 1.1308 1.0441 1.0525 1.003 0.9476 0.9217 0.8826 0.7793 0.6383 0.536
3192.458 0.569 0.662 0.5484 0.4957 0.6064 0.5711 0.4576 0.4243 0.4093 0.4894
3211.748 0.5555 0.5066 0.3469 0.34473 0.5131 0.38729 0.33216 0.4623 0.39448 0.4148
3231.038 0.36525 0.2484 0.189 0.2732 0.4078 0.4217 0.5323 0.5139 0.398 0.31803
3250.328 0.34531 0.39467 0.32605 0.3363 0.38152 0.37839 0.4359 0.5414 0.5851 0.5083
3269.617 0.4315 0.6192 0.7107 0.5572 0.4896 0.5042 0.5333 0.5067 0.5158 0.4979
3288.907 0.4804 0.6606 0.6618 0.5862 0.639 0.6219 0.6393 0.6119 0.5799 0.6279
3308.197 0.6747 0.6723 0.5858 0.5445 0.7091 0.9403 0.9771 0.8297 0.7888 0.8337
3327.487 0.8427 0.7681 0.7356 0.8362 0.7745 0.6211 0.6988 0.7864 0.8119 0.9106
3346.777 1.011 0.9973 0.9691 0.989 1.0176 0.9722 0.9921 1.1298 1.1882 1.2399
3366.066 1.307 1.337 1.427 1.617 1.737 1.807 1.847 1.837 2.007 2.297
3385.356 2.577 2.987 3.277 3.577 3.857 4.047 4.367 4.757 5.107 5.337
3404.646 5.607 5.627 5.587 5.617 5.467 5.257 5.227 5.137 4.837 4.547
3423.936 4.347 3.977 3.427 3.077 2.827 2.447 2.167 2.037 1.747 1.487
3443.225 1.407 1.387 1.2956 1.2529 1.307 1.247 1.129 0.942 0.7076 0.7768
3462.515 0.8294 0.7776 0.8014 0.6461 0.5338 0.6564 0.7027 0.5559 0.5717 0.6849
3481.805 0.6874 0.5805 0.5227 0.4952 0.4233 0.4983 0.545 0.5451 0.5602 0.4901
3501.095 0.4366 0.4678 0.4322 0.4052 0.33185 0.2172 0.34738 0.4748 0.5328 0.4074
3520.385 0.29239 0.4133 0.4326 0.35093 0.2744 0.300522 0.303431 0.2653 0.2331 0.2328
3539.674 0.33202 0.34443 0.2799 0.2482 0.2735 0.303897 0.4191 0.4205 0.38122 0.414
3558.964 0.30002 0.2196 0.193 0.157 0.151 0.31819 0.38775 0.2755 0.2374 0.2194
3578.254 0.3076 0.4441 0.4114 0.3977 0.35289 0.3478 0.4368 0.4726 0.5237 0.300365
3597.544 0.085 0.2165 0.2632 0.2334 0.2246 0.37375 0.4212 0.31382 0.2777 0.2006
3616.833 0.285 0.4116 0.2271 0.062 0.2715 0.5165 0.4302 0.31844 0.2307 0.168
3636.123 0.33182 0.39391 0.4032 0.4059 0.2767 0.2169 0.33917 0.36097 0.4068 0.4645
3655.413 0.38651 0.37187 0.35572 0.3314 0.2842 0.2613 0.252 0.2828 0.3427 0.2176
3674.703 0.297575 0.39325 0.34801 0.4432 0.4244 0.34135 0.33819 0.4935 0.576 0.4847
3693.993 0.4732 0.5956 0.6438 0.5704 0.4363 0.411 0.4901 0.4592 0.4878 0.5905
3713.282 0.712 0.6449 0.4912 0.299128 0.33814 0.3654 0.37608 0.561 0.421 0.31002
3732.572 0.32173 0.4238 0.39551 0.31297 0.33859 0.35684 0.34302 0.2314 0.2575 0.2754
3751.862 0.3576 0.37707 0.265 0.2301 0.2764 0.31675 0.2667 0.2433 0.37021 0.3994
3771.152 0.1991 0.14 0.14 0.175 0.2296 0.2266 0.37753 0.4695 0.3551 0.306421
3790.441 0.3235 0.2801 0.2285 0.36151 0.35667 0.2296 0.2637 0.39528 0.38889 0.4046
3809.731 0.38337 0.33861 0.3279 0.1993 0.118 0.024 0 0.078 0.2803 0.278
3829.021 0.2153 0.2864 0.2019 0.142 0.163 0.076 0.008 0.056 0.2132 0.30708
3848.311 0.2223 0.2648 0.4921 0.5113 0.39308 0.4017 0.4432 0.4299 0.39386 0.4434
3867.601 0.4595 0.4796 0.5387 0.4715 0.4332 0.4623 0.4205 0.4841 0.4894 0.4324
3886.890 0.5722 0.656 0.6154 0.5218 0.593 0.6486 0.569 0.5217 0.5866 0.6719
3906.180 0.4902 0.4401 0.4465 0.4524 0.6132 0.697 0.7383 0.6695 0.585 0.6549
3925.470 0.7048 0.7801 0.8262 0.6288 0.577 0.5799 0.4546 0.4902 0.5396 0.5597
3944.760 0.4897 0.4358 0.31344 0.195 0.2457 0.28846 0.303972 0.135 0.157 0.3302
3964.049 0.2741 0.2079 0.2221 0.16 0.193 0.2208 0.32218 0.2799 0.113 0.119
3983.339 0.156 0.1 0.059 0.12 0.058 0.141 0.2374 0.2702 0.2416 0.2221
##END=
