##TITLE=2-Methylbiphenyl
##JCAMP-DX=4.24
##DATA TYPE=INFRARED SPECTRUM
##ORIGIN=NIST Mass Spectrometry Data Center
##OWNER=NIST Standard Reference Data Program
Collection (C) 2018 copyright by the U.S. Secretary of Commerce
on behalf of the United States of America. All rights reserved.
##CAS REGISTRY NO=643-58-3
##MOLFORM=C 13 H 12
##$NIST SOURCE=MSDC-IR
##SPECTROMETER/DATA SYSTEM=HP-GC/MS/IRD
##STATE=gas
##XUNITS=1/CM
##YUNITS=ABSORBANCE
##XFACTOR=1.0
##YFACTOR=0.000002100
##DELTAX=4.0
##FIRSTX=550.0
##LASTX=3846.0
##FIRSTY=0.000972
##MAXX=3846
##MINX=550
##MAXY=0.021
##MINY=0
##NPOINTS=825
##XYDATA=(X++(Y..Y))
550.0 463 629 743 748 672 446 278 321 322 237
590.0 161 129 90 74 142 354 752 1020 1027 806
630.0 461 252 196 186 203 262 350 442 593 768
670.0 874 924 1051 1431 2298 3789 5561 6712 7120 6759
710.0 5576 4599 4385 4798 5437 5820 5990 6285 6904 7867
750.0 8818 9351 8871 7400 5637 3837 2352 1378 791 465
790.0 302 232 202 181 161 158 152 148 160 150
830.0 156 209 306 373 394 370 278 193 146 115
870.0 93 71 31 20 51 82 94 141 248 319
910.0 363 377 338 297 242 210 220 237 221 165
950.0 130 119 124 128 128 140 179 227 285 327
990.0 369 437 708 1412 2080 2271 2082 1292 481 240
1030.0 251 330 420 519 644 721 756 773 817 905
1070.0 906 800 665 517 385 304 255 216 214 272
1110.0 381 484 536 544 486 379 259 173 140 118
1150.0 110 116 128 142 130 142 206 235 241 230
1190.0 192 161 157 152 128 124 127 130 135 144
1230.0 166 175 173 173 152 131 159 194 266 319
1270.0 328 326 297 265 255 245 222 206 186 172
1310.0 169 169 167 173 182 191 198 202 198 168
1350.0 180 205 214 245 294 371 474 602 709 756
1390.0 731 677 626 598 606 634 682 750 814 922
1430.0 1123 1408 1719 1972 2141 2217 2257 2310 2498 3006
1470.0 3850 4809 5315 5096 4238 3037 2050 1472 1136 936
1510.0 769 635 558 505 454 429 427 463 465 399
1550.0 362 373 417 430 478 602 751 879 985 1185
1590.0 1479 1758 1879 1778 1459 1077 801 613 474 353
1630.0 259 225 183 153 167 186 199 195 213 239
1670.0 263 300 313 322 317 292 293 269 230 186
1710.0 166 194 218 216 211 230 240 218 230 261
1750.0 261 228 205 192 190 213 235 256 308 374
1790.0 492 630 691 651 534 433 355 315 325 342
1830.0 325 278 232 193 160 137 156 206 274 357
1870.0 436 491 512 519 514 483 472 483 505 506
1910.0 475 428 367 326 342 430 550 656 712 682
1950.0 600 515 401 287 195 137 114 88 77 76
1990.0 81 81 62 73 77 63 53 38 37 46
2030.0 45 49 46 42 42 42 41 43 39 39
2070.0 45 40 36 39 41 43 44 42 32 32
2110.0 31 27 30 26 26 32 23 15 19 17
2150.0 21 35 29 16 26 24 12 20 30 32
2190.0 44 43 39 43 43 42 41 44 34 40
2230.0 50 48 58 59 62 73 75 61 52 52
2270.0 52 72 82 73 61 59 65 58 60 78
2310.0 109 137 144 148 143 138 144 125 110 100
2350.0 78 88 104 117 106 70 51 39 34 42
2390.0 43 43 54 55 52 59 59 63 72 71
2430.0 68 61 45 48 54 47 40 42 54 53
2470.0 39 36 41 53 54 41 35 35 46 48
2510.0 36 39 42 35 35 45 59 63 62 53
2550.0 42 49 71 74 62 73 90 86 75 66
2590.0 67 75 70 56 58 63 69 71 70 54
2630.0 46 48 31 18 26 39 43 35 22 26
2670.0 37 32 30 27 31 34 41 34 35 51
2710.0 58 54 48 59 74 78 96 127 146 153
2750.0 150 144 136 124 107 85 76 92 99 108
2790.0 109 113 128 128 133 148 156 165 192 214
2830.0 235 289 341 379 441 527 647 767 891 1010
2870.0 1140 1229 1256 1265 1245 1188 1132 1092 1096 1116
2910.0 1201 1379 1606 1849 2091 2328 2470 2486 2382 2174
2950.0 1979 1839 1757 1754 1805 1858 1877 1830 1721 1595
2990.0 1511 1484 1541 1735 2110 2722 3553 4509 5430 6094
3030.0 6289 5973 5376 4833 4628 4968 5911 7435 9061 10000
3070.0 9978 8958 7324 5884 4814 3949 3214 2608 2125 1748
3110.0 1430 1159 926 736 613 522 465 431 423 406
3150.0 374 341 300 242 196 160 140 116 84 52
3190.0 74 86 69 82 77 56 55 60 63 52
3230.0 32 24 41 52 24 12 46 80 52 22
3270.0 41 49 20 0 22 52 39 23 20 22
3310.0 21 15 31 43 45 33 17 16 24 22
3350.0 51 61 30 31 42 31 17 31 31 19
3390.0 27 30 30 29 29 16 9 28 40 47
3430.0 49 62 42 43 69 63 40 36 29 22
3470.0 30 41 41 26 12 20 28 27 32 51
3510.0 67 44 24 23 23 23 21 21 35 44
3550.0 36 49 49 40 53 60 37 21 17 30
3590.0 56 61 52 36 34 45 55 50 41 82
3630.0 83 45 75 92 93 97 83 67 46 41
3670.0 66 80 65 47 65 93 78 59 62 69
3710.0 94 92 63 53 46 45 67 53 64 73
3750.0 80 87 76 64 66 82 96 101 92 90
3790.0 104 114 108 101 78 45 73 121 98 73
3830.0 84 93 85 74 66
##END=
