##TITLE=trans-2-Nonene
##JCAMP-DX=4.24
##DATA TYPE=INFRARED SPECTRUM
##ORIGIN=NIST Mass Spectrometry Data Center
##OWNER=NIST Standard Reference Data Program
Collection (C) 2018 copyright by the U.S. Secretary of Commerce
on behalf of the United States of America. All rights reserved.
##CAS REGISTRY NO=6434-78-2
##MOLFORM=C 9 H 18
##$NIST SOURCE=MSDC-IR
##SPECTROMETER/DATA SYSTEM=HP-GC/MS/IRD
##STATE=gas
##XUNITS=1/CM
##YUNITS=ABSORBANCE
##XFACTOR=1.0
##YFACTOR=0.000003800
##DELTAX=4.0
##FIRSTX=550.0
##LASTX=3846.0
##FIRSTY=0.000224
##MAXX=3846
##MINX=550
##MAXY=0.038
##MINY=0
##NPOINTS=825
##XYDATA=(X++(Y..Y))
550.0 59 63 43 13 0 19 20 17 15 11
590.0 11 2 0 6 16 37 39 31 31 32
630.0 29 25 11 11 14 15 22 32 40 34
670.0 34 48 53 39 40 55 59 68 76 84
710.0 97 120 138 150 160 162 148 132 130 122
750.0 105 108 110 110 118 106 86 84 85 84
790.0 86 78 65 64 70 70 80 86 94 87
830.0 79 77 73 89 100 103 109 120 127 128
870.0 131 137 149 163 167 168 188 208 221 238
910.0 253 267 284 310 341 374 426 504 606 743
950.0 919 1129 1323 1425 1401 1267 1066 869 714 597
990.0 505 435 382 347 320 290 262 242 226 219
1030.0 214 214 209 195 202 216 223 226 232 236
1070.0 228 214 198 180 155 140 134 128 124 116
1110.0 107 96 92 94 91 86 79 68 73 75
1150.0 70 64 61 67 70 74 83 88 81 77
1190.0 81 82 89 91 92 94 90 94 103 110
1230.0 108 101 101 101 107 115 129 137 146 157
1270.0 164 173 181 188 201 221 235 241 250 251
1310.0 240 235 233 231 237 251 268 289 308 320
1350.0 325 325 324 319 321 330 360 391 412 413
1390.0 386 347 315 290 273 274 284 303 334 378
1430.0 444 530 637 742 828 901 951 974 955 897
1470.0 809 694 579 471 386 320 269 235 207 187
1510.0 171 160 151 143 133 122 112 102 99 91
1550.0 82 75 73 73 71 64 62 66 65 64
1590.0 59 55 55 56 59 57 55 51 50 47
1630.0 45 51 50 44 45 49 51 53 54 54
1670.0 55 56 57 57 56 62 68 68 70 72
1710.0 75 72 68 71 69 62 58 53 48 45
1750.0 47 44 36 37 36 32 36 34 32 36
1790.0 37 38 36 36 35 32 31 32 32 26
1830.0 22 28 30 26 21 20 22 20 21 24
1870.0 21 16 18 21 14 11 13 13 10 12
1910.0 16 17 16 13 12 12 11 9 7 10
1950.0 14 14 14 12 13 18 17 16 18 19
1990.0 23 24 23 24 25 23 21 18 17 19
2030.0 18 14 14 16 16 15 10 7 12 16
2070.0 15 16 16 10 6 5 6 8 8 6
2110.0 6 5 4 0 2 8 11 11 10 6
2150.0 2 2 5 4 3 3 6 8 8 6
2190.0 4 6 12 9 8 6 1 4 6 5
2230.0 4 5 7 7 6 8 12 11 5 9
2270.0 13 11 10 11 10 10 9 5 9 14
2310.0 16 16 17 18 16 19 20 26 27 22
2350.0 24 27 27 27 26 25 26 29 27 26
2390.0 30 29 26 25 27 28 28 29 29 31
2430.0 27 24 24 23 27 30 36 34 27 27
2470.0 28 27 26 28 32 32 28 28 27 25
2510.0 24 27 31 35 38 37 38 41 43 41
2550.0 39 46 48 44 49 53 52 52 51 49
2590.0 51 54 54 58 61 61 60 66 76 79
2630.0 78 79 80 81 84 94 96 95 100 106
2670.0 112 115 113 115 119 120 117 121 120 113
2710.0 111 117 124 131 144 165 186 197 209 214
2750.0 208 196 183 181 190 200 209 221 239 253
2790.0 273 300 325 350 375 412 460 517 581 664
2830.0 780 942 1160 1455 1830 2276 2769 3245 3646 3894
2870.0 3942 3857 3700 3508 3366 3294 3311 3464 3778 4258
2910.0 4908 5768 6853 8084 9199 9892 10000 9499 8556 7476
2950.0 6497 5772 5393 5291 5199 4894 4359 3647 2941 2412
2990.0 2053 1817 1648 1534 1462 1405 1369 1331 1282 1216
3030.0 1123 1007 890 786 695 618 547 494 456 424
3070.0 390 357 332 318 298 280 268 247 232 224
3110.0 209 199 188 173 164 154 151 144 133 130
3150.0 123 113 100 96 99 101 99 94 89 87
3190.0 78 64 67 75 75 68 62 54 43 39
3230.0 45 46 42 39 41 38 35 38 38 34
3270.0 35 40 42 40 41 38 32 32 26 26
3310.0 32 29 22 21 26 26 23 27 34 31
3350.0 29 30 28 21 25 36 32 26 33 31
3390.0 26 28 29 29 27 24 22 23 19 17
3430.0 17 24 22 19 21 22 24 23 21 24
3470.0 25 18 10 12 23 24 16 16 14 12
3510.0 14 2 2 10 15 21 22 19 11 4
3550.0 7 14 14 9 5 9 12 14 16 15
3590.0 20 28 24 16 22 29 20 16 21 27
3630.0 32 28 28 36 31 28 24 19 18 26
3670.0 30 28 26 29 33 34 34 29 29 36
3710.0 31 22 26 29 31 34 28 26 30 29
3750.0 29 40 40 30 22 23 33 23 20 27
3790.0 29 34 33 33 37 41 38 33 35 40
3830.0 41 43 43 41 37
##END=
