##TITLE=cis-2-Nonene
##JCAMP-DX=4.24
##DATA TYPE=INFRARED SPECTRUM
##ORIGIN=NIST Mass Spectrometry Data Center
##OWNER=NIST Standard Reference Data Program
Collection (C) 2018 copyright by the U.S. Secretary of Commerce
on behalf of the United States of America. All rights reserved.
##CAS REGISTRY NO=6434-77-1
##MOLFORM=C 9 H 18
##$NIST SOURCE=MSDC-IR
##SPECTROMETER/DATA SYSTEM=HP-GC/MS/IRD
##STATE=gas
##XUNITS=1/CM
##YUNITS=ABSORBANCE
##XFACTOR=1.0
##YFACTOR=0.000003800
##DELTAX=4.0
##FIRSTX=550.0
##LASTX=3846.0
##FIRSTY=0.000319
##MAXX=3846
##MINX=550
##MAXY=0.038
##MINY=0
##NPOINTS=825
##XYDATA=(X++(Y..Y))
550.0 84 50 39 41 52 99 106 135 186 187
590.0 153 119 100 81 58 56 62 64 72 98
630.0 115 126 160 199 235 278 331 387 432 485
670.0 556 640 727 810 883 933 950 912 845 776
710.0 686 604 525 437 381 339 304 251 212 187
750.0 154 127 114 103 90 81 64 53 57 52
790.0 36 28 24 11 8 6 13 13 11 10
830.0 1 8 19 26 27 28 30 30 30 36
870.0 40 45 54 67 71 71 75 71 71 66
910.0 60 63 65 69 89 100 107 114 113 106
950.0 98 90 86 85 88 84 81 86 101 115
990.0 121 123 130 141 140 129 124 118 112 112
1030.0 114 120 119 103 91 80 60 43 32 23
1070.0 23 15 2 12 23 14 9 19 28 33
1110.0 39 41 36 30 34 35 26 19 19 15
1150.0 8 8 4 3 12 17 20 26 29 25
1190.0 24 28 32 34 30 33 34 34 37 41
1230.0 44 43 45 49 52 63 72 82 98 105
1270.0 115 122 121 122 126 134 150 170 185 199
1310.0 213 222 224 225 233 241 252 273 297 317
1350.0 326 326 332 344 360 382 410 427 432 439
1390.0 441 442 473 503 508 489 450 405 377 377
1430.0 406 466 553 647 736 819 882 915 910 858
1470.0 767 656 540 438 353 285 235 200 178 159
1510.0 145 140 134 129 125 118 114 109 103 97
1550.0 90 86 80 72 63 62 60 60 64 64
1590.0 55 51 54 58 61 61 64 72 81 92
1630.0 105 120 138 160 187 206 209 206 191 165
1670.0 139 120 99 84 71 61 56 51 41 35
1710.0 31 30 28 27 28 24 25 24 17 15
1750.0 12 8 7 5 1 0 5 4 2 3
1790.0 6 5 2 3 3 4 2 3 7 5
1830.0 4 1 2 5 1 2 5 4 3 2
1870.0 4 4 2 2 4 5 5 6 6 6
1910.0 3 4 7 7 5 4 6 6 5 7
1950.0 9 9 9 13 17 14 13 15 20 21
1990.0 24 27 23 25 23 18 19 18 18 19
2030.0 19 22 21 19 16 17 16 16 15 13
2070.0 16 19 15 13 18 16 11 11 15 11
2110.0 7 8 2 5 5 2 4 5 9 10
2150.0 9 9 8 12 11 6 7 6 6 12
2190.0 12 8 9 8 3 1 4 6 5 4
2230.0 7 12 12 11 14 14 13 15 14 13
2270.0 12 10 9 10 13 17 14 13 15 17
2310.0 18 18 21 20 16 18 17 14 14 21
2350.0 20 17 20 19 19 18 15 13 14 10
2390.0 9 14 17 14 10 11 14 16 15 7
2430.0 7 13 15 15 15 16 17 13 10 15
2470.0 17 13 8 8 14 18 18 19 19 17
2510.0 18 21 23 24 28 29 27 26 26 30
2550.0 30 26 26 28 30 34 34 32 33 36
2590.0 38 36 37 43 46 47 51 54 52 53
2630.0 57 63 68 69 71 74 80 84 86 91
2670.0 93 96 94 90 90 93 100 103 101 103
2710.0 106 109 113 119 129 139 146 152 156 160
2750.0 165 164 168 173 179 187 195 212 230 249
2790.0 274 295 321 357 388 424 471 526 597 688
2830.0 799 950 1160 1444 1825 2308 2843 3343 3745 3989
2870.0 4065 4033 3932 3767 3608 3490 3438 3534 3813 4273
2910.0 4930 5800 6863 8020 9063 9777 10000 9662 8870 7869
2950.0 6897 6141 5710 5561 5430 5081 4522 3787 3029 2461
2990.0 2085 1839 1720 1716 1800 1976 2218 2425 2496 2403
3030.0 2155 1818 1509 1242 1011 833 704 620 553 497
3070.0 455 416 375 340 305 271 238 217 204 191
3110.0 176 159 147 139 130 120 109 99 95 90
3150.0 84 80 78 74 73 69 65 69 68 66
3190.0 61 52 49 53 41 36 35 26 28 29
3230.0 27 25 21 19 19 17 14 14 11 7
3270.0 7 16 25 25 16 12 19 22 16 12
3310.0 14 14 12 11 9 12 19 14 11 15
3350.0 14 7 4 7 15 20 16 12 14 18
3390.0 13 10 12 6 5 8 8 15 15 7
3430.0 9 9 15 16 5 6 9 6 9 12
3470.0 15 15 9 1 5 6 3 9 10 9
3510.0 10 11 9 3 5 11 15 12 9 13
3550.0 15 16 20 19 24 18 11 14 17 14
3590.0 13 9 10 17 22 22 24 27 30 29
3630.0 22 21 21 24 26 25 22 19 22 24
3670.0 29 28 23 21 16 18 29 29 21 16
3710.0 15 21 29 26 19 18 24 30 27 30
3750.0 31 29 30 33 32 25 18 15 16 14
3790.0 16 14 10 18 26 18 17 24 26 21
3830.0 17 25 35 31 23
##END=
