##TITLE=4-Ethylphenethylamine
##JCAMP-DX=4.24
##DATA TYPE=INFRARED SPECTRUM
##ORIGIN=EPA-IR VAPOR PHASE LIBRARY
##OWNER=SRD/NIST
Collection (C) 2018 copyright by the U.S. Secretary of Commerce
on behalf of the United States of America. All rights reserved.
##CAS REGISTRY NO=64353-29-3
##MOLFORM=C 10 H 15 N
##$NIST SOURCE=MSDC-IR
##STATE=gas
##XUNITS=1/CM
##YUNITS=ABSORBANCE
##XFACTOR=1.
##YFACTOR=0.001
##DELTAX=1.92898
##FIRSTX=549.8
##LASTX=4000.7
##FIRSTY=9.93
##MAXX=4000.7
##MINX=549.759
##MAXY=0.08048
##MINY=0.0000109
##NPOINTS=1790
##XYDATA=(X++(Y..Y))
549.759 9.93 10.53 10.38 9.97 9.87 9.89 10.41 10.47 10.19 10.17
569.049 10.14 9.92 9.7 9.47 8.94 8.57 8.26 7.81 7.79 7.42
588.339 6.61 6.47 6.3 5.73 5.29 5.12 5.2 4.91 4.72 4.8
607.628 4.6 4.48 4.41 4.47 4.63 4.67 4.72 4.52 4.45 4.73
626.918 4.85 4.92 5.02 5.13 5.29 5.37 5.34 5.34 5.39 5.5
646.208 5.6 5.7 5.94 5.97 6.07 6.14 6.21 6.54 6.76 6.82
665.498 6.91 7.02 7.1 7.32 7.5 7.82 8.15 8.24 8.35 8.69
684.787 8.97 9.05 9.18 9.59 9.96 10.11 10.11 10.37 10.7 10.91
704.077 11.24 11.45 11.77 12.16 12.66 13.1 13.43 13.89 14.52 15.24
723.367 16.02 16.78 17.38 18 18.45 18.93 19.76 20.43 21.17 22.01
742.657 22.7 23.47 24.32 25.43 26.51 27.85 29.28 30.34 31.48 32.97
761.947 34.56 36.12 37.73 39.08 40.21 40.88 41.29 41.56 41.33 40.7
781.236 39.88 38.97 37.76 36.78 36.18 35.45 34.74 34.24 33.81 33.43
800.526 33.18 32.77 32.45 32.34 31.91 31.57 31.18 30.71 30.12 29.22
819.816 28.35 27.33 25.99 24.4 22.96 21.74 20.52 19.28 18.09 16.95
839.106 15.82 14.76 14 13.36 12.48 11.74 11.2 10.74 10.46 10.1
858.395 9.49 9.01 8.66 8.38 8.07 7.66 7.34 6.97 6.59 6.25
877.685 6.09 5.9 5.74 5.41 5 4.82 4.73 4.62 4.6 4.7
896.975 4.59 4.27 4.27 4.24 4.03 3.92 3.8 3.83 3.86 3.59
916.265 3.39 3.41 3.36 3.27 3.33 3.39 3.27 3.37 3.47 3.45
935.555 3.44 3.47 3.39 3.48 3.56 3.47 3.56 3.81 3.89 3.98
954.844 4.22 4.39 4.61 4.86 5.19 5.41 5.55 5.58 5.71 5.77
974.134 5.59 5.6 5.59 5.47 5.6 5.69 5.56 5.48 5.59 5.7
993.424 5.69 5.59 5.5 5.45 5.27 5.13 5.24 5.55 6.28 7.11
1012.714 8.05 8.9 9.56 9.95 9.87 9.74 9.5 9.01 8.12 7.46
1032.003 6.92 6.66 6.96 7.34 7.39 7.77 8.66 9.39 10.19 11.22
1051.293 12.36 13.87 15.01 15.73 16.86 17.76 18.47 19 18.79 18.36
1070.583 17.74 16.67 15.45 13.61 12.07 11.16 9.72 8.61 8.22 7.8
1089.873 7.04 6.48 6.27 6.08 5.93 5.69 5.88 6.39 6.28 6.26
1109.163 6.66 7 6.95 6.73 6.83 6.89 6.63 6.27 6.31 6.18
1128.452 5.36 4.8 4.48 4.05 3.82 3.44 3.17 2.83 2.32 2.12
1147.742 2.05 1.87 1.73 1.61 1.49 1.47 1.5 1.56 1.95 2.04
1167.032 1.8 1.75 1.57 1.66 1.99 1.87 1.79 1.77 1.76 1.97
1186.322 2.14 2.23 2.06 2.24 2.29 1.97 2.47 2.96 3.07 3.37
1205.611 3.56 3.45 3.4 3.47 3.35 3.46 3.58 3.36 3.03 2.72
1224.901 2.51 2.68 3.12 3.15 2.89 3.26 3.19 2.77 2.87 2.65
1244.191 2.41 2.43 2.37 2.36 2.5 2.52 2.26 2.21 2.39 2.42
1263.481 2.33 2.26 2.39 2.55 2.63 2.78 2.91 2.91 3.01 3.23
1282.771 3.3 3.44 3.71 3.92 3.99 4.03 4.24 4.28 4.27 4.39
1302.060 4.46 4.66 4.95 5.15 5.43 5.78 6.16 6.59 7 7.36
1321.350 7.64 7.86 8.02 8.09 7.97 7.72 7.46 7.23 7.05 6.87
1340.640 6.81 6.81 6.8 6.92 7.1 7.3 7.53 7.68 7.8 7.94
1359.930 8.08 8.23 8.33 8.43 8.57 8.68 8.89 9.25 9.45 9.59
1379.219 9.77 9.84 9.82 9.72 9.48 9.13 8.76 8.4 8.02 7.66
1398.509 7.34 7.11 7.06 7.05 7.11 7.22 7.37 7.56 7.71 7.88
1417.799 8.01 8.16 8.27 8.39 8.5 8.52 8.61 8.74 8.82 8.95
1437.089 9.27 9.58 9.75 9.99 10.22 10.39 10.53 10.62 10.72 10.83
1456.378 10.96 11.06 11.17 11.33 11.36 11.33 11.22 10.94 10.58 10.12
1475.668 9.66 9.22 8.78 8.45 8.22 8.08 8.15 8.34 8.74 9.35
1494.958 10.19 11.41 13 15.01 17.42 20.06 22.82 25.35 27.07 27.74
1514.248 27.41 26.23 24.19 21.43 18.05 14.56 11.43 8.91 7.16 5.99
1533.538 5.15 4.54 4.11 3.84 3.61 3.33 3.15 3.09 2.98 2.9
1552.827 2.88 2.86 2.83 2.75 2.71 2.74 2.76 2.81 2.8 2.86
1572.117 2.99 3.08 3.15 3.25 3.32 3.36 3.56 3.81 4.03 4.2
1591.407 4.39 4.63 4.87 5.13 5.44 5.85 6.38 6.94 7.39 7.87
1610.697 8.45 9.1 9.7 10.17 10.64 11.04 11.2 11.15 11.06 10.72
1629.986 10.27 9.84 9.33 8.69 8.09 7.54 6.97 6.52 6 5.56
1649.276 5.24 4.83 4.48 4.17 3.86 3.61 3.38 3.23 3.05 2.85
1668.566 2.67 2.52 2.44 2.36 2.23 2.17 2.09 1.97 1.86 1.83
1687.856 1.79 1.68 1.64 1.64 1.6 1.47 1.44 1.43 1.37 1.37
1707.146 1.35 1.34 1.32 1.31 1.3 1.26 1.28 1.32 1.28 1.27
1726.435 1.25 1.28 1.34 1.3 1.32 1.31 1.3 1.36 1.35 1.35
1745.725 1.36 1.36 1.42 1.42 1.44 1.47 1.53 1.57 1.62 1.64
1765.015 1.66 1.79 1.85 1.95 2.14 2.32 2.53 2.74 2.87 2.86
1784.305 2.78 2.73 2.59 2.38 2.17 1.88 1.67 1.58 1.44 1.39
1803.594 1.38 1.33 1.26 1.18 1.21 1.22 1.2 1.2 1.2 1.16
1822.884 1.09 1.1 1.14 1.17 1.18 1.19 1.18 1.15 1.13 1.18
1842.174 1.17 1.13 1.21 1.23 1.19 1.19 1.18 1.19 1.24 1.22
1861.464 1.22 1.3 1.39 1.47 1.58 1.74 1.89 2.04 2.23 2.45
1880.754 2.65 2.81 3.02 3.17 3.23 3.29 3.27 3.25 3.2 3.03
1900.043 2.82 2.6 2.41 2.21 1.95 1.67 1.48 1.31 1.15 1.09
1919.333 0.9954 0.8857 0.8229 0.7426 0.7389 0.7149 0.6487 0.6297 0.6299 0.6135
1938.623 0.6177 0.5783 0.51 0.4778 0.4904 0.5114 0.4669 0.4488 0.4435 0.4247
1957.913 0.4707 0.5029 0.5023 0.5184 0.4752 0.407 0.4054 0.401 0.3464 0.3707
1977.202 0.3792 0.4109 0.4459 0.4129 0.3599 0.3275 0.3137 0.3321 0.3944 0.4258
1996.492 0.3967 0.3723 0.4327 0.4501 0.4253 0.3942 0.381 0.4231 0.4346 0.4911
2015.782 0.5419 0.5464 0.5395 0.5087 0.4843 0.5006 0.5287 0.5234 0.5441 0.5343
2035.072 0.5163 0.4894 0.4875 0.4873 0.437 0.4647 0.4873 0.4538 0.4462 0.4745
2054.362 0.4995 0.4589 0.4254 0.4501 0.4258 0.439 0.4735 0.4367 0.4325 0.4408
2073.651 0.4372 0.4288 0.4366 0.5049 0.5455 0.4442 0.4074 0.4511 0.4613 0.4685
2092.941 0.4648 0.4879 0.5137 0.5241 0.4923 0.4655 0.4929 0.4775 0.4486 0.4292
2112.231 0.4111 0.3932 0.36 0.4314 0.5159 0.47 0.4226 0.4043 0.4384 0.4697
2131.521 0.4467 0.4058 0.381 0.4043 0.4205 0.4532 0.4455 0.3379 0.3183 0.3579
2150.810 0.3737 0.3478 0.3232 0.3546 0.3356 0.3292 0.3911 0.4186 0.4057 0.3896
2170.100 0.4159 0.4229 0.408 0.4861 0.5246 0.4371 0.426 0.4669 0.4025 0.4712
2189.390 0.4998 0.3948 0.3373 0.3122 0.3384 0.3318 0.3709 0.4492 0.3967 0.394
2208.680 0.4959 0.4989 0.4319 0.4373 0.5244 0.5462 0.4724 0.4434 0.4615 0.4524
2227.970 0.4387 0.4427 0.4539 0.4673 0.4018 0.3897 0.4656 0.4839 0.5111 0.5003
2247.259 0.4747 0.4887 0.4878 0.4934 0.51 0.5369 0.5774 0.5844 0.5544 0.5709
2266.549 0.5428 0.4672 0.4645 0.4735 0.4531 0.4949 0.5802 0.6151 0.5231 0.4493
2285.839 0.5356 0.6345 0.6359 0.6536 0.6696 0.6537 0.7343 0.7584 0.6579 0.5866
2305.129 0.6744 0.7335 0.7055 0.7095 0.6883 0.6593 0.6687 0.6623 0.6797 0.6946
2324.418 0.6381 0.5952 0.5831 0.6215 0.6141 0.6118 0.6533 0.6551 0.6409 0.5859
2343.708 0.5891 0.6529 0.6247 0.5433 0.5671 0.6047 0.5278 0.5106 0.5414 0.5117
2362.998 0.4792 0.4575 0.4376 0.4526 0.482 0.4552 0.4421 0.4442 0.4525 0.4766
2382.288 0.4518 0.4459 0.44 0.4069 0.4013 0.446 0.4724 0.4662 0.499 0.4707
2401.578 0.4234 0.4049 0.4037 0.4924 0.4854 0.4059 0.465 0.4895 0.3769 0.3551
2420.867 0.4936 0.5899 0.5752 0.5671 0.5326 0.5242 0.6065 0.6304 0.6006 0.5866
2440.157 0.6336 0.6152 0.5463 0.4786 0.4227 0.4405 0.4119 0.389 0.3424 0.3494
2459.447 0.4056 0.4298 0.5294 0.5158 0.4514 0.415 0.4267 0.4254 0.4645 0.5436
2478.737 0.4705 0.4717 0.5156 0.4952 0.4568 0.4313 0.4835 0.5146 0.494 0.5148
2498.026 0.5675 0.5895 0.6335 0.6127 0.4981 0.4202 0.4625 0.6446 0.7213 0.6595
2517.316 0.601 0.6136 0.7348 0.7405 0.6626 0.7004 0.7495 0.767 0.7374 0.6576
2536.606 0.5828 0.6091 0.7148 0.7861 0.7422 0.7172 0.7364 0.7429 0.7148 0.6464
2555.896 0.6339 0.703 0.7721 0.7904 0.8421 0.8493 0.7938 0.7463 0.7023 0.8166
2575.186 0.9372 0.9263 0.9267 0.9489 0.9228 0.8629 0.9023 0.9076 0.8715 0.8927
2594.475 0.885 0.9341 1.01 1.08 1.11 1.08 1.11 1.13 1.13 1.13
2613.765 1.2 1.29 1.31 1.29 1.31 1.35 1.41 1.54 1.59 1.5
2633.055 1.46 1.54 1.57 1.52 1.61 1.59 1.55 1.54 1.48 1.49
2652.345 1.52 1.5 1.5 1.48 1.5 1.59 1.64 1.64 1.63 1.61
2671.634 1.55 1.57 1.6 1.64 1.61 1.6 1.67 1.76 1.83 1.86
2690.924 1.84 1.83 1.91 1.94 2.04 2.02 1.92 1.99 2.02 1.98
2710.214 2.03 2.13 2.2 2.24 2.26 2.36 2.5 2.6 2.57 2.65
2729.504 2.8 2.92 3.03 3.07 3.2 3.35 3.41 3.48 3.46 3.43
2748.794 3.38 3.39 3.37 3.29 3.3 3.39 3.47 3.45 3.44 3.42
2768.083 3.43 3.51 3.53 3.56 3.6 3.57 3.61 3.69 3.73 3.78
2787.373 3.78 3.78 3.87 4.03 4.15 4.24 4.34 4.46 4.63 4.85
2806.663 5.12 5.35 5.52 5.79 6.15 6.47 6.88 7.32 7.76 8.29
2825.953 8.86 9.49 10.29 11.27 12.49 13.78 15.01 16.42 18.18 20.02
2845.242 21.9 23.92 26.02 28.02 29.88 31.6 33.02 34.39 35.5 36.33
2864.532 37.14 37.65 37.94 38.18 38.29 38.51 38.86 39.2 39.43 39.51
2883.822 39.34 38.86 38.36 37.7 36.94 36.23 35.81 35.8 36.12 36.9
2903.112 38.14 39.85 41.86 44.06 46.59 49.2 51.77 54.3 56.83 59.4
2922.401 61.75 63.83 66.09 68.4 70.6 72.98 75.54 77.79 79.49 80.48
2941.691 80.1 78.41 75.77 72.36 68.31 63.73 59.35 55.75 53.21 52.01
2960.981 52.39 54.71 58.98 64.38 68.73 70.35 69.88 68.46 66.22 61.61
2980.271 54.19 46.16 39.24 34.32 31.02 28.55 26.79 25.55 24.71 24.14
2999.561 23.77 23.69 23.79 24.12 24.81 25.71 26.82 28.45 30.52 32.64
3018.850 34.54 35.65 35.96 35.81 34.99 33.28 30.93 28.15 25.05 22.34
3038.140 20.42 19.24 18.65 18.41 18.29 18.21 18.15 17.89 17.47 17.09
3057.430 16.65 16 15.28 14.54 13.84 13.11 12.36 11.59 10.97 10.51
3076.720 10.1 9.78 9.55 9.34 9.11 8.83 8.58 8.32 7.94 7.38
3096.009 6.91 6.59 6.11 5.61 5.2 4.74 4.4 4.04 3.8 3.68
3115.299 3.45 3.38 3.17 3.14 3.17 3.04 3.04 2.97 2.99 2.95
3134.589 2.71 2.7 2.63 2.35 2.22 2.16 2.03 1.92 1.82 1.75
3153.879 1.71 1.67 1.69 1.66 1.57 1.54 1.47 1.4 1.35 1.36
3173.169 1.41 1.39 1.38 1.36 1.32 1.26 1.22 1.33 1.3 1.11
3192.458 0.9869 1.04 1.1 1.09 1.1 1 1.02 0.935 0.8329 0.8194
3211.748 0.778 0.8452 0.9154 0.8954 0.7182 0.6168 0.6915 0.7339 0.7314 0.7689
3231.038 0.6766 0.6432 0.7635 0.7473 0.7122 0.6804 0.4915 0.4222 0.443 0.4151
3250.328 0.56 0.5614 0.5496 0.6629 0.6886 0.7123 0.6536 0.613 0.5174 0.4373
3269.617 0.4454 0.5301 0.5788 0.4848 0.5271 0.6204 0.433 0.2837 0.535 0.6405
3288.907 0.5101 0.577 0.5207 0.4423 0.6081 0.7378 0.8529 0.8112 0.6823 0.6523
3308.197 0.6452 0.6426 0.5913 0.6131 0.5997 0.5344 0.496 0.4719 0.53 0.7057
3327.487 0.7844 0.7341 0.9023 0.9524 0.9981 1.18 1.2 1.19 1.26 1.23
3346.777 1.16 1.18 1.23 1.27 1.08 0.9546 1.08 0.9924 0.8107 0.7081
3366.066 0.6589 0.6732 0.638 0.4776 0.4408 0.4859 0.4505 0.5014 0.5281 0.5487
3385.356 0.6038 0.6412 0.5466 0.5619 0.7281 0.6592 0.618 0.8101 0.8813 0.7739
3404.646 0.693 0.8699 1.01 0.9266 0.9632 0.9688 0.8774 0.806 0.7067 0.6296
3423.936 0.6724 0.6526 0.5922 0.6324 0.6093 0.4581 0.4792 0.5764 0.5666 0.5483
3443.225 0.4392 0.3773 0.4701 0.4622 0.4838 0.528 0.3968 0.3692 0.3717 0.2585
3462.515 0.408 0.3949 0.3238 0.4429 0.3509 0.2996 0.147 0.28 0.4633 0.4213
3481.805 0.4623 0.3526 0.3485 0.4173 0.3751 0.3207 0.342 0.3929 0.2963 0.2965
3501.095 0.3943 0.3754 0.2964 0.323 0.3543 0.2445 0.3933 0.5052 0.3049 0.1642
3520.385 0.2124 0.2914 0.2136 0.2249 0.3437 0.2449 0.1594 0.1614 0.1342 0.2124
3539.674 0.2207 0.1651 0.08836 0.1098 0.09227 0.05923 0.08457 0.0971 0.3309 0.2035
3558.964 0.0109 0.1845 0.3239 0.4116 0.4502 0.3942 0.286 0.1444 0.1519 0.262
3578.254 0.2647 0.3883 0.2629 0.01213 0.1841 0.3359 0.2254 0.2284 0.306 0.2636
3597.544 0.2206 0.3455 0.3667 0.3067 0.3787 0.3715 0.2851 0.2563 0.3187 0.3464
3616.833 0.3381 0.443 0.5541 0.4975 0.3959 0.2865 0.1521 0.09875 0.29 0.4338
3636.123 0.436 0.4594 0.4421 0.2129 0.1709 0.4383 0.4734 0.34 0.3641 0.4938
3655.413 0.5715 0.5473 0.4683 0.3379 0.3188 0.5292 0.678 0.6118 0.4953 0.511
3674.703 0.3711 0.2983 0.373 0.4725 0.6131 0.6912 0.5657 0.6101 0.5072 0.3761
3693.993 0.503 0.446 0.4787 0.4381 0.3532 0.3883 0.4548 0.4926 0.4686 0.3217
3713.282 0.2003 0.4033 0.4934 0.3648 0.323 0.3592 0.4701 0.4019 0.3605 0.4613
3732.572 0.3825 0.2901 0.3443 0.3015 0.2173 0.3169 0.32 0.1815 0.2063 0.3401
3751.862 0.3361 0.2813 0.2864 0.3396 0.4371 0.5065 0.6031 0.5 0.3586 0.3493
3771.152 0.3633 0.4086 0.2904 0.2886 0.3654 0.3327 0.3598 0.4391 0.4676 0.2933
3790.441 0.2345 0.3831 0.321 0.4171 0.4873 0.2774 0.3652 0.5484 0.3602 0.2108
3809.731 0.3872 0.4348 0.3861 0.3957 0.3272 0.2669 0.2932 0.2917 0.3889 0.4448
3829.021 0.4188 0.3903 0.4679 0.4245 0.364 0.5207 0.3317 0.2814 0.3808 0.4171
3848.311 0.4925 0.4871 0.449 0.4071 0.4078 0.3447 0.4505 0.4855 0.4428 0.4149
3867.601 0.38 0.4231 0.364 0.4106 0.3739 0.4005 0.4019 0.3678 0.4517 0.4194
3886.890 0.4951 0.438 0.3697 0.4399 0.4255 0.3918 0.5124 0.6472 0.5997 0.51
3906.180 0.3698 0.4219 0.5619 0.4716 0.3816 0.3995 0.4401 0.3685 0.3609 0.5654
3925.470 0.6217 0.5491 0.6223 0.6978 0.6394 0.6473 0.8044 0.7778 0.6967 0.6043
3944.760 0.5707 0.6041 0.6166 0.686 0.5423 0.6328 0.617 0.2834 0.4572 0.735
3964.049 0.5481 0.3858 0.4497 0.5809 0.7379 0.6722 0.4898 0.5053 0.4549 0.4257
3983.339 0.5576 0.6705 0.7043 0.7406 0.6539 0.6806 0.6333 0.5806 0.6255 0.5792
##END=
