##TITLE=2-Fluorobenzyl isothiocyanate
##JCAMP-DX=4.24
##DATA TYPE=INFRARED SPECTRUM
##ORIGIN=EPA-IR VAPOR PHASE LIBRARY
##OWNER=SRD/NIST
Collection (C) 2018 copyright by the U.S. Secretary of Commerce
on behalf of the United States of America. All rights reserved.
##CAS REGISTRY NO=64382-80-5
##MOLFORM=C 8 H 6 F N S
##$NIST SOURCE=MSDC-IR
##STATE=gas
##XUNITS=1/CM
##YUNITS=ABSORBANCE
##XFACTOR=1.
##YFACTOR=0.001
##DELTAX=1.92898
##FIRSTX=549.8
##LASTX=4000.7
##FIRSTY=10.1078
##MAXX=4000.7
##MINX=549.759
##MAXY=0.42914
##MINY=0
##NPOINTS=1790
##XYDATA=(X++(Y..Y))
549.759 10.1078 10.18 9.8122 9.6715 9.7094 9.2755 8.891 8.981 9.153 8.695
569.049 8.898 9.38328 9.206 9.6265 9.45417 8.945 9.199 9.243 9.211 9.2707
588.339 9.2782 9.2849 9.3331 9.5033 8.867 8.1 8.34 8.36 8.62 8.83
607.628 8.681 8.967 9.154 9.043 8.747 8.423 8.03 8.03 7.91 7.21
626.918 6.29 5.86 5.59 5.35 5.11 4.65 4.52 4.48 4.27 3.94
646.208 4.09 4.16 4.13 4.2 3.99 3.96 4.48 4.96 5.22 6.01
665.498 6.71 6.87 7.61 8.652 9.8356 11.3 12.68 14.14 15.54 16.94
684.787 18.09 18.89 19.24 19.11 18.71 18.16 17.58 16.56 15.62 14.76
704.077 13.62 12.81 11.95 11.17 11.02 10.8 10.49 10.3646 10.8 11.8
723.367 12.87 14.7 17.01 19.15 22.11 26.2 31.15 36.9 43.05 49.55
742.657 56.19 62.82 68.92 74.65 80.62 85.92 86.05 78.64 69.43 62.01
761.947 55.35 48.21 40.75 33.74 27.42 22.58 18.96 15.67 13.1 11.21
781.236 9.6032 8.25 7.39 6.9 6.21 5.72 5.5 5.01 4.66 4.46
800.526 4.07 3.9 4.02 4.14 4.07 3.91 4.3 4.46 4.58 5.32
819.816 5.89 6.66 7.63 8.944 10.56 12.3 14.23 16.37 18.44 19.24
839.106 20.27 21.3 21.41 21.34 20.68 19.64 18.07 16.47 14.84 13.08
858.395 11.85 11.28 10.46 9.605 8.996 8.55 8.27 7.71 7.37 6.99
877.685 6.33 5.59 5.03 4.78 4.76 4.7 4.3 4.11 4.14 4.33
896.975 4.48 4.27 4.09 4.21 4.16 4.21 4.47 4.31 4.45 4.98
916.265 5.22 5.16 5.17 5.34 5.41 5.49 5.77 6.37 6.78 6.74
935.555 6.46 6.41 6.55 6.36 6.07 5.91 5.3 4.56 4.63 4.89
954.844 4.47 4.23 4.12 3.99 4.03 3.86 3.85 3.71 3.68 3.74
974.134 3.33 3.5 3.62 3.37 3.43 3.3 3.36 3.45 3.56 3.75
993.424 3.78 3.71 3.68 3.54 3.59 3.97 4.18 4.14 4.07 4.52
1012.714 4.59 4.52 5.03 5.35 6.2 7.12 7.43 8.34 8.86 8.794
1032.003 8.99 8.635 8.25 8.06 7.32 6.8 6.48 5.7 5.28 4.89
1051.293 4.36 4.54 4.83 4.96 4.75 4.84 4.88 4.42 4.48 4.62
1070.583 4.83 4.99 5.09 5.8 6.48 7.11 7.32 7.36 8.04 8.33
1089.873 8.468 9.161 10.0844 10.192 10.0219 11.07 12.48 12.95 13.7 14.1
1109.163 14.41 15.22 15.31 14.94 14.8 14.76 13.55 12.45 11.4 10.0389
1128.452 9.08 8.27 7.55 6.95 6.77 6.73 6.77 6.59 6.22 6.45
1147.742 6.77 6.81 6.82 7.37 8.19 8.33 8.731 9.37534 9.8385 10.77
1167.032 12.18 13.8 15.88 17.67 18.93 19.54 19.85 20.87 21.52 20.87
1186.322 19.44 18.57 17.54 16.04 15.16 14.23 13.54 13.01 12.03 11.51
1205.611 11.62 11.95 12.01 13.14 14.36 15.75 18.04 20.42 23.34 27.49
1224.901 32.99 39.03 44.9 50.98 56.87 61.75 65.92 68.64 69.98 69.94
1244.191 68.68 65.41 59.9 53.23 46.47 40.73 35.25 30.02 26.19 23.4
1263.481 21.35 20.1 19.1 18.48 18.02 18.11 18.52 18.82 19.22 19.37
1282.771 19.37 19.36 19.56 19.47 19.33 19.22 19.15 19.05 18.74 18.62
1302.060 18.6 18.72 18.87 19.19 19.72 20.17 20.73 21.46 22.3 23.27
1321.350 24.4 25.7 27.32 29.23 31.74 34.98 39.11 44.52 51.43 59.82
1340.640 68.86 77.19 83.12 85.76 85.16 82.18 77.28 70.55 62.04 52.35
1359.930 42.81 34.55 28.49 24.34 21.5 19.56 18.12 16.93 15.73 14.6
1379.219 13.52 12.58 11.82 10.99 10.1749 9.4729 8.878 8.36 7.95 7.56
1398.509 7.27 7.1 6.83 6.5 6.39 6.38 6.41 6.44 6.46 6.55
1417.799 6.84 7.19 7.58 8.19 8.945 9.7508 10.58 11.63 13 14.8
1437.089 17 19.79 23.46 27.88 32.96 37.96 42.54 46.43 49.42 51.47
1456.378 52.01 50.81 48.38 45.19 41.65 38.15 34.93 32.33 30.93 30.79
1475.668 31.79 33.97 37.03 40.87 45.24 49.57 53.54 56.61 58.7 59.9
1494.958 60.08 59.02 56.46 52.64 47.97 43.01 38.04 33.24 28.76 24.47
1514.248 20.62 17.34 14.51 12.19 10.2499 8.86 7.93 7.06 6.31 5.78
1533.538 5.43 5.15 4.94 4.83 4.85 4.85 4.76 4.85 5 5.08
1552.827 5.16 5.41 5.79 6.25 6.74 7.38 8.08 8.809 9.7464 10.94
1572.117 12.32 13.73 15.46 17.42 19.46 21.53 23.34 24.99 26.34 27.24
1591.407 27.64 27.6 27.07 25.74 24.04 22.24 20.34 18.7 17.53 16.87
1610.697 16.28 15.63 14.95 14.03 13.06 11.93 10.55 9.194 8 6.91
1629.986 6.02 5.28 4.7 4.26 3.95 3.74 3.5 3.31 3.16 3.24
1649.276 3.22 2.96 2.84 2.9 2.86 2.85 2.94 2.96 3.02 3.13
1668.566 3.22 3.28 3.38 3.52 3.65 3.85 3.99 4.09 4.12 4.11
1687.856 4.13 4.05 3.98 3.91 3.69 3.54 3.55 3.57 3.49 3.4
1707.146 3.41 3.25 3.1 3.11 3.05 2.98 2.97 3.04 3.11 3.05
1726.435 2.91 2.8 2.78 2.88 2.87 2.92 2.92 2.82 2.74 2.67
1745.725 2.73 2.72 2.75 2.88 2.97 3.03 3.02 3.1 3.24 3.29
1765.015 3.42 3.65 3.82 4.01 4.17 4.32 4.49 4.71 4.76 4.81
1784.305 4.79 4.72 4.66 4.54 4.5 4.49 4.46 4.42 4.44 4.34
1803.594 4.17 4.07 4.09 4.15 4.11 4.09 4.18 4.23 4.18 4.24
1822.884 4.26 4.16 4.01 3.98 3.96 3.91 3.87 3.79 3.7 3.72
1842.174 3.89 3.94 3.95 4.04 4.1 4.17 4.34 4.53 4.72 4.87
1861.464 5.07 5.23 5.41 5.62 5.81 6.11 6.37 6.5 6.66 6.93
1880.754 7.24 7.55 7.84 8.12 8.423 8.872 9.38398 9.9282 10.44 10.95
1900.043 11.53 11.99 12.36 12.74 13.13 13.45 13.69 13.96 14.27 14.69
1919.333 15.19 15.68 16.28 16.96 17.74 18.6 19.48 20.54 21.73 22.87
1938.623 24 25.24 26.43 27.65 28.98 30.21 31.49 32.85 34.32 35.89
1957.913 37.57 39.61 41.89 44.2 46.75 49.52 52.38 55.43 58.81 62.4
1977.202 66.25 70.52 75.1 80.07 85.33 90.9 97.05 103.57 110.58 118.27
1996.492 126.38 135.03 144.25 154.08 164.38 175.2 186.84 199.07 211.95 225.38
2015.782 239.11 253.4 267.69 281.85 296.1 310.52 324.57 338.01 351.27 364.24
2035.072 376.63 388 398.66 408.46 416.59 422.9 427.34 429.14 428.29 425.23
2054.362 419.99 412.9 404.3 394.63 383.91 372.1 359.14 345.47 331.06 315.83
2073.651 299.9 283.55 267.49 251.6 236.28 222.02 208.34 195.62 183.82 172.76
2092.941 162.47 152.46 143.07 134.26 125.93 118.16 110.95 104.43 98.31 92.67
2112.231 87.68 83.08 78.82 74.89 71.39 68.2 65.22 62.56 60.21 58.14
2131.521 56.32 54.77 53.42 52.34 51.65 50.99 50.53 50.48 50.45 50.62
2150.810 51 51.57 52.31 53.2 54.21 55.19 56.43 57.91 59.08 60.12
2170.100 61.3 62.42 63.28 63.82 64.12 64.14 63.78 63.26 62.32 61.01
2189.390 59.42 57.67 56.01 54.12 51.99 49.85 47.77 45.67 43.54 41.35
2208.680 39.31 37.27 35.25 33.36 31.45 29.71 28.13 26.71 25.46 24.41
2227.970 23.56 22.76 21.92 21.16 20.49 19.81 19.18 18.54 17.82 17.12
2247.259 16.54 15.89 15.17 14.51 13.9 13.36 12.88 12.5 12.01 11.48
2266.549 11.09 10.77 10.47 9.986 9.6531 9.4863 9.157 8.856 8.696 8.527
2285.839 8.36 8.18 7.98 7.78 7.59 7.32 7.14 7.08 6.9 6.65
2305.129 6.57 6.57 6.46 6.29 6.14 5.97 5.76 5.66 5.56 5.34
2324.418 5.13 4.99 4.83 4.77 4.74 4.64 4.56 4.34 4.16 4.14
2343.708 4.08 3.95 3.84 3.77 3.69 3.65 3.57 3.5 3.49 3.34
2362.998 3.27 3.31 3.33 3.36 3.33 3.34 3.32 3.2 3.05 3.01
2382.288 3.06 2.92 2.77 2.82 2.88 2.7 2.52 2.52 2.51 2.59
2401.578 2.71 2.59 2.46 2.53 2.57 2.52 2.56 2.57 2.48 2.46
2420.867 2.41 2.39 2.37 2.44 2.56 2.48 2.47 2.53 2.45 2.36
2440.157 2.33 2.41 2.46 2.43 2.37 2.33 2.49 2.66 2.69 2.66
2459.447 2.67 2.56 2.58 2.83 2.81 2.77 2.84 2.81 2.72 2.77
2478.737 2.9 2.83 2.83 2.91 2.88 2.75 2.63 2.66 2.51 2.48
2498.026 2.6 2.49 2.42 2.41 2.39 2.49 2.47 2.35 2.4 2.56
2517.316 2.54 2.53 2.66 2.63 2.56 2.59 2.59 2.48 2.49 2.6
2536.606 2.61 2.67 2.84 2.95 2.95 3.02 3.02 2.93 2.89 2.81
2555.896 2.84 3.01 3.1 3.08 3.02 3.07 3.17 3.25 3.24 3.22
2575.186 3.3 3.21 3.28 3.37 3.42 3.38 3.28 3.31 3.34 3.28
2594.475 3.11 3.18 3.19 3.14 3.04 2.9 2.84 2.8 2.73 2.65
2613.765 2.53 2.44 2.51 2.61 2.66 2.42 2.22 2.32 2.2 1.93
2633.055 2.1 2.28 2.23 2.28 2.24 2.22 2.35 2.33 2.2 2.22
2652.345 2.33 2.39 2.3 2.39 2.53 2.5 2.35 2.17 2.05 2.16
2671.634 2.46 2.46 2.5 2.48 2.27 2.29 2.5 2.59 2.76 2.96
2690.924 2.95 2.96 2.86 2.87 3.2 3.32 3.26 3.37 3.47 3.51
2710.214 3.67 3.7 3.75 3.98 4.1 4.09 4.2 4.26 4.53 4.75
2729.504 4.53 4.51 4.61 4.64 4.66 4.62 4.57 4.69 4.73 4.55
2748.794 4.33 4.29 4.46 4.41 4.31 4.57 4.54 4.37 4.41 4.4
2768.083 4.47 4.46 4.57 4.77 4.91 5.01 4.96 5.07 5.04 4.89
2787.373 4.89 5.13 5.27 5.16 5.21 5.17 5.17 5.26 5.1 5
2806.663 4.99 4.85 4.55 4.37 4.28 4.08 3.88 3.67 3.46 3.41
2825.953 3.44 3.35 3.22 3.12 3.17 3.22 3.33 3.3 3.15 3.11
2845.242 3.11 3.06 2.95 3.14 3.24 3.14 3.41 3.73 3.83 4.13
2864.532 4.55 4.85 5.04 5.19 5.56 6.01 6.23 6.31 6.38 6.62
2883.822 6.93 7 6.85 6.76 6.79 6.7 6.62 6.55 6.29 6.06
2903.112 5.86 5.75 5.53 5.3 5.29 5.42 5.63 5.75 5.85 6.22
2922.401 6.68 6.95 7.46 8.22 8.817 9.5215 10.1993 10.81 11.47 11.73
2941.691 12.03 12.26 12.35 12.58 12.43 11.92 11.5 11.05 10.68 10.2694
2960.981 9.6256 9.032 8.373 7.87 7.58 7.26 6.87 6.42 5.88 5.37
2980.271 4.85 4.47 4.17 3.8 3.59 3.25 2.77 2.69 2.72 2.4
2999.561 2.2 2.46 2.47 2.37 2.48 2.31 2.24 2.31 2.38 2.52
3018.850 2.82 3.12 3.28 3.49 3.88 4.2 4.58 5.04 5.71 6.24
3038.140 6.55 7.16 7.72 8.27 8.681 9.001 9.2784 9.46991 9.6604 9.6835
3057.430 9.7329 10.1725 10.3666 10.2953 10.2519 10.1758 10.57 11.13 11.62 12.15
3076.720 12.5 12.88 13.01 12.78 12.61 12.24 11.7 10.93 9.9738 9.36789
3096.009 8.699 7.79 7.17 6.52 5.68 5.11 4.67 3.87 3.18 2.91
3115.299 2.57 2.29 2.16 1.97 1.73 1.73 1.84 1.64 1.39 1.26
3134.589 1.32 1.28 1.22 1.22 1.03 1.07 1.05 0.96 0.93 0.72
3153.879 0.79 1.03 0.77 0.79 0.98 0.69 0.61 0.65 0.82 0.95
3173.169 0.88 0.83 0.73 0.71 0.94 1.04 0.98 0.86 0.68 0.59
3192.458 0.72 0.87 0.66 0.54 0.62 0.61 0.68 0.78 0.75 0.6
3211.748 0.61 0.41 0.39 0.5 0.35 0.49 0.54 0.61 0.73 0.91
3231.038 0.98 0.61 0.57 0.75 0.5 0.57 0.68 0.49 0.59 0.81
3250.328 0.63 0.49 0.56 0.59 0.73 0.72 0.51 0.6 0.79 0.64
3269.617 0.53 0.65 0.72 0.76 0.81 0.74 0.54 0.47 0.53 0.46
3288.907 0.33 0.4 0.56 0.47 0.34 0.39 0.48 0.7 0.66 0.4
3308.197 0.52 0.57 0.34 0.17 0.18 0.08 0 0.15 0.35 0.26
3327.487 0.14 0.24 0.4 0.72 0.93 0.94 0.7 0.19 0.1 0.39
3346.777 0.47 0.48 0.68 0.7 0.43 0.42 0.52 0.72 0.6 0.36
3366.066 0.53 0.54 0.44 0.44 0.42 0.48 0.53 0.51 0.54 0.58
3385.356 0.61 0.53 0.7 0.8 0.45 0.2 0.15 0.55 0.71 0.41
3404.646 0.48 0.63 0.59 0.4 0.8 0.87 0.52 0.54 0.44 0.48
3423.936 0.41 0.18 0.48 0.95 0.89 0.72 0.41 0.24 0.38 0.24
3443.225 0.37 0.66 0.58 0.41 0.78 1.03 0.54 0.41 0.65 0.7
3462.515 0.56 0.45 0.3 0.27 0.55 0.54 0.44 0.61 0.68 0.64
3481.805 0.84 0.75 0.68 0.76 0.61 0.69 0.81 0.65 0.61 0.61
3501.095 0.5 0.74 1.02 1.05 0.88 0.55 0.53 0.71 0.56 0.26
3520.385 0.37 0.84 0.83 0.63 0.52 0.48 0.54 0.7 0.73 0.36
3539.674 0.46 0.71 0.64 0.62 0.54 0.27 0.21 0.38 0.53 0.5
3558.964 0.4 0.42 0.53 0.78 0.78 0.43 0.37 0.53 0.58 0.57
3578.254 0.59 0.76 0.71 0.68 0.78 0.69 0.76 0.79 0.68 0.77
3597.544 0.69 0.59 0.75 0.81 0.71 0.65 0.61 0.42 0.43 0.53
3616.833 0.68 0.57 0.49 0.78 0.94 0.95 0.78 0.82 0.85 0.72
3636.123 0.86 0.75 0.73 0.8 0.71 0.65 0.48 0.65 0.84 0.77
3655.413 0.79 0.87 0.8 0.57 0.54 0.74 0.72 0.55 0.57 0.6
3674.703 0.65 0.8 0.57 0.44 0.76 0.82 0.86 0.76 0.36 0.42
3693.993 0.67 0.48 0.5 0.54 0.24 0.36 0.49 0.38 0.47 0.69
3713.282 0.73 0.68 0.49 0.43 0.52 0.43 0.27 0.23 0.52 0.8
3732.572 0.88 0.76 0.39 0.54 0.81 0.58 0.32 0.53 0.62 0.45
3751.862 0.46 0.65 0.76 0.55 0.31 0.38 0.62 0.62 0.72 0.86
3771.152 0.84 0.72 0.61 0.39 0.19 0.41 0.65 0.78 0.81 0.73
3790.441 0.43 0.13 0.08 0.33 0.65 0.88 1.11 0.79 0.65 0.9
3809.731 0.9 0.63 0.41 0.55 0.75 0.86 0.9 0.95 0.97 0.96
3829.021 0.9 0.75 0.48 0.62 0.66 0.63 0.82 0.59 0.63 0.95
3848.311 1.03 1.05 0.95 0.8 0.58 0.45 0.67 0.87 0.83 0.86
3867.601 0.95 0.96 0.87 0.89 0.77 0.56 0.76 1.1 1.14 1.13
3886.890 1.07 0.88 1.03 1.31 1.39 1.34 1.23 1.39 1.45 1.28
3906.180 1.14 1.19 1.1 1.05 1.1 1.2 1.31 1.36 1.31 1.2
3925.470 1.38 1.59 1.49 1.32 1.51 1.34 1.32 1.42 1.24 1.33
3944.760 1.39 1.24 1.04 1.14 1.36 1.42 1.2 1.09 1.32 1.44
3964.049 1.36 1.25 1.34 1.62 1.77 1.43 1.46 1.61 1.39 1.48
3983.339 1.57 1.47 1.83 2.11 1.8 1.95 2.18 2.28 2.33 2.31
##END=
