##TITLE=2-Isopropylpyridine
##JCAMP-DX=4.24
##DATA TYPE=INFRARED SPECTRUM
##ORIGIN=NIST Mass Spectrometry Data Center
##OWNER=NIST Standard Reference Data Program
Collection (C) 2018 copyright by the U.S. Secretary of Commerce
on behalf of the United States of America. All rights reserved.
##CAS REGISTRY NO=644-98-4
##MOLFORM=C 8 H 11 N
##$NIST SOURCE=MSDC-IR
##SPECTROMETER/DATA SYSTEM=HP-GC/MS/IRD
##STATE=gas
##XUNITS=1/CM
##YUNITS=ABSORBANCE
##XFACTOR=1.0
##YFACTOR=0.000002300
##DELTAX=4.0
##FIRSTX=550.0
##LASTX=3846.0
##FIRSTY=0.001424
##MAXX=3846
##MINX=550
##MAXY=0.023
##MINY=0
##NPOINTS=825
##XYDATA=(X++(Y..Y))
550.0 619 524 375 348 345 263 228 233 170 138
590.0 128 135 161 159 188 245 304 328 299 259
630.0 233 183 146 139 112 64 26 18 49 52
670.0 34 19 30 65 82 86 115 154 202 234
710.0 255 349 528 796 1154 1576 2036 2587 3145 3248
750.0 2960 2673 2400 2146 1976 1928 1955 2029 2097 2005
790.0 1726 1373 1070 806 585 418 321 260 194 183
830.0 154 103 92 99 85 86 98 89 83 95
870.0 113 121 144 162 182 191 203 214 206 207
910.0 198 176 165 169 165 141 134 135 115 106
950.0 108 102 110 125 140 171 221 283 359 413
990.0 431 429 412 365 302 270 270 296 362 496
1030.0 717 999 1212 1367 1451 1432 1304 1093 911 795
1070.0 706 629 564 535 543 606 720 796 814 805
1110.0 741 644 543 489 542 672 847 1033 1141 1159
1150.0 1124 1020 828 612 409 266 200 157 123 104
1190.0 109 125 157 218 271 314 341 335 312 279
1230.0 226 181 186 184 176 175 175 177 194 226
1270.0 280 388 512 603 670 683 637 548 430 346
1310.0 328 339 363 392 435 481 506 530 560 606
1350.0 642 689 751 836 924 960 970 992 993 987
1390.0 951 879 812 752 751 852 1089 1526 2184 2789
1430.0 3120 3235 3203 2915 2317 1909 1939 2306 2912 3625
1470.0 4113 4215 4010 3557 2824 1863 1138 764 567 460
1510.0 389 358 340 329 332 351 385 447 553 703
1550.0 915 1201 1592 2098 2705 3457 4366 5392 6183 6373
1590.0 5980 5212 4208 3047 1962 1260 890 664 512 403
1630.0 313 251 220 198 172 159 163 174 172 166
1670.0 157 145 132 128 131 125 119 112 110 105
1710.0 101 98 95 98 95 95 109 112 112 131
1750.0 137 127 128 126 118 106 82 63 60 56
1790.0 47 42 47 51 58 65 77 94 102 109
1830.0 114 121 127 129 139 155 163 166 158 144
1870.0 127 94 72 73 72 85 105 128 150 155
1910.0 157 164 168 158 159 159 159 163 163 158
1950.0 154 159 161 158 146 125 105 86 66 45
1990.0 31 27 23 18 12 18 22 21 18 18
2030.0 23 17 13 14 12 15 17 5 0 8
2070.0 9 0 4 11 8 9 17 22 17 5
2110.0 0 4 5 15 13 4 0 0 1 6
2150.0 5 0 4 9 12 14 10 14 30 32
2190.0 34 40 38 37 39 33 29 36 27 17
2230.0 21 28 32 36 41 44 49 46 42 45
2270.0 48 50 53 60 67 61 58 64 72 75
2310.0 59 47 49 52 55 52 49 47 42 41
2350.0 45 43 31 21 30 37 44 44 35 27
2390.0 34 46 45 42 41 46 50 46 45 50
2430.0 51 44 44 48 57 66 57 48 57 70
2470.0 71 67 72 66 66 72 61 62 69 63
2510.0 63 64 64 69 75 66 55 63 71 73
2550.0 76 85 99 95 90 96 96 105 113 114
2590.0 112 118 115 124 129 114 109 105 95 95
2630.0 90 85 87 82 78 87 95 85 86 95
2670.0 92 92 96 102 102 100 108 113 112 117
2710.0 127 150 161 167 180 178 168 161 167 171
2750.0 180 197 203 199 199 199 194 191 200 201
2790.0 205 226 241 255 271 291 306 316 336 357
2830.0 372 400 439 505 595 705 836 1023 1276 1598
2870.0 1990 2371 2676 2883 2985 3027 3025 3029 3067 3144
2910.0 3247 3333 3433 3590 3769 3969 4219 4446 4613 4815
2950.0 5189 5917 7094 8412 9464 10000 9837 8900 7325 5672
2990.0 4329 3408 2921 2735 2722 2728 2651 2485 2218 1856
3030.0 1521 1331 1291 1352 1479 1684 1970 2326 2746 3145
3070.0 3402 3473 3380 3104 2613 2053 1581 1200 917 717
3110.0 574 487 437 400 390 385 371 373 372 348
3150.0 322 296 270 257 248 247 249 245 247 246
3190.0 236 219 201 184 178 177 162 156 148 137
3230.0 138 135 114 97 97 99 94 96 90 78
3270.0 76 71 69 72 80 81 80 70 66 78
3310.0 66 53 52 58 66 50 48 64 51 50
3350.0 55 51 59 54 48 42 38 38 35 39
3390.0 39 45 54 55 57 39 38 48 44 46
3430.0 59 65 39 32 48 58 68 66 57 50
3470.0 53 51 48 50 61 64 57 65 65 61
3510.0 57 44 36 39 56 51 37 49 54 61
3550.0 60 51 36 20 16 25 51 59 47 37
3590.0 38 46 31 28 42 40 29 44 70 71
3630.0 42 29 50 45 37 58 63 54 50 68
3670.0 83 76 78 83 80 79 62 41 60 73
3710.0 61 63 78 75 77 82 72 72 72 61
3750.0 52 58 66 86 98 89 84 75 82 94
3790.0 84 69 56 71 114 124 114 116 119 111
3830.0 97 109 118 113 113
##END=
