##TITLE=Dichlorophenylphosphine
##JCAMP-DX=4.24
##DATA TYPE=INFRARED SPECTRUM
##ORIGIN=EPA-IR VAPOR PHASE LIBRARY
##OWNER=SRD/NIST
Collection (C) 2018 copyright by the U.S. Secretary of Commerce
on behalf of the United States of America. All rights reserved.
##CAS REGISTRY NO=644-97-3
##MOLFORM=C 6 H 5 Cl 2 P
##$NIST SOURCE=MSDC-IR
##STATE=gas
##XUNITS=1/CM
##YUNITS=ABSORBANCE
##XFACTOR=1.
##YFACTOR=0.001
##DELTAX=3.85796
##FIRSTX=501.5
##LASTX=4000.7
##FIRSTY=140.842
##MAXX=4000.7
##MINX=501.534
##MAXY=0.166442
##MINY=0
##NPOINTS=908
##XYDATA=(X++(Y..Y))
501.534 140.842 166.442 153.542 109.192 63.232 32.842 17.422 10.402 7.212 5.452
540.114 4.292 3.522 3.012 2.722 2.472 2.182 2.052 1.932 1.642 1.442
578.693 1.352 1.262 1.1322 1.0058 1.0256 1.0042 0.9356 0.94 1.0769 1.192
617.273 1.202 1.212 1.232 1.262 1.362 1.482 1.652 1.902 2.342 3.122
655.852 4.042 5.112 6.572 8.482 10.762 13.682 17.342 21.612 25.842 28.552
694.432 28.102 24.682 19.882 15.222 11.982 10.322 9.662 9.742 10.812 13.142
733.011 16.722 20.432 22.202 21.462 18.162 13.832 10.402 7.852 5.912 4.452
771.591 3.322 2.482 1.882 1.502 1.322 1.202 1.0806 0.9829 0.8916 0.8477
810.170 0.7946 0.7789 0.8669 0.955 0.9735 0.9255 0.8499 0.6982 0.5783 0.5423
848.750 0.4885 0.4944 0.5332 0.5232 0.5242 0.5657 0.6047 0.5427 0.5014 0.5234
887.330 0.5541 0.544 0.5168 0.5623 0.5907 0.6202 0.6606 0.6971 0.7119 0.6901
925.909 0.659 0.6551 0.6824 0.6843 0.664 0.7008 0.8136 0.8358 0.8376 0.9273
964.489 1.0586 1.262 1.482 1.622 1.742 1.952 2.402 3.082 3.572 3.682
1003.068 3.502 2.842 1.972 1.682 1.872 1.992 1.942 1.752 1.452 1.282
1041.648 1.332 1.502 1.762 2.122 2.692 3.292 4.042 5.202 7.142 10.182
1080.227 14.132 17.922 20.402 20.832 18.662 14.982 11.742 9.262 7.532 6.462
1118.807 5.712 5.062 4.302 3.362 2.562 2.152 1.782 1.502 1.452 1.302
1157.387 1.212 1.212 1.232 1.202 1.332 1.782 2.172 2.382 2.472 2.232
1195.966 1.692 1.232 0.9151 0.7386 0.6826 0.7229 0.7535 0.6964 0.6665 0.6003
1234.546 0.6114 0.6505 0.6276 0.6851 0.7348 0.7652 0.8472 0.9745 1.0374 1.0864
1273.125 1.1289 1.1005 1.142 1.252 1.472 1.762 2.012 2.172 2.232 2.172
1311.705 2.102 2.172 2.352 2.532 2.662 2.622 2.332 1.952 1.612 1.302
1350.284 1.0859 0.9933 0.962 0.9628 0.9949 1.0072 1.003 0.9832 0.9157 0.8302
1388.864 0.7946 0.7959 0.8429 1.0137 1.272 1.652 2.202 2.922 3.952 5.332
1427.443 6.792 7.962 8.822 8.942 7.882 6.412 4.842 3.352 2.362 1.822
1466.023 1.622 1.732 2.042 2.362 2.542 2.442 2.022 1.472 1.0338 0.7752
1504.603 0.6591 0.6172 0.6295 0.6305 0.6206 0.6301 0.6296 0.6129 0.5899 0.5543
1543.182 0.5269 0.5305 0.5631 0.5943 0.6328 0.7527 0.9391 1.1206 1.272 1.412
1581.762 1.512 1.502 1.402 1.242 1.0737 0.9211 0.8234 0.7696 0.7188 0.6685
1620.341 0.6458 0.6287 0.6229 0.6355 0.6676 0.7905 0.9981 1.292 1.562 1.722
1658.921 1.702 1.512 1.212 0.9465 0.7918 0.7249 0.6901 0.6569 0.6534 0.6166
1697.500 0.5844 0.6172 0.6425 0.6372 0.6468 0.6767 0.7144 0.7586 0.7747 0.784
1736.080 0.8602 0.9206 0.9779 1.0354 1.0731 1.1179 1.1307 1.1022 1.0967 1.152
1774.659 1.192 1.242 1.332 1.452 1.672 2.022 2.322 2.432 2.312 1.992
1813.239 1.582 1.222 1.0346 0.9905 0.9565 0.894 0.8118 0.7497 0.7073 0.6838
1851.819 0.7209 0.7904 0.8686 0.9548 1.0727 1.222 1.362 1.482 1.592 1.672
1890.398 1.752 1.792 1.722 1.532 1.302 1.0334 0.7997 0.6949 0.7075 0.7509
1928.978 0.7887 0.8765 1.0058 1.152 1.322 1.492 1.622 1.692 1.752 1.782
1967.557 1.712 1.542 1.302 1.0283 0.7797 0.6093 0.5342 0.4889 0.4744 0.4773
2006.137 0.4753 0.4597 0.4492 0.4354 0.417 0.4131 0.3844 0.3617 0.3582 0.3348
2044.716 0.329 0.364 0.3818 0.3837 0.3871 0.3858 0.3879 0.3755 0.3545 0.3673
2083.296 0.3903 0.3922 0.4061 0.4248 0.4143 0.4104 0.4173 0.4209 0.4221 0.414
2121.875 0.4148 0.4127 0.3911 0.3859 0.386 0.372 0.3669 0.363 0.3956 0.4269
2160.455 0.4326 0.4645 0.4971 0.5316 0.5543 0.5559 0.5475 0.5346 0.5095 0.4706
2199.035 0.4447 0.438 0.4462 0.4298 0.4249 0.4193 0.4045 0.4078 0.3975 0.3967
2237.614 0.4006 0.4167 0.4425 0.451 0.4518 0.4558 0.4487 0.4554 0.482 0.4978
2276.194 0.5145 0.5298 0.5292 0.4883 0.4451 0.4128 0.4038 0.4348 0.4679 0.5603
2314.773 0.657 0.6814 0.7027 0.703 0.6265 0.5635 0.5422 0.5387 0.5606 0.5621
2353.353 0.5484 0.5179 0.4829 0.4501 0.4269 0.4005 0.3873 0.3895 0.3944 0.3979
2391.932 0.3834 0.3663 0.3661 0.3583 0.325 0.3263 0.3307 0.3259 0.3176 0.3239
2430.512 0.3442 0.3156 0.3105 0.3302 0.3198 0.3438 0.3757 0.377 0.3811 0.3484
2469.092 0.3197 0.3418 0.3559 0.3492 0.35 0.3469 0.3334 0.3284 0.3412 0.3604
2507.671 0.3841 0.3874 0.3822 0.3848 0.3932 0.3849 0.369 0.3915 0.4065 0.4033
2546.251 0.4317 0.4467 0.4609 0.4938 0.5019 0.5186 0.5434 0.5637 0.599 0.6208
2584.830 0.589 0.5471 0.5181 0.5269 0.5322 0.5318 0.5375 0.5168 0.5012 0.4849
2623.410 0.4498 0.4138 0.4231 0.4142 0.412 0.4143 0.4242 0.4868 0.4869 0.5153
2661.989 0.5934 0.6413 0.6726 0.6942 0.6801 0.611 0.5509 0.509 0.5143 0.5155
2700.569 0.504 0.465 0.4009 0.3517 0.3308 0.3373 0.3566 0.3975 0.3642 0.3006
2739.148 0.2914 0.2866 0.3192 0.3969 0.374 0.3116 0.2942 0.2779 0.3093 0.3924
2777.728 0.3913 0.3448 0.3407 0.3244 0.3334 0.415 0.4037 0.317 0.3045 0.3339
2816.308 0.3896 0.4592 0.4383 0.4107 0.4462 0.4452 0.4941 0.5223 0.4434 0.4071
2854.887 0.3819 0.4132 0.5029 0.4836 0.441 0.4501 0.4512 0.4167 0.4192 0.4331
2893.467 0.4124 0.4243 0.4405 0.5015 0.5403 0.5474 0.559 0.4872 0.488 0.4788
2932.046 0.4616 0.4708 0.4811 0.5713 0.542 0.4629 0.4876 0.5767 0.6201 0.5434
2970.626 0.5682 0.654 0.7885 0.8973 0.9669 1.1252 1.342 1.672 1.962 2.312
3009.205 2.762 3.182 3.412 3.422 3.332 3.172 2.922 2.752 2.892 3.262
3047.785 4.022 5.452 7.902 11.472 15.082 17.562 18.562 17.882 15.752 13.432
3086.364 11.562 9.792 7.972 6.102 4.352 3.012 2.152 1.572 1.212 1.0135
3124.944 0.9321 0.9367 0.9488 1.0088 1.131 1.212 1.152 0.9872 0.8474 0.6787
3163.524 0.511 0.4262 0.3788 0.3283 0.3545 0.3601 0.3294 0.3562 0.3667 0.32
3202.103 0.2867 0.3157 0.3106 0.2998 0.2758 0.21655 0.23378 0.2459 0.22451 0.2536
3240.683 0.20497 0.16498 0.23266 0.273 0.2528 0.23781 0.2476 0.2583 0.20737 0.18047
3279.262 0.2454 0.2475 0.2097 0.19767 0.23424 0.20762 0.19866 0.2943 0.2931 0.2578
3317.842 0.2431 0.23858 0.2443 0.21304 0.19802 0.20069 0.17988 0.19888 0.16738 0.1189
3356.421 0.17071 0.18723 0.1705 0.18324 0.1706 0.1236 0.1137 0.0749 0.0679 0.142749
3395.001 0.16212 0.14878 0.1011 0.0825 0.1283 0.0891 0.1023 0.128 0.111 0.144251
3433.580 0.0868 0.1033 0.145934 0.1135 0.149715 0.1209 0.1069 0.17476 0.19692 0.16634
3472.160 0.0959 0.101 0.144247 0.13536 0.118 0.0929 0.1287 0.19755 0.17234 0.1286
3510.740 0.1537 0.2024 0.15713 0.0991 0.13684 0.151076 0.0893 0.0684 0.0813 0.096
3549.319 0.1383 0.1236 0.0921 0.0897 0.1089 0.1122 0.1043 0.13958 0.18942 0.16499
3587.899 0.1065 0.1201 0.13827 0.1371 0.14207 0.17963 0.143766 0.1164 0.150196 0.15348
3626.478 0.15939 0.16681 0.16997 0.17885 0.17727 0.143065 0.11 0.15242 0.20025 0.14052
3665.058 0.1215 0.0981 0.1025 0.17433 0.18009 0.2454 0.3366 0.3611 0.3121 0.3001
3703.637 0.2985 0.21939 0.21131 0.20281 0.17795 0.17625 0.1084 0.0525 0.1249 0.17376
3742.217 0.1242 0.15612 0.2438 0.2849 0.2954 0.256 0.21086 0.162 0.149274 0.15646
3780.797 0.16174 0.15263 0.13876 0.13334 0.0912 0.142765 0.16502 0.0978 0.066 0.0851
3819.376 0.0588 0.026 0.031 0.0775 0.145478 0.14025 0.0927 0.0625 0.0694 0.1017
3857.956 0.113 0.0818 0.0477 0.027 0.0625 0.0833 0.1033 0.1116 0.1043 0.0943
3896.535 0.0585 0.0781 0.1035 0.0979 0.1299 0.17353 0.16636 0.1088 0.0837 0.1078
3935.115 0.05 0 0.0748 0.141087 0.0982 0.032 0.037 0.0779 0.0659 0.014
3973.694 0.021 0.0778 0.146826 0.1243 0.0696 0.0972 0.18319 0.22831
##END=
