##TITLE=6,8-Dichlorochromone-3-carboxaldehyde
##JCAMP-DX=4.24
##DATA TYPE=INFRARED SPECTRUM
##ORIGIN=EPA-IR VAPOR PHASE LIBRARY
##OWNER=SRD/NIST
Collection (C) 2018 copyright by the U.S. Secretary of Commerce
on behalf of the United States of America. All rights reserved.
##CAS REGISTRY NO=64481-11-4
##MOLFORM=C 10 H 4 Cl 2 O 3
##$NIST SOURCE=MSDC-IR
##STATE=gas
##XUNITS=1/CM
##YUNITS=ABSORBANCE
##XFACTOR=1.
##YFACTOR=0.001
##DELTAX=1.92898
##FIRSTX=549.8
##LASTX=4000.7
##FIRSTY=17.658
##MAXX=4000.7
##MINX=549.759
##MAXY=0.588028
##MINY=0
##NPOINTS=1790
##XYDATA=(X++(Y..Y))
549.759 17.658 17.078 15.718 14.648 13.398 11.248 9.808 9.288 9.958 10.528
569.049 11.288 12.618 11.708 9.128 7.108 5.748 4.828 3.828 2.878 2.618
588.339 2.538 2.258 2.168 2.158 2.068 1.828 1.798 1.618 1.2448 1.1362
607.628 1.2057 1.578 1.718 1.668 1.758 1.888 1.838 1.708 1.618 1.728
626.918 1.898 2.118 2.438 2.558 2.498 2.818 3.308 3.548 4.088 4.478
646.208 4.718 5.188 5.978 6.988 8.088 10.008 13.468 18.528 26.108 38.458
665.498 55.618 77.258 99.498 114.748 121.398 120.698 112.308 94.178 69.928 49.088
684.787 35.918 28.588 24.508 22.128 20.158 18.408 17.128 15.828 14.598 13.328
704.077 11.558 9.928 8.618 7.948 7.488 6.728 6.148 5.458 5.018 5.048
723.367 5.118 5.418 5.698 6.218 7.428 8.588 9.558 10.698 11.878 12.678
742.657 13.428 14.298 15.778 17.528 20.008 24.268 29.858 37.178 47.388 60.818
761.947 77.208 97.298 121.668 148.098 171.308 185.008 187.738 181.408 166.178 143.008
781.236 119.688 101.858 83.458 64.888 51.738 42.078 33.608 26.568 21.368 17.668
800.526 15.538 14.338 13.688 13.568 13.358 13.448 13.948 14.478 15.018 15.948
819.816 17.238 18.508 20.118 21.718 22.948 24.358 26.248 28.518 32.518 39.678
839.106 50.488 65.748 83.518 99.438 108.178 110.258 109.108 100.768 82.798 61.178
858.395 42.548 29.588 22.118 18.938 18.918 21.068 25.518 31.738 38.158 44.408
877.685 51.278 57.148 54.658 46.778 41.608 37.018 31.718 27.028 23.578 21.548
896.975 20.498 19.798 19.308 19.048 18.628 17.358 15.238 12.788 11.038 10.058
916.265 9.298 9.118 9.828 11.038 12.538 14.468 16.168 17.528 18.138 17.428
935.555 15.518 12.958 10.888 9.328 7.858 7.258 7.648 8.548 10.508 13.418
954.844 17.388 23.128 30.718 39.588 48.348 55.368 59.188 58.838 54.628 46.878
974.134 37.688 29.088 22.338 18.318 15.518 13.308 11.138 8.958 8.078 7.808
993.424 7.178 6.618 6.218 5.758 5.358 4.958 4.678 4.068 3.648 3.768
1012.714 3.988 4.368 3.768 3.778 4.358 4.138 3.668 3.398 3.548 3.238
1032.003 2.818 3.118 3.428 3.228 3.288 3.868 3.778 3.648 4.128 4.018
1051.293 4.198 4.668 4.728 4.208 3.788 4.328 4.378 4.108 4.108 4.368
1070.583 4.818 5.368 6.318 6.978 7.668 8.138 8.088 7.468 6.758 5.798
1089.873 5.368 5.948 6.238 5.738 4.888 4.718 5.208 5.588 5.048 4.368
1109.163 4.098 4.338 5.438 5.218 4.428 4.418 4.448 5.448 5.928 5.578
1128.452 5.738 5.908 6.478 7.488 8.238 9.218 11.098 12.308 13.988 16.658
1147.742 19.188 22.998 28.378 34.708 40.388 43.878 45.418 46.568 47.088 48.588
1167.032 51.748 57.748 66.898 76.298 84.228 88.618 88.548 85.468 80.548 73.198
1186.322 64.278 56.138 50.428 45.898 41.778 38.218 35.088 31.238 27.708 26.018
1205.611 23.788 20.688 19.078 17.938 15.868 15.338 15.338 14.728 13.768 13.208
1224.901 13.388 12.998 12.558 12.948 13.128 12.918 12.918 13.108 13.228 13.668
1244.191 14.318 14.388 14.488 15.168 15.448 15.788 16.968 18.258 20.158 22.718
1263.481 25.368 28.458 32.298 37.208 43.268 51.048 62.208 77.068 97.138 124.518
1282.771 160.438 206.928 262.028 319.698 371.348 406.208 417.578 406.498 379.618 345.908
1302.060 316.558 301.768 302.378 307.738 304.928 287.938 256.808 215.258 170.118 128.368
1321.350 94.488 70.038 54.058 44.088 37.968 34.188 31.788 30.648 30.858 33.048
1340.640 38.028 45.278 52.678 57.538 59.478 59.068 55.448 47.488 37.768 30.138
1359.930 25.208 22.168 20.538 19.978 19.898 20.198 21.088 22.548 24.838 28.138
1379.219 32.888 39.018 45.868 52.408 57.298 59.838 59.898 57.338 52.478 46.448
1398.509 40.758 36.148 32.708 30.348 29.288 29.428 30.838 33.578 37.428 42.108
1417.799 47.968 55.408 64.488 75.888 91.428 112.338 141.088 178.638 225.168 276.818
1437.089 330.528 374.478 399.168 401.738 384.298 355.498 326.658 308.688 305.938 312.088
1456.378 314.948 306.788 283.338 243.658 192.448 141.848 105.138 82.798 70.348 62.988
1475.668 58.268 53.988 49.538 44.448 39.038 33.628 28.488 24.058 20.648 18.118
1494.958 16.338 15.218 14.448 13.848 13.428 13.198 13.128 13.248 13.638 14.208
1514.248 14.958 15.638 16.348 16.908 17.208 17.478 17.628 17.768 17.988 18.208
1533.538 18.978 20.518 22.998 26.648 31.608 38.598 48.328 61.698 79.068 102.138
1552.827 129.618 161.108 191.278 216.188 230.738 230.948 217.388 191.508 156.018 117.778
1572.117 86.938 66.678 54.848 49.348 48.568 51.428 57.548 66.808 79.668 96.998
1591.407 120.288 150.728 189.378 235.528 284.248 326.248 351.268 352.488 329.438 285.568
1610.697 228.928 168.438 117.708 82.498 61.428 49.658 42.308 37.338 33.868 31.708
1629.986 30.118 28.948 28.308 27.948 27.748 27.838 28.148 28.318 28.698 29.208
1649.276 29.888 30.608 31.548 32.708 34.378 36.698 39.648 43.398 48.258 54.478
1668.566 63.248 75.218 92.588 118.938 159.498 215.838 292.798 383.328 475.828 551.368
1687.856 586.738 588.028 555.268 484.968 380.708 278.758 205.908 162.768 152.398 165.358
1707.146 196.148 233.408 264.438 279.228 276.598 257.768 221.628 175.768 133.108 103.808
1726.435 86.708 77.148 72.178 69.918 69.318 69.468 69.208 67.888 65.298 61.138
1745.725 55.858 49.678 43.098 37.068 32.398 28.838 25.988 23.578 21.088 18.698
1765.015 16.818 15.218 14.088 13.388 12.698 12.068 11.678 11.398 11.078 10.708
1784.305 10.228 9.698 9.118 8.518 8.098 7.828 7.608 7.598 7.718 7.758
1803.594 8.038 8.268 8.068 7.818 7.548 7.178 6.708 6.278 6.108 5.908
1822.884 5.748 5.808 6.008 6.188 6.388 6.568 6.728 6.798 6.798 6.758
1842.174 6.598 6.618 6.768 6.948 7.088 7.138 7.108 7.018 6.918 6.698
1861.464 6.438 6.198 5.888 5.568 5.218 4.998 4.818 4.488 4.228 4.128
1880.754 3.938 3.618 3.358 3.208 3.018 2.918 2.978 3.008 3.028 3.128
1900.043 3.158 3.058 2.998 3.018 3.088 3.238 3.428 3.558 3.818 4.158
1919.333 4.548 4.978 5.338 5.578 5.818 6.048 6.178 6.178 6.038 5.688
1938.623 5.178 4.788 4.348 3.898 3.468 3.158 2.928 2.658 2.578 2.428
1957.913 2.348 2.498 2.488 2.448 2.448 2.428 2.508 2.658 2.768 2.828
1977.202 2.878 2.998 3.058 2.958 2.828 2.658 2.558 2.518 2.438 2.388
1996.492 2.358 2.298 2.288 2.258 2.168 2.038 1.938 1.848 1.698 1.528
2015.782 1.448 1.448 1.488 1.528 1.508 1.498 1.538 1.528 1.588 1.698
2035.072 1.788 1.778 1.848 2.028 2.118 2.148 2.178 2.248 2.258 2.218
2054.362 2.228 2.308 2.458 2.458 2.478 2.438 2.428 2.528 2.568 2.598
2073.651 2.528 2.518 2.608 2.508 2.438 2.408 2.278 2.228 2.188 2.188
2092.941 2.178 2.038 1.968 1.988 2.048 2.138 2.218 2.278 2.388 2.538
2112.231 2.668 2.828 2.808 2.788 2.838 2.838 2.868 2.798 2.778 2.678
2131.521 2.508 2.328 2.138 2.078 2.038 1.908 1.868 1.918 1.858 1.838
2150.810 1.838 1.898 2.058 2.158 2.168 2.188 2.188 2.188 2.168 2.038
2170.100 1.938 1.898 1.868 1.748 1.648 1.568 1.538 1.578 1.548 1.588
2189.390 1.598 1.498 1.528 1.658 1.678 1.668 1.618 1.598 1.638 1.538
2208.680 1.498 1.528 1.518 1.468 1.3916 1.4023 1.3607 1.3211 1.428 1.568
2227.970 1.528 1.528 1.588 1.518 1.538 1.498 1.468 1.478 1.4104 1.3634
2247.259 1.339 1.2931 1.2995 1.362 1.387 1.438 1.548 1.628 1.628 1.708
2266.549 1.768 1.888 1.998 2.188 2.378 2.308 2.218 2.218 2.338 2.388
2285.839 2.368 2.388 2.298 2.238 2.228 2.098 2.028 1.988 2.018 1.988
2305.129 1.908 1.928 1.908 1.868 1.998 2.118 2.028 2.018 2.138 2.178
2324.418 2.188 2.298 2.438 2.488 2.548 2.698 2.838 2.988 3.208 3.328
2343.708 3.438 3.698 3.848 3.928 3.968 4.008 4.188 4.318 4.238 4.248
2362.998 4.258 4.248 4.338 4.348 4.328 4.338 4.408 4.498 4.438 4.258
2382.288 4.138 4.078 3.968 3.818 3.878 3.998 4.088 4.208 4.188 4.178
2401.578 4.198 4.078 4.038 3.988 3.758 3.608 3.468 3.138 2.908 2.758
2420.867 2.588 2.498 2.408 2.298 2.248 2.268 2.178 2.058 2.058 2.088
2440.157 2.128 2.138 2.098 2.228 2.268 2.268 2.368 2.408 2.438 2.558
2459.447 2.708 2.818 2.798 2.748 2.788 2.808 2.708 2.568 2.318 2.178
2478.737 2.078 1.938 1.868 1.858 1.758 1.678 1.918 1.948 1.838 1.828
2498.026 1.768 1.688 1.748 2.008 2.078 1.978 1.958 1.938 1.858 1.938
2517.316 2.018 1.918 1.788 1.838 1.938 1.928 1.948 1.948 1.858 1.718
2536.606 1.748 1.828 1.798 1.748 1.868 2.018 2.008 1.948 1.978 2.048
2555.896 2.258 2.578 2.648 2.748 2.968 3.148 3.218 3.188 3.218 3.288
2575.186 3.208 3.048 2.898 2.748 2.508 2.368 2.428 2.428 2.348 2.278
2594.475 2.228 2.208 2.188 2.198 2.048 1.918 1.908 1.768 1.748 1.798
2613.765 1.738 1.728 1.688 1.518 1.428 1.4131 1.4096 1.448 1.4029 1.3894
2633.055 1.3949 1.3764 1.3752 1.3151 1.2669 1.3738 1.538 1.658 1.668 1.548
2652.345 1.678 1.728 1.698 1.818 1.748 1.618 1.728 1.878 1.778 1.548
2671.634 1.688 1.878 1.838 1.828 1.958 2.198 2.288 2.428 2.588 2.888
2690.924 3.238 3.438 3.638 3.798 4.098 4.438 4.478 4.588 4.608 4.548
2710.214 4.648 4.418 4.178 4.278 4.388 4.418 4.588 4.798 4.828 4.808
2729.504 4.778 4.788 4.908 4.768 4.668 4.598 4.528 4.618 4.648 4.668
2748.794 4.668 4.698 4.748 4.728 4.718 4.648 4.498 4.438 4.448 4.478
2768.083 4.458 4.248 4.028 4.098 4.218 4.118 3.998 4.038 4.108 4.198
2787.373 4.228 4.168 4.258 4.328 4.338 4.518 4.588 4.518 4.508 4.358
2806.663 4.248 4.288 4.228 4.098 4.028 4.118 4.168 4.158 4.188 4.208
2825.953 4.308 4.358 4.518 4.678 4.578 4.608 4.618 4.698 4.968 5.298
2845.242 5.778 6.498 7.418 8.638 10.498 12.998 16.468 21.348 27.818 36.038
2864.532 45.398 54.148 59.858 61.418 59.538 54.648 46.458 36.238 26.778 19.428
2883.822 14.308 11.058 8.988 7.458 6.388 5.748 5.328 4.768 4.288 3.978
2903.112 3.758 3.558 3.368 3.208 3.018 2.968 2.798 2.688 2.508 2.348
2922.401 2.228 1.958 1.988 1.928 1.718 1.648 1.568 1.578 1.568 1.718
2941.691 1.858 1.788 1.918 1.948 1.868 1.818 1.768 1.828 1.798 1.818
2960.981 1.908 1.848 1.828 1.978 2.058 2.098 2.268 2.408 2.548 2.708
2980.271 2.728 2.848 3.078 3.208 3.388 3.568 3.548 3.478 3.188 2.948
2999.561 2.948 2.748 2.568 2.518 2.508 2.298 2.148 1.978 1.808 1.818
3018.850 1.718 1.578 1.558 1.478 1.1572 1.2657 1.428 1.2611 1.2004 1.2192
3038.140 1.189 1.2961 1.498 1.548 1.618 1.458 1.488 1.808 1.898 2.138
3057.430 2.328 2.368 2.618 2.908 3.268 3.558 3.918 4.798 5.988 7.458
3076.720 9.598 12.288 14.928 16.618 17.068 16.548 15.128 12.498 9.028 6.018
3096.009 4.058 2.928 2.278 1.858 1.668 1.548 1.468 1.3635 1.2616 1.1418
3115.299 1.1094 1.218 1.1177 0.9782 1.0074 1.0858 1.0711 1.0471 1.0547 1.1787
3134.589 1.231 1.0318 0.8425 0.9268 1.1661 1.1686 1.0467 1.1245 1.0605 0.8337
3153.879 0.8062 1.0226 1.158 1.1074 0.9694 0.7992 0.837 0.8964 0.8534 0.7984
3173.169 0.6095 0.7443 0.9108 0.8097 0.7878 0.7601 0.9022 0.8876 0.9794 1.1662
3192.458 1.1157 1.1557 1.0236 0.9482 1.0314 1.0225 1.116 1.2048 1.1116 0.9248
3211.748 0.6277 0.7861 0.9101 0.8094 0.9821 0.8983 0.8485 0.8005 0.6999 0.7139
3231.038 0.7814 0.7517 0.8112 0.7927 0.7297 0.7629 0.6937 0.8347 0.9498 1.0257
3250.328 1.1768 1.0491 0.9686 1.1251 1.0625 1.1056 1.188 1.2008 1.1439 1.0586
3269.617 1.1329 1.0765 1.0314 1.1398 1.2348 1.2621 1.3587 1.4069 1.528 1.728
3288.907 1.578 1.478 1.548 1.608 1.658 1.608 1.3715 1.2279 1.3255 1.3753
3308.197 1.558 1.758 1.758 1.768 1.708 1.788 1.798 1.628 1.668 1.838
3327.487 1.918 1.708 1.588 1.738 1.978 2.038 1.998 2.378 2.748 2.648
3346.777 2.858 3.328 3.658 3.958 4.538 5.178 5.478 5.678 5.878 6.098
3366.066 6.008 5.548 5.048 4.398 3.748 3.128 2.618 2.318 2.148 1.948
3385.356 1.948 2.068 1.998 2.068 2.248 2.398 2.798 3.218 3.518 4.158
3404.646 4.908 5.708 6.258 6.758 7.108 7.078 6.758 6.068 5.338 4.588
3423.936 3.838 3.298 2.818 2.558 2.278 1.998 1.888 1.818 1.838 1.768
3443.225 1.798 1.848 1.538 1.3931 1.3857 1.2513 1.2487 1.198 1.0278 1.1019
3462.515 1.0961 0.9356 0.8879 0.7468 0.8327 0.8577 0.6474 0.6111 0.68 0.5808
3481.805 0.5401 0.5786 0.7207 0.7138 0.6683 0.7719 0.667 0.6482 0.658 0.5464
3501.095 0.5819 0.5486 0.5943 0.5287 0.5359 0.5277 0.3928 0.43131 0.3881 0.4024
3520.385 0.423823 0.3701 0.47 0.6557 0.44554 0.46343 0.5941 0.61 0.7515 0.6539
3539.674 0.3221 0.159 0.4076 0.43674 0.528 0.7237 0.6328 0.7831 0.664 0.425449
3558.964 0.283 0.322 0.5343 0.50101 0.257 0.188 0.268 0.326 0.420254 0.219
3578.254 0.16 0.211 0.199 0.278 0.4022 0.272 0.166 0.263 0.3742 0.5781
3597.544 0.5879 0.41317 0.3664 0.3926 0.4028 0.3544 0.43375 0.5767 0.5324 0.5591
3616.833 0.45506 0.3564 0.3969 0.3845 0.3289 0.316 0.304 0.248 0.268 0.3483
3636.123 0.51182 0.5542 0.41003 0.3343 0.5188 0.46979 0.4843 0.6481 0.43684 0.3519
3655.413 0.5239 0.6342 0.6151 0.51632 0.3331 0.3421 0.3955 0.3629 0.305 0.317
3674.703 0.3887 0.43109 0.49327 0.5636 0.5247 0.47015 0.4069 0.178 0.287 0.27
3693.993 0.094 0.3348 0.3556 0.4409 0.49164 0.5495 0.6819 0.40927 0.209 0.4064
3713.282 0.6211 0.5859 0.5205 0.6032 0.6093 0.5807 0.48487 0.171 0.222 0.3526
3732.572 0.3493 0.253 0.135 0.265 0.3944 0.249 0.248 0.223 0.123 0.46676
3751.862 0.44297 0.247 0.3806 0.3953 0.3 0.49419 0.6323 0.424164 0.5295 0.6122
3771.152 0.41492 0.5861 0.6093 0.48985 0.5225 0.7283 0.8267 0.7141 0.6383 0.534
3790.441 0.45666 0.5223 0.4713 0.3456 0.43731 0.3943 0.252 0.251 0.49787 0.5293
3809.731 0.315 0.238 0.236 0.175 0.156 0.019 0.056 0.222 0.314 0.302
3829.021 0.194 0.46808 0.3956 0.115 0.299 0.4023 0.3268 0.284 0.255 0.15
3848.311 0.49563 0.6855 0.263 0 0 0.3415 0.6602 0.51616 0.3572 0.266
3867.601 0.3371 0.5195 0.5901 0.6322 0.6575 0.523 0.303 0.3835 0.41575 0.227
3886.890 0.29 0.3426 0.3858 0.3774 0.091 0.024 0.187 0.3267 0.244 0.43543
3906.180 0.47127 0.31 0.47959 0.5911 0.3703 0.273 0.50606 0.44123 0.273 0.5906
3925.470 0.8921 0.9217 0.7109 0.6575 0.8182 0.7492 0.7111 0.6939 0.7091 0.698
3944.760 0.6302 0.50126 0.5917 0.7223 0.714 0.7494 0.8201 0.7347 0.6705 0.8801
3964.049 0.9342 0.8886 0.7175 0.598 0.6082 0.48475 0.47729 0.6986 0.6913 0.7512
3983.339 0.8252 0.48421 0.6126 0.7174 0.47747 0.47466 0.47329 0.262 0.25 0.3295
##END=
