##TITLE=p-n-Propylphenol
##JCAMP-DX=4.24
##DATA TYPE=INFRARED SPECTRUM
##ORIGIN=NIST Mass Spectrometry Data Center
##OWNER=NIST Standard Reference Data Program
Collection (C) 2018 copyright by the U.S. Secretary of Commerce
on behalf of the United States of America. All rights reserved.
##CAS REGISTRY NO=645-56-7
##MOLFORM=C 9 H 12 O
##$NIST SOURCE=MSDC-IR
##SPECTROMETER/DATA SYSTEM=HP-GC/MS/IRD
##STATE=gas
##XUNITS=1/CM
##YUNITS=ABSORBANCE
##XFACTOR=1.0
##YFACTOR=0.000004200
##DELTAX=4.0
##FIRSTX=550.0
##LASTX=3846.0
##FIRSTY=0.001999
##MAXX=3846
##MINX=550
##MAXY=0.042
##MINY=0
##NPOINTS=825
##XYDATA=(X++(Y..Y))
550.0 476 758 519 420 294 204 140 72 41 35
590.0 1 4 26 19 11 15 9 5 6 10
630.0 13 20 41 34 22 30 21 28 46 36
670.0 26 35 54 76 113 175 254 336 386 402
710.0 375 298 224 191 150 118 116 142 176 210
750.0 267 350 444 505 525 523 514 557 678 848
790.0 1048 1231 1388 1512 1600 1681 1760 1806 1812 1750
830.0 1673 1649 1610 1509 1356 1124 831 597 453 360
870.0 300 254 208 183 176 158 145 129 108 101
910.0 89 76 69 62 52 47 44 43 48 47
950.0 48 42 43 54 56 59 63 70 72 60
990.0 61 74 106 137 158 187 203 205 195 177
1030.0 164 162 170 196 223 258 314 360 394 412
1070.0 417 433 445 475 548 645 742 824 892 938
1110.0 948 944 898 826 770 724 724 785 887 1081
1150.0 1453 2171 3599 5916 8226 9579 10000 9090 7024 5146
1190.0 3936 3134 2602 2258 2018 1820 1666 1555 1472 1423
1230.0 1437 1602 2011 2798 3916 4936 5417 5222 4324 2958
1270.0 1762 1079 734 557 467 427 425 444 478 541
1310.0 650 813 1000 1178 1339 1448 1440 1311 1122 894
1350.0 658 480 375 317 286 287 307 343 369 379
1390.0 372 339 313 307 327 377 460 586 752 934
1430.0 1077 1139 1106 996 876 799 783 798 812 811
1470.0 786 754 732 759 870 1127 1615 2500 3916 5669
1510.0 6979 7212 6514 4936 2986 1622 984 685 507 392
1550.0 320 284 274 276 291 339 418 545 721 940
1590.0 1173 1360 1503 1599 1655 1696 1673 1520 1270 975
1630.0 706 515 390 313 255 214 188 167 146 128
1670.0 113 103 89 78 74 71 67 67 68 72
1710.0 74 74 80 81 82 89 91 97 108 116
1750.0 118 110 95 78 58 42 31 26 25 24
1790.0 24 22 22 23 24 24 23 25 33 40
1830.0 46 55 65 79 92 108 125 141 159 176
1870.0 184 182 171 151 131 111 87 71 59 45
1910.0 36 30 25 23 25 26 24 24 25 25
1950.0 24 27 32 35 32 28 29 31 28 29
1990.0 32 36 44 46 43 46 47 49 49 45
2030.0 40 44 47 39 33 37 37 33 40 44
2070.0 42 44 46 43 44 44 40 39 38 34
2110.0 23 15 12 14 15 13 10 5 8 6
2150.0 0 3 7 7 5 4 4 6 5 8
2190.0 11 12 9 7 7 3 2 0 4 12
2230.0 9 4 10 12 10 8 10 13 12 9
2270.0 13 19 24 28 29 30 26 27 30 29
2310.0 29 37 45 44 43 53 59 60 63 61
2350.0 57 56 48 37 38 35 30 35 32 32
2390.0 35 33 41 52 64 85 104 123 142 143
2430.0 132 116 91 73 64 51 41 38 34 36
2470.0 39 37 43 47 49 58 61 62 64 65
2510.0 57 50 39 27 26 25 23 25 29 26
2550.0 20 19 20 13 10 22 23 24 26 31
2590.0 40 47 49 47 47 52 51 47 39 34
2630.0 38 50 55 50 49 45 43 52 60 56
2670.0 60 64 72 73 57 55 55 49 46 51
2710.0 57 57 65 77 82 81 78 84 90 95
2750.0 95 96 99 96 102 109 116 117 122 123
2790.0 133 146 157 170 183 196 211 230 255 289
2830.0 328 375 450 560 689 846 1025 1222 1423 1618
2870.0 1823 2047 2221 2253 2167 1979 1758 1626 1626 1745
2910.0 1972 2299 2714 3190 3692 4137 4442 4547 4395 4071
2950.0 3732 3488 3423 3558 3825 3942 3732 3292 2676 2011
2990.0 1537 1293 1224 1269 1380 1537 1663 1728 1742 1729
3030.0 1712 1683 1610 1464 1276 1101 951 847 789 742
3070.0 688 632 573 512 448 391 353 320 296 277
3110.0 263 246 230 210 188 166 153 137 118 102
3150.0 89 80 67 65 60 50 45 48 43 42
3190.0 53 57 53 46 40 37 33 27 30 31
3230.0 27 20 22 14 1 0 3 12 19 16
3270.0 10 12 15 7 1 8 14 16 6 0
3310.0 6 6 10 14 16 16 10 11 20 37
3350.0 45 44 46 44 38 44 51 49 46 50
3390.0 53 47 52 60 50 41 38 40 46 45
3430.0 37 23 19 22 21 29 28 20 28 23
3470.0 8 11 16 15 25 23 7 7 13 12
3510.0 7 5 4 4 7 4 8 6 11 20
3550.0 11 4 9 19 20 10 21 30 32 40
3590.0 38 40 44 63 84 90 120 178 233 315
3630.0 489 784 1273 2089 3106 3783 3794 3403 2539 1437
3670.0 729 411 247 155 106 75 63 55 35 25
3710.0 40 44 38 35 25 20 29 31 23 20
3750.0 18 18 8 6 21 28 23 19 29 42
3790.0 33 28 36 42 33 27 36 35 33 37
3830.0 38 41 50 42 31
##END=
