##TITLE=Hydrocinnamonitrile
##JCAMP-DX=4.24
##DATA TYPE=INFRARED SPECTRUM
##ORIGIN=NIST Mass Spectrometry Data Center
##OWNER=NIST Standard Reference Data Program
Collection (C) 2018 copyright by the U.S. Secretary of Commerce
on behalf of the United States of America. All rights reserved.
##CAS REGISTRY NO=645-59-0
##MOLFORM=C 9 H 9 N
##$NIST SOURCE=MSDC-IR
##SPECTROMETER/DATA SYSTEM=HP-GC/MS/IRD
##STATE=gas
##XUNITS=1/CM
##YUNITS=ABSORBANCE
##XFACTOR=1.0
##YFACTOR=0.000000700
##DELTAX=4.0
##FIRSTX=550.0
##LASTX=3846.0
##FIRSTY=0.000251
##MAXX=3846
##MINX=550
##MAXY=0.007
##MINY=0
##NPOINTS=825
##XYDATA=(X++(Y..Y))
550.0 358 441 228 389 587 705 868 1164 1289 1352
590.0 1402 1231 806 443 265 242 221 180 227 212
630.0 216 251 211 209 287 392 546 793 1080 1432
670.0 1941 2751 3844 5105 6571 8083 9573 10000 9378 8493
710.0 7418 6501 5870 5635 5745 6125 6746 7291 7562 7383
750.0 6636 5537 4360 3318 2497 1839 1353 1026 798 656
790.0 509 438 401 311 298 292 195 220 232 170
830.0 152 125 139 150 124 50 35 58 72 86
870.0 129 188 190 204 235 270 321 376 419 318
910.0 264 364 402 465 507 493 453 378 305 263
950.0 227 192 179 164 190 238 236 258 289 279
990.0 302 325 328 360 353 335 404 575 898 1107
1030.0 1062 961 774 456 315 360 406 501 683 830
1070.0 931 1081 1069 943 798 633 474 337 327 338
1110.0 311 278 237 172 110 45 0 54 90 71
1150.0 97 70 68 123 110 85 86 107 138 155
1190.0 143 154 185 207 212 207 256 300 326 347
1230.0 311 249 230 241 221 204 214 250 291 303
1270.0 337 336 308 287 269 277 280 301 340 384
1310.0 443 505 586 705 838 1033 1231 1392 1455 1377
1350.0 1187 921 692 542 452 434 440 440 437 419
1390.0 387 390 413 441 532 706 928 1265 1718 2261
1430.0 2854 3363 3687 3856 3965 3942 3759 3461 3055 2465
1470.0 1969 1654 1538 1740 2319 3118 3686 3811 3536 2888
1510.0 1941 1167 818 698 593 519 499 496 474 408
1550.0 360 380 427 407 409 483 586 704 848 1055
1590.0 1271 1467 1587 1615 1503 1294 1039 754 526 410
1630.0 353 351 342 315 315 332 323 274 243 177
1670.0 180 216 183 190 195 163 190 224 227 218
1710.0 219 259 293 308 326 351 363 346 325 310
1750.0 299 285 263 253 297 335 338 353 482 642
1790.0 750 809 795 721 587 432 332 292 265 258
1830.0 259 261 290 345 393 437 466 479 526 585
1870.0 615 577 509 413 350 296 251 238 226 236
1910.0 243 264 307 368 446 520 582 630 677 739
1950.0 748 703 628 514 407 309 203 164 179 168
1990.0 124 114 122 102 92 108 116 110 112 109
2030.0 109 121 130 139 152 121 82 89 103 105
2070.0 87 66 79 99 77 46 41 71 76 43
2110.0 30 56 79 77 51 64 84 53 68 104
2150.0 90 63 68 87 101 114 120 112 99 90
2190.0 84 95 111 117 127 141 113 112 141 166
2230.0 216 280 387 506 626 687 654 574 454 347
2270.0 267 237 237 207 166 153 162 163 170 189
2310.0 194 189 215 232 202 206 209 200 203 207
2350.0 214 222 229 203 182 169 151 155 139 114
2390.0 101 100 127 142 129 142 149 144 136 114
2430.0 113 116 109 104 120 123 98 93 110 114
2470.0 79 62 53 35 56 82 94 90 108 110
2510.0 89 110 112 100 91 82 101 110 95 124
2550.0 152 120 77 111 146 126 100 87 103 127
2590.0 148 173 191 198 219 217 212 192 135 140
2630.0 178 178 166 146 147 156 164 170 154 175
2670.0 184 166 162 125 90 96 108 128 124 80
2710.0 55 53 37 38 84 114 140 199 207 155
2750.0 134 179 179 129 141 188 216 254 253 221
2790.0 256 306 299 255 226 240 238 215 250 311
2830.0 345 370 437 533 623 749 894 979 1062 1218
2870.0 1418 1575 1581 1474 1367 1285 1174 1056 1048 1104
2910.0 1238 1476 1752 2149 2808 3544 4225 4794 5206 5451
2950.0 5488 5392 5297 5137 4776 4177 3493 2802 2200 1761
2990.0 1492 1427 1462 1622 1889 2259 2781 3504 4439 5558
3030.0 6536 7109 7277 6836 5865 4877 4298 4291 4903 5807
3070.0 6567 6848 6662 6030 5073 4266 3733 3273 2856 2442
3110.0 2067 1688 1321 1018 759 623 523 372 336 354
3150.0 303 272 257 287 311 273 238 217 215 168
3190.0 168 206 204 196 185 182 233 268 179 107
3230.0 137 196 234 209 168 153 136 116 126 116
3270.0 81 77 70 115 146 126 115 130 128 119
3310.0 119 98 68 53 101 144 137 124 125 125
3350.0 118 140 151 110 113 149 139 152 135 104
3390.0 141 148 61 22 111 168 154 145 152 141
3430.0 131 114 109 101 57 39 60 92 123 86
3470.0 71 136 110 73 128 138 111 63 48 50
3510.0 54 100 95 96 140 115 116 155 147 121
3550.0 83 65 55 77 123 132 113 120 144 139
3590.0 98 138 180 144 150 154 131 155 186 227
3630.0 211 130 164 210 186 191 242 237 200 184
3670.0 189 164 139 153 221 230 181 181 186 189
3710.0 173 173 197 198 190 171 145 154 141 166
3750.0 226 242 241 209 172 131 132 153 88 106
3790.0 144 139 158 164 150 156 174 191 166 151
3830.0 195 225 178 180 169
##END=
