##TITLE=3-Phenylpropionyl chloride
##JCAMP-DX=4.24
##DATA TYPE=INFRARED SPECTRUM
##ORIGIN=EPA-IR VAPOR PHASE LIBRARY
##OWNER=SRD/NIST
Collection (C) 2018 copyright by the U.S. Secretary of Commerce
on behalf of the United States of America. All rights reserved.
##CAS REGISTRY NO=645-45-4
##MOLFORM=C 9 H 9 Cl O
##$NIST SOURCE=MSDC-IR
##STATE=gas
##XUNITS=1/CM
##YUNITS=ABSORBANCE
##XFACTOR=1.
##YFACTOR=0.001
##DELTAX=1.92898
##FIRSTX=549.8
##LASTX=4000.7
##FIRSTY=14.984
##MAXX=4000.7
##MINX=549.759
##MAXY=0.102574
##MINY=0
##NPOINTS=1790
##XYDATA=(X++(Y..Y))
549.759 14.984 15.804 16.694 17.234 17.254 17.134 17.014 17.014 16.804 16.564
569.049 16.334 15.994 15.874 15.614 15.574 15.914 15.824 15.714 15.604 15.724
588.339 16.384 16.854 16.974 16.914 16.434 15.894 15.144 13.874 12.454 11.244
607.628 10.224 8.964 8.044 7.384 6.804 6.464 5.904 5.544 5.434 4.964
626.918 4.534 4.434 4.204 4.234 4.484 4.434 4.344 4.394 4.684 4.904
646.208 4.964 5.334 5.524 5.734 5.994 6.154 6.464 6.744 7.334 8.064
665.498 8.864 9.894 10.894 12.084 13.644 15.414 17.494 19.734 22.014 24.274
684.787 26.564 28.764 30.874 32.714 34.114 35.084 35.434 35.144 34.384 33.534
704.077 32.614 31.734 31.014 30.634 30.694 31.064 31.654 32.164 32.634 32.674
723.367 32.194 31.384 29.934 28.264 26.524 24.474 23.004 22.144 21.564 21.094
742.657 20.254 19.424 18.804 17.974 16.734 15.504 14.284 12.984 11.844 10.884
761.947 9.884 9.034 8.404 7.704 7.014 6.574 6.114 5.564 5.224 4.924
781.236 4.564 4.424 4.334 4.084 3.964 4.034 3.984 3.794 3.584 3.504
800.526 3.454 3.424 3.434 3.464 3.544 3.534 3.634 3.914 4.084 4.404
819.816 4.594 4.824 5.324 5.784 6.404 6.784 7.204 7.904 8.314 8.624
839.106 8.974 9.204 9.534 9.854 10.014 10.034 10.224 10.574 10.984 11.474
858.395 11.914 12.304 12.674 13.124 13.234 13.454 13.724 13.724 13.774 13.654
877.685 13.644 13.634 13.574 13.784 13.954 14.084 14.304 14.434 14.704 15.354
896.975 15.944 16.464 17.144 17.894 18.694 19.524 20.004 20.144 20.224 20.034
916.265 19.504 18.784 17.834 16.704 15.784 15.174 14.804 14.674 14.774 14.984
935.555 15.274 15.694 16.494 17.464 18.434 19.674 21.174 22.704 24.394 25.984
954.844 27.164 27.994 28.404 28.464 27.974 27.364 26.794 26.074 25.374 24.564
974.134 23.844 22.994 21.714 20.614 19.564 18.274 17.054 16.034 15.214 14.734
993.424 14.264 14.114 14.314 14.604 14.924 15.254 15.674 16.194 17.204 18.584
1012.714 20.134 22.204 24.804 27.464 30.004 32.324 34.104 35.184 36.464 37.004
1032.003 36.444 35.704 34.354 32.464 30.364 28.464 26.634 24.334 21.934 19.904
1051.293 17.804 15.744 14.334 13.124 12.034 11.304 10.454 9.804 9.784 9.234
1070.583 8.594 8.734 8.414 7.934 7.654 7.414 7.024 6.894 6.494 5.394
1089.873 5.124 4.704 4.504 4.804 4.454 4.104 4.224 4.344 4.404 4.424
1109.163 4.264 4.034 3.744 3.474 3.344 3.264 3.164 3.474 3.724 3.734
1128.452 3.744 3.684 3.834 4.054 4.114 3.984 4.034 3.984 4.104 4.544
1147.742 4.364 4.274 4.514 4.624 5.114 5.494 5.444 5.794 6.454 7.024
1167.032 7.374 7.584 7.924 8.394 8.664 8.754 8.914 8.984 8.664 8.394
1186.322 7.954 7.604 7.664 7.654 7.304 6.634 6.234 6.124 5.924 5.634
1205.611 5.284 5.104 4.824 4.564 4.394 4.364 4.254 3.904 3.904 4.054
1224.901 4.104 3.874 3.684 3.624 3.604 3.574 3.454 3.424 3.384 3.304
1244.191 3.164 2.954 2.884 2.894 2.924 2.834 2.814 2.884 3.104 3.294
1263.481 3.294 3.464 3.614 3.604 3.394 3.234 3.024 2.924 2.864 2.594
1282.771 2.314 2.234 2.234 2.174 2.214 2.204 2.184 2.274 2.334 2.334
1302.060 2.414 2.644 2.884 3.014 3.064 3.184 3.294 3.444 3.594 3.704
1321.350 3.814 3.944 4.084 4.194 4.414 4.694 4.874 5.064 5.224 5.384
1340.640 5.494 5.534 5.604 5.544 5.384 5.194 4.974 4.754 4.484 4.274
1359.930 4.114 3.894 3.684 3.464 3.254 3.084 2.964 2.854 2.744 2.694
1379.219 2.674 2.614 2.584 2.624 2.684 2.694 2.734 2.804 2.924 3.154
1398.509 3.434 3.614 3.864 4.224 4.584 4.894 5.194 5.514 5.764 5.974
1417.799 6.134 6.244 6.324 6.374 6.434 6.554 6.694 6.784 6.924 7.124
1437.089 7.414 7.794 8.184 8.614 9.064 9.504 9.844 9.984 9.864 9.624
1456.378 9.214 8.684 8.104 7.364 6.604 5.844 5.144 4.524 3.994 3.734
1475.668 3.594 3.434 3.484 3.714 4.104 4.804 5.834 7.274 8.994 10.554
1494.958 11.524 11.814 11.714 11.214 10.244 8.674 6.574 4.684 3.424 2.664
1514.248 2.244 1.954 1.804 1.694 1.594 1.554 1.534 1.454 1.354 1.404
1533.538 1.474 1.454 1.414 1.334 1.324 1.294 1.274 1.244 1.164 1.164
1552.827 1.214 1.244 1.254 1.264 1.294 1.334 1.384 1.414 1.494 1.574
1572.117 1.634 1.704 1.874 2.104 2.234 2.454 2.724 2.944 3.164 3.484
1591.407 3.894 4.324 4.734 5.184 5.634 5.904 6.014 5.934 5.604 5.064
1610.697 4.394 3.734 3.064 2.434 1.954 1.604 1.364 1.204 1.0604 0.988
1629.986 0.9315 0.8737 0.8542 0.8153 0.8187 0.8857 0.9501 0.9565 0.8651 0.863
1649.276 0.9312 0.902 0.9237 0.9692 0.8848 0.812 0.7318 0.6779 0.7197 0.789
1668.566 0.7978 0.7537 0.7504 0.7252 0.7413 0.7656 0.8224 0.7738 0.6645 0.745
1687.856 0.787 0.8388 0.9069 0.8857 0.8662 0.9722 1.0708 1.134 1.204 1.274
1707.146 1.354 1.404 1.464 1.524 1.694 1.894 2.024 2.094 2.264 2.474
1726.435 2.594 2.724 2.964 3.204 3.404 3.624 3.884 4.174 4.474 4.794
1745.725 5.214 5.674 6.124 6.634 7.204 7.864 8.604 9.364 10.214 11.174
1765.015 12.294 13.564 14.974 16.504 18.414 20.574 23.014 25.804 29.044 32.774
1784.305 37.014 41.854 47.224 53.144 59.584 66.464 73.394 80.214 86.664 92.494
1803.594 97.184 100.514 102.344 102.574 101.104 97.954 93.194 87.014 79.844 72.174
1822.884 64.404 56.774 49.654 43.364 37.724 32.934 28.834 25.354 22.474 20.024
1842.174 17.924 16.214 14.784 13.604 12.664 11.814 11.014 10.304 9.684 9.174
1861.464 8.704 8.244 7.864 7.544 7.204 6.864 6.554 6.304 6.014 5.754
1880.754 5.534 5.304 5.094 4.814 4.554 4.284 4.084 3.974 3.804 3.664
1900.043 3.554 3.474 3.324 3.224 3.164 3.104 3.054 2.984 2.944 2.894
1919.333 2.844 2.864 2.904 2.944 2.984 3.034 3.044 3.074 3.104 3.104
1938.623 3.114 3.134 3.134 3.144 3.104 3.094 3.154 3.114 2.974 2.834
1957.913 2.714 2.484 2.244 2.104 1.924 1.724 1.554 1.444 1.404 1.404
1977.202 1.344 1.284 1.264 1.224 1.234 1.264 1.244 1.214 1.234 1.214
1996.492 1.154 1.174 1.164 1.124 1.124 1.1039 1.0611 1.0608 1.1021 1.098
2015.782 1.0631 1.0321 1.0172 1.0496 1.0844 1.0996 1.0999 1.124 1.0902 1.0488
2035.072 1.0736 1.0807 1.0969 1.1043 1.124 1.184 1.234 1.274 1.374 1.474
2054.362 1.484 1.584 1.704 1.764 1.884 2.044 2.204 2.354 2.504 2.704
2073.651 2.854 3.054 3.304 3.534 3.854 4.194 4.534 5.064 5.724 6.394
2092.941 7.204 8.164 9.174 10.324 11.664 13.264 15.074 17.134 19.484 22.144
2112.231 25.144 28.344 31.684 35.084 38.174 40.764 42.604 43.414 43.244 42.154
2131.521 40.204 37.514 34.104 30.024 25.454 20.924 16.984 13.854 11.584 9.854
2150.810 8.394 7.194 6.224 5.444 4.804 4.224 3.744 3.354 2.994 2.674
2170.100 2.444 2.294 2.134 1.954 1.844 1.794 1.684 1.554 1.484 1.414
2189.390 1.324 1.294 1.244 1.184 1.124 1.0448 1.0089 1.0447 0.9844 0.901
2208.680 0.8811 0.8502 0.7869 0.8101 0.8354 0.8007 0.8499 0.8513 0.8516 0.8501
2227.970 0.845 0.8303 0.8151 0.8218 0.8367 0.8736 0.9058 0.8986 0.9356 0.9766
2247.259 0.9581 0.9618 0.94 0.9399 0.9275 0.8716 0.8519 0.806 0.7385 0.7365
2266.549 0.7341 0.7127 0.6842 0.6771 0.6704 0.6281 0.6709 0.7222 0.7257 0.7395
2285.839 0.7019 0.6933 0.7134 0.7196 0.7128 0.722 0.7744 0.8469 0.9184 0.902
2305.129 0.9353 1.0287 0.9542 0.8943 0.9519 0.9386 0.9263 0.9078 0.923 0.8879
2324.418 0.8374 0.8744 0.8657 0.844 0.8335 0.8214 0.8492 0.839 0.8586 0.8696
2343.708 0.7834 0.7369 0.7177 0.7827 0.847 0.7938 0.7705 0.8414 0.858 0.8553
2362.998 0.8698 0.8397 0.7793 0.753 0.8042 0.7976 0.7375 0.6818 0.6067 0.5912
2382.288 0.5727 0.4968 0.4991 0.4718 0.4234 0.4644 0.4127 0.404 0.4214 0.4105
2401.578 0.4318 0.4027 0.4103 0.4223 0.43 0.4092 0.3682 0.4159 0.4584 0.4594
2420.867 0.5154 0.4973 0.4273 0.3967 0.3559 0.3678 0.3742 0.3958 0.4033 0.367
2440.157 0.3759 0.3948 0.4103 0.4108 0.3378 0.3707 0.4273 0.4287 0.3958 0.3177
2459.447 0.3229 0.3679 0.3648 0.3388 0.3386 0.3619 0.2952 0.2424 0.3136 0.3174
2478.737 0.3029 0.3619 0.3578 0.3374 0.3856 0.399 0.3413 0.3168 0.3585 0.3434
2498.026 0.3136 0.3573 0.3723 0.298 0.21245 0.2216 0.3099 0.3331 0.3356 0.3375
2517.316 0.3761 0.3702 0.2527 0.2698 0.3979 0.3442 0.2504 0.3089 0.343 0.2605
2536.606 0.20206 0.2245 0.2466 0.2788 0.3118 0.3264 0.3501 0.3744 0.3462 0.3108
2555.896 0.323 0.2602 0.16969 0.21335 0.2837 0.3417 0.3488 0.3489 0.3759 0.3497
2575.186 0.3079 0.3001 0.3215 0.3243 0.4028 0.4446 0.4228 0.3895 0.3278 0.2647
2594.475 0.3254 0.4411 0.4304 0.3454 0.3492 0.4347 0.4675 0.4602 0.3132 0.2676
2613.765 0.3919 0.4052 0.3622 0.3893 0.3768 0.464 0.5638 0.4797 0.442 0.4449
2633.055 0.4761 0.5303 0.5537 0.5073 0.4341 0.4559 0.4798 0.5095 0.539 0.6016
2652.345 0.5718 0.4415 0.4738 0.4676 0.4252 0.445 0.4662 0.3927 0.3885 0.4616
2671.634 0.4157 0.424 0.6319 0.7344 0.4437 0.2544 0.3128 0.3603 0.3383 0.3485
2690.924 0.358 0.3624 0.3652 0.4082 0.515 0.735 0.9002 0.5598 0.2979 0.289
2710.214 0.2668 0.2808 0.3367 0.3861 0.3788 0.4388 0.4901 0.559 0.929 1.144
2729.504 0.7 0.3603 0.3536 0.422 0.4746 0.5114 0.5169 0.4503 0.4758 0.5888
2748.794 0.9142 1.434 1.244 0.6901 0.6231 0.6496 0.6091 0.5378 0.5481 0.6023
2768.083 0.64 0.7474 0.9307 1.404 1.584 1.0991 0.8663 0.8544 0.8297 0.9204
2787.373 1.0513 1.0148 0.9028 0.8888 0.9912 1.534 1.684 1.0547 0.776 0.8634
2806.663 0.8871 0.8708 0.7632 0.739 0.8287 0.9472 1.134 1.624 1.524 0.9171
2825.953 0.8112 0.8722 0.992 1.0671 1.174 1.154 1.114 1.364 1.874 2.174
2845.242 1.754 1.564 1.744 1.814 1.944 2.154 2.354 2.504 2.714 3.084
2864.532 3.384 3.384 3.394 3.474 3.474 3.544 3.544 3.364 3.194 3.114
2883.822 3.074 3.004 2.904 2.844 2.834 2.824 2.824 2.904 3.014 3.154
2903.112 3.484 3.964 4.114 4.234 4.574 4.904 5.434 6.034 6.604 7.234
2922.401 7.914 8.914 9.524 9.464 9.674 9.974 10.214 10.494 10.574 10.524
2941.691 10.704 10.974 10.374 9.344 8.894 8.464 8.044 7.634 7.424 7.424
2960.981 7.594 7.704 7.054 6.454 6.054 5.754 5.584 5.304 5.224 5.474
2980.271 5.744 5.144 4.384 4.084 3.944 3.904 3.824 3.874 4.194 4.524
2999.561 4.264 4.134 4.444 4.854 5.174 5.624 6.464 7.424 7.944 8.274
3018.850 9.094 10.224 11.594 13.134 14.824 16.734 18.244 18.974 19.444 19.484
3038.140 19.004 18.234 17.124 15.694 14.004 12.394 11.274 10.664 10.414 10.454
3057.430 10.884 11.634 12.574 13.824 15.334 16.844 18.184 19.074 19.304 18.924
3076.720 18.204 17.114 15.594 13.914 12.604 11.504 10.634 10.084 9.514 9.034
3096.009 8.534 8.044 7.604 7.094 6.514 5.964 5.504 5.084 4.654 4.234
3115.299 3.684 3.164 2.724 2.294 2.044 1.854 1.434 1.164 1.1061 0.8868
3134.589 0.8672 0.8906 0.7428 0.7084 0.641 0.6228 0.7179 0.6854 0.6438 0.5854
3153.879 0.4926 0.5195 0.5374 0.4792 0.4687 0.4775 0.4053 0.4513 0.5111 0.5444
3173.169 0.5245 0.3552 0.3443 0.3856 0.402 0.3923 0.376 0.4259 0.3913 0.4168
3192.458 0.4564 0.3937 0.4071 0.4191 0.3805 0.3676 0.3489 0.2699 0.3129 0.2768
3211.748 0.20702 0.2199 0.13768 0.17586 0.2621 0.3251 0.3024 0.2428 0.2759 0.3197
3231.038 0.331 0.3339 0.3744 0.3734 0.308 0.334 0.4018 0.3541 0.4416 0.5393
3250.328 0.3576 0.2726 0.3612 0.4033 0.3178 0.3004 0.2978 0.2352 0.18103 0.071
3269.617 0.117902 0.17948 0.16199 0.2219 0.2965 0.3083 0.2263 0.12648 0.2457 0.3379
3288.907 0.2805 0.2555 0.17945 0.14743 0.3081 0.3756 0.2384 0.114644 0.14092 0.18761
3308.197 0.18158 0.17399 0.17579 0.2178 0.18201 0.089 0.0552 0.14187 0.20328 0.10928
3327.487 0.1293 0.2349 0.2568 0.2679 0.3184 0.2979 0.15077 0.15897 0.13022 0.171
3346.777 0.3008 0.2701 0.20038 0.0939 0.18602 0.3665 0.3221 0.2629 0.116256 0.0456
3366.066 0.11081 0 0.092 0.19317 0.14478 0.17325 0.17386 0.2627 0.2723 0.2169
3385.356 0.2884 0.354 0.3484 0.2897 0.17894 0.2299 0.3821 0.3893 0.3844 0.4354
3404.646 0.3734 0.3434 0.3168 0.20339 0.15795 0.16811 0.19745 0.2548 0.286 0.3577
3423.936 0.4268 0.4354 0.3812 0.2714 0.251 0.2431 0.3494 0.4426 0.4435 0.4806
3443.225 0.3288 0.2528 0.309 0.3021 0.4044 0.2989 0.2153 0.2833 0.15385 0.1621
3462.515 0.3133 0.2699 0.2345 0.2731 0.2518 0.2768 0.3843 0.4454 0.3389 0.2509
3481.805 0.3104 0.3413 0.3601 0.4078 0.4814 0.5249 0.5032 0.3964 0.3415 0.5018
3501.095 0.5759 0.4758 0.3545 0.3743 0.518 0.5543 0.5533 0.5804 0.461 0.4451
3520.385 0.5194 0.5373 0.4945 0.3933 0.362 0.4602 0.6146 0.6115 0.4735 0.5445
3539.674 0.6539 0.633 0.7028 0.7418 0.6206 0.6003 0.7819 0.8202 0.7378 0.6272
3558.964 0.6843 0.8346 0.9032 0.9609 1.0979 1.134 1.1124 1.164 1.224 1.424
3578.254 1.604 1.614 1.674 1.744 1.784 1.844 1.784 1.884 1.984 1.924
3597.544 1.894 1.934 1.874 1.714 1.634 1.664 1.574 1.404 1.334 1.224
3616.833 1.154 1.224 1.234 1.164 0.9921 0.9287 0.8668 0.691 0.645 0.5926
3636.123 0.5463 0.5178 0.6063 0.6863 0.6155 0.514 0.3862 0.3768 0.542 0.6862
3655.413 0.6568 0.5077 0.5262 0.5651 0.5088 0.479 0.4384 0.4034 0.347 0.3237
3674.703 0.2886 0.2927 0.3725 0.423 0.3649 0.3001 0.3002 0.3734 0.5138 0.4413
3693.993 0.2686 0.2247 0.17253 0.120787 0.2821 0.3664 0.314 0.219 0.20221 0.2419
3713.282 0.2677 0.3153 0.3098 0.2482 0.2308 0.2192 0.1007 0.16257 0.3204 0.3469
3732.572 0.2595 0.2956 0.2344 0.2303 0.3764 0.3375 0.3333 0.3358 0.3176 0.2995
3751.862 0.3519 0.3281 0.2468 0.2975 0.3548 0.3769 0.3 0.2666 0.3433 0.2537
3771.152 0.17822 0.2375 0.2612 0.3082 0.427 0.4267 0.18792 0.115917 0.19345 0.13348
3790.441 0.2395 0.3915 0.3078 0.15072 0.0281 0.0485 0.123132 0.2146 0.2421 0.2317
3809.731 0.20511 0.262 0.2645 0.2297 0.3035 0.3072 0.3287 0.4286 0.443 0.398
3829.021 0.3362 0.14812 0.0669 0.0184 0 0.10471 0.17172 0.19471 0.17374 0.2226
3848.311 0.3453 0.3288 0.21269 0.19795 0.2003 0.16388 0.18 0.0999 0.0649 0.18125
3867.601 0.3639 0.4804 0.3863 0.2935 0.2509 0.2353 0.3993 0.3959 0.3818 0.4779
3886.890 0.3767 0.2491 0.2999 0.4535 0.327 0.2263 0.269 0.236 0.20282 0.19035
3906.180 0.2486 0.2595 0.2681 0.2622 0.2362 0.15162 0.224 0.3656 0.2601 0.19689
3925.470 0.2593 0.3728 0.4994 0.4565 0.2379 0.2812 0.3564 0.2634 0.3365 0.4357
3944.760 0.4799 0.4153 0.2651 0.2191 0.3171 0.4252 0.3684 0.2723 0.311 0.3725
3964.049 0.2821 0.15663 0.14662 0.292 0.3796 0.2569 0.2568 0.2574 0.13066 0.14165
3983.339 0.21071 0.2423 0.3456 0.3868 0.19149 0.14767 0.2521 0.2438 0.13555 0.17394
##END=
