##TITLE=(4-Isopropylphenyl)ethanone
##JCAMP-DX=4.24
##DATA TYPE=INFRARED SPECTRUM
##ORIGIN=NIST Mass Spectrometry Data Center
##OWNER=NIST Standard Reference Data Program
Collection (C) 2018 copyright by the U.S. Secretary of Commerce
on behalf of the United States of America. All rights reserved.
##CAS REGISTRY NO=645-13-6
##MOLFORM=C 11 H 14 O
##$NIST SOURCE=MSDC-IR
##SPECTROMETER/DATA SYSTEM=HP-GC/MS/IRD
##STATE=gas
##XUNITS=1/CM
##YUNITS=ABSORBANCE
##XFACTOR=1.0
##YFACTOR=0.000003400
##DELTAX=4.0
##FIRSTX=550.0
##LASTX=3846.0
##FIRSTY=0.001292
##MAXX=3846
##MINX=550
##MAXY=0.034
##MINY=0
##NPOINTS=825
##XYDATA=(X++(Y..Y))
550.0 380 444 569 732 868 997 1120 1178 1185 1170
590.0 1142 1153 1131 1028 877 697 542 412 327 277
630.0 290 343 401 495 596 666 642 515 323 181
670.0 128 103 70 58 49 37 9 0 11 18
710.0 13 8 28 32 33 42 48 50 55 43
750.0 29 44 64 69 88 116 129 127 112 106
790.0 128 176 230 303 433 619 882 1181 1492 1685
830.0 1692 1642 1534 1309 1010 738 515 341 235 184
870.0 162 138 131 143 145 147 140 132 119 112
910.0 116 132 156 193 269 370 505 688 929 1208
950.0 1419 1465 1333 1056 753 543 410 332 293 270
990.0 276 298 346 469 700 942 1020 923 679 422
1030.0 311 286 309 387 528 705 826 845 804 779
1070.0 817 872 863 748 601 486 436 441 492 550
1110.0 565 538 476 407 363 355 380 402 397 376
1150.0 327 268 238 243 274 339 488 815 1193 1382
1190.0 1333 1054 720 563 551 626 786 976 1162 1353
1230.0 1572 1829 2133 2552 3305 4741 6916 8963 9732 8728
1270.0 6241 3848 2652 2160 1815 1501 1286 1200 1130 1007
1310.0 814 640 564 557 593 664 765 896 1088 1400
1350.0 1900 2577 3145 3337 3082 2444 1765 1320 1095 995
1390.0 975 1015 1106 1265 1483 1649 1669 1539 1299 1068
1430.0 917 831 784 757 741 746 779 832 883 908
1470.0 884 811 692 552 441 371 336 316 295 281
1510.0 266 260 262 259 257 257 266 278 293 318
1550.0 350 414 504 595 667 689 658 608 589 659
1590.0 866 1276 1930 2685 3159 3072 2439 1536 867 585
1630.0 482 450 452 479 523 576 633 687 748 828
1670.0 937 1115 1431 1986 2945 4540 6886 9085 10000 9384
1710.0 7229 4689 2936 1908 1305 952 740 607 530 486
1750.0 455 422 380 335 293 253 207 169 150 137
1790.0 135 144 149 149 151 147 129 109 100 92
1830.0 80 69 66 71 73 68 67 68 67 66
1870.0 70 77 88 99 118 133 138 145 159 166
1910.0 164 162 156 141 124 109 101 98 88 76
1950.0 71 63 51 44 36 39 39 32 30 29
1990.0 31 27 23 25 28 33 39 41 42 44
2030.0 42 45 46 36 25 13 11 8 2 6
2070.0 5 0 3 10 13 12 7 4 0 4
2110.0 4 3 7 6 9 12 9 8 7 9
2150.0 12 15 12 6 5 5 1 1 2 0
2190.0 2 4 10 11 13 16 11 11 9 5
2230.0 4 7 8 3 5 8 14 15 11 11
2270.0 14 15 16 18 22 23 19 21 23 25
2310.0 29 32 32 26 25 17 19 27 22 21
2350.0 19 15 13 14 14 17 16 19 22 16
2390.0 10 7 6 4 4 4 4 0 1 3
2430.0 6 7 9 12 9 12 11 11 12 9
2470.0 10 14 15 19 23 23 20 21 26 21
2510.0 17 23 30 34 32 24 17 21 26 26
2550.0 28 36 38 31 32 37 41 47 51 48
2590.0 46 45 40 42 44 41 39 34 28 28
2630.0 31 26 19 17 17 18 21 23 16 12
2670.0 18 23 19 17 20 16 18 20 20 26
2710.0 34 40 44 46 48 54 52 54 63 54
2750.0 49 55 57 70 76 76 71 65 62 67
2790.0 78 75 85 101 109 114 125 141 152 152
2830.0 152 172 199 221 265 318 379 469 582 726
2870.0 911 1135 1348 1491 1544 1513 1470 1455 1472 1505
2910.0 1549 1569 1588 1635 1721 1842 1997 2153 2235 2252
2950.0 2296 2506 3162 4435 5810 6625 6400 5100 3550 2352
2990.0 1653 1290 1106 1032 1008 1011 995 964 945 961
3030.0 1012 1034 997 908 816 768 741 712 691 678
3070.0 672 683 699 716 723 693 626 540 457 378
3110.0 327 297 271 244 215 194 168 143 126 114
3150.0 115 113 104 99 86 77 79 78 76 76
3190.0 76 75 71 68 68 65 62 62 55 49
3230.0 37 32 31 21 25 22 10 11 16 8
3270.0 2 10 14 4 0 1 2 2 13 18
3310.0 14 14 8 12 15 14 20 25 29 26
3350.0 17 28 41 55 71 87 116 139 169 186
3390.0 172 151 120 83 53 53 43 31 30 24
3430.0 19 25 29 17 8 3 8 3 3 13
3470.0 9 6 9 5 2 8 5 3 17 18
3510.0 12 10 5 7 12 14 14 13 14 13
3550.0 12 10 15 16 17 22 16 6 6 11
3590.0 13 12 12 5 10 17 14 8 16 23
3630.0 14 13 11 13 22 26 30 25 10 15
3670.0 32 34 21 15 26 25 20 21 24 32
3710.0 29 31 41 37 33 23 12 15 19 9
3750.0 10 19 10 9 12 2 8 12 14 26
3790.0 27 25 28 31 32 34 35 34 43 43
3830.0 34 21 20 30 34
##END=
