##TITLE=Ethyl 2-isocyanato-4-methyl valerate
##JCAMP-DX=4.24
##DATA TYPE=INFRARED SPECTRUM
##ORIGIN=EPA-IR VAPOR PHASE LIBRARY
##OWNER=SRD/NIST
Collection (C) 2018 copyright by the U.S. Secretary of Commerce
on behalf of the United States of America. All rights reserved.
##CAS REGISTRY NO=64505-10-8
##MOLFORM=C 9 H 15 N O 3
##$NIST SOURCE=MSDC-IR
##STATE=gas
##XUNITS=1/CM
##YUNITS=ABSORBANCE
##XFACTOR=1.
##YFACTOR=0.001
##DELTAX=1.92898
##FIRSTX=549.8
##LASTX=4000.7
##FIRSTY=3.53
##MAXX=4000.7
##MINX=549.759
##MAXY=0.46657
##MINY=0
##NPOINTS=1790
##XYDATA=(X++(Y..Y))
549.759 3.53 3.49 3.13 3.61 4.55 4.67 3.45 3.46 4.64 5.72
569.049 6.5 6.6 6.74 7.31 7.32 6.96 7.81 8.49 8.22 8.96
588.339 9.56 10.33 10.64 10.71 11.38 10.89 10.7 11.54 12.15 12.53
607.628 12.73 13.14 13.61 13.52 13.45 13.27 11.83 11.16 11.39 11.6
626.918 11.38 10.49 9.79 9.6 9.31 8.92 8.34 8.38 8.82 8.53
646.208 8.15 8.33 8.62 8.58 8.56 8.24 8.25 8.43 8.22 8.12
665.498 8.28 8.54 8.76 8.5 8.32 8.54 8.3 7.79 8.06 8.32
684.787 8.19 7.79 7.39 7.52 7.34 6.75 6.56 6.43 6.44 6.85
704.077 6.59 6.71 6.92 6.21 5.97 6.39 6.28 5.98 6.36 5.99
723.367 5.44 5.73 5.73 5.64 6.05 6.33 6.69 7.02 7.5 7.92
742.657 7.93 7.97 7.98 8.06 8.17 8.25 7.71 7.72 8 8.02
761.947 8.26 7.95 7.05 6.73 6.88 6.7 6.11 5.97 6.88 6.84
781.236 6.77 7.01 6.85 7.05 6.94 6.78 6.9 7.29 7.1 6.32
800.526 5.62 5.41 5.6 5.62 6 6.41 6.3 5.64 5.55 5.92
819.816 6.12 6.45 6.46 6.05 5.67 5.62 5.08 4.96 4.96 4.63
839.106 5.56 6.62 7.24 7.46 7.26 7.43 8.15 8.21 7.9 8.51
858.395 8.71 8.24 7.91 8.01 7.86 7.38 7.11 6.47 5.42 4.94
877.685 4.55 3.69 3.59 3.84 3.88 4.33 4.58 4.58 4.73 4.48
896.975 4.74 5.25 4.99 4.96 6.15 7.42 7.81 8.3 9.2 9.76
916.265 10.57 12.07 13 13.5 13.89 14.4 14.5 14 14.06 13.88
935.555 13.16 12.8 12.49 12.4 12.85 12.84 13.01 13.64 14.02 14.1
954.844 14.28 14.89 15.18 15.02 14.33 13.69 13.63 13.5 12.42 10.99
974.134 10.6 10 9.41 9.32 7.98 7.61 8.26 7.95 7.52 7.62
993.424 8.18 8.96 9.89 11.25 12.59 13.82 16.2 18.05 19.8 22.73
1012.714 26.15 29.42 32.01 35 38.63 41.93 43.27 44.66 46.27 46.99
1032.003 46.23 44.44 44.17 43.46 41.48 39.09 37.34 35.46 32.53 29.69
1051.293 27.44 26.08 24.05 22 20.95 18.91 16.91 16.23 15.31 14.19
1070.583 12.75 11.63 12.46 12.44 12.61 12.52 12.42 13.72 14.41 16.47
1089.873 17.7 17.51 18.04 19.31 20.46 21.9 23.41 23.69 25.24 25.88
1109.163 26.61 28.35 28.71 30.11 31.91 33.36 35.75 36.52 36.41 38.57
1128.452 38.91 39.1 39.14 38.23 36.87 35.21 33.71 32.47 32.53 31.2
1147.742 29.31 29.45 31.86 35.34 38.4 41.15 44.69 48.62 53.19 58.26
1167.032 63.46 69.59 74.22 78.65 85.73 92.25 97.63 102.44 106.29 110.25
1186.322 112.25 112.4 110.91 107.68 104.98 101.1 94.97 87.1 80.33 74.83
1205.611 69.63 64.69 59.92 58.26 57.39 56.19 55.57 55.99 55.84 54.98
1224.901 55.2 56.42 59.61 60.51 60.39 61.26 60.29 59.34 59.34 58.08
1244.191 57.44 58.28 58.9 59.56 59.28 58.48 57.81 56.5 55.32 54.78
1263.481 54.46 54 53.34 51.91 50.52 48.97 46.53 44.02 41.24 38.11
1282.771 35.68 33.53 31.32 30.22 28.72 27.48 26.93 26.35 26.09 26.06
1302.060 25.98 26.31 27.08 27.45 28.01 28.72 29.23 29.47 29.4 29.49
1321.350 29.49 28.78 27.91 27.28 26.47 25.7 24.93 24.14 23.47 22.86
1340.640 22.18 21.45 20.83 20.12 19.47 18.82 18.14 17.72 17.5 17.43
1359.930 17.73 18.49 19.88 21.84 23.68 25.19 26.48 27.22 27.13 26.08
1379.219 24.59 22.99 21.45 20.27 19.25 18.52 18.04 17.51 16.82 15.93
1398.509 14.86 13.74 12.82 12.15 11.64 11.31 11.01 10.78 10.77 10.85
1417.799 10.91 11 11.38 12.14 12.73 13.16 13.93 14.79 15.37 16.19
1437.089 17.04 17.6 18.03 18.09 18.01 18.08 18 17.77 17.87 18.11
1456.378 18.64 19.06 19.57 20.3 20.83 21.59 22.23 22.25 21.96 21.22
1475.668 20 18.38 16.44 14.71 13.1 11.55 10.21 8.92 7.88 7.16
1494.958 6.71 6.28 5.73 5.33 5.24 5.16 4.75 4.29 4.08 4.03
1514.248 3.84 3.59 3.59 3.61 3.3 3.13 3.27 3.41 3.25 2.86
1533.538 2.99 3.2 3.06 2.97 2.86 2.45 2.46 2.58 2.4 2.43
1552.827 2.38 2.48 2.81 2.98 2.87 2.72 2.65 2.41 2.3 2.41
1572.117 2.27 2.26 2.52 2.35 2.4 2.6 2.14 2.23 2.66 2.73
1591.407 2.66 2.43 2.16 2.17 2.24 2.26 2.34 2.2 2.26 2.42
1610.697 2.5 2.46 2.46 2.62 2.71 2.6 2.4 2.47 2.63 2.44
1629.986 2.34 2.36 2.25 2.28 2.34 2.45 2.55 2.37 2.27 2.45
1649.276 2.54 2.56 2.73 2.95 2.94 2.8 2.67 2.66 2.89 3.14
1668.566 3.27 3.35 3.35 3.25 3.3 3.45 3.48 3.58 3.92 4
1687.856 4.11 4.35 4.5 4.92 5.31 5.46 5.73 6.29 6.6 6.76
1707.146 7.47 8.28 8.78 9.59 10.3 10.89 11.76 12.77 13.8 14.75
1726.435 16.13 17.78 19.82 22.34 25.21 28.69 33.14 38.93 45.96 54.49
1745.725 64.47 75.65 87.42 99.23 109.73 117.78 123.06 125.16 123.65 118.21
1765.015 109.1 97.94 86.08 74.38 63.09 52.89 44.13 36.97 31.25 26.65
1784.305 22.89 19.81 17.39 15.47 14 12.85 11.68 10.61 9.93 9.41
1803.594 8.68 7.91 7.45 7.21 6.88 6.33 5.8 5.37 5.11 4.89
1822.884 4.55 4.33 4.17 3.7 3.31 3.39 3.26 3.12 2.98 2.87
1842.174 2.95 2.86 2.82 2.81 2.66 2.51 2.62 2.47 2.22 2.29
1861.464 2.27 2.26 2.45 2.51 2.39 2.27 2.37 2.41 2.31 2.35
1880.754 2.51 2.6 2.61 2.58 2.61 2.36 2.0705 2.29 2.45 2.29
1900.043 2.39 2.42 2.0786 1.8851 1.8903 2.12 2.14 1.882 1.9105 1.7894
1919.333 1.6536 1.7004 1.6399 1.7382 1.8143 1.8839 1.8031 1.6514 1.7655 1.8523
1938.623 1.5897 1.4953 1.4907 1.4558 1.4778 1.5202 1.7318 1.7572 1.7236 1.8195
1957.913 1.8893 1.6935 1.6728 1.847 1.7107 1.6671 1.7403 1.6964 1.5804 1.6
1977.202 1.7224 1.8124 1.8958 1.8293 1.6918 1.6013 1.6845 1.8124 1.9262 2.095
1996.492 2.1024 2.0181 1.9327 1.7285 1.6955 2.12 2.37 2.27 2.0945 2.0123
2015.782 2.21 2.19 2.0541 2.21 2.25 2.0648 2.0913 2.32 2.52 2.56
2035.072 2.47 2.45 2.45 2.5 2.85 2.98 2.94 2.98 2.93 2.94
2054.362 3.11 3.25 3.09 3.1 3.31 3.28 3.35 3.67 3.85 3.96
2073.651 3.97 4.29 4.5 4.4 4.58 4.81 5.02 5.32 5.71 5.86
2092.941 5.87 6.1 6.5 6.33 6.16 6.55 6.96 7.15 7.23 7.46
2112.231 7.74 7.75 7.67 7.83 7.89 7.89 8 7.96 8.01 8.24
2131.521 8.41 8.59 8.93 9.06 9.08 9.31 9.66 9.77 9.92 10.51
2150.810 11.06 11.3 11.58 12.01 12.4 12.91 13.55 14.32 15.36 16.33
2170.100 17.15 18.2 19.45 20.7 22.06 23.54 24.98 26.47 28.33 30.37
2189.390 32.29 34.47 36.77 38.88 41.43 44.14 46.6 49.45 52.65 56.09
2208.680 60.04 64.15 68.53 73.55 79.01 84.84 91.47 99.1 107.33 116.15
2227.970 125.41 135.17 145.59 156.82 168.5 180.68 193.8 207.66 222.53 238.97
2247.259 257 276.15 296.89 319.15 342.15 366.38 390.61 412.7 432.58 449.1
2266.549 460.87 466.57 464.75 456.01 440.23 417.83 390.17 358.78 325.37 291.11
2285.839 257.48 226.3 198.13 173.68 152.83 134.74 119.57 106.51 95.41 86.08
2305.129 77.71 70.48 63.99 58.34 53.41 49.06 45.42 42.08 39.07 36.53
2324.418 34.52 32.87 31.66 30.57 29.36 28.58 28.3 27.67 26.92 26.49
2343.708 26.29 26.11 25.99 25.9 25.53 25.2 24.59 23.98 23.42 22.65
2362.998 22.11 21.61 20.9 20.17 19.28 18.47 18.13 17.65 17 16.3
2382.288 15.71 15.11 14.64 14.13 13.36 12.97 12.64 12.13 11.58 11.12
2401.578 10.67 10.26 9.75 9.09 8.66 8.49 8.2 7.78 7.53 7.06
2420.867 6.8 6.53 6.04 5.81 5.57 5.33 5.2 4.97 4.66 4.64
2440.157 4.55 4.3 4.29 4.35 4.02 3.75 3.72 3.4 3.07 3.15
2459.447 3.14 3.02 2.92 2.84 3.05 2.95 2.51 2.17 2.23 2.3
2478.737 2.45 2.77 2.62 2.57 2.66 2.42 2.46 2.33 1.8592 1.9541
2498.026 2.19 2.0814 2.0583 2.06 1.9166 1.7503 1.7862 2.0855 2.1104 1.9127
2517.316 1.7028 1.6451 1.6062 1.4796 1.2565 1.216 1.5288 1.4664 1.524 1.6918
2536.606 1.8004 1.7403 1.6006 1.6999 1.5774 1.3305 1.5236 1.6845 1.3974 1.4422
2555.896 1.4833 1.5735 1.6495 1.7102 2.0895 2.22 2.28 2.55 2.42 2.1055
2575.186 2.0051 1.646 1.5473 1.7412 1.6443 1.8765 2.0911 2.0183 1.8596 1.6151
2594.475 1.7798 2.033 2.1072 2.0179 2.16 2.22 2.15 2.0427 1.6652 1.8825
2613.765 1.9668 1.8394 1.9747 1.9387 1.8149 1.7978 1.8702 1.7681 1.556 1.4345
2633.055 1.9345 2.2 1.7281 1.6855 1.8016 1.9137 2.0533 1.8198 1.6261 1.5449
2652.345 1.4994 1.5605 1.4351 1.6272 1.6697 1.3311 1.6913 1.9783 1.9604 1.9221
2671.634 1.8623 2.44 2.48 2.14 2.26 2.0452 1.909 2.1055 1.9971 2.0382
2690.924 2.0571 1.8704 1.9214 1.8468 2.1024 1.9838 1.6864 1.7037 1.4926 1.6169
2710.214 2.0486 2.0783 1.8266 1.9114 2.27 2.36 2.2 2.24 2.4 2.45
2729.504 2.48 2.61 2.93 3.03 3.05 3.08 2.98 3.02 2.97 2.74
2748.794 2.45 2.51 2.7 2.47 2.17 2.29 2.72 2.56 2.29 2.51
2768.083 2.96 2.92 2.78 2.86 2.82 2.96 3.25 3 3.05 3.05
2787.373 2.69 2.88 3.09 3.31 2.97 2.51 2.95 3.5 3.42 3.39
2806.663 3.62 3.81 3.83 3.93 3.92 4.1 4 3.87 4.28 4.78
2825.953 5.04 4.93 4.87 4.99 5.21 5.45 5.33 5.34 5.97 6.27
2845.242 6.89 7.25 7.76 8.47 8.65 9.52 10.42 10.81 11.2 11.75
2864.532 12.96 14.48 15.98 17.92 19.92 22.37 24.8 27.13 29.02 30.1
2883.822 30.46 29.81 28.94 28.07 27.14 26.58 26 25.5 25.28 25.72
2903.112 26.98 28.04 29.18 30.49 31.45 32.73 34.33 35.67 37.14 38.4
2922.401 39.31 40.83 42.48 44.07 45.74 47.75 50.09 52.55 54.98 56.95
2941.691 58.42 59.4 60.2 60.55 61.03 62.01 64.14 67.53 71.75 77.87
2960.981 85.91 94.55 101.96 106.41 107.9 105.69 100.02 91.92 82.52 73.53
2980.271 65.13 58.82 54.76 51.3 48.47 46 43.2 40.19 36.3 32.85
2999.561 30 27.31 25.29 23.09 21.32 19.43 17.46 16.53 14.96 12.94
3018.850 11.65 10.84 10.36 9.55 8.57 8.11 7.74 7.47 7.36 7.13
3038.140 7.14 6.8 6.17 5.88 5.5 5.18 5.11 4.93 4.9 5.17
3057.430 4.82 4.4 4.82 4.55 3.97 4.02 4.25 4.36 4.5 4.3
3076.720 4.06 4.04 4.06 4.49 4.53 4.23 3.96 3.78 3.73 3.6
3096.009 3.84 4.25 3.9 3.66 3.78 3.77 3.59 3.31 2.98 2.86
3115.299 3.01 2.9 2.87 3.17 3.14 2.63 2.68 3.07 3.31 3.01
3134.589 2.68 2.65 2.83 3.22 3.11 2.42 2.0298 2.29 2.66 2.55
3153.879 2.26 2.72 2.88 2.84 2.87 2.69 3.19 3.47 3.22 2.8
3173.169 2.25 2.41 2.73 2.73 2.93 2.7 2.8 2.88 2.45 2.54
3192.458 2.58 2.69 2.22 1.9657 2.51 2.42 2.45 2.7 2.51 2.37
3211.748 2.99 2.89 2.31 2.61 2.9 2.32 1.7554 1.9099 2.13 2.15
3231.038 1.8452 1.8495 1.9891 1.8561 2.73 2.69 1.8921 2.0025 1.8359 1.7596
3250.328 1.8683 1.922 1.3214 1.0431 1.742 1.7131 1.3601 1.1081 0.456 0.422
3269.617 0.97 1.5635 1.5809 1.2586 1.18377 1.7032 2.3 1.591 1.0862 1.2664
3288.907 1.20853 1.17873 1.1496 0.821 0.846 0.726 0.85 1.16799 1.17677 1.19009
3308.197 0.969 0.675 0.657 1.0586 0.805 0.669 1.0796 0.765 0.435 1.0489
3327.487 1.0286 0.889 0.961 1.0466 1.095 1.2462 1.7911 1.4242 0.91 0.964
3346.777 0.995 0.831 0.763 1.005 1.12858 1.1757 0.79 0.358 0.54 0.932
3366.066 0.679 0.39 0.912 1.4684 1.2267 0.71 0.726 0.802 0.982 1.2849
3385.356 1.4013 0.877 0.714 0.776 0.663 1.0774 1.3982 1.6297 1.5468 1.14797
3404.646 0.884 1.0821 1.19998 0.713 0.184 0.11 0.535 0.718 0.864 1.15593
3423.936 1.1111 1.11907 1.071 0.959 1.17527 1.4521 1.4108 1.3148 1.3254 1.15586
3443.225 0.846 0.962 1.3477 0.98 0.761 0.723 0.554 1.0792 1.4292 1.4266
3462.515 1.4113 1.0897 0.911 1.13539 1.4613 0.879 0.517 0.914 1.12303 1.5735
3481.805 1.5925 1.6758 1.9481 2.0279 1.8329 1.9372 2.21 2.17 2.18 1.7232
3501.095 1.7871 1.9354 1.9445 2.31 2.63 2.58 2.19 2.0171 1.8048 2.26
3520.385 2.55 2.0238 1.9549 2.22 2.39 1.9946 1.3352 1.3516 1.7784 1.8261
3539.674 1.6036 1.6041 1.6527 1.7718 2.46 2.51 1.8178 1.3966 1.7286 1.8833
3558.964 1.446 1.3192 1.2668 1.7172 1.3897 1.044 1.5316 1.5645 1.5539 1.3404
3578.254 1.2754 1.5633 1.7111 1.8318 1.7102 1.5042 1.9311 1.9955 2.0041 2.47
3597.544 2.26 2.22 2.98 2.79 1.8328 1.3897 1.6471 2.31 2.61 2.26
3616.833 2.107 2.45 2.47 2.6 2.81 2.93 2.85 2.68 3.08 3.29
3636.123 3.15 2.94 2.5 2.6 2.67 3.03 3.62 3.32 2.85 2.28
3655.413 2.54 3.15 3.44 3.36 3.44 4.04 4.01 3.85 3.65 3.17
3674.703 3.28 3.68 3.69 4 4.4 4.45 4.04 4.31 4.84 4.4
3693.993 3.93 3.56 3.41 3.32 3.83 4.44 4.16 3.22 2.6 3.41
3713.282 3.7 3.12 3.16 3.04 2.95 2.64 2.31 2.36 2.16 2.23
3732.572 2.16 1.8584 1.933 2.41 2.53 2.39 2.59 3.19 3.17 2.51
3751.862 1.9761 1.7571 1.506 1.6275 2.15 1.63 1.5327 1.9463 1.7282 1.6382
3771.152 1.3619 1.2253 1.19135 1.5911 2.56 2.2 1.3946 1.3407 1.2971 1.2942
3790.441 1.20732 1.7372 1.6109 1.0689 0.973 0.73 1.0251 0.841 0.627 0.975
3809.731 1.0848 1.2356 1.6443 1.5832 0.997 0.714 1.1674 1.2849 0.631 0.715
3829.021 1.0291 0.985 0.918 1.0833 1.7259 1.6363 0.999 0.92 1.4845 0.754
3848.311 0.481 1.1082 1.11871 1.2944 1.6286 1.6844 1.15602 0.833 0.786 1.21983
3867.601 1.4 0.854 0.325 0.852 1.15385 0.884 1.0575 1.3876 1.3916 1.0636
3886.890 1.002 1.20386 1.2724 1.3565 0.763 0 0.502 0.945 1.2093 1.4171
3906.180 1.2329 1.2329 1.5639 1.3983 1.655 2.17 1.682 1.3544 1.5504 1.3724
3925.470 0.808 1.084 1.1667 0.62 0.746 1.3075 1.637 1.16538 0.68 0.737
3944.760 0.704 1.17441 1.5561 1.0822 1.13442 1.0717 1.0629 1.2709 0.979 0.295
3964.049 0.441 0.888 1.0353 1.2302 0.662 0.31 0.202 0.452 0.71 0.94
3983.339 0.963 0.735 0.807 0.692 0.304 0.603 0.824 1.16677 1.9988 1.8212
##END=
