##TITLE=1,7-Diaminoheptane
##JCAMP-DX=4.24
##DATA TYPE=INFRARED SPECTRUM
##ORIGIN=EPA-IR VAPOR PHASE LIBRARY
##OWNER=SRD/NIST
Collection (C) 2018 copyright by the U.S. Secretary of Commerce
on behalf of the United States of America. All rights reserved.
##CAS REGISTRY NO=646-19-5
##MOLFORM=C 7 H 18 N 2
##$NIST SOURCE=MSDC-IR
##STATE=gas
##XUNITS=1/CM
##YUNITS=ABSORBANCE
##XFACTOR=1.
##YFACTOR=0.001
##DELTAX=1.92934
##FIRSTX=549.9
##LASTX=3999.5
##FIRSTY=0.36763
##MAXX=3999.53
##MINX=549.863
##MAXY=0.01323
##MINY=0
##NPOINTS=1789
##XYDATA=(X++(Y..Y))
549.863 0.36763 0.528 0.4541 0.3862 0.4235 0.4642 0.5297 0.4596 0.4357 0.4854
569.156 0.5601 0.6571 0.5285 0.4054 0.5515 0.6545 0.4994 0.5012 0.6564 0.6575
588.450 0.6577 0.6392 0.62 0.7 0.6767 0.7044 0.749 0.6684 0.6192 0.7031
607.743 0.7787 0.6871 0.6603 0.7182 0.8162 0.8508 0.7828 0.7868 0.8022 0.7643
627.037 0.7405 0.7543 0.7304 0.7315 0.8074 0.8273 0.8531 0.9206 0.9391 0.9396
646.330 0.8928 0.8414 0.881 0.9466 0.9154 0.8974 0.959 0.9302 1.0357 1.1132
665.624 1.0738 1.0828 1.0705 1.061 1.0316 1.0291 1.1327 1.2377 1.2327 1.1814
684.917 1.1933 1.1971 1.2253 1.29 1.31 1.32 1.35 1.38 1.43 1.49
704.210 1.53 1.57 1.66 1.72 1.73 1.76 1.82 1.91 2.01 2.07
723.504 2.16 2.25 2.36 2.41 2.49 2.62 2.76 2.87 2.95 3.07
742.797 3.14 3.27 3.4 3.48 3.63 3.72 3.8 3.95 4.04 4.07
762.091 4.14 4.27 4.32 4.33 4.33 4.31 4.26 4.21 4.17 4.03
781.384 3.95 3.87 3.71 3.55 3.32 3.12 2.94 2.76 2.61 2.46
800.678 2.33 2.27 2.18 2.06 1.96 1.88 1.81 1.78 1.75 1.67
819.971 1.56 1.47 1.47 1.45 1.39 1.35 1.38 1.38 1.3 1.2595
839.264 1.223 1.2177 1.2331 1.1928 1.1941 1.2222 1.2148 1.1977 1.1436 1.1047
858.558 1.0756 1.0463 1.0693 1.0277 1.0221 1.0245 0.998 0.9784 0.9124 0.9265
877.851 0.9261 0.8967 0.8969 0.924 0.9515 0.9547 0.9414 0.8797 0.8674 0.9194
897.145 0.9565 0.9494 0.9178 0.8737 0.8649 0.8966 0.8684 0.8417 0.8738 0.8717
916.438 0.8697 0.9078 0.8961 0.8876 0.8863 0.8818 0.903 0.9434 0.9337 0.8764
935.732 0.8797 0.8739 0.856 0.8478 0.8364 0.8197 0.811 0.8178 0.8308 0.885
955.025 0.8872 0.8569 0.8514 0.874 0.892 0.9359 0.9876 0.9274 0.8464 0.8127
974.318 0.8498 0.8429 0.8111 0.8193 0.8563 0.8812 0.832 0.7753 0.7763 0.8223
993.612 0.8289 0.8171 0.8238 0.8 0.793 0.8198 0.8253 0.8403 0.871 0.8596
1012.905 0.8365 0.8183 0.8325 0.8713 0.8677 0.8986 0.9144 0.9053 0.8938 0.921
1032.199 0.9653 0.9788 1.0088 1.0206 1.0577 1.1073 1.1299 1.1772 1.1763 1.1654
1051.492 1.2222 1.29 1.32 1.35 1.38 1.43 1.46 1.49 1.5 1.49
1070.786 1.53 1.56 1.58 1.51 1.44 1.43 1.5 1.55 1.49 1.42
1090.079 1.39 1.36 1.35 1.33 1.28 1.1945 1.1302 1.1249 1.0518 0.9951
1109.372 0.9633 0.9149 0.9145 0.896 0.8442 0.8493 0.8644 0.8281 0.7571 0.7437
1128.666 0.8006 0.7683 0.7375 0.7387 0.6892 0.7075 0.734 0.7232 0.701 0.693
1147.959 0.6466 0.6061 0.6112 0.5991 0.6359 0.6328 0.6479 0.6325 0.6056 0.6031
1167.253 0.6036 0.603 0.5776 0.6743 0.7134 0.6104 0.5836 0.6268 0.6202 0.636
1186.546 0.5766 0.5782 0.622 0.6124 0.5637 0.5489 0.587 0.6007 0.623 0.5915
1205.840 0.6451 0.7358 0.7962 0.7795 0.7225 0.6299 0.6189 0.6368 0.6394 0.6586
1225.133 0.6665 0.6592 0.5939 0.6631 0.7363 0.6867 0.6871 0.6482 0.6245 0.6632
1244.426 0.694 0.7611 0.7671 0.6958 0.6781 0.7026 0.675 0.6355 0.6733 0.72
1263.720 0.681 0.7023 0.7766 0.7174 0.7055 0.7536 0.7188 0.7506 0.7615 0.6996
1283.013 0.6992 0.7341 0.8121 0.8311 0.7918 0.7832 0.771 0.7882 0.7992 0.7766
1302.307 0.8028 0.8187 0.7922 0.7958 0.8162 0.8086 0.7814 0.7356 0.7234 0.782
1321.600 0.8425 0.8708 0.8559 0.8344 0.8394 0.8547 0.9064 0.9192 0.9078 0.9436
1340.894 0.9716 0.9855 1.03 1.0838 1.0876 1.0936 1.1116 1.1265 1.1565 1.2034
1360.187 1.2376 1.2138 1.1831 1.211 1.2348 1.2467 1.2515 1.2635 1.28 1.28
1379.480 1.3 1.31 1.31 1.33 1.32 1.2755 1.2212 1.1668 1.137 1.0946
1398.774 1.0655 0.998 0.917 0.8801 0.8411 0.8444 0.8682 0.8526 0.8052 0.7908
1418.067 0.8306 0.8566 0.8276 0.819 0.8588 0.8784 0.9153 0.9509 0.9463 1.0034
1437.361 1.0703 1.1077 1.1574 1.171 1.2134 1.2737 1.29 1.32 1.36 1.39
1456.654 1.42 1.39 1.42 1.45 1.41 1.4 1.38 1.34 1.31 1.27
1475.948 1.2445 1.2254 1.1772 1.0856 1.0402 1.0233 1.0003 0.9692 0.9381 0.8874
1495.241 0.8619 0.878 0.852 0.851 0.855 0.8313 0.8441 0.8335 0.7952 0.8064
1514.534 0.8252 0.8092 0.7862 0.7677 0.7678 0.7678 0.7496 0.7623 0.7593 0.7448
1533.828 0.7514 0.7629 0.7759 0.8065 0.7948 0.7568 0.7614 0.7979 0.8091 0.801
1553.121 0.8176 0.8052 0.8254 0.8411 0.8284 0.8281 0.8002 0.8162 0.8432 0.8334
1572.415 0.8342 0.8604 0.8954 0.8928 0.896 0.916 0.9198 0.9599 0.9889 0.9879
1591.708 0.9988 1.0597 1.1525 1.1944 1.224 1.2449 1.2708 1.32 1.39 1.45
1611.002 1.53 1.63 1.68 1.75 1.8 1.78 1.78 1.77 1.73 1.72
1630.295 1.66 1.59 1.53 1.47 1.39 1.31 1.2339 1.195 1.1681 1.1295
1649.588 1.094 1.0481 1.0001 0.9374 0.9091 0.9006 0.8751 0.8303 0.7822 0.7939
1668.882 0.8262 0.8022 0.7496 0.7498 0.7812 0.7309 0.7009 0.7111 0.7028 0.6622
1688.175 0.6455 0.6861 0.6929 0.7007 0.7009 0.7002 0.6802 0.6817 0.6611 0.6003
1707.469 0.6135 0.6323 0.6497 0.6323 0.6126 0.613 0.5996 0.6006 0.5633 0.5556
1726.762 0.583 0.5981 0.63 0.5931 0.5865 0.6039 0.5458 0.5435 0.5615 0.5587
1746.056 0.5573 0.5653 0.5457 0.5571 0.5671 0.5369 0.5334 0.5371 0.5285 0.5362
1765.349 0.5484 0.521 0.5199 0.5363 0.5443 0.5277 0.5232 0.5481 0.5555 0.5308
1784.642 0.5175 0.4853 0.4624 0.5153 0.5463 0.5165 0.5203 0.531 0.493 0.4997
1803.936 0.519 0.5243 0.5246 0.5278 0.5551 0.5435 0.5436 0.5517 0.5477 0.5488
1823.229 0.5376 0.5393 0.5408 0.5184 0.5185 0.5344 0.5313 0.5602 0.5629 0.5415
1842.523 0.5476 0.542 0.5328 0.526 0.5236 0.5241 0.5262 0.5292 0.5329 0.5699
1861.816 0.5489 0.5024 0.5084 0.53 0.5279 0.5407 0.5545 0.534 0.5419 0.5449
1881.110 0.5072 0.5024 0.5244 0.5168 0.4996 0.5034 0.5179 0.4941 0.4936 0.5037
1900.403 0.4775 0.4979 0.521 0.5151 0.4972 0.4689 0.5085 0.5212 0.5026 0.5286
1919.696 0.5024 0.4631 0.4671 0.4817 0.4842 0.4767 0.4948 0.4902 0.4791 0.496
1938.990 0.4862 0.4774 0.5032 0.484 0.4608 0.485 0.474 0.4583 0.4781 0.4993
1958.283 0.4868 0.4787 0.5048 0.4822 0.4615 0.4435 0.4338 0.4718 0.4829 0.4903
1977.577 0.5085 0.5296 0.5107 0.481 0.4916 0.4609 0.4645 0.4986 0.4688 0.4582
1996.870 0.4576 0.4461 0.4839 0.5195 0.4954 0.5128 0.5399 0.5098 0.5001 0.4888
2016.164 0.4648 0.4849 0.5319 0.5261 0.5079 0.4906 0.4679 0.506 0.5203 0.4932
2035.457 0.4882 0.4795 0.485 0.4925 0.4906 0.465 0.4631 0.4591 0.4418 0.4823
2054.750 0.4727 0.4738 0.4951 0.4652 0.4554 0.4797 0.461 0.4501 0.4945 0.4791
2074.044 0.4673 0.4745 0.4497 0.4427 0.4456 0.4717 0.4777 0.4391 0.4497 0.4749
2093.337 0.4524 0.4345 0.4384 0.4327 0.4144 0.4174 0.4391 0.4311 0.4245 0.4532
2112.631 0.4693 0.4306 0.4165 0.4234 0.4406 0.4742 0.475 0.4624 0.4597 0.4302
2131.924 0.4021 0.4124 0.4104 0.4064 0.4108 0.4183 0.4325 0.4146 0.3941 0.4211
2151.218 0.4344 0.4446 0.4677 0.4539 0.4361 0.4523 0.4442 0.4324 0.4434 0.4358
2170.511 0.4227 0.4306 0.4348 0.424 0.4253 0.4204 0.3923 0.3976 0.4626 0.4726
2189.804 0.447 0.4512 0.4575 0.4583 0.4429 0.4438 0.4292 0.4146 0.4281 0.4663
2209.098 0.4525 0.4295 0.4614 0.4445 0.4171 0.4331 0.414 0.3917 0.3929 0.3962
2228.391 0.4256 0.445 0.456 0.4402 0.4275 0.4176 0.4323 0.4413 0.458 0.4866
2247.685 0.4489 0.4169 0.4225 0.4483 0.4611 0.426 0.4247 0.4554 0.4784 0.4964
2266.978 0.4972 0.5022 0.5004 0.5107 0.499 0.4561 0.4525 0.4601 0.4591 0.4482
2286.272 0.4326 0.4372 0.4591 0.475 0.4488 0.4544 0.5045 0.5029 0.4504 0.4492
2305.565 0.473 0.4816 0.4888 0.4803 0.4824 0.4991 0.4754 0.45 0.4581 0.4478
2324.858 0.4394 0.461 0.497 0.4822 0.4852 0.4845 0.4386 0.4419 0.4768 0.4743
2344.152 0.4328 0.4226 0.4194 0.4221 0.4569 0.468 0.4471 0.451 0.4605 0.4259
2363.445 0.4123 0.4147 0.4199 0.4372 0.4355 0.4458 0.4556 0.4415 0.4528 0.4505
2382.739 0.4006 0.3888 0.4155 0.4147 0.3972 0.4201 0.4581 0.4483 0.4371 0.4374
2402.032 0.4089 0.4204 0.4402 0.431 0.4446 0.4655 0.4841 0.4837 0.4473 0.4584
2421.326 0.445 0.4047 0.4126 0.3991 0.4039 0.4181 0.4239 0.4157 0.4259 0.4393
2440.619 0.457 0.4611 0.4308 0.433 0.4484 0.4223 0.3851 0.419 0.451 0.413
2459.912 0.402 0.4384 0.4519 0.4332 0.432 0.45 0.4363 0.4136 0.4231 0.438
2479.206 0.4319 0.4452 0.4451 0.4365 0.4262 0.4032 0.3832 0.3817 0.4195 0.4764
2498.499 0.4755 0.4158 0.3941 0.3942 0.4137 0.4093 0.3954 0.4185 0.4207 0.3991
2517.793 0.412 0.4252 0.4176 0.4374 0.4379 0.4337 0.4455 0.4576 0.439 0.4025
2537.086 0.4287 0.4581 0.4247 0.4188 0.4313 0.404 0.3855 0.3896 0.37922 0.37873
2556.380 0.405 0.4341 0.4568 0.458 0.4807 0.505 0.4561 0.3864 0.37101 0.3849
2575.673 0.393 0.4038 0.4156 0.4093 0.3993 0.4345 0.4696 0.4784 0.4609 0.4304
2594.966 0.4391 0.4876 0.484 0.4553 0.424 0.3845 0.4069 0.4128 0.4192 0.4643
2614.260 0.4928 0.5001 0.4952 0.465 0.457 0.4207 0.4142 0.4493 0.4519 0.4669
2633.553 0.4497 0.4409 0.4837 0.5133 0.5079 0.5087 0.4868 0.4566 0.4517 0.4506
2652.847 0.5092 0.5185 0.496 0.5233 0.5176 0.5331 0.5293 0.4949 0.5242 0.5921
2672.140 0.585 0.5459 0.5671 0.6 0.5902 0.5677 0.5554 0.5915 0.5963 0.6011
2691.434 0.639 0.5671 0.5682 0.5698 0.5437 0.5467 0.5316 0.5548 0.5294 0.5776
2710.727 0.6441 0.6293 0.5716 0.5636 0.6048 0.5767 0.5579 0.5312 0.578 0.6279
2730.020 0.6388 0.6669 0.6538 0.6298 0.6007 0.6492 0.6622 0.6021 0.617 0.6223
2749.314 0.6499 0.7443 0.7282 0.712 0.7227 0.7357 0.7722 0.7354 0.6971 0.6458
2768.607 0.6554 0.6609 0.6655 0.7241 0.6923 0.6205 0.6483 0.7505 0.7685 0.708
2787.901 0.7105 0.7539 0.7614 0.8049 0.8772 0.9033 0.8983 0.8989 0.917 0.9935
2807.194 1.0759 1.106 1.1278 1.131 1.2102 1.31 1.37 1.43 1.46 1.57
2826.488 1.67 1.77 1.95 2.08 2.2 2.38 2.64 2.88 3.16 3.41
2845.781 3.7 4.14 4.45 4.75 5.1 5.39 5.62 5.84 5.94 5.91
2865.074 5.94 5.88 5.74 5.54 5.29 5.07 4.85 4.58 4.35 4.2
2884.368 4.01 3.89 3.84 3.82 3.89 3.93 4.03 4.21 4.5 4.82
2903.661 5.07 5.45 5.89 6.37 6.94 7.6 8.33 9.05 9.71 10.41
2922.955 11.21 11.97 12.5 12.85 13.09 13.23 13.21 12.89 12.34 11.73
2942.248 11 10.13 9.28 8.39 7.51 6.7 6.02 5.33 4.62 4.13
2961.542 3.64 3.08 2.71 2.45 2.25 2.07 1.83 1.64 1.52 1.43
2980.835 1.34 1.2478 1.1531 0.9916 0.8789 0.8491 0.8151 0.8021 0.7577 0.6677
3000.128 0.5827 0.5601 0.6299 0.5265 0.5017 0.6073 0.5829 0.4946 0.447 0.4261
3019.422 0.4561 0.4983 0.4673 0.469 0.3956 0.32594 0.32444 0.33954 0.30882 0.33363
3038.715 0.33082 0.2538 0.27394 0.29906 0.29587 0.281122 0.29889 0.31415 0.31905 0.2307
3058.009 0.144 0.266 0.27 0.1916 0.2191 0.27717 0.2259 0.094 0.1 0.161
3077.302 0.168 0.166 0.172 0.1899 0.2096 0.1955 0.171 0.119 0.168 0.2417
3096.596 0.2232 0.2274 0.241 0.2188 0.162 0.1991 0.2439 0.2577 0.2353 0.163
3115.889 0.172 0.11 0.112 0.173 0.17 0.164 0.174 0.1998 0.1831 0.177
3135.182 0.173 0.129 0.094 0.163 0.2427 0.282705 0.1916 0.125 0.139 0.161
3154.476 0.2508 0.109 0.061 0.168 0.1 0.046 0.119 0.1817 0.151 0.153
3173.769 0.2436 0.2681 0.1903 0.1856 0.146 0.075 0.121 0.162 0.115 0.118
3193.063 0.2577 0.36106 0.3498 0.2569 0.104 0.119 0.174 0.059 0.066 0.1993
3212.356 0.114 0.084 0.168 0.159 0.092 0.071 0.087 0.106 0.152 0.113
3231.650 0.092 0.052 0.074 0.179 0.1922 0.148 0.134 0.156 0.08 0.024
3250.943 0.083 0.164 0.168 0.2013 0.2488 0.1963 0.15 0.095 0.088 0.085
3270.236 0.2029 0.238 0.119 0.162 0.1987 0.2205 0.2237 0.16 0.084 0.131
3289.530 0.1969 0.2455 0.2423 0.2256 0.169 0.146 0.2481 0.2191 0.127 0.09
3308.823 0.101 0.2372 0.31314 0.218 0.2641 0.2606 0.2364 0.29429 0.245 0.2036
3328.117 0.143 0.041 0.119 0.2411 0.27762 0.32797 0.282564 0.168 0.2183 0.251
3347.410 0.281321 0.34883 0.2634 0.284044 0.2467 0.2367 0.2191 0.159 0.34146 0.33095
3366.704 0.196 0.1856 0.2511 0.27426 0.1963 0.1803 0.2437 0.2407 0.2092 0.2393
3385.997 0.2399 0.2248 0.2424 0.27064 0.288557 0.3825 0.3918 0.2187 0.2414 0.2295
3405.290 0.2412 0.33443 0.31484 0.29335 0.27351 0.2695 0.2431 0.30807 0.34844 0.30845
3424.584 0.2331 0.1869 0.2586 0.3238 0.287388 0.2229 0.158 0.141 0.032 0
3443.877 0.2062 0.2127 0.175 0.29669 0.37329 0.32709 0.285263 0.32621 0.34408 0.33736
3463.171 0.2448 0.2092 0.29927 0.30833 0.1909 0.2072 0.30025 0.287444 0.29494 0.280076
3482.464 0.2995 0.30793 0.2312 0.2649 0.257 0.238 0.30169 0.28094 0.2612 0.2005
3501.758 0.2091 0.2183 0.2661 0.4071 0.36671 0.263 0.27005 0.29493 0.2306 0.2035
3521.051 0.198 0.157 0.2633 0.3273 0.2122 0.177 0.166 0.1873 0.2196 0.2353
3540.344 0.3765 0.4399 0.3832 0.35692 0.37139 0.33931 0.245 0.2099 0.2582 0.2453
3559.638 0.173 0.115 0.138 0.2579 0.31166 0.27494 0.2625 0.30616 0.2271 0.1968
3578.931 0.2675 0.282261 0.31973 0.286213 0.2506 0.1922 0.072 0.049 0.13 0.2108
3598.225 0.168 0.1835 0.2406 0.214 0.1961 0.144 0.133 0.2071 0.2265 0.2613
3617.518 0.2195 0.1805 0.30132 0.31707 0.2591 0.2366 0.30851 0.36555 0.27724 0.166
3636.812 0.1898 0.238 0.18 0.223 0.2476 0.178 0.2025 0.2022 0.2095 0.29344
3656.105 0.31087 0.3153 0.2542 0.2125 0.32214 0.287391 0.27332 0.27263 0.176 0.143
3675.398 0.155 0.209 0.2422 0.2514 0.30756 0.30599 0.2115 0.2416 0.2697 0.1837
3694.692 0.179 0.27452 0.2704 0.2386 0.2307 0.1993 0.2077 0.2093 0.2463 0.29264
3713.985 0.1903 0.124 0.2335 0.32369 0.282699 0.238 0.2185 0.149 0.202 0.30421
3733.279 0.32282 0.29841 0.27091 0.2573 0.2159 0.2134 0.27279 0.34106 0.31587 0.27853
3752.572 0.29398 0.287605 0.30418 0.2478 0.2259 0.2421 0.16 0.172 0.27687 0.29167
3771.866 0.287891 0.2243 0.1882 0.218 0.2101 0.2513 0.2606 0.282239 0.282357 0.32517
3791.159 0.33685 0.1993 0.2161 0.3219 0.31266 0.1802 0.083 0.132 0.16 0.1914
3810.452 0.176 0.146 0.2687 0.288662 0.2006 0.177 0.2386 0.32044 0.31253 0.280699
3829.746 0.3255 0.3403 0.31578 0.2697 0.189 0.1907 0.2566 0.283627 0.2365 0.1934
3849.039 0.2699 0.29974 0.16 0.063 0.108 0.1968 0.2395 0.2948 0.32188 0.2235
3868.333 0.156 0.176 0.2698 0.29764 0.2151 0.146 0.143 0.2105 0.235 0.249
3887.626 0.2405 0.2369 0.2354 0.1914 0.2026 0.2321 0.2189 0.2213 0.1892 0.2332
3906.920 0.2542 0.2558 0.280287 0.2476 0.29341 0.280437 0.2039 0.2199 0.2376 0.2514
3926.213 0.2278 0.197 0.2652 0.285322 0.2525 0.30349 0.36213 0.34847 0.2662 0.2043
3945.506 0.2603 0.2372 0.2063 0.254 0.2347 0.265 0.31167 0.31302 0.29291 0.2579
3964.800 0.1909 0.2082 0.2455 0.2178 0.2266 0.33966 0.34366 0.2603 0.282871 0.33984
3984.093 0.2656 0.2443 0.31505 0.29328 0.29923 0.28457 0.2613 0.2677 0.27513
##END=
