##TITLE=1,5-Dicyanopentane
##JCAMP-DX=4.24
##DATA TYPE=INFRARED SPECTRUM
##ORIGIN=EPA-IR VAPOR PHASE LIBRARY
##OWNER=SRD/NIST
Collection (C) 2018 copyright by the U.S. Secretary of Commerce
on behalf of the United States of America. All rights reserved.
##CAS REGISTRY NO=646-20-8
##MOLFORM=C 7 H 10 N 2
##$NIST SOURCE=MSDC-IR
##STATE=gas
##XUNITS=1/CM
##YUNITS=ABSORBANCE
##XFACTOR=1.
##YFACTOR=0.001
##DELTAX=3.85796
##FIRSTX=501.5
##LASTX=4000.7
##FIRSTY=0.119
##MAXX=4000.7
##MINX=501.534
##MAXY=0.019432
##MINY=0
##NPOINTS=908
##XYDATA=(X++(Y..Y))
501.534 0.119 0 0.112 0.2587 0.2025 0.152 0.2391 0.35608 0.4248 0.4221
540.114 0.4047 0.4225 0.3886 0.4205 0.4355 0.32814 0.33603 0.31184 0.2599 0.3042
578.693 0.31427 0.2095 0.1944 0.27286 0.30096 0.31051 0.34122 0.31249 0.2211 0.2
617.273 0.2635 0.2635 0.2326 0.172 0.082 0.034 0.082 0.2566 0.3971 0.391
655.852 0.2805 0.2676 0.3025 0.30366 0.30461 0.36916 0.3847 0.3993 0.4804 0.4661
694.432 0.4778 0.5504 0.6284 0.7242 0.8156 0.892 1.0114 1.1121 1.1405 1.1777
733.011 1.1856 1.1253 1.0454 0.9914 0.9444 0.8805 0.8156 0.7126 0.6347 0.6341
771.591 0.6224 0.5825 0.5132 0.4709 0.4553 0.4253 0.4719 0.4839 0.454 0.4755
810.170 0.4673 0.4629 0.4799 0.4855 0.5041 0.5565 0.6097 0.6335 0.6194 0.5988
848.750 0.6224 0.6723 0.7053 0.6516 0.6106 0.5881 0.5545 0.5642 0.5889 0.5865
887.330 0.5615 0.5454 0.5023 0.4908 0.483 0.4655 0.4754 0.5223 0.5691 0.5624
925.909 0.5834 0.5588 0.5074 0.5468 0.5724 0.5311 0.4754 0.4626 0.4477 0.4484
964.489 0.4373 0.3902 0.37873 0.37971 0.3529 0.34341 0.34318 0.339 0.33879 0.30008
1003.068 0.29662 0.29476 0.2272 0.2192 0.2481 0.172 0.054 0.154 0.4116 0.543
1041.648 0.5375 0.4324 0.36726 0.37967 0.393 0.4415 0.4955 0.498 0.4334 0.3704
1080.227 0.4092 0.439 0.37859 0.31344 0.2625 0.2609 0.2567 0.2467 0.228 0.177
1118.807 0.2193 0.2562 0.2552 0.27316 0.2621 0.3013 0.3362 0.34798 0.4339 0.4865
1157.387 0.4628 0.5036 0.5669 0.5476 0.5696 0.5492 0.4336 0.3976 0.3955 0.4142
1195.966 0.4594 0.5139 0.5444 0.5535 0.6514 0.7063 0.6897 0.7175 0.7338 0.6843
1234.546 0.6244 0.6746 0.7745 0.7586 0.748 0.8065 0.8306 0.8463 0.8571 0.8084
1273.125 0.8268 0.8757 0.9041 0.9608 0.98 1.0042 1.0461 1.0468 1.0559 1.0779
1311.705 1.1229 1.1924 1.282 1.412 1.532 1.642 1.732 1.782 1.822 1.822
1350.284 1.782 1.712 1.612 1.482 1.362 1.2298 1.1208 1.0348 0.9668 0.921
1388.864 0.8799 0.8502 0.8629 0.9226 1.0234 1.1799 1.412 1.742 2.192 2.802
1427.443 3.572 4.392 4.972 5.302 5.382 5.162 4.852 4.652 4.482 4.202
1466.023 3.802 3.302 2.732 2.192 1.742 1.372 1.0912 0.902 0.7736 0.6881
1504.603 0.6412 0.5791 0.5314 0.4932 0.4579 0.4514 0.4389 0.4206 0.4313 0.4403
1543.182 0.4037 0.37764 0.37872 0.37429 0.36715 0.36356 0.35572 0.3562 0.3559 0.3454
1581.762 0.34021 0.32552 0.31858 0.33391 0.34834 0.3402 0.3325 0.33115 0.3405 0.34161
1620.341 0.31651 0.32024 0.33939 0.32682 0.30449 0.30247 0.31489 0.33031 0.33671 0.32875
1658.921 0.31777 0.31766 0.32413 0.31618 0.30408 0.30167 0.31654 0.32092 0.31688 0.32598
1697.500 0.33914 0.33898 0.32643 0.32887 0.32978 0.32791 0.33606 0.33567 0.32593 0.32646
1736.080 0.32766 0.32912 0.32309 0.30774 0.31979 0.32317 0.30568 0.30992 0.31359 0.3166
1774.659 0.32454 0.32488 0.31794 0.32589 0.32543 0.3137 0.31992 0.33272 0.3301 0.32196
1813.239 0.31939 0.32177 0.32394 0.31729 0.30954 0.2967 0.29865 0.30968 0.31532 0.32187
1851.819 0.3201 0.30508 0.31033 0.32151 0.32389 0.33027 0.33459 0.34359 0.3485 0.33119
1890.398 0.32888 0.33599 0.32886 0.32149 0.30598 0.30575 0.31845 0.3201 0.30872 0.30988
1928.978 0.30369 0.29992 0.32135 0.31198 0.29284 0.30018 0.30704 0.29309 0.30474 0.32779
1967.557 0.32762 0.32859 0.33549 0.34181 0.33846 0.34667 0.35888 0.3424 0.33595 0.35988
2006.137 0.36551 0.35568 0.35052 0.34911 0.36054 0.36583 0.37567 0.3854 0.3851 0.3824
2044.716 0.3833 0.3906 0.38183 0.37216 0.37439 0.36678 0.35966 0.35455 0.36256 0.36582
2083.296 0.35718 0.35368 0.35898 0.35655 0.35591 0.36437 0.36471 0.36267 0.36482 0.36326
2121.875 0.36286 0.37775 0.3668 0.35962 0.36126 0.36514 0.37583 0.37647 0.36912 0.36841
2160.455 0.38064 0.3861 0.4049 0.4114 0.4022 0.3997 0.392 0.3892 0.4015 0.4001
2199.035 0.3925 0.3995 0.4046 0.4174 0.4315 0.4528 0.472 0.511 0.6006 0.7107
2237.614 0.8554 1.037 1.2189 1.322 1.332 1.278 1.1102 0.9232 0.7999 0.6904
2276.194 0.601 0.5577 0.5495 0.5358 0.5066 0.4796 0.4619 0.4522 0.4329 0.4333
2314.773 0.4313 0.4039 0.395 0.3919 0.3894 0.3966 0.3898 0.3921 0.3979 0.4
2353.353 0.3961 0.3949 0.4039 0.4037 0.4167 0.4319 0.442 0.4401 0.4362 0.4472
2391.932 0.4422 0.4231 0.4359 0.4493 0.4425 0.4487 0.4381 0.414 0.4091 0.4057
2430.512 0.415 0.4081 0.4001 0.4007 0.39 0.393 0.3962 0.3967 0.3831 0.3891
2469.092 0.4 0.4032 0.3897 0.36792 0.38126 0.384 0.384 0.3879 0.3894 0.4075
2507.671 0.3996 0.3855 0.3952 0.4068 0.4221 0.4334 0.4085 0.3865 0.3974 0.4081
2546.251 0.4135 0.4042 0.3948 0.3971 0.3995 0.3954 0.37912 0.3995 0.4235 0.4328
2584.830 0.4723 0.4821 0.4681 0.4685 0.4937 0.5046 0.4944 0.5089 0.5173 0.5125
2623.410 0.504 0.4942 0.4821 0.4736 0.4853 0.4905 0.4841 0.503 0.5174 0.5249
2661.989 0.5149 0.5061 0.5184 0.5318 0.538 0.5189 0.5173 0.5334 0.5521 0.5474
2700.569 0.5428 0.5386 0.5208 0.5227 0.5309 0.5242 0.5155 0.519 0.5128 0.5074
2739.148 0.5231 0.517 0.5025 0.5287 0.5709 0.5776 0.5763 0.5797 0.57 0.5788
2777.728 0.6057 0.6178 0.6273 0.6351 0.63 0.6637 0.6985 0.7207 0.7589 0.7946
2816.308 0.8212 0.8647 0.9465 1.0255 1.1091 1.2396 1.392 1.592 1.862 2.162
2854.887 2.522 3.012 3.602 4.262 4.942 5.472 5.732 5.722 5.492 5.052
2893.467 4.542 4.132 3.862 3.792 3.942 4.302 4.822 5.552 6.552 7.802
2932.046 9.322 11.032 12.922 14.952 16.912 18.472 19.352 19.432 18.392 16.112
2970.626 13.202 10.202 7.532 5.512 4.052 3.012 2.302 1.862 1.552 1.322
3009.205 1.1829 1.0842 0.9752 0.9156 0.8648 0.7965 0.7703 0.7423 0.7088 0.6555
3047.785 0.6285 0.6161 0.5897 0.5928 0.5642 0.5547 0.5462 0.5375 0.5629 0.5866
3086.364 0.5831 0.5623 0.5556 0.5587 0.5385 0.5158 0.5212 0.5328 0.544 0.5207
3124.944 0.5209 0.5644 0.5315 0.4799 0.5152 0.5261 0.4752 0.4567 0.4786 0.5036
3163.524 0.5186 0.5113 0.5376 0.5476 0.5418 0.5403 0.5543 0.5557 0.5018 0.4899
3202.103 0.5046 0.4843 0.4864 0.5155 0.4918 0.461 0.4768 0.4949 0.4826 0.4643
3240.683 0.4379 0.4436 0.4597 0.4415 0.4154 0.4213 0.4328 0.4243 0.4169 0.4252
3279.262 0.4403 0.4602 0.4721 0.4461 0.4342 0.4312 0.4297 0.4314 0.4039 0.4188
3317.842 0.4609 0.4828 0.4914 0.4419 0.4109 0.4096 0.4123 0.4118 0.3918 0.4075
3356.421 0.419 0.4261 0.4486 0.4339 0.4023 0.3996 0.4195 0.4287 0.3965 0.4045
3395.001 0.416 0.42 0.4285 0.37631 0.35775 0.34565 0.37474 0.3978 0.37592 0.4051
3433.580 0.437 0.4159 0.37256 0.35295 0.36849 0.4024 0.427 0.4143 0.39 0.3742
3472.160 0.38153 0.4398 0.4686 0.4598 0.4279 0.4231 0.4407 0.4721 0.4575 0.4404
3510.740 0.4623 0.4672 0.4845 0.4591 0.4375 0.4442 0.4379 0.4252 0.4166 0.4096
3549.319 0.423 0.4273 0.4462 0.454 0.4234 0.4503 0.4743 0.4183 0.3883 0.3892
3587.899 0.4146 0.4363 0.4111 0.4314 0.4413 0.4532 0.4442 0.3974 0.37812 0.4138
3626.478 0.4493 0.4208 0.4178 0.4491 0.4838 0.484 0.446 0.4609 0.4875 0.5068
3665.058 0.5092 0.4943 0.4523 0.4264 0.4302 0.4306 0.4351 0.4227 0.4149 0.4087
3703.637 0.3865 0.3939 0.444 0.4501 0.4492 0.4573 0.4485 0.4227 0.4161 0.4311
3742.217 0.4564 0.4919 0.4943 0.4485 0.4165 0.4414 0.4475 0.4668 0.4759 0.4788
3780.797 0.4835 0.4656 0.4721 0.497 0.5148 0.4625 0.4325 0.4308 0.4266 0.463
3819.376 0.4713 0.4759 0.4728 0.459 0.4461 0.47 0.4918 0.4567 0.4774 0.5305
3857.956 0.4902 0.4529 0.5003 0.5227 0.5343 0.5476 0.523 0.4547 0.4701 0.4592
3896.535 0.3929 0.4761 0.5088 0.4382 0.4547 0.4897 0.4787 0.4582 0.4574 0.4947
3935.115 0.5211 0.4943 0.4993 0.5109 0.4874 0.4869 0.5159 0.5328 0.5071 0.4678
3973.694 0.468 0.4849 0.5089 0.5704 0.5744 0.5202 0.4979 0.5172
##END=
