##TITLE=1,10-Diaminodecane
##JCAMP-DX=4.24
##DATA TYPE=INFRARED SPECTRUM
##ORIGIN=EPA-IR VAPOR PHASE LIBRARY
##OWNER=SRD/NIST
Collection (C) 2018 copyright by the U.S. Secretary of Commerce
on behalf of the United States of America. All rights reserved.
##CAS REGISTRY NO=646-25-3
##MOLFORM=C 10 H 24 N 2
##$NIST SOURCE=MSDC-IR
##STATE=gas
##XUNITS=1/CM
##YUNITS=ABSORBANCE
##XFACTOR=1.
##YFACTOR=0.001
##DELTAX=3.85796
##FIRSTX=501.5
##LASTX=4000.7
##FIRSTY=0.9791
##MAXX=4000.7
##MINX=501.534
##MAXY=0.0608
##MINY=0.00008562
##NPOINTS=908
##XYDATA=(X++(Y..Y))
501.534 0.9791 1.11 1.27 1.09 0.8379 0.7537 0.6966 0.8189 0.9669 0.9617
540.114 0.8966 0.8845 0.9057 1.1 1.17 0.9894 0.9708 0.9852 1.12 1.19
578.693 1.1 1.13 1.13 1.12 1.2 1.29 1.33 1.41 1.46 1.46
617.273 1.36 1.36 1.53 1.68 1.69 1.7 1.8 1.84 1.9 2
655.852 2.11 2.17 2.24 2.28 2.34 2.44 2.54 2.69 2.86 2.97
694.432 3.15 3.47 3.79 4.14 4.52 4.87 5.26 5.68 6.22 6.87
733.011 7.37 8.01 8.72 9.37 10.12 10.75 11.28 11.79 12.22 12.44
771.591 12.47 12.31 11.82 11 10.01 8.92 7.73 6.71 5.97 5.38
810.170 4.78 4.38 4.06 3.7 3.47 3.21 3.03 2.89 2.74 2.61
848.750 2.47 2.36 2.21 2.17 2.15 1.97 1.89 1.84 1.79 1.85
887.330 1.85 1.76 1.65 1.61 1.59 1.55 1.47 1.47 1.55 1.48
925.909 1.46 1.56 1.57 1.51 1.48 1.41 1.35 1.38 1.38 1.37
964.489 1.4 1.36 1.27 1.25 1.23 1.2 1.31 1.44 1.38 1.29
1003.068 1.32 1.33 1.27 1.28 1.44 1.68 1.81 1.84 1.97 2.03
1041.648 2.23 2.46 2.61 2.77 3.01 3.32 3.54 3.71 3.86 3.81
1080.227 3.61 3.31 2.94 2.73 2.47 1.98 1.62 1.47 1.38 1.23
1118.807 1.25 1.18 0.9624 0.8583 0.7905 0.7593 0.7191 0.7508 0.7574 0.7362
1157.387 0.7738 0.7325 0.6935 0.7164 0.6868 0.6378 0.6548 0.6779 0.6373 0.5928
1195.966 0.5567 0.6283 0.6931 0.5924 0.6634 0.719 0.7077 0.7484 0.8277 0.8481
1234.546 0.7412 0.7082 0.6852 0.8205 0.9205 0.8451 0.8676 0.8961 0.8936 0.9359
1273.125 1 1.07 1.12 1.16 1.22 1.26 1.27 1.38 1.46 1.5
1311.705 1.49 1.45 1.42 1.43 1.46 1.52 1.63 1.83 2.06 2.34
1350.284 2.61 2.74 2.78 2.77 2.77 2.75 2.71 2.69 2.67 2.6
1388.864 2.46 2.23 1.95 1.67 1.45 1.27 1.2 1.17 1.16 1.22
1427.443 1.35 1.53 1.83 2.19 2.56 2.92 3.29 3.61 3.82 3.88
1466.023 3.72 3.37 2.9 2.43 1.96 1.59 1.32 1.09 0.9463 0.8458
1504.603 0.7609 0.7056 0.6631 0.6532 0.6189 0.592 0.5994 0.5835 0.6085 0.6011
1543.182 0.5755 0.625 0.6459 0.658 0.7098 0.744 0.8181 0.8539 0.8689 0.9842
1581.762 1.09 1.24 1.41 1.56 1.77 2.06 2.42 2.79 3.15 3.53
1620.341 3.79 3.79 3.51 3.08 2.59 2.12 1.78 1.52 1.3 1.12
1658.921 1.02 0.9116 0.8218 0.7582 0.6906 0.6467 0.5984 0.5319 0.5076 0.4941
1697.500 0.4318 0.4038 0.3965 0.4038 0.4443 0.4633 0.4613 0.4615 0.4577 0.4654
1736.080 0.4886 0.4733 0.4757 0.4765 0.4411 0.4419 0.4853 0.4852 0.4719 0.482
1774.659 0.4758 0.46 0.4229 0.4215 0.4452 0.4485 0.45 0.4314 0.3941 0.3903
1813.239 0.387 0.3777 0.3845 0.3784 0.3934 0.4101 0.414 0.4094 0.3712 0.3223
1851.819 0.2978 0.2842 0.2643 0.2495 0.2551 0.235 0.1977 0.191 0.199 0.2026
1890.398 0.1974 0.1972 0.183 0.167 0.148 0.1592 0.1538 0.1447 0.1664 0.1509
1928.978 0.1443 0.1569 0.1446 0.1284 0.1465 0.1593 0.1556 0.1652 0.1454 0.1367
1967.557 0.1734 0.164 0.1197 0.1215 0.1357 0.1478 0.1688 0.1482 0.1173 0.1129
2006.137 0.1304 0.1503 0.175 0.1554 0.1436 0.1698 0.1839 0.1792 0.2028 0.2197
2044.716 0.2119 0.2179 0.1779 0.1455 0.1878 0.2165 0.1931 0.1786 0.1645 0.1936
2083.296 0.2184 0.1811 0.1503 0.1583 0.1706 0.167 0.1712 0.1465 0.1213 0.1634
2121.875 0.1929 0.167 0.1495 0.1407 0.1467 0.1992 0.2208 0.1803 0.143 0.169
2160.455 0.2097 0.1966 0.1426 0.1237 0.1773 0.1916 0.1625 0.1472 0.1364 0.175
2199.035 0.1911 0.1688 0.1638 0.1379 0.1329 0.1575 0.1844 0.185 0.1504 0.1707
2237.614 0.2025 0.1982 0.1969 0.2008 0.2212 0.2224 0.21 0.2082 0.2148 0.1927
2276.194 0.2106 0.2174 0.1871 0.2076 0.1975 0.1713 0.2038 0.238 0.2132 0.1975
2314.773 0.1762 0.194 0.2319 0.2293 0.2293 0.2411 0.2491 0.214 0.2183 0.2266
2353.353 0.2313 0.2167 0.1942 0.2473 0.2615 0.221 0.211 0.1906 0.1622 0.1435
2391.932 0.1488 0.1645 0.1379 0.129 0.1369 0.1466 0.1596 0.1462 0.1312 0.1655
2430.512 0.1895 0.1921 0.1824 0.1973 0.2249 0.2205 0.2417 0.2011 0.1862 0.2475
2469.092 0.2608 0.2492 0.2393 0.2194 0.2168 0.2288 0.2174 0.2315 0.2625 0.2578
2507.671 0.2512 0.2742 0.2726 0.2422 0.2399 0.259 0.2875 0.3105 0.2832 0.2977
2546.251 0.3253 0.2984 0.2901 0.3007 0.3457 0.4151 0.4204 0.389 0.372 0.3492
2584.830 0.3699 0.4 0.4155 0.4306 0.4325 0.4517 0.4802 0.5486 0.5741 0.5696
2623.410 0.6113 0.6236 0.6494 0.7179 0.7102 0.7052 0.7524 0.7964 0.8659 0.8563
2661.989 0.8466 0.9296 0.9833 0.9721 0.9637 1.04 1.11 1.11 1.12 1.11
2700.569 1.09 1.14 1.16 1.15 1.17 1.18 1.24 1.35 1.37 1.34
2739.148 1.37 1.44 1.51 1.56 1.62 1.66 1.63 1.62 1.65 1.72
2777.728 1.84 1.88 1.95 2.11 2.27 2.45 2.61 2.82 3.15 3.55
2816.308 4.05 4.56 5.11 5.83 6.73 7.82 9.34 11.42 14.02 17.34
2854.887 21.01 24.03 25.38 24.72 22.54 19.92 17.55 15.74 14.74 14.48
2893.467 14.97 16.24 18.32 21.2 24.82 29.32 35.15 42.47 50.48 57.42
2932.046 60.8 58.98 52.64 43.77 34.62 26.68 20.49 15.76 12.2 9.62
2970.626 7.66 6.21 5.13 4.37 3.77 3.23 2.84 2.51 2.21 1.99
3009.205 1.76 1.58 1.5 1.37 1.25 1.16 1.04 0.9912 0.9862 0.9732
3047.785 0.894 0.7551 0.7537 0.7597 0.6766 0.6704 0.5974 0.5078 0.5191 0.4887
3086.364 0.4276 0.4725 0.5518 0.5413 0.5289 0.4846 0.3937 0.3633 0.3241 0.278
3124.944 0.2964 0.3291 0.3066 0.3314 0.4137 0.4084 0.4105 0.4138 0.3778 0.3893
3163.524 0.3404 0.2361 0.2521 0.331 0.3096 0.3188 0.3342 0.308 0.295 0.2374
3202.103 0.2099 0.205 0.2331 0.3148 0.352 0.3714 0.3668 0.3108 0.3026 0.3077
3240.683 0.2745 0.2653 0.2958 0.3091 0.2958 0.2412 0.2321 0.2245 0.2459 0.1945
3279.262 0.09888 0.08562 0.1377 0.1984 0.1625 0.2446 0.2764 0.2318 0.2244 0.2219
3317.842 0.2583 0.2874 0.2925 0.3466 0.4821 0.5165 0.49 0.5064 0.5253 0.5032
3356.421 0.5077 0.4874 0.3879 0.2651 0.2645 0.3155 0.3073 0.3717 0.3652 0.3307
3395.001 0.3904 0.3106 0.1818 0.3295 0.4433 0.3711 0.3584 0.3043 0.2763 0.3025
3433.580 0.3419 0.353 0.3039 0.3105 0.3304 0.2527 0.1334 0.1973 0.2722 0.158
3472.160 0.1288 0.2243 0.2714 0.2525 0.2162 0.2152 0.2404 0.1744 0.19 0.2285
3510.740 0.2148 0.2611 0.2535 0.2513 0.2138 0.2063 0.2055 0.1825 0.2955 0.2844
3549.319 0.1536 0.211 0.2721 0.2359 0.1669 0.1238 0.1455 0.1396 0.1875 0.2583
3587.899 0.207 0.2009 0.3112 0.3495 0.291 0.2009 0.1749 0.247 0.2988 0.3819
3626.478 0.4217 0.3748 0.358 0.3508 0.3573 0.3835 0.3525 0.3139 0.2462 0.1708
3665.058 0.2178 0.3261 0.3338 0.4048 0.4698 0.4226 0.349 0.2718 0.2618 0.2015
3703.637 0.2855 0.3945 0.3265 0.2957 0.3022 0.2469 0.2333 0.1819 0.1957 0.2618
3742.217 0.3146 0.4153 0.3414 0.3044 0.3684 0.3495 0.2589 0.2157 0.1926 0.2391
3780.797 0.3252 0.3198 0.3121 0.3768 0.3616 0.2563 0.2271 0.1928 0.1466 0.1733
3819.376 0.1716 0.2406 0.3634 0.2677 0.2436 0.3369 0.2474 0.1547 0.2307 0.3202
3857.956 0.3685 0.377 0.4051 0.3351 0.2776 0.3763 0.3419 0.3211 0.3984 0.3773
3896.535 0.2373 0.1949 0.2646 0.2578 0.2531 0.2854 0.3448 0.3226 0.2996 0.3432
3935.115 0.3672 0.3754 0.3977 0.4431 0.4624 0.4479 0.3709 0.2945 0.3862 0.4641
3973.694 0.4527 0.4332 0.3246 0.3043 0.3987 0.4207 0.4657 0.3978
##END=
