##TITLE=4-Chloro-2-phenylquinazoline
##JCAMP-DX=4.24
##DATA TYPE=INFRARED SPECTRUM
##ORIGIN=EPA-IR VAPOR PHASE LIBRARY
##OWNER=SRD/NIST
Collection (C) 2018 copyright by the U.S. Secretary of Commerce
on behalf of the United States of America. All rights reserved.
##CAS REGISTRY NO=6484-25-9
##MOLFORM=C 14 H 9 Cl N 2
##$NIST SOURCE=MSDC-IR
##STATE=gas
##XUNITS=1/CM
##YUNITS=ABSORBANCE
##XFACTOR=1.
##YFACTOR=0.001
##DELTAX=1.929
##FIRSTX=549.8
##LASTX=4000.8
##FIRSTY=2.026
##MAXX=4000.75
##MINX=549.766
##MAXY=0.119376
##MINY=0
##NPOINTS=1790
##XYDATA=(X++(Y..Y))
549.766 2.026 2.326 3.106 4.836 6.436 7.466 8.116 8.336 7.736 6.466
569.056 5.356 4.676 3.916 3.256 2.626 2.106 1.766 1.476 1.486 1.3409
588.346 1.2668 1.3507 1.1631 0.9622 0.9785 0.9884 0.8833 0.7812 0.8085 0.7917
607.636 0.739 0.8793 0.9771 1.0774 1.2231 1.2781 1.3922 1.606 1.856 2.126
626.926 2.276 2.176 2.006 1.906 1.766 1.696 1.646 1.556 1.586 1.876
646.216 2.396 3.146 4.666 6.966 10.356 14.816 17.706 17.646 18.056 18.416
665.506 15.456 11.216 8.196 6.396 5.456 5.276 5.676 6.506 7.456 8.616
684.796 10.126 12.126 13.416 13.086 13.266 14.836 17.346 20.556 24.086 28.346
704.086 34.766 38.716 34.766 28.576 23.846 19.406 15.126 11.526 9.486 8.586
723.376 8.706 9.606 10.226 10.226 9.996 9.776 9.036 7.846 6.596 5.786
742.666 5.696 6.196 7.356 9.416 12.656 16.976 21.926 27.026 32.606 39.316
761.956 41.376 36.416 32.576 30.646 28.576 25.556 20.246 15.266 11.836 9.016
781.246 6.636 4.776 3.526 2.836 2.496 2.356 2.326 2.396 2.536 2.776
800.536 2.866 2.886 3.046 3.186 3.446 3.746 3.876 4.206 4.566 4.746
819.826 5.016 5.316 5.556 5.866 6.236 6.666 7.246 8.046 9.236 10.636
839.116 12.186 14.426 17.756 22.136 26.796 30.166 31.436 31.576 30.466 26.866
858.406 22.016 18.076 15.306 13.546 12.186 10.376 8.336 6.616 5.466 4.496
877.696 3.646 3.026 2.436 1.926 1.556 1.359 1.2608 1.2059 1.0635 0.9484
896.986 0.9891 0.9948 0.9617 0.9693 0.9932 1.0152 1.0672 1.1699 1.2443 1.286
916.276 1.3961 1.546 1.696 1.796 1.816 1.996 2.226 2.186 2.106 2.036
935.566 1.946 1.876 1.726 1.536 1.436 1.3986 1.4197 1.536 1.676 1.826
954.856 2.016 2.256 2.496 2.736 3.186 3.856 4.716 6.036 7.806 10.166
974.146 13.396 17.466 21.836 25.556 27.886 28.396 27.426 25.196 21.206 16.046
993.436 11.416 8.106 5.966 4.636 3.896 3.386 3.056 2.756 2.516 2.506
1012.726 2.666 2.976 3.556 4.566 6.276 8.826 11.136 12.146 12.056 11.116
1032.016 9.036 6.096 3.766 2.586 2.096 1.936 1.856 1.776 1.686 1.756
1051.306 1.866 1.986 2.226 2.556 3.006 3.526 4.066 4.706 5.516 6.346
1070.596 7.046 7.336 7.206 6.886 6.196 5.216 4.106 3.106 2.436 1.966
1089.886 1.776 1.716 1.626 1.646 1.656 1.596 1.476 1.3233 1.2299 1.1266
1109.176 0.9891 0.9104 0.8671 0.8978 0.9453 0.9557 1.0403 1.1066 1.142 1.2497
1128.467 1.436 1.646 1.756 1.976 2.266 2.616 3.216 3.966 4.946 6.176
1147.757 7.396 7.996 8.026 8.086 8.056 7.336 6.256 5.376 4.726 4.446
1167.047 4.586 5.176 6.746 9.246 12.006 14.146 14.926 14.366 12.516 9.796
1186.337 7.056 4.926 3.646 3.046 2.756 2.546 2.336 2.156 1.986 1.916
1205.627 2.036 2.396 2.806 3.256 3.836 4.446 5.186 6.176 7.246 7.986
1224.917 8.656 9.226 9.626 10.046 10.806 12.226 14.406 17.096 19.886 22.176
1244.207 23.326 23.206 21.866 19.566 16.736 13.686 10.846 8.646 7.056 5.986
1263.497 5.476 5.276 5.186 5.266 5.476 5.806 6.286 6.866 7.506 8.226
1282.787 9.026 9.826 10.506 11.026 11.296 11.246 10.996 10.786 10.916 11.696
1302.077 13.446 16.546 21.206 27.416 34.626 41.436 46.136 48.706 50.626 51.876
1321.367 51.866 52.806 56.806 63.286 70.176 75.466 78.046 77.046 72.216 64.926
1340.657 57.496 51.396 46.146 41.136 36.586 32.506 27.816 22.126 16.896 13.296
1359.947 11.226 10.376 10.406 11.096 12.436 14.366 16.696 19.206 21.496 23.116
1379.237 23.786 23.266 21.496 18.966 16.176 13.426 11.056 9.206 7.956 7.226
1398.527 6.896 6.686 6.416 6.116 5.736 5.286 4.866 4.546 4.426 4.426
1417.817 4.576 4.836 5.086 5.396 5.746 6.076 6.496 7.066 7.936 9.296
1437.107 11.196 13.676 16.836 19.966 21.926 22.546 22.446 22.116 21.576 21.076
1456.397 20.836 20.496 19.746 18.436 16.756 15.956 17.616 21.686 27.666 34.946
1475.687 41.636 46.386 47.646 45.586 40.536 33.156 24.856 17.876 13.146 10.346
1494.977 8.706 7.606 6.826 6.316 6.006 5.786 5.806 5.946 6.156 6.566
1514.267 7.116 7.736 8.366 9.186 10.296 11.506 13.256 15.506 18.326 22.036
1533.557 26.926 32.876 39.306 46.716 54.086 60.516 65.816 69.436 71.206 71.786
1552.847 72.156 73.556 77.156 84.576 95.936 107.616 116.626 119.376 114.516 102.936
1572.137 86.946 70.166 56.456 49.226 47.386 47.686 48.226 47.936 46.296 42.996
1591.427 38.056 32.136 26.426 21.756 18.436 16.626 16.376 17.406 19.676 22.966
1610.717 26.476 29.296 30.406 29.396 26.636 22.646 17.866 13.436 10.386 8.506
1630.007 7.356 6.596 5.966 5.406 4.786 4.306 3.956 3.616 3.366 3.186
1649.297 3.036 2.906 2.836 2.746 2.626 2.536 2.436 2.376 2.326 2.276
1668.587 2.226 2.156 2.016 1.946 1.946 1.856 1.736 1.696 1.686 1.686
1687.877 1.666 1.636 1.706 1.796 1.816 1.836 1.906 1.966 2.006 2.036
1707.167 2.116 2.276 2.456 2.566 2.616 2.606 2.476 2.316 2.116 1.886
1726.457 1.726 1.666 1.636 1.536 1.436 1.3987 1.33 1.3022 1.2126 1.1606
1745.747 1.1634 1.1688 1.2036 1.2806 1.3261 1.349 1.3792 1.3765 1.3825 1.3716
1765.037 1.3616 1.3453 1.3593 1.4103 1.446 1.476 1.496 1.476 1.4201 1.3545
1784.327 1.3292 1.3387 1.329 1.3093 1.2897 1.2594 1.2705 1.3478 1.466 1.566
1803.617 1.686 1.856 2.006 2.106 2.156 2.246 2.326 2.316 2.276 2.256
1822.907 2.176 2.016 1.926 1.846 1.686 1.546 1.456 1.4314 1.506 1.626
1842.197 1.776 1.966 2.116 2.156 2.146 2.056 1.876 1.626 1.3998 1.2127
1861.487 1.0695 0.975 0.915 0.908 0.8967 0.8847 0.8801 0.8716 0.8559 0.8849
1880.777 0.9498 0.978 1.0121 1.039 1.0572 1.1331 1.2591 1.3602 1.456 1.536
1900.067 1.626 1.786 1.926 2.066 2.286 2.406 2.406 2.366 2.206 1.946
1919.357 1.656 1.3736 1.1798 1.1132 1.1054 1.1447 1.2276 1.3421 1.456 1.536
1938.647 1.586 1.626 1.646 1.666 1.676 1.746 1.876 1.996 2.186 2.366
1957.937 2.566 2.786 2.876 2.836 2.726 2.476 2.096 1.656 1.2913 0.9765
1977.227 0.7951 0.6911 0.6277 0.6087 0.6115 0.6142 0.5671 0.52945 0.51097 0.5431
1996.517 0.5413 0.49335 0.4706 0.45002 0.45753 0.483 0.48311 0.45573 0.4158 0.3954
2015.807 0.395 0.4006 0.417 0.3951 0.3739 0.3827 0.4087 0.4202 0.409 0.43115
2035.097 0.4041 0.3601 0.379 0.3875 0.3965 0.438576 0.437764 0.43102 0.47661 0.48076
2054.387 0.46504 0.48876 0.49047 0.48155 0.47965 0.46173 0.442747 0.443443 0.43435 0.4157
2073.677 0.437433 0.46446 0.51862 0.52698 0.4775 0.48059 0.49192 0.46777 0.46933 0.47215
2092.967 0.4082 0.3873 0.4097 0.4034 0.4171 0.45905 0.47127 0.45389 0.45055 0.4326
2112.257 0.46255 0.49621 0.4938 0.46949 0.4181 0.4189 0.4053 0.3963 0.4195 0.4127
2131.547 0.42645 0.4197 0.412 0.42728 0.441992 0.3792 0.3454 0.3745 0.332 0.276
2150.837 0.279 0.32 0.321 0.308 0.328 0.3684 0.3775 0.3473 0.3727 0.4126
2170.127 0.4171 0.414 0.441269 0.47205 0.441135 0.47051 0.48626 0.444504 0.4132 0.3933
2189.417 0.3974 0.4142 0.42964 0.3941 0.3706 0.3829 0.39 0.3643 0.35 0.3615
2208.707 0.3372 0.3377 0.3566 0.3679 0.3948 0.4155 0.3945 0.3939 0.4071 0.4062
2227.997 0.4049 0.4131 0.4205 0.3959 0.335 0.308 0.324 0.296 0.312 0.3938
2247.287 0.3992 0.369 0.3768 0.34 0.321 0.3465 0.302 0.248 0.271 0.332
2266.577 0.362 0.3566 0.3674 0.3826 0.4255 0.43323 0.4187 0.3936 0.3843 0.4108
2285.868 0.3723 0.3843 0.4343 0.46339 0.543 0.5646 0.53309 0.6211 0.7081 0.7184
2305.158 0.7724 0.8351 0.8998 0.9322 0.9451 0.9771 0.9355 0.8504 0.7909 0.7125
2324.448 0.6272 0.6124 0.6201 0.5829 0.52215 0.51305 0.5437 0.5555 0.5492 0.5499
2343.738 0.5628 0.603 0.5761 0.52851 0.51732 0.5718 0.6531 0.6415 0.6405 0.6315
2363.028 0.6318 0.6651 0.6316 0.6111 0.5948 0.50352 0.47741 0.50136 0.46119 0.48956
2382.318 0.5589 0.53059 0.50821 0.52742 0.5798 0.5754 0.5788 0.5973 0.6299 0.6841
2401.608 0.6418 0.6162 0.5789 0.52868 0.5508 0.5626 0.5752 0.5698 0.5797 0.575
2420.898 0.49456 0.4644 0.48427 0.48089 0.45865 0.45614 0.46684 0.47586 0.45695 0.45535
2440.188 0.46529 0.4491 0.49771 0.5631 0.5699 0.53193 0.52358 0.5418 0.5568 0.5697
2459.478 0.52187 0.5247 0.5568 0.5565 0.5587 0.5582 0.5755 0.6023 0.5827 0.50469
2478.768 0.47966 0.46026 0.4193 0.43001 0.425 0.382 0.3391 0.3669 0.4039 0.358
2498.058 0.328 0.306 0.312 0.398 0.4215 0.4224 0.45159 0.4131 0.3987 0.3975
2517.348 0.3925 0.3978 0.362 0.335 0.3714 0.4069 0.4079 0.4082 0.4128 0.445812
2536.638 0.4111 0.3763 0.3516 0.32 0.3656 0.3995 0.4038 0.4199 0.4175 0.416
2555.928 0.45359 0.435358 0.4108 0.45407 0.47359 0.43105 0.44791 0.4239 0.3928 0.45709
2575.218 0.46599 0.46726 0.49983 0.5081 0.47496 0.48571 0.546 0.5807 0.5636 0.5746
2594.508 0.6003 0.5681 0.5481 0.5609 0.562 0.594 0.5936 0.53049 0.51758 0.4904
2613.798 0.50778 0.51495 0.436536 0.42772 0.45317 0.45826 0.3707 0.3689 0.49961 0.51474
2633.088 0.53033 0.5224 0.45903 0.46384 0.4682 0.3983 0.3953 0.3987 0.3842 0.435412
2652.378 0.457 0.44624 0.4073 0.3974 0.4021 0.43462 0.47007 0.47953 0.49185 0.52015
2671.668 0.47207 0.3943 0.4061 0.46671 0.48722 0.43108 0.3815 0.3792 0.418 0.333
2690.958 0.26 0.298 0.281 0.292 0.3509 0.333 0.307 0.3688 0.4116 0.4047
2710.248 0.442596 0.48925 0.4607 0.4037 0.42786 0.47089 0.48403 0.443026 0.445341 0.53168
2729.538 0.5377 0.4335 0.3776 0.3817 0.41 0.3977 0.3649 0.3942 0.3769 0.3921
2748.828 0.4014 0.42822 0.48562 0.49441 0.50194 0.50044 0.49139 0.45836 0.42766 0.444533
2768.118 0.45333 0.4135 0.426 0.4106 0.332 0.3429 0.4072 0.3427 0.293 0.291
2787.408 0.242 0.289 0.322 0.331 0.3414 0.3728 0.314 0.247 0.248 0.186
2806.698 0.143 0.19 0.221 0.239 0.307 0.3361 0.3674 0.3587 0.305 0.295
2825.988 0.304 0.277 0.282 0.262 0.296 0.3705 0.371 0.389 0.4197 0.443172
2845.278 0.4024 0.3 0.332 0.45182 0.407 0.33 0.3531 0.3862 0.4003 0.3981
2864.568 0.3957 0.4122 0.47155 0.46445 0.46623 0.49032 0.5471 0.6282 0.5838 0.6074
2883.858 0.6155 0.5526 0.6208 0.6761 0.6146 0.5843 0.6417 0.7132 0.731 0.7712
2903.148 0.7531 0.6956 0.7302 0.7731 0.7929 0.7642 0.7451 0.7061 0.7024 0.7455
2922.438 0.7247 0.7758 0.8111 0.7455 0.6957 0.6591 0.7211 0.6756 0.5773 0.6238
2941.728 0.6294 0.647 0.6611 0.6365 0.51803 0.42988 0.4908 0.48206 0.45625 0.445018
2961.018 0.44731 0.437527 0.47261 0.5554 0.5401 0.5939 0.6584 0.693 0.6786 0.6185
2980.308 0.6624 0.729 0.7913 0.918 0.9132 0.941 0.9818 0.9669 1.0341 1.0638
2999.598 1.0891 1.1142 1.2177 1.3144 1.4334 1.536 1.646 1.736 1.826 1.976
3018.888 2.106 2.326 2.546 2.806 3.066 3.366 3.756 4.156 4.626 5.076
3038.178 5.466 5.896 6.376 6.836 7.256 7.716 8.256 8.796 9.346 10.106
3057.468 11.106 12.346 13.706 15.046 16.486 18.146 19.996 21.706 23.116 23.686
3076.758 23.076 21.506 18.896 15.796 12.656 10.026 8.336 7.446 6.966 6.546
3096.048 6.176 5.706 5.296 4.946 4.526 4.166 3.766 3.406 3.196 3.046
3115.338 2.816 2.486 2.176 1.996 1.966 1.846 1.636 1.506 1.3532 1.2209
3134.628 1.1234 0.9172 0.7734 0.776 0.8229 0.8445 0.8158 0.8181 0.8748 0.9037
3153.918 0.9083 0.7914 0.7193 0.861 0.8572 0.8102 0.817 0.7227 0.7275 0.6817
3173.208 0.5463 0.5639 0.48294 0.3917 0.4174 0.4098 0.3842 0.321 0.3665 0.3925
3192.498 0.286 0.299 0.308 0.226 0.243 0.291 0.23 0.182 0.335 0.3443
3211.788 0.239 0.2 0.194 0.206 0.157 0.248 0.26 0.141 0.074 0.209
3231.078 0.284 0.148 0.191 0.182 0.007 0 0.15 0.25 0.211 0.081
3250.368 0.092 0.115 0.141 0.162 0.186 0.248 0.237 0.208 0.16 0.139
3269.658 0.107 0.169 0.25 0.254 0.173 0.095 0.127 0.223 0.283 0.253
3288.948 0.169 0.134 0.048 0.046 0.152 0.14 0.204 0.227 0.115 0.082
3308.238 0.158 0.124 0.09 0.167 0.119 0.107 0.15 0.139 0.132 0.11
3327.528 0.129 0.115 0.129 0.229 0.296 0.263 0.163 0.13 0.05 0.083
3346.818 0.14 0.158 0.245 0.189 0.145 0.23 0.3361 0.293 0.269 0.289
3366.108 0.229 0.212 0.165 0.176 0.256 0.305 0.326 0.325 0.3553 0.271
3385.398 0.193 0.209 0.294 0.3721 0.3513 0.326 0.293 0.187 0.079 0.091
3404.688 0.236 0.286 0.268 0.276 0.205 0.135 0.077 0.141 0.315 0.3387
3423.978 0.298 0.241 0.246 0.222 0.161 0.204 0.216 0.109 0.072 0.217
3443.269 0.328 0.29 0.163 0.21 0.277 0.228 0.277 0.276 0.137 0.199
3462.559 0.264 0.277 0.3775 0.4228 0.3813 0.291 0.255 0.171 0.262 0.35
3481.849 0.211 0.208 0.3519 0.335 0.252 0.212 0.209 0.301 0.334 0.25
3501.139 0.126 0.141 0.29 0.3399 0.261 0.247 0.327 0.3635 0.318 0.255
3520.429 0.292 0.3585 0.331 0.3885 0.371 0.253 0.3705 0.4186 0.334 0.3616
3539.719 0.309 0.324 0.28 0.173 0.259 0.3396 0.308 0.269 0.3601 0.4068
3559.009 0.312 0.3522 0.286 0.173 0.334 0.318 0.197 0.181 0.233 0.292
3578.299 0.3863 0.4193 0.45954 0.5373 0.49342 0.436381 0.316 0.3457 0.358 0.291
3597.589 0.306 0.3735 0.4088 0.3577 0.3696 0.3823 0.3787 0.4227 0.50285 0.5042
3616.879 0.45591 0.4156 0.3913 0.311 0.3459 0.49358 0.50801 0.47352 0.418 0.361
3636.169 0.42771 0.51868 0.49016 0.45098 0.4053 0.3539 0.4027 0.46037 0.51412 0.49613
3655.459 0.4663 0.50215 0.47548 0.423 0.46316 0.46842 0.46423 0.48854 0.52146 0.6245
3674.749 0.6439 0.44669 0.29 0.32 0.335 0.3714 0.4223 0.49562 0.50548 0.51942
3694.039 0.439222 0.47116 0.50439 0.3807 0.444762 0.441597 0.3846 0.3631 0.42893 0.5569
3713.329 0.47842 0.3847 0.4072 0.43249 0.45235 0.45109 0.43207 0.3873 0.341 0.3874
3732.619 0.45455 0.47629 0.317 0.241 0.33 0.297 0.334 0.377 0.3582 0.292
3751.909 0.316 0.46874 0.48167 0.3933 0.3803 0.391 0.47032 0.418 0.4052 0.48819
3771.199 0.335 0.3488 0.403 0.33 0.334 0.3972 0.45957 0.45653 0.43271 0.4042
3790.489 0.312 0.297 0.3726 0.4048 0.333 0.3605 0.49371 0.45504 0.4229 0.50079
3809.779 0.53048 0.440231 0.3789 0.46899 0.51343 0.3544 0.3546 0.43614 0.443759 0.4722
3829.069 0.4583 0.4179 0.3409 0.3709 0.37 0.392 0.4619 0.3817 0.286 0.305
3848.359 0.3478 0.242 0.222 0.3894 0.42887 0.335 0.264 0.299 0.3813 0.4098
3867.649 0.445898 0.45665 0.436612 0.4189 0.4069 0.435331 0.47557 0.48949 0.45255 0.43378
3886.939 0.3946 0.3661 0.47663 0.49878 0.394 0.306 0.333 0.50266 0.5734 0.5379
3906.229 0.44807 0.42997 0.51127 0.622 0.6053 0.5374 0.47801 0.405 0.386 0.3895
3925.519 0.4237 0.3764 0.3964 0.4038 0.4092 0.49085 0.53041 0.47388 0.3758 0.323
3944.809 0.3724 0.285 0.282 0.46851 0.4079 0.332 0.3724 0.4067 0.4254 0.3813
3964.099 0.3835 0.4059 0.3872 0.3743 0.32 0.3539 0.263 0.163 0.188 0.329
3983.389 0.43226 0.346 0.3966 0.50951 0.442909 0.3731 0.3884 0.424 0.5458 0.6332
##END=
