##TITLE=2-(2',5'-Dimethoxyphenyl)-4,4-dimethyl-2-oxazoline
##JCAMP-DX=4.24
##DATA TYPE=INFRARED SPECTRUM
##ORIGIN=EPA-IR VAPOR PHASE LIBRARY
##OWNER=SRD/NIST
Collection (C) 2018 copyright by the U.S. Secretary of Commerce
on behalf of the United States of America. All rights reserved.
##CAS REGISTRY NO=64957-84-2
##MOLFORM=C 13 H 17 N O 3
##$NIST SOURCE=MSDC-IR
##STATE=gas
##XUNITS=1/CM
##YUNITS=ABSORBANCE
##XFACTOR=1.
##YFACTOR=0.001
##DELTAX=1.92898
##FIRSTX=549.8
##LASTX=4000.7
##FIRSTY=2.36
##MAXX=4000.7
##MINX=549.759
##MAXY=0.1106
##MINY=0
##NPOINTS=1790
##XYDATA=(X++(Y..Y))
549.759 2.36 1.85 2.07 2.3 1.86 1.6771 2.36 2.73 2.45 3
569.049 2.89 2.81 3.58 3.75 3.26 3.05 3.59 3.28 2.53 3.36
588.339 4.73 5.22 4.67 4.85 5.46 5.42 5.4 4.94 4.85 5.17
607.628 5.38 5.68 5.75 6.02 6.57 6.41 5.95 4.96 4.08 3.99
626.918 3.74 3.39 2.99 2.36 1.91 1.7587 1.3341 1.3392 1.8229 2.03
646.208 2.01 1.4588 1.1738 1.4828 1.87 1.6822 1.285 1.1003 1.5022 2.32
665.498 2.36 2.75 3.36 3.28 3.05 3.49 4.01 4.07 4.04 4.15
684.787 4.39 4.49 4.83 5.02 4.88 5.16 5.66 6.29 6.84 6.93
704.077 7.41 7.61 7.32 7.04 7.2 7.68 7.32 6.65 6.52 6.84
723.367 7.18 7.23 7.72 8.52 9.12 9.54 9.95 10.5 10.81 11.44
742.657 12.2 12.82 12.75 12.66 12.19 11.43 10.73 10.13 9.48 9.04
761.947 7.88 6.81 6.21 5.13 5.06 4.72 4.36 4.48 3.87 3.14
781.236 3.24 3.28 3.34 3.74 4.27 4.25 4.29 4.73 5.28 6.12
800.526 6.79 7.45 8.45 8.88 9.54 10.98 12.16 12.91 13.77 14.17
819.816 14.05 14.52 14.02 13.4 13.52 12.76 11.67 10.69 9.64 8.51
839.106 7.25 6.05 5.08 5.06 5.52 5.72 5.31 5 4.64 4.53
858.395 5.51 5.73 5.69 6.23 6.75 7.08 7.15 7.73 8.29 8.15
877.685 8.21 8.93 9.27 9.98 10.5 10.26 10.01 10.2 10.65 11.27
896.975 12.22 12.75 12.82 12.44 11.95 11.4 10.39 9.33 8.71 8.56
916.265 8.57 8.47 9.1 10.17 10.57 10.55 10.64 10.07 9.2 8.85
935.555 8.65 8.18 7.98 8.2 7.97 7.91 8.26 8.57 9.34 9.69
954.844 9.88 10.39 11.09 12.44 13.65 14.6 15.56 16.69 17.33 18.07
974.134 19.1 19.77 20.36 21.22 22.59 23.56 25.59 28.14 30.14 32.53
993.424 33.86 33.72 32.24 29.3 26.48 24.31 22.5 21.41 21.09 21.42
1012.714 22.28 23.97 25.95 27.9 30.35 33.45 37.12 41.32 46.56 53.03
1032.003 60.52 67.17 72.73 78.53 84.06 88.64 89.73 88.47 85.86 81.93
1051.293 77.89 72.55 65.14 57.5 51.44 45.94 39.87 33.53 28.39 24.9
1070.583 22.5 19.57 16.47 15.02 13.29 11.41 10.63 9.33 9.2 8.52
1089.873 6.63 6.55 7.56 7.03 5.59 6.03 6.39 6.14 6.18 5.59
1109.163 5.85 6.6 7.21 6.8 6.97 7.58 7.84 7.83 8.66 8.9
1128.452 8.21 9.02 8.42 7.52 7.88 7.72 8.81 9.85 8.89 8.06
1147.742 9.04 9.88 9.72 11.26 12.24 13.19 14.87 16.38 17.77 19.89
1167.032 23.41 27.17 30.63 32.82 34.34 36.04 37.94 39.61 39.77 39.87
1186.322 41.22 41.83 41.44 42.4 43.93 44.47 45.72 46.59 46.53 48.38
1205.611 50.09 51.09 53.18 58.32 65.14 71.72 76.7 82.52 89.42 92.63
1224.901 92.2 88.98 84.41 78.55 71.84 65.45 59.14 53.18 48.67 45.11
1244.191 42.52 41.76 41.16 40.59 41.62 43.66 45.46 47.67 49.95 52.03
1263.481 54.49 56.34 56.12 54.9 53.1 50.54 47.71 43.99 40.21 36.63
1282.771 34 32.14 31.07 30.52 29.98 30.24 30.78 31.87 33.41 34.84
1302.060 36.1 36.84 37.33 37.22 36.34 35.31 33.62 31.52 29.75 27.87
1321.350 26.02 24.21 22.41 20.89 19.53 18.63 18.03 17.8 18.47 19.67
1340.640 21.33 23.26 24.47 24.96 24.4 22.77 20.73 18.34 16.11 14.59
1359.930 13.79 13.47 13.38 13.35 13.11 12.51 12 11.4 10.87 10.65
1379.219 10.43 10.29 10.07 9.92 10.06 10.38 10.7 11.33 12.44 13.57
1398.509 14.89 16.64 18.76 21.3 24.14 27.26 30.77 34.43 37.92 40.97
1417.799 43.11 44.29 44.14 42.59 39.99 36.77 33.41 30.49 28.21 26.51
1437.089 25.17 24.39 23.62 23.06 22.94 22.64 22.51 22.65 23.15 24.21
1456.378 25.48 27.11 29.04 31.34 33.82 35.68 37.1 38.36 39.03 39.55
1475.668 40.24 41.31 43.41 46.96 51.93 58.52 66.51 75.82 85.96 95.4
1494.958 103.4 108.98 110.6 108.07 101.67 91.59 78.85 65.88 53.74 43.28
1514.248 35.1 28.39 23.25 19.6 16.36 14.08 12.42 11.26 10.52 9.93
1533.538 9.29 8.63 8.2 7.75 7.6 7.48 7.26 7.15 7.21 6.98
1552.827 6.88 7.19 7.27 7.43 7.73 8.32 9.26 10.16 10.76 11.17
1572.117 12 12.98 13.89 14.37 14.57 14.71 14.66 14.48 14.37 14.52
1591.407 15 15.45 16.14 17.37 18.55 19.85 21.2 22.02 22.57 22.49
1610.697 21.83 21.19 20.53 20.1 19.9 20.06 20.51 21.18 22.07 23.32
1629.986 24.82 26.56 28.37 30.35 32.63 34.75 37.12 39.72 42.46 45.35
1649.276 47.66 49.38 50.71 50.98 50.02 48.09 45.23 41.38 37.2 33.18
1668.566 29.62 26.51 24.02 21.6 19.33 17.68 15.95 14.26 12.84 11.8
1687.856 10.73 9.73 9.24 8.56 7.75 7.41 7.13 6.81 6.6 6.34
1707.146 6.02 5.78 5.44 5.14 5.05 5 4.96 4.66 4.45 4.23
1726.435 4.14 4.16 3.88 3.76 3.71 3.5 3.35 3.27 3.17 3.1
1745.725 2.94 2.72 2.77 2.87 2.78 2.79 2.82 2.66 2.58 2.74
1765.015 2.78 2.65 2.45 2.43 2.42 2.35 2.3 2.26 2.22 2.32
1784.305 2.43 2.2 2.18 2.27 2.15 2.18 2.3 2.4 2.47 2.48
1803.594 2.47 2.57 2.63 2.46 2.43 2.39 2.27 2.13 2.12 2.18
1822.884 2.17 2.06 2.09 2.11 1.88 1.87 1.97 1.95 1.9 2.03
1842.174 2.06 1.92 1.92 2.02 2.15 2.39 2.47 2.32 2.3 2.4
1861.464 2.47 2.4 2.33 2.43 2.46 2.39 2.37 2.46 2.51 2.48
1880.754 2.37 2.19 2.18 2.26 2.19 2.11 2.13 2.11 2.14 2.12
1900.043 1.92 1.89 1.97 1.86 1.8321 1.88 1.93 2.05 1.88 1.86
1919.333 1.98 1.88 1.823 1.87 1.85 1.94 2.04 2.04 2.17 2.19
1938.623 2.08 2.11 2.23 2.15 2.14 2.27 2.39 2.32 2.38 2.32
1957.913 2.16 2.17 2.41 2.59 2.58 2.65 2.66 2.64 2.62 2.62
1977.202 2.58 2.73 2.94 2.94 2.9 2.79 2.84 2.93 2.85 2.82
1996.492 2.95 3.12 3.28 3.33 3.23 3.09 3.1 3.19 3.14 2.98
2015.782 2.82 2.88 2.96 3.17 3.17 3.11 3.32 3.13 2.97 3.07
2035.072 3 3.06 3.09 3.08 3.11 2.99 2.89 2.84 2.74 2.81
2054.362 2.95 2.97 2.98 2.93 3.01 2.95 2.85 2.82 2.76 2.93
2073.651 2.86 2.67 2.7 2.79 2.67 2.55 2.5 2.46 2.59 2.69
2092.941 2.57 2.35 2.2 2.18 2.1 2.11 2.19 2.2 1.97 1.8111
2112.231 1.87 1.87 1.8356 1.765 1.87 1.98 1.96 1.85 1.6822 1.5961
2131.521 1.7606 1.8143 1.6522 1.666 1.7348 1.7509 1.4245 1.2969 1.4276 1.4148
2150.810 1.2998 1.3093 1.5184 1.5921 1.5844 1.5 1.3687 1.3976 1.2967 1.1114
2170.100 1.3489 1.5786 1.5463 1.5168 1.457 1.4951 1.5177 1.4811 1.5706 1.4551
2189.390 1.4095 1.4418 1.4887 1.5433 1.4497 1.5008 1.5668 1.5551 1.4604 1.2304
2208.680 1.2208 1.5141 1.4221 1.321 1.4251 1.3804 1.2996 1.1287 1.2919 1.638
2227.970 1.7778 1.6776 1.5621 1.5526 1.3978 1.4216 1.5998 1.6104 1.6975 1.7172
2247.259 1.5906 1.597 1.6001 1.6018 1.6278 1.6864 1.784 1.6687 1.5967 1.5003
2266.549 1.4359 1.4706 1.5748 1.757 1.5705 1.4393 1.5439 1.6975 1.6312 1.5142
2285.839 1.5602 1.4913 1.4301 1.4203 1.3587 1.3523 1.3868 1.5037 1.6646 1.7033
2305.129 1.796 1.7717 1.6516 1.6681 1.7085 1.806 2.13 2.1 1.6801 1.654
2324.418 1.85 1.92 1.93 1.6035 1.4684 1.6816 1.5608 1.6396 1.85 1.6251
2343.708 1.3904 1.3622 1.4773 1.5166 1.4224 1.5133 1.5884 1.4663 1.6089 1.7
2362.998 1.5191 1.6936 1.8009 1.5632 1.5214 1.6264 1.5929 1.5261 1.4215 1.4093
2382.288 1.4557 1.4972 1.6393 1.6409 1.3535 1.1184 1.2407 1.485 1.4813 1.391
2401.578 1.4556 1.6553 1.6528 1.4892 1.5054 1.5735 1.5889 1.6772 1.5468 1.6261
2420.867 1.82 1.7318 1.6607 1.6595 1.6861 1.4748 1.4992 1.7741 1.7901 1.6322
2440.157 1.4737 1.4463 1.5594 1.7104 1.8317 1.91 1.8123 1.8105 1.94 1.7527
2459.447 1.7343 1.89 1.87 1.7671 1.5957 1.5257 1.5533 1.7258 1.8257 1.7864
2478.737 1.96 2.1 1.98 1.97 2.13 1.86 1.5018 1.5706 1.7985 1.7243
2498.026 1.6433 1.8077 1.6852 1.5823 1.94 1.97 1.8324 1.91 2.01 1.95
2517.316 1.7367 1.99 2.06 1.99 1.93 1.92 2.12 2.14 1.99 1.788
2536.606 1.6931 1.5126 1.3636 1.3472 1.4827 1.4947 1.51 1.5622 1.7853 1.99
2555.896 1.5378 1.3366 1.4628 1.4457 1.6441 1.5983 1.5305 1.9 2.01 1.7205
2575.186 1.5612 1.5386 1.4455 1.4993 1.7223 1.8334 1.91 1.97 1.6793 1.5414
2594.475 1.7169 1.7594 1.7092 1.5516 1.5816 1.92 2.08 1.86 1.7254 1.7894
2613.765 1.96 1.88 1.7196 1.713 1.6877 1.5317 1.5472 1.85 1.7195 1.6316
2633.055 1.4922 1.4086 1.87 2.14 1.85 1.6576 1.5912 1.5278 1.4656 1.5191
2652.345 1.5266 1.6742 1.9 1.7551 1.97 1.98 1.8311 1.85 1.93 1.91
2671.634 1.6254 1.4851 1.6305 1.5029 1.2416 1.4296 1.83 1.9 1.6778 1.5921
2690.924 1.5611 1.4929 1.7319 1.768 1.7228 1.7327 1.6509 1.6098 1.6844 1.7917
2710.214 1.5015 1.6687 1.97 1.85 1.811 1.99 2.16 2.29 2.3 2.26
2729.504 2.23 2.13 2.01 1.8056 1.93 2.04 2.05 1.99 1.99 2.23
2748.794 2.15 2.31 2.4 2.26 2.45 2.64 2.38 2.28 2.49 2.68
2768.083 2.6 2.4 2.74 2.65 2.43 2.71 2.9 3.09 3.16 3.41
2787.373 3.48 3.52 3.76 4.02 4.27 4.2 4.34 4.2 4.29 5.11
2806.663 5.3 5.5 6.02 6.21 6.78 7.63 7.99 8.68 9.58 10.05
2825.953 11.07 12.43 13.86 15.77 17.86 19.4 20.64 21.96 22.85 22.41
2845.242 21.29 20.15 19.23 18.06 16.83 16.19 15.55 15.18 15.43 15.74
2864.532 16.09 17.03 17.91 18.62 19.43 20.24 20.99 21.79 22.45 23.17
2883.822 24.03 24.94 26.22 27.08 28.12 29.38 29.44 29.29 29.44 29.46
2903.112 29.73 29.84 30.1 30.56 30.88 31.56 31.96 31.93 32.4 33.45
2922.401 34.69 35.89 37.09 38.75 41.39 44.29 47.03 49.47 50.83 51.63
2941.691 51.45 50.59 49.17 47.34 46.2 45.47 44.97 44.78 44.98 46.29
2960.981 48.58 52.42 57.94 62.58 65.19 65.93 64.73 61.64 57.25 52.46
2980.271 47.63 43.43 40.47 37.54 34.28 31.58 29.57 28.26 28.33 28.99
2999.561 29.32 29.89 29.8 28.78 27.2 24.9 22.34 19.35 16.12 13.88
3018.850 12.43 10.96 10.28 9.81 8.99 8.81 8.69 8.21 7.92 7.62
3038.140 7.88 7.84 7.71 8.04 7.96 7.64 7.3 7.2 7.36 7.79
3057.430 7.51 7.3 7.4 7.33 7.51 7.75 7.34 6.96 7.44 7.55
3076.720 7.4 7.49 7.35 7.06 6.82 6.24 5.82 5.49 4.98 4.43
3096.009 4.03 4.26 4.27 4.19 3.95 3.7 3.92 3.85 3.76 3.88
3115.299 3.79 3.6 3.22 3.07 2.88 2.76 3.13 2.91 2.41 1.9
3134.589 2 2.69 2.67 2.61 2.45 2.06 2.35 2.48 2.12 2.33
3153.879 2.56 2.17 2.27 2.55 2.65 2.92 2.87 2.22 2.03 2.56
3173.169 2.38 2.05 2.36 1.95 1.7228 1.96 1.99 2.18 2.05 1.96
3192.458 1.95 1.9 1.95 1.5869 1.5947 2.16 2.16 1.7993 1.89 1.88
3211.748 2 1.86 1.6992 2.03 2.25 2.57 2.4 2.23 2.09 1.91
3231.038 1.5297 1.37 1.7517 1.7848 1.7478 1.6483 1.88 1.92 1.4752 1.5623
3250.328 2.07 1.94 1.1978 0.9552 1.3123 1.7332 1.7093 1.5642 1.5598 1.98
3269.617 2.06 1.5009 1.1491 1.1916 1.4739 1.6842 1.5825 1.2094 1.1531 1.2572
3288.907 1.2666 1.3297 1.3064 1.4502 1.3585 1.3245 1.4719 1.2767 1.2907 1.2106
3308.197 1.1447 1.5991 1.4533 1.1914 1.1121 1.0381 1.0896 0.7525 0.93508 1.4301
3327.487 1.654 1.5637 1.0571 0.8899 0.86812 0.694 1.4275 1.93 1.712 1.5529
3346.777 1.2252 1.0735 1.1577 1.3926 1.0732 1.0185 1.2883 0.958 0.9833 0.9567
3366.066 0.86146 0.9702 1.0932 1.2674 1.2452 1.0921 0.9473 0.93262 1.2186 1.2602
3385.356 0.90345 1.0746 1.301 1.1207 1.3178 1.6795 1.527 1.0326 0.7444 0.625
3404.646 1.388 1.8375 1.0889 0.665 0.643 0.7823 0.627 0.662 0.9891 0.992
3423.936 1.1945 1.3683 1.2312 1.113 1.3809 1.4728 1.0878 0.9682 0.83476 0.89761
3443.225 1.1481 0.9627 0.64 1.1097 1.3187 0.685 0.523 0.64 0.714 0.652
3462.515 0.383 0.526 1.0044 0.93475 1.0238 1.3261 1.5213 1.576 1.0186 0.557
3481.805 0.7799 0.952 0.83384 0.63 0.7932 1.0172 0.7692 1.0515 1.6882 1.3925
3501.095 1.043 1.371 0.9891 0.9539 1.1861 0.9608 0.9571 0.814 1.0752 0.7743
3520.385 0.572 0.89371 0.9724 1.1895 0.7854 1.1967 1.9 1.6841 1.6273 1.5086
3539.674 1.1017 1.0637 1.2236 1.055 0.9596 0.9457 0.8261 0.86133 1.086 1.2266
3558.964 1.3112 1.5986 1.5484 1.1489 1.0935 1.0805 0.86479 0.74 1.0701 1.1125
3578.254 1.3869 1.4462 1.106 0.93805 0.604 0.7544 0.93423 1.3564 1.3646 0.468
3597.544 0.55 1.0466 1.1336 1.4244 1.6228 1.631 1.1361 1.006 1.1902 1.1518
3616.833 1.0583 0.91034 0.9623 1.0162 1.1266 1.3023 1.129 0.651 0.9731 1.1898
3636.123 0.92316 0.945 0.88189 0.474 0.289 0.9914 1.7253 1.4466 0.716 0.628
3655.413 1.1067 1.0324 0.723 0.581 0.475 0.595 0.86457 1.1553 1.6398 1.7433
3674.703 1.6381 1.6958 1.3294 1.2464 0.9664 0.8017 0.93833 1.2678 1.4159 0.9531
3693.993 1.0842 1.0654 1.0894 1.3913 1.3485 1.2304 0.9592 0.9113 1.0589 1.0727
3713.282 0.85963 0.305 0.605 1.393 1.4698 1.3898 1.1851 0.9247 0.91737 1.1145
3732.572 1.1828 0.9523 1.0125 1.4702 1.2358 1.0527 1.1902 0.85317 0.63 0.86272
3751.862 0.83878 0.378 0.373 0.515 0.472 0.465 0.494 0.628 1.027 1.4184
3771.152 1.1642 0.9982 1.0206 0.396 0 0.245 0.635 0.92237 0.9411 0.725
3790.441 0.9988 1.2731 1.008 0.89264 1.0973 0.727 0.526 0.8137 0.697 0.53
3809.731 0.518 0.7909 0.976 1.0332 1.328 1.3069 1.1544 1.5655 1.505 1.1297
3829.021 0.9524 0.83496 0.314 0.152 0.358 0.339 0.65 1.0311 1.5001 1.4635
3848.311 1.3729 1.2673 1.1733 1.5747 1.5803 1.7166 1.6573 1.0654 0.91966 1.246
3867.601 1.443 1.274 1.086 0.90465 0.88274 0.7844 1.034 1.5243 1.4276 1.2148
3886.890 1.1837 1.2082 1.4104 1.4432 1.5714 1.87 1.85 1.95 1.6397 1.0624
3906.180 0.9779 1.1874 1.6445 1.7861 1.2883 0.9932 1.1443 1.3244 1.3082 0.9761
3925.470 1.2727 1.5979 0.9846 1.0616 1.503 1.385 1.0315 0.87708 1.3379 1.5096
3944.760 1.7009 1.5023 0.9974 1.1066 0.9457 1.1727 1.641 1.2325 1.1707 1.4207
3964.049 1.6585 1.88 1.5184 0.815 0.634 0.669 0.9284 1.4525 1.5068 1.6088
3983.339 1.7316 1.2098 1.3199 1.4903 1.1027 1.1459 1.426 1.85 2.09 2.02
##END=
