##TITLE=4-Cyanophenyl ether
##JCAMP-DX=4.24
##DATA TYPE=INFRARED SPECTRUM
##ORIGIN=EPA-IR VAPOR PHASE LIBRARY
##OWNER=SRD/NIST
Collection (C) 2018 copyright by the U.S. Secretary of Commerce
on behalf of the United States of America. All rights reserved.
##CAS REGISTRY NO=6508-04-9
##MOLFORM=C 14 H 8 N 2 O
##$NIST SOURCE=MSDC-IR
##STATE=gas
##XUNITS=1/CM
##YUNITS=ABSORBANCE
##XFACTOR=1.
##YFACTOR=0.001
##DELTAX=1.92898
##FIRSTX=549.8
##LASTX=4000.7
##FIRSTY=9.864
##MAXX=4000.7
##MINX=549.759
##MAXY=0.193744
##MINY=0
##NPOINTS=1790
##XYDATA=(X++(Y..Y))
549.759 9.864 9.184 8.634 8.124 7.944 7.494 6.924 6.514 6.294 5.654
569.049 5.084 4.744 4.124 3.674 3.054 2.484 2.054 1.754 1.654 1.594
588.339 1.4468 1.0758 0.8962 0.9374 1.06 1.0805 1.0138 1.2335 1.3008 1.0495
607.628 1.0827 1.1742 1.0131 0.8922 0.9359 0.8682 0.8693 0.9456 0.8956 0.8894
626.918 0.8171 0.8485 0.9165 1 1.0041 0.9653 0.9087 0.8383 0.9939 1.0322
646.208 0.9618 0.988 0.9934 1.0504 1.2299 1.0133 0.8093 1.0222 1.2654 1.4138
665.498 1.4096 1.3884 1.3507 1.4581 1.574 1.584 1.884 2.064 1.944 2.074
684.787 1.984 1.934 2.184 2.064 1.884 1.844 1.724 1.704 1.644 1.514
704.077 1.4369 1.3929 1.4124 1.614 1.754 1.614 1.4058 1.2347 1.266 1.34
723.367 1.38 1.604 1.764 1.914 2.134 2.214 2.034 1.884 1.964 1.784
742.657 1.372 1.1339 0.9744 0.9021 1.0506 1.0409 0.9074 1.0183 1.2533 1.1954
761.947 1.1052 1.1387 0.9649 1.0328 1.2474 1.4057 1.544 1.564 1.564 1.594
781.236 1.754 1.844 1.884 2.004 1.994 2.104 2.394 2.434 2.444 2.674
800.526 2.794 2.934 3.264 3.674 4.234 4.684 5.174 5.904 6.794 7.804
819.816 9.124 10.824 12.634 14.414 16.204 17.904 19.604 21.074 21.664 21.424
839.106 20.934 20.104 18.924 18.024 17.454 17.084 17.074 17.354 17.584 17.544
858.395 17.154 17.024 17.474 18.524 20.974 24.634 27.764 28.874 27.524 24.264
877.685 19.554 14.344 10.274 7.934 6.584 5.444 4.634 4.184 3.764 3.424
896.975 3.154 2.924 2.634 2.314 2.164 2.144 2.034 1.804 1.734 1.684
916.265 1.584 1.534 1.514 1.3901 1.3985 1.4729 1.2626 1.1841 1.2538 1.2852
935.555 1.2213 1.0537 1.0322 1.1075 1.086 1.0538 1.1031 1.0699 1.0639 1.022
954.844 0.9584 1.0847 1.0873 0.8711 0.9298 0.9808 0.9283 0.9505 0.9675 1.0608
974.134 1.0859 0.8884 0.7593 0.8453 0.9749 1.15 1.2139 1.0178 0.9241 1.1347
993.424 1.1356 1.0285 1.1284 1.2494 1.2591 1.4195 1.764 2.144 2.964 4.484
1012.714 6.134 6.924 6.664 5.904 4.434 2.604 1.524 0.9871 0.7424 0.6803
1032.003 0.4361 0.4885 0.6991 0.6863 0.56257 0.6327 0.6799 0.6853 0.7516 0.7415
1051.293 0.7922 0.7329 0.6579 0.7006 0.7509 0.6937 0.8279 0.9821 0.954 1.0805
1070.583 1.1368 1.1494 1.0402 1.131 1.2872 1.1946 1.3984 1.554 2.144 2.344
1089.873 2.344 2.844 2.954 3.564 4.144 4.224 4.344 4.114 4.044 3.944
1109.163 3.754 3.834 3.764 3.334 3.134 2.904 2.474 2.484 2.534 2.544
1128.452 2.814 2.824 2.824 2.754 2.714 3.004 3.104 3.304 3.504 4.084
1147.742 4.624 4.964 5.924 6.684 7.554 9.174 11.314 15.274 21.574 28.684
1167.032 33.244 33.924 32.064 26.554 18.644 12.714 9.524 7.944 7.314 6.874
1186.322 6.704 6.944 7.184 7.654 7.874 7.794 7.944 8.064 8.194 8.734
1205.611 9.714 10.594 11.584 13.094 15.154 17.364 19.754 22.244 25.674 29.964
1224.901 34.254 39.734 46.464 54.364 64.034 75.684 89.694 106.754 126.794 148.674
1244.191 169.914 186.414 193.744 189.544 174.064 150.504 123.994 99.594 80.534 67.414
1263.481 58.444 51.964 46.854 42.464 38.554 35.054 32.234 29.804 27.834 26.454
1282.771 25.534 24.654 23.534 22.124 20.604 19.074 17.434 15.964 14.774 13.584
1302.060 12.454 11.254 10.114 9.084 8.034 7.034 6.224 5.574 4.984 4.524
1321.350 4.224 3.914 3.534 3.314 3.094 2.844 2.674 2.464 2.314 2.224
1340.640 2.204 2.174 2.094 2.084 2.054 2.054 2.034 1.994 2.034 2.084
1359.930 2.134 2.154 2.194 2.304 2.374 2.344 2.314 2.314 2.334 2.244
1379.219 2.224 2.234 2.264 2.304 2.274 2.374 2.474 2.544 2.604 2.754
1398.509 2.954 3.154 3.284 3.414 3.594 3.694 3.684 3.634 3.514 3.254
1417.799 3.004 2.854 2.824 2.744 2.654 2.564 2.494 2.444 2.404 2.294
1437.089 2.214 2.324 2.404 2.434 2.414 2.414 2.564 2.694 2.804 2.874
1456.378 2.924 3.214 3.564 3.944 4.454 5.144 6.114 7.334 8.944 11.324
1475.668 14.524 18.904 24.614 32.044 41.614 53.604 68.144 84.734 102.234 117.794
1494.958 128.104 131.074 126.194 115.034 100.104 84.664 70.774 59.804 50.974 42.964
1514.248 35.834 29.544 24.384 20.454 17.524 15.394 13.564 12.164 10.914 9.804
1533.538 8.974 8.224 7.614 7.154 6.754 6.464 6.404 6.404 6.234 6.164
1552.827 6.224 6.254 6.434 6.614 6.854 7.224 7.464 7.754 8.074 8.364
1572.117 8.794 9.244 9.954 11.064 12.674 15.154 18.794 23.944 30.954 39.874
1591.407 49.874 59.244 65.294 65.944 60.914 51.424 39.844 28.754 20.324 15.064
1610.697 12.064 10.114 8.644 7.524 6.584 5.744 5.114 4.704 4.304 3.994
1629.986 3.794 3.554 3.334 3.154 3.104 3.144 3.104 3.024 2.964 2.984
1649.276 3.054 3.014 2.834 2.734 2.694 2.604 2.454 2.354 2.294 2.254
1668.566 2.124 2.044 2.044 1.924 1.844 1.754 1.654 1.594 1.4946 1.4572
1687.856 1.4484 1.4133 1.335 1.22 1.1132 1.0558 0.9717 0.9231 0.9131 0.902
1707.146 0.867 0.8506 0.8854 0.7982 0.7762 0.7451 0.7581 0.8099 0.7844 0.7912
1726.435 0.81 0.836 0.8564 0.7875 0.7418 0.9099 1.007 0.9668 0.8917 0.9282
1745.725 1.0049 1.0008 0.9301 0.885 1.0543 1.1599 1.1938 1.2671 1.3344 1.4364
1765.015 1.524 1.574 1.744 1.974 2.114 2.074 1.944 1.794 1.604 1.4837
1784.305 1.3157 1.1891 1.1282 1.0235 0.9644 0.9854 0.9691 0.9526 0.9395 0.92
1803.594 0.8838 0.8244 0.8553 0.9129 0.9153 0.8928 0.8819 0.8415 0.8219 0.8175
1822.884 0.776 0.6553 0.6308 0.6901 0.7048 0.7575 0.7819 0.7824 0.7736 0.7778
1842.174 0.8098 0.8149 0.8223 0.8339 0.8676 0.8812 0.8817 0.918 0.9673 0.9637
1861.464 0.9249 0.9787 1.0559 1.0651 1.0943 1.2294 1.4164 1.4946 1.584 1.774
1880.754 1.924 2.064 2.214 2.404 2.574 2.744 2.944 3.114 3.244 3.344
1900.043 3.434 3.454 3.354 3.254 3.124 2.984 2.784 2.604 2.444 2.274
1919.333 2.084 1.864 1.714 1.634 1.514 1.4061 1.3697 1.3159 1.261 1.2108
1938.623 1.1665 1.1596 1.198 1.2262 1.2086 1.224 1.2136 1.1797 1.0974 1.0748
1957.913 1.135 1.0959 1.0675 1.077 1.0792 1.0346 1.044 1.0698 1.0391 1.0213
1977.202 1.0238 0.9737 0.9469 1.0037 0.9872 0.9474 0.9812 0.9917 0.9379 0.9338
1996.492 0.9638 0.9226 0.868 0.8654 0.8596 0.8444 0.8547 0.8529 0.8487 0.8909
2015.782 0.8395 0.7901 0.9209 0.9963 1.0263 1.1925 1.3498 1.504 1.694 1.814
2035.072 1.894 1.944 1.904 1.794 1.674 1.634 1.614 1.584 1.534 1.574
2054.362 1.574 1.534 1.4784 1.3996 1.4274 1.4549 1.4685 1.4985 1.534 1.584
2073.651 1.554 1.4428 1.396 1.3497 1.2379 1.1838 1.1186 1.0374 1.0234 0.9843
2092.941 0.9625 0.9798 0.959 0.9765 1.0257 1.0645 1.0786 1.0564 1.0195 1.0389
2112.231 1.0654 1.0099 0.9403 0.8847 0.8241 0.8186 0.7875 0.7594 0.8064 0.789
2131.521 0.7535 0.7511 0.7109 0.6123 0.6132 0.6496 0.6003 0.53439 0.4801 0.4626
2150.810 0.52688 0.58714 0.59814 0.5738 0.56027 0.55256 0.4994 0.55259 0.57456 0.5382
2170.100 0.59252 0.6647 0.6659 0.6793 0.6995 0.6949 0.6987 0.6745 0.6848 0.6804
2189.390 0.6052 0.58226 0.6304 0.6531 0.6955 0.7272 0.7521 0.8472 0.988 1.1071
2208.680 1.17 1.3186 1.534 1.744 2.114 2.674 3.374 4.464 5.894 7.664
2227.970 9.724 11.734 13.224 13.704 13.074 11.484 9.314 7.064 5.154 3.744
2247.259 2.794 2.184 1.734 1.4035 1.1507 1.0439 0.9852 0.8279 0.7749 0.8368
2266.549 0.8548 0.8041 0.7802 0.7796 0.7337 0.7252 0.7685 0.7786 0.7288 0.6737
2285.839 0.6063 0.58394 0.6292 0.687 0.7019 0.6888 0.6555 0.6339 0.6322 0.59372
2305.129 0.576 0.58686 0.59324 0.6297 0.6773 0.714 0.7054 0.7369 0.7917 0.7604
2324.418 0.7756 0.8055 0.8947 0.9271 0.8372 0.8204 0.8288 0.7727 0.7693 0.7685
2343.708 0.7037 0.6994 0.7053 0.7412 0.7941 0.7677 0.7552 0.8542 0.9402 0.9502
2362.998 0.9016 0.9029 0.9156 0.9761 1.0715 1.0978 1.1708 1.206 1.1654 1.1961
2382.288 1.2653 1.2906 1.3532 1.3924 1.3615 1.2975 1.3234 1.4098 1.4943 1.554
2401.578 1.594 1.734 1.824 1.854 1.914 1.964 1.964 1.924 1.854 1.744
2420.867 1.644 1.614 1.574 1.574 1.634 1.654 1.654 1.704 1.834 1.974
2440.157 2.084 2.184 2.174 2.114 2.124 2.104 2.034 1.944 1.744 1.544
2459.447 1.4847 1.4505 1.3763 1.3701 1.4014 1.3868 1.3566 1.315 1.2732 1.3012
2478.737 1.3222 1.2732 1.2654 1.2955 1.277 1.2859 1.261 1.1859 1.1164 1.0059
2498.026 1.0263 1.0783 1.0804 1.0647 1.0316 1.0824 1.2083 1.2654 1.2348 1.1914
2517.316 1.2351 1.2404 1.2091 1.2372 1.2153 1.2215 1.2428 1.2638 1.2882 1.3332
2536.606 1.3604 1.3081 1.3529 1.4044 1.3183 1.3327 1.4367 1.4716 1.4303 1.4154
2555.896 1.3801 1.3654 1.2913 1.1696 1.0362 0.9648 1.0242 1.0403 0.9555 0.8508
2575.186 0.803 0.7761 0.8276 0.7812 0.6996 0.6655 0.6381 0.60394 0.54449 0.52308
2594.475 0.512883 0.58506 0.621 0.57114 0.54221 0.5876 0.60184 0.55038 0.56429 0.54795
2613.765 0.49725 0.4571 0.387 0.338 0.4195 0.4877 0.391 0.374 0.4388 0.4532
2633.055 0.414 0.4052 0.52231 0.54028 0.4696 0.4468 0.4609 0.4919 0.4579 0.4481
2652.345 0.469 0.5605 0.6446 0.58074 0.55076 0.60192 0.6347 0.55682 0.53013 0.58441
2671.634 0.55146 0.6088 0.6961 0.6967 0.7255 0.6797 0.58228 0.6581 0.6961 0.633
2690.924 0.6107 0.59606 0.5721 0.57318 0.57931 0.55161 0.6371 0.6832 0.59321 0.53838
2710.214 0.54216 0.52534 0.50175 0.54606 0.6434 0.6003 0.4589 0.4682 0.4938 0.4244
2729.504 0.49649 0.6096 0.609 0.6072 0.55772 0.52368 0.6045 0.6449 0.60389 0.6479
2748.794 0.7138 0.704 0.6392 0.621 0.6825 0.7292 0.7602 0.7485 0.6573 0.6454
2768.083 0.675 0.7478 0.8083 0.7103 0.6625 0.6925 0.7044 0.6797 0.6671 0.6329
2787.373 0.6377 0.7016 0.7021 0.56773 0.6164 0.686 0.53534 0.55189 0.6321 0.6713
2806.663 0.6738 0.6504 0.6757 0.7217 0.6524 0.59884 0.6117 0.6807 0.803 0.7492
2825.953 0.6742 0.6816 0.6637 0.60179 0.665 0.837 0.7831 0.6558 0.59658 0.52454
2845.242 0.4777 0.52486 0.52613 0.4583 0.4923 0.53234 0.58384 0.7085 0.7041 0.5549
2864.532 0.53789 0.51526 0.51519 0.57566 0.53628 0.401 0.4327 0.4854 0.4166 0.377
2883.822 0.383 0.4876 0.55486 0.51418 0.4326 0.4046 0.505773 0.57422 0.4439 0.349
2903.112 0.4324 0.4726 0.396 0.4127 0.4051 0.347 0.387 0.404 0.4521 0.4775
2922.401 0.376 0.321 0.294 0.322 0.347 0.4178 0.395 0.303 0.29 0.353
2941.691 0.393 0.4137 0.352 0.216 0.233 0.238 0.25 0.279 0.369 0.342
2960.981 0.322 0.401 0.4271 0.49668 0.4053 0.385 0.4812 0.49477 0.4806 0.57234
2980.271 0.59755 0.4708 0.4246 0.4953 0.52229 0.49893 0.58251 0.56229 0.4626 0.4492
2999.561 0.454 0.4592 0.4374 0.4655 0.52073 0.4429 0.4 0.367 0.35 0.329
3018.850 0.369 0.4573 0.507229 0.55618 0.58347 0.708 0.7492 0.764 0.8873 0.9584
3038.140 1.1021 1.4226 1.744 2.044 2.454 2.954 3.274 3.524 3.524 3.254
3057.430 2.914 2.384 1.934 1.684 1.4743 1.3898 1.4454 1.4306 1.339 1.2267
3076.720 1.2151 1.3948 1.4744 1.4088 1.3694 1.2918 1.3137 1.354 1.4111 1.4742
3096.009 1.3629 1.3753 1.514 1.544 1.4891 1.3847 1.4226 1.4082 1.377 1.2547
3115.299 1.079 1.0999 1.0684 1.0537 0.9427 0.8593 0.7855 0.53476 0.5524 0.53873
3134.589 0.4477 0.5305 0.54546 0.624 0.6966 0.58962 0.4616 0.4244 0.53691 0.6081
3153.879 0.56896 0.58138 0.509114 0.4367 0.4808 0.4543 0.4742 0.4829 0.4988 0.4523
3173.169 0.27 0.346 0.507644 0.4806 0.4515 0.4324 0.469 0.4892 0.381 0.4276
3192.458 0.510329 0.53069 0.53226 0.505163 0.52845 0.4938 0.4804 0.59324 0.57734 0.433
3211.748 0.4146 0.4086 0.4585 0.4811 0.399 0.4096 0.32 0.311 0.367 0.262
3231.038 0.297 0.327 0.377 0.323 0.27 0.402 0.377 0.391 0.304 0.171
3250.328 0.249 0.357 0.353 0.343 0.328 0.328 0.307 0.327 0.505202 0.436
3269.617 0.346 0.353 0.367 0.367 0.266 0.231 0.348 0.4583 0.347 0.318
3288.907 0.374 0.344 0.289 0.239 0.323 0.395 0.363 0.331 0.35 0.379
3308.197 0.4104 0.357 0.276 0.333 0.363 0.336 0.326 0.354 0.246 0.194
3327.487 0.244 0.318 0.4623 0.377 0.254 0.259 0.355 0.348 0.277 0.296
3346.777 0.322 0.318 0.351 0.346 0.285 0.353 0.391 0.385 0.313 0.302
3366.066 0.357 0.329 0.377 0.339 0.351 0.323 0.307 0.357 0.315 0.346
3385.356 0.35 0.358 0.39 0.4622 0.49832 0.4288 0.393 0.57986 0.7145 0.6293
3404.646 0.54036 0.4625 0.57868 0.76 0.8087 0.8715 0.828 0.7493 0.7668 0.8469
3423.936 0.808 0.8041 0.9193 0.819 0.7606 0.7531 0.6148 0.55468 0.54867 0.54614
3443.225 0.6222 0.51788 0.394 0.52955 0.53181 0.4182 0.4822 0.4658 0.276 0.384
3462.515 0.471 0.4055 0.4907 0.52383 0.4175 0.338 0.398 0.379 0.392 0.54707
3481.805 0.59138 0.55166 0.4567 0.4401 0.511316 0.393 0.332 0.348 0.392 0.4636
3501.095 0.385 0.313 0.302 0.298 0.303 0.326 0.358 0.369 0.327 0.315
3520.385 0.361 0.334 0.316 0.356 0.248 0.299 0.431 0.4146 0.371 0.386
3539.674 0.4735 0.41 0.276 0.181 0.219 0.392 0.4381 0.301 0.36 0.367
3558.964 0.155 0.164 0.234 0.265 0.337 0.346 0.4079 0.379 0.305 0.287
3578.254 0.081 0 0.201 0.283 0.292 0.208 0.229 0.4208 0.38 0.342
3597.544 0.449 0.54169 0.376 0.329 0.4083 0.344 0.316 0.218 0.245 0.247
3616.833 0.227 0.249 0.293 0.313 0.308 0.298 0.264 0.291 0.298 0.277
3636.123 0.33 0.402 0.393 0.231 0.175 0.181 0.173 0.252 0.273 0.241
3655.413 0.262 0.46 0.53364 0.52178 0.399 0.299 0.308 0.2 0.324 0.4506
3674.703 0.29 0.184 0.271 0.4404 0.4917 0.382 0.277 0.279 0.4321 0.4576
3693.993 0.4045 0.378 0.309 0.364 0.372 0.185 0.186 0.4677 0.4477 0.313
3713.282 0.287 0.282 0.353 0.313 0.258 0.253 0.267 0.31 0.347 0.384
3732.572 0.4393 0.4247 0.451 0.52625 0.4401 0.4096 0.4 0.4511 0.53751 0.373
3751.862 0.312 0.393 0.295 0.289 0.4864 0.49416 0.4363 0.469 0.292 0.25
3771.152 0.365 0.4111 0.342 0.29 0.488 0.4634 0.332 0.381 0.327 0.312
3790.441 0.353 0.385 0.4849 0.4877 0.393 0.369 0.4658 0.55225 0.4526 0.469
3809.731 0.58649 0.50046 0.474 0.56155 0.53558 0.4249 0.4093 0.4108 0.359 0.508138
3829.021 0.6566 0.60379 0.6821 0.7306 0.6588 0.54557 0.50834 0.56787 0.55113 0.54431
3848.311 0.403 0.36 0.4483 0.4832 0.507731 0.49459 0.4825 0.4206 0.334 0.4141
3867.601 0.4104 0.358 0.376 0.382 0.4302 0.371 0.356 0.344 0.261 0.255
3886.890 0.4651 0.58221 0.4109 0.368 0.393 0.382 0.4343 0.412 0.304 0.201
3906.180 0.319 0.4757 0.399 0.384 0.382 0.4859 0.4404 0.265 0.255 0.155
3925.470 0.074 0.204 0.403 0.22 0.151 0.19 0.159 0.4083 0.4349 0.282
3944.760 0.262 0.254 0.177 0.296 0.4471 0.312 0.185 0.191 0.246 0.196
3964.049 0.208 0.233 0.35 0.369 0.262 0.379 0.252 0.073 0.027 0.09
3983.339 0.241 0.356 0.184 0.105 0.206 0.322 0.56097 0.51901 0.53531 0.439
##END=
