##TITLE=2,3,4,5,6-Pentafluoroacetophenone
##JCAMP-DX=4.24
##DATA TYPE=INFRARED SPECTRUM
##ORIGIN=EPA-IR VAPOR PHASE LIBRARY
##OWNER=SRD/NIST
Collection (C) 2018 copyright by the U.S. Secretary of Commerce
on behalf of the United States of America. All rights reserved.
##CAS REGISTRY NO=652-29-9
##MOLFORM=C 8 H 3 F 5 O
##$NIST SOURCE=MSDC-IR
##STATE=gas
##XUNITS=1/CM
##YUNITS=ABSORBANCE
##XFACTOR=1.
##YFACTOR=0.001
##DELTAX=1.92934
##FIRSTX=549.9
##LASTX=3999.5
##FIRSTY=13.69
##MAXX=3999.53
##MINX=549.863
##MAXY=0.73441
##MINY=0
##NPOINTS=1789
##XYDATA=(X++(Y..Y))
549.863 13.69 14.42 15.5 17.04 19.03 21.42 24.48 27.99 31.23 34.08
569.156 36.05 36.55 35.7 33.87 31.51 28.5 25.26 23.14 23 25.17
588.450 30.46 39.41 50.13 58.88 63.81 67.04 66.64 62.44 57.06 47.8
607.743 35.82 25.43 18.31 13.93 11.36 9.71 8.55 7.78 7.22 6.87
627.037 6.5389 6.2741 6.0418 5.9362 5.8749 5.83612 5.963 5.8917 5.8687 6.168
646.330 6.4453 6.7198 7.11 7.58 8.26 9.12 9.95 10.79 11.54 11.81
665.624 11.61 11.12 10.23 9.21 8.03 6.81 5.80288 4.991 4.47 4.11
684.917 3.73 3.44 3.29 3.25 3.17 3.14 3.08 3.02 3.02 2.99
704.210 2.81 2.68 2.79 2.87 2.87 2.89 2.93 3.03 3.11 3.21
723.504 3.4 3.6 3.83 4.19 4.62 5.048 5.366 5.7214 5.7096 5.307
742.797 4.955 4.59 4.21 3.91 3.77 3.53 3.33 3.32 3.23 3.1
762.091 3.14 3.23 3.23 3.22 3.2 3.29 3.41 3.5 3.55 3.61
781.384 3.67 3.73 3.72 3.63 3.71 3.85 3.88 3.89 3.92 3.95
800.678 3.99 4.01 4.01 3.97 4.03 4.14 4.17 4.35 4.65 4.86
819.971 5.132 5.41 5.716 6.1615 6.6531 7.25 8.02 9.09 10.54 12.57
839.264 15.7 20.53 27.73 37.92 51.38 67.3 83.57 97.76 108.25 114.25
858.558 115.01 109.85 98.77 82.67 64.48 48.61 37.33 29.97 25.17 21.89
877.851 19.38 17.43 15.86 14.56 13.6 12.75 12.08 11.69 11.34 11.03
897.145 10.76 10.49 10.19 9.78 9.55 9.34 9.09 9.03 9.11 9.22
916.438 9.47 9.91 10.4 10.99 11.71 12.57 13.63 14.89 16.44 18.38
935.732 20.94 24.18 28.15 33.09 39.05 46.06 54.16 63.45 73.92 85.36
955.025 97.37 109.36 120.91 131.57 141.09 149.39 156.47 162.28 166.65 169.91
974.318 172.37 174.16 175.44 176.01 175.47 173.69 170.53 165.71 159.23 151.42
993.612 142.72 133.48 123.98 114.56 105.55 97.28 90.1 83.94 78.82 74.81
1012.905 71.76 69.69 68.72 69.04 70.56 73.17 77.02 81.97 87.32 92.23
1032.199 95.85 97.89 98.61 97.82 94.73 89.27 82.25 74.56 66.84 59.54
1051.492 52.85 46.87 41.72 37.42 34.04 31.62 30.18 29.73 30.58 33.09
1070.786 37.68 45.02 55.82 70.57 88.72 108.1 125.61 138.84 146.86 148.91
1090.079 144.38 133.81 117.88 98.49 79.52 63.92 52.19 43.61 37.28 32.58
1109.372 29.1 26.51 24.56 23.16 22.15 21.37 20.79 20.45 20.38 20.53
1128.666 20.9 21.41 22.11 22.96 24.16 25.76 27.8 30.15 32.5 34.75
1147.959 36.65 38.2 39.51 40.41 40.94 41.41 42.24 43.9 46.61 50.6
1167.253 56.12 63.54 73.46 86.92 105.19 130.11 163.21 204.77 253.08 302.18
1186.546 344.03 372.08 383.1 375.77 349.5 306.7 251.44 190.54 135.82 96.58
1205.840 72.74 59.16 51.04 45.52 41.1 37.12 33.21 29.43 25.83 22.52
1225.133 19.8 17.63 16.1 15.12 14.35 13.74 13.3 12.91 12.8 12.77
1244.426 12.7 12.62 12.53 12.49 12.53 12.59 12.62 12.71 12.75 12.76
1263.720 12.84 12.9 12.91 12.93 12.99 13.09 13.22 13.33 13.41 13.44
1283.013 13.46 13.61 13.99 14.65 15.79 17.57 20.27 24.29 30.16 38.73
1302.307 51.1 68.49 91.96 121.88 156.87 193.18 225.35 247.81 257.36 253.38
1321.600 236.61 208.75 172.38 131.68 93.29 63.95 45.77 36.04 31.24 29.03
1340.894 28.25 28.5 29.6 31.59 34.55 38.69 44.09 50.74 58.21 65.68
1360.187 72.32 77.44 79.81 78.54 74.54 68.74 61.71 54.57 48.76 45.25
1379.480 44.18 45.54 49.02 54.12 60.57 67.61 74.66 81.64 88.46 94.67
1398.774 99.8 103.92 106.89 108.44 108.1 105.7 101.44 95.65 88.74 80.75
1418.067 72.13 63.42 56.25 51.23 48.2 46.58 45.64 44.94 44.19 43.39
1437.361 42.39 41.27 40.26 39.36 38.75 38.52 38.76 39.58 41.1 43.4
1456.654 46.87 51.34 56.87 64.19 74 86.74 103.07 124.5 152.82 189.53
1475.948 234.3 289.59 353.84 427.01 504.05 579.68 647.03 698.86 729.09 734.41
1495.241 713.73 671.96 614.67 547.84 481.05 425.57 387.13 370.67 371.16 380.32
1514.534 389.62 392.26 384.32 363.7 329.56 287.99 240.52 194.04 154.34 123.77
1533.828 100.96 84.34 72.27 62.12 53.61 46.83 41.31 36.85 33.28 30.36
1553.121 28.05 26.06 24.61 23.42 22.17 21.29 20.82 20.54 20.54 20.68
1572.415 20.93 21.41 22.07 22.72 23.46 24.38 25.41 26.41 27.35 28.18
1591.708 28.8 29.22 29.43 29.43 29.16 28.74 28.37 28.11 28.03 28.08
1611.002 28.26 28.7 29.65 31.1 33 35.71 39.54 44.44 50.36 57.74
1630.295 66.38 76.23 87.15 98.86 109.55 118.04 123.35 124.44 121.08 113.8
1649.588 103.65 91.49 76.86 62.98 51.19 41.38 34.2 29.16 25.72 23.38
1668.882 21.98 21.09 20.74 20.88 21.32 22.04 23.26 24.83 26.79 28.92
1688.175 31.17 33.73 36.48 39.35 42.37 45.18 48.06 50.99 53.72 56.95
1707.469 60.6 65.05 70.72 78.17 88.11 101.35 118.32 137.95 160.51 184.53
1726.762 207.81 228.03 243.33 250.79 247.94 235.33 215.26 190.49 165.44 141.52
1746.056 120.53 103.19 89.65 79.17 71.31 65.24 59.97 55.35 51.03 46.82
1765.349 42.87 39.2 35.73 32.58 29.66 27.15 24.99 23.22 21.79 20.59
1784.642 19.57 18.59 17.71 16.91 16.15 15.36 14.61 13.97 13.5 13.14
1803.936 12.82 12.46 12.07 11.54 10.95 10.34 9.72 9.05 8.39 7.81
1823.229 7.33 6.94 6.6271 6.3798 6.1625 5.9865 5.80452 5.6646 5.556 5.415
1842.523 5.321 5.301 5.248 5.17 5.116 5.076 5.075 5.045 5.036 5.038
1861.816 5.03 5.037 5.044 5.059 5.107 5.099 4.994 4.88 4.78 4.7
1881.110 4.63 4.54 4.47 4.44 4.39 4.35 4.31 4.26 4.3 4.35
1900.403 4.36 4.43 4.54 4.61 4.74 4.905 5.029 5.115 5.183 5.239
1919.696 5.208 5.128 5.035 4.935 4.824 4.69 4.52 4.38 4.33 4.27
1938.990 4.21 4.18 4.15 4.12 4.11 4.11 4.09 4.13 4.13 4.15
1958.283 4.17 4.19 4.26 4.28 4.27 4.26 4.25 4.29 4.41 4.5
1977.577 4.57 4.66 4.752 4.796 4.85 4.913 4.946 5.004 5.136 5.278
1996.870 5.363 5.465 5.583 5.6805 5.7101 5.7053 5.6641 5.565 5.43 5.23
2016.164 5.033 4.84 4.67 4.57 4.47 4.39 4.36 4.33 4.3 4.32
2035.457 4.36 4.4 4.44 4.5 4.61 4.69 4.765 4.869 5.008 5.199
2054.750 5.307 5.337 5.404 5.493 5.529 5.525 5.471 5.383 5.313 5.21
2074.044 5.093 4.987 4.892 4.805 4.73 4.7 4.7 4.65 4.58 4.58
2093.337 4.61 4.52 4.4 4.37 4.32 4.27 4.23 4.2 4.2 4.2
2112.631 4.2 4.25 4.25 4.23 4.22 4.22 4.21 4.18 4.23 4.26
2131.924 4.24 4.27 4.27 4.24 4.23 4.19 4.15 4.15 4.15 4.11
2151.218 4.1 4.09 4.06 4.06 4.08 4.14 4.18 4.17 4.16 4.21
2170.511 4.24 4.26 4.28 4.27 4.27 4.3 4.26 4.19 4.16 4.17
2189.804 4.18 4.14 4.1 4.1 4.13 4.16 4.25 4.36 4.46 4.55
2209.098 4.64 4.783 4.887 4.895 4.91 4.95 4.948 4.89 4.857 4.816
2228.391 4.68 4.58 4.5 4.41 4.3 4.22 4.15 4.04 3.99 3.88
2247.685 3.74 3.7 3.64 3.56 3.56 3.59 3.64 3.71 3.77 3.79
2266.978 3.82 3.85 3.91 3.96 3.95 3.97 3.93 3.83 3.79 3.77
2286.272 3.7 3.6 3.53 3.47 3.41 3.39 3.44 3.49 3.5 3.48
2305.565 3.48 3.5 3.54 3.56 3.59 3.62 3.61 3.69 3.8 3.88
2324.858 3.93 3.98 4.06 4.12 4.16 4.22 4.33 4.42 4.46 4.47
2344.152 4.55 4.62 4.62 4.71 4.79 4.836 4.911 5.011 5.084 5.165
2363.445 5.266 5.374 5.523 5.695 5.814 5.857 5.852 5.8618 5.8576 5.859
2382.739 5.8533 5.81207 5.74314 5.6644 5.635 5.609 5.638 5.7081 5.7328 5.6658
2402.032 5.609 5.596 5.523 5.418 5.313 5.195 5.003 4.804 4.7 4.6
2421.326 4.52 4.48 4.46 4.44 4.44 4.45 4.53 4.62 4.69 4.74
2440.619 4.831 4.99 5.086 5.177 5.341 5.596 5.83641 6.0643 6.3179 6.5662
2459.912 6.7137 6.85 6.97 6.96 6.87 6.6822 6.4333 6.1354 5.77517 5.481
2479.206 5.211 4.969 4.889 4.838 4.799 4.792 4.768 4.74 4.753 4.767
2498.499 4.756 4.777 4.784 4.829 4.831 4.753 4.71 4.63 4.56 4.54
2517.793 4.48 4.47 4.45 4.39 4.31 4.3 4.31 4.32 4.35 4.41
2537.086 4.47 4.46 4.52 4.57 4.56 4.58 4.6 4.58 4.56 4.57
2556.380 4.58 4.53 4.49 4.41 4.38 4.48 4.51 4.52 4.57 4.66
2575.673 4.7 4.795 4.902 4.959 5.065 5.148 5.183 5.237 5.323 5.37
2594.966 5.377 5.401 5.434 5.426 5.386 5.359 5.212 4.989 4.889 4.74
2614.260 4.6 4.58 4.55 4.51 4.57 4.66 4.73 4.845 4.896 5.009
2633.553 5.174 5.295 5.331 5.247 5.191 5.181 5.109 5.059 5.029 4.887
2652.847 4.805 4.792 4.796 4.838 4.923 5.007 5.018 4.943 4.852 4.74
2672.140 4.6 4.41 4.28 4.11 3.95 3.89 3.87 3.81 3.67 3.61
2691.434 3.59 3.5 3.46 3.53 3.6 3.52 3.46 3.4 3.35 3.43
2710.727 3.4 3.28 3.17 3.12 3.05 2.98 2.97 3.01 3 2.96
2730.020 2.91 2.87 2.85 2.77 2.82 2.89 2.88 2.86 2.77 2.72
2749.314 2.69 2.67 2.61 2.56 2.58 2.61 2.6 2.59 2.63 2.66
2768.607 2.58 2.47 2.44 2.39 2.34 2.32 2.31 2.29 2.22 2.15
2787.901 2.12 2.13 2.14 2.03 1.97 2.02 2.02 1.94 1.93 1.97
2807.194 1.96 2 2.02 2.01 2.02 2.05 2.17 2.28 2.3 2.29
2826.488 2.27 2.27 2.43 2.5 2.38 2.39 2.42 2.36 2.37 2.29
2845.781 2.2 2.21 2.09 1.95 1.93 1.88 1.8 1.91 1.93 1.82
2865.074 1.83 1.93 2 2.08 2.16 2.2 2.26 2.35 2.43 2.6
2884.368 2.75 2.78 2.95 3.14 3.18 3.29 3.41 3.47 3.59 3.64
2903.661 3.64 3.71 3.83 3.91 3.93 3.94 3.98 4.01 4.05 4.16
2922.955 4.21 4.27 4.29 4.24 4.24 4.21 4.12 4.08 4.02 3.9
2942.248 3.83 3.66 3.41 3.18 3.03 3.01 3.04 2.9 2.74 2.7
2961.542 2.68 2.64 2.65 2.54 2.56 2.67 2.82 2.99 2.96 3.01
2980.835 3.09 3.26 3.31 3.28 3.48 3.57 3.69 3.94 4.09 4.29
3000.128 4.65 5.013 5.377 5.9092 6.5009 7.03 7.5 7.96 8.3 8.34
3019.422 8.13 7.89 7.42 6.7136 6.1431 5.515 5.009 4.7 4.3 3.98
3038.715 3.63 3.41 3.26 2.84 2.58 2.63 2.49 2.32 2.17 2.13
3058.009 2.05 1.95 1.92 1.81 1.77 1.72 1.77 1.81 1.87 2
3077.302 1.99 1.96 2.03 1.96 1.86 1.82 1.81 1.88 1.87 1.85
3096.596 1.76 1.59 1.72 1.75 1.68 1.63 1.51 1.47 1.54 1.63
3115.889 1.72 1.7 1.62 1.65 1.63 1.58 1.53 1.54 1.47 1.49
3135.182 1.49 1.26 1.12 1.1 1.02 0.94 0.9 0.86 0.83 0.66
3154.476 0.51 0.55 0.55 0.37 0.24 0.26 0.28 0.29 0.27 0.28
3173.769 0.2 0.06 0.03 0.2 0.1 0 0.23 0.33 0.2 0.14
3193.063 0.23 0.16 0.21 0.26 0.21 0.2 0.03 0.1 0.25 0.16
3212.356 0.27 0.29 0.26 0.34 0.33 0.3 0.29 0.31 0.3 0.28
3231.650 0.29 0.3 0.34 0.33 0.36 0.38 0.26 0.28 0.36 0.37
3250.943 0.45 0.35 0.31 0.4 0.36 0.42 0.55 0.58 0.57 0.54
3270.236 0.42 0.41 0.47 0.52 0.43 0.47 0.68 0.57 0.54 0.64
3289.530 0.61 0.54 0.49 0.34 0.31 0.44 0.47 0.62 0.68 0.54
3308.823 0.6 0.65 0.72 0.78 0.6 0.6 0.74 0.8 0.85 0.79
3328.117 0.78 0.81 0.64 0.54 0.68 0.76 0.72 0.7 0.78 0.86
3347.410 0.93 0.93 0.94 0.96 1 1.1 1.05 1.14 1.11 1.04
3366.704 1.07 1.2 1.23 1.18 1.25 1.25 1.33 1.35 1.32 1.44
3385.997 1.5 1.6 1.73 1.58 1.63 1.71 1.64 1.84 1.87 1.99
3405.290 2.16 2.18 2.31 2.38 2.38 2.37 2.6 2.73 2.88 3.21
3424.584 3.41 3.65 3.97 4.21 4.46 4.79 5.275 5.6759 5.75041 5.8842
3443.877 6.0362 6.0074 5.9843 5.8652 5.7002 5.542 5.187 4.72 4.28 3.87
3463.171 3.63 3.54 3.45 3.24 3 2.95 3.04 3 2.92 2.79
3482.464 2.65 2.67 2.74 2.7 2.49 2.36 2.49 2.51 2.48 2.48
3501.758 2.36 2.21 2.33 2.41 2.35 2.35 2.34 2.41 2.38 2.34
3521.051 2.33 2.33 2.25 2.16 2.39 2.39 2.22 2.28 2.24 2.18
3540.344 2.26 2.31 2.32 2.23 2.16 2.2 2.12 2.24 2.34 2.23
3559.638 2.14 2.13 2.3 2.36 2.28 2.3 2.27 2.27 2.42 2.36
3578.931 2.23 2.25 2.29 2.4 2.42 2.41 2.44 2.5 2.46 2.3
3598.225 2.32 2.42 2.34 2.25 2.3 2.42 2.47 2.49 2.56 2.54
3617.518 2.5 2.53 2.58 2.63 2.51 2.45 2.55 2.6 2.63 2.63
3636.812 2.62 2.56 2.63 2.67 2.63 2.67 2.63 2.64 2.64 2.54
3656.105 2.57 2.64 2.67 2.67 2.68 2.72 2.74 2.82 2.82 2.71
3675.398 2.73 2.76 2.82 2.82 2.88 2.92 2.78 2.76 2.83 2.75
3694.692 2.74 2.85 2.89 2.96 2.99 2.89 2.8 2.83 2.89 2.85
3713.985 2.87 2.94 2.83 2.74 2.82 2.71 2.67 2.78 2.85 2.96
3733.279 2.97 2.97 2.97 2.96 2.94 2.95 2.98 2.96 2.98 3.09
3752.572 3.18 3.1 3.05 3 2.99 2.94 2.91 3.07 3.03 2.96
3771.866 3.02 3 3.07 3.16 3.04 2.97 3.01 3 3.02 3
3791.159 2.93 2.92 3.02 3.07 3.02 3.05 3.02 2.99 3.09 3.12
3810.452 3.09 3.01 2.98 3.01 3.04 3.09 3.08 3.03 3.04 3.1
3829.746 3.12 3.15 3.25 3.31 3.18 3.07 3.11 3.06 3.01 3.01
3849.039 3.01 3.08 3.08 2.92 2.92 3.07 3.1 3.08 3.03 3.06
3868.333 3.12 3.07 3.14 3.23 3.18 3.16 3.13 3.12 3.19 3.17
3887.626 3.18 3.25 3.22 3.14 3.09 3.1 3.21 3.23 3.18 3.2
3906.920 3.1 3.01 3.08 3.15 3.27 3.3 3.28 3.32 3.32 3.29
3926.213 3.31 3.33 3.16 3.09 3.24 3.14 2.96 3.02 3.11 3.08
3945.506 3.09 3.17 3.22 3.21 3.12 3.15 3.16 3.14 3.15 3.21
3964.800 3.23 3.21 3.15 3.15 3.17 3.24 3.3 3.3 3.3 3.22
3984.093 3.19 3.19 3.22 3.29 3.18 3.08 3.1 3.18 3.22
##END=
