##TITLE=1-Bromo-2,6-diethylbenzene
##JCAMP-DX=4.24
##DATA TYPE=INFRARED SPECTRUM
##ORIGIN=EPA-IR VAPOR PHASE LIBRARY
##OWNER=SRD/NIST
Collection (C) 2018 copyright by the U.S. Secretary of Commerce
on behalf of the United States of America. All rights reserved.
##CAS REGISTRY NO=65232-57-7
##MOLFORM=C 10 H 13 Br
##$NIST SOURCE=MSDC-IR
##STATE=gas
##XUNITS=1/CM
##YUNITS=ABSORBANCE
##XFACTOR=1.
##YFACTOR=0.001
##DELTAX=1.92898
##FIRSTX=549.8
##LASTX=4000.7
##FIRSTY=1.969
##MAXX=4000.7
##MINX=549.759
##MAXY=0.130009
##MINY=0
##NPOINTS=1790
##XYDATA=(X++(Y..Y))
549.759 1.969 1.689 1.599 1.809 1.789 2.029 2.699 3.199 3.199 3.249
569.049 2.959 2.629 2.579 2.509 2.429 1.749 1.359 2.009 2.339 2.059
588.339 1.979 2.099 2.669 2.689 2.269 2.719 2.779 2.439 2.449 2.469
607.628 2.519 2.249 2.089 2.219 2.439 2.329 1.979 2.369 2.349 2.029
626.918 1.939 1.819 1.809 1.919 1.759 1.429 1.309 1.209 1.209 1.329
646.208 1.279 1.1836 1.289 1.579 1.519 1.359 1.509 1.269 1.1322 1.112
665.498 1.279 1.389 1.1656 1.1097 0.9116 0.9028 1.0388 1.1337 1.0409 1.0079
684.787 1.0517 1.319 1.459 1.469 1.659 1.789 1.819 1.759 2.249 2.699
704.077 2.959 3.999 5.609 6.949 8.199 10.119 12.469 14.749 16.599 18.569
723.367 20.619 21.879 22.259 21.829 21.309 21.229 21.679 22.129 22.209 22.069
742.657 21.559 21.099 20.169 18.149 16.709 15.819 14.709 13.939 12.999 12.199
761.947 11.949 12.039 12.549 13.539 14.699 15.989 17.729 19.679 22.059 24.759
781.236 26.849 28.079 28.579 28.709 28.469 27.589 26.659 25.389 23.009 20.489
800.526 18.629 16.539 14.779 13.089 11.259 9.699 8.139 7.149 6.409 5.719
819.816 5.039 4.489 4.189 3.529 3.189 3.269 3.049 2.739 2.699 2.619
839.106 2.389 2.339 2.529 2.839 3.099 3.449 3.589 3.959 4.829 5.399
858.395 5.489 5.689 5.929 5.809 5.669 5.429 5.029 4.569 3.969 3.349
877.685 2.989 2.629 2.309 2.169 2.189 2.059 1.739 2.049 2.149 1.589
896.975 1.1658 1.259 1.429 1.499 1.589 1.449 1.329 1.269 1.339 1.479
916.265 1.379 1.389 1.349 1.289 1.199 1.1215 1.1551 1.439 1.719 1.529
935.555 1.409 1.339 1.479 1.829 1.759 1.759 1.829 1.859 2.049 2.129
954.844 2.199 2.239 2.099 2.249 2.669 2.599 2.499 2.719 2.919 2.959
974.134 3.029 3.089 3.359 4.289 4.889 5.199 6.339 7.699 8.939 10.139
993.424 11.249 12.409 13.469 14.699 15.709 17.149 19.159 21.429 24.679 28.249
1012.714 32.289 36.919 41.459 44.819 46.709 47.049 46.029 43.759 39.669 34.059
1032.003 28.279 23.429 20.329 18.729 17.389 16.869 16.809 16.549 16.809 17.169
1051.293 17.699 16.969 15.389 14.909 14.459 13.499 12.779 11.799 11.239 11.419
1070.583 10.799 10.219 9.369 8.499 7.529 6.479 5.539 4.409 4.519 4.829
1089.873 4.179 3.609 3.139 2.689 3.119 3.509 2.859 2.029 2.019 2.669
1109.163 2.779 2.599 2.949 3.549 3.079 2.339 2.459 2.529 2.349 2.799
1128.452 2.569 1.909 2.439 2.419 1.809 1.659 1.839 2.399 2.879 2.799
1147.742 1.619 0.5843 1.429 1.909 1.1581 0.738 0.845 1.599 2.529 2.809
1167.032 2.459 1.909 1.649 1.939 1.959 1.409 1.1058 1.399 1.469 1.439
1186.322 0.7822 0.203364 1.0906 1.989 2.089 1.869 1.879 1.839 2.549 3.589
1205.611 2.959 1.979 1.839 1.469 1.759 2.109 1.999 2.259 2.309 1.919
1224.901 1.899 2.989 3.199 2.709 2.669 2.389 3.009 3.419 3.679 3.839
1244.191 3.519 3.769 3.969 3.849 3.919 3.969 3.799 3.679 3.619 3.529
1263.481 3.389 3.489 3.559 3.529 3.359 3.409 3.439 3.279 3.509 3.719
1282.771 3.589 3.649 3.789 3.699 3.589 3.819 4.039 4.069 4.159 4.469
1302.060 4.689 5.049 5.489 5.869 6.489 6.989 7.379 8.049 8.809 9.259
1321.350 9.719 9.779 9.539 9.449 9.089 8.579 7.899 7.189 6.639 6.099
1340.640 5.629 5.199 4.749 4.479 4.279 3.999 3.889 3.979 4.009 4.079
1359.930 4.339 4.659 5.049 5.669 6.439 7.139 7.899 8.809 9.919 10.899
1379.219 11.249 11.009 10.659 10.319 9.849 9.319 8.649 8.009 7.709 7.729
1398.509 7.999 8.289 8.899 9.919 11.169 12.839 15.029 17.739 20.719 23.979
1417.799 27.119 29.659 31.599 32.759 33.059 32.569 31.269 29.169 26.599 24.029
1437.089 22.029 20.849 20.409 20.769 21.699 23.209 25.159 27.579 30.379 32.999
1456.378 35.519 37.709 39.059 39.669 39.349 37.879 35.489 32.389 28.549 24.499
1475.668 20.769 17.219 14.169 11.689 9.799 8.369 7.309 6.539 5.909 5.359
1494.958 4.969 4.679 4.459 4.289 4.149 4.119 4.059 3.959 3.899 3.629
1514.248 3.469 3.399 3.169 2.989 2.899 2.949 2.839 2.749 2.779 2.589
1533.538 2.529 2.479 2.299 2.309 2.339 2.309 2.399 2.499 2.499 2.519
1552.827 2.779 3.079 3.349 3.799 4.319 4.809 5.269 5.739 6.179 6.689
1572.117 7.279 7.839 8.329 8.719 9.029 9.109 9.109 8.989 8.649 8.179
1591.407 7.489 6.659 5.909 5.179 4.409 3.869 3.329 2.909 2.579 2.369
1610.697 2.409 2.429 2.229 2.029 2.049 2.079 2.029 2.059 2.099 2.169
1629.986 2.159 1.879 1.859 2.029 2.059 2.079 2.019 1.919 1.879 1.919
1649.276 1.879 1.819 1.799 1.789 1.809 1.849 1.729 1.609 1.809 2.019
1668.566 2.089 2.079 2.049 2.129 2.309 2.429 2.459 2.479 2.349 2.219
1687.856 2.009 1.809 1.729 1.549 1.469 1.439 1.489 1.429 1.269 1.209
1707.146 1.1309 1.199 1.239 1.0783 1.0232 0.935 0.8006 0.8232 0.8882 0.7564
1726.435 0.702 0.8513 0.8524 0.928 0.9603 0.8946 0.9688 0.9687 0.97 0.8664
1745.725 0.7552 0.8294 0.8564 0.8161 0.7869 0.6751 0.572 0.656 0.8207 0.9307
1765.015 0.9683 0.9307 1.0034 1.1819 1.329 1.379 1.419 1.669 1.829 1.799
1784.305 1.849 1.839 1.709 1.489 1.309 1.239 1.0606 0.8773 0.7815 0.704
1803.594 0.6796 0.6259 0.6224 0.5821 0.5645 0.5734 0.5944 0.6382 0.6965 0.7891
1822.884 0.8036 0.8038 0.8597 0.7452 0.6966 0.9091 0.9944 1.1156 1.319 1.539
1842.174 1.829 2.159 2.499 2.879 3.229 3.279 3.129 2.989 2.749 2.439
1861.464 2.139 1.829 1.459 1.1059 0.8635 0.722 0.7405 0.6775 0.534 0.5711
1880.754 0.5686 0.4848 0.5403 0.5754 0.5568 0.5073 0.5495 0.7108 0.7075 0.6706
1900.043 0.7871 0.8997 1.07 1.259 1.329 1.449 1.779 2.269 2.729 3.139
1919.333 3.459 3.649 3.699 3.509 3.229 2.989 2.689 2.169 1.619 1.259
1938.623 1.0129 0.8397 0.6262 0.5537 0.7016 0.6466 0.5698 0.507 0.5003 0.6403
1957.913 0.5632 0.4698 0.4533 0.4292 0.4615 0.4963 0.4975 0.5538 0.5417 0.4096
1977.202 0.3259 0.4235 0.4795 0.4937 0.5777 0.6181 0.5496 0.4716 0.4763 0.4977
1996.492 0.611 0.5975 0.5506 0.646 0.6476 0.4797 0.4878 0.6309 0.6803 0.6525
2015.782 0.6867 0.817 0.7138 0.5277 0.6066 0.7187 0.8535 0.8908 0.801 0.8424
2035.072 0.8011 0.7358 0.7747 0.8705 0.8369 0.7847 0.7985 0.7015 0.7264 0.755
2054.362 0.622 0.5822 0.5627 0.5487 0.5146 0.4828 0.5243 0.5037 0.4916 0.5431
2073.651 0.4294 0.3419 0.4004 0.4325 0.4107 0.4514 0.53 0.5634 0.5756 0.5019
2092.941 0.5347 0.5496 0.4405 0.4573 0.5073 0.5765 0.6019 0.5699 0.6447 0.6254
2112.231 0.5787 0.6075 0.5068 0.4874 0.5196 0.4479 0.4416 0.4619 0.5018 0.5354
2131.521 0.5256 0.4596 0.5171 0.5806 0.5637 0.6551 0.6059 0.4564 0.4102 0.4065
2150.810 0.4233 0.3677 0.4398 0.5493 0.5524 0.5341 0.5173 0.5437 0.5044 0.4823
2170.100 0.5506 0.5368 0.3995 0.3895 0.4847 0.5689 0.5883 0.4467 0.4815 0.5721
2189.390 0.5296 0.5576 0.4842 0.438 0.4404 0.4879 0.5548 0.5322 0.5066 0.4662
2208.680 0.451 0.4411 0.4668 0.5357 0.6007 0.6253 0.5338 0.4211 0.464 0.5532
2227.970 0.6176 0.7157 0.6701 0.6537 0.7442 0.71 0.7036 0.763 0.708 0.7315
2247.259 0.7581 0.604 0.5431 0.5842 0.5998 0.4746 0.4878 0.5485 0.5347 0.4723
2266.549 0.3 0.3638 0.4344 0.5029 0.4945 0.4655 0.5901 0.6854 0.7581 0.7376
2285.839 0.5893 0.4317 0.4419 0.4556 0.4899 0.632 0.6363 0.6315 0.7079 0.7039
2305.129 0.7029 0.6582 0.6684 0.7445 0.7319 0.6529 0.7603 0.9243 0.9208 0.8108
2324.418 0.8165 0.9389 0.9469 1.0177 1.1356 1.1885 1.1622 1.1448 1.1804 1.0803
2343.708 1.0206 1.0609 1.0386 1.0141 0.8536 0.7041 0.7292 0.7206 0.497 0.4506
2362.998 0.5136 0.5217 0.5745 0.5703 0.6256 0.6788 0.6904 0.6669 0.6693 0.6693
2382.288 0.553 0.4991 0.6107 0.6023 0.6049 0.6894 0.5642 0.5516 0.6622 0.7778
2401.578 0.7135 0.6416 0.7013 0.5423 0.477 0.6385 0.7787 0.7411 0.7175 0.754
2420.867 0.7434 0.7856 0.8842 0.9189 0.9607 0.9845 0.8883 0.8764 0.9047 0.9813
2440.157 1.0066 0.8277 0.7277 0.8292 0.9216 0.8954 0.7926 0.6633 0.6591 0.7901
2459.447 0.8734 0.752 0.6374 0.6808 0.8212 0.8306 0.7587 0.8492 0.9128 0.8351
2478.737 0.7754 0.7082 0.7701 0.6461 0.5017 0.5825 0.6079 0.6616 0.6272 0.7153
2498.026 0.8027 0.681 0.7126 0.7866 0.6737 0.6961 0.8424 0.8973 0.9925 0.9954
2517.316 0.8552 0.8144 0.7749 0.76 0.858 0.8987 0.9073 0.869 0.7833 0.8192
2536.606 0.8624 0.9153 1.0168 0.9765 0.966 1.1355 0.9634 0.7285 0.8506 0.948
2555.896 0.9159 0.9012 0.9328 0.9536 0.9227 0.8066 0.7759 0.8289 0.8309 0.9109
2575.186 0.8872 1.0386 1.1511 1.0023 0.9864 1.1086 1.143 1.1236 1.1766 1.239
2594.475 1.219 1.1859 1.1489 1.0745 1.1149 1.0557 0.9141 0.8355 0.9748 1.1207
2613.765 1.139 1.105 1.03 1.1431 1.249 1.229 1.279 1.419 1.459 1.359
2633.055 1.409 1.549 1.579 1.489 1.429 1.399 1.269 1.0442 0.9909 1.0517
2652.345 1.0823 1.1796 1.1276 0.9815 0.915 0.8343 0.7272 0.6487 0.6022 0.733
2671.634 0.9945 1.0158 0.8333 0.8697 1.007 0.9278 0.8484 0.8221 0.8274 0.8476
2690.924 0.7393 0.904 1.0922 0.9208 0.8961 1.0066 1.1574 1.1967 1.0005 0.9077
2710.214 1.0485 1.0728 1.0899 1.249 1.269 1.289 1.319 1.379 1.629 1.639
2729.504 1.609 1.859 2.019 2.059 2.169 2.219 2.149 2.079 1.929 1.899
2748.794 2.019 2.019 1.909 1.829 1.709 1.789 1.939 1.869 1.899 1.969
2768.083 2.169 2.309 2.259 2.469 2.579 2.449 2.569 2.779 2.839 2.939
2787.373 3.049 3.049 3.079 3.109 3.199 3.369 3.429 3.319 3.349 3.489
2806.663 3.419 3.449 3.689 3.799 3.829 3.899 4.039 4.159 4.159 4.179
2825.953 4.479 4.769 4.859 4.999 5.319 5.559 5.779 5.879 5.949 6.369
2845.242 6.819 7.069 7.259 7.599 8.149 8.679 9.429 10.499 11.729 13.289
2864.532 15.069 17.129 19.719 22.979 26.709 30.859 35.199 39.359 43.269 46.739
2883.822 49.389 50.379 50.159 49.379 47.429 44.859 41.959 39.159 36.849 34.649
2903.112 33.079 32.209 31.709 31.489 31.439 31.579 31.779 32.379 33.149 34.039
2922.401 35.579 37.649 40.329 43.489 47.359 52.299 57.689 63.479 69.329 74.219
2941.691 77.209 77.839 76.559 74.049 70.729 66.639 61.849 57.699 55.019 54.489
2960.981 56.939 62.469 71.259 82.869 95.909 108.319 118.859 126.659 130.009 128.429
2980.271 122.779 112.509 98.259 82.689 67.779 54.799 44.459 36.709 30.989 27.179
2999.561 24.579 22.489 20.819 19.709 19.219 18.559 17.679 17.069 16.579 16.129
3018.850 15.399 14.799 14.369 13.849 13.549 13.319 13.139 13.209 13.569 14.249
3038.140 15.339 16.899 18.809 21.049 23.619 26.059 28.319 30.509 32.009 32.719
3057.430 32.609 31.979 30.999 29.759 28.719 27.689 26.739 25.839 24.919 23.669
3076.720 22.129 20.389 18.319 15.999 13.399 10.959 8.929 7.219 6.129 5.389
3096.009 4.879 4.529 4.199 4.169 4.179 3.829 3.599 3.569 3.559 3.639
3115.299 3.489 3.399 3.469 3.399 3.389 3.299 3.039 3.249 3.389 3.359
3134.589 3.469 3.379 3.339 3.449 3.489 3.539 3.709 3.779 3.749 3.769
3153.879 3.829 3.809 3.709 3.569 3.309 3.319 3.239 3.009 2.829 2.609
3173.169 2.409 2.199 2.179 2.089 1.919 1.799 1.619 1.579 1.529 1.339
3192.458 1.1618 1.0933 1.0906 1.0199 1.0789 1.279 1.0904 0.9243 1.0636 1.299
3211.748 1.499 1.219 0.9412 0.9329 0.923 0.7004 0.7394 0.8392 0.7756 0.924
3231.038 0.9471 0.868 0.7629 0.813 0.9493 0.8966 0.9004 1.0523 1.1389 1.1051
3250.328 0.9536 0.9597 0.946 0.6454 0.6892 0.8982 0.8526 0.8119 0.8379 0.705
3269.617 0.6664 0.5517 0.5129 0.5291 0.6162 0.6957 0.5886 0.6915 0.6545 0.7578
3288.907 0.7787 0.609 0.4806 0.5284 0.8143 0.819 0.7744 0.6644 0.5121 0.5499
3308.197 0.5823 0.6259 0.5032 0.4548 0.5908 0.4507 0.4634 0.6747 0.754 0.6318
3327.487 0.5115 0.6299 0.5166 0.205176 0.23376 0.4825 0.6565 0.6762 0.6787 0.6124
3346.777 0.6521 0.6939 0.5416 0.5639 0.5365 0.6103 0.5578 0.4122 0.3927 0.3754
3366.066 0.4224 0.7137 0.6963 0.200856 0.099 0.299 0.5945 0.711 0.5778 0.6612
3385.356 0.7858 0.6049 0.4947 0.4614 0.4338 0.6954 0.6638 0.6019 0.5508 0.4857
3404.646 0.446 0.3913 0.4569 0.3939 0.38 0.3858 0.3646 0.3326 0.47 0.5112
3423.936 0.4672 0.4066 0.4515 0.4163 0.4181 0.4333 0.3841 0.3294 0.1737 0.26471
3443.225 0.1886 0.1576 0.093 0 0.3765 0.5562 0.4378 0.24559 0.1743 0.27205
3462.515 0.4164 0.5325 0.4666 0.3562 0.3724 0.4223 0.3959 0.25403 0.1849 0.27752
3481.805 0.4264 0.6007 0.5342 0.3619 0.4058 0.457 0.27547 0.28475 0.4496 0.3624
3501.095 0.3734 0.4381 0.3059 0.3336 0.3712 0.4495 0.6249 0.6465 0.6119 0.4906
3520.385 0.4422 0.37 0.4555 0.8823 0.8629 0.6631 0.5732 0.4212 0.25504 0.3354
3539.674 0.5935 0.7232 0.7484 0.606 0.6153 0.5274 0.28416 0.3769 0.3985 0.27349
3558.964 0.072 0.1661 0.4752 0.3462 0.3944 0.3955 0.1504 0.1657 0.3322 0.4623
3578.254 0.4218 0.3141 0.19286 0.23303 0.3962 0.24605 0.1261 0.21727 0.3401 0.4523
3597.544 0.5243 0.7047 0.6503 0.3912 0.29323 0.5079 0.7469 0.5928 0.5008 0.4866
3616.833 0.3082 0.20454 0.042 0.1046 0.418 0.3715 0.4374 0.4849 0.3428 0.24849
3636.123 0.19211 0.3389 0.24122 0.20579 0.3339 0.3134 0.26601 0.26471 0.28021 0.204768
3655.413 0.2853 0.4794 0.5938 0.6948 0.4278 0.3982 0.6114 0.5913 0.5329 0.3896
3674.703 0.5038 0.5441 0.4187 0.3213 0.3534 0.3506 0.315 0.4593 0.4902 0.4195
3693.993 0.3279 0.21313 0.3256 0.457 0.4874 0.4062 0.2911 0.4426 0.5787 0.5215
3713.282 0.3361 0.4467 0.6846 0.7088 0.5288 0.2434 0.3904 0.5718 0.6474 0.6157
3732.572 0.418 0.5948 0.7614 0.8014 0.775 0.6337 0.5334 0.4918 0.8376 1.0696
3751.862 0.7864 0.5929 0.4083 0.4078 0.6669 1.0217 1.1494 0.8328 0.618 0.466
3771.152 0.3705 0.4419 0.5866 0.7672 0.7055 0.5393 0.5522 0.5854 0.7865 0.8765
3790.441 0.718 0.5475 0.5538 0.6249 0.6747 0.6925 0.7772 0.9676 0.8366 0.7599
3809.731 0.7153 0.6163 0.6419 0.7745 0.8849 0.7578 0.6919 0.6048 0.5413 0.6266
3829.021 0.6064 0.4815 0.6276 0.757 0.6254 0.5761 0.3347 0.4245 0.6651 0.5393
3848.311 0.4499 0.5174 0.5585 0.3906 0.2995 0.5032 0.6869 0.6351 0.4291 0.3446
3867.601 0.3428 0.3837 0.4399 0.4075 0.4274 0.3375 0.3662 0.5312 0.5823 0.3491
3886.890 0.208731 0.3663 0.4312 0.3897 0.4712 0.6342 0.5358 0.27612 0.4947 0.7591
3906.180 0.528 0.5348 0.6812 0.6172 0.7279 0.8357 0.65 0.7002 0.6819 0.5012
3925.470 0.6054 0.8644 0.924 0.8028 0.7924 0.7881 0.8918 0.8412 0.7271 0.8958
3944.760 0.9063 0.8541 1.0131 1.075 0.9994 0.9062 0.7621 0.8187 0.9201 0.7694
3964.049 0.7144 0.7788 0.8854 1.0088 0.8054 0.4954 0.5746 1.0159 1.1075 1.071
3983.339 1.259 1.209 1.299 1.329 1.279 1.0469 1.0183 1.339 1.0659 0.9688
##END=
