##TITLE=2,6-Difluorophenyl isothiocyanate
##JCAMP-DX=4.24
##DATA TYPE=INFRARED SPECTRUM
##ORIGIN=EPA-IR VAPOR PHASE LIBRARY
##OWNER=SRD/NIST
Collection (C) 2018 copyright by the U.S. Secretary of Commerce
on behalf of the United States of America. All rights reserved.
##CAS REGISTRY NO=65295-69-4
##MOLFORM=C 7 H 3 F 2 N S
##$NIST SOURCE=MSDC-IR
##STATE=gas
##XUNITS=1/CM
##YUNITS=ABSORBANCE
##XFACTOR=1.
##YFACTOR=0.001
##DELTAX=1.92898
##FIRSTX=549.8
##LASTX=4000.7
##FIRSTY=11.01
##MAXX=4000.7
##MINX=549.759
##MAXY=0.6015
##MINY=0
##NPOINTS=1790
##XYDATA=(X++(Y..Y))
549.759 11.01 12.21 13.48 14.43 17.06 20.97 25.16 27.08 27.74 28.69
569.049 28.72 28.32 26.8 23.77 20.28 16.76 14.19 12.68 11.06 10.31
588.339 9.54 8.6 8.77 9.1 8.98 9 8.67 8.42 7.84 7.6
607.628 6.95 5.97 5.44 5.1 5.35 4.87 4.39 4.61 5.19 5.36
626.918 5.4 5.96 5.8 5.64 5.84 5.66 5.4 5.29 5.15 4.84
646.208 4.18 3.67 3.93 3.89 3.57 3.91 4.41 4.53 4.56 4.38
665.498 4.42 4.47 3.98 4.17 4.72 4.31 3.77 3.37 3.49 3.87
684.787 4.09 5 5.82 6.88 8.86 10.97 13.44 16.04 17.76 19.56
704.077 23.66 29.02 30.69 26.88 22.53 19.96 17.98 15.57 12.47 10.05
723.367 8.51 6.84 5.48 5.01 4.75 4.36 4.5 5.39 6.6 7.59
742.657 8.97 11.14 13.1 14.36 15.6 17.09 18.29 19.26 20.14 20.96
761.947 22.2 24.54 27.85 31.23 34.66 37.83 41.46 48.18 56.47 54.25
781.236 42.9 35.45 31.38 27.74 23.31 18.25 13.67 9.85 7.03 5.05
800.526 4.06 3.57 3.09 2.8038 2.5741 2.5965 2.8704 2.3487 2.13059 1.9978
819.816 1.728 2.08338 2.3043 2.3622 2.2131 2.2128 2.09753 2.0414 1.9936 1.919
839.106 1.9628 1.84 1.616 1.495 1.907 2.2085 2.10053 1.767 1.866 2.10767
858.395 2.0154 2.10824 1.889 1.764 2.0375 1.947 1.815 1.731 1.612 1.801
877.685 2.0132 2.2953 2.4621 2.2429 2.2033 2.5169 2.7984 3.0046 2.9441 3.25
896.975 3.28 3.41 3.82 3.85 4.26 4.42 4.4 4.79 4.58 4.53
916.265 5.2 5.62 6.25 7 7.26 7.96 9.05 10.16 12.44 15.14
935.555 17.8 21.21 25.43 29.78 32.7 34.75 35.71 35.54 35.1 33.69
954.844 31.12 27.31 23.43 20.45 18.2 16.18 14.41 12.9 11.81 11.17
974.134 10.78 10.79 10.76 10.46 10.74 11.67 12.26 12.69 14.08 15.8
993.424 17.65 20.98 25.18 30.52 37.73 46.31 57.25 70.47 85.17 98.74
1012.714 107.44 110.3 109.32 110.02 111.5 107.11 95.13 78.39 61.18 45.76
1032.003 33.61 24.93 18.29 13.57 11.01 9.51 7.95 7.11 7.38 6.83
1051.293 6.01 6.13 5.45 4.87 4.75 4.86 5.04 4.22 3.59 3.16
1070.583 2.5002 2.5979 3.08 3.21 3.4 3.6 2.9748 2.3129 2.1623 1.738
1089.873 0.59 0 0.54 1.998 2.8834 2.7263 2.5525 1.668 1.944 2.8834
1109.163 3.033 3.55 3.26 2.11224 2.5754 2.6917 1.932 2.10727 2.5985 2.746
1128.452 2.3595 1.846 1.184 1.253 2.4295 2.5261 2.012 1.9942 1.811 1.199
1147.742 1.627 2.601 2.0378 2.8267 3.89 2.6994 1.939 1.959 1.763 1.9604
1167.032 1.815 1.847 2.3033 2.4633 2.0396 2.1636 3.36 2.6341 1.457 1.321
1186.322 1.917 2.2902 2.2535 1.809 1.208 1.135 0.98 1.336 1.88 1.9607
1205.611 2.14864 2.5192 2.0335 2.315 2.3748 2.0317 2.735 3.0216 2.8539 3.23
1224.901 4.59 6.23 7.74 8.96 11.37 16.04 21.47 26.47 32.17 38.7
1244.191 41.33 40.09 39.1 41.22 43.75 41.59 35.4 28.41 22.68 18.54
1263.481 14.78 11.5 9.11 7.7 7.05 6.56 6.38 6.24 6.55 7.57
1282.771 8.57 9.66 10.87 11.28 11.86 13.09 14 14.2 14.21 14.31
1302.060 14.15 13.59 12.97 12.75 12.41 11.71 10.86 9.81 8.9 7.88
1321.350 6.87 6.11 5.64 5.44 5.34 5.21 5.02 4.99 5.01 4.93
1340.640 4.66 4.6 4.58 4.35 4.35 4.38 4.25 4.09 3.82 3.64
1359.930 3.5 3.27 3.12 2.9379 2.6163 2.3305 2.3243 2.4697 2.4784 2.2401
1379.219 2.2462 2.4258 2.4561 2.5197 2.5687 2.6337 2.6515 2.8421 3.0339 3.0552
1398.509 3.11 3.08 3.11 3.24 3.14 2.9719 2.9537 2.9948 3.13 3.2
1417.799 3.28 3.39 3.42 3.57 3.66 3.63 3.78 4.04 4.4 4.89
1437.089 5.32 5.62 6.1 6.85 7.52 8.3 9.36 10.37 11.68 13.48
1456.378 16.15 19.73 24.09 29.99 37.54 46.63 56.78 67.4 77.1 85.03
1475.668 88.85 89.42 88.79 89.2 88.99 84.35 75.41 66.26 59.22 54.27
1494.958 50.12 46.29 43.09 40.23 36.94 32.79 27.54 22.32 18.69 16.45
1514.248 15.13 14.56 14.29 14.22 14.18 13.89 13.46 12.93 12.93 13.03
1533.538 12.98 13.05 13.27 13.54 13.59 13.99 14.46 15 15.66 16.53
1552.827 17.49 18.3 18.94 19.66 20.33 20.73 21.22 21.75 22.06 22.45
1572.117 23.03 23.54 23.91 24.25 24.9 25.65 26.72 27.97 29.24 30.68
1591.407 31.89 33.15 34.08 34.28 33.98 33.08 31.74 29.95 27.23 23.66
1610.697 20.21 17.08 14.63 12.73 10.87 9.38 8.56 7.75 6.84 6.29
1629.986 5.88 5.39 5.15 4.71 4.25 4.46 4.6 4.4 4.35 4.58
1649.276 4.42 4.54 4.89 4.72 4.63 4.56 4.55 4.33 4.04 3.85
1668.566 3.75 3.52 3.18 3.0454 2.9216 2.845 2.745 2.7989 2.8791 2.9972
1687.856 2.9761 2.8498 2.9437 2.8849 2.9143 3.08 3.21 3.11 2.9436 2.9993
1707.146 2.9794 2.9545 2.8467 2.8335 3.0311 3.33 3.74 4.04 4.14 4.11
1726.435 4.18 4.32 4.54 4.63 4.58 4.7 4.98 5.16 5.13 5.26
1745.725 5.31 5.02 4.93 4.8 4.47 4.39 4.49 4.41 4.33 4.42
1765.015 4.46 4.48 4.56 4.8 5.05 5.08 5.18 5.14 5.02 5.08
1784.305 5.01 5.11 5.09 4.9 4.81 4.63 4.54 4.7 4.81 4.65
1803.594 4.59 4.78 4.78 4.79 5.08 5.16 5.33 5.66 5.84 5.9
1822.884 5.89 6 6.09 6.06 6.08 6.11 6.25 6.27 6.15 6.02
1842.174 6.18 6.36 6.31 6.47 6.71 7 7.26 7.54 7.78 7.82
1861.464 7.93 8.33 8.52 8.72 9.23 9.63 10.24 10.97 11.49 12.15
1880.754 12.98 14.09 15.33 16.32 17.44 18.77 19.94 21.13 22.39 23.36
1900.043 24.12 24.76 25.01 24.55 24.14 23.89 23.19 22.58 22.1 21.91
1919.333 22.19 22.65 23.36 24.39 25.41 26.63 28.25 29.84 31.48 33.16
1938.623 34.91 36.75 38.79 41.02 43.15 45.13 47.18 49.58 52.39 55.12
1957.913 57.92 61.06 64.33 68.25 72.44 76.87 82.01 87.8 94.23 101.52
1977.202 109.46 118.01 126.85 135.65 144.69 153.44 161.78 170.08 178.14 185.46
1996.492 192.35 198.6 204.77 211.19 217.17 223.93 232.12 241.59 252.62 265.83
2015.782 282.2 302.86 327.71 357.29 392.33 431.72 473.96 516.78 554.51 581.52
2035.072 596.95 601.5 593.56 571.55 537.64 496.18 451.32 406.86 364.23 324.36
2054.362 288.49 256.98 229.76 206.44 186.82 171.03 158.35 148.93 143.06 139.52
2073.651 138.27 139.6 142.92 147.67 154 162.15 171.39 181.51 192.62 204.35
2092.941 215.87 226.27 235.14 241.98 246.28 247.82 246.19 241.57 233.95 223.79
2112.231 211.89 198.93 185.41 171.32 157.48 143.85 130.67 118.74 107.55 97.25
2131.521 88.37 80.68 74.21 68.63 63.88 60.02 56.79 54.42 52.73 51.45
2150.810 50.75 50.32 50.01 49.71 49.26 48.62 47.68 46.71 45.52 44.1
2170.100 42.38 40.46 38.82 36.99 35.15 33.69 32.36 30.95 29.7 28.62
2189.390 27.74 26.99 26.23 25.86 25.74 25.6 25.57 25.64 25.74 25.84
2208.680 25.65 24.81 23.99 23.04 21.44 20.03 18.64 16.86 15.19 13.95
2227.970 12.74 11.67 10.8 10.06 9.59 9.45 9.43 8.95 8.59 8.34
2247.259 8.14 8.16 7.99 7.71 7.48 7.38 7.14 6.72 6.48 6.42
2266.549 6.26 6 5.85 5.77 5.63 5.55 5.52 5.56 5.71 5.53
2285.839 5.5 5.38 5.26 5.46 5.5 5.54 5.66 5.71 5.6 5.51
2305.129 5.68 5.78 5.63 5.68 5.51 5.24 5.36 5.36 5.27 5.2
2324.418 5.24 5.3 5.29 5.26 5.16 5.22 5.54 5.63 5.61 5.58
2343.708 5.43 5.58 5.81 5.82 5.81 5.76 5.58 5.45 5.37 5.32
2362.998 5.16 5.14 5.14 5.26 5.09 4.67 4.54 4.36 4.39 4.47
2382.288 4.21 4.13 4.34 4.35 4.45 4.38 4.32 4.36 4.34 4.3
2401.578 4.25 4.44 4.45 4.3 4.32 4.4 4.26 4.11 4.24 4.35
2420.867 4.39 4.28 4.25 4.26 4.23 4.37 4.48 4.37 4.14 4.3
2440.157 4.46 4.44 4.45 4.29 4.08 4.06 3.91 3.88 3.93 3.89
2459.447 4.01 4.05 4.13 4.17 4.2 4.32 4.21 4.1 4.1 4.13
2478.737 4.4 4.61 4.59 4.76 5.25 5.57 5.71 5.81 5.88 6.01
2498.026 6.22 6.67 7.09 7.37 7.62 7.67 7.91 8.41 8.59 8.71
2517.316 8.84 8.93 9.13 9.49 9.7 9.62 9.64 9.67 9.76 9.75
2536.606 9.7 9.59 9.26 9.3 9.18 9.13 9.07 8.5 8.25 7.86
2555.896 7.08 6.73 6.49 6.02 5.75 5.58 5.32 5.14 4.96 4.74
2575.186 4.46 4.63 4.84 4.73 4.61 4.47 4.49 4.68 4.73 4.55
2594.475 4.53 4.54 4.72 4.87 4.82 4.77 4.72 4.53 4.58 4.66
2613.765 4.18 3.97 4 4.11 4.45 4.68 4.72 4.69 4.72 4.73
2633.055 4.77 4.9 4.98 4.98 4.83 4.63 4.91 5.18 5.03 5.14
2652.345 5.34 5.5 5.69 5.93 6.17 6.5 6.78 7.04 7.46 7.98
2671.634 8.52 8.78 9.13 9.48 9.46 9.39 9.46 9.41 8.66 8.04
2690.924 7.56 6.9 6.28 5.79 5.6 5.11 4.65 4.56 4.49 4.49
2710.214 4.41 4.45 4.48 4.46 4.52 4.58 4.57 4.2 4.24 4.39
2729.504 4.61 4.86 4.95 5.12 5.41 5.63 5.62 5.48 5.47 5.29
2748.794 5.15 5.49 5.62 5.49 5.37 5.06 5 4.96 4.75 4.69
2768.083 4.67 4.6 4.45 4.51 4.51 4.64 4.62 4.71 4.93 4.89
2787.373 4.91 5.02 5.25 5.32 4.97 4.78 4.71 4.76 4.84 4.68
2806.663 4.33 3.94 3.89 3.89 3.55 3.5 3.6 3.38 3.3 3.2
2825.953 3.3 3.39 3.25 3.27 3.26 3.047 3.19 3.41 3.18 3.09
2845.242 2.8226 2.9314 3.25 3.23 3.31 3.32 3.37 3.32 2.9816 3.09
2864.532 3.35 3.42 3.5 3.37 3.14 2.8142 2.9493 3.0559 3.0488 3.28
2883.822 2.963 2.7144 2.8324 2.5288 2.5087 2.6485 2.8432 2.6335 2.1931 2.6022
2903.112 2.942 3.0124 2.8475 2.7168 2.8513 2.8355 2.8183 2.8333 2.9209 3.0166
2922.401 3.08 3.09 2.8887 2.8318 2.8784 2.7463 2.7394 2.8315 2.9844 3.09
2941.691 3.17 3.16 3.27 3.28 2.8968 2.9404 3.35 3.59 3.43 3.5
2960.981 4.06 3.91 3.84 4.05 3.87 4.35 4.42 4.07 4.21 4.58
2980.271 4.66 4.53 4.55 4.44 4.61 4.28 3.94 4.17 4.23 4.05
2999.561 3.68 3.49 3.51 3.22 2.9424 2.984 3.26 3.25 3.08 3.0332
3018.850 3.0109 2.7844 2.7218 2.8872 2.7394 3.0526 3.54 3.53 3.43 3.33
3038.140 3.32 3.65 3.9 3.78 3.66 3.87 3.99 3.91 3.94 3.92
3057.430 4.1 3.91 3.58 3.94 4.25 3.98 3.88 3.94 4.08 4.35
3076.720 4.28 3.9 4.15 4.61 4.79 4.92 4.85 4.87 4.87 4.59
3096.009 4.48 4.49 4.35 4.39 4.02 3.65 3.42 3.28 2.8297 2.436
3115.299 2.6281 2.7432 2.696 2.4326 2.4116 2.4136 2.4808 2.7576 2.5988 2.2994
3134.589 2.3732 2.5839 2.2412 2.1756 2.2949 2.0364 1.846 2.0394 2.2842 1.9764
3153.879 2.08855 2.4125 2.361 2.15536 2.0024 1.845 1.724 2.0049 1.9924 2.0436
3173.169 2.1876 1.875 1.883 1.835 1.5 1.264 1.447 1.775 1.9622 2.11144
3192.458 2.0319 1.817 1.722 1.829 2.0166 1.9621 1.671 1.924 2.4015 2.3241
3211.748 1.724 1.588 1.813 1.9653 2.0464 2.1885 2.2495 2.15732 2.13817 1.9632
3231.038 1.763 1.573 1.653 1.681 1.405 1.715 1.759 1.58 1.762 1.506
3250.328 1.548 1.468 1.453 2.0471 2.2641 2.12445 2.2442 2.08699 1.843 2.10464
3269.617 2.3167 2.2976 2.2801 2.10583 1.9799 1.9898 1.954 2.08426 2.0119 1.979
3288.907 1.863 1.947 1.9771 1.355 1.313 1.932 1.9934 1.791 1.836 1.926
3308.197 2.0345 1.84 1.594 1.823 2.2574 2.0214 1.871 1.952 1.563 1.485
3327.487 1.569 1.793 2.15187 1.907 1.536 1.403 1.958 2.3818 1.902 2.05366
3346.777 2.2861 1.842 1.698 1.717 1.793 1.605 1.52 1.82 1.64 1.483
3366.066 1.828 1.92 1.88 2.08652 2.3503 2.4128 1.811 1.475 1.642 1.762
3385.356 2.2511 2.3755 1.813 2.14459 2.0209 1.385 1.67 2.06603 1.9844 1.843
3404.646 1.81 1.709 1.8 1.753 1.815 1.842 1.767 1.668 1.674 1.722
3423.936 1.832 1.826 1.607 1.788 2.0173 2.067 1.893 1.573 1.652 1.769
3443.225 1.727 1.9756 2.2699 2.3595 2.11417 1.938 1.916 1.66 1.622 2.11144
3462.515 2.3065 1.56 1.289 1.817 2.06929 1.904 1.841 1.839 2.0231 2.0397
3481.805 1.642 1.718 1.9632 1.857 1.723 1.757 1.765 1.804 1.902 1.9853
3501.095 1.947 2.0335 2.07325 1.709 1.824 1.83 1.622 1.846 1.782 1.66
3520.385 1.628 1.76 1.872 1.889 1.773 1.603 1.757 1.558 1.743 2.1972
3539.674 1.9802 1.885 1.743 1.438 1.713 1.926 1.952 1.956 2.1793 2.5526
3558.964 2.07216 1.826 1.9992 1.655 1.366 1.434 1.324 1.422 1.715 1.561
3578.254 1.66 1.845 1.849 2.0033 1.95 1.844 1.901 1.815 2.10838 2.10918
3597.544 1.877 2.0188 1.892 1.498 1.632 1.922 1.771 1.727 1.376 1.589
3616.833 1.861 1.703 1.935 2.1764 2.14732 1.9769 1.747 2.2405 2.4655 1.859
3636.123 2.0024 2.06137 1.692 1.762 1.809 1.646 1.889 2.2038 2.05008 2.1986
3655.413 2.0297 1.476 1.686 2.06769 2.4584 2.6398 2.3731 1.9961 1.9664 2.0289
3674.703 2.4366 2.345 2.0163 2.231 2.09248 2.05432 2.07761 1.78 1.704 1.708
3693.993 1.723 1.916 1.9767 2.15531 1.909 1.516 1.9691 2.2936 2.371 2.4768
3713.282 1.799 1.595 1.38 1.156 1.457 1.749 2.1627 2.284 2.2122 1.9975
3732.572 1.86 2.0028 2.2883 2.4326 2.2156 2.0471 1.828 1.762 1.9964 2.11091
3751.862 2.1892 2.3847 2.265 2.2669 2.5423 2.4054 2.3619 1.9835 1.782 2.5188
3771.152 2.2051 1.594 1.616 1.617 1.66 1.943 2.057 1.982 2.1052 2.3767
3790.441 2.6231 2.5381 2.6481 2.5249 2.09572 2.10272 2.2013 2.4423 2.7613 2.4505
3809.731 2.411 2.4369 2.3378 2.6466 2.333 1.489 1.963 2.3807 1.944 1.958
3829.021 2.0378 2.3143 2.652 2.3489 2.2229 2.13721 2.2229 2.3764 2.1268 2.6794
3848.311 2.5025 1.9966 2.4205 2.4458 2.13243 2.2503 2.3911 2.1885 2.0437 1.9629
3867.601 2.0476 2.4573 2.5677 2.1827 1.887 2.2115 2.6697 2.8485 2.6415 2.602
3886.890 2.8187 2.7947 2.6091 2.287 2.284 2.6592 2.9288 2.9514 2.7974 2.4141
3906.180 2.3606 2.5123 2.0726 1.483 2.08182 2.8144 2.8726 2.6013 2.3808 2.3005
3925.470 1.942 2.05068 2.3653 2.4589 2.402 2.4799 2.64 2.7771 2.6329 2.2101
3944.760 2.5931 3.07 2.7193 2.4809 2.4923 2.7499 2.9403 2.7784 2.8348 3.08
3964.049 3.27 3.0424 2.6445 2.7671 3.37 3.56 3.55 3.1 2.9861 3.5
3983.339 3.57 3.67 3.64 3.57 3.69 3.49 3.52 3.79 3.79 3.7
##END=
