##TITLE=1,2,4,4-Tetramethylcyclopentene
##JCAMP-DX=4.24
##DATA TYPE=INFRARED SPECTRUM
##ORIGIN=NIST Mass Spectrometry Data Center
##OWNER=NIST Standard Reference Data Program
Collection (C) 2018 copyright by the U.S. Secretary of Commerce
on behalf of the United States of America. All rights reserved.
##CAS REGISTRY NO=65378-76-9
##MOLFORM=C 9 H 16
##$NIST SOURCE=MSDC-IR
##SPECTROMETER/DATA SYSTEM=HP-GC/MS/IRD
##STATE=gas
##XUNITS=1/CM
##YUNITS=ABSORBANCE
##XFACTOR=1.0
##YFACTOR=0.000001700
##DELTAX=4.0
##FIRSTX=550.0
##LASTX=3846.0
##FIRSTY=0.000275
##MAXX=3846
##MINX=550
##MAXY=0.017
##MINY=0
##NPOINTS=825
##XYDATA=(X++(Y..Y))
550.0 162 81 0 52 123 119 80 89 111 121
590.0 134 136 136 127 114 146 163 128 94 92
630.0 99 136 145 89 49 18 9 36 65 85
670.0 105 94 80 110 90 97 82 52 77 109
710.0 129 133 128 97 93 134 131 123 148 161
750.0 148 148 159 156 161 159 167 158 119 106
790.0 126 120 110 105 87 98 119 152 147 121
830.0 132 125 113 125 136 137 139 136 120 102
870.0 123 157 167 152 163 164 151 171 178 181
910.0 188 187 206 220 215 204 191 189 190 209
950.0 223 220 233 233 226 220 218 217 198 179
990.0 178 172 164 151 142 125 120 136 143 145
1030.0 145 167 162 141 151 161 163 167 168 176
1070.0 180 191 210 212 214 215 212 208 206 181
1110.0 148 137 146 168 169 159 180 237 301 365
1150.0 458 547 606 619 563 488 400 325 287 244
1190.0 230 256 283 305 350 404 460 520 548 544
1230.0 516 477 405 341 314 321 338 354 381 395
1270.0 395 368 344 352 368 418 527 677 852 994
1310.0 1068 1069 991 862 704 578 508 464 480 543
1350.0 633 756 884 1053 1302 1351 1298 1308 1284 1182
1390.0 1008 848 651 481 416 409 411 448 537 644
1430.0 772 920 1075 1224 1349 1403 1398 1357 1275 1172
1470.0 1033 881 738 607 489 395 326 294 261 239
1510.0 229 234 224 207 220 226 226 236 256 264
1550.0 263 261 251 248 250 242 220 204 204 196
1590.0 190 186 173 155 154 160 148 134 125 121
1630.0 107 109 126 126 123 116 104 95 89 103
1670.0 118 121 116 128 142 134 118 112 112 102
1710.0 91 93 94 78 78 81 80 88 89 93
1750.0 91 96 93 85 89 92 88 81 81 77
1790.0 74 78 85 82 69 70 82 85 75 73
1830.0 71 63 60 58 65 74 70 60 55 63
1870.0 71 71 71 69 62 73 70 66 70 62
1910.0 54 59 71 74 59 46 49 56 59 60
1950.0 58 54 64 75 65 57 57 62 58 48
1990.0 52 61 62 56 53 45 38 33 39 46
2030.0 44 41 38 32 39 46 43 40 39 37
2070.0 33 29 23 20 32 39 39 38 37 36
2110.0 27 26 35 31 32 33 35 28 21 26
2150.0 27 32 27 20 27 28 22 18 16 22
2190.0 28 34 38 28 30 33 19 20 39 41
2230.0 23 13 21 24 27 39 28 23 32 33
2270.0 40 46 39 38 35 25 28 41 41 32
2310.0 45 50 41 44 41 42 52 54 49 54
2350.0 62 62 57 57 68 69 65 59 64 66
2390.0 63 74 75 76 76 69 74 81 79 79
2430.0 75 57 59 58 60 58 61 69 68 75
2470.0 70 57 58 73 82 83 77 82 85 82
2510.0 83 83 87 99 101 96 92 98 103 104
2550.0 94 90 97 93 99 102 96 101 113 111
2590.0 114 120 115 118 128 141 153 163 165 151
2630.0 149 149 144 137 143 165 167 162 166 174
2670.0 175 180 187 196 209 213 211 204 203 220
2710.0 236 251 281 304 328 359 382 401 415 432
2750.0 450 437 405 397 388 381 398 428 464 500
2790.0 551 617 700 805 928 1112 1414 1870 2505 3313
2830.0 4230 5058 5584 5847 5888 5749 5688 5876 6327 6945
2870.0 7605 8111 8402 8545 8291 7738 7348 7189 7216 7448
2910.0 7841 8207 8409 8437 8293 8017 7688 7386 7407 7952
2950.0 8875 9684 10000 9594 8493 6978 5251 3851 2930 2288
2990.0 1785 1411 1183 1066 1020 982 978 997 1007 991
3030.0 947 903 855 788 709 638 580 538 512 484
3070.0 463 438 418 387 361 352 345 340 311 292
3110.0 287 256 240 222 207 211 207 212 215 217
3150.0 225 214 212 214 204 204 211 210 202 206
3190.0 226 233 224 200 179 179 166 147 157 155
3230.0 137 130 126 132 139 135 126 129 123 111
3270.0 109 109 101 102 122 132 133 125 113 118
3310.0 122 113 107 95 91 87 69 75 78 86
3350.0 93 77 63 69 81 73 78 88 78 83
3390.0 85 67 58 70 81 84 74 67 64 58
3430.0 57 62 53 44 51 64 67 56 53 68
3470.0 79 70 64 60 61 56 42 38 49 56
3510.0 61 57 52 46 25 29 49 41 48 38
3550.0 38 46 48 57 61 41 20 29 37 24
3590.0 13 30 52 51 46 51 46 28 28 27
3630.0 41 57 26 13 33 48 62 46 44 51
3670.0 51 47 41 40 30 34 43 60 63 67
3710.0 68 52 57 69 54 49 55 60 73 76
3750.0 68 67 65 51 43 57 56 52 60 58
3790.0 65 61 38 46 85 94 78 79 75 61
3830.0 53 55 59 49 58
##END=
