##TITLE=5-Amino-2-cyanobenzotrifluoride
##JCAMP-DX=4.24
##DATA TYPE=INFRARED SPECTRUM
##ORIGIN=EPA-IR VAPOR PHASE LIBRARY
##OWNER=SRD/NIST
Collection (C) 2018 copyright by the U.S. Secretary of Commerce
on behalf of the United States of America. All rights reserved.
##CAS REGISTRY NO=654-70-6
##MOLFORM=C 8 H 5 F 3 N 2
##$NIST SOURCE=MSDC-IR
##STATE=gas
##XUNITS=1/CM
##YUNITS=ABSORBANCE
##XFACTOR=1.
##YFACTOR=0.001
##DELTAX=1.92898
##FIRSTX=549.8
##LASTX=4000.7
##FIRSTY=10.218
##MAXX=4000.7
##MINX=549.759
##MAXY=0.101428
##MINY=0
##NPOINTS=1790
##XYDATA=(X++(Y..Y))
549.759 10.218 9.458 8.008 7.958 7.338 6.688 6.378 5.638 5.328 5.028
569.049 4.898 5.308 4.878 4.648 4.548 4.368 4.628 5.158 5.548 5.088
588.339 5.148 5.328 5.538 5.498 5.428 6.088 6.178 6.108 6.258 6.228
607.628 6.108 5.898 5.438 4.668 4.948 4.958 4.318 4.478 4.538 4.758
626.918 4.648 5.018 5.328 5.458 5.958 5.608 5.568 6.538 6.918 6.558
646.208 6.738 7.298 7.638 7.708 7.688 7.918 8.128 8.538 9.418 10.218
665.498 11.218 12.278 13.298 14.748 16.458 17.658 18.218 19.038 19.608 19.498
684.787 18.798 17.498 16.238 14.928 13.388 12.038 10.858 9.758 9.558 9.368
704.077 9.078 9.318 9.348 9.128 9.408 9.758 9.298 8.918 9.068 9.078
723.367 8.528 8.098 7.728 7.758 7.708 7.018 6.708 6.768 6.908 7.528
742.657 7.908 8.088 8.568 8.998 8.958 8.698 8.268 7.628 7.318 6.348
761.947 5.428 5.478 5.668 5.518 5.168 5.228 5.698 5.338 5.068 5.388
781.236 5.418 5.378 5.188 5.028 5.198 5.338 5.318 5.008 4.648 4.838
800.526 5.148 5.328 5.558 5.598 6.058 7.268 8.358 9.488 10.438 11.248
819.816 12.168 12.888 14.188 15.238 14.598 13.528 12.428 11.148 10.208 8.958
839.106 7.768 7.248 7.018 6.658 5.378 4.508 4.698 4.858 4.658 4.678
858.395 5.408 5.908 6.298 7.078 7.778 8.668 10.028 11.178 11.988 12.278
877.685 11.468 10.458 9.738 8.548 7.428 6.718 5.838 5.158 5.038 5.218
896.975 5.178 5.338 6.018 6.628 7.598 8.788 9.408 9.808 10.058 9.788
916.265 8.968 8.258 7.398 6.208 5.168 4.218 3.558 2.758 2.368 2.368
935.555 2.028 1.978 2.248 2.428 2.398 2.368 2.748 3.158 3.208 3.218
954.844 2.978 2.758 2.528 2.428 2.508 2.458 2.538 2.778 2.688 2.428
974.134 2.158 2.228 2.658 2.868 2.528 1.978 2.108 1.988 2.248 2.418
993.424 2.068 2.118 1.988 2.078 2.198 2.078 2.038 2.278 2.178 1.928
1012.714 1.988 1.4863 1.738 2.188 1.618 1.4616 1.968 2.618 2.878 3.538
1032.003 4.878 6.398 8.848 11.078 14.158 17.798 20.458 23.168 24.508 24.258
1051.293 23.588 22.398 19.698 15.928 12.208 9.408 7.588 6.488 6.538 5.438
1070.583 4.228 4.098 4.208 4.448 4.318 4.348 3.788 3.288 3.468 3.368
1089.873 2.818 3.528 4.028 3.358 2.638 2.668 3.388 3.558 3.878 4.578
1109.163 5.118 5.028 4.908 5.328 6.688 7.838 8.028 8.188 8.718 9.598
1128.452 10.848 12.578 15.248 19.068 22.208 25.298 29.368 34.158 41.298 49.018
1147.742 55.178 60.268 65.598 69.878 73.108 76.438 79.338 83.438 88.468 92.598
1167.032 95.048 96.418 98.498 100.038 100.708 101.428 98.518 92.888 87.558 81.708
1186.322 74.898 67.388 60.708 54.628 48.868 43.728 39.288 35.918 32.088 28.078
1205.611 24.938 23.158 21.988 19.988 18.348 16.948 15.248 13.838 13.108 11.778
1224.901 10.228 10.128 9.478 8.718 9.568 11.028 11.858 12.018 12.818 15.388
1244.191 18.608 21.218 24.598 29.448 34.838 40.068 45.328 50.478 54.308 56.818
1263.481 58.178 57.098 54.558 50.348 44.688 39.058 32.908 26.858 21.508 17.188
1282.771 13.538 11.058 9.588 8.408 7.478 6.808 6.588 6.458 6.408 6.418
1302.060 6.618 6.918 7.118 7.588 8.238 8.948 10.178 11.928 14.398 18.098
1321.350 23.118 29.928 38.978 49.908 62.078 74.228 84.238 90.948 93.858 92.688
1340.640 87.368 78.288 66.448 52.768 38.838 26.968 18.518 13.078 9.718 7.738
1359.930 6.578 5.858 5.318 5.078 5.088 5.188 5.158 5.138 5.318 5.528
1379.219 5.498 5.328 5.288 5.068 4.628 4.298 3.998 3.558 3.148 2.838
1398.509 2.698 2.668 2.598 2.578 2.428 2.268 2.268 2.288 2.318 2.378
1417.799 2.548 2.628 2.838 3.058 3.358 3.878 4.318 5.048 6.228 7.458
1437.089 9.038 10.928 12.978 15.198 17.528 19.788 21.518 22.498 22.768 22.108
1456.378 20.528 18.478 16.138 13.288 10.518 8.248 6.428 5.358 4.958 4.638
1475.668 4.498 4.508 4.828 5.348 6.048 6.868 7.798 9.328 11.138 12.838
1494.958 14.758 16.988 19.048 20.448 21.258 21.368 20.728 19.848 18.578 16.748
1514.248 14.738 12.768 10.648 8.848 7.438 6.138 5.368 4.858 4.048 3.448
1533.538 2.928 2.568 2.508 2.348 2.308 2.278 2.328 2.398 2.368 2.568
1552.827 2.978 3.328 3.298 3.638 4.388 4.808 5.208 5.558 5.768 5.888
1572.117 6.038 6.328 6.438 6.508 6.618 7.058 7.548 7.978 8.568 9.418
1591.407 10.288 11.148 12.058 12.998 14.238 15.398 16.578 17.868 19.398 20.928
1610.697 22.378 24.288 26.648 29.808 33.888 38.668 43.808 49.168 53.788 56.938
1629.986 58.928 59.658 58.448 55.268 50.518 44.688 38.388 32.358 26.958 22.058
1649.276 18.048 15.058 12.368 10.358 9.058 8.068 7.018 6.208 5.708 5.168
1668.566 4.658 4.228 3.938 3.818 3.648 3.358 3.388 3.558 3.288 3.278
1687.856 3.228 3.138 3.258 3.098 3.038 2.858 2.778 2.998 2.778 2.518
1707.146 2.558 2.618 2.508 2.378 2.338 2.258 2.188 2.168 2.188 2.198
1726.435 2.168 2.248 2.378 2.438 2.438 2.458 2.528 2.548 2.538 2.458
1745.725 2.538 2.458 2.388 2.458 2.238 2.178 2.198 2.148 2.158 2.188
1765.015 2.188 2.078 2.018 2.048 1.968 1.978 1.908 1.678 1.608 1.658
1784.305 1.658 1.618 1.5256 1.4441 1.3745 1.3873 1.4032 1.456 1.4002 1.3776
1803.594 1.3609 1.4947 1.658 1.4613 1.4918 1.5604 1.5071 1.5636 1.5209 1.4483
1822.884 1.4636 1.4641 1.2685 1.0518 1.2145 1.3147 1.2746 1.3712 1.3631 1.2957
1842.174 1.1999 1.0626 1.0823 1.0999 1.1125 1.1742 1.1177 1.2149 1.4309 1.3426
1861.464 1.1818 1.1364 1.178 1.1837 1.2234 1.3117 1.3529 1.3506 1.2205 1.1629
1880.754 1.2389 1.448 1.5099 1.4752 1.638 1.828 1.908 2.028 2.048 2.008
1900.043 2.058 2.058 1.998 1.878 1.728 1.548 1.4117 1.4109 1.5571 1.5232
1919.333 1.3881 1.3784 1.4786 1.5222 1.4681 1.5083 1.4358 1.3817 1.4062 1.4398
1938.623 1.4819 1.4571 1.3685 1.2743 1.2259 1.2161 1.1649 1.117 1.1624 1.2449
1957.913 1.4428 1.3812 1.1457 1.079 1.2866 1.3598 1.1819 1.2133 1.1991 1.0453
1977.202 1.0818 1.1155 1.1694 1.2484 1.1796 1.2246 1.3047 1.2555 1.1828 1.3702
1996.492 1.3457 1.2762 1.3365 1.2568 1.2185 1.3613 1.4886 1.4843 1.3514 1.2131
2015.782 1.3093 1.3258 1.3017 1.2195 1.1129 1.117 1.1605 1.24 1.2616 1.1775
2035.072 1.0663 1.0358 1.1469 1.3548 1.3962 1.294 1.3136 1.3879 1.3995 1.4204
2054.362 1.4447 1.5493 1.5078 1.4068 1.4425 1.4418 1.3936 1.376 1.3108 1.2158
2073.651 1.3237 1.4761 1.4451 1.3429 1.1942 1.2571 1.4242 1.2186 1.1647 1.3331
2092.941 1.2275 1.2425 1.2732 1.1317 0.9607 0.8025 0.9245 1.0018 0.8931 0.9019
2112.231 0.9761 0.9228 0.9118 0.9805 1.0447 1.0645 0.9541 0.959 0.9762 0.9817
2131.521 0.971 0.9085 0.9003 0.9255 1.0452 1.0419 0.9865 1.01 0.942 0.9756
2150.810 0.9432 0.9399 0.9351 0.9366 1.1083 1.1382 1.2148 1.3028 1.2872 1.2958
2170.100 1.4081 1.51 1.4991 1.3017 1.1672 1.2899 1.3273 1.2334 1.1764 1.14
2189.390 1.1553 1.1531 1.0552 0.8712 1.0436 1.1312 0.9433 0.929 0.9968 1.1525
2208.680 1.3784 1.688 2.048 2.218 2.438 2.978 3.518 4.388 5.088 5.448
2227.970 5.848 6.088 6.378 6.358 6.008 5.668 5.148 4.458 3.768 3.148
2247.259 2.558 2.208 1.998 1.758 1.768 1.708 1.5481 1.4483 1.3125 1.086
2266.549 0.9926 1.097 1.118 1.1956 1.2316 1.0687 0.903 1.086 1.2874 1.2093
2285.839 1.1079 1.0621 1.0644 1.1158 1.2189 1.1643 0.9703 1.0609 1.1809 1.0883
2305.129 0.9914 1.1134 1.4291 1.3044 1.2853 1.2615 0.9394 0.8931 1.0766 1.3495
2324.418 1.2488 1.1124 1.4106 1.4729 1.343 1.1124 1.0201 1.2126 1.2476 1.3001
2343.708 1.2641 1.2973 1.2505 1.0327 1.0124 1.2207 1.1498 1.1918 1.4118 1.3306
2362.998 1.3336 1.38 1.3911 1.3097 1.1567 1.1494 1.2451 1.362 1.3532 1.2262
2382.288 1.0045 1.0667 1.1546 1.1469 1.3222 1.2997 1.221 1.0424 1.0459 1.1398
2401.578 0.9746 0.9486 0.9699 0.8886 0.8255 0.8766 0.9666 1.003 0.9804 0.8959
2420.867 0.64177 0.5687 0.9069 1.1701 1.1856 1.0911 0.9209 1.0285 1.0207 0.8921
2440.157 0.9328 0.8848 0.7931 0.66633 0.7116 0.7333 0.7421 0.7424 0.8792 1.0145
2459.447 0.8493 0.6927 0.64338 0.7489 0.9615 1.0864 0.8992 0.65077 0.7027 0.8302
2478.737 0.8914 0.8122 0.67095 0.65867 0.64461 0.7434 0.8429 0.60412 0.5584 0.64365
2498.026 0.67704 0.7052 0.8645 1.0536 0.9675 1.0191 1.0973 1.3073 1.4173 1.1892
2517.316 1.0222 1.0199 1.1533 1.1664 1.1858 1.1501 1.0637 1.0441 0.9706 1.0173
2536.606 1.1291 1.2171 1.1971 1.0992 1.0361 1.001 0.9415 0.7598 0.8003 0.8506
2555.896 1.0076 1.2454 1.0978 0.8689 0.9311 1.0794 0.9593 1.1091 1.2881 1.134
2575.186 1.1399 1.1363 1.2508 1.1693 1.1796 1.2356 0.906 0.9793 1.1991 1.105
2594.475 1.176 1.301 1.2446 1.2944 1.1948 0.9925 1.1107 1.275 1.2992 1.2697
2613.765 1.1881 1.2454 1.2089 0.8882 0.9737 1.3137 1.3583 1.4397 1.2715 1.4586
2633.055 1.648 1.4241 1.2862 1.0316 1.013 1.1756 1.176 1.1778 1.2035 1.237
2652.345 1.1517 1.0715 1.0476 0.9994 1.1228 1.1101 0.9172 1.1302 1.144 0.8239
2671.634 0.7423 0.7416 1.1387 1.2016 0.974 0.911 0.8402 0.9775 1.0208 0.9077
2690.924 0.9897 1.0151 1.0047 0.9512 0.9318 0.9312 0.7885 0.7917 1.004 1.203
2710.214 1.0687 1.0752 1.2369 1.1076 0.8608 0.9516 1.032 0.8315 0.9041 0.9189
2729.504 0.8592 0.683 0.5393 0.894 1.0537 0.9125 0.8194 0.6721 0.66664 0.7252
2748.794 0.58949 0.419 0.4913 0.67014 0.7366 0.7351 0.8504 1.0115 1.0599 0.7906
2768.083 0.7101 0.9227 0.8761 0.9252 0.63759 0.5562 0.807 0.8452 0.7813 0.578858
2787.373 0.5125 0.67487 0.776 0.63029 0.5269 0.4962 0.624 0.8709 0.9748 0.8447
2806.663 0.8323 1.0367 1.1323 0.8467 0.65882 0.64057 0.578754 0.66524 0.8588 0.8149
2825.953 0.7249 0.7256 0.5159 0.7403 1.0819 1.0267 0.8224 0.58063 0.582827 0.8053
2845.242 0.772 0.60061 0.63501 0.8519 0.9567 0.7854 0.8287 0.8739 0.9823 1.1059
2864.532 0.7513 0.6857 0.59031 0.65227 0.8877 0.9059 0.7503 0.7181 0.8576 0.8909
2883.822 0.8733 1.2072 1.429 1.257 1.0189 0.841 1.0999 1.0724 0.823 0.9386
2903.112 1.0503 0.8543 0.9893 1.1032 0.9254 0.63376 0.6808 1.2377 1.3541 0.8452
2922.401 0.7314 0.967 0.9295 0.9366 0.66249 0.5119 0.8316 0.794 0.7961 1.0603
2941.691 0.9559 0.62576 0.7932 1.1515 1.355 1.1355 0.8388 0.9516 1.0434 0.8654
2960.981 0.6421 0.455 0.4922 1.0749 1.0872 1.0589 1.2406 0.9396 1.0472 1.0791
2980.271 0.671 0.5768 0.8299 1.1345 0.9854 0.7376 0.761 0.9088 0.8636 0.7726
2999.561 0.7852 0.404 0.5497 0.9803 0.857 1.039 1.3278 1.2138 1.1808 1.788
3018.850 1.668 1.3637 1.5402 1.0772 0.8862 1.1276 1.5345 1.868 1.668 1.4289
3038.140 1.758 1.708 1.708 2.178 2.548 2.828 3.028 3.218 3.098 2.888
3057.430 3.108 3.048 2.788 2.828 2.318 2.108 2.268 2.038 1.988 2.078
3076.720 2.308 2.338 2.068 2.188 2.188 2.008 1.868 1.3209 0.9908 1.2098
3096.009 1.187 1.2256 1.4554 1.267 1.0501 1.1318 0.8512 0.60418 0.9915 1.1744
3115.299 1.1157 1.1057 0.9189 0.7698 1.0001 1.1452 0.9347 0.8372 0.9937 1.0726
3134.589 0.8962 0.9771 1.0134 0.62826 0.8349 0.9438 0.8829 0.8312 0.67643 0.7202
3153.879 0.5679 0.8307 0.7152 0.346 0.7177 1.0596 1.239 1.1476 0.8027 1.0072
3173.169 1.1485 0.994 0.9972 0.9396 0.7693 0.8198 1.2887 1.2132 0.9922 1.2866
3192.458 1.2697 0.9109 1.0965 1.569 1.688 1.598 1.0769 1.0613 1.4603 1.2966
3211.748 1.3819 1.668 1.4703 1.0697 1.1787 1.608 1.638 1.4172 1.2772 1.367
3231.038 1.4675 1.2135 1.2146 1.3638 1.185 1.23 1.0375 0.9341 0.8484 0.9163
3250.328 1.0194 0.8527 0.9884 0.923 1.032 1.3454 1.3635 0.8206 0.65888 0.7551
3269.617 0.64981 0.57013 0.423 0.769 1.4448 1.1004 0.7502 0.85 0.7825 1.0264
3288.907 0.8034 0.278 0.278 0.398 0 0.339 0.898 0.7144 0.7974 0.9994
3308.197 0.8681 0.812 1.0413 1.0652 0.7492 0.61868 0.61072 0.5358 0.60801 0.6905
3327.487 0.9554 1.1344 1.1103 1.1121 1.1036 1.2112 1.1348 0.66888 0.708 0.7937
3346.777 0.58827 0.7511 0.734 0.8592 1.3036 1.5131 1.4124 1.1894 1.3154 1.2519
3366.066 0.8933 1.0226 1.0439 0.8481 0.9199 1.2261 1.4069 1.249 1.2417 1.3672
3385.356 1.304 1.658 2.428 2.378 1.858 2.168 2.628 2.838 3.498 4.138
3404.646 4.398 4.628 5.378 6.288 6.758 7.768 9.068 9.998 9.978 9.908
3423.936 10.638 10.478 10.048 9.778 9.798 9.678 9.138 9.358 9.468 9.258
3443.225 9.218 9.118 8.918 8.048 6.898 5.908 5.188 4.528 3.788 2.908
3462.515 2.148 1.898 1.5657 1.3132 1.698 1.698 1.5378 1.628 1.5582 1.808
3481.805 2.068 2.008 2.168 2.238 1.978 2.148 2.298 2.728 2.918 3.278
3501.095 4.048 4.388 4.358 4.388 4.388 4.268 4.398 4.278 4.108 3.848
3520.385 3.728 3.218 2.868 3.268 3.588 3.598 3.488 3.648 3.428 3.338
3539.674 3.638 3.518 3.088 2.968 3.078 3.198 2.798 2.158 1.648 1.0767
3558.964 1.0128 1.155 1.0717 1.3529 1.2518 0.8486 1.0707 1.2961 1.4289 1.0735
3578.254 0.7984 0.7912 0.583886 0.8313 0.8202 0.411 0.385 0.345 0.57334 0.5568
3597.544 0.203 0.042 0.337 0.8603 0.7857 0.375 0.60808 0.66336 0.5127 0.61596
3616.833 0.5599 0.7216 0.8619 0.8065 0.63888 0.7001 0.8548 0.8192 0.9264 0.67375
3636.123 0.36 0.60053 0.424 0.5524 0.9057 0.65453 0.3 0.114 0.173 0.179
3655.413 0.203 0.59706 0.9472 0.7383 0.4845 0.7719 0.7851 0.7925 0.8209 0.5088
3674.703 0.57396 0.5304 0.224 0.454 0.577523 0.341 0.5222 0.269 0.18 0.7308
3693.993 0.987 1.1407 1.1714 0.59314 0.376 0.7831 0.9351 0.8372 0.8606 0.9667
3713.282 0.6318 0.583359 0.7959 1.0508 1.041 0.64854 0.937 1.0917 0.7399 0.389
3732.572 0.66303 0.61251 0.357 0.174 0.049 0.4929 0.318 0.313 0.7565 1.1211
3751.862 1.0466 0.8723 0.9783 1.1382 0.9807 1.1493 1.1439 0.8196 0.746 0.62968
3771.152 0.7292 0.7825 0.7237 0.60133 0.866 1.1601 0.8651 0.5289 0.59685 0.7669
3790.441 0.7886 0.60877 0.57129 0.65097 0.7198 0.8625 0.9721 0.8454 0.59602 0.63795
3809.731 0.8267 0.351 0.62548 1.3799 0.9243 0.8189 1.2661 1.2136 0.7838 0.8021
3829.021 1.3204 1.198 0.9174 1.0151 1.1461 1.2168 0.9833 1.3948 1.4804 0.6987
3848.311 0.8635 1.2332 1.0044 0.95 0.9462 0.8887 1.0292 1.3801 1.1492 1.1658
3867.601 1.3807 1.0637 1.0994 1.1483 1.3471 1.2922 1.1106 0.9237 1.2073 1.768
3886.890 1.3023 1.0195 1.1274 1.0053 0.8481 0.8477 1.0788 1.3497 1.0333 0.9309
3906.180 0.7267 0.444 0.559 0.9279 1.1762 0.64714 0.65753 0.7961 0.9746 1.1772
3925.470 1.0805 0.9238 0.8999 0.9299 0.8544 1.0964 1.0538 1.0181 1.0119 1.0961
3944.760 1.11 0.8512 0.4959 0.59101 0.9 0.7455 0.9969 1.3893 1.1748 0.9494
3964.049 0.8569 0.4811 0.325 0.7625 1.0823 0.9186 0.7511 0.62915 0.5642 0.8374
3983.339 1.0357 0.9261 0.6978 0.5495 0.7602 1.1436 1.0353 0.7988 0.7415 0.60397
##END=
