##TITLE=2-Methoxy-5-nitrobenzotrifluoride
##JCAMP-DX=4.24
##DATA TYPE=INFRARED SPECTRUM
##ORIGIN=EPA-IR VAPOR PHASE LIBRARY
##OWNER=SRD/NIST
Collection (C) 2018 copyright by the U.S. Secretary of Commerce
on behalf of the United States of America. All rights reserved.
##CAS REGISTRY NO=654-76-2
##MOLFORM=C 8 H 6 F 3 N O 3
##$NIST SOURCE=MSDC-IR
##STATE=gas
##XUNITS=1/CM
##YUNITS=ABSORBANCE
##XFACTOR=1.
##YFACTOR=0.001
##DELTAX=1.92934
##FIRSTX=549.9
##LASTX=3999.5
##FIRSTY=6.15
##MAXX=3999.53
##MINX=549.863
##MAXY=0.60545
##MINY=0
##NPOINTS=1789
##XYDATA=(X++(Y..Y))
549.863 6.15 6.06 6.09 6.06 6.06 5.92 5.88 6.22 6.35 6.35
569.156 6.32 6.18 6.15 6.32 6.31 6.05 5.92 5.74 5.6 5.48
588.450 5.36 5.32 5.42 5.63 5.89 6.18 6.51 6.9 7.29 7.66
607.743 7.92 8.15 8.4 8.68 9.04 9.66 10.81 12.59 15.36 19.48
627.037 24.85 30.62 35.3 38.09 39.18 38.41 35.58 30.96 25.48 20.58
646.330 17.01 14.84 13.87 13.69 14.22 15.71 18.19 22.12 27.96 36.09
665.624 46.74 59.24 70.85 78.51 81.66 80.72 75.87 66.89 54.38 41.43
684.917 31.42 25.22 21.51 18.97 16.96 15.06 13.23 11.69 10.46 9.61
704.210 9.22 9.08 9.18 9.52 10.06 10.72 11.52 12.57 13.91 15.47
723.504 17.18 19.04 21.19 23.76 26.84 29.98 30.86 28.66 25.81 23.38
742.797 21.11 19.05 17.41 16.38 16.12 16.69 17.63 18.03 17.49 16.58
762.091 15.56 14.27 12.69 10.96 9.34 7.96 6.98 6.52 6.32 6.27
781.384 6.3 6.46 6.94 7.82 9.22 11.46 14.93 19.72 24.67 27.83
800.678 29.12 29.21 27.97 25.51 21.6 17.51 15.29 15.16 16.56 19.01
819.971 22 25.29 28.65 30.91 30.81 29.12 26.93 24.28 21.34 18.31
839.264 15.45 12.97 11.04 9.59 8.51 7.75 7.16 6.75 6.46 6.26
858.558 6.16 6.08 6.09 6.13 6.16 6.3 6.49 6.7 7.05 7.63
877.851 8.51 9.89 11.95 15.01 19.15 23.82 28.01 30.5 31.04 30.47
897.145 29.14 26.28 21.86 17.52 14.76 13.94 14.72 16.68 19.54 22.98
916.438 26.7 30.39 33.67 35.87 36.35 34.51 30.32 25.18 20.67 16.96
935.732 13.63 10.81 8.8 7.52 6.73 6.31 6.14 6.09 6.1 6.21
955.025 6.42 6.62 6.83 7.13 7.5 7.87 8.22 8.58 8.97 9.34
974.318 9.64 9.93 10.22 10.51 10.83 11.29 11.85 12.5 13.29 14.24
993.612 15.35 16.69 18.24 20.02 22.09 24.5 27.28 30.5 34.22 38.35
1012.905 42.88 47.79 52.8 57.61 61.89 65.24 67.36 68.03 67.13 64.93
1032.199 61.89 58.82 56.54 56 58.19 64.1 74.42 89.06 107.26 126.93
1051.492 144.29 155.66 160.22 159.59 153.39 138.72 116.49 92.31 71.13 54.75
1070.786 43.04 35.04 29.73 26.25 23.86 22.24 21.24 20.64 20.5 20.8
1090.079 21.54 22.7 24.32 26.56 29.58 33.59 38.91 46.2 56.1 69.2
1109.372 85.78 105.41 126.87 148.15 167.08 181.94 191.31 194.41 191.81 185.89
1128.666 179.87 176.57 176.76 179.67 184.31 189.46 194.69 199.54 203.21 206.27
1147.959 210.86 219.5 233.21 251.65 273.95 299.45 326.81 353.9 376.08 386.7
1167.253 379.95 354.79 315.49 268.27 220.1 177.39 143.7 118.79 100.66 87.45
1186.546 77.39 68.99 61.64 55.43 50.29 45.95 42.46 39.44 36.92 34.71
1205.840 32.94 31.51 30.14 29.48 29.19 29.13 29.16 29.43 30.01 30.58
1225.133 31.29 32.42 33.81 35.11 36.91 39.21 41.95 45.48 49.76 54.95
1244.426 61.27 68.66 77.06 86.05 95.39 105.04 115.34 127.05 140.76 157.05
1263.720 176.63 200.44 229.11 263.25 303.51 350.79 405.41 465.43 525.09 574.53
1283.013 603.32 605.45 579.35 527.81 456.79 374.2 292.79 226.55 181.46 154.43
1302.307 139.63 133.04 132.37 136.22 143.81 154.72 168.47 184.39 201.62 218.65
1321.600 233.54 244.18 248.8 246.83 238.69 225.65 209.9 194.29 182.23 176.74
1340.894 179.22 189.24 204.99 223.28 239.95 251.22 254.65 248.9 233.16 207.8
1360.187 175.72 142.57 113.24 89.66 71.35 57.47 47.29 40.06 34.97 31.42
1379.480 28.97 27.34 26.36 25.94 25.98 26.29 26.84 27.71 28.9 30.29
1398.774 31.91 33.81 36.08 38.82 42.11 46.08 50.73 56.07 61.87 67.89
1418.067 73.82 79.37 83.96 87.38 89.55 90.36 89.91 88.38 85.86 82.59
1437.361 78.69 74.46 69.9 64.99 59.92 55.05 50.95 47.94 45.88 44.89
1456.654 45.41 47.71 51.47 56.25 61.35 65.93 69.49 72.49 75.29 77.92
1475.948 80.65 84.35 89.92 98.26 109.86 125.11 144.06 165.92 189.04 209.81
1495.241 224.57 230.68 227.08 214.56 194.38 168.51 139.02 111.49 89.26 72.35
1514.534 60.53 52.6 47.79 45.62 45.56 47.54 51.76 58.46 68.02 80.79
1533.828 97.31 117.03 138.71 161.38 180.96 193.91 198.44 194.5 183.14 165.12
1553.121 141.78 115.48 91.93 72.89 59.08 50.39 45.13 42.28 41.21 41.52
1572.415 43.05 45.8 50.02 55.63 62.72 71.61 82.2 94.41 107.91 122.14
1591.708 136.1 148.79 158.86 165.4 168.22 167.52 163.68 157.78 151.45 146.67
1611.002 144.87 146.16 149.04 151.09 149.82 143.77 132.84 117.83 100.41 82.28
1630.295 65.81 52.74 43.35 36.68 31.88 28.31 25.38 22.95 20.85 18.95
1649.588 17.35 16.18 15.06 14.01 13.22 12.58 12.05 11.57 11.07 10.55
1668.882 10.05 9.6 9.16 8.8 8.47 8.16 7.9 7.71 7.54 7.32
1688.175 7.1 6.9 6.65 6.4 6.22 5.98 5.79 5.54 5.29 5.11
1707.469 4.9015 4.7362 4.6343 4.528 4.4784 4.4627 4.3361 4.2087 4.1542 4.1348
1726.762 4.06686 4.00193 3.9618 3.97229 4.02681 3.9582 3.871 3.854 3.858 3.879
1746.056 3.9116 3.97753 4.00257 3.9568 3.9399 3.9372 3.9385 3.9282 3.97408 3.99519
1765.349 3.98969 4.05299 4.1421 4.2578 4.3287 4.3216 4.3297 4.3754 4.3629 4.3141
1784.642 4.2704 4.1851 4.104 4.0823 4.0529 3.9358 3.804 3.734 3.717 3.728
1803.936 3.781 3.821 3.857 3.9417 4.01184 4.1037 4.1804 4.2641 4.4266 4.6053
1823.229 4.7647 4.8806 5.03 5.25 5.49 5.72 5.91 6.07 6.17 6.23
1842.523 6.22 6.1 5.92 5.66 5.33 4.9597 4.5921 4.2634 3.9551 3.763
1861.816 3.568 3.416 3.392 3.411 3.444 3.464 3.55 3.663 3.768 3.8987
1881.110 4.04297 4.1891 4.3304 4.5169 4.7532 4.99 5.26 5.55 5.86 6.2
1900.403 6.48 6.69 6.85 6.96 6.95 6.81 6.63 6.41 6.14 5.87
1919.696 5.53 5.22 4.9759 4.7209 4.5199 4.3168 4.127 4.01296 3.8854 3.756
1938.990 3.684 3.615 3.575 3.577 3.574 3.587 3.588 3.581 3.6 3.625
1958.283 3.639 3.618 3.616 3.683 3.708 3.714 3.727 3.695 3.631 3.535
1977.577 3.445 3.353 3.325 3.312 3.237 3.251 3.302 3.282 3.276 3.315
1996.870 3.374 3.441 3.515 3.609 3.724 3.822 3.9639 4.0927 4.2053 4.3307
2016.164 4.4374 4.5558 4.6734 4.8126 4.9766 5.14 5.34 5.55 5.79 6.03
2035.457 6.19 6.38 6.58 6.72 6.76 6.77 6.71 6.6 6.47 6.34
2054.750 6.14 5.99 5.89 5.71 5.59 5.52 5.48 5.43 5.43 5.43
2074.044 5.41 5.39 5.36 5.27 5.2 5.07 4.8617 4.6553 4.4401 4.2097
2093.337 3.98074 3.767 3.586 3.465 3.423 3.427 3.39 3.4 3.433 3.388
2112.631 3.339 3.288 3.24 3.19 3.127 3.065 3.013 2.92 2.85 2.88
2131.924 2.86 2.84 2.85 2.83 2.77 2.73 2.74 2.76 2.78 2.83
2151.218 2.87 2.88 2.96 3.022 3.085 3.172 3.239 3.295 3.352 3.492
2170.511 3.626 3.656 3.672 3.661 3.603 3.533 3.449 3.34 3.25 3.177
2189.804 3.085 3.005 2.984 2.96 2.96 2.94 2.91 2.91 2.89 2.9
2209.098 2.93 2.94 2.96 2.999 3.09 3.131 3.171 3.256 3.286 3.312
2228.391 3.331 3.346 3.398 3.446 3.488 3.509 3.542 3.614 3.644 3.697
2247.685 3.782 3.841 3.8896 3.8826 3.8873 3.9233 3.9064 3.8877 3.839 3.779
2266.978 3.769 3.756 3.702 3.706 3.72 3.691 3.695 3.708 3.752 3.749
2286.272 3.741 3.802 3.812 3.764 3.747 3.755 3.787 3.848 3.855 3.843
2305.565 3.874 3.838 3.796 3.761 3.739 3.772 3.776 3.759 3.76 3.762
2324.858 3.767 3.78 3.743 3.758 3.789 3.777 3.791 3.838 3.846 3.81
2344.152 3.736 3.633 3.513 3.412 3.371 3.287 3.222 3.167 3.112 3.084
2363.445 3.075 3.054 3.015 2.984 2.95 2.984 3.005 3.008 2.986 2.998
2382.739 3.021 2.991 2.984 2.96 2.95 2.95 2.9 2.87 2.87 2.82
2402.032 2.79 2.82 2.79 2.76 2.76 2.74 2.75 2.75 2.75 2.81
2421.326 2.9 2.97 3.015 3.089 3.194 3.307 3.345 3.38 3.491 3.624
2440.619 3.744 3.734 3.724 3.822 3.855 3.846 3.876 3.8972 3.9433 4.00086
2459.912 4.02541 4.02964 3.98971 4.00662 4.01989 3.97926 3.9372 3.83 3.758 3.731
2479.206 3.671 3.587 3.51 3.491 3.444 3.374 3.325 3.307 3.287 3.232
2498.499 3.206 3.174 3.165 3.171 3.192 3.26 3.274 3.252 3.328 3.429
2517.793 3.443 3.465 3.566 3.686 3.771 3.8952 4.02214 4.1054 4.2468 4.3994
2537.086 4.5209 4.6351 4.8075 4.99 5.12 5.25 5.36 5.41 5.42 5.4
2556.380 5.32 5.24 5.12 4.9372 4.7232 4.5015 4.3044 4.134 3.9463 3.78
2575.673 3.668 3.583 3.505 3.441 3.307 3.201 3.2 3.19 3.11 3.119
2594.966 3.182 3.199 3.232 3.304 3.347 3.292 3.291 3.341 3.365 3.369
2614.260 3.365 3.313 3.27 3.277 3.234 3.12 3.107 3.162 3.202 3.269
2633.553 3.328 3.393 3.398 3.385 3.421 3.433 3.39 3.378 3.373 3.279
2652.847 3.225 3.144 3.032 2.96 2.89 2.82 2.75 2.65 2.58 2.55
2672.140 2.48 2.44 2.39 2.34 2.36 2.38 2.37 2.41 2.44 2.4
2691.434 2.4 2.46 2.56 2.6 2.61 2.67 2.69 2.72 2.72 2.67
2710.727 2.71 2.78 2.75 2.68 2.68 2.72 2.74 2.65 2.59 2.61
2730.020 2.55 2.56 2.63 2.68 2.63 2.62 2.7 2.78 2.84 2.84
2749.314 2.81 2.82 2.87 2.85 2.81 2.83 2.83 2.85 2.87 2.82
2768.607 2.79 2.78 2.74 2.72 2.73 2.72 2.66 2.64 2.69 2.7
2787.901 2.72 2.71 2.56 2.57 2.71 2.74 2.76 2.83 2.95 3.04
2807.194 3.129 3.253 3.357 3.457 3.569 3.717 3.8967 4.0943 4.3351 4.6095
2826.488 4.8702 5.09 5.51 6.05 6.6 7.3 8.27 9.49 10.94 12.65
2845.781 14.5 16.33 17.87 18.81 19.26 19.33 18.84 17.8 16.36 14.93
2865.074 13.72 12.78 12.18 11.79 11.58 11.52 11.34 11.26 11.33 11.24
2884.368 11.3 11.37 11.4 11.42 11.37 11.34 11.33 11.39 11.51 11.64
2903.661 11.78 12.11 12.47 12.74 12.93 13.02 13.06 12.99 12.96 13.03
2922.955 12.98 12.93 13.09 13.29 13.49 13.88 14.56 15.65 17.04 18.86
2942.248 21.15 23.74 26.54 29.4 31.78 33.18 33.61 33.4 32.39 30.63
2961.542 28.48 26.12 24.07 22.8 22.31 22.25 22.45 22.58 22.24 21.23
2980.835 19.67 17.91 16.15 14.58 13.07 11.71 10.58 9.58 8.91 8.56
3000.128 8.37 8.22 8.25 8.51 8.99 9.72 10.49 11.51 12.94 14.68
3019.422 16.41 17.61 18.3 18.06 17.02 15.49 13.52 11.3 9.15 7.6
3038.715 6.46 5.62 5.05 4.615 4.203 3.8982 3.743 3.46 3.175 3.026
3058.009 2.93 2.87 2.8 2.81 2.8 2.75 2.76 2.88 3.134 3.346
3077.302 3.538 3.9194 4.5303 5.25 6.17 7.37 8.69 10.11 11.55 13
3096.596 14.28 15.23 15.59 15.28 14.42 13.05 11.52 9.75 7.99 6.47
3115.889 5.08 3.9698 3.254 2.8 2.47 2.15 1.89 1.74 1.62 1.53
3135.182 1.4 1.17 0.99 0.94 0.83 0.67 0.61 0.65 0.64 0.5
3154.476 0.42 0.51 0.59 0.51 0.34 0.36 0.49 0.54 0.5 0.45
3173.769 0.45 0.35 0.33 0.4 0.43 0.47 0.36 0.41 0.37 0.39
3193.063 0.57 0.52 0.43 0.43 0.48 0.47 0.55 0.7 0.76 0.69
3212.356 0.67 0.68 0.81 0.81 0.7 0.93 1.02 0.77 0.63 0.57
3231.650 0.57 0.6 0.6 0.56 0.53 0.57 0.36 0.25 0.33 0.39
3250.943 0.39 0.35 0.35 0.19 0.17 0.23 0.23 0.22 0.06 0
3270.236 0.07 0.16 0.21 0.17 0.13 0.19 0.27 0.26 0.15 0.12
3289.530 0.28 0.38 0.31 0.27 0.33 0.32 0.44 0.47 0.32 0.36
3308.823 0.39 0.45 0.51 0.43 0.33 0.28 0.32 0.43 0.45 0.47
3328.117 0.48 0.4 0.43 0.38 0.4 0.54 0.66 0.75 0.59 0.52
3347.410 0.55 0.4 0.49 0.69 0.65 0.67 0.6 0.57 0.49 0.41
3366.704 0.57 0.73 0.78 0.74 0.86 0.92 0.83 0.8 0.72 0.73
3385.997 0.76 0.71 0.79 0.81 0.82 0.81 0.81 0.84 0.83 0.75
3405.290 0.7 0.77 0.96 1.01 0.94 0.92 0.83 0.95 1.02 0.92
3424.584 0.99 1 1 0.99 0.97 0.96 0.91 0.93 0.98 1.07
3443.877 1.1 1.11 1.12 1.05 0.97 1.01 1.06 1.15 1.2 1.17
3463.171 1.14 1.15 1.22 1.23 1.24 1.25 1.3 1.24 1.11 1.11
3482.464 1.13 1.19 1.33 1.33 1.24 1.22 1.25 1.21 1.32 1.42
3501.758 1.44 1.38 1.33 1.37 1.38 1.51 1.56 1.46 1.42 1.44
3521.051 1.5 1.56 1.56 1.53 1.49 1.44 1.34 1.41 1.49 1.43
3540.344 1.5 1.38 1.36 1.52 1.54 1.52 1.56 1.72 1.78 1.84
3559.638 1.8 1.8 1.76 1.56 1.52 1.61 1.67 1.61 1.74 1.81
3578.931 1.74 1.72 1.75 1.82 1.9 1.8 1.64 1.73 1.76 1.71
3598.225 1.65 1.69 1.82 1.82 1.8 1.82 1.86 1.83 1.88 1.95
3617.518 1.89 1.85 1.9 2.06 2 1.92 2.08 2.03 1.92 1.95
3636.812 1.96 2.01 1.99 1.86 1.75 1.86 2.03 2.06 2.06 2.02
3656.105 1.98 1.94 1.88 2.01 2.12 2.08 1.98 1.92 1.91 1.93
3675.398 1.99 1.97 2.08 2.21 2.18 2.09 2.07 2.11 2.15 2.13
3694.692 2.13 2.08 2.1 2.15 2.07 2.13 2.17 2.17 2.17 2.23
3713.985 2.19 2.14 2.18 2.15 2.11 2.13 2.19 2.18 2.12 2.13
3733.279 2.24 2.24 2.21 2.29 2.34 2.31 2.3 2.26 2.17 2.21
3752.572 2.25 2.2 2.24 2.23 2.18 2.11 2.07 2.13 2.22 2.23
3771.866 2.15 2.08 2.04 2.08 2.12 2.16 2.11 2.02 2.12 2.19
3791.159 2.21 2.23 2.19 2.16 2.18 2.16 2.15 2.2 2.23 2.14
3810.452 2.04 2.12 2.19 2.16 2.2 2.24 2.23 2.25 2.2 2.19
3829.746 2.26 2.28 2.2 2.02 2.01 2.13 2.17 2.16 2.13 2.09
3849.039 2.07 2.08 2.25 2.32 2.2 2.17 2.14 2.15 2.23 2.22
3868.333 2.22 2.27 2.25 2.2 2.17 2.25 2.36 2.35 2.28 2.34
3887.626 2.38 2.35 2.46 2.44 2.35 2.33 2.32 2.37 2.39 2.31
3906.920 2.34 2.35 2.21 2.13 2.17 2.21 2.15 2.11 2.12 2.1
3926.213 2.05 2.07 2.11 2.13 2.19 2.25 2.3 2.31 2.28 2.23
3945.506 2.19 2.15 2.16 2.28 2.27 2.2 2.26 2.25 2.23 2.27
3964.800 2.24 2.25 2.34 2.37 2.39 2.41 2.43 2.52 2.48 2.35
3984.093 2.35 2.26 2.28 2.42 2.44 2.48 2.46 2.53 2.59
##END=
