##TITLE=4-Benzyloxyphenylacetic acid
##JCAMP-DX=4.24
##DATA TYPE=INFRARED SPECTRUM
##ORIGIN=EPA-IR VAPOR PHASE LIBRARY
##OWNER=SRD/NIST
Collection (C) 2018 copyright by the U.S. Secretary of Commerce
on behalf of the United States of America. All rights reserved.
##CAS REGISTRY NO=6547-53-1
##MOLFORM=C 15 H 14 O 3
##$NIST SOURCE=MSDC-IR
##STATE=gas
##XUNITS=1/CM
##YUNITS=ABSORBANCE
##XFACTOR=1.
##YFACTOR=0.001
##DELTAX=3.85796
##FIRSTX=551.7
##LASTX=4000.7
##FIRSTY=4.95
##MAXX=4000.7
##MINX=551.688
##MAXY=0.02169
##MINY=0
##NPOINTS=895
##XYDATA=(X++(Y..Y))
551.688 4.95 5.26 5.28 5.02 4.5 4.25 4.2 4.22 4.4 4.75
590.268 5.28 5.86 6.5 7.2 7.73 7.82 7.23 6.35 5.78 5.35
628.847 4.94 4.65 4.38 4.02 3.83 3.7 3.49 3.37 3.33 3.34
667.427 3.41 3.54 3.81 4.12 4.4 4.88 5.43 5.71 5.57 5.2
706.006 4.79 4.48 4.33 4.32 4.39 4.67 4.99 5.03 4.77 4.34
744.586 3.94 3.61 3.34 3.09 2.87 2.76 2.81 2.93 3.1 3.31
783.165 3.44 3.49 3.55 3.59 3.72 3.91 3.98 4.1 4.25 4.31
821.745 4.16 3.84 3.52 3.3 3.13 2.98 2.94 2.96 2.99 3.09
860.324 3.11 2.95 2.73 2.61 2.48 2.43 2.4 2.37 2.44 2.47
898.904 2.53 2.57 2.55 2.49 2.45 2.44 2.42 2.39 2.33 2.35
937.484 2.37 2.36 2.36 2.34 2.31 2.3 2.42 2.51 2.61 2.76
976.063 2.97 3.25 3.51 3.81 4.16 4.54 4.93 5.31 5.81 6.41
1014.643 7.04 7.63 7.87 7.54 6.77 5.99 5.43 4.87 4.27 3.8
1053.222 3.46 3.38 3.54 3.74 4.05 4.44 4.98 5.6 6.31 7.21
1091.802 8.43 10.03 11.88 14.01 16.19 17.59 17.49 15.75 13.23 11.05
1130.381 9.49 8.24 7.17 6.4 5.84 5.38 5.06 4.98 5.22 6.03
1168.961 7.66 9.52 10.07 8.82 7.06 6.14 6.15 6.65 7.42 8.7
1207.540 10.5 12.61 14.65 16.08 16.81 16.94 16.82 16.95 17.34 17.18
1246.120 15.81 13.61 11.5 9.87 8.58 7.57 6.87 6.43 6.35 6.5
1284.699 6.6 6.66 6.57 6.28 5.89 5.53 5.24 4.95 4.61 4.31
1323.279 4.13 4.05 4.06 4.11 4.18 4.25 4.33 4.43 4.54 4.61
1361.859 4.67 4.77 4.87 4.95 4.94 4.65 4.01 3.29 2.84 2.61
1400.438 2.49 2.43 2.38 2.45 2.52 2.59 2.7 2.78 2.85 2.9
1439.018 2.99 3.07 3.17 3.28 3.43 3.53 3.63 3.73 3.67 3.37
1477.597 3.03 2.98 3.24 3.78 4.82 6.67 9.93 15.07 20.71 21.69
1516.177 16.61 9.95 5.97 4.27 3.39 2.91 2.54 2.35 2.25 2.18
1554.756 2.14 2.15 2.19 2.22 2.34 2.5 2.79 3.07 3.17 3.11
1593.336 3.15 3.51 4.08 4.77 5.42 5.6 5.07 4.06 3.05 2.4
1631.915 2.06 1.87 1.7666 1.6625 1.6011 1.6024 1.536 1.48 1.5646 1.579
1670.495 1.5561 1.604 1.6051 1.6352 1.6332 1.6963 1.7645 1.84 1.93 2
1709.075 2.12 2.24 2.39 2.63 2.94 3.25 3.67 4.26 4.96 5.77
1747.654 6.73 7.83 8.97 10.13 11.32 12.67 14.28 15.82 16.6 16.25
1786.234 15.04 13.55 12.04 10.51 8.93 7.38 5.99 4.83 3.94 3.3
1824.813 2.8 2.45 2.21 2.02 1.9 1.82 1.7558 1.7211 1.7136 1.7007
1863.393 1.7063 1.7084 1.6825 1.6448 1.6297 1.6191 1.578 1.5346 1.4844 1.4304
1901.972 1.3929 1.3806 1.3596 1.3229 1.2967 1.2946 1.305 1.3199 1.3298 1.3451
1940.552 1.3817 1.4073 1.4128 1.4391 1.4486 1.4177 1.3751 1.2915 1.2198 1.2242
1979.131 1.2722 1.2691 1.2499 1.2465 1.2417 1.2438 1.2368 1.2203 1.2034 1.1924
2017.711 1.1974 1.1915 1.1765 1.1878 1.1759 1.1592 1.1534 1.1182 1.0671 1.0551
2056.291 1.0503 1.04 1.0414 1.0172 0.9866 0.9801 0.9872 0.977 0.9544 0.9363
2094.870 0.9189 0.9198 0.9303 0.9212 0.9186 0.9194 0.8941 0.842 0.81546 0.81752
2133.450 0.82317 0.8268 0.80536 0.79133 0.81415 0.82152 0.8272 0.82238 0.83088 0.83477
2172.029 0.786945 0.783397 0.80269 0.82003 0.82605 0.81668 0.80548 0.79158 0.80982 0.81538
2210.609 0.79682 0.80482 0.82022 0.83785 0.82579 0.81214 0.81397 0.81079 0.80927 0.783426
2249.188 0.764 0.781793 0.80507 0.805 0.82037 0.83312 0.8205 0.79894 0.80316 0.84933
2287.768 0.85711 0.83124 0.82977 0.82592 0.81796 0.83167 0.84853 0.84795 0.85768 0.8837
2326.347 0.87163 0.85012 0.85636 0.83987 0.83059 0.84859 0.84905 0.86188 0.85093 0.81974
2364.927 0.81335 0.80831 0.7923 0.79799 0.81998 0.80265 0.77782 0.780114 0.78491 0.77214
2403.507 0.783731 0.81273 0.80561 0.80039 0.82206 0.80356 0.77701 0.7645 0.77845 0.80619
2442.086 0.83425 0.85421 0.85914 0.86585 0.84894 0.84244 0.8387 0.82775 0.84421 0.87501
2480.666 0.84429 0.80396 0.785833 0.788457 0.77577 0.7584 0.7406 0.7344 0.77037 0.80263
2519.245 0.8154 0.80174 0.80311 0.77078 0.77621 0.784519 0.7223 0.7043 0.7225 0.7419
2557.825 0.7399 0.7269 0.7276 0.7107 0.676 0.658 0.679 0.6863 0.6827 0.6983
2596.404 0.675 0.666 0.667 0.669 0.638 0.579 0.608 0.635 0.667 0.659
2634.984 0.619 0.637 0.656 0.652 0.615 0.613 0.658 0.656 0.638 0.66
2673.563 0.653 0.64 0.659 0.641 0.627 0.655 0.6875 0.6923 0.655 0.642
2712.143 0.667 0.7024 0.7007 0.661 0.656 0.659 0.666 0.71 0.7025 0.675
2750.722 0.669 0.667 0.668 0.663 0.642 0.615 0.629 0.644 0.675 0.6913
2789.302 0.6825 0.6951 0.7166 0.7286 0.669 0.643 0.7185 0.80721 0.85127 0.8938
2827.882 0.9438 0.9358 0.9568 1.0023 1.0194 1.0539 1.1072 1.1602 1.2448 1.3695
2866.461 1.5164 1.6572 1.8 1.91 1.98 2.06 2.04 2.01 1.94 1.88
2905.041 1.92 1.91 1.98 2.07 2.16 2.26 2.36 2.43 2.48 2.5
2943.620 2.48 2.44 2.35 2.21 2.03 1.81 1.6685 1.5893 1.4697 1.3854
2982.200 1.3444 1.3462 1.3596 1.3687 1.436 1.4959 1.5256 1.6518 1.81 1.98
3020.779 2.26 2.65 3.17 3.83 4.32 4.41 4.11 3.53 2.99 2.79
3059.359 2.81 2.99 3.44 3.89 3.88 3.38 2.78 2.48 2.3 2.1
3097.938 1.95 1.767 1.6255 1.5183 1.3635 1.1976 1.0757 0.9488 0.81791 0.7599
3136.518 0.6988 0.659 0.629 0.571 0.541 0.521 0.479 0.473 0.514 0.535
3175.098 0.524 0.485 0.426 0.417 0.49 0.547 0.535 0.528 0.49 0.46
3213.677 0.473 0.442 0.45 0.51 0.473 0.427 0.452 0.49 0.446 0.415
3252.257 0.419 0.396 0.384 0.381 0.368 0.323 0.375 0.449 0.463 0.426
3290.836 0.365 0.339 0.338 0.376 0.394 0.356 0.361 0.416 0.375 0.376
3329.416 0.412 0.386 0.376 0.37 0.4 0.368 0.305 0.309 0.308 0.306
3367.995 0.364 0.361 0.324 0.34 0.325 0.331 0.356 0.379 0.41 0.396
3406.575 0.371 0.348 0.309 0.339 0.358 0.326 0.318 0.315 0.31 0.336
3445.154 0.376 0.405 0.434 0.411 0.362 0.357 0.404 0.462 0.475 0.47
3483.734 0.503 0.499 0.483 0.488 0.487 0.454 0.411 0.464 0.481 0.477
3522.314 0.572 0.571 0.565 0.6841 0.7394 0.85387 1.0444 1.2122 1.5308 1.93
3560.893 2.48 3.47 5.22 7.12 7.4 5.67 3.7 2.5 1.81 1.3499
3599.473 0.9816 0.77159 0.58 0.521 0.572 0.486 0.424 0.316 0.288 0.381
3638.052 0.427 0.414 0.313 0.21 0.289 0.315 0.258 0.332 0.329 0.285
3676.632 0.309 0.28 0.233 0.169 0.149 0.209 0.194 0.12 0.161 0.305
3715.211 0.386 0.268 0.193 0.25 0.243 0.151 0.108 0.125 0.123 0.142
3753.791 0.095 0.146 0.183 0.115 0.162 0.238 0.142 0.19 0.257 0.166
3792.370 0.115 0.154 0.228 0.271 0.235 0.106 0.123 0.222 0.113 0.126
3830.950 0.234 0.247 0.208 0.128 0.098 0.075 0.125 0.186 0.172 0.18
3869.530 0.15 0.177 0.239 0.241 0.149 0.13 0.193 0.139 0.131 0.165
3908.109 0.182 0.148 0.146 0.13 0.166 0.194 0.163 0.133 0.106 0.122
3946.689 0.05 0.029 0.056 0 0.023 0.067 0.105 0.139 0.124 0.08
3985.268 0.138 0.162 0.128 0.14 0.122
##END=
