##TITLE=DL-Hydrobenzoin
##JCAMP-DX=4.24
##DATA TYPE=INFRARED SPECTRUM
##ORIGIN=EPA-IR VAPOR PHASE LIBRARY
##OWNER=SRD/NIST
Collection (C) 2018 copyright by the U.S. Secretary of Commerce
on behalf of the United States of America. All rights reserved.
##CAS REGISTRY NO=655-48-1
##MOLFORM=C 14 H 14 O 2
##$NIST SOURCE=MSDC-IR
##STATE=gas
##XUNITS=1/CM
##YUNITS=ABSORBANCE
##XFACTOR=1.
##YFACTOR=0.001
##DELTAX=1.92898
##FIRSTX=549.8
##LASTX=4000.7
##FIRSTY=6.6932
##MAXX=4000.7
##MINX=549.759
##MAXY=0.117893
##MINY=0
##NPOINTS=1790
##XYDATA=(X++(Y..Y))
549.759 6.6932 6.3932 5.9332 6.4632 6.9532 7.8232 9.1932 11.6032 14.4832 18.1432
569.049 23.4732 27.9732 31.2332 33.2432 32.8932 31.6632 29.1832 25.2632 22.6532 21.8932
588.339 21.3332 20.5532 19.9332 19.6832 18.2932 15.9532 13.6332 11.1332 9.3132 8.3732
607.628 8.1732 7.6332 6.6032 6.3732 6.4532 6.4432 6.6932 7.0932 7.2932 7.8732
626.918 8.5932 8.8932 10.1132 10.9132 11.0332 10.8732 10.4732 9.9532 9.1932 8.4432
646.208 7.7032 7.4032 7.3132 7.2432 7.3632 7.7932 8.2632 8.3532 8.8732 9.9032
665.498 10.7932 11.4332 11.9232 12.7832 13.8532 15.2132 16.9832 19.1632 21.7432 25.2832
684.787 30.1632 36.9232 46.0732 57.6132 71.4932 86.1132 100.053 111.643 117.893 117.763
704.077 110.653 97.7432 82.5832 66.8932 52.5732 40.8932 31.8732 25.5132 21.4632 18.6732
723.367 17.0532 16.2032 15.7432 15.7832 16.3532 17.3832 18.3632 19.3832 20.5632 21.9232
742.657 23.4232 25.2132 26.5732 27.6032 29.0332 30.2232 30.8132 30.8532 30.2032 28.9332
761.947 27.7232 26.6532 25.0432 23.4032 21.4532 18.9132 16.5632 14.4432 12.3832 11.1332
781.236 10.5732 10.0032 9.9132 10.0532 10.1932 10.4632 10.5132 10.7432 11.3032 11.3032
800.526 10.9632 10.7032 10.3932 10.2532 10.1032 9.7832 9.1532 8.4832 8.2632 7.7532
819.816 7.0632 6.9132 6.7032 6.4132 6.4032 6.8432 7.6332 8.0232 8.3232 8.5832
839.106 9.1432 10.1132 10.2432 10.0132 9.9032 9.0832 7.9032 7.2932 6.9032 6.5132
858.395 6.1532 5.6832 5.4232 5.1332 5.0232 5.2132 5.0232 4.8532 4.9932 4.7532
877.685 4.7132 4.9632 4.6132 4.5632 4.7932 4.6832 4.7432 5.0232 5.4832 5.7232
896.975 5.8132 6.0632 6.6632 7.1232 7.8132 8.9332 9.3832 9.6832 9.7232 9.7332
916.265 9.5532 8.6232 8.1132 7.7832 6.9832 6.9532 7.1132 6.9132 7.0132 7.2332
935.555 7.5632 7.5232 7.8032 7.9032 7.6132 7.7132 7.5932 7.3932 7.4132 7.2232
954.844 6.9732 6.8932 6.7132 6.7332 6.8332 7.0532 7.4732 7.6932 8.0732 8.2932
974.134 8.6432 9.3432 9.8432 10.4232 10.9632 11.5832 12.2332 12.7332 13.2432 13.8432
993.424 15.0332 16.5632 18.0932 19.7032 20.8632 22.5032 24.7632 26.9132 30.1432 33.4232
1012.714 36.6332 40.8332 45.1832 49.7632 54.2032 58.3332 61.8232 63.7132 64.9432 66.0932
1032.003 66.4232 65.8032 65.2232 64.8132 65.1832 65.1132 63.5732 61.7332 59.0832 56.2132
1051.293 54.0632 52.1232 49.8032 47.5032 45.0232 41.8532 39.3432 36.9232 33.6332 30.9632
1070.583 29.7532 29.1132 29.1732 30.3432 30.9632 30.5632 30.3332 30.7332 29.7532 28.1232
1089.873 26.1532 23.5232 21.5932 19.6632 17.4232 15.9432 14.9532 13.9432 12.4132 11.9132
1109.163 12.7632 12.6932 11.5832 11.2832 10.6732 9.5632 9.0032 8.0532 8.3232 8.1932
1128.452 7.5832 7.3932 7.0732 7.3432 7.5332 7.8732 8.1632 7.7432 7.4632 8.2432
1147.742 8.9432 9.4632 10.5232 11.0932 11.3332 11.6132 11.6032 12.7832 13.9632 14.9132
1167.032 16.4532 18.6232 21.1832 22.8332 25.2032 27.1832 28.7132 30.1132 31.1432 32.2332
1186.322 32.5632 33.0332 33.1432 32.9232 32.2832 31.6332 30.4932 28.7932 27.5832 26.8732
1205.611 26.8632 25.4932 24.7332 24.2132 23.3032 23.0632 22.7932 22.5532 22.4932 22.8032
1224.901 22.3032 22.2332 22.8532 22.8732 22.3232 22.0932 21.7232 21.2232 20.4932 19.4532
1244.191 19.0232 19.0432 18.9332 18.3332 17.9432 17.7332 17.7632 18.0132 17.9232 17.8032
1263.481 17.6432 17.7132 17.8832 17.8232 17.8232 17.6232 17.4432 17.3632 16.9932 16.9132
1282.771 17.1532 17.3532 17.3732 17.4532 17.7132 17.6032 17.4832 17.7632 17.8932 18.0632
1302.060 18.3332 18.4332 18.7232 18.9632 19.1032 19.2332 19.2732 19.3132 19.5132 19.6732
1321.350 19.6832 19.8032 20.0932 20.2532 20.2632 20.0532 19.6932 19.1332 18.4632 17.7832
1340.640 17.0432 16.6032 16.1932 15.7532 15.5432 15.5732 15.6932 15.9832 16.5232 17.0332
1359.930 17.5732 18.3032 19.1432 20.0232 20.8032 21.4032 21.9832 22.3832 22.4732 22.5132
1379.219 22.4532 22.1432 21.6732 21.2532 20.7632 20.0132 19.1832 18.3732 17.5832 16.7032
1398.509 15.7232 14.7932 13.7632 12.7832 11.9232 11.0332 10.2432 9.6932 9.2532 8.7332
1417.799 8.3132 8.0932 7.8432 7.5332 7.2432 7.1832 7.2832 7.3032 7.3132 7.6532
1437.089 8.4632 9.5032 10.8732 12.7632 14.9632 17.2432 19.3432 20.8732 21.5232 20.9332
1456.378 19.2732 17.0932 14.7132 12.2732 10.0232 8.5032 7.5032 6.9032 6.7232 6.6532
1475.668 6.8432 7.2432 7.7632 8.4632 9.3632 10.7132 12.5332 14.6432 16.7132 18.2532
1494.958 18.9432 18.7732 17.7132 15.6432 13.0232 10.3432 8.1732 6.4832 5.1032 4.1732
1514.248 3.5332 3.2232 3.1232 2.9932 2.9032 2.8232 2.7432 2.8932 3.1032 3.0732
1533.538 3.1032 3.2032 3.3032 3.2932 3.0432 2.8232 2.6932 2.5632 2.4732 2.3932
1552.827 2.3332 2.2832 2.1232 2.0232 1.8432 1.8632 1.8332 1.9132 2.2232 2.4232
1572.117 2.7132 2.8332 2.8932 3.0932 3.4232 3.7332 4.1432 4.6232 4.8332 4.9832
1591.407 5.3332 5.7832 6.3332 6.9332 7.3532 7.6332 7.6632 7.4132 6.9632 6.0532
1610.697 5.0332 4.1832 3.3632 2.6232 2.1932 1.8732 1.7632 1.7032 1.6432 1.6132
1629.986 1.3832 1.2732 1.3532 1.4332 1.4132 1.5032 1.5732 1.4632 1.3632 1.4232
1649.276 1.5932 1.6032 1.5432 1.6632 1.8032 1.8332 1.7732 1.8332 1.9332 1.8732
1668.566 1.8432 1.8932 1.8732 1.7732 1.6732 1.6432 1.6232 1.5732 1.5932 1.5432
1687.856 1.3632 1.3532 1.3532 1.2332 1.2932 1.3132 1.2132 1.1632 1.2832 1.4332
1707.146 1.5132 1.4532 1.4432 1.5432 1.5932 1.5332 1.4632 1.5132 1.5032 1.6232
1726.435 1.8032 1.8532 1.8432 1.8732 1.9732 1.9832 2.0632 2.1332 2.1232 2.1832
1745.725 2.2332 2.3032 2.2932 2.1732 2.1532 2.1232 2.0432 2.0332 1.9232 1.7432
1765.015 1.6432 1.6532 1.7432 1.7532 1.8332 2.0832 2.2132 2.1032 2.0732 2.0832
1784.305 2.1332 2.5032 2.9132 3.2732 3.6632 4.0632 4.5332 4.7932 4.8332 4.7632
1803.594 4.5832 4.3032 3.8332 3.3132 2.9232 2.7532 2.4632 2.1832 2.1732 2.0932
1822.884 1.8632 1.6932 1.5332 1.4732 1.3432 1.2532 1.2532 1.1932 1.2332 1.1632
1842.174 1.0632 1.1032 1.2032 1.2532 1.2732 1.3832 1.4932 1.6432 1.8332 2.0132
1861.464 2.0932 2.1532 2.3732 2.6132 2.8732 3.0932 3.1832 3.2332 3.2132 3.2232
1880.754 3.2732 3.2132 3.1032 3.0632 3.0532 3.0032 2.9232 2.7432 2.4432 2.1232
1900.043 1.9332 1.7632 1.4132 1.1932 1.1232 1.0832 1.1932 1.2032 1.1932 1.2432
1919.333 1.3632 1.4332 1.4932 1.7232 2.0032 2.2932 2.5532 2.8532 3.2732 3.8032
1938.623 4.1432 4.3532 4.5832 4.5232 4.3432 4.2132 4.1532 4.1132 3.9832 3.8232
1957.913 3.6332 3.3932 3.0732 2.6832 2.2532 1.8032 1.3832 1.0832 0.9687 0.8647
1977.202 0.8089 0.7515 0.7373 0.7454 0.7595 0.7927 0.7215 0.5718 0.5183 0.585
1996.492 0.5978 0.5118 0.533 0.6347 0.6164 0.5879 0.4873 0.3422 0.2565 0.398
2015.782 0.4843 0.4115 0.452 0.3754 0.354 0.4421 0.4792 0.5091 0.5431 0.482
2035.072 0.4364 0.4396 0.4083 0.3625 0.3162 0.371 0.3493 0.3851 0.4839 0.5213
2054.362 0.5063 0.4795 0.5664 0.6361 0.6326 0.6251 0.6315 0.5853 0.4783 0.3955
2073.651 0.3759 0.4875 0.4684 0.4851 0.4823 0.4775 0.5335 0.5059 0.5442 0.5003
2092.941 0.3946 0.3672 0.541 0.5209 0.3053 0.3402 0.4023 0.424 0.4829 0.3995
2112.231 0.4338 0.5473 0.4371 0.4158 0.4276 0.3711 0.3711 0.4056 0.4834 0.4611
2131.521 0.3471 0.2886 0.3045 0.325 0.2572 0.2192 0.2035 0.267 0.4389 0.5009
2150.810 0.4098 0.3162 0.2698 0.2947 0.3565 0.2988 0.208 0.2151 0.2088 0.2346
2170.100 0.3643 0.3914 0.3911 0.3587 0.3588 0.3323 0.3031 0.2916 0.2137 0.2732
2189.390 0.4235 0.3949 0.2954 0.384 0.4159 0.333 0.2623 0.2432 0.1677 0.2124
2208.680 0.354 0.4407 0.6491 0.6483 0.5099 0.4453 0.3206 0.3459 0.4098 0.3455
2227.970 0.3728 0.3841 0.4152 0.4336 0.4842 0.4805 0.3624 0.3706 0.3799 0.3906
2247.259 0.3278 0.3051 0.3555 0.4339 0.3792 0.2925 0.5177 0.6844 0.6489 0.5791
2266.549 0.5566 0.5281 0.5072 0.6542 0.7471 0.6907 0.6576 0.6164 0.5277 0.4443
2285.839 0.3882 0.4903 0.6738 0.6897 0.6262 0.5748 0.5427 0.584 0.4963 0.3946
2305.129 0.6082 0.7095 0.6825 0.7124 0.8397 0.9954 1.0532 0.9758 0.9175 0.7424
2324.418 0.5541 0.6397 0.7324 0.8035 0.8132 0.8975 0.8805 0.9711 1.0314 0.8925
2343.708 0.8451 0.7785 0.7938 0.7379 0.5961 0.5325 0.675 0.7663 0.7431 0.8327
2362.998 0.5824 0.373 0.4448 0.5054 0.6623 0.5335 0.5043 0.6429 0.5829 0.6096
2382.288 0.6482 0.5773 0.4832 0.5301 0.4756 0.4371 0.4926 0.496 0.5758 0.5602
2401.578 0.5141 0.6222 0.6571 0.5263 0.5807 0.6014 0.5764 0.7498 0.8049 0.6396
2420.867 0.7087 0.7753 0.5909 0.4718 0.4345 0.5849 0.7402 0.7138 0.6551 0.6131
2440.157 0.5955 0.4079 0.3547 0.4751 0.3909 0.4892 0.5914 0.6296 0.644 0.4951
2459.447 0.5061 0.542 0.5818 0.5341 0.4133 0.4877 0.4988 0.5959 0.5306 0.4273
2478.737 0.4521 0.5963 0.6614 0.483 0.4497 0.4232 0.4553 0.4698 0.4698 0.4667
2498.026 0.5447 0.578 0.4401 0.5118 0.584 0.4366 0.4493 0.5948 0.5906 0.538
2517.316 0.462 0.4882 0.6913 0.78 0.7129 0.6116 0.603 0.5877 0.4546 0.4646
2536.606 0.48 0.5921 0.7378 0.7336 0.7518 0.6543 0.5132 0.5792 0.7409 0.8093
2555.896 0.8239 0.8391 0.7933 0.7047 0.7729 0.7902 0.8614 1.0266 0.9289 0.8509
2575.186 1.1632 1.2432 0.8457 0.6928 0.7734 0.8518 0.9621 0.8596 0.8559 1.0332
2594.475 1.0832 1.0432 0.9595 0.9431 1.0231 1.0632 0.9959 0.874 0.982 1.0932
2613.765 0.9705 0.813 0.8253 0.8909 0.7974 0.6392 0.8436 0.9535 0.673 0.5326
2633.055 0.6622 0.8715 0.8365 0.6154 0.4654 0.5293 0.5839 0.6324 0.7077 0.7556
2652.345 0.7603 0.8098 0.7682 0.7528 0.7657 0.7297 0.7604 0.7695 0.8783 0.7894
2671.634 0.7182 0.7249 0.6975 0.6081 0.5505 0.7345 0.8155 0.6935 0.5647 0.555
2690.924 0.5642 0.5972 0.602 0.5579 0.5902 0.5809 0.6448 0.8327 0.5951 0.4436
2710.214 0.8379 0.911 0.7074 0.6794 0.6852 0.7641 0.7939 0.773 0.8336 0.8843
2729.504 0.7166 0.6195 0.6933 0.6947 0.902 1.0732 0.8348 0.7623 0.7752 0.7216
2748.794 0.8563 1.0532 1.0732 0.9679 0.9236 1.0096 1.2732 1.2932 1.2832 1.3032
2768.083 1.2432 1.2332 1.4032 1.4632 1.3332 1.4732 1.6432 1.5032 1.3232 1.5032
2787.373 1.6532 1.5332 1.5332 1.5532 1.5332 1.6932 1.7532 1.5132 1.3632 1.4232
2806.663 1.6632 1.7332 1.5732 1.6932 1.8232 1.7932 1.8332 2.0532 2.1932 2.2832
2825.953 2.2832 2.2832 2.3132 2.3032 2.4332 2.6732 2.8832 3.0832 3.2732 3.4532
2845.242 3.7532 3.9532 4.1832 4.3632 4.4132 4.7032 5.0132 5.4032 5.9532 6.4632
2864.532 7.0432 7.6532 8.3932 9.3332 10.1432 10.9732 11.9732 13.0732 14.0432 14.9432
2883.822 16.0732 17.0932 18.2432 19.4132 20.6532 21.9332 22.7232 23.3632 23.8832 24.0332
2903.112 23.7732 23.3432 22.4732 21.3232 20.1932 18.8032 17.3232 15.9632 14.8232 13.5332
2922.401 12.3632 11.1632 9.9932 9.2432 8.3832 7.6032 6.8232 6.0132 5.5132 5.1032
2941.691 4.6232 4.1032 3.5732 3.1532 2.8632 2.6632 2.6032 2.2832 1.9532 2.0232
2960.981 2.0732 1.9632 2.0332 2.1332 2.0232 1.6832 1.7032 1.7732 1.8132 1.8632
2980.271 1.9032 2.1132 2.1632 2.3032 2.3632 2.4632 2.7032 2.9332 3.1632 3.4032
2999.561 3.8932 4.4632 4.9132 5.4532 6.0532 6.5232 7.3132 8.3732 9.3532 10.9832
3018.850 13.3932 16.0332 18.9732 22.3832 26.2432 30.2332 33.6432 36.3732 38.5132 39.5432
3038.140 38.9432 37.0332 34.5232 31.6532 28.5832 26.0232 24.1532 22.9532 22.8832 24.0232
3057.430 25.9732 28.6432 32.4632 37.1132 42.0632 46.9132 50.3132 51.6432 51.1432 48.6132
3076.720 44.4732 39.7132 34.8632 31.0132 28.6032 26.8232 25.5132 24.6132 23.5532 22.0332
3096.009 20.1132 17.9932 16.1832 14.4532 12.8832 11.7032 10.5132 9.3932 8.5732 7.7432
3115.299 6.8932 6.0432 5.1232 4.2932 3.6132 2.8932 2.2832 1.9532 1.9232 1.8032
3134.589 1.7032 1.5932 1.3732 1.2932 1.4232 1.3432 1.1032 0.9548 0.9467 1.0632
3153.879 1.0732 0.9549 1.0732 1.2932 1.2732 1.1632 0.937 1.1732 1.3932 1.1832
3173.169 0.8503 0.6126 0.5832 0.5421 0.608 0.6691 0.5673 0.4568 0.2881 0.1683
3192.458 0.2367 0.3018 0.2949 0.3809 0.5008 0.4836 0.3934 0.4546 0.41 0.1606
3211.748 0.1847 0.2054 0.12928 0.3377 0.5253 0.3915 0.1589 0 0.11636 0.4075
3231.038 0.5736 0.5504 0.5003 0.3176 0.07415 0.0128 0.2055 0.2429 0.12778 0.1839
3250.328 0.1358 0.3015 0.2072 0.1726 0.2861 0.267 0.3396 0.3642 0.3686 0.1881
3269.617 0.2354 0.3492 0.3906 0.435 0.5848 0.5203 0.4384 0.5658 0.6755 0.802
3288.907 0.6347 0.5494 0.5245 0.5748 0.6235 0.4993 0.56 0.687 0.7792 0.7657
3308.197 0.5448 0.4939 0.7021 0.5771 0.3295 0.4937 0.6884 0.7478 0.8053 0.7465
3327.487 0.6444 0.6589 0.6356 0.5278 0.7443 0.7912 0.6503 0.8225 0.8056 0.647
3346.777 0.7253 0.8452 0.794 0.7239 0.7097 0.876 0.7346 0.4071 0.4493 0.3791
3366.066 0.2871 0.4452 0.5141 0.4384 0.5471 0.72 0.5052 0.4707 0.7815 0.9376
3385.356 0.6834 0.4974 0.5708 0.7161 0.9494 1.021 1.0532 0.8163 0.8042 0.9952
3404.646 1.0281 1.1032 1.0732 0.9457 0.9124 0.7925 0.7139 0.7306 0.5492 0.4621
3423.936 0.6236 0.9395 0.8961 0.9245 1.0332 0.7668 0.5464 0.8028 1.0532 0.8313
3443.225 0.7846 0.8965 0.9583 0.9725 0.8389 0.8277 0.8395 0.9146 0.9379 0.8095
3462.515 0.8179 0.6741 0.7855 0.9057 0.9996 1.2832 1.3932 1.0532 0.8232 1.1732
3481.805 1.1832 1.1732 1.1632 1.021 1.2032 1.1932 1.1732 1.1832 1.1232 0.9667
3501.095 0.9209 1.1732 1.2532 1.1032 0.962 0.8069 0.6995 0.908 1.1632 1.2732
3520.385 1.2232 1.1732 1.2832 1.1132 1.0234 1.3232 1.3532 1.4632 1.4732 1.4332
3539.674 1.6432 1.7832 1.7732 1.7132 1.7832 1.8432 2.0232 2.0732 1.9932 2.1132
3558.964 2.3132 2.3732 2.4432 2.5532 2.7532 2.9532 3.1532 3.3632 3.4232 3.5432
3578.254 3.8532 4.3332 4.7732 5.1932 5.7232 6.0432 6.3032 6.8432 7.4432 7.8632
3597.544 8.4232 9.3032 10.6332 12.3632 14.0532 16.4232 19.6332 22.7532 25.5932 27.6932
3616.833 29.0832 29.3432 28.5832 27.3232 25.0632 22.7932 20.8832 19.2532 17.9832 17.0932
3636.123 16.7132 16.9432 17.6432 18.4832 19.2632 19.9732 20.5232 20.7232 20.7832 19.9132
3655.413 18.1432 16.1632 13.8332 11.4632 9.5132 8.1132 6.8432 5.7732 5.0432 4.5532
3674.703 4.1432 3.8632 3.7732 3.4632 3.1432 3.0132 2.7632 2.7632 2.6232 2.2232
3693.993 2.1832 1.9132 1.6932 1.9132 1.7132 1.3932 1.5732 1.5432 1.5732 1.9732
3713.282 1.9732 1.5632 1.3632 1.5132 1.5132 1.4932 1.3732 1.2132 1.0632 0.8494
3732.572 0.845 0.7943 0.974 1.2032 1.1632 0.9152 0.8257 0.9355 1.1832 1.2532
3751.862 0.9001 0.8443 1.0932 0.9141 0.5438 0.4513 0.5898 0.7358 0.8672 0.8248
3771.152 0.5107 0.44 0.6669 0.654 0.5754 0.613 0.5654 0.5544 0.5825 0.6957
3790.441 0.5278 0.2452 0.368 0.5827 0.5457 0.7816 0.9037 0.8836 0.8652 0.5745
3809.731 0.5139 0.7391 0.7146 0.4355 0.4698 0.7185 0.7401 0.6769 0.9727 1.1032
3829.021 1.1532 0.9483 0.4351 0.2929 0.4064 0.47 0.7566 1.0204 0.789 0.5764
3848.311 0.4053 0.6836 1.2132 1.3332 1.3632 0.9985 0.6931 0.7709 0.6608 0.852
3867.601 1.1832 1.1932 1.0832 1.1832 1.1132 0.9711 0.9681 0.9586 0.9236 0.9544
3886.890 1.1432 1.1932 1.4532 1.6632 1.5032 1.3132 1.1232 1.1632 1.2532 1.1232
3906.180 1.0932 1.2732 1.4132 1.3432 1.1732 1.0303 0.9186 0.938 1.1332 1.2532
3925.470 0.9855 0.8507 0.9303 1.1032 1.3432 1.2132 1.2332 1.2932 1.2532 1.1532
3944.760 0.793 0.7086 0.7142 0.602 0.703 0.525 0.3348 0.6071 0.6245 0.6696
3964.049 0.7688 0.7835 0.8391 0.6006 0.4954 0.5274 0.5363 0.823 0.9444 0.516
3983.339 0.42 0.4835 0.4495 0.2855 0.11753 0.4885 0.8269 0.8001 0.6623 0.5124
##END=
