##TITLE=2-Fluorobenzyl mercaptan
##JCAMP-DX=4.24
##DATA TYPE=INFRARED SPECTRUM
##ORIGIN=EPA-IR VAPOR PHASE LIBRARY
##OWNER=SRD/NIST
Collection (C) 2018 copyright by the U.S. Secretary of Commerce
on behalf of the United States of America. All rights reserved.
##CAS REGISTRY NO=655-20-9
##MOLFORM=C 7 H 7 F S
##$NIST SOURCE=MSDC-IR
##STATE=gas
##XUNITS=1/CM
##YUNITS=ABSORBANCE
##XFACTOR=1.
##YFACTOR=0.001
##DELTAX=1.92898
##FIRSTX=549.8
##LASTX=4000.7
##FIRSTY=1.7894
##MAXX=4000.7
##MINX=549.759
##MAXY=0.09544
##MINY=0
##NPOINTS=1790
##XYDATA=(X++(Y..Y))
549.759 1.7894 1.6949 1.0577 0.918 1.16013 1.16177 1.3661 2.1 2.87 2.14
569.049 2.0254 2.45 3.01 2.83 2.49 3.38 3.39 2.35 1.7412 1.887
588.339 1.7731 1.7286 2.33 2.0971 1.0432 0.605 0.858 1.2404 1.0142 0.312
607.628 0.285 0.644 0.496 0.133 0.487 1.16663 1.4145 0.465 0 0.702
626.918 0.526 1.4437 2.0123 1.6191 1.6292 1.4569 1.7161 2.36 2.53 2.41
646.208 2.63 3.04 3.05 2.97 3.15 3.71 4.4 4.96 6.22 7.28
665.498 8.36 9.55 10.11 11.27 12.32 12.7 12.38 11.68 11.3 10.23
684.787 8.93 8.29 7.79 6.7 6.04 5.72 4.73 4.26 3.94 3.16
704.077 2.76 3.15 3.3 3.05 3.29 4.11 4.57 4.93 5.72 6.36
723.367 7.53 8.39 9.7 12.25 15.16 19.25 24.81 30.71 37.15 43.77
742.657 49.65 55.96 63.22 73 86.66 95.44 87.49 72.99 64.44 58.65
761.947 53.29 47.89 41 34.13 27.82 21.53 16.74 13.4 11.14 9.34
781.236 7.71 6.24 5.12 4.87 4.67 4.27 4.26 4.2 4.33 4.61
800.526 3.97 3.19 2.47 2.44 3.41 3.58 3.68 4.41 4.07 3.7
819.816 4.12 4.96 6.38 5.65 5.78 7.14 8.04 9.56 10.36 10.94
839.106 12.18 14.25 15.02 15.36 15.32 14.7 15.18 15.35 14.81 13.82
858.395 12.63 11.62 10.33 8.76 7.54 7.02 6.86 6.25 5.24 4.41
877.685 3.69 3.4 3.52 3.06 2.99 3.39 3.07 2.93 2.62 2.69
896.975 3.22 3.01 2.76 2.79 2.65 2.64 2.77 2.62 2.0774 2.0225
916.265 2.47 2.37 2.56 2.67 2.99 3.51 3.79 4.13 4.25 4.42
935.555 4.76 4.77 4.36 4.25 4.28 4.03 4.01 4.11 4.45 4.61
954.844 3.85 3.67 4.02 4.31 4.49 4.47 4.49 4.62 4.33 3.91
974.134 4.56 5.02 4.75 4.36 4.39 4.47 4.15 4.02 4.05 4.01
993.424 3.44 3.48 4.17 4.08 3.38 3.39 3.88 3.81 3.7 3.56
1012.714 3.5 3.49 3.69 4.37 5.44 6.61 8.09 8.93 9.44 9.58
1032.003 8.5 8.64 9.01 7.84 6.79 6.02 5.67 5.71 4.61 3.62
1051.293 2.68 2.62 3.16 3.08 3.21 2.84 2.28 2.52 3.62 4.52
1070.583 4.83 4.88 5.66 5.44 5.64 8.72 10.26 11.28 14.13 16.38
1089.873 17.32 19.63 20.32 19.93 20.36 19.33 18.68 17.86 15.31 13.25
1109.163 11.62 10.63 9.77 8.13 7.41 5.58 4.32 5.12 5.26 3.86
1128.452 2.8 2.63 3.62 3.4 2.3 2.9 3.37 3.14 2.52 2.42
1147.742 3.46 3.88 2.93 3.21 3.88 3.84 3.76 3.8 5.01 6.63
1167.032 7.18 7.27 7.83 8.87 9.14 8.67 8.89 8.63 10.01 12.14
1186.322 12.51 12.17 12.15 12.72 11.86 11.02 10.94 12.17 11.26 10.48
1205.611 12.73 13.12 12.25 13.27 14.78 15.75 19.66 24.14 30.7 38.64
1224.901 43.8 49.29 55.35 60.9 65.05 67.31 68.52 70.39 71.02 69.37
1244.191 65.01 57.65 50.63 44.13 38.18 32.3 27.19 22.65 18.55 16.09
1263.481 13.81 11.71 10.87 10.23 8.98 7.83 7.83 8.27 7.98 6.82
1282.771 6.01 5.79 5.9 5.65 4.78 4.39 4.09 3.61 2.86 2.55
1302.060 2.69 2.35 1.9204 1.8386 1.6436 1.516 1.5986 1.5459 1.4418 1.2824
1321.350 0.938 1.0621 1.2711 1.0432 0.85 0.892 1.0268 0.984 1.11737 1.3857
1340.640 1.4994 1.2562 1.13876 1.18294 1.15773 1.3743 1.4907 1.5586 1.6117 1.6541
1359.930 1.5351 1.2963 1.4684 1.7062 1.743 1.7757 1.9072 1.9068 1.8249 1.8843
1379.219 1.9811 2.33 2.53 2.48 2.55 2.64 2.68 2.65 2.82 2.79
1398.509 2.65 2.96 3.11 3.16 3.25 3.26 3.35 3.62 3.99 4.19
1417.799 4.7 5.36 5.88 6.47 7.09 7.82 8.64 9.47 10.51 11.86
1437.089 13.36 14.58 16.1 17.98 19.88 21.92 23.75 25.08 26.17 27.03
1456.378 27.64 28.08 28.23 28.21 28.06 27.89 27.81 28.14 29.58 31.57
1475.668 34.29 38.42 43.09 48.44 53.76 58.41 62.11 64.23 65.22 65.26
1494.958 64.08 61.43 57.88 53.4 47.73 41.45 34.69 28.76 23.99 20.1
1514.248 17.1 14.34 12.11 10.46 8.79 7.64 6.65 5.82 5.18 4.63
1533.538 4.32 4.18 4.07 3.92 3.93 4.1 4.08 3.89 4.11 4.33
1552.827 4.53 4.54 4.66 5.32 6.24 6.99 7.44 8.15 9.47 10.71
1572.117 12.18 13.61 14.96 16.58 17.69 18.7 19.31 19.7 19.92 19.8
1591.407 19.59 19.1 18.13 16.47 14.77 13.04 11.56 10.66 10.14 9.55
1610.697 8.65 7.95 7.31 6.64 6.16 5.55 4.83 4.06 3.39 3.15
1629.986 2.76 2.29 2.0305 1.6388 1.3729 1.5594 1.7467 1.554 1.5133 1.5422
1649.276 1.6066 1.6188 1.4626 1.4385 1.4679 1.5872 1.5523 1.3899 1.4941 1.7692
1668.566 1.7867 1.7264 1.878 2.0155 2.14 2.36 2.47 2.64 2.68 2.58
1687.856 2.72 2.76 2.68 2.5 2.26 2.27 2.49 2.42 2.16 2.11
1707.146 1.8142 1.6203 1.7675 1.8992 1.8397 1.5234 1.4593 1.5508 1.7191 1.7328
1726.435 1.6881 1.6654 1.6801 1.5752 1.2394 1.2782 1.4775 1.4221 1.11383 1.0556
1745.725 1.2073 1.3006 1.3004 1.276 1.3114 1.475 1.2671 1.13315 1.4224 1.4521
1765.015 1.6477 1.8691 1.9704 2.3 2.42 2.47 2.75 3.01 3.31 3.41
1784.305 3.35 3.27 3.24 3.22 3.17 3.09 2.86 2.44 2.2 2.0638
1803.594 1.9752 1.9197 1.8072 1.8545 1.8739 1.9949 2.12 2.17 2.15 2.22
1822.884 2.4 2.39 2.17 2.05 2.0371 1.887 1.7257 1.7052 1.5709 1.4565
1842.174 1.3987 1.3532 1.4073 1.3999 1.3969 1.4959 1.583 1.5975 1.8002 1.8758
1861.464 1.9061 1.8507 1.7567 1.8692 1.8674 1.9362 1.9304 1.8432 1.9325 1.9951
1880.754 2.0176 2.21 2.25 2.32 2.71 2.75 2.86 3.34 3.69 3.82
1900.043 3.86 3.87 3.73 3.72 3.88 3.48 3.03 2.9 2.67 2.56
1919.333 2.59 2.51 2.32 2.39 2.58 2.96 3.22 3.26 3.21 3.17
1938.623 3.15 2.84 2.74 2.86 2.67 2.37 2.15 2.0753 2.0839 1.7478
1957.913 1.569 1.6291 1.4694 1.4616 1.4985 1.4306 1.5238 1.5651 1.5023 1.4819
1977.202 1.2788 1.4003 1.4788 1.5908 1.6747 1.5005 1.6463 1.7234 1.4973 1.392
1996.492 1.5871 1.5728 1.4243 1.4184 1.5643 1.5284 1.454 1.5294 1.6943 1.6419
2015.782 1.436 1.3819 1.3131 1.3165 1.263 1.1931 1.3061 1.313 1.19728 1.3057
2035.072 1.357 1.4165 1.4233 1.3406 1.2722 1.2015 1.10374 1.17111 1.3593 1.2338
2054.362 1.2094 1.2828 1.4896 1.663 1.5715 1.5694 1.5142 1.4772 1.5424 1.6777
2073.651 1.5311 1.3348 1.4114 1.4829 1.6397 1.6115 1.512 1.6209 1.521 1.5198
2092.941 1.6834 1.6604 1.4677 1.3464 1.4477 1.4917 1.3564 1.2983 1.3465 1.2526
2112.231 1.2109 1.3236 1.4698 1.3682 1.2729 1.3691 1.3709 1.2746 1.2413 1.19469
2131.521 1.0569 1.17739 1.237 1.2253 1.36 1.3541 1.2687 1.2337 1.2986 1.418
2150.810 1.3689 1.2929 1.3559 1.3885 1.2486 1.3338 1.4283 1.17586 1.3168 1.4318
2170.100 1.3027 1.2356 1.4803 1.4135 1.3421 1.6515 1.5543 1.7057 1.5911 1.3582
2189.390 1.4712 1.3913 1.2925 1.4841 1.732 1.5242 1.4587 1.5973 1.6591 1.5437
2208.680 1.3852 1.279 1.362 1.4624 1.3988 1.3976 1.2565 1.2589 1.342 1.2483
2227.970 1.3349 1.5108 1.5597 1.698 1.7027 1.5543 1.5068 1.5115 1.4167 1.5848
2247.259 1.758 1.5188 1.4147 1.4396 1.4207 1.5697 1.6318 1.7098 1.7736 1.5988
2266.549 1.5361 1.6423 1.6087 1.406 1.362 1.4217 1.5306 1.3889 1.2942 1.3955
2285.839 1.3597 1.4618 1.582 1.5272 1.4383 1.5525 1.7124 1.9645 2.0587 1.8086
2305.129 2.0174 1.892 1.4765 1.6545 1.891 1.8716 1.8512 1.6976 1.6111 1.7541
2324.418 1.7547 1.848 1.9447 1.9636 1.981 2.0998 1.9609 1.7247 1.5647 1.3535
2343.708 1.4093 1.4811 1.5041 1.595 1.5835 1.444 1.3812 1.5839 1.4701 1.2272
2362.998 1.2847 1.2899 1.2512 1.3811 1.4451 1.4059 1.3246 1.2243 1.3805 1.3281
2382.288 1.14124 1.0845 1.16731 1.382 1.5011 1.6364 1.6018 1.5092 1.4828 1.4924
2401.578 1.4825 1.3277 1.4049 1.6001 1.5978 1.6491 1.6784 1.5177 1.5144 1.6129
2420.867 1.7747 1.826 1.714 1.6948 1.725 1.7661 1.6488 1.6698 1.7141 1.6403
2440.157 1.8225 2.0308 2.13 1.9589 1.8682 2.0484 1.9831 2.0111 2.18 2.35
2459.447 2.36 2.23 2.12 1.9047 1.9817 2.15 2.18 2.18 1.915 1.5708
2478.737 1.5231 1.6843 1.9356 1.8875 1.5601 1.3375 1.3578 1.3758 1.2725 1.4
2498.026 1.6933 1.5884 1.3888 1.5732 1.524 1.3741 1.5866 1.4234 1.15896 1.2557
2517.316 1.19801 1.2545 1.4362 1.4649 1.4978 1.8977 1.8989 1.5203 1.2514 1.14788
2536.606 1.3894 1.4813 1.622 1.8274 1.6924 1.5618 1.437 1.4798 1.3235 1.11417
2555.896 1.5361 1.9498 2.0472 1.9309 1.7167 1.4885 1.5026 1.6467 2.0001 2.42
2575.186 2.58 2.62 2.64 2.67 2.43 2.31 2.64 2.76 2.79 2.83
2594.475 2.46 2.29 2.32 2.21 2.57 2.61 2.0608 1.8926 2.0128 2.0593
2613.765 1.6434 1.5974 1.823 1.8028 1.6298 1.4761 1.5424 1.5242 1.6378 1.6714
2633.055 1.6287 1.6379 1.4073 1.3141 1.3232 1.2999 1.7 1.9943 1.9074 1.7171
2652.345 1.5559 1.386 1.4627 1.4636 1.2804 1.4859 1.7433 1.7538 1.5533 1.4382
2671.634 1.5689 1.7233 1.7828 1.769 1.6227 1.388 1.4166 1.692 1.7961 1.7139
2690.924 1.8429 1.8421 1.8246 1.8465 1.7334 1.6439 1.5112 1.4871 1.7081 1.948
2710.214 1.989 2.12 2.17 1.7924 1.56 1.4378 1.3314 1.7148 1.9609 1.7566
2729.504 1.5375 1.4414 1.6023 1.7825 1.6039 1.4446 1.5324 1.6418 1.5828 1.3181
2748.794 1.09723 0.979 1.317 1.5155 1.104 0.757 0.748 1.0798 1.2544 1.13103
2768.083 1.0834 1.69 1.9392 1.6407 1.4564 1.2989 1.4516 1.4367 1.3632 1.541
2787.373 1.3371 1.18667 1.4308 1.15953 1.0535 1.5143 1.3271 1.17851 1.3775 1.5501
2806.663 1.8095 1.6784 1.3539 1.2642 1.2584 1.2802 1.3688 1.6152 1.8607 1.7346
2825.953 1.6338 1.8613 1.9388 1.7251 1.8559 2.31 2.2 2.24 2.51 2.0835
2845.242 2.0297 2.19 1.9853 2.16 2.4 2.33 2.23 2.32 2.75 2.84
2864.532 2.48 2.35 2.11 1.9882 2.5 2.6 2.29 2.21 2.4 2.5
2883.822 2.0619 1.7636 2.25 2.34 1.7181 1.7619 2.43 2.71 2.37 2.16
2903.112 2.0896 2.0754 2.16 2.38 2.6 2.31 2.47 2.76 2.94 3.41
2922.401 3.58 3.62 3.91 4.07 4.22 4.59 5.48 6.25 6.51 6.85
2941.691 7.12 7.72 8.74 9.12 9.27 9.38 9.4 9.58 9.09 8.92
2960.981 8.88 8.06 7.43 6.9 5.94 5.41 5.23 4.57 4.19 4.06
2980.271 4 4.02 3.68 3.67 3.76 3.73 3.84 3.64 3.47 3.61
2999.561 3.6 3.74 3.75 3.4 3.12 3.12 3.2 3.29 3.49 3.94
3018.850 4.4 4.52 4.82 5.31 6 7.42 8.33 8.76 9.52 9.9
3038.140 10.48 11.51 11.73 11.35 11.58 12.14 12.45 12.54 12.34 12.42
3057.430 12.68 12.88 12.89 13.19 13.42 13.77 14.66 15.61 16.06 16.08
3076.720 16.16 15.91 16.11 16.51 16.61 15.7 14.33 13.19 12.35 11.08
3096.009 9.82 9.01 8.13 7.24 6.29 5.48 4.26 3.77 3.82 3.58
3115.299 3.08 2.74 2.8 2.24 2.0874 2.17 2.23 2.46 1.9159 1.4193
3134.589 1.381 1.2261 1.3599 1.5893 1.6636 1.8033 1.3531 1.0023 0.855 0.902
3153.879 1.2504 1.5313 1.5106 1.2889 1.3385 1.537 1.4216 1.15771 1.6009 1.798
3173.169 1.4476 1.2137 1.4319 1.7187 1.6993 1.8139 1.7439 1.6272 1.8041 1.7434
3192.458 1.358 1.15732 1.2642 1.813 1.9205 1.6824 1.2659 1.16787 1.19999 0.889
3211.748 1.6357 2.092 1.3773 0.834 0.914 1.539 1.643 1.3669 1.246 1.14712
3231.038 1.09682 0.726 0.643 1.17186 1.16216 0.935 1.0342 1.2637 1.5147 1.4092
3250.328 1.2315 1.12701 1.15752 1.4529 1.9786 2.1 1.8354 1.5024 0.882 0.687
3269.617 0.966 1.014 1.31 1.0318 0.738 1.1366 1.0782 0.925 1.386 1.8716
3288.907 1.6928 1.5615 1.467 1.4362 1.4634 0.939 0.806 0.918 1.2974 1.5399
3308.197 1.4125 1.3423 1.4026 1.045 0.732 0.86 0.99 1.3188 1.2038 1.13832
3327.487 1.11248 0.718 0.68 0.661 0.682 1.16428 1.049 0.783 0.295 0.271
3346.777 1.0789 1.2556 1.15888 1.19858 1.291 1.3922 1.468 1.2751 0.728 0.911
3366.066 1.2959 0.867 0.968 1.2713 1.09546 1.14317 1.19006 1.5051 1.4274 0.991
3385.356 0.878 0.757 1.0844 1.12364 0.759 0.825 1.12594 1.17631 0.704 1.10915
3404.646 1.7866 1.4934 1.2046 0.983 1.13701 1.2658 1.39 1.9798 1.462 1.0007
3423.936 1.6399 1.5966 1.4676 1.4841 1.078 0.799 0.943 0.992 0.85 0.713
3443.225 0.7 0.594 0.743 1.17416 0.769 0.541 0.928 1.2015 1.0028 0.809
3462.515 1.19622 1.18866 1.5925 1.6925 1.471 1.10557 0.728 1.10061 0.818 0.309
3481.805 0.414 0.792 0.941 1.10548 1.13341 0.908 0.656 0.734 0.923 1.0888
3501.095 1.043 0.675 0.71 0.783 0.931 1.2426 1.0686 1.0864 1.3359 1.5808
3520.385 0.731 0.179 1.0116 1.4092 0.946 0.829 1.0772 0.685 0.574 0.68
3539.674 0.321 0.313 0.963 1.14169 1.0175 1.2657 1.6743 1.6338 1.0883 0.981
3558.964 1.3559 1.461 1.553 1.316 0.797 0.624 0.838 0.886 0.297 0.504
3578.254 1.17858 1.063 1.0049 0.753 1.0261 1.8491 2.0334 1.4806 1.0863 0.94
3597.544 1.2216 1.6537 1.2969 1.393 1.4885 1.11549 0.963 1.2709 1.4981 1.386
3616.833 1.3026 1.0374 0.607 0.517 0.643 1.0093 1.2887 1.3942 0.998 0.72
3636.123 1.2861 1.5589 1.10378 1.0492 1.0406 1.0458 1.3172 0.975 0.794 1.4083
3655.413 1.4634 0.939 0.73 0.818 1.7637 2.0292 1.0484 1.0448 1.15801 1.0348
3674.703 1.2956 1.0454 0.458 0.232 0.99 1.3846 0.937 0.886 0.953 0.919
3693.993 1.3313 1.5061 1.16157 1.0791 1.368 1.6001 1.2629 1.16482 1.3756 0.975
3713.282 1.0578 1.4309 1.3493 1.43 1.5165 1.2497 0.962 1.4911 1.6056 1.258
3732.572 0.86 0.362 0.514 0.394 0.567 1.0668 1.19714 0.995 1.0113 1.15364
3751.862 1.4344 1.3369 0.928 1.0675 1.5543 1.574 0.944 0.806 1.16768 1.10803
3771.152 1.11 1.026 0.761 1.0156 1.4075 1.7964 1.9307 1.4597 1.0984 0.71
3790.441 0.824 1.13609 0.839 1.2621 1.8006 1.4833 1.3687 1.5237 1.0018 0.544
3809.731 1.14442 1.5476 1.3034 0.853 0.692 1.0036 1.3374 1.2553 0.695 0.853
3829.021 1.2662 1.6201 1.8773 2.3 1.8592 1.0415 1.13895 1.3526 0.835 0.76
3848.311 1.10736 1.11788 1.4307 1.3553 1.046 1.09592 1.2229 1.3358 1.0169 0.902
3867.601 1.0486 1.0575 0.923 0.513 0.815 1.0232 1.3195 1.2095 1.5444 1.5322
3886.890 1.228 1.6719 1.2462 1.9429 2.43 1.6139 1.5486 1.7169 0.993 0.797
3906.180 1.382 1.3449 1.4984 1.6612 1.7673 1.6046 1.8323 2.045 1.3105 0.541
3925.470 0.388 0.833 1.0304 1.2308 1.5299 1.12946 0.776 0.549 0.273 0.885
3944.760 1.5631 1.6766 1.2658 1.09687 1.6681 1.8055 1.3816 0.966 0.703 0.505
3964.049 0.437 1.17274 1.6808 1.7724 1.7654 0.691 0.638 1.0182 0.852 1.0412
3983.339 0.471 0.473 0.845 0.831 1.2522 1.4148 1.5881 1.9054 1.7888 1.423
##END=
