##TITLE=2-Butoxyethyl bromide
##JCAMP-DX=4.24
##DATA TYPE=INFRARED SPECTRUM
##ORIGIN=EPA-IR VAPOR PHASE LIBRARY
##OWNER=SRD/NIST
Collection (C) 2018 copyright by the U.S. Secretary of Commerce
on behalf of the United States of America. All rights reserved.
##CAS REGISTRY NO=6550-99-8
##MOLFORM=C 6 H 13 Br O
##$NIST SOURCE=MSDC-IR
##STATE=gas
##XUNITS=1/CM
##YUNITS=ABSORBANCE
##XFACTOR=1.
##YFACTOR=0.001
##DELTAX=1.92898
##FIRSTX=549.8
##LASTX=4000.7
##FIRSTY=1.537
##MAXX=4000.7
##MINX=549.759
##MAXY=0.084667
##MINY=0
##NPOINTS=1790
##XYDATA=(X++(Y..Y))
549.759 1.537 1.677 1.637 2.137 2.487 1.897 2.077 2.707 2.507 2.407
569.049 2.837 3.557 4.007 4.347 4.447 4.097 4.067 4.187 4.097 3.887
588.339 3.637 3.437 2.717 2.227 2.277 2.107 1.897 1.747 1.4026 1.1544
607.628 1.1976 1.3719 1.3646 1.1855 1.2242 1.217 1.2914 1.422 1.2535 1.0546
626.918 1.4158 1.557 1.3106 1.467 1.657 1.917 2.007 2.157 2.687 3.177
646.208 3.547 3.977 4.617 5.267 6.187 7.077 7.927 8.877 9.577 10.087
665.498 10.737 11.327 11.307 10.877 10.447 9.667 8.557 7.337 6.387 5.597
684.787 4.647 4.247 3.837 3.257 2.917 2.737 2.377 2.267 2.217 2.067
704.077 2.007 1.827 1.757 1.677 1.727 1.667 1.557 1.607 1.647 1.637
723.367 1.647 1.717 1.697 1.567 1.717 1.697 1.607 1.757 1.737 1.677
742.657 1.707 1.777 1.737 1.697 1.827 1.927 2.117 2.017 1.707 1.607
761.947 1.507 1.557 1.607 1.647 1.757 1.727 1.617 1.577 1.687 1.867
781.236 1.927 1.917 1.897 1.957 1.977 2.087 2.187 2.037 2.037 2.177
800.526 2.057 1.997 2.187 2.327 2.097 1.967 2.077 1.967 1.947 1.927
819.816 1.937 2.227 2.157 1.837 1.937 2.267 2.447 2.447 2.457 2.577
839.106 2.637 2.687 2.697 2.517 2.347 2.437 2.477 2.467 2.407 2.397
858.395 2.307 2.397 2.527 2.287 2.097 2.047 2.227 2.127 2.037 2.037
877.685 2.047 2.337 2.377 2.097 2.077 2.137 2.297 2.367 2.517 2.557
896.975 2.457 2.487 2.637 2.847 2.977 2.917 2.757 2.977 3.107 3.147
916.265 3.167 3.197 3.437 3.767 3.867 3.917 4.127 4.127 4.227 4.557
935.555 4.837 5.067 5.207 5.357 5.537 5.667 6.027 6.167 6.117 6.227
954.844 6.267 6.277 6.177 6.187 6.337 6.487 6.607 6.657 6.627 6.597
974.134 6.637 6.427 6.227 6.457 6.487 6.467 6.547 6.467 6.757 7.087
993.424 7.297 7.527 7.677 7.897 7.867 7.677 7.817 8.177 8.447 8.417
1012.714 8.277 8.507 8.677 8.637 8.547 8.707 9.327 9.577 10.067 10.907
1032.003 10.957 11.067 11.397 11.547 11.727 11.777 11.467 11.197 11.327 11.627
1051.293 11.637 11.497 11.717 12.027 12.197 12.577 13.067 13.747 14.657 15.137
1070.583 15.807 17.067 18.347 19.917 21.957 24.637 28.377 32.107 36.417 41.677
1089.873 47.117 52.787 57.797 63.497 69.407 74.437 78.477 81.687 83.367 83.867
1109.163 84.667 84.287 83.077 82.317 81.317 79.857 78.177 75.827 74.287 72.647
1128.452 70.047 67.367 63.567 59.387 55.617 51.557 46.877 42.167 37.817 34.167
1147.742 31.197 28.037 25.097 23.267 21.697 20.037 18.517 17.017 16.017 14.937
1167.032 14.107 13.837 13.327 12.877 12.857 13.107 13.127 13.177 13.567 14.047
1186.322 14.247 13.767 13.397 13.287 12.957 12.617 12.587 12.637 11.877 11.217
1205.611 11.367 11.867 12.357 12.627 12.527 12.327 12.117 11.767 11.237 10.857
1224.901 10.297 10.297 10.807 10.157 9.557 9.377 9.187 9.217 8.737 8.487
1244.191 8.437 8.177 8.337 8.227 8.047 8.247 8.187 8.307 8.847 9.237
1263.481 9.797 10.297 10.807 11.687 12.497 12.637 12.767 13.207 13.437 13.407
1282.771 13.277 13.187 12.967 12.467 11.907 11.447 10.957 10.437 9.897 9.337
1302.060 8.707 8.127 7.557 6.957 6.427 6.007 5.657 5.377 5.197 5.007
1321.350 4.847 4.767 4.717 4.757 4.877 5.117 5.377 5.587 5.887 6.197
1340.640 6.497 6.877 7.357 7.967 8.717 9.667 10.837 12.197 13.597 14.847
1359.930 15.957 16.777 17.187 17.157 16.647 15.837 14.737 13.437 12.177 10.967
1379.219 9.897 9.047 8.327 7.727 7.217 6.787 6.517 6.327 6.097 5.897
1398.509 5.707 5.527 5.337 5.157 5.067 5.007 5.007 5.127 5.217 5.447
1417.799 5.937 6.567 7.187 7.717 8.217 8.657 8.997 9.237 9.317 9.197
1437.089 9.197 9.267 9.437 9.677 9.827 9.987 10.137 10.377 10.517 10.587
1456.378 10.757 10.877 11.077 11.277 11.347 11.377 11.327 11.197 10.927 10.437
1475.668 9.937 9.367 8.817 8.137 7.327 6.667 6.077 5.557 5.037 4.497
1494.958 3.997 3.627 3.387 3.077 2.797 2.587 2.417 2.377 2.197 2.007
1514.248 1.967 1.917 1.767 1.617 1.537 1.497 1.457 1.4027 1.405 1.467
1533.538 1.3822 1.3465 1.4145 1.4063 1.3484 1.1835 1.1383 1.1624 1.0764 1.0229
1552.827 1.0651 1.1022 1.0819 1.0818 1.0472 0.9504 1.0053 1.0514 1.0199 0.9853
1572.117 0.8777 0.8094 0.8974 0.956 0.933 1.0318 0.9737 0.8743 0.9319 0.8311
1591.407 0.7287 0.7881 0.9568 1.0573 0.987 0.8869 0.825 0.8431 0.781 0.7196
1610.697 0.7517 0.7379 0.7216 0.7854 0.8164 0.8035 0.8669 0.8235 0.7955 0.8583
1629.986 0.8429 0.8179 0.8348 0.8409 0.7755 0.7281 0.7301 0.7623 0.8209 0.8171
1649.276 0.7481 0.7469 0.8846 0.8753 0.7206 0.7082 0.735 0.6702 0.6934 0.8006
1668.566 0.7834 0.7207 0.7105 0.7042 0.7187 0.6319 0.5577 0.5857 0.6402 0.6147
1687.856 0.6051 0.6233 0.6048 0.665 0.6966 0.6356 0.5962 0.6074 0.6062 0.6304
1707.146 0.6698 0.5906 0.445134 0.45503 0.6176 0.6976 0.7145 0.7196 0.7236 0.7152
1726.435 0.675 0.6658 0.6749 0.7261 0.7252 0.7306 0.7126 0.7209 0.7649 0.7373
1745.725 0.8029 0.8591 0.8497 0.8871 0.8541 0.859 0.8335 0.7567 0.7661 0.7533
1765.015 0.6651 0.6463 0.6529 0.6374 0.707 0.7082 0.6902 0.6591 0.639 0.6596
1784.305 0.6569 0.6558 0.6904 0.7125 0.7487 0.7161 0.6899 0.7317 0.7842 0.7569
1803.594 0.6967 0.6905 0.6753 0.739 0.7241 0.6631 0.6585 0.6752 0.6775 0.6914
1822.884 0.6713 0.6438 0.6576 0.6665 0.6843 0.7041 0.7512 0.715 0.6897 0.7717
1842.174 0.7742 0.7221 0.7403 0.7534 0.7376 0.7054 0.7469 0.8624 0.9206 0.8684
1861.464 0.7854 0.8415 0.8591 0.7793 0.7959 0.818 0.8058 0.8019 0.7696 0.7538
1880.754 0.8494 0.9251 0.9059 0.8973 0.928 0.9102 0.8513 0.8816 0.9 0.9387
1900.043 1.0125 0.9567 0.896 0.9448 1.0044 1.053 1.0322 0.9699 0.9918 1.0221
1919.333 1.0519 1.1241 1.1279 1.0578 1.0652 1.1162 1.0443 1.0274 1.0751 1.1233
1938.623 1.1919 1.0845 0.9978 1.028 1.0153 1.0001 0.9583 0.9364 0.9348 0.9227
1957.913 0.9618 0.9858 0.9622 0.9873 0.9573 0.9116 0.9224 0.8809 0.8357 0.8415
1977.202 0.8487 0.8534 0.8951 0.8481 0.857 0.9658 0.9431 0.9309 0.9547 0.9691
1996.492 0.9111 0.8569 0.8891 0.9107 0.9889 1.0059 0.9636 0.995 1.0188 1.0124
2015.782 1.0286 1.0767 1.0561 1.0982 1.2342 1.2546 1.2363 1.2161 1.1664 1.1409
2035.072 1.1578 1.19 1.214 1.2 1.2612 1.3138 1.2685 1.3509 1.437 1.4154
2054.362 1.3991 1.3438 1.3011 1.309 1.2061 1.102 1.1703 1.2233 1.2746 1.2694
2073.651 1.2623 1.2636 1.2622 1.2948 1.327 1.36 1.2616 1.1815 1.1818 1.1745
2092.941 1.1606 1.1634 1.226 1.3037 1.2952 1.2534 1.2037 1.0994 1.073 1.1666
2112.231 1.1914 1.182 1.1087 1.0502 1.0619 1.084 1.136 1.1259 1.1191 1.1184
2131.521 1.0357 1.0269 1.0632 1.0836 1.0783 1.0626 1.1208 1.0971 1.0215 0.9015
2150.810 0.8425 0.8857 0.8893 0.9217 0.9782 0.8913 0.8591 0.9174 0.9697 0.9611
2170.100 0.9418 1.0153 0.9237 0.8484 0.9605 0.9859 1.0145 1.002 0.9502 1.002
2189.390 1.0048 1.0056 0.9344 0.9144 0.9611 0.9812 0.9801 1.0017 0.9812 0.9364
2208.680 0.9106 0.9169 0.9488 0.93 0.9732 0.9998 1.0021 1.0289 1.0858 1.0291
2227.970 0.9536 1.0038 1.0155 0.9419 0.8539 0.8567 0.8532 0.8841 0.9552 0.841
2247.259 0.721 0.7515 0.7464 0.6983 0.7174 0.8124 0.8822 0.7799 0.6813 0.7904
2266.549 0.8457 0.7989 0.815 0.84 0.8048 0.738 0.7247 0.7426 0.7823 0.8025
2285.839 0.7539 0.7991 0.8463 0.8141 0.8089 0.8154 0.763 0.7236 0.7552 0.7746
2305.129 0.7226 0.6939 0.7863 0.8399 0.7736 0.7413 0.739 0.7591 0.8515 0.8731
2324.418 0.8437 0.7567 0.7026 0.79 0.8671 0.8343 0.8261 0.8457 0.7623 0.7145
2343.708 0.8262 0.8342 0.7918 0.7992 0.7524 0.7138 0.7213 0.7293 0.7033 0.7078
2362.998 0.7138 0.706 0.7706 0.8694 0.8704 0.8971 0.8981 0.7611 0.7238 0.708
2382.288 0.7282 0.8646 0.8301 0.7536 0.7908 0.8671 0.8429 0.7093 0.6857 0.7107
2401.578 0.8134 0.8296 0.7361 0.7449 0.7656 0.7521 0.6974 0.6654 0.6657 0.6511
2420.867 0.6154 0.6379 0.6995 0.7037 0.6792 0.6974 0.7842 0.8377 0.8239 0.8225
2440.157 0.757 0.7395 0.8763 0.9442 0.8588 0.751 0.7417 0.7104 0.7142 0.7471
2459.447 0.7085 0.6793 0.7581 0.8232 0.7441 0.7345 0.7526 0.7455 0.6962 0.7071
2478.737 0.7537 0.6948 0.7154 0.6933 0.6685 0.7537 0.7181 0.7304 0.7523 0.7234
2498.026 0.7665 0.7824 0.7856 0.7869 0.7192 0.6823 0.7302 0.76 0.7484 0.7343
2517.316 0.7212 0.6714 0.6434 0.5804 0.553 0.5442 0.6109 0.6857 0.7274 0.7105
2536.606 0.6022 0.5697 0.5673 0.5813 0.5713 0.6282 0.7018 0.7783 0.9346 0.8904
2555.896 0.7257 0.7459 0.7905 0.8041 0.8034 0.7377 0.7364 0.7721 0.7854 0.8352
2575.186 0.9558 0.9394 0.7816 0.8797 1.0414 1.0332 0.9818 0.9575 1.0027 1.0244
2594.475 1.0165 1.0359 0.9897 1.047 1.1349 1.0886 1.0847 1.0486 1.039 1.1368
2613.765 1.1849 1.1291 1.0434 1.0493 1.1324 1.2006 1.1553 1.1163 1.2237 1.1572
2633.055 1.123 1.1774 1.1987 1.2541 1.3416 1.3659 1.3039 1.4197 1.527 1.577
2652.345 1.647 1.587 1.677 1.767 1.617 1.567 1.627 1.667 1.777 1.887
2671.634 1.857 1.817 1.707 1.607 1.737 1.817 1.877 2.047 2.147 2.127
2690.924 2.067 2.217 2.357 2.407 2.487 2.587 2.637 2.617 2.707 2.837
2710.214 2.967 2.977 2.937 3.017 3.127 3.187 3.267 3.377 3.427 3.477
2729.504 3.577 3.667 3.717 3.877 3.957 3.907 3.957 3.977 4.007 3.917
2748.794 3.927 4.007 3.957 3.927 3.947 4.017 4.077 4.127 4.207 4.337
2768.083 4.427 4.497 4.627 4.787 4.917 5.197 5.497 5.567 5.717 5.897
2787.373 5.927 6.047 6.297 6.557 6.687 6.777 6.807 6.767 6.937 7.137
2806.663 7.227 7.367 7.447 7.707 8.177 8.577 8.987 9.707 10.487 11.137
2825.953 12.037 12.917 13.917 15.317 16.707 17.957 19.357 20.997 22.557 24.137
2845.242 25.907 27.597 29.307 31.077 32.847 34.687 36.487 38.317 40.147 41.797
2864.532 43.547 45.337 47.077 48.627 49.937 51.217 52.417 53.417 53.947 53.827
2883.822 53.167 52.077 50.487 48.577 46.617 44.627 42.697 41.047 39.967 39.277
2903.112 38.847 38.867 39.247 39.967 40.797 41.677 42.817 43.957 45.007 46.167
2922.401 47.407 48.777 50.267 51.627 53.087 54.767 56.587 58.667 60.707 62.197
2941.691 63.257 63.897 64.097 63.977 63.447 62.737 62.267 62.227 62.457 63.197
2960.981 64.397 65.527 66.417 66.937 66.387 64.597 61.617 57.797 53.587 48.777
2980.271 43.657 38.807 34.437 30.527 27.047 24.017 21.247 18.777 16.627 14.867
2999.561 13.527 12.447 11.567 10.827 10.177 9.607 9.177 8.847 8.437 8.257
3018.850 8.207 7.897 7.577 7.347 6.897 6.367 6.137 5.877 5.467 5.107
3038.140 4.947 4.677 4.307 4.017 3.847 3.837 3.687 3.347 3.237 3.167
3057.430 2.897 2.697 2.727 2.687 2.417 2.337 2.287 2.217 2.287 2.187
3076.720 2.087 2.137 2.067 1.977 2.027 2.037 1.917 1.877 1.877 1.907
3096.009 1.887 1.777 1.627 1.637 1.607 1.447 1.547 1.717 1.707 1.697
3115.299 1.607 1.4073 1.447 1.447 1.2732 1.2344 1.4361 1.4308 1.2406 1.2229
3134.589 1.1677 1.1559 1.3265 1.2934 1.1454 1.0881 1.1186 1.1683 1.1032 1.0189
3153.879 1.044 1.1815 1.2205 1.225 1.2535 1.0661 0.8967 0.9933 1.0965 1.0673
3173.169 1.0301 1.0078 0.9894 0.9574 0.8649 0.8811 0.9743 0.9713 0.8806 0.9516
3192.458 1.0726 0.9384 0.8053 0.79 0.8253 0.892 0.8217 0.7577 0.7668 0.7707
3211.748 0.8122 0.7459 0.654 0.6613 0.6456 0.6238 0.50929 0.43209 0.52531 0.5663
3231.038 0.6947 0.6772 0.46969 0.5467 0.52038 0.47747 0.5705 0.5452 0.52718 0.5667
3250.328 0.6201 0.6385 0.5914 0.5893 0.6724 0.5605 0.48605 0.52877 0.6079 0.6354
3269.617 0.51302 0.4579 0.4357 0.42978 0.5002 0.50097 0.309 0.3603 0.51655 0.3891
3288.907 0.3935 0.49689 0.45511 0.577 0.5636 0.48131 0.53689 0.4051 0.265 0.331
3308.197 0.3702 0.4036 0.43039 0.29 0.248 0.321 0.3493 0.45019 0.5601 0.3636
3327.487 0.3852 0.6343 0.5585 0.48038 0.4014 0.3842 0.45161 0.31 0.3673 0.50294
3346.777 0.6072 0.6152 0.5595 0.5801 0.51261 0.47345 0.396 0.238 0.3377 0.42827
3366.066 0.3889 0.3539 0.4181 0.51893 0.4885 0.4035 0.3483 0.441642 0.4071 0.3737
3385.356 0.45518 0.47283 0.45557 0.4186 0.311 0.3444 0.3817 0.199 0.315 0.398
3404.646 0.3679 0.6004 0.28 0 0.278 0.4224 0.52505 0.6207 0.5434 0.45471
3423.936 0.42854 0.45605 0.3863 0.43286 0.52559 0.5757 0.5474 0.4232 0.443959 0.43035
3443.225 0.4255 0.43471 0.3577 0.289 0.3639 0.3444 0.239 0.349 0.4157 0.334
3462.515 0.3761 0.50349 0.5644 0.4666 0.4342 0.47011 0.45445 0.4663 0.376 0.319
3481.805 0.309 0.4218 0.276 0.186 0.49067 0.51642 0.4144 0.277 0.231 0.247
3501.095 0.161 0.181 0.166 0.114 0.109 0.302 0.3725 0.314 0.3685 0.322
3520.385 0.323 0.3419 0.287 0.196 0.238 0.241 0.208 0.153 0.309 0.48483
3539.674 0.3719 0.3543 0.3844 0.446139 0.53033 0.50508 0.5445 0.5598 0.50104 0.53633
3558.964 0.3464 0.239 0.43566 0.3989 0.3 0.3849 0.46108 0.5516 0.5586 0.5374
3578.254 0.51881 0.51422 0.5644 0.53158 0.4138 0.263 0.26 0.46972 0.4707 0.31
3597.544 0.2 0.147 0.246 0.47147 0.5878 0.3999 0.3 0.333 0.47531 0.7366
3616.833 0.7383 0.52721 0.6144 0.7184 0.53458 0.49662 0.582 0.50164 0.47124 0.3953
3636.123 0.222 0.144 0.44999 0.6435 0.5985 0.7595 0.7351 0.5536 0.4075 0.6152
3655.413 0.608 0.3613 0.419 0.5882 0.6469 0.589 0.5467 0.3857 0.311 0.3921
3674.703 0.5625 0.5918 0.654 0.5843 0.287 0.4062 0.5234 0.47558 0.5544 0.5527
3693.993 0.52828 0.5522 0.6024 0.5194 0.312 0.273 0.287 0.4049 0.48169 0.52061
3713.282 0.7301 0.7126 0.593 0.5647 0.43041 0.3592 0.335 0.204 0.264 0.4106
3732.572 0.53566 0.50218 0.4112 0.5533 0.5919 0.3683 0.43214 0.5487 0.51695 0.5924
3751.862 0.47794 0.3806 0.5794 0.6305 0.49925 0.5372 0.6106 0.59 0.5758 0.5502
3771.152 0.43476 0.46998 0.48035 0.6067 0.8348 0.8781 0.6562 0.3907 0.49953 0.7414
3790.441 0.7312 0.6648 0.5763 0.52572 0.52363 0.6634 0.8165 0.6166 0.4664 0.49224
3809.731 0.5158 0.51197 0.5394 0.6294 0.5958 0.5877 0.51613 0.3952 0.589 0.8089
3829.021 0.8437 0.6789 0.6176 0.7954 0.7037 0.49417 0.49611 0.579 0.52012 0.5808
3848.311 0.6996 0.6579 0.7262 0.7483 0.6623 0.51758 0.5836 0.6779 0.5793 0.5928
3867.601 0.5868 0.4203 0.42879 0.5727 0.48079 0.4937 0.5713 0.48588 0.3788 0.3543
3886.890 0.589 0.6284 0.51277 0.392 0.49199 0.5673 0.6594 0.6763 0.53177 0.6729
3906.180 0.7105 0.6535 0.7295 0.7446 0.50936 0.3661 0.5453 0.7428 0.7057 0.50703
3925.470 0.47782 0.48205 0.49522 0.3652 0.208 0.52712 0.52213 0.5412 0.6921 0.6033
3944.760 0.611 0.8084 0.9178 0.7512 0.7505 0.8024 0.6025 0.4219 0.5553 0.884
3964.049 0.9025 0.6613 0.6741 0.8172 0.7149 0.6211 0.7345 0.7813 0.8902 0.9945
3983.339 0.9853 0.6605 0.53446 0.6933 0.5886 0.7179 0.7785 0.87 0.9107 0.7224
##END=
