##TITLE=Pentakis(methylthio)benzene
##JCAMP-DX=4.24
##DATA TYPE=INFRARED SPECTRUM
##ORIGIN=EPA-IR VAPOR PHASE LIBRARY
##OWNER=SRD/NIST
Collection (C) 2018 copyright by the U.S. Secretary of Commerce
on behalf of the United States of America. All rights reserved.
##CAS REGISTRY NO=65516-74-7
##MOLFORM=C 11 H 16 S 5
##$NIST SOURCE=MSDC-IR
##STATE=gas
##XUNITS=1/CM
##YUNITS=ABSORBANCE
##XFACTOR=1.
##YFACTOR=0.001
##DELTAX=1.92898
##FIRSTX=549.8
##LASTX=4000.7
##FIRSTY=0.7249
##MAXX=4000.7
##MINX=549.759
##MAXY=0.096249
##MINY=0
##NPOINTS=1790
##XYDATA=(X++(Y..Y))
549.759 0.7249 0.3558 0.7409 0.9473 1.1229 1.2376 0.7923 0.7153 0.46489 0.6265
569.049 0.7745 0.6493 0.7959 1.0254 1.1539 1.1445 0.6368 0.39 1.0744 0.9889
588.339 0.7203 0.8206 0.48366 0.237 0.5403 0.9575 0.9438 0.8172 0.7997 0.7243
607.628 0.9849 1.193 1.3828 1.439 1.509 1.749 1.919 2.159 2.399 2.399
626.918 2.359 2.449 2.309 2.429 2.629 2.529 2.569 2.769 2.739 2.309
646.208 2.199 1.979 1.439 0.9567 0.9723 1.1948 0.9663 0.8139 0.9983 1.0888
665.498 1.1052 1.2523 1.2967 1.509 1.719 1.599 1.499 1.519 1.559 1.689
684.787 1.789 1.689 1.789 2.349 2.729 2.729 3.169 3.619 3.769 3.969
704.077 4.019 3.709 3.469 3.349 2.849 2.509 2.439 2.139 1.539 1.2669
723.367 1.419 1.3523 0.9941 0.9027 1.0311 1.2577 1.489 1.3334 0.9719 1.0462
742.657 1.2764 1.3573 1.0701 0.7196 1.0198 1.1667 1.1643 1.429 1.3903 1.191
761.947 1.589 1.769 1.699 1.839 1.969 2.119 2.199 2.299 2.469 2.659
781.236 2.979 3.389 3.969 4.529 5.199 6.249 6.969 7.909 8.709 8.509
800.526 7.769 7.069 6.189 5.179 4.339 3.689 3.209 2.899 2.429 2.129
819.816 2.169 2.059 2.339 2.659 2.849 3.179 3.659 4.049 4.069 4.169
839.106 4.479 4.869 5.169 5.409 6.049 6.429 6.259 6.059 5.899 5.639
858.395 5.199 5.049 4.659 4.229 3.849 3.669 3.739 3.399 2.749 2.369
877.685 2.369 2.459 2.469 2.339 2.389 2.189 2.009 2.229 2.409 2.269
896.975 2.129 2.299 2.489 2.439 2.289 2.229 2.219 2.359 2.339 2.209
916.265 2.259 2.459 2.659 2.699 2.319 2.389 2.869 2.879 2.999 3.429
935.555 3.949 4.399 4.669 5.229 5.989 6.589 7.499 8.509 9.129 9.449
954.844 10.069 11.199 12.419 13.769 15.109 16.819 18.419 19.179 19.249 18.079
974.134 16.049 13.699 11.699 9.679 7.999 6.979 5.959 5.379 4.849 4.509
993.424 4.169 3.959 4.109 4.049 3.829 3.719 3.429 3.179 3.429 3.679
1012.714 3.479 3.069 3.089 3.219 3.109 3.219 3.339 2.959 2.959 2.799
1032.003 2.649 2.629 2.539 2.899 2.719 2.209 2.329 2.479 2.369 2.279
1051.293 2.279 2.339 2.129 2.219 2.509 2.459 2.899 3.749 3.919 4.129
1070.583 5.099 5.409 5.519 5.179 4.089 3.909 3.479 2.699 2.059 1.539
1089.873 2.019 2.619 2.789 2.449 2.839 3.169 2.749 2.929 2.999 2.659
1109.163 2.619 3.519 3.329 2.569 2.929 2.849 3.019 3.479 3.549 3.519
1128.452 3.649 4.199 4.129 4.429 5.509 5.469 4.289 3.749 4.249 4.029
1147.742 3.659 4.489 5.299 5.339 6.009 6.989 7.659 8.699 9.689 10.359
1167.032 11.089 11.429 10.949 10.719 11.019 10.319 9.109 8.629 8.049 7.139
1186.322 5.749 4.699 4.589 5.199 4.819 4.319 4.979 5.259 5.149 4.779
1205.611 4.729 4.559 4.749 4.919 4.749 4.419 3.839 3.169 3.679 4.079
1224.901 3.429 2.889 2.759 3.309 3.319 3.409 3.479 3.289 3.079 2.919
1244.191 3.359 3.639 4.239 4.799 5.029 5.509 6.409 7.299 8.469 10.239
1263.481 11.649 12.959 14.249 16.059 17.619 18.789 19.299 19.029 18.369 17.159
1282.771 16.169 15.199 14.139 13.229 12.709 12.369 12.129 11.989 11.609 11.159
1302.060 10.909 10.739 10.579 10.469 10.359 10.279 9.839 8.869 7.789 6.759
1321.350 5.829 5.099 4.649 4.429 4.229 4.219 4.429 4.669 5.099 5.589
1340.640 6.179 6.809 7.499 8.459 9.429 10.259 10.859 11.399 11.679 11.699
1359.930 11.709 11.659 11.559 11.609 11.769 11.809 11.829 11.769 11.479 10.909
1379.219 10.299 9.609 8.699 8.009 7.509 6.889 6.389 6.079 5.929 5.829
1398.509 5.749 5.779 5.839 5.979 6.239 6.589 6.989 7.449 8.039 8.809
1417.799 9.649 10.709 12.029 13.439 14.919 16.439 17.979 19.579 21.439 23.279
1437.089 25.089 26.689 27.619 27.639 26.579 24.489 21.539 18.379 15.409 13.009
1456.378 11.289 10.239 9.689 9.399 9.359 9.599 9.939 10.499 11.349 12.199
1475.668 12.959 13.579 14.059 14.319 14.149 13.659 12.969 11.979 10.979 10.269
1494.958 9.789 9.689 9.899 10.199 10.689 11.329 12.389 13.749 15.339 17.249
1514.248 19.269 21.399 23.249 24.739 25.639 25.309 23.919 21.679 18.899 16.109
1533.538 13.369 10.949 9.279 8.029 6.939 6.169 5.629 5.169 4.859 4.529
1552.827 4.209 3.999 3.819 3.739 3.569 3.359 3.179 3.149 3.079 2.789
1572.117 2.549 2.549 2.569 2.399 2.329 2.219 2.219 2.189 2.009 1.939
1591.407 1.919 1.909 1.909 1.739 1.659 1.689 1.579 1.629 1.679 1.659
1610.697 1.539 1.3768 1.3585 1.2408 1.2506 1.3357 1.2631 1.1952 1.1592 1.2041
1629.986 1.3132 1.2968 1.2746 1.3386 1.3339 1.3668 1.3852 1.2638 1.323 1.3989
1649.276 1.3403 1.3823 1.429 1.3678 1.3072 1.2682 1.214 1.2351 1.2219 1.1465
1668.566 1.143 1.1376 1.0333 1.0045 1.1099 1.1787 1.0304 0.9524 1.0123 0.9734
1687.856 0.9091 0.8345 0.8182 0.8799 0.9314 0.9782 1.028 0.9143 0.8652 0.9499
1707.146 0.8801 0.8261 0.8775 0.9112 0.9002 0.9219 0.8902 0.887 1.0512 1.0163
1726.435 0.8916 0.8024 0.7475 0.7511 0.7794 0.8046 0.7644 0.7359 0.711 0.6315
1745.725 0.6107 0.6915 0.6999 0.7228 0.7331 0.7057 0.6606 0.6664 0.7632 0.7952
1765.015 0.6863 0.5672 0.5319 0.5566 0.5961 0.5751 0.5962 0.5648 0.6004 0.6163
1784.305 0.50428 0.5342 0.6297 0.5905 0.5621 0.5587 0.4856 0.45908 0.54 0.6122
1803.594 0.5754 0.5658 0.5601 0.5846 0.604 0.6278 0.5903 0.5716 0.5817 0.5149
1822.884 0.5646 0.6121 0.545 0.50446 0.49375 0.46911 0.50461 0.50675 0.49258 0.5244
1842.174 0.48596 0.44909 0.45297 0.5551 0.6992 0.6599 0.6077 0.5817 0.45597 0.42948
1861.464 0.49909 0.5512 0.5372 0.5148 0.602 0.6053 0.5651 0.5588 0.5133 0.50666
1880.754 0.52 0.5588 0.5916 0.6014 0.5975 0.5966 0.5714 0.5416 0.5542 0.5991
1900.043 0.6323 0.636 0.5959 0.48557 0.4938 0.588 0.6352 0.6386 0.6571 0.7552
1919.333 0.7735 0.6445 0.6355 0.7195 0.7465 0.7708 0.6786 0.5182 0.5158 0.5756
1938.623 0.6817 0.6687 0.5124 0.4939 0.564 0.5425 0.47026 0.48119 0.47325 0.50529
1957.913 0.5989 0.6332 0.5469 0.5612 0.6056 0.561 0.6299 0.6131 0.6111 0.6009
1977.202 0.577 0.6181 0.6607 0.7335 0.6706 0.6652 0.7384 0.7998 0.7003 0.6091
1996.492 0.8084 0.8889 0.8878 0.8861 0.9019 0.987 1.0742 1.0771 1.0128 0.9383
2015.782 0.9424 0.9892 0.9157 0.8785 0.9054 0.8426 0.742 0.7094 0.6558 0.6029
2035.072 0.6169 0.6209 0.6051 0.6471 0.6498 0.5633 0.5159 0.43959 0.40048 0.44056
2054.362 0.44957 0.43792 0.44848 0.48389 0.47921 0.46254 0.5224 0.5493 0.44309 0.384
2073.651 0.394 0.4393 0.5192 0.5989 0.6577 0.6396 0.5372 0.50537 0.43629 0.48274
2092.941 0.5754 0.45595 0.46345 0.5539 0.5322 0.50101 0.5698 0.5908 0.50604 0.5577
2112.231 0.5841 0.43119 0.3961 0.48046 0.5375 0.5521 0.50164 0.47179 0.528 0.5632
2131.521 0.5765 0.6083 0.6578 0.5781 0.42725 0.396 0.43235 0.44801 0.46975 0.5364
2150.810 0.548 0.50512 0.50184 0.5715 0.6333 0.5826 0.5915 0.5636 0.43985 0.4301
2170.100 0.46258 0.45703 0.44838 0.43588 0.3878 0.42128 0.3928 0.3339 0.3385 0.42004
2189.390 0.4595 0.43007 0.44438 0.3953 0.40011 0.3537 0.3206 0.46801 0.49122 0.5289
2208.680 0.5294 0.47313 0.49785 0.46151 0.483 0.4737 0.5509 0.667 0.5965 0.4869
2227.970 0.47057 0.49969 0.45488 0.45564 0.5689 0.5835 0.6148 0.692 0.7419 0.6781
2247.259 0.5906 0.6804 0.6937 0.6749 0.7061 0.6802 0.7491 0.7057 0.5951 0.6624
2266.549 0.7694 0.8469 0.8158 0.7782 0.7082 0.7341 0.7815 0.6207 0.6004 0.6603
2285.839 0.7308 0.8056 0.7196 0.6216 0.49961 0.46084 0.47214 0.52 0.5547 0.5265
2305.129 0.46392 0.40688 0.46735 0.48189 0.49312 0.5067 0.47151 0.4372 0.5561 0.725
2324.418 0.6768 0.6148 0.6044 0.5608 0.5657 0.5131 0.43013 0.49458 0.49292 0.48206
2343.708 0.47482 0.47027 0.5475 0.5545 0.525 0.4787 0.48119 0.50348 0.652 0.8249
2362.998 0.7255 0.6196 0.6131 0.6357 0.6447 0.6004 0.657 0.769 0.8361 0.8417
2382.288 0.7701 0.7113 0.6874 0.8304 0.903 0.8832 0.9331 0.926 0.8682 0.9013
2401.578 0.9979 0.9227 0.9037 0.924 0.877 0.8451 0.7941 0.7674 0.733 0.6434
2420.867 0.7007 0.6938 0.5387 0.6091 0.7159 0.6966 0.5663 0.5529 0.6742 0.5592
2440.157 0.47307 0.47993 0.5395 0.5596 0.49777 0.44484 0.3933 0.40413 0.47744 0.49484
2459.447 0.3321 0.251 0.26 0.40389 0.534 0.45436 0.43546 0.44976 0.47092 0.42911
2478.737 0.48602 0.40549 0.3642 0.5258 0.5681 0.6033 0.5172 0.48366 0.5703 0.5575
2498.026 0.5164 0.47548 0.43902 0.5275 0.6453 0.5442 0.3802 0.45506 0.5573 0.5557
2517.316 0.4785 0.5109 0.5686 0.43192 0.3315 0.3699 0.48888 0.6238 0.5123 0.3455
2536.606 0.43282 0.43277 0.3119 0.45539 0.6832 0.6518 0.6029 0.629 0.5796 0.5289
2555.896 0.5855 0.5703 0.5373 0.549 0.3665 0.3666 0.5388 0.5643 0.5242 0.6276
2575.186 0.6215 0.6319 0.6901 0.6029 0.6011 0.6016 0.5499 0.5562 0.6921 0.6576
2594.475 0.6467 0.7042 0.6817 0.7875 0.7617 0.5637 0.6289 0.7515 0.6715 0.5466
2613.765 0.6318 0.6971 0.6614 0.6399 0.5777 0.5684 0.5393 0.49112 0.3963 0.45209
2633.055 0.48121 0.4039 0.44098 0.42414 0.40567 0.47911 0.50415 0.5985 0.6336 0.5848
2652.345 0.6145 0.5352 0.44476 0.3829 0.5201 0.6399 0.5981 0.6402 0.6277 0.6658
2671.634 0.6271 0.7034 0.8115 0.7361 0.7068 0.6966 0.7439 0.8524 0.7535 0.5796
2690.924 0.6554 0.6878 0.5884 0.412926 0.3287 0.5181 0.6643 0.6237 0.5971 0.5394
2710.214 0.5766 0.6638 0.5674 0.5155 0.5726 0.6023 0.6611 0.681 0.763 0.8123
2729.504 0.6925 0.6217 0.6868 0.6759 0.6363 0.6584 0.6918 0.7848 0.8298 0.8103
2748.794 0.8748 0.8213 0.6145 0.5656 0.7381 0.9222 0.9105 0.8804 0.8102 0.8533
2768.083 0.9539 0.8543 0.8744 0.8602 0.7977 0.8918 0.98 0.9376 0.8502 0.893
2787.373 1.11 1.1642 1.1432 1.2183 1.326 1.409 1.3782 1.3818 1.539 1.789
2806.663 1.939 2.169 2.399 2.639 2.939 3.199 3.499 3.829 4.219 4.719
2825.953 5.339 6.019 6.829 7.719 8.709 9.799 10.479 10.739 10.739 10.269
2845.242 9.529 9.109 8.809 8.449 8.109 7.829 7.799 7.709 7.469 7.219
2864.532 6.979 6.659 6.419 6.279 6.129 6.009 5.759 5.409 5.239 5.309
2883.822 5.259 5.199 5.119 5.219 5.489 5.549 5.729 6.159 6.499 6.879
2903.112 7.479 8.349 9.619 11.029 13.129 16.439 20.769 26.949 35.889 47.999
2922.401 62.779 77.499 89.819 96.249 91.369 77.879 61.929 45.259 30.869 21.009
2941.691 15.029 11.539 9.409 8.139 7.299 6.799 6.429 6.029 5.929 6.179
2960.981 6.239 6.069 6.099 6.339 6.689 7.019 7.309 7.999 8.939 10.029
2980.271 11.409 12.779 14.539 16.539 18.229 19.639 20.339 20.309 19.649 18.129
2999.561 15.999 13.659 11.539 9.859 8.469 7.349 6.499 5.609 5.079 4.849
3018.850 4.509 4.229 3.959 3.809 3.609 3.399 3.219 3.139 3.169 3.299
3038.140 3.099 2.749 2.749 2.719 2.599 2.609 2.479 2.399 2.439 2.519
3057.430 2.699 2.639 2.559 2.339 2.289 2.239 1.859 1.849 2.059 2.259
3076.720 2.519 2.429 2.389 2.589 2.499 2.419 2.419 2.499 2.589 2.659
3096.009 2.539 2.419 2.469 2.389 2.339 2.269 2.299 2.319 2.299 2.459
3115.299 2.419 2.369 2.289 2.239 2.239 1.929 1.779 1.749 1.669 1.739
3134.589 1.769 1.759 1.649 1.639 1.619 1.549 1.549 1.3735 1.3829 1.419
3153.879 1.3091 1.2356 1.2013 1.1944 1.1192 1.1302 1.1831 1.0915 0.9044 0.6693
3173.169 0.8848 1.1361 0.9645 1.0106 1.0809 1.01 0.8516 0.7827 0.7245 0.8104
3192.458 0.9543 0.8193 0.7346 0.8212 0.8464 0.8004 0.9387 0.9581 0.8325 0.77
3211.748 0.9815 1.0284 0.8398 0.918 0.9169 0.795 0.629 0.5859 0.7273 0.7886
3231.038 0.8457 0.8348 0.7964 0.9796 0.8717 0.6393 0.6464 0.7508 0.6367 0.47075
3250.328 0.6528 0.7169 0.5231 0.463 0.602 0.5823 0.6595 0.8236 0.6635 0.43147
3269.617 0.414683 0.5468 0.5313 0.3696 0.3567 0.296 0.3613 0.5765 0.3892 0.3563
3288.907 0.4864 0.44798 0.25 0.3848 0.7414 0.6432 0.5227 0.6226 0.7512 0.6122
3308.197 0.50349 0.652 0.6057 0.47381 0.5653 0.5609 0.414813 0.307 0.3423 0.3116
3327.487 0.3329 0.42671 0.409873 0.3629 0.541 0.6731 0.281 0.122 0.3761 0.4018
3346.777 0.3944 0.4226 0.324 0.306 0.3785 0.171 0.147 0.3429 0.42166 0.5536
3366.066 0.27 0.19 0.361 0.283 0.42451 0.45336 0.243 0.44942 0.45841 0.112
3385.356 0.155 0.3341 0.5128 0.5528 0.42522 0.3492 0.3765 0.6838 0.805 0.57
3404.646 0.6094 0.6756 0.41657 0.3644 0.5681 0.5636 0.222 0.298 0.6146 0.45679
3423.936 0.45829 0.6519 0.6988 0.5444 0.4062 0.4608 0.6683 0.5817 0.4549 0.6394
3443.225 0.5565 0.47599 0.41924 0.225 0.286 0.269 0.187 0.3926 0.40223 0.181
3462.515 0.217 0.3777 0.44176 0.44549 0.166 0.174 0.324 0.284 0.104 0.201
3481.805 0.45749 0.46361 0.6154 0.5569 0.43823 0.45687 0.5301 0.5293 0.45488 0.3142
3501.095 0.275 0.187 0.216 0.3938 0.3837 0.416696 0.40041 0.3166 0.303 0.45973
3520.385 0.254 0.136 0.243 0.235 0.264 0.40075 0.3149 0 0.3395 0.5918
3539.674 0.5468 0.50858 0.3461 0.3111 0.418139 0.50438 0.3737 0.354 0.42019 0.3847
3558.964 0.5843 0.5923 0.44812 0.5518 0.6752 0.5832 0.5111 0.46591 0.237 0.233
3578.254 0.3575 0.3108 0.253 0.42354 0.47461 0.43018 0.6199 0.49105 0.3698 0.47424
3597.544 0.6701 0.8207 0.6533 0.6019 0.46577 0.328 0.3511 0.281 0.235 0.3653
3616.833 0.408229 0.3246 0.40693 0.3584 0.3482 0.6036 0.7264 0.46154 0.3458 0.50109
3636.123 0.3693 0.3845 0.592 0.6178 0.5546 0.6402 0.6334 0.45065 0.4568 0.5355
3655.413 0.5194 0.49818 0.5144 0.5456 0.5705 0.6016 0.6289 0.45844 0.3298 0.171
3674.703 0.064 0.206 0.410095 0.3387 0.3134 0.40577 0.307 0.263 0.3593 0.3818
3693.993 0.275 0.179 0.378 0.47653 0.3199 0.3976 0.595 0.44411 0.176 0.48209
3713.282 0.5305 0.3196 0.44592 0.47209 0.3334 0.301 0.327 0.42091 0.5505 0.46232
3732.572 0.3636 0.50212 0.323 0.115 0.3217 0.46374 0.6401 0.5903 0.409589 0.42753
3751.862 0.205 0.053 0.121 0.262 0.3467 0.291 0.3688 0.408594 0.415141 0.50286
3771.152 0.48906 0.379 0.46416 0.517 0.347 0.369 0.3129 0.282 0.242 0.163
3790.441 0.256 0.267 0.3253 0.3455 0.292 0.27 0.24 0.325 0.49608 0.4036
3809.731 0.3752 0.3444 0.153 0.171 0.14 0.224 0.5622 0.6812 0.50039 0.296
3829.021 0.3499 0.3282 0.3183 0.5766 0.7214 0.7165 0.40593 0.3097 0.5749 0.6131
3848.311 0.6239 0.7006 0.5981 0.518 0.6497 0.689 0.6734 0.7568 0.7354 0.5242
3867.601 0.408671 0.5968 0.6036 0.7188 0.9266 0.6779 0.45608 0.3884 0.3105 0.50407
3886.890 0.724 0.9698 0.9151 0.9547 1.1881 0.8461 0.5123 0.41947 0.47881 0.568
3906.180 0.379 0.309 0.45685 0.545 0.589 0.42379 0.3824 0.3956 0.44906 0.5984
3925.470 0.5631 0.47655 0.44947 0.6508 0.7361 0.5415 0.47537 0.6027 0.8213 0.7875
3944.760 0.8984 0.8428 0.7212 0.923 0.7927 0.6735 0.9034 0.9276 0.9229 0.8567
3964.049 0.7206 0.7741 0.8035 0.7001 0.7021 0.6017 0.48418 0.7188 0.4502 0.181
3983.339 0.614 0.735 0.5789 0.3572 0.195 0.3515 0.6049 0.6823 0.5317 0.5779
##END=
