##TITLE=11-Hexadecyn-1-ol
##JCAMP-DX=4.24
##DATA TYPE=INFRARED SPECTRUM
##ORIGIN=EPA-IR VAPOR PHASE LIBRARY
##OWNER=SRD/NIST
Collection (C) 2018 copyright by the U.S. Secretary of Commerce
on behalf of the United States of America. All rights reserved.
##CAS REGISTRY NO=65686-49-9
##MOLFORM=C 16 H 30 O
##$NIST SOURCE=MSDC-IR
##STATE=gas
##XUNITS=1/CM
##YUNITS=ABSORBANCE
##XFACTOR=1.
##YFACTOR=0.001
##DELTAX=1.929
##FIRSTX=549.8
##LASTX=4000.8
##FIRSTY=0.7082
##MAXX=4000.75
##MINX=549.766
##MAXY=0.0209389
##MINY=0
##NPOINTS=1790
##XYDATA=(X++(Y..Y))
549.766 0.7082 0.6962 0.7491 0.916 0.9472 0.3964 0.3452 0.7683 0.7542 0.4736
569.056 0.5142 0.6112 0.3692 0.619 0.5159 0.1547 0.4175 0.7593 0.9205 0.613
588.346 0.2581 0.1996 0.2121 0.1714 0.4412 0.5741 0.3668 0.2951 0.2646 0.2648
607.636 0.3019 0.14075 0.028 0.11795 0.203 0.1606 0.3086 0.3919 0.2988 0.3603
626.926 0.3333 0.4041 0.06695 0.0259 0.3295 0.1551 0.276 0.483 0.4269 0.2262
646.216 0.2653 0.2536 0.09263 0.14382 0.0337 0 0.2523 0.4148 0.5055 0.6568
665.506 0.5513 0.427 0.4105 0.4287 0.2836 0.3806 0.5521 0.3174 0.14239 0.2518
684.796 0.4653 0.4105 0.4384 0.59 0.5384 0.4669 0.4134 0.3923 0.4377 0.4508
704.086 0.4404 0.3877 0.154 0.05902 0.1625 0.4075 0.806 0.9008 0.7203 0.5342
723.376 0.4045 0.5533 0.7242 0.8194 0.895 0.6123 0.5307 0.6939 0.4764 0.3274
742.666 0.5111 0.4825 0.4553 0.4783 0.5796 0.5592 0.4415 0.4777 0.3709 0.2749
761.956 0.3021 0.455 0.382 0.1867 0.3199 0.4462 0.3361 0.2756 0.3888 0.2269
781.246 0.1412 0.353 0.3413 0.4044 0.5614 0.5451 0.5127 0.3833 0.4275 0.6083
800.536 0.6061 0.6315 0.4539 0.2748 0.2371 0.4882 0.5316 0.3317 0.3268 0.2571
819.826 0.4781 0.4557 0.3832 0.5612 0.6279 0.4089 0.293 0.4377 0.4481 0.3196
839.116 0.2046 0.4052 0.6545 0.668 0.3782 0.1891 0.3392 0.3817 0.3573 0.325
858.406 0.3155 0.4281 0.4103 0.2581 0.226 0.4073 0.3946 0.5439 0.6341 0.4378
877.696 0.5409 0.4659 0.3244 0.4447 0.5463 0.5504 0.4952 0.5183 0.5708 0.4532
896.986 0.4668 0.4708 0.345 0.3933 0.472 0.5284 0.5044 0.3722 0.3207 0.3633
916.276 0.3733 0.5228 0.6184 0.4064 0.4402 0.6233 0.6254 0.5885 0.6141 0.5127
935.566 0.4567 0.5378 0.49 0.4413 0.5013 0.5611 0.5317 0.6773 0.7986 0.7449
954.856 0.6581 0.5691 0.5947 0.6839 0.7011 0.7562 0.7962 0.7442 0.7584 0.6987
974.146 0.5281 0.6277 0.741 0.8079 0.9367 0.9238 0.9089 0.9027 0.9245 0.9311
993.436 0.9245 0.9743 0.9716 0.9433 1.0272 1.1989 1.1989 1.0689 0.9729 1.1389
1012.726 1.3289 1.4689 1.5489 1.5289 1.6389 1.6189 1.7089 1.8689 1.8689 1.9089
1032.016 2.0789 2.1989 2.2289 2.3189 2.3589 2.3389 2.3189 2.3589 2.5289 2.5389
1051.306 2.4489 2.3089 2.1389 2.1289 2.1989 2.1489 1.8989 1.8089 1.6489 1.5189
1070.596 1.4489 1.2889 1.3089 1.3589 1.2589 1.1789 1.1889 1.1189 1.0789 1.0287
1089.886 0.9831 0.9278 0.887 0.995 1.0451 0.9014 0.7945 0.82 0.7671 0.7294
1109.176 0.6795 0.5757 0.6252 0.6323 0.6286 0.6444 0.6378 0.5994 0.5383 0.5525
1128.467 0.4114 0.4503 0.5728 0.5426 0.5861 0.6324 0.5509 0.5426 0.4887 0.3998
1147.757 0.5093 0.6 0.5905 0.5157 0.4865 0.5322 0.5955 0.5484 0.5377 0.6619
1167.047 0.5578 0.5342 0.6764 0.6852 0.6638 0.5767 0.5703 0.5953 0.6608 0.6233
1186.337 0.6797 0.8464 0.8622 0.7606 0.6417 0.6714 0.7094 0.6319 0.6862 0.8338
1205.627 0.7959 0.7033 0.7842 0.9212 0.8792 0.7733 0.8415 0.7995 0.6765 0.8401
1224.917 0.8134 0.6199 0.6651 0.7824 0.8305 0.7446 0.7134 0.7657 0.7225 0.6548
1244.207 0.755 0.9525 0.9199 0.8464 0.8659 0.8747 0.8845 0.8611 0.9113 0.8548
1263.497 0.8459 0.8608 0.8287 0.8822 0.914 0.8917 0.8657 0.9077 0.9468 0.9663
1282.787 0.9635 0.9324 0.9495 0.9304 0.8594 0.8948 0.8901 0.9476 1.0218 1.0589
1302.077 1.0295 0.9576 0.9777 1.0423 1.1389 1.2189 1.2189 1.2389 1.3589 1.4789
1321.367 1.4689 1.4989 1.5689 1.6089 1.6589 1.5589 1.5289 1.5989 1.4989 1.4089
1340.657 1.3489 1.2689 1.2189 1.3089 1.4089 1.3889 1.3589 1.3889 1.3389 1.2789
1359.947 1.3189 1.2689 1.1789 1.1789 1.1489 1.1489 1.1389 1.0789 1.1989 1.1789
1379.237 1.1289 1.1989 1.1389 1.1189 1.1189 1.0354 1.0422 1.0589 0.993 0.979
1398.527 0.9264 0.8318 0.7819 0.7993 0.7675 0.6897 0.6514 0.6568 0.6512 0.649
1417.817 0.7121 0.7774 0.8047 0.8483 0.9809 1.0391 1.0138 1.0989 1.1889 1.2889
1437.107 1.4189 1.4889 1.6289 1.6789 1.5289 1.4589 1.5489 1.6089 1.6089 1.7089
1456.397 1.7689 1.7189 1.7589 1.7889 1.7389 1.7089 1.6189 1.4889 1.3189 1.1789
1475.687 1.1889 1.0689 0.9647 0.9433 0.85 0.6915 0.5888 0.5519 0.5237 0.5347
1494.977 0.5297 0.459 0.4999 0.5594 0.4674 0.3852 0.4109 0.4721 0.4596 0.3943
1514.267 0.3897 0.3548 0.4013 0.4079 0.3636 0.4186 0.3879 0.3117 0.3731 0.4065
1533.557 0.4083 0.5296 0.4514 0.3341 0.368 0.4158 0.4306 0.4017 0.3828 0.3924
1552.847 0.4187 0.4185 0.3819 0.3567 0.43 0.4299 0.411 0.3917 0.2905 0.3779
1572.137 0.4818 0.4039 0.3321 0.3012 0.2696 0.3873 0.5121 0.5105 0.4972 0.4848
1591.427 0.46 0.4129 0.4307 0.4768 0.3586 0.3908 0.44 0.3619 0.3502 0.401
1610.717 0.4007 0.3582 0.3154 0.218 0.3592 0.407 0.3228 0.347 0.3062 0.2559
1630.007 0.3154 0.3981 0.4301 0.3469 0.2352 0.2069 0.2381 0.2486 0.2197 0.254
1649.297 0.318 0.2267 0.2026 0.282 0.2666 0.2897 0.296 0.3776 0.374 0.2507
1668.587 0.238 0.3279 0.3782 0.3545 0.3281 0.2956 0.3311 0.3573 0.3524 0.314
1687.877 0.3768 0.4279 0.3456 0.3105 0.3795 0.472 0.4104 0.3266 0.312 0.3112
1707.167 0.2727 0.2515 0.3228 0.3166 0.1998 0.2231 0.3089 0.3215 0.4103 0.4717
1726.457 0.3865 0.301 0.3804 0.4495 0.3918 0.3806 0.3926 0.3382 0.3283 0.3543
1745.747 0.3634 0.3504 0.2934 0.3444 0.3846 0.3262 0.3568 0.3478 0.2651 0.3079
1765.037 0.4054 0.4375 0.3929 0.3081 0.3304 0.3854 0.3821 0.406 0.424 0.4072
1784.327 0.381 0.386 0.3783 0.3833 0.4288 0.4349 0.4286 0.3944 0.3613 0.3373
1803.617 0.2828 0.2684 0.2972 0.3197 0.3291 0.4275 0.4951 0.4273 0.3717 0.4035
1822.907 0.4495 0.5097 0.4609 0.3741 0.3958 0.3722 0.4172 0.4765 0.4164 0.3668
1842.197 0.3584 0.4068 0.4573 0.384 0.3009 0.3162 0.4139 0.4572 0.4013 0.3804
1861.487 0.3476 0.3251 0.4128 0.4273 0.3248 0.3839 0.4614 0.4822 0.4558 0.3506
1880.777 0.2892 0.3822 0.4619 0.375 0.3849 0.4439 0.4237 0.3633 0.3724 0.4613
1900.067 0.4312 0.3761 0.4207 0.4392 0.4099 0.4367 0.4418 0.4065 0.3889 0.3628
1919.357 0.3797 0.4147 0.4772 0.4959 0.4334 0.405 0.4038 0.3997 0.3767 0.3843
1938.647 0.4195 0.3423 0.3462 0.431 0.3948 0.3627 0.356 0.392 0.4266 0.4526
1957.937 0.4455 0.3366 0.3322 0.3852 0.3977 0.3994 0.3913 0.3996 0.3476 0.2955
1977.227 0.3795 0.4259 0.3646 0.3422 0.4121 0.4662 0.4013 0.381 0.4017 0.4254
1996.517 0.4335 0.3878 0.3708 0.4026 0.4062 0.3832 0.4248 0.4268 0.4217 0.4672
2015.807 0.432 0.386 0.3772 0.3887 0.398 0.4617 0.4736 0.403 0.376 0.3589
2035.097 0.3915 0.4142 0.4025 0.432 0.5272 0.5718 0.4343 0.3539 0.4528 0.4547
2054.387 0.3804 0.4442 0.5367 0.4635 0.4588 0.4961 0.488 0.5093 0.4775 0.4018
2073.677 0.3472 0.4078 0.3873 0.3662 0.4348 0.3918 0.3653 0.4535 0.4917 0.5021
2092.967 0.4628 0.4068 0.4434 0.4943 0.4507 0.3728 0.471 0.5019 0.4358 0.4755
2112.257 0.5008 0.4808 0.4807 0.4601 0.4316 0.4919 0.4797 0.4926 0.4784 0.3906
2131.547 0.4213 0.512 0.5089 0.4329 0.417 0.3898 0.3811 0.4008 0.3982 0.4097
2150.837 0.4171 0.3677 0.3671 0.4067 0.4268 0.4263 0.4083 0.4585 0.3869 0.3029
2170.127 0.4198 0.4654 0.4592 0.4763 0.4526 0.4551 0.4969 0.5191 0.5164 0.483
2189.417 0.404 0.3999 0.446 0.4593 0.4154 0.3759 0.4098 0.4095 0.4362 0.4947
2208.707 0.4691 0.4604 0.4104 0.3647 0.4556 0.4517 0.3652 0.4607 0.4909 0.4493
2227.997 0.4055 0.3929 0.5056 0.5628 0.5062 0.4953 0.4873 0.4455 0.5146 0.5391
2247.287 0.5178 0.4809 0.4939 0.514 0.5481 0.5466 0.4194 0.3885 0.3445 0.4316
2266.577 0.5979 0.6004 0.5666 0.4723 0.4661 0.421 0.3976 0.5036 0.5791 0.5902
2285.868 0.499 0.4514 0.4416 0.4874 0.5136 0.4445 0.5209 0.596 0.5058 0.4522
2305.158 0.4188 0.4223 0.5087 0.4977 0.5497 0.6418 0.5189 0.444 0.4431 0.4525
2324.448 0.5041 0.4739 0.4334 0.3927 0.3586 0.3587 0.4131 0.5212 0.5452 0.5229
2343.738 0.5503 0.5549 0.6306 0.5694 0.365 0.4048 0.5027 0.4548 0.4767 0.4838
2363.028 0.4094 0.4135 0.4368 0.4206 0.3928 0.4283 0.5053 0.5745 0.5271 0.4787
2382.318 0.5186 0.4961 0.4888 0.5049 0.4651 0.4278 0.4456 0.5018 0.4867 0.4857
2401.608 0.4164 0.4473 0.6238 0.6113 0.5324 0.4479 0.4335 0.3428 0.3606 0.5424
2420.898 0.6434 0.5526 0.4886 0.5498 0.5641 0.5052 0.532 0.6073 0.5026 0.5383
2440.188 0.544 0.5373 0.4908 0.4288 0.5334 0.5945 0.5645 0.5387 0.5673 0.5904
2459.478 0.4725 0.3276 0.3558 0.4044 0.4409 0.4054 0.3908 0.4875 0.5997 0.5604
2478.768 0.5364 0.6297 0.5363 0.4627 0.4752 0.5184 0.5036 0.4297 0.468 0.497
2498.058 0.5608 0.5286 0.3991 0.4736 0.5432 0.6196 0.6503 0.5475 0.5719 0.5262
2517.348 0.3777 0.4069 0.5149 0.5032 0.4877 0.514 0.4116 0.3882 0.4762 0.5048
2536.638 0.5011 0.5972 0.6113 0.4861 0.4718 0.4869 0.6468 0.68 0.4987 0.4299
2555.928 0.4529 0.4652 0.4941 0.5833 0.6004 0.5303 0.4952 0.4947 0.4579 0.4228
2575.218 0.4828 0.5669 0.6096 0.5698 0.5331 0.6112 0.6713 0.6974 0.6757 0.642
2594.508 0.6767 0.644 0.5973 0.5568 0.5353 0.605 0.5378 0.5565 0.5936 0.4441
2613.798 0.336 0.4179 0.573 0.64 0.6874 0.6495 0.6086 0.6325 0.5686 0.5371
2633.088 0.6115 0.6849 0.688 0.6697 0.7425 0.6469 0.7008 0.7676 0.6223 0.6976
2652.378 0.7357 0.6728 0.73 0.8089 0.7776 0.7128 0.5808 0.5796 0.7171 0.8106
2671.668 0.8764 0.8381 0.8055 0.8565 0.8211 0.6819 0.7192 0.7429 0.682 0.6548
2690.958 0.6713 0.6837 0.642 0.7239 0.852 0.6986 0.6799 0.7517 0.6555 0.7666
2710.248 0.7428 0.6536 0.7669 0.7946 0.6775 0.6789 0.8061 0.9029 0.8126 0.7019
2729.538 0.7734 0.7638 0.6914 0.7297 0.7467 0.7912 0.8409 0.8645 0.7554 0.7297
2748.828 0.9337 0.8378 0.7648 0.9312 0.966 0.9597 0.9972 0.8929 0.9581 1.0448
2768.118 0.8868 0.9078 0.9292 0.8832 0.9582 0.9256 0.912 0.9435 0.9796 1.009
2787.408 1.0139 0.9787 0.9307 0.9854 0.966 0.9506 0.9982 1.0236 1.0989 1.1789
2806.698 1.2089 1.2589 1.3889 1.3789 1.2789 1.2489 1.3589 1.5089 1.5389 1.5089
2825.988 1.5089 1.6189 1.6689 1.7189 1.8589 1.8889 1.9389 2.2889 2.5989 2.7289
2845.278 2.9289 3.3489 4.0189 4.7089 5.3389 5.8789 6.3689 6.9389 7.4389 7.8389
2864.568 8.0789 7.9189 7.7089 7.4489 7.0089 6.5889 6.3889 6.2589 6.0389 5.8789
2883.858 5.6089 5.4789 5.4689 5.3689 5.3789 5.4189 5.5089 5.6189 5.8289 6.1389
2903.148 6.5489 6.9789 7.4489 8.0889 8.8489 9.5889 10.2189 10.9389 11.8489 12.7789
2922.438 14.1189 15.5489 16.8189 18.2189 19.4589 20.4489 20.9389 20.9289 20.5889 19.9389
2941.728 18.9589 17.6089 15.8989 14.1489 12.5789 10.9889 9.7489 8.9289 8.2989 7.8489
2961.018 7.4289 7.0589 6.7089 6.3489 5.9389 5.5489 5.2789 4.7489 4.1389 3.8089
2980.308 3.4389 3.0889 2.8189 2.6489 2.5689 2.3589 2.0689 1.8389 1.7789 1.6689
2999.598 1.4689 1.3689 1.3889 1.3489 1.4389 1.6089 1.4289 1.3189 1.2289 1.0589
3018.888 1.0789 1.1389 1.1989 1.0989 1.1089 1.1689 1.0247 0.9612 0.9168 1.0689
3038.178 1.1489 0.8736 0.8453 1.0889 1.0115 0.9198 0.9636 1.029 0.9951 0.7637
3057.468 0.7715 0.8114 0.7015 0.7441 0.7853 0.7042 0.8234 0.8778 0.793 0.8676
3076.758 0.9444 1.1989 1.0374 0.7301 0.8363 0.8074 0.6996 0.526 0.622 0.6639
3096.048 0.644 0.7243 0.638 0.5957 0.6386 0.8009 0.7368 0.6447 0.5945 0.4571
3115.338 0.484 0.6062 0.8371 0.9475 0.7839 0.6615 0.7468 0.7522 0.6594 0.7251
3134.628 0.7364 0.7017 0.7883 0.7763 0.7339 0.7832 0.7856 0.7405 0.6314 0.6647
3153.918 0.6045 0.4932 0.6393 0.763 0.7266 0.6022 0.4992 0.546 0.6498 0.5904
3173.208 0.5131 0.5415 0.662 0.7666 0.8353 0.8841 0.8927 0.8363 0.84 0.8629
3192.498 0.8332 0.731 0.446 0.415 0.6437 0.6332 0.5602 0.562 0.5724 0.6065
3211.788 0.7394 0.8192 0.6509 0.5998 0.8148 0.9016 0.6643 0.666 0.8415 0.754
3231.078 0.5992 0.6376 0.8422 0.8076 0.6139 0.535 0.6024 0.7812 0.8692 0.8644
3250.368 0.7319 0.6264 0.7102 0.6482 0.583 0.6869 0.6159 0.605 0.7884 0.8193
3269.658 0.6883 0.4591 0.6187 0.8774 0.579 0.4299 0.5854 0.6111 0.7676 0.9757
3288.948 0.9221 0.7306 0.7928 0.8584 0.7539 0.8718 0.8511 0.8561 0.9126 0.8569
3308.238 0.7941 0.7583 0.7045 0.6009 0.6359 0.7649 0.9155 0.9262 0.9298 0.8916
3327.528 0.7992 0.6716 0.5902 0.6478 0.841 0.9683 0.8963 0.7873 0.7274 0.6872
3346.818 0.8968 0.8333 0.7108 0.7189 0.4866 0.5398 0.6478 0.666 0.7194 0.7365
3366.108 0.688 0.5844 0.8395 1.0889 0.7784 0.4354 0.3768 0.5168 0.6742 0.6572
3385.398 0.6484 0.7662 0.6638 0.6691 0.7869 0.7729 1.017 0.9894 0.7065 0.6363
3404.688 0.655 0.6872 0.6247 0.6096 0.7187 0.9038 0.9637 0.8622 0.8371 0.8277
3423.978 0.7153 0.7456 0.9277 0.9878 0.909 0.7551 0.732 0.8743 0.8987 0.8237
3443.269 0.8301 0.9294 0.9882 0.9305 0.7938 0.6926 0.8576 0.8472 0.649 0.6893
3462.559 0.658 0.6831 0.7915 0.714 0.6237 0.7352 0.9261 1.0331 1.1889 1.0589
3481.849 0.5632 0.6361 0.7318 0.456 0.594 0.7702 0.6949 0.5607 0.6257 0.8459
3501.139 0.7733 0.717 0.747 0.8922 0.8098 0.6359 0.7109 0.7477 0.7168 0.6662
3520.429 0.6942 0.7887 0.7335 0.6466 0.7237 0.5235 0.4894 0.5343 0.3865 0.6152
3539.719 0.836 0.7476 0.8525 0.8023 0.7593 0.7567 0.6898 0.705 0.7339 0.9342
3559.009 0.8583 0.7191 0.6295 0.6139 0.8672 0.8018 0.7387 1.003 1.0989 1.0589
3578.299 0.8511 0.6578 0.6507 0.6727 0.7235 0.7538 0.6906 0.7966 0.9626 0.8118
3597.589 0.7996 0.9141 0.7909 0.8539 0.9033 0.6817 0.8377 1.0213 0.9783 0.8215
3616.879 0.7914 0.8579 0.8872 0.8885 0.9306 0.9585 0.7421 0.7148 0.7714 0.7757
3636.169 0.8506 0.7495 0.6863 0.9055 0.9742 0.9096 1.0989 1.1889 0.9773 1.0689
3655.459 1.1589 1.0118 1.0242 1.2389 1.2689 1.2289 1.3789 1.4589 1.3289 1.1689
3674.749 1.0689 1.1689 1.2989 1.3489 1.2689 1.0689 1.1089 0.9459 0.6483 0.713
3694.039 0.7268 0.6364 0.7566 0.9349 0.8928 0.6648 0.5471 0.6327 0.6603 0.711
3713.329 0.6774 0.6369 0.7532 0.8564 0.9257 0.9201 0.9243 0.8929 0.7668 0.6384
3732.619 0.5312 0.603 0.7019 0.8086 0.9092 0.8843 0.8671 0.7682 0.8746 0.9049
3751.909 0.6573 0.4627 0.4937 0.6057 0.6463 0.7057 0.5402 0.589 0.8756 0.6937
3771.199 0.7231 1.0989 0.9834 0.9856 1.0689 1.0186 0.9222 0.8158 0.9546 0.8153
3790.489 0.6655 0.6573 0.6787 0.8886 1.0408 0.764 0.572 0.7596 0.6759 0.6797
3809.779 0.9218 0.8633 0.8106 0.7002 0.6048 0.8755 0.8839 0.7676 0.7857 0.6727
3829.069 0.6113 0.7825 0.8932 0.9519 0.7272 0.5881 0.5479 0.6878 0.9236 0.5958
3848.359 0.462 0.7065 0.701 0.5434 0.6506 0.6982 0.7902 0.7881 0.6203 0.792
3867.649 1.0689 0.8543 0.6794 0.8068 0.9482 0.8402 0.5689 0.7364 0.8492 0.6656
3886.939 0.791 0.8694 0.8519 1.0589 1.0238 0.895 1.002 0.9399 0.8885 0.9315
3906.229 0.8693 0.7739 0.7455 0.744 0.7475 0.8216 0.802 0.7874 0.7992 0.8403
3925.519 0.8136 0.8035 0.6668 0.7102 0.8864 0.9443 1.0589 0.899 0.7197 0.8514
3944.809 0.9847 0.9553 0.9564 0.9538 0.7201 0.6253 0.9828 1.1889 0.9337 0.6925
3964.099 0.68 0.7249 0.7095 0.7348 0.7101 0.5488 0.6595 0.816 0.812 0.7623
3983.389 0.5365 0.6038 0.9185 1.0414 0.9122 0.8031 0.9472 0.9853 0.805 0.8722
##END=
