##TITLE=3'-Trifluoromethylformanilide
##JCAMP-DX=4.24
##DATA TYPE=INFRARED SPECTRUM
##ORIGIN=EPA-IR VAPOR PHASE LIBRARY
##OWNER=SRD/NIST
Collection (C) 2018 copyright by the U.S. Secretary of Commerce
on behalf of the United States of America. All rights reserved.
##CAS REGISTRY NO=657-78-3
##MOLFORM=C 8 H 6 F 3 N O
##$NIST SOURCE=MSDC-IR
##STATE=gas
##XUNITS=1/CM
##YUNITS=ABSORBANCE
##XFACTOR=1.
##YFACTOR=0.001
##DELTAX=1.92898
##FIRSTX=549.8
##LASTX=4000.7
##FIRSTY=13.489
##MAXX=4000.7
##MINX=549.759
##MAXY=0.340519
##MINY=0
##NPOINTS=1790
##XYDATA=(X++(Y..Y))
549.759 13.489 13.449 13.099 12.419 12.179 12.039 11.819 11.549 11.329 11.179
569.049 10.989 10.859 11.029 11.489 11.869 12.029 12.129 12.229 12.379 12.559
588.339 12.359 11.969 11.349 10.759 10.449 9.979 9.489 9.049 8.649 8.229
607.628 7.719 7.229 6.819 6.609 6.389 6.029 5.889 5.819 5.829 5.829
626.918 5.809 5.829 5.899 5.969 6.019 6.219 6.259 6.369 6.779 7.359
646.208 8.459 10.109 11.919 12.939 13.119 13.559 13.919 13.469 12.559 11.479
665.498 10.749 10.759 11.309 12.059 12.769 13.759 15.179 16.479 17.479 18.719
684.787 20.409 22.389 24.519 26.699 29.779 34.179 36.709 34.999 31.389 27.989
704.077 25.019 22.179 19.139 15.949 13.049 10.739 8.919 7.459 6.629 6.179
723.367 5.999 6.159 6.499 7.219 8.179 8.739 8.739 8.709 8.539 8.139
742.657 7.449 6.299 5.179 4.469 4.079 3.859 3.969 4.129 4.309 4.389
761.947 4.479 4.879 5.479 6.289 7.049 8.069 9.639 11.349 13.419 15.779
781.236 18.149 20.469 22.869 25.369 27.649 28.559 27.849 26.179 23.619 20.849
800.526 18.279 15.849 13.499 11.319 9.239 7.409 6.189 5.459 4.829 4.389
819.816 4.179 3.789 3.549 3.659 3.789 3.819 3.779 3.799 3.849 3.899
839.106 3.779 3.789 3.939 4.219 4.559 4.799 5.119 5.399 5.929 6.489
858.395 6.939 7.499 8.159 8.829 9.499 10.489 11.659 12.519 13.239 13.769
877.685 14.119 14.409 14.469 14.389 14.129 13.669 13.389 13.299 13.169 13.149
896.975 13.259 13.459 13.709 13.719 13.339 12.549 11.609 10.659 9.669 8.789
916.265 7.889 7.399 7.149 6.799 6.709 7.049 7.449 7.639 7.859 8.009
935.555 8.029 7.939 7.689 6.999 6.019 5.299 4.739 4.089 3.659 3.539
954.844 3.379 3.319 3.319 3.219 3.239 3.299 3.259 3.309 3.299 3.109
974.134 3.149 3.419 3.459 3.379 3.429 3.609 3.639 3.529 3.599 3.939
993.424 4.339 4.769 5.079 5.269 5.389 5.439 5.459 5.349 5.239 5.179
1012.714 5.079 4.999 4.989 4.989 4.929 5.069 5.359 5.649 5.819 5.949
1032.003 6.289 6.649 6.629 6.859 7.499 7.899 8.859 9.999 10.919 12.149
1051.293 13.889 15.949 18.549 22.599 28.199 35.139 43.669 52.839 60.929 66.909
1070.583 70.129 71.629 70.939 66.439 59.209 51.399 46.019 43.719 43.369 45.059
1089.873 48.169 52.249 56.859 60.729 63.349 65.099 66.469 66.859 65.789 64.299
1109.163 63.679 63.569 64.009 65.359 66.269 66.709 67.109 67.409 68.409 70.669
1128.452 74.529 80.839 89.819 101.449 116.349 134.239 154.249 175.689 197.789 218.849
1147.742 235.559 244.589 243.699 232.679 214.519 193.569 173.169 155.329 141.689 133.829
1167.032 132.369 136.279 144.459 155.649 168.439 179.469 184.669 182.759 174.779 163.729
1186.322 150.819 135.609 119.299 102.459 86.559 73.259 62.459 54.339 47.909 42.059
1205.611 37.999 35.539 33.449 32.399 32.439 33.619 35.159 37.589 40.529 43.239
1224.901 46.359 50.009 53.729 57.519 61.439 64.829 67.599 69.709 70.379 69.349
1244.191 67.189 63.909 59.609 54.929 50.069 45.279 41.309 38.139 35.949 34.949
1263.481 34.929 35.699 36.759 38.089 39.199 39.739 39.929 39.389 38.219 36.899
1282.771 35.379 33.919 33.029 32.949 33.659 34.929 36.629 38.809 41.479 44.639
1302.060 48.209 52.449 57.519 63.439 70.729 80.169 92.999 110.519 134.079 164.989
1321.350 202.869 244.419 283.169 311.519 324.629 321.779 303.219 268.769 220.029 164.349
1340.640 114.189 78.489 56.799 44.459 37.469 33.449 31.139 29.909 29.309 28.949
1359.930 28.529 27.889 26.839 25.249 23.269 21.049 18.699 16.399 14.209 12.299
1379.219 10.979 10.239 9.939 9.999 10.329 10.809 11.469 12.219 12.919 13.479
1398.509 14.049 14.759 15.499 16.289 17.089 17.909 18.789 19.719 20.669 21.719
1417.799 23.149 25.059 27.369 30.309 34.219 39.039 44.719 50.729 56.449 61.089
1437.089 63.959 64.659 63.309 60.329 56.269 51.109 44.719 38.159 32.559 28.759
1456.378 26.759 25.999 26.079 26.639 27.579 28.849 30.409 32.269 34.519 37.449
1475.668 41.169 45.769 51.149 57.219 63.249 68.399 72.019 73.779 73.739 72.169
1494.958 69.279 65.349 61.209 57.769 55.709 55.129 55.739 56.949 58.389 60.109
1514.248 61.939 63.719 65.029 65.479 64.729 62.659 59.359 54.889 49.459 43.469
1533.538 37.309 31.579 26.889 23.089 20.319 18.369 16.859 15.679 14.649 13.649
1552.827 12.809 11.929 11.109 10.389 9.799 9.459 9.309 9.349 9.589 10.009
1572.117 10.579 11.349 12.219 13.249 14.389 15.759 17.459 19.369 21.379 23.509
1591.407 25.729 27.789 29.559 31.059 32.179 32.939 33.449 33.829 34.259 34.789
1610.697 35.199 35.469 35.419 34.889 33.849 32.169 29.759 26.729 23.349 19.869
1629.986 16.639 14.029 12.089 10.579 9.399 8.519 7.869 7.409 7.099 6.809
1649.276 6.559 6.509 6.469 6.409 6.369 6.329 6.369 6.429 6.489 6.609
1668.566 6.689 6.799 6.949 7.109 7.339 7.659 8.039 8.439 8.929 9.529
1687.856 10.269 11.089 12.179 13.659 15.429 17.379 19.489 21.929 24.369 26.919
1707.146 29.489 31.979 34.429 36.779 39.259 42.279 46.379 51.819 59.459 70.209
1726.435 85.229 105.849 134.369 171.689 219.489 271.399 314.319 337.179 340.519 333.679
1745.725 315.009 277.739 219.379 157.269 110.679 80.769 61.209 48.529 40.019 34.199
1765.015 30.419 27.919 26.059 24.539 22.939 21.279 19.459 17.499 15.579 13.789
1784.305 12.089 10.599 9.339 8.309 7.549 6.929 6.389 6.029 5.799 5.579
1803.594 5.249 4.929 4.739 4.539 4.359 4.169 3.949 3.809 3.749 3.729
1822.884 3.619 3.529 3.529 3.449 3.399 3.409 3.349 3.259 3.189 3.159
1842.174 3.119 3.139 3.159 3.129 3.079 3.079 3.139 3.159 3.169 3.109
1861.464 3.049 3.129 3.169 3.159 3.139 3.019 2.959 2.969 2.949 2.899
1880.754 2.819 2.779 2.719 2.569 2.429 2.289 2.119 1.979 1.909 1.839
1900.043 1.749 1.679 1.679 1.699 1.769 1.859 1.859 1.869 1.889 1.919
1919.333 2.029 2.069 2.099 2.169 2.239 2.319 2.399 2.479 2.579 2.619
1938.623 2.589 2.539 2.439 2.359 2.259 2.149 2.119 2.029 1.899 1.879
1957.913 1.849 1.789 1.739 1.679 1.579 1.439 1.349 1.339 1.319 1.299
1977.202 1.279 1.249 1.219 1.209 1.229 1.229 1.219 1.229 1.179 1.169
1996.492 1.239 1.209 1.127 1.1238 1.199 1.229 1.189 1.1167 1.0121 0.9851
2015.782 1.0038 0.9897 0.9668 0.9307 0.9153 0.9642 1.0203 0.9897 0.9657 0.9523
2035.072 0.9257 0.8974 0.8714 0.8416 0.8452 0.8279 0.8335 0.8271 0.8212 0.8699
2054.362 0.8808 0.8727 0.9084 0.9963 1.0022 1.0784 1.159 1.159 1.179 1.1275
2073.651 1.0744 1.0577 1.0379 1.0327 1.0284 1.0542 1.0676 1.0529 1.0686 0.9802
2092.941 0.9193 0.9545 0.9435 0.9648 1.002 0.9814 0.9128 0.8656 0.8533 0.823
2112.231 0.7965 0.7428 0.7191 0.7694 0.7559 0.7638 0.8098 0.8017 0.8236 0.8455
2131.521 0.8518 0.8953 0.9167 0.9241 1.0044 1.0574 1.029 1.0554 1.0553 1.0172
2150.810 1.0111 0.984 1.0059 1.0633 1.0705 1.0486 1.0636 1.0716 1.0318 1.0052
2170.100 1.0976 1.149 1.1197 1.1247 1.1377 1.139 1.1353 1.149 1.1066 1.1
2189.390 1.139 1.1135 1.1282 1.179 1.179 1.179 1.189 1.219 1.269 1.269
2208.680 1.329 1.439 1.479 1.519 1.529 1.509 1.459 1.419 1.429 1.439
2227.970 1.399 1.339 1.329 1.299 1.289 1.289 1.239 1.249 1.249 1.279
2247.259 1.279 1.219 1.209 1.159 1.159 1.1359 1.1214 1.1178 1.1176 1.189
2266.549 1.209 1.239 1.249 1.239 1.229 1.259 1.329 1.349 1.399 1.379
2285.839 1.369 1.369 1.269 1.249 1.219 1.179 1.1126 1.0168 1.0457 1.0603
2305.129 1.0741 1.1043 1.0927 1.0977 1.1135 1.209 1.249 1.269 1.279 1.259
2324.418 1.269 1.269 1.329 1.399 1.449 1.459 1.469 1.529 1.619 1.629
2343.708 1.579 1.629 1.669 1.639 1.609 1.589 1.619 1.569 1.469 1.429
2362.998 1.389 1.389 1.409 1.369 1.309 1.249 1.259 1.329 1.319 1.259
2382.288 1.229 1.229 1.259 1.309 1.289 1.219 1.189 1.169 1.139 1.149
2401.578 1.189 1.219 1.239 1.219 1.209 1.219 1.229 1.279 1.219 1.199
2420.867 1.229 1.139 1.103 1.0904 1.098 1.095 1.0447 1.0156 0.9465 0.9086
2440.157 0.8888 0.776 0.7589 0.8366 0.858 0.8165 0.7724 0.7447 0.7396 0.7422
2459.447 0.7481 0.7186 0.689 0.7775 0.8608 0.7791 0.7132 0.784 0.852 0.9037
2478.737 0.9388 0.9257 0.9145 0.86 0.8107 0.8967 0.9243 0.7872 0.7168 0.8067
2498.026 0.8363 0.8378 0.8534 0.8577 0.8563 0.8646 0.923 0.9698 0.9786 1.0153
2517.316 0.9845 0.9387 0.9111 0.8378 0.8763 0.878 0.8926 0.9601 0.9196 0.8575
2536.606 0.7994 0.8131 0.8661 0.8382 0.7867 0.7586 0.7587 0.7461 0.6968 0.6316
2555.896 0.5958 0.6373 0.6771 0.6611 0.6276 0.6415 0.7115 0.7521 0.7048 0.6669
2575.186 0.6833 0.6271 0.5915 0.6585 0.6714 0.6587 0.6786 0.7657 0.8379 0.7947
2594.475 0.8292 0.876 0.8933 1 1.0591 1.0101 0.9523 0.9564 1.0292 1.0306
2613.765 1.0254 1.0575 1.0287 0.9609 0.997 0.9881 0.9066 0.8882 0.8602 0.8934
2633.055 0.9786 0.997 0.9882 1.0256 1.0391 1.0635 1.111 1.0925 1.1315 1.209
2652.345 1.139 1.0939 1.1388 1.169 1.189 1.1189 0.9704 0.9464 0.9964 0.9941
2671.634 0.9552 0.937 0.9584 0.9152 0.9249 1.0568 1.1159 1.0566 1.0581 1.0987
2690.924 1.159 1.219 1.269 1.249 1.249 1.289 1.329 1.329 1.329 1.349
2710.214 1.369 1.459 1.449 1.519 1.659 1.719 1.739 1.789 1.889 1.949
2729.504 2.009 2.029 2.129 2.219 2.209 2.249 2.369 2.599 2.789 2.999
2748.794 3.389 3.899 4.519 5.279 6.119 7.189 8.329 9.289 10.089 10.599
2768.083 10.959 11.049 10.729 10.069 9.189 8.299 7.439 6.569 5.719 4.889
2787.373 4.179 3.739 3.479 3.259 2.999 2.739 2.609 2.599 2.579 2.569
2806.663 2.569 2.619 2.749 2.859 2.959 3.109 3.289 3.499 3.659 3.939
2825.953 4.249 4.529 4.859 5.219 5.609 6.039 6.719 7.509 8.579 10.029
2845.242 11.939 14.559 17.949 22.289 27.459 32.679 36.739 38.939 39.429 38.699
2864.532 37.099 34.429 30.169 24.929 20.439 17.119 14.739 13.039 11.639 10.459
2883.822 9.349 8.389 7.499 6.689 6.059 5.539 4.989 4.499 4.079 3.669
2903.112 3.389 3.329 3.119 2.779 2.699 2.619 2.599 2.659 2.579 2.449
2922.401 2.299 2.279 2.289 2.269 2.159 1.939 1.919 1.879 1.799 1.789
2941.691 1.739 1.679 1.639 1.569 1.479 1.419 1.369 1.259 1.149 1.1105
2960.981 1.159 1.199 1.1316 1.149 1.219 1.159 1.1131 1.199 1.259 1.189
2980.271 1.249 1.329 1.249 1.249 1.249 1.199 1.229 1.189 1.1378 1.0973
2999.561 1.1017 1.1216 1.0984 1.199 1.199 1.219 1.319 1.359 1.399 1.499
3018.850 1.729 2.009 2.209 2.449 2.729 2.919 3.089 3.319 3.529 3.669
3038.140 3.799 3.859 3.799 3.849 4.039 4.189 4.249 4.229 4.259 4.369
3057.430 4.559 4.669 4.689 4.819 4.929 5.019 5.029 5.059 5.089 5.099
3076.720 5.059 4.989 4.989 4.909 4.719 4.559 4.479 4.359 4.349 4.339
3096.009 4.049 3.819 3.659 3.539 3.389 3.079 2.819 2.699 2.679 2.549
3115.299 2.399 2.259 2.119 2.049 1.949 1.869 1.859 1.809 1.779 1.799
3134.589 1.749 1.619 1.629 1.639 1.549 1.389 1.259 1.219 1.1197 1.0131
3153.879 0.9821 0.9002 0.748 0.6784 0.6054 0.4421 0.4296 0.511 0.4496 0.3912
3173.169 0.4004 0.3835 0.2933 0.26 0.4045 0.4386 0.3873 0.4561 0.4488 0.4131
3192.458 0.4534 0.4517 0.4451 0.4563 0.5718 0.6821 0.6374 0.5543 0.5312 0.5369
3211.748 0.5482 0.5725 0.5263 0.542 0.4898 0.3647 0.4411 0.4697 0.4393 0.4835
3231.038 0.4433 0.4444 0.488 0.5318 0.4812 0.4077 0.4006 0.3618 0.377 0.4354
3250.328 0.3421 0.23033 0.2845 0.3135 0.2958 0.2842 0.19973 0.13631 0.22983 0.2837
3269.617 0.3139 0.3164 0.2854 0.305 0.3492 0.3982 0.419 0.4391 0.4061 0.311
3288.907 0.247 0.2815 0.2831 0.3133 0.3195 0.2683 0.17381 0.23401 0.4871 0.4466
3308.197 0.3045 0.3719 0.5504 0.5368 0.4148 0.347 0.3761 0.4745 0.4483 0.4927
3327.487 0.6595 0.618 0.4533 0.3639 0.3511 0.3752 0.4884 0.6019 0.5002 0.4682
3346.777 0.5127 0.5549 0.6262 0.657 0.7001 0.6371 0.7381 0.827 0.7459 0.8463
3366.066 0.9102 0.9811 1.0555 1.1023 1.1313 1.149 1.219 1.209 1.209 1.399
3385.356 1.579 1.639 1.779 1.979 2.019 1.989 2.069 2.289 2.459 2.709
3404.646 2.919 3.199 3.469 3.759 4.449 5.159 5.749 6.439 7.169 7.839
3423.936 8.449 8.859 9.129 9.099 8.879 8.769 8.689 8.569 8.499 8.589
3443.225 8.959 9.569 10.339 11.159 11.869 12.399 12.579 12.499 12.189 11.659
3462.515 10.979 10.089 9.049 7.929 6.899 6.119 5.429 4.669 4.159 3.749
3481.805 3.229 2.899 2.739 2.439 2.219 2.119 1.929 1.759 1.679 1.459
3501.095 1.229 1.1157 0.9751 0.8887 0.7388 0.724 0.7066 0.5787 0.5438 0.6774
3520.385 0.782 0.6698 0.4847 0.2962 0.3394 0.5038 0.5293 0.5413 0.5112 0.4382
3539.674 0.5019 0.5146 0.4551 0.429 0.43 0.4928 0.5605 0.4071 0.3372 0.3426
3558.964 0.3016 0.3822 0.249 0.15467 0.2922 0.4513 0.3804 0.17573 0.20161 0.3368
3578.254 0.3092 0.18165 0.21907 0.2501 0.3258 0.3562 0.3345 0.2655 0.22612 0.3291
3597.544 0.2813 0.19433 0.18225 0.1041 0.0812 0.23689 0.20494 0.13155 0.15167 0.22029
3616.833 0.2652 0.13535 0.0699 0.146497 0.1678 0.2642 0.3818 0.2772 0.2653 0.2537
3636.123 0.17283 0.1026 0.138912 0.328 0.3835 0.2911 0.23799 0.3559 0.436 0.25
3655.413 0.0572 0.18261 0.2535 0.16305 0.15834 0.15493 0.2691 0.3992 0.4215 0.4414
3674.703 0.4753 0.4821 0.3838 0.2862 0.2607 0.2939 0.393 0.3528 0.2442 0.3625
3693.993 0.3623 0.23436 0.3094 0.3181 0.3248 0.3393 0.3456 0.4376 0.4686 0.4402
3713.282 0.3682 0.2924 0.3814 0.4403 0.2686 0.18433 0.23278 0.31 0.3931 0.4397
3732.572 0.3112 0.15685 0.141553 0.22329 0.3731 0.418 0.3444 0.3417 0.3722 0.4568
3751.862 0.4602 0.3118 0.2906 0.3255 0.3414 0.3141 0.3348 0.3519 0.3352 0.3391
3771.152 0.3289 0.2967 0.18594 0.138449 0.2464 0.2649 0.22023 0.1889 0.0957 0.1446
3790.441 0.23703 0.3166 0.2589 0.1678 0.18332 0.22973 0.2433 0.21097 0.1872 0.1177
3809.731 0.1039 0.16353 0.21869 0.18864 0.2863 0.2992 0.19056 0.15751 0.19356 0.21953
3829.021 0.23517 0.2898 0.2923 0.3566 0.23166 0.13739 0.1207 0.029 0.0779 0.143718
3848.311 0.1158 0.0816 0.024 0 0.0889 0.17996 0.23283 0.22791 0.2744 0.2473
3867.601 0.22304 0.3346 0.2403 0.1223 0.22314 0.20405 0.16619 0.3535 0.3298 0.18941
3886.890 0.2404 0.23449 0.2817 0.3365 0.3427 0.3642 0.2891 0.2768 0.345 0.3093
3906.180 0.20685 0.2612 0.3808 0.3 0.16759 0.0636 0.1029 0.104 0.13491 0.309
3925.470 0.378 0.2939 0.19384 0.2953 0.3176 0.2952 0.0636 0.0495 0.19204 0.3041
3944.760 0.4046 0.3929 0.4537 0.307 0.2243 0.23144 0.2518 0.3369 0.2478 0.2665
3964.049 0.3365 0.405 0.4975 0.4477 0.3995 0.355 0.4678 0.5188 0.4373 0.4322
3983.339 0.4222 0.4074 0.4768 0.4533 0.3581 0.3381 0.327 0.3112 0.2765 0.18149
##END=
