##TITLE=3,4-Dichlorobenzonitrile
##JCAMP-DX=4.24
##DATA TYPE=INFRARED SPECTRUM
##ORIGIN=EPA-IR VAPOR PHASE LIBRARY
##OWNER=SRD/NIST
Collection (C) 2018 copyright by the U.S. Secretary of Commerce
on behalf of the United States of America. All rights reserved.
##CAS REGISTRY NO=6574-99-8
##MOLFORM=C 7 H 3 Cl 2 N
##$NIST SOURCE=MSDC-IR
##STATE=gas
##XUNITS=1/CM
##YUNITS=ABSORBANCE
##XFACTOR=1.
##YFACTOR=0.001
##DELTAX=1.92898
##FIRSTX=549.8
##LASTX=4000.7
##FIRSTY=3.301
##MAXX=4000.7
##MINX=549.759
##MAXY=0.104481
##MINY=0
##NPOINTS=1790
##XYDATA=(X++(Y..Y))
549.759 3.301 4.221 4.961 5.231 5.241 5.131 5.021 5.001 4.431 3.461
569.049 3.031 3.481 3.911 4.191 4.871 6.221 7.591 9.011 10.511 12.391
588.339 14.981 19.061 23.181 23.601 23.491 25.171 26.321 26.431 25.821 24.461
607.628 22.801 20.501 17.321 13.601 9.971 7.661 6.501 5.351 4.181 3.141
626.918 2.161 1.401 1.0766 1.0166 0.84 0.9466 0.9215 0.8434 0.656 0.524
646.208 0.756 0.8384 0.8137 0.7318 0.6084 0.4505 0.622 1.0016 1.176 1.221
665.498 1.291 1.691 2.461 3.381 4.481 5.951 8.111 10.241 12.151 14.011
684.787 15.591 16.481 16.741 16.621 15.311 13.691 12.131 11.061 10.441 8.381
704.077 6.051 4.951 4.331 3.751 3.131 2.521 1.951 1.551 1.401 1.1509
723.367 0.9019 0.8383 0.7658 0.8958 0.8586 0.9928 1.471 1.701 1.861 2.111
742.657 2.351 2.391 2.371 2.321 2.111 1.811 1.491 1.221 1.231 1.103
761.947 0.9387 0.9398 1.0749 1.211 1.211 1.1866 1.331 1.731 2.181 2.551
781.236 2.831 2.841 2.541 2.451 2.611 2.621 2.441 2.801 3.371 3.901
800.526 5.051 6.681 8.841 11.741 15.201 19.111 23.151 27.201 31.401 36.541
819.816 43.201 49.731 49.431 40.841 34.111 31.121 28.311 25.401 22.481 19.921
839.106 17.911 16.441 15.461 15.601 16.621 18.101 19.911 21.741 23.391 24.781
858.395 25.741 25.841 25.451 25.551 25.851 25.661 25.001 23.891 22.921 22.951
877.685 23.931 25.051 26.171 27.801 30.031 33.891 37.011 32.731 25.561 21.871
896.975 19.581 17.141 14.361 11.481 8.821 6.601 4.781 3.511 2.721 2.111
916.265 1.691 1.561 1.381 1.1766 1.0879 1.1114 1.1662 1.0091 0.924 0.9057
935.555 0.8059 0.8469 0.9278 0.9215 0.9202 0.8965 1.0732 1.361 1.431 1.361
954.844 1.1497 1.0437 1.1623 1.1753 1.0417 0.9244 0.8945 0.938 0.9363 0.8849
974.134 0.822 0.7056 0.799 1.0307 0.9788 0.9554 1.0021 0.9073 0.8566 0.8929
993.424 0.8308 0.9368 1.221 1.251 1.401 1.731 1.821 2.091 2.301 2.451
1012.714 2.921 3.441 4.221 5.331 7.171 9.601 13.081 18.031 23.821 29.941
1032.003 35.161 38.641 41.071 43.591 45.551 45.121 41.551 36.131 30.731 25.791
1051.293 20.761 15.801 11.881 8.811 6.561 4.981 3.531 2.611 1.931 1.881
1070.583 1.641 1.391 1.631 1.701 1.611 1.0793 1.0572 1.281 1.281 1.431
1089.873 1.611 1.751 1.991 2.071 2.531 3.381 3.701 4.701 6.741 8.831
1109.163 11.441 14.911 19.321 24.291 30.241 36.961 42.771 47.101 49.791 51.001
1128.452 50.361 48.201 45.671 43.131 40.761 39.561 38.981 37.551 35.991 34.081
1147.742 31.611 28.631 23.861 17.421 11.191 6.731 4.211 3.071 2.311 2.111
1167.032 2.211 2.071 2.231 2.801 3.281 3.711 4.441 5.281 6.131 7.531
1186.322 9.651 12.081 14.711 16.841 17.991 18.891 19.931 20.981 21.231 20.431
1205.611 19.011 16.881 14.951 13.451 12.141 10.831 9.311 7.551 5.681 4.721
1224.901 4.371 3.961 3.731 3.921 4.461 4.821 4.931 5.171 5.401 6.081
1244.191 6.951 7.481 7.981 8.231 8.021 7.731 7.801 7.931 7.751 7.201
1263.481 6.521 6.251 6.061 5.781 5.551 5.031 4.431 4.071 3.801 3.381
1282.771 3.051 2.621 2.181 1.831 1.551 1.391 1.281 1.291 1.1425 1.0263
1302.060 0.9384 0.8172 0.723 0.7141 0.6987 0.62 0.5911 0.5409 0.5555 0.6079
1321.350 0.6619 0.6787 0.6728 0.7803 0.9145 1.0198 1.1597 1.311 1.441 1.461
1340.640 1.461 1.501 1.531 1.581 1.671 1.891 2.281 2.811 3.571 4.731
1359.930 6.351 8.371 10.831 13.811 17.241 20.731 23.951 26.711 28.631 29.531
1379.219 29.201 27.891 26.531 25.091 22.351 18.251 14.161 10.981 8.731 7.191
1398.509 6.101 5.301 4.811 4.471 4.181 3.901 3.661 3.451 3.171 2.891
1417.799 2.731 2.521 2.401 2.331 2.281 2.411 2.681 3.031 3.541 4.251
1437.089 5.261 6.691 8.721 11.521 15.351 20.591 27.691 36.731 47.781 60.351
1456.378 73.721 86.611 96.611 102.721 104.481 101.881 95.381 85.961 74.381 61.821
1475.668 50.181 40.471 33.071 27.641 24.071 21.641 19.511 17.351 14.731 11.661
1494.958 8.931 6.981 5.751 5.001 4.441 4.021 3.681 3.371 3.141 3.061
1514.248 3.161 3.321 3.571 3.881 4.381 5.111 6.061 7.191 8.421 9.711
1533.538 11.061 12.291 13.311 14.221 14.971 15.611 16.141 16.401 16.311 15.911
1552.827 15.241 14.411 13.521 12.541 11.531 10.361 8.951 7.601 6.691 6.231
1572.117 5.991 5.911 6.081 6.311 6.631 7.121 7.521 7.871 8.071 8.091
1591.407 7.951 7.731 7.471 7.091 6.591 5.891 5.051 4.351 3.721 3.151
1610.697 2.801 2.471 2.291 2.261 2.221 2.181 2.161 2.211 2.331 2.541
1629.986 2.731 2.911 3.131 3.341 3.511 3.621 3.541 3.341 3.181 3.021
1649.276 2.771 2.521 2.131 1.721 1.481 1.281 1.0921 1.0124 0.9113 0.7924
1668.566 0.7875 0.7416 0.6981 0.6949 0.6865 0.7686 0.8093 0.8004 0.8153 0.7969
1687.856 0.7511 0.7419 0.7687 0.7358 0.7343 0.7298 0.7057 0.7265 0.7465 0.7787
1707.146 0.7552 0.7564 0.7834 0.8107 0.8725 0.8522 0.8576 0.9482 1.0052 1.0172
1726.435 1.0701 1.094 1.0209 1.008 1.021 1.0578 1.1382 1.1852 1.221 1.291
1745.725 1.461 1.661 1.811 2.001 2.261 2.591 2.951 3.321 3.801 4.171
1765.015 4.471 4.821 5.011 4.951 4.691 4.301 3.971 3.651 3.111 2.501
1784.305 2.001 1.601 1.271 1.0224 0.9071 0.8026 0.7268 0.6741 0.6445 0.6987
1803.594 0.7916 0.8904 0.915 0.943 1.006 0.9889 1.0023 1.0433 1.0485 1.0916
1822.884 1.079 0.9548 0.8847 0.8907 0.8867 0.8946 0.9 0.8871 0.8181 0.8011
1842.174 0.7768 0.6877 0.6551 0.6399 0.6169 0.5454 0.4969 0.5121 0.5324 0.5041
1861.464 0.4787 0.4699 0.4657 0.5192 0.5318 0.5843 0.6392 0.6594 0.7807 0.9347
1880.754 1.0825 1.231 1.461 1.741 2.031 2.381 2.741 3.061 3.371 3.481
1900.043 3.481 3.461 3.291 3.101 2.871 2.561 2.171 1.781 1.421 1.1239
1919.333 0.872 0.7139 0.6106 0.5545 0.4961 0.4099 0.4092 0.3911 0.3335 0.3219
1938.623 0.3132 0.301 0.3115 0.3053 0.328 0.2965 0.28187 0.3372 0.3374 0.3272
1957.913 0.3132 0.305 0.29083 0.2931 0.3015 0.311 0.3085 0.28357 0.2482 0.25812
1977.202 0.27833 0.3059 0.3505 0.3377 0.3099 0.3338 0.3328 0.3264 0.3434 0.3366
1996.492 0.3299 0.3058 0.29046 0.25996 0.2392 0.27452 0.3348 0.3751 0.28987 0.27607
2015.782 0.3315 0.27649 0.2345 0.275 0.3 0.28064 0.24267 0.24669 0.27764 0.2674
2035.072 0.26773 0.21554 0.1765 0.22176 0.24559 0.24036 0.23441 0.23763 0.28785 0.28494
2054.362 0.21447 0.190354 0.22871 0.22749 0.26841 0.27628 0.28371 0.3166 0.3404 0.4004
2073.651 0.4006 0.3337 0.3264 0.3428 0.2967 0.2956 0.3192 0.3424 0.3661 0.4198
2092.941 0.4074 0.3506 0.3801 0.4298 0.4369 0.4552 0.4251 0.3807 0.3787 0.409
2112.231 0.4434 0.4423 0.4804 0.4891 0.4559 0.4368 0.4349 0.4059 0.3754 0.357
2131.521 0.3593 0.3476 0.3395 0.3495 0.3681 0.4113 0.4241 0.3909 0.3836 0.4484
2150.810 0.4515 0.362 0.3413 0.3913 0.4024 0.3954 0.3731 0.3588 0.3806 0.3703
2170.100 0.305 0.24664 0.28396 0.3511 0.3681 0.4343 0.4521 0.4546 0.4713 0.5095
2189.390 0.5148 0.4953 0.5022 0.4937 0.4675 0.4495 0.472 0.4902 0.4866 0.5172
2208.680 0.6015 0.6735 0.7754 0.947 1.281 1.651 2.071 2.741 3.681 4.771
2227.970 6.011 7.351 8.571 9.571 10.101 10.141 9.821 9.081 7.871 6.411
2247.259 4.831 3.261 1.961 1.1749 0.8335 0.6501 0.5967 0.5831 0.5398 0.5118
2266.549 0.5195 0.4929 0.4716 0.5023 0.5224 0.5511 0.6178 0.6214 0.6347 0.6891
2285.839 0.675 0.6485 0.6683 0.6478 0.5791 0.5852 0.5808 0.4995 0.4376 0.4606
2305.129 0.4535 0.452 0.4213 0.392 0.4062 0.4542 0.4882 0.4372 0.515 0.5544
2324.418 0.4731 0.5005 0.5509 0.4838 0.4826 0.4787 0.4246 0.4506 0.4672 0.4071
2343.708 0.375 0.4061 0.4064 0.4452 0.4441 0.4637 0.6009 0.5989 0.6036 0.6904
2362.998 0.7197 0.7309 0.7345 0.7688 0.793 0.8904 0.9351 0.9097 0.9247 0.9951
2382.288 1.0094 0.924 0.9074 0.9213 0.8517 0.7471 0.7307 0.7795 0.7579 0.6775
2401.578 0.6285 0.6675 0.6273 0.5366 0.5644 0.6051 0.5826 0.5313 0.4979 0.4179
2420.867 0.4282 0.4342 0.4127 0.4017 0.3794 0.4276 0.5058 0.4798 0.4405 0.4772
2440.157 0.4701 0.3993 0.3508 0.412 0.4612 0.5275 0.5013 0.4202 0.4546 0.4472
2459.447 0.5097 0.5856 0.5347 0.4567 0.4646 0.5618 0.5376 0.5314 0.5863 0.6029
2478.737 0.5644 0.6115 0.7125 0.7939 0.932 1.0169 1.0632 1.0955 1.1425 1.1235
2498.026 1.1309 1.231 1.321 1.351 1.381 1.471 1.501 1.491 1.611 1.651
2517.316 1.651 1.691 1.661 1.651 1.641 1.581 1.481 1.401 1.291 1.1825
2536.606 1.1106 0.9952 0.7882 0.6442 0.6127 0.6219 0.5951 0.5635 0.5599 0.4924
2555.896 0.4552 0.4773 0.4864 0.5426 0.5886 0.5877 0.5162 0.4297 0.4145 0.4302
2575.186 0.408 0.3507 0.337 0.358 0.4279 0.4615 0.4826 0.4868 0.4982 0.5254
2594.475 0.4965 0.6023 0.6609 0.5542 0.5344 0.6441 0.7276 0.6858 0.6562 0.6608
2613.765 0.6617 0.5621 0.4982 0.5243 0.4688 0.3631 0.3428 0.3219 0.2966 0.3742
2633.055 0.3847 0.3679 0.3466 0.3713 0.4273 0.3454 0.27437 0.3115 0.3727 0.3991
2652.345 0.4154 0.4629 0.4196 0.3193 0.3524 0.4151 0.4067 0.3628 0.3604 0.3242
2671.634 0.3296 0.3633 0.4078 0.39 0.3864 0.4844 0.5481 0.5511 0.4374 0.3857
2690.924 0.3596 0.28934 0.29008 0.4204 0.5078 0.5123 0.4783 0.4172 0.402 0.4674
2710.214 0.5663 0.5869 0.5998 0.5536 0.4712 0.4934 0.5746 0.6637 0.6116 0.4551
2729.504 0.4472 0.3917 0.3012 0.3885 0.4723 0.4078 0.3543 0.4099 0.4922 0.5174
2748.794 0.4367 0.4317 0.4393 0.4453 0.5167 0.555 0.5011 0.5108 0.5678 0.5691
2768.083 0.5429 0.5008 0.5393 0.5589 0.4965 0.4841 0.5058 0.4619 0.4329 0.5501
2787.373 0.7072 0.7206 0.7089 0.6946 0.6064 0.5565 0.5932 0.6009 0.5041 0.5216
2806.663 0.6025 0.6048 0.5594 0.4576 0.4065 0.3395 0.3037 0.3154 0.3776 0.4901
2825.953 0.5369 0.5988 0.7052 0.6587 0.5155 0.5274 0.5732 0.4706 0.3844 0.3524
2845.242 0.2951 0.3084 0.3436 0.25317 0.18815 0.18673 0.136 0.20862 0.3232 0.292
2864.532 0.21537 0.21664 0.1292 0.0986 0.21155 0.199768 0.0986 0.1233 0.1597 0.23469
2883.822 0.21384 0.089 0.1653 0.197698 0.1264 0.1436 0.23591 0.21048 0.1316 0.0947
2903.112 0.1665 0.2537 0.23875 0.23717 0.1763 0.1653 0.21668 0.2052 0.21863 0.21688
2922.401 0.1783 0.1899 0.3111 0.3746 0.3714 0.2972 0.24276 0.2959 0.27157 0.28924
2941.691 0.28266 0.24538 0.2997 0.21528 0.23767 0.3524 0.27514 0.23824 0.309 0.3502
2960.981 0.281 0.21628 0.23219 0.20762 0.22671 0.23441 0.22013 0.1735 0.055 0.1658
2980.271 0.26196 0.21123 0.2415 0.27016 0.200149 0.23415 0.28289 0.2352 0.28598 0.3858
2999.561 0.3086 0.28335 0.3425 0.3381 0.3534 0.3153 0.3633 0.4148 0.3255 0.24106
3018.850 0.2603 0.3501 0.4201 0.4588 0.4436 0.3947 0.3818 0.3109 0.23083 0.3169
3038.140 0.3368 0.358 0.3128 0.1774 0.20559 0.3087 0.424 0.4 0.3044 0.3832
3057.430 0.4991 0.5827 0.764 0.7866 0.8035 0.937 1.0221 1.0876 1.221 1.411
3076.720 1.491 1.461 1.421 1.431 1.381 1.0913 0.9564 0.9448 0.8336 0.7636
3096.009 0.6906 0.762 0.8378 0.7375 0.6957 0.6159 0.4562 0.3248 0.3085 0.3831
3115.299 0.4455 0.4115 0.3642 0.3949 0.321 0.26082 0.25661 0.2919 0.4094 0.4226
3134.589 0.4139 0.433 0.3887 0.4405 0.4992 0.4354 0.4364 0.4828 0.4106 0.3503
3153.879 0.3441 0.409 0.5859 0.6615 0.5638 0.4066 0.23655 0.1637 0.2955 0.3317
3173.169 0.21816 0.1593 0.1166 0.1785 0.20831 0.0944 0.1219 0.18671 0.1657 0.1261
3192.458 0.1427 0.22726 0.18739 0.1587 0.196571 0.26246 0.25187 0.195855 0.1617 0.1208
3211.748 0.1371 0.1127 0.0989 0.21753 0.25314 0.3054 0.3054 0.1135 0.048 0.08
3231.038 0.1418 0.1457 0.1411 0.25632 0.20612 0.1623 0.27234 0.21113 0.1348 0.2031
3250.328 0.21521 0.195017 0.2248 0.22907 0.2363 0.1666 0.1017 0.1409 0.083 0.053
3269.617 0.1479 0.1722 0.18306 0.20614 0.2585 0.26519 0.22659 0.1604 0.1455 0.1622
3288.907 0.1355 0.2921 0.313 0.21754 0.1764 0.085 0.1024 0.153 0.1442 0.27821
3308.197 0.23868 0.025 0.042 0.1789 0.3367 0.2968 0.18646 0.20925 0.1419 0.1529
3327.487 0.25524 0.1594 0.1353 0.1163 0.1597 0.3307 0.3552 0.3207 0.3299 0.3776
3346.777 0.1771 0.06 0.19771 0.1882 0.23436 0.2967 0.26862 0.27958 0.3067 0.27401
3366.066 0.22624 0.3226 0.3712 0.26616 0.197228 0.3553 0.3252 0.18807 0.1228 0.1285
3385.356 0.3165 0.25477 0.2949 0.4369 0.24819 0.197997 0.26243 0.3036 0.3794 0.3518
3404.646 0.3308 0.4031 0.4343 0.4999 0.5803 0.5714 0.5942 0.7069 0.806 0.8118
3423.936 0.8446 0.8927 1.0559 1.1908 1.0493 0.8701 0.8306 0.801 0.7493 0.7151
3443.225 0.5848 0.5204 0.4525 0.4403 0.5373 0.4861 0.3612 0.3748 0.4333 0.4169
3462.515 0.3735 0.21932 0.22637 0.28157 0.22209 0.295 0.392 0.4357 0.4343 0.3257
3481.805 0.24922 0.3091 0.3348 0.336 0.3318 0.18807 0.1736 0.19177 0.24024 0.1744
3501.095 0.08 0.23258 0.2957 0.27254 0.26785 0.196455 0.26857 0.28173 0.1784 0.2964
3520.385 0.4192 0.3951 0.3172 0.1873 0.1282 0.25965 0.22332 0.195585 0.24788 0.25516
3539.674 0.3497 0.3694 0.331 0.297 0.1785 0.069 0.0911 0.24879 0.26622 0.1348
3558.964 0.24978 0.4152 0.3653 0.3176 0.24848 0.129 0.1139 0.1618 0.1615 0.20755
3578.254 0.2928 0.1286 0 0.1505 0.26399 0.26825 0.18228 0.034 0.011 0.058
3597.544 0.194227 0.1674 0.04 0.1566 0.25439 0.21556 0.20522 0.20597 0.18291 0.21163
3616.833 0.2656 0.28696 0.3021 0.3005 0.23469 0.25782 0.3283 0.3222 0.3015 0.3322
3636.123 0.3405 0.2437 0.1402 0.1164 0.191669 0.19073 0.1153 0.18282 0.23573 0.1767
3655.413 0.19014 0.23403 0.196733 0.29076 0.3212 0.3112 0.3128 0.28519 0.3441 0.3149
3674.703 0.3186 0.3682 0.435 0.5023 0.4317 0.3418 0.4306 0.5388 0.4667 0.3918
3693.993 0.4359 0.4295 0.3555 0.3309 0.26641 0.359 0.3992 0.28383 0.28273 0.2963
3713.282 0.4005 0.3958 0.3454 0.3193 0.3528 0.3653 0.25388 0.200072 0.21017 0.28596
3732.572 0.23802 0.1367 0.22354 0.3675 0.3532 0.24011 0.21947 0.3191 0.2917 0.1885
3751.862 0.1278 0.1296 0.3192 0.4611 0.4933 0.3723 0.24326 0.26328 0.4248 0.583
3771.152 0.4933 0.5413 0.6417 0.5532 0.4985 0.5691 0.5912 0.5704 0.6282 0.6168
3790.441 0.6268 0.6085 0.4837 0.4008 0.38 0.4308 0.5048 0.4829 0.3839 0.3569
3809.731 0.5155 0.4987 0.3103 0.3668 0.4875 0.4545 0.335 0.26811 0.2223 0.327
3829.021 0.4551 0.4573 0.4031 0.28788 0.2934 0.361 0.4012 0.4482 0.3109 0.20541
3848.311 0.21702 0.28953 0.338 0.22246 0.26932 0.3254 0.3508 0.3792 0.28216 0.25563
3867.601 0.3113 0.4103 0.4519 0.4633 0.3725 0.3085 0.3058 0.3054 0.24918 0.21033
3886.890 0.2971 0.1621 0.046 0.1523 0.1773 0.1012 0.047 0.124 0.198973 0.1517
3906.180 0.25534 0.3262 0.23871 0.24844 0.3838 0.4073 0.3187 0.3322 0.3729 0.3731
3925.470 0.386 0.4791 0.4818 0.3764 0.4799 0.5439 0.4319 0.5789 0.6081 0.4178
3944.760 0.4543 0.5236 0.5033 0.4233 0.3294 0.28161 0.2935 0.22455 0.20945 0.3401
3964.049 0.3798 0.406 0.402 0.3552 0.3468 0.2782 0.1615 0.24167 0.33 0.28004
3983.339 0.27885 0.27494 0.28548 0.24264 0.3772 0.5055 0.3576 0.375 0.3532 0.3186
##END=
