##TITLE=3,5-Dichlorobenzonitrile
##JCAMP-DX=4.24
##DATA TYPE=INFRARED SPECTRUM
##ORIGIN=EPA-IR VAPOR PHASE LIBRARY
##OWNER=SRD/NIST
Collection (C) 2018 copyright by the U.S. Secretary of Commerce
on behalf of the United States of America. All rights reserved.
##CAS REGISTRY NO=6575-00-4
##MOLFORM=C 7 H 3 Cl 2 N
##$NIST SOURCE=MSDC-IR
##STATE=gas
##XUNITS=1/CM
##YUNITS=ABSORBANCE
##XFACTOR=1.
##YFACTOR=0.001
##DELTAX=3.85796
##FIRSTX=501.5
##LASTX=4000.7
##FIRSTY=0
##MAXX=4000.7
##MINX=501.534
##MAXY=0.06357
##MINY=0
##NPOINTS=908
##XYDATA=(X++(Y..Y))
501.534 0 0.064 0.202 0.112 0.149 0.3285 0.3208 0.284 0.214 0.231
540.114 0.219 0.249 0.3539 0.3291 0.3103 0.3283 0.549 0.6226 0.5658 0.49105
578.693 0.42022 0.43288 0.46402 0.45254 0.39046 0.262 0.287 0.299 0.275 0.3472
617.273 0.4393 0.4211 0.3883 0.39465 0.5765 0.6249 0.6909 0.8138 1.2837 2.32
655.852 4.95 7.33 10.89 15.76 12.08 7.52 5.75 3.17 2.09 1.7
694.432 1.66 1.62 1.64 1.53 1.3677 1.1097 0.9145 0.8411 0.8635 0.8387
733.011 0.8137 0.862 0.9154 0.9654 1.0954 1.2332 1.51 1.86 2.29 2.86
771.591 3.44 3.81 4.1 4.49 5.22 6.9 10.05 14.84 20.3 24.45
810.170 26.49 26.61 24.83 22.27 20.48 18.77 16.16 13.17 10.66 8.74
848.750 7.79 8.57 11.76 16.35 22.65 29.84 29.22 25.65 22.76 17.74
887.330 12.35 6.99 4.01 2.7 1.97 1.63 1.44 1.3072 1.1784 1.0421
925.909 0.9558 0.8231 0.7485 0.6952 0.6344 0.6096 0.5189 0.49675 0.5679 0.5666
964.489 0.5774 0.631 0.6588 0.6539 0.677 0.6822 0.65 0.6416 0.6854 0.7104
1003.068 0.6571 0.6 0.5958 0.5814 0.617 0.6428 0.6382 0.7369 0.7918 0.7841
1041.648 0.7845 0.9192 1.0415 1.0074 1.121 1.2058 1.1373 1.1193 1.0675 1.1095
1080.227 1.49 2.54 4.74 7.47 9.43 10.01 9.35 7.65 6.06 5.27
1118.807 4.69 3.85 2.74 1.76 1.2635 0.9782 0.8299 0.7761 0.7496 0.7715
1157.387 0.7714 0.8044 0.781 0.7642 0.7564 0.7182 0.7912 1.0832 1.72 2.83
1195.966 4.79 7.7 10.57 12.21 12.25 10.54 7.59 5.26 4.34 4.04
1234.546 3.71 3.17 2.46 1.84 1.3922 1.0696 0.988 1.0299 1.0995 1.128
1273.125 1.1125 1.0378 0.9054 0.7519 0.6261 0.5932 0.5943 0.5733 0.5891 0.6195
1311.705 0.6379 0.655 0.672 0.6923 0.6873 0.6394 0.6165 0.6032 0.5974 0.6505
1350.284 0.7143 0.8086 0.9727 1.2563 1.75 2.58 3.86 5.78 8.3 10.6
1388.864 11.71 11.57 10.88 10.56 11.76 14.47 17.23 18.9 19.08 17.42
1427.443 14.57 11.53 8.08 4.91 3.16 2.45 2.23 2.17 2.2 2.21
1466.023 2.19 2.15 2.05 1.89 1.69 1.42 1.1866 1.0625 1.0121 1.0325
1504.603 1.0865 1.2052 1.4 1.55 1.7 1.96 2.34 3.01 4.33 6.69
1543.182 10.68 16.95 26.81 40.12 54.07 63.16 63.57 54.22 37.59 23.41
1581.762 17.57 15.32 13.2 10.65 8 5.76 4.13 3.16 2.58 2.13
1620.341 1.79 1.53 1.3613 1.2937 1.2692 1.2709 1.2033 1.0798 0.9318 0.8148
1658.921 0.7862 0.7657 0.7484 0.7364 0.7512 0.7437 0.7036 0.714 0.7426 0.7098
1697.500 0.6566 0.6301 0.6219 0.6281 0.6228 0.5913 0.6223 0.7286 0.9006 1.1455
1736.080 1.56 2.19 2.89 3.44 3.64 3.61 3.45 3.12 2.75 2.37
1774.659 1.95 1.5 1.1365 0.9026 0.7748 0.7224 0.7003 0.6538 0.6079 0.565
1813.239 0.5334 0.5136 0.48644 0.46554 0.47579 0.47441 0.4637 0.47541 0.48056 0.48507
1851.819 0.49957 0.5101 0.5002 0.49689 0.5075 0.5109 0.5191 0.5336 0.5278 0.5171
1890.398 0.5106 0.5065 0.5063 0.5163 0.549 0.5775 0.6108 0.6463 0.6624 0.67
1928.978 0.6643 0.6692 0.6546 0.6355 0.6388 0.6457 0.649 0.648 0.6392 0.6202
1967.557 0.6404 0.6734 0.6714 0.65 0.6137 0.5703 0.553 0.5446 0.5337 0.5176
2006.137 0.49791 0.49434 0.5065 0.5218 0.5129 0.48907 0.49006 0.49196 0.48686 0.47111
2044.716 0.46902 0.48539 0.47446 0.46815 0.47316 0.46349 0.467 0.48387 0.49725 0.5134
2083.296 0.5129 0.49285 0.49048 0.49877 0.5047 0.47622 0.4871 0.5288 0.5134 0.49395
2121.875 0.5022 0.49924 0.4679 0.46397 0.46599 0.4539 0.43098 0.43889 0.45719 0.466
2160.455 0.47243 0.47174 0.46955 0.47138 0.46886 0.46777 0.48117 0.48196 0.5119 0.5443
2199.035 0.5703 0.5969 0.6172 0.6258 0.6282 0.6766 0.8247 1.0432 1.3233 1.61
2237.614 1.75 1.7 1.48 1.1214 0.7803 0.6104 0.5232 0.5008 0.518 0.49909
2276.194 0.47708 0.46704 0.46644 0.47347 0.48867 0.49708 0.5023 0.5114 0.5137 0.5193
2314.773 0.5047 0.49404 0.49421 0.5027 0.5096 0.5135 0.49854 0.5312 0.6004 0.6275
2353.353 0.6447 0.6407 0.6231 0.5948 0.5898 0.6274 0.6698 0.7096 0.7362 0.7587
2391.932 0.76 0.7619 0.759 0.7369 0.7383 0.7327 0.6888 0.6375 0.5987 0.5847
2430.512 0.5822 0.5776 0.5691 0.5685 0.5557 0.5531 0.5926 0.5982 0.5833 0.5761
2469.092 0.5469 0.517 0.5213 0.5164 0.5186 0.5272 0.5323 0.5432 0.5379 0.5425
2507.671 0.5604 0.5835 0.5936 0.6067 0.6224 0.6083 0.5929 0.5905 0.5586 0.5209
2546.251 0.5212 0.5449 0.5542 0.5429 0.5542 0.5711 0.5646 0.5546 0.5784 0.5847
2584.830 0.5927 0.582 0.5649 0.5566 0.5514 0.5614 0.5565 0.5757 0.6067 0.6294
2623.410 0.6445 0.643 0.6384 0.6286 0.6476 0.685 0.7108 0.7051 0.7115 0.7267
2661.989 0.6762 0.6243 0.6058 0.5897 0.5817 0.5888 0.562 0.5843 0.5904 0.5683
2700.569 0.567 0.5676 0.5913 0.5862 0.5721 0.5581 0.556 0.5561 0.5555 0.5677
2739.148 0.5606 0.5362 0.5465 0.6074 0.6459 0.6561 0.6449 0.6495 0.674 0.7273
2777.728 0.7409 0.6978 0.7045 0.7206 0.7035 0.6769 0.674 0.6602 0.665 0.6939
2816.308 0.6775 0.6698 0.6703 0.6632 0.6902 0.6966 0.7051 0.7307 0.7206 0.701
2854.887 0.6922 0.6801 0.6728 0.6717 0.6617 0.6311 0.5382 0.47951 0.49277 0.5106
2893.467 0.5473 0.5631 0.5479 0.531 0.5126 0.49026 0.5027 0.5191 0.5175 0.5014
2932.046 0.48719 0.5093 0.5561 0.5691 0.5259 0.551 0.5586 0.5332 0.5744 0.5899
2970.626 0.6026 0.654 0.6714 0.6565 0.6635 0.6822 0.6898 0.6591 0.6464 0.6319
3009.205 0.5993 0.6004 0.5729 0.5364 0.5207 0.5274 0.5067 0.5229 0.5323 0.49605
3047.785 0.5237 0.526 0.5094 0.5682 0.6099 0.5968 0.7232 0.9734 1.2283 1.49
3086.364 1.63 1.56 1.357 1.0749 0.7956 0.6752 0.685 0.6999 0.6996 0.7052
3124.944 0.7104 0.7292 0.734 0.7056 0.7076 0.7448 0.7449 0.7022 0.6845 0.6617
3163.524 0.6192 0.6094 0.6108 0.6103 0.614 0.5678 0.5488 0.5184 0.5102 0.49571
3202.103 0.44896 0.4952 0.5253 0.4665 0.45793 0.5113 0.5064 0.502 0.5145 0.5193
3240.683 0.5089 0.49315 0.5218 0.5553 0.5107 0.42892 0.48 0.5135 0.45045 0.43404
3279.262 0.46875 0.5025 0.47219 0.46391 0.44893 0.42952 0.46494 0.45929 0.47114 0.45024
3317.842 0.4185 0.45364 0.46278 0.44122 0.4689 0.532 0.44677 0.39164 0.46716 0.46578
3356.421 0.46886 0.47853 0.47528 0.5171 0.5035 0.5146 0.5225 0.48116 0.45967 0.47322
3395.001 0.49386 0.49776 0.5205 0.47975 0.46493 0.527 0.5259 0.4991 0.535 0.624
3433.580 0.6428 0.6087 0.624 0.6566 0.6605 0.6656 0.65 0.5658 0.5477 0.5814
3472.160 0.5923 0.5585 0.5206 0.5102 0.5107 0.5324 0.5099 0.5097 0.5099 0.46925
3510.740 0.44462 0.44955 0.5257 0.5388 0.47326 0.41802 0.47289 0.561 0.561 0.5198
3549.319 0.47937 0.49384 0.5252 0.5377 0.5365 0.5367 0.5378 0.547 0.5444 0.5009
3587.899 0.46684 0.4727 0.5102 0.5444 0.49298 0.44856 0.5111 0.5152 0.47581 0.4847
3626.478 0.44141 0.44328 0.49165 0.47853 0.49673 0.5051 0.43742 0.41564 0.41255 0.43768
3665.058 0.46922 0.4463 0.5009 0.5135 0.48621 0.49029 0.47703 0.5024 0.47108 0.4501
3703.637 0.42894 0.3767 0.3816 0.43717 0.41744 0.351 0.399668 0.43394 0.3761 0.3607
3742.217 0.400429 0.3637 0.3402 0.409926 0.43578 0.3984 0.4499 0.49182 0.404558 0.3757
3780.797 0.45332 0.45801 0.44634 0.47941 0.48326 0.48248 0.5061 0.5702 0.6001 0.5447
3819.376 0.48906 0.504 0.5206 0.5447 0.5198 0.5121 0.5478 0.5752 0.5267 0.44217
3857.956 0.47988 0.43972 0.413 0.43008 0.44789 0.5131 0.5488 0.5882 0.6108 0.6131
3896.535 0.6189 0.5253 0.526 0.6135 0.6018 0.6395 0.5941 0.5051 0.5617 0.6037
3935.115 0.6049 0.6258 0.6162 0.6276 0.6028 0.5613 0.6708 0.668 0.5951 0.5973
3973.694 0.5522 0.5615 0.5856 0.612 0.6249 0.5661 0.5639 0.5945
##END=
