##TITLE=2,6-Dimethylbenzonitrile
##JCAMP-DX=4.24
##DATA TYPE=INFRARED SPECTRUM
##ORIGIN=EPA-IR VAPOR PHASE LIBRARY
##OWNER=SRD/NIST
Collection (C) 2018 copyright by the U.S. Secretary of Commerce
on behalf of the United States of America. All rights reserved.
##CAS REGISTRY NO=6575-13-9
##MOLFORM=C 9 H 9 N
##$NIST SOURCE=MSDC-IR
##STATE=gas
##XUNITS=1/CM
##YUNITS=ABSORBANCE
##XFACTOR=1.
##YFACTOR=0.001
##DELTAX=3.85796
##FIRSTX=551.7
##LASTX=4000.7
##FIRSTY=2.431
##MAXX=4000.7
##MINX=551.688
##MAXY=0.094461
##MINY=0
##NPOINTS=895
##XYDATA=(X++(Y..Y))
551.688 2.431 2.731 3.281 4.791 4.161 3.091 3.291 3.451 3.331 3.151
590.268 3.031 2.871 2.721 2.371 2.131 1.871 1.621 1.531 1.371 1.301
628.847 1.321 1.171 1.1165 1.0749 1.0356 1.0684 1.0618 1.0668 1.191 1.211
667.427 1.181 1.201 1.161 1.0556 1.039 0.9409 0.9642 0.9881 1.1049 1.321
706.006 1.681 2.231 3.071 3.931 4.741 6.101 8.161 7.881 7.101 7.841
744.586 9.671 13.331 21.451 32.361 42.891 49.471 73.781 94.461 66.241 47.161
783.165 42.411 29.681 18.041 9.871 6.021 4.081 3.261 2.691 2.611 2.521
821.745 2.581 2.561 2.451 2.161 1.921 1.641 1.421 1.181 1.161 1.201
860.324 1.211 1.271 1.281 1.271 1.251 1.211 1.0628 0.818 0.8767 0.9548
898.904 1.0739 1.301 1.621 1.891 2.151 2.431 2.661 2.641 2.521 2.531
937.484 2.481 2.481 2.761 3.031 3.331 3.941 4.561 4.811 4.941 5.101
976.063 5.011 4.541 4.171 3.851 3.531 3.371 3.201 3.051 2.861 2.751
1014.643 2.981 3.211 3.491 3.841 4.141 4.511 4.401 4.101 4.091 3.991
1053.222 3.791 3.601 3.361 3.501 3.801 4.141 4.701 5.261 5.811 5.911
1091.802 5.751 5.301 4.741 4.061 3.251 2.831 2.631 2.371 2.331 2.211
1130.381 2.041 1.731 1.521 1.491 1.651 2.271 3.211 4.441 5.411 5.601
1168.961 5.611 5.611 4.651 3.241 2.121 1.561 1.621 1.791 1.691 1.461
1207.540 1.361 1.361 1.421 1.411 1.551 1.701 1.851 2.141 2.581 3.151
1246.120 3.781 4.541 5.441 6.381 7.081 7.311 7.131 6.661 5.961 5.131
1284.699 4.331 3.861 3.731 3.671 3.601 3.541 3.431 3.341 3.311 3.271
1323.279 3.301 3.391 3.551 3.761 3.971 4.191 4.421 4.691 4.981 5.321
1361.859 5.691 6.151 6.781 7.751 9.251 11.061 12.571 13.431 13.641 12.941
1400.438 11.161 9.141 7.921 7.541 7.661 8.041 8.581 9.371 10.461 11.781
1439.018 13.381 15.481 18.431 22.331 26.891 31.991 36.401 39.311 40.481 39.881
1477.597 37.681 33.851 28.841 23.951 20.291 17.541 15.001 12.951 11.511 10.761
1516.177 10.531 10.691 11.101 11.721 12.461 13.091 13.411 13.481 13.291 12.961
1554.756 12.661 12.581 13.101 14.181 15.831 17.841 20.171 22.541 24.521 25.371
1593.336 24.301 21.251 17.201 13.181 9.621 7.011 5.381 4.421 3.841 3.451
1631.915 3.211 3.031 2.941 3.041 3.271 3.551 3.701 3.671 3.521 3.251
1670.495 2.791 2.221 1.791 1.611 1.541 1.481 1.461 1.441 1.421 1.351
1709.075 1.241 1.181 1.141 1.0868 1.1134 1.271 1.461 1.581 1.621 1.601
1747.654 1.541 1.451 1.381 1.481 1.721 2.091 2.451 2.691 2.781 2.711
1786.234 2.501 2.141 1.761 1.481 1.301 1.201 1.121 1.0732 1.0679 1.0479
1824.813 1.025 1.0302 1.0659 1.151 1.311 1.551 1.941 2.381 2.701 2.831
1863.393 2.771 2.571 2.251 1.781 1.351 1.1137 0.9296 0.8493 0.8254 0.8141
1901.972 0.887 0.9469 1.0003 1.151 1.451 1.851 2.271 2.831 3.521 4.081
1940.552 4.271 4.121 3.671 3.051 2.271 1.461 0.9404 0.7058 0.6092 0.5536
1979.131 0.4974 0.5151 0.5623 0.555 0.5533 0.5891 0.6233 0.6639 0.6868 0.6882
2017.711 0.6328 0.5965 0.6194 0.5921 0.5402 0.5109 0.4842 0.4464 0.4541 0.4946
2056.291 0.4747 0.4509 0.5153 0.5702 0.5701 0.5876 0.6247 0.6581 0.6594 0.6025
2094.870 0.5678 0.537 0.5273 0.5071 0.4434 0.433 0.4556 0.4453 0.4236 0.4401
2133.450 0.4476 0.4383 0.4444 0.476 0.5158 0.6108 0.7098 0.7567 0.8717 0.9754
2172.029 1.0041 1.0426 1.0806 1.151 1.291 1.531 1.991 2.901 4.461 6.801
2210.609 9.921 13.271 16.021 17.491 17.441 15.801 12.611 8.591 5.171 3.181
2249.188 2.281 1.911 1.731 1.601 1.491 1.391 1.341 1.261 1.1049 0.9829
2287.768 0.9067 0.8473 0.839 0.8346 0.8517 0.9003 0.8883 0.8751 0.9227 0.9953
2326.347 1.0725 1.211 1.381 1.521 1.551 1.511 1.491 1.461 1.461 1.471
2364.927 1.441 1.381 1.331 1.221 1.1159 1.0481 0.9795 0.9425 0.899 0.8676
2403.507 0.8993 0.9053 0.9157 0.9781 0.9858 0.9959 0.9856 0.9262 0.9182 0.9044
2442.086 0.8681 0.8717 0.8765 0.8452 0.8028 0.7738 0.7559 0.7446 0.7402 0.7328
2480.666 0.7266 0.7323 0.7445 0.7032 0.7254 0.7722 0.7831 0.791 0.797 0.8156
2519.245 0.7221 0.6606 0.6144 0.5451 0.4964 0.4882 0.524 0.5266 0.5563 0.5954
2557.825 0.616 0.6005 0.5978 0.5899 0.5733 0.5636 0.5775 0.6217 0.6445 0.688
2596.404 0.7368 0.7738 0.8323 0.9034 0.9896 1.151 1.291 1.331 1.321 1.321
2634.984 1.341 1.311 1.261 1.241 1.151 1.0729 1.0776 1.0436 1.0147 1.0072
2673.563 0.9627 0.9082 0.8357 0.7648 0.7217 0.7014 0.736 0.7425 0.7558 0.7982
2712.143 0.8062 0.8678 0.9777 1.0952 1.201 1.301 1.491 1.711 1.951 2.211
2750.722 2.411 2.541 2.581 2.511 2.381 2.181 1.961 1.781 1.631 1.551
2789.302 1.581 1.631 1.671 1.721 1.801 1.961 2.111 2.251 2.511 2.811
2827.882 3.161 3.611 4.061 4.601 5.351 6.281 7.311 8.531 9.881 11.241
2866.461 12.541 13.621 14.311 14.591 14.591 14.411 14.191 14.061 14.141 14.441
2905.041 15.051 16.041 17.521 19.691 22.811 26.711 30.691 33.541 34.641 34.221
2943.620 32.401 29.311 25.751 22.841 21.171 20.561 20.281 20.081 20.161 20.521
2982.200 20.911 21.001 20.851 20.351 19.471 18.461 17.551 16.991 17.031 17.831
3020.779 19.241 21.001 22.791 24.331 25.521 26.371 27.051 27.811 28.991 30.931
3059.359 33.321 35.501 36.751 36.401 34.181 30.251 25.231 19.841 14.771 10.581
3097.938 7.551 5.621 4.411 3.671 3.161 2.861 2.681 2.481 2.281 2.081
3136.518 1.971 1.891 1.841 1.821 1.761 1.671 1.671 1.671 1.571 1.511
3175.098 1.431 1.301 1.191 1.0483 0.9349 0.8197 0.6583 0.5623 0.4948 0.4119
3213.677 0.3347 0.2974 0.3215 0.3253 0.3381 0.3454 0.351 0.3896 0.3825 0.4038
3252.257 0.3547 0.3036 0.3444 0.3346 0.358 0.4047 0.4182 0.4209 0.4083 0.3406
3290.836 0.3095 0.3718 0.387 0.3323 0.3376 0.3401 0.3977 0.4604 0.3475 0.2895
3329.416 0.355 0.3431 0.2657 0.2442 0.2823 0.3262 0.3508 0.2851 0.2872 0.3591
3367.995 0.3624 0.3883 0.4281 0.514 0.6182 0.7346 0.8262 0.9262 1.0475 1.0869
3406.575 1.0648 0.9656 0.7914 0.6468 0.5502 0.4688 0.3988 0.3254 0.2919 0.2727
3445.154 0.2953 0.264 0.2853 0.3434 0.3657 0.3266 0.3036 0.3527 0.4038 0.3812
3483.734 0.381 0.4675 0.4661 0.4759 0.4912 0.4977 0.4139 0.3129 0.2553 0.2212
3522.314 0.2539 0.2571 0.2578 0.2703 0.2978 0.2405 0.17095 0.19459 0.21359 0.2299
3560.893 0.2393 0.21901 0.2072 0.17491 0.18273 0.22078 0.19801 0.1062 0.0537 0.0993
3599.473 0.124239 0.14902 0.17034 0.21623 0.21357 0.2249 0.3354 0.3651 0.2748 0.2584
3638.052 0.3226 0.365 0.4119 0.4074 0.4147 0.4422 0.3793 0.4129 0.4169 0.3143
3676.632 0.3048 0.2919 0.2512 0.21654 0.2569 0.2837 0.18132 0.11792 0.17445 0.20604
3715.211 0.14879 0.0801 0.004 0 0.0757 0.0785 0.0759 0.0979 0.0723 0.0922
3753.791 0.15228 0.20197 0.19776 0.16965 0.1634 0.17495 0.2694 0.2767 0.2464 0.2739
3792.370 0.2898 0.4188 0.5358 0.5387 0.5922 0.591 0.6016 0.6755 0.669 0.6995
3830.950 0.7492 0.7418 0.64 0.5352 0.6075 0.6316 0.5689 0.7182 0.827 0.8448
3869.530 0.8644 0.7978 0.7305 0.6513 0.5497 0.4453 0.3997 0.4667 0.3927 0.2946
3908.109 0.3939 0.4163 0.3669 0.3875 0.3877 0.3963 0.4434 0.3941 0.402 0.547
3946.689 0.5468 0.5264 0.5962 0.5323 0.4706 0.4979 0.5459 0.5322 0.5079 0.5142
3985.268 0.5249 0.5827 0.4916 0.382 0.4999
##END=
