##TITLE=2,6-Dichlorobenzenesulphonyl chloride
##JCAMP-DX=4.24
##DATA TYPE=INFRARED SPECTRUM
##ORIGIN=EPA-IR VAPOR PHASE LIBRARY
##OWNER=SRD/NIST
Collection (C) 2018 copyright by the U.S. Secretary of Commerce
on behalf of the United States of America. All rights reserved.
##CAS REGISTRY NO=6579-54-0
##MOLFORM=C 6 H 3 Cl 3 O 2 S
##$NIST SOURCE=MSDC-IR
##STATE=gas
##XUNITS=1/CM
##YUNITS=ABSORBANCE
##XFACTOR=1.
##YFACTOR=0.001
##DELTAX=1.92898
##FIRSTX=549.8
##LASTX=4000.7
##FIRSTY=8.306
##MAXX=4000.7
##MINX=549.759
##MAXY=0.126846
##MINY=0
##NPOINTS=1790
##XYDATA=(X++(Y..Y))
549.759 8.306 9.966 12.826 16.576 21.996 28.796 35.656 43.226 52.476 60.366
569.049 64.596 67.936 72.786 79.686 89.306 100.126 110.756 120.136 126.746 126.846
588.339 118.506 102.996 84.236 66.266 50.436 37.196 26.636 19.576 14.936 12.416
607.628 11.566 10.746 10.436 10.416 9.646 8.866 7.666 6.236 5.876 5.716
626.918 4.376 3.506 3.076 2.476 2.366 2.376 2.396 2.416 2.776 2.926
646.208 2.786 2.636 2.646 2.526 2.576 2.346 2.316 2.586 2.076 2.086
665.498 2.916 2.966 2.576 2.716 2.556 2.226 2.466 2.856 2.656 2.496
684.787 2.396 2.166 2.386 2.386 2.606 2.836 2.596 2.726 2.696 2.586
704.077 2.836 2.996 3.366 3.546 3.636 3.796 3.886 4.466 5.226 6.306
723.367 7.806 9.336 11.346 13.626 15.266 16.686 17.556 17.226 16.406 15.196
742.657 13.306 11.086 9.216 7.946 6.726 5.736 5.446 4.966 4.896 5.466
761.947 5.706 6.536 8.056 9.856 13.146 18.576 24.316 30.276 38.596 50.436
781.236 64.186 69.106 63.026 59.146 56.516 48.626 37.966 28.026 20.796 15.256
800.526 10.826 7.716 5.736 4.526 4.226 4.056 3.126 2.626 2.506 2.156
819.816 2.676 2.686 2.886 3.476 2.876 2.666 2.216 1.896 2.036 2.196
839.106 2.276 2.166 2.306 2.476 2.606 2.116 1.966 2.066 1.816 1.5928
858.395 1.5311 1.796 1.726 1.4041 1.3089 1.926 2.086 1.676 1.846 2.216
877.685 2.046 1.5901 1.3129 1.3816 2.016 2.386 2.316 2.406 2.116 1.986
896.975 1.956 1.796 1.696 1.3959 1.2278 1.3371 1.4676 1.2209 1.1045 1.3657
916.265 1.339 1.0456 1.0405 1.2795 1.2838 1.1564 0.8704 0.8117 0.9842 1.028
935.555 1.416 1.736 1.3817 1.29 1.3831 1.1645 1.0365 0.9985 1.123 1.1501
954.844 1.1239 1.1949 1.1734 1.5947 1.856 1.726 2.116 2.286 1.886 1.5668
974.134 1.6161 1.766 1.746 1.1776 0.6659 1.1633 1.3437 0.8115 0.7466 0.939
993.424 0.9204 1.443 1.776 1.1024 0.71511 1.2625 1.646 1.2645 1.3466 1.5422
1012.714 1.107 1.32 2.076 1.686 1.381 2.146 2.866 3.166 3.186 3.926
1032.003 4.786 4.956 4.766 4.266 4.036 4.146 3.926 3.146 2.346 2.666
1051.293 3.096 2.586 3.106 3.726 2.786 2.066 2.286 2.676 2.096 1.3036
1070.583 1.696 2.046 2.376 2.366 2.526 3.596 4.206 4.056 3.646 4.266
1089.873 4.146 3.746 4.546 4.806 4.186 3.646 3.836 3.196 2.276 2.616
1109.163 3.646 3.846 4.206 4.396 2.806 3.226 5.166 5.576 4.626 4.216
1128.452 4.636 4.596 5.076 5.596 5.106 4.406 4.236 4.476 4.586 5.016
1147.742 6.596 7.216 8.116 10.206 11.346 12.336 14.316 16.206 16.846 17.206
1167.032 18.086 18.926 18.306 17.176 16.836 16.716 17.396 19.716 24.026 28.956
1186.322 35.206 43.206 52.886 63.186 70.716 77.716 85.806 90.456 89.896 82.886
1205.611 70.086 58.856 49.706 39.196 29.816 22.276 16.466 13.736 10.636 7.886
1224.901 6.866 5.456 3.946 4.226 4.656 3.786 3.386 2.396 2.046 2.676
1244.191 1.976 1.966 2.356 2.106 2.486 2.476 2.146 2.086 2.166 1.756
1263.481 1.2413 1.5721 1.736 1.4261 0.7606 0.68749 1.2266 1.0727 0.8916 1.0864
1282.771 1.1206 1.474 1.5779 0.9584 1.1607 1.4627 1.4251 1.5484 1.4092 1.3779
1302.060 1.5819 1.676 1.796 1.946 2.116 2.226 2.376 2.626 2.916 3.336
1321.350 3.636 3.766 4.056 4.316 4.436 4.866 5.156 5.146 5.336 5.446
1340.640 5.316 5.386 5.546 5.446 5.086 4.926 5.106 5.496 5.786 5.986
1359.930 6.026 4.936 4.266 5.026 6.016 7.016 7.886 8.586 9.186 9.686
1379.219 10.046 10.436 10.946 11.496 12.006 12.426 12.846 13.496 14.396 15.836
1398.509 18.426 21.916 25.716 29.476 32.276 33.856 34.446 34.186 33.826 34.456
1417.799 37.296 43.706 55.256 71.536 89.836 106.376 117.416 121.336 118.286 108.566
1437.089 93.546 75.296 54.896 36.056 22.896 15.316 11.296 9.416 8.486 7.656
1456.378 6.986 6.536 6.006 5.726 5.466 5.006 4.636 4.236 3.796 3.386
1475.668 3.106 2.856 2.726 2.816 2.996 3.026 3.136 3.386 3.506 3.686
1494.958 3.966 4.256 4.496 4.696 4.986 5.296 5.446 5.136 4.616 4.636
1514.248 4.606 4.016 3.586 3.196 2.886 2.866 2.876 2.826 2.986 3.426
1533.538 3.566 3.996 4.636 5.126 6.066 7.176 8.606 10.686 13.726 17.946
1552.827 22.736 28.286 34.336 40.006 43.876 44.746 42.796 38.386 32.156 24.976
1572.117 18.446 14.296 11.556 9.666 8.526 7.336 6.206 5.356 4.386 3.566
1591.407 3.046 2.596 2.346 2.306 2.276 2.176 2.206 1.996 1.926 2.136
1610.697 2.186 2.026 1.996 2.146 2.116 1.956 1.706 1.5594 1.5691 1.5059
1629.986 1.4261 1.2386 1.0935 1.2083 1.319 1.2195 1.2212 1.2579 1.1527 1.1927
1649.276 1.2131 1.2313 1.2597 1.3 1.4006 1.4498 1.6104 1.6285 1.5129 1.6292
1668.566 1.756 1.806 1.826 1.806 1.836 1.886 1.886 1.666 1.4113 1.3756
1687.856 1.3071 1.1429 1.0251 0.9607 1.0146 1.0743 1.0202 0.9638 1.0246 1.0055
1707.146 0.935 0.9211 0.74 0.7729 1.0704 1.0328 0.9525 1.005 0.9134 0.8636
1726.435 0.8891 0.775 0.66278 0.72993 0.8459 0.9639 1.0426 1.0836 1.0776 1.0851
1745.725 1.0217 0.984 1.0804 1.1605 1.1162 1.1431 1.326 1.35 1.3638 1.374
1765.015 1.2965 1.1659 1.1591 1.224 1.3284 1.5461 1.686 1.746 1.806 1.796
1784.305 1.736 1.6411 1.5582 1.5252 1.4167 1.412 1.4155 1.1973 1.0963 1.0007
1803.594 0.9738 1.0107 1.0981 1.0458 0.7981 0.8273 0.964 0.9065 0.8945 0.8863
1822.884 0.9536 1.162 1.1332 0.8524 0.645546 0.758 0.9053 0.9462 0.9286 0.9779
1842.174 1.1125 1.221 1.2061 1.185 1.2256 1.3702 1.4406 1.5315 1.696 1.756
1861.464 1.766 1.796 1.766 1.786 1.806 1.6243 1.6263 1.736 1.4474 1.2512
1880.754 1.1887 1.1749 1.1898 1.0372 0.9762 0.9899 1.0317 0.9802 0.9067 0.9023
1900.043 0.8604 0.9642 1.1379 1.0017 1.0262 1.1677 1.2211 1.4451 1.3769 1.1926
1919.333 1.247 1.2972 1.258 1.1697 1.2091 1.3038 1.4597 1.5759 1.676 1.806
1938.623 1.826 1.766 1.806 1.866 1.836 1.956 1.806 1.5695 1.4519 1.4249
1957.913 1.4917 1.3045 1.2869 1.1731 1.0222 1.058 1.1117 1.1143 0.9811 0.9031
1977.202 0.8697 0.8506 0.9183 0.9602 0.9588 1.0111 1.0648 1.0042 0.968 1.0084
1996.492 0.9987 1.0162 0.9099 0.8023 0.9147 0.9679 0.9262 0.7602 0.7501 0.8806
2015.782 0.8398 0.984 0.9434 0.8003 0.8386 0.71278 0.72001 0.7944 0.72446 0.68525
2035.072 0.7896 0.8068 0.7658 0.8027 0.8066 0.7995 0.7825 0.8032 0.7726 0.7603
2054.362 0.8619 0.6885 0.6188 0.8158 0.8541 0.8828 1.0111 1.0831 0.8689 0.8765
2073.651 0.9615 0.8833 1.0087 1.0967 0.9522 0.9466 1.008 0.9259 0.9371 0.73521
2092.941 0.7743 0.9456 0.8021 0.68098 0.67186 0.73189 0.73126 0.74502 0.8264 0.9675
2112.231 1.0044 0.9069 0.8845 0.9412 0.8823 0.8304 0.826 0.9776 1.0581 0.9726
2131.521 0.9422 0.834 0.9107 1.0555 1.0408 1.1124 1.0502 0.9207 0.9605 0.9771
2150.810 0.8475 0.8115 0.9279 0.8942 0.8772 0.8496 0.9362 0.9989 0.8854 0.8582
2170.100 0.8173 0.9185 1.0953 1.0931 0.9675 0.9245 0.9264 0.71237 0.527 0.70589
2189.390 0.9051 0.9249 0.8726 0.875 0.9019 0.8312 0.8139 0.7908 0.8824 0.992
2208.680 0.9342 0.9347 0.8717 0.8708 0.9699 0.9164 0.7482 0.7678 0.9409 0.7967
2227.970 0.8218 1.1278 1.1049 0.8617 0.9108 0.9818 0.7989 0.8178 0.8897 0.9153
2247.259 0.9703 0.893 0.8671 0.8711 0.7713 0.68102 0.6617 0.8546 1.0855 1.1193
2266.549 0.9197 0.7505 0.7872 0.7877 0.6079 0.72404 0.8915 0.822 0.6032 0.519
2285.839 0.67098 0.9007 1.0653 1.0076 0.9132 0.8753 1.0539 1.1909 1.0594 0.9362
2305.129 0.9448 0.7873 0.67351 0.727 0.92 1.0665 0.9891 0.9722 0.9435 0.9412
2324.418 1.0378 0.9852 1.0324 1.1793 1.1801 1.013 0.8594 0.9581 1.0137 1.0398
2343.708 1.1186 1.1232 0.9283 0.8625 1.1126 1.1447 1.0385 1.1266 1.1165 1.0079
2362.998 0.9554 1.0201 1.0862 0.8312 0.74575 0.9792 1.0797 1.0372 1.0066 1.0603
2382.288 1.0504 1.0297 1.1059 1.1786 1.1273 1.0116 1.0724 1.213 1.1065 0.7795
2401.578 0.7843 0.843 0.8417 0.8584 0.875 1.0089 0.9723 0.8923 0.9395 0.9785
2420.867 0.8563 0.9285 1.1192 1.2226 1.1342 1.0333 1.1829 1.2506 1.1018 0.8511
2440.157 0.9217 0.9973 0.9971 0.9468 0.647712 0.72426 0.916 1.0705 1.1394 0.9195
2459.447 0.74283 0.7569 0.7923 0.8417 0.9332 0.9569 0.9416 0.9428 0.944 1.0148
2478.737 1.0668 0.9785 1.0303 0.8683 0.8012 1.1033 1.0524 0.9624 0.8674 0.8155
2498.026 0.9189 0.7838 0.6312 0.789 1.0881 0.9715 0.9549 1.0216 0.7967 0.5817
2517.316 0.516 0.6161 0.73738 0.8335 0.8933 0.8976 0.9207 0.943 0.8789 0.8196
2536.606 0.882 0.8698 0.8375 0.7189 0.73558 0.7573 0.72304 0.8017 0.8949 0.9795
2555.896 0.9588 1.0183 0.9753 0.891 0.9108 0.8104 0.648868 0.8982 1.2337 1.2698
2575.186 1.3004 1.335 1.4382 1.5679 1.4885 1.46 1.4016 1.3965 1.5515 1.3804
2594.475 1.3869 1.5931 1.656 1.746 1.686 1.696 1.5535 1.38 1.1109 1.0052
2613.765 1.3366 1.3021 1.0293 1.2674 1.6034 1.3148 1.1706 1.2037 1.1192 1.1241
2633.055 1.3118 1.2565 1.0176 1.1835 1.3964 1.3038 1.179 0.969 0.65921 0.7502
2652.345 0.73163 0.9172 1.0836 0.72528 0.8623 1.0017 0.8617 0.8338 0.6209 0.71933
2671.634 0.9024 0.8732 0.7741 0.69425 0.68884 0.7596 0.763 0.8719 1.0318 0.8492
2690.924 0.7605 0.7609 0.71771 0.6153 0.528 0.7623 0.8187 0.8845 1.0435 0.978
2710.214 0.72558 0.7478 1.1211 1.1673 1.0368 0.7486 0.6092 0.8401 1.0214 1.0074
2729.504 0.9143 0.7842 0.8466 0.74579 0.5904 0.8584 1.2112 1.1395 0.8241 0.7896
2748.794 0.7531 0.8722 0.9253 0.5716 0.375 0.384 0.5981 0.8682 0.9758 0.8884
2768.083 0.9291 0.9193 0.7873 0.8194 1.0721 1.1998 0.8591 0.8174 0.9675 0.8965
2787.373 0.67741 0.6011 0.9316 1.087 1.0553 1.227 1.0967 0.7655 0.6298 0.8344
2806.663 1.3069 1.4418 1.2111 1.0133 0.8712 0.9368 1.1582 0.9714 1.025 1.1817
2825.953 1.0244 0.8307 0.8685 1.0477 1.0083 0.816 0.7904 0.9658 0.9698 0.8861
2845.242 0.69022 0.524 0.319 0.5744 0.7882 0.67306 0.7618 0.6121 0.5784 0.8834
2864.532 1.1427 1.2471 0.8853 0.542 0.8188 1.0461 1.1052 0.98 0.73163 0.650823
2883.822 0.71578 0.69309 0.577 0.7797 0.8813 0.653825 0.446 0.466 0.7827 0.7626
2903.112 0.493 0.54 0.66167 0.968 1.018 0.7631 0.63667 0.353 0.428 0.7768
2922.401 1.1038 1.267 0.9042 0.449 0.70677 0.9221 0.7555 1.1165 1.3257 1.217
2941.691 0.9725 0.9796 1.2936 1.0849 0.8785 1.0071 0.9222 0.8493 0.9699 0.9294
2960.981 1.0696 1.0514 0.7942 0.7706 0.8555 0.7931 0.7798 1.0431 1.1968 1.0369
2980.271 1.1233 1.313 1.2538 1.2867 1.0439 0.756 0.69594 0.7924 0.9391 1.049
2999.561 0.9777 0.523 0.422 0.7876 0.811 0.6039 0.7904 1.3309 1.0661 0.203
3018.850 0.251 0.5903 0.481 0.376 0.45 0.6104 0.5674 0.8376 1.0463 0.5923
3038.140 0.5658 0.8919 1.1721 1.1391 1.069 1.2479 1.2925 1.6 1.6408 1.2435
3057.430 1.1466 1.3253 1.2597 1.2295 1.6141 1.826 1.866 1.686 1.826 2.336
3076.720 1.996 1.816 2.106 1.906 1.4986 1.552 1.996 1.6142 1.1117 1.1216
3096.009 0.7483 0.70721 1.1977 1.4437 1.1753 0.9265 0.650458 0.70548 1.1737 1.2689
3115.299 1.3419 1.1974 1.2632 1.6389 1.3943 1.3948 1.5337 1.736 1.6009 1.1984
3134.589 1.408 1.389 1.2222 0.858 0.8569 0.8923 0.67159 0.6131 0.7932 0.67314
3153.879 0.153 0.45 0.792 0.5596 0.7467 0.7577 0.72469 0.9039 0.74468 0.67678
3173.169 0.8558 0.9468 0.293 0.018 0.122 0.41 0.8563 0.5586 0.543 0.438
3192.458 0.33 0.292 0.342 0.493 0.545 0.9709 1.0675 1.0279 1.2674 1.5354
3211.748 1.1379 0.71128 1.057 1.0417 0.7638 0.767 0.6353 0.6049 0.5673 0.5605
3231.038 0.5867 0.372 0.318 0.367 0.431 0.67139 0.74224 0.7597 0.518 0.166
3250.328 0.256 0.511 1.2052 1.371 1.1561 1.2148 0.9548 0.8667 0.8534 0.5933
3269.617 0.496 0.72627 0.781 0.455 0.5637 0.68918 0.48 0.535 0.654422 0.6171
3288.907 0.8388 0.6955 0.208 0.5644 0.7784 0.74058 0.465 0.476 1.1363 1.2957
3308.197 1.0869 0.7547 0.517 0.652978 0.68502 0.655758 0.8357 0.7691 0.73186 0.848
3327.487 0.527 0.8501 1.3047 0.8066 0.7681 0.9216 0.70302 1.0926 1.1027 0.6212
3346.777 0.5678 0.7775 0.8265 0.74342 1.0185 1.0633 0.67532 0.5528 0.7633 0.9368
3366.066 0.8447 0.8468 1.0299 0.9969 0.72912 0.524 0.6259 0.68683 0.5619 0.494
3385.356 0.65755 0.661 0.648424 0.8966 1.1046 1.1095 0.7983 0.543 0.65848 0.8383
3404.646 0.7921 0.6049 0.478 0.286 0.291 0.5683 0.7573 0.8585 0.8039 0.9526
3423.936 1.1315 1.0776 0.9974 0.7953 0.52 0.625 0.9753 0.9273 0.8192 0.9276
3443.225 1.0454 0.9504 1.0029 1.0173 0.9411 0.92 1.1437 1.2817 0.9393 0.6821
3462.515 0.7466 0.70266 0.72457 0.9126 0.8678 0.74107 0.406 0.473 0.5802 0.5982
3481.805 0.9165 1.0312 0.6032 0.47 0.7982 0.70835 0.8267 0.7983 0.8602 1.2773
3501.095 0.9152 0.68836 0.7723 0.9093 1.3423 1.1898 1.0115 0.9011 0.8331 0.9859
3520.385 0.74076 0.5944 0.8695 0.70429 0.5566 0.8087 0.353 0.44 1.1667 1.1542
3539.674 0.7982 0.74285 0.781 0.545 0.746 0.68689 0.71702 0.8072 0.534 0.7555
3558.964 0.7526 0.66359 0.8539 0.8137 0.7745 0.9939 0.9214 0.70951 0.5907 0.7776
3578.254 1.0208 0.854 0.468 0.7993 0.70247 0 0.485 0.491 0.392 0.9072
3597.544 1.02 0.6221 0.5491 0.72638 0.67467 0.71203 0.72611 1.0565 1.3311 1.1357
3616.833 0.7671 0.6318 0.8749 1.0666 0.9382 0.7989 0.8306 0.66781 0.7998 1.0892
3636.123 0.70667 0.476 0.537 0.661 0.7493 0.481 0.5965 0.653923 0.416 0.64039
3655.413 0.7881 0.492 0.6255 1.0139 0.778 0.9969 1.1109 0.44 0.075 0.442
3674.703 0.496 0.228 0.452 0.8504 1.2681 0.8115 0.524 0.8692 1.0016 0.9576
3693.993 0.74269 0.475 0.496 0.349 0.5743 0.8919 0.69866 0.8458 0.7554 0.8281
3713.282 1.1211 0.9295 1.0388 1.656 1.6397 1.0301 0.8872 0.9855 0.9433 0.8411
3732.572 0.65948 0.8705 0.7891 0.6262 0.74201 0.526 1.0164 1.056 0.9377 1.3694
3751.862 1.3182 0.9095 0.63889 0.995 0.7635 0.70626 1.1057 1.1592 1.5577 2.046
3771.152 1.4372 0.70867 0.8722 0.8288 0.69911 0.5741 0.652812 1.0382 0.9547 0.482
3790.441 0.4 0.9605 1.1618 1.0076 1.1273 1.3689 1.1945 1.3857 1.2581 0.9515
3809.731 1.2794 1.326 0.9134 0.8545 1.0108 0.5928 0.52 0.9224 1.2807 1.2302
3829.021 1.1185 1.2172 1.2393 1.3121 0.69481 0.387 0.6376 0.521 0.8846 1.0521
3848.311 1.0542 1.0353 0.9716 0.9907 1.1126 1.0209 0.7461 0.6222 0.174 0.45
3867.601 0.8179 0.536 0.492 0.365 0.6039 0.8465 0.9091 0.857 0.42 0.482
3886.890 0.8158 0.67991 0.6061 1.1011 1.1811 0.71933 0.9795 0.9341 0.495 0.650407
3906.180 0.8319 0.7756 0.778 0.74339 0.543 0.506 0.69357 0.7711 0.68177 0.70908
3925.470 0.63699 0.8343 0.7507 0.358 0.8075 1.0317 0.63625 0.429 0.475 0.478
3944.760 0.457 0.6188 0.7741 0.444 0.27 0.7591 1.0064 0.8338 0.8114 1.2797
3964.049 1.5968 1.1661 0.527 0.7764 1.1219 0.7955 0.71544 0.72213 0.336 0.404
3983.339 0.9415 0.8775 0.7808 0.9326 1.1981 1.0771 0.8401 1.0972 1.1745 1.4415
##END=
