##TITLE=3,4-Difluorophenylacetic acid
##JCAMP-DX=4.24
##DATA TYPE=INFRARED SPECTRUM
##ORIGIN=EPA-IR VAPOR PHASE LIBRARY
##OWNER=SRD/NIST
Collection (C) 2018 copyright by the U.S. Secretary of Commerce
on behalf of the United States of America. All rights reserved.
##CAS REGISTRY NO=658-93-5
##MOLFORM=C 8 H 6 F 2 O 2
##$NIST SOURCE=MSDC-IR
##STATE=gas
##XUNITS=1/CM
##YUNITS=ABSORBANCE
##XFACTOR=1.
##YFACTOR=0.001
##DELTAX=1.92898
##FIRSTX=549.8
##LASTX=4000.7
##FIRSTY=12.2
##MAXX=4000.7
##MINX=549.759
##MAXY=0.08505
##MINY=0
##NPOINTS=1790
##XYDATA=(X++(Y..Y))
549.759 12.2 13.17 15.51 17.16 17.99 19.05 20.74 22.05 22.65 23.23
569.049 23.86 24.47 24.6 24.03 22.83 20.92 19.4 18.51 16.63 14.41
588.339 12.7 11.59 10.97 10.63 10.49 10.6 10.94 11.28 11.63 12.56
607.628 13.31 13.66 14.25 15.54 16.78 16.76 16.62 17.51 18.28 18.04
626.918 17.82 17.96 18.25 17.65 16.87 16.27 15.23 14.77 14.87 14.37
646.208 13.21 12.3 11.67 11.25 10.87 10.2 9.33 8.62 7.99 7.48
665.498 7.19 7.31 7.25 6.9 7.04 7.1 6.9 6.76 6.99 7.35
684.787 7.16 7.01 6.98 6.87 7.16 7.12 7.06 6.86 6.5 6.15
704.077 5.32 4.96 4.77 4.37 3.86 3.05 2.97 2.89 2.59 2.8
723.367 2.84 2.82 3.07 2.96 2.82 2.78 2.19 2.08 2.37 2.58
742.657 2.81 3.4 3.92 3.97 4.64 5.56 6.26 7.25 8.51 9.66
761.947 10.19 10.58 10.83 11.18 11.34 10.64 10.21 10.05 9.88 10.41
781.236 11.1 11.74 12.6 13.51 14.14 14.76 15.28 14.51 13.66 13.3
800.526 12.3 12.02 12.14 11.75 11.52 11.63 11.49 11.17 10.59 9.54
819.816 8.35 7.19 6.73 6.1 5.67 5.17 4.5 4.03 3.49 3.56
839.106 3.53 3.44 3.4 3.28 3.52 4.01 4.17 4.22 4.39 4.16
858.395 4.26 4.23 3.84 3.67 3.9 4.1 4.3 4.24 3.82 4.3
877.685 4.96 4.84 4.53 4.46 4.56 4.75 4.68 4.29 4.14 4.64
896.975 4.93 4.56 4.54 4.48 4.45 4.39 3.96 3.63 3.48 3.64
916.265 3.75 4.13 4.2 4.06 4.47 4.79 4.97 4.99 4.72 4.77
935.555 5.15 5.06 4.98 4.9 4.82 5 5.17 5.32 5.3 5.78
954.844 6.25 6.6 7.05 6.94 6.67 6.63 6.68 6.39 5.7 4.76
974.134 3.84 3.44 3.1 2.91 2.69 2.45 2.73 2.87 2.42 2.12
993.424 1.99 1.76 1.69 1.5487 1.66 1.76 2.01 1.99 1.9 1.97
1012.714 1.5915 1.3878 1.4596 1.4614 1.92 1.96 1.4097 1.93 2.03 1.69
1032.003 2.28 2.91 3.12 2.78 2.04 2.22 2.84 3.23 4.02 4.32
1051.293 3.79 3.8 3.71 3.32 4.5 5.82 5.45 5.82 7.01 7.16
1070.583 7.31 8 9.29 10.35 10.57 11.7 13.66 15.07 16.74 19.01
1089.873 20.96 22.54 25.83 29.64 33.37 38.26 44.18 49.97 55.1 59.85
1109.163 65.13 68.27 70.65 72.72 71.66 70.53 66.64 60.77 56.1 52.92
1128.452 49.82 46.09 42.9 39.75 37.09 34.1 30.85 28.69 26.83 23.77
1147.742 20.64 19.62 18.53 16.83 16.03 14.84 13.78 13.51 12.81 12.11
1167.032 11.62 11.17 10.72 10.69 11.26 11.2 10.32 9.85 10.19 10.11
1186.322 10.5 11.24 11.96 12.45 12.59 13.27 13.73 14.96 16.43 16.79
1205.611 18.44 19.94 21.02 23.08 23.89 24.97 26.29 24.94 23.81 23.37
1224.901 21.81 19.63 16.78 14.71 13.69 12.97 11.39 9.64 8.65 8.74
1244.191 8.8 8.49 8.42 8.39 8.72 8.73 8.4 8.71 9.7 10.81
1263.481 12.16 14.06 16.64 19.46 23.52 28.52 33.76 38.82 43.16 47.01
1282.771 49.24 50.09 50.5 49.58 47.43 44.76 42 39.2 36.05 32.95
1302.060 30.13 27.55 24.75 21.76 19 16.64 14.63 13 11.73 10.68
1321.350 9.68 8.91 8.75 8.55 8.27 8.34 8.55 8.71 8.79 8.94
1340.640 9.55 10.27 10.56 10.91 11.29 11.57 11.92 12.05 12.05 11.98
1359.930 11.91 11.75 11.48 11.14 10.74 10.37 9.89 9.39 8.88 8.29
1379.219 7.73 7.31 6.83 6.37 5.95 5.69 5.56 5.47 5.29 4.94
1398.509 4.9 5.07 5.12 5.12 5.17 5.25 5.5 5.95 6.43 7.07
1417.799 7.75 8.64 9.91 11.35 12.84 14.39 16.04 17.24 17.9 18.46
1437.089 18.62 18.26 17.76 16.61 14.98 13.22 11.35 9.78 8.5 7.44
1456.378 6.58 5.88 5.43 4.92 4.52 4.4 4.28 4.34 4.26 4.04
1475.668 4.09 4.24 4.39 4.52 4.84 5.25 5.65 6.19 6.83 7.9
1494.958 9.38 11.16 13.13 15.71 19.51 24.21 29.62 35.81 43.21 51.62
1514.248 60.71 70.01 78.09 83.34 85.05 83.4 78.78 71.44 62.21 51.47
1533.538 40.19 30.28 22.99 17.61 13.82 11.4 9.51 8.3 7.59 6.77
1552.827 6.32 6.12 5.95 5.85 5.79 5.82 5.83 5.93 6.12 6.28
1572.117 6.2 6.06 6.1 6.22 6.12 5.93 6.1 6.53 6.76 6.91
1591.407 7.46 8.28 9.26 10.32 11.73 13.18 14.21 15.38 16.13 16.28
1610.697 16.19 15.55 14.5 13.04 11.61 10.06 8.5 7.38 6.59 5.78
1629.986 4.86 4.33 3.84 3.27 2.95 2.59 2.38 2.23 1.96 1.79
1649.276 1.71 1.65 1.5316 1.3722 1.5071 1.569 1.3647 1.4739 1.67 1.67
1668.566 1.73 1.83 1.561 1.4642 1.64 1.7 1.86 2.03 2.08 2.15
1687.856 2.24 2.35 2.5 2.5 2.51 2.62 2.63 2.75 3.05 3.26
1707.146 3.51 3.59 3.71 3.97 4.21 4.65 5.09 5.47 5.79 6.18
1726.435 6.76 7.42 8.15 8.87 9.85 10.79 11.82 13.15 14.58 16.36
1745.725 18.19 20.26 22.45 24.77 27.13 29.42 31.99 34.61 37.2 40.07
1765.015 43.05 46.06 49.4 52.9 56.35 59.4 61.93 63.73 64.82 65.21
1784.305 64.61 63.26 60.98 57.88 54.59 51.22 47.83 44.29 40.68 37.03
1803.594 33.4 29.9 26.43 23.19 20.38 17.73 15.28 13.21 11.44 9.93
1822.884 8.7 7.63 6.64 5.93 5.2 4.57 4.35 4.02 3.74 3.4
1842.174 3.11 2.99 2.74 2.66 2.65 2.53 2.37 2.26 2.34 2.42
1861.464 2.38 2.41 2.36 2.26 2.29 2.31 2.24 2.05 2.06 2.08
1880.754 1.96 1.9 1.84 1.76 1.71 1.76 1.68 1.5944 1.6 1.5202
1900.043 1.491 1.4998 1.4684 1.5383 1.61 1.5823 1.5135 1.4703 1.3951 1.2267
1919.333 1.2504 1.4098 1.4577 1.4161 1.361 1.2138 1.1832 1.338 1.3497 1.1884
1938.623 1.2175 1.1916 1.0754 1.2003 1.2377 0.9995 0.9359 1.0421 1.0363 1.139
1957.913 1.2617 1.197 1.1171 1.0462 1.1167 1.2201 1.1547 0.9628 0.951 1.0981
1977.202 1.0712 1.1458 1.1015 1.1342 1.16 1.1284 1.1083 1.022 1.0028 0.9943
1996.492 1.0423 0.9895 1.168 1.3112 1.1926 1.0855 1.0894 1.1907 1.3187 1.3133
2015.782 1.1467 1.2248 1.2554 1.2304 1.1831 1.0301 1.0524 1.0788 1.215 1.2138
2035.072 1.0838 1.2012 1.3085 1.2429 1.1021 1.1399 1.3138 1.3934 1.2952 1.2167
2054.362 1.3738 1.3216 1.2706 1.3092 1.158 1.2426 1.2602 1.1532 1.1011 1.1883
2073.651 1.3402 1.2583 1.2033 1.1427 1.1979 1.1281 1.0512 1.2717 1.2707 1.1639
2092.941 1.1206 1.0061 0.9256 0.9186 0.9182 1.0178 0.9849 0.7895 0.8318 0.9639
2112.231 1.0448 0.9838 0.8108 0.7318 0.8993 1.0566 1.0183 0.8762 1.0441 1.1829
2131.521 0.9992 0.905 0.792 0.83 1.0287 1.0222 0.8631 0.8083 0.7672 0.7915
2150.810 0.833 0.8415 0.8355 0.9314 0.9236 0.8561 0.8851 0.8446 0.8688 0.9405
2170.100 0.8928 0.894 1.0112 0.9456 0.9869 1.0495 0.8926 0.9246 0.9625 0.9108
2189.390 0.9636 1.143 1.2237 1.0512 0.9807 0.8826 0.8245 1.1338 1.0927 0.8204
2208.680 0.9108 1.086 1.2291 1.0993 0.9495 1.0616 1.0426 0.9968 1.0636 1.056
2227.970 1.032 0.9718 0.8313 0.8051 0.7973 0.7651 0.9319 1.1185 1.1683 1.1192
2247.259 1.1401 1.1736 1.0111 1.0051 1.194 1.1176 0.903 0.9397 1.2176 1.1752
2266.549 1.1074 1.3728 1.0968 0.8644 0.9981 0.9827 0.9807 1.0179 1.2172 1.4065
2285.839 1.268 1.118 1.2416 1.2013 1.0819 1.1919 1.2771 1.1977 1.0462 0.9886
2305.129 1.007 1.0312 1.107 1.112 1.0085 0.8244 0.8535 1.1123 1.0656 1.011
2324.418 1.0147 1.0351 1.1639 1.096 1.1271 1.0965 1.0133 1.096 0.9793 0.982
2343.708 1.1958 1.2013 1.1206 1.0958 1.0988 1.052 1.1598 1.3895 1.3096 1.0938
2362.998 1.0953 1.1586 1.0711 0.9126 1.0463 1.2251 1.089 1.1237 1.2029 1.0506
2382.288 0.845 0.8414 0.7912 0.7897 1.005 1.0718 1.0127 0.9074 0.8253 1.0202
2401.578 1.0083 0.8672 0.9696 1.0939 1.1947 1.0147 1.1014 1.2086 1.1597 1.2884
2420.867 1.3205 1.2816 1.3206 1.2336 1.1224 1.1789 1.1422 1.0248 0.9623 0.8902
2440.157 0.8766 0.9973 1.0356 0.8452 0.887 1.0933 0.9516 0.9289 1.1648 1.1814
2459.447 1.1703 1.0397 0.9502 1.1591 1.0715 0.9918 1.1031 0.9552 0.8056 0.9187
2478.737 1.0467 0.9676 0.8002 0.736 0.8054 0.9336 1.0056 1.0727 1.2481 1.281
2498.026 1.2095 1.0365 0.8926 0.9442 0.8311 0.8079 0.9659 0.8825 0.8564 0.8311
2517.316 0.8641 0.9281 0.9056 1.1766 1.2337 1.083 0.8806 0.9972 1.2178 1.1411
2536.606 1.1195 1.1004 1.1528 1.2498 1.3148 1.2605 1.1489 1.2387 1.1531 1.021
2555.896 1.026 1.0369 1.0116 0.9994 1.1255 1.1937 1.198 1.1948 1.1685 1.219
2575.186 1.2905 1.3575 1.3533 1.2113 1.0452 1.0941 1.076 1.0443 1.3322 1.3576
2594.475 1.1598 1.1294 0.9276 0.9852 1.1062 0.7678 0.7062 0.63738 0.69583 0.7916
2613.765 0.7075 0.7182 0.8929 1.0448 0.9083 0.8337 0.7573 0.7291 1.024 1.0636
2633.055 0.8845 0.9831 1.1678 1.1314 1.0228 1.0949 0.834 0.65557 0.7606 0.8799
2652.345 0.8931 0.8996 0.9135 0.8915 1.0006 0.9909 1.0882 1.0871 0.9877 0.9344
2671.634 0.9455 0.9414 0.9436 1.0625 0.8956 0.7508 0.63218 0.61192 0.7999 0.9622
2690.924 0.8136 0.7349 0.8413 0.7635 0.8309 0.9139 0.7786 0.7126 0.762 0.7936
2710.214 0.8409 0.8959 0.9325 0.8608 0.7728 0.869 0.955 0.8118 0.8471 1.0519
2729.504 1.1509 1.0222 1.0193 0.8588 0.498 0.5284 0.9579 1.2125 1.1032 1.1197
2748.794 1.2826 1.1917 0.8821 0.7806 0.8788 0.7174 0.62284 0.59152 0.5437 0.8977
2768.083 0.8129 0.7563 0.8146 0.7454 0.9027 0.68867 0.67934 0.9035 0.8851 1.0269
2787.373 1.1112 1.0431 0.9862 0.8444 0.737 0.8502 0.8275 0.8192 1.1641 1.1484
2806.663 0.8644 1.0815 1.0143 0.7163 0.59851 0.464 0.549 0.8542 0.8005 0.7764
2825.953 0.892 0.8348 1.0014 0.9699 0.66097 0.45 0.5565 0.8449 0.8967 0.8366
2845.242 0.9475 1.0299 0.9349 0.7951 0.7393 0.7838 0.9574 1.1667 1.2606 1.074
2864.532 0.8332 0.7897 1.1267 1.1495 0.9245 1.0621 1.1875 1.0427 0.8958 0.9159
2883.822 0.7525 1.0011 1.1663 1.1938 1.3742 1.2913 1.1082 0.8908 1.0614 1.2397
2903.112 1.3018 1.4338 1.3494 1.3761 1.5223 1.4405 1.4558 1.5122 1.76 2.01
2922.401 1.85 1.87 2.09 2.25 2.51 2.63 2.62 2.7 2.64 2.45
2941.691 2.34 2.33 2.57 2.24 1.78 2.02 2.17 2.21 2.23 2.19
2960.981 2.04 1.83 1.69 1.64 1.5166 1.4439 1.92 2.01 1.4531 1.2619
2980.271 1.4613 1.71 1.83 1.84 1.74 1.85 1.8 1.64 1.5663 1.5058
2999.561 1.4683 1.4089 1.8 2.02 1.5672 1.1017 1.3867 1.3711 1.0527 1.1686
3018.850 1.1978 1.2639 1.2865 1.3802 1.3813 1.4658 1.4468 1.24 1.7 1.94
3038.140 1.68 1.63 1.88 2.26 2.4 2.32 2.24 2.51 2.73 2.67
3057.430 2.47 2.42 2.67 2.86 2.81 2.62 2.42 2.43 2.46 2.18
3076.720 2.2 2.08 2.02 1.85 1.5189 1.0911 1.1854 1.78 1.2583 0.9413
3096.009 0.9728 1.0014 1.1929 0.8478 0.68104 0.9573 0.9039 0.737 0.64115 0.7297
3115.299 1.0276 1.1836 0.9527 0.7704 0.8763 0.66056 0.496 0.8153 0.8736 0.69992
3134.589 0.67428 0.62637 0.8554 1.047 0.8073 0.64956 0.439 0.4 0.7013 0.8903
3153.879 0.7358 0.5065 0.459 0.356 0.415 0.5499 0.7541 0.6672 0.5725 0.66492
3173.169 0.7879 0.89 0.9207 0.8512 0.818 0.9764 0.8145 0.67172 0.8207 0.7616
3192.458 0.68457 1.0306 0.9605 0.7925 0.8248 1.0873 1.0768 0.7113 0.782 0.5414
3211.748 0.4 0.9119 0.9108 0.48 0.495 0.8003 1.1751 0.8034 0.69765 0.9638
3231.038 1.0296 0.9286 0.5551 0.7734 0.8588 0.8045 0.7897 0.515 0.7228 0.9241
3250.328 0.9314 0.8341 0.389 0.5042 0.68836 0.8019 1.1139 1.2991 1.032 0.47
3269.617 0.453 0.7526 0.7165 0.68449 0.9064 0.7244 0.63255 0.9495 0.6825 0.5782
3288.907 0.8424 0.68656 0.498 0.215 0 0.419 0.67551 0.8095 0.9897 0.8015
3308.197 0.9507 0.9455 0.482 0.456 0.6157 0.7136 0.8216 0.7731 0.448 0.223
3327.487 0.231 0.339 0.709 1.3015 1.65 1.4816 1.255 1.0304 0.7126 0.62899
3346.777 0.5816 0.237 0.492 0.7505 0.7155 0.5894 0.355 0.62699 0.66652 0.5119
3366.066 0.8477 1.0747 1.0675 1.0611 0.8527 0.858 0.7896 0.8466 0.9084 0.8994
3385.356 0.7214 0.22 0.428 0.9555 1.0518 0.8936 0.719 0.9015 0.9664 0.8089
3404.646 0.8534 0.7813 0.7086 0.5574 0.68391 0.8958 0.7084 0.65862 0.295 0.266
3423.936 0.61964 0.68813 0.67494 0.5449 0.65 0.7819 0.9019 0.9572 0.7378 0.6819
3443.225 0.493 0.353 0.65973 0.468 0.5011 0.67638 0.8466 1.1392 0.68988 0.447
3462.515 0.468 0.127 0.074 0.452 0.492 0.417 0.5322 0.65119 0.9343 1.4556
3481.805 1.3577 0.9653 1.3161 1.2621 0.7965 0.9071 0.9036 0.8305 0.7196 0.469
3501.095 0.422 0.389 0.7266 0.9938 1.0772 1.1855 1.3798 1.4838 1.5444 1.568
3520.385 1.1693 0.9312 1.3065 1.75 1.87 1.67 1.8 2.28 2.56 2.65
3539.674 2.99 3.52 3.86 3.88 4.14 4.92 5.62 6.18 6.77 7.73
3558.964 9.37 11.8 14.84 19.1 24.35 28.6 31.21 32.76 32.97 31.56
3578.254 28.74 24.37 19.47 15.09 11.55 9.17 7.34 6.16 5.42 4.77
3597.544 4.35 3.94 3.43 2.9 2.74 2.91 2.35 1.79 1.73 1.69
3616.833 1.3719 1.1046 1.2494 1.1224 1.0384 0.8328 0.8706 0.8574 0.5032 0.7092
3636.123 0.827 0.7162 1.0646 1.4462 1.3965 1.0362 0.9173 0.8431 0.93 1.2644
3655.413 1.4883 1.3825 0.7383 0.8369 0.8344 0.59381 0.8229 0.8872 0.74 0.459
3674.703 0.444 0.423 0.5496 0.5841 0.551 0.5653 0.505 0.7975 0.8008 0.543
3693.993 0.8845 0.8129 0.5258 0.7919 1.1516 1.0172 0.66422 0.845 0.9106 0.533
3713.282 0.35 0.5424 0.49 0.248 0.4 0.8617 0.816 0.9247 1.1264 0.35
3732.572 0.245 1.062 1.2743 1.0452 0.5379 0.61826 1.0106 0.8948 0.66966 0.8225
3751.862 1.3135 1.0969 0.7513 0.8235 0.61718 0.62923 1.2567 1.5478 1.4251 0.9322
3771.152 0.409 0.425 0.609556 0.8017 0.9933 0.9007 0.68114 0.5516 0.8521 0.9001
3790.441 0.66537 0.7257 0.608432 0.7108 0.62479 0.514 0.5899 0.5346 0.5084 0.115
3809.731 0.421 0.5004 0.015 0.5782 1.1136 0.8208 0.262 0.308 0.8973 1.075
3829.021 0.7711 0.361 0.179 0.8836 1.177 0.9574 1.0386 0.62762 0.346 0.7566
3848.311 0.7738 0.5816 0.62783 0.5698 0.7504 0.9033 0.8469 0.7521 0.8928 1.0283
3867.601 1.1829 1.0558 1.0844 0.8912 0.353 0.66762 1.0998 0.9368 0.68022 1.0659
3886.890 0.7846 0.426 0.494 0.7371 1.0265 1.2123 1.3783 1.1816 1.0117 0.8934
3906.180 1.386 1.1761 0.5522 0.448 0.5613 0.7151 1.0331 1.3172 1.1245 1.3005
3925.470 1.4982 1.1561 0.8892 0.7599 0.8524 0.7709 0.5699 0.7323 0.5041 0.379
3944.760 0.61036 0.8096 1.1696 1.0024 0.57 0.8162 0.9453 1.0266 0.9276 0.7542
3964.049 0.8113 1.0038 1.1115 1.3639 1.4648 0.9427 0.5389 0.422 0.8405 1.1116
3983.339 1.0048 0.8693 1.1055 1.2377 1.1769 0.921 0.7668 0.9457 1.009 1.3565
##END=
