##TITLE=3,4-Dichlorophenyl isothiocyanate
##JCAMP-DX=4.24
##DATA TYPE=INFRARED SPECTRUM
##ORIGIN=EPA-IR VAPOR PHASE LIBRARY
##OWNER=SRD/NIST
Collection (C) 2018 copyright by the U.S. Secretary of Commerce
on behalf of the United States of America. All rights reserved.
##CAS REGISTRY NO=6590-94-9
##MOLFORM=C 7 H 3 Cl 2 N S
##$NIST SOURCE=MSDC-IR
##STATE=gas
##XUNITS=1/CM
##YUNITS=ABSORBANCE
##XFACTOR=1.
##YFACTOR=0.001
##DELTAX=1.92898
##FIRSTX=549.8
##LASTX=4000.7
##FIRSTY=11.374
##MAXX=4000.7
##MINX=549.759
##MAXY=0.476294
##MINY=0
##NPOINTS=1790
##XYDATA=(X++(Y..Y))
549.759 11.374 10.554 9.984 9.394 8.464 7.804 7.504 7.334 6.994 6.914
569.049 6.904 6.634 6.094 5.254 4.804 4.504 4.084 3.564 3.044 2.814
588.339 2.904 2.754 2.584 2.544 2.484 2.504 2.634 2.924 2.994 2.904
607.628 2.944 2.844 2.584 2.304 2.004 1.874 1.784 1.804 1.724 1.634
626.918 1.604 1.654 1.694 1.694 1.894 2.014 1.964 2.074 2.314 2.334
646.208 2.304 2.464 2.554 2.464 2.334 2.264 2.254 2.074 1.974 1.954
665.498 1.974 2.194 2.854 3.814 4.804 6.224 8.094 10.074 11.634 12.654
684.787 13.144 12.824 11.624 9.784 7.564 5.514 4.104 3.124 2.484 2.184
704.077 2.034 1.804 1.634 1.734 1.674 1.5032 1.564 1.704 1.814 1.894
723.367 2.164 2.194 2.074 2.104 1.904 2.054 2.204 1.944 1.844 1.984
742.657 2.034 2.084 2.184 2.224 2.444 2.714 2.904 3.164 3.664 4.054
761.947 4.424 5.154 6.034 6.884 7.804 9.064 10.664 12.384 14.274 16.674
781.236 19.264 21.614 23.954 26.014 27.584 28.734 29.304 29.614 29.934 29.994
800.526 29.714 29.674 29.864 29.914 30.174 30.894 31.704 30.334 26.604 22.734
819.816 19.514 16.514 13.624 11.104 8.924 7.104 5.804 4.974 4.274 3.684
839.106 3.134 2.854 2.884 2.884 2.924 3.174 3.564 4.324 5.604 7.184
858.395 9.214 11.484 13.804 15.994 18.314 20.984 22.844 22.534 20.114 17.234
877.685 14.834 12.564 10.274 7.994 6.174 4.984 4.144 3.804 3.544 3.424
896.975 3.574 3.544 3.494 3.544 3.614 3.644 3.494 3.404 3.464 3.454
916.265 3.344 3.134 2.994 3.084 3.314 3.444 3.414 3.464 3.584 3.644
935.555 3.684 3.684 3.624 3.724 3.944 4.124 4.314 4.684 5.234 5.974
954.844 6.944 8.164 9.744 11.634 13.754 16.234 18.874 21.084 22.664 23.314
974.134 23.084 22.214 20.254 17.544 14.844 12.254 9.984 8.154 6.744 5.614
993.424 4.834 4.464 4.224 3.944 3.874 3.844 3.704 3.934 4.134 4.294
1012.714 4.574 4.724 5.284 6.304 7.794 9.824 12.494 16.394 21.384 26.824
1032.003 30.874 32.204 31.624 30.694 27.924 21.964 15.544 11.164 8.344 6.054
1051.293 4.414 3.454 2.954 2.364 2.074 1.834 1.532 1.594 1.4681 1.2944
1070.583 1.3287 1.136 0.9915 1.0443 1.0922 1.0118 1.1437 1.644 1.4865 1.1525
1089.873 1.4072 1.854 2.384 2.894 3.354 3.774 4.254 4.844 5.774 7.324
1109.163 9.074 11.814 15.254 19.734 25.704 32.034 38.854 44.784 48.194 49.404
1128.452 48.394 44.814 39.474 33.974 29.214 25.514 22.404 19.554 16.864 13.974
1147.742 11.304 8.634 6.144 4.884 4.224 3.554 3.084 2.634 2.194 1.904
1167.032 2.024 2.084 1.664 1.3308 1.2557 1.3483 1.367 1.2849 1.3038 1.554
1186.322 1.824 1.944 2.254 2.664 2.874 2.884 3.024 2.894 2.554 2.074
1205.611 1.4403 1.2896 1.4187 1.2011 1.2089 1.5301 1.544 1.834 2.094 2.144
1224.901 2.304 2.624 2.804 2.894 3.184 3.414 3.704 3.864 4.334 5.034
1244.191 5.384 5.624 5.784 5.854 5.894 6.114 6.224 6.424 6.784 7.114
1263.481 7.574 8.024 8.704 9.344 10.074 10.664 10.684 10.294 9.534 8.364
1282.771 6.994 5.744 4.604 3.634 2.934 2.374 1.984 1.774 1.594 1.4545
1302.060 1.3873 1.3004 1.1826 1.0874 1.0866 1.1105 1.0587 1.0216 1.0022 0.9925
1321.350 1.0175 1.0565 1.0984 1.1006 1.1376 1.1416 1.1145 1.172 1.2135 1.2204
1340.640 1.1644 1.1255 1.1344 1.1619 1.1659 1.1755 1.2676 1.4256 1.624 1.904
1359.930 2.304 2.804 3.454 4.164 4.924 5.684 6.444 7.134 7.614 8.074
1379.219 8.394 8.554 8.654 8.604 8.484 8.294 7.914 7.424 6.944 6.414
1398.509 5.754 4.914 4.114 3.554 3.084 2.724 2.564 2.534 2.664 2.984
1417.799 3.474 4.164 5.084 6.404 8.244 10.694 13.814 17.414 21.094 24.234
1437.089 26.484 27.504 27.274 25.964 23.934 21.834 20.384 20.254 21.984 25.824
1456.378 32.464 42.804 57.374 76.534 98.434 118.984 132.094 134.624 127.494 112.514
1475.668 90.334 63.884 40.784 25.574 17.364 13.134 10.844 9.574 8.874 8.344
1494.958 8.004 7.854 7.734 7.644 7.594 7.544 7.414 7.274 7.084 6.754
1514.248 6.334 5.854 5.404 5.074 4.844 4.774 4.844 5.014 5.324 5.764
1533.538 6.274 6.984 7.914 8.984 10.284 11.914 13.784 15.834 17.864 19.774
1552.827 21.314 22.374 22.884 22.814 22.234 21.174 20.044 19.234 19.084 19.974
1572.117 22.214 25.994 31.514 38.764 47.134 55.694 62.774 66.774 66.474 61.754
1591.407 53.504 42.984 31.734 21.604 14.104 9.634 7.294 6.014 5.324 4.914
1610.697 4.654 4.594 4.604 4.624 4.624 4.604 4.644 4.584 4.484 4.364
1629.986 4.184 4.014 3.804 3.664 3.474 3.264 3.094 2.924 2.744 2.494
1649.276 2.294 2.154 1.974 1.804 1.714 1.654 1.594 1.594 1.564 1.5033
1668.566 1.4857 1.4826 1.5072 1.534 1.5303 1.544 1.594 1.654 1.664 1.664
1687.856 1.724 1.794 1.794 1.764 1.774 1.814 1.844 1.854 1.884 1.914
1707.146 1.984 1.994 1.994 2.054 2.114 2.214 2.244 2.254 2.324 2.464
1726.435 2.614 2.724 2.884 3.094 3.234 3.324 3.434 3.504 3.554 3.524
1745.725 3.484 3.494 3.474 3.424 3.354 3.294 3.284 3.264 3.204 3.134
1765.015 3.094 3.084 3.004 2.964 2.984 2.884 2.834 2.854 2.804 2.764
1784.305 2.804 2.834 2.804 2.794 2.864 2.974 2.984 2.964 3.034 3.114
1803.594 3.104 3.114 3.104 3.034 3.044 2.954 2.854 2.814 2.764 2.724
1822.884 2.704 2.684 2.654 2.654 2.784 2.884 2.854 2.914 3.014 3.044
1842.174 3.114 3.174 3.204 3.324 3.434 3.554 3.744 3.944 4.174 4.504
1861.464 4.904 5.334 5.774 6.274 6.794 7.244 7.674 8.084 8.444 8.744
1880.754 9.054 9.324 9.504 9.674 9.844 10.044 10.324 10.674 11.094 11.584
1900.043 12.194 12.974 13.824 14.804 15.844 16.944 18.204 19.604 21.064 22.674
1919.333 24.494 26.444 28.624 30.944 33.414 36.084 38.914 41.804 44.654 47.394
1938.623 50.064 52.754 55.404 57.964 60.484 63.004 65.564 68.194 70.944 73.754
1957.913 76.624 79.724 83.024 86.544 90.294 94.344 98.754 103.514 108.874 114.874
1977.202 121.514 128.934 137.164 146.094 155.694 165.874 176.354 186.974 197.634 207.994
1996.492 217.854 227.054 235.554 243.394 250.584 257.344 264.104 271.254 279.314 288.874
2015.782 300.504 314.824 332.304 353.434 378.144 405.604 434.134 459.434 474.754 476.294
2035.072 464.914 441.644 408.874 370.834 331.364 293.404 258.734 228.754 204.094 184.924
2054.362 170.984 161.674 156.534 154.954 156.424 160.444 166.684 174.894 184.894 196.784
2073.651 210.464 225.594 241.394 256.464 269.444 278.944 283.704 283.214 277.454 266.834
2092.941 252.214 234.814 216.004 196.854 178.224 160.784 144.884 130.754 118.434 108.144
2112.231 99.724 92.904 87.624 83.674 80.814 78.904 77.724 77.004 76.644 76.454
2131.521 76.234 75.744 74.904 73.694 71.944 69.614 66.634 63.184 59.374 55.204
2150.810 50.884 46.624 42.684 38.974 35.514 32.564 29.914 27.594 25.694 24.114
2170.100 22.804 21.674 20.684 19.884 19.194 18.614 18.154 17.774 17.484 17.254
2189.390 17.124 17.174 17.374 17.594 17.754 17.814 17.714 17.434 16.954 16.224
2208.680 15.314 14.284 13.174 12.154 11.314 10.694 10.194 9.824 9.574 9.404
2227.970 9.344 9.334 9.414 9.544 9.614 9.664 9.774 9.864 9.904 9.874
2247.259 9.704 9.464 9.154 8.664 8.104 7.494 6.904 6.314 5.694 5.214
2266.549 4.794 4.424 4.084 3.824 3.614 3.454 3.324 3.104 2.904 2.724
2285.839 2.614 2.564 2.414 2.274 2.134 1.984 1.954 1.904 1.804 1.774
2305.129 1.804 1.804 1.784 1.784 1.784 1.764 1.764 1.804 1.864 1.924
2324.418 1.954 1.934 2.014 2.154 2.214 2.344 2.464 2.514 2.624 2.734
2343.708 2.854 3.054 3.214 3.364 3.544 3.714 3.844 3.964 4.064 4.134
2362.998 4.184 4.244 4.244 4.174 4.104 3.934 3.704 3.524 3.344 3.174
2382.288 3.084 2.994 2.944 2.934 2.924 2.984 3.024 3.044 3.104 3.224
2401.578 3.364 3.374 3.394 3.454 3.514 3.504 3.474 3.504 3.374 3.234
2420.867 3.164 3.084 2.974 2.804 2.684 2.684 2.684 2.604 2.574 2.534
2440.157 2.524 2.554 2.624 2.654 2.634 2.594 2.564 2.594 2.544 2.454
2459.447 2.444 2.374 2.314 2.354 2.394 2.404 2.424 2.424 2.424 2.454
2478.737 2.474 2.604 2.754 2.854 2.944 3.024 3.144 3.224 3.304 3.474
2498.026 3.554 3.584 3.674 3.704 3.624 3.534 3.514 3.434 3.224 3.054
2517.316 3.014 2.994 2.934 2.974 3.054 3.134 3.174 3.294 3.344 3.374
2536.606 3.514 3.524 3.474 3.494 3.534 3.454 3.384 3.404 3.344 3.174
2555.896 3.054 2.954 2.814 2.744 2.684 2.584 2.524 2.544 2.544 2.574
2575.186 2.644 2.704 2.774 2.874 2.904 2.894 2.984 3.134 3.244 3.294
2594.475 3.364 3.454 3.524 3.604 3.704 3.884 4.114 4.264 4.434 4.554
2613.765 4.694 5.004 5.344 5.584 5.934 6.364 6.764 7.194 7.614 8.004
2633.055 8.274 8.414 8.374 8.134 7.784 7.264 6.604 5.914 5.264 4.704
2652.345 4.174 3.644 3.264 3.024 2.874 2.794 2.644 2.484 2.364 2.314
2671.634 2.394 2.334 2.314 2.364 2.324 2.364 2.364 2.304 2.254 2.224
2690.924 2.214 2.204 2.124 1.974 1.864 1.844 1.764 1.674 1.594 1.5092
2710.214 1.4315 1.4019 1.4709 1.4318 1.3692 1.347 1.3534 1.33 1.309 1.361
2729.504 1.2923 1.2738 1.243 1.1609 1.1217 1.091 1.1186 1.2208 1.2986 1.2709
2748.794 1.2988 1.2406 1.129 1.2078 1.3258 1.3436 1.3923 1.4273 1.4675 1.554
2768.083 1.584 1.674 1.714 1.774 1.854 1.924 2.054 2.144 2.194 2.264
2787.373 2.364 2.504 2.654 2.704 2.734 2.814 2.794 2.804 2.944 3.024
2806.663 3.044 3.084 3.094 3.124 3.134 3.134 3.174 3.234 3.294 3.254
2825.953 3.154 3.044 2.994 3.064 3.004 2.844 2.734 2.524 2.454 2.334
2845.242 2.144 1.964 1.904 1.864 1.714 1.554 1.5006 1.584 1.5234 1.3862
2864.532 1.2851 1.3412 1.4298 1.4274 1.554 1.674 1.624 1.544 1.5289 1.5083
2883.822 1.5057 1.4843 1.4991 1.564 1.544 1.4463 1.3509 1.3603 1.3864 1.3813
2903.112 1.3154 1.2671 1.2552 1.2268 1.1666 1.0873 1.1586 1.1859 1.1677 1.2146
2922.401 1.2024 1.146 1.2313 1.3026 1.3157 1.3443 1.3205 1.3526 1.348 1.3419
2941.691 1.3405 1.3254 1.191 1.0892 1.16 1.1986 1.2553 1.2332 1.1912 1.1818
2960.981 1.2652 1.3159 1.2932 1.3999 1.4398 1.4189 1.4476 1.4576 1.474 1.5194
2980.271 1.544 1.594 1.604 1.654 1.654 1.654 1.724 1.614 1.614 1.684
2999.561 1.734 1.804 1.704 1.614 1.704 1.744 1.624 1.5164 1.4522 1.4598
3018.850 1.4119 1.3855 1.4034 1.3605 1.2902 1.2121 1.212 1.1629 1.0897 1.1523
3038.140 1.2251 1.1691 1.186 1.303 1.2559 1.188 1.1368 1.1822 1.2726 1.253
3057.430 1.3113 1.3633 1.3619 1.4191 1.5041 1.584 1.674 1.804 1.964 2.044
3076.720 1.984 1.814 1.664 1.604 1.4696 1.3445 1.2527 1.1648 1.1963 1.1219
3096.009 1.0311 1.029 0.9867 0.8759 0.7684 0.723 0.6824 0.7137 0.6859 0.62439
3115.299 0.4962 0.35 0.371 0.297 0.308 0.341 0.24 0.282 0.391 0.483
3134.589 0.5012 0.4366 0.384 0.353 0.274 0.342 0.276 0.228 0.374 0.427
3153.879 0.386 0.375 0.353 0.206 0.145 0.163 0.288 0.386 0.347 0.245
3173.169 0.254 0.29 0.26 0.225 0.308 0.421 0.4486 0.425 0.373 0.365
3192.458 0.325 0.212 0.191 0.308 0.344 0.338 0.299 0.227 0.216 0.234
3211.748 0.187 0.133 0.153 0.177 0.071 0 0.227 0.268 0.149 0.244
3231.038 0.323 0.337 0.294 0.274 0.276 0.284 0.337 0.369 0.304 0.247
3250.328 0.269 0.163 0.145 0.26 0.246 0.142 0.115 0.19 0.192 0.244
3269.617 0.199 0.173 0.34 0.334 0.245 0.28 0.166 0.094 0.218 0.261
3288.907 0.318 0.278 0.244 0.229 0.18 0.103 0.125 0.223 0.138 0.074
3308.197 0.227 0.269 0.222 0.23 0.258 0.223 0.227 0.286 0.268 0.146
3327.487 0.019 0.171 0.391 0.37 0.326 0.4357 0.356 0.292 0.288 0.113
3346.777 0.05 0.223 0.311 0.268 0.291 0.332 0.35 0.312 0.332 0.5152
3366.066 0.4826 0.346 0.302 0.245 0.27 0.264 0.229 0.186 0.154 0.166
3385.356 0.288 0.4392 0.422 0.4444 0.4919 0.41 0.407 0.4507 0.327 0.166
3404.646 0.136 0.265 0.372 0.386 0.382 0.324 0.313 0.29 0.258 0.33
3423.936 0.404 0.4428 0.431 0.412 0.4346 0.427 0.374 0.349 0.347 0.307
3443.225 0.292 0.384 0.297 0.21 0.314 0.404 0.341 0.269 0.288 0.313
3462.515 0.324 0.153 0.138 0.296 0.351 0.4341 0.54454 0.4758 0.395 0.354
3481.805 0.314 0.371 0.432 0.395 0.391 0.415 0.4569 0.366 0.195 0.349
3501.095 0.405 0.326 0.344 0.385 0.386 0.378 0.472 0.428 0.408 0.425
3520.385 0.436 0.4758 0.4383 0.33 0.288 0.374 0.404 0.294 0.275 0.372
3539.674 0.333 0.367 0.428 0.31 0.382 0.404 0.246 0.296 0.232 0.223
3558.964 0.407 0.519 0.4984 0.4616 0.4366 0.386 0.4446 0.4675 0.5148 0.494
3578.254 0.322 0.314 0.366 0.381 0.4352 0.421 0.401 0.346 0.36 0.407
3597.544 0.335 0.291 0.229 0.294 0.4479 0.427 0.371 0.396 0.317 0.314
3616.833 0.4 0.446 0.387 0.357 0.4574 0.5212 0.4735 0.292 0.16 0.229
3636.123 0.312 0.27 0.318 0.331 0.259 0.4397 0.6355 0.5119 0.4567 0.5056
3655.413 0.55071 0.513 0.429 0.4501 0.335 0.414 0.4947 0.5298 0.57926 0.4417
3674.703 0.415 0.343 0.4435 0.5883 0.5149 0.4889 0.496 0.52538 0.58635 0.402
3693.993 0.389 0.58363 0.4796 0.447 0.57274 0.58607 0.4782 0.514 0.58721 0.5144
3713.282 0.4392 0.366 0.4442 0.53156 0.5232 0.55218 0.4393 0.4737 0.60929 0.60503
3732.572 0.60902 0.61654 0.62517 0.538679 0.54687 0.56527 0.6348 0.7483 0.6412 0.59993
3751.862 0.684 0.7055 0.6902 0.7403 0.8192 0.7287 0.57773 0.57466 0.62708 0.6344
3771.152 0.6733 0.7613 0.7572 0.6773 0.6536 0.711 0.6393 0.6619 0.6893 0.5146
3790.441 0.4624 0.647 0.7418 0.7048 0.7442 0.7123 0.6535 0.62962 0.58027 0.53175
3809.731 0.5159 0.60202 0.59321 0.62212 0.6597 0.63314 0.61633 0.511 0.60518 0.6733
3829.021 0.6408 0.6382 0.6374 0.7445 0.8222 0.8007 0.697 0.6657 0.7981 0.819
3848.311 0.7473 0.7204 0.789 0.8809 0.8462 0.7535 0.9438 1.0535 0.8575 0.845
3867.601 1.0497 1.0188 0.8168 0.825 0.9257 0.962 0.9408 0.9851 1.0062 1.0579
3886.890 1.0477 0.9768 0.9907 0.9744 0.9924 1.0591 1.0719 0.9992 0.972 0.921
3906.180 0.9477 1.0664 1.0413 1.1213 1.1409 1.1197 1.2649 1.3104 1.2708 1.2116
3925.470 1.1621 1.2337 1.261 1.2723 1.3315 1.2874 1.2821 1.3113 1.1938 1.1124
3944.760 1.1795 1.2313 1.2953 1.3823 1.4403 1.4173 1.5059 1.684 1.634 1.544
3964.049 1.624 1.584 1.4972 1.584 1.664 1.694 1.714 1.794 1.764 1.734
3983.339 1.794 1.814 1.864 1.804 1.764 1.874 1.974 2.004 1.934 1.824
##END=
