##TITLE=3,5-Dichlorophenyl isothiocyanate
##JCAMP-DX=4.24
##DATA TYPE=INFRARED SPECTRUM
##ORIGIN=EPA-IR VAPOR PHASE LIBRARY
##OWNER=SRD/NIST
Collection (C) 2018 copyright by the U.S. Secretary of Commerce
on behalf of the United States of America. All rights reserved.
##CAS REGISTRY NO=6590-93-8
##MOLFORM=C 7 H 3 Cl 2 N S
##$NIST SOURCE=MSDC-IR
##STATE=gas
##XUNITS=1/CM
##YUNITS=ABSORBANCE
##XFACTOR=1.
##YFACTOR=0.001
##DELTAX=1.92898
##FIRSTX=549.8
##LASTX=4000.7
##FIRSTY=24.246
##MAXX=4000.7
##MINX=549.759
##MAXY=0.399486
##MINY=0
##NPOINTS=1790
##XYDATA=(X++(Y..Y))
549.759 24.246 23.746 22.526 21.266 20.386 19.506 18.196 16.906 16.056 15.366
569.049 14.606 13.616 12.946 12.616 12.106 11.436 10.906 10.516 10.116 9.766
588.339 9.456 9.426 9.916 10.566 10.986 11.286 11.556 11.676 11.186 10.296
607.628 9.546 8.886 8.086 7.436 6.876 6.066 5.286 4.586 4.106 3.636
626.918 3.426 3.226 2.796 2.596 2.446 2.046 1.616 1.5705 1.836 1.986
646.208 2.186 2.656 3.936 6.246 8.916 11.406 13.976 16.846 22.056 25.416
665.498 19.706 13.526 11.156 8.916 6.676 4.546 3.096 2.416 2.246 2.336
684.787 2.496 2.546 2.846 3.096 3.166 3.436 3.566 3.606 3.876 4.036
704.077 4.126 4.516 4.756 4.866 5.196 5.356 5.416 5.826 6.226 6.446
723.367 6.756 6.946 7.136 7.156 7.016 7.146 7.116 7.086 7.246 7.806
742.657 8.656 9.836 11.906 14.626 18.196 22.766 28.366 35.126 42.756 50.426
761.947 57.056 62.166 64.836 64.076 60.196 53.696 45.586 37.466 30.526 25.436
781.236 22.326 20.686 20.126 20.446 21.256 22.146 22.756 23.286 23.916 24.826
800.526 26.046 27.626 30.206 34.006 38.616 43.886 49.256 53.506 56.276 56.966
819.816 55.346 51.846 46.186 39.136 32.026 25.916 21.616 18.726 17.016 16.796
839.106 17.826 20.106 24.036 29.026 34.346 39.686 45.406 51.416 55.556 52.046
858.395 41.866 34.556 30.006 25.036 20.676 17.746 15.116 12.166 10.056 8.656
877.685 7.426 6.166 5.186 4.766 4.596 4.296 4.136 4.346 4.626 4.646
896.975 4.506 4.356 4.346 4.236 4.026 4.066 4.146 4.276 4.346 4.266
916.265 4.346 4.176 3.906 3.806 3.506 3.056 2.656 2.396 2.226 2.006
935.555 1.716 1.666 1.616 1.429 1.4905 1.6036 1.646 1.5972 1.4941 1.4355
954.844 1.5009 1.473 1.3881 1.4546 1.4912 1.4678 1.4007 1.3605 1.1241 1.1401
974.134 1.3485 1.2789 1.0965 1.0484 1.2184 1.161 1.1772 1.1887 1.1818 1.4623
993.424 1.511 1.3487 1.4183 1.574 1.746 1.746 1.746 1.786 1.686 1.836
1012.714 1.716 1.3831 1.3569 1.3965 1.636 1.956 1.886 1.706 1.686 1.916
1032.003 1.786 1.2698 1.3828 1.746 1.906 2.046 1.916 1.846 1.836 1.656
1051.293 1.746 2.076 2.316 2.516 2.696 2.986 3.066 2.826 2.716 2.656
1070.583 2.766 2.906 3.366 4.126 4.866 5.646 6.286 6.956 7.226 7.236
1089.873 7.876 8.456 9.236 10.896 13.666 17.026 20.376 24.166 27.406 29.046
1109.163 28.206 25.366 21.916 16.336 9.776 5.646 3.516 2.456 1.656 1.1959
1128.452 1.3636 1.4537 1.4044 1.5243 1.5216 1.3128 1.3712 1.2293 1.217 1.5644
1147.742 1.3021 0.9092 0.9479 0.9998 0.9651 0.9209 0.7923 0.5749 0.8251 1.0001
1167.032 0.7909 0.9077 1.0023 1.1832 1.3365 1.2015 1.0862 0.9228 1.0196 1.1826
1186.322 1.0328 0.7862 1.0415 1.4039 1.5164 1.539 1.4192 1.1081 1.2115 1.5122
1205.611 1.4413 1.606 1.766 1.906 2.156 2.466 2.956 3.036 2.886 2.836
1224.901 2.746 2.686 2.456 2.076 1.636 1.561 1.796 1.916 1.826 1.776
1244.191 1.956 2.146 2.226 2.116 2.346 2.806 3.016 3.146 3.296 3.336
1263.481 3.046 2.746 2.606 2.136 1.706 1.5305 1.4228 1.4833 1.3903 1.4904
1282.771 1.5779 1.5416 1.4711 1.3669 1.4662 1.4372 1.4524 1.4206 1.4007 1.396
1302.060 1.2744 1.2575 1.3304 1.3876 1.4316 1.4019 1.3727 1.3513 1.3557 1.432
1321.350 1.4412 1.4085 1.4395 1.4469 1.3756 1.3416 1.2729 1.2865 1.3436 1.2922
1340.640 1.2642 1.2427 1.2154 1.2065 1.2357 1.2165 1.1822 1.2941 1.3948 1.4943
1359.930 1.756 2.086 2.556 3.186 4.016 5.146 6.486 7.906 9.386 10.896
1379.219 12.146 13.026 13.756 14.526 15.366 16.136 16.766 17.316 17.896 18.616
1398.509 19.546 20.776 22.476 24.846 27.766 30.846 33.956 36.876 39.436 41.696
1417.799 43.756 45.576 46.676 46.946 46.776 46.226 45.046 43.146 40.646 37.776
1437.089 34.576 31.116 27.286 23.156 19.166 15.726 13.056 11.056 9.436 8.076
1456.378 7.056 6.416 6.016 5.696 5.406 5.146 4.926 4.636 4.276 3.916
1475.668 3.656 3.416 3.146 2.896 2.666 2.466 2.416 2.466 2.506 2.636
1494.958 2.746 2.886 3.116 3.436 3.826 4.306 4.856 5.536 6.336 7.226
1514.248 8.216 9.116 10.006 10.796 11.506 12.036 12.336 12.516 12.536 12.456
1533.538 12.356 12.516 13.056 13.916 15.416 17.816 21.096 25.676 31.916 40.086
1552.827 50.596 63.726 79.186 96.856 115.806 134.476 152.216 168.336 183.096 197.076
1572.117 209.696 220.826 231.946 242.756 249.666 247.956 234.796 211.286 180.066 144.546
1591.407 109.146 78.616 56.316 41.966 32.846 26.736 22.536 19.536 17.356 15.706
1610.697 14.606 13.696 12.886 12.196 11.436 10.746 10.066 9.256 8.496 7.786
1629.986 7.106 6.486 5.946 5.446 4.996 4.656 4.466 4.366 4.326 4.206
1649.276 4.136 4.136 3.986 3.766 3.546 3.346 3.186 3.036 2.786 2.506
1668.566 2.346 2.316 2.266 2.206 2.126 2.006 1.916 1.846 1.826 1.846
1687.856 1.866 1.946 2.096 2.206 2.386 2.626 2.946 3.286 3.646 4.156
1707.146 4.576 4.966 5.416 5.726 5.946 6.126 6.236 6.316 6.346 6.326
1726.435 6.266 6.136 5.956 5.596 5.206 4.926 4.456 3.906 3.486 3.136
1745.725 2.866 2.666 2.526 2.526 2.576 2.656 2.766 2.796 2.736 2.726
1765.015 2.816 2.856 2.816 2.766 2.706 2.666 2.636 2.656 2.626 2.626
1784.305 2.656 2.706 2.806 2.866 3.006 3.206 3.376 3.556 3.746 3.926
1803.594 4.036 4.076 4.176 4.226 4.216 4.196 4.196 4.196 4.206 4.186
1822.884 4.206 4.216 4.166 4.146 4.196 4.226 4.186 4.136 4.096 4.066
1842.174 4.056 4.046 4.036 4.056 4.086 4.156 4.186 4.186 4.206 4.266
1861.464 4.336 4.366 4.476 4.626 4.706 4.856 5.066 5.236 5.436 5.686
1880.754 5.986 6.276 6.566 6.916 7.316 7.726 8.126 8.646 9.256 9.846
1900.043 10.556 11.346 12.186 13.076 14.106 15.166 16.296 17.596 19.006 20.526
1919.333 22.186 23.926 25.796 27.836 30.046 32.446 34.996 37.746 40.826 44.256
1938.623 48.036 52.126 56.516 61.296 66.396 71.766 77.376 83.106 89.066 95.256
1957.913 101.576 107.996 114.646 121.656 129.036 136.926 145.386 154.676 164.846 175.716
1977.202 187.216 199.466 212.106 224.646 236.496 246.566 254.176 258.996 260.906 260.226
1996.492 257.576 253.706 249.716 246.796 245.546 246.276 249.186 254.436 261.806 271.136
2015.782 282.506 296.216 312.216 329.896 348.806 367.556 383.966 395.576 399.486 395.346
2035.072 384.906 369.086 349.496 328.576 307.726 287.496 268.226 250.326 234.316 220.746
2054.362 210.166 203.216 200.296 201.416 206.276 214.236 224.206 235.346 246.516 256.416
2073.651 264.176 268.966 270.256 268.066 262.686 254.616 244.376 232.446 219.506 206.046
2092.941 192.406 178.946 166.176 154.576 144.266 135.346 127.906 121.846 116.966 113.186
2112.231 110.186 107.766 105.806 104.066 102.566 101.066 99.506 97.746 95.466 92.686
2131.521 89.276 85.226 80.576 75.436 70.126 64.706 59.336 54.196 49.316 44.826
2150.810 40.796 37.206 34.026 31.256 28.786 26.706 25.006 23.486 22.106 20.906
2170.100 19.806 18.826 17.926 17.066 16.186 15.326 14.566 13.836 13.156 12.506
2189.390 11.856 11.266 10.756 10.276 9.776 9.296 9.006 8.746 8.436 8.126
2208.680 7.886 7.746 7.626 7.516 7.526 7.496 7.456 7.426 7.516 7.676
2227.970 7.796 7.926 8.036 8.206 8.426 8.696 8.986 9.336 9.696 10.006
2247.259 10.326 10.666 11.006 11.226 11.376 11.496 11.406 11.126 10.656 10.006
2266.549 9.366 8.656 7.746 6.906 6.166 5.426 4.816 4.456 4.156 3.906
2285.839 3.726 3.556 3.386 3.316 3.236 3.066 2.956 2.836 2.746 2.636
2305.129 2.516 2.396 2.236 2.116 2.066 2.006 1.906 1.846 1.846 1.876
2324.418 1.886 1.876 1.886 1.896 1.906 1.896 1.956 1.986 2.006 2.136
2343.708 2.166 2.156 2.226 2.316 2.386 2.416 2.466 2.576 2.666 2.776
2362.998 2.866 2.866 2.906 2.946 2.936 2.906 2.896 2.976 2.986 3.006
2382.288 3.116 3.176 3.206 3.326 3.366 3.426 3.526 3.526 3.536 3.606
2401.578 3.726 3.776 3.746 3.716 3.706 3.646 3.576 3.566 3.626 3.636
2420.867 3.596 3.596 3.616 3.706 3.776 3.816 3.906 3.976 3.966 4.086
2440.157 4.146 4.036 3.926 3.816 3.806 3.866 3.746 3.566 3.526 3.426
2459.447 3.286 3.236 3.176 3.086 3.106 3.186 3.196 3.216 3.366 3.396
2478.737 3.426 3.596 3.746 3.826 3.856 3.966 4.146 4.186 4.186 4.166
2498.026 4.196 4.286 4.346 4.416 4.346 4.306 4.386 4.396 4.416 4.406
2517.316 4.346 4.306 4.336 4.346 4.376 4.416 4.416 4.456 4.476 4.446
2536.606 4.406 4.496 4.576 4.616 4.716 4.686 4.646 4.646 4.656 4.706
2555.896 4.676 4.616 4.716 4.926 5.076 5.226 5.536 5.796 6.126 6.416
2575.186 6.586 6.796 6.926 6.926 6.866 6.736 6.376 5.866 5.336 4.796
2594.475 4.326 3.876 3.476 3.056 2.736 2.526 2.366 2.226 2.056 1.976
2613.765 1.936 1.906 1.856 1.866 1.896 1.856 1.786 1.726 1.736 1.746
2633.055 1.746 1.736 1.756 1.686 1.5619 1.5634 1.5208 1.4037 1.4855 1.497
2652.345 1.4383 1.4634 1.4224 1.4144 1.3766 1.3578 1.3156 1.2925 1.3798 1.3474
2671.634 1.2908 1.2838 1.2979 1.2565 1.2288 1.3908 1.4096 1.3795 1.3381 1.3114
2690.924 1.3663 1.3084 1.2453 1.2611 1.2826 1.214 1.1894 1.1242 1.1128 1.1472
2710.214 1.1592 1.183 1.1987 1.3198 1.3037 1.3078 1.4417 1.5007 1.4748 1.4009
2729.504 1.444 1.5796 1.706 1.776 1.856 1.936 2.006 2.126 2.306 2.456
2748.794 2.446 2.416 2.566 2.676 2.696 2.796 2.886 2.976 2.996 2.996
2768.083 3.046 3.146 3.206 3.316 3.506 3.646 3.796 3.936 4.106 4.306
2787.373 4.456 4.636 4.816 5.036 5.326 5.536 5.656 5.706 5.676 5.566
2806.663 5.456 5.346 5.146 4.826 4.446 4.236 4.076 3.856 3.706 3.606
2825.953 3.486 3.456 3.406 3.276 3.226 3.216 3.256 3.276 3.166 3.086
2845.242 3.066 3.016 2.916 2.706 2.486 2.426 2.316 2.136 2.106 1.996
2864.532 1.736 1.636 1.5665 1.4314 1.4212 1.3375 1.2048 1.1704 1.1192 1.1455
2883.822 1.1324 1.0299 1.0672 1.0594 1.0286 1.0836 1.059 1.0757 1.109 1.1649
2903.112 1.3172 1.2895 1.083 1.0729 1.2478 1.2685 1.2213 1.2516 1.2802 1.2966
2922.401 1.306 1.3538 1.4074 1.3475 1.1983 1.1399 1.1675 1.1279 1.1124 1.2317
2941.691 1.309 1.2874 1.3107 1.2643 1.2064 1.1541 1.1299 1.1634 1.1856 1.2085
2960.981 1.3049 1.3297 1.27 1.2749 1.3669 1.4616 1.4704 1.5397 1.706 1.796
2980.271 1.666 1.5464 1.5654 1.5673 1.5013 1.4388 1.3966 1.277 1.2135 1.2681
2999.561 1.3066 1.2461 1.0712 1.0573 1.1656 1.148 1.1885 1.2524 1.2229 1.1112
3018.850 1.0365 0.957 0.9046 1.0054 1.0477 1.0228 1.0712 1.0779 1.0972 1.085
3038.140 1.0711 1.0857 1.0821 0.9885 0.9376 1.0076 0.8893 0.7999 0.8765 0.9001
3057.430 0.8926 0.8858 0.807 0.7286 0.608358 0.65279 0.9258 1.0187 0.9674 0.9937
3076.720 1.0139 1.1241 1.277 1.3605 1.5328 1.616 1.646 1.676 1.626 1.5522
3096.009 1.2638 1.0354 0.8109 0.66899 0.65852 0.512 0.59734 0.7125 0.55 0.486
3115.299 0.5573 0.486 0.546 0.65533 0.8058 1.0101 1.0259 1.0064 1.0517 1.135
3134.589 1.1016 1.0202 0.9415 0.8383 0.7824 0.7438 0.69608 0.67973 0.7567 0.7515
3153.879 0.7136 0.7312 0.64875 0.5751 0.5283 0.425 0.464 0.583 0.613718 0.5562
3173.169 0.485 0.434 0.456 0.396 0.25 0.244 0.314 0.282 0.052 0
3192.458 0.127 0.121 0.227 0.347 0.338 0.341 0.321 0.305 0.254 0.269
3211.748 0.307 0.145 0.04 0.061 0.087 0.243 0.336 0.292 0.241 0.206
3231.038 0.21 0.127 0.254 0.394 0.268 0.081 0.115 0.375 0.4 0.213
3250.328 0.314 0.418 0.194 0.216 0.225 0.28 0.446 0.393 0.327 0.345
3269.617 0.337 0.313 0.276 0.337 0.261 0.106 0.067 0.087 0.108 0.185
3288.907 0.355 0.356 0.279 0.205 0.194 0.283 0.467 0.457 0.388 0.334
3308.197 0.3 0.276 0.221 0.248 0.301 0.225 0.202 0.266 0.209 0.248
3327.487 0.294 0.41 0.407 0.218 0.144 0.049 0.075 0.262 0.306 0.187
3346.777 0.18 0.308 0.342 0.309 0.209 0.214 0.323 0.22 0.305 0.41
3366.066 0.344 0.278 0.239 0.386 0.41 0.346 0.307 0.461 0.468 0.272
3385.356 0.223 0.249 0.259 0.433 0.5818 0.392 0.342 0.441 0.5432 0.468
3404.646 0.412 0.434 0.375 0.499 0.486 0.403 0.274 0.234 0.292 0.301
3423.936 0.425 0.5372 0.5759 0.471 0.416 0.41 0.364 0.423 0.5093 0.483
3443.225 0.417 0.376 0.274 0.188 0.254 0.441 0.315 0.222 0.438 0.449
3462.515 0.41 0.431 0.463 0.5325 0.5955 0.5786 0.505 0.366 0.408 0.5416
3481.805 0.539 0.435 0.489 0.493 0.391 0.35 0.39 0.5479 0.5345 0.55
3501.095 0.487 0.481 0.584 0.5217 0.493 0.491 0.5464 0.61697 0.477 0.382
3520.385 0.437 0.5172 0.444 0.418 0.426 0.293 0.391 0.457 0.367 0.308
3539.674 0.344 0.348 0.438 0.5155 0.5784 0.6339 0.491 0.5089 0.61771 0.465
3558.964 0.391 0.5482 0.462 0.383 0.476 0.49 0.39 0.394 0.373 0.373
3578.254 0.459 0.5933 0.615221 0.453 0.386 0.394 0.375 0.427 0.5871 0.5309
3597.544 0.415 0.425 0.465 0.5519 0.477 0.341 0.372 0.4 0.445 0.473
3616.833 0.435 0.336 0.374 0.395 0.278 0.231 0.299 0.365 0.394 0.352
3636.123 0.32 0.374 0.5106 0.5934 0.5284 0.5801 0.605633 0.489 0.353 0.437
3655.413 0.454 0.443 0.454 0.371 0.358 0.345 0.5467 0.60012 0.498 0.615451
3674.703 0.5937 0.5614 0.48 0.451 0.606674 0.504 0.49 0.5596 0.5743 0.6284
3693.993 0.499 0.415 0.5527 0.606595 0.5545 0.495 0.412 0.5601 0.63263 0.60422
3713.282 0.66943 0.5288 0.421 0.417 0.321 0.381 0.426 0.413 0.5566 0.6906
3732.572 0.6499 0.5751 0.5238 0.5663 0.532 0.45 0.5743 0.65534 0.5404 0.5726
3751.862 0.7763 0.68869 0.5211 0.5218 0.65127 0.701 0.64834 0.391 0.363 0.5606
3771.152 0.64022 0.7315 0.7764 0.64887 0.491 0.496 0.5578 0.7854 0.8621 0.68383
3790.441 0.5357 0.5608 0.7259 0.804 0.7616 0.7066 0.7163 0.7781 0.7873 0.7959
3809.731 0.9072 0.9024 0.789 0.7356 0.7897 0.839 0.7061 0.7422 0.7565 0.66722
3829.021 0.65724 0.7336 0.8035 0.8399 0.7899 0.7487 0.8738 0.8699 0.7634 0.7776
3848.311 0.8218 0.823 0.9611 1.0541 0.8726 0.8476 0.8214 0.7993 0.8236 0.8101
3867.601 1.0216 1.0903 1.0325 0.9251 0.974 1.1134 1.0416 0.9217 1.0886 1.3682
3886.890 1.3495 1.2196 1.2534 1.361 1.2914 1.1115 1.0702 1.1862 1.3394 1.3952
3906.180 1.4079 1.4814 1.4415 1.3258 1.5025 1.626 1.4242 1.3774 1.6016 1.776
3925.470 1.676 1.636 1.666 1.5348 1.626 1.706 1.646 1.676 1.616 1.686
3944.760 1.836 1.766 1.616 1.666 1.846 1.906 1.836 1.886 1.926 1.936
3964.049 1.966 1.936 1.866 1.976 2.046 1.896 1.906 2.036 1.976 1.836
3983.339 1.946 1.956 1.956 2.056 2.106 2.106 2.106 2.056 1.996 2.086
##END=
