##TITLE=Dicamba, methyl ester
##JCAMP-DX=4.24
##DATA TYPE=INFRARED SPECTRUM
##ORIGIN=NIST Mass Spectrometry Data Center
##OWNER=NIST Standard Reference Data Program
Collection (C) 2018 copyright by the U.S. Secretary of Commerce
on behalf of the United States of America. All rights reserved.
##CAS REGISTRY NO=6597-78-0
##MOLFORM=C 9 H 8 Cl 2 O 3
##SOURCE REFERENCE=No.290178 (NIST/EPA/NIH MS Database)
##$NIST SOURCE=MSDC-IR
##SPECTROMETER/DATA SYSTEM=HP-GC/MS/IRD
##STATE=gas
##XUNITS=1/CM
##YUNITS=ABSORBANCE
##XFACTOR=1.0
##YFACTOR=0.000027500
##DELTAX=4.0
##FIRSTX=550.0
##LASTX=3846.0
##FIRSTY=0.002035
##MAXX=3846
##MINX=550
##MAXY=0.275
##MINY=0
##NPOINTS=825
##XYDATA=(X++(Y..Y))
550.0 74 106 89 119 161 239 361 494 590 634
590.0 639 636 618 563 483 413 363 319 272 224
630.0 190 174 165 147 120 91 65 43 30 20
670.0 17 14 9 8 5 4 3 3 8 17
710.0 39 95 204 345 445 455 381 280 194 131
750.0 100 100 129 188 265 334 372 372 339 306
790.0 318 469 744 1112 1296 1017 655 366 186 122
830.0 110 143 222 348 489 572 539 424 324 308
870.0 382 510 614 616 498 336 208 135 105 92
910.0 83 76 74 73 75 80 91 104 123 155
950.0 203 288 425 631 912 1213 1419 1414 1192 895
990.0 705 716 929 1368 2079 3008 3845 4136 3672 2687
1030.0 1673 984 632 465 385 346 330 329 342 361
1070.0 389 426 472 544 664 844 1089 1389 1712 2001
1110.0 2181 2183 1986 1662 1332 1073 875 712 603 567
1150.0 609 733 970 1401 2077 2816 3212 3028 2415 1792
1190.0 1421 1231 1108 1023 977 967 999 1100 1302 1630
1230.0 2046 2439 2706 2864 3097 3628 4605 6054 7815 9373
1270.0 10000 9292 7529 5488 3811 2656 1902 1407 1080 868
1310.0 729 640 581 541 509 478 444 411 386 375
1350.0 377 390 412 440 474 517 592 731 990 1433
1390.0 2070 2739 3134 2997 2362 1598 1094 933 1041 1406
1430.0 1921 2339 2505 2412 2278 2272 2421 2748 2954 2738
1470.0 2121 1389 886 633 505 432 380 343 311 282
1510.0 255 234 216 204 196 196 203 218 250 304
1550.0 393 531 729 969 1184 1319 1321 1189 959 697
1590.0 483 353 289 258 243 228 209 181 155 138
1630.0 128 120 113 109 108 108 111 113 114 113
1670.0 110 107 106 112 125 146 172 208 259 331
1710.0 418 498 553 588 625 706 889 1248 1925 3023
1750.0 4492 5939 6582 6124 4938 3428 2104 1243 775 584
1790.0 525 497 450 379 307 255 220 192 165 136
1830.0 111 94 83 79 78 81 86 96 110 126
1870.0 140 142 129 111 93 83 78 71 62 52
1910.0 43 37 35 36 39 45 51 57 62 65
1950.0 65 62 57 50 43 36 33 31 30 30
1990.0 29 29 30 30 34 38 43 47 51 53
2030.0 54 52 49 45 41 37 35 34 32 34
2070.0 37 40 42 45 46 47 46 45 47 50
2110.0 53 57 57 53 49 44 41 39 37 35
2150.0 33 28 24 19 13 10 9 7 5 4
2190.0 4 3 2 3 2 1 1 2 1 0
2230.0 0 2 2 3 4 7 8 10 11 13
2270.0 14 15 16 15 12 10 7 6 6 5
2310.0 4 5 6 6 5 7 9 11 12 11
2350.0 10 10 8 7 8 9 9 10 9 8
2390.0 7 8 7 9 10 9 10 9 7 6
2430.0 7 8 7 8 8 9 10 10 10 11
2470.0 11 13 14 16 18 22 23 25 26 26
2510.0 25 22 18 17 15 14 13 11 9 7
2550.0 5 3 3 5 6 7 7 8 10 11
2590.0 12 13 14 15 15 14 15 15 14 13
2630.0 13 14 14 16 17 18 17 18 17 17
2670.0 16 15 14 13 11 12 11 12 11 12
2710.0 11 10 10 12 13 12 12 13 12 12
2750.0 11 10 10 9 9 12 17 19 22 27
2790.0 32 39 46 52 59 67 78 94 114 140
2830.0 173 210 250 289 316 325 313 292 281 293
2870.0 322 355 375 374 360 342 332 331 332 334
2910.0 340 343 343 341 342 357 402 501 680 956
2950.0 1319 1692 1900 1812 1471 1039 719 564 499 467
2990.0 453 460 486 517 540 547 533 504 464 426
3030.0 395 368 336 299 260 229 205 187 177 171
3070.0 171 169 167 163 155 144 132 118 106 96
3110.0 89 82 74 68 62 56 49 43 40 37
3150.0 31 27 25 22 20 19 16 14 13 13
3190.0 14 13 12 10 9 7 7 5 3 3
3230.0 3 3 2 1 1 2 1 0 0 1
3270.0 1 0 0 1 0 0 0 0 0 1
3310.0 0 2 3 2 3 2 3 4 3 1
3350.0 0 1 3 2 3 3 2 2 3 4
3390.0 4 3 2 2 4 5 5 6 7 6
3430.0 7 6 5 7 9 9 10 10 11 15
3470.0 16 21 30 39 50 57 58 56 53 50
3510.0 49 46 39 34 28 24 19 18 15 12
3550.0 12 10 9 8 6 6 6 6 6 4
3590.0 6 6 4 3 5 5 4 3 3 5
3630.0 4 4 5 5 4 5 6 8 7 4
3670.0 6 6 5 5 6 5 4 6 6 4
3710.0 6 7 6 6 7 7 6 4 4 5
3750.0 5 4 5 8 9 9 7 7 9 9
3790.0 9 10 11 10 11 11 9 8 8 9
3830.0 8 10 10 8 10
##END=
