##TITLE=2-Naphthaldehyde
##JCAMP-DX=4.24
##DATA TYPE=INFRARED SPECTRUM
##ORIGIN=NIST Mass Spectrometry Data Center
##OWNER=NIST Standard Reference Data Program
Collection (C) 2018 copyright by the U.S. Secretary of Commerce
on behalf of the United States of America. All rights reserved.
##CAS REGISTRY NO=66-99-9
##MOLFORM=C 11 H 8 O
##$NIST SOURCE=MSDC-IR
##SPECTROMETER/DATA SYSTEM=HP-GC/MS/IRD
##STATE=gas
##XUNITS=1/CM
##YUNITS=ABSORBANCE
##XFACTOR=1.0
##YFACTOR=0.000006900
##DELTAX=4.0
##FIRSTX=550.0
##LASTX=3846.0
##FIRSTY=0.000138
##MAXX=3846
##MINX=550
##MAXY=0.069
##MINY=0
##NPOINTS=825
##XYDATA=(X++(Y..Y))
550.0 20 33 35 66 98 120 143 147 126 98
590.0 88 101 117 131 137 128 100 77 69 56
630.0 44 42 32 18 16 20 20 14 6 2
670.0 5 15 23 30 33 28 25 34 44 54
710.0 95 177 321 576 910 1230 1499 1820 1836 1569
750.0 1425 1260 1061 897 748 638 583 563 553 547
790.0 564 584 657 814 1047 1201 1226 1131 900 688
830.0 518 403 377 429 512 637 718 639 530 455
870.0 398 366 351 343 324 307 283 267 313 374
910.0 368 339 289 186 116 91 82 84 97 120
950.0 129 125 140 151 137 123 111 84 72 77
990.0 84 98 103 93 91 112 147 154 141 119
1030.0 77 41 29 21 12 12 21 25 26 27
1070.0 30 32 39 47 52 74 108 163 271 481
1110.0 823 1155 1296 1250 983 626 422 375 456 641
1150.0 820 992 1212 1357 1270 1101 836 453 229 183
1190.0 207 259 319 373 396 376 335 281 215 184
1230.0 191 210 239 273 346 451 532 585 598 525
1270.0 447 390 295 184 115 68 40 33 33 37
1310.0 42 51 67 93 133 208 350 571 754 834
1350.0 829 686 493 363 309 295 280 255 235 213
1390.0 194 188 174 153 117 75 57 52 59 81
1430.0 114 147 170 184 194 225 296 391 456 467
1470.0 418 323 228 158 113 88 77 84 102 112
1510.0 114 107 90 72 63 64 69 75 81 89
1550.0 95 100 108 127 154 191 235 275 308 339
1590.0 385 431 454 439 390 349 378 510 697 833
1630.0 854 757 577 395 283 237 221 219 226 250
1670.0 292 345 406 484 580 726 993 1474 2427 4272
1710.0 7049 9334 10000 9091 6488 3528 1824 1101 731 511
1750.0 391 329 294 267 238 210 195 194 197 201
1790.0 205 197 181 160 139 121 111 107 105 98
1830.0 91 79 67 62 66 75 82 87 89 85
1870.0 81 80 81 91 107 116 120 124 115 107
1910.0 109 109 107 103 106 104 105 114 118 119
1950.0 112 93 68 44 30 25 20 16 17 20
1990.0 21 21 22 23 22 21 20 18 19 18
2030.0 16 18 19 17 19 20 19 17 15 14
2070.0 10 11 15 16 16 16 17 20 22 23
2110.0 20 17 15 18 17 14 15 14 10 10
2150.0 12 10 6 4 5 3 0 0 1 2
2190.0 0 3 6 5 5 6 6 9 7 3
2230.0 6 6 4 6 6 7 10 13 16 18
2270.0 24 31 35 37 38 37 38 37 35 32
2310.0 27 24 22 17 15 13 10 10 10 9
2350.0 6 8 8 11 12 11 14 20 21 17
2390.0 18 18 16 15 14 15 18 19 20 22
2430.0 19 17 17 17 13 13 10 10 11 15
2470.0 16 14 12 12 14 17 22 23 22 24
2510.0 28 26 23 25 22 19 23 23 23 24
2550.0 25 28 32 32 29 27 28 33 37 36
2590.0 33 35 36 35 35 37 40 45 46 46
2630.0 47 51 61 66 69 71 76 87 102 115
2670.0 129 150 181 222 271 336 423 530 651 774
2710.0 892 982 996 939 834 698 579 510 488 503
2750.0 537 572 588 568 531 489 452 447 467 503
2790.0 562 659 811 1003 1174 1276 1253 1092 861 646
2830.0 490 380 302 240 195 161 138 121 108 105
2870.0 105 105 104 103 105 103 97 84 77 75
2910.0 67 63 62 60 61 69 76 86 96 103
2950.0 109 115 120 127 129 129 135 133 129 129
2990.0 125 132 151 166 189 226 266 298 322 339
3030.0 343 348 368 420 524 692 918 1170 1358 1440
3070.0 1414 1264 1018 773 582 437 330 249 189 146
3110.0 112 90 76 65 58 52 45 39 37 35
3150.0 38 42 43 42 36 31 30 30 23 20
3190.0 20 23 22 20 23 22 25 28 29 29
3230.0 29 26 23 21 17 18 24 28 27 19
3270.0 14 19 18 15 16 16 18 22 22 20
3310.0 20 23 22 17 14 20 28 27 27 24
3350.0 20 17 19 21 25 22 20 28 35 35
3390.0 41 49 59 82 116 145 158 159 140 113
3430.0 83 68 65 54 40 36 31 28 24 22
3470.0 17 12 18 19 18 18 18 15 5 3
3510.0 12 19 23 21 15 10 16 14 19 28
3550.0 19 13 18 22 22 19 19 19 11 11
3590.0 19 17 16 20 21 17 15 14 11 13
3630.0 13 16 22 22 18 13 22 21 17 23
3670.0 23 20 21 20 17 16 19 20 18 16
3710.0 16 15 19 18 11 11 22 20 13 15
3750.0 20 22 23 22 13 11 18 19 20 16
3790.0 19 25 27 27 27 24 12 12 20 19
3830.0 17 18 23 24 24
##END=
