##TITLE=2-(Methylthio)benzonitrile
##JCAMP-DX=4.24
##DATA TYPE=INFRARED SPECTRUM
##ORIGIN=EPA-IR VAPOR PHASE LIBRARY
##OWNER=SRD/NIST
Collection (C) 2018 copyright by the U.S. Secretary of Commerce
on behalf of the United States of America. All rights reserved.
##CAS REGISTRY NO=6609-54-7
##MOLFORM=C 8 H 7 N S
##$NIST SOURCE=MSDC-IR
##STATE=gas
##XUNITS=1/CM
##YUNITS=ABSORBANCE
##XFACTOR=1.
##YFACTOR=0.001
##DELTAX=1.92934
##FIRSTX=549.9
##LASTX=3999.5
##FIRSTY=1.2737
##MAXX=3999.53
##MINX=549.863
##MAXY=0.012083
##MINY=0
##NPOINTS=1789
##XYDATA=(X++(Y..Y))
549.863 1.2737 1.2999 1.4786 1.555 1.4467 1.2951 1.2453 1.1436 1.1258 1.1354
569.156 1.1252 1.1139 1.0657 0.9634 0.9113 0.9799 0.9492 0.9262 0.8408 0.6854
588.450 0.743 0.852 0.72553 0.74847 0.8599 0.7961 0.7621 0.7696 0.8078 0.8484
607.743 0.8419 0.8801 0.864 0.7608 0.73052 0.72961 0.7445 0.7552 0.74189 0.72485
627.037 0.74406 0.7607 0.73976 0.72757 0.71083 0.71603 0.70408 0.7166 0.73464 0.68642
646.330 0.6875 0.7678 0.8245 0.794 0.7673 0.8253 0.9343 1.0922 1.1714 1.1817
665.624 1.2706 1.3686 1.3816 1.362 1.3643 1.4051 1.4523 1.3559 1.1208 0.958
684.917 0.8691 0.8439 0.8505 0.8986 0.9022 0.8478 0.8668 0.8847 0.9537 1.0361
704.210 1.0417 1.0023 1.0624 1.1326 1.1108 1.1367 1.2105 1.2727 1.3231 1.3315
723.504 1.3568 1.4436 1.5604 1.733 2.013 2.453 2.993 3.673 4.483 5.283
742.797 6.093 7.063 8.403 9.833 10.653 11.413 12.083 11.293 9.193 7.473
762.091 6.643 6.013 5.283 4.403 3.563 2.833 2.263 1.863 1.6183 1.4423
781.384 1.2962 1.2153 1.1324 1.0832 1.0342 0.9692 0.9337 0.8484 0.8529 0.8611
800.678 0.7856 0.7215 0.6777 0.73974 0.765 0.70354 0.70146 0.6772 0.68419 0.7561
819.971 0.7978 0.8016 0.7786 0.807 0.8582 0.8229 0.7715 0.7859 0.7621 0.72915
839.264 0.7287 0.71706 0.7621 0.7562 0.74891 0.803 0.8003 0.7865 0.7786 0.7542
858.558 0.7544 0.8001 0.7981 0.7977 0.8024 0.7591 0.7585 0.7656 0.7653 0.74539
877.851 0.72207 0.74064 0.74486 0.70923 0.70307 0.71528 0.68998 0.67132 0.6726 0.6997
897.145 0.74801 0.7722 0.7518 0.7632 0.7725 0.7808 0.8089 0.8379 0.8918 0.896
916.438 0.8775 0.9068 0.9235 0.938 0.9336 0.9429 0.9589 0.9484 0.9728 1.0066
935.732 1.0432 1.0871 1.0921 1.083 1.1071 1.1643 1.2391 1.2807 1.3244 1.3419
955.025 1.3333 1.402 1.4439 1.4935 1.59 1.6276 1.683 1.723 1.723 1.733
974.318 1.703 1.6268 1.5675 1.4717 1.3894 1.2892 1.1866 1.1295 1.0655 0.9878
993.612 0.9334 0.8937 0.8692 0.8748 0.8795 0.8588 0.8538 0.8935 0.916 0.9525
1012.905 1.0109 1.0474 1.0909 1.1126 1.1925 1.2733 1.2688 1.3273 1.4127 1.4615
1032.199 1.4919 1.4844 1.4889 1.4919 1.4552 1.4072 1.3607 1.2971 1.2405 1.2741
1051.492 1.3415 1.3979 1.4582 1.5534 1.703 1.823 1.943 2.013 2.043 2.023
1070.786 2.013 1.983 1.873 1.713 1.5471 1.3534 1.169 1.012 0.8708 0.8089
1090.079 0.7611 0.7583 0.7742 0.71197 0.68135 0.73277 0.7724 0.7286 0.70358 0.6446
1109.372 0.5582 0.6262 0.69978 0.69084 0.7191 0.8036 0.9315 0.9967 1.0446 1.1048
1128.666 1.1074 1.105 1.005 0.9656 1.0527 0.9364 0.771 0.72593 0.69593 0.71819
1147.959 0.66746 0.5788 0.5685 0.5567 0.5805 0.7369 0.7604 0.6387 0.6254 0.660218
1167.253 0.71634 0.7832 0.73857 0.6033 0.503 0.54 0.592 0.5857 0.5862 0.575
1186.546 0.466 0.443 0.46 0.438 0.521 0.473 0.289 0.2 0.155 0.153
1205.840 0.44 0.471 0.174 0 0.045 0.237 0.261 0.256 0.313 0.404
1225.133 0.46 0.358 0.424 0.6011 0.68113 0.6766 0.551 0.525 0.531 0.545
1244.426 0.66942 0.72083 0.8366 1.0222 1.1522 1.2534 1.2886 1.3599 1.4952 1.5069
1263.720 1.4588 1.4767 1.4676 1.4472 1.3965 1.3064 1.2065 1.137 1.0766 0.9884
1283.013 0.8826 0.8572 0.8922 0.74769 0.6404 0.68856 0.72502 0.74377 0.72093 0.68121
1302.307 0.7605 0.8458 0.8847 0.9139 0.9319 0.9881 1.0775 1.1682 1.2064 1.2176
1321.600 1.2659 1.3155 1.2721 1.2267 1.2142 1.198 1.1318 0.9901 0.892 0.8622
1340.894 0.7963 0.74954 0.72454 0.70501 0.71193 0.69513 0.67974 0.68628 0.69019 0.68724
1360.187 0.72465 0.74534 0.70496 0.70671 0.69414 0.66841 0.6978 0.69521 0.66434 0.662
1379.480 0.69965 0.72388 0.71068 0.70902 0.73079 0.74341 0.7694 0.8176 0.838 0.8827
1398.774 0.9499 0.9727 1.0148 1.0979 1.1917 1.2754 1.3726 1.5213 1.683 1.893
1418.067 2.143 2.423 2.723 3.093 3.503 3.813 4.103 4.343 4.533 4.693
1437.361 4.743 4.663 4.543 4.383 4.193 4.013 3.883 3.813 3.793 3.833
1456.654 3.983 4.183 4.383 4.533 4.593 4.573 4.473 4.283 4.023 3.693
1475.948 3.313 2.813 2.243 1.763 1.4429 1.2384 1.1085 1.023 0.9531 0.8876
1495.241 0.8596 0.8718 0.8707 0.8934 0.895 0.8658 0.879 0.8718 0.8485 0.8376
1514.534 0.8073 0.8027 0.7996 0.74247 0.72096 0.70643 0.71737 0.7086 0.653612 0.659716
1533.828 0.72341 0.72556 0.71976 0.7605 0.7748 0.7556 0.72613 0.73349 0.7891 0.833
1553.121 0.8288 0.836 0.8826 0.9425 0.9675 0.9927 1.0381 1.1199 1.2158 1.2794
1572.415 1.3837 1.4877 1.5866 1.753 1.893 1.973 2.023 2.053 2.073 2.023
1591.708 1.913 1.803 1.673 1.5313 1.3702 1.1837 1.0356 0.9438 0.919 0.9253
1611.002 0.9136 0.9064 0.8847 0.8472 0.8751 0.9054 0.8585 0.8388 0.7964 0.7668
1630.295 0.8008 0.7679 0.72492 0.71232 0.71763 0.69244 0.64484 0.635 0.6004 0.5829
1649.588 0.615 0.5964 0.5807 0.5717 0.5549 0.5568 0.537 0.5686 0.5849 0.5912
1668.882 0.6245 0.5987 0.532 0.543 0.5553 0.5586 0.6166 0.6269 0.6103 0.660032
1688.175 0.6951 0.68604 0.69691 0.71577 0.7707 0.7634 0.72688 0.7619 0.7757 0.73314
1707.469 0.70752 0.68554 0.67231 0.68612 0.6754 0.656009 0.6275 0.58 0.5624 0.5607
1726.762 0.574 0.6038 0.59 0.5924 0.6052 0.5876 0.5695 0.553 0.5628 0.549
1746.056 0.546 0.545 0.55 0.5688 0.526 0.516 0.545 0.546 0.517 0.511
1765.349 0.552 0.5866 0.546 0.5 0.514 0.528 0.516 0.498 0.505 0.5565
1784.642 0.5854 0.5819 0.5761 0.5816 0.6303 0.6061 0.5861 0.64831 0.70161 0.73165
1803.936 0.69367 0.64526 0.6458 0.661239 0.67106 0.70254 0.69635 0.674 0.72298 0.74479
1823.229 0.72249 0.71433 0.69044 0.6242 0.6326 0.66452 0.6634 0.657513 0.657716 0.653336
1842.523 0.65071 0.655167 0.6243 0.6248 0.6267 0.6294 0.6348 0.6224 0.5981 0.5745
1861.816 0.549 0.528 0.543 0.55 0.531 0.51 0.543 0.5545 0.5581 0.5664
1881.110 0.5856 0.6179 0.5973 0.6142 0.6309 0.6417 0.64898 0.65138 0.6659 0.69556
1900.403 0.69275 0.68245 0.6897 0.67763 0.69821 0.73976 0.7548 0.74886 0.7756 0.774
1919.696 0.775 0.8232 0.8193 0.8018 0.8207 0.819 0.8049 0.8149 0.8053 0.7903
1938.990 0.7841 0.7702 0.7802 0.7906 0.74712 0.71104 0.7686 0.7926 0.7856 0.7713
1958.283 0.74911 0.74447 0.74055 0.75223 0.73448 0.70959 0.67733 0.6206 0.579 0.5767
1977.577 0.5635 0.546 0.527 0.529 0.543 0.535 0.545 0.5594 0.59 0.5974
1996.870 0.551 0.536 0.5704 0.539 0.497 0.531 0.5625 0.5654 0.542 0.519
2016.164 0.521 0.525 0.546 0.546 0.533 0.5566 0.542 0.529 0.5808 0.5917
2035.457 0.5628 0.5877 0.6099 0.579 0.539 0.544 0.571 0.5565 0.537 0.542
2054.750 0.536 0.524 0.536 0.5542 0.56 0.5737 0.5873 0.5739 0.5714 0.5703
2074.044 0.545 0.552 0.5718 0.5575 0.525 0.541 0.5797 0.5819 0.549 0.5626
2093.337 0.5867 0.5752 0.553 0.54 0.54 0.5536 0.5782 0.556 0.535 0.539
2112.631 0.539 0.555 0.551 0.55 0.5621 0.527 0.519 0.5595 0.589 0.5871
2131.924 0.5621 0.547 0.537 0.5813 0.6023 0.5731 0.5821 0.6034 0.6007 0.5955
2151.218 0.6041 0.5837 0.551 0.5632 0.5831 0.564 0.5585 0.555 0.5564 0.5726
2170.511 0.5929 0.6066 0.6245 0.6329 0.6112 0.5783 0.5593 0.55 0.5679 0.6043
2189.804 0.5931 0.5882 0.5926 0.6092 0.6292 0.623 0.6134 0.6298 0.68088 0.72928
2209.098 0.7644 0.791 0.8531 0.9163 1.0089 1.1137 1.1763 1.2278 1.2958 1.3392
2228.391 1.3351 1.3415 1.3176 1.2729 1.2384 1.1802 1.0942 0.9832 0.887 0.8375
2247.685 0.8037 0.7696 0.72996 0.73959 0.72376 0.68467 0.68659 0.67288 0.67265 0.67252
2266.978 0.64715 0.6392 0.67012 0.68927 0.69614 0.68401 0.69721 0.69357 0.662499 0.653032
2286.272 0.655025 0.6837 0.67912 0.661301 0.66548 0.65331 0.64462 0.66411 0.659532 0.653176
2305.565 0.6382 0.6185 0.627 0.6291 0.662809 0.68098 0.66703 0.6774 0.67346 0.69232
2324.858 0.71097 0.68144 0.65105 0.65047 0.6655 0.66518 0.64784 0.631 0.6151 0.6199
2344.152 0.611 0.5928 0.6143 0.6307 0.6202 0.6228 0.64573 0.655751 0.6052 0.5799
2363.445 0.6255 0.634 0.6122 0.6274 0.65004 0.66703 0.66676 0.6301 0.6118 0.6175
2382.739 0.5948 0.5767 0.6033 0.64895 0.658981 0.6272 0.6153 0.6155 0.6178 0.64941
2402.032 0.67518 0.6383 0.6135 0.6221 0.6312 0.6353 0.6204 0.6424 0.64579 0.6285
2421.326 0.6321 0.6375 0.6332 0.6247 0.6095 0.6126 0.6248 0.6284 0.6178 0.595
2440.619 0.6069 0.6095 0.5912 0.582 0.5819 0.5794 0.5794 0.5724 0.5807 0.6365
2459.912 0.67238 0.6309 0.5997 0.6236 0.65162 0.657855 0.6334 0.62 0.6194 0.6185
2479.206 0.6373 0.6138 0.6202 0.6324 0.6181 0.6114 0.5876 0.6019 0.6233 0.5961
2498.499 0.5649 0.574 0.5856 0.5939 0.6246 0.6348 0.64366 0.659765 0.64486 0.629
2517.793 0.6055 0.595 0.64716 0.67413 0.68459 0.69052 0.6379 0.6194 0.6384 0.6419
2537.086 0.64839 0.66623 0.67422 0.6754 0.68015 0.67994 0.67511 0.67452 0.6345 0.6217
2556.380 0.652112 0.657859 0.64412 0.6266 0.6559 0.67339 0.66413 0.64861 0.6298 0.6423
2575.673 0.65321 0.66934 0.66997 0.643 0.6435 0.64637 0.660494 0.67552 0.6417 0.6127
2594.966 0.6277 0.654777 0.6672 0.661936 0.68372 0.68725 0.69657 0.68865 0.661408 0.67013
2614.260 0.66752 0.659425 0.67711 0.69222 0.67405 0.6904 0.7098 0.70797 0.67976 0.66688
2633.553 0.6648 0.6394 0.64939 0.69053 0.69901 0.69011 0.70707 0.70948 0.70897 0.70842
2652.847 0.69643 0.70621 0.71477 0.69693 0.70413 0.67227 0.64956 0.68308 0.67118 0.660607
2672.140 0.66569 0.68088 0.70076 0.653858 0.65401 0.68858 0.69152 0.70122 0.71993 0.73039
2691.434 0.69106 0.67569 0.71687 0.73591 0.6881 0.67644 0.7049 0.72675 0.71903 0.6766
2710.727 0.64645 0.661849 0.69689 0.71952 0.72398 0.66602 0.67013 0.72743 0.71287 0.7118
2730.020 0.73217 0.70484 0.6792 0.71781 0.71875 0.69551 0.73242 0.75228 0.72502 0.71689
2749.314 0.71367 0.69529 0.71896 0.74385 0.7716 0.776 0.72591 0.71525 0.72261 0.7275
2768.607 0.74707 0.74994 0.70617 0.69795 0.7557 0.7866 0.7733 0.755 0.764 0.7552
2787.901 0.75008 0.7682 0.7891 0.8027 0.73771 0.73165 0.72711 0.68812 0.73946 0.72913
2807.194 0.70191 0.74851 0.8482 0.8411 0.7628 0.7877 0.8497 0.8565 0.8262 0.8797
2826.488 0.8647 0.8714 0.9199 0.9799 0.9725 0.9326 1.0436 1.1517 1.1971 1.1845
2845.781 1.2026 1.247 1.2366 1.2615 1.2357 1.1349 1.1255 1.1162 1.0804 1.1041
2865.074 1.1026 1.059 0.9829 0.9755 1.0323 1.0419 1.0102 0.9406 0.9554 0.9813
2884.368 0.9903 0.9696 0.9358 1.0014 1.0563 1.0131 1.0384 1.0456 0.9622 0.9789
2903.661 1.0459 1.0995 1.2126 1.2957 1.2529 1.2331 1.3893 1.5337 1.673 1.813
2922.955 2.053 2.363 2.643 2.943 3.223 3.453 3.483 3.483 3.513 3.403
2942.248 3.283 3.083 2.753 2.453 2.163 1.863 1.663 1.5548 1.4419 1.3908
2961.542 1.3095 1.2184 1.1706 1.2283 1.254 1.216 1.2215 1.1598 1.1805 1.2353
2980.835 1.264 1.2388 1.2462 1.3644 1.4619 1.5811 1.5555 1.5194 1.5669 1.6491
3000.128 1.723 1.723 1.683 1.6352 1.5764 1.5263 1.5245 1.4679 1.3885 1.3825
3019.422 1.4508 1.377 1.274 1.3047 1.2735 1.1956 1.1932 1.1809 1.0935 1.0758
3038.715 1.1671 1.2928 1.2967 1.217 1.2914 1.3975 1.4745 1.5535 1.743 2.013
3058.009 2.133 2.183 2.393 2.633 2.763 2.933 3.163 3.253 3.243 3.193
3077.302 3.153 3.063 2.913 2.713 2.523 2.403 2.263 2.023 1.883 1.873
3096.596 1.773 1.673 1.5235 1.4472 1.4266 1.3182 1.329 1.387 1.3881 1.3274
3115.889 1.2016 1.1365 1.139 1.2128 1.2763 1.2547 1.17 1.0733 1.0046 1.047
3135.182 1.0463 0.9407 0.9247 0.9476 0.8797 0.8333 0.9065 0.9135 0.9012 0.889
3154.476 0.8726 0.8395 0.8506 0.88 0.8696 0.8106 0.72405 0.69745 0.6234 0.6373
3173.769 0.74325 0.8 0.7715 0.7107 0.69028 0.73305 0.8023 0.8121 0.8322 0.7992
3193.063 0.7597 0.72517 0.6261 0.6316 0.69469 0.72036 0.8076 0.7819 0.73239 0.72734
3212.356 0.6297 0.66284 0.73154 0.7641 0.7173 0.659376 0.654132 0.66614 0.5972 0.534
3231.650 0.68395 0.73159 0.74096 0.8444 0.7814 0.69391 0.70047 0.70177 0.7909 0.72899
3250.943 0.64609 0.64612 0.6395 0.763 0.8008 0.75083 0.6348 0.5673 0.5811 0.6347
3270.236 0.72099 0.81 0.7963 0.70537 0.5992 0.5821 0.6362 0.6125 0.6195 0.7026
3289.530 0.72796 0.69831 0.75039 0.7583 0.73256 0.73556 0.73599 0.584 0.548 0.70752
3308.823 0.70317 0.73434 0.73939 0.70081 0.71045 0.68781 0.7542 0.7661 0.64574 0.5589
3328.117 0.64547 0.71744 0.6995 0.65003 0.6238 0.69656 0.7108 0.72789 0.66402 0.5622
3347.410 0.5695 0.6906 0.73173 0.6237 0.6342 0.612 0.6397 0.69921 0.68984 0.64855
3366.704 0.5863 0.54 0.595 0.73643 0.70051 0.6297 0.539 0.538 0.68453 0.68902
3385.997 0.5935 0.5 0.5644 0.66384 0.71116 0.72402 0.6302 0.6106 0.64712 0.64561
3405.290 0.6272 0.6423 0.660213 0.73972 0.7971 0.7672 0.70132 0.69119 0.72512 0.71037
3424.584 0.636 0.5765 0.6344 0.69669 0.6356 0.6402 0.71074 0.7626 0.7852 0.70479
3443.877 0.657059 0.6494 0.68339 0.71545 0.70062 0.67475 0.69738 0.6111 0.494 0.489
3463.171 0.5603 0.65167 0.72717 0.7409 0.66747 0.5922 0.5532 0.552 0.5658 0.5864
3482.464 0.69095 0.70265 0.53 0.5842 0.7153 0.74194 0.66353 0.64853 0.73367 0.6151
3501.758 0.658543 0.66819 0.6052 0.67689 0.71353 0.725 0.70542 0.662131 0.6097 0.66344
3521.051 0.6354 0.5657 0.655476 0.75165 0.6265 0.534 0.5828 0.527 0.545 0.67602
3540.344 0.6672 0.6124 0.65052 0.5746 0.589 0.64602 0.507 0.535 0.529 0.527
3559.638 0.6123 0.6391 0.6302 0.5669 0.5916 0.5923 0.519 0.551 0.67924 0.6118
3578.931 0.653058 0.74293 0.6165 0.5689 0.67227 0.7846 0.74085 0.7057 0.65194 0.6347
3598.225 0.69147 0.64702 0.6185 0.6219 0.68989 0.71635 0.69155 0.7032 0.71396 0.72727
3617.518 0.73298 0.6422 0.5604 0.6189 0.655701 0.660486 0.66347 0.66615 0.6318 0.5919
3636.812 0.5803 0.6246 0.69641 0.69133 0.69476 0.67283 0.654381 0.68651 0.69465 0.70793
3656.105 0.72522 0.71534 0.67832 0.6355 0.6141 0.5597 0.532 0.5871 0.6386 0.661634
3675.398 0.66319 0.6366 0.546 0.6162 0.658515 0.565 0.5892 0.72251 0.73482 0.69043
3694.692 0.68643 0.624 0.6347 0.5989 0.534 0.558 0.5969 0.657743 0.68236 0.6053
3713.985 0.608 0.67603 0.70868 0.7882 0.75025 0.6074 0.6029 0.69234 0.69175 0.69425
3733.279 0.66303 0.67755 0.67878 0.67865 0.774 0.71527 0.6328 0.658954 0.7739 0.7845
3752.572 0.7581 0.71397 0.70485 0.7309 0.68018 0.71766 0.7589 0.7767 0.7685 0.72315
3771.866 0.67238 0.69311 0.69376 0.7108 0.7217 0.65879 0.67311 0.69398 0.66503 0.5803
3791.159 0.5906 0.653359 0.6382 0.69825 0.8304 0.8138 0.75132 0.71351 0.66419 0.66651
3810.452 0.71191 0.7057 0.67174 0.66773 0.64449 0.64855 0.69326 0.69476 0.68773 0.655855
3829.746 0.6216 0.71838 0.7553 0.67047 0.66724 0.68645 0.7584 0.7724 0.69341 0.70593
3849.039 0.7537 0.8185 0.8197 0.8135 0.7882 0.70679 0.656157 0.66497 0.72138 0.7301
3868.333 0.67898 0.69952 0.69444 0.66534 0.69886 0.71412 0.70833 0.71147 0.73918 0.784
3887.626 0.7613 0.70666 0.67099 0.6327 0.653718 0.67348 0.67007 0.65192 0.6726 0.692
3906.920 0.6625 0.617 0.6072 0.6259 0.6018 0.659083 0.71099 0.6412 0.5878 0.6216
3926.213 0.64775 0.6105 0.5719 0.64322 0.72684 0.74884 0.769 0.74367 0.747 0.7895
3945.506 0.7717 0.69038 0.658216 0.656912 0.68591 0.7677 0.7534 0.6817 0.661661 0.660997
3964.800 0.6399 0.6298 0.68635 0.71004 0.68748 0.6357 0.6146 0.67197 0.6307 0.659303
3984.093 0.69233 0.69268 0.73247 0.71942 0.71801 0.6385 0.5793 0.5935 0.5976
##END=
