##TITLE=1-Docosanol
##JCAMP-DX=4.24
##DATA TYPE=INFRARED SPECTRUM
##ORIGIN=NIST Mass Spectrometry Data Center
##OWNER=NIST Standard Reference Data Program
Collection (C) 2018 copyright by the U.S. Secretary of Commerce
on behalf of the United States of America. All rights reserved.
##CAS REGISTRY NO=661-19-8
##MOLFORM=C 22 H 46 O
##$NIST SOURCE=MSDC-IR
##SPECTROMETER/DATA SYSTEM=HP-GC/MS/IRD
##STATE=gas
##XUNITS=1/CM
##YUNITS=ABSORBANCE
##XFACTOR=1.0
##YFACTOR=0.000002900
##DELTAX=4.0
##FIRSTX=550.0
##LASTX=3846.0
##FIRSTY=0.000064
##MAXX=3846
##MINX=550
##MAXY=0.029
##MINY=0
##NPOINTS=825
##XYDATA=(X++(Y..Y))
550.0 22 24 23 22 28 46 51 55 40 41
590.0 65 43 31 52 48 25 7 1 12 13
630.0 0 5 4 24 46 26 21 35 41 48
670.0 24 15 28 23 16 34 38 41 72 96
710.0 119 134 127 117 115 111 99 85 79 85
750.0 76 76 78 49 41 54 60 51 36 33
790.0 40 52 38 40 49 37 35 42 45 47
830.0 36 38 49 49 49 59 63 52 51 53
870.0 57 70 67 53 55 67 76 70 65 67
910.0 66 78 89 79 77 82 87 99 102 94
950.0 92 95 96 103 109 113 124 135 148 163
990.0 171 188 212 230 256 284 305 334 374 416
1030.0 461 498 524 543 545 545 536 504 459 414
1070.0 372 329 295 266 235 214 191 158 141 128
1110.0 121 125 109 93 93 95 89 82 86 85
1150.0 81 83 75 72 79 83 87 94 100 98
1190.0 95 101 99 94 91 102 114 120 128 128
1230.0 122 122 128 130 138 137 130 137 143 145
1270.0 151 152 160 169 170 175 186 198 203 199
1310.0 196 195 192 182 176 185 210 244 269 295
1350.0 319 325 316 305 286 266 256 254 252 242
1390.0 225 211 192 166 155 148 147 157 159 162
1430.0 179 216 270 331 415 495 578 650 644 596
1470.0 507 401 301 223 178 149 127 108 92 107
1510.0 105 81 82 81 63 52 55 68 71 56
1550.0 47 50 71 55 33 32 34 31 18 15
1590.0 18 21 18 14 15 15 22 24 17 20
1630.0 21 30 28 28 40 57 53 23 15 21
1670.0 28 30 24 33 34 16 22 37 32 18
1710.0 17 32 38 23 15 26 34 24 19 20
1750.0 27 19 13 20 24 28 20 13 18 17
1790.0 15 16 16 19 16 17 19 14 13 18
1830.0 17 11 10 11 13 8 0 3 9 11
1870.0 14 10 11 13 11 9 6 11 13 17
1910.0 17 14 16 17 14 14 15 12 14 12
1950.0 7 8 11 11 11 13 12 10 10 12
1990.0 15 15 11 10 15 16 19 17 14 13
2030.0 15 20 21 23 20 12 13 16 12 11
2070.0 12 11 11 10 12 12 6 6 12 13
2110.0 10 12 18 12 15 18 12 7 8 13
2150.0 15 15 14 12 9 9 13 12 11 10
2190.0 5 9 14 13 7 7 12 4 0 6
2230.0 9 8 6 6 12 13 13 8 1 4
2270.0 7 12 14 10 11 11 10 10 13 13
2310.0 12 12 9 14 16 20 15 7 11 18
2350.0 16 9 11 11 15 16 14 12 9 6
2390.0 7 10 9 14 15 10 8 7 9 9
2430.0 6 5 9 11 10 12 12 14 15 11
2470.0 4 4 8 6 4 7 12 13 10 8
2510.0 12 18 16 16 17 18 21 24 24 21
2550.0 21 22 19 16 19 24 26 22 25 32
2590.0 32 27 27 31 38 42 40 38 38 41
2630.0 51 59 55 61 71 69 67 76 82 85
2670.0 89 89 88 92 95 89 89 87 78 78
2710.0 78 80 84 82 87 95 97 96 97 100
2750.0 108 120 126 142 146 144 152 155 164 180
2790.0 199 223 239 255 279 305 342 385 430 478
2830.0 550 642 770 958 1259 1752 2480 3268 3705 3582
2870.0 3111 2632 2293 2091 1972 1941 2016 2215 2555 3021
2910.0 3578 4280 5275 6708 8467 9850 10000 8892 7188 5503
2950.0 4148 3198 2593 2236 1979 1712 1398 1091 857 689
2990.0 571 476 407 358 314 281 253 232 203 177
3030.0 167 153 139 130 116 97 84 83 81 75
3070.0 70 57 56 61 57 50 42 46 47 46
3110.0 34 20 22 29 40 48 42 34 32 32
3150.0 34 40 46 38 27 27 35 27 18 22
3190.0 28 33 24 16 24 24 12 23 34 21
3230.0 15 14 11 15 19 14 14 27 18 2
3270.0 2 8 16 3 4 21 18 7 9 19
3310.0 32 29 22 28 27 31 22 11 17 22
3350.0 19 20 21 22 23 18 20 21 16 14
3390.0 30 33 33 42 34 30 48 40 31 35
3430.0 27 25 30 26 28 25 16 27 39 33
3470.0 21 22 29 36 38 27 30 39 32 32
3510.0 40 43 38 35 38 35 40 35 32 37
3550.0 43 46 43 48 51 46 36 31 41 58
3590.0 57 50 51 53 67 72 66 68 70 86
3630.0 92 97 106 98 122 154 154 165 191 207
3670.0 208 213 190 145 114 99 81 68 70 70
3710.0 84 85 76 81 74 71 74 67 83 94
3750.0 85 71 65 77 80 78 73 75 64 53
3790.0 57 61 70 83 84 70 70 78 76 70
3830.0 68 76 79 77 73
##END=
