##TITLE=7-Benzoylheptanoic acid
##JCAMP-DX=4.24
##DATA TYPE=INFRARED SPECTRUM
##ORIGIN=EPA-IR VAPOR PHASE LIBRARY
##OWNER=SRD/NIST
Collection (C) 2018 copyright by the U.S. Secretary of Commerce
on behalf of the United States of America. All rights reserved.
##CAS REGISTRY NO=66147-75-9
##MOLFORM=C 14 H 18 O 3
##$NIST SOURCE=MSDC-IR
##STATE=gas
##XUNITS=1/CM
##YUNITS=ABSORBANCE
##XFACTOR=1.
##YFACTOR=0.001
##DELTAX=1.92898
##FIRSTX=549.8
##LASTX=4000.7
##FIRSTY=30.009
##MAXX=4000.7
##MINX=549.759
##MAXY=0.206549
##MINY=0
##NPOINTS=1790
##XYDATA=(X++(Y..Y))
549.759 30.009 31.939 33.539 34.459 35.859 37.139 38.089 39.309 39.909 40.529
569.049 40.589 40.419 39.959 39.389 39.439 39.299 39.389 39.529 39.619 39.739
588.339 40.569 41.789 42.469 43.029 43.589 43.939 44.169 44.199 43.629 42.729
607.628 42.219 41.569 40.699 39.699 38.769 38.499 37.949 36.999 36.079 35.439
626.918 34.979 34.589 33.999 33.229 32.069 30.799 30.029 29.559 28.839 27.879
646.208 27.999 28.309 28.269 28.259 28.049 27.809 27.659 27.299 27.049 27.249
665.498 27.319 27.369 27.959 29.009 30.409 32.259 34.229 36.719 40.139 44.659
684.787 49.799 55.049 59.499 61.939 62.449 60.549 56.549 51.649 46.749 42.629
704.077 39.119 36.169 33.759 31.829 30.539 29.639 29.059 28.809 28.399 28.269
723.367 28.829 28.959 29.149 29.899 30.119 30.659 31.539 32.019 32.899 33.709
742.657 34.479 35.069 35.049 34.519 33.489 32.269 30.819 29.299 27.499 25.449
761.947 24.179 23.299 21.839 20.409 18.729 17.229 16.309 15.429 14.519 13.509
781.236 12.719 11.939 11.099 10.219 9.609 9.209 8.749 7.959 7.449 7.349
800.526 7.159 6.869 6.389 6.409 6.479 6.449 6.259 5.849 5.959 6.169
819.816 5.749 5.299 5.129 5.119 5.349 5.719 6.039 6.089 6.179 6.059
839.106 5.969 6.519 6.979 6.909 6.889 7.059 7.219 7.189 7.229 7.829
858.395 7.899 7.569 7.429 7.589 8.069 8.159 8.269 8.389 8.229 7.849
877.685 7.639 7.779 7.749 7.559 7.539 7.499 7.479 7.809 7.859 7.799
896.975 7.639 7.739 8.069 8.099 8.299 8.449 8.589 8.829 9.199 9.709
916.265 10.049 10.629 10.949 10.989 11.789 12.259 12.279 12.569 12.999 13.279
935.555 13.359 13.679 14.279 14.919 15.349 15.979 17.129 18.129 18.879 20.019
954.844 21.209 22.269 23.379 24.499 25.779 26.459 26.649 27.059 27.449 27.209
974.134 26.369 25.719 25.159 24.689 24.319 23.789 23.289 23.259 23.459 23.729
993.424 23.969 24.669 26.649 28.429 29.749 31.519 32.589 32.359 31.749 31.569
1012.714 31.189 30.349 29.549 28.339 26.749 26.079 25.069 23.689 23.189 22.619
1032.003 22.139 22.369 22.879 23.439 24.519 25.699 26.699 27.779 28.939 30.079
1051.293 31.769 33.679 35.399 37.489 38.939 41.079 43.849 45.499 47.109 49.099
1070.583 50.779 52.099 54.039 55.439 55.939 56.269 57.179 58.699 59.289 59.549
1089.873 60.929 62.419 63.469 65.209 66.899 69.889 73.799 77.469 82.639 89.009
1109.163 94.629 100.989 108.329 113.559 117.999 122.659 124.409 122.839 120.089 116.629
1128.452 111.579 105.199 98.989 93.439 87.769 83.739 80.899 77.009 74.549 72.779
1147.742 70.849 69.409 67.609 66.249 66.289 66.049 64.889 64.069 63.929 63.849
1167.032 63.689 63.389 63.519 65.449 68.589 72.279 74.899 75.049 73.709 70.299
1186.322 64.749 60.329 57.509 56.459 57.419 58.819 60.679 63.159 65.849 69.909
1205.611 72.929 74.479 77.569 79.209 79.829 80.039 78.009 75.819 73.639 70.779
1224.901 68.159 65.379 63.569 61.769 59.799 58.699 58.809 59.439 59.369 59.339
1244.191 59.509 60.019 61.059 61.969 62.639 62.809 63.129 63.789 63.879 63.659
1263.481 63.649 62.979 61.379 60.249 58.779 57.109 55.589 53.839 52.219 50.819
1282.771 49.369 48.089 47.149 45.949 44.859 43.979 42.839 41.679 40.569 39.469
1302.060 38.449 37.579 37.069 36.819 37.039 37.539 37.969 38.349 38.469 38.429
1321.350 38.319 38.219 38.089 38.029 38.009 38.099 38.479 38.989 39.759 40.709
1340.640 41.909 43.419 44.879 46.249 47.679 48.939 50.009 50.619 50.729 50.579
1359.930 50.109 49.409 48.699 48.149 47.359 46.329 45.339 44.289 43.179 41.949
1379.219 40.609 39.109 37.549 35.919 34.039 32.159 30.159 28.129 26.359 24.729
1398.509 23.189 21.939 21.009 20.329 20.009 19.839 19.809 19.999 20.249 20.379
1417.799 20.379 20.619 20.899 21.059 21.389 21.759 22.389 23.129 23.949 25.049
1437.089 26.739 29.069 31.829 35.409 39.379 42.439 43.849 43.579 41.789 38.829
1456.378 35.819 33.639 31.789 29.539 27.009 24.569 22.139 19.779 17.539 15.309
1475.668 13.519 12.059 10.729 9.659 8.959 8.299 7.719 7.269 7.009 6.739
1494.958 6.409 6.179 6.029 5.919 5.969 5.819 5.519 5.549 5.559 5.359
1514.248 5.129 4.919 4.769 4.599 4.639 4.769 4.719 4.619 4.479 4.599
1533.538 4.599 4.579 4.509 4.259 4.289 4.299 4.319 4.469 4.569 4.529
1552.827 4.509 4.659 4.869 5.079 5.529 5.899 6.339 6.899 7.509 8.279
1572.117 9.199 10.309 11.299 12.279 13.039 13.469 13.649 13.669 13.619 13.729
1591.407 14.039 14.659 15.569 15.959 15.909 15.559 14.759 13.729 12.539 11.149
1610.697 9.889 8.989 8.379 7.799 7.299 6.899 6.389 5.959 5.699 5.589
1629.986 5.639 5.619 5.659 5.719 5.849 5.989 6.249 6.509 6.859 7.429
1649.276 7.899 8.299 9.029 9.889 10.629 11.499 12.489 13.349 14.399 15.729
1668.566 17.229 19.039 21.259 23.939 27.439 31.499 36.859 43.649 52.549 63.909
1687.856 76.909 91.789 107.709 123.059 137.199 148.659 154.899 156.299 152.319 142.809
1707.146 129.059 112.589 95.409 79.679 66.399 56.059 48.469 43.379 40.029 38.099
1726.435 37.419 37.589 38.569 40.079 42.269 44.899 48.029 51.959 56.299 61.219
1745.725 66.619 72.419 78.659 85.489 92.829 100.519 108.999 117.839 127.409 138.159
1765.015 149.589 161.649 174.419 186.469 196.959 204.039 206.549 204.059 196.549 185.139
1784.305 171.269 156.939 143.179 130.279 118.619 108.179 98.999 90.539 82.689 75.159
1803.594 67.969 60.979 54.359 48.099 42.219 36.949 32.329 28.129 24.699 21.849
1822.884 19.259 17.139 15.389 13.739 12.279 11.069 10.069 9.259 8.589 7.849
1842.174 7.179 6.769 6.389 5.969 5.589 5.449 5.239 5.059 4.959 4.709
1861.464 4.489 4.459 4.459 4.299 4.169 4.129 4.239 4.279 4.339 4.499
1880.754 4.489 4.479 4.479 4.499 4.639 4.669 4.699 4.669 4.619 4.669
1900.043 4.609 4.539 4.529 4.539 4.389 4.079 3.869 3.699 3.529 3.459
1919.333 3.409 3.209 3.029 2.999 3.019 3.099 3.119 3.049 3.149 3.239
1938.623 3.309 3.389 3.499 3.779 4.049 4.219 4.369 4.589 4.649 4.579
1957.913 4.509 4.469 4.439 4.299 4.199 4.159 4.069 3.759 3.469 3.249
1977.202 3.039 2.809 2.539 2.279 2.239 2.229 2.139 2.029 1.969 1.949
1996.492 2.029 2.119 1.919 1.719 1.699 1.729 1.819 1.779 1.719 1.649
2015.782 1.609 1.739 1.719 1.669 1.699 1.609 1.499 1.469 1.549 1.649
2035.072 1.649 1.679 1.669 1.539 1.559 1.639 1.539 1.449 1.549 1.619
2054.362 1.649 1.659 1.519 1.479 1.549 1.589 1.599 1.469 1.359 1.359
2073.651 1.349 1.299 1.289 1.359 1.339 1.279 1.349 1.359 1.259 1.189
2092.941 1.239 1.379 1.299 1.239 1.309 1.279 1.359 1.369 1.269 1.219
2112.231 1.269 1.299 1.199 1.289 1.419 1.409 1.289 1.319 1.519 1.539
2131.521 1.439 1.389 1.409 1.399 1.399 1.519 1.459 1.359 1.429 1.459
2150.810 1.539 1.599 1.519 1.369 1.299 1.349 1.319 1.409 1.569 1.569
2170.100 1.589 1.599 1.599 1.699 1.759 1.649 1.529 1.469 1.489 1.579
2189.390 1.669 1.649 1.629 1.729 1.779 1.699 1.579 1.539 1.629 1.679
2208.680 1.689 1.589 1.529 1.719 1.819 1.699 1.749 1.669 1.499 1.659
2227.970 1.739 1.709 1.739 1.759 1.649 1.609 1.649 1.639 1.639 1.739
2247.259 1.859 1.779 1.649 1.689 1.799 1.679 1.539 1.559 1.709 1.739
2266.549 1.679 1.699 1.679 1.679 1.649 1.629 1.659 1.769 1.789 1.769
2285.839 1.749 1.689 1.689 1.499 1.439 1.589 1.639 1.669 1.589 1.679
2305.129 1.779 1.739 1.729 1.749 1.819 1.979 2.089 2.079 2.029 2.009
2324.418 1.929 1.839 1.839 1.769 1.719 1.729 1.669 1.789 1.979 1.869
2343.708 1.769 1.739 1.699 1.719 1.779 1.579 1.279 1.379 1.469 1.579
2362.998 1.639 1.399 1.249 1.269 1.349 1.469 1.529 1.579 1.619 1.479
2382.288 1.409 1.439 1.479 1.609 1.629 1.549 1.429 1.489 1.659 1.619
2401.578 1.629 1.649 1.609 1.579 1.659 1.669 1.569 1.559 1.599 1.629
2420.867 1.589 1.559 1.529 1.559 1.539 1.509 1.529 1.369 1.189 1.369
2440.157 1.519 1.519 1.419 1.279 1.359 1.469 1.399 1.339 1.439 1.329
2459.447 1.1176 1.149 1.229 1.209 1.169 1.1005 1.199 1.389 1.429 1.419
2478.737 1.379 1.229 1.123 1.219 1.189 1.219 1.359 1.339 1.339 1.319
2498.026 1.209 1.0675 0.9737 1.179 1.389 1.349 1.269 1.189 1.219 1.259
2517.316 1.189 1.149 1.289 1.319 1.179 1.0701 1.0825 1.249 1.209 1.209
2536.606 1.269 1.239 1.179 1.169 1.309 1.249 1.339 1.319 1.1267 1.199
2555.896 1.1053 1.179 1.279 1.179 1.1257 1.1164 1.1287 1.159 1.289 1.309
2575.186 1.339 1.429 1.469 1.459 1.479 1.529 1.379 1.369 1.469 1.509
2594.475 1.509 1.559 1.719 1.689 1.629 1.599 1.509 1.489 1.599 1.619
2613.765 1.639 1.639 1.569 1.619 1.659 1.579 1.619 1.769 1.749 1.649
2633.055 1.769 1.729 1.619 1.799 1.839 1.769 1.809 1.749 1.679 1.789
2652.345 1.829 1.759 1.899 2.079 2.019 1.939 1.969 1.919 1.799 1.929
2671.634 2.099 2.079 2.119 2.269 2.329 2.259 2.149 2.089 2.209 2.019
2690.924 1.999 2.279 2.369 2.369 2.249 2.249 2.359 2.349 2.149 2.159
2710.214 2.259 2.119 2.049 1.909 1.959 2.069 2.179 2.219 2.099 2.129
2729.504 1.999 1.989 2.209 2.159 2.029 1.949 1.979 2.179 2.289 2.259
2748.794 2.219 2.279 2.319 2.429 2.549 2.469 2.509 2.719 2.699 2.629
2768.083 2.629 2.669 2.629 2.789 2.969 2.919 3.079 3.069 3.079 3.219
2787.373 3.279 3.349 3.449 3.669 3.939 3.989 4.159 4.409 4.459 4.679
2806.663 4.769 4.879 5.189 5.479 5.659 5.849 6.089 6.289 6.569 6.829
2825.953 7.199 7.389 7.579 8.069 8.559 8.939 9.589 10.409 11.279 12.479
2845.242 13.689 15.019 17.049 19.899 23.009 26.349 29.949 33.979 38.029 41.309
2864.532 44.099 46.199 47.039 46.699 45.799 44.089 41.689 39.619 37.519 35.329
2883.822 33.649 32.519 31.859 31.379 31.359 32.149 33.229 34.529 36.149 37.989
2903.112 40.109 42.149 44.409 47.229 50.479 53.849 57.329 61.179 65.049 69.029
2922.401 73.439 78.219 83.369 88.549 93.619 98.779 103.709 107.969 111.289 113.629
2941.691 114.849 114.819 113.739 111.579 108.069 103.539 98.089 92.129 85.759 79.289
2960.981 73.149 67.169 61.719 56.609 51.929 47.209 42.849 38.929 35.149 31.769
2980.271 28.639 25.759 23.199 21.159 19.299 17.679 16.209 14.889 13.769 12.619
2999.561 11.689 11.029 10.689 10.419 9.999 9.799 9.779 9.659 9.479 9.459
3018.850 9.849 10.409 10.879 11.429 12.169 12.999 13.619 14.319 14.969 15.469
3038.140 16.009 16.249 16.009 15.649 15.199 15.089 15.189 15.479 16.069 16.999
3057.430 18.279 19.709 21.709 23.819 26.169 28.779 31.069 32.729 32.829 31.339
3076.720 29.099 26.469 24.109 22.609 22.049 22.079 21.899 21.109 19.919 18.519
3096.009 16.619 14.779 13.339 12.049 10.979 9.889 8.719 7.449 6.399 6.039
3115.299 5.659 4.959 4.009 3.259 2.819 2.529 2.489 2.509 2.379 2.219
3134.589 2.089 1.809 1.629 1.909 2.009 1.959 2.149 2.009 1.919 1.989
3153.879 1.979 1.889 2.079 2.119 1.749 1.579 1.589 1.839 1.719 1.279
3173.169 1.369 1.309 1.042 1.279 1.1236 0.7187 0.9761 1.249 1.359 1.259
3192.458 1.189 1.299 1.259 1.379 1.259 1.0791 1.0007 0.6928 0.602 0.6892
3211.748 0.7266 0.6377 0.4262 0.5099 0.7389 0.5487 0.4191 0.6352 0.6977 0.6063
3231.038 0.6928 0.8647 0.7538 0.7143 0.8803 0.6878 0.5899 0.8187 0.7958 0.6324
3250.328 0.5802 0.6438 0.5114 0.3389 0.3961 0.5516 0.6598 0.7911 0.7845 0.8472
3269.617 0.8623 0.7815 0.5684 0.5003 0.5871 0.5069 0.5957 0.5544 0.3949 0.3857
3288.907 0.5402 0.5432 0.5082 0.6049 0.5509 0.5789 0.663 0.7418 0.8798 0.9678
3308.197 1.0013 0.7697 0.586 0.7605 0.756 0.6422 0.7786 0.6755 0.7996 0.9059
3327.487 0.9527 0.906 0.5715 0.6259 0.6844 0.7229 0.7135 0.7354 0.9205 0.7178
3346.777 0.5154 0.4894 0.6195 0.8778 1.0954 1.219 1.239 1.359 1.609 1.899
3366.066 1.999 1.699 1.699 2.379 2.659 2.499 2.549 3.039 3.259 3.099
3385.356 3.189 3.039 2.759 2.419 2.199 1.789 1.699 1.969 1.849 1.769
3404.646 1.699 1.209 1.0068 1.439 1.669 1.529 1.0918 0.9199 1.139 0.9619
3423.936 0.8323 1.0487 0.9427 0.8728 0.9941 1.0643 1.0014 1.0444 1.129 1.0302
3443.225 0.9653 1.0615 1.0345 0.8323 0.9016 0.9353 0.9237 1.0619 0.9577 0.8722
3462.515 0.99 0.9076 0.8332 0.8572 0.6835 0.8532 1.0471 0.8308 0.7371 1.179
3481.805 1.399 1.279 1.329 1.309 1.549 1.769 1.619 1.799 1.859 1.779
3501.095 2.129 2.369 2.179 2.129 2.679 2.709 2.439 2.509 2.819 3.079
3520.385 3.199 3.359 3.539 3.909 3.969 3.969 4.359 4.579 4.919 5.239
3539.674 5.489 5.829 6.359 6.919 7.879 8.929 9.929 11.529 13.219 15.649
3558.964 19.019 23.509 29.109 35.919 45.019 56.609 69.679 80.789 85.969 84.389
3578.254 76.739 63.739 49.399 37.899 29.399 22.959 18.169 14.499 11.909 10.339
3597.544 8.839 7.549 6.349 5.589 4.819 4.139 3.979 3.729 3.329 2.899
3616.833 2.919 2.829 2.259 2.189 2.349 2.219 2.009 1.819 1.739 1.839
3636.123 1.929 1.799 1.269 1.0409 1.439 1.559 1.579 1.439 1.229 1.389
3655.413 1.289 0.8626 1.074 1.159 0.9795 1.0111 0.955 0.8077 0.9516 1.269
3674.703 1.219 1.159 1.0923 0.7902 0.7517 0.7561 0.7822 1.1051 1.1028 0.7917
3693.993 0.8426 1.159 1.269 1.0077 0.7364 0.7493 0.9405 0.9458 1.0125 1.0042
3713.282 0.8105 0.6308 0.3412 0.4127 0.6301 0.7882 0.8941 0.8196 0.7891 0.7107
3732.572 0.4598 0.4463 0.4038 0.5799 0.6599 0.3412 0.3568 0.4451 0.20414 0.12739
3751.862 0.2653 0.4333 0.8405 0.9155 0.7939 0.826 0.9227 0.7425 0.7632 0.8205
3771.152 0.7246 0.7799 0.6446 0.6145 0.5528 0.5359 0.63 0.7366 0.821 0.8105
3790.441 0.6974 0.5112 0.34 0.4251 0.4888 0.5754 0.6939 0.5846 0.4973 0.6327
3809.731 0.7566 0.686 0.7925 0.9546 0.7581 0.5584 0.4713 0.4131 0.4306 0.5778
3829.021 0.7523 0.8115 0.8093 0.3991 0 0.3144 0.8968 0.943 0.6289 0.5499
3848.311 0.8452 0.8611 0.5136 0.6069 0.6968 0.5477 0.585 0.7526 0.775 0.7386
3867.601 0.6608 0.4488 0.5332 0.7867 0.8552 0.8174 0.6687 0.777 0.9204 0.6738
3886.890 0.8279 0.9081 0.5516 0.8467 1.159 0.9198 0.6519 0.5753 0.517 0.3175
3906.180 0.536 1.0556 1.0693 0.7327 0.7411 1.0253 0.7405 0.4296 0.6387 0.7378
3925.470 0.7987 0.8256 0.6951 0.7851 0.855 0.7162 0.3869 0.5339 0.7928 0.5226
3944.760 0.5805 0.5363 0.4679 0.3803 0.3619 0.7652 1.1239 0.951 0.8646 0.9212
3964.049 0.715 0.7138 0.6485 0.3954 0.3295 0.2919 0.5078 0.6621 0.6106 1.0376
3983.339 1.209 0.8158 0.7049 0.8378 0.6305 0.944 1.339 1.1033 0.9505 1.0796
##END=
