##TITLE=Methyl tiglate
##JCAMP-DX=4.24
##DATA TYPE=INFRARED SPECTRUM
##ORIGIN=EPA-IR VAPOR PHASE LIBRARY
##OWNER=SRD/NIST
Collection (C) 2018 copyright by the U.S. Secretary of Commerce
on behalf of the United States of America. All rights reserved.
##CAS REGISTRY NO=6622-76-0
##MOLFORM=C 6 H 10 O 2
##$NIST SOURCE=MSDC-IR
##STATE=gas
##XUNITS=1/CM
##YUNITS=ABSORBANCE
##XFACTOR=1.
##YFACTOR=0.001
##DELTAX=1.92934
##FIRSTX=549.9
##LASTX=3999.5
##FIRSTY=1.148
##MAXX=3999.53
##MINX=549.863
##MAXY=0.18331
##MINY=0
##NPOINTS=1789
##XYDATA=(X++(Y..Y))
549.863 1.148 1.152 1.443 1.16 1.019 1.079 0.891 0.955 1.027 1.101
569.156 1.188 1.115 1.025 1.135 1.201 1.208 1.238 1.17 1.04 0.857
588.450 0.771 0.804 0.914 0.981 0.985 1.094 1.182 0.997 0.84 0.906
607.743 0.879 0.881 0.956 0.993 1.01 1.102 1.172 1.236 1.174 1.071
627.037 1.237 1.396 1.508 1.55 1.6257 1.8788 2.0529 2.2106 2.4978 2.87
646.330 3.27 3.54 3.66 3.77 3.72 3.6 3.7 3.9 4.03 3.9
665.624 3.58 3.25 2.92 2.6103 2.3156 2.1038 2.0477 2.0921 2.0359 1.9579
684.917 1.9682 1.9765 1.9704 1.921 1.8676 1.9897 2.0532 2.0997 2.2858 2.4105
704.210 2.5897 2.9 3.4 4.01 4.63 5.56 6.61 7.73 8.99 10.14
723.504 11.37 12.57 13.86 15.62 18.32 21.68 23.6 23.07 21.18 19.3
742.797 17.97 16.93 15.97 14.93 13.69 12.33 10.93 9.53 8.18 6.97
762.091 5.93 5.17 4.6 4.09 3.72 3.61 3.6 3.56 3.68 3.92
781.384 4.19 4.49 4.81 5.2 5.7 6.29 6.81 7.29 7.73 7.95
800.678 7.98 7.88 7.77 7.7 7.6 7.53 7.33 6.98 6.53 5.83
819.971 5.03 4.42 3.96 3.62 3.36 3.2 3.08 2.94 2.93 2.96
839.264 3.02 3.12 3.21 3.39 3.59 3.67 3.76 3.97 4.14 4.18
858.558 4.22 4.26 4.15 4.01 3.93 3.82 3.67 3.61 3.51 3.38
877.851 3.3 3.23 3.2 3.23 3.32 3.44 3.54 3.74 4.03 4.3
897.145 4.52 4.85 5.25 5.54 5.81 6.07 6.33 6.49 6.58 6.59
916.438 6.53 6.43 6.29 6.11 5.83 5.55 5.16 4.66 4.21 3.84
935.732 3.59 3.36 3.14 2.99 2.91 2.87 2.81 2.84 2.96 3.04
955.025 3.1 3.26 3.46 3.59 3.75 4.03 4.34 4.64 5.04 5.4
974.318 5.74 6.07 6.33 6.55 6.76 6.91 7.02 7.12 7.1 7.06
993.612 7.02 6.91 6.83 6.79 6.81 6.94 7.08 7.33 7.63 7.96
1012.905 8.36 8.78 9.23 9.8 10.42 10.94 11.55 12.23 12.89 13.62
1032.199 14.37 15.08 15.89 16.66 17.47 18.32 19.12 19.87 20.63 21.42
1051.492 22.21 23.13 24.16 25.32 26.73 28.4 30.36 32.59 35.11 37.97
1070.786 41.03 43.95 46.47 48.51 50.11 51.1 51.39 51.03 49.92 48.1
1090.079 45.4 41.99 38.36 34.62 31.16 28.14 25.49 23.56 22.34 21.71
1109.372 21.67 22.36 23.86 26.29 29.72 34.28 40.18 47.49 55.93 65.24
1128.666 74.97 84.34 92.83 100.32 106.74 112.33 116.91 119.73 120.41 118.54
1147.959 113.6 105.62 96.17 86.8 77.93 69.74 62.29 55.23 48.57 42.73
1167.253 38.05 34.5 31.89 30.14 29.07 28.51 28.47 28.81 29.2 29.72
1186.546 30.08 30.1 30.02 29.8 29.51 29.09 28.25 27.4 26.32 24.74
1205.840 23.09 21.33 20.15 19.54 18.72 18.55 18.67 18.9 19.75 20.97
1225.133 22.61 25.03 28.11 32.1 37.14 43.11 50.5 59.72 70.34 82.02
1244.426 94.68 107.7 120.61 132.98 144.57 155 164.16 172.28 178.7 182.49
1263.720 183.31 180.51 174.17 165.1 154.58 143.94 133.44 123.24 112.85 101.57
1283.013 89.47 76.89 64.49 53.18 43.78 36.62 31.38 27.59 24.99 23.12
1302.307 21.68 20.56 19.58 18.69 17.89 17.12 16.43 15.78 15.08 14.46
1321.600 13.98 13.55 13.21 13.13 13.29 13.66 14.26 14.99 15.62 16.02
1340.894 16.17 16.14 16.05 16.09 16.06 15.76 15.38 14.74 13.81 12.79
1360.187 11.87 11.24 10.96 10.94 11.16 11.65 12.29 13.07 13.99 14.99
1379.480 16.01 16.81 17.41 17.84 18.08 18.07 17.92 17.71 17.3 16.64
1398.774 15.71 14.64 13.56 12.55 11.78 11.19 10.77 10.58 10.65 10.98
1418.067 11.55 12.45 13.85 15.77 18.28 21.31 24.46 27.26 29.38 30.93
1437.361 32.3 33.26 33.46 33.46 33.04 31.04 27.51 23.66 20.43 18.14
1456.654 16.53 15.39 14.59 13.93 13.32 12.74 12.23 11.82 11.44 11.02
1475.948 10.6 10.13 9.68 9.22 8.82 8.54 8.19 7.86 7.67 7.55
1495.241 7.3 7.08 7.01 6.93 6.87 6.77 6.61 6.53 6.52 6.41
1514.534 6.31 6.31 6.24 6.21 6.22 6.17 6.04 5.98 6 6
1533.828 5.95 5.93 5.95 5.92 5.92 5.88 5.86 5.82 5.74 5.7
1553.121 5.67 5.62 5.54 5.44 5.33 5.32 5.32 5.21 5.14 5.07
1572.415 5 5 4.98 4.93 4.92 4.96 4.97 4.95 4.93 4.99
1591.708 5.09 5.12 5.13 5.17 5.21 5.27 5.33 5.4 5.46 5.44
1611.002 5.43 5.51 5.58 5.73 5.92 6.1 6.33 6.58 6.91 7.32
1630.295 7.85 8.56 9.43 10.46 11.66 13.01 14.47 16.05 17.68 19.09
1649.588 20.31 21.38 22.11 22.41 22.44 22.2 21.7 20.93 19.8 18.33
1668.882 16.61 14.87 13.38 12.26 11.49 11.08 11.05 11.18 11.32 11.64
1688.175 11.97 12.25 12.83 13.65 14.57 15.73 17.15 18.93 21.11 23.94
1707.469 27.58 32.18 37.98 45.16 54.11 65.18 78.5 93.63 110.04 126.19
1726.762 140.02 149.66 154.61 156.86 159.09 162.38 165.69 165.77 159.9 148.52
1746.056 133.7 117.08 100.01 83.45 68.53 55.83 45.15 36.55 29.75 24.37
1765.349 20.21 17 14.62 12.98 11.79 10.96 10.43 10.06 9.85 9.73
1784.642 9.65 9.59 9.32 8.82 8.23 7.56 6.96 6.43 5.96 5.52
1803.936 5.03 4.54 4.11 3.74 3.46 3.18 2.97 2.85 2.73 2.6844
1823.229 2.5965 2.5152 2.4787 2.4573 2.4417 2.4253 2.3738 2.3254 2.2658 2.2002
1842.523 2.1808 2.1394 2.1462 2.1378 2.0899 2.0822 2.0689 2.0536 2.0401 2.0714
1861.816 2.0996 2.1061 2.0935 2.0442 2.0209 2.0281 2.0663 2.0542 2.0773 2.1605
1881.110 2.2459 2.306 2.3591 2.4261 2.4237 2.4808 2.5639 2.5887 2.5729 2.5468
1900.403 2.6076 2.7174 2.76 2.74 2.698 2.6298 2.6216 2.6962 2.6953 2.652
1919.696 2.6482 2.5741 2.5218 2.5426 2.5604 2.5526 2.5048 2.5075 2.5067 2.4782
1938.990 2.4453 2.4215 2.3801 2.3265 2.3515 2.3684 2.3363 2.263 2.2566 2.272
1958.283 2.2412 2.1792 2.0832 2.0597 2.0684 2.0595 2.0735 2.0781 2.0576 2.0648
1977.577 2.0806 2.096 2.058 2.0347 2.1041 2.1379 2.1225 2.1241 2.1539 2.1835
1996.870 2.1605 2.166 2.23 2.2086 2.1369 2.12 2.0711 2.0534 2.0713 2.0793
2016.164 2.1003 2.0513 2.033 2.0546 2.0653 2.0955 2.0857 2.1337 2.1773 2.1617
2035.457 2.2077 2.2851 2.3522 2.3903 2.4359 2.5197 2.5938 2.6584 2.6857 2.73
2054.750 2.79 2.8 2.81 2.83 2.84 2.81 2.79 2.79 2.75 2.6884
2074.044 2.6166 2.5496 2.4728 2.3926 2.3392 2.2931 2.2333 2.1182 2.0262 1.9887
2093.337 1.95 1.8939 1.9134 1.9078 1.81847 1.7647 1.75387 1.76547 1.7387 1.6929
2112.631 1.6672 1.71831 1.73872 1.6923 1.6761 1.6634 1.7063 1.72417 1.6541 1.6286
2131.924 1.583 1.507 1.491 1.533 1.543 1.534 1.581 1.559 1.514 1.507
2151.218 1.535 1.565 1.552 1.565 1.607 1.6308 1.6202 1.612 1.6281 1.6744
2170.511 1.6873 1.6908 1.6984 1.6864 1.6952 1.6606 1.6413 1.6418 1.59 1.521
2189.804 1.489 1.509 1.499 1.445 1.436 1.372 1.294 1.311 1.322 1.272
2209.098 1.195 1.172 1.17 1.165 1.129 1.106 1.135 1.146 1.124 1.118
2228.391 1.135 1.181 1.258 1.266 1.233 1.245 1.24 1.214 1.261 1.302
2247.685 1.292 1.33 1.282 1.254 1.337 1.333 1.274 1.243 1.241 1.247
2266.978 1.253 1.226 1.245 1.218 1.193 1.212 1.177 1.177 1.173 1.171
2286.272 1.178 1.189 1.175 1.172 1.229 1.248 1.238 1.242 1.272 1.338
2305.565 1.274 1.221 1.246 1.239 1.257 1.26 1.253 1.275 1.263 1.212
2324.858 1.224 1.249 1.22 1.202 1.18 1.18 1.215 1.19 1.172 1.16
2344.152 1.223 1.27 1.224 1.212 1.203 1.243 1.29 1.256 1.211 1.218
2363.445 1.222 1.216 1.235 1.259 1.232 1.213 1.248 1.27 1.287 1.305
2382.739 1.352 1.346 1.317 1.378 1.417 1.408 1.365 1.357 1.433 1.466
2402.032 1.408 1.398 1.45 1.45 1.438 1.495 1.501 1.42 1.394 1.415
2421.326 1.404 1.415 1.409 1.344 1.319 1.343 1.38 1.382 1.329 1.313
2440.619 1.332 1.335 1.307 1.277 1.292 1.282 1.232 1.255 1.323 1.326
2459.912 1.279 1.276 1.345 1.312 1.297 1.333 1.283 1.24 1.253 1.229
2479.206 1.239 1.257 1.224 1.22 1.259 1.309 1.285 1.251 1.228 1.249
2498.499 1.253 1.207 1.233 1.29 1.256 1.197 1.213 1.293 1.354 1.314
2517.793 1.305 1.317 1.339 1.372 1.409 1.458 1.468 1.497 1.485 1.427
2537.086 1.456 1.435 1.333 1.29 1.3 1.324 1.271 1.287 1.32 1.243
2556.380 1.141 1.071 1.077 1.089 1.103 1.137 1.11 1.059 1.043 1.046
2575.673 1.016 0.998 1.038 1.048 1.016 1.029 1.04 1.034 1.024 1.003
2594.966 1.049 1.123 1.129 1.109 1.075 1.029 1.056 1.073 1.026 0.999
2614.260 0.984 1.014 1.041 0.963 0.92 0.932 0.895 0.851 0.887 0.941
2633.553 0.843 0.847 0.943 0.94 0.986 0.972 0.94 0.923 0.922 0.939
2652.847 0.928 0.945 0.967 0.96 0.945 0.977 1.05 1.038 0.968 0.93
2672.140 0.928 0.857 0.826 0.869 0.8 0.778 0.805 0.818 0.869 0.913
2691.434 0.874 0.861 0.864 0.842 0.86 0.898 0.985 0.957 0.887 0.885
2710.727 0.905 0.96 1.064 1.129 1.122 1.104 1.116 1.142 1.217 1.337
2730.020 1.273 1.219 1.196 1.136 1.163 1.195 1.333 1.393 1.267 1.321
2749.314 1.401 1.407 1.474 1.513 1.479 1.47 1.45 1.455 1.475 1.484
2768.607 1.504 1.497 1.426 1.319 1.238 1.235 1.333 1.371 1.355 1.352
2787.901 1.377 1.426 1.447 1.469 1.513 1.587 1.619 1.6685 1.77537 1.80996
2807.194 1.8816 1.973 2.0572 2.2746 2.4657 2.6218 2.87 3.06 3.21 3.52
2826.488 3.89 4.33 4.76 5.2 5.75 6.33 7.09 7.81 8.36 8.91
2845.781 9.52 9.96 10.27 10.63 11.01 11.52 12.01 12.22 12.32 12.5
2865.074 12.74 13.02 13.18 13.4 13.74 14 14.17 14.25 14.29 14.28
2884.368 14.28 14.32 14.32 14.47 14.8 15.1 15.4 15.82 16.31 16.81
2903.661 17.52 18.31 19.02 19.69 20.55 21.7 22.92 24.16 25.53 26.82
2922.955 28.07 29.35 30.35 31.2 31.92 32.41 32.78 33.29 33.67 33.84
2942.248 34.59 35.9 37.62 39.84 42.11 43.83 44.62 44.42 43.72 43.02
2961.542 42.12 40.77 39.29 37.5 34.77 31.03 27.24 24.17 21.74 20.1
2980.835 19.31 19.09 19.33 19.58 19.91 20.39 20.77 21.25 21.63 21.87
3000.128 22.02 21.77 21.36 20.99 20.59 20.24 19.87 19.56 19.1 18.72
3019.422 18.25 17.73 17.5 17.19 16.87 16.49 16.11 15.78 15.44 15.08
3038.715 14.6 14.17 13.71 13.26 12.76 12.18 11.8 11.51 11.08 10.66
3058.009 10.28 9.86 9.47 9.13 8.65 8.16 7.72 7.4 7.22 6.75
3077.302 6.24 5.98 5.68 5.24 5.03 4.93 4.61 4.33 4.15 3.9
3096.596 3.63 3.67 3.72 3.51 3.33 3.24 3.09 2.85 2.72 2.6601
3115.889 2.6361 2.5208 2.4207 2.3503 2.2263 2.1108 2.1223 2.0793 1.8385 1.7095
3135.182 1.71477 1.581 1.428 1.383 1.225 1.066 1.152 1.207 1.027 0.915
3154.476 1.024 1.06 0.845 0.784 0.781 0.7 0.728 0.72 0.767 0.785
3173.769 0.67 0.66 0.67 0.65 0.51 0.52 0.5 0.34 0.5 0.61
3193.063 0.41 0.08 0.07 0.4 0.44 0.49 0.68 0.52 0.51 0.54
3212.356 0.42 0.26 0.14 0.26 0.32 0.3 0.24 0.22 0.09 0.1
3231.650 0.14 0.22 0.38 0.41 0.5 0.49 0.3 0.21 0.18 0.37
3250.943 0.4 0.27 0.3 0.28 0.25 0.31 0.48 0.36 0.27 0.4
3270.236 0.35 0.32 0.37 0.33 0.34 0.22 0.21 0.22 0.16 0.2
3289.530 0.19 0.31 0.42 0.33 0.21 0.23 0.28 0.28 0.36 0.33
3308.823 0.18 0.09 0 0.03 0.1 0.16 0.31 0.31 0.39 0.46
3328.117 0.38 0.46 0.46 0.37 0.41 0.48 0.51 0.47 0.36 0.24
3347.410 0.27 0.51 0.731 0.71 0.54 0.49 0.58 0.62 0.52 0.52
3366.704 0.37 0.26 0.43 0.55 0.67 0.724 0.53 0.49 0.53 0.57
3385.997 0.726 0.64 0.42 0.57 0.758 0.67 0.69 0.782 0.765 0.732
3405.290 0.753 0.847 0.763 0.67 0.848 0.872 0.852 0.895 0.959 0.986
3424.584 1.015 1.067 1.146 1.113 1.147 1.336 1.434 1.521 1.6663 1.599
3443.877 1.539 1.6457 1.607 1.8221 1.9495 1.8944 1.8588 1.6448 1.7222 1.9125
3463.171 1.8749 1.80893 1.592 1.532 1.583 1.521 1.258 0.956 1.022 1.14
3482.464 1.044 0.815 0.69 0.59 0.46 0.6 0.744 0.62 0.51 0.765
3501.758 1.009 0.955 0.775 0.65 0.738 0.7 0.68 0.65 0.51 0.52
3521.051 0.7 0.756 0.768 0.895 0.79 0.57 0.64 0.64 0.46 0.53
3540.344 0.789 0.67 0.53 0.66 0.799 0.776 0.67 0.63 0.59 0.62
3559.638 0.59 0.56 0.64 0.737 0.65 0.66 0.68 0.67 0.722 0.67
3578.931 0.65 0.817 0.872 0.747 0.68 0.736 0.791 0.7 0.66 0.61
3598.225 0.53 0.45 0.27 0.51 0.763 0.67 0.69 0.67 0.62 0.57
3617.518 0.6 0.792 0.847 0.68 0.68 0.765 0.745 0.721 0.72 0.68
3636.812 0.723 0.727 0.67 0.68 0.65 0.65 0.79 0.813 0.802 0.899
3656.105 0.81 0.7 0.756 0.822 0.7 0.62 0.78 0.69 0.66 0.782
3675.398 0.738 0.69 0.58 0.6 0.76 0.824 0.761 0.69 0.726 0.82
3694.692 0.813 0.822 0.886 0.807 0.67 0.68 0.749 0.945 1.057 0.864
3713.985 0.67 0.73 0.745 0.66 0.67 0.772 0.89 0.893 0.947 0.874
3733.279 0.72 0.65 0.65 0.71 0.71 0.766 0.889 1.029 0.968 0.831
3752.572 0.904 0.907 0.774 0.734 0.905 0.846 0.68 0.65 0.71 0.7
3771.866 0.62 0.72 0.832 0.808 0.817 0.849 0.875 0.934 0.87 0.855
3791.159 0.917 0.93 0.804 0.774 0.881 0.828 0.806 0.976 1.034 0.842
3810.452 0.766 0.881 0.906 0.801 0.754 0.776 0.825 0.895 0.899 0.734
3829.746 0.64 0.833 1.021 1.069 1.07 1.059 0.967 1.008 0.992 0.959
3849.039 0.948 0.839 0.869 0.903 0.894 0.89 0.837 0.785 0.87 0.972
3868.333 0.978 1.001 0.903 0.71 0.8 0.872 0.89 1.007 1.095 1.019
3887.626 0.962 1.001 0.879 0.891 1.047 1.023 0.903 0.937 1.089 1.142
3906.920 1.143 1.093 1.005 1.043 1.153 1.054 0.991 1.05 1.049 1.064
3926.213 1.107 1.107 1.046 1.072 1.068 1.062 1.005 1.035 1.219 1.214
3945.506 1.136 1.176 1.198 1.128 1.082 1.155 1.149 1.212 1.183 1.097
3964.800 1.233 1.209 1.077 1.122 1.157 1.163 1.202 1.217 1.249 1.214
3984.093 1.188 1.158 1.157 1.21 1.168 1.224 1.272 1.162 1.113
##END=
