##TITLE=trans-4-Methyl-2-heptene
##JCAMP-DX=4.24
##DATA TYPE=INFRARED SPECTRUM
##ORIGIN=NIST Mass Spectrometry Data Center
##OWNER=NIST Standard Reference Data Program
Collection (C) 2018 copyright by the U.S. Secretary of Commerce
on behalf of the United States of America. All rights reserved.
##CAS REGISTRY NO=66225-17-0
##MOLFORM=C 8 H 16
##$NIST SOURCE=MSDC-IR
##SPECTROMETER/DATA SYSTEM=HP-GC/MS/IRD
##STATE=gas
##XUNITS=1/CM
##YUNITS=ABSORBANCE
##XFACTOR=1.0
##YFACTOR=0.000001900
##DELTAX=4.0
##FIRSTX=550.0
##LASTX=3846.0
##FIRSTY=0.000156
##MAXX=3846
##MINX=550
##MAXY=0.019
##MINY=0
##NPOINTS=825
##XYDATA=(X++(Y..Y))
550.0 82 63 46 33 16 50 78 83 76 51
590.0 58 11 9 61 74 72 68 90 105 90
630.0 73 51 32 49 60 96 104 85 73 54
670.0 31 23 29 36 40 49 38 42 65 92
710.0 111 108 111 109 119 127 153 185 225 232
750.0 190 164 141 123 111 90 76 74 90 97
790.0 93 98 97 84 91 85 63 95 108 96
830.0 91 103 111 102 120 140 137 142 150 154
870.0 166 177 176 187 197 206 226 256 267 260
910.0 283 301 314 341 378 417 458 571 729 945
950.0 1263 1646 2019 2299 2443 2374 2069 1636 1256 973
990.0 751 602 508 455 429 395 371 365 350 337
1030.0 335 312 282 261 243 238 225 223 214 203
1070.0 186 179 193 187 167 163 181 195 203 211
1110.0 196 178 183 183 177 166 151 150 160 163
1150.0 177 178 157 143 134 132 132 131 119 99
1190.0 93 86 95 117 121 135 147 144 156 163
1230.0 157 144 134 125 124 152 175 186 191 203
1270.0 214 214 218 227 224 226 241 256 270 276
1310.0 279 271 267 273 287 307 324 344 377 402
1350.0 415 426 452 506 575 674 773 848 898 871
1390.0 765 655 545 443 391 369 363 381 405 451
1430.0 527 623 747 900 1064 1225 1364 1436 1425 1338
1470.0 1215 1044 854 691 554 453 379 323 285 259
1510.0 235 221 206 195 186 168 159 155 138 125
1550.0 122 123 129 119 113 111 110 110 103 98
1590.0 101 101 92 89 105 99 75 79 89 88
1630.0 87 92 88 92 98 99 105 106 103 107
1670.0 109 102 96 98 93 72 65 74 79 73
1710.0 73 85 88 85 98 107 112 124 129 131
1750.0 127 114 102 92 83 74 60 45 44 44
1790.0 47 55 59 60 57 60 62 62 62 60
1830.0 63 60 50 46 41 35 32 36 35 34
1870.0 35 33 27 31 34 29 28 25 22 19
1910.0 16 24 30 22 20 26 26 25 27 20
1950.0 20 26 16 8 13 15 17 22 30 42
1990.0 43 36 41 47 34 31 30 29 35 32
2030.0 28 28 26 11 14 25 16 12 21 21
2070.0 18 16 19 10 0 1 7 16 15 8
2110.0 7 15 15 19 29 24 18 21 24 19
2150.0 16 16 7 7 16 20 24 26 25 29
2190.0 26 21 25 26 25 25 28 27 27 20
2230.0 19 25 22 17 16 15 12 10 13 15
2270.0 17 22 26 28 30 22 20 31 30 33
2310.0 32 25 28 38 36 31 40 42 33 35
2350.0 44 44 48 47 41 43 45 43 38 40
2390.0 37 33 39 42 47 51 49 42 40 43
2430.0 39 33 38 32 29 33 31 37 34 27
2470.0 31 34 27 29 26 22 15 12 26 32
2510.0 30 33 35 43 54 54 51 50 49 46
2550.0 43 42 42 46 49 56 66 64 60 62
2590.0 58 55 67 74 67 66 70 68 67 72
2630.0 75 69 79 92 85 76 80 90 90 102
2670.0 112 102 104 101 100 93 95 112 120 135
2710.0 136 139 162 180 200 226 249 261 262 265
2750.0 240 222 216 204 207 216 229 246 251 265
2790.0 283 310 339 365 400 432 469 507 562 626
2830.0 711 844 1023 1267 1557 1892 2287 2754 3241 3702
2870.0 4176 4580 4789 4842 4786 4657 4565 4592 4774 5085
2910.0 5538 6086 6666 7215 7635 7884 7925 7750 7455 7230
2950.0 7278 7719 8598 9541 10000 9749 8794 7368 5724 4270
2990.0 3267 2653 2253 1971 1788 1687 1606 1534 1494 1441
3030.0 1374 1278 1158 1043 940 844 758 678 611 566
3070.0 517 491 472 451 421 390 378 357 323 302
3110.0 305 289 269 272 275 254 228 213 205 202
3150.0 189 184 192 176 165 162 152 149 142 134
3190.0 121 117 113 96 102 104 94 77 63 69
3230.0 73 62 50 53 59 54 48 56 46 42
3270.0 45 37 25 20 25 25 38 60 66 58
3310.0 53 49 35 30 44 38 32 55 67 63
3350.0 63 56 52 48 46 43 43 50 48 58
3390.0 58 45 37 44 51 44 43 42 58 52
3430.0 51 61 47 40 26 19 38 43 34 37
3470.0 37 26 19 10 23 46 35 21 39 41
3510.0 34 34 33 36 20 24 43 36 39 32
3550.0 27 23 16 18 30 31 38 22 14 38
3590.0 40 27 16 13 20 15 10 22 15 12
3630.0 27 36 49 48 38 46 34 19 27 30
3670.0 38 40 24 21 28 30 29 31 56 68
3710.0 64 69 64 47 54 67 72 72 68 64
3750.0 71 69 47 37 70 73 74 76 54 53
3790.0 58 62 65 62 69 64 54 64 63 50
3830.0 55 41 29 48 54
##END=
