##TITLE=Esfenvalerate
##JCAMP-DX=4.24
##DATA TYPE=INFRARED SPECTRUM
##ORIGIN=NIST Mass Spectrometry Data Center
##OWNER=NIST Standard Reference Data Program
Collection (C) 2018 copyright by the U.S. Secretary of Commerce
on behalf of the United States of America. All rights reserved.
##CAS REGISTRY NO=66230-04-4
##MOLFORM=C 25 H 22 Cl N O 3
##SOURCE REFERENCE=No.289794 (NIST/EPA/NIH MS Database)
##$NIST SOURCE=MSDC-IR
##SPECTROMETER/DATA SYSTEM=HP-GC/MS/IRD
##STATE=gas
##XUNITS=1/CM
##YUNITS=ABSORBANCE
##XFACTOR=1.0
##YFACTOR=0.000003600
##DELTAX=4.0
##FIRSTX=550.0
##LASTX=3846.0
##FIRSTY=0.001030
##MAXX=3846
##MINX=550
##MAXY=0.036
##MINY=0
##NPOINTS=825
##XYDATA=(X++(Y..Y))
550.0 286 325 140 164 144 137 111 88 77 72
590.0 58 34 23 6 2 16 15 24 42 60
630.0 89 105 109 115 128 156 177 192 209 227
670.0 271 366 551 910 1572 2304 2371 1752 1128 757
710.0 583 547 599 649 645 636 707 883 1126 1372
750.0 1520 1599 1692 1752 1714 1616 1552 1568 1633 1644
790.0 1552 1377 1190 1044 982 1028 1117 1277 1477 1590
830.0 1568 1497 1438 1306 1046 777 613 564 613 722
870.0 867 979 1020 999 937 914 964 1068 1212 1378
910.0 1501 1539 1473 1331 1218 1145 1046 936 857 840
950.0 882 953 1006 1024 1059 1140 1293 1536 1840 2180
990.0 2494 2772 2974 3004 3103 3613 4275 4166 3311 2549
1030.0 2001 1580 1282 1062 894 805 773 812 948 1176
1070.0 1444 1769 2184 2774 3783 5269 6370 6300 5872 5745
1110.0 5439 4848 4321 3967 3837 3992 4286 4468 4403 4114
1150.0 3732 3435 3400 3530 3519 3411 3497 3761 3932 3922
1190.0 4016 4404 5073 5916 6500 6350 5584 4879 4730 5169
1230.0 6002 6936 7651 8001 8006 7649 7048 6531 6302 6219
1270.0 5968 5391 4634 3950 3454 3103 2804 2536 2330 2197
1310.0 2127 2086 2022 1919 1804 1682 1572 1503 1470 1423
1350.0 1311 1147 991 886 831 839 880 835 741 720
1390.0 796 874 841 743 728 785 813 803 823 903
1430.0 1064 1370 1897 2612 3208 3269 2839 2344 2102 2164
1470.0 2561 3401 4898 7153 9388 10000 8199 5201 2921 1774
1510.0 1194 877 684 567 489 443 428 434 454 492
1550.0 564 688 890 1201 1599 2079 2693 3596 4665 5383
1590.0 5271 4485 3507 2672 2093 1648 1230 874 629 478
1630.0 390 341 305 279 254 223 204 193 181 175
1670.0 172 177 190 207 216 222 247 273 309 344
1710.0 382 433 493 552 623 730 893 1139 1536 2167
1750.0 3171 4552 5891 6380 5618 4143 2752 1825 1272 930
1790.0 720 574 473 399 340 294 262 237 217 200
1830.0 187 176 171 173 177 181 185 182 176 171
1870.0 162 155 155 159 173 187 184 161 135 118
1910.0 116 123 144 166 195 209 196 172 151 137
1950.0 125 110 91 77 73 73 70 67 73 77
1990.0 84 87 81 79 81 81 81 88 94 92
2030.0 93 96 102 104 98 93 89 81 72 68
2070.0 63 59 52 43 41 38 37 37 36 34
2110.0 31 25 17 15 11 8 9 6 4 6
2150.0 7 8 11 9 3 2 6 8 4 3
2190.0 5 3 0 0 0 4 3 1 1 7
2230.0 12 17 32 50 58 56 45 28 17 14
2270.0 14 10 12 17 20 18 19 18 23 34
2310.0 37 40 35 32 30 29 24 22 20 18
2350.0 20 24 25 24 26 33 42 49 56 63
2390.0 70 72 71 73 74 73 72 71 70 63
2430.0 61 61 57 61 62 58 48 45 45 39
2470.0 34 30 30 32 33 37 37 33 34 35
2510.0 30 27 25 23 25 24 26 30 27 26
2550.0 26 30 37 43 42 39 44 49 47 44
2590.0 48 49 48 49 47 41 38 41 35 28
2630.0 28 25 22 18 16 16 14 15 15 6
2670.0 6 13 11 9 9 8 8 13 12 3
2710.0 1 3 8 13 19 24 30 39 42 37
2750.0 36 42 30 22 25 25 32 27 23 22
2790.0 16 8 11 17 21 22 30 45 52 53
2830.0 59 70 77 84 93 111 137 161 199 262
2870.0 352 510 737 918 902 757 642 602 608 634
2910.0 669 702 756 841 975 1178 1407 1578 1627 1547
2950.0 1403 1343 1471 1855 2445 2889 2899 2639 2230 1608
2990.0 1030 684 483 373 314 299 323 368 424 508
3030.0 630 744 838 909 933 903 838 803 817 861
3070.0 929 1045 1177 1218 1130 970 815 673 552 443
3110.0 331 227 176 137 97 76 74 75 64 46
3150.0 43 47 54 55 48 42 34 38 50 51
3190.0 44 32 32 33 26 22 22 18 23 24
3230.0 14 16 24 21 19 22 16 5 12 27
3270.0 27 23 10 9 12 9 5 4 2 6
3310.0 15 17 18 19 27 34 27 21 20 23
3350.0 27 19 9 14 32 42 38 30 37 43
3390.0 36 32 34 35 30 31 36 36 27 24
3430.0 40 44 50 59 47 54 55 51 57 49
3470.0 50 64 68 73 77 81 93 100 99 113
3510.0 114 106 99 95 91 88 92 90 84 69
3550.0 56 62 70 57 55 69 77 76 68 62
3590.0 63 68 83 91 76 61 57 59 62 53
3630.0 61 59 62 78 80 79 72 75 83 85
3670.0 82 87 84 73 77 70 67 68 67 63
3710.0 60 59 59 69 65 60 70 77 65 65
3750.0 79 80 76 68 73 84 82 58 52 74
3790.0 73 65 59 63 69 67 57 55 58 67
3830.0 72 71 84 86 77
##END=
