##TITLE=3,8-Dimethyl-4,6-decadiyne-3,8-diol
##JCAMP-DX=4.24
##DATA TYPE=INFRARED SPECTRUM
##ORIGIN=NIST Mass Spectrometry Data Center
##OWNER=NIST Standard Reference Data Program
Collection (C) 2018 copyright by the U.S. Secretary of Commerce
on behalf of the United States of America. All rights reserved.
##CAS REGISTRY NO=6626-33-1
##MOLFORM=C 12 H 18 O 2
##$NIST SOURCE=MSDC-IR
##SPECTROMETER/DATA SYSTEM=HP-GC/MS/IRD
##STATE=gas
##XUNITS=1/CM
##YUNITS=ABSORBANCE
##XFACTOR=1.0
##YFACTOR=0.000001800
##DELTAX=4.0
##FIRSTX=550.0
##LASTX=3846.0
##FIRSTY=0.001822
##MAXX=3846
##MINX=550
##MAXY=0.018
##MINY=0
##NPOINTS=825
##XYDATA=(X++(Y..Y))
550.0 1012 916 740 714 708 682 747 843 912 873
590.0 802 732 647 578 510 477 460 443 432 412
630.0 379 334 272 249 271 276 263 245 222 210
670.0 224 235 231 201 182 185 212 216 195 183
710.0 165 147 107 99 91 79 62 62 58 35
750.0 32 10 17 30 19 43 85 123 183 245
790.0 261 255 225 193 180 163 155 167 155 137
830.0 152 159 168 171 172 186 198 231 275 318
870.0 379 485 607 777 1022 1354 1744 2179 2737 3484
910.0 4347 4997 5016 4319 3259 2280 1586 1153 897 768
950.0 720 700 726 802 936 1169 1483 1833 2189 2500
990.0 2714 2796 2755 2628 2491 2370 2247 2145 2075 2020
1030.0 2024 2093 2215 2341 2398 2271 1961 1597 1297 1126
1070.0 1092 1143 1239 1357 1509 1675 1841 2000 2155 2311
1110.0 2472 2690 2988 3303 3654 4016 4313 4519 4681 4845
1150.0 5030 5239 5398 5383 5172 4795 4380 4064 3876 3746
1190.0 3576 3312 3032 2769 2513 2318 2193 2103 2017 1974
1230.0 1979 1965 1966 1989 1996 2014 2056 2098 2142 2171
1270.0 2216 2292 2411 2611 2876 3160 3426 3641 3826 4026
1310.0 4223 4408 4591 4722 4721 4646 4645 4700 4622 4317
1350.0 3842 3349 2968 2728 2614 2650 2794 2869 2750 2434
1390.0 1998 1573 1238 981 823 719 673 681 688 708
1430.0 767 881 1012 1134 1266 1383 1497 1552 1535 1450
1470.0 1288 1055 793 600 481 401 342 297 272 296
1510.0 272 216 213 213 196 184 175 175 176 161
1550.0 151 168 188 173 158 151 147 131 116 108
1590.0 95 98 95 93 101 95 101 110 103 84
1630.0 69 64 58 73 81 88 106 83 60 59
1670.0 65 66 52 72 82 55 60 77 69 44
1710.0 36 60 64 36 29 53 67 48 35 43
1750.0 55 37 24 28 30 24 15 11 25 31
1790.0 28 21 27 43 37 41 41 41 47 53
1830.0 51 43 36 33 29 24 7 1 13 15
1870.0 21 20 19 25 32 34 33 35 29 34
1910.0 39 33 36 40 33 27 28 29 28 23
1950.0 27 32 21 20 23 16 13 23 28 19
1990.0 12 6 5 12 17 16 11 14 17 25
2030.0 31 31 23 20 33 34 28 31 36 42
2070.0 48 48 45 42 43 49 59 65 70 93
2110.0 131 169 201 241 292 358 432 497 548 571
2150.0 554 485 387 290 205 141 100 75 67 51
2190.0 38 40 46 46 38 36 45 45 37 39
2230.0 40 39 44 40 38 42 43 42 48 47
2270.0 39 36 41 53 51 46 51 47 35 24
2310.0 22 23 14 5 5 7 5 2 1 14
2350.0 24 11 1 3 15 37 49 46 53 55
2390.0 50 43 36 37 42 44 45 31 30 37
2430.0 32 35 42 39 32 35 39 39 36 32
2470.0 26 24 17 12 14 17 21 22 26 33
2510.0 32 22 25 32 20 7 6 12 16 10
2550.0 20 30 32 32 23 17 24 34 39 42
2590.0 40 34 30 36 31 25 26 26 28 34
2630.0 35 30 25 31 29 25 34 40 32 33
2670.0 43 40 30 34 40 38 37 34 32 34
2710.0 43 54 50 49 72 84 81 95 108 122
2750.0 134 131 132 139 121 113 129 116 125 146
2790.0 154 158 159 174 194 209 229 252 263 278
2830.0 312 363 416 478 593 734 867 1010 1139 1294
2870.0 1468 1619 1775 1976 2223 2401 2437 2340 2175 2045
2910.0 2018 2146 2463 3016 3786 4636 5451 6179 6642 6491
2950.0 5721 4791 4135 3949 4359 5473 7192 8933 10000 9991
2990.0 8927 7085 5071 3456 2292 1570 1154 894 736 609
3030.0 524 450 388 351 336 315 293 284 284 286
3070.0 286 285 283 281 279 283 275 262 246 225
3110.0 206 189 165 148 154 134 131 146 127 110
3150.0 107 109 114 117 104 95 90 101 113 104
3190.0 98 99 98 99 117 117 112 106 92 85
3230.0 91 85 66 56 56 54 47 48 47 22
3270.0 18 27 10 12 22 13 24 27 22 26
3310.0 15 7 15 26 14 17 41 42 29 25
3350.0 33 46 43 46 51 68 80 75 64 62
3390.0 75 62 56 60 60 39 36 49 50 54
3430.0 41 32 28 16 30 38 26 34 36 39
3470.0 44 51 54 43 38 39 49 42 22 22
3510.0 32 48 57 49 34 25 24 12 25 49
3550.0 40 19 9 20 56 55 45 41 27 38
3590.0 52 59 72 109 147 188 273 409 632 988
3630.0 1436 1826 2087 2107 1852 1426 989 603 344 221
3670.0 176 128 75 37 54 49 13 15 18 22
3710.0 25 24 24 25 15 1 13 27 38 33
3750.0 17 14 1 1 1 1 1 1 2 1
3790.0 1 5 16 8 1 1 1 1 1 3
3830.0 2 0 16 37 12
##END=
