##TITLE=4-Bromo-3-chlorotoluene
##JCAMP-DX=4.24
##DATA TYPE=INFRARED SPECTRUM
##ORIGIN=EPA-IR VAPOR PHASE LIBRARY
##OWNER=SRD/NIST
Collection (C) 2018 copyright by the U.S. Secretary of Commerce
on behalf of the United States of America. All rights reserved.
##CAS REGISTRY NO=6627-51-6
##MOLFORM=C 7 H 6 Br Cl
##$NIST SOURCE=MSDC-IR
##STATE=gas
##XUNITS=1/CM
##YUNITS=ABSORBANCE
##XFACTOR=1.
##YFACTOR=0.001
##DELTAX=1.92898
##FIRSTX=549.8
##LASTX=4000.7
##FIRSTY=4.086
##MAXX=4000.7
##MINX=549.759
##MAXY=0.065616
##MINY=0
##NPOINTS=1790
##XYDATA=(X++(Y..Y))
549.759 4.086 3.456 2.836 2.446 1.716 1.286 0.8605 0.6595 0.7621 0.6177
569.049 0.979 1.276 1.346 1.346 1.406 1.686 1.916 2.406 3.016 3.756
588.339 4.446 5.076 5.756 6.416 7.126 7.336 7.116 6.226 5.136 4.446
607.628 3.786 3.096 2.526 1.856 1.186 0.9239 0.8964 0.7922 0.5706 0.3474
626.918 0.2972 0.3518 0.4783 0.4705 0.2879 0.3796 0.533 0.21325 0.0721 0.2491
646.208 0.3395 0.3958 0.4914 0.5212 0.4993 0.7495 0.7831 0.7869 1.246 1.396
665.498 1.396 1.916 2.506 3.146 3.986 5.196 6.896 8.716 10.116 10.776
684.787 10.456 9.786 10.156 10.566 9.346 7.186 5.146 3.636 2.666 1.936
704.077 1.686 1.676 1.346 1.386 1.516 1.356 1.366 1.406 1.366 1.516
723.367 1.466 1.156 1.0409 0.8323 0.7201 0.5807 0.3972 0.5669 0.7091 0.5569
742.657 0.4945 0.5679 0.5284 0.2671 0.2251 0.4534 0.5077 0.4755 0.5348 0.6379
761.947 0.7827 0.968 1.256 1.516 1.636 1.796 2.166 2.516 2.726 2.936
781.236 3.136 3.716 4.736 6.006 7.936 10.546 13.466 16.496 19.446 22.536
800.526 26.436 31.786 38.126 39.096 31.076 24.186 21.706 19.346 16.496 13.196
819.816 10.376 7.926 5.856 4.776 4.466 4.426 4.196 4.076 4.316 4.586
839.106 4.526 4.666 5.116 5.636 6.566 7.736 9.426 11.826 14.456 16.866
858.395 18.946 20.486 21.816 23.816 25.956 27.196 26.226 22.466 18.686 16.526
877.685 14.756 12.516 9.926 7.546 5.726 4.436 3.506 2.776 2.146 1.796
896.975 1.796 1.716 1.496 1.386 1.376 1.216 1.129 1.036 0.8031 0.7709
916.265 0.8558 0.8008 0.7006 0.6838 0.7757 0.7849 0.6651 0.7182 0.7526 0.8759
935.555 1.0358 1.0918 1.246 1.316 1.306 1.456 1.726 1.816 1.626 1.596
954.844 1.666 1.636 1.696 1.756 1.766 1.606 1.496 1.696 1.776 1.796
974.134 2.086 2.316 2.376 2.666 2.996 3.156 3.226 3.396 3.456 3.526
993.424 3.816 4.066 4.206 4.496 5.246 6.226 7.696 9.646 12.486 16.456
1012.714 21.176 26.236 30.726 33.676 35.066 35.596 35.056 32.936 29.206 23.946
1032.003 17.956 12.906 9.386 7.236 5.876 4.766 4.136 3.916 3.616 3.246
1051.293 3.206 3.186 2.976 2.536 2.146 2.086 1.916 1.916 2.056 2.016
1070.583 1.886 1.766 1.736 1.946 1.786 1.366 1.606 2.166 2.276 2.426
1089.873 3.006 2.756 2.816 3.636 4.246 5.226 6.796 8.766 11.216 14.706
1109.163 18.946 23.476 27.776 31.416 33.706 34.396 34.416 33.166 29.836 25.396
1128.452 20.386 15.276 11.466 9.166 7.406 6.366 5.796 4.766 4.086 3.786
1147.742 3.656 3.676 3.216 2.796 2.576 1.896 1.596 1.726 1.596 1.526
1167.032 1.616 1.576 1.546 1.596 1.376 1.316 1.426 1.686 1.686 1.556
1186.322 1.846 2.126 2.156 2.206 2.286 2.696 3.426 3.596 4.166 4.836
1205.611 5.326 5.926 6.086 6.146 6.016 5.846 5.736 5.576 5.356 4.746
1224.901 4.156 3.886 3.526 3.496 3.436 3.316 3.176 3.126 3.286 3.106
1244.191 3.286 3.616 4.086 4.866 5.606 6.196 6.656 6.966 7.046 7.126
1263.481 6.926 6.536 6.156 5.436 4.416 3.546 2.846 2.266 1.806 1.436
1282.771 1.266 1.226 1.1368 1.0359 1.0181 1.0193 1.0423 1.0166 0.9917 1.0313
1302.060 1.0617 1.0075 0.8946 0.9566 1.0223 1.0207 1.0696 1.1061 1.1 1.105
1321.350 1.1132 1.1059 1.0695 1.1166 1.186 1.226 1.296 1.376 1.456 1.546
1340.640 1.716 1.876 2.006 2.176 2.326 2.546 2.936 3.346 3.766 4.276
1359.930 4.926 5.726 6.686 7.736 8.796 9.776 10.596 11.406 12.376 13.416
1379.219 14.356 14.916 15.066 14.886 14.596 14.366 13.966 13.276 12.376 11.376
1398.509 10.466 9.736 9.306 9.146 9.116 9.166 9.176 9.056 8.926 8.696
1417.799 8.346 7.876 7.286 6.756 6.426 6.136 5.966 5.966 6.036 6.206
1437.089 6.536 6.946 7.476 8.286 9.506 11.296 13.796 17.106 21.716 27.656
1456.378 35.006 43.406 51.596 58.736 63.526 65.616 65.086 62.256 57.206 50.186
1475.668 42.036 33.636 26.366 21.106 17.886 16.136 15.116 14.206 13.326 12.396
1494.958 11.246 10.036 8.846 7.716 6.786 6.136 5.656 5.286 5.126 5.046
1514.248 4.936 4.906 4.926 4.966 5.016 5.046 5.166 5.276 5.396 5.536
1533.538 5.736 5.966 6.176 6.426 6.596 6.746 6.866 6.896 6.946 7.086
1552.827 7.186 7.206 7.176 7.146 7.026 6.776 6.566 6.306 6.046 5.916
1572.117 5.906 5.866 5.896 6.246 6.626 7.106 7.686 8.116 8.296 8.256
1591.407 8.006 7.516 6.966 6.226 5.276 4.416 3.746 3.286 3.026 2.836
1610.697 2.626 2.416 2.226 2.066 1.896 1.676 1.516 1.386 1.216 1.0388
1629.986 0.9469 0.995 1.0032 0.9232 0.8359 0.7754 0.7299 0.6455 0.5949 0.5842
1649.276 0.5783 0.6611 0.7094 0.6438 0.6196 0.6522 0.6974 0.7389 0.7636 0.8407
1668.566 0.961 1.0465 1.0746 1.1437 1.156 1.0962 1.0672 1.0689 1.0287 0.9207
1687.856 0.8444 0.8226 0.7998 0.7365 0.7334 0.7444 0.7543 0.783 0.7943 0.8048
1707.146 0.8518 0.9308 0.9821 1.0315 1.1141 1.196 1.256 1.346 1.476 1.676
1726.435 1.926 2.066 2.206 2.296 2.376 2.426 2.466 2.476 2.426 2.316
1745.725 2.116 1.896 1.716 1.496 1.236 1.0142 0.8328 0.6921 0.5933 0.527
1765.015 0.4566 0.4491 0.4363 0.3945 0.4214 0.4197 0.4393 0.4854 0.5098 0.5616
1784.305 0.5631 0.5423 0.5642 0.6111 0.6898 0.7547 0.7959 0.8983 1.039 1.0749
1803.594 1.0541 1.186 1.346 1.386 1.396 1.426 1.406 1.286 1.206 1.1356
1822.884 0.983 0.8275 0.7127 0.6056 0.5343 0.5321 0.5202 0.5124 0.5282 0.5379
1842.174 0.5189 0.5455 0.5835 0.5422 0.5434 0.5953 0.596 0.6093 0.6681 0.5974
1861.464 0.5732 0.6668 0.7424 0.8444 0.9143 1.0587 1.226 1.356 1.556 1.746
1880.754 1.946 2.156 2.206 2.276 2.316 2.236 2.086 1.926 1.796 1.596
1900.043 1.396 1.146 0.9208 0.7926 0.699 0.6034 0.5482 0.5269 0.515 0.5341
1919.333 0.5027 0.468 0.461 0.4318 0.3995 0.3915 0.4132 0.3553 0.2766 0.2997
1938.623 0.3228 0.2935 0.24497 0.2795 0.3631 0.2776 0.19437 0.2115 0.22304 0.23328
1957.913 0.2709 0.2685 0.2697 0.2978 0.3119 0.3591 0.3366 0.2912 0.3602 0.4382
1977.202 0.4157 0.4031 0.3855 0.3758 0.4078 0.4311 0.4601 0.3944 0.3485 0.374
1996.492 0.4198 0.3885 0.3152 0.3386 0.3374 0.3307 0.3015 0.2891 0.2602 0.20718
2015.782 0.22319 0.22624 0.23494 0.2698 0.2709 0.3024 0.284 0.22886 0.2559 0.2742
2035.072 0.22828 0.24547 0.3545 0.3422 0.32 0.3505 0.3132 0.2644 0.2469 0.2464
2054.362 0.2714 0.2671 0.24318 0.2579 0.2721 0.279 0.276 0.2803 0.23719 0.2912
2073.651 0.3242 0.2958 0.2746 0.2893 0.295 0.2462 0.2539 0.23498 0.2346 0.20045
2092.941 0.21188 0.2652 0.2647 0.2473 0.2502 0.2605 0.2499 0.24266 0.23719 0.2554
2112.231 0.23658 0.2327 0.2931 0.276 0.22551 0.2599 0.2782 0.2915 0.3577 0.3447
2131.521 0.2968 0.3227 0.3061 0.281 0.22917 0.1874 0.23038 0.2668 0.3482 0.3278
2150.810 0.2744 0.2961 0.2667 0.2743 0.3178 0.3118 0.3068 0.3116 0.3099 0.3185
2170.100 0.2945 0.2714 0.23537 0.24274 0.23818 0.24234 0.297 0.3102 0.3158 0.261
2189.390 0.24257 0.2984 0.2783 0.2591 0.20331 0.17587 0.20844 0.17969 0.21351 0.22237
2208.680 0.17144 0.21342 0.2432 0.2772 0.3261 0.24147 0.150531 0.1072 0.1289 0.20118
2227.970 0.2546 0.23207 0.2565 0.3457 0.3358 0.3254 0.3814 0.3825 0.3518 0.3713
2247.259 0.3959 0.4027 0.4285 0.4487 0.4603 0.4273 0.3493 0.3516 0.3988 0.3771
2266.549 0.3317 0.3546 0.3978 0.4279 0.4111 0.4179 0.4446 0.3585 0.3625 0.4451
2285.839 0.4755 0.4484 0.3787 0.3872 0.4156 0.4063 0.3513 0.301 0.22984 0.16062
2305.129 0.19044 0.22308 0.2576 0.2731 0.23674 0.22511 0.2613 0.23232 0.17517 0.22728
2324.418 0.3007 0.2987 0.2901 0.3557 0.3758 0.3304 0.3188 0.3315 0.3257 0.3163
2343.708 0.3684 0.3739 0.3459 0.4073 0.4768 0.4929 0.5367 0.5651 0.5571 0.5826
2362.998 0.5958 0.6306 0.6838 0.658 0.5998 0.615 0.6815 0.6712 0.604 0.6125
2382.288 0.6381 0.6329 0.6237 0.6242 0.5512 0.4638 0.5053 0.5083 0.463 0.4898
2401.578 0.4893 0.393 0.4285 0.493 0.4311 0.4277 0.4861 0.4362 0.4416 0.4428
2420.867 0.3991 0.4241 0.4074 0.4129 0.3611 0.3591 0.3928 0.4082 0.4471 0.398
2440.157 0.3898 0.4663 0.4546 0.4193 0.4139 0.3773 0.4508 0.4559 0.4048 0.3994
2459.447 0.4198 0.4488 0.4506 0.4479 0.3681 0.4165 0.4671 0.421 0.3833 0.4053
2478.737 0.4279 0.4674 0.522 0.4779 0.4509 0.5176 0.5506 0.4649 0.3941 0.3641
2498.026 0.3432 0.3669 0.4202 0.429 0.3857 0.3896 0.4663 0.4582 0.4653 0.5375
2517.316 0.5317 0.5718 0.6339 0.6648 0.6188 0.5207 0.4847 0.5265 0.4864 0.4201
2536.606 0.4101 0.3911 0.3622 0.2763 0.2553 0.2827 0.2587 0.2532 0.2623 0.2585
2555.896 0.279 0.3218 0.2833 0.19809 0.23581 0.24409 0.3074 0.3729 0.3577 0.4272
2575.186 0.4671 0.483 0.4635 0.4548 0.5347 0.6026 0.6082 0.6026 0.6034 0.6784
2594.475 0.7186 0.6362 0.5918 0.6348 0.6414 0.6236 0.5919 0.55 0.5146 0.382
2613.765 0.4054 0.5146 0.4376 0.368 0.4159 0.3609 0.3097 0.3914 0.456 0.3684
2633.055 0.3058 0.3477 0.3531 0.4317 0.4938 0.4427 0.3489 0.3292 0.3811 0.4229
2652.345 0.3895 0.3016 0.2926 0.3046 0.2992 0.2829 0.2658 0.2737 0.16855 0.15984
2671.634 0.2664 0.24055 0.18497 0.3056 0.3758 0.21116 0.151742 0.2813 0.3188 0.2742
2690.924 0.3255 0.3711 0.3299 0.2958 0.3143 0.3548 0.3667 0.3452 0.4284 0.4697
2710.214 0.5093 0.5173 0.4225 0.3979 0.4298 0.4092 0.4028 0.4811 0.454 0.537
2729.504 0.7162 0.769 0.727 0.781 0.9105 0.9128 0.9945 1.0248 1.0924 1.296
2748.794 1.286 1.1331 0.9682 0.8355 0.7288 0.6151 0.5598 0.4544 0.3676 0.3288
2768.083 0.2913 0.3561 0.4791 0.5086 0.41 0.4652 0.5447 0.477 0.447 0.4518
2787.373 0.4951 0.6207 0.6814 0.6271 0.6753 0.7515 0.6452 0.6149 0.6233 0.6468
2806.663 0.6747 0.668 0.7903 0.8343 0.9067 0.9681 0.8926 0.9509 1.1078 1.1377
2825.953 1.186 1.206 1.196 1.316 1.436 1.476 1.566 1.716 1.846 1.966
2845.242 2.066 2.376 2.606 2.786 3.046 3.246 3.586 4.016 4.366 4.686
2864.532 5.066 5.506 5.966 6.346 6.706 7.106 7.276 7.286 7.386 7.546
2883.822 7.546 7.356 7.086 6.906 6.866 6.706 6.636 6.696 6.726 6.726
2903.112 6.686 6.716 6.746 6.806 7.076 7.376 7.636 8.136 8.906 9.846
2922.401 11.036 12.276 13.746 15.326 16.836 18.116 18.826 19.066 19.036 18.486
2941.691 17.236 15.836 14.246 12.516 11.006 9.706 8.636 7.826 7.116 6.536
2960.981 6.156 5.796 5.416 5.196 5.066 4.776 4.486 4.396 4.346 4.306
2980.271 4.276 4.266 4.406 4.536 4.666 4.906 5.116 5.346 5.696 5.996
2999.561 6.176 6.346 6.516 6.686 6.876 6.836 6.786 6.726 6.666 6.646
3018.850 6.706 6.876 7.136 7.486 7.626 7.756 8.006 8.256 8.446 8.526
3038.140 8.676 8.866 9.096 9.446 9.926 10.516 10.996 11.336 11.556 11.586
3057.430 11.566 11.406 10.916 10.156 9.156 8.106 7.216 6.396 5.706 5.126
3076.720 4.666 4.406 4.296 4.196 4.066 4.026 3.886 3.636 3.476 3.236
3096.009 2.936 2.566 2.096 1.796 1.576 1.426 1.346 1.186 1.0065 0.9646
3115.299 0.9818 0.9918 0.9038 0.8934 0.8742 0.8562 0.8517 0.6484 0.6902 0.725
3134.589 0.5836 0.5481 0.5417 0.5314 0.4952 0.522 0.6539 0.6121 0.4988 0.5181
3153.879 0.5237 0.5884 0.5566 0.488 0.5127 0.4317 0.4532 0.4468 0.18949 0.0988
3173.169 0.2587 0.3358 0.367 0.5058 0.3544 0.19887 0.3029 0.3657 0.3377 0.21749
3192.458 0.2476 0.3494 0.3006 0.21729 0.23036 0.2697 0.2845 0.2677 0.20006 0.1062
3211.748 0.0991 0.0969 0.0894 0.1114 0.1118 0.2814 0.3078 0.2879 0.4612 0.4578
3231.038 0.3727 0.3148 0.249 0.20179 0.2674 0.2896 0.3342 0.4122 0.3559 0.23119
3250.328 0.16399 0.3039 0.3665 0.3334 0.23543 0.14473 0.19993 0.2294 0.2908 0.3072
3269.617 0.2639 0.2901 0.2793 0.22522 0.1746 0.15256 0.0968 0.22609 0.273 0.18028
3288.907 0.2611 0.2998 0.3102 0.2399 0.2804 0.23147 0.1226 0.24525 0.24315 0.16916
3308.197 0.2852 0.4231 0.4023 0.3504 0.3183 0.24244 0.22094 0.18185 0.17335 0.3058
3327.487 0.3524 0.17709 0.0996 0.29 0.3302 0.23742 0.23178 0.2531 0.2775 0.22696
3346.777 0.20163 0.3607 0.3716 0.4272 0.2921 0.017 0.0932 0.24033 0.23839 0.3161
3366.066 0.42 0.20989 0.22615 0.2741 0.23378 0.2906 0.4373 0.4385 0.3212 0.2672
3385.356 0.2741 0.3062 0.23916 0.3306 0.3609 0.2867 0.2632 0.21236 0.2807 0.3678
3404.646 0.3233 0.2925 0.2565 0.24394 0.1729 0.1325 0.1065 0.15707 0.21508 0.16579
3423.936 0.1116 0.1131 0.22257 0.23012 0.20914 0.22491 0.17203 0.20591 0.349 0.296
3443.225 0.2455 0.4798 0.4815 0.23223 0.0848 0.019 0.0634 0.15876 0.1447 0.18177
3462.515 0.3702 0.4363 0.407 0.3713 0.22915 0.14208 0.17018 0.3083 0.3347 0.19407
3481.805 0.148317 0.15836 0.2543 0.2788 0.2795 0.23758 0.24196 0.2752 0.23228 0.2554
3501.095 0.3001 0.3134 0.3379 0.3704 0.3016 0.18553 0.21872 0.23753 0.2884 0.2982
3520.385 0.1076 0.1302 0.20987 0.2663 0.283 0.2875 0.2585 0.21179 0.2689 0.22506
3539.674 0.19998 0.1233 0.1169 0.21673 0.15617 0.19585 0.3754 0.4203 0.3064 0.18841
3558.964 0.147171 0.18976 0.2084 0.19043 0.2473 0.21745 0.1288 0.13822 0.19692 0.19017
3578.254 0.21545 0.3279 0.4076 0.4009 0.2479 0.13859 0.1098 0.17654 0.395 0.3909
3597.544 0.2463 0.18253 0.0618 0.0839 0.3211 0.4176 0.17038 0.0908 0.2567 0.2734
3616.833 0.2929 0.3564 0.24261 0.19293 0.23894 0.22362 0.2763 0.3252 0.3063 0.3094
3636.123 0.3267 0.22403 0.2748 0.3278 0.23813 0.15872 0.16963 0.2482 0.2922 0.3163
3655.413 0.2797 0.23083 0.1853 0.16384 0.1622 0.1179 0.21579 0.3484 0.4033 0.487
3674.703 0.3746 0.17391 0.0983 0.14292 0.0887 0.1022 0.2923 0.3565 0.2479 0.15812
3693.993 0.16774 0.2423 0.2836 0.18105 0.147542 0.23866 0.3266 0.4532 0.3493 0.23244
3713.282 0.16436 0.155353 0.3431 0.441 0.3259 0.16277 0.22643 0.2875 0.19273 0.256
3732.572 0.2747 0.14395 0.17564 0.1632 0.2518 0.3937 0.3719 0.4594 0.5414 0.483
3751.862 0.2849 0.0824 0.135 0.3064 0.4079 0.3366 0.3048 0.4543 0.5772 0.5143
3771.152 0.4053 0.3744 0.2712 0.2936 0.2917 0.19225 0.2935 0.3416 0.305 0.3415
3790.441 0.3287 0.18496 0.1002 0.21415 0.2829 0.22944 0.2801 0.19938 0.149916 0.19201
3809.731 0.249 0.3476 0.3305 0.2992 0.3167 0.306 0.16839 0.0963 0.22238 0.20185
3829.021 0.04 0.1266 0.3232 0.3811 0.3593 0.2763 0.3155 0.3949 0.3191 0.20027
3848.311 0.2682 0.3758 0.2773 0.3403 0.3435 0.2998 0.15906 0 0.16749 0.3107
3867.601 0.4459 0.5958 0.4754 0.18946 0.14261 0.3312 0.5122 0.5513 0.3374 0.22251
3886.890 0.2563 0.4037 0.4214 0.3002 0.2643 0.0843 0.0746 0.149236 0.1213 0.20253
3906.180 0.3333 0.4385 0.4261 0.3187 0.2471 0.3646 0.4159 0.3823 0.3935 0.2182
3925.470 0.16717 0.18947 0.22643 0.21998 0.18346 0.2515 0.4513 0.6005 0.5059 0.3366
3944.760 0.2092 0.2676 0.3286 0.16838 0.20229 0.4261 0.4473 0.3897 0.3592 0.3045
3964.049 0.18672 0.2508 0.4787 0.5391 0.3528 0.154004 0.24197 0.2409 0.1155 0.103
3983.339 0.20404 0.2864 0.378 0.4895 0.3601 0.23496 0.23411 0.21681 0.19689 0.3496
##END=
