##TITLE=2-Methyl-4-decanone
##JCAMP-DX=4.24
##DATA TYPE=INFRARED SPECTRUM
##ORIGIN=NIST Mass Spectrometry Data Center
##OWNER=NIST Standard Reference Data Program
Collection (C) 2018 copyright by the U.S. Secretary of Commerce
on behalf of the United States of America. All rights reserved.
##CAS REGISTRY NO=6628-25-7
##MOLFORM=C 11 H 22 O
##$NIST SOURCE=MSDC-IR
##SPECTROMETER/DATA SYSTEM=HP-GC/MS/IRD
##STATE=gas
##XUNITS=1/CM
##YUNITS=ABSORBANCE
##XFACTOR=1.0
##YFACTOR=0.000003500
##DELTAX=4.0
##FIRSTX=550.0
##LASTX=3846.0
##FIRSTY=0.000466
##MAXX=3846
##MINX=550
##MAXY=0.035
##MINY=0
##NPOINTS=825
##XYDATA=(X++(Y..Y))
550.0 133 106 82 53 37 26 3 0 8 0
590.0 3 27 48 39 42 57 52 55 63 62
630.0 79 102 104 93 81 70 58 48 51 62
670.0 67 58 40 33 48 56 45 59 75 95
710.0 127 134 163 182 181 186 174 161 139 117
750.0 91 85 89 85 82 86 83 73 69 65
790.0 61 63 73 72 71 84 93 95 90 79
830.0 74 81 83 76 69 59 70 87 87 88
870.0 91 100 119 127 118 125 145 139 133 135
910.0 127 131 147 182 219 230 242 262 288 298
950.0 289 270 229 185 168 160 154 156 168 196
990.0 226 250 280 306 321 338 358 382 424 493
1030.0 576 662 741 827 918 1011 1063 1032 939 818
1070.0 695 602 531 474 420 388 381 388 402 424
1110.0 474 524 567 616 675 760 862 963 1048 1085
1150.0 1090 1091 1108 1131 1122 1052 929 804 709 653
1190.0 625 614 605 586 549 514 489 477 482 479
1230.0 475 467 435 416 406 386 389 407 433 476
1270.0 545 652 778 888 954 966 936 893 854 826
1310.0 809 797 797 824 886 983 1105 1237 1366 1511
1350.0 1685 1855 1974 1993 1919 1764 1567 1381 1226 1095
1390.0 986 880 798 766 773 797 824 829 817 818
1430.0 829 842 870 925 1015 1131 1258 1374 1443 1431
1470.0 1340 1180 976 768 599 466 372 307 259 219
1510.0 187 162 139 123 120 111 99 94 90 87
1550.0 81 79 79 71 73 78 72 64 64 70
1590.0 65 62 68 73 76 79 79 83 94 102
1630.0 100 103 111 121 133 141 156 183 209 232
1670.0 269 321 387 466 565 704 902 1188 1613 2197
1710.0 2936 3753 4489 4904 4799 4183 3260 2336 1597 1089
1750.0 763 553 416 328 270 222 187 161 136 116
1790.0 103 97 91 82 74 70 68 63 55 47
1830.0 41 41 39 30 31 36 35 26 27 30
1870.0 23 20 22 21 20 18 13 12 12 7
1910.0 10 14 13 14 13 8 6 3 0 0
1950.0 0 2 4 6 6 7 8 6 3 1
1990.0 2 4 3 0 6 10 6 4 7 7
2030.0 11 13 12 7 4 6 5 4 6 9
2070.0 10 8 8 7 3 2 3 2 6 13
2110.0 14 8 5 9 5 4 11 12 12 12
2150.0 13 16 16 13 10 11 12 15 16 14
2190.0 19 20 15 17 16 9 9 11 10 9
2230.0 9 5 5 9 7 0 3 10 8 8
2270.0 13 11 9 12 9 4 8 8 5 8
2310.0 12 12 9 10 12 14 13 5 4 13
2350.0 18 8 6 8 8 11 12 14 17 16
2390.0 17 11 11 15 10 13 22 23 15 11
2430.0 11 17 18 16 18 15 13 14 20 18
2470.0 18 16 11 17 19 21 27 28 26 22
2510.0 19 17 22 29 27 26 34 35 35 36
2550.0 36 33 33 39 41 38 34 38 45 50
2590.0 45 44 50 57 61 63 64 68 68 75
2630.0 82 83 85 92 100 97 99 100 96 102
2670.0 107 112 116 118 113 116 124 118 119 127
2710.0 134 142 152 165 175 185 195 201 205 216
2750.0 216 214 209 209 224 234 248 260 271 295
2790.0 322 354 382 415 459 503 542 593 657 722
2830.0 800 901 1032 1207 1454 1797 2228 2701 3171 3584
2870.0 3943 4273 4551 4699 4691 4589 4503 4548 4698 4944
2910.0 5292 5746 6341 7081 7894 8634 9161 9397 9324 9062
2950.0 8826 8851 9263 9850 10000 9260 7745 5989 4486 3347
2990.0 2502 1900 1479 1179 974 825 702 611 542 485
3030.0 440 398 361 335 306 286 274 258 245 238
3070.0 232 225 221 219 213 198 191 184 181 175
3110.0 168 161 151 145 140 137 138 143 143 133
3150.0 128 132 136 131 121 116 113 112 119 117
3190.0 113 111 104 99 97 86 81 78 69 62
3230.0 40 27 34 39 39 35 37 40 41 40
3270.0 40 39 34 30 32 36 34 31 34 35
3310.0 31 32 38 42 40 35 38 46 46 35
3350.0 36 40 36 39 42 40 50 58 47 52
3390.0 62 58 61 63 66 82 96 98 101 109
3430.0 109 103 95 88 79 66 57 50 41 29
3470.0 32 45 34 22 19 22 19 12 14 15
3510.0 20 19 7 3 0 12 26 23 27 23
3550.0 22 27 21 18 22 29 38 36 33 30
3590.0 22 21 26 28 26 25 21 23 27 31
3630.0 43 51 48 34 38 44 39 30 31 44
3670.0 41 26 22 24 21 22 29 38 46 48
3710.0 38 40 43 39 37 39 38 41 52 39
3750.0 28 49 57 49 49 45 45 46 54 58
3790.0 55 53 52 61 64 56 55 51 45 60
3830.0 66 66 73 65 68
##END=
