##TITLE=4-Aminoquinaldine
##JCAMP-DX=4.24
##DATA TYPE=INFRARED SPECTRUM
##ORIGIN=NIST Mass Spectrometry Data Center
##OWNER=NIST Standard Reference Data Program
Collection (C) 2018 copyright by the U.S. Secretary of Commerce
on behalf of the United States of America. All rights reserved.
##CAS REGISTRY NO=6628-04-2
##MOLFORM=C 10 H 10 N 2
##$NIST SOURCE=MSDC-IR
##SPECTROMETER/DATA SYSTEM=HP-GC/MS/IRD
##STATE=gas
##XUNITS=1/CM
##YUNITS=ABSORBANCE
##XFACTOR=1.0
##YFACTOR=0.000001400
##DELTAX=4.0
##FIRSTX=550.0
##LASTX=3846.0
##FIRSTY=0.000529
##MAXX=3846
##MINX=550
##MAXY=0.014
##MINY=0
##NPOINTS=825
##XYDATA=(X++(Y..Y))
550.0 378 500 463 509 482 457 469 494 492 467
590.0 508 576 630 666 742 818 833 814 787 773
630.0 794 899 1007 1087 1108 1019 888 750 644 624
670.0 614 623 680 704 731 742 760 790 798 813
710.0 784 809 849 879 1014 1234 1673 2418 3238 4075
750.0 5258 5435 4259 3358 2636 1934 1521 1273 1045 890
790.0 786 695 632 599 617 677 734 907 1109 1269
830.0 1422 1447 1318 1142 978 855 857 904 858 761
870.0 673 587 467 350 287 246 231 227 208 195
910.0 223 232 242 253 253 274 279 304 331 327
950.0 352 395 464 541 607 655 657 620 566 544
990.0 529 517 506 461 407 393 452 508 487 451
1030.0 406 331 303 314 318 303 285 270 240 203
1070.0 190 194 171 147 147 160 166 184 226 274
1110.0 298 297 299 291 247 181 101 43 8 0
1150.0 23 54 82 122 217 320 444 644 880 962
1190.0 925 852 597 295 120 54 38 43 93 180
1230.0 231 245 244 183 115 75 66 101 142 193
1270.0 227 218 185 136 99 90 91 89 95 101
1310.0 110 132 176 238 310 383 441 491 570 677
1350.0 877 1252 1723 2098 2304 2417 2353 2159 2017 1956
1390.0 1891 1771 1604 1453 1383 1405 1547 1889 2401 2845
1430.0 3000 2912 2583 1969 1311 863 627 517 494 516
1470.0 541 583 690 867 1092 1397 1865 2536 3344 4053
1510.0 4436 4428 3996 3128 2217 1616 1330 1272 1389 1650
1550.0 2032 2480 2893 3123 3131 2981 2764 2706 3066 3849
1590.0 4808 5633 6226 6617 6837 7156 7906 8980 9818 10000
1630.0 9524 8404 6712 5072 3795 2857 2156 1681 1364 1129
1670.0 941 802 684 596 545 504 449 403 359 318
1710.0 299 293 281 264 255 234 211 209 208 201
1750.0 185 172 162 149 141 148 161 168 176 192
1790.0 210 222 222 218 217 196 186 191 202 205
1830.0 207 200 178 142 124 132 144 156 159 162
1870.0 186 212 222 230 217 195 188 186 197 221
1910.0 235 240 229 217 220 227 246 272 280 274
1950.0 252 211 167 149 147 139 135 139 139 135
1990.0 138 146 152 152 154 145 141 149 151 149
2030.0 147 155 162 161 162 161 155 157 161 149
2070.0 146 149 145 142 151 161 162 168 168 166
2110.0 171 172 175 174 181 182 183 195 204 197
2150.0 191 194 189 181 179 179 183 186 180 175
2190.0 172 165 157 158 167 170 162 161 174 176
2230.0 171 171 171 186 183 181 198 209 205 207
2270.0 218 221 220 216 200 180 179 173 165 171
2310.0 170 168 161 157 161 175 184 186 194 206
2350.0 206 209 209 194 198 191 184 172 157 156
2390.0 158 166 173 167 157 154 160 173 176 166
2430.0 166 173 170 180 184 168 170 169 168 173
2470.0 175 185 202 197 180 185 194 174 165 165
2510.0 158 159 151 148 150 155 150 143 154 171
2550.0 174 178 189 205 194 189 195 180 180 195
2590.0 198 200 196 198 195 195 207 195 184 201
2630.0 200 189 192 187 188 187 173 171 177 173
2670.0 178 191 196 214 220 190 189 195 195 211
2710.0 216 224 241 241 242 252 251 241 237 244
2750.0 234 214 224 228 214 220 234 228 222 229
2790.0 221 238 238 226 234 241 263 278 274 279
2830.0 281 294 320 341 369 404 444 479 496 497
2870.0 488 481 475 451 454 472 478 486 510 552
2910.0 617 738 907 1134 1344 1464 1472 1361 1178 987
2950.0 860 788 729 681 613 555 519 489 471 472
2990.0 492 512 572 664 779 937 1133 1351 1545 1712
3030.0 1816 1804 1707 1582 1508 1510 1602 1766 1948 2109
3070.0 2161 2084 1916 1684 1437 1191 957 778 639 522
3110.0 461 423 383 350 321 287 264 257 238 253
3150.0 280 281 269 257 250 254 269 277 295 289
3190.0 268 271 281 262 240 244 266 280 260 249
3230.0 244 243 250 243 241 238 236 233 218 201
3270.0 187 195 201 186 176 182 209 194 180 192
3310.0 189 183 194 201 201 208 199 185 176 170
3350.0 193 208 194 190 179 177 199 224 233 236
3390.0 252 283 321 392 485 613 800 999 1111 1148
3430.0 1101 951 771 604 458 357 300 278 278 267
3470.0 235 214 234 270 314 380 461 564 710 847
3510.0 936 945 904 814 659 527 397 316 275 223
3550.0 239 254 227 204 204 220 210 181 168 172
3590.0 178 183 161 149 144 154 161 153 179 178
3630.0 171 177 194 205 176 175 171 160 165 154
3670.0 176 198 202 208 191 175 190 210 218 203
3710.0 178 180 196 208 203 205 216 212 194 193
3750.0 217 208 220 221 214 206 205 221 222 236
3790.0 224 221 225 215 222 217 205 219 226 217
3830.0 209 218 229 230 246
##END=
