##TITLE=6-Ethoxy-2-methylquinoline
##JCAMP-DX=4.24
##DATA TYPE=INFRARED SPECTRUM
##ORIGIN=EPA-IR VAPOR PHASE LIBRARY
##OWNER=SRD/NIST
Collection (C) 2018 copyright by the U.S. Secretary of Commerce
on behalf of the United States of America. All rights reserved.
##CAS REGISTRY NO=6628-28-0
##MOLFORM=C 12 H 13 N O
##$NIST SOURCE=MSDC-IR
##STATE=gas
##XUNITS=1/CM
##YUNITS=ABSORBANCE
##XFACTOR=1.
##YFACTOR=0.001
##DELTAX=1.92898
##FIRSTX=549.8
##LASTX=4000.7
##FIRSTY=0.7367
##MAXX=4000.7
##MINX=549.759
##MAXY=0.18348
##MINY=0
##NPOINTS=1790
##XYDATA=(X++(Y..Y))
549.759 0.7367 0.8276 1.6302 1.8502 1.7402 1.6802 1.8602 1.8902 1.9102 1.6902
569.049 1.3302 1.2602 1.9402 2.5602 2.7402 2.6802 2.9102 3.3402 3.4302 3.6802
588.339 3.8602 4.4602 5.5502 6.4002 7.2202 7.4202 7.2002 7.2902 7.5902 8.0802
607.628 8.4702 8.2802 7.7802 7.3002 7.0002 5.7802 4.5202 3.9802 3.2002 2.6602
626.918 1.8402 1.5902 1.7402 1.4702 1.3002 1.4402 1.8802 2.1902 2.0402 1.7902
646.208 1.6302 2.0002 2.4602 2.5602 2.7102 3.1102 3.7902 3.9502 3.9102 4.3502
665.498 4.6902 4.9102 4.5502 4.3702 4.4302 3.9302 3.4302 3.1202 3.0302 2.6602
684.787 2.3302 2.2902 2.2002 1.8202 1.4002 1.4602 1.4102 1.2502 1.1502 0.9281
704.077 0.9809 0.7393 0.5369 0.7065 0.6152 0.7442 0.7638 0.7657 0.7054 0.5954
723.367 0.8031 0.8751 0.797 1.0118 1.0507 1.1002 1.6102 1.6402 1.6302 1.8202
742.657 1.9202 2.0602 2.4102 2.7202 2.8702 2.9102 2.9002 2.9402 2.5802 2.4002
761.947 2.2002 1.6502 2.0302 2.4302 2.2102 2.2602 2.4502 2.3002 2.4602 3.3402
781.236 3.9302 4.9202 6.0202 7.0302 8.4502 9.8202 11.6402 13.1802 13.9502 14.7102
800.526 15.2502 15.1902 14.8102 14.6402 14.6202 15.0802 15.9302 16.7202 18.1102 20.4402
819.816 22.8602 25.3902 28.7302 32.7602 36.5002 39.2202 41.5102 43.8602 44.6002 43.0202
839.106 40.6702 38.3502 36.1602 33.4402 30.7602 28.3002 25.9102 23.7502 21.9302 20.6302
858.395 19.6902 19.3702 18.8702 18.2402 17.8702 17.3002 16.4402 15.4502 14.9302 14.4202
877.685 13.3102 12.6102 11.8502 11.3402 11.1302 10.6802 10.1602 9.5202 9.3702 8.8602
896.975 8.2202 7.8902 7.3102 6.8202 6.5602 6.1102 5.5102 4.8702 4.7902 5.0002
916.265 5.3502 5.8802 6.3602 7.3602 8.7902 10.3502 11.8102 12.8502 13.6902 13.9102
935.555 13.4102 12.6602 11.7702 10.4802 9.0902 8.0502 7.1702 6.9802 7.2202 7.7802
954.844 8.9402 10.6602 12.8902 15.1002 16.5602 17.2302 17.1502 16.2802 14.9602 13.3302
974.134 11.0202 8.6402 7.2302 6.6302 6.0602 5.5602 5.3502 5.5602 5.9202 6.0402
993.424 6.2502 6.7202 7.5502 8.5702 9.2702 9.7102 10.6502 11.5802 11.7302 11.9802
1012.714 12.5202 13.6702 15.3002 16.3002 17.6302 20.0602 22.9602 26.3002 30.5102 34.7602
1032.003 38.4702 42.2702 45.7702 48.8002 51.0602 51.6702 50.4202 48.3302 45.2702 41.2402
1051.293 36.6202 32.0302 27.8402 23.8302 20.9602 18.6202 16.2702 14.2602 13.3302 12.8602
1070.583 12.3902 12.5102 12.2202 11.9202 12.4802 12.8102 13.0402 13.5802 13.9302 14.8902
1089.873 15.4402 15.2702 15.4202 16.1202 17.8902 21.0702 26.7002 35.6802 47.5602 56.8402
1109.163 62.3302 65.6502 65.7302 62.4602 53.0302 41.8102 33.7902 28.1102 24.0702 21.4702
1128.452 20.4702 20.3702 20.9402 23.6802 27.0402 30.7602 35.2602 39.0502 43.7102 48.5802
1147.742 51.8702 53.7102 54.1302 53.3202 52.0702 51.0702 50.3202 50.7102 50.6102 49.6502
1167.032 49.0702 47.3702 44.1202 40.5602 36.1802 30.0302 25.1102 22.0002 20.2302 19.0102
1186.322 17.8202 17.4602 17.8502 18.6402 19.8102 22.2902 26.0702 30.7102 37.1102 45.3802
1205.611 54.7502 65.2202 76.7702 90.7402 107.18 124.64 142.46 158.65 170.78 179.51
1224.901 183.48 179.76 168.61 152.58 132.56 111.64 93.6002 78.2102 65.8102 56.6602
1244.191 49.0802 42.7402 38.2802 35.0802 32.4702 31.9302 32.6502 34.2802 36.3002 37.7702
1263.481 38.7102 37.7202 35.1002 32.1402 28.7002 24.8202 21.8502 19.9402 18.4602 17.7002
1282.771 17.9202 18.5502 19.4702 21.2102 24.0602 28.3602 33.4402 39.2802 45.6302 50.8502
1302.060 54.0002 54.9502 54.3302 51.5502 46.4302 40.5202 35.4802 32.0102 30.2002 29.6202
1321.350 30.0702 31.7702 34.8702 39.0802 43.6602 48.2902 52.3902 55.3002 56.3702 55.4102
1340.640 52.5402 48.0602 43.0402 38.1702 33.8002 30.6902 29.0002 28.4002 28.8102 29.9502
1359.930 31.3002 32.8702 34.8002 36.9302 38.9902 40.7902 42.3202 43.3902 43.5302 42.6802
1379.219 41.1802 39.2802 37.1102 35.2002 34.6202 35.4002 36.6602 37.7902 38.0202 37.0202
1398.509 35.0702 31.9502 27.7502 23.3402 19.7102 17.1202 15.2902 13.8702 12.8102 12.0802
1417.799 11.5702 11.3102 11.3402 11.3702 11.5202 11.9702 12.4602 12.6402 12.9002 13.3102
1437.089 13.6102 13.8602 13.9802 14.0402 14.1702 14.3902 14.6002 14.9002 15.4802 16.3902
1456.378 17.5802 19.2002 21.5302 24.7402 28.8002 33.8202 39.3302 44.7502 48.9502 51.5102
1475.668 52.9702 53.9102 54.6202 56.0502 59.7202 66.3202 75.5102 85.7102 94.7802 100.53
1494.958 101.97 99.0902 92.1802 81.9502 70.0402 58.9002 49.5002 42.2302 36.9002 32.9402
1514.248 29.8602 27.4002 25.5002 24.0202 22.8002 21.6402 20.9802 20.5502 19.9502 19.1802
1533.538 18.5602 18.2102 17.9202 17.7602 17.8902 18.2802 18.6202 19.2502 20.1702 20.9902
1552.827 22.0602 23.2002 24.0102 24.5602 25.0002 25.0602 24.8302 24.5802 23.8802 23.0102
1572.117 22.7502 23.0502 23.7202 24.9702 26.8102 29.2502 32.2302 36.0102 40.9902 46.9302
1591.407 53.6602 61.9602 71.3202 80.8702 89.5502 95.8702 98.9902 98.2202 94.0002 87.6002
1610.697 79.3202 70.3402 63.2002 58.4602 55.8702 54.8502 54.2402 53.2802 51.4902 48.0802
1629.986 43.5202 38.3902 32.7202 27.1302 22.2402 18.1002 15.0202 12.8302 11.0402 9.6702
1649.276 8.6402 7.7502 7.0002 6.5702 6.3102 6.0002 5.5302 5.2502 5.1202 4.9302
1668.566 4.6302 4.3802 4.3102 4.1702 4.0102 3.7902 3.7102 3.7602 3.6902 3.6802
1687.856 3.7102 3.6902 3.6102 3.6502 3.8302 3.8702 3.7902 3.8702 3.9602 3.9902
1707.146 4.1502 4.1202 4.0102 3.9902 3.7302 3.6202 3.9102 4.1302 4.2602 4.6302
1726.435 5.1302 5.4702 5.7402 5.9302 5.9102 5.6602 5.3302 4.9702 4.7002 4.3702
1745.725 4.0102 3.8502 3.8202 3.7702 3.5302 3.3802 3.3502 3.2402 3.0002 2.7502
1765.015 2.6302 2.5702 2.4902 2.4002 2.4302 2.4202 2.4202 2.4802 2.6102 2.7802
1784.305 2.8202 2.8602 2.9502 2.9602 2.8202 2.7802 2.6602 2.4602 2.4502 2.3602
1803.594 2.2202 2.2502 2.1702 2.1302 2.0902 2.0102 1.9902 1.9702 2.0702 2.1202
1822.884 2.0802 2.0402 2.0002 2.0602 2.1602 2.0902 2.0202 2.0802 2.0002 2.0702
1842.174 2.0402 1.8602 1.8702 1.7702 1.7802 1.8402 1.8902 1.8502 1.8202 1.8302
1861.464 1.7702 1.8602 1.8702 1.8502 1.8902 1.9602 2.1102 2.1102 2.1402 2.3202
1880.754 2.3902 2.4102 2.4702 2.7102 2.9002 2.9502 3.0702 3.1502 3.1502 3.3602
1900.043 3.6002 3.7102 4.0002 4.2602 4.3402 4.5602 4.8902 4.9902 5.0802 5.0602
1919.333 4.8402 4.8302 4.8702 4.6602 4.3502 4.0102 3.6802 3.4102 3.1502 3.0102
1938.623 2.8602 2.6202 2.5002 2.4002 2.3602 2.4402 2.2502 2.1402 2.1702 2.0602
1957.913 1.9502 1.9202 1.9302 1.9402 1.9202 1.9602 2.0302 2.0602 2.0902 2.0702
1977.202 2.1002 2.0302 1.8702 1.8402 1.7102 1.6102 1.5802 1.5402 1.5302 1.5302
1996.492 1.4102 1.2702 1.3302 1.3702 1.3802 1.4102 1.4802 1.6002 1.6002 1.4802
2015.782 1.3502 1.3602 1.5102 1.5602 1.4602 1.3202 1.3802 1.3702 1.3802 1.5502
2035.072 1.7602 1.9102 1.9202 1.8602 1.8202 1.9502 2.0202 2.0602 2.1502 2.2902
2054.362 2.3502 2.3302 2.3002 2.4002 2.4102 2.2902 2.3502 2.2402 2.0702 2.1002
2073.651 2.1202 2.0302 1.8902 1.8802 1.8602 1.7202 1.5702 1.5702 1.5902 1.5102
2092.941 1.4802 1.4102 1.3902 1.2802 1.1902 1.2902 1.2802 1.2102 1.2402 1.2602
2112.231 1.3602 1.3802 1.3102 1.3102 1.3702 1.4302 1.4602 1.3802 1.3302 1.4502
2131.521 1.5302 1.5402 1.4102 1.3702 1.4702 1.5202 1.4302 1.4902 1.5902 1.5002
2150.810 1.4102 1.4802 1.5002 1.3802 1.4002 1.5102 1.5002 1.3702 1.4102 1.4802
2170.100 1.2402 1.0902 1.2502 1.3102 1.2602 1.3402 1.4102 1.4102 1.4002 1.3202
2189.390 1.1102 0.9601 1.0234 1.1502 1.1002 1.1002 1.1902 1.2102 1.1702 1.1002
2208.680 1.033 1.1302 1.2702 1.2902 1.1702 1.0802 1.2102 1.2802 1.3702 1.3602
2227.970 1.2002 1.1402 1.3002 1.3102 1.1702 1.1802 1.3102 1.3502 1.4002 1.4802
2247.259 1.3702 1.3902 1.4602 1.4902 1.7002 1.7202 1.5802 1.5102 1.4602 1.5202
2266.549 1.5802 1.5102 1.5902 1.7402 1.5602 1.3102 1.4002 1.6102 1.5402 1.5702
2285.839 1.6902 1.6402 1.5402 1.4102 1.4202 1.5502 1.5302 1.4602 1.4202 1.3002
2305.129 1.3602 1.4702 1.4402 1.3402 1.2502 1.2602 1.1902 1.0471 1.0526 1.1702
2324.418 1.2002 1.2202 1.3102 1.3102 1.2602 1.1602 1.1502 1.2502 1.1802 1.2602
2343.708 1.3602 1.3702 1.2902 1.2402 1.4002 1.4402 1.5902 1.6102 1.5602 1.6802
2362.998 1.7202 1.7602 1.8102 1.8602 1.9202 1.7802 1.7702 2.0102 2.1502 2.2402
2382.288 2.2002 2.2002 2.1902 2.0802 1.9102 2.0002 2.1802 2.0702 1.9202 1.8902
2401.578 1.9602 1.9502 1.9102 1.8602 1.9302 2.0702 2.0002 1.9202 1.8802 1.8602
2420.867 1.9102 2.0102 2.0102 1.8502 1.8202 1.9002 1.9802 1.9702 1.9702 2.0702
2440.157 2.0602 2.0102 2.0402 2.0602 2.0602 2.0502 2.0602 1.9102 1.8102 1.8802
2459.447 1.8102 1.7002 1.5802 1.5102 1.4602 1.5302 1.4602 1.4002 1.4802 1.4402
2478.737 1.4202 1.2902 1.3602 1.5502 1.7102 1.8002 1.6402 1.5302 1.4202 1.2402
2498.026 1.2902 1.4002 1.2202 1.1702 1.2602 1.3402 1.3602 1.2002 1.2402 1.3602
2517.316 1.3902 1.2902 1.2302 1.2202 1.1602 1.3402 1.3702 1.3102 1.2102 1.2202
2536.606 1.2602 1.2202 1.4002 1.5302 1.3302 1.1402 1.3502 1.4002 1.1702 1.2602
2555.896 1.5302 1.5202 1.4202 1.4102 1.4202 1.4602 1.7102 1.9002 1.7702 1.7002
2575.186 1.7602 1.7502 1.7502 1.8902 1.9802 2.1902 2.4002 2.2502 2.1602 2.3702
2594.475 2.5802 2.4502 2.4102 2.5602 2.3302 2.0902 2.0202 1.8902 1.7202 1.5602
2613.765 1.7102 1.6702 1.3902 1.3202 1.1802 1.1702 1.2702 1.3102 1.4102 1.3802
2633.055 1.2602 1.1902 1.2102 1.1302 1.2102 1.2102 1.0326 1.0485 1.1602 1.1602
2652.345 0.8788 0.893 1.0441 1.0256 1.0492 1.0802 1.1602 1.2402 1.3002 1.4202
2671.634 1.3602 1.2702 1.3402 1.2702 1.0568 1.1902 1.3502 1.3802 1.4202 1.4402
2690.924 1.4102 1.4702 1.7102 1.7002 1.5602 1.7002 1.9002 1.8902 1.8702 1.9602
2710.214 1.9802 2.0502 2.2402 2.1402 2.1202 2.2402 2.3602 2.6302 2.5902 2.6902
2729.504 2.9802 2.9502 2.9302 2.8802 2.8002 2.6202 2.5102 2.4902 2.5202 2.4202
2748.794 2.2002 2.1302 2.1802 2.2302 2.2502 2.2302 2.0802 2.1202 2.2902 2.2702
2768.083 2.3102 2.4402 2.3402 2.3902 2.4802 2.4502 2.6402 2.6602 2.6502 2.7402
2787.373 2.7102 2.7102 2.7102 2.6802 2.5802 2.6002 2.6602 2.7102 2.8502 2.9202
2806.663 2.8302 2.8002 2.9202 2.9902 3.3102 3.7002 3.7102 3.6902 3.7302 3.9902
2825.953 4.3502 4.6302 4.7402 4.8502 5.1802 5.5402 5.9402 6.2702 6.6202 6.8402
2845.242 7.2702 8.0002 8.4502 8.7602 9.1302 9.7702 10.6002 11.3802 12.0602 12.5902
2864.532 13.1702 14.1402 15.0502 15.7402 16.6802 17.3802 18.0202 18.9102 19.6302 20.2802
2883.822 20.8402 21.2702 21.7002 21.8102 22.0002 22.2202 22.5102 23.0802 23.4002 23.9502
2903.112 24.6302 25.2902 26.0402 26.4802 27.0502 27.8002 28.5602 29.4602 30.3102 31.4702
2922.401 33.2002 35.2002 37.2902 39.3202 40.7402 42.0802 43.1402 42.9802 42.2202 41.1102
2941.691 39.4802 37.8802 36.2102 34.1802 32.0302 30.1402 28.7102 27.1302 25.8102 24.9002
2960.981 24.3402 24.0602 24.2602 24.7502 25.3902 26.4102 27.6002 29.2902 31.6002 34.0502
2980.271 36.1702 38.3902 40.1202 40.9602 41.2402 40.9802 39.7802 37.5002 34.6002 31.3702
2999.561 28.3702 25.4502 22.8402 20.8602 19.0702 17.7202 16.8902 16.0502 15.2602 14.9902
3018.850 15.1102 15.1402 15.2502 15.7902 16.4702 16.8602 17.1402 17.3302 17.7102 18.2002
3038.140 18.4802 19.0802 20.0202 20.8902 22.1802 23.9202 25.7002 27.1602 28.4702 29.4902
3057.430 29.8202 29.7502 29.2402 28.5902 27.4402 25.7202 24.1302 22.5502 20.8902 19.4702
3076.720 18.0402 16.5402 15.1602 14.1802 13.2302 11.7802 10.5802 9.5302 8.4702 7.7402
3096.009 7.0702 6.4802 6.0002 5.4802 5.0202 4.6402 4.2902 3.9002 3.5702 3.3202
3115.299 3.0702 2.9102 2.9402 2.9602 2.8102 2.7102 2.3902 2.0302 1.9802 1.8102
3134.589 1.7502 2.0602 1.9702 1.7502 1.6402 1.3902 1.3102 1.4202 1.4402 1.5602
3153.879 1.7002 1.5902 1.4202 1.2302 1.2302 1.3602 1.1302 0.9047 1.0041 1.2302
3173.169 1.5702 1.6702 1.3302 1.2702 1.1902 1.1102 1.3002 1.2602 1.0602 1.2002
3192.458 1.5102 1.3002 1.1802 1.2102 0.8786 0.7863 1.0451 1.1102 0.952 1.0597
3211.748 1.0408 0.8249 0.934 1.0702 1.0491 0.9701 0.8795 0.887 1.1402 0.984
3231.038 0.7966 0.7408 0.7786 0.8776 0.7973 0.7957 0.7018 0.6468 0.6272 0.5536
3250.328 0.5356 0.6919 0.6949 0.7373 0.6744 0.3843 0.1707 0.10031 0.2999 0.376
3269.617 0.5243 0.6398 0.5777 0.504 0.3887 0.4847 0.4026 0.3103 0.2297 0.0201
3288.907 0.2642 0.3836 0.2069 0.4983 0.5542 0.4484 0.625 0.7071 0.752 0.6752
3308.197 0.5882 0.4473 0.38 0.4237 0.6304 0.7156 0.4075 0.2844 0.3627 0.4507
3327.487 0.3605 0.4756 0.6486 0.4826 0.3357 0.4494 0.3135 0.3256 0.4593 0.3712
3346.777 0.3414 0.3803 0.4948 0.4506 0.359 0.2395 0.2445 0.1615 0.3179 0.5162
3366.066 0.13357 0 0.477 0.6033 0.4119 0.5598 0.7583 0.7472 0.5339 0.2714
3385.356 0.2649 0.4032 0.366 0.13883 0.2204 0.4461 0.5126 0.7094 0.7292 0.5504
3404.646 0.5742 0.6495 0.5367 0.6233 0.6953 0.6785 0.8556 0.7775 0.6578 0.6348
3423.936 0.3608 0.2079 0.2339 0.3082 0.5296 0.4752 0.2537 0.3468 0.5859 0.6704
3443.225 0.839 0.8331 0.4996 0.561 0.4406 0.11857 0.13101 0.3612 0.439 0.2672
3462.515 0.2604 0.419 0.2655 0.12424 0.2097 0.2794 0.6677 0.7598 0.6528 0.6314
3481.805 0.5851 0.5672 0.5261 0.4143 0.2554 0.49 0.7529 0.6307 0.3094 0.12318
3501.095 0.0317 0.203 0.2854 0.2256 0.315 0.15287 0.10052 0.0382 0.1771 0.5226
3520.385 0.7487 0.5507 0.2997 0.4827 0.5888 0.4904 0.5075 0.5094 0.5798 0.5659
3539.674 0.2401 0.1213 0.3621 0.5272 0.2413 0.4303 0.4672 0.2319 0.4299 0.5936
3558.964 0.4764 0.4347 0.3643 0.178 0.2893 0.09004 0.0199 0.2279 0.14716 0.119
3578.254 0.3026 0.3615 0.375 0.3133 0.2901 0.5098 0.4623 0.323 0.3296 0.2952
3597.544 0.2994 0.3605 0.397 0.37 0.3606 0.343 0.3292 0.3472 0.393 0.4509
3616.833 0.5047 0.7729 0.931 0.7058 0.3324 0.167 0.2285 0.3239 0.3722 0.2402
3636.123 0.2523 0.355 0.2306 0.3478 0.3808 0.10963 0.2678 0.2119 0.4536 0.7729
3655.413 0.5333 0.5249 0.3986 0.329 0.348 0.4468 0.4627 0.15858 0.2423 0.1426
3674.703 0.10605 0.4237 0.4039 0.3018 0.2186 0.3156 0.3797 0.3958 0.3721 0.233
3693.993 0.3441 0.4422 0.543 0.486 0.3656 0.4291 0.759 0.7219 0.1749 0.2306
3713.282 0.418 0.2099 0.3381 0.6811 0.4243 0.3486 0.2597 0.1641 0.5253 0.8517
3732.572 0.6538 0.2583 0.1675 0.2975 0.3811 0.251 0.3734 0.5594 0.5335 0.4285
3751.862 0.396 0.4114 0.3757 0.3996 0.7316 0.7528 0.5256 0.5505 0.5633 0.4023
3771.152 0.15939 0.2284 0.327 0.3823 0.572 0.6958 0.6542 0.4015 0.5024 0.6595
3790.441 0.5305 0.4025 0.2918 0.2235 0.286 0.3633 0.4304 0.512 0.4059 0.3318
3809.731 0.4019 0.7953 0.9493 0.4461 0.05274 0.2113 0.6536 0.4377 0.5066 0.7904
3829.021 0.5216 0.7192 0.744 0.4907 0.7137 0.4812 0.064885 0.4216 0.5058 0.4243
3848.311 0.3895 0.483 0.4457 0.2728 0.3075 0.3498 0.2606 0.3067 0.5442 0.688
3867.601 0.7817 0.6334 0.5012 0.5097 0.6418 0.6435 0.8043 1.1102 0.9973 0.7234
3886.890 0.6394 0.753 0.7733 0.7763 1.1102 1.2702 0.8386 0.4816 0.5 0.4636
3906.180 0.4377 0.5452 0.7139 0.6037 0.4768 0.5865 0.6626 0.8899 0.8879 0.7195
3925.470 0.6171 0.6031 0.7836 0.8007 0.5716 0.666 0.9536 1.0061 0.9136 0.903
3944.760 1.0399 0.9335 0.8068 0.8428 0.679 0.5358 0.6621 0.7168 0.6863 0.7752
3964.049 1.1402 1.0802 0.8707 0.9448 0.7391 0.8939 0.9253 0.7676 0.8949 1.011
3983.339 1.1902 1.2402 1.1602 1.2702 1.1002 0.9245 1.1602 0.9281 0.5757 0.6561
##END=
