##TITLE=Ethyl pentafluoropropionylacetate
##JCAMP-DX=4.24
##DATA TYPE=INFRARED SPECTRUM
##ORIGIN=EPA-IR VAPOR PHASE LIBRARY
##OWNER=SRD/NIST
Collection (C) 2018 copyright by the U.S. Secretary of Commerce
on behalf of the United States of America. All rights reserved.
##CAS REGISTRY NO=663-35-4
##MOLFORM=C 7 H 7 F 5 O 3
##$NIST SOURCE=MSDC-IR
##STATE=gas
##XUNITS=1/CM
##YUNITS=ABSORBANCE
##XFACTOR=1.
##YFACTOR=0.001
##DELTAX=1.92898
##FIRSTX=549.8
##LASTX=4000.7
##FIRSTY=4.919
##MAXX=4000.7
##MINX=549.759
##MAXY=0.276949
##MINY=0
##NPOINTS=1790
##XYDATA=(X++(Y..Y))
549.759 4.919 5.409 4.939 4.079 4.109 4.419 4.409 4.109 4.129 4.269
569.049 3.709 3.759 4.319 3.679 3.309 4.239 4.419 4.429 4.539 5.329
588.339 5.729 5.129 5.469 5.799 5.989 6.289 6.069 6.249 6.829 7.669
607.628 8.069 8.369 8.319 8.109 8.529 8.729 8.809 8.009 7.309 7.589
626.918 7.549 7.159 7.329 7.399 7.379 7.369 7.459 8.049 8.239 8.139
646.208 8.149 8.189 9.249 9.989 9.609 9.729 10.379 10.379 10.459 10.509
665.498 10.099 9.899 9.049 8.049 7.619 7.129 6.829 6.909 6.859 6.439
684.787 5.809 5.659 5.439 5.089 5.059 5.069 5.049 5.329 5.889 6.429
704.077 7.139 7.549 7.529 7.769 7.939 8.119 8.349 8.059 7.549 7.439
723.367 7.919 7.759 6.849 6.719 7.239 7.959 8.229 8.589 9.759 10.739
742.657 11.829 13.349 14.569 15.389 16.119 15.769 14.369 12.609 10.729 8.869
761.947 7.449 6.379 5.479 4.729 4.389 4.419 4.149 3.919 4.119 4.279
781.236 4.199 4.769 4.979 5.229 5.749 5.959 6.039 5.879 6.189 6.399
800.526 6.479 6.389 6.669 7.439 7.489 8.119 9.169 9.729 10.579 11.349
819.816 11.429 11.309 10.799 10.389 9.959 9.289 8.889 8.829 9.149 9.279
839.106 9.459 9.479 9.819 10.279 9.989 9.589 9.589 9.259 8.409 7.409
858.395 6.489 6.649 6.809 6.719 6.589 6.599 6.889 6.999 7.339 7.839
877.685 8.829 9.829 11.119 12.309 12.819 12.729 12.029 11.179 10.199 9.419
896.975 8.849 8.339 8.399 8.629 8.699 8.979 9.229 9.349 9.649 9.829
916.265 9.649 9.729 9.599 9.229 8.729 8.769 8.969 8.979 9.509 9.509
935.555 9.359 9.349 9.549 9.879 10.019 10.489 11.109 11.359 11.809 12.859
954.844 13.529 14.209 15.079 16.169 17.479 19.109 20.959 22.959 24.799 26.389
974.134 28.589 30.819 33.039 34.589 35.539 36.789 36.899 35.929 35.459 34.809
993.424 33.549 32.569 31.549 30.999 31.619 32.209 33.219 35.409 37.639 39.549
1012.714 40.089 39.229 38.469 36.579 33.719 31.429 29.439 28.239 27.839 27.739
1032.003 27.739 27.479 27.179 26.839 26.269 24.959 24.049 23.579 22.429 21.799
1051.293 20.849 20.079 19.639 18.509 18.289 18.749 18.859 18.989 19.989 20.349
1070.583 20.809 21.739 22.029 23.019 24.749 24.999 25.459 27.919 29.919 29.799
1089.873 30.249 31.859 33.449 34.659 35.799 36.859 37.869 40.269 42.219 46.339
1109.163 50.049 50.649 50.679 49.889 48.759 47.429 45.059 42.989 42.069 41.019
1128.452 40.329 40.219 40.949 42.039 43.199 44.379 45.619 47.379 48.939 50.909
1147.742 53.849 55.309 56.159 58.319 60.319 62.689 65.889 68.419 70.309 71.829
1167.032 72.729 74.299 75.879 76.049 75.549 75.159 74.559 74.749 74.719 75.139
1186.322 77.149 79.989 84.709 91.009 99.019 107.929 118.319 132.029 146.039 160.239
1205.611 176.619 192.549 209.589 227.799 244.469 259.689 271.209 276.949 275.899 270.299
1224.901 259.659 243.139 226.189 211.099 196.809 184.239 172.969 162.859 154.209 146.719
1244.191 141.039 135.109 129.459 123.699 117.179 110.579 103.469 96.289 88.049 79.179
1263.481 71.689 65.489 59.939 54.889 50.639 47.739 44.729 41.549 39.599 38.359
1282.771 37.129 36.119 35.419 35.169 35.019 34.949 35.089 35.519 36.499 37.959
1302.060 39.729 41.669 43.579 45.689 48.479 51.329 53.919 56.679 59.339 61.839
1321.350 63.789 64.849 64.959 64.129 62.439 59.379 55.699 51.909 47.909 44.269
1340.640 40.689 37.439 35.079 33.039 31.259 29.689 28.259 26.999 25.749 24.779
1359.930 24.099 23.669 23.579 23.759 24.179 24.609 24.769 24.549 24.329 24.119
1379.219 23.519 23.139 23.169 23.299 23.559 23.809 24.089 24.329 24.059 23.479
1398.509 23.019 22.299 21.419 20.709 20.049 19.299 18.729 18.749 18.959 18.959
1417.799 18.889 18.749 18.329 17.609 16.509 15.269 14.189 13.139 12.219 11.449
1437.089 10.609 9.939 9.619 9.309 9.179 9.409 9.299 8.999 8.989 8.999
1456.378 9.019 9.159 9.269 9.349 9.499 9.629 9.829 10.139 10.479 10.479
1475.668 10.289 10.059 9.479 8.729 8.009 7.279 6.659 6.269 6.009 5.609
1494.958 5.319 5.199 5.019 5.039 5.029 4.829 4.659 4.509 4.509 4.449
1514.248 4.299 4.159 3.909 3.789 3.789 3.709 3.789 3.909 3.859 3.849
1533.538 3.779 3.689 3.789 3.729 3.609 3.669 3.689 3.639 3.639 3.669
1552.827 3.599 3.699 3.739 3.799 3.569 3.229 3.229 3.339 3.619 3.689
1572.117 3.669 3.659 3.449 3.599 3.799 3.829 3.889 3.879 3.869 3.889
1591.407 4.089 4.079 3.979 3.929 4.139 4.159 4.009 4.309 4.639 5.019
1610.697 5.249 5.289 5.589 6.069 6.619 7.199 7.829 8.579 9.239 10.249
1629.986 11.619 12.859 14.169 15.659 17.169 18.789 20.529 22.169 23.609 25.169
1649.276 26.379 26.939 27.229 27.109 26.659 26.019 25.399 25.119 25.279 25.789
1668.566 26.619 28.059 29.939 31.739 33.609 35.149 36.339 36.919 36.869 36.369
1687.856 35.189 33.699 32.209 30.729 29.479 28.499 27.949 28.099 28.739 29.589
1707.146 30.369 30.919 31.389 31.449 31.179 30.779 29.799 28.229 26.459 24.789
1726.435 23.199 21.829 20.909 20.389 20.469 21.279 22.539 24.509 27.019 30.059
1745.725 33.659 37.909 42.609 47.429 51.829 55.409 58.049 59.759 60.349 59.969
1765.015 59.119 57.749 56.069 54.409 52.499 50.189 47.419 44.069 39.969 35.579
1784.305 31.209 27.119 23.569 20.469 17.729 15.419 13.589 11.909 10.659 9.629
1803.594 8.589 7.879 7.249 6.719 6.379 5.929 5.499 5.159 4.949 4.729
1822.884 4.509 4.359 4.229 4.029 3.789 3.689 3.529 3.369 3.259 3.049
1842.174 2.949 2.959 2.899 2.719 2.629 2.669 2.679 2.589 2.529 2.419
1861.464 2.409 2.479 2.449 2.469 2.419 2.359 2.229 2.239 2.279 2.199
1880.754 2.109 2.069 2.169 2.199 2.229 2.229 2.199 2.089 2.059 2.119
1900.043 2.139 2.079 1.989 2.009 2.019 2.079 2.039 1.919 1.849 1.799
1919.333 1.889 2.079 2.029 1.949 1.969 1.999 2.069 2.119 2.059 2.009
1938.623 1.999 2.009 2.139 2.109 1.909 1.929 2.039 2.029 2.159 2.149
1957.913 1.989 1.899 1.909 1.979 1.999 1.979 1.959 1.949 1.999 2.019
1977.202 1.849 1.779 1.809 1.749 1.869 1.909 1.739 1.629 1.639 1.699
1996.492 1.719 1.749 1.4224 1.302 1.659 1.729 1.5313 1.559 1.488 1.331
2015.782 1.569 1.669 1.599 1.649 1.609 1.629 1.699 1.749 1.819 1.729
2035.072 1.729 1.689 1.679 1.769 1.859 1.889 1.849 1.799 1.669 1.679
2054.362 1.859 1.839 1.789 1.899 1.839 1.819 1.859 1.959 2.029 2.009
2073.651 1.889 1.849 1.999 2.029 2.159 2.419 2.519 2.529 2.489 2.619
2092.941 2.849 3.029 3.139 3.079 3.059 3.039 3.169 3.289 3.259 3.279
2112.231 3.369 3.519 3.559 3.929 4.619 5.169 5.829 6.699 7.759 9.089
2131.521 10.969 13.409 16.199 19.799 24.429 29.819 36.219 43.779 52.089 60.409
2150.810 68.119 74.209 78.399 80.249 79.069 75.179 68.649 59.799 49.279 38.119
2170.100 27.959 20.039 14.589 11.239 9.149 7.489 6.479 5.859 5.269 4.919
2189.390 4.519 4.219 3.759 3.439 3.439 3.399 3.479 3.389 3.249 3.099
2208.680 2.919 2.879 2.719 2.629 2.719 2.529 2.569 2.749 2.589 2.569
2227.970 2.609 2.579 2.459 2.239 2.119 1.989 2.129 2.269 2.149 2.129
2247.259 2.119 2.209 2.149 2.069 1.989 1.839 1.809 1.859 1.899 1.979
2266.549 1.889 1.859 1.889 1.829 1.919 1.959 1.909 2.049 2.079 1.799
2285.839 1.679 1.759 1.819 1.879 1.849 1.809 1.819 1.869 1.969 1.929
2305.129 2.039 2.089 1.969 2.179 2.329 2.399 2.449 2.299 2.329 2.479
2324.418 2.409 2.469 2.679 2.699 2.649 2.509 2.399 2.539 2.779 2.719
2343.708 2.519 2.439 2.169 2.179 2.339 2.339 2.329 2.609 2.869 2.799
2362.998 2.779 2.789 2.779 2.649 2.479 2.629 2.689 2.479 2.509 2.689
2382.288 2.589 2.489 2.529 2.329 1.989 1.829 1.979 2.229 2.349 2.219
2401.578 2.049 2.269 2.399 2.159 2.109 1.979 1.789 1.979 2.209 2.119
2420.867 2.099 2.289 2.229 2.279 2.449 2.279 2.369 2.489 2.229 2.249
2440.157 2.129 2.059 2.319 2.499 2.549 2.289 2.179 2.269 2.289 2.309
2459.447 2.339 2.409 2.449 2.389 2.349 2.119 2.029 2.309 2.289 2.299
2478.737 2.349 2.239 2.259 2.169 1.989 2.139 2.439 2.289 2.099 2.129
2498.026 2.179 2.129 1.969 1.999 1.999 1.889 2.039 2.149 2.199 2.269
2517.316 2.119 1.939 1.999 2.039 1.979 1.909 1.899 2.059 2.089 1.989
2536.606 1.939 1.889 1.939 2.069 2.139 2.129 1.959 1.939 2.129 2.089
2555.896 1.999 1.929 2.109 2.269 1.859 1.829 1.979 1.819 1.759 1.979
2575.186 2.099 1.909 1.769 1.799 1.859 1.829 1.659 1.719 2.039 2.069
2594.475 2.049 1.989 1.799 1.659 1.649 1.889 2.109 1.919 1.689 1.769
2613.765 1.929 2.139 2.039 1.949 1.939 1.979 2.029 1.859 1.719 1.699
2633.055 1.779 1.919 2.129 2.009 1.869 1.899 1.859 1.869 1.979 1.909
2652.345 1.799 1.699 1.809 2.059 1.919 1.789 1.839 1.879 2.009 1.989
2671.634 1.999 1.869 1.739 2.019 1.939 1.649 1.749 1.939 2.149 2.289
2690.924 2.159 2.089 2.109 1.929 1.799 1.969 2.129 2.129 1.969 1.969
2710.214 2.129 2.179 2.239 2.289 2.349 2.229 2.139 2.199 2.369 2.509
2729.504 2.329 1.989 2.209 2.409 2.379 2.499 2.529 2.349 2.149 2.309
2748.794 2.519 2.409 2.389 2.179 1.919 2.239 2.719 2.569 2.319 2.739
2768.083 2.589 2.449 2.679 2.539 2.699 2.669 2.479 2.399 2.629 3.039
2787.373 2.769 2.539 2.649 2.499 2.649 2.859 2.759 2.899 2.939 2.749
2806.663 2.879 3.019 2.979 2.829 2.829 3.029 2.869 2.929 3.279 3.499
2825.953 3.519 3.439 3.559 3.609 3.659 3.729 3.789 4.069 3.899 3.699
2845.242 3.999 3.989 3.939 4.229 4.459 4.449 4.719 4.809 4.779 4.979
2864.532 5.149 5.159 5.139 5.429 5.479 5.749 5.889 5.899 6.099 6.089
2883.822 6.329 6.739 6.969 6.989 7.089 7.339 7.369 7.129 7.139 7.389
2903.112 7.399 7.259 7.509 8.019 8.189 8.079 8.279 8.619 8.549 8.489
2922.401 8.689 8.869 9.099 9.409 9.239 8.969 9.169 9.869 10.559 11.069
2941.691 11.689 12.019 11.979 11.969 12.019 11.829 11.689 11.169 10.699 10.889
2960.981 11.189 11.319 11.409 11.869 12.119 12.419 13.119 13.859 14.489 15.269
2980.271 16.489 17.949 18.989 19.779 20.459 20.479 20.129 19.259 17.919 16.459
2999.561 15.329 14.409 13.769 13.499 12.749 11.589 10.749 10.469 9.869 8.939
3018.850 8.249 7.619 7.319 7.399 7.089 6.319 5.809 5.559 5.219 4.979
3038.140 4.889 4.769 4.309 3.969 4.079 4.259 4.359 4.389 4.459 4.449
3057.430 4.599 4.439 4.209 4.559 4.509 4.079 4.169 4.189 4.279 4.399
3076.720 4.119 4.169 3.939 3.809 4.159 4.199 3.919 3.789 4.019 4.199
3096.009 4.149 4.149 4.319 4.369 4.499 4.769 4.809 4.819 4.759 5.009
3115.299 5.079 4.659 4.629 4.389 4.319 4.099 3.679 3.819 4.069 4.209
3134.589 4.119 3.949 3.899 3.889 3.879 4.039 3.799 3.719 3.619 3.299
3153.879 3.399 3.299 3.289 3.189 3.289 3.279 3.059 3.299 3.409 3.469
3173.169 3.529 3.519 3.389 2.939 2.829 3.169 3.229 3.159 3.109 2.779
3192.458 2.739 3.019 3.329 3.509 3.379 3.059 2.749 2.879 3.169 3.539
3211.748 3.609 3.499 3.499 3.309 3.049 3.189 3.329 2.989 2.909 3.299
3231.038 3.589 3.249 3.009 3.149 2.769 2.509 2.569 2.719 2.839 2.839
3250.328 2.959 2.799 2.489 2.229 2.269 2.509 2.379 2.149 2.429 2.679
3269.617 2.789 2.819 2.849 2.839 2.829 3.119 2.879 2.729 2.759 2.449
3288.907 2.459 2.469 2.629 2.949 2.839 2.699 2.799 2.719 2.399 2.349
3308.197 2.499 2.559 2.499 2.329 2.269 2.649 2.429 2.319 2.619 2.479
3327.487 2.439 2.349 2.059 1.889 2.299 2.699 2.299 1.739 1.879 2.239
3346.777 2.719 2.939 2.629 2.489 2.539 2.419 2.409 2.449 2.379 2.299
3366.066 2.449 2.579 2.409 2.479 2.569 2.319 2.129 2.419 2.579 2.049
3385.356 1.979 2.309 1.819 1.649 2.019 2.159 1.969 1.749 1.859 1.919
3404.646 2.049 1.989 2.009 1.989 1.679 2.019 2.329 1.879 1.4815 1.3101
3423.936 1.729 2.079 1.3968 1.2967 1.809 1.599 1.3021 1.589 1.769 1.359
3443.225 1.749 2.009 1.559 1.4486 1.243 0.9661 1.1679 1.549 1.799 1.839
3462.515 1.929 1.779 1.0352 0.7317 0.8621 1.1292 1.0882 1.1195 1.2097 1.2124
3481.805 1.4861 1.3909 1.1458 1.253 1.5152 1.909 1.699 1.5304 1.769 1.729
3501.095 1.709 1.569 1.659 1.729 1.849 2.079 2.229 1.909 1.559 1.679
3520.385 1.689 1.929 1.909 1.515 1.729 1.719 1.2228 1.0606 1.3479 1.639
3539.674 1.4424 1.3173 1.0469 0.7889 0.9969 1.3912 1.719 1.5238 1.4306 1.4447
3558.964 1.5265 1.679 1.649 1.0951 0.8558 1.1297 0.9304 1.0476 1.138 1.151
3578.254 1.0143 1.0516 1.1011 0.6669 0.6833 0.7878 0.62441 0.5095 0.69 0.7757
3597.544 0.9151 0.9567 1.1573 1.189 0.8127 0.8553 0.8319 0.7341 1.1278 1.3206
3616.833 1.2526 1.5129 1.2775 0.812 0.7979 1.0703 1.3434 1.1079 1.0209 1.3594
3636.123 1.2184 0.9274 0.9904 1.1796 1.1085 1.0898 0.9811 0.7018 0.7118 1.2222
3655.413 1.829 1.789 1.549 1.3404 1.2395 1.539 1.599 1.2266 0.9814 1.0237
3674.703 1.3758 1.579 1.379 1.0008 0.9671 1.2448 1.2484 0.95 0.8363 0.8005
3693.993 0.7934 0.9946 1.059 1.0546 1.0439 0.8699 0.7357 0.6705 0.678 0.6047
3713.282 0.61058 0.55798 0.56159 0.6863 0.7177 0.6909 0.6063 0.5799 0.7315 0.8562
3732.572 0.4441 0.509 0.7385 0.57502 0.34 0.56556 0.9312 0.8364 0.6887 1.0412
3751.862 1.4387 1.0217 1.0486 1.1331 0.8797 0.7124 0.5272 0.58425 0.60705 0.7634
3771.152 1.0919 1.174 0.8423 0.6427 0.6774 0.7105 0.9525 1.0421 1.0245 0.799
3790.441 0.8181 1.1021 1.0367 1.0007 0.6881 0.5084 0.7283 0.9993 0.8393 0.432
3809.731 0.436 0.7375 0.7401 0.7068 0.6983 0.59151 1.0789 1.07 0.9032 1.1549
3829.021 1.124 0.7969 0.5271 0.892 1.0578 0.7826 0.9591 1.1417 0.7606 0.7953
3848.311 0.972 0.9717 1.1012 0.9721 1.0186 1.1482 1.3703 1.3594 1.1579 1.0296
3867.601 0.8906 0.8335 0.8695 0.7087 0.7436 0.8741 0.7071 0.88 1.3073 1.0786
3886.890 0.8324 0.9992 1.0515 1.2403 1.1021 0.9139 1.1076 1.3624 1.4249 0.7826
3906.180 0.8282 1.199 0.9969 0.7932 0.4923 0.8181 0.7769 0.359 0.328 0.403
3925.470 0.7722 0.867 0.706 0.8926 1.2089 1.1519 0.7814 0.53684 0.446 0.764
3944.760 1.0557 0.6954 0.244 0.201 0 0.338 0.57133 0.4646 0.4892 0.511
3964.049 1.1109 1.201 1.0454 1.0559 0.9335 0.8854 0.8322 0.5909 0.8856 0.8788
3983.339 0.744 0.61566 0.63028 1.0052 0.8027 0.7617 0.5041 0.4529 0.7818 1.0742
##END=
