##TITLE=2,6-Dichlorophenyl-N,N-dimethylcarbamate
##JCAMP-DX=4.24
##DATA TYPE=INFRARED SPECTRUM
##ORIGIN=EPA-IR VAPOR PHASE LIBRARY
##OWNER=SRD/NIST
Collection (C) 2018 copyright by the U.S. Secretary of Commerce
on behalf of the United States of America. All rights reserved.
##CAS REGISTRY NO=6639-32-3
##MOLFORM=C 9 H 9 C L 2 N O 2
##$NIST SOURCE=MSDC-IR
##STATE=gas
##XUNITS=1/CM
##YUNITS=ABSORBANCE
##XFACTOR=1.
##YFACTOR=0.001
##DELTAX=1.92898
##FIRSTX=549.8
##LASTX=4000.7
##FIRSTY=0.545
##MAXX=4000.7
##MINX=549.759
##MAXY=0.526225
##MINY=0
##NPOINTS=1790
##XYDATA=(X++(Y..Y))
549.759 0.545 0.7013 1.2393 0.9505 1.3033 0.9765 1.5389 1.6631 1.1003 0.8863
569.049 1.7015 3.045 2.205 1.3549 1.5724 1.815 2.005 2.065 2.035 1.975
588.339 1.845 1.3167 1.3002 1.4273 1.5423 2.185 2.245 1.5424 1.4155 1.7611
607.628 1.985 2.205 2.865 3.425 3.965 4.625 5.065 5.025 5.165 4.595
626.918 3.295 2.885 2.685 2.745 2.945 2.625 2.755 3.475 4.295 5.305
646.208 6.485 7.295 7.415 7.505 7.135 5.805 4.455 3.905 3.635 2.965
665.498 2.415 1.995 2.075 2.065 1.5182 1.6501 2.005 2.095 1.795 1.935
684.787 2.225 2.585 3.095 3.055 2.915 3.045 3.465 4.065 5.055 6.705
704.077 8.525 10.105 11.665 13.695 15.665 16.035 14.785 12.795 11.065 9.545
723.367 7.675 6.805 6.225 5.705 5.855 6.245 7.005 7.805 9.345 11.355
742.657 13.075 14.085 14.665 15.325 16.015 17.305 19.795 23.865 30.875 40.205
761.947 50.185 61.565 77.475 94.095 92.755 79.005 71.745 67.305 61.875 57.725
781.236 56.455 58.855 63.385 68.125 71.825 73.365 72.175 68.695 62.895 55.505
800.526 47.925 40.285 34.365 30.735 28.385 26.885 26.745 27.035 27.055 27.785
819.816 27.895 27.525 26.835 25.185 23.055 20.975 19.285 18.355 19.355 22.055
839.106 27.485 35.085 42.545 48.405 51.405 51.095 47.575 41.325 32.905 24.025
858.395 16.805 11.995 9.015 7.205 6.025 4.845 4.395 4.925 4.625 4.155
877.685 4.555 4.875 4.805 4.795 4.925 4.935 4.925 4.615 4.105 3.855
896.975 3.685 3.505 3.265 3.155 3.425 3.595 3.315 3.335 3.915 4.125
916.265 3.705 3.405 3.485 3.535 3.365 3.185 3.045 2.785 2.675 2.895
935.555 2.935 2.925 3.365 3.545 3.595 3.825 4.005 4.195 4.325 4.515
954.844 4.745 5.205 5.955 6.215 6.435 6.755 6.935 7.235 7.685 8.465
974.134 9.175 10.575 12.525 14.765 17.365 20.545 24.645 28.955 33.645 37.265
993.424 39.385 40.255 39.375 36.665 32.565 27.935 23.335 19.455 16.395 14.005
1012.714 12.005 11.315 11.325 10.935 10.295 9.925 9.955 10.095 10.855 11.685
1032.003 12.605 14.175 15.335 16.305 17.465 18.395 18.825 19.375 20.195 21.255
1051.293 22.875 23.765 25.165 27.645 29.225 30.355 32.135 33.705 33.655 33.655
1070.583 33.895 32.905 31.075 29.735 29.095 28.705 28.605 28.355 29.485 32.485
1089.873 36.055 39.375 44.235 50.275 55.455 60.755 66.165 67.755 68.275 67.845
1109.163 63.655 60.705 59.025 57.495 58.245 60.175 64.635 71.475 78.075 86.395
1128.452 96.825 107.605 118.845 132.545 148.625 164.615 180.355 196.775 212.525 227.145
1147.742 239.115 247.905 253.435 255.335 255.145 250.425 241.755 230.385 216.665 202.565
1167.032 188.415 173.385 158.485 145.285 133.405 121.805 111.215 101.645 91.315 83.535
1186.322 77.075 70.205 65.575 62.325 58.925 56.025 56.185 56.695 56.945 58.665
1205.611 58.325 57.385 57.235 56.645 58.015 60.065 62.815 67.885 75.565 87.615
1224.901 104.525 125.625 149.955 175.995 199.015 216.795 226.425 224.775 211.995 188.345
1244.191 157.145 123.345 91.845 66.935 50.535 40.995 35.715 32.615 30.775 29.515
1263.481 28.455 27.945 27.855 27.665 27.365 26.865 26.985 27.345 26.885 26.125
1282.771 25.295 24.815 24.315 23.145 21.755 20.745 19.615 18.075 16.445 15.195
1302.060 14.405 13.745 13.355 13.195 12.975 12.785 12.845 13.145 13.555 13.935
1321.350 14.435 15.115 15.705 16.455 17.275 18.035 19.055 20.175 21.435 22.925
1340.640 24.875 27.075 29.725 32.875 36.405 40.825 46.125 52.405 59.975 68.715
1359.930 78.795 90.475 103.845 118.335 133.695 149.905 166.065 181.185 194.375 204.435
1379.219 209.935 210.285 205.295 195.455 181.195 164.335 147.045 130.475 115.555 102.695
1398.509 92.255 83.855 77.345 71.995 67.735 64.735 62.895 61.275 59.975 58.505
1417.799 56.685 54.625 53.065 52.215 52.255 54.395 59.705 68.205 80.535 96.275
1437.089 114.965 132.675 147.865 159.515 165.925 166.585 160.755 149.915 135.085 119.015
1456.378 102.765 87.675 75.985 66.545 59.125 53.415 49.475 46.755 44.865 43.125
1475.668 41.495 39.895 38.175 36.075 34.075 32.455 31.165 29.965 29.145 28.925
1494.958 29.005 28.885 28.885 29.005 28.845 28.495 27.675 26.645 25.905 25.345
1514.248 24.705 24.085 23.615 23.175 22.875 22.405 21.975 21.645 21.305 20.845
1533.538 20.285 20.025 19.705 18.975 18.265 17.695 17.185 16.775 16.515 16.555
1552.827 17.035 17.935 19.175 21.015 23.385 26.235 30.265 34.795 39.565 44.435
1572.117 47.805 48.805 47.205 43.065 36.845 29.545 22.725 17.395 13.965 11.735
1591.407 10.405 9.595 9.105 8.855 8.645 8.325 8.005 8.015 8.255 8.245
1610.697 8.165 8.015 7.785 7.755 7.725 7.505 7.275 6.965 6.785 6.585
1629.986 6.685 6.895 6.745 6.785 6.835 6.995 7.335 7.845 8.405 8.645
1649.276 8.845 8.965 9.055 8.755 8.165 7.505 6.995 6.625 6.095 5.925
1668.566 5.795 5.725 5.885 5.755 5.755 5.805 6.155 6.465 6.615 7.005
1687.856 7.465 7.975 8.535 8.945 9.505 10.345 10.905 11.105 11.295 11.735
1707.146 12.215 12.935 14.055 15.335 16.895 18.775 20.445 21.965 23.455 24.475
1726.435 24.965 25.085 25.325 26.065 27.275 29.135 32.125 36.595 42.625 51.165
1745.725 62.835 78.865 100.875 131.515 171.365 220.935 282.505 348.315 413.425 471.905
1765.015 512.745 526.225 499.835 441.125 366.435 292.565 221.555 160.685 115.315 84.185
1784.305 64.045 50.785 42.255 36.435 32.525 29.825 28.065 26.605 25.465 24.415
1803.594 23.145 21.745 20.255 18.465 16.645 14.865 13.215 11.875 10.715 10.015
1822.884 9.585 9.135 8.895 8.735 8.565 8.435 8.395 8.345 8.445 8.415
1842.174 8.325 8.225 7.815 7.335 7.045 6.665 6.125 5.585 5.075 4.815
1861.464 4.635 4.585 4.555 4.415 4.385 4.455 4.605 4.755 4.855 4.925
1880.754 4.855 4.685 4.665 4.645 4.465 4.205 3.885 3.555 3.475 3.585
1900.043 3.685 3.705 3.795 3.955 4.115 4.315 4.535 4.835 4.975 4.885
1919.333 4.775 4.535 4.285 4.025 3.685 3.295 2.935 2.765 2.645 2.605
1938.623 2.695 2.665 2.605 2.505 2.465 2.485 2.685 2.905 2.765 2.595
1957.913 2.595 2.515 2.405 2.455 2.585 2.545 2.445 2.365 2.335 2.485
1977.202 2.695 2.905 3.045 3.075 3.165 3.365 3.525 3.575 3.595 3.535
1996.492 3.475 3.485 3.345 3.345 3.425 3.225 3.025 3.035 2.995 2.955
2015.782 2.815 2.725 2.845 2.845 2.715 2.545 2.455 2.405 2.415 2.385
2035.072 2.225 1.955 1.825 1.905 1.845 1.785 1.815 1.781 1.815 1.975
2054.362 2.025 1.985 1.935 1.965 2.115 2.155 2.115 2.255 2.485 2.575
2073.651 2.585 2.805 3.095 3.195 3.365 3.565 3.705 3.765 3.845 3.785
2092.941 3.545 3.465 3.345 2.995 2.675 2.545 2.365 2.255 2.335 2.325
2112.231 2.395 2.335 2.075 2.265 2.415 2.215 2.145 2.215 2.355 2.435
2131.521 2.465 2.435 2.285 2.195 2.245 2.285 2.115 1.985 1.915 1.875
2150.810 1.755 1.6345 1.6496 1.6081 1.5701 1.5123 1.472 1.4431 1.4129 1.3448
2170.100 1.2265 1.3152 1.4809 1.387 1.2888 1.2637 1.1474 1.0623 0.9892 1.1217
2189.390 1.3671 1.3333 1.2223 1.2291 1.1934 1.2593 1.3623 1.2242 1.0558 1.0382
2208.680 1.2623 1.3463 1.3176 1.3326 1.3458 1.3711 1.388 1.3695 1.303 1.4592
2227.970 1.5219 1.4393 1.4727 1.4933 1.5522 1.6178 1.5663 1.5337 1.4111 1.3014
2247.259 1.3163 1.2233 1.2038 1.2512 1.3053 1.3458 1.4127 1.5188 1.5219 1.4974
2266.549 1.434 1.4311 1.5496 1.6831 1.6844 1.7727 1.825 1.7277 1.7289 1.805
2285.839 1.935 1.985 2.125 1.985 1.955 2.265 2.405 2.595 2.635 2.655
2305.129 2.625 2.585 2.535 2.525 2.425 2.105 1.905 1.885 1.945 1.885
2324.418 1.7656 1.7402 1.5881 1.4517 1.5797 1.6498 1.5622 1.5495 1.5142 1.4536
2343.708 1.5256 1.4257 1.2598 1.2674 1.311 1.2406 1.2985 1.1531 0.9492 1.1018
2362.998 1.2194 1.2964 1.2809 1.4284 1.4926 1.4653 1.6689 1.6541 1.7125 1.6174
2382.288 1.5319 1.6967 1.5994 1.5499 1.5521 1.4356 1.5338 1.4928 1.1708 1.1581
2401.578 1.3359 1.3971 1.4008 1.4165 1.4824 1.5636 1.583 1.6753 1.7647 1.4637
2420.867 1.232 1.3936 1.3969 1.2409 1.3005 1.2845 1.2001 1.1602 1.1884 1.3549
2440.157 1.4465 1.632 1.6024 1.3823 1.2713 1.2343 1.2866 1.4463 1.6195 1.7838
2459.447 2.035 1.975 1.975 2.175 2.285 2.585 2.605 2.425 2.475 2.745
2478.737 2.795 2.545 2.545 2.615 2.375 2.085 2.135 2.205 2.095 2.105
2498.026 2.205 2.165 2.005 2.045 1.945 1.835 1.875 1.935 2.245 2.485
2517.316 2.355 2.255 2.375 2.165 1.955 2.295 2.315 2.145 2.275 2.295
2536.606 2.245 1.945 1.825 1.835 1.7256 1.6524 1.7009 1.885 1.6989 1.6089
2555.896 1.7758 1.6581 1.3967 1.3435 1.4723 1.3743 1.1563 1.392 1.5975 1.3088
2575.186 1.2855 1.178 0.976 1.1728 1.5218 1.5809 1.4051 1.5708 1.4992 1.474
2594.475 1.613 1.4916 1.4155 1.4402 1.4513 1.4655 1.4773 1.6589 1.6266 1.6792
2613.765 1.7792 1.5158 1.5299 1.6263 1.6502 1.785 1.5281 1.2688 1.3383 1.1525
2633.055 1.1475 1.4693 1.5539 1.468 1.3484 1.3314 1.2929 1.2997 1.5278 1.7103
2652.345 1.7665 1.7347 1.7581 1.4294 1.4014 1.555 1.4051 1.5632 1.835 1.835
2671.634 1.7279 1.6715 1.5607 1.744 1.885 1.7411 1.795 1.6602 1.6446 1.7406
2690.924 1.7653 1.935 2.085 1.915 1.825 1.805 1.845 1.845 1.825 2.045
2710.214 1.795 1.5826 1.747 1.7075 1.5504 1.795 1.805 1.5597 1.7017 1.815
2729.504 1.6817 1.7624 1.935 1.955 1.995 2.005 2.005 2.155 2.075 2.205
2748.794 2.455 2.435 2.555 2.415 2.445 2.475 2.485 2.705 2.455 2.405
2768.083 2.875 2.955 2.935 2.975 2.765 2.845 3.035 2.885 3.165 3.645
2787.373 3.775 4.025 4.235 4.465 4.625 4.795 5.255 5.665 6.195 6.935
2806.663 7.575 8.095 8.855 9.775 10.075 10.345 10.675 10.445 10.065 9.865
2825.953 9.775 9.825 9.885 10.015 10.295 10.555 10.765 10.945 10.995 11.155
2845.242 11.325 11.165 11.475 11.965 12.535 13.145 13.865 14.695 15.375 16.255
2864.532 16.935 17.495 18.135 18.645 18.905 19.035 19.345 19.705 19.895 19.895
2883.822 20.315 21.075 21.985 22.865 23.365 24.075 24.885 25.555 25.835 26.645
2903.112 27.655 28.045 28.495 29.225 29.805 30.015 30.565 31.645 32.775 33.895
2922.401 35.325 36.975 38.445 40.425 43.005 45.275 47.405 49.445 51.165 52.665
2941.691 53.825 54.435 54.035 52.875 51.115 48.925 46.485 43.285 39.975 37.065
2960.981 34.065 31.035 28.275 25.705 23.745 21.885 20.105 18.735 17.515 16.225
2980.271 14.905 14.115 13.845 13.185 12.315 11.735 11.205 10.695 10.585 10.665
2999.561 10.105 9.795 9.685 9.375 9.105 9.185 9.195 8.725 8.595 8.675
3018.850 8.615 8.475 8.855 9.295 9.115 8.985 8.905 9.015 9.605 10.015
3038.140 9.765 9.455 9.565 9.555 9.495 9.485 9.225 8.955 8.905 8.835
3057.430 8.735 8.855 9.125 9.355 9.865 10.655 11.185 11.905 12.575 13.125
3076.720 13.805 14.155 14.065 13.275 12.125 10.785 9.365 7.865 6.455 5.165
3096.009 4.175 3.795 3.605 3.125 2.735 2.795 2.785 2.595 2.545 2.725
3115.299 2.475 2.295 2.365 2.305 2.655 2.685 2.505 2.755 2.735 2.455
3134.589 2.475 2.665 2.895 2.985 2.985 2.855 2.735 2.755 2.815 2.455
3153.879 2.205 2.295 2.045 2.025 1.785 1.382 1.2545 1.1851 1.1886 1.5579
3173.169 1.2322 0.80038 1.4894 1.6616 1.1105 1.0185 1.1007 1.0205 1.0699 1.1058
3192.458 0.9758 0.9552 0.80652 0.692 0.82634 0.85388 0.582 0.558 0.7509 1.0909
3211.748 1.1464 0.741 0.87548 0.9995 0.85652 0.9649 0.85825 0.7305 0.9078 1.1645
3231.038 1.0397 0.676 0.87706 0.977 0.9727 0.9847 0.82742 0.9803 0.9245 0.387
3250.328 0.347 0.644 0.661 0.253 0.185 0.80816 0.87389 0.8883 1.1034 0.9571
3269.617 0.85684 0.702 0.562 0.7599 0.619 0.521 0.7191 0.663 0.563 0.548
3288.907 0.626 0.78023 0.84249 0.7494 0.684 0.52 0.476 0.435 0.65 0.83319
3308.197 0.598 0.7149 0.851 0.84995 1.0575 0.9681 0.79679 0.7643 0.86953 0.9848
3327.487 0.546 0.2 0.534 0.944 0.7692 0.613 0.591 0.7324 0.683 0.7185
3346.777 0.9025 0.8841 0.9393 0.576 0.295 0.172 0.491 0.565 0.504 0.679
3366.066 0.6889 0.7328 0.399 0.224 0.301 0.539 0.481 0.672 0.82655 0.66
3385.356 0.651 0.398 0.227 0.205 0.643 1.2785 1.1102 0.605 0.463 0.359
3404.646 0.344 1.0098 1.2806 0.9734 0.82576 0.415 0.049 0.43 0.7296 0.202
3423.936 0.095 0 0.082 0.518 0.364 0.367 0.467 0.435 0.566 0.442
3443.225 0.375 0.629 0.676 0.51 0.226 0.362 0.541 0.564 0.7197 0.474
3462.515 0.6968 0.87545 0.7428 0.787207 0.614 0.407 0.37 0.451 0.546 0.47
3481.805 0.294 0.41 0.7113 0.84165 0.86575 1.1098 1.0184 0.7434 0.7289 1.1487
3501.095 1.6106 1.6652 1.835 2.175 2.315 2.625 2.605 2.085 2.125 2.335
3520.385 2.405 2.155 2.035 2.135 1.6829 1.5044 1.3863 1.0661 1.0313 1.0442
3539.674 1.2036 1.4503 1.6609 1.5551 1.3281 1.22 1.0753 1.065 1.0258 1.071
3558.964 1.1641 0.9054 0.684 0.317 0.516 0.7445 0.488 0.43 0.439 0.517
3578.254 0.219 0.349 0.543 0.326 0.135 0.072 0.24 0.295 0.641 0.83704
3597.544 0.593 0.639 1.1969 1.2638 0.7466 0.363 0.31 0.53 0.637 0.7629
3616.833 0.7621 0.331 0.478 0.9094 0.8036 0.645 0.588 0.81815 0.86232 0.596
3636.123 0.528 0.459 0.258 0.472 0.533 0.359 0.436 0.7152 0.45 0.107
3655.413 0.648 0.9515 0.552 0.347 0.399 0.367 0.599 0.7481 0.5 0.509
3674.703 0.9739 0.86211 0.631 0.992 0.83707 0.346 0.668 1.1099 1.0752 1.2749
3693.993 1.1546 0.565 0.071 0.358 0.661 0.7078 0.8694 0.787462 0.524 0.459
3713.282 0.412 0.374 0.408 0.558 0.652 0.386 0.533 0.8002 1.1774 1.1762
3732.572 0.881 0.7175 0.6854 0.7101 0.665 0.7147 0.643 0.793847 0.9401 0.479
3751.862 0.276 0.563 0.739 0.9061 0.613 0.315 0.152 0.082 0.538 0.86923
3771.152 0.84515 0.628 0.548 0.278 0.322 0.82717 1.0766 1.3256 1.1412 0.362
3790.441 0.266 0.9427 1.049 0.629 0.419 0.395 0.439 0.378 0.126 0.451
3809.731 1.0143 1.0616 1.1881 1.1131 0.9055 1.014 0.87346 0.647 0.424 0.443
3829.021 0.7025 0.84431 0.9795 1.2012 1.2234 1.2876 1.175 0.601 0.336 0.364
3848.311 0.34 0.345 0.6892 0.7156 0.552 0.86543 0.88165 0.62 1.0012 1.0838
3867.601 1.048 1.2065 1.0092 0.639 0.44 0.83883 0.9866 0.86241 0.681 0.571
3886.890 0.84453 1.3178 1.2211 0.8936 1.0388 1.058 1.0452 0.8911 0.495 0.201
3906.180 0.2 0.517 0.7745 0.83601 0.9971 1.0538 1.0016 1.0415 1.0651 1.0525
3925.470 0.84942 0.81528 1.2712 1.1725 0.638 0.6996 0.9369 0.8871 0.7384 0.479
3944.760 0.445 0.68 0.618 0.548 0.266 0.08 0.461 0.57 0.57 0.85688
3964.049 0.55 0.412 0.9228 1.069 0.7331 0.523 0.669 0.672 1.0011 1.2993
3983.339 1.1065 0.78213 0.7185 0.86205 0.8462 0.77501 0.7312 0.86302 0.485 0.385
##END=
