##TITLE=5-Benzyloxyindole-2-carboxylic acid
##JCAMP-DX=4.24
##DATA TYPE=INFRARED SPECTRUM
##ORIGIN=EPA-IR VAPOR PHASE LIBRARY
##OWNER=SRD/NIST
Collection (C) 2018 copyright by the U.S. Secretary of Commerce
on behalf of the United States of America. All rights reserved.
##CAS REGISTRY NO=6640-09-1
##MOLFORM=C 16 H 13 N O 3
##$NIST SOURCE=MSDC-IR
##STATE=gas
##XUNITS=1/CM
##YUNITS=ABSORBANCE
##XFACTOR=1.
##YFACTOR=0.001
##DELTAX=1.92898
##FIRSTX=549.8
##LASTX=4000.7
##FIRSTY=1.5549
##MAXX=4000.7
##MINX=549.759
##MAXY=0.04598
##MINY=0
##NPOINTS=1790
##XYDATA=(X++(Y..Y))
549.759 1.5549 1.3192 1.3617 1.16569 0.895 1.2664 1.4417 1.5767 1.4388 1.4808
569.049 2.28 2.75 2.54 2.5 2.37 2.38 2.64 2.9 3.58 4.09
588.339 3.7 3.24 3.37 3.57 3.74 3.77 3.73 3.74 3.17 2.37
607.628 2.32 2.58 2.31 2.0896 2.25 2.69 2.92 2.54 2.5 2.53
626.918 2.21 2.16 2.17 2.1221 2.26 2.56 2.32 2.21 2.44 2.0609
646.208 2.27 2.67 2.51 2.42 2.0589 1.9456 2.3 2.57 2.73 2.43
665.498 2.32 2.43 2.69 3.43 4.08 4.34 4.7 5.35 5.9 6.52
684.787 7.64 8.31 8.79 9.92 11 11.63 12.62 13.7 14.36 15.03
704.077 15.93 16.93 18.29 19.96 20.98 21.31 21.08 20.57 19.82 18.81
723.367 17.54 16.5 15.71 14.99 15.24 15.45 15.5 16 16.38 16.89
742.657 17.11 17.31 17.43 16.77 16.17 15.06 13.37 12.24 10.82 9.13
761.947 8.21 7.53 6.91 7.4 7.95 8.37 8.55 8.66 9.41 10.28
781.236 11.2 11.98 12.59 13.31 14.04 14.45 14.32 13.94 13.49 12.7
800.526 12.18 11.5 10.8 10.11 9.45 8.73 8.11 7.75 7.57 7.71
819.816 7.39 7.54 7.71 7.46 7.66 7.91 7.97 7.75 7.69 7.25
839.106 6.81 7.13 7.17 6.79 6.31 6.37 6.58 6.27 6.3 6.21
858.395 5.7 5.78 6.1 5.88 5.54 4.96 4.69 4.57 3.98 3.63
877.685 3.38 3.11 3.27 3.35 3.5 3.74 4.04 4.72 5.99 7.72
896.975 9.5 10.39 10.73 10.67 9.38 7.95 6.64 5.86 5.47 5.13
916.265 4.7 4.09 3.44 3.21 3.56 3.55 3.38 3.41 3.53 3.56
935.555 3.73 4.29 4.48 4.32 4.5 4.75 4.73 4.82 4.89 4.51
954.844 4.19 3.92 3.61 3.51 3.4 3.62 3.79 3.62 3.27 3.12
974.134 3.57 4.15 4.33 4.39 4.59 5.26 6 6.31 6.91 7.55
993.424 8.22 8.76 8.97 9.22 9.85 10.7 11.17 11.16 11.52 12.4
1012.714 13.27 13.88 14.52 15.68 16.51 16.36 16.12 15.64 14.82 13.85
1032.003 12.94 11.47 9.75 8.64 8.38 7.78 6.64 5.57 5.18 5.15
1051.293 4.65 4.43 4.46 4.77 5.21 5.46 5.32 4.94 4.33 4.75
1070.583 5.21 5 4.26 4.01 3.8 4.38 4.13 2.53 2.87 2.85
1089.873 2.53 2.99 3.99 4.38 4.7 4.8 4.39 4.18 3.76 4
1109.163 5.18 6.36 8.18 8.11 7.48 10.45 13.75 14.22 14.6 15.02
1128.452 14.44 14.25 15.68 17.97 19.71 22.01 25.46 30.7 35.85 39.44
1147.742 43.01 45.56 45.98 43.56 37.81 31.41 25.04 19.13 14.71 11.29
1167.032 8.92 7.72 6.88 6.66 6.18 5.52 5.93 6.14 6.08 5.83
1186.322 5.54 5.36 5.64 6.13 5.62 5.46 6.99 9.55 11.52 14.33
1205.611 18.52 22.64 27.19 30.15 32.43 35.2 36.04 33.29 30.18 27.71
1224.901 24.41 20.53 16.97 15.11 13.77 12.38 11.95 12.22 11.91 11.84
1244.191 11.56 10.37 9 8.31 7.78 7.08 7.35 7.51 7.53 8.91
1263.481 10.79 12.71 15.48 18.72 22.26 25.49 27.22 27.02 25.39 22.45
1282.771 18.68 14.93 12.04 10.16 8.97 8.17 7.68 7.47 7.08 7.24
1302.060 7.65 7.87 8.2 8.5 8.78 8.94 8.76 8.7 8.69 8.4
1321.350 7.97 7.65 7.32 6.83 6.53 6.3 5.8 5.48 5.32 5.02
1340.640 4.89 4.8 4.75 4.66 4.51 4.4 4.32 4.11 4.08 4.34
1359.930 4.76 5.38 5.93 6.5 7.14 7.62 8.18 8.71 8.73 8.67
1379.219 8.39 7.77 7.15 6.37 5.61 5.14 4.71 4.6 4.75 4.89
1398.509 4.98 5.06 5.41 5.63 5.66 5.78 5.67 5.34 5.27 5.2
1417.799 5 4.79 4.71 4.83 4.88 4.99 5.33 5.65 5.97 6.68
1437.089 7.74 9.2 11.07 13.3 15.96 18.59 20.92 22.55 23.31 23.52
1456.378 23.3 22.74 22.65 23.51 25.23 27.39 29.73 32.34 34.44 35.46
1475.668 34.93 32.84 29.47 25.09 20.37 16.09 12.91 10.74 9.5 8.97
1494.958 8.69 8.6 8.43 8.1 7.56 7.04 6.72 6.66 7.17 7.91
1514.248 8.65 9.27 9.2 8.85 8.13 7.04 5.92 4.95 4.48 4.22
1533.538 4.11 3.9 3.81 4.14 4.54 4.91 5.1 5.46 6.04 6.38
1552.827 6.6 6.65 6.75 6.98 6.89 6.7 6.66 6.75 7.1 7.43
1572.117 7.83 8.45 8.93 9.48 9.88 9.82 9.33 8.84 8.08 7.12
1591.407 6.48 5.86 5.59 5.23 4.75 4.68 4.82 4.81 4.7 4.92
1610.697 5.08 5.33 5.9 6.51 7.06 7.46 7.69 7.81 7.84 7.57
1629.986 7.11 6.39 5.65 4.99 4.21 3.51 3.07 2.94 2.91 2.87
1649.276 2.66 2.53 2.57 2.53 2.49 2.44 2.47 2.51 2.3 2.3
1668.566 2.55 2.76 2.92 2.8 2.74 2.91 2.86 2.8 2.84 2.89
1687.856 2.98 2.92 2.76 2.77 2.68 2.61 2.65 2.57 2.43 2.44
1707.146 2.43 2.32 2.25 2.3 2.34 2.31 2.31 2.1291 1.9474 1.8752
1726.435 2.0181 2.0191 1.9923 1.9838 1.7918 1.6671 1.7534 1.8447 1.7922 1.8056
1745.725 1.7505 1.5407 1.5173 1.6218 1.5855 1.4679 1.3173 1.3614 1.5257 1.5334
1765.015 1.3629 1.3292 1.348 1.3489 1.392 1.46 1.4856 1.4039 1.3826 1.5467
1784.305 1.6504 1.6229 1.7769 1.8443 1.9688 2.14 2.0696 2.0544 2.0883 2.0307
1803.594 1.9377 1.8805 1.7672 1.7325 1.7045 1.5581 1.6382 1.8476 1.8406 1.7651
1822.884 1.7443 1.7505 1.7889 1.8152 1.8598 1.8263 1.8724 1.97 1.9285 1.8595
1842.174 1.8671 1.932 2.0085 1.9266 1.7788 1.8757 1.8537 1.8039 1.8354 1.8557
1861.464 2.0151 1.9498 1.8355 2.0207 2.0586 1.8317 1.8603 1.9814 1.7727 1.5826
1880.754 1.5772 1.6268 1.5244 1.3846 1.5224 1.6011 1.4442 1.3279 1.3487 1.4152
1900.043 1.3825 1.4105 1.4007 1.3472 1.4591 1.5678 1.4699 1.3859 1.4629 1.3832
1919.333 1.2796 1.3341 1.5103 1.6027 1.6881 1.6364 1.6967 1.7792 1.7807 1.8935
1938.623 1.8222 1.827 1.7696 1.7078 1.8783 1.9341 1.9347 1.984 1.9501 1.9013
1957.913 2.0152 1.9937 1.7594 1.5436 1.4738 1.4883 1.381 1.4927 1.6245 1.595
1977.202 1.6464 1.4509 1.18794 1.12767 1.14654 1.3196 1.4007 1.2508 1.17534 1.3181
1996.492 1.3889 1.3843 1.3828 1.2839 1.3393 1.5392 1.5356 1.5359 1.607 1.4317
2015.782 1.3318 1.4578 1.4568 1.4575 1.5438 1.4433 1.3328 1.3567 1.4302 1.4986
2035.072 1.4717 1.4352 1.4206 1.3756 1.3231 1.4228 1.5595 1.5104 1.438 1.3837
2054.362 1.3522 1.2999 1.22966 1.2766 1.3236 1.378 1.4444 1.3701 1.3303 1.2992
2073.651 1.1791 1.3567 1.4431 1.3549 1.4593 1.4242 1.21116 1.2444 1.2469 1.1122
2092.941 1.20713 1.21357 1.12329 1.1086 1.0415 1.0472 1.2777 1.21112 1.22605 1.4121
2112.231 1.2485 1.19853 1.2046 1.2473 1.17319 1.1056 1.20015 1.20012 1.19854 1.18398
2131.521 1.12776 1.064 1.022 1.018 1.0494 0.997 1.1024 1.2803 1.3224 1.3449
2150.810 1.3958 1.2935 1.2947 1.3669 1.21465 1.21947 1.247 1.19024 1.2939 1.3441
2170.100 1.16782 1.2514 1.4315 1.3581 1.391 1.3738 1.3118 1.445 1.4939 1.2343
2189.390 1.18881 1.3829 1.3061 1.16721 1.22819 1.3395 1.17386 1.14966 1.3606 1.4179
2208.680 1.4134 1.283 1.2201 1.3618 1.4774 1.3811 1.2634 1.20138 1.2713 1.3274
2227.970 1.2697 1.2986 1.22032 1.1569 1.20576 1.15218 1.13392 1.2314 1.21084 1.2533
2247.259 1.18741 1.017 1.0806 1.14216 1.0366 1.12694 1.22584 1.4115 1.5018 1.2872
2266.549 1.19669 1.16785 1.0931 1.024 1.0544 1.17882 1.22974 1.2404 1.278 1.3468
2285.839 1.3418 1.3117 1.4071 1.3354 1.2604 1.22715 1.2876 1.388 1.6312 1.5389
2305.129 1.2457 1.3016 1.2674 1.2393 1.3898 1.3285 1.12818 1.2371 1.2643 1.0768
2324.418 1.0985 1.2537 1.266 1.0756 1.16097 1.2996 1.21572 1.4011 1.4055 1.3777
2343.708 1.526 1.4558 1.4234 1.448 1.4165 1.3537 1.2641 1.3339 1.476 1.2931
2362.998 1.2585 1.3945 1.4218 1.3759 1.4444 1.4566 1.21386 1.4049 1.4281 1.16959
2382.288 1.101 1.0812 1.15194 1.2552 1.3509 1.3654 1.16243 1.094 1.17265 1.3699
2401.578 1.4681 1.306 1.2846 1.4073 1.4514 1.4857 1.4261 1.3719 1.4361 1.20173
2420.867 1.0447 1.21329 1.4302 1.3238 1.19591 1.17957 1.15997 1.2628 1.4265 1.332
2440.157 1.14343 1.2556 1.4468 1.5768 1.3456 1.14325 1.337 1.4436 1.3829 1.3831
2459.447 1.4199 1.4574 1.5013 1.5292 1.5349 1.5101 1.4944 1.4902 1.20222 1.0921
2478.737 1.4135 1.3752 1.2447 1.3817 1.5122 1.4239 1.18071 1.087 1.2467 1.4444
2498.026 1.3269 1.20965 1.19099 1.22007 1.041 0.969 1.16497 1.1054 1.18207 1.3767
2517.316 1.2421 1.18619 1.2912 1.22693 1.1057 1.18505 1.4503 1.313 0.92 0.967
2536.606 1.2311 1.2659 1.3135 1.4327 1.3761 1.2814 1.3614 1.284 1.1027 1.1036
2555.896 1.13104 1.12091 1.0667 1.16701 1.19134 0.872 0.82 1.02 0.97 0.948
2575.186 0.933 0.98 1.18597 1.3014 1.2528 1.2528 1.3228 1.13971 1.003 1.154
2594.475 1.3044 1.4044 1.4275 1.21808 1.3123 1.4775 1.21956 1.1029 1.2175 1.20301
2613.765 0.994 1.0505 1.19421 1.17999 1.245 1.3872 1.12832 0.885 0.995 1.14123
2633.055 1.18762 1.3285 1.302 1.305 1.5622 1.3743 1.0939 1.0813 1.2334 1.2726
2652.345 1.3241 1.3309 1.3766 1.3574 1.4582 1.5988 1.319 1.15832 1.3723 1.3992
2671.634 1.19439 1.15021 1.14856 1.232 1.2612 1.12472 1.13226 1.2469 1.4402 1.4029
2690.924 1.16416 1.2656 1.4425 1.3175 1.3466 1.3397 1.2368 1.19913 1.20461 1.3586
2710.214 1.2718 1.271 1.20864 1.1156 1.0911 1.002 0.997 1.15009 1.5056 1.4991
2729.504 1.2594 1.2899 1.3965 1.1107 0.973 1.3004 1.3718 1.18995 0.951 0.792
2748.794 1.006 1.2315 1.2671 1.18969 1.18733 1.2664 1.2919 1.1012 1.0629 1.2938
2768.083 1.2559 1.13813 1.0858 1.20606 1.13702 0.737 0.835 1.13922 1.14723 1.1018
2787.373 1.0462 1.16061 1.4538 1.3153 1.0605 1.14083 1.026 1.16748 1.309 1.2492
2806.663 1.351 1.6047 1.5344 1.3564 1.454 1.4538 1.6434 1.9197 2.16 2.061
2825.953 2.0972 2.1217 1.8101 1.7087 1.8135 2.18 2.52 2.59 2.48 2.16
2845.242 1.9278 2.1017 2.41 2.63 2.58 2.79 3.06 3.18 3.26 3.46
2864.532 3.88 4.08 4.19 4.16 4.45 5.1 5.23 5.07 5.03 5.15
2883.822 5.2 5.03 5.01 5.02 4.73 4.33 4.19 4.33 4.2 4.22
2903.112 4.47 4.3 4.04 3.96 3.9 3.87 4.19 4.27 4.34 4.49
2922.401 4.39 4.24 4.1 4.31 4.31 4.25 4.49 4.56 4.7 4.76
2941.691 5.01 5.46 5.36 4.87 4.33 4.25 4.48 4.34 4.02 3.65
2960.981 3.28 3.58 3.64 3 2.98 2.68 2.24 2.28 2.2 2.29
2980.271 2.025 1.8559 1.7598 1.7352 1.952 1.6942 1.5928 1.9719 2.3 2.1031
2999.561 2.0192 2.0338 1.9037 2.074 2.17 2.65 3.17 3.3 3.66 4.31
3018.850 4.61 5.12 5.9 6.46 7.39 8.29 9.18 9.74 9.69 9.73
3038.140 9.83 9.84 9.43 8.28 7.38 7.28 6.9 6.55 6.49 6.37
3057.430 6.73 7.5 7.99 8.39 9.48 10.25 10.5 10.77 10.65 10.36
3076.720 9.33 8.27 7.53 6.78 6.57 6.21 5.91 5.67 5.59 5.35
3096.009 4.61 4.43 4.69 4.62 4.03 3.88 3.93 3.5 3.38 3.29
3115.299 3.03 2.97 2.82 2.59 2.18 1.8894 1.8978 2.16 2.84 3.22
3134.589 3.23 3.14 2.84 2.49 2.44 2.39 2.24 1.645 1.4073 1.3789
3153.879 1.1117 1.0689 1.2324 1.4013 1.3367 1.0655 0.892 1.4274 1.5363 1.3161
3173.169 1.1019 0.829 0.832 1.17378 1.5923 1.6208 1.19745 0.9 1.012 0.787
3192.458 0.777 0.962 0.737 0.737 1.0549 1.19823 0.949 0.748 0.962 1.2443
3211.748 0.834 0.816 1.3213 0.977 0.581 0.798 0.802 0.492 0.388 0.655
3231.038 0.954 0.835 0.581 0.412 0.383 0.605 0.871 0.98 1.18979 1.13703
3250.328 0.857 0.993 1.12335 1.2547 1.119 0.899 0.578 0.496 0.82 1.0351
3269.617 0.92 0.966 1.312 0.84 0.615 0.777 0.681 0.621 0.849 0.813
3288.907 0.559 1.1108 1.13522 0.709 0.739 0.666 0.882 1.14859 0.807 0.513
3308.197 0.609 0.607 0.559 0.735 0.719 1.269 1.8946 1.4592 1.0437 0.995
3327.487 1.18742 1.18342 1.15758 1.0618 0.883 1.015 0.838 0.954 1.17725 0.813
3346.777 0.658 0.835 0.824 0.629 0.868 1.0972 0.945 0.915 0.954 0.824
3366.066 0.78 0.984 0.782 0.818 0.689 0.491 1.1021 1.3768 1.2626 1.0501
3385.356 1.021 0.836 0.64 0.9 1.16127 1.0335 0.826 0.586 0.511 1.15099
3404.646 1.3673 1.0663 1.0362 1.13808 1.3029 1.3299 0.927 0.957 1.1112 0.665
3423.936 0.546 0.957 1.4696 1.6219 1.1058 1.12263 1.6927 1.4475 1.375 1.6022
3443.225 1.4825 1.5172 1.5285 1.41 1.4599 1.3385 1.5704 1.8237 1.6743 1.6802
3462.515 1.5199 1.9128 2.15 2.0471 2.0461 2.0493 2.5 2.75 2.56 2.51
3481.805 2.85 3.44 3.97 4.21 4.66 5.13 5.63 6.19 6.36 6.23
3501.095 6.1 6 6.05 6.53 7.46 8.08 9.06 10.81 12.79 14.67
3520.385 15.61 15.29 14.02 12.58 9.92 7.45 5.99 4.44 3.43 2.87
3539.674 2.16 1.9421 2.0451 1.9265 1.6207 1.0898 0.993 1.0421 1.028 0.981
3558.964 1.2953 1.6363 1.2699 0.935 0.919 0.945 0.958 1.2481 1.0839 0.52
3578.254 0.485 0.902 1.004 0.573 0.743 1.002 0.893 1.023 1.13775 1.0609
3597.544 1.008 0.967 0.969 1.2955 1.3701 1.0789 1.0989 1.0912 0.857 0.589
3616.833 0.711 1.1013 1.015 1.001 1.1638 0.834 0.71 0.88 0.989 0.676
3636.123 0.707 1.2966 1.2401 0.888 0.768 0.897 0.672 0.604 1.011 1.1032
3655.413 0.943 0.801 0.818 0.848 0.782 0.857 0.842 0.844 0.667 0.485
3674.703 0.585 0.565 0.691 0.955 1.0884 0.91 0.896 0.923 0.578 0.758
3693.993 0.985 0.939 1.332 1.0534 0.354 0.46 0.782 0.876 1.16901 1.2361
3713.282 1.0643 1.12755 0.885 0.988 1.3552 1.3751 1.4694 1.17628 0.811 0.825
3732.572 0.866 1.018 0.913 0.741 0.704 0.679 0.839 0.788 0.572 0.851
3751.862 1.06 1.2 1.5791 1.5453 1.2272 1.0565 1.2863 1.2582 0.853 0.94
3771.152 0.966 0.903 1.0391 0.962 1.2479 1.19659 1.20019 1.4326 1.006 0.827
3790.441 0.683 0.353 0.731 1.2658 1.1706 0.93 0.891 0.597 0.321 0.673
3809.731 0.893 0.865 0.762 0.915 1.18074 1.0717 1.025 1.1143 0.978 0.632
3829.021 0.535 0.619 1.0724 1.3469 0.876 0.821 1.16452 1.4786 1.4092 0.976
3848.311 0.79 0.808 1.022 1.2452 1.4697 1.236 1.025 0.816 0.515 0.591
3867.601 0.824 1.12604 0.546 0 0.151 0.628 0.684 1.016 1.15292 0.818
3886.890 1.20504 1.5554 1.19394 0.661 0.814 0.874 1.0376 0.925 0.555 0.39
3906.180 0.749 1.3856 1.3917 1.001 0.616 0.839 0.945 0.594 0.755 0.868
3925.470 0.872 0.858 0.8 0.745 0.433 0.536 0.984 1.18482 1.0965 1.0816
3944.760 1.0814 0.715 0.522 0.278 0.293 0.963 1.3472 1.2635 1.018 0.977
3964.049 1.3366 1.4746 1.0575 1.0914 1.14313 0.941 0.832 0.976 1.3366 1.3373
3983.339 1.0794 0.81 0.485 0.602 0.894 0.95 0.881 1.0401 1.3621 0.814
##END=
