##TITLE=2-Ethyl-6-methylphenyl isothiocyanate
##JCAMP-DX=4.24
##DATA TYPE=INFRARED SPECTRUM
##ORIGIN=EPA-IR VAPOR PHASE LIBRARY
##OWNER=SRD/NIST
Collection (C) 2018 copyright by the U.S. Secretary of Commerce
on behalf of the United States of America. All rights reserved.
##CAS REGISTRY NO=66609-04-9
##MOLFORM=C 10 H 11 N S
##$NIST SOURCE=MSDC-IR
##STATE=gas
##XUNITS=1/CM
##YUNITS=ABSORBANCE
##XFACTOR=1.
##YFACTOR=0.001
##DELTAX=1.92898
##FIRSTX=549.8
##LASTX=4000.7
##FIRSTY=6.987
##MAXX=4000.7
##MINX=549.759
##MAXY=0.550697
##MINY=0
##NPOINTS=1790
##XYDATA=(X++(Y..Y))
549.759 6.987 6.747 7.177 7.067 6.997 7.407 8.037 8.567 8.717 8.927
569.049 9.297 9.437 9.357 9.337 8.987 8.457 7.717 7.117 6.817 6.257
588.339 5.637 5.217 4.597 3.977 3.817 3.377 2.867 2.647 2.267 1.987
607.628 1.937 1.827 1.647 1.647 1.587 1.617 1.737 1.487 1.4049 1.697
626.918 1.587 1.3958 1.4089 1.667 1.837 1.677 1.311 1.517 1.947 1.567
646.208 1.2419 1.1917 1.2303 1.3271 1.1596 1.0914 1.2045 1.2898 1.2751 1.11
665.498 1.1727 1.3546 1.4313 1.3929 1.3419 1.567 1.827 1.947 2.137 2.457
684.787 2.647 2.837 3.157 3.337 3.477 3.567 3.607 3.787 3.967 3.897
704.077 3.817 3.887 3.777 3.857 4.137 4.447 4.997 5.507 6.257 7.357
723.367 8.747 10.877 13.717 16.977 21.007 25.887 31.657 37.607 42.457 45.837
742.657 47.487 47.227 44.587 40.257 35.447 30.197 25.447 22.107 20.177 19.427
761.947 19.717 21.227 23.227 25.207 27.127 29.497 32.307 33.937 32.597 29.047
781.236 25.877 23.287 20.817 18.137 15.487 13.447 11.707 10.157 8.937 8.047
800.526 7.087 6.347 5.757 4.987 4.157 3.477 3.107 2.867 2.567 2.217
819.816 2.017 1.757 1.517 1.507 1.477 1.4206 1.354 1.1676 1.0429 1.1369
839.106 1.1448 1.2498 1.2654 1.2242 1.1792 1.0421 1.149 1.3036 1.3325 1.4446
858.395 1.647 1.757 1.827 1.927 2.077 2.317 2.627 2.827 3.297 3.997
877.685 4.767 5.667 6.647 7.727 8.757 9.597 10.147 10.427 10.677 10.937
896.975 10.947 10.637 10.447 10.397 10.457 10.777 11.407 12.467 13.737 15.407
916.265 17.397 19.947 22.987 26.227 30.107 34.457 38.567 41.947 44.767 46.557
935.555 47.007 46.157 43.817 40.477 36.337 31.637 26.977 22.777 19.107 15.947
954.844 13.317 11.217 9.627 8.357 7.437 6.867 6.197 5.437 5.007 4.897
974.134 4.617 4.217 3.867 3.507 3.547 3.577 3.347 3.117 3.167 3.317
993.424 3.177 2.957 2.977 2.917 2.747 2.867 2.857 2.617 2.517 2.537
1012.714 2.547 2.297 2.177 2.247 2.007 1.627 1.537 1.717 1.657 1.3442
1032.003 1.2034 1.697 2.087 2.157 2.207 2.327 2.747 2.967 3.177 3.517
1051.293 3.587 3.797 3.997 4.057 4.357 4.507 4.267 3.737 3.287 3.037
1070.583 2.827 2.717 2.417 2.317 2.307 1.787 1.717 1.707 1.4075 1.4004
1089.873 1.3136 1.487 1.587 1.827 2.157 1.837 1.657 2.047 2.137 1.687
1109.163 1.3329 1.3563 1.737 1.442 1.0176 0.9112 0.9035 1.1644 1.088 1.0038
1128.452 1.0333 0.775 0.6147 0.4073 0.3947 0.632 0.7054 0.7859 0.8297 0.8809
1147.742 0.9932 1.2067 1.2953 1.1123 1.0029 0.9697 1.052 1.422 1.607 1.637
1167.032 1.617 1.717 1.917 1.607 1.1961 1.0616 1.0699 1.1295 0.907 1.0404
1186.322 1.0905 0.8976 0.8539 0.9365 1.4049 1.877 1.937 1.777 2.097 2.437
1205.611 2.737 3.087 3.097 3.127 3.177 2.997 2.987 3.107 3.197 3.337
1224.901 3.357 3.417 3.357 3.397 3.827 3.997 3.877 3.727 3.657 3.537
1244.191 3.577 3.467 3.297 3.397 3.497 3.727 3.967 4.147 3.997 3.817
1263.481 3.907 3.907 3.807 3.627 3.367 3.257 3.147 2.977 3.057 3.277
1282.771 3.297 3.307 3.377 3.367 3.537 3.677 3.597 3.607 3.717 3.687
1302.060 3.647 3.627 3.667 3.717 3.707 3.767 3.887 3.967 4.077 4.237
1321.350 4.327 4.317 4.307 4.297 4.277 4.217 4.087 3.897 3.787 3.727
1340.640 3.557 3.377 3.267 3.187 3.097 2.987 2.917 2.857 2.767 2.777
1359.930 2.827 2.847 2.947 3.067 3.217 3.477 3.797 4.157 4.587 5.127
1379.219 5.697 6.167 6.427 6.447 6.357 6.197 5.977 5.647 5.217 4.797
1398.509 4.477 4.287 4.197 4.207 4.357 4.517 4.777 5.157 5.607 6.247
1417.799 7.047 7.967 9.057 10.307 11.767 13.307 14.927 16.687 18.377 19.937
1437.089 21.377 22.617 23.797 24.897 25.907 27.067 28.337 29.627 30.957 32.167
1456.378 33.177 33.977 34.457 34.507 34.147 33.427 32.347 30.917 29.197 27.367
1475.668 25.567 23.587 21.437 19.157 16.807 14.507 12.467 10.757 9.377 8.397
1494.958 7.647 6.967 6.447 6.037 5.717 5.447 5.277 5.157 5.007 4.917
1514.248 4.777 4.587 4.507 4.417 4.267 4.187 4.157 4.097 4.047 4.017
1533.538 3.977 4.037 4.187 4.307 4.417 4.597 4.857 5.007 5.097 5.177
1552.827 5.137 5.107 5.047 4.967 4.987 5.017 5.017 5.087 5.277 5.527
1572.117 5.947 6.637 7.457 8.407 9.617 10.827 12.037 13.127 13.797 14.097
1591.407 13.957 13.427 12.467 11.207 9.897 8.527 7.197 6.197 5.527 5.017
1610.697 4.687 4.417 4.277 4.177 4.037 3.987 3.927 3.977 3.917 3.787
1629.986 3.677 3.567 3.447 3.317 3.197 3.077 2.997 2.957 2.897 2.827
1649.276 2.797 2.757 2.737 2.747 2.837 2.927 2.987 2.977 2.977 3.037
1668.566 2.987 2.937 2.927 2.827 2.667 2.527 2.397 2.347 2.327 2.317
1687.856 2.297 2.297 2.387 2.447 2.357 2.367 2.377 2.427 2.537 2.487
1707.146 2.407 2.357 2.337 2.287 2.237 2.177 2.137 2.177 2.247 2.277
1726.435 2.297 2.277 2.297 2.387 2.387 2.377 2.387 2.357 2.277 2.227
1745.725 2.267 2.247 2.217 2.277 2.227 2.177 2.247 2.297 2.357 2.407
1765.015 2.447 2.607 2.807 2.957 3.207 3.477 3.687 3.947 4.087 4.147
1784.305 4.167 4.067 3.907 3.727 3.547 3.307 3.117 3.057 3.027 2.997
1803.594 2.967 3.037 3.137 3.187 3.197 3.217 3.337 3.477 3.567 3.617
1822.884 3.657 3.737 3.877 3.967 3.997 4.147 4.297 4.397 4.597 4.797
1842.174 4.987 5.237 5.557 5.847 6.047 6.197 6.247 6.217 6.157 6.067
1861.464 5.957 5.707 5.487 5.357 5.187 5.047 4.937 4.837 4.787 4.677
1880.754 4.587 4.557 4.457 4.367 4.317 4.247 4.227 4.257 4.297 4.267
1900.043 4.347 4.517 4.707 4.917 5.197 5.627 6.067 6.607 7.317 8.067
1919.333 8.787 9.317 9.597 9.717 9.667 9.437 9.167 8.877 8.587 8.427
1938.623 8.467 8.677 9.007 9.467 9.957 10.557 11.197 11.817 12.557 13.337
1957.913 14.127 14.987 15.887 16.827 17.827 18.897 20.077 21.287 22.537 23.897
1977.202 25.257 26.717 28.357 29.987 31.657 33.427 35.307 37.287 39.347 41.517
1996.492 43.807 46.277 48.897 51.687 54.717 57.927 61.377 65.147 69.217 73.687
2015.782 78.547 83.817 89.617 95.947 102.907 110.457 118.587 127.447 136.967 147.247
2035.072 158.317 170.127 182.637 196.047 210.387 225.587 241.737 258.897 276.997 296.087
2054.362 316.127 336.867 358.327 380.247 402.247 424.207 445.557 466.037 485.137 502.367
2073.651 517.627 530.367 540.397 547.447 550.697 549.787 544.807 535.717 522.527 505.427
2092.941 484.527 460.647 434.337 406.057 377.197 348.427 320.337 293.857 269.307 246.827
2112.231 226.697 209.097 194.037 181.607 171.707 163.757 157.667 153.277 150.167 148.307
2131.521 147.587 147.607 148.337 149.927 152.087 154.637 157.647 160.847 163.807 166.197
2150.810 167.687 167.707 165.817 161.817 155.677 147.447 137.427 126.157 114.367 102.637
2170.100 91.447 81.277 72.387 64.837 58.587 53.397 49.127 45.737 43.037 40.757
2189.390 38.737 36.917 35.167 33.417 31.627 29.827 27.957 25.907 23.957 22.207
2208.680 20.517 18.907 17.507 16.297 15.167 14.177 13.397 12.707 11.997 11.407
2227.970 10.837 10.227 9.657 9.137 8.547 7.997 7.547 7.147 6.717 6.277
2247.259 5.917 5.547 5.187 4.917 4.697 4.557 4.357 4.197 4.037 3.847
2266.549 3.757 3.597 3.417 3.367 3.317 3.277 3.217 3.067 2.987 2.967
2285.839 2.967 2.937 2.877 2.877 2.897 2.847 2.857 2.937 2.987 2.987
2305.129 3.037 3.067 3.097 3.187 3.307 3.397 3.367 3.357 3.467 3.557
2324.418 3.537 3.567 3.667 3.707 3.737 3.787 3.797 3.817 3.837 3.777
2343.708 3.647 3.587 3.617 3.657 3.627 3.597 3.597 3.517 3.437 3.417
2362.998 3.387 3.307 3.237 3.167 3.087 3.007 2.957 2.937 2.937 2.847
2382.288 2.727 2.707 2.697 2.667 2.687 2.697 2.727 2.827 2.917 2.997
2401.578 3.097 3.207 3.357 3.537 3.717 3.877 4.037 4.247 4.397 4.557
2420.867 4.647 4.747 4.837 4.857 4.827 4.727 4.497 4.277 4.187 4.017
2440.157 3.877 3.767 3.657 3.597 3.567 3.527 3.487 3.557 3.697 3.787
2459.447 3.877 4.027 4.187 4.287 4.397 4.497 4.627 4.657 4.587 4.607
2478.737 4.497 4.367 4.287 4.317 4.337 4.227 4.127 4.117 4.167 4.177
2498.026 4.187 4.157 4.127 4.137 4.047 4.027 4.087 4.017 3.917 3.877
2517.316 3.917 3.897 3.887 3.887 3.897 3.937 3.907 3.897 3.937 3.977
2536.606 3.977 4.057 4.097 4.067 4.097 4.127 4.237 4.357 4.327 4.287
2555.896 4.297 4.257 4.287 4.287 4.207 4.067 3.967 3.927 3.827 3.757
2575.186 3.707 3.587 3.437 3.347 3.247 3.127 3.067 2.977 2.847 2.687
2594.475 2.627 2.677 2.657 2.627 2.557 2.497 2.457 2.397 2.477 2.537
2613.765 2.507 2.467 2.487 2.497 2.557 2.637 2.647 2.727 2.797 2.857
2633.055 2.917 2.957 2.897 2.917 2.977 2.997 3.027 2.937 2.897 3.007
2652.345 2.997 2.897 3.007 3.167 3.197 3.087 3.047 3.107 3.157 3.197
2671.634 3.137 3.227 3.447 3.477 3.407 3.437 3.507 3.537 3.537 3.547
2690.924 3.457 3.327 3.307 3.337 3.277 3.097 2.967 2.857 2.727 2.697
2710.214 2.657 2.587 2.497 2.317 2.227 2.207 2.097 2.027 2.077 2.197
2729.504 2.157 2.037 2.007 2.087 2.147 2.177 2.237 2.347 2.477 2.537
2748.794 2.577 2.617 2.597 2.577 2.577 2.507 2.367 2.267 2.307 2.317
2768.083 2.277 2.327 2.457 2.387 2.317 2.407 2.407 2.407 2.507 2.627
2787.373 2.607 2.587 2.667 2.817 2.987 3.087 3.067 3.167 3.327 3.397
2806.663 3.457 3.447 3.477 3.607 3.767 3.887 4.037 4.147 4.177 4.257
2825.953 4.397 4.537 4.637 4.777 4.947 4.997 5.067 5.237 5.377 5.617
2845.242 5.897 5.987 6.047 6.407 6.727 7.067 7.467 7.867 8.507 9.377
2864.532 10.257 11.117 12.087 13.247 14.497 15.817 17.167 18.367 19.487 20.527
2883.822 21.197 21.437 21.267 20.717 20.207 19.727 19.047 18.337 17.657 17.127
2903.112 16.807 16.597 16.507 16.647 16.877 17.077 17.467 18.047 18.727 19.557
2922.401 20.527 21.747 23.277 24.987 26.807 28.657 30.427 32.177 33.877 35.317
2941.691 36.397 37.037 36.907 36.337 35.567 34.537 33.247 31.867 30.697 29.957
2960.981 29.897 30.727 32.557 35.477 39.747 44.887 49.807 53.697 55.967 56.287
2980.271 55.467 53.637 49.527 43.767 37.897 32.617 28.147 24.497 21.587 19.147
2999.561 17.307 15.947 14.847 14.197 13.797 13.607 13.557 13.497 13.797 14.077
3018.850 14.407 14.867 15.117 15.337 15.477 15.657 15.807 15.777 15.667 15.447
3038.140 15.227 15.177 15.047 15.137 15.487 15.827 16.467 17.377 18.357 19.467
3057.430 20.767 22.077 23.187 24.057 24.667 24.777 24.377 23.637 22.617 21.297
3076.720 19.847 18.297 16.777 15.307 13.727 12.237 10.617 8.957 7.637 6.517
3096.009 5.537 4.787 4.247 3.787 3.497 3.247 2.997 2.847 2.717 2.617
3115.299 2.527 2.477 2.437 2.317 2.167 2.037 2.087 2.147 2.017 1.867
3134.589 1.887 1.857 1.777 1.747 1.657 1.607 1.587 1.527 1.467 1.527
3153.879 1.697 1.757 1.727 1.737 1.747 1.657 1.617 1.627 1.527 1.617
3173.169 1.617 1.4537 1.3856 1.3383 1.2826 1.1303 0.9435 0.9182 0.8624 0.5901
3192.458 0.6009 0.7159 0.7268 0.7618 0.7056 0.6437 0.6204 0.5647 0.52294 0.5752
3211.748 0.55184 0.50387 0.348 0.291 0.371 0.3898 0.54465 0.5648 0.51746 0.52541
3231.038 0.3974 0.3878 0.4106 0.343 0.3843 0.52826 0.55489 0.48271 0.3769 0.402
3250.328 0.54616 0.53802 0.3684 0.241 0.235 0.272 0.282 0.322 0.305 0.333
3269.617 0.50312 0.48074 0.3807 0.328 0.231 0.335 0.46149 0.46724 0.4315 0.4346
3288.907 0.3824 0.183 0.251 0.34 0.4105 0.4243 0.325 0.289 0.337 0.26
3308.197 0.186 0.328 0.291 0.233 0.214 0.266 0.336 0.16 0.148 0.172
3327.487 0 0.04 0.191 0.232 0.268 0.298 0.292 0.178 0.058 0.155
3346.777 0.267 0.327 0.333 0.171 0.226 0.35 0.285 0.284 0.338 0.345
3366.066 0.29 0.193 0.255 0.45216 0.4311 0.345 0.294 0.194 0.203 0.161
3385.356 0.082 0.223 0.3571 0.333 0.263 0.242 0.258 0.3623 0.4171 0.387
3404.646 0.465164 0.4212 0.3885 0.4056 0.224 0.103 0.169 0.218 0.301 0.279
3423.936 0.253 0.265 0.265 0.298 0.31 0.245 0.153 0.063 0.175 0.342
3443.225 0.333 0.309 0.382 0.456464 0.4231 0.3743 0.34 0.204 0.19 0.279
3462.515 0.313 0.50706 0.45204 0.244 0.235 0.264 0.187 0.276 0.317 0.203
3481.805 0.215 0.3755 0.4378 0.351 0.338 0.352 0.50424 0.52375 0.3946 0.277
3501.095 0.308 0.4218 0.4467 0.4462 0.316 0.284 0.242 0.114 0.196 0.269
3520.385 0.234 0.196 0.239 0.294 0.4131 0.4373 0.311 0.295 0.4175 0.3605
3539.674 0.286 0.37 0.3797 0.321 0.203 0.3609 0.464899 0.315 0.343 0.48425
3558.964 0.49 0.5798 0.51607 0.289 0.28 0.348 0.327 0.149 0.223 0.3636
3578.254 0.322 0.4246 0.4129 0.279 0.221 0.313 0.223 0.235 0.4463 0.3804
3597.544 0.324 0.4026 0.49651 0.4132 0.336 0.345 0.261 0.228 0.3615 0.4039
3616.833 0.343 0.3656 0.256 0.295 0.4054 0.3596 0.4264 0.4065 0.4194 0.3982
3636.123 0.286 0.223 0.291 0.3705 0.326 0.235 0.201 0.231 0.276 0.356
3655.413 0.4285 0.461454 0.4297 0.3924 0.222 0.306 0.465944 0.3792 0.3978 0.4016
3674.703 0.401 0.4186 0.45456 0.48448 0.4371 0.3943 0.5614 0.54215 0.296 0.353
3693.993 0.47799 0.4214 0.336 0.3662 0.48434 0.54804 0.5578 0.3879 0.239 0.346
3713.282 0.4344 0.3921 0.3781 0.52659 0.4039 0.417 0.51199 0.3898 0.3924 0.4223
3732.572 0.55173 0.5916 0.589 0.578 0.50554 0.49425 0.52689 0.6441 0.7166 0.6373
3751.862 0.5587 0.53628 0.55639 0.572 0.48579 0.52146 0.6234 0.6486 0.6932 0.7301
3771.152 0.6278 0.5586 0.5399 0.6246 0.7686 0.7409 0.8147 0.7589 0.6221 0.7232
3790.441 0.7606 0.6314 0.48319 0.48791 0.55522 0.5941 0.49056 0.4136 0.50393 0.6355
3809.731 0.7232 0.6874 0.6633 0.7099 0.6904 0.6852 0.7183 0.6736 0.751 0.7223
3829.021 0.6569 0.7023 0.7169 0.7292 0.6446 0.54046 0.5604 0.5823 0.48735 0.5638
3848.311 0.7545 0.7727 0.6563 0.54643 0.54546 0.5386 0.51895 0.6919 0.8518 0.8092
3867.601 0.5602 0.4289 0.6329 0.7139 0.6176 0.55213 0.51946 0.5991 0.6024 0.5854
3886.890 0.6324 0.6293 0.7171 0.7817 0.8546 0.9718 0.9704 0.9146 0.98 0.9224
3906.180 0.7525 0.6955 0.8165 0.8259 0.7944 0.9019 0.8516 0.8206 0.8459 0.9731
3925.470 0.9593 0.9696 0.867 0.7805 0.9396 0.9441 1.0034 1.0724 1.1266 1.1233
3944.760 1.1273 1.1934 1.2838 1.1812 1.1377 1.1597 1.1314 1.1812 1.243 1.2954
3964.049 1.2574 1.3244 1.3735 1.3121 1.2786 1.2914 1.1557 1.1812 1.2587 1.1543
3983.339 1.1941 1.163 1.1692 1.0578 0.9743 1.2028 1.3852 1.1931 1.1722 1.3784
##END=
