##TITLE=2-Ethyl-6-(1-methylpropyl)phenyl isothiocyanate
##JCAMP-DX=4.24
##DATA TYPE=INFRARED SPECTRUM
##ORIGIN=EPA-IR VAPOR PHASE LIBRARY
##OWNER=SRD/NIST
Collection (C) 2018 copyright by the U.S. Secretary of Commerce
on behalf of the United States of America. All rights reserved.
##CAS REGISTRY NO=66609-02-7
##MOLFORM=C 13 H 17 N S
##$NIST SOURCE=MSDC-IR
##STATE=gas
##XUNITS=1/CM
##YUNITS=ABSORBANCE
##XFACTOR=1.
##YFACTOR=0.001
##DELTAX=1.92898
##FIRSTX=549.8
##LASTX=4000.7
##FIRSTY=7.525
##MAXX=4000.7
##MINX=549.759
##MAXY=0.556585
##MINY=0
##NPOINTS=1790
##XYDATA=(X++(Y..Y))
549.759 7.525 7.685 8.285 8.095 8.175 8.705 8.915 9.005 9.165 9.065
569.049 8.555 8.555 8.465 8.115 7.775 7.355 6.915 6.545 6.245 5.865
588.339 5.575 5.465 5.695 5.445 4.815 4.705 4.705 4.435 4.385 4.545
607.628 4.415 4.325 4.205 4.045 3.985 3.895 3.635 3.605 3.765 3.775
626.918 3.665 3.555 3.525 3.455 3.555 3.775 3.675 3.525 3.645 3.945
646.208 4.145 4.305 4.565 4.885 4.835 4.475 4.245 3.835 3.305 2.775
665.498 2.545 2.505 2.285 2.025 1.955 1.825 1.595 1.755 1.925 1.905
684.787 1.915 1.895 2.035 2.275 2.365 2.635 2.845 3.075 3.485 3.915
704.077 4.495 5.065 5.575 5.985 6.615 7.435 8.385 9.665 11.495 13.815
723.367 16.735 19.975 23.075 26.515 30.115 33.885 38.205 42.455 46.065 49.505
742.657 53.135 54.345 49.555 41.525 34.675 28.455 22.585 18.155 14.805 12.445
761.947 11.255 10.535 10.215 10.545 11.105 12.035 13.225 14.595 16.335 17.655
781.236 18.735 20.045 21.055 21.345 21.445 21.345 20.905 20.455 19.715 18.495
800.526 17.225 15.775 13.845 12.265 10.895 9.545 8.295 7.245 6.865 6.305
819.816 5.745 5.365 4.985 4.785 4.415 3.935 3.655 3.495 2.945 2.605
839.106 2.605 2.545 2.485 2.145 1.985 2.035 1.985 2.115 1.975 1.735
858.395 1.805 1.965 2.255 2.575 2.735 3.095 3.475 3.825 4.515 5.335
877.685 6.055 6.795 7.745 8.605 9.315 10.045 10.505 10.565 10.585 10.425
896.975 9.935 9.605 9.505 9.575 9.545 9.795 10.255 10.755 11.525 12.615
916.265 14.065 15.925 18.275 21.085 24.645 28.745 33.185 38.065 42.805 46.515
935.555 48.955 49.945 48.885 45.945 41.705 36.535 31.285 26.305 22.005 18.745
954.844 16.295 14.465 12.965 11.845 11.125 10.405 9.295 8.405 7.895 7.365
974.134 6.895 6.435 6.045 5.745 5.435 5.185 4.995 4.915 4.765 4.415
993.424 4.375 4.575 4.545 4.605 4.655 4.835 5.285 5.685 5.965 6.025
1012.714 6.085 5.785 5.375 5.085 4.225 3.835 3.655 2.905 2.175 2.155
1032.003 2.375 1.985 1.965 2.365 2.615 2.745 2.705 2.885 3.525 3.915
1051.293 4.315 5.065 5.805 6.405 6.955 7.515 7.485 6.955 6.695 6.325
1070.583 5.635 5.135 4.235 3.705 3.875 3.525 3.185 3.205 2.785 2.215
1089.873 2.385 2.665 2.875 3.205 3.255 2.885 2.425 2.675 3.185 3.085
1109.163 2.845 2.695 2.605 2.345 1.915 1.855 1.965 1.825 1.635 1.375
1128.452 0.957 0.9416 0.9167 1.0299 1.425 1.265 1.245 1.215 1.335 1.525
1147.742 1.365 1.295 1.127 1.1048 1.0482 1.195 1.315 1.305 1.545 1.775
1167.032 1.835 1.915 2.095 2.085 1.875 1.665 1.355 1.585 1.865 1.775
1186.322 1.605 1.155 1.225 1.645 2.035 2.295 2.305 2.025 2.125 2.325
1205.611 2.195 2.295 2.665 2.625 2.635 2.725 2.595 2.675 2.765 2.795
1224.901 2.805 2.795 2.725 3.155 3.255 3.215 3.525 3.635 3.805 4.405
1244.191 5.075 5.535 6.045 6.345 6.955 7.875 8.405 8.695 8.615 8.205
1263.481 7.895 7.675 7.335 6.975 6.545 6.305 6.435 6.665 6.645 6.855
1282.771 7.095 7.045 7.105 6.965 6.675 6.575 6.555 6.505 6.375 6.095
1302.060 5.945 5.945 6.005 6.085 6.265 6.485 6.755 7.145 7.565 7.965
1321.350 8.155 8.215 8.235 8.215 8.145 7.945 7.735 7.685 7.765 7.945
1340.640 8.235 8.595 9.105 9.685 10.275 10.715 10.865 10.765 10.445 9.985
1359.930 9.375 8.645 8.145 7.965 8.065 8.645 9.685 11.055 12.715 14.665
1379.219 16.635 17.575 17.505 17.055 15.855 13.975 12.005 10.195 8.605 7.345
1398.509 6.595 6.165 5.905 5.865 5.885 5.955 6.185 6.515 6.935 7.385
1417.799 7.895 8.715 9.735 10.955 12.565 14.655 17.255 20.405 24.175 28.355
1437.089 32.575 36.285 39.145 40.835 41.305 40.785 39.565 38.065 36.705 35.865
1456.378 35.525 35.405 35.495 35.575 35.465 35.085 34.175 32.555 30.315 27.555
1475.668 24.335 20.895 17.615 14.575 12.015 10.135 8.715 7.675 7.015 6.495
1494.958 5.965 5.465 5.105 4.825 4.495 4.245 4.075 3.885 3.725 3.575
1514.248 3.475 3.385 3.345 3.385 3.375 3.385 3.465 3.505 3.595 3.665
1533.538 3.615 3.615 3.675 3.685 3.675 3.735 3.805 3.895 4.045 4.155
1552.827 4.195 4.265 4.295 4.335 4.495 4.695 4.945 5.275 5.735 6.205
1572.117 6.815 7.625 8.445 9.365 10.345 11.095 11.565 11.735 11.475 10.965
1591.407 10.175 9.235 8.195 7.195 6.305 5.575 5.125 4.825 4.525 4.355
1610.697 4.295 4.215 4.145 4.055 3.995 3.755 3.545 3.575 3.505 3.415
1629.986 3.345 3.335 3.315 3.325 3.385 3.345 3.365 3.305 3.155 3.015
1649.276 2.905 2.665 2.525 2.575 2.495 2.365 2.335 2.405 2.445 2.445
1668.566 2.435 2.455 2.515 2.605 2.665 2.725 2.835 2.965 3.055 3.155
1687.856 3.255 3.335 3.365 3.315 3.365 3.475 3.605 3.665 3.715 3.705
1707.146 3.675 3.675 3.485 3.255 3.085 2.835 2.705 2.675 2.545 2.515
1726.435 2.455 2.395 2.455 2.455 2.395 2.385 2.355 2.325 2.405 2.495
1745.725 2.505 2.455 2.395 2.475 2.465 2.415 2.425 2.435 2.465 2.415
1765.015 2.375 2.365 2.405 2.445 2.435 2.405 2.465 2.545 2.635 2.825
1784.305 2.955 3.075 3.285 3.505 3.685 3.835 3.875 3.785 3.665 3.545
1803.594 3.385 3.185 3.035 2.915 2.785 2.765 2.815 2.815 2.845 2.905
1822.884 3.025 3.115 3.115 3.155 3.205 3.315 3.395 3.475 3.625 3.795
1842.174 3.955 4.185 4.485 4.735 5.045 5.485 5.945 6.315 6.645 6.925
1861.464 6.995 6.885 6.725 6.425 6.105 5.815 5.525 5.275 5.065 4.935
1880.754 4.885 4.755 4.605 4.565 4.505 4.455 4.455 4.415 4.375 4.425
1900.043 4.445 4.485 4.605 4.735 4.925 5.155 5.535 6.035 6.575 7.305
1919.333 8.095 8.825 9.565 9.985 10.045 9.825 9.455 9.045 8.455 7.915
1938.623 7.685 7.675 7.775 8.005 8.325 8.685 9.135 9.575 10.085 10.705
1957.913 11.345 12.005 12.735 13.595 14.505 15.395 16.295 17.315 18.425 19.595
1977.202 20.895 22.225 23.685 25.225 26.795 28.435 30.185 32.025 33.975 36.085
1996.492 38.295 40.585 43.025 45.685 48.505 51.445 54.635 57.965 61.485 65.285
2015.782 69.295 73.645 78.375 83.415 88.855 94.745 101.105 108.015 115.545 123.725
2035.072 132.595 142.185 152.605 163.775 175.825 188.875 202.715 217.595 233.555 250.495
2054.362 268.695 288.035 308.385 329.855 352.255 375.175 398.435 421.755 444.455 466.135
2073.651 486.395 504.575 520.435 533.475 543.745 551.215 555.455 556.585 554.665 549.295
2092.941 540.465 528.125 511.925 492.185 469.235 443.605 416.215 388.175 360.305 333.785
2112.231 309.365 287.325 268.235 252.155 238.815 228.165 219.865 213.645 209.275 206.555
2131.521 205.255 204.915 205.535 206.895 208.505 210.055 211.235 211.395 209.895 206.395
2150.810 200.665 192.495 182.205 170.295 157.485 144.495 131.775 119.805 108.845 99.015
2170.100 90.315 82.695 76.095 70.205 65.075 60.775 57.065 53.745 50.755 48.105
2189.390 45.615 43.215 40.995 38.855 36.745 34.635 32.545 30.395 28.315 26.335
2208.680 24.465 22.805 21.325 19.945 18.675 17.485 16.325 15.265 14.355 13.505
2227.970 12.635 11.845 11.165 10.435 9.825 9.355 8.855 8.325 7.975 7.685
2247.259 7.315 7.015 6.775 6.495 6.125 5.905 5.785 5.605 5.355 5.165
2266.549 5.055 4.915 4.765 4.675 4.565 4.425 4.325 4.255 4.155 4.045
2285.839 3.975 3.935 3.875 3.795 3.745 3.695 3.715 3.745 3.815 3.845
2305.129 3.815 3.865 3.905 3.895 3.855 3.875 3.815 3.775 3.725 3.615
2324.418 3.535 3.425 3.325 3.235 3.205 3.185 3.235 3.295 3.325 3.385
2343.708 3.425 3.385 3.315 3.355 3.355 3.245 3.145 3.165 3.235 3.235
2362.998 3.255 3.265 3.265 3.245 3.255 3.335 3.345 3.275 3.355 3.465
2382.288 3.485 3.595 3.685 3.735 3.845 4.065 4.215 4.305 4.425 4.545
2401.578 4.625 4.635 4.675 4.695 4.725 4.625 4.495 4.405 4.345 4.315
2420.867 4.165 4.135 4.105 4.095 4.175 4.285 4.395 4.335 4.425 4.575
2440.157 4.565 4.645 4.725 4.745 4.775 4.805 4.825 4.805 4.805 4.765
2459.447 4.695 4.665 4.555 4.515 4.485 4.465 4.525 4.375 4.265 4.245
2478.737 4.185 4.205 4.295 4.325 4.295 4.355 4.355 4.345 4.365 4.305
2498.026 4.275 4.345 4.425 4.455 4.525 4.485 4.405 4.385 4.385 4.385
2517.316 4.315 4.285 4.335 4.385 4.325 4.285 4.385 4.485 4.475 4.435
2536.606 4.515 4.525 4.505 4.605 4.605 4.525 4.595 4.735 4.675 4.675
2555.896 4.735 4.765 4.785 4.665 4.595 4.625 4.655 4.605 4.575 4.485
2575.186 4.345 4.275 4.235 4.265 4.175 4.075 4.155 4.125 4.005 3.865
2594.475 3.695 3.655 3.645 3.625 3.655 3.615 3.525 3.485 3.525 3.535
2613.765 3.525 3.595 3.535 3.455 3.465 3.385 3.355 3.355 3.315 3.305
2633.055 3.275 3.195 3.175 3.075 3.025 3.025 2.985 2.905 2.875 2.895
2652.345 2.835 2.825 2.765 2.665 2.625 2.665 2.705 2.685 2.725 2.655
2671.634 2.675 2.795 2.685 2.545 2.515 2.555 2.715 2.805 2.755 2.775
2690.924 2.765 2.725 2.815 2.955 3.005 2.955 2.925 2.965 2.975 3.035
2710.214 3.025 3.085 3.175 3.265 3.345 3.335 3.525 3.565 3.465 3.505
2729.504 3.645 3.825 3.955 4.155 4.225 4.325 4.545 4.595 4.525 4.495
2748.794 4.355 4.145 3.975 3.875 3.805 3.715 3.725 3.695 3.645 3.715
2768.083 3.715 3.685 3.765 3.935 4.065 4.125 4.255 4.405 4.545 4.615
2787.373 4.695 4.785 4.935 5.075 5.205 5.315 5.375 5.495 5.615 5.795
2806.663 5.915 6.065 6.185 6.145 6.185 6.345 6.515 6.675 6.845 7.045
2825.953 7.235 7.365 7.655 7.925 8.175 8.375 8.425 8.655 8.925 9.245
2845.242 9.525 9.925 10.425 10.805 11.485 12.455 13.545 15.005 17.085 19.555
2864.532 22.345 25.465 28.835 32.355 36.105 40.055 44.115 48.125 51.695 54.535
2883.822 56.375 56.965 56.005 53.785 50.615 47.285 44.115 41.425 39.375 37.845
2903.112 37.075 37.085 37.495 38.085 39.125 40.465 41.935 43.715 45.865 48.275
2922.401 51.025 54.335 58.245 62.645 67.365 72.245 77.015 81.335 84.915 87.305
2941.691 87.995 86.815 83.915 79.605 74.705 70.135 66.635 65.005 66.145 70.975
2960.981 79.905 92.975 109.395 127.195 144.325 158.605 167.505 168.785 161.625 147.835
2980.271 130.225 110.695 91.175 73.405 58.735 47.495 39.195 33.125 28.715 25.575
2999.561 23.345 21.775 20.485 19.395 18.765 18.485 18.145 17.845 17.615 17.445
3018.850 17.365 17.395 17.375 17.145 17.005 16.955 16.665 16.235 15.735 15.245
3038.140 14.935 14.585 14.145 13.835 13.995 14.465 15.025 16.065 17.385 19.075
3057.430 20.895 22.685 24.595 26.335 27.715 28.755 29.565 29.615 29.055 28.045
3076.720 26.675 24.615 22.055 19.455 16.725 14.005 11.465 9.475 8.085 7.155
3096.009 6.595 6.115 5.615 5.225 5.045 4.895 4.695 4.415 4.305 4.335
3115.299 4.145 4.025 3.905 3.675 3.515 3.425 3.445 3.405 3.335 3.265
3134.589 3.195 3.125 3.115 3.105 2.935 2.895 2.925 2.865 2.945 2.995
3153.879 2.915 3.005 3.065 2.945 2.835 2.745 2.785 2.705 2.625 2.565
3173.169 2.485 2.395 2.275 2.235 2.105 2.115 2.095 1.855 1.675 1.635
3192.458 1.525 1.465 1.415 1.355 1.455 1.425 1.315 1.215 1.195 1.255
3211.748 1.195 1.0706 1.0143 0.9579 0.6692 0.5986 0.7194 0.7495 0.6194 0.5667
3231.038 0.762 0.8347 0.776 0.5957 0.4655 0.4434 0.5252 0.6068 0.4598 0.4706
3250.328 0.6576 0.5385 0.5231 0.5678 0.3809 0.2928 0.4131 0.5 0.4067 0.3449
3269.617 0.5235 0.5346 0.5093 0.4971 0.346 0.4854 0.6023 0.4471 0.3592 0.4788
3288.907 0.5289 0.4811 0.3963 0.3523 0.3962 0.3978 0.256 0.15738 0.17555 0.19796
3308.197 0.21328 0.3445 0.543 0.4195 0.3743 0.3991 0.3389 0.3955 0.3764 0.4295
3327.487 0.23434 0.1329 0.20086 0.16791 0.22801 0.2503 0.2917 0.2464 0.3013 0.4957
3346.777 0.5103 0.5075 0.4344 0.22601 0.2259 0.3099 0.2165 0.259 0.3676 0.3125
3366.066 0.3064 0.3395 0.2984 0.269 0.2799 0.2683 0.4526 0.59 0.4452 0.349
3385.356 0.3403 0.264 0.2719 0.298 0.22876 0.3032 0.3113 0.2827 0.3311 0.4282
3404.646 0.521 0.5033 0.5101 0.5651 0.4739 0.3166 0.2767 0.3999 0.5465 0.4013
3423.936 0.4767 0.3636 0.16611 0.3437 0.3387 0.3949 0.3829 0.1836 0.19188 0.22497
3443.225 0.3145 0.2822 0.2549 0.4384 0.3676 0.15585 0 0.0472 0.20353 0.18841
3462.515 0.23236 0.35 0.4362 0.4049 0.2523 0.3022 0.3424 0.23843 0.23132 0.2481
3481.805 0.22913 0.2835 0.3858 0.4885 0.5942 0.6357 0.3466 0.19694 0.3253 0.3438
3501.095 0.389 0.305 0.23234 0.2829 0.326 0.3718 0.4236 0.4689 0.3311 0.16551
3520.385 0.19739 0.3367 0.3832 0.2834 0.3367 0.3587 0.2843 0.3156 0.22021 0.13552
3539.674 0.22977 0.23316 0.3252 0.435 0.4208 0.4286 0.4036 0.3274 0.20541 0.0896
3558.964 0.17516 0.23384 0.21898 0.1738 0.18624 0.2891 0.3917 0.5579 0.5568 0.317
3578.254 0.0832 0.1156 0.134 0.14343 0.16607 0.19336 0.3392 0.3579 0.3168 0.21711
3597.544 0.20966 0.22439 0.3576 0.4506 0.154172 0.15653 0.3081 0.23263 0.20953 0.443
3616.833 0.6284 0.4406 0.3365 0.3598 0.21047 0.23428 0.3366 0.285 0.2819 0.17574
3636.123 0.20019 0.3222 0.3523 0.3395 0.2383 0.23377 0.3481 0.3707 0.2653 0.3018
3655.413 0.3767 0.4001 0.3917 0.2809 0.18432 0.2527 0.3928 0.3103 0.2598 0.3358
3674.703 0.2461 0.17666 0.3096 0.3514 0.24034 0.293 0.3352 0.2885 0.268 0.22205
3693.993 0.1246 0.19249 0.3294 0.3446 0.2723 0.154005 0.22667 0.4164 0.3687 0.2705
3713.282 0.3803 0.5128 0.6276 0.4447 0.2966 0.3053 0.3513 0.5323 0.5971 0.517
3732.572 0.3963 0.5022 0.6256 0.5681 0.5781 0.5984 0.6153 0.6195 0.5674 0.5719
3751.862 0.5586 0.5898 0.5078 0.3389 0.4789 0.6225 0.646 0.6636 0.4888 0.4344
3771.152 0.4163 0.5366 0.6375 0.6223 0.652 0.6405 0.7127 0.6668 0.7206 0.6531
3790.441 0.4117 0.5406 0.7465 0.4886 0.2607 0.5195 0.6559 0.6229 0.555 0.6642
3809.731 0.8404 0.6132 0.4856 0.4779 0.4973 0.6739 0.7811 0.7368 0.5326 0.6596
3829.021 0.6374 0.4305 0.5795 0.57 0.5214 0.4448 0.4725 0.499 0.4337 0.5695
3848.311 0.5782 0.464 0.5482 0.6388 0.532 0.5489 0.6732 0.6477 0.6101 0.6848
3867.601 0.6886 0.6221 0.5911 0.6351 0.6289 0.6891 0.5673 0.3788 0.5838 0.5731
3886.890 0.5548 0.6271 0.6678 0.8755 0.9217 0.8436 0.7987 0.8703 0.8277 0.5674
3906.180 0.466 0.557 0.5946 0.6776 0.7789 0.8184 0.6752 0.6117 0.8275 0.7873
3925.470 0.6943 0.7823 0.8958 1.0812 1.215 1.119 1.1175 1.1352 0.9717 1.0434
3944.760 1.205 1.185 1.195 1.175 1.0348 1.0733 1.0648 1.0218 0.9817 0.9519
3964.049 0.9297 1.0379 1.205 1.0527 1.0223 1.0015 1.245 1.315 1.1222 1.195
3983.339 1.275 1.415 1.535 1.465 1.128 1.225 1.405 1.315 1.425 1.565
##END=
