##TITLE=5-Methoxy-3-nitrosalicylaldehyde
##JCAMP-DX=4.24
##DATA TYPE=INFRARED SPECTRUM
##ORIGIN=EPA-IR VAPOR PHASE LIBRARY
##OWNER=SRD/NIST
Collection (C) 2018 copyright by the U.S. Secretary of Commerce
on behalf of the United States of America. All rights reserved.
##CAS REGISTRY NO=66620-31-3
##MOLFORM=C8 H7 N O5
##$NIST SOURCE=MSDC-IR
##STATE=gas
##XUNITS=1/CM
##YUNITS=ABSORBANCE
##XFACTOR=1.
##YFACTOR=0.001
##DELTAX=1.92898
##FIRSTX=549.8
##LASTX=4000.7
##FIRSTY=1.623
##MAXX=4000.7
##MINX=549.759
##MAXY=0.038053
##MINY=0
##NPOINTS=1790
##XYDATA=(X++(Y..Y))
549.759 1.623 1.743 1.683 1.633 1.753 1.503 1.763 1.963 2.163 2.363
569.049 2.443 2.413 2.463 2.923 3.023 2.853 2.983 3.383 3.593 3.623
588.339 3.683 3.773 3.993 4.163 4.613 5.053 5.303 5.493 5.603 5.803
607.628 5.873 5.893 6.003 5.953 5.853 5.753 5.553 5.523 5.583 5.363
626.918 5.013 4.773 4.603 4.543 4.173 4.043 4.393 4.283 4.183 4.053
646.208 3.993 4.173 4.243 4.163 3.993 4.043 4.053 4.213 4.503 4.503
665.498 4.443 4.353 4.393 4.593 4.503 4.373 4.533 4.633 4.533 4.513
684.787 4.523 4.553 4.433 4.293 4.243 4.163 4.113 3.923 3.693 3.583
704.077 3.423 3.273 3.083 2.953 2.773 2.523 2.463 2.453 2.473 2.413
723.367 2.253 2.183 2.283 2.233 2.223 2.413 2.553 2.633 2.653 2.693
742.657 2.903 3.203 3.453 3.833 4.473 5.253 5.953 6.473 7.023 7.833
761.947 8.433 8.623 9.013 9.163 8.653 8.203 7.783 7.133 6.493 6.033
781.236 5.573 5.113 4.433 4.093 3.893 3.593 3.383 2.973 2.713 2.373
800.526 2.173 2.153 2.033 1.863 1.853 1.673 1.563 1.543 1.2814 1.2643
819.816 1.3264 1.493 1.493 1.2767 1.2349 1.0871 0.9891 1.1179 1.1097 1.0884
839.106 1.1753 1.1397 1.1417 1.1801 1.2005 1.1539 1.0907 1.1824 1.4409 1.563
858.395 1.683 1.903 2.133 2.163 2.123 2.173 2.303 2.403 2.333 2.623
877.685 2.953 3.173 3.213 3.363 3.603 3.443 3.303 3.353 3.283 3.263
896.975 3.273 3.123 3.093 3.373 3.983 4.353 4.923 5.893 6.703 7.603
916.265 8.433 9.213 9.883 10.123 9.973 9.583 9.043 8.343 7.463 6.533
935.555 5.673 5.063 4.793 4.623 4.723 4.973 4.963 5.053 5.253 5.373
954.844 5.383 5.293 5.153 5.023 4.743 4.083 3.533 3.093 2.763 2.643
974.134 2.393 2.003 1.763 1.763 1.683 1.4148 1.1757 1.254 1.623 1.563
993.424 1.3903 1.563 1.673 1.633 1.613 1.603 1.553 1.4451 1.3344 1.3796
1012.714 1.543 1.723 1.753 1.793 1.823 2.003 2.533 2.883 3.223 3.743
1032.003 4.693 5.833 6.793 7.663 8.673 10.033 11.353 11.973 11.893 11.993
1051.293 12.123 11.503 10.483 9.113 7.723 6.433 5.153 4.093 3.523 3.233
1070.583 2.843 2.693 2.483 2.503 2.663 2.473 2.273 2.423 2.303 1.843
1089.873 1.903 1.843 1.783 1.963 1.973 2.173 2.073 2.503 3.043 3.003
1109.163 3.163 3.753 4.323 4.053 4.073 4.553 4.593 4.483 4.463 4.343
1128.452 4.203 4.343 4.353 4.433 4.643 4.683 4.533 4.313 4.193 4.113
1147.742 4.013 3.993 4.163 4.093 4.203 4.263 4.323 4.743 5.123 5.433
1167.032 6.043 6.693 7.333 8.003 8.473 8.883 9.183 9.363 9.483 9.613
1186.322 9.733 9.523 9.363 9.173 8.523 8.153 7.723 7.073 6.783 6.483
1205.611 5.773 5.203 5.253 5.493 5.803 5.793 5.843 6.263 7.033 7.903
1224.901 8.663 9.963 11.713 13.763 15.523 17.513 19.743 22.053 23.863 24.783
1244.191 25.633 26.403 26.733 26.503 25.883 25.233 24.713 24.293 23.793 23.143
1263.481 22.653 22.103 21.513 20.903 20.193 19.503 18.753 18.233 17.723 17.053
1282.771 16.803 16.643 16.393 16.253 16.073 15.893 15.833 15.733 15.613 15.643
1302.060 15.653 15.773 16.083 16.443 17.093 17.943 18.803 19.763 20.703 21.453
1321.350 22.013 22.413 22.493 22.203 21.493 20.483 19.303 17.963 16.603 15.253
1340.640 13.933 12.763 11.933 11.363 10.883 10.583 10.483 10.373 10.223 10.043
1359.930 9.823 9.593 9.413 9.163 8.873 8.643 8.433 8.283 8.243 8.243
1379.219 8.173 8.333 8.813 9.443 10.293 11.253 11.973 12.343 12.503 12.513
1398.509 12.273 11.693 10.983 10.363 10.003 10.123 10.603 11.353 12.463 13.983
1417.799 15.943 18.353 21.223 24.463 27.853 31.133 34.023 36.273 37.673 38.053
1437.089 37.353 35.563 32.793 29.383 25.993 22.953 20.333 18.393 17.073 16.503
1456.378 16.693 17.463 18.853 20.703 22.683 24.533 26.093 27.193 27.703 27.343
1475.668 26.083 24.163 21.883 19.383 16.823 14.353 12.073 10.163 8.743 7.743
1494.958 6.883 6.273 5.893 5.573 5.463 5.413 5.313 5.403 5.503 5.563
1514.248 5.823 6.263 6.743 7.193 7.833 8.603 9.553 10.803 12.243 13.933
1533.538 15.973 18.393 21.183 24.413 27.813 31.163 34.233 36.523 37.743 37.903
1552.827 36.863 34.663 31.653 27.873 23.653 19.753 16.323 13.493 11.403 9.943
1572.117 8.873 8.223 7.973 7.953 8.003 8.163 8.423 8.803 9.143 9.313
1591.407 9.313 9.113 8.873 8.533 8.073 7.613 7.103 6.543 6.123 5.773
1610.697 5.413 5.203 5.073 4.953 4.843 4.763 4.773 4.833 4.803 4.763
1629.986 4.773 4.823 4.743 4.563 4.373 4.073 3.813 3.663 3.503 3.293
1649.276 3.093 3.033 2.923 2.763 2.713 2.743 2.823 2.893 3.083 3.253
1668.566 3.413 3.823 4.393 5.013 5.833 6.833 7.803 8.573 9.163 9.623
1687.856 9.823 9.943 10.003 10.083 10.583 11.833 14.143 17.533 21.333 24.933
1707.146 27.463 28.903 29.283 28.353 25.863 21.903 17.353 13.253 9.973 7.713
1726.435 6.203 5.243 4.603 4.173 3.873 3.553 3.353 3.123 2.813 2.643
1745.725 2.453 2.213 2.023 1.853 1.723 1.663 1.653 1.553 1.513 1.513
1765.015 1.523 1.563 1.563 1.523 1.473 1.4171 1.3971 1.4517 1.493 1.543
1784.305 1.573 1.503 1.4098 1.3578 1.3132 1.242 1.1964 1.1544 1.0515 1.0415
1803.594 1.0598 1.0157 0.9757 0.9956 1.0557 1.0163 0.9748 0.9512 0.8905 0.9501
1822.884 0.995 0.9012 0.8469 0.8555 0.8463 0.8519 0.8743 0.8178 0.8276 0.846
1842.174 0.8066 0.7884 0.7994 0.8042 0.7875 0.8283 0.8352 0.8308 0.8244 0.8383
1861.464 0.897 0.8914 0.8654 0.8517 0.8277 0.8249 0.8225 0.8255 0.7664 0.7474
1880.754 0.8493 0.8334 0.7885 0.8374 0.8394 0.7612 0.7118 0.7217 0.743 0.7622
1900.043 0.8098 0.7882 0.756 0.7759 0.7637 0.7162 0.7125 0.7549 0.7608 0.7669
1919.333 0.7551 0.7695 0.6999 0.6421 0.6693 0.6607 0.6641 0.6898 0.727 0.7028
1938.623 0.6054 0.5794 0.6192 0.6111 0.54685 0.51906 0.52499 0.53323 0.5679 0.6053
1957.913 0.6331 0.5811 0.56439 0.6113 0.6439 0.6412 0.6218 0.601 0.56131 0.52987
1977.202 0.5995 0.6516 0.586 0.5874 0.6335 0.6921 0.7021 0.6389 0.678 0.7224
1996.492 0.6839 0.6713 0.6925 0.6822 0.6808 0.7049 0.6932 0.7026 0.6908 0.6675
2015.782 0.6976 0.7015 0.6818 0.6666 0.6365 0.6216 0.6843 0.6879 0.6521 0.6822
2035.072 0.6707 0.7275 0.8273 0.8382 0.7931 0.8175 0.8217 0.7439 0.73 0.7555
2054.362 0.8219 0.8521 0.829 0.8336 0.8337 0.8528 0.9385 0.9639 0.9395 0.9279
2073.651 0.8888 0.8508 0.9016 0.9213 0.9226 0.9028 0.839 0.824 0.7872 0.7388
2092.941 0.7339 0.7514 0.7409 0.7156 0.6972 0.7142 0.6889 0.6095 0.6045 0.6509
2112.231 0.6252 0.56312 0.5696 0.5708 0.51678 0.477856 0.5075 0.55871 0.56337 0.50762
2131.521 0.49718 0.51018 0.51341 0.6039 0.6104 0.5773 0.56908 0.52346 0.54985 0.5984
2150.810 0.5739 0.56138 0.53661 0.52447 0.56795 0.6431 0.614 0.55861 0.54847 0.5036
2170.100 0.52039 0.56068 0.6064 0.5805 0.55441 0.596 0.5791 0.5928 0.6272 0.621
2189.390 0.6464 0.6478 0.6307 0.6008 0.5841 0.6204 0.6407 0.5872 0.50251 0.52075
2208.680 0.55972 0.53527 0.50398 0.603 0.605 0.51032 0.6198 0.6728 0.6704 0.6552
2227.970 0.5845 0.5885 0.5798 0.54943 0.55994 0.599 0.6306 0.6297 0.5987 0.647
2247.259 0.623 0.5979 0.6171 0.6377 0.6428 0.5879 0.6105 0.6105 0.5734 0.55135
2266.549 0.55396 0.54933 0.6217 0.6257 0.56251 0.53416 0.52202 0.56619 0.55388 0.56646
2285.839 0.5939 0.55645 0.54133 0.6311 0.638 0.56064 0.6135 0.6632 0.6627 0.6491
2305.129 0.6138 0.5854 0.5667 0.55445 0.51603 0.50102 0.55563 0.5873 0.53716 0.476709
2324.418 0.51591 0.51268 0.46386 0.50807 0.53869 0.51837 0.49081 0.49106 0.3916 0.349
2343.708 0.4285 0.49887 0.6093 0.5897 0.53093 0.53513 0.51213 0.49785 0.49965 0.52727
2362.998 0.54672 0.6151 0.5787 0.51195 0.5892 0.586 0.49507 0.5284 0.55614 0.50939
2382.288 0.5556 0.5983 0.55402 0.54357 0.54448 0.52529 0.55489 0.5743 0.56352 0.5896
2401.578 0.6107 0.5803 0.57129 0.5743 0.6625 0.7173 0.6641 0.6415 0.6227 0.5668
2420.867 0.56586 0.6309 0.633 0.6236 0.6532 0.679 0.6928 0.6537 0.6504 0.6812
2440.157 0.6692 0.6515 0.7117 0.7802 0.7401 0.6324 0.6535 0.6666 0.6354 0.7121
2459.447 0.65 0.598 0.6356 0.5768 0.5914 0.6289 0.5912 0.7074 0.7839 0.6943
2478.737 0.6703 0.6867 0.6602 0.6503 0.7065 0.7097 0.594 0.55122 0.6329 0.6832
2498.026 0.664 0.6726 0.6972 0.6529 0.6019 0.6907 0.7698 0.78 0.8032 0.732
2517.316 0.6391 0.6389 0.6674 0.6461 0.6994 0.6756 0.6979 0.8204 0.7736 0.7848
2536.606 0.8151 0.7725 0.6775 0.6715 0.7106 0.6822 0.6908 0.7708 0.8075 0.7368
2555.896 0.7267 0.6843 0.6944 0.7766 0.8138 0.721 0.6275 0.655 0.7517 0.7582
2575.186 0.69 0.6408 0.6378 0.6799 0.6853 0.7181 0.759 0.8577 0.8665 0.8207
2594.475 0.7906 0.7784 0.7618 0.6742 0.7242 0.7817 0.7812 0.7767 0.7399 0.7192
2613.765 0.7057 0.71 0.7788 0.8769 0.7967 0.6784 0.735 0.8144 0.7609 0.7339
2633.055 0.8332 0.8592 0.8013 0.7799 0.7831 0.8667 0.8776 0.7812 0.7819 0.8547
2652.345 0.8038 0.76 0.7195 0.7023 0.7187 0.7454 0.7765 0.7144 0.6984 0.6556
2671.634 0.7111 0.7218 0.7842 0.8483 0.7482 0.7753 0.9165 0.9849 0.9601 0.9019
2690.924 0.9213 0.9606 0.9585 0.9677 1.0093 1.0886 1.0788 1.0912 1.1565 1.1318
2710.214 1.1082 1.0896 1.0689 1.1138 1.195 1.1642 1.1661 1.2393 1.2309 1.1322
2729.504 1.1013 1.2437 1.3017 1.3073 1.3167 1.419 1.4408 1.3944 1.473 1.45
2748.794 1.3991 1.4202 1.483 1.573 1.683 1.753 1.703 1.723 1.833 1.833
2768.083 1.753 1.613 1.4384 1.4409 1.4329 1.2729 1.239 1.1817 1.151 1.2557
2787.373 1.2209 1.1723 1.2748 1.3235 1.3289 1.3572 1.3084 1.3618 1.3992 1.3626
2806.663 1.3538 1.4026 1.3755 1.4112 1.543 1.523 1.603 1.763 1.823 1.933
2825.953 2.133 2.293 2.533 2.793 2.953 3.143 3.393 3.693 4.023 4.283
2845.242 4.453 4.523 4.473 4.393 4.273 4.193 4.203 4.123 4.093 4.273
2864.532 4.533 4.903 5.303 5.753 6.393 6.933 7.113 7.033 6.853 6.553
2883.822 6.113 5.583 4.903 4.203 3.683 3.193 2.873 2.703 2.633 2.653
2903.112 2.713 2.723 2.763 2.753 2.583 2.563 2.603 2.663 2.723 2.793
2922.401 2.813 2.833 2.773 2.733 2.823 2.963 3.043 3.173 3.353 3.583
2941.691 3.933 4.213 4.463 4.563 4.573 4.733 4.823 4.693 4.523 4.343
2960.981 4.193 4.043 3.943 3.753 3.523 3.393 3.293 3.063 2.753 2.613
2980.271 2.623 2.383 2.183 2.183 2.153 2.063 1.973 2.023 1.993 1.973
2999.561 2.103 2.213 2.353 2.603 2.913 3.173 3.463 3.673 3.813 3.893
3018.850 3.833 3.693 3.443 3.193 2.753 2.303 2.183 2.103 1.863 1.553
3038.140 1.4252 1.4299 1.3736 1.2498 1.2685 1.3065 1.3675 1.473 1.4223 1.3896
3057.430 1.334 1.3457 1.4073 1.4639 1.523 1.493 1.483 1.593 1.653 1.583
3076.720 1.4718 1.4246 1.503 1.623 1.673 1.733 1.753 1.843 1.923 1.933
3096.009 1.993 2.033 2.113 2.053 1.943 1.883 1.813 1.823 1.833 1.693
3115.299 1.623 1.593 1.513 1.4152 1.3778 1.3849 1.287 1.237 1.3233 1.3653
3134.589 1.3091 1.3667 1.335 1.2752 1.3262 1.2916 1.4265 1.4465 1.3349 1.4364
3153.879 1.583 1.683 1.643 1.743 1.723 1.703 1.703 1.823 2.033 2.043
3173.169 2.003 2.013 2.203 2.293 2.383 2.433 2.293 2.323 2.423 2.463
3192.458 2.523 2.543 2.703 2.793 2.773 2.813 2.953 3.113 3.153 3.353
3211.748 3.293 3.233 3.533 3.603 3.633 3.733 3.773 3.863 3.953 3.903
3231.038 3.963 4.123 4.193 4.183 4.143 4.203 4.233 4.233 4.233 4.283
3250.328 4.253 4.103 4.053 4.133 4.163 4.153 4.053 3.953 4.013 4.043
3269.617 4.043 4.033 3.933 3.813 3.593 3.623 3.803 3.693 3.613 3.683
3288.907 3.573 3.553 3.603 3.613 3.573 3.463 3.373 3.293 3.343 3.403
3308.197 3.313 3.273 3.443 3.403 3.253 3.263 3.183 3.033 3.023 3.183
3327.487 3.173 2.963 2.963 2.933 2.913 3.043 3.063 3.033 2.923 2.813
3346.777 2.883 2.893 2.813 2.673 2.673 2.703 2.563 2.533 2.583 2.573
3366.066 2.443 2.423 2.483 2.403 2.393 2.413 2.353 2.353 2.393 2.433
3385.356 2.353 2.363 2.373 2.333 2.513 2.523 2.443 2.433 2.463 2.353
3404.646 2.263 2.353 2.333 2.123 1.823 1.753 1.963 2.013 1.903 1.803
3423.936 1.913 1.953 1.863 1.803 1.673 1.583 1.473 1.3959 1.4601 1.543
3443.225 1.4067 1.3974 1.4282 1.444 1.4585 1.513 1.503 1.3462 1.3786 1.3289
3462.515 1.0998 1.1132 1.2876 1.4132 1.483 1.4535 1.42 1.3833 1.2446 1.145
3481.805 1.301 1.227 1.1487 1.2286 1.1854 1.2197 1.1926 1.1135 1.1404 1.1494
3501.095 1.067 1.125 1.1707 1.0646 0.9094 0.8674 0.8156 0.8735 0.9536 0.8953
3520.385 1.009 0.9522 0.9877 1.2293 1.2039 1.0393 0.891 0.8854 1.0691 1.1611
3539.674 0.9564 0.7282 0.8731 1.0033 0.936 1.0538 1.0561 0.9009 0.8929 0.8732
3558.964 0.8037 0.7872 0.8087 0.8833 0.781 0.7844 0.8442 0.7635 0.6819 0.6283
3578.254 0.7328 0.7739 0.6956 0.7036 0.7981 0.7961 0.7187 0.6663 0.7004 0.6902
3597.544 0.6391 0.7345 0.6507 0.49071 0.5426 0.56172 0.54422 0.48632 0.49272 0.6307
3616.833 0.6185 0.639 0.6513 0.55749 0.4217 0.37 0.364 0.254 0.348 0.51862
3636.123 0.56679 0.5048 0.48656 0.55164 0.52253 0.49163 0.50111 0.4529 0.55277 0.5995
3655.413 0.51764 0.50537 0.355 0.299 0.3744 0.4011 0.51076 0.53092 0.3887 0.4057
3674.703 0.5756 0.54279 0.4111 0.5279 0.5577 0.4102 0.181 0.044 0.193 0.277
3693.993 0.342 0.4305 0.349 0.343 0.312 0.323 0.46536 0.4602 0.365 0.354
3713.282 0.4287 0.367 0.4136 0.5192 0.412 0.117 0.017 0.143 0.265 0.325
3732.572 0.3787 0.301 0.189 0.09 0.143 0.259 0.277 0.291 0.196 0.34
3751.862 0.35 0.173 0.163 0.193 0.086 0.126 0.345 0.31 0.211 0.231
3771.152 0.296 0.325 0.153 0.148 0.271 0.301 0.316 0.343 0.3786 0.354
3790.441 0.345 0.474237 0.50628 0.327 0.181 0.193 0.4171 0.342 0.173 0.152
3809.731 0.243 0.362 0.328 0.356 0.286 0.197 0.347 0.3884 0.28 0.272
3829.021 0.249 0.095 0 0.063 0.226 0.369 0.4425 0.52814 0.349 0.173
3848.311 0.18 0.233 0.216 0.203 0.301 0.3838 0.4232 0.348 0.277 0.24
3867.601 0.227 0.286 0.263 0.227 0.286 0.3881 0.4216 0.194 0.079 0.266
3886.890 0.26 0.073 0.031 0.153 0.305 0.314 0.346 0.3874 0.33 0.323
3906.180 0.211 0.156 0.16 0.16 0.199 0.239 0.228 0.205 0.3 0.319
3925.470 0.319 0.346 0.288 0.294 0.348 0.257 0.198 0.244 0.275 0.3787
3944.760 0.4078 0.3892 0.194 0.095 0.248 0.285 0.281 0.279 0.269 0.22
3964.049 0.311 0.49 0.3896 0.294 0.289 0.224 0.241 0.328 0.3751 0.281
3983.339 0.184 0.243 0.4509 0.48308 0.256 0.175 0.359 0.3994 0.224 0.238
##END=
