##TITLE=4-Methyl-1-phenyl-1-pentyn-3-ol
##JCAMP-DX=4.24
##DATA TYPE=INFRARED SPECTRUM
##ORIGIN=NIST Mass Spectrometry Data Center
##OWNER=NIST Standard Reference Data Program
Collection (C) 2018 copyright by the U.S. Secretary of Commerce
on behalf of the United States of America. All rights reserved.
##CAS REGISTRY NO=6662-56-2
##MOLFORM=C 12 H 14 O
##$NIST SOURCE=MSDC-IR
##SPECTROMETER/DATA SYSTEM=HP-GC/MS/IRD
##STATE=gas
##XUNITS=1/CM
##YUNITS=ABSORBANCE
##XFACTOR=1.0
##YFACTOR=0.000001700
##DELTAX=4.0
##FIRSTX=550.0
##LASTX=3846.0
##FIRSTY=0.001110
##MAXX=3846
##MINX=550
##MAXY=0.017
##MINY=0
##NPOINTS=825
##XYDATA=(X++(Y..Y))
550.0 653 491 329 293 168 101 99 115 128 225
590.0 323 355 289 211 220 269 271 246 188 140
630.0 129 84 30 20 23 43 159 317 499 766
670.0 1110 1522 1957 2317 2676 2799 2610 2329 1945 1531
710.0 1168 910 756 726 881 1201 1702 2344 2989 3582
750.0 4200 4492 3989 3308 2692 1951 1258 770 472 330
790.0 280 246 242 248 230 184 118 65 80 113
830.0 121 105 86 90 78 59 50 61 98 109
870.0 116 136 154 211 312 414 521 634 729 785
910.0 800 736 644 588 558 530 526 542 614 742
950.0 905 1152 1410 1694 2038 2429 2857 3257 3618 3905
990.0 3997 3881 3722 3715 3967 4462 5181 6080 6985 7567
1030.0 7565 6929 5793 4558 3460 2609 2048 1654 1377 1200
1070.0 1096 1025 976 963 931 919 931 902 819 739
1110.0 715 750 837 962 1022 974 863 723 648 614
1150.0 623 675 763 887 984 1018 952 833 721 641
1190.0 600 617 672 747 844 953 1040 1126 1195 1252
1230.0 1293 1317 1374 1466 1558 1633 1614 1491 1407 1418
1270.0 1480 1542 1578 1625 1674 1735 1808 1874 1915 1929
1310.0 1895 1894 1973 2096 2254 2384 2446 2487 2630 2977
1350.0 3577 4349 5035 5354 5238 4781 4235 3789 3518 3377
1390.0 3207 2878 2377 1849 1473 1238 1093 1023 986 971
1430.0 981 1019 1063 1112 1164 1227 1286 1387 1520 1690
1470.0 1870 2085 2469 3190 3997 4237 3678 2640 1745 1225
1510.0 872 633 487 402 329 278 246 247 231 179
1550.0 160 169 226 245 256 315 402 514 649 878
1590.0 1198 1518 1639 1442 1036 615 336 203 146 112
1630.0 82 65 54 65 91 136 175 200 234 212
1670.0 156 107 58 39 44 24 13 29 15 0
1710.0 5 19 40 45 65 106 115 90 71 70
1750.0 89 89 66 46 34 46 66 79 94 129
1790.0 186 231 213 153 100 59 71 76 51 40
1830.0 29 16 13 16 21 39 57 74 108 128
1870.0 144 171 210 249 263 235 171 115 73 51
1910.0 41 48 78 106 133 165 191 207 220 244
1950.0 275 302 298 241 157 96 59 38 29 19
1990.0 23 29 31 29 25 30 23 19 30 31
2030.0 35 44 40 36 37 45 46 37 33 33
2070.0 31 28 20 17 17 20 27 28 29 24
2110.0 23 21 20 18 16 20 28 38 42 37
2150.0 42 50 49 57 58 65 71 81 94 104
2190.0 123 156 205 243 291 333 343 328 300 282
2230.0 248 222 192 159 128 98 87 85 92 100
2270.0 88 70 51 47 54 47 47 39 38 55
2310.0 87 93 71 80 85 88 89 78 67 61
2350.0 54 47 61 52 34 40 33 25 32 39
2390.0 36 21 14 30 43 42 43 56 57 45
2430.0 41 39 40 38 40 48 51 46 55 54
2470.0 42 38 45 49 48 47 51 49 51 52
2510.0 52 50 39 45 58 52 44 44 52 81
2550.0 84 82 81 87 99 88 74 87 98 95
2590.0 92 98 119 120 109 115 128 121 117 107
2630.0 94 97 88 85 103 111 99 103 98 95
2670.0 104 98 100 107 115 119 123 132 128 115
2710.0 121 137 151 155 161 186 207 208 211 219
2750.0 220 231 237 238 228 220 247 243 214 229
2790.0 251 278 278 259 292 323 324 370 430 434
2830.0 455 527 593 646 739 877 1045 1260 1571 1979
2870.0 2492 3126 3775 4222 4352 4243 4036 3950 4015 4186
2910.0 4355 4354 4182 3968 3867 3908 4022 4113 4107 4100
2950.0 4257 4702 5634 7119 8845 9990 10000 8722 6648 4654
2990.0 3129 2189 1624 1272 1107 1027 1040 1106 1169 1269
3030.0 1424 1607 1717 1683 1543 1480 1675 2104 2646 3166
3070.0 3342 3103 2653 2288 2154 2052 1937 1756 1534 1283
3110.0 1013 744 560 451 366 322 282 260 261 262
3150.0 264 242 221 207 187 191 203 188 172 157
3190.0 161 147 130 135 126 113 103 84 67 56
3230.0 75 76 66 77 80 71 70 56 44 40
3270.0 22 19 29 54 61 45 40 38 38 55
3310.0 55 29 30 43 73 80 56 81 87 64
3350.0 66 74 64 73 66 36 35 58 74 55
3390.0 41 61 73 74 55 42 25 25 29 25
3430.0 47 46 29 37 77 88 87 92 102 124
3470.0 129 96 73 74 86 100 94 88 88 82
3510.0 80 90 92 62 58 72 68 44 45 83
3550.0 97 80 79 67 75 83 77 86 84 76
3590.0 87 93 65 60 89 109 144 179 242 361
3630.0 525 773 1119 1454 1746 1903 1808 1560 1212 853
3670.0 577 403 272 185 165 158 131 129 129 134
3710.0 123 106 89 57 57 94 105 81 93 133
3750.0 142 123 106 106 135 141 116 122 112 117
3790.0 147 134 134 177 175 128 143 136 108 97
3830.0 101 118 125 132 125
##END=
