##TITLE=t-Butyl phenyl ether
##JCAMP-DX=4.24
##DATA TYPE=INFRARED SPECTRUM
##ORIGIN=EPA-IR VAPOR PHASE LIBRARY
##OWNER=SRD/NIST
Collection (C) 2018 copyright by the U.S. Secretary of Commerce
on behalf of the United States of America. All rights reserved.
##CAS REGISTRY NO=6669-13-2
##MOLFORM=C 10 H 14 O
##$NIST SOURCE=MSDC-IR
##STATE=gas
##XUNITS=1/CM
##YUNITS=ABSORBANCE
##XFACTOR=1.
##YFACTOR=0.001
##DELTAX=1.92898
##FIRSTX=549.8
##LASTX=4000.7
##FIRSTY=0.402
##MAXX=4000.7
##MINX=549.759
##MAXY=0.075003
##MINY=0
##NPOINTS=1790
##XYDATA=(X++(Y..Y))
549.759 0.402 0.662 0.9874 0.9353 0.8977 0.9397 0.7296 0.54146 0.8715 1.1504
569.049 0.8711 0.4826 0.4758 0.8247 1.0976 0.9162 0.9515 1.0192 1.1055 1.0726
588.339 0.672 1.4464 2.153 1.613 1.533 1.993 2.413 2.793 2.963 2.573
607.628 2.313 2.323 2.233 1.913 1.308 1.0762 1.1583 1.0384 0.8851 0.8105
626.918 1.2161 1.2895 0.9682 1.2224 1.543 1.613 1.4651 1.3839 1.4272 1.4748
646.208 1.4799 1.543 1.513 1.563 1.623 1.813 2.043 2.223 2.653 2.913
665.498 3.013 3.173 3.753 4.453 5.093 6.213 7.283 8.073 9.213 10.643
684.787 11.993 13.313 14.933 16.433 17.883 18.883 18.303 17.163 16.183 14.983
704.077 13.713 12.493 11.403 10.443 9.433 8.283 7.203 6.403 5.813 5.353
723.367 4.923 4.443 4.403 4.413 4.453 4.613 4.883 5.123 5.233 5.623
742.657 6.033 6.383 6.823 7.113 7.323 7.963 8.393 8.673 9.143 9.493
761.947 9.793 10.043 10.443 10.933 11.103 11.323 11.673 11.743 11.363 10.543
781.236 9.703 8.803 8.203 7.693 6.883 6.123 5.763 5.723 5.833 6.033
800.526 5.943 5.683 5.703 5.813 5.933 5.913 5.613 5.523 5.183 4.773
819.816 4.433 4.183 4.003 3.543 3.073 2.963 2.843 2.703 2.573 2.433
839.106 2.563 2.293 2.103 2.323 2.293 2.483 2.663 2.783 3.013 3.193
858.395 3.453 3.573 3.993 4.533 5.153 5.933 6.493 7.503 8.673 9.873
877.685 11.643 13.503 15.703 17.723 19.253 20.943 22.523 23.323 23.553 23.613
896.975 23.543 22.903 21.943 21.713 21.533 21.473 21.723 21.883 22.263 22.673
916.265 22.943 22.993 22.793 22.023 20.903 19.593 17.923 16.153 14.303 12.263
935.555 10.403 8.583 6.863 5.943 5.183 4.383 3.773 3.043 2.483 2.583
954.844 2.643 2.463 2.443 2.383 2.413 2.273 2.193 2.403 2.273 2.153
974.134 2.063 2.253 2.283 1.913 2.153 2.263 2.043 2.203 2.203 1.993
993.424 2.043 2.463 2.933 2.753 2.753 3.313 3.443 3.523 4.003 4.203
1012.714 4.573 5.513 6.353 7.013 7.563 7.503 7.403 7.393 7.003 6.343
1032.003 5.013 3.983 3.493 3.163 2.733 2.213 2.213 2.123 2.353 2.823
1051.293 2.963 3.273 3.283 3.413 3.913 4.263 4.503 4.693 4.603 4.403
1070.583 4.893 4.893 4.283 4.353 4.463 3.753 3.203 3.153 2.723 2.483
1089.873 2.573 2.293 2.513 2.633 2.173 1.993 2.193 2.493 2.953 3.203
1109.163 2.753 2.753 3.273 3.663 3.793 3.903 4.263 4.523 5.083 5.753
1128.452 6.373 7.453 8.843 10.473 11.933 13.443 15.813 18.843 21.693 25.243
1147.742 29.573 33.853 39.013 44.923 50.103 54.423 58.103 61.143 63.973 66.883
1167.032 69.873 72.063 73.633 74.653 75.003 75.003 74.123 72.173 69.403 65.383
1186.322 60.363 55.243 49.483 42.953 37.243 32.583 28.603 25.683 23.773 21.643
1205.611 20.113 19.803 19.713 20.493 22.033 23.683 25.763 28.853 32.483 36.103
1224.901 40.113 43.933 47.933 52.603 56.763 59.923 62.253 63.833 64.043 62.853
1244.191 60.383 57.123 53.513 48.803 43.143 37.793 32.863 28.633 25.093 21.803
1263.481 19.203 17.363 15.843 14.483 13.413 12.423 11.613 11.043 10.503 9.983
1282.771 9.593 9.323 8.983 8.503 7.903 7.403 7.143 6.853 6.413 5.903
1302.060 5.443 5.033 4.683 4.383 4.123 3.813 3.583 3.573 3.453 3.303
1321.350 3.303 3.233 3.173 3.333 3.373 3.433 3.543 3.613 3.823 4.003
1340.640 4.183 4.493 4.883 5.403 6.103 7.063 8.263 9.613 11.193 12.983
1359.930 14.833 16.683 18.413 19.893 20.973 21.763 22.013 21.483 20.453 19.173
1379.219 17.993 17.043 16.403 16.213 16.333 16.253 15.823 15.253 14.473 13.653
1398.509 12.813 11.383 9.473 7.643 6.213 5.223 4.563 4.023 3.593 3.403
1417.799 3.343 3.333 3.223 3.193 3.243 3.233 3.333 3.343 3.493 3.723
1437.089 3.893 4.153 4.353 4.683 5.113 5.493 5.763 6.063 6.473 6.823
1456.378 7.343 7.983 8.693 9.563 10.653 12.123 13.913 16.173 18.863 22.053
1475.668 25.613 29.523 34.033 39.383 45.093 50.393 54.183 55.653 54.923 53.063
1494.958 50.193 46.193 41.483 35.153 27.613 20.703 15.103 11.423 9.353 7.983
1514.248 7.143 6.643 6.263 5.973 5.673 5.523 5.393 5.233 5.133 5.023
1533.538 4.903 4.743 4.583 4.373 4.143 4.133 4.143 4.103 4.093 4.133
1552.827 4.233 4.353 4.473 4.813 5.293 5.813 6.523 7.343 8.383 9.543
1572.117 10.973 12.643 14.673 17.093 19.763 22.943 26.363 29.823 32.983 35.383
1591.407 36.783 36.783 35.493 33.343 30.363 26.823 22.913 18.973 15.433 12.523
1610.697 10.203 8.373 7.053 5.983 5.063 4.523 4.163 3.783 3.363 3.103
1629.986 2.903 2.663 2.563 2.363 2.113 2.083 1.933 1.833 1.793 1.723
1649.276 1.753 1.593 1.4472 1.4196 1.4018 1.553 1.673 1.623 1.563 1.496
1668.566 1.4509 1.4038 1.4094 1.4246 1.4813 1.553 1.4922 1.4895 1.533 1.513
1687.856 1.583 1.623 1.603 1.643 1.603 1.583 1.723 1.833 1.813 1.733
1707.146 1.753 1.833 1.863 1.783 1.743 1.843 1.843 1.863 1.863 1.773
1726.435 1.743 1.753 1.763 1.643 1.543 1.4902 1.3759 1.4668 1.523 1.4323
1745.725 1.4661 1.471 1.3638 1.2993 1.2906 1.347 1.4078 1.3494 1.3779 1.4587
1765.015 1.553 1.703 1.803 1.873 1.863 1.873 1.963 1.963 1.873 1.873
1784.305 1.873 1.803 1.713 1.603 1.563 1.4704 1.4358 1.4791 1.3839 1.2895
1803.594 1.3744 1.4567 1.383 1.3026 1.2793 1.3072 1.3265 1.3425 1.3177 1.2666
1822.884 1.2238 1.1364 1.186 1.2995 1.3135 1.1956 1.2188 1.3272 1.3169 1.3382
1842.174 1.3938 1.4704 1.4953 1.523 1.4726 1.4137 1.4346 1.4746 1.4711 1.4778
1861.464 1.553 1.553 1.553 1.4959 1.4356 1.4417 1.4282 1.4824 1.523 1.4716
1880.754 1.3372 1.2433 1.214 1.1546 1.1692 1.158 1.111 1.1067 1.2295 1.3569
1900.043 1.3318 1.2336 1.246 1.3968 1.4802 1.503 1.573 1.663 1.723 1.803
1919.333 1.833 1.793 1.853 2.063 2.253 2.223 2.243 2.313 2.343 2.383
1938.623 2.403 2.383 2.263 2.183 2.073 1.933 1.863 1.763 1.643 1.4844
1957.913 1.4056 1.4094 1.4169 1.3343 1.2659 1.3337 1.3081 1.1849 1.0913 1.1214
1977.202 1.2009 1.2179 1.1563 1.0801 1.0846 1.0387 0.9655 0.9286 0.8927 0.9331
1996.492 0.9408 0.9161 0.8899 0.8623 0.9023 0.8979 0.8829 0.8589 0.7783 0.7622
2015.782 0.8711 0.9427 0.886 0.9256 0.9559 0.9327 0.9941 1.0637 1.0976 1.1035
2035.072 1.1147 1.1915 1.2137 1.2331 1.2637 1.2872 1.2958 1.2946 1.2619 1.1891
2054.362 1.1054 1.0581 1.0652 1.0276 0.9328 0.8985 0.8929 0.877 0.8719 0.8827
2073.651 0.8403 0.7768 0.8725 0.9181 0.8391 0.7898 0.8305 0.8657 0.8166 0.7923
2092.941 0.7883 0.7932 0.7807 0.7375 0.7455 0.7542 0.7197 0.6855 0.7306 0.6535
2112.231 0.59703 0.7305 0.7684 0.7607 0.7673 0.6664 0.6633 0.7624 0.7724 0.7366
2131.521 0.7473 0.7533 0.7469 0.7068 0.6701 0.7034 0.7668 0.7188 0.6521 0.6322
2150.810 0.6043 0.6559 0.6363 0.55939 0.57317 0.6562 0.7816 0.7861 0.6654 0.56014
2170.100 0.505593 0.55397 0.6169 0.58945 0.6037 0.69 0.6323 0.50191 0.55691 0.6478
2189.390 0.57272 0.6076 0.59625 0.55762 0.58548 0.6033 0.606 0.59289 0.6155 0.58888
2208.680 0.5197 0.55894 0.6426 0.6683 0.6598 0.59504 0.59184 0.55843 0.51687 0.51743
2227.970 0.4904 0.507902 0.57124 0.54372 0.4694 0.55427 0.6456 0.5871 0.53545 0.4862
2247.259 0.4844 0.499 0.476 0.56958 0.6026 0.59454 0.6057 0.6327 0.7405 0.7259
2266.549 0.653 0.72 0.8517 0.831 0.7934 0.8249 0.8487 0.8842 0.8435 0.8791
2285.839 0.9461 0.892 0.8913 0.844 0.8819 0.9118 0.8616 0.8067 0.7516 0.7907
2305.129 0.7502 0.8042 0.8741 0.9028 0.9292 0.8533 0.7832 0.7131 0.6906 0.7422
2324.418 0.761 0.7103 0.7004 0.6188 0.57722 0.6597 0.6361 0.6554 0.59077 0.55586
2343.708 0.59144 0.6266 0.7137 0.7398 0.7239 0.6581 0.6181 0.6616 0.695 0.586
2362.998 0.53622 0.6132 0.6948 0.7903 0.8455 0.8061 0.8269 0.8105 0.9433 1.0554
2382.288 1.0095 1.0495 1.0266 1.1037 1.1306 1.1566 1.2598 1.1726 1.0157 1.0237
2401.578 1.1035 1.1479 1.1676 1.2264 1.2027 1.0491 0.9922 0.9863 0.9804 0.9542
2420.867 0.9366 1.0208 0.9927 0.9877 1.0303 0.9823 0.9976 0.9395 0.9607 1.0103
2440.157 0.9478 0.939 1.0198 1.1064 0.9956 0.9285 1.039 1.09 1.1697 1.3381
2459.447 1.3548 1.3043 1.3967 1.452 1.401 1.3576 1.3152 1.3451 1.3722 1.3604
2478.737 1.2267 1.0218 1.097 1.1542 1.0456 1.0323 1.1189 1.09 1.0864 1.1003
2498.026 0.9252 0.8062 0.9388 1.0733 1.013 1.0073 0.9705 0.8401 0.7854 0.8499
2517.316 0.9096 0.9454 0.9713 0.929 0.8992 0.9478 0.9813 0.8652 0.8807 0.9061
2536.606 0.8677 0.8703 0.7796 0.6935 0.7081 0.8309 0.9082 0.821 0.7633 0.6798
2555.896 0.6543 0.7373 0.7358 0.7747 0.7115 0.6114 0.6096 0.663 0.7501 0.7452
2575.186 0.7897 0.8155 0.6586 0.6439 0.6698 0.6172 0.6919 0.6067 0.57596 0.6844
2594.475 0.7098 0.748 0.642 0.59554 0.60148 0.60192 0.59364 0.6133 0.7285 0.7894
2613.765 0.8449 0.9268 0.8706 0.7782 0.8146 0.8121 0.7823 0.727 0.6796 0.65
2633.055 0.7245 0.8993 0.856 0.7376 0.7376 0.7058 0.7338 0.7802 0.7688 0.7123
2652.345 0.6881 0.7757 0.7374 0.7063 0.6621 0.6299 0.7286 0.6094 0.51396 0.6148
2671.634 0.6235 0.55171 0.53453 0.4049 0.4033 0.6117 0.6489 0.59463 0.54594 0.58459
2690.924 0.6596 0.6902 0.7376 0.7417 0.7079 0.8303 0.8483 0.8743 0.9412 0.8006
2710.214 0.8211 0.8895 1.0837 1.0466 0.7973 0.8546 0.946 1.0064 1.0292 1.0004
2729.504 0.9416 0.8012 0.7735 0.8779 0.9701 0.9742 0.9548 0.9396 1.0187 1.0186
2748.794 0.8914 0.8775 0.9332 1.0312 0.9773 0.9622 0.8993 0.8501 0.918 0.9588
2768.083 0.978 0.9381 0.9787 1.0105 0.9193 0.8491 0.8846 0.8988 0.9536 1.0683
2787.373 0.9921 0.8693 0.927 0.9627 1.0118 1.0673 1.0214 1.0325 1.1128 1.1779
2806.663 1.1621 1.2076 1.2636 1.3084 1.2752 1.1946 1.2543 1.3685 1.4716 1.4598
2825.953 1.563 1.663 1.653 1.573 1.513 1.793 1.863 1.773 1.883 2.103
2845.242 2.103 2.103 2.363 2.483 2.573 2.683 2.923 3.283 3.603 3.913
2864.532 4.283 4.603 4.963 5.383 5.493 5.793 6.423 6.713 6.883 7.093
2883.822 7.353 7.393 7.403 7.543 7.753 7.973 8.033 8.153 8.333 8.713
2903.112 8.943 9.143 9.473 9.853 10.103 10.273 10.733 10.993 11.063 11.393
2922.401 12.063 12.623 12.983 13.533 14.263 14.983 15.453 16.113 16.613 16.963
2941.691 17.403 17.473 17.393 17.263 17.173 17.203 17.043 17.123 17.513 17.963
2960.981 18.803 20.223 22.363 25.093 28.633 32.983 37.913 43.463 49.353 54.893
2980.271 58.913 61.173 61.773 60.333 57.433 53.463 48.093 41.323 34.583 28.773
2999.561 23.903 20.143 17.013 14.453 12.473 11.013 9.913 9.163 8.593 8.093
3018.850 7.763 7.673 7.963 8.073 8.173 8.713 9.163 9.553 9.903 10.403
3038.140 10.933 10.983 10.923 10.923 10.723 10.353 9.943 9.653 9.513 9.463
3057.430 9.713 10.203 10.993 12.103 13.303 14.253 14.833 15.353 15.443 15.383
3076.720 15.203 14.653 13.893 12.753 11.583 10.843 10.193 9.483 9.213 9.093
3096.009 8.673 8.283 7.933 7.293 6.733 6.273 5.833 5.423 4.833 4.063
3115.299 3.513 3.363 3.123 2.743 2.403 2.103 1.983 1.943 1.653 1.4252
3134.589 1.4301 1.4235 1.2678 1.2414 1.2331 1.2565 1.2893 1.4469 1.4704 1.1939
3153.879 1.061 1.2415 1.2911 1.2204 1.2447 1.1243 1.0166 0.9936 1.1591 1.1527
3173.169 1.0497 1.3122 1.2936 1.1406 1.2624 1.1515 1.0007 1.0732 1.2558 1.1767
3192.458 0.9969 1.0065 1.1527 1.1522 1.0958 1.3029 1.2441 1.1066 1.152 1.0918
3211.748 1.0484 1.0435 0.9186 0.8908 0.9273 0.8183 0.8793 0.9702 0.9028 0.8565
3231.038 0.8456 0.8352 1.0017 1.1335 1.1107 1.1783 1.1875 1.2066 1.1827 0.9367
3250.328 1.1151 1.1381 0.9294 1.0223 0.9214 0.8299 0.8437 0.7852 0.7579 0.8468
3269.617 0.8921 0.844 0.7938 0.8156 0.7222 0.6484 0.6212 0.51546 0.7261 0.7251
3288.907 0.4798 0.4413 0.60266 0.7388 0.7249 0.7428 0.58892 0.53677 0.4489 0.341
3308.197 0.58215 0.736 0.6308 0.59508 0.631 0.53966 0.57326 0.6262 0.51498 0.4091
3327.487 0.49548 0.54529 0.373 0.371 0.55399 0.6949 0.54188 0.368 0.4455 0.378
3346.777 0.226 0.4653 0.7349 0.7995 0.7432 0.55154 0.5635 0.6979 0.6526 0.6034
3366.066 0.6523 0.6913 0.7717 0.56002 0.50033 0.6429 0.6203 0.7857 0.6894 0.55351
3385.356 0.4102 0.389 0.52883 0.4662 0.509569 0.56967 0.6078 0.6003 0.506368 0.5009
3404.646 0.6143 0.7535 0.6098 0.4336 0.502529 0.52461 0.338 0.366 0.52405 0.52471
3423.936 0.49607 0.4768 0.6474 0.6106 0.4717 0.57158 0.6473 0.7882 0.7455 0.60272
3443.225 0.6468 0.57008 0.512969 0.6107 0.6257 0.5212 0.442 0.6134 0.6239 0.346
3462.515 0.4563 0.7639 0.7442 0.7027 0.6652 0.51973 0.6997 0.9161 0.8026 0.52234
3481.805 0.54868 0.59756 0.6246 0.7424 0.6678 0.679 0.7486 0.6124 0.6037 0.4905
3501.095 0.286 0.56516 0.59938 0.55043 0.58773 0.357 0.294 0.391 0.4355 0.306
3520.385 0.396 0.6827 0.5643 0.510975 0.57522 0.58795 0.58345 0.5246 0.6937 0.7982
3539.674 0.510502 0.4352 0.384 0.329 0.4776 0.59439 0.6588 0.56302 0.50066 0.4614
3558.964 0.4868 0.49616 0.6116 0.59265 0.4543 0.317 0.288 0.55652 0.799 0.6842
3578.254 0.4273 0.6193 0.6396 0.49425 0.6042 0.55896 0.306 0.389 0.59426 0.4209
3597.544 0.277 0.2 0.176 0.288 0.4301 0.4918 0.57389 0.54088 0.55488 0.6097
3616.833 0.4178 0.487 0.55129 0.4873 0.6466 0.6177 0.419 0.4101 0.473 0.55122
3636.123 0.56624 0.4251 0.38 0.4 0.337 0.4344 0.54857 0.6322 0.7361 0.6232
3655.413 0.383 0.397 0.4789 0.4888 0.4222 0.334 0.4486 0.6538 0.6986 0.352
3674.703 0.4158 0.6766 0.4406 0.336 0.447 0.59437 0.6647 0.6294 0.53157 0.4745
3693.993 0.396 0.56582 0.6739 0.7167 0.9766 0.7654 0.5681 0.59174 0.6348 0.8044
3713.282 0.7498 0.5672 0.4921 0.53598 0.49483 0.4901 0.52627 0.623 0.6657 0.508666
3732.572 0.50153 0.53159 0.7108 0.56533 0.4883 0.57807 0.209 0 0.4079 0.704
3751.862 0.5477 0.4449 0.4984 0.5645 0.61 0.801 0.7602 0.4666 0.4545 0.6453
3771.152 0.6634 0.55623 0.4737 0.4714 0.53266 0.59969 0.6725 0.7165 0.6139 0.59217
3790.441 0.6969 0.6133 0.6307 0.5924 0.4819 0.60007 0.6231 0.511681 0.4515 0.54105
3809.731 0.506411 0.57211 0.6095 0.4428 0.5784 0.6857 0.4924 0.59807 0.59157 0.4127
3829.021 0.277 0.144 0.510676 0.7136 0.6509 0.7822 0.8693 0.8005 0.7022 0.6478
3848.311 0.56863 0.7644 0.6964 0.328 0.257 0.392 0.467 0.4458 0.487 0.506857
3867.601 0.6062 0.58719 0.51579 0.4759 0.4743 0.6083 0.6042 0.58784 0.5761 0.4469
3886.890 0.388 0.4282 0.49382 0.5677 0.50519 0.49582 0.6895 0.6049 0.53684 0.7249
3906.180 0.6567 0.4459 0.641 0.7983 0.58325 0.387 0.57216 0.6665 0.49642 0.6716
3925.470 0.6746 0.6684 0.7361 0.6305 0.6286 0.50076 0.4499 0.54826 0.7451 0.8791
3944.760 0.7564 0.606 0.4793 0.503595 0.49846 0.4856 0.58903 0.53816 0.53346 0.58004
3964.049 0.6805 0.7028 0.6749 0.7369 0.8931 1.001 0.5854 0.4441 0.485 0.4323
3983.339 0.6943 0.6994 0.6465 0.58263 0.50164 0.4858 0.6553 0.6865 0.6844 0.8474
##END=
