##TITLE=Ethyl-2,3-Dichloropropionate
##JCAMP-DX=4.24
##DATA TYPE=INFRARED SPECTRUM
##ORIGIN=EPA-IR VAPOR PHASE LIBRARY
##OWNER=SRD/NIST
Collection (C) 2018 copyright by the U.S. Secretary of Commerce
on behalf of the United States of America. All rights reserved.
##CAS REGISTRY NO=668-21-3
##MOLFORM=C 5 H 8 Cl 2 O 2
##$NIST SOURCE=MSDC-IR
##STATE=gas
##XUNITS=1/CM
##YUNITS=ABSORBANCE
##XFACTOR=1.
##YFACTOR=0.001
##DELTAX=3.85796
##FIRSTX=501.5
##LASTX=4000.7
##FIRSTY=3.019
##MAXX=4000.7
##MINX=501.534
##MAXY=0.111289
##MINY=0
##NPOINTS=908
##XYDATA=(X++(Y..Y))
501.534 3.019 2.349 2.039 1.789 1.529 1.469 1.379 1.2711 1.3327 1.3545
540.114 1.3337 1.2647 1.1612 1.1215 1.1946 1.3148 1.3417 1.3651 1.409 1.459
578.693 1.579 1.749 1.959 2.179 2.399 2.609 2.909 3.209 3.399 3.589
617.273 3.729 3.819 4.029 4.249 4.369 4.359 4.199 3.969 3.849 3.719
655.852 3.629 3.709 3.839 4.089 4.539 5.369 6.709 8.649 11.549 15.559
694.432 20.279 24.409 26.479 26.029 23.309 19.119 15.239 12.909 12.299 13.129
733.011 14.789 16.469 17.169 16.479 14.469 11.469 8.419 6.299 5.329 4.979
771.591 4.859 4.809 4.779 4.799 4.879 5.049 5.099 5.009 4.949 4.819
810.170 4.719 4.809 5.019 5.289 5.469 5.539 5.469 5.399 5.559 6.129
848.750 7.119 8.269 9.209 9.549 9.189 8.229 7.019 5.979 5.229 4.679
887.330 4.239 3.859 3.489 3.199 3.069 3.019 3.079 3.229 3.449 3.699
925.909 3.899 4.099 4.349 4.629 4.959 5.399 5.909 6.439 7.009 7.549
964.489 7.949 8.259 8.419 8.309 7.999 7.699 7.659 8.079 9.159 11.099
1003.068 13.929 17.489 21.459 25.279 28.419 30.499 31.139 30.429 28.679 25.979
1041.648 22.629 19.189 16.399 14.819 14.399 14.639 14.879 14.769 14.299 13.639
1080.227 13.109 13.019 13.459 14.299 15.179 15.749 15.959 15.859 15.509 15.179
1118.807 15.019 15.019 15.469 16.799 19.339 23.519 30.019 39.879 52.659 65.179
1157.387 73.759 77.369 76.439 72.609 69.729 69.069 68.069 64.489 58.249 50.769
1195.966 44.059 39.549 37.529 37.349 39.069 42.609 46.309 48.779 48.789 45.999
1234.546 42.149 40.289 42.459 47.969 54.189 58.569 59.709 57.739 54.149 50.749
1273.125 48.789 48.719 49.549 49.529 47.529 43.309 37.459 31.129 26.229 23.839
1311.705 23.239 23.439 23.879 24.379 24.889 25.579 26.639 27.639 27.549 25.839
1350.284 22.719 18.889 15.759 14.969 16.659 18.979 20.249 19.949 17.819 14.589
1388.864 11.899 10.389 9.509 8.819 8.209 7.679 7.359 7.359 7.759 8.609
1427.443 10.059 11.849 13.439 14.409 14.209 12.999 11.329 9.929 9.109 8.879
1466.023 8.979 9.019 8.769 8.119 7.129 6.039 5.019 4.219 3.659 3.229
1504.603 2.919 2.679 2.509 2.409 2.319 2.279 2.239 2.209 2.169 2.139
1543.182 2.109 2.089 2.029 1.979 1.949 1.899 1.849 1.779 1.739 1.689
1581.762 1.649 1.659 1.669 1.709 1.779 1.829 1.869 1.889 1.879 1.839
1620.341 1.739 1.649 1.589 1.549 1.549 1.559 1.569 1.589 1.619 1.669
1658.921 1.729 1.779 1.849 1.949 2.079 2.259 2.439 2.689 3.009 3.359
1697.500 3.809 4.389 5.119 6.039 7.209 8.719 10.649 13.119 16.269 20.509
1736.080 26.169 33.219 42.289 53.579 66.999 81.719 95.439 106.759 111.289 99.829
1774.659 79.619 60.679 43.199 30.139 21.949 16.569 12.819 10.009 7.929 6.459
1813.239 5.379 4.549 3.919 3.449 3.109 2.819 2.589 2.419 2.269 2.159
1851.819 2.079 2.019 1.959 1.879 1.809 1.759 1.699 1.639 1.569 1.529
1890.398 1.479 1.399 1.338 1.2757 1.241 1.2109 1.165 1.1362 1.1152 1.0816
1928.978 1.052 1.0266 0.9993 0.9961 0.9835 0.9491 0.9277 0.9171 0.9154 0.9102
1967.557 0.8786 0.8602 0.8509 0.835 0.8435 0.8596 0.8617 0.8782 0.9234 0.9672
2006.137 1.0268 1.0679 1.0881 1.0859 1.0681 1.0571 1.0274 1.0079 0.9844 0.9886
2044.716 0.9797 0.9275 0.8992 0.88 0.8825 0.8735 0.8766 0.9102 0.9143 0.9221
2083.296 0.9421 0.949 0.9441 0.9338 0.911 0.878 0.8549 0.8335 0.8226 0.8137
2121.875 0.8006 0.7841 0.7656 0.7493 0.7384 0.7314 0.7207 0.7026 0.6646 0.6424
2160.455 0.6321 0.6137 0.5923 0.5701 0.57 0.5707 0.572 0.5683 0.5588 0.5649
2199.035 0.5614 0.5646 0.561 0.5659 0.5728 0.5635 0.5616 0.58 0.6005 0.5557
2237.614 0.5309 0.5616 0.5715 0.5554 0.5435 0.5644 0.5621 0.5482 0.5542 0.5529
2276.194 0.5403 0.5352 0.5514 0.5593 0.57 0.5898 0.5958 0.6269 0.6639 0.6891
2314.773 0.7077 0.7175 0.7248 0.7042 0.6984 0.7 0.6846 0.6718 0.6517 0.6513
2353.353 0.6537 0.6385 0.6409 0.6225 0.6116 0.6137 0.6179 0.6272 0.6271 0.6554
2391.932 0.6925 0.727 0.7363 0.7476 0.7615 0.7557 0.7141 0.6655 0.6301 0.6054
2430.512 0.6094 0.5887 0.56 0.5525 0.576 0.5987 0.5955 0.5788 0.569 0.5807
2469.092 0.5912 0.6027 0.6136 0.5972 0.6001 0.5891 0.5739 0.558 0.5221 0.5052
2507.671 0.4841 0.46877 0.46727 0.4842 0.4704 0.42687 0.42821 0.45357 0.46044 0.46259
2546.251 0.44985 0.43049 0.41572 0.39458 0.38277 0.36359 0.3559 0.356 0.3142 0.3091
2584.830 0.3534 0.3584 0.3444 0.3411 0.3362 0.338 0.341 0.36405 0.374471 0.3812
2623.410 0.40923 0.375196 0.3386 0.3378 0.3269 0.3142 0.3153 0.2958 0.2741 0.279
2661.989 0.261 0.244 0.249 0.246 0.219 0.212 0.246 0.2781 0.2762 0.273
2700.569 0.2859 0.2928 0.2821 0.2944 0.3509 0.38438 0.3965 0.41909 0.45025 0.46131
2739.148 0.4837 0.479 0.46404 0.46753 0.45444 0.4729 0.4712 0.485 0.5114 0.5294
2777.728 0.5487 0.5722 0.6071 0.6021 0.6327 0.6854 0.6825 0.689 0.7144 0.7586
2816.308 0.8196 0.8773 0.9386 0.9894 1.0309 1.0829 1.1701 1.2361 1.3309 1.499
2854.887 1.669 1.829 1.999 2.219 2.499 2.829 3.219 3.609 3.949 4.189
2893.467 4.299 4.409 4.599 4.929 5.279 5.639 5.909 6.049 6.199 6.599
2932.046 7.449 8.739 10.209 11.379 11.959 11.969 11.699 11.529 11.989 13.319
2970.626 15.329 17.989 21.169 24.299 26.379 26.629 24.969 21.899 18.359 15.449
3009.205 13.149 11.029 9.139 7.549 6.189 5.069 4.179 3.469 2.889 2.429
3047.785 2.109 1.859 1.619 1.419 1.2903 1.1588 1.0535 1.0257 0.9815 0.8973
3086.364 0.8464 0.8023 0.7906 0.7997 0.8008 0.7477 0.7274 0.7517 0.7046 0.6607
3124.944 0.6482 0.6151 0.6125 0.6356 0.6292 0.584 0.5242 0.5142 0.4747 0.43031
3163.524 0.4908 0.5038 0.41021 0.3326 0.3058 0.3114 0.264 0.2734 0.349 0.3107
3202.103 0.2794 0.2794 0.237 0.194 0.19 0.192 0.226 0.237 0.206 0.197
3240.683 0.195 0.18 0.153 0.149 0.158 0.151 0.116 0.084 0.079 0.083
3279.262 0.023 0.031 0.067 0.056 0.03 0.011 0.031 0.035 0 0
3317.842 0.066 0.07 0.071 0.087 0.023 0.023 0.082 0.072 0.042 0.028
3356.421 0.042 0.065 0.104 0.106 0.094 0.102 0.095 0.071 0.047 0.091
3395.001 0.091 0.059 0.048 0.088 0.15 0.127 0.126 0.178 0.198 0.194
3433.580 0.154 0.141 0.209 0.212 0.181 0.215 0.256 0.2882 0.358 0.40789
3472.160 0.4902 0.5297 0.5049 0.5564 0.6254 0.7148 0.8044 0.8996 1.0263 1.1148
3510.740 1.1852 1.1865 1.1282 1.0809 0.9326 0.7777 0.7227 0.6744 0.5622 0.46791
3549.319 0.46844 0.42144 0.358 0.2929 0.202 0.166 0.161 0.184 0.211 0.207
3587.899 0.23 0.205 0.164 0.19 0.17 0.156 0.126 0.097 0.118 0.135
3626.478 0.129 0.107 0.089 0.088 0.099 0.102 0.091 0.109 0.133 0.103
3665.058 0.062 0.073 0.154 0.18 0.148 0.154 0.148 0.166 0.185 0.162
3703.637 0.15 0.118 0.12 0.186 0.215 0.18 0.172 0.233 0.236 0.164
3742.217 0.152 0.182 0.187 0.215 0.231 0.231 0.231 0.217 0.211 0.233
3780.797 0.226 0.202 0.192 0.158 0.207 0.2961 0.265 0.207 0.215 0.244
3819.376 0.239 0.224 0.195 0.145 0.177 0.235 0.258 0.258 0.199 0.184
3857.956 0.221 0.216 0.207 0.233 0.229 0.167 0.143 0.198 0.24 0.2772
3896.535 0.258 0.174 0.197 0.217 0.16 0.117 0.143 0.188 0.214 0.183
3935.115 0.21 0.236 0.183 0.151 0.102 0.156 0.177 0.129 0.136 0.18
3973.694 0.209 0.171 0.136 0.211 0.2759 0.252 0.252 0.3027
##END=
