##TITLE=4,5-Diphenylimidazole
##JCAMP-DX=4.24
##DATA TYPE=INFRARED SPECTRUM
##ORIGIN=EPA-IR VAPOR PHASE LIBRARY
##OWNER=SRD/NIST
Collection (C) 2018 copyright by the U.S. Secretary of Commerce
on behalf of the United States of America. All rights reserved.
##CAS REGISTRY NO=668-94-0
##MOLFORM=C 15 H 12 N 2
##$NIST SOURCE=MSDC-IR
##STATE=gas
##XUNITS=1/CM
##YUNITS=ABSORBANCE
##XFACTOR=1.
##YFACTOR=0.001
##DELTAX=3.85796
##FIRSTX=501.5
##LASTX=4000.7
##FIRSTY=4.1499
##MAXX=4000.7
##MINX=501.534
##MAXY=0.0217599
##MINY=0
##NPOINTS=908
##XYDATA=(X++(Y..Y))
501.534 4.1499 5.5799 8.0399 12.2199 17.2799 21.1599 20.3099 15.6199 10.4899 6.5099
540.114 4.2699 3.4199 3.4199 3.9399 4.6599 4.7899 4.0299 2.8799 1.8499 1.2599
578.693 1.0162 0.8586 0.7755 0.7072 0.6569 0.6403 0.5627 0.5422 0.5883 0.6495
617.273 0.8051 0.9605 1.0347 1.1099 1.1799 1.1599 1.1699 1.3699 1.6699 2.1099
655.852 2.7799 3.5399 4.6899 6.4799 7.8799 8.3999 8.6299 9.9299 13.2499 18.0199
694.432 21.7599 21.3899 17.4999 12.8899 9.6499 8.1299 7.5199 6.7899 5.6599 4.7499
733.011 4.2999 4.3699 4.9699 6.1099 8.1199 11.3899 15.2899 17.6199 16.5099 13.1199
771.591 9.6499 6.9199 4.9399 3.5899 2.7899 2.4199 2.4299 3.0699 4.1499 5.5799
810.170 6.4699 5.3899 3.5999 2.2099 1.2899 0.9619 0.8536 0.8186 0.7968 0.7371
848.750 0.6696 0.6876 0.741 0.7969 0.9123 1.0841 1.1799 1.1999 1.1299 1.0643
887.330 1.0014 1.0367 1.2099 1.5099 2.0699 2.7599 3.2299 3.1699 2.6599 2.2399
925.909 2.2599 2.3799 2.3799 2.1799 1.8799 2.0499 2.9499 4.8299 7.5899 9.6399
964.489 9.5099 7.1699 4.1299 2.2899 1.6599 1.4799 1.5399 1.7599 2.0899 2.3599
1003.068 2.4699 2.4699 2.6899 3.3599 4.4299 5.4799 6.0699 6.2899 6.5199 7.1399
1041.648 7.5699 7.1799 6.0199 4.7599 3.9899 3.7599 3.8099 3.7199 3.2499 2.6499
1080.227 2.1799 1.9199 2.0999 2.6499 3.3299 3.7699 3.5999 2.8099 1.8299 1.2399
1118.807 1.0621 1.0451 1.2899 2.1199 3.4999 4.8699 5.4299 4.6799 3.1399 1.8799
1157.387 1.2499 0.9609 0.8033 0.8363 0.9936 1.1099 1.0497 0.8397 0.6256 0.4994
1195.966 0.4571 0.4627 0.4745 0.5051 0.5932 0.7532 0.9956 1.3199 1.7599 2.0899
1234.546 2.1099 1.8699 1.5699 1.2299 0.972 0.8922 0.8115 0.7169 0.7161 0.7331
1273.125 0.7612 0.8583 1.0113 1.2399 1.4799 1.5999 1.5699 1.4299 1.2799 1.2099
1311.705 1.1899 1.1899 1.1799 1.1499 1.1599 1.2299 1.3699 1.7299 2.4799 3.6399
1350.284 4.7699 5.2299 4.6999 3.4599 2.3199 1.7199 1.4499 1.2999 1.1899 1.1199
1388.864 1.1099 1.1999 1.3899 1.7099 2.2299 3.1099 4.5299 6.4299 8.2799 9.1399
1427.443 8.5399 7.0699 5.8599 5.4899 5.4599 5.0799 4.3299 3.5599 3.1599 3.2299
1466.023 3.5299 3.8499 4.1199 4.5199 5.2599 6.3199 7.2899 7.9799 8.8899 10.3299
1504.603 11.0999 9.9899 7.0999 3.9499 2.2199 1.6799 1.5199 1.4499 1.3899 1.2999
1543.182 1.2599 1.3899 1.5999 1.8699 2.1699 2.4199 2.5499 2.6199 2.7899 3.0399
1581.762 3.3299 3.7199 4.3799 5.5299 7.0099 8.3099 8.8899 8.6399 7.9099 6.8299
1620.341 5.5399 4.1199 2.7999 1.8999 1.3599 1.0834 0.9227 0.8217 0.7532 0.7253
1658.921 0.7365 0.7525 0.7629 0.7745 0.7835 0.7487 0.6544 0.5716 0.5107 0.4149
1697.500 0.335 0.3292 0.3646 0.4104 0.4297 0.4285 0.4793 0.5433 0.5779 0.5814
1736.080 0.6604 0.7671 0.834 0.8411 0.785 0.7011 0.5947 0.5153 0.4784 0.4872
1774.659 0.5175 0.5435 0.5809 0.6972 0.898 1.1599 1.3299 1.2999 1.1499 0.9688
1813.239 0.8497 0.813 0.7536 0.6414 0.5317 0.4423 0.3908 0.3719 0.3635 0.4061
1851.819 0.474 0.5214 0.5931 0.7199 0.8707 1.0349 1.1699 1.2399 1.2699 1.2399
1890.398 1.1499 0.9813 0.7617 0.593 0.5109 0.4697 0.4569 0.4818 0.5622 0.6784
1928.978 0.804 0.9823 1.1899 1.3499 1.4199 1.4099 1.3499 1.2599 1.0999 0.8471
1967.557 0.595 0.4253 0.353 0.3067 0.29 0.2727 0.2471 0.2418 0.2321 0.2195
2006.137 0.2115 0.22 0.2244 0.211 0.2029 0.2158 0.2248 0.2167 0.2045 0.1962
2044.716 0.1977 0.2079 0.2096 0.2108 0.1986 0.17372 0.15933 0.16063 0.16401 0.16196
2083.296 0.15325 0.1494 0.15107 0.13155 0.1195 0.12919 0.154 0.16367 0.15495 0.14613
2121.875 0.14901 0.16596 0.16582 0.16685 0.17324 0.18273 0.18095 0.18084 0.1978 0.1908
2160.455 0.18774 0.2153 0.2342 0.238 0.2321 0.2301 0.2404 0.246 0.2264 0.2251
2199.035 0.2275 0.2115 0.1966 0.1881 0.18911 0.18711 0.1964 0.2093 0.201 0.2144
2237.614 0.2548 0.2639 0.2544 0.2581 0.2484 0.2452 0.2804 0.2566 0.2198 0.2388
2276.194 0.2842 0.2995 0.2921 0.3022 0.2895 0.2786 0.2736 0.3023 0.362 0.4103
2314.773 0.4452 0.4259 0.3807 0.3623 0.3678 0.388 0.3979 0.377 0.3413 0.3317
2353.353 0.3341 0.3411 0.3518 0.3652 0.3855 0.3688 0.3492 0.3478 0.3386 0.3327
2391.932 0.334 0.315 0.3104 0.3273 0.3363 0.343 0.3335 0.3525 0.3833 0.3826
2430.512 0.3759 0.376 0.3833 0.3718 0.3662 0.3839 0.3779 0.3749 0.377 0.3578
2469.092 0.3347 0.342 0.3607 0.3427 0.358 0.3975 0.4186 0.4351 0.455 0.4781
2507.671 0.4846 0.5113 0.5505 0.5389 0.4889 0.4702 0.4343 0.3868 0.3738 0.3686
2546.251 0.3679 0.3707 0.3983 0.4367 0.4626 0.4624 0.4468 0.4126 0.3678 0.3381
2584.830 0.2983 0.2644 0.2696 0.3024 0.331 0.3293 0.3181 0.2969 0.2566 0.2502
2623.410 0.273 0.2749 0.2611 0.2636 0.2895 0.2985 0.2993 0.3367 0.3619 0.3189
2661.989 0.3029 0.3179 0.3159 0.312 0.3061 0.2983 0.3022 0.2931 0.2932 0.3204
2700.569 0.3257 0.3377 0.3253 0.3211 0.3168 0.2699 0.2559 0.2801 0.2754 0.2498
2739.148 0.2585 0.2911 0.3071 0.3222 0.3207 0.2999 0.3071 0.3216 0.3389 0.3417
2777.728 0.3312 0.3196 0.2969 0.2534 0.2316 0.2371 0.233 0.235 0.2441 0.2559
2816.308 0.2798 0.315 0.3164 0.3104 0.3407 0.3658 0.3739 0.3863 0.3724 0.3658
2854.887 0.3895 0.4153 0.4257 0.4202 0.4193 0.4415 0.4744 0.502 0.5029 0.4993
2893.467 0.5087 0.4983 0.4913 0.4831 0.4836 0.4867 0.4781 0.5066 0.5199 0.495
2932.046 0.4942 0.5306 0.5554 0.5591 0.5578 0.556 0.5822 0.5717 0.5553 0.5786
2970.626 0.6305 0.6933 0.7516 0.8066 0.8807 1.0082 1.1899 1.4199 1.6399 1.8999
3009.205 2.2599 2.7099 3.2899 4.0199 4.9399 5.8699 6.6599 7.1799 7.4699 7.6999
3047.785 8.0499 8.8699 10.3199 12.3299 14.5199 15.9699 15.8499 14.2299 11.9099 9.9299
3086.364 8.5499 7.3699 6.1999 5.1099 4.1599 3.4299 2.9499 2.6399 2.5799 2.5999
3124.944 2.3999 1.9599 1.3699 0.9319 0.7557 0.6836 0.6229 0.5792 0.5452 0.4686
3163.524 0.4097 0.3872 0.3457 0.3279 0.3033 0.255 0.2496 0.2324 0.2166 0.2281
3202.103 0.2038 0.1986 0.2163 0.18383 0.18127 0.17116 0.16568 0.17588 0.15992 0.13843
3240.683 0.13329 0.16132 0.1701 0.18912 0.17958 0.1472 0.15263 0.15767 0.16759 0.17237
3279.262 0.1956 0.2008 0.1651 0.151 0.14328 0.14042 0.15877 0.16608 0.16533 0.17014
3317.842 0.14941 0.13451 0.12909 0.14099 0.194 0.2197 0.18613 0.14457 0.15068 0.15298
3356.421 0.16309 0.2096 0.201 0.192 0.2162 0.1918 0.18528 0.2084 0.2163 0.2306
3395.001 0.2253 0.2272 0.2026 0.1618 0.1788 0.2259 0.2647 0.276 0.3062 0.3389
3433.580 0.3951 0.4964 0.603 0.6947 0.8438 1.0546 1.2999 1.5999 2.0299 2.6699
3472.160 3.5699 4.8399 6.7499 9.5599 13.3699 16.4399 16.2299 12.5099 7.2899 3.5099
3510.740 1.8799 1.2099 0.8637 0.591 0.4584 0.4079 0.3417 0.3157 0.3196 0.2771
3549.319 0.2052 0.1949 0.17041 0.13508 0.11341 0.12991 0.18697 0.171 0.17222 0.16302
3587.899 0.11059 0.12163 0.15495 0.18046 0.18275 0.14317 0.14002 0.16056 0.13324 0.13595
3626.478 0.11911 0.10698 0.18333 0.2341 0.2306 0.17923 0.11558 0.12007 0.18439 0.2249
3665.058 0.2298 0.2069 0.17336 0.16921 0.18875 0.1916 0.2036 0.2393 0.2905 0.2736
3703.637 0.2045 0.2046 0.17842 0.15594 0.14375 0.15448 0.1905 0.2126 0.2207 0.2162
3742.217 0.16956 0.14086 0.18687 0.1927 0.17548 0.16732 0.1899 0.223 0.2153 0.2023
3780.797 0.17391 0.15358 0.15379 0.13506 0.14703 0.17547 0.18964 0.16061 0.12012 0.12405
3819.376 0.14244 0.16421 0.18167 0.13144 0.08265 0.11938 0.15041 0.14616 0.0669 0
3857.956 0.0842 0.15064 0.14672 0.11268 0.099635 0.10251 0.08155 0.094061 0.11191 0.13374
3896.535 0.13565 0.10161 0.12913 0.14606 0.13343 0.13057 0.13327 0.15789 0.13847 0.1423
3935.115 0.13413 0.13329 0.17177 0.15901 0.17345 0.2295 0.2176 0.17965 0.1986 0.2198
3973.694 0.2385 0.2052 0.2117 0.2083 0.18779 0.2394 0.2887 0.2956
##END=
