##TITLE=2-Methyl-4-phenyl-1-butene
##JCAMP-DX=4.24
##DATA TYPE=INFRARED SPECTRUM
##ORIGIN=NIST Mass Spectrometry Data Center
##OWNER=NIST Standard Reference Data Program
Collection (C) 2018 copyright by the U.S. Secretary of Commerce
on behalf of the United States of America. All rights reserved.
##CAS REGISTRY NO=6683-51-8
##MOLFORM=C 11 H 14
##$NIST SOURCE=MSDC-IR
##SPECTROMETER/DATA SYSTEM=HP-GC/MS/IRD
##STATE=gas
##XUNITS=1/CM
##YUNITS=ABSORBANCE
##XFACTOR=1.0
##YFACTOR=0.000001900
##DELTAX=4.0
##FIRSTX=550.0
##LASTX=3846.0
##FIRSTY=0.001205
##MAXX=3846
##MINX=550
##MAXY=0.019
##MINY=0
##NPOINTS=825
##XYDATA=(X++(Y..Y))
550.0 634 531 564 726 798 845 875 773 592 425
590.0 337 264 176 107 41 24 44 60 43 38
630.0 26 1 37 75 127 200 286 418 615 879
670.0 1213 1661 2278 3151 4275 5494 6570 7011 6666 5920
710.0 5077 4379 3953 3780 3818 3972 4131 4180 4071 3786
750.0 3344 2903 2514 2163 1820 1456 1100 820 612 438
790.0 340 294 250 213 198 199 202 219 235 231
830.0 235 260 299 350 423 519 644 812 1046 1402
870.0 1925 2667 3661 4862 5979 6595 6427 5563 4376 3223
910.0 2329 1724 1299 1002 803 651 552 478 409 360
950.0 322 295 287 284 269 268 274 274 260 250
990.0 258 282 301 316 345 391 474 654 960 1243
1030.0 1311 1221 961 626 451 387 396 462 541 629
1070.0 696 715 688 601 501 407 323 262 212 168
1110.0 165 149 100 80 85 81 82 92 126 155
1150.0 160 179 180 199 211 194 191 197 220 257
1190.0 290 311 331 347 338 346 371 400 425 429
1230.0 427 425 421 411 409 423 451 495 544 600
1270.0 659 706 699 666 628 578 552 522 493 471
1310.0 457 449 451 468 494 550 619 666 692 699
1350.0 714 740 794 930 1161 1488 1819 2006 2001 1748
1390.0 1375 1088 935 886 893 938 1014 1117 1276 1505
1430.0 1810 2206 2693 3212 3667 3938 3944 3681 3221 2670
1470.0 2168 1814 1698 1844 2327 3001 3428 3394 2901 2011
1510.0 1179 748 559 481 457 443 417 389 377 374
1550.0 380 389 404 453 511 596 713 877 1082 1294
1590.0 1548 1847 2141 2300 2227 1963 1606 1346 1295 1403
1630.0 1630 1955 2337 2687 2889 2850 2545 2084 1574 1150
1670.0 843 619 469 360 290 257 216 173 164 169
1710.0 168 168 170 187 202 200 188 189 187 182
1750.0 185 190 197 229 282 348 442 558 696 834
1790.0 909 889 796 642 489 376 306 250 211 187
1830.0 173 171 184 202 229 262 284 295 300 305
1870.0 305 289 257 214 177 141 108 93 93 113
1910.0 138 168 208 263 325 379 410 437 465 473
1950.0 441 358 260 163 87 54 50 39 24 24
1990.0 22 22 25 20 14 14 23 25 26 23
2030.0 16 16 21 22 22 19 3 1 10 6
2070.0 3 9 17 18 15 13 12 16 14 10
2110.0 16 12 8 6 12 24 22 20 17 10
2150.0 9 11 4 4 9 5 14 18 13 11
2190.0 11 12 12 18 19 17 19 13 13 8
2230.0 1 8 8 9 8 10 14 15 24 22
2270.0 12 11 16 21 21 28 35 36 38 52
2310.0 68 70 71 64 58 47 42 41 38 48
2350.0 48 27 14 11 12 21 29 24 13 18
2390.0 28 28 22 26 32 31 28 31 33 26
2430.0 26 29 23 18 21 23 15 19 22 17
2470.0 15 17 15 14 21 20 16 16 13 6
2510.0 12 24 20 15 10 4 0 6 7 10
2550.0 21 28 21 20 32 34 37 47 56 61
2590.0 57 61 65 71 79 70 64 67 71 76
2630.0 78 73 63 66 78 85 89 85 90 91
2670.0 92 98 92 91 100 100 92 93 94 105
2710.0 113 110 121 131 150 177 196 206 205 203
2750.0 202 182 170 183 205 228 250 282 314 351
2790.0 379 406 428 451 491 530 577 655 760 874
2830.0 1033 1247 1499 1829 2233 2668 3109 3516 3813 3942
2870.0 3923 3802 3672 3613 3682 3887 4224 4677 5206 5773
2910.0 6371 6956 7549 8139 8687 9207 9671 9978 10000 9620
2950.0 8812 7722 6603 5764 5428 5627 5983 6032 5730 4988
2990.0 4140 3634 3376 3274 3278 3413 3726 4266 5112 6096
3030.0 6859 7058 6651 5785 4844 4336 4420 5063 6217 7469
3070.0 8426 9048 8932 8132 7138 5920 4717 3759 2972 2350
3110.0 1884 1503 1158 866 646 496 400 343 292 252
3150.0 236 227 218 216 189 155 136 119 97 82
3190.0 76 66 61 58 51 36 43 47 29 26
3230.0 20 27 39 31 21 19 27 33 32 28
3270.0 39 39 35 50 59 47 41 56 58 43
3310.0 31 26 43 49 37 26 19 27 21 23
3350.0 24 23 27 25 23 33 34 28 31 21
3390.0 23 26 22 20 2 6 25 27 15 24
3430.0 33 23 23 34 36 29 25 22 20 25
3470.0 38 37 25 19 27 40 40 30 44 61
3510.0 49 52 50 18 18 39 48 50 44 31
3550.0 23 29 30 27 26 31 39 42 38 33
3590.0 27 21 31 36 47 57 51 53 48 43
3630.0 50 50 58 77 69 65 86 95 80 59
3670.0 55 53 53 68 55 41 60 66 70 57
3710.0 38 50 67 63 50 51 55 56 34 33
3750.0 41 44 60 64 73 77 76 81 83 85
3790.0 80 77 73 70 83 99 88 73 80 79
3830.0 74 79 72 70 81
##END=
