##TITLE=Benzyl 2-chloroethyl sulphone
##JCAMP-DX=4.24
##DATA TYPE=INFRARED SPECTRUM
##ORIGIN=EPA-IR VAPOR PHASE LIBRARY
##OWNER=SRD/NIST
Collection (C) 2018 copyright by the U.S. Secretary of Commerce
on behalf of the United States of America. All rights reserved.
##CAS REGISTRY NO=66998-67-2
##MOLFORM=C 9 H 11 Cl O 2 S
##$NIST SOURCE=MSDC-IR
##STATE=gas
##XUNITS=1/CM
##YUNITS=ABSORBANCE
##XFACTOR=1.
##YFACTOR=0.001
##DELTAX=1.92898
##FIRSTX=549.8
##LASTX=4000.7
##FIRSTY=2.746
##MAXX=4000.7
##MINX=549.759
##MAXY=0.036876
##MINY=0
##NPOINTS=1790
##XYDATA=(X++(Y..Y))
549.759 2.746 2.176 1.8776 2.126 1.7529 1.4689 1.9072 2.486 2.136 1.8291
569.049 2.016 2.636 2.586 1.9162 1.996 2.536 2.916 3.006 3.266 3.206
588.339 3.086 3.186 3.116 3.726 3.436 2.216 2.296 2.796 2.716 2.226
607.628 1.8574 1.9481 2.376 2.576 2.386 2.236 2.176 2.076 2.256 2.616
626.918 2.576 2.516 3.176 3.596 3.386 3.276 3.406 2.926 2.456 2.956
646.208 3.116 2.496 2.026 2.206 2.446 2.626 2.606 2.456 2.806 3.066
665.498 3.736 3.886 3.626 3.826 4.226 4.446 4.206 4.456 4.776 4.766
684.787 5.396 6.396 7.366 8.446 9.196 9.946 11.156 11.296 10.786 10.076
704.077 8.726 7.586 6.246 5.226 4.816 4.066 4.106 4.336 4.176 4.506
723.367 4.516 4.146 4.086 4.396 4.636 4.136 3.456 3.766 3.966 3.976
742.657 4.526 4.436 4.326 4.656 4.656 4.596 4.136 4.496 5.176 5.146
761.947 5.326 5.766 6.116 6.386 6.426 6.326 6.176 6.716 6.976 6.766
781.236 7.116 6.816 6.666 6.926 6.776 6.616 6.106 5.496 5.186 4.946
800.526 4.756 4.326 4.156 4.336 4.116 3.806 3.426 3.326 3.606 3.706
819.816 3.866 3.206 2.246 3.206 3.786 3.226 3.166 3.216 2.956 2.986
839.106 3.246 2.906 2.676 2.536 2.716 2.666 2.596 3.006 2.976 2.976
858.395 3.256 3.536 3.896 3.946 4.576 5.076 4.966 5.666 5.916 5.756
877.685 5.886 5.616 5.126 4.686 4.166 4.076 3.876 3.296 2.966 2.826
896.975 2.746 2.606 2.786 2.916 2.756 2.636 2.526 2.916 3.336 3.326
916.265 3.306 2.936 2.986 3.126 2.476 1.7291 1.2985 1.5689 1.9475 1.7567
935.555 1.5966 1.6163 1.7298 1.3148 1.3348 1.7993 1.7187 1.4031 1.0814 1.2182
954.844 1.6817 1.986 2.146 2.006 2.276 2.476 2.466 2.706 2.386 2.376
974.134 2.666 2.546 2.226 2.036 1.8666 1.8876 2.106 2.226 2.436 2.216
993.424 1.8618 1.9014 1.9437 2.026 1.7697 1.5785 1.996 2.056 1.986 2.066
1012.714 1.9417 2.036 2.546 3.006 2.736 2.706 3.946 4.366 4.426 4.956
1032.003 4.156 3.286 3.426 3.386 2.966 2.706 2.636 2.646 2.296 1.5296
1051.293 1.6025 1.9163 1.5903 1.4906 1.7393 1.986 1.4206 1.1313 2.066 2.296
1070.583 2.276 1.996 1.1887 1.3786 1.6769 1.8894 1.6564 1.956 2.616 2.036
1089.873 1.0671 0.478 1.1746 2.806 2.616 1.6954 1.8362 2.296 3.316 4.896
1109.163 6.356 6.966 7.606 9.546 11.026 11.896 13.236 15.066 16.806 17.096
1128.452 16.336 14.866 14.556 14.336 12.706 12.246 12.966 13.896 15.296 16.516
1147.742 17.936 18.996 18.446 17.396 15.826 13.396 11.576 10.926 9.766 7.936
1167.032 6.876 6.056 5.056 4.146 3.746 4.306 4.806 4.156 4.016 4.596
1186.322 5.866 6.966 5.756 6.326 6.746 5.966 6.146 6.316 5.596 5.926
1205.611 6.706 6.166 6.286 5.086 4.756 5.066 5.386 6.556 6.596 5.846
1224.901 4.206 4.176 3.936 3.166 4.326 4.306 3.936 4.686 5.176 5.226
1244.191 5.146 5.076 4.926 4.736 4.846 5.406 5.756 5.626 5.776 5.816
1263.481 6.106 6.196 5.446 4.856 4.786 4.626 4.236 3.976 4.126 4.356
1282.771 4.246 4.416 4.746 4.816 4.796 5.176 5.846 6.296 6.656 6.976
1302.060 7.146 7.436 7.476 7.146 6.816 6.486 6.116 5.776 5.586 5.656
1321.350 5.796 6.016 6.446 7.186 8.416 9.746 11.366 13.696 16.566 20.216
1340.640 24.306 28.366 32.286 35.276 36.876 36.586 34.196 30.346 25.606 20.826
1359.930 16.256 12.326 9.466 7.446 5.946 4.906 4.266 3.756 3.496 3.276
1379.219 3.066 3.006 2.946 2.966 2.896 2.946 2.966 2.796 2.836 2.976
1398.509 3.216 3.396 3.536 3.896 4.006 4.026 4.126 4.126 3.996 3.726
1417.799 3.666 3.506 3.206 2.886 2.616 2.476 2.496 2.546 2.296 2.156
1437.089 2.316 2.516 2.516 2.526 2.666 2.816 3.006 3.306 3.526 3.686
1456.378 3.516 3.216 3.136 2.926 2.656 2.376 2.326 2.196 1.9313 1.8628
1475.668 1.996 2.006 1.9257 2.016 2.316 2.436 2.536 3.146 3.596 3.656
1494.958 3.626 3.826 3.916 3.806 3.436 2.966 2.706 2.306 1.8993 1.6545
1514.248 1.5794 1.4795 1.4293 1.4542 1.4133 1.3936 1.2767 1.2474 1.4884 1.4428
1533.538 1.2818 1.4353 1.6558 1.5598 1.3871 1.3732 1.1773 1.1181 1.302 1.4043
1552.827 1.4379 1.3522 1.03745 0.97034 1.2068 1.1504 1.2192 1.5158 1.5472 1.4637
1572.117 1.3306 1.3787 1.4894 1.4698 1.6728 1.7888 1.6687 1.5783 1.5142 1.6249
1591.407 1.9115 1.8106 1.6502 1.7789 1.976 2.156 2.186 2.136 2.006 2.026
1610.697 1.8231 1.5535 1.4236 1.2751 1.3212 1.3379 1.3507 1.2417 1.3086 1.4459
1629.986 1.2515 1.1101 1.151 1.496 1.4615 1.2443 1.2515 1.1758 1.1022 1.2892
1649.276 1.5806 1.5301 1.2514 1.2098 1.3931 1.4676 1.3488 1.3782 1.4656 1.4581
1668.566 1.41 1.4129 1.2822 1.2418 1.5632 1.5304 1.3149 1.393 1.3735 1.2273
1687.856 1.3745 1.3945 1.3156 1.3671 1.4168 1.362 1.2185 1.2459 1.5181 1.4156
1707.146 1.1672 1.3341 1.3554 1.1298 1.1488 1.2691 1.2903 1.2519 1.1891 1.2267
1726.435 1.3187 1.1848 1.1853 1.1783 1.1692 1.3303 1.3279 1.3878 1.4256 1.3557
1745.725 1.3499 1.3633 1.2343 1.2342 1.3729 1.5401 1.5085 1.3062 1.4414 1.68
1765.015 1.4739 1.1994 1.2757 1.2945 1.2326 1.409 1.5413 1.4383 1.3736 1.2606
1784.305 1.2716 1.3314 1.4291 1.5753 1.5145 1.4566 1.487 1.5197 1.5277 1.4398
1803.594 1.2763 1.209 1.3596 1.4405 1.424 1.4271 1.3164 1.2535 1.309 1.4231
1822.884 1.3683 1.197 1.1842 1.2416 1.1572 1.216 1.2863 1.3126 1.2452 1.2975
1842.174 1.3942 1.308 1.3006 1.1536 1.0762 1.2398 1.2529 1.2216 1.3257 1.2574
1861.464 1.4318 1.487 1.3287 1.2862 1.3327 1.4376 1.3937 1.327 1.3111 1.3765
1880.754 1.3361 1.4183 1.5746 1.4766 1.2906 1.3246 1.4931 1.5719 1.5421 1.5521
1900.043 1.5561 1.3581 1.3522 1.5523 1.4059 1.3384 1.4805 1.3974 1.3245 1.3831
1919.333 1.4642 1.4165 1.3405 1.351 1.2786 1.2779 1.3377 1.2301 1.2792 1.4134
1938.623 1.451 1.6032 1.5055 1.5112 1.6524 1.4992 1.4471 1.4735 1.4496 1.4046
1957.913 1.4645 1.5757 1.5019 1.5448 1.4687 1.2884 1.3369 1.3937 1.4912 1.5116
1977.202 1.4382 1.3391 1.2842 1.2304 1.1703 1.1738 1.1738 1.1882 1.146 1.04815
1996.492 0.97321 0.98154 1.1085 1.2225 1.1012 1.0814 1.1129 1.02791 1.1278 1.2524
2015.782 1.2014 1.251 1.2851 1.2561 1.1129 0.98805 1.191 1.1578 0.97263 0.97676
2035.072 1.0719 1.04593 1.0906 1.0845 1.04613 1.1553 1.1255 1.01692 1.0711 0.9256
2054.362 0.839 1.03708 1.1107 1.1801 1.0215 0.9383 0.97447 0.97196 1.03023 1.0309
2073.651 0.95949 1.03059 1.1644 1.0566 0.97886 0.95256 0.9435 0.99147 1.02011 1.04921
2092.941 1.0894 1.01322 0.95327 1.1523 1.2441 1.2343 1.05589 1.0088 1.1005 0.934
2112.231 0.97646 1.062 1.0086 0.9192 0.96869 1.0963 1.0777 0.97699 0.97753 0.99697
2131.521 0.95421 0.99378 1.1716 1.1228 0.9975 1.1232 1.02106 0.784 0.9009 1.05518
2150.810 1.03362 1.0821 1.083 1.1061 1.1693 1.0979 1.04644 1.1121 1.1148 1.0745
2170.100 1.1383 1.1198 1.00945 0.94727 0.843 0.793 0.8755 0.959667 1.03193 0.95155
2189.390 0.8685 0.9276 1.1528 1.1025 0.8849 0.821 0.713 0.759 0.9441 1.02788
2208.680 1.0867 0.99096 0.843 0.99432 0.9072 0.805 1.01148 1.1054 1.0573 1.1227
2227.970 1.1786 0.99314 0.9108 1.0145 0.961134 1.0964 1.3376 1.3045 1.1411 1.0679
2247.259 1.1527 1.0833 1.1838 1.3035 1.02617 0.97465 1.2022 1.2063 1.1078 1.1241
2266.549 1.0941 1.1477 1.2583 1.1593 1.1665 1.1916 1.147 1.1209 0.99003 1.02427
2285.839 1.0791 1.00275 1.03257 1.085 1.1812 1.1962 0.95361 0.8796 1.04284 1.2129
2305.129 1.1407 1.01577 1.01647 1.1517 1.1048 0.9309 0.99034 1.01497 1.119 1.2324
2324.418 1.03929 1.03166 1.2493 1.1613 1.1761 1.03372 0.757 0.673 0.763 0.98675
2343.708 1.1846 1.2479 1.2125 1.04855 1.02051 1.2278 1.0645 0.82 0.98362 1.2057
2362.998 1.1645 0.95704 0.8896 1.2147 1.266 1.1158 1.0846 1.1142 1.1348 0.960253
2382.288 0.752 0.685 0.739 0.855 0.986 0.98655 0.834 0.8621 1.0426 1.02457
2401.578 0.99382 1.1784 1.1259 0.9061 0.9079 0.85 0.718 0.647 0.831 0.85
2420.867 0.686 1.0608 1.1898 1.01967 0.9022 0.799 0.816 0.95498 1.1698 1.0737
2440.157 1.0923 1.2595 1.2538 1.2632 1.2373 1.2875 1.1807 0.9357 0.98707 0.957231
2459.447 1.03647 1.1984 1.1975 1.1209 0.9396 0.9176 0.8914 0.95209 0.827 0.633
2478.737 0.821 1.0192 0.96792 0.94949 1.03485 0.823 0.8825 1.05387 0.99711 0.9257
2498.026 1.2804 1.3321 1.02833 1.03462 0.9231 0.9077 0.9393 0.855 0.865 0.99216
2517.316 0.98323 1.1081 1.1763 1.03953 1.03403 1.1248 1.0665 0.94878 0.9256 0.98923
2536.606 1.0658 1.00683 0.844 0.825 0.8933 0.717 0.613 0.77 0.94858 1.1028
2555.896 1.0184 0.732 0.775 0.81 0.681 0.8996 0.9438 0.8767 0.9308 1.01558
2575.186 1.1463 1.2006 0.9006 0.695 0.8876 0.827 0.9423 1.1616 1.1135 1.2109
2594.475 1.2997 1.3184 1.1189 0.9068 1.0788 1.1287 1.072 1.03238 0.9246 0.744
2613.765 0.852 1.1931 1.03742 0.67 0.787 1.01123 1.0011 0.729 0.723 0.661
2633.055 0.641 0.776 0.695 0.832 0.8597 0.8875 1.03242 0.95452 0.9082 1.2078
2652.345 1.0461 0.601 0.725 0.8766 0.787 0.661 0.591 0.718 0.96711 0.94636
2671.634 0.7 0.745 0.8651 0.97275 0.9348 0.877 0.956579 0.9412 0.8575 0.965888
2690.924 1.1371 0.9133 0.549 0.818 1.2012 0.95363 0.93 1.1928 0.8686 0.559
2710.214 0.747 0.852 0.8679 0.9356 0.799 0.404 0.552 0.8595 0.9391 0.8741
2729.504 0.652 0.837 1.01928 1.0598 1.1189 0.9191 0.656 0.65 0.699 0.825
2748.794 1.02037 1.188 0.96759 0.9195 1.1721 0.97128 0.85 1.1099 1.1557 0.8623
2768.083 0.9374 1.1075 1.00205 1.00417 1.04765 1.03726 1.04806 1.03521 0.8769 0.751
2787.373 0.729 0.817 0.98745 0.71 0.736 1.1944 1.1743 0.9405 0.809 0.814
2806.663 0.798 0.8764 0.955339 0.9028 1.03344 1.02638 0.9096 0.9029 0.967 1.02473
2825.953 0.96635 0.97291 1.1259 1.3186 1.3547 1.1078 0.719 0.756 1.0805 0.9213
2845.242 0.768 0.8875 0.472 0.431 0.844 0.9145 1.03239 1.01122 0.821 0.784
2864.532 1.0604 1.2616 1.087 1.02955 1.1144 0.98189 1.02248 1.1138 0.9052 0.99743
2883.822 1.0846 0.831 0.776 0.8946 0.9319 1.1176 1.3834 1.286 1.2079 1.312
2903.112 1.2483 0.8817 0.769 0.9013 0.797 0.847 1.2071 1.4166 1.6448 1.6902
2922.401 1.4214 1.4546 1.7722 1.937 2.086 2.136 2.146 2.466 2.496 2.126
2941.691 1.9308 1.7686 1.5536 1.584 1.4617 1.54 1.4778 1.3896 1.7068 1.7243
2960.981 1.6391 1.5502 1.5886 1.7042 1.6918 1.9146 2.246 2.106 1.6007 1.5015
2980.271 1.6269 1.5436 1.4538 1.2305 1.1945 1.3749 1.4233 1.1739 0.8912 1.3498
2999.561 1.4442 1.4464 1.5246 1.152 1.1162 1.1384 1.4564 1.996 2.046 2.156
3018.850 2.426 2.386 2.046 1.891 2.106 2.696 3.496 3.786 3.716 3.586
3038.140 3.856 3.736 3.486 3.466 3.146 3.126 2.956 2.536 2.446 2.316
3057.430 2.266 2.876 3.186 3.306 3.546 3.796 4.086 4.146 4.536 4.606
3076.720 4.596 4.636 4.336 3.916 3.266 3.096 3.006 3.086 3.076 2.596
3096.009 2.666 2.746 2.466 2.286 2.286 2.306 2.196 1.8903 1.3746 1.3903
3115.299 1.4593 1.3453 1.4508 1.5797 1.6209 1.2361 1.0641 1.3408 1.4237 1.2673
3134.589 1.3782 1.01861 0.743 0.781 0.786 1.3279 1.3579 1.0641 1.04681 1.0484
3153.879 0.96032 0.98858 0.9193 0.768 1.1656 1.4293 0.9005 0.411 0.777 1.1697
3173.169 0.97351 0.99882 0.9123 0.521 0.627 1.3096 1.3407 1.3025 1.4522 1.3314
3192.458 1.2277 1.4395 1.2871 0.97656 1.0848 0.9753 0.717 0.347 0.508 0.795
3211.748 1.0592 1.2746 0.8749 0.965003 1.1689 0.776 0.444 0.418 0.384 0
3231.038 0.172 0.533 0.585 0.759 0.823 1.2391 1.3329 0.962869 0.9303 0.888
3250.328 0.95446 1.1395 1.03705 0.95316 1.1095 1.2736 0.917 0.8781 1.1607 0.9135
3269.617 0.98645 1.3709 1.4531 1.3077 1.2146 0.688 0.554 0.717 0.407 0.477
3288.907 0.769 0.801 0.496 1.1049 1.6634 1.1679 0.844 0.695 1.127 1.1878
3308.197 1.0954 1.1709 1.04898 1.4007 1.471 1.3054 1.1546 1.0604 1.5831 1.5401
3327.487 1.03114 0.99674 1.2655 1.5334 1.3024 0.8941 0.847 0.9421 0.799 0.715
3346.777 0.9284 1.064 1.2144 1.0783 1.0607 1.4187 1.1372 0.416 0.231 0.761
3366.066 1.231 1.2711 1.2582 1.1167 0.759 0.732 0.849 0.8917 1.1328 0.784
3385.356 0.785 1.03841 0.747 0.699 0.901 0.8677 0.459 0.2 0.792 1.3841
3404.646 1.3619 1.2565 0.98442 0.728 0.765 1.144 1.1616 1.03964 1.03652 1.01568
3423.936 1.0013 1.0758 1.03457 1.1291 1.1863 1.1447 0.99817 0.626 0.556 0.801
3443.225 0.9364 1.1077 1.01503 0.515 0.8685 1.2894 1.3824 1.25 1.1975 1.3349
3462.515 1.1939 1.1097 1.428 1.8336 1.6619 1.3329 1.2945 1.2681 1.04143 0.797
3481.805 1.01252 1.4439 1.4323 1.1696 0.9082 1.2018 1.3825 1.1682 1.1095 1.2562
3501.095 1.1517 0.832 0.556 0.705 1.02667 0.9342 0.9403 1.0294 1.03901 1.1234
3520.385 1.2957 1.00866 0.728 0.99299 1.1815 0.841 0.771 0.957922 1.2058 1.403
3539.674 1.3289 1.2322 1.04946 0.649 0.663 0.9112 0.618 0.811 1.4393 1.2461
3558.964 0.799 1.1953 1.6864 1.7022 0.99561 1.04955 1.5128 1.1072 1.192 1.2151
3578.254 1.2672 1.4302 1.2948 1.1737 1.3594 1.3836 1.4332 1.3047 0.8772 0.691
3597.544 0.744 0.8904 0.97041 1.4784 1.3943 1.0192 0.833 0.806 0.95075 1.1168
3616.833 1.2451 1.2005 1.4195 1.6377 1.4483 0.98995 0.94 1.1467 0.9456 0.97044
3636.123 1.2423 1.1264 0.834 1.2231 1.102 0.538 0.9271 1.2281 1.2111 1.03661
3655.413 1.0759 1.3489 1.3377 1.5778 1.3446 1.01138 1.0927 0.96596 0.827 0.825
3674.703 0.774 0.563 0.769 1.0417 0.642 0.34 0.504 0.481 0.369 0.745
3693.993 1.4112 1.1549 0.8669 1.2386 1.3682 0.803 0.416 0.521 0.676 1.072
3713.282 0.812 0.504 0.723 0.77 0.712 1.1716 1.6741 1.2764 1.2099 1.4035
3732.572 0.8763 0.629 0.842 0.99409 1.01711 0.672 0.584 0.814 0.8776 0.99663
3751.862 0.97015 0.828 0.8885 0.407 0.491 0.821 0.479 0.816 0.9366 0.691
3771.152 0.8695 1.02931 0.9206 1.3426 1.5115 1.3386 1.2697 1.1591 1.2649 1.1273
3790.441 0.99391 1.0726 0.8672 0.438 0.458 0.716 0.9897 1.4044 1.2526 1.03759
3809.731 1.2247 0.8902 0.727 0.8708 1.0746 1.3521 1.6622 1.2071 0.9928 1.0596
3829.021 0.8981 1.0956 1.1472 0.9024 0.844 1.04437 1.2945 1.4594 1.2323 1.3515
3848.311 1.04987 1.0595 0.8852 0.567 0.6 0.665 0.802 0.593 0.706 1.1902
3867.601 1.5407 1.02623 0.924 1.3499 1.4054 1.209 0.95051 0.786 0.8746 0.95355
3886.890 0.649 0.628 1.1124 1.2782 1.195 0.841 0.505 0.784 0.95063 0.718
3906.180 0.698 0.788 1.04749 1.1316 0.8862 0.797 0.674 0.655 0.838 0.9128
3925.470 0.777 1.0806 1.3969 1.4553 1.4786 1.1164 0.9118 0.9058 0.94613 0.9151
3944.760 0.788 1.05089 1.2197 1.05291 1.0672 1.04993 0.79 1.3519 1.5844 0.9301
3964.049 0.9697 1.1606 1.1196 1.2983 1.266 0.773 0.348 0.469 0.753 0.679
3983.339 0.488 0.206 0.187 0.5 0.8919 1.1908 1.2356 0.777 0.629 1.0713
##END=
