##TITLE=5-Methoxyanthranilic acid
##JCAMP-DX=4.24
##DATA TYPE=INFRARED SPECTRUM
##ORIGIN=EPA-IR VAPOR PHASE LIBRARY
##OWNER=SRD/NIST
Collection (C) 2018 copyright by the U.S. Secretary of Commerce
on behalf of the United States of America. All rights reserved.
##CAS REGISTRY NO=6705-03-9
##MOLFORM=C 8 H 9 N O 3
##$NIST SOURCE=MSDC-IR
##STATE=gas
##XUNITS=1/CM
##YUNITS=ABSORBANCE
##XFACTOR=1.
##YFACTOR=0.001
##DELTAX=1.92898
##FIRSTX=549.8
##LASTX=4000.7
##FIRSTY=8.738
##MAXX=4000.7
##MINX=549.759
##MAXY=0.064038
##MINY=0
##NPOINTS=1790
##XYDATA=(X++(Y..Y))
549.759 8.738 9.028 10.108 10.208 10.108 10.538 9.888 9.778 10.868 11.528
569.049 11.388 10.928 11.018 11.878 12.458 12.398 12.348 12.718 12.538 12.468
588.339 12.108 11.008 11.058 11.048 10.378 9.708 8.728 8.228 8.298 7.938
607.628 7.598 7.398 6.898 6.808 7.058 7.138 6.718 5.718 5.638 6.028
626.918 5.768 5.568 5.748 6.028 6.238 6.578 6.638 7.158 8.008 8.008
646.208 8.258 9.698 10.968 11.898 12.568 12.378 12.508 12.448 12.128 12.168
665.498 11.518 10.178 8.898 8.008 7.248 6.648 6.058 5.368 5.008 4.948
684.787 4.638 4.418 4.958 5.558 5.208 5.018 5.428 5.828 6.338 6.858
704.077 7.778 8.928 9.588 10.478 11.438 11.918 11.528 10.728 10.058 9.038
723.367 7.838 6.568 5.668 4.898 4.278 4.128 3.838 3.548 3.588 3.708
742.657 3.618 3.728 4.038 3.858 3.578 3.658 4.198 4.318 4.108 4.188
761.947 4.318 4.658 4.768 4.708 4.998 5.468 5.858 6.308 7.198 7.468
781.236 7.208 7.588 7.868 7.568 7.298 7.108 6.768 6.568 6.488 6.228
800.526 6.268 6.608 6.728 7.038 7.868 8.958 9.558 10.198 11.588 12.058
819.816 11.448 11.168 10.438 8.758 7.498 7.078 6.358 5.748 5.778 5.328
839.106 4.808 4.578 4.408 3.928 3.318 3.138 3.308 3.238 3.108 3.728
858.395 3.938 4.078 4.198 3.928 4.098 4.168 3.988 4.068 3.938 3.958
877.685 3.898 3.878 3.878 3.558 3.388 3.768 4.098 4.248 4.348 3.878
896.975 3.398 3.738 4.168 4.018 3.698 3.558 3.808 3.908 3.668 3.238
916.265 3.208 3.658 3.568 2.998 2.868 2.838 2.858 3.048 3.148 3.098
935.555 2.818 2.378 2.568 2.858 2.448 2.308 2.308 2.198 2.118 2.478
954.844 2.558 2.568 2.528 2.208 2.268 2.428 2.418 2.068 2.228 2.458
974.134 2.618 2.768 2.528 2.668 2.718 2.628 2.848 3.108 3.148 3.168
993.424 3.378 3.388 3.538 3.888 4.298 4.128 3.848 3.678 3.718 4.578
1012.714 4.558 5.018 6.408 6.668 6.468 7.438 8.538 9.728 11.258 12.598
1032.003 14.538 16.608 18.098 19.498 20.518 21.038 21.458 21.548 21.338 21.188
1051.293 20.908 19.318 17.498 16.368 15.678 15.068 14.748 14.888 14.728 14.858
1070.583 16.408 16.528 16.108 17.958 19.248 18.908 18.258 17.888 17.728 17.418
1089.873 16.528 14.598 13.328 13.508 12.818 11.098 9.718 8.438 7.978 7.828
1109.163 6.828 7.768 9.298 8.248 7.218 7.598 8.128 8.438 8.668 9.488
1128.452 10.438 10.978 11.598 12.848 14.468 16.548 19.148 21.918 24.748 27.878
1147.742 31.848 34.968 36.778 39.968 43.658 45.538 46.648 47.448 47.358 46.438
1167.032 44.348 41.798 39.048 35.748 32.088 28.008 24.798 21.648 18.548 17.228
1186.322 15.158 12.748 11.238 9.838 9.588 8.838 8.818 9.248 8.258 8.248
1205.611 8.178 7.218 6.918 8.298 9.618 10.358 11.218 11.868 12.188 13.398
1224.901 15.548 17.408 20.208 23.418 25.968 28.128 30.028 31.998 33.278 33.078
1244.191 32.478 31.278 28.428 25.968 22.968 19.858 18.148 16.848 16.078 14.858
1263.481 14.338 14.468 13.498 12.848 13.108 13.488 13.298 13.028 12.818 12.528
1282.771 12.588 12.828 12.858 13.058 13.438 13.818 14.268 14.538 14.508 14.288
1302.060 14.228 14.108 13.748 13.328 12.768 12.248 11.848 11.518 11.168 10.898
1321.350 10.818 10.708 10.528 10.418 10.408 10.538 10.708 10.748 10.938 11.238
1340.640 11.358 11.338 11.488 11.648 11.698 11.528 11.388 11.338 11.158 10.918
1359.930 10.518 10.088 9.708 9.328 8.968 8.658 8.458 8.398 8.168 7.758
1379.219 7.428 7.348 6.948 6.368 5.978 5.508 4.968 4.498 4.208 3.948
1398.509 3.668 3.668 3.808 3.868 4.078 4.368 4.848 5.578 6.378 7.118
1417.799 7.758 8.478 9.218 9.758 10.028 10.098 9.978 9.638 9.178 8.538
1437.089 7.928 7.378 6.858 6.518 6.278 6.118 6.028 6.148 6.308 6.548
1456.378 6.788 7.138 7.708 8.098 8.388 8.628 8.838 9.178 9.608 10.178
1475.668 10.758 11.568 12.908 14.578 16.568 19.258 22.598 26.398 30.338 33.758
1494.958 36.228 37.658 37.968 37.048 35.068 32.268 28.388 23.898 19.618 15.818
1514.248 12.638 10.288 8.708 7.428 6.448 5.808 5.528 5.178 4.778 4.648
1533.538 4.698 4.728 4.678 4.798 5.318 5.668 6.028 6.668 7.228 8.078
1552.827 9.188 10.418 11.568 12.498 13.618 14.668 15.458 16.118 16.478 16.818
1572.117 16.888 16.588 16.508 16.448 16.378 16.478 16.718 17.128 17.848 18.628
1591.407 19.738 21.138 22.348 23.028 23.048 22.878 22.338 21.558 20.438 18.928
1610.697 17.128 15.178 13.468 12.178 11.178 10.288 9.528 8.818 7.998 7.318
1629.986 6.978 6.518 6.058 5.778 5.318 4.728 4.428 4.388 3.968 3.688
1649.276 3.618 3.588 3.578 3.348 3.378 3.378 3.368 3.518 3.508 3.638
1668.566 3.688 3.708 3.898 3.918 4.068 4.148 4.018 4.188 4.418 4.448
1687.856 4.528 4.578 4.748 4.858 5.058 5.478 6.038 6.708 7.468 8.758
1707.146 10.458 12.518 15.438 19.648 25.158 31.998 40.108 47.868 54.448 59.578
1726.435 62.848 64.038 62.948 59.508 53.638 45.938 37.888 31.158 26.368 22.848
1745.725 20.388 18.578 17.148 15.918 14.568 13.178 11.888 10.548 8.998 7.738
1765.015 6.928 6.108 5.408 5.088 4.778 4.388 4.248 4.248 4.278 4.158
1784.305 4.028 4.058 4.078 4.028 3.898 3.698 3.518 3.328 3.038 2.868
1803.594 2.788 2.588 2.328 2.238 2.048 1.848 1.868 1.7111 1.5619 1.6799
1822.884 1.5849 1.394 1.4313 1.4299 1.3911 1.4183 1.4928 1.4709 1.439 1.4502
1842.174 1.4166 1.3289 1.2095 1.1645 1.2195 1.3027 1.3433 1.2707 1.2183 1.2284
1861.464 1.242 1.3179 1.399 1.4618 1.4605 1.5605 1.6851 1.6752 1.6187 1.6165
1880.754 1.591 1.4036 1.3528 1.5177 1.5083 1.2945 1.1553 1.2342 1.2656 1.1308
1900.043 1.2489 1.2345 1.0461 1.0803 1.1386 1.1959 1.1835 1.1178 1.0646 1.0623
1919.333 1.1461 1.1574 1.2331 1.2491 1.179 1.1646 1.1835 1.2022 1.2256 1.2717
1938.623 1.2122 1.2496 1.2323 1.2215 1.2203 1.1899 1.3417 1.5405 1.4714 1.2796
1957.913 1.3211 1.3222 1.2201 1.2204 1.327 1.3591 1.3446 1.2895 1.1368 1.0851
1977.202 1.0922 1.0374 1.1121 1.2855 1.1322 1.0104 0.9538 0.9759 1.1095 0.9271
1996.492 0.9105 0.8847 0.82531 0.8568 0.743 0.80506 0.87784 0.86746 0.9461 1.0819
2015.782 1.0121 0.9089 0.8928 0.8803 1.013 1.1039 1.1155 0.992 0.9151 0.9921
2035.072 1.0545 1.0304 1.0644 1.2006 1.2013 1.2892 1.237 1.1101 1.0679 1.0655
2054.362 1.2798 1.3627 1.356 1.4137 1.3202 1.2364 1.359 1.3955 1.3259 1.4549
2073.651 1.4841 1.3516 1.3249 1.2757 1.2879 1.3713 1.4254 1.424 1.3105 1.2161
2092.941 1.1329 1.123 1.088 1.1467 1.1366 1.043 1.0385 0.9653 1.0206 1.1465
2112.231 1.101 0.9947 1.0148 1.014 1.0568 1.0728 1.0133 1.0024 1.1572 1.1529
2131.521 1.0705 1.0813 1.0363 1.0162 1.0437 1.0672 0.9405 0.7215 0.80512 1.005
2150.810 1.0292 1.0496 1.0869 1.1042 0.9991 0.8994 0.9493 1.0717 0.9853 0.9317
2170.100 1.0987 1.054 1.0244 1.1017 1.1153 0.9086 0.86994 0.8422 0.7275 0.84459
2189.390 0.85348 0.7586 0.80439 0.982 0.9548 0.82139 0.81583 0.77064 0.7581 0.9375
2208.680 0.9938 0.79314 0.7965 0.777522 0.623 0.84722 0.76999 0.7314 0.9012 0.7441
2227.970 0.6915 0.7027 0.7472 0.81539 0.705 0.574 0.677 0.81459 0.85632 0.8926
2247.259 0.81323 0.6833 0.628 0.643 0.584 0.549 0.668 0.784723 0.77547 0.7353
2266.549 0.7316 0.6863 0.782946 0.904 0.8099 0.7142 0.79765 0.80408 0.82128 0.78683
2285.839 0.625 0.7363 0.83982 0.84755 0.8833 0.9808 1.0026 0.83156 0.667 0.7398
2305.129 0.84031 0.9745 1.0915 0.9593 0.8811 1.0092 1.1654 1.0733 0.9067 0.745
2324.418 0.6905 0.8929 0.9568 0.9832 1.0282 0.9282 0.9254 0.9876 0.86258 0.7576
2343.708 0.8965 1.0375 1.1348 1.0377 0.783444 0.7103 0.9573 1.1765 1.078 0.86975
2362.998 0.84826 0.7242 0.601 0.629 0.7283 0.9971 1.1057 1.1093 1.143 1.0124
2382.288 0.82373 0.83518 0.85688 0.85269 0.9396 0.9754 0.87779 0.83769 0.7251 0.7636
2401.578 1.0266 0.9912 0.8915 0.8963 1.04 1.1264 0.86541 0.7313 0.81988 0.9109
2420.867 1.0104 1.0253 0.9973 0.9514 0.83952 0.6879 0.708 0.7613 0.77385 0.6853
2440.157 0.7531 0.7654 0.622 0.645 0.635 0.7539 0.787702 0.7201 0.634 0.76852
2459.447 1.0219 0.81088 0.7367 1.0581 0.9212 0.671 0.84469 1.085 1.1188 0.9748
2478.737 0.83846 0.8139 0.9396 0.9815 0.82282 0.6802 0.597 0.8969 1.0438 0.7522
2498.026 0.676 0.80494 0.8802 0.7461 0.671 0.617 0.727 0.7442 0.596 0.561
2517.316 0.521 0.7126 0.80857 0.6921 0.77441 0.7645 0.605 0.631 0.648 0.568
2536.606 0.51 0.547 0.8027 0.953 0.7024 0.483 0.649 0.7048 0.678 0.674
2555.896 0.652 0.649 0.531 0.655 0.588 0.366 0.313 0.435 0.365 0.27
2575.186 0.434 0.487 0.6894 0.77076 0.637 0.566 0.657 0.644 0.7273 1.0214
2594.475 0.77391 0.436 0.515 0.76848 0.83302 0.674 0.8806 1.0318 0.9318 0.9503
2613.765 0.8891 0.81688 0.7798 0.7594 0.84172 0.7429 0.7611 1.0045 0.986 0.7522
2633.055 0.7143 0.7313 0.661 0.553 0.517 0.581 0.468 0.544 0.7163 0.7356
2652.345 1.0205 0.9424 0.644 0.9546 0.9357 0.83772 0.9199 0.9011 0.86203 0.62
2671.634 0.517 0.533 0.633 0.6867 0.411 0.24 0.485 0.634 0.521 0.618
2690.924 0.84065 0.6861 0.576 0.7587 0.83231 0.955 0.86034 0.87146 1.1437 1.0393
2710.214 0.9666 1.0848 1.0194 0.7622 0.7476 0.9004 0.7472 0.6906 0.714 0.7569
2729.504 0.7466 0.6873 0.7012 0.697 0.9053 0.9699 0.9225 0.9202 0.9503 0.9215
2748.794 0.9634 1.2939 1.2596 1.0964 1.0024 0.9764 0.9883 0.9361 0.948 0.9159
2768.083 0.8949 0.9694 1.1953 1.1736 1.1578 1.0231 0.6879 0.8829 1.1971 1.1346
2787.373 0.9772 1.2452 1.0492 0.614 0.9001 1.176 1.4642 1.2622 1.0599 1.4237
2806.663 1.3682 1.3012 1.4339 1.4731 1.778 1.958 1.908 2.028 2.098 2.118
2825.953 2.258 2.288 2.528 3.208 3.598 3.668 4.018 4.488 4.618 4.818
2845.242 4.958 4.448 3.898 3.638 3.278 2.848 2.588 2.638 2.668 2.528
2864.532 2.378 2.398 2.518 2.528 2.518 2.588 2.798 2.718 2.388 2.238
2883.822 2.278 2.498 2.508 2.378 2.338 2.338 2.728 2.868 2.998 3.338
2903.112 3.538 3.768 3.888 3.988 4.118 4.198 4.188 4.538 4.628 4.488
2922.401 4.528 4.668 4.698 4.518 4.858 4.998 5.118 5.908 6.208 6.128
2941.691 6.268 6.328 6.348 6.488 6.438 6.058 5.958 6.258 6.048 5.328
2960.981 4.738 4.418 4.378 3.908 3.278 2.948 2.848 2.988 3.138 3.108
2980.271 3.058 3.288 3.428 3.108 3.098 3.628 3.958 4.378 5.128 5.608
2999.561 5.658 5.908 6.098 5.908 5.788 5.818 5.238 4.488 4.088 3.758
3018.850 3.758 3.518 2.908 2.808 3.118 3.198 3.168 3.458 3.708 3.638
3038.140 3.858 4.078 4.148 3.888 3.398 3.038 2.798 2.738 2.658 2.478
3057.430 2.008 1.918 2.298 2.598 2.628 2.548 2.678 2.738 2.818 2.818
3076.720 2.558 2.488 2.748 2.498 1.918 1.968 1.908 1.6659 1.928 1.878
3096.009 1.6833 1.6066 1.3165 1.3301 1.6086 1.3755 1.1742 1.2278 0.9147 0.587
3115.299 0.82476 1.0228 1.1145 1.0993 0.86886 0.648 0.7386 1.1147 1.0519 1.1496
3134.589 1.4679 1.4358 1.1984 0.9887 0.7078 0.581 0.464 0.328 0.586 0.7403
3153.879 0.7614 0.67 0.7033 0.7185 0.82957 1.062 1.1449 1.1232 1.3842 1.2526
3173.169 0.6792 0.668 0.7005 0.9349 0.9874 0.9306 0.83867 0.597 0.80158 0.83652
3192.458 0.7183 0.9619 1.0348 0.83796 0.677 0.617 0.8953 1.2107 1.0158 0.88
3211.748 1.0132 0.9808 0.84353 0.65 0.488 0.83137 0.9396 0.7413 0.84999 0.653
3231.038 0.431 0.6808 0.9275 0.81341 0.547 0.442 0.516 0.079 0 0.724
3250.328 0.7491 0.571 0.532 0.534 0.611 0.6953 0.612 0.6916 0.7718 0.9084
3269.617 1.1087 0.9632 0.9012 0.538 0.79987 1.1403 0.7058 0.441 0.6897 1.015
3288.907 0.87687 0.673 0.77295 0.6919 0.523 0.499 0.441 0.575 0.465 0.487
3308.197 0.84114 0.898 0.85967 0.9137 0.9213 0.9095 0.87234 0.9678 1.3878 1.4437
3327.487 1.2186 1.3218 1.4472 1.1913 1.0118 1.2661 1.4426 1.2842 1.1652 0.77532
3346.777 0.434 0.7422 1.2995 1.157 0.82256 0.9893 1.0043 1.0924 1.3615 1.988
3366.066 1.7356 1.818 2.328 2.468 3.148 3.658 4.318 5.428 6.618 7.518
3385.356 8.168 8.598 9.028 9.488 10.028 9.698 8.798 7.968 6.818 5.728
3404.646 4.898 4.028 3.288 2.668 2.238 2.508 2.468 2.018 1.978 2.058
3423.936 2.148 2.368 2.638 2.808 2.518 2.318 2.138 1.818 1.7472 1.868
3443.225 1.898 1.798 1.7176 1.6773 1.948 1.7041 1.2001 1.5308 1.7495 1.3322
3462.515 1.144 1.4524 1.6754 1.6897 1.888 2.038 2.238 2.178 2.228 2.398
3481.805 2.248 2.398 2.798 3.098 3.178 3.378 3.918 4.258 4.218 4.448
3501.095 4.998 5.578 5.928 6.208 6.408 6.578 6.788 6.578 6.378 6.228
3520.385 5.818 4.948 4.618 4.888 4.608 3.738 2.938 2.548 2.448 2.188
3539.674 1.898 1.7767 1.4941 1.474 1.3713 1.2189 1.232 1.3567 1.6083 1.868
3558.964 2.008 2.438 3.228 3.898 4.928 6.438 8.208 10.268 12.678 15.848
3578.254 18.848 20.308 20.278 19.908 19.528 19.008 18.058 15.368 11.658 8.458
3597.544 5.758 3.958 2.948 2.198 1.928 1.7412 1.5097 1.3947 0.76911 0.7111
3616.833 1.0309 0.7472 0.80158 1.3164 1.6176 1.4587 1.137 0.7542 0.80454 0.85627
3636.123 0.9132 1.1345 1.2169 1.2563 0.7206 0.481 0.6872 0.534 0.435 0.649
3655.413 0.79151 0.543 0.638 1.1255 1.1082 0.6876 0.614 0.639 0.8846 1.0988
3674.703 0.86603 0.84689 1.0737 1.0144 0.7298 0.83242 0.9524 0.8911 0.84564 0.9664
3693.993 0.8915 0.616 0.8793 0.83415 0.423 0.428 0.5 0.79943 0.552 0.289
3713.282 0.566 0.454 0.608 0.668 0.668 0.577 0.171 0.152 0.641 0.627
3732.572 0.612 0.628 0.569 0.483 0.312 0.87151 0.77105 0.51 0.8824 0.641
3751.862 0.19 0.442 0.8914 0.9858 0.523 0.541 1.0311 1.0093 0.675 0.441
3771.152 0.77508 1.0172 0.723 0.86205 0.80063 0.427 0.9782 1.2469 1.0605 0.81768
3790.441 0.9076 0.639 0.224 0.386 0.373 0.515 0.54 0.619 0.81852 0.672
3809.731 0.517 0.476 0.7155 0.913 0.76815 0.8994 1.0371 1.0485 0.9637 0.715
3829.021 0.81245 1.124 0.6817 0.59 0.787415 0.556 0.66 0.9741 1.1471 0.8937
3848.311 1.004 1.0455 0.6947 0.661 0.7648 0.81056 0.8959 1.0146 0.8978 0.9305
3867.601 1.2729 1.4339 1.0892 0.55 0.622 0.7027 0.676 0.994 1.0299 1.1256
3886.890 1.335 1.1119 1.0875 1.2394 0.8649 0.581 0.646 0.777168 0.535 0.57
3906.180 1.0226 0.84415 0.6881 0.9303 0.9349 0.9532 0.84612 0.7657 0.86424 0.9877
3925.470 0.83396 0.7391 1.3166 1.0659 0.659 0.86115 1.0087 1.0073 0.7323 0.7241
3944.760 0.6882 0.581 0.422 0.483 0.379 0.433 0.82746 0.82614 1.023 1.1165
3964.049 0.9658 0.9263 0.80235 0.604 0.81236 0.9284 1.2742 1.3704 0.7489 0.7611
3983.339 0.7276 0.611 0.541 0.617 1.0831 1.089 1.1995 1.2678 1.2726 1.4117
##END=
