##TITLE=Indenone ethylene ketal
##JCAMP-DX=4.24
##DATA TYPE=INFRARED SPECTRUM
##ORIGIN=EPA-IR VAPOR PHASE LIBRARY
##OWNER=SRD/NIST
Collection (C) 2018 copyright by the U.S. Secretary of Commerce
on behalf of the United States of America. All rights reserved.
##CAS REGISTRY NO=6710-43-6
##MOLFORM=C 11 H 10 O 2
##$NIST SOURCE=MSDC-IR
##STATE=gas
##XUNITS=1/CM
##YUNITS=ABSORBANCE
##XFACTOR=1.
##YFACTOR=0.001
##DELTAX=1.92898
##FIRSTX=549.8
##LASTX=4000.7
##FIRSTY=1.5491
##MAXX=4000.7
##MINX=549.759
##MAXY=0.05943
##MINY=0
##NPOINTS=1790
##XYDATA=(X++(Y..Y))
549.759 1.5491 3.15 3.8 3.35 2.7 2.89 3.1 3.19 3.12 3.1
569.049 2.97 3.03 3.29 3.17 3.1 2.75 1.9796 2.11 2.81 2.54
588.339 1.7123 1.7789 1.9852 1.3519 1.2527 0.906 0.9545 1.2004 0.9479 1.4048
607.628 1.4658 1.3367 1.2536 1.2301 1.304 0.627 0.679 1.5733 1.4999 1.1998
626.918 1.5458 1.5756 1.9405 2.22 1.6463 1.3612 1.6428 2.07 1.7713 1.7788
646.208 2.08 2.32 2.73 2.86 2.52 2.81 3.67 3.53 2.92 2.61
665.498 2.73 2.71 2.53 2.29 2.47 2.55 2.19 2.31 2.1 1.6311
684.787 1.2913 1.1617 1.4712 1.7897 1.99 2.08 2.45 2.53 2.45 2.49
704.077 2.6 2.95 3.42 3.95 4.66 5.34 5.46 5.48 5.54 5.3
723.367 5.6 6.29 7.32 9.37 12.56 16.77 21.77 26.27 30.94 35.68
742.657 40.12 46.72 56.29 57.41 46.6 39.54 36.22 32.34 28.33 23.94
761.947 19.93 16.54 14.2 12.4 11.08 10.96 11.89 10.73 8.36 7.32
781.236 6.58 5.85 5.11 4.51 4.21 3.74 3.34 2.81 2.02 2.03
800.526 1.9367 2.16 2.44 1.7461 1.5686 1.6547 1.7619 1.957 1.7573 1.8954
819.816 1.7714 1.6892 2.15 2.24 2.09 1.9001 1.9999 2.38 2.35 2.1
839.106 1.9626 2.28 2.53 2.21 2.45 2.2 1.471 1.7186 2.03 2.42
858.395 2.32 2.03 2.34 2.22 2.34 2.92 2.79 2.5 2.46 2.24
877.685 2.43 2.72 2.53 2.5 2.7 2.51 2.23 2.67 3.07 2.6
896.975 2.5 2.72 3.03 3.6 3.36 3.09 3.89 4.38 4.05 4.64
916.265 5.31 5.68 6.37 7.16 8.46 9.34 9.99 11.39 13.44 14.8
935.555 15.37 15.96 16.27 16.82 17.26 16.69 15.38 14.28 13.43 11.97
954.844 10.88 10.68 10.52 10.38 11.62 13.21 14.27 15.85 17.9 20.7
974.134 24.2 27.7 32.24 37.08 41.48 46.89 51.06 54.3 58.1 59.43
993.424 57.65 53.86 48.82 43.58 38.5 34.64 31.12 27.29 24.58 22.6
1012.714 20.84 19.98 19.34 18.87 18.56 18.51 18 18.53 20.99 24.28
1032.003 28.87 33.96 40.28 46.98 52.14 54.9 56.07 55.33 52.83 49.27
1051.293 44.31 39.12 34.56 30.87 27.43 26.77 27.79 27.56 27.17 28.46
1070.583 29.09 27.45 28.46 28.27 25.82 24.84 25.18 26.73 29.47 31.25
1089.873 32.02 34.08 34.33 33.49 31.48 28.44 26.36 23.29 20.12 17.67
1109.163 16.36 16.05 16.42 18.56 19.98 20.45 22.31 23.9 25.6 28.46
1128.452 31.15 33.14 34.61 35.7 35.59 36.6 37.18 36.41 35.52 34.22
1147.742 33.76 31.85 29.87 27.74 23.88 21.69 20.4 18.64 15.8 14.41
1167.032 14.06 12.81 12.12 11.21 10.47 9.95 9.48 9.03 8.94 8.89
1186.322 8.35 7.8 8.06 8.12 8.11 8.17 9.83 12.04 12.37 11.83
1205.611 11.56 12.09 12.01 12.76 14.29 15.58 17.44 18.03 19.12 20.38
1224.901 21.12 23.46 26.5 28.96 30.49 32.71 34.95 37.2 39.76 41.47
1244.191 42.75 43 41.7 40.47 39.18 37.26 34.73 32.5 30.52 28.41
1263.481 26.61 24.4 21.97 19.94 18.16 16.79 15.76 15.15 14.11 13.34
1282.771 12.55 11.11 10.22 9.67 8.84 8.26 7.94 8.17 9.29 10.9
1302.060 13.48 16.44 19.52 22.85 26.06 28.22 29.2 29.42 28.9 27.66
1321.350 25.59 22.69 19.52 16.88 15.04 13.97 13.13 12.41 11.95 11.49
1340.640 11 10.54 10.42 10.43 10.57 10.94 11.54 12.11 12.34 12.29
1359.930 11.8 11.2 10.73 10.07 8.7 7.23 6.01 4.94 4.11 3.59
1379.219 3.06 2.56 2.59 2.59 2.23 2.03 2.08 2.22 2.14 2.05
1398.509 1.9659 1.8948 2.17 2.25 2.11 2.26 2.16 1.9332 2.26 2.44
1417.799 2.41 2.56 2.56 2.58 2.51 2.42 2.59 2.59 2.57 2.72
1437.089 2.85 2.98 3.21 3.6 4.15 4.86 5.45 5.82 6.14 6.5
1456.378 6.92 7.35 7.91 8.04 7.72 7.25 6.87 6.69 6.37 5.94
1475.668 5.62 5.62 5.56 5.11 4.77 4.86 4.8 4.41 4.2 4.06
1494.958 3.8 3.37 2.99 2.77 2.58 2.22 2.19 2.4 2.23 1.9787
1514.248 1.7649 1.8959 2.18 2.08 2.13 2.56 2.6 2.37 2.37 2.46
1533.538 2.6 2.43 2.37 2.74 2.88 2.88 2.69 2.58 2.8 2.99
1552.827 3.05 3.31 3.72 4.5 5.43 6.1 6.57 7.08 7.5 7.44
1572.117 7.17 6.71 6.4 5.79 4.6 3.73 3.29 3.26 3.34 3.35
1591.407 3.47 3.82 4.12 4.1 4.06 4.35 4.66 4.87 5.19 5.12
1610.697 5.07 5.21 4.94 4.64 4.74 4.59 4.16 3.72 3.48 3.63
1629.986 3.82 3.82 3.85 3.78 3.68 3.76 3.81 3.88 3.44 2.8
1649.276 2.48 2.45 2.43 2.17 2.17 2.19 2.18 2.17 2.15 2.22
1668.566 2.26 2.25 2.26 2.34 2.21 2.2 2.25 2.2 2.2 2.11
1687.856 2.28 2.54 2.52 2.51 2.39 2.33 2.46 2.38 2.21 2.12
1707.146 1.9236 1.6894 1.6897 1.7382 1.7423 1.5906 1.5769 1.6157 1.7397 1.8216
1726.435 1.7211 1.8478 1.8693 1.8303 1.7121 1.7657 1.8386 1.5336 1.5143 1.5849
1745.725 1.647 1.799 1.7651 1.7403 1.6243 1.5791 1.6065 1.5097 1.5292 1.5726
1765.015 1.4833 1.5011 1.5894 1.7679 1.7268 1.7217 1.7347 1.7992 2.0001 2.02
1784.305 2.24 2.44 2.57 2.44 2.32 2.48 2.64 2.58 2.3 2.13
1803.594 2.03 1.9861 1.8208 1.6405 1.6753 1.6332 1.6817 1.8176 1.6241 1.5638
1822.884 1.5586 1.6287 1.9521 1.9864 1.9252 1.9348 1.8416 1.8756 2.16 2.35
1842.174 2.27 2.19 2.2 2.35 2.44 2.43 2.25 2.26 2.43 2.41
1861.464 2.27 2.14 2.13 1.9401 1.8486 1.8949 1.8892 2.04 2.05 2.09
1880.754 2.14 2.08 2.22 2.47 2.73 2.83 2.95 2.91 2.95 2.95
1900.043 2.75 2.71 2.78 2.61 2.33 2.29 2.1 1.8749 1.9457 1.9717
1919.333 1.9125 2.16 2.27 2.38 2.57 2.67 2.78 2.79 2.89 2.86
1938.623 2.74 2.76 2.72 2.7 2.5 2.08 1.9822 2.02 1.8427 1.7886
1957.913 1.8887 1.9199 1.891 1.8378 2.01 2.3 2.19 2.09 2.2 2.22
1977.202 2.08 2.06 2.13 2.16 2.08 1.9663 2.0095 1.9725 1.8916 2.06
1996.492 2.2 2.16 2.06 1.8004 1.8608 2.16 2.32 2.17 2.09 2.28
2015.782 2.33 2.41 2.43 2.48 2.58 2.59 2.56 2.48 2.53 2.57
2035.072 2.56 2.52 2.35 2.23 2.17 2.05 1.9223 1.7888 1.6824 1.7833
2054.362 1.9677 1.8331 1.8203 2.17 2.06 1.8201 1.8238 1.7929 1.8674 1.7943
2073.651 1.6872 1.7116 1.7125 1.9114 2.14 1.9223 1.7372 1.7495 1.7755 1.8529
2092.941 1.8012 1.7972 1.753 1.5743 1.5143 1.3348 1.421 1.6356 1.5359 1.3863
2112.231 1.3057 1.5519 1.7244 1.7208 1.703 1.6219 1.2599 1.1953 1.5746 1.4675
2131.521 1.3861 1.4329 1.3164 1.4663 1.5035 1.3271 1.3808 1.5939 1.5389 1.3461
2150.810 1.1418 1.2774 1.4674 1.4031 1.4191 1.4465 1.4728 1.3567 1.5134 1.7359
2170.100 1.5376 1.4022 1.4663 1.2237 1.152 1.278 1.4703 1.7425 1.6467 1.5702
2189.390 1.6087 1.49 1.4752 1.5531 1.5801 1.6282 1.5329 1.2731 1.2059 1.3847
2208.680 1.4937 1.5947 1.6724 1.5459 1.2858 1.3024 1.4101 1.4827 1.43 1.125
2227.970 1.10767 1.3561 1.3929 1.1718 1.08042 1.3514 1.5948 1.5112 1.6334 1.6236
2247.259 1.4001 1.3657 1.2866 1.3812 1.4588 1.331 1.31 1.4677 1.5045 1.5081
2266.549 1.4275 1.4272 1.4738 1.5129 1.7443 1.7963 1.7332 1.6877 1.7625 1.6093
2285.839 1.4976 1.5551 1.5292 1.4311 1.414 1.7316 1.7245 1.4099 1.2839 1.3776
2305.129 1.5834 1.66 1.6928 1.6878 1.5589 1.5703 1.656 1.6771 1.6288 1.5704
2324.418 1.5198 1.3892 1.3152 1.5145 1.4892 1.3697 1.3534 1.3853 1.454 1.4831
2343.708 1.6817 1.4619 1.314 1.4082 1.2876 1.1907 1.4005 1.5152 1.5401 1.443
2362.998 1.2306 1.3084 1.3121 1.3216 1.1774 1.3029 1.426 1.2856 1.1507 1.1909
2382.288 1.4005 1.5262 1.4289 1.06902 1.2389 1.4737 1.2293 1.10456 1.173 1.402
2401.578 1.5268 1.3337 1.2177 1.194 1.3171 1.4681 1.3888 1.2034 1.1413 1.0491
2420.867 0.9486 1.1899 1.5097 1.5116 1.431 1.4582 1.2082 1.1502 1.4151 1.3067
2440.157 1.2489 1.2228 1.05153 0.9638 1.03333 1.3917 1.4267 1.3566 1.319 1.2727
2459.447 1.1217 0.878 1.08452 1.3562 1.4166 1.3162 1.1574 1.2005 1.1977 1.05405
2478.737 1.16 1.2486 1.3227 1.1692 1.07255 1.1907 1.1678 1.1694 1.2779 1.184
2498.026 0.9402 1.02159 1.1828 1.1242 1.1888 1.1879 1.2371 1.3344 1.05726 1.05032
2517.316 1.157 1.07068 1.1579 1.4283 1.4862 1.3764 1.3777 1.3395 1.2036 1.2994
2536.606 1.1809 1.10605 1.2128 0.989 1.03838 1.03929 1.1853 1.3485 1.3006 1.4692
2555.896 1.39 1.1911 1.09551 0.9674 0.832 0.844 0.9737 1.09708 1.1583 1.0196
2575.186 0.9173 0.9918 1.0252 1.096 1.1647 0.9363 0.9275 1.07587 1.09855 0.9422
2594.475 0.867 0.893 0.9962 1.2224 1.07897 0.909 1.10787 1.08699 0.9466 1.09379
2613.765 1.04078 1.09127 1.1854 1.1761 1.03748 0.9875 1.2514 1.4854 1.4139 1.3776
2633.055 1.3626 1.2983 1.3096 1.4129 1.5368 1.3791 1.6393 1.6431 1.2806 1.612
2652.345 1.6446 1.3693 1.721 2.15 1.9827 1.8953 1.9651 1.9786 1.7511 1.4488
2671.634 1.7945 2.12 2.02 1.8822 1.6371 1.5582 1.671 1.6296 1.4559 1.3108
2690.924 1.1559 1.01628 1.08607 1.2631 1.3456 1.6147 1.8735 1.5517 1.393 1.4695
2710.214 1.455 1.4543 1.3799 1.4994 1.4487 1.2465 1.2786 1.1541 1.1641 1.08248
2729.504 1.1486 1.429 1.3919 1.4917 1.4722 1.4679 1.5096 1.4678 1.4248 1.1564
2748.794 1.2138 1.4352 1.7345 1.9381 1.8605 1.9354 1.7432 1.5287 1.6839 1.9534
2768.083 1.8661 1.5338 1.6636 1.9096 1.8704 1.7144 1.7723 1.7079 1.763 1.8986
2787.373 1.7657 1.6829 1.7097 1.7038 1.7116 1.7972 1.7333 1.7885 1.9335 1.9143
2806.663 1.7891 1.9352 2.28 2.62 2.42 2.16 2.4 2.26 2.33 2.77
2825.953 2.96 3.29 3.75 3.74 3.69 3.93 4.01 4.5 4.85 4.34
2845.242 4.25 5.03 5.46 5.17 5.42 6.03 6.33 6.43 6.61 7.43
2864.532 8.12 8.92 10.48 12.17 14.2 16.94 20.02 23.09 25.72 28.3
2883.822 30.48 31.52 32.07 31.9 30.68 28.53 26.59 24.63 22.26 20.29
2903.112 18.65 17.29 16.51 15.85 15.16 14.73 14.18 14.08 14.11 14.16
2922.401 14.25 14.14 14.06 13.81 13.62 13.33 12.93 12.78 12.93 13.2
2941.691 13.15 13.11 13.8 14.27 14.03 14.31 15.14 15.82 16.73 17.56
2960.981 18.27 18.6 18.65 19.3 19.52 19.37 19.53 19.75 20.17 20.34
2980.271 19.91 19.76 19.62 19.07 18.7 17.61 16.32 15.6 14.35 13.19
2999.561 12.18 11.5 11.26 10.69 10.18 9.85 9.98 9.93 9.43 9.59
3018.850 9.85 9.98 10.11 10.31 10.74 10.37 10.05 10.25 10.3 10.71
3038.140 10.71 10.45 10.83 11.37 11.44 11.47 11.81 11.7 12.11 13.23
3057.430 13.8 14.88 16.44 17.81 18.96 19.88 21.36 22.29 22.43 22.44
3076.720 22.45 21.82 20.63 19.53 18.23 16.39 14.43 13.03 11.2 9.33
3096.009 8.21 7.62 6.81 5.61 4.7 4.04 3.58 3.18 3 2.96
3115.299 2.93 2.45 1.8818 1.8686 1.5783 1.6366 2.0003 1.6824 1.7375 2.25
3134.589 2.09 1.8219 1.6648 1.5928 1.6762 1.22 1.2308 1.6925 1.3796 1.262
3153.879 1.6972 1.3982 1.06343 1.5335 1.2151 0.835 1.3527 1.4519 1.2931 1.1593
3173.169 1.3421 1.115 0.9936 1.4601 1.2296 1.1587 1.261 1.3278 0.888 1.09351
3192.458 1.6563 1.3196 1.2623 0.9924 0.802 1.09535 1.245 1.147 1.0109 1.08614
3211.748 0.733 0.576 1.03274 1.2206 1.2754 0.754 0.512 0.762 0.609 0.638
3231.038 0.641 0.421 0.593 1.07392 1.4192 1.3834 1.0272 0.608 0.452 0.721
3250.328 0.822 0.907 1.2764 1.05364 0.694 0.714 0.9381 0.796 0.654 1.197
3269.617 1.3311 1.2665 1.2676 0.705 0.484 0.713 1.1256 1.3537 1.322 1.3369
3288.907 0.881 0.725 0.613 0.102 0.337 0.566 0.449 0.56 0.731 1.07393
3308.197 0.87 0.387 0.181 0.59 0.827 0.391 0.595 1.1155 0.9671 0.55
3327.487 0.186 0.333 0.22 0.155 0.408 0.609 0.9387 0.821 0.694 0.53
3346.777 1.04992 1.5779 0.9959 0.583 0.738 0.868 0.901 1.089 1.3535 1.1716
3366.066 0.64 0.166 0.516 0.579 0.302 0.363 0.611 0.814 0.9795 1.1674
3385.356 0.988 0.87 0.677 0.808 0.768 0.481 0.343 0.169 0.471 0.501
3404.646 0.659 1.08018 1.1933 1.1632 1.03655 1.0883 0.831 0.9348 1.149 0.363
3423.936 0.419 1.09246 1.2051 1.4204 1.3527 0.63 0.198 0.59 1.03654 1.10603
3443.225 0.632 0.35 0.636 0.68 0.877 1.2445 1.2811 1.1798 1.1631 0.9525
3462.515 1.01818 1.6316 1.3239 0.705 0.634 0.827 0.616 0.211 0.595 0.906
3481.805 1.2658 1.5425 1.1368 0.503 0.428 0.675 0.726 0.682 0.884 1.1682
3501.095 0.662 0.617 1.10165 1.00364 1.1991 1.1451 0.852 0.79 0.731 1.17
3520.385 1.5822 1.331 1.1945 1.133 0.859 0.783 0.619 0.91 0.891 0.408
3539.674 0.658 1.1894 0.776 0.322 0.497 0.631 0.885 0.885 0.686 0.746
3558.964 0.907 1.3098 1.5004 1.1526 1.01855 1.0461 1.1873 1.1746 0.9578 0.554
3578.254 0.337 0.325 0.58 0.9852 0.909 0.732 0.678 0.644 0.796 0.9775
3597.544 0.616 0.425 0.9197 0.9689 0.471 0.436 0.661 0.693 0.373 0.323
3616.833 0.265 0.211 0.544 0.265 0.425 1.02487 0.851 0.48 0.267 0.266
3636.123 0.595 0.834 0.745 0.934 1.1488 0.9613 0.555 0.629 0.912 0.695
3655.413 0.475 0.667 1.1389 0.808 0.516 1.3298 1.412 0.896 1.00908 1.1366
3674.703 0.9576 1.1343 1.06885 1.1137 0.9257 0.665 0.865 0.52 0.571 0.341
3693.993 0 0.599 1.02147 0.9608 1.2801 1.4046 0.854 0.654 0.628 0.685
3713.282 0.574 0.764 1.03961 0.63 0.418 0.677 1.00857 0.9122 1.2117 1.6615
3732.572 1.2062 1.2017 1.2296 0.854 0.766 0.821 1.1369 1.188 1.165 0.905
3751.862 0.808 1.1406 0.751 0.371 0.755 1.1414 1.2016 1.09043 0.9143 0.516
3771.152 0.448 0.9506 0.9234 0.802 1.2132 1.2378 1.04369 0.902 1.0028 0.9718
3790.441 0.824 0.544 0.367 0.59 0.9139 1.302 1.4219 1.1757 0.752 0.763
3809.731 1.09529 0.782 0.658 1.1423 1.08449 1.10709 1.311 1.4291 1.3215 1.00423
3829.021 0.873 1.00175 0.9751 0.882 1.02187 1.01624 0.815 0.379 0.225 0.647
3848.311 0.9734 0.629 0.029 0.334 1.1807 1.338 1.4828 1.438 1.1438 1.1943
3867.601 1.1104 0.756 0.426 0.551 0.805 1.1488 1.3543 0.758 0.674 1.2097
3886.890 1.1611 1.147 1.2372 0.873 0.531 0.625 0.634 0.877 0.9208 0.9192
3906.180 1.3255 1.3891 1.5898 1.4533 0.557 0.784 1.08841 1.09916 0.844 0.667
3925.470 1.1784 1.01475 1.10385 1.2825 1.1579 1.1184 0.635 0.756 1.3432 1.39
3944.760 1.05096 0.863 0.874 0.9997 1.24 1.2473 1.2494 1.1363 0.839 0.843
3964.049 1.03168 0.897 0.9777 1.5105 1.3942 0.9619 0.742 0.871 1.132 1.06819
3983.339 0.9722 0.9484 1.07529 1.09557 1.481 1.5499 1.3472 0.81 0.718 1.2186
##END=
