##TITLE=Metazachlor
##JCAMP-DX=4.24
##DATA TYPE=INFRARED SPECTRUM
##ORIGIN=NIST Mass Spectrometry Data Center
##OWNER=NIST Standard Reference Data Program
Collection (C) 2018 copyright by the U.S. Secretary of Commerce
on behalf of the United States of America. All rights reserved.
##CAS REGISTRY NO=67129-08-2
##MOLFORM=C 14 H 16 Cl N 3 O
##$NIST SOURCE=MSDC-IR
##SPECTROMETER/DATA SYSTEM=HP-GC/MS/IRD
##STATE=gas
##XUNITS=1/CM
##YUNITS=ABSORBANCE
##XFACTOR=1.0
##YFACTOR=0.000003800
##DELTAX=4.0
##FIRSTX=550.0
##LASTX=3846.0
##FIRSTY=0.001596
##MAXX=3846
##MINX=550
##MAXY=0.038
##MINY=0
##NPOINTS=825
##XYDATA=(X++(Y..Y))
550.0 420 310 261 333 403 508 528 430 337 313
590.0 303 254 237 272 397 650 971 1250 1355 1259
630.0 998 706 522 420 367 355 321 257 214 200
670.0 209 229 246 223 179 181 224 283 333 351
710.0 326 300 304 335 414 600 955 1605 2646 3919
750.0 5043 5298 4456 3464 3049 2857 2343 1634 1148 931
790.0 827 787 793 774 695 591 464 343 272 241
830.0 214 194 175 135 83 45 17 6 32 76
870.0 159 291 382 339 252 251 289 318 324 351
910.0 458 625 711 622 436 299 251 214 222 267
950.0 371 584 812 864 664 397 249 203 191 181
990.0 174 179 199 243 326 420 595 856 1065 1184
1030.0 1225 1237 1294 1449 1770 1983 1812 1329 807 549
1070.0 582 944 1843 2865 3089 2320 1310 809 725 689
1110.0 582 500 470 439 486 587 728 965 1340 1755
1150.0 2020 2018 1879 1798 1825 1920 2008 2073 2106 2027
1190.0 1860 1712 1767 2219 2922 3430 3415 3048 2853 2952
1230.0 3121 3167 3026 2859 2771 2701 2504 2135 1763 1557
1270.0 1536 1656 1885 2190 2626 3237 3888 4244 4070 3476
1310.0 2766 2190 1916 2034 2519 3200 3670 3551 2928 2264
1350.0 1917 1911 2126 2452 2792 3075 3223 3232 3140 2988
1390.0 2819 2658 2460 2215 1991 1834 1735 1776 2037 2413
1430.0 2694 2761 2666 2515 2354 2192 2065 2002 1988 1975
1470.0 1905 1765 1583 1406 1248 1114 999 914 891 954
1510.0 1143 1388 1460 1229 848 577 466 419 383 347
1550.0 312 291 284 286 291 298 308 332 353 376
1590.0 406 418 399 350 305 274 264 273 286 313
1630.0 340 358 396 456 548 669 802 948 1117 1343
1670.0 1651 2084 2718 3674 5115 7021 8920 10000 9783 8544
1710.0 6939 5424 4094 2983 2123 1513 1100 832 666 581
1750.0 534 480 407 341 301 286 270 243 213 181
1790.0 156 137 125 108 93 83 71 60 54 51
1830.0 51 50 48 53 66 77 79 76 65 45
1870.0 22 12 14 11 6 7 11 15 21 30
1910.0 35 41 49 66 82 101 121 124 105 68
1950.0 34 20 17 11 7 9 8 1 0 3
1990.0 8 7 8 12 15 13 5 9 14 8
2030.0 5 17 26 20 21 26 27 29 34 36
2070.0 35 40 43 39 31 21 17 23 17 14
2110.0 10 6 12 14 11 14 18 19 20 19
2150.0 16 17 13 9 8 4 10 15 13 13
2190.0 17 20 17 11 10 16 23 23 18 15
2230.0 18 15 12 24 30 31 25 27 36 42
2270.0 45 35 26 27 30 27 23 22 23 27
2310.0 31 25 21 28 34 44 48 41 35 39
2350.0 44 38 36 29 28 33 31 24 25 31
2390.0 30 32 31 26 31 33 38 37 32 27
2430.0 23 23 20 20 26 24 26 32 35 27
2470.0 27 32 31 27 24 26 31 33 32 33
2510.0 30 29 25 22 24 25 16 6 16 21
2550.0 22 28 23 12 11 28 35 31 27 24
2590.0 25 22 24 29 26 28 29 23 17 23
2630.0 35 24 15 15 17 23 17 16 21 10
2670.0 6 6 11 7 11 14 14 15 14 22
2710.0 22 27 35 37 47 54 55 59 68 79
2750.0 77 67 57 51 59 57 47 47 47 43
2790.0 47 54 57 52 52 62 79 96 97 98
2830.0 110 118 143 175 200 224 240 276 325 357
2870.0 390 422 431 421 411 408 409 410 417 439
2910.0 486 543 625 746 898 1058 1184 1221 1170 1081
2950.0 1019 1004 1017 1069 1144 1172 1130 1007 866 771
2990.0 688 624 571 545 548 572 621 684 765 826
3030.0 838 826 795 773 791 831 886 956 1015 1031
3070.0 988 885 765 638 500 382 282 221 203 230
3110.0 297 357 362 294 212 180 177 173 197 232
3150.0 213 145 84 65 68 62 52 39 35 47
3190.0 52 51 49 35 14 20 30 14 14 16
3230.0 13 17 27 31 21 12 12 13 9 11
3270.0 21 28 33 26 17 31 38 27 29 28
3310.0 15 12 20 18 21 24 9 15 50 53
3350.0 39 49 63 77 91 96 96 94 84 82
3390.0 82 76 80 74 66 68 62 55 59 58
3430.0 48 26 25 28 20 39 48 41 38 40
3470.0 42 40 50 47 36 35 44 56 46 45
3510.0 42 45 45 28 36 38 27 16 17 30
3550.0 20 5 19 26 26 32 33 29 35 44
3590.0 32 22 26 33 27 34 47 25 14 21
3630.0 28 19 24 19 16 30 27 24 31 43
3670.0 38 25 26 24 26 24 22 37 37 33
3710.0 40 30 20 21 29 27 20 32 39 42
3750.0 54 53 44 49 65 66 59 59 41 43
3790.0 65 62 51 48 64 63 45 54 58 62
3830.0 71 69 57 46 62
##END=
