##TITLE=trans-2-Hexenal
##JCAMP-DX=4.24
##DATA TYPE=INFRARED SPECTRUM
##ORIGIN=NIST Mass Spectrometry Data Center
##OWNER=NIST Standard Reference Data Program
Collection (C) 2018 copyright by the U.S. Secretary of Commerce
on behalf of the United States of America. All rights reserved.
##CAS REGISTRY NO=6728-26-3
##MOLFORM=C 6 H 10 O
##$NIST SOURCE=MSDC-IR
##SPECTROMETER/DATA SYSTEM=HP-GC/MS/IRD
##STATE=gas
##XUNITS=1/CM
##YUNITS=ABSORBANCE
##XFACTOR=1.0
##YFACTOR=0.000003700
##DELTAX=4.0
##FIRSTX=550.0
##LASTX=3846.0
##FIRSTY=0.000241
##MAXX=3846
##MINX=550
##MAXY=0.037
##MINY=0
##NPOINTS=825
##XYDATA=(X++(Y..Y))
550.0 65 119 133 132 115 108 111 102 77 48
590.0 55 64 52 62 48 28 40 37 36 27
630.0 20 26 15 9 6 0 3 14 24 38
670.0 38 24 20 30 51 64 71 75 101 136
710.0 154 163 168 180 172 162 158 150 132 118
750.0 110 104 102 103 100 102 112 109 103 102
790.0 108 102 87 82 71 59 55 54 57 54
830.0 54 54 61 76 79 87 104 118 126 138
870.0 157 171 175 174 164 151 143 140 131 128
910.0 138 147 160 175 196 229 276 339 408 482
950.0 571 661 742 828 907 969 1013 1023 993 937
990.0 865 774 688 612 534 468 422 381 352 366
1030.0 400 450 499 532 564 576 566 547 546 562
1070.0 598 675 780 872 941 971 943 878 808 729
1110.0 659 638 669 750 856 997 1146 1275 1360 1338
1150.0 1224 1049 831 588 397 280 213 168 136 117
1190.0 108 106 99 96 91 78 68 63 61 66
1230.0 61 53 58 66 71 79 87 98 112 129
1270.0 150 168 181 196 212 224 232 239 247 241
1310.0 222 205 194 190 198 212 227 236 227 209
1350.0 185 155 129 116 115 124 145 172 202 221
1390.0 239 250 239 217 203 186 173 177 190 211
1430.0 244 276 300 319 341 361 369 372 366 347
1470.0 322 291 253 222 195 164 141 124 111 98
1510.0 89 86 79 70 64 63 64 65 64 68
1550.0 73 75 86 94 100 105 112 121 130 146
1590.0 170 197 226 273 342 447 594 786 994 1181
1630.0 1312 1372 1341 1205 1020 852 722 636 609 633
1670.0 684 756 870 1032 1246 1588 2250 3604 5939 8522
1710.0 9792 9871 10000 8503 4985 2473 1522 1090 834 657
1750.0 521 417 344 284 238 204 179 161 140 123
1790.0 107 96 86 77 74 69 67 63 57 56
1830.0 55 52 52 54 53 50 49 51 53 50
1870.0 49 49 46 43 41 37 35 37 34 29
1910.0 26 27 25 24 22 20 22 19 18 21
1950.0 22 22 24 25 24 22 26 31 27 27
1990.0 33 31 27 26 21 16 17 16 15 16
2030.0 17 17 13 16 14 11 13 14 13 14
2070.0 15 13 10 14 17 12 11 15 14 14
2110.0 12 15 18 17 19 20 21 23 26 28
2150.0 24 23 28 31 31 33 40 41 36 32
2190.0 30 29 28 22 20 26 28 27 26 22
2230.0 20 18 16 12 13 16 11 5 4 6
2270.0 8 12 16 15 8 6 6 6 8 12
2310.0 13 13 12 11 10 11 15 14 10 12
2350.0 13 10 10 10 9 10 12 9 10 13
2390.0 13 15 16 14 12 10 11 11 7 7
2430.0 5 5 8 8 5 6 9 12 9 3
2470.0 0 5 7 3 4 8 10 10 12 17
2510.0 17 13 9 11 20 18 16 20 24 25
2550.0 19 20 30 29 30 34 33 35 38 37
2590.0 39 46 48 52 55 58 64 66 72 79
2630.0 85 95 101 110 124 140 161 182 203 227
2670.0 261 300 348 395 445 499 559 621 682 755
2710.0 830 896 956 1014 1070 1102 1092 1048 987 899
2750.0 787 688 612 555 530 528 533 570 621 686
2790.0 751 830 906 969 999 1014 1025 1023 1010 968
2830.0 908 856 795 728 682 668 672 685 720 794
2870.0 881 983 1107 1200 1227 1229 1206 1159 1134 1147
2910.0 1189 1251 1332 1447 1596 1778 1984 2169 2285 2325
2950.0 2313 2262 2216 2242 2369 2465 2414 2298 2132 1830
2990.0 1471 1186 983 835 713 610 533 482 444 417
3030.0 397 380 359 341 327 305 281 255 232 215
3070.0 194 176 156 136 133 126 113 109 105 98
3110.0 97 98 89 76 75 72 64 59 60 59
3150.0 54 55 50 44 41 38 46 51 42 32
3190.0 34 43 49 37 32 38 32 30 28 35
3230.0 36 31 29 28 28 28 27 18 16 25
3270.0 29 25 17 23 22 16 23 32 23 15
3310.0 22 26 30 33 26 20 19 30 43 40
3350.0 38 46 53 49 51 57 57 60 64 69
3390.0 88 118 154 184 209 207 190 171 134 104
3430.0 78 67 59 51 51 39 31 30 27 28
3470.0 20 16 19 23 23 21 22 13 0 13
3510.0 33 28 25 37 37 33 21 11 14 14
3550.0 15 20 20 24 30 30 23 13 15 15
3590.0 9 6 5 13 23 28 17 8 4 10
3630.0 19 20 25 13 16 34 35 19 15 21
3670.0 22 23 28 29 25 17 14 25 30 26
3710.0 25 19 27 34 30 26 16 16 18 21
3750.0 29 33 41 38 33 34 34 35 37 36
3790.0 28 31 29 33 39 26 26 28 22 28
3830.0 28 19 25 32 26
##END=
