##TITLE=2-Ethyl-6-isopropylphenyl isothiocyanate
##JCAMP-DX=4.24
##DATA TYPE=INFRARED SPECTRUM
##ORIGIN=EPA-IR VAPOR PHASE LIBRARY
##OWNER=SRD/NIST
Collection (C) 2018 copyright by the U.S. Secretary of Commerce
on behalf of the United States of America. All rights reserved.
##CAS REGISTRY NO=67330-54-5
##MOLFORM=C 12 H 15 N S
##$NIST SOURCE=MSDC-IR
##STATE=gas
##XUNITS=1/CM
##YUNITS=ABSORBANCE
##XFACTOR=1.
##YFACTOR=0.001
##DELTAX=1.92898
##FIRSTX=549.8
##LASTX=4000.7
##FIRSTY=7.505
##MAXX=4000.7
##MINX=549.759
##MAXY=0.561575
##MINY=0
##NPOINTS=1790
##XYDATA=(X++(Y..Y))
549.759 7.505 7.515 7.555 7.755 7.955 8.435 8.785 9.195 9.565 9.685
569.049 9.575 9.215 8.935 8.675 8.305 7.665 7.065 6.545 6.015 5.625
588.339 5.425 5.265 4.935 4.755 4.655 4.445 4.325 4.135 3.985 3.945
607.628 3.865 3.735 3.785 3.785 3.905 4.075 4.025 4.145 4.175 4.165
626.918 4.215 4.175 3.945 3.655 3.335 2.915 2.765 2.475 2.085 1.755
646.208 1.455 1.435 1.415 1.315 1.395 1.495 1.385 1.355 1.345 1.385
665.498 1.385 1.365 1.495 1.495 1.425 1.345 1.355 1.485 1.615 1.565
684.787 1.545 1.675 1.765 2.025 2.295 2.465 2.825 3.285 3.925 4.515
704.077 5.065 5.585 5.865 6.085 6.255 6.705 7.495 8.575 10.555 13.555
723.367 17.455 22.165 27.245 32.405 37.715 43.195 48.105 51.275 52.215 52.575
742.657 55.135 56.225 48.705 38.075 31.305 26.245 21.025 16.215 12.505 9.975
761.947 8.415 7.395 6.965 6.915 7.095 7.605 8.545 10.085 11.945 13.685
781.236 15.465 17.405 19.275 20.785 21.365 21.115 20.325 19.075 17.435 15.275
800.526 13.145 11.275 9.525 7.875 6.615 5.825 5.275 5.055 4.855 4.775
819.816 5.015 5.295 5.645 6.045 6.215 6.355 6.345 6.125 5.845 5.315
839.106 4.655 3.995 3.355 2.905 2.595 2.245 1.925 1.905 1.885 1.725
858.395 1.765 1.745 1.735 1.815 1.785 1.905 2.065 2.225 2.445 2.635
877.685 3.055 3.535 4.105 4.635 5.215 6.105 6.955 7.645 8.635 9.775
896.975 11.065 12.545 13.945 15.425 16.825 17.925 18.585 18.835 19.015 19.165
916.265 19.355 19.745 20.465 21.975 24.385 27.435 31.075 35.275 39.445 43.065
935.555 45.815 47.295 47.375 45.815 42.725 38.525 33.705 28.745 24.105 20.205
954.844 17.155 14.745 12.845 11.265 10.095 9.305 8.365 7.265 6.445 6.015
974.134 5.715 5.355 4.855 4.455 4.185 3.925 3.655 3.295 3.095 2.865
993.424 2.595 2.365 2.195 2.125 2.075 2.175 2.125 1.905 1.785 1.675
1012.714 1.505 1.415 1.395 1.405 1.485 1.505 1.305 1.213 1.0898 1.0267
1032.003 1.1816 1.455 1.695 1.685 1.975 2.425 2.865 3.215 3.805 4.515
1051.293 5.025 5.835 6.355 6.505 6.675 6.745 6.375 5.785 5.165 4.515
1070.583 3.965 3.375 2.825 2.575 2.365 1.945 1.795 1.955 2.005 2.165
1089.873 2.465 2.645 2.615 2.895 3.365 3.615 4.055 4.425 4.695 4.585
1109.163 4.385 4.035 3.595 3.455 2.965 2.435 2.205 2.025 1.935 1.985
1128.452 1.785 1.655 1.435 1.385 1.505 1.2333 1.265 1.645 1.745 1.675
1147.742 1.725 1.745 1.835 1.905 1.895 1.865 1.645 1.345 1.2611 1.535
1167.032 1.835 2.225 2.725 2.955 2.955 3.015 3.025 2.725 2.375 2.055
1186.322 1.765 1.575 1.685 1.795 1.815 1.715 1.715 1.815 1.815 1.925
1205.611 2.195 2.245 2.125 2.065 2.185 2.445 2.415 2.585 2.785 3.055
1224.901 2.985 2.935 3.125 3.055 3.225 3.425 3.515 3.685 3.995 4.325
1244.191 4.725 5.395 6.215 7.035 7.875 8.575 9.105 9.315 9.075 8.605
1263.481 7.895 7.135 6.385 5.965 5.615 5.415 5.665 5.865 6.065 6.405
1282.771 6.685 6.995 7.285 7.315 7.235 7.145 6.885 6.525 6.295 6.145
1302.060 6.085 6.115 6.205 6.325 6.455 6.695 7.045 7.395 7.785 8.205
1321.350 8.515 8.695 8.815 8.895 8.925 8.905 8.995 9.335 9.915 10.645
1340.640 11.405 12.095 12.485 12.535 12.285 11.725 10.935 10.085 9.425 9.135
1359.930 9.255 9.695 10.365 11.035 12.275 13.925 13.645 12.125 11.515 11.265
1379.219 11.035 10.975 11.015 11.135 11.135 10.965 10.625 10.055 9.255 8.245
1398.509 7.205 6.445 6.025 5.795 5.795 5.875 6.025 6.295 6.685 7.185
1417.799 7.865 8.735 9.775 11.205 13.005 15.185 18.015 21.485 25.465 29.585
1437.089 33.565 36.895 39.125 40.105 39.955 38.805 36.805 34.445 32.195 30.475
1456.378 29.265 28.565 28.285 28.165 28.215 28.355 28.355 27.975 27.075 25.685
1475.668 23.895 21.695 19.145 16.435 13.765 11.495 9.745 8.375 7.375 6.615
1494.958 6.015 5.545 5.125 4.755 4.455 4.205 3.955 3.765 3.605 3.465
1514.248 3.335 3.235 3.225 3.255 3.205 3.175 3.285 3.385 3.475 3.585
1533.538 3.625 3.665 3.655 3.655 3.595 3.515 3.525 3.575 3.555 3.575
1552.827 3.675 3.705 3.785 3.875 4.035 4.275 4.565 4.945 5.435 6.015
1572.117 6.725 7.505 8.305 9.225 10.125 10.815 11.375 11.695 11.635 11.205
1591.407 10.455 9.475 8.395 7.355 6.385 5.625 5.075 4.595 4.275 4.095
1610.697 3.945 3.875 3.855 3.815 3.735 3.665 3.565 3.465 3.435 3.415
1629.986 3.385 3.355 3.335 3.295 3.245 3.305 3.225 3.065 3.015 2.825
1649.276 2.615 2.515 2.395 2.295 2.235 2.185 2.195 2.195 2.185 2.205
1668.566 2.245 2.275 2.295 2.395 2.555 2.665 2.785 2.895 3.025 3.145
1687.856 3.285 3.395 3.425 3.425 3.405 3.425 3.505 3.595 3.655 3.655
1707.146 3.595 3.505 3.345 3.145 3.005 2.875 2.705 2.595 2.545 2.465
1726.435 2.395 2.395 2.365 2.315 2.235 2.265 2.315 2.295 2.275 2.325
1745.725 2.405 2.405 2.355 2.365 2.375 2.395 2.415 2.385 2.345 2.275
1765.015 2.275 2.285 2.235 2.235 2.265 2.295 2.365 2.475 2.585 2.745
1784.305 2.905 3.075 3.285 3.495 3.605 3.665 3.675 3.595 3.465 3.235
1803.594 3.025 2.855 2.715 2.595 2.555 2.615 2.675 2.715 2.755 2.825
1822.884 2.885 2.945 3.035 3.155 3.255 3.315 3.435 3.565 3.685 3.835
1842.174 4.005 4.215 4.415 4.695 5.105 5.475 5.905 6.305 6.525 6.645
1861.464 6.675 6.555 6.335 6.045 5.775 5.555 5.355 5.255 5.165 5.065
1880.754 5.025 4.955 4.915 4.845 4.715 4.635 4.625 4.635 4.555 4.555
1900.043 4.615 4.635 4.645 4.755 4.965 5.215 5.585 6.085 6.655 7.385
1919.333 8.205 8.945 9.515 9.845 9.955 9.835 9.455 8.945 8.465 8.065
1938.623 7.805 7.755 7.905 8.155 8.475 8.905 9.355 9.855 10.435 11.035
1957.913 11.695 12.405 13.205 14.095 14.985 15.925 16.935 18.045 19.215 20.455
1977.202 21.755 23.115 24.585 26.115 27.735 29.415 31.155 33.005 34.985 37.055
1996.492 39.265 41.615 44.085 46.735 49.535 52.485 55.605 58.965 62.575 66.395
2015.782 70.505 74.965 79.805 85.015 90.665 96.825 103.585 110.955 118.925 127.665
2035.072 137.185 147.475 158.635 170.645 183.495 197.285 212.065 227.685 244.225 261.795
2054.362 280.385 299.925 320.345 341.665 363.695 386.325 409.305 432.195 454.555 475.795
2073.651 495.575 513.585 529.235 541.995 551.665 558.185 561.375 561.575 558.675 552.175
2092.941 542.525 529.605 513.235 493.235 470.095 444.465 416.865 388.265 359.645 332.205
2112.231 306.825 283.965 263.965 246.985 232.915 221.595 212.675 205.875 200.975 197.855
2131.521 196.135 195.545 195.975 197.085 198.825 200.945 202.945 204.485 205.085 204.195
2150.810 201.365 196.345 188.845 179.045 167.475 154.635 141.225 128.025 115.565 104.125
2170.100 93.945 84.995 77.165 70.365 64.425 59.315 54.915 51.105 47.905 45.205
2189.390 42.755 40.635 38.745 36.795 34.995 33.205 31.355 29.485 27.615 25.805
2208.680 24.075 22.475 21.005 19.715 18.555 17.395 16.345 15.335 14.435 13.595
2227.970 12.785 12.025 11.295 10.615 9.935 9.265 8.745 8.255 7.795 7.375
2247.259 7.015 6.745 6.445 6.185 5.985 5.745 5.535 5.365 5.255 5.165
2266.549 4.985 4.835 4.745 4.635 4.545 4.425 4.365 4.325 4.185 4.065
2285.839 3.985 3.915 3.885 3.795 3.695 3.655 3.685 3.685 3.625 3.595
2305.129 3.625 3.705 3.675 3.685 3.735 3.715 3.715 3.655 3.535 3.395
2324.418 3.325 3.245 3.075 2.895 2.865 2.875 2.845 2.845 2.855 2.905
2343.708 2.895 2.895 2.915 2.975 3.015 2.995 2.975 2.905 2.855 2.865
2362.998 2.885 2.905 2.925 2.925 2.915 2.975 3.115 3.085 3.075 3.145
2382.288 3.155 3.205 3.285 3.295 3.315 3.425 3.565 3.725 3.895 4.115
2401.578 4.265 4.425 4.555 4.595 4.645 4.545 4.385 4.295 4.165 4.015
2420.867 3.955 3.945 3.905 3.905 3.935 3.935 4.005 4.095 4.125 4.205
2440.157 4.305 4.365 4.455 4.555 4.665 4.705 4.715 4.795 4.845 4.795
2459.447 4.825 4.815 4.685 4.555 4.505 4.425 4.345 4.345 4.295 4.235
2478.737 4.295 4.295 4.225 4.185 4.215 4.235 4.235 4.305 4.335 4.355
2498.026 4.325 4.285 4.285 4.285 4.355 4.415 4.485 4.495 4.455 4.475
2517.316 4.465 4.425 4.385 4.335 4.375 4.415 4.335 4.305 4.325 4.315
2536.606 4.335 4.445 4.505 4.445 4.465 4.535 4.525 4.475 4.435 4.465
2555.896 4.435 4.415 4.445 4.375 4.315 4.325 4.275 4.185 4.165 4.095
2575.186 3.975 3.985 3.995 3.965 3.905 3.825 3.785 3.755 3.645 3.565
2594.475 3.575 3.505 3.425 3.385 3.275 3.115 3.075 3.075 3.085 3.115
2613.765 2.975 2.915 2.945 2.895 2.855 2.855 2.825 2.845 2.915 2.885
2633.055 2.835 2.865 2.835 2.825 2.885 2.795 2.705 2.675 2.655 2.665
2652.345 2.565 2.545 2.475 2.365 2.385 2.375 2.385 2.445 2.475 2.455
2671.634 2.435 2.415 2.485 2.525 2.525 2.575 2.605 2.585 2.625 2.695
2690.924 2.725 2.775 2.835 2.845 2.845 2.875 2.835 2.815 2.825 2.915
2710.214 3.015 2.975 2.995 3.085 3.055 3.095 3.205 3.235 3.285 3.365
2729.504 3.425 3.485 3.475 3.525 3.575 3.485 3.425 3.385 3.345 3.325
2748.794 3.215 3.095 3.035 2.945 2.905 2.905 2.935 3.015 3.165 3.245
2768.083 3.245 3.315 3.355 3.455 3.585 3.635 3.655 3.655 3.655 3.705
2787.373 3.825 3.915 4.025 4.185 4.345 4.485 4.545 4.565 4.655 4.835
2806.663 4.925 5.095 5.355 5.505 5.565 5.645 5.795 5.825 5.795 5.855
2825.953 5.885 5.985 6.105 6.155 6.225 6.315 6.415 6.465 6.585 6.835
2845.242 7.075 7.375 7.725 8.005 8.415 8.975 9.575 10.355 11.365 12.575
2864.532 14.145 16.135 18.595 21.515 25.015 28.895 32.775 36.475 39.665 41.955
2883.822 43.255 43.355 42.435 40.845 38.795 36.685 34.765 33.205 32.055 31.405
2903.112 31.085 31.015 31.195 31.595 32.075 32.515 33.025 33.635 34.375 35.335
2922.401 36.535 38.195 40.335 42.915 46.015 49.525 53.325 57.085 60.585 63.605
2941.691 65.525 66.215 65.605 63.735 61.265 58.655 56.375 55.045 55.625 59.105
2960.981 65.885 76.275 89.845 105.165 120.585 134.555 144.975 149.665 146.695 136.605
2980.271 122.455 106.085 88.535 71.545 57.135 45.945 37.545 31.525 27.085 23.835
2999.561 21.465 19.805 18.665 17.825 17.305 16.935 16.635 16.425 16.205 16.115
3018.850 16.085 15.925 15.875 15.715 15.445 15.235 15.035 14.715 14.295 13.895
3038.140 13.455 13.125 12.885 12.715 12.755 12.965 13.335 14.145 15.415 16.875
3057.430 18.515 20.285 22.005 23.655 25.185 26.475 27.455 27.995 28.045 27.525
3076.720 26.355 24.605 22.365 19.695 16.845 14.165 11.635 9.375 7.685 6.475
3096.009 5.645 5.105 4.695 4.315 4.135 4.045 3.925 3.885 3.755 3.595
3115.299 3.565 3.445 3.305 3.195 3.095 3.075 3.075 3.125 3.095 2.925
3134.589 2.785 2.715 2.765 2.835 2.855 2.805 2.755 2.675 2.675 2.705
3153.879 2.565 2.485 2.465 2.515 2.375 2.225 2.295 2.325 2.335 2.305
3173.169 2.215 2.145 2.035 1.955 1.935 1.905 1.785 1.645 1.675 1.615
3192.458 1.535 1.475 1.445 1.505 1.425 1.275 1.1585 1.129 1.1625 1.0908
3211.748 1.0995 1.1544 1.0784 0.9799 0.9323 0.8503 0.861 0.9251 0.8141 0.7845
3231.038 0.8242 0.8102 0.7529 0.7253 0.7141 0.6273 0.5061 0.5293 0.6859 0.6513
3250.328 0.5652 0.6078 0.647 0.5668 0.4724 0.4181 0.28374 0.1949 0.33237 0.4635
3269.617 0.469 0.4709 0.4017 0.378 0.4612 0.5495 0.5072 0.272245 0.123 0.1764
3288.907 0.2296 0.32846 0.32499 0.2528 0.2088 0.1809 0.2185 0.148 0.1652 0.2455
3308.197 0.2159 0.054 0.076 0.2376 0.1657 0.176 0.138 0.075 0.2346 0.2477
3327.487 0.14 0.092 0.135 0.2194 0.2355 0.1817 0.157 0.135 0.049 0.086
3346.777 0.11 0.1746 0.2462 0.189 0.068 0.118 0.119 0 0.005 0.072
3366.066 0.2023 0.2461 0.2171 0.236 0.2492 0.2262 0.26022 0.236 0.2388 0.28916
3385.356 0.249 0.1999 0.1922 0.29431 0.31985 0.3652 0.3678 0.233 0.1947 0.1705
3404.646 0.1922 0.265174 0.27503 0.2308 0.32219 0.3731 0.2294 0.1788 0.2399 0.1932
3423.936 0.1957 0.34233 0.29296 0.2474 0.31021 0.30372 0.33127 0.2372 0.2169 0.3673
3443.225 0.35415 0.2293 0.1734 0.087 0.133 0.1708 0.056 0.031 0.129 0.158
3462.515 0.1736 0.25909 0.218 0.18 0.274139 0.29745 0.1856 0.158 0.148 0.1664
3481.805 0.2087 0.2212 0.28648 0.28766 0.129 0.126 0.1848 0.1693 0.179 0.135
3501.095 0.1926 0.2152 0.1774 0.127 0.2161 0.31434 0.2178 0.2496 0.28144 0.2378
3520.385 0.158 0.142 0.2209 0.2082 0.1682 0.1764 0.2809 0.3738 0.34962 0.34862
3539.674 0.27675 0.1887 0.1719 0.105 0.094 0.157 0.2523 0.404 0.3784 0.28388
3558.964 0.34321 0.27821 0.201 0.223 0.2091 0.105 0.153 0.153 0.092 0.13
3578.254 0.129 0.2169 0.2406 0.229 0.1896 0.25543 0.3362 0.264356 0.1666 0.2523
3597.544 0.270249 0.2308 0.29054 0.2516 0.2327 0.2213 0.2401 0.2459 0.2513 0.369
3616.833 0.3772 0.2372 0.2166 0.2393 0.136 0.134 0.128 0.115 0.182 0.082
3636.123 0.043 0.082 0.058 0.131 0.2017 0.2289 0.2324 0.1741 0.106 0.116
3655.413 0.2065 0.2405 0.2489 0.28691 0.27688 0.2255 0.2304 0.2186 0.125 0.112
3674.703 0.2275 0.2129 0.2007 0.30842 0.3047 0.3774 0.3814 0.17 0.101 0.125
3693.993 0.149 0.1974 0.154 0.105 0.2269 0.29477 0.2005 0.238 0.33581 0.413
3713.282 0.3939 0.2217 0.31442 0.34512 0.2298 0.2264 0.1911 0.2024 0.29629 0.4777
3732.572 0.4852 0.432 0.4463 0.3929 0.3868 0.4609 0.4023 0.305 0.31112 0.32108
3751.862 0.4847 0.5758 0.5569 0.5514 0.5184 0.4741 0.4756 0.4757 0.4769 0.5016
3771.152 0.4005 0.3689 0.4268 0.5645 0.5189 0.4046 0.32362 0.29024 0.4499 0.4712
3790.441 0.3789 0.4105 0.4495 0.4524 0.5669 0.6302 0.569 0.5989 0.6857 0.6917
3809.731 0.6102 0.5567 0.5442 0.4123 0.4332 0.5493 0.6225 0.6247 0.4318 0.33023
3829.021 0.4205 0.4555 0.4474 0.4716 0.4246 0.35603 0.4189 0.5168 0.4297 0.3349
3848.311 0.4719 0.5368 0.4875 0.4376 0.4123 0.5611 0.6782 0.593 0.4885 0.5063
3867.601 0.5177 0.435 0.30673 0.4282 0.527 0.5088 0.6272 0.5828 0.6038 0.6679
3886.890 0.6122 0.6484 0.5873 0.4086 0.461 0.5489 0.6218 0.7233 0.7155 0.5389
3906.180 0.5523 0.7614 0.8234 0.7982 0.7006 0.7263 0.7271 0.729 0.7037 0.6848
3925.470 0.7059 0.7017 0.7433 0.7583 0.8576 0.9058 0.8571 0.898 0.8719 0.859
3944.760 0.8963 0.8801 0.8962 0.8489 0.8985 1.0181 1.0034 0.9415 0.8804 0.8265
3964.049 0.8197 0.9186 0.9682 0.9849 1.0237 0.9915 0.9789 0.9423 0.8488 0.8866
3983.339 1.0137 1.0618 1.0579 1.2026 1.263 1.2454 1.365 1.405 1.385 1.285
##END=
