##TITLE=2-Chloro-4-nitrobenzhydrazide
##JCAMP-DX=4.24
##DATA TYPE=INFRARED SPECTRUM
##ORIGIN=EPA-IR VAPOR PHASE LIBRARY
##OWNER=SRD/NIST
Collection (C) 2018 copyright by the U.S. Secretary of Commerce
on behalf of the United States of America. All rights reserved.
##CAS REGISTRY NO=67345-78-2
##MOLFORM=C 7 H 6 Cl N 3 O 3
##$NIST SOURCE=MSDC-IR
##STATE=gas
##XUNITS=1/CM
##YUNITS=ABSORBANCE
##XFACTOR=1.
##YFACTOR=0.001
##DELTAX=1.92898
##FIRSTX=549.8
##LASTX=4000.7
##FIRSTY=2.392
##MAXX=4000.7
##MINX=549.759
##MAXY=0.039232
##MINY=0
##NPOINTS=1790
##XYDATA=(X++(Y..Y))
549.759 2.392 2.482 2.602 2.432 2.272 2.202 2.152 2.282 2.272 2.182
569.049 1.802 1.572 2.012 2.222 2.022 2.072 2.212 1.952 1.812 1.982
588.339 1.992 1.852 1.922 1.872 1.642 1.732 1.762 1.882 2.002 1.922
607.628 1.852 1.752 1.812 1.952 1.792 1.602 1.672 1.812 1.852 1.782
626.918 1.882 1.792 1.542 1.422 1.312 1.392 1.572 1.562 1.522 1.642
646.208 1.682 1.612 1.722 1.772 1.692 1.772 1.862 2.022 2.222 2.392
665.498 2.542 2.382 2.402 2.462 2.362 2.222 2.032 1.872 1.802 1.812
684.787 1.772 1.622 1.692 1.732 1.592 1.482 1.492 1.542 1.702 1.872
704.077 1.902 2.022 2.142 2.272 2.302 2.362 2.462 2.712 3.132 3.542
723.367 4.032 4.642 5.482 6.162 6.672 7.162 7.382 7.422 7.142 6.672
742.657 6.402 6.222 6.192 6.562 7.182 8.412 10.082 11.442 12.222 12.382
761.947 11.962 10.842 9.402 7.652 5.962 4.832 4.142 3.702 3.442 3.332
781.236 3.032 2.822 2.722 2.482 2.312 2.312 2.292 2.202 2.172 2.052
800.526 2.152 2.232 2.152 2.262 2.452 2.522 2.442 2.542 2.662 2.812
819.816 3.152 3.342 3.462 3.702 3.992 4.282 4.692 5.132 5.682 6.282
839.106 6.682 7.092 7.452 7.512 7.132 6.832 6.912 6.742 6.592 6.612
858.395 6.512 6.342 6.172 6.212 6.302 6.212 6.092 6.362 6.652 7.012
877.685 7.642 8.242 8.702 9.122 9.712 10.132 10.442 10.862 10.952 10.772
896.975 10.502 9.972 9.152 8.342 7.542 6.892 6.482 6.332 6.382 6.662
916.265 7.342 8.082 8.892 10.012 11.282 12.502 13.642 14.572 15.182 15.212
935.555 14.812 13.992 12.572 10.942 9.282 7.752 6.562 5.782 5.152 4.682
954.844 4.222 3.872 3.572 3.132 2.872 2.662 2.462 2.412 2.312 2.282
974.134 2.222 2.012 1.772 1.792 1.882 1.832 1.722 1.542 1.472 1.472
993.424 1.502 1.602 1.612 1.492 1.492 1.412 1.332 1.452 1.442 1.332
1012.714 1.332 1.462 1.512 1.322 1.362 1.482 1.622 1.732 1.762 1.802
1032.003 1.862 2.382 3.022 3.382 3.792 4.272 4.502 4.792 4.872 4.522
1051.293 4.352 3.852 3.172 2.812 2.662 2.582 2.232 1.792 1.752 2.092
1070.583 2.122 1.762 1.642 1.882 2.192 1.922 1.762 1.872 1.742 1.772
1089.873 1.802 1.922 1.822 1.842 1.952 2.022 2.022 2.322 2.732 3.032
1109.163 3.552 3.632 4.172 4.742 4.672 4.672 4.732 4.992 4.932 4.652
1128.452 4.542 4.592 4.552 4.032 3.872 3.982 3.762 3.342 2.972 2.682
1147.742 2.582 2.252 1.852 1.922 1.862 1.792 1.672 1.482 1.632 1.942
1167.032 2.002 2.002 1.952 1.932 1.992 1.972 2.152 2.422 2.382 2.082
1186.322 1.852 1.842 1.982 1.942 1.852 1.862 1.972 1.992 1.742 1.832
1205.611 2.092 1.872 1.732 1.722 1.692 2.182 2.342 2.422 2.652 2.442
1224.901 2.602 2.672 2.712 3.092 3.402 3.792 4.402 4.982 5.752 6.402
1244.191 6.672 6.732 6.512 6.232 5.712 5.272 5.172 5.162 5.122 5.262
1263.481 5.732 6.372 7.172 8.112 9.382 10.962 12.662 14.262 15.742 17.062
1282.771 17.932 18.002 17.252 16.002 14.342 12.292 10.212 8.402 7.052 6.102
1302.060 5.412 4.932 4.672 4.572 4.572 4.612 4.742 4.962 5.272 5.692
1321.350 6.182 6.812 7.702 8.882 10.422 12.372 14.792 17.802 21.322 25.142
1340.640 29.072 32.452 34.832 35.972 35.702 33.992 31.082 27.452 23.692 20.312
1359.930 17.532 15.362 13.722 12.592 11.792 11.132 10.612 10.232 9.862 9.612
1379.219 9.392 9.092 8.732 8.292 7.852 7.422 6.942 6.382 5.902 5.582
1398.509 5.312 5.082 4.932 4.872 4.782 4.682 4.682 4.752 4.872 5.042
1417.799 5.292 5.682 6.152 6.752 7.432 8.112 9.002 10.102 11.292 12.452
1437.089 13.742 14.982 16.022 16.812 17.292 17.482 17.352 16.912 16.232 15.472
1456.378 14.742 14.112 13.612 13.192 12.842 12.562 12.332 12.052 11.702 11.442
1475.668 11.292 11.242 11.312 11.432 11.702 11.962 12.222 12.612 12.962 13.212
1494.958 13.372 13.522 13.632 13.612 13.532 13.362 13.022 12.822 12.852 12.862
1514.248 12.862 12.992 13.282 13.682 14.332 15.192 16.362 17.962 19.952 22.362
1533.538 25.172 28.382 31.532 34.552 37.182 38.812 39.232 38.512 36.682 33.752
1552.827 30.032 25.662 21.702 18.162 15.232 13.162 11.582 10.562 9.942 9.692
1572.117 9.762 9.922 10.322 10.912 11.592 12.342 12.982 13.462 13.672 13.722
1591.407 13.552 13.182 12.502 11.652 10.872 10.012 9.192 8.452 7.852 7.382
1610.697 7.112 6.972 6.882 7.002 7.212 7.452 7.822 8.272 8.622 8.982
1629.986 9.312 9.522 9.552 9.412 9.272 9.032 8.682 8.242 7.732 7.272
1649.276 6.842 6.492 6.192 6.042 6.012 6.022 6.162 6.332 6.512 6.772
1668.566 7.172 7.672 8.282 8.902 9.642 10.462 11.312 12.172 13.202 14.452
1687.856 15.782 17.372 19.102 20.802 22.742 24.622 26.092 27.412 27.982 27.962
1707.146 27.482 26.672 25.612 24.412 23.232 22.032 20.702 19.432 17.872 16.062
1726.435 14.252 12.482 10.752 9.242 7.822 6.722 5.912 5.122 4.492 4.012
1745.725 3.652 3.322 3.042 2.822 2.652 2.492 2.362 2.282 2.232 2.112
1765.015 2.012 1.962 1.932 1.912 1.812 1.792 1.782 1.752 1.762 1.732
1784.305 1.662 1.642 1.662 1.632 1.532 1.522 1.512 1.432 1.352 1.292
1803.594 1.232 1.1589 1.1046 1.0649 1.0009 0.92 0.8784 0.8517 0.8076 0.8074
1822.884 0.7753 0.6899 0.6963 0.6701 0.66 0.6916 0.6423 0.6824 0.6984 0.6641
1842.174 0.6436 0.6201 0.632 0.6163 0.5979 0.5977 0.6215 0.6119 0.5873 0.6161
1861.464 0.6063 0.61 0.5924 0.5712 0.633 0.6537 0.6598 0.6898 0.6651 0.6009
1880.754 0.6243 0.6684 0.6422 0.5946 0.5928 0.6214 0.6324 0.6621 0.6797 0.6989
1900.043 0.7202 0.73 0.7774 0.7654 0.7286 0.7595 0.7527 0.759 0.7658 0.7494
1919.333 0.798 0.7712 0.7248 0.7841 0.7933 0.7214 0.7345 0.7777 0.7537 0.6823
1938.623 0.6713 0.6857 0.6607 0.6416 0.6093 0.5753 0.5469 0.5164 0.4927 0.5199
1957.913 0.4931 0.4305 0.4297 0.4344 0.4792 0.5104 0.4893 0.4673 0.463 0.4749
1977.202 0.4595 0.4143 0.4501 0.4729 0.448 0.4539 0.4313 0.4466 0.4557 0.4575
1996.492 0.4725 0.4584 0.4513 0.4602 0.4602 0.4573 0.4649 0.4106 0.4204 0.4888
2015.782 0.4692 0.4485 0.4264 0.4302 0.428 0.4247 0.4482 0.4341 0.3824 0.351
2035.072 0.3359 0.3332 0.3518 0.4014 0.462 0.4692 0.4542 0.4587 0.455 0.4032
2054.362 0.3704 0.3735 0.3455 0.3431 0.3615 0.3466 0.3856 0.432 0.4191 0.3909
2073.651 0.3742 0.4024 0.4262 0.419 0.4537 0.4223 0.3978 0.3912 0.3367 0.357
2092.941 0.3823 0.3987 0.4105 0.3781 0.3463 0.3482 0.3915 0.3955 0.366 0.3863
2112.231 0.3996 0.3779 0.392 0.4608 0.4544 0.3935 0.3559 0.379 0.3692 0.3407
2131.521 0.3714 0.3949 0.4486 0.4691 0.4722 0.4061 0.3594 0.4235 0.4022 0.3878
2150.810 0.3899 0.3829 0.4382 0.4466 0.4245 0.4118 0.4283 0.4218 0.4009 0.4193
2170.100 0.4027 0.3719 0.3788 0.3946 0.4301 0.4326 0.399 0.3805 0.3618 0.4101
2189.390 0.4052 0.3904 0.4192 0.4292 0.4108 0.4105 0.4088 0.3761 0.3792 0.3787
2208.680 0.3764 0.3861 0.4162 0.4083 0.4356 0.408 0.32905 0.3507 0.4209 0.4691
2227.970 0.4695 0.4444 0.4298 0.3696 0.3869 0.4559 0.4772 0.4687 0.4124 0.4176
2247.259 0.4221 0.4177 0.4299 0.4366 0.4022 0.3923 0.4204 0.4072 0.4537 0.4597
2266.549 0.3629 0.3937 0.4538 0.4353 0.3999 0.3974 0.3781 0.3478 0.381 0.3926
2285.839 0.3553 0.30504 0.28841 0.32808 0.3851 0.421 0.4223 0.4193 0.4282 0.3748
2305.129 0.3663 0.3748 0.4006 0.4384 0.3889 0.3808 0.4491 0.453 0.4138 0.3845
2324.418 0.3829 0.391 0.3593 0.4278 0.4701 0.4669 0.4594 0.4463 0.4562 0.3926
2343.708 0.4382 0.4738 0.4558 0.405 0.3777 0.4367 0.4527 0.4452 0.4368 0.3944
2362.998 0.3768 0.4356 0.4152 0.3868 0.379 0.3758 0.415 0.3989 0.4009 0.4781
2382.288 0.4454 0.3986 0.3894 0.3625 0.3445 0.3442 0.3862 0.4713 0.4572 0.3766
2401.578 0.4154 0.421 0.4102 0.4512 0.4699 0.4603 0.3891 0.387 0.4654 0.4512
2420.867 0.4574 0.4818 0.4689 0.478 0.471 0.4339 0.4173 0.4506 0.4824 0.5003
2440.157 0.4892 0.4539 0.4213 0.4552 0.4508 0.3944 0.4313 0.4276 0.4196 0.4869
2459.447 0.4741 0.4548 0.4682 0.4559 0.4412 0.4571 0.4645 0.4915 0.5323 0.4898
2478.737 0.4593 0.4585 0.5117 0.5466 0.5191 0.4736 0.421 0.417 0.3854 0.3861
2498.026 0.3914 0.334 0.3891 0.4756 0.4242 0.4256 0.4748 0.4514 0.4387 0.4097
2517.316 0.4239 0.4685 0.4624 0.4616 0.4853 0.517 0.5393 0.4836 0.452 0.5087
2536.606 0.5541 0.5202 0.5038 0.5325 0.5226 0.4897 0.4358 0.4258 0.4359 0.4273
2555.896 0.4771 0.4811 0.4068 0.3957 0.4215 0.4104 0.4565 0.5431 0.5379 0.5536
2575.186 0.5226 0.4413 0.4985 0.5541 0.4869 0.4728 0.4478 0.3886 0.4245 0.45
2594.475 0.4538 0.4546 0.4741 0.4291 0.3771 0.4222 0.4413 0.4368 0.4376 0.4008
2613.765 0.388 0.3676 0.3605 0.3597 0.31788 0.3538 0.4184 0.4949 0.5325 0.4605
2633.055 0.4457 0.4774 0.4368 0.3651 0.4062 0.4185 0.4103 0.4627 0.4431 0.396
2652.345 0.4158 0.4425 0.4212 0.4596 0.5089 0.5537 0.5538 0.4327 0.385 0.5029
2671.634 0.5765 0.5907 0.5734 0.5699 0.5741 0.6108 0.6536 0.6631 0.6556 0.6278
2690.924 0.6918 0.7027 0.6496 0.6436 0.6692 0.6852 0.6283 0.5576 0.6219 0.6543
2710.214 0.637 0.6075 0.5537 0.6121 0.6206 0.5485 0.4886 0.5253 0.6261 0.6042
2729.504 0.4843 0.4283 0.4592 0.4941 0.4649 0.4391 0.4802 0.5214 0.5378 0.5197
2748.794 0.4582 0.4647 0.471 0.3796 0.3289 0.3531 0.4228 0.45 0.4448 0.4595
2768.083 0.4733 0.4645 0.5 0.4963 0.3867 0.3444 0.31743 0.4108 0.4919 0.4381
2787.373 0.4721 0.4324 0.3787 0.3925 0.4082 0.4596 0.4382 0.4395 0.4605 0.483
2806.663 0.5091 0.5006 0.5572 0.5425 0.4812 0.5301 0.5899 0.5556 0.4774 0.5524
2825.953 0.6306 0.6326 0.6299 0.5898 0.6366 0.7082 0.6934 0.6875 0.7261 0.7814
2845.242 0.7497 0.7266 0.762 0.7579 0.7882 0.836 0.8548 0.8622 0.8439 0.8716
2864.532 0.9238 0.9471 1.0744 1.0788 1.0175 1.0388 1.0261 0.9756 0.9795 1.056
2883.822 1.1016 1.0903 0.9749 0.9161 0.9228 0.8759 0.872 0.8865 0.7942 0.7592
2903.112 0.8352 0.7956 0.7413 0.7727 0.8587 0.8299 0.7222 0.7869 0.8246 0.7422
2922.401 0.7114 0.6988 0.7167 0.7635 0.7625 0.8064 0.8538 0.9117 0.903 0.9275
2941.691 0.9855 0.9863 0.9497 0.9112 0.8509 0.8027 0.7926 0.6985 0.7232 0.7913
2960.981 0.6782 0.6364 0.6747 0.6569 0.6281 0.5757 0.6376 0.6668 0.6526 0.6444
2980.271 0.677 0.7402 0.6251 0.518 0.641 0.7064 0.6667 0.6299 0.6337 0.6677
2999.561 0.5832 0.5676 0.6405 0.6535 0.645 0.6331 0.631 0.6197 0.6651 0.6528
3018.850 0.5208 0.4387 0.4727 0.5242 0.5585 0.5494 0.4634 0.5325 0.6544 0.7012
3038.140 0.6815 0.6614 0.6751 0.632 0.6523 0.6557 0.6183 0.5858 0.5668 0.6479
3057.430 0.6486 0.6463 0.7317 0.7747 0.797 0.7466 0.7022 0.6867 0.6784 0.7795
3076.720 0.8461 0.8821 0.9953 1.0807 1.0831 1.0982 1.1318 1.1691 1.282 1.392
3096.009 1.462 1.552 1.692 1.742 1.752 1.812 1.792 1.712 1.572 1.342
3115.299 1.2287 1.1186 0.988 0.8443 0.7046 0.6519 0.5702 0.4769 0.4406 0.5098
3134.589 0.5576 0.5291 0.3882 0.45 0.5728 0.3997 0.28292 0.31792 0.4187 0.4453
3153.879 0.3798 0.347 0.4459 0.5569 0.5247 0.5318 0.5329 0.4685 0.4742 0.58
3173.169 0.5912 0.5143 0.5415 0.5185 0.503 0.5632 0.5981 0.5712 0.537 0.6105
3192.458 0.6656 0.6224 0.5697 0.6197 0.7022 0.7461 0.8333 0.8616 0.7741 0.7055
3211.748 0.6305 0.5442 0.6309 0.7363 0.6623 0.6358 0.6505 0.5693 0.5734 0.6655
3231.038 0.6429 0.5826 0.5586 0.517 0.6183 0.6552 0.4642 0.5043 0.6245 0.5516
3250.328 0.5483 0.5259 0.5606 0.5335 0.4016 0.434 0.4646 0.4666 0.4952 0.5025
3269.617 0.384 0.32193 0.4727 0.5225 0.5016 0.5488 0.5573 0.5283 0.5676 0.5718
3288.907 0.4287 0.3986 0.4965 0.5821 0.5158 0.4308 0.4714 0.4844 0.5238 0.5786
3308.197 0.5428 0.4938 0.4806 0.4747 0.4106 0.4376 0.5153 0.5194 0.5023 0.5933
3327.487 0.6675 0.6578 0.7039 0.685 0.6485 0.6835 0.6972 0.6634 0.65 0.7237
3346.777 0.9148 0.9173 0.9399 0.9768 0.8909 0.9178 0.9511 0.9689 0.9719 0.911
3366.066 0.8446 0.7306 0.766 0.9386 0.9174 0.868 0.9509 0.9919 0.9155 0.885
3385.356 0.8275 0.8465 0.9636 0.9865 0.9239 0.888 0.9348 0.9768 1.0726 1.0534
3404.646 1.036 1.1237 1.1373 1.1249 1.0841 1.074 1.1343 1.1931 1.242 1.302
3423.936 1.372 1.472 1.652 1.822 2.042 2.192 2.372 2.612 2.802 2.982
3443.225 3.182 3.482 3.852 4.262 4.432 4.642 5.022 5.442 5.922 6.112
3462.515 6.332 6.432 6.322 6.242 5.992 5.802 5.622 5.232 4.912 4.462
3481.805 4.062 3.802 3.442 3.152 2.952 2.802 2.632 2.342 2.042 1.802
3501.095 1.592 1.342 1.242 1.1325 1.0279 1.0265 0.9625 0.8346 0.7416 0.6374
3520.385 0.7016 0.8316 0.6072 0.5151 0.5941 0.5917 0.5773 0.4914 0.4757 0.5211
3539.674 0.6374 0.6007 0.4883 0.4256 0.361 0.4169 0.4234 0.4812 0.4721 0.3551
3558.964 0.4101 0.5243 0.4466 0.27459 0.27885 0.404 0.4194 0.4842 0.5094 0.4737
3578.254 0.5067 0.5119 0.5353 0.4818 0.4691 0.5201 0.5772 0.5606 0.387 0.28909
3597.544 0.4218 0.3834 0.24421 0.3817 0.442 0.3688 0.3425 0.3582 0.3746 0.28538
3616.833 0.1908 0.3362 0.4039 0.371 0.3608 0.25383 0.22261 0.27238 0.3367 0.32892
3636.123 0.23093 0.31971 0.4903 0.4591 0.346 0.25221 0.30158 0.3955 0.4019 0.3899
3655.413 0.30415 0.26897 0.28429 0.29218 0.235459 0.1771 0.235497 0.26795 0.24924 0.25402
3674.703 0.2751 0.3588 0.4378 0.4364 0.3707 0.3639 0.3443 0.30582 0.29369 0.29087
3693.993 0.27671 0.2041 0.1812 0.2104 0.27378 0.23017 0.1842 0.117 0.131 0.2145
3713.282 0.2204 0.3372 0.42 0.3639 0.28063 0.31092 0.4284 0.4805 0.4795 0.3992
3732.572 0.3756 0.30163 0.2199 0.32701 0.26094 0.2009 0.2016 0.2028 0.22732 0.1922
3751.862 0.27922 0.3745 0.3794 0.3388 0.30069 0.27852 0.24284 0.27483 0.3517 0.3007
3771.152 0.32642 0.4467 0.4761 0.4809 0.3714 0.29514 0.377 0.3713 0.32138 0.4447
3790.441 0.5996 0.5792 0.46 0.3902 0.31818 0.25006 0.24964 0.28053 0.27214 0.30791
3809.731 0.3792 0.4196 0.4809 0.4113 0.3517 0.30438 0.235135 0.3451 0.29366 0.30936
3829.021 0.3651 0.29146 0.25928 0.24584 0.3308 0.4746 0.5083 0.4766 0.4238 0.30745
3848.311 0.26922 0.28823 0.23023 0.26806 0.3537 0.32398 0.29713 0.3419 0.3731 0.29526
3867.601 0.1986 0.26213 0.3871 0.3426 0.30652 0.1572 0.086 0.247 0.33091 0.3936
3886.890 0.27845 0.24551 0.32748 0.3334 0.31885 0.30203 0.29475 0.29763 0.32576 0.30785
3906.180 0.3408 0.396 0.3665 0.27059 0.29873 0.3667 0.3716 0.29061 0.3764 0.4619
3925.470 0.3835 0.25128 0.059 0 0.084 0.2178 0.32106 0.24857 0.102 0.1556
3944.760 0.235785 0.2841 0.27644 0.29799 0.32788 0.3807 0.3433 0.3395 0.3641 0.321
3964.049 0.3755 0.30847 0.265 0.3458 0.3747 0.30534 0.25449 0.31776 0.33126 0.2089
3983.339 0.1362 0.1946 0.239975 0.22647 0.3615 0.5173 0.4225 0.232391 0.24277 0.3404
##END=
