##TITLE=p-Cyanobenzylidene p-nonyloxyaniline
##JCAMP-DX=4.24
##DATA TYPE=INFRARED SPECTRUM
##ORIGIN=EPA-IR VAPOR PHASE LIBRARY
##OWNER=SRD/NIST
Collection (C) 2018 copyright by the U.S. Secretary of Commerce
on behalf of the United States of America. All rights reserved.
##CAS REGISTRY NO=67363-89-7
##MOLFORM=C 23 H 28 N 2 O
##$NIST SOURCE=MSDC-IR
##STATE=gas
##XUNITS=1/CM
##YUNITS=ABSORBANCE
##XFACTOR=1.
##YFACTOR=0.001
##DELTAX=1.92898
##FIRSTX=549.8
##LASTX=4000.7
##FIRSTY=1.988
##MAXX=4000.7
##MINX=549.759
##MAXY=0.017748
##MINY=0
##NPOINTS=1790
##XYDATA=(X++(Y..Y))
549.759 1.988 2.088 2.278 2.168 1.918 1.758 1.308 1.03 1.1323 0.9545
569.049 0.4442 0.4271 0.7799 0.8259 0.7428 0.5081 0.24086 0.3232 0.6286 0.6792
588.339 0.493 0.4743 0.517 0.4749 0.5106 0.4424 0.3514 0.5399 0.5735 0.253
607.628 0.155 0.21874 0.20179 0.2837 0.3805 0.18391 0.026 0.067 0.0841 0.1008
626.918 0.154 0.20652 0.1406 0.118 0.0719 0.041 0.22675 0.23483 0.034 0.026
646.208 0.1162 0.1223 0.23841 0.3994 0.21288 0.034 0.18114 0.2304 0.18906 0.16509
665.498 0.1295 0.3071 0.4061 0.24244 0.16144 0.23265 0.3254 0.4298 0.4657 0.3958
684.787 0.2905 0.19648 0.24367 0.25524 0.20352 0.23494 0.24974 0.3727 0.3646 0.3583
704.077 0.4638 0.4883 0.4447 0.4398 0.5106 0.5284 0.5578 0.5686 0.5753 0.6551
723.367 0.7275 0.7046 0.7354 0.6726 0.5936 0.5603 0.5161 0.5865 0.5989 0.5552
742.657 0.5342 0.5514 0.5946 0.658 0.5193 0.3912 0.4701 0.6265 0.5673 0.4138
761.947 0.5048 0.6575 0.727 0.6978 0.6971 0.7119 0.9077 1.0071 0.987 0.9993
781.236 0.8637 0.8326 0.9374 0.9235 0.9608 1.0238 1.1115 1.218 1.106 1.0233
800.526 1.1615 1.117 1.1284 1.188 1.178 1.238 1.418 1.618 1.798 2.048
819.816 2.178 2.408 2.848 3.288 3.548 3.968 4.438 4.678 4.848 4.868
839.106 4.788 4.508 4.128 3.708 3.318 3.098 2.768 2.418 2.138 1.928
858.395 1.878 1.678 1.588 1.518 1.248 1.288 1.468 1.398 1.348 1.418
877.685 1.528 1.678 1.628 1.388 1.268 1.288 1.218 1.0847 0.9155 0.8018
896.975 0.8026 0.7921 0.7418 0.6778 0.7599 0.7921 0.6235 0.6177 0.7248 0.7475
916.265 0.7606 0.8341 0.9162 0.8966 0.8439 0.8952 0.9011 0.8146 0.855 0.9035
935.555 0.91 1.0004 1.0255 1.0096 1.0352 1.0007 0.8861 0.8072 0.8217 0.8902
954.844 0.9156 0.9747 1.0055 0.9914 0.9834 1.0293 1.178 1.238 1.1425 1.152
974.134 1.338 1.388 1.398 1.408 1.438 1.558 1.498 1.338 1.458 1.728
993.424 1.718 1.608 1.658 1.848 2.028 2.078 2.218 2.408 2.578 2.598
1012.714 2.358 2.418 2.878 3.038 2.948 2.948 2.958 2.908 2.888 2.788
1032.003 2.758 2.858 2.868 2.828 2.728 2.518 2.498 2.768 2.748 2.508
1051.293 2.528 2.358 2.148 2.138 1.908 1.878 1.878 1.698 1.658 1.498
1070.583 1.248 1.1467 0.9227 0.891 1.0495 1.178 1.178 0.9761 0.8643 0.8776
1089.873 0.8032 0.813 0.9104 0.7703 0.6985 0.841 1.1186 1.278 1.198 1.228
1109.163 1.188 0.8066 0.5417 0.7324 0.8337 0.5779 0.3905 0.5833 0.9634 0.9666
1128.452 0.6454 0.5977 0.7428 0.8039 0.7651 0.7076 0.7227 0.8627 1.0606 1.0987
1147.742 0.9968 0.9212 1.1605 1.658 2.228 2.898 3.588 3.838 3.648 3.278
1167.032 3.208 3.338 3.528 3.278 2.518 2.068 1.898 2.218 2.798 3.508
1186.322 4.328 4.598 4.538 4.448 3.928 3.508 3.378 3.268 3.358 3.358
1205.611 3.568 3.998 4.278 4.618 5.048 5.718 6.428 7.458 8.738 9.628
1224.901 10.398 11.368 12.408 13.388 14.328 15.378 16.048 16.628 17.188 16.938
1244.191 16.198 15.098 13.408 11.608 9.988 8.478 7.308 6.478 5.938 5.448
1263.481 5.098 5.028 5.018 5.068 5.238 5.358 5.518 5.778 5.918 5.978
1282.771 5.948 5.718 5.438 5.108 4.788 4.518 4.208 3.978 3.878 3.808
1302.060 3.778 3.828 3.728 3.368 2.968 2.618 2.228 1.978 1.808 1.638
1321.350 1.548 1.488 1.388 1.298 1.258 1.248 1.288 1.238 1.1646 1.218
1340.640 1.228 1.258 1.288 1.318 1.348 1.388 1.448 1.518 1.608 1.708
1359.930 1.728 1.678 1.668 1.588 1.488 1.448 1.418 1.438 1.478 1.498
1379.219 1.558 1.678 1.808 1.878 1.868 1.778 1.638 1.518 1.408 1.278
1398.509 1.168 1.1242 1.1004 1.0728 1.0303 1.0164 1.0322 0.9956 0.9351 0.932
1417.799 0.9285 0.9023 0.9053 0.8715 0.8219 0.8235 0.8285 0.8575 0.9446 1.0265
1437.089 1.1062 1.178 1.268 1.348 1.428 1.568 1.718 1.858 2.048 2.188
1456.378 2.308 2.448 2.588 2.738 2.988 3.318 3.708 4.178 4.628 4.818
1475.668 4.678 4.298 3.848 3.458 3.348 3.558 3.928 4.668 5.798 7.378
1494.958 9.538 12.248 14.948 16.998 17.748 17.118 15.278 12.578 9.548 6.778
1514.248 4.828 3.538 2.748 2.308 1.988 1.758 1.588 1.438 1.328 1.238
1533.538 1.0882 0.9798 1.0221 1.0308 0.945 0.9024 0.8596 0.859 0.8889 0.9378
1552.827 0.9764 1.003 1.1093 1.248 1.338 1.428 1.598 1.688 1.698 1.778
1572.117 1.898 1.998 2.098 2.158 2.148 2.168 2.208 2.318 2.618 2.888
1591.407 3.118 3.318 3.408 3.368 3.108 2.768 2.428 2.088 1.838 1.788
1610.697 1.838 1.878 2.068 2.418 2.808 3.348 4.118 4.958 5.628 5.878
1629.986 5.628 4.998 4.188 3.438 2.818 2.348 1.998 1.708 1.518 1.388
1649.276 1.248 1.188 1.1534 1.031 0.9735 0.9553 0.8557 0.7312 0.7101 0.7153
1668.566 0.6936 0.6915 0.6602 0.614 0.6044 0.6056 0.6109 0.5682 0.5124 0.5071
1687.856 0.4828 0.4385 0.4025 0.4478 0.443 0.4298 0.4896 0.457 0.4241 0.4377
1707.146 0.3827 0.3543 0.3965 0.3679 0.3547 0.3714 0.3707 0.365 0.3634 0.3804
1726.435 0.3658 0.3813 0.4088 0.4266 0.4714 0.4932 0.4786 0.4972 0.5309 0.4838
1745.725 0.4447 0.4617 0.4582 0.422 0.4437 0.4585 0.4016 0.34 0.327 0.3666
1765.015 0.4135 0.4403 0.3945 0.3739 0.4169 0.4084 0.391 0.3727 0.3076 0.2752
1784.305 0.3103 0.3629 0.3372 0.3012 0.323 0.3198 0.3439 0.3103 0.25153 0.2761
1803.594 0.3273 0.3834 0.375 0.3563 0.3707 0.3612 0.3472 0.3083 0.24606 0.26201
1822.884 0.3164 0.3031 0.25341 0.2732 0.3125 0.2895 0.26631 0.3001 0.3272 0.3171
1842.174 0.3278 0.3162 0.2976 0.295 0.2911 0.3002 0.2821 0.3039 0.3473 0.3785
1861.464 0.3768 0.3735 0.3881 0.3767 0.4111 0.4096 0.3859 0.4257 0.434 0.3654
1880.754 0.3702 0.4042 0.4109 0.4201 0.3776 0.4161 0.4244 0.38 0.3776 0.3656
1900.043 0.3882 0.3769 0.3995 0.3928 0.3659 0.3913 0.3629 0.3427 0.3742 0.4037
1919.333 0.4158 0.3945 0.3732 0.356 0.3448 0.3586 0.3803 0.3852 0.3828 0.3834
1938.623 0.3958 0.3916 0.3114 0.3245 0.3579 0.3581 0.3774 0.3506 0.3263 0.2928
1957.913 0.2725 0.3004 0.3629 0.3944 0.3564 0.3035 0.23269 0.26286 0.3336 0.3023
1977.202 0.2682 0.2696 0.3098 0.3142 0.3016 0.3164 0.3343 0.3284 0.26384 0.285
1996.492 0.3184 0.2985 0.3429 0.3617 0.363 0.3664 0.3516 0.3795 0.3954 0.3428
2015.782 0.3362 0.3462 0.3475 0.3601 0.3407 0.3397 0.3555 0.3567 0.3226 0.3096
2035.072 0.3458 0.3451 0.3461 0.3516 0.333 0.3528 0.3717 0.3494 0.3341 0.3618
2054.362 0.3688 0.3484 0.3214 0.315 0.3204 0.3357 0.3248 0.3295 0.3126 0.2788
2073.651 0.3139 0.3096 0.2898 0.3064 0.2877 0.285 0.2911 0.26614 0.296 0.3146
2092.941 0.2794 0.24502 0.24053 0.21949 0.22971 0.2148 0.19311 0.19638 0.1912 0.19076
2112.231 0.16031 0.18794 0.20931 0.21708 0.19187 0.1561 0.18908 0.18747 0.19083 0.168669
2131.521 0.1395 0.1425 0.1541 0.1499 0.1381 0.1509 0.1515 0.19986 0.24026 0.19016
2150.810 0.171147 0.23262 0.23886 0.2205 0.20729 0.174384 0.16403 0.19046 0.19305 0.20209
2170.100 0.21463 0.20131 0.21209 0.21291 0.18709 0.19718 0.23397 0.19357 0.1528 0.16438
2189.390 0.19959 0.20928 0.20031 0.21827 0.22187 0.18427 0.15953 0.18263 0.19929 0.227
2208.680 0.23882 0.23812 0.2799 0.3108 0.3826 0.4672 0.5213 0.6269 0.7917 1.0634
2227.970 1.418 1.738 1.878 1.718 1.338 0.9654 0.6524 0.4762 0.4236 0.336
2247.259 0.289 0.2813 0.26075 0.22992 0.20422 0.21709 0.24992 0.23136 0.25948 0.3173
2266.549 0.2769 0.24893 0.21118 0.18567 0.23282 0.18219 0.1477 0.176805 0.20197 0.21126
2285.839 0.23588 0.24717 0.19744 0.16554 0.16308 0.175525 0.16649 0.1346 0.168011 0.22045
2305.129 0.21076 0.23303 0.26471 0.21466 0.169879 0.18714 0.21302 0.24492 0.23704 0.25123
2324.418 0.26223 0.21314 0.19349 0.19591 0.19114 0.21988 0.2461 0.273 0.2803 0.23384
2343.708 0.20645 0.22479 0.25564 0.24821 0.24076 0.2771 0.2915 0.294 0.3327 0.3431
2362.998 0.3217 0.2714 0.24426 0.25506 0.2726 0.3337 0.3857 0.3557 0.3032 0.22713
2382.288 0.19007 0.2469 0.2933 0.26275 0.2787 0.2837 0.2456 0.2803 0.3143 0.319
2401.578 0.26758 0.23437 0.22057 0.23985 0.2157 0.20798 0.2598 0.22247 0.20033 0.20741
2420.867 0.21104 0.2299 0.2536 0.23728 0.2612 0.2976 0.2698 0.2891 0.24302 0.19293
2440.157 0.22354 0.24297 0.2775 0.25855 0.25799 0.3058 0.3275 0.362 0.3516 0.3551
2459.447 0.3206 0.2712 0.2885 0.3139 0.2909 0.2828 0.321 0.3352 0.3113 0.25988
2478.737 0.25562 0.25415 0.24097 0.24226 0.2696 0.2872 0.3054 0.3318 0.3648 0.2928
2498.026 0.2839 0.3186 0.23078 0.23742 0.3078 0.3056 0.2935 0.3286 0.3616 0.3387
2517.316 0.3295 0.3223 0.3543 0.4306 0.4454 0.4485 0.3734 0.3566 0.3569 0.3557
2536.606 0.3915 0.3585 0.363 0.3856 0.3586 0.3421 0.3262 0.2757 0.2681 0.2804
2555.896 0.3021 0.3035 0.2779 0.2955 0.3117 0.2989 0.273 0.2916 0.3018 0.24247
2575.186 0.26047 0.3458 0.3145 0.3117 0.3431 0.3213 0.3862 0.3866 0.2922 0.24762
2594.475 0.20485 0.18078 0.18622 0.177522 0.20831 0.2868 0.2946 0.2886 0.2981 0.25997
2613.765 0.21134 0.23407 0.2799 0.24722 0.25379 0.2812 0.24202 0.24535 0.298 0.2968
2633.055 0.2753 0.22819 0.19751 0.20367 0.2294 0.3272 0.3284 0.2716 0.24545 0.24252
2652.345 0.3099 0.3272 0.3571 0.3869 0.338 0.3235 0.3781 0.3843 0.3411 0.3052
2671.634 0.2935 0.3042 0.364 0.4228 0.4274 0.3827 0.3388 0.3604 0.3319 0.3429
2690.924 0.409 0.4148 0.3748 0.3599 0.3547 0.3589 0.3201 0.26144 0.3246 0.3724
2710.214 0.3483 0.3906 0.4113 0.3681 0.4164 0.4817 0.4497 0.4462 0.421 0.3636
2729.504 0.4018 0.4578 0.4513 0.4435 0.4879 0.4938 0.513 0.529 0.4714 0.4496
2748.794 0.4995 0.5421 0.5502 0.553 0.5458 0.5199 0.5184 0.5331 0.5685 0.5743
2768.083 0.5657 0.5536 0.4748 0.4934 0.5222 0.5222 0.5024 0.445 0.488 0.5041
2787.373 0.4564 0.4721 0.5342 0.5801 0.6039 0.6014 0.5992 0.6584 0.7032 0.6981
2806.663 0.7125 0.8024 0.8467 0.8382 0.901 0.9214 0.9483 1.0109 1.0823 1.0927
2825.953 1.1011 1.208 1.288 1.278 1.358 1.508 1.578 1.708 1.888 2.068
2845.242 2.368 2.718 3.048 3.478 3.958 4.448 5.058 5.618 6.018 6.468
2864.532 6.788 6.858 6.768 6.638 6.508 6.408 6.358 6.268 6.108 5.948
2883.822 5.778 5.578 5.368 5.178 5.028 4.958 4.978 5.048 5.178 5.208
2903.112 5.338 5.618 5.938 6.458 6.978 7.418 8.098 8.738 9.358 10.078
2922.401 10.888 11.818 12.848 13.858 14.498 15.008 15.348 15.288 14.998 14.438
2941.691 13.698 12.898 12.088 11.358 10.578 9.758 9.148 8.638 8.088 7.788
2960.981 7.668 7.578 7.528 7.298 6.928 6.428 5.828 5.188 4.538 4.038
2980.271 3.568 3.168 2.828 2.478 2.298 2.158 1.938 1.728 1.628 1.578
2999.561 1.488 1.448 1.398 1.368 1.318 1.188 1.1359 1.0937 1.109 1.1089
3018.850 1.096 1.0445 0.9964 1.0535 1.0992 1.0797 1.168 1.258 1.368 1.608
3038.140 1.748 1.838 1.868 1.788 1.628 1.488 1.358 1.168 1.0103 0.8619
3057.430 0.8277 0.9268 0.9407 0.9496 1.0217 1.0839 1.138 1.278 1.318 1.268
3076.720 1.278 1.188 1.0778 1.066 1.0774 1.0754 1.1413 1.208 1.0943 1.0675
3096.009 1.1208 1.0757 1.007 0.9048 0.7429 0.7314 0.8441 0.7749 0.6689 0.7044
3115.299 0.6982 0.6059 0.5708 0.5598 0.5418 0.5145 0.4898 0.5416 0.5515 0.5122
3134.589 0.4193 0.3026 0.24586 0.3074 0.3944 0.3857 0.3797 0.3476 0.4075 0.4228
3153.879 0.3933 0.395 0.3113 0.366 0.4959 0.4527 0.3879 0.4036 0.3716 0.4177
3173.169 0.4507 0.3795 0.2869 0.3136 0.3729 0.387 0.4421 0.4039 0.3721 0.3477
3192.458 0.2996 0.3035 0.2902 0.2716 0.4276 0.5027 0.3334 0.2928 0.3371 0.3322
3211.748 0.3924 0.4358 0.4091 0.3329 0.2857 0.25504 0.22914 0.2697 0.3298 0.3156
3231.038 0.26615 0.26628 0.2766 0.2843 0.3079 0.2926 0.25244 0.23177 0.20673 0.22018
3250.328 0.20855 0.19842 0.18642 0.177899 0.1491 0.1136 0.24677 0.24785 0.1407 0.19539
3269.617 0.18036 0.16249 0.25802 0.22771 0.18846 0.18753 0.17849 0.22879 0.22766 0.25142
3288.907 0.2873 0.3193 0.3532 0.3928 0.3736 0.3023 0.23067 0.18613 0.18862 0.1004
3308.197 0.1504 0.24532 0.23026 0.20244 0.21808 0.22439 0.21882 0.21409 0.2737 0.3379
3327.487 0.2672 0.1839 0.1834 0.23287 0.23374 0.22792 0.16154 0.176183 0.2962 0.3181
3346.777 0.23622 0.17938 0.1556 0.21538 0.24845 0.21031 0.22856 0.21443 0.1324 0.06
3366.066 0.1441 0.0937 0.1009 0.20929 0.1401 0.1076 0.065 0 0.1393 0.24112
3385.356 0.19159 0.3287 0.3779 0.23428 0.20117 0.2801 0.18444 0.1286 0.24286 0.2756
3404.646 0.2921 0.2826 0.2697 0.13 0.0728 0.2161 0.2976 0.2747 0.23139 0.23175
3423.936 0.2494 0.2809 0.2716 0.3613 0.3098 0.177475 0.19223 0.1544 0.1301 0.1215
3443.225 0.1487 0.19526 0.1411 0.19121 0.19841 0.170485 0.1423 0.1496 0.26708 0.25392
3462.515 0.19409 0.1315 0.1101 0.053 0.029 0.1007 0.23218 0.3267 0.21472 0.1312
3481.805 0.21721 0.21335 0.1136 0.057 0.1039 0.21107 0.22764 0.17934 0.18202 0.169615
3501.095 0.177744 0.15893 0.1291 0.16612 0.19224 0.22216 0.1357 0.022 0.034 0.1578
3520.385 0.3101 0.3632 0.3797 0.4527 0.3365 0.18596 0.20622 0.18029 0.067 0.018
3539.674 0.1233 0.1415 0.21873 0.21871 0.19285 0.3489 0.3394 0.23417 0.16201 0.1564
3558.964 0.1211 0.0761 0.19649 0.25239 0.22239 0.3475 0.3818 0.2764 0.26261 0.21474
3578.254 0.22847 0.3326 0.3311 0.20869 0.1554 0.2242 0.22505 0.25307 0.23206 0.1949
3597.544 0.1481 0.1497 0.2894 0.21376 0.1509 0.0868 0.0725 0.19596 0.22682 0.20411
3616.833 0.17222 0.19421 0.3026 0.3613 0.22628 0.20512 0.3537 0.3756 0.26676 0.21463
3636.123 0.2174 0.20316 0.21669 0.26465 0.3033 0.3093 0.3175 0.3454 0.3499 0.22274
3655.413 0.1485 0.25699 0.29 0.2825 0.3176 0.3363 0.20585 0.18452 0.3626 0.3231
3674.703 0.2642 0.3154 0.2986 0.3089 0.3294 0.2847 0.2908 0.3055 0.24383 0.21188
3693.993 0.177466 0.1412 0.20118 0.25712 0.1662 0.19166 0.26064 0.19236 0.169689 0.1525
3713.282 0.1018 0.0956 0.17961 0.22597 0.2807 0.3192 0.3444 0.3263 0.26783 0.3439
3732.572 0.4219 0.322 0.19235 0.21145 0.2898 0.3271 0.2728 0.1531 0.2681 0.4077
3751.862 0.331 0.3405 0.2982 0.3175 0.3971 0.3179 0.291 0.2818 0.26748 0.2752
3771.152 0.2927 0.3707 0.3931 0.3208 0.26798 0.22753 0.25195 0.3162 0.2699 0.24387
3790.441 0.22209 0.167044 0.16156 0.2748 0.3461 0.3524 0.2942 0.1545 0.15 0.2761
3809.731 0.3819 0.3169 0.21585 0.19478 0.24582 0.25841 0.2769 0.3223 0.2728 0.2949
3829.021 0.3394 0.3063 0.274 0.3895 0.4478 0.3475 0.21379 0.205 0.2664 0.349
3848.311 0.4468 0.4004 0.4013 0.4269 0.2764 0.21156 0.3059 0.2714 0.24514 0.2798
3867.601 0.20921 0.1787 0.17866 0.26644 0.3065 0.22723 0.22462 0.3756 0.3818 0.22041
3886.890 0.2559 0.3075 0.3828 0.3857 0.3603 0.4133 0.2752 0.16368 0.24359 0.3089
3906.180 0.3016 0.3217 0.26034 0.173099 0.24291 0.23473 0.26467 0.3381 0.3307 0.3483
3925.470 0.3803 0.3025 0.3329 0.3442 0.2721 0.23409 0.23 0.2853 0.21971 0.2658
3944.760 0.274 0.1814 0.1521 0.1387 0.1445 0.21268 0.3098 0.2775 0.1657 0.21699
3964.049 0.3032 0.3734 0.3569 0.2768 0.25575 0.2711 0.2671 0.3327 0.4038 0.3024
3983.339 0.21354 0.19753 0.23275 0.2706 0.3134 0.3106 0.3101 0.20701 0.1462 0.3314
##END=
