##TITLE=trans-4-Methyl-2-pentene
##JCAMP-DX=4.24
##DATA TYPE=INFRARED SPECTRUM
##ORIGIN=NIST Mass Spectrometry Data Center
##OWNER=NIST Standard Reference Data Program
Collection (C) 2018 copyright by the U.S. Secretary of Commerce
on behalf of the United States of America. All rights reserved.
##CAS REGISTRY NO=674-76-0
##MOLFORM=C 6 H 12
##$NIST SOURCE=MSDC-IR
##SPECTROMETER/DATA SYSTEM=HP-GC/MS/IRD
##STATE=gas
##XUNITS=1/CM
##YUNITS=ABSORBANCE
##XFACTOR=1.0
##YFACTOR=0.000005100
##DELTAX=4.0
##FIRSTX=550.0
##LASTX=3846.0
##FIRSTY=0.000367
##MAXX=3846
##MINX=550
##MAXY=0.051
##MINY=0
##NPOINTS=825
##XYDATA=(X++(Y..Y))
550.0 72 51 23 5 11 13 5 2 2 3
590.0 12 28 41 58 49 34 50 60 63 52
630.0 44 47 38 37 36 32 30 35 34 35
670.0 47 46 37 49 58 56 54 42 31 42
710.0 39 42 58 40 32 39 40 48 51 48
750.0 49 54 62 59 51 53 62 67 76 70
790.0 63 67 67 71 72 80 89 100 117 128
830.0 118 113 119 119 120 124 120 116 123 131
870.0 136 141 154 171 182 198 218 252 280 309
910.0 333 356 392 447 517 601 729 892 1079 1294
950.0 1527 1761 1945 2082 2266 2397 2328 2150 1943 1709
990.0 1468 1225 998 797 627 501 413 361 324 284
1030.0 257 246 225 205 197 183 173 170 168 160
1070.0 158 163 170 177 190 205 221 229 232 241
1110.0 248 233 206 197 189 173 163 165 168 161
1150.0 160 172 185 195 200 203 200 189 179 166
1190.0 149 142 137 130 131 133 137 141 142 143
1230.0 142 144 158 178 202 224 238 251 263 275
1270.0 270 251 242 254 282 308 333 362 387 402
1310.0 413 418 425 440 448 450 452 460 467 477
1350.0 494 541 600 652 692 782 894 947 957 939
1390.0 871 783 687 582 501 454 436 440 472 522
1430.0 593 682 783 886 987 1084 1161 1244 1315 1320
1470.0 1264 1142 1009 892 763 628 515 419 349 294
1510.0 256 235 209 188 177 165 144 123 116 120
1550.0 116 101 81 81 84 83 82 81 85 80
1590.0 80 85 83 82 82 77 69 67 76 80
1630.0 82 76 72 74 74 72 75 85 93 94
1670.0 93 88 86 80 75 75 65 56 61 71
1710.0 80 88 104 120 130 141 149 158 164 161
1750.0 151 138 121 102 87 77 69 66 60 59
1790.0 54 50 54 54 57 61 58 58 60 60
1830.0 55 55 54 50 46 45 45 44 40 34
1870.0 31 30 27 25 25 23 25 21 17 15
1910.0 14 13 14 13 13 15 16 13 13 14
1950.0 16 14 12 12 19 20 20 24 25 26
1990.0 28 34 37 35 32 28 26 27 24 17
2030.0 11 9 9 10 13 10 5 5 9 8
2070.0 2 5 7 7 5 2 5 8 6 0
2110.0 3 6 9 7 5 3 1 3 3 4
2150.0 5 3 3 5 6 6 9 9 10 9
2190.0 7 9 9 6 7 12 13 12 9 8
2230.0 6 6 3 2 7 9 8 7 9 16
2270.0 21 26 22 16 21 28 30 23 13 9
2310.0 13 16 13 9 5 2 0 3 9 8
2350.0 8 10 14 19 24 28 29 32 30 27
2390.0 26 30 34 35 36 37 31 26 28 32
2430.0 31 27 27 30 34 30 26 28 34 33
2470.0 30 36 38 36 38 36 36 38 35 30
2510.0 29 29 33 37 37 37 37 40 45 48
2550.0 50 50 54 59 61 65 62 64 63 64
2590.0 66 66 63 67 68 61 58 60 61 61
2630.0 66 70 67 62 62 66 72 68 63 71
2670.0 76 70 67 75 81 83 85 89 101 117
2710.0 133 143 157 178 201 222 236 244 248 253
2750.0 247 235 218 201 201 201 201 212 223 227
2790.0 236 252 267 285 307 332 359 386 412 446
2830.0 492 551 639 756 925 1166 1510 1961 2468 2979
2870.0 3449 3777 3967 4069 4098 4068 4007 3941 3907 3957
2910.0 4097 4320 4614 4928 5221 5486 5707 5931 6199 6558
2950.0 7158 8037 9105 9961 10000 9623 9164 8272 6926 5405
2990.0 4147 3265 2667 2263 1985 1791 1665 1586 1534 1481
3030.0 1412 1337 1257 1171 1068 957 858 763 688 632
3070.0 582 542 513 482 461 435 412 392 370 349
3110.0 332 320 312 296 286 281 271 258 256 249
3150.0 236 227 212 209 205 188 178 178 176 164
3190.0 160 157 154 149 140 130 119 115 111 99
3230.0 94 88 84 82 74 61 55 53 54 54
3270.0 49 40 39 43 51 53 53 57 59 58
3310.0 55 56 48 46 37 31 37 45 41 45
3350.0 48 44 49 53 52 49 51 49 45 45
3390.0 43 45 48 40 44 48 44 49 51 48
3430.0 48 44 34 28 28 34 39 37 34 30
3470.0 32 30 27 33 29 27 27 28 28 20
3510.0 24 32 29 32 29 21 35 35 25 21
3550.0 16 16 16 19 19 22 22 13 16 26
3590.0 21 10 10 9 4 11 7 1 9 14
3630.0 17 21 23 17 14 19 19 24 26 16
3670.0 7 11 25 25 15 11 23 28 15 13
3710.0 13 17 25 19 20 27 26 28 27 13
3750.0 10 17 28 29 23 23 33 32 27 31
3790.0 37 34 35 33 30 37 38 34 43 47
3830.0 49 49 41 40 34
##END=
