##TITLE=4-Fluoro-3-(trifluoromethyl)benzonitrile
##JCAMP-DX=4.24
##DATA TYPE=INFRARED SPECTRUM
##ORIGIN=EPA-IR VAPOR PHASE LIBRARY
##OWNER=SRD/NIST
Collection (C) 2018 copyright by the U.S. Secretary of Commerce
on behalf of the United States of America. All rights reserved.
##CAS REGISTRY NO=67515-59-7
##MOLFORM=C 8 H 3 F 4 N
##$NIST SOURCE=MSDC-IR
##STATE=gas
##XUNITS=1/CM
##YUNITS=ABSORBANCE
##XFACTOR=1.
##YFACTOR=0.001
##DELTAX=1.92898
##FIRSTX=549.8
##LASTX=4000.7
##FIRSTY=16.459
##MAXX=4000.7
##MINX=549.759
##MAXY=0.476699
##MINY=0
##NPOINTS=1790
##XYDATA=(X++(Y..Y))
549.759 16.459 16.119 13.989 12.069 11.639 10.309 8.439 7.079 5.989 5.499
569.049 5.129 4.949 5.419 5.049 5.609 6.809 5.939 5.869 7.149 7.959
588.339 9.239 10.389 10.999 11.499 11.889 11.519 10.059 8.689 7.259 5.629
607.628 4.349 3.539 2.929 2.859 2.619 2.099 2.659 3.199 3.679 4.929
626.918 5.819 6.179 6.989 7.699 8.119 7.739 6.769 6.129 5.879 5.939
646.208 5.789 5.889 6.189 6.309 6.969 8.069 9.239 10.589 11.399 11.389
665.498 11.359 11.169 10.679 9.659 7.799 6.409 5.729 5.609 5.679 5.479
684.787 5.679 6.799 8.439 10.449 13.029 15.879 18.009 18.809 19.209 19.329
704.077 18.419 17.179 16.029 14.809 15.789 19.579 25.269 31.969 36.949 39.599
723.367 41.039 40.509 38.919 35.739 29.869 22.569 16.469 12.749 10.049 8.609
742.657 7.919 7.219 5.919 4.879 4.489 4.309 4.119 4.339 4.939 6.139
761.947 8.379 11.229 14.349 16.789 18.209 18.369 18.079 17.959 17.079 14.629
781.236 11.459 8.369 6.619 5.779 4.869 4.529 3.879 3.409 3.189 2.859
800.526 3.419 3.429 3.439 3.649 3.749 4.269 4.809 6.269 8.359 10.749
819.816 14.659 19.769 25.529 31.139 36.309 43.189 51.819 61.659 65.429 55.589
839.106 43.759 37.609 33.049 27.119 20.629 15.409 10.729 7.519 5.939 4.579
858.395 3.549 2.919 3.069 3.319 2.999 3.229 3.749 4.609 5.279 6.349
877.685 8.109 9.869 11.689 13.599 14.949 15.299 15.889 16.029 15.609 15.749
896.975 15.859 16.739 18.759 21.509 24.759 28.519 33.109 37.859 38.039 31.219
916.265 25.059 21.729 19.019 16.199 12.389 9.479 7.039 5.339 4.479 3.609
935.555 2.919 3.019 3.229 3.109 3.049 2.439 2.159 2.649 2.929 2.849
954.844 3.169 3.129 2.869 2.749 2.519 2.279 1.909 1.6949 1.444 1.6037
974.134 1.4482 1.0155 1.3095 1.3771 1.379 2.019 2.369 2.229 2.329 1.969
993.424 2.139 2.509 2.589 2.549 2.159 2.029 1.949 2.199 2.149 2.069
1012.714 2.159 2.219 2.469 2.929 2.719 2.099 1.959 2.739 3.149 2.999
1032.003 4.039 5.069 5.799 6.869 9.809 13.119 17.599 24.499 34.109 46.779
1051.293 60.249 73.719 84.369 89.959 93.119 95.279 93.469 84.779 70.199 54.809
1070.583 40.749 29.989 24.149 19.719 15.759 13.699 12.759 12.099 10.979 10.909
1089.873 11.699 11.829 11.389 10.369 10.229 9.979 8.849 9.319 11.289 13.809
1109.163 14.629 15.439 17.849 22.619 30.079 38.239 50.399 64.119 74.199 81.239
1128.452 86.149 90.549 94.299 95.189 91.049 86.109 84.469 85.229 91.179 102.299
1147.742 115.589 131.879 150.509 170.949 194.929 222.669 251.599 281.629 315.539 354.839
1167.032 396.449 434.299 462.709 476.699 471.829 450.229 412.219 368.519 332.889 304.449
1186.322 277.789 247.959 219.149 194.039 172.189 149.729 125.469 103.569 84.099 70.419
1205.611 59.349 50.029 43.659 38.869 34.639 28.019 24.129 22.279 19.729 18.299
1224.901 17.219 16.909 18.289 20.339 22.639 26.409 32.629 42.359 55.429 73.599
1244.191 96.129 121.579 146.719 166.199 178.259 184.749 186.509 182.159 172.529 155.769
1263.481 137.099 124.129 117.319 114.489 114.459 114.959 113.529 109.819 105.089 99.959
1282.771 94.499 87.769 80.129 73.319 70.249 71.259 74.099 78.189 81.519 84.469
1302.060 88.169 92.659 99.049 108.449 123.119 145.469 176.849 216.699 260.799 301.319
1321.350 329.069 340.079 336.709 321.169 292.119 247.349 188.069 127.249 79.899 50.009
1340.640 33.349 24.389 19.339 16.439 14.889 13.929 13.359 13.049 12.559 12.169
1359.930 11.819 11.489 10.929 10.329 10.099 10.019 9.899 9.849 9.989 10.109
1379.219 10.149 10.039 9.859 9.769 9.579 9.549 9.969 10.399 10.929 11.879
1398.509 13.669 16.649 20.729 26.169 33.339 42.479 52.849 63.879 74.579 83.579
1417.799 89.819 93.339 93.499 89.339 81.729 71.809 59.979 48.269 38.069 30.489
1437.089 23.919 18.739 15.259 12.689 10.849 9.679 9.069 8.799 8.819 9.089
1456.378 9.329 9.559 9.959 10.329 11.019 11.979 12.909 14.429 16.549 18.869
1475.668 21.639 25.049 29.049 34.339 41.159 50.479 63.209 79.409 100.179 123.979
1494.958 147.969 169.609 184.929 192.769 193.209 186.469 171.809 150.799 125.279 97.899
1514.248 74.249 55.439 41.529 32.259 25.299 20.769 17.499 15.289 13.849 12.699
1533.538 11.859 11.419 11.029 10.729 10.989 10.999 11.139 10.869 10.079 9.709
1552.827 9.239 8.519 8.039 7.809 7.529 7.529 8.119 8.789 9.209 10.179
1572.117 11.309 12.189 13.779 15.619 17.589 20.169 22.879 25.659 28.469 31.069
1591.407 33.379 35.799 37.989 39.569 40.459 41.159 42.369 43.879 45.339 47.159
1610.697 49.719 53.209 57.089 61.749 66.509 70.149 71.629 70.389 66.869 61.139
1629.986 53.709 45.159 36.059 26.579 18.889 13.489 10.139 8.269 7.109 6.109
1649.276 5.519 5.439 5.349 5.459 5.679 6.019 6.089 6.039 6.159 6.049
1668.566 5.719 5.409 4.849 4.459 3.959 3.289 2.999 2.839 2.679 2.429
1687.856 2.179 2.089 2.019 1.959 2.129 2.299 2.199 2.209 2.289 2.149
1707.146 2.129 2.299 2.269 2.369 2.619 2.559 2.409 2.389 2.339 2.259
1726.435 2.209 2.189 2.059 2.059 1.939 1.6865 1.7727 1.6657 1.4986 1.4785
1745.725 1.4203 1.5078 1.5039 1.4595 1.3855 1.3268 1.4055 1.3814 1.4906 1.516
1765.015 1.5726 1.8021 1.919 1.979 2.139 2.279 2.639 2.959 3.079 3.449
1784.305 3.549 3.589 3.699 3.599 3.579 3.469 3.169 3.129 3.109 2.929
1803.594 3.189 3.499 3.699 3.969 4.359 4.739 4.959 4.949 4.669 4.409
1822.884 4.019 3.539 3.129 2.639 2.209 1.949 1.7255 1.5028 1.4282 1.3793
1842.174 1.2655 1.1987 1.1695 1.2533 1.2681 1.1838 1.1819 1.3203 1.5125 1.6722
1861.464 2.029 2.049 1.909 1.929 1.909 2.019 1.919 1.879 1.909 1.7683
1880.754 1.8286 1.8307 1.6901 1.8309 2.059 2.179 2.289 2.549 2.909 3.229
1900.043 3.719 4.189 4.529 4.669 4.869 5.159 5.059 4.849 4.759 4.469
1919.333 3.989 3.569 3.149 2.779 2.489 2.109 1.839 1.879 1.909 1.7458
1938.623 1.6252 1.7078 1.7717 1.638 1.5819 1.6184 1.4821 1.3791 1.3701 1.4254
1957.913 1.4457 1.3595 1.3117 1.319 1.159 1.1261 1.1933 1.3425 1.3382 1.2154
1977.202 1.2784 1.1747 1.0788 1.1234 1.1518 1.148 1.2792 1.2367 1.1122 1.0929
1996.492 1.1797 1.1559 1.0266 1.2313 1.4286 1.2985 1.1775 1.1699 1.2905 1.4918
2015.782 1.6627 1.775 1.919 2.069 1.999 1.939 2.039 2.119 2.039 1.869
2035.072 1.839 1.979 1.929 1.989 2.049 1.869 1.859 2.109 2.089 2.049
2054.362 2.089 2.049 2.069 1.999 1.899 1.849 1.8062 1.7141 1.7362 1.8376
2073.651 1.7551 1.6631 1.6925 1.6619 1.6084 1.6009 1.6608 1.5796 1.6702 1.7246
2092.941 1.648 1.6828 1.7505 1.7996 1.564 1.391 1.4123 1.3081 1.215 1.2324
2112.231 1.2857 1.2571 1.1166 1.1584 1.1491 1.1537 1.2296 1.2358 1.4115 1.4076
2131.521 1.2749 1.4227 1.5677 1.6012 1.6397 1.839 1.929 1.8117 1.6997 1.6441
2150.810 1.6104 1.6296 1.5568 1.3117 1.2399 1.3549 1.5653 1.5055 1.2476 1.2886
2170.100 1.2217 1.1352 1.3451 1.374 1.2411 1.3135 1.3948 1.412 1.4542 1.4314
2189.390 1.5962 1.5528 1.252 1.2804 1.3861 1.3924 1.5287 1.607 1.6576 1.8389
2208.680 2.059 1.999 1.979 2.199 2.319 2.519 2.699 3.009 3.629 4.349
2227.970 5.209 6.229 7.329 8.249 8.729 9.039 9.139 8.839 8.319 7.439
2247.259 6.229 5.039 3.989 3.289 2.949 2.699 2.369 2.239 2.219 2.219
2266.549 2.319 2.219 2.009 1.939 2.049 2.169 2.089 1.969 2.009 1.969
2285.839 1.929 1.959 2.019 1.969 1.999 2.149 2.039 2.239 2.349 2.089
2305.129 1.989 1.919 1.969 2.049 2.269 2.369 2.459 2.549 2.449 2.479
2324.418 2.569 2.699 2.769 2.869 2.959 2.879 2.889 3.099 3.129 2.839
2343.708 2.869 2.959 2.779 2.649 2.769 2.799 2.459 2.189 2.309 2.409
2362.998 2.419 2.379 2.449 2.739 2.889 3.049 2.929 2.789 2.789 2.939
2382.288 3.169 2.769 2.589 2.679 2.459 2.419 2.519 2.329 2.229 2.359
2401.578 2.199 2.039 1.7842 1.3665 1.2263 1.4295 1.3153 1.312 1.5068 1.5143
2420.867 1.548 1.5142 1.6721 1.5546 1.5577 1.6284 1.635 1.7344 1.7699 1.6898
2440.157 1.5549 1.5984 1.4436 1.385 1.6355 1.7746 1.7295 1.5378 1.5134 1.5461
2459.447 1.5387 1.6919 1.76 1.909 2.049 1.969 1.6472 1.4364 1.4617 1.4962
2478.737 1.5013 1.6409 1.7638 1.6512 1.7051 1.939 2.249 2.549 2.799 3.039
2498.026 3.009 3.039 3.099 3.029 2.969 3.029 3.159 3.109 2.949 3.029
2517.316 3.019 2.759 2.739 2.499 2.309 2.279 2.239 2.099 2.019 2.199
2536.606 2.349 2.419 2.409 2.449 2.439 2.479 2.569 2.399 2.209 1.999
2555.896 1.839 2.069 1.8386 1.6703 1.8162 1.859 1.8306 1.6291 1.6552 1.62
2575.186 1.4722 1.3191 1.4354 1.6217 1.5672 1.6358 1.8106 1.7155 1.7393 1.899
2594.475 1.899 1.4982 1.3865 1.7926 1.849 1.7513 1.616 1.3982 1.3241 1.42
2613.765 1.251 1.1765 1.3867 1.2549 1.0264 1.2329 1.454 1.3989 1.0883 0.9473
2633.055 1.0523 1.3426 1.6591 1.5961 1.3618 1.3502 1.4978 1.5416 1.5612 1.3346
2652.345 1.2337 1.2235 1.2697 1.2059 1.0195 1.2046 1.2017 1.034 0.9523 1.1392
2671.634 1.2804 1.256 1.3563 1.1912 1.2629 1.4354 1.2586 1.2345 1.2198 1.1597
2690.924 1.2748 1.2882 1.1213 1.2309 1.3144 1.4336 1.3451 1.1731 1.4675 1.3893
2710.214 1.1402 0.9644 0.7749 0.93373 1.035 1.0691 1.3795 1.2751 1.1598 1.2908
2729.504 1.4157 1.5398 1.2954 1.2807 1.4465 1.3522 1.7744 1.979 1.6981 1.8019
2748.794 1.7869 1.7623 1.8263 1.5837 1.5447 1.939 1.969 1.969 1.919 1.7829
2768.083 1.7348 1.4605 1.2581 1.0554 1.0504 1.2719 1.2963 1.3036 1.3755 1.21
2787.373 1.3275 1.5331 1.259 0.7982 0.719 0.90216 0.7557 0.734 0.9412 0.9555
2806.663 1.1184 1.1736 1.1429 1.1153 0.85947 0.756 1.0923 1.4167 1.1886 1.4116
2825.953 1.8134 1.6124 1.5682 1.6012 1.6269 1.8129 1.5652 1.166 1.2854 1.4494
2845.242 1.1841 1.3526 1.6119 1.2462 1.1314 1.1925 1.1442 1.1356 1.0659 0.87364
2864.532 0.9494 0.86111 0.624 0.9463 1.2969 1.3183 1.2035 1.3068 1.2461 1.0339
2883.822 1.2141 1.3111 1.1451 1.2487 1.2342 1.1149 0.91156 1.0259 1.3412 1.0857
2903.112 1.2289 1.3696 1.0197 0.66 0.8625 1.5212 1.6296 1.5177 1.4605 1.3446
2922.401 1.3518 1.2556 1.1251 1.1321 1.2217 1.1474 1.2163 1.4209 1.5743 1.3957
2941.691 1.3688 1.6187 1.0754 0.945 1.1382 1.064 1.2648 1.2897 1.2796 1.0757
2960.981 0.999 1.2853 1.1666 0.9618 1.0066 1.0879 1.002 0.87151 0.7553 1.0313
2980.271 0.88411 0.502 0.7425 0.7971 0.9753 0.89907 0.684 0.711 0.701 0.667
2999.561 0.83599 1.1702 1.0293 0.93013 1.1491 0.9792 0.89155 1.031 1.1283 1.515
3018.850 1.6338 1.2352 0.85016 1.2052 1.4797 1.3183 1.355 1.0877 1.0632 1.3546
3038.140 1.2045 0.9731 0.9415 1.1535 1.5186 1.5234 1.6483 1.8273 1.542 1.4804
3057.430 1.7191 1.869 1.979 2.009 2.319 2.459 2.119 1.8293 1.849 2.009
3076.720 2.159 2.219 2.389 2.289 2.029 2.469 2.519 2.209 2.159 1.939
3096.009 2.179 2.489 2.149 1.8236 1.7213 1.6629 1.5302 1.383 1.2821 1.289
3115.299 1.2282 1.2126 0.98 0.8128 1.187 1.6384 1.5166 1.4528 1.849 1.7027
3134.589 1.6136 1.573 0.9557 0.591 1.101 1.2089 0.83604 0.7819 0.7606 0.631
3153.879 0.722 0.87545 0.696 0.7863 0.593 0.599 0.92359 0.552 0.48 0.8271
3173.169 0.9397 1.1378 1.1601 1.1372 1.1517 0.9494 0.719 1.1338 1.525 1.0995
3192.458 1.0058 1.094 1.1146 1.3832 1.6312 1.2068 0.7493 0.7761 0.88977 0.9534
3211.748 1.1843 1.3041 1.3777 1.4125 1.0938 0.794 0.7499 0.9676 1.2003 1.5764
3231.038 1.3945 1.1875 1.158 0.84251 1.119 1.532 1.1962 1.1255 1.4116 1.1848
3250.328 0.8255 1.0335 1.1954 0.843019 0.629 0.7443 1.0427 0.92536 0.87131 0.89156
3269.617 1.0005 1.1093 1.1903 1.655 1.561 1.0406 0.7917 0.585 0.416 0.631
3288.907 1.2341 1.1793 0.9412 0.89388 0.677 0.313 0.344 0.605 0.59 0.7936
3308.197 0.8423 0.83274 0.847816 0.581 0.8073 1.1108 1.2025 0.92576 0.645 0.49
3327.487 0.612 0.9412 0.762 1.0163 1.0351 1.2177 1.3839 0.86334 0.592 0.518
3346.777 0.676 0.7416 0.55 1.1202 1.3513 1.0414 1.0291 0.9829 1.1816 1.1453
3366.066 1.1491 1.4819 1.5784 1.4939 1.3088 1.2095 1.0121 0.83214 0.732 0.7995
3385.356 1.012 1.2061 1.1707 1.0378 1.1361 1.1401 0.997 1.0321 1.0598 1.0075
3404.646 0.9723 1.1052 0.8106 0.298 0.614 0.83438 0.519 0.7526 1.2508 1.5549
3423.936 1.7983 1.5264 1.3356 1.5618 1.519 1.0388 1.0654 0.9836 0.92093 1.118
3443.225 0.86161 1.1283 1.1595 0.627 0.778 1.093 1.1355 1.0785 0.721 0.617
3462.515 0.85166 0.93689 0.86098 0.649 1.0391 1.1836 0.671 0.529 0.516 0.474
3481.805 0.536 0.706 0.602 0.248 0.316 0.8002 0.83311 0.93045 0.9601 0.507
3501.095 0.311 0.126 0.334 0.467 0.555 0.93137 1.0613 1.2385 1.1197 0.723
3520.385 0.668 0.684 0.344 0.584 1.1556 0.7786 0.553 0.7914 0.518 0
3539.674 0.19 0.665 0.612 0.7977 1.0153 1.1573 1.0389 0.667 0.714 0.7734
3558.964 0.592 0.622 0.9642 0.7895 0.634 0.90588 0.583 0.231 0.7876 0.93166
3578.254 0.691 1.0013 0.9838 1.0772 0.698 0.247 0.562 0.56 0.582 0.7723
3597.544 0.701 0.942 0.9984 0.689 0.7976 0.647 0.29 0.268 0.768 0.86515
3616.833 0.272 0.321 0.9806 1.1628 1.1172 1.3334 1.07 0.573 0.90318 1.065
3636.123 0.86359 0.68 0.538 0.714 1.0407 1.0098 0.624 0.581 0.608 0.147
3655.413 0.037 0.413 0.43 0.427 0.89875 1.0411 1.0239 1.1803 0.9707 0.7896
3674.703 0.7862 0.671 0.63 1.2383 1.2772 0.429 0.402 0.62 0.597 0.538
3693.993 0.635 0.72 0.472 0.705 0.9517 0.91793 0.7551 0.418 0.334 0.569
3713.282 0.8004 0.735 0.89713 0.93378 0.722 0.8202 1.2162 1.0976 0.71 0.685
3732.572 0.731 0.7577 0.8032 0.8377 0.9545 1.2223 1.2723 1.4786 0.987 0.8275
3751.862 1.08 1.0416 1.0474 0.703 0.7577 1.2154 1.1472 0.9689 1.0266 1.2764
3771.152 1.5013 0.7673 0.672 1.2406 0.9562 0.82902 1.0278 1.0449 0.9828 0.793
3790.441 0.8064 0.8161 0.508 0.6 0.962 0.8143 0.7751 0.7487 0.637 0.474
3809.731 0.519 0.815 0.652 0.7876 0.8258 0.732 0.589 0.703 1.0864 1.015
3829.021 0.345 0.439 1.1331 1.1476 1.1832 1.0637 0.7618 0.974 0.9885 0.9474
3848.311 1.2463 1.1883 1.1244 0.9608 0.92471 0.9768 0.88822 0.71 0.715 1.0238
3867.601 1.0492 1.0945 1.0718 0.8189 0.693 0.556 0.9577 1.3259 1.1897 0.48
3886.890 0.502 1.0894 1.3322 1.4029 0.9605 0.705 0.7586 0.9837 0.91384 0.62
3906.180 0.522 0.85779 1.0517 1.1342 1.2285 1.0041 0.764 0.86652 0.643 0.153
3925.470 0.276 0.7446 0.83648 0.412 0.39 0.7947 0.91121 0.702 1.1185 1.2723
3944.760 0.976 1.1805 1.313 1.2929 1.3533 0.9523 0.7474 1.1202 0.9405 0.8313
3964.049 1.2403 1.224 1.0757 1.1353 1.0975 1.0793 1.126 1.3041 1.2405 0.548
3983.339 0.331 0.435 0.86774 1.4294 0.675 0.015 0.361 0.8267 0.7543 0.724
##END=
