##TITLE=2,2'-(Hexylimino)diethanol
##JCAMP-DX=4.24
##DATA TYPE=INFRARED SPECTRUM
##ORIGIN=EPA-IR VAPOR PHASE LIBRARY
##OWNER=SRD/NIST
Collection (C) 2018 copyright by the U.S. Secretary of Commerce
on behalf of the United States of America. All rights reserved.
##CAS REGISTRY NO=6752-33-6
##MOLFORM=C 10 H 23 N O 2
##$NIST SOURCE=MSDC-IR
##STATE=gas
##XUNITS=1/CM
##YUNITS=ABSORBANCE
##XFACTOR=1.
##YFACTOR=0.001
##DELTAX=1.92898
##FIRSTX=549.8
##LASTX=4000.7
##FIRSTY=4.68
##MAXX=4000.7
##MINX=549.759
##MAXY=0.12205
##MINY=0.0005233
##NPOINTS=1790
##XYDATA=(X++(Y..Y))
549.759 4.68 4.77 4.72 4.55 4.34 4.46 4.52 4.49 4.53 4.35
569.049 4.23 4.11 4.03 4.02 3.91 3.74 3.6 3.47 3.31 3.07
588.339 3.2 3.38 3.21 3.13 3.06 2.93 2.82 2.7 2.58 2.43
607.628 2.31 2.42 2.56 2.52 2.48 2.21 2.23 2.28 2.17 2.17
626.918 2.1 2.03 2.01 2.1 2.06 1.97 1.94 1.86 1.77 1.77
646.208 1.76 1.85 1.97 1.86 1.85 1.97 1.95 1.86 1.66 1.71
665.498 1.84 1.84 1.81 1.73 1.83 1.93 1.97 1.99 2.1 2.14
684.787 2.16 2.15 2.23 2.24 2.23 2.29 2.36 2.53 2.63 2.74
704.077 2.94 3.11 3.28 3.51 3.44 3.43 3.64 3.79 3.94 3.95
723.367 3.93 3.91 3.95 4.06 4.05 4.03 4.03 4.03 4.01 3.92
742.657 3.97 4.11 4.04 3.97 3.85 3.68 3.75 3.83 3.88 3.91
761.947 3.81 3.74 3.86 3.88 3.74 3.69 3.65 3.73 3.87 3.82
781.236 3.6 3.42 3.42 3.4 3.35 3.45 3.34 3.21 3.28 3.24
800.526 3.31 3.37 3.22 3.05 3.19 3.21 2.92 2.9 2.94 3.08
819.816 3.1 2.78 2.91 3.18 3.15 3.13 3.28 3.51 3.45 3.46
839.106 3.87 4.15 4.15 4.35 4.71 4.8 5.04 5.59 6.03 6.26
858.395 6.76 7.34 7.84 8.4 8.76 9.04 9.34 9.55 9.75 9.37
877.685 8.69 8.35 8.07 7.79 7.6 7.3 7.13 7.07 6.83 6.64
896.975 6.51 6.41 6.19 6.1 6.18 6.31 6.24 6.1 6.11 6.05
916.265 5.94 5.99 6.15 6.23 6.18 6.13 6.16 6.31 6.53 6.67
935.555 6.74 6.81 6.83 6.86 7.04 7.16 7.07 7.18 7.35 7.4
954.844 7.43 7.64 7.84 7.85 7.96 8.24 8.47 8.58 8.89 9.13
974.134 9.35 9.57 9.87 10.23 10.49 11.1 11.66 12.03 12.45 13.11
993.424 13.86 14.62 15.63 16.83 18.14 19.47 21.01 22.75 24.76 26.94
1012.714 29.27 31.54 33.89 36.54 39.25 41.82 44.37 46.97 48.97 50.9
1032.003 52.98 54.56 55.28 55.15 55.04 54.58 53.61 52.48 51.5 50.57
1051.293 49.61 49.01 48.72 48.6 48.82 49.26 49.68 50.08 50.46 50.46
1070.583 50.27 49.44 47.47 45.19 42.12 38.6 35.08 31.78 28.82 26.1
1089.873 24.05 22.42 20.74 19.61 18.77 17.99 16.94 15.81 15.27 14.62
1109.163 14.09 13.83 13.3 12.64 12.2 12.06 11.63 11.42 11.43 11.3
1128.452 11.42 11.28 11.44 11.64 11.56 11.82 12.47 13.02 13.03 13.12
1147.742 13.7 14.37 14.79 14.9 14.8 14.78 14.9 14.52 13.92 13.7
1167.032 13.31 12.8 12.59 12.14 11.55 11.39 11.34 11.21 11.33 11.35
1186.322 11.47 11.54 11.54 11.72 11.78 12.26 12.47 12.42 12.62 12.8
1205.611 12.93 13.18 13.39 13.36 13.4 13.67 13.44 12.86 12.56 12.44
1224.901 12.51 12.24 11.9 11.82 11.82 11.58 11.43 11.32 11.4 11.41
1244.191 11.28 11.44 11.3 11.02 11.09 11.15 11.18 11.27 11.5 11.89
1263.481 12.04 12.26 12.3 12.25 12.48 12.72 12.82 12.97 12.94 12.81
1282.771 12.9 13.05 13.09 13.13 13.17 13.15 13.23 13.37 13.41 13.51
1302.060 13.62 13.64 13.56 13.52 13.5 13.51 13.58 13.53 13.49 13.51
1321.350 13.54 13.6 13.81 13.99 14.17 14.43 14.7 15.01 15.39 15.8
1340.640 16.21 16.71 17.31 17.84 18.36 18.93 19.47 19.96 20.38 20.59
1359.930 20.64 20.58 20.37 20.01 19.51 18.92 18.4 17.98 17.64 17.49
1379.219 17.4 17.42 17.57 17.66 17.73 17.78 17.78 17.83 17.92 17.9
1398.509 17.71 17.45 17.09 16.41 15.55 14.65 13.7 12.74 11.86 11.04
1417.799 10.41 9.83 9.33 9.03 8.84 8.76 8.79 8.86 8.99 9.32
1437.089 9.83 10.21 10.71 11.4 12.08 12.83 13.56 14.3 15.12 15.87
1456.378 16.57 17.27 17.75 17.97 17.98 17.79 17.33 16.58 15.53 14.37
1475.668 13.21 12 10.81 9.58 8.45 7.46 6.61 5.9 5.26 4.72
1494.958 4.32 3.96 3.68 3.47 3.3 3.1 2.92 2.85 2.75 2.64
1514.248 2.58 2.42 2.24 2.14 2.08 2.03 1.93 1.87 1.86 1.83
1533.538 1.75 1.66 1.55 1.45 1.5 1.55 1.51 1.48 1.51 1.45
1552.827 1.39 1.31 1.26 1.28 1.2 1.13 1.18 1.18 1.14 1.08
1572.117 1.04 0.9976 0.9532 1.06 1.11 1.08 1.02 1.01 1.05 1
1591.407 0.9864 0.9569 0.9186 0.9698 0.9687 0.8959 0.878 0.916 0.9477 0.8793
1610.697 0.7901 0.8199 0.7988 0.7577 0.8123 0.8805 0.8086 0.7604 0.8083 0.7635
1629.986 0.7797 0.7948 0.718 0.7084 0.775 0.8091 0.7953 0.7786 0.759 0.7126
1649.276 0.7478 0.732 0.6515 0.6815 0.6985 0.6813 0.7056 0.7316 0.7255 0.7071
1668.566 0.6495 0.5906 0.595 0.6117 0.6431 0.6263 0.5865 0.5977 0.5842 0.5997
1687.856 0.6212 0.5996 0.6061 0.5779 0.5528 0.5719 0.5233 0.534 0.6211 0.6961
1707.146 0.6486 0.5623 0.5836 0.5974 0.6444 0.7074 0.6572 0.6042 0.6286 0.6536
1726.435 0.6689 0.6681 0.6773 0.6679 0.6112 0.631 0.6623 0.6302 0.6781 0.6964
1745.725 0.6656 0.6315 0.5815 0.5808 0.5877 0.6216 0.6376 0.5835 0.5542 0.6032
1765.015 0.6604 0.6951 0.7167 0.7138 0.6826 0.7443 0.8022 0.7802 0.7305 0.7197
1784.305 0.755 0.7294 0.724 0.6982 0.6824 0.6966 0.6838 0.6401 0.603 0.6532
1803.594 0.6764 0.6395 0.6403 0.633 0.6007 0.5764 0.5748 0.5587 0.5338 0.5339
1822.884 0.5661 0.617 0.6017 0.582 0.5973 0.5851 0.5862 0.5856 0.5758 0.5838
1842.174 0.5902 0.5838 0.556 0.5972 0.6336 0.6443 0.6211 0.5833 0.6199 0.6429
1861.464 0.6163 0.5975 0.5854 0.6157 0.6335 0.6133 0.6585 0.6693 0.6488 0.6502
1880.754 0.6759 0.7003 0.6826 0.6992 0.689 0.6483 0.6377 0.6537 0.6989 0.7303
1900.043 0.7365 0.7556 0.7492 0.7284 0.6954 0.7004 0.7766 0.7907 0.8076 0.8732
1919.333 0.8193 0.7769 0.852 0.8408 0.8075 0.8555 0.8542 0.7691 0.7441 0.7852
1938.623 0.7824 0.7697 0.7553 0.7679 0.7645 0.7236 0.7193 0.7215 0.6979 0.6642
1957.913 0.6564 0.6792 0.7487 0.7031 0.6519 0.6849 0.6342 0.6086 0.6208 0.6073
1977.202 0.6231 0.6469 0.6186 0.6191 0.6497 0.6205 0.587 0.5803 0.6101 0.6133
1996.492 0.5655 0.5691 0.6094 0.6196 0.6861 0.7381 0.7393 0.7047 0.6897 0.7167
2015.782 0.7227 0.7314 0.6753 0.6407 0.6787 0.7253 0.7498 0.8121 0.8409 0.8159
2035.072 0.8327 0.864 0.8694 0.8587 0.8877 0.8985 0.8888 0.9352 0.9316 0.9113
2054.362 0.9347 0.9665 0.9561 0.9138 0.8874 0.8663 0.9012 0.9265 0.9172 0.9214
2073.651 0.8961 0.8933 0.9106 0.8975 0.8674 0.8539 0.8704 0.8616 0.8592 0.8282
2092.941 0.8517 0.8842 0.8526 0.8393 0.8331 0.8356 0.8868 0.8711 0.8265 0.8807
2112.231 0.9028 0.9251 0.9444 0.8919 0.8388 0.8648 0.8692 0.8777 0.9423 0.9005
2131.521 0.8558 0.8236 0.7916 0.8103 0.8212 0.8322 0.7844 0.7159 0.6858 0.7556
2150.810 0.7908 0.7938 0.8197 0.7709 0.737 0.7029 0.7238 0.7514 0.7132 0.7211
2170.100 0.7337 0.7151 0.6843 0.6473 0.6592 0.7154 0.6947 0.6428 0.6352 0.6596
2189.390 0.6814 0.6359 0.6196 0.5905 0.5775 0.6864 0.7278 0.6515 0.6231 0.625
2208.680 0.629 0.6892 0.6752 0.6421 0.7111 0.7304 0.6869 0.6747 0.7323 0.7253
2227.970 0.6517 0.6873 0.7092 0.699 0.686 0.7076 0.7227 0.687 0.7322 0.7498
2247.259 0.7457 0.7413 0.7058 0.7242 0.7233 0.7116 0.7358 0.7045 0.7119 0.7524
2266.549 0.7288 0.7262 0.7139 0.708 0.7512 0.7246 0.695 0.7474 0.7444 0.7419
2285.839 0.7628 0.8021 0.8109 0.8632 0.9137 0.8518 0.8393 0.8287 0.8383 0.8839
2305.129 0.9184 0.9292 0.9748 1.01 1.01 0.9648 1.01 1.08 0.9827 0.9947
2324.418 1.06 1.05 1.04 1.03 1.05 1.08 0.988 0.9558 0.9893 0.9812
2343.708 0.9691 0.9058 0.8572 0.937 1.02 1.02 1.01 1.03 1.06 1.09
2362.998 1.07 1.09 1.12 1.09 1.06 1.05 1.03 1.04 1.06 1.04
2382.288 0.9594 0.9026 0.9067 0.9174 0.9342 0.9345 0.9525 0.9669 0.9835 1
2401.578 0.9087 0.8734 0.9401 0.9799 0.9615 0.97 0.9687 0.9592 0.9793 0.9244
2420.867 0.912 0.9952 0.9785 0.9217 0.9645 1.02 0.9699 0.9531 0.9711 0.9463
2440.157 0.9577 0.9533 0.962 1.05 1.05 0.9911 0.944 0.9266 0.9413 0.9158
2459.447 0.9342 0.923 0.8997 0.9411 0.9711 1.01 1 1 0.982 0.9898
2478.737 1.07 1.05 1.03 1.01 0.9819 0.9854 0.985 1.03 1.07 1.02
2498.026 0.9525 0.9481 0.9455 0.907 0.8881 0.9195 0.9762 1.04 1.02 1.08
2517.316 1.13 1.09 1.09 1.13 1.14 1.12 1.22 1.21 1.22 1.24
2536.606 1.24 1.25 1.21 1.25 1.34 1.29 1.22 1.29 1.29 1.31
2555.896 1.32 1.28 1.31 1.36 1.36 1.41 1.49 1.57 1.55 1.57
2575.186 1.61 1.63 1.66 1.67 1.68 1.64 1.62 1.75 1.79 1.75
2594.475 1.86 1.85 1.84 1.91 1.98 1.98 1.99 2.03 2.03 2.09
2613.765 2.11 2.16 2.19 2.19 2.23 2.28 2.39 2.46 2.47 2.47
2633.055 2.58 2.7 2.77 2.85 2.92 2.96 3.01 3.12 3.16 3.28
2652.345 3.39 3.41 3.43 3.57 3.76 3.86 3.93 4.08 4.17 4.19
2671.634 4.34 4.47 4.51 4.59 4.72 4.83 4.95 5.11 5.24 5.31
2690.924 5.39 5.44 5.47 5.61 5.73 5.83 6.04 6.22 6.29 6.43
2710.214 6.53 6.65 6.85 6.95 7.06 7.19 7.31 7.4 7.55 7.76
2729.504 7.88 7.96 8.05 8.18 8.34 8.6 8.77 8.84 8.97 9.14
2748.794 9.27 9.52 9.83 9.96 10.06 10.26 10.57 10.82 11.02 11.29
2768.083 11.7 12.15 12.51 12.98 13.46 13.92 14.53 15.31 16.09 16.82
2787.373 17.74 18.78 19.81 21.14 22.77 24.33 26.04 27.99 30.18 32.5
2806.663 34.65 36.74 38.76 40.59 42.19 43.39 44.15 44.53 44.41 43.93
2825.953 43.19 42.19 41.04 39.82 38.72 37.59 36.6 35.95 35.48 35.13
2845.242 35.13 35.7 36.8 38.24 40.24 42.71 45.36 48.16 50.86 53.37
2864.532 55.65 57.73 59.27 60.46 61.61 62.4 63.15 63.88 64.34 64.4
2883.822 64.02 63.31 62.15 60.74 59.23 57.82 56.79 56.22 56.06 56.26
2903.112 57.19 58.49 60.06 62.33 64.91 67.91 71.61 75.74 80.39 85.71
2922.401 91.59 97.63 103.5 108.98 113.86 117.81 120.54 122.02 122.05 120.9
2941.691 118.78 115.78 112.25 108.44 104.59 100.87 97.74 95.29 93.23 91.51
2960.981 90.05 88.44 86.37 83.29 78.76 72.98 66.33 58.91 51.26 44.1
2980.271 37.81 32.63 28.46 25.07 22.24 19.9 17.92 16.3 14.91 13.65
2999.561 12.55 11.65 10.89 10.13 9.47 8.91 8.38 7.91 7.39 6.97
3018.850 6.59 6.29 6.03 5.68 5.45 5.19 4.84 4.67 4.53 4.29
3038.140 4.05 3.91 3.82 3.78 3.73 3.59 3.42 3.23 3.13 3.11
3057.430 3.03 2.97 2.82 2.66 2.7 2.61 2.51 2.47 2.38 2.27
3076.720 2.27 2.22 2.2 2.23 2.23 2.26 2.17 2.03 2 1.93
3096.009 1.82 1.79 1.75 1.73 1.77 1.85 1.73 1.64 1.64 1.58
3115.299 1.55 1.56 1.58 1.55 1.44 1.42 1.37 1.28 1.34 1.37
3134.589 1.34 1.31 1.23 1.21 1.27 1.28 1.23 1.23 1.21 1.1
3153.879 1.06 1.16 1.22 1.19 1.16 1.19 1.27 1.31 1.2 1.14
3173.169 1.2 1.27 1.28 1.29 1.29 1.26 1.25 1.15 1.05 1.08
3192.458 1.09 1.04 1.04 1.09 1.07 0.9764 0.9633 0.948 0.885 0.8712
3211.748 0.9105 0.9095 0.8582 0.8124 0.9262 1 0.9022 0.9215 0.9844 0.9776
3231.038 0.9648 0.9211 0.852 0.8868 0.8663 0.8145 0.9946 1.15 1.04 0.9717
3250.328 0.9048 0.9346 0.9639 0.8208 0.8342 0.8021 0.7687 0.8553 0.9441 0.8651
3269.617 0.8469 0.8706 0.8066 0.8569 0.9098 0.8928 0.8417 0.8637 1 1.11
3288.907 1.06 0.9589 0.8848 0.8213 0.8432 0.9662 1.08 1.05 1.09 1.02
3308.197 1.03 1.23 1.2 1.22 1.21 1.13 1.05 1.1 1.18 1.18
3327.487 1.25 1.32 1.26 1.14 1.22 1.31 1.31 1.27 1.22 1.23
3346.777 1.27 1.3 1.29 1.24 1.25 1.23 1.34 1.45 1.4 1.44
3366.066 1.49 1.5 1.53 1.62 1.54 1.47 1.6 1.65 1.62 1.47
3385.356 1.47 1.67 1.67 1.68 1.82 1.79 1.75 1.82 1.78 1.78
3404.646 1.91 1.88 1.87 2.15 2.23 2.1 2.15 2.2 2.18 2.12
3423.936 2.14 2.31 2.41 2.38 2.3 2.39 2.44 2.51 2.55 2.39
3443.225 2.48 2.59 2.54 2.43 2.37 2.44 2.56 2.69 2.73 2.74
3462.515 2.81 2.77 2.72 2.72 2.67 2.8 2.94 2.9 2.9 2.89
3481.805 2.95 2.99 2.82 2.77 2.98 3.12 3.08 3.07 3.17 3.45
3501.095 3.62 3.54 3.6 3.77 3.92 4.06 4.14 4.37 4.57 4.72
3520.385 4.92 5.06 5.41 5.67 5.75 6.08 6.44 6.8 7.09 7.21
3539.674 7.2 7.37 7.59 7.59 7.7 7.73 7.75 7.86 7.84 7.78
3558.964 7.71 7.72 7.71 7.65 7.57 7.44 7.32 7.09 6.92 6.82
3578.254 6.6 6.6 6.57 6.38 6.23 5.96 5.84 5.69 5.51 5.34
3597.544 5.18 5.06 4.87 4.83 4.8 4.56 4.27 4.19 4.23 4.14
3616.833 3.85 3.7 3.69 3.63 3.69 3.72 3.57 3.45 3.44 3.56
3636.123 3.86 3.95 3.9 4.18 4.45 4.7 5.11 5.5 5.92 6.38
3655.413 7.02 7.67 8.14 8.62 9.11 9.32 9.39 9.41 9.04 8.63
3674.703 8.25 7.7 7.08 6.48 5.93 5.26 4.63 4.05 3.56 3.28
3693.993 3.09 2.85 2.59 2.4 2.24 2.19 2.1 1.93 1.82 1.85
3713.282 1.88 1.77 1.59 1.48 1.42 1.45 1.46 1.38 1.36 1.33
3732.572 1.35 1.35 1.21 1.26 1.26 1.08 1.05 1.13 1.14 1.19
3751.862 1.16 0.9675 1.02 1.14 1.13 1.18 1.19 1.1 1.14 1.14
3771.152 1.03 0.9347 0.9237 0.9729 0.9414 0.8925 0.9546 1.06 1.12 1
3790.441 0.9173 0.9954 1.02 1.02 0.9886 1.06 1.03 0.9279 0.9531 0.9254
3809.731 0.8703 0.754 0.851 0.92 0.8066 0.8689 1.06 1.07 0.9487 1.04
3829.021 1 0.7919 0.9483 1.08 1.02 1.16 1.22 1.21 1.16 0.9415
3848.311 0.8401 0.747 0.6901 0.7855 0.9946 1.06 0.8865 0.8527 1.07 1.12
3867.601 0.8822 0.8813 0.9596 0.8868 0.8376 0.8469 0.9128 0.8341 0.6948 0.7663
3886.890 0.9273 1.06 0.945 0.9082 0.8644 0.8449 0.8737 0.818 0.9449 0.982
3906.180 0.9566 0.8617 0.7441 0.7355 0.839 0.9808 0.8933 0.8472 0.8767 0.7456
3925.470 0.7292 0.9284 1 0.8654 0.8658 0.9026 0.7913 0.6734 0.7696 0.9036
3944.760 0.8764 0.856 0.8592 0.9284 0.9122 0.8478 0.9227 0.8198 0.8985 1.08
3964.049 1.03 0.8784 0.8121 0.8233 0.8434 0.9082 0.8621 0.8079 0.8803 0.8764
3983.339 0.748 0.8262 0.9196 1 1.02 0.9178 1.07 1.02 0.8121 0.8901
##END=
