##TITLE=Methanephosphonic dichloride
##JCAMP-DX=4.24
##DATA TYPE=INFRARED SPECTRUM
##ORIGIN=EPA-IR VAPOR PHASE LIBRARY
##OWNER=SRD/NIST
Collection (C) 2018 copyright by the U.S. Secretary of Commerce
on behalf of the United States of America. All rights reserved.
##CAS REGISTRY NO=676-97-1
##MOLFORM=C H 3 Cl 2 O P
##$NIST SOURCE=MSDC-IR
##STATE=gas
##XUNITS=1/CM
##YUNITS=ABSORBANCE
##XFACTOR=1.
##YFACTOR=0.001
##DELTAX=1.92898
##FIRSTX=549.8
##LASTX=4000.7
##FIRSTY=176.49
##MAXX=4000.7
##MINX=549.759
##MAXY=0.17649
##MINY=0
##NPOINTS=1790
##XYDATA=(X++(Y..Y))
549.759 176.49 161.71 146.37 134.78 125.84 115.53 100.17 80.19 59.18 40.55
569.049 26.98 17.46 10.84 7.17 5.29 4.12 3.88 3.96 3.18 2.57
588.339 2.46 2.07 1.9368 1.911 1.7291 1.4629 1.2093 1.1722 1.12513 1.08739
607.628 1.08495 0.9747 0.747 0.703 0.696 0.916 1.3036 1.3571 1.6202 1.5504
626.918 1.1658 1.0122 0.821 0.9891 1.2584 1.161 1.0113 1.021 1.06419 1.06785
646.208 1.13639 1.05176 0.806 1.09907 0.9529 0.599 0.906 1.05201 1.3668 1.6976
665.498 1.4722 1.4114 1.7337 1.7504 1.676 1.4219 1.4718 1.6321 1.4619 1.4468
684.787 1.6002 1.6592 1.4494 1.5219 1.6651 1.7721 2.022 2.0234 1.9451 1.97
704.077 2.19 2.42 2.93 3.34 3.46 4.04 5.12 6.14 7.45 9.34
723.367 11.16 13.42 15.97 18.84 22.31 25.69 29.07 32.49 35.76 38.98
742.657 42.01 44.79 47.34 49.02 49.34 48.63 46.87 44.27 41.55 39.04
761.947 36.66 34.14 31.29 28.3 24.52 20.43 16.73 13.9 12.33 11.11
781.236 9.84 8.33 6.94 5.91 5.07 4.48 3.77 3.01 2.59 2.5
800.526 2.49 2.57 2.95 2.85 2.58 2.76 2.82 2.61 2.61 2.68
819.816 2.65 2.72 2.78 2.8 2.85 2.9 3.03 2.98 2.61 2.67
839.106 2.81 2.67 2.95 3.31 3.38 3.49 3.44 3.45 3.74 4.08
858.395 4.29 4.6 5.13 5.67 6.32 7.32 8.77 10.77 13.54 17.21
877.685 21.6 26.8 32.84 39.3 45.25 50.6 56.81 65.17 67.57 59.39
896.975 54.02 56.87 60.85 59.7 53.08 44.43 35.99 28.72 23.16 18.74
916.265 15.26 12.75 10.52 8.69 7.32 6.51 5.77 4.99 4.64 4.26
935.555 3.86 3.7 3.55 3.25 3.22 3.29 3.02 2.88 2.82 2.64
954.844 2.93 3.14 3.03 2.97 2.88 3.16 3.24 3.16 3.28 3.2
974.134 3.23 3.46 3.74 3.62 3.44 3.47 3.82 3.8 3.54 3.64
993.424 3.7 3.83 3.75 3.55 3.18 3.39 3.34 2.97 2.45 2.23
1012.714 2.59 2.63 2.65 2.61 2.44 2.52 2.66 2.55 2.64 2.75
1032.003 2.71 2.78 3.01 3.06 2.94 2.85 2.58 2.31 2.55 2.59
1051.293 2.73 2.28 1.5752 1.6956 1.021 0.9965 1.5228 1.5686 1.3482 1.2985
1070.583 1.5037 1.3979 1.1651 0.9873 1.2888 1.13403 1.1849 1.8744 1.7449 1.4733
1089.873 1.6817 1.4928 1.4168 1.6458 1.5991 2.1 2.24 1.0643 0.868 0.906
1109.163 0.925 1.09546 1.2021 0.9879 0.535 0.845 0.788 0.439 0.414 0.873
1128.452 0.899 0.439 0.383 0.471 0.427 0.508 0.494 0.674 0.898 1.0762
1147.742 0.9845 0.749 0.757 1.06759 1.10655 0.771 1.1528 1.4357 1.025 0.638
1167.032 0.763 0.868 0.604 0.628 0.562 0 0.292 0.9875 0.787 0.9931
1186.322 1.0732 0.657 0.651 0.552 0.743 0.712 0.474 0.465 0.692 0.938
1205.611 1.1615 1.0377 0.503 1.2183 1.6014 1.3194 1.3461 1.8274 2.0177 1.7557
1224.901 1.6676 1.474 1.8341 2.26 2.73 2.38 2.15 2.64 2.78 2.79
1244.191 2.87 3.04 3.1 3.15 3.41 3.64 4.39 5.23 5.46 6.64
1263.481 8.81 10.72 13.16 16.69 20.97 25.99 31.48 37.77 44.43 50.46
1282.771 56.12 61.98 70.04 81.98 97.47 111.02 116.42 112.92 106.59 105.82
1302.060 108.96 111.72 114.68 120.58 133.78 140.62 111.88 75.46 60.84 57.86
1321.350 57.56 54.89 49.02 41 32.16 23.71 16.57 11.33 7.7 5.32
1340.640 3.89 3.05 2.66 2.33 2.13 2.0322 1.9826 2.0033 1.9715 1.9947
1359.930 1.9809 1.9756 2.09 1.9764 1.8145 1.8334 1.8111 1.7287 1.725 1.7551
1379.219 1.7833 1.8097 1.8414 1.9456 2.12 2.4 2.73 2.99 3.3 3.69
1398.509 4.03 4.41 4.72 4.79 4.75 4.88 5.21 5.67 6.22 5.7
1417.799 4.36 3.93 4.09 4.16 4.05 3.78 3.44 2.94 2.49 2.22
1437.089 2.0056 1.8141 1.6136 1.5697 1.5301 1.4524 1.403 1.4253 1.4092 1.2593
1456.378 1.1963 1.2999 1.3864 1.4302 1.4645 1.3954 1.3411 1.397 1.4656 1.5239
1475.668 1.5969 1.6425 1.7475 1.8427 1.8694 1.851 1.9154 2.0222 2.08 2.14
1494.958 2.12 2.2 2.14 2.003 2.0385 2.11 2.12 2.004 1.8752 1.8974
1514.248 1.9404 1.7833 1.6946 1.7212 1.7178 1.713 1.7287 1.6772 1.6226 1.6005
1533.538 1.5387 1.488 1.5348 1.5597 1.4977 1.4669 1.445 1.4236 1.4938 1.4974
1552.827 1.4711 1.4689 1.4119 1.4668 1.5527 1.5504 1.5242 1.4457 1.3406 1.3328
1572.117 1.2941 1.2248 1.1802 1.13915 1.2645 1.237 1.04899 0.9597 0.909 1.006
1591.407 1.09204 1.04789 1.05905 1.04352 1.11357 1.1639 1.0172 1.0132 1.04158 0.907
1610.697 0.88 0.9914 1.08578 1.1642 1.1948 1.2098 1.3003 1.3033 1.2439 1.1938
1629.986 1.2896 1.3229 1.186 1.07556 0.968 0.902 0.896 0.906 0.857 0.832
1649.276 0.766 0.737 0.819 0.828 0.727 0.714 0.742 0.718 0.7 0.722
1668.566 0.772 0.73 0.64 0.601 0.614 0.577 0.569 0.601 0.591 0.597
1687.856 0.64 0.601 0.515 0.524 0.603 0.646 0.638 0.597 0.464 0.451
1707.146 0.53 0.595 0.708 0.631 0.48 0.495 0.536 0.499 0.546 0.603
1726.435 0.573 0.575 0.644 0.733 0.79 0.79 0.788 0.733 0.651 0.742
1745.725 0.822 0.811 0.859 0.863 0.815 0.835 0.84 0.818 0.848 0.889
1765.015 0.869 0.817 0.887 0.886 0.85 0.9674 1.06122 1.04338 0.9458 0.932
1784.305 0.9452 0.9 0.871 0.856 0.858 0.883 0.928 0.934 0.886 0.886
1803.594 0.9539 1.0011 1.0263 1.08434 1.09268 1.03786 0.9942 0.9743 1.0036 1.05484
1822.884 0.973 0.854 0.834 0.794 0.877 0.9409 0.918 0.892 0.824 0.784
1842.174 0.817 0.867 0.77 0.774 0.768 0.704 0.685 0.7 0.768 0.798
1861.464 0.807 0.756 0.721 0.733 0.787 0.752 0.744 0.841 0.811 0.77
1880.754 0.775 0.686 0.719 0.75 0.7 0.676 0.699 0.715 0.687 0.724
1900.043 0.787 0.813 0.819 0.827 0.761 0.736 0.669 0.568 0.569 0.604
1919.333 0.637 0.707 0.777 0.71 0.595 0.6 0.64 0.719 0.739 0.772
1938.623 0.787 0.764 0.725 0.761 0.834 0.744 0.67 0.724 0.737 0.696
1957.913 0.691 0.693 0.691 0.659 0.776 0.804 0.702 0.725 0.771 0.755
1977.202 0.738 0.727 0.719 0.785 0.775 0.699 0.697 0.671 0.602 0.658
1996.492 0.79 0.856 0.872 0.793 0.754 0.747 0.74 0.858 0.9562 1.0068
2015.782 0.9647 0.9599 1.08198 1.1191 1.09139 1.1404 1.1954 1.2218 1.3512 1.3624
2035.072 1.3047 1.37 1.4748 1.5001 1.5665 1.6479 1.5877 1.621 1.6096 1.4603
2054.362 1.4375 1.4745 1.5176 1.4642 1.3531 1.2889 1.2415 1.2269 1.2761 1.2406
2073.651 1.1834 1.1825 1.06705 1.04066 1.05729 1.05434 0.97 0.863 0.815 0.745
2092.941 0.789 0.887 0.9476 0.923 0.881 0.844 0.826 0.813 0.822 0.893
2112.231 0.93 0.9432 0.9627 0.9579 0.9408 0.871 0.825 0.859 0.873 0.815
2131.521 0.759 0.764 0.785 0.763 0.708 0.704 0.607 0.605 0.851 0.869
2150.810 0.813 0.92 0.898 0.799 0.798 0.819 0.735 0.774 0.858 0.907
2170.100 0.9432 0.922 0.9876 1.0647 1.04695 1.06447 1.1873 1.3333 1.3157 1.2051
2189.390 1.2735 1.3191 1.2958 1.2913 1.2783 1.333 1.3526 1.2346 1.2639 1.4096
2208.680 1.423 1.3894 1.2693 1.1621 1.11001 1.0101 0.9829 1.0004 0.9697 0.92
2227.970 0.849 0.79 0.76 0.825 0.929 0.918 0.898 0.903 0.863 0.847
2247.259 0.937 0.9637 0.868 0.797 0.825 0.881 0.795 0.767 0.864 0.9446
2266.549 0.883 0.819 0.821 0.764 0.758 0.825 0.925 1.0289 1.11433 0.9761
2285.839 0.879 0.822 0.776 0.909 1.0211 1.06329 1.0209 0.9983 1.03312 1.07636
2305.129 0.9904 1.0629 1.1547 1.04969 1.0154 1.0271 0.9495 0.795 0.773 0.841
2324.418 0.854 0.879 0.864 0.804 0.846 0.885 0.922 0.908 0.844 0.833
2343.708 0.903 0.9487 0.939 0.92 0.894 0.866 0.85 0.813 0.79 0.764
2362.998 0.771 0.732 0.699 0.802 0.809 0.758 0.687 0.68 0.796 0.889
2382.288 0.84 0.842 0.793 0.804 0.886 0.835 0.912 0.906 0.823 0.876
2401.578 0.86 0.748 0.747 0.816 0.791 0.716 0.66 0.677 0.751 0.846
2420.867 0.806 0.75 0.8 0.82 0.809 0.763 0.771 0.687 0.661 0.784
2440.157 0.752 0.672 0.541 0.588 0.737 0.732 0.795 0.837 0.77 0.775
2459.447 0.829 0.809 0.793 0.75 0.748 0.779 0.797 0.864 0.885 0.908
2478.737 0.831 0.808 0.897 0.926 0.937 0.895 0.866 0.816 0.7 0.758
2498.026 0.825 0.769 0.784 0.788 0.819 0.865 0.874 0.863 0.798 0.754
2517.316 0.757 0.803 0.821 0.822 0.9578 1.04675 0.959 0.8 0.762 0.854
2536.606 0.872 0.874 0.9535 1.0117 0.9422 0.918 0.904 0.888 0.835 0.817
2555.896 0.9997 0.9965 1.04172 1.1438 1.06249 1.04445 1.13694 1.2043 1.2893 1.4361
2575.186 1.4977 1.4663 1.3288 1.3827 1.4775 1.4334 1.4287 1.4266 1.5596 1.6576
2594.475 1.5753 1.5116 1.3645 1.12252 1.1487 1.2107 1.1617 1.1697 1.1862 1.09348
2613.765 0.9903 0.932 0.769 0.725 0.864 0.8 0.709 0.743 0.684 0.715
2633.055 0.723 0.714 0.784 0.729 0.767 0.889 0.853 0.835 0.804 0.791
2652.345 0.849 0.788 0.69 0.774 0.833 0.768 0.808 0.879 0.854 0.728
2671.634 0.697 0.717 0.795 0.742 0.752 0.929 1.0098 0.9628 0.823 0.793
2690.924 0.833 0.909 0.905 0.82 0.715 0.809 0.873 0.661 0.642 0.737
2710.214 0.723 0.778 0.933 0.936 0.904 0.911 0.827 0.86 0.86 0.819
2729.504 0.863 0.9421 0.874 0.795 0.826 0.889 0.807 0.787 0.783 0.736
2748.794 0.85 0.876 0.752 0.7 0.795 0.856 0.921 0.893 0.853 0.709
2768.083 0.563 0.7 0.877 0.934 0.94 0.905 0.842 0.858 0.913 0.917
2787.373 0.925 0.93 0.923 0.9 0.901 0.887 0.836 0.859 0.881 0.9785
2806.663 1.06984 1.03201 0.9574 0.919 0.885 0.874 0.939 0.938 0.878 0.869
2825.953 0.87 0.883 0.754 0.743 0.833 0.785 0.905 1.0175 0.9897 1.0117
2845.242 1.07413 1.05348 0.794 0.727 0.897 0.892 0.921 0.931 1.0142 1.0024
2864.532 0.863 0.753 0.668 0.812 0.803 0.634 0.785 0.878 0.927 0.9989
2883.822 0.889 0.938 0.926 0.803 0.775 0.871 0.866 0.923 1.0059 0.9674
2903.112 0.871 0.829 0.9415 0.836 0.855 0.892 0.821 0.929 0.9986 0.9962
2922.401 1.06785 1.1453 1.08123 1.0382 0.9532 0.886 1.03248 1.0165 0.9429 0.9491
2941.691 1.03361 1.1562 1.1699 0.9904 0.705 0.676 0.736 0.642 0.758 1.027
2960.981 0.9663 0.827 0.915 1.0212 0.9865 0.87 0.857 0.798 0.74 0.9551
2980.271 1.0237 0.812 0.725 0.704 0.675 0.641 0.765 0.904 0.799 0.713
2999.561 0.674 0.619 0.627 0.716 0.692 0.716 0.796 0.743 0.718 0.783
3018.850 0.83 0.9424 0.892 0.797 0.871 0.806 0.82 0.846 0.898 0.9546
3038.140 0.895 0.745 0.711 0.826 0.683 0.613 0.667 0.822 0.778 0.57
3057.430 0.675 0.838 0.881 0.889 0.747 0.553 0.754 0.862 0.701 0.767
3076.720 0.692 0.621 0.706 0.654 0.738 0.819 0.834 0.926 0.912 0.802
3096.009 0.773 0.808 0.738 0.629 0.634 0.763 0.767 0.751 0.781 0.78
3115.299 0.787 0.774 0.67 0.552 0.672 0.77 0.772 0.937 0.79 0.734
3134.589 0.764 0.75 0.839 0.75 0.805 0.801 0.625 0.623 0.667 0.57
3153.879 0.653 0.791 0.78 0.783 0.828 0.729 0.713 0.935 0.915 0.617
3173.169 0.614 0.736 0.874 0.752 0.608 0.807 0.979 1.0272 0.812 0.767
3192.458 0.848 0.756 0.768 0.846 0.9545 1.05851 1.0137 0.928 0.795 0.815
3211.748 0.9463 0.9852 1.10732 1.0041 0.865 0.909 1.05486 1.04215 0.701 0.742
3231.038 0.9669 0.875 0.692 0.771 0.896 0.926 1.07849 1.0043 0.839 0.836
3250.328 0.767 0.679 0.636 0.638 0.72 0.665 0.63 0.712 0.767 0.7
3269.617 0.545 0.756 0.799 0.591 0.667 0.798 0.894 1.03764 1.0256 0.944
3288.907 1.012 0.805 0.73 0.863 0.819 0.805 0.87 0.922 0.816 0.8
3308.197 0.875 0.82 0.86 0.903 0.77 0.677 0.855 0.9419 0.661 0.644
3327.487 0.738 0.844 0.729 0.638 0.892 0.906 0.674 0.753 1.07287 0.891
3346.777 0.571 0.622 0.9441 1.05064 0.899 0.849 0.847 0.855 0.9843 0.9648
3366.066 0.905 0.876 0.789 0.857 0.726 0.621 0.818 0.819 0.619 0.672
3385.356 0.753 0.723 0.864 0.808 0.841 0.874 0.696 0.667 0.701 0.827
3404.646 0.764 0.767 0.793 0.582 0.671 0.9895 0.809 0.72 0.877 0.694
3423.936 0.75 0.9581 0.932 0.911 0.794 0.706 0.768 0.811 0.811 0.819
3443.225 0.893 0.878 0.897 0.923 0.853 0.723 0.606 0.572 0.641 0.667
3462.515 0.546 0.719 0.9671 0.843 0.846 0.93 0.913 0.835 0.701 0.731
3481.805 0.757 0.74 0.71 0.633 0.77 0.9646 0.867 0.629 0.646 0.842
3501.095 0.912 0.894 0.777 0.802 0.895 0.682 0.607 0.77 0.712 0.629
3520.385 0.687 0.766 0.9417 0.9815 0.684 0.491 0.724 0.808 0.707 0.737
3539.674 0.806 0.9468 0.9861 0.9479 0.916 0.878 0.887 0.746 0.769 0.841
3558.964 0.661 0.791 0.834 0.803 0.885 0.788 0.781 0.716 0.666 0.759
3578.254 0.765 0.833 0.861 0.728 0.761 0.786 0.698 0.578 0.526 0.533
3597.544 0.429 0.63 0.9806 0.811 0.488 0.593 0.753 0.654 0.41 0.457
3616.833 0.634 0.686 0.64 0.696 0.74 0.526 0.623 0.738 0.722 0.711
3636.123 0.704 0.602 0.388 0.53 0.615 0.445 0.468 0.624 0.709 0.808
3655.413 0.823 0.665 0.576 0.665 0.648 0.651 0.775 0.814 0.9588 0.926
3674.703 0.883 0.732 0.735 1.0013 1.09378 1.0123 0.896 0.903 0.781 0.664
3693.993 0.767 0.9863 1.12805 1.07087 0.951 0.902 0.789 0.721 0.806 0.925
3713.282 0.928 0.882 0.717 0.672 0.703 0.737 0.828 0.717 0.667 0.902
3732.572 0.899 0.793 0.87 0.803 0.743 0.767 0.749 0.851 0.91 0.787
3751.862 0.914 0.9959 0.913 0.921 0.9825 1.07402 1.04971 0.927 0.808 0.759
3771.152 0.73 0.9481 1.05167 1.11202 1.08126 0.808 0.886 0.892 0.689 0.684
3790.441 0.914 0.932 0.92 0.882 0.681 0.548 0.654 0.882 0.928 1.11007
3809.731 1.13508 1.1837 1.2586 1.1991 1.2123 1.3374 1.423 1.2522 1.10905 1.0079
3829.021 1.2257 1.2671 1.08355 1.2714 1.07453 0.591 0.618 0.9 0.9926 0.729
3848.311 0.679 0.973 1.05568 0.786 0.579 0.659 0.773 0.88 0.883 0.781
3867.601 0.787 0.66 0.661 0.726 0.649 0.962 1.03156 0.824 0.848 0.9807
3886.890 1.11767 1.023 0.854 0.936 1.0127 0.895 0.9504 0.9934 0.906 0.927
3906.180 0.932 1.08054 1.09377 1.0257 1.2247 1.3018 1.10813 0.869 0.932 1.2094
3925.470 1.1907 1.06391 0.847 0.705 0.637 0.45 0.651 0.665 0.663 0.9478
3944.760 1.0159 0.815 0.693 0.733 0.833 0.939 0.761 0.588 0.623 0.712
3964.049 0.78 0.67 0.463 0.711 0.931 0.826 0.735 0.723 0.496 0.296
3983.339 0.539 0.619 0.708 0.779 0.875 0.815 0.643 0.742 0.683 0.43
##END=
