##TITLE=Ethyl 3-hexamethyleneiminopropionate
##JCAMP-DX=4.24
##DATA TYPE=INFRARED SPECTRUM
##ORIGIN=EPA-IR VAPOR PHASE LIBRARY
##OWNER=SRD/NIST
Collection (C) 2018 copyright by the U.S. Secretary of Commerce
on behalf of the United States of America. All rights reserved.
##CAS REGISTRY NO=6763-93-5
##MOLFORM=C 11 H 21 N O 2
##$NIST SOURCE=MSDC-IR
##STATE=gas
##XUNITS=1/CM
##YUNITS=ABSORBANCE
##XFACTOR=1.
##YFACTOR=0.001
##DELTAX=1.92934
##FIRSTX=549.9
##LASTX=3999.5
##FIRSTY=1.4463
##MAXX=3999.53
##MINX=549.863
##MAXY=0.10476
##MINY=0
##NPOINTS=1789
##XYDATA=(X++(Y..Y))
549.863 1.4463 1.5012 1.4935 1.5405 1.4753 1.4824 1.5035 1.4864 1.3761 1.3555
569.156 1.3868 1.4492 1.3832 1.2333 1.2669 1.3417 1.3954 1.4084 1.4481 1.5288
588.450 1.5469 1.5058 1.4784 1.4444 1.5844 1.7002 1.6756 1.7057 1.6379 1.4952
607.743 1.4708 1.4645 1.4524 1.394 1.2669 1.3389 1.3641 1.2371 1.19031 1.2681
627.037 1.2572 1.13035 1.13019 1.2418 1.277 1.19455 1.2273 1.2818 1.3204 1.427
646.330 1.475 1.4293 1.4226 1.4163 1.3578 1.3422 1.32 1.2263 1.217 1.2442
665.624 1.22 1.16207 1.0966 1.1 1.14093 1.18266 1.18327 1.1775 1.19591 1.20378
684.917 1.16388 1.18848 1.2802 1.3304 1.3028 1.3686 1.4653 1.4921 1.5502 1.5669
704.210 1.5511 1.6163 1.681 1.6873 1.7377 1.7285 1.6937 1.7317 1.7787 1.7364
723.504 1.6997 1.6763 1.6678 1.7276 1.7259 1.6529 1.5902 1.5971 1.5644 1.5609
742.797 1.6045 1.6056 1.6055 1.6478 1.6642 1.6611 1.715 1.7531 1.7261 1.7118
762.091 1.7549 1.7016 1.6721 1.7501 1.7853 1.8544 1.9746 2.1005 2.19 2.29
781.384 2.37 2.43 2.5 2.55 2.57 2.6 2.62 2.6 2.59 2.55
800.678 2.51 2.49 2.49 2.43 2.38 2.37 2.4 2.35 2.3 2.3
819.971 2.3 2.25 2.27 2.25 2.14 2.17 2.22 2.26 2.32 2.41
839.264 2.51 2.69 2.84 2.9 3.06 3.3 3.46 3.57 3.63 3.71
858.558 3.75 3.71 3.59 3.5 3.43 3.28 3.14 3.04 3 2.98
877.851 3.01 2.99 3.03 3.22 3.32 3.4 3.5 3.59 3.73 3.78
897.145 3.82 3.84 3.85 3.84 3.93 4.02 4.05 4.11 4.14 4.22
916.438 4.39 4.56 4.69 4.76 4.83 4.91 4.92 4.97 4.98 4.88
935.732 4.8 4.8 4.73 4.73 4.85 4.91 4.95 5.07 5.26 5.5
955.025 5.74 5.96 6.2 6.41 6.6 6.72 6.79 6.77 6.69 6.59
974.318 6.52 6.46 6.42 6.36 6.33 6.32 6.34 6.4 6.48 6.6
993.612 6.73 6.97 7.28 7.69 8.2 8.78 9.42 10.04 10.73 11.4
1012.905 11.99 12.48 12.87 13.3 13.77 14.25 14.86 15.54 16.36 17.29
1032.199 18.23 19.11 19.89 20.51 20.86 20.97 20.77 20.5 20.19 19.85
1051.492 19.53 19.26 19.06 18.93 18.94 18.95 18.89 18.8 18.68 18.49
1070.786 18.31 18.25 18.27 18.52 19.01 19.6 20.28 20.89 21.31 21.53
1090.079 21.49 21.18 20.69 20.14 19.59 19.07 18.61 18.18 17.83 17.75
1109.372 17.97 18.55 19.5 20.78 22.39 24.28 26.4 28.66 31.01 33.28
1128.666 35.3 36.95 38.11 38.87 39.16 39.02 38.59 37.95 37.28 36.71
1147.959 36.34 36.23 36.32 36.62 37.27 38.09 39.11 40.33 41.68 43.22
1167.253 44.68 46.15 47.72 49.25 50.67 52.01 53.07 53.77 54.2 54.21
1186.546 53.9 53.14 52 50.6 48.81 46.76 44.54 42.23 39.98 37.79
1205.840 35.67 33.82 32.36 31.25 30.45 29.92 29.78 29.94 30.21 30.62
1225.133 31.14 31.7 32.12 32.43 32.72 32.91 33.03 33.17 33.36 33.69
1244.426 33.91 34.01 33.94 33.65 33.06 32.1 30.85 29.34 27.69 25.98
1263.720 24.33 22.84 21.62 20.65 19.83 19.24 18.79 18.38 18.17 18.08
1283.013 18.07 18.1 18.22 18.42 18.59 18.88 19.25 19.57 19.92 20.27
1302.307 20.58 20.86 21.07 21.17 21.12 20.96 20.7 20.29 19.81 19.29
1321.600 18.68 18.05 17.49 17.05 16.77 16.56 16.47 16.54 16.78 17.12
1340.894 17.54 18.02 18.49 18.93 19.4 19.89 20.27 20.61 20.96 21.21
1360.187 21.48 21.85 22.34 22.78 23.03 22.93 22.5 21.77 20.65 19.21
1379.480 17.62 16.11 14.73 13.53 12.53 11.69 10.95 10.37 9.88 9.37
1398.774 8.96 8.6 8.27 7.98 7.74 7.52 7.36 7.27 7.22 7.29
1418.067 7.4 7.52 7.72 8 8.28 8.59 8.96 9.34 9.74 10.23
1437.361 10.76 11.28 11.86 12.41 13.01 13.68 14.27 14.74 15.07 15.26
1456.654 15.27 15.14 14.94 14.64 14.22 13.8 13.38 12.84 12.18 11.39
1475.948 10.53 9.62 8.71 7.78 6.91 6.17 5.49 4.91 4.44 3.98
1495.241 3.62 3.35 3.12 2.88 2.68 2.54 2.4 2.31 2.19 2.0463
1514.534 1.9344 1.8416 1.8135 1.7384 1.7056 1.7148 1.6443 1.605 1.5291 1.4832
1533.828 1.4513 1.4147 1.378 1.3364 1.3434 1.3762 1.399 1.3395 1.3473 1.3507
1553.121 1.2711 1.2476 1.19504 1.10984 1.15503 1.2141 1.2341 1.2101 1.17701 1.18495
1572.415 1.2254 1.2543 1.2142 1.19323 1.18718 1.2422 1.2939 1.2758 1.2373 1.2593
1591.708 1.3138 1.3094 1.3251 1.3429 1.3374 1.3473 1.3843 1.4288 1.4681 1.5245
1611.002 1.5623 1.5905 1.6073 1.6305 1.716 1.8131 1.8488 1.812 1.7919 1.7763
1630.295 1.7614 1.744 1.7183 1.6768 1.7019 1.7676 1.7793 1.7767 1.7729 1.7671
1649.588 1.7805 1.7549 1.7431 1.7963 1.809 1.8179 1.8072 1.8109 1.8435 1.8833
1668.882 1.9115 1.9809 2.0898 2.12 2.16 2.28 2.39 2.48 2.6 2.75
1688.175 2.91 3.1 3.31 3.52 3.79 4.12 4.45 4.87 5.3 5.83
1707.469 6.38 6.9 7.48 8.12 8.78 9.54 10.39 11.35 12.49 13.82
1726.762 15.47 17.53 20.08 23.07 26.81 31.12 35.94 41.61 47.74 54.11
1746.056 60.25 65.7 69.85 72.1 71.95 69.24 64.18 57.76 50.67 43.54
1765.349 36.91 30.91 25.77 21.64 18.2 15.5 13.34 11.59 10.16 8.97
1784.642 8.03 7.23 6.56 5.95 5.37 4.95 4.58 4.2 3.89 3.65
1803.936 3.39 3.16 2.99 2.77 2.56 2.41 2.28 2.15 2.0423 1.9809
1823.229 1.9313 1.8516 1.7965 1.747 1.6657 1.5834 1.5037 1.4847 1.5249 1.4905
1842.523 1.4376 1.4325 1.3775 1.3266 1.3515 1.3411 1.306 1.2772 1.241 1.2524
1861.816 1.2786 1.2744 1.2359 1.2339 1.2844 1.2928 1.2787 1.2672 1.2635 1.2895
1881.110 1.3049 1.2692 1.2484 1.2649 1.2624 1.2546 1.2763 1.2436 1.2207 1.2286
1900.403 1.2271 1.2293 1.2394 1.2564 1.2575 1.2547 1.20797 1.13908 1.13187 1.15621
1919.696 1.16457 1.19142 1.18771 1.13806 1.15984 1.18432 1.17754 1.15268 1.10546 1.0955
1938.990 1.0761 1.0734 1.0766 1.0825 1.063 1.0271 1.0359 1.0157 1.0319 1.049
1958.283 1.0311 1.054 1.0195 0.992 0.977 0.976 0.987 0.979 0.984 0.961
1977.577 0.946 0.951 0.96 0.981 0.981 0.953 0.957 0.976 0.979 0.961
1996.870 0.931 0.953 0.979 0.958 0.943 0.955 0.955 0.938 0.943 0.941
2016.164 0.976 0.988 0.956 0.955 0.965 0.984 0.986 0.976 1.003 1.009
2035.457 1.0214 1.0312 1 0.996 0.995 1.004 0.992 0.956 0.968 0.962
2054.750 0.914 0.901 0.907 0.897 0.875 0.875 0.878 0.896 0.899 0.872
2074.044 0.886 0.911 0.906 0.901 0.917 0.876 0.864 0.887 0.873 0.881
2093.337 0.92 0.923 0.894 0.895 0.923 0.893 0.866 0.89 0.903 0.858
2112.631 0.787 0.78 0.754 0.741 0.777 0.799 0.792 0.764 0.734 0.75
2131.924 0.757 0.747 0.746 0.752 0.761 0.765 0.764 0.735 0.689 0.672
2151.218 0.67 0.675 0.688 0.709 0.706 0.704 0.727 0.733 0.728 0.744
2170.511 0.732 0.702 0.737 0.758 0.749 0.712 0.72 0.751 0.744 0.736
2189.804 0.716 0.716 0.744 0.744 0.734 0.747 0.738 0.729 0.73 0.705
2209.098 0.681 0.704 0.732 0.748 0.754 0.763 0.775 0.773 0.769 0.744
2228.391 0.734 0.746 0.752 0.759 0.743 0.716 0.703 0.743 0.775 0.738
2247.685 0.743 0.746 0.703 0.676 0.711 0.735 0.715 0.696 0.708 0.739
2266.978 0.732 0.723 0.723 0.736 0.743 0.732 0.752 0.767 0.732 0.728
2286.272 0.745 0.731 0.748 0.74 0.738 0.78 0.772 0.737 0.736 0.767
2305.565 0.802 0.813 0.801 0.845 0.83 0.807 0.829 0.839 0.823 0.817
2324.858 0.843 0.83 0.819 0.809 0.82 0.825 0.805 0.796 0.805 0.803
2344.152 0.814 0.835 0.792 0.785 0.81 0.832 0.823 0.765 0.751 0.768
2363.445 0.777 0.769 0.776 0.772 0.786 0.808 0.796 0.776 0.77 0.797
2382.739 0.828 0.769 0.735 0.785 0.785 0.747 0.727 0.729 0.741 0.734
2402.032 0.77 0.798 0.752 0.741 0.731 0.751 0.781 0.786 0.751 0.745
2421.326 0.76 0.726 0.726 0.7 0.713 0.764 0.741 0.709 0.686 0.697
2440.619 0.707 0.722 0.732 0.722 0.742 0.753 0.714 0.682 0.723 0.762
2459.912 0.762 0.737 0.726 0.71 0.738 0.737 0.709 0.706 0.719 0.746
2479.206 0.739 0.726 0.709 0.72 0.738 0.753 0.716 0.679 0.689 0.73
2498.499 0.725 0.73 0.723 0.657 0.712 0.763 0.747 0.723 0.707 0.728
2517.793 0.727 0.753 0.798 0.806 0.802 0.806 0.82 0.82 0.858 0.86
2537.086 0.879 0.86 0.815 0.902 0.922 0.923 0.936 0.956 0.991 0.97
2556.380 0.956 0.966 0.939 0.929 0.986 0.982 0.997 1.0102 1.0196 1.0848
2575.673 1.10488 1.0979 1.11097 1.11995 1.0848 1.0769 1.11388 1.18738 1.18724 1.14823
2594.966 1.18767 1.2655 1.3065 1.2963 1.2938 1.2708 1.332 1.3521 1.321 1.376
2614.260 1.4243 1.4367 1.4365 1.4609 1.5173 1.5676 1.5681 1.5776 1.6127 1.6528
2633.553 1.7195 1.772 1.8216 1.9031 1.9881 2.0307 2.0569 2.0962 2.19 2.34
2652.847 2.46 2.49 2.58 2.75 2.87 2.89 3 3.22 3.39 3.46
2672.140 3.49 3.65 3.83 3.95 4.04 4.2 4.33 4.36 4.47 4.59
2691.434 4.67 4.74 4.85 4.95 5.01 5.07 5.12 5.2 5.27 5.33
2710.727 5.39 5.51 5.62 5.62 5.66 5.73 5.76 5.81 5.93 6.11
2730.020 6.2 6.28 6.42 6.56 6.71 6.93 7.15 7.37 7.59 7.78
2749.314 8.03 8.36 8.72 9.01 9.26 9.64 10.08 10.46 10.88 11.29
2768.607 11.67 12.01 12.42 12.84 13.13 13.36 13.64 14 14.34 14.75
2787.901 15.21 15.66 16.17 16.82 17.51 18.19 18.92 19.64 20.35 21.03
2807.194 21.64 22.24 22.8 23.23 23.6 23.93 24.2 24.22 24.2 24.08
2826.488 23.78 23.38 22.88 22.35 21.82 21.42 21.03 20.68 20.62 20.72
2845.781 20.96 21.5 22.21 23.12 24.31 25.64 27.01 28.16 28.97 29.48
2865.074 29.57 29.14 28.37 27.43 26.38 25.36 24.49 23.82 23.32 22.91
2884.368 22.65 22.68 22.94 23.33 23.9 24.64 25.66 27.09 28.81 30.91
2903.661 33.27 35.9 38.94 42.4 46.19 50.25 54.79 59.73 65.16 71.16
2922.955 77.56 84.24 90.88 96.89 101.52 104.34 104.76 102.66 98.4 92.35
2942.248 85.11 77.41 69.82 62.61 56.06 50.46 45.61 41.25 37.68 34.86
2961.542 32.47 30.41 28.75 27.36 26.24 25.54 25.23 25.36 25.69 26.27
2980.835 26.87 27.14 26.94 26.16 24.95 23.23 21.22 19.24 17.4 15.76
3000.128 14.29 12.93 11.73 10.7 9.7 8.76 7.95 7.25 6.64 6.06
3019.422 5.39 4.81 4.51 4.13 3.83 3.73 3.42 3.14 3.01 2.73
3038.715 2.45 2.31 2.14 2.09 1.9969 1.7634 1.653 1.5864 1.6034 1.613
3058.009 1.4942 1.4817 1.4327 1.2166 1.0602 1.0535 1.0558 1.0146 0.957 0.908
3077.302 0.863 0.926 0.937 0.856 0.874 0.867 0.851 0.833 0.878 0.82
3096.596 0.771 0.813 0.841 0.783 0.707 0.601 0.571 0.675 0.662 0.714
3115.889 0.654 0.523 0.475 0.506 0.601 0.696 0.695 0.52 0.438 0.513
3135.182 0.61 0.637 0.571 0.477 0.292 0.221 0.318 0.421 0.426 0.383
3154.476 0.37 0.338 0.324 0.433 0.434 0.284 0.421 0.554 0.48 0.451
3173.769 0.336 0.197 0.32 0.405 0.347 0.31 0.189 0.193 0.255 0.153
3193.063 0.161 0.179 0.183 0.24 0.243 0.339 0.445 0.392 0.407 0.395
3212.356 0.251 0.351 0.293 0.198 0.406 0.447 0.259 0.07 0 0.05
3231.650 0.21 0.33 0.354 0.273 0.19 0.211 0.135 0.02 0.04 0.112
3250.943 0.207 0.267 0.295 0.205 0.162 0.233 0.238 0.314 0.304 0.261
3270.236 0.262 0.255 0.374 0.412 0.32 0.266 0.287 0.228 0.11 0.166
3289.530 0.226 0.123 0.16 0.195 0.176 0.255 0.347 0.416 0.35 0.257
3308.823 0.275 0.221 0.168 0.179 0.223 0.246 0.138 0.127 0.185 0.138
3328.117 0.174 0.376 0.338 0.22 0.229 0.167 0.132 0.208 0.306 0.273
3347.410 0.164 0.112 0.175 0.237 0.238 0.1 0.02 0.237 0.266 0.179
3366.704 0.298 0.395 0.393 0.289 0.153 0.135 0.112 0.11 0.219 0.217
3385.997 0.202 0.319 0.383 0.37 0.232 0.03 0.156 0.32 0.319 0.193
3405.290 0.11 0.32 0.469 0.456 0.363 0.296 0.381 0.38 0.38 0.453
3424.584 0.394 0.466 0.528 0.505 0.554 0.487 0.425 0.453 0.527 0.608
3443.877 0.61 0.61 0.585 0.498 0.492 0.555 0.575 0.548 0.52 0.605
3463.171 0.749 0.708 0.715 0.748 0.819 0.938 0.927 0.936 1.0886 1.0858
3482.464 1.0125 1.10495 1.17603 1.0506 0.906 1.0282 0.891 0.749 0.813 0.713
3501.758 0.717 0.779 0.689 0.626 0.545 0.535 0.56 0.386 0.314 0.458
3521.051 0.441 0.36 0.396 0.339 0.328 0.485 0.465 0.367 0.405 0.396
3540.344 0.3 0.301 0.316 0.297 0.291 0.365 0.443 0.427 0.348 0.314
3559.638 0.407 0.404 0.343 0.306 0.368 0.454 0.399 0.287 0.283 0.307
3578.931 0.391 0.477 0.447 0.409 0.29 0.263 0.27 0.244 0.286 0.264
3598.225 0.271 0.358 0.426 0.408 0.385 0.415 0.37 0.311 0.228 0.253
3617.518 0.381 0.4 0.418 0.375 0.291 0.299 0.378 0.34 0.369 0.398
3636.812 0.269 0.379 0.499 0.408 0.327 0.234 0.291 0.377 0.417 0.496
3656.105 0.499 0.43 0.394 0.447 0.459 0.445 0.411 0.431 0.473 0.478
3675.398 0.511 0.472 0.448 0.511 0.451 0.437 0.435 0.378 0.476 0.456
3694.692 0.345 0.287 0.318 0.347 0.389 0.394 0.387 0.407 0.384 0.391
3713.985 0.375 0.472 0.538 0.468 0.415 0.461 0.478 0.439 0.411 0.398
3733.279 0.472 0.486 0.494 0.488 0.464 0.509 0.441 0.38 0.367 0.362
3752.572 0.453 0.481 0.487 0.464 0.464 0.529 0.529 0.527 0.479 0.397
3771.866 0.425 0.458 0.368 0.385 0.485 0.482 0.48 0.549 0.627 0.611
3791.159 0.513 0.501 0.554 0.542 0.525 0.563 0.561 0.577 0.558 0.58
3810.452 0.628 0.491 0.414 0.499 0.507 0.454 0.551 0.552 0.44 0.493
3829.746 0.576 0.496 0.489 0.586 0.546 0.554 0.611 0.6 0.539 0.486
3849.039 0.541 0.605 0.564 0.523 0.509 0.529 0.565 0.469 0.337 0.363
3868.333 0.521 0.638 0.624 0.616 0.634 0.619 0.564 0.596 0.671 0.653
3887.626 0.58 0.509 0.532 0.584 0.672 0.716 0.725 0.692 0.62 0.621
3906.920 0.596 0.576 0.579 0.576 0.59 0.628 0.58 0.577 0.606 0.608
3926.213 0.614 0.587 0.538 0.478 0.456 0.512 0.634 0.607 0.56 0.543
3945.506 0.621 0.65 0.566 0.648 0.709 0.621 0.613 0.676 0.685 0.722
3964.800 0.723 0.64 0.628 0.653 0.667 0.769 0.789 0.681 0.554 0.547
3984.093 0.535 0.492 0.618 0.684 0.621 0.587 0.642 0.655 0.584
##END=
