##TITLE=p-Octyloxybenzyl alcohol
##JCAMP-DX=4.24
##DATA TYPE=INFRARED SPECTRUM
##ORIGIN=EPA-IR VAPOR PHASE LIBRARY
##OWNER=SRD/NIST
Collection (C) 2018 copyright by the U.S. Secretary of Commerce
on behalf of the United States of America. All rights reserved.
##CAS REGISTRY NO=67698-68-4
##MOLFORM=C 15 H 24 O 2
##$NIST SOURCE=MSDC-IR
##STATE=gas
##XUNITS=1/CM
##YUNITS=ABSORBANCE
##XFACTOR=1.
##YFACTOR=0.001
##DELTAX=1.92898
##FIRSTX=549.8
##LASTX=4000.7
##FIRSTY=9.85
##MAXX=4000.7
##MINX=549.759
##MAXY=0.26392
##MINY=0.0004867
##NPOINTS=1790
##XYDATA=(X++(Y..Y))
549.759 9.85 9.8 9.88 9.96 9.88 10.21 10.59 10.69 10.89 11.15
569.049 11.54 11.87 12.2 13.02 13.93 14.68 15.29 15.65 15.91 16.12
588.339 15.9 15.04 14.06 12.84 11.46 10.25 9.15 8.14 7.24 6.5
607.628 6.1 5.69 5.08 4.76 4.59 4.2 3.78 3.62 3.47 3.36
626.918 3.31 3.21 3.2 3.25 3.22 3.13 3.11 3.06 2.97 2.77
646.208 2.63 2.4 2.17 2.14 2.28 2.35 2.16 2.21 2.28 2.11
665.498 2.18 2.41 2.53 2.54 2.56 2.67 2.74 2.71 3.01 3.26
684.787 3.45 3.67 3.85 4.15 4.45 4.72 5.12 5.62 6.13 6.58
704.077 6.88 7.26 7.69 7.96 8.1 8.28 8.25 8.38 8.5 8.25
723.367 8.03 7.91 7.84 7.77 7.72 7.47 7.12 7.04 7.17 7.23
742.657 7.16 7.26 7.52 7.56 7.51 7.52 7.76 7.99 7.99 8.02
761.947 8.15 8.3 8.44 8.54 8.69 8.98 9.22 9.44 9.75 9.97
781.236 10.05 10.45 11.17 11.73 12.52 13.45 14.46 15.74 17.09 18.49
800.526 20.13 22.08 23.61 24.82 25.99 27.29 28.75 30.43 32.34 34.49
819.816 37.23 39.79 41.78 43.21 43.71 43.22 41.93 40.18 38.26 36.3
839.106 34.21 31.93 29.75 27.59 25.52 23.58 21.59 19.52 17.6 16.02
858.395 14.67 13.48 12.39 11.48 10.86 10.32 9.58 9.02 8.81 8.62
877.685 8.6 8.58 8.53 8.5 8.6 8.7 8.72 9.05 9.39 9.59
896.975 9.9 10.13 10.38 10.75 11.06 11.12 11.17 11.3 11.46 11.67
916.265 11.74 11.88 12.04 12.14 12.33 12.59 12.88 13.06 13.14 13.32
935.555 13.71 13.92 14.11 14.57 15.15 15.94 16.74 17.58 18.59 19.74
954.844 21.09 22.52 24.22 25.99 27.39 28.99 30.86 32.46 34.1 35.84
974.134 37.71 39.57 41.39 43.4 45.62 48.02 50.79 53.65 56.09 58.76
993.424 61.49 63.98 66.83 69.92 73.26 76.93 80.59 83.85 85.92 86.78
1012.714 87.23 87.55 88.27 90.18 92.46 94.18 95.21 95.22 93.92 91.59
1032.003 88.64 85.5 82.64 79.72 76.4 73.33 70.44 67.05 63.5 60.2
1051.293 56.94 53.6 50.34 47.31 44.95 42.92 40.75 38.72 36.52 34.48
1070.583 32.67 30.47 28.41 26.39 24.57 23.39 22.02 20.59 19.24 18.22
1089.873 17.67 16.56 15.92 16.03 15.83 15.66 15.58 15.47 15.5 15.61
1109.163 15.97 16.24 16.36 16.23 16.15 16.12 15.61 15.23 14.83 14.54
1128.452 14.44 14.25 14.06 13.87 13.94 14.39 14.95 15.43 15.84 16.43
1147.742 17.57 19.09 20.35 22.24 25.02 28.79 34.07 40.89 50.5 63.01
1167.032 76.24 86.38 90.2 87 77.38 64.81 53.38 44.54 38.95 36.33
1186.322 35.33 35.02 35.96 38.14 40.6 43.65 47.68 52.12 56.95 62.57
1205.611 68.74 75.21 82.78 91 99.04 106.59 113.91 121.47 128.89 136.31
1224.901 144.32 153.8 164.89 177.09 190.27 203.81 217.7 231.22 242.02 248.5
1244.191 248.56 240.61 224.97 203.83 180.39 157.31 136.66 119.29 105.22 93.96
1263.481 84.87 77.88 72.46 68.47 65.56 63.37 62.18 61.61 61.48 61.79
1282.771 62.52 63.41 64.03 64.44 64.46 63.81 62.63 60.97 58.79 56.23
1302.060 53.19 49.96 46.69 43.44 40.46 37.78 35.34 33.14 31.32 29.8
1321.350 28.47 27.35 26.4 25.61 24.95 24.39 23.9 23.56 23.4 23.3
1340.640 23.31 23.45 23.65 23.94 24.4 24.92 25.6 26.42 27.33 28.29
1359.930 29.33 30.6 32.13 33.85 35.81 38.03 40.46 43.08 45.99 49.05
1379.219 51.97 54.45 56.13 56.62 55.62 53.07 49.5 45.53 41.47 37.69
1398.509 34.41 31.55 29.17 27.21 25.56 24.24 23.21 22.29 21.5 20.85
1417.799 20.39 19.91 19.43 19.14 18.88 18.69 18.76 19 19.33 19.82
1437.089 20.44 21.07 21.8 22.65 23.61 24.78 26.11 27.57 29.22 30.93
1456.378 32.67 34.45 36.29 38.41 41 44.24 48.02 51.67 53.94 54.12
1475.668 51.88 47.5 42.11 36.91 32.88 30.38 29.57 30.32 32.67 36.78
1494.958 43.14 52.47 65.27 82.24 103.74 129.11 157.04 181.02 192.92 188.83
1514.248 169.2 138.87 105.8 78.26 57.55 43.72 34.25 27.75 23.15 19.77
1533.538 17.3 15.45 14.03 12.84 11.9 11.11 10.6 10.23 9.9 9.72
1552.827 9.58 9.49 9.61 9.83 10.11 10.43 10.89 11.6 12.52 13.68
1572.117 15.06 16.68 18.63 20.75 22.79 24.67 26.19 27.26 28.1 28.98
1591.407 30.32 32.57 35.93 40.45 45.88 52.07 58.76 65.35 71 74.9
1610.697 76.27 74.44 69.43 61.65 52.55 43.58 35.28 28.26 22.82 18.81
1629.986 15.71 13.36 11.69 10.41 9.41 8.67 8.02 7.46 6.99 6.58
1649.276 6.21 5.9 5.58 5.18 4.88 4.64 4.35 4.1 3.9 3.76
1668.566 3.57 3.42 3.37 3.24 3.06 2.91 2.78 2.78 2.78 2.63
1687.856 2.49 2.46 2.44 2.42 2.36 2.3 2.33 2.36 2.34 2.34
1707.146 2.39 2.44 2.5 2.56 2.57 2.58 2.62 2.61 2.51 2.47
1726.435 2.43 2.37 2.4 2.43 2.44 2.42 2.5 2.6 2.66 2.78
1745.725 2.92 3.05 3.21 3.33 3.34 3.43 3.47 3.35 3.19 3.04
1765.015 2.86 2.67 2.51 2.35 2.23 2.14 2.08 2.04 1.97 1.84
1784.305 1.73 1.69 1.66 1.61 1.55 1.54 1.56 1.55 1.51 1.46
1803.594 1.42 1.38 1.37 1.39 1.41 1.41 1.47 1.49 1.44 1.44
1822.884 1.46 1.48 1.49 1.56 1.63 1.65 1.73 1.78 1.79 1.87
1842.174 1.96 2.03 2.13 2.24 2.33 2.46 2.58 2.62 2.76 2.96
1861.464 3.1 3.24 3.43 3.61 3.77 3.94 4 4.05 4.09 4.03
1880.754 3.88 3.73 3.63 3.47 3.3 3.15 2.99 2.88 2.86 2.8
1900.043 2.74 2.7 2.62 2.53 2.49 2.44 2.29 2.15 2.12 2.09
1919.333 2.09 2.07 2.06 2.13 2.16 2.17 2.17 2.17 2.18 2.18
1938.623 2.22 2.33 2.31 2.29 2.33 2.38 2.43 2.42 2.44 2.44
1957.913 2.44 2.46 2.57 2.65 2.64 2.63 2.68 2.77 2.85 2.91
1977.202 2.93 2.93 2.97 3.05 3.09 3.11 3.16 3.19 3.21 3.28
1996.492 3.33 3.37 3.43 3.46 3.52 3.57 3.61 3.63 3.69 3.7
2015.782 3.63 3.64 3.69 3.66 3.61 3.54 3.5 3.52 3.46 3.4
2035.072 3.37 3.29 3.29 3.31 3.3 3.27 3.29 3.29 3.23 3.23
2054.362 3.22 3.18 3.16 3.18 3.15 3.07 2.97 2.95 2.97 2.95
2073.651 2.9 2.84 2.77 2.76 2.73 2.57 2.48 2.41 2.38 2.35
2092.941 2.3 2.19 2.07 2.08 2.05 1.93 1.81 1.72 1.67 1.62
2112.231 1.58 1.53 1.47 1.44 1.45 1.44 1.4 1.35 1.35 1.33
2131.521 1.27 1.24 1.27 1.29 1.26 1.22 1.16 1.13 1.1 1.13
2150.810 1.12 1.08 1.07 1.01 0.9912 1.02 1.05 1.05 1.04 1.02
2170.100 1.04 1.01 1.01 1.04 1.01 0.972 0.9768 1 1.01 1.07
2189.390 1.13 1.08 1.02 1.03 1.09 1.18 1.16 1.11 1.14 1.21
2208.680 1.27 1.27 1.26 1.27 1.3 1.39 1.41 1.39 1.4 1.34
2227.970 1.3 1.32 1.34 1.34 1.29 1.28 1.29 1.31 1.39 1.43
2247.259 1.39 1.38 1.37 1.35 1.41 1.46 1.48 1.49 1.53 1.53
2266.549 1.46 1.49 1.57 1.65 1.65 1.59 1.62 1.67 1.7 1.67
2285.839 1.64 1.63 1.62 1.59 1.58 1.61 1.62 1.63 1.63 1.67
2305.129 1.69 1.71 1.7 1.66 1.69 1.75 1.8 1.83 1.78 1.79
2324.418 1.85 1.85 1.83 1.88 1.88 1.87 1.86 1.87 1.91 1.95
2343.708 2.03 1.97 1.91 1.96 1.97 1.95 1.87 1.8 1.76 1.72
2362.998 1.7 1.66 1.6 1.57 1.53 1.56 1.56 1.54 1.61 1.64
2382.288 1.67 1.69 1.65 1.71 1.74 1.79 1.86 1.88 1.97 1.97
2401.578 2.01 2.14 2.18 2.19 2.26 2.27 2.28 2.25 2.26 2.35
2420.867 2.27 2.16 2.28 2.33 2.26 2.26 2.27 2.29 2.31 2.31
2440.157 2.37 2.48 2.43 2.4 2.45 2.51 2.53 2.56 2.63 2.68
2459.447 2.72 2.71 2.73 2.68 2.72 2.77 2.74 2.81 2.83 2.83
2478.737 2.82 2.75 2.73 2.73 2.71 2.72 2.69 2.64 2.62 2.58
2498.026 2.54 2.54 2.56 2.57 2.59 2.58 2.65 2.73 2.74 2.83
2517.316 2.94 2.98 3.02 3.02 3.03 3.11 3.15 3.11 3.08 3.1
2536.606 3.12 3.18 3.19 3.16 3.18 3.04 2.84 2.75 2.73 2.69
2555.896 2.58 2.47 2.49 2.55 2.53 2.54 2.54 2.52 2.55 2.59
2575.186 2.58 2.6 2.6 2.56 2.58 2.51 2.5 2.59 2.6 2.55
2594.475 2.5 2.5 2.48 2.46 2.43 2.43 2.46 2.47 2.5 2.54
2613.765 2.56 2.55 2.59 2.59 2.58 2.66 2.67 2.61 2.72 2.79
2633.055 2.77 2.84 2.84 2.82 2.9 2.95 2.93 2.98 3.05 3.1
2652.345 3.09 3.02 3.16 3.31 3.31 3.42 3.52 3.55 3.69 3.79
2671.634 3.82 3.85 3.89 3.92 3.99 4.07 4.08 4.16 4.21 4.22
2690.924 4.22 4.16 4.16 4.2 4.2 4.17 4.19 4.26 4.31 4.36
2710.214 4.36 4.43 4.49 4.56 4.62 4.69 4.82 4.98 5.2 5.28
2729.504 5.46 5.69 5.84 6.06 6.35 6.57 6.67 6.84 7.02 7.13
2748.794 7.2 7.25 7.32 7.25 7.13 7.18 7.23 7.22 7.22 7.19
2768.083 7.26 7.31 7.36 7.49 7.62 7.79 8.03 8.24 8.4 8.59
2787.373 8.83 9.08 9.29 9.58 9.93 10.19 10.46 10.82 11.19 11.5
2806.663 11.92 12.46 12.93 13.48 14.14 14.75 15.42 16.23 17.02 17.92
2825.953 18.98 20.2 21.55 22.95 24.5 26.33 28.57 31.21 34.22 37.67
2845.242 41.83 46.78 52.61 59.56 67.39 76.09 85.13 94.03 102.24 108.85
2864.532 113.68 116.77 118.51 119.05 118.85 118.49 118.13 117.74 117.14 116.05
2883.822 114 111.09 107.56 103.89 100.85 98.77 97.84 98.28 99.92 102.86
2903.112 107.23 112.7 119.14 126.31 134.03 142.41 151.36 160.95 171.61 183.58
2922.401 196.66 210.64 225.11 238.8 250.4 259.01 263.6 263.92 260.59 254
2941.691 245.22 235.1 223.46 211.29 199.4 188.14 178.16 169.69 163 157.81
2960.981 153.67 150.11 146.28 141.16 134 124.53 113.03 100.31 87.48 75.85
2980.271 66.04 58.08 51.69 46.55 42.32 38.81 35.95 33.46 31.4 29.66
2999.561 27.93 26.44 25.32 24.29 23.32 22.58 22.07 21.63 21.4 21.16
3018.850 21.07 21.38 21.92 22.72 23.77 25.29 26.99 28.49 29.46 29.74
3038.140 29.05 27.36 24.98 22.28 19.92 18.08 16.57 15.3 14.47 13.87
3057.430 13.42 13.33 13.43 13.67 14.05 14.38 14.61 14.69 14.5 14.01
3076.720 13.32 12.57 11.82 11.21 10.7 10.25 9.97 9.89 9.83 9.79
3096.009 9.73 9.47 9.29 9.06 8.72 8.31 7.79 7.27 6.81 6.37
3115.299 6.04 5.7 5.4 5.2 4.9 4.61 4.43 4.3 4.1 3.88
3134.589 3.7 3.39 3.1 2.92 2.75 2.57 2.55 2.44 2.23 2.27
3153.879 2.33 2.3 2.27 2.27 2.16 2.1 2.08 1.98 1.95 1.89
3173.169 1.87 1.79 1.68 1.77 1.85 1.86 1.76 1.62 1.69 1.76
3192.458 1.7 1.6 1.63 1.64 1.51 1.45 1.46 1.37 1.21 1.23
3211.748 1.36 1.38 1.29 1.17 1.16 1.26 1.23 1.02 1.03 1.14
3231.038 1.11 1.09 1.05 0.9712 0.996 0.9252 0.7574 0.8371 0.9483 0.8363
3250.328 0.7835 0.8001 0.7823 0.7555 0.7488 0.7829 0.85 0.7269 0.6424 0.6836
3269.617 0.6583 0.565 0.4867 0.6208 0.6904 0.5808 0.6262 0.7195 0.6873 0.7079
3288.907 0.754 0.7187 0.748 0.679 0.6247 0.7292 0.6332 0.6184 0.6213 0.5769
3308.197 0.6278 0.6496 0.6984 0.6471 0.6099 0.5081 0.5202 0.613 0.5834 0.5951
3327.487 0.5707 0.6833 0.7428 0.6596 0.6186 0.6819 0.7702 0.7552 0.6825 0.5962
3346.777 0.6041 0.6098 0.5757 0.6492 0.7164 0.7396 0.7861 0.7951 0.7064 0.6791
3366.066 0.6493 0.5748 0.5885 0.7071 0.818 0.8044 0.8619 0.8934 0.7756 0.8798
3385.356 0.9182 0.8096 0.8177 0.8665 0.8908 0.9739 0.9941 0.8861 0.8097 0.7364
3404.646 0.7793 0.8841 0.8822 0.8126 0.8687 0.8696 0.8524 0.8763 0.7996 0.8278
3423.936 0.9899 1.1 1.06 1.03 0.9787 0.9123 0.9185 0.8634 0.7961 0.8633
3443.225 0.9717 1.02 0.9933 0.8937 0.9994 1.02 0.9302 0.971 0.924 0.7356
3462.515 0.7068 0.8433 0.7312 0.6574 0.7559 0.7312 0.6588 0.6815 0.695 0.6895
3481.805 0.7084 0.6427 0.7314 0.7964 0.7711 0.8521 0.7985 0.8361 0.9706 0.8893
3501.095 0.8129 0.878 0.8582 0.846 0.8121 0.7687 0.7416 0.684 0.6457 0.7053
3520.385 0.8591 0.8472 0.7736 0.7799 0.7898 0.721 0.7504 0.7396 0.7386 0.8696
3539.674 0.8257 0.7828 0.8163 0.9123 0.921 0.8889 0.8634 0.8351 0.918 0.8131
3558.964 0.6896 0.8244 0.9075 0.7966 0.7339 0.8155 0.8551 0.9066 0.937 0.8483
3578.254 0.816 0.8775 0.8434 0.8462 0.9937 1.18 1.24 1.25 1.26 1.31
3597.544 1.41 1.37 1.4 1.52 1.71 1.85 1.91 2 2.24 2.56
3616.833 2.61 2.71 3.08 3.46 3.86 4.31 4.74 5.26 5.82 6.47
3636.123 7.26 8.02 8.79 9.63 10.35 10.95 11.47 11.75 11.91 11.98
3655.413 11.84 11.68 11.59 11.19 10.79 10.44 9.84 9.25 8.59 7.87
3674.703 7.2 6.58 5.98 5.45 5.07 4.68 4.35 4.14 3.84 3.51
3693.993 3.4 3.24 2.88 2.68 2.56 2.4 2.32 2.33 2.16 1.96
3713.282 1.92 1.86 1.85 1.75 1.64 1.57 1.4 1.4 1.43 1.4
3732.572 1.47 1.52 1.52 1.39 1.25 1.22 1.23 1.22 1.24 1.32
3751.862 1.2 1 1.18 1.32 1.21 1.27 1.3 1.23 1.17 1.07
3771.152 1.13 1.22 1.16 1.17 1.17 1.17 1.11 1.09 1.12 1.15
3790.441 1.2 1.24 1.12 1.04 1.08 1.08 1.08 1.1 1.26 1.22
3809.731 1.1 1.15 1.11 1.07 1.19 1.24 1.14 1.23 1.35 1.3
3829.021 1.19 1.14 1.35 1.38 1.16 1.26 1.39 1.44 1.48 1.51
3848.311 1.48 1.35 1.26 1.21 1.29 1.45 1.41 1.44 1.51 1.58
3867.601 1.7 1.54 1.44 1.54 1.64 1.68 1.65 1.58 1.6 1.65
3886.890 1.69 1.71 1.74 1.57 1.49 1.55 1.43 1.51 1.68 1.7
3906.180 1.62 1.64 1.65 1.56 1.65 1.57 1.5 1.63 1.47 1.34
3925.470 1.48 1.49 1.4 1.27 1.25 1.26 1.13 1.03 1.16 1.28
3944.760 1.21 1.18 1.06 1.06 1.18 1.18 1.19 1.24 1.19 1.19
3964.049 1.07 0.935 1.16 1.24 1.26 1.28 1.21 1.15 0.9723 1.1
3983.339 1.32 1.26 1.33 1.28 1.1 1.23 1.33 1.26 1.28 1.32
##END=
