##TITLE=Methylphosphorodichloridate
##JCAMP-DX=4.24
##DATA TYPE=INFRARED SPECTRUM
##ORIGIN=EPA-IR VAPOR PHASE LIBRARY
##OWNER=SRD/NIST
Collection (C) 2018 copyright by the U.S. Secretary of Commerce
on behalf of the United States of America. All rights reserved.
##CAS REGISTRY NO=677-24-7
##MOLFORM=C H 3 Cl 2 O 2 P
##$NIST SOURCE=MSDC-IR
##STATE=gas
##XUNITS=1/CM
##YUNITS=ABSORBANCE
##XFACTOR=1.
##YFACTOR=0.001
##DELTAX=1.92898
##FIRSTX=549.8
##LASTX=4000.7
##FIRSTY=61
##MAXX=4000.7
##MINX=549.759
##MAXY=0.20305
##MINY=0
##NPOINTS=1790
##XYDATA=(X++(Y..Y))
549.759 61 61.13 59.8 59.26 59.65 60.45 61.71 61.84 62.5 64.51
569.049 67.32 71.46 76.51 81.98 87.28 94.11 103.09 111.82 117.91 117.83
588.339 114.6 117.64 126.23 134.2 140.11 145.08 150.19 155.36 160.7 165.3
607.628 169.1 171.76 171.96 168.52 159.64 146.87 133.29 120.22 107.11 91.62
626.918 73.74 56.21 40.95 29 21.2 16.14 12.5884 10.27 8.76 7.52
646.208 6.44 5.73 5.13 4.87 4.76 4.51 4.45 4.45 3.95 3.58
665.498 3.87 4.1 3.83 3.63 3.98 4.16 3.97 3.88 3.81 3.85
684.787 4.05 4.1 4 3.99 4.06 3.94 3.84 3.96 4.05 4.05
704.077 3.95 3.72 3.65 3.52 3.54 3.64 3.66 3.93 3.96 3.75
723.367 3.53 3.6 3.9 3.99 4.19 4.26 4.16 4.1 3.91 4.21
742.657 4.78 5.24 5.64 5.81 5.89 6.11 6.55 6.85 7.24 7.78
761.947 8.21 8.68 9.26 10.17 11.295 12.2583 13.64 15.68 18.19 21.09
781.236 24.14 27.58 31.48 35.64 40.28 44.87 49.17 53.49 57 59.48
800.526 60.73 60.65 60.14 59.19 57.26 54.38 50.02 44.68 39.45 34.42
819.816 29.27 24.46 20.45 16.84 13.95 11.834 10.15 8.85 8.07 7.36
839.106 6.76 6.52 6.43 6.42 6.12 5.73 5.54 5.54 5.54 5.47
858.395 5.46 5.4 5.16 4.71 4.58 4.41 4.13 3.93 3.6 3.61
877.685 3.52 3.15 3.06 2.85 2.61 2.45 2.31 2.31 2.4 2.48
896.975 2.51 2.53 2.35 2.47 2.82 2.8 2.74 2.87 2.93 2.87
916.265 2.84 3.01 3.32 3.68 3.84 3.85 3.89 3.94 4.21 4.55
935.555 4.62 4.72 4.95 5.07 5 5.04 5.11 5.1 5.11 5.18
954.844 5.55 5.73 5.82 5.83 5.81 6.08 6.29 6.53 6.66 6.58
974.134 6.65 6.88 7.22 7.71 8.05 8.43 9.11 9.72 10.26 10.92
993.424 11.619 12.6999 14.03 15.48 17.47 19.65 22.55 26.41 30.89 36.05
1012.714 42.11 49.42 57.96 68.2 79.73 92.82 108.05 124.76 141.77 157.58
1032.003 170.06 179.13 185.26 189.68 196.01 203.05 201.43 187.14 172.47 163.44
1051.293 153.96 140.01 121.74 102.99 87.74 76.84 69.62 65.22 62.66 61.1
1070.583 60.22 60.22 60.98 60.33 57.57 54.23 50.87 48.2 45.87 42.73
1089.873 39.27 36.1 33.12 30.29 27.86 25.83 24.11 22.68 21.55 20.56
1109.163 19.89 19.29 18.97 18.69 17.99 17.43 17.03 16.68 16.33 15.7
1128.452 14.75 14.11 13.85 13.67 13.56 13.35 13.27 13.0763 12.5914 12.0748
1147.742 11.592 11.392 12.0777 12.67 12.7005 12.892 13.0511 13.46 14.58 15.59
1167.032 16.25 17 17.71 18.75 19.35 19.67 20.14 20.54 21.1 21.33
1186.322 21.16 20.84 20.35 19.61 18.75 18.07 17.71 17.28 16.52 16.14
1205.611 15.55 14.88 15.07 15.06 15.06 14.93 14.56 14.35 13.79 13.42
1224.901 13.15 12.6859 12.2874 11.91 10.97 10.08 9.96 9.6 8.9 8.18
1244.191 7.49 6.92 6.54 6.26 5.76 5.35 5.15 4.76 4.43 4.18
1263.481 4.12 4.18 4.04 3.99 4.08 4.29 4.69 4.95 5.49 6.58
1282.771 8.15 10.2 12.9946 16.81 21.73 27.81 35.2 43.64 52.87 62.15
1302.060 70.41 76.52 80.76 86.38 98.64 121.03 146.89 147.36 116.81 95
1321.350 92.88 95.79 96.99 94.27 87.81 79.14 71.01 65.72 64.16 64.41
1340.640 60.36 49.43 39.96 36.78 35.63 33.37 29.69 24.99 20.22 16.25
1359.930 13.19 10.99 9.64 8.77 8.2 7.79 7.41 7.11 6.91 6.8
1379.219 6.69 6.54 6.46 6.48 6.53 6.66 6.82 7.05 7.33 7.54
1398.509 7.49 7.13 6.74 6.33 5.94 5.74 5.61 5.49 5.39 5.27
1417.799 5.17 5.07 5.13 5.19 5.19 5.28 5.38 5.55 5.71 5.92
1437.089 6.22 6.56 6.94 7.33 7.79 8.31 8.83 9.48 10.2 10.41
1456.378 10.34 10.45 10.42 10.26 10.16 9.92 9.47 8.92 8.53 8.16
1475.668 7.82 7.51 7.13 6.86 6.58 6.34 6.06 5.8 5.62 5.45
1494.958 5.37 5.22 5.06 4.84 4.72 4.69 4.57 4.45 4.38 4.4
1514.248 4.35 4.29 4.32 4.31 4.27 4.27 4.29 4.24 4.29 4.31
1533.538 4.24 4.21 4.23 4.29 4.25 4.24 4.23 4.15 4.13 4.11
1552.827 4 3.89 3.96 4.02 3.97 4 3.99 3.91 3.86 3.84
1572.117 3.88 3.98 3.98 3.94 3.97 4.06 4.17 4.13 4.05 4.15
1591.407 4.24 4.18 4.07 3.89 3.64 3.5 3.47 3.33 3.11 3.15
1610.697 3.2 3.14 3.1 3.08 3.01 2.89 2.77 2.68 2.67 2.63
1629.986 2.54 2.47 2.46 2.45 2.4 2.4 2.3 2.22 2.19 2.2
1649.276 2.26 2.24 2.11 2.02 2.06 2 1.88 1.85 1.94 1.98
1668.566 1.9 1.87 1.86 1.77 1.77 1.8 1.74 1.69 1.72 1.76
1687.856 1.74 1.71 1.7 1.67 1.63 1.62 1.62 1.65 1.64 1.63
1707.146 1.67 1.67 1.69 1.6 1.55 1.63 1.68 1.69 1.62 1.54
1726.435 1.53 1.59 1.59 1.59 1.63 1.6 1.62 1.68 1.69 1.69
1745.725 1.64 1.65 1.68 1.69 1.71 1.73 1.76 1.77 1.76 1.78
1765.015 1.81 1.79 1.78 1.88 1.98 1.99 1.94 2.01 2.13 2.09
1784.305 2.11 2.13 2.09 2.16 2.17 2.2 2.26 2.32 2.45 2.56
1803.594 2.62 2.72 2.85 2.95 2.99 3.17 3.41 3.53 3.66 3.82
1822.884 4.07 4.39 4.64 4.78 4.93 5.15 5.38 5.6 5.79 5.88
1842.174 5.95 5.93 5.85 5.75 5.64 5.54 5.31 5 4.7 4.5
1861.464 4.27 3.93 3.68 3.53 3.41 3.3 3.24 3.14 2.95 2.83
1880.754 2.78 2.72 2.63 2.55 2.45 2.36 2.35 2.35 2.33 2.34
1900.043 2.33 2.26 2.22 2.16 2.12 2.12 2.15 2.19 2.11 1.99
1919.333 1.99 2.04 2.06 1.98 1.93 1.95 1.94 1.92 1.89 1.87
1938.623 1.8 1.77 1.78 1.85 1.96 1.92 1.86 1.8 1.79 1.86
1957.913 1.91 1.88 1.79 1.74 1.74 1.83 1.9 1.87 1.92 1.9
1977.202 1.83 1.88 1.89 1.91 1.85 1.86 1.92 1.84 1.79 1.81
1996.492 1.76 1.77 1.85 1.88 1.87 1.88 1.83 1.8 1.8 1.75
2015.782 1.77 1.81 1.76 1.74 1.73 1.69 1.74 1.72 1.7 1.84
2035.072 1.88 1.75 1.66 1.71 1.75 1.73 1.72 1.75 1.76 1.65
2054.362 1.6 1.69 1.69 1.64 1.61 1.63 1.63 1.66 1.67 1.66
2073.651 1.63 1.62 1.61 1.61 1.66 1.63 1.58 1.52 1.61 1.57
2092.941 1.43 1.49 1.48 1.5 1.62 1.62 1.58 1.62 1.61 1.6
2112.231 1.65 1.62 1.55 1.57 1.59 1.6 1.62 1.59 1.58 1.6
2131.521 1.62 1.59 1.56 1.56 1.58 1.63 1.57 1.52 1.56 1.54
2150.810 1.5 1.46 1.44 1.52 1.48 1.41 1.48 1.47 1.47 1.53
2170.100 1.5 1.42 1.34 1.34 1.51 1.53 1.44 1.41 1.38 1.43
2189.390 1.38 1.28 1.27 1.32 1.42 1.48 1.46 1.43 1.44 1.47
2208.680 1.43 1.38 1.47 1.54 1.52 1.48 1.49 1.55 1.58 1.53
2227.970 1.41 1.35 1.45 1.51 1.5 1.46 1.47 1.59 1.66 1.64
2247.259 1.6 1.59 1.54 1.51 1.56 1.65 1.7 1.68 1.58 1.58
2266.549 1.68 1.64 1.57 1.49 1.46 1.55 1.59 1.51 1.5 1.49
2285.839 1.42 1.4 1.35 1.4 1.42 1.37 1.34 1.38 1.36 1.31
2305.129 1.42 1.46 1.43 1.34 1.26 1.38 1.42 1.34 1.36 1.47
2324.418 1.48 1.44 1.43 1.42 1.41 1.38 1.36 1.41 1.43 1.38
2343.708 1.31 1.29 1.31 1.38 1.41 1.42 1.39 1.43 1.54 1.46
2362.998 1.4 1.42 1.37 1.35 1.38 1.51 1.51 1.4 1.32 1.25
2382.288 1.25 1.28 1.28 1.21 1.26 1.36 1.42 1.38 1.28 1.27
2401.578 1.24 1.21 1.12 1.24 1.42 1.3 1.23 1.22 1.2 1.22
2420.867 1.19 1.22 1.26 1.25 1.17 1.22 1.33 1.28 1.2 1.13
2440.157 1.12 1.15 1.15 1.2 1.3 1.29 1.16 1.18 1.21 1.12
2459.447 0.97 1.03 1.09 1.11 1.22 1.25 1.31 1.23 1.15 1.15
2478.737 1.17 1.19 1.13 1.16 1.22 1.21 1.2 1.17 1.2 1.28
2498.026 1.31 1.2 1.16 1.19 1.2 1.17 1.14 1.17 1.2 1.19
2517.316 1.15 1.13 1.09 1.16 1.36 1.43 1.36 1.24 1.18 1.15
2536.606 1.19 1.24 1.29 1.25 1.17 1.19 1.22 1.21 1.25 1.2
2555.896 1.18 1.19 1.22 1.18 1.15 1.16 1.14 1.12 1.13 1.24
2575.186 1.24 1.1 1.14 1.32 1.27 1.29 1.32 1.27 1.39 1.47
2594.475 1.45 1.47 1.54 1.59 1.41 1.25 1.41 1.61 1.7 1.76
2613.765 1.69 1.54 1.65 1.71 1.62 1.59 1.6 1.55 1.45 1.53
2633.055 1.55 1.51 1.49 1.47 1.4 1.43 1.43 1.34 1.26 1.24
2652.345 1.23 1.31 1.39 1.26 1.22 1.34 1.37 1.32 1.27 1.28
2671.634 1.33 1.21 1.12 1.11 1.03 1.02 1.05 1.01 0.92 0.97
2690.924 1.03 1.02 1.09 1.13 1.08 1.08 1.1 1.12 1.18 1.14
2710.214 1.07 1.07 1.03 1.06 1.16 1.01 0.94 1 1 1.01
2729.504 0.95 0.97 1.09 1.14 1.17 1.04 1 1.09 1.12 1.01
2748.794 0.97 1.13 1.15 1.05 0.98 0.96 1.02 0.97 0.95 0.99
2768.083 0.87 0.81 0.78 0.9 1.17 1.23 1.19 1.12 0.97 1.02
2787.373 1.09 1.08 1.07 1.07 1.08 1.07 0.98 0.99 1.15 1.22
2806.663 1.26 1.3 1.27 1.3 1.38 1.43 1.48 1.45 1.33 1.22
2825.953 1.37 1.64 1.7 1.62 1.72 1.89 2.02 2.27 2.54 2.77
2845.242 3 3.26 3.64 4.29 4.92 5.37 5.81 6.21 6.51 7
2864.532 7.59 7.7 7.16 6.66 6.5 6.42 6.17 5.63 5.17 4.74
2883.822 4.29 4 3.87 3.64 3.5 3.63 3.55 3.6 3.74 3.69
2903.112 3.77 3.91 4.08 4.12 4.31 4.47 4.59 4.97 5.1 5.23
2922.401 5.34 5.37 5.55 5.78 6.22 6.51 6.62 6.72 6.73 6.91
2941.691 7.26 7.63 8.08 8.77 9.67 10.94 12.6316 14.48 16.12 17.38
2960.981 18.37 19.21 20.53 22.14 22.83 21.6 19.86 18.89 18.14 17.3
2980.271 15.87 14.04 12.014 10.19 9.01 7.97 6.99 6.56 6.35 6.1
2999.561 5.78 5.56 5.51 5.4 5.42 5.46 5.48 5.62 5.65 5.52
3018.850 5.41 5.4 5.41 5.37 5.3 5.24 5.2 5.17 5.17 5.18
3038.140 5.21 5.2 4.96 4.74 4.61 4.41 4.29 4.07 3.97 3.87
3057.430 3.59 3.61 3.55 3.43 3.38 3.17 3.09 3.13 3.08 3.08
3076.720 3 2.97 3.06 2.93 2.86 2.87 2.77 2.64 2.53 2.63
3096.009 2.71 2.46 2.23 2.2 2.3 2.39 2.2 2.02 2.06 1.98
3115.299 1.99 2.03 1.91 1.78 1.71 1.62 1.49 1.46 1.39 1.37
3134.589 1.47 1.51 1.52 1.47 1.38 1.25 1.19 1.15 1.08 1.27
3153.879 1.18 0.95 0.95 0.97 0.97 1.06 1.04 0.87 0.83 0.86
3173.169 0.96 0.89 0.76 0.85 0.91 0.77 0.72 0.78 0.71 0.56
3192.458 0.82 0.94 0.77 0.77 0.79 0.62 0.65 0.74 0.64 0.76
3211.748 0.73 0.59 0.62 0.72 0.84 0.77 0.76 0.82 0.84 0.75
3231.038 0.71 0.68 0.61 0.75 0.76 0.68 0.68 0.41 0.32 0.53
3250.328 0.41 0.42 0.4 0.32 0.6 0.52 0.41 0.66 0.7 0.49
3269.617 0.35 0.62 0.71 0.4 0.24 0.28 0.58 0.84 0.8 0.7
3288.907 0.74 0.75 0.55 0.53 0.51 0.33 0.44 0.5 0.33 0.45
3308.197 0.76 0.87 0.75 0.68 0.78 0.72 0.55 0.57 0.69 0.73
3327.487 0.61 0.49 0.52 0.73 0.79 0.58 0.77 0.85 0.57 0.47
3346.777 0.84 0.71 0.59 0.85 0.6 0.48 0.69 0.83 0.76 0.48
3366.066 0.47 0.71 0.68 0.64 0.46 0.32 0.41 0.69 0.8 0.6
3385.356 0.5 0.41 0.29 0.48 0.46 0.22 0.34 0.6 0.52 0.56
3404.646 0.9 0.72 0.45 0.48 0.63 0.95 0.8 0.48 0.67 0.91
3423.936 0.87 0.88 0.89 0.69 0.57 0.59 0.65 0.59 0.69 0.6
3443.225 0.48 0.64 0.61 0.45 0.36 0.55 0.68 0.64 0.71 0.78
3462.515 0.53 0.45 0.61 0.45 0.36 0.6 0.64 0.6 0.52 0.41
3481.805 0.44 0.49 0.63 0.59 0.43 0.55 0.61 0.52 0.64 0.8
3501.095 0.78 0.7 0.53 0.39 0.72 0.75 0.46 0.56 0.59 0.59
3520.385 0.58 0.48 0.57 0.67 0.75 0.74 0.51 0.24 0.32 0.72
3539.674 0.74 0.58 0.55 0.32 0.33 0.49 0.5 0.49 0.32 0.27
3558.964 0.45 0.73 0.6 0.35 0.46 0.49 0.44 0.56 0.54 0.5
3578.254 0.62 0.62 0.43 0.42 0.6 0.49 0.54 0.7 0.78 0.76
3597.544 0.49 0.65 0.69 0.43 0.57 0.56 0.46 0.56 0.6 0.58
3616.833 0.7 0.89 0.82 0.77 0.69 0.57 0.51 0.45 0.75 0.95
3636.123 0.58 0.12 0.55 0.94 0.84 0.79 0.71 0.57 0.52 0.68
3655.413 0.69 0.63 0.46 0.34 0.33 0.65 0.85 0.86 0.83 0.65
3674.703 0.64 0.36 0.26 0.5 0.66 0.64 0.65 0.82 0.87 0.75
3693.993 0.6 0.58 0.53 0.48 0.45 0.5 0.81 0.99 0.83 0.67
3713.282 0.53 0.3 0.36 0.44 0.55 0.5 0.57 0.49 0.39 0.47
3732.572 0.47 0.71 0.68 0.61 0.43 0.4 0.71 0.88 0.87 0.76
3751.862 0.79 0.81 0.6 0.52 0.64 0.79 0.89 0.81 0.74 0.47
3771.152 0.37 0.57 0.61 0.8 0.79 0.58 0.46 0.53 0.59 0.62
3790.441 0.67 0.4 0.12 0 0.3 0.54 0.71 1 0.79 0.64
3809.731 0.75 0.55 0.34 0.49 0.69 0.77 0.65 0.88 0.77 0.52
3829.021 0.62 0.57 0.63 0.84 0.81 0.52 0.59 0.58 0.88 1.14
3848.311 0.66 0.17 0.41 0.75 0.58 0.36 0.47 0.67 0.55 0.46
3867.601 0.32 0.21 0.39 0.71 0.67 0.75 0.96 0.89 0.92 0.66
3886.890 0.53 0.74 0.78 0.59 0.69 0.87 0.82 0.91 0.94 0.77
3906.180 0.59 0.47 0.44 0.59 0.9 0.87 0.68 0.78 0.59 0.7
3925.470 0.73 0.59 0.77 0.66 0.45 0.22 0.41 0.72 0.75 0.57
3944.760 0.5 0.66 0.68 0.55 0.31 0.45 0.75 0.84 0.71 0.61
3964.049 0.81 0.85 0.83 0.86 0.83 0.73 0.59 0.4 0.54 0.78
3983.339 0.68 0.44 0.41 0.72 0.9 0.71 0.72 0.7 0.64 0.84
##END=
