##TITLE=Bis-(3-aminopropyl)-phenylphosphine
##JCAMP-DX=4.24
##DATA TYPE=INFRARED SPECTRUM
##ORIGIN=NIST Mass Spectrometry Data Center
##OWNER=NIST Standard Reference Data Program
Collection (C) 2018 copyright by the U.S. Secretary of Commerce
on behalf of the United States of America. All rights reserved.
##CAS REGISTRY NO=6775-01-5
##MOLFORM=C 12 H 21 N 2 P
##$NIST SOURCE=MSDC-IR
##SPECTROMETER/DATA SYSTEM=HP-GC/MS/IRD
##STATE=gas
##XUNITS=1/CM
##YUNITS=ABSORBANCE
##XFACTOR=1.0
##YFACTOR=0.000006700
##DELTAX=4.0
##FIRSTX=550.0
##LASTX=3846.0
##FIRSTY=0.003719
##MAXX=3846
##MINX=550
##MAXY=0.067
##MINY=0
##NPOINTS=825
##XYDATA=(X++(Y..Y))
550.0 555 224 1 55 67 100 117 132 153 165
590.0 189 213 232 254 283 336 378 415 469 546
630.0 639 738 833 938 1039 1110 1174 1244 1339 1472
670.0 1608 1733 1886 2178 2781 3678 4437 4626 4347 4039
710.0 3957 4064 4330 4703 5144 5636 6097 6326 6223 5923
750.0 5695 5689 5830 6003 6103 6072 5860 5472 4935 4323
790.0 3757 3288 2925 2637 2388 2167 1977 1812 1674 1552
830.0 1432 1331 1256 1207 1168 1131 1096 1064 1041 1040
870.0 1048 1056 1060 1046 1010 947 880 814 739 679
910.0 625 560 504 462 428 409 385 359 356 358
950.0 361 369 393 432 475 505 530 556 569 583
990.0 636 738 848 932 979 1027 1113 1230 1347 1376
1030.0 1252 1037 864 813 830 890 1027 1236 1509 1784
1070.0 1956 1952 1805 1642 1529 1462 1400 1289 1144 978
1110.0 809 660 533 431 360 307 262 237 222 213
1150.0 216 223 220 228 245 266 303 339 352 352
1190.0 332 295 269 246 222 220 222 222 225 227
1230.0 232 223 211 201 196 205 234 274 313 343
1270.0 352 344 342 354 378 417 469 513 523 496
1310.0 464 441 427 415 411 425 469 553 663 781
1350.0 868 912 933 957 990 1042 1108 1165 1182 1133
1390.0 1019 880 770 724 769 892 1058 1215 1335 1451
1430.0 1606 1727 1628 1393 1179 1001 878 816 826 880
1470.0 931 961 980 980 899 706 477 319 248 220
1510.0 197 175 168 165 167 178 189 200 204 207
1550.0 218 237 267 302 352 420 492 575 660 721
1590.0 745 760 802 890 1036 1231 1458 1666 1773 1725
1630.0 1528 1266 1022 836 693 577 476 387 312 253
1670.0 209 174 145 126 108 91 82 75 68 62
1710.0 59 60 59 54 52 57 64 67 78 91
1750.0 92 86 78 70 72 85 92 92 95 107
1790.0 138 183 223 244 230 199 168 146 128 112
1830.0 96 82 75 75 74 71 69 75 92 116
1870.0 141 156 163 158 149 128 97 67 47 35
1910.0 31 30 32 40 51 70 102 142 168 178
1950.0 178 169 154 125 88 52 27 16 8 3
1990.0 1 0 0 0 0 3 7 8 6 6
2030.0 11 12 13 12 12 14 14 16 17 16
2070.0 17 16 15 17 18 18 20 24 24 21
2110.0 24 26 25 26 28 30 30 29 31 31
2150.0 29 28 33 36 36 35 36 38 39 40
2190.0 39 38 42 43 41 39 40 42 41 39
2230.0 39 41 40 41 42 45 46 47 50 50
2270.0 53 53 52 52 50 50 50 49 54 65
2310.0 76 84 84 76 69 69 70 68 68 67
2350.0 64 65 64 61 58 57 53 49 46 43
2390.0 42 39 41 41 41 45 48 50 49 46
2430.0 46 44 47 50 54 52 47 49 52 51
2470.0 50 49 47 47 47 46 48 53 53 53
2510.0 54 53 54 56 61 64 65 69 71 69
2550.0 70 77 88 92 94 97 107 116 116 119
2590.0 127 128 129 136 143 146 149 154 158 163
2630.0 170 179 186 190 199 210 220 227 235 246
2670.0 261 269 272 282 289 295 301 304 305 312
2710.0 321 333 347 359 379 404 418 439 458 469
2750.0 482 497 503 504 504 512 526 544 570 605
2790.0 646 703 773 862 976 1107 1242 1368 1491 1633
2830.0 1820 2079 2420 2844 3338 3862 4343 4696 4858 4842
2870.0 4694 4489 4303 4205 4272 4530 4880 5188 5443 5732
2910.0 6158 6773 7560 8417 9207 9797 10000 9572 8471 6993
2950.0 5517 4260 3274 2546 2021 1646 1381 1196 1068 980
2990.0 932 923 949 999 1046 1090 1135 1174 1163 1089
3030.0 1002 942 901 913 1056 1383 1953 2689 3245 3373
3070.0 3150 2838 2488 2023 1574 1199 901 664 486 378
3110.0 307 261 227 209 213 218 224 226 219 201
3150.0 172 143 122 114 114 113 107 99 85 78
3190.0 85 89 84 81 75 73 74 74 76 73
3230.0 72 67 63 71 74 69 65 69 67 62
3270.0 64 67 70 71 70 71 70 63 69 73
3310.0 71 74 86 97 110 129 156 189 215 225
3350.0 207 174 144 123 110 99 102 102 91 89
3390.0 96 104 111 115 113 127 125 114 110 104
3430.0 98 86 79 66 64 68 57 55 57 52
3470.0 45 46 48 45 44 42 43 40 40 43
3510.0 42 45 46 48 49 43 44 43 43 54
3550.0 56 52 47 55 60 48 48 49 41 51
3590.0 62 61 61 57 59 55 55 66 66 68
3630.0 68 62 56 54 64 59 62 59 57 66
3670.0 61 54 55 66 71 75 78 71 64 62
3710.0 59 46 49 59 60 64 71 62 60 69
3750.0 67 66 65 61 51 41 43 49 49 47
3790.0 48 47 43 43 43 46 51 54 45 34
3830.0 34 39 43 42 42
##END=
