##TITLE=5-Methyl-5-hexen-3-ol
##JCAMP-DX=4.24
##DATA TYPE=INFRARED SPECTRUM
##ORIGIN=NIST Mass Spectrometry Data Center
##OWNER=NIST Standard Reference Data Program
Collection (C) 2018 copyright by the U.S. Secretary of Commerce
on behalf of the United States of America. All rights reserved.
##CAS REGISTRY NO=67760-89-8
##MOLFORM=C 7 H 14 O
##$NIST SOURCE=MSDC-IR
##SPECTROMETER/DATA SYSTEM=HP-GC/MS/IRD
##STATE=gas
##XUNITS=1/CM
##YUNITS=ABSORBANCE
##XFACTOR=1.0
##YFACTOR=0.000001900
##DELTAX=4.0
##FIRSTX=550.0
##LASTX=3846.0
##FIRSTY=0.000942
##MAXX=3846
##MINX=550
##MAXY=0.019
##MINY=0
##NPOINTS=825
##XYDATA=(X++(Y..Y))
550.0 496 533 488 411 382 384 318 252 262 224
590.0 198 177 109 98 136 103 87 138 139 87
630.0 100 124 133 118 62 31 20 34 62 99
670.0 81 110 152 92 81 102 97 103 85 58
710.0 84 94 76 89 86 56 44 52 56 79
750.0 121 126 141 174 190 219 242 255 264 269
790.0 255 229 205 203 225 255 289 337 398 467
830.0 530 581 694 842 950 1075 1214 1291 1369 1470
870.0 1630 1924 2361 2968 3636 4161 4375 4248 3840 3201
910.0 2519 1925 1481 1193 1050 992 952 965 1052 1174
950.0 1359 1646 1976 2307 2591 2786 2903 2944 2894 2809
990.0 2735 2647 2548 2499 2481 2439 2380 2320 2255 2165
1030.0 2065 1973 1921 1897 1928 1976 2031 2090 2098 2068
1070.0 2015 1940 1853 1814 1856 1979 2128 2282 2391 2433
1110.0 2423 2327 2168 1963 1728 1509 1295 1122 989 871
1150.0 810 780 772 787 822 882 952 1011 1091 1150
1190.0 1207 1258 1302 1350 1397 1462 1530 1587 1627 1674
1230.0 1722 1742 1756 1776 1793 1814 1825 1828 1816 1787
1270.0 1744 1708 1666 1613 1565 1524 1486 1424 1363 1307
1310.0 1260 1235 1227 1222 1221 1218 1244 1296 1361 1460
1350.0 1598 1754 1940 2142 2345 2565 2779 2941 3008 2970
1390.0 2789 2502 2199 1920 1708 1564 1493 1516 1552 1633
1430.0 1774 1955 2120 2260 2390 2458 2545 2533 2391 2204
1470.0 1985 1724 1414 1144 935 775 649 562 493 491
1510.0 429 360 370 368 329 313 307 347 364 304
1550.0 271 318 406 347 287 298 332 335 291 300
1590.0 307 312 340 367 402 466 564 670 793 949
1630.0 1127 1373 1572 1688 1748 1734 1575 1271 993 763
1670.0 580 449 333 303 271 185 196 223 190 131
1710.0 99 137 173 145 130 157 183 153 137 154
1750.0 172 162 164 183 185 216 226 214 245 278
1790.0 318 333 316 299 269 218 171 143 116 101
1830.0 79 54 47 61 68 48 35 29 25 43
1870.0 57 41 39 37 32 31 34 34 22 27
1910.0 32 36 42 35 30 27 26 27 23 26
1950.0 25 23 25 17 12 14 19 18 20 23
1990.0 19 17 17 20 10 0 2 3 2 5
2030.0 13 23 25 17 11 16 16 23 28 25
2070.0 25 20 12 14 26 22 16 19 23 25
2110.0 28 21 7 12 15 16 27 29 21 21
2150.0 32 33 26 25 24 19 24 28 21 17
2190.0 23 34 41 39 32 33 33 32 29 26
2230.0 31 40 41 35 30 31 34 27 22 26
2270.0 36 44 42 36 34 38 36 34 38 45
2310.0 56 64 75 89 106 121 126 116 103 98
2350.0 103 125 148 162 148 128 108 86 58 45
2390.0 56 54 54 61 50 52 69 65 44 40
2430.0 48 49 50 54 52 48 33 35 42 30
2470.0 26 27 19 23 38 35 31 32 35 44
2510.0 39 30 31 37 43 43 39 36 40 46
2550.0 54 54 48 56 59 53 53 54 66 73
2590.0 66 70 80 81 97 109 106 110 112 120
2630.0 126 125 130 129 133 140 146 157 160 156
2670.0 167 189 197 192 200 211 216 216 226 239
2710.0 256 270 268 275 289 298 322 335 344 350
2750.0 353 363 358 349 383 403 406 423 437 458
2790.0 478 511 526 562 625 679 749 831 924 1022
2830.0 1147 1319 1515 1728 1996 2297 2614 2966 3344 3737
2870.0 4143 4577 4999 5338 5579 5738 5833 5882 5954 6131
2910.0 6462 6943 7528 8161 8832 9442 9857 10000 9823 9390
2950.0 8828 8315 8053 8178 8642 9080 9124 8725 7916 6743
2990.0 5393 4204 3321 2657 2153 1762 1478 1267 1110 1002
3030.0 925 879 857 835 847 897 980 1119 1331 1627
3070.0 2022 2424 2651 2671 2496 2148 1643 1161 854 634
3110.0 504 436 363 329 306 268 238 219 204 191
3150.0 187 174 152 137 144 146 130 120 118 119
3190.0 110 98 89 83 72 72 65 66 61 39
3230.0 35 25 27 38 31 38 36 31 42 47
3270.0 52 57 33 21 34 48 52 41 44 70
3310.0 79 63 46 42 63 50 54 80 69 55
3350.0 63 76 78 69 59 79 101 82 82 82
3390.0 86 99 99 90 84 82 110 108 85 90
3430.0 104 121 112 98 99 110 108 103 112 107
3470.0 104 122 118 104 101 103 121 125 99 105
3510.0 130 126 116 131 144 145 146 153 155 160
3550.0 156 154 172 172 173 180 176 208 265 325
3590.0 397 496 641 775 882 961 1003 1002 959 956
3630.0 964 932 944 966 1024 1043 971 898 778 652
3670.0 553 474 368 266 248 229 190 174 152 150
3710.0 193 176 121 131 151 176 206 174 202 238
3750.0 225 182 143 131 127 147 130 133 141 121
3790.0 115 132 162 188 160 118 139 165 152 138
3830.0 136 166 176 157 147
##END=
