##TITLE=Ethyl N-phenylformimidate
##JCAMP-DX=4.24
##DATA TYPE=INFRARED SPECTRUM
##ORIGIN=EPA-IR VAPOR PHASE LIBRARY
##OWNER=SRD/NIST
Collection (C) 2018 copyright by the U.S. Secretary of Commerce
on behalf of the United States of America. All rights reserved.
##CAS REGISTRY NO=6780-49-0
##MOLFORM=C 9 H 11 N O
##$NIST SOURCE=MSDC-IR
##STATE=gas
##XUNITS=1/CM
##YUNITS=ABSORBANCE
##XFACTOR=1.
##YFACTOR=0.001
##DELTAX=1.92898
##FIRSTX=549.8
##LASTX=4000.7
##FIRSTY=7.461
##MAXX=4000.7
##MINX=549.759
##MAXY=0.744231
##MINY=0
##NPOINTS=1790
##XYDATA=(X++(Y..Y))
549.759 7.461 6.791 6.171 5.341 4.651 4.001 3.611 3.141 2.801 2.791
569.049 2.391 2.101 1.891 1.711 1.691 1.491 1.521 1.551 1.341 1.0288
588.339 0.7449 0.9282 1.1459 1.201 1.0258 0.9214 1.221 1.301 1.0815 0.9038
607.628 1.0783 1.371 1.311 1.201 1.281 1.271 1.291 1.401 1.421 1.521
626.918 1.701 1.711 1.811 1.871 2.011 2.151 2.081 2.271 2.611 2.931
646.208 3.341 3.711 4.121 4.851 5.571 6.411 7.201 8.171 9.601 11.131
665.498 13.161 15.861 19.291 23.491 28.511 34.051 39.591 44.901 49.861 54.481
684.787 58.471 61.381 63.541 65.301 66.171 64.871 61.761 57.951 53.751 49.051
704.077 43.771 38.331 32.861 27.411 22.631 18.941 16.131 13.991 12.331 11.151
723.367 10.541 10.451 10.491 10.931 12.101 13.451 15.371 17.961 20.901 24.471
742.657 28.571 33.301 38.251 43.351 48.431 53.271 57.851 61.741 64.271 63.121
761.947 58.841 54.011 49.171 44.111 38.601 33.091 27.961 23.211 19.171 15.941
781.236 12.941 10.601 9.111 7.771 6.941 6.331 5.571 5.181 4.901 4.671
800.526 4.651 4.641 4.871 5.041 5.001 5.031 5.361 5.581 5.811 6.221
819.816 6.791 7.281 7.771 8.341 8.731 9.371 10.061 10.561 10.961 11.361
839.106 11.591 11.691 11.391 10.931 10.511 9.891 9.161 8.581 8.221 7.921
858.395 7.611 7.441 7.331 7.151 7.041 7.401 8.081 8.341 8.571 9.161
877.685 9.851 10.431 10.991 11.761 12.831 13.831 14.461 15.311 16.341 16.921
896.975 17.081 17.111 16.711 15.601 14.511 13.321 11.881 10.721 9.831 9.051
916.265 8.091 7.161 6.551 6.011 5.481 5.371 5.371 4.991 4.571 4.531
935.555 4.531 4.391 4.361 4.421 4.511 4.581 4.771 5.181 5.561 5.741
954.844 5.921 6.251 6.721 7.181 7.771 8.331 8.511 8.911 9.171 9.341
974.134 9.991 10.571 10.851 11.021 11.161 11.611 12.371 13.191 14.461 15.931
993.424 17.321 18.941 20.961 23.041 24.831 26.681 28.501 30.051 31.481 32.031
1012.714 32.031 32.491 32.851 32.921 32.661 31.671 30.251 28.531 26.911 25.321
1032.003 23.271 20.541 18.071 16.551 15.541 15.111 14.821 14.441 14.301 14.361
1051.293 14.401 14.721 14.931 15.031 15.321 15.991 17.211 17.701 18.071 17.971
1070.583 17.941 18.351 18.381 19.101 19.371 19.351 20.151 20.691 20.831 21.841
1089.873 23.661 24.471 25.211 26.441 26.781 26.911 27.411 27.461 27.271 26.851
1109.163 25.771 24.661 24.261 23.941 23.181 22.981 22.711 22.441 22.851 23.241
1128.452 23.261 23.431 23.871 24.351 24.771 25.811 27.231 28.551 30.661 33.121
1147.742 35.921 39.081 42.721 47.111 53.021 61.601 73.401 89.141 107.801 126.261
1167.032 142.121 158.621 180.311 209.361 245.321 286.411 335.451 395.551 463.171 527.971
1186.322 579.931 609.751 613.831 596.561 553.891 487.071 405.011 317.531 239.481 180.481
1205.611 140.321 114.291 96.951 84.641 75.981 70.931 68.811 68.401 70.051 72.901
1224.901 74.941 76.161 76.681 76.571 76.111 75.871 76.241 77.331 80.651 86.461
1244.191 94.071 102.981 111.661 119.161 124.621 127.241 126.621 122.211 115.041 106.331
1263.481 96.361 85.701 75.261 66.441 59.311 53.631 49.201 45.601 42.561 40.191
1282.771 38.191 36.341 35.041 34.291 34.141 34.571 35.811 37.511 39.481 41.471
1302.060 42.761 43.111 42.351 40.591 38.101 35.011 31.291 27.371 23.701 20.601
1321.350 18.201 16.251 14.791 13.771 12.921 12.251 11.801 11.511 11.431 11.471
1340.640 11.581 11.831 12.191 12.671 13.181 13.781 14.451 14.991 15.541 16.001
1359.930 16.151 16.191 16.131 16.021 15.801 15.471 15.161 14.911 14.881 15.141
1379.219 15.551 16.101 16.811 17.661 18.511 19.161 19.621 19.711 19.341 18.681
1398.509 17.691 16.341 14.761 13.101 11.651 10.531 9.791 9.181 8.771 8.611
1417.799 8.501 8.551 8.681 8.861 9.221 9.661 10.161 10.741 11.341 11.961
1437.089 12.661 13.301 13.901 14.611 15.211 15.511 15.631 15.741 15.941 16.091
1456.378 16.081 16.121 16.241 16.461 16.821 17.521 18.731 20.441 22.881 26.401
1475.668 30.961 36.591 42.691 48.781 54.541 59.041 61.051 60.141 56.801 52.231
1494.958 46.461 39.271 31.601 24.661 19.591 16.451 14.451 13.101 12.181 11.421
1514.248 10.771 10.101 9.351 8.721 8.131 7.661 7.371 7.071 6.941 6.961
1533.538 6.981 7.081 7.221 7.451 7.691 8.021 8.461 8.821 9.111 9.471
1552.827 10.101 10.801 11.541 12.421 13.501 14.731 16.271 18.101 20.271 22.791
1572.117 25.771 29.331 33.731 38.961 45.181 52.831 61.901 72.601 84.741 98.281
1591.407 112.441 124.991 133.181 135.291 131.661 123.921 113.371 99.851 83.891 68.081
1610.697 55.651 47.871 44.111 42.911 43.221 44.661 47.481 51.791 57.721 65.551
1629.986 75.631 89.031 107.491 133.341 167.921 213.271 273.871 349.691 440.971 541.931
1649.276 635.641 702.341 736.911 744.231 725.281 676.071 589.231 468.181 345.531 251.781
1668.566 191.441 155.581 134.221 120.171 109.381 100.531 92.531 85.081 77.401 69.201
1687.856 61.161 53.441 46.861 41.771 37.861 34.731 32.341 30.051 28.221 26.691
1707.146 25.401 24.251 23.251 22.491 21.981 21.471 21.031 20.661 20.291 19.831
1726.435 19.201 18.501 17.691 16.791 15.831 14.921 14.141 13.371 12.741 12.181
1745.725 11.681 11.281 10.921 10.601 10.391 10.331 10.381 10.501 10.811 11.131
1765.015 11.511 11.951 12.341 12.641 12.781 12.801 12.691 12.171 11.471 10.781
1784.305 10.011 9.161 8.351 7.651 7.021 6.481 6.031 5.671 5.321 4.951
1803.594 4.611 4.281 3.961 3.661 3.431 3.341 3.291 3.211 3.221 3.191
1822.884 3.191 3.251 3.341 3.551 3.671 3.781 3.971 4.141 4.281 4.491
1842.174 4.711 4.871 5.031 5.261 5.491 5.621 5.771 5.891 6.051 6.241
1861.464 6.391 6.541 6.561 6.481 6.421 6.301 6.041 5.721 5.471 5.121
1880.754 4.711 4.391 4.111 3.881 3.691 3.531 3.391 3.341 3.321 3.271
1900.043 3.311 3.381 3.381 3.491 3.711 3.921 4.111 4.321 4.611 4.831
1919.333 5.051 5.401 5.741 5.921 6.101 6.331 6.531 6.701 6.811 6.731
1938.623 6.601 6.491 6.241 5.951 5.471 4.971 4.581 4.081 3.551 3.081
1957.913 2.741 2.481 2.381 2.371 2.331 2.221 2.141 2.201 2.171 2.191
1977.202 2.221 2.201 2.221 2.311 2.421 2.471 2.471 2.551 2.641 2.691
1996.492 2.821 2.971 3.121 3.331 3.521 3.651 3.801 4.021 4.241 4.471
2015.782 4.691 4.851 5.021 5.101 5.141 5.141 5.061 4.911 4.721 4.431
2035.072 4.031 3.711 3.401 3.121 2.851 2.651 2.601 2.541 2.391 2.281
2054.362 2.241 2.191 2.121 2.031 2.021 1.951 1.921 1.911 1.841 1.861
2073.651 1.841 1.701 1.651 1.701 1.751 1.791 1.851 1.911 1.941 1.981
2092.941 1.991 2.081 2.191 2.241 2.261 2.241 2.301 2.411 2.531 2.631
2112.231 2.671 2.801 2.891 2.901 3.041 3.221 3.451 3.611 3.731 3.851
2131.521 3.911 3.951 3.941 3.971 3.981 3.871 3.791 3.651 3.421 3.311
2150.810 3.141 2.921 2.851 2.741 2.571 2.471 2.391 2.321 2.241 2.161
2170.100 2.131 2.051 2.001 2.011 2.041 2.051 2.051 2.111 2.201 2.211
2189.390 2.201 2.241 2.271 2.241 2.171 2.041 1.891 1.771 1.651 1.451
2208.680 1.351 1.381 1.341 1.251 1.201 1.0919 1.0273 1.0587 1.0343 1.0026
2227.970 1.034 1.0184 1.1046 1.191 1.0907 1.0522 1.1453 1.241 1.251 1.311
2247.259 1.321 1.301 1.331 1.321 1.341 1.331 1.351 1.311 1.311 1.421
2266.549 1.441 1.501 1.521 1.441 1.401 1.501 1.561 1.521 1.551 1.511
2285.839 1.511 1.451 1.351 1.461 1.541 1.591 1.631 1.501 1.541 1.701
2305.129 1.671 1.711 1.811 1.881 1.981 2.111 2.111 2.161 2.231 2.271
2324.418 2.391 2.511 2.711 2.921 3.071 3.201 3.371 3.431 3.401 3.481
2343.708 3.531 3.581 3.601 3.641 3.721 3.781 3.921 4.041 4.181 4.381
2362.998 4.561 4.761 4.831 4.941 5.071 5.271 5.421 5.321 5.201 5.001
2382.288 4.821 4.631 4.211 3.841 3.601 3.281 2.971 2.711 2.491 2.301
2401.578 2.211 2.101 1.981 1.941 1.871 1.841 1.871 1.881 1.831 1.851
2420.867 1.911 1.881 1.851 1.901 1.871 1.821 1.851 1.871 1.871 1.831
2440.157 1.791 1.791 1.691 1.571 1.611 1.671 1.641 1.731 1.871 1.881
2459.447 1.881 2.031 2.111 2.161 2.261 2.301 2.351 2.421 2.501 2.581
2478.737 2.701 2.771 2.821 2.901 2.861 2.781 2.841 2.781 2.641 2.571
2498.026 2.491 2.411 2.351 2.311 2.121 2.001 2.031 1.981 1.881 1.881
2517.316 1.821 1.701 1.701 1.701 1.731 1.681 1.611 1.531 1.501 1.571
2536.606 1.561 1.511 1.571 1.671 1.711 1.731 1.701 1.751 1.711 1.601
2555.896 1.561 1.491 1.421 1.361 1.311 1.241 1.1482 1.0962 1.0886 1.0563
2575.186 0.9494 0.9416 0.9551 0.9156 0.9266 1.0351 1.116 1.0839 1.0014 1.0507
2594.475 1.1041 1.0834 1.1516 1.1834 1.271 1.261 1.231 1.291 1.281 1.281
2613.765 1.371 1.371 1.351 1.431 1.311 1.1819 1.1666 1.1812 1.1779 1.0859
2633.055 0.9747 0.8917 0.829 0.864 0.835 0.695 0.7549 0.8163 0.8012 0.8135
2652.345 0.8356 0.8716 0.909 0.9078 0.843 0.8704 0.8831 0.7794 0.7099 0.7026
2671.634 0.7722 0.7842 0.7297 0.8256 0.8216 0.6475 0.7052 0.7738 0.7351 0.7649
2690.924 0.7996 0.8811 0.8049 0.7184 0.7383 0.8243 0.904 0.8112 0.8183 0.8696
2710.214 0.9057 0.9551 0.9393 0.9259 1.0251 1.174 1.221 1.1751 1.221 1.271
2729.504 1.361 1.421 1.441 1.461 1.431 1.441 1.471 1.491 1.631 1.711
2748.794 1.641 1.621 1.631 1.681 1.731 1.941 2.091 2.091 2.171 2.201
2768.083 2.301 2.321 2.421 2.511 2.401 2.431 2.511 2.441 2.331 2.361
2787.373 2.581 2.671 2.501 2.551 2.781 2.881 2.921 3.021 3.181 3.331
2806.663 3.581 3.891 4.181 4.501 4.821 5.151 5.541 6.041 6.501 6.971
2825.953 7.451 7.961 8.531 9.091 9.681 10.211 10.601 10.991 11.141 11.151
2845.242 11.041 10.681 10.191 9.651 9.201 8.851 8.531 8.321 8.271 8.331
2864.532 8.641 8.951 9.411 9.961 10.441 11.221 12.201 13.071 13.831 14.641
2883.822 15.471 16.071 16.541 16.961 17.321 17.711 18.121 18.611 19.121 19.491
2903.112 20.001 20.371 20.551 20.901 21.181 21.611 22.091 22.531 23.131 23.941
2922.401 25.091 26.641 28.581 30.811 33.451 36.771 40.591 44.411 48.141 51.511
2941.691 54.181 55.791 56.271 55.961 54.721 52.691 50.351 48.141 46.431 45.351
2960.981 44.631 44.311 44.371 44.741 45.141 45.471 46.161 46.921 47.761 48.661
2980.271 49.381 50.211 50.801 51.101 51.131 50.561 49.871 49.171 48.421 47.731
2999.561 46.801 45.661 44.271 42.631 40.991 39.341 37.581 36.071 34.921 34.231
3018.850 34.071 34.301 34.741 35.441 36.441 37.311 38.241 39.191 39.711 39.371
3038.140 38.231 36.831 34.951 32.621 30.091 27.541 25.651 24.431 24.231 25.071
3057.430 26.611 29.021 32.081 35.871 40.091 43.791 46.281 47.421 47.601 47.041
3076.720 45.621 42.851 39.091 35.501 32.681 30.661 29.211 27.921 26.431 24.771
3096.009 23.121 21.201 19.001 16.941 14.961 13.071 11.211 9.491 8.051 6.781
3115.299 5.811 5.001 4.211 3.801 3.541 3.261 3.081 2.701 2.471 2.451
3134.589 2.361 2.281 2.281 2.321 2.231 2.061 2.001 2.061 2.121 2.061
3153.879 1.891 1.991 2.071 2.061 2.101 2.031 1.941 1.761 1.621 1.641
3173.169 1.601 1.601 1.591 1.521 1.531 1.371 1.331 1.421 1.431 1.381
3192.458 1.451 1.491 1.371 1.341 1.531 1.541 1.411 1.561 1.451 1.211
3211.748 1.179 1.231 1.1817 1.1145 1.0658 1.0429 1.261 1.321 1.1466 1.0248
3231.038 1.0437 0.9981 1.097 1.1792 1.0666 1.191 1.251 0.9923 0.8392 0.9039
3250.328 0.9756 1.01 1.0475 1.191 1.1862 1.1499 1.231 1.301 1.311 1.421
3269.617 1.691 1.851 1.781 1.791 2.031 2.271 2.591 2.861 3.061 3.191
3288.907 3.331 3.531 3.681 3.811 3.811 3.521 3.181 2.931 2.641 2.231
3308.197 1.911 1.871 1.761 1.641 1.531 1.221 0.9952 1.0424 1.1564 1.201
3327.487 1.251 1.231 1.0106 0.8439 0.778 0.8343 0.8744 0.7688 0.6866 0.849
3346.777 1.0217 1.0358 0.8231 0.6281 0.6962 0.7077 0.6698 0.7169 0.7113 0.6166
3366.066 0.5805 0.506 0.4593 0.4765 0.5557 0.5784 0.5101 0.5473 0.6014 0.571
3385.356 0.6297 0.5362 0.4952 0.5817 0.5333 0.4804 0.4746 0.5653 0.6104 0.5479
3404.646 0.4696 0.4616 0.4744 0.4124 0.3711 0.3671 0.3602 0.25866 0.21522 0.2804
3423.936 0.2648 0.3412 0.2981 0.3408 0.4864 0.5138 0.4828 0.4384 0.4915 0.4105
3443.225 0.4163 0.4428 0.3775 0.4084 0.4831 0.5221 0.3518 0.2946 0.4791 0.3747
3462.515 0.193833 0.295 0.4986 0.4814 0.3272 0.2985 0.3685 0.3192 0.3337 0.521
3481.805 0.3791 0.18628 0.1581 0 0.013 0.1236 0.192552 0.3912 0.4152 0.3676
3501.095 0.3838 0.3545 0.28048 0.1647 0.044 0.089 0.2198 0.3037 0.3329 0.1737
3520.385 0.1346 0.22909 0.3232 0.28659 0.18107 0.1765 0.3704 0.4763 0.4269 0.26193
3539.674 0.061 0.22961 0.4495 0.4524 0.356 0.23978 0.1657 0.25857 0.3771 0.3704
3558.964 0.3323 0.397 0.4748 0.3545 0.21871 0.22413 0.2922 0.21993 0.0973 0.1026
3578.254 0.21554 0.4909 0.5367 0.28469 0.23613 0.3191 0.26864 0.27517 0.21289 0.1537
3597.544 0.28789 0.27133 0.1254 0.207 0.26922 0.25134 0.1184 0.0917 0.27952 0.2924
3616.833 0.4184 0.5353 0.375 0.27544 0.3271 0.21742 0.23974 0.3423 0.4973 0.5432
3636.123 0.4255 0.4203 0.4465 0.3848 0.27985 0.3285 0.5573 0.602 0.3784 0.3225
3655.413 0.4223 0.4007 0.3041 0.3512 0.3574 0.339 0.23768 0.3308 0.5556 0.4012
3674.703 0.4049 0.5842 0.5286 0.3231 0.3311 0.4207 0.3487 0.4997 0.6968 0.6596
3693.993 0.6878 0.6468 0.5542 0.6876 0.7606 0.6107 0.5243 0.6486 0.7044 0.7161
3713.282 0.6471 0.5009 0.44 0.4558 0.5721 0.5416 0.4346 0.4796 0.5171 0.4668
3732.572 0.5985 0.6485 0.5063 0.3515 0.4042 0.511 0.4413 0.5568 0.6882 0.7032
3751.862 0.7142 0.672 0.6054 0.6485 0.7863 0.8274 0.7006 0.6142 0.5973 0.525
3771.152 0.6579 0.7923 0.6045 0.463 0.466 0.4752 0.5311 0.5826 0.6085 0.6074
3790.441 0.5197 0.5056 0.5246 0.3783 0.3495 0.4666 0.5344 0.6082 0.6508 0.4938
3809.731 0.3495 0.4024 0.5177 0.5166 0.5376 0.5718 0.5063 0.6164 0.6426 0.4428
3829.021 0.5547 0.6125 0.4364 0.4471 0.3707 0.4417 0.5585 0.4276 0.4808 0.4125
3848.311 0.4096 0.3692 0.2638 0.4191 0.402 0.326 0.3861 0.4557 0.4323 0.4303
3867.601 0.3567 0.22933 0.25451 0.27284 0.3686 0.4397 0.3315 0.3868 0.4848 0.3825
3886.890 0.19215 0.1168 0.2991 0.4779 0.4504 0.543 0.6419 0.5261 0.4688 0.4935
3906.180 0.4072 0.3953 0.3161 0.200827 0.27063 0.26718 0.3574 0.3897 0.24893 0.3325
3925.470 0.5474 0.5284 0.3574 0.3428 0.3127 0.4485 0.5752 0.5249 0.4607 0.3568
3944.760 0.24223 0.5182 0.7909 0.6728 0.6056 0.533 0.5762 0.5089 0.5268 0.6696
3964.049 0.6835 0.5553 0.4468 0.4794 0.5114 0.5943 0.4834 0.4317 0.518 0.625
3983.339 0.6039 0.5235 0.4844 0.466 0.5626 0.6302 0.6944 0.74 0.768 0.783
##END=
