##TITLE=4-Bromo-2-methylbenzonitrile
##JCAMP-DX=4.24
##DATA TYPE=INFRARED SPECTRUM
##ORIGIN=EPA-IR VAPOR PHASE LIBRARY
##OWNER=SRD/NIST
Collection (C) 2018 copyright by the U.S. Secretary of Commerce
on behalf of the United States of America. All rights reserved.
##CAS REGISTRY NO=67832-11-5
##MOLFORM=C 8 H 6 Br N
##$NIST SOURCE=MSDC-IR
##STATE=gas
##XUNITS=1/CM
##YUNITS=ABSORBANCE
##XFACTOR=1.
##YFACTOR=0.001
##DELTAX=1.92898
##FIRSTX=549.8
##LASTX=4000.7
##FIRSTY=7.086
##MAXX=4000.7
##MINX=549.759
##MAXY=0.099206
##MINY=0
##NPOINTS=1790
##XYDATA=(X++(Y..Y))
549.759 7.086 8.426 10.166 12.006 13.816 15.776 18.506 22.916 25.386 22.866
569.049 19.926 18.976 17.916 15.906 13.446 10.946 8.786 7.076 5.666 4.796
588.339 4.336 4.256 4.756 4.986 5.046 5.226 5.086 4.656 4.256 4.116
607.628 3.726 2.926 2.306 1.726 1.196 1.1312 1.0384 0.9657 0.8923 0.9927
626.918 1.296 1.426 1.866 2.456 2.646 2.706 2.626 2.656 2.676 2.216
646.208 1.766 1.366 1.003 0.7909 0.7177 0.6248 0.5366 0.4934 0.4419 0.3891
665.498 0.19027 0.0944 0.27429 0.3685 0.382 0.2938 0.1604 0.1509 0.19951 0.23464
684.787 0.19782 0.3017 0.3561 0.2868 0.4119 0.4412 0.3841 0.5471 0.7414 0.7135
704.077 0.637 0.6432 0.5918 0.5717 0.6566 0.7275 0.8609 1.186 1.436 1.476
723.367 1.636 1.846 2.006 2.276 2.296 2.166 2.316 2.396 2.406 2.456
742.657 2.396 2.296 2.076 1.846 1.506 1.1335 0.9658 0.9957 1.0892 0.8978
761.947 0.8604 1.0878 1.1232 1.276 1.506 1.556 1.846 2.326 2.836 3.526
781.236 4.436 5.496 6.626 7.876 9.096 9.886 10.346 11.056 12.116 13.656
800.526 15.606 18.476 22.676 27.456 32.586 37.776 42.146 46.646 53.656 62.886
819.816 64.026 53.676 45.906 43.076 39.326 34.766 29.656 24.636 20.306 16.906
839.106 14.836 13.856 13.796 14.506 16.016 18.226 21.236 25.736 32.416 41.606
858.395 52.966 64.666 73.496 77.636 79.056 79.476 76.766 68.506 56.916 44.456
877.685 33.256 26.856 23.836 21.446 19.226 16.936 14.416 12.206 10.396 8.646
896.975 6.926 5.386 4.266 3.516 2.936 2.586 2.396 2.086 1.906 1.796
916.265 1.566 1.486 1.516 1.406 1.336 1.286 1.336 1.486 1.596 1.686
935.555 1.956 2.226 2.276 2.376 2.656 2.916 3.136 3.296 3.286 3.296
954.844 3.346 3.146 2.926 2.916 2.816 2.716 2.706 2.796 2.956 2.956
974.134 2.816 2.666 2.726 2.826 2.746 2.626 2.556 2.666 2.886 2.876
993.424 2.876 3.066 3.046 3.076 3.056 2.786 2.606 2.566 2.476 2.256
1012.714 2.146 2.356 2.276 1.696 1.556 1.856 1.946 1.966 2.106 2.046
1032.003 1.956 2.216 2.586 2.776 2.946 3.226 3.406 3.536 3.736 3.806
1051.293 3.936 3.986 3.836 3.836 4.236 4.586 5.026 5.806 6.776 8.176
1070.583 10.186 13.586 18.476 24.456 30.426 34.966 37.826 39.006 38.456 36.706
1089.873 33.066 26.386 19.446 15.106 12.896 12.056 11.956 12.356 13.646 15.206
1109.163 16.346 17.056 17.226 17.526 17.826 17.806 16.996 15.726 14.796 14.236
1128.452 13.706 13.006 12.196 10.946 9.666 8.056 6.056 4.576 3.606 3.146
1147.742 2.806 2.516 2.476 2.416 2.866 4.016 5.616 7.946 11.126 14.456
1167.032 17.416 19.606 20.976 21.046 20.256 18.676 16.086 13.126 10.806 9.786
1186.322 9.616 10.366 10.786 11.196 12.386 13.626 14.796 15.576 16.126 17.206
1205.611 18.616 19.576 20.236 19.576 18.076 16.396 14.396 11.916 8.836 6.526
1224.901 4.866 3.766 3.426 2.936 2.696 2.696 2.676 2.706 2.676 2.646
1244.191 3.006 3.506 3.896 4.456 5.116 5.836 6.766 7.656 8.336 8.716
1263.481 9.096 9.896 10.466 10.646 10.376 10.006 9.636 8.826 7.806 6.916
1282.771 5.866 4.766 4.056 3.366 2.736 2.426 2.266 2.136 1.986 1.886
1302.060 1.806 1.816 1.866 1.926 1.996 1.956 1.956 1.966 1.956 2.006
1321.350 2.136 2.206 2.206 2.256 2.316 2.376 2.456 2.526 2.686 2.986
1340.640 3.286 3.616 4.046 4.486 4.836 5.196 5.516 5.816 6.086 6.226
1359.930 6.276 6.296 6.276 6.326 6.476 6.626 6.906 7.246 7.776 8.626
1379.219 9.566 10.656 12.016 13.636 15.426 17.056 18.286 19.056 19.526 19.686
1398.509 19.676 19.406 18.516 17.086 15.416 13.876 12.596 11.536 10.696 10.066
1417.799 9.676 9.516 9.566 9.906 10.546 11.356 12.446 13.746 15.016 16.066
1437.089 16.776 17.266 17.676 17.876 17.716 17.376 17.206 17.356 17.656 18.036
1456.378 18.646 19.616 20.956 22.986 26.206 31.006 37.566 46.286 57.056 69.106
1475.668 79.716 86.516 87.866 85.266 80.206 71.996 59.536 45.216 33.046 25.216
1494.958 20.676 17.906 16.336 15.476 15.096 15.106 15.386 15.816 16.346 16.816
1514.248 17.116 17.196 17.146 16.966 16.656 16.306 15.926 15.656 15.446 15.356
1533.538 15.296 15.286 15.346 15.556 15.876 16.386 17.176 18.026 18.986 20.036
1552.827 20.906 21.636 22.146 22.376 22.386 22.226 22.016 21.906 22.036 22.816
1572.117 24.726 27.926 32.816 39.446 48.026 58.906 70.906 82.726 92.326 98.226
1591.407 99.206 95.136 86.716 74.756 60.556 45.726 32.376 22.316 15.756 11.696
1610.697 9.256 7.646 6.576 5.886 5.376 5.056 4.896 4.896 4.946 5.076
1629.986 5.206 5.316 5.426 5.366 5.216 5.106 4.966 4.726 4.256 3.656
1649.276 3.216 2.916 2.576 2.346 2.216 2.066 2.036 1.996 1.946 1.886
1668.566 1.816 1.766 1.716 1.706 1.746 1.706 1.676 1.706 1.656 1.626
1687.856 1.656 1.576 1.476 1.446 1.326 1.1327 1.042 1.0354 0.9645 0.8853
1707.146 0.933 0.9934 1.0601 1.1006 1.186 1.326 1.406 1.476 1.566 1.716
1726.435 1.796 1.966 2.276 2.446 2.646 2.956 3.266 3.526 3.696 3.686
1745.725 3.616 3.706 3.736 3.596 3.536 3.556 3.516 3.576 3.586 3.506
1765.015 3.346 3.026 2.696 2.376 1.936 1.476 1.1455 0.9255 0.8149 0.7635
1784.305 0.7321 0.7796 0.7798 0.782 0.7842 0.7877 0.8192 0.8162 0.7518 0.6601
1803.594 0.6284 0.6228 0.6555 0.6653 0.6755 0.6892 0.6934 0.7204 0.7823 0.8123
1822.884 0.7962 0.7937 0.7448 0.7739 0.8039 0.7271 0.6295 0.5239 0.5101 0.5383
1842.174 0.5632 0.5552 0.5195 0.5055 0.5377 0.6002 0.6344 0.6748 0.679 0.7436
1861.464 0.829 0.8452 0.9021 1.0428 1.141 1.216 1.346 1.496 1.656 1.836
1880.754 2.086 2.396 2.666 2.926 3.266 3.586 3.816 3.956 4.056 4.026
1900.043 3.826 3.626 3.506 3.256 2.856 2.516 2.196 1.856 1.596 1.406
1919.333 1.286 1.196 1.0984 1.043 0.9889 0.9227 0.8199 0.7119 0.655 0.6661
1938.623 0.675 0.6179 0.5121 0.494 0.4567 0.3829 0.4432 0.4614 0.4193 0.3854
1957.913 0.3689 0.3762 0.3871 0.4393 0.4866 0.4593 0.4445 0.4665 0.4262 0.3954
1977.202 0.4122 0.4193 0.445 0.4491 0.459 0.5099 0.5022 0.4626 0.4292 0.3868
1996.492 0.3925 0.4346 0.4663 0.458 0.3849 0.3461 0.3171 0.2916 0.2925 0.24556
2015.782 0.24961 0.2425 0.1875 0.18947 0.2104 0.18877 0.18735 0.22486 0.19517 0.179448
2035.072 0.23136 0.25601 0.243 0.2169 0.23292 0.25778 0.23109 0.24237 0.24315 0.24308
2054.362 0.2924 0.3253 0.3013 0.2781 0.3885 0.3878 0.3643 0.388 0.3548 0.4347
2073.651 0.4736 0.4465 0.4349 0.4522 0.4637 0.4187 0.3686 0.369 0.3799 0.3643
2092.941 0.3489 0.3528 0.3581 0.3612 0.359 0.3456 0.3533 0.3661 0.351 0.3388
2112.231 0.3386 0.3672 0.4009 0.3903 0.3834 0.3485 0.3758 0.4096 0.3777 0.3331
2131.521 0.318 0.2777 0.24191 0.2863 0.3188 0.3174 0.305 0.24423 0.2417 0.3345
2150.810 0.2844 0.24468 0.3114 0.3412 0.2993 0.3015 0.3664 0.3466 0.3458 0.3938
2170.100 0.4855 0.5629 0.5851 0.6262 0.6141 0.6162 0.6888 0.7414 0.6566 0.5813
2189.390 0.677 0.7511 0.8982 1.0341 1.1368 1.306 1.496 1.686 1.826 2.106
2208.680 2.566 3.156 3.966 5.236 7.036 9.526 12.696 16.346 20.096 23.296
2227.970 25.416 26.186 25.586 23.656 20.426 16.246 11.806 7.896 5.126 3.616
2247.259 2.826 2.396 2.106 1.856 1.726 1.616 1.566 1.496 1.426 1.386
2266.549 1.316 1.206 1.1532 1.156 1.1539 1.1704 1.206 1.236 1.256 1.266
2285.839 1.306 1.276 1.206 1.1735 1.1571 1.1287 1.0816 1.0843 1.126 1.1501
2305.129 1.1435 1.1209 1.128 1.1415 1.1432 1.1425 1.1716 1.196 1.1591 1.206
2324.418 1.236 1.176 1.1393 1.1491 1.1661 1.0722 1.0366 1.1262 1.1142 1.1195
2343.708 1.172 1.1328 1.0563 1.0687 1.1523 1.134 1.0493 1.0722 1.0873 1.0959
2362.998 1.033 0.9942 0.9969 0.9547 0.8735 0.9101 1.0993 1.0913 1.036 1.0348
2382.288 0.9863 1.0137 1.0534 1.0386 0.9984 0.9609 0.9047 0.8148 0.7431 0.7664
2401.578 0.8116 0.8075 0.8127 0.7955 0.7261 0.6968 0.7243 0.7257 0.7364 0.7436
2420.867 0.6987 0.7087 0.6845 0.6478 0.654 0.647 0.7348 0.7255 0.6789 0.6589
2440.157 0.6825 0.7545 0.8071 0.8176 0.81 0.7552 0.6969 0.7066 0.776 0.8211
2459.447 0.7917 0.8024 0.8034 0.7847 0.8545 0.9549 0.9806 1.0071 1.0268 1.0205
2478.737 1.0742 1.046 1.0047 1.0588 0.9613 0.8319 0.7926 0.8572 0.8822 0.7604
2498.026 0.7828 0.8977 0.9629 1.0022 0.9708 1.0226 0.9659 0.897 0.9478 0.9703
2517.316 1.0215 1.0699 1.1392 1.206 1.296 1.306 1.276 1.426 1.556 1.606
2536.606 1.626 1.566 1.446 1.296 1.216 1.176 1.117 1.0796 1.0067 0.9411
2555.896 0.9273 0.8302 0.8114 0.7437 0.7047 0.7886 0.8365 0.7822 0.7041 0.7153
2575.186 0.6896 0.6836 0.7443 0.7826 0.7264 0.6591 0.5843 0.6025 0.6728 0.6607
2594.475 0.7237 0.737 0.7092 0.7171 0.6858 0.6202 0.6556 0.6642 0.5875 0.6006
2613.765 0.4999 0.412 0.3851 0.429 0.4784 0.464 0.4631 0.4605 0.4994 0.5837
2633.055 0.6517 0.6158 0.6519 0.7009 0.7447 0.8626 0.9012 0.8195 0.8466 0.9329
2652.345 0.8942 0.8618 0.8028 0.7574 0.7429 0.7257 0.7659 0.7607 0.7113 0.7201
2671.634 0.7504 0.7181 0.6966 0.6988 0.7899 0.8634 0.8167 0.8191 0.7765 0.7736
2690.924 0.7725 0.7471 0.7932 0.9132 0.982 0.9758 1.0333 1.1182 1.1192 1.0756
2710.214 1.0569 1.0871 1.0612 1.0217 1.0683 1.0658 0.8894 0.883 0.9423 0.8743
2729.504 0.9047 0.9365 0.9768 0.9685 1.0163 1.1183 1.226 1.216 1.1397 1.1711
2748.794 1.256 1.286 1.366 1.466 1.366 1.346 1.436 1.366 1.246 1.176
2768.083 1.1421 1.0781 1.0439 1.0433 0.9359 0.8385 0.8555 0.9363 0.9255 0.872
2787.373 0.927 1.025 1.0204 0.9973 1.048 1.1269 1.0893 1.0363 0.9896 1.0558
2806.663 1.1026 1.0188 1.0273 0.9901 1.091 1.226 1.1732 1.226 1.336 1.416
2825.953 1.356 1.276 1.416 1.466 1.446 1.596 1.706 1.736 1.826 1.916
2845.242 1.916 2.066 2.276 2.386 2.576 2.796 2.936 3.106 3.316 3.596
2864.532 3.896 4.166 4.466 4.706 4.886 5.006 5.116 5.136 5.126 5.036
2883.822 4.916 4.956 4.876 4.706 4.586 4.596 4.656 4.686 4.676 4.726
2903.112 4.756 4.756 4.886 5.126 5.456 5.796 6.156 6.576 7.196 7.896
2922.401 8.476 9.146 9.986 10.876 11.796 12.626 13.276 13.706 13.886 13.776
2941.691 13.606 13.226 12.436 11.456 10.476 9.686 9.046 8.496 8.026 7.616
2960.981 7.356 7.186 6.986 6.996 7.036 6.896 6.786 6.676 6.756 6.896
2980.271 6.886 6.896 6.796 6.786 6.866 6.926 6.986 6.986 6.936 6.846
2999.561 6.826 6.786 6.576 6.336 6.166 5.936 5.736 5.536 5.486 5.546
3018.850 5.486 5.416 5.356 5.386 5.546 5.746 5.856 5.926 5.966 6.026
3038.140 6.036 5.896 5.806 5.656 5.346 5.096 4.856 4.556 4.386 4.236
3057.430 3.886 3.706 3.616 3.406 3.306 3.306 3.316 3.316 3.496 3.646
3076.720 3.696 3.876 4.106 4.316 4.616 4.826 4.966 5.036 4.946 4.856
3096.009 4.506 4.186 3.916 3.596 3.246 2.806 2.446 2.156 1.906 1.686
3115.299 1.536 1.356 1.206 1.1555 0.9874 1.0232 1.0559 0.9582 0.9764 0.8726
3134.589 0.7392 0.7305 0.7915 0.6793 0.6221 0.5865 0.5946 0.6142 0.5846 0.6617
3153.879 0.7508 0.7191 0.539 0.3909 0.4259 0.5021 0.5168 0.4452 0.4831 0.441
3173.169 0.25846 0.3568 0.4602 0.5026 0.4483 0.3357 0.3263 0.3386 0.2857 0.2358
3192.458 0.2831 0.3603 0.24633 0.1031 0.18935 0.2661 0.3486 0.4377 0.26601 0.183932
3211.748 0.24004 0.21163 0.18608 0.1223 0.18654 0.3252 0.4116 0.4376 0.26826 0.1224
3231.038 0.0857 0.1022 0.19737 0.26389 0.23874 0.3113 0.3991 0.2794 0.22194 0.16927
3250.328 0.1216 0.1617 0.1302 0.113 0.1473 0.19831 0.1486 0.1477 0.17129 0.045
3269.617 0.066 0.23671 0.19033 0.0906 0.153 0.1465 0.19846 0.3195 0.19312 0.072
3288.907 0.1402 0.24897 0.2821 0.17186 0.16703 0.26535 0.3757 0.23029 0.20946 0.3537
3308.197 0.23748 0.24396 0.24389 0.3091 0.3803 0.2866 0.27171 0.25226 0.20355 0.26163
3327.487 0.3345 0.3284 0.2836 0.25859 0.18816 0.3224 0.4846 0.4074 0.4224 0.5872
3346.777 0.5328 0.3453 0.44 0.5657 0.5871 0.4185 0.3573 0.422 0.3982 0.3106
3366.066 0.22719 0.24772 0.2835 0.20946 0.1012 0.1007 0.0948 0.22282 0.2516 0.18885
3385.356 0.2997 0.3414 0.3806 0.4802 0.4733 0.5679 0.5405 0.4392 0.4879 0.506
3404.646 0.5036 0.5689 0.7028 0.6513 0.4955 0.4445 0.5225 0.5448 0.5943 0.6589
3423.936 0.5738 0.5198 0.739 0.793 0.7938 1.019 0.9913 0.8845 0.8435 0.8149
3443.225 0.7187 0.6419 0.6535 0.6267 0.5619 0.5315 0.453 0.3375 0.3735 0.4583
3462.515 0.3272 0.201 0.25225 0.311 0.19417 0.17057 0.17384 0.073 0.1651 0.20455
3481.805 0.1631 0.1217 0 0.023 0.16898 0.17692 0.179805 0.1104 0.022 0.1085
3501.095 0.2501 0.21922 0.177693 0.17108 0.064 0.0877 0.180421 0.1187 0.013 0.022
3520.385 0.18818 0.182152 0.051 0.057 0.0996 0.156 0.19335 0.19904 0.22051 0.23265
3539.674 0.23209 0.1479 0.23311 0.4171 0.27297 0.203 0.2784 0.26456 0.1526 0.1592
3558.964 0.1603 0.1481 0.1521 0.1019 0.1166 0.179971 0.1081 0.065 0.1557 0.0768
3578.254 0.1103 0.22834 0.1622 0.0783 0.043 0.1226 0.23905 0.23566 0.17747 0.1169
3597.544 0.1056 0.034 0.0849 0.1567 0.27482 0.3214 0.1428 0.21294 0.24721 0.1578
3616.833 0.16724 0.1087 0.20176 0.3991 0.4162 0.3799 0.3925 0.27288 0.1985 0.3184
3636.123 0.26577 0.179013 0.23782 0.3477 0.372 0.22587 0.22779 0.22422 0.1303 0.26177
3655.413 0.3752 0.4008 0.4971 0.3781 0.23415 0.17196 0.1218 0.16961 0.27096 0.4714
3674.703 0.4143 0.3573 0.3888 0.2797 0.25643 0.27394 0.3273 0.3895 0.409 0.3798
3693.993 0.2839 0.23518 0.2833 0.329 0.3776 0.3814 0.3753 0.3646 0.4249 0.6206
3713.282 0.6381 0.3902 0.335 0.3603 0.23197 0.180982 0.3027 0.341 0.19477 0.181915
3732.572 0.1343 0.19138 0.24872 0.19503 0.27563 0.4541 0.4356 0.3529 0.3412 0.23274
3751.862 0.23134 0.3123 0.3998 0.3768 0.2778 0.3103 0.3865 0.3718 0.3293 0.4047
3771.152 0.4448 0.3995 0.3457 0.27304 0.3596 0.3985 0.2858 0.4426 0.5624 0.4343
3790.441 0.4466 0.3484 0.3492 0.5485 0.4581 0.27511 0.3067 0.5697 0.5563 0.391
3809.731 0.5598 0.7284 0.6472 0.5185 0.6025 0.6908 0.6953 0.6193 0.5389 0.5059
3829.021 0.5565 0.5641 0.4277 0.4325 0.3939 0.19004 0.18791 0.21981 0.27524 0.3188
3848.311 0.25985 0.2533 0.20696 0.21452 0.3493 0.3228 0.22289 0.23638 0.22939 0.17023
3867.601 0.1345 0.178135 0.2477 0.2898 0.3956 0.3817 0.087 0.14 0.4851 0.5521
3886.890 0.479 0.5027 0.37 0.19353 0.27501 0.4102 0.3425 0.3092 0.4056 0.4303
3906.180 0.4359 0.4469 0.512 0.4291 0.4623 0.5742 0.6822 0.7399 0.6214 0.6047
3925.470 0.6934 0.7326 0.7556 0.7569 0.6578 0.8055 0.9998 0.8838 0.7764 0.9857
3944.760 1.0969 0.8591 0.6377 0.6191 0.6965 0.6504 0.6875 0.6968 0.6237 0.6163
3964.049 0.5087 0.5132 0.5299 0.5279 0.4913 0.4228 0.4729 0.5218 0.446 0.4963
3983.339 0.5593 0.5204 0.5775 0.5863 0.4953 0.4259 0.4084 0.2987 0.3399 0.5192
##END=
