##TITLE=6-Methyl-2-heptanol
##JCAMP-DX=4.24
##DATA TYPE=INFRARED SPECTRUM
##ORIGIN=EPA-IR VAPOR PHASE LIBRARY
##OWNER=SRD/NIST
Collection (C) 2018 copyright by the U.S. Secretary of Commerce
on behalf of the United States of America. All rights reserved.
##CAS REGISTRY NO=67952-57-2
##MOLFORM=C8 H18 O
##$NIST SOURCE=MSDC-IR
##STATE=gas
##XUNITS=1/CM
##YUNITS=ABSORBANCE
##XFACTOR=1.
##YFACTOR=0.001
##DELTAX=1.92898
##FIRSTX=549.8
##LASTX=4000.7
##FIRSTY=0.7471
##MAXX=4000.7
##MINX=549.759
##MAXY=0.0684338
##MINY=0
##NPOINTS=1790
##XYDATA=(X++(Y..Y))
549.759 0.7471 0.8611 0.9616 0.8923 0.6698 0.5127 0.418 0.6043 0.573 0.5677
569.049 0.7005 0.7868 0.8253 0.6906 0.6375 0.561 0.5327 0.7363 0.7089 0.5282
588.339 0.5215 0.581 0.6561 0.6247 0.529 0.5139 0.5459 0.576 0.7291 0.6163
607.628 0.4701 0.5913 0.5774 0.4503 0.4189 0.4923 0.4354 0.4034 0.4946 0.4806
626.918 0.3846 0.4918 0.5815 0.5239 0.4906 0.4375 0.3459 0.3616 0.4411 0.5282
646.208 0.445 0.3711 0.44 0.3571 0.1946 0.11243 0.16021 0.34 0.3625 0.2427
665.498 0.2829 0.3495 0.2865 0.2037 0.3041 0.3103 0.3886 0.4353 0.3213 0.2307
684.787 0.2305 0.3242 0.3379 0.369 0.4313 0.5128 0.4897 0.4004 0.3852 0.3854
704.077 0.4823 0.5212 0.4995 0.5498 0.5123 0.595 0.6575 0.4738 0.4612 0.6568
723.367 0.7606 0.885 0.9231 0.8216 0.8211 0.8862 0.8674 0.7578 0.8549 0.9319
742.657 0.6745 0.6453 0.6801 0.543 0.5714 0.5659 0.5794 0.5388 0.5683 0.6488
761.947 0.646 0.6017 0.5109 0.5063 0.5481 0.572 0.5735 0.6388 0.7048 0.7688
781.236 0.7183 0.5491 0.6626 0.9003 0.9812 0.8572 0.7326 0.8898 0.9584 0.9758
800.526 1.081 1.0938 1.0785 1.1138 1.1438 1.2338 1.3238 1.2938 1.3138 1.3438
819.816 1.3938 1.5138 1.3838 1.3338 1.4838 1.4538 1.4738 1.5238 1.4538 1.4638
839.106 1.5438 1.6538 1.8438 2.0238 2.0238 2.0038 2.0838 2.1438 2.2838 2.3738
858.395 2.3138 2.2538 2.1338 2.0938 2.0138 1.7238 1.6338 1.5838 1.4738 1.5138
877.685 1.5038 1.4538 1.4038 1.4438 1.4138 1.5238 1.6738 1.7038 1.8038 1.9838
896.975 2.2038 2.3338 2.5438 2.8838 3.0938 3.2138 3.4538 3.6438 3.7838 3.8138
916.265 3.8638 4.0738 4.1538 4.1538 4.2938 4.4238 4.4738 4.5438 4.6338 4.6338
935.555 4.6438 4.7038 4.7238 4.6738 4.7538 4.8138 4.8038 4.8438 4.8838 4.8438
954.844 4.8038 4.9838 5.0538 5.0338 5.1438 5.1838 5.1138 5.1638 5.2638 5.4038
974.134 5.4438 5.2938 5.0938 4.9338 4.8238 4.5938 4.4138 4.1938 4.0538 4.0438
993.424 3.8938 3.7238 3.6238 3.5038 3.4538 3.5438 3.5838 3.5638 3.5638 3.5938
1012.714 3.8038 4.0238 4.0338 4.2338 4.3538 4.5238 4.7638 4.9338 5.1538 5.3038
1032.003 5.5338 5.6238 5.8038 6.1738 6.4338 6.5938 6.7738 7.0138 7.2038 7.3038
1051.293 7.2138 7.2138 7.6138 7.7838 7.7838 7.7738 7.7138 7.7938 7.8038 7.9238
1070.583 7.9138 7.9438 8.1938 8.1638 8.0738 8.1438 8.1538 8.4438 8.7638 8.6638
1089.873 8.9938 9.2738 9.1738 9.1638 9.1638 9.0938 9.1238 8.9438 8.6138 8.4838
1109.163 8.2238 7.8838 7.8238 7.8338 7.8038 7.8038 7.8938 8.0138 8.0438 8.2138
1128.452 8.4838 8.7838 8.9338 9.1238 9.1938 9.1838 9.2638 9.1238 8.8438 8.4338
1147.742 8.0538 7.8338 7.6438 7.4338 7.0038 6.5238 6.2438 6.1338 5.9138 5.7138
1167.032 5.4138 4.9538 4.7938 4.6238 4.4638 4.3438 4.0638 3.9938 3.9738 3.9538
1186.322 4.0338 3.9638 3.7338 3.7538 4.0038 4.1238 4.2538 4.4138 4.5238 4.6538
1205.611 4.6438 4.6638 4.7438 4.7438 4.6238 4.7638 5.0738 5.1738 5.2138 5.3838
1224.901 5.5338 5.7238 5.9738 6.0138 6.0638 6.3238 6.5838 6.6838 6.7438 6.8238
1244.191 6.9038 6.8138 6.6938 6.6838 6.5038 6.1538 6.0138 5.8638 5.4638 5.0638
1263.481 4.9238 4.8538 4.6338 4.4138 4.2938 4.2038 4.1738 4.1838 4.0138 3.7838
1282.771 3.7338 3.7038 3.6238 3.6238 3.6038 3.5838 3.5538 3.4938 3.4638 3.4238
1302.060 3.4738 3.5038 3.5338 3.5338 3.5638 3.6038 3.5838 3.6738 3.7438 3.8338
1321.350 3.9638 4.0638 4.2538 4.4238 4.5638 4.7538 4.9338 5.1238 5.2938 5.4138
1340.640 5.5438 5.6838 5.8238 5.9638 6.1638 6.4338 6.7338 7.0738 7.4738 7.9638
1359.930 8.4338 8.9538 9.5938 10.2438 10.8938 11.5038 12.0838 12.6338 13.1438 13.5838
1379.219 13.8938 14.1538 14.2438 14.0038 13.5238 12.8738 12.1138 11.3138 10.4138 9.3838
1398.509 8.3938 7.4638 6.6838 6.0538 5.4938 5.0338 4.6738 4.3438 4.0238 3.8238
1417.799 3.7138 3.5638 3.4538 3.4338 3.4438 3.5338 3.6538 3.6938 3.8538 4.0538
1437.089 4.2538 4.5338 4.8638 5.2038 5.5938 5.9838 6.3238 6.7738 7.2338 7.6438
1456.378 8.0338 8.4138 8.7138 8.8838 8.9738 8.9538 8.8138 8.5538 8.1938 7.6938
1475.668 7.0938 6.4538 5.7838 5.1638 4.5938 4.0538 3.5638 3.1238 2.7238 2.4038
1494.958 2.1838 1.9538 1.7538 1.5638 1.4438 1.3538 1.2538 1.2138 1.1538 1.0556
1514.248 1.0263 0.9563 0.8749 0.8509 0.808 0.7894 0.7793 0.7003 0.6575 0.6139
1533.538 0.5619 0.5886 0.5831 0.501 0.4709 0.4932 0.5071 0.514 0.482 0.4834
1552.827 0.4807 0.4392 0.3917 0.3909 0.4279 0.4797 0.4512 0.3704 0.4009 0.4228
1572.117 0.3989 0.4032 0.4179 0.3822 0.3849 0.4184 0.3944 0.3836 0.4141 0.399
1591.407 0.3627 0.3308 0.3226 0.321 0.3548 0.4344 0.3945 0.3395 0.3407 0.3134
1610.697 0.3072 0.3168 0.3208 0.3034 0.3388 0.392 0.3557 0.3033 0.3045 0.3209
1629.986 0.3583 0.4148 0.4147 0.3689 0.3027 0.2891 0.3403 0.3586 0.3759 0.3448
1649.276 0.3308 0.3321 0.3055 0.3242 0.3277 0.3097 0.3174 0.3395 0.3291 0.3475
1668.566 0.3305 0.3297 0.3286 0.3235 0.3519 0.3294 0.3061 0.2851 0.2544 0.2958
1687.856 0.3292 0.2873 0.2531 0.2453 0.2484 0.2521 0.2931 0.3079 0.2907 0.3071
1707.146 0.3202 0.2811 0.2315 0.2253 0.2178 0.1989 0.2186 0.2705 0.2402 0.205
1726.435 0.2147 0.2017 0.2074 0.2371 0.2098 0.2001 0.2511 0.2414 0.19368 0.16642
1745.725 0.16628 0.18105 0.2103 0.2358 0.213 0.18728 0.16588 0.13169 0.14219 0.2081
1765.015 0.2241 0.2042 0.1952 0.2182 0.2628 0.2403 0.2121 0.2022 0.1962 0.1975
1784.305 0.16471 0.16395 0.2332 0.2901 0.2392 0.17474 0.174 0.17438 0.2001 0.2131
1803.594 0.2397 0.253 0.2246 0.227 0.2307 0.2019 0.18639 0.19043 0.1898 0.18454
1822.884 0.18311 0.187 0.18979 0.16835 0.15848 0.19175 0.2109 0.2211 0.19311 0.16119
1842.174 0.19273 0.1945 0.16811 0.1508 0.1973 0.2426 0.2084 0.203 0.2036 0.1964
1861.464 0.1951 0.18223 0.2005 0.2205 0.2052 0.2058 0.2478 0.2421 0.2 0.2095
1880.754 0.2114 0.2114 0.2216 0.2156 0.2154 0.2082 0.1649 0.16277 0.19212 0.16412
1900.043 0.16367 0.2078 0.19193 0.14404 0.14879 0.16593 0.18111 0.19116 0.19254 0.16602
1919.333 0.15736 0.15715 0.14036 0.14436 0.14303 0.134 0.15145 0.18427 0.15844 0.08559
1938.623 0.10806 0.14877 0.11757 0.13246 0.16957 0.18937 0.18915 0.16747 0.127 0.11556
1957.913 0.14741 0.15694 0.12542 0.16587 0.1967 0.15197 0.15216 0.18112 0.1954 0.16729
1977.202 0.15209 0.15627 0.13324 0.14829 0.16389 0.1962 0.1978 0.1712 0.2014 0.18613
1996.492 0.12708 0.13108 0.1922 0.18355 0.14143 0.13332 0.11014 0.10652 0.12499 0.13244
2015.782 0.13685 0.10651 0.13268 0.18845 0.17613 0.1511 0.15957 0.16279 0.16086 0.2045
2035.072 0.218 0.2079 0.17275 0.16314 0.17921 0.15408 0.14073 0.14599 0.15206 0.14594
2054.362 0.14127 0.13223 0.11848 0.11886 0.16315 0.18419 0.2007 0.2083 0.19077 0.17159
2073.651 0.16276 0.1795 0.18828 0.198 0.2155 0.2193 0.198 0.18422 0.2193 0.2533
2092.941 0.2453 0.2167 0.18939 0.1751 0.16317 0.17625 0.16246 0.14089 0.17298 0.2299
2112.231 0.19194 0.14307 0.16064 0.18521 0.18402 0.17239 0.1948 0.196 0.16773 0.1533
2131.521 0.1662 0.17075 0.14625 0.14765 0.1972 0.1985 0.2092 0.266 0.2441 0.2022
2150.810 0.19037 0.17771 0.1826 0.2131 0.2331 0.2444 0.283 0.2935 0.266 0.2838
2170.100 0.2712 0.1949 0.2243 0.2377 0.2272 0.237 0.2145 0.2047 0.18994 0.2017
2189.390 0.215 0.2114 0.18665 0.2159 0.243 0.2192 0.2125 0.17578 0.14378 0.15412
2208.680 0.2 0.2174 0.2376 0.2417 0.2146 0.2252 0.2047 0.17152 0.199 0.2118
2227.970 0.2217 0.2159 0.16527 0.15383 0.1687 0.2155 0.2317 0.232 0.2341 0.2046
2247.259 0.19378 0.2093 0.17185 0.13445 0.17691 0.17804 0.14179 0.16828 0.16589 0.13441
2266.549 0.2075 0.2491 0.2682 0.2716 0.256 0.234 0.1967 0.2139 0.2503 0.2695
2285.839 0.2767 0.2921 0.2353 0.2601 0.3392 0.2874 0.2781 0.285 0.2227 0.2201
2305.129 0.2739 0.2901 0.2775 0.3158 0.3453 0.3017 0.2622 0.2818 0.2958 0.3019
2324.418 0.2771 0.2198 0.1942 0.2408 0.3181 0.3126 0.2454 0.2333 0.2593 0.219
2343.708 0.2159 0.2666 0.2464 0.2138 0.2453 0.2747 0.2749 0.3214 0.3253 0.3031
2362.998 0.3216 0.2878 0.2651 0.2468 0.257 0.2544 0.2836 0.318 0.2948 0.3056
2382.288 0.3079 0.2952 0.2655 0.262 0.2869 0.2617 0.2342 0.2731 0.2708 0.2577
2401.578 0.2715 0.2766 0.273 0.2775 0.3498 0.3545 0.2747 0.2784 0.3138 0.3123
2420.867 0.3093 0.3273 0.3231 0.2931 0.3219 0.3121 0.2944 0.35 0.3653 0.3476
2440.157 0.3624 0.3203 0.2695 0.296 0.3364 0.2917 0.2698 0.3496 0.3821 0.3392
2459.447 0.3056 0.278 0.234 0.2587 0.3044 0.3302 0.3184 0.3455 0.3521 0.368
2478.737 0.3637 0.2935 0.2573 0.2847 0.3136 0.3253 0.3876 0.3638 0.3532 0.3531
2498.026 0.3206 0.3347 0.3237 0.339 0.3948 0.3627 0.3184 0.3352 0.3411 0.3603
2517.316 0.3696 0.358 0.3421 0.3513 0.3532 0.3569 0.3735 0.3553 0.3667 0.3522
2536.606 0.3368 0.3697 0.3904 0.4121 0.3712 0.359 0.4309 0.39 0.3353 0.391
2555.896 0.4048 0.4111 0.5076 0.5028 0.4972 0.562 0.5139 0.4977 0.4912 0.4659
2575.186 0.5058 0.5138 0.5084 0.5262 0.5129 0.5782 0.7108 0.6577 0.6027 0.6199
2594.475 0.6201 0.7517 0.8252 0.8345 0.8221 0.8046 0.8715 0.8797 0.8191 0.8495
2613.765 0.8729 0.7862 0.8129 0.9224 0.9616 0.942 0.9309 0.9724 0.9766 1.0471
2633.055 1.066 1.028 1.0243 0.9336 0.9616 1.0164 1.0177 1.0302 1.1238 1.0764
2652.345 1.0086 1.0876 1.0475 1.0037 1.0449 1.1238 1.1038 1.0905 1.0938 1.0671
2671.634 1.0568 1.0766 1.064 1.0586 1.0938 1.0648 1.0216 1.0278 1.0615 1.0809
2690.924 1.0938 1.1138 1.1138 1.0794 1.067 1.0788 1.0809 1.1238 1.2138 1.2438
2710.214 1.2538 1.2638 1.1938 1.2138 1.3338 1.4238 1.5238 1.4938 1.4738 1.5738
2729.504 1.6038 1.6138 1.5838 1.5938 1.6238 1.6138 1.5938 1.5438 1.5538 1.5538
2748.794 1.5038 1.6038 1.6538 1.6338 1.6638 1.6638 1.6238 1.6638 1.7538 1.7838
2768.083 1.7938 1.8338 1.8238 1.7538 1.7638 1.8438 1.9038 1.9338 1.9538 1.9938
2787.373 2.0538 2.1738 2.2738 2.3438 2.4638 2.5538 2.6538 2.7338 2.8038 2.9038
2806.663 2.9138 3.0238 3.2638 3.3438 3.4738 3.6338 3.8238 4.1038 4.2738 4.5138
2825.953 4.8638 5.1938 5.5338 5.9138 6.4038 6.9638 7.6238 8.2938 9.1038 10.0838
2845.242 10.8938 11.8438 12.9438 14.0338 15.1338 16.1938 17.1638 18.1338 19.1638 20.2238
2864.532 21.3338 22.5738 23.9738 25.4438 26.8038 28.0138 29.1038 29.8738 30.5238 31.0038
2883.822 31.2038 31.3038 31.2138 30.9738 30.9138 31.0338 31.3238 31.8838 32.6938 33.7338
2903.112 34.9838 36.3638 37.7638 39.1338 40.5538 41.8238 43.0138 44.1738 45.3038 46.5138
2922.401 47.7938 49.1938 50.5538 51.9538 53.3138 54.4238 55.2038 55.6338 55.6638 55.3338
2941.691 54.8138 54.1238 53.4438 53.0838 53.0838 53.6238 55.0638 57.4238 60.5338 63.7738
2960.981 66.5538 68.1838 68.4338 67.9238 66.4038 63.3538 59.0038 53.8138 48.0538 42.2438
2980.271 36.7838 31.7838 27.4338 23.6638 20.3038 17.2438 14.6538 12.4238 10.4438 8.9638
2999.561 7.8138 6.8538 6.0438 5.4038 4.8338 4.4338 4.1538 3.8038 3.4338 3.2038
3018.850 3.0038 2.8338 2.7438 2.5038 2.3138 2.2938 2.1938 2.0938 2.0938 1.9838
3038.140 1.8438 1.8038 1.7738 1.7338 1.7538 1.6738 1.6238 1.6038 1.5538 1.5938
3057.430 1.5538 1.5138 1.5638 1.5238 1.4638 1.5338 1.4938 1.4338 1.4638 1.4938
3076.720 1.4738 1.4038 1.4438 1.4438 1.4138 1.3538 1.3138 1.3638 1.3738 1.3138
3096.009 1.2938 1.2738 1.2638 1.1938 1.1838 1.2038 1.1338 1.0434 0.9533 0.983
3115.299 1.0286 0.9937 0.9872 1.0315 0.969 0.8742 0.8544 0.935 0.9503 0.9615
3134.589 1.0472 0.9264 0.8329 0.8472 0.8975 0.9479 0.9473 0.9543 0.8476 0.7993
3153.879 0.7892 0.9025 1.0221 1.0271 1.0273 0.9248 0.8642 0.912 0.9276 0.9138
3173.169 0.9393 1.019 1.0078 0.9904 0.9788 0.8966 0.935 0.9289 0.8913 0.8986
3192.458 0.8575 0.8322 0.9026 0.9493 0.9388 0.8539 0.7423 0.6917 0.687 0.6473
3211.748 0.5285 0.5914 0.6647 0.5856 0.6038 0.6038 0.6024 0.5295 0.3622 0.3021
3231.038 0.4228 0.5559 0.5007 0.3922 0.3107 0.2909 0.2627 0.2291 0.2971 0.3304
3250.328 0.2868 0.2399 0.2074 0.2373 0.3403 0.3231 0.14132 0.12088 0.23 0.2081
3269.617 0.16838 0.2483 0.098065 0.0074 0.2008 0.2778 0.265 0.2847 0.2703 0.2669
3288.907 0.3907 0.452 0.3837 0.3295 0.3383 0.3475 0.3532 0.2984 0.19001 0.2586
3308.197 0.2436 0.15996 0.18938 0.2457 0.2617 0.2572 0.3045 0.3499 0.4022 0.3532
3327.487 0.2575 0.2905 0.3909 0.4697 0.3864 0.2488 0.2572 0.2419 0.2105 0.2354
3346.777 0.3177 0.3302 0.2766 0.3514 0.4331 0.4071 0.3743 0.3515 0.3365 0.3086
3366.066 0.3241 0.2472 0.274 0.2658 0.2043 0.3406 0.363 0.2258 0.0583 0.10763
3385.356 0.2682 0.2988 0.2758 0.2129 0.2078 0.3223 0.3423 0.2933 0.2893 0.3476
3404.646 0.3275 0.2893 0.3653 0.3384 0.313 0.3424 0.3388 0.3372 0.3217 0.3318
3423.936 0.4062 0.3261 0.215 0.3274 0.3877 0.2867 0.2878 0.2917 0.2407 0.3359
3443.225 0.4065 0.4246 0.3285 0.1966 0.2576 0.2929 0.3695 0.4757 0.5016 0.3899
3462.515 0.3724 0.4485 0.4427 0.3468 0.2384 0.3841 0.5553 0.4721 0.312 0.1963
3481.805 0.16887 0.2347 0.2553 0.3356 0.3235 0.2714 0.3353 0.3282 0.2269 0.15466
3501.095 0.2099 0.3516 0.3081 0.241 0.17267 0.0752 0.18878 0.276 0.19167 0.13085
3520.385 0.15945 0.14694 0.18752 0.2185 0.2275 0.3356 0.2734 0.2267 0.1843 0.11593
3539.674 0.2152 0.14306 0.0228 0 0.046 0.0474 0.10882 0.15274 0.0939577 0.15877
3558.964 0.254 0.3389 0.2693 0.2575 0.232 0.10458 0.11778 0.2544 0.4361 0.4206
3578.254 0.336 0.3225 0.296 0.2936 0.2462 0.2932 0.2684 0.2151 0.3039 0.2295
3597.544 0.2025 0.32 0.4087 0.4288 0.4137 0.3844 0.4556 0.5528 0.4754 0.5274
3616.833 0.7538 0.8176 0.7201 0.8895 1.0725 1.2238 1.3438 1.4638 1.6838 1.7738
3636.123 1.9038 2.2638 2.7138 2.9038 2.9538 3.2538 3.5938 3.7338 3.9538 4.1538
3655.413 4.0538 3.8538 3.7238 3.5638 3.3038 3.0638 2.6638 2.1538 1.9838 1.8038
3674.703 1.5138 1.2938 1.1438 0.8881 0.7575 0.7121 0.696 0.7354 0.6179 0.484
3693.993 0.4551 0.5568 0.6301 0.5174 0.3649 0.3772 0.4588 0.4302 0.4709 0.4834
3713.282 0.5172 0.4417 0.3489 0.3242 0.2365 0.3283 0.4274 0.3254 0.2848 0.3047
3732.572 0.1944 0.2705 0.2187 0.2265 0.4225 0.4025 0.3142 0.2173 0.2117 0.2589
3751.862 0.2593 0.2179 0.226 0.1608 0.0332 0.093478 0.17406 0.2503 0.3382 0.3537
3771.152 0.3071 0.3433 0.3305 0.13096 0.0496 0.14941 0.2098 0.1967 0.2301 0.3437
3790.441 0.4176 0.3878 0.3328 0.3351 0.3892 0.345 0.3392 0.4927 0.5184 0.3501
3809.731 0.2879 0.2852 0.309 0.4276 0.4894 0.499 0.4664 0.4432 0.4666 0.4777
3829.021 0.5145 0.4555 0.4021 0.5151 0.4955 0.3946 0.4508 0.4091 0.4496 0.5371
3848.311 0.435 0.4393 0.4703 0.4924 0.4298 0.2808 0.2113 0.099766 0.11179 0.3419
3867.601 0.4433 0.4844 0.5957 0.417 0.2427 0.3857 0.3208 0.17869 0.349 0.4282
3886.890 0.2918 0.09232 0.12132 0.3115 0.3417 0.3843 0.3868 0.3524 0.4489 0.2745
3906.180 0.09207 0.2491 0.2207 0.14126 0.17737 0.2639 0.3189 0.3868 0.3977 0.3409
3925.470 0.2933 0.2122 0.2026 0.2451 0.2828 0.3499 0.4572 0.4182 0.2929 0.2765
3944.760 0.4296 0.4522 0.2447 0.14731 0.2502 0.2503 0.17716 0.2091 0.1969 0.2414
3964.049 0.3238 0.4267 0.4288 0.3507 0.2836 0.2309 0.2287 0.2271 0.3428 0.3691
3983.339 0.2075 0.0939166 0.14486 0.13442 0.1432 0.0664 0.0779 0.2153 0.2188 0.2745
##END=
