##TITLE=5-Methyl-5-hexen-3-yn-2-ol
##JCAMP-DX=4.24
##DATA TYPE=INFRARED SPECTRUM
##ORIGIN=NIST Mass Spectrometry Data Center
##OWNER=NIST Standard Reference Data Program
Collection (C) 2018 copyright by the U.S. Secretary of Commerce
on behalf of the United States of America. All rights reserved.
##CAS REGISTRY NO=68017-33-4
##MOLFORM=C 7 H 10 O
##$NIST SOURCE=MSDC-IR
##SPECTROMETER/DATA SYSTEM=HP-GC/MS/IRD
##STATE=gas
##XUNITS=1/CM
##YUNITS=ABSORBANCE
##XFACTOR=1.0
##YFACTOR=0.000000800
##DELTAX=4.0
##FIRSTX=550.0
##LASTX=3846.0
##FIRSTY=0.001044
##MAXX=3846
##MINX=550
##MAXY=0.008
##MINY=0
##NPOINTS=825
##XYDATA=(X++(Y..Y))
550.0 1305 904 503 521 533 495 518 445 350 274
590.0 207 257 264 330 312 215 213 251 278 295
630.0 393 504 560 542 484 426 355 367 455 542
670.0 598 593 534 482 437 340 257 280 261 135
710.0 84 87 40 33 72 69 62 74 53 33
750.0 117 147 163 196 225 230 175 141 144 131
790.0 95 128 115 50 97 127 173 184 232 368
830.0 406 560 832 1068 1355 1604 1776 1952 2127 2210
870.0 2373 2755 3207 3718 4292 4822 5477 6244 6430 6220
910.0 6078 5767 5202 4460 3551 2658 2006 1571 1300 1173
950.0 1198 1327 1526 1798 2116 2512 2983 3315 3464 3587
990.0 3599 3395 3129 2903 2723 2640 2731 2985 3258 3684
1030.0 4285 4967 5704 6395 7004 7456 7693 7739 7440 6881
1070.0 6263 5617 4964 4508 4180 4043 4141 4369 4762 5316
1110.0 5950 6421 6471 6139 5513 4633 3727 2995 2462 2096
1150.0 1784 1555 1437 1353 1295 1228 1140 1141 1179 1163
1190.0 1207 1266 1294 1345 1352 1392 1450 1521 1640 1779
1230.0 1915 2076 2241 2408 2536 2650 2752 2841 2976 3277
1270.0 3782 4501 5246 5686 5758 5530 4924 4148 3630 3567
1310.0 3841 4333 4937 5590 6283 6970 7655 8302 8878 9431
1350.0 9831 10000 9892 9601 9288 9064 8796 8373 7818 6947
1390.0 5775 4620 3673 3017 2617 2364 2247 2185 2178 2270
1430.0 2390 2483 2583 2666 2745 2884 2914 2716 2474 2199
1470.0 1818 1431 1159 947 779 663 580 528 459 420
1510.0 431 442 431 406 406 421 450 481 487 489
1550.0 515 539 563 592 635 698 806 962 1124 1343
1590.0 1654 2001 2384 2735 2996 3210 3274 3056 2732 2391
1630.0 1926 1432 1050 777 593 464 364 305 280 252
1670.0 220 214 221 258 270 268 280 256 229 219
1710.0 210 199 190 165 141 139 137 137 162 149
1750.0 119 140 192 212 237 266 316 368 433 546
1790.0 665 767 844 884 866 790 628 467 376 334
1830.0 264 172 155 159 125 106 101 79 76 101
1870.0 100 72 92 98 86 110 106 104 111 101
1910.0 99 112 100 80 66 71 69 71 97 100
1950.0 89 83 79 73 78 78 70 65 65 86
1990.0 69 55 57 53 59 65 47 51 49 21
2030.0 41 48 54 57 47 46 55 54 58 71
2070.0 53 34 55 86 87 74 61 61 77 74
2110.0 79 72 82 94 77 76 77 51 29 35
2150.0 42 50 68 63 59 65 61 83 124 150
2190.0 186 229 261 301 333 345 360 359 319 285
2230.0 236 194 139 104 101 101 90 101 106 93
2270.0 61 48 85 91 71 80 108 122 140 143
2310.0 125 117 128 129 135 143 136 136 129 121
2350.0 146 189 205 193 179 155 153 114 38 44
2390.0 73 79 99 92 73 73 98 113 108 121
2430.0 113 83 91 97 91 94 84 67 68 82
2470.0 109 107 98 120 110 81 85 81 77 106
2510.0 80 31 45 70 76 52 38 43 47 60
2550.0 73 46 21 42 86 81 62 91 99 109
2590.0 130 151 149 129 124 138 142 107 95 121
2630.0 125 115 117 131 143 129 110 128 147 145
2670.0 134 107 86 111 103 65 90 117 113 121
2710.0 132 148 183 206 210 194 190 226 243 208
2750.0 203 198 188 230 262 243 228 246 267 290
2790.0 298 344 387 395 388 402 446 463 500 560
2830.0 593 631 691 764 892 1077 1241 1432 1710 2038
2870.0 2359 2662 2981 3210 3426 3601 3721 3779 3799 3775
2910.0 3735 3767 3871 4068 4296 4507 4699 4811 4748 4498
2950.0 4162 3891 3785 3947 4316 4895 5835 7153 8650 9782
2990.0 9943 9182 7902 6202 4487 3305 2548 2036 1702 1435
3030.0 1249 1054 857 726 642 621 624 687 734 769
3070.0 805 794 829 922 1085 1294 1685 2129 2201 2087
3110.0 1963 1550 935 591 497 439 348 301 255 189
3150.0 133 119 159 202 199 173 169 157 139 179
3190.0 222 191 150 128 88 51 71 87 146 151
3230.0 139 148 132 65 36 126 154 68 18 74
3270.0 124 98 69 51 50 89 70 29 0 18
3310.0 69 71 45 43 38 28 69 80 37 41
3350.0 56 32 64 101 92 89 113 126 105 56
3390.0 31 65 91 99 129 124 112 82 16 1
3430.0 43 114 99 51 43 14 6 61 109 143
3470.0 167 172 158 130 119 126 148 139 112 158
3510.0 164 101 115 121 118 139 150 141 133 100
3550.0 84 78 106 105 55 28 28 46 43 58
3590.0 91 130 157 159 190 282 439 570 712 988
3630.0 1283 1566 1935 2166 2291 2309 2231 2103 1814 1479
3670.0 1204 882 573 455 406 281 135 94 93 112
3710.0 110 95 106 105 77 122 123 110 122 116
3750.0 117 89 85 46 11 0 26 52 66 88
3790.0 53 117 121 82 115 90 42 100 172 80
3830.0 2 9 54 83 83
##END=
