##TITLE=2,2-Dimethylglutaric acid
##JCAMP-DX=4.24
##DATA TYPE=INFRARED SPECTRUM
##ORIGIN=EPA-IR VAPOR PHASE LIBRARY
##OWNER=SRD/NIST
Collection (C) 2018 copyright by the U.S. Secretary of Commerce
on behalf of the United States of America. All rights reserved.
##CAS REGISTRY NO=681-57-2
##MOLFORM=C 7 H 12 O 4
##$NIST SOURCE=MSDC-IR
##STATE=gas
##XUNITS=1/CM
##YUNITS=ABSORBANCE
##XFACTOR=1.
##YFACTOR=0.001
##DELTAX=3.85796
##FIRSTX=501.5
##LASTX=4000.7
##FIRSTY=5.0775
##MAXX=4000.7
##MINX=501.534
##MAXY=0.0802475
##MINY=0
##NPOINTS=908
##XYDATA=(X++(Y..Y))
501.534 5.0775 5.6175 6.0775 6.6975 7.1775 7.6375 8.2075 8.6375 9.1875 9.9275
540.114 10.5675 11.2975 12.2075 13.1575 14.0975 15.1175 16.3675 17.8175 19.2275 20.3775
578.693 20.8475 20.4575 19.2975 17.4575 15.4975 13.8975 12.6375 11.7875 11.3075 10.9275
617.273 10.5175 9.9975 9.3775 8.7175 7.9575 7.1675 6.2975 5.3275 4.6075 4.1175
655.852 3.6575 3.3275 3.0575 2.8775 2.7675 2.6775 2.6475 2.6075 2.6775 2.7975
694.432 2.9175 3.1475 3.4175 3.7175 4.0475 4.1975 4.2375 4.1475 3.8775 3.5975
733.011 3.3375 3.1675 3.0075 2.8775 2.8375 2.9075 3.1275 3.4475 3.8175 4.2075
771.591 4.4975 4.6075 4.6175 4.5375 4.2875 3.9175 3.4775 3.0575 2.7175 2.3775
810.170 2.0375 1.8175 1.6575 1.5175 1.4075 1.3475 1.3775 1.4075 1.4875 1.5075
848.750 1.4575 1.4375 1.3775 1.2875 1.1975 1.1175 1.0775 1.0975 1.1075 1.0975
887.330 1.1175 1.1875 1.3075 1.3875 1.4275 1.4775 1.5075 1.5475 1.6375 1.7675
925.909 1.9475 2.1375 2.2475 2.2975 2.3175 2.2175 2.0875 2.0375 1.9775 1.9375
964.489 1.9575 1.9775 2.0475 2.1675 2.3375 2.5475 2.7675 3.0075 3.2075 3.4075
1003.068 3.7075 4.2175 4.8075 5.3675 5.8775 6.2875 6.5275 6.6775 6.8975 7.1975
1041.648 7.6375 8.2675 8.9575 9.6675 10.3975 10.9975 11.7175 12.7675 14.2975 16.7775
1080.227 20.4775 25.5875 32.1575 40.0775 48.5675 56.3675 61.8775 64.0075 62.6875 58.5075
1118.807 52.6375 46.2875 39.9975 34.1275 29.0975 25.0875 22.0675 19.7875 18.1475 17.0175
1157.387 16.1975 15.6275 15.3075 15.1475 14.9575 14.6675 14.2975 13.7775 13.0475 12.1575
1195.966 11.2575 10.4075 9.5575 8.7875 8.1975 7.6175 7.0375 6.6375 6.2975 6.0275
1234.546 5.8275 5.6175 5.5175 5.4275 5.3875 5.4675 5.5775 5.6975 5.8475 6.0275
1273.125 6.2375 6.3575 6.4875 6.6375 6.7775 6.9475 7.0475 7.0375 7.0075 6.9275
1311.705 6.8375 6.7775 6.7675 6.7975 6.8375 6.8575 6.8275 6.7075 6.4875 6.2575
1350.284 6.1475 6.1875 6.4275 6.8375 7.3375 7.8975 8.4275 8.7675 8.9575 9.0675
1388.864 9.0375 8.8575 8.4775 7.8075 6.9175 5.8875 4.9375 4.3075 3.9575 3.7375
1427.443 3.6475 3.6375 3.7375 3.8875 4.1475 4.5675 4.9975 5.3975 5.6575 5.7875
1466.023 5.9575 6.1975 6.3675 6.2075 5.6575 4.7975 3.7475 2.7575 2.0375 1.5675
1504.603 1.3375 1.1975 1.0675 0.9798 0.9367 0.8977 0.8612 0.8552 0.8786 0.9577
1543.182 1.0475 1.1075 1.2775 1.4975 1.6075 1.4975 1.3175 1.1575 1.0375 0.9517
1581.762 0.8491 0.7837 0.7399 0.6711 0.6132 0.6028 0.5994 0.58 0.5905 0.6174
1620.341 0.6316 0.6242 0.6239 0.6719 0.7141 0.7198 0.7546 0.808 0.8778 0.9525
1658.921 0.9967 1.0675 1.1475 1.2575 1.3975 1.5375 1.7075 1.9075 2.0875 2.3675
1697.500 2.7675 3.1975 3.6975 4.3975 5.3475 6.6375 8.1675 9.9575 12.1075 14.5675
1736.080 17.4275 20.7275 25.0075 30.6275 38.2275 47.6575 58.2675 68.5875 76.4775 80.2475
1774.659 79.3075 74.3475 66.6475 57.2975 47.5675 38.3675 30.4875 24.0275 19.0475 15.2975
1813.239 12.3875 10.1175 8.3075 6.8575 5.6575 4.6375 3.7475 3.0675 2.5475 2.1275
1851.819 1.8075 1.5675 1.3875 1.2675 1.1875 1.1075 1.019 0.9469 0.8957 0.8584
1890.398 0.8269 0.808 0.7815 0.7494 0.7174 0.6919 0.6792 0.6621 0.6437 0.628
1928.978 0.5957 0.5641 0.5531 0.5492 0.5364 0.5244 0.5254 0.5377 0.5328 0.5152
1967.557 0.5072 0.4856 0.4745 0.4641 0.4431 0.4309 0.4173 0.4199 0.3986 0.3855
2006.137 0.3872 0.3674 0.3714 0.379 0.3739 0.3639 0.3521 0.3532 0.3638 0.3558
2044.716 0.3384 0.3222 0.2994 0.3007 0.3134 0.3014 0.2824 0.2684 0.2586 0.256
2083.296 0.2585 0.2538 0.2471 0.2517 0.2519 0.237 0.2472 0.2783 0.2816 0.2729
2121.875 0.2802 0.2861 0.2876 0.2822 0.2641 0.2646 0.2714 0.2673 0.2721 0.3011
2160.455 0.3212 0.3078 0.3157 0.3253 0.3178 0.341 0.3624 0.3725 0.3834 0.4036
2199.035 0.4436 0.4566 0.4618 0.4576 0.4555 0.4844 0.4803 0.4654 0.4591 0.4372
2237.614 0.4003 0.3757 0.3589 0.3444 0.3388 0.3358 0.3299 0.323 0.32 0.3245
2276.194 0.3312 0.318 0.3091 0.315 0.3247 0.329 0.3297 0.3557 0.3717 0.3678
2314.773 0.3726 0.3842 0.4058 0.4116 0.4138 0.4072 0.3967 0.3869 0.381 0.3843
2353.353 0.3944 0.4268 0.4429 0.4432 0.4399 0.4278 0.4005 0.3594 0.3443 0.3348
2391.932 0.3139 0.3106 0.3186 0.314 0.3105 0.314 0.3174 0.3222 0.3201 0.3266
2430.512 0.3292 0.3232 0.3012 0.2827 0.2812 0.2666 0.287 0.3101 0.3136 0.3034
2469.092 0.2864 0.2781 0.2538 0.254 0.2715 0.2727 0.2483 0.2341 0.2367 0.2238
2507.671 0.2178 0.2164 0.1931 0.1365 0.1336 0.1642 0.1554 0.1569 0.1745 0.1698
2546.251 0.1541 0.1704 0.1712 0.1692 0.1708 0.1632 0.1631 0.1681 0.1701 0.1758
2584.830 0.162 0.1329 0.152 0.1707 0.1768 0.175 0.1689 0.1852 0.1854 0.1749
2623.410 0.184 0.2054 0.2252 0.2038 0.1833 0.1853 0.1961 0.2201 0.2198 0.188
2661.989 0.1768 0.2054 0.2093 0.2004 0.215 0.2214 0.192 0.1869 0.2028 0.1904
2700.569 0.1982 0.1916 0.1791 0.1909 0.2259 0.2481 0.2358 0.2241 0.2154 0.2142
2739.148 0.2251 0.2522 0.2601 0.2649 0.2552 0.2355 0.2505 0.2633 0.2541 0.2587
2777.728 0.2915 0.295 0.3207 0.3577 0.3484 0.3539 0.3546 0.3794 0.4108 0.4484
2816.308 0.4808 0.504 0.548 0.5714 0.6046 0.655 0.728 0.8084 0.8923 1.0235
2854.887 1.1975 1.3875 1.6275 1.9775 2.3975 2.8375 3.3175 3.6875 3.8675 3.9375
2893.467 3.9275 3.8375 3.8075 3.8675 3.9875 4.2175 4.5475 4.9875 5.6175 6.3675
2932.046 7.1075 7.8075 8.4575 8.8975 9.0175 8.9475 8.7975 8.7175 8.9075 9.5575
2970.626 10.7575 12.4075 14.1975 15.5075 15.7475 14.6375 12.3375 9.5375 6.9075 4.7975
3009.205 3.3475 2.4075 1.8375 1.4575 1.1675 1.0004 0.885 0.761 0.6908 0.6418
3047.785 0.5729 0.5247 0.4919 0.453 0.4511 0.4325 0.4028 0.3935 0.3964 0.394
3086.364 0.3565 0.355 0.372 0.3632 0.3639 0.3632 0.3396 0.3045 0.2788 0.2901
3124.944 0.2921 0.2794 0.2949 0.2785 0.2373 0.2207 0.215 0.2156 0.2305 0.2532
3163.524 0.2161 0.2019 0.2324 0.2481 0.2413 0.2216 0.2484 0.2918 0.2724 0.2636
3202.103 0.2809 0.2731 0.2413 0.2296 0.2236 0.1722 0.1972 0.2199 0.1933 0.209
3240.683 0.191 0.1993 0.1899 0.149 0.1541 0.1403 0.1466 0.1319 0.12426 0.1416
3279.262 0.12535 0.11209 0.1455 0.1467 0.1492 0.1398 0.09358 0.10052 0.1354 0.157
3317.842 0.1394 0.1247 0.153 0.1478 0.12046 0.12742 0.1319 0.10541 0.11174 0.1284
3356.421 0.06727 0.030162 0.06726 0.08371 0.10081 0.08446 0.04301 0.05106 0.08602 0.11645
3395.001 0.12179 0.09616 0.06844 0.07721 0.09978 0.10744 0.08205 0.10439 0.1158 0.11186
3433.580 0.1037 0.08889 0.1375 0.1808 0.1982 0.2226 0.2604 0.2718 0.2836 0.3057
3472.160 0.3785 0.458 0.4748 0.4766 0.4578 0.507 0.566 0.6401 0.7471 0.8074
3510.740 0.9021 1.0135 1.1375 1.2175 1.2675 1.3775 1.5875 1.7875 2.0775 2.5675
3549.319 3.2875 4.6775 7.2375 11.7875 19.1775 27.8275 32.9675 33.0275 28.7375 20.4475
3587.899 11.6075 6.1975 3.7175 2.5175 1.9075 1.5275 1.2175 0.947 0.8212 0.7769
3626.478 0.7459 0.7069 0.5841 0.4441 0.3546 0.366 0.3833 0.3433 0.2823 0.2196
3665.058 0.1838 0.1305 0.1365 0.1871 0.1713 0.1581 0.1872 0.1835 0.1878 0.2297
3703.637 0.1844 0.09377 0.07374 0.10221 0.12573 0.1261 0.1408 0.12433 0.1452 0.1514
3742.217 0.1498 0.10655 0.02253 0.06807 0.0652 0.02449 0.0424 0.06478 0.08866 0.09413
3780.797 0.08322 0.05555 0.06156 0.05837 0.01917 0.008 0.031202 0.08844 0.06203 0.0274582
3819.376 0.06998 0.06805 0.04307 0.08002 0.09525 0.05571 0.08343 0.07255 0.07701 0.1335
3857.956 0.07836 0.04713 0.11422 0.1686 0.11091 0.04111 0.05824 0.05867 0.07328 0.12263
3896.535 0.1317 0.1317 0.12059 0.07291 0.030793 0.06211 0.12309 0.07476 0.028896 0.08471
3935.115 0.0598 0 0.0498 0.08544 0.10031 0.09898 0.07626 0.07294 0.04132 0.05417
3973.694 0.08598 0.06774 0.05471 0.06427 0.07236 0.07544 0.06012 0.05407
##END=
