##TITLE=N-Methylpivalamide
##JCAMP-DX=4.24
##DATA TYPE=INFRARED SPECTRUM
##ORIGIN=EPA-IR VAPOR PHASE LIBRARY
##OWNER=SRD/NIST
Collection (C) 2018 copyright by the U.S. Secretary of Commerce
on behalf of the United States of America. All rights reserved.
##CAS REGISTRY NO=6830-83-7
##MOLFORM=C 6 H 13 N O
##$NIST SOURCE=MSDC-IR
##STATE=gas
##XUNITS=1/CM
##YUNITS=ABSORBANCE
##XFACTOR=1.
##YFACTOR=0.001
##DELTAX=1.92898
##FIRSTX=549.8
##LASTX=4000.7
##FIRSTY=1.466
##MAXX=4000.7
##MINX=549.759
##MAXY=0.088876
##MINY=0
##NPOINTS=1790
##XYDATA=(X++(Y..Y))
549.759 1.466 1.576 1.696 1.676 1.596 1.566 1.306 1.296 1.476 1.696
569.049 2.156 2.196 2.126 2.036 2.126 2.466 2.446 2.246 2.316 2.536
588.339 2.486 2.366 2.216 2.046 1.776 1.406 1.406 1.576 1.666 1.616
607.628 1.496 1.1479 0.9065 1.179 1.306 1.2485 1.2474 1.1288 1.1735 1.2442
626.918 1.1416 1.0556 1.0876 1.0499 1.1354 1.2318 1.1994 1.1826 1.2568 1.406
646.208 1.2345 1.1285 1.2386 1.25 1.1607 1.0413 1.0844 1.1206 1.1269 1.296
665.498 1.1877 0.9247 1.0529 1.2656 1.0727 1.0196 1.286 1.326 1.115 1.2119
684.787 1.416 1.396 1.306 1.2753 1.2616 1.366 1.576 1.566 1.466 1.376
704.077 1.346 1.406 1.406 1.326 1.506 1.616 1.666 1.806 1.776 1.706
723.367 1.706 1.756 1.636 1.656 1.866 2.016 2.096 2.076 2.146 2.126
742.657 2.096 2.086 2.136 2.246 2.336 2.456 2.456 2.426 2.516 2.676
761.947 2.786 2.776 2.826 2.906 2.896 2.866 2.856 2.906 2.806 2.746
781.236 2.826 2.896 2.836 2.636 2.526 2.466 2.326 2.486 2.446 2.246
800.526 2.356 2.416 2.426 2.496 2.726 2.816 2.906 3.176 3.276 3.336
819.816 3.386 3.516 3.776 3.786 3.836 3.986 4.026 4.106 4.306 4.176
839.106 4.056 4.296 4.436 4.336 4.326 4.546 4.636 4.676 4.696 4.646
858.395 4.746 4.926 4.996 4.826 4.766 4.766 4.726 4.726 4.586 4.356
877.685 4.286 4.306 4.156 3.956 3.896 4.026 3.986 3.696 3.546 3.496
896.975 3.646 3.796 3.846 3.796 3.716 3.686 3.506 3.426 3.596 3.606
916.265 3.596 3.556 3.506 3.456 3.316 3.356 3.336 3.336 3.376 3.196
935.555 3.146 3.126 2.856 2.796 2.896 2.746 2.526 2.476 2.436 2.396
954.844 2.436 2.236 2.016 2.026 2.116 2.016 1.896 1.936 2.056 1.986
974.134 1.816 1.976 2.126 2.186 2.356 2.556 2.696 2.876 3.136 3.256
993.424 3.286 3.566 3.796 3.936 4.036 4.126 4.286 4.296 4.296 4.376
1012.714 4.416 4.226 4.076 4.126 4.136 3.906 3.576 3.246 3.196 3.396
1032.003 3.526 3.496 3.186 3.286 3.306 2.726 2.616 2.636 2.326 2.266
1051.293 2.256 2.296 2.276 2.326 2.286 2.006 1.936 1.756 1.276 1.1487
1070.583 1.316 1.0661 0.9906 1.1684 1.0799 1.366 2.116 2.146 1.916 1.896
1089.873 1.956 2.056 2.166 2.406 2.736 2.916 2.306 1.926 2.256 2.536
1109.163 2.426 2.086 2.426 2.826 2.656 2.916 2.946 2.696 2.426 2.416
1128.452 2.906 2.636 2.466 2.906 3.016 3.206 3.626 4.016 4.086 4.236
1147.742 4.566 4.946 5.496 5.986 7.046 8.356 9.346 10.566 12.036 13.756
1167.032 16.026 18.676 21.586 24.606 27.886 31.336 34.756 38.156 40.946 43.656
1186.322 46.156 47.556 48.306 48.386 48.066 47.186 44.896 42.236 39.526 36.176
1205.611 32.606 29.296 26.676 24.196 21.446 18.976 17.066 15.516 14.216 13.036
1224.901 11.616 10.206 9.236 8.666 8.296 7.696 7.176 6.866 6.696 6.646
1244.191 6.506 6.496 6.616 6.726 7.026 7.616 8.166 8.486 9.026 9.676
1263.481 10.186 10.726 11.246 11.816 12.126 12.346 12.506 12.296 11.906 11.456
1282.771 11.076 10.476 9.526 8.596 7.786 6.866 6.016 5.326 4.776 4.286
1302.060 3.996 3.816 3.506 3.276 3.106 2.966 2.916 2.826 2.756 2.746
1321.350 2.706 2.676 2.726 2.796 2.866 2.906 2.986 3.206 3.446 3.646
1340.640 3.966 4.376 4.836 5.406 6.116 6.886 7.676 8.526 9.526 10.496
1359.930 11.356 12.296 13.226 13.936 14.476 14.936 15.116 15.036 14.816 14.546
1379.219 14.246 13.966 13.836 13.816 13.856 13.936 14.066 14.166 14.366 14.736
1398.509 15.006 15.176 15.526 16.116 16.596 16.686 16.406 15.886 15.306 14.846
1417.799 14.566 14.396 14.196 14.006 13.976 13.966 13.826 13.646 13.446 13.406
1437.089 13.486 13.636 14.036 14.656 15.416 16.356 17.496 18.696 20.136 21.756
1456.378 23.456 25.336 27.306 29.406 31.716 34.356 37.286 40.576 44.236 48.416
1475.668 52.806 57.336 61.826 66.386 70.586 74.306 77.656 80.566 82.836 84.276
1494.958 84.746 84.196 82.716 80.456 77.476 73.886 69.626 65.216 60.806 56.356
1514.248 52.226 48.326 44.686 41.416 38.356 35.696 33.286 31.146 29.246 27.616
1533.538 26.166 24.776 23.486 22.156 20.856 19.596 18.316 17.186 16.096 14.986
1552.827 14.076 13.126 12.256 11.486 10.686 9.996 9.436 8.936 8.376 7.796
1572.117 7.326 7.006 6.676 6.366 6.156 5.926 5.646 5.326 5.096 5.006
1591.407 4.926 4.756 4.636 4.596 4.496 4.406 4.386 4.356 4.356 4.336
1610.697 4.316 4.286 4.286 4.326 4.296 4.306 4.406 4.506 4.606 4.616
1629.986 4.716 4.856 4.946 5.056 5.256 5.506 5.816 6.166 6.576 7.026
1649.276 7.516 8.136 8.966 9.876 10.976 12.326 13.876 15.696 17.836 20.236
1668.566 23.026 26.246 29.766 33.716 38.386 43.386 48.946 54.676 60.726 67.036
1687.856 72.656 77.586 81.416 83.966 85.616 86.776 87.716 88.706 88.876 88.006
1707.146 86.606 84.866 82.196 78.366 73.276 67.026 60.096 53.406 46.836 40.616
1726.435 35.026 30.006 25.466 21.576 18.026 14.906 12.406 10.196 8.386 7.016
1745.725 5.936 5.046 4.386 3.816 3.366 3.096 2.836 2.616 2.406 2.246
1765.015 2.136 2.026 1.946 1.856 1.736 1.606 1.536 1.566 1.556 1.406
1784.305 1.346 1.376 1.396 1.336 1.306 1.306 1.2525 1.2322 1.1739 1.1134
1803.594 1.1122 1.0656 1.0228 1.0179 1.0108 0.9763 1.0024 1.0015 0.9422 0.9133
1822.884 0.9187 0.9325 0.9428 0.9334 0.9044 0.9288 0.9356 0.9292 0.9401 0.9141
1842.174 0.9017 0.9414 0.9358 0.9294 0.9192 0.8693 0.895 0.911 0.8615 0.8314
1861.464 0.7902 0.7619 0.7808 0.8041 0.7759 0.7375 0.7276 0.6996 0.7104 0.7272
1880.754 0.6749 0.6124 0.6861 0.7366 0.673 0.7053 0.7599 0.7317 0.733 0.7692
1900.043 0.7911 0.7843 0.7897 0.8159 0.7889 0.7436 0.7351 0.7485 0.7685 0.7278
1919.333 0.7051 0.7296 0.7381 0.7335 0.6682 0.6689 0.7125 0.6661 0.6279 0.6338
1938.623 0.6214 0.6186 0.6651 0.6947 0.6612 0.6369 0.6462 0.6236 0.5986 0.5979
1957.913 0.6144 0.6366 0.6225 0.5847 0.6274 0.6177 0.612 0.679 0.6397 0.6185
1977.202 0.6508 0.6345 0.6385 0.6312 0.674 0.7323 0.7052 0.6564 0.6865 0.6917
1996.492 0.6076 0.6412 0.6845 0.7024 0.7194 0.7472 0.7301 0.7031 0.7349 0.7233
2015.782 0.7376 0.7331 0.676 0.6429 0.6808 0.6793 0.6568 0.6749 0.6747 0.6401
2035.072 0.6534 0.7156 0.6957 0.7093 0.7478 0.735 0.7139 0.711 0.6912 0.6967
2054.362 0.7406 0.7485 0.7314 0.7375 0.765 0.7384 0.6659 0.6196 0.6152 0.6461
2073.651 0.6284 0.5428 0.5094 0.5008 0.4991 0.5153 0.5632 0.5778 0.5518 0.5577
2092.941 0.5301 0.5035 0.4811 0.4804 0.4635 0.4161 0.4531 0.4916 0.4942 0.4645
2112.231 0.4317 0.4388 0.4605 0.4731 0.4701 0.482 0.5027 0.4862 0.4447 0.4935
2131.521 0.5238 0.5669 0.6004 0.5272 0.519 0.5146 0.5212 0.5595 0.5373 0.5393
2150.810 0.5693 0.5186 0.4613 0.4875 0.5197 0.5056 0.4494 0.4305 0.4579 0.4889
2170.100 0.514 0.5073 0.5099 0.4886 0.5033 0.5478 0.5151 0.4958 0.5526 0.6031
2189.390 0.6047 0.5802 0.5879 0.598 0.601 0.6213 0.6313 0.6018 0.5695 0.5366
2208.680 0.4451 0.4733 0.5599 0.553 0.5679 0.5537 0.528 0.5594 0.603 0.5916
2227.970 0.5653 0.595 0.5412 0.4272 0.4166 0.407 0.4445 0.5287 0.5118 0.5066
2247.259 0.4786 0.4279 0.4724 0.4941 0.4799 0.5213 0.5314 0.4963 0.442 0.4075
2266.549 0.433 0.4259 0.4353 0.4759 0.4921 0.4659 0.4866 0.4986 0.4569 0.4663
2285.839 0.51 0.5527 0.5622 0.5692 0.5204 0.5311 0.5433 0.5364 0.5721 0.5381
2305.129 0.5522 0.5583 0.4919 0.4772 0.5124 0.5127 0.5535 0.5726 0.5358 0.4872
2324.418 0.4107 0.4305 0.5192 0.5187 0.4135 0.3957 0.4461 0.4556 0.4814 0.4606
2343.708 0.3884 0.425 0.4894 0.4945 0.5537 0.5628 0.4927 0.4724 0.4899 0.497
2362.998 0.5114 0.5263 0.5641 0.5778 0.503 0.4479 0.5181 0.5277 0.4429 0.4618
2382.288 0.4926 0.5186 0.5458 0.6061 0.6412 0.6037 0.6029 0.5938 0.5572 0.4482
2401.578 0.4829 0.5389 0.4239 0.4062 0.4614 0.4812 0.4624 0.4844 0.4475 0.4366
2420.867 0.4675 0.4341 0.4526 0.4586 0.4508 0.5126 0.5142 0.4592 0.4253 0.4748
2440.157 0.4924 0.4404 0.4508 0.4471 0.4619 0.5025 0.5433 0.4538 0.3901 0.4792
2459.447 0.4472 0.3998 0.5124 0.5643 0.602 0.6277 0.5651 0.5664 0.5704 0.5737
2478.737 0.6404 0.6338 0.5663 0.5709 0.5805 0.6025 0.6273 0.5717 0.5188 0.4778
2498.026 0.502 0.5516 0.5648 0.6103 0.6788 0.6546 0.6047 0.6467 0.6307 0.5322
2517.316 0.5305 0.5882 0.6217 0.6265 0.6293 0.6825 0.6763 0.6373 0.6516 0.7053
2536.606 0.7791 0.7519 0.7476 0.736 0.6923 0.7179 0.7484 0.8231 0.8177 0.7681
2555.896 0.7648 0.7815 0.7918 0.8126 0.8316 0.8272 0.873 0.8413 0.7063 0.7487
2575.186 0.8844 0.9171 0.8375 0.7902 0.7926 0.8001 0.8022 0.7531 0.7491 0.7926
2594.475 0.8391 0.806 0.6988 0.7226 0.7631 0.7035 0.672 0.7049 0.7232 0.7618
2613.765 0.8374 0.7771 0.7526 0.8241 0.8232 0.8609 0.8896 0.8185 0.7816 0.8025
2633.055 0.8609 0.8506 0.7697 0.7894 0.923 0.9771 0.8924 0.8724 0.8775 0.8066
2652.345 0.8232 0.8273 0.7983 0.8385 0.7648 0.8014 0.9458 0.936 0.896 0.8693
2671.634 0.89 0.972 0.9458 0.8519 0.8723 0.8967 0.9086 0.9356 0.9429 1.0124
2690.924 1.0317 0.9579 0.9879 0.9869 0.8958 0.8973 0.981 1.096 1.0891 1.1323
2710.214 1.1592 1.1272 1.1688 1.1271 1.1864 1.296 1.296 1.286 1.276 1.306
2729.504 1.306 1.316 1.346 1.376 1.386 1.416 1.416 1.466 1.526 1.446
2748.794 1.466 1.536 1.516 1.456 1.456 1.486 1.506 1.516 1.506 1.526
2768.083 1.616 1.726 1.756 1.666 1.686 1.776 1.796 1.926 2.006 2.046
2787.373 2.196 2.356 2.476 2.646 2.906 3.086 3.286 3.506 3.676 3.936
2806.663 4.246 4.556 4.806 4.926 5.046 5.146 5.216 5.186 5.106 5.096
2825.953 5.096 5.046 4.896 4.806 4.846 4.886 4.926 5.016 5.216 5.396
2845.242 5.636 6.026 6.546 7.156 7.776 8.516 9.456 10.556 11.736 13.006
2864.532 14.386 15.816 17.276 18.616 19.926 21.316 22.506 23.446 24.376 25.006
2883.822 25.386 25.826 26.216 26.536 26.976 27.506 27.966 28.416 29.066 29.856
2903.112 30.696 31.596 32.506 33.426 34.336 35.176 35.896 36.606 37.356 38.106
2922.401 38.926 39.556 40.136 40.966 41.836 42.886 44.036 45.336 47.016 48.916
2941.691 51.016 53.406 56.156 59.076 62.066 65.086 67.896 70.466 72.856 74.836
2960.981 76.306 77.136 77.236 76.656 75.296 72.956 69.946 66.526 62.366 57.626
2980.271 52.526 47.606 43.006 38.506 34.486 30.996 27.816 25.006 22.586 20.256
2999.561 18.156 16.326 14.616 13.056 11.576 10.386 9.386 8.486 7.686 7.016
3018.850 6.516 6.046 5.666 5.316 5.096 4.916 4.776 4.646 4.496 4.316
3038.140 4.216 4.226 4.056 3.886 3.816 3.866 3.856 3.756 3.626 3.506
3057.430 3.476 3.366 3.246 3.216 3.116 3.046 2.976 2.786 2.666 2.676
3076.720 2.746 2.816 2.756 2.466 2.426 2.466 2.356 2.346 2.356 2.266
3096.009 2.186 2.246 2.106 1.996 1.956 1.846 1.856 1.886 1.786 1.686
3115.299 1.686 1.746 1.696 1.646 1.746 1.676 1.536 1.456 1.416 1.306
3134.589 1.2512 1.336 1.366 1.336 1.366 1.446 1.416 1.396 1.386 1.326
3153.879 1.336 1.396 1.356 1.356 1.446 1.446 1.366 1.306 1.2126 1.2093
3173.169 1.2742 1.276 1.2423 1.2231 1.2639 1.286 1.2391 1.1856 1.296 1.386
3192.458 1.2288 1.1116 1.1668 1.286 1.336 1.326 1.2554 1.2592 1.346 1.2613
3211.748 1.1923 1.1468 1.0911 1.0647 0.9477 0.9699 1.0335 1.0082 1.0311 1.0434
3231.038 0.9773 0.9167 0.9354 0.9261 0.9022 0.8289 0.7195 0.756 0.7604 0.7192
3250.328 0.7732 0.8022 0.7517 0.8238 0.7166 0.4998 0.6353 0.7542 0.7411 0.6846
3269.617 0.7096 0.6394 0.5799 0.6493 0.727 0.6924 0.6572 0.7518 0.7617 0.8005
3288.907 0.761 0.6708 0.6441 0.7122 0.7458 0.6828 0.7018 0.6181 0.5789 0.5692
3308.197 0.5538 0.676 0.6162 0.6292 0.7503 0.6897 0.6482 0.589 0.5613 0.5739
3327.487 0.6259 0.6855 0.6655 0.7491 0.7788 0.8255 0.9 0.8212 0.8093 0.7585
3346.777 0.6781 0.7094 0.8799 0.9432 0.941 1.078 1.2414 1.1518 0.9208 1.005
3366.066 1.2518 1.366 1.2547 1.356 1.446 1.356 1.336 1.336 1.306 1.406
3385.356 1.506 1.516 1.456 1.366 1.406 1.2045 1.1407 1.2214 1.1122 1.1998
3404.646 1.2094 1.0774 0.9293 0.8841 0.9824 0.8144 0.7498 0.8712 0.7488 0.5149
3423.936 0.6074 0.7335 0.6035 0.5074 0.6498 0.8005 0.7999 0.7218 0.5876 0.664
3443.225 0.9282 1.0377 0.9665 0.9673 1.0361 1.1881 1.2376 1.2269 1.426 1.706
3462.515 1.916 2.146 2.566 2.946 3.166 3.506 3.986 4.496 4.916 5.196
3481.805 5.676 6.266 6.796 7.196 7.576 7.866 8.056 8.286 8.456 8.566
3501.095 8.596 8.546 8.296 8.086 7.936 7.586 7.106 6.736 6.326 5.756
3520.385 5.226 4.686 4.046 3.516 3.126 2.826 2.446 2.106 1.946 1.786
3539.674 1.576 1.356 1.1962 1.0153 0.8918 0.7417 0.6957 0.8214 0.8176 0.7851
3558.964 0.7264 0.5306 0.4541 0.5447 0.5641 0.506 0.4616 0.5065 0.4819 0.3273
3578.254 0.277977 0.276114 0.32631 0.36622 0.37479 0.35338 0.278539 0.276306 0.1971 0.26631
3597.544 0.34188 0.2544 0.28723 0.31557 0.31182 0.3638 0.42 0.34344 0.2362 0.174
3616.833 0 0.013 0.147 0.127 0.173 0.2625 0.1775 0.165 0.29868 0.2498
3636.123 0.2298 0.32776 0.31996 0.2645 0.175 0.126 0.2612 0.29789 0.2256 0.155
3655.413 0.2209 0.29385 0.2145 0.2441 0.29989 0.2535 0.176 0.2089 0.2106 0.1999
3674.703 0.2252 0.2123 0.2447 0.30588 0.31037 0.32119 0.32935 0.31027 0.281915 0.2582
3693.993 0.2363 0.29277 0.29666 0.27155 0.35867 0.35859 0.36311 0.2482 0.2104 0.3908
3713.282 0.4033 0.32695 0.30366 0.216 0.2262 0.32231 0.35458 0.35818 0.4476 0.48
3732.572 0.499 0.4209 0.26682 0.4078 0.4757 0.3802 0.4059 0.29242 0.166 0.3063
3751.862 0.2617 0.1895 0.2119 0.32416 0.3914 0.279875 0.2306 0.2214 0.2499 0.149
3771.152 0.125 0.33414 0.35311 0.2557 0.157 0.2346 0.29426 0.132 0.174 0.30142
3790.441 0.3781 0.3833 0.2234 0.2344 0.30142 0.2502 0.2005 0.1782 0.2224 0.279868
3809.731 0.3763 0.34145 0.2294 0.2526 0.31653 0.27472 0.15 0.2045 0.4309 0.4546
3829.021 0.33587 0.4129 0.4643 0.4901 0.3849 0.32374 0.278138 0.2615 0.4583 0.5463
3848.311 0.4425 0.2414 0.2144 0.165 0.1935 0.3725 0.4231 0.4094 0.3913 0.3905
3867.601 0.4443 0.4238 0.3812 0.30582 0.276674 0.30866 0.36025 0.3982 0.31967 0.3941
3886.890 0.6374 0.678 0.5773 0.37594 0.34097 0.5139 0.6513 0.6963 0.5855 0.4677
3906.180 0.4723 0.5835 0.5599 0.4404 0.37396 0.28757 0.3896 0.4562 0.3788 0.4531
3925.470 0.33121 0.155 0.2453 0.4169 0.5009 0.5997 0.5998 0.5731 0.4728 0.4009
3944.760 0.3747 0.2579 0.34803 0.4448 0.35815 0.30111 0.4158 0.37453 0.2587 0.28965
3964.049 0.3895 0.539 0.5395 0.5864 0.6724 0.5838 0.425 0.3822 0.4207 0.4432
3983.339 0.5132 0.29432 0.2214 0.4575 0.4897 0.4392 0.3865 0.4192 0.5339 0.5249
##END=
