##TITLE=4-(1,2,4-Triazol-1-yl)phenol
##JCAMP-DX=4.24
##DATA TYPE=INFRARED SPECTRUM
##ORIGIN=EPA-IR VAPOR PHASE LIBRARY
##OWNER=SRD/NIST
Collection (C) 2018 copyright by the U.S. Secretary of Commerce
on behalf of the United States of America. All rights reserved.
##CAS REGISTRY NO=68337-15-5
##MOLFORM=C 8 H 7 N 3 O
##$NIST SOURCE=MSDC-IR
##STATE=gas
##XUNITS=1/CM
##YUNITS=ABSORBANCE
##XFACTOR=1.
##YFACTOR=0.001
##DELTAX=1.92898
##FIRSTX=549.8
##LASTX=4000.7
##FIRSTY=1.927
##MAXX=4000.7
##MINX=549.759
##MAXY=0.024597
##MINY=0
##NPOINTS=1790
##XYDATA=(X++(Y..Y))
549.759 1.927 2.697 3.117 1.997 1.957 2.147 1.5166 1.2759 1.977 1.2789
569.049 0.8519 1.3834 0.9432 1.0944 1.2817 1.5895 1.5907 1.0078 1.166 1.937
588.339 1.797 1.4865 1.6849 1.386 1.5341 1.673 2.157 2.117 1.837 1.2207
607.628 0.6947 1.2803 1.847 2.187 2.277 2.587 3.317 3.517 3.147 3.487
626.918 3.517 3.417 3.607 3.007 2.467 2.727 2.957 2.717 2.417 1.727
646.208 1.4224 2.097 2.657 2.807 2.637 2.397 2.067 2.027 2.157 2.277
665.498 2.677 3.077 3.317 3.407 3.347 2.927 2.677 2.577 1.917 1.977
684.787 2.227 1.917 1.6941 1.877 2.017 1.5297 1.817 1.618 0.9023 1.0259
704.077 1.2837 1.446 1.4765 1.6579 1.787 1.807 1.5064 1.3181 1.5177 1.6596
723.367 1.3942 1.1454 1.6171 1.665 1.0948 1.2793 1.6501 1.4108 1.4643 1.5282
742.657 1.1475 0.9751 1.3768 1.6069 1.3882 1.241 1.4225 1.3574 1.218 1.5724
761.947 2.177 1.977 1.4853 1.1175 1.0402 1.7047 1.6864 1.0444 0.574 0.736895
781.236 1.2737 1.7027 2.137 2.147 2.107 1.907 2.027 2.037 2.007 2.317
800.526 1.887 1.857 2.237 2.177 2.377 2.837 2.957 2.897 3.267 3.937
819.816 3.957 3.737 3.877 4.367 4.727 5.017 5.207 5.337 5.337 4.947
839.106 4.617 4.217 3.927 3.597 3.127 2.977 2.577 2.367 2.277 2.457
858.395 2.807 2.367 2.027 1.967 1.787 1.5517 1.6775 2.037 1.977 1.5802
877.685 1.2699 1.4178 1.6457 1.777 1.827 1.3387 0.9934 1.1478 1.288 1.1047
896.975 0.9372 1.3211 1.4252 1.3408 1.3444 0.8778 0.985 1.097 1.2897 1.5548
916.265 1.0496 1.1469 1.2127 1.0941 1.3764 0.9565 0.673 0.9482 1.2151 1.3241
935.555 1.3061 1.2081 1.3818 1.867 2.287 2.437 2.437 2.427 2.117 2.097
954.844 2.557 2.637 2.217 1.4904 0.8668 1.0647 1.3159 1.6045 2.077 1.927
974.134 2.357 3.137 3.747 4.347 4.567 3.987 3.637 3.817 3.177 2.697
993.424 2.087 1.5825 1.4764 1.2173 1.2802 1.5863 1.747 1.4234 0.8626 0.566
1012.714 0.587 0.903 1.4446 1.2415 0.8636 0.457 1.0486 1.4994 1.151 1.0851
1032.003 0.9876 1.2594 1.6737 2.187 2.817 2.687 2.357 3.327 3.657 3.557
1051.293 3.067 2.467 2.197 1.5959 0.9507 0.376 1.1481 2.187 2.127 1.5226
1070.583 0.7054 0.8662 2.527 2.117 0.8484 0.23 0.062 1.3732 1.4248 2.077
1089.873 3.217 2.817 1.3691 1.6931 2.687 2.617 2.477 1.5643 1.2657 2.177
1109.163 1.877 1.1916 2.377 2.387 1.747 2.657 2.667 2.597 2.907 2.787
1128.452 4.117 4.427 3.857 4.187 4.687 5.497 5.387 4.827 4.847 4.587
1147.742 4.687 5.427 5.427 5.417 5.617 5.337 6.287 7.717 8.267 8.967
1167.032 10.737 13.247 14.737 14.987 15.127 15.717 15.097 13.487 13.167 11.967
1186.322 10.157 9.287 8.697 7.807 6.887 6.327 6.787 7.497 8.637 8.987
1205.611 7.367 7.967 9.567 9.987 8.787 8.027 7.257 6.637 6.667 6.307
1224.901 5.747 5.207 6.197 6.907 5.597 5.557 6.087 5.187 5.177 5.507
1244.191 5.877 6.267 6.237 6.617 7.247 8.597 9.217 10.137 11.157 11.517
1263.481 12.227 12.127 11.357 10.377 9.567 8.257 7.027 6.617 6.267 5.657
1282.771 5.347 5.037 4.877 4.467 3.607 3.177 3.237 3.187 2.767 2.627
1302.060 2.677 2.677 2.447 2.327 2.537 2.417 2.517 2.937 3.127 3.187
1321.350 3.227 3.267 3.467 3.607 3.527 3.547 3.547 3.357 3.197 3.177
1340.640 3.077 2.757 2.527 2.557 2.547 2.547 2.537 2.417 2.277 2.047
1359.930 1.837 1.927 1.917 1.767 1.757 1.827 1.7264 1.5188 1.5383 1.5711
1379.219 1.5451 1.6131 1.5689 1.4351 1.543 1.714 1.6643 1.6923 1.807 1.787
1398.509 1.807 2.037 2.167 2.307 2.477 2.387 2.357 2.387 2.287 2.127
1417.799 2.097 1.967 1.847 1.797 1.7154 1.787 1.857 1.6535 1.6788 1.907
1437.089 1.967 2.097 2.257 2.327 2.507 2.617 2.537 2.567 2.657 2.507
1456.378 2.247 2.197 2.167 2.167 2.137 1.847 1.7098 1.639 1.5218 1.7061
1475.668 1.887 1.847 1.947 1.997 1.947 2.027 2.247 2.667 2.807 3.067
1494.958 3.427 3.477 3.817 4.297 4.737 5.627 7.507 9.877 12.287 15.147
1514.248 18.247 21.007 23.377 24.597 24.287 23.167 21.197 18.497 15.427 12.227
1533.538 9.157 6.767 5.137 4.067 3.857 3.477 2.867 2.587 2.487 2.377
1552.827 2.067 2.047 2.197 1.957 1.787 1.917 1.797 1.6529 1.757 1.7127
1572.117 1.5161 1.4411 1.727 2.087 1.977 1.6871 1.6212 1.757 1.847 1.797
1591.407 1.797 1.957 2.007 2.157 2.127 2.077 2.077 1.897 2.087 2.457
1610.697 2.437 2.317 2.377 2.167 1.857 2.017 2.007 1.957 2.017 1.887
1629.986 1.857 1.67 1.4286 1.6124 1.787 1.606 1.5543 1.6705 1.7176 1.6116
1649.276 1.6512 1.5269 1.457 1.767 1.7151 1.6791 1.6993 1.6548 1.767 1.6556
1668.566 1.5364 1.6853 1.747 1.5465 1.5197 1.6433 1.6556 1.6485 1.5422 1.5848
1687.856 1.5783 1.3787 1.4438 1.6598 1.6097 1.4898 1.4445 1.5302 1.5116 1.3982
1707.146 1.2617 1.3256 1.5211 1.3879 1.291 1.376 1.6479 1.6692 1.5349 1.6037
1726.435 1.6069 1.5273 1.6043 1.7086 1.787 1.6376 1.3881 1.5056 1.5894 1.5338
1745.725 1.6865 1.777 1.807 2.037 2.157 2.027 1.897 1.877 1.977 1.917
1765.015 1.6915 1.6694 1.6051 1.3999 1.3133 1.3618 1.3536 1.2852 1.376 1.4474
1784.305 1.3275 1.2723 1.4283 1.5068 1.4541 1.4246 1.4067 1.5164 1.5226 1.4011
1803.594 1.5003 1.6006 1.5057 1.3722 1.2121 1.2316 1.3514 1.4648 1.5283 1.4084
1822.884 1.3276 1.2765 1.2227 1.3176 1.3167 1.2436 1.3597 1.3453 1.2117 1.3207
1842.174 1.3996 1.4315 1.4571 1.3898 1.3676 1.2613 1.2453 1.3888 1.2929 1.1451
1861.464 1.3877 1.4939 1.5773 1.6386 1.454 1.4074 1.4781 1.4446 1.4091 1.4976
1880.754 1.4414 1.2875 1.1256 1.0611 1.0674 1.1387 1.309 1.3797 1.1809 1.1026
1900.043 1.1565 1.105 1.237 1.39 1.313 1.2196 1.1923 1.0468 0.9636 1.0458
1919.333 1.1388 1.3259 1.3213 1.1623 1.136 1.1252 1.1203 1.0465 1.0004 0.9146
1938.623 0.912 1.1324 1.1162 0.71729 0.525 0.621 0.730872 0.72516 0.9134 1.1372
1957.913 1.0098 1.0139 1.0859 1.1115 1.0832 1.0069 1.0034 1.0097 0.8849 0.8419
1977.202 0.9495 0.9724 0.879 0.9256 1.0922 1.1147 1.0552 1.1707 1.1503 1.0587
1996.492 1.0607 0.9321 0.8652 0.79883 0.9663 1.0789 0.9338 0.9273 0.9365 0.80281
2015.782 0.968 1.1181 1.0895 1.0034 0.8605 0.8459 0.8769 0.9666 0.9381 0.9044
2035.072 0.9886 1.1705 1.2181 1.1781 1.1877 1.0348 0.9769 1.0321 1.181 1.3017
2054.362 1.1809 0.9604 0.9627 1.0007 0.9341 0.8666 1.0162 1.1675 0.9915 0.75267
2073.651 0.7927 1.0698 1.1043 1.013 0.9869 0.9169 0.9478 1.1486 1.0274 0.8686
2092.941 0.9782 1.0623 1.1605 1.2356 1.1648 1.124 1.1774 1.078 0.9253 1.0202
2112.231 0.9938 1.0007 1.0269 0.8912 0.8368 0.8833 0.9917 0.8846 0.82432 0.9259
2131.521 1.0049 0.8424 0.9163 1.1562 1.0204 0.9662 1.0357 1.0265 1.0338 0.915
2150.810 0.8334 0.8747 0.8592 0.8704 0.7867 0.80521 0.736993 0.827 0.8803 0.8476
2170.100 0.9049 0.8513 0.9931 0.9962 0.9116 0.9043 0.8785 1.0517 1.191 0.902
2189.390 0.733557 0.8792 0.9031 1.1215 1.1808 0.8864 0.7928 0.6987 0.584 0.74931
2208.680 0.8902 0.8988 0.8823 0.81987 0.8906 0.9368 0.78725 0.80748 0.9388 0.8406
2227.970 0.82365 1.0323 1.159 1.0355 1.0528 1.0909 1.0356 1.052 1.0268 1.0672
2247.259 1.0808 0.9128 0.9942 1.0571 1.0182 1.0616 0.9565 0.9578 0.9901 1.063
2266.549 0.9226 0.76671 0.9823 1.1 1.0005 0.9193 0.9338 0.8962 0.75442 0.699
2285.839 0.8309 0.8526 0.79746 0.9054 0.8422 0.9174 0.975 0.736014 0.81088 0.9843
2305.129 1.0045 0.9285 1.0123 1.0637 1.0541 1.0243 0.7024 0.6324 0.848 1.0413
2324.418 0.9536 0.8679 0.9155 0.9026 0.9 0.7066 0.614 0.589 0.6877 0.72534
2343.708 0.545 0.503 0.728054 0.9195 0.8326 0.72241 0.79689 0.8728 0.8869 0.75422
2362.998 0.729599 1.0051 0.897 0.8469 0.8401 0.9597 1.064 0.9339 0.8982 0.9432
2382.288 1.0436 1.0397 0.8859 0.78686 0.8029 0.9009 1.0375 0.8862 0.8364 0.71877
2401.578 0.9109 1.1682 1.0443 1.2854 1.1962 0.9092 0.80282 0.79753 1.0588 1.2848
2420.867 1.2175 0.9458 1.0103 1.2662 1.2841 1.0685 0.8978 0.9162 1.0665 1.1199
2440.157 0.967 0.986 1.2207 1.4278 1.3232 1.0771 0.9055 0.9631 1.2322 0.9861
2459.447 0.592 0.555 0.6493 0.561 0.6904 0.9237 0.73781 0.441 0.492 0.79082
2478.737 0.9162 0.9823 0.9628 0.8567 0.9293 0.9423 0.8462 0.8773 0.8537 0.76976
2498.026 0.575 0.75863 1.0354 0.9016 0.8528 0.9982 1.0286 1.0382 0.8285 0.594
2517.316 0.6356 0.83 1.0224 1.0029 0.9419 0.82231 0.9974 1.0054 0.7159 0.948
2536.606 0.991 0.79836 0.8604 0.8652 1.0705 1.15 1.1095 1.0239 0.9002 1.0276
2555.896 1.0277 1.1967 1.2668 0.9207 0.74862 0.79463 0.9469 1.1559 0.9947 0.9358
2575.186 0.8299 0.428 0.6721 0.8794 0.77108 0.612 0.624 0.9829 0.78617 0.289
2594.475 0.287 0.6704 0.81672 1.0008 1.0043 0.9793 1.1609 1.1119 1.1119 1.0095
2613.765 0.8356 0.8628 0.9489 0.8671 0.8704 0.81302 0.79935 0.8875 0.7006 0.6332
2633.055 0.8596 0.9317 0.592 0.525 0.76506 0.9403 1.0794 1.0248 1.0068 0.8776
2652.345 0.9772 0.8623 0.435 0.6604 0.80975 0.9043 1.0395 0.8781 0.9446 0.8833
2671.634 0.8549 0.9981 0.9213 0.75497 0.425 0.334 0.75358 1.0733 1.0618 0.76497
2690.924 0.646 0.9005 1.2691 0.9683 0.78472 0.9391 0.7019 0.76291 1.023 1.0958
2710.214 0.75733 0.597 0.6401 0.521 0.62 1.0878 1.0439 0.6318 0.7117 0.82122
2729.504 0.9007 0.81608 0.7838 1.0275 0.9912 0.9635 0.8544 0.7123 0.564 0.347
2748.794 0.647 1.0239 1.0802 1.1343 0.9275 0.6682 0.77944 0.76309 0.652 0.6462
2768.083 0.6329 0.625 0.730975 0.6964 0.6413 1.0606 1.1288 1.0557 0.8504 0.34
2787.373 0.476 0.8429 0.81016 0.551 0.332 0.487 0.79558 0.9835 1.0903 0.9752
2806.663 0.8606 0.81233 0.77636 0.9827 0.9572 0.71978 0.6271 0.545 0.7133 0.78437
2825.953 0.73849 0.6378 0.704 0.8822 0.9625 0.9523 1.0168 1.1938 1.0414 0.81787
2845.242 0.8461 0.7039 0.8727 1.1505 0.7156 0.593 0.482 0.6381 0.71761 0.433
2864.532 0.7153 0.82428 0.9881 1.1357 0.8542 0.75852 0.80938 0.6345 0.544 0.6941
2883.822 0.9126 0.7881 0.6815 0.864 0.730869 0.76142 1.008 0.9635 0.8718 0.732985
2903.112 0.605 0.6441 0.6 0.431 0.389 0.77518 0.951 0.589 0.604 1.0406
2922.401 0.9875 0.8316 0.9912 0.8855 0.79952 0.80715 0.77198 0.9474 0.9904 0.8861
2941.691 0.9211 0.8103 0.733568 0.8995 0.81716 0.468 0.37 0.838 1.0014 0.8999
2960.981 0.9428 0.8372 0.546 0.368 0.552 0.7107 0.78356 0.509 0.473 0.6709
2980.271 0.533 0.602 0.74741 1.0245 1.2818 1.072 0.8607 0.6748 0.8939 1.091
2999.561 0.625 0.531 0.6941 0.8849 1.0325 1.0748 1.0794 1.1575 1.1996 1.008
3018.850 1.091 0.8613 0.6967 0.9922 1.4783 1.747 1.4632 1.3724 1.4356 1.1795
3038.140 1.0275 1.2433 1.1703 0.9318 1.1666 1.6011 1.797 1.4941 1.2584 1.3268
3057.430 1.1927 1.1956 1.2185 1.0897 1.2231 1.6276 1.5452 1.0575 0.9082 0.735479
3076.720 0.73853 0.9461 0.9731 1.1256 1.4333 1.2812 1.034 1.0257 1.1526 1.2774
3096.009 0.8638 0.6364 0.81922 0.7096 0.599 0.81816 0.9169 0.6461 0.80815 1.2123
3115.299 0.8302 0.73754 0.9274 0.8873 0.9201 1.0386 1.2932 1.5526 1.1762 0.8991
3134.589 1.3007 1.374 1.3969 1.2576 1.2449 1.3026 1.1284 0.78274 0.734224 1.2477
3153.879 1.0921 0.9045 1.1085 0.919 1.0934 1.2689 1.0061 0.8385 0.8608 0.75752
3173.169 0.8854 1.0434 1.0659 1.051 0.8819 1.0579 1.0339 0.9336 0.73942 0.367
3192.458 0.414 1.1366 1.1975 0.75181 0.9948 1.134 0.8399 1.0631 1.0905 0.588
3211.748 0.74432 0.79043 0.589 0.9404 1.0424 0.614 0.653 1.0842 1.0956 0.75453
3231.038 0.568 0.599 0.565 0.80483 0.8498 1.025 1.2463 0.9025 1.0069 1.2839
3250.328 1.16 1.0213 0.9138 0.6889 0.76164 0.9169 1.09 1.1193 1.0931 1.4528
3269.617 1.1855 0.6678 0.8691 1.0095 0.666 0.132 0.463 0.75061 0.6719 0.6456
3288.907 0.307 0.674 1.217 1.3027 1.2122 1.0693 0.81053 0.692 0.9094 1.1822
3308.197 1.107 1.0484 1.2058 0.9033 0.7153 1.0304 1.3099 0.9904 1.1186 1.3509
3327.487 1.0116 1.2885 1.4498 1.3486 1.3164 0.9244 0.467 0.59 0.9881 1.2208
3346.777 1.0013 0.542 0.413 0.592 1.0101 0.9514 0.6723 0.78335 0.74632 0.7875
3366.066 0.8823 1.1536 0.8784 0.435 1.1553 1.354 0.6388 0.71813 0.9684 0.9583
3385.356 0.9919 0.8455 0.80461 0.9311 1.1235 1.0376 0.8683 0.78642 0.485 0.576
3404.646 0.75008 0.736803 1.0952 1.108 0.9083 0.9195 0.928 0.7516 0.729617 0.8996
3423.936 0.9845 0.6623 0.598 0.76632 0.7007 0.79857 0.9184 0.9034 0.76257 1.0045
3443.225 1.2367 1.0078 0.623 1.005 1.2664 1.176 1.1076 0.727152 0.856 0.8971
3462.515 0.8949 1.0075 0.733085 0.479 0.561 0.6689 0.7062 0.6764 0.82395 0.9705
3481.805 0.8985 1.2447 1.2809 1.0683 0.78666 0.673 1.0371 1.26 1.3733 1.1333
3501.095 1.309 1.2442 0.6635 0.6272 1.149 1.2805 1.1568 0.9975 0.7009 0.9695
3520.385 0.918 0.625 0.41 0.525 1.0653 1.3026 1.4932 1.1172 0.564 0.6456
3539.674 0.9406 0.9494 1.0362 1.1053 0.867 0.77648 0.9575 1.1547 0.9424 0.9026
3558.964 1.0065 0.9783 1.1248 1.185 1.0751 1.1626 0.9661 1.1228 1.6452 1.1271
3578.254 1.2383 1.6548 1.1936 0.735683 0.76749 1.462 1.3503 1.2206 1.2106 0.9776
3597.544 1.2795 1.5403 1.5328 1.216 1.3621 2.097 1.757 1.1485 1.1217 1.1487
3616.833 1.2041 0.79687 0.7902 1.1292 1.4483 1.5381 1.7093 2.187 2.577 2.997
3636.123 2.977 3.037 3.767 4.737 5.577 6.487 6.437 6.567 6.957 6.747
3655.413 6.647 6.087 5.217 4.007 2.867 2.097 1.797 2.027 1.967 1.4939
3674.703 1.3473 1.4784 1.0267 0.77378 1.0066 0.76245 1.1221 1.787 1.2865 0.8931
3693.993 1.1372 0.9297 1.0941 1.2443 0.609 0.6902 1.1096 1.3141 1.1525 0.71889
3713.282 0.6695 0.8492 1.0224 1.0905 1.0912 0.883 1.0795 1.04 0.74154 1.0472
3732.572 0.8698 0.638 0.9604 0.879 0.80518 1.0165 0.9678 1.0584 1.0664 0.79204
3751.862 0.72288 0.6633 0.495 0.608 0.397 0.406 1.0524 1.127 0.9467 1.1151
3771.152 1.4339 1.3831 1.2662 1.2393 1.3748 1.4668 1.0361 1.1095 1.1956 1.1015
3790.441 1.4472 1.296 1.3293 1.3649 1.1455 1.2349 1.3263 0.9667 0.348 0.79567
3809.731 1.4618 1.2988 1.0412 0.6345 0.244 0.6866 0.842 0.561 0.8817 1.1536
3829.021 0.953 0.8365 0.76912 0.8651 1.2875 1.1038 0.532 0.82087 0.987 0.605
3848.311 0.368 0.72543 1.1168 1.0237 1.4532 1.1274 0.74687 0.8573 0.8804 0.73672
3867.601 0.405 0.80888 1.3222 1.5053 1.2542 1.1774 0.8464 0.45 0.78832 0.80919
3886.890 0.734175 0.534 0 0.165 0.672 0.547 0.28 0.6919 1.0951 0.8689
3906.180 0.269 0.239 0.8361 1.2126 1.1078 1.0188 1.19 0.9646 0.78879 1.0995
3925.470 1.0842 0.735464 0.9775 1.2978 1.0236 0.6552 0.599 0.75991 0.543 0.469
3944.760 0.71826 0.539 0.581 0.77158 1.1353 1.2978 1.2718 1.1335 0.492 0.6635
3964.049 1.352 1.5888 0.9322 0.518 0.77588 0.75808 0.6449 0.8708 1.0921 0.8307
3983.339 0.8668 0.8535 0.207 0.234 0.9069 0.606 0.734813 0.6 0.106 0.6375
##END=
