##TITLE=6-Tetradecanone
##JCAMP-DX=4.24
##DATA TYPE=INFRARED SPECTRUM
##ORIGIN=EPA-IR VAPOR PHASE LIBRARY
##OWNER=SRD/NIST
Collection (C) 2018 copyright by the U.S. Secretary of Commerce
on behalf of the United States of America. All rights reserved.
##CAS REGISTRY NO=6836-42-6
##MOLFORM=C 14 H 28 O
##$NIST SOURCE=MSDC-IR
##STATE=gas
##XUNITS=1/CM
##YUNITS=ABSORBANCE
##XFACTOR=1.
##YFACTOR=0.001
##DELTAX=1.92898
##FIRSTX=549.8
##LASTX=4000.7
##FIRSTY=3.38
##MAXX=4000.7
##MINX=549.759
##MAXY=0.61787
##MINY=0
##NPOINTS=1790
##XYDATA=(X++(Y..Y))
549.759 3.38 3.61 4.08 4.02 3.46 3.12 3.15 3.07 3 2.59
569.049 2.29 2.21 1.95 1.95 1.83 1.62 1.1811 1.55 2.21 1.91
588.339 1.79 1.7 2.36 2.89 2.38 2.2 1.78 1.46 1.79 2.18
607.628 2.42 2.63 2.7 2.71 2.75 2.78 2.62 2.73 3.02 3.09
626.918 3.27 3.47 3.86 3.89 3.82 3.67 3.17 2.61 2.28 2.54
646.208 2.61 2.08 2.16 2.42 2.15 2.23 2.34 2.39 2.2 1.88
665.498 1.99 2.02 1.96 2.07 2.15 2.22 2.25 2.31 2.54 2.92
684.787 3.09 2.99 2.92 3.17 3.75 4.16 4.46 4.78 5.46 6.16
704.077 6.7 7.55 8.44 9.04 9.83 10.52 11.07 11.93 12.73 13.02
723.367 12.94 13.48 13.67 13.19 12.96 12.8 12.8 12.56 12.16 12.04
742.657 11.75 10.9 10.31 9.97 9.55 9.26 8.89 8.91 8.95 8.5
761.947 8.19 8.27 8.11 7.8 7.43 7.2 7.1 6.78 6.57 6.28
781.236 5.99 5.62 5.43 5.38 5.19 4.96 4.76 4.6 4.25 4.14
800.526 4.06 4.13 4.28 3.95 3.85 3.86 3.8 3.88 3.74 3.48
819.816 3.3 3.37 3.51 3.56 3.63 3.85 3.95 3.87 4.38 4.4
839.106 4.06 4.24 4.36 4.63 4.7 4.85 4.99 4.74 4.52 4.57
858.395 4.38 4.59 4.81 4.83 5 4.82 4.86 4.89 4.78 4.85
877.685 5.19 5.29 5.24 5.39 5.78 5.96 5.84 6.05 5.96 6.3
896.975 6.84 6.85 6.84 7.01 7.34 7.33 7.43 7.68 8.06 8.13
916.265 8.18 8.45 8.65 8.87 9.05 9.24 8.91 8.84 9.24 9.15
935.555 8.74 9.14 9.58 9.36 9.41 9.65 9.47 9.56 10.02 10.08
954.844 10.27 10.47 10.26 10.28 10.59 10.69 10.71 10.98 11.04 11.13
974.134 11.25 11.17 11.15 11.12 11.2 10.94 10.95 11.35 11.52 12.05
993.424 12.45 12.81 13.17 13.69 14.53 15.15 16.06 16.7 17.15 17.73
1012.714 18.4 18.84 18.79 18.66 18.56 18.42 18.98 19.55 19.63 19.66
1032.003 19.97 20.79 21.4 21.67 22.13 22.71 23.58 24.5 25.39 25.9
1051.293 26.34 27.62 28.52 28.99 30.09 31.44 32.49 32.87 32.87 33.48
1070.583 33.33 33.01 32.73 31.05 28.66 27.26 25.85 24.19 23.49 22.74
1089.873 21.76 21.41 21.06 20.16 19.98 19.59 19.31 19.94 20.25 20.81
1109.163 21.79 22.96 24.65 26.03 26.72 28.83 31.31 32.99 34.32 35.29
1128.452 36.52 37.09 37.5 37.77 37.46 37.42 37.04 35.78 34.13 32.25
1147.742 31.15 31.08 30.43 29.01 27.7 26.22 25.4 24.68 24.01 23.39
1167.032 23 22.67 22.49 23.17 22.65 21.84 22.06 22.45 23.12 23.69
1186.322 23.4 23 23.19 23.24 23.21 23.33 23.77 24.28 24.55 25.37
1205.611 26.04 25.93 26.43 27.15 26.22 25.2 24.77 25.14 25.4 24.42
1224.901 24.41 24.18 23.93 24.29 24.44 24.98 24.11 23.47 24.12 24.17
1244.191 23.67 23.31 22.9 22.44 22.54 22.32 22.21 22.28 22.17 22.3
1263.481 22.42 22.79 23.56 23.96 24.35 25.05 25.5 26 26.45 26.99
1282.771 27.81 28.47 29.06 29.92 30.73 31.19 31.4 31.61 31.87 32.19
1302.060 32.37 32.36 32.38 32.33 32.32 32.34 32.14 32.08 32.18 32.27
1321.350 32.49 33.14 33.95 34.98 36.39 38.01 39.97 42.19 44.64 47.11
1340.640 49.63 52.16 54.48 56.62 58.53 60.18 61.68 62.91 63.57 63.57
1359.930 62.94 61.65 59.78 57.38 54.35 50.93 47.67 44.82 42.34 40.37
1379.219 39.02 38.08 36.9 35.38 33.64 31.46 29.43 27.91 26.63 25.85
1398.509 25.56 25.58 26.07 26.82 27.87 29.31 30.83 32.25 33.53 34.49
1417.799 35.13 35.39 35.5 35.57 35.56 35.71 36.17 36.75 37.46 38.45
1437.089 39.76 41.55 43.64 46.07 48.9 52.04 55.42 58.77 62.15 65.32
1456.378 67.91 69.68 70.41 70.02 68.62 66.09 62.45 58.15 53.07 47.57
1475.668 42.29 37.19 32.65 28.65 25.35 22.54 20.18 18.17 16.29 14.9
1494.958 13.83 12.75 11.81 11.15 10.47 9.71 9.15 8.71 8.28 7.88
1514.248 7.38 6.89 6.68 6.4 6.15 6.03 5.96 5.77 5.52 5.27
1533.538 5.02 4.84 4.6 4.49 4.49 4.4 4.3 4.18 4.06 3.99
1552.827 3.84 3.75 3.72 3.55 3.56 3.66 3.62 3.56 3.57 3.67
1572.117 3.59 3.41 3.32 3.35 3.43 3.37 3.35 3.36 3.68 3.71
1591.407 3.49 3.59 3.52 3.42 3.35 3.27 3.3 3.41 3.46 3.53
1610.697 3.65 3.57 3.46 3.4 3.44 3.56 3.64 3.77 3.88 3.9
1629.986 3.98 4.09 4.16 4.23 4.32 4.47 4.7 4.84 5.07 5.3
1649.276 5.44 5.75 5.99 6.3 6.72 6.98 7.35 7.89 8.46 9.03
1668.566 9.67 10.44 11.28 12.2 13.3 14.4 15.62 17.01 18.47 20.06
1687.856 21.9 24.14 26.71 29.7 33.52 38.07 43.48 50.35 58.31 68.04
1707.146 79.69 93.35 108.95 126.3 144.93 163.71 181.35 195.65 204.87 207.79
1726.435 203.65 192.67 175.65 155.15 132.71 111.24 92.28 75.8 62.67 52.24
1745.725 44.1 37.73 32.68 28.54 25.1 22.22 19.82 17.59 15.7 14.23
1765.015 12.92 11.91 10.94 9.94 9.08 8.48 7.92 7.35 6.85 6.33
1784.305 5.99 5.69 5.3 4.95 4.63 4.51 4.38 4.08 3.84 3.6
1803.594 3.43 3.36 3.24 3.08 2.86 2.67 2.59 2.55 2.51 2.46
1822.884 2.43 2.33 2.15 1.97 1.94 1.96 1.95 1.89 1.84 1.87
1842.174 1.79 1.7 1.67 1.7 1.73 1.7 1.71 1.73 1.7 1.71
1861.464 1.63 1.53 1.48 1.35 1.42 1.54 1.45 1.41 1.4 1.39
1880.754 1.29 1.24 1.29 1.32 1.32 1.3 1.3 1.26 1.26 1.24
1900.043 1.28 1.36 1.22 1.153 1.24 1.2 1.0993 1.0851 1.12 1.0784
1919.333 1.0552 1.0903 1.1059 1.1718 1.1123 1.1164 1.23 1.1368 1.0525 1.1373
1938.623 1.124 1.1321 1.1578 1.0091 1.0033 1.0144 0.9846 1.0583 1.0394 1.008
1957.913 0.9873 0.9669 1.0221 0.9977 1.0042 1.0067 1.0079 1.1089 1.1461 1.1245
1977.202 1.1264 1.096 0.9612 0.9992 1.0563 1.0219 1.1021 1.182 1.1151 1.0843
1996.492 1.1235 1.0607 1.0891 1.1581 1.21 1.19 1.22 1.38 1.44 1.39
2015.782 1.43 1.47 1.47 1.4 1.3 1.41 1.49 1.56 1.67 1.71
2035.072 1.67 1.62 1.6 1.65 1.73 1.71 1.63 1.59 1.47 1.46
2054.362 1.52 1.51 1.49 1.48 1.54 1.55 1.47 1.46 1.49 1.45
2073.651 1.45 1.54 1.46 1.35 1.36 1.38 1.42 1.36 1.39 1.48
2092.941 1.45 1.45 1.45 1.42 1.36 1.39 1.45 1.4 1.44 1.48
2112.231 1.43 1.37 1.36 1.41 1.43 1.38 1.35 1.4 1.46 1.46
2131.521 1.45 1.4 1.39 1.46 1.5 1.59 1.65 1.51 1.43 1.6
2150.810 1.63 1.58 1.69 1.66 1.52 1.5 1.51 1.62 1.73 1.68
2170.100 1.69 1.69 1.68 1.72 1.66 1.63 1.75 1.8 1.73 1.66
2189.390 1.54 1.6 1.64 1.69 1.72 1.62 1.64 1.66 1.57 1.54
2208.680 1.61 1.66 1.57 1.59 1.68 1.64 1.64 1.67 1.56 1.52
2227.970 1.44 1.45 1.61 1.5 1.46 1.49 1.4 1.4 1.52 1.51
2247.259 1.41 1.38 1.43 1.46 1.46 1.44 1.44 1.41 1.49 1.63
2266.549 1.55 1.46 1.49 1.54 1.57 1.51 1.54 1.6 1.51 1.48
2285.839 1.54 1.49 1.45 1.58 1.66 1.59 1.48 1.44 1.44 1.49
2305.129 1.42 1.36 1.57 1.65 1.72 1.73 1.48 1.38 1.65 1.79
2324.418 1.71 1.63 1.56 1.57 1.55 1.62 1.68 1.64 1.63 1.69
2343.708 1.7 1.63 1.55 1.51 1.52 1.67 1.7 1.63 1.63 1.66
2362.998 1.64 1.68 1.72 1.64 1.63 1.76 1.69 1.53 1.59 1.71
2382.288 1.76 1.78 1.78 1.72 1.82 1.99 2.02 1.89 1.76 1.8
2401.578 1.88 1.9 1.81 1.82 1.88 1.83 1.8 1.7 1.59 1.61
2420.867 1.66 1.61 1.63 1.71 1.74 1.69 1.54 1.56 1.61 1.62
2440.157 1.58 1.47 1.43 1.46 1.52 1.54 1.43 1.43 1.45 1.43
2459.447 1.46 1.34 1.39 1.54 1.56 1.5 1.32 1.3 1.47 1.61
2478.737 1.56 1.46 1.49 1.5 1.45 1.42 1.5 1.57 1.48 1.45
2498.026 1.58 1.68 1.67 1.57 1.56 1.71 1.7 1.65 1.74 1.73
2517.316 1.75 1.85 1.89 2 2.07 2.19 2.24 2.15 2.13 2.07
2536.606 2.15 2.29 2.24 2.31 2.4 2.3 2.29 2.44 2.54 2.54
2555.896 2.53 2.5 2.43 2.61 2.78 2.8 2.91 2.95 3.03 3.04
2575.186 3.01 2.98 2.97 2.96 2.89 2.96 3.01 3.13 3.3 3.31
2594.475 3.17 3.16 3.29 3.37 3.53 3.55 3.45 3.53 3.75 3.85
2613.765 3.84 3.96 4.05 4.09 4.22 4.24 4.19 4.33 4.42 4.56
2633.055 4.75 4.82 4.97 5.02 5.25 5.4 5.37 5.42 5.55 5.71
2652.345 5.75 5.78 6 6.3 6.58 6.76 6.82 6.77 6.79 6.99
2671.634 7.05 7.22 7.5 7.68 7.71 7.58 7.47 7.41 7.33 7.33
2690.924 7.28 7.19 7.19 7.12 7.02 6.92 6.99 6.96 6.83 6.98
2710.214 6.95 6.91 7.08 7.16 7.21 7.4 7.51 7.64 7.93 8.13
2729.504 8.25 8.45 8.72 8.94 9.18 9.44 9.76 10.01 10.01 9.97
2748.794 10.02 10.13 10.27 10.3 10.36 10.35 10.4 10.55 10.54 10.82
2768.083 11.2 11.42 11.77 12.07 12.45 12.76 13.06 13.66 14.13 14.7
2787.373 15.64 16.53 17.19 17.85 18.69 19.53 20.41 21.39 22.41 23.27
2806.663 24.2 25.36 26.53 27.68 28.89 30.26 31.64 33.25 34.94 36.63
2825.953 38.67 40.95 43.66 46.7 49.94 53.75 58.11 63.35 69.81 77.57
2845.242 86.59 97.21 110.01 125.34 142.93 161.87 181.34 199.9 216.37 229.49
2864.532 238.29 242.97 243.99 241.71 237.47 233.09 228.84 225.42 223.35 221.35
2883.822 218.88 216.11 213.13 210.34 208.43 208.26 210.12 214.04 219.82 227.19
2903.112 236.57 248.01 261.13 276.13 293.46 313.39 336.11 361.98 390.99 423.19
2922.401 458.29 495.67 532.52 565.19 591.65 609.77 617.87 615.29 604.36 587.3
2941.691 564.48 537.58 509.76 482.43 457.23 435.77 418.27 405.68 398.09 394.68
2960.981 393.65 393.16 391.19 384.06 369.64 347.47 317.72 282.71 246 212.01
2980.271 182.49 157.41 136.66 119.6 105.82 94.23 84.46 76.24 69.25 63.29
2999.561 57.95 53.45 49.62 46.02 42.8 39.93 37.34 34.98 32.99 31.25
3018.850 29.54 28.09 26.89 25.59 24.47 23.45 22.36 21.43 20.47 19.59
3038.140 18.69 17.89 17.3 16.63 15.85 15.15 14.53 14.07 13.65 13.34
3057.430 12.83 12.27 12.01 11.6 11.2 10.86 10.64 10.43 10.19 10.15
3076.720 9.83 9.49 9.36 9.3 9.2 8.94 8.8 8.66 8.44 8.32
3096.009 8.16 7.75 7.48 7.34 7.23 7.17 7.02 6.75 6.5 6.58
3115.299 6.49 6.11 5.96 6.04 5.91 5.79 5.8 5.63 5.39 5.48
3134.589 5.57 5.41 5.32 5.26 5.12 5.16 5.04 4.77 4.79 4.62
3153.879 4.61 4.64 4.65 4.79 4.66 4.49 4.36 4.33 4.27 4.22
3173.169 4.31 4.4 4.3 3.83 3.56 3.78 3.84 3.9 3.83 3.5
3192.458 3.48 3.39 3.16 3.12 3.24 3.12 3.08 2.79 2.52 2.71
3211.748 2.93 2.82 2.46 2.33 2.31 2.23 2.09 2.02 2.01 1.98
3231.038 1.79 1.85 1.93 1.65 1.63 1.72 1.61 1.52 1.54 1.55
3250.328 1.37 1.34 1.48 1.42 1.46 1.49 1.19 1.0417 1.1464 1.1666
3269.617 1.0994 0.9661 0.8616 1.0031 1.23 1.1702 0.8961 1.0686 1.28 1.058
3288.907 1.1336 1.27 1.28 1.19 1.1679 1.26 1.0565 0.8458 0.8527 0.8323
3308.197 0.7409 0.8584 1.0935 1.1101 0.9601 0.7964 0.739 0.9793 1.1588 1.1346
3327.487 1.1026 1.1057 0.9971 1.0423 1.31 1.1025 1.0413 1.1449 0.9956 0.8974
3346.777 1.0447 0.9669 0.9471 1.0691 1.1143 1.36 1.46 1.45 1.32 1.22
3366.066 1.24 1.27 1.35 1.49 1.44 1.26 1.26 1.52 1.64 1.63
3385.356 1.57 1.45 1.55 1.81 1.8 1.61 1.63 1.62 1.83 2.03
3404.646 2.25 2.33 2.14 2.35 2.74 3.01 3.12 3.33 3.39 3.4
3423.936 3.52 3.83 3.85 3.85 3.94 3.69 3.45 3.31 3.21 2.86
3443.225 2.8 2.82 2.63 2.2 1.86 1.87 1.75 1.52 1.36 1.2
3462.515 0.9384 0.8425 0.9083 1.0391 1.1084 0.8267 0.483 0.4028 0.6402 0.7894
3481.805 0.465 0.3553 0.4927 0.27743 0.2033 0.3307 0.3655 0.3056 0.28838 0.3383
3501.095 0.21774 0.0911 0.1083 0.1326 0.08 0.051 0.084 0.1773 0.21597 0.059
3520.385 0 0.1629 0.24091 0.22321 0.20778 0.21313 0.389 0.4609 0.1491 0.074
3539.674 0.24371 0.2886 0.26683 0.3886 0.6449 0.5403 0.3046 0.23272 0.27014 0.2927
3558.964 0.26079 0.21717 0.069 0.193587 0.5295 0.3487 0.1423 0.3707 0.4859 0.3609
3578.254 0.4773 0.4675 0.27124 0.4342 0.5846 0.5947 0.5232 0.3479 0.4359 0.4788
3597.544 0.6171 0.7673 0.6167 0.4879 0.4606 0.5767 0.5965 0.6932 0.7759 0.7721
3616.833 0.5944 0.5841 0.7626 0.9278 0.9567 0.8929 0.7529 0.7319 0.9239 1.0335
3636.123 0.8972 0.9952 1.1565 1.1245 1.24 1.1089 0.8884 1.0032 1.0435 1.0294
3655.413 1.0384 0.8723 0.8766 0.919 0.9114 0.8042 0.9602 1.1233 1.1412 1.1471
3674.703 1.102 0.8951 0.8765 0.9836 0.7956 0.832 0.9016 1.0102 1.21 1.36
3693.993 1.36 1.2 1.0018 0.7525 0.897 1.0279 0.8126 1.0062 1.0368 0.8878
3713.282 1.0314 0.9164 0.7373 0.8518 0.9099 0.9904 1.0092 0.9196 0.8557 0.976
3732.572 1.176 1.2 1.182 1.36 1.33 1.0427 0.8788 0.6943 0.8874 1.1027
3751.862 0.851 0.9479 1.1617 0.927 0.8145 1.0085 1.0585 1.0924 1.42 1.71
3771.152 1.63 1.26 1.36 1.34 1.32 1.31 1.0866 1.038 0.9519 0.9699
3790.441 0.8956 0.9702 1.0992 1.0981 0.997 0.8676 1.1033 1.1138 1.0646 1.1833
3809.731 1.23 1.2 1.1835 1.0887 0.9728 1.0485 1.1122 1.1734 1.35 1.23
3829.021 1.27 1.28 1.178 1.22 1.0578 1.1282 1.31 1.48 1.21 1.0313
3848.311 1.33 1.39 1.2 1.4 1.4 1.0848 1.23 1.3 0.9467 1.0294
3867.601 1.23 1.1235 1.22 1.31 1.37 1.43 1.52 1.31 1.0458 1.19
3886.890 1.42 1.38 1.0801 0.7984 1.0158 1.4 1.52 1.44 1.1536 1.071
3906.180 1.22 1.33 1.0758 1.046 1.3 1.33 1.1495 1.0822 1.27 1.29
3925.470 0.9681 0.9406 1.34 1.2 0.939 1.121 1.31 1.39 1.54 1.62
3944.760 1.48 1.58 1.82 1.8 1.73 1.77 1.54 1.59 1.87 1.81
3964.049 1.7 1.61 1.75 1.76 1.73 1.67 1.73 1.76 1.75 2.04
3983.339 2.07 2.11 2.3 1.99 1.77 1.95 1.97 1.94 2.03 2.16
##END=
