##TITLE=2,4-Dimethylphenylacetonitrile
##JCAMP-DX=4.24
##DATA TYPE=INFRARED SPECTRUM
##ORIGIN=EPA-IR VAPOR PHASE LIBRARY
##OWNER=SRD/NIST
Collection (C) 2018 copyright by the U.S. Secretary of Commerce
on behalf of the United States of America. All rights reserved.
##CAS REGISTRY NO=68429-53-8
##MOLFORM=C 10 H 11 N
##$NIST SOURCE=MSDC-IR
##STATE=gas
##XUNITS=1/CM
##YUNITS=ABSORBANCE
##XFACTOR=1.
##YFACTOR=0.001
##DELTAX=1.92898
##FIRSTX=549.8
##LASTX=4000.7
##FIRSTY=1.09185
##MAXX=4000.7
##MINX=549.759
##MAXY=0.0255219
##MINY=0
##NPOINTS=1790
##XYDATA=(X++(Y..Y))
549.759 1.09185 0.86985 0.68635 0.77635 0.92825 0.94995 1.17185 1.39185 1.15185 1.30185
569.049 1.57185 1.53185 1.63185 1.69185 1.53185 1.58185 1.53185 1.32185 1.27185 1.15185
588.339 1.07185 1.02185 1.12185 1.15185 0.99345 0.69375 0.49525 0.57725 0.60245 0.49195
607.628 0.20485 0.05966 0.15255 0.29205 0.36915 0.45275 0.35035 0.27085 0.46725 0.49325
626.918 0.35935 0.24695 0.15685 0.28905 0.47035 0.40845 0.28475 0.18065 0.33555 0.41365
646.208 0.38785 0.52375 0.37015 0.37035 0.55075 0.53835 0.45655 0.44765 0.57265 0.66375
665.498 0.56375 0.68995 0.77065 0.55945 0.57915 0.60375 0.69985 0.83325 0.85905 0.88975
684.787 0.98345 1.04185 1.06185 1.27185 1.37185 1.44185 1.65185 1.83185 1.94185 1.78185
704.077 1.63185 1.68185 1.49185 1.36185 1.33185 1.29185 1.36185 1.28185 1.29185 1.45185
723.367 1.38185 1.21185 1.23185 1.13185 0.81545 0.68015 0.79985 0.75905 0.70545 0.81465
742.657 0.89125 0.91785 0.93905 1.02185 1.16185 1.48185 1.70185 1.82185 2.04185 2.40185
761.947 2.79185 3.16185 3.56185 3.83185 4.14185 4.51185 4.67185 4.63185 4.49185 4.33185
781.236 4.20185 4.22185 4.36185 4.61185 4.93185 5.27185 5.85185 6.63185 7.49185 8.57185
800.526 9.75185 11.0218 12.2818 12.9518 13.1118 13.3019 13.5818 13.5118 12.8718 11.5018
819.816 9.86185 8.55185 7.38185 6.25185 5.16185 4.14185 3.40185 2.70185 2.19185 1.91185
839.106 1.62185 1.40185 1.38185 1.42185 1.38185 1.30185 1.32185 1.22185 1.22185 1.45185
858.395 1.49185 1.79185 2.12185 2.36185 2.70185 2.95185 3.19185 3.36185 3.20185 2.81185
877.685 2.57185 2.34185 2.11185 2.18185 2.13185 1.74185 1.52185 1.42185 1.42185 1.26185
896.975 0.87285 0.94735 1.09185 1.17185 1.26185 1.16185 1.22185 1.20185 1.27185 1.31185
916.265 1.28185 1.38185 1.42185 1.48185 1.62185 1.78185 1.88185 1.78185 1.90185 1.98185
935.555 2.04185 2.17185 2.20185 2.49185 2.52185 2.49185 2.73185 2.71185 2.64185 2.34185
954.844 1.99185 1.95185 1.81185 1.62185 1.27185 1.01185 1.12185 1.12185 1.09185 1.10185
974.134 0.89765 0.82805 0.99095 0.88905 0.80735 0.99265 1.03185 0.95935 1.02185 1.12185
993.424 1.24185 1.23185 1.19185 1.42185 1.40185 1.14185 1.35185 1.73185 1.65185 1.45185
1012.714 1.57185 1.75185 1.94185 2.08185 1.71185 1.44185 1.45185 1.43185 1.35185 1.47185
1032.003 1.58185 1.70185 1.93185 1.96185 2.03185 1.95185 1.77185 1.90185 1.89185 1.81185
1051.293 1.89185 2.21185 2.18185 1.59185 1.41185 1.41185 1.27185 1.31185 1.16185 0.83395
1070.583 0.94985 1.02185 1.26185 1.37185 0.79195 0.94255 1.24185 0.70125 0.56655 0.52185
1089.873 0.37915 0.68255 1.02185 1.03185 0.95175 1.11185 1.48185 1.76185 1.82185 1.83185
1109.163 1.99185 1.81185 1.72185 1.51185 1.39185 1.79185 1.76185 1.52185 1.00185 0.93325
1128.452 1.20185 1.26185 1.17185 0.88605 0.84645 1.05185 1.25185 1.19185 1.15185 1.10185
1147.742 1.03185 1.14185 1.42185 1.63185 1.52185 1.39185 1.52185 1.57185 1.56185 1.53185
1167.032 1.51185 1.51185 1.30185 1.42185 1.33185 0.98375 1.23185 1.36185 1.35185 1.62185
1186.322 1.87185 2.19185 2.44185 2.57185 2.82185 2.93185 2.70185 2.40185 2.44185 2.74185
1205.611 2.85185 2.73185 2.38185 2.10185 2.06185 1.81185 1.49185 1.48185 1.61185 1.44185
1224.901 1.15185 1.36185 1.78185 1.76185 1.73185 1.81185 1.69185 1.74185 1.77185 1.70185
1244.191 1.90185 1.98185 2.02185 1.95185 1.78185 1.62185 1.74185 1.93185 1.71185 1.70185
1263.481 1.67185 1.69185 1.70185 1.58185 1.50185 1.51185 1.61185 1.57185 1.58185 1.61185
1282.771 1.60185 1.59185 1.57185 1.58185 1.65185 1.69185 1.63185 1.58185 1.61185 1.60185
1302.060 1.55185 1.56185 1.55185 1.51185 1.58185 1.63185 1.60185 1.57185 1.57185 1.51185
1321.350 1.52185 1.50185 1.37185 1.34185 1.33185 1.32185 1.33185 1.35185 1.40185 1.40185
1340.640 1.43185 1.42185 1.32185 1.36185 1.43185 1.44185 1.45185 1.42185 1.41185 1.53185
1359.930 1.59185 1.58185 1.64185 1.73185 1.83185 1.91185 2.05185 2.30185 2.50185 2.69185
1379.219 2.96185 3.26185 3.50185 3.64185 3.80185 3.92185 3.89185 3.82185 3.80185 3.77185
1398.509 3.71185 3.72185 3.84185 3.95185 4.11185 4.43185 4.82185 5.22185 5.69185 6.34185
1417.799 7.17185 8.08185 9.01185 9.77185 10.3518 10.8418 11.2119 11.3618 11.2718 11.0118
1437.089 10.5418 9.93185 9.38185 8.92185 8.62185 8.40185 8.33185 8.28185 8.07185 7.87185
1456.378 7.76185 7.65185 7.46185 7.24185 7.06185 6.81185 6.60185 6.38185 6.16185 6.10185
1475.668 6.09185 6.13185 6.23185 6.49185 6.90185 7.37185 8.09185 9.00185 10.0118 11.2618
1494.958 12.6319 14.0218 15.2918 16.1919 16.7619 16.8919 16.5519 15.9118 14.9019 13.6118
1514.248 12.0918 10.4218 8.88185 7.56185 6.54185 5.75185 5.22185 4.84185 4.50185 4.28185
1533.538 4.05185 3.85185 3.77185 3.70185 3.59185 3.56185 3.61185 3.66185 3.62185 3.63185
1552.827 3.65185 3.56185 3.50185 3.45185 3.43185 3.41185 3.36185 3.33185 3.28185 3.18185
1572.117 3.03185 2.96185 2.92185 2.84185 2.74185 2.67185 2.56185 2.49185 2.49185 2.55185
1591.407 2.56185 2.61185 2.77185 2.94185 3.18185 3.50185 3.90185 4.31185 4.80185 5.31185
1610.697 5.79185 6.20185 6.35185 6.34185 6.14185 5.84185 5.42185 4.73185 4.12185 3.51185
1629.986 2.76185 2.24185 1.94185 1.69185 1.48185 1.32185 1.18185 1.05185 0.98435 0.92005
1649.276 0.81245 0.75105 0.79815 0.74985 0.74675 0.80015 0.78375 0.74805 0.76755 0.84905
1668.566 0.80805 0.76185 0.81815 0.84045 0.80215 0.82205 0.85505 0.84865 0.81285 0.79055
1687.856 0.76185 0.73105 0.72195 0.72615 0.71555 0.69635 0.66135 0.60435 0.59905 0.59225
1707.146 0.61885 0.65075 0.61485 0.63185 0.71055 0.79105 0.77815 0.76955 0.82515 0.88245
1726.435 0.98585 1.04185 1.08185 1.12185 1.18185 1.28185 1.30185 1.34185 1.38185 1.39185
1745.725 1.39185 1.38185 1.34185 1.28185 1.24185 1.13185 1.05185 1.08185 1.03185 0.96885
1765.015 0.89115 0.78055 0.79315 0.73765 0.65825 0.67585 0.63545 0.54365 0.50905 0.52515
1784.305 0.57645 0.56875 0.53135 0.53305 0.51095 0.54825 0.56865 0.52105 0.55445 0.60705
1803.594 0.59705 0.60405 0.63345 0.64545 0.65475 0.67375 0.73205 0.80775 0.80035 0.81555
1822.884 0.87225 0.83835 0.75605 0.71695 0.71425 0.76705 0.79715 0.69845 0.66975 0.69525
1842.174 0.64145 0.65525 0.65895 0.59055 0.52635 0.53965 0.62005 0.66115 0.69975 0.69645
1861.464 0.70445 0.75525 0.77545 0.81615 0.86705 0.91355 0.94705 0.98075 0.97735 0.99745
1880.754 1.05185 1.06185 1.08185 1.14185 1.21185 1.19185 1.16185 1.15185 1.11185 1.09185
1900.043 1.05185 1.06185 1.04185 0.96685 0.95705 0.94055 0.88455 0.87345 0.84625 0.79935
1919.333 0.78785 0.71595 0.63695 0.61415 0.61255 0.57865 0.57045 0.52115 0.46225 0.47285
1938.623 0.49415 0.49535 0.46165 0.43185 0.41345 0.42955 0.41045 0.41205 0.39225 0.38125
1957.913 0.40725 0.42575 0.40875 0.36075 0.37165 0.41345 0.42225 0.36305 0.32425 0.33455
1977.202 0.31695 0.28545 0.29365 0.34645 0.32895 0.29375 0.32715 0.34585 0.34085 0.37165
1996.492 0.36115 0.28515 0.29905 0.35335 0.36475 0.35235 0.29845 0.24445 0.24795 0.25595
2015.782 0.31255 0.32625 0.26505 0.23385 0.28075 0.29515 0.24935 0.29735 0.30095 0.22365
2035.072 0.20515 0.19705 0.16475 0.19645 0.28415 0.32715 0.31125 0.29085 0.28075 0.29995
2054.362 0.28235 0.28465 0.29685 0.32245 0.34855 0.35005 0.34285 0.30395 0.30135 0.25345
2073.651 0.24365 0.33945 0.28725 0.19745 0.25455 0.32955 0.40175 0.42525 0.36855 0.33805
2092.941 0.38885 0.44305 0.43585 0.41225 0.38745 0.41065 0.48115 0.47385 0.42275 0.41495
2112.231 0.43145 0.39095 0.32205 0.30405 0.33415 0.34865 0.33305 0.32895 0.28405 0.28635
2131.521 0.31975 0.31275 0.34225 0.32385 0.33045 0.39275 0.38845 0.31785 0.33855 0.35235
2150.810 0.26715 0.26765 0.25515 0.23305 0.29125 0.26565 0.23065 0.27675 0.23645 0.19845
2170.100 0.24235 0.27325 0.28095 0.28575 0.24935 0.24825 0.28395 0.30265 0.29665 0.23785
2189.390 0.23015 0.26535 0.23625 0.17925 0.18645 0.26605 0.29275 0.24395 0.26225 0.28305
2208.680 0.29455 0.33845 0.36585 0.42545 0.39895 0.38815 0.38275 0.37755 0.43555 0.43505
2227.970 0.44445 0.50635 0.51315 0.54065 0.66075 0.77805 0.90285 1.05185 1.20185 1.33185
2247.259 1.51185 1.71185 1.73185 1.69185 1.72185 1.71185 1.64185 1.51185 1.39185 1.24185
2266.549 1.02185 0.87445 0.72195 0.65385 0.59965 0.55965 0.51325 0.47015 0.53375 0.52135
2285.839 0.46775 0.48335 0.47575 0.46015 0.46915 0.41175 0.35365 0.36945 0.34555 0.31395
2305.129 0.37185 0.47555 0.51815 0.50255 0.48805 0.43725 0.46855 0.52345 0.50155 0.50545
2324.418 0.50245 0.51555 0.55595 0.49775 0.49635 0.51395 0.48065 0.47805 0.46775 0.51065
2343.708 0.50795 0.48015 0.46635 0.44715 0.44765 0.42215 0.36715 0.35265 0.40545 0.40765
2362.998 0.43585 0.48125 0.50385 0.47525 0.47335 0.52135 0.51565 0.46465 0.42095 0.44865
2382.288 0.45545 0.44035 0.44045 0.45605 0.54435 0.54065 0.43935 0.40505 0.44235 0.50445
2401.578 0.48975 0.49535 0.52055 0.51155 0.55615 0.48545 0.35665 0.38765 0.44955 0.47665
2420.867 0.49155 0.52685 0.48555 0.39375 0.41725 0.48225 0.45355 0.41555 0.42385 0.46475
2440.157 0.52695 0.55665 0.50405 0.42415 0.41765 0.39275 0.37405 0.37805 0.35595 0.36175
2459.447 0.39965 0.35415 0.36925 0.43985 0.40195 0.40725 0.44455 0.43755 0.39985 0.40505
2478.737 0.40535 0.38905 0.39185 0.41105 0.39645 0.39195 0.43725 0.45695 0.46245 0.43795
2498.026 0.41945 0.48415 0.48135 0.40865 0.36865 0.33135 0.35065 0.36275 0.35465 0.35905
2517.316 0.37125 0.35185 0.35285 0.42175 0.43225 0.41955 0.47465 0.49785 0.44655 0.42945
2536.606 0.44555 0.45225 0.46355 0.47695 0.44755 0.38905 0.32955 0.35095 0.47215 0.44065
2555.896 0.41655 0.47405 0.45195 0.44565 0.51535 0.51585 0.48295 0.52125 0.50985 0.45725
2575.186 0.39585 0.51905 0.55565 0.46145 0.47235 0.43445 0.46905 0.53855 0.48555 0.42395
2594.475 0.40785 0.44445 0.50315 0.44095 0.40405 0.38575 0.42175 0.44275 0.47095 0.51075
2613.765 0.45165 0.43475 0.36925 0.38195 0.43155 0.41705 0.39175 0.38395 0.48265 0.57275
2633.055 0.49825 0.42765 0.40605 0.38995 0.39645 0.41775 0.43205 0.42005 0.38915 0.39665
2652.345 0.47865 0.42695 0.31675 0.35435 0.36855 0.33925 0.40525 0.40605 0.39475 0.43535
2671.634 0.37215 0.36805 0.48685 0.49225 0.47255 0.48835 0.43655 0.44935 0.44705 0.41525
2690.924 0.42935 0.43985 0.40435 0.39455 0.44455 0.53175 0.54275 0.55315 0.64255 0.64085
2710.214 0.65005 0.62505 0.71555 0.73935 0.63405 0.65355 0.68185 0.65965 0.60785 0.70525
2729.504 0.89055 1.07185 1.12185 1.12185 1.18185 1.25185 1.40185 1.47185 1.51185 1.54185
2748.794 1.42185 1.44185 1.37185 1.23185 1.14185 1.09185 1.07185 0.88885 0.85155 0.86425
2768.083 0.77885 0.70865 0.77015 0.83535 0.85785 0.78245 0.76085 0.85165 0.81235 0.81465
2787.373 0.82055 0.84015 0.85425 0.87075 0.92395 0.91405 0.96915 1.04185 1.06185 1.06185
2806.663 1.15185 1.28185 1.31185 1.28185 1.39185 1.42185 1.46185 1.61185 1.77185 1.90185
2825.953 1.95185 2.01185 2.06185 2.22185 2.34185 2.55185 2.80185 2.91185 3.07185 3.18185
2845.242 3.26185 3.59185 3.91185 4.14185 4.53185 4.87185 5.27185 5.83185 6.27185 6.78185
2864.532 7.40185 8.13185 8.85185 9.44185 10.0118 10.4518 10.6519 10.8219 10.9418 10.7918
2883.822 10.6419 10.5818 10.2918 10.0519 10.0318 9.92185 9.75185 9.76185 9.92185 9.96185
2903.112 10.0818 10.3518 10.8219 11.2518 11.8119 12.5918 13.5118 14.6018 15.8618 17.2519
2922.401 18.8119 20.4619 21.9918 23.4219 24.5519 25.2819 25.5219 25.3219 24.6119 23.5119
2941.691 22.0719 20.4219 18.8019 17.1019 15.5918 14.4819 13.5418 12.7918 12.1218 11.4819
2960.981 10.9619 10.6718 10.4019 10.0519 9.94185 9.89185 9.68185 9.74185 9.89185 10.0218
2980.271 10.2718 10.3418 10.4019 10.5818 10.7518 10.7918 10.9218 11.1519 11.2618 11.4318
2999.561 11.8219 12.2418 12.9118 13.8919 14.7918 15.6618 16.4219 17.0919 17.7119 18.1519
3018.850 18.4119 18.3019 17.8919 17.2319 16.4219 15.5818 14.5418 13.6419 12.9218 12.3019
3038.140 11.8919 11.5818 11.4719 11.4418 11.4518 11.3819 11.2219 11.0018 10.6419 10.2818
3057.430 9.86185 9.26185 8.75185 8.34185 7.64185 6.92185 6.41185 5.97185 5.61185 5.32185
3076.720 4.96185 4.53185 4.25185 4.04185 3.76185 3.57185 3.40185 3.27185 3.12185 2.81185
3096.009 2.58185 2.52185 2.41185 2.31185 2.39185 2.44185 2.37185 2.24185 2.13185 2.13185
3115.299 2.12185 2.12185 2.17185 2.07185 1.95185 1.83185 1.76185 1.70185 1.69185 1.67185
3134.589 1.50185 1.33185 1.13185 1.13185 1.15185 1.04185 1.00185 0.99285 0.98555 0.99255
3153.879 0.92225 0.89175 0.97975 0.95905 0.79485 0.67355 0.65865 0.68025 0.72825 0.77875
3173.169 0.74705 0.77385 0.83085 0.76425 0.67915 0.69545 0.71125 0.69325 0.69975 0.65415
3192.458 0.58985 0.66905 0.65895 0.65625 0.61925 0.53805 0.63625 0.56745 0.51775 0.53125
3211.748 0.41915 0.41275 0.39055 0.48415 0.55815 0.49645 0.58515 0.58415 0.61185 0.56235
3231.038 0.45245 0.44355 0.29875 0.25635 0.37435 0.41915 0.34145 0.27155 0.40225 0.54405
3250.328 0.46345 0.28415 0.29825 0.28555 0.24655 0.34465 0.31375 0.14365 0.18465 0.33395
3269.617 0.38305 0.35435 0.12995 0.13185 0.35415 0.43825 0.46755 0.32315 0.24015 0.34755
3288.907 0.37925 0.34365 0.32645 0.38115 0.38515 0.39535 0.33705 0.31645 0.41065 0.42375
3308.197 0.43105 0.32675 0.32125 0.40805 0.28665 0.37905 0.52965 0.37395 0.22275 0.27185
3327.487 0.24885 0.19895 0.34195 0.25615 0.33285 0.35075 0.34245 0.46565 0.33385 0.41635
3346.777 0.36285 0.38125 0.44775 0.35295 0.47295 0.48835 0.35305 0.26925 0.22295 0.22385
3366.066 0.14485 0.20695 0.34845 0.31505 0.34215 0.33925 0.26005 0.25625 0.32585 0.28815
3385.356 0.27415 0.43705 0.32585 0.39345 0.59605 0.40155 0.35895 0.47295 0.35545 0.22285
3404.646 0.33585 0.39465 0.27945 0.20375 0.19175 0.24875 0.33715 0.32405 0.31855 0.27925
3423.936 0.21775 0.20645 0.22585 0.34275 0.48815 0.33185 0.19255 0.36205 0.30865 0.17785
3443.225 0.16515 0.23075 0.32145 0.34285 0.35245 0.35865 0.29725 0.33125 0.36505 0.33385
3462.515 0.41645 0.45305 0.42645 0.25415 0.12115 0.15855 0.28015 0.21925 0.18835 0.34455
3481.805 0.45355 0.46985 0.41645 0.43315 0.41135 0.33555 0.43505 0.48855 0.33565 0.19405
3501.095 0.29705 0.39105 0.20075 0.15015 0.26795 0.27105 0.28985 0.31805 0.32795 0.36475
3520.385 0.35135 0.39885 0.31435 0.46755 0.52355 0.29905 0.38965 0.41355 0.28945 0.31195
3539.674 0.38635 0.40875 0.45885 0.42005 0.35295 0.30105 0.28385 0.22195 0.24605 0.38585
3558.964 0.42385 0.51635 0.46675 0.33785 0.25115 0.25145 0.42495 0.53665 0.64445 0.59575
3578.254 0.52125 0.45175 0.35335 0.30555 0.34055 0.42315 0.37225 0.33615 0.39725 0.41215
3597.544 0.34905 0.30315 0.29425 0.35695 0.26415 0.27175 0.37335 0.30315 0.23735 0.23115
3616.833 0.21315 0.31085 0.52385 0.54305 0.56315 0.48385 0.25635 0.33155 0.52695 0.53825
3636.123 0.50205 0.47995 0.37045 0.34265 0.44145 0.49515 0.43825 0.29865 0.30635 0.41665
3655.413 0.44535 0.29015 0.23495 0.30815 0.29375 0.35405 0.36915 0.30615 0.22375 0.18335
3674.703 0.25785 0.43745 0.41615 0.24365 0.24795 0.35835 0.36655 0.33295 0.44645 0.46245
3693.993 0.29515 0.19855 0.19955 0.25625 0.31705 0.10295 0 0.11175 0.26685 0.39735
3713.282 0.40305 0.38295 0.32215 0.33495 0.39935 0.42945 0.46435 0.46485 0.45535 0.38865
3732.572 0.39885 0.55515 0.50235 0.48745 0.50235 0.49385 0.53015 0.60005 0.59265 0.47885
3751.862 0.57225 0.55875 0.45365 0.37445 0.38635 0.40635 0.30375 0.43935 0.57535 0.42125
3771.152 0.39505 0.36145 0.35165 0.51415 0.49075 0.38225 0.34435 0.43215 0.59265 0.69175
3790.441 0.64955 0.54815 0.47335 0.35285 0.47665 0.57255 0.35575 0.16915 0.18655 0.38155
3809.731 0.44285 0.32995 0.32965 0.43675 0.34925 0.31275 0.32015 0.23225 0.44205 0.57475
3829.021 0.47335 0.52365 0.64575 0.70315 0.65445 0.44925 0.42125 0.54125 0.64885 0.40115
3848.311 0.22955 0.41655 0.38935 0.46815 0.36335 0.28685 0.52205 0.59855 0.47385 0.48965
3867.601 0.51305 0.45675 0.50405 0.59465 0.55375 0.46135 0.39685 0.47695 0.49865 0.34875
3886.890 0.38655 0.37515 0.34965 0.41745 0.50375 0.42055 0.31865 0.39305 0.44475 0.41105
3906.180 0.38435 0.44495 0.58835 0.59055 0.43885 0.45575 0.49215 0.42785 0.42025 0.39085
3925.470 0.47475 0.49375 0.50165 0.70575 0.69765 0.53405 0.46595 0.55915 0.72155 0.65335
3944.760 0.62185 0.67125 0.57465 0.59165 0.60275 0.45095 0.48345 0.70765 0.74925 0.60705
3964.049 0.42895 0.45005 0.52685 0.58175 0.49885 0.52475 0.57705 0.50535 0.55535 0.49055
3983.339 0.45665 0.64495 0.57465 0.42415 0.49635 0.43695 0.50325 0.58145 0.56975 0.54995
##END=
