##TITLE=3-Methylcyclohexylamine,(c,t)
##JCAMP-DX=4.24
##DATA TYPE=INFRARED SPECTRUM
##ORIGIN=EPA-IR VAPOR PHASE LIBRARY
##OWNER=SRD/NIST
Collection (C) 2018 copyright by the U.S. Secretary of Commerce
on behalf of the United States of America. All rights reserved.
##CAS REGISTRY NO=6850-35-7
##MOLFORM=C 7 H 15 N
##$NIST SOURCE=MSDC-IR
##STATE=gas
##XUNITS=1/CM
##YUNITS=ABSORBANCE
##XFACTOR=1.
##YFACTOR=0.001
##DELTAX=1.92934
##FIRSTX=549.9
##LASTX=3999.5
##FIRSTY=7.73
##MAXX=3999.53
##MINX=549.863
##MAXY=0.47133
##MINY=0
##NPOINTS=1789
##XYDATA=(X++(Y..Y))
549.863 7.73 7.73 7.78 7.84 7.75 7.52 7.32 7.24 7.1 6.92
569.156 6.91 6.92 6.95 7.05 7.12 7.11 7.14 7.3 7.4 7.39
588.450 7.47 7.58 7.58 7.61 7.64 7.75 7.9 7.9 7.95 8.06
607.743 8.14 8.23 8.29 8.4 8.57 8.68 8.81 8.99 9.13 9.27
627.037 9.42 9.6 9.78 9.97 10.15 10.32 10.48 10.66 10.86 11.05
646.330 11.22 11.37 11.5 11.66 11.82 11.9 11.96 12.08 12.27 12.42
665.624 12.52 12.62 12.71 12.8 12.95 13.08 13.19 13.35 13.56 13.69
684.917 13.82 13.97 14.18 14.38 14.54 14.76 15 15.22 15.46 15.7
704.210 15.99 16.38 16.77 17.16 17.58 18.09 18.72 19.35 20.04 20.83
723.504 21.68 22.6 23.66 24.8 26.09 27.49 28.88 30.44 32.15 33.95
742.797 35.91 38.01 40.23 42.54 44.94 47.42 49.92 52.42 54.87 57.27
762.091 59.62 61.94 64.35 66.71 68.7 70.37 72.41 74.95 77.47 79.77
781.384 81.8 83.61 85.21 86.39 86.93 86.74 85.58 83.03 79.69 76.05
800.678 71.4 65.93 60.45 54.96 49.27 43.62 38.36 33.75 30.01 27.11
819.971 24.97 23.36 22.11 21.12 20.29 19.6 19.03 18.58 18.07 17.45
839.264 16.88 16.44 16.06 15.6 15.03 14.48 14.08 13.79 13.56 13.52
858.558 13.61 13.79 14.08 14.41 14.73 15.01 15.25 15.49 15.72 16
877.851 16.3 16.45 16.38 16.26 16.05 15.71 15.34 14.96 14.6 14.29
897.145 14.04 13.81 13.55 13.26 12.95 12.56 12.13 11.77 11.41 11.03
916.438 10.7 10.46 10.31 10.29 10.36 10.48 10.6 10.65 10.68 10.72
935.732 10.85 10.84 10.5 10.24 10.19 10.09 9.9 9.7 9.46 9.3
955.025 9.24 9.23 9.26 9.31 9.3 9.2 9.06 8.89 8.74 8.64
974.318 8.48 8.25 7.97 7.62 7.33 7.07 6.81 6.63 6.54 6.47
993.612 6.45 6.47 6.51 6.61 6.75 6.92 7.11 7.31 7.49 7.65
1012.905 7.85 8.06 8.25 8.47 8.76 9.06 9.38 9.76 10.2 10.71
1032.199 11.32 12 12.76 13.58 14.43 15.33 16.29 17.3 18.23 18.92
1051.492 19.39 19.68 19.71 19.46 18.97 18.28 17.43 16.6 15.71 14.57
1070.786 13.2 11.76 10.58 9.68 9.03 8.79 8.9 9.18 9.55 10.03
1090.079 10.65 11.38 12.21 13.14 14.12 15.07 15.95 16.79 17.52 18.01
1109.372 18.23 18.15 17.74 17.07 16.26 15.33 14.39 13.45 12.56 11.7
1128.666 10.89 10.11 9.35 8.71 8.21 7.81 7.56 7.38 7.19 7.08
1147.959 7.05 7 6.96 6.87 6.71 6.56 6.4 6.24 6.08 5.89
1167.253 5.71 5.54 5.36 5.18 5.05 4.96 4.89 4.85 4.79 4.77
1186.546 4.82 4.77 4.7 4.69 4.67 4.64 4.64 4.66 4.64 4.64
1205.840 4.63 4.63 4.67 4.74 4.76 4.85 5 5.08 5.2 5.3
1225.133 5.41 5.54 5.68 5.82 5.98 6.21 6.41 6.66 6.98 7.29
1244.426 7.65 8.08 8.55 9.01 9.47 9.86 10.13 10.34 10.46 10.52
1263.720 10.51 10.46 10.38 10.14 9.72 9.21 8.68 8.14 7.57 7.13
1283.013 6.77 6.43 6.14 5.93 5.81 5.76 5.77 5.82 5.96 6.14
1302.307 6.34 6.56 6.78 6.92 7.02 7.17 7.37 7.55 7.78 8.09
1321.600 8.43 8.83 9.28 9.83 10.53 11.4 12.39 13.53 14.83 16.22
1340.894 17.68 19.11 20.55 21.98 23.35 24.69 25.94 26.94 27.67 28.34
1360.187 29.08 29.82 30.5 31.07 31.44 31.53 31.26 30.77 30.31 29.75
1379.480 28.54 26.87 25.24 23.62 21.86 19.99 18.03 16.04 14.19 12.6
1398.774 11.29 10.19 9.3 8.58 8.02 7.61 7.36 7.23 7.22 7.32
1418.067 7.56 8 8.61 9.44 10.56 11.99 13.8 15.92 18.43 21.17
1437.361 24.17 27.08 29.84 32.62 35.56 38.71 42.56 46.62 47.86 46.49
1456.654 45.27 44.42 43.94 43.65 42.25 38.96 34.9 31.19 27.91 24.96
1475.948 22.36 19.93 17.72 15.65 13.79 12.17 10.81 9.66 8.71 7.98
1495.241 7.44 6.99 6.64 6.35 6.11 5.88 5.67 5.52 5.43 5.35
1514.534 5.25 5.14 5.08 5.01 4.97 4.95 4.91 4.88 4.86 4.84
1533.828 4.83 4.85 4.87 4.86 4.87 4.9 4.95 5.02 5.06 5.15
1553.121 5.25 5.34 5.42 5.51 5.71 5.92 6.07 6.25 6.47 6.71
1572.415 6.98 7.28 7.63 8.03 8.45 8.97 9.57 10.28 11.08 11.98
1591.708 13.05 14.26 15.58 17.09 18.77 20.57 22.45 24.38 26.26 28.03
1611.002 29.55 30.71 31.51 32 32.14 31.81 30.97 29.69 28.14 26.33
1630.295 24.29 22.08 19.81 17.56 15.52 13.72 12.1 10.74 9.58 8.6
1649.588 7.82 7.14 6.55 6.14 5.79 5.44 5.13 4.84 4.59 4.39
1668.882 4.17 4 3.88 3.72 3.58 3.4993 3.4073 3.3099 3.2039 3.1391
1688.175 3.068 2.9895 2.9735 2.9151 2.8342 2.8062 2.758 2.7488 2.7319 2.6753
1707.469 2.641 2.61512 2.57569 2.53418 2.4851 2.42 2.383 2.372 2.35 2.325
1726.762 2.269 2.203 2.164 2.086 2.024 1.994 1.908 1.795 1.689 1.528
1746.056 1.33 1.14 0.95 0.79 0.69 0.59 0.57 0.67 0.79 0.88
1765.349 1 1.11 1.23 1.3 1.33 1.39 1.4 1.36 1.34 1.36
1784.642 1.36 1.42 1.48 1.54 1.634 1.726 1.856 1.996 2.059 2.092
1803.936 2.166 2.238 2.291 2.338 2.36 2.378 2.388 2.402 2.4328 2.4338
1823.229 2.4386 2.4598 2.4764 2.4723 2.4427 2.4204 2.4311 2.4444 2.439 2.414
1842.523 2.367 2.324 2.307 2.303 2.319 2.321 2.289 2.255 2.231 2.211
1861.816 2.192 2.202 2.19 2.143 2.125 2.108 2.09 2.08 2.08 2.067
1881.110 2.032 2.023 2.016 2.015 2.01 1.994 1.99 1.991 2.002 2.024
1900.403 2.012 1.986 1.975 1.966 1.938 1.899 1.897 1.901 1.876 1.824
1919.696 1.785 1.765 1.73 1.698 1.67 1.639 1.636 1.621 1.576 1.538
1938.990 1.528 1.525 1.51 1.51 1.5 1.48 1.45 1.45 1.45 1.41
1958.283 1.39 1.39 1.38 1.38 1.37 1.38 1.39 1.4 1.38 1.38
1977.577 1.42 1.42 1.42 1.45 1.46 1.45 1.46 1.48 1.5 1.51
1996.870 1.51 1.49 1.47 1.47 1.49 1.49 1.49 1.5 1.49 1.48
2016.164 1.46 1.44 1.44 1.46 1.45 1.44 1.45 1.43 1.41 1.43
2035.457 1.42 1.4 1.4 1.39 1.41 1.41 1.39 1.37 1.37 1.39
2054.750 1.39 1.37 1.38 1.4 1.39 1.39 1.4 1.41 1.42 1.43
2074.044 1.44 1.43 1.44 1.46 1.47 1.48 1.49 1.521 1.541 1.555
2093.337 1.572 1.594 1.606 1.612 1.626 1.637 1.643 1.662 1.672 1.659
2112.631 1.646 1.657 1.672 1.67 1.678 1.675 1.651 1.638 1.621 1.628
2131.924 1.657 1.656 1.667 1.688 1.695 1.7 1.696 1.701 1.706 1.69
2151.218 1.701 1.727 1.728 1.716 1.712 1.731 1.752 1.753 1.76 1.772
2170.511 1.789 1.808 1.807 1.813 1.817 1.813 1.825 1.834 1.845 1.84
2189.804 1.833 1.835 1.842 1.858 1.856 1.862 1.853 1.843 1.854 1.861
2209.098 1.874 1.871 1.866 1.879 1.861 1.856 1.872 1.849 1.835 1.832
2228.391 1.836 1.829 1.818 1.81 1.8 1.793 1.782 1.777 1.77 1.751
2247.685 1.763 1.805 1.793 1.757 1.737 1.759 1.763 1.748 1.785 1.813
2266.978 1.811 1.815 1.814 1.805 1.822 1.823 1.813 1.804 1.805 1.802
2286.272 1.797 1.798 1.795 1.823 1.844 1.864 1.865 1.855 1.857 1.875
2305.565 1.9 1.91 1.901 1.899 1.914 1.933 1.956 1.981 2.002 1.986
2324.858 1.978 1.984 1.958 1.95 1.961 1.995 2.003 2.004 2.03 2.016
2344.152 1.999 1.996 2.017 2.027 2.015 2 2.024 2.051 2.026 2.013
2363.445 2.003 1.995 2.01 2.009 2.015 2.023 2 1.997 2.018 2.022
2382.739 2.028 2.046 2.052 2.057 2.074 2.104 2.147 2.172 2.197 2.236
2402.032 2.248 2.268 2.272 2.294 2.328 2.33 2.372 2.399 2.409 2.418
2421.326 2.401 2.396 2.404 2.388 2.375 2.378 2.374 2.354 2.341 2.351
2440.619 2.317 2.293 2.282 2.285 2.284 2.247 2.22 2.2 2.2 2.189
2459.912 2.178 2.154 2.137 2.121 2.108 2.131 2.153 2.155 2.152 2.138
2479.206 2.116 2.126 2.141 2.142 2.149 2.147 2.142 2.17 2.175 2.174
2498.499 2.202 2.199 2.195 2.221 2.242 2.238 2.25 2.268 2.287 2.314
2517.793 2.32 2.315 2.313 2.314 2.351 2.386 2.389 2.387 2.401 2.4363
2537.086 2.4639 2.4848 2.4931 2.52427 2.54583 2.57973 2.6193 2.6499 2.6747 2.6971
2556.380 2.7602 2.835 2.9018 2.951 3.0206 3.1034 3.1691 3.2431 3.3434 3.4345
2575.673 3.5049 3.62 3.76 3.89 3.99 4.1 4.24 4.35 4.44 4.56
2594.966 4.68 4.79 4.93 5.04 5.11 5.19 5.27 5.32 5.37 5.44
2614.260 5.51 5.58 5.61 5.66 5.74 5.83 5.95 6.05 6.18 6.33
2633.553 6.42 6.55 6.76 6.95 7.12 7.29 7.43 7.54 7.66 7.72
2652.847 7.76 7.79 7.75 7.71 7.68 7.63 7.53 7.43 7.34 7.27
2672.140 7.21 7.1 7.02 6.98 6.96 6.9 6.84 6.82 6.82 6.87
2691.434 6.97 7.02 7.09 7.2 7.25 7.32 7.44 7.51 7.59 7.69
2710.727 7.79 7.88 7.94 8.02 8.09 8.15 8.3 8.45 8.53 8.62
2730.020 8.68 8.71 8.78 8.82 8.82 8.82 8.82 8.75 8.64 8.55
2749.314 8.47 8.36 8.27 8.2 8.16 8.16 8.18 8.26 8.34 8.42
2768.607 8.52 8.68 8.9 9.05 9.21 9.49 9.81 10.09 10.4 10.81
2787.901 11.23 11.71 12.22 12.74 13.28 13.85 14.5 15.23 15.94 16.67
2807.194 17.53 18.43 19.44 20.66 22.02 23.62 25.52 27.65 30.19 33.16
2826.488 36.7 40.93 45.87 51.7 58.43 66.15 74.86 84.32 94.13 103.94
2845.781 113.3 122.01 130.47 138.91 146.5 151.75 154.38 155.62 156.26 156.36
2865.074 156.27 156.39 156.54 155.6 152.45 148.01 144.29 141.94 140.5 139.87
2884.368 140.32 141.71 143.66 146.34 150.45 156.64 165.13 175.51 186.78 198.19
2903.661 210.55 225.55 244.14 266.07 290.23 315.28 340.35 364.4 386.74 408.19
2922.955 429.92 451.08 467.12 471.33 458.08 432.43 407.63 385.97 362.45 337.3
2942.248 313.92 293.79 275.58 258.07 241.7 228.19 220.34 219.48 216.74 196.34
2961.542 166.82 147.21 136.44 127.27 116.42 102.86 87.33 71.29 56.45 43.94
2980.835 34.03 26.55 21.1 17.16 14.26 12.14 10.62 9.58 8.8 8.07
3000.128 7.45 7.04 6.6 6.21 6 5.8 5.63 5.4 5.18 5.01
3019.422 4.86 4.78 4.73 4.67 4.55 4.5 4.46 4.34 4.35 4.33
3038.715 4.25 4.22 4.2 4.26 4.32 4.35 4.39 4.47 4.6 4.73
3058.009 4.84 4.93 5.03 5.14 5.31 5.42 5.48 5.56 5.57 5.57
3077.302 5.54 5.46 5.37 5.3 5.23 5.1 4.96 4.78 4.65 4.59
3096.596 4.46 4.33 4.21 4.13 4.1 4.03 3.92 3.85 3.79 3.7
3115.889 3.65 3.6 3.4459 3.3318 3.2969 3.2004 3.113 3.0304 2.9972 2.9699
3135.182 2.9058 2.8808 2.8699 2.8811 2.9175 2.898 2.8427 2.8909 2.9738 2.995
3154.476 3.0032 2.9738 2.9259 2.9141 2.9219 2.9962 3.094 3.1232 3.1985 3.2672
3173.769 3.3519 3.3806 3.3354 3.358 3.3746 3.3287 3.2464 3.2372 3.2449 3.2213
3193.063 3.2098 3.1352 3.028 2.9379 2.7938 2.6764 2.6422 2.6665 2.6568 2.59002
3212.356 2.5691 2.52411 2.4325 2.405 2.413 2.322 2.19 2.134 2.031 1.903
3231.650 1.892 1.858 1.818 1.772 1.659 1.587 1.625 1.599 1.48 1.51
3250.943 1.589 1.56 1.556 1.568 1.51 1.5 1.537 1.581 1.587 1.536
3270.236 1.553 1.51 1.5 1.599 1.675 1.72 1.684 1.666 1.735 1.705
3289.530 1.727 1.785 1.72 1.735 1.762 1.857 2.003 2.077 2.114 2.21
3308.823 2.4401 2.6805 2.8824 3.0694 3.3518 3.74 4.08 4.38 4.67 4.88
3328.117 5.07 5.16 5.24 5.38 5.27 5.05 4.88 4.73 4.52 4.27
3347.410 4.01 3.74 3.4885 3.233 3.0086 2.825 2.6855 2.5717 2.4931 2.365
3366.704 2.288 2.241 2.127 2.142 2.136 2.047 1.997 1.951 1.96 1.964
3385.997 1.874 1.853 1.893 1.878 1.831 1.815 1.835 1.734 1.611 1.56
3405.290 1.554 1.574 1.547 1.547 1.541 1.43 1.35 1.39 1.42 1.37
3424.584 1.39 1.39 1.3 1.3 1.29 1.27 1.26 1.23 1.21 1.28
3443.877 1.34 1.31 1.28 1.3 1.36 1.4 1.39 1.39 1.39 1.36
3463.171 1.41 1.42 1.42 1.526 1.58 1.531 1.542 1.521 1.45 1.46
3482.464 1.44 1.43 1.38 1.34 1.29 1.19 1.14 1.22 1.26 1.21
3501.758 1.23 1.24 1.15 1.17 1.2 1.13 1.11 1.11 1.08 1.01
3521.051 0.98 0.97 0.96 0.98 0.98 0.99 1.02 1 1.02 1.01
3540.344 1 1.05 0.96 0.93 0.97 1.02 1.05 0.96 0.91 0.93
3559.638 0.89 0.82 0.77 0.67 0.57 0.55 0.44 0.3 0.15 0.02
3578.931 0 0.02 0.13 0.21 0.21 0.29 0.47 0.66 0.79 0.92
3598.225 0.99 1.01 1.02 1.03 1.05 1.04 1.07 1.13 1.02 1
3617.518 1.09 1.08 1.05 1.04 1.05 1.06 1.08 1.13 1.15 1.08
3636.812 1.04 1.08 1.08 1.1 1.13 1.12 1.12 1.09 1.09 1.11
3656.105 1.12 1.1 1.13 1.12 1.14 1.23 1.22 1.25 1.23 1.19
3675.398 1.25 1.27 1.28 1.33 1.36 1.38 1.37 1.39 1.45 1.46
3694.692 1.48 1.45 1.45 1.43 1.46 1.536 1.49 1.44 1.52 1.559
3713.985 1.542 1.528 1.46 1.45 1.523 1.539 1.523 1.554 1.583 1.567
3733.279 1.48 1.48 1.5 1.537 1.542 1.52 1.5 1.561 1.668 1.678
3752.572 1.623 1.595 1.634 1.687 1.709 1.722 1.767 1.79 1.787 1.804
3771.866 1.806 1.765 1.805 1.824 1.782 1.814 1.816 1.83 1.816 1.794
3791.159 1.809 1.784 1.773 1.738 1.757 1.786 1.721 1.722 1.79 1.779
3810.452 1.761 1.832 1.844 1.765 1.725 1.666 1.635 1.717 1.787 1.803
3829.746 1.805 1.764 1.76 1.815 1.802 1.818 1.893 1.912 1.87 1.846
3849.039 1.899 1.903 1.856 1.866 1.92 1.919 1.886 1.871 1.847 1.876
3868.333 1.868 1.85 1.865 1.814 1.777 1.786 1.773 1.698 1.686 1.73
3887.626 1.717 1.694 1.733 1.737 1.717 1.755 1.741 1.675 1.642 1.673
3906.920 1.674 1.662 1.696 1.694 1.675 1.658 1.701 1.724 1.684 1.685
3926.213 1.71 1.677 1.711 1.813 1.783 1.761 1.805 1.789 1.775 1.784
3945.506 1.767 1.793 1.808 1.815 1.846 1.845 1.816 1.837 1.889 1.929
3964.800 1.961 1.956 1.96 1.946 1.928 1.993 2.058 2.067 2.078 2.048
3984.093 2.031 2.036 2.061 2.108 2.079 2.059 2.068 2.089 2.164
##END=
