##TITLE=Methyl 2-isothiocyanato-3-phenylpropionate
##JCAMP-DX=4.24
##DATA TYPE=INFRARED SPECTRUM
##ORIGIN=EPA-IR VAPOR PHASE LIBRARY
##OWNER=SRD/NIST
Collection (C) 2018 copyright by the U.S. Secretary of Commerce
on behalf of the United States of America. All rights reserved.
##CAS REGISTRY NO=68521-58-4
##MOLFORM=C 11 H 11 N O 2 S
##$NIST SOURCE=MSDC-IR
##STATE=gas
##XUNITS=1/CM
##YUNITS=ABSORBANCE
##XFACTOR=1.
##YFACTOR=0.001
##DELTAX=1.92898
##FIRSTX=549.8
##LASTX=4000.7
##FIRSTY=13.645
##MAXX=4000.7
##MINX=549.759
##MAXY=0.303455
##MINY=0
##NPOINTS=1790
##XYDATA=(X++(Y..Y))
549.759 13.645 13.525 13.355 13.475 13.535 13.105 12.855 12.445 11.835 11.305
569.049 10.865 10.485 10.025 9.595 9.425 9.275 9.135 8.795 8.715 8.745
588.339 8.575 8.425 8.095 7.865 7.765 7.485 7.055 6.955 6.865 6.635
607.628 6.365 6.235 6.285 6.205 6.045 6.055 6.265 6.185 6.125 6.205
626.918 6.255 6.315 6.385 6.635 6.945 7.165 7.115 7.135 7.345 7.375
646.208 7.525 7.635 7.485 7.515 7.585 7.815 8.235 8.585 9.155 9.665
665.498 10.115 11.005 12.055 12.955 13.875 14.875 16.065 17.315 18.585 20.365
684.787 22.835 25.885 29.975 34.865 39.785 44.235 47.635 48.935 47.815 45.345
704.077 42.115 38.085 34.005 30.725 28.065 25.905 24.225 22.725 21.385 20.365
723.367 19.415 18.645 18.335 18.365 18.575 19.195 20.175 21.185 21.785 21.955
742.657 21.795 21.095 19.625 17.785 15.995 14.355 12.935 11.585 10.505 9.645
761.947 8.805 8.005 7.435 6.905 6.515 6.315 5.975 5.675 5.535 5.515
781.236 5.515 5.345 5.195 4.955 4.735 4.735 4.645 4.545 4.395 4.315
800.526 4.255 4.285 4.405 4.315 4.245 4.435 4.725 5.065 5.355 5.645
819.816 6.075 6.595 6.985 7.105 7.145 7.255 7.145 6.985 7.035 6.835
839.106 6.695 6.635 6.395 6.125 5.755 5.255 5.025 5.045 4.885 4.825
858.395 4.795 4.865 4.855 4.855 4.805 4.385 4.205 4.245 4.135 4.205
877.685 4.295 4.435 4.605 4.695 5.025 5.355 5.485 5.655 5.865 5.745
896.975 5.625 5.695 5.745 5.765 5.855 5.985 6.155 6.375 6.655 7.175
916.265 7.535 7.775 8.255 8.615 9.015 9.225 9.205 9.495 9.645 9.685
935.555 9.635 9.525 9.435 9.075 8.665 8.355 8.025 7.735 7.555 7.375
954.844 7.255 7.275 7.415 7.655 7.905 8.355 8.905 9.475 9.975 10.485
974.134 11.355 12.185 12.915 13.565 13.975 14.255 14.225 14.295 14.245 14.195
993.424 14.225 14.265 14.905 15.595 16.205 16.965 17.745 18.755 19.885 21.155
1012.714 22.665 24.395 26.315 28.255 30.185 32.445 34.495 36.185 37.055 36.495
1032.003 35.255 33.205 30.405 26.855 23.275 20.335 17.775 15.905 14.485 13.255
1051.293 12.295 11.635 11.335 10.995 10.755 10.745 10.865 11.355 11.935 12.085
1070.583 12.445 13.075 13.245 13.485 13.165 12.345 11.665 10.845 10.195 9.445
1089.873 9.105 9.105 8.545 8.285 8.865 9.255 9.335 9.735 10.115 10.635
1109.163 11.145 11.295 11.625 12.205 12.765 13.145 13.315 13.715 14.215 14.585
1128.452 15.365 16.395 17.045 17.725 18.585 19.695 21.205 22.795 24.715 27.145
1147.742 29.745 32.315 35.555 39.555 43.715 47.985 52.825 58.085 63.115 68.075
1167.032 72.655 76.125 78.315 79.365 79.125 77.895 75.875 73.405 70.875 68.935
1186.322 67.635 66.895 67.285 68.505 69.765 71.345 72.885 73.655 74.365 74.545
1205.611 73.845 72.535 70.765 68.555 65.785 63.035 60.405 58.055 55.865 54.275
1224.901 53.315 52.375 51.575 50.995 51.065 51.345 51.475 52.205 53.145 53.735
1244.191 54.315 54.935 55.475 55.935 56.145 56.415 56.995 57.465 58.015 58.735
1263.481 59.725 61.105 62.355 63.715 64.855 65.155 64.795 63.625 61.795 59.205
1282.771 56.035 52.725 49.315 46.025 42.925 40.135 37.715 35.525 33.665 32.085
1302.060 30.805 29.875 29.175 28.825 28.915 29.225 29.725 30.465 31.325 32.275
1321.350 33.295 34.345 35.155 35.725 36.105 36.165 35.865 35.145 34.185 33.015
1340.640 31.635 30.135 28.505 26.855 25.185 23.495 21.785 20.025 18.325 16.815
1359.930 15.445 14.105 12.915 11.875 10.965 10.185 9.485 8.855 8.315 7.845
1379.219 7.425 7.085 6.735 6.385 6.025 5.705 5.535 5.345 5.195 5.095
1398.509 4.995 4.975 5.035 5.085 5.175 5.365 5.535 5.715 5.925 6.185
1417.799 6.475 6.805 7.295 8.035 9.145 10.675 12.935 16.045 19.985 24.285
1437.089 28.265 31.385 33.205 33.365 31.625 28.615 25.435 22.785 20.625 18.785
1456.378 17.105 15.465 13.945 12.595 11.385 10.315 9.525 8.955 8.465 8.035
1475.668 7.735 7.625 7.615 7.735 8.065 8.695 9.685 11.175 13.075 15.065
1494.958 16.655 17.335 17.165 16.105 14.255 11.825 9.225 7.205 5.915 5.155
1514.248 4.665 4.355 4.165 3.975 3.865 3.815 3.755 3.795 3.775 3.685
1533.538 3.655 3.635 3.605 3.545 3.505 3.475 3.365 3.305 3.245 3.225
1552.827 3.295 3.425 3.505 3.485 3.485 3.525 3.605 3.685 3.815 3.875
1572.117 3.875 3.965 4.135 4.265 4.425 4.735 4.995 5.145 5.345 5.575
1591.407 5.815 6.055 6.405 6.925 7.355 7.635 7.905 7.915 7.585 7.025
1610.697 6.285 5.445 4.625 3.965 3.565 3.285 3.085 2.945 2.735 2.605
1629.986 2.605 2.595 2.545 2.535 2.565 2.555 2.505 2.585 2.635 2.565
1649.276 2.625 2.665 2.705 2.805 2.815 2.805 2.775 2.755 2.795 2.815
1668.566 2.825 2.875 2.885 2.865 2.925 2.985 3.055 3.145 3.275 3.415
1687.856 3.525 3.655 3.795 4.035 4.295 4.495 4.695 4.985 5.305 5.745
1707.146 6.295 6.755 7.305 7.985 8.675 9.425 10.185 10.995 11.935 12.985
1726.435 14.155 15.475 17.065 18.885 20.975 23.395 26.155 29.495 33.555 38.625
1745.725 45.035 53.025 62.415 72.785 83.435 93.635 102.105 107.505 110.095 110.425
1765.015 108.455 104.755 100.215 95.285 90.105 85.155 80.385 75.155 68.785 61.475
1784.305 53.935 46.725 40.485 35.305 31.075 27.665 24.845 22.335 20.085 18.055
1803.594 16.235 14.665 13.295 12.085 11.165 10.395 9.675 8.975 8.315 7.785
1822.884 7.275 6.825 6.475 6.095 5.745 5.505 5.315 5.145 4.975 4.825
1842.174 4.765 4.735 4.675 4.625 4.635 4.695 4.745 4.825 4.875 4.935
1861.464 5.045 5.145 5.245 5.385 5.505 5.625 5.735 5.815 5.995 6.185
1880.754 6.335 6.445 6.605 6.815 6.965 7.095 7.325 7.555 7.745 8.025
1900.043 8.355 8.695 9.055 9.355 9.705 10.205 10.725 11.275 11.825 12.425
1919.333 13.155 13.905 14.685 15.635 16.605 17.535 18.655 19.975 21.335 22.695
1938.623 24.075 25.505 27.045 28.575 30.115 31.835 33.755 35.745 37.835 40.015
1957.913 42.285 44.635 47.025 49.565 52.255 55.135 58.275 61.705 65.445 69.545
1977.202 73.905 78.545 83.535 88.825 94.485 100.435 106.615 113.215 120.195 127.475
1996.492 135.155 143.125 151.415 160.075 169.035 178.245 187.755 197.415 207.305 217.375
2015.782 227.435 237.535 247.525 257.365 266.915 275.855 284.015 291.155 296.805 300.825
2035.072 303.095 303.455 302.045 298.945 294.365 288.535 281.725 274.355 266.695 258.625
2054.362 250.455 242.535 234.445 226.455 218.705 211.085 203.755 196.645 189.625 182.845
2073.651 176.455 170.275 164.315 158.585 152.955 147.625 142.705 137.955 133.335 128.835
2092.941 124.475 120.365 116.375 112.495 108.855 105.435 102.245 99.185 96.305 93.585
2112.231 90.995 88.505 86.085 83.865 81.605 79.315 77.075 74.795 72.555 70.255
2131.521 67.925 65.605 63.215 60.775 58.335 55.945 53.535 51.145 48.855 46.615
2150.810 44.415 42.265 40.235 38.325 36.435 34.655 32.945 31.345 29.835 28.455
2170.100 27.175 25.955 24.915 23.855 22.835 21.995 21.165 20.475 19.915 19.375
2189.390 18.835 18.285 17.855 17.535 17.155 16.765 16.515 16.245 15.905 15.665
2208.680 15.555 15.395 15.165 14.985 14.875 14.795 14.715 14.585 14.345 14.165
2227.970 14.035 13.835 13.625 13.355 13.045 12.835 12.585 12.295 12.015 11.735
2247.259 11.435 11.045 10.675 10.305 9.945 9.615 9.265 8.945 8.565 8.235
2266.549 7.905 7.505 7.145 6.855 6.555 6.305 6.105 5.855 5.605 5.365
2285.839 5.175 5.005 4.815 4.635 4.525 4.415 4.335 4.215 4.115 4.075
2305.129 4.045 4.035 3.975 3.925 3.905 3.915 3.885 3.785 3.735 3.625
2324.418 3.505 3.425 3.275 3.195 3.185 3.145 3.125 3.105 3.035 2.925
2343.708 2.865 2.765 2.685 2.675 2.535 2.405 2.405 2.385 2.315 2.215
2362.998 2.155 2.175 2.155 2.085 2.035 2.005 1.945 1.845 1.775 1.735
2382.288 1.735 1.735 1.695 1.695 1.705 1.705 1.635 1.635 1.675 1.615
2401.578 1.615 1.595 1.565 1.585 1.555 1.515 1.595 1.635 1.595 1.655
2420.867 1.655 1.615 1.595 1.525 1.515 1.545 1.585 1.585 1.565 1.555
2440.157 1.525 1.525 1.5018 1.4641 1.446 1.492 1.555 1.555 1.565 1.575
2459.447 1.4992 1.4453 1.515 1.555 1.525 1.535 1.565 1.535 1.515 1.615
2478.737 1.575 1.505 1.535 1.585 1.575 1.555 1.555 1.555 1.585 1.595
2498.026 1.615 1.665 1.705 1.775 1.815 1.785 1.835 1.885 1.855 1.825
2517.316 1.855 1.955 2.035 2.025 2.065 2.145 2.145 2.095 2.185 2.325
2536.606 2.425 2.435 2.425 2.505 2.625 2.745 2.815 2.815 2.795 2.815
2555.896 2.865 2.875 2.965 2.995 2.915 2.955 3.005 3.015 2.995 2.985
2575.186 3.005 3.015 3.035 2.955 2.965 3.025 3.065 3.025 2.945 2.965
2594.475 3.005 2.995 2.935 2.925 2.875 2.795 2.785 2.765 2.655 2.615
2613.765 2.605 2.485 2.385 2.355 2.305 2.165 2.075 2.135 2.145 2.105
2633.055 2.095 2.135 2.095 1.985 1.955 1.925 1.885 1.825 1.745 1.775
2652.345 1.845 1.825 1.825 1.825 1.825 1.865 1.845 1.785 1.735 1.775
2671.634 1.915 1.885 1.835 1.845 1.895 1.975 1.955 1.965 1.995 1.995
2690.924 2.045 2.055 2.025 2.105 2.145 2.095 2.085 2.195 2.275 2.325
2710.214 2.385 2.455 2.455 2.495 2.575 2.575 2.655 2.835 2.925 2.935
2729.504 3.015 3.045 3.065 3.125 3.185 3.265 3.275 3.325 3.305 3.355
2748.794 3.405 3.255 3.245 3.205 3.205 3.235 3.225 3.255 3.225 3.165
2768.083 3.115 3.115 3.095 2.935 2.815 2.795 2.865 2.955 2.905 2.725
2787.373 2.565 2.605 2.625 2.515 2.465 2.475 2.365 2.285 2.265 2.205
2806.663 2.125 2.075 2.075 2.145 2.155 2.125 2.115 2.155 2.305 2.315
2825.953 2.255 2.405 2.525 2.615 2.705 2.885 3.135 3.385 3.795 4.295
2845.242 4.775 5.415 6.115 6.505 6.805 6.945 6.795 6.545 6.115 5.595
2864.532 5.225 4.965 4.745 4.625 4.495 4.365 4.225 4.165 4.185 4.135
2883.822 4.215 4.425 4.655 4.845 5.075 5.465 5.795 6.055 6.405 6.715
2903.112 7.065 7.435 7.655 7.945 8.355 8.595 8.855 9.215 9.655 10.105
2922.401 10.525 10.985 11.685 12.505 13.345 14.295 15.205 16.085 17.005 17.655
2941.691 17.975 18.245 18.525 18.935 19.825 21.375 23.605 26.765 30.675 34.565
2960.981 37.445 38.855 38.405 36.125 32.515 27.735 22.815 18.655 15.435 13.155
2980.271 11.505 10.325 9.525 8.895 8.385 8.135 8.185 8.375 8.465 8.675
2999.561 9.065 9.505 9.985 10.425 10.805 11.025 11.295 11.575 11.675 11.945
3018.850 12.515 13.495 14.895 16.605 18.635 20.905 23.155 24.945 26.095 26.435
3038.140 25.845 24.375 22.385 20.115 17.785 15.895 14.295 13.075 12.465 12.275
3057.430 12.405 12.995 14.125 15.765 17.775 19.975 22.135 23.545 23.965 23.435
3076.720 21.965 19.895 17.685 15.715 14.415 13.605 12.995 12.595 12.045 11.425
3096.009 10.695 9.785 8.945 8.175 7.595 7.105 6.605 6.165 5.815 5.545
3115.299 5.035 4.495 3.955 3.435 2.955 2.615 2.365 2.185 2.105 1.795
3134.589 1.665 1.655 1.535 1.505 1.3839 1.3302 1.3447 1.2827 1.263 1.1629
3153.879 1.1663 1.1495 1.0908 1.0341 0.9607 0.942 1.0305 1.0983 0.9084 0.8602
3173.169 0.908 0.8786 0.7344 0.58932 0.58112 0.59959 0.59252 0.57591 0.60196 0.53002
3192.458 0.4647 0.4873 0.53732 0.5876 0.54539 0.58096 0.56813 0.505926 0.54672 0.49519
3211.748 0.4736 0.53866 0.53063 0.4373 0.4683 0.4388 0.4117 0.348 0.241 0.38
3231.038 0.367 0.255 0.168 0.304 0.38 0.36 0.4616 0.4302 0.365 0.366
3250.328 0.383 0.404 0.392 0.37 0.381 0.254 0.226 0.272 0.268 0.29
3269.617 0.329 0.217 0.081 0.215 0.36 0.314 0.217 0.183 0.208 0.12
3288.907 0.16 0.352 0.38 0.303 0.239 0.223 0.307 0.4579 0.4072 0.139
3308.197 0 0.152 0.328 0.373 0.379 0.343 0.233 0.167 0.25 0.322
3327.487 0.266 0.227 0.286 0.32 0.4185 0.346 0.241 0.295 0.274 0.379
3346.777 0.333 0.287 0.32 0.255 0.325 0.338 0.153 0.122 0.176 0.122
3366.066 0.242 0.404 0.244 0.222 0.313 0.221 0.241 0.321 0.345 0.287
3385.356 0.138 0.12 0.287 0.223 0.146 0.318 0.4311 0.367 0.286 0.316
3404.646 0.253 0.195 0.203 0.224 0.261 0.197 0.23 0.269 0.179 0.117
3423.936 0.247 0.427 0.393 0.313 0.371 0.4212 0.4339 0.352 0.345 0.358
3443.225 0.354 0.327 0.296 0.404 0.352 0.22 0.279 0.4294 0.4226 0.31
3462.515 0.291 0.383 0.352 0.355 0.472 0.58626 0.60197 0.6842 0.6912 0.6609
3481.805 0.9227 0.9963 0.8775 0.9287 1.0081 0.9061 0.9782 1.2183 1.3974 1.515
3501.095 1.4938 1.4523 1.565 1.525 1.4019 1.3965 1.34 1.2753 1.2611 1.3014
3520.385 1.2256 1.1641 1.1444 1.1743 1.2059 1.0729 0.9766 1.0949 1.1099 1.0041
3539.674 0.9494 0.9213 0.8412 0.8259 0.8743 0.8189 0.6917 0.6283 0.7444 0.7096
3558.964 0.55405 0.4764 0.4781 0.509216 0.397 0.4579 0.6241 0.52382 0.4647 0.4907
3578.254 0.4374 0.379 0.359 0.32 0.35 0.353 0.321 0.399 0.466 0.53778
3597.544 0.4848 0.258 0.197 0.293 0.3 0.282 0.295 0.322 0.289 0.246
3616.833 0.303 0.372 0.4082 0.336 0.289 0.401 0.376 0.29 0.4219 0.4663
3636.123 0.449 0.4727 0.451 0.4418 0.4792 0.4502 0.4293 0.4891 0.53262 0.52678
3655.413 0.4583 0.4401 0.334 0.365 0.4319 0.431 0.4517 0.4787 0.53927 0.4704
3674.703 0.4481 0.56025 0.58103 0.511866 0.4477 0.54692 0.59352 0.6249 0.6482 0.49749
3693.993 0.4095 0.4141 0.4351 0.361 0.243 0.213 0.299 0.403 0.57292 0.6413
3713.282 0.54669 0.4628 0.373 0.325 0.338 0.4179 0.4682 0.377 0.289 0.353
3732.572 0.4382 0.4296 0.4288 0.53835 0.4768 0.4062 0.38 0.319 0.366 0.4185
3751.862 0.4714 0.51748 0.54221 0.56038 0.5539 0.56202 0.441 0.374 0.4378 0.321
3771.152 0.374 0.53272 0.57558 0.54266 0.378 0.401 0.53799 0.4747 0.403 0.4179
3790.441 0.54695 0.6674 0.6077 0.52246 0.609 0.52617 0.4945 0.6361 0.6571 0.54371
3809.731 0.4828 0.56241 0.6635 0.7248 0.6807 0.726 0.7184 0.7183 0.7239 0.53984
3829.021 0.358 0.4903 0.54317 0.52712 0.683 0.53961 0.495 0.6514 0.742 0.6444
3848.311 0.54126 0.7283 0.7839 0.6622 0.7064 0.7115 0.7227 0.8613 0.8947 0.786
3867.601 0.7711 0.8266 0.8157 0.6494 0.6564 0.898 0.8994 0.9469 0.8895 0.6781
3886.890 0.7764 0.9031 0.8966 0.8737 0.7556 0.797 0.8672 0.9053 0.9825 0.8723
3906.180 0.8895 0.9577 1.0221 1.0531 1.0963 1.1163 1.1489 1.1481 1.0264 1.0509
3925.470 0.9773 0.9516 1.0488 1.0341 1.0964 1.0148 0.9703 1.1956 1.2808 1.331
3944.760 1.3439 1.2904 1.3149 1.323 1.333 1.2595 1.2479 1.3522 1.3124 1.3814
3964.049 1.3466 1.2708 1.4171 1.4153 1.4444 1.545 1.545 1.535 1.615 1.715
3983.339 1.645 1.665 1.825 1.785 1.655 1.635 1.755 1.825 1.775 1.805
##END=
