##TITLE=Di-sec-butyl ether
##JCAMP-DX=4.24
##DATA TYPE=INFRARED SPECTRUM
##ORIGIN=NIST Mass Spectrometry Data Center
##OWNER=NIST Standard Reference Data Program
Collection (C) 2018 copyright by the U.S. Secretary of Commerce
on behalf of the United States of America. All rights reserved.
##CAS REGISTRY NO=6863-58-7
##MOLFORM=C 8 H 18 O
##$NIST SOURCE=MSDC-IR
##SPECTROMETER/DATA SYSTEM=HP-GC/MS/IRD
##STATE=gas
##XUNITS=1/CM
##YUNITS=ABSORBANCE
##XFACTOR=1.0
##YFACTOR=0.000002900
##DELTAX=4.0
##FIRSTX=550.0
##LASTX=3846.0
##FIRSTY=0.000148
##MAXX=3846
##MINX=550
##MAXY=0.029
##MINY=0
##NPOINTS=825
##XYDATA=(X++(Y..Y))
550.0 51 67 131 141 107 91 60 8 36 83
590.0 73 55 88 106 50 16 48 109 101 74
630.0 75 62 64 46 53 82 103 83 55 53
670.0 40 27 45 79 94 91 63 54 76 74
710.0 52 58 78 75 85 86 66 53 57 68
750.0 75 98 120 135 142 154 172 185 198 179
790.0 167 170 148 154 167 169 143 145 173 187
830.0 215 235 239 208 190 193 188 206 249 278
870.0 292 298 284 254 224 195 169 156 160 170
910.0 168 190 235 281 358 446 511 547 565 555
950.0 547 564 596 643 676 695 698 695 706 738
990.0 820 971 1157 1353 1536 1679 1764 1845 1999 2262
1030.0 2687 3227 3774 4175 4283 4023 3473 2782 2088 1561
1070.0 1272 1169 1200 1363 1638 2074 2717 3438 4094 4623
1110.0 4945 5001 4846 4593 4328 4073 3826 3595 3335 3057
1150.0 2809 2568 2340 2099 1839 1558 1258 997 799 645
1190.0 519 432 366 318 285 260 258 270 255 228
1230.0 225 245 245 253 297 342 390 434 457 466
1270.0 457 437 425 435 460 497 558 618 667 716
1310.0 781 885 1045 1263 1508 1719 1825 1811 1684 1483
1350.0 1306 1249 1328 1541 1878 2246 2509 2625 2537 2232
1390.0 1839 1434 1088 830 640 521 451 426 431 459
1430.0 527 625 749 909 1073 1223 1353 1449 1479 1428
1470.0 1305 1108 899 707 543 417 328 274 235 203
1510.0 183 175 159 141 136 131 123 114 114 114
1550.0 108 112 107 106 106 101 91 89 94 89
1590.0 83 83 88 87 81 76 82 90 91 88
1630.0 84 82 75 65 64 62 63 66 61 52
1670.0 47 55 52 49 48 44 44 43 41 38
1710.0 33 30 36 36 26 22 20 21 29 31
1750.0 20 24 33 30 28 28 34 33 34 47
1790.0 44 38 44 44 47 50 45 48 45 44
1830.0 43 34 33 43 51 52 51 48 54 64
1870.0 64 67 72 73 70 70 76 79 81 77
1910.0 74 71 66 62 60 58 59 53 43 40
1950.0 35 28 30 40 47 45 45 47 36 34
1990.0 42 45 40 31 27 28 19 16 17 14
2030.0 10 6 12 17 12 10 12 9 2 6
2070.0 17 19 15 12 14 15 6 7 6 0
2110.0 0 6 7 9 16 9 10 24 23 14
2150.0 15 19 24 21 22 28 27 21 17 23
2190.0 25 24 22 14 9 13 13 19 16 10
2230.0 13 9 12 13 9 5 8 15 13 12
2270.0 18 20 20 28 30 24 22 25 23 17
2310.0 22 26 21 24 21 7 11 17 22 24
2350.0 24 13 11 17 16 17 11 10 14 15
2390.0 22 36 34 28 30 26 25 23 20 24
2430.0 26 16 8 11 12 17 29 22 26 30
2470.0 25 23 19 18 17 17 14 16 23 20
2510.0 20 20 18 17 16 17 11 15 19 20
2550.0 24 30 42 44 55 62 68 80 88 96
2590.0 101 100 97 103 116 124 131 139 140 147
2630.0 155 144 141 151 153 147 137 133 139 147
2670.0 144 139 142 150 150 148 160 166 174 185
2710.0 195 207 211 219 224 231 232 237 250 256
2750.0 260 260 263 257 263 265 269 280 297 319
2790.0 338 356 382 418 444 473 514 564 616 666
2830.0 740 825 921 1063 1237 1465 1741 2056 2424 2831
2870.0 3267 3721 4130 4375 4410 4250 3944 3603 3342 3239
2910.0 3352 3674 4183 4833 5554 6241 6695 6803 6643 6283
2950.0 5879 5743 6088 6934 8110 9273 10000 9973 9146 7746
2990.0 6081 4471 3128 2163 1565 1195 959 820 719 632
3030.0 573 527 496 472 437 401 390 391 384 375
3070.0 377 369 344 329 316 317 315 304 293 274
3110.0 268 261 250 247 241 232 225 226 229 215
3150.0 200 202 195 185 193 190 179 179 166 154
3190.0 143 130 123 127 120 115 110 98 87 77
3230.0 82 80 66 63 59 59 62 60 67 69
3270.0 69 55 46 55 51 51 42 35 46 56
3310.0 47 36 63 68 49 51 65 64 48 37
3350.0 51 62 49 52 60 54 51 55 61 64
3390.0 69 73 51 40 61 63 60 50 45 48
3430.0 41 50 50 44 54 60 43 26 23 26
3470.0 33 30 31 35 36 57 75 66 50 42
3510.0 37 39 43 25 6 15 27 37 59 55
3550.0 36 49 39 38 52 45 38 40 43 52
3590.0 50 56 57 38 52 57 61 60 46 40
3630.0 40 43 47 51 37 36 38 51 64 51
3670.0 40 40 32 34 55 59 53 58 62 65
3710.0 61 57 56 66 59 46 62 68 53 48
3750.0 38 50 72 75 67 56 63 67 76 58
3790.0 48 74 58 38 58 60 48 73 80 55
3830.0 47 62 56 44 65
##END=
