##TITLE=Ethyl L-lactate
##JCAMP-DX=4.24
##DATA TYPE=INFRARED SPECTRUM
##ORIGIN=EPA-IR VAPOR PHASE LIBRARY
##OWNER=SRD/NIST
Collection (C) 2018 copyright by the U.S. Secretary of Commerce
on behalf of the United States of America. All rights reserved.
##CAS REGISTRY NO=687-47-8
##MOLFORM=C 5 H 10 O 3
##$NIST SOURCE=MSDC-IR
##STATE=gas
##XUNITS=1/CM
##YUNITS=ABSORBANCE
##XFACTOR=1.
##YFACTOR=0.001
##DELTAX=1.92934
##FIRSTX=549.9
##LASTX=3999.5
##FIRSTY=5.08
##MAXX=3999.53
##MINX=549.863
##MAXY=0.1627
##MINY=0
##NPOINTS=1789
##XYDATA=(X++(Y..Y))
549.863 5.08 5.06 5.11 5.07 5.04 5.01 4.99 4.98 4.81 4.71
569.156 4.69 4.72 4.76 4.85 4.91 4.82 4.76 4.79 4.84 4.86
588.450 4.83 4.84 4.83 4.88 4.98 4.89 4.83 4.94 5 5.02
607.743 5.07 5.1 5.17 5.33 5.41 5.47 5.58 5.71 5.78 5.87
627.037 6.07 6.28 6.41 6.52 6.69 6.81 6.98 7.12 7.19 7.29
646.330 7.35 7.36 7.3 7.13 6.95 6.77 6.56 6.23 5.9 5.7
665.624 5.48 5.26 5 4.7 4.53 4.47 4.29 4.16 4.08 4.04
684.917 4.03 3.93 3.8 3.78 3.74 3.68 3.68 3.66 3.63 3.6
704.210 3.57 3.53 3.53 3.49 3.41 3.44 3.47 3.54 3.58 3.52
723.504 3.53 3.61 3.69 3.79 3.93 4.04 4.2 4.38 4.6 4.82
742.797 5.01 5.3 5.58 5.87 6.16 6.36 6.55 6.73 6.84 6.93
762.091 7.02 7.05 7.03 6.96 6.82 6.69 6.56 6.48 6.3 6.11
781.384 5.95 5.73 5.58 5.42 5.24 5.15 5.04 4.92 4.75 4.62
800.678 4.55 4.39 4.25 4.21 4.15 4.07 4.03 4.02 4.03 4.02
819.971 4.02 4.06 4.17 4.28 4.44 4.67 4.86 5.06 5.33 5.68
839.264 6.14 6.6 7.08 7.62 8.16 8.69 9.2 9.64 9.97 10.26
858.558 10.46 10.57 10.59 10.53 10.29 9.86 9.36 8.8 8.27 7.74
877.851 7.23 6.79 6.32 5.83 5.42 5.14 4.92 4.7 4.61 4.59
897.145 4.56 4.64 4.78 4.91 5.14 5.46 5.88 6.34 6.79 7.3
916.438 7.81 8.28 8.68 9.01 9.24 9.34 9.4 9.34 9.19 8.94
935.732 8.55 8.15 7.66 7.14 6.66 6.21 5.81 5.48 5.18 5
955.025 4.88 4.78 4.73 4.68 4.71 4.75 4.79 4.91 5.05 5.19
974.318 5.38 5.63 5.9 6.22 6.63 7.11 7.63 8.25 8.99 9.88
993.612 10.92 12.09 13.45 14.98 16.7 18.65 20.72 22.94 25.31 27.66
1012.905 29.93 32.13 34.2 36.09 37.83 39.4 40.83 42.16 43.35 44.43
1032.199 45.34 46.04 46.56 46.93 47.21 47.52 47.85 47.96 47.69 46.99
1051.492 45.85 44.33 42.52 40.6 38.75 37.04 35.59 34.53 33.87 33.6
1070.786 33.67 34.1 34.9 35.95 37.24 38.87 40.69 42.55 44.59 46.82
1090.079 49.09 51.36 53.58 55.87 58.25 60.74 63.38 66.13 69.09 72.4
1109.372 76.14 80.31 85.06 90.56 96.78 103.57 110.76 118.18 125.43 131.95
1128.666 137.26 140.95 142.69 142.43 140.53 137.1 132.09 125.69 117.95 109.04
1147.959 99.55 90.01 81.02 73.23 66.97 62.23 58.81 56.5 54.95 54.05
1167.253 53.78 54.02 54.74 55.85 57.54 59.81 62.54 65.93 69.93 74.5
1186.546 79.71 85.61 92.19 99.28 106.96 114.96 123.06 131.18 139.16 146.49
1205.840 152.78 157.72 161 162.7 162.45 160.33 156.73 151.68 145.35 137.91
1225.133 129.85 121.72 113.89 106.93 101 96.45 93.51 91.83 91.28 91.76
1244.426 92.97 94.65 96.59 98.5 100.17 101.56 102.44 102.61 102.12 101.01
1263.720 99.07 96.45 93.24 89.48 85.32 80.87 76.31 71.7 67.05 62.55
1283.013 58.25 54.18 50.5 47.2 44.23 41.6 39.31 37.32 35.53 33.89
1302.307 32.43 31.09 29.77 28.5 27.28 26.08 24.87 23.67 22.5 21.43
1321.600 20.41 19.48 18.71 18.03 17.43 16.92 16.49 16.12 15.81 15.55
1340.894 15.32 15.17 15.16 15.17 15.26 15.49 15.9 16.48 17.23 18.18
1360.187 19.32 20.66 22.2 23.87 25.54 27.02 28.24 29.24 29.97 30.36
1379.480 30.39 30.2 29.77 28.89 27.46 25.69 23.92 22.31 20.89 19.72
1398.774 18.82 18.08 17.45 16.88 16.39 15.96 15.57 15.19 14.86 14.57
1418.067 14.3 14.05 13.83 13.65 13.55 13.54 13.61 13.76 13.96 14.24
1437.361 14.64 15.12 15.66 16.22 16.77 17.4 18.04 18.6 19.12 19.44
1456.654 19.53 19.6 19.59 19.43 19.19 18.86 18.45 17.94 17.24 16.41
1475.948 15.52 14.55 13.61 12.68 11.74 10.85 10.04 9.28 8.56 7.91
1495.241 7.38 6.87 6.42 6.07 5.71 5.46 5.22 4.96 4.76 4.6
1514.534 4.44 4.28 4.16 4.06 3.93 3.84 3.83 3.8 3.72 3.64
1533.828 3.6 3.52 3.43 3.38 3.34 3.3 3.27 3.23 3.22 3.16
1553.121 3.08 3.05 3.03 3.01 2.99 2.94 2.9 2.89 2.86 2.86
1572.415 2.8 2.75 2.74 2.72 2.72 2.66 2.5938 2.5724 2.5601 2.5406
1591.708 2.5118 2.4638 2.434 2.4547 2.45 2.4275 2.4224 2.3872 2.3914 2.3956
1611.002 2.3681 2.3579 2.3826 2.4262 2.4248 2.4071 2.3888 2.4063 2.4351 2.4731
1630.295 2.4597 2.4409 2.4858 2.5108 2.4839 2.4845 2.4909 2.5435 2.6458 2.67
1649.588 2.67 2.73 2.78 2.79 2.85 2.93 3.03 3.2 3.34 3.43
1668.882 3.6 3.83 4.02 4.23 4.44 4.72 5.06 5.37 5.74 6.1
1688.175 6.47 6.91 7.43 7.99 8.6 9.23 9.92 10.71 11.55 12.56
1707.469 13.73 15.11 16.74 18.67 21.04 24 27.5 31.55 36.42 42.18
1726.762 48.86 56.5 65.17 74.69 85.39 96.34 107.05 117.63 126.95 134.74
1746.056 140.65 145.03 148.36 150.88 151.9 150.26 145.37 137.85 128.4 118.01
1765.349 107.61 97.42 87.37 77.62 67.9 58.88 50.72 43.49 37.28 32.05
1784.642 27.65 23.95 20.9 18.38 16.31 14.6 13.2 12.01 11.02 10.16
1803.936 9.36 8.63 7.98 7.36 6.82 6.33 5.85 5.37 4.95 4.61
1823.229 4.32 4.03 3.8 3.62 3.39 3.19 3.09 2.98 2.84 2.73
1842.523 2.65 2.5832 2.5118 2.4611 2.414 2.3449 2.2812 2.257 2.2905 2.2998
1861.816 2.296 2.3349 2.325 2.2921 2.3191 2.3231 2.2963 2.3067 2.3357 2.3776
1881.110 2.3709 2.3312 2.3109 2.3004 2.3064 2.2772 2.239 2.1951 2.1567 2.1543
1900.403 2.1111 2.0515 2.005 1.9595 1.9202 1.8752 1.8617 1.8389 1.7904 1.71202
1919.696 1.65839 1.67933 1.66951 1.6155 1.6028 1.5946 1.5586 1.52 1.514 1.506
1938.990 1.477 1.459 1.446 1.456 1.447 1.45 1.45 1.447 1.448 1.437
1958.283 1.479 1.511 1.461 1.446 1.444 1.429 1.458 1.446 1.448 1.457
1977.577 1.43 1.406 1.402 1.429 1.393 1.343 1.379 1.396 1.362 1.35
1996.870 1.35 1.383 1.384 1.34 1.34 1.345 1.366 1.361 1.309 1.299
2016.164 1.335 1.357 1.37 1.4 1.365 1.366 1.4 1.386 1.414 1.43
2035.457 1.464 1.488 1.472 1.484 1.51 1.528 1.5538 1.599 1.63 1.66568
2054.750 1.66722 1.68213 1.72723 1.72756 1.73496 1.7657 1.764 1.7541 1.7772 1.7536
2074.044 1.72599 1.73779 1.73406 1.72379 1.70555 1.67619 1.65189 1.6254 1.5831 1.52
2093.337 1.493 1.467 1.421 1.358 1.306 1.29 1.282 1.255 1.236 1.241
2112.631 1.192 1.148 1.119 1.098 1.092 1.072 1.079 1.088 1.085 1.105
2131.924 1.091 1.071 1.064 1.056 1.044 1.013 1.017 1.003 0.975 0.966
2151.218 0.989 0.998 0.968 0.932 0.917 0.937 0.911 0.889 0.908 0.911
2170.511 0.89 0.854 0.827 0.838 0.834 0.836 0.838 0.816 0.806 0.786
2189.804 0.797 0.815 0.793 0.743 0.741 0.758 0.758 0.757 0.755 0.789
2209.098 0.8 0.811 0.828 0.829 0.838 0.867 0.907 0.928 0.938 0.968
2228.391 0.974 0.945 0.96 0.988 0.977 0.962 0.99 1.014 1.03 1.031
2247.685 1.006 1.015 1.032 1.05 1.061 1.033 1.02 1.014 0.991 0.972
2266.978 0.954 0.959 0.945 0.946 0.929 0.883 0.891 0.886 0.903 0.944
2286.272 0.922 0.904 0.952 0.965 0.964 0.996 0.999 1.009 1.007 0.98
2305.565 0.985 1.021 1.041 1.026 1.015 1.014 1.042 1.086 1.069 1.018
2324.858 1.017 1.05 1.082 1.086 1.085 1.121 1.11 1.08 1.058 1.022
2344.152 1.061 1.074 1.036 1.056 1.081 1.078 1.062 1.085 1.08 1.074
2363.445 1.113 1.118 1.1 1.054 1.066 1.079 1.034 1.077 1.15 1.172
2382.739 1.193 1.186 1.194 1.194 1.182 1.198 1.227 1.258 1.261 1.251
2402.032 1.23 1.245 1.245 1.254 1.244 1.22 1.219 1.201 1.209 1.213
2421.326 1.205 1.147 1.101 1.141 1.128 1.093 1.097 1.054 1.039 1.028
2440.619 0.966 0.925 0.913 0.927 0.922 0.909 0.915 0.907 0.912 0.91
2459.912 0.908 0.888 0.88 0.883 0.873 0.857 0.874 0.89 0.854 0.836
2479.206 0.849 0.862 0.836 0.826 0.829 0.8 0.815 0.865 0.849 0.833
2498.499 0.853 0.815 0.798 0.814 0.854 0.893 0.871 0.867 0.884 0.852
2517.793 0.793 0.817 0.847 0.814 0.802 0.825 0.817 0.793 0.809 0.823
2537.086 0.819 0.782 0.749 0.78 0.782 0.737 0.749 0.766 0.722 0.709
2556.380 0.756 0.767 0.744 0.715 0.69 0.677 0.65 0.63 0.63 0.63
2575.673 0.64 0.659 0.693 0.716 0.743 0.762 0.765 0.758 0.765 0.77
2594.966 0.792 0.8 0.79 0.801 0.854 0.849 0.79 0.787 0.808 0.832
2614.260 0.786 0.773 0.797 0.804 0.788 0.724 0.696 0.696 0.718 0.687
2633.553 0.63 0.62 0.58 0.54 0.54 0.56 0.52 0.51 0.51 0.51
2652.847 0.52 0.46 0.44 0.46 0.46 0.49 0.49 0.46 0.45 0.45
2672.140 0.47 0.48 0.51 0.53 0.52 0.47 0.42 0.46 0.51 0.44
2691.434 0.43 0.47 0.45 0.44 0.47 0.49 0.47 0.5 0.55 0.52
2710.727 0.48 0.52 0.56 0.56 0.63 0.663 0.662 0.684 0.712 0.769
2730.020 0.718 0.662 0.716 0.792 0.833 0.832 0.861 0.849 0.837 0.84
2749.314 0.891 0.995 1.037 1.029 1.001 1.014 1.099 1.159 1.168 1.19
2768.607 1.223 1.27 1.347 1.437 1.51 1.525 1.5612 1.64065 1.68271 1.66378
2787.901 1.64978 1.72156 1.8125 1.8789 1.8605 1.882 2.0268 2.0943 2.0663 2.0794
2807.194 2.207 2.3685 2.5433 2.66 2.67 2.78 2.88 2.98 3.16 3.19
2826.488 3.24 3.34 3.43 3.62 3.76 3.95 4.09 4.18 4.4 4.58
2845.781 4.72 4.91 5.13 5.41 5.76 5.98 6.18 6.49 6.86 7.31
2865.074 7.71 8.19 8.77 9.27 9.9 10.6 11.31 12.07 12.81 13.43
2884.368 13.97 14.52 15.08 15.66 16.19 16.68 17.14 17.55 17.98 18.38
2903.661 18.73 18.94 19.15 19.38 19.55 19.7 19.67 19.67 19.71 19.85
2922.955 20.05 20.29 20.84 21.5 22.48 23.77 24.98 26.13 27.17 28.07
2942.248 28.74 29.09 29.38 29.5 29.28 29.03 28.78 28.35 27.77 27.35
2961.542 27.31 27.65 28.53 30.04 32.05 34.58 37.77 41.39 45.23 49.27
2980.835 53.13 56.5 59.45 62.25 64.6 65.93 66.01 64.89 62.69 59.58
3000.128 55.55 50.85 46.11 41.56 36.95 32.41 28 24.09 20.89 18.19
3019.422 15.91 13.95 12.29 10.82 9.56 8.46 7.54 6.78 6.06 5.5
3038.715 4.95 4.39 3.98 3.64 3.35 3.07 2.79 2.6258 2.4364 2.2058
3058.009 1.9753 1.8514 1.8252 1.6394 1.489 1.401 1.324 1.229 1.182 1.261
3077.302 1.16 1.058 1.153 1.118 0.969 0.934 0.996 0.991 0.837 0.822
3096.596 0.932 1.016 1.026 0.985 1.022 1.005 0.98 1.042 1.008 0.948
3115.889 0.982 0.943 0.833 0.777 0.748 0.666 0.696 0.708 0.656 0.692
3135.182 0.691 0.64 0.6 0.653 0.696 0.771 0.688 0.53 0.46 0.46
3154.476 0.5 0.45 0.41 0.44 0.45 0.41 0.44 0.36 0.38 0.45
3173.769 0.33 0.31 0.33 0.31 0.37 0.42 0.36 0.31 0.36 0.42
3193.063 0.38 0.37 0.45 0.47 0.45 0.47 0.48 0.46 0.41 0.4
3212.356 0.44 0.5 0.56 0.54 0.5 0.48 0.37 0.22 0.26 0.37
3231.650 0.38 0.34 0.34 0.25 0.12 0.26 0.31 0.25 0.4 0.43
3250.943 0.31 0.25 0.23 0.18 0.17 0.13 0.11 0.29 0.36 0.13
3270.236 0.06 0.08 0.1 0.18 0.09 0.14 0.21 0.18 0.13 0.11
3289.530 0.14 0 0.1 0.17 0.12 0.2 0.12 0.12 0.17 0.28
3308.823 0.3 0.21 0.21 0.23 0.24 0.21 0.33 0.34 0.15 0.16
3328.117 0.11 0.13 0.31 0.28 0.19 0.17 0.16 0.22 0.4 0.41
3347.410 0.28 0.3 0.42 0.45 0.37 0.31 0.4 0.45 0.37 0.35
3366.704 0.39 0.51 0.56 0.51 0.48 0.43 0.52 0.6 0.6 0.674
3385.997 0.703 0.726 0.657 0.63 0.64 0.64 0.703 0.742 0.66 0.58
3405.290 0.751 0.884 0.8 0.719 0.6 0.49 0.61 0.73 0.62 0.6
3424.584 0.687 0.701 0.794 0.799 0.711 0.727 0.766 0.749 0.778 0.912
3443.877 0.977 1.068 1.067 1.038 1.074 1.12 1.219 1.171 1.198 1.385
3463.171 1.462 1.5903 1.71559 1.753 1.8614 1.919 1.9173 1.9413 1.9017 1.8571
3482.464 1.9043 1.9769 2.007 1.9788 1.9333 1.9386 1.9009 1.8813 1.9715 1.9464
3501.758 1.8823 1.9259 1.8965 1.8082 1.796 1.8659 1.9702 1.9956 1.9093 1.8464
3521.051 1.9461 2.1183 2.2571 2.2186 2.2229 2.3044 2.3511 2.5997 2.85 2.97
3540.344 3.22 3.63 4.05 4.56 5.28 6.09 6.98 8.06 9.27 10.48
3559.638 11.68 13.02 14.49 15.87 17.07 18.11 18.95 19.66 20.21 20.49
3578.931 20.61 20.46 20.02 19.53 18.81 17.9 17.14 16.2 15.08 14.09
3598.225 13 11.92 10.97 10.16 9.47 8.7 8.01 7.48 7.04 6.66
3617.518 6.35 6.28 6.35 6.48 6.8 7.23 7.72 8.3 8.84 9.1
3636.812 9.13 9.12 8.97 8.69 8.45 8.22 7.87 7.26 6.52 5.74
3656.105 4.88 4.11 3.54 3.14 2.84 2.6072 2.3584 2.182 2.0061 1.869
3675.398 1.7896 1.6311 1.507 1.5837 1.6336 1.454 1.288 1.207 1.231 1.316
3694.692 1.346 1.287 1.172 1.182 1.138 1.007 0.984 1.006 0.994 0.902
3713.985 0.893 0.991 1.003 0.929 0.951 1.013 0.937 0.816 0.792 0.889
3733.279 0.971 0.949 0.866 0.802 0.824 0.81 0.842 0.9 0.852 0.861
3752.572 0.877 0.903 0.903 0.899 0.907 0.884 0.943 0.928 0.864 0.787
3771.866 0.799 0.895 0.961 0.917 0.853 0.945 0.959 0.921 0.889 0.895
3791.159 0.963 1.02 1.062 1.027 1.11 1.191 1.105 1.01 0.97 1.081
3810.452 1.174 1.141 1.078 1.023 1.101 1.172 1.163 1.088 1.097 1.144
3829.746 1.07 1.056 1.051 1.136 1.194 1.218 1.197 1.103 1.092 1.001
3849.039 1.035 1.156 1.214 1.182 1.21 1.195 1.095 1.089 1.102 1.091
3868.333 1.082 1.189 1.24 1.155 1.026 0.988 1.123 1.165 1.086 1.116
3887.626 1.198 1.241 1.247 1.186 1.12 1.124 1.18 1.224 1.228 1.245
3906.920 1.298 1.258 1.241 1.312 1.331 1.286 1.308 1.408 1.47 1.422
3926.213 1.291 1.277 1.258 1.195 1.155 1.133 1.086 1.047 1.068 1.109
3945.506 1.114 1.111 1.002 0.933 0.942 0.859 0.877 0.89 0.876 0.918
3964.800 0.887 0.856 0.892 0.927 0.982 1.01 0.995 0.985 0.983 0.979
3984.093 0.975 0.976 1.035 1.082 1.003 0.975 0.949 0.876 0.92
##END=
