##TITLE=cis-4-Methyl-2-pentene
##JCAMP-DX=4.24
##DATA TYPE=INFRARED SPECTRUM
##ORIGIN=NIST Mass Spectrometry Data Center
##OWNER=NIST Standard Reference Data Program
Collection (C) 2018 copyright by the U.S. Secretary of Commerce
on behalf of the United States of America. All rights reserved.
##CAS REGISTRY NO=691-38-3
##MOLFORM=C 6 H 12
##$NIST SOURCE=MSDC-IR
##SPECTROMETER/DATA SYSTEM=HP-GC/MS/IRD
##STATE=gas
##XUNITS=1/CM
##YUNITS=ABSORBANCE
##XFACTOR=1.0
##YFACTOR=0.000004900
##DELTAX=4.0
##FIRSTX=550.0
##LASTX=3846.0
##FIRSTY=0.000108
##MAXX=3846
##MINX=550
##MAXY=0.049
##MINY=0
##NPOINTS=825
##XYDATA=(X++(Y..Y))
550.0 22 49 57 42 41 62 74 109 169 219
590.0 229 221 224 218 171 121 79 47 50 52
630.0 21 7 20 24 40 48 57 91 106 115
670.0 148 189 260 378 537 753 1021 1360 1725 2040
710.0 2266 2401 2462 2405 2205 1870 1484 1146 834 570
750.0 386 258 188 161 136 103 85 67 68 84
790.0 72 70 92 114 130 141 150 151 162 173
830.0 139 108 90 77 68 58 56 52 51 55
870.0 53 52 63 65 68 73 79 87 87 98
910.0 109 118 139 164 203 277 377 502 632 735
950.0 799 832 824 790 705 553 406 294 224 186
990.0 156 142 131 126 126 126 118 119 136 133
1030.0 129 141 136 127 120 108 105 110 114 137
1070.0 153 169 203 218 251 296 320 340 359 374
1110.0 370 349 330 306 265 238 226 216 220 248
1150.0 279 306 317 318 301 264 223 182 142 104
1190.0 80 74 79 92 93 90 91 87 86 84
1230.0 84 83 90 103 110 114 126 142 157 167
1270.0 176 194 231 289 369 467 561 629 670 670
1310.0 573 436 340 295 281 278 283 309 356 409
1350.0 479 563 656 735 779 871 946 944 930 900
1390.0 880 870 860 860 856 850 839 805 770 744
1430.0 725 736 799 894 1008 1104 1163 1211 1267 1280
1470.0 1219 1094 949 829 714 602 504 418 361 324
1510.0 290 266 252 245 233 224 216 210 199 187
1550.0 180 171 163 150 144 144 131 122 120 114
1590.0 112 113 108 107 108 106 111 118 129 145
1630.0 159 174 199 223 250 286 323 352 368 379
1670.0 383 372 348 322 290 246 213 187 154 126
1710.0 111 102 90 82 79 78 81 78 69 69
1750.0 71 66 55 46 45 44 36 28 26 27
1790.0 28 24 22 23 22 21 19 19 20 22
1830.0 24 21 16 16 21 20 19 21 22 23
1870.0 22 25 27 27 27 22 21 23 22 23
1910.0 24 26 25 24 22 19 18 16 20 19
1950.0 16 19 20 22 31 36 33 39 46 45
1990.0 46 47 42 39 41 39 31 28 24 18
2030.0 21 21 18 18 22 25 23 21 22 20
2070.0 16 15 12 17 20 10 7 13 9 6
2110.0 10 13 15 10 11 13 10 8 4 4
2150.0 3 0 0 4 5 2 4 13 16 13
2190.0 10 11 11 8 6 7 7 8 8 6
2230.0 13 10 8 9 10 13 13 19 25 25
2270.0 27 28 27 27 23 25 29 25 20 14
2310.0 15 22 27 21 15 16 17 17 20 20
2350.0 23 27 30 30 31 33 30 31 35 36
2390.0 37 36 33 30 34 38 37 35 29 27
2430.0 28 34 38 34 36 39 36 37 38 35
2470.0 34 35 36 35 32 38 42 42 43 43
2510.0 45 37 32 39 42 43 38 38 47 48
2550.0 48 50 60 65 61 64 70 69 69 73
2590.0 72 67 70 76 75 76 82 80 72 71
2630.0 71 65 58 59 62 59 56 61 63 63
2670.0 66 63 62 73 83 80 82 91 105 121
2710.0 137 158 175 188 203 216 218 217 219 217
2750.0 217 211 211 221 227 230 233 238 242 253
2790.0 264 285 314 331 351 372 401 433 464 512
2830.0 565 624 707 815 954 1144 1397 1743 2174 2652
2870.0 3066 3330 3501 3635 3696 3695 3668 3642 3696 3838
2910.0 4053 4325 4640 4983 5351 5670 5895 6122 6421 6783
2950.0 7305 8076 9167 10000 9837 9440 8913 8045 7019 5765
2990.0 4648 3901 3512 3360 3385 3517 3687 3677 3390 3071
3030.0 2770 2410 2044 1709 1423 1193 1027 912 825 761
3070.0 714 665 620 576 536 493 439 390 355 324
3110.0 299 286 262 250 246 231 220 224 228 225
3150.0 216 214 204 199 204 205 207 205 196 178
3190.0 164 165 168 158 143 133 128 119 111 91
3230.0 81 79 72 67 56 48 48 52 57 57
3270.0 54 58 66 66 61 58 64 75 75 71
3310.0 75 77 70 64 53 58 56 46 47 44
3350.0 41 43 44 49 50 40 46 45 40 48
3390.0 48 55 50 42 38 35 35 24 27 32
3430.0 30 29 28 30 34 37 35 34 31 28
3470.0 26 24 29 32 22 13 15 24 26 28
3510.0 34 33 22 21 35 44 45 33 25 31
3550.0 31 29 21 26 31 27 32 25 26 30
3590.0 20 16 17 25 19 14 21 20 20 21
3630.0 24 12 13 16 5 8 14 15 10 16
3670.0 22 29 32 27 23 31 41 34 23 20
3710.0 23 32 38 34 34 26 32 42 29 23
3750.0 23 20 21 29 29 22 24 31 31 35
3790.0 43 34 28 24 24 35 38 45 53 50
3830.0 57 60 56 55 43
##END=
