##TITLE=3-Iodobenzonitrile
##JCAMP-DX=4.24
##DATA TYPE=INFRARED SPECTRUM
##ORIGIN=EPA-IR VAPOR PHASE LIBRARY
##OWNER=SRD/NIST
Collection (C) 2018 copyright by the U.S. Secretary of Commerce
on behalf of the United States of America. All rights reserved.
##CAS REGISTRY NO=69113-59-3
##MOLFORM=C 7 H 4 I N
##$NIST SOURCE=MSDC-IR
##STATE=gas
##XUNITS=1/CM
##YUNITS=ABSORBANCE
##XFACTOR=1.
##YFACTOR=0.001
##DELTAX=1.92898
##FIRSTX=549.8
##LASTX=4000.7
##FIRSTY=1.731
##MAXX=4000.7
##MINX=549.759
##MAXY=0.062501
##MINY=0
##NPOINTS=1790
##XYDATA=(X++(Y..Y))
549.759 1.731 1.931 1.521 1.2663 1.411 1.741 1.931 2.151 2.191 2.511
569.049 2.991 2.541 1.991 1.761 1.591 1.451 1.441 1.381 1.031 1.0284
588.339 0.8922 0.7086 0.8907 0.8199 0.672 0.6088 0.6032 0.7831 0.8058 0.7631
607.628 0.7898 0.7438 0.7377 0.562 0.501 0.6752 0.7855 0.9211 0.9748 1.0125
626.918 0.9721 0.9597 1.104 1.321 1.581 2.001 2.331 2.381 2.801 3.701
646.208 4.891 6.431 8.741 11.821 14.601 16.011 16.191 16.241 17.991 19.431
665.498 18.711 18.001 18.631 20.481 22.711 24.931 27.141 28.401 26.051 23.031
684.787 21.771 19.971 17.501 14.861 12.281 10.261 8.541 6.721 5.341 4.441
704.077 3.551 2.851 2.391 2.051 1.831 1.611 1.521 1.541 1.641 1.671
723.367 1.741 1.991 2.211 2.671 3.171 3.711 4.371 4.821 5.041 4.941
742.657 4.751 4.421 4.101 3.831 3.401 3.121 3.251 3.621 4.391 5.771
761.947 7.641 9.921 12.841 16.581 21.381 27.151 32.851 37.771 41.781 46.541
781.236 53.671 62.161 62.501 51.881 45.351 45.141 44.641 43.211 40.651 38.051
800.526 35.761 33.461 31.341 28.771 25.511 22.181 19.031 15.711 12.411 9.681
819.816 7.521 5.831 4.491 3.761 3.421 3.091 2.891 2.741 2.591 2.581
839.106 2.521 2.271 2.021 1.741 1.491 1.471 1.2579 0.8763 0.7994 0.8418
858.395 0.9579 1.0566 1.2307 1.511 1.761 2.271 2.821 3.541 4.331 5.031
877.685 5.871 6.921 7.771 8.411 9.111 9.721 10.321 9.691 8.231 7.591
896.975 7.171 6.591 6.161 5.661 5.101 4.711 4.391 4.161 4.041 3.911
916.265 3.391 2.861 2.671 2.461 2.371 2.351 2.201 2.211 2.241 2.141
935.555 2.301 2.481 2.591 2.681 2.521 2.101 1.901 1.661 1.371 1.0874
954.844 0.8732 0.8672 0.731 0.6743 0.5856 0.5763 0.764 0.698 0.5732 0.7664
974.134 0.9368 1.1504 1.521 1.671 1.871 2.431 3.411 4.761 6.431 7.531
993.424 8.051 8.931 9.981 10.511 9.671 8.151 7.101 6.111 4.811 3.531
1012.714 2.841 2.391 1.891 1.651 1.501 1.381 1.1763 1.2381 1.681 2.061
1032.003 2.111 2.381 3.021 3.491 4.011 4.521 4.931 5.281 5.141 5.351
1051.293 6.041 6.311 6.631 7.311 8.341 9.491 10.911 12.561 14.251 15.661
1070.583 16.221 16.241 16.091 15.681 14.321 12.031 9.251 6.801 5.511 5.061
1089.873 4.131 3.121 2.821 2.401 1.891 1.651 1.551 1.1275 0.9503 1.1811
1109.163 1.511 1.341 1.1872 1.491 1.441 1.431 1.421 1.1042 1.1415 1.0792
1128.452 1.1715 1.234 0.8027 1.0354 1.421 1.2589 1.1271 1.2159 1.1354 0.8692
1147.742 1.059 1.2974 1.1453 1.1505 1.371 1.441 1.381 1.491 1.741 1.941
1167.032 2.241 2.601 2.941 3.601 4.691 6.151 8.201 10.551 12.671 14.381
1186.322 15.391 15.671 15.351 14.201 11.301 7.641 5.381 4.121 3.191 2.631
1205.611 2.221 2.231 2.541 2.601 2.231 2.101 2.071 1.611 1.381 1.331
1224.901 0.9225 0.7579 0.9916 1.2273 1.451 1.471 1.521 1.831 2.041 2.331
1244.191 2.831 3.361 3.881 4.281 4.561 4.651 4.391 4.271 4.111 3.631
1263.481 3.131 2.611 2.081 1.691 1.661 1.491 1.351 1.401 1.292 1.1968
1282.771 1.2764 1.361 1.391 1.491 1.731 2.141 2.591 2.971 3.461 3.871
1302.060 3.991 3.851 3.631 3.541 3.221 2.651 2.151 1.771 1.531 1.381
1321.350 1.2291 1.0744 0.9809 0.9588 0.9454 0.9704 1.0014 1.059 1.1651 1.301
1340.640 1.431 1.491 1.511 1.521 1.541 1.521 1.491 1.371 1.2458 1.114
1359.930 0.9825 0.8915 0.8363 0.8625 0.8876 0.9136 1.0213 1.1833 1.451 1.791
1379.219 2.251 2.851 3.641 4.661 5.871 7.261 8.831 10.541 12.021 13.091
1398.509 13.631 13.841 14.011 14.021 13.581 12.301 10.561 9.151 8.161 7.281
1417.799 6.231 5.161 4.301 3.661 3.161 2.811 2.641 2.541 2.561 2.681
1437.089 2.921 3.451 4.251 5.321 6.701 8.401 10.301 12.091 13.671 14.731
1456.378 15.501 16.451 17.821 19.751 22.301 25.401 27.871 28.571 27.951 26.981
1475.668 25.151 21.581 16.171 10.661 6.941 4.741 3.381 2.531 1.951 1.661
1494.958 1.521 1.431 1.421 1.361 1.341 1.321 1.351 1.441 1.471 1.531
1514.248 1.621 1.721 1.881 2.061 2.271 2.581 3.031 3.611 4.441 5.421
1533.538 6.541 7.881 9.271 10.901 12.751 14.961 17.601 20.951 25.191 30.391
1552.827 36.021 41.761 46.271 48.921 49.541 48.311 45.221 40.171 33.071 24.931
1572.117 18.641 15.151 13.521 12.981 13.251 14.011 14.771 14.971 14.391 13.271
1591.407 11.801 10.071 8.071 5.931 4.121 2.911 2.231 1.841 1.581 1.441
1610.697 1.441 1.491 1.461 1.371 1.2801 1.2514 1.2539 1.1565 1.0938 0.9911
1629.986 0.8713 0.8369 0.7624 0.777 0.8855 0.8833 0.8126 0.7952 0.7546 0.7748
1649.276 0.899 0.922 0.8749 0.8887 0.8887 0.8706 0.894 0.9181 0.9718 1.0053
1668.566 0.9779 0.9521 1.006 1.108 1.1803 1.2296 1.391 1.661 2.061 2.611
1687.856 3.231 3.841 4.331 4.541 4.461 4.211 3.771 3.231 2.721 2.041
1707.146 1.441 1.0963 0.9042 0.8135 0.8071 0.8555 0.8228 0.7877 0.8197 0.802
1726.435 0.7725 0.802 0.7981 0.7289 0.7703 0.8434 0.8439 0.8709 0.939 1.021
1745.725 1.075 1.1429 1.2724 1.401 1.481 1.571 1.761 1.901 1.971 2.101
1765.015 2.241 2.341 2.421 2.441 2.421 2.381 2.321 2.221 2.161 2.131
1784.305 2.041 1.941 1.961 1.991 2.041 2.091 2.131 2.231 2.201 2.161
1803.594 2.181 2.141 2.081 2.031 1.971 1.941 1.931 1.891 1.901 1.881
1822.884 1.881 1.861 1.851 1.811 1.621 1.491 1.391 1.2451 1.1108 1.0516
1842.174 1.0157 0.9996 1.0555 1.089 1.1197 1.1773 1.2407 1.2505 1.2589 1.2974
1861.464 1.311 1.321 1.381 1.481 1.591 1.821 2.151 2.481 2.831 3.201
1880.754 3.551 3.701 3.661 3.471 3.151 2.781 2.351 1.901 1.471 1.133
1900.043 0.9019 0.7332 0.6803 0.6827 0.6088 0.5776 0.6148 0.6598 0.6644 0.6803
1919.333 0.7845 0.8689 0.895 0.9726 1.1147 1.1801 1.311 1.551 1.751 1.961
1938.623 2.131 2.301 2.451 2.471 2.411 2.351 2.301 2.141 1.971 1.801
1957.913 1.531 1.321 1.1668 1.0024 0.8722 0.7948 0.7026 0.6986 0.7061 0.6488
1977.202 0.6048 0.6233 0.6698 0.6332 0.5596 0.5819 0.6378 0.6433 0.6409 0.6018
1996.492 0.6003 0.5704 0.5453 0.5767 0.5607 0.5349 0.5027 0.5163 0.5324 0.5025
2015.782 0.4772 0.4651 0.4859 0.497 0.4909 0.4552 0.4317 0.4428 0.4303 0.39382
2035.072 0.38868 0.37242 0.37883 0.4292 0.4476 0.4619 0.4458 0.4748 0.5269 0.5054
2054.362 0.5091 0.4776 0.429 0.4332 0.4834 0.5385 0.487 0.482 0.5214 0.5044
2073.651 0.5292 0.567 0.4852 0.4459 0.4617 0.4795 0.533 0.5171 0.4636 0.4578
2092.941 0.507 0.5051 0.5091 0.4826 0.4918 0.5205 0.4542 0.5027 0.5548 0.5397
2112.231 0.5371 0.5678 0.5423 0.5013 0.5428 0.5676 0.5323 0.5122 0.5334 0.5211
2131.521 0.5287 0.5057 0.4735 0.5246 0.5012 0.4525 0.4396 0.4239 0.4728 0.4776
2150.810 0.473 0.5078 0.5527 0.5623 0.5746 0.5645 0.5377 0.5885 0.5948 0.5345
2170.100 0.5029 0.5335 0.5839 0.6289 0.6024 0.5415 0.5637 0.6624 0.6734 0.5791
2189.390 0.5034 0.5041 0.5452 0.5833 0.6142 0.633 0.6718 0.7367 0.7427 0.7328
2208.680 0.8173 0.9839 1.113 1.321 1.651 1.951 2.501 3.161 3.851 4.821
2227.970 5.841 6.731 7.471 7.831 7.821 7.491 6.861 6.011 4.911 3.781
2247.259 2.751 1.991 1.591 1.331 1.1656 0.9867 0.8253 0.7922 0.8111 0.7492
2266.549 0.6982 0.7275 0.7126 0.6473 0.6547 0.7083 0.6811 0.6622 0.6442 0.596
2285.839 0.5883 0.6303 0.6961 0.733 0.6542 0.5547 0.5848 0.6083 0.5856 0.5933
2305.129 0.5587 0.5451 0.5678 0.5786 0.5707 0.4988 0.4584 0.4488 0.4798 0.5319
2324.418 0.5736 0.5812 0.5916 0.6417 0.6869 0.7756 0.8789 0.9841 1.108 1.209
2343.708 1.2078 1.2465 1.331 1.321 1.296 1.2857 1.2685 1.1916 1.1345 1.1306
2362.998 1.1021 1.0859 1.0628 1.0199 0.9651 0.9816 0.9999 0.9697 0.98 0.9152
2382.288 0.889 0.9498 0.9185 0.8467 0.7975 0.8128 0.8031 0.7714 0.7654 0.6923
2401.578 0.5937 0.5758 0.5906 0.5925 0.5532 0.5588 0.5745 0.5644 0.5871 0.5581
2420.867 0.6038 0.6105 0.5929 0.6188 0.6677 0.6806 0.6337 0.6648 0.6392 0.5641
2440.157 0.5212 0.4866 0.5076 0.5166 0.5296 0.5507 0.5204 0.5156 0.5415 0.6265
2459.447 0.709 0.7518 0.7549 0.6917 0.7231 0.7936 0.8251 0.7969 0.7953 0.8585
2478.737 0.8562 0.8248 0.7493 0.7863 0.8652 0.8577 0.8224 0.7829 0.7969 0.7652
2498.026 0.752 0.7775 0.7934 0.8649 0.8623 0.8479 0.8595 0.8581 0.9036 0.9292
2517.316 0.943 0.892 0.7795 0.7056 0.6621 0.6433 0.6552 0.6315 0.5507 0.5048
2536.606 0.5359 0.6041 0.5881 0.587 0.6131 0.609 0.6324 0.5907 0.5579 0.6035
2555.896 0.5777 0.499 0.52 0.5758 0.676 0.7312 0.6987 0.7504 0.7991 0.7434
2575.186 0.7738 0.8006 0.774 0.7717 0.7494 0.7365 0.7221 0.7108 0.6513 0.649
2594.475 0.7059 0.7124 0.6984 0.6157 0.562 0.5868 0.588 0.6287 0.6269 0.597
2613.765 0.595 0.5529 0.5779 0.6304 0.6695 0.6719 0.6063 0.5798 0.5404 0.5695
2633.055 0.6165 0.6158 0.5752 0.5448 0.6033 0.6444 0.625 0.5885 0.55 0.5043
2652.345 0.5608 0.5972 0.6302 0.6688 0.5977 0.6025 0.6004 0.5737 0.6037 0.5854
2671.634 0.5859 0.6601 0.6666 0.5764 0.5835 0.6502 0.6466 0.5773 0.657 0.787
2690.924 0.7751 0.7326 0.7229 0.735 0.6276 0.6503 0.7159 0.6095 0.5927 0.6483
2710.214 0.6015 0.544 0.5212 0.5164 0.5129 0.5115 0.5391 0.5615 0.5498 0.5322
2729.504 0.5786 0.6559 0.7004 0.6909 0.6598 0.7046 0.8672 0.8965 0.7905 0.7296
2748.794 0.8005 0.8082 0.8377 0.9513 0.9143 0.8718 0.9703 1.0249 1.0289 1.063
2768.083 1.0769 1.0776 1.0286 1.0379 0.9957 0.9798 1.0193 0.9242 0.7817 0.6984
2787.373 0.7523 0.7223 0.5979 0.5854 0.6184 0.6385 0.6473 0.5812 0.4907 0.4973
2806.663 0.5028 0.4979 0.5444 0.6029 0.5986 0.568 0.5495 0.5727 0.5356 0.5062
2825.953 0.499 0.4682 0.4433 0.4266 0.4587 0.5327 0.5804 0.5993 0.6322 0.5771
2845.242 0.5389 0.494 0.5161 0.6091 0.5751 0.5416 0.4917 0.4465 0.5022 0.5214
2864.532 0.4203 0.4295 0.5919 0.6001 0.5093 0.4968 0.5455 0.4923 0.498 0.5507
2883.822 0.4631 0.4296 0.4784 0.4898 0.4447 0.38664 0.35074 0.37652 0.5177 0.5179
2903.112 0.4817 0.593 0.5561 0.4601 0.4125 0.455 0.5271 0.508 0.5229 0.5864
2922.401 0.659 0.6537 0.6322 0.7123 0.7523 0.7073 0.6846 0.654 0.6439 0.6484
2941.691 0.5123 0.4822 0.4582 0.3983 0.4733 0.5056 0.489 0.4542 0.402 0.4106
2960.981 0.4575 0.478 0.4918 0.4504 0.39508 0.34983 0.35264 0.4121 0.4205 0.37485
2980.271 0.4345 0.4644 0.493 0.5144 0.5509 0.7081 0.6847 0.6424 0.6803 0.7025
2999.561 0.6968 0.6885 0.7394 0.7054 0.6315 0.7437 0.8594 0.9896 0.9985 0.9462
3018.850 0.9819 0.9482 0.9281 0.9747 0.9496 0.8466 0.8689 0.8977 1.007 1.0971
3038.140 1.0839 1.1222 1.162 1.2289 1.2442 1.361 1.551 1.731 2.011 2.301
3057.430 2.751 3.281 3.831 4.491 5.211 6.041 6.781 7.311 7.691 7.921
3076.720 8.291 8.261 7.741 7.111 6.461 5.811 5.111 4.411 3.861 3.551
3096.009 3.231 2.921 2.641 2.291 1.871 1.651 1.581 1.341 1.1719 1.0112
3115.299 0.8769 0.8962 0.9523 0.8641 0.8609 0.8898 0.7996 0.7861 0.8151 0.8045
3134.589 0.727 0.6597 0.7175 0.7646 0.7297 0.5938 0.5327 0.6566 0.7095 0.6981
3153.879 0.6296 0.6259 0.6353 0.5126 0.5021 0.5878 0.7126 0.7651 0.6531 0.6999
3173.169 0.7188 0.5758 0.5002 0.5155 0.4695 0.436 0.39209 0.4096 0.5005 0.5185
3192.458 0.5287 0.39179 0.274 0.302359 0.32296 0.32407 0.37944 0.416 0.33421 0.2438
3211.748 0.2837 0.33565 0.35844 0.4218 0.34213 0.2865 0.32074 0.33837 0.36768 0.2802
3231.038 0.2385 0.352 0.39028 0.310598 0.32637 0.38654 0.4379 0.4412 0.37185 0.37679
3250.328 0.4053 0.36012 0.2707 0.33277 0.4439 0.38423 0.2286 0.2382 0.4243 0.3964
3269.617 0.2847 0.2835 0.3698 0.4122 0.32586 0.26 0.33024 0.4106 0.38614 0.4213
3288.907 0.4835 0.5279 0.5101 0.5069 0.5324 0.5014 0.4993 0.4143 0.33754 0.4507
3308.197 0.4855 0.4474 0.4942 0.514 0.5437 0.5609 0.4973 0.4176 0.4592 0.38814
3327.487 0.2797 0.36908 0.31678 0.2799 0.4555 0.4048 0.2863 0.29473 0.36666 0.4036
3346.777 0.32569 0.35303 0.4476 0.38785 0.2775 0.31688 0.4148 0.4739 0.4792 0.4255
3366.066 0.34836 0.37777 0.5231 0.4798 0.471 0.4861 0.29841 0.4097 0.6043 0.5201
3385.356 0.417 0.411 0.4604 0.38975 0.4247 0.4498 0.4167 0.4935 0.5757 0.6768
3404.646 0.589 0.6495 0.7303 0.837 1.0518 1.0135 1.008 1.0083 0.9069 0.8636
3423.936 0.892 0.9021 0.848 0.8239 0.7432 0.6257 0.5632 0.5149 0.4618 0.4486
3443.225 0.4459 0.5424 0.4273 0.32538 0.4796 0.4745 0.4414 0.34956 0.32101 0.4187
3462.515 0.479 0.502 0.4727 0.5156 0.4682 0.38381 0.408 0.32223 0.2865 0.4299
3481.805 0.5458 0.4594 0.4473 0.4804 0.4535 0.4973 0.4813 0.4369 0.4473 0.3907
3501.095 0.39403 0.4955 0.464 0.38147 0.4978 0.427 0.2653 0.2763 0.31956 0.4046
3520.385 0.4798 0.4917 0.482 0.4871 0.528 0.543 0.4633 0.406 0.309824 0.327
3539.674 0.4743 0.5177 0.5452 0.595 0.5378 0.4441 0.4074 0.5098 0.4712 0.2858
3558.964 0.2771 0.34279 0.40001 0.4465 0.4607 0.4189 0.4295 0.4234 0.32802 0.34128
3578.254 0.35847 0.4038 0.40023 0.32405 0.35774 0.39161 0.33602 0.4142 0.4303 0.2588
3597.544 0.2318 0.33402 0.37812 0.278 0.2818 0.34358 0.4719 0.4698 0.32906 0.32247
3616.833 0.305951 0.3383 0.3176 0.33588 0.4841 0.5346 0.4934 0.4481 0.471 0.4798
3636.123 0.4512 0.35528 0.348 0.4626 0.3124 0.2138 0.37158 0.417 0.34226 0.37966
3655.413 0.39281 0.426 0.5604 0.5319 0.39318 0.358 0.4145 0.34137 0.33414 0.4536
3674.703 0.4649 0.4388 0.39676 0.40072 0.5208 0.6046 0.6095 0.5 0.3468 0.4686
3693.993 0.6095 0.5657 0.4917 0.4408 0.4752 0.4424 0.439 0.5359 0.38288 0.34281
3713.282 0.449 0.4166 0.39722 0.4349 0.38123 0.32114 0.39224 0.5013 0.5017 0.4909
3732.572 0.5802 0.6844 0.7893 0.7403 0.6744 0.6332 0.7027 0.76 0.6066 0.5476
3751.862 0.5598 0.6411 0.6559 0.5547 0.5741 0.6109 0.5168 0.308315 0.093 0
3771.152 0.2906 0.497 0.4864 0.5619 0.4093 0.31196 0.36689 0.38991 0.2609 0.144
3790.441 0.2434 0.2298 0.19 0.175 0.32462 0.5134 0.5163 0.5033 0.4595 0.509
3809.731 0.6162 0.6132 0.5864 0.5116 0.4698 0.5731 0.6586 0.6069 0.443 0.4329
3829.021 0.52 0.4235 0.444 0.4235 0.2079 0.2284 0.2881 0.197 0.2246 0.34546
3848.311 0.2895 0.2667 0.3869 0.3624 0.4011 0.4413 0.4289 0.3752 0.5202 0.6618
3867.601 0.4728 0.4923 0.5071 0.5472 0.5933 0.473 0.5214 0.6522 0.7428 0.6618
3886.890 0.475 0.443 0.4921 0.5042 0.4264 0.4123 0.4636 0.31422 0.2229 0.32444
3906.180 0.29496 0.2017 0.300269 0.4092 0.307657 0.4241 0.4866 0.4399 0.4514 0.2905
3925.470 0.32826 0.459 0.4316 0.4238 0.4455 0.4436 0.306078 0.112 0.2901 0.4027
3944.760 0.2618 0.2865 0.38056 0.5502 0.4897 0.33908 0.39734 0.37434 0.4075 0.4343
3964.049 0.37846 0.2834 0.2207 0.35001 0.2874 0.2085 0.2517 0.35612 0.4814 0.33864
3983.339 0.2512 0.3857 0.4465 0.38529 0.39551 0.4367 0.421 0.39914 0.2683 0.124
##END=
