##TITLE=trans-2-Methyl-3-hexene
##JCAMP-DX=4.24
##DATA TYPE=INFRARED SPECTRUM
##ORIGIN=NIST Mass Spectrometry Data Center
##OWNER=NIST Standard Reference Data Program
Collection (C) 2018 copyright by the U.S. Secretary of Commerce
on behalf of the United States of America. All rights reserved.
##CAS REGISTRY NO=692-24-0
##MOLFORM=C 7 H 14
##$NIST SOURCE=MSDC-IR
##SPECTROMETER/DATA SYSTEM=HP-GC/MS/IRD
##STATE=gas
##XUNITS=1/CM
##YUNITS=ABSORBANCE
##XFACTOR=1.0
##YFACTOR=0.000004800
##DELTAX=4.0
##FIRSTX=550.0
##LASTX=3846.0
##FIRSTY=0.000206
##MAXX=3846
##MINX=550
##MAXY=0.048
##MINY=0
##NPOINTS=825
##XYDATA=(X++(Y..Y))
550.0 43 40 36 38 42 30 37 56 43 30
590.0 29 32 44 21 11 23 20 16 20 24
630.0 17 17 31 33 23 9 13 10 7 16
670.0 21 18 21 34 39 41 44 37 27 32
710.0 45 41 41 44 48 40 43 50 44 44
750.0 52 58 60 70 76 82 90 83 80 80
790.0 65 58 67 72 76 78 76 87 104 119
830.0 127 131 133 130 119 108 103 99 98 98
870.0 91 100 118 139 158 171 195 218 235 246
910.0 256 262 285 319 380 470 587 738 899 1059
950.0 1219 1354 1442 1457 1447 1420 1309 1133 940 766
990.0 620 487 393 337 297 292 310 330 319 295
1030.0 282 252 208 180 157 148 155 168 176 180
1070.0 182 184 198 205 213 226 234 228 217 214
1110.0 195 172 159 145 138 132 123 120 130 138
1150.0 137 141 142 137 143 151 159 155 140 131
1190.0 121 104 96 92 84 76 77 79 80 94
1230.0 100 100 112 125 134 145 169 193 203 221
1270.0 243 262 274 282 294 316 344 376 408 441
1310.0 480 520 550 566 562 542 513 486 472 472
1350.0 486 499 519 546 559 584 630 661 664 640
1390.0 589 520 441 375 335 310 301 303 317 348
1430.0 397 457 534 617 707 806 893 989 1055 1065
1470.0 1026 930 812 676 542 428 333 266 218 178
1510.0 145 123 99 84 75 65 56 49 48 52
1550.0 48 37 31 34 35 35 36 39 49 51
1590.0 48 48 46 48 48 49 50 49 52 52
1630.0 49 48 54 55 49 48 50 56 58 56
1670.0 56 55 55 51 47 50 54 53 55 56
1710.0 56 61 63 61 57 58 61 59 57 59
1750.0 59 60 67 72 82 89 95 100 102 102
1790.0 97 92 84 73 65 58 49 41 41 38
1830.0 34 33 31 31 29 24 26 26 24 21
1870.0 23 23 18 14 17 19 17 18 21 13
1910.0 11 14 14 13 8 5 7 9 8 5
1950.0 5 8 5 1 4 8 9 9 7 7
1990.0 6 2 4 8 9 7 10 11 7 6
2030.0 8 6 7 8 7 9 7 5 6 8
2070.0 10 8 5 0 2 7 10 11 8 8
2110.0 4 0 0 4 2 3 5 6 7 7
2150.0 5 5 6 3 2 3 3 0 1 8
2190.0 13 12 6 9 15 12 11 14 12 13
2230.0 14 9 8 10 12 11 11 12 12 10
2270.0 9 9 10 12 13 14 15 12 12 11
2310.0 7 11 15 16 12 13 15 13 9 10
2350.0 11 14 15 15 16 19 19 21 25 26
2390.0 27 28 28 26 26 27 26 23 22 18
2430.0 17 18 13 13 16 16 20 20 22 23
2470.0 21 19 20 23 22 20 16 15 17 18
2510.0 22 21 18 20 20 21 25 29 29 28
2550.0 30 38 46 41 41 51 55 57 59 54
2590.0 52 54 59 58 57 59 56 54 54 53
2630.0 50 54 54 51 51 50 49 48 51 52
2670.0 50 48 49 58 60 56 59 69 79 86
2710.0 95 104 112 123 136 142 153 157 150 155
2750.0 157 158 164 167 165 160 165 168 175 187
2790.0 194 212 234 256 281 309 337 366 406 446
2830.0 496 572 667 786 948 1154 1396 1675 2001 2377
2870.0 2765 3091 3334 3484 3542 3536 3490 3420 3365 3363
2910.0 3406 3463 3544 3683 3886 4168 4501 4810 5118 5527
2950.0 6131 6984 8108 9305 10000 9933 9321 8183 6533 4848
2990.0 3610 2790 2231 1838 1565 1382 1248 1147 1068 984
3030.0 897 817 722 629 561 501 441 398 373 349
3070.0 331 309 294 286 286 275 264 263 250 235
3110.0 230 228 216 208 206 202 190 181 175 170
3150.0 155 142 138 134 135 136 131 130 127 126
3190.0 124 119 115 103 99 103 97 89 85 75
3230.0 61 59 62 59 50 42 37 35 35 37
3270.0 37 33 30 34 37 40 38 37 36 34
3310.0 31 33 39 33 37 38 33 27 31 38
3350.0 32 29 33 38 37 34 31 31 34 25
3390.0 24 30 24 22 32 42 38 33 29 23
3430.0 24 29 29 31 36 38 40 36 35 38
3470.0 29 21 18 16 19 28 32 19 17 16
3510.0 6 15 20 22 25 25 22 22 21 26
3550.0 27 28 31 23 17 25 31 19 15 22
3590.0 21 22 27 24 22 26 26 31 25 20
3630.0 35 39 35 30 26 21 22 22 23 31
3670.0 34 37 36 32 35 32 29 30 33 36
3710.0 35 40 40 31 33 35 31 33 37 40
3750.0 33 27 28 32 36 31 35 49 42 38
3790.0 43 46 53 51 44 41 42 38 37 38
3830.0 30 35 46 45 40
##END=
