##TITLE=trans-2,5-Dimethyl-3-hexene
##JCAMP-DX=4.24
##DATA TYPE=INFRARED SPECTRUM
##ORIGIN=NIST Mass Spectrometry Data Center
##OWNER=NIST Standard Reference Data Program
Collection (C) 2018 copyright by the U.S. Secretary of Commerce
on behalf of the United States of America. All rights reserved.
##CAS REGISTRY NO=692-70-6
##MOLFORM=C 8 H 16
##$NIST SOURCE=MSDC-IR
##SPECTROMETER/DATA SYSTEM=HP-GC/MS/IRD
##STATE=gas
##XUNITS=1/CM
##YUNITS=ABSORBANCE
##XFACTOR=1.0
##YFACTOR=0.000005400
##DELTAX=4.0
##FIRSTX=550.0
##LASTX=3846.0
##FIRSTY=0.000113
##MAXX=3846
##MINX=550
##MAXY=0.054
##MINY=0
##NPOINTS=825
##XYDATA=(X++(Y..Y))
550.0 21 18 8 1 0 16 18 12 20 18
590.0 23 47 49 24 25 24 26 40 44 38
630.0 37 27 26 46 44 29 30 37 29 25
670.0 33 34 33 38 44 50 37 30 40 41
710.0 51 52 43 42 48 52 46 43 47 46
750.0 42 44 46 51 52 50 46 44 48 50
790.0 56 63 68 68 75 88 100 99 89 93
830.0 101 86 81 99 95 91 87 80 78 71
870.0 71 80 78 80 94 107 106 111 126 131
910.0 141 157 174 205 245 280 327 396 508 652
950.0 825 1063 1325 1528 1621 1597 1458 1206 920 683
990.0 517 392 304 240 195 171 154 134 119 113
1030.0 104 100 98 95 94 79 78 92 91 93
1070.0 103 111 124 147 168 194 226 249 252 245
1110.0 235 213 186 160 141 129 117 104 94 97
1150.0 110 128 147 170 204 224 229 215 188 150
1190.0 114 100 98 98 90 81 79 79 81 89
1230.0 97 112 127 141 156 165 156 146 144 146
1270.0 159 179 203 231 265 316 367 411 450 475
1310.0 491 508 524 538 541 528 506 483 460 466
1350.0 496 544 602 645 674 706 741 754 739 694
1390.0 624 530 426 343 283 244 218 211 224 250
1430.0 286 329 392 464 544 639 738 846 942 993
1470.0 975 900 791 655 512 387 292 224 175 143
1510.0 119 100 86 73 65 58 53 48 43 40
1550.0 40 40 42 44 41 44 45 45 45 45
1590.0 47 47 39 33 37 39 33 36 43 45
1630.0 44 45 49 51 51 50 49 50 56 54
1670.0 49 47 50 46 37 37 37 36 36 39
1710.0 40 34 31 38 42 40 41 44 45 47
1750.0 50 59 69 77 83 87 89 90 91 90
1790.0 85 78 74 68 54 44 38 34 31 27
1830.0 24 27 27 23 24 26 24 17 16 17
1870.0 18 21 20 17 15 14 11 14 15 13
1910.0 14 16 14 11 8 10 10 11 10 8
1950.0 7 6 7 7 5 3 4 10 8 6
1990.0 4 2 7 7 5 5 7 8 10 7
2030.0 5 7 10 11 9 8 6 5 6 8
2070.0 4 2 1 2 0 0 0 0 1 2
2110.0 2 3 4 0 0 3 4 0 0 2
2150.0 1 2 3 7 10 10 11 10 7 6
2190.0 7 8 8 5 5 8 8 5 2 2
2230.0 1 4 3 5 7 9 7 4 6 5
2270.0 7 10 10 9 9 10 10 10 9 5
2310.0 8 7 6 4 2 4 4 7 6 6
2350.0 3 0 3 5 10 15 13 14 16 21
2390.0 22 18 15 13 15 14 11 15 18 18
2430.0 13 10 15 17 12 15 20 20 20 24
2470.0 28 29 24 18 18 21 21 18 14 11
2510.0 10 16 21 21 21 23 26 27 30 31
2550.0 32 37 40 42 45 48 56 59 63 69
2590.0 66 64 57 53 56 54 49 46 43 46
2630.0 47 50 53 50 47 46 46 45 47 49
2670.0 45 44 45 48 53 52 56 62 69 80
2710.0 87 100 113 125 132 127 126 131 134 133
2750.0 132 137 140 138 140 141 141 142 144 145
2790.0 153 162 170 182 203 224 236 252 271 292
2830.0 320 358 410 479 574 710 902 1172 1545 2013
2870.0 2474 2803 2974 3008 2920 2764 2642 2588 2571 2593
2910.0 2637 2687 2762 2872 3033 3239 3485 3764 4100 4581
2950.0 5350 6520 8000 9380 10000 9633 8493 6763 4857 3355
2990.0 2396 1790 1400 1143 975 864 796 735 675 624
3030.0 569 507 445 398 360 321 297 280 264 251
3070.0 249 242 226 220 215 212 212 201 189 177
3110.0 163 152 142 135 128 121 121 123 120 118
3150.0 121 123 122 127 129 131 142 144 142 142
3190.0 137 135 131 121 114 108 103 97 96 88
3230.0 79 70 64 61 57 57 48 38 33 30
3270.0 35 38 39 36 32 34 37 35 38 39
3310.0 34 34 43 42 38 41 44 39 45 45
3350.0 40 40 39 37 36 38 39 40 35 27
3390.0 27 25 25 28 28 31 28 23 30 32
3430.0 28 31 32 25 20 18 23 34 37 37
3470.0 37 32 33 29 27 27 25 28 24 14
3510.0 18 21 20 20 17 20 25 22 23 24
3550.0 18 12 14 20 25 18 10 13 12 8
3590.0 12 18 21 21 23 16 2 5 11 13
3630.0 20 24 17 16 16 17 23 15 14 18
3670.0 16 17 20 21 20 22 24 19 15 11
3710.0 5 13 28 33 31 19 19 27 18 11
3750.0 22 27 18 21 23 23 28 26 26 39
3790.0 45 39 35 34 35 38 43 45 44 36
3830.0 31 42 41 37 44
##END=
