##TITLE=10-Dodecyn-1-ol
##JCAMP-DX=4.24
##DATA TYPE=INFRARED SPECTRUM
##ORIGIN=EPA-IR VAPOR PHASE LIBRARY
##OWNER=SRD/NIST
Collection (C) 2018 copyright by the U.S. Secretary of Commerce
on behalf of the United States of America. All rights reserved.
##CAS REGISTRY NO=69221-99-4
##MOLFORM=C 12 H 22 O
##$NIST SOURCE=MSDC-IR
##STATE=gas
##XUNITS=1/CM
##YUNITS=ABSORBANCE
##XFACTOR=1.
##YFACTOR=0.001
##DELTAX=1.92898
##FIRSTX=549.8
##LASTX=4000.7
##FIRSTY=1.458
##MAXX=4000.7
##MINX=549.759
##MAXY=0.144388
##MINY=0
##NPOINTS=1790
##XYDATA=(X++(Y..Y))
549.759 1.458 1.928 2.098 1.628 1.3125 2.008 1.888 1.458 1.3285 1.1525
569.049 1.2492 1.2551 1.219 1.418 1.898 1.244 0.4582 0.6754 0.8626 0.7743
588.339 1.368 1.688 0.9772 0.8256 0.6703 0.5857 0.9521 0.8819 1.1086 1.1367
607.628 0.7778 0.9407 1.448 1.478 1.538 1.668 1.0806 0.7269 1.18 0.8073
626.918 0.4215 0.5341 0.3233 0.7239 1.2246 0.95 0.6863 0.4827 0.5766 0.9112
646.208 0.5211 0.38486 0.4524 0.2598 0.8466 1.1848 0.8911 0.6173 0.38001 0.35303
665.498 0.4667 0.166 0.05 0.5924 0.6745 0.8795 1.0826 1.0631 1.0858 0.8409
684.787 1.0542 1.588 1.748 1.3118 0.9807 1.0654 1.0257 0.7807 0.9908 1.378
704.077 1.488 1.748 1.618 1.768 2.068 2.268 2.058 1.928 2.118 1.778
723.367 1.708 2.368 2.778 2.008 1.2919 1.3322 1.428 1.718 1.998 2.168
742.657 1.758 1.3046 1.1063 1.0065 1.658 1.568 1.1816 1.0943 1.2404 1.788
761.947 1.888 1.1797 0.9124 1.1944 1.1088 1.2246 1.2722 1.1015 1.3215 1.3246
781.236 1.2421 1.488 1.678 1.478 1.398 1.778 1.848 1.828 1.478 1.2556
800.526 1.438 1.398 1.1968 1.116 1.029 0.9141 1.2312 1.2928 1.2649 1.2552
819.816 1.638 2.538 2.838 2.388 1.608 0.9489 0.8645 1.338 1.618 1.348
839.106 0.9558 0.8599 1.1368 1.348 1.558 1.438 1.378 1.478 1.284 1.548
858.395 1.548 1.498 1.818 2.018 2.288 2.198 1.738 1.618 1.688 1.598
877.685 1.688 1.868 2.258 2.448 2.198 2.428 2.758 2.788 2.498 2.028
896.975 2.338 2.388 2.078 2.348 2.488 2.728 2.668 2.248 2.268 2.448
916.265 2.288 2.128 2.508 2.778 2.618 2.568 2.458 2.538 2.928 3.278
935.555 3.208 2.938 2.878 3.148 3.228 3.208 3.538 3.658 3.738 3.918
954.844 3.888 4.188 4.268 4.088 4.408 4.288 4.318 4.758 4.938 4.778
974.134 4.758 5.108 5.298 5.618 5.808 5.828 6.288 6.628 6.608 7.008
993.424 7.108 7.338 7.548 7.768 8.358 8.718 9.008 9.018 9.628 10.368
1012.714 11.018 11.408 11.738 12.448 12.738 12.998 14.018 15.008 15.948 17.378
1032.003 17.938 17.988 18.198 18.358 18.488 19.038 20.258 20.588 20.558 21.048
1051.293 20.478 19.558 18.748 17.638 17.228 16.198 15.088 14.508 13.788 12.988
1070.583 12.338 11.828 10.848 9.998 9.978 10.288 10.678 9.778 8.658 8.918
1089.873 7.408 5.998 7.308 6.988 4.848 4.428 4.318 3.978 4.468 4.558
1109.163 3.488 4.038 3.908 2.468 3.348 3.788 3.188 3.238 3.258 3.338
1128.452 2.828 2.118 2.488 2.428 3.428 3.378 2.408 2.218 2.548 3.488
1147.742 2.748 2.468 3.028 3.218 3.418 2.948 1.968 1.848 2.328 2.528
1167.032 2.118 2.638 2.558 2.418 3.018 3.338 4.168 3.728 3.118 3.978
1186.322 4.018 3.488 3.428 3.878 4.328 3.698 3.718 4.518 4.278 3.288
1205.611 3.498 4.698 4.848 4.828 4.848 3.688 3.358 3.438 3.988 5.098
1224.901 5.398 5.798 5.118 4.558 4.658 4.348 4.928 5.248 4.538 4.568
1244.191 4.598 3.348 3.408 4.528 4.938 5.288 5.038 4.558 4.298 4.548
1263.481 5.018 4.758 4.808 5.148 5.038 4.668 5.028 5.348 5.168 5.528
1282.771 5.638 5.248 5.138 5.148 5.498 5.638 5.548 5.548 5.518 5.608
1302.060 5.528 5.568 5.838 5.948 5.898 5.908 5.988 5.958 6.188 6.728
1321.350 7.008 7.068 7.298 7.548 7.778 8.208 8.458 8.518 8.418 8.168
1340.640 8.088 8.108 8.218 8.448 8.518 8.498 8.538 8.488 8.328 8.238
1359.930 8.298 8.208 7.988 7.918 7.878 7.808 7.828 8.098 8.518 8.708
1379.219 8.628 8.668 8.648 8.568 8.258 7.868 7.668 7.218 6.768 6.438
1398.509 6.028 5.638 5.428 5.328 5.168 4.848 4.698 4.718 4.678 4.678
1417.799 4.798 4.998 5.098 5.018 4.958 5.088 5.548 6.248 6.858 7.428
1437.089 8.158 8.678 9.058 9.408 9.598 9.848 10.018 10.018 10.298 10.588
1456.378 10.588 10.668 10.728 10.638 10.228 9.578 8.898 8.268 7.608 6.958
1475.668 6.538 6.108 5.598 5.218 4.818 4.218 3.668 3.238 3.158 3.098
1494.958 3.038 2.978 2.818 2.678 2.498 2.148 2.048 2.278 2.248 2.138
1514.248 2.088 1.918 2.008 2.028 1.698 1.728 1.828 1.708 1.728 1.828
1533.538 1.728 1.728 1.738 1.718 1.768 1.698 1.588 1.658 1.718 1.588
1552.827 1.508 1.2054 1.2061 1.368 1.2259 1.2083 1.1404 1.2579 1.518 1.3038
1572.117 1.0727 1.0839 1.1255 1.1993 1.1194 1.1416 1.2193 1.1254 1.0218 1.0043
1591.407 0.8146 0.8197 0.9217 0.7571 0.6699 0.8591 0.9952 0.7667 0.6652 0.736
1610.697 0.8206 0.8252 0.7202 0.6577 0.7791 0.7499 0.575 0.7579 0.8235 0.6015
1629.986 0.5535 0.6141 0.574 0.8295 0.8312 0.5627 0.7118 0.6845 0.608 0.6851
1649.276 0.7052 0.6333 0.5285 0.5024 0.6808 0.9019 0.7876 0.5955 0.5552 0.5778
1668.566 0.6135 0.7841 0.8782 0.7679 0.7412 0.7721 0.7398 0.7485 0.6921 0.5561
1687.856 0.5595 0.6306 0.7476 0.7093 0.7306 0.8285 0.8694 0.8775 0.6881 0.6138
1707.146 0.7256 0.7969 0.6379 0.6418 0.7655 0.7506 0.6336 0.5727 0.5148 0.40893
1726.435 0.35517 0.5228 0.6412 0.6359 0.5864 0.5908 0.6329 0.6082 0.6535 0.5163
1745.725 0.42156 0.5962 0.7388 0.6873 0.683 0.6396 0.5555 0.5442 0.5929 0.6322
1765.015 0.6302 0.5788 0.5357 0.5475 0.5728 0.5956 0.6935 0.6656 0.5512 0.6196
1784.305 0.4575 0.4857 0.6155 0.5837 0.7334 0.6484 0.5526 0.5343 0.42557 0.5278
1803.594 0.6214 0.5341 0.5672 0.5511 0.4916 0.5596 0.5983 0.5642 0.541 0.6297
1822.884 0.6625 0.5733 0.503 0.5496 0.5804 0.448 0.39738 0.42577 0.5455 0.6644
1842.174 0.6286 0.5381 0.4886 0.5882 0.6176 0.7148 0.7257 0.592 0.6362 0.7418
1861.464 0.7859 0.554 0.5483 0.6794 0.5571 0.5289 0.5312 0.5391 0.6917 0.7403
1880.754 0.5792 0.5305 0.5802 0.7219 0.7678 0.7447 0.7599 0.7034 0.7076 0.7164
1900.043 0.6556 0.5826 0.5369 0.5921 0.5887 0.6185 0.5838 0.5122 0.61 0.5517
1919.333 0.5349 0.6709 0.7239 0.6554 0.5959 0.6895 0.7447 0.6626 0.6772 0.7678
1938.623 0.6636 0.5759 0.6372 0.583 0.4869 0.5089 0.5988 0.6407 0.6186 0.7224
1957.913 0.7084 0.5806 0.5953 0.6305 0.6847 0.6818 0.6921 0.6244 0.581 0.6644
1977.202 0.6599 0.5628 0.42922 0.41839 0.4949 0.6236 0.6582 0.6711 0.714 0.7068
1996.492 0.7207 0.7683 0.8275 0.8622 0.8261 0.7376 0.6833 0.7078 0.7037 0.711
2015.782 0.7376 0.8226 0.8318 0.7077 0.7527 0.8627 0.8639 0.8067 0.8994 0.944
2035.072 0.8844 0.9593 1.0331 1.0098 1.0133 1.0473 1.0994 0.998 1.0089 1.0801
2054.362 0.96 1.0363 1.0391 0.9497 0.9795 0.9074 0.8835 0.9723 1.0135 0.9693
2073.651 0.9783 0.8461 0.7609 0.7611 0.701 0.6169 0.628 0.6866 0.5434 0.5252
2092.941 0.6179 0.6808 0.8193 1.0605 1.0091 0.7336 0.6916 0.7396 0.7597 0.8305
2112.231 0.7812 0.7431 0.646 0.675 0.6941 0.6191 0.7488 0.7199 0.6736 0.6086
2131.521 0.6203 0.742 0.8684 0.8676 0.7141 0.6726 0.652 0.4852 0.594 0.8452
2150.810 0.796 0.6814 0.6211 0.6251 0.676 0.6776 0.716 0.8262 0.8602 0.8513
2170.100 0.7427 0.6671 0.7499 0.8438 0.7781 0.5627 0.5708 0.6853 0.5408 0.4881
2189.390 0.8388 0.9108 0.7674 0.8098 0.7104 0.6474 0.5869 0.6386 0.7157 0.4794
2208.680 0.4345 0.5372 0.6232 0.5832 0.5098 0.6182 0.5862 0.4519 0.39552 0.6194
2227.970 0.6841 0.5413 0.5531 0.4681 0.5604 0.6983 0.6464 0.6934 0.6012 0.4994
2247.259 0.5823 0.5805 0.614 0.7135 0.6204 0.6544 0.8135 0.7207 0.441 0.41348
2266.549 0.6393 0.798 0.7344 0.6605 0.7662 0.7969 0.756 0.8424 0.8583 0.728
2285.839 0.7471 0.8456 0.8629 0.7236 0.6929 0.7321 0.6357 0.7377 0.7556 0.6901
2305.129 0.7381 0.8285 1.0117 0.9289 0.6159 0.41134 0.5395 0.701 0.8213 0.932
2324.418 0.8486 0.8936 0.9342 0.8536 0.8266 0.8244 0.7945 0.6962 0.783 0.9584
2343.708 1.0483 1.0564 0.9021 0.8817 0.9191 0.7923 0.7786 0.792 0.7783 0.5766
2362.998 0.4785 0.7302 0.7829 0.7258 0.7411 0.7548 0.774 0.7557 0.7213 0.8767
2382.288 0.8208 0.8044 1.0869 1.048 0.8398 0.9458 1.0026 0.9971 0.9588 0.7284
2401.578 0.7594 0.9939 0.959 0.6158 0.7142 0.8857 0.6825 0.8726 1.1054 0.9552
2420.867 0.8597 0.9152 0.9674 1.0188 0.9381 0.7745 0.8002 0.9241 0.9533 0.7183
2440.157 0.748 0.8668 0.7799 0.7573 0.5788 0.7137 1.0277 0.8758 0.638 0.6457
2459.447 0.6974 0.6299 0.6635 0.6352 0.6636 0.8049 0.6979 0.7471 0.9005 0.9432
2478.737 0.9303 0.8501 1.002 1.0423 0.7812 0.8615 0.9109 0.7219 0.6304 0.6082
2498.026 0.7714 0.9876 0.9543 0.871 0.7649 0.717 0.8541 0.9364 1.0859 1.1087
2517.316 0.9959 1.0519 1.05 0.9912 0.9598 1.0334 1.1949 1.0586 1.0298 1.0731
2536.606 1.0538 1.1661 1.1398 1.1025 0.926 0.8618 1.0547 1.0986 1.0831 0.8764
2555.896 0.7167 1.0756 1.3262 1.2059 0.9984 0.9456 0.9948 0.8289 0.7439 0.9158
2575.186 1.0812 1.1478 1.0877 1.0684 1.078 1.1844 1.2211 1.1035 1.358 1.548
2594.475 1.2611 1.1914 1.1483 1.0878 1.2083 1.1404 1.1492 1.2789 1.2474 1.1833
2613.765 1.398 1.558 1.508 1.548 1.608 1.538 1.518 1.468 1.578 1.588
2633.055 1.458 1.608 1.748 1.688 1.548 1.458 1.428 1.398 1.428 1.668
2652.345 1.918 1.858 1.728 1.818 1.768 1.878 2.038 1.938 1.968 2.098
2671.634 1.918 2.048 2.228 2.228 2.188 2.078 2.098 2.018 2.108 2.368
2690.924 2.388 2.228 2.378 2.498 2.348 2.038 2.008 2.028 2.048 2.228
2710.214 2.138 1.968 2.038 2.138 2.108 2.058 2.158 2.408 2.558 2.638
2729.504 2.528 2.408 2.458 2.578 2.768 2.968 2.928 3.168 3.458 3.238
2748.794 3.118 3.178 3.248 3.478 3.578 3.318 3.048 2.908 2.958 3.278
2768.083 3.488 3.488 3.658 3.558 3.368 3.328 3.218 3.288 3.388 3.738
2787.373 3.778 3.718 3.938 3.998 4.078 4.168 4.308 4.458 4.458 4.478
2806.663 4.918 5.228 5.448 5.728 5.968 6.418 6.608 6.378 6.848 7.648
2825.953 8.148 8.538 8.978 9.458 10.068 11.198 12.548 13.798 15.068 16.688
2845.242 18.958 21.778 25.148 29.128 32.818 36.718 41.048 45.118 48.498 50.978
2864.532 52.428 53.098 52.808 51.298 48.948 46.898 44.658 42.158 39.968 38.038
2883.822 36.418 34.698 33.468 32.868 32.858 33.048 33.908 35.538 36.988 38.788
2903.112 41.478 44.418 48.028 52.068 56.198 60.788 65.948 71.878 78.578 85.878
2922.401 94.058 103.368 113.138 122.908 131.678 138.448 142.688 144.388 142.898 137.368
2941.691 128.868 118.858 107.668 95.748 83.868 72.598 62.378 53.548 46.428 40.458
2960.981 35.528 31.958 28.728 25.538 22.638 20.588 19.018 17.708 15.958 13.978
2980.271 12.868 11.918 11.328 10.478 9.138 8.488 8.058 7.658 7.338 6.998
2999.561 7.008 6.958 6.658 6.328 5.808 5.498 5.508 5.348 5.148 5.048
3018.850 4.628 4.308 4.358 4.178 4.098 4.218 4.068 3.928 4.028 3.748
3038.140 3.298 3.018 2.918 2.898 2.828 2.968 3.108 2.838 2.338 2.298
3057.430 2.368 2.638 2.928 2.588 2.308 2.228 2.258 2.128 1.928 1.718
3076.720 1.578 2.038 2.388 2.058 1.738 1.818 1.658 1.468 1.588 1.698
3096.009 1.325 1.0484 1.408 1.2296 0.726 0.7209 1.0982 1.418 1.658 1.658
3115.299 1.2651 1.1743 1.309 1.1342 0.8374 1.0786 0.9789 0.9633 1.0924 0.7271
3134.589 0.6859 0.9297 0.85 0.7542 0.8647 0.9081 1.2321 1.378 1.2228 1.458
3153.879 1.358 0.9008 1.0268 1.3119 1.348 1.1754 1.2335 1.26 1.028 0.9974
3173.169 0.8062 0.6918 0.5982 0.39262 0.3672 0.6838 0.98 0.3007 0.028 0.713
3192.458 0.8651 0.6897 0.6688 0.6328 0.7115 0.878 0.7273 0.6277 0.7025 0.6273
3211.748 0.6238 0.7606 0.5859 0.36665 0.2909 0.219 0.6912 0.8894 0.5486 0.9088
3231.038 0.9181 0.4283 0.39713 0.3041 0.6799 0.607 0.5804 1.1062 0.8236 0.38647
3250.328 0.43342 0.6713 0.5561 0.219 0.2921 0.642 0.6341 0.8218 1.1679 0.672
3269.617 0.203 0.6673 1.0823 0.6371 0.594 0.7325 0.7161 0.9284 0.5407 0.155
3288.907 0.205 0.086 0.2972 0.8023 0.7455 0.6469 0.5051 0.4772 0.5157 0.3731
3308.197 0.5137 0.5765 0.7929 0.8417 0.8171 0.6692 0.2513 0.2451 0.216 0.3195
3327.487 0.4888 0.8296 0.7761 0.2738 0.202 0.3059 0.8566 1.1096 0.8029 0.7461
3346.777 0.6119 0.6237 0.8559 0.5707 0.206 0.3201 0.7369 0.9752 0.6814 0.4698
3366.066 0.4473 0.7274 0.6943 0.6819 1.1813 0.9814 0.5504 0.341283 0.5228 0.8453
3385.356 0.8445 0.6031 0.42914 0.7288 1.095 0.851 0.6441 0.5873 0.6895 0.9022
3404.646 1.0442 1.0711 0.9812 0.9989 0.9827 1.2247 0.6708 0.339549 0.7947 0.8012
3423.936 0.8068 0.7865 0.9137 1.2928 1.2515 1.0684 0.9652 0.9744 0.74 0.769
3443.225 0.583 0.4817 0.9448 0.8309 0.8193 0.6836 0.273 0.033 0.144 0.198
3462.515 0.135 0.4732 0.8907 0.5159 0.5563 0.9488 0.832 1.0134 1.2288 1.3066
3481.805 1.418 1.2083 1.1162 1.118 1.1286 1.0003 0.5671 0.4409 0.7264 1.0892
3501.095 1.194 1.0633 1.0742 0.6262 0.4831 0.6932 0.4965 0.803 0.5396 0.341935
3520.385 0.5762 0.7251 0.8293 0.37196 0.3272 0.668 0.6162 0.6454 0.33377 0.211
3539.674 0.5178 0.3942 0.035 0.133 0.32899 0 0.131 0.4744 0.3459 0.3242
3558.964 0.6213 0.7535 0.8332 1.0149 0.9861 1.1642 1.2608 0.8252 0.5548 0.443
3578.254 0.6154 0.9374 0.8784 0.805 0.8291 0.6051 0.4543 0.9144 1.3351 1.0696
3597.544 0.5525 0.6999 0.9109 1.1067 1.1508 1.1789 1.2417 0.9555 1.0982 1.398
3616.833 1.448 1.3219 1.0117 1.1429 1.2086 1.1813 1.828 1.868 1.498 1.368
3636.123 1.578 1.878 2.308 2.548 2.478 2.708 2.738 2.868 3.498 4.058
3655.413 4.408 4.678 5.098 5.618 5.748 5.858 6.058 6.078 6.178 5.948
3674.703 5.508 4.918 4.258 3.658 3.268 3.138 2.498 2.088 2.438 2.218
3693.993 1.688 1.418 1.2051 1.3203 1.0858 0.8385 1.1137 1.2197 1.2671 1.598
3713.282 1.588 1.428 1.2528 1.1259 1.2853 1.558 1.2592 0.9619 1.0765 0.8118
3732.572 0.9523 1.295 1.2387 1.1211 1.0393 0.879 0.9081 0.8618 0.6055 0.7433
3751.862 0.6535 0.39937 0.8308 1.1879 0.6579 0.5897 0.9214 0.9479 0.5363 0.5515
3771.152 1.448 1.498 1.428 1.0691 0.8669 0.9813 0.9525 1.1989 1.2259 1.0983
3790.441 0.985 1.0055 0.4934 0.473 0.6026 0.787 0.9367 0.7872 0.7395 0.7471
3809.731 0.9501 0.9278 0.8815 0.715 0.9133 1.2132 1.1491 1.2197 1.0123 0.7372
3829.021 0.8977 0.9479 0.752 0.7143 0.9408 1.0778 0.7724 0.8612 0.9167 0.6612
3848.311 0.562 0.6755 0.8868 1.2874 1.488 1.2438 1.0396 0.9466 1.0302 1.0095
3867.601 0.9347 1.0537 0.8839 0.7322 1.1889 1.1748 0.8633 0.7956 1.0463 0.9332
3886.890 0.8879 0.7713 0.4613 0.5919 0.6951 0.6799 0.345377 0.32922 0.8096 1.1576
3906.180 1.1146 0.7167 0.8934 1.548 1.338 1.0621 0.6529 0.5303 0.799 0.826
3925.470 0.8859 0.96 1.1049 0.6136 0.7577 1.0008 0.8116 0.9047 1.0949 1.0542
3944.760 0.9913 1.1618 0.9005 1.1813 1.378 0.8393 0.6407 0.9028 1.0338 1.2667
3964.049 1.368 0.8028 0.5516 0.7476 0.9635 0.8004 0.5346 0.42128 0.5207 0.6155
3983.339 0.6825 0.8095 0.9438 1.1358 1.1181 1.0577 0.969 0.8677 0.9624 0.7705
##END=
