##TITLE=3,5-Di-t-butyl-4-hydroxybenzyl ether
##JCAMP-DX=4.24
##DATA TYPE=INFRARED SPECTRUM
##ORIGIN=EPA-IR VAPOR PHASE LIBRARY
##OWNER=SRD/NIST
Collection (C) 2018 copyright by the U.S. Secretary of Commerce
on behalf of the United States of America. All rights reserved.
##CAS REGISTRY NO=6922-60-7
##MOLFORM=C 30 H 46 O 3
##$NIST SOURCE=MSDC-IR
##STATE=gas
##XUNITS=1/CM
##YUNITS=ABSORBANCE
##XFACTOR=1.
##YFACTOR=0.001
##DELTAX=1.92898
##FIRSTX=549.8
##LASTX=4000.7
##FIRSTY=1.46
##MAXX=4000.7
##MINX=549.759
##MAXY=0.07808
##MINY=0.0002348
##NPOINTS=1790
##XYDATA=(X++(Y..Y))
549.759 1.46 1.15 1.18 1.26 1.16 1.11 1.17 1.36 1.46 1.28
569.049 1.46 1.42 0.9422 0.8769 1.03 1.01 1.02 0.9656 0.9275 1.02
588.339 1.04 1.23 1.32 1.19 1.3 1.31 1.3 1.52 1.65 1.58
607.628 1.76 1.95 1.94 1.9 1.88 1.91 1.76 1.79 1.91 1.95
626.918 1.8 1.76 1.89 1.72 1.62 1.68 1.72 1.58 1.6 1.78
646.208 1.71 1.85 2.01 1.94 2.05 2.22 2.32 2.49 2.74 2.81
665.498 2.79 2.92 2.92 2.87 2.75 2.55 2.47 2.25 1.91 1.73
684.787 1.58 1.39 1.28 1.22 1.04 0.9583 0.9332 0.8306 0.833 0.8031
704.077 0.7407 0.64 0.6422 0.7372 0.7689 0.6585 0.513 0.5626 0.7227 0.7591
723.367 0.6206 0.5936 0.668 0.734 0.7786 0.6642 0.6641 0.8336 0.8741 0.906
742.657 0.9993 1.25 1.48 1.5 1.6 1.81 1.83 1.88 2.32 2.86
761.947 3.62 4.51 4.97 4.93 4.48 3.81 3.46 3.32 3.19 3.28
781.236 3.41 3.38 3.25 3.12 3 2.77 2.47 2.23 2.05 2.01
800.526 2.02 2.07 2.27 2.36 2.19 1.84 1.51 1.31 1.18 1.13
819.816 1.09 0.9697 0.9017 0.9005 0.8452 0.7867 0.6977 0.6637 0.777 0.8349
839.106 0.8689 0.9049 0.8788 1.01 1.11 1.19 1.43 1.75 2.08 2.5
858.395 3.14 3.95 4.85 5.75 6.62 7.61 8.68 9.34 9.88 10.39
877.685 10.55 10.45 10.04 9.33 8.45 7.41 6.34 5.29 4.42 3.87
896.975 3.46 2.98 2.56 2.42 2.37 2.29 2.23 2.32 2.45 2.47
916.265 2.46 2.41 2.52 2.71 2.74 2.81 2.94 3.01 3.05 2.89
935.555 2.58 2.39 2.33 2.23 2.14 2.19 2.29 2.48 2.53 2.31
954.844 2.22 2.31 2.41 2.32 2.27 2.31 2.29 2.38 2.39 2.33
974.134 2.32 2.31 2.32 2.36 2.39 2.43 2.31 2.2 2.19 2.18
993.424 2.29 2.33 2.25 2.31 2.45 2.53 2.51 2.46 2.73 3.05
1012.714 3.14 3.34 3.39 3.47 3.71 3.57 3.56 3.69 3.67 3.62
1032.003 3.56 3.43 3.27 3.29 3.63 3.82 3.85 4.05 4.3 4.63
1051.293 5.14 5.77 6.44 7.01 7.51 8.26 9.34 10.4 11.37 12.49
1070.583 14 15.79 17.29 18.82 20.23 21.47 22.74 23.77 24.43 24.89
1089.873 25.14 24.45 23.83 23.06 22.17 21.52 20.56 19.7 18.91 18.11
1109.163 17.6 17.32 17.17 17.39 16.93 16.02 14.93 13.57 12.16 10.68
1128.452 9.42 8.62 8.15 7.77 7.94 8.09 8.55 9.53 10.15 11.03
1147.742 12.74 14.58 16.44 18.72 20.88 22.97 24.55 25.2 25.05 23.87
1167.032 22.17 20.32 18.66 17.4 16.35 15.4 14.86 14.86 14.96 15.48
1186.322 16.19 16.93 17.55 18.13 18.82 19.18 19.81 20.85 22.3 23.92
1205.611 25.19 25.52 25 23.85 22.38 21.18 20.36 19.98 20.32 21.19
1224.901 21.95 22.73 23.46 23.86 23.51 22.62 21.62 20.54 19.85 19.44
1244.191 19.16 18.95 18.22 17.18 15.9 14.46 13.18 11.93 10.83 9.88
1263.481 9.05 8.39 7.86 7.42 6.89 6.4 6.16 5.96 5.7 5.53
1282.771 5.49 5.46 5.39 5.4 5.46 5.48 5.55 5.76 6.12 6.55
1302.060 7.08 7.75 8.51 9.24 9.83 10.23 10.34 10.04 9.41 8.6
1321.350 7.69 6.91 6.35 6 5.82 5.81 6.02 6.45 7.08 7.96
1340.640 9.05 10.21 11.37 12.43 13.32 13.94 14.28 14.3 14.12 14.08
1359.930 14.5 15.57 17.18 18.85 19.93 19.84 18.62 16.84 15.08 13.6
1379.219 12.38 11.4 10.65 10.28 10.34 10.79 11.71 13.07 14.48 15.43
1398.509 15.49 14.5 12.85 11.12 9.75 8.88 8.53 8.63 9.11 9.96
1417.799 11.15 12.68 14.53 16.71 19.13 21.65 24.15 26.36 28.03 28.96
1437.089 28.99 28.11 26.45 24.16 21.61 19.14 16.95 15.2 13.82 12.86
1456.378 12.22 11.6 11.05 10.59 10.2 9.96 9.82 9.77 9.79 9.81
1475.668 9.89 10.01 10.1 10.16 9.98 9.48 8.67 7.64 6.51 5.47
1494.958 4.67 4.04 3.5 3.06 2.74 2.54 2.4 2.22 2.04 1.88
1514.248 1.77 1.71 1.62 1.58 1.48 1.35 1.28 1.18 1.12 1.12
1533.538 1.13 1.13 1.08 1.04 1.02 1.02 0.9981 0.9311 0.9228 0.9255
1552.827 0.9313 0.9092 0.8826 0.9137 0.9191 0.904 0.8901 0.886 0.9082 0.9425
1572.117 0.9225 0.9215 0.9755 0.9961 1.02 1.07 1.16 1.21 1.21 1.2
1591.407 1.21 1.24 1.21 1.16 1.15 1.13 1.11 1.1 1.08 1.09
1610.697 1.07 1.01 1.04 1.07 1.03 1.07 1.14 1.16 1.21 1.31
1629.986 1.44 1.52 1.58 1.7 1.82 1.82 1.81 1.88 1.97 1.92
1649.276 1.8 1.69 1.55 1.34 1.16 1.06 0.9541 0.8293 0.7461 0.701
1668.566 0.718 0.7306 0.6663 0.6475 0.6047 0.5796 0.5908 0.5995 0.5767 0.5196
1687.856 0.4947 0.4521 0.4492 0.4711 0.5364 0.5668 0.5804 0.6307 0.6913 0.7878
1707.146 0.8596 0.9212 0.9173 0.8731 0.8566 0.8265 0.7181 0.6405 0.6276 0.6007
1726.435 0.6136 0.6752 0.6927 0.6829 0.7086 0.7067 0.7581 0.8425 0.8681 0.9375
1745.725 0.9932 1.01 1.13 1.24 1.29 1.34 1.32 1.29 1.28 1.22
1765.015 1.19 1.17 1.11 1.03 1.03 1.05 1.02 0.9743 0.9655 0.9471
1784.305 0.9145 0.8944 0.8645 0.8506 0.8031 0.7319 0.71 0.7097 0.6997 0.6223
1803.594 0.5548 0.5693 0.5706 0.5497 0.5228 0.4737 0.4962 0.505 0.4866 0.4542
1822.884 0.4267 0.4708 0.432 0.377 0.3975 0.4106 0.4087 0.381 0.363 0.3557
1842.174 0.3578 0.3534 0.3582 0.3328 0.2966 0.3376 0.3624 0.3718 0.3146 0.2759
1861.464 0.3238 0.3527 0.345 0.3401 0.3174 0.288 0.2981 0.3132 0.3192 0.289
1880.754 0.3134 0.3698 0.3396 0.3395 0.3562 0.3579 0.3848 0.3817 0.3721 0.3862
1900.043 0.3715 0.3724 0.3904 0.4083 0.3897 0.3427 0.3444 0.3604 0.3761 0.3924
1919.333 0.386 0.3728 0.3932 0.4097 0.4512 0.4392 0.3864 0.4107 0.4203 0.4423
1938.623 0.4692 0.4337 0.3978 0.3803 0.3501 0.3337 0.3494 0.3445 0.3444 0.3743
1957.913 0.4126 0.3765 0.3676 0.4029 0.391 0.4156 0.3959 0.3631 0.4143 0.4522
1977.202 0.4374 0.4404 0.424 0.4235 0.4295 0.4317 0.4562 0.4811 0.5069 0.4926
1996.492 0.5166 0.5395 0.5422 0.5429 0.502 0.4755 0.4935 0.495 0.4468 0.4572
2015.782 0.5021 0.474 0.4352 0.4612 0.4703 0.4441 0.4452 0.4713 0.4881 0.4536
2035.072 0.3953 0.4254 0.4442 0.3625 0.3373 0.3573 0.3576 0.3735 0.3642 0.3104
2054.362 0.3109 0.323 0.3165 0.3335 0.3147 0.2989 0.3146 0.2997 0.3043 0.3113
2073.651 0.3064 0.3001 0.2956 0.303 0.2899 0.2965 0.3363 0.3367 0.3157 0.3144
2092.941 0.325 0.3545 0.3442 0.3643 0.413 0.3938 0.3566 0.3244 0.3456 0.3927
2112.231 0.4172 0.4196 0.4085 0.38 0.3685 0.3957 0.4104 0.3849 0.3356 0.3018
2131.521 0.3185 0.3513 0.3743 0.3658 0.3308 0.2839 0.2677 0.3111 0.2876 0.2436
2150.810 0.2511 0.276 0.2507 0.2348 0.2559 0.2877 0.3127 0.2775 0.2599 0.3148
2170.100 0.3616 0.3616 0.3201 0.2804 0.2896 0.2845 0.2708 0.2987 0.3246 0.3037
2189.390 0.3001 0.2656 0.2503 0.3116 0.3195 0.3154 0.3178 0.3133 0.3348 0.3199
2208.680 0.3157 0.3291 0.3315 0.3626 0.3843 0.3934 0.3875 0.371 0.349 0.3042
2227.970 0.3012 0.3264 0.3134 0.2816 0.2861 0.3322 0.3223 0.322 0.3746 0.3733
2247.259 0.3615 0.3574 0.3245 0.3067 0.3117 0.363 0.3968 0.3523 0.2852 0.2887
2266.549 0.3069 0.2797 0.2966 0.3362 0.2958 0.2987 0.3962 0.4111 0.3949 0.4044
2285.839 0.4081 0.4205 0.4296 0.4111 0.3956 0.3662 0.3571 0.3747 0.3813 0.3601
2305.129 0.3274 0.3521 0.3368 0.3224 0.3759 0.3496 0.3423 0.339 0.308 0.3837
2324.418 0.4279 0.4073 0.4067 0.3762 0.3516 0.3229 0.3415 0.3668 0.343 0.3747
2343.708 0.3767 0.3495 0.3136 0.317 0.3964 0.3951 0.3695 0.3348 0.3267 0.3679
2362.998 0.3528 0.3795 0.4123 0.3886 0.3881 0.4116 0.4142 0.4579 0.5016 0.5025
2382.288 0.5092 0.5378 0.561 0.6182 0.5971 0.5806 0.6013 0.5787 0.5701 0.5581
2401.578 0.539 0.4909 0.4839 0.503 0.5278 0.5086 0.482 0.5312 0.53 0.5173
2420.867 0.5382 0.5499 0.5059 0.4885 0.5028 0.4773 0.4993 0.5027 0.5094 0.5019
2440.157 0.4784 0.4596 0.4514 0.4767 0.4682 0.456 0.5022 0.4893 0.4917 0.5339
2459.447 0.5161 0.4893 0.4653 0.457 0.4431 0.4589 0.4779 0.4926 0.4994 0.4755
2478.737 0.4284 0.4174 0.3805 0.3755 0.4359 0.4405 0.4037 0.432 0.4528 0.3762
2498.026 0.3579 0.3917 0.4049 0.4102 0.4337 0.4342 0.3906 0.3205 0.2978 0.3645
2517.316 0.4455 0.4291 0.4035 0.3932 0.3386 0.3065 0.3116 0.3857 0.4294 0.4584
2536.606 0.47 0.4479 0.4364 0.4187 0.504 0.5757 0.5367 0.5082 0.5467 0.6075
2555.896 0.6327 0.6367 0.6741 0.6897 0.6227 0.5595 0.5269 0.5318 0.5565 0.5774
2575.186 0.5088 0.4322 0.4899 0.489 0.4627 0.4655 0.4694 0.529 0.5655 0.52
2594.475 0.498 0.5372 0.5351 0.558 0.5628 0.5509 0.543 0.5358 0.5396 0.5478
2613.765 0.5729 0.5713 0.5653 0.5845 0.5623 0.5869 0.6731 0.6428 0.6024 0.6242
2633.055 0.6231 0.6422 0.642 0.6031 0.6424 0.6727 0.6471 0.6753 0.7288 0.7926
2652.345 0.8019 0.818 0.8559 0.8645 0.8046 0.7432 0.8237 0.8389 0.7859 0.7611
2671.634 0.7997 0.8102 0.8217 0.8591 0.905 0.9471 0.9119 0.8775 0.9387 1.06
2690.924 1.04 1.02 1.03 1.04 1.08 1.07 1.09 1.09 1.07 1.12
2710.214 1.17 1.22 1.3 1.37 1.4 1.41 1.48 1.56 1.57 1.55
2729.504 1.56 1.52 1.41 1.39 1.39 1.4 1.4 1.4 1.49 1.51
2748.794 1.49 1.52 1.56 1.61 1.63 1.61 1.59 1.66 1.69 1.67
2768.083 1.67 1.7 1.79 1.91 1.99 2.02 2.05 2.13 2.23 2.3
2787.373 2.41 2.52 2.54 2.57 2.61 2.69 2.78 2.85 2.91 2.96
2806.663 3.09 3.21 3.41 3.62 3.75 3.87 4.01 4.2 4.34 4.51
2825.953 4.8 5.1 5.43 5.83 6.25 6.7 7.26 7.92 8.63 9.47
2845.242 10.41 11.55 12.78 13.93 15.1 16.17 16.98 17.59 18.15 18.72
2864.532 19.42 20.19 21.16 22.26 23.42 24.69 25.92 26.86 27.52 27.81
2883.822 27.76 27.44 26.89 26.3 25.64 25.07 24.8 24.81 24.93 25.2
2903.112 25.82 26.66 27.6 28.61 29.76 31 32.19 33.32 34.22 34.77
2922.401 34.99 35.06 34.94 34.62 34.42 34.36 34.33 34.59 35.23 36.07
2941.691 37.23 38.86 40.96 43.55 46.54 50.06 54.02 58.18 62.33 66.22
2960.981 69.79 72.97 75.83 77.84 78.08 76.21 71.99 65.57 57.74 49.48
2980.271 41.42 34.2 28.36 23.71 20.16 17.57 15.73 14.47 13.59 13.08
2999.561 12.83 12.65 12.51 12.21 11.6 10.75 9.74 8.68 7.6 6.77
3018.850 6.19 5.62 5.11 4.71 4.48 4.26 3.97 3.75 3.67 3.58
3038.140 3.38 3.22 3.18 3.08 3.01 3.02 3.01 3.05 3.01 2.97
3057.430 3.04 3.14 3.28 3.41 3.51 3.63 3.74 3.83 3.87 3.91
3076.720 3.88 3.69 3.5 3.35 3.14 2.84 2.64 2.54 2.42 2.23
3096.009 2.07 1.99 1.85 1.72 1.67 1.56 1.52 1.55 1.44 1.39
3115.299 1.44 1.41 1.34 1.28 1.26 1.29 1.31 1.31 1.24 1.23
3134.589 1.29 1.25 1.2 1.2 1.2 1.2 1.19 1.14 1.17 1.19
3153.879 1.19 1.21 1.15 1.1 1.13 1.11 1.11 1.11 1.07 1.05
3173.169 1.05 1.06 0.9942 0.9764 1.07 1.1 1.01 0.9558 0.9068 0.8826
3192.458 0.9096 0.9279 0.9703 0.9686 0.9389 0.9525 0.9315 0.9278 0.8952 0.8329
3211.748 0.8545 0.8772 0.8635 0.7834 0.7541 0.7177 0.7214 0.748 0.7001 0.7267
3231.038 0.738 0.7848 0.7787 0.7069 0.7142 0.7058 0.7199 0.7106 0.6256 0.6348
3250.328 0.7015 0.7284 0.6447 0.6601 0.6767 0.651 0.6777 0.6974 0.7471 0.6624
3269.617 0.7036 0.7513 0.6782 0.7113 0.6391 0.5703 0.5894 0.6145 0.6703 0.7204
3288.907 0.7619 0.746 0.6763 0.7054 0.6395 0.4944 0.5583 0.6507 0.7239 0.6843
3308.197 0.6515 0.6629 0.6488 0.6678 0.6892 0.7068 0.6763 0.6412 0.5841 0.558
3327.487 0.5356 0.5242 0.547 0.5673 0.5881 0.5735 0.4752 0.3868 0.4617 0.4976
3346.777 0.4987 0.5434 0.5384 0.462 0.4853 0.5502 0.5127 0.4986 0.5052 0.55
3366.066 0.5101 0.4967 0.5873 0.6461 0.5972 0.5334 0.5557 0.61 0.6235 0.5493
3385.356 0.5328 0.606 0.5945 0.5845 0.5926 0.5579 0.5639 0.5712 0.6159 0.6849
3404.646 0.7848 0.8296 0.8033 0.7835 0.7023 0.6043 0.6371 0.7579 0.7998 0.7014
3423.936 0.6357 0.7097 0.7107 0.6156 0.5752 0.5373 0.5732 0.6456 0.5672 0.5062
3443.225 0.5249 0.5567 0.6012 0.6088 0.5532 0.5109 0.5456 0.5837 0.4777 0.3631
3462.515 0.4238 0.4187 0.4387 0.4619 0.3289 0.4246 0.5088 0.5253 0.5048 0.466
3481.805 0.4602 0.3493 0.4222 0.5426 0.4759 0.37 0.3506 0.3811 0.3543 0.3724
3501.095 0.4011 0.3188 0.282 0.3714 0.4088 0.396 0.4092 0.3981 0.4433 0.4826
3520.385 0.4197 0.3796 0.4367 0.4672 0.5014 0.4571 0.3438 0.2933 0.3352 0.3674
3539.674 0.352 0.3457 0.4222 0.469 0.4431 0.4309 0.3778 0.4194 0.4835 0.4579
3558.964 0.5092 0.5869 0.627 0.5688 0.5109 0.5726 0.5571 0.4848 0.5502 0.5556
3578.254 0.4694 0.5375 0.5994 0.6007 0.6626 0.7766 0.7646 0.7455 0.8624 0.9691
3597.544 0.9371 0.9521 1.02 1.05 1.09 1.03 1.07 1.27 1.42 1.55
3616.833 1.7 1.75 1.82 1.94 2.03 2.23 2.53 2.86 3.21 3.64
3636.123 4.15 4.7 5.45 6.37 7.47 8.82 10.52 12.66 15.15 18.1
3655.413 21.49 24.93 28.2 30.95 32.58 32.72 31.46 29.06 25.96 22.54
3674.703 19.29 16.38 13.87 11.9 10.21 8.68 7.5 6.45 5.45 4.79
3693.993 4.36 3.78 3.27 3.03 2.72 2.45 2.22 2.07 1.93 1.71
3713.282 1.54 1.45 1.35 1.27 1.32 1.26 1.15 1.02 1 0.9799
3732.572 0.8644 0.9132 0.9959 0.9842 0.8057 0.6399 0.7371 0.7235 0.6238 0.6413
3751.862 0.6578 0.6338 0.6479 0.6083 0.5544 0.593 0.6312 0.5992 0.5293 0.57
3771.152 0.61 0.6805 0.6655 0.5238 0.5418 0.6345 0.6103 0.5157 0.5016 0.5627
3790.441 0.5927 0.6446 0.6925 0.6579 0.5973 0.6649 0.8077 0.7624 0.7202 0.6994
3809.731 0.6089 0.5759 0.5802 0.5477 0.5332 0.6592 0.7818 0.761 0.704 0.7001
3829.021 0.6942 0.6565 0.5561 0.5542 0.6168 0.6695 0.7746 0.7654 0.6812 0.6998
3848.311 0.7544 0.7075 0.7978 0.7905 0.6393 0.6247 0.6963 0.8018 0.7563 0.672
3867.601 0.6658 0.704 0.7163 0.7185 0.6925 0.7468 0.7325 0.6136 0.6234 0.6991
3886.890 0.7838 0.8015 0.6802 0.728 0.8678 0.8664 0.7976 0.702 0.7968 0.8694
3906.180 0.8496 0.7712 0.7302 0.7028 0.6217 0.6101 0.6477 0.6616 0.5633 0.5523
3925.470 0.5581 0.5707 0.6067 0.5637 0.4779 0.4522 0.4718 0.5144 0.5651 0.6169
3944.760 0.5942 0.5229 0.4313 0.3944 0.4348 0.4567 0.5679 0.5092 0.4359 0.4753
3964.049 0.5599 0.4909 0.4232 0.5425 0.5703 0.5055 0.4955 0.4378 0.4036 0.4666
3983.339 0.4988 0.5674 0.5445 0.4998 0.4908 0.4873 0.5914 0.5737 0.4665 0.4733
##END=
