##TITLE=Monocrotophos
##JCAMP-DX=4.24
##DATA TYPE=INFRARED SPECTRUM
##ORIGIN=NIST Mass Spectrometry Data Center
##OWNER=NIST Standard Reference Data Program
Collection (C) 2018 copyright by the U.S. Secretary of Commerce
on behalf of the United States of America. All rights reserved.
##CAS REGISTRY NO=6923-22-4
##MOLFORM=C 7 H 14 N O 5 P
##$NIST SOURCE=MSDC-IR
##SPECTROMETER/DATA SYSTEM=HP-GC/MS/IRD
##STATE=gas
##XUNITS=1/CM
##YUNITS=ABSORBANCE
##XFACTOR=1.0
##YFACTOR=0.000011600
##DELTAX=4.0
##FIRSTX=550.0
##LASTX=3846.0
##FIRSTY=0.007575
##MAXX=3846
##MINX=550
##MAXY=0.116
##MINY=0
##NPOINTS=825
##XYDATA=(X++(Y..Y))
550.0 653 593 536 495 429 356 275 210 160 126
590.0 95 75 64 57 54 49 46 40 32 22
630.0 18 12 9 15 17 14 11 13 18 23
670.0 30 37 41 48 58 71 80 95 111 127
710.0 152 177 211 256 306 353 398 429 438 431
750.0 417 400 385 379 380 388 406 437 483 549
790.0 658 837 1105 1432 1733 1887 1825 1620 1408 1301
830.0 1340 1505 1782 2123 2460 2712 2797 2686 2410 2071
870.0 1789 1639 1636 1761 1988 2263 2491 2534 2325 1935
910.0 1514 1187 982 870 820 821 862 956 1108 1331
950.0 1636 2020 2428 2738 2824 2649 2309 1953 1669 1478
990.0 1370 1344 1388 1502 1693 1980 2400 2999 3827 4921
1030.0 6221 7531 8624 9361 9787 10000 9998 9700 9088 8257
1070.0 7396 6606 5825 4983 4121 3370 2823 2470 2258 2131
1110.0 2050 2008 2001 2036 2134 2331 2659 3150 3757 4326
1150.0 4629 4544 4130 3562 3015 2554 2185 1900 1686 1524
1190.0 1397 1276 1166 1076 1018 999 1016 1064 1143 1236
1230.0 1305 1331 1291 1195 1067 949 862 816 808 841
1270.0 926 1080 1329 1683 2110 2521 2814 2952 3011 3077
1310.0 3121 3037 2750 2303 1822 1418 1126 940 831 771
1350.0 731 690 650 615 595 603 643 728 880 1096
1390.0 1313 1426 1376 1211 1044 946 920 925 922 895
1430.0 850 812 797 820 872 948 1029 1106 1193 1315
1470.0 1494 1726 2001 2297 2567 2746 2775 2637 2380 2075
1510.0 1789 1556 1373 1226 1108 1006 916 835 761 693
1550.0 633 581 534 492 457 428 403 382 368 357
1590.0 354 356 363 379 405 444 497 570 669 804
1630.0 989 1249 1621 2130 2785 3483 4001 4079 3635 2914
1670.0 2271 1901 1791 1883 2166 2640 3263 3875 4209 4094
1710.0 3579 2855 2126 1537 1119 833 636 500 404 335
1750.0 284 240 209 183 163 149 137 125 117 110
1790.0 104 98 95 91 87 85 82 76 73 70
1830.0 70 70 69 69 71 72 74 76 77 78
1870.0 78 77 78 79 78 77 79 81 82 85
1910.0 84 84 85 85 84 84 83 82 81 77
1950.0 72 68 63 56 49 43 39 35 33 28
1990.0 24 21 18 16 15 14 15 16 16 17
2030.0 19 19 20 21 20 19 18 17 16 15
2070.0 12 11 11 12 13 13 13 15 18 21
2110.0 23 25 27 31 34 33 31 30 29 26
2150.0 25 20 16 13 12 9 9 11 12 12
2190.0 11 11 11 9 7 6 5 4 3 1
2230.0 0 2 2 3 4 5 4 5 10 10
2270.0 9 8 8 10 12 13 13 12 10 10
2310.0 11 10 9 8 8 7 5 7 5 6
2350.0 7 8 10 11 10 11 12 11 12 11
2390.0 9 8 9 8 8 9 8 9 9 9
2430.0 8 8 13 15 13 15 16 15 14 14
2470.0 13 13 11 11 11 11 12 11 9 10
2510.0 11 11 12 13 14 13 14 18 20 21
2550.0 22 21 21 22 21 22 21 20 20 21
2590.0 20 19 22 22 23 25 25 23 22 23
2630.0 22 23 24 21 19 18 19 19 18 16
2670.0 17 16 15 15 15 16 18 20 19 18
2710.0 21 24 24 23 23 25 25 24 25 24
2750.0 26 29 30 31 33 37 42 44 49 54
2790.0 60 68 78 94 113 138 165 185 188 181
2830.0 180 190 207 229 267 327 419 534 631 659
2870.0 611 528 464 438 439 451 473 505 542 585
2910.0 631 680 737 801 868 932 987 1026 1064 1129
2950.0 1241 1418 1636 1791 1773 1559 1247 976 799 694
2990.0 640 614 599 589 576 556 536 520 503 481
3030.0 452 419 385 353 328 308 296 288 278 268
3070.0 261 254 243 228 215 201 186 171 156 143
3110.0 130 122 113 103 95 85 75 69 64 60
3150.0 55 49 44 43 37 32 27 23 22 21
3190.0 22 25 22 20 19 15 16 16 17 16
3230.0 13 12 12 12 14 15 15 12 12 14
3270.0 14 15 16 17 18 17 18 23 25 25
3310.0 26 27 28 29 32 35 35 36 37 36
3350.0 37 40 42 41 39 39 42 43 43 47
3390.0 50 51 53 55 54 48 46 50 54 60
3430.0 68 83 97 110 120 124 133 147 174 219
3470.0 267 313 349 358 334 283 220 162 118 89
3510.0 68 55 46 42 35 30 27 22 16 17
3550.0 18 18 15 12 11 11 12 13 12 10
3590.0 10 11 9 9 10 10 9 8 11 13
3630.0 12 15 17 17 16 21 29 31 37 41
3670.0 41 43 40 34 30 26 23 17 13 12
3710.0 13 11 14 14 11 9 10 11 12 12
3750.0 13 11 13 17 15 14 16 16 12 10
3790.0 10 13 13 10 9 11 16 15 14 13
3830.0 13 13 15 18 15
##END=
