##TITLE=sec-Octylamine
##JCAMP-DX=4.24
##DATA TYPE=INFRARED SPECTRUM
##ORIGIN=EPA-IR VAPOR PHASE LIBRARY
##OWNER=SRD/NIST
Collection (C) 2018 copyright by the U.S. Secretary of Commerce
on behalf of the United States of America. All rights reserved.
##CAS REGISTRY NO=693-16-3
##MOLFORM=C 8 H 19 N
##$NIST SOURCE=MSDC-IR
##STATE=gas
##XUNITS=1/CM
##YUNITS=ABSORBANCE
##XFACTOR=1.
##YFACTOR=0.001
##DELTAX=1.92898
##FIRSTX=549.8
##LASTX=4000.7
##FIRSTY=3.014
##MAXX=4000.7
##MINX=549.759
##MAXY=0.117164
##MINY=0
##NPOINTS=1790
##XYDATA=(X++(Y..Y))
549.759 3.014 2.974 2.384 2.274 2.474 2.614 2.874 2.914 2.914 2.854
569.049 2.784 2.994 3.384 3.234 3.184 3.484 3.334 3.104 2.994 3.034
588.339 3.044 2.994 2.814 2.754 2.864 2.814 2.864 2.954 2.914 2.844
607.628 2.744 2.744 2.794 2.754 2.784 2.824 2.714 2.784 2.854 2.964
626.918 2.944 2.864 2.804 2.904 3.114 3.024 3.014 3.014 2.964 3.084
646.208 3.284 3.334 3.364 3.384 3.484 3.634 3.594 3.594 3.734 3.814
665.498 3.944 4.044 4.014 4.034 4.094 4.204 4.364 4.454 4.454 4.484
684.787 4.584 4.644 4.804 4.934 4.974 5.194 5.284 5.474 5.884 5.984
704.077 6.094 6.304 6.514 6.744 6.924 7.274 7.664 7.894 8.004 8.304
723.367 8.674 9.054 9.404 9.574 9.804 10.004 10.304 10.564 10.754 11.064
742.657 11.404 11.824 12.314 12.764 13.174 13.614 13.934 14.254 14.924 15.644
761.947 16.154 16.624 17.344 18.104 18.614 19.224 20.084 20.684 20.964 21.344
781.236 21.664 21.954 22.074 22.094 21.964 21.414 20.724 19.984 19.174 18.544
800.526 17.804 16.914 16.184 15.424 14.484 13.764 13.074 12.234 11.724 11.244
819.816 10.664 10.124 9.564 9.134 8.864 8.654 8.244 7.894 7.604 7.334
839.106 7.164 7.024 6.804 6.554 6.484 6.354 6.004 5.714 5.574 5.534
858.395 5.354 4.984 4.894 4.904 4.694 4.494 4.474 4.374 4.184 4.094
877.685 3.994 3.924 3.854 3.754 3.724 3.634 3.604 3.434 3.344 3.444
896.975 3.404 3.274 3.154 3.204 3.274 3.194 3.184 3.184 3.174 3.214
916.265 3.204 3.074 2.964 2.964 2.884 2.904 2.874 2.724 2.744 2.754
935.555 2.734 2.774 2.764 2.644 2.644 2.684 2.614 2.594 2.654 2.604
954.844 2.454 2.424 2.464 2.394 2.394 2.424 2.344 2.504 2.694 2.634
974.134 2.624 2.654 2.634 2.564 2.564 2.724 2.684 2.764 2.824 2.664
993.424 2.724 2.814 2.794 2.604 2.554 2.724 2.694 2.754 2.804 2.804
1012.714 2.894 2.924 2.924 3.094 3.074 2.884 2.904 3.034 3.164 3.134
1032.003 3.184 3.444 3.534 3.524 3.594 3.794 3.904 3.924 4.114 4.214
1051.293 4.214 4.314 4.324 4.304 4.294 4.214 4.374 4.564 4.524 4.324
1070.583 4.354 4.624 4.894 5.104 5.074 4.594 4.324 4.524 4.304 4.194
1089.873 4.584 4.514 4.204 4.294 4.404 4.164 4.184 4.284 4.384 4.614
1109.163 4.314 4.274 4.464 4.744 4.754 4.664 4.874 4.984 5.104 5.114
1128.452 5.384 5.764 5.934 5.804 5.914 6.234 6.204 6.354 6.524 6.644
1147.742 6.494 6.134 6.084 5.994 5.624 5.064 4.914 5.004 4.664 4.184
1167.032 3.884 3.634 3.614 3.574 3.354 3.284 3.384 3.494 3.434 3.254
1186.322 3.154 3.194 3.374 3.254 3.114 3.074 3.094 3.094 3.154 3.314
1205.611 3.184 3.094 3.004 2.934 3.124 3.304 3.114 2.944 2.984 3.124
1224.901 2.964 2.684 2.584 2.624 2.694 2.614 2.604 2.584 2.624 2.764
1244.191 2.744 2.624 2.554 2.514 2.584 2.674 2.544 2.434 2.564 2.754
1263.481 2.764 2.754 2.664 2.564 2.714 2.834 2.824 2.854 2.714 2.724
1282.771 2.834 2.884 3.034 3.104 3.184 3.144 3.174 3.364 3.464 3.544
1302.060 3.594 3.674 3.764 3.774 3.894 4.074 4.164 4.214 4.344 4.564
1321.350 4.734 4.904 5.074 5.284 5.554 5.874 6.174 6.434 6.714 6.994
1340.640 7.294 7.604 7.844 7.974 8.104 8.244 8.384 8.504 8.654 8.874
1359.930 9.154 9.494 9.844 10.314 10.844 11.294 11.684 12.084 12.414 12.604
1379.219 12.544 12.264 11.844 11.294 10.604 9.824 8.964 8.094 7.284 6.524
1398.509 5.934 5.434 4.994 4.684 4.404 4.164 3.974 3.864 3.784 3.764
1417.799 3.774 3.804 3.884 3.954 4.094 4.314 4.524 4.804 5.154 5.564
1437.089 6.074 6.594 7.184 7.814 8.454 9.134 9.834 10.554 11.204 11.754
1456.378 12.274 12.634 12.764 12.794 12.654 12.314 11.784 11.164 10.524 9.754
1475.668 8.914 8.084 7.344 6.664 5.954 5.374 4.964 4.534 4.184 3.894
1494.958 3.614 3.404 3.224 3.094 2.974 2.894 2.774 2.684 2.634 2.544
1514.248 2.474 2.414 2.364 2.324 2.304 2.254 2.244 2.164 2.094 2.114
1533.538 2.054 2.004 2.004 1.964 2.014 2.044 2.034 2.044 2.024 2.054
1552.827 2.094 2.124 2.164 2.164 2.084 2.114 2.294 2.354 2.434 2.554
1572.117 2.594 2.634 2.754 2.854 2.984 3.124 3.184 3.324 3.564 3.784
1591.407 4.014 4.244 4.494 4.804 5.094 5.414 5.854 6.274 6.664 7.094
1610.697 7.454 7.834 8.174 8.414 8.574 8.634 8.584 8.444 8.164 7.754
1629.986 7.294 6.824 6.324 5.844 5.494 5.074 4.574 4.144 3.774 3.434
1649.276 3.174 2.984 2.774 2.614 2.474 2.294 2.094 1.974 1.924 1.824
1668.566 1.724 1.644 1.584 1.574 1.564 1.454 1.3816 1.3782 1.3112 1.2509
1687.856 1.2396 1.2159 1.2035 1.1644 1.0936 1.0806 1.1411 1.1411 1.1524 1.1423
1707.146 1.0441 0.9953 0.9854 0.9864 0.9304 0.9097 0.9471 0.9108 0.8746 0.8846
1726.435 0.8705 0.8519 0.8789 0.8584 0.8195 0.8976 0.905 0.8486 0.8247 0.782
1745.725 0.7736 0.7652 0.729 0.7656 0.8298 0.8442 0.8046 0.7507 0.7464 0.7895
1765.015 0.786 0.7915 0.818 0.7831 0.7714 0.7247 0.7078 0.7136 0.716 0.7217
1784.305 0.723 0.7554 0.715 0.6736 0.726 0.7265 0.6648 0.6814 0.7046 0.7096
1803.594 0.7083 0.7071 0.7179 0.7134 0.724 0.7206 0.691 0.6568 0.6688 0.6989
1822.884 0.6794 0.6674 0.6568 0.6131 0.6429 0.6549 0.6732 0.681 0.6608 0.6696
1842.174 0.6284 0.6014 0.6156 0.6254 0.5902 0.616 0.5953 0.5875 0.6269 0.6097
1861.464 0.6134 0.603 0.6436 0.6736 0.6311 0.596 0.5535 0.5455 0.5824 0.558
1880.754 0.5565 0.6101 0.5638 0.5508 0.575 0.574 0.5582 0.5655 0.5723 0.5928
1900.043 0.5833 0.5553 0.5865 0.5382 0.49268 0.4734 0.46387 0.48142 0.4991 0.51397
1919.333 0.5377 0.5485 0.49812 0.47194 0.51263 0.51763 0.48781 0.46066 0.44343 0.47212
1938.623 0.46977 0.47013 0.5059 0.51411 0.50156 0.45379 0.46298 0.46843 0.42732 0.45149
1957.913 0.429738 0.41848 0.49523 0.49887 0.4093 0.3801 0.46735 0.46053 0.3959 0.425974
1977.202 0.46241 0.44423 0.43825 0.45094 0.43769 0.429991 0.43405 0.430294 0.44663 0.424041
1996.492 0.4112 0.46288 0.46674 0.43707 0.43597 0.444 0.4207 0.46602 0.51947 0.51602
2015.782 0.5662 0.5935 0.5693 0.5612 0.5636 0.5466 0.5579 0.577 0.48881 0.44938
2035.072 0.5292 0.5614 0.5375 0.5524 0.5899 0.5586 0.5257 0.46378 0.428882 0.52378
2054.362 0.52122 0.45071 0.48694 0.52391 0.5437 0.5344 0.5473 0.5358 0.501 0.52369
2073.651 0.50677 0.46191 0.45041 0.47387 0.45725 0.44752 0.4881 0.47697 0.4622 0.4536
2092.941 0.43447 0.433057 0.46363 0.49833 0.46953 0.429168 0.45143 0.47952 0.48619 0.429095
2112.231 0.3771 0.4136 0.45415 0.47088 0.44693 0.4082 0.3812 0.4094 0.44562 0.45007
2131.521 0.3861 0.3951 0.4643 0.48015 0.44444 0.430792 0.45927 0.44695 0.3913 0.44759
2150.810 0.49953 0.3851 0.4012 0.45812 0.45544 0.48542 0.49723 0.50001 0.5343 0.48706
2170.100 0.45273 0.48161 0.44556 0.44276 0.48756 0.50615 0.5303 0.50907 0.433795 0.4059
2189.390 0.3954 0.3863 0.3896 0.4071 0.3468 0.3441 0.41599 0.41505 0.42861 0.45253
2208.680 0.44799 0.42279 0.4097 0.402 0.43725 0.45257 0.431149 0.430949 0.41938 0.403
2227.970 0.3857 0.4095 0.43501 0.411 0.3388 0.294 0.3681 0.3981 0.41439 0.43728
2247.259 0.3978 0.3851 0.42015 0.4363 0.3929 0.41964 0.41495 0.3478 0.3892 0.45787
2266.549 0.426407 0.3942 0.411 0.44652 0.42145 0.3667 0.4025 0.423434 0.42101 0.3938
2285.839 0.3811 0.423087 0.3943 0.317 0.37 0.3957 0.374 0.3777 0.3866 0.47392
2305.129 0.48349 0.44158 0.44059 0.4075 0.396 0.43448 0.43466 0.50009 0.5543 0.46567
2324.418 0.426349 0.47057 0.47988 0.46236 0.44284 0.42169 0.47607 0.51955 0.49474 0.431862
2343.708 0.41655 0.49372 0.5298 0.50847 0.50841 0.49507 0.4881 0.50246 0.44484 0.41719
2362.998 0.44584 0.45811 0.41456 0.4079 0.45122 0.52383 0.5373 0.42258 0.3429 0.3461
2382.288 0.41594 0.52066 0.5532 0.5357 0.535 0.5275 0.50331 0.46687 0.424832 0.44405
2401.578 0.5875 0.5944 0.49041 0.48606 0.51948 0.5447 0.48352 0.47856 0.51302 0.43685
2420.867 0.3836 0.47552 0.46961 0.3734 0.42142 0.49876 0.47676 0.48437 0.48896 0.47252
2440.157 0.47224 0.52186 0.5495 0.50745 0.45674 0.43901 0.4544 0.44139 0.43774 0.43983
2459.447 0.49409 0.52188 0.46957 0.43944 0.51917 0.5342 0.50539 0.47312 0.47063 0.4688
2478.737 0.46304 0.5569 0.5632 0.50977 0.433788 0.3572 0.3817 0.4033 0.46131 0.4497
2498.026 0.43416 0.49279 0.51815 0.5331 0.51875 0.5545 0.5539 0.5567 0.5906 0.5364
2517.316 0.49746 0.5281 0.5292 0.5616 0.6756 0.6693 0.6404 0.6839 0.6698 0.6641
2536.606 0.6409 0.5781 0.635 0.7219 0.6742 0.7183 0.7279 0.6571 0.6613 0.7147
2555.896 0.7527 0.8038 0.7844 0.7963 0.9298 0.9424 0.9475 0.9321 0.8962 0.8761
2575.186 0.8758 0.8958 0.9571 1.0351 1.0581 1.044 1.0301 1.0439 1.155 1.2384
2594.475 1.1774 1.1462 1.1233 1.162 1.2327 1.2198 1.1868 1.1818 1.2067 1.2905
2613.765 1.3155 1.3074 1.3491 1.434 1.504 1.484 1.514 1.574 1.574 1.584
2633.055 1.584 1.564 1.584 1.594 1.624 1.704 1.694 1.754 1.774 1.784
2652.345 1.794 1.764 1.844 1.954 1.994 1.924 1.944 1.994 2.034 2.064
2671.634 1.994 1.984 2.034 1.994 1.994 2.024 1.954 1.934 1.914 1.914
2690.924 1.944 1.974 1.934 1.894 1.954 2.014 2.014 1.954 1.994 2.034
2710.214 1.944 1.944 2.054 2.114 2.074 2.134 2.204 2.204 2.324 2.434
2729.504 2.414 2.454 2.484 2.594 2.654 2.594 2.594 2.654 2.684 2.654
2748.794 2.674 2.624 2.634 2.654 2.574 2.604 2.674 2.684 2.724 2.684
2768.083 2.684 2.794 2.884 2.884 2.964 3.134 3.254 3.364 3.494 3.564
2787.373 3.684 3.844 3.944 4.054 4.274 4.534 4.744 4.984 5.274 5.544
2806.663 5.754 5.954 6.244 6.524 6.844 7.264 7.704 8.174 8.714 9.234
2825.953 9.894 10.634 11.454 12.404 13.284 14.344 15.724 17.204 18.814 20.774
2845.242 23.044 25.374 27.904 30.664 33.384 36.094 38.654 40.974 42.984 44.654
2864.532 45.854 46.684 47.054 47.064 46.994 46.844 46.544 46.054 45.354 44.414
2883.822 43.464 42.704 42.094 41.654 41.394 41.374 41.944 43.084 44.554 46.564
2903.112 49.194 52.264 55.834 59.764 63.994 68.794 74.194 79.884 85.844 91.924
2922.401 97.904 103.604 108.634 112.844 115.814 117.164 116.994 115.414 112.434 108.244
2941.691 103.344 98.034 92.594 87.544 83.264 79.874 77.654 76.954 77.434 78.514
2960.981 79.994 81.344 81.824 80.994 78.734 75.054 70.244 64.554 58.094 51.314
2980.271 44.744 38.694 33.424 28.934 25.064 21.784 19.034 16.604 14.574 12.934
2999.561 11.704 10.584 9.624 8.914 8.304 7.754 7.144 6.694 6.264 5.934
3018.850 5.704 5.404 5.114 4.884 4.594 4.234 4.124 4.124 3.944 3.744
3038.140 3.594 3.354 3.294 3.284 3.124 2.884 2.724 2.694 2.614 2.564
3057.430 2.564 2.574 2.384 2.214 2.134 2.044 2.064 2.134 2.164 2.144
3076.720 2.064 1.914 1.984 2.034 1.954 1.934 1.844 1.764 1.744 1.694
3096.009 1.604 1.604 1.614 1.564 1.534 1.504 1.504 1.474 1.3715 1.3132
3115.299 1.346 1.3594 1.3481 1.444 1.444 1.3651 1.3335 1.1916 1.1739 1.2155
3134.589 1.2504 1.3143 1.2466 1.2406 1.2085 1.1218 1.1765 1.1229 1.0628 1.1968
3153.879 1.1758 1.1403 1.2616 1.234 1.067 0.9563 1.0763 1.1858 1.0345 1.0053
3173.169 0.9934 0.9616 1.0415 1.109 1.0242 1.0194 1.1269 1.0817 0.972 0.9906
3192.458 1.1454 1.1877 1.1338 0.9649 0.955 1.0181 0.9221 0.8254 0.7975 0.8222
3211.748 0.7741 0.8031 0.81 0.6981 0.6419 0.5314 0.48502 0.49645 0.424282 0.50247
3231.038 0.5275 0.47896 0.48782 0.5791 0.5776 0.49226 0.51864 0.6137 0.5979 0.444
3250.328 0.44782 0.46292 0.3792 0.48564 0.46506 0.3901 0.49309 0.3828 0.3969 0.44111
3269.617 0.3507 0.328 0.3857 0.46325 0.44941 0.4531 0.3906 0.275 0.314 0.3471
3288.907 0.252 0.3899 0.5987 0.5244 0.387 0.304 0.43704 0.5515 0.3999 0.3429
3308.197 0.49061 0.5913 0.6239 0.7063 0.8319 0.8253 0.8971 1.0602 1.0853 1.1221
3327.487 1.2533 1.3169 1.3374 1.2201 1.1688 1.2378 1.1591 1.1468 1.0581 0.8904
3346.777 0.9009 0.7727 0.6726 0.8448 0.7966 0.7455 0.7301 0.5887 0.5257 0.44999
3366.066 0.41831 0.4828 0.45851 0.44995 0.3817 0.296 0.3538 0.3361 0.42014 0.6121
3385.356 0.5578 0.45441 0.49702 0.6314 0.5959 0.49574 0.48159 0.48337 0.46273 0.4029
3404.646 0.45141 0.43682 0.317 0.296 0.4145 0.48518 0.3827 0.251 0.231 0.165
3423.936 0.133 0.199 0.202 0.111 0.062 0.241 0.323 0.3309 0.3893 0.3477
3443.225 0.245 0.233 0.288 0.184 0.106 0.186 0.256 0.428076 0.3959 0.165
3462.515 0.137 0.296 0.31 0.176 0.279 0.3 0.267 0.254 0.235 0.167
3481.805 0.085 0.123 0.065 0.104 0.127 0.127 0.225 0.22 0.189 0.239
3501.095 0.279 0.3438 0.316 0.119 0.097 0.106 0.194 0.222 0.05 0.126
3520.385 0.213 0.308 0.247 0.049 0.162 0.31 0.23 0.193 0.232 0.225
3539.674 0.274 0.272 0.256 0.143 0.098 0.129 0.147 0.148 0.221 0.311
3558.964 0.104 0.113 0.235 0.164 0.193 0.207 0.15 0.111 0.063 0.158
3578.254 0.22 0.052 0.026 0.107 0.208 0.234 0.239 0.299 0.076 0
3597.544 0.169 0.269 0.366 0.297 0.3486 0.5375 0.5567 0.5286 0.3408 0.231
3616.833 0.292 0.3598 0.3439 0.266 0.237 0.294 0.318 0.3457 0.50432 0.5984
3636.123 0.48727 0.3562 0.315 0.3605 0.3698 0.272 0.268 0.319 0.3697 0.423128
3655.413 0.28 0.3443 0.47625 0.3937 0.289 0.199 0.3283 0.392 0.264 0.254
3674.703 0.317 0.293 0.315 0.3941 0.3895 0.27 0.284 0.22 0.272 0.3526
3693.993 0.294 0.3 0.406 0.47505 0.43857 0.281 0.234 0.272 0.262 0.317
3713.282 0.319 0.3667 0.3436 0.246 0.3593 0.3881 0.258 0.293 0.234 0.247
3732.572 0.27 0.303 0.41559 0.3843 0.3772 0.43873 0.3793 0.41575 0.46652 0.3991
3751.862 0.5262 0.604 0.45176 0.3555 0.3761 0.362 0.3878 0.426124 0.424775 0.45832
3771.152 0.3537 0.3534 0.47061 0.51262 0.5687 0.47182 0.257 0.208 0.257 0.305
3790.441 0.314 0.3814 0.49974 0.3885 0.205 0.228 0.48622 0.50674 0.43432 0.51383
3809.731 0.5959 0.5646 0.50085 0.5361 0.3686 0.296 0.291 0.3281 0.3883 0.3703
3829.021 0.41972 0.3297 0.272 0.251 0.236 0.3545 0.3993 0.298 0.293 0.44971
3848.311 0.4086 0.208 0.069 0.143 0.48826 0.6348 0.43408 0.24 0.164 0.307
3867.601 0.3899 0.317 0.3548 0.4113 0.272 0.074 0.151 0.305 0.546 0.5496
3886.890 0.159 0.046 0.261 0.3863 0.3245 0.182 0.145 0.316 0.50517 0.6397
3906.180 0.6233 0.51041 0.4059 0.252 0.232 0.3541 0.268 0.285 0.3602 0.3446
3925.470 0.5275 0.5288 0.279 0.306 0.4895 0.4903 0.5354 0.47249 0.43837 0.50232
3944.760 0.3856 0.226 0.141 0.233 0.47037 0.50034 0.44239 0.3672 0.183 0.243
3964.049 0.301 0.249 0.429843 0.3656 0.3342 0.309 0.3411 0.43975 0.3578 0.335
3983.339 0.3426 0.427097 0.269 0.3 0.5538 0.5667 0.49441 0.5262 0.533 0.6405
##END=
