##TITLE=3-(Butylamino)propionitrile
##JCAMP-DX=4.24
##DATA TYPE=INFRARED SPECTRUM
##ORIGIN=EPA-IR VAPOR PHASE LIBRARY
##OWNER=SRD/NIST
Collection (C) 2018 copyright by the U.S. Secretary of Commerce
on behalf of the United States of America. All rights reserved.
##CAS REGISTRY NO=693-51-6
##MOLFORM=C 7 H 14 N 2
##$NIST SOURCE=MSDC-IR
##STATE=gas
##XUNITS=1/CM
##YUNITS=ABSORBANCE
##XFACTOR=1.
##YFACTOR=0.001
##DELTAX=1.92898
##FIRSTX=549.8
##LASTX=4000.7
##FIRSTY=3.146
##MAXX=4000.7
##MINX=549.759
##MAXY=0.082346
##MINY=0
##NPOINTS=1790
##XYDATA=(X++(Y..Y))
549.759 3.146 3.176 3.246 3.226 3.196 3.316 3.106 3.096 3.186 3.246
569.049 3.416 3.416 3.356 3.456 3.716 3.566 3.486 3.726 3.756 3.886
588.339 3.926 4.056 4.086 3.926 4.096 4.326 4.566 4.546 4.506 4.596
607.628 4.676 4.746 4.836 4.986 5.196 5.446 5.496 5.496 5.496 5.666
626.918 6.006 6.176 6.366 6.746 7.106 7.206 7.406 7.596 7.726 7.936
646.208 8.306 8.566 8.436 8.516 8.806 9.136 9.416 9.586 9.676 9.816
665.498 9.956 9.996 9.986 10.136 10.186 10.306 10.416 10.456 10.526 10.416
684.787 10.346 10.446 10.536 10.406 10.226 10.176 10.226 10.146 10.106 9.946
704.077 9.866 9.996 9.926 9.956 9.866 9.626 9.506 9.476 9.356 9.096
723.367 9.046 8.926 8.866 8.816 8.506 8.376 8.226 7.996 7.846 7.616
742.657 7.416 7.286 7.146 6.846 6.556 6.376 6.056 5.836 5.606 5.326
761.947 5.086 4.756 4.576 4.496 4.406 4.256 4.206 4.126 3.916 3.806
781.236 3.706 3.586 3.556 3.466 3.426 3.336 3.296 3.266 3.046 3.066
800.526 3.176 3.166 3.026 3.036 2.986 3.006 3.246 3.196 3.146 3.226
819.816 3.096 3.196 3.436 3.496 3.276 3.056 3.136 3.056 2.856 2.836
839.106 2.876 2.796 2.676 2.546 2.566 2.566 2.556 2.616 2.616 2.506
858.395 2.376 2.016 1.936 2.146 2.126 2.076 2.056 2.196 2.166 2.036
877.685 2.056 2.116 2.156 2.236 2.116 1.946 2.086 2.126 1.936 2.006
896.975 2.006 1.906 1.996 2.066 2.106 2.056 2.026 1.956 2.006 2.056
916.265 2.016 2.146 2.236 2.276 2.446 2.516 2.456 2.566 2.616 2.586
935.555 2.736 2.806 2.926 3.126 3.256 3.206 3.196 3.276 3.386 3.566
954.844 3.426 3.406 3.446 3.406 3.516 3.696 3.856 3.996 3.986 3.886
974.134 3.836 3.726 3.886 4.086 4.076 3.836 3.726 3.746 3.636 3.546
993.424 3.366 3.396 3.536 3.486 3.516 3.606 3.466 3.286 3.256 3.316
1012.714 3.236 3.016 3.036 3.156 3.026 2.796 2.776 2.736 2.796 3.146
1032.003 3.226 2.936 2.906 3.056 3.086 3.286 3.546 3.496 3.696 3.716
1051.293 3.566 3.696 3.846 3.996 3.836 3.936 4.096 3.876 3.666 3.776
1070.583 3.876 3.646 3.616 3.866 4.066 4.016 3.726 4.056 4.436 4.436
1089.873 4.846 5.286 5.516 5.916 6.416 6.756 7.206 7.996 8.736 9.306
1109.163 10.186 11.486 12.776 13.986 15.606 17.546 19.736 22.376 25.036 27.576
1128.452 30.356 32.706 34.276 35.416 35.906 35.596 34.456 32.776 30.936 28.596
1147.742 26.236 23.966 21.766 19.946 18.196 16.206 14.186 12.756 11.496 10.166
1167.032 8.946 8.046 7.196 6.676 6.326 5.686 5.256 4.766 4.486 4.556
1186.322 4.736 4.706 4.496 4.666 4.486 4.386 4.886 4.856 5.106 5.126
1205.611 5.046 5.486 5.676 5.596 5.166 5.336 5.516 5.406 5.206 5.116
1224.901 5.546 5.496 5.026 4.846 4.556 4.436 4.596 4.456 4.466 4.226
1244.191 3.976 4.136 4.116 4.066 4.366 4.456 4.186 4.186 4.136 3.906
1263.481 4.006 4.046 3.826 3.746 3.736 3.796 3.786 3.766 3.806 3.876
1282.771 3.886 4.036 4.016 3.926 4.136 4.296 4.376 4.476 4.546 4.676
1302.060 4.896 5.116 5.346 5.546 5.756 5.906 6.136 6.386 6.566 6.806
1321.350 7.016 7.256 7.606 7.966 8.356 8.696 9.026 9.426 9.816 10.156
1340.640 10.536 10.996 11.466 11.916 12.416 12.966 13.466 13.866 14.156 14.386
1359.930 14.436 14.266 13.956 13.566 12.986 12.306 11.706 11.156 10.616 10.116
1379.219 9.596 9.096 8.676 8.276 7.866 7.436 6.996 6.626 6.266 5.956
1398.509 5.736 5.616 5.576 5.466 5.506 5.716 5.936 6.256 6.666 7.136
1417.799 7.716 8.466 9.286 10.016 10.696 11.306 11.846 12.376 12.796 13.036
1437.089 13.196 13.356 13.506 13.766 14.186 14.746 15.426 16.246 17.166 18.246
1456.378 19.446 20.616 21.806 22.986 24.056 24.956 25.546 25.706 25.386 24.676
1475.668 23.586 22.046 20.066 17.846 15.546 13.286 11.286 9.646 8.306 7.206
1494.958 6.336 5.636 5.076 4.636 4.256 3.896 3.596 3.366 3.146 2.946
1514.248 2.786 2.646 2.466 2.316 2.226 2.156 2.066 1.956 1.886 1.856
1533.538 1.816 1.676 1.556 1.556 1.466 1.376 1.436 1.366 1.276 1.296
1552.827 1.296 1.246 1.176 1.156 1.146 1.176 1.216 1.146 1.0905 1.0894
1572.117 1.0569 1.0188 1.0206 1.0018 1.0118 1.0263 1.0097 0.9892 0.9752 0.944
1591.407 0.8418 0.8915 0.8574 0.7981 0.8067 0.7899 0.8825 0.8919 0.8783 0.8655
1610.697 0.821 0.8224 0.8142 0.8238 0.7592 0.7173 0.7359 0.7158 0.7028 0.6545
1629.986 0.6761 0.7139 0.7557 0.7941 0.8186 0.8197 0.7277 0.7234 0.7422 0.7241
1649.276 0.6966 0.6917 0.7069 0.7036 0.7059 0.7217 0.7142 0.6352 0.6266 0.6614
1668.566 0.6982 0.7583 0.7369 0.6966 0.6877 0.7045 0.7278 0.7489 0.7468 0.6801
1687.856 0.6202 0.6637 0.7009 0.6088 0.6318 0.7038 0.609 0.5552 0.6061 0.5889
1707.146 0.5967 0.6276 0.6004 0.5581 0.5979 0.628 0.6002 0.601 0.6126 0.5639
1726.435 0.5657 0.6335 0.6138 0.6006 0.6493 0.6683 0.6085 0.5962 0.618 0.572
1745.725 0.5647 0.6041 0.5841 0.5974 0.6339 0.6088 0.5807 0.6084 0.6667 0.6759
1765.015 0.6329 0.6024 0.6169 0.6309 0.6566 0.7164 0.7006 0.7241 0.7008 0.6026
1784.305 0.6389 0.6994 0.7166 0.69 0.6836 0.693 0.6966 0.6949 0.6854 0.6831
1803.594 0.6518 0.6154 0.7005 0.7815 0.7289 0.728 0.7853 0.7916 0.7457 0.7417
1822.884 0.7318 0.7324 0.706 0.6566 0.6454 0.6011 0.6111 0.6511 0.6562 0.6297
1842.174 0.5845 0.5543 0.5888 0.6747 0.7227 0.6915 0.6334 0.6222 0.6385 0.6317
1861.464 0.6802 0.6955 0.576 0.5774 0.5774 0.5418 0.545 0.5248 0.5263 0.5044
1880.754 0.55 0.6169 0.5871 0.5388 0.5744 0.5909 0.534 0.4752 0.4675 0.4806
1900.043 0.4555 0.4496 0.441 0.4717 0.439 0.4202 0.4829 0.5078 0.4866 0.4252
1919.333 0.3999 0.402 0.4191 0.4625 0.4677 0.4853 0.5132 0.4764 0.4851 0.4701
1938.623 0.4516 0.4493 0.4779 0.4938 0.4137 0.3921 0.4529 0.4543 0.4499 0.4774
1957.913 0.472 0.4593 0.4808 0.4881 0.4227 0.3763 0.383 0.4383 0.4119 0.3712
1977.202 0.3919 0.4101 0.4353 0.467 0.4716 0.4184 0.3549 0.3624 0.4127 0.4074
1996.492 0.3945 0.3962 0.4186 0.4204 0.4182 0.391 0.3806 0.3659 0.3456 0.4043
2015.782 0.441 0.4277 0.4055 0.4142 0.433 0.4295 0.4644 0.4948 0.4819 0.4766
2035.072 0.4687 0.4659 0.486 0.5402 0.5644 0.5262 0.49 0.4808 0.5018 0.5302
2054.362 0.5465 0.5364 0.5319 0.5167 0.4714 0.4775 0.5157 0.5291 0.5209 0.569
2073.651 0.533 0.4896 0.5671 0.6029 0.603 0.5803 0.5442 0.5045 0.4834 0.5282
2092.941 0.5337 0.5419 0.6372 0.6098 0.5263 0.5147 0.5132 0.5508 0.5322 0.5175
2112.231 0.5059 0.5081 0.5659 0.504 0.47 0.4825 0.4426 0.4779 0.5145 0.5106
2131.521 0.5159 0.507 0.4931 0.5149 0.5409 0.532 0.5018 0.5042 0.4716 0.4885
2150.810 0.5166 0.5289 0.5737 0.4907 0.4246 0.4505 0.5258 0.5963 0.5337 0.531
2170.100 0.5809 0.5082 0.4991 0.5176 0.5264 0.5398 0.5625 0.5487 0.5189 0.5665
2189.390 0.5407 0.507 0.5299 0.5287 0.5561 0.5636 0.5934 0.5608 0.492 0.5033
2208.680 0.5826 0.6572 0.6546 0.6119 0.6465 0.7489 0.7232 0.6889 0.7022 0.812
2227.970 0.9172 0.958 1.0727 1.176 1.296 1.496 1.716 1.946 2.106 2.266
2247.259 2.456 2.596 2.576 2.516 2.476 2.346 2.206 2.036 1.766 1.496
2266.549 1.296 1.146 1.0751 0.9251 0.8174 0.8329 0.8174 0.7532 0.7259 0.7022
2285.839 0.6475 0.6809 0.6852 0.6372 0.6629 0.6309 0.6646 0.6925 0.64 0.6062
2305.129 0.5745 0.5588 0.5433 0.5845 0.5417 0.536 0.5524 0.5642 0.5899 0.5917
2324.418 0.5667 0.5057 0.5052 0.5573 0.5988 0.5411 0.4665 0.5179 0.5844 0.5443
2343.708 0.5096 0.4568 0.472 0.5544 0.5411 0.5035 0.5164 0.5404 0.5764 0.5725
2362.998 0.6035 0.6421 0.5691 0.5411 0.5638 0.5968 0.6293 0.6218 0.6769 0.7256
2382.288 0.6008 0.5219 0.551 0.5387 0.5149 0.5434 0.5859 0.6203 0.6581 0.6834
2401.578 0.6518 0.6534 0.6777 0.6746 0.7126 0.6985 0.6842 0.7048 0.7064 0.6819
2420.867 0.6374 0.588 0.6412 0.7156 0.6526 0.6218 0.6686 0.6374 0.5592 0.586
2440.157 0.704 0.6938 0.6167 0.6141 0.564 0.586 0.6264 0.644 0.6316 0.5703
2459.447 0.5754 0.6141 0.5633 0.5623 0.6126 0.6126 0.6107 0.6258 0.5727 0.5405
2478.737 0.5568 0.6031 0.6476 0.6064 0.6246 0.6162 0.5902 0.581 0.562 0.5678
2498.026 0.5838 0.5693 0.6411 0.7121 0.6652 0.6228 0.6025 0.7076 0.7838 0.72
2517.316 0.7053 0.689 0.6923 0.7116 0.6807 0.6775 0.723 0.748 0.7543 0.7506
2536.606 0.7347 0.7338 0.7298 0.7505 0.793 0.7842 0.8217 0.8779 0.7944 0.8396
2555.896 0.945 0.8721 0.8357 0.8225 0.8549 0.9569 0.9066 0.8649 0.9177 0.9175
2575.186 0.8791 0.9412 1.0551 1.093 1.0831 1.0882 1.1092 1.0994 1.126 1.236
2594.475 1.326 1.326 1.266 1.326 1.416 1.366 1.376 1.426 1.366 1.446
2613.765 1.526 1.536 1.556 1.516 1.556 1.656 1.706 1.726 1.626 1.546
2633.055 1.596 1.626 1.736 1.776 1.706 1.806 1.836 1.826 1.896 1.976
2652.345 2.106 2.156 2.166 2.166 2.196 2.376 2.436 2.456 2.536 2.616
2671.634 2.706 2.776 2.806 2.826 2.876 2.966 3.046 3.066 3.126 3.176
2690.924 3.306 3.416 3.476 3.616 3.656 3.616 3.636 3.786 4.006 4.046
2710.214 3.966 3.996 4.096 4.106 4.086 4.176 4.186 4.206 4.286 4.416
2729.504 4.496 4.566 4.696 4.796 4.846 4.896 5.066 5.136 5.196 5.306
2748.794 5.326 5.376 5.476 5.586 5.586 5.596 5.696 5.776 5.836 5.866
2768.083 5.936 6.086 6.276 6.426 6.546 6.746 6.976 7.156 7.546 8.026
2787.373 8.336 8.656 9.226 9.876 10.446 11.156 11.906 12.616 13.576 14.706
2806.663 15.846 17.006 18.216 19.606 21.156 22.636 24.136 25.676 27.136 28.586
2825.953 30.066 31.316 32.406 33.626 34.486 35.156 35.866 36.286 36.556 36.826
2845.242 37.006 37.046 36.946 36.856 36.896 37.066 37.256 37.356 37.546 37.796
2864.532 38.046 38.276 38.496 38.726 39.096 39.516 40.006 40.536 40.766 40.626
2883.822 40.426 40.126 39.676 39.236 38.716 38.026 37.456 37.326 37.456 37.896
2903.112 38.736 39.986 41.506 43.326 45.366 47.646 50.176 52.936 55.906 58.886
2922.401 62.066 65.216 68.276 71.346 74.296 76.996 79.336 81.056 82.106 82.346
2941.691 81.696 80.356 78.456 76.376 74.056 71.846 70.116 68.706 67.876 67.836
2960.981 68.306 68.976 69.596 69.636 68.536 66.216 62.896 58.786 54.066 48.776
2980.271 42.976 37.196 31.906 27.516 23.886 20.836 18.356 16.266 14.436 12.876
2999.561 11.746 10.676 9.696 8.966 8.296 7.716 7.206 6.776 6.396 6.016
3018.850 5.526 5.106 5.046 4.916 4.606 4.516 4.386 4.196 4.046 3.826
3038.140 3.566 3.436 3.326 3.196 3.076 2.966 2.936 2.886 2.786 2.586
3057.430 2.386 2.286 2.176 2.146 2.176 2.266 2.206 1.976 1.856 1.846
3076.720 1.846 1.916 1.996 1.976 1.946 1.866 1.726 1.716 1.736 1.596
3096.009 1.606 1.656 1.636 1.646 1.596 1.376 1.356 1.406 1.346 1.346
3115.299 1.346 1.306 1.306 1.356 1.326 1.236 1.226 1.286 1.216 1.02
3134.589 0.9702 1.0134 0.9708 1.0231 0.9772 0.8868 0.9478 0.958 0.9528 0.9832
3153.879 1.0301 1.0503 1.0134 0.9303 0.9217 0.9996 0.9494 0.9315 0.9308 0.8598
3173.169 0.9031 0.9042 0.9798 1.0538 0.9734 1.0213 1.0169 0.8718 0.8104 0.9023
3192.458 0.9359 0.8789 0.8621 0.8855 0.9232 0.9095 0.8808 0.7997 0.6239 0.6364
3211.748 0.6411 0.5631 0.6484 0.6866 0.6657 0.6531 0.6089 0.6519 0.7008 0.6161
3231.038 0.6306 0.5962 0.478 0.5209 0.4508 0.3782 0.4983 0.4158 0.4104 0.5759
3250.328 0.5219 0.4354 0.4399 0.48 0.5131 0.4097 0.3019 0.2564 0.3054 0.3495
3269.617 0.3529 0.3267 0.19763 0.3227 0.4357 0.3096 0.21458 0.20689 0.247 0.3221
3288.907 0.3349 0.21983 0.0414 0 0.2265 0.2595 0.3241 0.3845 0.3614 0.3396
3308.197 0.3505 0.3853 0.2882 0.2987 0.3233 0.3153 0.3014 0.2959 0.3182 0.4545
3327.487 0.5529 0.5271 0.398 0.3252 0.3162 0.4146 0.5333 0.4729 0.4353 0.4074
3346.777 0.3329 0.3949 0.5826 0.6196 0.5438 0.4997 0.6039 0.5865 0.6319 0.6819
3366.066 0.6762 0.794 0.7887 0.6618 0.6247 0.7385 0.7186 0.6482 0.6015 0.6032
3385.356 0.5881 0.6691 0.693 0.6505 0.7522 0.7255 0.6677 0.6009 0.5004 0.4746
3404.646 0.4949 0.3743 0.3368 0.4681 0.5147 0.5334 0.4675 0.4376 0.4306 0.4494
3423.936 0.4585 0.4243 0.3982 0.2863 0.2724 0.21881 0.16415 0.248 0.303 0.2996
3443.225 0.2338 0.17035 0.1153 0.17817 0.2624 0.1569 0.0917 0.13822 0.19488 0.18926
3462.515 0.20428 0.2528 0.2255 0.20228 0.22283 0.21903 0.2972 0.2664 0.0982 0.16209
3481.805 0.2513 0.3435 0.3506 0.2547 0.3234 0.3017 0.18723 0.20115 0.14629 0.1156
3501.095 0.15627 0.096 0.16097 0.20536 0.0711 0.0928 0.3064 0.3161 0.2443 0.18452
3520.385 0.0943 0.18447 0.16524 0.1075 0.109 0.12202 0.14681 0.14061 0.18322 0.16927
3539.674 0.2314 0.2887 0.2995 0.2325 0.22386 0.2354 0.20707 0.18574 0.18984 0.3577
3558.964 0.21778 0.1145 0.14671 0.0942 0.20135 0.127948 0.0588 0.127613 0.21737 0.20237
3578.254 0.1 0.16109 0.17804 0.11629 0.1155 0.0849 0.0791 0.15971 0.17187 0.21428
3597.544 0.16716 0.0613 0.0807 0.16637 0.1988 0.20322 0.2457 0.15041 0.20474 0.3378
3616.833 0.2746 0.19268 0.2305 0.2975 0.20623 0.16577 0.14637 0.12116 0.13857 0.21178
3636.123 0.18838 0.13508 0.3216 0.4119 0.2787 0.2988 0.231 0.13647 0.1063 0.2264
3655.413 0.324 0.1938 0.3 0.3729 0.3492 0.2905 0.2604 0.3219 0.2815 0.2778
3674.703 0.2865 0.15738 0.2335 0.3374 0.2524 0.2963 0.3579 0.315 0.2843 0.2579
3693.993 0.3389 0.4162 0.3568 0.3174 0.237 0.18677 0.2873 0.3391 0.2075 0.17059
3713.282 0.3088 0.372 0.3956 0.2633 0.20349 0.28 0.3776 0.43 0.2678 0.128436
3732.572 0.1124 0.021 0.0487 0.18244 0.126489 0.20313 0.3957 0.3129 0.22311 0.3721
3751.862 0.3344 0.3295 0.3905 0.2372 0.2287 0.2866 0.3173 0.4817 0.4748 0.3387
3771.152 0.21428 0.2499 0.3626 0.2656 0.3713 0.3949 0.14566 0.17466 0.2278 0.3415
3790.441 0.3625 0.3132 0.2371 0.2459 0.4691 0.2839 0.1362 0.3069 0.4411 0.3525
3809.731 0.15486 0.2462 0.3919 0.3143 0.2682 0.3697 0.4522 0.2935 0.19427 0.2898
3829.021 0.305 0.3174 0.3146 0.21052 0.2311 0.3231 0.3794 0.3352 0.15986 0.114
3848.311 0.19325 0.2465 0.14845 0.1789 0.3016 0.18194 0.21432 0.3136 0.21839 0.1033
3867.601 0.18394 0.3439 0.2675 0.17955 0.1134 0.12355 0.2724 0.3436 0.4742 0.3929
3886.890 0.130056 0.097 0.2332 0.3164 0.3893 0.2726 0.20793 0.3033 0.3429 0.3675
3906.180 0.15693 0.22197 0.3598 0.3241 0.2665 0.2705 0.4293 0.3805 0.2923 0.2485
3925.470 0.3631 0.4257 0.275 0.2908 0.4805 0.4702 0.3729 0.4126 0.2412 0.2499
3944.760 0.342 0.4067 0.437 0.3916 0.451 0.3376 0.345 0.3841 0.3557 0.3586
3964.049 0.4136 0.5299 0.5242 0.5103 0.4927 0.4612 0.428 0.4381 0.5127 0.4857
3983.339 0.4353 0.4448 0.434 0.4677 0.4716 0.4755 0.4705 0.5611 0.695 0.6969
##END=
