##TITLE=2-Cyanobenzenesulphonyl chloride
##JCAMP-DX=4.24
##DATA TYPE=INFRARED SPECTRUM
##ORIGIN=EPA-IR VAPOR PHASE LIBRARY
##OWNER=SRD/NIST
Collection (C) 2018 copyright by the U.S. Secretary of Commerce
on behalf of the United States of America. All rights reserved.
##CAS REGISTRY NO=69360-26-5
##MOLFORM=C 7 H 4 Cl N O 2 S
##$NIST SOURCE=MSDC-IR
##STATE=gas
##XUNITS=1/CM
##YUNITS=ABSORBANCE
##XFACTOR=1.
##YFACTOR=0.001
##DELTAX=1.92898
##FIRSTX=549.8
##LASTX=4000.7
##FIRSTY=21.58
##MAXX=4000.7
##MINX=549.759
##MAXY=0.0807
##MINY=0
##NPOINTS=1790
##XYDATA=(X++(Y..Y))
549.759 21.58 21.4 19.65 16.62 14.33 13.7 13.44 13.2 14.3 14.88
569.049 16.49 19.87 23.86 29.68 35.78 41.53 49.13 58.8 67.52 73.87
588.339 78.63 80.7 79.9 75.41 66.66 57.01 47.6 39.4 32 24.82
607.628 18.95 14.94 12.43 10.26 8.13 6.29 5.26 4.6 4.14 4.52
626.918 4.33 3.82 3.98 4.16 3.46 2.5 2.68 2.48 2.21 2.15
646.208 1.95 2.01 2.12 2.63 2.77 2.7 3.28 3.47 3.38 4.15
665.498 5.07 6.73 9.19 11.26 13.15 15 16.4 16.75 16.27 15.6
684.787 14.73 12.88 10.31 7.89 5.92 4.36 3.29 2.83 2.47 2.71
704.077 3.01 2.02 1.7354 2.52 2.83 3.17 3.8 4.13 4.73 5.68
723.367 5.57 5.35 4.98 4.31 4.37 4.57 4.77 5.08 5.14 4.96
742.657 4.79 5.08 6.17 7.77 9.69 12.06 13.78 15.07 16.88 20.42
761.947 24.12 23.15 18.68 15.37 13.69 12.19 10.6 8.89 7.03 6.15
781.236 6.32 6.28 6.17 6.59 7.02 6.32 5.17 4.7 4.31 3.98
800.526 3.33 2.03 2.14 2.29 2.06 2.42 1.87 1.0278 1.99 2.93
819.816 1.96 1.3857 1.7092 1.6625 1.4378 1.1529 1.3744 1.92 2.02 1.98
839.106 1.6897 1.4636 1.8384 2.15 2.03 2.41 2.65 2.14 2.05 2.29
858.395 1.95 1.4666 1.5552 1.97 1.6238 1.4803 1.6136 1.754 2.17 2.18
877.685 1.92 1.7841 2.12 1.89 1.4615 1.5557 1.9 1.7965 1.3179 1.329
896.975 1.1629 1.0379 1.211 1.4714 2.17 1.94 1.5361 1.777 2.08 2.21
916.265 1.7092 1.4428 1.1038 1.4223 1.99 1.5071 0.9793 0.9901 1.331 1.5588
935.555 1.5238 1.2732 1.1891 1.5042 1.95 1.96 1.8513 1.856 2.12 2.21
954.844 1.7267 1.6185 1.7381 2.02 1.764 1.6396 1.5887 1.4169 1.6602 1.94
974.134 1.8207 1.2333 0.8446 0.93322 1.3011 1.4595 1.3955 1.3313 1.5829 1.2263
993.424 0.7856 1.0803 1.8009 1.6954 1.5287 1.8019 1.4592 1.0735 1.2788 1.2402
1012.714 1.3554 1.6154 1.7497 1.1237 0.533 1.7553 1.5699 1.4378 1.6537 1.1004
1032.003 1.2792 1.2355 1.3173 1.1287 1.5344 1.7614 1.96 1.95 1.5288 2.5
1051.293 3.45 3.64 3.26 4.07 5.32 5.69 5.34 5.03 4.28 3.62
1070.583 2.82 1.3226 1.6545 2.28 2.73 2.5 0.569 0 1.5788 1.6175
1089.873 1.15 1.88 2.11 1.6782 2.35 2.78 0.712 0.204 2.07 2.93
1109.163 2.29 2.48 2.69 2.65 3.94 4.88 4.6 3.61 3.86 5.33
1128.452 6.13 6.12 5.71 5.38 4.06 3.78 4.72 4.38 3.96 2.96
1147.742 2.68 2.94 4.77 5.79 5.57 6.34 6.16 6.67 8.6 10.9
1167.032 11.62 12.44 14.56 16.84 20.56 24.07 25.68 26.87 28.55 32.18
1186.322 36.74 39.7 42.56 45.07 46.47 48.17 47.43 43.56 38.35 32.67
1205.611 27.89 22.66 17.02 11.79 7.99 7.06 6.55 4.48 3.27 3.19
1224.901 2.89 3.36 3.9 3.55 2.86 2.83 2.87 3.14 3.75 2.87
1244.191 2.82 3.2 2.32 2.03 2.24 2.21 2.07 2.28 3.25 4.36
1263.481 4.49 4.2 4.1 4.35 4.57 4.95 4.52 3.82 4.19 4.32
1282.771 3.4 2.98 3.37 3.15 2.69 2.82 2.94 2.56 2.38 2.14
1302.060 1.9 1.7913 1.8161 1.94 1.86 1.7746 1.89 2.02 2 1.9
1321.350 2.04 2.2 2.36 2.7 2.58 2.41 2.55 2.67 2.84 2.93
1340.640 2.91 2.78 2.7 2.93 3.03 2.92 2.77 2.97 3.37 3.45
1359.930 3.39 3.34 3.62 4.01 4.47 4.89 5.34 5.93 6.4 7.09
1379.219 8.01 8.88 9.83 11.17 12.87 14.91 17.74 21.42 25.93 31.18
1398.509 36.92 42.75 47.35 49.93 50.24 48.63 45.45 40.5 34.05 27.33
1417.799 21.06 15.28 11.4 9.18 7.9 7.5 7.78 8.11 8.43 8.88
1437.089 8.95 8.97 8.78 8.12 7.55 6.9 5.94 5.23 4.84 4.57
1456.378 4.46 4.52 4.74 5.04 5.6 6.4 7.09 7.63 7.9 8.07
1475.668 7.76 7.38 6.75 5.71 4.69 3.89 3.29 2.75 2.36 2.1
1494.958 1.91 1.93 1.94 1.95 2.05 1.6882 1.5213 1.6495 1.92 1.95
1514.248 1.6681 1.6277 1.5636 1.6531 1.89 2 1.95 1.6551 1.92 1.98
1533.538 1.6507 1.7309 1.5312 1.2775 1.4075 1.6846 1.7071 1.7473 2.01 2.08
1552.827 2.09 2.08 2.15 2.28 2.72 3.04 2.83 2.78 2.91 3.02
1572.117 2.99 2.82 2.47 2.3 2.2 1.89 1.8454 1.8528 1.98 1.6715
1591.407 1.6248 1.99 1.6633 1.5587 1.8383 1.8013 1.6978 1.5011 1.3454 1.5765
1610.697 1.4498 1.3146 1.6331 1.6035 1.5292 1.6472 1.6219 1.6352 1.7273 1.7443
1629.986 1.88 1.88 1.6563 1.8554 2.04 1.88 1.7965 1.854 1.7596 1.693
1649.276 1.7653 1.6115 1.4329 1.211 1.1019 1.2498 1.3795 1.4833 1.2678 1.1693
1668.566 1.3312 1.4671 1.2712 0.93171 1.217 1.3659 1.1823 1.0756 0.885 1.1469
1687.856 1.351 1.0718 0.9739 1.1825 1.3103 1.2631 1.2448 1.3533 1.3307 1.3154
1707.146 1.5202 1.5959 1.3699 1.4862 1.7692 1.6516 1.7545 1.91 1.8058 1.6288
1726.435 1.5425 1.513 1.519 1.3802 1.1822 1.0661 0.95979 1.0219 1.2386 1.3501
1745.725 1.3031 1.3522 1.5084 1.4678 1.4747 1.4547 1.1969 1.2848 1.5435 1.4968
1765.015 1.3336 1.3091 1.3328 1.1844 1 1.1724 1.3717 1.3592 1.3488 1.2598
1784.305 1.2284 1.2809 1.2526 1.2342 1.1567 1.1116 1.0724 1.1295 1.4309 1.4359
1803.594 1.243 1.292 1.3391 1.3129 1.3849 1.3691 1.3691 1.4654 1.3953 1.6292
1822.884 1.7501 1.7767 1.853 1.7866 1.92 1.98 1.97 1.97 2 1.96
1842.174 1.9 1.86 1.7971 1.704 1.7184 1.8408 1.7341 1.5913 1.6907 1.639
1861.464 1.5963 1.5054 1.3776 1.5321 1.6679 1.691 1.6093 1.6761 1.6652 1.3634
1880.754 1.3206 1.368 1.4052 1.2876 1.2669 1.3216 1.3186 1.3132 1.2832 1.4688
1900.043 1.3895 1.3147 1.3888 1.2606 1.1489 1.2053 1.4722 1.4662 1.4883 1.5638
1919.333 1.4152 1.5638 1.6298 1.5314 1.3725 1.3778 1.516 1.4333 1.4996 1.6917
1938.623 1.7864 1.96 2.04 2.04 1.98 1.94 1.92 1.94 2.02 1.97
1957.913 1.7934 1.7111 1.7061 1.6855 1.707 1.7484 1.7957 1.794 1.7452 1.4497
1977.202 1.3785 1.6154 1.6927 1.6721 1.6777 1.656 1.5271 1.3057 1.1889 1.2486
1996.492 1.3933 1.4232 1.2127 1.2193 1.2183 1.0973 1.1565 1.1772 1.147 1.1698
2015.782 1.0907 1.1296 1.4579 1.3933 1.2212 1.2712 1.2446 1.3356 1.3519 1.2195
2035.072 1.2114 1.1711 1.1118 1.398 1.6151 1.5109 1.317 1.3321 1.4545 1.3939
2054.362 1.3441 1.3778 1.2311 1.0335 1.1035 1.3149 1.4194 1.4645 1.4536 1.2299
2073.651 1.1338 1.2602 1.3273 1.2441 1.2853 1.3685 1.2778 1.2964 1.3366 1.3774
2092.941 1.2922 1.3111 1.526 1.5598 1.551 1.6164 1.6345 1.4721 1.2754 1.1145
2112.231 1.1706 1.4556 1.4258 1.2814 1.2465 1.2062 1.2193 1.1335 1.2081 1.316
2131.521 1.2555 1.314 1.2465 1.0973 1.2372 1.3097 1.2417 1.3443 1.3591 1.2909
2150.810 1.089 1.0478 1.2355 1.2706 1.2679 1.287 1.2161 1.2728 1.1164 0.91188
2170.100 1.1747 1.3179 1.4351 1.5573 1.4307 1.304 1.4173 1.4006 1.2653 1.3096
2189.390 1.2163 1.2947 1.3286 1.0968 1.189 1.2766 1.1632 1.0601 1.0634 1.1825
2208.680 1.3116 1.2322 1.2084 1.427 1.3695 1.2623 1.2769 1.4145 1.5416 1.3342
2227.970 1.2346 1.4111 1.5538 1.5362 1.6516 1.6801 1.4253 1.2953 1.4519 1.5432
2247.259 1.4962 1.4448 1.3339 1.3863 1.3491 1.3047 1.5396 1.2312 0.9984 1.3444
2266.549 1.2723 1.1105 1.2174 1.1258 1.1162 1.3638 1.4229 1.3481 1.4447 1.5731
2285.839 1.58 1.4325 1.4496 1.5562 1.5814 1.3787 1.3541 1.5638 1.4069 1.427
2305.129 1.3785 1.2484 1.3275 1.3203 1.3563 1.5342 1.6204 1.6228 1.5304 1.2766
2324.418 1.3227 1.323 1.3075 1.4222 1.4076 1.3409 1.3818 1.5333 1.6361 1.5895
2343.708 1.4224 1.4199 1.4634 1.3659 1.1671 1.212 1.3462 1.3863 1.3011 1.2522
2362.998 1.2404 1.1262 1.2846 1.4008 1.3354 1.1949 1.1859 1.2341 1.3212 1.3642
2382.288 1.2483 1.4729 1.598 1.5466 1.3722 1.373 1.2701 1.1431 1.3552 1.3064
2401.578 1.1912 1.2645 1.1299 1.0795 1.1952 1.0928 1.3365 1.4722 1.4904 1.2963
2420.867 1.1858 1.322 1.4019 1.2669 0.95471 1.1128 1.2225 1.2819 1.4161 1.288
2440.157 1.2226 1.3147 1.3052 1.3432 1.4575 1.4677 1.3892 1.3381 1.3003 1.3136
2459.447 1.2701 1.4041 1.3347 1.3519 1.2463 1.059 1.2429 1.2334 1.1914 1.2859
2478.737 1.2296 1.1009 1.118 1.1919 1.1507 1.116 1.3791 1.2117 1.0763 1.2997
2498.026 1.3746 1.1838 1.0441 1.3065 1.3743 1.2794 1.2462 1.205 1.2931 1.365
2517.316 1.3614 1.5163 1.4066 1.2782 1.478 1.4428 1.4781 1.4026 1.3293 1.2642
2536.606 1.2088 1.2463 1.0903 1.0863 1.3086 1.4298 1.3365 1.3412 1.4297 1.488
2555.896 1.39 1.3162 1.4482 1.439 1.65 1.8104 1.97 2.09 1.7683 1.5983
2575.186 1.7265 1.92 1.6634 1.5194 1.6052 1.5418 1.6407 1.8402 2.1 2.15
2594.475 2.22 1.93 1.5037 1.6133 1.4989 1.7031 1.91 1.5735 1.734 1.8015
2613.765 1.5499 1.4545 1.5424 1.4735 0.95388 0.9987 1.4453 1.459 1.3945 1.3366
2633.055 1.3329 1.3004 1.2431 1.0233 0.869842 1.1618 1.1752 1.1152 1.2296 1.2037
2652.345 1.2942 1.3962 1.3248 1.3169 1.3753 1.3135 1.3918 1.4303 1.2062 1.4296
2671.634 1.2577 0.865577 0.8252 1.1622 1.281 1.2135 1.5087 1.4195 1.5624 1.7472
2690.924 1.5434 1.3173 1.3058 1.2327 1.1929 1.5735 1.7584 1.6686 1.377 1.1324
2710.214 1.5923 1.9 1.6887 1.3204 1.2685 1.4093 1.219 1.3035 1.6345 1.7752
2729.504 1.3587 1.0884 1.4335 1.4459 1.2606 1.2039 1.2471 1.4202 1.2929 1.082
2748.794 1.3968 1.5895 1.3527 1.5799 1.5727 1.2747 1.3773 1.3559 1.2505 1.1184
2768.083 1.0683 1.1824 0.9945 0.864671 1.208 1.5189 1.7309 1.66 1.4955 1.5322
2787.373 1.5007 1.248 1.2542 1.272 1.2766 1.359 1.3919 1.5607 1.8508 1.7862
2806.663 1.3633 1.2813 1.2625 1.4855 1.3826 1.4665 1.4988 1.3645 1.4406 1.3844
2825.953 1.4696 1.5451 1.4416 1.4337 1.5558 1.51 1.4685 1.2684 1.3435 1.6173
2845.242 1.6552 1.3396 1.0466 1.2987 1.95 1.8319 1.6265 1.87 1.3728 1.5733
2864.532 1.6456 1.4332 1.614 1.2485 0.92264 0.9998 1.3855 1.5394 1.574 1.5474
2883.822 1.2942 1.231 1.5823 1.7226 1.3688 1.2047 1.6052 1.4716 1.2597 1.3752
2903.112 1.4057 1.4753 1.5845 1.7436 1.4841 1.3515 1.5515 1.4308 1.3562 1.4506
2922.401 1.6264 1.609 1.3876 1.2655 1.0463 1.2632 1.4167 1.1445 1.2425 1.5581
2941.691 1.4857 1.5021 1.7119 1.6176 1.5798 1.6644 1.6082 1.4797 1.428 1.4767
2960.981 1.5027 1.4902 1.6315 1.5912 1.5464 1.6429 1.4405 1.354 1.6001 1.699
2980.271 1.7831 1.4587 1.226 1.4734 1.4038 1.6388 2.21 2.09 1.4916 1.7032
2999.561 1.96 1.4845 1.1401 1.4237 1.6125 1.5765 1.7507 1.6588 1.6686 1.8256
3018.850 1.7001 1.241 1.1881 1.5617 1.7952 1.95 1.7586 1.7164 1.94 2
3038.140 1.93 2.11 2.38 2.37 2.25 1.95 1.7454 1.7062 1.5442 1.6537
3057.430 1.4965 1.2248 1.5817 1.97 2.18 2.47 3.02 3.78 3.85 3.8
3076.720 3.73 3.73 4.43 4.69 4.13 3.51 3.28 3.05 2.48 2.4
3096.009 2.61 2.67 2.59 2.37 2.64 2.52 2.22 2.19 2.28 2.2
3115.299 1.8337 1.656 1.4449 1.7243 2.42 2.23 1.775 2.1 2.27 1.97
3134.589 1.92 2.13 1.7336 1.156 1.4469 1.91 1.7496 1.4133 1.3523 1.6115
3153.879 1.94 1.94 1.7125 1.066 1.0127 1.5505 1.8308 1.4656 1.3354 1.819
3173.169 1.8245 1.288 1.0679 0.9821 1.037 1.1852 1.1923 1.4431 1.1842 1.1838
3192.458 1.2643 1.0913 0.87656 0.8351 0.93831 1.1292 1.3682 1.684 2.14 1.8523
3211.748 1.779 1.5356 0.87178 1.0713 1.134 1.3293 1.5493 0.868393 0.719 1.1177
3231.038 1.2177 0.95099 1.0448 1.7322 1.87 1.99 2 1.5752 1.657 1.91
3250.328 1.8556 1.7167 1.1625 1.229 1.1291 0.527 0.7857 0.558 0.87527 1.278
3269.617 1.1296 1.6471 1.4687 0.95352 1.5038 1.8048 1.5951 1.8461 1.7822 1.3048
3288.907 0.8441 1.1556 1.94 2.02 1.4167 1.1226 1.489 1.4579 1.3366 1.6052
3308.197 1.7894 1.7342 1.5902 1.5034 1.3405 1.3232 1.3932 1.2251 1.2846 1.5289
3327.487 1.5161 1.6367 1.5982 1.8446 2.21 1.8406 1.93 1.8268 1.3297 1.363
3346.777 1.1794 0.9336 1.2827 1.4689 1.2648 1.2866 1.0336 1.0859 1.7228 1.6767
3366.066 1.4055 1.5674 1.6658 1.6916 1.7483 1.8041 1.6278 1.2692 1.2626 1.1927
3385.356 1.203 1.4529 1.6217 1.99 1.91 1.6501 1.5737 1.4144 1.3963 1.0277
3404.646 1.2431 1.91 2.1 1.7447 1.4189 1.8595 1.751 1.5322 1.88 1.94
3423.936 1.3878 1.1091 1.3008 1.5158 1.3741 1.1232 1.4761 1.2514 0.781 1.2282
3443.225 1.6221 1.7201 1.6851 1.6089 1.3277 0.9032 0.95417 1.127 1.2366 1.0592
3462.515 0.94399 1.2173 1.1023 1.072 1.0351 1.0736 1.7191 1.8027 1.2566 0.7
3481.805 0.7915 1.1117 1.1191 1.3805 1.8116 1.88 1.3684 1.0427 1.2986 1.0637
3501.095 1.021 1.2861 1.3562 1.7031 1.5373 0.87645 1.0956 1.3097 1.2067 1.4973
3520.385 1.7074 1.7413 1.2315 1.269 1.4751 1.7059 1.99 1.4166 0.8764 0.669
3539.674 0.93038 1.2061 1.373 1.6148 1.31 1.2075 1.6368 1.2273 0.94044 1.6177
3558.964 1.483 1.4005 1.4211 1.0438 1.2001 1.3082 1.1273 0.681 1.0843 1.6444
3578.254 1.225 1.4676 1.789 1.3978 1.0901 1.0086 1.0638 1.2259 1.5742 1.6924
3597.544 1.7618 2.15 1.97 1.0649 0.8389 1.4683 1.276 0.90949 1.0253 0.9778
3616.833 1.0678 1.692 1.97 1.6787 1.5151 1.0491 0.9876 1.5923 1.93 1.92
3636.123 1.1912 0.8371 0.9773 1.0871 1.1641 1.0991 1.2191 1.5087 1.573 1.3096
3655.413 1.5812 1.5034 1.2277 1.3921 1.7898 2.04 2.03 1.8365 1.7227 1.8366
3674.703 1.8448 1.86 1.7861 1.6852 1.594 1.4022 1.2667 1.87 1.8403 1.5673
3693.993 1.95 1.7681 1.7187 1.5062 1.1856 1.5147 1.7918 1.5065 1.0219 1.0142
3713.282 1.1905 1.4112 1.6831 1.6109 1.5324 1.8118 1.87 1.796 1.6125 1.7172
3732.572 2.02 1.592 1.5371 1.764 1.5703 1.556 2.01 1.92 1.4728 1.86
3751.862 1.91 1.6026 1.4955 1.89 1.7639 1.1986 1.6072 1.3181 1.2226 1.97
3771.152 1.748 1.391 1.6033 1.4557 1.7623 2.03 1.6186 1.5944 1.7666 1.8335
3790.441 1.659 1.4303 1.8234 1.8017 1.4531 1.8539 1.95 1.6963 1.2122 1.2061
3809.731 1.87 2.26 1.8571 1.2265 1.2232 1.0433 0.87243 1.2341 1.88 2.26
3829.021 2.15 1.2268 0.9896 1.3165 0.631 0.759 1.4376 1.7036 1.7173 1.4288
3848.311 1.065 1.0021 1.3817 1.5188 1.3257 1.2888 1.7143 2.23 1.98 1.88
3867.601 1.81 1.3113 1.4029 1.6906 2.06 2.01 1.8051 1.5237 1.3443 1.4149
3886.890 1.2375 0.9611 1.0809 1.3775 1.2142 1.247 1.2936 1.2859 1.0424 1.3613
3906.180 1.5984 1.5757 1.5862 0.9371 1.419 2.07 1.8355 1.8068 1.45 0.94082
3925.470 1.2212 1.5291 1.6212 2.15 2.16 2.08 2.07 2.01 1.425 1.107
3944.760 1.8242 2.08 1.99 1.8245 1.4656 1.4924 1.6846 1.1953 1.0461 0.9889
3964.049 1.2118 1.4863 1.0551 0.717 0.94714 0.996 1.375 1.792 1.4899 1.4904
3983.339 1.4949 1.5612 1.3094 1.1047 1.1244 1.5129 1.6224 1.2127 0.561 1.1311
##END=
