##TITLE=2,6-Difluorobenzylamine
##JCAMP-DX=4.24
##DATA TYPE=INFRARED SPECTRUM
##ORIGIN=NIST Mass Spectrometry Data Center
##OWNER=NIST Standard Reference Data Program
Collection (C) 2018 copyright by the U.S. Secretary of Commerce
on behalf of the United States of America. All rights reserved.
##CAS REGISTRY NO=69385-30-4
##MOLFORM=C 7 H 7 F 2 N
##$NIST SOURCE=MSDC-IR
##SPECTROMETER/DATA SYSTEM=HP-GC/MS/IRD
##STATE=gas
##XUNITS=1/CM
##YUNITS=ABSORBANCE
##XFACTOR=1.0
##YFACTOR=0.000013600
##DELTAX=4.0
##FIRSTX=550.0
##LASTX=3846.0
##FIRSTY=0.007861
##MAXX=3846
##MINX=550
##MAXY=0.136
##MINY=0
##NPOINTS=825
##XYDATA=(X++(Y..Y))
550.0 578 765 427 391 261 174 101 52 25 16
590.0 26 35 49 60 65 81 100 114 133 152
630.0 174 202 242 294 361 468 634 866 1119 1295
670.0 1371 1325 1172 967 774 698 753 909 1152 1493
710.0 1908 2325 2700 3056 3079 2637 2247 1994 1783 1718
750.0 1823 2095 2567 3317 4341 5425 6465 7942 8486 7047
790.0 5571 4370 3105 2161 1653 1480 1500 1603 1696 1802
830.0 1954 2150 2365 2547 2627 2568 2380 2083 1720 1378
870.0 1121 941 810 721 671 655 668 699 749 800
910.0 839 859 851 814 762 707 661 638 636 641
950.0 668 738 777 813 918 1059 1244 1529 1973 2631
990.0 3492 4340 4903 5208 5294 4958 4285 3662 3240 2911
1030.0 2581 2228 1872 1555 1288 1100 975 891 841 777
1070.0 660 541 440 345 282 247 235 240 256 283
1110.0 324 383 460 567 724 922 1094 1183 1240 1349
1150.0 1517 1745 2040 2338 2555 2611 2445 2131 1809 1548
1190.0 1358 1235 1152 1082 1019 1002 1096 1394 1982 2759
1230.0 3331 3465 3435 3269 2793 2407 2550 3111 3692 4002
1270.0 3915 3431 2637 1742 1054 671 486 404 371 365
1310.0 378 399 430 474 530 604 693 789 874 924
1350.0 937 922 887 839 802 784 787 805 826 838
1390.0 827 787 719 633 541 460 411 393 403 445
1430.0 524 667 916 1330 1988 3005 4468 6420 8341 9606
1470.0 10000 9597 8158 5978 4038 2689 1761 1136 763 568
1510.0 454 390 363 370 415 505 634 785 947 1133
1550.0 1359 1599 1834 2079 2365 2741 3189 3691 4149 4491
1590.0 4683 4689 4522 4400 4612 5162 5725 5938 5657 4937
1630.0 3916 2810 1881 1289 939 719 566 452 373 316
1670.0 275 243 215 186 158 132 114 98 85 80
1710.0 80 83 91 105 128 160 191 204 197 174
1750.0 136 92 53 32 23 25 27 27 26 30
1790.0 34 39 44 55 75 105 144 178 193 188
1830.0 174 146 104 66 41 26 17 11 6 2
1870.0 0 1 5 16 35 72 130 200 261 287
1910.0 278 242 183 111 55 30 24 23 22 19
1950.0 15 11 9 8 5 2 3 2 1 3
1990.0 4 6 8 6 5 6 8 9 8 10
2030.0 14 14 15 16 17 16 17 18 17 17
2070.0 17 16 16 18 18 16 19 21 24 27
2110.0 29 32 36 43 47 48 50 52 50 45
2150.0 39 33 31 29 29 28 26 26 28 29
2190.0 29 31 32 31 31 32 31 33 36 41
2230.0 45 47 52 62 71 83 91 95 100 101
2270.0 98 95 92 89 88 88 86 79 70 63
2310.0 53 45 41 37 35 37 38 36 35 31
2350.0 27 25 24 22 21 22 26 29 32 35
2390.0 39 44 48 50 50 49 50 48 49 51
2430.0 51 49 47 45 42 40 41 43 47 49
2470.0 51 50 53 58 63 66 69 71 71 67
2510.0 63 64 64 66 67 66 67 62 53 43
2550.0 35 30 26 23 20 17 18 17 17 20
2590.0 18 20 22 22 23 22 23 26 27 26
2630.0 27 30 32 33 32 33 32 34 37 38
2670.0 39 38 38 39 40 39 41 46 46 44
2710.0 47 49 53 58 61 65 72 78 82 86
2750.0 92 97 99 99 99 100 97 96 94 89
2790.0 84 83 83 87 92 96 101 113 130 143
2830.0 161 184 206 229 260 300 349 413 490 579
2870.0 676 769 848 891 895 871 818 741 659 583
2910.0 528 493 478 481 499 526 559 607 667 738
2950.0 818 896 973 1031 1035 988 915 819 704 590
2990.0 493 413 352 303 267 241 219 205 200 200
3030.0 206 208 204 195 179 171 181 205 245 302
3070.0 370 440 503 544 554 525 472 403 320 246
3110.0 178 118 73 48 37 28 25 27 29 29
3150.0 28 29 32 33 32 31 31 31 30 30
3190.0 30 28 30 32 34 30 31 33 31 31
3230.0 32 30 32 29 25 26 24 22 25 25
3270.0 21 20 22 24 23 23 22 23 25 24
3310.0 28 23 23 26 29 34 40 52 71 89
3350.0 106 117 118 111 91 74 60 49 44 41
3390.0 41 42 47 58 75 104 132 155 177 184
3430.0 172 148 128 103 84 67 58 50 43 39
3470.0 37 34 33 34 35 32 29 27 23 20
3510.0 24 24 26 31 28 24 24 23 22 22
3550.0 23 24 25 27 25 25 27 25 23 21
3590.0 19 21 23 29 33 28 27 29 31 33
3630.0 33 29 32 28 27 31 30 26 22 21
3670.0 22 20 20 21 16 19 21 19 22 23
3710.0 21 23 23 22 21 23 25 24 23 22
3750.0 24 27 25 24 26 25 23 24 20 22
3790.0 24 24 27 31 32 33 32 32 30 26
3830.0 30 30 34 35 29
##END=
