##TITLE=1-Chloro-2,3,3-trifluorocyclobutene
##JCAMP-DX=4.24
##DATA TYPE=INFRARED SPECTRUM
##ORIGIN=EPA-IR VAPOR PHASE LIBRARY
##OWNER=SRD/NIST
Collection (C) 2018 copyright by the U.S. Secretary of Commerce
on behalf of the United States of America. All rights reserved.
##CAS REGISTRY NO=694-62-2
##MOLFORM=C 4 H 2 Cl F 3
##$NIST SOURCE=MSDC-IR
##STATE=gas
##XUNITS=1/CM
##YUNITS=ABSORBANCE
##XFACTOR=1.
##YFACTOR=0.001
##DELTAX=1.929
##FIRSTX=549.8
##LASTX=4000.8
##FIRSTY=2.29
##MAXX=4000.75
##MINX=549.766
##MAXY=0.23629
##MINY=0
##NPOINTS=1790
##XYDATA=(X++(Y..Y))
549.766 2.29 2.16 1.695 1.8056 1.7913 1.5034 1.5468 1.4049 1.4512 1.4482
569.056 1.2635 1.4663 1.5119 1.21382 1.018 1.20545 1.3649 1.4008 1.2769 1.15132
588.346 1.3076 1.2604 1.0895 1.001 1.1157 1.2919 1.3972 1.3599 1.3014 1.356
607.636 1.3792 1.5411 1.6443 1.691 1.9183 1.9715 1.8801 2.2 2.48 2.74
626.926 3.06 3.53 3.8 3.55 3.8 4.07 3.87 3.34 2.57 2.19
646.216 2.15 1.9241 1.8289 1.7555 1.5446 1.5214 1.4043 1.3375 1.3197 1.17118
665.506 1.19222 1.3043 1.3079 1.3424 1.4898 1.6004 1.6322 1.8793 2.33 2.57
684.796 3.03 3.69 4.4 5.25 6.02 6.78 7.73 8.82 10.03 11.15
704.086 12.28 13.54 14.57 15.48 16.48 17.93 20.02 22.2 23.88 24.81
723.376 24.88 24.34 23.81 23.75 24.03 23.94 22.77 20.59 17.92 15.32
742.666 13.23 11.41 9.71 8.31 7.24 6.25 5.47 4.82 4.23 3.88
761.956 3.37 2.89 2.64 2.4 2.21 2.0596 2.0281 1.9972 1.7614 1.6089
781.246 1.8427 1.8838 1.8619 1.8932 1.7719 1.7777 2.0116 2.22 2.35 2.68
800.536 3.19 3.75 4.71 6.36 8.98 12.7 17.77 24.55 32.6 41
819.826 48.29 53.56 56.84 59.58 62.65 64.06 63.99 64.14 61.59 54.42
839.116 45.99 38.52 31.31 25.64 22.24 19.02 15.1 11.24 8.19 6.02
858.406 4.55 3.62 3.1 2.73 2.46 2.19 1.9431 1.8106 1.6351 1.5524
877.696 1.6229 1.7085 1.844 2.0143 2.2 2.48 2.67 2.94 3.34 3.64
896.986 4.02 4.59 5.36 6.41 7.51 8.84 10.57 12.5 14.88 17.68
916.276 20.46 23.16 25.55 27.49 29.47 31.88 34.74 37.51 38.46 35.29
935.566 30.46 27.13 24.56 21.84 19.02 16.41 13.81 11.23 8.85 6.84
954.856 5.27 4.06 3.24 2.78 2.42 2.31 2.34 2.45 2.64 2.89
974.146 3.22 3.53 3.95 4.58 5.27 5.99 6.89 7.85 8.86 10.11
993.436 11.65 13.41 15.33 17.82 20.92 24.47 28.48 32.83 37.29 41.46
1012.726 44.99 48.08 50.81 52.86 54.1 54.19 53.11 50.92 47.68 43.01
1032.016 37.6 33.27 30.01 27.06 24.5 22.64 21.53 20.95 20.79 21.05
1051.306 21.86 23.24 24.43 22.57 18.19 15.56 14.31 13.03 11.79 10.58
1070.596 9.46 8.34 7.4 6.69 6.22 6.12 6.16 6.2 6.38 6.62
1089.886 6.78 6.94 7.14 7.36 7.83 8.51 9.33 10.57 12.5 15.16
1109.176 18.72 23.28 28.9 35.41 42.19 48.38 52.85 55.24 56.03 56.24
1128.467 56.72 57.13 56.21 52.01 44.52 36.07 28.44 22.6 18.47 15.55
1147.757 13.52 12.37 12.15 12.68 13.93 16.05 19.03 22.98 28.03 34.22
1167.047 41.66 50.41 60.22 70.54 81.01 91.33 101.15 110.43 119.27 127.26
1186.337 133.11 134.44 129.09 116.77 101.16 87.67 76.84 67.17 58.32 49.77
1205.627 41.75 34.8 29.47 26.16 24.59 24.41 25.46 27.11 28.6 29.76
1224.917 30.3 30.29 30.14 29.83 29.15 28.03 26.35 23.92 20.95 17.92
1244.207 15.23 12.95 11.1 9.63 8.57 7.87 7.19 6.63 6.31 6.16
1263.497 6.18 6.32 6.65 7.04 7.49 8.01 8.63 9.41 10.16 10.97
1282.787 11.8 12.4 12.59 12.51 12.33 12.12 11.71 11.1 10.51 9.94
1302.077 9.37 9.04 8.98 9.19 9.62 10.34 11.27 12.46 14.07 16.06
1321.367 18.64 22.1 26.57 32.38 39.81 48.97 59.9 72.62 86.95 102.72
1340.657 120.01 138.52 157.85 177.25 195.53 211.68 224.47 232.79 236.29 234.2
1359.947 226.96 216.35 201.4 183.62 164.04 142.75 121.69 99.63 77.24 58.43
1379.237 44.42 34.7 28.09 23.4 19.54 16.12 13.3 11.17 9.49 8.14
1398.527 7.12 6.28 5.61 4.91 4.22 3.68 3.2 2.89 2.78 2.74
1417.817 2.78 2.79 2.88 3.04 3.2 3.5 3.86 4.26 4.92 5.89
1437.107 7.32 9.22 11.67 14.49 17.14 18.96 19.8 20.08 20.42 20.82
1456.397 20.02 18.88 18.1 16.31 13.4 10.19 7.54 5.63 4.52 3.79
1475.687 3.21 2.91 2.77 2.56 2.39 2.29 2.2 2.17 2.18 2.14
1494.977 2.1246 2.113 2.0656 2.0342 1.977 1.9967 2.0431 1.9046 1.744 1.6884
1514.267 1.6182 1.652 1.6833 1.65 1.7315 1.7197 1.6602 1.564 1.4746 1.4974
1533.557 1.5245 1.4043 1.4064 1.5409 1.529 1.3999 1.3338 1.3338 1.3357 1.3528
1552.847 1.3835 1.4941 1.5738 1.5934 1.4207 1.2927 1.2742 1.18671 1.14102 1.0754
1572.137 0.982 0.943 0.982 0.952 0.885 0.906 0.922 0.916 0.95 1
1591.427 1.001 1.017 1.1298 1.22374 1.2469 1.2613 1.3393 1.4809 1.5368 1.6062
1610.717 1.7085 1.7375 1.9 2.0669 2.0553 2.0342 2.0242 2.02 1.9962 2.0341
1630.007 2.072 2.0786 2.14 2.17 2.1015 2.0592 2.0676 2.0908 2.16 2.15
1649.297 2.1151 2.28 2.35 2.1283 2.0469 2.0277 2.0796 2.114 2.0982 2.27
1668.587 2.54 2.75 3.03 3.45 3.86 4.33 5.02 5.89 7.13 8.52
1687.877 10.13 12.21 14.67 17.62 21.28 25.28 29.68 34.84 39.72 44.98
1707.167 50.05 54.58 58.2 60.75 62.11 62.43 61.86 60.44 58 54.28
1726.457 48.87 42.12 34.84 28.22 22.23 17.16 13.26 10.18 7.89 6.23
1745.747 5.15 4.5 4.06 3.75 3.52 3.29 3.07 2.87 2.63 2.36
1765.037 2.15 1.9908 1.8136 1.6347 1.5183 1.3757 1.2321 1.1046 1.02 1.021
1784.327 1.021 0.931 0.885 0.924 0.93 0.837 0.844 0.919 0.94 0.964
1803.617 0.989 1.0677 1.1143 1.12983 1.15193 1.16839 1.2719 1.3436 1.394 1.4473
1822.907 1.4961 1.5439 1.5655 1.6103 1.6103 1.663 1.736 1.7551 1.8157 1.9425
1842.197 2.0464 2.1291 2.2 2.23 2.29 2.32 2.33 2.36 2.41 2.36
1861.487 2.26 2.19 2.0627 1.9549 1.832 1.7066 1.5972 1.4697 1.3698 1.2675
1880.777 1.17784 1.14273 1.14753 1.12079 1.1064 1.12139 1.14985 1.16869 1.234 1.2786
1900.067 1.261 1.3058 1.3543 1.388 1.3717 1.3048 1.2573 1.2272 1.18282 1.1395
1919.357 1.0598 0.972 0.972 0.944 0.912 0.86 0.848 0.881 0.842 0.828
1938.647 0.831 0.85 0.906 0.953 0.946 0.93 0.994 1.002 0.992 1.0968
1957.937 1.0985 1.1001 1.2356 1.2596 1.21944 1.2404 1.3076 1.3767 1.4745 1.5171
1977.227 1.5251 1.5249 1.4764 1.4774 1.4845 1.4496 1.4286 1.3587 1.2842 1.2317
1996.517 1.16752 1.1026 1.0503 1.0583 1.021 0.957 0.893 0.886 0.881 0.82
2015.807 0.799 0.856 0.891 0.835 0.838 0.855 0.782 0.741 0.733 0.725
2035.097 0.73 0.789 0.845 0.846 0.876 0.889 0.94 0.971 1.008 1.097
2054.387 1.14432 1.17592 1.20711 1.219 1.21827 1.2663 1.3316 1.3954 1.4604 1.4646
2073.677 1.4924 1.5362 1.5205 1.503 1.5016 1.4927 1.4925 1.4789 1.4859 1.4757
2092.967 1.4414 1.4345 1.3674 1.3339 1.3881 1.3718 1.352 1.3849 1.3848 1.3815
2112.257 1.3229 1.2925 1.2918 1.2467 1.22302 1.12065 1.009 0.978 0.928 0.831
2131.547 0.781 0.782 0.782 0.809 0.839 0.829 0.827 0.858 0.859 0.854
2150.837 0.864 0.905 0.941 0.977 1.007 1 0.994 1.016 1.008 1.0313
2170.127 1.1032 1.0793 1.0583 1.1067 1.17843 1.2352 1.20597 1.15281 1.16685 1.19481
2189.417 1.20232 1.19487 1.15788 1.16059 1.18583 1.13458 1.0721 1.087 1.0411 0.939
2208.707 0.884 0.819 0.785 0.786 0.755 0.682 0.655 0.72 0.78 0.759
2227.997 0.773 0.799 0.759 0.783 0.826 0.858 0.931 0.941 0.871 0.834
2247.287 0.773 0.709 0.731 0.723 0.698 0.678 0.659 0.673 0.658 0.625
2266.577 0.635 0.614 0.583 0.646 0.705 0.723 0.726 0.716 0.706 0.721
2285.868 0.702 0.7 0.736 0.748 0.708 0.727 0.782 0.763 0.796 0.799
2305.158 0.811 0.829 0.768 0.767 0.787 0.826 0.791 0.695 0.71 0.706
2324.448 0.683 0.734 0.859 0.958 0.941 0.986 1.0721 1.0982 1.17567 1.20692
2343.738 1.2807 1.3783 1.4474 1.5061 1.52 1.5961 1.7025 1.8002 1.7906 1.7664
2363.028 1.7436 1.6659 1.6356 1.5729 1.4759 1.4012 1.2921 1.2393 1.21626 1.15189
2382.318 1.1145 1.0949 1.1027 1.0376 0.994 0.997 0.92 0.909 0.952 1.0307
2401.608 1.1167 1.0803 1.0577 1.0612 1.025 1.0949 1.20576 1.21294 1.21214 1.21688
2420.898 1.2499 1.2722 1.2338 1.20882 1.22241 1.2104 1.1647 1.1156 1.13256 1.18797
2440.188 1.13736 1.0868 1.12519 1.0873 1.012 1.0373 1.017 0.934 0.856 0.792
2459.478 0.788 0.811 0.779 0.684 0.655 0.717 0.746 0.72 0.651 0.615
2478.768 0.612 0.544 0.542 0.587 0.561 0.533 0.525 0.564 0.577 0.518
2498.058 0.447 0.396 0.387 0.398 0.441 0.467 0.446 0.438 0.434 0.396
2517.348 0.439 0.468 0.436 0.464 0.549 0.606 0.555 0.555 0.612 0.705
2536.638 0.722 0.647 0.62 0.649 0.662 0.7 0.72 0.649 0.624 0.605
2555.928 0.554 0.545 0.473 0.415 0.494 0.506 0.403 0.324 0.359 0.366
2575.218 0.313 0.324 0.256 0.223 0.303 0.327 0.36 0.281 0.219 0.254
2594.508 0.256 0.255 0.28 0.362 0.355 0.372 0.36 0.279 0.273 0.25
2613.798 0.188 0.138 0.183 0.264 0.228 0.284 0.396 0.417 0.412 0.374
2633.088 0.363 0.322 0.38 0.363 0.344 0.396 0.368 0.343 0.224 0.12
2652.378 0.148 0.189 0.204 0.242 0.253 0.196 0.22 0.227 0.163 0.164
2671.668 0.171 0.227 0.263 0.218 0.224 0.312 0.328 0.233 0.185 0.307
2690.958 0.386 0.23 0.172 0.259 0.265 0.204 0.198 0.258 0.26 0.266
2710.248 0.211 0.158 0.215 0.269 0.249 0.185 0.165 0.14 0.189 0.2
2729.538 0.12 0.11 0.06 0.09 0.16 0.13 0.11 0.133 0.09 0.05
2748.828 0.12 0.06 0 0.07 0.143 0.161 0.191 0.227 0.169 0.08
2768.118 0.12 0.151 0.13 0.171 0.142 0.11 0.151 0.134 0.134 0.173
2787.408 0.174 0.17 0.196 0.276 0.315 0.244 0.307 0.336 0.24 0.236
2806.698 0.342 0.364 0.282 0.238 0.289 0.333 0.342 0.337 0.307 0.342
2825.988 0.404 0.475 0.467 0.496 0.553 0.624 0.667 0.602 0.52 0.597
2845.278 0.683 0.646 0.682 0.676 0.709 0.755 0.771 0.834 0.878 1.001
2864.568 1.15394 1.2945 1.4394 1.4672 1.4838 1.6665 1.7537 1.8339 1.95 1.9148
2883.858 1.8574 1.7609 1.7213 1.7194 1.5926 1.3952 1.15576 0.957 0.911 0.794
2903.148 0.607 0.552 0.543 0.622 0.688 0.636 0.622 0.671 0.662 0.63
2922.438 0.581 0.533 0.604 0.612 0.581 0.573 0.59 0.766 0.98 1.20275
2941.728 1.4841 1.8878 2.31 2.8 3.49 4.23 5 5.96 6.95 7.78
2961.018 8.38 8.47 8.05 7.64 7.85 8.23 7.78 6.89 6.06 5.21
2980.308 4.35 3.56 3.06 2.79 2.69 2.73 2.91 3.05 3.23 3.48
2999.598 3.62 3.79 4.15 4.97 5.11 3.96 3.14 2.94 2.69 2.41
3018.888 2.1054 1.8304 1.5373 1.2686 0.986 0.755 0.652 0.463 0.269 0.298
3038.178 0.327 0.226 0.243 0.402 0.341 0.229 0.261 0.296 0.292 0.296
3057.468 0.311 0.331 0.471 0.489 0.426 0.467 0.461 0.518 0.523 0.411
3076.758 0.42 0.425 0.369 0.327 0.307 0.398 0.476 0.324 0.149 0.135
3096.048 0.182 0.193 0.149 0.08 0.12 0.192 0.225 0.22 0.192 0.132
3115.338 0.13 0.201 0.233 0.171 0.156 0.252 0.251 0.153 0.138 0.169
3134.628 0.187 0.244 0.339 0.327 0.243 0.16 0.09 0.191 0.314 0.242
3153.918 0.157 0.198 0.225 0.316 0.387 0.371 0.297 0.185 0.203 0.213
3173.208 0.12 0.166 0.212 0.2 0.267 0.317 0.347 0.33 0.297 0.299
3192.498 0.355 0.381 0.25 0.306 0.508 0.355 0.256 0.426 0.542 0.445
3211.788 0.346 0.307 0.226 0.198 0.135 0.15 0.308 0.388 0.395 0.446
3231.078 0.435 0.372 0.42 0.307 0.185 0.257 0.238 0.168 0.209 0.299
3250.368 0.334 0.292 0.272 0.216 0.17 0.316 0.258 0.235 0.332 0.302
3269.658 0.298 0.353 0.462 0.422 0.298 0.297 0.293 0.164 0.12 0.271
3288.948 0.345 0.24 0.21 0.279 0.333 0.315 0.237 0.278 0.336 0.287
3308.238 0.293 0.333 0.388 0.346 0.325 0.464 0.434 0.332 0.347 0.344
3327.528 0.396 0.359 0.275 0.361 0.397 0.43 0.376 0.415 0.412 0.428
3346.818 0.496 0.42 0.47 0.555 0.578 0.502 0.413 0.282 0.244 0.305
3366.108 0.474 0.623 0.504 0.392 0.415 0.451 0.494 0.444 0.355 0.39
3385.398 0.507 0.606 0.626 0.555 0.568 0.632 0.564 0.497 0.449 0.411
3404.688 0.449 0.558 0.574 0.477 0.401 0.393 0.531 0.59 0.525 0.58
3423.978 0.633 0.51 0.427 0.468 0.408 0.534 0.619 0.497 0.569 0.534
3443.269 0.42 0.366 0.336 0.323 0.372 0.533 0.463 0.336 0.363 0.418
3462.559 0.421 0.42 0.46 0.482 0.386 0.269 0.332 0.343 0.21 0.265
3481.849 0.469 0.563 0.523 0.524 0.502 0.496 0.416 0.377 0.482 0.473
3501.139 0.437 0.51 0.482 0.489 0.459 0.355 0.529 0.499 0.379 0.518
3520.429 0.584 0.343 0.316 0.471 0.401 0.323 0.332 0.462 0.519 0.406
3539.719 0.435 0.383 0.304 0.407 0.443 0.469 0.503 0.521 0.599 0.734
3559.009 0.726 0.567 0.448 0.359 0.408 0.533 0.465 0.359 0.445 0.497
3578.299 0.516 0.419 0.386 0.498 0.585 0.744 0.643 0.51 0.527 0.548
3597.589 0.541 0.48 0.472 0.597 0.616 0.574 0.566 0.626 0.583 0.596
3616.879 0.673 0.541 0.556 0.602 0.533 0.628 0.704 0.674 0.585 0.5
3636.169 0.595 0.541 0.367 0.323 0.402 0.521 0.595 0.572 0.517 0.392
3655.459 0.463 0.601 0.564 0.624 0.694 0.616 0.557 0.555 0.466 0.447
3674.749 0.526 0.582 0.65 0.685 0.562 0.585 0.747 0.896 0.787 0.509
3694.039 0.452 0.485 0.632 0.599 0.482 0.641 0.711 0.71 0.723 0.732
3713.329 0.705 0.471 0.424 0.48 0.509 0.542 0.491 0.529 0.635 0.661
3732.619 0.632 0.682 0.714 0.705 0.572 0.493 0.518 0.635 0.766 0.703
3751.909 0.606 0.583 0.656 0.656 0.601 0.63 0.675 0.712 0.516 0.443
3771.199 0.586 0.547 0.468 0.396 0.453 0.606 0.59 0.549 0.699 0.68
3790.489 0.51 0.535 0.588 0.637 0.625 0.524 0.48 0.613 0.637 0.454
3809.779 0.525 0.614 0.554 0.536 0.636 0.697 0.585 0.415 0.342 0.435
3829.069 0.592 0.574 0.522 0.591 0.544 0.643 0.652 0.572 0.618 0.633
3848.359 0.684 0.6 0.529 0.59 0.645 0.633 0.465 0.439 0.482 0.444
3867.649 0.445 0.506 0.527 0.391 0.475 0.511 0.392 0.458 0.495 0.49
3886.939 0.578 0.679 0.668 0.571 0.485 0.548 0.542 0.508 0.478 0.445
3906.229 0.519 0.563 0.556 0.467 0.405 0.533 0.617 0.668 0.644 0.502
3925.519 0.56 0.677 0.659 0.566 0.642 0.717 0.757 0.675 0.502 0.442
3944.809 0.422 0.424 0.583 0.58 0.531 0.52 0.48 0.452 0.285 0.359
3964.099 0.509 0.613 0.638 0.481 0.445 0.557 0.599 0.445 0.359 0.42
3983.389 0.526 0.543 0.492 0.507 0.393 0.464 0.672 0.652 0.621 0.601
##END=
