##TITLE=3-Ethylcyclopentene
##JCAMP-DX=4.24
##DATA TYPE=INFRARED SPECTRUM
##ORIGIN=NIST Mass Spectrometry Data Center
##OWNER=NIST Standard Reference Data Program
Collection (C) 2018 copyright by the U.S. Secretary of Commerce
on behalf of the United States of America. All rights reserved.
##CAS REGISTRY NO=694-35-9
##MOLFORM=C 7 H 12
##$NIST SOURCE=MSDC-IR
##SPECTROMETER/DATA SYSTEM=HP-GC/MS/IRD
##STATE=gas
##XUNITS=1/CM
##YUNITS=ABSORBANCE
##XFACTOR=1.0
##YFACTOR=0.000003000
##DELTAX=4.0
##FIRSTX=550.0
##LASTX=3846.0
##FIRSTY=0.000639
##MAXX=3846
##MINX=550
##MAXY=0.03
##MINY=0
##NPOINTS=825
##XYDATA=(X++(Y..Y))
550.0 213 124 112 136 141 135 149 163 157 167
590.0 177 191 167 140 152 145 120 92 88 89
630.0 101 106 78 92 108 114 153 208 244 286
670.0 362 461 578 717 868 1037 1222 1390 1580 1742
710.0 1874 1996 2030 1912 1742 1567 1348 1142 941 768
750.0 654 537 436 374 325 299 294 287 274 273
790.0 265 260 253 226 210 182 158 151 140 130
830.0 130 123 117 109 125 131 111 93 72 63
870.0 54 28 19 47 102 172 259 357 411 418
910.0 407 402 370 319 255 214 201 182 160 143
950.0 133 129 146 179 222 262 300 329 354 384
990.0 404 410 381 347 318 282 249 226 190 150
1030.0 119 98 98 119 148 188 220 229 240 232
1070.0 241 258 245 242 241 251 272 263 236 204
1110.0 162 128 107 75 51 33 24 27 27 31
1150.0 38 41 42 60 60 49 48 33 27 32
1190.0 31 34 32 39 52 44 43 64 79 80
1230.0 87 100 111 133 151 173 192 191 190 203
1270.0 201 187 179 173 163 155 158 154 141 131
1310.0 129 137 136 147 171 179 185 217 268 332
1350.0 395 435 453 472 492 516 517 498 484 475
1390.0 462 413 328 257 205 175 166 169 190 229
1430.0 288 360 453 577 720 851 942 969 970 961
1470.0 895 778 651 510 401 307 230 178 141 108
1510.0 86 76 64 60 54 40 38 34 24 29
1550.0 36 36 26 29 43 51 57 53 57 67
1590.0 78 101 129 157 178 186 194 210 222 233
1630.0 231 226 244 251 238 222 210 196 177 154
1670.0 120 97 83 70 64 64 58 43 37 34
1710.0 27 22 23 23 15 10 8 10 13 12
1750.0 13 16 17 10 2 3 5 10 10 8
1790.0 0 0 3 6 8 9 12 17 16 15
1830.0 6 2 14 15 14 17 20 24 29 32
1870.0 30 24 17 14 12 14 18 12 14 12
1910.0 16 26 23 24 30 25 15 16 23 22
1950.0 20 20 19 22 24 18 15 15 17 22
1990.0 20 18 20 22 25 26 28 36 40 34
2030.0 26 23 21 20 20 20 24 25 25 26
2070.0 28 34 28 19 17 16 22 23 19 24
2110.0 32 22 23 35 28 18 23 30 27 26
2150.0 32 37 37 41 42 43 41 37 37 38
2190.0 43 49 52 55 55 55 52 48 45 41
2230.0 40 45 42 35 38 35 34 33 35 39
2270.0 38 33 32 40 42 31 32 41 39 40
2310.0 40 34 38 38 37 37 39 37 37 39
2350.0 39 45 46 48 49 45 49 47 41 35
2390.0 30 30 32 30 34 39 33 35 49 50
2430.0 42 34 26 21 25 23 19 24 25 28
2470.0 35 37 36 35 35 36 31 27 29 36
2510.0 38 38 41 38 46 52 52 59 61 56
2550.0 62 60 62 72 70 70 67 70 76 78
2590.0 79 78 70 55 55 68 74 74 75 73
2630.0 71 68 69 69 68 68 63 72 77 73
2670.0 76 80 76 74 80 93 98 92 90 95
2710.0 100 113 121 126 136 141 145 160 181 189
2750.0 193 201 195 194 214 235 257 280 303 322
2790.0 347 391 434 471 520 587 653 741 870 1027
2830.0 1236 1533 1943 2492 3158 3849 4463 4992 5440 5764
2870.0 5928 5917 5727 5449 5240 5109 5057 5067 5191 5487
2910.0 5920 6454 7014 7572 8115 8582 8930 9170 9386 9555
2950.0 9700 9964 10000 9703 9250 8373 7341 6326 5141 3873
2990.0 2794 2022 1530 1210 987 860 799 772 778 827
3030.0 954 1142 1394 1741 2144 2511 2749 2831 2745 2592
3070.0 2376 1960 1447 1025 730 510 369 291 235 208
3110.0 189 172 158 141 137 143 151 154 153 150
3150.0 147 154 155 146 137 140 139 117 111 119
3190.0 120 113 118 115 112 117 110 100 97 96
3230.0 89 81 73 57 48 54 44 47 60 49
3270.0 47 50 49 52 48 53 39 26 41 46
3310.0 36 34 26 19 32 41 34 41 39 35
3350.0 40 42 39 36 38 37 36 34 23 31
3390.0 35 26 32 33 32 40 46 45 40 33
3430.0 34 44 43 36 33 34 33 42 49 42
3470.0 27 26 38 49 44 35 41 40 40 51
3510.0 45 43 63 59 47 47 43 54 64 72
3550.0 62 47 44 41 50 53 44 43 44 52
3590.0 52 58 63 53 56 68 75 58 54 53
3630.0 47 71 80 70 60 69 81 73 76 71
3670.0 61 70 75 71 72 83 89 90 88 91
3710.0 86 83 82 76 84 85 89 83 71 76
3750.0 81 69 53 66 87 97 93 77 88 90
3790.0 81 83 94 108 116 104 92 91 98 118
3830.0 122 111 107 119 123
##END=
