##TITLE=p-Bromomandelic acid
##JCAMP-DX=4.24
##DATA TYPE=INFRARED SPECTRUM
##ORIGIN=NIST Mass Spectrometry Data Center
##OWNER=NIST Standard Reference Data Program
Collection (C) 2018 copyright by the U.S. Secretary of Commerce
on behalf of the United States of America. All rights reserved.
##CAS REGISTRY NO=6940-50-7
##MOLFORM=C 8 H 7 Br O 3
##$NIST SOURCE=MSDC-IR
##SPECTROMETER/DATA SYSTEM=HP-GC/MS/IRD
##STATE=gas
##XUNITS=1/CM
##YUNITS=ABSORBANCE
##XFACTOR=1.0
##YFACTOR=0.000006000
##DELTAX=4.0
##FIRSTX=550.0
##LASTX=3846.0
##FIRSTY=0.010800
##MAXX=3846
##MINX=550
##MAXY=0.06
##MINY=0
##NPOINTS=825
##XYDATA=(X++(Y..Y))
550.0 1800 1695 1586 1561 1404 1231 1077 930 801 743
590.0 759 826 924 1045 1171 1310 1477 1662 1842 1962
630.0 2008 2020 1971 1816 1630 1491 1350 1167 965 842
670.0 693 499 403 346 325 315 317 361 421 473
710.0 528 596 694 878 1231 1720 2081 2023 1554 974
750.0 583 385 287 239 219 215 239 296 381 486
790.0 612 780 999 1234 1438 1564 1538 1364 1129 905
830.0 723 576 482 440 441 488 565 628 638 611
870.0 591 595 631 690 747 808 858 858 780 625
910.0 457 354 315 316 334 364 369 323 252 191
950.0 137 99 94 98 84 67 53 53 75 114
990.0 182 303 517 943 1984 3240 3595 2707 1413 896
1030.0 886 978 1143 1353 1618 1948 2354 2890 3661 4835
1070.0 6315 7334 7196 6171 5197 4541 4002 3623 3448 3437
1110.0 3550 3773 4116 4574 5118 5651 5993 5959 5519 4773
1150.0 3940 3221 2706 2381 2199 2119 2082 2032 1963 1861
1190.0 1714 1513 1295 1120 990 908 879 893 925 966
1230.0 1010 1050 1082 1116 1149 1179 1210 1247 1296 1340
1270.0 1355 1340 1337 1359 1394 1430 1460 1497 1556 1651
1310.0 1786 1952 2125 2278 2385 2424 2396 2320 2204 2066
1350.0 1920 1762 1594 1424 1271 1149 1054 979 916 881
1390.0 875 899 929 928 878 779 658 535 423 341
1430.0 288 256 230 210 199 198 214 244 292 392
1470.0 574 897 1430 2220 2999 3186 2556 1529 766 415
1510.0 243 145 89 54 26 7 0 3 7 4
1550.0 6 18 38 53 77 120 185 282 417 592
1590.0 747 785 664 442 253 157 126 115 108 110
1630.0 113 108 99 87 75 72 69 58 56 64
1670.0 80 100 118 143 156 162 191 234 291 365
1710.0 480 647 851 1004 1096 1147 1178 1268 1452 1746
1750.0 2212 2927 4006 5578 7541 9287 10000 9405 8100 6862
1790.0 5909 5149 4509 3918 3352 2815 2336 1917 1533 1191
1830.0 909 684 526 419 337 274 226 190 161 141
1870.0 130 125 128 132 140 152 161 166 161 141
1910.0 114 89 68 49 36 25 18 13 10 8
1950.0 8 8 7 4 4 7 7 3 4 7
1990.0 7 7 7 8 9 8 14 18 20 25
2030.0 28 28 27 27 25 24 22 22 24 25
2070.0 20 20 22 22 26 25 23 28 32 30
2110.0 29 31 33 38 36 38 43 46 46 45
2150.0 45 49 49 45 46 50 49 48 49 50
2190.0 54 59 59 60 59 63 65 63 64 66
2230.0 70 68 69 71 74 78 85 91 91 93
2270.0 92 97 110 120 135 156 178 201 229 255
2310.0 279 308 334 351 357 355 342 331 318 286
2350.0 279 343 419 450 444 412 351 271 195 133
2390.0 96 76 69 71 73 74 72 69 73 77
2430.0 73 72 72 74 77 75 77 80 80 77
2470.0 77 72 70 71 69 70 72 68 67 71
2510.0 74 72 67 67 69 70 72 73 73 72
2550.0 70 68 68 69 69 68 69 73 74 72
2590.0 74 75 74 72 68 63 64 63 62 62
2630.0 58 57 59 61 59 62 67 68 66 68
2670.0 69 67 62 55 51 52 60 58 55 56
2710.0 58 64 70 71 74 71 65 68 70 64
2750.0 64 65 66 69 72 74 71 71 75 81
2790.0 85 82 82 91 99 104 108 109 108 115
2830.0 122 120 122 129 142 156 164 176 180 178
2870.0 177 181 188 201 211 221 248 293 329 362
2910.0 383 387 376 357 335 307 273 246 224 206
2950.0 195 182 173 173 169 160 149 141 139 133
2990.0 122 119 117 111 119 134 140 154 175 200
3030.0 230 262 286 280 260 246 240 235 223 207
3070.0 202 220 239 259 298 319 310 279 235 180
3110.0 139 113 93 75 66 67 68 64 62 62
3150.0 56 57 64 63 56 55 58 59 57 56
3190.0 61 58 61 69 59 54 54 51 54 51
3230.0 53 59 53 51 56 59 60 59 60 61
3270.0 66 74 67 64 67 66 70 75 72 73
3310.0 78 80 84 84 80 73 73 79 80 78
3350.0 75 72 67 67 73 82 82 79 74 73
3390.0 79 86 84 73 79 87 83 98 107 104
3430.0 113 117 114 120 121 120 133 143 155 166
3470.0 185 214 239 271 304 334 373 411 447 470
3510.0 487 503 516 532 552 573 607 647 725 867
3550.0 1104 1511 2182 3200 4505 5666 6014 5326 4029 2797
3590.0 1915 1342 989 768 630 550 500 467 448 467
3630.0 505 549 588 612 612 562 483 404 334 285
3670.0 239 198 171 151 141 134 115 104 104 100
3710.0 102 99 91 99 110 109 107 99 96 90
3750.0 85 82 71 69 76 81 75 72 74 83
3790.0 90 86 81 78 77 79 83 89 84 83
3830.0 84 94 95 83 87
##END=
