##TITLE=2-Iodo-4-methyl-6-nitrophenol
##JCAMP-DX=4.24
##DATA TYPE=INFRARED SPECTRUM
##ORIGIN=EPA-IR VAPOR PHASE LIBRARY
##OWNER=SRD/NIST
Collection (C) 2018 copyright by the U.S. Secretary of Commerce
on behalf of the United States of America. All rights reserved.
##CAS REGISTRY NO=69492-91-7
##MOLFORM=C 7 H 6 I N O 3
##$NIST SOURCE=MSDC-IR
##STATE=gas
##XUNITS=1/CM
##YUNITS=ABSORBANCE
##XFACTOR=1.
##YFACTOR=0.001
##DELTAX=1.92898
##FIRSTX=549.8
##LASTX=4000.7
##FIRSTY=5.4914
##MAXX=4000.7
##MINX=549.759
##MAXY=0.127511
##MINY=0
##NPOINTS=1790
##XYDATA=(X++(Y..Y))
549.759 5.4914 6.2214 7.2914 8.9814 10.3414 10.6014 9.7314 8.3814 7.5614 6.9214
569.049 6.1714 5.3514 4.7914 4.4814 4.1614 4.0814 3.9014 3.6914 3.9214 3.9114
588.339 3.7714 3.7914 3.8014 3.8014 3.9114 4.1114 4.4014 4.8514 5.2314 5.7114
607.628 6.0814 6.3114 6.3514 6.3114 6.3014 6.0514 5.6214 5.4014 5.2814 5.3914
626.918 5.6814 5.7614 6.0014 6.1814 6.4114 6.8714 7.1514 7.5014 8.0314 8.5614
646.208 8.8014 9.0614 9.5514 10.0914 10.3814 10.6914 11.1214 11.4614 11.9514 12.4914
665.498 13.0014 13.6014 14.3114 15.0914 15.8214 16.2814 16.6614 16.8914 16.8714 16.7614
684.787 16.6114 16.4314 16.0514 15.4114 14.9014 14.4914 13.8814 13.3414 12.9514 12.5914
704.077 12.1314 11.7814 11.6514 11.6814 12.4814 14.3814 17.3414 21.3114 26.0214 30.8414
723.367 34.5614 36.4214 36.2414 33.9914 29.7314 24.0214 18.2214 13.5414 10.3914 8.4714
742.657 7.2414 6.5214 6.2214 6.4314 7.4514 8.8314 10.4314 12.6414 14.7914 16.7614
761.947 19.6314 22.3514 21.2314 17.9214 16.3714 15.7914 15.3014 15.2314 15.7114 16.2814
781.236 16.4714 16.2814 15.9514 15.0914 13.4614 11.4414 9.1114 7.1514 5.8914 4.9714
800.526 4.1814 3.3314 2.6414 2.2514 1.9414 1.7714 1.9014 1.9514 1.8914 1.8114
819.816 1.7814 1.7714 1.6914 1.7914 2.0514 2.3714 2.8414 3.2114 3.6314 4.2314
839.106 5.0014 5.6514 5.8814 5.7614 5.5414 5.2914 4.8814 4.8814 5.2614 5.8614
858.395 6.9414 8.4214 9.8614 11.3814 12.9614 14.0114 13.6314 11.9814 10.2014 8.3314
877.685 6.5914 5.3514 4.1514 3.2814 2.7714 2.3014 2.0614 2.1314 2.2614 2.2714
896.975 2.3214 2.3414 2.6214 3.0114 2.9714 3.1714 3.6614 3.9214 4.2214 4.6314
916.265 5.1414 5.8614 6.8014 7.9814 9.5514 11.5214 13.9414 16.2914 17.6814 18.3014
935.555 18.0814 17.0214 15.1614 12.5814 9.7114 7.4314 5.8714 4.4714 3.4114 2.6114
954.844 2.2014 2.0814 1.9414 1.7414 1.6414 1.5214 1.4514 1.5614 1.8014 1.9814
974.134 1.9214 1.9814 2.1814 2.3614 2.2514 2.3214 2.5914 2.5914 2.6514 2.8414
993.424 3.0814 3.2414 3.2414 3.3014 3.5414 3.7414 3.9114 3.9814 3.7214 3.3314
1012.714 3.0914 2.9914 2.8314 2.7014 2.7514 2.7114 2.3214 2.2714 2.5514 2.2814
1032.003 2.2614 2.8014 3.0014 2.5714 2.8614 3.9514 4.4014 4.5914 4.8714 5.0514
1051.293 5.3414 5.4614 5.5214 5.6914 5.7514 6.1014 6.6614 6.8314 7.1614 8.1914
1070.583 9.7914 12.0414 14.8014 18.2114 22.6114 26.9814 30.7114 32.4214 32.0814 30.9714
1089.873 27.8814 23.4914 18.8214 14.5914 11.6714 9.5714 8.3014 7.9914 7.5314 7.5114
1109.163 7.8314 8.0714 8.6114 8.6914 8.8514 8.9014 8.7514 9.0714 9.1614 8.9014
1128.452 8.9014 8.8714 9.2314 10.1014 10.9114 11.9014 13.4014 15.4014 17.3714 19.2114
1147.742 21.4614 23.2214 24.5714 26.0814 27.1814 28.2514 28.9114 29.9014 30.9314 31.4214
1167.032 31.5814 31.1614 30.1714 28.6414 26.3914 23.3814 20.4714 17.7314 15.4614 14.1014
1186.322 13.1014 12.5014 12.1014 11.7314 11.6014 11.7814 11.6614 12.0114 13.3214 14.5114
1205.611 15.9814 18.3614 20.9014 22.9114 25.1614 27.9214 30.5514 32.0714 32.1714 31.0614
1224.901 29.4714 28.0214 26.6114 25.9114 26.9114 30.1214 35.7314 43.4814 52.3414 61.0214
1244.191 68.8214 75.4014 80.0314 81.9814 81.7214 79.6314 75.9414 71.6814 67.1014 62.4814
1263.481 58.1314 53.8714 49.9314 46.0414 42.5314 39.3714 36.0514 32.8414 29.9614 27.6714
1282.771 25.6814 24.0414 23.3814 23.5514 24.5814 26.6014 29.4214 33.0114 37.1914 41.7814
1302.060 46.5014 51.1414 55.7114 60.1214 64.2314 67.9814 71.5714 75.0314 78.1514 80.6314
1321.350 82.2414 82.7914 82.3114 80.9814 78.9114 76.6514 74.7514 73.3914 72.5514 72.0614
1340.640 71.8014 71.4614 70.6114 69.0414 66.7014 63.5614 59.7114 55.3914 50.8414 46.2514
1359.930 41.7714 37.5214 33.5614 30.1314 27.2314 24.8414 22.9814 21.6114 20.7414 20.2114
1379.219 20.0814 20.4014 21.0614 22.1714 23.8114 25.8014 28.2514 31.2514 34.6214 38.3514
1398.509 42.4814 46.8414 51.0514 54.9114 58.1714 60.4914 61.7114 61.7814 60.7014 58.5714
1417.799 55.5214 51.7914 47.9214 44.0214 40.0614 36.3914 33.0514 30.2114 27.9414 26.1914
1437.089 25.0014 24.4614 24.6014 25.3314 26.6814 28.7514 31.5914 35.1514 39.6314 44.8014
1456.378 50.4614 56.1514 61.0114 64.6514 66.8214 67.5114 66.1814 62.5214 56.7614 49.8314
1475.668 42.9714 36.2414 29.8414 24.2814 20.0514 17.2014 15.4514 14.4514 13.9514 13.6014
1494.958 13.3514 13.2014 13.0814 13.0714 13.0714 13.1514 13.4814 13.8814 14.3814 15.1614
1514.248 16.1714 17.3314 18.6614 20.2314 22.1114 24.1414 26.6914 29.9514 34.1614 39.6814
1533.538 46.8514 56.1214 66.9514 79.6314 93.3314 106.441 117.441 124.791 127.511 125.291
1552.827 118.421 107.441 94.2814 80.1914 66.6414 55.1514 45.5914 38.0314 32.0214 27.1714
1572.117 23.4314 20.5714 18.2114 16.3214 14.9214 13.8514 13.0514 12.5614 12.4014 12.4714
1591.407 12.6514 13.0514 13.6514 14.2314 14.8514 15.4314 15.9614 16.5214 17.1714 17.9214
1610.697 18.7814 19.6814 20.4114 20.8414 20.8314 20.3414 19.4414 18.0014 16.1414 14.1514
1629.986 12.0114 9.9314 8.1414 6.6714 5.5414 4.6314 4.0414 3.7814 3.5914 3.4314
1649.276 3.3414 3.3514 3.3514 3.3514 3.3914 3.3814 3.3714 3.3814 3.3614 3.3814
1668.566 3.3814 3.3414 3.2914 3.1314 2.9814 2.8314 2.6314 2.4314 2.2414 2.0914
1687.856 1.9214 1.7714 1.6414 1.5414 1.4314 1.3214 1.3014 1.3014 1.3414 1.3214
1707.146 1.2414 1.2514 1.3314 1.3414 1.3214 1.4414 1.5414 1.5314 1.5314 1.5714
1726.435 1.5814 1.5514 1.6314 1.6414 1.5414 1.4714 1.4814 1.4714 1.4014 1.3714
1745.725 1.3914 1.3814 1.4114 1.4914 1.5614 1.7414 1.9414 2.2214 2.5314 2.8614
1765.015 3.2714 3.7114 4.0814 4.3714 4.5714 4.5414 4.3914 4.1514 3.7614 3.2014
1784.305 2.6714 2.2414 1.8514 1.5814 1.4214 1.3414 1.3114 1.3014 1.3314 1.2914
1803.594 1.2814 1.4014 1.4914 1.5514 1.6114 1.5914 1.6014 1.6114 1.5414 1.4114
1822.884 1.2914 1.1614 1.0755 0.9763 0.8996 0.8488 0.7111 0.6117 0.5898 0.5829
1842.174 0.5721 0.566 0.5666 0.5348 0.5148 0.5207 0.5154 0.5708 0.6289 0.6584
1861.464 0.6774 0.6749 0.6783 0.6481 0.6186 0.6687 0.6421 0.5819 0.577 0.5935
1880.754 0.6291 0.6514 0.6483 0.5525 0.4765 0.4858 0.4816 0.4997 0.541 0.4642
1900.043 0.4901 0.5982 0.5988 0.5789 0.5051 0.5081 0.5406 0.5223 0.5391 0.5713
1919.333 0.5793 0.5874 0.591 0.5286 0.5327 0.602 0.5497 0.4939 0.561 0.6039
1938.623 0.5531 0.5656 0.6875 0.6854 0.5607 0.5491 0.6573 0.6469 0.5924 0.5681
1957.913 0.5526 0.5548 0.5492 0.5683 0.5826 0.5783 0.5476 0.5107 0.5157 0.5463
1977.202 0.5197 0.5462 0.5477 0.4871 0.4875 0.4981 0.4827 0.4803 0.4845 0.5118
1996.492 0.5481 0.5322 0.524 0.522 0.5167 0.5645 0.558 0.5544 0.5941 0.5988
2015.782 0.6423 0.6747 0.6668 0.6846 0.6705 0.6476 0.6386 0.6193 0.6488 0.6253
2035.072 0.5881 0.5752 0.5746 0.5236 0.5004 0.5493 0.5147 0.5076 0.5312 0.4946
2054.362 0.4343 0.3908 0.3788 0.471 0.5334 0.504 0.4634 0.404 0.4068 0.4107
2073.651 0.5055 0.5965 0.5888 0.5839 0.5503 0.5654 0.555 0.4962 0.4566 0.4701
2092.941 0.5566 0.551 0.4581 0.4785 0.5055 0.4897 0.4715 0.439 0.4275 0.4179
2112.231 0.3823 0.3691 0.3685 0.3212 0.2773 0.341 0.4097 0.377 0.3392 0.3606
2131.521 0.339 0.3039 0.3574 0.3468 0.2917 0.2899 0.3075 0.3738 0.3577 0.3481
2150.810 0.4085 0.4661 0.4455 0.3528 0.3636 0.4364 0.5128 0.5299 0.4965 0.4735
2170.100 0.5295 0.5286 0.4777 0.5791 0.6291 0.5412 0.4999 0.4955 0.4951 0.4962
2189.390 0.4818 0.4724 0.4586 0.4995 0.5601 0.5293 0.4453 0.4436 0.5055 0.5426
2208.680 0.5505 0.5065 0.4789 0.4704 0.4868 0.5137 0.4887 0.5359 0.5726 0.5434
2227.970 0.5759 0.637 0.6251 0.6536 0.747 0.7632 0.7039 0.6598 0.6953 0.7772
2247.259 0.8093 0.807 0.8577 0.9077 0.8594 0.83 0.8185 0.7225 0.6783 0.6805
2266.549 0.6148 0.5908 0.6427 0.6655 0.6479 0.5956 0.5878 0.6251 0.6372 0.6553
2285.839 0.6828 0.6964 0.6202 0.5867 0.7248 0.8005 0.732 0.7417 0.7521 0.7287
2305.129 0.7527 0.7702 0.7535 0.6661 0.6927 0.7182 0.6856 0.6467 0.6179 0.6712
2324.418 0.7474 0.802 0.7654 0.7348 0.7681 0.879 0.8747 0.8438 0.886 0.8278
2343.708 0.7825 0.7323 0.7222 0.7754 0.7901 0.746 0.7783 0.781 0.7176 0.7417
2362.998 0.7703 0.7989 0.8527 0.8169 0.7474 0.7296 0.7877 0.8335 0.8277 0.8942
2382.288 0.9355 0.9652 1.0181 1.055 1.1614 1.2514 1.2114 1.1114 1.1014 1.0914
2401.578 1.0888 1.1114 1.1914 1.2114 1.1714 1.1414 1.1314 1.0914 1.0112 1.0147
2420.867 1.0431 1.0131 1.0305 1.0321 0.97 0.9808 1.0352 1.0255 0.9873 0.9713
2440.157 0.9436 0.9484 0.9075 0.8808 0.899 0.8624 0.8274 0.8391 0.8956 0.9264
2459.447 0.9244 0.9267 1.0248 1.0258 0.945 1.0288 1.0865 1.0423 1.0454 1.1214
2478.737 1.1414 1.1214 1.1214 1.0765 1.0914 1.1514 1.1214 1.0725 1.0567 1.044
2498.026 1.0317 1.0375 1.0852 1.0669 1.085 1.1514 1.1414 1.1214 1.1414 1.1614
2517.316 1.1514 1.2314 1.2414 1.1914 1.1914 1.2514 1.3814 1.4314 1.4414 1.4914
2536.606 1.6114 1.6614 1.6914 1.7914 1.8414 1.8714 1.8914 1.7914 1.6914 1.7014
2555.896 1.7214 1.7214 1.6514 1.5614 1.5114 1.5014 1.4214 1.3514 1.4114 1.3714
2575.186 1.4114 1.3914 1.2814 1.3114 1.4014 1.4814 1.4214 1.4014 1.3614 1.3714
2594.475 1.4614 1.5614 1.6614 1.5914 1.5714 1.5914 1.6114 1.7114 1.6514 1.6314
2613.765 1.6514 1.6514 1.6414 1.6714 1.6814 1.6114 1.6014 1.5414 1.5314 1.5714
2633.055 1.5914 1.6414 1.6914 1.6314 1.5414 1.4014 1.3614 1.4714 1.4214 1.4214
2652.345 1.4114 1.4114 1.3514 1.3214 1.3614 1.2914 1.2114 1.1314 1.2114 1.2414
2671.634 1.2114 1.1914 1.1514 1.1214 1.1314 1.2214 1.1514 1.2014 1.3114 1.2714
2690.924 1.2814 1.2714 1.3614 1.4414 1.4514 1.5214 1.5114 1.4714 1.4614 1.5514
2710.214 1.6014 1.6214 1.7514 1.7014 1.6014 1.6714 1.6814 1.6714 1.7014 1.5714
2729.504 1.4614 1.5214 1.5214 1.5214 1.5814 1.6214 1.7014 1.7614 1.7814 1.9214
2748.794 2.0814 2.1714 2.2314 2.2214 2.3014 2.3214 2.2114 2.1814 2.1314 2.0714
2768.083 2.0914 2.1214 2.1214 2.0414 2.1014 2.1914 2.1614 2.1714 2.2914 2.3214
2787.373 2.2814 2.2614 2.2414 2.3614 2.3514 2.3514 2.4214 2.4114 2.4814 2.6114
2806.663 2.6114 2.6314 2.6214 2.6014 2.6614 2.6314 2.5714 2.5814 2.6614 2.6514
2825.953 2.6114 2.5914 2.7514 2.8614 2.7814 2.8514 2.9114 3.0114 3.1814 3.2414
2845.242 3.3714 3.6014 3.8614 4.0714 4.2714 4.4914 4.7114 4.9714 5.2314 5.5114
2864.532 5.8314 6.1014 6.3914 6.7514 7.0614 7.2514 7.3314 7.4014 7.4814 7.4314
2883.822 7.2314 6.9814 6.8914 6.8514 6.6614 6.5214 6.5414 6.6614 6.7014 6.6714
2903.112 6.7114 6.7414 6.9114 7.1114 7.2314 7.4414 7.6114 7.8114 8.1714 8.6314
2922.401 9.1514 9.7814 10.6514 11.5514 12.3114 13.0914 13.8214 14.2814 14.3114 14.1114
2941.691 13.6514 12.8814 11.9714 10.8414 9.6014 8.4114 7.5414 7.0214 6.5214 6.1214
2960.981 5.9314 5.7614 5.5814 5.5014 5.3714 5.2214 5.1314 5.0114 4.8414 4.6914
2980.271 4.6414 4.5114 4.3514 4.4114 4.5114 4.5014 4.4614 4.4414 4.4714 4.4114
2999.561 4.3514 4.3714 4.5414 4.6514 4.6514 4.7214 5.0014 5.2114 5.1614 5.2314
3018.850 5.3314 5.3414 5.4214 5.4314 5.2314 5.1214 4.9814 4.7314 4.6514 4.6214
3038.140 4.5814 4.5314 4.6014 4.6814 4.6614 4.7414 4.7014 4.6414 4.6414 4.4814
3057.430 4.4714 4.3114 4.0914 4.0414 3.9214 3.9214 3.9914 4.0614 4.1914 4.2014
3076.720 4.3314 4.4014 4.3614 4.3914 4.3314 4.2514 4.0714 3.8614 3.7214 3.5014
3096.009 3.2514 3.2014 3.2114 3.2014 3.1514 3.1414 3.1714 3.3114 3.4714 3.4214
3115.299 3.4714 3.5914 3.7114 3.8714 3.9314 3.9414 4.0714 4.1614 4.2714 4.4014
3134.589 4.4114 4.6014 4.8714 5.0014 5.0614 5.1614 5.4814 5.7514 5.8514 5.9914
3153.879 6.1214 6.3414 6.7814 7.0614 7.2614 7.5914 7.8714 8.1914 8.4814 8.9514
3173.169 9.4614 9.9314 10.2414 10.5014 11.0214 11.5014 11.9514 12.4314 12.9314 13.4414
3192.458 13.9814 14.4814 14.8214 15.3814 15.9214 16.1514 16.5214 16.9214 17.2414 17.3114
3211.748 17.4614 17.7814 17.9614 18.0814 18.1514 18.1814 18.3414 18.5814 18.6914 18.8314
3231.038 18.8014 18.7414 18.7014 18.6614 18.7914 18.6614 18.4914 18.3814 18.1614 18.0614
3250.328 17.9014 17.7014 17.5214 17.3414 17.2514 17.1814 17.0014 16.8114 16.5914 16.1614
3269.617 15.9314 15.9114 15.7714 15.5914 15.3714 15.1414 14.9514 14.8014 14.7214 14.5814
3288.907 14.4514 14.2814 14.0414 13.9514 13.8514 13.8114 13.8114 13.5214 13.3814 13.6214
3308.197 13.6114 13.4114 13.3214 13.2314 13.0214 12.8714 12.7514 12.6514 12.5514 12.4114
3327.487 12.3314 12.1514 11.9414 11.8014 11.5914 11.5214 11.4314 11.1214 10.8714 10.7614
3346.777 10.5914 10.4514 10.4414 10.3314 10.1814 10.0314 9.8714 9.7014 9.5914 9.3714
3366.066 9.2514 9.1814 8.8714 8.7114 8.6014 8.5314 8.4214 8.1714 8.0414 7.9014
3385.356 7.6414 7.5114 7.5414 7.4214 7.2914 7.2514 7.2214 7.1214 7.0014 6.8614
3404.646 6.7114 6.7114 6.6914 6.6214 6.5514 6.3914 6.4014 6.2514 6.1114 6.1814
3423.936 5.9614 5.7614 5.7414 5.7114 5.5914 5.5614 5.4514 5.3514 5.4314 5.4714
3443.225 5.1714 5.0414 5.0614 5.0214 5.0014 4.9514 4.9814 4.9614 4.8714 4.7714
3462.515 4.7214 4.6514 4.4814 4.3814 4.5214 4.5514 4.5114 4.4114 4.3114 4.3414
3481.805 4.1814 4.0514 4.1114 4.0814 3.9814 4.0114 4.1114 3.9214 3.8614 3.8814
3501.095 3.7414 3.6914 3.8514 4.0214 4.1614 4.2814 4.2414 4.2714 4.3114 4.2614
3520.385 4.3314 4.2114 3.9014 3.7314 3.6014 3.4514 3.2514 3.2814 3.1614 3.0214
3539.674 3.0514 2.9214 2.8814 2.8014 2.8214 2.7714 2.6814 2.6314 2.4314 2.4514
3558.964 2.3814 2.4414 2.5214 2.3414 2.3114 2.2014 2.1514 2.2714 2.2214 2.1214
3578.254 2.1614 2.1014 1.9814 1.9514 1.7514 1.5814 1.5714 1.5314 1.4514 1.4014
3597.544 1.5814 1.6314 1.5114 1.3114 1.1014 1.2814 1.4914 1.3014 1.1914 1.2514
3616.833 1.0705 1.0251 0.9827 0.8392 0.8881 0.9541 0.9928 1.0823 1.1014 0.9524
3636.123 0.784 0.812 0.8755 0.8595 0.8862 0.7707 0.7054 0.7085 0.7454 0.7025
3655.413 0.6315 0.7177 0.6378 0.5757 0.5784 0.4374 0.5688 0.6756 0.5475 0.5947
3674.703 0.5721 0.592 0.581 0.5525 0.6534 0.5725 0.4993 0.4064 0.3011 0.388
3693.993 0.3369 0.3495 0.3326 0.3162 0.4178 0.401 0.4112 0.4526 0.4757 0.3967
3713.282 0.2694 0.16478 0.2375 0.3017 0.1961 0.14263 0.15722 0.17204 0.1843 0.098473
3732.572 0.15554 0.2242 0.1929 0.2989 0.356 0.3671 0.4074 0.4025 0.2424 0.2327
3751.862 0.2678 0.2074 0.2436 0.2901 0.3158 0.3058 0.2749 0.2801 0.3001 0.2958
3771.152 0.3253 0.3311 0.2344 0.2938 0.3208 0.205 0.1994 0.2035 0.2272 0.311
3790.441 0.2819 0.2977 0.3848 0.3426 0.3033 0.3164 0.3048 0.2012 0.10765 0.09284
3809.731 0.10885 0.16255 0.2127 0.2637 0.1993 0.2825 0.4159 0.2295 0.08274 0.0536
3829.021 0.0724 0.18078 0.13651 0.0507 0.08305 0.091237 0.0459 0.0864 0.18706 0.279
3848.311 0.251 0.16827 0.3202 0.3117 0.17287 0.18659 0.2116 0.0735 0.08197 0.229
3867.601 0.2038 0.1195 0.0655 0.2513 0.2668 0.0694 0.0454 0 0.0276 0.18258
3886.890 0.2536 0.2391 0.2409 0.201 0.18923 0.2541 0.2077 0.2563 0.2517 0.3126
3906.180 0.4281 0.2837 0.2575 0.2203 0.2867 0.3862 0.3354 0.4191 0.4071 0.3313
3925.470 0.3198 0.3473 0.4296 0.3035 0.12208 0.2461 0.2767 0.2029 0.18703 0.15465
3944.760 0.2737 0.3276 0.2839 0.2968 0.2211 0.1921 0.2561 0.323 0.3793 0.3782
3964.049 0.3858 0.3023 0.2859 0.2773 0.10635 0.08876 0.2067 0.2176 0.2741 0.3142
3983.339 0.2847 0.326 0.3015 0.3537 0.4642 0.442 0.3638 0.3954 0.428 0.3027
##END=
