##TITLE=Fluorene-4-carboxylic acid
##JCAMP-DX=4.24
##DATA TYPE=INFRARED SPECTRUM
##ORIGIN=EPA-IR VAPOR PHASE LIBRARY
##OWNER=SRD/NIST
Collection (C) 2018 copyright by the U.S. Secretary of Commerce
on behalf of the United States of America. All rights reserved.
##CAS REGISTRY NO=6954-55-8
##MOLFORM=C 14 H 10 O 2
##$NIST SOURCE=MSDC-IR
##STATE=gas
##XUNITS=1/CM
##YUNITS=ABSORBANCE
##XFACTOR=1.
##YFACTOR=0.001
##DELTAX=1.92898
##FIRSTX=549.8
##LASTX=4000.7
##FIRSTY=10.256
##MAXX=4000.7
##MINX=549.759
##MAXY=0.154686
##MINY=0
##NPOINTS=1790
##XYDATA=(X++(Y..Y))
549.759 10.256 11.176 12.156 12.696 12.376 12.206 13.256 15.016 16.336 17.376
569.049 18.856 19.946 20.456 21.316 22.766 23.366 23.796 24.286 24.556 24.346
588.339 23.736 22.466 20.976 19.806 18.436 16.526 14.516 13.286 12.076 10.806
607.628 10.176 9.996 9.896 10.456 11.956 13.876 17.366 22.596 26.876 29.826
626.918 32.526 34.246 34.236 30.836 24.926 19.456 15.316 12.746 10.586 8.526
646.208 7.106 5.986 5.106 4.346 4.156 3.906 3.576 3.736 3.476 3.386
665.498 3.716 3.996 3.976 3.796 4.046 4.346 5.076 5.946 6.906 9.006
684.787 12.226 15.656 18.746 20.746 21.496 22.016 21.326 18.916 15.796 12.656
704.077 10.026 8.036 6.636 5.926 5.586 5.566 6.266 7.636 9.756 13.116
723.367 17.156 21.716 27.116 33.756 42.376 48.296 49.126 49.886 51.846 53.816
742.657 55.926 58.106 60.446 62.626 61.096 55.186 49.226 43.696 37.486 31.666
761.947 26.446 22.036 18.806 16.506 14.676 12.986 11.866 11.056 9.916 9.176
781.236 8.446 7.876 7.486 7.006 6.486 6.116 5.946 5.806 5.516 5.126
800.526 5.236 5.016 4.526 4.186 3.866 3.566 3.466 3.336 2.846 2.496
819.816 2.596 2.456 2.416 2.746 2.866 2.956 2.926 2.506 2.466 2.426
839.106 2.076 1.886 1.706 1.696 1.886 1.876 1.766 1.746 1.586 1.736
858.395 2.216 2.446 2.216 2.126 2.406 2.636 2.796 2.796 2.746 2.616
877.685 2.336 2.146 1.966 1.876 1.956 2.146 2.326 2.426 2.416 2.456
896.975 2.636 2.746 2.706 2.876 3.096 3.216 3.586 4.006 4.596 5.566
916.265 6.516 7.326 7.666 7.746 7.806 7.286 6.386 5.486 4.696 4.036
935.555 3.676 3.576 3.306 3.256 3.486 3.786 3.566 3.476 4.286 4.656
954.844 4.426 4.036 3.666 3.586 3.656 3.706 3.906 4.056 3.856 3.666
974.134 3.366 2.986 3.076 2.936 2.576 2.626 2.766 3.036 3.496 4.156
993.424 5.526 7.316 8.326 8.806 9.296 9.156 8.686 8.056 6.666 5.326
1012.714 4.806 4.446 4.176 4.426 4.836 5.066 5.286 6.046 6.546 6.736
1032.003 6.946 6.756 7.056 6.866 6.456 6.406 6.076 6.166 6.256 6.196
1051.293 6.656 7.626 8.216 9.086 10.706 12.946 15.386 18.216 22.646 26.826
1070.583 30.526 35.156 38.646 39.916 39.916 38.706 36.966 34.456 31.756 30.656
1089.873 31.416 33.456 37.356 43.476 49.846 56.776 63.716 71.026 80.376 89.846
1109.163 99.076 106.236 110.496 112.556 110.816 105.486 95.846 82.726 69.446 57.276
1128.452 46.786 38.106 31.306 27.196 25.006 22.896 21.376 20.716 19.486 18.056
1147.742 17.996 19.426 20.426 21.126 22.836 24.936 27.046 29.216 30.636 30.926
1167.032 30.736 30.556 29.616 28.406 25.816 22.366 20.296 19.016 18.466 19.126
1186.322 20.876 23.706 27.876 31.836 34.976 37.976 40.226 40.566 39.116 36.506
1205.611 32.976 28.486 24.406 21.566 19.056 16.816 16.016 15.326 13.646 13.086
1224.901 12.976 12.336 11.436 10.516 10.226 10.136 9.196 8.146 8.196 8.306
1244.191 8.516 8.666 8.396 8.226 8.376 8.826 9.216 9.616 10.106 10.426
1263.481 10.766 11.496 12.096 12.846 13.826 14.796 16.236 17.736 19.306 21.276
1282.771 23.436 24.956 25.846 26.246 25.666 24.556 23.196 21.586 19.786 18.376
1302.060 17.976 18.136 18.516 19.026 19.396 19.826 20.206 20.556 21.106 21.736
1321.350 22.246 22.696 23.156 23.506 23.536 23.306 22.906 22.266 21.336 20.306
1340.640 19.416 18.726 18.146 17.656 17.416 17.246 16.916 16.516 16.026 15.366
1359.930 14.516 13.506 12.486 11.646 10.916 10.186 9.656 9.146 8.576 8.056
1379.219 7.616 7.186 6.786 6.556 6.436 6.506 6.776 7.156 7.546 8.076
1398.509 8.716 9.346 10.216 11.346 12.536 13.776 14.846 15.946 17.166 18.806
1417.799 20.946 23.046 24.386 24.866 24.826 23.866 21.886 19.246 16.126 13.146
1437.089 10.876 9.676 9.386 9.636 10.106 11.046 12.386 13.866 15.446 16.626
1456.378 17.116 17.026 16.396 15.016 13.026 10.726 8.596 6.926 5.696 4.986
1475.668 4.526 4.216 3.856 3.516 3.316 3.056 2.816 2.556 2.376 2.326
1494.958 2.316 2.326 2.386 2.496 2.586 2.476 2.346 2.456 2.396 2.226
1514.248 2.256 2.236 2.156 2.096 2.046 1.966 1.966 1.916 1.956 1.906
1533.538 1.826 1.946 1.836 1.666 1.656 1.736 1.916 2.066 2.086 2.116
1552.827 2.256 2.386 2.476 2.626 3.086 3.516 3.916 4.486 5.056 5.656
1572.117 6.296 6.896 7.616 8.336 8.776 9.106 9.286 9.136 8.866 8.476
1591.407 7.786 6.866 6.096 5.526 5.076 4.596 4.176 3.896 3.526 3.226
1610.697 3.066 2.956 2.696 2.476 2.356 2.266 2.156 2.166 2.206 2.186
1629.986 2.216 2.126 1.966 1.906 1.996 2.176 2.336 2.366 2.506 2.556
1649.276 2.486 2.476 2.426 2.546 2.706 2.886 3.056 3.196 3.276 3.266
1668.566 3.396 3.376 3.306 3.346 3.406 3.526 3.686 3.736 3.856 3.986
1687.856 4.076 4.356 4.656 4.886 5.086 5.436 5.826 6.376 7.016 7.696
1707.146 8.436 9.316 10.356 11.356 12.226 13.346 14.716 16.016 17.366 18.716
1726.435 20.326 22.016 23.756 25.656 27.796 30.016 32.346 35.466 39.876 46.246
1745.725 55.426 68.436 85.626 106.536 127.766 144.306 153.206 154.686 150.316 138.986
1765.015 118.876 93.616 70.316 53.456 42.496 36.136 32.746 31.096 30.416 30.096
1784.305 29.916 29.526 28.576 27.046 24.926 22.466 20.046 17.646 15.396 13.486
1803.594 11.806 10.426 9.226 8.086 7.166 6.506 5.896 5.336 5.036 4.686
1822.884 4.376 4.236 4.106 4.026 3.986 3.936 3.786 3.436 3.236 3.196
1842.174 3.056 2.806 2.546 2.516 2.596 2.546 2.516 2.506 2.576 2.576
1861.464 2.686 2.766 2.666 2.566 2.466 2.476 2.476 2.416 2.396 2.346
1880.754 2.286 2.216 2.246 2.266 2.226 2.206 2.226 2.306 2.356 2.416
1900.043 2.496 2.526 2.526 2.476 2.406 2.376 2.296 2.266 2.366 2.376
1919.333 2.456 2.746 2.986 3.046 3.166 3.406 3.596 3.636 3.556 3.436
1938.623 3.316 3.136 2.956 2.806 2.586 2.306 2.146 1.996 1.776 1.606
1957.913 1.396 1.226 1.1534 1.0341 0.9724 0.9756 0.8729 0.9236 0.8738 0.8224
1977.202 0.8111 0.8069 0.8207 0.807 0.8767 0.8145 0.8646 0.8845 0.8151 0.8466
1996.492 0.8386 0.7899 0.7329 0.8171 0.9341 0.9068 0.8565 0.8423 0.8546 0.7914
2015.782 0.7567 0.762 0.817 0.8546 0.804 0.9186 0.9864 1.0259 1.0963 1.0118
2035.072 0.9823 0.9787 0.9866 0.965 0.8926 0.887 0.8776 0.7888 0.7226 0.7346
2054.362 0.7773 0.722 0.5504 0.5655 0.6218 0.6088 0.612 0.5937 0.6138 0.6357
2073.651 0.67 0.6895 0.7626 0.7664 0.7212 0.6893 0.7267 0.7676 0.6648 0.5962
2092.941 0.6851 0.759 0.6672 0.6562 0.6461 0.6651 0.7193 0.6756 0.6407 0.6299
2112.231 0.6981 0.7225 0.6722 0.6597 0.5937 0.5431 0.5558 0.5488 0.5152 0.5212
2131.521 0.6374 0.6859 0.6184 0.5318 0.4833 0.4882 0.4866 0.4753 0.4894 0.4858
2150.810 0.5107 0.5898 0.5705 0.5529 0.5698 0.6006 0.5445 0.4322 0.4675 0.5288
2170.100 0.5977 0.6735 0.6133 0.5909 0.6204 0.6666 0.6833 0.7315 0.7509 0.6741
2189.390 0.6755 0.6038 0.5202 0.6257 0.6645 0.5544 0.6469 0.8091 0.8309 0.7261
2208.680 0.695 0.7821 0.7419 0.718 0.6825 0.6355 0.7318 0.7712 0.8266 0.8502
2227.970 0.7472 0.787 0.7768 0.6699 0.6732 0.5934 0.6116 0.7034 0.7232 0.7024
2247.259 0.6389 0.7809 0.9112 0.8938 0.8242 0.7727 0.7465 0.703 0.7176 0.7994
2266.549 0.8267 0.8903 0.8736 0.777 0.7265 0.6949 0.7714 0.8192 0.8224 0.8461
2285.839 0.8427 0.7688 0.7893 0.862 0.7916 0.6907 0.7014 0.6867 0.581 0.6441
2305.129 0.7936 0.6971 0.6726 0.7207 0.6248 0.5608 0.5731 0.5845 0.6896 0.7557
2324.418 0.7214 0.7032 0.7767 0.8267 0.7924 0.8366 0.8792 0.885 0.7708 0.6715
2343.708 0.661 0.6627 0.7193 0.728 0.742 0.7806 0.8426 0.9291 0.8632 0.8013
2362.998 0.7761 0.6011 0.5567 0.6976 0.8495 0.7782 0.6723 0.7171 0.7481 0.8634
2382.288 0.7656 0.6627 0.7794 0.8254 0.852 0.8216 0.7075 0.7351 0.8131 0.8518
2401.578 0.9267 0.8579 0.7461 0.7213 0.6491 0.6953 0.8213 0.7301 0.6271 0.659
2420.867 0.6287 0.569 0.5871 0.5846 0.6258 0.6704 0.5747 0.6115 0.6572 0.6172
2440.157 0.6454 0.6392 0.5885 0.6326 0.702 0.6965 0.6899 0.6701 0.6387 0.6451
2459.447 0.7152 0.6442 0.5016 0.5833 0.6641 0.6032 0.5889 0.5036 0.5226 0.6124
2478.737 0.5576 0.523 0.6002 0.6526 0.6361 0.6215 0.4551 0.4569 0.5389 0.6086
2498.026 0.6849 0.7333 0.8463 0.6983 0.6337 0.6673 0.6639 0.6418 0.5974 0.7105
2517.316 0.6833 0.6858 0.6234 0.5152 0.6157 0.581 0.6584 0.7023 0.5365 0.5515
2536.606 0.6294 0.5348 0.5128 0.5577 0.4946 0.5 0.4986 0.5065 0.5589 0.5088
2555.896 0.5165 0.5918 0.4627 0.3624 0.357 0.4485 0.479 0.4621 0.557 0.4582
2575.186 0.4167 0.5049 0.5502 0.5374 0.6001 0.6781 0.7969 0.8249 0.6454 0.5515
2594.475 0.5477 0.5196 0.5343 0.6201 0.5873 0.4893 0.4501 0.4153 0.4024 0.4873
2613.765 0.6148 0.6184 0.5595 0.4383 0.397 0.5467 0.672 0.6093 0.6032 0.6411
2633.055 0.498 0.5343 0.5549 0.5831 0.5782 0.5654 0.6562 0.5835 0.5309 0.529
2652.345 0.4852 0.558 0.6386 0.6435 0.5515 0.4723 0.467 0.5337 0.5144 0.4656
2671.634 0.5074 0.5031 0.5828 0.6242 0.6315 0.7104 0.6784 0.5026 0.5791 0.6178
2690.924 0.5619 0.5312 0.4266 0.4515 0.5898 0.5964 0.449 0.4237 0.443 0.4232
2710.214 0.3982 0.27663 0.28648 0.4115 0.337 0.2981 0.29948 0.3237 0.3771 0.4122
2729.504 0.4563 0.4533 0.5433 0.536 0.3985 0.3507 0.4339 0.4057 0.29236 0.29748
2748.794 0.4908 0.6305 0.6014 0.5174 0.533 0.6514 0.6312 0.6382 0.6377 0.6196
2768.083 0.6269 0.8741 1.0252 1.0224 1.0228 0.9386 0.9602 1.1045 1.1791 1.0798
2787.373 1.1018 1.216 1.396 1.496 1.606 1.846 1.916 1.886 1.916 1.956
2806.663 1.936 2.096 2.046 1.736 1.596 1.676 1.586 1.306 1.1914 1.0666
2825.953 1.0241 0.9525 0.9256 0.9385 0.8615 0.745 0.7806 0.8329 0.7538 0.7685
2845.242 0.8562 0.8157 0.6786 0.7472 0.8214 0.7175 0.5999 0.7697 0.9534 0.9811
2864.532 0.9242 0.8897 1.0259 0.9875 1.0391 1.0187 1.0116 1.216 1.1973 1.1682
2883.822 1.336 1.566 1.626 1.646 2.086 2.626 3.106 4.056 5.176 6.356
2903.112 7.756 9.036 9.936 10.536 10.916 11.146 11.036 10.336 9.356 8.896
2922.401 9.346 8.896 6.996 5.396 4.566 3.736 2.756 2.216 1.816 1.466
2941.691 1.276 1.206 1.0492 0.8533 0.8477 0.8797 1.1026 1.0829 0.8542 0.8612
2960.981 0.985 1.0749 1.0091 1.0026 0.9829 0.9412 0.9589 1.0315 1.236 1.326
2980.271 1.426 1.576 1.606 1.816 1.946 2.096 2.336 2.286 2.356 2.586
2999.561 2.806 3.176 3.426 3.626 3.816 3.796 3.796 4.116 4.666 5.226
3018.850 5.826 6.516 7.356 8.216 8.876 9.176 9.306 9.586 9.746 9.906
3038.140 10.076 10.136 10.786 11.856 13.196 14.906 16.506 17.946 19.226 20.226
3057.430 21.046 21.656 21.926 22.316 22.836 23.316 23.936 24.626 25.226 25.426
3076.720 24.946 23.726 21.746 19.386 16.866 14.226 11.466 8.996 7.216 5.686
3096.009 4.596 3.946 3.616 3.106 2.696 2.596 2.546 2.496 2.406 2.586
3115.299 2.516 2.496 2.436 2.386 2.526 2.566 2.456 2.276 2.246 2.036
3134.589 1.946 1.776 1.686 1.716 1.696 1.806 1.866 1.916 1.936 2.136
3153.879 2.306 2.416 2.416 2.306 2.406 2.406 2.226 2.106 1.856 1.576
3173.169 1.416 1.1247 1.045 1.2037 1.1684 0.9894 0.9353 0.9798 1.0071 1.116
3192.458 1.1008 0.9428 0.9399 0.6899 0.5037 0.715 0.8045 0.8111 0.7827 0.8518
3211.748 0.8044 0.5382 0.5564 0.7151 0.5948 0.63 0.6409 0.5006 0.7604 0.7572
3231.038 0.4105 0.3291 0.25691 0.3681 0.6089 0.6296 0.5187 0.4475 0.449 0.3523
3250.328 0.23985 0.3299 0.365 0.3746 0.5205 0.5603 0.4367 0.446 0.5655 0.3764
3269.617 0.011 0.153 0.4939 0.5782 0.606 0.395 0.3213 0.4407 0.6188 0.672
3288.907 0.5458 0.4288 0.395 0.3932 0.3516 0.379 0.5075 0.4766 0.4651 0.509
3308.197 0.3552 0.3903 0.4079 0.324 0.3592 0.4904 0.5979 0.5645 0.3656 0.4168
3327.487 0.5122 0.5273 0.6196 0.7231 0.7943 0.6368 0.3895 0.404 0.5259 0.5783
3346.777 0.6898 0.5292 0.3753 0.4633 0.30118 0.26786 0.4678 0.5203 0.3724 0.23856
3366.066 0.3561 0.4369 0.5602 0.6966 0.5363 0.24648 0.28579 0.3965 0.29376 0.29332
3385.356 0.4518 0.4499 0.3558 0.3883 0.4458 0.5239 0.4802 0.311 0.4478 0.4591
3404.646 0.3751 0.30387 0.3597 0.4747 0.5005 0.3877 0.26261 0.4412 0.3174 0.3112
3423.936 0.3367 0.23108 0.3357 0.227 0.1908 0.354 0.3297 0.4579 0.7446 0.7372
3443.225 0.6165 0.4761 0.3513 0.6122 0.5811 0.4969 0.5812 0.4582 0.5362 0.4614
3462.515 0.1808 0.27181 0.53 0.5716 0.6103 0.8786 0.934 0.8523 0.8195 0.7781
3481.805 0.8022 0.792 1.0556 1.236 1.316 1.506 1.486 1.586 1.766 1.756
3501.095 1.676 1.626 1.816 2.086 1.746 1.416 1.396 1.276 1.336 1.496
3520.385 1.416 1.276 1.326 1.476 1.566 1.586 1.686 1.536 1.456 1.546
3539.674 1.726 2.096 2.286 2.686 3.436 4.196 5.446 7.236 10.036 13.886
3558.964 18.246 22.776 26.796 30.546 34.196 38.096 41.936 44.776 46.136 45.086
3578.254 42.126 38.826 34.966 29.436 22.816 16.426 11.306 7.726 5.416 4.266
3597.544 3.426 2.946 2.866 2.516 2.346 2.436 2.566 2.406 2.176 2.286
3616.833 2.136 2.116 2.296 2.166 2.016 1.916 1.566 1.476 1.596 1.436
3636.123 1.1451 1.1578 1.0726 0.8169 0.847 0.7171 0.7539 0.8167 0.6642 0.5653
3655.413 0.501 0.69 0.7737 0.7979 0.7749 0.524 0.4412 0.5121 0.497 0.5044
3674.703 0.3421 0.3799 0.6653 0.6948 0.6473 0.681 0.6541 0.5502 0.5787 0.6427
3693.993 0.5962 0.6114 0.3955 0.1061 0.29182 0.5829 0.6071 0.4604 0.3481 0.2862
3713.282 0.4164 0.4587 0.4792 0.5114 0.24238 0.174 0.4192 0.5729 0.7036 0.6403
3732.572 0.4671 0.5336 0.6645 0.8739 0.8677 0.5782 0.5509 0.6542 0.5716 0.5096
3751.862 0.4798 0.4271 0.4196 0.3687 0.4826 0.4994 0.4551 0.6302 0.699 0.4492
3771.152 0.27545 0.3712 0.5086 0.5165 0.4027 0.3992 0.22367 0.1249 0.3786 0.5185
3790.441 0.4289 0.6038 0.7356 0.6926 0.6109 0.603 0.4569 0.057 0.3173 0.5621
3809.731 0.3314 0.3395 0.5728 0.5253 0.5028 0.6646 0.6911 0.5838 0.6277 0.6921
3829.021 0.625 0.7537 0.6123 0.4566 0.5292 0.4983 0.6074 0.7834 0.8137 0.5883
3848.311 0.415 0.2517 0.4663 0.6821 0.3581 0.4089 0.6427 0.6931 0.6765 0.8101
3867.601 0.6196 0.28236 0.3556 0.335 0.4071 0.6416 0.7065 0.6449 0.4942 0.405
3886.890 0.5799 0.7038 0.4855 0.3969 0.4608 0.6482 0.6463 0.6087 0.514 0.3345
3906.180 0.503 0.5866 0.6254 0.7446 0.5567 0.26391 0.3207 0.3742 0.4987 0.539
3925.470 0.502 0.6522 0.24692 0 0.3451 0.4078 0.28399 0.25256 0.3355 0.3164
3944.760 0.3766 0.4213 0.27931 0.212964 0.1497 0.105 0.215838 0.341 0.4068 0.5335
3964.049 0.4289 0.215481 0.6298 0.8235 0.3774 0.22158 0.526 0.6318 0.5924 0.4595
3983.339 0.4455 0.6291 0.6196 0.5788 0.593 0.3536 0.25138 0.4769 0.4714 0.4241
##END=
