##TITLE=Allylmorpholine
##JCAMP-DX=4.24
##DATA TYPE=INFRARED SPECTRUM
##ORIGIN=NIST Mass Spectrometry Data Center
##OWNER=NIST Standard Reference Data Program
Collection (C) 2018 copyright by the U.S. Secretary of Commerce
on behalf of the United States of America. All rights reserved.
##CAS REGISTRY NO=696-57-1
##MOLFORM=C 7 H 13 N O
##$NIST SOURCE=MSDC-IR
##SPECTROMETER/DATA SYSTEM=HP-GC/MS/IRD
##STATE=gas
##XUNITS=1/CM
##YUNITS=ABSORBANCE
##XFACTOR=1.0
##YFACTOR=0.000003300
##DELTAX=4.0
##FIRSTX=550.0
##LASTX=3846.0
##FIRSTY=0.000554
##MAXX=3846
##MINX=550
##MAXY=0.033
##MINY=0
##NPOINTS=825
##XYDATA=(X++(Y..Y))
550.0 168 239 202 244 306 347 357 419 491 576
590.0 654 664 623 534 395 306 266 222 177 171
630.0 175 159 157 150 122 117 123 122 100 82
670.0 73 46 45 56 41 46 56 49 41 35
710.0 40 34 36 26 18 16 0 13 22 32
750.0 44 45 51 69 78 102 137 164 226 308
790.0 383 447 496 528 487 422 366 294 232 204
830.0 228 263 327 442 608 868 1252 1686 2060 2242
870.0 2191 1939 1565 1285 1222 1335 1519 1686 1855 2050
910.0 2245 2512 2777 2822 2799 2576 2076 1562 1174 906
950.0 728 628 580 567 608 704 853 1052 1329 1740
990.0 2233 2735 3287 3799 3998 3762 3285 2694 2002 1409
1030.0 1107 953 811 708 636 609 628 695 769 847
1070.0 919 969 1004 1031 1124 1337 1705 2285 3114 4224
1110.0 5589 7051 8386 9381 9997 10000 9023 7453 5832 4353
1150.0 3197 2412 1860 1450 1153 936 764 638 548 492
1190.0 471 471 496 527 531 529 530 519 528 578
1230.0 675 758 806 862 916 946 978 1060 1200 1356
1270.0 1522 1728 1951 2143 2289 2364 2324 2151 1912 1672
1310.0 1478 1390 1437 1601 1748 1832 1941 1992 1877 1726
1350.0 1603 1436 1234 1068 964 904 846 785 737 686
1390.0 621 569 552 556 595 707 852 953 1007 1030
1430.0 1024 999 1024 1151 1320 1491 1603 1583 1441 1212
1470.0 936 677 480 333 225 157 120 96 78 63
1510.0 58 55 50 50 48 42 39 34 28 30
1550.0 35 27 17 25 32 31 28 31 41 43
1590.0 40 44 51 55 57 65 79 100 140 190
1630.0 266 358 423 445 430 377 279 177 104 61
1670.0 37 25 21 11 5 9 5 2 13 23
1710.0 24 21 19 26 23 19 18 14 10 11
1750.0 8 2 4 2 1 2 5 0 0 4
1790.0 0 1 6 10 17 19 25 31 45 68
1830.0 93 128 163 191 217 225 210 180 137 100
1870.0 68 46 34 27 29 27 26 36 45 49
1910.0 53 59 61 70 73 78 85 82 76 65
1950.0 61 71 82 89 97 113 129 133 134 132
1990.0 117 95 77 60 45 33 19 17 20 17
2030.0 16 19 15 9 6 6 7 4 7 10
2070.0 10 16 19 15 22 26 22 18 17 18
2110.0 16 16 13 11 9 6 11 17 19 22
2150.0 15 11 11 7 5 8 11 9 9 8
2190.0 5 2 0 4 7 4 2 7 12 13
2230.0 21 32 35 32 36 41 39 39 35 32
2270.0 29 28 31 32 34 37 35 28 25 23
2310.0 23 28 20 13 7 3 5 3 6 12
2350.0 13 10 2 0 6 16 24 25 24 25
2390.0 29 30 24 23 25 25 25 20 16 20
2430.0 20 21 25 21 18 16 20 27 32 29
2470.0 26 30 31 31 36 29 27 36 37 35
2510.0 35 33 30 29 31 32 34 39 43 51
2550.0 56 59 69 77 92 94 92 96 90 80
2590.0 79 98 119 123 122 134 142 147 165 184
2630.0 203 229 263 294 338 382 412 443 462 499
2670.0 551 611 681 745 816 867 888 899 896 877
2710.0 861 866 892 928 996 1100 1218 1351 1493 1649
2750.0 1795 1926 2033 2120 2222 2347 2541 2850 3296 3883
2790.0 4582 5341 6060 6632 6952 6942 6594 5993 5283 4571
2830.0 3938 3473 3251 3327 3688 4320 5119 5818 6289 6196
2870.0 5573 4905 4296 3809 3496 3387 3435 3590 3796 3975
2910.0 4130 4282 4419 4553 4673 4728 4670 4555 4528 4556
2950.0 4601 4878 5545 6461 6799 6562 6417 5751 4342 2986
2990.0 2101 1545 1181 969 873 832 804 767 702 611
3030.0 507 422 368 344 355 375 396 436 510 597
3070.0 703 833 1001 1153 1231 1202 1072 872 635 442
3110.0 293 197 149 121 106 100 99 86 80 87
3150.0 86 84 86 85 74 64 58 53 49 51
3190.0 51 52 57 57 59 54 57 63 63 65
3230.0 74 60 55 61 50 40 40 36 27 37
3270.0 39 26 21 19 27 34 35 37 31 33
3310.0 29 21 24 27 22 21 21 23 29 24
3350.0 20 16 14 22 29 23 5 2 3 8
3390.0 27 24 17 19 22 29 21 21 18 17
3430.0 26 35 31 26 28 29 42 39 24 35
3470.0 46 31 11 20 25 21 20 23 22 22
3510.0 33 26 15 19 22 30 36 24 20 23
3550.0 22 33 35 39 43 36 36 38 40 32
3590.0 23 23 24 32 40 35 23 17 31 38
3630.0 33 33 42 42 29 29 35 39 34 26
3670.0 24 20 16 19 30 29 36 41 39 46
3710.0 53 47 37 31 29 30 37 29 20 23
3750.0 42 50 38 47 47 46 45 46 49 47
3790.0 55 61 62 64 56 52 52 51 46 43
3830.0 41 43 49 58 59
##END=
