##TITLE=Cyclooctanol
##JCAMP-DX=4.24
##DATA TYPE=INFRARED SPECTRUM
##ORIGIN=NIST Mass Spectrometry Data Center
##OWNER=NIST Standard Reference Data Program
Collection (C) 2018 copyright by the U.S. Secretary of Commerce
on behalf of the United States of America. All rights reserved.
##CAS REGISTRY NO=696-71-9
##MOLFORM=C 8 H 16 O
##$NIST SOURCE=MSDC-IR
##SPECTROMETER/DATA SYSTEM=HP-GC/MS/IRD
##STATE=gas
##XUNITS=1/CM
##YUNITS=ABSORBANCE
##XFACTOR=1.0
##YFACTOR=0.000005800
##DELTAX=4.0
##FIRSTX=550.0
##LASTX=3846.0
##FIRSTY=0.000539
##MAXX=3846
##MINX=550
##MAXY=0.058
##MINY=0
##NPOINTS=825
##XYDATA=(X++(Y..Y))
550.0 93 68 37 36 42 45 36 23 25 27
590.0 13 15 20 13 18 10 6 1 1 9
630.0 11 9 13 19 25 25 16 11 20 24
670.0 19 26 22 21 35 40 37 38 51 58
710.0 49 50 55 61 61 64 70 70 74 76
750.0 82 93 102 111 123 133 141 146 148 152
790.0 149 140 146 153 158 158 141 128 112 95
830.0 92 90 89 89 85 83 89 90 87 91
870.0 106 122 135 151 167 178 187 193 189 180
910.0 170 162 157 158 174 198 236 275 310 348
950.0 392 436 490 564 656 777 920 1049 1151 1208
990.0 1208 1153 1051 930 816 715 629 564 532 548
1030.0 619 749 925 1124 1289 1384 1387 1291 1124 933
1070.0 767 661 603 575 559 539 525 505 484 471
1110.0 469 470 465 452 422 391 361 322 285 264
1150.0 252 245 247 263 280 305 325 344 356 368
1190.0 385 400 414 433 455 480 513 545 561 576
1230.0 596 609 622 621 614 602 586 562 527 489
1270.0 453 418 388 363 337 313 293 279 266 257
1310.0 250 254 269 285 303 321 338 358 386 414
1350.0 439 462 479 485 492 486 470 447 420 391
1390.0 365 344 316 288 261 240 227 218 234 280
1430.0 355 469 631 808 948 1029 1069 1086 1050 962
1470.0 890 814 709 587 462 351 261 193 142 99
1510.0 76 70 60 53 51 49 43 35 28 29
1550.0 30 27 23 29 29 26 30 30 32 32
1590.0 29 28 28 23 22 23 22 20 20 19
1630.0 19 17 17 17 14 12 11 15 16 13
1670.0 10 12 13 5 3 9 4 0 3 7
1710.0 8 5 4 10 11 7 5 8 8 5
1750.0 3 8 12 11 8 7 9 10 9 10
1790.0 7 7 6 7 8 8 9 9 10 9
1830.0 8 9 10 7 7 13 15 13 12 12
1870.0 11 14 16 15 14 15 13 12 13 13
1910.0 14 14 12 11 13 15 13 15 15 14
1950.0 14 13 12 13 12 11 12 13 13 10
1990.0 8 8 10 12 11 10 10 11 9 7
2030.0 8 8 7 5 6 8 10 9 7 6
2070.0 7 6 8 9 8 7 8 9 10 12
2110.0 12 12 11 11 16 13 13 15 14 13
2150.0 11 10 11 11 10 9 7 8 8 6
2190.0 8 10 10 11 11 10 10 8 10 11
2230.0 13 15 13 11 10 10 11 10 11 14
2270.0 12 11 10 9 8 8 10 11 11 12
2310.0 11 10 9 7 5 6 7 5 7 5
2350.0 4 4 2 0 0 1 3 4 1 1
2390.0 6 9 7 6 5 0 4 10 9 8
2430.0 10 11 10 10 11 10 9 8 7 7
2470.0 9 10 9 8 5 6 10 11 10 7
2510.0 5 9 10 10 14 15 18 20 18 21
2550.0 24 25 26 27 30 32 31 30 31 35
2590.0 39 43 40 41 46 49 48 53 58 60
2630.0 64 65 66 68 77 83 88 96 103 116
2670.0 130 142 154 162 170 179 185 186 181 175
2710.0 169 162 155 149 143 136 129 125 126 127
2750.0 124 126 132 135 139 145 156 165 175 192
2790.0 208 219 232 252 271 292 318 343 375 417
2830.0 475 566 708 929 1254 1652 2078 2474 2757 2914
2870.0 2927 2817 2661 2514 2415 2430 2571 2848 3301 3962
2910.0 4802 5840 7137 8452 9463 10000 9951 9328 8221 6863
2950.0 5515 4313 3318 2546 1945 1477 1115 838 640 497
2990.0 393 318 261 219 189 163 145 131 119 108
3030.0 96 85 77 67 56 53 52 47 42 39
3070.0 40 36 35 32 30 32 31 30 29 28
3110.0 32 31 26 26 24 26 26 24 22 18
3150.0 17 18 16 10 10 11 11 13 13 13
3190.0 10 6 9 15 16 13 12 10 7 4
3230.0 4 9 6 3 6 9 12 6 3 5
3270.0 11 12 10 6 1 0 1 0 3 5
3310.0 7 13 8 3 4 3 2 2 3 5
3350.0 9 11 9 7 9 14 14 11 14 19
3390.0 16 17 20 23 22 21 26 24 16 18
3430.0 22 17 16 16 13 14 16 15 11 8
3470.0 8 10 11 10 10 8 6 6 3 3
3510.0 5 10 14 10 6 10 10 11 9 4
3550.0 3 4 7 9 1 1 10 13 10 6
3590.0 9 17 22 25 23 24 32 45 67 92
3630.0 134 200 286 360 396 407 386 328 252 170
3670.0 105 66 47 40 33 28 28 26 23 21
3710.0 15 14 21 22 19 19 13 11 10 7
3750.0 10 14 20 22 20 23 27 28 27 24
3790.0 25 23 19 23 24 20 24 26 26 27
3830.0 21 15 19 23 26
##END=
