##TITLE=Anisyl butyrate
##JCAMP-DX=4.24
##DATA TYPE=INFRARED SPECTRUM
##ORIGIN=NIST Mass Spectrometry Data Center
##OWNER=NIST Standard Reference Data Program
Collection (C) 2018 copyright by the U.S. Secretary of Commerce
on behalf of the United States of America. All rights reserved.
##CAS REGISTRY NO=6963-56-0
##MOLFORM=C 12 H 16 O 3
##$NIST SOURCE=MSDC-IR
##SPECTROMETER/DATA SYSTEM=HP-GC/MS/IRD
##STATE=gas
##XUNITS=1/CM
##YUNITS=ABSORBANCE
##XFACTOR=1.0
##YFACTOR=0.000004700
##DELTAX=4.0
##FIRSTX=550.0
##LASTX=3846.0
##FIRSTY=0.001105
##MAXX=3846
##MINX=550
##MAXY=0.047
##MINY=0
##NPOINTS=825
##XYDATA=(X++(Y..Y))
550.0 235 447 431 466 434 394 344 283 243 211
590.0 194 179 157 133 118 105 92 87 85 68
630.0 58 54 50 52 29 8 19 21 10 10
670.0 1 7 21 25 23 22 38 56 69 87
710.0 94 100 102 80 73 91 99 102 121 143
750.0 156 173 190 196 191 193 211 235 278 333
790.0 409 508 622 752 883 1023 1184 1334 1448 1456
830.0 1362 1229 1130 1077 1014 897 747 606 504 427
870.0 376 339 313 290 270 267 260 246 248 256
910.0 271 294 309 349 423 483 504 500 491 524
950.0 604 740 937 1194 1491 1774 1962 2014 1950 1822
990.0 1664 1505 1364 1243 1152 1096 1094 1164 1325 1585
1030.0 1942 2337 2652 2744 2564 2212 1856 1596 1457 1427
1070.0 1468 1579 1758 1979 2201 2357 2412 2378 2294 2161
1110.0 1987 1803 1656 1580 1568 1620 1775 2038 2433 3011
1150.0 3859 5083 6710 8525 9895 10000 8760 7073 5820 5141
1190.0 4712 4392 4132 3901 3718 3610 3612 3726 3956 4332
1230.0 4915 5801 6997 8225 8935 8721 7743 6539 5487 4639
1270.0 3943 3398 3023 2828 2781 2819 2843 2736 2430 2010
1310.0 1627 1370 1224 1132 1087 1096 1158 1261 1372 1446
1350.0 1444 1374 1266 1162 1085 1051 1046 1031 971 863
1390.0 747 644 556 505 482 477 494 535 593 656
1430.0 734 823 928 1050 1160 1247 1316 1398 1470 1490
1470.0 1416 1242 1050 909 858 908 1076 1443 2130 3313
1510.0 4814 5639 5051 3412 1902 1098 726 525 408 343
1550.0 306 282 273 280 299 339 400 489 599 711
1590.0 815 936 1124 1410 1723 1939 1936 1683 1289 910
1630.0 644 479 377 313 270 238 213 207 204 198
1670.0 196 197 206 218 240 268 305 348 422 515
1710.0 617 733 879 1070 1323 1674 2192 2944 3981 5235
1750.0 6363 6814 6284 5044 3709 2650 1909 1413 1075 844
1790.0 676 551 459 382 316 263 226 198 173 151
1830.0 136 123 114 108 109 112 112 115 119 120
1870.0 122 127 132 131 124 114 105 94 86 80
1910.0 78 75 71 68 69 71 71 69 69 68
1950.0 67 69 71 71 68 71 71 75 80 79
1990.0 84 93 97 93 95 98 98 100 102 104
2030.0 103 101 101 102 104 107 112 115 116 120
2070.0 118 115 111 100 87 79 66 50 43 38
2110.0 33 27 24 22 20 18 14 10 13 11
2150.0 6 4 2 1 0 2 2 1 1 2
2190.0 3 8 6 1 3 10 11 10 12 10
2230.0 5 7 7 6 9 12 14 24 26 26
2270.0 27 26 25 26 28 29 25 19 16 17
2310.0 18 18 17 16 13 10 9 11 11 8
2350.0 6 5 0 0 0 0 0 0 0 0
2390.0 0 0 0 2 2 4 11 15 15 15
2430.0 13 5 9 13 16 15 13 14 18 20
2470.0 21 24 24 21 22 23 26 30 28 27
2510.0 28 26 27 32 35 35 38 49 51 49
2550.0 48 45 34 23 20 17 20 23 18 18
2590.0 22 23 21 21 20 19 16 12 14 20
2630.0 18 11 13 13 14 18 14 13 12 12
2670.0 16 20 21 19 19 20 21 22 19 18
2710.0 20 23 28 32 39 38 32 38 51 59
2750.0 62 62 62 68 73 76 81 83 94 103
2790.0 107 118 135 151 170 201 238 272 312 366
2830.0 443 552 711 880 953 889 754 655 621 635
2870.0 695 810 960 1114 1227 1267 1251 1221 1225 1266
2910.0 1330 1413 1504 1600 1714 1878 2121 2443 2760 2966
2950.0 3038 3053 3077 3101 3096 3064 2986 2816 2546 2220
2990.0 1916 1699 1591 1580 1604 1508 1268 997 813 733
3030.0 706 719 740 726 663 558 475 432 414 421
3070.0 441 456 442 406 361 321 295 269 254 240
3110.0 223 207 188 173 154 138 126 110 98 93
3150.0 82 65 63 67 62 52 46 44 41 44
3190.0 51 47 43 43 37 34 36 29 28 23
3230.0 21 27 25 25 22 13 12 13 17 19
3270.0 11 1 1 12 13 13 19 23 19 17
3310.0 15 14 11 20 27 17 19 13 22 28
3350.0 18 10 11 12 5 7 8 13 19 19
3390.0 18 20 19 22 20 13 23 27 26 20
3430.0 15 14 20 30 33 36 38 49 50 49
3470.0 60 75 87 86 81 80 81 80 75 67
3510.0 64 64 60 56 48 49 50 40 34 28
3550.0 34 35 34 31 23 28 26 20 23 26
3590.0 22 19 26 23 14 17 22 22 23 35
3630.0 31 22 24 25 18 23 30 24 26 31
3670.0 41 45 33 30 29 26 27 30 30 32
3710.0 35 37 36 33 37 33 27 41 45 33
3750.0 31 35 45 38 29 34 38 37 33 39
3790.0 46 46 47 51 51 53 52 37 32 45
3830.0 53 37 35 45 51
##END=
