##TITLE=Thiophene-3-acetic acid
##JCAMP-DX=4.24
##DATA TYPE=INFRARED SPECTRUM
##ORIGIN=EPA-IR VAPOR PHASE LIBRARY
##OWNER=SRD/NIST
Collection (C) 2018 copyright by the U.S. Secretary of Commerce
on behalf of the United States of America. All rights reserved.
##CAS REGISTRY NO=6964-21-2
##MOLFORM=C 6 H 6 O 2 S
##$NIST SOURCE=MSDC-IR
##STATE=gas
##XUNITS=1/CM
##YUNITS=ABSORBANCE
##XFACTOR=1.
##YFACTOR=0.001
##DELTAX=1.92898
##FIRSTX=549.8
##LASTX=4000.7
##FIRSTY=5.098
##MAXX=4000.7
##MINX=549.759
##MAXY=0.096328
##MINY=0
##NPOINTS=1790
##XYDATA=(X++(Y..Y))
549.759 5.098 5.378 5.368 6.068 6.938 7.758 8.578 9.148 10.228 10.868
569.049 11.308 12.968 14.628 16.268 19.128 22.858 26.888 31.508 34.698 35.298
588.339 35.828 36.408 36.518 36.208 34.028 29.938 26.358 23.728 21.798 20.728
607.628 20.338 20.928 21.838 22.678 23.938 25.168 25.908 26.738 27.378 28.238
626.918 29.148 29.338 29.458 29.608 29.528 29.448 29.148 28.448 28.278 28.778
646.208 28.428 27.678 27.208 26.358 25.298 24.478 23.408 22.278 20.768 19.038
665.498 17.708 16.688 15.448 14.178 13.568 13.068 12.558 11.798 11.598 11.478
684.787 11.008 10.618 9.668 8.908 8.378 7.928 7.758 7.358 6.978 6.438
704.077 6.188 6.218 6.088 6.448 6.678 6.718 7.078 7.428 7.828 8.468
723.367 8.768 8.668 9.398 10.378 10.858 11.418 12.078 12.908 13.768 15.098
742.657 16.208 16.888 17.838 18.248 18.768 19.588 19.848 20.308 20.668 20.338
761.947 19.968 19.798 20.178 20.598 20.658 20.358 20.098 20.118 19.798 18.798
781.236 17.408 15.968 14.688 13.598 12.078 10.858 9.968 8.678 7.718 7.228
800.526 6.198 5.238 4.858 4.378 4.428 4.348 4.198 4.148 3.808 4.318
819.816 5.038 5.438 6.398 7.588 8.438 9.768 11.168 12.178 12.778 12.928
839.106 13.098 13.508 13.438 12.548 11.998 10.978 9.918 9.538 9.298 9.008
858.395 8.678 8.948 8.968 8.508 8.168 7.888 7.558 7.078 6.538 6.048
877.685 5.398 4.878 4.538 4.298 4.278 4.048 3.988 3.938 3.718 3.858
896.975 3.888 3.578 3.678 3.628 3.468 3.518 3.608 3.438 3.128 3.588
916.265 3.908 3.788 3.688 3.698 3.758 3.758 3.868 4.018 4.278 4.578
935.555 4.638 4.848 5.238 5.558 5.848 6.168 6.208 5.818 5.478 5.518
954.844 5.488 4.888 4.458 4.308 4.008 3.548 3.008 2.848 2.958 2.748
974.134 2.268 2.398 2.578 2.388 2.608 3.108 3.068 2.368 2.138 2.318
993.424 2.408 2.558 2.468 2.398 2.418 2.138 1.828 1.818 1.908 1.578
1012.714 1.718 1.988 1.758 1.838 2.288 2.438 2.138 2.368 2.318 2.108
1032.003 2.368 2.498 2.458 2.618 2.728 3.028 3.388 3.828 4.478 4.798
1051.293 5.158 5.458 6.018 6.528 7.308 8.328 9.308 10.568 11.278 12.888
1070.583 15.168 17.388 19.078 20.598 23.098 25.188 27.448 29.748 32.538 36.148
1089.873 40.308 43.678 47.718 53.828 59.128 64.758 71.298 78.188 84.288 88.108
1109.163 89.878 90.828 90.668 89.018 86.018 80.138 73.548 66.258 58.438 51.918
1128.452 47.048 43.078 39.178 36.178 34.248 31.798 29.448 28.158 26.508 24.738
1147.742 22.618 21.108 20.668 19.538 17.938 17.088 17.208 16.718 15.148 14.788
1167.032 15.158 15.188 14.818 14.028 13.918 13.918 14.098 14.418 13.958 13.528
1186.322 13.398 13.938 14.338 14.838 15.838 15.308 14.768 14.588 14.728 15.598
1205.611 15.758 15.438 14.498 13.848 13.978 14.228 13.858 13.428 12.838 11.848
1224.901 11.048 10.858 11.138 11.208 12.308 13.718 13.288 12.628 12.498 11.948
1244.191 12.108 12.418 11.788 11.748 11.678 11.418 11.438 10.928 10.258 10.418
1263.481 10.108 9.548 9.208 9.218 9.448 9.148 8.818 8.878 9.198 9.178
1282.771 8.938 8.668 8.518 8.518 8.408 8.498 8.688 8.678 8.748 9.038
1302.060 9.098 9.228 9.388 9.168 9.148 9.228 9.298 9.408 9.468 9.628
1321.350 9.888 10.148 10.598 11.058 11.308 11.668 12.228 12.848 13.688 14.518
1340.640 15.168 15.738 16.268 16.738 17.098 17.178 16.938 16.698 16.478 15.988
1359.930 15.288 14.688 14.008 13.068 12.338 11.888 11.408 10.978 10.548 10.078
1379.219 9.748 9.648 9.628 9.558 9.528 9.568 9.648 9.828 10.018 10.208
1398.509 10.438 10.818 11.008 11.008 10.958 10.808 10.778 10.528 10.168 9.898
1417.799 9.468 8.958 8.628 8.488 8.328 8.148 8.038 7.908 7.788 7.788
1437.089 7.688 7.468 7.158 6.958 6.788 6.458 6.188 5.958 5.708 5.568
1456.378 5.318 4.978 4.638 4.258 4.088 3.898 3.538 3.298 3.058 2.678
1475.668 2.498 2.398 2.188 1.898 1.908 1.778 1.708 1.938 1.828 1.798
1494.958 1.868 1.878 1.708 1.578 1.798 1.838 1.738 1.808 1.888 1.848
1514.248 1.978 2.168 2.098 2.178 2.418 2.638 2.958 3.388 3.798 3.938
1533.538 3.908 4.158 4.158 4.018 4.098 3.998 3.868 3.928 3.658 3.258
1552.827 3.168 3.238 3.208 2.828 2.378 2.288 2.518 2.208 1.798 1.948
1572.117 1.768 1.498 1.528 1.568 1.438 1.4165 1.588 1.3762 1.0612 1.0901
1591.407 1.2745 1.558 1.658 1.4237 1.428 1.4095 1.3267 1.2896 1.2389 1.498
1610.697 1.598 1.3643 1.2581 1.2552 1.2396 1.2217 1.361 1.518 1.728 1.708
1629.986 1.518 1.578 1.598 1.638 1.788 1.838 1.618 1.598 1.778 1.618
1649.276 1.608 1.768 1.788 1.808 1.808 1.708 1.688 1.888 1.978 2.018
1668.566 2.028 2.158 2.218 2.208 2.288 2.408 2.418 2.398 2.508 2.588
1687.856 2.768 2.878 2.928 3.008 3.208 3.288 3.478 3.858 4.198 4.468
1707.146 4.628 4.908 5.248 5.648 5.988 6.588 7.308 7.898 8.618 9.368
1726.435 10.268 11.308 12.538 13.938 15.568 17.368 19.328 21.458 23.818 26.598
1745.725 29.418 32.408 35.808 39.248 42.798 46.538 50.468 54.488 58.628 62.918
1765.015 67.438 72.268 77.118 81.788 86.168 89.848 92.888 94.978 96.038 96.328
1784.305 95.548 93.628 90.968 87.568 83.168 78.338 73.288 67.838 62.278 56.818
1803.594 51.368 45.868 40.828 36.178 31.678 27.408 23.568 20.288 17.468 15.038
1822.884 12.988 11.298 9.848 8.748 7.818 6.918 6.208 5.518 4.878 4.478
1842.174 4.188 3.958 3.718 3.428 3.108 2.828 2.658 2.628 2.518 2.328
1861.464 2.298 2.298 2.078 1.848 1.888 1.808 1.698 1.698 1.808 1.808
1880.754 1.728 1.808 1.768 1.618 1.558 1.648 1.688 1.658 1.538 1.468
1900.043 1.508 1.468 1.4182 1.4043 1.3446 1.2113 1.1602 1.0807 1.031 1.2238
1919.333 1.1598 1.1073 1.1502 1.0825 1.1122 1.1119 1.1883 1.3645 1.2949 1.207
1938.623 1.3836 1.3845 1.3101 1.299 1.3063 1.2641 1.2132 1.309 1.3049 1.2498
1957.913 1.3588 1.3598 1.1829 1.1224 1.1833 1.2059 1.1785 1.2389 1.3592 1.3684
1977.202 1.3028 1.296 1.3082 1.3732 1.3804 1.2716 1.3344 1.3608 1.2489 1.309
1996.492 1.381 1.3897 1.3636 1.2285 1.1865 1.3293 1.3645 1.3105 1.3017 1.1239
2015.782 1.1371 1.3009 1.2929 1.3405 1.313 1.2715 1.2188 1.3045 1.364 1.1125
2035.072 1.0876 1.1553 1.2874 1.4052 1.3121 1.2022 1.1875 1.1088 1.0417 1.1145
2054.362 1.0952 1.0787 1.0976 1.2165 1.2138 1.1186 1.1002 1.1087 1.1569 1.1958
2073.651 1.1733 1.0188 0.9324 1.0095 1.0239 1.022 1.1175 1.0337 0.9508 1.0343
2092.941 0.9947 0.9729 1.0817 1.1593 1.2143 1.092 1.0152 1.0567 1.0473 0.9119
2112.231 0.736 1.0249 1.2729 1.2035 1.0284 0.8761 0.9044 0.9917 1.079 1.1368
2131.521 1.1675 1.1462 1.2338 1.2324 1.0977 1.004 0.9441 1.1094 1.1525 0.9987
2150.810 0.941 1.0018 1.0323 1.0633 1.2766 1.3172 1.2852 1.3234 1.1816 1.1121
2170.100 1.2187 1.23 1.2169 1.3008 1.2958 1.1661 1.1091 1.1566 1.14 1.1619
2189.390 1.3383 1.4136 1.2452 1.1368 1.3322 1.458 1.3805 1.3568 1.1916 1.2117
2208.680 1.3214 1.4197 1.638 1.558 1.448 1.498 1.558 1.4047 1.3145 1.3946
2227.970 1.2755 1.118 1.2463 1.3406 1.1742 1.1532 1.1599 1.0392 1.0664 1.2599
2247.259 1.2084 1.069 1.1551 1.3502 1.3636 1.2063 1.1887 1.1859 1.2111 1.3278
2266.549 1.2951 1.1639 1.2852 1.2637 1.0758 1.1577 1.2475 1.234 1.2541 1.1631
2285.839 1.1548 1.2612 1.274 1.3055 1.3883 1.3475 1.2125 1.2361 1.2963 1.332
2305.129 1.428 1.518 1.518 1.3979 1.478 1.648 1.708 1.578 1.528 1.618
2324.418 1.588 1.4083 1.1875 1.287 1.588 1.688 1.548 1.548 1.498 1.428
2343.708 1.548 1.3569 1.3669 1.508 1.478 1.498 1.678 1.858 1.838 1.948
2362.998 2.048 2.028 1.968 1.938 1.918 1.798 1.618 1.648 1.678 1.628
2382.288 1.478 1.438 1.458 1.337 1.1587 1.127 1.1774 1.0918 1.048 1.0045
2401.578 1.0895 1.2357 1.2607 1.1958 1.0818 0.9943 0.9611 1.0653 1.1188 1.1918
2420.867 1.208 1.0745 1.0048 1.0723 1.054 1.0064 0.9626 0.9644 1.0996 1.1241
2440.157 0.9974 0.9332 0.8983 0.8614 0.9247 1.0388 1.0956 1.0692 1.1385 0.9049
2459.447 0.7749 1.1039 1.2307 0.9987 0.9536 0.8906 0.8862 0.9739 0.9014 0.9046
2478.737 0.8914 0.8522 0.944 1.0582 1.0342 1.0765 1.0845 1.1084 1.0291 1.0036
2498.026 1.0986 1.2009 1.1802 0.9275 0.8773 0.7647 0.715 0.9196 0.9491 0.8332
2517.316 0.8923 0.9428 0.8296 0.8906 1.0523 1.096 0.9549 0.8856 0.8354 0.7716
2536.606 0.9267 0.9518 1.0612 1.1057 0.9662 0.9883 0.9595 1.0302 1.0689 1.1538
2555.896 1.1338 0.9977 0.9765 0.8809 0.8519 0.9989 1.1321 0.9523 0.7829 0.8411
2575.186 1.0463 1.0064 0.9256 0.9715 0.9227 1.1185 1.1226 0.9464 0.9495 0.9981
2594.475 1.018 0.9538 0.8479 0.7562 0.6288 0.6986 0.7691 0.7051 0.9446 1.0316
2613.765 0.7504 0.6238 0.7078 0.7461 0.9761 1.0541 0.8226 0.8422 0.8125 0.7855
2633.055 1.003 0.8477 0.6873 0.8749 0.9337 0.9563 0.8917 0.8568 0.9956 0.8083
2652.345 0.7738 1.0856 1.0699 0.8564 0.6658 0.8005 1.0467 1.0154 0.978 0.9029
2671.634 0.7455 0.7242 1.0179 1.1541 0.9028 0.9379 1.1394 1.0282 0.9727 0.9649
2690.924 1.1372 1.1014 1.0522 1.118 0.8686 0.9032 1.0397 0.9979 0.8245 0.7481
2710.214 0.6968 0.7354 0.6968 0.7101 0.9917 0.9402 0.7369 0.813 0.9059 0.9627
2729.504 0.9998 0.8684 0.9367 0.9561 0.8355 0.8377 0.727 0.9298 1.1704 0.9233
2748.794 0.8305 0.9861 0.9767 0.9246 1.0226 0.8445 0.8438 1.0131 0.9503 1.098
2768.083 1.2521 1.2949 1.0507 0.7335 0.6631 0.869 1.0342 0.9651 1.0007 1.2295
2787.373 1.1446 0.7469 0.6529 0.6669 0.5784 0.6757 0.8581 1.0285 1.1756 0.9684
2806.663 1.2011 1.548 1.4008 1.2806 1.014 0.9517 1.2062 1.2822 1.1056 1.1591
2825.953 1.2597 1.2966 1.0887 0.9385 1.1182 1.1104 1.1839 1.3683 1.568 1.3803
2845.242 1.0715 1.2033 1.3643 1.2513 1.2224 1.1202 1.1826 1.578 1.568 1.438
2864.532 1.3106 1.2419 1.322 1.2147 1.2022 1.2828 1.2736 1.1293 1.1433 1.548
2883.822 1.698 1.568 1.3311 1.3139 1.628 1.858 1.998 2.028 1.778 1.618
2903.112 1.748 2.098 2.628 2.788 2.758 2.718 2.588 3.088 3.508 3.448
2922.401 3.778 4.198 4.148 4.268 4.448 4.458 4.608 4.728 4.598 4.428
2941.691 4.518 4.398 4.398 4.328 3.948 3.728 3.548 3.398 3.528 3.438
2960.981 3.158 2.918 2.688 2.658 2.718 2.638 2.588 2.598 2.578 2.688
2980.271 2.658 2.328 2.158 2.288 2.448 2.468 2.498 2.298 2.108 2.038
2999.561 1.848 2.098 2.208 2.218 2.438 2.268 1.878 1.708 1.668 1.598
3018.850 1.528 1.668 1.618 1.196 1.1512 1.448 1.528 1.2877 1.1222 1.168
3038.140 1.2754 1.3354 1.2783 1.3476 1.458 1.578 1.4109 1.3943 1.618 1.478
3057.430 1.698 1.938 1.808 1.968 1.988 1.838 1.948 1.948 1.788 2.078
3076.720 1.988 1.698 1.998 1.998 1.618 1.598 1.658 1.678 1.938 1.948
3096.009 1.768 1.578 1.3043 1.478 1.588 1.3312 1.4174 1.518 1.548 1.908
3115.299 1.978 1.508 1.4131 1.3818 1.266 1.3218 1.458 1.468 1.3399 1.1474
3134.589 1.1966 1.4014 1.3142 1.448 1.4157 1.428 1.3867 1.0173 1.0663 1.1394
3153.879 0.8996 0.7786 0.9676 1.1702 1.1407 1.101 1.1337 1.087 1.1005 1.0635
3173.169 1.0243 0.9767 1.1853 1.518 1.294 1.0058 1.0375 0.9884 1.0257 1.2652
3192.458 0.9315 1.0042 1.1364 0.6337 0.49136 0.6913 0.8302 0.8131 0.8385 0.8487
3211.748 1.0241 1.0476 0.6966 0.5665 0.8541 0.7819 0.7043 0.8547 0.9501 1.1717
3231.038 0.958 0.8539 1.0928 1.1602 1.35 1.1812 1.0411 1.2473 1.2494 1.0339
3250.328 0.861 0.963 1.0308 0.8658 0.843 0.9255 1.0885 0.9006 0.8117 1.1351
3269.617 1.2401 0.9574 0.7425 0.7773 0.7448 0.7332 0.6316 0.50799 0.319 0.6623
3288.907 1.0612 0.8682 0.5734 0.6007 0.6883 0.6834 1.0584 1.0922 0.8886 0.9842
3308.197 0.8879 0.7435 0.9635 0.9383 1.1524 1.4198 1.2379 1.1589 1.0364 0.9647
3327.487 0.9117 0.9211 1.0596 1.285 0.9841 0.8835 0.8205 0.62 0.9663 1.0949
3346.777 0.8944 0.7935 0.786 0.9675 1.1102 0.8605 0.7805 0.9789 1.0576 1.0827
3366.066 1.1124 0.8295 0.5944 0.6531 1.116 1.468 1.0665 0.5991 0.5394 0.44531
3385.356 0.412 0.5809 0.6764 0.5965 0.5961 0.6632 0.5622 0.8968 1.0616 0.7836
3404.646 0.8081 0.52686 0.48021 0.5337 0.327 0.6986 1.4278 1.2005 0.764 0.7166
3423.936 0.5449 0.5454 0.6586 0.7005 0.7669 0.7644 0.668 0.8531 1.1454 1.4254
3443.225 1.3916 0.8754 0.596 0.8749 0.8854 1.1701 1.428 1.3025 1.3487 1.2751
3462.515 1.488 1.638 1.3358 0.817 0.8651 1.438 1.3654 1.2185 0.8969 0.821
3481.805 1.1996 1.3381 1.3794 1.3814 1.548 1.458 0.9968 0.9609 1.2355 1.458
3501.095 1.708 1.668 1.428 1.2666 1.658 1.838 1.688 1.758 1.748 1.608
3520.385 1.848 2.258 2.328 2.418 2.358 2.518 2.738 2.808 3.328 3.998
3539.674 4.218 4.608 5.378 5.938 6.378 7.028 8.008 8.698 9.798 11.718
3558.964 13.998 16.968 20.978 26.028 31.758 36.858 39.838 40.738 40.828 40.738
3578.254 39.778 37.628 33.588 27.928 22.058 16.998 13.128 10.508 8.758 7.758
3597.544 6.628 5.838 5.388 4.438 3.898 3.608 3.288 2.758 2.208 2.458
3616.833 2.788 2.278 1.808 1.628 1.738 1.998 1.508 0.9647 1.0606 1.2006
3636.123 1.478 1.608 1.628 1.488 1.0851 1.2009 1.2679 1.0872 1.1968 1.0889
3655.413 1.1652 1.4097 1.498 1.518 1.2922 1.0789 1.0258 0.9493 1.1419 1.1268
3674.703 0.7928 0.9327 0.9981 0.7784 0.9889 1.558 1.598 0.8707 0.3991 0.6018
3693.993 0.9825 0.9828 0.7572 0.5393 0.6937 1.3225 1.3184 1.15 1.1329 0.7982
3713.282 0.8149 1.1094 1.4048 1.174 0.41878 0.5337 0.813 0.5283 0.7076 0.9801
3732.572 0.778 0.7781 0.7498 0.51466 0.8549 1.211 1.0165 1.1298 1.3103 1.252
3751.862 0.9183 0.911 1.0309 0.9696 0.945 1.1532 1.2452 0.7747 0.6589 0.5297
3771.152 0.3607 0.8395 1.1764 0.9974 0.8261 0.7553 0.8487 0.7634 0.6646 0.8027
3790.441 0.8545 1.1315 1.2495 1.0297 0.98 1.1694 0.9517 0.9651 0.9915 0.44083
3809.731 0.48549 0.6349 0.7633 0.7618 0.6943 0.8568 0.862 1.0724 1.1428 0.7452
3829.021 0.697 0.315 0 0.327 0.5753 0.8323 0.9443 0.5979 0.3659 0.8271
3848.311 1.0132 0.9814 1.32 1.3373 0.9822 0.7529 0.6826 0.9338 1.1382 0.48615
3867.601 0.196 0.6756 1.001 1.2345 1.2699 1.1545 1.0859 1.0367 0.7667 0.8688
3886.890 1.1678 1.458 0.951 1.0389 1.3014 0.8738 0.9446 0.834 0.7827 0.8502
3906.180 0.8451 0.8307 0.86 0.7293 0.8816 0.8875 0.8621 1.0145 0.8246 0.6949
3925.470 0.9678 1.508 1.638 1.408 1.448 1.458 1.3278 1.0198 1.1215 1.181
3944.760 0.8462 0.673 0.6597 0.7034 0.8889 0.7332 0.921 1.0682 0.8551 1.2743
3964.049 1.448 1.2029 1.174 1.1903 0.8564 0.7559 0.5458 0.666 0.8158 0.5757
3983.339 0.7079 0.9589 0.987 0.9015 1.0962 1.4277 1.588 1.1561 0.696 1.0418
##END=
