##TITLE=2-Bromo-5-methylbenzoic acid
##JCAMP-DX=4.24
##DATA TYPE=INFRARED SPECTRUM
##ORIGIN=EPA-IR VAPOR PHASE LIBRARY
##OWNER=SRD/NIST
Collection (C) 2018 copyright by the U.S. Secretary of Commerce
on behalf of the United States of America. All rights reserved.
##CAS REGISTRY NO=6967-82-4
##MOLFORM=C 8 H 7 Br O 2
##$NIST SOURCE=MSDC-IR
##STATE=gas
##XUNITS=1/CM
##YUNITS=ABSORBANCE
##XFACTOR=1.
##YFACTOR=0.001
##DELTAX=1.92898
##FIRSTX=549.8
##LASTX=4000.7
##FIRSTY=5.309
##MAXX=4000.7
##MINX=549.759
##MAXY=0.062129
##MINY=0
##NPOINTS=1790
##XYDATA=(X++(Y..Y))
549.759 5.309 5.099 5.119 5.549 6.099 6.459 6.239 6.019 5.989 6.749
569.049 7.479 8.039 8.839 9.529 10.469 10.999 11.699 12.719 12.929 12.959
588.339 12.839 12.399 11.909 11.239 10.399 9.869 9.859 9.959 10.269 10.839
607.628 11.289 11.159 10.629 9.989 9.199 8.349 7.339 6.219 5.419 4.949
626.918 5.289 6.739 8.559 10.689 12.539 13.549 14.189 14.819 14.939 13.609
646.208 11.849 10.189 8.069 5.809 3.949 2.879 2.289 1.879 1.489 1.1085
665.498 1.0483 1.069 0.915 0.9699 0.8555 0.5207 0.4445 0.5311 0.6142 0.672
684.787 0.7234 0.8455 1.0558 1.1595 1.167 1.339 1.619 1.699 1.809 1.909
704.077 1.779 2.139 2.829 3.449 4.329 4.769 4.899 4.959 4.989 5.009
723.367 4.699 3.999 3.199 2.639 2.239 1.809 1.409 1.209 1.0672 0.8987
742.657 0.9197 1.0441 1.179 1.399 1.389 1.409 1.639 1.839 1.979 2.179
761.947 2.629 3.009 3.179 3.379 3.809 4.499 5.069 5.549 6.049 6.119
781.236 5.859 5.639 5.319 4.989 4.629 4.309 4.239 4.259 4.309 4.759
800.526 5.289 6.019 6.959 7.779 8.569 9.459 10.469 11.229 10.559 8.629
819.816 6.899 5.649 4.579 3.519 2.679 1.979 1.269 0.8155 0.6475 0.4214
839.106 0.20723 0.22065 0.20012 0.1602 0.2979 0.5142 0.7993 0.6767 0.4862 0.5769
858.395 0.477 0.5766 0.6465 0.388 0.3156 0.3689 0.5079 0.7287 0.9058 1.0531
877.685 1.179 1.429 1.779 2.029 2.339 2.559 2.609 2.749 2.619 2.359
896.975 2.369 2.259 1.799 1.399 1.189 1.0173 0.9205 0.9683 0.8282 0.6718
916.265 0.5059 0.4461 0.5529 0.5434 0.4846 0.316 0.26045 0.4238 0.5594 0.6633
935.555 0.5817 0.5943 0.5326 0.3641 0.4969 0.4873 0.7081 0.736 0.8401 1.006
954.844 0.9539 0.9335 0.954 0.9717 0.8949 0.8532 0.9123 1.002 0.8712 0.9011
974.134 0.998 0.9578 1.0833 1.116 1.1015 1.249 1.309 1.459 1.609 1.569
993.424 1.659 1.849 2.039 2.199 2.669 2.959 2.939 3.039 3.459 4.329
1012.714 5.419 6.879 8.819 11.199 14.249 17.399 19.309 20.219 20.269 19.989
1032.003 18.999 17.319 14.529 10.759 8.019 6.319 5.229 4.539 4.349 4.179
1051.293 3.979 4.279 4.679 4.529 4.509 4.879 5.029 5.459 6.139 7.019
1070.583 8.019 8.969 9.919 11.479 13.659 15.389 16.899 18.499 19.489 20.009
1089.873 20.769 21.299 21.479 21.749 21.749 21.079 20.509 21.099 22.469 23.299
1109.163 24.269 25.489 25.059 24.459 23.859 22.039 19.959 17.829 15.619 13.619
1128.452 12.609 12.059 11.349 11.369 11.679 11.519 11.639 12.049 12.589 13.819
1147.742 14.899 16.209 18.819 21.719 24.319 27.559 31.059 34.099 36.199 37.079
1167.032 37.219 36.359 34.599 31.909 28.239 24.339 21.089 18.029 15.109 12.929
1186.322 11.479 10.229 8.909 7.639 6.239 5.679 5.409 4.689 4.439 3.979
1205.611 3.149 3.159 3.639 4.139 4.429 4.289 4.089 3.929 4.399 4.719
1224.901 4.689 4.789 4.289 3.819 3.599 3.549 3.579 3.459 3.479 3.489
1244.191 3.159 2.749 3.059 3.459 3.439 3.639 3.969 4.019 3.909 4.289
1263.481 4.709 4.709 4.579 4.799 5.039 5.199 5.499 5.669 5.809 6.019
1282.771 6.299 6.539 6.759 7.119 7.419 7.679 8.159 8.679 9.319 10.059
1302.060 10.769 11.499 12.289 13.099 13.739 14.289 14.899 15.439 15.759 15.909
1321.350 16.009 16.019 15.919 15.799 15.549 15.209 14.789 14.209 13.539 12.769
1340.640 11.919 11.029 10.099 9.179 8.379 7.669 7.039 6.569 6.129 5.799
1359.930 5.559 5.279 5.109 5.099 5.129 5.109 5.039 5.049 5.119 5.229
1379.219 5.429 5.679 5.989 6.339 6.729 7.269 7.809 8.319 8.799 9.119
1398.509 9.369 9.499 9.509 9.419 9.159 8.789 8.399 7.899 7.299 6.799
1417.799 6.249 5.689 5.219 4.919 4.629 4.279 4.019 3.809 3.669 3.539
1437.089 3.449 3.319 3.209 3.229 3.399 3.699 4.019 4.449 5.119 6.019
1456.378 7.019 8.219 9.529 10.719 11.879 12.739 13.149 13.189 12.769 12.039
1475.668 11.099 9.949 8.739 7.629 6.749 5.949 5.149 4.549 3.999 3.429
1494.958 2.959 2.609 2.359 2.149 1.999 1.909 1.749 1.559 1.519 1.459
1514.248 1.349 1.289 1.229 1.1564 1.1688 1.219 1.189 1.1344 1.1545 1.1472
1533.538 1.076 1.0609 1.1172 1.1636 1.199 1.229 1.279 1.359 1.429 1.559
1552.827 1.649 1.789 1.999 2.089 2.289 2.589 2.779 2.909 2.959 2.959
1572.117 2.929 2.919 2.949 2.669 2.399 2.249 2.079 1.909 1.839 1.939
1591.407 1.929 1.989 2.039 1.909 1.899 1.909 1.779 1.699 1.669 1.649
1610.697 1.549 1.419 1.459 1.559 1.509 1.479 1.529 1.589 1.619 1.499
1629.986 1.389 1.319 1.209 1.1605 0.9985 0.8478 0.8382 0.801 0.7681 0.6985
1649.276 0.622 0.6552 0.6847 0.6745 0.6432 0.6651 0.7045 0.7622 0.8147 0.7964
1668.566 0.8427 0.897 0.8589 0.8195 0.8748 0.9426 0.947 1.0367 1.1409 1.152
1687.856 1.269 1.389 1.489 1.539 1.649 1.829 1.949 2.139 2.369 2.559
1707.146 2.849 3.259 3.739 4.249 4.799 5.499 6.299 7.159 8.109 9.169
1726.435 10.329 11.549 12.749 13.919 15.129 16.529 18.139 19.929 22.099 24.739
1745.725 27.709 31.039 34.529 38.139 41.599 44.979 48.609 52.289 55.839 58.869
1765.015 61.029 62.129 61.919 60.749 58.409 54.739 50.289 44.619 38.129 32.709
1784.305 29.039 26.549 24.729 23.109 21.349 19.449 17.439 15.409 13.449 11.579
1803.594 9.879 8.399 7.179 6.229 5.379 4.549 3.979 3.509 3.119 2.739
1822.884 2.399 2.179 1.929 1.739 1.639 1.529 1.389 1.289 1.219 1.1616
1842.174 1.1373 1.0768 1.0403 1.0466 1.019 0.97 0.8714 0.8335 0.9128 0.8832
1861.464 0.8459 0.8388 0.7903 0.6894 0.6414 0.6808 0.6762 0.6786 0.7072 0.7384
1880.754 0.7358 0.7241 0.7954 0.8065 0.7711 0.7978 0.8208 0.8587 0.9078 0.9289
1900.043 0.9149 0.9092 0.9143 0.9742 0.9942 0.9357 0.8706 0.793 0.7366 0.687
1919.333 0.6201 0.5189 0.4396 0.4144 0.407 0.3958 0.387 0.3611 0.3579 0.3884
1938.623 0.3536 0.3287 0.3587 0.3333 0.2617 0.24734 0.3053 0.282 0.18496 0.20713
1957.913 0.19022 0.18676 0.25466 0.24305 0.25379 0.2757 0.25877 0.2943 0.3491 0.2925
1977.202 0.22973 0.24948 0.3002 0.2741 0.2742 0.3403 0.3275 0.2811 0.2903 0.3143
1996.492 0.3273 0.3637 0.356 0.333 0.2956 0.2727 0.2862 0.23731 0.2405 0.3009
2015.782 0.22553 0.1527 0.19441 0.2788 0.305 0.3275 0.3055 0.23051 0.3112 0.3968
2035.072 0.31 0.2726 0.3354 0.3554 0.3616 0.332 0.281 0.3147 0.3584 0.3021
2054.362 0.3122 0.3439 0.3389 0.3449 0.3781 0.3891 0.333 0.2969 0.21157 0.21642
2073.651 0.2708 0.22014 0.233 0.20002 0.1289 0.1505 0.19316 0.18017 0.1898 0.20451
2092.941 0.19199 0.19154 0.170372 0.19478 0.22479 0.19846 0.23178 0.3019 0.3044 0.2738
2112.231 0.2857 0.3009 0.3 0.2786 0.25641 0.25774 0.2729 0.26201 0.25918 0.354
2131.521 0.3398 0.2785 0.2699 0.282 0.3031 0.2787 0.2751 0.2784 0.2935 0.23521
2150.810 0.175207 0.22598 0.2879 0.3586 0.3401 0.25197 0.26593 0.4293 0.4558 0.2935
2170.100 0.3501 0.4694 0.4805 0.479 0.429 0.3913 0.3446 0.4119 0.4387 0.3599
2189.390 0.27 0.20628 0.2978 0.3257 0.3349 0.3193 0.25228 0.2738 0.3551 0.4054
2208.680 0.2752 0.19443 0.24712 0.3476 0.3856 0.3526 0.3608 0.293 0.26136 0.3217
2227.970 0.3378 0.2985 0.3696 0.4621 0.4443 0.362 0.2953 0.3011 0.347 0.3585
2247.259 0.3445 0.3338 0.3206 0.332 0.362 0.3369 0.3073 0.3818 0.369 0.26413
2266.549 0.3135 0.3802 0.3783 0.3775 0.3373 0.3605 0.3929 0.3613 0.3806 0.397
2285.839 0.379 0.3986 0.3991 0.3587 0.3463 0.3673 0.389 0.3376 0.273 0.2811
2305.129 0.2742 0.21932 0.25944 0.2852 0.2661 0.2906 0.3048 0.2809 0.2711 0.2944
2324.418 0.2924 0.3117 0.2708 0.2819 0.3373 0.3134 0.3079 0.282 0.2584 0.2983
2343.708 0.3116 0.3668 0.3865 0.3267 0.2892 0.3145 0.3577 0.3403 0.3834 0.3733
2362.998 0.3104 0.3299 0.3193 0.3848 0.4784 0.441 0.3882 0.3833 0.3663 0.3631
2382.288 0.3388 0.3391 0.4185 0.4767 0.4087 0.3773 0.4204 0.4284 0.4539 0.4161
2401.578 0.3924 0.4259 0.4707 0.4641 0.4235 0.4513 0.4892 0.4476 0.4161 0.4042
2420.867 0.3762 0.3628 0.3808 0.4594 0.4255 0.3805 0.4419 0.3984 0.3628 0.399
2440.157 0.4206 0.415 0.3774 0.382 0.3889 0.3951 0.3956 0.3988 0.4242 0.4117
2459.447 0.3698 0.3404 0.4156 0.4609 0.3763 0.4248 0.4574 0.4258 0.4826 0.4849
2478.737 0.4643 0.4703 0.3982 0.369 0.3878 0.3193 0.2719 0.2837 0.3645 0.3648
2498.026 0.2951 0.2802 0.2458 0.2722 0.3141 0.3169 0.4178 0.3908 0.34 0.4229
2517.316 0.4535 0.4651 0.4122 0.4027 0.4048 0.3718 0.3894 0.3982 0.3626 0.3281
2536.606 0.3791 0.381 0.3422 0.3498 0.3468 0.3361 0.3763 0.4102 0.3944 0.444
2555.896 0.4122 0.3466 0.3083 0.3314 0.3889 0.3175 0.3235 0.4246 0.4421 0.3645
2575.186 0.2921 0.24225 0.22604 0.22442 0.24552 0.3547 0.3856 0.3726 0.3908 0.3428
2594.475 0.3739 0.4035 0.4265 0.4726 0.4642 0.4956 0.5692 0.5169 0.4969 0.4666
2613.765 0.3568 0.4053 0.4815 0.4399 0.419 0.4803 0.4489 0.3332 0.3044 0.343
2633.055 0.3747 0.4384 0.4824 0.4703 0.4666 0.449 0.3735 0.4393 0.5717 0.4682
2652.345 0.3537 0.4455 0.3731 0.2546 0.2918 0.25023 0.2824 0.3287 0.3686 0.3153
2671.634 0.22788 0.2947 0.3433 0.3192 0.3123 0.297 0.26782 0.3589 0.3351 0.23208
2690.924 0.3108 0.3648 0.3309 0.3287 0.3061 0.2884 0.3133 0.2901 0.3055 0.3482
2710.214 0.26671 0.26616 0.2701 0.3307 0.3827 0.3728 0.4012 0.3057 0.22569 0.24202
2729.504 0.4111 0.4993 0.4989 0.6453 0.5948 0.4241 0.3905 0.4604 0.5334 0.5908
2748.794 0.6251 0.6568 0.6356 0.5151 0.4728 0.4115 0.3745 0.3924 0.5285 0.535
2768.083 0.456 0.4963 0.3959 0.315 0.3779 0.4695 0.4286 0.3878 0.3773 0.4274
2787.373 0.4134 0.3559 0.4455 0.3803 0.3714 0.4524 0.3513 0.2768 0.26039 0.2817
2806.663 0.472 0.5847 0.5223 0.355 0.3535 0.4794 0.5035 0.4645 0.4751 0.5236
2825.953 0.472 0.5511 0.676 0.7032 0.704 0.681 0.7372 0.8246 0.9391 0.878
2845.242 0.7283 0.8767 0.9747 1.1007 1.189 1.249 1.529 1.589 1.559 1.739
2864.532 1.889 2.079 2.259 2.359 2.439 2.519 2.659 2.849 3.039 2.929
2883.822 2.749 2.669 2.679 2.759 2.729 2.709 2.819 2.739 2.509 2.519
2903.112 2.549 2.549 2.559 2.689 2.659 2.549 2.689 2.999 3.269 3.389
2922.401 3.689 4.119 4.689 5.339 5.869 6.209 6.359 6.509 6.459 6.149
2941.691 5.899 5.569 5.059 4.489 3.839 3.409 3.119 2.799 2.579 2.429
2960.981 2.299 2.199 2.159 2.149 2.009 1.809 1.689 1.609 1.609 1.629
2980.271 1.609 1.639 1.649 1.699 1.849 1.839 1.919 2.139 2.269 2.379
2999.561 2.439 2.469 2.459 2.579 2.629 2.619 2.659 2.619 2.729 2.789
3018.850 2.749 2.729 2.699 2.969 3.339 3.379 3.389 3.679 3.879 3.929
3038.140 3.969 3.949 3.899 3.759 3.669 3.699 3.689 3.529 3.519 3.509
3057.430 3.229 3.079 2.959 2.739 2.499 2.279 2.179 2.029 1.869 1.769
3076.720 1.649 1.499 1.409 1.449 1.469 1.349 1.329 1.269 1.189 1.239
3096.009 1.249 1.1564 1.1161 1.0414 0.8341 0.7934 0.7359 0.687 0.6345 0.5374
3115.299 0.6229 0.5614 0.4106 0.4872 0.611 0.5986 0.6156 0.5047 0.5064 0.6522
3134.589 0.5148 0.3062 0.2883 0.3577 0.3732 0.4017 0.399 0.3615 0.2823 0.2985
3153.879 0.4125 0.3961 0.3886 0.3506 0.19478 0.23167 0.311 0.3268 0.4902 0.5996
3173.169 0.4729 0.3458 0.4213 0.5085 0.4919 0.3535 0.21345 0.3019 0.3115 0.2915
3192.458 0.22922 0.042 0.055 0.142 0.1154 0.1396 0.20929 0.25132 0.2894 0.338
3211.748 0.343 0.312 0.2873 0.2695 0.2786 0.2788 0.3371 0.3162 0.1255 0.1221
3231.038 0.0896 0.011 0.1285 0.25669 0.23405 0.171618 0.26219 0.2271 0.1014 0.1579
3250.328 0.3076 0.3001 0.2842 0.3947 0.3327 0.23742 0.2958 0.23451 0.2191 0.24285
3269.617 0.23163 0.21231 0.18521 0.27 0.3523 0.4146 0.4226 0.459 0.3598 0.2849
3288.907 0.2901 0.1392 0.0935 0.18147 0.25016 0.22904 0.049 0.075 0.2855 0.2736
3308.197 0.21667 0.3763 0.3963 0.1102 0.0748 0.1571 0.177663 0.176154 0.16797 0.1188
3327.487 0.1215 0.1833 0.18108 0.23082 0.20104 0.1042 0.0721 0.1358 0.26053 0.431
3346.777 0.3419 0.16035 0.2922 0.3931 0.3155 0.21053 0.168975 0.21846 0.21441 0.062
3366.066 0 0.064 0.033 0.1163 0.18226 0.18385 0.2971 0.23675 0.1254 0.23065
3385.356 0.3794 0.3378 0.25653 0.26129 0.20983 0.16224 0.2725 0.22838 0.1345 0.1461
3404.646 0.1979 0.23751 0.1269 0.1587 0.2884 0.3318 0.25402 0.21903 0.24978 0.169572
3423.936 0.19834 0.2127 0.2822 0.4614 0.4374 0.26479 0.1476 0.3393 0.4344 0.3432
3443.225 0.305 0.17733 0.1587 0.26783 0.2959 0.3627 0.4183 0.4136 0.4656 0.5372
3462.515 0.4042 0.3321 0.6232 0.6973 0.6684 0.7869 0.7762 0.8831 1.0667 1.0466
3481.805 1.0049 1.149 1.1265 1.1067 1.329 1.509 1.389 1.319 1.439 1.409
3501.095 1.369 1.379 1.469 1.489 1.639 1.749 1.629 1.569 1.619 1.689
3520.385 1.709 1.759 1.849 1.719 1.619 1.719 1.779 1.809 1.869 1.919
3539.674 1.999 2.089 2.039 2.189 2.589 3.049 3.579 4.469 6.059 8.259
3558.964 11.309 15.369 19.459 22.559 24.539 25.999 27.389 27.819 26.599 23.789
3578.254 20.029 16.489 13.659 11.319 9.019 6.849 5.149 3.789 2.889 2.209
3597.544 1.799 1.519 1.289 1.229 1.259 1.249 1.1387 1.0767 1.1393 1.259
3616.833 1.0888 0.8092 0.6461 0.588 0.4501 0.4477 0.5546 0.4843 0.5132 0.4844
3636.123 0.39 0.2908 0.3139 0.4468 0.4615 0.5646 0.5351 0.4468 0.4296 0.3414
3655.413 0.2227 0.20959 0.2204 0.2412 0.21799 0.2798 0.3284 0.3133 0.33 0.2974
3674.703 0.3201 0.3327 0.24542 0.3474 0.4289 0.3314 0.3618 0.3594 0.453 0.4515
3693.993 0.2929 0.19075 0.1242 0.012 0.1333 0.4135 0.4336 0.3907 0.3156 0.4113
3713.282 0.4723 0.389 0.4268 0.4265 0.4093 0.2891 0.2908 0.397 0.3896 0.4522
3732.572 0.5239 0.3321 0.20542 0.122 0.0802 0.3175 0.5225 0.5057 0.3814 0.347
3751.862 0.3769 0.26513 0.1337 0.019 0.169005 0.3018 0.2901 0.3656 0.299 0.312
3771.152 0.25295 0.22056 0.2932 0.24745 0.21875 0.20884 0.2834 0.3437 0.5846 0.8258
3790.441 0.5129 0.381 0.25517 0.20039 0.4683 0.425 0.24681 0.16082 0.26658 0.3182
3809.731 0.2692 0.24665 0.23468 0.23142 0.25514 0.24411 0.0812 0.23646 0.4637 0.3602
3829.021 0.4402 0.5193 0.4128 0.3957 0.4437 0.4623 0.25603 0.1017 0.078 0.20273
3848.311 0.3901 0.3297 0.4214 0.4424 0.3307 0.372 0.3636 0.4352 0.5428 0.5102
3867.601 0.3725 0.24079 0.1452 0.169205 0.24058 0.2838 0.2885 0.3385 0.3497 0.26256
3886.890 0.4298 0.4494 0.297 0.3791 0.3894 0.3532 0.3078 0.3074 0.3984 0.2919
3906.180 0.25983 0.3503 0.4006 0.5123 0.5321 0.3727 0.3995 0.529 0.4276 0.3915
3925.470 0.3532 0.289 0.326 0.383 0.3979 0.36 0.2784 0.3353 0.4469 0.2055
3944.760 0.19507 0.378 0.2821 0.21803 0.21547 0.3462 0.3754 0.26344 0.2766 0.327
3964.049 0.4148 0.4064 0.3645 0.326 0.3059 0.3216 0.295 0.3458 0.3676 0.3334
3983.339 0.3898 0.4392 0.3949 0.3735 0.3463 0.22704 0.3616 0.4406 0.2987 0.4522
##END=
