##TITLE=3-Methylnorcamphene-2-methanol
##JCAMP-DX=4.24
##DATA TYPE=INFRARED SPECTRUM
##ORIGIN=EPA-IR VAPOR PHASE LIBRARY
##OWNER=SRD/NIST
Collection (C) 2018 copyright by the U.S. Secretary of Commerce
on behalf of the United States of America. All rights reserved.
##CAS REGISTRY NO=6968-75-8
##MOLFORM=C 9 H 16 O
##$NIST SOURCE=MSDC-IR
##STATE=gas
##XUNITS=1/CM
##YUNITS=ABSORBANCE
##XFACTOR=1.
##YFACTOR=0.001
##DELTAX=1.929
##FIRSTX=549.8
##LASTX=4000.8
##FIRSTY=0.896
##MAXX=4000.75
##MINX=549.766
##MAXY=0.102176
##MINY=0
##NPOINTS=1790
##XYDATA=(X++(Y..Y))
549.766 0.896 0.71641 0.717 0.7854 0.7519 0.8584 0.8615 0.72141 0.5768 0.73179
569.056 0.8487 0.8594 0.70779 0.6141 0.67773 0.5786 0.453 0.405 0.498 0.5869
588.346 0.5844 0.502 0.427 0.485 0.504 0.5469 0.652655 0.65734 0.5645 0.471
607.636 0.553 0.6167 0.73222 0.8534 0.827 0.7731 0.69793 0.69124 0.8258 0.8724
626.926 0.7358 0.7891 0.9412 0.8582 0.8384 0.9662 0.8537 0.8165 0.8651 0.7964
646.216 0.7567 0.8158 0.8083 0.68736 0.6384 0.72907 0.69381 0.5744 0.69911 0.8137
665.506 0.73946 0.68005 0.7595 0.66143 0.67556 0.7242 0.68721 0.68517 0.67434 0.73232
684.796 0.646133 0.64369 0.65697 0.6358 0.64034 0.72514 0.8577 0.8448 0.74424 0.6231
704.086 0.69972 0.7772 0.763 0.72992 0.6092 0.6086 0.63782 0.63877 0.651441 0.7842
723.376 0.9305 0.9083 0.8807 0.9343 1.0072 1.1898 1.2957 1.2434 1.2784 1.3746
742.666 1.4071 1.399 1.5282 1.5268 1.37 1.3852 1.3879 1.245 1.0362 1.0242
761.956 1.0505 0.958 0.8905 0.8813 0.9643 0.9532 0.8392 0.826 1.0168 1.0181
781.246 0.9276 1.0035 0.9795 1.0111 1.0102 0.9636 1.0799 1.1405 1.2037 1.158
800.536 1.156 1.2956 1.4311 1.3869 1.3497 1.4179 1.1635 0.8762 0.8748 1.115
819.826 1.2441 1.2282 1.3499 1.4574 1.4436 1.5041 1.6325 1.5439 1.4514 1.5558
839.116 1.6329 1.6061 1.533 1.4912 1.3801 1.3581 1.3872 1.3159 1.261 1.2132
858.406 1.2032 1.216 1.207 1.2259 1.29 1.336 1.4221 1.5258 1.5868 1.656
877.696 1.726 1.766 1.796 1.746 1.706 1.736 1.806 1.836 1.886 1.946
896.986 2.026 1.996 1.906 1.956 1.996 2.006 2.036 1.936 1.916 1.966
916.276 1.896 1.936 1.986 2.016 2.096 2.046 2.016 2.116 2.226 2.166
935.566 2.156 2.236 2.326 2.506 2.746 2.926 3.086 3.226 3.336 3.516
954.856 3.706 3.856 4.026 4.386 4.816 5.076 5.306 5.576 5.936 6.296
974.146 6.626 7.076 7.606 8.186 8.796 9.466 10.196 10.736 11.066 11.336
993.436 11.496 11.526 11.336 11.026 10.746 10.316 9.816 9.346 8.906 8.586
1012.726 8.496 8.596 8.886 9.316 9.866 10.616 11.496 12.426 13.546 14.866
1032.016 16.226 17.486 18.566 19.516 20.376 20.996 21.186 20.946 20.376 19.416
1051.306 18.136 16.586 14.936 13.326 11.776 10.386 9.156 8.046 7.026 6.106
1070.596 5.336 4.806 4.406 4.056 3.806 3.636 3.616 3.786 4.076 4.396
1089.886 4.776 5.186 5.626 5.966 6.316 6.616 6.696 6.726 6.746 6.426
1109.176 5.976 5.606 5.206 4.796 4.416 4.056 3.716 3.476 3.396 3.296
1128.467 3.156 3.116 3.086 3.056 3.076 3.176 3.246 3.266 3.336 3.416
1147.757 3.426 3.336 3.256 3.226 3.286 3.336 3.376 3.436 3.396 3.346
1167.047 3.406 3.446 3.376 3.346 3.346 3.356 3.386 3.436 3.496 3.426
1186.337 3.346 3.416 3.456 3.386 3.306 3.276 3.306 3.316 3.386 3.456
1205.627 3.526 3.506 3.346 3.346 3.566 3.546 3.326 3.346 3.386 3.486
1224.917 3.586 3.626 3.706 3.796 3.776 3.716 3.786 3.876 3.986 4.086
1244.207 4.106 4.106 4.116 4.166 4.106 4.016 4.066 4.056 3.956 3.806
1263.497 3.696 3.696 3.596 3.476 3.416 3.416 3.476 3.526 3.476 3.456
1282.787 3.486 3.456 3.416 3.436 3.476 3.486 3.486 3.506 3.506 3.426
1302.077 3.406 3.406 3.296 3.186 3.126 3.096 3.086 3.046 3.036 3.066
1321.367 3.096 3.166 3.176 3.186 3.276 3.396 3.486 3.546 3.626 3.716
1340.657 3.746 3.786 3.846 3.926 3.986 4.016 4.056 4.116 4.196 4.336
1359.947 4.496 4.586 4.776 5.106 5.486 5.806 6.146 6.476 6.766 7.046
1379.237 7.206 7.246 7.166 6.936 6.546 6.156 5.766 5.276 4.766 4.326
1398.527 3.946 3.586 3.296 3.076 2.886 2.686 2.576 2.456 2.366 2.276
1417.817 2.176 2.156 2.096 2.046 2.086 2.106 2.126 2.236 2.426 2.566
1437.107 2.776 3.096 3.446 3.856 4.176 4.486 4.936 5.426 5.876 6.166
1456.397 6.376 6.686 6.956 7.116 7.196 7.246 7.236 7.216 7.096 6.816
1475.687 6.516 6.176 5.796 5.336 4.796 4.286 3.826 3.346 2.946 2.636
1494.977 2.296 2.006 1.776 1.5629 1.4246 1.2542 1.1341 1.0729 1.0612 1.064
1514.267 1.0122 0.9411 0.9311 0.9275 0.9046 0.8531 0.8456 0.859 0.8234 0.8091
1533.557 0.7854 0.7667 0.71779 0.66952 0.6663 0.6827 0.73611 0.8134 0.8106 0.7856
1552.847 0.73482 0.71644 0.72798 0.6073 0.64343 0.73949 0.74412 0.7675 0.7495 0.72342
1572.137 0.71065 0.68984 0.67897 0.69757 0.69563 0.67286 0.648345 0.64076 0.6796 0.68369
1591.427 0.63985 0.655974 0.72551 0.7482 0.7659 0.71385 0.6083 0.64229 0.6886 0.67632
1610.717 0.7004 0.68659 0.603 0.604 0.69587 0.68784 0.6101 0.6223 0.6797 0.70882
1630.007 0.70331 0.68385 0.6392 0.6295 0.66478 0.69316 0.655138 0.5984 0.6153 0.647483
1649.297 0.6341 0.529 0.478 0.5589 0.6221 0.6356 0.63866 0.6235 0.6024 0.5718
1668.587 0.5936 0.63876 0.6158 0.5617 0.5994 0.6142 0.6163 0.5627 0.438 0.52
1687.877 0.5857 0.5735 0.5642 0.544 0.482 0.467 0.436 0.481 0.5508 0.529
1707.167 0.5912 0.6053 0.5527 0.529 0.495 0.472 0.503 0.508 0.522 0.5608
1726.457 0.5602 0.51 0.494 0.503 0.455 0.517 0.5721 0.501 0.461 0.47
1745.747 0.517 0.5467 0.503 0.478 0.514 0.535 0.549 0.5497 0.5587 0.5646
1765.037 0.538 0.466 0.448 0.504 0.52 0.5542 0.5859 0.5723 0.541 0.527
1784.327 0.481 0.479 0.49 0.456 0.474 0.506 0.511 0.519 0.53 0.5531
1803.617 0.5709 0.521 0.537 0.5494 0.497 0.522 0.533 0.525 0.5504 0.541
1822.907 0.5 0.499 0.508 0.485 0.526 0.5564 0.5815 0.6017 0.5495 0.522
1842.197 0.513 0.514 0.482 0.469 0.503 0.516 0.51 0.497 0.496 0.498
1861.487 0.465 0.468 0.505 0.481 0.481 0.504 0.499 0.483 0.515 0.542
1880.777 0.517 0.486 0.46 0.471 0.487 0.521 0.5516 0.49 0.492 0.529
1900.067 0.5496 0.5514 0.54 0.536 0.487 0.472 0.476 0.497 0.502 0.472
1919.357 0.489 0.512 0.489 0.485 0.513 0.528 0.528 0.5618 0.54 0.533
1938.647 0.5761 0.5661 0.543 0.538 0.509 0.498 0.5721 0.6136 0.5856 0.5677
1957.937 0.5557 0.5497 0.558 0.579 0.5652 0.5515 0.5762 0.5628 0.5626 0.5683
1977.227 0.5641 0.542 0.527 0.559 0.5936 0.5935 0.5614 0.5736 0.601 0.5953
1996.517 0.6131 0.6062 0.5871 0.5813 0.5724 0.5898 0.6352 0.69339 0.72575 0.69689
2015.807 0.66027 0.67736 0.6985 0.69912 0.69434 0.67802 0.69593 0.74224 0.73923 0.7368
2035.097 0.71798 0.6778 0.69778 0.6888 0.63652 0.64319 0.65806 0.64489 0.63699 0.654915
2054.387 0.66676 0.66923 0.646694 0.6242 0.626 0.6126 0.6225 0.6038 0.6059 0.6117
2073.677 0.64163 0.67534 0.67877 0.66797 0.652038 0.648532 0.645225 0.651046 0.6279 0.603
2092.967 0.6111 0.654589 0.6149 0.5501 0.5493 0.5496 0.5474 0.5511 0.567 0.5602
2112.257 0.545 0.5511 0.54 0.52 0.498 0.535 0.5809 0.5882 0.534 0.507
2131.547 0.533 0.517 0.5565 0.5793 0.5593 0.5747 0.5778 0.595 0.6332 0.6317
2150.837 0.5723 0.5704 0.622 0.6118 0.6326 0.645051 0.5587 0.534 0.5815 0.5955
2170.127 0.5705 0.5613 0.6074 0.66672 0.64085 0.5874 0.5952 0.6315 0.648742 0.573
2189.417 0.554 0.5966 0.5782 0.5734 0.5689 0.5634 0.5586 0.605 0.66673 0.654739
2208.707 0.6317 0.5826 0.6243 0.66336 0.579 0.518 0.521 0.537 0.5991 0.6011
2227.997 0.5676 0.5636 0.5708 0.5966 0.5992 0.6317 0.6143 0.5698 0.5885 0.6168
2247.287 0.6314 0.615 0.6183 0.6132 0.6114 0.6124 0.557 0.5639 0.587 0.6085
2266.577 0.6031 0.5934 0.5926 0.6123 0.66 0.6168 0.5922 0.5721 0.5513 0.528
2285.868 0.508 0.5884 0.6203 0.6144 0.6113 0.542 0.511 0.5678 0.6013 0.536
2305.158 0.524 0.5906 0.5558 0.515 0.529 0.539 0.555 0.5733 0.542 0.529
2324.448 0.5699 0.5855 0.524 0.478 0.47 0.476 0.517 0.499 0.445 0.491
2343.738 0.54 0.535 0.515 0.499 0.509 0.522 0.504 0.511 0.496 0.485
2363.028 0.45 0.377 0.431 0.487 0.517 0.5713 0.6159 0.53 0.508 0.5546
2382.318 0.517 0.531 0.5467 0.5552 0.565 0.5636 0.5762 0.537 0.52 0.516
2401.608 0.5813 0.6343 0.5707 0.5861 0.6218 0.5926 0.5985 0.6366 0.6087 0.5984
2420.898 0.5737 0.5869 0.64321 0.6351 0.6247 0.593 0.6067 0.67242 0.6159 0.5601
2440.188 0.6021 0.5835 0.5924 0.6138 0.5897 0.5888 0.6009 0.5914 0.5481 0.555
2459.478 0.5649 0.528 0.463 0.543 0.6244 0.6086 0.5997 0.5656 0.507 0.507
2478.768 0.577 0.5814 0.5573 0.5936 0.6236 0.5804 0.5536 0.5576 0.5691 0.6017
2498.058 0.5788 0.5629 0.534 0.493 0.5 0.511 0.5646 0.5628 0.532 0.516
2517.348 0.511 0.491 0.489 0.5 0.492 0.51 0.521 0.513 0.51 0.532
2536.638 0.538 0.53 0.535 0.513 0.502 0.535 0.5822 0.63735 0.6047 0.544
2555.928 0.5514 0.5935 0.6169 0.5606 0.546 0.5958 0.6113 0.6126 0.5994 0.5571
2575.218 0.544 0.5569 0.5771 0.5574 0.538 0.5783 0.6018 0.6223 0.6071 0.5947
2594.508 0.66384 0.66444 0.6277 0.70371 0.71011 0.66339 0.69547 0.73205 0.74082 0.72055
2613.798 0.7322 0.7575 0.71857 0.71265 0.74004 0.72628 0.74188 0.7755 0.82 0.8104
2633.088 0.7534 0.7679 0.7624 0.7492 0.7726 0.8148 0.7697 0.69196 0.71827 0.7616
2652.378 0.8195 0.8067 0.7744 0.767 0.7877 0.8321 0.8235 0.8143 0.7916 0.8128
2671.668 0.8503 0.8657 0.8705 0.9066 0.9589 0.922 0.874 0.9186 0.9995 0.9875
2690.958 0.9521 0.9696 0.959 0.9509 0.9896 1.0014 0.9782 1.0367 1.0771 1.0402
2710.248 1.0367 0.999 1.0445 1.1372 1.0982 1.0555 1.1601 1.1847 1.1337 1.2024
2729.538 1.2919 1.3112 1.2948 1.3409 1.3602 1.3405 1.4335 1.4738 1.4672 1.5204
2748.828 1.4835 1.4068 1.4383 1.4999 1.5551 1.592 1.5687 1.6257 1.676 1.686
2768.118 1.686 1.696 1.686 1.635 1.656 1.716 1.736 1.766 1.776 1.766
2787.408 1.766 1.816 1.866 1.816 1.866 1.956 1.986 1.996 1.996 1.976
2806.698 1.906 1.996 2.126 2.156 2.156 2.196 2.296 2.366 2.436 2.536
2825.988 2.616 2.796 2.996 3.186 3.376 3.496 3.806 4.136 4.366 4.806
2845.278 5.296 5.816 6.536 7.276 8.126 9.306 10.786 12.486 14.616 17.176
2864.568 20.016 23.056 26.176 29.326 32.616 35.806 38.506 40.766 42.306 42.926
2883.858 42.786 42.036 40.706 38.916 37.066 35.306 33.526 31.896 30.456 29.266
2903.148 28.526 28.216 28.156 28.196 28.376 28.646 28.876 29.226 29.726 30.176
2922.438 30.736 31.506 32.596 34.076 35.926 38.256 41.226 45.106 49.866 55.186
2941.728 61.056 67.436 74.346 81.766 89.136 95.416 99.846 102.176 102.116 99.796
2961.018 95.966 91.406 85.916 78.996 70.656 61.256 51.816 43.066 35.536 29.406
2980.308 24.356 20.036 16.266 13.126 10.596 8.526 6.846 5.626 4.736 4.076
2999.598 3.546 3.196 2.826 2.436 2.246 2.036 1.886 1.796 1.666 1.5689
3018.888 1.5148 1.4585 1.2689 1.2041 1.3106 1.3713 1.3632 1.3129 1.3581 1.4188
3038.178 1.3651 1.2453 1.1764 1.1814 1.1638 1.0307 1.0258 1.0787 1.1171 1.1473
3057.468 1.0538 0.9922 0.903 0.909 0.9272 0.8823 0.9278 0.8886 0.8818 0.8978
3076.758 0.7603 0.5972 0.5815 0.71127 0.71859 0.65857 0.64343 0.5826 0.65616 0.7799
3096.048 0.7749 0.72957 0.68253 0.6074 0.6201 0.74067 0.71394 0.69617 0.7914 0.73053
3115.338 0.5713 0.5763 0.6559 0.6237 0.6023 0.653823 0.69192 0.67508 0.68541 0.69943
3134.628 0.69136 0.67554 0.6072 0.507 0.5766 0.66103 0.5511 0.531 0.527 0.556
3153.918 0.5674 0.516 0.531 0.5878 0.65991 0.69263 0.6857 0.65721 0.66971 0.6037
3173.208 0.531 0.493 0.473 0.356 0.279 0.46 0.469 0.477 0.492 0.312
3192.498 0.354 0.452 0.381 0.304 0.359 0.464 0.439 0.368 0.319 0.314
3211.788 0.322 0.329 0.331 0.321 0.318 0.334 0.399 0.348 0.303 0.397
3231.078 0.331 0.187 0.224 0.162 0.243 0.386 0.302 0.272 0.268 0.296
3250.368 0.375 0.409 0.354 0.307 0.268 0.222 0.229 0.258 0.181 0.15
3269.658 0.256 0.271 0.217 0.261 0.255 0.258 0.273 0.367 0.394 0.217
3288.948 0.164 0.198 0.135 0.063 0.051 0.105 0.21 0.266 0.223 0.266
3308.238 0.218 0.097 0.176 0.149 0.114 0.052 0 0.09 0.191 0.243
3327.528 0.213 0.223 0.255 0.265 0.195 0.113 0.136 0.157 0.131 0.218
3346.818 0.239 0.181 0.084 0.104 0.219 0.234 0.208 0.067 0.065 0.195
3366.108 0.289 0.334 0.251 0.194 0.202 0.169 0.151 0.232 0.321 0.358
3385.398 0.341 0.251 0.263 0.363 0.327 0.282 0.323 0.266 0.159 0.159
3404.688 0.203 0.273 0.439 0.5542 0.535 0.487 0.5794 0.543 0.426 0.486
3423.978 0.381 0.266 0.404 0.461 0.364 0.297 0.419 0.466 0.487 0.471
3443.269 0.466 0.476 0.365 0.402 0.342 0.315 0.446 0.493 0.493 0.437
3462.559 0.3 0.307 0.353 0.366 0.426 0.5557 0.527 0.437 0.442 0.473
3481.849 0.539 0.5538 0.513 0.497 0.48 0.414 0.441 0.523 0.536 0.439
3501.139 0.372 0.399 0.338 0.235 0.302 0.338 0.297 0.346 0.31 0.263
3520.429 0.243 0.305 0.379 0.322 0.398 0.46 0.339 0.348 0.427 0.305
3539.719 0.276 0.338 0.39 0.374 0.363 0.345 0.366 0.386 0.304 0.308
3559.009 0.286 0.32 0.475 0.42 0.315 0.244 0.158 0.273 0.362 0.358
3578.299 0.193 0.201 0.301 0.286 0.395 0.387 0.303 0.355 0.33 0.259
3597.589 0.382 0.458 0.415 0.364 0.357 0.354 0.302 0.326 0.416 0.435
3616.879 0.438 0.455 0.403 0.415 0.5612 0.6309 0.6096 0.69773 0.8998 0.9067
3636.169 0.8168 1.0656 1.3503 1.5596 1.766 2.046 2.426 2.836 3.316 3.646
3655.459 3.946 4.196 4.526 4.886 5.126 5.246 5.106 4.936 4.686 4.426
3674.749 4.066 3.566 3.286 2.956 2.436 2.046 1.846 1.5048 1.2632 1.1899
3694.039 1.1047 0.9168 0.8151 0.7526 0.652258 0.69348 0.7661 0.72152 0.5603 0.509
3713.329 0.53 0.41 0.456 0.49 0.435 0.446 0.457 0.468 0.374 0.243
3732.619 0.2 0.271 0.344 0.416 0.409 0.345 0.346 0.462 0.41 0.281
3751.909 0.338 0.417 0.423 0.416 0.391 0.296 0.306 0.42 0.491 0.526
3771.199 0.468 0.312 0.233 0.288 0.355 0.312 0.316 0.453 0.393 0.302
3790.489 0.335 0.323 0.264 0.238 0.268 0.376 0.417 0.318 0.28 0.327
3809.779 0.35 0.352 0.402 0.44 0.391 0.333 0.37 0.381 0.411 0.482
3829.069 0.5825 0.482 0.327 0.36 0.272 0.205 0.258 0.264 0.352 0.428
3848.359 0.349 0.226 0.275 0.457 0.454 0.477 0.434 0.362 0.539 0.5553
3867.649 0.449 0.496 0.421 0.426 0.547 0.547 0.518 0.479 0.444 0.473
3886.939 0.499 0.396 0.262 0.272 0.412 0.45 0.371 0.319 0.243 0.201
3906.229 0.307 0.356 0.374 0.33 0.32 0.329 0.253 0.208 0.3 0.352
3925.519 0.215 0.256 0.314 0.334 0.381 0.284 0.117 0.193 0.301 0.38
3944.809 0.349 0.133 0.091 0.211 0.297 0.189 0.171 0.222 0.126 0.116
3964.099 0.113 0.105 0.18 0.287 0.356 0.303 0.131 0.083 0.078 0.009
3983.389 0.137 0.261 0.186 0.14 0.168 0.225 0.265 0.241 0.262 0.19
##END=
