##TITLE=2,6-Dibromo-4-methylaniline
##JCAMP-DX=4.24
##DATA TYPE=INFRARED SPECTRUM
##ORIGIN=EPA-IR VAPOR PHASE LIBRARY
##OWNER=SRD/NIST
Collection (C) 2018 copyright by the U.S. Secretary of Commerce
on behalf of the United States of America. All rights reserved.
##CAS REGISTRY NO=6968-24-7
##MOLFORM=C 7 H 7 Br 2 N
##$NIST SOURCE=MSDC-IR
##STATE=gas
##XUNITS=1/CM
##YUNITS=ABSORBANCE
##XFACTOR=1.
##YFACTOR=0.001
##DELTAX=1.92934
##FIRSTX=549.9
##LASTX=3999.5
##FIRSTY=6.48
##MAXX=3999.53
##MINX=549.863
##MAXY=0.0974
##MINY=0
##NPOINTS=1789
##XYDATA=(X++(Y..Y))
549.863 6.48 6.86 7.19 7.68 8.39 8.71 7.95 7 6.41 5.95
569.156 5.51 5.06 4.72 4.57 4.42 4.31 4.33 4.31 4.21 4.29
588.450 4.3 4.25 4.32 4.49 4.73 4.76 4.76 4.88 4.95 4.95
607.743 5.1 5.26 5.3 5.45 5.67 5.78 5.86 5.95 6.07 6.28
627.037 6.42 6.56 6.8 7.11 7.37 7.67 7.93 8.13 8.42 8.59
646.330 8.7 8.89 8.97 9.21 9.57 9.84 10.09 10.21 10.42 10.61
665.624 10.74 10.84 10.82 10.92 11.06 11.06 11.13 11.28 11.36 11.47
684.917 11.67 11.97 12.35 12.78 13.22 13.79 14.43 14.94 15.36 15.75
704.210 15.97 15.93 15.45 14.75 14.26 13.99 14.02 14.49 15.69 17.92
723.504 21.58 27.15 34.67 43.55 52.25 59.13 63.28 64.09 60.9 53.49
742.797 43.47 34.23 27.92 24.05 21.57 19.85 18.49 17.42 16.53 15.79
762.091 15.1 14.43 13.86 13.3 12.69 12.06 11.41 10.73 10.08 9.37
781.384 8.61 7.92 7.3 6.83 6.48 6.2 6.06 5.95 5.82 5.67
800.678 5.58 5.54 5.49 5.49 5.46 5.49 5.47 5.38 5.43 5.48
819.971 5.45 5.36 5.28 5.23 5.18 5.2 5.41 5.86 6.67 7.95
839.264 9.79 12.14 14.63 17.13 19.92 23.02 25.12 23.22 18.8 15.7
858.558 13.42 11.01 8.67 6.81 5.61 4.82 4.38 4.19 4.1 4.07
877.851 4.12 4.31 4.61 4.98 5.55 6.32 7.16 7.92 8.5 8.84
897.145 8.94 8.81 8.38 7.61 6.65 5.83 5.24 4.79 4.5 4.38
916.438 4.25 4.17 4.11 3.98 3.88 3.81 3.74 3.71 3.69 3.64
935.732 3.62 3.65 3.66 3.63 3.61 3.68 3.73 3.76 3.79 3.89
955.025 4.06 4.25 4.42 4.6 4.78 5 5.19 5.34 5.51 5.67
974.318 5.9 6.19 6.63 7.14 7.68 8.18 8.66 9.07 9.38 9.53
993.612 9.47 9.22 8.8 8.27 7.63 6.91 6.2 5.55 4.97 4.49
1012.905 4.18 4.02 3.99 4 4.08 4.27 4.48 4.73 5.03 5.42
1032.199 5.95 6.5 7.18 7.97 8.86 9.75 10.63 11.54 12.42 13.29
1051.492 14.16 14.92 15.38 15.49 15.32 14.95 14.55 13.9 12.95 12.05
1070.786 11.45 11.15 11.18 11.49 12 12.7 13.61 14.69 15.83 16.99
1090.079 18.1 19.06 19.73 19.96 19.66 18.8 17.45 15.71 13.69 11.61
1109.372 9.73 8.13 6.87 5.87 5.08 4.51 4.05 3.69 3.41 3.19
1128.666 3.03 2.89 2.69 2.56 2.51 2.43 2.3624 2.2827 2.2249 2.2034
1147.959 2.1475 2.1272 2.1085 2.0708 2.0872 2.1169 2.1276 2.1351 2.1786 2.201
1167.253 2.2464 2.3717 2.49 2.63 2.79 2.91 3.04 3.16 3.26 3.37
1186.546 3.44 3.58 3.73 3.91 4.18 4.59 5.2 6.02 7.04 8.3
1205.840 9.69 10.93 11.85 12.2 12.11 11.85 11.33 10.48 9.66 9.28
1225.133 9.5 10.08 10.68 11.06 11.06 10.6 9.68 8.5 7.18 5.85
1244.426 4.77 3.98 3.43 3.21 3.13 3.06 3.11 3.18 3.26 3.48
1263.720 3.76 4.12 4.65 5.38 6.41 7.82 9.65 11.86 14.42 17.08
1283.013 19.44 21.16 22.01 21.91 20.84 18.83 16.1 12.96 9.86 7.31
1302.307 5.55 4.41 3.68 3.21 2.87 2.6 2.41 2.2932 2.2004 2.1381
1321.600 2.0862 2.0512 2.0452 2.0859 2.135 2.1881 2.2542 2.2272 2.1992 2.1931
1340.894 2.1626 2.1256 2.0368 1.949 1.914 1.9372 1.9633 1.9244 1.9124 1.9855
1360.187 2.0569 2.1337 2.2455 2.39 2.54 2.7 2.89 3.07 3.26 3.55
1379.480 3.88 4.27 4.7 5.15 5.81 6.58 7.38 8.18 8.94 9.64
1398.774 10.16 10.5 10.66 10.57 10.29 9.93 9.56 9.3 9.07 8.8
1418.067 8.56 8.37 8.18 8 7.82 7.55 7.29 7.09 6.94 6.91
1437.361 6.97 7.06 7.24 7.42 7.65 8.11 8.83 9.86 11.28 13.08
1456.654 15.55 18.91 23.31 29.16 36.84 46.35 57.19 68.8 80.16 89.76
1475.948 95.66 97.4 94.83 88.56 79.05 66.64 52.57 39.48 29.09 21.72
1495.241 16.71 13.43 11.43 10.21 9.54 9.15 8.89 8.81 8.86 8.96
1514.534 9.12 9.34 9.56 9.87 10.27 10.79 11.47 12.37 13.57 14.92
1533.828 16.45 18.02 19.41 20.57 21.4 21.74 21.53 20.81 19.63 18.17
1553.121 16.52 14.84 13.54 12.73 12.54 13.02 14.18 15.91 18.09 20.59
1572.415 23.23 25.85 28.35 30.39 31.73 32.38 32.28 31.46 30.11 28.47
1591.708 26.6 24.66 22.99 21.71 20.86 20.51 20.77 21.66 23.15 25.12
1611.002 27.38 29.79 32.04 34.16 35.92 36.96 37.15 36.54 35.2 33.2
1630.295 30.62 27.51 24.06 20.42 17.05 14.07 11.54 9.53 7.93 6.71
1649.588 5.8 5.05 4.47 4.09 3.73 3.42 3.21 3.05 2.9 2.76
1668.882 2.6 2.51 2.47 2.4 2.3465 2.285 2.2208 2.2311 2.209 2.1788
1688.175 2.1973 2.1924 2.2102 2.2459 2.2823 2.3687 2.42 2.44 2.47 2.52
1707.469 2.58 2.65 2.83 3.03 3.26 3.6 4.05 4.46 4.86 5.29
1726.762 5.56 5.57 5.34 4.9 4.35 3.84 3.34 2.91 2.64 2.51
1746.056 2.47 2.47 2.49 2.52 2.62 2.65 2.64 2.66 2.66 2.6
1765.349 2.49 2.3514 2.1874 2.0548 1.9123 1.7586 1.6274 1.5044 1.4485 1.40772
1784.642 1.38863 1.40271 1.3632 1.3244 1.273 1.215 1.231 1.253 1.249 1.223
1803.936 1.199 1.22 1.215 1.188 1.204 1.197 1.172 1.191 1.234 1.23
1823.229 1.182 1.156 1.175 1.198 1.181 1.172 1.171 1.163 1.118 1.107
1842.523 1.142 1.119 1.098 1.085 1.076 1.098 1.097 1.051 1.057 1.044
1861.816 1.038 1.085 1.081 1.048 1.039 1.063 1.056 1.056 1.097 1.091
1881.110 1.096 1.109 1.107 1.174 1.208 1.179 1.177 1.19 1.217 1.238
1900.403 1.243 1.231 1.243 1.2875 1.3116 1.301 1.2859 1.252 1.265 1.283
1919.696 1.266 1.2874 1.274 1.3054 1.3565 1.3524 1.369 1.37173 1.332 1.3373
1938.990 1.358 1.3483 1.3289 1.3399 1.3448 1.3296 1.3398 1.3556 1.3235 1.2881
1958.283 1.278 1.235 1.229 1.243 1.19 1.152 1.16 1.164 1.165 1.148
1977.577 1.13 1.14 1.125 1.118 1.159 1.205 1.178 1.148 1.153 1.157
1996.870 1.174 1.148 1.114 1.107 1.138 1.14 1.116 1.13 1.128 1.134
2016.164 1.164 1.176 1.168 1.176 1.189 1.181 1.171 1.156 1.17 1.19
2035.457 1.16 1.151 1.165 1.162 1.166 1.192 1.206 1.186 1.167 1.19
2054.750 1.229 1.262 1.276 1.24 1.218 1.227 1.244 1.267 1.273 1.255
2074.044 1.195 1.154 1.162 1.116 1.107 1.122 1.078 1.083 1.099 1.072
2093.337 1.073 1.087 1.079 1.054 1.029 1.015 1.023 1.041 1.026 1.056
2112.631 1.091 1.084 1.074 1.051 1.077 1.099 1.076 1.071 1.114 1.132
2131.924 1.109 1.098 1.091 1.078 1.118 1.165 1.156 1.158 1.16 1.146
2151.218 1.134 1.134 1.146 1.156 1.132 1.118 1.117 1.109 1.124 1.113
2170.511 1.107 1.139 1.149 1.145 1.141 1.101 1.072 1.09 1.077 1.029
2189.804 1.019 1.055 1.06 1.034 1.031 1.052 1.069 1.089 1.099 1.091
2209.098 1.082 1.062 1.052 1.053 1.048 1.055 1.073 1.067 1.077 1.081
2228.391 1.04 1.059 1.101 1.116 1.121 1.106 1.14 1.145 1.12 1.128
2247.685 1.095 1.115 1.153 1.14 1.152 1.154 1.128 1.118 1.14 1.152
2266.978 1.112 1.126 1.131 1.097 1.084 1.101 1.143 1.141 1.126 1.133
2286.272 1.172 1.182 1.139 1.105 1.107 1.125 1.097 1.087 1.134 1.149
2305.565 1.123 1.098 1.088 1.12 1.117 1.078 1.103 1.137 1.184 1.213
2324.858 1.166 1.146 1.174 1.177 1.189 1.169 1.162 1.176 1.167 1.181
2344.152 1.207 1.211 1.203 1.206 1.17 1.164 1.183 1.202 1.188 1.155
2363.445 1.159 1.172 1.199 1.217 1.254 1.283 1.28 1.275 1.237 1.224
2382.739 1.229 1.205 1.171 1.143 1.142 1.136 1.118 1.106 1.078 1.07
2402.032 1.082 1.033 1.018 1.031 1.022 1.01 1.025 1.026 0.989 0.99
2421.326 0.985 0.978 0.992 0.95 0.921 0.954 0.962 0.959 0.987 1.009
2440.619 0.974 0.946 0.995 1.021 1.013 1.006 0.993 0.979 0.975 0.97
2459.912 0.956 0.972 0.966 0.995 1.013 0.988 1.008 1.001 1.021 1.039
2479.206 1.042 1.058 1.055 1.062 1.046 1.055 1.084 1.124 1.163 1.192
2498.499 1.234 1.258 1.278 1.2801 1.2985 1.3198 1.3089 1.3124 1.3662 1.40741
2517.793 1.41531 1.44555 1.44345 1.43926 1.43335 1.37975 1.3584 1.3291 1.235 1.158
2537.086 1.144 1.13 1.074 1.036 1.02 1.043 1.075 1.092 1.107 1.097
2556.380 1.088 1.086 1.108 1.173 1.2815 1.3469 1.3987 1.4602 1.5279 1.5678
2575.673 1.564 1.6262 1.6985 1.6664 1.6016 1.601 1.5324 1.43878 1.39971 1.41765
2594.966 1.40352 1.39228 1.38857 1.3317 1.3008 1.247 1.225 1.219 1.161 1.081
2614.260 1.05 1.028 1.036 1.042 1.02 1.029 1.028 1.042 1.013 0.963
2633.553 0.963 1.004 1.008 0.92 0.913 0.938 0.941 0.977 0.947 0.925
2652.847 0.929 0.91 0.914 0.92 0.914 0.927 0.924 0.927 0.935 0.931
2672.140 0.946 0.942 0.896 0.912 0.937 0.936 0.913 0.916 0.921 0.897
2691.434 0.908 0.889 0.834 0.811 0.828 0.821 0.823 0.818 0.856 0.861
2710.727 0.817 0.844 0.881 0.863 0.9 0.953 0.929 0.934 0.983 1.054
2730.020 1.125 1.15 1.186 1.268 1.3253 1.43467 1.4962 1.5725 1.6368 1.6233
2749.314 1.6845 1.673 1.6085 1.5537 1.4833 1.41348 1.42472 1.3489 1.275 1.257
2768.607 1.195 1.138 1.115 1.142 1.126 1.114 1.156 1.175 1.091 1.043
2787.901 1.098 1.103 1.094 1.108 1.109 1.143 1.104 1.086 1.119 1.121
2807.194 1.165 1.237 1.228 1.236 1.2901 1.3547 1.37291 1.40363 1.4941 1.5459
2826.488 1.5978 1.609 1.6741 1.8126 1.9464 2.014 2.0656 2.2149 2.3626 2.58
2845.781 2.84 3.05 3.26 3.55 3.88 4.19 4.6 5.07 5.47 5.87
2865.074 6.25 6.54 6.84 7.08 7.25 7.36 7.41 7.42 7.41 7.39
2884.368 7.4 7.5 7.59 7.53 7.43 7.39 7.4 7.36 7.25 7.23
2903.661 7.27 7.27 7.38 7.64 7.9 8.25 8.7 9.22 9.94 10.93
2922.955 12.13 13.44 14.78 16.07 17.07 17.51 17.63 17.42 16.69 15.59
2942.248 14.12 12.53 10.91 9.43 8.29 7.33 6.66 6.13 5.57 5.19
2961.542 4.97 4.74 4.38 4.01 3.73 3.53 3.34 3.12 3.07 3.19
2980.835 3.32 3.42 3.62 3.81 3.96 4.21 4.44 4.57 4.59 4.67
3000.128 4.75 4.81 4.95 5.06 5.09 5.1 5.2 5.33 5.36 5.5
3019.422 5.48 5.3 5.11 4.76 4.49 4.2 3.99 3.85 3.78 3.76
3038.715 3.71 3.79 3.9 4.07 4.23 4.4 4.53 4.57 4.7 4.9
3058.009 5.08 5.31 5.43 5.39 5.25 4.91 4.51 4.02 3.47 3.06
3077.302 2.72 2.3331 1.9238 1.5932 1.45368 1.3262 1.222 1.175 1.022 0.932
3096.596 0.965 1.037 1.044 0.993 0.965 1.085 1.114 0.984 1.035 1.094
3115.889 1.069 1.002 1.037 0.996 0.91 0.946 0.894 0.86 0.874 0.823
3135.182 0.798 0.735 0.719 0.812 0.854 0.913 0.956 0.881 0.791 0.725
3154.476 0.72 0.829 0.849 0.817 0.739 0.656 0.636 0.69 0.724 0.726
3173.769 0.661 0.583 0.579 0.601 0.568 0.495 0.586 0.614 0.561 0.592
3193.063 0.615 0.69 0.717 0.652 0.655 0.696 0.614 0.55 0.582 0.586
3212.356 0.454 0.36 0.416 0.447 0.455 0.388 0.27 0.26 0.34 0.3
3231.650 0.38 0.467 0.407 0.26 0.14 0.19 0.34 0.425 0.26 0.04
3250.943 0.12 0.23 0.23 0.26 0.34 0.476 0.381 0.25 0.28 0.33
3270.236 0.24 0.17 0.22 0.24 0.24 0.3 0.34 0.29 0.25 0.22
3289.530 0.25 0.32 0.24 0.14 0.13 0.16 0.12 0 0.09 0.17
3308.823 0.2 0.27 0.19 0.09 0.09 0.06 0.13 0.28 0.31 0.31
3328.117 0.22 0.12 0.16 0.09 0.12 0.24 0.26 0.26 0.21 0.33
3347.410 0.471 0.455 0.403 0.37 0.389 0.511 0.624 0.631 0.732 0.931
3366.704 1.114 1.3007 1.44061 1.5043 1.7604 2.2007 2.56 3.03 3.58 4.31
3385.997 5.19 5.94 7.06 8.4 9.89 11.47 12.9 14.3 15.36 15.84
3405.290 15.69 15.11 14.1 12.64 11 9.19 7.45 6.03 4.79 3.89
3424.584 3.28 2.71 2.3283 2.07 1.8807 1.8377 1.6753 1.491 1.5909 1.7509
3443.877 1.7078 1.6858 1.8012 1.8625 1.9344 2.0982 2.2059 2.39 2.74 2.99
3463.171 3.31 3.65 4.09 4.49 4.84 5.38 5.98 6.66 7.42 8.19
3482.464 9.15 10.4 11.78 13.33 15.2 17.35 19.8 22.39 24.57 26.05
3501.758 26.45 25.71 23.82 20.99 17.8 14.53 11.55 9.22 7.56 6.53
3521.051 5.67 4.91 4.34 3.79 3.3 2.77 2.3213 2.0711 1.8809 1.679
3540.344 1.5183 1.44725 1.3663 1.223 1.107 1.016 0.996 1.057 1.029 0.88
3559.638 0.866 0.861 0.734 0.74 0.739 0.748 0.829 0.807 0.767 0.63
3578.931 0.548 0.649 0.687 0.664 0.618 0.565 0.598 0.653 0.556 0.505
3598.225 0.566 0.556 0.554 0.622 0.558 0.522 0.692 0.696 0.525 0.458
3617.518 0.406 0.434 0.519 0.491 0.417 0.421 0.477 0.541 0.565 0.579
3636.812 0.624 0.586 0.547 0.556 0.534 0.533 0.547 0.617 0.677 0.607
3656.105 0.569 0.592 0.607 0.582 0.532 0.518 0.588 0.63 0.613 0.709
3675.398 0.703 0.699 0.771 0.69 0.671 0.712 0.739 0.804 0.853 0.882
3694.692 0.913 0.905 0.839 0.756 0.664 0.566 0.538 0.576 0.603 0.572
3713.985 0.592 0.63 0.595 0.669 0.682 0.658 0.669 0.595 0.634 0.713
3733.279 0.63 0.538 0.579 0.631 0.659 0.681 0.677 0.747 0.753 0.683
3752.572 0.735 0.727 0.617 0.619 0.723 0.741 0.773 0.743 0.785 0.837
3771.866 0.774 0.821 0.846 0.882 0.923 0.911 0.873 0.905 0.967 0.971
3791.159 0.943 0.902 0.93 0.969 0.983 0.991 0.935 0.84 0.877 0.945
3810.452 0.931 0.998 0.996 1.034 1.076 1.034 1.039 1.026 1.033 1.064
3829.746 1.091 1.12 1.192 1.24 1.2825 1.245 1.189 1.218 1.2917 1.293
3849.039 1.167 1.141 1.217 1.271 1.2989 1.24 1.259 1.256 1.225 1.268
3868.333 1.249 1.241 1.187 1.11 1.188 1.247 1.162 1.103 1.121 1.155
3887.626 1.114 1.063 1.041 1.037 1.034 1.031 0.96 0.923 0.969 1.012
3906.920 1.018 1.024 1.044 0.973 0.982 1.175 1.201 1.129 1.14 1.131
3926.213 1.162 1.201 1.2 1.125 1.197 1.2956 1.249 1.232 1.197 1.176
3945.506 1.204 1.208 1.235 1.191 1.174 1.245 1.2886 1.261 1.183 1.173
3964.800 1.132 1.139 1.207 1.18 1.097 1.074 1.144 1.051 1.105 1.212
3984.093 1.093 1.013 0.979 1.014 0.975 0.928 0.95 1.008 1.056
##END=
