##TITLE=2,6-Dichloro-4-bromoaniline
##JCAMP-DX=4.24
##DATA TYPE=INFRARED SPECTRUM
##ORIGIN=EPA-IR VAPOR PHASE LIBRARY
##OWNER=SRD/NIST
Collection (C) 2018 copyright by the U.S. Secretary of Commerce
on behalf of the United States of America. All rights reserved.
##CAS REGISTRY NO=697-86-9
##MOLFORM=C 6 H 4 Br Cl 2 N
##$NIST SOURCE=MSDC-IR
##STATE=gas
##XUNITS=1/CM
##YUNITS=ABSORBANCE
##XFACTOR=1.
##YFACTOR=0.001
##DELTAX=3.85796
##FIRSTX=501.5
##LASTX=4000.7
##FIRSTY=6.95
##MAXX=4000.7
##MINX=501.534
##MAXY=0.16531
##MINY=0.00004385
##NPOINTS=908
##XYDATA=(X++(Y..Y))
501.534 6.95 6.5 6.05 5.47 5.01 4.79 4.74 4.55 4.37 4.4
540.114 4.81 5.79 7 8.42 8.17 6.35 5.08 4.2 3.83 3.68
578.693 3.64 3.67 3.74 3.83 3.87 4 4.35 4.64 4.8 5.01
617.273 5.22 5.58 6.13 6.78 7.55 8.49 9.7 11.13 12.51 13.81
655.852 14.9 15.67 16.31 17.06 17.96 19.52 22.2 26.37 32.54 40.88
694.432 48.84 50.73 44.2 31.58 19.49 12.83 9.88 8.39 7.47 6.96
733.011 6.73 6.64 6.54 6.46 6.44 6.57 7.13 8.23 10.35 14.37
771.591 21.27 30.69 39.32 43.43 42.28 37.45 32.08 28.55 25.21 20.19
810.170 14.6 10.73 9 8.44 8.11 7.72 7.72 9.24 13.59 22.09
848.750 33.3 42.64 48.5 41.72 27.35 18.21 11.99 8.67 7.31 6.56
887.330 6.03 5.53 5.15 4.95 4.82 4.69 4.65 4.61 4.42 4.13
925.909 3.83 3.56 3.36 3.18 3.05 2.94 2.91 2.97 3.06 3.12
964.489 3.16 3.17 3.17 3.17 3.11 3.01 2.9 2.8 2.66 2.55
1003.068 2.49 2.4 2.35 2.31 2.29 2.3 2.45 2.68 2.96 3.56
1041.648 4.37 5.49 7.06 9.07 11.58 14.38 16.92 18.09 17.63 15.96
1080.227 13.96 13.25 14.23 16.42 19.01 20.4 19.54 16.6 12.58 8.94
1118.807 6.51 4.99 4 3.36 2.81 2.39 2.15 2.04 1.92 1.75
1157.387 1.67 1.62 1.65 1.89 2.36 3.02 3.84 4.65 5.19 5.29
1195.966 4.94 4.41 4.28 4.88 6.03 7.32 8.28 8.5 7.86 6.59
1234.546 5.04 3.82 3.18 2.95 2.98 3.11 3.39 3.89 4.74 6.16
1273.125 8.28 10.67 12.41 12.76 11.45 9.17 6.66 4.2 2.43 1.63
1311.705 1.35 1.21 1.1 1.02 0.9548 0.9122 0.8998 0.9623 1.13 1.46
1350.284 1.99 2.57 3.15 4 5.25 6.95 9.57 13.65 19.02 23.77
1388.864 25.79 24.54 21.23 18.82 18.91 19.49 18.41 15.55 12.38 11.29
1427.443 12.64 15.33 19.01 23.58 29.14 36.67 48.42 67.93 101.01 140.39
1466.023 165.31 157.41 118.4 71.12 39.12 23.7 15.34 10.25 7.52 5.93
1504.603 5 4.35 3.97 3.82 3.86 4.08 4.63 5.76 7.73 10.79
1543.182 15.07 20.38 27 34.04 40.25 43.64 41.41 34.75 28.25 22.9
1581.762 18.73 16.01 15.41 17.32 21.27 27.14 35.05 44.12 51.48 53.97
1620.341 50.24 41.76 31.57 22.72 16.31 12.36 10.02 8.36 7.04 5.79
1658.921 4.69 3.74 2.96 2.38 1.98 1.73 1.58 1.51 1.51 1.57
1697.500 1.73 2 2.43 3.12 4.01 4.95 5.59 5.53 4.9 3.99
1736.080 3.1 2.5 2.13 1.84 1.61 1.48 1.41 1.33 1.24 1.13
1774.659 1.03 0.9207 0.8168 0.7409 0.6955 0.6575 0.6244 0.6065 0.5844 0.5475
1813.239 0.526 0.5231 0.5273 0.5349 0.5382 0.5449 0.5598 0.577 0.6072 0.6295
1851.819 0.6397 0.6462 0.6322 0.6324 0.6381 0.62 0.6251 0.638 0.6253 0.616
1890.398 0.6226 0.6123 0.5879 0.5833 0.5974 0.6133 0.6323 0.6465 0.6646 0.7083
1928.978 0.7399 0.7324 0.7148 0.6979 0.6871 0.6764 0.6739 0.6962 0.7207 0.7363
1967.557 0.7542 0.7694 0.7687 0.7482 0.6743 0.5598 0.4709 0.4105 0.3543 0.3118
2006.137 0.2988 0.287 0.2738 0.278 0.2766 0.2716 0.2811 0.2953 0.3086 0.3095
2044.716 0.3111 0.3254 0.341 0.3592 0.3847 0.4176 0.4446 0.4466 0.4554 0.4625
2083.296 0.4542 0.4586 0.4531 0.4425 0.4554 0.4684 0.4709 0.4699 0.4802 0.4809
2121.875 0.4678 0.4749 0.4895 0.4943 0.4743 0.4603 0.4668 0.4643 0.4605 0.4622
2160.455 0.4597 0.4606 0.4187 0.3589 0.3063 0.255 0.256 0.2731 0.2744 0.2641
2199.035 0.2647 0.2769 0.2795 0.3001 0.3144 0.3202 0.3287 0.3212 0.3318 0.3492
2237.614 0.3528 0.3666 0.3982 0.4428 0.4729 0.4708 0.456 0.461 0.455 0.4594
2276.194 0.4823 0.4884 0.5295 0.5825 0.6516 0.6941 0.715 0.7771 0.8213 0.8165
2314.773 0.7875 0.7412 0.659 0.562 0.4678 0.4106 0.4008 0.3905 0.3743 0.368
2353.353 0.3695 0.3495 0.301 0.277 0.266 0.2244 0.2098 0.23 0.2095 0.2043
2391.932 0.2118 0.1969 0.2156 0.2254 0.2233 0.2356 0.2513 0.2445 0.2273 0.2085
2430.512 0.1914 0.1821 0.1846 0.2173 0.2291 0.2786 0.3311 0.347 0.3854 0.4134
2469.092 0.4063 0.3756 0.3426 0.3449 0.3938 0.4177 0.4248 0.4798 0.5639 0.6464
2507.671 0.6975 0.7182 0.7093 0.6567 0.5419 0.4034 0.3156 0.2846 0.3146 0.3379
2546.251 0.3526 0.3776 0.4038 0.4588 0.5413 0.6197 0.6994 0.7949 0.8507 0.849
2584.830 0.7909 0.6725 0.5005 0.3759 0.3059 0.2527 0.2581 0.2652 0.2367 0.2252
2623.410 0.2574 0.2744 0.284 0.3068 0.3257 0.3658 0.4026 0.433 0.46 0.4842
2661.989 0.5115 0.4931 0.4692 0.4898 0.4909 0.4708 0.4278 0.3722 0.3564 0.3261
2700.569 0.2457 0.1834 0.1864 0.1907 0.1565 0.1488 0.1641 0.157 0.1605 0.177
2739.148 0.2036 0.2494 0.2813 0.282 0.2557 0.2293 0.1962 0.153 0.1492 0.131
2777.728 0.125 0.1318 0.1155 0.1142 0.121 0.1341 0.1659 0.1875 0.1807 0.2348
2816.308 0.284 0.3271 0.4543 0.5965 0.728 0.858 0.9271 0.9679 0.944 0.7939
2854.887 0.6173 0.4596 0.3841 0.3655 0.3703 0.3979 0.419 0.4684 0.5282 0.5589
2893.467 0.5899 0.5883 0.5528 0.5076 0.4323 0.3489 0.312 0.3129 0.3306 0.3124
2932.046 0.2811 0.2224 0.1689 0.1713 0.1459 0.1334 0.1382 0.1506 0.1561 0.1529
2970.626 0.156 0.1759 0.1925 0.1852 0.1584 0.1482 0.1622 0.1894 0.2229 0.2544
3009.205 0.2488 0.2201 0.2585 0.2731 0.2198 0.2064 0.2219 0.2018 0.1731 0.1599
3047.785 0.1488 0.1587 0.183 0.2067 0.2435 0.2597 0.2723 0.3624 0.4885 0.6709
3086.364 0.8178 0.9034 0.9227 0.818 0.7262 0.6797 0.6485 0.6104 0.6003 0.5796
3124.944 0.5341 0.5724 0.6299 0.6607 0.7509 0.8175 0.8642 0.8673 0.7983 0.8104
3163.524 0.8688 0.9045 0.9054 0.8235 0.7567 0.6827 0.5634 0.4794 0.4322 0.3781
3202.103 0.3297 0.3213 0.3098 0.2643 0.2688 0.2654 0.2762 0.2668 0.2124 0.2003
3240.683 0.1754 0.1577 0.1979 0.2068 0.1576 0.1627 0.197 0.223 0.1442 0.1466
3279.262 0.1905 0.1531 0.1696 0.1505 0.1288 0.1948 0.2321 0.2359 0.2605 0.2869
3317.842 0.2781 0.2621 0.2671 0.2155 0.1755 0.1842 0.2158 0.2791 0.2888 0.3295
3356.421 0.4129 0.4978 0.6094 0.7477 1.03 1.41 1.87 2.52 3.36 4.52
3395.001 6.19 8.55 11.81 15.79 20.06 23.78 25.17 23.04 18.14 12.39
3433.580 7.98 5.44 4.01 3.19 2.68 2.44 2.37 2.43 2.62 2.86
3472.160 3.22 3.78 4.45 5.32 6.46 7.98 10.01 12.52 15.29 18.06
3510.740 20.64 22.21 21.64 19.15 15.19 10.94 7.85 5.84 4.47 3.43
3549.319 2.62 2.04 1.67 1.38 1.1 0.9072 0.8075 0.7541 0.691 0.5864
3587.899 0.4697 0.3768 0.3209 0.2776 0.2464 0.2151 0.1851 0.1884 0.1118 0.1099
3626.478 0.1668 0.1889 0.2112 0.187 0.1195 0.06743 0.0866 0.06552 0.04636 0.07092
3665.058 0.06705 0.04385 0.05119 0.1117 0.1245 0.06313 0.09494 0.1348 0.1009 0.133
3703.637 0.1841 0.1997 0.3094 0.4048 0.4048 0.3937 0.348 0.3748 0.3379 0.2273
3742.217 0.1656 0.09589 0.08126 0.1137 0.1468 0.1331 0.1302 0.1168 0.1114 0.1516
3780.797 0.1927 0.228 0.1972 0.1328 0.1732 0.2179 0.2285 0.2644 0.2984 0.3651
3819.376 0.3816 0.3517 0.3128 0.3345 0.3885 0.4334 0.4865 0.4906 0.4951 0.575
3857.956 0.5853 0.5494 0.6537 0.7618 0.8062 0.8464 0.8648 0.8889 0.8814 0.8573
3896.535 0.8046 0.6987 0.6631 0.6238 0.542 0.5161 0.5333 0.5741 0.6288 0.6561
3935.115 0.6673 0.6296 0.5511 0.5308 0.5833 0.5428 0.4944 0.4817 0.5387 0.5796
3973.694 0.5079 0.5067 0.4826 0.4645 0.4143 0.3754 0.3543 0.2742
##END=
