##TITLE=3-Ethyl-3-methylglutaricanhydride
##JCAMP-DX=4.24
##DATA TYPE=INFRARED SPECTRUM
##ORIGIN=EPA-IR VAPOR PHASE LIBRARY
##OWNER=SRD/NIST
Collection (C) 2018 copyright by the U.S. Secretary of Commerce
on behalf of the United States of America. All rights reserved.
##CAS REGISTRY NO=6970-57-6
##MOLFORM=C 8 H 12 O 3
##$NIST SOURCE=MSDC-IR
##STATE=gas
##XUNITS=1/CM
##YUNITS=ABSORBANCE
##XFACTOR=1.
##YFACTOR=0.001
##DELTAX=3.85796
##FIRSTX=501.5
##LASTX=4000.7
##FIRSTY=0.2603
##MAXX=4000.7
##MINX=501.534
##MAXY=0.105877
##MINY=0
##NPOINTS=908
##XYDATA=(X++(Y..Y))
501.534 0.2603 0.11182 0.037 0.001 0.0047 0.11719 0.10838 0.09075 0.2287 0.3839
540.114 0.5181 0.6704 0.7504 0.8471 1.0092 1.1273 1.2873 1.4073 1.5173 1.9873
578.693 2.7673 3.7473 4.7673 5.7773 6.7073 7.3873 7.9173 8.2373 8.1373 7.6173
617.273 6.7673 5.7073 4.5673 3.4473 2.5773 2.0273 1.6473 1.2973 1.0257 0.814
655.852 0.7324 0.6304 0.5481 0.4808 0.3521 0.2891 0.2658 0.2371 0.2622 0.2651
694.432 0.17678 0.16986 0.1678 0.09916 0.12141 0.1502 0.15422 0.12526 0.06988 0.11128
733.011 0.15341 0.17692 0.1794 0.13781 0.15779 0.2225 0.3204 0.3767 0.4295 0.5917
771.591 0.7396 0.9467 1.1773 1.4173 1.6373 1.6473 1.5073 1.3173 1.0773 0.8512
810.170 0.837 1.0043 1.1473 1.2573 1.2673 1.1873 1.0513 0.8166 0.615 0.5092
848.750 0.4646 0.4411 0.4193 0.441 0.4469 0.4171 0.4987 0.6541 0.8097 0.9994
887.330 1.2473 1.4473 1.7073 2.1673 2.7473 3.4673 4.4873 5.9673 7.9073 10.1073
925.909 12.3373 14.2373 15.2873 15.1973 14.0673 12.2473 10.3473 9.0773 8.8073 9.4273
964.489 10.4773 11.3473 11.4173 10.5373 9.0473 7.4173 6.0373 5.0873 4.5873 4.5173
1003.068 4.6873 4.9773 5.4473 6.1173 6.9873 8.1073 9.7173 11.9873 15.0573 18.9373
1041.648 23.7373 29.0773 34.3873 39.3573 44.0773 48.4773 52.0173 54.1773 54.3173 51.7573
1080.227 46.4673 39.2373 31.5273 24.7073 19.3473 15.4073 12.5173 10.3673 8.7873 7.6673
1118.807 7.0273 6.6273 6.4073 6.4673 6.7073 7.0873 7.6173 8.3373 9.1873 10.3073
1157.387 11.6273 13.0773 14.5373 15.8873 16.9473 17.4073 17.1373 16.2473 15.0173 13.6273
1195.966 12.3373 11.4973 11.3073 11.6173 12.1673 12.7073 13.2173 13.6473 13.8873 13.9273
1234.546 13.8473 13.5873 13.0973 12.3373 11.4173 10.5273 9.7673 9.1373 8.5373 7.9273
1273.125 7.1873 6.3373 5.5373 4.9073 4.4873 4.2473 4.1573 4.1573 4.1973 4.3673
1311.705 4.6273 4.9773 5.3173 5.5373 5.5573 5.3373 4.9473 4.4473 3.9773 3.5473
1350.284 3.1273 2.7673 2.4673 2.2773 2.2173 2.3073 2.5673 3.0173 3.6073 4.1873
1388.864 4.6073 4.7373 4.4173 3.8573 3.4473 3.3273 3.4973 3.8173 4.1373 4.3573
1427.443 4.3573 4.2273 3.9873 3.6973 3.6073 3.7673 4.1273 4.5773 5.0873 5.4573
1466.023 5.4773 5.1173 4.4873 3.7473 3.0273 2.3973 1.9273 1.6473 1.4573 1.3073
1504.603 1.1773 1.0763 1.0266 0.9511 0.8771 0.8224 0.7898 0.759 0.7028 0.6406
1543.182 0.6588 0.6804 0.6666 0.6421 0.6117 0.6467 0.6635 0.6552 0.6408 0.6208
1581.762 0.6044 0.5979 0.6056 0.5915 0.5825 0.5845 0.5763 0.5732 0.5798 0.5798
1620.341 0.6116 0.6585 0.6996 0.7238 0.7324 0.7796 0.8206 0.8448 0.8465 0.9154
1658.921 1.0016 1.0323 1.0535 1.0642 1.0768 1.0873 1.0768 1.1173 1.1773 1.2273
1697.500 1.2973 1.4373 1.6373 1.8573 2.1073 2.4473 2.8673 3.2973 3.7973 4.4473
1736.080 5.2573 6.2573 7.5073 8.9973 10.7673 12.9673 16.0873 21.1373 29.5873 43.2673
1774.659 62.2273 82.5973 98.8273 105.877 102.867 89.4873 69.1373 49.6573 36.8073 31.3573
1813.239 32.1473 37.8373 45.0373 50.3173 50.8973 45.7873 36.4073 24.5173 14.8473 9.6073
1851.819 6.9373 5.4073 4.4073 3.7073 3.1773 2.7673 2.4473 2.1773 1.9473 1.7173
1890.398 1.5273 1.3973 1.2873 1.1773 1.0973 1.0431 0.9911 0.9583 0.9457 0.9336
1928.978 0.9237 0.9099 0.8822 0.8308 0.7482 0.6591 0.5887 0.5416 0.4937 0.4721
1967.557 0.4622 0.4486 0.4389 0.4284 0.4229 0.4246 0.4301 0.4202 0.4115 0.4017
2006.137 0.3818 0.3896 0.3824 0.3558 0.3308 0.3042 0.2928 0.286 0.2795 0.2855
2044.716 0.3014 0.298 0.2855 0.2863 0.2796 0.283 0.295 0.3114 0.3048 0.2934
2083.296 0.3016 0.3091 0.3278 0.3368 0.3525 0.3554 0.3633 0.3788 0.3704 0.3798
2121.875 0.3919 0.3898 0.3776 0.3918 0.4156 0.4138 0.4114 0.4234 0.4504 0.4699
2160.455 0.4735 0.4754 0.5015 0.5197 0.5004 0.4979 0.4955 0.4725 0.485 0.4933
2199.035 0.4789 0.4629 0.4599 0.455 0.4311 0.4115 0.3938 0.4109 0.4333 0.4201
2237.614 0.4136 0.4233 0.4176 0.4328 0.4595 0.4532 0.4485 0.453 0.461 0.4747
2276.194 0.5049 0.5261 0.5291 0.5259 0.5399 0.5608 0.5599 0.5572 0.5586 0.5411
2314.773 0.5013 0.4656 0.4366 0.4027 0.3591 0.3369 0.3281 0.3168 0.3187 0.3175
2353.353 0.3015 0.2787 0.2508 0.2358 0.2503 0.2528 0.267 0.2927 0.2902 0.2847
2391.932 0.2699 0.27 0.2794 0.2748 0.2613 0.2551 0.2428 0.2369 0.2364 0.2498
2430.512 0.2629 0.2515 0.2434 0.2287 0.2185 0.2052 0.2126 0.1983 0.17082 0.17182
2469.092 0.15151 0.12917 0.13724 0.13966 0.13453 0.1197 0.11976 0.14683 0.13316 0.11747
2507.671 0.13735 0.15457 0.13389 0.12355 0.13279 0.13586 0.14556 0.14686 0.13918 0.13956
2546.251 0.14447 0.13678 0.14975 0.15887 0.15039 0.15601 0.15696 0.16438 0.1815 0.1862
2584.830 0.17581 0.1726 0.17189 0.17578 0.1877 0.1813 0.1631 0.1681 0.1848 0.2013
2623.410 0.2085 0.1859 0.16095 0.15882 0.16075 0.17231 0.1854 0.1867 0.2094 0.2194
2661.989 0.2059 0.1922 0.2045 0.23 0.2446 0.2422 0.225 0.2404 0.2637 0.2657
2700.569 0.2672 0.2614 0.2427 0.2225 0.2364 0.2813 0.2939 0.3003 0.3513 0.3612
2739.148 0.3464 0.3763 0.4068 0.4252 0.4296 0.4265 0.447 0.4468 0.4595 0.4878
2777.728 0.4677 0.4731 0.4761 0.5231 0.5796 0.591 0.6124 0.6408 0.6854 0.7315
2816.308 0.797 0.8485 0.9208 1.0258 1.1273 1.2273 1.3373 1.4473 1.6073 1.8773
2854.887 2.2673 2.7273 3.2373 3.7373 4.2073 4.6573 5.0573 5.4573 5.8473 6.1873
2893.467 6.4373 6.6073 6.8373 7.2873 8.0973 9.2473 10.4773 11.4373 11.8873 11.7973
2932.046 11.2473 10.4073 9.5373 8.9173 8.5873 8.6173 9.3573 10.8873 13.2773 16.3973
2970.626 19.0173 20.4973 20.4673 18.3073 14.8273 10.9873 7.6173 5.2273 3.7073 2.7473
3009.205 2.1673 1.8273 1.5873 1.3873 1.2073 1.0873 0.9729 0.8848 0.8032 0.7702
3047.785 0.722 0.6517 0.6424 0.6535 0.6626 0.6655 0.6405 0.6383 0.6112 0.5587
3086.364 0.5339 0.4986 0.4712 0.5128 0.544 0.4683 0.4287 0.4381 0.43 0.3974
3124.944 0.3657 0.3826 0.3814 0.3312 0.3064 0.3251 0.3345 0.3331 0.3174 0.291
3163.524 0.2576 0.2459 0.2673 0.2677 0.2855 0.2947 0.2533 0.2543 0.2754 0.2551
3202.103 0.2239 0.1948 0.17432 0.216 0.2392 0.2269 0.2092 0.17592 0.1847 0.2007
3240.683 0.1847 0.14783 0.10238 0.1176 0.1333 0.09612 0.09208 0.11444 0.13483 0.12678
3279.262 0.11466 0.11085 0.08857 0.07616 0.08912 0.10078 0.12602 0.09448 0.076711 0.10039
3317.842 0.0887 0.07473 0.0516 0.0481 0.07358 0.13473 0.14211 0.11896 0.10554 0.080798
3356.421 0.07508 0.079928 0.0535 0.0543 0.0542 0.0378 0.0522 0.0666 0.0642 0.05
3395.001 0.0551 0.0551 0.0329 0.0373 0.0645 0.0465 0.0442 0.0374 0.0454 0.085927
3433.580 0.10878 0.09588 0.0347 0.0362 0.0627 0.0256 0.0366 0.12925 0.1398 0.10322
3472.160 0.12309 0.12321 0.079345 0.0454 0.054 0.07152 0.06827 0.07532 0.09921 0.12396
3510.740 0.11466 0.12813 0.178 0.1809 0.1959 0.253 0.3101 0.3886 0.4429 0.4888
3549.319 0.5482 0.6236 0.7581 0.8615 0.9543 1.0397 1.1273 1.2473 1.3573 1.5173
3587.899 1.6573 1.6973 1.6673 1.5573 1.3573 1.0633 0.7709 0.5833 0.5222 0.5022
3626.478 0.4231 0.3779 0.3948 0.4402 0.5156 0.5251 0.4329 0.3721 0.3354 0.326
3665.058 0.3291 0.2264 0.14205 0.14304 0.15565 0.14576 0.09688 0.09565 0.12256 0.10662
3703.637 0.0981 0.0593 0 0.0004 0.0386 0.082305 0.09082 0.10252 0.10801 0.10143
3742.217 0.0573 0.0011 0.0322 0.0656 0.0597 0.04 0.0218 0.0552 0.0506 0.0536
3780.797 0.08815 0.10254 0.076529 0.042 0.09217 0.0596 0.0459 0.07439 0.0809 0.09655
3819.376 0.076822 0.07474 0.0624 0.065 0.07133 0.081451 0.1046 0.12598 0.09027 0.0568
3857.956 0.08732 0.082598 0.0667 0.082991 0.1396 0.16263 0.14154 0.11006 0.10133 0.14834
3896.535 0.16166 0.12476 0.086878 0.09696 0.13134 0.12103 0.11673 0.17081 0.2025 0.1951
3935.115 0.1982 0.13596 0.09918 0.11822 0.10667 0.14658 0.1932 0.1826 0.1823 0.15277
3973.694 0.16266 0.15974 0.10392 0.080803 0.08741 0.15661 0.178 0.13173
##END=
