##TITLE=3,4,5-Triethoxybenzoic acid
##JCAMP-DX=4.24
##DATA TYPE=INFRARED SPECTRUM
##ORIGIN=EPA-IR VAPOR PHASE LIBRARY
##OWNER=SRD/NIST
Collection (C) 2018 copyright by the U.S. Secretary of Commerce
on behalf of the United States of America. All rights reserved.
##CAS REGISTRY NO=6970-19-0
##MOLFORM=C 13 H 18 O 5
##$NIST SOURCE=MSDC-IR
##STATE=gas
##XUNITS=1/CM
##YUNITS=ABSORBANCE
##XFACTOR=1.
##YFACTOR=0.001
##DELTAX=1.92934
##FIRSTX=549.9
##LASTX=3999.5
##FIRSTY=1.5238
##MAXX=3999.53
##MINX=549.863
##MAXY=0.025991
##MINY=0
##NPOINTS=1789
##XYDATA=(X++(Y..Y))
549.863 1.5238 1.367 1.3795 1.3878 1.3395 1.1144 1.0587 1.2333 1.1637 1.1088
569.156 1.1876 1.3321 1.3422 1.3038 1.369 1.4554 1.4689 1.4636 1.6582 1.7234
588.450 1.6813 1.7207 1.801 1.911 1.931 1.951 2.051 2.031 1.941 1.911
607.743 1.851 1.761 1.6417 1.5802 1.5763 1.568 1.5103 1.4541 1.4721 1.5336
627.037 1.5804 1.6384 1.6557 1.751 1.821 1.801 1.851 1.971 2.081 2.141
646.330 2.211 2.341 2.451 2.551 2.711 2.921 3.071 3.181 3.291 3.341
665.624 3.431 3.541 3.651 3.641 3.561 3.431 3.151 2.851 2.661 2.421
684.917 2.161 1.931 1.751 1.5722 1.3512 1.185 1.059 0.9249 0.9038 0.8858
704.210 0.8244 0.8561 0.8702 0.77807 0.723 0.80232 0.8683 0.81618 0.80867 0.83286
723.504 0.74968 0.7273 0.7968 0.78304 0.79644 0.82216 0.79291 0.8878 0.8929 0.8593
742.797 0.9439 0.9417 0.9976 1.187 1.272 1.3568 1.5828 1.801 2.051 2.431
762.091 2.801 3.211 3.511 3.651 3.611 3.341 3.011 2.641 2.321 2.041
781.384 1.771 1.5419 1.4317 1.3542 1.2363 1.1551 1.1227 1.1522 1.1055 1.007
800.678 0.9993 1.0167 0.9995 0.9815 0.9554 0.9493 0.9721 0.9421 0.9377 0.9815
819.971 0.9818 0.9608 0.9407 0.9364 0.9038 0.8911 0.9335 0.913 0.8668 0.8537
839.264 0.8715 0.8692 0.9455 1.0665 1.1581 1.1759 1.0799 1.1032 1.1964 1.1965
858.558 1.1893 1.2453 1.2693 1.3418 1.3916 1.4118 1.4728 1.5276 1.6766 1.851
877.851 1.901 1.921 2.021 2.171 2.321 2.401 2.471 2.501 2.491 2.471
897.145 2.401 2.361 2.271 2.151 1.971 1.811 1.6565 1.4753 1.3171 1.2197
916.438 1.1748 1.1468 1.1023 1.0608 1.0083 0.9619 0.9912 0.9822 1.0061 1.1103
935.732 1.1875 1.24 1.3098 1.4331 1.5578 1.6347 1.685 1.7191 1.6869 1.6229
955.025 1.5478 1.452 1.3804 1.3033 1.2318 1.1781 1.1605 1.1333 1.0933 1.1156
974.318 1.1463 1.1427 1.1233 1.1718 1.2402 1.2972 1.3622 1.3928 1.4948 1.5647
993.612 1.5599 1.6401 1.7415 1.821 1.941 2.071 2.221 2.361 2.531 2.791
1012.905 3.071 3.441 3.861 4.271 4.761 5.321 5.891 6.391 6.841 7.221
1032.199 7.441 7.451 7.341 7.111 6.801 6.491 6.171 5.921 5.651 5.381
1051.492 5.131 4.941 4.921 4.971 5.121 5.401 5.771 6.231 6.791 7.451
1070.786 8.221 9.051 9.831 10.581 11.341 11.971 12.581 13.151 13.641 14.061
1090.079 14.401 14.701 14.941 15.161 15.261 15.281 15.331 15.391 15.501 15.611
1109.372 15.631 15.731 15.911 15.971 16.141 16.261 16.111 15.861 15.611 15.281
1128.666 14.891 14.561 14.381 14.341 14.601 15.081 15.771 16.791 17.881 18.941
1147.959 19.541 19.351 18.521 17.211 15.551 13.681 11.941 10.501 9.271 8.251
1167.253 7.501 6.921 6.401 5.921 5.621 5.451 5.171 4.931 4.831 4.751
1186.546 4.661 4.721 4.741 4.821 4.951 4.971 5.071 5.291 5.401 5.481
1205.840 5.791 5.991 6.501 7.231 7.601 7.831 8.211 8.541 8.621 8.531
1225.133 8.341 8.081 7.711 7.221 6.601 6.011 5.541 5.011 4.461 4.061
1244.426 3.741 3.381 3.141 2.991 2.901 2.761 2.691 2.691 2.631 2.731
1263.720 2.771 2.821 3.001 3.091 3.201 3.351 3.541 3.691 3.731 3.971
1283.013 4.211 4.281 4.341 4.411 4.641 4.691 4.721 4.901 5.061 5.261
1302.307 5.451 5.581 5.671 5.811 5.901 5.941 5.961 5.871 5.741 5.631
1321.600 5.531 5.531 5.601 5.741 6.061 6.481 6.971 7.651 8.531 9.551
1340.894 10.561 11.491 12.301 12.801 12.931 12.721 12.211 11.431 10.591 9.821
1360.187 9.171 8.631 8.231 8.011 8.011 8.271 8.741 9.311 9.941 10.451
1379.480 10.751 10.971 11.041 10.901 10.671 10.341 9.851 9.201 8.451 7.671
1398.774 6.911 6.181 5.591 5.101 4.751 4.571 4.531 4.661 4.951 5.421
1418.067 6.091 6.861 7.641 8.461 9.221 9.791 10.001 9.831 9.351 8.661
1437.361 7.751 6.771 5.931 5.221 4.681 4.261 3.961 3.691 3.481 3.461
1456.654 3.511 3.471 3.491 3.651 3.821 4.001 4.231 4.411 4.531 4.631
1475.948 4.621 4.521 4.501 4.601 4.741 4.941 5.111 5.231 5.271 5.261
1495.241 5.181 4.941 4.561 4.141 3.731 3.421 3.111 2.691 2.361 2.151
1514.534 2.011 1.971 1.921 1.891 1.851 1.751 1.6609 1.6165 1.5928 1.602
1533.828 1.641 1.6528 1.7507 1.871 1.841 1.771 1.811 1.861 1.931 2.061
1553.121 2.271 2.481 2.691 3.011 3.241 3.521 3.931 4.331 4.831 5.371
1572.415 5.781 6.161 6.551 6.711 6.661 6.531 6.251 5.831 5.371 4.951
1591.708 4.501 4.061 3.731 3.421 3.111 2.881 2.701 2.511 2.341 2.201
1611.002 2.081 1.961 1.891 1.861 1.7324 1.6139 1.5854 1.5196 1.4308 1.3648
1630.295 1.3181 1.2952 1.3354 1.3298 1.2133 1.1515 1.1301 1.1478 1.1905 1.1846
1649.588 1.1346 1.199 1.2414 1.0967 1.0611 1.0386 0.9856 0.9818 0.9874 0.9945
1668.882 1.0027 1.013 0.9925 0.9994 1.0101 1.0263 1.048 1.0756 1.1597 1.1521
1688.175 1.1241 1.1965 1.2201 1.2927 1.479 1.5825 1.7177 1.791 1.831 1.961
1707.469 2.021 2.031 2.031 2.011 2.011 2.011 1.911 1.811 1.811 1.871
1726.762 1.961 2.111 2.341 2.671 3.031 3.491 4.211 5.251 6.691 8.861
1746.056 11.951 15.801 19.851 23.411 25.601 25.991 24.331 20.881 16.371 11.861
1765.349 8.371 6.031 4.521 3.621 3.031 2.601 2.301 2.111 1.991 1.871
1784.642 1.781 1.6671 1.6284 1.6442 1.66 1.6336 1.6307 1.7222 1.771 1.811
1803.936 1.821 1.801 1.7395 1.6072 1.4998 1.3696 1.2446 1.1532 1.0651 1.0174
1823.229 0.9797 0.9555 0.9168 0.8785 0.84813 0.81672 0.80085 0.77283 0.74647 0.7425
1842.523 0.75738 0.754495 0.6883 0.6515 0.6641 0.691 0.7298 0.7692 0.758327 0.750047
1861.816 0.76132 0.7379 0.76899 0.81771 0.80086 0.755724 0.7351 0.7372 0.7226 0.7207
1881.110 0.7243 0.7391 0.7985 0.82306 0.83465 0.82448 0.82696 0.83888 0.79731 0.77907
1900.403 0.76383 0.732 0.77884 0.858 0.8757 0.83276 0.79012 0.76772 0.76283 0.760673
1919.696 0.77211 0.760822 0.74101 0.756485 0.78346 0.79065 0.7362 0.725 0.7214 0.6987
1938.990 0.7089 0.7196 0.6966 0.7182 0.7288 0.6791 0.6626 0.7004 0.7257 0.7371
1958.283 0.74717 0.7167 0.6989 0.7184 0.7118 0.685 0.6967 0.6937 0.6569 0.6718
1977.577 0.6885 0.6605 0.7097 0.7347 0.6886 0.693 0.6976 0.6861 0.697 0.6954
1996.870 0.6759 0.6558 0.641 0.6704 0.7115 0.7226 0.6921 0.6763 0.6754 0.6589
2016.164 0.6677 0.6783 0.667 0.6743 0.6913 0.7201 0.7152 0.6694 0.643 0.6606
2035.457 0.6713 0.633 0.624 0.621 0.628 0.625 0.598 0.596 0.608 0.609
2054.750 0.605 0.592 0.6 0.583 0.571 0.592 0.58 0.544 0.55 0.584
2074.044 0.594 0.587 0.549 0.51 0.504 0.533 0.583 0.585 0.574 0.588
2093.337 0.582 0.572 0.575 0.588 0.604 0.579 0.569 0.619 0.643 0.611
2112.631 0.556 0.525 0.524 0.567 0.569 0.561 0.566 0.548 0.549 0.567
2131.924 0.568 0.54 0.523 0.51 0.53 0.555 0.566 0.583 0.556 0.516
2151.218 0.501 0.509 0.521 0.5 0.517 0.54 0.534 0.53 0.517 0.535
2170.511 0.553 0.526 0.501 0.483 0.508 0.513 0.483 0.491 0.485 0.493
2189.804 0.504 0.503 0.526 0.535 0.508 0.511 0.515 0.519 0.489 0.442
2209.098 0.485 0.499 0.483 0.504 0.517 0.532 0.534 0.524 0.519 0.516
2228.391 0.504 0.491 0.459 0.447 0.476 0.49 0.469 0.459 0.484 0.525
2247.685 0.535 0.505 0.501 0.527 0.528 0.507 0.511 0.525 0.512 0.494
2266.978 0.493 0.531 0.537 0.511 0.514 0.486 0.477 0.507 0.51 0.508
2286.272 0.517 0.514 0.52 0.516 0.507 0.49 0.476 0.486 0.515 0.53
2305.565 0.496 0.463 0.47 0.483 0.472 0.463 0.492 0.471 0.437 0.477
2324.858 0.48 0.464 0.511 0.511 0.522 0.531 0.505 0.52 0.495 0.488
2344.152 0.509 0.496 0.472 0.464 0.44 0.429 0.427 0.436 0.45 0.468
2363.445 0.497 0.512 0.535 0.553 0.546 0.475 0.437 0.461 0.446 0.433
2382.739 0.413 0.429 0.465 0.446 0.438 0.428 0.44 0.464 0.461 0.428
2402.032 0.433 0.466 0.47 0.445 0.441 0.469 0.478 0.466 0.43 0.422
2421.326 0.434 0.442 0.47 0.47 0.438 0.462 0.488 0.472 0.483 0.486
2440.619 0.513 0.51 0.497 0.523 0.503 0.448 0.437 0.471 0.508 0.488
2459.912 0.413 0.403 0.434 0.44 0.408 0.384 0.413 0.418 0.404 0.418
2479.206 0.444 0.4 0.394 0.458 0.477 0.477 0.434 0.428 0.448 0.427
2498.499 0.378 0.358 0.372 0.352 0.375 0.387 0.357 0.346 0.362 0.4
2517.793 0.394 0.348 0.351 0.38 0.391 0.427 0.472 0.445 0.401 0.381
2537.086 0.377 0.407 0.418 0.428 0.447 0.445 0.41 0.387 0.407 0.443
2556.380 0.441 0.414 0.432 0.441 0.411 0.418 0.45 0.395 0.377 0.404
2575.673 0.364 0.364 0.389 0.437 0.429 0.402 0.407 0.353 0.34 0.37
2594.966 0.359 0.347 0.326 0.312 0.326 0.339 0.356 0.391 0.393 0.343
2614.260 0.313 0.354 0.41 0.397 0.366 0.319 0.268 0.288 0.31 0.304
2633.553 0.273 0.271 0.302 0.277 0.251 0.255 0.295 0.293 0.247 0.266
2652.847 0.316 0.259 0.185 0.17 0.167 0.242 0.245 0.172 0.204 0.247
2672.140 0.281 0.283 0.229 0.207 0.213 0.236 0.291 0.315 0.313 0.349
2691.434 0.321 0.265 0.276 0.299 0.31 0.298 0.302 0.335 0.372 0.388
2710.727 0.357 0.365 0.366 0.308 0.302 0.339 0.357 0.347 0.33 0.357
2730.020 0.351 0.275 0.334 0.417 0.341 0.331 0.367 0.362 0.34 0.352
2749.314 0.368 0.371 0.397 0.403 0.439 0.381 0.305 0.261 0.238 0.334
2768.607 0.388 0.333 0.304 0.32 0.309 0.288 0.287 0.344 0.345 0.318
2787.901 0.329 0.297 0.281 0.352 0.392 0.392 0.361 0.336 0.385 0.356
2807.194 0.34 0.401 0.392 0.409 0.459 0.44 0.426 0.501 0.522 0.512
2826.488 0.489 0.445 0.466 0.489 0.621 0.633 0.547 0.561 0.64 0.6587
2845.781 0.642 0.73 0.7343 0.7406 0.84859 0.85052 0.8843 1.0349 1.0922 1.1056
2865.074 1.1328 1.2805 1.487 1.569 1.6976 1.901 2.061 2.201 2.371 2.561
2884.368 2.711 2.851 2.931 3.001 3.071 3.121 3.121 3.011 3.001 3.041
2903.661 3.031 2.971 2.941 2.941 2.901 2.911 2.951 3.031 3.071 3.161
2922.955 3.191 3.241 3.411 3.571 3.791 4.131 4.421 4.631 4.821 4.961
2942.248 4.881 4.671 4.461 4.201 3.981 3.661 3.351 3.171 3.091 3.141
2961.542 3.181 3.321 3.471 3.701 4.031 4.281 4.611 5.191 5.811 6.321
2980.835 6.801 7.071 7.241 7.231 6.991 6.621 6.031 5.361 4.701 4.021
3000.128 3.381 2.881 2.501 2.231 1.981 1.801 1.7048 1.5994 1.4849 1.3677
3019.422 1.2269 1.1305 1.0132 0.9176 0.8971 0.8882 0.82169 0.80991 0.755798 0.634
3038.715 0.568 0.499 0.542 0.574 0.535 0.461 0.446 0.49 0.408 0.358
3058.009 0.347 0.412 0.516 0.496 0.432 0.356 0.376 0.442 0.428 0.387
3077.302 0.305 0.288 0.327 0.398 0.451 0.504 0.463 0.399 0.37 0.363
3096.596 0.409 0.349 0.327 0.305 0.23 0.22 0.25 0.248 0.314 0.34
3115.889 0.289 0.338 0.294 0.228 0.16 0 0.114 0.202 0.117 0.173
3135.182 0.266 0.177 0.034 0.154 0.304 0.24 0.199 0.272 0.252 0.245
3154.476 0.239 0.127 0.045 0.156 0.228 0.178 0.181 0.143 0.211 0.357
3173.769 0.269 0.164 0.21 0.203 0.249 0.269 0.145 0.082 0.136 0.193
3193.063 0.201 0.136 0.182 0.245 0.262 0.321 0.293 0.22 0.195 0.223
3212.356 0.257 0.249 0.32 0.331 0.115 0.081 0.215 0.145 0.08 0.204
3231.650 0.256 0.285 0.265 0.219 0.28 0.24 0.22 0.289 0.224 0.124
3250.943 0.194 0.262 0.247 0.257 0.234 0.185 0.208 0.309 0.336 0.326
3270.236 0.216 0.166 0.266 0.285 0.145 0.062 0.161 0.188 0.259 0.296
3289.530 0.28 0.388 0.4 0.298 0.295 0.331 0.262 0.125 0.102 0.127
3308.823 0.148 0.14 0.174 0.244 0.134 0.148 0.232 0.216 0.219 0.146
3328.117 0.17 0.296 0.266 0.314 0.303 0.116 0.211 0.353 0.306 0.246
3347.410 0.331 0.398 0.406 0.463 0.408 0.403 0.356 0.271 0.298 0.351
3366.704 0.267 0.272 0.359 0.271 0.31 0.373 0.29 0.235 0.181 0.198
3385.997 0.32 0.402 0.404 0.336 0.415 0.502 0.292 0.26 0.331 0.328
3405.290 0.326 0.282 0.355 0.413 0.52 0.518 0.348 0.314 0.323 0.287
3424.584 0.303 0.318 0.321 0.282 0.259 0.344 0.383 0.394 0.393 0.382
3443.877 0.376 0.37 0.419 0.336 0.288 0.316 0.334 0.346 0.464 0.531
3463.171 0.438 0.416 0.384 0.396 0.508 0.543 0.469 0.428 0.467 0.456
3482.464 0.42 0.465 0.51 0.53 0.513 0.494 0.547 0.551 0.54 0.476
3501.758 0.421 0.542 0.532 0.527 0.525 0.454 0.531 0.561 0.457 0.459
3521.051 0.535 0.536 0.609 0.6688 0.7166 0.6911 0.562 0.503 0.565 0.615
3540.344 0.549 0.497 0.507 0.536 0.626 0.7179 0.6929 0.6799 0.6929 0.7285
3559.638 0.80447 0.82582 0.7774 0.9169 1.0845 1.2263 1.6754 2.321 3.221 4.521
3578.931 6.061 7.551 8.501 8.741 8.161 6.811 5.161 3.571 2.321 1.5614
3598.225 1.1269 0.9298 0.874 0.7118 0.616 0.608 0.609 0.573 0.524 0.52
3617.518 0.542 0.603 0.608 0.544 0.495 0.483 0.505 0.47 0.556 0.57
3636.812 0.381 0.381 0.511 0.537 0.489 0.487 0.552 0.601 0.573 0.495
3656.105 0.49 0.5 0.472 0.473 0.408 0.422 0.527 0.485 0.404 0.43
3675.398 0.431 0.386 0.345 0.359 0.395 0.387 0.524 0.626 0.505 0.442
3694.692 0.482 0.512 0.535 0.573 0.561 0.536 0.445 0.472 0.506 0.483
3713.985 0.544 0.521 0.526 0.537 0.515 0.443 0.436 0.484 0.458 0.533
3733.279 0.586 0.595 0.497 0.486 0.523 0.49 0.616 0.532 0.503 0.646
3752.572 0.642 0.492 0.486 0.499 0.415 0.543 0.569 0.46 0.462 0.45
3771.866 0.405 0.36 0.405 0.479 0.468 0.447 0.391 0.321 0.288 0.256
3791.159 0.276 0.4 0.488 0.527 0.526 0.502 0.535 0.592 0.597 0.416
3810.452 0.345 0.468 0.591 0.566 0.487 0.493 0.469 0.505 0.529 0.424
3829.746 0.365 0.383 0.419 0.361 0.426 0.571 0.529 0.474 0.481 0.433
3849.039 0.453 0.551 0.522 0.43 0.395 0.351 0.358 0.465 0.446 0.401
3868.333 0.422 0.484 0.435 0.362 0.33 0.312 0.296 0.289 0.33 0.357
3887.626 0.346 0.41 0.566 0.501 0.349 0.32 0.394 0.472 0.388 0.327
3906.920 0.413 0.412 0.334 0.35 0.379 0.436 0.425 0.297 0.359 0.407
3926.213 0.392 0.44 0.412 0.391 0.378 0.357 0.319 0.375 0.391 0.28
3945.506 0.281 0.3 0.289 0.27 0.254 0.261 0.318 0.335 0.349 0.368
3964.800 0.367 0.375 0.421 0.403 0.299 0.312 0.34 0.319 0.33 0.455
3984.093 0.478 0.356 0.353 0.427 0.379 0.288 0.311 0.353 0.361
##END=
