##TITLE=6-Chloro-1,3-dimethyluracil
##JCAMP-DX=4.24
##DATA TYPE=INFRARED SPECTRUM
##ORIGIN=EPA-IR VAPOR PHASE LIBRARY
##OWNER=SRD/NIST
Collection (C) 2018 copyright by the U.S. Secretary of Commerce
on behalf of the United States of America. All rights reserved.
##CAS REGISTRY NO=6972-27-6
##MOLFORM=C 6 H 7 Cl N 2 O 2
##$NIST SOURCE=MSDC-IR
##STATE=gas
##XUNITS=1/CM
##YUNITS=ABSORBANCE
##XFACTOR=1.
##YFACTOR=0.001
##DELTAX=1.929
##FIRSTX=549.8
##LASTX=4000.8
##FIRSTY=0.7217
##MAXX=4000.75
##MINX=549.766
##MAXY=0.22759
##MINY=0
##NPOINTS=1790
##XYDATA=(X++(Y..Y))
549.766 0.7217 0.8055 0.7619 0.8385 0.771 0.8099 1.132 1.1883 1.4921 1.79
569.056 2.12 2.72 2.77 2.37 2.63 2.74 2.66 2.65 2.2 1.64
588.346 1.1359 0.9603 0.8991 0.8448 0.8219 0.61214 0.384 0.299 0.31 0.332
607.636 0.364 0.284 0.279 0.56163 0.468 0.456 0.59823 0.4882 0.4942 0.5597
626.926 0.514 0.5306 0.56826 0.5038 0.66252 0.6783 0.60883 0.6811 0.63312 0.688
646.216 0.748 0.7405 0.7676 0.9884 1.2275 1.2784 1.124 1.0703 1.1656 1.0075
665.506 0.9269 0.9209 0.9215 0.9205 0.9277 1.0121 1.0104 0.9959 1.1345 1.2645
684.796 1.4263 1.5301 1.66 1.85 1.89 1.89 1.84 1.5553 1.4285 1.61
704.086 1.64 1.4922 1.2403 0.8916 0.66322 0.6703 0.64871 0.558 0.58476 0.4835
723.376 0.317 0.435 0.468 0.457 0.447 0.5151 0.574096 0.65605 0.9043 1.1603
742.666 1.67 2.29 2.8 3.27 3.62 4.19 5.29 7.22 8.09 6.49
761.956 5.1 4.65 4.33 4.03 3.57 2.86 2.22 1.67 1.2857 1.0762
781.246 0.8801 0.8151 0.7635 0.7564 0.8626 1.0269 1.2205 1.5365 2.12 2.97
800.536 3.92 4.83 5.72 6.33 7.08 8.09 11.47 14.77 11.55 7.82
819.826 7.01 6.42 5.79 4.97 3.96 2.82 2.08 1.67 1.447 1.278
839.116 1.1929 1.3095 1.62 1.91 2.21 2.42 2.59 2.95 3.17 3.14
858.406 3.14 2.9 2.53 2.27 1.91 1.4984 1.2143 1.0137 0.9074 0.8827
877.696 0.7531 0.60206 0.6702 0.7275 0.6645 0.59268 0.5483 0.5658 0.569535 0.466
896.986 0.376 0.415 0.443 0.441 0.415 0.422 0.381 0.33 0.387 0.453
916.276 0.4954 0.4762 0.5078 0.5458 0.5099 0.5166 0.573995 0.64463 0.7517 0.8302
935.566 0.8655 0.9815 1.1592 1.2639 1.5209 1.9 2.34 2.82 3.32 4
954.856 4.71 5.32 5.83 6.24 6.44 6.51 6.41 6.08 5.59 4.95
974.146 4.27 3.6 3.05 2.58 2.16 1.93 1.78 1.63 1.69 1.9
993.436 2.08 2.37 2.71 3.13 3.7 4.35 5.18 6.25 7.5 8.89
1012.726 10.45 11.99 13.36 14.54 15.38 15.86 15.95 15.59 14.82 13.77
1032.016 12.51 11.19 10.02 9.1 8.6 8.43 8.44 8.56 8.69 8.71
1051.306 8.47 8.09 7.65 7 6.24 5.45 4.76 4.06 3.37 2.9
1070.596 2.5 2.21 2.02 1.81 1.61 1.4211 1.3508 1.2651 1.1746 1.1484
1089.886 1.1354 1.1601 1.1449 1.1048 1.0376 1.0519 1.0735 1.0643 1.1075 1.1332
1109.176 1.1775 1.2237 1.2785 1.3242 1.3261 1.2969 1.4436 1.6 1.69 1.77
1128.467 1.88 2.02 2.22 2.43 2.62 2.94 3.23 3.54 3.91 4.18
1147.757 4.47 4.77 4.97 5 4.91 4.95 4.83 4.58 4.34 4.02
1167.047 3.77 3.54 3.33 3.15 3.01 2.89 2.86 2.88 2.92 3.08
1186.337 3.41 3.97 4.71 5.52 6.29 7.07 7.76 8.27 8.6 8.65
1205.627 8.37 8.01 7.4 6.46 5.53 4.74 4.04 3.62 3.41 3.31
1224.917 3.31 3.43 3.52 3.67 3.93 4.01 4.04 4.07 4 3.74
1244.207 3.51 3.28 3.02 2.76 2.48 2.34 2.34 2.37 2.43 2.58
1263.497 2.74 2.9 3.09 3.19 3.28 3.3 3.25 3.14 3.05 3.06
1282.787 2.99 2.81 2.63 2.47 2.34 2.27 2.17 2.07 2.09 2.13
1302.077 2.18 2.2 2.31 2.49 2.58 2.77 3.03 3.18 3.39 3.65
1321.367 3.94 4.24 4.62 5.12 5.63 6.21 6.94 7.8 8.82 9.99
1340.657 11.44 13.19 15.09 17.26 19.55 21.67 23.5 24.88 25.69 25.99
1359.947 25.9 25.4 24.65 23.74 22.84 22.37 22.68 23.86 25.68 27.88
1379.237 30.22 32.36 34.12 35.31 36 36.06 35.46 34.34 32.69 30.67
1398.527 28.43 26.33 24.63 23.22 22.24 21.64 21.43 21.76 22.55 23.85
1417.817 25.74 28.42 31.78 35.71 40.32 45.31 50.54 55.39 59.26 61.63
1437.107 62.6 62.54 61.23 58.45 54.1 48.56 42.26 36.17 30.68 26.23
1456.397 22.63 19.86 17.97 16.45 15.32 14.44 13.72 13.07 12.46 11.97
1475.687 11.49 11 10.6 10.14 9.7 9.22 8.74 8.3 7.94 7.65
1494.977 7.36 7.12 7.05 7.08 7.1 7.12 7.21 7.36 7.49 7.51
1514.267 7.44 7.33 7.17 6.86 6.46 6.08 5.65 5.22 4.87 4.58
1533.557 4.36 4.2 4.09 3.97 3.9 3.78 3.66 3.64 3.62 3.57
1552.847 3.43 3.36 3.32 3.27 3.3 3.36 3.45 3.55 3.66 3.81
1572.137 4 4.19 4.42 4.74 5.15 5.63 6.15 6.8 7.62 8.63
1591.427 9.85 11.42 13.4 15.86 18.8 22.1 25.54 28.83 31.64 33.56
1610.717 34.54 34.64 33.91 32.31 30.22 27.79 24.91 22.08 19.71 17.82
1630.007 16.38 15.19 14.19 13.18 12 10.66 9.31 8.25 7.6 7.29
1649.297 7.31 7.49 7.91 8.61 9.45 10.43 11.57 12.82 14.22 15.8
1668.587 17.9 20.64 24.43 29.49 36.59 45.53 58.05 74.11 95.82 122.7
1687.877 150.64 179.66 204.17 219.68 225.87 227.35 227.59 225.97 214.43 188.91
1707.167 156.74 125.97 100.45 81.47 68.25 59.66 54.82 53.05 53.57 55.43
1726.457 57.8 59.8 60.86 60.66 59.26 56.79 53.32 48.44 42.59 36.13
1745.747 30.16 25.16 21.27 18.27 16 14.2 12.73 11.54 10.5 9.59
1765.037 8.81 8.05 7.27 6.47 5.75 5.18 4.68 4.29 3.98 3.67
1784.327 3.42 3.19 2.98 2.8 2.62 2.48 2.38 2.26 2.18 2.08
1803.617 2 2.01 1.94 1.86 1.85 1.8 1.74 1.71 1.66 1.63
1822.907 1.63 1.62 1.62 1.61 1.61 1.63 1.62 1.6 1.63 1.61
1842.197 1.5342 1.4911 1.53 1.4983 1.4328 1.3805 1.2992 1.2293 1.1955 1.1444
1861.487 1.0926 1.1081 1.1231 1.0775 1.0896 1.1649 1.1975 1.1618 1.1436 1.1671
1880.777 1.1786 1.1405 1.1228 1.1558 1.1564 1.1227 1.1003 1.1205 1.1303 1.1131
1900.067 1.0671 1.0211 1.0029 0.9939 0.9982 1.0092 1.0133 0.9802 0.9414 0.9281
1919.357 0.9088 0.867 0.8354 0.8806 0.9128 0.8857 0.8746 0.8301 0.7689 0.7827
1938.647 0.7597 0.7234 0.7006 0.6893 0.7499 0.7386 0.7186 0.743 0.7317 0.7264
1957.937 0.8047 0.8545 0.8416 0.8545 0.8784 0.8688 0.8854 0.8748 0.8207 0.8287
1977.227 0.844 0.8282 0.8261 0.8171 0.7923 0.7526 0.7342 0.7637 0.7963 0.8553
1996.517 0.904 0.871 0.8572 0.937 0.9789 0.972 0.9529 0.9303 0.9393 0.9805
2015.807 0.9598 0.9184 0.9518 0.9009 0.8838 0.9192 0.8915 0.8674 0.7876 0.7242
2035.097 0.75 0.7714 0.748 0.7662 0.7811 0.7812 0.7789 0.7654 0.8176 0.8443
2054.387 0.7872 0.7757 0.8359 0.7895 0.7774 0.8082 0.7621 0.7146 0.6994 0.7505
2073.677 0.8194 0.8096 0.784 0.7798 0.8057 0.816 0.8084 0.8178 0.8358 0.8384
2092.967 0.8593 0.8767 0.8226 0.8008 0.8232 0.815 0.8086 0.8193 0.8206 0.8207
2112.257 0.8032 0.7552 0.7654 0.8048 0.831 0.8375 0.8172 0.8058 0.7798 0.7775
2131.547 0.7653 0.7957 0.8203 0.7561 0.7288 0.725 0.7678 0.7548 0.6881 0.7083
2150.837 0.7624 0.7684 0.7647 0.7836 0.7739 0.7701 0.7666 0.8008 0.8156 0.802
2170.127 0.8536 0.8835 0.8876 0.9569 0.9554 0.9201 0.9665 0.9362 0.9001 0.9568
2189.417 0.973 0.967 0.9819 1.0023 1.0283 1.0342 0.9971 0.9207 0.9147 0.9131
2208.707 0.884 0.8973 0.8867 0.8638 0.8503 0.8528 0.8866 0.8552 0.8133 0.8228
2227.997 0.8207 0.8034 0.7765 0.7926 0.7873 0.7601 0.7453 0.7785 0.7902 0.7462
2247.287 0.7539 0.8037 0.8332 0.7895 0.8205 0.915 0.9376 0.9405 1.0026 1.039
2266.577 1.0509 1.092 1.0785 1.0579 1.0453 1.0662 1.118 1.1457 1.1551 1.1463
2285.868 1.107 1.0719 1.0607 1.0673 1.0721 1.0351 1.0149 1.0244 1.0319 1.0005
2305.158 0.9919 0.9515 0.8947 0.8976 0.9238 0.95 0.8453 0.7946 0.7811 0.7634
2324.448 0.7903 0.7705 0.7313 0.693 0.7256 0.7046 0.6579 0.677 0.7055 0.7193
2343.738 0.7281 0.7364 0.7526 0.7361 0.7776 0.7817 0.7347 0.7649 0.7193 0.64637
2363.028 0.6884 0.7688 0.7688 0.7457 0.796 0.8027 0.8014 0.8715 0.8949 0.8646
2382.318 0.9238 0.9767 0.9633 1.0001 1.0292 1.0084 0.9899 1.0044 1.0085 0.9912
2401.608 1.0229 1.0214 0.9277 0.8585 0.8372 0.8411 0.7898 0.7455 0.7308 0.6906
2420.898 0.6899 0.7016 0.7415 0.7577 0.7904 0.7705 0.7203 0.7302 0.6942 0.65645
2440.188 0.65528 0.702 0.7011 0.7257 0.7706 0.7757 0.7644 0.7378 0.6919 0.6957
2459.478 0.7897 0.78 0.7417 0.7461 0.7289 0.7114 0.7486 0.7995 0.7708 0.7112
2478.768 0.7397 0.7976 0.7518 0.709 0.7786 0.7914 0.7467 0.775 0.7667 0.7327
2498.058 0.7659 0.7705 0.7873 0.7473 0.6815 0.7183 0.7674 0.7838 0.779 0.7388
2517.348 0.7074 0.7429 0.7583 0.7825 0.7915 0.7817 0.7821 0.768 0.7679 0.7171
2536.638 0.6929 0.739 0.7177 0.7402 0.8073 0.7993 0.7786 0.747 0.7243 0.7274
2555.928 0.7395 0.6935 0.65394 0.7368 0.7685 0.7345 0.7488 0.8029 0.8131 0.7782
2575.218 0.8134 0.8154 0.8095 0.8037 0.7757 0.8076 0.8244 0.8162 0.8449 0.8978
2594.508 0.8854 0.8132 0.8612 0.8946 0.8299 0.8303 0.7897 0.7857 0.8286 0.8107
2613.798 0.7999 0.8247 0.8834 0.8699 0.829 0.9049 0.9196 0.8655 0.9074 0.9575
2633.088 0.9634 0.9458 0.8859 0.9046 0.9357 0.8992 0.9032 0.8863 0.8784 0.8885
2652.378 0.8832 0.8666 0.8754 0.933 0.9524 0.9351 0.922 0.9136 0.9099 0.8584
2671.668 0.836 0.8409 0.827 0.7715 0.7005 0.7294 0.7273 0.7047 0.7248 0.717
2690.958 0.7078 0.744 0.7758 0.7864 0.7329 0.747 0.7748 0.7971 0.7953 0.7607
2710.248 0.7691 0.7709 0.8493 0.8512 0.7485 0.7837 0.8523 0.8606 0.8572 0.8454
2729.538 0.93 0.9772 1.0012 0.986 0.9318 0.9299 0.9829 0.9953 0.965 0.9765
2748.828 0.9612 0.9709 1.0323 1.0354 0.9983 0.9252 0.8966 0.8894 0.9223 0.8847
2768.118 0.7729 0.788 0.8684 0.9106 0.8828 0.8854 0.8548 0.7978 0.8933 0.9176
2787.408 0.7892 0.7714 0.8289 0.8737 0.8588 0.8517 0.8464 0.7978 0.793 0.9294
2806.698 0.9934 0.9445 0.9725 0.9838 0.9913 1.0272 1.0484 1.0854 1.1199 1.0966
2825.988 1.1034 1.0758 1.0216 1.0215 1.0499 1.105 1.2018 1.2368 1.2012 1.192
2845.278 1.2201 1.2645 1.3608 1.4528 1.4497 1.4706 1.4949 1.4596 1.4562 1.5152
2864.568 1.5015 1.4283 1.4218 1.4344 1.4047 1.4422 1.5023 1.4954 1.5069 1.5561
2883.858 1.63 1.76 1.83 1.88 1.99 2.12 2.23 2.32 2.42 2.49
2903.148 2.59 2.69 2.66 2.63 2.71 2.74 2.63 2.55 2.59 2.63
2922.438 2.66 2.64 2.66 2.75 2.76 2.84 3.03 3.22 3.32 3.39
2941.728 3.66 3.96 4.24 4.61 5.01 5.51 6.18 6.8 7.45 8.14
2961.018 8.49 8.67 8.98 8.98 8.74 8.49 8.07 7.59 6.92 6.26
2980.308 5.85 5.3 4.75 4.32 3.97 3.77 3.66 3.43 3.12 2.92
2999.598 2.77 2.64 2.49 2.38 2.21 2.08 1.99 1.9 1.84 1.73
3018.888 1.6 1.4682 1.4271 1.3883 1.2717 1.2 1.2302 1.1838 1.1724 1.1834
3038.178 1.2044 1.2392 1.083 0.9856 0.9919 0.9675 0.9687 0.9347 0.944 0.9076
3057.468 0.8664 0.9099 0.9018 0.9013 0.9005 0.9215 0.9966 0.8776 0.7485 0.8617
3076.758 0.9793 1.0419 1.0595 1.0235 0.9321 0.9371 0.9847 0.986 0.9439 0.8923
3096.048 0.8469 0.7599 0.796 0.9298 0.9245 0.8718 1.054 1.2085 1.2431 1.3815
3115.338 1.4104 1.5258 1.68 1.557 1.4611 1.5047 1.62 1.64 1.488 1.2655
3134.628 1.1526 1.1033 0.9171 0.8129 0.7668 0.60813 0.474 0.5437 0.6097 0.5264
3153.918 0.4848 0.337 0.345 0.402 0.364 0.399 0.364 0.446 0.432 0.384
3173.208 0.482 0.446 0.428 0.397 0.394 0.449 0.4947 0.451 0.34 0.327
3192.498 0.329 0.386 0.376 0.447 0.5324 0.42 0.391 0.383 0.379 0.464
3211.788 0.5228 0.5016 0.426 0.397 0.387 0.43 0.5463 0.579854 0.5574 0.5139
3231.078 0.384 0.426 0.5382 0.441 0.4729 0.4703 0.358 0.292 0.3 0.411
3250.368 0.355 0.282 0.313 0.248 0.235 0.354 0.352 0.262 0.187 0.216
3269.658 0.2 0.069 0.021 0.225 0.378 0.235 0.181 0.256 0.346 0.327
3288.948 0.258 0.261 0.348 0.335 0.23 0.271 0.22 0.149 0.227 0.296
3308.238 0.261 0.25 0.344 0.361 0.37 0.382 0.43 0.398 0.32 0.37
3327.528 0.381 0.353 0.45 0.431 0.41 0.418 0.335 0.297 0.265 0.327
3346.818 0.395 0.5031 0.5017 0.417 0.366 0.438 0.5318 0.5569 0.459 0.413
3366.108 0.425 0.4905 0.4928 0.5101 0.6701 0.59009 0.545 0.56702 0.6722 0.7916
3385.398 0.8013 0.8346 0.9277 0.965 0.9693 1.0291 1.078 1.2213 1.3306 1.4022
3404.688 1.5072 1.4676 1.404 1.4871 1.61 1.5362 1.57 1.63 1.444 1.3495
3423.978 1.388 1.3536 1.2394 1.1101 0.9838 0.806 0.65262 0.56475 0.5153 0.4724
3443.269 0.60984 0.61759 0.422 0.451 0.5216 0.5151 0.59655 0.62134 0.558 0.4833
3462.559 0.408 0.5385 0.61617 0.5199 0.4952 0.364 0.391 0.432 0.338 0.365
3481.849 0.364 0.314 0.238 0.248 0.246 0.258 0.294 0.22 0.273 0.441
3501.139 0.364 0.396 0.378 0.195 0.317 0.362 0.241 0.159 0.096 0.142
3520.429 0.22 0.191 0.127 0.211 0.213 0.155 0.227 0.322 0.343 0.241
3539.719 0.005 0 0.162 0.142 0.198 0.232 0.212 0.252 0.328 0.316
3559.009 0.258 0.347 0.458 0.446 0.429 0.294 0.154 0.238 0.336 0.313
3578.299 0.273 0.279 0.223 0.176 0.21 0.192 0.171 0.25 0.338 0.341
3597.589 0.359 0.299 0.281 0.369 0.363 0.387 0.302 0.205 0.216 0.154
3616.879 0.171 0.205 0.177 0.321 0.369 0.226 0.117 0.197 0.237 0.209
3636.169 0.38 0.383 0.286 0.4 0.425 0.252 0.2 0.254 0.266 0.251
3655.459 0.223 0.247 0.335 0.412 0.357 0.358 0.365 0.305 0.244 0.3
3674.749 0.257 0.182 0.304 0.299 0.21 0.224 0.322 0.3 0.152 0.16
3694.039 0.344 0.402 0.38 0.393 0.353 0.285 0.242 0.287 0.374 0.317
3713.329 0.225 0.256 0.253 0.268 0.378 0.389 0.4 0.393 0.342 0.277
3732.619 0.271 0.361 0.326 0.355 0.408 0.286 0.173 0.15 0.075 0.127
3751.909 0.343 0.433 0.4858 0.386 0.366 0.377 0.342 0.381 0.405 0.442
3771.199 0.465 0.356 0.22 0.344 0.389 0.31 0.309 0.294 0.327 0.5266
3790.489 0.5563 0.437 0.4 0.337 0.305 0.246 0.222 0.292 0.214 0.27
3809.779 0.382 0.337 0.293 0.214 0.198 0.206 0.312 0.428 0.364 0.275
3829.069 0.375 0.468 0.394 0.307 0.275 0.259 0.296 0.412 0.4797 0.371
3848.359 0.406 0.456 0.28 0.343 0.451 0.447 0.4893 0.418 0.407 0.388
3867.649 0.379 0.403 0.382 0.393 0.448 0.5565 0.5274 0.452 0.469 0.5591
3886.939 0.5113 0.358 0.362 0.46 0.5102 0.4834 0.4947 0.368 0.294 0.39
3906.229 0.433 0.462 0.4875 0.58604 0.5373 0.4912 0.5218 0.5175 0.59939 0.58384
3925.519 0.5361 0.5537 0.56858 0.4978 0.4773 0.5296 0.5046 0.5162 0.5065 0.409
3944.809 0.28 0.321 0.343 0.274 0.381 0.4862 0.452 0.443 0.457 0.488
3964.099 0.5377 0.5056 0.43 0.509 0.6164 0.64834 0.6798 0.63908 0.5177 0.5374
3983.389 0.56359 0.469 0.5033 0.4708 0.428 0.60779 0.7382 0.7279 0.62564 0.5486
##END=
