##TITLE=N-Methylpyrrole-2-carboxylic acid
##JCAMP-DX=4.24
##DATA TYPE=INFRARED SPECTRUM
##ORIGIN=EPA-IR VAPOR PHASE LIBRARY
##OWNER=SRD/NIST
Collection (C) 2018 copyright by the U.S. Secretary of Commerce
on behalf of the United States of America. All rights reserved.
##CAS REGISTRY NO=6973-60-0
##MOLFORM=C 6 H 7 N O 2
##$NIST SOURCE=MSDC-IR
##STATE=gas
##XUNITS=1/CM
##YUNITS=ABSORBANCE
##XFACTOR=1.
##YFACTOR=0.001
##DELTAX=1.92898
##FIRSTX=549.8
##LASTX=4000.7
##FIRSTY=4.363
##MAXX=4000.7
##MINX=549.759
##MAXY=0.060763
##MINY=0
##NPOINTS=1790
##XYDATA=(X++(Y..Y))
549.759 4.363 3.963 2.963 2.083 2.053 2.593 2.743 2.563 2.283 2.433
569.049 2.793 3.003 2.933 3.003 2.743 2.253 2.053 1.8512 2.213 2.173
588.339 2.103 2.313 2.493 2.563 2.663 2.553 2.153 2.503 2.863 3.253
607.628 3.263 2.663 2.673 3.013 3.133 3.033 2.763 2.843 3.403 3.013
626.918 2.463 2.243 2.023 1.8816 1.7937 1.983 1.8093 1.8045 1.578 1.472
646.208 2.113 2.133 2.403 2.513 2.293 2.893 2.993 2.853 3.323 3.643
665.498 4.343 5.633 6.283 6.223 6.293 6.683 7.023 7.213 7.143 6.843
684.787 7.013 7.163 6.623 5.943 5.433 5.023 4.943 4.573 4.033 4.153
704.077 4.303 4.643 5.593 6.503 7.453 8.283 9.133 9.503 10.123 10.903
723.367 11.033 11.973 13.463 15.593 19.923 21.593 16.203 11.303 10.173 10.233
742.657 10.433 10.113 9.483 8.733 7.863 7.223 6.523 6.093 6.853 8.133
761.947 7.683 5.553 4.443 4.213 4.163 4.063 3.683 3.563 3.503 3.143
781.236 2.683 2.083 1.794 2.053 1.8018 1.6841 2.023 1.8976 1.9567 1.895
800.526 1.6501 1.6521 1.3969 1.2915 1.3554 1.33 1.5198 1.3199 1.1571 1.391
819.816 1.402 1.1334 0.8988 0.98763 1.1543 1.00947 0.98156 1.03534 1.1007 1.0886
839.106 0.9466 1.1685 1.2688 1.1455 1.06376 1.1678 1.4949 1.5462 0.97176 0.763
858.395 0.8816 1.0925 1.3836 1.4777 1.5398 1.4924 1.6253 1.6171 1.4165 1.3046
877.685 1.3589 1.1379 0.841 1.03982 1.4327 1.6049 1.5742 1.4155 1.3588 1.2492
896.975 0.9695 1.2868 1.4615 1.2378 1.2798 1.4116 1.5358 1.6274 1.5636 1.02866
916.265 0.8914 1.2579 1.4945 1.3441 1.5361 1.7351 1.5458 1.6568 1.5871 1.4507
935.555 1.4991 1.5893 1.3775 1.1951 1.2227 1.4414 1.1685 1.0641 1.6446 1.6741
954.844 1.293 1.227 1.6242 1.6654 1.1527 1.05923 1.198 1.2628 1.7258 1.9279
974.134 1.983 2.213 2.143 1.9289 1.7391 1.797 2.503 3.183 3.263 3.753
993.424 4.143 4.143 4.283 4.393 4.563 4.663 5.153 5.443 5.183 5.523
1012.714 5.773 5.383 4.713 4.413 4.723 4.503 4.483 4.493 4.293 3.883
1032.003 3.703 4.183 4.503 4.543 4.573 4.813 5.413 5.883 5.913 6.093
1051.293 7.263 8.853 9.733 10.483 12.063 14.583 17.293 20.433 24.503 28.553
1070.583 32.123 34.803 37.753 40.273 40.553 40.803 40.713 39.533 39.193 38.853
1089.873 35.353 29.993 25.813 21.003 15.953 13.263 12.033 10.523 9.443 8.333
1109.163 6.643 5.013 4.163 3.493 3.193 3.023 3.133 3.543 3.293 3.553
1128.452 3.263 3.453 4.313 4.223 3.683 3.793 4.183 4.273 4.483 4.443
1147.742 4.103 4.663 4.873 4.603 4.463 4.403 5.093 5.393 5.343 6.253
1167.032 7.293 7.533 8.173 9.513 10.903 11.723 12.393 13.143 14.893 17.073
1186.322 17.533 17.733 18.473 18.503 18.663 18.133 16.413 15.833 15.223 14.743
1205.611 13.973 11.313 9.373 9.213 8.653 7.533 5.853 5.593 6.863 6.523
1224.901 5.233 4.963 5.333 5.263 5.193 5.473 5.673 6.113 6.233 6.133
1244.191 6.113 5.973 6.493 7.243 7.343 7.283 7.453 7.723 7.933 8.183
1263.481 8.463 8.763 8.953 8.753 8.593 8.503 8.123 7.693 7.713 7.653
1282.771 7.563 7.263 6.903 6.783 6.853 7.013 7.173 7.143 7.003 6.903
1302.060 6.783 6.603 6.553 6.553 6.093 5.563 5.203 4.933 4.743 4.603
1321.350 4.583 4.543 4.503 4.513 4.723 4.833 4.923 5.053 4.913 4.733
1340.640 4.703 4.723 4.753 4.733 4.613 4.583 4.543 4.263 4.123 4.043
1359.930 3.953 3.903 3.843 3.863 3.753 3.713 3.803 3.913 4.043 4.223
1379.219 4.473 4.673 4.803 4.893 4.903 5.053 5.463 5.913 6.273 6.753
1398.509 7.543 8.553 9.583 11.013 12.803 14.583 16.293 17.953 19.553 20.953
1417.799 22.093 22.983 23.303 23.063 22.453 21.873 20.613 18.393 16.153 14.393
1437.089 12.593 10.713 8.913 7.233 6.033 5.133 4.503 4.053 3.813 3.963
1456.378 4.193 4.273 4.293 4.543 5.153 5.883 6.363 6.843 7.353 7.843
1475.668 8.133 8.193 8.253 8.193 8.073 7.873 7.503 7.183 6.543 5.693
1494.958 5.083 4.513 3.973 3.723 3.423 3.183 3.213 3.213 3.173 3.113
1514.248 3.173 3.553 4.043 4.493 4.903 5.313 5.863 6.263 6.563 6.833
1533.538 6.673 6.543 6.623 6.633 6.673 6.403 5.723 5.143 4.573 4.083
1552.827 3.723 3.383 3.143 3.083 3.003 2.773 2.453 2.073 1.9177 1.7566
1572.117 1.6662 1.7121 1.7603 1.7368 1.7132 1.521 1.5391 1.7236 1.6937 1.7689
1591.407 1.6692 1.5121 1.6524 1.7706 1.778 1.6653 1.7328 1.8139 1.7884 1.8252
1610.697 1.8525 1.9569 1.8847 1.8612 1.9115 1.973 2.013 2.013 2.073 2.143
1629.986 2.263 2.283 2.173 2.123 2.253 2.183 1.993 1.993 2.213 2.223
1649.276 2.003 2.123 2.203 1.983 2.013 1.9594 1.7895 1.9721 2.133 2.203
1668.566 2.313 2.443 2.563 2.693 2.863 2.943 3.023 3.213 3.243 3.313
1687.856 3.523 3.633 3.623 3.813 4.023 3.993 4.353 4.623 4.863 5.433
1707.146 5.893 6.633 7.733 8.963 10.843 13.273 16.143 19.333 23.263 27.843
1726.435 33.033 38.963 45.093 50.633 55.503 58.803 60.163 60.543 60.763 60.763
1745.725 60.403 59.173 55.593 49.423 42.133 34.773 28.023 22.823 18.443 14.863
1765.015 12.113 9.953 8.273 7.023 6.083 5.373 4.793 4.403 4.023 3.553
1784.305 3.213 3.163 3.043 2.873 2.813 2.743 2.603 2.473 2.473 2.503
1803.594 2.623 2.573 2.553 2.423 2.243 2.103 1.993 1.9128 1.9013 1.8857
1822.884 1.7031 1.666 1.7083 1.5581 1.3987 1.4043 1.3743 1.4415 1.5278 1.3662
1842.174 1.2722 1.349 1.4725 1.5385 1.3836 1.3399 1.416 1.3566 1.274 1.2402
1861.464 1.2824 1.3337 1.263 1.1095 1.04639 1.2274 1.3071 1.2167 1.1941 1.2106
1880.754 1.163 1.1037 1.1637 1.1395 1.0894 1.05356 0.96597 0.98604 1.0874 1.1194
1900.043 1.00371 0.9295 1.06247 1.1624 1.1794 1.1005 0.9524 0.9165 0.9066 1.02577
1919.333 1.0926 1.122 1.1692 1.0918 1.2073 1.155 0.9177 0.98448 1.1224 1.156
1938.623 1.1903 1.1114 1.00416 1.05534 1.0827 1.0849 0.98387 0.99342 1.1612 1.1586
1957.913 1.1135 1.0924 1.01787 0.973491 1.02705 1.1091 1.038 0.9447 0.846 0.851
1977.202 0.9141 0.8773 0.973312 0.978423 0.9441 0.97101 0.975876 1.04156 0.9011 0.762
1996.492 0.8847 0.9212 0.844 0.833 0.803 0.799 0.87 0.8902 0.858 0.8848
2015.782 0.8774 0.803 0.74 0.718 0.851 0.8918 0.83 0.78 0.815 0.8918
2035.072 1.05649 1.0089 0.8855 0.777 0.673 0.755 0.744 0.758 0.8892 1.0572
2054.362 1.03714 0.99901 0.99314 0.899 0.814 0.761 0.9215 0.96949 0.96938 0.979927
2073.651 0.848 0.9003 0.955 1.00212 1.01009 0.97239 0.9534 0.9034 0.8935 0.849
2092.941 0.8868 0.9049 0.836 0.75 0.84 0.9281 1.00718 1.03473 0.8964 0.9254
2112.231 1.03892 1.04101 0.951 0.96475 0.9617 0.8757 0.871 0.9498 0.9415 0.9227
2131.521 1.0883 1.0776 0.9205 0.99034 0.939 0.9021 0.979925 1.05839 1.01146 1.02817
2150.810 1.03079 0.864 0.9598 0.9234 0.773 0.9625 0.9506 0.845 0.9616 0.9309
2170.100 0.826 0.9032 1.0799 1.04493 0.9452 0.9357 0.846 0.824 0.865 0.753
2189.390 0.852 0.84 0.795 0.819 0.725 0.755 0.623 0.545 0.719 0.833
2208.680 0.746 0.758 0.755 0.684 0.797 0.868 0.857 0.865 0.846 0.8862
2227.970 0.8935 0.9331 1.02369 0.9189 0.795 0.9139 1.00989 0.814 0.677 0.677
2247.259 0.803 0.809 0.782 0.772 0.687 0.768 0.9109 0.9527 0.866 0.8854
2266.549 0.814 0.792 0.927 0.98349 0.908 0.842 0.813 0.807 0.8954 0.9085
2285.839 0.869 0.9616 1.00298 0.959 1.02191 1.03149 1.0674 1.1081 1.0876 1.2914
2305.129 1.377 1.1147 1.2379 1.4859 1.3822 1.4705 1.7656 1.7792 1.7358 1.638
2324.418 1.5961 1.4692 1.4358 1.6403 1.5372 1.5407 1.6089 1.5232 1.3756 1.3748
2343.708 1.4648 1.434 1.2984 1.4421 1.7242 1.8437 1.8605 1.9447 2.053 1.9155
2362.998 2.003 2.083 1.963 1.9026 1.9592 1.8759 1.6086 1.3758 1.1595 1.1001
2382.288 1.1462 1.1281 1.02104 0.85 0.837 0.9427 0.8796 0.736 0.669 0.754
2401.578 0.816 0.816 0.834 0.855 0.9059 0.9502 0.9057 0.962 0.96771 0.9227
2420.867 1.0637 1.1716 1.1427 0.814 0.726 0.872 0.833 0.738 0.768 0.9015
2440.157 0.796 0.808 0.8985 0.824 0.66 0.634 0.717 0.645 0.778 0.972147
2459.447 0.977764 0.9388 1.02025 1.02409 1.00485 1.00289 0.9456 0.8919 0.9539 1.1001
2478.737 1.1908 1.1833 1.1538 1.2351 1.1881 1.2293 1.1663 1.05126 0.973376 0.8779
2498.026 0.981902 1.0742 1.1372 1.03381 0.9536 0.98423 0.805 0.753 0.9797 0.9267
2517.316 0.849 0.9459 0.763 0.588 0.688 0.664 0.696 0.805 0.769 0.97016
2536.606 1.01459 0.848 0.873 0.9039 0.9238 1.02889 1.0603 0.8999 0.812 0.776
2555.896 0.799 0.855 0.591 0.49 0.598 0.703 0.731 0.651 0.608 0.697
2575.186 0.783 0.775 0.871 0.847 0.853 0.845 0.75 0.741 0.72 0.738
2594.475 0.781 0.763 0.521 0.434 0.557 0.638 0.591 0.552 0.757 0.841
2613.765 0.84 0.841 0.846 0.746 0.54 0.605 0.772 0.811 0.694 0.55
2633.055 0.542 0.785 0.9507 0.8962 0.755 0.738 0.836 0.863 0.823 0.709
2652.345 0.734 0.6 0.615 0.871 0.778 0.724 0.647 0.742 1.01486 0.8979
2671.634 0.805 0.952 0.836 0.574 0.816 0.792 0.792 1.1186 0.9485 0.649
2690.924 0.707 0.74 0.779 0.8985 0.96488 1.0992 1.00342 0.9491 1.01338 1.0981
2710.214 1.1237 0.99149 0.782 0.661 0.764 0.765 0.827 0.96939 1.03329 1.03702
2729.504 0.8835 0.729 0.772 0.8954 0.8957 0.9248 1.1508 1.1723 0.866 0.744
2748.794 0.842 0.9198 0.792 0.9226 1.1481 0.9 0.725 0.678 0.671 0.73
2768.083 0.757 0.9159 0.8819 0.979899 0.9354 0.813 0.861 0.675 0.818 1.0983
2787.373 1.0781 0.8873 0.9099 0.8871 0.9135 1.0937 0.9179 0.713 0.764 0.746
2806.663 0.833 0.8897 0.851 1.05569 1.2082 1.2862 1.412 1.4954 1.4799 1.5006
2825.953 1.5748 1.4967 1.5152 1.3711 1.3246 1.6131 1.5465 1.6357 1.7516 1.4077
2845.242 1.094 1.1655 1.1753 1.04398 1.0733 1.0782 0.837 0.607 1.00776 1.2111
2864.532 0.9609 1.152 1.5535 1.5404 1.4058 1.2607 1.264 1.2762 1.5643 1.9479
2883.822 1.8367 1.6768 1.4806 1.6569 1.8931 1.8423 1.5095 1.4272 1.6062 1.3497
2903.112 1.5579 1.7755 1.6048 1.7598 1.8543 1.7653 1.6657 1.5242 1.3337 1.6081
2922.401 1.9198 1.8519 1.9125 2.073 2.323 2.593 2.573 2.713 2.993 3.053
2941.691 3.063 3.023 3.333 3.633 3.423 3.403 3.533 3.433 3.493 3.913
2960.981 4.193 4.103 4.123 3.943 3.833 4.063 3.723 3.413 3.483 3.413
2980.271 3.203 3.033 2.783 2.463 2.203 1.8704 1.9505 1.993 1.9179 1.9082
2999.561 1.707 1.4383 1.4459 1.5786 1.6299 1.5408 1.4154 1.6002 1.6926 1.5608
3018.850 1.3045 1.3927 1.2436 1.1715 1.3747 1.5288 1.6576 1.2681 1.1484 1.1552
3038.140 1.0792 1.1095 1.03565 0.87 0.873 0.9572 0.9584 1.0782 1.3192 1.1038
3057.430 0.685 0.8774 0.975606 0.92 0.9524 0.8762 0.818 0.825 0.679 0.806
3076.720 1.1873 0.8776 0.613 0.614 0.741 0.9518 0.824 0.686 0.69 0.765
3096.009 0.828 1.00989 0.953 1.01852 1.1053 0.9151 1.03645 0.753 0.9535 1.4546
3115.299 1.5076 1.6443 1.7512 1.6671 1.4608 1.5616 1.386 1.293 1.4854 1.1981
3134.589 1.0257 1.06755 1.1628 1.6779 1.5619 1.1462 1.2184 1.3781 1.3322 1.2773
3153.879 1.3178 1.4813 1.5269 1.3379 1.274 1.3052 1.04335 0.461 0.55 0.96488
3173.169 1.3989 1.2715 0.866 0.9157 0.77 0.565 0.531 0.9384 1.1163 0.885
3192.458 0.828 0.804 0.87 0.98369 0.858 0.9456 1.094 0.8923 0.563 0.649
3211.748 0.8873 1.00519 0.856 0.57 0.8923 0.99409 0.8752 0.9235 0.847 0.815
3231.038 0.714 0.66 0.792 0.867 0.9205 1.01024 0.668 0.335 0.579 0.9516
3250.328 0.98572 0.708 0.741 0.672 0.76 0.743 0.73 0.707 0.397 0.679
3269.617 0.759 0.421 0.624 0.622 0.339 0.48 0.531 0.589 0.628 0.423
3288.907 0.224 0.631 0.602 0.535 0.8786 0.861 0.69 0.568 0.683 0.662
3308.197 0.725 0.817 0.84 0.9078 0.774 0.8842 1.0911 0.9092 0.843 0.574
3327.487 0.474 0.61 0.643 0.536 0.352 0.249 0.31 0.54 0.54 0.599
3346.777 0.8952 1.1719 1.166 1.00161 0.773 0.709 0.96876 0.828 0.734 0.951
3366.066 1.03999 0.83 0.694 0.759 0.703 0.9177 0.9646 0.72 0.402 0.717
3385.356 1.1865 1.1923 1.1738 1.2409 1.2132 0.837 0.498 0 0.193 0.829
3404.646 0.99234 1.1641 1.114 0.856 0.749 0.622 0.321 0.49 0.99397 1.02991
3423.936 1.2299 1.2201 0.97478 0.85 0.739 1.1256 1.4908 1.3381 0.816 0.683
3443.225 0.678 0.798 1.03112 0.9964 1.0855 0.9333 0.825 0.9203 1.1511 1.1754
3462.515 0.981291 1.2137 1.4416 1.36 0.9327 0.96513 0.81 0.592 1.00513 1.0805
3481.805 0.685 0.652 0.846 0.728 0.692 0.614 0.8838 1.257 1.1726 1.5362
3501.095 1.522 1.04141 0.9308 0.638 0.517 0.859 1.0753 0.8 0.614 0.854
3520.385 1.06728 1.00648 0.9023 0.9302 0.862 0.9655 1.2317 1.02812 0.558 0.327
3539.674 0.422 0.689 1.05599 1.06642 0.776 0.8995 1.0767 1.4286 1.7188 1.6928
3558.964 2.023 2.103 2.553 3.443 3.963 4.853 6.023 7.163 8.523 10.283
3578.254 12.303 13.913 14.423 14.653 14.543 14.233 14.673 14.003 12.383 11.613
3597.544 10.433 8.343 6.383 4.673 3.073 1.9527 1.5975 1.4536 1.3557 1.3203
3616.833 1.2967 1.2914 1.2763 0.96321 0.87 0.977826 0.611 0.347 0.589 0.976979
3636.123 0.8951 0.684 0.9406 1.3976 1.2124 0.514 0.355 0.834 1.1644 0.98802
3655.413 0.842 0.822 0.382 0.427 0.866 0.622 0.218 0.668 1.1062 0.749
3674.703 0.828 0.803 0.741 0.745 0.635 0.795 1.05526 1.03943 0.647 0.546
3693.993 0.58 0.813 0.9207 0.658 0.766 1.03441 0.8754 0.637 0.7 1.01271
3713.282 0.9157 0.797 0.94 1.1151 1.3029 1.086 0.732 0.595 0.846 0.99537
3732.572 0.685 0.358 0.356 0.6 0.862 0.953 0.973995 1.0907 1.05633 0.682
3751.862 0.773 0.77 0.456 0.609 0.9503 0.98799 0.697 0.421 0.309 0.43
3771.152 0.672 0.805 0.825 0.813 0.566 0.485 0.815 0.851 0.71 0.6
3790.441 0.623 1.0799 1.2166 1.00678 1.06677 0.9356 0.593 0.53 0.549 0.635
3809.731 0.791 1.00339 1.1003 0.99928 0.698 0.759 0.819 0.543 0.615 0.853
3829.021 1.2961 1.3041 0.453 0.171 0.535 0.665 0.306 0.391 0.764 0.53
3848.311 0.485 0.637 0.685 0.851 0.86 0.872 0.65 0.583 0.62 0.405
3867.601 0.847 1.1116 0.98503 0.747 0.786 0.858 0.76 0.647 0.643 0.9129
3886.890 0.9364 0.614 0.199 0.236 0.561 0.815 0.9435 0.685 0.565 0.851
3906.180 1.1782 0.9598 0.414 0.766 0.9232 0.867 1.1138 0.694 0.329 0.559
3925.470 0.811 0.717 0.582 0.688 0.768 0.774 0.58 0.805 1.00745 1.02596
3944.760 1.1253 0.834 0.696 0.769 0.731 0.6 0.666 1.077 1.1367 0.858
3964.049 0.659 0.673 0.737 0.529 0.731 1.1176 1.05521 0.476 0.535 1.1961
3983.339 1.1439 0.735 0.495 0.9625 1.0668 0.973874 0.96503 0.851 0.9441 1.2038
##END=
