##TITLE=5-Nitro-2-furaldehyde
##JCAMP-DX=4.24
##DATA TYPE=INFRARED SPECTRUM
##ORIGIN=EPA-IR VAPOR PHASE LIBRARY
##OWNER=SRD/NIST
Collection (C) 2018 copyright by the U.S. Secretary of Commerce
on behalf of the United States of America. All rights reserved.
##CAS REGISTRY NO=698-63-5
##MOLFORM=C 5 H 3 N O 4
##$NIST SOURCE=MSDC-IR
##STATE=gas
##XUNITS=1/CM
##YUNITS=ABSORBANCE
##XFACTOR=1.
##YFACTOR=0.001
##DELTAX=3.85796
##FIRSTX=551.7
##LASTX=4000.7
##FIRSTY=1.71
##MAXX=4000.7
##MINX=551.688
##MAXY=0.10561
##MINY=0.000738
##NPOINTS=895
##XYDATA=(X++(Y..Y))
551.688 1.71 1.76 1.9 1.93 1.73 1.69 1.82 1.95 2.11 2.18
590.268 2.14 2.12 2.1 2.02 1.87 1.77 1.71 1.64 1.6 1.67
628.847 1.72 1.64 1.67 1.64 1.53 1.57 1.59 1.58 1.6 1.66
667.427 1.78 1.83 1.84 1.91 2.01 2.07 2.07 2.15 2.36 2.67
706.006 3.17 3.97 5.01 6.21 7.9 10.18 12.71 16.65 24.07 31.18
744.586 34.18 34.48 34.52 31.83 24.38 17.46 13.51 11.05 9.14 7.82
783.165 7.49 8.35 10.44 14.04 20.37 31.76 43.69 47.59 49.28 47.46
821.745 35.61 23.73 16.44 11.34 7.66 5.13 3.66 2.88 2.41 2.11
860.324 2.01 1.99 1.98 2.04 2.1 2.1 2.12 2.14 2.14 2.11
898.904 2.11 2.15 2.17 2.27 2.44 2.54 2.66 2.9 3.27 3.75
937.484 4.34 5.1 6.28 8.24 11.18 14.36 17.31 19.62 18.84 14.87
976.063 10.95 7.94 5.83 5.23 5.87 7.32 9.59 12.87 16.39 17.15
1014.643 15.63 15.74 14.8 11.27 8.06 5.71 4.14 3.26 2.71 2.4
1053.222 2.43 2.65 2.97 3.1 2.92 2.66 2.45 2.21 2.06 2.02
1091.802 1.93 1.86 1.89 1.94 1.92 1.9 1.81 1.76 1.82 1.89
1130.381 2.03 2.32 2.69 3.15 4.09 5.58 7.83 11.08 15.14 18.2
1168.961 18.62 17.56 14.78 9.89 6.09 4.79 4.61 4.85 5.1 5.35
1207.540 5.56 5.53 5.6 6.17 7.46 9.76 13.69 19.66 27.23 33.84
1246.120 36.1 34.44 30.24 22 12.6 7.29 5.22 4.32 4.08 4.31
1284.699 4.9 5.68 6.7 8.09 9.86 12.03 14.81 18.44 23.25 29.1
1323.279 34.85 40.07 45.65 51.77 58.3 64.12 67.69 71.66 75.85 73.13
1361.859 64.2 55.58 44.35 27.94 15.45 10.48 8.75 8.19 8.42 9.28
1400.438 10.23 10.78 11.12 11.02 9.96 8.49 7.38 6.44 5.56 4.93
1439.018 4.51 4.36 4.36 4.41 4.52 4.66 4.83 5.14 5.62 6.3
1477.597 7.12 8.04 8.99 9.87 10.5 10.64 10.4 9.96 9.34 9
1516.177 9.39 10.71 13.23 17.41 23.94 33.31 46.07 62.73 81.22 97.93
1554.756 105.61 104.1 99.95 88.38 67.73 51.42 41.83 35.17 29.78 25.77
1593.336 21.63 17.03 13.84 12.31 11.45 10.7 9.9 9.02 8.1 7.11
1631.915 6.21 5.45 4.82 4.4 4.12 4 3.95 3.99 4.23 4.65
1670.495 5.23 5.98 7 8.49 11.04 15.26 22.32 32.8 44.99 56.29
1709.075 67.71 77.87 84 86.73 83.46 73.26 57.76 37.97 22.55 14.53
1747.654 10.76 8.46 6.95 5.9 5.19 4.7 4.31 3.96 3.68 3.38
1786.234 3.02 2.71 2.49 2.37 2.31 2.24 2.22 2.21 2.19 2.16
1824.813 2.13 2.08 2.04 2.05 2.09 2.15 2.15 2.15 2.14 2.09
1863.393 2.03 1.93 1.85 1.73 1.59 1.51 1.48 1.48 1.48 1.51
1901.972 1.55 1.6 1.65 1.67 1.67 1.65 1.6 1.52 1.45 1.42
1940.552 1.43 1.45 1.48 1.53 1.57 1.56 1.53 1.52 1.52 1.51
1979.131 1.48 1.46 1.42 1.37 1.32 1.27 1.25 1.25 1.23 1.23
2017.711 1.24 1.24 1.22 1.19 1.17 1.14 1.09 1.02 0.9891 0.9752
2056.291 0.9517 0.9392 0.9326 0.9313 0.9234 0.9044 0.8898 0.8766 0.8582 0.8282
2094.870 0.825 0.8269 0.8361 0.8706 0.8931 0.9566 1.04 1.08 1.12 1.17
2133.450 1.2 1.22 1.2 1.14 1.06 0.9886 0.9594 0.9712 1.02 1.08
2172.029 1.15 1.23 1.27 1.26 1.18 1.05 0.9373 0.8804 0.874 0.8585
2210.609 0.8467 0.8779 0.885 0.8756 0.907 0.9357 0.9368 0.9306 0.9136 0.913
2249.188 0.8931 0.8306 0.8133 0.8232 0.8084 0.7817 0.7773 0.7646 0.7427 0.7468
2287.768 0.738 0.7538 0.8021 0.8454 0.8735 0.8786 0.9047 0.9241 0.9388 0.9868
2326.347 1.02 1.04 1.06 1.08 1.13 1.15 1.16 1.2 1.25 1.27
2364.927 1.27 1.26 1.23 1.16 1.08 1.03 0.9822 0.9571 0.9579 0.9627
2403.507 0.9403 0.9044 0.9001 0.8907 0.8625 0.8537 0.8756 0.8531 0.8558 0.9195
2442.086 0.9322 0.9216 0.9343 0.9562 0.9534 0.9378 0.9225 0.9069 0.9035 0.9218
2480.666 0.9343 0.9285 0.9356 0.9303 0.9329 0.957 0.9703 0.9807 0.9858 1.02
2519.245 1.08 1.13 1.17 1.18 1.17 1.11 1.02 0.9827 0.9906 0.9778
2557.825 0.989 0.9895 0.9521 0.97 0.9784 0.9473 0.9607 0.9661 0.9926 1.05
2596.404 1.07 1.07 1.07 1.05 1.07 1.1 1.13 1.2 1.29 1.43
2634.984 1.66 1.92 2.18 2.43 2.69 2.87 2.92 2.85 2.71 2.55
2673.563 2.44 2.47 2.62 2.79 2.97 3.13 3.34 3.6 3.7 3.65
2712.143 3.56 3.41 3.23 3.07 3.01 3.1 3.23 3.4 3.56 3.68
2750.722 3.76 3.76 3.7 3.55 3.34 3.15 3.04 3.02 3.13 3.44
2789.302 3.95 4.63 5.55 6.89 8.63 10.21 10.98 11.21 11.24 10.65
2827.882 9.87 9.96 10.92 12.1 13.01 13.46 13.44 12.79 11.48 9.84
2866.461 8.12 6.59 5.38 4.52 4.04 3.82 3.71 3.62 3.58 3.48
2905.041 3.32 3.14 2.94 2.74 2.53 2.34 2.21 2.11 2.04 1.98
2943.620 1.9 1.8 1.72 1.63 1.56 1.46 1.39 1.33 1.27 1.25
2982.200 1.24 1.23 1.19 1.17 1.19 1.19 1.15 1.12 1.09 1.09
3020.779 1.12 1.13 1.16 1.23 1.24 1.25 1.32 1.35 1.36 1.38
3059.359 1.42 1.47 1.48 1.49 1.51 1.46 1.39 1.4 1.39 1.4
3097.938 1.4 1.37 1.37 1.39 1.37 1.38 1.39 1.48 1.66 1.83
3136.518 2.12 2.42 2.69 2.85 2.85 2.8 2.69 2.46 2.24 1.99
3175.098 1.7 1.52 1.35 1.16 1.01 0.9495 0.9374 0.93 0.9224 0.8461
3213.677 0.8511 0.886 0.8528 0.8505 0.8572 0.8342 0.8127 0.8173 0.7824 0.7537
3252.257 0.7826 0.7844 0.7959 0.7854 0.7834 0.77 0.7676 0.7818 0.7585 0.8092
3290.836 0.8395 0.8305 0.8385 0.832 0.8294 0.8398 0.8352 0.7724 0.7651 0.829
3329.416 0.8352 0.8217 0.8423 0.8777 0.9086 0.8825 0.8621 0.8716 0.8483 0.8953
3367.995 0.9838 1.02 1.11 1.19 1.28 1.43 1.64 1.91 2.19 2.45
3406.575 2.67 2.81 2.8 2.68 2.51 2.23 1.88 1.63 1.48 1.44
3445.154 1.42 1.29 1.2 1.16 1.09 1.01 1 1.02 1.02 1.01
3483.734 0.974 0.9813 0.9563 0.9327 0.9658 0.9656 0.9427 0.8782 0.8674 0.9031
3522.314 0.8693 0.8528 0.8875 0.9173 0.8853 0.8725 0.8847 0.8975 0.8768 0.8305
3560.893 0.8735 0.9146 0.9011 0.8577 0.8168 0.8619 0.9039 0.8834 0.8951 0.9324
3599.473 0.8886 0.851 0.9155 0.9068 0.9053 0.9321 0.9189 0.9668 0.9328 0.9142
3638.052 0.9328 0.8707 0.8757 0.8908 0.8952 0.95 0.927 0.8806 0.8806 0.8944
3676.632 0.927 0.9632 0.9671 0.9753 1 0.9623 0.9508 0.9535 0.9452 0.916
3715.211 0.8137 0.7772 0.8363 0.8837 0.8611 0.8505 0.8909 0.9332 0.9429 0.9438
3753.791 0.866 0.809 0.828 0.8141 0.8027 0.8172 0.8218 0.8197 0.8606 0.8805
3792.370 0.8561 0.8283 0.7915 0.7461 0.7381 0.7819 0.8422 0.8353 0.8208 0.8476
3830.950 0.8391 0.8296 0.8636 0.8123 0.768 0.8559 0.8655 0.8265 0.8282 0.8033
3869.530 0.8442 0.8655 0.8716 0.9171 0.93 0.8921 0.8291 0.8548 0.8569 0.8175
3908.109 0.8334 0.8841 0.8948 0.8655 0.8434 0.8482 0.8807 0.8671 0.8782 0.8655
3946.689 0.818 0.8418 0.8531 0.9084 0.9769 0.9038 0.8607 0.879 0.8792 0.9102
3985.268 0.8495 0.8282 0.937 0.9426 0.9077
##END=
