##TITLE=2-Hydroxyethyl phenyl sulphide
##JCAMP-DX=4.24
##DATA TYPE=INFRARED SPECTRUM
##ORIGIN=EPA-IR VAPOR PHASE LIBRARY
##OWNER=SRD/NIST
Collection (C) 2018 copyright by the U.S. Secretary of Commerce
on behalf of the United States of America. All rights reserved.
##CAS REGISTRY NO=699-12-7
##MOLFORM=C 8 H 10 O S
##$NIST SOURCE=MSDC-IR
##STATE=gas
##XUNITS=1/CM
##YUNITS=ABSORBANCE
##XFACTOR=1.
##YFACTOR=0.001
##DELTAX=1.92898
##FIRSTX=549.8
##LASTX=4000.7
##FIRSTY=0.91018
##MAXX=4000.7
##MINX=549.759
##MAXY=0.0161
##MINY=0
##NPOINTS=1790
##XYDATA=(X++(Y..Y))
549.759 0.91018 1.0396 1.2254 0.598 0.8681 1.5573 0.906 0.99305 0.95992 0.851
569.049 0.8972 0 0.251 0.96939 1.3484 1.4448 1.4001 1.3801 0.756 0.506
588.339 0.671 0.9095 1.0711 1.2978 1.1096 0.303 0.167 0.789 0.716 0.639
607.628 0.559 0.56 1.1792 1.2188 0.663 0.075 0.766 1.1115 0.437 0.735
626.918 1.0211 1.327 1.7089 2.04 1.6922 1.294 1.96 1.59 1.2955 1.486
646.208 1.1122 1.3253 1.7686 1.6734 1.78 2.18 2.21 2.44 2.88 3.04
665.498 3.08 3.25 3.68 4.08 4.57 4.77 5.04 5.35 5.73 6.87
684.787 7.81 8.03 8.2 8.98 9.01 8.65 8.54 8.2 7.92 7.74
704.077 7.91 7.46 7.18 7.25 6.55 6.01 6.08 5.88 5.79 6.34
723.367 7.14 7.94 8.52 9.28 9.85 10.69 12.22 12.77 12.17 12.36
742.657 12.13 11.52 10.92 9.74 8.84 8.17 7.41 6.34 5.45 4.72
761.947 3.93 3.34 3.19 3.47 3.43 2.92 2.61 2.69 2.51 2.2
781.236 1.8136 1.4675 1.2456 1.0514 1.3065 1.3559 1.2085 0.99898 0.8231 1.2688
800.526 1.3614 0.8419 0.8892 1.4645 1.3611 1.01614 1.2215 1.3768 1.2676 1.1931
819.816 1.5452 1.5057 1.6805 1.6862 1.5052 1.4809 1.1272 1.2067 1.3714 1.3029
839.106 1.008 0.98765 1.262 1.2444 1.5129 1.439 1.094 1.2137 1.4016 1.7786
858.395 1.7653 1.1453 1.0404 0.657 0.392 0.95285 1.2402 1.2928 1.3386 1.4149
877.685 1.5417 1.6095 1.6079 1.8547 1.556 1.1466 1.2261 1.1941 1.1692 1.1397
896.975 1.3282 1.6078 1.7561 2.13 2.28 1.832 1.7425 2.31 2.69 2.78
916.265 2.76 2.81 3.03 3.27 3.33 3.53 3.15 2.89 3.03 3.1
935.555 3.31 3.25 2.95 3.03 2.87 2.39 2.39 2.15 2.39 2.42
954.844 2.28 2.57 2.72 2.43 2.08 2.49 2.88 2.67 2.64 2.43
974.134 2.21 2.33 2.65 3.54 3.83 3.73 3.83 4 4.32 4.38
993.424 4.73 5.34 5.55 6.03 6.68 6.47 6.4 7.06 8.37 8.7
1012.714 8.39 9.81 11.29 12.77 13.32 13.39 14.11 15.1 15.72 15.43
1032.003 15.69 15.71 15.55 15.39 15.13 15.61 16.1 15.57 15.04 14.84
1051.293 14.1 13.82 14.66 14.98 14.41 14.37 14.98 14.99 14.25 13.46
1070.583 12.59 11.74 11.45 10.63 8.82 8.01 8.08 7.35 6.49 5.45
1089.873 5.3 6.04 5.94 4.72 4.11 4.85 6.06 5.02 3.14 2.89
1109.163 3.67 4.22 3.17 2.9 2.87 2.88 2.77 2.44 1.97 1.5249
1128.452 1.7831 1.3517 1.1479 2.1 2.6 1.98 1.0445 1.6513 2.05 1.806
1147.742 1.6775 1.6724 2.48 2.66 2.24 2.79 3.11 3.7 4.22 3.84
1167.032 3.48 3.54 4.04 4.38 4.76 5.31 4.81 3.81 3.77 3.51
1186.322 2.58 2.64 4.1 4.79 3.95 3.29 3.7 2.96 1.3412 1.8924
1205.611 3.39 3.27 2.9 2.34 1.3914 1.8634 3.07 4 4.22 3.07
1224.901 1.0227 1.6327 3.41 3.06 2.51 1.0841 0.576 2.46 3.29 2.39
1244.191 1.7592 1.8363 2.31 2.64 2.45 2.08 1.7628 2.21 2.64 2.46
1263.481 2.01 2.26 3.14 3.21 3.02 3.56 3.97 3.53 3.13 3.24
1282.771 3.44 3.05 3.23 3.56 3.43 3.48 3.45 3.29 3.05 3
1302.060 3.03 2.82 2.77 2.79 2.62 2.74 2.71 2.58 2.67 2.64
1321.350 2.66 2.81 2.88 3.05 3.09 2.98 3.15 3.53 3.52 3.26
1340.640 3.25 3.49 3.69 3.57 3.4 3.35 3.34 3.25 3.28 3.42
1359.930 3.48 3.49 3.67 3.83 3.97 4.27 4.62 5 5.37 5.5
1379.219 5.82 6.2 6.16 6.17 6.26 6.21 6.04 5.86 5.58 5.29
1398.509 5 4.74 4.5 4.29 4.31 4.16 4.12 4.11 3.96 4.17
1417.799 4.38 4.22 4.24 4.38 4.44 4.71 4.89 5.01 4.92 4.78
1437.089 4.95 4.91 4.77 4.67 4.44 4.28 4.1 3.82 3.63 3.62
1456.378 3.66 3.79 4.06 4.24 4.43 4.83 5.68 6.68 7.29 7.92
1475.668 8.4 8.46 8.49 8.28 7.86 7.53 6.64 5.56 4.61 3.69
1494.958 3.17 2.75 2.34 2.1 1.95 1.8622 1.7176 1.6241 1.6805 1.7254
1514.248 1.7233 1.5611 1.4809 1.4394 1.361 1.5423 1.4321 1.3798 1.6031 1.5184
1533.538 1.3147 1.3223 1.3231 1.2482 1.3029 1.3348 1.22 1.4168 1.5868 1.4696
1552.827 1.4709 1.6112 1.8813 2.11 2.04 2.03 2.34 2.56 2.69 3.07
1572.117 3.55 4.04 4.41 4.68 5.09 5.38 5.29 5.4 5.44 4.86
1591.407 4.35 3.72 3.2 2.94 2.35 2.16 1.98 1.3677 1.3343 1.3632
1610.697 1.2689 1.4759 1.2938 0.925697 0.699 0.698 0.91603 0.94692 0.98711 1.0933
1629.986 1.0246 0.8947 0.8601 0.99438 1.0657 1.1336 1.1727 1.1748 1.1476 1.0326
1649.276 1.0809 1.0352 0.96772 0.776 0.754 0.923422 0.9085 0.8906 0.98648 0.99019
1668.566 0.8 0.795 0.8709 0.657 0.64 0.8954 0.91754 0.775 0.8547 0.96692
1687.856 0.926659 0.97432 0.9072 0.98682 1.1921 1.2066 1.2132 1.1542 1.0519 1.0239
1707.146 0.894 0.792 0.99148 1.0816 0.91649 0.786 0.779 0.802 0.8947 0.8982
1726.435 0.94984 0.927781 0.8326 0.98236 0.93407 0.8628 0.91286 0.98983 0.97955 0.92416
1745.725 0.93688 0.95965 0.768 0.718 0.8588 0.8924 0.929533 0.954 1.0275 0.99964
1765.015 0.98629 0.9049 0.8525 0.8996 0.9376 1.1808 1.2802 1.2117 1.315 1.4437
1784.305 1.3908 1.3457 1.4098 1.308 1.1614 1.2959 1.3554 1.2306 1.2373 1.2492
1803.594 1.1748 1.0897 1.1324 1.0885 0.8743 0.929409 1.042 1.033 0.97601 0.95414
1822.884 1.00289 1.0809 1.1409 1.1368 1.0321 0.973 1.0317 0.98486 1.0341 1.1239
1842.174 1.1116 1.0883 0.99919 0.96244 1.1213 1.2004 1.1917 1.2186 1.1095 1.1024
1861.464 1.3374 1.3384 1.377 1.3516 1.3671 1.5112 1.4474 1.3039 1.26 1.3085
1880.754 1.1682 0.96522 1.0625 1.0742 0.94343 1.1059 1.1854 1.1302 1.161 1.056
1900.043 0.8271 0.8641 1.1115 1.2055 1.1473 1.172 1.1591 0.99474 0.874 1.026
1919.333 1.091 1.069 1.1389 1.2223 1.221 1.2482 1.2941 1.3944 1.4878 1.3964
1938.623 1.4084 1.4477 1.3961 1.3208 1.3792 1.4701 1.4262 1.3349 1.3899 1.3074
1957.913 1.0737 1.1374 1.2267 1.0362 0.882 1.0232 1.0576 1.01267 0.98022 0.97039
1977.202 0.9708 0.9053 0.8553 0.737 0.8215 1.2026 1.1174 0.8837 0.8625 0.8331
1996.492 0.96682 0.819 0.577 0.647 0.93439 0.93647 0.81 0.897 0.95256 0.8924
2015.782 0.8432 0.8711 0.96728 1.00137 0.919074 0.93558 0.8878 0.8974 0.68 0.522
2035.072 0.8369 0.8269 0.778 0.91253 0.8836 0.781 0.708 0.697 0.738 0.816
2054.362 0.787 0.763 0.868 0.8657 0.79 0.712 0.715 0.8405 0.808 0.814
2073.651 0.706 0.597 0.674 0.71 0.811 0.8249 0.8729 0.8618 0.765 0.759
2092.941 0.91121 0.922657 0.95267 0.97644 0.797 0.82 0.99131 1.0523 0.93377 0.8229
2112.231 0.682 0.679 0.8609 0.8918 0.9007 0.95378 0.776 0.653 0.671 0.733
2131.521 0.706 0.607 0.756 0.75 0.478 0.511 0.782 0.805 0.757 0.81
2150.810 0.751 0.709 0.799 0.815 0.701 0.723 0.8415 0.9058 0.8 0.88
2170.100 0.95611 0.8493 0.928144 1.0849 1.122 0.91126 0.751 0.698 0.94613 1.0646
2189.390 0.8834 0.817 0.775 0.819 0.8341 0.8376 0.8946 0.805 0.8267 0.818
2208.680 0.854 0.761 0.545 0.731 0.93322 0.99159 1.0334 0.856 0.747 0.8799
2227.970 0.82 0.751 0.9038 0.8502 0.746 0.792 0.796 0.82 0.673 0.615
2247.259 0.9994 0.97882 0.779 0.8578 0.739 0.663 0.778 0.8942 0.803 0.8483
2266.549 1.01523 0.875 0.585 0.615 0.716 0.653 0.792 0.8591 0.922337 0.99401
2285.839 1.0531 1.0779 0.9989 0.91084 0.733 0.8341 1.1219 0.94848 0.693 0.64
2305.129 0.694 0.97443 0.922944 0.784 0.701 0.82 1.0608 1.00791 0.97928 0.8361
2324.418 0.759 0.724 0.725 0.9056 0.8899 0.8841 0.789 0.8558 1.0451 0.96584
2343.708 0.884 0.811 0.8973 1.01165 0.895 0.8368 0.781 0.712 0.683 0.751
2362.998 0.8204 0.723 0.788 0.771 0.817 0.9803 0.799 0.777 0.95771 0.93228
2382.288 0.94505 1.01606 1.0264 0.91218 0.767 0.791 0.779 0.792 0.8477 0.8237
2401.578 0.773 0.751 0.921033 1.01814 0.9713 0.94406 0.748 0.597 0.705 0.81
2420.867 0.97407 1.273 1.2409 0.95524 0.813 0.774 0.749 0.706 0.594 0.614
2440.157 0.782 0.645 0.359 0.573 1.00771 1.1703 1.2317 1.1868 0.91034 0.696
2459.447 0.920009 1.0804 0.96451 0.8387 0.588 0.71 0.95343 0.9077 0.97841 0.96413
2478.737 0.8872 0.91893 0.95082 0.919822 0.818 0.811 0.95333 0.8545 0.774 0.774
2498.026 0.716 0.603 0.632 0.8549 0.785 0.764 0.798 0.8268 0.81 0.762
2517.316 0.823 0.8874 0.8363 0.815 0.94633 1.0348 1.1153 0.96665 0.8302 1.00714
2536.606 0.8646 0.564 0.689 0.8554 0.705 0.8674 1.00353 1.00466 1.01171 0.808
2555.896 0.717 0.8593 0.926656 0.91378 0.91182 0.9869 0.95015 0.813 0.771 0.817
2575.186 0.97064 0.8667 0.812 0.8271 0.808 0.696 0.796 0.865 0.529 0.557
2594.475 0.8546 0.928131 0.745 0.736 0.98834 0.94088 1.0401 1.071 0.8331 0.782
2613.765 0.99737 1.1886 0.98527 0.8585 0.96303 0.9577 0.9097 0.814 0.775 0.831
2633.055 0.8764 1.0538 1.021 0.819 0.702 0.777 0.93821 0.798 0.665 0.8828
2652.345 1.00805 0.8349 0.807 1.0473 1.1819 1.1399 1.1429 0.93541 0.8281 0.93396
2671.634 1.01679 1.133 1.183 1.0755 1.0787 1.3017 1.2846 1.2242 1.3163 1.197
2690.924 0.95604 0.93968 1.0498 1.0703 1.1019 1.0559 0.98984 1.2379 1.4659 1.4166
2710.214 1.2595 1.135 1.071 0.871 0.787 0.9097 1.0795 1.3879 1.2297 0.802
2729.504 0.99716 1.1578 0.96306 1.0055 1.3566 1.4271 1.0607 1.0548 1.0418 1.1211
2748.794 1.3602 1.4063 1.4578 1.162 0.9013 1.1448 1.3337 1.0999 0.95201 1.173
2768.083 1.1634 1.09 1.1278 1.3009 1.3039 1.1305 1.3695 1.5695 1.5014 1.2797
2787.373 1.0988 1.1877 1.2853 1.4732 1.5312 1.3422 1.3681 1.4726 1.685 1.95
2806.663 1.8461 1.8016 1.94 1.617 1.3599 1.5032 1.5122 1.5882 1.47 1.4213
2825.953 1.6079 1.3852 1.4003 1.8174 1.7471 1.6149 1.8819 2.08 2.05 2.15
2845.242 2.32 2.16 2.21 2.35 2.53 2.8 2.79 3 3.41 3.8
2864.532 4.18 4.47 4.78 4.89 5.31 5.7 5.91 6.33 6.41 6.12
2883.822 5.89 5.93 5.91 5.65 5.16 4.61 4.5 4.57 4.58 4.58
2903.112 4.65 4.66 4.54 4.63 4.74 5.25 5.38 5.16 5.97 6.81
2922.401 7.15 7.86 8.57 8.9 9.38 9.52 9.3 9.52 9.49 9.04
2941.691 8.79 8.37 8.23 8.15 7.74 7.2 6.86 7.28 7.39 6.88
2960.981 6.54 6.34 6.23 6.21 6.11 5.77 5.61 5.34 5.11 4.64
2980.271 4.34 4.28 3.72 3.41 2.95 2.73 2.84 2.57 2.31 2.22
2999.561 2.26 2.43 2.52 2.45 2.35 2.45 2.64 2.63 2.7 2.92
3018.850 3.15 3.32 3.19 3.17 3.26 3.39 3.35 2.89 2.97 3.05
3038.140 2.93 2.96 2.59 2.45 2.74 3.08 3.36 3.68 4 4.7
3057.430 5.67 6.43 7.16 8.01 8.66 8.99 9.33 9.53 9.46 9.61
3076.720 9.49 8.45 7.54 6.86 6.57 6.54 6.45 6.03 5.55 5.14
3096.009 4.14 3.5 3.35 3.04 2.45 2.28 1.96 1.8293 2 1.7712
3115.299 1.251 1.0452 1.2132 1.133 1.1567 1.2009 1.122 1.1057 1.2907 1.1953
3134.589 1.1151 1.1576 0.93569 0.594 0.819 1.1765 1.3591 1.3463 1.2597 1.1293
3153.879 0.9087 0.95638 1.0271 0.8859 0.719 0.8706 1.1976 1.3792 1.4558 1.0803
3173.169 0.757 0.8481 1.0288 1.0367 0.581 0.519 0.609 0.8807 0.95869 0.752
3192.458 0.96902 1.2197 0.99631 0.738 0.752 1.01996 1.0887 0.98025 0.98685 1.0569
3211.748 0.96975 0.719 0.916 0.91287 0.741 0.669 0.607 0.651 0.776 0.803
3231.038 0.655 0.506 0.922352 1.024 0.348 0.285 0.8418 1.1143 1.2562 1.4566
3250.328 0.692 0.372 0.97308 0.699 0.496 0.69 0.72 0.785 0.718 0.7
3269.617 0.8503 0.94522 0.8231 0.808 0.8567 0.719 0.6 0.612 0.8574 1.2667
3288.907 1.6694 1.6214 1.4527 1.2337 1.0964 1.5286 1.3762 0.96929 1.3321 1.1705
3308.197 0.544 0.437 0.47 0.306 0.509 0.762 1.1294 1.2244 1.1153 1.172
3327.487 0.72 0.597 0.747 1.0398 1.0265 0.8869 1.0223 1.0768 0.94185 0.8303
3346.777 0.8 0.543 0.626 0.735 0.665 0.8383 1.0918 1.151 0.9067 0.667
3366.066 0.799 0.93511 0.76 1.00704 0.8531 0.61 0.723 0.8518 0.8331 0.553
3385.356 0.602 0.687 0.812 0.65 0.427 0.441 0.565 0.514 0.56 0.742
3404.646 0.785 0.661 0.791 1.1564 1.0757 0.776 0.8883 0.667 0.618 1.1078
3423.936 1.3194 1.2793 1.1648 0.98474 0.91615 0.8719 0.517 0.341 0.592 1.0531
3443.225 1.1557 1.0201 1.1762 1.2044 0.626 0.54 0.9052 0.8358 0.812 1.3114
3462.515 1.2244 0.74 0.8964 1.1074 0.723 0.761 1.226 1.4135 1.4335 1.2582
3481.805 1.1017 0.764 0.786 1.1292 1.2642 1.1226 0.81 0.8637 1.3341 1.5561
3501.095 1.2844 1.0953 1.0717 1.3381 1.4253 1.1779 1.4911 1.5868 1.3008 1.381
3520.385 1.0997 0.612 0.588 1.01313 1.7154 1.738 1.1041 1.0479 1.195 1.0035
3539.674 0.642 0.8943 1.0943 0.93081 1.1078 1.3918 1.7281 1.7803 1.5581 0.9182
3558.964 0.638 1.3065 1.7456 1.7681 1.4834 1.5144 1.7569 1.7478 1.8077 1.6923
3578.254 1.8361 1.96 1.6203 1.447 2.04 2.5 2.14 1.99 2.23 2.38
3597.544 2.36 2.3 2.11 2.06 1.8498 1.573 1.864 2 2.34 2.29
3616.833 1.99 1.8918 2.22 2.45 1.7927 1.96 2.45 2.43 2.28 1.7505
3636.123 1.7539 1.94 2.04 2.09 1.95 2.17 2.3 2.47 2.74 3.04
3655.413 3.24 3.66 4.03 3.62 3.03 3.29 3.53 3.46 3.72 3.38
3674.703 3.02 3 2.46 1.8997 2.04 2.08 2.06 1.8673 1.6427 1.6072
3693.993 1.4796 1.125 0.9006 1.3381 1.6992 1.3723 1.2811 1.4421 1.3193 1.4538
3713.282 1.2259 0.94417 0.8595 0.641 0.8583 1.19 1.2 0.98389 1.0315 1.2438
3732.572 1.0996 1.4525 1.8677 1.5832 1.0882 1.0403 1.1847 0.95945 0.795 0.734
3751.862 0.584 0.565 0.754 0.876 0.731 0.527 0.59 0.691 0.423 0.227
3771.152 0.441 0.727 0.742 0.753 0.551 0.244 0.654 1.0459 1.2052 1.3859
3790.441 1.3465 1.4273 1.5475 0.95801 0.8822 1.1902 1.1367 1.1201 1.0451 0.96599
3809.731 0.8951 1.0556 0.94324 1.00779 1.1507 0.627 0.735 1.0247 1.0864 1.444
3829.021 1.3654 1.0839 1.1228 1.071 1.2564 1.3006 1.1905 1.145 0.99903 1.1555
3848.311 1.1503 1.0713 0.659 0.816 1.00519 0.333 0.307 0.8623 1.3076 1.4727
3867.601 1.3898 1.4458 0.96445 0.679 0.8632 0.627 0.8907 0.9341 0.532 0.721
3886.890 0.9786 0.923538 1.01784 1.149 0.661 0.284 0.407 1.0202 1.2473 1.0322
3906.180 1.0743 0.681 0.661 0.684 0.545 0.354 0.522 1.0907 0.9765 0.8227
3925.470 0.646 0.8582 1.4822 1.3391 0.94575 0.602 0.204 0.111 0.23 0.796
3944.760 1.0947 0.93098 0.96303 1.2981 1.5886 0.796 0.701 1.0283 0.752 0.93311
3964.049 1.2689 1.2912 1.0667 0.921908 0.735 0.54 0.493 0.586 0.684 0.403
3983.339 0.275 0.377 0.361 0.581 0.713 0.532 0.923741 0.9672 0.587 0.675
##END=
