##TITLE=p-Hydroxypropiophenone
##JCAMP-DX=4.24
##DATA TYPE=INFRARED SPECTRUM
##ORIGIN=EPA-IR VAPOR PHASE LIBRARY
##OWNER=SRD/NIST
Collection (C) 2018 copyright by the U.S. Secretary of Commerce
on behalf of the United States of America. All rights reserved.
##CAS REGISTRY NO=70-70-2
##MOLFORM=C 9 H 10 O 2
##$NIST SOURCE=MSDC-IR
##STATE=gas
##XUNITS=1/CM
##YUNITS=ABSORBANCE
##XFACTOR=1.
##YFACTOR=0.001
##DELTAX=3.85796
##FIRSTX=501.5
##LASTX=4000.7
##FIRSTY=1.349
##MAXX=4000.7
##MINX=501.534
##MAXY=0.036569
##MINY=0
##NPOINTS=908
##XYDATA=(X++(Y..Y))
501.534 1.349 1.249 1.229 1.349 1.419 1.419 1.479 1.579 1.729 1.859
540.114 1.979 2.209 2.569 2.909 3.219 3.529 3.599 3.439 3.139 2.839
578.693 2.689 2.689 2.659 2.509 2.399 2.199 1.909 1.689 1.569 1.469
617.273 1.349 1.229 1.239 1.339 1.309 1.179 1.149 1.0659 0.8874 0.8663
655.852 0.8035 0.6624 0.6074 0.5869 0.5988 0.6133 0.6321 0.6498 0.6241 0.5542
694.432 0.4867 0.4306 0.418 0.3846 0.3282 0.3036 0.3032 0.3255 0.3246 0.3802
733.011 0.4184 0.5226 0.662 0.7725 0.8625 0.8914 0.9706 1.1063 1.169 1.239
771.591 1.369 1.529 1.849 2.259 2.719 3.259 3.779 4.129 4.339 4.329
810.170 4.169 4.039 4.019 4.389 5.009 5.629 6.139 6.229 5.859 5.129
848.750 4.229 3.359 2.569 1.929 1.459 1.159 1.0248 0.9483 0.8638 0.8063
887.330 0.7721 0.7481 0.7668 0.7781 0.7792 0.8603 0.9949 1.179 1.489 1.949
925.909 2.739 3.899 5.219 6.459 7.379 7.669 7.239 6.179 4.689 3.159
964.489 2.039 1.509 1.269 1.149 1.1207 1.139 1.239 1.469 1.849 2.449
1003.068 3.119 3.529 3.559 3.289 2.739 2.149 1.689 1.369 1.189 1.1195
1041.648 1.0639 1.0562 1.129 1.209 1.289 1.279 1.339 1.429 1.539 1.699
1080.227 1.849 2.159 2.539 2.869 3.339 3.759 3.859 3.709 3.439 3.249
1118.807 3.199 3.279 3.549 3.989 4.559 5.219 6.149 7.639 10.119 14.519
1157.387 21.839 30.449 35.549 36.569 34.809 30.689 27.689 26.579 24.889 21.259
1195.966 16.299 12.609 11.509 12.249 14.059 16.299 18.149 18.709 17.629 15.119
1234.546 11.989 9.609 8.629 9.009 10.649 13.249 15.969 17.479 16.969 14.609
1273.125 11.049 7.779 5.809 4.769 4.109 3.719 3.619 3.819 4.279 5.009
1311.705 6.059 7.309 8.399 9.029 9.039 8.599 8.059 7.689 7.649 7.729
1350.284 7.519 6.869 5.889 4.809 3.889 3.259 2.869 2.649 2.459 2.279
1388.864 2.089 1.919 1.859 2.009 2.339 2.829 3.429 4.099 4.739 5.169
1427.443 5.339 5.199 4.719 4.089 3.559 3.189 2.979 2.919 2.979 3.059
1466.023 3.009 2.879 2.639 2.279 2.019 2.009 2.299 2.949 4.099 5.579
1504.603 6.809 7.329 6.879 5.609 3.989 2.689 1.969 1.599 1.439 1.409
1543.182 1.399 1.459 1.609 1.849 2.209 2.729 3.439 4.479 5.929 7.949
1581.762 10.449 13.279 16.089 18.799 21.349 23.099 23.419 22.019 18.849 14.379
1620.341 9.989 6.709 4.589 3.439 2.839 2.539 2.419 2.389 2.449 2.559
1658.921 2.679 2.909 3.269 3.939 5.049 6.809 9.469 13.349 18.009 22.389
1697.500 24.869 24.649 22.159 17.279 11.599 7.329 4.729 3.199 2.299 1.819
1736.080 1.559 1.379 1.269 1.169 1.0299 0.9223 0.8466 0.7725 0.6959 0.6297
1774.659 0.5507 0.4741 0.4185 0.3952 0.3693 0.3312 0.2925 0.2856 0.2925 0.2978
1813.239 0.2981 0.2913 0.2847 0.2661 0.266 0.2735 0.2598 0.2635 0.2797 0.287
1851.819 0.3088 0.3299 0.3453 0.364 0.3668 0.3702 0.3754 0.375 0.4092 0.435
1890.398 0.4474 0.4596 0.4541 0.4582 0.4386 0.4051 0.3975 0.3798 0.3437 0.3232
1928.978 0.301 0.2822 0.2781 0.2584 0.2336 0.2133 0.20372 0.18781 0.17181 0.17802
1967.557 0.19419 0.2079 0.20883 0.20267 0.2139 0.24 0.2622 0.2783 0.2838 0.2734
2006.137 0.2477 0.21392 0.20624 0.20412 0.19628 0.19899 0.17628 0.14754 0.1175 0.0931
2044.716 0.0856 0.0879 0.1097 0.1174 0.133508 0.17073 0.18439 0.19805 0.21488 0.2468
2083.296 0.2593 0.2638 0.2752 0.2733 0.2506 0.20517 0.15794 0.1122 0.0969 0.09
2121.875 0.072 0.0611 0.0736 0.0708 0.0567 0.0621 0.066 0.0621 0.0589 0.0718
2160.455 0.0789 0.07 0.0739 0.0664 0.0588 0.0652 0.0517 0.0444 0.0473 0.0338
2199.035 0.0527 0.0693 0.0712 0.0775 0.0788 0.0944 0.0888 0.0899 0.101 0.104
2237.614 0.12106 0.130536 0.1087 0.0857 0.0926 0.1013 0.0853 0.0884 0.133251 0.15507
2276.194 0.15821 0.16311 0.14879 0.15241 0.17973 0.18905 0.18711 0.19931 0.20853 0.19921
2314.773 0.2001 0.21403 0.2411 0.2582 0.2439 0.2326 0.2172 0.19947 0.185 0.15706
2353.353 0.15162 0.15272 0.1589 0.18231 0.16748 0.16081 0.18828 0.18895 0.1823 0.20063
2391.932 0.22817 0.2355 0.2487 0.2793 0.3128 0.348 0.3822 0.4323 0.4723 0.5099
2430.512 0.5367 0.5717 0.5982 0.5764 0.549 0.514 0.4446 0.3798 0.3192 0.268
2469.092 0.2482 0.21346 0.18725 0.19333 0.19621 0.2004 0.183 0.15948 0.18105 0.20215
2507.671 0.2303 0.2407 0.2593 0.2969 0.297 0.2802 0.251 0.2325 0.20708 0.19181
2546.251 0.18896 0.17342 0.15604 0.1178 0.1139 0.14181 0.14593 0.16522 0.18472 0.19883
2584.830 0.20159 0.21395 0.2302 0.22317 0.22374 0.22053 0.20331 0.20682 0.21821 0.2002
2623.410 0.18808 0.17491 0.17125 0.20147 0.19052 0.18869 0.19276 0.19054 0.19552 0.1994
2661.989 0.21677 0.19285 0.16053 0.14843 0.16163 0.15449 0.14136 0.14344 0.15433 0.16332
2700.569 0.15414 0.18063 0.20485 0.18561 0.17364 0.1818 0.17058 0.1716 0.19715 0.21199
2739.148 0.2412 0.2373 0.238 0.2623 0.2703 0.2689 0.2431 0.22382 0.2599 0.2788
2777.728 0.2728 0.2687 0.2502 0.2397 0.2465 0.2693 0.2876 0.3273 0.3632 0.3781
2816.308 0.4056 0.4508 0.4763 0.5048 0.5103 0.5189 0.5204 0.5068 0.534 0.5767
2854.887 0.6172 0.6775 0.7774 0.9077 1.076 1.279 1.529 1.859 2.169 2.339
2893.467 2.429 2.429 2.419 2.519 2.719 2.999 3.219 3.259 3.209 3.139
2932.046 3.119 3.359 3.939 4.659 5.049 5.009 4.639 3.929 3.359 3.289
2970.626 3.679 4.369 5.179 5.769 5.909 5.709 5.129 4.279 3.539 2.979
3009.205 2.579 2.309 2.199 2.189 2.239 2.449 2.709 2.879 2.859 2.619
3047.785 2.249 1.899 1.679 1.649 1.789 1.939 2.049 2.049 1.909 1.629
3086.364 1.329 1.139 1.0288 0.9315 0.8911 0.8337 0.741 0.711 0.6436 0.5388
3124.944 0.4626 0.4222 0.3397 0.2496 0.2406 0.2695 0.234 0.14841 0.14116 0.20594
3163.524 0.22471 0.22182 0.21906 0.20811 0.2685 0.2962 0.2553 0.18106 0.14195 0.134651
3202.103 0.1441 0.15002 0.14548 0.14695 0.135875 0.13197 0.1066 0.0503 0.022 0.082
3240.683 0.0771 0.0438 0.0794 0.0708 0.0579 0.0973 0.0532 0.019 0.02 0
3279.262 0.0711 0.0814 0.043 0.0864 0.1139 0.132231 0.1064 0.1087 0.19443 0.195
3317.842 0.19986 0.22344 0.2308 0.22799 0.20004 0.21124 0.2548 0.2479 0.235 0.2489
3356.421 0.28 0.3171 0.3739 0.4043 0.4431 0.5281 0.5578 0.5496 0.5214 0.4714
3395.001 0.381 0.3014 0.2951 0.2721 0.2431 0.18972 0.16299 0.17213 0.1124 0.0519
3433.580 0.0675 0.1496 0.15167 0.0923 0.0985 0.1239 0.0809 0.028 0.0713 0.1162
3472.160 0.1184 0.1158 0.135262 0.131654 0.0875 0.0923 0.1062 0.0568 0.021 0.0596
3510.740 0.0431 0.0373 0.0566 0.0712 0.0686 0.0711 0.1089 0.0902 0.0843 0.0561
3549.319 0.0337 0.0653 0.0711 0.0595 0.079 0.0999 0.0825 0.0626 0.0856 0.12436
3587.899 0.15372 0.14377 0.13986 0.21876 0.2944 0.3764 0.493 0.6244 0.8421 1.229
3626.478 1.939 3.309 5.649 9.259 13.349 15.349 14.649 12.289 8.039 4.019
3665.058 2.069 1.199 0.7285 0.4717 0.354 0.2844 0.2666 0.22072 0.14416 0.136599
3703.637 0.13393 0.12262 0.14374 0.15557 0.14175 0.12575 0.0965 0.097 0.076 0.022
3742.217 0.0592 0.1007 0.1151 0.1111 0.0976 0.0834 0.0306 0.012 0.007 0.006
3780.797 0.004 0.002 0.0703 0.0782 0.0499 0.0754 0.0674 0.0412 0.083 0.1102
3819.376 0.0954 0.0613 0.052 0.0915 0.1127 0.12016 0.0738 0.07 0.0965 0.0522
3857.956 0.0347 0.0531 0.0627 0.0725 0.1181 0.14663 0.15752 0.18007 0.16398 0.088
3896.535 0.0594 0.1048 0.130482 0.15272 0.17151 0.19496 0.13954 0.1077 0.1725 0.18167
3935.115 0.15062 0.12428 0.0696 0.0602 0.1073 0.14553 0.18596 0.19095 0.14694 0.1132
3973.694 0.14692 0.17536 0.19999 0.22385 0.18551 0.1554 0.1253 0.12169
##END=
