##TITLE=3,4-Dimethoxythiophenol
##JCAMP-DX=4.24
##DATA TYPE=INFRARED SPECTRUM
##ORIGIN=EPA-IR VAPOR PHASE LIBRARY
##OWNER=SRD/NIST
Collection (C) 2018 copyright by the U.S. Secretary of Commerce
on behalf of the United States of America. All rights reserved.
##CAS REGISTRY NO=700-96-9
##MOLFORM=C 8 H 10 O 2 S
##$NIST SOURCE=MSDC-IR
##STATE=gas
##XUNITS=1/CM
##YUNITS=ABSORBANCE
##XFACTOR=1.
##YFACTOR=0.001
##DELTAX=1.929
##FIRSTX=549.8
##LASTX=4000.8
##FIRSTY=1.1
##MAXX=4000.75
##MINX=549.766
##MAXY=0.10456
##MINY=0.0001282
##NPOINTS=1790
##XYDATA=(X++(Y..Y))
549.766 1.1 0.9852 1.28 1.21 1 1.19 1.32 1.19 1.14 1.23
569.056 1.56 1.59 1.57 1.68 1.69 1.98 2.07 2.39 2.8 2.73
588.346 2.83 2.92 2.78 2.56 2.29 2.44 2.44 2.4 2.42 2.2
607.636 2.05 2.09 2.06 1.76 1.55 1.55 1.57 1.51 1.48 1.3
626.926 1.3 1.46 1.62 1.77 2.06 2.47 2.83 3.46 4.06 4.42
646.216 4.44 4.43 4.41 4.07 3.58 3.01 2.4 1.78 1.32 1.05
665.506 0.8609 0.7534 0.6526 0.5275 0.4013 0.3086 0.5099 0.4951 0.3033 0.3781
684.796 0.3848 0.3761 0.5041 0.4942 0.5246 0.4905 0.4133 0.4455 0.5022 0.5249
704.086 0.6056 0.7405 0.6349 0.7452 0.8285 0.7604 0.9526 1.12 1.21 1.4
723.376 1.51 1.66 2.03 2.28 2.48 2.87 3.25 3.58 3.92 4.31
742.666 4.84 5.43 6.09 6.63 7.02 7.49 7.79 7.81 7.75 7.48
761.956 6.88 6.21 5.59 4.98 4.5 4.09 3.86 3.9 3.97 4.16
781.246 4.53 5.14 5.8 6.55 7.55 8.58 9.53 10.46 11.26 11.64
800.536 11.99 12.26 12.25 12.35 12.31 12.14 11.63 10.67 9.99 9.49
819.826 8.78 7.86 7.08 6.49 5.97 5.51 5.28 5.16 5.12 5.21
839.116 5.25 5.26 5.32 5.33 5.18 5.14 5.27 5.4 5.53 5.73
858.406 6 6.51 7.18 7.93 8.92 9.89 10.73 11.4 11.75 11.87
877.696 11.62 11.01 10.06 8.88 7.67 6.5 5.51 4.69 4.06 3.61
896.986 3.28 3.01 2.75 2.63 2.61 2.56 2.47 2.52 2.64 2.74
916.276 2.84 2.86 2.89 2.9 2.88 2.91 2.88 2.8 2.73 2.63
935.566 2.46 2.29 2.3 2.25 2.16 2.14 2.18 2.21 2.23 2.24
954.856 2.3 2.45 2.56 2.66 2.8 2.97 3.1 3.23 3.44 3.72
974.146 3.96 4.19 4.44 4.77 5.18 5.59 6.09 6.63 7.24 7.94
993.436 8.72 9.68 10.93 12.29 13.84 15.84 18.23 20.91 23.85 27.16
1012.726 30.72 34.38 37.95 41.17 43.88 46.03 47.36 47.75 47.24 46.01
1032.016 44.24 41.9 38.94 35.54 31.98 28.51 25.2 21.98 19.03 16.33
1051.306 13.82 11.62 9.86 8.53 7.57 6.86 6.33 5.92 5.57 5.43
1070.596 5.46 5.47 5.56 5.73 5.9 6.21 6.55 6.9 7.27 7.56
1089.886 7.76 7.83 7.89 7.93 7.92 7.92 7.92 7.99 8.22 8.8
1109.176 9.66 10.82 12.27 13.94 15.8 17.6 19.31 20.77 21.9 22.87
1128.467 23.57 23.8 23.56 22.76 21.55 20.11 18.57 17.04 15.48 13.86
1147.757 12.28 10.93 9.87 9.26 9.01 9 9.31 9.94 10.83 12.02
1167.047 13.52 14.99 16.35 17.63 18.66 19.25 19.48 19.47 19.13 18.52
1186.337 17.73 16.89 16.12 15.6 15.48 15.81 16.51 17.72 19.34 21.13
1205.627 23.39 25.95 28.78 31.96 35.21 38.47 41.71 44.87 47.62 50.01
1224.917 52.11 53.75 54.81 55.32 55.44 55.27 55.05 55 55.23 56.05
1244.207 57.64 60.01 63.17 67.14 71.67 76.39 81.18 85.7 89.4 91.88
1263.497 92.98 92.52 90.52 87.1 82.43 76.83 70.74 64.44 58.2 52.42
1282.787 47.28 42.84 39.05 35.74 32.84 30.21 27.88 25.65 23.42 21.37
1302.077 19.41 17.53 15.9 14.52 13.19 12.07 11.17 10.36 9.71 9.05
1321.367 8.34 7.71 7.16 6.65 6.1 5.61 5.2 4.86 4.62 4.4
1340.657 4.17 4 3.87 3.79 3.75 3.69 3.65 3.67 3.69 3.76
1359.947 3.89 4.06 4.25 4.47 4.76 5.18 5.77 6.52 7.39 8.41
1379.237 9.67 11.14 12.78 14.52 16.28 17.85 19.05 19.83 20.17 20.04
1398.527 19.52 18.65 17.38 15.87 14.31 12.83 11.6 10.64 9.98 9.66
1417.817 9.76 10.05 10.54 11.39 12.56 13.96 15.61 17.47 19.37 21.11
1437.107 22.58 23.54 24.11 24.29 24.04 23.53 22.89 22.33 21.97 21.98
1456.397 22.44 23.15 24.04 25.06 26.06 26.87 27.61 28.57 29.79 31.36
1475.687 33.28 35.74 39.2 44.08 50.48 58.31 67.48 77.27 86.96 95.3
1494.977 101.26 104.51 104.56 101.52 95.58 87.2 76.38 65.18 54.84 45.32
1514.267 37.49 31.18 26.13 22.33 19.11 16.62 14.61 12.94 11.54 10.37
1533.557 9.4 8.59 8.05 7.61 7.22 6.97 6.88 6.88 7.1 7.44
1552.847 7.86 8.5 9.25 10.09 11.02 11.91 12.77 13.53 14.2 14.8
1572.137 15.26 15.64 15.89 15.97 16.03 16.01 15.9 15.74 15.39 14.82
1591.427 14.03 13.17 12.22 11.2 10.14 9.02 7.94 7.04 6.32 5.61
1610.717 4.97 4.51 4.12 3.76 3.49 3.3 3.15 2.99 2.81 2.63
1630.007 2.62 2.54 2.43 2.4 2.35 2.3 2.26 2.25 2.18 2.09
1649.297 2.01 1.95 2.01 2 1.98 2.02 2.01 2 1.98 1.97
1668.587 2.02 2.03 1.97 1.98 1.97 1.91 1.89 1.85 1.82 1.79
1687.877 1.72 1.72 1.71 1.65 1.65 1.64 1.58 1.54 1.54 1.48
1707.167 1.44 1.49 1.48 1.55 1.63 1.6 1.55 1.53 1.56 1.53
1726.457 1.55 1.68 1.75 1.73 1.73 1.79 1.79 1.77 1.8 1.8
1745.747 1.83 1.86 1.85 1.81 1.74 1.74 1.69 1.65 1.64 1.59
1765.037 1.57 1.58 1.53 1.5 1.51 1.5 1.44 1.4 1.44 1.44
1784.327 1.38 1.33 1.35 1.38 1.36 1.31 1.27 1.25 1.29 1.33
1803.617 1.3 1.28 1.27 1.29 1.31 1.32 1.33 1.36 1.37 1.38
1822.907 1.36 1.36 1.39 1.43 1.48 1.51 1.49 1.49 1.5 1.47
1842.197 1.51 1.5 1.5 1.52 1.52 1.59 1.63 1.65 1.65 1.62
1861.487 1.58 1.58 1.63 1.63 1.58 1.56 1.52 1.49 1.52 1.54
1880.777 1.53 1.5 1.49 1.5 1.49 1.45 1.42 1.45 1.45 1.41
1900.067 1.37 1.36 1.33 1.28 1.24 1.24 1.25 1.22 1.16 1.16
1919.357 1.24 1.22 1.15 1.11 1.12 1.11 1.07 1.03 1.04 1.04
1938.647 1.05 1.05 1.06 1.07 1.04 1.03 1.02 1.06 1.09 1.08
1957.937 1.06 1.05 1.09 1.13 1.15 1.17 1.17 1.18 1.22 1.25
1977.227 1.24 1.28 1.32 1.34 1.45 1.56 1.6 1.63 1.71 1.8
1996.517 1.87 1.91 2.01 2.11 2.17 2.27 2.39 2.46 2.47 2.53
2015.807 2.58 2.63 2.69 2.69 2.65 2.65 2.65 2.61 2.59 2.58
2035.097 2.53 2.46 2.39 2.35 2.25 2.18 2.2 2.18 2.1 2.04
2054.387 2.03 2 1.95 1.91 1.87 1.84 1.82 1.78 1.75 1.76
2073.677 1.75 1.74 1.71 1.62 1.56 1.56 1.51 1.46 1.43 1.41
2092.967 1.37 1.34 1.38 1.39 1.33 1.26 1.26 1.26 1.2 1.2
2112.257 1.19 1.17 1.19 1.2 1.19 1.2 1.16 1.14 1.15 1.1
2131.547 1.12 1.14 1.16 1.19 1.21 1.18 1.12 1.13 1.1 1.05
2150.837 1.02 1.02 1.03 1.02 0.9741 0.988 0.9751 0.9575 1 0.9562
2170.127 0.9183 0.9161 0.9451 0.9695 0.9712 0.9591 0.9196 0.9064 0.8938 0.8844
2189.417 0.881 0.8756 0.8897 0.8552 0.8307 0.8651 0.8852 0.9182 0.9338 0.9124
2208.707 0.9207 0.9363 0.9211 0.9429 0.9277 0.9264 0.9492 1.03 1.12 1.14
2227.997 1.15 1.15 1.1 1.09 1.2 1.25 1.22 1.21 1.24 1.27
2247.287 1.28 1.28 1.31 1.34 1.34 1.37 1.38 1.38 1.38 1.37
2266.577 1.35 1.31 1.32 1.29 1.27 1.25 1.2 1.16 1.13 1.12
2285.868 1.1 1.06 1.06 1.02 0.9578 1 0.9943 0.961 0.9389 0.9063
2305.158 0.9144 0.8974 0.8599 0.8825 0.9527 0.9679 0.9301 0.9317 0.9324 0.927
2324.448 0.9449 0.9537 0.9307 0.9509 0.9757 0.9422 0.9242 0.9351 0.9311 0.9266
2343.738 0.9587 0.9237 0.8862 0.9305 0.9107 0.8982 0.9264 0.9013 0.8521 0.8222
2363.028 0.9051 0.944 0.8624 0.8325 0.8193 0.7995 0.8443 0.8582 0.8265 0.8257
2382.318 0.8588 0.8782 0.8604 0.8539 0.8504 0.8383 0.8199 0.8789 0.8902 0.842
2401.608 0.8424 0.8293 0.826 0.8547 0.8234 0.7711 0.8051 0.843 0.8466 0.852
2420.898 0.9073 0.9504 0.9347 0.9719 0.9972 1.04 1.13 1.1 1.05 1.08
2440.188 1.11 1.15 1.21 1.27 1.27 1.28 1.29 1.28 1.29 1.3
2459.478 1.36 1.39 1.4 1.4 1.32 1.32 1.39 1.42 1.38 1.35
2478.768 1.34 1.37 1.36 1.35 1.34 1.39 1.51 1.48 1.45 1.46
2498.058 1.44 1.44 1.46 1.5 1.51 1.5 1.52 1.56 1.54 1.58
2517.348 1.64 1.65 1.69 1.67 1.68 1.72 1.75 1.79 1.77 1.74
2536.638 1.78 1.81 1.79 1.81 1.83 1.85 1.87 1.76 1.65 1.63
2555.928 1.69 1.7 1.65 1.61 1.63 1.61 1.59 1.59 1.54 1.56
2575.218 1.63 1.71 1.79 1.87 1.9 1.84 1.75 1.74 1.67 1.53
2594.508 1.48 1.43 1.38 1.31 1.23 1.22 1.26 1.27 1.24 1.18
2613.798 1.17 1.19 1.2 1.24 1.28 1.3 1.27 1.24 1.22 1.25
2633.088 1.36 1.31 1.24 1.3 1.32 1.34 1.35 1.34 1.32 1.3
2652.378 1.3 1.25 1.3 1.31 1.25 1.25 1.24 1.19 1.18 1.22
2671.668 1.22 1.25 1.21 1.15 1.14 1.14 1.18 1.19 1.17 1.13
2690.958 1.14 1.22 1.22 1.12 1.04 1.15 1.22 1.13 1.05 1.07
2710.248 1.12 1.12 1.09 1.16 1.16 1.11 1.14 1.18 1.22 1.22
2729.538 1.26 1.34 1.29 1.25 1.28 1.31 1.3 1.37 1.44 1.34
2748.828 1.31 1.44 1.52 1.48 1.42 1.41 1.4 1.44 1.48 1.45
2768.118 1.48 1.59 1.59 1.63 1.71 1.79 1.78 1.77 1.9 2.02
2787.408 2.08 2.13 2.22 2.34 2.49 2.65 2.82 2.97 3.17 3.34
2806.698 3.44 3.69 4.08 4.35 4.73 5.25 5.77 6.37 7.02 7.76
2825.988 8.6 9.52 10.58 11.66 12.84 14.21 15.34 16.22 16.91 17.25
2845.278 17.42 17.32 16.9 16.2 15.3 14.44 13.49 12.54 11.74 10.91
2864.568 10.07 9.46 8.95 8.44 8.12 7.94 7.79 7.76 7.87 8.04
2883.858 8.15 8.29 8.6 8.88 9.18 9.63 10.1 10.57 11.04 11.54
2903.148 12.05 12.69 13.38 13.96 14.48 15.15 15.76 16.03 16.34 16.68
2922.438 17.02 17.49 17.96 18.64 19.79 21.21 22.72 24.44 26.14 27.74
2941.728 29.01 29.9 30.49 30.5 30.17 29.57 28.65 27.49 26.18 24.92
2961.018 23.64 22.26 20.99 19.88 18.84 17.86 17.02 16.28 15.64 15.07
2980.308 14.62 14.35 14.16 14.18 14.45 14.85 15.41 16.12 17.14 18.39
2999.598 19.56 20.54 21.11 21.24 21.05 20.42 19.36 17.85 16.13 14.35
3018.888 12.64 11.16 9.94 8.93 8.11 7.56 7.22 6.98 6.73 6.54
3038.178 6.35 6.27 6.22 6.24 6.35 6.35 6.38 6.38 6.33 6.33
3057.468 6.34 6.33 6.29 6.31 6.29 6.15 6.06 5.89 5.65 5.44
3076.758 5.27 5.08 4.8 4.5 4.25 4.09 3.96 3.8 3.63 3.4
3096.048 3.21 3.16 3.19 3.09 2.85 2.65 2.54 2.49 2.33 2.26
3115.338 2.23 2.06 1.88 1.74 1.62 1.57 1.62 1.65 1.55 1.32
3134.628 1.31 1.34 1.22 1.16 1.07 1.09 1.13 1.09 1.1 0.9604
3153.918 0.9119 0.9766 0.9566 0.948 0.9152 0.9234 0.9554 0.9727 0.9065 0.7817
3173.208 0.8399 0.9341 0.9096 0.8578 0.7908 0.7 0.6098 0.6687 0.6938 0.6266
3192.498 0.6678 0.6313 0.454 0.4586 0.5427 0.5887 0.6265 0.6267 0.6254 0.6358
3211.788 0.579 0.5505 0.6058 0.6006 0.5097 0.413 0.4678 0.5426 0.5381 0.5651
3231.078 0.555 0.3851 0.3025 0.4953 0.5022 0.4149 0.3535 0.2508 0.3381 0.4467
3250.368 0.5057 0.5553 0.5708 0.5491 0.4605 0.4172 0.3697 0.4338 0.4369 0.4004
3269.658 0.5148 0.5855 0.5297 0.4259 0.4605 0.3839 0.2968 0.324 0.3398 0.3876
3288.948 0.314 0.2802 0.255 0.25 0.384 0.4178 0.3871 0.3961 0.4744 0.3742
3308.238 0.3252 0.3838 0.2982 0.2833 0.3259 0.3325 0.3269 0.3978 0.5141 0.4918
3327.528 0.2973 0.2888 0.4444 0.4314 0.3739 0.3174 0.2061 0.228 0.3711 0.3317
3346.818 0.2844 0.2504 0.2742 0.2833 0.2464 0.3278 0.3012 0.2082 0.2224 0.2938
3366.108 0.2015 0.2141 0.3237 0.3266 0.277 0.1529 0.1456 0.3578 0.4302 0.4075
3385.398 0.4935 0.3899 0.3287 0.3965 0.4779 0.5215 0.41 0.3193 0.3858 0.3552
3404.688 0.2294 0.281 0.339 0.3371 0.3302 0.3079 0.2503 0.2487 0.3058 0.3679
3423.978 0.3629 0.3241 0.3802 0.4049 0.3683 0.3537 0.399 0.333 0.2088 0.263
3443.269 0.3307 0.4127 0.3754 0.2637 0.4061 0.4511 0.415 0.4498 0.4363 0.4141
3462.559 0.3145 0.3071 0.4111 0.512 0.4969 0.3915 0.446 0.5071 0.4029 0.2946
3481.849 0.4329 0.489 0.4216 0.3601 0.3171 0.3723 0.4209 0.3568 0.2618 0.281
3501.139 0.2743 0.3112 0.3249 0.3332 0.4082 0.3582 0.3719 0.3869 0.3767 0.4159
3520.429 0.3835 0.4333 0.4936 0.4664 0.4051 0.3245 0.2286 0.2705 0.3164 0.3103
3539.719 0.3104 0.3235 0.3824 0.4207 0.4078 0.3735 0.3109 0.3082 0.3876 0.3465
3559.009 0.3585 0.3344 0.2683 0.2791 0.365 0.435 0.3158 0.273 0.2885 0.2879
3578.299 0.4451 0.5334 0.476 0.391 0.2706 0.3088 0.333 0.3694 0.415 0.3446
3597.589 0.3721 0.4039 0.2516 0.2055 0.2069 0.1867 0.3348 0.3945 0.3297 0.3583
3616.879 0.3662 0.3118 0.2579 0.2674 0.3372 0.3222 0.2738 0.1702 0.1282 0.2748
3636.169 0.427 0.3532 0.3191 0.3705 0.3066 0.2547 0.3214 0.4348 0.4005 0.2165
3655.459 0.1503 0.2465 0.2215 0.1439 0.2987 0.3714 0.2831 0.368 0.4303 0.331
3674.749 0.3193 0.3211 0.2419 0.243 0.3313 0.3245 0.3404 0.4109 0.4278 0.482
3694.039 0.4421 0.3823 0.3425 0.3224 0.3267 0.3262 0.2988 0.3249 0.4655 0.4413
3713.329 0.2977 0.3334 0.3956 0.3637 0.434 0.398 0.3905 0.4894 0.5303 0.514
3732.619 0.4457 0.4575 0.3444 0.3835 0.4704 0.3815 0.4535 0.4116 0.2905 0.2345
3751.909 0.2128 0.378 0.4272 0.4848 0.5502 0.3516 0.2977 0.4743 0.4044 0.2916
3771.199 0.3586 0.3992 0.3627 0.2665 0.2343 0.291 0.4599 0.5045 0.3486 0.2408
3790.489 0.2857 0.2364 0.2384 0.3486 0.3545 0.3153 0.3889 0.4678 0.4277 0.4264
3809.779 0.4034 0.347 0.2554 0.3803 0.4939 0.5136 0.5114 0.4063 0.4525 0.4451
3829.069 0.3666 0.353 0.4454 0.4478 0.4326 0.4701 0.42 0.3384 0.3607 0.4882
3848.359 0.4362 0.3657 0.4816 0.5788 0.5787 0.6444 0.6586 0.5943 0.4842 0.5352
3867.649 0.6235 0.5392 0.4775 0.4556 0.5033 0.4336 0.3585 0.3142 0.407 0.591
3886.939 0.6207 0.7085 0.6854 0.486 0.4466 0.5192 0.4984 0.521 0.5252 0.4186
3906.229 0.4567 0.5977 0.7006 0.716 0.5693 0.4717 0.5803 0.6018 0.6518 0.715
3925.519 0.6657 0.6917 0.7574 0.7232 0.6176 0.6168 0.6765 0.7961 0.8797 0.8077
3944.809 0.6713 0.5923 0.6349 0.7394 0.8622 0.8703 0.8112 0.766 0.8437 0.8707
3964.099 0.6651 0.601 0.652 0.7994 0.9203 0.7646 0.5648 0.6451 0.7519 0.7028
3983.389 0.6813 0.7003 0.7587 0.7277 0.7115 0.6162 0.5918 0.7608 0.7572 0.7488
##END=
