##TITLE=5-Fluoro-1-indanone
##JCAMP-DX=4.24
##DATA TYPE=INFRARED SPECTRUM
##ORIGIN=EPA-IR VAPOR PHASE LIBRARY
##OWNER=SRD/NIST
Collection (C) 2018 copyright by the U.S. Secretary of Commerce
on behalf of the United States of America. All rights reserved.
##CAS REGISTRY NO=700-84-5
##MOLFORM=C 9 H 7 F O
##$NIST SOURCE=MSDC-IR
##STATE=gas
##XUNITS=1/CM
##YUNITS=ABSORBANCE
##XFACTOR=1.
##YFACTOR=0.001
##DELTAX=1.929
##FIRSTX=549.8
##LASTX=4000.8
##FIRSTY=3.26
##MAXX=4000.75
##MINX=549.766
##MAXY=0.45012
##MINY=0
##NPOINTS=1790
##XYDATA=(X++(Y..Y))
549.766 3.26 3.31 3.33 3.68 4.2 4.5 4.99 5.55 6.35 7.39
569.056 8.82 10.9 13.56 16.86 19.66 20.17 18.89 18.31 17.86 16.92
588.346 15.69 13.03 9.9 7.44 5.67 4.66 4.19 3.87 3.8 3.93
607.636 4.26 4.44 4.48 4.81 5.13 5.16 5.24 5.63 6.02 6.36
626.926 6.97 7.51 7.84 8.27 8.55 8.58 8.45 8.4 8.29 7.86
646.216 7.19 6.52 5.97 5.52 5.16 4.85 4.66 4.47 4.26 4.09
665.506 3.93 3.92 3.89 3.68 3.5 3.32 3.14 3.22 3.42 3.49
684.796 3.63 3.65 3.83 4.12 4.35 4.82 5.36 5.83 5.68 5.03
704.086 4.47 4.17 3.94 3.58 3.18 2.82 2.58 2.39 2.1484 1.9887
723.376 1.9518 1.8683 1.8363 1.9868 2.0597 2.0374 2.1604 2.29 2.38 2.48
742.666 2.58 2.86 3.31 3.61 3.75 3.69 3.48 3.38 3.42 3.35
761.956 3.11 2.8 2.37 2.0571 1.9765 2.053 2.32 2.64 3.03 3.56
781.246 4.09 4.86 5.87 7.02 8.29 9.59 11.11 13.11 15.42 17.28
800.536 18.12 18.46 19.07 19.99 21.31 22.59 23.66 24.59 25.34 26.35
819.826 27.54 28.68 29.38 29.43 29.22 28.93 28.71 28.7 28.97 29.34
839.116 28.55 26.43 24.99 25.33 26.85 28.98 31.44 33.93 36.44 38.55
858.406 41.25 46.99 59.36 67.6 53.76 38.71 35.27 32.77 29.7 25.8
877.696 21.37 16.96 13.02 9.87 7.56 6.04 5.14 4.52 4.47 4.65
896.986 4.73 4.87 5.19 5.74 6.5 7.69 9.49 12.04 15.46 19.84
916.276 25.56 32.87 41.02 47.33 50.24 50.97 50.82 48.92 46.12 43.03
935.566 36.64 27.35 18.64 12.59 9.02 7.03 6 5.35 4.83 4.6
954.856 4.52 4.36 4.17 4.09 4.11 4.16 4.26 4.32 4.43 4.55
974.146 4.6 4.63 4.71 4.76 4.67 4.66 4.8 4.92 4.96 5.14
993.436 5.48 5.88 6.46 7.28 8.39 9.9 11.94 14.71 18.4 23
1012.726 28.31 33.95 39.23 43.3 45.78 46.9 47.18 46.97 45.71 42.87
1032.016 38.32 32.45 26.59 21.78 18.07 15.28 13.16 11.58 10.51 9.74
1051.306 9.12 8.75 8.77 9.25 10.15 11.52 13.78 17.44 23.1 31.41
1070.596 42.19 54.3 65.84 74.47 79.4 81.85 82.44 81.08 77.41 70.17
1089.886 58.6 44.81 32.15 22.66 16.64 12.99 10.8 9.41 8.59 8.35
1109.176 8.62 9.58 11.45 14.25 17.53 20.32 21.66 21.84 22.04 21.65
1128.467 21.1 20.71 18.39 14.48 10.74 8.15 6.53 5.43 4.68 4.2
1147.757 3.91 3.69 3.49 3.26 3.13 3.16 3.35 3.64 4.11 4.67
1167.047 5.14 5.57 5.81 5.9 5.97 6.07 6.28 6.38 6.28 6.21
1186.337 6.08 5.83 5.89 5.97 6.03 6.28 6.56 6.87 7.32 8.12
1205.627 9.29 10.91 12.77 14.72 16.9 19.34 22.13 25.32 28.86 33.25
1224.917 38.89 46.05 55.16 66.39 79.58 94.5 111.49 131.8 158.35 192.96
1244.207 232.37 269.47 296.27 308.06 308.56 303.57 293.34 277.68 249.07 201.32
1263.497 147 102.24 72.68 55.28 45.12 39.09 36.01 35.8 38.81 45.1
1282.787 53.71 62.55 69.05 71.99 72.65 72.49 71.07 68.56 64.48 56.76
1302.077 47.26 40.45 38.48 40.98 46.86 55.03 64.32 73.35 80.72 85.51
1321.367 87.27 86.22 82.89 77.47 69.34 58.58 46.26 33.99 23.92 16.91
1340.657 12.45 9.79 8.23 7.27 6.63 6.29 6.17 6.18 6.23 6.29
1359.947 6.44 6.63 6.79 6.97 7.16 7.31 7.39 7.44 7.47 7.41
1379.237 7.29 7.22 7.15 7.02 6.86 6.69 6.58 6.6 6.69 6.87
1398.527 7.22 7.69 8.3 9.27 10.41 11.52 12.51 13.29 14.02 14.78
1417.817 15.52 16.17 16.58 16.75 16.74 16.71 16.77 17.09 17.88 19.02
1437.107 20.58 22.41 24.38 26.13 26.8 25.89 24.26 23.33 23.45 23.87
1456.397 22.93 20.58 18.67 18.16 19.64 23.29 28.95 36.35 44.77 53
1475.687 59.35 64.08 67.22 68.35 66.71 62.86 57.07 48.94 39.95 32.27
1494.977 25.78 20.33 16.52 14.08 12.51 11.52 10.79 10.2 9.78 9.45
1514.267 9.18 8.91 8.76 8.78 8.98 9.29 9.62 9.93 10.22 10.51
1533.557 10.79 11.02 11.12 11.2 11.47 11.97 12.72 13.8 15.17 16.72
1552.847 18.18 19.65 20.9 22.04 23.15 24.04 24.84 25.71 26.97 28.93
1572.137 32.03 36.74 44.08 54.02 66.17 80.86 96.85 113.22 128.53 142.18
1591.427 153.85 163.66 171.23 175.44 175.23 170.78 164.07 159.16 158.86 162.72
1610.717 167.7 170.53 169.59 164.92 157.72 148.4 136.29 121.58 104.89 86.95
1630.007 70.02 55.85 44.93 36.6 30.61 26.41 23.16 20.51 18.21 16.27
1649.297 14.74 13.64 12.65 11.88 11.32 10.86 10.45 10.18 10 9.95
1668.587 10 10.15 10.44 10.9 11.49 12.17 12.98 13.88 14.91 15.99
1687.877 17.14 18.34 19.46 20.53 21.59 22.51 23.31 24.29 25.47 27.03
1707.167 29.06 31.9 36.02 41.78 49.91 60.96 75.83 94.59 120.09 154.31
1726.457 198.84 253.34 314.25 370.76 415.7 441.66 449.43 450.12 449.57 442.76
1745.747 415.49 358 282.92 210.56 155.44 117.34 89.8 70.27 55.63 44.76
1765.037 37.06 31.61 27.65 24.9 22.96 21.54 20.39 19.41 18.51 17.57
1784.327 16.56 15.52 14.38 13.18 11.98 10.83 9.86 9.09 8.41 7.81
1803.617 7.33 7 6.75 6.53 6.44 6.43 6.43 6.5 6.61 6.74
1822.907 6.87 6.95 6.99 6.99 6.95 6.84 6.7 6.53 6.25 5.94
1842.197 5.58 5.18 4.87 4.53 4.25 4.05 3.83 3.57 3.34 3.24
1861.487 3.13 3 2.91 2.79 2.7 2.73 2.76 2.78 2.87 2.96
1880.777 3.11 3.3 3.53 3.82 4.14 4.42 4.7 5.05 5.36 5.56
1900.067 5.65 5.64 5.51 5.31 5.11 4.91 4.6 4.17 3.68 3.2
1919.357 2.86 2.62 2.48 2.39 2.35 2.35 2.36 2.42 2.47 2.52
1938.647 2.59 2.65 2.65 2.63 2.64 2.63 2.65 2.66 2.64 2.6
1957.937 2.58 2.58 2.59 2.55 2.52 2.58 2.61 2.61 2.63 2.64
1977.227 2.65 2.66 2.66 2.64 2.63 2.64 2.67 2.69 2.79 2.89
1996.517 2.98 3.11 3.21 3.29 3.34 3.37 3.41 3.35 3.24 3.11
2015.807 2.94 2.7 2.48 2.35 2.227 2.1444 2.0993 2.1039 2.1283 2.1454
2035.097 2.2253 2.32 2.36 2.42 2.5 2.51 2.54 2.51 2.45 2.44
2054.387 2.32 2.2464 2.1355 1.985 1.9341 1.8341 1.6633 1.582 1.5763 1.5332
2073.677 1.4631 1.4208 1.3939 1.34947 1.3102 1.26556 1.2339 1.2123 1.2111 1.218
2092.967 1.237 1.27648 1.32756 1.32993 1.363 1.4124 1.4297 1.4579 1.4458 1.4082
2112.257 1.34809 1.30443 1.30867 1.29101 1.2371 1.1698 1.093 1.101 1.105 1.13
2131.547 1.1692 1.154 1.129 1.103 1.115 1.1546 1.2186 1.2647 1.31069 1.3608
2150.837 1.4122 1.4134 1.4513 1.5208 1.561 1.6183 1.6577 1.7 1.7471 1.8552
2170.127 1.9355 1.95 1.9929 2.0586 2.1097 2.119 2.0853 2.0286 2.019 2.0135
2189.417 1.9111 1.8377 1.8357 1.8693 1.9612 2.0416 2.088 2.1829 2.32 2.38
2208.707 2.4 2.42 2.46 2.38 2.35 2.32 2.191 2.0668 1.9758 1.9214
2227.997 1.8345 1.7796 1.7378 1.6979 1.7089 1.7108 1.7092 1.7503 1.8752 1.9557
2247.287 1.9428 1.9889 2.0176 1.9863 1.9787 1.9235 1.9347 1.9365 1.8213 1.7196
2266.577 1.6624 1.6192 1.5584 1.5209 1.4453 1.4274 1.4235 1.3579 1.3927 1.4506
2285.868 1.4426 1.4232 1.4349 1.494 1.5384 1.5743 1.5988 1.6113 1.6222 1.6214
2305.158 1.6121 1.6469 1.6656 1.6501 1.632 1.6629 1.7455 1.7486 1.8467 1.9685
2324.448 2.0592 2.2103 2.31 2.39 2.47 2.56 2.55 2.54 2.58 2.56
2343.738 2.52 2.53 2.53 2.45 2.36 2.31 2.31 2.35 2.35 2.37
2363.028 2.45 2.56 2.7 2.81 2.82 2.85 2.85 2.84 2.81 2.66
2382.318 2.5 2.36 2.1974 2.0634 1.9752 1.9256 1.9105 1.9205 1.9787 2.0434
2401.608 2.1374 2.1216 2.1208 2.1931 2.2028 2.1918 2.1593 2.1053 2.0403 1.9642
2420.898 1.8231 1.6746 1.5607 1.505 1.4553 1.4072 1.34034 1.25367 1.24278 1.26719
2440.188 1.2059 1.138 1.1513 1.146 1.1682 1.1574 1.121 1.092 1.085 1.082
2459.478 1.104 1.183 1.1745 1.129 1.113 1.085 1.124 1.1812 1.1962 1.2335
2478.768 1.2922 1.31652 1.3718 1.4683 1.5639 1.6083 1.6848 1.8457 1.9226 1.9081
2498.058 1.8972 1.916 1.9059 1.8666 1.7868 1.6513 1.5416 1.4194 1.29832 1.2704
2517.348 1.1928 1.104 1.105 1.123 1.077 1.089 1.1792 1.2274 1.2622 1.2323
2536.638 1.1933 1.25626 1.31403 1.31138 1.26908 1.2645 1.29539 1.2584 1.24008 1.26541
2555.928 1.27032 1.30233 1.34457 1.3985 1.5076 1.5534 1.6148 1.6521 1.6297 1.6811
2575.218 1.7512 1.7773 1.7714 1.7798 1.7024 1.6442 1.6533 1.5825 1.4904 1.4133
2594.508 1.3623 1.3683 1.30853 1.26844 1.25387 1.2147 1.2071 1.2091 1.2329 1.1991
2613.798 1.1842 1.24093 1.2357 1.178 1.1594 1.1795 1.1587 1.2383 1.4235 1.4656
2633.088 1.5223 1.6433 1.737 1.8838 1.9936 2.0622 2.1144 2.078 2.0792 2.1063
2652.378 2.0514 2.0024 1.958 1.8481 1.7718 1.6594 1.4924 1.3653 1.29114 1.25097
2671.668 1.2395 1.30431 1.28068 1.30472 1.3914 1.408 1.3761 1.3602 1.3728 1.4419
2690.958 1.5194 1.5114 1.5585 1.5548 1.5401 1.5598 1.4878 1.4368 1.3863 1.24152
2710.248 1.145 1.083 1.066 1.062 1.039 1.11 1.1787 1.1776 1.2303 1.29118
2729.538 1.32382 1.31096 1.30343 1.3255 1.30953 1.31523 1.31019 1.3634 1.4017 1.3619
2748.828 1.34949 1.3871 1.34679 1.1968 1.2112 1.26328 1.2025 1.1767 1.2066 1.1967
2768.118 1.1862 1.2067 1.122 1.077 1.123 0.985 0.858 0.888 0.85 0.822
2787.408 0.855 0.886 0.956 1.016 0.985 0.996 1.022 1.058 1.1843 1.33702
2806.698 1.477 1.6358 1.7992 1.9287 2.051 2.26 2.32 2.34 2.41 2.44
2825.988 2.38 2.33 2.31 2.34 2.45 2.57 2.8 3.14 3.52 3.92
2845.278 4.43 5 5.54 5.99 6.38 6.67 6.81 7.03 7.37 7.8
2864.568 8.12 8.32 8.59 8.97 9.37 9.65 9.69 9.35 8.9 8.53
2883.858 8.33 8.13 7.5 6.58 5.69 4.82 4.09 3.57 3.21 2.96
2903.148 2.87 2.95 3.14 3.46 3.99 4.73 5.71 6.9 8.28 10.15
2922.438 12.55 15.47 18.96 23.1 27.74 32.45 36.89 40.65 43.66 46.32
2941.728 48.86 50.96 49.81 44.71 39.54 35.4 31.12 26.91 23.28 20.57
2961.018 18.72 17.46 16.82 16.93 17.86 19.79 20.43 17.13 13.43 11.89
2980.308 10.84 9.7 8.4 7.04 5.67 4.46 3.48 2.67 2.0845 1.649
2999.598 1.32617 1.091 0.986 0.979 1.047 1.1775 1.29157 1.33367 1.4289 1.69
3018.888 1.9468 2.3 2.57 2.78 3.15 3.5 3.82 3.99 4.09 4.32
3038.178 4.61 4.89 5.09 5.17 5.32 5.56 5.83 6.08 6.45 7.03
3057.468 7.77 8.57 9.3 9.8 10.01 10.07 10.06 9.91 9.78 9.57
3076.758 8.98 8.22 7.63 7.16 6.79 6.52 6.15 5.72 5.37 4.99
3096.048 4.57 4.04 3.48 2.94 2.43 2.1403 2.043 2.0196 1.7645 1.5894
3115.338 1.548 1.4677 1.4323 1.3965 1.28163 1.2397 1.34777 1.3593 1.3631 1.31064
3134.628 1.2051 1.137 1.083 1.005 0.934 0.954 0.863 0.672 0.556 0.486
3153.918 0.403 0.399 0.321 0.18 0.21 0.19 0.19 0.25 0.283 0.273
3173.208 0.22 0.15 0.19 0.262 0.22 0.2 0.23 0.331 0.301 0.394
3192.498 0.507 0.423 0.497 0.492 0.434 0.422 0.452 0.573 0.528 0.568
3211.788 0.752 0.706 0.564 0.523 0.501 0.412 0.405 0.335 0.263 0.253
3231.078 0.23 0.24 0.24 0.22 0.254 0.283 0.26 0.19 0.12 0.14
3250.368 0.08 0.09 0.19 0.16 0.13 0.18 0.21 0.14 0.1 0.07
3269.658 0.04 0.03 0 0.09 0.15 0.08 0.13 0.11 0.04 0.16
3288.948 0.284 0.337 0.337 0.18 0.18 0.18 0.07 0.13 0.19 0.12
3308.238 0.15 0.24 0.22 0.19 0.12 0.16 0.307 0.24 0.08 0.15
3327.528 0.262 0.262 0.347 0.361 0.356 0.434 0.364 0.32 0.343 0.356
3346.818 0.335 0.302 0.406 0.412 0.383 0.427 0.412 0.396 0.361 0.345
3366.108 0.323 0.345 0.435 0.511 0.453 0.493 0.482 0.467 0.525 0.404
3385.398 0.355 0.428 0.523 0.623 0.582 0.597 0.611 0.543 0.579 0.561
3404.688 0.604 0.712 0.79 0.795 0.764 0.814 0.832 0.904 1.009 1.097
3423.978 1.1836 1.3705 1.4764 1.5157 1.7351 1.9123 2.1498 2.41 2.68 2.98
3443.269 3.19 3.61 4.18 4.77 5.53 6.19 6.62 6.9 7.21 7.47
3462.559 7.53 7.37 7 6.53 5.86 5.16 4.47 3.73 3.15 2.61
3481.849 2.17 1.94 1.6853 1.4307 1.3625 1.34283 1.211 1.1615 1.1971 1.132
3501.139 1.129 1.089 0.987 0.979 1.03 1.01 1.005 0.975 0.856 0.828
3520.429 0.801 0.774 0.784 0.81 0.852 0.839 0.951 1.039 0.927 0.942
3539.719 0.926 1.004 1.007 0.89 0.864 0.778 0.864 0.816 0.737 0.774
3559.009 0.683 0.777 0.946 0.946 0.867 0.876 0.852 0.776 0.795 0.824
3578.299 0.791 0.698 0.662 0.645 0.673 0.67 0.66 0.614 0.647 0.721
3597.589 0.629 0.641 0.631 0.585 0.59 0.549 0.663 0.715 0.694 0.776
3616.879 0.651 0.57 0.695 0.7 0.623 0.613 0.52 0.503 0.651 0.752
3636.169 0.797 0.729 0.73 0.765 0.768 0.722 0.656 0.687 0.666 0.659
3655.459 0.756 0.79 0.677 0.609 0.671 0.746 0.775 0.815 0.817 0.764
3674.749 0.734 0.61 0.559 0.684 0.782 0.793 0.698 0.718 0.824 0.801
3694.039 0.752 0.709 0.623 0.65 0.79 0.765 0.74 0.64 0.516 0.574
3713.329 0.693 0.731 0.754 0.801 0.766 0.788 0.809 0.676 0.652 0.698
3732.619 0.622 0.572 0.622 0.865 0.997 0.914 0.911 0.907 0.74 0.797
3751.909 0.881 0.789 0.806 0.768 0.738 0.677 0.61 0.762 0.849 0.801
3771.199 0.812 0.901 0.869 0.857 0.938 0.982 0.975 0.927 0.93 0.862
3790.489 0.896 0.943 0.863 0.905 1.013 1.009 0.872 0.92 0.972 0.939
3809.779 0.97 0.857 0.835 0.971 0.921 0.82 0.796 0.789 0.816 0.786
3829.069 0.873 0.949 0.893 1.099 1.043 0.743 0.826 0.868 0.859 0.81
3848.359 0.705 0.761 0.714 0.722 0.789 0.736 0.805 0.796 0.645 0.548
3867.649 0.639 0.736 0.799 0.715 0.619 0.709 0.742 0.778 0.69 0.647
3886.939 0.785 0.742 0.701 0.83 0.8 0.729 0.729 0.701 0.786 0.742
3906.229 0.695 0.82 0.778 0.668 0.792 0.86 0.85 0.847 0.84 0.92
3925.519 0.84 0.806 0.878 0.89 1.009 1.008 0.898 0.814 0.77 0.747
3944.809 0.75 0.766 0.743 0.826 0.752 0.688 0.771 0.778 0.808 0.735
3964.099 0.659 0.713 0.726 0.684 0.65 0.781 0.8 0.707 0.814 0.815
3983.389 0.66 0.831 0.96 0.942 0.87 0.762 0.807 0.904 1.036 1.013
##END=
