##TITLE=2-Methylcyclohexylamine,(c,t)
##JCAMP-DX=4.24
##DATA TYPE=INFRARED SPECTRUM
##ORIGIN=EPA-IR VAPOR PHASE LIBRARY
##OWNER=SRD/NIST
Collection (C) 2018 copyright by the U.S. Secretary of Commerce
on behalf of the United States of America. All rights reserved.
##CAS REGISTRY NO=7003-32-9
##MOLFORM=C 7 H 15 N
##$NIST SOURCE=MSDC-IR
##STATE=gas
##XUNITS=1/CM
##YUNITS=ABSORBANCE
##XFACTOR=1.
##YFACTOR=0.001
##DELTAX=1.92934
##FIRSTX=549.9
##LASTX=3999.5
##FIRSTY=4.59
##MAXX=3999.53
##MINX=549.863
##MAXY=0.31507
##MINY=0
##NPOINTS=1789
##XYDATA=(X++(Y..Y))
549.863 4.59 4.62 4.86 5.12 5.29 5.33 5.29 5.28 5.21 5.11
569.156 5.13 5.31 5.22 4.92 4.85 4.78 4.76 4.68 4.62 4.65
588.450 4.62 4.61 4.59 4.65 4.58 4.61 4.82 4.88 4.82 4.76
607.743 4.77 4.96 5.09 5.04 5 4.97 5.11 5.35 5.46 5.57
627.037 5.59 5.52 5.59 5.68 5.76 5.88 5.95 6.06 6.18 6.22
646.330 6.32 6.34 6.3 6.42 6.54 6.57 6.51 6.6 6.79 6.91
665.624 7.02 7.11 7.24 7.35 7.47 7.59 7.77 7.98 8.1 8.21
684.917 8.38 8.6 8.88 9.12 9.39 9.67 10.03 10.41 10.74 11.08
704.210 11.5 12.03 12.53 13.06 13.64 14.31 15.11 15.92 16.7 17.6
723.504 18.58 19.63 20.62 21.7 22.85 23.87 24.83 25.75 26.5 27.07
742.797 27.6 28.04 28.44 28.89 29.3 29.56 29.7 29.62 29.56 29.87
762.091 30.45 31.26 32.33 33.59 35.02 36.51 38.05 39.5 40.71 41.63
781.384 42.2 42.45 42.42 42.06 41.26 40.08 38.61 36.79 34.58 31.97
800.678 29.1 26.34 23.84 21.61 19.71 18.08 16.79 15.74 14.87 14.17
819.971 13.63 13.22 12.97 13.01 13.18 13.35 13.54 13.72 13.81 13.87
839.264 13.96 14.03 14.02 14.01 14.03 13.99 13.91 13.8 13.63 13.41
858.558 13.09 12.74 12.41 12 11.47 10.96 10.59 10.2 9.74 9.24
877.851 8.75 8.29 7.9 7.61 7.41 7.32 7.25 7.18 7.14 7.09
897.145 7.07 7.11 7.2 7.29 7.29 7.21 7.15 7.11 7.1 7.05
916.438 6.96 6.86 6.73 6.66 6.56 6.44 6.32 6.14 5.97 5.81
935.732 5.68 5.55 5.38 5.21 5.1 5.03 4.96 4.92 4.95 5.03
955.025 5.15 5.37 5.67 5.98 6.3 6.63 6.95 7.26 7.55 7.83
974.318 8.03 8.13 8.17 8.09 7.91 7.68 7.41 7.09 6.74 6.42
993.612 6.1 5.79 5.49 5.27 5.07 4.87 4.81 4.74 4.68 4.79
1012.905 4.87 4.93 5.02 5.16 5.37 5.63 5.92 6.19 6.48 6.83
1032.199 7.27 7.74 8.23 8.74 9.27 9.85 10.46 11 11.38 11.63
1051.492 11.74 11.75 11.76 11.68 11.5 11.4 11.33 11.07 10.59 9.97
1070.786 9.35 8.91 8.62 8.5 8.58 8.68 8.72 8.8 8.83 8.84
1090.079 8.91 8.96 9.01 9.07 9.17 9.25 9.28 9.15 8.97 8.85
1109.372 8.62 8.25 7.86 7.47 7.07 6.68 6.27 5.84 5.43 4.99
1128.666 4.66 4.32 3.98 3.78 3.59 3.43 3.31 3.21 3.21 3.17
1147.959 3.11 3.14 3.15 3.19 3.2 3.21 3.19 3.12 3.06 3.07
1167.253 3.03 2.96 2.95 2.94 2.98 2.98 2.94 2.94 2.98 2.95
1186.546 2.92 2.93 2.87 2.76 2.62 2.6 2.62 2.64 2.6 2.47
1205.840 2.32 2.28 2.32 2.32 2.45 2.51 2.52 2.61 2.69 2.77
1225.133 2.81 2.84 3.08 3.3 3.47 3.75 4.06 4.35 4.55 4.65
1244.426 4.79 4.86 4.85 4.84 4.8 4.73 4.65 4.56 4.44 4.21
1263.720 3.9 3.68 3.49 3.27 3.1 3.02 2.96 2.96 2.99 3.03
1283.013 3.09 3.21 3.32 3.39 3.56 3.79 3.92 3.99 4.14 4.32
1302.307 4.45 4.57 4.69 4.69 4.62 4.54 4.5 4.45 4.46 4.55
1321.600 4.62 4.72 4.91 5.07 5.24 5.38 5.49 5.69 5.9 6.12
1340.894 6.43 6.76 7.11 7.44 7.78 8.19 8.64 9.1 9.59 10.13
1360.187 10.63 11.12 11.61 12.05 12.48 12.83 13.06 13.22 13.22 13.12
1379.480 12.98 12.76 12.38 11.82 11.1 10.28 9.39 8.5 7.65 6.83
1398.774 6.13 5.54 5.08 4.71 4.42 4.23 4.11 4.09 4.13 4.22
1418.067 4.39 4.61 4.93 5.39 6.07 6.96 8.09 9.57 11.25 13.04
1437.361 14.95 16.72 18.37 19.99 21.6 23.6 26.78 31.07 33.16 31.26
1456.654 28.75 27.3 26.36 25.96 25.59 24.24 22.04 19.93 18.04 16.23
1475.948 14.48 12.73 11.16 9.71 8.43 7.41 6.58 5.96 5.41 4.94
1495.241 4.6 4.26 3.97 3.79 3.63 3.43 3.27 3.19 3.14 3.08
1514.534 2.99 2.92 2.85 2.82 2.77 2.75 2.74 2.72 2.75 2.76
1533.828 2.76 2.78 2.75 2.76 2.84 2.91 2.94 2.98 3.08 3.15
1553.121 3.19 3.24 3.3 3.38 3.49 3.63 3.75 3.94 4.12 4.29
1572.415 4.5 4.66 4.92 5.21 5.49 5.85 6.21 6.64 7.18 7.78
1591.708 8.41 9.14 9.95 10.81 11.76 12.81 13.83 14.81 15.78 16.72
1611.002 17.54 18.16 18.51 18.68 18.76 18.58 18.18 17.6 16.82 15.86
1630.295 14.83 13.75 12.58 11.37 10.26 9.22 8.28 7.44 6.59 5.89
1649.588 5.37 4.84 4.37 3.99 3.7 3.45 3.21 3.02 2.83 2.62
1668.882 2.46 2.34 2.2211 2.1253 2.083 1.9949 1.8619 1.7239 1.612 1.5864
1688.175 1.5586 1.529 1.5046 1.4399 1.3759 1.3736 1.3633 1.3913 1.3544 1.29586
1707.469 1.30993 1.31333 1.32317 1.27276 1.2248 1.2512 1.25769 1.26025 1.24298 1.1862
1726.762 1.2025 1.2065 1.1775 1.1541 1.134 1.1734 1.1541 1.141 1.147 1.125
1746.056 1.108 1.116 1.128 1.137 1.138 1.11 1.098 1.093 1.103 1.111
1765.349 1.105 1.123 1.115 1.084 1.112 1.1735 1.1718 1.1621 1.1769 1.1661
1784.642 1.1981 1.2057 1.1526 1.148 1.19 1.2112 1.2272 1.2113 1.1794 1.2126
1803.936 1.24229 1.2211 1.2034 1.2201 1.2198 1.2086 1.2185 1.1899 1.1807 1.1694
1823.229 1.134 1.122 1.13 1.122 1.105 1.131 1.099 1.071 1.077 1.062
1842.523 1.053 1.048 1.026 1.004 0.956 0.935 0.95 0.924 0.89 0.884
1861.816 0.91 0.895 0.856 0.842 0.855 0.822 0.812 0.842 0.844 0.8
1881.110 0.767 0.769 0.771 0.752 0.758 0.787 0.764 0.745 0.746 0.762
1900.403 0.766 0.724 0.674 0.663 0.667 0.669 0.677 0.637 0.617 0.608
1919.696 0.578 0.573 0.569 0.551 0.541 0.568 0.55 0.544 0.571 0.571
1938.990 0.548 0.525 0.518 0.523 0.515 0.5 0.494 0.484 0.475 0.447
1958.283 0.478 0.513 0.505 0.529 0.532 0.492 0.466 0.471 0.497 0.491
1977.577 0.458 0.481 0.499 0.487 0.486 0.481 0.472 0.479 0.458 0.481
1996.870 0.504 0.489 0.499 0.491 0.515 0.515 0.49 0.525 0.553 0.552
2016.164 0.563 0.567 0.565 0.586 0.635 0.657 0.619 0.595 0.584 0.568
2035.457 0.575 0.609 0.581 0.532 0.534 0.539 0.542 0.536 0.515 0.505
2054.750 0.487 0.484 0.512 0.527 0.551 0.53 0.489 0.523 0.538 0.526
2074.044 0.539 0.542 0.513 0.494 0.501 0.477 0.48 0.528 0.561 0.556
2093.337 0.534 0.533 0.545 0.572 0.569 0.554 0.571 0.575 0.595 0.593
2112.631 0.582 0.575 0.594 0.628 0.607 0.57 0.59 0.618 0.615 0.653
2131.924 0.684 0.675 0.669 0.685 0.688 0.708 0.731 0.707 0.678 0.695
2151.218 0.712 0.7 0.72 0.756 0.772 0.751 0.703 0.706 0.73 0.734
2170.511 0.731 0.745 0.781 0.782 0.738 0.714 0.732 0.713 0.691 0.702
2189.804 0.703 0.711 0.687 0.675 0.683 0.681 0.7 0.722 0.744 0.741
2209.098 0.716 0.728 0.75 0.716 0.701 0.697 0.719 0.741 0.705 0.668
2228.391 0.677 0.711 0.726 0.697 0.694 0.686 0.686 0.688 0.675 0.712
2247.685 0.719 0.696 0.695 0.702 0.714 0.705 0.716 0.724 0.719 0.719
2266.978 0.709 0.733 0.766 0.782 0.781 0.782 0.794 0.8 0.777 0.771
2286.272 0.782 0.79 0.801 0.804 0.816 0.836 0.836 0.872 0.876 0.852
2305.565 0.858 0.871 0.893 0.896 0.892 0.919 0.913 0.871 0.864 0.905
2324.858 0.906 0.891 0.875 0.851 0.857 0.861 0.877 0.892 0.878 0.87
2344.152 0.904 0.924 0.906 0.897 0.914 0.926 0.939 0.949 0.919 0.883
2363.445 0.915 0.937 0.923 0.917 0.954 0.967 0.953 0.976 0.941 0.934
2382.739 0.979 0.978 0.954 0.957 0.966 0.979 1.003 1.018 1.014 0.999
2402.032 0.97 0.965 0.99 0.974 0.983 1.04 1.058 1.024 1.01 1.062
2421.326 1.097 1.079 1.105 1.126 1.113 1.11 1.095 1.099 1.1 1.086
2440.619 1.051 1.018 1.026 1.02 1.001 1.003 0.998 0.989 0.974 0.955
2459.912 0.949 0.971 0.974 0.956 1.009 1.018 1.015 1.069 1.055 1.034
2479.206 1.062 1.082 1.077 1.067 1.113 1.1547 1.131 1.1508 1.1767 1.1651
2498.499 1.1573 1.184 1.2134 1.21 1.2285 1.29083 1.31075 1.29547 1.2788 1.27474
2517.793 1.29685 1.3525 1.3907 1.3919 1.3574 1.2991 1.32184 1.34097 1.33778 1.3614
2537.086 1.3878 1.4079 1.4303 1.4258 1.4596 1.4913 1.4574 1.4712 1.4708 1.4794
2556.380 1.5457 1.5692 1.5915 1.6571 1.7131 1.7654 1.8071 1.8344 1.9112 2.0027
2575.673 2.0866 2.1608 2.25 2.34 2.39 2.49 2.6 2.69 2.77 2.85
2594.966 2.91 2.93 2.94 3 3.07 3.11 3.11 3.12 3.19 3.19
2614.260 3.17 3.16 3.14 3.13 3.09 3.07 3.15 3.22 3.22 3.23
2633.553 3.28 3.36 3.42 3.52 3.63 3.7 3.79 3.93 4.09 4.22
2652.847 4.35 4.49 4.67 4.78 4.84 5 5.15 5.17 5.17 5.2
2672.140 5.15 5.04 4.96 4.8 4.63 4.51 4.44 4.4 4.28 4.15
2691.434 4.08 3.94 3.83 3.79 3.74 3.74 3.74 3.67 3.68 3.7
2710.727 3.6 3.63 3.73 3.73 3.79 3.86 3.85 3.87 3.94 4.07
2730.020 4.2 4.25 4.35 4.41 4.42 4.49 4.53 4.55 4.55 4.49
2749.314 4.5 4.53 4.5 4.48 4.45 4.49 4.55 4.56 4.59 4.61
2768.607 4.71 4.88 5.04 5.22 5.39 5.59 5.88 6.18 6.45 6.8
2787.901 7.17 7.51 7.87 8.27 8.72 9.19 9.64 10.09 10.57 11.12
2807.194 11.75 12.28 12.82 13.45 14.02 14.54 15.17 15.86 16.62 17.49
2826.488 18.52 19.73 21.32 23.28 25.76 28.87 32.62 37.21 42.43 48.3
2845.781 54.9 62.08 69.83 78.04 86.12 93.48 99.54 104.56 109.8 115.51
2865.074 119.72 119.92 116.79 113.2 109.93 106.06 101.49 96.6 91.54 86.63
2884.368 82.24 78.57 75.78 74 73.32 74 76.21 80.01 85.02 90.68
2903.661 96.99 104.8 114.97 127.71 142.16 157.12 171.92 186.21 199.97 213.78
2922.955 229.94 251.57 280.18 307.47 315.07 301.02 281.49 265.19 253.02 244.09
2942.248 234.61 220.19 201.41 182.59 165.23 148.81 133.65 120.14 107.65 95.58
2961.542 84.49 75.49 68.73 63.39 58.87 54.47 49.93 45.22 40.38 35.78
2980.835 31.54 27.6 23.93 20.58 17.63 15.12 13.05 11.36 9.86 8.62
3000.128 7.62 6.7 5.84 5.09 4.49 4.04 3.77 3.56 3.28 3.01
3019.422 2.84 2.92 3.01 2.97 2.87 2.86 2.91 2.9 2.99 3.05
3038.715 2.99 3.01 3.12 3.11 3.09 3.16 3.15 3.18 3.17 3.07
3058.009 2.99 2.93 2.93 2.93 2.78 2.61 2.57 2.62 2.61 2.51
3077.302 2.52 2.48 2.39 2.31 2.25 2.32 2.36 2.38 2.4 2.38
3096.596 2.49 2.51 2.45 2.47 2.46 2.49 2.44 2.36 2.31 2.42
3115.889 2.52 2.46 2.32 2.28 2.29 2.1657 2.0691 2.019 1.9482 1.8374
3135.182 1.7913 1.6833 1.5652 1.5389 1.5971 1.642 1.5946 1.5463 1.4583 1.3954
3154.476 1.4734 1.5411 1.4449 1.32046 1.28089 1.2036 1.25789 1.3936 1.30666 1.1893
3173.769 1.129 1.073 1.059 0.937 0.902 1.011 0.919 0.945 0.965 0.81
3193.063 0.839 0.947 0.933 0.916 0.833 0.749 0.768 0.738 0.756 0.78
3212.356 0.82 0.914 0.914 0.85 0.897 0.95 0.901 0.924 0.925 0.879
3231.650 1.01 1.135 1.066 0.949 0.949 0.941 1.013 1.142 1.112 1.086
3250.943 1.035 0.991 1.022 1.037 1.035 1.06 1.061 0.963 0.908 0.96
3270.236 1.031 1.119 1.032 0.879 0.892 0.866 0.885 0.781 0.626 0.607
3289.530 0.57 0.632 0.642 0.62 0.639 0.668 0.742 0.756 0.728 0.806
3308.823 0.863 0.907 1.006 1.024 1.019 1.057 1.109 1.3664 1.6216 1.5805
3328.117 1.5513 1.6949 1.764 1.7191 1.7662 1.848 1.92 1.87 1.6799 1.6732
3347.410 1.6531 1.5656 1.4429 1.30292 1.405 1.3902 1.1737 0.917 0.773 0.786
3366.704 0.817 0.758 0.692 0.597 0.597 0.666 0.594 0.501 0.485 0.534
3385.997 0.462 0.56 0.61 0.45 0.45 0.417 0.372 0.506 0.544 0.496
3405.290 0.523 0.386 0.28 0.462 0.546 0.497 0.383 0.27 0.298 0.319
3424.584 0.358 0.36 0.336 0.379 0.438 0.343 0.254 0.326 0.32 0.257
3443.877 0.24 0.308 0.274 0.17 0.21 0.254 0.25 0.339 0.531 0.587
3463.171 0.412 0.334 0.414 0.484 0.575 0.588 0.587 0.538 0.589 0.686
3482.464 0.589 0.604 0.585 0.522 0.58 0.487 0.493 0.519 0.491 0.542
3501.758 0.418 0.313 0.349 0.355 0.322 0.285 0.17 0.14 0.21 0.21
3521.051 0.21 0.21 0.1 0.06 0.13 0.09 0.07 0 0.01 0.17
3540.344 0.24 0.18 0.17 0.15 0.24 0.278 0.21 0.12 0.12 0.17
3559.638 0.08 0.17 0.294 0.355 0.34 0.22 0.12 0.18 0.18 0.14
3578.931 0.13 0.13 0.16 0.11 0.05 0.07 0.17 0.19 0.12 0.09
3598.225 0.15 0.19 0.11 0.12 0.23 0.22 0.06 0.01 0.04 0.16
3617.518 0.24 0.16 0.16 0.14 0.12 0.2 0.22 0.21 0.22 0.18
3636.812 0.15 0.24 0.316 0.314 0.2 0.09 0.14 0.23 0.308 0.337
3656.105 0.319 0.314 0.258 0.16 0.13 0.15 0.17 0.13 0.17 0.27
3675.398 0.277 0.34 0.417 0.44 0.417 0.361 0.417 0.472 0.431 0.486
3694.692 0.486 0.44 0.483 0.481 0.45 0.451 0.426 0.396 0.412 0.39
3713.985 0.518 0.601 0.401 0.378 0.512 0.458 0.449 0.436 0.397 0.429
3733.279 0.309 0.257 0.309 0.38 0.377 0.306 0.378 0.446 0.446 0.46
3752.572 0.495 0.567 0.642 0.611 0.585 0.655 0.673 0.716 0.745 0.697
3771.866 0.726 0.759 0.681 0.636 0.665 0.659 0.634 0.604 0.639 0.67
3791.159 0.614 0.557 0.578 0.613 0.586 0.509 0.482 0.524 0.523 0.552
3810.452 0.611 0.573 0.538 0.615 0.612 0.496 0.485 0.558 0.604 0.6
3829.746 0.621 0.659 0.649 0.614 0.527 0.534 0.629 0.687 0.703 0.686
3849.039 0.725 0.654 0.582 0.597 0.621 0.656 0.599 0.623 0.729 0.663
3868.333 0.635 0.579 0.547 0.694 0.688 0.577 0.644 0.708 0.548 0.513
3887.626 0.61 0.614 0.588 0.575 0.543 0.571 0.572 0.556 0.592 0.557
3906.920 0.586 0.566 0.539 0.606 0.634 0.696 0.672 0.616 0.629 0.614
3926.213 0.564 0.575 0.579 0.574 0.584 0.564 0.623 0.623 0.631 0.694
3945.506 0.679 0.695 0.719 0.786 0.789 0.658 0.649 0.738 0.773 0.765
3964.800 0.707 0.755 0.821 0.846 0.831 0.719 0.731 0.76 0.79 0.82
3984.093 0.755 0.749 0.801 0.839 0.864 0.944 1.021 0.94 0.841
##END=
