##TITLE=4-Chlorophenyl phenyl ether
##JCAMP-DX=4.24
##DATA TYPE=INFRARED SPECTRUM
##ORIGIN=NIST Mass Spectrometry Data Center
##OWNER=NIST Standard Reference Data Program
Collection (C) 2018 copyright by the U.S. Secretary of Commerce
on behalf of the United States of America. All rights reserved.
##CAS REGISTRY NO=7005-72-3
##MOLFORM=C 12 H 9 Cl O
##$NIST SOURCE=MSDC-IR
##SPECTROMETER/DATA SYSTEM=HP-GC/MS/IRD
##STATE=gas
##XUNITS=1/CM
##YUNITS=ABSORBANCE
##XFACTOR=1.0
##YFACTOR=0.000007600
##DELTAX=4.0
##FIRSTX=550.0
##LASTX=3846.0
##FIRSTY=0.000061
##MAXX=3846
##MINX=550
##MAXY=0.076
##MINY=0
##NPOINTS=825
##XYDATA=(X++(Y..Y))
550.0 8 13 9 0 2 7 15 33 50 71
590.0 81 80 73 60 61 61 67 76 78 80
630.0 79 93 118 149 199 274 359 401 363 290
670.0 240 254 319 414 536 613 611 535 425 339
710.0 274 239 224 219 237 292 378 493 636 809
750.0 981 1063 1006 846 670 524 406 329 294 281
790.0 267 270 284 300 328 371 436 521 629 740
830.0 821 861 842 763 651 557 524 636 928 1147
870.0 1055 716 398 260 208 178 159 152 147 138
910.0 122 100 81 63 50 47 43 41 41 37
950.0 40 42 41 42 45 48 58 70 80 88
990.0 95 110 155 271 511 713 717 550 357 256
1030.0 168 102 79 81 85 103 147 195 247 319
1070.0 411 534 719 982 1300 1561 1627 1446 1104 760
1110.0 504 340 251 205 179 168 165 176 204 242
1150.0 303 453 720 911 865 636 462 437 460 493
1190.0 532 582 647 731 853 1043 1333 1757 2375 3293
1230.0 4699 6712 8897 10000 9045 6588 4182 2755 2081 1714
1270.0 1453 1216 1010 870 791 742 696 619 523 431
1310.0 354 302 270 254 243 225 207 191 173 162
1350.0 157 148 135 123 114 108 106 109 113 121
1390.0 131 138 140 144 152 166 205 275 342 361
1430.0 321 263 235 245 287 355 472 667 963 1408
1470.0 2150 3596 5994 8268 8683 6915 4459 2823 1949 1393
1510.0 1040 818 667 556 468 397 344 308 291 286
1550.0 292 316 363 447 593 850 1243 1731 2086 2070
1590.0 1676 1201 906 759 623 466 327 237 192 164
1630.0 149 145 137 128 122 116 103 88 79 70
1670.0 62 56 52 52 51 53 57 62 65 67
1710.0 70 75 78 77 78 78 76 75 75 81
1750.0 84 80 71 65 65 66 67 63 53 45
1790.0 40 35 32 32 29 24 26 29 30 32
1830.0 35 39 43 50 56 64 74 87 102 120
1870.0 134 139 138 126 109 89 75 68 63 62
1910.0 62 64 66 71 78 78 76 77 76 72
1950.0 64 51 36 26 22 24 25 26 28 30
1990.0 34 40 45 50 55 61 68 78 90 96
2030.0 97 90 75 64 59 57 58 65 68 62
2070.0 54 45 38 34 32 27 22 18 11 9
2110.0 10 8 7 4 3 3 3 5 5 5
2150.0 6 5 4 5 4 2 1 2 1 1
2190.0 2 1 0 0 0 2 3 4 2 3
2230.0 8 11 11 10 13 17 17 18 21 20
2270.0 21 19 16 13 10 9 11 12 12 15
2310.0 19 19 21 23 22 21 21 19 20 24
2350.0 28 33 37 35 32 32 28 28 32 41
2390.0 50 57 63 69 73 67 63 67 74 85
2430.0 93 95 94 85 69 55 48 45 41 38
2470.0 36 34 29 23 21 19 17 15 16 16
2510.0 15 14 15 16 16 15 18 19 20 20
2550.0 17 15 18 19 17 14 14 10 8 10
2590.0 10 9 6 3 4 6 3 4 7 8
2630.0 7 5 8 10 10 6 5 8 10 9
2670.0 8 10 12 12 12 13 12 9 8 7
2710.0 7 7 7 7 6 8 12 13 14 11
2750.0 9 9 9 9 7 8 8 8 11 11
2790.0 12 11 9 11 16 20 23 26 27 29
2830.0 30 30 29 22 20 17 15 17 16 15
2870.0 17 20 17 16 16 13 12 13 12 10
2910.0 9 7 6 11 12 11 11 10 11 13
2950.0 15 13 10 11 12 12 12 17 20 20
2990.0 23 27 30 38 49 64 88 115 140 169
3030.0 210 269 347 417 439 412 367 335 334 360
3070.0 410 483 550 565 519 447 390 346 291 231
3110.0 175 122 80 52 35 29 29 24 18 18
3150.0 16 16 17 17 18 21 18 18 12 9
3190.0 11 10 16 13 10 8 6 4 7 9
3230.0 9 6 7 9 10 13 9 9 10 6
3270.0 7 11 12 10 12 12 9 10 10 9
3310.0 9 11 9 8 7 6 4 1 3 8
3350.0 6 3 1 0 4 7 8 6 4 4
3390.0 7 10 8 6 4 7 9 8 7 7
3430.0 5 4 3 5 9 7 7 5 7 6
3470.0 4 7 9 8 13 14 12 7 7 11
3510.0 8 9 13 9 7 8 5 2 4 4
3550.0 5 7 6 3 2 5 9 11 6 4
3590.0 10 11 10 10 9 9 9 9 14 15
3630.0 13 10 10 13 13 17 18 13 12 13
3670.0 15 16 19 19 17 16 14 13 14 18
3710.0 18 14 14 18 19 20 19 18 17 14
3750.0 22 23 18 16 16 15 7 6 8 8
3790.0 12 15 15 15 15 13 14 13 11 10
3830.0 14 17 17 16 13
##END=
