##TITLE=3-Chloro-N-methylaniline
##JCAMP-DX=4.24
##DATA TYPE=INFRARED SPECTRUM
##ORIGIN=EPA-IR VAPOR PHASE LIBRARY
##OWNER=SRD/NIST
Collection (C) 2018 copyright by the U.S. Secretary of Commerce
on behalf of the United States of America. All rights reserved.
##CAS REGISTRY NO=7006-52-2
##MOLFORM=C 7 H 8 Cl N
##$NIST SOURCE=MSDC-IR
##STATE=gas
##XUNITS=1/CM
##YUNITS=ABSORBANCE
##XFACTOR=1.
##YFACTOR=0.001
##DELTAX=1.92934
##FIRSTX=549.9
##LASTX=3999.5
##FIRSTY=7.13
##MAXX=3999.53
##MINX=549.863
##MAXY=0.1372
##MINY=0
##NPOINTS=1789
##XYDATA=(X++(Y..Y))
549.863 7.13 6.88 6.61 6.57 6.46 6.16 5.88 5.55 5.42 5.28
569.156 5 4.88 4.8 4.65 4.66 4.5 4.49 4.71 4.67 4.63
588.450 4.75 4.93 4.98 5.21 5.27 5.18 5.34 5.55 5.69 5.78
607.743 5.92 6.05 6 6.04 6.2 6.31 6.36 6.43 6.52 6.52
627.037 6.61 6.78 6.74 6.85 7.05 7.08 7.19 7.12 7.14 7.33
646.330 7.44 7.49 7.58 7.82 8.11 8.46 8.97 9.68 10.49 11.41
665.624 12.51 13.72 14.87 16.05 17.56 19.74 22.66 24.89 24.79 23.38
684.917 22.35 21.75 21.37 20.8 19.86 18.85 17.71 16.39 15.18 14.04
704.210 12.95 12.04 11.29 10.59 10.02 9.6 9.15 8.82 8.56 8.3
723.504 8.17 8.07 8.05 8.22 8.39 8.57 8.93 9.54 10.4 11.49
742.797 12.9 14.59 16.57 18.76 20.99 23.13 25.24 27.52 30.59 34.32
762.091 36.87 36.85 33.46 28.86 25.8 23.64 21.48 19.13 16.67 14.19
781.384 11.95 10.07 8.55 7.48 6.76 6.25 5.88 5.58 5.42 5.34
800.678 5.34 5.38 5.43 5.57 5.68 5.84 6.08 6.41 7 7.73
819.971 8.46 9.34 10.5 11.88 13.44 15.09 16.96 19.06 21.45 24.21
839.264 26.65 28.69 30.17 30.35 30.05 30.06 30.09 29.93 29.54 28.88
858.558 28.01 26.98 25.86 24.82 23.9 23.06 22.19 21.18 20 18.63
877.851 16.96 15.03 12.96 10.83 8.77 7.05 5.72 4.67 3.9 3.34
897.145 2.93 2.63 2.4 2.25 2.12 1.9606 1.9276 1.8411 1.7553 1.7548
916.438 1.6629 1.5663 1.5282 1.5242 1.4876 1.4339 1.4662 1.4701 1.4532 1.4648
935.732 1.4403 1.4602 1.4458 1.4493 1.4627 1.4196 1.4005 1.4495 1.4616 1.4619
955.025 1.5185 1.5336 1.575 1.6582 1.7006 1.7568 1.8977 2.07 2.24 2.57
974.318 3.06 3.82 4.99 6.48 8.2 9.58 10.11 10.18 10.54 10.54
993.612 10.23 10.19 9.3 7.34 5.26 3.77 2.96 2.52 2.33 2.22
1012.905 2.13 2.14 2.17 2.21 2.29 2.38 2.52 2.66 2.84 3.13
1032.199 3.39 3.73 4.15 4.61 5.19 5.86 6.58 7.37 8.3 9.37
1051.492 10.5 11.62 12.75 13.87 14.91 15.87 16.69 17.44 18 18.4
1070.786 18.88 19.33 19.75 20.31 21.17 22.4 24.02 25.69 27.07 28.12
1090.079 28.81 29.11 28.83 27.95 26.52 24.53 22.28 19.93 17.53 15.03
1109.372 12.5 10.31 8.66 7.38 6.39 5.74 5.36 5 4.8 4.84
1128.666 4.88 4.93 5.06 5.26 5.54 6.06 6.63 7.28 8.07 8.67
1147.959 9.37 10.02 10.42 10.98 11.61 12.21 12.65 12.78 12.45 11.72
1167.253 10.78 10.02 9.49 8.76 7.85 6.72 5.65 4.84 4.3 4.21
1186.546 3.93 3.68 3.77 3.74 3.87 3.94 3.91 3.97 4.11 4.02
1205.840 3.66 3.68 3.78 3.91 4.04 4.07 4.3 4.64 5.14 6.1
1225.133 6.98 7.61 8.8 10.27 11.32 12.3 13.24 13.74 14.18 15.01
1244.426 16.06 16.94 17.25 17.35 17.38 17.21 17.13 17.29 17.58 17.99
1263.720 18.46 18.9 19.16 19.25 19.37 19.46 19.45 19.48 19.64 19.7
1283.013 19.61 19.29 18.66 17.88 17.23 17.02 17.27 17.68 18.32 19.15
1302.307 20.17 21.52 23 24.37 25.6 26.49 26.87 26.84 26.35 25.31
1321.600 23.86 22.3 20.62 18.7 16.51 14.32 12.32 10.64 9.27 8.15
1340.894 7.22 6.45 5.86 5.33 4.91 4.54 4.18 3.94 3.75 3.6
1360.187 3.5 3.48 3.53 3.57 3.68 3.84 4.03 4.29 4.58 4.94
1379.480 5.28 5.67 6.1 6.46 6.85 7.3 7.86 8.48 9.13 9.8
1398.774 10.56 11.39 12.19 13 13.82 14.58 15.12 15.42 15.61 15.69
1418.067 15.67 15.57 15.36 15.07 14.81 14.59 14.36 14.03 13.66 13.35
1437.361 13.15 13.08 13.06 12.83 12.44 12.14 12.11 12.35 12.9 13.76
1456.654 14.83 15.99 17.34 18.97 20.84 22.93 25.33 28.21 31.57 35.38
1475.948 39.48 43.88 48.25 52.34 55.91 59.18 62.48 65.83 69.26 72.57
1495.241 75.07 76.5 76.81 76.17 74.76 72.54 69.27 65.1 60.08 54.19
1514.534 47.84 41.4 35.38 30.32 26.11 22.94 20.53 18.64 17.21 16.01
1533.828 14.82 13.79 12.95 12.15 11.43 10.96 10.75 10.65 10.76 11.06
1553.121 11.53 12.19 13.04 14.24 15.71 17.41 19.55 22.1 25.18 28.93
1572.415 33.22 38.17 44.14 50.85 58.28 66.88 76.52 87.3 98.79 110.13
1591.708 120.32 128.63 134.41 137.2 136.76 133.27 127.34 119.29 109.33 97.62
1611.002 84.74 71.64 59.63 49.21 40.73 34.12 28.81 24.38 20.67 17.65
1630.295 15.14 13.03 11.35 9.99 8.92 8.1 7.38 6.84 6.44 6.04
1649.588 5.62 5.25 4.86 4.56 4.36 4.19 4.13 4.05 3.94 3.88
1668.882 3.82 3.77 3.76 3.73 3.64 3.55 3.46 3.36 3.28 3.23
1688.175 3.15 3.04 2.98 2.93 2.83 2.75 2.74 2.72 2.71 2.76
1707.469 2.78 2.73 2.65 2.61 2.56 2.53 2.5 2.39 2.29 2.22
1726.762 2.15 2.11 2.05 1.9772 1.855 1.7534 1.721 1.7072 1.708 1.6786
1746.056 1.6313 1.622 1.605 1.572 1.5254 1.4622 1.447 1.3926 1.3981 1.4474
1765.349 1.4112 1.3849 1.4369 1.4519 1.3988 1.3742 1.357 1.3664 1.4563 1.4756
1784.642 1.4299 1.4407 1.4661 1.5317 1.5742 1.6704 1.8035 1.875 1.9743 2.08
1803.936 2.05 2.03 2.06 1.9567 1.8929 1.8177 1.6637 1.6021 1.5125 1.4202
1823.229 1.3605 1.2763 1.1989 1.1469 1.1553 1.1712 1.2088 1.2118 1.2121 1.2019
1842.523 1.1643 1.1539 1.1431 1.1797 1.1482 1.08068 1.07693 1.05954 1.05594 1.02696
1861.816 0.9528 0.9648 0.9859 0.9569 0.9354 0.942 0.9595 0.9649 0.9803 0.9809
1881.110 0.9824 1.04198 1.1562 1.2843 1.427 1.5558 1.644 1.7388 1.9194 2.06
1900.403 2.13 2.1 2.05 2.0261 1.9592 1.9261 1.8673 1.7418 1.5846 1.4054
1919.696 1.2205 1.07555 0.9724 0.885 0.842 0.784 0.74 0.762 0.77 0.715
1938.990 0.695 0.73 0.673 0.646 0.696 0.679 0.658 0.611 0.597 0.663
1958.283 0.648 0.644 0.66 0.625 0.619 0.662 0.679 0.654 0.703 0.714
1977.577 0.706 0.752 0.734 0.72 0.715 0.685 0.678 0.692 0.666 0.608
1996.870 0.61 0.629 0.627 0.628 0.624 0.611 0.583 0.593 0.623 0.58
2016.164 0.554 0.584 0.558 0.561 0.554 0.449 0.432 0.462 0.45 0.481
2035.457 0.502 0.482 0.446 0.463 0.491 0.472 0.454 0.46 0.465 0.454
2054.750 0.455 0.471 0.483 0.493 0.504 0.504 0.497 0.52 0.545 0.516
2074.044 0.526 0.559 0.553 0.589 0.593 0.504 0.498 0.559 0.528 0.535
2093.337 0.587 0.606 0.594 0.623 0.684 0.649 0.629 0.657 0.642 0.643
2112.631 0.651 0.664 0.713 0.703 0.678 0.693 0.713 0.753 0.762 0.791
2131.924 0.819 0.809 0.842 0.885 0.902 0.854 0.841 0.849 0.871 0.919
2151.218 0.898 0.874 0.885 0.88 0.836 0.76 0.706 0.68 0.661 0.64
2170.511 0.606 0.567 0.602 0.6 0.475 0.413 0.412 0.4 0.389 0.366
2189.804 0.345 0.35 0.386 0.375 0.344 0.358 0.374 0.349 0.317 0.324
2209.098 0.344 0.328 0.314 0.339 0.328 0.316 0.344 0.322 0.299 0.351
2228.391 0.363 0.302 0.302 0.325 0.334 0.336 0.343 0.368 0.353 0.357
2247.685 0.37 0.378 0.414 0.41 0.357 0.307 0.321 0.37 0.352 0.309
2266.978 0.319 0.366 0.371 0.342 0.33 0.376 0.346 0.305 0.311 0.364
2286.272 0.432 0.351 0.326 0.355 0.326 0.297 0.284 0.253 0.271 0.336
2305.565 0.317 0.323 0.358 0.305 0.312 0.378 0.36 0.372 0.426 0.482
2324.858 0.54 0.606 0.637 0.595 0.582 0.617 0.642 0.605 0.573 0.599
2344.152 0.598 0.629 0.658 0.609 0.565 0.582 0.572 0.564 0.564 0.563
2363.445 0.578 0.538 0.559 0.598 0.601 0.626 0.622 0.583 0.589 0.64
2382.739 0.582 0.571 0.597 0.512 0.55 0.604 0.585 0.557 0.56 0.583
2402.032 0.573 0.555 0.533 0.546 0.562 0.573 0.536 0.436 0.387 0.391
2421.326 0.426 0.44 0.442 0.439 0.392 0.33 0.343 0.402 0.411 0.399
2440.619 0.411 0.453 0.46 0.491 0.505 0.475 0.495 0.5 0.512 0.575
2459.912 0.579 0.548 0.535 0.526 0.549 0.53 0.539 0.513 0.47 0.44
2479.206 0.469 0.522 0.446 0.397 0.446 0.426 0.364 0.325 0.313 0.378
2498.499 0.403 0.398 0.388 0.364 0.383 0.394 0.41 0.428 0.428 0.518
2517.793 0.563 0.539 0.615 0.689 0.727 0.742 0.741 0.76 0.759 0.773
2537.086 0.867 0.9365 0.9995 1.03125 1.03714 1.02582 1.02257 1.09243 1.08315 1.05986
2556.380 1.05979 1.08242 1.1101 1.08275 1.0172 0.9972 0.9958 0.9831 0.9986 0.965
2575.673 0.929 0.9344 0.9378 0.917 0.869 0.853 0.811 0.777 0.837 0.801
2594.966 0.683 0.638 0.638 0.628 0.607 0.59 0.637 0.695 0.748 0.731
2614.260 0.69 0.765 0.78 0.81 0.817 0.793 0.814 0.796 0.765 0.754
2633.553 0.772 0.788 0.821 0.866 0.909 0.841 0.789 0.771 0.769 0.874
2652.847 0.926 0.9346 0.9932 0.9835 0.889 0.914 0.9628 0.9758 0.9608 0.856
2672.140 0.833 0.912 0.877 0.795 0.813 0.869 0.878 0.84 0.843 0.865
2691.434 0.857 0.813 0.86 0.919 0.916 0.874 0.798 0.809 0.892 1.0131
2710.727 1.0431 1.03683 1.08719 1.06819 1.06583 1.11485 1.1592 1.1363 1.07594 1.1308
2730.020 1.2282 1.2125 1.1785 1.2239 1.28 1.3726 1.4809 1.5026 1.5331 1.6187
2749.314 1.6679 1.7259 1.7982 1.892 1.9622 2.04 2.06 2.14 2.26 2.22
2768.607 2.26 2.33 2.32 2.37 2.51 2.65 2.77 2.93 3 3.1
2787.901 3.29 3.45 3.65 3.93 4.19 4.36 4.58 5.04 5.44 5.86
2807.194 6.58 7.28 7.96 8.78 9.68 10.45 11.18 11.96 12.53 12.92
2826.488 13.12 13.17 12.96 12.54 12.06 11.52 10.86 10.06 9.4 8.89
2845.781 8.34 7.85 7.63 7.42 7.17 7.16 7.16 7.13 7.18 7.32
2865.074 7.53 7.7 7.89 8.18 8.55 8.97 9.37 9.89 10.53 11.17
2884.368 11.85 12.65 13.48 14.25 15.06 15.9 16.6 17.06 17.43 17.79
2903.661 18 18.13 18.35 18.49 18.61 18.72 18.7 18.6 18.55 18.44
2922.955 18.11 17.82 17.48 17.29 17.08 16.71 16.56 16.58 16.5 16.45
2942.248 16.51 16.52 16.5 16.33 16.16 15.9 15.46 15.03 14.76 14.43
2961.542 13.89 13.35 12.91 12.48 12.22 12.13 12.12 12.36 12.82 13.39
2980.835 13.91 14.38 14.84 15.09 14.92 14.49 14.1 13.58 12.71 11.81
3000.128 10.73 9.57 8.59 7.88 7.37 7.03 6.95 6.98 7.11 7.31
3019.422 7.54 7.76 7.86 8.01 8.17 8.24 8.21 8.04 8.01 7.92
3038.715 7.75 7.68 7.61 7.59 7.73 8 8.15 8.21 8.25 8.37
3058.009 8.59 8.75 8.77 8.84 9.18 9.42 9.29 9.35 9.55 9.62
3077.302 9.7 9.62 9.52 9.47 9.36 8.99 8.54 8.2 7.58 6.9
3096.596 6.38 5.96 5.21 4.58 4.15 3.62 3.19 2.77 2.54 2.38
3115.889 2.11 1.8468 1.6491 1.4334 1.259 1.2054 1.1854 1.11801 0.9305 0.707
3135.182 0.635 0.628 0.758 0.9356 0.805 0.609 0.635 0.644 0.696 0.654
3154.476 0.628 0.71 0.588 0.488 0.477 0.551 0.474 0.555 0.65 0.577
3173.769 0.568 0.542 0.59 0.538 0.398 0.452 0.479 0.23 0.237 0.515
3193.063 0.596 0.55 0.589 0.43 0.367 0.448 0.207 0.12 0.421 0.391
3212.356 0.211 0.335 0.503 0.389 0.219 0.236 0.228 0.318 0.363 0.371
3231.650 0.348 0.405 0.379 0.3 0.236 0.209 0.264 0.188 0.315 0.382
3250.943 0.274 0.24 0.222 0.324 0.467 0.524 0.349 0.146 0.185 0.247
3270.236 0.321 0.284 0.112 0.111 0.166 0.266 0.462 0.359 0.219 0.167
3289.530 0.268 0.348 0.187 0.257 0.371 0.328 0.23 0.168 0.03 0
3308.823 0.225 0.167 0 0.103 0.212 0.37 0.341 0.233 0.251 0.223
3328.117 0.224 0.224 0.195 0.27 0.238 0.131 0.313 0.454 0.319 0.294
3347.410 0.42 0.379 0.221 0.276 0.299 0.27 0.437 0.492 0.476 0.492
3366.704 0.373 0.354 0.468 0.457 0.482 0.485 0.353 0.295 0.306 0.366
3385.997 0.5 0.513 0.388 0.413 0.571 0.723 0.71 0.666 0.696 0.719
3405.290 0.826 0.824 0.871 1.02355 1.06852 1.0101 1.11289 1.2297 1.4584 1.7854
3424.584 1.9461 2.07 2.38 2.65 2.84 3.23 3.66 4.15 4.78 5.53
3443.877 6.22 6.72 7.13 7.71 8.16 8.49 8.83 8.8 8.77 8.71
3463.171 8.44 8.08 7.53 6.95 6.3 5.53 4.8 4.18 3.82 3.46
3482.464 2.79 2.39 2.2 1.866 1.7718 1.6126 1.4005 1.2669 1.2253 1.1869
3501.758 1.09724 1.09621 1.0332 0.9498 0.9574 0.9584 0.838 0.849 0.771 0.764
3521.051 0.814 0.754 0.657 0.593 0.647 0.649 0.796 0.9486 0.854 0.823
3540.344 0.767 0.714 0.758 0.699 0.786 0.734 0.803 0.9634 0.824 0.767
3559.638 0.675 0.598 0.695 0.677 0.489 0.503 0.615 0.631 0.637 0.64
3578.931 0.758 0.684 0.606 0.678 0.627 0.625 0.623 0.543 0.366 0.393
3598.225 0.58 0.52 0.584 0.737 0.695 0.735 0.722 0.634 0.744 0.742
3617.518 0.537 0.472 0.561 0.647 0.579 0.536 0.623 0.649 0.603 0.545
3636.812 0.552 0.569 0.608 0.728 0.705 0.613 0.61 0.679 0.744 0.599
3656.105 0.514 0.454 0.442 0.484 0.559 0.595 0.691 0.752 0.658 0.768
3675.398 0.635 0.46 0.551 0.591 0.623 0.655 0.597 0.596 0.676 0.711
3694.692 0.685 0.682 0.72 0.629 0.577 0.72 0.791 0.693 0.575 0.641
3713.985 0.637 0.505 0.466 0.606 0.753 0.723 0.713 0.672 0.682 0.694
3733.279 0.728 0.791 0.722 0.717 0.858 0.848 0.734 0.787 0.742 0.663
3752.572 0.703 0.697 0.674 0.55 0.601 0.754 0.747 0.643 0.568 0.652
3771.866 0.759 0.679 0.532 0.53 0.57 0.59 0.515 0.539 0.698 0.771
3791.159 0.613 0.417 0.414 0.41 0.413 0.554 0.649 0.576 0.376 0.373
3810.452 0.573 0.682 0.674 0.557 0.491 0.52 0.513 0.5 0.489 0.51
3829.746 0.492 0.534 0.544 0.433 0.538 0.593 0.509 0.507 0.58 0.657
3849.039 0.67 0.63 0.599 0.724 0.752 0.681 0.653 0.605 0.669 0.602
3868.333 0.573 0.729 0.628 0.565 0.682 0.628 0.713 0.785 0.705 0.788
3887.626 0.752 0.786 0.834 0.781 0.81 0.794 0.859 0.831 0.797 0.803
3906.920 0.719 0.83 0.873 0.678 0.633 0.736 0.808 0.796 0.716 0.766
3926.213 0.748 0.731 0.817 0.751 0.714 0.678 0.675 0.767 0.811 0.83
3945.506 0.764 0.749 0.831 0.818 0.749 0.748 0.778 0.759 0.722 0.732
3964.800 0.725 0.74 0.82 0.778 0.83 0.892 0.769 0.663 0.657 0.747
3984.093 0.725 0.687 0.782 0.899 0.914 0.841 0.797 0.789 0.839
##END=
