##TITLE=Ethyl 4-nitrophenylglyoxylate
##JCAMP-DX=4.24
##DATA TYPE=INFRARED SPECTRUM
##ORIGIN=EPA-IR VAPOR PHASE LIBRARY
##OWNER=SRD/NIST
Collection (C) 2018 copyright by the U.S. Secretary of Commerce
on behalf of the United States of America. All rights reserved.
##CAS REGISTRY NO=70091-75-7
##MOLFORM=C 10 H 9 N O 5
##$NIST SOURCE=MSDC-IR
##STATE=gas
##XUNITS=1/CM
##YUNITS=ABSORBANCE
##XFACTOR=1.
##YFACTOR=0.001
##DELTAX=1.92898
##FIRSTX=549.8
##LASTX=4000.7
##FIRSTY=9.30584
##MAXX=4000.7
##MINX=549.759
##MAXY=1.05694
##MINY=0
##NPOINTS=1790
##XYDATA=(X++(Y..Y))
549.759 9.30584 8.59584 8.10584 7.41584 6.83584 6.48584 6.46584 6.78584 6.81584 6.63584
569.049 6.65584 6.65584 6.77584 6.94584 6.79584 6.78584 6.71584 6.66584 7.21584 7.28584
588.339 7.39584 7.97584 8.27584 8.63584 8.83584 9.09584 9.40584 9.49584 9.72584 10.1758
607.628 10.3758 10.6258 11.1858 11.7758 12.2658 12.9158 13.8558 14.4958 14.9258 15.2158
626.918 15.0658 14.6458 14.2758 13.9558 13.6958 13.6158 13.5958 13.8758 14.1658 14.2458
646.208 14.7158 15.1358 15.4358 15.9458 16.4258 16.6958 17.1058 17.9158 18.8558 19.6958
665.498 20.8658 22.7758 24.5958 26.5358 29.4158 32.3658 35.3358 39.1558 43.2558 47.6758
684.787 52.8958 58.6958 64.9958 71.9558 79.6558 88.2058 96.9458 104.936 111.266 114.686
704.077 114.556 111.446 106.056 98.9558 91.5458 85.4958 80.7358 76.4358 72.6058 69.7158
723.367 67.3058 65.1758 63.3158 61.4458 60.1958 59.2358 58.3658 58.1658 58.3958 58.9158
742.657 59.7258 59.9058 59.8558 59.8558 59.5758 59.0658 58.3658 58.2158 58.4758 58.9858
761.947 59.1858 59.2658 59.8558 60.1858 59.9058 59.6458 59.7458 59.9058 60.3258 61.0858
781.236 61.8658 62.4658 62.7258 62.1858 61.3458 60.3258 58.8358 57.5358 57.1358 57.0658
800.526 57.1958 58.2458 59.8458 61.9058 63.9958 66.1958 69.2258 72.7758 77.2858 83.1858
819.816 90.2558 98.4958 107.436 117.116 126.146 132.716 136.526 137.026 134.496 129.986
839.106 125.766 123.696 124.346 129.266 139.376 153.766 169.386 180.876 183.466 177.016
858.395 163.016 141.766 118.526 100.186 88.8058 83.0458 80.2758 78.4258 76.5058 73.5358
877.685 69.0558 63.1058 56.3858 49.5158 42.6958 36.6158 31.4758 27.5158 24.5558 22.6158
896.975 21.4558 20.5758 19.8658 19.1058 18.5658 18.1258 17.4758 16.8458 16.4658 16.3658
916.265 16.3158 16.4458 16.6958 17.0158 17.3558 17.5458 17.9858 18.6958 19.3958 20.0058
935.555 21.1758 22.6258 24.0158 25.8658 28.7258 32.1358 36.0858 41.1558 47.5658 55.9858
954.844 66.5358 79.9658 96.9058 117.906 143.156 170.566 197.716 221.736 238.436 244.896
974.134 241.056 228.596 209.976 188.696 168.066 149.636 133.846 121.056 111.496 106.026
993.424 104.396 105.756 110.446 118.886 131.036 147.526 169.206 196.666 230.006 263.506
1012.714 285.726 296.836 304.066 306.326 302.026 298.736 300.846 300.846 291.926 273.466
1032.003 248.126 219.646 191.096 164.026 140.746 121.496 105.336 91.9658 81.4858 72.4658
1051.293 64.5858 57.9858 52.4158 48.0158 44.7058 41.9758 39.4158 37.3858 35.7158 34.5858
1070.583 33.7158 33.3158 33.6058 33.8458 34.6258 36.4558 38.6458 41.1858 43.6258 45.9858
1089.873 49.1758 53.1858 57.1858 59.7958 60.8558 61.2158 61.2458 60.1558 58.3858 57.0058
1109.163 54.6558 52.3158 49.8858 46.5358 44.1158 42.8458 42.1358 41.5158 40.9758 41.3258
1128.452 42.4958 43.8858 45.7858 47.6458 49.8458 53.2958 57.4458 62.7458 69.5258 77.5958
1147.742 87.7558 100.106 114.586 132.356 154.196 181.136 214.606 255.966 305.846 365.156
1167.032 433.016 505.636 578.436 644.366 698.736 745.826 794.766 853.236 918.206 983.076
1186.322 1037.51 1056.94 1032.46 967.136 857.726 722.216 590.376 475.426 384.226 315.466
1205.611 265.076 225.806 193.456 169.396 150.486 134.806 122.526 113.126 105.936 100.736
1224.901 97.2158 94.2158 92.3758 90.9058 89.0858 87.2958 84.9658 82.4758 80.7658 79.4558
1244.191 78.5858 78.9258 79.9658 81.4058 83.2658 86.4158 90.2358 94.4358 99.3858 104.566
1263.481 110.146 115.726 121.236 126.946 132.346 137.616 143.196 148.726 153.926 159.606
1282.771 166.306 173.506 181.356 189.686 197.746 205.266 211.546 216.086 219.306 221.396
1302.060 222.816 223.656 223.546 221.886 217.956 211.856 203.946 194.966 185.626 176.856
1321.350 169.746 165.086 163.906 166.816 174.386 187.236 205.576 229.756 259.716 294.526
1340.640 332.306 369.756 402.016 423.736 430.966 421.506 396.576 360.526 318.826 277.466
1359.930 240.876 210.506 186.496 168.276 154.706 144.326 135.776 128.076 120.556 112.966
1379.219 105.146 97.5458 90.4758 84.0358 78.2058 73.1658 68.9958 65.6058 62.9558 61.0558
1398.509 59.9658 59.8158 60.6758 62.1158 63.3858 63.5058 62.0258 58.9858 54.5258 49.2158
1417.799 44.2458 40.5558 38.0858 36.2758 34.9058 33.9658 33.3158 32.7758 32.4558 32.3758
1437.089 32.4758 32.7358 33.0158 33.4358 34.0558 34.5758 34.9958 35.4658 35.9658 36.5658
1456.378 37.1558 37.8958 38.9358 40.0858 41.4558 43.0058 44.4758 45.8458 47.0158 47.8658
1475.668 48.4858 48.9558 49.3458 49.8758 50.7558 51.6658 52.5358 53.3058 53.6458 53.8658
1494.958 53.9758 54.0858 54.6058 55.7258 57.8358 61.0658 65.3758 70.7758 77.1158 84.4558
1514.248 92.7258 101.566 111.376 122.646 136.216 152.916 174.036 200.966 234.396 274.416
1533.538 320.036 368.666 415.426 455.676 483.666 494.726 487.706 463.666 424.976 376.426
1552.827 325.386 277.216 235.886 202.286 176.246 157.116 143.046 132.286 123.776 116.686
1572.117 110.526 105.266 101.366 99.2058 98.6858 100.086 103.616 109.196 116.496 125.046
1591.407 134.146 142.806 149.836 154.166 155.476 153.656 148.696 141.106 131.436 120.226
1610.697 108.346 96.2058 84.2158 73.0358 63.3258 55.3658 49.0858 44.2658 40.6258 37.7658
1629.986 35.6358 34.0658 32.6958 31.4758 30.4758 29.6858 29.0958 28.7458 28.4858 28.3758
1649.276 28.5658 28.8858 29.3558 30.0658 30.8858 31.7858 32.8658 34.1858 35.7258 37.4058
1668.566 39.3758 41.5758 43.8658 46.4158 49.0758 51.9558 55.2758 58.9658 63.4458 68.9258
1687.856 75.5858 84.1158 95.0758 109.086 127.386 151.016 181.046 218.956 263.846 315.376
1707.146 369.826 421.126 462.416 488.746 497.066 485.546 455.796 415.916 375.856 342.356
1726.435 317.526 301.956 295.276 296.616 304.496 317.666 334.506 352.856 370.426 384.696
1745.725 393.896 398.076 397.506 392.216 382.446 370.006 356.826 343.626 329.596 313.516
1765.015 294.566 272.496 248.106 222.596 196.906 172.166 149.236 128.926 111.366 96.4958
1784.305 84.1458 73.9558 65.5758 58.7258 53.1458 48.4758 44.5758 41.2858 38.4958 35.9558
1803.594 33.4558 31.0058 28.6258 26.2358 23.9458 21.7458 19.8958 18.3758 17.1158 16.1458
1822.884 15.4158 14.7958 14.2058 13.6558 13.1358 12.6958 12.2758 11.8858 11.5058 11.0858
1842.174 10.6758 10.2658 9.88584 9.66584 9.44584 9.12584 8.95584 8.82584 8.69584 8.58584
1861.464 8.43584 8.29584 8.26584 8.23584 8.09584 8.06584 8.05584 7.99584 7.97584 7.93584
1880.754 7.90584 7.80584 7.69584 7.66584 7.55584 7.45584 7.38584 7.27584 7.14584 7.08584
1900.043 7.07584 7.11584 7.21584 7.28584 7.38584 7.57584 7.82584 8.07584 8.33584 8.61584
1919.333 9.02584 9.43584 9.69584 10.0558 10.4358 10.6458 10.7758 10.7858 10.8058 10.7658
1938.623 10.5358 10.2158 9.80584 9.36584 8.85584 8.37584 7.92584 7.39584 6.90584 6.48584
1957.913 6.11584 5.85584 5.51584 5.08584 4.79584 4.52584 4.23584 4.08584 3.90584 3.75584
1977.202 3.72584 3.66584 3.54584 3.38584 3.22584 3.14584 3.11584 3.13584 3.09584 3.02584
1996.492 2.99584 2.97584 2.91584 2.98584 3.01584 3.00584 3.00584 3.03584 3.11584 3.17584
2015.782 3.18584 3.28584 3.46584 3.62584 3.73584 3.84584 3.95584 4.03584 4.12584 4.21584
2035.072 4.31584 4.36584 4.41584 4.51584 4.51584 4.48584 4.44584 4.37584 4.33584 4.28584
2054.362 4.26584 4.22584 4.11584 4.00584 3.98584 3.94584 3.92584 3.94584 3.90584 3.83584
2073.651 3.76584 3.66584 3.58584 3.58584 3.51584 3.40584 3.36584 3.34584 3.38584 3.36584
2092.941 3.33584 3.26584 3.24584 3.25584 3.19584 3.21584 3.25584 3.31584 3.26584 3.20584
2112.231 3.24584 3.29584 3.41584 3.45584 3.42584 3.48584 3.49584 3.48584 3.55584 3.56584
2131.521 3.55584 3.61584 3.68584 3.69584 3.71584 3.74584 3.74584 3.80584 3.81584 3.82584
2150.810 3.86584 3.84584 3.82584 3.78584 3.76584 3.69584 3.56584 3.47584 3.39584 3.24584
2170.100 3.12584 3.03584 2.85584 2.69584 2.66584 2.59584 2.40584 2.33584 2.29584 2.21584
2189.390 2.15584 2.11584 2.21584 2.27584 2.29584 2.34584 2.33584 2.38584 2.47584 2.56584
2208.680 2.58584 2.59584 2.61584 2.63584 2.58584 2.55584 2.54584 2.40584 2.39584 2.46584
2227.970 2.39584 2.42584 2.46584 2.35584 2.35584 2.41584 2.45584 2.46584 2.48584 2.51584
2247.259 2.49584 2.50584 2.54584 2.56584 2.61584 2.62584 2.62584 2.71584 2.81584 2.92584
2266.549 2.95584 2.98584 3.15584 3.33584 3.39584 3.48584 3.62584 3.70584 3.70584 3.69584
2285.839 3.67584 3.64584 3.50584 3.37584 3.19584 3.05584 2.97584 2.76584 2.58584 2.44584
2305.129 2.29584 2.22584 2.24584 2.21584 2.17584 2.12584 2.05584 2.00584 2.04584 2.15584
2324.418 2.19584 2.19584 2.16584 2.13584 2.21584 2.30584 2.35584 2.34584 2.29584 2.35584
2343.708 2.44584 2.51584 2.59584 2.72584 2.89584 3.01584 3.04584 3.13584 3.19584 3.25584
2362.998 3.27584 3.27584 3.30584 3.40584 3.42584 3.32584 3.33584 3.41584 3.42584 3.42584
2382.288 3.38584 3.33584 3.36584 3.37584 3.32584 3.29584 3.33584 3.28584 3.27584 3.29584
2401.578 3.22584 3.17584 3.08584 3.03584 3.05584 3.07584 3.07584 3.02584 3.04584 3.01584
2420.867 3.00584 3.09584 3.12584 3.18584 3.26584 3.27584 3.32584 3.44584 3.58584 3.77584
2440.157 3.96584 4.20584 4.43584 4.53584 4.77584 5.16584 5.40584 5.50584 5.57584 5.70584
2459.447 5.78584 5.78584 5.85584 6.00584 5.98584 5.87584 5.84584 5.87584 5.77584 5.58584
2478.737 5.50584 5.46584 5.34584 5.11584 4.94584 4.80584 4.61584 4.36584 4.17584 4.05584
2498.026 3.83584 3.59584 3.44584 3.24584 3.05584 2.98584 2.89584 2.81584 2.72584 2.57584
2517.316 2.49584 2.45584 2.37584 2.25584 2.21584 2.18584 2.09584 2.04584 2.05584 2.05584
2536.606 2.02584 1.93584 1.93584 1.96584 1.94584 2.09584 2.18584 2.12584 2.13584 2.13584
2555.896 2.15584 2.22584 2.21584 2.19584 2.30584 2.37584 2.41584 2.39584 2.37584 2.35584
2575.186 2.39584 2.48584 2.49584 2.51584 2.53584 2.65584 2.75584 2.84584 2.87584 2.85584
2594.475 2.85584 2.82584 2.79584 2.87584 2.90584 2.85584 2.85584 2.83584 2.85584 2.80584
2613.765 2.67584 2.55584 2.38584 2.16584 1.99584 1.81584 1.76584 1.75584 1.71584 1.68584
2633.055 1.59584 1.57584 1.64584 1.64584 1.63584 1.70584 1.84584 2.03584 2.12584 2.15584
2652.345 2.25584 2.52584 2.71584 2.86584 3.03584 3.12584 3.30584 3.62584 3.88584 4.11584
2671.634 4.35584 4.62584 4.98584 5.23584 5.42584 5.55584 5.69584 5.73584 5.68584 5.71584
2690.924 5.79584 5.87584 5.78584 5.64584 5.56584 5.50584 5.45584 5.33584 5.16584 4.81584
2710.214 4.64584 4.57584 4.35584 4.21584 4.04584 3.93584 3.82584 3.68584 3.57584 3.42584
2729.504 3.34584 3.34584 3.37584 3.36584 3.37584 3.43584 3.39584 3.39584 3.49584 3.49584
2748.794 3.54584 3.65584 3.72584 3.84584 3.96584 4.14584 4.30584 4.40584 4.55584 4.73584
2768.083 4.89584 4.91584 4.94584 5.17584 5.39584 5.35584 5.18584 5.11584 5.13584 5.16584
2787.373 5.17584 5.04584 4.85584 4.65584 4.58584 4.60584 4.46584 4.25584 4.16584 4.17584
2806.663 4.21584 4.20584 4.25584 4.25584 4.28584 4.45584 4.72584 5.05584 5.33584 5.57584
2825.953 5.62584 5.71584 6.01584 6.31584 6.62584 6.73584 6.82584 7.05584 7.34584 7.75584
2845.242 8.14584 8.53584 8.95584 9.38584 9.90584 10.4258 11.0858 11.8558 12.4558 13.1258
2864.532 13.8458 14.6458 15.5658 16.4658 17.4358 18.4558 19.4758 20.5058 21.5158 22.3458
2883.822 23.1558 23.8258 24.1258 24.0358 23.6858 23.2658 22.8558 22.5258 22.4958 22.8158
2903.112 23.2658 23.9158 24.7258 25.3658 25.9458 26.6358 27.0358 27.1858 27.1658 26.9958
2922.401 26.7058 26.5658 26.8158 27.4358 28.4558 29.9858 31.8958 34.0758 36.8858 40.2558
2941.691 43.7858 47.0758 49.5658 50.7158 50.3058 48.6558 46.2958 43.5158 40.8558 39.0858
2960.981 38.5658 38.8458 39.6658 41.2258 43.5958 46.5658 50.2458 54.6158 59.5258 65.3058
2980.271 72.3858 80.9758 90.6258 99.8658 106.186 108.266 106.446 100.596 91.5558 82.1958
2999.561 74.6158 68.6258 63.8358 59.8158 56.1558 52.7858 49.3358 45.7758 42.2658 38.8158
3018.850 35.5158 32.2158 29.2458 26.7058 24.3858 22.3658 20.4658 18.7658 17.5558 16.4358
3038.140 15.3658 14.7458 14.3558 13.9758 13.7358 13.7658 13.9358 14.0158 13.8958 13.7358
3057.430 13.3958 12.9558 12.5258 12.1458 11.8958 11.5358 11.2158 11.0458 10.5758 10.1058
3076.720 9.75584 9.21584 8.66584 8.22584 8.00584 7.77584 7.48584 7.11584 6.90584 6.83584
3096.009 6.76584 6.69584 6.60584 6.69584 6.95584 7.10584 7.26584 7.49584 7.65584 7.58584
3115.299 7.26584 6.90584 6.44584 5.92584 5.61584 5.35584 5.01584 4.89584 4.94584 4.72584
3134.589 4.54584 4.49584 4.27584 4.15584 4.02584 3.98584 3.98584 3.79584 3.50584 3.27584
3153.879 3.20584 3.32584 3.25584 3.05584 3.02584 2.84584 2.74584 2.76584 2.71584 2.69584
3173.169 2.52584 2.39584 2.35584 2.44584 2.51584 2.32584 2.12584 2.17584 2.26584 2.25584
3192.458 2.17584 2.11584 2.10584 2.13584 2.14584 2.05584 1.94584 1.82584 1.80584 1.88584
3211.748 1.88584 1.83584 1.75584 1.57584 1.44584 1.51584 1.52584 1.33584 1.36584 1.38584
3231.038 1.30584 1.29584 1.08584 1.06584 1.02584 0.89704 0.93584 0.93204 0.87844 0.74864
3250.328 0.80314 0.78244 0.68804 0.75424 0.64064 0.60994 0.65754 0.71314 0.66134 0.53164
3269.617 0.69504 0.76134 0.64434 0.61934 0.57514 0.38634 0.36124 0.51124 0.56784 0.40744
3288.907 0.33394 0.62124 0.74644 0.70474 0.62914 0.55294 0.53584 0.49904 0.60814 0.61664
3308.197 0.84054 1.12584 0.90194 0.75444 0.91224 0.96434 1.00584 1.07584 1.04584 1.12584
3327.487 1.10584 0.93084 0.84224 0.78634 0.83594 1.03584 1.04584 0.94944 0.99264 0.97794
3346.777 1.06584 1.26584 1.40584 1.44584 1.35584 1.34584 1.41584 1.44584 1.58584 1.75584
3366.066 1.78584 1.85584 2.07584 2.13584 2.32584 2.47584 2.41584 2.71584 3.15584 3.47584
3385.356 3.72584 4.00584 4.33584 4.61584 4.94584 5.32584 5.70584 6.18584 6.55584 6.76584
3404.646 6.88584 6.91584 6.93584 6.80584 6.71584 6.52584 6.01584 5.73584 5.42584 4.98584
3423.936 4.67584 4.11584 3.79584 3.73584 3.51584 3.39584 3.50584 3.30584 3.10584 3.13584
3443.225 3.05584 3.10584 3.16584 3.22584 3.30584 3.46584 3.60584 3.56584 3.67584 3.76584
3462.515 3.86584 3.98584 3.99584 4.19584 4.30584 4.30584 4.16584 3.97584 3.90584 3.80584
3481.805 3.63584 3.46584 3.31584 3.41584 3.56584 3.28584 3.11584 3.27584 3.23584 3.05584
3501.095 3.16584 3.17584 2.92584 2.79584 2.71584 2.53584 2.36584 2.34584 2.19584 2.07584
3520.385 2.11584 1.95584 1.71584 1.63584 1.59584 1.48584 1.45584 1.38584 1.27584 1.06584
3539.674 0.96054 1.06584 0.96414 0.81684 0.74214 0.67474 0.70794 0.57764 0.50724 0.58064
3558.964 0.61444 0.50224 0.51974 0.50854 0.23744 0.12174 0.20184 0.42704 0.42764 0.28214
3578.254 0.35124 0.39514 0.51224 0.44204 0.22754 0.19344 0.07776 0.31564 0.45934 0.32604
3597.544 0.32514 0.29774 0.17824 0.17334 0.23484 0.34504 0.42424 0.31104 0.26024 0.29764
3616.833 0.32144 0.35554 0.41044 0.33164 0.10824 0 0.05766 0.04615 0.14654 0.26034
3636.123 0.22934 0.17184 0.11244 0.20374 0.27534 0.17394 0.13044 0.22094 0.23754 0.28164
3655.413 0.26174 0.15484 0.14104 0.35014 0.52514 0.35554 0.22894 0.36814 0.46874 0.38844
3674.703 0.31354 0.38454 0.42944 0.40604 0.52234 0.38714 0.34804 0.51204 0.53724 0.47534
3693.993 0.42284 0.41904 0.46854 0.50124 0.42864 0.39654 0.34204 0.49184 0.49874 0.39424
3713.282 0.50654 0.65424 0.80274 0.68034 0.60374 0.59234 0.65814 0.74994 0.81984 1.06584
3732.572 1.00244 0.81994 0.80244 0.90194 0.91214 0.91464 0.82124 0.68074 0.75314 0.65994
3751.862 0.53204 0.66364 0.62064 0.45754 0.54314 0.63214 0.65574 0.56834 0.43494 0.59144
3771.152 0.72344 0.71134 0.63444 0.61764 0.57254 0.55574 0.68224 0.62534 0.48454 0.39254
3790.441 0.38534 0.44264 0.50544 0.63584 0.57074 0.54634 0.63634 0.63994 0.54514 0.58004
3809.731 0.75134 0.64254 0.71024 0.67654 0.51224 0.68214 0.83704 0.74564 0.65664 0.75684
3829.021 0.71594 0.53624 0.51604 0.55164 0.41194 0.37884 0.44114 0.45084 0.35794 0.30814
3848.311 0.23434 0.29014 0.53084 0.53974 0.42034 0.33744 0.47144 0.60834 0.54094 0.40644
3867.601 0.36724 0.29874 0.30194 0.29774 0.37624 0.41374 0.34774 0.30764 0.35694 0.52244
3886.890 0.48364 0.37274 0.40804 0.38334 0.48444 0.60424 0.61874 0.55614 0.38374 0.29314
3906.180 0.30894 0.50094 0.69434 0.68544 0.65594 0.62644 0.79504 0.80664 0.58104 0.59844
3925.470 0.67344 0.67614 0.68084 0.45124 0.32464 0.52494 0.65064 0.64104 0.60124 0.61094
3944.760 0.62704 0.66054 0.66264 0.62944 0.48964 0.47294 0.71324 0.76104 0.66744 0.55974
3964.049 0.42174 0.54994 0.63904 0.53514 0.55524 0.53304 0.54084 0.69524 0.71824 0.58914
3983.339 0.49474 0.65394 0.74054 0.61994 0.56014 0.67644 0.78754 0.85234 0.89464 0.78474
##END=
