##TITLE=4-Bromobenzenesulphonamide
##JCAMP-DX=4.24
##DATA TYPE=INFRARED SPECTRUM
##ORIGIN=EPA-IR VAPOR PHASE LIBRARY
##OWNER=SRD/NIST
Collection (C) 2018 copyright by the U.S. Secretary of Commerce
on behalf of the United States of America. All rights reserved.
##CAS REGISTRY NO=701-34-8
##MOLFORM=C 6 H 6 Br N O 2 S
##$NIST SOURCE=MSDC-IR
##STATE=gas
##XUNITS=1/CM
##YUNITS=ABSORBANCE
##XFACTOR=1.
##YFACTOR=0.001
##DELTAX=1.92898
##FIRSTX=549.8
##LASTX=4000.7
##FIRSTY=22.385
##MAXX=4000.7
##MINX=549.759
##MAXY=0.098325
##MINY=0
##NPOINTS=1790
##XYDATA=(X++(Y..Y))
549.759 22.385 20.415 18.455 16.775 16.175 15.275 13.875 13.035 12.805 12.115
569.049 11.945 12.485 12.745 13.285 14.225 15.505 16.845 18.285 20.645 24.375
588.339 29.215 34.455 39.915 45.205 49.955 53.435 55.575 56.075 53.805 49.765
607.628 44.845 39.465 33.915 28.855 24.635 21.265 18.725 17.245 16.295 15.295
626.918 14.365 13.675 13.075 12.265 11.525 10.835 9.885 9.295 9.235 8.925
646.208 8.745 8.935 8.855 8.565 8.665 8.475 8.085 7.945 8.065 7.915
665.498 7.945 8.015 7.765 7.895 7.965 7.945 7.835 7.275 7.085 7.345
684.787 7.605 7.825 7.585 7.465 7.755 7.945 7.985 8.265 8.435 8.535
704.077 8.685 8.835 9.255 9.475 9.585 9.995 10.215 10.315 11.395 13.395
723.367 16.225 20.985 27.665 35.095 41.255 44.145 44.125 41.465 35.805 28.405
742.657 21.815 17.625 15.245 13.685 12.815 12.235 11.745 11.625 11.415 10.995
761.947 11.045 10.975 10.575 10.385 10.245 10.415 10.605 10.315 10.065 10.455
781.236 10.365 10.035 10.255 10.765 11.255 11.765 12.215 12.555 13.285 14.305
800.526 15.485 16.465 17.565 19.105 20.775 22.695 24.825 26.785 28.845 30.925
819.816 32.695 33.705 33.625 32.145 30.315 29.485 29.025 28.445 27.975 28.105
839.106 29.185 30.865 32.305 34.455 37.065 39.525 41.755 43.505 45.225 46.105
858.395 45.715 44.785 43.335 40.505 37.075 33.315 29.545 26.895 24.185 21.215
877.685 18.935 17.035 15.305 13.755 12.575 11.675 10.635 9.585 9.005 8.345
896.975 7.665 7.395 7.165 6.815 6.345 5.905 5.745 5.785 5.615 5.185
916.265 4.855 4.805 4.735 4.425 4.115 4.065 4.135 4.105 3.845 3.815
935.555 3.735 3.345 2.975 2.925 3.055 3.045 3.225 2.975 2.735 2.955
954.844 2.965 2.555 2.045 2.165 2.245 2.355 2.405 2.205 2.265 2.315
974.134 2.205 2.055 2.315 2.375 1.995 2.055 2.215 2.165 2.465 2.745
993.424 3.055 3.455 3.925 4.715 5.845 7.865 11.185 15.335 19.945 23.155
1012.714 23.605 23.085 20.755 16.085 10.865 6.705 4.955 4.365 4.065 4.145
1032.003 3.245 3.105 3.535 3.275 3.545 3.895 4.035 4.465 4.685 4.735
1051.293 5.535 5.955 6.775 9.015 11.955 16.055 20.605 25.745 30.555 33.345
1070.583 33.645 30.515 24.725 18.435 13.995 10.875 9.605 9.305 9.555 11.025
1089.873 11.295 11.865 12.685 12.335 12.135 11.635 9.975 8.895 7.655 6.855
1109.163 6.885 6.265 5.845 4.935 4.005 2.985 2.685 3.415 3.745 3.865
1128.452 3.625 3.585 4.195 4.695 4.445 4.985 5.285 5.995 7.825 8.945
1147.742 10.305 11.715 12.685 13.985 16.605 19.815 23.345 27.565 32.375 38.995
1167.032 48.125 60.575 75.635 88.525 95.475 98.325 97.875 91.045 78.445 65.055
1186.322 53.065 42.795 34.235 27.395 22.235 17.885 14.715 12.455 10.455 8.605
1205.611 7.775 6.745 5.745 5.425 4.995 5.355 5.585 4.995 4.615 3.695
1224.901 2.745 3.165 3.335 3.495 4.465 4.165 3.295 3.275 3.615 3.855
1244.191 3.805 4.395 4.545 4.285 4.215 4.035 3.885 4.045 4.675 4.475
1263.481 4.325 4.665 4.535 4.225 4.185 3.945 3.665 3.685 3.515 3.375
1282.771 3.085 2.965 2.925 2.765 2.975 3.095 3.125 3.215 3.345 3.485
1302.060 3.535 3.535 3.485 3.495 3.475 3.385 3.245 3.245 3.265 3.155
1321.350 3.215 3.315 3.415 3.675 3.945 4.145 4.405 4.725 5.315 6.025
1340.640 6.685 7.485 8.435 9.565 10.865 12.295 14.075 16.115 18.335 20.895
1359.930 23.765 26.975 30.745 35.055 39.855 45.145 50.845 56.675 62.515 67.855
1379.219 72.285 75.615 77.635 78.185 77.145 74.195 69.145 63.015 56.545 49.615
1398.509 42.445 35.445 29.125 23.525 18.905 15.165 12.195 10.005 8.095 6.775
1417.799 5.905 5.145 4.665 4.125 3.695 3.475 3.275 3.185 3.115 2.975
1437.089 2.915 3.015 3.025 2.905 2.815 2.965 3.195 3.395 3.655 3.975
1456.378 4.545 5.545 6.685 8.245 10.365 12.665 14.935 16.695 17.425 17.245
1475.668 16.315 14.635 12.515 10.345 8.775 7.845 7.275 7.005 6.835 6.575
1494.958 6.205 5.695 5.185 4.795 4.375 4.035 3.855 3.835 3.915 4.175
1514.248 4.375 4.565 4.915 5.125 5.355 5.715 6.325 6.855 7.195 7.545
1533.538 8.105 8.925 9.565 10.255 11.145 12.115 13.065 13.995 14.715 15.095
1552.827 15.335 15.365 15.245 14.825 14.215 14.145 14.405 15.035 16.475 18.735
1572.117 21.595 24.705 27.215 28.145 27.075 24.095 19.835 14.705 9.935 6.485
1591.407 4.465 3.505 3.025 2.565 2.315 2.275 2.185 2.145 1.945 1.745
1610.697 1.765 1.655 1.605 1.665 1.585 1.535 1.4427 1.485 1.505 1.555
1629.986 1.735 1.815 1.895 1.975 2.085 2.245 2.195 2.025 1.975 1.925
1649.276 1.885 1.755 1.545 1.515 1.415 1.163 1.175 1.1433 1.0305 0.9813
1668.566 1.0196 1.0738 0.8708 0.7627 0.7173 0.7576 0.775 0.639 0.573 0.6397
1687.856 0.6861 0.7259 0.7099 0.5867 0.51707 0.51837 0.6086 0.7135 0.7399 0.578
1707.146 0.5676 0.666 0.6765 0.651 0.5574 0.5579 0.53389 0.5744 0.5991 0.5339
1726.435 0.50608 0.45378 0.5592 0.6352 0.6581 0.7386 0.6637 0.5751 0.48839 0.54274
1745.725 0.7177 0.6588 0.47534 0.47346 0.6143 0.7096 0.7936 0.9652 0.9985 1.0103
1765.015 1.0733 0.9965 1.0077 1.0892 1.1719 1.2619 1.2519 1.1849 1.3011 1.455
1784.305 1.4114 1.4262 1.4441 1.2555 1.074 1.0325 0.9665 0.8362 0.7786 0.693
1803.594 0.6651 0.7161 0.6919 0.6042 0.5669 0.6519 0.5876 0.49785 0.54814 0.6167
1822.884 0.6293 0.5622 0.573 0.6425 0.6932 0.6412 0.5681 0.55384 0.51715 0.51724
1842.174 0.52078 0.6721 0.8049 0.6988 0.5601 0.47379 0.4358 0.45024 0.50745 0.49643
1861.464 0.4082 0.4417 0.53895 0.4298 0.318 0.47869 0.5902 0.6108 0.7153 0.7155
1880.754 0.7546 0.8144 0.8244 0.9447 1.0185 1.1006 1.1519 1.1456 1.2863 1.3949
1900.043 1.505 1.705 1.755 1.845 1.895 1.755 1.755 1.735 1.525 1.3593
1919.333 1.2746 1.195 0.9988 0.9764 1.0561 0.8219 0.7048 0.7827 0.7664 0.662
1938.623 0.7108 0.7946 0.7212 0.6329 0.5679 0.48215 0.54997 0.6083 0.54805 0.5603
1957.913 0.5763 0.686 0.7573 0.676 0.51998 0.46774 0.48537 0.46525 0.48825 0.51841
1977.202 0.44763 0.458924 0.5917 0.6193 0.5908 0.5737 0.6526 0.6512 0.5402 0.54291
1996.492 0.5883 0.6876 0.7505 0.5697 0.54209 0.6184 0.53001 0.5659 0.50962 0.45038
2015.782 0.4084 0.48479 0.6222 0.6186 0.6928 0.6245 0.54088 0.53017 0.49785 0.459346
2035.072 0.4391 0.5595 0.6123 0.49665 0.461132 0.5907 0.6139 0.3915 0.366 0.5794
2054.362 0.6289 0.604 0.5918 0.6226 0.5824 0.47669 0.51512 0.54676 0.5838 0.5987
2073.651 0.578 0.4938 0.47182 0.47321 0.4373 0.5412 0.5671 0.6266 0.52109 0.3664
2092.941 0.3822 0.3857 0.54212 0.7015 0.6761 0.6278 0.6421 0.6616 0.5732 0.5793
2112.231 0.6725 0.5564 0.5964 0.7664 0.767 0.7542 0.6915 0.6328 0.7069 0.6765
2131.521 0.52441 0.51849 0.52777 0.54424 0.6465 0.52189 0.3876 0.48047 0.5379 0.5459
2150.810 0.6852 0.7612 0.6729 0.6404 0.50362 0.45128 0.5568 0.4876 0.4082 0.4345
2170.100 0.49011 0.50551 0.49064 0.50433 0.5714 0.6679 0.6389 0.5599 0.54969 0.464298
2189.390 0.47319 0.6041 0.54841 0.4402 0.4201 0.4404 0.52718 0.52413 0.5692 0.64
2208.680 0.4331 0.318 0.45283 0.4382 0.461495 0.50573 0.3651 0.34 0.3733 0.4312
2227.970 0.5565 0.55282 0.52117 0.54446 0.53257 0.5757 0.7335 0.7376 0.6296 0.6617
2247.259 0.6576 0.7242 0.763 0.6857 0.7621 0.7378 0.6449 0.6049 0.6493 0.6186
2266.549 0.6489 0.8599 0.9144 0.9764 0.9386 0.9746 0.9769 0.7736 0.6975 0.7414
2285.839 0.728 0.6192 0.6814 0.8015 0.7101 0.6401 0.6877 0.6767 0.6773 0.6291
2305.129 0.6488 0.6935 0.6039 0.55435 0.52974 0.49953 0.5718 0.6002 0.50177 0.48099
2324.418 0.53668 0.463978 0.5552 0.6806 0.6141 0.6966 0.7805 0.787 0.739 0.6271
2343.708 0.7101 0.7361 0.5828 0.52726 0.6608 0.7241 0.6194 0.6163 0.6856 0.7034
2362.998 0.774 0.6734 0.5618 0.6726 0.7737 0.7176 0.49986 0.4968 0.48248 0.51609
2382.288 0.5925 0.5876 0.6675 0.7635 0.7613 0.6745 0.6685 0.6826 0.5778 0.5697
2401.578 0.7145 0.6984 0.7377 0.7612 0.6169 0.647 0.6592 0.6454 0.5817 0.5162
2420.867 0.6136 0.6537 0.5672 0.49931 0.47774 0.45158 0.51446 0.4357 0.324 0.344
2440.157 0.48157 0.5862 0.46759 0.322 0.3597 0.4184 0.24 0.172 0.299 0.405
2459.447 0.4187 0.460578 0.6113 0.7139 0.7334 0.7112 0.6771 0.6088 0.6081 0.6544
2478.737 0.6159 0.6151 0.6353 0.7033 0.7779 0.6595 0.53021 0.456253 0.6067 0.8141
2498.026 0.7422 0.678 0.7585 0.6386 0.6394 0.6503 0.6047 0.7468 0.62 0.6259
2517.316 0.8538 1.0119 0.9665 0.9377 0.9986 1.0477 1.1783 1.2198 1.0515 1.1181
2536.606 1.1565 1.0059 0.9663 0.8678 0.8112 0.8415 0.8798 0.8508 0.8876 0.9596
2555.896 1.1261 1.1524 1.0675 0.9569 0.818 0.8159 0.8745 0.946 0.9326 0.8712
2575.186 0.8395 0.8219 0.8065 0.7809 0.853 1.0066 0.928 0.8204 0.7993 0.7802
2594.475 0.7096 0.6771 0.6881 0.522 0.53255 0.7006 0.55327 0.4255 0.51615 0.5963
2613.765 0.6828 0.5803 0.5901 0.6043 0.4355 0.4002 0.3581 0.32 0.412 0.50728
2633.055 0.51897 0.47619 0.6029 0.6676 0.53335 0.48379 0.54391 0.6779 0.7165 0.6279
2652.345 0.5722 0.6582 0.6808 0.5737 0.6693 0.6826 0.7312 0.6265 0.48389 0.52632
2671.634 0.51015 0.6527 0.7266 0.7359 0.55145 0.3617 0.298 0.3972 0.50872 0.47202
2690.924 0.3972 0.292 0.279 0.3894 0.3632 0.347 0.3758 0.293 0.345 0.376
2710.214 0.3782 0.312 0.254 0.339 0.323 0.334 0.19 0.13 0.272 0.445
2729.504 0.5644 0.46501 0.367 0.45184 0.46672 0.4255 0.52679 0.53742 0.54419 0.51914
2748.794 0.48841 0.3715 0.4097 0.6192 0.6507 0.5121 0.52009 0.52988 0.266 0.242
2768.083 0.3944 0.4269 0.349 0.344 0.48804 0.4397 0.3902 0.50358 0.4311 0.3881
2787.373 0.4166 0.246 0.189 0.299 0.4135 0.632 0.5743 0.462251 0.52079 0.3797
2806.663 0.197 0.248 0.166 0.153 0.354 0.32 0.352 0.37 0.304 0.29
2825.953 0.332 0.329 0.263 0.308 0.4485 0.48089 0.22 0.117 0.179 0.16
2845.242 0.346 0.25 0.099 0.195 0.286 0.3996 0.324 0.262 0.184 0.112
2864.532 0.228 0.318 0.315 0.292 0.212 0.47825 0.4222 0.261 0.3796 0.114
2883.822 0.108 0.287 0.319 0.304 0.33 0.3901 0.304 0.249 0.3793 0.384
2903.112 0.235 0.259 0.236 0.115 0.255 0.4371 0.276 0.113 0.169 0.29
2922.401 0.454016 0.302 0.205 0.318 0.317 0.3576 0.3861 0.47238 0.5371 0.4031
2941.691 0.342 0.24 0.205 0.4095 0.3977 0.309 0.3991 0.4067 0.277 0.317
2960.981 0.323 0.332 0.352 0.48459 0.5904 0.355 0.039 0.077 0.289 0.3798
2980.271 0.3962 0.268 0.3879 0.51895 0.34 0.163 0.273 0.6094 0.6703 0.4235
2999.561 0.3902 0.6337 0.7455 0.6121 0.7547 0.8187 0.5791 0.4128 0.4351 0.5055
3018.850 0.55106 0.5911 0.561 0.50666 0.5721 0.6198 0.464167 0.45266 0.6448 0.689
3038.140 0.6709 0.8668 0.8499 0.6183 0.5838 0.5567 0.54458 0.7097 0.6517 0.6336
3057.430 1.0306 1.2758 1.2333 1.126 1.0268 1.2227 1.3039 1.2384 1.2812 1.3473
3076.720 1.685 1.845 1.665 1.485 1.2749 1.104 1.0464 1.0921 1.0906 0.9906
3096.009 0.9431 0.9678 0.8272 0.7491 0.8067 0.8136 0.8067 0.8334 0.8604 0.755
3115.299 0.6779 0.6505 0.49082 0.47684 0.7576 0.8002 0.8015 0.7133 0.54954 0.6996
3134.589 0.7979 0.74 0.7143 0.7166 0.50342 0.322 0.3665 0.3661 0.4041 0.5834
3153.879 0.6916 0.521 0.4369 0.5304 0.3933 0.324 0.339 0.318 0.354 0.3845
3173.169 0.436 0.5636 0.51246 0.3756 0.184 0.079 0.458513 0.4069 0.283 0.50698
3192.458 0.4885 0.52116 0.48571 0.317 0.503 0.6745 0.348 0.136 0.3814 0.54927
3211.748 0.52959 0.54149 0.55158 0.5667 0.654 0.7516 0.725 0.6316 0.5833 0.6042
3231.038 0.5246 0.3921 0.4135 0.5769 0.679 0.54791 0.6075 0.6325 0.7636 0.9476
3250.328 0.789 0.53734 0.47631 0.6636 0.7808 0.6867 0.4947 0.49523 0.7645 0.8007
3269.617 0.7481 0.7697 0.5254 0.464372 0.7515 1.038 1.0356 1.1471 1.1957 0.9866
3288.907 0.9248 0.8164 0.6686 0.9043 1.1205 0.9813 0.8434 0.9315 0.9388 0.8883
3308.197 0.9819 1.1717 1.0291 0.724 0.9497 1.0767 0.8533 0.8365 1.0611 1.3265
3327.487 1.4384 1.3925 1.3909 1.615 1.495 1.555 2.155 2.215 2.455 2.985
3346.777 3.505 4.165 4.965 5.855 6.585 7.665 9.035 10.145 11.355 12.845
3366.066 14.015 14.985 15.585 15.885 15.735 14.825 13.925 13.125 12.055 10.545
3385.356 9.335 8.265 7.085 6.425 5.745 4.955 4.215 3.715 3.365 2.955
3404.646 2.665 2.265 2.155 2.055 1.795 1.685 1.715 1.765 1.495 1.3455
3423.936 1.4331 1.635 1.645 1.665 1.655 1.825 2.155 2.465 2.805 3.135
3443.225 3.735 4.045 4.065 4.445 5.135 5.755 6.345 6.635 6.865 7.215
3462.515 7.795 8.405 8.735 8.965 8.995 9.125 9.285 9.275 9.265 8.955
3481.805 8.485 8.035 7.675 7.355 6.875 6.395 5.985 5.515 4.985 4.525
3501.095 4.235 3.765 3.255 3.175 3.055 2.605 2.135 1.905 1.835 1.625
3520.385 1.3684 1.3472 1.1996 1.1714 1.1042 1.0043 1.0358 0.9452 0.8397 0.7249
3539.674 0.6985 0.7187 0.6788 0.50761 0.6037 0.8146 0.6505 0.5689 0.6282 0.6632
3558.964 0.7314 0.6359 0.49596 0.4061 0.3861 0.4283 0.54605 0.6795 0.6372 0.4945
3578.254 0.29 0.328 0.233 0.316 0.7625 0.657 0.5816 0.6375 0.54104 0.53431
3597.544 0.53008 0.50111 0.53047 0.4684 0.48099 0.3829 0.216 0.48489 0.52278 0.4304
3616.833 0.52246 0.6341 0.7649 0.717 0.8022 0.9497 0.7059 0.158 0.06 0.50915
3636.123 0.5966 0.6423 0.8054 0.8034 0.55138 0.50816 0.48762 0.3619 0.4067 0.54398
3655.413 0.97 0.8717 0.50467 0.455186 0.48797 0.5597 0.321 0.127 0.4082 0.614
3674.703 0.6224 0.456101 0.3853 0.671 0.6742 0.52076 0.54474 0.4132 0.255 0.322
3693.993 0.4298 0.32 0.409 0.731 0.9235 1.0002 0.7981 0.6471 0.6128 0.264
3713.282 0.313 0.5925 0.6151 0.45293 0.303 0.458398 0.314 0.318 0.5649 0.6641
3732.572 0.50884 0.4356 0.53969 0.309 0.201 0.241 0.365 0.460812 0.3988 0.381
3751.862 0.6258 0.5921 0.45936 0.51589 0.308 0.204 0.313 0.3 0.142 0.228
3771.152 0.261 0.221 0.50335 0.4422 0.47089 0.5816 0.288 0.188 0.295 0.213
3790.441 0.3963 0.5539 0.54873 0.6455 0.458872 0.3558 0.261 0.275 0.251 0.19
3809.731 0.307 0.3946 0.224 0.193 0.48958 0.4447 0.305 0.4107 0.6612 0.6533
3829.021 0.5303 0.286 0.12 0.315 0.291 0.25 0.45105 0.5638 0.5844 0.568
3848.311 0.299 0.304 0.47048 0.299 0.146 0.243 0.3667 0.321 0.6402 0.7655
3867.601 0.3736 0.3563 0.50627 0.5974 0.48492 0.396 0.55291 0.460792 0.48587 0.349
3886.890 0.118 0.348 0.6308 0.612 0.53009 0.4204 0.52417 0.53292 0.288 0.303
3906.180 0.34 0.232 0.254 0.45288 0.4102 0.164 0.195 0.3662 0.3649 0.219
3925.470 0.212 0.49149 0.5013 0.307 0.183 0.3964 0.52487 0.3971 0.348 0.4333
3944.760 0.281 0 0.144 0.51054 0.5773 0.312 0.074 0.032 0.246 0.5274
3964.049 0.7537 0.9232 0.8072 0.6728 0.7715 0.52627 0.222 0.286 0.3839 0.48675
3983.339 0.5825 0.3921 0.4389 0.7695 0.7011 0.4013 0.245 0.276 0.131 0.2
##END=
