##TITLE=1-Acetoxy-3-fluorobenzene
##JCAMP-DX=4.24
##DATA TYPE=INFRARED SPECTRUM
##ORIGIN=EPA-IR VAPOR PHASE LIBRARY
##OWNER=SRD/NIST
Collection (C) 2018 copyright by the U.S. Secretary of Commerce
on behalf of the United States of America. All rights reserved.
##CAS REGISTRY NO=701-83-7
##MOLFORM=C 8 H 7 F O 2
##$NIST SOURCE=MSDC-IR
##STATE=gas
##XUNITS=1/CM
##YUNITS=ABSORBANCE
##XFACTOR=1.
##YFACTOR=0.001
##DELTAX=1.92898
##FIRSTX=549.8
##LASTX=4000.7
##FIRSTY=4.162
##MAXX=4000.7
##MINX=549.759
##MAXY=0.481562
##MINY=0
##NPOINTS=1790
##XYDATA=(X++(Y..Y))
549.759 4.162 3.392 3.422 4.662 4.122 2.082 1.982 2.542 2.862 2.822
569.049 2.982 3.022 3.602 3.712 3.822 4.022 3.692 3.892 3.962 4.612
588.339 5.022 4.382 3.882 3.632 3.502 3.832 4.152 4.432 3.872 3.062
607.628 3.572 3.922 3.942 3.802 3.172 2.972 2.642 2.302 2.272 2.062
626.918 1.962 2.342 2.152 1.872 2.232 2.402 2.632 3.362 3.792 3.702
646.208 3.962 4.422 5.492 6.932 8.252 10.242 12.402 14.342 16.332 18.782
665.498 21.472 23.192 24.082 25.172 26.812 28.082 28.772 28.602 27.822 25.492
684.787 22.282 19.782 17.052 14.412 11.962 9.312 7.102 5.852 4.802 4.352
704.077 4.242 3.732 3.082 2.712 2.562 2.462 2.592 2.352 2.172 2.112
723.367 2.492 2.802 3.002 3.692 4.372 5.122 5.062 5.482 7.202 8.742
742.657 9.582 10.302 11.892 13.042 13.682 15.152 16.392 17.462 18.442 19.332
761.947 20.542 22.012 23.162 24.262 26.292 28.252 29.372 30.052 29.472 27.102
781.236 24.072 21.162 18.562 16.552 14.202 11.852 9.802 7.772 6.552 5.472
800.526 4.892 4.512 4.032 3.662 3.592 3.742 4.092 3.782 3.152 4.052
819.816 4.872 4.662 4.122 4.512 4.742 5.052 5.752 6.042 6.982 7.762
839.106 8.232 8.672 9.532 10.822 11.612 12.572 14.032 15.332 16.532 18.302
858.395 20.672 22.832 25.242 27.602 29.942 32.752 34.982 35.902 34.802 33.102
877.685 31.502 30.042 29.562 29.122 28.312 28.462 28.642 28.582 27.972 27.092
896.975 26.292 24.992 23.382 21.782 20.592 19.032 17.642 16.832 15.112 13.522
916.265 13.052 12.052 11.332 10.962 10.652 11.012 11.402 11.712 12.052 13.502
935.555 14.732 15.992 17.872 19.992 22.982 26.252 30.762 37.112 44.182 50.582
954.844 56.712 61.612 63.552 64.122 62.812 59.522 55.272 48.732 41.282 35.002
974.134 30.312 27.022 25.292 24.702 24.342 24.352 25.022 26.312 27.972 28.882
993.424 30.652 34.492 37.732 40.572 43.832 46.802 49.612 51.862 52.852 51.342
1012.714 47.952 44.902 42.512 38.972 34.412 30.072 26.112 22.422 19.552 17.632
1032.003 15.902 15.232 15.222 14.482 14.492 14.512 13.942 13.582 14.132 14.702
1051.293 14.612 14.522 14.802 16.032 17.142 18.852 21.252 22.882 24.042 25.962
1070.583 28.052 28.732 27.932 27.832 28.142 26.522 25.032 23.852 22.052 20.852
1089.873 19.202 19.472 20.032 18.642 18.252 20.852 24.562 27.962 34.122 41.842
1109.163 52.272 71.422 95.612 122.952 149.692 167.622 180.002 187.242 187.312 182.492
1128.452 171.522 147.372 114.502 85.142 63.982 49.782 39.972 33.392 30.582 30.892
1147.742 34.132 40.312 46.432 50.352 52.802 54.482 55.152 56.532 59.322 59.532
1167.032 58.012 57.412 59.842 65.972 74.082 85.742 101.322 121.172 146.192 176.112
1186.322 209.762 248.572 293.342 341.782 389.022 431.542 463.792 480.092 481.562 467.872
1205.611 439.562 401.962 356.002 301.042 243.452 190.282 148.052 117.302 93.902 76.662
1224.901 63.942 54.472 49.232 44.852 41.552 40.292 38.562 38.112 40.002 42.582
1244.191 45.492 49.392 53.252 57.682 62.132 66.522 70.402 73.472 76.822 79.072
1263.481 79.332 78.092 77.092 75.272 71.942 68.442 64.652 60.382 55.322 48.732
1282.771 42.112 36.432 31.432 27.722 24.552 21.812 19.732 17.852 16.352 15.072
1302.060 13.852 13.042 12.602 12.072 11.682 11.422 11.092 10.912 10.682 10.602
1321.350 10.402 10.172 10.182 9.982 9.692 9.342 8.962 8.772 8.642 8.422
1340.640 8.492 8.872 9.342 9.882 10.692 12.102 13.972 16.282 19.362 23.372
1359.930 28.242 34.222 41.252 48.412 55.262 61.002 65.102 67.202 66.532 63.632
1379.219 58.682 51.832 43.942 36.082 28.912 23.242 19.022 15.952 14.102 12.932
1398.509 12.152 11.822 11.922 12.092 12.452 12.752 13.312 14.002 14.342 14.682
1417.799 15.162 15.812 16.212 16.662 17.312 18.112 19.362 20.682 22.132 23.772
1437.089 25.372 26.792 28.232 29.342 30.062 30.502 30.452 30.212 29.962 29.572
1456.378 28.862 27.902 27.252 27.032 27.422 28.492 30.672 34.052 38.802 45.792
1475.668 54.822 66.492 79.742 92.802 102.412 107.192 108.252 107.222 104.062 98.542
1494.958 88.642 73.432 57.532 43.932 34.202 28.042 23.232 19.782 17.622 16.082
1514.248 15.102 14.602 14.282 13.872 14.072 14.472 14.892 15.052 14.872 14.762
1533.538 14.622 14.732 15.142 15.312 15.242 15.142 14.992 14.992 14.822 14.352
1552.827 14.102 14.342 14.442 14.582 15.272 15.992 16.812 17.722 19.292 21.462
1572.117 24.122 27.522 31.182 35.562 40.592 46.332 52.542 59.372 66.752 74.592
1591.407 82.972 90.812 98.342 105.672 111.892 117.192 120.922 121.532 118.992 113.572
1610.697 105.392 95.702 85.592 74.612 64.172 55.072 46.732 39.582 33.912 29.502
1629.986 25.772 22.782 20.792 19.342 18.162 16.932 15.862 15.202 14.312 13.592
1649.276 12.902 12.152 11.122 10.082 9.482 8.842 8.072 7.472 6.982 6.402
1668.566 6.022 5.972 5.852 5.532 5.142 5.062 5.212 5.182 5.092 5.352
1687.856 5.492 5.392 5.602 5.812 5.742 5.722 5.842 5.972 6.372 6.772
1707.146 7.472 8.072 8.362 8.962 9.632 10.112 10.482 10.912 11.452 11.922
1726.435 12.462 13.142 13.802 14.482 15.212 16.012 16.782 17.692 18.482 19.442
1745.725 20.862 22.362 24.152 26.452 29.212 32.132 35.412 39.082 43.052 47.462
1765.015 52.132 57.252 63.282 69.732 77.182 85.192 93.692 102.232 110.692 119.152
1784.305 127.632 136.432 144.012 148.352 148.012 143.792 137.702 130.962 123.232 114.122
1803.594 103.972 92.982 81.882 70.932 60.492 51.232 43.382 36.712 30.932 26.032
1822.884 22.002 18.952 16.632 14.572 12.792 11.392 10.322 9.292 8.352 7.602
1842.174 6.932 6.562 6.442 6.242 5.862 5.612 5.552 5.572 5.632 5.542
1861.464 5.562 5.602 5.582 5.562 5.582 5.672 5.452 5.142 5.152 4.862
1880.754 4.672 4.682 4.532 4.292 4.152 4.072 3.932 4.032 4.272 4.432
1900.043 4.472 4.492 4.562 4.932 5.112 5.222 5.352 5.222 5.112 4.922
1919.333 4.672 4.652 4.442 4.042 3.822 3.662 3.472 3.162 2.822 2.622
1938.623 2.722 2.932 3.082 3.032 2.812 2.782 2.812 2.802 2.722 2.672
1957.913 2.642 2.572 2.582 2.522 2.482 2.302 2.032 2.012 1.992 1.942
1977.202 1.772 1.602 1.702 1.822 1.872 1.782 1.682 1.822 1.902 2.022
1996.492 2.262 2.122 2.082 2.292 2.432 2.412 2.482 2.622 2.472 2.432
2015.782 2.752 2.792 2.892 3.112 3.092 3.112 3.042 3.172 3.322 3.312
2035.072 3.512 3.382 3.252 3.362 3.262 3.262 3.162 3.252 3.272 2.952
2054.362 2.912 2.902 2.752 2.622 2.592 2.772 2.942 2.882 2.842 2.992
2073.651 3.002 2.932 2.952 3.102 3.182 3.102 3.222 3.302 3.342 3.242
2092.941 3.092 3.082 3.032 2.902 2.862 2.922 2.752 2.592 2.522 2.422
2112.231 2.272 2.052 2.012 1.932 1.892 1.952 2.052 2.072 2.152 2.082
2131.521 1.702 1.752 1.902 1.862 1.682 1.622 1.642 1.602 1.702 1.822
2150.810 1.822 1.652 1.5212 1.622 1.842 1.662 1.5046 1.5343 1.4386 1.3359
2170.100 1.2774 1.1985 1.0943 1.3484 1.4572 1.3425 1.4717 1.4682 1.2802 1.2975
2189.390 1.4823 1.4598 1.4117 1.5633 1.722 1.732 1.772 1.852 1.882 2.032
2208.680 2.172 2.162 2.202 2.192 2.262 2.322 2.312 2.412 2.362 2.212
2227.970 2.012 1.902 1.942 1.952 1.912 1.772 1.792 1.942 1.952 1.932
2247.259 1.912 1.892 1.672 1.5145 1.4179 1.4757 1.612 1.5093 1.353 1.3857
2266.549 1.3456 1.3517 1.4449 1.2942 1.1355 1.0978 1.2886 1.5102 1.2956 1.0241
2285.839 1.1079 1.2433 1.4786 1.5502 1.2646 1.2083 1.3659 1.2607 1.3656 1.51
2305.129 1.4611 1.3654 1.2516 1.4284 1.4957 1.3842 1.642 1.852 1.622 1.5185
2324.418 1.672 1.632 1.525 1.5158 1.702 1.892 1.622 1.702 2.092 2.062
2343.708 1.952 1.882 1.822 2.022 2.152 2.002 2.052 2.212 2.242 2.192
2362.998 2.272 2.692 2.862 2.962 3.182 3.432 3.722 3.782 3.672 3.662
2382.288 3.892 3.802 3.692 3.622 3.252 3.312 3.412 2.932 2.692 2.872
2401.578 2.802 2.622 2.722 2.642 2.542 2.512 2.302 2.182 2.242 2.132
2420.867 1.842 1.962 2.012 1.892 1.742 1.4836 1.722 1.892 1.5779 1.4772
2440.157 1.5269 1.4379 1.3279 1.5169 1.5691 1.2592 1.3395 1.3946 1.3951 1.4735
2459.447 1.3671 1.364 1.4549 1.5161 1.4337 1.3997 1.181 1.1354 1.2777 1.447
2478.737 1.5061 1.377 1.3212 1.0989 0.9099 1.0235 1.2324 1.3774 1.3376 1.1393
2498.026 1.0637 1.0864 1.1807 0.8125 0.8442 1.2404 1.298 1.702 1.872 1.622
2517.316 1.3663 1.2195 1.1239 1.0108 1.0491 1.2295 1.592 1.642 1.2421 1.3111
2536.606 1.3077 1.273 1.3875 1.1169 1.0548 1.1036 1.0633 1.0533 1.2079 1.5329
2555.896 1.5584 1.2669 1.2895 1.652 2.002 2.042 1.812 1.812 1.902 2.052
2575.186 2.002 1.5373 1.2719 1.2343 1.2214 1.2918 1.1402 1.3099 1.414 1.3103
2594.475 1.3229 1.361 1.3576 1.2341 1.3041 1.2682 1.2726 1.0457 0.9297 1.0095
2613.765 0.9923 0.9725 1.0341 0.967 0.65001 0.7145 0.8496 0.5789 0.5788 0.8795
2633.055 0.8273 0.8741 1.1396 1.0399 1.0233 0.996 0.9777 0.964 0.8602 1.0055
2652.345 1.0799 0.9477 0.9403 1.1091 1.0315 0.9978 1.2068 1.1612 1.3455 1.3706
2671.634 1.0369 1.0044 1.0925 0.9752 0.921 0.67207 0.5553 0.8178 0.9423 1.2288
2690.924 1.0664 1.0971 1.2655 1.0809 0.9581 0.9172 1.2104 1.1969 0.991 0.9938
2710.214 1.0681 1.3165 1.4934 1.467 1.2565 1.354 1.4527 1.3543 1.5017 1.5164
2729.504 1.5117 1.4784 1.4195 1.3229 1.2297 1.3137 1.3793 1.4358 1.3479 1.2858
2748.794 1.4084 1.4201 1.5252 1.4353 1.2783 1.2889 0.9466 1.1335 1.4028 1.0345
2768.083 1.1595 1.1114 0.62789 0.54 0.9099 1.0389 0.93 1.3046 1.2913 0.9926
2787.373 0.8841 0.9019 0.909 0.893 0.9793 1.0304 1.052 1.0954 1.2615 1.2185
2806.663 1.2034 1.0579 0.9338 1.1876 1.152 1.0461 1.0384 0.9274 0.69179 0.9826
2825.953 1.2214 0.7636 0.4949 0.459 0.7394 1.2012 1.1462 0.8051 0.8477 1.0507
2845.242 0.9952 1.0721 1.3738 1.3145 1.0449 0.8337 0.8177 1.2252 1.2216 1.0259
2864.532 1.2047 1.0566 1.1588 1.2473 1.1399 1.1394 0.9557 1.1083 1.3902 1.4614
2883.822 1.1531 1.2299 1.622 1.3585 1.3303 1.3738 1.3069 1.2148 0.9678 1.1201
2903.112 0.9541 0.819 0.9983 0.7628 0.8776 1.602 1.662 1.2236 0.9804 1.0474
2922.401 1.0055 0.795 1.2939 1.752 1.722 1.742 1.882 2.052 2.082 2.402
2941.691 2.782 2.672 3.152 3.782 3.562 3.272 3.442 3.592 3.772 3.712
2960.981 3.132 2.592 2.552 2.672 2.492 2.342 2.092 2.162 2.142 1.892
2980.271 2.192 2.522 2.492 2.262 2.082 2.152 2.572 2.512 2.052 2.392
2999.561 2.152 1.832 2.132 2.172 2.062 2.052 2.412 2.712 2.882 2.922
3018.850 3.202 3.752 3.872 3.742 4.012 4.372 4.352 4.222 4.402 4.582
3038.140 4.682 5.052 5.172 5.122 5.312 5.802 5.972 5.552 5.252 5.222
3057.430 5.362 5.552 5.672 5.912 6.372 6.432 6.532 7.072 7.472 7.612
3076.720 7.802 8.112 8.222 8.132 8.302 8.602 8.242 7.832 8.012 7.722
3096.009 7.132 6.912 6.152 5.112 4.822 4.762 4.682 4.182 3.392 3.252
3115.299 2.782 2.452 2.422 1.602 0.9566 1.4362 1.802 2.062 2.182 1.581
3134.589 1.3802 1.802 1.862 1.632 1.379 1.2857 1.4048 1.3558 1.525 1.602
3153.879 1.602 1.319 1.2637 1.942 1.992 1.842 1.722 1.4554 1.3682 1.527
3173.169 1.622 1.2001 1.2523 1.622 1.612 1.1546 0.8669 1.2757 1.5745 1.3714
3192.458 1.0044 0.7931 0.9979 1.391 1.3508 1.3993 1.3606 1.0194 0.8959 0.6973
3211.748 1.0901 1.5845 1.479 1.2852 1.3179 1.3515 0.911 0.8098 1.0807 1.0393
3231.038 1.2242 1.752 1.5118 0.9302 1.3354 1.4273 0.8837 0.5474 0.8596 1.0688
3250.328 0.939 1.2704 1.0877 1.0251 0.9505 0.309 0 0.292 0.9132 1.0129
3269.617 0.9404 0.68181 0.5666 0.8124 0.757 0.9778 1.0164 0.65459 0.64145 0.5306
3288.907 0.486 0.8818 0.7665 0.352 0.61561 1.1819 1.5016 1.1368 0.600608 0.7719
3308.197 0.64459 0.448 0.5788 1.0082 1.034 0.5 0.382 0.9182 0.8558 0.178
3327.487 0.45 0.6385 0.236 0.179 0.9333 1.5139 0.78 0.022 0.184 0.5455
3346.777 0.68452 0.8913 1.1463 1.296 1.1934 0.8829 1.1273 0.8726 0.441 0.7964
3366.066 0.66373 0.615 0.338 0.023 0.58363 0.7788 0.7263 0.4936 0.306 1.081
3385.356 1.349 0.60925 0.68066 1.1062 0.9363 0.7382 0.8619 0.8677 0.8029 1.1844
3404.646 1.3104 1.1753 0.8037 0.5383 0.7775 0.486 0.599789 1.0327 1.1798 0.9704
3423.936 0.007 0.059 0.7211 1.077 0.8137 0.348 0.166 0.06 0.204 0.542
3443.225 1.0553 0.9674 0.7606 0.8802 1.1474 1.0492 0.727 1.0942 1.5475 1.3779
3462.515 0.9951 0.474 0.8924 1.732 1.4905 0.8705 1.127 1.5317 1.4212 1.4132
3481.805 0.94 1.0248 1.4656 1.2921 0.9395 0.596201 0.8759 0.8587 0.252 0.416
3501.095 1.0189 1.2399 1.1937 1.1277 1.0809 1.0023 1.1531 1.4908 1.732 1.5566
3520.385 1.1099 1.1553 1.732 1.912 1.962 1.842 1.437 1.1292 1.2489 1.632
3539.674 1.782 1.5369 1.932 2.432 2.262 2.012 1.862 2.092 2.382 2.582
3558.964 2.562 2.792 2.812 2.472 2.562 2.852 2.822 2.302 2.442 2.552
3578.254 2.282 2.332 2.092 2.212 2.262 2.022 2.012 2.312 2.352 2.552
3597.544 1.902 1.086 1.2543 1.792 1.682 1.3223 1.5192 1.054 0.8691 0.8794
3616.833 1.0035 1.622 1.912 1.53 1.3585 1.4139 1.3977 1.0072 0.64264 0.9127
3636.123 0.9942 1.0953 0.9067 0.8742 1.2054 0.9733 0.747 1.067 1.3332 0.9236
3655.413 0.8653 0.8212 0.8792 0.8739 0.994 1.0924 0.8991 1.0795 0.7809 0.9647
3674.703 1.0373 0.7437 0.9323 1.2226 0.8521 0.407 0.335 0.473 0.8853 0.8385
3693.993 0.5239 0.47 0.488 0.447 0.389 0.5405 0.601075 0.7453 1.1706 0.63683
3713.282 0.254 0.491 0.711 1.1905 1.442 1.167 0.8518 1.2588 1.4015 1.1321
3732.572 1.2299 1.1059 0.9733 0.5656 0.413 1.1846 1.4047 0.7313 0.7685 0.62163
3751.862 0.067 0.24 0.8312 1.4568 1.2297 0.9448 0.9871 0.66113 0.5444 0.8153
3771.152 1.065 0.7232 0.599151 0.5217 0.326 0.191 0.027 0.009 0.474 1.2331
3790.441 1.1524 0.8131 0.5588 0.351 0.54 0.69114 0.5009 0.5787 1.0725 1.1594
3809.731 0.7549 0.7317 0.7369 1.2216 1.404 0.6089 0.391 0.39 0.62515 1.0344
3829.021 0.8967 1.0283 1.0057 0.9695 0.7804 0.5164 0.58912 0.251 0.599052 1.1689
3848.311 1.1522 1.3118 1.0509 0.7287 0.63769 0.372 0.365 0.7944 1.1715 0.8223
3867.601 0.5342 1.0272 1.0915 0.9868 1.0887 0.9368 0.9421 1.0105 0.9775 0.7542
3886.890 0.7441 0.5025 0.49 0.8045 0.7948 1.0432 0.8656 0.349 0.5755 1.1674
3906.180 1.4611 1.4363 1.5376 1.652 1.632 1.5176 1.0707 0.63743 0.5201 0.425
3925.470 0.8191 0.8908 0.415 0.5108 0.7296 0.8068 1.19 1.3519 0.759 0.6248
3944.760 0.475 0.216 0.5047 0.68624 0.481 0.5592 0.5033 0.324 0.9124 1.3014
3964.049 1.1605 1.0066 0.8851 0.7911 1.0218 1.1342 1.06 1.0383 0.945 1.0362
3983.339 1.0574 0.7889 0.69019 1.2252 1.622 1.3645 1.3464 1.1022 0.977 1.1375
##END=
