##TITLE=Homophthalic anhydride
##JCAMP-DX=4.24
##DATA TYPE=INFRARED SPECTRUM
##ORIGIN=EPA-IR VAPOR PHASE LIBRARY
##OWNER=SRD/NIST
Collection (C) 2018 copyright by the U.S. Secretary of Commerce
on behalf of the United States of America. All rights reserved.
##CAS REGISTRY NO=703-59-3
##MOLFORM=C 9 H 6 O 3
##$NIST SOURCE=MSDC-IR
##STATE=gas
##XUNITS=1/CM
##YUNITS=ABSORBANCE
##XFACTOR=1.
##YFACTOR=0.001
##DELTAX=1.929
##FIRSTX=549.8
##LASTX=4000.8
##FIRSTY=3.681
##MAXX=4000.75
##MINX=549.766
##MAXY=0.174931
##MINY=0
##NPOINTS=1790
##XYDATA=(X++(Y..Y))
549.766 3.681 3.841 4.231 4.301 4.061 3.691 3.321 2.841 2.431 2.571
569.056 2.491 2.131 2.021 1.691 1.651 1.921 1.891 1.571 1.891 2.111
588.346 1.921 1.861 1.951 1.951 1.581 1.548 1.831 1.971 2.161 2.461
607.636 2.821 3.751 5.081 6.611 8.301 9.671 10.431 10.211 10.241 10.701
626.926 10.731 10.181 8.681 6.591 4.831 3.521 2.621 2.201 2.041 1.871
646.216 1.681 1.831 1.971 2.051 2.421 2.761 2.921 3.331 3.851 4.211
665.506 4.901 5.851 5.991 5.881 6.241 6.861 7.421 7.301 6.511 5.591
684.796 5.091 4.691 4.131 3.641 3.221 2.871 2.571 2.271 2.091 2.001
704.086 2.011 2.001 2.121 2.601 3.041 3.591 4.701 6.291 8.211 10.481
723.376 12.871 15.271 17.711 20.651 24.651 30.211 33.221 29.181 23.341 20.461
742.666 18.911 17.051 14.811 12.221 9.821 7.811 6.051 4.951 4.161 3.561
761.956 3.241 3.081 3.001 2.921 2.781 2.791 2.941 2.851 2.671 2.701
781.246 2.871 2.891 2.871 3.021 3.061 2.731 2.401 2.231 1.951 1.761
800.536 1.561 1.2737 1.0363 0.847 0.8063 0.8993 0.8205 0.60569 0.6471 0.7903
819.826 0.7913 0.8255 0.7224 0.7194 0.879 0.8238 0.8627 0.8727 0.8621 0.9172
839.116 1.0016 1.0825 1.1153 1.1743 1.2388 1.3715 1.4807 1.5369 1.611 1.621
858.406 1.5331 1.591 1.681 1.641 1.561 1.4879 1.3617 1.3414 1.4603 1.4198
877.696 1.3272 1.4029 1.651 1.691 1.661 1.871 2.131 2.421 2.721 3.141
896.986 3.491 3.851 4.461 5.171 5.941 6.651 7.281 7.881 8.251 8.501
916.276 8.491 8.391 8.361 8.111 7.661 6.961 6.271 5.631 5.131 4.761
935.566 4.691 4.801 4.881 4.861 4.701 4.561 4.551 4.651 4.681 4.751
954.856 4.801 4.801 4.951 5.231 5.661 5.981 5.901 5.791 5.961 6.331
974.146 6.841 7.421 8.031 8.811 9.941 11.361 13.021 15.001 17.281 19.961
993.436 23.211 27.041 31.531 36.851 43.211 50.611 59.031 68.211 77.561 86.641
1012.726 94.741 101.141 105.131 106.141 104.041 98.851 91.611 83.161 74.111 65.341
1032.016 57.851 53.031 51.791 53.891 57.931 62.431 66.021 67.841 68.071 66.941
1051.306 64.201 59.171 51.821 42.731 33.131 24.711 18.501 14.471 11.921 10.431
1070.596 9.551 8.891 8.521 8.291 8.071 7.911 7.711 7.571 7.541 7.491
1089.886 7.621 7.891 8.161 8.691 9.551 10.811 12.411 14.461 16.801 19.131
1109.176 21.021 22.061 22.391 22.541 22.471 22.011 21.121 19.461 17.481 15.851
1128.467 14.971 14.871 15.211 16.031 17.111 18.261 19.491 20.661 21.601 22.221
1147.757 22.561 22.871 23.321 23.761 24.041 23.721 22.831 22.211 22.471 23.061
1167.047 23.371 23.481 23.391 23.291 23.281 23.251 23.151 22.931 22.591 22.311
1186.337 22.031 21.801 21.751 21.821 21.961 21.941 21.621 20.971 20.191 19.311
1205.627 18.151 16.971 15.541 14.011 12.901 12.041 11.531 11.541 11.901 12.351
1224.917 12.811 13.221 13.611 13.861 13.891 13.671 13.051 12.101 11.161 10.321
1244.207 9.621 9.101 8.641 8.381 8.431 8.771 9.571 10.921 13.141 16.521
1263.497 20.941 26.441 33.071 40.301 47.291 53.511 58.301 61.081 62.021 61.091
1282.787 58.371 54.131 48.421 41.591 34.611 28.681 24.351 21.501 19.631 18.241
1302.077 17.011 15.821 14.691 13.591 12.511 11.531 10.551 9.541 8.741 8.161
1321.367 7.721 7.501 7.371 7.211 6.951 6.651 6.321 5.811 5.251 4.691
1340.657 4.071 3.561 3.161 2.811 2.581 2.481 2.461 2.451 2.411 2.321
1359.947 2.251 2.201 2.051 2.001 2.071 2.131 2.161 2.161 2.191 2.311
1379.237 2.421 2.511 2.611 2.741 2.901 3.101 3.271 3.441 3.701 3.861
1398.527 3.991 4.131 4.341 4.641 4.901 5.061 5.091 5.021 4.941 4.921
1417.817 4.861 4.671 4.491 4.261 3.911 3.681 3.481 3.371 3.421 3.481
1437.107 3.551 3.641 3.851 4.161 4.571 5.101 5.871 6.881 8.031 9.161
1456.397 10.111 10.661 10.931 11.181 11.161 10.781 10.101 9.091 7.761 6.531
1475.687 5.841 5.461 5.311 5.331 5.411 5.461 5.411 5.221 4.971 4.691
1494.977 4.351 3.991 3.471 2.851 2.341 2.041 1.831 1.621 1.5208 1.4503
1514.267 1.4163 1.4652 1.4092 1.3565 1.3958 1.4304 1.4222 1.3438 1.3793 1.473
1533.557 1.4467 1.4563 1.581 1.631 1.641 1.721 1.811 1.881 1.971 2.121
1552.847 2.251 2.331 2.461 2.561 2.581 2.611 2.671 2.761 2.871 3.111
1572.137 3.271 3.371 3.621 3.981 4.291 4.531 4.841 5.211 5.581 5.961
1591.427 6.461 7.191 8.061 8.961 9.891 10.861 11.741 12.411 12.791 12.851
1610.717 12.631 12.111 11.301 10.231 9.011 7.841 6.661 5.551 4.641 3.981
1630.007 3.461 3.041 2.791 2.581 2.361 2.261 2.211 2.131 2.101 2.061
1649.297 2.021 2.081 2.111 2.111 2.141 2.151 2.271 2.351 2.331 2.361
1668.587 2.421 2.431 2.411 2.401 2.431 2.481 2.451 2.421 2.431 2.491
1687.877 2.551 2.561 2.611 2.721 2.821 2.931 3.081 3.201 3.321 3.421
1707.167 3.441 3.531 3.671 3.821 4.001 4.211 4.461 4.651 4.921 5.301
1726.457 5.741 6.281 6.901 7.611 8.501 9.321 10.181 11.121 12.051 13.001
1745.747 14.161 15.651 17.301 19.181 21.511 24.541 28.711 34.051 41.211 50.761
1765.037 63.161 79.121 99.071 121.731 145.571 164.911 174.511 173.841 169.851 171.451
1784.327 174.931 167.591 145.961 118.001 91.611 70.821 56.271 46.661 41.341 39.591
1803.617 40.801 44.371 49.991 57.231 65.681 74.641 83.281 90.911 96.901 100.831
1822.907 102.471 101.361 97.371 90.761 81.741 71.441 60.751 50.401 41.031 32.921
1842.197 26.251 20.871 16.671 13.611 11.391 9.881 8.821 7.981 7.311 6.781
1861.487 6.341 5.901 5.411 5.041 4.701 4.311 3.991 3.701 3.461 3.281
1880.777 3.091 2.881 2.711 2.601 2.511 2.441 2.441 2.511 2.521 2.481
1900.067 2.441 2.431 2.381 2.281 2.221 2.151 2.071 2.031 1.981 1.941
1919.357 1.981 2.041 2.051 2.131 2.231 2.261 2.231 2.261 2.321 2.291
1938.647 2.321 2.341 2.311 2.241 2.181 2.091 1.991 1.971 1.871 1.751
1957.937 1.701 1.661 1.621 1.601 1.591 1.5389 1.482 1.4615 1.3725 1.2841
1977.227 1.1984 1.0272 0.9431 0.9056 0.8533 0.806 0.7639 0.743 0.7063 0.6985
1996.517 0.7038 0.7359 0.7534 0.7153 0.6753 0.6925 0.7726 0.7615 0.743 0.7706
2015.807 0.7985 0.8593 0.8607 0.8572 0.9281 1.0099 1.0217 1.003 0.9947 1.0139
2035.097 1.0825 1.0969 1.0821 1.0226 0.9984 1.0046 0.9591 0.9605 0.9687 0.9398
2054.387 0.96 0.9739 0.9943 1.0453 1.0252 0.946 0.8844 0.8391 0.8347 0.7899
2073.677 0.7729 0.766 0.7252 0.7326 0.7226 0.7044 0.7344 0.7431 0.7017 0.7034
2092.967 0.6904 0.6306 0.57611 0.59674 0.62325 0.63753 0.61164 0.57212 0.54918 0.55662
2112.257 0.58761 0.59235 0.60514 0.62108 0.61126 0.56742 0.5483 0.61184 0.6535 0.6715
2131.547 0.7387 0.7691 0.7378 0.7162 0.7011 0.6912 0.6966 0.688 0.7114 0.7253
2150.837 0.7511 0.7883 0.7862 0.7842 0.8122 0.8273 0.8302 0.8223 0.8323 0.8539
2170.127 0.8576 0.8713 0.8414 0.7668 0.7311 0.7491 0.7888 0.848 0.7897 0.6961
2189.417 0.6938 0.7767 0.8019 0.7841 0.7404 0.6929 0.7201 0.7188 0.7208 0.7109
2208.707 0.7154 0.7253 0.7116 0.6843 0.7062 0.6751 0.6546 0.6825 0.63714 0.63717
2227.997 0.6816 0.7014 0.7088 0.722 0.7149 0.7641 0.8037 0.7767 0.7865 0.8941
2247.287 1.0271 1.0522 1.0028 0.9942 0.9868 0.9515 0.9514 0.9963 1.0431 1.1092
2266.577 1.1843 1.1728 1.1791 1.1799 1.2333 1.3476 1.3416 1.3492 1.4047 1.4217
2285.868 1.4421 1.4399 1.4839 1.561 1.581 1.571 1.601 1.651 1.661 1.711
2305.158 1.771 1.821 1.871 1.891 1.931 2.031 2.131 2.201 2.171 2.161
2324.448 2.231 2.211 2.141 2.151 2.121 2.001 1.911 1.881 1.841 1.751
2343.738 1.751 1.701 1.503 1.4397 1.601 1.781 1.891 1.991 2.001 1.981
2363.028 1.971 1.941 1.961 1.951 1.821 1.651 1.5286 1.3622 1.2447 1.1154
2382.318 0.8875 0.7422 0.64935 0.61495 0.5796 0.54988 0.4814 0.448 0.5084 0.5453
2401.608 0.5022 0.463 0.5105 0.472 0.41 0.4544 0.5061 0.4599 0.406 0.377
2420.898 0.341 0.346 0.391 0.383 0.4532 0.4835 0.388 0.359 0.398 0.5224
2440.188 0.60882 0.5771 0.4809 0.481 0.5226 0.5114 0.4666 0.449 0.4529 0.4947
2459.478 0.57094 0.54301 0.54454 0.5406 0.443 0.437 0.4824 0.4672 0.4657 0.403
2478.768 0.345 0.42 0.4753 0.402 0.365 0.378 0.384 0.392 0.404 0.38
2498.058 0.34 0.396 0.452 0.408 0.323 0.317 0.289 0.298 0.381 0.337
2517.348 0.32 0.381 0.393 0.34 0.279 0.269 0.259 0.297 0.342 0.256
2536.638 0.181 0.24 0.283 0.29 0.272 0.24 0.211 0.212 0.273 0.276
2555.928 0.251 0.22 0.17 0.197 0.298 0.275 0.251 0.27 0.253 0.224
2575.218 0.198 0.211 0.152 0.151 0.182 0.19 0.219 0.227 0.231 0.23
2594.508 0.187 0.2 0.205 0.179 0.216 0.256 0.343 0.374 0.377 0.327
2613.798 0.249 0.195 0.127 0.19 0.319 0.284 0.194 0.169 0.117 0.066
2633.088 0.121 0.206 0.23 0.227 0.224 0.234 0.186 0.234 0.209 0.169
2652.378 0.25 0.188 0.104 0.13 0.219 0.253 0.179 0.142 0.163 0.13
2671.668 0.179 0.218 0.195 0.181 0.184 0.224 0.186 0.108 0.201 0.283
2690.958 0.27 0.301 0.337 0.289 0.247 0.268 0.274 0.271 0.187 0.18
2710.248 0.185 0.14 0.239 0.256 0.224 0.292 0.276 0.22 0.26 0.321
2729.538 0.289 0.288 0.358 0.4703 0.406 0.275 0.275 0.323 0.368 0.321
2748.828 0.327 0.352 0.18 0.073 0.183 0.209 0.232 0.271 0.294 0.345
2768.118 0.305 0.277 0.252 0.262 0.221 0.198 0.276 0.251 0.218 0.22
2787.408 0.255 0.298 0.262 0.178 0.169 0.232 0.271 0.31 0.373 0.339
2806.698 0.252 0.228 0.243 0.286 0.288 0.237 0.183 0.166 0.272 0.342
2825.988 0.205 0.164 0.239 0.25 0.133 0.091 0.126 0.089 0.138 0.189
2845.278 0.142 0.126 0.233 0.27 0.216 0.219 0.267 0.235 0.223 0.328
2864.568 0.337 0.221 0.232 0.318 0.23 0.246 0.331 0.305 0.404 0.5011
2883.858 0.477 0.4637 0.4592 0.393 0.422 0.57681 0.7045 0.7727 0.8401 0.8831
2903.148 0.9269 0.8914 0.7824 0.7193 0.7524 0.8088 0.7012 0.6577 0.6562 0.61331
2922.438 0.492 0.345 0.269 0.199 0.35 0.423 0.303 0.306 0.379 0.407
2941.728 0.4596 0.54352 0.449 0.405 0.4874 0.45 0.466 0.381 0.341 0.382
2961.018 0.338 0.283 0.344 0.54947 0.56297 0.5305 0.5373 0.5104 0.56715 0.61767
2980.308 0.5256 0.427 0.312 0.353 0.409 0.432 0.4754 0.404 0.305 0.233
2999.598 0.303 0.399 0.375 0.4619 0.551909 0.556899 0.59548 0.536 0.5317 0.6685
3018.888 0.7704 0.7798 0.9772 1.2465 1.3347 1.5273 1.921 2.181 2.461 2.801
3038.178 3.041 3.121 3.301 3.611 3.771 3.791 3.661 3.601 3.701 3.621
3057.468 3.541 3.581 3.581 3.631 3.811 4.051 4.251 4.441 4.661 4.961
3076.758 5.191 5.331 5.471 5.391 5.221 5.181 5.031 4.701 4.321 3.811
3096.048 3.211 2.751 2.291 1.841 1.4954 1.2353 1.0404 0.7268 0.60317 0.63218
3115.338 0.5079 0.372 0.392 0.379 0.332 0.351 0.353 0.295 0.252 0.169
3134.628 0.079 0.151 0.309 0.337 0.217 0.118 0.184 0.212 0.142 0.149
3153.918 0.184 0.098 0 0.114 0.183 0.137 0.167 0.276 0.406 0.338
3173.208 0.246 0.366 0.338 0.235 0.202 0.157 0.114 0.145 0.279 0.416
3192.498 0.45 0.415 0.356 0.338 0.268 0.169 0.171 0.164 0.167 0.108
3211.788 0.108 0.233 0.312 0.327 0.203 0.179 0.206 0.198 0.218 0.093
3231.078 0.148 0.192 0.361 0.414 0.235 0.151 0.164 0.233 0.141 0.167
3250.368 0.094 0.121 0.245 0.18 0.222 0.354 0.332 0.184 0.168 0.177
3269.658 0.204 0.317 0.291 0.256 0.191 0.161 0.348 0.367 0.255 0.267
3288.948 0.212 0.172 0.154 0.113 0.235 0.336 0.28 0.219 0.283 0.291
3308.238 0.252 0.179 0.1 0.199 0.249 0.303 0.237 0.025 0.043 0.207
3327.528 0.229 0.164 0.266 0.37 0.35 0.206 0.153 0.099 0.13 0.27
3346.818 0.175 0.103 0.133 0.147 0.252 0.409 0.341 0.371 0.388 0.318
3366.108 0.355 0.349 0.362 0.293 0.247 0.309 0.413 0.347 0.296 0.4529
3385.398 0.405 0.288 0.363 0.4673 0.45 0.438 0.54718 0.43 0.218 0.222
3404.688 0.161 0.159 0.254 0.286 0.324 0.281 0.204 0.258 0.236 0.183
3423.978 0.3 0.424 0.4685 0.236 0.164 0.345 0.324 0.323 0.418 0.39
3443.269 0.251 0.189 0.226 0.409 0.4645 0.4664 0.6042 0.5141 0.374 0.4
3462.559 0.439 0.431 0.334 0.341 0.4706 0.5338 0.54 0.4799 0.4538 0.4876
3481.849 0.56289 0.4992 0.4843 0.57895 0.414 0.4786 0.61081 0.4598 0.424 0.56127
3501.139 0.5848 0.5119 0.5002 0.573 0.63991 0.6998 0.62818 0.4911 0.59237 0.6884
3520.429 0.6884 0.7684 0.8613 0.9115 0.9845 1.1235 1.2181 1.215 1.3237 1.4969
3539.719 1.4576 1.3771 1.641 1.841 1.831 1.901 1.911 1.881 1.951 1.941
3559.009 1.801 1.671 1.731 1.841 1.851 1.801 1.761 1.751 1.931 2.201
3578.299 2.251 2.341 2.581 2.661 2.521 2.511 2.451 2.301 2.101 2.021
3597.589 2.021 1.751 1.571 1.5225 1.3428 1.2168 1.2825 1.169 1.0383 1.1041
3616.879 1.2207 1.3074 1.1755 1.1142 1.2522 1.1637 1.1234 1.3315 1.3574 1.2846
3636.169 1.2004 1.1348 1.1965 1.1138 1.065 0.9483 0.8659 0.8381 0.7601 0.8956
3655.459 0.8866 0.7643 0.64586 0.4937 0.5167 0.681 0.6993 0.62545 0.58782 0.4837
3674.749 0.4692 0.58329 0.57209 0.5223 0.6066 0.7016 0.559291 0.554129 0.61345 0.54767
3694.039 0.54957 0.550213 0.551809 0.5309 0.56988 0.6834 0.57425 0.59161 0.8156 0.6598
3713.329 0.54207 0.4927 0.446 0.62894 0.7762 0.7066 0.448 0.397 0.57211 0.58764
3732.619 0.59781 0.61318 0.59025 0.56301 0.56634 0.5808 0.577 0.6528 0.61637 0.5036
3751.909 0.421 0.426 0.441 0.292 0.331 0.5372 0.6311 0.64215 0.5847 0.4767
3771.199 0.59919 0.7147 0.5376 0.408 0.359 0.351 0.46 0.56665 0.57325 0.429
3790.489 0.366 0.4705 0.54695 0.556227 0.57302 0.6608 0.6751 0.61824 0.57465 0.434
3809.779 0.31 0.465 0.558717 0.4946 0.377 0.405 0.60746 0.63966 0.551818 0.5054
3829.069 0.57289 0.5046 0.383 0.4642 0.5268 0.550078 0.421 0.261 0.316 0.4917
3848.359 0.61275 0.6854 0.7123 0.62113 0.5278 0.58414 0.57907 0.408 0.5018 0.62975
3867.649 0.6537 0.6722 0.5398 0.60285 0.6721 0.4666 0.5309 0.60926 0.522 0.5293
3886.939 0.426 0.44 0.5271 0.447 0.392 0.4624 0.405 0.361 0.57852 0.6662
3906.229 0.5185 0.537 0.5349 0.5041 0.62682 0.56431 0.4631 0.473 0.556623 0.58348
3925.519 0.559473 0.60831 0.57956 0.59157 0.7637 0.8948 0.8779 0.8914 0.8002 0.5103
3944.809 0.447 0.436 0.449 0.482 0.317 0.408 0.4723 0.438 0.361 0.301
3964.099 0.419 0.436 0.5825 0.6661 0.4956 0.333 0.349 0.439 0.63218 0.61275
3983.389 0.448 0.424 0.488 0.63438 0.5174 0.449 0.6047 0.554099 0.57653 0.8454
##END=
