##TITLE=Tris(3,6-dioxaheptyl)amine
##JCAMP-DX=4.24
##DATA TYPE=INFRARED SPECTRUM
##ORIGIN=EPA-IR VAPOR PHASE LIBRARY
##OWNER=SRD/NIST
Collection (C) 2018 copyright by the U.S. Secretary of Commerce
on behalf of the United States of America. All rights reserved.
##CAS REGISTRY NO=70384-51-9
##MOLFORM=C 15 H 33 N O 6
##$NIST SOURCE=MSDC-IR
##STATE=gas
##XUNITS=1/CM
##YUNITS=ABSORBANCE
##XFACTOR=1.
##YFACTOR=0.001
##DELTAX=1.92934
##FIRSTX=549.9
##LASTX=3999.5
##FIRSTY=9.08
##MAXX=3999.53
##MINX=549.863
##MAXY=0.37498
##MINY=0
##NPOINTS=1789
##XYDATA=(X++(Y..Y))
549.863 9.08 8.9 8.71 8.59 8.56 8.45 8.23 7.98 7.7 7.63
569.156 7.58 7.39 7.25 6.92 6.62 6.42 6.2 6.11 5.85 5.55
588.450 5.37 5.21 4.99 4.7158 4.4131 4.3075 4.2823 4.0616 3.8739 3.713
607.743 3.525 3.303 3.129 2.974 2.81 2.64 2.53 2.42 2.41 2.41
627.037 2.28 2.22 2.04 1.89 1.87 1.86 1.77 1.69 1.69 1.63
646.330 1.59 1.6 1.59 1.47 1.35 1.39 1.44 1.36 1.3 1.36
665.624 1.37 1.31 1.32 1.34 1.3 1.31 1.36 1.39 1.33 1.31
684.917 1.39 1.37 1.3 1.35 1.44 1.42 1.46 1.57 1.59 1.61
704.210 1.66 1.61 1.53 1.64 1.77 1.81 1.85 1.99 2.11 2.19
723.504 2.29 2.35 2.43 2.54 2.69 2.79 2.85 2.883 2.913 2.958
742.797 3.026 3.08 3.162 3.309 3.434 3.58 3.754 3.8826 3.9963 4.1706
762.091 4.3603 4.5245 4.6449 4.7454 4.8293 4.9 5.05 5.21 5.35 5.48
781.384 5.53 5.62 5.77 5.93 6.11 6.32 6.53 6.66 6.78 7.01
800.678 7.25 7.51 7.85 8.15 8.45 8.81 9.21 9.69 10.17 10.67
819.971 11.31 11.99 12.64 13.3 13.95 14.65 15.33 16.01 16.72 17.41
839.264 18.04 18.62 19.07 19.37 19.51 19.55 19.36 18.93 18.41 17.79
858.558 17.13 16.49 15.92 15.43 15.01 14.66 14.36 14.18 14.1 14.07
877.851 14.06 14.08 14.23 14.4 14.57 14.85 15.15 15.53 15.92 16.36
897.145 16.9 17.44 18.05 18.7 19.4 20.13 20.83 21.57 22.36 23.16
916.438 23.94 24.74 25.55 26.35 27.16 27.9 28.56 29.2 29.75 30.16
935.732 30.47 30.7 30.89 31.1 31.25 31.39 31.55 31.78 32.04 32.31
955.025 32.69 33.15 33.65 34.14 34.62 35.14 35.66 36.2 36.72 37.23
974.318 37.77 38.29 38.79 39.25 39.62 39.9 40.04 39.98 39.83 39.63
993.612 39.42 39.26 39.18 39.29 39.56 40.01 40.73 41.71 42.92 44.35
1012.905 46.03 47.87 49.75 51.64 53.45 55.19 56.82 58.21 59.33 60.17
1032.199 60.81 61.29 61.73 62.33 63.15 64.3 65.88 67.87 70.32 73.28
1051.492 76.74 80.47 84.53 88.87 93.31 97.84 102.42 107.03 111.56 115.96
1070.786 120.24 124.44 128.64 132.9 137.38 142.3 147.81 154.04 161.24 169.31
1090.079 178.27 188.22 198.96 210.62 223.2 236.59 250.95 266.26 282.48 299.34
1109.372 316.25 332.69 347.64 360.18 369.45 374.49 374.98 371.02 363.01 351.84
1128.666 338.28 323.29 307.62 291.68 275.81 260.07 244.35 228.52 212.62 196.96
1147.959 181.77 167.32 153.98 141.82 130.88 121.19 112.73 105.3 98.75 93.12
1167.253 88.38 84.41 81.15 78.49 76.36 74.77 73.62 72.84 72.42 72.31
1186.546 72.45 72.89 73.58 74.38 75.14 75.65 75.57 74.6 72.49 69.31
1205.840 65.31 60.75 56.12 51.74 47.8 44.37 41.55 39.24 37.4 36.06
1225.133 35.05 34.36 34 33.94 34.13 34.51 35.07 35.73 36.49 37.26
1244.426 38 38.62 39.12 39.45 39.57 39.51 39.34 39.08 38.73 38.4
1263.720 38.22 38.07 37.93 37.84 37.83 37.88 38.03 38.22 38.44 38.76
1283.013 39.04 39.24 39.44 39.6 39.7 39.65 39.5 39.27 38.86 38.34
1302.307 37.74 37.16 36.57 35.98 35.51 35.15 35 35.01 35.18 35.54
1321.600 36 36.62 37.26 37.9 38.46 38.96 39.52 40.08 40.84 42
1340.894 43.51 45.45 47.77 50.35 52.96 55.21 56.68 57.12 56.42 54.69
1360.187 52.2 49.28 46.19 42.97 39.71 36.64 33.79 31.19 28.9 26.9
1379.480 25.14 23.64 22.32 21.14 20.1 19.13 18.31 17.51 16.73 16.01
1398.774 15.34 14.79 14.34 13.89 13.5 13.26 13.12 13 12.93 12.94
1418.067 13.03 13.26 13.62 14.1 14.71 15.46 16.41 17.5 18.71 20.09
1437.361 21.73 23.55 25.59 27.83 30.28 32.93 35.76 38.58 41.21 43.3
1456.654 44.69 45.41 45.39 44.72 43.55 41.98 40.1 38.01 35.67 33.02
1475.948 30.41 27.85 25.35 23 20.82 18.84 17.06 15.44 13.97 12.7
1495.241 11.61 10.69 9.9 9.2 8.62 8.11 7.66 7.32 6.99 6.67
1514.534 6.43 6.22 6 5.78 5.58 5.45 5.29 5.14 5.04 4.93
1533.828 4.8193 4.7559 4.6291 4.4604 4.3932 4.3298 4.2808 4.2092 4.0948 4.029
1553.121 3.9933 3.92741 3.8244 3.714 3.693 3.709 3.667 3.632 3.602 3.531
1572.415 3.477 3.395 3.334 3.332 3.31 3.286 3.227 3.2 3.197 3.129
1591.708 3.067 3.087 3.093 3.055 3.035 2.968 2.898 2.904 2.931 2.917
1611.002 2.89 2.894 2.868 2.76 2.72 2.73 2.74 2.72 2.77 2.78
1630.295 2.73 2.7 2.66 2.65 2.68 2.71 2.71 2.71 2.68 2.7
1649.588 2.68 2.63 2.65 2.63 2.64 2.67 2.69 2.7 2.65 2.59
1668.882 2.54 2.48 2.5 2.55 2.53 2.49 2.46 2.39 2.29 2.33
1688.175 2.38 2.33 2.32 2.31 2.28 2.25 2.2 2.19 2.2 2.21
1707.469 2.23 2.23 2.2 2.13 2.09 2.06 2.06 2.07 2.06 2.01
1726.762 1.96 1.95 1.94 1.91 1.85 1.87 1.91 1.9 1.89 1.9
1746.056 1.87 1.83 1.83 1.82 1.81 1.81 1.8 1.8 1.75 1.76
1765.349 1.76 1.72 1.69 1.65 1.66 1.69 1.7 1.73 1.72 1.66
1784.642 1.62 1.65 1.65 1.59 1.57 1.61 1.66 1.7 1.7 1.71
1803.936 1.71 1.68 1.7 1.68 1.61 1.64 1.73 1.77 1.78 1.77
1823.229 1.77 1.78 1.79 1.77 1.78 1.8 1.78 1.79 1.79 1.82
1842.523 1.83 1.82 1.86 1.9 1.92 1.92 1.9 1.92 1.93 1.94
1861.816 1.96 1.99 2.04 2.07 2.08 2.08 2.14 2.21 2.23 2.24
1881.110 2.28 2.29 2.29 2.35 2.42 2.47 2.55 2.6 2.65 2.74
1900.403 2.79 2.85 2.951 3.048 3.126 3.21 3.281 3.381 3.528 3.595
1919.696 3.639 3.732 3.8175 3.86737 3.95115 4.0688 4.1557 4.2103 4.2811 4.3711
1938.990 4.4563 4.5634 4.631 4.6681 4.7149 4.7502 4.8152 4.87 4.88 4.9
1958.283 4.95 5 5.02 5.03 5.04 5.08 5.11 5.1 5.07 5.08
1977.577 5.07 5.07 5.04 5 4.97 4.95 4.95 4.89 4.8425 4.7606
1996.870 4.6571 4.6107 4.5727 4.542 4.5148 4.4306 4.3992 4.397 4.3804 4.3578
2016.164 4.3319 4.3441 4.3665 4.4017 4.3848 4.3547 4.3518 4.3683 4.368 4.3646
2035.457 4.3889 4.381 4.3997 4.4425 4.4308 4.3799 4.3802 4.4181 4.4191 4.4247
2054.750 4.4312 4.4406 4.4288 4.4213 4.4308 4.4382 4.4636 4.4875 4.5081 4.5196
2074.044 4.5592 4.5782 4.5806 4.614 4.6206 4.6113 4.6213 4.6303 4.6015 4.5631
2093.337 4.5431 4.5167 4.4659 4.4021 4.3815 4.3719 4.3251 4.2762 4.2291 4.2274
2112.631 4.2086 4.1907 4.2168 4.2008 4.1482 4.1081 4.0844 4.0467 3.9959 3.9857
2131.924 3.9706 3.93347 3.88614 3.8352 3.7791 3.737 3.717 3.689 3.608 3.527
2151.218 3.479 3.413 3.337 3.291 3.243 3.169 3.135 3.077 3.039 3.022
2170.511 2.979 2.927 2.85 2.82 2.81 2.77 2.73 2.66 2.65 2.65
2189.804 2.62 2.59 2.57 2.56 2.58 2.58 2.55 2.53 2.51 2.52
2209.098 2.54 2.53 2.51 2.52 2.54 2.52 2.5 2.54 2.54 2.53
2228.391 2.54 2.53 2.56 2.56 2.55 2.57 2.54 2.52 2.53 2.54
2247.685 2.51 2.51 2.52 2.5 2.48 2.45 2.45 2.46 2.45 2.46
2266.978 2.42 2.39 2.36 2.33 2.31 2.33 2.32 2.28 2.21 2.2
2286.272 2.22 2.2 2.2 2.2 2.18 2.18 2.19 2.18 2.17 2.16
2305.565 2.16 2.18 2.13 2.1 2.12 2.13 2.12 2.13 2.11 2.08
2324.858 2.06 2.07 2.07 2.08 2.09 2.06 2.07 2.11 2.12 2.11
2344.152 2.12 2.11 2.12 2.08 2.04 2.01 2 1.99 1.98 2
2363.445 2.02 2.02 2.04 2.06 2.07 2.09 2.07 2.08 2.11 2.11
2382.739 2.12 2.12 2.11 2.13 2.17 2.2 2.25 2.24 2.21 2.19
2402.032 2.19 2.17 2.15 2.15 2.11 2.1 2.1 2.08 2.04 2.01
2421.326 2.02 1.99 1.96 1.99 1.99 1.98 1.98 2.01 2 1.97
2440.619 1.97 1.99 1.98 1.98 1.95 1.91 1.92 1.94 1.98 1.98
2459.912 1.97 1.96 1.99 2.06 2.05 2.02 2.04 2.06 2.06 2.05
2479.206 2.07 2.07 2.07 2.11 2.18 2.21 2.22 2.22 2.19 2.2
2498.499 2.23 2.24 2.27 2.32 2.32 2.33 2.36 2.36 2.38 2.42
2517.793 2.45 2.5 2.52 2.47 2.49 2.57 2.62 2.66 2.68 2.69
2537.086 2.68 2.69 2.69 2.74 2.8 2.81 2.82 2.86 2.887 2.928
2556.380 3.009 3.053 3.073 3.112 3.159 3.226 3.281 3.3 3.356 3.438
2575.673 3.508 3.585 3.669 3.664 3.717 3.8175 3.90331 4.0018 4.0533 4.1159
2594.966 4.1719 4.2369 4.327 4.3859 4.3927 4.4875 4.5866 4.5765 4.5796 4.6682
2614.260 4.7059 4.7176 4.8374 4.94 4.97 5.02 5.05 5.07 5.13 5.25
2633.553 5.39 5.49 5.5 5.55 5.67 5.77 5.84 5.98 6.08 6.14
2652.847 6.3 6.41 6.5 6.66 6.83 7.02 7.23 7.44 7.65 7.9
2672.140 8.16 8.38 8.64 8.98 9.35 9.71 10.06 10.4 10.83 11.26
2691.434 11.71 12.15 12.64 13.18 13.63 14.11 14.7 15.29 15.76 16.26
2710.727 16.81 17.32 17.77 18.15 18.48 18.69 18.92 19.15 19.34 19.51
2730.020 19.65 19.74 19.78 19.89 20.16 20.35 20.47 20.68 20.97 21.31
2749.314 21.71 22.12 22.58 23.2 23.77 24.3 25.03 25.83 26.57 27.38
2768.607 28.33 29.36 30.44 31.56 32.83 34.25 35.76 37.43 39.24 41.14
2787.901 43.32 45.76 48.3 51.03 53.96 57.18 60.53 64.1 67.94 72.02
2807.194 76.63 81.51 86.76 92.58 98.8 105.25 111.88 118.37 124.18 128.95
2826.488 132.46 134.81 136.21 136.92 137.31 137.83 138.83 140.61 143.24 146.75
2845.781 151.33 156.9 163.18 169.8 176.48 183.07 189.26 194.75 199.52 203.52
2865.074 206.65 208.89 210.48 211.75 212.71 213.34 213.75 213.99 213.87 213.2
2884.368 211.91 209.92 207.34 204.36 201.15 197.93 194.79 191.84 189.09 186.37
2903.661 183.91 181.75 179.7 177.74 175.81 174.18 173.14 172.43 172.17 172.43
2922.955 173.03 173.89 174.8 175.72 176.44 176.71 176.29 175.13 173.58 171.42
2942.248 168.48 165.17 161.67 157.82 153.68 149.42 145.02 140.28 135.12 129.53
2961.542 123.41 116.76 109.86 103.03 96.38 90.31 85.22 81.1 77.91 75.56
2980.835 74.02 73.2 72.84 72.58 71.95 70.46 67.76 63.83 58.88 53.4
3000.128 47.81 42.56 37.99 34.12 30.79 27.89 25.43 23.28 21.41 19.77
3019.422 18.4 17.25 16.13 15.17 14.4 13.69 12.91 12.19 11.67 11.29
3038.715 10.87 10.49 10.13 9.72 9.32 8.96 8.66 8.4 8.23 8
3058.009 7.75 7.51 7.24 7.1 6.87 6.5 6.28 6.15 5.96 5.74
3077.302 5.48 5.31 5.23 5.03 4.8375 4.7704 4.5885 4.3573 4.2058 4.0761
3096.596 3.93795 3.709 3.512 3.464 3.427 3.304 3.166 3.021 2.906 2.7
3115.889 2.56 2.51 2.43 2.41 2.23 2.03 1.97 1.87 1.82 1.8
3135.182 1.76 1.79 1.69 1.55 1.55 1.47 1.32 1.23 1.2 1.15
3154.476 1.14 1.26 1.13 1.01 1.01 0.95 1.02 0.91 0.86 0.91
3173.769 0.8 0.77 0.77 0.78 0.76 0.71 0.7 0.68 0.62 0.56
3193.063 0.46 0.48 0.53 0.56 0.55 0.55 0.6 0.5 0.47 0.48
3212.356 0.46 0.37 0.34 0.44 0.47 0.43 0.28 0.12 0.21 0.24
3231.650 0.11 0.13 0.15 0.17 0.25 0.27 0.23 0.2 0.31 0.31
3250.943 0.27 0.26 0.21 0.17 0.16 0.1 0.09 0.19 0.16 0.15
3270.236 0.14 0.17 0.24 0.21 0.19 0.12 0.07 0.07 0.07 0.05
3289.530 0.01 0 0.04 0.06 0.1 0.1 0.11 0.24 0.17 0.14
3308.823 0.23 0.21 0.24 0.22 0.11 0.13 0.24 0.23 0.2 0.12
3328.117 0.1 0.2 0.27 0.27 0.23 0.24 0.21 0.23 0.23 0.11
3347.410 0.01 0.05 0.05 0.06 0.12 0.1 0.16 0.21 0.2 0.26
3366.704 0.27 0.19 0.13 0.22 0.31 0.33 0.27 0.21 0.17 0.14
3385.997 0.13 0.1 0.16 0.26 0.33 0.3 0.29 0.35 0.28 0.28
3405.290 0.42 0.38 0.34 0.36 0.26 0.3 0.31 0.28 0.3 0.31
3424.584 0.32 0.29 0.31 0.33 0.41 0.43 0.4 0.32 0.21 0.25
3443.877 0.29 0.23 0.26 0.38 0.39 0.44 0.5 0.49 0.53 0.46
3463.171 0.4 0.41 0.27 0.22 0.23 0.19 0.23 0.3 0.27 0.26
3482.464 0.26 0.27 0.28 0.22 0.21 0.22 0.29 0.34 0.21 0.14
3501.758 0.27 0.25 0.23 0.31 0.31 0.33 0.32 0.27 0.29 0.26
3521.051 0.2 0.25 0.36 0.27 0.18 0.24 0.25 0.28 0.36 0.35
3540.344 0.21 0.13 0.26 0.34 0.32 0.27 0.23 0.28 0.31 0.35
3559.638 0.39 0.28 0.16 0.22 0.28 0.34 0.4 0.32 0.3 0.26
3578.931 0.23 0.29 0.24 0.17 0.26 0.33 0.38 0.41 0.35 0.25
3598.225 0.25 0.33 0.39 0.36 0.34 0.33 0.34 0.41 0.49 0.5
3617.518 0.54 0.53 0.43 0.49 0.52 0.48 0.48 0.46 0.42 0.39
3636.812 0.49 0.62 0.6 0.56 0.6 0.59 0.56 0.52 0.54 0.57
3656.105 0.57 0.56 0.55 0.59 0.61 0.66 0.67 0.66 0.66 0.67
3675.398 0.74 0.78 0.72 0.73 0.78 0.76 0.79 0.75 0.77 0.76
3694.692 0.81 0.89 0.94 1.03 0.91 0.83 1.04 1.14 1.05 0.99
3713.985 0.98 0.98 0.93 1 1.09 1.03 1.03 1.02 0.97 1
3733.279 1.02 1.04 1.06 1.01 1.01 0.96 0.96 0.97 0.93 0.98
3752.572 0.97 0.98 1.06 1.03 1.03 1.06 1.11 1.07 1.1 1.15
3771.866 1.14 1.2 1.2 1.14 1.03 1.04 1.1 1.13 1.12 1.08
3791.159 1.04 1.05 1.12 1.1 1.05 0.99 1.05 1.13 1.14 1.14
3810.452 1.19 1.18 1.12 1.16 1.26 1.19 1.14 1.26 1.28 1.18
3829.746 1.19 1.21 1.26 1.36 1.37 1.39 1.43 1.49 1.48 1.4
3849.039 1.36 1.39 1.35 1.4 1.51 1.55 1.56 1.55 1.51 1.47
3868.333 1.47 1.51 1.6 1.58 1.56 1.59 1.66 1.71 1.65 1.68
3887.626 1.76 1.79 1.72 1.67 1.73 1.79 1.82 1.85 1.81 1.83
3906.920 1.9 1.92 2.04 2.11 2.08 2.12 2.16 2.08 2.01 2.06
3926.213 2.17 2.22 2.25 2.21 2.18 2.29 2.36 2.41 2.42 2.35
3945.506 2.37 2.47 2.48 2.45 2.5 2.52 2.52 2.58 2.64 2.73
3964.800 2.77 2.79 2.8 2.75 2.74 2.79 2.935 2.994 2.868 2.83
3984.093 2.83 2.78 2.83 2.876 2.906 2.996 2.992 2.999 3.009
##END=
