##TITLE=3,5-Dichlorobenzenesulphonyl chloride
##JCAMP-DX=4.24
##DATA TYPE=INFRARED SPECTRUM
##ORIGIN=EPA-IR VAPOR PHASE LIBRARY
##OWNER=SRD/NIST
Collection (C) 2018 copyright by the U.S. Secretary of Commerce
on behalf of the United States of America. All rights reserved.
##CAS REGISTRY NO=705-21-5
##MOLFORM=C 6 H 3 Cl 3 O 2 S
##$NIST SOURCE=MSDC-IR
##STATE=gas
##XUNITS=1/CM
##YUNITS=ABSORBANCE
##XFACTOR=1.
##YFACTOR=0.001
##DELTAX=1.92898
##FIRSTX=549.8
##LASTX=4000.7
##FIRSTY=218.814
##MAXX=4000.7
##MINX=549.759
##MAXY=0.973564
##MINY=0
##NPOINTS=1790
##XYDATA=(X++(Y..Y))
549.759 218.814 343.064 524.094 667.454 744.424 783.234 728.794 643.174 471.754 282.164
569.049 165.534 114.814 99.474 98.014 102.724 110.424 119.904 131.984 148.894 172.664
588.339 206.774 260.074 344.464 465.904 618.534 774.104 898.744 973.564 970.174 871.394
607.628 717.744 545.244 378.974 248.364 162.074 112.794 86.894 73.424 64.434 57.044
626.918 50.354 42.954 36.024 30.164 25.694 22.574 20.324 19.354 19.394 20.524
646.208 22.604 26.994 35.954 53.294 82.624 124.994 173.894 221.174 273.764 351.294
665.498 371.214 289.174 227.304 187.224 137.024 88.814 53.304 33.114 22.724 17.534
684.787 14.034 11.884 10.594 9.814 9.064 8.004 7.734 7.584 7.304 7.294
704.077 7.204 7.064 7.074 7.094 6.834 6.764 7.184 7.534 7.664 7.664
723.367 7.924 8.574 9.134 9.904 10.634 11.254 11.814 12.134 12.694 13.274
742.657 13.444 13.164 12.704 12.374 11.974 11.394 11.004 10.534 10.194 9.894
761.947 9.494 9.114 8.894 9.174 9.344 9.834 10.784 12.034 13.544 15.774
781.236 19.024 23.744 30.424 39.864 53.354 72.324 98.474 132.794 175.894 226.164
800.526 279.004 328.954 369.584 394.704 399.864 381.874 341.834 285.854 225.714 173.974
819.816 135.114 107.794 89.654 77.344 68.894 63.184 58.494 54.474 50.774 48.004
839.106 45.664 43.154 41.444 40.194 39.394 39.304 40.364 42.554 46.084 52.094
858.395 61.574 75.034 89.734 102.934 115.384 126.994 136.204 136.044 115.884 89.684
877.685 72.054 56.534 41.764 30.424 23.254 19.934 18.344 17.274 15.894 14.254
896.975 13.114 11.804 10.414 9.404 8.454 7.184 6.104 5.734 5.114 4.514
916.265 4.104 3.854 3.624 3.134 3.374 3.784 3.614 3.424 3.254 3.244
935.555 3.484 3.634 3.664 3.894 3.964 3.684 3.454 3.354 3.214 3.194
954.844 3.304 3.404 3.504 3.674 3.554 3.624 4.014 4.364 4.444 4.504
974.134 4.604 4.394 4.154 4.424 4.414 4.014 4.144 4.154 3.984 3.774
993.424 3.854 3.754 3.384 3.404 3.334 3.164 3.284 3.514 3.894 4.184
1012.714 4.164 3.854 3.614 3.814 3.844 3.904 4.204 3.924 3.634 3.884
1032.003 4.284 4.854 5.124 5.604 5.784 6.014 6.734 7.014 7.774 8.794
1051.293 9.584 10.324 10.624 10.854 11.824 12.164 12.404 13.404 14.794 16.624
1070.583 18.324 20.624 23.774 28.664 35.264 43.344 53.484 64.514 75.334 85.304
1089.873 93.714 100.594 106.764 112.094 114.994 115.584 112.744 108.104 102.574 92.114
1109.163 78.684 67.564 59.714 54.024 50.244 48.104 48.254 50.344 54.064 60.724
1128.452 70.474 83.194 98.294 116.004 136.534 155.364 170.504 180.904 183.514 177.984
1147.742 163.524 143.384 121.834 102.664 90.744 86.124 86.714 91.584 97.684 103.864
1167.032 112.734 127.014 149.504 184.264 235.954 308.854 406.004 525.004 655.024 777.304
1186.322 871.884 924.924 917.954 848.764 740.774 618.204 498.034 402.324 340.784 308.334
1205.611 292.374 277.834 256.314 227.214 194.174 159.264 127.354 101.144 80.664 67.284
1224.901 59.394 54.834 51.624 48.444 45.514 42.014 38.844 35.094 30.544 26.934
1244.191 23.904 20.714 18.744 18.094 17.384 17.444 18.144 18.304 18.584 19.064
1263.481 19.674 20.344 20.634 21.574 23.614 26.474 30.864 36.854 43.464 49.764
1282.771 54.184 55.424 53.624 49.394 42.704 34.174 25.454 18.254 13.474 10.594
1302.060 8.834 7.924 7.584 7.284 6.924 6.844 6.824 6.614 6.414 6.254
1321.350 6.254 6.434 6.544 6.664 6.864 7.034 7.244 7.474 7.634 7.804
1340.640 8.064 8.434 9.014 9.864 10.864 11.904 13.204 14.924 17.074 19.714
1359.930 22.924 26.574 31.264 37.394 45.084 54.984 68.034 84.754 105.044 128.554
1379.219 155.064 183.714 211.464 232.924 248.624 267.004 294.424 334.014 391.904 472.424
1398.509 573.624 683.684 776.444 833.414 854.544 846.034 800.934 717.974 621.454 537.504
1417.799 475.444 433.834 408.444 394.074 384.634 372.734 352.364 323.814 288.994 246.304
1437.089 196.334 148.054 107.704 77.514 56.724 42.864 33.604 27.254 22.624 19.124
1456.378 16.524 14.534 12.954 11.664 10.654 9.884 9.164 8.564 8.194 7.904
1475.668 7.614 7.314 7.144 6.994 6.764 6.574 6.484 6.404 6.344 6.404
1494.958 6.444 6.244 6.264 6.414 6.524 6.634 6.914 7.354 7.734 8.214
1514.248 8.934 9.924 10.774 11.574 12.624 13.714 14.794 15.884 17.304 18.824
1533.538 20.624 23.234 26.584 30.804 36.194 42.804 50.574 59.794 71.004 84.764
1552.827 101.144 121.714 147.244 179.484 219.854 266.734 318.874 371.624 416.644 443.674
1572.117 442.654 411.114 353.004 281.144 210.334 150.364 106.244 75.634 55.784 43.514
1591.407 35.934 30.974 27.584 24.994 22.974 21.554 20.594 19.924 19.514 19.194
1610.697 18.744 18.344 17.914 17.154 16.394 15.474 14.254 13.064 11.814 10.404
1629.986 9.264 8.264 7.304 6.504 5.904 5.384 5.024 4.734 4.474 4.334
1649.276 4.254 4.284 4.224 4.214 4.254 4.214 4.114 4.054 4.034 3.874
1668.566 3.774 3.714 3.674 3.684 3.624 3.484 3.334 3.294 3.284 3.354
1687.856 3.334 3.324 3.404 3.274 3.234 3.244 3.064 2.984 2.934 2.874
1707.146 2.804 2.574 2.584 2.784 2.824 2.834 3.034 3.334 3.594 3.874
1726.435 4.334 4.974 5.484 6.204 7.254 8.404 9.704 11.234 13.044 15.034
1745.725 17.194 19.444 21.664 23.534 24.934 25.954 26.494 26.414 25.654 24.594
1765.015 23.354 22.204 21.264 20.424 19.754 19.164 18.444 17.454 16.034 14.334
1784.305 12.544 10.764 9.044 7.584 6.534 5.694 5.054 4.554 4.184 3.834
1803.594 3.464 3.254 2.944 2.534 2.184 1.944 1.794 1.604 1.484 1.3508
1822.884 1.2932 1.2199 1.122 1.1076 1.1492 1.1703 1.2553 1.2883 1.2214 1.1881
1842.174 1.2221 1.258 1.2738 1.3191 1.3668 1.464 1.474 1.544 1.594 1.584
1861.464 1.674 1.744 1.734 1.614 1.574 1.644 1.664 1.684 1.674 1.664
1880.754 1.794 1.844 1.854 1.984 2.184 2.374 2.524 2.734 2.944 3.104
1900.043 3.184 3.244 3.354 3.444 3.484 3.484 3.404 3.284 3.144 3.074
1919.333 3.004 2.864 2.804 2.784 2.774 2.794 2.804 2.834 2.854 2.844
1938.623 2.884 2.974 3.104 3.114 3.064 3.064 3.114 3.054 2.864 2.764
1957.913 2.664 2.534 2.344 2.204 2.184 2.104 1.974 1.894 1.864 1.994
1977.202 2.054 2.034 2.104 2.124 2.154 2.224 2.184 2.054 2.044 1.994
1996.492 1.874 1.814 1.794 1.774 1.674 1.484 1.4203 1.404 1.3072 1.2034
2015.782 1.0571 0.9775 0.9707 1.0096 1.0204 0.8721 0.8299 0.9175 0.8873 0.7797
2035.072 0.7486 0.8019 0.8078 0.7883 0.7513 0.7598 0.6627 0.5939 0.581 0.4705
2054.362 0.48809 0.6111 0.63 0.5292 0.5307 0.586 0.5878 0.541 0.5561 0.6053
2073.651 0.6108 0.6213 0.6281 0.668 0.6968 0.7869 0.7936 0.7175 0.7354 0.8004
2092.941 0.8526 0.7564 0.639 0.6645 0.6942 0.6559 0.5806 0.5612 0.5242 0.428372
2112.231 0.50833 0.50725 0.45951 0.44452 0.315 0.318 0.46807 0.5202 0.46721 0.4503
2131.521 0.48819 0.5402 0.5911 0.5772 0.43461 0.3598 0.41546 0.43739 0.47692 0.45689
2150.810 0.45806 0.43932 0.3838 0.427076 0.44166 0.430748 0.48589 0.6141 0.7445 0.7748
2170.100 0.8669 0.9852 0.9968 1.1136 1.1857 1.1672 1.302 1.4115 1.464 1.614
2189.390 1.724 1.854 2.034 2.024 2.034 2.114 2.094 1.954 1.914 2.044
2208.680 1.954 1.714 1.694 1.664 1.524 1.534 1.634 1.584 1.3393 1.3333
2227.970 1.3745 1.236 1.1415 1.125 1.0809 1.0193 1.0065 0.9043 0.8239 0.8446
2247.259 0.8326 0.8318 0.8827 0.9775 0.993 0.9089 1.0126 1.1522 1.1369 1.2137
2266.549 1.464 1.544 1.554 1.664 1.784 1.934 2.074 2.114 2.104 2.084
2285.839 1.924 1.734 1.714 1.714 1.584 1.644 1.644 1.484 1.474 1.544
2305.129 1.554 1.604 1.584 1.654 1.764 1.834 1.964 2.064 2.194 2.364
2324.418 2.494 2.574 2.644 2.644 2.574 2.584 2.604 2.524 2.404 2.274
2343.708 2.174 2.274 2.414 2.404 2.444 2.594 2.714 2.894 3.174 3.484
2362.998 3.834 4.144 4.364 4.684 5.154 5.544 5.714 5.774 5.804 5.774
2382.288 5.734 5.484 5.054 4.524 4.004 3.424 2.974 2.734 2.384 2.054
2401.578 1.894 1.784 1.634 1.474 1.424 1.4189 1.444 1.4136 1.311 1.3464
2420.867 1.3401 1.3098 1.2497 1.1886 1.2135 1.23 1.1311 1.0813 1.028 0.9548
2440.157 0.9814 0.9996 0.9712 1.0558 1.2647 1.3732 1.554 1.644 1.864 2.204
2459.447 2.224 2.224 2.144 1.964 1.774 1.464 1.277 1.3018 1.2543 1.2106
2478.737 1.1149 1.0335 1.0789 1.1376 1.2743 1.3244 1.4067 1.444 1.464 1.534
2498.026 1.614 1.804 1.894 2.004 2.384 2.694 2.884 3.054 3.384 3.724
2517.316 3.854 3.854 3.774 3.754 3.604 3.284 3.014 2.804 2.534 2.244
2536.606 2.214 2.084 2.134 2.354 2.394 2.514 2.714 2.874 3.024 3.244
2555.896 3.334 3.414 3.594 3.714 3.894 4.084 4.294 4.414 4.524 4.714
2575.186 4.774 4.934 5.124 5.184 5.254 5.154 4.934 4.704 4.324 3.734
2594.475 3.194 2.884 2.504 2.344 2.184 2.044 2.104 1.994 1.944 1.974
2613.765 1.934 1.824 1.704 1.664 1.754 1.724 1.684 1.774 1.714 1.704
2633.055 1.704 1.784 1.794 1.804 2.054 2.134 2.104 1.994 1.874 1.914
2652.345 1.864 1.764 1.844 1.854 1.674 1.614 1.514 1.3612 1.3043 1.2845
2671.634 1.2882 1.4006 1.534 1.484 1.4219 1.504 1.504 1.564 1.674 1.814
2690.924 1.974 1.994 2.244 2.514 2.524 2.664 2.994 3.134 3.044 3.044
2710.214 3.054 3.064 2.984 2.674 2.374 2.134 1.904 1.734 1.504 1.3196
2729.504 1.1282 0.8928 0.8094 0.7398 0.7303 0.9124 1.2513 1.2833 1.1852 1.2427
2748.794 1.2626 1.3144 1.4141 1.464 1.564 1.604 1.504 1.654 1.854 1.794
2768.083 1.664 1.584 1.574 1.584 1.694 1.654 1.644 1.864 2.044 2.204
2787.373 2.534 2.784 3.034 3.324 3.444 3.604 3.694 3.564 3.504 3.434
2806.663 3.274 3.224 3.044 2.904 2.934 2.934 3.004 3.004 3.014 3.044
2825.953 3.424 3.824 3.944 4.124 4.204 4.514 4.734 4.644 4.644 4.794
2845.242 4.644 4.524 4.454 4.144 3.774 3.284 2.914 2.524 1.984 1.664
2864.532 1.584 1.3836 1.0614 0.9704 0.834 0.6251 0.3875 0.49847 0.7283 0.53
2883.822 0.46269 0.5505 0.428534 0.4539 0.46865 0.43429 0.6248 0.6624 0.6072 0.4985
2903.112 0.5467 0.5146 0.426257 0.5468 0.7508 0.6743 0.3937 0.3983 0.5395 0.6042
2922.401 0.51837 0.5958 0.7678 0.7399 0.7274 0.7429 0.818 0.9581 1.0252 1.0577
2941.691 1.2071 1.3827 1.454 1.564 1.684 1.734 1.644 1.884 2.174 2.254
2960.981 2.484 2.614 2.644 2.684 2.764 2.784 2.704 2.804 3.104 2.994
2980.271 2.674 2.494 2.394 2.274 2.084 1.984 1.694 1.594 1.514 1.434
2999.561 1.524 1.444 1.2323 1.1012 1.0141 0.9082 0.8995 1.005 0.9844 0.9126
3018.850 0.94 0.7979 0.8786 0.9541 0.8278 0.8869 1.0423 1.048 1.0422 1.192
3038.140 1.2897 1.2586 1.215 1.3063 1.2781 1.3888 1.584 1.664 2.004 2.374
3057.430 2.584 3.064 3.984 5.034 6.124 7.484 9.694 12.634 16.154 20.904
3076.720 27.024 34.324 42.524 50.744 57.174 60.294 59.944 55.874 48.894 40.574
3096.009 30.874 22.024 15.984 12.484 10.784 9.844 9.424 9.134 8.654 8.184
3115.299 8.114 7.834 7.454 7.534 7.784 7.974 7.934 7.814 7.814 7.874
3134.589 7.904 7.734 7.614 7.404 6.944 6.354 5.644 5.044 4.524 3.864
3153.879 3.224 2.804 2.324 1.724 1.3498 1.2305 1.1637 1.2899 1.1446 0.8502
3173.169 0.849 0.7321 0.7698 0.8296 0.7123 0.7104 0.7523 0.8963 0.9233 0.8672
3192.458 0.7105 0.7486 0.8649 0.8395 0.9671 0.9786 1.0201 1.1608 1.2694 1.1621
3211.748 0.9641 0.912 0.893 0.8076 0.5731 0.6007 0.6165 0.6265 0.7084 0.7371
3231.038 0.6883 0.4113 0.45882 0.6142 0.5596 0.5327 0.3489 0.106 0.25 0.226
3250.328 0.253 0.3659 0.318 0.324 0.254 0.32 0.49173 0.5425 0.44471 0.3869
3269.617 0.45415 0.52351 0.51535 0.47644 0.5325 0.7339 0.5827 0.3612 0.45661 0.44394
3288.907 0.50716 0.48545 0.3877 0.43982 0.45205 0.44896 0.44136 0.47152 0.3429 0.071
3308.197 0.069 0.396 0.50204 0.4501 0.259 0.3748 0.44635 0.247 0.304 0.292
3327.487 0.3823 0.4435 0.5309 0.42079 0.3498 0.5618 0.585 0.5589 0.588 0.7052
3346.777 0.6119 0.5571 0.44986 0.213 0.262 0.41559 0.3838 0.41545 0.6962 0.6667
3366.066 0.5312 0.52376 0.49841 0.5623 0.6324 0.5867 0.649 0.7624 0.8092 0.6885
3385.356 0.85 0.8109 0.52211 0.6968 0.5795 0.45617 0.49497 0.46602 0.5586 0.6455
3404.646 0.7465 0.6497 0.47412 0.4066 0.50687 0.7063 0.6379 0.6417 0.6987 0.6387
3423.936 0.6349 0.694 0.7094 0.48239 0.51412 0.5298 0.403 0.3472 0.3653 0.587
3443.225 0.6213 0.7064 0.50689 0.319 0.4817 0.3978 0.3487 0.433923 0.433449 0.385
3462.515 0.428621 0.3785 0.3985 0.5335 0.5801 0.6198 0.48822 0.3833 0.49169 0.50384
3481.805 0.50425 0.44059 0.569 0.7235 0.46636 0.48012 0.7278 0.7511 0.7637 0.5798
3501.095 0.6524 0.7291 0.5515 0.7209 0.6063 0.48997 0.6507 0.6577 0.575 0.6295
3520.385 0.7513 0.9117 0.9052 0.7355 0.7612 0.7908 0.7924 0.523 0.322 0.251
3539.674 0.274 0.42048 0.159 0 0.276 0.565 0.6633 0.4055 0.302 0.424855
3558.964 0.5479 0.5496 0.50778 0.5865 0.6191 0.7766 0.542 0.233 0.246 0.31
3578.254 0.257 0.297 0.3764 0.3988 0.283 0.272 0.5869 0.6914 0.7527 0.7104
3597.544 0.5315 0.430471 0.45181 0.3717 0.3266 0.217 0.3648 0.50411 0.292 0.125
3616.833 0.194 0.3659 0.236 0.3592 0.48362 0.318 0.3982 0.5393 0.51094 0.51279
3636.123 0.6282 0.6306 0.5844 0.6743 0.7275 0.9013 1.0041 0.8712 0.8162 0.7018
3655.413 0.5556 0.5701 0.6369 0.50388 0.3618 0.49084 0.635 0.738 0.7218 0.633
3674.703 0.7266 0.5744 0.5515 0.6151 0.6473 0.7578 0.592 0.47877 0.6541 0.7946
3693.993 0.6422 0.5657 0.50042 0.4003 0.4035 0.391 0.48553 0.5489 0.5276 0.5919
3713.282 0.52031 0.3352 0.5684 0.7854 0.5871 0.45896 0.5539 0.5717 0.666 0.8028
3732.572 0.6488 0.47064 0.44385 0.429752 0.357 0.5654 0.6447 0.6295 0.9234 0.9801
3751.862 0.7237 0.6152 0.5686 0.430942 0.426107 0.51145 0.6139 0.6181 0.6977 0.7181
3771.152 0.45157 0.5503 0.7729 0.7659 0.657 0.537 0.41513 0.42281 0.5943 0.6857
3790.441 0.5377 0.44325 0.50602 0.46296 0.3503 0.147 0.215 0.6502 0.8386 0.7108
3809.731 0.47842 0.405 0.543 0.8564 0.8173 0.45159 0.43851 0.6098 0.7619 0.5869
3829.021 0.3266 0.45752 0.48941 0.44196 0.576 0.5736 0.7584 0.6333 0.43704 0.429935
3848.311 0.5343 0.6623 0.51828 0.5033 0.5307 0.51246 0.5885 0.628 0.5365 0.643
3867.601 0.9309 1.0437 1.0426 0.956 0.9032 1.1498 1.2867 1.2994 1.604 1.544
3886.890 1.444 1.874 2.024 1.924 1.744 1.554 1.534 1.574 1.514 1.3088
3906.180 1.2425 1.424 1.3067 0.9866 0.9897 0.9384 0.9085 1.0987 0.9253 0.6406
3925.470 0.6107 0.7975 0.9035 0.7819 0.7387 0.6562 0.6866 0.8919 1.2459 1.3784
3944.760 1.3682 1.3045 1.2081 1.085 0.7919 0.8919 1.1161 0.9004 0.972 1.1208
3964.049 0.87 0.9738 1.0172 0.8391 0.9325 0.907 0.7269 0.7445 0.7522 0.6373
3983.339 0.5964 0.7799 1.0155 0.8185 0.5749 0.48676 0.43901 0.5888 0.7225 0.613
##END=
