##TITLE=t-Butylacetyl chloride
##JCAMP-DX=4.24
##DATA TYPE=INFRARED SPECTRUM
##ORIGIN=EPA-IR VAPOR PHASE LIBRARY
##OWNER=SRD/NIST
Collection (C) 2018 copyright by the U.S. Secretary of Commerce
on behalf of the United States of America. All rights reserved.
##CAS REGISTRY NO=7065-46-5
##MOLFORM=C 6 H 11 Cl O
##$NIST SOURCE=MSDC-IR
##STATE=gas
##XUNITS=1/CM
##YUNITS=ABSORBANCE
##XFACTOR=1.
##YFACTOR=0.001
##DELTAX=1.92934
##FIRSTX=549.9
##LASTX=3999.5
##FIRSTY=25.78
##MAXX=3999.53
##MINX=549.863
##MAXY=0.25195
##MINY=0
##NPOINTS=1789
##XYDATA=(X++(Y..Y))
549.863 25.78 28.25 30.65 32.49 34.18 35.67 36.46 36.78 36.3 35.05
569.156 33.26 30.98 28.44 25.82 23.12 20.63 18.39 16.46 14.8 13.42
588.450 12.26 11.18 10.12 9.24 8.48 7.82 7.28 6.64 6.15 5.77
607.743 5.5 5.36 5.14 4.92 4.73 4.57 4.57 4.71 4.71 4.69
627.037 4.81 4.98 5.16 5.42 5.79 6.16 6.52 7 7.54 8.12
646.330 8.81 9.62 10.54 11.58 12.72 14 15.42 16.95 18.69 20.65
665.624 22.73 25.2 28 31.01 34.57 38.56 42.93 47.63 52.35 56.69
684.917 60.37 63.24 65.18 66.28 66.9 67.46 68.12 68.96 70.23 72.05
704.210 74.65 78 81.74 85.42 88.32 90.29 91.46 91.6 90.52 88.12
723.504 84.19 78.33 70.69 62.26 54.06 46.61 39.97 34.32 29.68 26.05
742.797 23.31 21.63 21.15 21.7 23.37 26.03 29.33 33.09 37.37 42.34
762.091 47.65 52.5 56.41 58.85 59.46 58.6 56.52 53.24 49.43 44.99
781.384 38.78 31.28 24.1 18.53 14.73 12.17 10.41 9.08 8.04 7.21
800.678 6.58 6.14 5.75 5.47 5.34 5.27 5.23 5.21 5.28 5.36
819.971 5.42 5.51 5.57 5.68 5.86 5.99 6.12 6.28 6.37 6.43
839.264 6.49 6.53 6.55 6.6 6.68 6.77 6.86 7 7.23 7.5
858.558 7.91 8.36 8.95 9.75 10.7 11.79 13.07 14.41 16.07 18.18
877.851 20.55 23.17 26.06 29.17 32.09 34.56 36.7 38.37 39.69 40.73
897.145 41.21 41.04 39.86 37.49 34.24 30.94 28.09 25.78 23.96 22.44
916.438 21.01 19.58 18.3 17.33 16.63 16.03 15.52 15.2 14.99 14.81
935.732 14.71 14.73 14.62 14.59 14.79 15.17 15.91 17.07 18.63 20.66
955.025 23.22 26.44 30.39 35.11 40.71 47.33 54.97 63.55 72.84 82.6
974.318 92.65 102.59 111.97 120.5 127.96 133.81 137.62 139.27 138.64 135.72
993.612 130.8 124.33 116.64 107.84 98.11 87.99 78.13 69.13 61.21 54.28
1012.905 48.41 43.46 39.35 36.04 33.36 31.27 29.69 28.57 27.75 27.16
1032.199 26.79 26.58 26.5 26.5 26.54 26.46 26.32 26.23 26.05 25.74
1051.492 25.29 24.64 23.79 22.65 21.31 19.87 18.34 16.69 14.96 13.34
1070.786 11.81 10.42 9.16 8 7.05 6.24 5.59 5.15 4.83 4.58
1090.079 4.37 4.24 4.14 3.98 3.89 3.82 3.71 3.69 3.69 3.7
1109.372 3.76 3.77 3.81 3.85 3.96 4.08 4.11 4.17 4.26 4.47
1128.666 4.63 4.73 4.92 5.13 5.47 5.83 6.26 6.95 7.68 8.46
1147.959 9.32 10.25 11.44 12.75 14.08 15.57 17.3 18.98 20.62 22.2
1167.253 23.39 24.66 25.76 26.45 26.78 26.81 26.74 26.56 26.1 25.32
1186.546 24.58 23.99 23.51 23.06 22.61 21.98 21.37 20.83 20.45 20.23
1205.840 19.93 19.84 19.65 19.57 19.83 19.92 20.1 20.41 21.05 22.07
1225.133 22.85 23.49 24.07 24.18 24.08 24.03 23.67 22.9 22.17 21.47
1244.426 20.42 19.22 18 16.87 15.8 14.81 14.01 13.16 12.39 11.67
1263.720 10.87 10.21 9.68 9.28 8.91 8.6 8.34 8.18 8.08 7.89
1283.013 7.81 7.82 7.97 8.3 8.87 9.71 10.77 12.09 13.58 15.24
1302.307 16.91 18.37 19.63 20.82 21.77 22.63 23.39 23.95 24.46 24.96
1321.600 25.49 26.06 26.55 26.86 26.79 26.39 25.9 25.22 24.2 22.98
1340.894 21.46 19.41 17.15 15.27 14.22 14.12 14.73 15.96 17.8 20.14
1360.187 22.9 25.93 29.06 32.17 35.14 37.66 39.7 41.42 42.06 41.11
1379.480 39.21 36.8 34.13 31.54 29.07 26.73 24.57 22.76 21.24 20
1398.774 19.16 18.66 18.2 17.46 16.51 15.6 14.71 13.8 12.91 12.03
1418.067 11.24 10.61 10.18 9.9 9.75 9.7 9.72 9.74 9.81 10
1437.361 10.21 10.45 10.86 11.37 11.97 12.7 13.58 14.69 15.99 17.44
1456.654 19.05 20.74 22.45 24.17 25.84 27.5 29.11 30.6 31.93 32.77
1475.948 33 32.69 31.75 30.3 28.49 26.59 24.64 22.5 20.1 17.44
1495.241 14.67 12.12 9.97 8.23 6.86 5.78 4.88 4.22 3.7 3.21
1514.534 2.825 2.5169 2.2758 2.0442 1.8824 1.758 1.587 1.467 1.368 1.238
1533.828 1.197 1.173 1.084 1.075 1.09 1.082 1.04 0.996 1.007 0.994
1553.121 0.997 1.044 1.057 1.007 0.988 0.953 0.94 0.93 0.9 0.91
1572.415 0.92 0.9 0.91 0.91 0.88 0.92 0.93 0.85 0.84 0.92
1591.708 0.94 0.91 0.93 0.94 0.985 1.037 1.017 1.072 1.135 1.115
1611.002 1.132 1.192 1.191 1.22 1.262 1.275 1.324 1.414 1.463 1.46
1630.295 1.485 1.535 1.6 1.652 1.703 1.749 1.807 1.8642 1.96743 2.0831
1649.588 2.2263 2.3504 2.412 2.5229 2.5748 2.5981 2.7391 2.8613 2.9148 2.98
1668.882 3.07 3.15 3.17 3.18 3.26 3.36 3.44 3.5 3.54 3.56
1688.175 3.62 3.72 3.8 3.87 3.87 3.95 4.05 4.1 4.17 4.24
1707.469 4.3 4.35 4.44 4.55 4.63 4.72 4.89 5.02 5.14 5.29
1726.762 5.47 5.7 5.98 6.25 6.52 6.84 7.19 7.6 8.06 8.51
1746.056 9.07 9.72 10.48 11.35 12.3 13.5 14.87 16.36 18.16 20.26
1765.349 22.77 25.75 29.25 33.4 38.44 44.27 51.08 58.97 68.04 78.34
1784.642 89.87 102.77 116.91 132.21 148.58 165.38 181.68 197.07 211.12 223.97
1803.936 235.41 244.56 250.16 251.95 250.3 245.28 237.14 226.76 214.79 200.9
1823.229 184.35 165.14 144.71 124.68 105.97 89.5 75.44 63.65 53.95 46.11
1842.523 39.78 34.66 30.57 27.31 24.68 22.6 20.91 19.55 18.45 17.5
1861.816 16.68 15.97 15.35 14.74 14.13 13.53 12.99 12.45 11.86 11.27
1881.110 10.75 10.21 9.63 9.06 8.51 7.98 7.43 6.99 6.6 6.23
1900.403 5.87 5.52 5.23 5.01 4.81 4.56 4.37 4.26 4.13 4.01
1919.696 3.89 3.8 3.73 3.6 3.5 3.51 3.47 3.39 3.37 3.32
1938.990 3.26 3.29 3.35 3.37 3.39 3.41 3.43 3.5 3.56 3.63
1958.283 3.72 3.78 3.81 3.86 3.89 3.88 3.89 3.88 3.87 3.81
1977.577 3.72 3.64 3.56 3.49 3.36 3.2 3.04 2.9357 2.793 2.6391
1996.870 2.5304 2.3831 2.2563 2.1278 2.02433 1.96248 1.8435 1.724 1.655 1.618
2016.164 1.601 1.623 1.646 1.627 1.575 1.555 1.586 1.61 1.648 1.651
2035.457 1.665 1.77 1.8558 1.8954 1.94662 2.055 2.1592 2.2493 2.376 2.5318
2054.750 2.693 2.9094 3.14 3.35 3.55 3.75 4.02 4.34 4.68 5.05
2074.044 5.49 6.02 6.59 7.31 8.23 9.34 10.74 12.41 14.46 16.91
2093.337 19.71 22.96 26.63 30.65 34.92 39.41 43.9 48.23 52.31 55.91
2112.631 58.85 61.02 62.33 62.77 62.4 61.22 59.16 56.11 52 47.14
2131.924 41.86 36.12 30.03 24.14 19.06 15.1 12.24 10.24 8.82 7.73
2151.218 6.86 6.1 5.44 4.89 4.41 3.9 3.47 3.13 2.8086 2.5522
2170.511 2.3247 2.0876 1.9136 1.786 1.591 1.465 1.419 1.315 1.2 1.158
2189.804 1.184 1.17 1.13 1.122 1.117 1.106 1.104 1.087 1.09 1.131
2209.098 1.154 1.165 1.164 1.17 1.236 1.272 1.272 1.304 1.344 1.404
2228.391 1.447 1.474 1.515 1.516 1.528 1.583 1.634 1.683 1.709 1.708
2247.685 1.739 1.766 1.767 1.817 1.8548 1.833 1.781 1.75 1.751 1.727
2266.978 1.681 1.657 1.619 1.552 1.502 1.472 1.485 1.503 1.513 1.536
2286.272 1.576 1.611 1.633 1.691 1.719 1.689 1.696 1.724 1.704 1.699
2305.565 1.675 1.657 1.633 1.566 1.497 1.39 1.301 1.244 1.15 1.08
2324.858 1.078 1.011 0.93 0.9 0.83 0.79 0.76 0.75 0.75 0.75
2344.152 0.72 0.68 0.66 0.62 0.61 0.64 0.63 0.62 0.65 0.65
2363.445 0.65 0.65 0.67 0.68 0.69 0.75 0.73 0.69 0.7 0.72
2382.739 0.69 0.65 0.66 0.71 0.74 0.72 0.71 0.72 0.71 0.71
2402.032 0.73 0.75 0.79 0.79 0.72 0.69 0.78 0.79 0.76 0.74
2421.326 0.7 0.73 0.75 0.79 0.81 0.76 0.75 0.71 0.69 0.69
2440.619 0.66 0.63 0.61 0.64 0.69 0.67 0.63 0.6 0.63 0.62
2459.912 0.58 0.63 0.65 0.65 0.63 0.63 0.63 0.57 0.57 0.57
2479.206 0.53 0.56 0.6 0.57 0.59 0.58 0.58 0.63 0.6 0.57
2498.499 0.58 0.6 0.61 0.64 0.68 0.66 0.67 0.64 0.57 0.59
2517.793 0.62 0.6 0.59 0.61 0.6 0.54 0.57 0.64 0.66 0.65
2537.086 0.62 0.64 0.66 0.66 0.69 0.65 0.58 0.58 0.6 0.59
2556.380 0.62 0.62 0.59 0.61 0.62 0.6 0.62 0.63 0.61 0.6
2575.673 0.57 0.57 0.62 0.7 0.67 0.62 0.67 0.63 0.59 0.64
2594.966 0.68 0.75 0.78 0.73 0.71 0.68 0.67 0.66 0.65 0.69
2614.260 0.63 0.54 0.58 0.63 0.65 0.76 0.83 0.67 0.58 0.6
2633.553 0.57 0.56 0.6 0.59 0.63 0.65 0.63 0.7 0.86 1.04
2652.847 0.94 0.75 0.73 0.77 0.77 0.72 0.75 0.81 0.79 0.75
2672.140 0.83 1.066 1.34 1.422 1.138 0.948 1.03 1.062 1.057 1.117
2691.434 1.206 1.269 1.262 1.299 1.491 1.93536 2.1972 1.784 1.499 1.505
2710.727 1.526 1.629 1.634 1.621 1.692 1.799 2.00644 2.4016 2.99 3.19
2730.020 2.774 2.6066 2.5852 2.4918 2.5276 2.6236 2.6435 2.6206 2.6212 2.6445
2749.314 3.04 3.59 3.21 2.4517 2.2986 2.273 2.2251 2.2902 2.331 2.2917
2768.607 2.3923 2.541 2.8707 3.6 3.64 2.8304 2.4748 2.4927 2.5345 2.5926
2787.901 2.6513 2.7484 2.8307 2.99 3.49 4.35 4.51 3.75 3.46 3.53
2807.194 3.59 3.73 3.82 3.93 4.07 4.44 5.13 5.81 5.62 5.11
2826.488 5.12 5.36 5.69 5.82 5.97 6.43 7 7.75 8.65 9.19
2845.781 9.17 9.57 10.38 11.24 12.3 13.65 15.26 17.09 19.33 22
2865.074 24.87 27.69 30.65 33.77 36.82 39.64 42.22 44.49 46.25 47.59
2884.368 48.45 48.81 48.98 48.89 48.69 48.67 48.81 48.96 49.24 49.92
2903.661 51.05 52.35 53.37 54.3 55.4 56.57 57.52 58.39 59.24 60.13
2922.955 61.31 62.57 63.41 64 65.26 67.16 69.27 71.87 75.04 78.9
2942.248 83.79 89.36 94.78 100.58 107.9 116.43 126.12 136.99 148.99 161.86
2961.542 174.4 184.11 188.69 189.37 188.07 184.69 178.59 169.88 158.68 145.11
2980.835 129.64 113.33 98.25 85.25 73.96 64.1 55.26 47.36 40.57 34.45
3000.128 28.22 22.92 18.91 15.55 13.07 11.23 9.98 9.24 7.87 6.3
3019.422 5.5 4.98 4.5 4.15 4.21 4.42 4.01 3.35 3.12 3.03
3038.715 2.99 3.02 3.1 3.11 2.9032 2.6382 2.5495 2.4879 2.4144 2.5646
3058.009 2.7154 2.5249 2.2177 2.0771 1.984 1.97716 1.96541 1.996 1.9768 1.755
3077.302 1.675 1.637 1.557 1.574 1.569 1.603 1.61 1.57 1.525 1.445
3096.596 1.4 1.301 1.273 1.299 1.265 1.253 1.2 1.214 1.314 1.298
3115.889 1.247 1.194 1.067 1.06 1.172 1.123 1.079 1.065 0.93 0.979
3135.182 1.095 1.039 0.86 0.83 0.9 0.94 1.039 1.084 0.997 0.92
3154.476 0.93 0.9 0.83 0.83 0.942 1.098 1.185 1.165 1.231 1.368
3173.769 1.536 1.565 1.485 1.501 1.481 1.602 1.7 1.606 1.644 1.672
3193.063 1.702 1.704 1.694 1.659 1.644 1.689 1.65 1.714 1.8627 1.9179
3212.356 1.8865 1.95945 1.9218 1.816 1.822 1.704 1.706 1.724 1.689 1.642
3231.650 1.549 1.533 1.554 1.432 1.251 1.156 1.038 1.052 1.089 0.971
3250.943 0.8 0.68 0.62 0.56 0.38 0.38 0.58 0.65 0.65 0.62
3270.236 0.55 0.45 0.35 0.31 0.36 0.47 0.44 0.39 0.31 0.28
3289.530 0.32 0.24 0.24 0.24 0.05 0 0.13 0.13 0.09 0.15
3308.823 0.24 0.26 0.15 0.09 0.16 0.22 0.32 0.29 0.24 0.25
3328.117 0.17 0.14 0.25 0.38 0.35 0.35 0.49 0.53 0.51 0.44
3347.410 0.28 0.25 0.35 0.42 0.38 0.36 0.36 0.29 0.31 0.41
3366.704 0.46 0.36 0.29 0.36 0.4 0.56 0.61 0.52 0.52 0.5
3385.997 0.49 0.52 0.41 0.39 0.47 0.45 0.42 0.46 0.42 0.32
3405.290 0.4 0.3 0.31 0.47 0.39 0.45 0.45 0.31 0.3 0.37
3424.584 0.37 0.38 0.4 0.39 0.39 0.43 0.45 0.47 0.57 0.52
3443.877 0.51 0.63 0.61 0.56 0.66 0.64 0.58 0.67 0.76 0.62
3463.171 0.53 0.59 0.64 0.72 0.67 0.72 0.68 0.57 0.55 0.46
3482.464 0.42 0.41 0.36 0.33 0.33 0.28 0.28 0.17 0.17 0.3
3501.758 0.34 0.32 0.29 0.34 0.27 0.24 0.36 0.41 0.36 0.36
3521.051 0.33 0.43 0.62 0.6 0.51 0.5 0.41 0.33 0.32 0.39
3540.344 0.6 0.6 0.59 0.65 0.67 0.82 1.064 1.129 1.085 1.229
3559.638 1.362 1.456 1.603 1.727 1.99572 2.2247 2.3668 2.5462 2.7139 2.9303
3578.931 3.06 3.15 3.33 3.53 3.62 3.5 3.56 3.64 3.44 3.37
3598.225 3.41 3.41 3.45 3.39 3.33 3.27 3.14 2.97 2.8497 2.8587
3617.518 2.8227 2.6104 2.4155 2.4103 2.3124 2.00713 1.774 1.66 1.444 1.193
3636.812 1.07 1.075 1.003 0.84 0.83 0.86 0.73 0.61 0.56 0.68
3656.105 0.71 0.63 0.6 0.48 0.46 0.59 0.58 0.49 0.53 0.6
3675.398 0.64 0.55 0.41 0.36 0.42 0.47 0.53 0.54 0.46 0.43
3694.692 0.5 0.55 0.48 0.44 0.35 0.25 0.24 0.3 0.31 0.42
3713.985 0.48 0.38 0.35 0.41 0.49 0.44 0.28 0.32 0.39 0.43
3733.279 0.55 0.53 0.46 0.46 0.52 0.51 0.46 0.41 0.42 0.39
3752.572 0.28 0.34 0.4 0.39 0.43 0.39 0.35 0.41 0.38 0.38
3771.866 0.33 0.35 0.45 0.49 0.41 0.42 0.6 0.68 0.65 0.62
3791.159 0.68 0.61 0.5 0.52 0.51 0.56 0.59 0.61 0.72 0.71
3810.452 0.69 0.62 0.62 0.71 0.71 0.73 0.82 0.89 0.77 0.75
3829.746 0.71 0.7 0.8 0.75 0.69 0.68 0.77 0.84 0.73 0.62
3849.039 0.71 0.69 0.72 0.85 0.78 0.73 0.74 0.76 0.78 0.67
3868.333 0.62 0.66 0.67 0.7 0.79 0.78 0.75 0.79 0.76 0.73
3887.626 0.78 0.92 0.88 0.87 0.962 0.954 0.945 0.88 0.83 0.79
3906.920 0.76 0.83 0.89 0.88 0.83 0.86 0.88 0.91 0.92 0.81
3926.213 0.76 0.72 0.76 0.76 0.74 0.81 0.83 0.79 0.82 0.83
3945.506 0.75 0.69 0.73 0.78 0.82 0.8 0.73 0.71 0.63 0.66
3964.800 0.69 0.69 0.71 0.74 0.81 0.83 0.79 0.75 0.75 0.69
3984.093 0.65 0.7 0.69 0.67 0.76 0.82 0.86 0.75 0.75
##END=
