##TITLE=2-Chloro-4-nitrobenzoyl chloride
##JCAMP-DX=4.24
##DATA TYPE=INFRARED SPECTRUM
##ORIGIN=EPA-IR VAPOR PHASE LIBRARY
##OWNER=SRD/NIST
Collection (C) 2018 copyright by the U.S. Secretary of Commerce
on behalf of the United States of America. All rights reserved.
##CAS REGISTRY NO=7073-36-1
##MOLFORM=C 7 H 3 Cl 2 N O 3
##$NIST SOURCE=MSDC-IR
##STATE=gas
##XUNITS=1/CM
##YUNITS=ABSORBANCE
##XFACTOR=1.
##YFACTOR=0.001
##DELTAX=1.92898
##FIRSTX=549.8
##LASTX=4000.7
##FIRSTY=10.852
##MAXX=4000.7
##MINX=549.759
##MAXY=0.164642
##MINY=0
##NPOINTS=1790
##XYDATA=(X++(Y..Y))
549.759 10.852 11.052 10.712 10.792 11.232 11.522 11.892 12.472 13.542 14.632
569.049 15.342 15.882 15.942 15.652 15.022 13.702 12.132 10.672 9.452 8.222
588.339 7.052 6.192 5.232 4.592 4.322 3.682 3.132 2.972 2.722 2.592
607.628 2.702 2.612 2.422 2.592 2.682 2.652 2.752 2.702 2.732 2.842
626.918 3.132 3.392 3.552 3.972 4.502 5.222 6.032 6.892 7.852 8.832
646.208 9.722 10.612 11.612 12.222 13.072 14.482 16.192 18.092 19.802 20.672
665.498 20.562 19.842 18.122 15.472 12.692 10.352 8.692 7.592 6.892 6.452
684.787 6.242 6.152 5.932 5.822 5.992 6.222 6.382 6.822 7.562 8.302
704.077 9.202 10.232 11.242 12.662 14.252 15.822 17.352 18.222 18.412 18.472
723.367 18.432 18.482 18.702 19.492 21.242 23.632 26.362 29.322 32.492 35.632
742.657 37.812 38.552 38.312 37.592 36.962 36.712 36.662 36.462 36.062 35.342
761.947 33.692 30.902 27.372 23.312 19.202 15.712 13.042 10.812 9.352 8.772
781.236 8.292 7.852 7.572 7.332 7.412 7.692 7.792 8.002 8.752 9.932
800.526 11.152 12.332 13.792 15.532 17.532 20.002 23.152 27.482 33.332 41.372
819.816 52.042 65.492 81.352 97.882 112.912 125.082 133.752 138.242 139.472 139.622
839.106 141.452 146.762 154.322 161.062 164.642 163.222 155.462 141.292 121.062 98.002
858.395 77.182 60.762 48.372 39.322 32.682 27.702 24.042 21.202 19.322 18.152
877.685 17.302 16.902 16.952 17.782 19.212 21.142 23.612 26.382 29.252 32.172
896.975 35.472 38.502 40.492 42.002 42.982 43.872 44.862 45.492 45.712 44.952
916.265 43.132 40.902 37.882 34.072 30.042 25.962 22.402 19.432 16.842 14.642
935.555 12.832 11.492 10.432 9.462 8.682 7.962 7.412 7.032 6.602 6.212
954.844 5.892 5.512 5.172 5.022 4.872 4.722 4.462 4.122 3.952 3.822
974.134 3.872 3.732 3.432 3.242 3.142 2.952 2.842 2.782 2.492 2.392
993.424 2.412 2.462 2.572 2.482 2.342 2.322 2.332 2.302 2.212 2.202
1012.714 2.352 2.362 2.342 2.362 2.262 2.252 2.402 2.512 2.402 2.572
1032.003 2.872 3.102 3.652 4.242 4.662 5.282 6.132 7.032 8.022 9.072
1051.293 10.182 11.182 11.782 12.332 12.462 11.812 10.892 9.782 8.462 7.232
1070.583 6.222 5.292 4.852 4.442 4.202 4.522 4.382 4.032 4.132 3.862
1089.873 3.632 4.062 4.302 4.732 4.952 5.122 5.492 5.872 6.462 7.672
1109.163 9.312 11.042 12.912 14.912 17.112 19.412 21.022 21.562 21.552 21.102
1128.452 20.202 19.162 18.452 18.292 18.722 19.012 19.082 19.022 18.942 18.762
1147.742 17.522 16.002 15.512 15.252 15.002 15.352 15.852 16.482 17.552 18.892
1167.032 20.482 22.602 25.052 27.962 31.842 36.932 43.162 50.602 59.312 68.392
1186.322 76.692 82.962 86.432 85.382 80.152 71.912 61.122 49.912 39.932 32.042
1205.611 26.172 21.692 18.362 15.762 13.812 12.412 10.812 9.372 8.462 7.542
1224.901 6.942 6.962 6.912 6.722 6.472 6.302 6.322 6.362 6.512 6.682
1244.191 7.052 7.632 8.232 8.882 9.252 9.392 9.542 9.492 9.222 8.762
1263.481 8.662 8.772 8.842 9.572 10.552 11.352 12.122 13.002 13.682 13.902
1282.771 14.082 13.902 13.172 12.162 11.012 10.022 9.182 8.542 8.042 7.752
1302.060 7.692 7.822 8.192 8.762 9.402 10.212 11.252 12.402 13.652 15.102
1321.350 16.802 18.832 21.382 24.722 29.152 35.012 42.732 52.552 64.342 77.742
1340.640 91.812 104.942 115.552 122.282 124.082 120.582 112.412 100.912 87.862 75.152
1359.930 63.942 54.652 47.332 41.722 37.482 34.342 32.162 30.822 30.012 29.522
1379.219 29.132 28.732 28.092 27.012 25.602 23.862 21.922 19.892 17.842 15.892
1398.509 14.242 12.822 11.602 10.652 9.812 9.012 8.322 7.682 7.192 6.782
1417.799 6.462 6.242 6.042 5.882 5.852 5.892 5.962 6.062 6.242 6.452
1437.089 6.702 6.992 7.292 7.762 8.212 8.562 8.942 9.482 10.212 10.932
1456.378 11.692 12.632 13.722 14.792 15.712 16.432 16.942 17.212 17.152 16.762
1475.668 16.062 15.232 14.262 13.312 12.622 12.212 12.082 12.232 12.592 13.172
1494.958 14.082 15.162 16.312 17.592 18.772 19.772 20.732 21.572 22.432 23.432
1514.248 24.652 26.162 28.022 30.372 33.422 37.152 41.822 47.742 55.132 64.402
1533.538 75.822 89.242 104.222 120.122 135.352 147.942 156.242 159.252 156.932 149.892
1552.827 138.362 122.482 104.662 87.272 72.322 60.902 52.362 46.362 42.512 40.272
1572.117 39.242 39.132 39.832 41.082 42.492 43.782 44.552 44.542 43.752 42.072
1591.407 39.522 36.452 33.022 29.482 26.182 23.282 20.582 18.052 15.832 13.742
1610.697 11.862 10.382 9.212 8.322 7.672 7.222 6.942 6.722 6.522 6.422
1629.986 6.392 6.332 6.192 6.102 6.062 5.962 5.852 5.692 5.482 5.202
1649.276 4.952 4.812 4.672 4.532 4.432 4.322 4.262 4.222 4.212 4.182
1668.566 4.152 4.152 4.172 4.272 4.312 4.302 4.292 4.242 4.142 4.132
1687.856 4.192 4.212 4.232 4.252 4.252 4.352 4.422 4.412 4.512 4.642
1707.146 4.722 4.872 5.022 5.252 5.622 6.032 6.402 6.842 7.412 8.012
1726.435 8.652 9.392 10.092 10.792 11.522 12.252 13.022 13.762 14.492 15.222
1745.725 15.992 16.832 17.782 18.862 19.982 21.112 22.322 23.622 24.992 26.412
1765.015 28.002 29.712 31.442 33.442 35.822 38.522 41.582 45.042 49.122 54.122
1784.305 60.212 67.602 76.632 87.242 98.932 110.832 121.212 128.472 131.632 130.312
1803.594 124.582 115.102 103.202 90.652 78.852 68.562 59.812 52.502 46.512 41.542
1822.884 37.242 33.452 30.052 26.932 24.052 21.392 18.952 16.792 14.832 12.982
1842.174 11.412 10.072 8.882 7.902 7.122 6.512 5.952 5.482 5.112 4.812
1861.464 4.562 4.272 4.012 3.762 3.492 3.222 2.962 2.762 2.562 2.372
1880.754 2.252 2.192 2.192 2.172 2.122 2.062 2.042 2.022 2.002 2.082
1900.043 2.142 2.142 2.232 2.312 2.372 2.422 2.492 2.552 2.562 2.562
1919.333 2.562 2.492 2.322 2.122 2.022 1.882 1.742 1.652 1.502 1.432
1938.623 1.362 1.262 1.202 1.182 1.132 1.0869 1.0369 0.9804 1.0177 1.0511
1957.913 1.0418 1.024 0.976 0.929 0.9049 0.8895 0.8713 0.8307 0.8295 0.8662
1977.202 0.8769 0.7859 0.7276 0.757 0.7909 0.7959 0.7889 0.7846 0.7006 0.6678
1996.492 0.6842 0.6874 0.7111 0.7585 0.7889 0.7529 0.7628 0.7614 0.7523 0.7822
2015.782 0.7655 0.8092 0.8896 0.906 0.8663 0.841 0.7557 0.7106 0.7998 0.799
2035.072 0.7856 0.7877 0.7576 0.7183 0.6627 0.6547 0.6894 0.6715 0.6188 0.583
2054.362 0.5344 0.5452 0.5855 0.57 0.5495 0.5094 0.459 0.5106 0.5022 0.4385
2073.651 0.4296 0.4202 0.4601 0.4402 0.4088 0.4662 0.4919 0.4643 0.4803 0.4843
2092.941 0.4796 0.5367 0.5798 0.5767 0.5849 0.5769 0.524 0.5044 0.549 0.539
2112.231 0.511 0.4932 0.4888 0.5039 0.4507 0.4534 0.4722 0.4073 0.3809 0.366
2131.521 0.3768 0.4535 0.4491 0.4344 0.4357 0.4176 0.3625 0.3377 0.3799 0.3355
2150.810 0.3567 0.398 0.3268 0.3405 0.3623 0.3125 0.3292 0.3377 0.3232 0.338
2170.100 0.3196 0.3093 0.3138 0.3264 0.315 0.3085 0.3615 0.3961 0.3839 0.3838
2189.390 0.3547 0.2891 0.3073 0.3404 0.3494 0.3117 0.2759 0.3155 0.3452 0.3356
2208.680 0.3221 0.3143 0.3639 0.3799 0.3541 0.3248 0.2983 0.2849 0.3191 0.325
2227.970 0.3048 0.3361 0.4024 0.4694 0.4722 0.468 0.5219 0.5595 0.5314 0.5669
2247.259 0.6036 0.5802 0.5662 0.5445 0.5027 0.4995 0.5534 0.588 0.6137 0.5674
2266.549 0.4785 0.5172 0.5038 0.4665 0.5348 0.5614 0.5188 0.5325 0.5726 0.546
2285.839 0.49 0.4877 0.4542 0.4062 0.4527 0.4441 0.3817 0.4483 0.547 0.5359
2305.129 0.5285 0.5642 0.5352 0.5151 0.5042 0.482 0.4496 0.4364 0.4922 0.4951
2324.418 0.4495 0.419 0.3787 0.384 0.3999 0.3653 0.3578 0.3812 0.4415 0.4096
2343.708 0.3464 0.3708 0.4125 0.4215 0.4656 0.4425 0.4131 0.5066 0.4991 0.4634
2362.998 0.4948 0.5218 0.4762 0.4856 0.5475 0.6096 0.6572 0.7151 0.757 0.6979
2382.288 0.6629 0.6482 0.6746 0.6883 0.6732 0.6552 0.5622 0.4526 0.4324 0.4185
2401.578 0.378 0.3818 0.4021 0.396 0.4349 0.4336 0.4214 0.4764 0.4948 0.4751
2420.867 0.4553 0.441 0.4537 0.4511 0.472 0.5153 0.5596 0.5901 0.6068 0.6981
2440.157 0.7471 0.6717 0.6325 0.6466 0.652 0.6937 0.6837 0.6855 0.6333 0.6083
2459.447 0.6513 0.6572 0.6114 0.5418 0.5951 0.6604 0.6069 0.5077 0.4782 0.5136
2478.737 0.5384 0.5364 0.5108 0.4535 0.4339 0.4607 0.4741 0.4589 0.4106 0.347
2498.026 0.3351 0.3851 0.4217 0.4244 0.3848 0.3242 0.3206 0.3364 0.3937 0.4745
2517.316 0.4003 0.3821 0.4236 0.4131 0.3818 0.3501 0.3414 0.3263 0.3647 0.3955
2536.606 0.3763 0.3912 0.3953 0.3534 0.3586 0.3446 0.2784 0.2453 0.3406 0.4343
2555.896 0.4061 0.3596 0.3552 0.3384 0.3227 0.3405 0.3784 0.4223 0.4095 0.3796
2575.186 0.3601 0.3792 0.4021 0.3631 0.3122 0.2794 0.3186 0.3471 0.3291 0.2866
2594.475 0.2528 0.255 0.275 0.284 0.2592 0.3044 0.3307 0.3112 0.3499 0.3318
2613.765 0.304 0.3019 0.2926 0.3261 0.3287 0.2671 0.355 0.4838 0.514 0.5405
2633.055 0.4895 0.4434 0.5449 0.6324 0.591 0.6674 0.7893 0.7555 0.7816 0.8203
2652.345 0.9222 0.8921 0.753 0.874 0.9659 0.9297 0.9318 1.004 1.0763 1.102
2671.634 1.152 1.222 1.232 1.302 1.432 1.452 1.552 1.592 1.492 1.512
2690.924 1.582 1.642 1.612 1.522 1.542 1.462 1.342 1.392 1.412 1.322
2710.214 1.312 1.382 1.332 1.242 1.172 1.112 1.0788 1.0642 1.0083 0.9368
2729.504 0.871 0.7907 0.772 0.7361 0.6329 0.6167 0.5468 0.4371 0.4838 0.4931
2748.794 0.4633 0.506 0.5047 0.4479 0.4276 0.3655 0.3899 0.4773 0.4793 0.4751
2768.083 0.4446 0.3813 0.3319 0.3935 0.4362 0.3443 0.3513 0.3683 0.3537 0.429
2787.373 0.4428 0.4508 0.4706 0.5369 0.5457 0.4247 0.3856 0.3982 0.4495 0.4817
2806.663 0.5097 0.5205 0.5107 0.5276 0.5327 0.54 0.6351 0.776 0.8179 0.7599
2825.953 0.812 0.9213 0.9451 1.0027 1.0276 1.0467 1.0873 1.132 1.192 1.332
2845.242 1.332 1.272 1.302 1.342 1.512 1.672 1.682 1.712 1.742 1.752
2864.532 1.802 1.902 1.942 1.992 2.122 2.112 2.142 2.292 2.492 2.522
2883.822 2.442 2.532 2.562 2.512 2.372 2.312 2.282 2.092 1.882 1.722
2903.112 1.612 1.622 1.632 1.552 1.472 1.392 1.422 1.462 1.462 1.562
2922.401 1.542 1.512 1.542 1.392 1.382 1.442 1.422 1.402 1.272 1.202
2941.691 1.312 1.342 1.292 1.172 1.0076 1.0429 1.0547 0.8519 0.7395 0.9341
2960.981 1.034 0.9683 0.8335 0.7828 0.8205 0.8469 0.851 0.6796 0.6344 0.7247
2980.271 0.7833 0.787 0.7061 0.6401 0.6322 0.6154 0.6271 0.6944 0.746 0.7061
2999.561 0.7044 0.6718 0.6087 0.6591 0.5747 0.4153 0.4332 0.6515 0.7426 0.6948
3018.850 0.763 0.7345 0.8117 0.8961 0.939 1.152 1.202 1.132 1.192 1.312
3038.140 1.332 1.332 1.282 1.162 1.045 0.9856 0.9661 0.8178 0.7172 0.7926
3057.430 0.8257 0.8042 0.8724 0.8536 0.8562 0.9494 0.9982 1.182 1.402 1.532
3076.720 1.742 2.062 2.392 2.702 3.042 3.472 3.812 4.182 4.592 4.942
3096.009 5.532 6.142 6.662 6.982 7.132 7.272 7.232 6.742 5.992 5.292
3115.299 4.502 3.682 2.882 2.232 1.822 1.542 1.332 1.202 1.0003 0.8662
3134.589 0.8648 0.7456 0.6297 0.6361 0.4702 0.4922 0.6173 0.6393 0.6025 0.4452
3153.879 0.4982 0.672 0.6039 0.4756 0.4504 0.345 0.4419 0.5017 0.4311 0.4194
3173.169 0.422 0.5536 0.5811 0.6341 0.519 0.4491 0.4852 0.3422 0.3601 0.4526
3192.458 0.3299 0.2739 0.3435 0.3139 0.3282 0.3797 0.2846 0.108666 0.11498 0.15235
3211.748 0.2245 0.3207 0.2987 0.3394 0.3343 0.321 0.4143 0.3612 0.3704 0.3494
3231.038 0.19512 0.2148 0.2523 0.204 0.15975 0.2214 0.2674 0.18542 0.0917 0
3250.328 0.0745 0.2863 0.3565 0.2555 0.2847 0.3457 0.3053 0.429 0.4281 0.3637
3269.617 0.3432 0.3308 0.4072 0.4102 0.3339 0.3237 0.3121 0.3031 0.2409 0.1407
3288.907 0.14208 0.105287 0.0893 0.307 0.3271 0.2325 0.1698 0.0357 0.17244 0.3733
3308.197 0.2755 0.2177 0.4259 0.4788 0.4101 0.3108 0.2467 0.15529 0.09263 0.106678
3327.487 0.2313 0.14999 0.13586 0.4108 0.4193 0.2137 0.1875 0.353 0.2487 0.0436
3346.777 0.14129 0.3085 0.3315 0.3176 0.2953 0.2751 0.2193 0.251 0.3022 0.19192
3366.066 0.2466 0.2602 0.2903 0.4003 0.2985 0.1375 0.0573 0.2122 0.299 0.2744
3385.356 0.4183 0.4378 0.2483 0.18747 0.2567 0.3159 0.3444 0.3884 0.3415 0.2918
3404.646 0.2754 0.2793 0.3329 0.3108 0.3118 0.3527 0.2867 0.2561 0.2619 0.16332
3423.936 0.3029 0.3682 0.2664 0.2909 0.2876 0.2142 0.2353 0.3181 0.4122 0.5143
3443.225 0.4946 0.3873 0.3686 0.4117 0.3923 0.4182 0.5052 0.4813 0.378 0.3817
3462.515 0.5024 0.5074 0.3921 0.4148 0.4954 0.5968 0.669 0.6132 0.6357 0.7197
3481.805 0.5813 0.4474 0.5509 0.5679 0.5518 0.5469 0.5512 0.6179 0.6394 0.6595
3501.095 0.6484 0.6147 0.6819 0.6472 0.5953 0.6664 0.7314 0.727 0.606 0.5987
3520.385 0.738 0.8894 0.87 0.7855 0.7571 0.9228 0.9731 0.8775 0.953 1.1017
3539.674 1.222 1.152 1.132 1.222 1.362 1.552 1.572 1.592 1.612 1.652
3558.964 1.552 1.422 1.432 1.492 1.512 1.542 1.682 1.752 1.782 1.752
3578.254 1.722 1.772 1.712 1.642 1.682 1.682 1.712 1.762 1.792 1.742
3597.544 1.572 1.462 1.372 1.432 1.352 1.0803 1.0689 1.142 1.0844 0.9674
3616.833 0.9413 0.9654 0.9477 0.7393 0.6774 0.6674 0.7167 0.7491 0.6534 0.8062
3636.123 0.7964 0.6793 0.5752 0.4892 0.4585 0.4091 0.4129 0.4143 0.592 0.6745
3655.413 0.6243 0.532 0.4481 0.4291 0.5268 0.5475 0.4367 0.3935 0.3699 0.449
3674.703 0.4706 0.4302 0.4967 0.5525 0.4919 0.4712 0.4709 0.4243 0.4079 0.4539
3693.993 0.3758 0.3466 0.3706 0.383 0.4186 0.3524 0.4139 0.4575 0.3284 0.2954
3713.282 0.4403 0.4549 0.3662 0.5324 0.5033 0.3882 0.359 0.3233 0.2871 0.2197
3732.572 0.3284 0.454 0.4825 0.3718 0.2621 0.33 0.4161 0.377 0.3979 0.5031
3751.862 0.5159 0.406 0.3004 0.2896 0.3372 0.3823 0.3738 0.3608 0.5215 0.6057
3771.152 0.4418 0.4599 0.4654 0.5429 0.6046 0.4778 0.4786 0.5251 0.3731 0.2858
3790.441 0.4029 0.4016 0.4134 0.3672 0.287 0.3861 0.3345 0.19467 0.2572 0.2983
3809.731 0.2315 0.2448 0.348 0.3585 0.4275 0.4528 0.3742 0.4152 0.4568 0.2851
3829.021 0.18519 0.2699 0.5526 0.6783 0.5028 0.4259 0.3808 0.3253 0.2399 0.2435
3848.311 0.19832 0.264 0.5212 0.6031 0.4291 0.363 0.2931 0.2603 0.4828 0.5679
3867.601 0.5034 0.4492 0.5595 0.5561 0.3603 0.2599 0.2241 0.3028 0.3691 0.2585
3886.890 0.231 0.2161 0.2024 0.2722 0.2424 0.16247 0.2549 0.3555 0.2936 0.215
3906.180 0.3071 0.3486 0.3554 0.3402 0.2717 0.2688 0.12606 0.18528 0.2894 0.2044
3925.470 0.2748 0.3843 0.405 0.4292 0.458 0.4514 0.355 0.3304 0.4682 0.5813
3944.760 0.5656 0.4014 0.4629 0.5056 0.2419 0.2326 0.3565 0.536 0.6823 0.6227
3964.049 0.3185 0.1619 0.3415 0.5189 0.5596 0.4357 0.3104 0.2909 0.4243 0.5163
3983.339 0.3874 0.4342 0.4336 0.4498 0.4916 0.3498 0.4667 0.4611 0.4469 0.6006
##END=
