##TITLE=1,1,3,3,5-Pentamethylcyclohexane
##JCAMP-DX=4.24
##DATA TYPE=INFRARED SPECTRUM
##ORIGIN=NIST Mass Spectrometry Data Center
##OWNER=NIST Standard Reference Data Program
Collection (C) 2018 copyright by the U.S. Secretary of Commerce
on behalf of the United States of America. All rights reserved.
##CAS REGISTRY NO=70810-19-4
##MOLFORM=C 11 H 22
##$NIST SOURCE=MSDC-IR
##SPECTROMETER/DATA SYSTEM=HP-GC/MS/IRD
##STATE=gas
##XUNITS=1/CM
##YUNITS=ABSORBANCE
##XFACTOR=1.0
##YFACTOR=0.000004900
##DELTAX=4.0
##FIRSTX=550.0
##LASTX=3846.0
##FIRSTY=0.000206
##MAXX=3846
##MINX=550
##MAXY=0.049
##MINY=0
##NPOINTS=825
##XYDATA=(X++(Y..Y))
550.0 42 61 57 33 26 36 43 49 43 41
590.0 43 38 40 38 27 24 23 24 36 33
630.0 18 9 18 23 16 4 0 9 23 26
670.0 26 26 22 24 26 28 30 30 31 33
710.0 29 24 27 28 25 31 37 39 37 33
750.0 29 23 30 42 44 46 45 39 34 34
790.0 37 42 35 30 35 35 26 29 35 29
830.0 33 41 44 53 62 77 103 122 126 119
870.0 101 84 65 46 37 35 34 32 31 31
910.0 43 49 58 87 122 146 155 143 113 89
950.0 75 71 76 88 97 98 98 93 81 68
990.0 53 42 38 35 35 33 25 22 27 32
1030.0 28 27 32 36 42 38 41 51 55 55
1070.0 55 46 34 35 38 34 28 26 28 31
1110.0 33 36 38 40 55 82 102 114 114 116
1150.0 122 123 127 132 127 115 101 93 94 105
1190.0 119 124 127 141 160 175 189 188 175 166
1230.0 169 189 233 288 326 342 318 258 198 148
1270.0 114 102 103 110 124 143 156 166 171 157
1310.0 143 139 135 145 163 187 215 257 328 434
1350.0 574 730 866 941 975 1075 1051 979 984 942
1390.0 868 705 531 359 226 176 163 172 203 247
1430.0 301 361 431 527 669 856 1038 1244 1395 1332
1470.0 1202 1054 868 690 528 399 291 215 163 127
1510.0 99 74 65 56 49 48 43 38 38 40
1550.0 38 32 31 30 31 33 37 36 36 39
1590.0 36 36 44 44 38 36 38 39 34 31
1630.0 34 38 36 34 34 29 30 32 32 31
1670.0 29 31 32 29 33 33 28 27 29 29
1710.0 28 24 19 22 20 19 21 20 21 22
1750.0 22 18 17 21 22 21 20 19 21 18
1790.0 16 21 19 14 14 14 15 18 19 18
1830.0 19 18 15 15 16 15 15 16 15 17
1870.0 15 12 18 16 10 9 9 12 12 10
1910.0 12 11 12 13 14 11 8 9 10 7
1950.0 7 6 5 6 6 4 4 2 0 4
1990.0 8 8 7 7 9 8 8 8 9 9
2030.0 8 6 5 5 6 8 4 2 5 4
2070.0 7 9 3 3 4 2 1 0 2 4
2110.0 5 8 7 11 10 11 11 12 14 14
2150.0 11 7 9 7 3 2 2 3 4 2
2190.0 2 3 1 2 9 12 9 5 4 6
2230.0 3 2 3 6 7 3 0 0 5 7
2270.0 5 3 4 6 7 7 5 7 9 9
2310.0 7 3 0 1 3 1 3 2 3 6
2350.0 6 2 2 3 6 6 5 5 3 7
2390.0 10 9 10 10 9 12 15 17 17 14
2430.0 13 15 18 21 23 22 21 18 18 17
2470.0 17 19 17 14 15 16 13 14 14 15
2510.0 16 10 12 18 21 20 19 21 21 20
2550.0 23 26 31 33 33 31 33 41 45 45
2590.0 44 48 46 46 50 53 59 61 58 59
2630.0 62 61 60 61 66 72 76 76 78 82
2670.0 85 91 91 89 90 97 100 108 121 131
2710.0 142 154 167 175 176 178 179 177 174 162
2750.0 157 156 155 165 173 187 207 218 231 238
2790.0 245 258 278 316 362 422 499 592 717 909
2830.0 1192 1543 1879 2113 2152 2061 1982 2019 2259 2680
2870.0 3181 3641 3984 4260 4608 5114 5779 6533 7045 7185
2910.0 7082 6648 6013 5457 5057 4796 4713 4861 5376 6429
2950.0 7809 9247 10000 9049 7112 5038 3204 2152 1759 1666
2990.0 1660 1626 1544 1378 1126 872 654 476 354 286
3030.0 244 223 210 198 181 165 154 152 154 158
3070.0 163 167 167 168 171 171 161 148 139 133
3110.0 137 136 128 130 135 131 125 125 127 126
3150.0 122 120 116 114 118 120 123 131 135 128
3190.0 121 119 123 114 99 87 78 70 64 56
3230.0 54 58 51 48 44 35 34 32 30 30
3270.0 31 27 21 24 29 27 31 28 25 24
3310.0 21 26 34 38 33 32 41 43 40 44
3350.0 39 29 34 37 32 34 33 29 36 39
3390.0 35 30 24 17 15 18 19 19 22 23
3430.0 27 29 34 29 17 16 17 14 12 14
3470.0 16 17 12 7 6 8 14 15 18 17
3510.0 15 17 11 7 9 8 11 17 15 10
3550.0 5 11 6 3 4 1 4 7 3 0
3590.0 6 10 12 7 5 10 12 12 17 24
3630.0 20 9 12 16 12 12 9 6 13 16
3670.0 14 14 15 18 17 10 10 17 15 16
3710.0 22 21 16 13 16 12 14 25 22 18
3750.0 24 28 26 24 22 17 17 18 18 18
3790.0 15 16 16 18 25 27 26 27 23 19
3830.0 25 29 25 25 27
##END=
