##TITLE=2,4-Dinitroiodobenzene
##JCAMP-DX=4.24
##DATA TYPE=INFRARED SPECTRUM
##ORIGIN=EPA-IR VAPOR PHASE LIBRARY
##OWNER=SRD/NIST
Collection (C) 2018 copyright by the U.S. Secretary of Commerce
on behalf of the United States of America. All rights reserved.
##CAS REGISTRY NO=709-49-9
##MOLFORM=C 6 H 3 I N 2 O 4
##$NIST SOURCE=MSDC-IR
##STATE=gas
##XUNITS=1/CM
##YUNITS=ABSORBANCE
##XFACTOR=1.
##YFACTOR=0.001
##DELTAX=3.85796
##FIRSTX=501.5
##LASTX=4000.7
##FIRSTY=0.38246
##MAXX=4000.7
##MINX=501.534
##MAXY=0.104262
##MINY=0
##NPOINTS=908
##XYDATA=(X++(Y..Y))
501.534 0.38246 0.2486 0.38492 0.4813 0.4584 0.568 0.6894 0.6199 0.5272 0.4842
540.114 0.4315 0.36796 0.35092 0.37872 0.4261 0.4584 0.4491 0.4558 0.4723 0.4658
578.693 0.4359 0.4925 0.4846 0.36866 0.36438 0.39203 0.38681 0.40784 0.40494 0.439
617.273 0.4222 0.33573 0.31864 0.34017 0.39019 0.35037 0.4934 0.903 1.572 2.402
655.852 2.902 2.932 2.362 1.622 1.1753 0.9809 0.9625 1.0806 1.193 1.2634
694.432 1.2662 1.2347 1.332 1.592 2.212 3.482 6.092 10.932 17.832 23.902
733.011 25.482 21.812 15.842 10.592 7.112 5.142 3.932 3.052 2.352 1.832
771.591 1.572 1.412 1.2131 1.1501 1.2046 1.342 1.532 1.562 1.582 1.772
810.170 2.112 3.072 5.352 10.912 20.952 28.762 28.562 20.242 10.372 5.242
848.750 2.982 2.022 1.672 1.542 1.532 1.602 1.692 1.872 2.262 2.812
887.330 3.692 5.202 7.642 11.152 15.152 17.982 17.532 13.722 8.862 5.172
925.909 3.102 2.072 1.522 1.2324 1.0447 0.9041 0.8224 0.7622 0.7282 0.7337
964.489 0.7147 0.6842 0.6995 0.721 0.7285 0.7518 0.8056 0.9031 1.109 1.442
1003.068 2.032 3.072 4.882 8.462 14.582 20.252 20.872 15.112 7.692 3.792
1041.648 2.312 1.602 1.2441 1.0743 0.9479 0.8809 0.9429 1.0968 1.2987 1.612
1080.227 2.042 2.432 2.552 2.342 1.962 1.432 1.0873 0.9469 0.971 1.1714
1118.807 1.442 1.812 2.082 2.012 1.782 1.672 1.682 1.772 1.902 1.792
1157.387 1.482 1.2827 1.2241 1.2047 1.2169 1.3202 1.412 1.412 1.372 1.301
1195.966 1.1619 1.0326 1.0624 1.0754 1.0447 1.0535 1.0348 1.149 1.412 1.832
1234.546 2.672 4.272 6.452 7.862 7.422 5.532 3.792 3.022 2.882 3.032
1273.125 3.172 3.432 3.812 4.162 4.492 4.752 5.102 5.652 6.432 7.572
1311.705 9.182 11.472 14.682 19.202 25.672 35.232 49.342 68.992 90.712 104.212
1350.284 100.372 80.982 57.892 40.432 29.002 21.092 15.392 11.602 9.442 8.442
1388.864 8.052 7.702 7.002 5.922 4.902 4.282 4.022 3.972 3.972 3.982
1427.443 4.012 4.122 4.422 4.992 5.712 6.572 7.582 8.412 8.572 7.822
1466.023 6.452 5.302 4.902 5.132 5.712 6.582 7.792 9.252 10.772 12.072
1504.603 12.782 13.202 14.052 15.842 19.002 24.202 32.182 44.212 60.732 80.002
1543.182 96.502 104.262 102.452 92.322 77.462 61.352 47.712 38.302 34.372 35.802
1581.762 41.842 50.482 57.752 59.232 53.732 43.882 32.862 22.662 14.832 9.852
1620.341 7.152 5.792 5.102 4.772 4.542 4.282 3.922 3.452 2.962 2.552
1658.921 2.292 2.092 1.902 1.692 1.512 1.392 1.2702 1.206 1.1742 1.1035
1697.500 1.0042 0.8958 0.806 0.714 0.5944 0.5075 0.4671 0.4448 0.4306 0.40134
1736.080 0.40779 0.41025 0.38363 0.33491 0.2824 0.2726 0.2727 0.2957 0.3049 0.325861
1774.659 0.40613 0.5121 0.6385 0.7987 0.9525 1.0644 1.0849 1.0297 0.9874 0.9348
1813.239 0.8812 0.7976 0.664 0.5417 0.4296 0.34693 0.3119 0.2869 0.2792 0.2994
1851.819 0.325521 0.32733 0.324235 0.3351 0.31739 0.3078 0.305 0.2875 0.2937 0.2988
1890.398 0.2853 0.2863 0.31508 0.36263 0.4367 0.5112 0.6001 0.7286 0.8358 0.8964
1928.978 0.8883 0.7699 0.5885 0.4293 0.328868 0.278 0.2416 0.21 0.176 0.16
1967.557 0.166 0.158 0.163 0.175 0.176 0.177 0.187 0.204 0.199 0.186
2006.137 0.181 0.18 0.178 0.177 0.185 0.186 0.194 0.21 0.21 0.209
2044.716 0.2354 0.2547 0.2382 0.2316 0.2457 0.2496 0.2405 0.22 0.202 0.187
2083.296 0.186 0.176 0.16 0.158 0.149 0.146 0.138 0.143 0.168 0.187
2121.875 0.173 0.146 0.128 0.103 0.111 0.134 0.145 0.146 0.137 0.139
2160.455 0.151 0.153 0.142 0.139 0.147 0.167 0.167 0.157 0.163 0.15
2199.035 0.144 0.146 0.141 0.146 0.146 0.15 0.164 0.172 0.165 0.163
2237.614 0.2 0.2337 0.2407 0.2344 0.2255 0.222 0.213 0.22 0.2266 0.2343
2276.194 0.2406 0.2232 0.193 0.158 0.16 0.169 0.151 0.178 0.212 0.212
2314.773 0.216 0.215 0.22 0.2228 0.2241 0.2239 0.219 0.209 0.2 0.219
2353.353 0.2301 0.2438 0.2611 0.274 0.323626 0.36505 0.36846 0.3506 0.31927 0.2887
2391.932 0.2813 0.2725 0.2681 0.2542 0.2356 0.2396 0.2477 0.2712 0.2874 0.3058
2430.512 0.33349 0.33584 0.33684 0.34721 0.3411 0.35646 0.36517 0.3605 0.38341 0.39373
2469.092 0.37782 0.35891 0.34486 0.36289 0.3812 0.37498 0.37217 0.38431 0.37968 0.35399
2507.671 0.33773 0.322421 0.2898 0.2971 0.31766 0.305 0.32087 0.329416 0.31698 0.3065
2546.251 0.31846 0.2953 0.2737 0.31942 0.34964 0.3615 0.40392 0.4274 0.4257 0.4239
2584.830 0.38231 0.34191 0.325751 0.3105 0.31775 0.323644 0.33607 0.3576 0.36764 0.36056
2623.410 0.33442 0.32025 0.31549 0.3108 0.327653 0.3353 0.37208 0.42192 0.466 0.5238
2661.989 0.571 0.6679 0.7541 0.8047 0.8635 0.9236 0.9747 0.9862 0.9804 0.9453
2700.569 0.872 0.7871 0.6938 0.6162 0.5769 0.5614 0.5445 0.5237 0.5324 0.5462
2739.148 0.5096 0.4908 0.462 0.40244 0.36195 0.32156 0.2742 0.2501 0.2604 0.2637
2777.728 0.2603 0.2701 0.2698 0.2992 0.34826 0.38086 0.37928 0.37435 0.41625 0.4736
2816.308 0.511 0.5316 0.578 0.626 0.6995 0.7677 0.7702 0.8076 0.8729 0.9089
2854.887 0.9759 1.0645 1.1903 1.352 1.542 1.752 1.932 2.102 2.202 2.232
2893.467 2.212 2.132 2.002 1.802 1.582 1.412 1.2744 1.1957 1.1934 1.1576
2932.046 1.1433 1.1415 1.0846 0.9838 0.8571 0.7941 0.7174 0.6107 0.5441 0.5202
2970.626 0.4993 0.4504 0.40305 0.37291 0.35713 0.3068 0.2934 0.321895 0.31567 0.2909
3009.205 0.2862 0.3021 0.31498 0.33257 0.3522 0.3745 0.36566 0.36375 0.35721 0.321382
3047.785 0.3012 0.328862 0.36167 0.39223 0.5207 0.6925 0.9475 1.412 1.992 2.602
3086.364 3.232 3.902 4.632 5.322 5.522 5.012 3.912 2.552 1.532 1.0172
3124.944 0.7556 0.6311 0.5485 0.4504 0.40561 0.37876 0.35998 0.31365 0.2511 0.214
3163.524 0.219 0.2449 0.2522 0.2755 0.2801 0.2345 0.216 0.2361 0.2388 0.209
3202.103 0.172 0.094 0.025 0.023 0.03 0.047 0.072 0.084 0.121 0.084
3240.683 0.033 0.086 0.091 0.075 0.057 0.03 0.022 0.032 0.023 0.004
3279.262 0 0.024 0.092 0.089 0.042 0.044 0.065 0.071 0.083 0.08
3317.842 0.033 0.037 0.022 0.026 0.04 0.017 0.06 0.065 0.063 0.036
3356.421 0.017 0.057 0.076 0.061 0.048 0.054 0.023 0.04 0.073 0.058
3395.001 0.045 0.059 0.089 0.075 0.018 0.034 0.077 0.093 0.086 0.04
3433.580 0.049 0.081 0.086 0.125 0.119 0.078 0.087 0.088 0.072 0.086
3472.160 0.07 0.013 0.068 0.085 0.086 0.127 0.125 0.107 0.099 0.08
3510.740 0.071 0.102 0.103 0.066 0.067 0.059 0.045 0.089 0.061 0.031
3549.319 0.055 0.079 0.051 0.035 0.064 0.092 0.095 0.053 0.064 0.073
3587.899 0.077 0.111 0.099 0.091 0.1 0.142 0.139 0.11 0.109 0.117
3626.478 0.074 0.035 0.075 0.092 0.113 0.113 0.091 0.118 0.149 0.113
3665.058 0.131 0.123 0.077 0.079 0.107 0.112 0.121 0.212 0.2 0.132
3703.637 0.141 0.144 0.108 0.137 0.173 0.118 0.117 0.162 0.113 0.086
3742.217 0.141 0.167 0.167 0.17 0.195 0.175 0.19 0.192 0.129 0.103
3780.797 0.122 0.166 0.148 0.153 0.179 0.171 0.168 0.143 0.151 0.143
3819.376 0.156 0.168 0.108 0.068 0.098 0.146 0.15 0.144 0.094 0.064
3857.956 0.092 0.141 0.155 0.13 0.17 0.133 0.095 0.123 0.145 0.084
3896.535 0.071 0.115 0.074 0.127 0.137 0.09 0.143 0.154 0.143 0.112
3935.115 0.096 0.081 0.059 0.114 0.139 0.101 0.076 0.126 0.167 0.138
3973.694 0.107 0.101 0.132 0.158 0.178 0.14 0.097 0.131
##END=
