##TITLE=1,1,4-Trimethylcyclohexane
##JCAMP-DX=4.24
##DATA TYPE=INFRARED SPECTRUM
##ORIGIN=NIST Mass Spectrometry Data Center
##OWNER=NIST Standard Reference Data Program
Collection (C) 2018 copyright by the U.S. Secretary of Commerce
on behalf of the United States of America. All rights reserved.
##CAS REGISTRY NO=7094-27-1
##MOLFORM=C 9 H 18
##$NIST SOURCE=MSDC-IR
##SPECTROMETER/DATA SYSTEM=HP-GC/MS/IRD
##STATE=gas
##XUNITS=1/CM
##YUNITS=ABSORBANCE
##XFACTOR=1.0
##YFACTOR=0.000003500
##DELTAX=4.0
##FIRSTX=550.0
##LASTX=3846.0
##FIRSTY=0.000070
##MAXX=3846
##MINX=550
##MAXY=0.035
##MINY=0
##NPOINTS=825
##XYDATA=(X++(Y..Y))
550.0 20 19 7 8 13 6 5 4 10 33
590.0 42 48 47 41 48 52 47 45 49 43
630.0 40 27 27 43 50 56 51 37 42 37
670.0 35 29 25 43 44 38 43 46 38 42
710.0 34 25 27 18 22 32 41 38 33 40
750.0 34 42 41 28 23 30 31 26 33 35
790.0 33 21 15 24 23 29 34 28 26 16
830.0 17 22 16 22 29 37 39 37 43 45
870.0 49 48 42 44 49 59 79 92 97 94
910.0 96 95 91 101 111 117 116 106 94 88
950.0 85 87 98 108 108 102 98 93 87 87
990.0 96 106 110 116 125 123 127 137 147 158
1030.0 166 165 156 135 112 91 76 62 51 46
1070.0 44 45 48 57 62 59 59 60 55 50
1110.0 48 45 41 44 53 58 81 107 135 163
1150.0 182 212 245 270 281 286 282 251 209 174
1190.0 149 133 114 91 67 51 43 37 35 37
1230.0 39 38 29 35 44 52 56 59 77 87
1270.0 91 95 96 90 78 64 57 57 59 63
1310.0 66 70 69 70 75 79 83 107 138 177
1350.0 256 349 439 527 622 687 707 740 753 722
1390.0 649 545 435 306 212 168 152 146 154 189
1430.0 255 362 502 671 854 1028 1159 1251 1261 1173
1470.0 1052 896 720 545 399 294 209 146 106 81
1510.0 70 59 52 47 40 34 34 33 31 29
1550.0 27 27 25 20 27 30 33 33 29 27
1590.0 28 32 32 33 34 35 35 33 27 29
1630.0 32 34 34 30 29 29 29 26 23 30
1670.0 30 29 29 28 25 20 18 16 17 17
1710.0 16 16 17 17 13 13 14 8 8 13
1750.0 14 19 20 19 19 17 18 15 15 19
1790.0 19 17 15 15 12 11 17 15 12 10
1830.0 7 8 12 13 10 10 12 9 11 15
1870.0 16 19 20 16 13 13 15 15 12 10
1910.0 16 16 13 15 13 12 9 12 14 11
1950.0 8 9 15 19 21 17 15 19 18 10
1990.0 7 8 6 3 1 3 10 7 2 6
2030.0 9 2 0 4 6 5 4 5 7 7
2070.0 11 10 7 7 8 10 10 9 10 9
2110.0 7 6 6 8 10 9 9 10 10 7
2150.0 7 5 2 7 11 9 7 10 12 12
2190.0 8 5 5 6 5 7 4 4 7 9
2230.0 10 8 9 12 13 13 11 11 14 15
2270.0 18 14 13 17 18 19 20 20 16 14
2310.0 15 12 15 18 14 11 8 6 13 18
2350.0 21 23 20 17 17 15 17 18 16 18
2390.0 23 26 24 20 19 18 17 16 17 15
2430.0 15 18 16 22 25 23 29 30 32 37
2470.0 36 33 35 36 30 26 26 28 29 29
2510.0 31 31 28 26 27 27 28 26 25 26
2550.0 29 26 26 31 33 34 34 36 39 43
2590.0 41 44 51 54 58 64 71 81 91 100
2630.0 107 108 113 118 120 124 124 120 113 107
2670.0 103 101 100 91 90 93 95 105 112 118
2710.0 127 140 152 154 154 157 156 152 148 146
2750.0 148 151 152 155 168 173 176 184 190 200
2790.0 216 232 251 272 296 325 356 399 457 535
2830.0 660 866 1173 1583 2061 2566 3018 3364 3634 3854
2870.0 3944 3894 3789 3673 3597 3619 3858 4389 5207 6285
2910.0 7498 8602 9510 10000 9698 8915 7968 7119 6657 6601
2950.0 6807 7140 7115 6509 5624 4558 3492 2609 1911 1384
2990.0 968 650 461 349 289 251 220 204 189 170
3030.0 159 159 160 156 148 151 154 145 144 148
3070.0 146 143 148 152 144 138 139 134 132 140
3110.0 145 137 124 122 127 129 129 130 134 137
3150.0 133 126 119 112 108 111 106 92 88 85
3190.0 81 84 80 75 73 75 78 76 72 70
3230.0 60 53 47 45 41 37 37 32 30 37
3270.0 41 38 33 33 31 25 29 31 33 36
3310.0 41 46 53 53 52 51 47 46 43 45
3350.0 50 52 53 52 49 45 46 40 34 38
3390.0 39 34 30 31 32 34 29 26 23 30
3430.0 30 24 24 17 13 15 17 23 17 17
3470.0 22 15 12 11 4 5 7 15 13 10
3510.0 17 18 15 8 9 15 20 17 20 24
3550.0 21 18 23 28 26 24 19 14 12 12
3590.0 16 20 15 12 9 11 16 13 15 19
3630.0 18 21 17 19 21 20 20 15 15 7
3670.0 8 16 20 21 23 27 27 27 30 23
3710.0 18 22 17 12 8 2 10 21 22 23
3750.0 23 23 21 21 23 14 11 19 21 28
3790.0 37 34 32 36 33 25 29 38 38 38
3830.0 38 41 49 49 44
##END=
