##TITLE=N,N'-Bis(3-aminopropyl)-1,4-butanediamine
##JCAMP-DX=4.24
##DATA TYPE=INFRARED SPECTRUM
##ORIGIN=NIST Mass Spectrometry Data Center
##OWNER=NIST Standard Reference Data Program
Collection (C) 2018 copyright by the U.S. Secretary of Commerce
on behalf of the United States of America. All rights reserved.
##CAS REGISTRY NO=71-44-3
##MOLFORM=C 10 H 26 N 4
##$NIST SOURCE=MSDC-IR
##SPECTROMETER/DATA SYSTEM=HP-GC/MS/IRD
##STATE=gas
##XUNITS=1/CM
##YUNITS=ABSORBANCE
##XFACTOR=1.0
##YFACTOR=0.000008500
##DELTAX=4.0
##FIRSTX=550.0
##LASTX=3846.0
##FIRSTY=0.002720
##MAXX=3846
##MINX=550
##MAXY=0.085
##MINY=0
##NPOINTS=825
##XYDATA=(X++(Y..Y))
550.0 320 241 0 41 38 55 68 85 100 104
590.0 115 146 178 206 222 245 287 323 362 413
630.0 462 505 552 602 673 750 816 886 954 1030
670.0 1104 1160 1217 1280 1344 1406 1463 1510 1555 1598
710.0 1652 1711 1757 1806 1869 1942 2032 2140 2266 2388
750.0 2491 2564 2606 2631 2630 2612 2589 2542 2453 2325
790.0 2153 1960 1758 1571 1419 1281 1165 1067 969 901
830.0 842 780 729 686 653 625 597 558 527 510
870.0 486 453 433 419 412 408 395 385 375 372
910.0 370 360 355 352 371 388 341 288 277 273
950.0 275 278 306 366 388 335 306 312 312 311
990.0 320 327 328 346 375 414 455 486 516 544
1030.0 585 615 608 625 680 720 778 854 946 1041
1070.0 1109 1176 1220 1241 1265 1287 1329 1391 1495 1646
1110.0 1872 2182 2546 2926 3196 3251 3042 2635 2152 1710
1150.0 1383 1145 971 820 703 619 554 505 452 416
1190.0 389 368 345 325 309 297 295 289 281 282
1230.0 285 285 278 272 272 280 289 298 312 331
1270.0 343 343 344 353 370 387 408 430 452 472
1310.0 489 507 530 560 621 724 854 994 1107 1189
1350.0 1253 1285 1293 1286 1240 1175 1101 1013 918 827
1390.0 736 653 573 503 458 439 458 519 605 738
1430.0 921 1128 1311 1461 1632 1820 2005 2123 2128 2051
1470.0 1890 1624 1302 1008 776 601 475 387 323 292
1510.0 259 221 201 184 164 153 148 147 154 146
1550.0 137 144 164 161 154 162 178 201 219 244
1590.0 278 322 374 436 511 593 682 757 796 785
1630.0 719 630 532 442 372 314 260 207 173 154
1670.0 143 135 126 123 114 100 104 113 103 84
1710.0 71 70 67 51 43 50 58 49 43 48
1750.0 54 53 55 58 61 61 54 49 51 56
1790.0 59 58 59 64 61 62 66 66 68 70
1830.0 69 67 67 71 72 67 59 53 50 49
1870.0 46 40 37 33 31 32 31 29 29 27
1910.0 28 29 31 29 26 29 30 30 31 27
1950.0 26 28 31 31 33 36 33 31 34 36
1990.0 35 35 36 35 36 34 37 40 40 42
2030.0 45 45 44 45 45 44 42 39 41 41
2070.0 40 39 40 41 39 38 38 37 34 34
2110.0 38 40 39 40 38 34 38 40 39 37
2150.0 36 36 36 38 37 36 36 39 38 38
2190.0 39 38 36 36 36 35 36 35 34 33
2230.0 36 34 36 38 39 37 33 33 34 33
2270.0 32 35 38 40 40 40 42 47 50 49
2310.0 52 52 56 57 56 58 55 54 56 54
2350.0 55 58 64 70 66 63 58 51 48 42
2390.0 39 39 38 37 39 41 43 44 43 42
2430.0 45 48 47 45 45 48 50 54 55 51
2470.0 52 54 58 60 62 66 66 64 69 76
2510.0 78 81 84 90 92 93 95 100 103 109
2550.0 116 117 122 130 134 136 143 152 157 164
2590.0 169 172 183 194 204 215 225 232 245 261
2630.0 271 280 301 318 337 359 384 411 435 457
2670.0 482 510 538 567 592 614 639 664 686 709
2710.0 731 757 785 816 855 895 933 976 1022 1066
2750.0 1112 1163 1211 1261 1322 1401 1500 1627 1799 2009
2790.0 2266 2570 2913 3295 3700 4088 4416 4634 4723 4690
2830.0 4584 4476 4422 4442 4540 4698 4872 5003 5042 4977
2870.0 4845 4691 4567 4492 4474 4526 4662 4900 5256 5747
2910.0 6377 7111 7882 8627 9295 9806 10000 9708 8900 7753
2950.0 6514 5345 4328 3487 2803 2255 1823 1492 1223 1003
2990.0 838 711 610 529 462 413 368 327 295 269
3030.0 246 222 200 189 175 160 151 140 132 126
3070.0 122 115 107 100 99 102 103 94 85 90
3110.0 91 87 83 80 76 75 78 78 75 75
3150.0 74 74 76 76 74 70 67 69 71 67
3190.0 62 67 72 75 77 76 78 76 71 68
3230.0 68 67 68 69 68 69 73 72 69 71
3270.0 70 69 76 76 80 91 90 94 99 107
3310.0 113 124 142 157 172 195 224 234 239 236
3350.0 216 200 183 158 142 136 125 120 113 109
3390.0 117 117 116 121 128 131 122 104 94 92
3430.0 89 79 73 65 63 59 56 54 52 49
3470.0 46 42 44 50 46 43 46 47 48 48
3510.0 50 42 38 42 44 39 35 37 38 46
3550.0 47 40 39 45 59 54 39 41 47 54
3590.0 55 48 40 37 46 57 58 53 47 53
3630.0 55 39 32 36 48 51 44 41 41 46
3670.0 53 53 51 43 49 49 38 36 38 40
3710.0 43 46 40 45 55 56 74 63 53 65
3750.0 58 52 42 36 34 36 38 38 36 30
3790.0 31 34 31 33 48 46 39 42 42 42
3830.0 41 47 60 59 49
##END=
