##TITLE=4-(Trifluoromethyl)propiophenone
##JCAMP-DX=4.24
##DATA TYPE=INFRARED SPECTRUM
##ORIGIN=EPA-IR VAPOR PHASE LIBRARY
##OWNER=SRD/NIST
Collection (C) 2018 copyright by the U.S. Secretary of Commerce
on behalf of the United States of America. All rights reserved.
##CAS REGISTRY NO=711-33-1
##MOLFORM=C 10 H 9 F 3 O
##$NIST SOURCE=MSDC-IR
##STATE=gas
##XUNITS=1/CM
##YUNITS=ABSORBANCE
##XFACTOR=1.
##YFACTOR=0.001
##DELTAX=1.92898
##FIRSTX=549.8
##LASTX=4000.7
##FIRSTY=3.224
##MAXX=4000.7
##MINX=549.759
##MAXY=0.457634
##MINY=0
##NPOINTS=1790
##XYDATA=(X++(Y..Y))
549.759 3.224 2.314 2.764 2.944 2.864 3.774 3.714 3.284 4.124 3.794
569.049 4.314 5.474 4.984 4.734 5.234 5.834 6.474 7.464 8.374 8.354
588.339 8.564 8.864 8.624 8.494 8.954 9.854 10.584 10.694 10.664 10.194
607.628 9.394 8.914 8.454 8.104 6.834 5.844 6.224 6.174 5.484 4.884
626.918 4.774 4.694 4.654 4.694 4.704 4.254 3.634 3.974 4.864 4.444
646.208 4.054 4.294 3.884 3.674 4.004 4.114 3.534 3.364 3.784 4.334
665.498 4.504 4.734 4.824 5.134 5.724 5.924 5.644 5.644 6.234 6.514
684.787 6.594 6.984 7.024 6.764 6.794 7.104 7.784 8.234 8.564 9.044
704.077 9.264 9.884 10.504 10.304 10.994 11.774 11.894 11.774 11.214 10.654
723.367 10.684 11.404 12.054 12.444 12.874 12.844 12.494 12.064 11.284 10.284
742.657 8.834 7.654 6.994 6.304 5.384 4.704 5.024 5.204 4.704 4.324
761.947 4.954 5.864 6.194 6.114 5.674 6.284 6.934 7.084 7.284 7.334
781.236 7.714 7.974 8.304 9.214 10.254 10.864 11.514 12.814 14.114 15.174
800.526 15.884 16.464 16.804 17.014 17.204 16.274 15.204 14.804 14.394 13.394
819.816 12.684 12.884 13.344 13.394 12.914 12.984 13.814 14.784 16.114 17.674
839.106 18.734 19.644 21.594 23.494 25.024 26.614 27.524 28.234 28.084 26.484
858.395 24.174 22.244 20.284 17.964 15.404 12.784 10.554 8.884 7.264 6.524
877.685 6.274 5.194 4.874 5.164 4.754 4.624 4.534 4.254 4.214 3.934
896.975 3.834 3.794 3.944 4.134 4.074 4.284 4.124 4.474 5.094 5.794
916.265 6.434 6.674 7.394 8.284 9.894 12.184 14.554 17.704 21.254 24.864
935.555 28.714 32.704 36.784 40.114 42.944 44.724 45.454 44.694 42.274 38.574
954.844 33.974 28.954 23.284 17.744 13.454 11.204 9.944 8.604 8.034 7.374
974.134 6.594 6.384 6.154 6.244 6.374 6.634 6.764 6.734 7.614 8.794
993.424 9.494 10.804 13.104 16.544 20.054 24.504 31.124 38.534 46.864 53.894
1012.714 58.234 59.074 55.774 49.384 41.194 32.124 22.384 15.014 11.094 9.014
1032.003 8.814 8.384 7.844 8.744 8.844 8.934 9.914 11.624 14.084 16.994
1051.293 20.914 26.944 36.874 50.364 67.564 89.524 111.874 129.934 141.074 144.144
1070.583 138.574 122.814 101.984 83.694 69.444 57.874 49.724 44.234 39.704 35.594
1089.873 32.154 30.264 29.314 28.214 27.294 27.014 29.254 33.244 35.584 38.824
1109.163 42.004 43.534 45.094 47.754 49.894 51.774 54.874 57.044 58.614 61.984
1128.452 68.104 76.134 86.304 97.124 109.634 125.884 144.224 163.524 184.074 205.554
1147.742 223.754 239.544 250.614 253.404 249.214 239.624 227.764 215.504 204.914 199.604
1167.032 199.714 204.014 210.484 213.284 209.714 199.404 185.264 168.724 150.744 131.764
1186.322 114.394 100.264 87.044 77.084 69.304 63.814 60.034 58.524 61.744 67.424
1205.611 72.634 78.554 85.394 88.654 89.564 87.314 81.704 74.874 67.824 59.874
1224.901 51.884 44.904 38.654 35.424 32.754 29.974 27.244 24.344 22.544 21.734
1244.191 21.874 21.684 21.654 21.934 21.474 21.784 23.304 24.004 24.514 25.474
1263.481 26.724 27.704 28.224 29.264 30.044 30.554 30.504 30.564 30.434 29.664
1282.771 29.404 29.384 29.704 30.634 32.284 34.774 37.964 41.824 47.224 54.404
1302.060 63.204 74.984 90.864 111.424 138.134 172.424 215.894 268.804 328.434 387.094
1321.350 433.644 457.634 452.304 419.034 360.754 283.384 203.414 139.434 97.454 72.394
1340.640 56.784 46.544 39.554 34.504 30.784 27.894 25.624 23.624 21.814 20.254
1359.930 18.944 17.884 16.864 15.874 15.174 14.764 14.444 14.194 14.074 14.344
1379.219 14.664 14.864 15.234 15.694 16.074 16.524 17.164 17.844 18.764 20.084
1398.509 22.144 24.424 26.394 27.974 28.854 29.244 28.994 28.274 26.864 24.564
1417.799 22.344 20.054 17.804 16.194 14.874 13.784 12.924 12.404 11.794 11.334
1437.089 11.284 11.234 11.244 11.304 11.244 11.214 11.194 11.144 11.274 11.194
1456.378 11.324 11.774 12.264 12.734 12.824 12.714 12.514 12.044 11.584 10.624
1475.668 9.334 8.414 7.794 7.164 6.614 6.344 6.264 6.194 6.034 6.274
1494.958 6.634 7.004 7.794 8.994 10.604 12.344 14.024 15.564 15.874 15.334
1514.248 14.534 12.744 10.474 8.784 7.424 6.444 5.784 5.094 4.724 4.624
1533.538 4.584 4.574 4.554 4.534 4.444 4.424 4.484 4.784 5.054 5.174
1552.827 5.184 5.554 6.294 6.914 7.114 7.204 7.514 7.944 8.634 8.954
1572.117 8.984 8.864 8.774 8.844 8.834 8.874 8.414 7.574 7.214 6.634
1591.407 5.804 5.324 5.114 4.734 4.234 4.124 4.204 4.194 3.944 3.894
1610.697 4.164 4.304 4.294 4.304 4.304 4.204 4.064 3.964 3.764 3.814
1629.986 3.794 3.784 4.054 4.194 4.304 4.424 4.574 4.764 5.164 5.084
1649.276 4.804 5.214 5.914 6.234 6.394 6.684 7.004 7.474 8.154 8.544
1668.566 8.954 9.664 10.654 11.554 12.384 13.854 15.754 17.854 20.744 24.034
1687.856 27.994 33.234 39.774 47.374 56.674 67.714 79.814 93.464 104.504 113.224
1707.146 118.074 118.164 113.154 104.064 91.514 77.344 62.954 51.244 41.564 33.664
1726.435 27.454 22.514 18.694 15.954 13.744 12.044 11.104 10.264 9.514 9.254
1745.725 9.064 8.564 8.054 7.504 7.044 6.934 6.754 6.234 5.674 5.384
1765.015 5.224 4.954 4.684 4.674 4.584 4.464 4.454 4.294 4.304 4.324
1784.305 4.324 4.464 4.394 4.194 4.174 4.224 4.144 4.084 4.214 4.294
1803.594 4.454 4.594 4.584 4.674 4.534 4.254 3.934 3.724 3.624 3.314
1822.884 3.114 3.214 3.044 2.734 2.774 2.814 2.574 2.384 2.364 2.304
1842.174 2.264 2.304 2.284 2.224 2.164 1.943 1.8034 1.8103 1.964 2.034
1861.464 1.9059 1.8637 1.78 1.7162 1.8991 1.801 1.7996 1.974 1.8386 1.717
1880.754 1.891 2.034 1.9221 2.074 2.084 1.984 2.314 2.504 2.694 2.984
1900.043 2.994 2.874 2.954 3.214 3.384 3.504 3.524 3.434 3.394 3.394
1919.333 3.464 3.544 3.484 3.454 3.484 3.574 3.514 3.354 3.214 3.024
1938.623 2.914 2.754 2.554 2.564 2.624 2.594 2.724 2.594 2.394 2.384
1957.913 2.164 2.124 2.284 2.094 1.8612 1.7877 1.6366 1.6419 1.7226 1.7224
1977.202 1.6457 1.6084 1.4883 1.2144 1.3617 1.4202 1.2393 1.1998 1.1657 1.2922
1996.492 1.3653 1.2933 1.1893 1.218 1.2053 1.0888 1.1203 1.1986 1.2285 1.1657
2015.782 1.0707 0.98321 0.96867 1.1383 1.1149 1.02202 1.1191 1.1294 1.2063 1.1272
2035.072 0.95926 1.1062 1.0814 1.00857 1.0518 1.0905 1.1371 1.1338 1.1994 1.1119
2054.362 1.0699 1.03484 1.00981 1.0964 1.056 1.02422 1.1111 1.1428 1.1324 1.2662
2073.651 1.3052 1.2088 1.2281 1.1517 0.98015 1.0748 1.1764 1.1813 1.3152 1.4779
2092.941 1.4286 1.1932 1.4106 1.7663 1.835 1.7883 1.7601 1.9094 1.8381 1.7027
2112.231 1.6665 1.5032 1.3353 1.2163 1.1098 1.02736 1.1003 1.2741 1.2718 1.1593
2131.521 1.1575 1.2151 1.2364 1.1663 0.946117 0.757 0.708 0.8832 1.0635 1.0907
2150.810 0.99102 0.9196 1.00612 1.0631 1.0679 1.03626 0.99757 0.9362 1.0442 1.1902
2170.100 1.3059 1.4722 1.2798 0.8525 1.00816 1.1827 1.1232 1.2078 1.1074 1.0495
2189.390 1.0864 1.2404 1.1685 0.8613 0.8597 1.0584 1.1232 1.2945 1.4608 1.4031
2208.680 1.515 1.5529 1.4095 1.3512 1.386 1.4325 1.3649 1.0467 1.04345 1.3317
2227.970 1.4442 1.3764 1.2973 1.3152 1.4083 1.5845 1.3044 1.1541 1.5345 1.396
2247.259 1.075 1.0797 1.1821 1.2407 1.293 1.2173 0.8955 1.121 1.4037 1.3113
2266.549 1.2755 1.3228 1.4885 1.5941 1.7602 2.014 2.164 2.144 2.104 2.214
2285.839 2.394 2.384 2.304 2.274 2.144 2.234 2.334 2.274 2.174 1.974
2305.129 1.9014 2.014 2.254 2.144 1.8598 2.064 2.074 1.984 1.984 1.73
2324.418 1.7151 1.7621 1.7778 1.9059 1.8353 1.8163 1.954 1.7997 1.5697 1.6266
2343.708 1.5647 1.6056 1.883 1.604 1.556 1.7739 1.6575 1.4515 1.2876 1.3038
2362.998 1.3037 1.183 1.1671 1.3557 1.3687 1.1243 1.2003 1.4011 1.3956 1.2298
2382.288 1.03051 1.04108 0.96813 0.96152 1.01527 1.3332 1.5974 1.4715 1.2724 0.9274
2401.578 0.781 1.073 1.2426 1.2076 1.1923 1.1729 1.1552 1.104 1.206 1.1764
2420.867 1.1454 0.99339 0.843 1.3082 1.2712 0.945608 1.0534 1.1962 1.0753 0.701
2440.157 0.663 0.878 1.0944 0.950136 0.905 1.1679 1.0557 0.875 0.768 0.65
2459.447 0.704 0.834 1.0604 1.1834 1.00079 0.9029 0.949114 1.0533 1.1237 1.1182
2478.737 1.01759 0.718 0.53 0.82 1.02605 0.97344 0.96967 1.0624 1.2183 1.0586
2498.026 1.0579 1.2641 1.2007 0.9229 0.8932 1.072 0.949564 0.835 0.8497 0.8859
2517.316 0.732 0.689 0.705 0.668 0.561 0.519 0.669 0.833 0.841 0.8452
2536.606 0.904 0.8906 0.745 0.613 0.692 0.416 0.384 0.561 0.545 0.814
2555.896 0.96861 0.79 0.708 0.715 0.8965 1.03212 0.791 0.492 0.488 0.419
2575.186 0.711 1.0563 0.9019 0.829 0.8748 0.944517 0.9981 0.9058 0.802 0.8475
2594.475 0.8527 0.99144 1.02744 0.64 0.586 0.833 0.78 0.79 0.9109 0.786
2613.765 0.919 0.950881 1.00274 1.2704 1.2117 1.1283 1.1014 1.1497 1.1947 1.3692
2633.055 1.6735 1.6323 1.3864 1.4086 1.3336 1.1648 1.4965 1.6142 1.402 1.6331
2652.345 1.3597 0.8664 0.8815 0.75 0.682 0.683 0.696 0.617 0.435 0.475
2671.634 0.557 0.737 0.8685 0.663 0.358 0.342 0.47 0.635 0.683 0.761
2690.924 0.549 0.397 0.506 0.617 0.797 0.723 0.731 0.95766 1.01498 1.1282
2710.214 1.2403 1.224 0.98182 0.845 0.9065 0.96377 0.713 0.388 0.675 0.663
2729.504 0.547 0.836 0.946179 0.9934 0.8739 0.533 0.517 0.635 0.8616 1.1979
2748.794 1.2113 1.02403 0.8961 0.8644 0.9049 0.93668 0.9272 1.0276 1.275 1.5554
2768.083 1.4646 1.1336 1.1854 1.2553 0.98826 0.759 1.03132 1.1422 1.0806 1.1891
2787.373 1.1696 1.1458 1.2876 1.5127 1.3437 1.1597 1.303 1.058 1.2935 1.5168
2806.663 1.2633 1.4859 1.8235 2.334 2.604 2.524 2.274 2.284 2.354 2.484
2825.953 2.484 2.644 2.894 2.944 3.094 2.664 2.434 2.624 2.564 2.434
2845.242 2.504 2.904 3.034 3.064 3.174 3.344 3.564 3.154 3.004 3.674
2864.532 4.204 3.994 4.164 4.604 5.024 5.494 5.914 6.294 6.784 7.654
2883.822 8.434 9.144 9.844 10.264 10.704 11.234 10.884 10.474 10.244 10.034
2903.112 10.354 11.034 11.794 12.494 13.654 14.774 15.524 16.024 16.374 15.904
2922.401 15.044 14.744 14.444 13.794 13.294 13.184 13.134 13.834 14.294 14.434
2941.691 15.524 17.524 19.834 21.434 22.384 22.714 22.294 20.984 18.734 16.724
2960.981 15.144 14.224 13.834 13.424 13.494 14.194 15.364 16.934 18.754 20.604
2980.271 22.374 23.914 25.074 25.624 25.794 25.064 23.534 22.264 20.514 18.414
2999.561 16.804 15.174 13.244 11.734 10.654 9.504 8.464 7.754 7.394 6.534
3018.850 5.664 5.364 5.244 5.414 5.374 4.824 4.414 4.364 4.234 3.804
3038.140 3.824 4.144 3.854 3.614 3.994 4.444 4.524 4.484 4.514 4.954
3057.430 5.184 5.184 5.474 5.364 5.654 6.264 5.754 5.314 5.244 4.974
3076.720 4.804 4.614 4.444 4.034 3.844 3.994 4.044 4.054 3.904 3.714
3096.009 3.994 4.464 4.094 3.774 3.774 3.574 3.174 3.114 3.694 3.524
3115.299 2.944 2.884 2.924 2.644 2.434 2.224 2.164 2.174 1.935 2.184
3134.589 2.204 2.064 2.184 1.5774 1.2663 1.3179 1.2335 1.3202 1.3519 1.424
3153.879 1.5136 1.4431 1.6769 1.3949 0.828 1.0838 0.8677 0.599 0.711 0.8749
3173.169 1.1193 1.1929 1.3441 1.1245 1.1501 1.00218 0.596 0.826 0.594 0.36
3192.458 0.787 1.1905 0.8699 0.346 0.225 0.44 0.8886 0.95598 0.97991 1.1621
3211.748 1.03038 0.664 0.709 0.807 1.00916 1.1679 0.717 0.567 0.763 0.541
3231.038 0.666 0.563 0.381 0.768 0.32 0.226 0.79 0.372 0.309 0.8961
3250.328 0.637 0.247 0.262 0.125 0.023 0.045 0.327 1.0499 0.787 0.171
3269.617 0.768 1.1742 0.878 0.773 0.695 0.529 0.424 0.493 0.808 0.672
3288.907 0.538 0.697 0.727 0.8916 0.616 0.343 0.413 0.242 0.295 0.526
3308.197 0.284 0.469 0.8773 0.558 0.308 0.256 0.113 0.566 0.698 0.482
3327.487 0.31 0.03 0.278 0.684 0.8699 1.1534 1.3472 0.716 0.259 0.323
3346.777 0.8634 0.9278 0.952259 1.4728 0.842 0.631 0.8776 0.781 0.869 1.1916
3366.066 1.5329 2.094 2.064 1.4302 1.2055 1.1251 1.5265 1.994 2.274 2.194
3385.356 1.8139 1.8612 2.414 2.754 2.364 2.414 2.634 2.374 2.294 2.264
3404.646 2.234 2.124 1.9426 1.964 2.054 1.6103 1.207 1.04017 0.9176 0.708
3423.936 0.8486 1.0891 1.2772 1.3515 1.1336 1.3136 1.3854 1.2783 0.97951 0.726
3443.225 0.515 0.653 1.0029 1.1295 0.718 0.786 1.03314 1.00031 1.1745 0.8814
3462.515 0.762 0.732 0.767 1.00148 0.8911 0.775 0.61 0.664 0.755 0.82
3481.805 0.97822 1.1923 1.396 1.0687 0.632 0.555 0.8609 0.672 0.741 0.838
3501.095 0.58 0.674 0.602 0.701 0.8759 0.733 1.03284 0.8834 0.609 0.952573
3520.385 1.1037 0.588 0.8559 1.2487 0.833 0.9258 0.807 0.686 0.445 0.221
3539.674 0.408 0.551 0.96586 1.1839 0.772 0.695 0.9297 0.97296 0.9323 0.77
3558.964 0.95704 1.2626 1.3103 1.2071 1.0854 1.077 0.96516 0.679 0.412 0.295
3578.254 0.509 1.0475 0.94227 0.45 0.396 0.676 0.953507 1.1221 1.5875 1.4948
3597.544 1.0004 0.798 0.758 0.8824 0.684 0.359 0.417 0.705 0.95712 0.8826
3616.833 0.644 0.744 0.736 0.701 0.9181 1.1794 1.6068 1.00117 0.304 0.9107
3636.123 0.8998 0.64 0.673 0.546 0.368 0.542 1.0528 1.01054 0.98777 1.03802
3655.413 0.8462 0.615 0.93951 1.3148 1.298 1.2708 0.9308 0.236 0.149 0.769
3674.703 0.95914 1.0449 1.1923 1.2023 0.837 0.276 0.323 0.801 1.0786 0.819
3693.993 0.93784 1.2592 1.2276 1.1366 0.665 0.582 0.677 0.401 0.827 1.1307
3713.282 0.626 0.8997 1.241 0.81 0.83 1.2292 1.4541 1.3482 0.78 0.645
3732.572 0.736 0.807 0.8626 0.76 0.82 0.281 0.166 0.97284 0.605 0.393
3751.862 0.722 0.9137 1.02736 0.8923 0.685 0.636 0.755 0.793 0.598 0.8978
3771.152 1.5734 0.97247 0.561 0.526 0.304 0.241 0.585 0.753 0.74 0.98082
3790.441 0.9632 0.842 1.1004 1.4446 1.0913 0.439 0.159 0.315 0.252 0.458
3809.731 1.04374 0.99021 0.524 0.573 0.742 0.817 0.76 0.616 0.749 0.9182
3829.021 0.95436 0.841 0.9203 1.0265 0.359 0.095 0.379 0.212 0.437 0.34
3848.311 0.341 0.774 0.99817 0.93896 0.782 0.444 0.168 0.555 0.96559 0.7
3867.601 0.083 0.474 0.713 0.468 0.642 0.363 0.54 0.86 0.788 0.71
3886.890 0.25 0.241 0.492 0.708 0.611 0.514 0.507 0 0.185 0.731
3906.180 0.531 0.521 0.8507 0.66 0.537 0.721 1.00206 1.2545 1.1415 0.662
3925.470 0.37 0.746 0.405 0.082 0.481 0.354 0.313 0.8479 1.0535 0.953462
3944.760 0.94084 0.99016 0.829 0.607 0.9165 1.02562 0.674 0.324 0.322 0.766
3964.049 0.945727 0.806 0.8912 0.98053 0.657 0.73 0.844 0.759 1.1111 1.2365
3983.339 0.98881 0.698 0.642 0.558 0.8867 1.2865 1.0511 1.2594 0.9147 0.047
##END=
