##TITLE=1,2-Phenylene diisothiocyanate
##JCAMP-DX=4.24
##DATA TYPE=INFRARED SPECTRUM
##ORIGIN=EPA-IR VAPOR PHASE LIBRARY
##OWNER=SRD/NIST
Collection (C) 2018 copyright by the U.S. Secretary of Commerce
on behalf of the United States of America. All rights reserved.
##CAS REGISTRY NO=71105-17-4
##MOLFORM=C 8 H 4 N 2 S 2
##$NIST SOURCE=MSDC-IR
##STATE=gas
##XUNITS=1/CM
##YUNITS=ABSORBANCE
##XFACTOR=1.
##YFACTOR=0.001
##DELTAX=1.92898
##FIRSTX=549.8
##LASTX=4000.7
##FIRSTY=23.287
##MAXX=4000.7
##MINX=549.759
##MAXY=0.638657
##MINY=0
##NPOINTS=1790
##XYDATA=(X++(Y..Y))
549.759 23.287 22.787 21.847 20.387 19.397 18.897 18.197 17.597 17.377 17.377
569.049 17.467 17.717 17.977 18.177 18.207 17.867 17.397 16.947 16.307 15.477
588.339 14.687 13.787 13.057 12.357 11.307 10.387 9.557 8.637 8.197 7.857
607.628 7.477 7.217 6.867 6.517 6.457 6.377 6.057 5.987 6.127 6.197
626.918 6.147 6.297 6.487 6.347 6.157 5.977 5.697 5.407 5.247 5.287
646.208 5.277 5.387 5.707 6.177 6.697 7.377 8.017 8.457 8.837 9.107
665.498 9.117 9.007 8.497 7.537 6.617 5.667 4.757 4.117 3.827 3.777
684.787 3.817 3.957 4.287 4.877 5.547 6.167 6.987 7.837 8.597 9.637
704.077 10.877 12.087 13.507 15.157 17.087 19.257 21.247 22.827 24.117 24.947
723.367 25.007 24.567 23.467 22.177 21.377 21.217 23.027 28.027 36.147 46.297
742.657 56.287 65.387 76.027 91.257 103.127 92.607 70.947 58.587 49.917 39.077
761.947 27.717 18.297 11.957 8.067 5.797 4.577 3.667 2.987 2.637 2.487
781.236 2.517 2.627 2.897 3.157 3.367 3.567 3.567 3.707 3.877 3.897
800.526 3.907 3.477 2.887 2.627 2.307 1.787 1.427 1.417 1.377 1.0785
819.816 0.8314 0.7232 0.675 0.6673 0.5853 0.5698 0.5972 0.5018 0.4952 0.4268
839.106 0.2147 0.197 0.34703 0.309437 0.177 0.2341 0.3549 0.419 0.4105 0.5451
858.395 0.656 0.6877 0.8032 1.1587 1.2541 1.327 2.007 2.607 3.187 3.737
877.685 4.237 5.117 6.027 6.587 7.087 7.477 7.487 7.337 7.097 6.957
896.975 6.947 6.817 6.907 7.127 7.297 7.707 8.137 8.767 9.477 10.227
916.265 11.207 12.437 14.027 15.857 18.067 20.597 23.357 26.127 28.817 31.537
935.555 34.127 36.277 37.137 36.847 36.947 37.677 38.527 39.057 39.037 38.627
954.844 37.587 35.757 33.287 30.167 26.607 22.797 19.197 16.287 13.807 11.817
974.134 10.217 9.097 8.377 7.477 6.867 6.597 6.287 6.017 5.707 5.597
993.424 5.327 4.697 4.227 3.747 3.247 2.967 2.627 2.207 2.007 2.027
1012.714 1.857 1.647 1.547 1.417 1.527 1.757 2.037 1.967 1.747 1.577
1032.003 1.427 1.317 1.2316 1.1529 0.9128 0.868 0.6325 0.4379 0.4256 0.6119
1051.293 0.7364 0.34513 0.2391 0.4969 0.5151 0.4745 0.39035 0.5391 0.7303 0.6157
1070.583 0.5259 0.65 0.8223 0.6481 0.6944 0.8918 0.69 0.451 0.189 0.2737
1089.873 0.5498 0.33425 0.5974 1.357 1.587 2.147 3.187 4.287 5.277 5.747
1109.163 5.887 5.927 5.617 4.807 3.897 3.097 2.227 1.637 1.477 1.1403
1128.452 0.6909 0.456 0.4608 0.5315 0.5441 0.6992 0.8973 0.831 0.9373 1.0816
1147.742 1.1538 1.2437 1.0312 1.1044 1.487 1.627 1.437 0.9687 0.8022 0.6401
1167.032 0.36768 0.2838 0.4197 0.5895 0.2885 0.044 0.04 0.2277 0.2322 0.2948
1186.322 0.6129 0.6353 0.5986 0.37106 0.2743 0.4387 0.6492 1.0317 1.1246 0.903
1205.611 0.973 1.357 1.427 1.407 1.947 2.437 2.817 3.647 4.487 5.277
1224.901 6.247 6.697 6.887 7.177 7.257 7.007 6.477 6.087 5.437 4.647
1244.191 4.317 3.957 3.697 3.607 3.617 3.717 3.877 4.157 4.397 4.707
1263.481 4.867 4.927 5.127 5.347 5.867 6.467 6.877 7.437 7.867 8.217
1282.771 8.317 8.317 8.347 8.167 7.707 6.987 6.167 5.507 4.937 4.287
1302.060 3.697 3.267 2.937 2.677 2.487 2.257 2.087 1.937 1.787 1.697
1321.350 1.627 1.567 1.497 1.517 1.527 1.497 1.417 1.347 1.2615 1.2235
1340.640 1.1606 1.0674 0.9591 0.8485 0.8092 0.7748 0.8018 0.7893 0.7782 0.8198
1359.930 0.8188 0.7571 0.7371 0.7937 0.7881 0.8311 0.9024 0.9356 0.9843 1.0489
1379.219 1.2065 1.377 1.517 1.747 2.057 2.337 2.547 2.637 2.657 2.597
1398.509 2.447 2.317 2.177 2.067 2.037 2.067 2.177 2.237 2.337 2.477
1417.799 2.587 2.727 2.877 3.037 3.137 3.287 3.557 3.857 4.297 4.957
1437.089 5.857 7.067 8.767 11.087 13.647 16.077 17.927 18.817 18.807 18.337
1456.378 17.397 15.617 13.347 11.257 10.057 9.907 10.847 12.887 16.047 20.787
1475.668 27.247 35.357 44.477 53.617 60.987 65.507 66.967 65.447 60.537 52.527
1494.958 42.627 32.507 24.237 18.557 15.117 13.167 11.997 11.127 10.337 9.457
1514.248 8.487 7.577 6.727 5.787 4.957 4.397 4.117 3.957 3.837 3.827
1533.538 3.907 4.057 4.207 4.327 4.457 4.637 4.787 4.947 5.207 5.567
1552.827 6.007 6.487 7.147 8.107 9.237 10.577 12.227 14.027 16.017 18.347
1572.117 20.877 23.267 25.637 28.337 30.997 33.437 35.357 36.697 37.337 37.007
1591.407 35.697 33.377 30.287 26.637 22.517 18.427 14.977 12.327 10.367 8.837
1610.697 7.657 6.817 6.147 5.467 5.057 4.817 4.447 4.157 3.947 3.757
1629.986 3.517 3.287 3.187 3.047 2.957 2.767 2.667 2.597 2.437 2.377
1649.276 2.297 2.217 2.147 2.117 2.077 1.997 2.037 2.087 2.147 2.227
1668.566 2.237 2.297 2.477 2.697 2.947 3.177 3.437 3.657 3.757 3.757
1687.856 3.757 3.707 3.457 3.187 2.977 2.787 2.697 2.837 3.057 3.207
1707.146 3.357 3.527 3.637 3.667 3.647 3.597 3.447 3.267 3.097 2.907
1726.435 2.797 2.687 2.597 2.597 2.607 2.687 2.827 2.867 2.827 2.887
1745.725 2.947 2.957 2.997 3.147 3.237 3.257 3.287 3.307 3.387 3.447
1765.015 3.497 3.577 3.647 3.717 3.807 3.927 4.057 4.287 4.517 4.767
1784.305 4.957 5.107 5.347 5.517 5.607 5.687 5.667 5.607 5.607 5.627
1803.594 5.697 5.807 5.957 6.197 6.517 6.797 7.067 7.347 7.607 7.907
1822.884 8.157 8.257 8.357 8.487 8.527 8.527 8.517 8.537 8.637 8.707
1842.174 8.767 8.897 9.107 9.417 9.767 10.107 10.427 10.837 11.367 11.967
1861.464 12.627 13.317 14.077 14.847 15.637 16.397 17.047 17.557 17.947 18.227
1880.754 18.547 18.857 19.197 19.757 20.577 21.527 22.567 23.877 25.327 26.777
1900.043 28.297 29.857 31.377 32.747 34.017 35.257 36.407 37.547 38.737 39.997
1919.333 41.577 43.477 45.737 48.417 51.417 54.727 58.367 62.227 66.357 70.707
1938.623 75.107 79.507 83.927 88.267 92.687 97.327 102.117 107.197 112.657 118.587
1957.913 125.197 132.247 139.647 147.687 156.197 165.357 175.177 185.497 196.517 208.317
1977.202 220.787 233.957 247.927 262.727 278.197 294.487 311.737 329.767 348.847 368.987
1996.492 389.767 410.817 432.207 453.807 474.897 495.127 514.507 532.497 549.067 564.597
2015.782 579.237 592.517 604.147 614.877 623.977 630.907 635.977 638.657 637.887 633.847
2035.072 626.657 616.477 604.107 589.447 573.157 556.087 538.837 521.587 504.687 489.097
2054.362 474.757 462.317 452.067 444.187 438.757 435.337 434.107 434.727 436.567 439.487
2073.651 443.347 447.827 452.647 457.437 461.547 464.937 467.777 469.397 469.357 467.577
2092.941 463.767 457.747 449.347 438.677 425.847 411.147 394.937 377.567 359.277 340.607
2112.231 321.977 303.487 285.617 268.607 252.467 237.387 223.417 210.467 198.377 187.157
2131.521 176.887 167.317 158.487 150.297 142.487 135.297 128.747 122.597 116.877 111.517
2150.810 106.447 101.727 97.247 92.977 89.027 85.417 81.927 78.607 75.607 72.907
2170.100 70.347 68.007 65.887 63.847 61.877 59.947 58.007 55.977 53.777 51.457
2189.390 48.987 46.407 43.877 41.467 39.147 36.997 35.207 33.767 32.507 31.427
2208.680 30.507 29.647 28.887 28.217 27.567 26.817 25.997 25.207 24.297 23.387
2227.970 22.477 21.477 20.457 19.397 18.377 17.407 16.377 15.287 14.277 13.307
2247.259 12.287 11.297 10.437 9.717 8.967 8.297 7.737 7.307 6.927 6.537
2266.549 6.227 6.017 5.777 5.477 5.277 5.017 4.817 4.707 4.577 4.477
2285.839 4.387 4.247 4.197 4.187 4.127 4.097 4.207 4.307 4.277 4.387
2305.129 4.547 4.617 4.707 4.777 4.777 4.737 4.727 4.717 4.687 4.687
2324.418 4.687 4.627 4.567 4.547 4.587 4.707 4.787 4.807 4.807 4.877
2343.708 4.977 5.077 5.097 5.147 5.207 5.177 5.177 5.167 5.237 5.307
2362.998 5.367 5.327 5.247 5.227 5.217 5.227 5.277 5.297 5.247 5.197
2382.288 5.187 5.167 5.167 5.177 5.167 5.117 4.967 4.847 4.797 4.727
2401.578 4.707 4.627 4.507 4.447 4.407 4.417 4.377 4.307 4.277 4.217
2420.867 4.187 4.267 4.317 4.277 4.297 4.337 4.357 4.367 4.367 4.387
2440.157 4.437 4.487 4.557 4.657 4.757 4.867 5.007 5.137 5.217 5.287
2459.447 5.257 5.197 5.167 5.147 5.127 5.027 4.937 4.867 4.807 4.827
2478.737 4.877 4.897 4.937 5.067 5.217 5.327 5.407 5.567 5.747 5.917
2498.026 6.167 6.317 6.457 6.667 6.857 7.037 7.237 7.317 7.297 7.287
2517.316 7.267 7.277 7.247 7.247 7.267 7.337 7.447 7.527 7.637 7.797
2536.606 8.017 8.257 8.567 8.837 9.237 9.617 9.907 10.277 10.657 10.987
2555.896 11.287 11.407 11.467 11.647 11.647 11.477 11.337 11.137 11.007 10.857
2575.186 10.617 10.427 10.207 9.897 9.607 9.287 8.977 8.617 8.167 7.807
2594.475 7.387 7.037 6.747 6.427 6.117 5.717 5.407 5.177 4.847 4.597
2613.765 4.407 4.237 4.117 4.007 3.897 3.797 3.667 3.527 3.437 3.407
2633.055 3.447 3.397 3.297 3.257 3.287 3.287 3.207 3.157 3.157 3.187
2652.345 3.267 3.267 3.277 3.327 3.387 3.477 3.527 3.527 3.627 3.727
2671.634 3.727 3.777 3.847 3.857 3.937 4.057 4.077 4.107 4.187 4.297
2690.924 4.387 4.477 4.567 4.637 4.747 4.987 5.167 5.267 5.377 5.587
2710.214 5.877 6.087 6.277 6.537 6.887 7.277 7.527 7.687 7.807 7.937
2729.504 8.147 8.277 8.317 8.327 8.317 8.257 8.077 7.857 7.637 7.517
2748.794 7.317 6.997 6.767 6.487 6.247 6.097 5.877 5.537 5.207 4.977
2768.083 4.707 4.507 4.357 4.277 4.027 3.707 3.547 3.337 3.237 3.017
2787.373 2.807 2.777 2.687 2.617 2.527 2.437 2.377 2.277 2.237 2.187
2806.663 2.077 2.107 2.167 2.107 2.077 2.057 1.977 1.947 1.957 1.887
2825.953 1.847 1.867 1.807 1.697 1.637 1.597 1.527 1.427 1.457 1.447
2845.242 1.377 1.317 1.2972 1.2419 1.2275 1.387 1.357 1.397 1.397 1.387
2864.532 1.427 1.2777 1.2551 1.2936 1.2277 1.2492 1.327 1.327 1.2611 1.317
2883.822 1.407 1.427 1.457 1.547 1.547 1.397 1.427 1.527 1.607 1.597
2903.112 1.567 1.657 1.707 1.767 1.947 1.927 1.777 1.897 2.127 2.177
2922.401 2.187 2.267 2.277 2.247 2.357 2.447 2.447 2.587 2.787 2.937
2941.691 2.847 2.777 2.917 2.907 3.007 3.277 3.377 3.367 3.337 3.307
2960.981 3.317 3.447 3.527 3.407 3.257 3.207 3.207 3.247 3.227 3.107
2980.271 3.007 2.937 3.037 3.077 3.017 3.007 2.957 2.787 2.667 2.827
2999.561 2.857 2.767 2.767 2.767 2.807 2.777 2.827 3.027 3.077 3.027
3018.850 3.137 3.427 3.657 3.807 3.907 4.107 4.377 4.617 4.767 4.677
3038.140 4.597 4.587 4.497 4.427 4.207 3.917 3.847 3.867 3.817 3.837
3057.430 4.037 4.297 4.747 5.317 5.957 6.797 7.877 9.257 10.697 12.087
3076.720 13.427 14.207 14.387 14.187 13.357 12.027 10.467 8.657 6.977 5.697
3096.009 4.707 3.977 3.557 3.217 2.767 2.537 2.417 2.247 2.117 1.877
3115.299 1.587 1.457 1.447 1.417 1.2447 0.9887 1.0369 1.0932 1.0333 0.935
3134.589 0.8558 0.9827 0.9797 0.8684 0.9183 0.8657 0.7528 0.692 0.6128 0.6066
3153.879 0.5262 0.40028 0.37471 0.4236 0.4345 0.34493 0.35568 0.36 0.309364 0.33538
3173.169 0.306293 0.34982 0.31806 0.351 0.312891 0.159 0.144 0.197 0.35158 0.34926
3192.458 0.2703 0.241 0.177 0.133 0.178 0.31718 0.39964 0.32294 0.2081 0.207
3211.748 0.184 0.072 0.123 0.2114 0.167 0.146 0.183 0.179 0.151 0.183
3231.038 0.2154 0.193 0.188 0.257 0.316017 0.2238 0.128 0.129 0.158 0.151
3250.328 0 0.095 0.36164 0.29759 0.161 0.119 0.174 0.187 0.148 0.2924
3269.617 0.2172 0.14 0.2513 0.2549 0.195 0.172 0.088 0.057 0.34972 0.4828
3288.907 0.35728 0.2446 0.154 0.142 0.193 0.191 0.19 0.179 0.151 0.169
3308.197 0.082 0.067 0.13 0.083 0.084 0.096 0.031 0.123 0.2338 0.156
3327.487 0.172 0.128 0.085 0.154 0.068 0.089 0.206 0.2591 0.30024 0.32235
3346.777 0.38467 0.4232 0.31815 0.3135 0.36786 0.31918 0.38622 0.2797 0.2431 0.2573
3366.066 0.105 0.084 0.147 0.33085 0.32726 0.2935 0.37721 0.33528 0.164 0.072
3385.356 0.2456 0.2864 0.195 0.206 0.2773 0.2479 0.33277 0.37499 0.2428 0.2455
3404.646 0.2761 0.2867 0.2153 0.167 0.2443 0.2636 0.199 0.38085 0.5212 0.39166
3423.936 0.4345 0.4252 0.189 0.09 0.2956 0.4533 0.4294 0.4484 0.4622 0.4413
3443.225 0.4324 0.4492 0.35233 0.30534 0.4271 0.5052 0.4146 0.4513 0.4963 0.37466
3462.515 0.2699 0.2921 0.4268 0.5204 0.5835 0.6472 0.584 0.5233 0.5782 0.44
3481.805 0.2676 0.30686 0.35761 0.5333 0.602 0.4992 0.4648 0.5637 0.5942 0.4315
3501.095 0.4142 0.35429 0.38477 0.482 0.619 0.8433 0.8273 0.7038 0.5687 0.5241
3520.385 0.5216 0.5403 0.5661 0.4331 0.37005 0.5137 0.4702 0.5002 0.5324 0.4166
3539.674 0.4911 0.5268 0.38551 0.37389 0.4798 0.4121 0.414 0.37841 0.3716 0.4178
3558.964 0.4082 0.4591 0.36341 0.2372 0.2443 0.2869 0.38271 0.4569 0.4464 0.39396
3578.254 0.449 0.4915 0.4632 0.4593 0.39478 0.4775 0.5253 0.5026 0.4748 0.4612
3597.544 0.4634 0.3425 0.4239 0.39095 0.2236 0.2613 0.37081 0.4834 0.5937 0.6054
3616.833 0.5674 0.5649 0.5811 0.513 0.4632 0.4776 0.40657 0.433 0.4886 0.5451
3636.123 0.39202 0.249 0.36263 0.4267 0.40502 0.3664 0.40252 0.4336 0.4169 0.4519
3655.413 0.4987 0.5561 0.5512 0.5787 0.6419 0.6303 0.6104 0.5092 0.4549 0.5868
3674.703 0.6502 0.633 0.6911 0.5783 0.4858 0.6355 0.5463 0.4459 0.4967 0.40088
3693.993 0.4948 0.7072 0.6923 0.6884 0.6714 0.7151 0.6857 0.6397 0.856 0.9595
3713.282 0.7261 0.4394 0.4782 0.5838 0.5182 0.5845 0.7349 0.6572 0.6042 0.5561
3732.572 0.5424 0.6369 0.6246 0.5169 0.4291 0.5618 0.6575 0.5881 0.5434 0.6062
3751.862 0.7046 0.7971 0.8907 0.9175 0.7807 0.6949 0.796 0.804 0.6692 0.7162
3771.152 0.7639 0.7954 0.7877 0.5277 0.5319 0.7875 0.9177 0.9406 0.8077 0.7615
3790.441 0.8659 0.8845 0.9064 0.9309 1.0788 1.0568 1.0422 1.0165 0.8905 0.9015
3809.731 1.0786 1.082 0.7577 0.6969 0.8453 0.896 0.9069 0.909 0.8381 0.7352
3829.021 0.8352 0.9457 0.8916 0.8252 0.9318 1.0777 1.0469 0.9499 0.9121 0.9259
3848.311 1.1072 1.2729 1.2241 1.2206 1.2077 1.2375 1.2076 1.1477 1.112 1.1507
3867.601 1.2474 1.2285 1.327 1.357 1.2384 1.347 1.417 1.317 1.427 1.507
3886.890 1.407 1.367 1.487 1.547 1.567 1.537 1.427 1.3055 1.367 1.707
3906.180 1.687 1.447 1.517 1.737 1.817 1.777 1.847 1.807 1.847 1.897
3925.470 1.857 1.827 1.907 2.067 2.037 2.077 2.197 2.197 2.067 2.187
3944.760 2.277 2.067 2.067 2.327 2.357 2.377 2.367 2.417 2.477 2.387
3964.049 2.527 2.697 2.647 2.687 2.817 2.927 2.867 2.667 2.627 2.747
3983.339 2.797 2.857 2.877 2.707 2.667 2.717 2.797 2.967 2.927 2.877
##END=
