##TITLE=4,5-Methylenedioxy-2-nitrobenzaldehyde
##JCAMP-DX=4.24
##DATA TYPE=INFRARED SPECTRUM
##ORIGIN=EPA-IR VAPOR PHASE LIBRARY
##OWNER=SRD/NIST
Collection (C) 2018 copyright by the U.S. Secretary of Commerce
on behalf of the United States of America. All rights reserved.
##CAS REGISTRY NO=712-97-0
##MOLFORM=C 8 H 5 N O 5
##$NIST SOURCE=MSDC-IR
##STATE=gas
##XUNITS=1/CM
##YUNITS=ABSORBANCE
##XFACTOR=1.
##YFACTOR=0.001
##DELTAX=1.92898
##FIRSTX=549.8
##LASTX=4000.7
##FIRSTY=2.079
##MAXX=4000.7
##MINX=549.759
##MAXY=0.114929
##MINY=0
##NPOINTS=1790
##XYDATA=(X++(Y..Y))
549.759 2.079 1.919 2.049 2.069 2.169 2.319 2.069 1.609 1.759 1.919
569.049 2.049 2.279 2.349 2.429 2.179 2.189 2.329 1.959 1.879 2.189
588.339 2.139 2.129 2.209 2.359 2.329 2.439 2.449 2.269 2.379 2.569
607.628 2.759 2.549 2.379 2.389 2.379 2.419 2.399 2.339 2.169 2.019
626.918 2.199 2.309 1.979 1.869 1.809 1.759 1.859 1.789 1.799 1.749
646.208 1.719 1.859 1.949 1.889 1.809 1.919 2.049 1.949 1.879 1.909
665.498 2.079 2.149 2.039 2.149 2.289 2.499 2.839 3.039 2.929 3.069
684.787 3.379 3.489 3.609 3.569 3.369 3.049 2.799 2.479 2.289 2.179
704.077 1.699 1.589 1.879 1.939 2.239 2.639 2.829 3.219 3.729 3.909
723.367 3.909 4.089 3.979 3.749 3.539 3.029 2.679 2.729 2.689 2.469
742.657 2.599 2.859 3.049 3.259 3.479 3.639 3.549 3.369 3.269 3.099
761.947 3.069 3.189 3.079 3.019 3.099 3.319 3.419 3.509 3.819 4.259
781.236 4.909 5.209 5.089 5.049 5.019 4.899 5.119 5.249 4.979 4.939
800.526 5.229 5.939 6.979 8.089 9.259 10.519 11.799 12.799 13.609 14.059
819.816 13.999 13.319 12.259 10.919 9.559 8.209 6.819 5.719 4.869 4.129
839.106 3.429 3.059 2.969 2.939 2.779 2.809 2.779 2.669 3.249 4.069
858.395 4.379 4.959 5.889 6.619 7.329 7.909 8.429 9.109 9.479 9.589
877.685 9.979 10.379 10.699 10.889 11.289 11.449 10.949 9.859 8.439 7.189
896.975 6.089 4.979 4.229 3.729 3.179 2.999 2.859 2.649 2.699 2.929
916.265 3.389 3.949 4.559 5.379 6.359 7.269 8.409 9.749 11.119 12.699
935.555 13.909 14.469 14.979 15.129 14.409 13.479 12.549 11.119 9.209 7.459
954.844 6.079 4.969 4.089 3.519 3.259 2.869 2.359 2.629 3.029 2.929
974.134 2.789 2.839 2.919 2.849 2.899 3.089 3.419 3.949 4.329 4.479
993.424 4.809 5.379 6.249 7.129 7.999 8.919 10.009 11.129 11.979 12.989
1012.714 13.899 14.589 15.349 16.369 17.129 17.719 18.699 19.909 21.559 23.459
1032.003 25.479 27.489 29.489 31.459 33.259 34.899 35.799 36.029 35.589 34.529
1051.293 32.789 30.519 28.369 26.199 23.349 20.489 17.649 15.029 12.939 10.739
1070.583 8.959 7.509 5.799 5.099 4.959 4.009 3.599 3.319 2.929 2.889
1089.873 3.319 3.579 3.289 3.509 4.019 3.769 3.899 4.509 5.189 5.949
1109.163 6.479 7.509 8.589 9.249 9.949 10.269 9.959 9.889 9.449 8.639
1128.452 7.789 6.629 5.649 4.899 4.339 3.899 3.329 2.859 2.319 2.189
1147.742 2.389 2.729 2.729 2.469 2.619 2.809 2.849 3.169 3.359 3.299
1167.032 3.389 3.009 3.089 2.989 2.559 2.609 2.639 2.759 2.619 2.239
1186.322 2.289 2.349 2.339 2.699 2.909 2.619 3.039 3.999 4.069 4.019
1205.611 4.739 5.069 5.139 5.689 6.199 6.359 6.209 6.319 6.479 6.729
1224.901 7.129 7.589 8.239 9.139 9.959 10.829 12.609 15.229 18.539 22.979
1244.191 28.649 35.949 44.959 55.729 68.509 82.069 94.909 105.919 112.959 114.929
1263.481 112.259 104.879 92.969 77.799 61.559 46.299 33.829 24.909 18.929 14.929
1282.771 12.289 10.269 8.879 7.829 7.079 6.779 6.519 6.259 6.239 6.339
1302.060 6.469 6.829 7.339 7.929 8.679 9.709 10.819 12.159 13.899 15.829
1321.350 17.949 20.209 22.519 24.779 26.769 28.379 29.649 30.489 30.819 30.649
1340.640 30.269 29.829 29.499 29.409 29.769 30.509 31.449 32.519 33.489 34.259
1359.930 34.569 34.229 33.319 31.899 29.899 27.619 25.269 22.959 20.979 19.389
1379.219 18.239 17.609 17.429 17.649 18.289 19.329 20.569 21.929 23.439 25.059
1398.509 26.569 27.709 28.499 29.019 29.539 30.389 31.429 32.589 33.769 34.719
1417.799 35.119 34.849 33.759 31.849 29.119 25.659 21.799 18.179 15.219 13.029
1437.089 11.549 10.689 10.239 10.059 10.199 10.639 11.339 12.259 13.499 14.949
1456.378 16.709 18.929 21.559 24.909 29.279 34.949 42.129 51.079 61.599 73.069
1475.668 83.609 91.659 95.869 95.959 91.989 84.309 73.439 60.709 48.039 37.439
1494.958 29.789 25.109 23.089 23.059 24.519 26.619 28.299 29.239 29.859 29.919
1514.248 29.419 28.279 26.429 24.879 24.299 24.779 25.989 27.739 29.909 32.449
1533.538 35.359 38.639 41.899 45.189 48.199 50.389 51.779 52.259 51.619 49.899
1552.827 47.349 44.089 40.349 36.199 32.149 28.919 26.109 23.689 21.639 19.769
1572.117 18.339 17.169 15.959 14.829 13.839 12.959 12.239 11.599 11.109 10.759
1591.407 10.559 10.609 10.799 11.119 11.729 12.329 12.789 13.189 13.359 13.189
1610.697 12.749 12.139 11.349 10.389 9.479 8.559 7.529 6.819 6.319 5.909
1629.986 5.569 5.179 4.769 4.409 4.159 3.929 3.819 3.739 3.609 3.539
1649.276 3.489 3.409 3.469 3.539 3.559 3.629 3.709 3.739 3.839 3.969
1668.566 4.089 4.229 4.489 4.819 5.069 5.309 5.669 6.119 6.789 7.709
1687.856 8.829 10.409 12.659 15.679 19.899 25.609 33.019 42.719 52.689 60.889
1707.146 64.649 64.659 65.039 65.739 61.169 50.669 38.729 28.749 21.119 15.839
1726.435 12.529 10.499 9.109 8.199 7.529 6.919 6.379 5.819 5.319 4.879
1745.725 4.499 4.179 3.919 3.779 3.729 3.619 3.469 3.389 3.319 3.179
1765.015 3.129 3.089 2.979 2.979 2.899 2.799 2.729 2.609 2.479 2.349
1784.305 2.249 2.119 2.039 2.049 1.919 1.839 1.819 1.709 1.639 1.599
1803.594 1.539 1.499 1.489 1.419 1.409 1.419 1.409 1.369 1.3055 1.309
1822.884 1.285 1.2102 1.2183 1.2324 1.2367 1.2376 1.2256 1.2485 1.2563 1.257
1842.174 1.2773 1.2831 1.2515 1.2896 1.349 1.369 1.419 1.439 1.429 1.469
1861.464 1.529 1.509 1.569 1.619 1.639 1.709 1.679 1.609 1.519 1.489
1880.754 1.489 1.389 1.329 1.329 1.2172 1.1369 1.0836 0.9937 0.9178 0.7923
1900.043 0.7748 0.8706 0.8973 0.8848 0.8494 0.8179 0.7524 0.7112 0.721 0.722
1919.333 0.7287 0.742 0.7202 0.6699 0.675 0.7674 0.7821 0.8389 0.8584 0.7496
1938.623 0.7841 0.8584 0.9238 0.9106 0.9108 0.9424 0.905 0.9396 1.0364 1.0589
1957.913 0.9939 0.9624 0.9806 0.9558 0.936 0.8968 0.8694 0.9377 0.9479 0.9307
1977.202 0.9498 0.9961 1.0376 0.9929 0.9718 0.9927 0.9997 1.0103 1.045 1.0739
1996.492 1.0426 1.0036 0.9737 0.9289 0.8779 0.8641 0.8564 0.9197 0.9501 0.9126
2015.782 0.9836 1.0004 1.0069 1.0538 1.0858 1.0699 1.1313 1.1989 1.0971 1.0686
2035.072 1.1058 1.0706 1.0476 1.0653 1.0513 1.0071 0.9885 1.0066 1.0351 0.9935
2054.362 0.9256 0.9182 0.9115 0.9479 0.974 0.9361 0.9572 0.949 0.972 1.0694
2073.651 1.0518 0.9802 0.9525 0.9496 0.915 0.9727 1.0727 1.0165 0.8827 0.7936
2092.941 0.8548 0.8776 0.7723 0.7416 0.7419 0.7333 0.7543 0.6914 0.672 0.7602
2112.231 0.7387 0.7296 0.8149 0.8023 0.7766 0.8378 0.8752 0.86 0.8942 0.9986
2131.521 0.9899 0.9529 0.9259 0.8537 0.8594 0.8043 0.7507 0.7494 0.6895 0.6783
2150.810 0.6995 0.7057 0.735 0.7303 0.6862 0.6083 0.5798 0.7003 0.7244 0.6125
2170.100 0.5522 0.5659 0.5886 0.644 0.658 0.5457 0.5183 0.5593 0.5292 0.4595
2189.390 0.4432 0.448 0.4853 0.5473 0.5959 0.6095 0.5621 0.5514 0.6462 0.681
2208.680 0.6311 0.553 0.4716 0.5421 0.5209 0.4746 0.5373 0.5215 0.5727 0.5667
2227.970 0.5478 0.5919 0.5168 0.5393 0.5657 0.5721 0.628 0.6768 0.712 0.6896
2247.259 0.6096 0.5155 0.5771 0.6538 0.6074 0.5664 0.5855 0.6392 0.7742 0.6875
2266.549 0.5625 0.6366 0.7127 0.7582 0.7119 0.7653 0.7525 0.7101 0.7648 0.7564
2285.839 0.7654 0.766 0.7773 0.8278 0.7889 0.7664 0.8454 0.9144 0.8453 0.7295
2305.129 0.7014 0.7756 0.7871 0.6623 0.6746 0.7088 0.6641 0.7187 0.7626 0.7551
2324.418 0.7631 0.8213 0.8159 0.745 0.7943 0.83 0.9075 0.92 0.9104 0.9471
2343.708 0.9116 0.9251 0.9043 0.8982 0.9218 0.9582 0.8846 0.8366 0.8335 0.8209
2362.998 0.8228 0.78 0.8197 0.8435 0.8651 0.9276 0.9099 0.8862 0.9448 0.9139
2382.288 0.8691 0.8778 0.8793 0.7796 0.7034 0.7234 0.7072 0.7474 0.7516 0.6842
2401.578 0.6579 0.6552 0.6203 0.5586 0.5973 0.6561 0.6806 0.7066 0.6517 0.599
2420.867 0.5921 0.5551 0.6252 0.6529 0.5385 0.562 0.5367 0.4852 0.4604 0.4747
2440.157 0.5327 0.4564 0.4377 0.5699 0.6013 0.5433 0.4787 0.4775 0.523 0.5165
2459.447 0.4983 0.5326 0.592 0.6123 0.6503 0.5791 0.5401 0.6008 0.5552 0.4527
2478.737 0.4801 0.5151 0.6141 0.627 0.5219 0.5953 0.5478 0.4609 0.4918 0.5147
2498.026 0.5103 0.5274 0.5798 0.5251 0.4688 0.4983 0.5301 0.5411 0.5513 0.616
2517.316 0.607 0.5504 0.6405 0.7012 0.6511 0.6295 0.6429 0.7322 0.7457 0.6459
2536.606 0.5484 0.5975 0.6425 0.6424 0.6898 0.6913 0.7171 0.7103 0.7306 0.7384
2555.896 0.7098 0.6826 0.6965 0.6859 0.668 0.6715 0.6303 0.7074 0.8664 0.8013
2575.186 0.7766 0.8503 0.8508 0.9587 0.9832 0.9953 1.0741 1.0924 1.1177 1.1773
2594.475 1.2555 1.349 1.379 1.439 1.359 1.369 1.529 1.659 1.789 1.759
2613.765 1.729 1.819 1.789 1.699 1.729 1.689 1.649 1.579 1.469 1.509
2633.055 1.509 1.419 1.409 1.329 1.389 1.419 1.2787 1.3063 1.319 1.3033
2652.345 1.349 1.369 1.489 1.489 1.379 1.319 1.399 1.509 1.409 1.399
2671.634 1.489 1.629 1.589 1.569 1.669 1.619 1.529 1.519 1.609 1.629
2690.924 1.579 1.609 1.559 1.509 1.459 1.489 1.609 1.579 1.569 1.519
2710.214 1.499 1.519 1.489 1.509 1.439 1.439 1.599 1.729 1.719 1.659
2729.504 1.739 1.829 1.889 1.909 1.899 1.949 2.039 2.009 1.899 1.949
2748.794 2.099 2.089 2.019 2.099 2.159 2.119 2.119 2.239 2.539 2.839
2768.083 2.969 3.159 3.329 3.339 3.459 3.659 3.739 3.759 3.709 3.579
2787.373 3.469 3.419 3.339 3.289 3.199 2.959 2.889 2.939 2.919 2.859
2806.663 2.839 2.939 2.989 2.939 2.979 2.999 3.019 3.119 3.239 3.279
2825.953 3.329 3.409 3.509 3.569 3.629 3.709 3.779 3.879 3.849 3.849
2845.242 3.869 3.859 4.029 4.129 4.239 4.409 4.499 4.679 4.949 5.119
2864.532 5.299 5.639 6.039 6.359 6.639 7.029 7.529 7.899 8.309 8.879
2883.822 9.399 9.859 10.429 11.009 11.489 11.979 12.319 12.579 12.759 12.909
2903.112 12.919 12.839 12.699 12.519 12.239 11.859 11.709 11.649 11.419 11.279
2922.401 11.149 11.019 10.929 10.759 10.499 10.179 9.699 9.149 8.779 8.389
2941.691 7.789 7.199 6.939 6.689 6.349 6.189 6.149 6.069 6.139 6.139
2960.981 6.139 6.289 6.259 6.249 6.289 6.199 5.909 5.689 5.439 5.139
2980.271 4.929 4.669 4.529 4.439 4.289 3.969 3.699 3.739 3.789 3.529
2999.561 3.189 3.049 3.099 3.089 3.119 3.209 3.119 3.179 3.429 3.789
3018.850 4.079 4.229 4.299 4.089 3.959 3.779 3.479 3.159 2.769 2.489
3038.140 2.129 1.899 1.869 1.909 1.749 1.609 1.849 2.009 1.999 1.859
3057.430 1.749 1.929 1.969 1.809 1.849 1.899 1.849 1.799 1.729 1.749
3076.720 1.809 1.829 1.799 1.829 1.919 1.869 1.929 1.959 1.979 2.149
3096.009 2.279 2.379 2.389 2.309 2.209 2.279 2.339 2.219 2.099 2.189
3115.299 2.129 1.979 1.919 1.849 1.689 1.429 1.2368 1.1088 1.0389 1.0526
3134.589 1.027 0.8289 0.7429 0.7341 0.6886 0.7006 0.7096 0.7004 0.7743 0.8089
3153.879 0.6343 0.4606 0.4746 0.4822 0.36004 0.32231 0.4147 0.5394 0.5457 0.39265
3173.169 0.39179 0.5463 0.6326 0.5567 0.4801 0.35924 0.3445 0.545 0.5568 0.313899
3192.458 0.15 0.2661 0.4248 0.4619 0.40123 0.33291 0.4031 0.40235 0.2987 0.34901
3211.748 0.539 0.4779 0.3775 0.3718 0.30582 0.34926 0.39604 0.4328 0.40811 0.4589
3231.038 0.7327 0.7803 0.6264 0.5611 0.5298 0.5153 0.539 0.5391 0.6593 0.6449
3250.328 0.34832 0.36504 0.5512 0.4559 0.310018 0.40691 0.4151 0.2903 0.2485 0.198
3269.617 0.2411 0.3211 0.3393 0.37867 0.39394 0.38644 0.32241 0.2638 0.3379 0.454
3288.907 0.33107 0.2411 0.30313 0.2978 0.39763 0.4186 0.18 0.187 0.33444 0.2711
3308.197 0.129 0.147 0.2197 0.2543 0.37708 0.4719 0.415 0.32254 0.2777 0.30572
3327.487 0.35102 0.34608 0.39874 0.37386 0.2383 0.2433 0.426 0.4587 0.4522 0.5105
3346.777 0.5877 0.5287 0.39369 0.4594 0.5351 0.58 0.5956 0.4681 0.4182 0.5251
3366.066 0.5855 0.5084 0.412 0.486 0.5225 0.674 0.7206 0.663 0.6847 0.7956
3385.356 0.9082 1.0582 1.379 1.509 1.519 1.589 1.749 1.609 1.519 1.569
3404.646 1.449 1.2721 1.1464 0.9323 0.7301 0.7048 0.5742 0.5442 0.6583 0.6993
3423.936 0.6534 0.5874 0.5647 0.4446 0.4675 0.5861 0.5337 0.5521 0.5084 0.4649
3443.225 0.4242 0.35014 0.39524 0.38093 0.35127 0.38854 0.36925 0.33682 0.2889 0.142
3462.515 0.162 0.31973 0.154 0.122 0.4803 0.4401 0.165 0.2548 0.2299 0.195
3481.805 0.30586 0.43 0.40822 0.2239 0.2103 0.309083 0.4443 0.30736 0.171 0.2839
3501.095 0.2837 0.2657 0.045 0.046 0.33872 0.36384 0.38823 0.39426 0.35305 0.40381
3520.385 0.33139 0.176 0.2873 0.2839 0.309104 0.3563 0.2665 0.4346 0.316717 0.086
3539.674 0.147 0.178 0.2303 0.2247 0.099 0.14 0.2095 0.2217 0.232 0.102
3558.964 0.111 0.2725 0.34592 0.4623 0.4827 0.38568 0.37511 0.2555 0.4535 0.6256
3578.254 0.339 0.038 0.132 0.34805 0.35907 0.30013 0.175 0.19 0.151 0.163
3597.544 0.2838 0.2608 0.208 0.2608 0.32231 0.32027 0.36017 0.411 0.4543 0.33503
3616.833 0.2629 0.2837 0.34172 0.40221 0.30592 0.34581 0.2754 0.179 0.179 0.127
3636.123 0.052 0.126 0.34798 0.39597 0.312537 0.2985 0.198 0.163 0.208 0.184
3655.413 0.2239 0.178 0.161 0.198 0.2801 0.34562 0.2287 0.2139 0.196 0.2472
3674.703 0.5344 0.442 0.183 0.186 0.2 0.2328 0.2157 0.187 0.209 0.056
3693.993 0.123 0.2835 0.2242 0.199 0.239 0.2312 0.152 0.126 0.202 0.2207
3713.282 0.2143 0.33131 0.37092 0.2596 0.314807 0.40694 0.265 0.119 0.181 0.2475
3732.572 0.2543 0.30054 0.33014 0.173 0 0.115 0.2421 0.196 0.2368 0.2331
3751.862 0.043 0.064 0.2481 0.32356 0.2476 0.085 0.072 0.156 0.193 0.2926
3771.152 0.2988 0.308085 0.314842 0.2985 0.2577 0.2 0.083 0.055 0.105 0.103
3790.441 0.208 0.2671 0.34366 0.4204 0.493 0.4415 0.30031 0.158 0.173 0.2262
3809.731 0.179 0.2586 0.175 0.058 0.06 0.118 0.167 0.145 0.193 0.2427
3829.021 0.196 0.144 0.2532 0.33898 0.34949 0.4098 0.40494 0.2426 0.106 0.143
3848.311 0.12 0.197 0.2671 0.318725 0.4885 0.4668 0.4142 0.4383 0.38848 0.4703
3867.601 0.5323 0.2746 0.109 0.194 0.185 0.2122 0.2286 0.2136 0.2157 0.117
3886.890 0.2138 0.193 0.195 0.4018 0.38519 0.36802 0.40318 0.2409 0.107 0.183
3906.180 0.196 0.2357 0.2316 0.205 0.30324 0.2938 0.135 0.052 0.179 0.4373
3925.470 0.2725 0.201 0.312705 0.206 0.238 0.2096 0.2411 0.294 0.2548 0.3376
3944.760 0.4765 0.4325 0.35171 0.40708 0.5179 0.38128 0.2134 0.34563 0.4403 0.4416
3964.049 0.5247 0.4919 0.4544 0.5358 0.5854 0.6142 0.6271 0.6753 0.486 0.30722
3983.339 0.38847 0.4779 0.6621 0.7713 0.7358 0.7123 0.5305 0.2213 0.295 0.4859
##END=
