##TITLE=1,2,4,5-Tetracyanobenzene
##JCAMP-DX=4.24
##DATA TYPE=INFRARED SPECTRUM
##ORIGIN=EPA-IR VAPOR PHASE LIBRARY
##OWNER=SRD/NIST
Collection (C) 2018 copyright by the U.S. Secretary of Commerce
on behalf of the United States of America. All rights reserved.
##CAS REGISTRY NO=712-74-3
##MOLFORM=C 10 H 2 N 4
##$NIST SOURCE=MSDC-IR
##STATE=gas
##XUNITS=1/CM
##YUNITS=ABSORBANCE
##XFACTOR=1.
##YFACTOR=0.001
##DELTAX=1.92898
##FIRSTX=549.8
##LASTX=4000.7
##FIRSTY=1.1975
##MAXX=4000.7
##MINX=549.759
##MAXY=0.019529
##MINY=0
##NPOINTS=1790
##XYDATA=(X++(Y..Y))
549.759 1.1975 1.1188 1.0058 1.1626 1.485 1.2574 1.2733 1.3027 1.161 1.1301
569.049 1.2854 1.5354 1.4593 1.446 1.3882 1.1163 0.9452 1.1053 1.2701 1.2516
588.339 1.0261 0.923 0.9491 1.0196 0.9435 0.947 1.2609 1.4241 1.3133 1.3312
607.628 1.4004 1.3636 1.3268 1.4067 1.5679 1.4856 1.5133 1.7242 1.7472 1.6658
626.918 1.5513 1.5867 1.6191 1.4782 1.3904 1.2511 0.9694 1.0535 1.0632 0.9999
646.208 1.1652 1.1125 1.1825 1.1251 0.81758 0.8792 0.994 0.994 1.0516 1.2797
665.498 1.5738 1.4602 1.4207 1.7052 1.809 1.899 2.029 1.869 1.779 1.6824
684.787 1.438 1.2687 1.2884 1.2862 1.1228 1.1068 1.2011 1.2202 1.2541 1.2862
704.077 1.3217 1.3625 1.3262 1.2713 1.0727 1.0484 1.2039 1.2197 1.2175 1.1347
723.367 1.0369 1.0971 1.2357 1.2404 1.2307 1.2865 1.2892 1.2829 1.3485 1.6472
742.657 1.899 2.009 2.379 2.689 2.879 3.029 2.779 2.559 2.389 2.089
761.947 1.869 1.5685 1.3322 1.1937 1.1107 1.0476 1.1033 1.0305 0.9904 1.1858
781.236 1.2506 1.3383 1.5285 1.839 2.079 2.359 2.449 2.359 2.419 2.449
800.526 2.559 2.359 2.049 1.829 1.7357 1.779 1.5413 1.3949 1.3464 1.3134
819.816 1.4067 1.2213 1.1554 1.4015 1.5278 1.5546 1.6643 1.779 1.879 1.889
839.106 1.769 1.6487 1.7065 1.6171 1.4339 1.2941 1.0972 1.0094 0.8948 0.86457
858.395 0.9769 1.0495 1.1215 1.1782 1.1775 1.091 1.1748 1.2668 1.3518 1.4126
877.685 1.4799 1.5558 1.6694 1.969 2.129 2.199 2.149 2.329 2.849 3.489
896.975 4.319 5.609 7.239 8.859 10.559 12.379 14.509 16.959 19.219 19.529
916.265 16.689 13.699 12.109 10.499 8.659 6.779 5.039 3.779 2.899 2.309
935.555 2.019 1.7712 1.6272 1.4885 1.2517 1.1204 1.1242 1.1787 1.1993 1.1585
954.844 1.0529 1.1538 1.3172 1.2877 1.3057 1.2938 1.3248 1.2833 1.2103 1.286
974.134 1.1846 1.0999 1.1851 1.1676 1.0373 1.0458 0.9041 0.77583 0.8755 0.77044
993.424 0.7315 0.83361 0.78914 0.636 0.621 0.6812 0.81707 0.8875 0.7121 0.65
1012.714 0.507 0.362 0.587 0.667 0.595 0.599 0.7645 0.82447 0.82059 0.7738
1032.003 0.679 0.608 0.551 0.6958 0.664 0.588 0.625 0.669 0.79419 0.81076
1051.293 0.911 0.87806 0.79413 1.0727 1.0183 0.77498 0.529 0.558 0.673 0.559
1070.583 0.615 0.598 0.65 0.375 0.267 0.573 0.77079 0.83929 0.87364 0.7267
1089.873 0.7214 0.7648 0.629 0.9278 0.9003 0.667 0.493 0 0.214 0.618
1109.163 0.231 0.44 0.84504 0.79069 0.599 0.565 0.7438 0.6987 0.669 1.066
1128.452 1.3129 1.2031 1.2126 1.1325 1.1161 1.1219 1.1684 0.9042 0.7005 1.1931
1147.742 1.1482 1.2156 1.3743 1.0733 1.0288 1.1952 1.3485 1.552 1.4918 1.4426
1167.032 1.6097 1.724 1.7188 1.7599 1.6958 1.7552 1.889 1.7283 1.6276 1.3604
1186.322 1.1973 1.1516 1.1107 0.9301 0.7614 0.83096 0.7522 0.641 0.582 0.573
1205.611 0.591 0.404 0.369 0.576 0.9217 0.83487 0.614 0.8073 1.166 1.5112
1224.901 1.859 1.789 1.7622 2.279 2.739 3.019 3.259 3.569 3.579 3.679
1244.191 3.769 3.699 3.569 3.399 3.529 3.769 4.349 5.049 5.579 6.029
1263.481 5.999 5.819 5.559 4.879 3.889 2.919 2.309 1.809 1.433 1.2722
1282.771 1.1643 1.0128 0.9707 1.1743 1.2028 1.0832 1.0255 1.0124 1.0629 0.9542
1302.060 0.8979 0.9499 0.9265 0.9522 0.9301 0.84743 0.80929 0.7607 0.7613 0.7679
1321.350 0.7421 0.80861 0.81073 0.79886 0.81491 0.7604 0.7305 0.7157 0.679 0.7079
1340.640 0.82603 0.9038 0.9494 0.9845 0.9872 1.1046 1.2161 1.2718 1.3238 1.3384
1359.930 1.4054 1.5243 1.7541 1.979 2.199 2.469 2.659 2.759 2.839 2.839
1379.219 2.699 2.479 2.249 1.929 1.5601 1.3217 1.1854 1.013 0.8962 0.87363
1398.509 0.87426 0.86649 0.8386 0.9138 0.9734 0.9719 1.0296 1.0955 1.1709 1.2151
1417.799 1.2496 1.3824 1.4389 1.3981 1.3817 1.3152 1.2408 1.1948 1.117 0.9881
1437.089 0.9543 0.9783 1.0094 1.1133 1.2688 1.3973 1.4896 1.6145 1.6475 1.6339
1456.378 1.6571 1.7599 1.799 1.889 2.089 2.339 2.779 3.349 4.189 5.369
1475.668 6.849 8.729 10.909 13.359 15.599 17.009 17.459 17.129 15.979 14.029
1494.958 11.429 8.499 5.849 3.919 2.799 2.119 1.6918 1.4728 1.3195 1.2709
1514.248 1.2759 1.1582 1.1259 1.1118 1.0428 0.989 0.9696 1.0229 1.0296 0.9571
1533.538 0.9439 0.9511 0.9039 0.87674 0.87767 0.86818 0.86163 0.8802 0.80049 0.7475
1552.827 0.783741 0.81833 0.8441 0.81924 0.82224 0.8634 0.8199 0.77012 0.8291 0.8831
1572.117 0.84239 0.81178 0.83272 0.83657 0.85287 0.9381 0.92 0.87723 0.879 0.9089
1591.407 0.937 0.87086 0.8405 0.83818 0.8279 0.82748 0.86493 0.86284 0.782521 0.79246
1610.697 0.85312 0.83027 0.7553 0.7628 0.7561 0.671 0.654 0.678 0.6806 0.6937
1629.986 0.7585 0.7182 0.619 0.694 0.8164 0.7485 0.7499 0.86726 0.8954 0.9589
1649.276 0.956 0.9237 0.9284 0.9121 0.924 0.9368 0.9409 0.86382 0.7478 0.7151
1668.566 0.7207 0.6924 0.6918 0.6901 0.7009 0.7307 0.6987 0.661 0.618 0.601
1687.856 0.613 0.7043 0.782223 0.7144 0.637 0.628 0.61 0.624 0.677 0.682
1707.146 0.671 0.671 0.626 0.548 0.567 0.608 0.591 0.622 0.651 0.652
1726.435 0.61 0.583 0.664 0.668 0.638 0.663 0.667 0.7032 0.7445 0.79229
1745.725 0.7687 0.742 0.7359 0.7062 0.7724 0.82694 0.85262 0.9101 0.957 1.0614
1765.015 1.1887 1.2364 1.348 1.4682 1.523 1.4832 1.4717 1.4352 1.2961 1.219
1784.305 1.0749 0.9775 1.02 1.0149 1.0242 1.1251 1.2377 1.3904 1.4913 1.6286
1803.594 1.909 2.109 2.269 2.459 2.619 2.679 2.619 2.489 2.369 2.249
1822.884 2.069 1.789 1.4855 1.3249 1.2298 1.0864 1.0021 0.9179 0.85464 0.87167
1842.174 0.84971 0.80229 0.79572 0.7969 0.82039 0.83025 0.84346 0.82495 0.81373 0.83881
1861.464 0.84502 0.81097 0.786472 0.80008 0.7315 0.7086 0.7317 0.7657 0.77283 0.7657
1880.754 0.77715 0.78412 0.781991 0.7147 0.717 0.80385 0.82147 0.83525 0.81693 0.79946
1900.043 0.80726 0.77414 0.7523 0.782982 0.787362 0.7389 0.7214 0.7554 0.7607 0.708
1919.333 0.6864 0.7606 0.79682 0.79766 0.8124 0.779944 0.80827 0.82128 0.82363 0.8408
1938.623 0.80926 0.78956 0.77005 0.7648 0.786906 0.7335 0.7205 0.7611 0.7633 0.7427
1957.913 0.7669 0.83365 0.81374 0.77295 0.77016 0.768 0.753 0.79143 0.80554 0.7618
1977.202 0.7671 0.79854 0.80171 0.77756 0.7993 0.8518 0.8817 0.86669 0.82571 0.787802
1996.492 0.7434 0.7493 0.79979 0.79981 0.7689 0.7731 0.82646 0.83509 0.80568 0.784279
2015.782 0.82182 0.8569 0.83695 0.85011 0.81467 0.77274 0.80114 0.81282 0.80734 0.82953
2035.072 0.87509 0.83237 0.787136 0.77608 0.7631 0.788884 0.7666 0.79721 0.81571 0.82417
2054.362 0.8852 0.83167 0.7612 0.7417 0.7659 0.8082 0.79387 0.81943 0.86263 0.86184
2073.651 0.77398 0.677 0.6907 0.753 0.784955 0.81959 0.86348 0.82519 0.7477 0.7165
2092.941 0.7394 0.7468 0.77866 0.80928 0.80495 0.81481 0.82765 0.80177 0.82045 0.8876
2112.231 0.87277 0.86799 0.9366 0.8931 0.8884 0.9723 0.87814 0.8844 0.9271 0.8828
2131.521 0.86677 0.85853 0.9044 0.9137 0.85468 0.82486 0.85 0.83201 0.77405 0.82122
2150.810 0.8979 0.86395 0.81819 0.84142 0.87017 0.84699 0.79411 0.79102 0.87163 0.8961
2170.100 0.8906 0.9116 0.909 0.9524 0.9098 0.86875 0.9166 0.9032 0.9154 0.9083
2189.390 0.9153 0.9817 0.9965 1.0279 1.0843 1.115 1.1541 1.242 1.3025 1.3457
2208.680 1.4257 1.3931 1.3543 1.398 1.4488 1.5318 1.6176 1.6811 1.789 2.029
2227.970 2.399 2.839 3.399 4.089 4.849 5.459 5.839 6.019 5.839 5.469
2247.259 4.889 4.079 3.179 2.399 1.889 1.4507 1.1555 0.9977 0.8807 0.85837
2266.549 0.81452 0.77478 0.782381 0.77674 0.82924 0.80853 0.79222 0.84589 0.87497 0.85106
2285.839 0.79596 0.77544 0.82671 0.9018 0.8976 0.85702 0.84355 0.85312 0.85371 0.84158
2305.129 0.8807 0.87562 0.81176 0.772 0.7368 0.7141 0.7429 0.747 0.80266 0.85516
2324.418 0.80545 0.84262 0.83943 0.7914 0.83475 0.87614 0.8943 0.9335 0.9979 1.0887
2343.708 1.1249 1.1293 1.1843 1.1825 1.1283 1.1387 1.0971 1.0499 1.0218 0.948
2362.998 0.8948 0.85749 0.85639 0.84667 0.81142 0.83284 0.85418 0.81866 0.783634 0.8141
2382.288 0.8421 0.78998 0.7607 0.8092 0.80648 0.78751 0.84338 0.87478 0.87366 0.86046
2401.578 0.784163 0.7402 0.7515 0.7471 0.77351 0.7638 0.726 0.7622 0.8367 0.83955
2420.867 0.80975 0.80001 0.87029 0.9312 0.9461 0.993 1.0235 1.0636 1.0845 1.1232
2440.157 1.1671 1.129 1.1103 1.1171 1.0629 1.0945 1.1947 1.1594 1.1114 1.0441
2459.447 0.9246 0.9116 0.9349 0.9044 0.8761 0.84414 0.77783 0.81887 0.85011 0.79072
2478.737 0.7649 0.7484 0.778912 0.7521 0.645 0.6797 0.7616 0.7572 0.7413 0.736
2498.026 0.7516 0.7676 0.783155 0.77264 0.7443 0.78909 0.782964 0.672 0.665 0.7165
2517.316 0.6839 0.7022 0.7507 0.79471 0.7613 0.7406 0.7246 0.669 0.669 0.6872
2536.606 0.7364 0.756 0.7651 0.80576 0.7567 0.7051 0.7008 0.6811 0.7411 0.7458
2555.896 0.7432 0.79505 0.81076 0.79748 0.7579 0.85453 0.9009 0.85427 0.9081 0.87168
2575.186 0.78552 0.83033 0.8967 0.8901 0.85845 0.778204 0.7248 0.728 0.746 0.7589
2594.475 0.77709 0.81867 0.79568 0.7458 0.79472 0.84692 0.80362 0.749 0.7455 0.785224
2613.765 0.7538 0.7305 0.80588 0.778786 0.7158 0.7288 0.7257 0.780171 0.83991 0.82223
2633.055 0.83885 0.81152 0.7498 0.6931 0.7052 0.7516 0.7053 0.7157 0.7658 0.662
2652.345 0.591 0.709 0.7481 0.678 0.682 0.7311 0.7605 0.7502 0.79026 0.81019
2671.634 0.7538 0.7668 0.7293 0.7148 0.7498 0.80278 0.9036 0.86566 0.83011 0.8912
2690.924 0.86641 0.82852 0.8833 0.923 0.87201 0.9008 0.9025 0.8827 0.86984 0.86274
2710.214 0.9092 0.8848 0.87128 0.9213 0.9554 0.87331 0.81669 0.82716 0.8801 0.9357
2729.504 0.9354 0.8995 0.9702 1.1134 1.1432 1.1539 1.0882 1.0588 1.1149 1.0521
2748.794 1.0741 1.142 1.1466 1.0753 0.9712 0.9327 0.87722 0.87464 0.79635 0.79484
2768.083 0.9143 0.893 0.79909 0.7443 0.7344 0.7314 0.82171 0.87475 0.81762 0.79886
2787.373 0.80187 0.85543 0.8945 0.85732 0.81058 0.77081 0.7542 0.7514 0.7636 0.7217
2806.663 0.7287 0.7681 0.7389 0.695 0.662 0.77104 0.80411 0.654 0.642 0.636
2825.953 0.645 0.762 0.7671 0.7609 0.7618 0.66 0.676 0.6887 0.649 0.6881
2845.242 0.67 0.636 0.7514 0.81593 0.7659 0.81505 0.82316 0.77329 0.7151 0.7017
2864.532 0.6822 0.672 0.7524 0.76931 0.7468 0.7631 0.7195 0.63 0.573 0.609
2883.822 0.7189 0.6848 0.611 0.7038 0.7615 0.7338 0.7008 0.81227 0.9502 0.8794
2903.112 0.77291 0.788031 0.7614 0.62 0.7034 0.82412 0.85092 0.87444 0.86858 0.81861
2922.401 0.7295 0.85301 0.9152 0.9029 0.9314 0.85027 0.7523 0.679 0.614 0.653
2941.691 0.7296 0.784522 0.788789 0.7655 0.782132 0.80664 0.8843 0.87871 0.8873 0.9695
2960.981 0.9549 0.9061 0.8828 0.83136 0.8877 0.8818 0.80071 0.8448 0.83 0.83476
2980.271 0.7553 0.676 0.758 0.82716 0.79309 0.7222 0.6876 0.656 0.6962 0.77565
2999.561 0.77727 0.7319 0.742 0.7611 0.7218 0.7365 0.84096 0.83909 0.8308 0.9072
3018.850 0.8969 0.83917 0.9122 0.9497 0.86064 0.8464 0.9146 0.914 0.9927 1.0845
3038.140 1.1346 1.2852 1.3808 1.4873 1.5404 1.5546 1.6659 1.7642 1.6564 1.4953
3057.430 1.4791 1.4471 1.3307 1.1295 1.0831 1.152 1.0082 0.87435 0.9356 0.9315
3076.720 0.81942 0.77305 0.783369 0.84102 0.9116 1.0165 1.1092 1.0953 1.0878 1.0782
3096.009 1.1137 1.1908 1.2831 1.4114 1.5099 1.5713 1.6917 1.7281 1.6677 1.6915
3115.299 1.7047 1.6532 1.5681 1.3485 1.1619 1.0281 0.9345 0.9519 0.85971 0.9069
3134.589 0.9056 0.7316 0.7448 0.7286 0.6 0.537 0.653 0.782603 0.596 0.501
3153.879 0.643 0.7079 0.6919 0.7029 0.6838 0.652 0.7053 0.661 0.605 0.6828
3173.169 0.637 0.594 0.669 0.6843 0.568 0.556 0.7539 0.8313 0.604 0.564
3192.458 0.647 0.521 0.525 0.588 0.604 0.637 0.607 0.53 0.578 0.633
3211.748 0.638 0.67 0.6999 0.7612 0.739 0.654 0.661 0.667 0.641 0.666
3231.038 0.63 0.585 0.571 0.503 0.519 0.502 0.489 0.539 0.6814 0.82467
3250.328 0.7173 0.608 0.606 0.568 0.611 0.626 0.609 0.65 0.611 0.58
3269.617 0.597 0.618 0.585 0.57 0.645 0.64 0.611 0.623 0.652 0.681
3288.907 0.7078 0.79779 0.7402 0.7307 0.79324 0.6902 0.663 0.6901 0.607 0.593
3308.197 0.7531 0.737 0.583 0.603 0.662 0.7286 0.782946 0.6792 0.596 0.6
3327.487 0.6834 0.7045 0.653 0.7695 0.7654 0.636 0.7419 0.8863 0.758 0.628
3346.777 0.7154 0.688 0.557 0.666 0.7562 0.633 0.662 0.7087 0.6803 0.6907
3366.066 0.7684 0.82445 0.664 0.578 0.576 0.626 0.7447 0.675 0.633 0.612
3385.356 0.614 0.558 0.528 0.639 0.584 0.614 0.6835 0.607 0.679 0.81385
3404.646 0.79663 0.7209 0.6862 0.7358 0.77251 0.84492 0.82544 0.780352 0.7651 0.649
3423.936 0.7175 0.785058 0.780369 0.7487 0.7159 0.7567 0.7448 0.7125 0.648 0.6811
3443.225 0.7134 0.631 0.598 0.637 0.7034 0.715 0.632 0.6 0.657 0.639
3462.515 0.669 0.77531 0.80204 0.79777 0.8351 0.82344 0.79885 0.9022 0.83245 0.81475
3481.805 0.9285 0.95 0.9442 0.9111 0.86038 0.7616 0.634 0.7026 0.8575 0.7423
3501.095 0.625 0.642 0.82981 0.9598 0.6841 0.639 0.81426 0.6886 0.635 0.7266
3520.385 0.7589 0.6975 0.7417 0.77505 0.656 0.629 0.557 0.566 0.684 0.584
3539.674 0.557 0.596 0.514 0.58 0.7606 0.77417 0.67 0.6888 0.591 0.551
3558.964 0.602 0.594 0.636 0.668 0.597 0.451 0.569 0.7131 0.658 0.7274
3578.254 0.7523 0.642 0.641 0.6946 0.679 0.674 0.7647 0.723 0.7176 0.86511
3597.544 0.783141 0.658 0.6957 0.7579 0.77181 0.629 0.66 0.81708 0.65 0.62
3616.833 0.6936 0.601 0.678 0.7142 0.662 0.7021 0.671 0.6794 0.81055 0.8318
3636.123 0.6975 0.507 0.542 0.65 0.6836 0.739 0.661 0.577 0.607 0.7012
3655.413 0.7156 0.626 0.631 0.7054 0.7527 0.7642 0.7055 0.626 0.57 0.606
3674.703 0.58 0.533 0.621 0.639 0.641 0.7664 0.7376 0.626 0.7478 0.7648
3693.993 0.6879 0.77238 0.7501 0.6869 0.7309 0.7203 0.609 0.592 0.6981 0.7614
3713.282 0.7523 0.81407 0.84658 0.6989 0.7176 0.80204 0.7633 0.649 0.618 0.661
3732.572 0.7258 0.81862 0.8109 0.77362 0.644 0.514 0.594 0.647 0.645 0.79609
3751.862 0.7684 0.6958 0.7285 0.7615 0.86529 0.85774 0.80908 0.667 0.629 0.7213
3771.152 0.80709 0.7615 0.657 0.7343 0.77612 0.7966 0.7653 0.7058 0.613 0.592
3790.441 0.7247 0.82754 0.83623 0.8695 0.82915 0.7441 0.76964 0.81681 0.79859 0.7589
3809.731 0.79852 0.82483 0.7729 0.668 0.77121 0.81463 0.718 0.7066 0.7195 0.7391
3829.021 0.7142 0.7173 0.7125 0.7256 0.79155 0.611 0.518 0.7396 0.6949 0.61
3848.311 0.6876 0.622 0.655 0.80385 0.77379 0.6972 0.604 0.562 0.62 0.7287
3867.601 0.7006 0.638 0.7047 0.6821 0.613 0.7486 0.79925 0.601 0.658 0.7077
3886.890 0.535 0.531 0.624 0.79077 0.81572 0.7659 0.757 0.667 0.636 0.62
3906.180 0.6814 0.7096 0.652 0.603 0.614 0.524 0.467 0.559 0.6798 0.649
3925.470 0.615 0.7612 0.667 0.667 0.85394 0.81517 0.6901 0.598 0.648 0.663
3944.760 0.475 0.528 0.623 0.575 0.648 0.676 0.606 0.659 0.86179 0.7482
3964.049 0.612 0.7064 0.7324 0.7077 0.658 0.632 0.625 0.7387 0.7469 0.7161
3983.339 0.7272 0.7619 0.7214 0.589 0.702 0.7172 0.646 0.7513 0.7365 0.656
##END=
