##TITLE=Methanesulphonic anhydride
##JCAMP-DX=4.24
##DATA TYPE=INFRARED SPECTRUM
##ORIGIN=EPA-IR VAPOR PHASE LIBRARY
##OWNER=SRD/NIST
Collection (C) 2018 copyright by the U.S. Secretary of Commerce
on behalf of the United States of America. All rights reserved.
##CAS REGISTRY NO=7143-01-3
##MOLFORM=C 2 H 6 O 5 S 2
##$NIST SOURCE=MSDC-IR
##STATE=gas
##XUNITS=1/CM
##YUNITS=ABSORBANCE
##XFACTOR=1.
##YFACTOR=0.001
##DELTAX=1.929
##FIRSTX=549.8
##LASTX=4000.8
##FIRSTY=30.133
##MAXX=4000.75
##MINX=549.766
##MAXY=0.243133
##MINY=0
##NPOINTS=1790
##XYDATA=(X++(Y..Y))
549.766 30.133 28.343 26.343 23.463 20.343 17.663 15.773 14.333 13.183 11.703
569.056 9.933 8.533 7.063 5.643 4.663 3.963 3.343 3.003 2.793 2.583
588.346 2.373 2.103 1.933 1.903 1.893 1.8432 1.893 1.7643 1.6715 1.7339
607.636 1.6912 1.6364 1.6701 1.7713 1.796 1.8086 1.8412 1.7675 1.6539 1.707
626.926 1.8015 1.833 1.953 2.053 1.993 2.013 2.083 2.113 2.243 2.293
646.216 2.303 2.443 2.533 2.593 2.673 2.623 2.733 2.943 3.153 3.423
665.506 3.663 3.953 4.363 4.693 5.283 6.163 7.263 8.483 10.033 12.043
684.796 14.373 17.263 20.603 24.263 28.363 32.743 37.173 41.613 45.993 50.303
704.086 54.663 59.113 63.653 68.313 72.023 73.693 73.363 71.633 69.763 68.393
723.376 66.873 64.003 59.403 53.713 47.653 41.373 35.263 29.813 24.873 20.783
742.666 17.753 15.453 13.993 13.343 12.963 13.113 14.023 15.453 17.453 20.063
761.956 23.333 27.293 31.973 37.473 43.733 50.613 58.273 66.613 75.333 84.313
781.246 93.203 101.723 109.613 116.453 121.943 125.933 128.483 130.113 131.253 131.093
800.536 128.113 121.293 111.223 101.003 93.013 86.133 78.583 69.483 58.783 47.653
819.826 37.213 28.523 21.663 16.523 13.043 10.533 8.803 7.653 6.743 6.153
839.116 5.743 5.253 4.763 4.483 4.313 4.073 3.893 3.733 3.633 3.583
858.406 3.613 3.623 3.573 3.553 3.523 3.533 3.613 3.643 3.673 3.743
877.696 3.963 4.143 4.113 4.253 4.453 4.593 4.703 4.833 5.033 5.153
896.986 5.313 5.573 5.753 5.983 6.203 6.473 6.783 7.033 7.303 7.713
916.276 8.203 8.663 9.153 9.803 10.523 11.333 12.323 13.433 14.703 16.183
935.566 18.013 20.303 23.153 26.613 30.913 36.263 42.743 50.523 59.453 69.113
954.856 78.983 88.423 96.583 103.043 107.893 111.973 117.193 125.043 134.423 135.763
974.146 128.273 125.663 129.473 133.683 135.923 135.763 134.243 132.763 132.603 134.543
993.436 138.553 144.273 151.153 158.433 165.573 172.233 178.243 183.683 188.843 193.193
1012.726 194.903 192.383 187.023 182.033 177.623 171.323 161.863 149.383 135.343 121.333
1032.016 107.493 94.083 81.473 69.833 59.543 50.903 43.943 38.153 33.363 29.563
1051.306 26.553 24.033 21.803 20.033 18.533 17.153 15.933 14.863 13.893 12.913
1070.596 12.093 11.403 10.763 10.223 9.673 9.123 8.673 8.353 8.043 7.743
1089.886 7.513 7.213 7.023 6.993 6.853 6.723 6.603 6.443 6.393 6.403
1109.176 6.373 6.333 6.293 6.283 6.283 6.233 6.203 6.133 6.113 6.223
1128.467 6.263 6.373 6.533 6.733 7.113 7.653 8.253 9.003 10.083 11.443
1147.757 13.203 15.513 18.403 22.043 26.613 32.303 39.343 47.613 57.283 68.303
1167.047 80.353 93.433 107.073 120.163 132.023 142.533 151.753 160.483 170.203 181.753
1186.337 193.823 201.803 200.313 187.583 168.283 150.643 139.353 132.623 126.203 117.243
1205.627 105.203 91.203 76.033 61.353 48.043 36.813 28.203 21.703 17.043 13.683
1224.917 11.413 10.003 9.013 8.293 7.783 7.423 7.183 7.003 6.833 6.583
1244.207 6.333 6.253 6.113 5.953 5.863 5.793 5.643 5.473 5.443 5.383
1263.497 5.333 5.363 5.323 5.313 5.333 5.283 5.263 5.383 5.473 5.643
1282.787 5.813 5.943 6.203 6.433 6.703 7.013 7.443 7.993 8.603 9.313
1302.077 10.123 11.093 12.223 13.543 15.023 16.603 18.323 20.113 21.933 23.783
1321.367 25.653 27.563 29.833 32.633 35.963 39.583 42.863 45.513 48.023 51.043
1340.657 55.023 60.203 66.553 73.933 82.163 91.023 100.413 110.203 120.313 130.763
1359.947 141.783 153.923 167.643 182.713 198.783 214.693 227.603 234.953 237.233 237.633
1379.237 238.633 240.733 242.853 243.133 239.723 231.913 220.123 205.483 189.473 173.673
1398.527 158.363 143.713 130.803 118.523 106.243 93.993 81.933 70.483 60.233 51.373
1417.817 44.143 38.133 33.523 30.133 27.483 25.303 23.443 21.893 20.563 19.383
1437.107 18.253 17.153 16.163 15.303 14.463 13.683 12.973 12.403 11.983 11.713
1456.397 11.623 11.453 11.183 10.883 10.623 10.423 10.313 10.273 10.063 9.653
1475.687 9.373 9.183 8.973 8.803 8.583 8.323 8.113 7.883 7.663 7.473
1494.977 7.273 7.063 6.853 6.653 6.473 6.343 6.133 5.943 5.823 5.673
1514.267 5.503 5.373 5.213 5.033 4.823 4.633 4.503 4.333 4.203 4.023
1533.557 3.853 3.753 3.653 3.653 3.623 3.533 3.463 3.383 3.323 3.263
1552.847 3.253 3.253 3.253 3.283 3.233 3.183 3.163 3.183 3.163 3.113
1572.137 3.103 3.123 3.093 3.033 2.973 2.913 2.883 2.833 2.773 2.713
1591.427 2.663 2.633 2.593 2.503 2.433 2.403 2.353 2.263 2.203 2.183
1610.717 2.113 2.043 2.033 1.973 1.883 1.8416 1.7689 1.6698 1.6193 1.6135
1630.007 1.5782 1.5277 1.501 1.4859 1.408 1.3408 1.3722 1.375 1.3424 1.3491
1649.297 1.3826 1.4534 1.4935 1.4575 1.4301 1.4151 1.4095 1.463 1.52 1.612
1668.587 1.6842 1.681 1.7242 1.7684 1.8174 1.883 1.933 2.003 2.113 2.213
1687.877 2.253 2.273 2.323 2.393 2.503 2.583 2.653 2.693 2.693 2.773
1707.167 2.853 2.923 2.983 3.033 3.113 3.203 3.233 3.203 3.253 3.313
1726.457 3.313 3.293 3.193 3.113 3.063 2.953 2.823 2.623 2.393 2.233
1745.747 2.083 1.923 1.7726 1.602 1.469 1.3232 1.215 1.1431 1.0813 1.0275
1765.037 0.9724 0.9643 0.91862 0.93733 1.0016 1.0094 1.0166 1.0246 1.0587 1.0726
1784.327 1.0939 1.1294 1.1152 1.1515 1.1979 1.143 1.1501 1.2296 1.2577 1.2617
1803.617 1.2454 1.2765 1.3152 1.292 1.2876 1.266 1.2435 1.2162 1.1583 1.121
1822.907 1.0922 1.0367 0.9857 0.9841 0.95017 0.872591 0.843 0.8282 0.7824 0.763
1842.197 0.753 0.742 0.74 0.738 0.742 0.73 0.761 0.7746 0.747 0.7754
1861.487 0.7984 0.8247 0.867361 0.8996 0.93753 0.93907 0.92785 0.94078 0.93928 0.93904
1880.777 0.94342 0.94973 0.9664 0.9845 0.978 0.9961 1.0081 1.0306 1.0496 1.0136
1900.067 0.9957 0.9683 0.94689 0.95129 0.9868 0.9861 0.95612 0.94142 0.91069 0.88166
1919.357 0.85319 0.8464 0.8462 0.85335 0.8929 0.8442 0.7906 0.7917 0.7883 0.8285
1938.647 0.87425 0.90839 0.89278 0.88396 0.88036 0.8455 0.86191 0.89267 0.94087 1.0098
1957.937 1.0236 0.9989 0.9761 0.9924 1.0457 1.0713 1.0886 1.0845 1.0716 1.0884
1977.227 1.1198 1.149 1.1458 1.1493 1.1834 1.2155 1.2473 1.2701 1.2757 1.2686
1996.517 1.2692 1.3127 1.2941 1.2514 1.3083 1.3366 1.3341 1.3371 1.3438 1.3475
2015.807 1.3657 1.4155 1.3986 1.3617 1.3283 1.3141 1.3315 1.3029 1.2587 1.2377
2035.097 1.2073 1.192 1.2104 1.1718 1.1283 1.0973 1.0203 0.9636 0.95435 0.94885
2054.387 0.8841 0.8107 0.8215 0.7654 0.705 0.739 0.737 0.724 0.694 0.689
2073.677 0.708 0.703 0.707 0.736 0.752 0.7689 0.739 0.707 0.76 0.7941
2092.967 0.7957 0.797 0.8011 0.7916 0.8211 0.87106 0.85317 0.87467 0.88633 0.90683
2112.257 0.96128 0.9822 0.9932 0.984 0.98 0.9798 0.9958 0.9915 1.0107 1.018
2131.547 0.9995 1.0249 1.0258 1.0095 0.9962 0.9907 0.9991 1.0099 1.0068 0.94293
2150.837 0.9204 0.967 0.94723 0.8936 0.8811 0.865827 0.8296 0.8243 0.847 0.86164
2170.127 0.8307 0.7868 0.7841 0.757 0.716 0.705 0.718 0.707 0.668 0.674
2189.417 0.676 0.656 0.626 0.61 0.614 0.596 0.611 0.619 0.576 0.538
2208.707 0.548 0.586 0.55 0.524 0.537 0.512 0.516 0.483 0.433 0.46
2227.997 0.456 0.44 0.467 0.448 0.455 0.5 0.517 0.501 0.429 0.415
2247.287 0.469 0.469 0.429 0.418 0.436 0.458 0.489 0.508 0.522 0.512
2266.577 0.486 0.524 0.563 0.606 0.633 0.625 0.641 0.69 0.7634 0.8038
2285.868 0.8459 0.87373 0.88531 0.9914 1.0051 0.9813 0.9968 0.9851 0.9759 0.94409
2305.158 0.89163 0.87525 0.89058 0.868916 0.85934 0.8058 0.742 0.726 0.692 0.627
2324.448 0.611 0.672 0.687 0.653 0.675 0.724 0.769 0.7865 0.8287 0.89758
2343.738 0.94186 0.93533 0.94229 1.0167 1.0792 1.1293 1.1466 1.1292 1.1809 1.2735
2363.028 1.307 1.2623 1.2603 1.2868 1.2453 1.2134 1.2014 1.1941 1.1577 1.1087
2382.318 1.076 1.031 0.94102 0.85715 0.8308 0.8094 0.7668 0.729 0.687 0.617
2401.608 0.545 0.483 0.467 0.448 0.397 0.373 0.366 0.323 0.318 0.369
2420.898 0.4 0.389 0.376 0.325 0.279 0.306 0.334 0.331 0.303 0.264
2440.188 0.24 0.242 0.261 0.265 0.269 0.271 0.255 0.268 0.253 0.211
2459.478 0.21 0.239 0.26 0.258 0.253 0.241 0.258 0.293 0.246 0.25
2478.768 0.306 0.294 0.269 0.302 0.294 0.24 0.272 0.333 0.365 0.359
2498.058 0.373 0.405 0.423 0.468 0.468 0.457 0.465 0.502 0.544 0.567
2517.348 0.623 0.73 0.8339 0.90175 0.90708 0.93625 0.9997 1.0583 1.1622 1.2712
2536.638 1.31 1.371 1.436 1.4393 1.5113 1.6166 1.7 1.6871 1.6813 1.7275
2555.928 1.775 1.7977 1.7925 1.8044 1.7479 1.6986 1.6351 1.5723 1.566 1.531
2575.218 1.4449 1.3486 1.2523 1.1223 1.0356 1.0132 1.026 0.971 0.85316 0.796
2594.508 0.717 0.593 0.548 0.565 0.559 0.551 0.575 0.571 0.58 0.624
2613.798 0.638 0.616 0.643 0.677 0.633 0.597 0.62 0.663 0.684 0.696
2633.088 0.681 0.683 0.664 0.578 0.572 0.625 0.611 0.583 0.571 0.521
2652.378 0.473 0.448 0.459 0.415 0.349 0.356 0.332 0.284 0.289 0.254
2671.668 0.219 0.225 0.227 0.242 0.244 0.215 0.158 0.138 0.156 0.185
2690.958 0.158 0.129 0.167 0.206 0.224 0.223 0.209 0.173 0.195 0.197
2710.248 0.159 0.165 0.157 0.182 0.192 0.21 0.172 0.147 0.188 0.159
2729.538 0.203 0.227 0.185 0.185 0.198 0.194 0.162 0.155 0.207 0.274
2748.828 0.302 0.293 0.32 0.289 0.274 0.286 0.271 0.298 0.27 0.307
2768.118 0.328 0.273 0.275 0.283 0.263 0.332 0.35 0.308 0.315 0.301
2787.408 0.351 0.43 0.436 0.456 0.539 0.558 0.52 0.545 0.587 0.615
2806.698 0.745 0.8495 0.869204 0.91715 1.0259 1.1689 1.2743 1.4423 1.6809 1.855
2825.988 1.963 2.223 2.603 2.823 3.133 3.563 3.893 4.213 4.513 4.783
2845.278 5.053 5.333 5.623 5.883 5.973 5.923 5.943 5.983 5.933 5.903
2864.568 5.843 5.683 5.423 5.163 4.963 4.753 4.533 4.393 4.343 4.223
2883.858 4.053 3.963 3.943 3.973 4.063 4.123 4.153 4.233 4.373 4.483
2903.148 4.653 4.843 4.923 4.993 5.223 5.433 5.573 5.753 5.833 5.893
2922.438 5.993 6.253 6.533 6.783 7.153 7.633 8.223 8.963 9.933 11.193
2941.728 12.653 14.303 16.213 18.243 20.273 22.053 23.383 24.313 24.943 25.513
2961.018 26.333 27.473 28.453 28.373 26.863 25.283 24.553 24.143 23.523 22.463
2980.308 20.863 18.843 16.713 14.753 13.133 11.753 10.803 10.153 9.573 9.183
2999.598 9.083 9.083 9.003 9.003 9.123 9.313 9.513 9.573 9.483 9.323
3018.888 9.263 9.323 9.243 9.083 8.993 8.913 8.793 8.653 8.533 8.353
3038.178 8.013 7.503 7.073 6.783 6.393 6.023 5.803 5.553 5.253 4.913
3057.468 4.573 4.293 4.103 3.853 3.673 3.563 3.353 3.173 3.183 3.163
3076.758 2.973 2.863 2.763 2.743 2.853 2.763 2.563 2.543 2.543 2.513
3096.048 2.483 2.363 2.333 2.233 2.103 2.073 2.053 2.013 1.923 1.8378
3115.338 1.7587 1.7278 1.6448 1.5035 1.4852 1.5777 1.5699 1.4527 1.3216 1.3103
3134.628 1.3043 1.2472 1.1056 0.9981 1.032 1.0656 1.0524 0.9901 0.91951 0.89008
3153.918 0.85708 0.726 0.707 0.716 0.613 0.552 0.512 0.521 0.518 0.419
3173.208 0.375 0.343 0.27 0.287 0.286 0.25 0.226 0.173 0.261 0.291
3192.498 0.19 0.199 0.243 0.299 0.299 0.251 0.224 0.171 0.202 0.203
3211.788 0.16 0.133 0.061 0.144 0.189 0.125 0.08 0.066 0.118 0.145
3231.078 0.086 0.127 0.143 0.146 0.209 0.17 0.098 0.051 0.061 0.052
3250.368 0.055 0.105 0.18 0.169 0.229 0.338 0.234 0.237 0.303 0.177
3269.658 0.129 0.22 0.23 0.18 0.131 0.18 0.216 0.128 0.174 0.194
3288.948 0.164 0.13 0.064 0.156 0.166 0.144 0.203 0.128 0.051 0.151
3308.238 0.192 0.067 0.027 0.171 0.195 0.068 0 0.017 0.072 0.121
3327.528 0.112 0.103 0.141 0.045 0.041 0.169 0.126 0.226 0.362 0.282
3346.818 0.259 0.302 0.25 0.114 0.078 0.184 0.215 0.157 0.24 0.418
3366.108 0.335 0.232 0.283 0.26 0.282 0.338 0.313 0.228 0.212 0.24
3385.398 0.311 0.219 0.111 0.184 0.217 0.194 0.341 0.385 0.164 0.031
3404.688 0.073 0.132 0.186 0.253 0.217 0.294 0.312 0.185 0.091 0.069
3423.978 0.09 0.107 0.105 0.097 0.13 0.11 0.129 0.281 0.317 0.242
3443.269 0.206 0.173 0.196 0.302 0.308 0.339 0.366 0.281 0.254 0.175
3462.559 0.162 0.233 0.14 0.121 0.247 0.321 0.321 0.258 0.256 0.215
3481.849 0.198 0.248 0.2 0.19 0.254 0.158 0.082 0.142 0.104 0.108
3501.139 0.132 0.129 0.193 0.314 0.327 0.217 0.207 0.24 0.247 0.232
3520.429 0.176 0.206 0.249 0.254 0.209 0.209 0.228 0.172 0.278 0.384
3539.719 0.378 0.379 0.351 0.211 0.206 0.182 0.17 0.321 0.365 0.296
3559.009 0.297 0.374 0.42 0.346 0.247 0.218 0.256 0.299 0.253 0.278
3578.299 0.298 0.296 0.325 0.319 0.349 0.33 0.305 0.431 0.456 0.335
3597.589 0.284 0.277 0.381 0.408 0.291 0.2 0.147 0.149 0.213 0.321
3616.879 0.336 0.317 0.309 0.317 0.305 0.369 0.387 0.305 0.26 0.222
3636.169 0.277 0.295 0.261 0.276 0.299 0.349 0.307 0.212 0.27 0.375
3655.459 0.401 0.406 0.394 0.261 0.335 0.476 0.391 0.27 0.33 0.423
3674.749 0.38 0.43 0.537 0.457 0.287 0.273 0.376 0.44 0.37 0.35
3694.039 0.361 0.318 0.335 0.308 0.253 0.344 0.339 0.337 0.413 0.394
3713.329 0.327 0.354 0.411 0.447 0.466 0.524 0.507 0.352 0.333 0.358
3732.619 0.357 0.404 0.393 0.392 0.508 0.512 0.486 0.52 0.434 0.388
3751.909 0.497 0.451 0.347 0.334 0.416 0.528 0.54 0.571 0.557 0.415
3771.199 0.264 0.279 0.375 0.45 0.426 0.406 0.488 0.423 0.421 0.387
3790.489 0.343 0.527 0.586 0.537 0.522 0.49 0.512 0.534 0.457 0.503
3809.779 0.579 0.563 0.596 0.59 0.546 0.621 0.7813 0.8348 0.724 0.669
3829.069 0.737 0.8353 0.8498 0.753 0.679 0.688 0.7781 0.676 0.651 0.689
3848.359 0.642 0.584 0.563 0.643 0.627 0.615 0.554 0.461 0.577 0.628
3867.649 0.583 0.558 0.488 0.467 0.521 0.523 0.482 0.535 0.544 0.573
3886.939 0.557 0.581 0.688 0.669 0.68 0.683 0.657 0.678 0.641 0.702
3906.229 0.8352 0.8911 0.7996 0.8051 0.9067 0.90756 0.91809 0.9478 1.0051 1.038
3925.519 0.92382 0.7908 0.761 0.7759 0.74 0.7798 0.8201 0.8497 0.8345 0.722
3944.809 0.745 0.755 0.746 0.8452 0.869204 0.8404 0.8283 0.8056 0.7878 0.871751
3964.099 0.89324 0.86638 1.0313 1.0672 1.0565 1.1074 1.0872 1.0849 1.2373 1.3258
3983.389 1.3339 1.3367 1.3562 1.3821 1.3328 1.3562 1.3728 1.2758 1.2068 1.2249
##END=
