##TITLE=1-Chloro-7-phenylheptane
##JCAMP-DX=4.24
##DATA TYPE=INFRARED SPECTRUM
##ORIGIN=EPA-IR VAPOR PHASE LIBRARY
##OWNER=SRD/NIST
Collection (C) 2018 copyright by the U.S. Secretary of Commerce
on behalf of the United States of America. All rights reserved.
##CAS REGISTRY NO=71434-47-4
##MOLFORM=C 13 H 19 Cl
##$NIST SOURCE=MSDC-IR
##STATE=gas
##XUNITS=1/CM
##YUNITS=ABSORBANCE
##XFACTOR=1.
##YFACTOR=0.001
##DELTAX=1.92898
##FIRSTX=549.8
##LASTX=4000.7
##FIRSTY=1.615
##MAXX=4000.7
##MINX=549.759
##MAXY=0.196955
##MINY=0
##NPOINTS=1790
##XYDATA=(X++(Y..Y))
549.759 1.615 2.035 2.275 2.635 3.025 2.785 3.035 3.685 4.265 4.605
569.049 4.645 4.325 3.675 3.525 3.295 3.165 3.005 2.445 2.015 2.195
588.339 2.165 2.255 2.635 1.995 1.405 1.495 1.675 1.755 1.725 1.425
607.628 1.225 1.225 1.435 1.425 1.185 1.425 1.595 1.725 1.685 1.905
626.918 2.115 2.365 2.855 3.195 3.675 4.125 4.505 5.155 5.905 6.385
646.208 6.915 7.775 9.125 10.575 11.695 12.945 14.455 15.445 15.875 15.945
665.498 15.595 15.015 14.555 14.315 14.205 14.715 15.475 16.405 18.045 20.235
684.787 22.925 26.415 31.005 36.495 42.075 46.675 49.415 49.775 47.955 44.325
704.077 40.425 37.455 35.535 34.295 33.305 32.965 33.405 33.945 34.605 35.415
723.367 36.575 38.175 39.985 42.105 44.165 46.125 47.615 48.315 48.135 47.095
742.657 44.785 41.455 37.585 33.535 30.135 27.045 24.255 22.195 20.165 18.305
761.947 16.465 14.775 13.515 12.465 11.545 10.325 9.475 8.835 8.045 7.645
781.236 7.155 6.685 6.575 6.455 6.405 6.175 5.785 5.515 5.435 5.225
800.526 5.345 5.225 5.025 5.025 4.815 4.815 4.765 4.655 4.765 4.635
819.816 4.355 4.325 4.285 4.085 3.725 3.575 3.675 3.685 3.475 3.455
839.106 3.605 3.525 3.315 3.215 3.215 3.525 3.645 3.275 3.045 3.115
858.395 3.205 3.155 3.145 3.065 3.065 3.205 3.215 3.205 3.445 3.655
877.685 3.415 3.395 3.555 3.745 4.145 4.075 3.915 3.985 4.045 4.125
896.975 4.145 4.115 4.395 4.545 4.525 4.555 4.505 4.535 4.205 4.035
916.265 3.675 3.255 3.255 2.955 2.865 2.955 2.905 2.845 2.755 2.705
935.555 2.615 2.645 2.755 2.895 2.785 2.565 2.455 2.665 2.785 2.785
954.844 2.905 3.045 3.065 2.935 2.615 2.505 2.905 3.065 2.915 2.785
974.134 2.935 2.905 2.825 2.885 2.775 2.625 2.595 2.815 2.935 2.985
993.424 3.015 3.175 3.395 3.425 3.485 3.295 3.235 3.325 3.445 3.855
1012.714 4.035 3.845 4.055 4.855 5.745 6.335 7.045 8.375 9.445 9.635
1032.003 9.185 8.245 7.155 6.305 5.475 4.615 4.255 4.125 3.965 4.385
1051.293 4.895 4.885 4.705 4.555 4.475 4.345 4.275 4.095 3.935 3.295
1070.583 3.625 4.225 4.465 4.715 4.195 3.815 3.485 3.525 3.245 3.425
1089.873 3.595 3.205 3.125 2.945 2.575 2.395 2.145 1.885 2.265 2.345
1109.163 1.595 1.1078 1.365 1.325 1.395 1.685 1.885 2.145 2.085 1.595
1128.452 1.515 1.835 1.635 1.295 1.605 1.315 1.0684 1.485 1.375 1.265
1147.742 1.575 1.815 1.825 1.705 1.395 1.445 1.795 1.905 1.625 1.755
1167.032 1.935 2.115 1.895 1.705 1.955 2.235 2.525 2.375 2.515 2.635
1186.322 2.105 2.015 2.535 2.305 2.355 2.745 2.975 3.475 3.545 3.505
1205.611 3.035 2.485 2.805 2.915 2.575 2.355 2.695 3.065 3.235 3.375
1224.901 3.745 4.455 4.165 4.025 4.435 4.455 4.805 5.345 5.195 5.155
1244.191 5.435 5.475 6.265 6.625 6.645 7.095 7.425 7.875 8.255 8.545
1263.481 8.855 9.005 9.245 9.855 10.365 10.905 11.285 11.765 12.665 13.325
1282.771 13.835 14.565 15.155 15.875 16.605 16.885 17.095 17.215 17.135 17.025
1302.060 16.935 16.795 16.475 16.085 15.725 15.395 14.995 14.445 13.855 13.285
1321.350 12.805 12.215 11.645 11.185 10.655 10.235 9.935 9.745 9.715 9.775
1340.640 9.965 10.265 10.495 10.785 11.085 11.095 10.925 10.705 10.335 9.835
1359.930 9.345 8.905 8.445 8.025 7.615 7.115 6.655 6.205 5.675 5.215
1379.219 4.725 4.285 3.965 3.665 3.425 3.255 3.115 2.985 2.965 2.905
1398.509 2.815 2.885 3.005 3.075 3.135 3.245 3.395 3.575 3.805 4.035
1417.799 4.255 4.635 5.095 5.565 6.255 7.005 7.835 8.865 10.155 11.575
1437.089 13.345 15.415 17.645 20.155 22.835 25.485 27.735 29.385 30.335 30.455
1456.378 29.735 28.525 27.105 25.315 23.225 21.115 18.975 16.865 15.005 13.335
1475.668 11.955 10.985 10.395 10.265 10.765 11.845 13.435 15.705 18.615 21.405
1494.958 23.095 23.135 21.735 19.005 15.125 11.375 8.555 6.585 5.325 4.355
1514.248 3.675 3.295 3.005 2.795 2.655 2.635 2.635 2.505 2.495 2.415
1533.538 2.225 2.265 2.185 1.975 1.865 1.835 1.875 1.835 1.815 1.845
1552.827 1.775 1.855 2.005 1.985 1.965 1.965 2.115 2.455 2.645 2.755
1572.117 2.955 3.185 3.495 3.885 4.355 4.805 5.255 5.865 6.525 7.175
1591.407 7.895 8.585 9.375 10.375 11.265 11.905 12.115 11.705 10.705 9.355
1610.697 7.745 6.125 4.845 3.935 3.225 2.715 2.465 2.185 1.885 1.735
1629.986 1.675 1.585 1.605 1.655 1.645 1.595 1.595 1.575 1.485 1.415
1649.276 1.385 1.305 1.295 1.315 1.295 1.295 1.195 1.175 1.155 1.0404
1668.566 0.9689 0.9402 0.8991 0.9226 0.9771 0.9731 0.8459 0.7926 0.8467 0.847
1687.856 0.8714 0.8737 0.8994 0.9395 0.9133 0.9386 0.9637 0.9904 1.0521 1.0776
1707.146 1.135 1.185 1.1098 1.0395 1.145 1.235 1.245 1.225 1.225 1.275
1726.435 1.325 1.405 1.405 1.395 1.465 1.515 1.575 1.585 1.515 1.395
1745.725 1.345 1.385 1.385 1.325 1.195 1.145 1.205 1.175 1.135 1.145
1765.015 1.175 1.1087 1.145 1.325 1.435 1.495 1.545 1.675 1.895 2.205
1784.305 2.485 2.815 3.105 3.325 3.525 3.595 3.475 3.235 2.875 2.525
1803.594 2.265 1.995 1.765 1.625 1.595 1.545 1.445 1.375 1.395 1.345
1822.884 1.225 1.205 1.165 1.175 1.195 1.175 1.1159 1.0674 1.155 1.235
1842.174 1.255 1.395 1.615 1.665 1.625 1.715 1.815 1.885 2.025 2.215
1861.464 2.315 2.285 2.325 2.345 2.315 2.355 2.355 2.315 2.285 2.215
1880.754 2.105 1.965 1.775 1.625 1.515 1.335 1.215 1.225 1.195 1.1118
1900.043 1.06 1.0181 1.0318 1.0686 1.1078 1.195 1.245 1.305 1.395 1.485
1919.333 1.665 1.835 1.975 2.175 2.355 2.565 2.695 2.885 3.055 3.065
1938.623 3.035 2.995 3.055 3.035 3.015 3.055 3.005 2.785 2.525 2.275
1957.913 1.985 1.745 1.435 1.1114 0.9564 0.9059 0.893 0.8126 0.777 0.7785
1977.202 0.7355 0.7295 0.7795 0.781 0.7756 0.729 0.6216 0.648 0.7262 0.6711
1996.492 0.6161 0.6792 0.762 0.6944 0.6006 0.6633 0.6666 0.5952 0.6046 0.6931
2015.782 0.7291 0.684 0.7417 0.7574 0.68 0.7039 0.7753 0.8042 0.8005 0.8391
2035.072 0.8253 0.8364 0.8881 0.8153 0.7501 0.8029 0.8129 0.7756 0.7976 0.7618
2054.362 0.7726 0.7798 0.6846 0.6913 0.6994 0.6741 0.6835 0.7357 0.7405 0.7263
2073.651 0.7676 0.7872 0.7209 0.6642 0.7393 0.7562 0.7517 0.6977 0.6048 0.6732
2092.941 0.8112 0.8486 0.7335 0.6556 0.7318 0.7141 0.7298 0.6863 0.6303 0.7302
2112.231 0.7058 0.6887 0.7418 0.7261 0.6989 0.6742 0.6032 0.6426 0.7157 0.705
2131.521 0.7088 0.7249 0.7026 0.7052 0.6672 0.5707 0.5555 0.6794 0.7081 0.6886
2150.810 0.707 0.6847 0.7143 0.7859 0.7642 0.6915 0.6878 0.6802 0.7028 0.7654
2170.100 0.8488 0.8053 0.7409 0.7467 0.7187 0.7509 0.7798 0.775 0.8289 0.8285
2189.390 0.7501 0.764 0.8176 0.8258 0.8228 0.7983 0.7057 0.6339 0.7442 0.798
2208.680 0.7392 0.6741 0.6632 0.6809 0.6893 0.7273 0.7928 0.7416 0.7029 0.7902
2227.970 0.7721 0.7406 0.761 0.8063 0.799 0.7904 0.7226 0.6478 0.6761 0.7092
2247.259 0.6717 0.7183 0.8026 0.7513 0.7267 0.7526 0.7632 0.7818 0.795 0.7633
2266.549 0.7439 0.7604 0.783 0.7863 0.8078 0.7505 0.7129 0.7236 0.7829 0.8444
2285.839 0.8139 0.925 0.9801 0.9094 0.8461 0.8464 0.8845 0.9163 0.8996 0.9825
2305.129 1.0291 0.983 0.9589 0.9925 1.0506 1.0501 1.155 1.0885 0.981 0.9375
2324.418 0.8153 0.7463 0.8483 0.9905 0.9996 0.9388 0.944 1.0318 1.0569 0.9713
2343.708 0.977 1.1143 1.0786 0.9666 0.9293 0.9247 0.973 0.9316 0.8619 1.0163
2362.998 1.0247 0.8141 0.7461 0.7129 0.7498 0.7733 0.7768 0.7008 0.6609 0.7719
2382.288 0.7676 0.8192 0.8622 0.8403 0.7012 0.6025 0.7552 0.7953 0.7749 0.7421
2401.578 0.7782 0.8079 0.6873 0.7395 0.7599 0.6757 0.6834 0.7248 0.8323 0.8151
2420.867 0.7313 0.738 0.7348 0.7919 0.795 0.7825 0.6898 0.6036 0.6653 0.745
2440.157 0.7167 0.6622 0.771 0.7407 0.5763 0.5582 0.6365 0.6734 0.7179 0.7668
2459.447 0.7139 0.6307 0.6181 0.7313 0.8054 0.7404 0.7167 0.7043 0.7278 0.7563
2478.737 0.7373 0.7146 0.7373 0.7626 0.678 0.6283 0.6824 0.7614 0.7459 0.7966
2498.026 0.8977 0.8225 0.7637 0.9027 0.9035 0.828 0.973 1.0138 0.9817 0.9368
2517.316 0.941 0.939 0.8914 0.9521 0.9644 0.9757 1.0702 1.165 1.125 0.9373
2536.606 0.9043 1.0383 1.125 1.0919 1.0591 0.9816 0.9619 1.025 0.9709 0.854
2555.896 0.8536 0.9501 0.842 0.7879 0.9263 0.9369 0.9812 1.0705 1.0632 1.0605
2575.186 1.09 1.185 1.245 1.265 1.285 1.335 1.255 1.195 1.205 1.205
2594.475 1.355 1.375 1.305 1.395 1.495 1.555 1.505 1.485 1.425 1.365
2613.765 1.415 1.485 1.445 1.485 1.565 1.595 1.715 1.715 1.715 1.745
2633.055 1.755 1.815 1.895 1.915 1.885 1.875 1.935 1.995 2.055 2.085
2652.345 2.015 1.935 1.955 2.005 1.955 2.035 2.105 2.015 2.075 2.085
2671.634 2.055 2.185 2.235 2.205 2.305 2.455 2.465 2.295 2.245 2.295
2690.924 2.385 2.535 2.405 2.235 2.265 2.235 2.135 2.165 2.055 1.965
2710.214 2.105 2.205 2.195 2.125 2.105 2.005 1.945 1.985 1.985 2.025
2729.504 2.055 2.075 2.075 2.025 2.055 2.205 2.325 2.345 2.325 2.215
2748.794 2.145 2.215 2.325 2.365 2.405 2.455 2.395 2.365 2.495 2.545
2768.083 2.575 2.785 2.885 2.925 3.115 3.255 3.365 3.495 3.605 3.785
2787.373 3.925 3.955 4.045 4.245 4.285 4.405 4.585 4.705 4.855 5.005
2806.663 5.285 5.555 5.785 6.215 6.555 6.725 7.045 7.405 7.845 8.395
2825.953 8.895 9.535 10.085 10.855 11.835 12.905 14.215 15.675 17.655 19.985
2845.242 22.875 26.495 30.785 35.985 41.845 48.265 55.065 61.785 67.695 71.955
2864.532 74.405 74.535 72.425 68.965 64.375 59.295 54.475 50.065 46.095 42.645
2883.822 39.995 38.145 36.945 36.495 36.535 37.215 38.695 40.735 43.155 46.245
2903.112 49.855 53.525 57.715 62.355 67.315 72.935 79.355 86.715 95.255 105.285
2922.401 116.495 128.685 141.665 154.855 167.555 178.895 188.195 194.585 196.955 194.125
2941.691 186.335 174.565 159.935 143.805 127.315 111.985 98.705 87.825 79.245 72.405
2960.981 66.815 61.805 57.025 52.065 46.865 41.975 37.695 33.935 30.675 27.965
2980.271 25.845 24.285 23.315 22.835 22.845 23.555 24.645 25.785 26.695 27.275
2999.561 27.405 26.605 25.285 23.845 22.375 21.245 20.695 20.855 21.645 23.065
3018.850 25.235 27.885 30.905 34.165 37.635 40.825 43.055 43.705 42.475 40.075
3038.140 36.595 32.355 28.165 24.905 22.585 20.935 20.005 19.585 19.785 20.745
3057.430 22.255 24.205 26.885 30.075 33.335 36.285 38.165 38.205 36.815 34.245
3076.720 30.775 27.645 25.235 23.455 22.265 21.105 19.825 18.615 17.345 15.915
3096.009 14.505 13.345 12.205 11.235 10.515 9.805 9.155 8.605 7.815 6.845
3115.299 6.095 5.315 4.585 4.005 3.435 3.035 2.725 2.425 2.165 2.065
3134.589 2.005 1.935 1.895 1.755 1.735 1.645 1.515 1.365 1.275 1.305
3153.879 1.275 1.335 1.465 1.805 1.895 1.545 1.315 1.155 1.265 1.295
3173.169 1.1167 1.0127 0.9669 0.9377 0.9301 1.001 1.0503 1.125 1.145 0.9461
3192.458 0.7494 0.8179 0.7696 0.8462 0.9444 0.7161 0.7133 0.7519 0.8373 0.9485
3211.748 0.8136 0.6616 0.6787 0.6242 0.6059 0.6019 0.4637 0.4607 0.5755 0.5674
3231.038 0.5006 0.5918 0.4344 0.3291 0.459 0.4919 0.6153 0.6048 0.5054 0.6652
3250.328 0.6429 0.4835 0.5625 0.7044 0.6379 0.4163 0.4105 0.5655 0.4988 0.4663
3269.617 0.6321 0.6702 0.6177 0.595 0.6375 0.7726 0.8087 0.7609 0.717 0.5601
3288.907 0.5425 0.6454 0.7273 0.7181 0.6211 0.5961 0.5843 0.6488 0.7749 0.6911
3308.197 0.6172 0.6352 0.5547 0.538 0.4509 0.3754 0.4211 0.307 0.2725 0.4114
3327.487 0.4749 0.5993 0.6606 0.5309 0.5177 0.5383 0.4293 0.3302 0.2325 0.2436
3346.777 0.4318 0.521 0.5069 0.5724 0.544 0.494 0.5651 0.6199 0.5694 0.2942
3366.066 0.2651 0.3444 0.4024 0.4031 0.3619 0.5058 0.4809 0.4121 0.4643 0.5387
3385.356 0.5144 0.4568 0.2897 0.1418 0.21128 0.3174 0.3383 0.4048 0.3659 0.3361
3404.646 0.3562 0.293 0.3433 0.3421 0.2409 0.3138 0.4499 0.4639 0.4995 0.4387
3423.936 0.4384 0.4967 0.5283 0.5642 0.4036 0.2436 0.18958 0.2853 0.4007 0.4442
3443.225 0.4905 0.3809 0.4272 0.5865 0.463 0.3103 0.3151 0.4468 0.2976 0
3462.515 0.21096 0.6692 0.4981 0.3797 0.6464 0.5541 0.3369 0.22472 0.4029 0.5255
3481.805 0.4264 0.4993 0.4271 0.3021 0.4631 0.6137 0.6457 0.5555 0.4398 0.4015
3501.095 0.4518 0.4312 0.306 0.3002 0.3503 0.22181 0.20866 0.2718 0.2353 0.3117
3520.385 0.3536 0.4939 0.5977 0.443 0.3186 0.3497 0.4297 0.4487 0.5384 0.6033
3539.674 0.5328 0.3263 0.3613 0.5624 0.5271 0.406 0.283 0.2576 0.2875 0.3113
3558.964 0.2408 0.2528 0.4929 0.5501 0.4727 0.5223 0.4714 0.4575 0.4603 0.3798
3578.254 0.3504 0.3169 0.3395 0.4457 0.4786 0.5692 0.6686 0.5509 0.5918 0.6953
3597.544 0.5586 0.552 0.6894 0.725 0.5963 0.5482 0.6106 0.6507 0.6489 0.5481
3616.833 0.5901 0.644 0.83 0.9395 0.818 0.6889 0.7258 0.7956 0.7531 0.6696
3636.123 0.6421 0.7576 0.7614 0.8357 0.7811 0.6321 0.6884 0.6797 0.6044 0.5902
3655.413 0.5851 0.6874 0.7627 0.6909 0.5525 0.6244 0.5746 0.5195 0.7439 0.7061
3674.703 0.6226 0.7021 0.8571 0.8292 0.6465 0.648 0.9491 0.8847 0.617 0.7567
3693.993 0.8478 0.8407 0.7088 0.5968 0.4987 0.6088 0.8267 0.7179 0.6853 0.6443
3713.282 0.7307 0.8634 0.7463 0.5188 0.4572 0.636 0.7473 0.7584 0.7228 0.7252
3732.572 0.7162 0.5924 0.6272 0.6684 0.678 0.8062 0.7154 0.535 0.501 0.5206
3751.862 0.6026 0.9235 0.968 0.7748 0.9069 0.923 0.7716 0.8963 0.9013 0.7763
3771.152 0.8348 0.8575 0.7097 0.609 0.6169 0.5953 0.6101 0.5976 0.6422 0.9339
3790.441 0.9996 0.8277 0.8614 1.0504 0.9209 0.6373 0.5165 0.6029 0.7783 0.798
3809.731 0.774 0.671 0.6897 0.8068 0.8835 0.9371 0.865 0.5494 0.3548 0.54
3829.021 0.6342 0.7652 0.8137 0.6728 0.704 0.8497 0.8058 0.6525 0.6998 0.6233
3848.311 0.5082 0.5662 0.5354 0.591 0.9053 0.8675 0.7419 0.7755 0.8974 0.9011
3867.601 0.7393 0.5848 0.46 0.5232 0.7623 0.8456 0.8819 0.9338 0.6727 0.5509
3886.890 0.5334 0.6327 0.987 1.0191 0.7651 0.7542 0.7423 0.6546 0.6655 0.6803
3906.180 0.675 0.7007 0.7875 0.8563 0.8473 0.672 0.7914 1.119 0.9267 0.8463
3925.470 0.9267 0.7069 0.6149 0.7272 0.9621 1.1072 0.958 0.8812 0.8697 0.8511
3944.760 0.9136 0.9773 0.9995 0.9982 0.7627 0.7344 1.0191 1.008 0.7741 0.524
3964.049 0.5691 0.7558 0.8508 0.8985 1.1076 1.225 0.964 0.851 1.0059 0.9952
3983.339 0.9285 0.896 0.8153 0.9041 1.1066 1.054 0.8036 0.9215 1.195 1.1053
##END=
