##TITLE=1-Chloro-6-phenylhexane
##JCAMP-DX=4.24
##DATA TYPE=INFRARED SPECTRUM
##ORIGIN=EPA-IR VAPOR PHASE LIBRARY
##OWNER=SRD/NIST
Collection (C) 2018 copyright by the U.S. Secretary of Commerce
on behalf of the United States of America. All rights reserved.
##CAS REGISTRY NO=71434-68-9
##MOLFORM=C 12 H 17 Cl
##$NIST SOURCE=MSDC-IR
##STATE=gas
##XUNITS=1/CM
##YUNITS=ABSORBANCE
##XFACTOR=1.
##YFACTOR=0.001
##DELTAX=1.92898
##FIRSTX=549.8
##LASTX=4000.7
##FIRSTY=0.6
##MAXX=4000.7
##MINX=549.759
##MAXY=0.14305
##MINY=0
##NPOINTS=1790
##XYDATA=(X++(Y..Y))
549.759 0.6 1.02 0.83 0.47 0.25 1.12 2.41 2.67 2.91 3.38
569.049 3.11 2.82 2.97 3.13 2.82 2.42 2.69 2.25 1.52 1.38
588.339 1.03 1.52 1.86 1.65 1.47 1.18 1.04 1.02 1.17 1.41
607.628 1.69 2 1.82 1.36 1.39 2.07 2.55 2.7 2.71 2.11
626.918 1.89 2.43 2.88 3.14 3.43 3.63 3.829 4.366 4.85106 5.3491
646.208 6.28 7.27 8.45 9.69 10.88 12.05 13.28 14.1 14.42 14.68
665.498 14.32 13.74 13.63 13.73 13.99 14.39 15.29 16.29 17.73 19.97
684.787 22.13 25.1 29.37 34.4 39.37 43.26 45.54 46 44.52 41.46
704.077 38.22 35.39 33.23 31.46 30.04 29.52 29.6 30.08 31.1 32.12
723.367 33.73 36.06 38.14 40.47 42.95 45.27 47 48.29 48.39 47.19
742.657 44.96 41.23 36.76 31.8 27.61 24.49 21.8 19.98 18.26 16.68
761.947 15.16 13.56 12.13 11.06 10.34 9.42 8.71 8.1 7.51 7.11
781.236 6.97 6.83 6.46 5.99 5.5994 5.5336 5.4395 5.5452 5.3617 4.9464
800.526 5.0639 5.3701 5.6447 5.1787 4.7904 4.83025 4.45 4.123 3.972 3.932
819.816 4.081 4.181 3.88 3.942 4.259 4.123 3.84 3.74 4.153 4.228
839.106 3.81 3.46 3.25 3.38 3.833 3.96 3.69 3.59 3.55 3.66
858.395 3.7 3.45 3.57 3.82 3.67 3.7 3.67 3.36 3.49 3.81
877.685 3.75 3.78 3.827 3.837 3.891 3.78 3.61 3.56 3.65 3.65
896.975 3.79 4.418 4.82636 4.7543 4.664 4.7709 4.8331 4.706 4.589 4.409
916.265 4.325 4.231 4.053 3.924 3.71 3.65 3.63 3.68 3.68 3.5
935.555 3.54 3.33 3.16 3.31 3.44 3.3 3.25 3.2 3.03 2.89
954.844 2.71 2.87 3.28 3.33 3.13 3.08 3.08 3.03 2.83 3.05
974.134 3.43 3.14 2.92 3.03 3.19 3.14 3.35 3.58 3.3 3.3
993.424 3.32 2.99 3.01 3.23 3.13 3.19 3.28 3.47 3.55 3.41
1012.714 3.865 4.121 4.046 4.7577 5.744 6.44 7.38 8.46 8.99 9.24
1032.003 8.91 7.75 6.29 5.1944 4.82395 4.57 4.448 4.332 4.237 4.422
1051.293 4.7223 4.605 4.8839 4.90153 4.517 4.7737 4.518 4.497 4.471 4.212
1070.583 4.391 5.0523 4.9959 4.7598 4.37 4.032 4.7528 3.63 2.03 2.6
1089.873 3.24 2.75 2.47 2.48 2.38 2.93 3.22 2.64 2.58 2.61
1109.163 2.23 1.7 0.93 0.74 1.03 1.37 1.33 1.24 1.43 2.13
1128.452 2.62 2.63 2.33 1.51 1.36 1.54 1.78 1.76 1.63 1.81
1147.742 1.46 1.44 2.12 1.76 1.29 1.47 1.97 2.14 2.09 2.11
1167.032 1.53 1.22 1.42 1.51 1.9 2.12 1.91 1.98 1.98 2.47
1186.322 3.15 2.57 2.3 2.72 2.68 2.98 3.72 3.41 2.86 2.71
1205.611 2.31 2.53 3.1 2.3 1.88 2.36 2.58 3.01 2.84 2.67
1224.901 3.52 3.55 3.37 4.092 4.7963 4.9655 4.91869 4.956 5.0696 5.1443
1244.191 5.3616 6.01 6.17 6.03 6.13 6.62 7.01 7.23 7.64 7.79
1263.481 7.87 8.41 8.89 9.24 9.9 10.63 11.28 11.89 12.48 13.19
1282.771 13.79 14.18 14.8 15.23 15.52 15.79 15.6 15.42 15.42 15.33
1302.060 15.36 15.28 14.88 14.64 14.41 14.02 13.69 13.17 12.64 12.28
1321.350 11.88 11.36 10.82 10.34 9.93 9.54 9.18 9.02 9.06 9.15
1340.640 9.18 9.21 9.41 9.69 9.81 9.84 9.69 9.4 9.1 8.61
1359.930 8.19 7.81 7.4 7.06 6.65 6.21 5.88 5.5936 5.2032 4.7594
1379.219 4.436 4.158 3.81 3.64 3.37 3.14 3.11 3.02 2.92 2.9
1398.509 2.94 2.97 2.99 2.98 3.06 3.22 3.36 3.48 3.66 3.906
1417.799 4.168 4.387 4.7269 5.3 5.92 6.61 7.38 8.39 9.58 10.76
1437.089 12.18 13.83 15.76 17.99 20.39 22.66 24.55 25.85 26.64 26.77
1456.378 25.88 24.51 23.06 21.46 19.69 17.76 15.93 14.19 12.72 11.52
1475.668 10.5 9.77 9.44 9.58 9.95 10.85 12.5 14.65 17.3 19.79
1494.958 21.34 21.48 20.31 17.99 14.64 11.15 8.23 6.42 5.3234 4.52
1514.248 3.97 3.49 3.25 3.18 3.02 2.75 2.62 2.57 2.51 2.58
1533.538 2.49 2.44 2.5 2.36 2.26 2.15 2.08 2.13 2.03 1.97
1552.827 2.01 1.89 1.93 2.08 2.16 2.33 2.48 2.56 2.69 2.9
1572.117 3.07 3.4 3.68 3.922 4.371 4.776 5.4051 5.99 6.29 6.92
1591.407 7.82 8.53 9.27 10.17 10.98 11.49 11.49 11.16 10.37 9.14
1610.697 7.73 6.26 4.974 4.101 3.5 3.08 2.67 2.2 2.01 1.98
1629.986 1.92 1.85 1.83 1.77 1.81 1.83 1.63 1.62 1.68 1.71
1649.276 1.69 1.6 1.59 1.56 1.48 1.34 1.3 1.42 1.36 1.32
1668.566 1.32 1.24 1.29 1.27 1.22 1.25 1.34 1.34 1.28 1.34
1687.856 1.33 1.18 1.23 1.4 1.43 1.34 1.25 1.26 1.34 1.32
1707.146 1.35 1.37 1.28 1.35 1.39 1.45 1.5 1.47 1.45 1.49
1726.435 1.65 1.68 1.73 1.81 1.78 1.77 1.85 1.87 1.75 1.64
1745.725 1.66 1.57 1.47 1.47 1.41 1.41 1.42 1.37 1.29 1.36
1765.015 1.33 1.26 1.43 1.51 1.54 1.68 1.83 1.95 2.1 2.27
1784.305 2.54 2.83 3.07 3.36 3.62 3.71 3.65 3.4 3.11 2.83
1803.594 2.54 2.36 2.12 1.95 1.81 1.67 1.59 1.55 1.48 1.4
1822.884 1.35 1.28 1.24 1.26 1.33 1.39 1.37 1.35 1.38 1.49
1842.174 1.61 1.74 1.85 1.92 1.85 1.94 2.18 2.3 2.32 2.27
1861.464 2.33 2.45 2.51 2.47 2.53 2.53 2.45 2.43 2.37 2.23
1880.754 2.01 1.94 1.93 1.73 1.59 1.49 1.42 1.45 1.37 1.28
1900.043 1.26 1.24 1.3 1.3 1.24 1.23 1.2 1.36 1.66 1.77
1919.333 1.8 1.93 2.13 2.33 2.49 2.53 2.65 2.9 3.05 3.19
1938.623 3.29 3.2 3.13 3.25 3.3 3.26 3.09 2.9 2.67 2.42
1957.913 2.17 1.83 1.57 1.38 1.24 1.12 1.05 1.04 1.06 1.02
1977.202 0.93 0.97 1.07 1.05 0.97 0.84 0.83 0.95 0.93 0.99
1996.492 1 0.92 0.93 0.92 0.94 0.9 0.84 0.87 0.93 0.92
2015.782 0.95 1.01 0.98 0.93 0.92 0.85 0.86 0.98 1.07 1.07
2035.072 0.97 0.89 0.85 0.84 0.83 0.85 0.89 0.84 0.77 0.76
2054.362 0.8 0.76 0.87 0.94 0.88 0.88 0.88 0.79 0.73 0.7
2073.651 0.72 0.79 0.78 0.83 0.79 0.83 0.87 0.9 0.87 0.78
2092.941 0.79 0.83 0.75 0.83 0.9 0.8 0.67 0.64 0.76 0.79
2112.231 0.86 0.85 0.79 0.81 0.88 0.87 0.78 0.75 0.88 0.93
2131.521 0.86 0.83 0.79 0.69 0.64 0.78 0.86 0.9 0.99 0.99
2150.810 0.89 0.81 0.8 0.83 0.76 0.78 0.97 0.98 0.91 0.85
2170.100 0.89 0.95 1.01 0.98 0.96 1.01 1.01 0.98 0.85 0.93
2189.390 1.05 1 0.87 0.81 0.76 0.85 0.91 0.77 0.85 0.95
2208.680 0.83 0.7 0.75 0.8 0.76 0.76 0.84 0.86 0.85 0.9
2227.970 0.94 0.81 0.76 0.68 0.55 0.69 0.86 0.92 0.92 0.81
2247.259 0.79 0.81 0.67 0.56 0.61 0.67 0.79 0.87 0.82 0.81
2266.549 0.77 0.81 0.93 0.99 0.78 0.65 0.85 0.94 0.84 0.88
2285.839 1.03 0.93 0.82 0.81 0.9 0.92 0.87 0.95 1.01 1.16
2305.129 1.15 1.09 1.18 1.22 1.18 1.12 1.06 1.03 1.03 0.99
2324.418 1.04 1.12 1.06 1.05 1.12 1.05 0.99 1.03 1.01 0.93
2343.708 0.84 0.84 1.07 1.11 1.08 1.06 0.89 0.85 0.92 1.01
2362.998 1.09 0.99 0.87 0.98 1 0.94 0.92 0.81 0.95 0.92
2382.288 0.74 0.76 0.87 0.82 0.67 0.78 0.76 0.71 0.76 0.78
2401.578 0.8 0.75 0.85 0.91 0.78 0.85 0.93 0.83 0.78 0.78
2420.867 0.71 0.69 0.7 0.74 0.63 0.57 0.83 0.81 0.7 0.8
2440.157 0.91 0.86 0.71 0.62 0.61 0.66 0.64 0.69 0.71 0.81
2459.447 0.8 0.78 0.85 0.75 0.7 0.75 0.74 0.7 0.76 0.71
2478.737 0.57 0.5 0.59 0.68 0.74 0.7 0.72 0.67 0.68 0.77
2498.026 0.72 0.8 0.85 0.78 0.71 0.84 0.97 0.98 0.95 0.92
2517.316 0.92 0.9 0.78 0.78 0.98 1.07 0.95 0.99 1.05 0.9
2536.606 0.78 0.83 0.97 1.03 1.02 0.98 0.83 0.77 0.8 0.77
2555.896 0.77 0.82 0.85 0.85 0.87 0.96 1.01 1 1.03 0.97
2575.186 0.89 0.93 0.97 1.05 1.06 1.03 1.13 1.09 1.12 1.18
2594.475 1.11 1.18 1.2 1.15 1.21 1.16 1.17 1.14 1.16 1.26
2613.765 1.23 1.33 1.43 1.38 1.43 1.45 1.5 1.5 1.39 1.43
2633.055 1.52 1.5 1.49 1.56 1.62 1.62 1.61 1.63 1.54 1.57
2652.345 1.59 1.61 1.66 1.7 1.75 1.77 1.83 1.73 1.7 1.8
2671.634 1.74 1.73 1.81 1.75 1.74 1.86 1.91 1.87 1.85 1.84
2690.924 1.8 1.81 1.98 1.98 1.81 1.76 1.75 1.78 1.77 1.78
2710.214 1.74 1.76 1.71 1.68 1.77 1.73 1.7 1.55 1.45 1.47
2729.504 1.52 1.6 1.74 1.67 1.64 1.8 1.72 1.64 1.82 1.79
2748.794 1.62 1.58 1.65 1.84 1.88 1.89 1.91 1.95 1.95 1.98
2768.083 2.22 2.21 2.22 2.47 2.63 2.7 2.73 2.66 2.69 2.89
2787.373 3.02 3.25 3.31 3.21 3.19 3.32 3.45 3.63 3.69 3.68
2806.663 3.78 4.061 4.504 4.609 4.7717 5.0851 5.325 5.6219 5.87 6.27
2825.953 6.65 7.09 7.69 8.22 9 9.78 10.68 12.06 13.51 15.29
2845.242 17.47 19.77 22.78 26.43 30.31 34.57 39.15 43.76 47.82 50.95
2864.532 53.18 54 53.18 51.44 49 45.98 42.74 39.59 36.63 33.98
2883.822 31.91 30.4 29.41 28.53 28.39 29.14 30.06 31.38 33.13 35.13
2903.112 37.33 39.81 42.77 46.1 49.56 53.37 57.67 62.71 68.66 75.29
2922.401 82.73 90.93 99.44 108.19 116.97 125.49 132.94 138.96 142.55 143.05
2941.691 140.59 134.64 125.79 115 103.72 92.57 82.42 73.87 66.87 61.54
2960.981 57 53.06 49.18 44.87 40.48 36.47 32.69 29.15 26.26 23.8
2980.271 21.89 20.81 20.25 19.64 19.72 20.51 21.57 22.73 23.75 24.43
2999.561 24.53 23.94 22.6 21.25 20.09 19.12 18.59 18.75 19.64 20.96
3018.850 22.86 25.36 28.04 30.89 33.98 36.89 39.21 40.11 39.39 37.26
3038.140 33.86 30.23 26.56 23.1 20.75 19.28 18.45 18.09 18.13 19.03
3057.430 20.41 22.12 24.49 27.68 30.93 33.4 34.83 35.22 34.31 32.15
3076.720 28.92 25.68 23.37 21.77 20.69 19.43 18.41 17.27 15.79 14.67
3096.009 13.68 12.7 11.57 10.66 9.93 9.14 8.71 8.05 7.09 6.3
3115.299 5.5596 4.87166 4.193 3.52 3.04 2.77 2.43 1.97 1.83 1.82
3134.589 1.5 1.46 1.7 1.63 1.53 1.58 1.62 1.58 1.48 1.35
3153.879 1.27 1.26 1.31 1.42 1.45 1.23 0.95 0.85 0.99 1.06
3173.169 0.96 0.99 0.83 0.6 0.62 0.64 0.63 0.58 0.71 0.73
3192.458 0.64 0.59 0.52 0.71 0.62 0.47 0.51 0.53 0.78 0.59
3211.748 0.24 0.37 0.52 0.46 0.27 0.36 0.66 0.52 0.42 0.59
3231.038 0.43 0.43 0.57 0.51 0.34 0.49 0.47 0.16 0.38 0.59
3250.328 0.66 0.72 0.45 0.36 0.36 0.43 0.52 0.44 0.71 0.71
3269.617 0.61 0.56 0.4 0.51 0.55 0.52 0.41 0.39 0.31 0.28
3288.907 0.44 0.42 0.45 0.55 0.68 0.52 0.51 0.68 0.58 0.55
3308.197 0.5 0.36 0.46 0.57 0.45 0.42 0.42 0.21 0.37 0.48
3327.487 0.45 0.41 0.2 0.33 0.2 0.1 0.25 0.2 0.16 0.22
3346.777 0.31 0.24 0.25 0.33 0.29 0.33 0.37 0.38 0.57 0.58
3366.066 0.34 0.27 0.18 0.2 0.33 0.31 0.28 0.3 0.23 0.29
3385.356 0.5 0.66 0.73 0.51 0.21 0.17 0.07 0.07 0.29 0.3
3404.646 0.39 0.48 0.26 0.24 0.41 0.35 0.25 0.31 0.44 0.43
3423.936 0.2 0.16 0.45 0.56 0.61 0.37 0.08 0.11 0.21 0.58
3443.225 0.84 0.72 0.44 0.38 0.63 0.8 0.75 0.51 0.36 0.36
3462.515 0.36 0.18 0.19 0.4 0.3 0.17 0.15 0.31 0.45 0.34
3481.805 0.16 0.06 0.17 0.3 0.31 0.34 0.28 0.31 0.32 0.25
3501.095 0.15 0.21 0.21 0.25 0.46 0.26 0.11 0.16 0.31 0.41
3520.385 0.28 0.35 0.39 0.4 0.31 0.16 0.34 0.53 0.3 0.29
3539.674 0.3 0.17 0.26 0.13 0.09 0.44 0.57 0.5 0.37 0.36
3558.964 0.46 0.41 0.3 0.36 0.47 0.42 0.46 0.62 0.58 0.49
3578.254 0.52 0.4 0.35 0.32 0.23 0.27 0.3 0.29 0.55 0.81
3597.544 0.6 0.26 0.28 0.44 0.37 0.03 0 0.16 0.27 0.3
3616.833 0.34 0.35 0.3 0.5 0.54 0.62 0.57 0.35 0.36 0.34
3636.123 0.53 0.64 0.64 0.81 0.79 0.63 0.65 0.73 0.75 0.58
3655.413 0.53 0.79 0.84 0.88 0.79 0.65 0.73 0.67 0.35 0.46
3674.703 0.74 0.61 0.63 0.76 0.66 0.45 0.51 0.7 0.71 0.47
3693.993 0.64 0.76 0.56 0.55 0.6 0.65 0.64 0.73 0.87 0.66
3713.282 0.49 0.43 0.42 0.64 0.63 0.66 0.66 0.74 0.76 0.63
3732.572 0.58 0.69 0.7 0.35 0.34 0.57 0.61 0.4 0.32 0.48
3751.862 0.48 0.31 0.46 0.7 0.5 0.57 0.58 0.38 0.37 0.47
3771.152 0.58 0.62 0.33 0.31 0.77 0.77 0.42 0.44 0.67 0.74
3790.441 0.73 0.6 0.55 0.44 0.66 0.97 0.75 0.56 0.53 0.34
3809.731 0.34 0.65 0.68 0.51 0.42 0.45 0.61 0.52 0.57 0.58
3829.021 0.54 0.52 0.52 0.69 0.71 0.7 0.33 0.21 0.32 0.38
3848.311 0.52 0.79 0.87 0.57 0.36 0.52 0.71 0.79 0.7 0.33
3867.601 0.39 0.63 0.6 0.49 0.4 0.34 0.5 0.59 0.51 0.62
3886.890 0.74 0.71 0.75 0.64 0.74 0.75 0.54 0.56 0.49 0.63
3906.180 0.72 0.4 0.37 0.45 0.47 0.66 0.85 1 0.95 1.04
3925.470 0.98 0.85 0.7 0.45 0.45 0.51 0.57 0.43 0.42 0.52
3944.760 0.51 0.45 0.29 0.37 0.41 0.56 0.7 0.47 0.37 0.47
3964.049 0.43 0.46 0.46 0.47 0.32 0.34 0.58 0.52 0.54 0.74
3983.339 0.95 1.01 0.76 0.66 0.74 0.54 0.35 0.42 0.77 0.78
##END=
