##TITLE=4-(Aminomethyl)piperidine
##JCAMP-DX=4.24
##DATA TYPE=INFRARED SPECTRUM
##ORIGIN=NIST Mass Spectrometry Data Center
##OWNER=NIST Standard Reference Data Program
Collection (C) 2018 copyright by the U.S. Secretary of Commerce
on behalf of the United States of America. All rights reserved.
##CAS REGISTRY NO=7144-05-0
##MOLFORM=C 6 H 14 N 2
##$NIST SOURCE=MSDC-IR
##SPECTROMETER/DATA SYSTEM=HP-GC/MS/IRD
##STATE=gas
##XUNITS=1/CM
##YUNITS=ABSORBANCE
##XFACTOR=1.0
##YFACTOR=0.000004700
##DELTAX=4.0
##FIRSTX=550.0
##LASTX=3846.0
##FIRSTY=0.002844
##MAXX=3846
##MINX=550
##MAXY=0.047
##MINY=0
##NPOINTS=825
##XYDATA=(X++(Y..Y))
550.0 605 864 702 804 752 683 596 486 395 367
590.0 365 358 354 340 337 343 318 302 301 276
630.0 250 249 254 259 260 284 320 358 402 446
670.0 492 550 614 682 768 872 987 1123 1298 1510
710.0 1766 2069 2410 2785 3144 3448 3693 3849 3929 3933
750.0 3847 3671 3402 3093 2776 2443 2138 1897 1720 1592
790.0 1480 1362 1255 1147 1024 890 763 639 538 451
830.0 382 325 271 236 211 187 170 163 164 163
870.0 154 148 143 134 130 129 122 110 106 103
910.0 93 85 86 86 89 104 113 130 166 199
950.0 209 225 247 248 237 229 225 216 203 210
990.0 237 267 302 332 354 368 370 369 395 451
1030.0 520 574 610 623 614 578 515 454 412 383
1070.0 363 359 373 410 478 564 651 720 757 759
1110.0 745 710 676 667 679 708 737 749 738 707
1150.0 651 563 458 356 273 211 161 128 107 89
1190.0 76 66 62 55 47 49 64 75 75 77
1230.0 81 90 105 121 139 162 192 211 220 220
1270.0 212 195 182 177 178 190 219 269 353 478
1310.0 635 782 827 811 858 837 697 555 463 422
1350.0 413 433 460 483 507 527 541 552 542 508
1390.0 460 397 323 253 208 204 242 315 418 527
1430.0 621 729 846 923 978 965 899 843 766 671
1470.0 566 452 337 236 155 99 60 36 24 16
1510.0 10 7 2 2 5 6 8 7 13 20
1550.0 24 27 30 37 50 64 78 96 118 144
1590.0 177 222 276 348 430 520 601 659 682 661
1630.0 602 517 417 320 240 176 126 95 69 50
1670.0 39 28 18 14 5 3 0 0 1 1
1710.0 0 1 0 1 5 5 3 3 5 7
1750.0 3 4 9 10 10 11 15 20 22 27
1790.0 28 32 33 34 34 30 30 31 32 32
1830.0 29 25 27 26 24 22 21 22 22 27
1870.0 27 26 30 31 30 32 34 33 32 30
1910.0 29 29 25 22 21 22 25 23 22 22
1950.0 23 20 19 26 28 27 30 32 31 33
1990.0 35 34 39 42 44 49 53 54 57 60
2030.0 57 56 60 60 60 61 63 64 66 66
2070.0 69 68 69 72 72 74 75 74 73 72
2110.0 76 79 78 79 81 84 85 84 82 85
2150.0 88 86 85 86 91 91 87 88 90 89
2190.0 90 88 85 86 91 91 93 91 91 92
2230.0 93 98 94 96 95 96 97 94 92 89
2270.0 93 97 94 93 92 91 92 93 94 94
2310.0 96 96 98 99 100 99 95 93 92 89
2350.0 90 92 95 101 96 89 90 90 87 89
2390.0 90 90 93 99 102 101 98 93 96 100
2430.0 101 102 105 107 101 103 107 105 107 112
2470.0 112 113 117 119 121 115 108 109 111 115
2510.0 116 113 110 108 110 118 121 121 122 126
2550.0 136 137 143 153 158 158 162 174 182 193
2590.0 199 202 216 230 244 264 275 291 310 325
2630.0 346 366 373 367 362 361 367 378 394 410
2670.0 432 459 488 513 524 528 540 555 574 614
2710.0 677 763 871 1003 1144 1276 1389 1452 1421 1338
2750.0 1263 1198 1152 1152 1203 1298 1429 1587 1742 1925
2790.0 2159 2390 2621 2868 3132 3308 3253 3080 2928 2811
2830.0 2750 2784 2926 3161 3444 3725 3959 4124 4176 4093
2870.0 3943 3761 3570 3446 3440 3584 3931 4499 5266 6187
2910.0 7186 8128 8930 9558 9925 10000 9851 9585 9097 8205
2950.0 7140 6187 5136 3888 2723 1825 1211 824 593 453
2990.0 374 320 290 264 243 233 220 208 200 189
3030.0 179 174 171 165 152 144 139 133 125 117
3070.0 115 116 109 104 114 119 120 118 115 119
3110.0 119 117 118 119 115 115 123 126 124 124
3150.0 129 134 132 133 135 131 137 137 129 122
3190.0 119 112 107 110 113 116 115 114 118 116
3230.0 117 114 112 114 116 114 111 117 119 115
3270.0 112 105 104 106 104 101 101 101 109 112
3310.0 110 108 115 119 125 138 150 156 156 163
3350.0 168 166 163 152 141 136 125 123 134 129
3390.0 115 118 122 122 120 117 125 126 122 116
3430.0 110 106 105 107 105 104 98 99 102 98
3470.0 92 97 104 104 106 107 97 96 106 108
3510.0 106 108 102 97 98 103 101 95 98 112
3550.0 111 95 92 97 108 108 91 84 88 96
3590.0 95 96 96 102 111 109 108 105 110 115
3630.0 108 102 97 97 98 97 102 99 97 105
3670.0 117 118 107 107 111 115 116 114 109 105
3710.0 104 106 112 118 118 113 111 109 110 119
3750.0 113 105 111 118 119 126 119 115 122 123
3790.0 121 116 121 123 114 114 118 123 121 126
3830.0 130 119 114 119 127
##END=
