##TITLE=2,3-Dimethyl-2-hexene
##JCAMP-DX=4.24
##DATA TYPE=INFRARED SPECTRUM
##ORIGIN=NIST Mass Spectrometry Data Center
##OWNER=NIST Standard Reference Data Program
Collection (C) 2018 copyright by the U.S. Secretary of Commerce
on behalf of the United States of America. All rights reserved.
##CAS REGISTRY NO=7145-20-2
##MOLFORM=C 8 H 16
##$NIST SOURCE=MSDC-IR
##SPECTROMETER/DATA SYSTEM=HP-GC/MS/IRD
##STATE=gas
##XUNITS=1/CM
##YUNITS=ABSORBANCE
##XFACTOR=1.0
##YFACTOR=0.000000400
##DELTAX=4.0
##FIRSTX=550.0
##LASTX=3846.0
##FIRSTY=0.000204
##MAXX=3846
##MINX=550
##MAXY=0.004
##MINY=0
##NPOINTS=825
##XYDATA=(X++(Y..Y))
550.0 509 315 260 369 356 378 398 479 595 516
590.0 454 499 422 400 430 449 424 488 549 340
630.0 257 478 492 374 406 379 300 233 240 282
670.0 414 442 384 492 516 492 451 388 350 351
710.0 397 430 444 322 299 390 418 491 470 423
750.0 504 529 435 437 377 349 423 454 515 514
790.0 439 452 506 496 543 536 468 334 0 45
830.0 434 427 445 477 512 454 407 433 464 484
870.0 483 492 438 438 516 543 643 679 535 528
910.0 550 560 679 687 664 546 503 534 491 482
950.0 513 516 559 568 516 477 444 449 527 567
990.0 545 565 647 629 577 607 585 564 601 614
1030.0 582 632 630 602 648 651 583 496 466 488
1070.0 647 726 715 696 609 579 570 571 617 581
1110.0 560 495 462 468 502 692 780 814 1019 1229
1150.0 1395 1521 1544 1445 1254 1011 718 510 409 367
1190.0 387 401 400 318 250 344 462 454 424 428
1230.0 419 476 506 475 411 392 362 358 363 355
1270.0 387 379 355 365 387 398 435 438 365 333
1310.0 379 398 456 553 513 478 503 524 609 658
1350.0 628 655 743 831 994 1222 1363 1426 1461 1427
1390.0 1333 1209 1098 986 840 772 800 857 847 873
1430.0 986 1057 1150 1262 1347 1461 1585 1680 1685 1638
1470.0 1587 1449 1283 1103 961 863 806 764 708 638
1510.0 557 557 596 597 587 634 644 656 624 559
1550.0 545 514 539 532 495 476 489 452 398 365
1590.0 364 376 359 355 335 297 291 268 235 229
1630.0 237 246 224 208 220 254 246 204 199 198
1670.0 214 214 181 194 225 181 153 195 186 147
1710.0 164 202 188 141 124 110 113 130 131 131
1750.0 121 118 150 140 118 129 125 85 55 59
1790.0 119 153 135 93 83 83 80 130 139 140
1830.0 149 159 170 136 95 96 110 130 145 136
1870.0 103 109 150 149 132 154 134 106 78 77
1910.0 83 106 107 60 59 83 110 135 119 103
1950.0 89 72 62 57 25 25 77 115 100 66
1990.0 76 77 87 121 120 92 102 126 133 104
2030.0 84 82 89 106 121 146 115 110 114 123
2070.0 128 94 42 34 77 75 57 74 97 111
2110.0 94 64 66 100 120 96 54 69 69 56
2150.0 60 60 116 141 106 75 43 37 40 72
2190.0 98 81 47 30 44 19 12 41 47 29
2230.0 68 132 141 97 42 57 80 55 46 64
2270.0 91 120 124 121 107 84 106 104 93 94
2310.0 92 104 85 87 92 91 95 115 92 116
2350.0 174 154 156 125 103 107 123 137 121 112
2390.0 98 105 145 145 144 175 147 133 150 124
2430.0 160 158 126 131 96 120 136 156 157 158
2470.0 171 138 134 142 141 142 123 133 187 215
2510.0 196 189 160 147 187 172 138 123 148 179
2550.0 146 121 125 143 150 155 176 194 203 220
2590.0 205 204 215 179 174 201 218 232 209 183
2630.0 168 195 213 181 218 246 234 273 275 248
2670.0 236 237 225 225 206 250 301 308 315 309
2710.0 329 364 370 427 460 487 561 581 583 548
2750.0 505 530 513 451 447 499 529 520 556 571
2790.0 617 639 665 734 824 888 887 1008 1146 1260
2830.0 1456 1703 2018 2341 2786 3407 4107 4943 5763 6525
2870.0 7168 7599 7790 7688 7399 7010 6716 6614 6739 7114
2910.0 7619 8267 8888 9397 9780 9989 10000 9771 9356 8937
2950.0 8725 8794 8966 9193 9340 8991 8105 7100 6037 5118
2990.0 4545 4261 4061 3965 3884 3736 3496 3268 3071 2877
3030.0 2638 2409 2163 1923 1733 1582 1425 1251 1099 975
3070.0 901 870 851 803 727 664 592 553 475 400
3110.0 376 408 405 384 414 403 354 306 291 305
3150.0 315 325 322 320 352 341 285 221 190 183
3190.0 238 304 273 239 188 207 276 269 294 263
3230.0 198 213 266 255 220 188 189 238 245 201
3270.0 135 151 218 193 153 155 172 156 158 157
3310.0 114 159 211 186 224 255 180 147 146 123
3350.0 161 149 127 157 225 193 116 187 256 205
3390.0 158 158 133 181 182 112 136 156 124 117
3430.0 144 152 151 203 118 6 73 129 115 158
3470.0 217 191 200 223 190 193 206 179 154 200
3510.0 153 121 175 189 218 169 147 130 34 96
3550.0 242 201 107 123 130 110 96 111 112 141
3590.0 156 129 117 129 116 110 151 195 232 173
3630.0 116 155 194 209 170 177 195 207 251 264
3670.0 248 202 164 154 215 291 311 251 204 252
3710.0 253 222 187 147 139 196 194 175 221 247
3750.0 331 296 162 160 213 240 223 234 242 206
3790.0 215 176 205 364 316 204 361 472 365 325
3830.0 388 390 316 262 265
##END=
