##TITLE=5-Methyl-1,3-benzodioxole
##JCAMP-DX=4.24
##DATA TYPE=INFRARED SPECTRUM
##ORIGIN=EPA-IR VAPOR PHASE LIBRARY
##OWNER=SRD/NIST
Collection (C) 2018 copyright by the U.S. Secretary of Commerce
on behalf of the United States of America. All rights reserved.
##CAS REGISTRY NO=7145-99-5
##MOLFORM=C 8 H 8 O 2
##$NIST SOURCE=MSDC-IR
##STATE=gas
##XUNITS=1/CM
##YUNITS=ABSORBANCE
##XFACTOR=1.
##YFACTOR=0.001
##DELTAX=1.92898
##FIRSTX=549.8
##LASTX=4000.7
##FIRSTY=0.38138
##MAXX=4000.7
##MINX=549.759
##MAXY=0.116846
##MINY=0
##NPOINTS=1790
##XYDATA=(X++(Y..Y))
549.759 0.38138 0.492 0.6263 0.6136 0.5655 0.8378 0.9669 0.8368 1.1371 1.516
569.049 1.936 2.436 2.856 2.916 2.916 3.586 4.456 5.276 5.186 4.156
588.339 3.436 3.206 3.076 3.186 3.276 3.206 3.006 2.636 2.376 2.246
607.628 2.076 1.836 1.666 1.536 1.476 1.26 0.8548 0.6462 0.7371 0.742
626.918 0.6074 0.4555 0.302485 0.1972 0.186 0.4702 0.5386 0.4489 0.4601 0.37624
646.208 0.151 0.065 0.33934 0.35986 0.2185 0.29102 0.39348 0.432 0.4422 0.4517
665.498 0.4473 0.458 0.4756 0.4045 0.33941 0.2798 0.36054 0.4509 0.474 0.4515
684.787 0.38827 0.4602 0.5006 0.5619 0.4816 0.36114 0.5041 0.6454 0.7801 0.8811
704.077 0.9849 1.1826 1.306 1.2635 1.091 1.1392 1.2348 1.1202 1.1037 1.174
723.367 1.1611 1.0083 0.8722 0.9352 0.9738 1.0292 1.0125 1.1221 1.436 1.646
742.657 1.936 2.256 2.416 2.426 2.476 2.336 2.166 2.346 2.576 2.796
761.947 2.786 2.536 2.596 2.926 3.366 4.036 4.966 6.016 7.366 8.936
781.236 10.576 12.366 14.056 15.726 17.566 19.966 23.726 29.096 33.616 32.226
800.526 27.616 25.356 24.586 23.556 22.266 20.716 18.726 16.666 14.186 11.486
819.816 9.246 7.536 6.436 5.676 5.386 5.526 5.766 6.006 6.216 6.616
839.106 6.976 7.046 7.086 7.096 7.376 8.236 9.006 8.626 7.006 5.876
858.395 5.576 5.286 4.856 4.366 3.946 3.426 2.976 2.496 2.026 1.786
877.685 1.696 1.726 1.656 1.626 1.736 1.896 2.126 2.326 2.516 2.756
896.975 3.166 3.886 4.526 5.216 6.166 7.406 8.786 10.326 12.276 13.996
916.265 14.946 15.226 15.556 16.746 18.726 20.896 22.436 23.046 23.456 23.846
935.555 24.046 24.356 24.756 25.206 25.606 25.606 25.066 24.146 23.066 21.676
954.844 19.996 18.296 16.266 14.276 12.336 10.406 8.896 7.646 6.686 5.926
974.134 5.336 5.046 4.916 4.656 4.336 4.276 4.306 3.996 3.876 4.036
993.424 3.936 3.966 4.066 4.146 4.446 4.826 5.176 5.766 6.536 7.076
1012.714 7.896 9.166 10.446 11.736 13.286 15.036 16.796 19.136 21.586 24.166
1032.003 27.276 30.396 33.416 36.606 39.926 42.926 45.636 47.836 49.506 50.386
1051.293 50.236 49.736 48.696 46.456 43.706 40.446 36.616 33.236 29.746 25.916
1070.583 22.436 19.386 17.106 15.666 14.556 13.496 12.496 12.336 12.496 12.496
1089.873 12.596 12.596 12.746 12.886 13.226 13.756 13.986 13.736 13.806 14.306
1109.163 14.416 14.246 14.446 14.396 13.786 13.106 12.786 12.096 10.906 10.266
1128.452 9.476 8.486 7.726 7.066 6.636 6.046 5.496 5.186 4.756 4.626
1147.742 4.416 4.156 4.156 4.096 3.926 3.316 3.326 4.066 4.476 4.796
1167.032 5.396 6.426 7.636 9.196 11.326 13.916 17.396 21.946 26.906 31.536
1186.322 35.486 38.366 40.066 40.746 41.306 41.506 40.806 39.386 36.286 32.056
1205.611 27.296 23.436 21.466 20.286 19.756 20.036 20.936 22.286 24.786 28.246
1224.901 32.546 38.946 47.236 57.586 69.946 83.126 95.876 105.846 111.676 113.996
1244.191 114.066 112.166 108.016 102.136 93.866 80.906 63.746 46.856 33.516 24.446
1263.481 18.896 15.376 12.846 11.236 10.406 9.246 8.206 7.796 7.246 6.586
1282.771 6.096 5.596 5.186 5.016 4.876 4.786 4.686 4.566 4.656 4.806
1302.060 4.896 5.046 5.326 5.736 6.246 6.756 7.296 7.856 8.526 9.286
1321.350 10.086 10.886 11.646 12.506 13.596 14.826 16.066 17.196 17.926 18.236
1340.640 18.076 17.646 17.126 16.406 15.476 14.126 12.286 10.076 7.926 6.146
1359.930 4.836 4.056 3.566 3.246 3.146 3.096 3.116 3.226 3.296 3.356
1379.219 3.516 3.686 3.836 3.996 4.236 4.446 4.536 4.606 4.756 4.946
1398.509 5.116 5.346 5.656 5.856 5.976 6.196 6.526 7.066 7.866 9.046
1417.799 10.576 12.656 15.336 18.556 22.296 26.196 30.166 33.756 36.656 38.696
1437.089 39.936 40.406 40.086 38.906 36.956 34.316 30.906 27.066 23.246 20.096
1456.378 17.876 16.536 15.856 15.586 15.756 16.416 17.686 19.916 23.546 29.136
1475.668 37.076 48.066 61.716 77.176 91.816 102.946 109.546 113.096 115.616 116.846
1494.958 116.236 114.666 109.696 97.906 81.426 65.966 53.876 44.946 38.516 34.006
1514.248 29.856 24.946 19.916 15.916 12.846 10.686 9.216 8.126 7.266 6.596
1533.538 5.926 5.276 4.836 4.446 4.056 3.806 3.656 3.566 3.486 3.516
1552.827 3.706 3.766 3.776 3.856 3.886 3.896 3.966 3.986 3.906 3.916
1572.117 3.936 3.946 4.006 4.076 4.156 4.296 4.416 4.496 4.526 4.446
1591.407 4.416 4.506 4.566 4.536 4.436 4.326 4.206 4.036 3.816 3.616
1610.697 3.486 3.426 3.336 3.216 3.006 2.776 2.636 2.516 2.396 2.306
1629.986 2.286 2.206 2.116 2.016 1.916 1.906 1.836 1.766 1.746 1.646
1649.276 1.626 1.606 1.516 1.406 1.406 1.486 1.486 1.536 1.516 1.456
1668.566 1.446 1.436 1.496 1.566 1.556 1.546 1.646 1.726 1.786 1.896
1687.856 2.036 2.126 2.246 2.366 2.426 2.466 2.426 2.396 2.356 2.316
1707.146 2.306 2.186 2.016 1.856 1.726 1.656 1.546 1.426 1.306 1.2088
1726.435 1.2381 1.2261 1.1773 1.1696 1.1774 1.1787 1.1818 1.1922 1.1577 1.1419
1745.725 1.2251 1.366 1.476 1.496 1.616 1.666 1.676 1.796 1.806 1.806
1765.015 1.746 1.666 1.676 1.686 1.566 1.436 1.336 1.2506 1.1681 1.0821
1784.305 1.0466 1.0014 0.9552 0.9549 0.9898 0.9947 0.9999 1.0432 1.1044 1.165
1803.594 1.2327 1.326 1.446 1.586 1.746 2.006 2.156 2.266 2.506 2.706
1822.884 2.846 2.916 2.936 2.946 3.006 3.046 3.086 3.116 3.066 2.986
1842.174 2.806 2.736 2.696 2.616 2.606 2.576 2.536 2.466 2.396 2.366
1861.464 2.386 2.406 2.386 2.346 2.286 2.216 2.186 2.166 2.156 2.136
1880.754 2.046 1.956 1.956 1.946 1.886 1.816 1.746 1.666 1.576 1.466
1900.043 1.376 1.326 1.2598 1.1642 1.0871 1.0998 1.1102 1.0777 1.0519 1.0067
1919.333 0.9841 0.9795 0.9494 0.9524 0.9451 0.8764 0.8762 0.8821 0.8177 0.8125
1938.623 0.8436 0.8296 0.8552 0.8551 0.8387 0.8859 0.8912 0.9077 0.8606 0.7959
1957.913 0.7912 0.7896 0.8172 0.8052 0.809 0.9144 0.9227 0.8791 0.9214 0.9501
1977.202 0.9511 0.9368 0.9601 0.9983 0.9743 0.957 0.9794 1.02 1.1491 1.2334
1996.492 1.2342 1.2675 1.296 1.306 1.326 1.296 1.2396 1.2414 1.2874 1.2824
2015.782 1.296 1.376 1.396 1.366 1.346 1.326 1.296 1.306 1.306 1.316
2035.072 1.376 1.376 1.366 1.386 1.376 1.366 1.416 1.446 1.376 1.326
2054.362 1.316 1.2893 1.2289 1.1618 1.121 1.104 1.0741 1.0624 1.0756 1.0368
2073.651 0.9923 0.9686 1.0143 1.043 0.9947 0.9996 0.9953 0.9664 0.9528 0.9609
2092.941 1.0234 1.0274 0.9863 0.9195 0.9478 0.9749 0.9521 0.9968 0.9463 0.8642
2112.231 0.8606 0.9103 0.8805 0.8331 0.794 0.7644 0.7786 0.7763 0.7898 0.7848
2131.521 0.7897 0.7506 0.7088 0.7546 0.8122 0.8035 0.8004 0.8203 0.8374 0.8431
2150.810 0.7709 0.7593 0.7971 0.7742 0.7519 0.7257 0.6596 0.6616 0.6954 0.6818
2170.100 0.7031 0.7333 0.7369 0.7337 0.7725 0.8113 0.8027 0.8607 0.9747 1.0065
2189.390 0.9547 0.9605 0.9739 0.9434 0.9054 0.8731 0.8949 0.8395 0.7678 0.8023
2208.680 0.7583 0.7346 0.7583 0.76 0.7444 0.7159 0.7325 0.7205 0.7371 0.7915
2227.970 0.8107 0.7386 0.6863 0.7308 0.7545 0.7505 0.7971 0.8365 0.7891 0.7748
2247.259 0.7683 0.7254 0.7428 0.7536 0.6907 0.6824 0.7063 0.6882 0.6398 0.6077
2266.549 0.6954 0.7322 0.7088 0.7154 0.7363 0.7222 0.7312 0.8192 0.7944 0.8214
2285.839 0.9014 0.8933 0.8573 0.8473 0.9301 1.0243 1.0016 0.9621 1.0229 1.0622
2305.129 1.0521 0.989 0.9485 0.9539 0.9566 0.9179 0.8602 0.8392 0.8258 0.8278
2324.418 0.8011 0.7856 0.8406 0.8188 0.7723 0.8151 0.8228 0.8566 0.8955 0.8625
2343.708 0.8709 0.8826 0.8195 0.8415 0.8514 0.8482 0.9222 0.9219 0.9595 0.9545
2362.998 0.9695 0.9847 0.9293 0.8852 0.8112 0.8428 0.9241 0.8817 0.8219 0.8409
2382.288 0.8682 0.8472 0.7367 0.7035 0.7461 0.7517 0.7143 0.6382 0.6102 0.6161
2401.578 0.6454 0.6105 0.6022 0.6276 0.6376 0.6106 0.5855 0.6236 0.6027 0.5916
2420.867 0.6416 0.7216 0.7313 0.7412 0.712 0.7087 0.7113 0.6583 0.7093 0.7011
2440.157 0.6351 0.6576 0.6716 0.6641 0.6798 0.6816 0.6749 0.651 0.602 0.6205
2459.447 0.5914 0.5683 0.6389 0.5923 0.5792 0.6053 0.6252 0.678 0.7011 0.6973
2478.737 0.6649 0.6801 0.6369 0.5749 0.5976 0.6299 0.642 0.6482 0.6697 0.6873
2498.026 0.6667 0.671 0.7104 0.7559 0.7562 0.7865 0.8315 0.8236 0.8846 0.8806
2517.316 0.9039 0.9786 1.0132 1.1138 1.1978 1.1684 1.1597 1.2624 1.2664 1.1789
2536.606 1.2125 1.2926 1.336 1.294 1.1582 1.1064 1.0887 1.0107 1.0385 1.0729
2555.896 1.0518 1.1135 1.1403 1.0961 1.0809 1.1213 1.118 1.1575 1.2478 1.2949
2575.186 1.366 1.366 1.396 1.466 1.486 1.536 1.536 1.476 1.416 1.386
2594.475 1.386 1.386 1.296 1.2097 1.1299 1.0137 0.9248 0.8759 0.8454 0.7491
2613.765 0.7026 0.7348 0.7225 0.7764 0.8586 0.8158 0.7642 0.7785 0.8294 0.8301
2633.055 0.8054 0.8014 0.8498 0.9125 0.8888 0.8579 0.8307 0.8217 0.8414 0.9077
2652.345 0.9525 0.9566 0.9463 0.9391 0.9907 1.0407 1.1795 1.2207 1.2687 1.366
2671.634 1.2892 1.296 1.426 1.486 1.426 1.486 1.586 1.546 1.506 1.436
2690.924 1.346 1.316 1.2558 1.2638 1.268 1.2393 1.2087 1.1478 1.1743 1.2197
2710.214 1.2753 1.2511 1.1619 1.1761 1.2375 1.2902 1.346 1.446 1.566 1.646
2729.504 1.756 1.896 1.966 2.026 2.096 2.206 2.326 2.456 2.656 2.756
2748.794 2.846 3.086 3.276 3.476 3.816 4.146 4.636 5.246 5.826 6.296
2768.083 6.566 6.796 6.916 6.886 6.806 6.526 6.166 5.756 5.196 4.636
2787.373 4.136 3.816 3.676 3.466 3.316 3.306 3.306 3.316 3.396 3.476
2806.663 3.536 3.666 3.786 3.916 4.036 4.176 4.406 4.686 4.896 5.126
2825.953 5.466 5.786 6.066 6.346 6.716 7.176 7.526 7.826 8.356 8.966
2845.242 9.426 9.926 10.446 11.086 11.976 12.976 14.186 15.636 17.176 18.876
2864.532 20.776 22.726 24.596 26.316 27.756 28.916 29.826 30.206 30.176 29.896
2883.822 29.266 28.286 27.036 25.776 24.526 23.486 22.756 22.306 22.166 22.156
2903.112 22.296 22.616 23.096 23.616 24.146 24.816 25.446 26.026 26.606 27.216
2922.401 27.876 28.556 29.106 29.386 29.396 29.096 28.426 27.656 26.906 26.086
2941.691 25.126 23.916 22.466 20.996 19.586 18.406 17.496 16.706 15.876 14.966
2960.981 14.296 13.646 12.926 12.366 11.946 11.556 11.146 10.866 10.536 10.136
2980.271 9.866 9.716 9.666 9.646 9.716 9.666 9.686 9.756 9.766 10.006
2999.561 10.196 10.396 10.756 11.166 11.546 11.916 12.256 12.466 12.666 12.836
3018.850 12.996 13.046 13.136 13.306 13.416 13.356 13.286 13.306 13.216 13.006
3038.140 12.796 12.586 12.376 12.096 11.746 11.516 11.216 10.716 10.166 9.816
3057.430 9.556 9.146 8.796 8.596 8.306 8.126 7.856 7.386 7.006 6.616
3076.720 6.166 5.696 5.206 4.706 4.376 4.036 3.796 3.536 3.256 3.086
3096.009 2.916 2.796 2.616 2.606 2.656 2.576 2.416 2.336 2.216 2.096
3115.299 2.056 1.806 1.646 1.636 1.606 1.626 1.436 1.1467 1.036 1.034
3134.589 0.9718 0.9004 0.8088 0.8491 0.9123 0.8864 0.8115 0.6622 0.5591 0.5074
3153.879 0.5017 0.4992 0.4546 0.4317 0.4625 0.5525 0.5854 0.438 0.33291 0.3745
3173.169 0.37727 0.4414 0.4626 0.4341 0.4643 0.34324 0.299624 0.33894 0.4168 0.4624
3192.458 0.3107 0.2612 0.3967 0.5257 0.5722 0.4866 0.34687 0.3776 0.4403 0.4053
3211.748 0.37732 0.4025 0.38023 0.295709 0.2796 0.38482 0.4996 0.4268 0.37819 0.4154
3231.038 0.37403 0.39094 0.4798 0.5606 0.614 0.37344 0.32043 0.4715 0.4485 0.4768
3250.328 0.4335 0.37856 0.4251 0.5248 0.4925 0.4837 0.4549 0.4558 0.4949 0.4604
3269.617 0.4466 0.31161 0.35015 0.427 0.35137 0.37803 0.3969 0.28721 0.2638 0.4253
3288.907 0.4506 0.3635 0.33033 0.36878 0.32459 0.2241 0.302427 0.4154 0.34841 0.33169
3308.197 0.3905 0.34359 0.31963 0.35329 0.32858 0.18 0.17 0.34624 0.38557 0.33532
3327.487 0.31308 0.2339 0.31177 0.3969 0.31717 0.2848 0.2829 0.2785 0.305097 0.38185
3346.777 0.5158 0.5081 0.37868 0.4094 0.4403 0.38008 0.300369 0.3462 0.4173 0.3987
3366.066 0.2489 0.18 0.2892 0.195 0.189 0.3521 0.30922 0.2082 0.1992 0.2493
3385.356 0.38408 0.32485 0.183 0.33808 0.3636 0.2821 0.34275 0.31542 0.34375 0.28839
3404.646 0.30035 0.5489 0.6125 0.3979 0.279 0.2477 0.2185 0.2052 0.2069 0.2686
3423.936 0.2546 0.2668 0.37653 0.459 0.35463 0.301404 0.31626 0.2448 0.164 0.18
3443.225 0.188 0.2516 0.39538 0.35271 0.2549 0.2223 0.2677 0.33872 0.32498 0.32824
3462.515 0.3154 0.32616 0.4094 0.432 0.34969 0.28614 0.296155 0.122 0 0.132
3481.805 0.25 0.33846 0.32718 0.2418 0.3684 0.34454 0.1989 0.2746 0.32755 0.274
3501.095 0.2514 0.2575 0.2217 0.192 0.178 0.2062 0.2488 0.172 0.163 0.2436
3520.385 0.2793 0.31325 0.2795 0.305169 0.4362 0.5183 0.38637 0.296257 0.34729 0.33574
3539.674 0.37132 0.4664 0.4214 0.33163 0.2704 0.2569 0.35836 0.35398 0.37566 0.4103
3558.964 0.36169 0.28693 0.2246 0.2029 0.2085 0.2134 0.2446 0.2573 0.2258 0.2415
3578.254 0.112 0.125 0.152 0.2149 0.32347 0.2617 0.2835 0.32048 0.34057 0.4373
3597.544 0.5234 0.3909 0.188 0.129 0.143 0.2157 0.2284 0.161 0.1968 0.28799
3616.833 0.31361 0.3242 0.38495 0.39448 0.38899 0.38765 0.4572 0.492 0.4399 0.4053
3636.123 0.4504 0.4526 0.4529 0.4743 0.4789 0.4864 0.4904 0.4705 0.4475 0.4957
3655.413 0.5045 0.36272 0.31501 0.201 0.144 0.28901 0.37527 0.4151 0.28668 0.2644
3674.703 0.33933 0.33801 0.2674 0.2665 0.2588 0.2772 0.34522 0.301944 0.2626 0.37223
3693.993 0.4979 0.4151 0.29921 0.37496 0.502 0.459 0.4148 0.4424 0.36911 0.295272
3713.282 0.32359 0.35148 0.4437 0.35402 0.34248 0.36904 0.237 0.2279 0.149 0.18
3732.572 0.2388 0.2044 0.2699 0.2661 0.2852 0.39256 0.4751 0.5437 0.3996 0.300236
3751.862 0.401 0.4282 0.4304 0.38654 0.35543 0.4361 0.5329 0.5003 0.3951 0.37231
3771.152 0.3243 0.2565 0.32864 0.4366 0.4216 0.4851 0.5255 0.5615 0.5829 0.4871
3790.441 0.4656 0.4192 0.4112 0.4259 0.3725 0.4815 0.4686 0.3844 0.4911 0.5787
3809.731 0.5479 0.4361 0.37585 0.4027 0.5079 0.6086 0.5782 0.5153 0.4301 0.34296
3829.021 0.37202 0.4031 0.4706 0.5007 0.5039 0.4982 0.3874 0.33431 0.4185 0.4236
3848.311 0.448 0.5182 0.449 0.5718 0.6158 0.5105 0.45 0.4592 0.5441 0.5928
3867.601 0.5928 0.5429 0.5534 0.5034 0.4839 0.368 0.32397 0.34433 0.31973 0.37528
3886.890 0.36294 0.4485 0.4771 0.32391 0.36583 0.526 0.4092 0.3129 0.35399 0.531
3906.180 0.7146 0.6488 0.7472 0.6789 0.5313 0.5655 0.5317 0.5784 0.5878 0.5199
3925.470 0.37032 0.39488 0.7252 0.8295 0.7013 0.5187 0.4044 0.5207 0.6337 0.6117
3944.760 0.7151 0.8411 0.8185 0.7158 0.5468 0.5985 0.7551 0.8871 0.8536 0.5718
3964.049 0.4531 0.6351 0.7609 0.691 0.6698 0.653 0.6214 0.592 0.4957 0.569
3983.339 0.7046 0.6993 0.7737 0.8339 0.7565 0.6639 0.584 0.5003 0.38751 0.3981
##END=
