##TITLE=2,3-Dimethyl-3-hexene
##JCAMP-DX=4.24
##DATA TYPE=INFRARED SPECTRUM
##ORIGIN=NIST Mass Spectrometry Data Center
##OWNER=NIST Standard Reference Data Program
Collection (C) 2018 copyright by the U.S. Secretary of Commerce
on behalf of the United States of America. All rights reserved.
##CAS REGISTRY NO=7145-23-5
##MOLFORM=C 8 H 16
##$NIST SOURCE=MSDC-IR
##SPECTROMETER/DATA SYSTEM=HP-GC/MS/IRD
##STATE=gas
##XUNITS=1/CM
##YUNITS=ABSORBANCE
##XFACTOR=1.0
##YFACTOR=0.000000600
##DELTAX=4.0
##FIRSTX=550.0
##LASTX=3846.0
##FIRSTY=0.000197
##MAXX=3846
##MINX=550
##MAXY=0.006
##MINY=0
##NPOINTS=825
##XYDATA=(X++(Y..Y))
550.0 329 304 297 204 32 16 125 109 50 51
590.0 92 158 219 158 116 210 225 195 177 124
630.0 192 215 202 198 165 162 99 96 162 221
670.0 173 127 197 268 301 256 246 296 311 316
710.0 300 342 355 311 283 276 302 291 274 284
750.0 308 333 321 305 295 299 273 268 272 265
790.0 337 331 245 279 317 292 360 348 304 411
830.0 478 515 546 607 713 765 730 719 691 606
870.0 503 437 429 451 424 395 401 398 445 457
910.0 457 501 511 493 477 468 385 352 372 363
950.0 345 335 339 330 347 365 372 359 323 342
990.0 355 354 360 368 361 372 419 463 455 458
1030.0 507 505 480 494 511 503 530 545 554 519
1070.0 517 568 598 613 647 679 652 648 639 598
1110.0 534 447 368 349 334 343 407 378 313 325
1150.0 356 311 298 298 229 189 221 217 180 164
1190.0 168 203 228 218 174 162 160 126 141 160
1230.0 131 129 179 240 250 260 299 286 302 352
1270.0 341 320 353 379 396 468 563 665 716 736
1310.0 756 734 646 577 527 480 467 454 436 461
1350.0 542 623 687 762 892 1009 1088 1158 1162 1095
1390.0 1010 920 794 696 642 590 554 557 576 595
1430.0 636 681 747 839 913 979 1077 1204 1265 1221
1470.0 1165 1109 998 866 737 633 530 464 429 381
1510.0 366 356 319 293 288 266 233 226 250 258
1550.0 227 223 249 259 259 232 227 221 205 196
1590.0 189 216 247 243 194 148 153 174 189 179
1630.0 167 193 186 199 248 252 245 250 259 266
1670.0 238 194 206 227 225 220 195 192 188 176
1710.0 182 189 177 134 116 117 117 103 98 130
1750.0 153 140 150 139 90 88 118 128 132 131
1790.0 126 143 146 146 137 124 124 124 115 115
1830.0 117 101 86 94 99 97 91 83 82 103
1870.0 117 100 118 128 112 103 89 94 107 95
1910.0 76 83 82 88 106 104 84 76 81 74
1950.0 87 107 88 93 93 77 89 92 83 90
1990.0 99 82 96 95 74 77 62 77 82 77
2030.0 94 81 54 77 104 94 82 66 71 60
2070.0 50 80 85 90 96 84 77 64 65 66
2110.0 56 89 103 98 65 43 71 97 88 62
2150.0 44 28 29 36 21 27 41 34 64 92
2190.0 57 37 37 45 59 36 48 60 37 34
2230.0 50 42 53 58 55 46 52 48 37 49
2270.0 46 55 75 69 36 16 57 83 58 23
2310.0 0 10 8 0 7 24 34 24 15 31
2350.0 45 24 8 0 0 0 0 9 34 65
2390.0 77 64 54 70 89 115 137 111 87 68
2430.0 69 89 94 80 88 78 85 104 91 72
2470.0 79 81 76 87 64 57 72 73 90 124
2510.0 115 106 107 92 94 87 73 92 114 113
2550.0 130 103 89 122 148 145 122 137 150 138
2590.0 142 152 164 157 150 150 121 118 131 155
2630.0 152 148 144 109 119 113 117 156 158 160
2670.0 202 197 170 180 188 168 141 137 154 187
2710.0 217 226 238 267 265 246 264 310 281 263
2750.0 300 291 305 313 313 299 286 285 302 321
2790.0 342 374 387 397 398 433 466 497 552 628
2830.0 719 765 841 984 1135 1333 1558 1860 2266 2682
2870.0 3161 3618 3938 4060 4040 3967 3824 3712 3646 3634
2910.0 3706 3769 3911 4103 4348 4660 5006 5265 5437 5677
2950.0 6116 6885 8033 9230 9971 10000 9326 7982 6349 4946
2990.0 3884 3128 2563 2166 1913 1683 1531 1387 1217 1070
3030.0 972 941 886 806 754 695 668 640 594 589
3070.0 560 504 478 414 375 393 381 383 416 429
3110.0 375 338 331 312 284 266 276 266 287 326
3150.0 294 247 233 228 205 225 268 241 212 219
3190.0 208 187 182 215 220 222 174 124 132 147
3230.0 182 147 122 119 138 136 105 114 115 75
3270.0 58 107 118 105 120 93 80 105 106 105
3310.0 129 125 101 110 107 90 70 41 20 54
3350.0 84 101 73 46 76 94 120 118 97 132
3390.0 141 108 140 116 58 84 92 109 151 116
3430.0 90 118 94 93 95 108 119 107 72 75
3470.0 113 133 148 124 86 40 45 108 96 70
3510.0 67 75 90 62 37 21 0 31 47 20
3550.0 19 30 8 4 30 22 22 55 101 143
3590.0 106 63 36 36 71 80 117 90 47 31
3630.0 41 73 69 40 51 40 25 64 72 59
3670.0 51 20 52 65 22 29 67 82 95 98
3710.0 81 66 73 82 69 93 109 88 70 58
3750.0 66 34 12 11 45 92 93 104 90 55
3790.0 48 62 52 83 146 122 73 71 88 105
3830.0 100 95 105 114 117
##END=
