##TITLE=3-Methyl-4-penten-1-ol acetate
##JCAMP-DX=4.24
##DATA TYPE=INFRARED SPECTRUM
##ORIGIN=NIST Mass Spectrometry Data Center
##OWNER=NIST Standard Reference Data Program
Collection (C) 2018 copyright by the U.S. Secretary of Commerce
on behalf of the United States of America. All rights reserved.
##CAS REGISTRY NO=71487-16-6
##MOLFORM=C 8 H 14 O 2
##$NIST SOURCE=MSDC-IR
##SPECTROMETER/DATA SYSTEM=HP-GC/MS/IRD
##STATE=gas
##XUNITS=1/CM
##YUNITS=ABSORBANCE
##XFACTOR=1.0
##YFACTOR=0.000006500
##DELTAX=4.0
##FIRSTX=550.0
##LASTX=3846.0
##FIRSTY=0.000111
##MAXX=3846
##MINX=550
##MAXY=0.065
##MINY=0
##NPOINTS=825
##XYDATA=(X++(Y..Y))
550.0 17 15 13 14 5 0 7 7 19 46
590.0 72 95 123 152 177 185 188 187 186 202
630.0 221 236 244 225 192 166 148 148 162 177
670.0 196 214 216 196 166 134 96 73 60 52
710.0 50 42 36 38 44 46 44 47 51 57
750.0 64 74 83 89 93 92 92 95 92 87
790.0 87 94 101 110 116 128 140 145 155 166
830.0 173 172 173 178 180 185 190 197 204 208
870.0 215 230 251 276 305 348 401 485 610 786
910.0 994 1144 1186 1108 933 740 605 533 495 493
950.0 506 523 532 531 530 536 560 598 670 781
990.0 899 1002 1073 1113 1142 1176 1221 1278 1344 1423
1030.0 1533 1664 1798 1911 1981 1977 1885 1733 1558 1403
1070.0 1278 1186 1112 1040 969 896 824 746 671 604
1110.0 540 489 454 425 408 393 372 349 328 312
1150.0 303 300 304 325 349 375 415 471 552 654
1190.0 805 1027 1329 1759 2369 3242 4476 6067 7774 9214
1230.0 10000 9887 8900 7377 5760 4367 3350 2685 2254 1955
1270.0 1709 1474 1257 1064 911 803 721 650 595 545
1310.0 497 461 429 410 397 384 376 379 402 458
1350.0 564 769 1106 1502 1788 1905 1827 1559 1315 1185
1390.0 1094 989 850 702 585 528 511 505 500 493
1430.0 481 470 471 484 506 539 576 607 616 601
1470.0 561 507 446 379 321 275 240 212 196 184
1510.0 174 168 160 151 144 138 132 127 124 121
1550.0 118 117 116 118 120 120 119 121 121 125
1590.0 130 127 129 133 141 153 165 182 212 252
1630.0 297 345 376 382 358 313 266 235 215 201
1670.0 196 195 199 208 220 239 262 288 327 377
1710.0 441 524 624 754 925 1146 1444 1843 2383 3117
1750.0 4068 5046 5690 5842 5482 4593 3500 2583 1897 1402
1790.0 1053 805 629 505 414 354 315 285 269 259
1830.0 251 240 224 203 179 158 139 121 112 104
1870.0 94 88 82 76 71 70 67 62 59 55
1910.0 52 53 51 46 46 47 48 45 41 39
1950.0 39 40 38 38 41 44 45 46 49 49
1990.0 46 45 45 48 50 52 50 51 50 50
2030.0 52 50 52 55 53 53 54 53 54 56
2070.0 56 52 50 49 48 46 41 40 37 34
2110.0 33 33 31 30 31 30 28 27 27 25
2150.0 24 23 24 23 22 20 17 16 17 16
2190.0 16 13 12 13 13 12 10 9 11 11
2230.0 11 9 6 7 10 12 11 9 10 13
2270.0 13 10 10 10 8 9 10 11 11 11
2310.0 13 11 10 9 8 8 9 6 6 8
2350.0 6 7 6 3 4 8 8 6 5 6
2390.0 6 6 8 9 6 6 10 13 12 11
2430.0 11 12 14 14 14 17 17 15 16 18
2470.0 20 19 17 14 13 10 8 5 4 4
2510.0 3 3 2 3 3 1 2 4 3 2
2550.0 3 3 5 7 8 7 5 6 8 13
2590.0 14 14 17 14 11 14 16 13 11 10
2630.0 8 9 8 8 13 13 12 12 11 8
2670.0 10 13 14 16 18 20 21 18 18 21
2710.0 20 22 27 32 36 37 36 37 39 38
2750.0 38 38 35 33 32 33 34 37 38 39
2790.0 42 45 46 47 52 58 66 75 82 96
2830.0 113 133 156 184 215 243 276 323 383 460
2870.0 543 630 700 746 766 768 769 781 820 881
2910.0 955 1032 1109 1182 1252 1331 1404 1460 1504 1542
2950.0 1593 1687 1841 2057 2307 2490 2495 2325 2024 1645
2990.0 1313 1070 894 757 642 550 467 397 343 298
3030.0 267 249 238 233 229 235 246 261 282 315
3070.0 361 421 493 554 575 544 467 363 263 195
3110.0 154 125 106 93 83 74 65 56 55 56
3150.0 50 46 43 40 40 40 41 37 36 35
3190.0 29 34 36 29 27 26 20 14 19 19
3230.0 18 17 16 16 13 12 14 11 10 14
3270.0 18 15 11 9 12 14 11 12 13 14
3310.0 13 7 8 9 9 12 12 9 9 14
3350.0 14 11 11 10 4 4 10 11 9 8
3390.0 7 7 7 7 10 12 14 17 13 11
3430.0 14 17 15 14 20 21 17 19 22 23
3470.0 27 31 36 45 51 54 63 75 79 78
3510.0 75 71 61 50 45 37 30 28 24 18
3550.0 16 16 15 14 14 13 11 9 7 8
3590.0 11 12 8 9 8 5 5 7 10 9
3630.0 5 3 5 10 10 8 11 9 8 10
3670.0 11 9 10 14 15 11 3 2 10 11
3710.0 6 8 8 8 8 5 9 11 7 6
3750.0 12 8 2 8 10 4 7 11 12 10
3790.0 15 19 14 9 13 15 11 9 7 10
3830.0 14 12 13 15 12
##END=
