##TITLE=3-Methoxy-p-toluic acid
##JCAMP-DX=4.24
##DATA TYPE=INFRARED SPECTRUM
##ORIGIN=EPA-IR VAPOR PHASE LIBRARY
##OWNER=SRD/NIST
Collection (C) 2018 copyright by the U.S. Secretary of Commerce
on behalf of the United States of America. All rights reserved.
##CAS REGISTRY NO=7151-68-0
##MOLFORM=C 9 H 10 O 3
##$NIST SOURCE=MSDC-IR
##STATE=gas
##XUNITS=1/CM
##YUNITS=ABSORBANCE
##XFACTOR=1.
##YFACTOR=0.001
##DELTAX=1.92898
##FIRSTX=549.8
##LASTX=4000.7
##FIRSTY=5.493
##MAXX=4000.7
##MINX=549.759
##MAXY=0.114633
##MINY=0
##NPOINTS=1790
##XYDATA=(X++(Y..Y))
549.759 5.493 4.763 4.123 3.963 4.003 4.063 3.963 3.963 4.123 4.303
569.049 4.613 4.753 4.883 5.313 5.593 5.913 6.153 6.413 6.793 7.023
588.339 7.373 7.703 7.893 8.173 8.593 9.013 9.623 10.563 11.923 13.723
607.628 15.153 16.093 16.913 17.413 17.413 17.013 15.813 13.703 11.693 10.063
626.918 8.403 6.953 5.673 4.353 3.393 2.783 2.303 1.973 1.803 1.753
646.208 1.543 1.433 1.633 1.543 1.303 1.293 1.223 1.163 1.0873 0.9459
665.498 0.9625 1.0469 1.0569 0.9925 0.9373 0.9453 0.9233 0.9088 0.9888 1.008
684.787 1.1312 1.413 1.453 1.583 1.883 2.213 2.813 3.583 4.973 7.223
704.077 10.123 13.113 15.313 16.633 17.373 17.583 17.123 16.033 13.613 10.233
723.367 7.233 5.083 3.803 3.133 2.773 2.713 2.763 2.943 3.333 3.973
742.657 4.893 6.103 7.763 9.663 11.613 13.583 15.803 18.193 20.783 23.163
761.947 23.333 21.303 19.133 17.393 15.423 13.123 10.923 9.043 7.323 5.793
781.236 4.623 3.753 3.073 2.643 2.503 2.273 1.893 1.773 1.753 1.623
800.526 1.603 1.733 1.733 1.573 1.513 1.583 1.663 1.693 1.813 1.883
819.816 1.983 2.073 2.213 2.243 2.243 2.233 2.033 1.773 1.563 1.463
839.106 1.423 1.313 1.203 1.1194 1.0835 1.1279 1.143 1.333 1.453 1.573
858.395 1.673 1.813 1.963 2.093 2.433 2.773 3.103 3.563 3.953 4.073
877.685 4.173 4.303 4.483 4.763 4.923 5.013 5.343 5.753 6.183 6.863
896.975 7.293 7.423 7.473 7.403 7.063 6.593 5.883 4.853 3.903 3.063
916.265 2.493 2.263 1.983 1.673 1.563 1.533 1.433 1.363 1.283 1.193
935.555 1.203 1.283 1.333 1.253 1.1128 1.0457 1.0513 1.153 1.223 1.173
954.844 1.193 1.163 1.0502 1.193 1.393 1.443 1.593 1.643 1.723 1.863
974.134 2.023 2.233 2.463 2.803 3.153 3.533 3.843 4.113 4.463 4.863
993.424 5.073 5.083 5.173 5.193 5.113 5.093 5.103 4.953 4.863 5.193
1012.714 5.753 6.233 6.873 7.733 8.783 10.023 11.203 12.793 14.703 16.263
1032.003 17.813 19.273 20.073 20.663 20.963 20.643 19.653 18.523 17.233 15.633
1051.293 14.323 12.993 11.673 10.693 10.043 10.003 10.483 11.553 13.143 14.923
1070.583 17.193 19.863 22.423 24.693 26.753 29.243 31.863 33.783 34.843 34.723
1089.873 33.483 31.723 29.913 27.763 24.703 21.163 18.023 15.263 13.163 12.103
1109.163 12.013 12.263 12.743 14.043 15.853 17.723 19.463 21.163 22.513 23.013
1128.452 23.643 24.693 25.313 25.323 25.163 25.063 25.483 26.913 29.343 32.533
1147.742 35.723 39.113 42.823 45.653 46.853 46.783 45.893 43.973 40.913 37.293
1167.032 33.623 30.233 27.523 25.153 23.203 22.193 21.833 21.843 21.983 22.173
1186.322 22.603 22.853 22.703 22.433 21.883 20.943 19.833 18.753 17.243 15.573
1205.611 14.143 12.733 11.473 10.553 10.153 9.683 9.283 9.473 9.923 10.513
1224.901 11.303 12.463 13.883 15.563 17.643 20.063 22.893 26.083 29.523 33.003
1244.191 36.343 39.293 41.403 42.353 42.283 41.113 38.983 36.303 32.913 29.113
1263.481 25.623 22.813 20.903 19.713 18.963 18.603 18.353 18.243 18.263 18.353
1282.771 18.373 18.303 18.203 18.033 17.903 17.813 17.643 17.333 16.913 16.333
1302.060 15.733 15.183 14.613 14.103 13.613 13.213 12.833 12.583 12.533 12.723
1321.350 13.113 13.663 14.523 15.673 16.963 18.473 20.023 21.383 22.503 23.203
1340.640 23.463 23.343 22.803 21.893 20.673 19.193 17.673 16.333 15.243 14.363
1359.930 13.623 12.983 12.393 11.873 11.453 11.083 10.733 10.533 10.463 10.443
1379.219 10.393 10.303 10.373 10.533 10.933 11.633 12.453 13.633 15.383 17.713
1398.509 20.443 23.393 26.143 28.493 30.283 31.343 31.493 30.733 29.163 26.863
1417.799 24.013 20.833 17.953 15.443 13.243 11.533 10.133 9.023 8.173 7.593
1437.089 7.123 6.813 6.713 6.773 7.003 7.423 8.083 8.873 9.743 10.643
1456.378 11.623 12.613 13.463 14.193 14.683 14.783 14.443 13.913 13.323 12.673
1475.668 12.013 11.183 10.243 9.393 8.813 8.583 8.613 8.893 9.433 10.153
1494.958 10.933 11.853 12.763 13.473 13.973 14.123 13.863 13.373 12.633 11.633
1514.248 10.483 9.153 7.833 6.683 5.573 4.733 4.143 3.753 3.483 3.283
1533.538 3.123 2.983 2.873 2.853 2.853 2.843 2.933 3.023 3.123 3.253
1552.827 3.423 3.583 3.833 4.173 4.603 5.033 5.543 6.183 6.833 7.593
1572.117 8.443 9.293 10.173 10.973 11.603 12.053 12.183 12.103 11.833 11.413
1591.407 10.943 10.363 9.753 9.253 8.863 8.573 8.443 8.453 8.393 8.203
1610.697 7.983 7.723 7.363 6.903 6.353 5.633 4.923 4.323 3.763 3.313
1629.986 2.953 2.643 2.413 2.203 2.053 2.013 2.003 1.993 1.983 1.983
1649.276 2.043 2.033 1.953 2.003 2.063 2.043 2.013 1.943 1.853 1.753
1668.566 1.723 1.733 1.663 1.563 1.583 1.653 1.683 1.763 1.873 2.003
1687.856 2.193 2.473 2.763 3.063 3.413 3.843 4.313 4.823 5.243 5.583
1707.146 5.893 6.123 6.133 6.093 6.093 6.053 5.983 6.013 6.093 6.323
1726.435 6.693 7.283 8.303 9.843 12.053 14.973 18.803 24.323 31.593 41.183
1745.725 53.073 66.973 81.293 94.583 104.823 111.253 114.633 114.603 109.243 98.723
1765.015 84.543 66.733 47.813 33.123 23.013 16.823 13.053 10.563 9.033 7.973
1784.305 7.243 6.703 6.333 6.083 5.903 5.753 5.683 5.683 5.723 5.803
1803.594 5.893 5.943 5.923 5.783 5.483 5.013 4.423 3.933 3.503 3.053
1822.884 2.633 2.203 1.873 1.673 1.503 1.343 1.253 1.173 1.0726 1.03
1842.174 1.0387 1.047 1.0127 1.0147 1.012 1.0047 1.0242 0.9864 0.9669 1.0306
1861.464 1.077 1.0635 1.0664 1.0629 1.0546 1.0657 1.0482 1.0571 1.1023 1.0877
1880.754 1.0799 1.1118 1.1302 1.134 1.163 1.183 1.223 1.263 1.303 1.383
1900.043 1.383 1.373 1.393 1.373 1.333 1.273 1.193 1.1351 1.0578 0.9916
1919.333 0.9408 0.8759 0.8236 0.7908 0.7801 0.7545 0.7138 0.6842 0.6762 0.6781
1938.623 0.6844 0.6606 0.6161 0.6535 0.714 0.6803 0.6336 0.6408 0.6781 0.6945
1957.913 0.6773 0.7052 0.729 0.7092 0.7124 0.6984 0.6731 0.6767 0.6645 0.6146
1977.202 0.5615 0.5568 0.5749 0.5806 0.5579 0.5978 0.6425 0.635 0.6281 0.6427
1996.492 0.6826 0.6875 0.6842 0.686 0.7156 0.6964 0.6508 0.6548 0.6837 0.7398
2015.782 0.7303 0.7074 0.7368 0.7413 0.7325 0.7132 0.7099 0.7322 0.7357 0.7439
2035.072 0.7611 0.7996 0.8124 0.8042 0.8473 0.9023 0.8805 0.8563 0.9397 0.9757
2054.362 0.929 0.9109 0.9522 0.9496 0.9167 0.8859 0.8551 0.8904 0.8707 0.8509
2073.651 0.8759 0.8463 0.7968 0.8169 0.8241 0.7767 0.75 0.7391 0.7366 0.7126
2092.941 0.6708 0.6432 0.6431 0.6371 0.6344 0.6454 0.5979 0.5471 0.5519 0.5488
2112.231 0.5542 0.5452 0.5144 0.5293 0.5097 0.5495 0.6175 0.5971 0.5815 0.5782
2131.521 0.5661 0.5986 0.6759 0.6709 0.6496 0.7064 0.7628 0.7598 0.7425 0.7391
2150.810 0.7687 0.7949 0.752 0.733 0.7505 0.7801 0.8141 0.7619 0.6762 0.6353
2170.100 0.6284 0.625 0.6204 0.6299 0.58 0.5244 0.5066 0.492 0.4944 0.5103
2189.390 0.4621 0.4409 0.404 0.3658 0.4358 0.4356 0.4422 0.486 0.4574 0.4116
2208.680 0.418 0.3894 0.414 0.4576 0.4391 0.4168 0.4198 0.416 0.3872 0.3925
2227.970 0.432 0.4626 0.406 0.3826 0.4151 0.4415 0.465 0.4536 0.3875 0.3711
2247.259 0.4135 0.4198 0.3902 0.3938 0.3848 0.3513 0.3805 0.3868 0.4393 0.4566
2266.549 0.4023 0.4283 0.4383 0.4004 0.3786 0.4067 0.464 0.4342 0.4382 0.4331
2285.839 0.4095 0.4847 0.5625 0.5502 0.5007 0.5426 0.5467 0.5073 0.5217 0.5667
2305.129 0.5119 0.4668 0.5118 0.5521 0.5594 0.5536 0.5187 0.4959 0.5447 0.5018
2324.418 0.5032 0.5149 0.4795 0.5327 0.5351 0.4931 0.4754 0.4692 0.4656 0.4852
2343.708 0.4879 0.4429 0.427 0.399 0.3678 0.4009 0.3831 0.3849 0.4333 0.4401
2362.998 0.391 0.3823 0.408 0.3689 0.3946 0.403 0.359 0.3657 0.3999 0.3972
2382.288 0.4266 0.4548 0.4048 0.3939 0.4593 0.4437 0.4047 0.4029 0.391 0.4049
2401.578 0.5084 0.5204 0.4185 0.4613 0.5166 0.5036 0.4891 0.5195 0.5998 0.5814
2420.867 0.5434 0.5714 0.5368 0.5012 0.5086 0.5105 0.537 0.5689 0.5123 0.469
2440.157 0.4714 0.4027 0.3949 0.498 0.5219 0.5352 0.5428 0.5381 0.5493 0.5192
2459.447 0.4635 0.4789 0.554 0.5753 0.5169 0.4945 0.5452 0.526 0.577 0.5992
2478.737 0.5325 0.5422 0.597 0.6345 0.649 0.6027 0.5972 0.712 0.7233 0.7162
2498.026 0.7429 0.7241 0.7285 0.7618 0.7533 0.697 0.7153 0.7062 0.6947 0.6879
2517.316 0.5773 0.5453 0.6111 0.6021 0.5216 0.4253 0.3808 0.4445 0.4841 0.4433
2536.606 0.4112 0.4226 0.4499 0.4839 0.4949 0.4631 0.4489 0.4691 0.4417 0.4201
2555.896 0.463 0.4495 0.4611 0.5044 0.5251 0.5109 0.456 0.5009 0.5139 0.4559
2575.186 0.4785 0.5167 0.5171 0.5355 0.5249 0.5354 0.567 0.5481 0.5298 0.5661
2594.475 0.6086 0.6137 0.5668 0.5743 0.6123 0.5677 0.6027 0.6187 0.5904 0.6059
2613.765 0.609 0.5884 0.5283 0.5581 0.573 0.5371 0.5295 0.5036 0.5361 0.5524
2633.055 0.5539 0.5747 0.5694 0.5393 0.5688 0.5741 0.4872 0.5475 0.5935 0.5837
2652.345 0.5646 0.4824 0.4673 0.4494 0.4288 0.4322 0.4766 0.5178 0.4798 0.4301
2671.634 0.4788 0.4939 0.4389 0.3666 0.3504 0.3736 0.3662 0.357 0.4494 0.4679
2690.924 0.3976 0.4297 0.4085 0.4394 0.4946 0.4951 0.4203 0.4009 0.4434 0.433
2710.214 0.4475 0.411 0.3505 0.3577 0.4196 0.4491 0.4851 0.4977 0.4533 0.4095
2729.504 0.398 0.3967 0.3917 0.4996 0.5181 0.442 0.5223 0.554 0.5484 0.6105
2748.794 0.7131 0.7555 0.5993 0.5082 0.5593 0.5672 0.5307 0.5278 0.5103 0.5774
2768.083 0.6306 0.6225 0.6568 0.6117 0.6311 0.6397 0.5949 0.5561 0.6231 0.7363
2787.373 0.7506 0.7972 0.8051 0.8407 0.8555 0.8971 0.9406 0.9311 0.9492 0.9898
2806.663 1.0892 1.253 1.333 1.343 1.413 1.503 1.663 1.803 1.943 2.113
2825.953 2.263 2.473 2.773 3.233 3.563 3.883 4.203 4.453 4.753 4.983
2845.242 5.183 5.303 5.323 5.183 5.043 4.943 4.883 4.853 4.833 4.903
2864.532 5.033 5.123 5.103 5.053 5.033 5.043 4.993 4.903 4.843 4.673
2883.822 4.413 4.303 4.273 4.263 4.223 4.133 4.133 4.213 4.173 4.273
2903.112 4.503 4.623 4.833 4.983 5.193 5.583 5.933 6.253 6.593 6.973
2922.401 7.333 7.793 8.343 8.893 9.623 10.383 11.083 11.693 12.203 12.593
2941.691 12.873 13.073 12.963 12.653 12.383 12.223 12.083 11.833 11.423 11.113
2960.981 10.863 10.513 10.163 9.663 9.073 8.473 7.943 7.533 7.133 6.833
2980.271 6.573 6.413 6.323 6.173 6.173 6.263 6.363 6.573 6.933 7.323
2999.561 7.713 8.163 8.653 8.973 8.963 8.823 8.573 8.073 7.463 6.773
3018.850 6.003 5.173 4.643 4.383 4.113 4.113 4.323 4.493 4.583 4.573
3038.140 4.643 4.743 4.623 4.483 4.403 4.233 3.973 3.633 3.333 2.963
3057.430 2.583 2.353 2.333 2.323 2.203 2.253 2.353 2.323 2.373 2.513
3076.720 2.623 2.663 2.673 2.623 2.533 2.513 2.413 2.323 2.303 2.213
3096.009 2.083 1.973 1.863 1.723 1.603 1.503 1.443 1.333 1.153 1.0587
3115.299 1.0258 1.042 0.892 0.8756 0.9664 0.858 0.7687 0.7208 0.726 0.6704
3134.589 0.682 0.7475 0.6564 0.5617 0.4664 0.4208 0.5629 0.5956 0.5493 0.5454
3153.879 0.4714 0.4762 0.5227 0.4831 0.3959 0.3902 0.3457 0.3829 0.5856 0.539
3173.169 0.4157 0.4307 0.4191 0.3684 0.4398 0.4869 0.4245 0.3705 0.255 0.23936
3192.458 0.3014 0.3435 0.3126 0.2487 0.2759 0.3345 0.3285 0.22096 0.2938 0.4154
3211.748 0.3875 0.3322 0.19517 0.22427 0.3741 0.2977 0.19443 0.20785 0.19568 0.261
3231.038 0.2552 0.21827 0.3293 0.421 0.4083 0.3966 0.3596 0.20483 0.1089 0.20774
3250.328 0.3548 0.2793 0.23463 0.16602 0.004 0.0786 0.2597 0.2876 0.2588 0.2777
3269.617 0.2668 0.17999 0.17411 0.18074 0.23935 0.2925 0.23861 0.16882 0.1103 0.20154
3288.907 0.21617 0.21084 0.2976 0.2803 0.2856 0.3125 0.20397 0.13913 0.21275 0.23069
3308.197 0.22274 0.2608 0.2128 0.033 0.02 0.18724 0.2754 0.2708 0.2438 0.2793
3327.487 0.1672 0.043 0.1193 0.19262 0.19358 0.2511 0.3826 0.4734 0.3782 0.22941
3346.777 0.24059 0.2737 0.3216 0.4018 0.3944 0.245 0.0693 0.1302 0.20061 0.3167
3366.066 0.4365 0.3316 0.2731 0.15712 0 0.037 0.13621 0.143518 0.1168 0.146386
3385.356 0.146884 0.1067 0.2639 0.3605 0.18087 0.152765 0.2179 0.2539 0.2963 0.2555
3404.646 0.2566 0.2947 0.17412 0.018 0.0931 0.16912 0.2472 0.2889 0.23868 0.2575
3423.936 0.2865 0.2731 0.2708 0.2484 0.22547 0.23308 0.22842 0.21202 0.22923 0.266
3443.225 0.3138 0.3284 0.3244 0.2772 0.17863 0.13627 0.0857 0.0986 0.21452 0.2554
3462.515 0.2863 0.2875 0.2585 0.3403 0.3367 0.3261 0.413 0.4724 0.5499 0.6757
3481.805 0.7851 0.8156 0.8242 0.9169 1.0416 1.0246 0.9199 0.953 1.0502 1.1032
3501.095 1.0279 0.8957 0.8744 0.978 0.9075 0.7787 0.8342 0.7942 0.6893 0.6001
3520.385 0.654 0.667 0.5322 0.5434 0.6361 0.6955 0.6147 0.5891 0.6493 0.6098
3539.674 0.5066 0.4515 0.4152 0.5025 0.6396 0.7205 0.7374 0.7137 0.8764 0.9834
3558.964 1.0534 1.333 1.843 2.573 3.673 5.333 7.673 11.363 16.493 22.553
3578.254 28.513 32.843 34.883 35.193 34.413 32.253 28.813 23.723 16.993 10.793
3597.544 6.493 3.963 2.623 1.943 1.573 1.273 0.9846 0.8253 0.8022 0.8709
3616.833 0.8143 0.6469 0.6699 0.6391 0.6126 0.6233 0.5328 0.3566 0.3561 0.4415
3636.123 0.3543 0.2579 0.2894 0.2526 0.2585 0.2665 0.1083 0.0862 0.2513 0.3452
3655.413 0.255 0.17144 0.25 0.3918 0.2924 0.23281 0.2751 0.2773 0.15302 0.1237
3674.703 0.2673 0.23282 0.2783 0.3838 0.3306 0.20767 0.20586 0.2919 0.2553 0.22525
3693.993 0.1275 0.1216 0.17441 0.17108 0.17469 0.0875 0.16197 0.2492 0.18649 0.0697
3713.282 0.13786 0.2334 0.17482 0.1183 0.14063 0.16154 0.079 0.1308 0.2734 0.3103
3732.572 0.2879 0.3467 0.4143 0.3417 0.2588 0.23605 0.0884 0.031 0.23917 0.3527
3751.862 0.21021 0.2516 0.21698 0.142999 0.3344 0.4243 0.4862 0.4502 0.3427 0.354
3771.152 0.3288 0.3226 0.3941 0.2799 0.15806 0.1009 0.0593 0.23323 0.21181 0.13923
3790.441 0.23892 0.2506 0.2465 0.22868 0.23377 0.4209 0.5482 0.4122 0.2451 0.0964
3809.731 0.1271 0.2294 0.2295 0.1306 0.013 0.1026 0.3526 0.4204 0.3401 0.2444
3829.021 0.22804 0.15811 0.16016 0.22207 0.1 0.19407 0.23134 0.0831 0.13592 0.20695
3848.311 0.17514 0.2634 0.2779 0.13889 0.2858 0.3726 0.3417 0.22542 0.17134 0.2814
3867.601 0.2603 0.2478 0.3134 0.3724 0.3827 0.22499 0.23807 0.4307 0.4711 0.3805
3886.890 0.13751 0.18395 0.3053 0.19662 0.16506 0.3325 0.3592 0.2076 0.2595 0.19441
3906.180 0.1072 0.2904 0.4035 0.3729 0.4366 0.509 0.4054 0.3407 0.3524 0.13678
3925.470 0.1305 0.3046 0.2769 0.20116 0.2574 0.4279 0.3838 0.3254 0.3675 0.3321
3944.760 0.22445 0.4302 0.5322 0.3669 0.3512 0.3514 0.37 0.2682 0.2464 0.3647
3964.049 0.3009 0.3399 0.4326 0.4389 0.3842 0.3068 0.4707 0.4737 0.3389 0.3333
3983.339 0.3732 0.4124 0.3962 0.5264 0.6079 0.5771 0.4472 0.4275 0.3976 0.2821
##END=
