##TITLE=2-(Methylmercapto)benzimidazole
##JCAMP-DX=4.24
##DATA TYPE=INFRARED SPECTRUM
##ORIGIN=EPA-IR VAPOR PHASE LIBRARY
##OWNER=SRD/NIST
Collection (C) 2018 copyright by the U.S. Secretary of Commerce
on behalf of the United States of America. All rights reserved.
##CAS REGISTRY NO=7152-24-1
##MOLFORM=C 8 H 8 N 2 S
##$NIST SOURCE=MSDC-IR
##STATE=gas
##XUNITS=1/CM
##YUNITS=ABSORBANCE
##XFACTOR=1.
##YFACTOR=0.001
##DELTAX=1.92898
##FIRSTX=549.8
##LASTX=4000.7
##FIRSTY=0.5344
##MAXX=4000.7
##MINX=549.759
##MAXY=0.036711
##MINY=0
##NPOINTS=1790
##XYDATA=(X++(Y..Y))
549.759 0.5344 0.4669 0.4761 0.33458 0.01 0.30666 0.609 0.4336 0.34924 0.2035
569.049 0.127 0.4908 0.7498 0.7216 0.6832 0.5 0.4759 0.6249 0.9515 1.1587
588.339 0.8653 0.6781 0.834 0.8456 0.7952 0.8847 0.9538 0.8442 0.7451 0.7214
607.628 0.4539 0.34889 0.5666 0.5113 0.32549 0.32517 0.34846 0.4327 0.4861 0.4113
626.918 0.3614 0.25193 0.057 0.015 0.148 0.27514 0.35173 0.4166 0.4125 0.3834
646.208 0.33521 0.27184 0.2055 0.34482 0.6046 0.7219 0.8877 1.0245 1.0814 1.0546
665.498 1.1008 1.217 1.321 1.571 1.871 2.091 2.121 2.021 1.961 1.881
684.787 1.771 1.711 1.651 1.631 1.541 1.391 1.371 1.361 1.2524 1.281
704.077 1.561 1.781 1.971 2.091 2.401 3.011 3.561 4.421 5.441 6.831
723.367 8.391 9.761 11.341 12.571 13.801 15.871 19.111 22.131 20.911 17.471
742.657 15.661 14.601 13.421 12.011 10.431 8.861 7.541 6.391 5.311 4.331
761.947 3.611 3.061 2.511 2.171 1.931 1.561 1.471 1.421 1.421 1.291
781.236 0.994 1.0841 1.0309 0.9529 1.2383 1.551 1.841 2.011 2.191 2.471
800.526 2.551 2.531 2.581 2.811 3.011 2.851 2.671 2.621 2.631 2.581
819.816 2.651 2.701 2.851 2.991 2.951 3.241 3.561 3.631 3.581 3.591
839.106 3.701 3.821 3.881 3.891 3.811 3.691 3.571 3.591 3.421 3.221
858.395 3.181 3.171 3.201 2.791 2.511 2.541 2.571 2.531 2.371 2.091
877.685 1.881 1.921 1.941 1.921 1.921 1.861 1.841 2.001 2.011 2.061
896.975 2.131 2.091 2.041 1.941 1.971 1.911 1.731 1.621 1.651 1.661
916.265 1.621 1.711 1.861 1.761 1.731 1.731 1.601 1.541 1.431 1.381
935.555 1.321 1.2345 1.291 1.331 1.281 1.371 1.401 1.421 1.681 1.771
954.844 1.901 2.311 2.621 2.831 2.951 3.181 3.451 3.561 3.641 3.651
974.134 3.581 3.621 3.721 3.641 3.411 3.231 3.081 2.921 2.771 2.821
993.424 2.861 2.821 2.771 2.761 2.901 3.071 3.211 3.351 3.331 3.011
1012.714 2.771 2.611 2.471 2.151 1.861 1.501 1.2406 1.321 1.351 1.271
1032.003 1.171 1.1549 1.0518 1.0483 1.1403 1.0017 0.9354 0.9676 0.9026 0.8728
1051.293 1.0135 1.2065 1.1225 0.9642 0.7825 0.7806 0.7236 0.4644 0.4163 0.526
1070.583 0.6903 0.7012 0.7141 1.1261 1.1481 1.0288 1.1175 0.783 0.7346 1.0559
1089.873 1.076 1.1383 1.1467 1.2151 1.2086 0.9998 1.123 1.311 1.291 1.1343
1109.163 1.1422 1.1869 1.261 1.1503 0.932 0.6535 0.8064 0.9554 0.9646 1.0428
1128.452 1.0958 1.431 1.721 2.221 2.771 3.321 3.731 3.991 4.141 4.231
1147.742 4.181 3.921 3.591 3.161 2.741 2.321 2.311 1.951 1.421 1.311
1167.032 1.021 0.8266 0.9062 1.0122 1.0602 0.9642 0.8298 0.892 0.8701 0.9756
1186.322 0.794 0.4868 0.5473 0.4837 0.5482 0.7193 0.8135 0.7623 0.784 1.0152
1205.611 0.9856 0.937 1.0654 1.581 2.271 2.631 3.291 3.601 3.421 3.271
1224.901 3.331 3.141 2.761 2.241 1.721 1.571 1.361 1.401 1.661 2.041
1244.191 2.891 4.051 5.581 7.751 10.441 13.561 16.531 18.731 19.691 19.731
1263.481 19.471 18.491 16.211 12.961 9.711 7.271 5.991 5.661 5.771 5.891
1282.771 5.851 5.721 5.711 5.551 4.911 4.061 3.301 2.731 2.501 2.411
1302.060 2.411 2.551 2.881 3.381 4.041 4.981 6.071 7.301 8.551 9.601
1321.350 10.491 11.271 11.971 12.461 12.651 12.461 12.081 11.721 11.451 11.261
1340.640 11.121 11.041 10.871 10.521 10.061 9.551 9.001 8.441 7.741 6.911
1359.930 6.181 5.571 5.251 5.321 5.791 6.671 7.961 9.691 11.761 13.901
1379.219 15.991 17.861 19.341 20.461 20.991 20.731 19.721 18.071 16.081 13.981
1398.509 11.921 9.981 8.421 7.281 6.481 5.951 5.621 5.491 5.521 5.671
1417.799 6.021 6.551 7.161 7.981 9.271 10.961 13.101 15.721 18.871 22.341
1437.089 26.311 30.361 33.881 36.181 36.711 35.751 33.801 31.141 27.461 22.811
1456.378 17.571 13.041 10.251 8.691 8.191 8.461 9.271 10.301 11.341 12.441
1475.668 13.621 14.871 15.961 16.571 16.421 15.611 14.691 13.831 12.861 11.571
1494.958 9.901 8.181 6.831 5.901 5.191 4.501 3.821 3.391 3.021 2.631
1514.248 2.301 2.001 1.791 1.611 1.511 1.521 1.521 1.511 1.511 1.551
1533.538 1.611 1.631 1.621 1.561 1.561 1.591 1.551 1.541 1.431 1.311
1552.827 1.2569 1.2188 1.1884 1.1021 1.1954 1.331 1.421 1.541 1.611 1.661
1572.117 1.701 1.711 1.711 1.721 1.701 1.651 1.631 1.491 1.271 1.16
1591.407 1.1056 1.1308 1.1541 1.1089 1.1006 1.1739 1.291 1.401 1.521 1.611
1610.697 1.741 1.931 2.071 2.031 1.971 1.901 1.791 1.681 1.521 1.361
1629.986 1.1825 1.0214 0.8259 0.6913 0.6995 0.6592 0.7035 0.7462 0.7024 0.7627
1649.276 0.8573 0.9264 1.0007 1.0636 1.1017 1.0648 0.9537 0.9097 0.8762 0.776
1668.566 0.6717 0.6002 0.5698 0.5333 0.5392 0.5536 0.4861 0.4038 0.3787 0.3954
1687.856 0.3932 0.34002 0.30143 0.27616 0.2515 0.2267 0.1659 0.1973 0.2216 0.28368
1707.146 0.3657 0.3675 0.3793 0.3751 0.34567 0.32708 0.34059 0.3924 0.3859 0.35156
1726.435 0.3634 0.3611 0.35262 0.31421 0.30186 0.3808 0.4361 0.4607 0.5355 0.5607
1745.725 0.573 0.6283 0.6824 0.764 0.8296 0.8383 0.8148 0.8154 0.836 0.8455
1765.015 0.7981 0.712 0.6264 0.5279 0.4602 0.404 0.3855 0.3824 0.34999 0.3959
1784.305 0.35449 0.35039 0.4212 0.4413 0.5061 0.6014 0.6629 0.6246 0.6417 0.6305
1803.594 0.5534 0.5172 0.4392 0.33745 0.29756 0.2451 0.2371 0.2436 0.2122 0.263055
1822.884 0.31533 0.3525 0.3721 0.3909 0.4381 0.4932 0.5223 0.5982 0.6614 0.6296
1842.174 0.6807 0.7357 0.7074 0.6586 0.6082 0.5453 0.5519 0.561 0.5486 0.5631
1861.464 0.5432 0.5583 0.6393 0.7252 0.7695 0.8237 0.8722 0.9138 0.9228 0.8387
1880.754 0.8191 0.845 0.7721 0.7508 0.7167 0.6187 0.5739 0.5298 0.4999 0.452
1900.043 0.3864 0.4247 0.4674 0.4538 0.5597 0.682 0.7864 0.9248 0.997 1.0044
1919.333 1.0274 0.9941 0.9358 0.8822 0.7562 0.6024 0.4874 0.4107 0.35744 0.34183
1938.623 0.29638 0.260825 0.29151 0.30793 0.268713 0.2454 0.266299 0.29382 0.31558 0.34866
1957.913 0.34427 0.32029 0.30324 0.28698 0.264724 0.25397 0.268149 0.262131 0.2205 0.2275
1977.202 0.26489 0.27107 0.27478 0.27723 0.28734 0.28697 0.266088 0.232 0.27735 0.35009
1996.492 0.32497 0.30288 0.31652 0.30062 0.33364 0.3477 0.35176 0.4084 0.3753 0.33656
2015.782 0.30222 0.28318 0.29738 0.29652 0.31891 0.30841 0.29236 0.27895 0.27992 0.31133
2035.072 0.33322 0.35483 0.3832 0.4093 0.3692 0.32922 0.32151 0.31988 0.28643 0.2442
2054.362 0.27143 0.31531 0.31691 0.30195 0.2986 0.33155 0.3681 0.35523 0.27765 0.2372
2073.651 0.31945 0.3839 0.33807 0.28674 0.28056 0.28857 0.28734 0.267742 0.270141 0.260938
2092.941 0.28871 0.29399 0.29546 0.33204 0.33288 0.36087 0.3938 0.3782 0.3789 0.3954
2112.231 0.442 0.4613 0.3843 0.34535 0.34924 0.33889 0.32966 0.32249 0.3141 0.33119
2131.521 0.3672 0.34075 0.28885 0.30518 0.32689 0.33586 0.31479 0.29708 0.32177 0.33983
2150.810 0.30703 0.33827 0.3913 0.4142 0.41 0.4235 0.4016 0.30051 0.29349 0.30903
2170.100 0.27846 0.30129 0.29739 0.25884 0.30313 0.32096 0.32948 0.3538 0.34982 0.33698
2189.390 0.32307 0.30028 0.265695 0.229 0.25956 0.31477 0.30914 0.28662 0.265512 0.246
2208.680 0.29199 0.3783 0.3844 0.3967 0.4217 0.3878 0.3913 0.4085 0.3915 0.393
2227.970 0.3729 0.34042 0.3881 0.368 0.3079 0.33387 0.3621 0.3637 0.35228 0.34245
2247.259 0.32256 0.28888 0.31456 0.3616 0.31185 0.263105 0.32766 0.3805 0.3839 0.4136
2266.549 0.403 0.408 0.4039 0.3748 0.4297 0.4594 0.4218 0.4123 0.4459 0.4441
2285.839 0.4199 0.447 0.4497 0.4424 0.4557 0.4823 0.4772 0.4312 0.4407 0.4174
2305.129 0.363 0.3923 0.4086 0.3555 0.3715 0.4073 0.3655 0.32627 0.29014 0.27292
2324.418 0.29398 0.26491 0.36098 0.4434 0.34706 0.29187 0.30809 0.34908 0.3832 0.3977
2343.708 0.3891 0.35109 0.31456 0.38 0.4164 0.34759 0.31905 0.29902 0.33669 0.4572
2362.998 0.4713 0.4044 0.3825 0.34734 0.33188 0.4193 0.4612 0.42 0.3891 0.3751
2382.288 0.35952 0.3889 0.4502 0.4094 0.3682 0.4492 0.4645 0.4464 0.4218 0.3883
2401.578 0.42 0.4016 0.35962 0.3803 0.4669 0.4324 0.3407 0.3637 0.4014 0.436
2420.867 0.4846 0.5375 0.4869 0.3946 0.3757 0.4301 0.4317 0.3898 0.425 0.4619
2440.157 0.4288 0.3763 0.4492 0.5235 0.4786 0.4372 0.4234 0.3903 0.3932 0.4437
2459.447 0.5122 0.5275 0.4932 0.5005 0.5556 0.5686 0.5437 0.5731 0.5881 0.5518
2478.737 0.5582 0.5704 0.5873 0.5816 0.5624 0.658 0.6811 0.6624 0.6565 0.687
2498.026 0.7654 0.7892 0.8191 0.7559 0.6614 0.6543 0.6999 0.7318 0.7382 0.7611
2517.316 0.775 0.7623 0.7299 0.7052 0.7412 0.7373 0.6562 0.5917 0.5793 0.5908
2536.606 0.6082 0.6373 0.6538 0.6446 0.5943 0.4884 0.4366 0.4676 0.4674 0.4966
2555.896 0.4933 0.4351 0.5058 0.5293 0.4163 0.3877 0.4127 0.4421 0.4867 0.5336
2575.186 0.5836 0.4799 0.4395 0.5173 0.5729 0.5725 0.4701 0.4519 0.4767 0.5488
2594.475 0.5961 0.5385 0.4475 0.3856 0.34716 0.384 0.4967 0.4272 0.3652 0.4107
2613.765 0.3799 0.3756 0.3809 0.32015 0.30188 0.32701 0.3776 0.35902 0.33528 0.3815
2633.055 0.3745 0.30581 0.260685 0.32995 0.32424 0.33497 0.4294 0.4159 0.3934 0.4821
2652.345 0.5246 0.4923 0.425 0.408 0.4733 0.4962 0.4597 0.4734 0.4967 0.4941
2671.634 0.5092 0.4202 0.4442 0.5006 0.4481 0.3949 0.34831 0.32956 0.3656 0.3778
2690.924 0.28777 0.25234 0.2174 0.204 0.27261 0.32291 0.32844 0.3629 0.3842 0.3865
2710.214 0.35377 0.261719 0.2302 0.2437 0.34889 0.4404 0.4207 0.35525 0.30409 0.33142
2729.504 0.32047 0.3473 0.4539 0.4244 0.4029 0.4192 0.3801 0.34746 0.3866 0.4538
2748.794 0.4637 0.5027 0.4662 0.35406 0.3729 0.4532 0.4071 0.3978 0.4816 0.4533
2768.083 0.4604 0.5169 0.5103 0.4887 0.4496 0.5398 0.5779 0.5529 0.4672 0.34526
2787.373 0.4019 0.442 0.4542 0.4013 0.3916 0.4413 0.414 0.4869 0.6121 0.6066
2806.663 0.5311 0.4295 0.4093 0.495 0.5271 0.5345 0.5501 0.5092 0.5731 0.6435
2825.953 0.6768 0.7423 0.6782 0.7216 0.8035 0.7069 0.6738 0.7694 0.9053 0.9617
2845.242 0.8873 0.8877 0.885 0.769 0.6634 0.7255 0.8342 0.8077 0.8218 0.9082
2864.532 0.9307 0.9003 0.9479 0.9147 0.8491 0.9522 1.0116 0.9495 0.9099 0.9531
2883.822 0.987 0.9846 0.9184 0.886 0.8783 0.8308 0.8658 0.8923 1.0014 1.0149
2903.112 0.9593 1.0302 0.9847 0.9695 0.9855 1.0502 1.2156 1.291 1.271 1.311
2922.401 1.521 1.761 2.051 2.431 2.851 3.481 4.471 5.501 6.301 6.751
2941.691 6.711 6.531 6.421 6.211 5.531 4.541 3.461 2.591 2.091 1.711
2960.981 1.551 1.501 1.341 1.271 1.2552 1.281 1.311 1.2608 1.2596 1.1685
2980.271 1.086 1.0848 1.0533 0.9909 0.9796 0.9682 0.9542 0.9729 0.9586 1.0455
2999.561 1.0873 1.1038 1.1306 1.1047 1.1434 1.1855 1.301 1.271 1.2033 1.321
3018.850 1.411 1.561 1.711 1.761 1.801 1.921 2.101 2.221 2.361 2.631
3038.140 2.841 2.971 3.201 3.511 3.651 3.761 4.011 4.351 4.721 5.111
3057.430 5.471 5.841 6.341 6.941 7.611 8.241 8.691 8.751 8.621 8.361
3076.720 8.001 7.531 6.711 5.771 4.871 4.141 3.611 3.231 3.001 2.951
3096.009 2.861 2.631 2.451 2.181 1.841 1.701 1.721 1.501 1.2286 1.0983
3115.299 0.9981 0.9671 0.8643 0.6285 0.4614 0.4235 0.4261 0.4037 0.36089 0.4089
3134.589 0.4335 0.3936 0.4352 0.5322 0.4864 0.4362 0.3877 0.4012 0.4301 0.4355
3153.879 0.5552 0.5106 0.3935 0.4394 0.3672 0.34984 0.3632 0.3697 0.4937 0.4382
3173.169 0.3904 0.4639 0.4082 0.368 0.4161 0.4179 0.4057 0.33434 0.3858 0.4717
3192.458 0.4084 0.31333 0.4254 0.5045 0.3653 0.4184 0.5555 0.35317 0.1822 0.32621
3211.748 0.33521 0.31179 0.4032 0.32774 0.25189 0.25379 0.29755 0.3944 0.4231 0.4647
3231.038 0.32947 0.3074 0.3812 0.33842 0.25543 0.30706 0.3817 0.265505 0.3823 0.4613
3250.328 0.4371 0.4615 0.3823 0.34476 0.4088 0.4224 0.33691 0.4169 0.3644 0.264746
3269.617 0.375 0.3733 0.31694 0.181 0.144 0.187 0.2424 0.30692 0.25432 0.3692
3288.907 0.35929 0.26474 0.4063 0.5471 0.3612 0.245 0.3974 0.31152 0.1832 0.2136
3308.197 0.31681 0.32348 0.33248 0.363 0.34381 0.31332 0.30288 0.2153 0.149 0.131
3327.487 0.106 0.099 0.1975 0.25541 0.2292 0.2254 0.32842 0.3988 0.1682 0.144
3346.777 0.152 0.126 0.28854 0.33601 0.262429 0.3691 0.35308 0.29052 0.36086 0.29039
3366.066 0.31797 0.30339 0.148 0.095 0.2428 0.32744 0.263762 0.32402 0.42 0.3854
3385.356 0.1994 0.1733 0.3236 0.3803 0.3838 0.35685 0.4291 0.3779 0.447 0.51
3404.646 0.3711 0.3848 0.4363 0.4844 0.4521 0.4031 0.4008 0.4924 0.5351 0.4313
3423.936 0.30685 0.3586 0.5148 0.7179 0.7029 0.6254 0.7801 0.8311 0.8393 0.8601
3443.225 0.8453 0.8922 0.9792 1.0883 1.2526 1.261 1.431 1.761 1.811 1.921
3462.515 2.161 2.381 2.541 2.741 3.001 3.321 3.871 4.341 4.591 5.071
3481.805 5.781 6.491 7.231 8.031 9.071 10.051 10.871 11.811 12.321 12.161
3501.095 11.451 10.901 10.891 10.631 9.601 8.091 6.651 5.371 4.221 3.211
3520.385 2.501 2.101 1.701 1.401 1.0538 0.7857 0.7004 0.5615 0.5677 0.5571
3539.674 0.6327 0.6415 0.5135 0.4535 0.4413 0.3667 0.31293 0.33831 0.3741 0.32859
3558.964 0.095 0.058 0.097 0.152 0.1949 0.123 0.176 0.30405 0.3761 0.3769
3578.254 0.36009 0.35424 0.35668 0.34129 0.2344 0.2178 0.3316 0.28592 0.2261 0.30838
3597.544 0.30765 0.28681 0.34279 0.412 0.3875 0.3883 0.4067 0.1739 0.132 0.154
3616.833 0.136 0.2271 0.176 0.2313 0.3335 0.29667 0.2166 0.32896 0.3814 0.266009
3636.123 0.28176 0.2025 0.13 0.34122 0.3799 0.27145 0.2002 0.124 0.158 0.28439
3655.413 0.266505 0.2407 0.34435 0.31857 0.3777 0.4928 0.4678 0.32179 0.28223 0.4677
3674.703 0.4378 0.25352 0.25934 0.1738 0.2169 0.2021 0.118 0.2009 0.32252 0.3945
3693.993 0.2371 0.2391 0.31513 0.30607 0.407 0.27901 0.2003 0.2242 0.1869 0.28959
3713.282 0.07 0 0.2019 0.2245 0.133 0.042 0.058 0.1784 0.2031 0.038
3732.572 0.033 0.1691 0.267415 0.1632 0.268902 0.3726 0.2382 0.3739 0.34857 0.2409
3751.862 0.30356 0.3702 0.34739 0.29915 0.268629 0.2296 0.25446 0.27364 0.28803 0.31704
3771.152 0.3104 0.242 0.122 0.157 0.34865 0.4103 0.4795 0.5038 0.3914 0.27496
3790.441 0.25706 0.29444 0.28073 0.35378 0.4023 0.34435 0.2475 0.1992 0.125 0.143
3809.731 0.2089 0.28417 0.30042 0.27066 0.3661 0.1868 0.02 0.218 0.3916 0.3939
3829.021 0.2164 0.13 0.1902 0.148 0.159 0.236 0.34637 0.4267 0.4692 0.5272
3848.311 0.5397 0.3957 0.078 0.029 0.33658 0.4048 0.30722 0.2344 0.29154 0.31017
3867.601 0.138 0.033 0.2278 0.29963 0.237 0.3753 0.4531 0.4951 0.3875 0.35199
3886.890 0.260435 0.1908 0.34102 0.5771 0.5207 0.30633 0.3993 0.5097 0.4431 0.29413
3906.180 0.3646 0.4423 0.4215 0.4984 0.5313 0.31214 0.1938 0.3849 0.3948 0.395
3925.470 0.3725 0.31656 0.4134 0.3766 0.3976 0.545 0.623 0.5028 0.30712 0.28615
3944.760 0.3805 0.6279 0.7001 0.6118 0.5439 0.30388 0.28923 0.4012 0.3835 0.4255
3964.049 0.35135 0.4673 0.6662 0.4092 0.34959 0.4658 0.4212 0.416 0.5168 0.4675
3983.339 0.3409 0.469 0.5071 0.4623 0.4202 0.384 0.25126 0.28063 0.4744 0.41
##END=
