##TITLE=3,3,5-Trimethylheptane
##JCAMP-DX=4.24
##DATA TYPE=INFRARED SPECTRUM
##ORIGIN=NIST Mass Spectrometry Data Center
##OWNER=NIST Standard Reference Data Program
Collection (C) 2018 copyright by the U.S. Secretary of Commerce
on behalf of the United States of America. All rights reserved.
##CAS REGISTRY NO=7154-80-5
##MOLFORM=C 10 H 22
##$NIST SOURCE=MSDC-IR
##SPECTROMETER/DATA SYSTEM=HP-GC/MS/IRD
##STATE=gas
##XUNITS=1/CM
##YUNITS=ABSORBANCE
##XFACTOR=1.0
##YFACTOR=0.000000900
##DELTAX=4.0
##FIRSTX=550.0
##LASTX=3846.0
##FIRSTY=0.000066
##MAXX=3846
##MINX=550
##MAXY=0.009
##MINY=0
##NPOINTS=825
##XYDATA=(X++(Y..Y))
550.0 73 130 129 123 156 146 148 184 246 226
590.0 121 88 111 168 175 191 178 82 60 141
630.0 129 119 169 137 111 160 139 66 54 119
670.0 130 87 83 99 122 164 156 83 72 103
710.0 161 149 103 114 122 90 42 44 77 108
750.0 108 93 111 139 168 212 225 259 325 296
790.0 186 136 159 172 204 214 163 107 119 177
830.0 132 89 117 96 87 100 121 166 197 177
870.0 150 136 122 111 123 146 119 73 114 171
910.0 150 140 137 116 117 146 135 140 147 149
950.0 181 203 205 211 244 251 252 273 270 260
990.0 264 288 313 348 353 328 347 309 264 249
1030.0 240 231 196 182 170 158 155 169 155 121
1070.0 92 98 148 163 178 178 160 144 130 151
1110.0 171 132 86 93 152 170 142 136 137 150
1150.0 159 195 201 198 208 227 274 313 300 290
1190.0 296 292 261 226 216 191 203 202 138 100
1230.0 112 133 103 107 132 131 128 153 170 142
1270.0 160 202 197 194 192 181 179 168 173 176
1310.0 162 157 156 163 183 196 230 240 278 336
1350.0 412 506 576 672 812 947 1035 1107 1159 1154
1390.0 1036 851 670 490 366 305 267 228 241 283
1430.0 314 350 428 556 690 825 974 1165 1345 1437
1470.0 1425 1318 1141 919 709 526 398 311 256 186
1510.0 126 125 97 83 103 106 114 84 44 52
1550.0 65 57 40 76 111 96 93 92 101 115
1590.0 116 100 92 85 103 104 74 57 59 60
1630.0 56 53 69 68 46 17 10 49 59 47
1670.0 18 22 49 32 21 36 19 0 10 39
1710.0 52 37 14 37 42 9 0 28 44 35
1750.0 26 38 44 40 44 42 41 65 69 43
1790.0 29 18 26 33 45 57 42 19 30 56
1830.0 42 32 47 40 20 36 54 55 47 46
1870.0 47 54 60 55 55 51 58 68 49 40
1910.0 58 61 52 55 47 33 43 50 41 53
1950.0 64 57 65 75 59 65 75 68 45 41
1990.0 48 58 60 44 55 58 54 59 72 66
2030.0 41 41 55 61 69 54 43 59 63 55
2070.0 56 55 46 57 79 72 50 52 53 63
2110.0 74 75 70 63 48 51 68 80 74 68
2150.0 70 64 83 79 68 84 72 61 63 71
2190.0 72 73 94 94 85 76 76 81 74 71
2230.0 73 67 71 81 69 68 84 75 54 52
2270.0 68 85 94 79 73 73 65 72 77 84
2310.0 88 89 95 92 91 101 112 106 100 91
2350.0 97 94 98 111 108 108 113 117 116 121
2390.0 128 119 121 125 123 120 121 130 119 122
2430.0 135 141 134 113 117 139 128 122 142 140
2470.0 141 142 143 138 133 129 133 144 133 127
2510.0 148 162 153 153 165 157 156 172 162 148
2550.0 144 152 185 198 193 215 228 198 182 204
2590.0 192 176 206 225 222 210 193 213 224 217
2630.0 234 245 223 213 241 278 274 264 268 254
2670.0 244 252 252 260 266 252 258 259 243 259
2710.0 284 292 301 304 305 317 323 334 351 379
2750.0 375 343 356 369 364 351 363 380 394 417
2790.0 415 419 452 495 532 551 577 609 653 695
2830.0 752 857 978 1123 1305 1554 1866 2161 2413 2662
2870.0 2929 3234 3507 3735 3902 4016 4153 4321 4608 4992
2910.0 5385 5719 5936 6063 6095 6098 6133 6154 6176 6321
2950.0 6696 7362 8323 9359 10000 9907 8971 7412 5659 4104
2990.0 2979 2207 1676 1333 1128 967 832 739 673 643
3030.0 605 558 529 501 489 477 468 456 445 448
3070.0 425 397 387 404 426 417 410 382 347 319
3110.0 299 299 305 325 331 321 321 331 318 309
3150.0 316 313 308 309 323 299 290 335 287 254
3190.0 262 238 244 264 262 210 217 265 272 251
3230.0 234 236 218 195 193 201 185 191 206 192
3270.0 189 174 165 176 169 156 152 167 187 207
3310.0 180 141 147 150 174 181 173 171 154 159
3350.0 162 185 203 202 179 152 167 202 202 168
3390.0 150 149 167 182 172 167 173 142 133 142
3430.0 148 132 112 124 134 134 123 108 100 106
3470.0 105 116 129 128 119 125 136 128 108 91
3510.0 135 149 108 107 105 112 133 116 122 126
3550.0 118 122 109 110 66 55 95 128 119 68
3590.0 75 114 113 105 137 140 130 107 96 86
3630.0 64 113 118 88 92 119 143 146 139 140
3670.0 108 82 122 168 157 118 124 138 131 135
3710.0 132 115 129 150 145 145 117 52 43 88
3750.0 101 115 149 143 158 174 167 180 173 179
3790.0 183 125 105 122 138 157 152 155 158 157
3830.0 156 149 108 113 155
##END=
