##TITLE=2,2,3,3-Tetramethylpentane
##JCAMP-DX=4.24
##DATA TYPE=INFRARED SPECTRUM
##ORIGIN=NIST Mass Spectrometry Data Center
##OWNER=NIST Standard Reference Data Program
Collection (C) 2018 copyright by the U.S. Secretary of Commerce
on behalf of the United States of America. All rights reserved.
##CAS REGISTRY NO=7154-79-2
##MOLFORM=C 9 H 20
##$NIST SOURCE=MSDC-IR
##SPECTROMETER/DATA SYSTEM=HP-GC/MS/IRD
##STATE=gas
##XUNITS=1/CM
##YUNITS=ABSORBANCE
##XFACTOR=1.0
##YFACTOR=0.000002900
##DELTAX=4.0
##FIRSTX=550.0
##LASTX=3846.0
##FIRSTY=0.000000
##MAXX=3846
##MINX=550
##MAXY=0.029
##MINY=0
##NPOINTS=825
##XYDATA=(X++(Y..Y))
550.0 0 35 73 92 62 58 46 12 40 52
590.0 62 82 89 63 77 89 94 104 102 106
630.0 104 109 104 87 98 127 134 130 121 130
670.0 119 93 103 116 101 95 109 93 83 84
710.0 71 75 92 97 87 95 121 127 100 91
750.0 98 121 162 178 186 178 172 177 148 133
790.0 155 146 136 141 120 114 116 110 68 81
830.0 108 98 102 101 109 116 112 112 115 112
870.0 119 123 110 101 102 108 107 107 108 122
910.0 141 139 137 138 134 124 115 108 110 112
950.0 103 105 109 109 111 105 105 116 117 137
990.0 163 177 199 235 262 274 276 261 229 196
1030.0 190 163 151 156 160 168 175 164 144 127
1070.0 127 125 101 92 94 97 109 121 119 114
1110.0 112 123 144 158 172 206 270 350 450 574
1150.0 696 808 906 956 929 826 682 538 409 308
1190.0 253 219 186 162 157 154 166 175 190 200
1230.0 196 190 155 130 125 116 105 101 97 100
1270.0 97 101 106 102 108 115 118 124 129 127
1310.0 132 142 142 139 141 147 155 173 191 233
1350.0 302 424 612 838 1091 1378 1613 1689 1677 1580
1390.0 1377 1156 947 739 576 468 401 333 277 260
1430.0 271 299 343 402 473 561 675 798 924 1041
1470.0 1113 1136 1094 989 843 682 535 402 300 228
1510.0 185 162 148 142 139 130 112 111 117 105
1550.0 96 94 91 83 76 83 85 76 67 68
1590.0 80 78 69 68 76 77 70 72 76 77
1630.0 72 63 60 58 60 66 66 58 50 50
1670.0 56 56 54 65 69 64 59 57 65 59
1710.0 47 46 46 51 53 52 50 49 50 52
1750.0 49 45 46 50 44 39 45 51 55 47
1790.0 42 40 38 41 45 48 42 41 42 42
1830.0 44 44 45 41 38 36 36 40 42 40
1870.0 38 38 40 41 42 35 32 31 29 28
1910.0 25 26 33 32 31 26 28 33 29 26
1950.0 27 27 26 28 31 34 32 32 29 27
1990.0 29 33 40 34 26 35 33 28 29 24
2030.0 20 21 21 25 26 25 26 25 22 17
2070.0 19 26 28 25 21 22 27 28 34 35
2110.0 30 24 24 28 28 29 27 23 23 24
2150.0 22 22 27 27 19 18 26 24 19 19
2190.0 17 15 11 17 21 22 25 26 26 28
2230.0 27 23 17 13 22 33 31 20 16 23
2270.0 29 22 21 29 28 27 25 25 28 28
2310.0 25 23 25 29 29 25 27 23 25 30
2350.0 29 37 37 34 35 37 38 38 42 43
2390.0 44 49 48 42 38 33 32 36 34 31
2430.0 34 37 36 41 41 34 26 27 30 27
2470.0 31 32 30 30 29 30 39 45 42 35
2510.0 37 42 43 39 37 43 46 46 51 54
2550.0 52 53 49 47 43 41 43 49 65 67
2590.0 60 66 71 73 72 71 72 72 71 75
2630.0 79 74 71 75 83 83 79 82 87 81
2670.0 77 79 84 91 88 84 85 91 99 103
2710.0 110 121 122 134 149 150 144 144 147 151
2750.0 144 141 144 148 158 160 161 169 177 182
2790.0 186 191 194 200 217 234 245 259 284 303
2830.0 321 347 377 426 473 527 622 735 882 1089
2870.0 1365 1690 2046 2395 2670 2834 2908 2908 2881 2861
2910.0 2867 2932 3055 3220 3407 3630 3889 4196 4547 4928
2950.0 5395 5996 6751 7686 8740 9609 10000 9860 8929 7321
2990.0 5607 4075 2846 1986 1432 1094 877 735 639 563
3030.0 501 453 416 389 366 342 317 298 276 247
3070.0 224 222 220 212 202 203 204 188 179 175
3110.0 174 168 158 156 161 160 164 154 144 156
3150.0 160 159 164 161 159 143 129 146 155 153
3190.0 161 163 145 140 142 132 127 126 120 116
3230.0 115 108 100 92 100 95 79 81 87 88
3270.0 78 67 67 65 64 65 75 79 84 80
3310.0 71 72 63 67 74 75 71 59 52 50
3350.0 65 72 63 48 37 43 46 44 41 42
3390.0 46 49 51 52 64 63 48 45 50 56
3430.0 47 38 37 51 65 58 47 42 37 26
3470.0 31 42 48 43 31 37 40 45 48 43
3510.0 40 33 28 16 21 31 26 22 29 23
3550.0 11 22 35 30 20 25 36 31 23 25
3590.0 26 16 17 19 16 14 13 18 20 20
3630.0 25 18 15 14 13 17 8 12 26 24
3670.0 30 32 14 8 25 26 16 19 14 21
3710.0 28 21 27 19 7 9 15 24 27 29
3750.0 34 29 24 27 41 35 22 17 15 22
3790.0 18 14 31 39 35 35 47 51 46 34
3830.0 22 29 28 35 38
##END=
