##TITLE=7-Methyl-1-nonyne
##JCAMP-DX=4.24
##DATA TYPE=INFRARED SPECTRUM
##ORIGIN=NIST Mass Spectrometry Data Center
##OWNER=NIST Standard Reference Data Program
Collection (C) 2018 copyright by the U.S. Secretary of Commerce
on behalf of the United States of America. All rights reserved.
##CAS REGISTRY NO=71566-65-9
##MOLFORM=C 10 H 18
##$NIST SOURCE=MSDC-IR
##SPECTROMETER/DATA SYSTEM=HP-GC/MS/IRD
##STATE=gas
##XUNITS=1/CM
##YUNITS=ABSORBANCE
##XFACTOR=1.0
##YFACTOR=0.000002800
##DELTAX=4.0
##FIRSTX=550.0
##LASTX=3846.0
##FIRSTY=0.000644
##MAXX=3846
##MINX=550
##MAXY=0.028
##MINY=0
##NPOINTS=825
##XYDATA=(X++(Y..Y))
550.0 230 202 157 126 139 138 109 117 150 175
590.0 170 212 317 420 632 960 1464 2117 2977 4411
630.0 6454 7181 5843 4165 2821 1776 1097 697 457 341
670.0 276 208 138 103 86 88 71 40 26 31
710.0 47 61 93 98 96 89 85 101 107 75
750.0 61 77 88 94 98 98 102 115 101 76
790.0 86 74 42 43 51 28 25 14 8 19
830.0 4 2 6 16 26 18 13 6 6 11
870.0 9 13 23 23 16 13 9 16 22 19
910.0 24 26 18 22 24 12 16 25 24 24
950.0 51 72 87 114 118 121 135 135 134 131
990.0 119 117 129 135 124 120 119 113 116 104
1030.0 88 81 84 69 51 50 28 28 41 47
1070.0 47 33 18 31 38 43 58 68 90 98
1110.0 96 90 88 97 91 86 101 96 92 122
1150.0 139 135 129 125 117 108 106 97 92 104
1190.0 116 116 120 131 159 183 193 225 274 371
1230.0 528 760 1103 1516 1773 1764 1535 1138 784 573
1270.0 455 385 354 336 307 286 280 282 292 306
1310.0 325 350 374 394 407 416 432 434 443 463
1350.0 490 501 504 519 546 614 711 807 854 824
1390.0 711 549 404 310 258 245 253 272 321 414
1430.0 538 676 815 934 1031 1144 1280 1402 1463 1410
1470.0 1248 1021 798 600 442 331 253 205 174 144
1510.0 121 104 90 80 72 66 62 58 55 57
1550.0 58 49 37 33 39 47 45 44 47 48
1590.0 45 43 42 36 32 28 27 30 33 33
1630.0 29 29 35 30 25 23 31 34 22 21
1670.0 20 14 14 15 18 14 11 12 6 7
1710.0 12 8 8 13 15 14 8 8 7 5
1750.0 6 11 17 17 15 16 24 18 12 17
1790.0 17 16 21 16 13 19 18 17 14 7
1830.0 7 11 17 16 10 6 10 13 9 0
1870.0 3 5 6 12 9 17 15 6 4 7
1910.0 18 24 18 18 17 15 17 17 16 18
1950.0 17 7 1 5 12 11 12 16 14 10
1990.0 11 13 12 11 6 16 24 15 16 25
2030.0 23 16 20 23 21 22 23 26 35 39
2070.0 38 40 47 61 74 89 113 146 191 244
2110.0 291 333 350 334 283 208 136 90 64 47
2150.0 39 31 25 27 25 21 16 9 10 10
2190.0 6 9 18 7 4 13 16 13 12 13
2230.0 6 4 9 13 14 7 8 9 0 7
2270.0 15 12 8 14 14 15 18 10 7 9
2310.0 4 7 13 16 14 12 15 12 15 17
2350.0 20 24 24 16 12 13 16 16 20 25
2390.0 20 15 20 28 25 17 18 21 20 18
2430.0 12 14 24 14 7 20 28 23 18 16
2470.0 18 18 11 7 13 21 19 14 15 17
2510.0 18 19 19 16 15 22 28 31 33 34
2550.0 34 34 40 43 49 55 58 57 59 67
2590.0 69 66 67 76 81 78 81 93 96 97
2630.0 99 103 103 104 112 121 125 120 121 123
2670.0 126 139 138 136 143 147 160 168 159 143
2710.0 140 151 163 166 163 173 182 193 196 200
2750.0 200 194 196 198 193 193 206 215 223 239
2790.0 266 293 316 339 371 421 468 505 552 624
2830.0 719 847 1023 1269 1588 1991 2467 2980 3477 3905
2870.0 4249 4479 4619 4633 4494 4311 4179 4214 4510 5031
2910.0 5723 6461 7148 7791 8417 9004 9532 9922 10000 9686
2950.0 9123 8594 8359 8437 8526 8133 7101 5612 4048 2800
2990.0 1979 1461 1139 921 769 671 587 523 473 433
3030.0 404 377 353 342 338 324 305 289 282 272
3070.0 256 250 247 235 219 202 202 192 178 179
3110.0 170 166 156 150 156 148 131 129 129 117
3150.0 122 132 131 133 123 104 109 119 110 95
3190.0 78 78 80 64 57 68 70 56 52 53
3230.0 57 62 72 76 85 103 114 124 143 168
3270.0 197 242 294 365 444 515 590 750 985 1173
3310.0 1336 1455 1671 2209 2546 2562 2253 1473 889 642
3350.0 506 411 334 277 215 158 114 86 71 56
3390.0 48 55 51 46 38 24 27 32 20 22
3430.0 32 36 42 46 49 47 31 13 9 23
3470.0 28 17 18 16 17 18 17 26 28 23
3510.0 16 12 14 20 22 19 18 18 15 12
3550.0 8 7 1 7 15 12 16 21 24 23
3590.0 19 24 27 25 24 31 34 32 35 20
3630.0 15 23 20 14 16 38 50 38 26 39
3670.0 42 32 37 38 27 29 28 29 29 30
3710.0 31 27 30 21 15 24 24 21 27 21
3750.0 17 19 33 42 37 31 38 35 19 15
3790.0 26 36 24 31 34 29 29 27 39 47
3830.0 46 55 51 31 27
##END=
