##TITLE=9-Chloroanthracene
##JCAMP-DX=4.24
##DATA TYPE=INFRARED SPECTRUM
##ORIGIN=NIST Mass Spectrometry Data Center
##OWNER=NIST Standard Reference Data Program
Collection (C) 2018 copyright by the U.S. Secretary of Commerce
on behalf of the United States of America. All rights reserved.
##CAS REGISTRY NO=716-53-0
##MOLFORM=C 14 H 9 Cl
##$NIST SOURCE=MSDC-IR
##SPECTROMETER/DATA SYSTEM=HP-GC/MS/IRD
##STATE=gas
##XUNITS=1/CM
##YUNITS=ABSORBANCE
##XFACTOR=1.0
##YFACTOR=0.000002100
##DELTAX=4.0
##FIRSTX=550.0
##LASTX=3846.0
##FIRSTY=0.001033
##MAXX=3846
##MINX=550
##MAXY=0.021
##MINY=0
##NPOINTS=825
##XYDATA=(X++(Y..Y))
550.0 492 496 134 122 91 125 220 425 712 653
590.0 508 623 914 1125 1089 746 347 211 169 163
630.0 227 359 448 445 351 204 160 197 247 309
670.0 321 300 264 180 120 99 94 142 234 382
710.0 702 1383 2758 4757 7406 10000 8477 5240 3138 1429
750.0 755 590 651 965 1379 1818 1939 1475 963 554
790.0 292 181 143 152 193 254 364 589 1037 1602
830.0 2278 2760 2196 1401 885 497 432 502 647 1028
870.0 1591 2357 3135 2819 1872 1133 578 312 217 181
910.0 172 208 253 388 755 1568 3066 4790 5648 5522
950.0 4207 2304 1106 594 372 250 202 174 137 144
990.0 188 282 484 799 1062 1116 938 626 376 206
1030.0 84 33 21 21 16 29 34 12 30 45
1070.0 29 26 33 24 10 6 27 43 45 33
1110.0 11 16 23 21 27 40 51 63 57 39
1150.0 22 36 75 102 148 205 204 157 111 84
1190.0 94 120 130 116 101 85 97 113 119 130
1230.0 138 174 243 338 503 772 1199 1836 2453 2855
1270.0 2777 2193 1453 802 487 501 810 1416 2094 2642
1310.0 3104 3263 2996 2502 1769 996 504 271 197 179
1350.0 187 215 219 201 194 196 244 376 575 762
1390.0 885 898 806 638 429 273 196 159 149 164
1430.0 247 458 697 782 678 465 297 238 212 217
1470.0 267 333 377 352 267 173 135 137 169 207
1510.0 257 349 460 555 578 517 430 402 484 598
1550.0 650 615 501 397 338 295 256 220 212 216
1590.0 213 201 190 172 183 249 323 397 465 478
1630.0 421 311 196 114 74 59 57 67 91 140
1670.0 224 350 462 474 427 380 391 491 562 539
1710.0 444 328 270 237 202 168 156 172 190 211
1750.0 219 217 206 175 141 125 163 235 305 366
1790.0 410 455 512 550 559 520 439 334 242 186
1830.0 163 151 139 119 109 114 111 91 69 49
1870.0 38 39 38 45 68 115 191 284 343 346
1910.0 336 336 342 349 355 386 483 559 517 374
1950.0 201 89 53 36 32 31 23 22 20 13
1990.0 13 13 15 21 25 22 21 23 29 34
2030.0 34 42 41 32 35 37 33 35 34 22
2070.0 22 27 19 12 10 6 8 12 9 8
2110.0 16 20 16 14 11 20 22 13 17 13
2150.0 7 10 11 11 17 16 18 23 22 21
2190.0 19 21 28 29 27 24 26 22 19 29
2230.0 33 39 49 44 27 32 40 39 44 43
2270.0 45 46 45 49 48 59 69 66 67 77
2310.0 82 78 68 60 55 52 50 36 41 62
2350.0 72 78 74 63 46 40 37 35 35 33
2390.0 27 28 41 41 22 22 36 37 30 24
2430.0 30 29 20 19 36 40 23 19 30 36
2470.0 41 54 51 41 41 31 17 14 21 20
2510.0 19 27 31 38 43 26 27 41 37 36
2550.0 41 31 22 26 19 17 19 13 18 20
2590.0 13 14 13 18 28 19 12 18 23 18
2630.0 6 16 20 15 20 25 24 20 17 14
2670.0 13 18 21 29 32 43 52 50 56 40
2710.0 23 20 18 20 14 6 8 15 8 7
2750.0 16 18 15 15 21 25 24 25 21 20
2790.0 23 21 37 45 32 31 49 57 53 60
2830.0 66 70 64 49 48 49 42 37 43 53
2870.0 61 51 54 67 67 70 63 62 78 81
2910.0 90 115 118 115 115 107 103 98 104 108
2950.0 96 103 119 128 144 165 186 214 273 345
2990.0 426 503 541 554 542 530 545 594 718 927
3030.0 1237 1626 2078 2594 3228 3988 4620 4846 4582 3916
3070.0 3239 2896 2977 3343 3578 3315 2576 1689 1017 673
3110.0 499 374 268 193 157 139 137 133 120 126
3150.0 139 130 116 111 96 85 87 90 100 90
3190.0 75 77 78 71 56 44 41 56 65 59
3230.0 52 53 64 77 79 67 56 48 47 45
3270.0 50 57 62 48 48 62 60 58 41 33
3310.0 38 34 49 61 51 36 11 15 25 26
3350.0 32 25 25 28 12 0 7 25 41 32
3390.0 25 31 19 26 28 19 40 26 10 6
3430.0 16 39 31 26 50 49 40 28 27 39
3470.0 37 43 48 43 35 24 19 32 55 61
3510.0 39 21 32 35 30 35 39 39 36 27
3550.0 44 46 53 52 33 48 56 50 62 67
3590.0 63 62 41 36 40 41 50 59 78 75
3630.0 62 65 48 60 62 49 69 83 90 84
3670.0 91 103 98 92 78 97 120 90 74 84
3710.0 80 77 72 72 85 67 50 70 73 50
3750.0 49 73 87 88 88 73 69 73 70 72
3790.0 83 89 70 41 43 61 45 31 57 80
3830.0 81 61 74 100 101
##END=
