##TITLE=3',4'-Dichloropivalanilide
##JCAMP-DX=4.24
##DATA TYPE=INFRARED SPECTRUM
##ORIGIN=EPA-IR VAPOR PHASE LIBRARY
##OWNER=SRD/NIST
Collection (C) 2018 copyright by the U.S. Secretary of Commerce
on behalf of the United States of America. All rights reserved.
##CAS REGISTRY NO=7160-22-7
##MOLFORM=C 11 H 13 Cl 2 N O
##$NIST SOURCE=MSDC-IR
##STATE=gas
##XUNITS=1/CM
##YUNITS=ABSORBANCE
##XFACTOR=1.
##YFACTOR=0.001
##DELTAX=1.92898
##FIRSTX=549.8
##LASTX=4000.7
##FIRSTY=5.088
##MAXX=4000.7
##MINX=549.759
##MAXY=0.158858
##MINY=0
##NPOINTS=1790
##XYDATA=(X++(Y..Y))
549.759 5.088 4.908 4.498 4.358 4.198 3.968 3.968 4.058 4.108 3.828
569.049 3.808 4.068 4.278 4.658 4.878 4.868 4.878 4.658 4.088 3.718
588.339 3.448 2.788 2.158 1.958 1.898 1.618 1.438 1.348 1.368 1.398
607.628 1.358 1.1808 0.984 1.1559 1.318 1.0144 0.8507 1.328 1.298 0.8718
626.918 0.7781 0.7868 0.9376 1.0322 0.9897 0.899 0.9681 0.8838 0.8042 1.0559
646.208 1.1636 1.1657 1.16 1.2505 1.378 1.538 1.988 2.508 3.218 4.548
665.498 6.518 8.758 10.458 11.238 10.928 9.588 7.328 5.298 4.348 3.678
684.787 3.308 3.418 3.728 4.078 4.278 4.518 4.898 5.318 5.538 5.398
704.077 5.228 4.778 4.258 3.748 3.168 2.878 2.678 2.458 2.308 2.248
723.367 2.148 2.068 2.038 1.838 1.778 1.588 1.488 1.438 1.348 1.448
742.657 1.358 1.338 1.308 1.368 1.428 1.418 1.598 1.738 1.848 1.778
761.947 1.728 1.808 2.008 2.228 2.258 2.328 2.428 2.768 3.158 3.448
781.236 3.658 3.858 4.348 5.128 5.828 6.408 7.438 8.658 9.728 10.588
800.526 11.238 11.848 11.878 11.688 11.428 10.998 10.698 10.358 10.068 9.578
819.816 8.928 8.338 7.548 6.608 5.568 4.758 4.368 4.078 4.208 4.488
839.106 4.878 5.338 5.808 6.658 7.378 7.818 8.088 8.318 8.308 7.838
858.395 7.518 7.278 7.108 6.998 6.948 7.308 7.478 7.458 7.698 7.968
877.685 8.248 8.188 8.148 8.168 8.168 8.288 8.368 8.558 8.558 8.718
896.975 9.128 9.498 9.718 9.898 10.208 10.368 10.368 10.388 10.408 10.408
916.265 10.648 10.868 11.148 11.388 11.268 11.048 10.698 10.058 9.418 8.688
935.555 7.598 6.698 6.018 5.288 4.798 4.578 4.178 3.728 3.398 3.168
954.844 2.998 2.718 2.448 2.368 2.258 2.258 2.188 1.928 1.878 1.898
974.134 1.898 2.018 2.078 1.938 2.028 2.148 2.058 2.018 2.128 2.228
993.424 2.488 2.908 2.958 2.878 2.998 3.438 4.048 4.498 4.738 5.488
1012.714 6.478 7.388 8.938 10.498 12.428 14.578 16.488 17.938 18.848 19.328
1032.003 18.868 17.368 15.748 14.198 12.108 10.038 8.568 7.598 6.378 5.578
1051.293 5.438 5.218 4.788 4.308 4.088 3.938 3.598 3.718 4.168 4.298
1070.583 4.248 4.188 4.298 4.288 3.988 4.148 4.978 5.428 5.718 5.578
1089.873 5.668 6.298 6.808 7.108 7.338 7.998 8.878 9.728 11.128 12.708
1109.163 13.948 16.048 19.498 23.548 28.458 34.938 43.368 53.878 65.848 78.658
1128.452 90.648 99.578 103.778 102.588 96.988 88.428 78.218 67.538 58.158 50.438
1147.742 43.218 37.238 33.288 29.838 26.228 23.318 20.888 18.778 16.948 15.528
1167.032 14.498 13.538 12.468 11.438 10.748 10.018 9.408 8.398 7.308 6.888
1186.322 6.618 6.458 6.648 6.648 6.468 6.848 7.228 7.458 7.758 7.798
1205.611 8.758 10.098 10.738 11.618 12.498 13.328 14.478 15.918 16.518 16.388
1224.901 15.838 14.958 13.808 12.608 11.738 10.488 9.388 8.778 8.338 8.448
1244.191 8.828 9.048 9.318 9.618 9.898 10.088 10.578 11.118 11.638 12.378
1263.481 13.408 15.028 16.728 18.428 20.888 23.958 27.468 31.398 35.688 40.008
1282.771 43.588 45.858 46.318 44.438 40.548 35.578 29.918 24.288 19.548 15.838
1302.060 13.128 11.228 9.828 8.878 8.178 7.558 7.108 6.738 6.408 6.218
1321.350 6.068 5.908 5.858 5.898 5.918 6.018 6.208 6.408 6.708 7.058
1340.640 7.508 8.168 9.038 10.078 11.398 13.088 15.248 17.878 20.978 24.538
1359.930 28.518 32.778 37.058 40.948 44.108 46.438 47.838 48.298 47.848 46.708
1379.219 44.998 42.908 40.498 37.858 35.288 33.118 31.418 30.308 30.008 30.128
1398.509 29.978 29.008 27.048 24.078 20.608 17.168 14.268 12.258 11.088 10.428
1417.799 10.108 10.088 10.328 10.748 11.188 11.718 12.378 13.028 13.808 14.698
1437.089 15.858 17.388 19.208 21.348 23.998 27.038 30.478 34.258 38.308 42.528
1456.378 47.158 52.228 57.428 63.318 70.628 80.278 92.698 108.008 124.848 140.548
1475.668 150.798 155.008 153.928 148.828 143.078 140.648 142.368 146.718 151.858 156.308
1494.958 158.858 158.658 154.808 147.028 135.678 121.808 106.068 91.098 78.418 67.798
1514.248 59.528 52.948 47.688 43.538 39.958 36.938 34.098 31.608 29.358 27.068
1533.538 24.858 22.678 20.668 18.608 16.898 15.588 14.648 14.038 13.678 13.658
1552.827 13.948 14.588 15.618 17.028 18.928 21.428 24.558 28.128 32.078 36.328
1572.117 40.468 44.148 47.148 49.078 49.868 49.758 49.178 48.498 47.968 47.528
1591.407 46.808 45.338 42.778 39.118 34.788 30.308 25.898 21.848 18.478 15.768
1610.697 13.668 11.888 10.438 9.288 8.468 7.888 7.248 6.758 6.418 6.038
1629.986 5.708 5.478 5.178 4.818 4.628 4.478 4.358 4.308 4.308 4.248
1649.276 4.238 4.218 4.218 4.348 4.538 4.668 4.828 5.068 5.388 5.698
1668.566 5.988 6.448 7.028 7.628 8.308 9.128 10.118 11.218 12.408 13.708
1687.856 15.068 16.448 17.968 19.568 21.408 23.668 26.518 30.488 35.288 41.368
1707.146 48.388 55.938 63.178 68.928 72.518 73.788 72.498 68.668 62.338 54.538
1726.435 46.598 39.348 33.098 28.148 24.248 21.478 19.368 17.488 15.798 14.158
1745.725 12.668 11.228 9.828 8.608 7.658 6.768 5.978 5.438 4.938 4.518
1765.015 4.228 3.968 3.728 3.498 3.238 3.048 2.878 2.698 2.598 2.478
1784.305 2.358 2.298 2.218 2.128 2.108 2.088 2.068 2.088 2.058 2.008
1803.594 2.008 1.988 1.968 1.918 1.858 1.758 1.658 1.618 1.608 1.528
1822.884 1.458 1.368 1.358 1.338 1.348 1.348 1.288 1.2776 1.298 1.328
1842.174 1.298 1.308 1.358 1.358 1.328 1.338 1.398 1.418 1.418 1.458
1861.464 1.428 1.348 1.308 1.2187 1.1861 1.1567 1.1077 1.0684 0.9826 0.9628
1880.754 1.0394 1.1027 1.0861 1.0802 1.0861 1.1524 1.2506 1.2215 1.194 1.1958
1900.043 1.207 1.1901 1.0844 1.0183 0.9755 0.9398 0.9428 0.9143 0.8814 0.8864
1919.333 0.8973 0.8382 0.8192 0.8534 0.827 0.8224 0.8234 0.8557 0.8648 0.7946
1938.623 0.8238 0.8683 0.8308 0.7877 0.8045 0.8624 0.8481 0.8262 0.8555 0.8286
1957.913 0.7881 0.7741 0.7605 0.7917 0.8009 0.7878 0.7776 0.7449 0.7191 0.7348
1977.202 0.7197 0.6989 0.7036 0.6865 0.75 0.7893 0.7729 0.7165 0.6796 0.6553
1996.492 0.6032 0.5997 0.594 0.694 0.68 0.5878 0.6089 0.5375 0.5231 0.5824
2015.782 0.603 0.6034 0.583 0.5967 0.5729 0.5541 0.6128 0.6979 0.6816 0.6248
2035.072 0.6886 0.6915 0.6179 0.5769 0.5755 0.5863 0.6048 0.6042 0.5694 0.6128
2054.362 0.6386 0.5739 0.6289 0.6509 0.6242 0.6961 0.7134 0.7459 0.7736 0.6834
2073.651 0.6476 0.6608 0.6335 0.636 0.6297 0.6552 0.6335 0.6119 0.5985 0.5612
2092.941 0.5346 0.4865 0.5011 0.5621 0.5838 0.5825 0.5382 0.5142 0.5303 0.4923
2112.231 0.4461 0.4356 0.4093 0.4093 0.4976 0.5375 0.5356 0.6063 0.6553 0.6163
2131.521 0.6096 0.5969 0.681 0.8054 0.7302 0.6777 0.7456 0.735 0.6904 0.7578
2150.810 0.8146 0.8012 0.803 0.8148 0.8864 0.9248 0.9341 0.9592 0.909 0.8881
2170.100 0.912 0.926 0.9685 0.9909 0.9428 0.9116 0.9159 0.8983 0.838 0.8661
2189.390 0.8904 0.7848 0.6869 0.6286 0.6322 0.6592 0.6619 0.6209 0.6206 0.6493
2208.680 0.5886 0.5611 0.524 0.4737 0.4248 0.3984 0.4168 0.37765 0.3849 0.4087
2227.970 0.3782 0.4138 0.4615 0.4581 0.4528 0.4168 0.36951 0.35559 0.3845 0.37132
2247.259 0.36941 0.4397 0.4804 0.4879 0.5333 0.553 0.5396 0.4977 0.5157 0.6513
2266.549 0.6656 0.6127 0.593 0.6348 0.7201 0.7111 0.6911 0.6521 0.6272 0.6353
2285.839 0.7163 0.8254 0.7911 0.7938 0.853 0.8089 0.7615 0.7296 0.7155 0.7272
2305.129 0.6332 0.5351 0.5785 0.577 0.498 0.4179 0.4162 0.4644 0.4537 0.5228
2324.418 0.5789 0.4963 0.4018 0.4233 0.4852 0.5247 0.4586 0.36527 0.36166 0.3919
2343.708 0.4076 0.4213 0.4673 0.5359 0.5475 0.5173 0.515 0.5234 0.5787 0.595
2362.998 0.6209 0.7794 0.8638 0.8244 0.8109 0.8027 0.8347 0.8439 0.8288 0.8264
2382.288 0.8312 0.8787 0.9241 0.9553 0.9309 0.9182 0.9042 0.8408 0.7487 0.7441
2401.578 0.8081 0.8608 0.8662 0.7861 0.7781 0.8056 0.7818 0.816 0.8598 0.7895
2420.867 0.6713 0.6467 0.6761 0.679 0.6752 0.6307 0.5366 0.5248 0.611 0.6067
2440.157 0.53 0.5112 0.5889 0.6241 0.5735 0.5147 0.4325 0.4653 0.5118 0.4708
2459.447 0.4768 0.4505 0.4041 0.4741 0.5849 0.6333 0.6747 0.5938 0.5229 0.5472
2478.737 0.5862 0.633 0.6614 0.6898 0.7058 0.6864 0.6225 0.6762 0.7686 0.8123
2498.026 0.7917 0.7791 0.7712 0.7134 0.6723 0.6788 0.751 0.8176 0.8517 0.768
2517.316 0.6264 0.6262 0.6245 0.6072 0.6086 0.6126 0.5937 0.5527 0.5314 0.5392
2536.606 0.5478 0.4701 0.4554 0.5045 0.4599 0.4698 0.5126 0.5039 0.5183 0.5278
2555.896 0.4992 0.4996 0.5149 0.4896 0.5201 0.5234 0.4964 0.4512 0.4817 0.4841
2575.186 0.4712 0.5234 0.5951 0.6612 0.6528 0.5869 0.6696 0.74 0.6084 0.6247
2594.475 0.6825 0.6593 0.677 0.6961 0.7204 0.7447 0.7251 0.6529 0.6212 0.665
2613.765 0.6598 0.5856 0.587 0.6345 0.6464 0.7082 0.7261 0.6504 0.6409 0.6819
2633.055 0.7452 0.7724 0.7237 0.6261 0.5887 0.5777 0.5796 0.6211 0.658 0.6525
2652.345 0.6168 0.667 0.6939 0.6712 0.6746 0.6715 0.6042 0.5991 0.6606 0.6314
2671.634 0.561 0.5841 0.5999 0.5864 0.5817 0.5682 0.5785 0.5743 0.5408 0.5916
2690.924 0.6568 0.687 0.6349 0.5863 0.665 0.7241 0.734 0.7939 0.8574 0.8797
2710.214 0.9758 0.9495 0.947 0.9901 1.003 1.0911 1.1098 1.1225 1.1194 1.1206
2729.504 1.1439 1.0695 1.0916 1.1256 1.0912 1.0459 1.0702 1.1441 1.0461 0.9962
2748.794 1.0321 1.0429 1.0737 1.0559 1.03 1.0258 0.9855 1.074 1.1287 1.0559
2768.083 0.9321 0.8769 0.9077 0.9265 0.9694 0.9165 0.829 0.836 0.8898 0.9471
2787.373 1.0149 1.0344 1.0201 1.0505 1.1231 1.1423 1.1234 1.163 1.1747 1.1613
2806.663 1.1607 1.1823 1.2729 1.338 1.368 1.458 1.568 1.608 1.598 1.598
2825.953 1.638 1.778 1.888 1.848 1.748 1.868 1.958 2.018 2.208 2.298
2845.242 2.468 2.668 2.918 3.128 3.328 3.768 4.168 4.648 5.308 5.938
2864.532 6.668 7.408 8.148 9.028 9.958 10.678 11.228 11.688 12.058 12.318
2883.822 12.258 12.128 12.048 11.958 11.728 11.458 11.368 11.478 11.618 11.628
2903.112 11.848 12.168 12.508 12.988 13.658 14.158 14.468 14.918 15.278 15.658
2922.401 16.028 16.388 16.798 17.178 17.638 18.118 18.688 19.518 20.248 20.958
2941.691 21.928 23.208 24.578 26.028 28.038 30.458 33.078 36.138 39.628 43.448
2960.981 47.538 51.118 53.688 55.248 55.228 53.318 50.008 45.738 41.038 36.448
2980.271 32.138 28.518 25.618 23.108 20.798 18.698 16.828 15.068 13.348 11.748
2999.561 10.288 8.968 7.668 6.558 5.838 5.248 4.708 4.078 3.638 3.528
3018.850 3.348 3.138 3.078 3.138 3.198 3.198 3.188 3.068 2.898 2.728
3038.140 2.478 2.418 2.408 2.298 2.238 2.288 2.288 2.268 2.138 2.168
3057.430 2.378 2.418 2.368 2.278 2.248 2.228 2.168 2.108 2.098 2.028
3076.720 2.078 2.178 2.138 2.118 2.298 2.508 2.588 2.568 2.538 2.478
3096.009 2.348 2.178 2.038 2.018 2.028 2.008 2.138 2.338 2.448 2.558
3115.299 2.678 2.968 3.168 3.138 3.078 2.958 2.698 2.368 2.138 1.928
3134.589 1.778 1.648 1.508 1.468 1.318 1.198 1.2321 1.1862 1.2277 1.2749
3153.879 1.2013 1.163 1.1932 1.1769 1.129 1.2693 1.2383 1.1595 1.2125 1.1353
3173.169 1.0315 1.022 1.129 1.298 1.2571 1.166 1.1484 1.0807 1.1982 1.2498
3192.458 1.1646 1.1091 1.1048 1.1624 1.1092 1.0773 1.1959 1.1337 1.0186 0.9637
3211.748 0.9313 0.9988 0.9848 0.9175 0.8386 0.7473 0.778 0.8109 0.7242 0.6567
3231.038 0.7613 0.8267 0.7764 0.642 0.4904 0.5444 0.5821 0.5457 0.671 0.7543
3250.328 0.5473 0.4823 0.6061 0.5996 0.6145 0.5992 0.5062 0.4142 0.34842 0.428
3269.617 0.3977 0.3858 0.5107 0.4762 0.34881 0.2613 0.30216 0.3883 0.36182 0.34716
3288.907 0.29993 0.35199 0.5091 0.4582 0.31207 0.36981 0.5346 0.651 0.604 0.5008
3308.197 0.4268 0.36855 0.3914 0.4363 0.34778 0.32388 0.34813 0.30191 0.36971 0.4241
3327.487 0.4291 0.33528 0.34355 0.33531 0.33959 0.4211 0.5694 0.6388 0.4108 0.36943
3346.777 0.4968 0.6041 0.5214 0.36007 0.32764 0.2613 0.34619 0.4994 0.5106 0.4911
3366.066 0.4936 0.5291 0.5141 0.31971 0.35627 0.4966 0.4434 0.4309 0.4499 0.5271
3385.356 0.6814 0.7643 0.7219 0.6865 0.7057 0.7652 0.8366 0.9502 0.9729 0.9993
3404.646 1.0796 1.1471 1.2271 1.2736 1.428 1.428 1.398 1.378 1.398 1.668
3423.936 1.598 1.338 1.498 1.658 1.598 1.598 1.778 1.968 2.168 2.448
3443.225 2.558 2.728 3.168 3.658 4.068 4.428 4.908 5.618 6.428 7.408
3462.515 8.648 9.938 11.278 12.538 13.658 14.478 14.618 14.208 13.258 11.838
3481.805 10.038 8.218 6.798 5.458 4.278 3.518 2.928 2.468 2.228 1.948
3501.095 1.638 1.528 1.368 1.308 1.368 1.1897 1.035 0.9984 0.8808 0.7668
3520.385 0.6783 0.6518 0.765 0.6544 0.34381 0.4009 0.5504 0.4618 0.34109 0.34981
3539.674 0.3411 0.30838 0.2098 0.156 0.29354 0.37286 0.4271 0.29157 0.2139 0.35638
3558.964 0.44 0.36724 0.32051 0.31181 0.2563 0.30306 0.29082 0.2101 0.34117 0.4115
3578.254 0.30285 0.34041 0.3794 0.28951 0.151 0.139 0.2255 0.2363 0.166 0.15
3597.544 0.135 0.199 0.2348 0.1946 0.15 0.105 0.095 0.13 0.2595 0.30193
3616.833 0.2576 0.3572 0.37786 0.287546 0.2671 0.2047 0.2613 0.2035 0.2486 0.3855
3636.123 0.4133 0.4188 0.144 0 0.128 0.071 0.119 0.2151 0.228 0.2756
3655.413 0.2205 0.2245 0.28712 0.33606 0.34003 0.30669 0.282251 0.2332 0.1898 0.27618
3674.703 0.38 0.30337 0.31965 0.3826 0.33506 0.36886 0.31016 0.205 0.29594 0.2249
3693.993 0.064 0.161 0.2399 0.31336 0.31881 0.35075 0.2477 0.101 0.173 0.2093
3713.282 0.3265 0.29871 0.142 0.2463 0.31443 0.2397 0.1853 0.1999 0.2171 0.2539
3732.572 0.2322 0.135 0.2073 0.1976 0.2017 0.29256 0.35674 0.34484 0.31565 0.1979
3751.862 0.133 0.30367 0.45 0.4005 0.385 0.31179 0.157 0.2668 0.32008 0.084
3771.152 0.069 0.33768 0.37031 0.281774 0.26934 0.1948 0.154 0.30958 0.4097 0.427
3790.441 0.4823 0.4806 0.4245 0.3928 0.4301 0.32348 0.26908 0.34818 0.29152 0.203
3809.731 0.146 0.245 0.2601 0.34102 0.382 0.145 0.178 0.3374 0.338 0.2072
3829.021 0.1939 0.35174 0.32624 0.29994 0.3385 0.2338 0.171 0.3025 0.34161 0.3837
3848.311 0.3902 0.2537 0.2536 0.2302 0.1797 0.122 0.12 0.36453 0.4299 0.4053
3867.601 0.4032 0.117 0.061 0.174 0.32231 0.4994 0.5796 0.5793 0.4689 0.32702
3886.890 0.3362 0.4846 0.37316 0.1905 0.2549 0.36828 0.4125 0.33384 0.2988 0.32143
3906.180 0.4044 0.4917 0.5882 0.5167 0.4392 0.36888 0.34841 0.4174 0.4142 0.4166
3925.470 0.35552 0.29755 0.36045 0.30134 0.26876 0.3785 0.3802 0.3964 0.4139 0.3916
3944.760 0.31322 0.2419 0.3232 0.3911 0.35948 0.36314 0.31384 0.36172 0.36513 0.4133
3964.049 0.4644 0.4678 0.4324 0.4229 0.3856 0.34272 0.4597 0.4563 0.28853 0.31955
3983.339 0.36049 0.3932 0.4334 0.404 0.4462 0.36798 0.3874 0.5019 0.4903 0.3628
##END=
