##TITLE=o-Hexyloxybenzaldehyde
##JCAMP-DX=4.24
##DATA TYPE=INFRARED SPECTRUM
##ORIGIN=EPA-IR VAPOR PHASE LIBRARY
##OWNER=SRD/NIST
Collection (C) 2018 copyright by the U.S. Secretary of Commerce
on behalf of the United States of America. All rights reserved.
##CAS REGISTRY NO=7162-59-6
##MOLFORM=C 13 H 18 O 2
##$NIST SOURCE=MSDC-IR
##STATE=gas
##XUNITS=1/CM
##YUNITS=ABSORBANCE
##XFACTOR=1.
##YFACTOR=0.001
##DELTAX=1.92898
##FIRSTX=549.8
##LASTX=4000.7
##FIRSTY=0.6446
##MAXX=4000.7
##MINX=549.759
##MAXY=0.092586
##MINY=0
##NPOINTS=1790
##XYDATA=(X++(Y..Y))
549.759 0.6446 0.4617 0.25835 0.1821 0.1168 0.088 0.24427 0.25473 0.26342 0.1633
569.049 0.27349 0.24657 0.5794 0.9499 0.8026 0.5903 0.5122 0.8187 0.9064 0.826
588.339 1.1074 1.316 1.366 1.566 1.696 1.806 1.846 1.976 2.026 1.766
607.628 1.526 1.346 1.256 1.256 1.2021 1.396 1.656 1.696 1.716 1.646
626.918 1.646 1.976 2.286 2.446 2.896 3.256 3.486 3.656 3.876 4.186
646.208 4.606 4.926 4.926 4.856 4.656 4.446 3.876 3.366 3.156 2.716
665.498 2.396 2.046 1.766 1.546 1.326 1.406 1.1367 0.8901 0.9281 0.9833
684.787 0.9078 0.904 1.0219 1.1694 1.236 1.246 1.376 1.446 1.466 1.616
704.077 1.966 2.156 2.496 3.026 3.286 3.696 4.126 4.666 5.206 5.336
723.367 5.566 5.816 5.886 6.026 6.396 6.806 7.486 8.326 9.436 11.056
742.657 12.836 14.906 17.516 20.036 22.246 24.176 25.146 24.886 23.656 21.726
761.947 19.276 16.706 14.356 12.316 10.456 8.886 7.746 6.876 6.086 5.396
781.236 4.816 4.496 4.446 4.306 4.186 4.066 3.996 4.176 4.276 4.186
800.526 4.466 4.706 4.666 4.666 4.666 5.006 5.366 5.566 6.006 6.586
819.816 7.026 7.666 8.276 8.556 8.886 9.366 9.596 9.646 9.666 9.396
839.106 8.936 8.376 7.866 7.546 7.086 6.536 6.016 5.596 5.286 5.036
858.395 4.866 4.546 4.286 4.116 3.886 3.766 3.366 3.176 3.106 2.756
877.685 2.566 2.546 2.426 2.356 2.236 2.076 2.096 1.886 1.766 1.766
896.975 1.666 1.646 1.706 1.896 1.956 1.926 1.966 2.076 2.196 2.206
916.265 2.336 2.616 2.986 3.346 3.646 3.996 4.436 4.786 5.096 5.376
935.555 5.616 5.826 5.746 5.706 5.746 5.686 5.566 5.256 4.856 4.736
954.844 4.706 4.556 4.506 4.456 4.336 4.296 4.406 4.426 4.256 4.436
974.134 4.666 4.676 4.726 4.966 5.346 5.796 6.216 6.726 7.366 8.066
993.424 8.786 9.636 10.526 11.506 12.626 13.676 14.886 15.856 16.766 17.656
1012.714 18.056 18.146 17.766 17.216 16.586 15.816 15.246 14.466 13.796 13.616
1032.003 13.676 13.996 14.596 15.416 16.116 16.156 15.896 15.576 14.616 13.256
1051.293 12.116 10.896 9.746 8.686 7.876 7.166 6.696 6.346 5.496 5.046
1070.583 4.806 4.596 4.706 4.876 4.826 4.646 4.926 5.676 6.316 6.676
1089.873 7.056 7.946 9.166 10.586 11.726 12.066 12.236 11.996 11.616 11.226
1109.163 10.096 8.906 8.326 7.896 6.956 6.306 6.096 5.826 5.476 5.186
1128.452 5.066 4.636 4.276 4.106 4.126 4.506 5.006 5.606 6.216 7.046
1147.742 8.546 10.526 12.956 15.936 18.186 19.046 18.826 17.926 16.236 13.836
1167.032 11.776 10.596 10.086 10.006 10.116 10.496 11.456 12.386 13.156 13.806
1186.322 14.306 14.626 14.566 14.266 14.176 14.356 14.446 14.756 15.636 16.756
1205.611 18.036 19.586 21.476 23.946 26.846 29.696 32.856 36.286 39.406 42.876
1224.901 46.376 49.676 52.826 55.736 58.106 60.006 61.106 61.046 59.706 57.036
1244.191 53.096 48.066 42.526 37.176 32.696 28.996 26.126 24.216 23.006 22.386
1263.481 22.646 23.626 25.046 27.056 29.686 32.616 35.456 37.996 39.836 40.676
1282.771 40.616 39.536 37.516 35.146 32.666 30.176 27.976 25.796 23.566 21.446
1302.060 19.226 17.036 14.946 13.066 11.366 9.886 8.706 7.676 6.796 6.096
1321.350 5.556 5.106 4.746 4.426 4.206 4.036 3.866 3.796 3.736 3.696
1340.640 3.726 3.736 3.786 3.906 4.016 4.136 4.346 4.586 4.886 5.256
1359.930 5.686 6.146 6.766 7.606 8.626 9.926 11.526 13.456 15.616 17.866
1379.219 20.116 22.186 23.696 24.436 24.486 23.816 22.456 20.546 18.196 15.736
1398.509 13.426 11.246 9.376 7.866 6.806 6.066 5.486 5.126 4.886 4.726
1417.799 4.696 4.796 4.956 5.206 5.546 5.896 6.456 7.176 7.996 8.896
1437.089 10.036 11.426 13.086 15.166 17.946 21.496 25.826 30.586 34.956 37.806
1456.378 38.826 38.346 36.746 34.426 32.606 32.356 33.536 35.346 37.136 38.656
1475.668 39.576 39.886 39.506 38.346 36.346 33.426 29.666 25.366 20.996 17.226
1494.958 14.246 12.056 10.526 9.316 8.366 7.606 6.806 6.006 5.396 4.806
1514.248 4.236 3.816 3.526 3.216 2.986 2.816 2.626 2.486 2.366 2.266
1533.538 2.226 2.216 2.176 2.206 2.246 2.236 2.306 2.386 2.556 2.756
1552.827 3.006 3.306 3.626 4.086 4.596 5.106 5.826 6.656 7.626 8.846
1572.117 10.206 11.766 13.626 15.616 17.666 19.806 21.976 24.346 27.006 30.106
1591.407 33.696 37.496 40.726 42.526 42.566 40.596 36.876 31.856 26.286 21.016
1610.697 16.716 13.406 10.906 9.026 7.606 6.616 5.876 5.296 4.916 4.636
1629.986 4.356 4.046 3.916 3.886 3.736 3.706 3.756 3.756 3.816 3.846
1649.276 3.816 3.896 4.116 4.306 4.436 4.646 4.886 5.206 5.576 5.886
1668.566 6.236 6.546 6.946 7.406 7.916 8.646 9.546 10.626 12.166 14.126
1687.856 16.456 19.496 23.596 28.836 35.986 45.006 55.426 67.996 79.016 87.636
1707.146 91.896 92.586 89.396 81.026 68.986 57.156 47.326 40.386 35.196 30.966
1726.435 27.206 23.676 20.006 16.376 13.006 10.246 8.226 6.696 5.526 4.626
1745.725 3.976 3.466 3.056 2.736 2.506 2.256 2.046 1.906 1.866 1.826
1765.015 1.686 1.556 1.586 1.646 1.616 1.596 1.606 1.656 1.676 1.726
1784.305 1.746 1.716 1.756 1.796 1.826 1.846 1.776 1.726 1.726 1.716
1803.594 1.696 1.666 1.636 1.606 1.596 1.566 1.506 1.466 1.416 1.316
1822.884 1.246 1.1974 1.1333 1.1342 1.1117 1.0449 0.9847 0.9266 0.8857 0.8782
1842.174 0.8759 0.8291 0.8218 0.856 0.8313 0.7737 0.7449 0.754 0.7893 0.7627
1861.464 0.7328 0.7663 0.7793 0.7527 0.7975 0.8477 0.8732 0.884 0.9304 0.9618
1880.754 0.9592 0.9839 0.9813 1.0076 1.0478 1.0703 1.0743 1.0696 1.0892 1.0624
1900.043 1.0382 1.1113 1.201 1.256 1.306 1.366 1.436 1.486 1.526 1.546
1919.333 1.496 1.446 1.416 1.406 1.366 1.296 1.276 1.266 1.326 1.386
1938.623 1.396 1.436 1.466 1.506 1.496 1.466 1.426 1.336 1.226 1.1614
1957.913 1.0839 1.0096 0.9583 0.9302 0.9236 0.9337 0.9598 0.9734 0.9226 0.8932
1977.202 0.9484 0.9706 0.9611 0.9371 0.9634 1.0037 0.993 1.0106 1.029 1.0632
1996.492 1.0595 1.0471 1.0908 1.0732 1.0438 1.0667 1.0879 1.0841 1.1271 1.1288
2015.782 1.0592 1.1388 1.226 1.1557 1.1178 1.1582 1.226 1.2099 1.1527 1.1344
2035.072 1.1205 1.1229 1.1186 1.1132 1.1041 1.0704 1.0862 1.0599 1.0146 0.9953
2054.362 0.9293 0.9254 0.9992 0.981 0.9276 0.9292 0.9351 0.9086 0.8401 0.8411
2073.651 0.8762 0.7987 0.7698 0.7942 0.7481 0.7433 0.7589 0.7032 0.6444 0.6434
2092.941 0.635 0.6334 0.6701 0.6911 0.6345 0.5737 0.5818 0.5757 0.5149 0.5046
2112.231 0.5521 0.5945 0.6181 0.566 0.4762 0.4685 0.4799 0.5135 0.5428 0.5169
2131.521 0.5 0.4874 0.4835 0.5284 0.5046 0.4216 0.4646 0.4516 0.371 0.3716
2150.810 0.3978 0.3986 0.3938 0.387 0.381 0.3437 0.3416 0.3624 0.31156 0.3401
2170.100 0.4062 0.3713 0.3498 0.3708 0.3781 0.3749 0.3594 0.3534 0.3796 0.4164
2189.390 0.4226 0.4107 0.4393 0.443 0.4411 0.4538 0.4284 0.3761 0.3582 0.3844
2208.680 0.4028 0.4262 0.4394 0.4244 0.4677 0.4776 0.4583 0.4792 0.5253 0.5455
2227.970 0.5011 0.5061 0.5047 0.4741 0.4538 0.5241 0.5527 0.519 0.5224 0.4949
2247.259 0.5173 0.5661 0.5228 0.5042 0.5652 0.6193 0.571 0.5744 0.6239 0.5766
2266.549 0.5861 0.6133 0.6017 0.5858 0.6067 0.5697 0.545 0.5803 0.5517 0.5863
2285.839 0.5954 0.6072 0.6239 0.553 0.5712 0.5829 0.5636 0.5773 0.5577 0.5141
2305.129 0.5038 0.5017 0.4987 0.5375 0.5928 0.6491 0.7066 0.6816 0.6201 0.6595
2324.418 0.681 0.6372 0.5794 0.5893 0.6526 0.6456 0.5581 0.5178 0.5566 0.5543
2343.708 0.5384 0.5548 0.552 0.5364 0.5478 0.5383 0.5544 0.58 0.5738 0.5785
2362.998 0.6142 0.6239 0.6168 0.6123 0.6436 0.7368 0.7275 0.728 0.7715 0.7571
2382.288 0.7373 0.697 0.6878 0.7322 0.7435 0.7499 0.7094 0.6802 0.73 0.6976
2401.578 0.6901 0.7549 0.7208 0.6665 0.6751 0.6214 0.6182 0.6735 0.6702 0.6422
2420.867 0.63 0.6661 0.6561 0.6623 0.6564 0.6124 0.646 0.7017 0.7878 0.7827
2440.157 0.6463 0.6829 0.8484 0.8345 0.7943 0.8536 0.773 0.7345 0.7681 0.8024
2459.447 0.8666 0.8516 0.8225 0.8342 0.8523 0.8413 0.8975 0.9173 0.8766 0.8367
2478.737 0.8539 0.8763 0.7893 0.7064 0.678 0.7127 0.7814 0.7887 0.7443 0.7024
2498.026 0.6766 0.6514 0.6745 0.6728 0.6341 0.6545 0.7029 0.7124 0.7225 0.757
2517.316 0.7914 0.8206 0.7494 0.6818 0.731 0.7614 0.7491 0.7178 0.6499 0.6471
2536.606 0.6858 0.7362 0.7091 0.7254 0.734 0.7052 0.7006 0.696 0.7752 0.854
2555.896 0.8801 0.8051 0.7883 0.7611 0.7291 0.775 0.8037 0.8806 0.8819 0.8095
2575.186 0.8671 0.9028 0.8964 0.9855 1.0003 0.8941 0.8288 0.7846 0.738 0.7644
2594.475 0.8397 0.778 0.6833 0.7378 0.7733 0.7264 0.7172 0.7959 0.808 0.804
2613.765 0.8284 0.8224 0.8274 0.8356 0.7998 0.8179 0.8824 0.8925 0.8565 0.8744
2633.055 0.9825 1.0115 1.0118 1.1002 1.1802 1.1772 1.1875 1.256 1.316 1.286
2652.345 1.236 1.306 1.356 1.396 1.476 1.486 1.496 1.616 1.686 1.696
2671.634 1.746 1.836 1.896 1.946 2.006 1.996 2.026 2.136 2.246 2.386
2690.924 2.446 2.516 2.736 2.926 3.086 3.326 3.616 3.876 4.166 4.486
2710.214 4.726 4.916 5.116 5.136 5.006 4.876 4.566 4.276 4.076 3.906
2729.504 3.726 3.586 3.636 3.806 4.056 4.366 4.736 5.156 5.616 6.026
2748.794 6.356 6.536 6.536 6.336 5.936 5.486 5.046 4.706 4.346 4.086
2768.083 3.976 3.806 3.626 3.506 3.486 3.486 3.426 3.366 3.346 3.356
2787.373 3.346 3.246 3.246 3.286 3.226 3.396 3.626 3.636 3.626 3.686
2806.663 3.876 4.186 4.436 4.696 4.926 5.096 5.386 5.666 6.016 6.386
2825.953 6.716 7.146 7.676 8.306 9.006 9.866 10.786 11.986 13.596 15.286
2845.242 17.246 19.586 22.076 24.696 27.216 29.476 31.316 32.366 32.876 32.866
2864.532 32.396 31.756 31.016 30.276 29.556 28.936 28.376 27.806 27.366 27.036
2883.822 26.546 25.826 24.946 23.996 23.126 22.386 21.826 21.646 21.806 22.136
2903.112 22.696 23.476 24.636 25.976 27.286 28.856 30.676 32.646 34.716 36.946
2922.401 39.266 41.706 44.436 47.276 49.916 52.296 54.446 56.126 57.126 57.516
2941.691 57.326 56.486 54.966 52.896 50.606 48.286 46.176 44.616 43.506 42.876
2960.981 42.676 42.816 42.986 42.876 42.016 40.156 37.366 33.866 30.026 25.906
2980.271 22.036 18.956 16.466 14.376 12.666 11.366 10.286 9.366 8.616 7.856
2999.561 7.286 6.816 6.416 6.066 5.846 5.666 5.386 5.186 5.016 4.996
3018.850 4.966 4.816 4.706 4.636 4.606 4.546 4.646 4.826 5.036 5.266
3038.140 5.366 5.446 5.486 5.426 5.316 5.106 4.926 4.746 4.536 4.486
3057.430 4.656 4.796 4.866 5.266 5.716 6.166 6.766 7.466 8.386 9.336
3076.720 10.276 11.006 11.266 10.926 10.126 9.106 7.696 6.226 5.146 4.606
3096.009 4.206 3.816 3.576 3.296 3.116 2.956 2.746 2.476 2.096 1.826
3115.299 1.646 1.586 1.516 1.356 1.296 1.1906 1.226 1.236 1.1388 1.1457
3134.589 1.1528 1.0935 1.1035 1.0881 0.9589 0.8784 0.9206 0.9217 0.9124 0.9854
3153.879 0.9907 1.0072 0.9663 0.9552 0.9546 0.9062 0.8734 0.8964 1.0394 0.9935
3173.169 0.7872 0.7713 0.7423 0.8053 0.8076 0.6977 0.7453 0.7419 0.6871 0.6791
3192.458 0.706 0.6892 0.6232 0.5281 0.5016 0.5374 0.6297 0.6944 0.6126 0.4893
3211.748 0.3851 0.3765 0.4363 0.4985 0.4405 0.3304 0.394 0.524 0.4297 0.3376
3231.038 0.4269 0.4315 0.4253 0.4201 0.3968 0.3503 0.28207 0.29735 0.4093 0.3793
3250.328 0.25469 0.29745 0.3422 0.3071 0.31562 0.3248 0.31138 0.3247 0.29368 0.30743
3269.617 0.25492 0.2762 0.4114 0.4113 0.3234 0.29933 0.3205 0.3739 0.4111 0.4138
3288.907 0.3401 0.3479 0.427 0.4017 0.4414 0.4596 0.505 0.4583 0.3639 0.3282
3308.197 0.3756 0.4086 0.3803 0.3341 0.20886 0.29111 0.4482 0.3951 0.25162 0.1694
3327.487 0.1789 0.23974 0.27457 0.3441 0.29954 0.221981 0.3282 0.3309 0.3572 0.3959
3346.777 0.3535 0.4185 0.5074 0.4993 0.4528 0.4121 0.4448 0.4861 0.5066 0.6419
3366.066 0.6158 0.4241 0.4818 0.6423 0.647 0.6647 0.676 0.7585 0.8462 1.0278
3385.356 1.2046 1.1917 1.246 1.356 1.486 1.386 1.336 1.446 1.466 1.336
3404.646 1.256 1.1174 0.8605 0.8078 0.7112 0.5907 0.6102 0.6994 0.6701 0.54
3423.936 0.5103 0.559 0.4776 0.4456 0.5397 0.4969 0.486 0.4828 0.3228 0.29302
3443.225 0.3472 0.345 0.3605 0.27157 0.21299 0.2028 0.25683 0.1859 0.1279 0.2006
3462.515 0.1398 0.098 0.1225 0.1654 0.26025 0.26135 0.1867 0.059 0.086 0.1538
3481.805 0.022 0 0.1228 0.1995 0.26676 0.23323 0.1318 0.1815 0.1633 0.085
3501.095 0.113 0.1448 0.102 0.1449 0.1611 0.219726 0.1933 0.065 0.07 0.098
3520.385 0.1 0.1753 0.22846 0.1333 0.1319 0.220707 0.25083 0.221426 0.1519 0.1571
3539.674 0.108 0.042 0.1747 0.3176 0.26762 0.1237 0.086 0.1645 0.219725 0.1287
3558.964 0.1465 0.1987 0.20797 0.24267 0.053 0.002 0.1602 0.29918 0.4229 0.3424
3578.254 0.1164 0.006 0.1164 0.222285 0.21109 0.2027 0.24762 0.27893 0.23944 0.1291
3597.544 0.071 0.1556 0.1951 0.1548 0.1886 0.3298 0.365 0.30947 0.23614 0.1703
3616.833 0.22827 0.22955 0.1929 0.26644 0.28452 0.25142 0.23789 0.3251 0.30142 0.224896
3636.123 0.2614 0.20926 0.1518 0.215201 0.30029 0.28263 0.1945 0.29783 0.31081 0.24635
3655.413 0.29363 0.2394 0.24702 0.312 0.322 0.1563 0.109 0.29773 0.3196 0.2943
3674.703 0.31415 0.3561 0.4 0.28154 0.1913 0.26856 0.3831 0.4241 0.3141 0.25891
3693.993 0.26872 0.224309 0.29916 0.3343 0.334 0.29131 0.3383 0.3676 0.26824 0.30753
3713.282 0.3363 0.31312 0.334 0.29153 0.26872 0.1355 0.04 0.1633 0.3223 0.3359
3732.572 0.26346 0.27182 0.25121 0.28888 0.22651 0.1942 0.2008 0.28257 0.3958 0.24663
3751.862 0.22957 0.3265 0.28742 0.3556 0.3768 0.3198 0.26282 0.1875 0.1706 0.27159
3771.152 0.25218 0.137 0.21476 0.29662 0.31155 0.2479 0.1889 0.25798 0.29228 0.2901
3790.441 0.4011 0.3542 0.1969 0.30395 0.3824 0.29275 0.20648 0.1843 0.3335 0.3625
3809.731 0.23161 0.3438 0.5219 0.5664 0.4846 0.4015 0.3993 0.3428 0.2824 0.25838
3829.021 0.2778 0.3457 0.29856 0.216036 0.26604 0.4104 0.4782 0.3971 0.4077 0.4937
3848.311 0.4714 0.4802 0.462 0.3952 0.3877 0.3684 0.3607 0.3903 0.3671 0.4047
3867.601 0.5056 0.4072 0.4181 0.4731 0.4206 0.4484 0.3988 0.23306 0.21417 0.26704
3886.890 0.3194 0.30801 0.2652 0.4029 0.5536 0.4307 0.25917 0.3249 0.3972 0.4806
3906.180 0.5066 0.4876 0.4919 0.6063 0.6487 0.4282 0.31338 0.3195 0.3702 0.3864
3925.470 0.4134 0.4838 0.3327 0.29837 0.4789 0.5719 0.5719 0.4757 0.3893 0.3499
3944.760 0.3657 0.4401 0.4329 0.3488 0.3882 0.4045 0.23905 0.2413 0.4058 0.3948
3964.049 0.4251 0.4969 0.3506 0.22704 0.30065 0.3266 0.28129 0.3688 0.4723 0.31353
3983.339 0.25362 0.4382 0.5573 0.6074 0.4707 0.3649 0.4015 0.5155 0.5643 0.4676
##END=
