##TITLE=Thiophene-3-methanol
##JCAMP-DX=4.24
##DATA TYPE=INFRARED SPECTRUM
##ORIGIN=EPA-IR VAPOR PHASE LIBRARY
##OWNER=SRD/NIST
Collection (C) 2018 copyright by the U.S. Secretary of Commerce
on behalf of the United States of America. All rights reserved.
##CAS REGISTRY NO=71637-34-8
##MOLFORM=C 5 H 6 O S
##$NIST SOURCE=MSDC-IR
##STATE=gas
##XUNITS=1/CM
##YUNITS=ABSORBANCE
##XFACTOR=1.
##YFACTOR=0.001
##DELTAX=1.92934
##FIRSTX=549.9
##LASTX=3999.5
##FIRSTY=8.92
##MAXX=3999.53
##MINX=549.863
##MAXY=0.11016
##MINY=0
##NPOINTS=1789
##XYDATA=(X++(Y..Y))
549.863 8.92 9.52 10.08 10.54 11.05 11.5 11.78 11.97 12.14 12.16
569.156 11.95 11.49 11.14 11.02 10.77 10.52 10.39 10.22 10.03 9.96
588.450 9.96 9.87 9.8 9.85 9.81 9.77 9.85 9.92 10.01 10.17
607.743 10.3 10.52 10.84 11.19 11.51 11.79 12.11 12.49 12.9 13.27
627.037 13.63 14.01 14.42 14.84 15.24 15.62 15.51 15.03 14.68 14.47
646.330 14.46 14.61 14.82 15.14 15.65 16.32 17.12 18.2 19.49 20.88
665.624 22.43 24.14 25.96 27.82 29.91 32.23 35.1 38.97 43.18 44.71
684.917 42.05 38.96 37.88 37.83 37.73 36.72 34.76 32.53 30.41 28.45
704.210 26.65 24.91 23.32 21.98 20.78 19.73 18.9 18.3 17.85 17.47
723.504 17.24 17.2 17.26 17.41 17.7 18.16 18.78 19.62 20.83 22.39
742.797 24.34 26.77 29.68 33.11 37 41.34 46.09 51.07 56.23 61.6
762.091 67.16 73.07 79.63 87.11 95.32 103.23 108.54 109.18 106.23 101.6
781.384 95.94 89.08 81.71 75.41 69.85 64.06 57.93 51.65 45.42 39.46
800.678 33.98 29.08 24.9 21.52 18.93 17.15 16.22 16.18 17.05 18.79
819.971 21.19 23.99 26.88 29.49 31.63 33.43 34.88 36.1 37.22 38.37
839.264 39.7 40.97 41.88 42.28 42.43 42.55 42.6 42.33 41.44 40.1
858.558 39.07 38.76 38.39 37.74 36.99 35.23 31.62 26.55 21.43 17.19
877.851 14.16 12.23 11.04 10.27 9.72 9.38 9.15 8.97 8.92 8.97
897.145 9.09 9.36 9.68 10.14 10.75 11.44 12.33 13.3 14.33 15.51
916.438 16.77 17.96 18.96 19.73 20.29 20.73 20.96 20.99 20.97 20.93
935.732 20.85 20.65 20.36 20.15 20.11 20.3 20.8 21.53 22.37 23.27
955.025 24.19 25.09 26.1 27.08 27.85 28.67 29.56 30.26 30.77 31.15
974.318 31.52 32 32.6 33.34 34.28 35.39 36.68 38.1 39.7 41.57
993.612 43.7 46.13 48.94 52.1 55.6 59.51 63.82 68.5 73.58 79.01
1012.905 84.71 90.48 96 100.93 105.03 108.03 109.72 110.16 109.46 107.67
1032.199 104.87 100.93 96.28 91.03 84.82 77.88 70.76 63.97 57.86 52.45
1051.492 47.71 43.62 39.98 36.68 33.79 31.35 29.39 27.88 26.81 26.04
1070.786 25.45 24.73 23.68 22.36 20.99 19.95 19.26 18.8 18.37 17.69
1090.079 16.68 15.52 14.38 13.28 12.32 11.58 10.98 10.53 10.19 9.97
1109.372 9.83 9.8 9.82 9.91 10.15 10.49 10.96 11.49 12.14 12.98
1128.666 14.03 15.29 16.79 18.54 20.52 22.63 24.79 26.77 28.34 29.46
1147.959 30.12 30.52 30.73 30.77 30.72 30.51 29.99 29.07 27.81 26.34
1167.253 24.9 23.71 22.77 22.1 21.63 21.3 21.1 20.91 20.72 20.56
1186.546 20.45 20.4 20.37 20.35 20.34 20.39 20.46 20.62 20.91 21.29
1205.840 21.72 22.12 22.57 23.15 23.78 24.44 25.12 25.78 26.36 26.82
1225.133 27.2 27.5 27.7 27.78 27.81 27.8 27.67 27.38 26.91 26.32
1244.426 25.67 24.99 24.26 23.55 22.85 22.16 21.48 20.8 20.14 19.49
1263.720 18.89 18.36 17.9 17.43 16.99 16.63 16.34 16.08 15.85 15.65
1283.013 15.49 15.36 15.27 15.18 15.11 15.09 15.06 15.08 15.13 15.22
1302.307 15.29 15.31 15.34 15.4 15.43 15.47 15.57 15.71 15.85 16.02
1321.600 16.24 16.49 16.79 17.16 17.64 18.15 18.68 19.24 19.91 20.66
1340.894 21.48 22.38 23.38 24.48 25.57 26.77 28.01 29.23 30.5 31.84
1360.187 33.16 34.47 35.84 37.15 38.36 39.39 40.13 40.47 40.46 40.2
1379.480 39.89 39.62 39.33 39.18 39.21 39.25 39.41 39.79 40.49 41.64
1398.774 43.21 45.04 46.92 48.57 49.65 50.05 49.71 48.81 47.58 46.04
1418.067 44.25 42.11 39.59 36.41 32.64 28.89 25.4 22.55 20.48 19.1
1437.361 18.21 17.65 17.3 17.08 17 16.88 16.71 16.59 16.46 16.34
1456.654 16.29 16.25 16.13 15.93 15.56 15.02 14.44 13.79 13.06 12.27
1475.948 11.49 10.71 9.93 9.16 8.45 7.78 7.16 6.64 6.15 5.75
1495.241 5.45 5.22 5.02 4.82 4.68 4.62 4.58 4.54 4.48 4.44
1514.534 4.46 4.48 4.53 4.63 4.76 4.89 5.06 5.25 5.45 5.78
1533.828 6.15 6.51 7 7.67 8.45 9.28 10.15 10.94 11.57 12.02
1553.121 12.25 12.28 12.24 12.1 11.78 11.39 10.9 10.18 9.25 8.16
1572.415 7.09 6.19 5.45 4.79 4.28 3.89 3.62 3.4465 3.3107 3.187
1591.708 3.0842 3.0064 2.9684 2.9687 2.964 2.9492 2.9236 2.9162 2.9226 2.9023
1611.002 2.8901 2.8897 2.8943 2.9047 2.8328 2.7996 2.822 2.8159 2.8162 2.8722
1630.295 2.9004 2.9126 2.9966 3.0955 3.1521 3.2323 3.3255 3.3846 3.4436 3.5122
1649.588 3.5435 3.5844 3.61 3.5645 3.4902 3.4258 3.3438 3.2288 3.0794 2.9099
1668.882 2.7566 2.65052 2.5598 2.448 2.367 2.292 2.223 2.151 2.118 2.123
1688.175 2.088 2.039 2.028 2.044 2.022 1.974 1.947 1.858 1.801 1.806
1707.469 1.8 1.828 1.889 1.915 1.997 2.12 2.132 2.103 2.211 2.444
1726.762 2.66801 2.8566 3.0375 3.2098 3.396 3.5294 3.65 3.79 3.9 4.04
1746.056 4.12 4.12 4.15 4.19 4.12 4.04 3.97 3.84 3.72 3.5781
1765.349 3.4039 3.2176 3.0539 2.8367 2.61785 2.456 2.326 2.215 2.092 1.974
1784.642 1.899 1.834 1.788 1.781 1.762 1.732 1.692 1.676 1.693 1.669
1803.936 1.611 1.604 1.633 1.599 1.59 1.61 1.56 1.54 1.57 1.55
1823.229 1.52 1.53 1.53 1.52 1.52 1.54 1.52 1.51 1.53 1.53
1842.523 1.55 1.57 1.57 1.56 1.57 1.56 1.53 1.53 1.51 1.5
1861.816 1.54 1.57 1.56 1.54 1.58 1.57 1.58 1.604 1.59 1.58
1881.110 1.56 1.56 1.58 1.57 1.58 1.593 1.601 1.592 1.58 1.596
1900.403 1.594 1.593 1.58 1.56 1.57 1.57 1.56 1.58 1.603 1.623
1919.696 1.608 1.63 1.661 1.698 1.736 1.76 1.791 1.832 1.866 1.883
1938.990 1.915 1.906 1.903 1.936 1.933 1.938 1.949 1.931 1.931 1.947
1958.283 1.948 1.928 1.891 1.852 1.856 1.891 1.898 1.922 1.973 1.97
1977.577 1.996 2.033 2.066 2.12 2.162 2.206 2.263 2.332 2.367 2.397
1996.870 2.455 2.5123 2.5667 2.61496 2.64586 2.6975 2.7396 2.7502 2.7648 2.826
2016.164 2.8508 2.8489 2.8646 2.864 2.8936 2.8957 2.8786 2.8571 2.8628 2.8772
2035.457 2.8254 2.8204 2.8557 2.8331 2.8071 2.7745 2.7119 2.7 2.68573 2.65947
2054.750 2.65314 2.63361 2.62323 2.58098 2.5097 2.435 2.401 2.403 2.381 2.358
2074.044 2.343 2.306 2.271 2.23 2.192 2.172 2.152 2.093 2.051 2.014
2093.337 1.956 1.945 1.904 1.848 1.811 1.782 1.77 1.775 1.766 1.715
2112.631 1.685 1.678 1.679 1.682 1.676 1.676 1.674 1.671 1.698 1.723
2131.924 1.732 1.764 1.777 1.804 1.876 1.921 1.977 2.005 2.036 2.121
2151.218 2.201 2.271 2.299 2.293 2.323 2.388 2.382 2.357 2.344 2.344
2170.511 2.349 2.301 2.249 2.206 2.143 2.109 2.119 2.068 1.998 1.968
2189.804 1.932 1.897 1.874 1.871 1.872 1.874 1.875 1.868 1.874 1.869
2209.098 1.876 1.896 1.902 1.898 1.905 1.945 1.954 1.946 1.944 1.944
2228.391 1.956 1.992 2.015 1.998 2.015 2.042 2.064 2.077 2.044 2.013
2247.685 2.003 2.015 2.044 2.04 2.001 1.996 2.07 2.127 2.119 2.083
2266.978 2.065 2.099 2.132 2.141 2.157 2.165 2.166 2.189 2.2 2.17
2286.272 2.159 2.186 2.152 2.117 2.13 2.109 2.099 2.118 2.117 2.122
2305.565 2.13 2.126 2.137 2.144 2.127 2.09 2.088 2.135 2.11 2.065
2324.858 2.045 2.04 2.092 2.077 2.05 2.075 2.049 2.011 2.045 2.048
2344.152 2.022 2.023 2.028 2.032 2.005 1.996 2.001 2.015 2.016 2.001
2363.445 1.977 1.957 2.016 2.068 2.053 2.023 2.027 2.018 2.015 2.033
2382.739 2.018 2.018 2.033 2.031 2.02 2.049 2.069 2.043 2.011 2.028
2402.032 2.062 2.062 2.061 2.037 2.012 2.048 2.047 2.006 2.01 2.025
2421.326 2.004 1.994 2.004 2.004 2 2.003 1.997 1.99 2.005 1.99
2440.619 1.977 1.995 2.018 2.012 2.002 1.995 2.022 2.054 2.064 2.072
2459.912 2.075 2.078 2.049 2.051 2.057 2.037 2.06 2.076 2.063 2.03
2479.206 2.031 2.043 1.982 1.932 1.89 1.847 1.838 1.881 1.903 1.907
2498.499 1.881 1.836 1.808 1.759 1.719 1.693 1.65 1.633 1.695 1.709
2517.793 1.652 1.644 1.633 1.629 1.655 1.631 1.604 1.611 1.615 1.613
2537.086 1.605 1.591 1.58 1.57 1.55 1.5 1.47 1.53 1.57 1.56
2556.380 1.54 1.48 1.47 1.46 1.43 1.44 1.45 1.42 1.41 1.45
2575.673 1.47 1.49 1.52 1.51 1.51 1.5 1.51 1.54 1.57 1.56
2594.966 1.52 1.54 1.56 1.55 1.596 1.639 1.62 1.637 1.696 1.695
2614.260 1.687 1.696 1.728 1.747 1.74 1.711 1.723 1.759 1.752 1.754
2633.553 1.731 1.74 1.764 1.757 1.758 1.758 1.732 1.722 1.715 1.715
2652.847 1.742 1.729 1.695 1.723 1.774 1.766 1.751 1.718 1.731 1.781
2672.140 1.781 1.784 1.792 1.825 1.893 1.889 1.878 1.891 1.923 2.011
2691.434 2.027 2.009 2.028 2.022 2.015 2.019 2.065 2.131 2.147 2.156
2710.727 2.183 2.207 2.251 2.303 2.311 2.344 2.375 2.39 2.433 2.4967
2730.020 2.5405 2.5668 2.6122 2.65392 2.7329 2.7614 2.7691 2.8549 2.8686 2.8847
2749.314 2.9835 3.0365 3.1324 3.2203 3.2717 3.3532 3.4028 3.4928 3.5787 3.65
2768.607 3.81 3.87 3.88 4.02 4.14 4.22 4.38 4.53 4.61 4.72
2787.901 4.81 4.88 4.98 5.17 5.34 5.48 5.62 5.76 5.96 6.18
2807.194 6.38 6.61 6.85 7.1 7.36 7.64 7.94 8.22 8.51 8.9
2826.488 9.36 9.71 10.11 10.62 11.06 11.54 12.1 12.7 13.38 14.16
2845.781 14.98 15.79 16.65 17.65 18.76 20 21.34 22.74 24.33 25.97
2865.074 27.7 29.68 31.74 33.72 35.71 37.62 39.38 40.85 41.94 42.9
2884.368 43.69 44.06 44.04 43.69 43.06 42.22 41.31 40.28 39.19 38.23
2903.661 37.33 36.52 35.82 35.3 35.02 34.79 34.66 34.61 34.57 34.62
2922.955 34.64 34.67 34.67 34.57 34.43 34.35 34.31 34.11 33.89 33.69
2942.248 33.4 32.91 32.22 31.45 30.6 29.67 28.65 27.53 26.3 25
2961.542 23.63 22.22 20.66 19.02 17.51 16.07 14.74 13.49 12.26 11.09
2980.835 10.03 9.14 8.24 7.47 6.89 6.26 5.67 5.19 4.81 4.43
3000.128 4.03 3.74 3.5275 3.2433 2.997 2.8301 2.60444 2.413 2.211 2.157
3019.422 2.103 1.938 1.863 1.825 1.844 1.811 1.75 1.758 1.804 1.864
3038.715 1.895 1.997 2.136 2.167 2.329 2.5137 2.66823 2.8624 2.9575 3.0583
3058.009 3.2796 3.5034 3.62 3.64 3.77 4.02 4.11 4.19 4.28 4.28
3077.302 4.34 4.26 4.14 4.05 3.97 3.92 3.83 3.76 3.68 3.62
3096.596 3.3941 3.1488 3.047 2.9501 2.8184 2.757 2.7207 2.66753 2.5535 2.5395
3115.889 2.461 2.138 2.044 1.974 1.924 1.885 1.748 1.681 1.52 1.28
3135.182 1.06 0.88 0.78 0.73 0.68 0.58 0.5 0.47 0.45 0.34
3154.476 0.28 0.25 0.19 0.14 0.08 0.12 0.17 0.15 0 0.02
3173.769 0.16 0.11 0.11 0.18 0.13 0.11 0.12 0.1 0.11 0.12
3193.063 0.07 0.11 0.14 0.12 0.18 0.17 0.17 0.14 0.16 0.22
3212.356 0.24 0.3 0.23 0.12 0.16 0.21 0.22 0.17 0.09 0.12
3231.650 0.22 0.21 0.19 0.21 0.16 0.13 0.16 0.17 0.12 0.13
3250.943 0.12 0.11 0.16 0.17 0.15 0.15 0.21 0.22 0.23 0.26
3270.236 0.21 0.18 0.2 0.24 0.34 0.38 0.35 0.28 0.27 0.24
3289.530 0.17 0.21 0.31 0.34 0.31 0.26 0.2 0.27 0.27 0.27
3308.823 0.36 0.32 0.32 0.4 0.38 0.38 0.45 0.41 0.36 0.43
3328.117 0.46 0.5 0.6 0.61 0.57 0.51 0.48 0.51 0.51 0.51
3347.410 0.51 0.63 0.73 0.71 0.68 0.67 0.63 0.58 0.63 0.75
3366.704 0.79 0.75 0.78 0.86 0.91 0.87 0.94 1.02 1.02 1.02
3385.997 1.04 1.03 1.05 1.12 1.18 1.17 1.07 1.14 1.19 1.21
3405.290 1.32 1.33 1.29 1.35 1.35 1.27 1.26 1.36 1.46 1.37
3424.584 1.35 1.4 1.45 1.55 1.47 1.43 1.45 1.46 1.47 1.4
3443.877 1.39 1.4 1.45 1.51 1.54 1.54 1.628 1.658 1.59 1.596
3463.171 1.595 1.623 1.663 1.664 1.662 1.686 1.767 1.668 1.599 1.659
3482.464 1.709 1.73 1.697 1.798 1.867 1.872 1.875 1.832 1.834 1.816
3501.758 1.813 1.793 1.725 1.675 1.668 1.691 1.728 1.72 1.594 1.58
3521.051 1.645 1.637 1.605 1.58 1.57 1.63 1.648 1.623 1.611 1.58
3540.344 1.59 1.593 1.607 1.648 1.711 1.667 1.628 1.57 1.57 1.648
3559.638 1.695 1.81 1.951 1.986 1.907 1.915 1.927 1.938 1.957 2.029
3578.931 2.18 2.255 2.277 2.265 2.313 2.393 2.5011 2.6946 2.7585 2.7543
3598.225 2.8519 3.0437 3.2168 3.3408 3.524 3.72 3.98 4.26 4.58 4.97
3617.518 5.4 5.8 6.31 7 7.68 8.45 9.25 10.26 11.28 12.24
3636.812 13.3 14.35 15.47 16.8 18.4 20.23 22.14 23.52 24.06 24.2
3656.105 24.02 23.74 23.56 23.21 22.63 21.88 20.92 19.79 18.51 17.17
3675.398 15.69 14.14 12.69 11.35 10.2 9.32 8.52 7.81 7.25 6.7
3694.692 6.26 5.88 5.58 5.34 5.06 4.72 4.49 4.39 4.21 4
3713.985 3.77 3.63 3.466 3.3618 3.2801 3.1662 3.0307 2.9075 2.8749 2.8061
3733.279 2.7135 2.6702 2.6628 2.6842 2.7412 2.6767 2.5752 2.5428 2.574 2.63254
3752.572 2.61079 2.5671 2.5416 2.5373 2.471 2.43 2.476 2.446 2.421 2.466
3771.866 2.428 2.441 2.448 2.383 2.337 2.301 2.358 2.37 2.392 2.434
3791.159 2.376 2.321 2.312 2.344 2.412 2.35 2.306 2.316 2.335 2.382
3810.452 2.394 2.364 2.339 2.299 2.258 2.283 2.29 2.237 2.24 2.355
3829.746 2.354 2.318 2.327 2.316 2.316 2.355 2.378 2.366 2.377 2.393
3849.039 2.425 2.404 2.406 2.421 2.397 2.407 2.449 2.4995 2.5589 2.5669
3868.333 2.5259 2.5236 2.5231 2.534 2.5238 2.4938 2.459 2.455 2.5334 2.5317
3887.626 2.435 2.415 2.428 2.436 2.4913 2.4963 2.406 2.37 2.361 2.322
3906.920 2.362 2.384 2.337 2.328 2.337 2.25 2.201 2.21 2.197 2.223
3926.213 2.257 2.312 2.305 2.256 2.246 2.313 2.33 2.302 2.364 2.366
3945.506 2.343 2.373 2.41 2.415 2.391 2.387 2.365 2.346 2.293 2.25
3964.800 2.186 2.104 2.095 2.12 2.115 2.064 2.019 1.977 1.899 1.871
3984.093 1.899 1.868 1.852 1.906 1.892 1.893 1.966 2.021 2.025
##END=
