##TITLE=1-Phenylimidazole
##JCAMP-DX=4.24
##DATA TYPE=INFRARED SPECTRUM
##ORIGIN=NIST Mass Spectrometry Data Center
##OWNER=NIST Standard Reference Data Program
Collection (C) 2018 copyright by the U.S. Secretary of Commerce
on behalf of the United States of America. All rights reserved.
##CAS REGISTRY NO=7164-98-9
##MOLFORM=C 9 H 8 N 2
##$NIST SOURCE=MSDC-IR
##SPECTROMETER/DATA SYSTEM=HP-GC/MS/IRD
##STATE=gas
##XUNITS=1/CM
##YUNITS=ABSORBANCE
##XFACTOR=1.0
##YFACTOR=0.000010800
##DELTAX=4.0
##FIRSTX=550.0
##LASTX=3846.0
##FIRSTY=0.000529
##MAXX=3846
##MINX=550
##MAXY=0.108
##MINY=0
##NPOINTS=825
##XYDATA=(X++(Y..Y))
550.0 49 60 22 15 7 5 0 2 4 3
590.0 2 14 37 57 77 103 127 145 166 192
630.0 222 274 357 477 628 787 931 984 972 976
670.0 1040 1244 1520 1731 1979 2224 2131 1870 1741 1677
710.0 1678 1744 1850 1900 1788 1642 1549 1521 1601 1768
750.0 1975 2258 2477 2212 1787 1464 1114 811 602 507
790.0 516 602 751 924 1092 1171 1075 913 737 546
830.0 396 291 232 216 212 214 210 189 168 143
870.0 126 129 156 212 350 609 790 823 823 636
910.0 346 196 135 94 67 57 55 59 80 126
950.0 243 471 672 718 699 562 318 162 115 105
990.0 124 167 195 208 219 197 175 181 203 255
1030.0 369 607 1073 1970 3285 4166 4213 3888 2860 1483
1070.0 748 516 431 405 423 492 572 632 687 705
1110.0 643 547 462 357 247 176 133 109 95 92
1150.0 97 94 83 78 74 77 80 80 78 71
1190.0 65 67 75 87 110 142 180 232 316 468
1230.0 781 1283 1731 1929 1940 1664 1179 823 650 553
1270.0 475 444 493 677 1124 1980 3096 3861 4037 3709
1310.0 2688 1484 804 515 361 274 226 203 188 185
1350.0 211 270 353 434 500 525 489 400 301 215
1390.0 151 122 113 111 118 134 159 193 240 303
1430.0 378 452 520 585 656 744 848 955 1063 1251
1470.0 1583 1992 2323 2759 3517 4583 5927 7615 9361 10000
1510.0 9083 7449 5242 2828 1370 861 654 528 427 351
1550.0 318 335 411 552 725 887 1008 1115 1245 1482
1590.0 1922 2537 3077 3197 2847 2208 1446 842 541 395
1630.0 305 260 254 291 364 444 501 504 448 354
1670.0 254 178 139 131 151 197 266 319 331 323
1710.0 288 240 212 203 190 170 145 115 89 67
1750.0 50 41 37 37 43 57 79 101 117 117
1790.0 108 89 67 52 45 37 30 23 20 20
1830.0 21 26 35 48 64 83 101 114 120 117
1870.0 111 104 95 86 71 54 37 25 22 23
1910.0 27 40 55 72 87 99 108 113 118 126
1950.0 131 129 114 90 64 39 25 22 23 24
1990.0 23 21 19 16 14 12 8 5 1 0
2030.0 2 3 2 3 6 7 10 11 8 8
2070.0 8 5 2 0 1 3 4 6 6 7
2110.0 8 5 1 0 0 3 9 12 13 16
2150.0 16 15 14 12 9 9 11 14 17 19
2190.0 22 22 17 16 16 14 11 9 9 7
2230.0 3 1 1 0 2 3 4 4 7 10
2270.0 10 14 17 21 26 29 26 20 18 22
2310.0 27 31 32 33 34 33 32 33 31 29
2350.0 27 24 23 22 20 19 15 13 11 12
2390.0 17 24 30 33 32 33 38 41 40 35
2430.0 26 20 15 13 13 13 12 13 19 26
2470.0 31 35 40 44 45 49 53 57 59 55
2510.0 50 42 37 34 36 37 38 38 44 50
2550.0 57 63 70 75 77 76 73 73 70 67
2590.0 69 72 74 72 67 61 57 57 54 49
2630.0 44 42 38 31 28 25 22 18 19 21
2670.0 19 22 22 22 24 24 25 30 36 43
2710.0 54 63 72 76 76 75 73 69 64 56
2750.0 50 47 44 45 47 52 59 60 56 51
2790.0 42 35 34 35 37 35 29 27 21 18
2830.0 21 24 27 30 28 24 21 18 15 14
2870.0 13 13 10 12 11 12 16 19 22 25
2910.0 24 27 32 34 34 36 37 39 43 47
2950.0 47 49 48 46 47 48 51 50 48 49
2990.0 40 39 43 46 56 70 84 105 140 187
3030.0 252 335 435 559 689 793 844 847 826 819
3070.0 871 958 1005 981 900 768 620 516 455 422
3110.0 407 410 419 404 364 317 251 188 157 149
3150.0 143 130 115 90 59 37 28 31 28 21
3190.0 23 23 21 20 17 16 16 9 4 1
3230.0 3 9 9 6 4 3 2 2 3 3
3270.0 5 8 5 4 5 6 4 2 4 5
3310.0 5 7 3 3 8 9 5 4 1 2
3350.0 7 13 14 9 8 10 6 6 4 0
3390.0 2 3 3 7 8 8 13 14 8 8
3430.0 9 12 9 7 8 9 12 9 6 8
3470.0 6 6 10 13 13 12 12 10 11 13
3510.0 11 8 9 11 7 6 4 5 8 4
3550.0 4 9 12 13 7 5 11 15 13 13
3590.0 15 14 10 10 12 10 9 12 13 10
3630.0 10 12 16 17 21 29 24 16 14 17
3670.0 21 22 15 12 18 22 26 27 20 17
3710.0 18 19 22 22 18 15 15 22 28 30
3750.0 30 24 23 27 27 24 24 21 20 17
3790.0 14 15 15 14 14 15 16 12 12 16
3830.0 14 14 17 19 18
##END=
