##TITLE=3-Methyl-2,4,6-tribromoaniline
##JCAMP-DX=4.24
##DATA TYPE=INFRARED SPECTRUM
##ORIGIN=EPA-IR VAPOR PHASE LIBRARY
##OWNER=SRD/NIST
Collection (C) 2018 copyright by the U.S. Secretary of Commerce
on behalf of the United States of America. All rights reserved.
##CAS REGISTRY NO=71642-16-5
##MOLFORM=C 7 H 6 Br 3 N
##$NIST SOURCE=MSDC-IR
##STATE=gas
##XUNITS=1/CM
##YUNITS=ABSORBANCE
##XFACTOR=1.
##YFACTOR=0.001
##DELTAX=1.92934
##FIRSTX=549.9
##LASTX=3999.5
##FIRSTY=5.75
##MAXX=3999.53
##MINX=549.863
##MAXY=0.12705
##MINY=0
##NPOINTS=1789
##XYDATA=(X++(Y..Y))
549.863 5.75 5.8 5.7 5.72 5.59 5.34 5.24 5.17 5.23 5.22
569.156 5.19 5.07 5.16 5.32 5.24 5.26 5.28 5.35 5.4 5.4
588.450 5.48 5.59 5.59 5.64 5.96 6.29 6.48 6.74 7.15 7.67
607.743 8.13 8.57 9.27 10.16 11.3 12.62 13.99 15.57 17.22 18.63
627.037 19.71 20.26 20.1 19.32 18.12 16.66 15.2 13.99 13.17 13.02
646.330 13.45 14.4 15.92 18.23 21.41 25.42 30.28 35.54 40.82 45.61
665.624 49.48 51.99 52.41 50.44 46.15 40.4 34.1 28.1 23.05 19.33
684.917 16.92 15.23 13.97 13.17 12.85 12.93 13.35 14.07 14.91 15.79
704.210 16.67 17.4 17.75 17.45 16.59 15.7 14.85 14.1 13.45 12.8
723.504 12.18 11.63 11.2 10.75 10.3 9.98 9.78 9.67 9.63 9.69
742.797 9.92 10.34 10.95 11.82 13.08 14.9 17.35 20.57 24.61 29.04
762.091 33.28 36.8 39.03 39.8 39.12 37.18 34.43 31.49 28.72 26.09
781.384 23.57 21.38 19.63 18.16 16.89 15.84 14.94 14.18 13.53 12.96
800.678 12.46 12.04 11.7 11.33 10.92 10.54 10.12 9.65 9.2 8.78
819.971 8.39 8.1 7.93 7.77 7.66 7.56 7.47 7.26 7.08 7.03
839.264 6.95 6.88 6.83 6.85 7.02 7.32 7.72 8.27 9.06 10.26
858.558 11.95 13.97 16.07 18.01 19.3 19.61 18.37 15.78 13.22 11.1
877.851 9.31 7.96 7.06 6.43 5.92 5.51 5.23 5.03 4.84 4.74
897.145 4.7 4.73 4.8 4.84 4.88 5.01 5.13 5.2 5.39 5.59
916.438 5.76 5.98 6.18 6.35 6.48 6.52 6.44 6.26 6.16 6.08
935.732 5.9 5.76 5.75 5.82 5.98 6.25 6.67 7.25 8.16 9.47
955.025 11.17 13.36 16.02 18.94 21.84 24.15 25.41 25.39 24.1 21.86
974.318 19.17 16.51 14.28 12.6 11.35 10.44 9.77 9.27 8.95 8.79
993.612 8.83 8.95 9.19 9.56 10 10.53 11.04 11.59 12.21 12.71
1012.905 13.12 13.5 13.69 13.71 13.6 13.34 12.94 12.48 12.04 11.64
1032.199 11.26 10.92 10.63 10.39 10.15 9.92 9.64 9.38 9.19 8.99
1051.492 8.85 8.75 8.63 8.59 8.57 8.46 8.46 8.6 8.73 8.88
1070.786 9.1 9.39 9.65 9.84 10.01 10.16 10.25 10.3 10.31 10.27
1090.079 10.22 10.19 10.29 10.55 10.99 11.77 13 14.76 17.17 20.13
1109.372 23.43 26.65 29.27 30.79 30.77 29.16 26.26 22.59 18.65 15.06
1128.666 12.12 9.86 8.25 7.06 6.13 5.47 4.93 4.51 4.19 3.93
1147.959 3.73 3.57 3.44 3.34 3.25 3.14 3.09 3.07 3.03 2.96
1167.253 2.89 2.88 2.96 3.08 3.22 3.44 3.79 4.25 4.91 5.67
1186.546 6.52 7.26 7.73 8.03 8.03 7.74 7.37 7.08 6.79 6.62
1205.840 6.68 6.78 6.81 6.68 6.39 5.93 5.3 4.55 3.87 3.43
1225.133 3.2 3.01 2.94 2.91 2.87 2.88 2.92 3.01 3.13 3.28
1244.426 3.43 3.59 3.9 4.32 4.87 5.57 6.48 7.61 8.81 9.96
1263.720 10.9 11.39 11.29 10.67 9.71 8.54 7.48 6.73 6.28 6.04
1283.013 5.86 5.66 5.41 5.06 4.64 4.28 4.03 3.94 3.95 4.03
1302.307 4.09 4.15 4.11 3.93 3.72 3.51 3.32 3.15 3.02 2.94
1321.600 2.85 2.78 2.81 2.82 2.81 2.87 2.95 3.04 3.09 3.17
1340.894 3.28 3.42 3.65 3.86 4.05 4.3 4.65 5.02 5.5 6.11
1360.187 6.89 7.86 9.07 10.56 12.45 14.89 17.93 21.77 26.5 31.78
1379.480 36.94 41.27 44.29 45.65 45.03 42.53 38.82 34.59 30.41 26.64
1398.774 23.45 20.92 19.18 18.13 17.61 17.56 18.06 19.12 20.83 23.44
1418.067 27.25 32.6 39.42 48.11 58.96 71.44 85.07 98.71 110.89 120.18
1437.361 125.81 127.05 123.88 116.9 106.87 94.82 81.71 68.94 57.24 47.55
1456.654 40.07 34.89 31.83 30.05 28.89 27.7 26.12 24.13 21.82 19.34
1475.948 17.1 15.2 13.74 12.61 11.76 11.02 10.4 9.88 9.38 8.96
1495.241 8.65 8.35 8.11 7.96 7.88 7.81 7.77 7.79 7.87 8.05
1514.534 8.2 8.39 8.69 9.01 9.4 9.77 10.13 10.6 11.11 11.54
1533.828 12.04 12.59 13.14 13.79 14.43 14.99 15.54 16.05 16.35 16.45
1553.121 16.45 16.43 16.42 16.53 16.78 16.99 17.09 17.07 16.81 16.27
1572.415 15.58 14.83 14.12 13.63 13.53 13.81 14.56 15.92 17.78 20.28
1591.708 23.67 28.18 34.15 41.99 51.79 63.25 75.31 86.34 94.58 98.73
1611.002 98.15 93.05 84.6 74 63.21 53.24 44.11 36.22 29.81 24.77
1630.295 20.87 17.9 15.6 13.73 12.25 11.07 10.05 9.16 8.41 7.77
1649.588 7.24 6.82 6.48 6.19 5.95 5.77 5.67 5.62 5.52 5.4
1668.882 5.28 5.17 5.06 4.9 4.71 4.52 4.33 4.2 4.09 3.98
1688.175 3.9 3.85 3.77 3.69 3.66 3.63 3.54 3.44 3.41 3.4
1707.469 3.32 3.32 3.4 3.49 3.61 3.79 4.03 4.34 4.6 4.81
1726.762 5.04 5.25 5.34 5.26 5.02 4.65 4.27 3.85 3.46 3.19
1746.056 2.99 2.81 2.68 2.59 2.49 2.4205 2.3669 2.3204 2.2962 2.2041
1765.349 2.1545 2.1577 2.1118 2.067 1.9875 1.9425 1.9431 1.9178 1.9026 1.8585
1784.642 1.7924 1.7545 1.7587 1.751 1.6934 1.6267 1.57286 1.55459 1.5454 1.50247
1803.936 1.52024 1.56534 1.53451 1.52281 1.53827 1.51484 1.50169 1.49783 1.49825 1.49678
1823.229 1.49067 1.47971 1.4573 1.4357 1.4298 1.451 1.50567 1.49591 1.4574 1.4811
1842.523 1.4307 1.4447 1.50859 1.51168 1.52071 1.51866 1.52037 1.52703 1.52273 1.5205
1861.816 1.48848 1.47964 1.52608 1.54397 1.52662 1.52436 1.54514 1.55032 1.5589 1.55663
1881.110 1.54799 1.51991 1.54479 1.57468 1.52143 1.50314 1.51257 1.50919 1.52522 1.5088
1900.403 1.4689 1.46 1.4638 1.48136 1.47843 1.47708 1.49078 1.49175 1.4768 1.4651
1919.696 1.4724 1.4522 1.4331 1.4674 1.4627 1.4644 1.48287 1.47067 1.4571 1.48061
1938.990 1.50789 1.502 1.49761 1.48942 1.48322 1.48746 1.49245 1.47723 1.4484 1.47138
1958.283 1.49289 1.47398 1.452 1.3957 1.371 1.351 1.347 1.341 1.329 1.351
1977.577 1.341 1.345 1.351 1.353 1.379 1.3873 1.372 1.3918 1.4174 1.3949
1996.870 1.376 1.365 1.405 1.4483 1.4492 1.4586 1.47109 1.48881 1.51075 1.51073
2016.164 1.47661 1.4698 1.50483 1.48757 1.4637 1.4561 1.459 1.4413 1.4265 1.4583
2035.457 1.4117 1.3828 1.4072 1.4626 1.468 1.4339 1.4437 1.4324 1.4403 1.4556
2054.750 1.4286 1.4075 1.4049 1.4255 1.4277 1.4236 1.4624 1.4592 1.4236 1.4192
2074.044 1.4503 1.4452 1.4448 1.47169 1.4571 1.4471 1.4304 1.4267 1.4096 1.3944
2093.337 1.365 1.314 1.316 1.293 1.261 1.233 1.166 1.141 1.178 1.161
2112.631 1.116 1.116 1.136 1.103 1.05 1.088 1.114 1.103 1.071 1.05
2131.924 1.048 1.039 1.068 1.066 1.07 1.066 1.041 1.031 1.044 1.075
2151.218 1.077 1.096 1.124 1.119 1.128 1.137 1.151 1.127 1.11 1.112
2170.511 1.115 1.183 1.204 1.191 1.195 1.203 1.261 1.307 1.336 1.365
2189.804 1.358 1.368 1.398 1.3832 1.362 1.344 1.322 1.317 1.33 1.296
2209.098 1.242 1.245 1.266 1.224 1.15 1.17 1.216 1.202 1.205 1.222
2228.391 1.231 1.23 1.267 1.278 1.259 1.295 1.285 1.238 1.243 1.246
2247.685 1.205 1.198 1.172 1.13 1.134 1.114 1.069 1.043 1.033 1.038
2266.978 1.051 1.065 1.063 1.048 1.043 1.057 1.059 1.075 1.083 1.052
2286.272 1.058 1.108 1.097 1.043 1.014 1.046 1.069 1.026 1.034 1.067
2305.565 1.092 1.085 1.052 1.066 1.078 1.06 1.05 1.077 1.09 1.077
2324.858 1.087 1.054 1.057 1.099 1.099 1.083 1.074 1.053 1.03 1.027
2344.152 1.042 1.063 1.081 1.078 1.064 1.031 1.046 1.095 1.078 1.101
2363.445 1.129 1.156 1.213 1.209 1.211 1.255 1.286 1.325 1.348 1.342
2382.739 1.35 1.334 1.295 1.272 1.272 1.281 1.27 1.261 1.241 1.241
2402.032 1.22 1.171 1.166 1.159 1.149 1.107 1.028 1.027 1.049 1.038
2421.326 1.002 0.962 0.94 0.902 0.933 0.948 0.883 0.887 0.94 0.968
2440.619 0.953 0.91 0.903 0.93 0.914 0.917 0.92 0.869 0.868 0.907
2459.912 0.89 0.823 0.826 0.866 0.878 0.891 0.86 0.839 0.868 0.927
2479.206 0.938 0.909 0.939 0.953 0.922 0.968 0.995 0.994 1.016 1.002
2498.499 1.026 1.04 1.049 1.074 1.063 1.053 1.069 1.118 1.125 1.063
2517.793 1.059 1.098 1.135 1.135 1.111 1.121 1.134 1.139 1.186 1.216
2537.086 1.159 1.123 1.099 1.051 1.013 0.995 1.032 1.031 0.913 0.85
2556.380 0.836 0.799 0.853 0.909 0.907 0.855 0.794 0.759 0.742 0.772
2575.673 0.814 0.846 0.814 0.738 0.716 0.722 0.701 0.727 0.741 0.728
2594.966 0.718 0.673 0.697 0.744 0.705 0.717 0.762 0.74 0.691 0.678
2614.260 0.694 0.695 0.699 0.669 0.699 0.716 0.707 0.685 0.696 0.719
2633.553 0.683 0.676 0.642 0.647 0.656 0.653 0.644 0.639 0.652 0.653
2652.847 0.651 0.645 0.644 0.641 0.634 0.596 0.575 0.634 0.643 0.615
2672.140 0.589 0.524 0.494 0.485 0.48 0.42 0.42 0.494 0.481 0.43
2691.434 0.44 0.489 0.525 0.532 0.534 0.5 0.507 0.502 0.497 0.495
2710.727 0.45 0.45 0.45 0.48 0.46 0.48 0.521 0.504 0.5 0.537
2730.020 0.521 0.44 0.4 0.43 0.488 0.527 0.47 0.44 0.486 0.545
2749.314 0.601 0.59 0.567 0.593 0.527 0.44 0.45 0.42 0.41 0.45
2768.607 0.41 0.39 0.42 0.43 0.45 0.485 0.486 0.45 0.46 0.526
2787.901 0.584 0.607 0.625 0.595 0.626 0.64 0.635 0.696 0.728 0.719
2807.194 0.675 0.694 0.696 0.647 0.673 0.719 0.736 0.773 0.799 0.832
2826.488 0.805 0.731 0.689 0.697 0.761 0.841 0.875 0.926 0.952 0.968
2845.781 1.052 1.069 1.067 1.107 1.202 1.354 1.4259 1.4625 1.5866 1.7016
2865.074 1.7928 1.8459 1.8512 1.9687 2.0005 1.8505 1.7098 1.6385 1.6548 1.6492
2884.368 1.56622 1.4533 1.3898 1.4055 1.4327 1.478 1.4218 1.369 1.3883 1.47013
2903.661 1.54863 1.57824 1.6338 1.6761 1.7391 1.8587 1.9879 2.1641 2.39 2.6
2922.955 2.9 3.32 3.81 4.37 5 5.58 6.18 6.75 7.18 7.39
2942.248 7.38 7.17 6.72 6.28 5.86 5.32 4.88 4.47 4.12 3.92
2961.542 3.66 3.33 3.03 2.83 2.71 2.4257 2.2017 2.1425 1.9812 1.8165
2980.835 1.666 1.6816 1.7039 1.5942 1.55486 1.50061 1.47132 1.4344 1.336 1.364
3000.128 1.379 1.282 1.197 1.274 1.277 1.262 1.35 1.3808 1.4658 1.57401
3019.422 1.55921 1.4429 1.51236 1.54126 1.52561 1.6664 1.7597 1.8003 1.8271 1.8541
3038.715 1.841 1.8743 1.8379 1.7427 1.7335 1.6968 1.5963 1.52451 1.57844 1.6046
3058.009 1.47829 1.318 1.329 1.275 1.167 1.261 1.314 1.217 1.058 0.988
3077.302 1.003 1.041 1.01 1.012 1.114 1.05 0.944 0.773 0.622 0.561
3096.596 0.494 0.45 0.31 0.3 0.41 0.39 0.39 0.36 0.38 0.46
3115.889 0.37 0.41 0.635 0.659 0.701 0.785 0.767 0.748 0.804 0.942
3135.182 0.856 0.685 0.701 0.771 0.878 0.767 0.573 0.596 0.591 0.507
3154.476 0.555 0.692 0.749 0.746 0.671 0.55 0.517 0.522 0.644 0.653
3173.769 0.42 0.3 0.21 0.25 0.27 0.19 0.18 0.21 0.25 0.32
3193.063 0.3 0.23 0.18 0.15 0.2 0.25 0.22 0.2 0.15 0.14
3212.356 0.15 0.24 0.35 0.31 0.34 0.28 0.12 0.07 0.05 0.12
3231.650 0.19 0.16 0.25 0.25 0.18 0.07 0 0.1 0.12 0.15
3250.943 0.12 0.05 0.04 0.15 0.24 0.23 0.2 0.26 0.28 0.32
3270.236 0.34 0.25 0.27 0.29 0.2 0.16 0.19 0.3 0.31 0.21
3289.530 0.3 0.39 0.33 0.23 0.34 0.39 0.29 0.29 0.29 0.32
3308.823 0.39 0.4 0.42 0.34 0.46 0.573 0.492 0.4 0.36 0.527
3328.117 0.582 0.562 0.515 0.47 0.502 0.577 0.633 0.568 0.632 0.599
3347.410 0.617 0.758 0.723 0.871 0.939 0.957 1.094 1.126 1.219 1.3892
3366.704 1.57629 1.7919 2.0691 2.3241 2.69 3.1 3.52 4.01 4.72 5.69
3385.997 6.84 8.12 9.63 11.71 14.11 16.63 19.13 21.49 23.39 24.52
3405.290 24.79 24.48 23.69 22.39 20.9 19.38 17.41 15.07 12.88 10.65
3424.584 8.54 6.83 5.51 4.61 3.8 3.27 3.09 3.01 2.9 2.79
3443.877 2.74 2.85 3 2.99 3.03 3.15 3.25 3.43 3.63 3.83
3463.171 4.19 4.6 5.07 5.65 6.24 6.89 7.71 8.58 9.58 10.91
3482.464 12.28 13.81 15.64 17.62 19.73 21.89 24.24 26.43 28.08 29.02
3501.758 29.26 29.02 28.28 27.3 26.23 25.08 23.79 22.22 20.35 18.27
3521.051 16.11 13.86 11.79 10.03 8.39 6.9 5.8 4.97 4.26 3.68
3540.344 3.32 3.03 2.76 2.68 2.53 2.1489 1.9888 1.963 1.8256 1.73
3559.638 1.7082 1.6306 1.5993 1.6131 1.55431 1.50067 1.398 1.325 1.4243 1.3899
3578.931 1.29 1.205 1.059 1.046 1.118 1.049 1.018 1.11 1.05 0.968
3598.225 1.066 1.045 0.966 1.004 1.015 0.955 0.845 0.847 0.964 0.991
3617.518 0.804 0.744 0.884 0.98 0.978 0.927 0.919 0.903 0.905 0.992
3636.812 0.994 0.893 0.902 1.022 0.968 0.909 0.894 0.868 0.895 0.972
3656.105 0.977 0.855 0.883 0.948 0.978 0.982 1.013 1.003 0.988 1.031
3675.398 1.04 1.023 0.957 0.941 1.007 1.068 1.033 0.993 1.036 1.136
3694.692 1.182 1.073 1.047 1.126 1.14 1.114 1.01 0.935 1.028 1.046
3713.985 0.877 0.9 0.987 1.024 1.06 0.968 0.868 0.958 1.032 1.011
3733.279 1.008 0.916 0.916 0.966 1.011 0.999 0.885 0.856 0.877 0.853
3752.572 0.844 0.955 0.947 0.951 1.01 0.951 0.954 0.945 0.961 0.976
3771.866 0.903 0.929 1.007 1.105 1.02 0.894 1.013 1.117 1.101 1.044
3791.159 1.04 1.032 1.06 1.06 0.999 1.053 1.105 1.065 1.09 1.139
3810.452 1.115 1.086 1.111 1.193 1.241 1.355 1.365 1.233 1.231 1.31
3829.746 1.338 1.302 1.295 1.257 1.329 1.4318 1.354 1.288 1.4112 1.55763
3849.039 1.56855 1.6188 1.6439 1.6661 1.6792 1.7354 1.8099 1.786 1.7186 1.6202
3868.333 1.6234 1.6848 1.7101 1.5953 1.51029 1.55216 1.6636 1.6531 1.55191 1.54119
3887.626 1.48783 1.4455 1.354 1.257 1.21 1.29 1.327 1.25 1.243 1.22
3906.920 1.182 1.184 1.247 1.188 1.15 1.147 1.114 1.096 1.077 1.085
3926.213 1.105 1.2 1.176 1.109 1.159 1.176 1.189 1.198 1.164 1.245
3945.506 1.344 1.316 1.32 1.4226 1.4194 1.4032 1.4517 1.4566 1.48191 1.4529
3964.800 1.4434 1.48152 1.4617 1.372 1.325 1.332 1.347 1.266 1.159 1.125
3984.093 1.129 1.072 1.004 1.035 1.003 0.903 0.91 0.978 1.041
##END=
