##TITLE=1,3,5-Tri-isopropylbenzene
##JCAMP-DX=4.24
##DATA TYPE=INFRARED SPECTRUM
##ORIGIN=NIST Mass Spectrometry Data Center
##OWNER=NIST Standard Reference Data Program
Collection (C) 2018 copyright by the U.S. Secretary of Commerce
on behalf of the United States of America. All rights reserved.
##CAS REGISTRY NO=717-74-8
##MOLFORM=C 15 H 24
##$NIST SOURCE=MSDC-IR
##SPECTROMETER/DATA SYSTEM=HP-GC/MS/IRD
##STATE=gas
##XUNITS=1/CM
##YUNITS=ABSORBANCE
##XFACTOR=1.0
##YFACTOR=0.000004800
##DELTAX=4.0
##FIRSTX=550.0
##LASTX=3846.0
##FIRSTY=0.000374
##MAXX=3846
##MINX=550
##MAXY=0.048
##MINY=0
##NPOINTS=825
##XYDATA=(X++(Y..Y))
550.0 78 58 45 35 49 59 60 60 66 62
590.0 46 45 53 50 30 18 26 36 41 45
630.0 60 58 37 42 44 50 53 53 45 41
670.0 41 28 39 38 55 87 119 162 283 491
710.0 763 865 630 375 199 86 65 63 56 50
750.0 51 39 33 40 42 47 46 29 33 48
790.0 41 42 51 65 90 114 130 141 145 146
830.0 124 91 72 67 73 95 139 251 443 698
870.0 844 682 429 245 152 122 102 94 100 115
910.0 137 176 249 351 447 505 528 508 443 341
950.0 233 157 111 95 89 88 89 82 79 72
990.0 69 73 76 85 99 108 100 96 92 88
1030.0 83 78 74 70 75 89 105 120 126 125
1070.0 126 124 118 123 142 167 192 219 216 174
1110.0 138 118 100 87 78 74 67 48 44 51
1150.0 51 45 50 59 80 125 193 299 413 477
1190.0 448 342 224 133 85 70 65 59 68 81
1230.0 84 100 132 167 180 169 143 131 135 155
1270.0 167 155 148 155 190 225 255 333 474 645
1310.0 754 728 581 420 333 283 311 421 383 315
1350.0 333 370 507 694 742 698 641 591 633 764
1390.0 746 632 490 333 292 272 329 463 457 435
1430.0 499 667 765 765 916 1035 1267 1433 1387 1410
1470.0 1401 1254 857 549 500 484 398 356 339 524
1510.0 568 421 446 456 366 298 280 338 400 320
1550.0 254 303 409 293 203 253 330 432 536 748
1590.0 1031 1338 1552 1533 1237 820 522 361 261 193
1630.0 145 196 178 138 185 267 290 154 107 133
1670.0 171 184 178 256 251 142 194 306 266 159
1710.0 121 219 264 136 95 207 293 219 196 270
1750.0 353 314 265 242 262 288 218 158 165 146
1790.0 159 151 134 153 88 71 79 72 86 112
1830.0 100 67 53 114 134 66 34 42 51 86
1870.0 93 41 35 31 41 57 44 33 22 30
1910.0 31 37 63 60 31 16 16 26 47 33
1950.0 10 16 17 16 31 27 18 21 16 23
1990.0 47 43 21 17 20 18 26 33 21 15
2030.0 14 16 22 24 18 14 13 12 19 23
2070.0 16 11 9 8 13 18 15 11 16 17
2110.0 14 16 15 12 14 17 20 21 18 16
2150.0 13 13 16 19 16 19 22 20 19 19
2190.0 18 21 24 26 23 21 22 19 20 23
2230.0 27 26 24 22 20 22 25 25 25 25
2270.0 21 21 22 21 22 27 33 37 39 40
2310.0 41 45 50 50 49 45 41 36 38 38
2350.0 42 47 50 56 64 65 58 48 40 35
2390.0 30 26 25 22 19 20 17 17 16 14
2430.0 17 18 19 22 20 18 20 24 25 27
2470.0 27 22 24 22 21 22 21 17 18 16
2510.0 14 20 20 16 19 23 23 26 23 22
2550.0 26 24 24 30 33 34 37 41 44 51
2590.0 61 61 62 59 49 48 48 44 40 35
2630.0 33 35 36 36 35 34 34 37 40 38
2670.0 34 33 35 34 32 36 42 40 38 45
2710.0 56 65 74 87 98 105 105 97 90 92
2750.0 97 101 105 112 118 114 106 107 104 105
2790.0 108 110 122 136 147 164 180 194 208 220
2830.0 238 254 278 323 392 483 587 718 895 1155
2870.0 1540 1972 2298 2391 2297 2209 2234 2336 2411 2405
2910.0 2336 2261 2235 2309 2506 2817 3162 3383 3414 3362
2950.0 3495 4289 6147 8472 10000 9595 7274 4668 2861 1914
2990.0 1512 1283 1098 939 824 755 729 720 719 702
3030.0 658 608 562 535 516 492 464 429 387 338
3070.0 294 252 223 200 180 170 169 162 149 141
3110.0 135 124 109 102 95 88 87 89 83 77
3150.0 83 90 91 97 101 104 109 109 112 116
3190.0 118 115 107 106 104 93 89 81 74 71
3230.0 70 59 47 46 42 37 37 33 33 35
3270.0 34 30 31 32 26 21 21 19 21 23
3310.0 21 20 20 22 21 15 21 25 18 13
3350.0 9 12 17 16 14 14 13 16 14 8
3390.0 12 21 20 10 6 8 7 12 18 7
3430.0 7 12 15 23 25 7 7 21 23 11
3470.0 6 6 23 44 24 3 3 34 72 51
3510.0 28 10 11 77 98 31 20 21 51 116
3550.0 67 33 33 72 197 147 22 17 49 158
3590.0 159 90 70 42 105 170 140 132 71 136
3630.0 194 60 15 16 123 188 102 43 3 29
3670.0 114 146 96 22 62 93 30 24 40 36
3710.0 103 115 69 128 148 120 235 192 185 241
3750.0 184 112 44 31 36 36 0 2 2 2
3790.0 1 10 49 75 56 23 50 99 84 49
3830.0 47 96 143 108 41
##END=
