##TITLE=N-Pentafluoropropionylimidazole
##JCAMP-DX=4.24
##DATA TYPE=INFRARED SPECTRUM
##ORIGIN=EPA-IR VAPOR PHASE LIBRARY
##OWNER=SRD/NIST
Collection (C) 2018 copyright by the U.S. Secretary of Commerce
on behalf of the United States of America. All rights reserved.
##CAS REGISTRY NO=71735-32-5
##MOLFORM=C 6 H 3 F 5 N 2 O
##$NIST SOURCE=MSDC-IR
##STATE=gas
##XUNITS=1/CM
##YUNITS=ABSORBANCE
##XFACTOR=1.
##YFACTOR=0.001
##DELTAX=1.92934
##FIRSTX=549.9
##LASTX=3999.5
##FIRSTY=6.94
##MAXX=3999.53
##MINX=549.863
##MAXY=0.20945
##MINY=0
##NPOINTS=1789
##XYDATA=(X++(Y..Y))
549.863 6.94 6.49 6.19 5.95 5.93 6.03 6.02 6.1 6.12 6
569.156 6.01 6.03 6.07 6.11 6.15 6.33 6.33 6.31 6.58 6.84
588.450 7.15 7.45 7.64 8.1 8.54 8.82 9.29 9.71 9.9 10.15
607.743 10.37 10.29 10.05 9.84 9.62 9.53 9.64 9.99 10.83 12.14
627.037 13.73 15.7 17.89 19.96 21.83 23.17 23.05 21.57 19.66 17.47
646.330 15.18 12.98 11 9.49 8.35 7.61 7.29 7.32 7.65 8.09
665.624 8.63 9.21 9.56 9.75 9.76 9.49 9 8.44 7.79 7.11
684.917 6.67 6.38 6.17 6.09 6.1 6.15 6.19 6.32 6.5 6.76
704.210 7.17 7.68 8.54 9.66 11.05 12.91 15.16 17.93 21.62 25.89
723.504 30.4 35.23 40.2 45.37 51.5 58.46 65.16 69.29 69.53 67.92
742.797 65.05 61.38 55.04 45.28 36.16 29.85 25.68 22.33 19.13 16.11
762.091 13.4 11.02 9.09 7.65 6.62 5.85 5.27 4.9 4.63 4.45
781.384 4.33 4.24 4.25 4.26 4.31 4.41 4.55 4.7 4.91 5.3
800.678 5.79 6.54 7.49 8.59 9.95 11.49 13.05 14.66 16.32 17.59
819.971 18.06 18.25 18.7 19.56 21.14 23.73 27.63 32.85 39.11 45.63
839.264 51.37 55.74 58.38 58.92 57.31 53.68 48.48 42.94 38.35 35.54
858.558 34.92 36.45 39.65 43.72 47.86 51.41 53.89 54.81 53.91 51.45
877.851 48.13 44.44 40.27 35.3 30.96 27.66 24.51 21.91 18.47 14.05
897.145 10.39 8.09 6.66 5.63 4.91 4.36 3.92 3.64 3.46 3.277
916.438 3.1744 3.1339 3.0688 3.0236 2.9995 2.9542 2.9604 2.9626 2.9736 2.9999
935.732 3.0428 3.0648 3.1391 3.2301 3.2313 3.2728 3.3079 3.3561 3.42 3.49
955.025 3.59 3.67 3.76 3.87 4 4.14 4.3 4.49 4.73 5.04
974.318 5.36 5.8 6.41 7.21 8.12 9.11 10.34 11.63 12.87 14.02
993.612 14.92 15.53 15.81 15.71 15.26 14.52 13.53 12.4 11.34 10.33
1012.905 9.5 8.89 8.53 8.44 8.54 8.99 9.81 11.06 12.99 15.78
1032.199 19.83 25.66 33.77 44.27 56.52 69.23 81.33 92.13 100.4 105.13
1051.492 106.35 103.29 95.62 85.24 73.53 61.45 50.68 41.37 33.6 28.76
1070.786 27.29 28.41 31.37 35.7 41.09 47.2 53.36 58.92 63.4 66.4
1090.079 67.27 65.81 62.28 57.64 53.06 48.2 43.97 41.15 39.35 38.67
1109.372 38.54 38.08 36.79 35.06 33.54 32.28 31.07 29.85 28.53 27.46
1128.666 26.94 27 27.68 29.01 31.04 33.76 37.17 41.1 45.52 50.33
1147.959 55.35 60.87 66.37 71.87 78.07 84.97 92.52 100.55 108.76 116.63
1167.253 123.46 128.38 131 131.33 129.49 126.27 122.04 117.45 113.16 110.17
1186.546 109.56 111.01 114.3 118.82 124.08 129.41 133.65 135.86 135.63 133.33
1205.840 129.38 124.6 120.25 117.55 117.52 120.47 126.31 135.25 146.5 159.03
1225.133 171.89 184.16 194.8 203 207.78 209.45 207.26 201.07 191.48 178.09
1244.426 161.94 144.3 126.42 109.94 95.99 84.47 74.9 66.85 59.86 53.86
1263.720 48.86 44.61 40.96 38.11 36.15 34.88 34.37 34.78 36.36 39.23
1283.013 43.5 49.24 56.44 65.22 75.49 87.18 99.93 112.96 125.55 136.35
1302.307 144.23 148.49 148.53 144.35 136.16 124.49 110.73 96.52 83.04 71.13
1321.600 61.3 53.98 49.34 46.92 45.71 44.93 44.25 43.36 42.16 40.73
1340.894 39.11 37.36 35.59 33.84 32.1 30.31 28.5 26.72 25.03 23.52
1360.187 22.29 21.57 21.58 22.53 24.7 28.22 33.22 39.79 47.88 57.11
1379.480 67.17 77.31 86.78 94.5 99.82 102.32 101.59 97.79 91.08 82.32
1398.774 72.41 62.32 53.2 45.05 38.01 31.91 26.73 22.47 19.17 16.67
1418.067 14.84 13.49 12.61 12.01 11.59 11.33 11.18 11.15 11.26 11.5
1437.361 11.92 12.47 13.18 13.93 14.75 15.6 16.28 16.78 17.34 18.04
1456.654 19.03 20.47 22.39 24.98 28.29 32.19 35.97 39.22 42.04 44.87
1475.948 47.6 50.24 52.27 53.11 52.78 52.07 50.94 48.91 45.68 40.97
1495.241 35.46 30.48 26.53 23.23 20.37 17.82 15.44 13.36 11.69 10.37
1514.534 9.36 8.55 8.05 7.72 7.56 7.59 7.74 8.12 8.75 9.59
1533.828 10.58 11.56 12.14 12.27 12.13 11.71 10.98 10.03 8.9 7.81
1553.121 7.07 6.66 6.55 6.49 6.43 6.44 6.33 6.1 5.84 5.5
1572.415 5.16 4.91 4.73 4.68 4.74 4.86 5.06 5.44 5.9 6.34
1591.708 6.7 6.92 7.08 7.1 7.04 6.86 6.59 6.35 6.22 6.22
1611.002 6.32 6.54 6.79 7.02 7.21 7.37 7.52 7.68 7.85 7.91
1630.295 7.84 7.68 7.45 7.05 6.57 6.1 5.6 5.13 4.76 4.51
1649.588 4.43 4.41 4.41 4.47 4.56 4.71 4.84 4.93 5.07 5.15
1668.882 5.21 5.29 5.34 5.35 5.41 5.46 5.58 5.77 5.98 6.2
1688.175 6.46 6.72 6.88 6.94 7.03 7.13 7.13 7.13 7.17 7.25
1707.469 7.38 7.52 7.76 8.03 8.39 8.84 9.42 10.2 11.21 12.43
1726.762 13.94 15.81 18.09 20.66 23.77 27.3 31.11 35.5 40.27 45.68
1746.056 51.84 59.09 67.86 78.92 92.29 107.97 125.54 142.05 155.21 163.14
1765.349 165.19 161.84 152.84 137.24 114.46 90.53 69.31 52.36 39.47 29.93
1784.642 23.02 18.07 14.69 12.29 10.59 9.36 8.46 7.76 7.13 6.56
1803.936 6.13 5.73 5.36 5.03 4.78 4.56 4.35 4.19 4.07 4.02
1823.229 3.99 3.89 3.79 3.77 3.82 3.86 3.85 3.78 3.75 3.69
1842.523 3.58 3.45 3.36 3.2541 3.108 3.0153 2.975 2.8885 2.8117 2.7992
1861.816 2.7993 2.7864 2.7383 2.646 2.5981 2.5758 2.5184 2.4752 2.43065 2.43369
1881.110 2.45935 2.37223 2.3058 2.3417 2.36324 2.36453 2.3402 2.3351 2.3285 2.2657
1900.403 2.25 2.239 2.181 2.152 2.161 2.167 2.14 2.129 2.158 2.188
1919.696 2.223 2.22 2.213 2.226 2.2662 2.3 2.3045 2.3334 2.3382 2.3436
1938.990 2.36925 2.3374 2.3145 2.3341 2.3381 2.299 2.2971 2.3316 2.3258 2.2955
1958.283 2.2935 2.2726 2.232 2.211 2.226 2.2681 2.238 2.2 2.204 2.212
1977.577 2.225 2.223 2.183 2.125 2.065 2.008 1.984 1.947 1.896 1.877
1996.870 1.825 1.732 1.688 1.67 1.662 1.636 1.598 1.54 1.5 1.546
2016.164 1.568 1.534 1.505 1.522 1.52 1.518 1.587 1.616 1.597 1.632
2035.457 1.677 1.67 1.658 1.678 1.691 1.697 1.721 1.742 1.714 1.679
2054.750 1.679 1.694 1.659 1.654 1.707 1.719 1.697 1.66 1.649 1.669
2074.044 1.663 1.629 1.642 1.652 1.641 1.627 1.6 1.577 1.578 1.603
2093.337 1.602 1.571 1.536 1.513 1.521 1.536 1.541 1.533 1.552 1.559
2112.631 1.52 1.527 1.568 1.561 1.567 1.584 1.566 1.57 1.603 1.592
2131.924 1.581 1.621 1.639 1.651 1.629 1.622 1.662 1.668 1.672 1.66
2151.218 1.65 1.637 1.605 1.635 1.63 1.572 1.555 1.536 1.524 1.528
2170.511 1.505 1.474 1.444 1.441 1.464 1.48 1.496 1.494 1.495 1.507
2189.804 1.515 1.512 1.511 1.522 1.515 1.488 1.493 1.512 1.47 1.423
2209.098 1.443 1.476 1.467 1.423 1.399 1.41 1.416 1.418 1.455 1.496
2228.391 1.478 1.463 1.5 1.515 1.508 1.517 1.503 1.543 1.6 1.575
2247.685 1.577 1.594 1.582 1.584 1.61 1.642 1.641 1.648 1.649 1.645
2266.978 1.664 1.668 1.646 1.643 1.643 1.641 1.658 1.633 1.634 1.658
2286.272 1.654 1.674 1.675 1.694 1.761 1.768 1.757 1.75 1.772 1.772
2305.565 1.8 1.877 1.879 1.873 1.918 1.949 1.916 1.896 1.916 1.896
2324.858 1.863 1.856 1.812 1.79 1.783 1.788 1.808 1.807 1.784 1.78
2344.152 1.761 1.752 1.735 1.695 1.675 1.677 1.726 1.733 1.733 1.758
2363.445 1.784 1.835 1.89 1.918 1.958 2.003 2.003 1.964 1.969 2.004
2382.739 2.012 2.011 2.039 2.033 2.038 2.063 1.988 1.958 2.003 2.008
2402.032 2.019 2.019 2.016 2.02 1.996 2.008 2.004 1.953 1.946 1.961
2421.326 1.971 1.959 1.942 1.947 1.948 1.913 1.888 1.885 1.845 1.857
2440.619 1.884 1.852 1.828 1.876 1.898 1.88 1.859 1.869 1.941 1.962
2459.912 1.97 2.015 2.001 1.993 2.063 2.097 2.076 2.088 2.135 2.108
2479.206 2.095 2.137 2.136 2.112 2.115 2.169 2.234 2.228 2.231 2.241
2498.499 2.235 2.209 2.182 2.215 2.195 2.144 2.102 2.049 2.058 2.092
2517.793 2.098 2.113 2.11 2.097 2.114 2.122 2.096 2.003 1.961 1.983
2537.086 1.956 1.942 1.919 1.872 1.834 1.833 1.821 1.79 1.811 1.829
2556.380 1.778 1.805 1.814 1.77 1.775 1.723 1.685 1.668 1.673 1.706
2575.673 1.681 1.626 1.585 1.563 1.545 1.501 1.491 1.436 1.36 1.371
2594.966 1.34 1.33 1.384 1.35 1.29 1.24 1.21 1.21 1.2 1.2
2614.260 1.17 1.12 1.11 1.17 1.2 1.17 1.13 1.15 1.12 1.1
2633.553 1.14 1.14 1.1 1.08 1.11 1.13 1.07 1.03 1.02 1
2652.847 0.98 0.96 0.96 0.94 0.94 0.9 0.87 0.89 0.92 0.95
2672.140 0.93 0.86 0.85 0.91 0.93 0.88 0.89 1 1.04 0.97
2691.434 0.9 0.94 0.93 0.95 0.95 0.89 0.9 0.9 0.84 0.82
2710.727 0.83 0.84 0.82 0.8 0.81 0.76 0.75 0.8 0.77 0.72
2730.020 0.72 0.75 0.81 0.83 0.72 0.67 0.74 0.77 0.79 0.86
2749.314 0.92 0.89 0.89 0.94 0.92 0.89 0.87 0.89 0.95 1
2768.607 1.04 1.07 1.04 0.98 0.96 0.97 0.99 0.95 0.92 0.88
2787.901 0.87 0.86 0.81 0.81 0.78 0.69 0.64 0.62 0.62 0.58
2807.194 0.55 0.53 0.5 0.5 0.52 0.48 0.41 0.42 0.45 0.48
2826.488 0.42 0.33 0.34 0.35 0.34 0.29 0.27 0.34 0.36 0.31
2845.781 0.31 0.35 0.33 0.3 0.25 0.32 0.41 0.36 0.32 0.3
2865.074 0.28 0.22 0.16 0.2 0.27 0.34 0.36 0.28 0.21 0.2
2884.368 0.21 0.23 0.26 0.28 0.27 0.27 0.24 0.28 0.32 0.3
2903.661 0.3 0.31 0.26 0.31 0.36 0.29 0.32 0.39 0.41 0.41
2922.955 0.41 0.47 0.49 0.48 0.52 0.55 0.52 0.48 0.47 0.47
2942.248 0.56 0.67 0.64 0.59 0.66 0.64 0.65 0.78 0.62 0.45
2961.542 0.43 0.44 0.47 0.39 0.37 0.35 0.25 0.2 0.24 0.25
2980.835 0.18 0.16 0.14 0.19 0.24 0.23 0.28 0.34 0.34 0.29
3000.128 0.29 0.26 0.28 0.25 0.18 0.24 0.26 0.17 0.15 0.17
3019.422 0.13 0.18 0.22 0.21 0.12 0 0.03 0.04 0.03 0.06
3038.715 0.16 0.19 0.18 0.29 0.24 0.21 0.27 0.3 0.38 0.43
3058.009 0.49 0.53 0.44 0.51 0.67 0.61 0.5 0.51 0.54 0.53
3077.302 0.5 0.4 0.19 0.07 0.12 0.18 0.13 0.02 0.07 0.13
3096.596 0.16 0.15 0.16 0.18 0.17 0.13 0.15 0.2 0.23 0.4
3115.889 0.52 0.53 0.57 0.73 1.01 1.35 1.707 2.043 2.4145 2.8161
3135.182 3.2097 3.54 3.69 3.81 3.91 3.85 3.54 3.2457 3.1745 2.9905
3154.476 2.7749 2.6929 2.6957 2.7426 2.9659 3.2053 3.3189 3.59 3.88 3.88
3173.769 3.65 3.59 3.47 3.1435 2.9001 2.7374 2.43734 2.199 2.224 2.207
3193.063 2.045 1.822 1.714 1.604 1.399 1.08 0.77 0.61 0.47 0.23
3212.356 0.28 0.4 0.28 0.34 0.42 0.29 0.19 0.29 0.47 0.46
3231.650 0.35 0.36 0.34 0.34 0.29 0.18 0.19 0.22 0.34 0.38
3250.943 0.4 0.47 0.37 0.33 0.36 0.35 0.41 0.43 0.35 0.4
3270.236 0.45 0.4 0.41 0.36 0.4 0.47 0.44 0.38 0.28 0.26
3289.530 0.31 0.37 0.4 0.49 0.48 0.43 0.49 0.58 0.5 0.44
3308.823 0.51 0.48 0.4 0.47 0.6 0.59 0.52 0.49 0.53 0.6
3328.117 0.62 0.66 0.69 0.7 0.66 0.58 0.6 0.57 0.6 0.68
3347.410 0.64 0.61 0.63 0.67 0.6 0.62 0.78 0.71 0.72 0.71
3366.704 0.61 0.71 0.75 0.67 0.75 0.67 0.59 0.75 0.85 0.9
3385.997 0.91 0.86 0.74 0.69 0.73 0.81 0.92 0.93 0.93 1.02
3405.290 1 0.99 1.01 1.03 1.11 1.09 0.9 0.79 0.87 0.83
3424.584 0.83 0.89 0.91 1.06 1.1 1.02 1.06 1.01 0.9 0.93
3443.877 1.06 1.13 1.13 1.13 1.09 1.07 1.1 1.1 1.12 1.18
3463.171 1.23 1.32 1.42 1.32 1.29 1.4 1.481 1.556 1.61 1.688
3482.464 1.754 1.705 1.686 1.768 1.932 2.142 2.213 2.2672 2.38943 2.5002
3501.758 2.6194 2.714 2.8152 2.8032 2.7541 2.7951 2.8008 2.7477 2.6652 2.5678
3521.051 2.3432 2.077 1.92 1.816 1.74 1.667 1.658 1.572 1.436 1.406
3540.344 1.33 1.28 1.32 1.3 1.23 1.24 1.31 1.32 1.21 1.22
3559.638 1.371 1.365 1.31 1.22 1.16 1.18 1.22 1.33 1.29 1.18
3578.931 1.15 1.22 1.24 1.16 1.21 1.21 1.22 1.29 1.25 1.13
3598.225 1.17 1.23 1.19 1.16 1.22 1.23 1.14 1.18 1.18 1.17
3617.518 1.27 1.31 1.24 1.3 1.28 1.2 1.21 1.2 1.18 1.15
3636.812 1.18 1.25 1.21 1.13 1.19 1.19 1.11 1.09 1.18 1.25
3656.105 1.26 1.28 1.23 1.19 1.16 1.21 1.34 1.26 1.2 1.17
3675.398 1.12 1.28 1.35 1.3 1.33 1.34 1.27 1.32 1.32 1.28
3694.692 1.25 1.2 1.364 1.425 1.34 1.368 1.395 1.36 1.35 1.33
3713.985 1.33 1.413 1.417 1.384 1.27 1.18 1.24 1.3 1.3 1.24
3733.279 1.21 1.31 1.3 1.23 1.35 1.35 1.13 1.11 1.31 1.29
3752.572 1.19 1.26 1.3 1.27 1.23 1.25 1.32 1.32 1.31 1.23
3771.866 1.2 1.24 1.33 1.35 1.24 1.22 1.22 1.28 1.34 1.28
3791.159 1.29 1.382 1.383 1.33 1.27 1.24 1.24 1.26 1.25 1.18
3810.452 1.22 1.28 1.28 1.32 1.31 1.2 1.22 1.34 1.439 1.432
3829.746 1.33 1.28 1.32 1.27 1.23 1.25 1.24 1.34 1.27 1.2
3849.039 1.28 1.29 1.18 1.15 1.19 1.12 1.01 1.16 1.3 1.2
3868.333 1.24 1.29 1.25 1.27 1.27 1.29 1.27 1.27 1.29 1.17
3887.626 1.16 1.24 1.29 1.35 1.29 1.2 1.21 1.19 1.17 1.24
3906.920 1.28 1.29 1.34 1.32 1.18 1.16 1.18 1.2 1.18 1.1
3926.213 1.11 1.17 1.26 1.26 1.2 1.19 1.17 1.17 1.17 1.13
3945.506 1.19 1.22 1.29 1.34 1.26 1.25 1.2 1.17 1.24 1.27
3964.800 1.24 1.2 1.2 1.22 1.31 1.35 1.29 1.23 1.14 1.17
3984.093 1.24 1.26 1.21 1.14 1.19 1.18 1.18 1.17 1.15
##END=
