##TITLE=5-Chloro-3-phenyl-2,1-benzisoxazole
##JCAMP-DX=4.24
##DATA TYPE=INFRARED SPECTRUM
##ORIGIN=EPA-IR VAPOR PHASE LIBRARY
##OWNER=SRD/NIST
Collection (C) 2018 copyright by the U.S. Secretary of Commerce
on behalf of the United States of America. All rights reserved.
##CAS REGISTRY NO=719-64-2
##MOLFORM=C 13 H 8 Cl N O
##$NIST SOURCE=MSDC-IR
##STATE=gas
##XUNITS=1/CM
##YUNITS=ABSORBANCE
##XFACTOR=1.
##YFACTOR=0.001
##DELTAX=1.92898
##FIRSTX=549.8
##LASTX=4000.7
##FIRSTY=2.601
##MAXX=4000.7
##MINX=549.759
##MAXY=0.021351
##MINY=0
##NPOINTS=1790
##XYDATA=(X++(Y..Y))
549.759 2.601 2.291 2.071 1.821 1.841 1.711 1.711 1.811 1.381 1.441
569.049 2.151 2.271 2.131 2.221 2.111 2.241 2.291 2.111 2.071 1.971
588.339 1.511 1.1192 0.8709 0.6763 0.5836 0.5513 0.6097 0.546 0.6122 0.7
607.628 0.4788 0.39076 0.6872 0.9081 0.9298 0.8439 0.8199 0.8258 0.9133 0.866
626.918 0.8785 1.0134 0.8576 0.6055 0.7829 1.1113 1.0528 1.0561 0.9741 1.196
646.208 1.611 1.881 2.311 2.971 4.161 5.981 8.261 10.451 11.681 12.061
665.498 11.801 10.461 8.631 6.791 5.561 5.261 5.331 5.631 6.241 7.161
684.787 8.241 9.351 10.081 9.821 8.961 8.201 7.201 6.131 5.381 4.721
704.077 4.191 3.971 3.971 3.951 4.031 4.061 4.141 4.481 4.751 4.991
723.367 5.241 5.441 5.761 6.041 6.171 6.301 6.181 5.881 5.871 5.471
742.657 4.531 3.981 3.761 3.601 3.641 4.021 4.821 6.181 8.011 10.061
761.947 12.211 14.901 17.681 19.671 21.021 21.351 20.591 19.121 16.541 12.681
781.236 9.001 6.661 5.321 4.711 4.401 4.601 5.471 6.901 8.631 10.251
800.526 11.891 14.391 15.061 11.991 9.561 8.141 6.171 4.251 2.761 2.121
819.816 1.701 1.381 1.2907 1.1457 1.1399 1.331 1.431 1.431 1.561 1.711
839.106 1.851 2.191 2.651 3.001 3.361 3.721 3.951 4.101 3.891 3.231
858.395 2.981 2.781 2.361 1.961 1.531 1.441 1.371 1.3133 1.3134 1.3224
877.685 1.1858 1.1006 0.9455 0.8141 0.9897 1.1216 1.1292 1.1664 1.1646 1.2465
896.975 1.541 1.591 1.771 2.221 2.371 2.571 3.081 3.611 4.071 4.721
916.265 5.531 6.401 7.591 9.281 11.011 11.811 11.561 11.001 9.741 7.841
935.555 5.831 4.231 3.261 2.631 2.291 2.061 2.001 1.841 1.551 1.561
954.844 1.601 1.441 1.391 1.461 1.481 1.3112 1.401 1.531 1.741 2.111
974.134 2.371 2.651 2.931 2.981 2.661 2.421 2.041 1.691 1.611 1.481
993.424 1.461 1.541 1.621 1.711 1.681 1.521 1.481 1.481 1.441 1.2166
1012.714 1.215 1.661 1.791 1.801 1.891 2.221 2.661 2.711 2.541 2.321
1032.003 2.341 2.661 2.861 2.971 3.491 4.271 5.171 6.191 7.371 8.521
1051.293 9.011 8.891 8.421 7.341 6.061 4.871 3.461 2.631 2.261 1.831
1070.583 1.951 2.011 1.901 1.521 0.8114 0.5213 0.7266 0.8593 1.0966 1.381
1089.873 1.0893 1.0229 1.1143 0.9557 1.0191 0.9682 0.36733 0.4773 0.8728 0.4833
1109.163 0.5454 1.2723 1.351 0.9285 1.0227 1.0512 0.9897 1.18 1.561 1.3207
1128.452 1.1189 1.671 1.711 1.831 2.351 2.501 2.561 2.351 2.141 2.101
1147.742 2.281 2.091 1.2719 1.0388 1.092 0.9108 1.0006 1.451 1.551 1.351
1167.032 1.2919 1.491 1.621 1.411 1.331 1.411 1.711 2.141 2.321 2.911
1186.322 3.871 4.711 5.161 6.001 7.031 7.281 7.521 7.301 6.711 6.101
1205.611 5.001 3.941 3.181 2.711 2.491 2.131 1.721 1.891 2.211 2.041
1224.901 2.041 2.291 2.501 2.441 2.381 2.621 2.681 2.311 2.181 2.701
1244.191 3.641 4.891 6.321 7.691 8.821 9.471 9.151 8.091 6.341 4.831
1263.481 3.861 2.971 2.251 1.871 1.901 1.971 1.851 1.681 1.571 1.371
1282.771 1.401 1.521 1.3242 1.0567 0.981 1.0518 0.9556 0.8547 0.8698 0.8506
1302.060 0.9655 1.1129 1.2312 1.381 1.451 1.391 1.401 1.441 1.451 1.431
1321.350 1.351 1.305 1.299 1.2928 1.322 1.441 1.521 1.621 1.931 2.201
1340.640 2.451 2.851 3.301 3.771 4.201 4.561 4.741 4.741 4.551 4.121
1359.930 3.571 3.031 2.471 1.931 1.631 1.511 1.381 1.341 1.3302 1.331
1379.219 1.2646 1.1788 1.1673 1.115 1.1086 1.0992 1.0667 1.0459 1.0292 1.0561
1398.509 1.1064 1.225 1.2819 1.3129 1.501 1.661 1.831 2.111 2.471 2.861
1417.799 3.341 4.011 4.761 5.501 6.261 6.951 7.441 7.681 7.651 7.351
1437.089 6.781 6.171 5.651 5.311 5.141 5.231 5.481 5.811 6.291 6.701
1456.378 7.011 7.241 7.211 6.911 6.441 5.901 5.231 4.481 3.851 3.391
1475.668 3.181 3.201 3.411 3.881 4.721 5.931 7.671 9.881 12.111 13.821
1494.958 14.571 14.361 13.391 11.761 9.771 8.221 7.431 7.311 7.701 8.161
1514.248 8.281 8.101 7.711 6.981 6.001 5.091 4.301 3.831 3.621 3.661
1533.538 3.971 4.501 5.141 6.181 7.791 9.721 11.541 12.931 13.661 13.491
1552.827 12.361 10.321 7.981 5.731 4.131 3.271 2.721 2.431 2.301 2.151
1572.117 2.001 1.961 1.911 1.871 1.801 1.801 1.741 1.631 1.641 1.611
1591.407 1.661 1.791 1.791 1.781 1.861 1.871 1.711 1.571 1.531 1.481
1610.697 1.471 1.491 1.441 1.551 1.871 2.161 2.551 3.011 3.411 3.831
1629.986 4.201 4.421 4.401 4.201 4.121 3.821 3.311 2.921 2.501 2.251
1649.276 2.041 1.731 1.391 1.2872 1.2639 1.2358 1.2569 1.2266 1.2203 1.2939
1668.566 1.2888 1.3089 1.391 1.421 1.501 1.591 1.601 1.481 1.411 1.471
1687.856 1.571 1.651 1.801 1.941 1.931 1.911 1.801 1.821 1.901 1.741
1707.146 1.581 1.451 1.361 1.282 1.1848 1.1402 1.1813 1.1499 1.1089 1.078
1726.435 1.0319 1.0518 1.055 0.9925 0.8787 0.9422 1.0341 1.0602 1.2238 1.361
1745.725 1.421 1.481 1.551 1.581 1.601 1.581 1.531 1.461 1.3278 1.192
1765.015 1.1054 0.9967 0.9107 0.895 0.9908 1.0491 0.9798 0.9173 0.89 0.8676
1784.305 0.8691 0.9526 1.0497 1.1027 1.1382 1.2116 1.2716 1.2954 1.3178 1.2708
1803.594 1.193 1.1403 1.1115 1.059 0.987 0.9995 1.0828 1.0813 1.0456 1.0728
1822.884 1.0469 0.9863 1.0011 1.0189 0.9937 0.9966 0.971 0.8767 0.8269 0.8375
1842.174 0.8439 0.7998 0.7283 0.7764 0.871 0.8306 0.7891 0.8321 0.8353 0.7926
1861.464 0.7853 0.7999 0.8192 0.8597 0.9022 0.9832 1.0089 1.0187 1.0774 1.1048
1880.754 1.1239 1.1041 1.06 1.0787 1.1519 1.2139 1.2617 1.341 1.381 1.421
1900.043 1.421 1.381 1.3243 1.371 1.471 1.461 1.3064 1.2065 1.2078 1.0683
1919.333 0.9047 0.8423 0.82 0.837 0.8753 0.8938 0.8784 0.8893 0.9283 0.9767
1938.623 1.0546 1.0995 1.1771 1.2643 1.2373 1.1043 1.0424 1.082 1.1242 1.1792
1957.913 1.2448 1.2905 1.351 1.351 1.2618 1.1816 1.1066 1.0387 0.9421 0.7894
1977.202 0.7427 0.7913 0.767 0.7023 0.7442 0.7749 0.735 0.7106 0.6657 0.6462
1996.492 0.6646 0.6773 0.6632 0.6206 0.6187 0.6057 0.5569 0.5582 0.6166 0.6317
2015.782 0.6363 0.6392 0.5939 0.5733 0.5999 0.5973 0.5934 0.6111 0.6538 0.6836
2035.072 0.6207 0.6034 0.6198 0.6468 0.7146 0.732 0.6691 0.6077 0.5616 0.5715
2054.362 0.5428 0.5578 0.6107 0.6056 0.6354 0.6514 0.6118 0.537 0.5277 0.5618
2073.651 0.5808 0.564 0.5388 0.5784 0.588 0.5683 0.587 0.5982 0.5708 0.529
2092.941 0.6128 0.6803 0.632 0.6024 0.6423 0.68 0.617 0.6067 0.6249 0.6427
2112.231 0.6905 0.6468 0.6154 0.6184 0.6176 0.5769 0.544 0.5638 0.4988 0.4794
2131.521 0.6089 0.643 0.5592 0.5306 0.5751 0.5939 0.5343 0.5356 0.5146 0.5205
2150.810 0.5441 0.5499 0.6023 0.6172 0.635 0.6164 0.5902 0.5354 0.5355 0.5582
2170.100 0.5744 0.5712 0.5051 0.5404 0.5692 0.63 0.6282 0.5299 0.5175 0.5696
2189.390 0.5634 0.4803 0.5034 0.5384 0.5135 0.5401 0.5328 0.524 0.5094 0.4778
2208.680 0.4697 0.494 0.5637 0.5682 0.5678 0.5746 0.5606 0.6924 0.7144 0.5819
2227.970 0.593 0.5993 0.6224 0.6712 0.6249 0.5996 0.5875 0.61 0.6587 0.5802
2247.259 0.4782 0.5585 0.6737 0.7186 0.7183 0.6944 0.6965 0.7201 0.7438 0.7377
2266.549 0.721 0.6974 0.6479 0.6696 0.7529 0.7648 0.7853 0.8187 0.7809 0.7886
2285.839 0.8045 0.7954 0.8161 0.7701 0.6937 0.7252 0.7843 0.7188 0.6704 0.6406
2305.129 0.6641 0.6717 0.6395 0.7099 0.6898 0.6887 0.7917 0.7931 0.7621 0.718
2324.418 0.6776 0.6638 0.6094 0.5871 0.6418 0.6592 0.6578 0.6454 0.6283 0.7451
2343.708 0.7824 0.6695 0.6144 0.6231 0.6479 0.6275 0.5915 0.6015 0.6345 0.589
2362.998 0.5539 0.6539 0.7016 0.6712 0.7194 0.7498 0.7556 0.725 0.7121 0.7358
2382.288 0.7003 0.6674 0.6553 0.6615 0.7221 0.7088 0.679 0.7383 0.693 0.6334
2401.578 0.6002 0.5616 0.5773 0.6031 0.5838 0.5317 0.5536 0.5951 0.5676 0.497
2420.867 0.5052 0.5641 0.5843 0.5828 0.6029 0.6053 0.5615 0.5479 0.5455 0.5766
2440.157 0.5526 0.5811 0.62 0.6351 0.683 0.638 0.6385 0.621 0.5684 0.5388
2459.447 0.5116 0.5324 0.5512 0.5904 0.5839 0.608 0.6206 0.5901 0.595 0.5965
2478.737 0.5966 0.5659 0.5346 0.5006 0.5072 0.5609 0.5822 0.6204 0.6616 0.7215
2498.026 0.7257 0.6777 0.6905 0.6886 0.6757 0.6433 0.5905 0.6044 0.6384 0.5897
2517.316 0.5815 0.6033 0.5856 0.6155 0.6182 0.6267 0.6533 0.6595 0.7026 0.683
2536.606 0.649 0.6768 0.691 0.7185 0.6381 0.621 0.7034 0.7199 0.7622 0.7472
2555.896 0.6992 0.6806 0.7355 0.7535 0.7419 0.7692 0.7009 0.6274 0.6483 0.6649
2575.186 0.6306 0.6429 0.6154 0.5873 0.6673 0.5922 0.5584 0.6632 0.6862 0.6881
2594.475 0.7262 0.6608 0.5639 0.5156 0.5516 0.723 0.7901 0.7224 0.637 0.5289
2613.765 0.4854 0.5265 0.5831 0.6181 0.5599 0.5074 0.5033 0.4395 0.4472 0.5076
2633.055 0.5881 0.6464 0.6667 0.6948 0.6705 0.5922 0.5754 0.6369 0.5817 0.5284
2652.345 0.616 0.6598 0.6408 0.6295 0.6606 0.6816 0.5696 0.512 0.561 0.6431
2671.634 0.69 0.6819 0.6482 0.6814 0.7088 0.6428 0.7284 0.8332 0.744 0.6984
2690.924 0.6564 0.6896 0.7851 0.6794 0.5496 0.5763 0.5869 0.6189 0.6322 0.6182
2710.214 0.532 0.4787 0.5799 0.5873 0.5376 0.4991 0.4686 0.4901 0.5176 0.4705
2729.504 0.442 0.4487 0.5379 0.521 0.4486 0.5295 0.5499 0.4755 0.491 0.5108
2748.794 0.4563 0.4091 0.413 0.5677 0.6332 0.6652 0.779 0.6405 0.6239 0.7267
2768.083 0.6996 0.8685 0.8817 0.6419 0.5927 0.6355 0.7093 0.7553 0.6708 0.633
2787.373 0.6347 0.5606 0.5024 0.4735 0.4795 0.5232 0.5541 0.5952 0.7066 0.7353
2806.663 0.5731 0.438 0.4126 0.42672 0.5024 0.5636 0.5311 0.5064 0.4937 0.5852
2825.953 0.5801 0.4944 0.5582 0.506 0.42979 0.4899 0.5259 0.5575 0.5684 0.597
2845.242 0.5779 0.5272 0.5908 0.6363 0.6112 0.6396 0.6642 0.6076 0.6047 0.5688
2864.532 0.5594 0.5691 0.4865 0.6039 0.7042 0.641 0.573 0.5325 0.6568 0.7021
2883.822 0.6355 0.5763 0.5946 0.5881 0.6563 0.6989 0.6455 0.6698 0.7725 0.7424
2903.112 0.6321 0.6567 0.6192 0.6406 0.6976 0.6308 0.6134 0.6911 0.6822 0.7099
2922.401 0.5936 0.5333 0.5679 0.5391 0.5208 0.517 0.5302 0.4645 0.5109 0.6083
2941.691 0.6464 0.5828 0.5327 0.5308 0.5499 0.604 0.6296 0.6265 0.6388 0.5903
2960.981 0.5504 0.542 0.4758 0.4356 0.4811 0.5852 0.6204 0.6469 0.7114 0.7681
2980.271 0.7164 0.6584 0.7674 0.8258 0.7818 0.7619 0.7665 0.785 0.8458 0.9409
2999.561 1.0389 0.9997 0.9682 1.0607 1.0339 1.0497 1.0472 1.0725 1.1842 1.289
3018.850 1.3187 1.2405 1.3148 1.431 1.491 1.781 2.071 2.111 2.231 2.311
3038.140 2.211 2.161 2.331 2.431 2.301 2.331 2.581 2.871 3.151 3.411
3057.430 3.701 4.071 4.561 5.011 5.511 6.071 6.441 6.701 6.791 6.651
3076.720 6.541 6.451 6.171 5.841 5.581 5.501 5.281 4.931 4.681 4.281
3096.009 3.781 3.331 3.111 2.881 2.531 2.371 2.181 1.911 1.911 1.771
3115.299 1.491 1.421 1.401 1.461 1.361 1.1358 1.0319 1.0327 1.0162 0.9395
3134.589 0.8103 0.7996 0.8477 0.6292 0.5477 0.7392 0.8669 0.7556 0.7518 0.8071
3153.879 0.7578 0.6312 0.5569 0.6378 0.7309 0.7889 0.6488 0.5036 0.4559 0.4685
3173.169 0.5707 0.6196 0.6059 0.4471 0.40961 0.5088 0.581 0.6065 0.5632 0.5928
3192.458 0.5582 0.4959 0.536 0.6703 0.6023 0.5681 0.63 0.41224 0.42124 0.5322
3211.748 0.4981 0.5929 0.5754 0.5519 0.6634 0.6889 0.4955 0.42895 0.5057 0.5921
3231.038 0.5737 0.337834 0.2758 0.35757 0.331572 0.37465 0.5484 0.5575 0.461 0.5015
3250.328 0.5591 0.4986 0.35949 0.39797 0.5723 0.4997 0.2557 0.2791 0.501 0.5209
3269.617 0.541 0.4689 0.3141 0.34336 0.39537 0.32384 0.3011 0.435 0.4575 0.34615
3288.907 0.3203 0.36994 0.4375 0.447 0.41467 0.4649 0.4882 0.40731 0.339231 0.4896
3308.197 0.5524 0.5049 0.5251 0.5374 0.42715 0.41883 0.538 0.4318 0.4591 0.4884
3327.487 0.41881 0.5177 0.5244 0.5644 0.6184 0.5219 0.4906 0.543 0.5376 0.52
3346.777 0.4343 0.34973 0.38834 0.5211 0.4472 0.2946 0.41828 0.5095 0.5396 0.5145
3366.066 0.5477 0.538 0.42475 0.42723 0.4437 0.4923 0.4485 0.336721 0.154 0.165
3385.356 0.37523 0.5169 0.5093 0.4684 0.5507 0.5429 0.5637 0.5706 0.5905 0.525
3404.646 0.4427 0.39667 0.2403 0.228 0.37278 0.5333 0.5853 0.5567 0.598 0.5108
3423.936 0.38304 0.4702 0.4822 0.34514 0.2588 0.42739 0.6549 0.5044 0.37148 0.5727
3443.225 0.6509 0.6118 0.559 0.4976 0.4895 0.5054 0.6453 0.6661 0.5751 0.5053
3462.515 0.37397 0.34365 0.2673 0.36631 0.5033 0.42566 0.3829 0.3477 0.41955 0.4476
3481.805 0.5101 0.6912 0.6287 0.4489 0.5933 0.7251 0.6096 0.5472 0.5821 0.5873
3501.095 0.5991 0.6278 0.5308 0.35985 0.2895 0.2934 0.333365 0.254 0.446 0.5833
3520.385 0.39746 0.36848 0.4581 0.41779 0.42725 0.5134 0.4759 0.5092 0.434 0.41407
3539.674 0.4786 0.4781 0.332382 0.331068 0.5284 0.42346 0.34668 0.4099 0.477 0.6583
3558.964 0.6594 0.5521 0.5864 0.6111 0.4714 0.34573 0.37061 0.2916 0.2374 0.32618
3578.254 0.36138 0.36398 0.335157 0.4702 0.5279 0.4544 0.4425 0.38232 0.41479 0.5837
3597.544 0.5833 0.5754 0.5048 0.333779 0.32796 0.39568 0.5105 0.4482 0.39436 0.39842
3616.833 0.3017 0.36605 0.40582 0.42232 0.4328 0.41718 0.475 0.35981 0.34068 0.39392
3636.123 0.38024 0.4398 0.5299 0.4598 0.5104 0.6393 0.6349 0.7298 0.7401 0.6369
3655.413 0.6342 0.6523 0.41174 0.5407 0.704 0.4355 0.4619 0.4636 0.42711 0.4653
3674.703 0.4389 0.477 0.5112 0.4587 0.40997 0.4777 0.5236 0.39876 0.3991 0.4638
3693.993 0.40785 0.634 0.666 0.4774 0.491 0.5313 0.4931 0.41025 0.35874 0.37929
3713.282 0.36467 0.35017 0.4964 0.598 0.42258 0.39387 0.6004 0.5521 0.4819 0.331333
3732.572 0.2595 0.3087 0.34537 0.39633 0.42381 0.4379 0.36182 0.3055 0.333944 0.2661
3751.862 0.41326 0.7309 0.7353 0.6335 0.5089 0.41137 0.4891 0.545 0.5916 0.6626
3771.152 0.4735 0.4394 0.5486 0.39875 0.34412 0.5933 0.6102 0.513 0.669 0.6752
3790.441 0.4468 0.461 0.5815 0.609 0.5969 0.564 0.4453 0.4878 0.4838 0.35947
3809.731 0.5007 0.4822 0.3128 0.3011 0.458 0.5555 0.5048 0.4414 0.41802 0.35891
3829.021 0.41945 0.4692 0.5045 0.5031 0.332806 0.335365 0.5261 0.3884 0.3155 0.4463
3848.311 0.39692 0.41546 0.2775 0 0.21 0.4961 0.4102 0.2535 0.2851 0.4661
3867.601 0.5498 0.6229 0.5655 0.5789 0.5697 0.4375 0.4485 0.4041 0.4351 0.4849
3886.890 0.38813 0.216 0.174 0.2351 0.32594 0.43063 0.4933 0.38901 0.3057 0.39221
3906.180 0.4898 0.5126 0.4652 0.5876 0.4493 0.2858 0.48 0.5543 0.43031 0.496
3925.470 0.5041 0.34254 0.2708 0.375 0.5091 0.5354 0.41658 0.179 0.13 0.2631
3944.760 0.41526 0.39297 0.2814 0.2879 0.34891 0.40834 0.5772 0.5293 0.3468 0.35396
3964.049 0.35118 0.36407 0.35954 0.37833 0.337981 0.452 0.544 0.5714 0.8163 0.8131
3983.339 0.5472 0.4513 0.4953 0.6127 0.8394 0.7483 0.5955 0.6737 0.8798 0.9383
##END=
