##TITLE=2,3,4,5,6-Pentafluorocinnamic acid
##JCAMP-DX=4.24
##DATA TYPE=INFRARED SPECTRUM
##ORIGIN=EPA-IR VAPOR PHASE LIBRARY
##OWNER=SRD/NIST
Collection (C) 2018 copyright by the U.S. Secretary of Commerce
on behalf of the United States of America. All rights reserved.
##CAS REGISTRY NO=719-60-8
##MOLFORM=C 9 H 3 F 5 O 2
##$NIST SOURCE=MSDC-IR
##STATE=gas
##XUNITS=1/CM
##YUNITS=ABSORBANCE
##XFACTOR=1.
##YFACTOR=0.001
##DELTAX=1.92898
##FIRSTX=549.8
##LASTX=4000.7
##FIRSTY=7.193
##MAXX=4000.7
##MINX=549.759
##MAXY=0.077653
##MINY=0
##NPOINTS=1790
##XYDATA=(X++(Y..Y))
549.759 7.193 7.473 8.143 8.863 9.233 9.673 10.213 11.393 12.963 14.163
569.049 14.483 13.893 12.373 10.363 7.853 5.923 4.833 3.983 3.963 4.573
588.339 4.493 4.403 5.633 7.703 9.983 12.993 16.233 18.433 18.543 16.863
607.628 14.693 11.583 8.043 5.153 3.503 3.313 3.153 3.003 3.833 3.693
626.918 3.283 3.513 3.563 3.763 3.683 3.713 3.433 3.113 3.373 3.013
646.208 2.463 2.183 2.013 1.933 2.063 2.123 2.063 2.183 1.973 1.833
665.498 1.823 1.743 1.793 2.023 2.443 2.213 1.5491 1.4448 1.5924 1.743
684.787 1.943 1.843 1.6409 1.703 1.783 2.043 2.243 2.213 2.163 2.393
704.077 2.813 2.913 2.593 2.423 2.293 2.073 2.133 2.083 1.843 1.6327
723.367 1.4442 1.3847 1.3533 1.2056 0.8985 0.514 0.504 0.6176 1.0771 1.3916
742.657 1.3318 1.3475 1.5559 1.923 1.863 1.6062 1.5071 1.4762 1.5524 1.5416
761.947 1.2048 1.2951 1.4549 1.1646 1.2212 1.3754 1.377 1.3381 1.3172 0.9993
781.236 0.9729 1.1445 0.8688 0.71612 0.74723 0.9998 0.8954 0.8185 1.0379 1.0904
800.526 1.1747 1.0916 1.2932 1.1213 0.6852 0.552 0.454 0.508 0.575 1.0106
819.816 1.1318 0.75541 0.343 0.333 0.508 0.74267 0.9493 0.80097 1.1238 1.1737
839.106 0.9286 1.1576 1.6222 1.401 1.1038 1.3859 1.3788 1.6192 1.793 1.733
858.395 1.863 1.873 1.923 2.003 2.163 2.593 2.833 2.733 2.593 2.743
877.685 2.863 2.633 2.103 1.626 1.6077 1.713 1.6957 1.813 2.013 2.133
896.975 2.103 2.023 2.073 2.043 1.813 1.5988 1.6004 1.703 1.6503 1.803
916.265 2.183 2.603 3.123 3.683 4.133 4.433 4.823 5.333 5.553 5.113
935.555 4.993 4.903 4.333 4.163 4.283 4.313 4.413 4.823 5.313 5.903
954.844 6.733 7.753 9.293 11.383 13.443 15.493 17.843 19.943 21.103 21.303
974.134 21.373 20.963 19.713 18.963 18.143 17.273 17.023 17.023 17.223 17.953
993.424 19.383 21.183 23.103 24.683 26.393 28.373 29.923 30.133 30.183 30.143
1012.714 29.423 28.903 27.763 25.973 24.253 22.053 20.003 18.473 16.313 14.903
1032.003 13.893 12.543 11.433 10.713 10.033 8.773 7.703 7.063 6.773 6.013
1051.293 5.033 4.903 4.513 3.353 2.923 3.293 3.123 2.683 2.513 2.793
1070.583 3.073 2.763 2.143 2.113 2.693 3.353 3.623 4.103 4.793 4.673
1089.873 5.593 5.943 5.803 6.363 7.723 9.313 9.773 11.753 15.533 18.653
1109.163 22.133 28.203 37.133 46.863 55.713 63.643 68.093 67.873 63.993 57.543
1128.452 48.973 39.663 31.913 26.193 23.083 20.783 18.423 17.663 17.583 17.293
1147.742 16.993 17.263 18.113 18.563 17.513 16.863 17.283 16.823 15.223 13.543
1167.032 12.363 11.063 9.813 9.373 9.043 8.213 7.583 7.483 6.923 6.793
1186.322 6.593 5.953 5.613 5.403 5.453 4.513 4.383 4.363 4.283 3.743
1205.611 3.103 2.923 2.673 3.323 3.293 3.193 3.733 3.813 2.793 2.623
1224.901 2.433 2.483 4.003 5.423 5.633 5.043 4.823 5.053 4.983 5.273
1244.191 6.043 6.513 5.983 5.523 6.003 6.273 6.453 6.873 7.163 7.003
1263.481 7.353 8.123 8.543 8.603 8.553 8.793 8.893 8.563 7.903 7.453
1282.771 7.493 7.463 7.213 6.963 7.003 7.563 8.353 9.053 9.763 10.573
1302.060 11.573 12.243 12.343 12.273 11.773 10.983 10.133 9.313 8.713 8.403
1321.350 8.233 8.083 8.173 8.263 8.333 8.513 8.673 8.703 8.513 8.413
1340.640 8.553 8.813 9.183 9.633 10.323 11.283 12.463 13.683 14.823 15.863
1359.930 16.493 16.543 15.833 14.593 12.943 11.023 9.203 7.593 6.463 5.763
1379.219 5.173 4.743 4.553 4.473 4.383 4.303 4.283 4.093 3.903 3.913
1398.509 3.873 3.873 3.863 3.933 3.993 4.043 4.123 4.203 4.453 4.753
1417.799 4.933 5.073 5.223 5.163 4.983 4.703 4.353 4.003 3.593 3.253
1437.089 3.013 2.883 2.783 2.713 2.723 2.753 2.773 2.923 3.023 3.103
1456.378 3.283 3.563 3.893 4.193 4.653 5.123 5.713 6.613 7.743 9.323
1475.668 11.433 14.273 17.883 22.613 28.573 35.793 44.283 53.163 62.193 70.033
1494.958 75.203 77.653 77.283 74.003 68.473 62.003 55.523 51.273 50.543 53.253
1514.248 58.163 63.443 67.473 67.783 63.743 56.303 45.723 34.153 23.823 16.243
1533.538 11.513 8.703 7.103 6.133 5.473 4.703 4.123 3.833 3.593 3.523
1552.827 3.503 3.343 3.163 2.933 2.913 3.093 3.243 3.253 3.223 3.303
1572.117 3.493 3.393 3.343 3.513 3.533 3.643 3.593 3.593 3.773 3.853
1591.407 3.803 3.783 3.723 3.753 3.993 3.903 3.743 3.873 4.133 4.313
1610.697 4.453 4.723 5.003 5.243 5.503 5.883 6.203 6.323 6.403 6.663
1629.986 7.103 7.653 8.273 9.013 10.243 11.683 13.043 14.293 15.153 15.253
1649.276 14.433 12.843 10.653 8.663 6.853 5.193 4.013 3.163 2.653 2.483
1668.566 2.333 2.153 2.053 2.013 1.963 1.803 1.853 1.863 1.803 1.913
1687.856 2.083 2.153 2.163 2.273 2.303 2.253 2.443 2.723 2.843 2.883
1707.146 3.063 3.383 3.653 3.913 4.223 4.463 4.593 4.943 5.293 5.613
1726.435 6.243 6.973 7.903 8.763 9.833 11.253 12.473 13.913 15.483 17.253
1745.725 19.693 22.883 27.013 32.493 38.893 45.423 51.573 56.243 58.013 55.923
1765.015 50.883 44.883 37.883 30.063 22.993 18.093 15.213 13.683 12.953 12.663
1784.305 12.633 12.673 12.573 12.143 11.393 10.503 9.383 8.263 7.163 6.073
1803.594 5.253 4.513 3.983 3.643 3.383 3.213 3.023 2.813 2.693 2.503
1822.884 2.363 2.303 2.183 2.103 2.093 2.133 2.133 2.133 2.143 2.003
1842.174 1.793 1.773 1.883 1.773 1.6837 1.6145 1.5213 1.6049 1.6898 1.6818
1861.464 1.5981 1.5679 1.4946 1.4109 1.3806 1.2994 1.3191 1.3082 1.2285 1.1939
1880.754 1.238 1.3023 1.1812 1.0335 1.0407 1.0179 0.9079 0.9251 0.8378 0.71909
1900.043 0.72912 0.8325 0.8972 0.8609 0.9134 0.895 0.9611 1.0381 0.9424 0.9185
1919.333 0.9308 0.8777 0.8826 0.9731 0.9929 0.9854 0.9396 0.9452 0.9697 0.9424
1938.623 0.78271 0.75647 0.8851 0.8277 0.77268 0.8478 0.9788 1.0146 1.0317 1.0394
1957.913 1.038 0.9352 0.8748 0.9707 0.938 0.8262 0.8374 0.9152 0.9167 0.8207
1977.202 0.781 0.8903 0.8571 0.76823 0.8453 0.904 0.8071 0.7517 0.9009 0.9512
1996.492 0.8806 0.8662 0.76106 0.70183 0.706681 0.69942 0.72456 0.7647 0.8046 0.76543
2015.782 0.77734 0.8438 0.8803 0.8575 0.80029 0.8051 0.8562 0.8905 0.8926 0.838
2035.072 0.75336 0.79932 0.9241 0.9268 0.9821 1.1067 1.0861 1.0894 1.2012 1.1884
2054.362 1.0062 0.927 1.0386 1.1678 1.2641 1.2107 1.2504 1.1565 1.0435 0.9835
2073.651 0.8499 0.78801 0.8576 0.9769 0.9617 0.9867 1.0131 1.0143 0.9538 0.8526
2092.941 0.931 0.9763 0.897 0.8938 0.922 1.0437 1.0314 0.79371 0.6392 0.74234
2112.231 0.8043 0.85 0.8942 0.8032 0.75589 0.8272 0.79211 0.69345 0.710325 0.6778
2131.521 0.6861 0.8145 0.7649 0.689 0.6705 0.6399 0.72426 0.78938 0.76998 0.6952
2150.810 0.76022 0.73576 0.69426 0.709913 0.6447 0.73808 0.8084 0.854 0.7892 0.8242
2170.100 0.9492 0.8305 0.73742 0.76223 0.79967 0.8179 0.8062 0.683 0.76637 0.912
2189.390 0.9002 0.865 0.71965 0.69678 0.76662 0.79593 0.77718 0.8988 0.9409 0.8703
2208.680 0.9102 0.9597 1.0672 1.0815 1.0119 0.9665 0.9804 0.853 0.716 0.8641
2227.970 0.9976 0.9486 0.8548 0.8808 0.9279 1.0056 1.1644 1.1021 0.9839 1.0179
2247.259 0.9705 0.8707 0.9711 0.9561 0.963 1.0469 0.9617 0.9357 0.8563 0.8117
2266.549 0.8978 1.0564 1.0298 0.8761 0.9035 0.8878 0.8163 0.8192 0.9045 0.9908
2285.839 0.9215 0.80207 0.7979 0.80252 0.868 0.9856 0.9288 0.9025 0.8832 0.8862
2305.129 1.0056 0.9427 0.8671 0.9155 0.965 0.9379 0.8868 0.91 0.8174 0.73307
2324.418 0.8413 0.9173 0.8616 0.78782 0.8275 0.9131 0.8691 0.79836 0.8231 0.8709
2343.708 0.8975 0.79707 0.75045 0.8097 0.77279 0.70176 0.72429 0.9055 1.0143 0.9105
2362.998 0.9016 0.8768 0.80135 0.967 1.0598 0.9054 0.79232 0.8535 1.0258 1.1846
2382.288 1.0598 0.8567 0.8191 0.882 0.9776 0.8788 0.78167 0.8849 0.8796 0.8472
2401.578 0.911 0.9328 0.9255 0.9868 0.9921 0.8601 0.79092 0.79198 0.9119 1.1199
2420.867 1.0689 1.0387 1.1707 1.2015 1.0811 1.039 1.1574 1.2118 1.1488 0.9674
2440.157 0.9008 1.0311 1.2329 1.2365 1.0884 0.9689 0.9529 1.0583 1.1595 1.2123
2459.447 1.2856 1.2821 1.2022 1.2207 1.2565 1.28 1.2285 1.0785 1.0399 0.9858
2478.737 1.0124 1.1163 1.1223 1.0811 1.0379 1.1111 1.2317 1.1765 1.044 1.1464
2498.026 1.1791 1.104 0.9984 0.8468 0.8635 1.0272 1.1197 0.9582 0.828 0.8795
2517.316 0.8179 0.79813 0.8975 0.8586 0.9035 1.0864 1.0001 0.863 0.8594 0.8111
2536.606 0.9212 1.0919 1.0067 0.8181 0.8169 0.8622 0.73908 0.6903 0.8251 0.9043
2555.896 0.832 0.73267 0.7184 0.75265 0.74171 0.78541 0.9471 1.1598 1.0537 0.8707
2575.186 0.9752 0.9185 0.72385 0.71732 0.8911 0.8437 0.873 0.9357 0.76072 0.74931
2594.475 0.77491 0.6734 0.594 0.72904 0.9297 0.9479 0.8297 0.6836 0.6649 0.75527
2613.765 0.76095 0.9478 1.0789 0.9156 0.8803 1.0185 1.1212 1.0036 0.8602 0.9392
2633.055 1.099 0.9541 0.9565 1.2325 1.1876 1.0386 1.1621 1.281 1.3221 1.2875
2652.345 1.2263 1.131 1.0701 1.1119 1.1539 1.1133 0.9845 1.0801 1.1322 1.0702
2671.634 1.1481 1.1584 0.9476 0.79125 0.818 0.811 0.77115 0.76587 0.6857 0.7149
2690.924 0.8096 0.76222 0.76287 0.6267 0.58 0.73932 0.6918 0.6737 0.7392 0.74656
2710.214 0.7138 0.6852 0.6519 0.71442 0.8399 0.80296 0.72735 0.8342 0.73657 0.603
2729.504 0.625 0.70001 0.76718 0.76362 0.8261 0.76923 0.78567 0.79016 0.541 0.543
2748.794 0.7906 0.8677 0.8136 0.8254 0.9351 0.9415 0.8684 0.76866 0.9665 1.0827
2768.083 0.8861 0.8597 0.79569 0.6688 0.80033 0.8329 0.707595 0.9014 0.9137 0.77831
2787.373 0.78671 0.8148 0.78122 0.6853 0.69488 0.78259 0.7716 0.6685 0.587 0.6229
2806.663 0.602 0.542 0.6584 0.77341 0.7999 0.77216 0.76898 0.8203 0.71772 0.6592
2825.953 0.55 0.461 0.71164 0.8379 0.75365 0.7372 0.59 0.528 0.69378 0.6189
2845.242 0.6061 0.72434 0.72974 0.577 0.442 0.494 0.472 0.6068 0.74489 0.73285
2864.532 0.8958 0.9012 0.6874 0.501 0.549 0.6534 0.77206 0.9061 0.894 0.9338
2883.822 0.879 0.74324 0.9048 0.9912 0.8137 0.6894 0.73901 0.8601 0.8043 0.8531
2903.112 1.0112 0.9918 0.9492 0.9253 0.8047 0.8232 0.9934 1.0549 0.9117 0.9079
2922.401 0.9055 0.8373 0.8421 0.71818 0.7707 0.8513 0.815 0.79996 0.9453 0.9686
2941.691 0.8274 0.8088 0.7999 0.71469 0.6554 0.6259 0.73169 0.9185 0.8767 0.80076
2960.981 0.6569 0.462 0.6848 0.7798 0.80171 0.9777 0.9659 1.0544 1.0741 1.0785
2980.271 0.973 0.8493 0.9165 0.8252 0.677 0.6655 0.585 0.6488 0.8301 0.9973
2999.561 0.9314 0.711099 0.73375 0.77009 0.6731 0.80275 0.9876 0.8108 0.835 0.8288
3018.850 0.70181 0.6815 0.817 1.018 0.9659 0.9364 0.8405 0.76297 0.8586 0.6701
3038.140 0.532 0.8189 1.012 0.9824 0.8249 0.536 0.505 0.76177 1.0237 0.8827
3057.430 0.69379 0.73743 0.6043 0.6509 0.615 0.6194 0.8874 0.8853 0.76499 0.75873
3076.720 0.76954 0.69351 0.74006 0.77736 0.6865 0.554 0.569 0.6235 0.595 0.70013
3096.009 0.7308 0.7385 0.80242 0.6487 0.577 0.6551 0.705301 0.8543 0.9418 0.814
3115.299 0.72309 0.75956 0.69697 0.6619 0.7299 0.80067 0.867 0.707754 0.532 0.7277
3134.589 1.0419 0.9469 0.6708 0.471 0.509 0.6814 0.76606 0.705855 0.472 0.521
3153.879 0.6832 0.69524 0.6622 0.77641 0.76205 0.79977 0.8122 0.74644 0.77962 0.6167
3173.169 0.412 0.327 0.439 0.579 0.598 0.6662 0.79969 0.6743 0.5 0.461
3192.458 0.592 0.707117 0.6458 0.75664 0.6511 0.386 0.367 0.555 0.563 0.524
3211.748 0.523 0.538 0.706105 0.71517 0.78861 0.79085 0.548 0.405 0.516 0.6635
3231.038 0.79593 0.8342 0.71418 0.662 0.58 0.6661 0.8198 0.78581 0.614 0.8145
3250.328 0.8267 0.592 0.74617 0.72148 0.678 0.6337 0.547 0.529 0.361 0.345
3269.617 0.52 0.6253 0.79169 0.6367 0.71302 0.8437 0.6411 0.6404 0.451 0.518
3288.907 0.69364 0.569 0.6303 0.69541 0.6054 0.6251 0.553 0.519 0.559 0.446
3308.197 0.485 0.574 0.591 0.428 0.419 0.578 0.54 0.468 0.58 0.72654
3327.487 0.7248 0.6043 0.461 0.6268 0.8084 0.446 0.26 0.479 0.73136 0.72386
3346.777 0.68 0.74168 0.569 0.421 0.426 0.69918 0.77945 0.6695 0.707361 0.6968
3366.066 0.73432 0.7612 0.6571 0.367 0.237 0.453 0.598 0.6755 0.70491 0.6851
3385.356 0.71964 0.567 0.6633 0.8257 0.576 0.515 0.6483 0.545 0.29 0.188
3404.646 0.268 0.402 0.497 0.702332 0.8527 0.70419 0.434 0.292 0.421 0.552
3423.936 0.6385 0.585 0.6199 0.6161 0.7696 0.9213 0.469 0.335 0.463 0.601
3443.225 0.74056 0.56 0.373 0.457 0.6466 0.573 0.5 0.6181 0.6514 0.6513
3462.515 0.512 0.516 0.6906 0.6351 0.6822 0.8719 0.6279 0.579 0.6154 0.476
3481.805 0.74099 0.8814 0.71728 0.73489 0.6565 0.71772 0.8774 0.9586 1.1781 1.0606
3501.095 0.9947 1.13 1.1439 1.1506 1.3488 1.1576 0.7433 0.80261 0.9182 0.8271
3520.385 0.6415 0.6186 0.6327 0.8991 1.1614 1.1471 1.0389 0.8589 0.849 0.8433
3539.674 0.7338 0.6838 0.706625 0.78745 0.72199 0.9577 1.2295 1.0362 1.0847 1.2775
3558.964 1.4021 1.6617 1.973 2.273 3.053 4.463 6.853 10.703 15.903 21.163
3578.254 25.083 27.343 27.703 25.923 21.753 16.513 11.923 8.333 5.403 3.403
3597.544 2.533 1.933 1.466 1.2277 1.0395 1.1793 1.2696 0.963 0.75 0.73918
3616.833 0.6036 0.487 0.42 0.6667 0.9259 0.7726 0.706655 0.6161 0.6565 0.8781
3636.123 1.0195 0.9682 0.8755 0.8876 0.8245 0.69941 0.76492 0.6395 0.394 0.576
3655.413 0.6273 0.6292 0.646 0.6274 0.8099 0.76924 0.591 0.6581 0.6582 0.498
3674.703 0.537 0.71814 0.6239 0.183 0.163 0.464 0.422 0.519 0.6212 0.499
3693.993 0.72004 0.9809 0.8792 0.7891 0.6589 0.401 0.425 0.6617 0.8465 0.6197
3713.282 0.531 0.461 0.365 0.437 0.504 0.513 0.347 0.522 0.8458 0.6562
3732.572 0.274 0.268 0.411 0.523 0.335 0.456 0.593 0.247 0.262 0.464
3751.862 0.437 0.406 0.494 0.436 0.369 0.456 0.438 0.315 0.384 0.6451
3771.152 0.77175 0.9839 0.9632 0.72762 0.573 0.55 0.157 0 0.459 0.6258
3790.441 0.541 0.367 0.549 0.506 0.361 0.469 0.6978 0.8666 0.71452 0.6802
3809.731 0.78564 0.8669 0.6728 0.529 0.7004 0.535 0.223 0.373 0.54 0.341
3829.021 0.439 0.587 0.332 0.4 0.518 0.357 0.327 0.437 0.425 0.294
3848.311 0.342 0.452 0.342 0.403 0.425 0.476 0.6532 0.6308 0.6461 0.6461
3867.601 0.6072 0.6573 0.6 0.244 0.229 0.431 0.564 0.502 0.313 0.345
3886.890 0.352 0.276 0.264 0.354 0.333 0.147 0.172 0.406 0.482 0.363
3906.180 0.442 0.522 0.69579 0.76014 0.565 0.448 0.51 0.702271 0.6585 0.471
3925.470 0.356 0.46 0.523 0.6408 0.78193 0.517 0.448 0.376 0.145 0.3
3944.760 0.45 0.586 0.6091 0.504 0.413 0.347 0.591 0.6633 0.457 0.6589
3964.049 0.78883 0.6196 0.6858 0.79324 0.547 0.236 0.306 0.386 0.439 0.44
3983.339 0.72397 0.8553 0.53 0.467 0.519 0.551 0.583 0.8149 0.80065 0.6677
##END=
