##TITLE=Endrin
##JCAMP-DX=4.24
##DATA TYPE=INFRARED SPECTRUM
##ORIGIN=NIST Mass Spectrometry Data Center
##OWNER=NIST Standard Reference Data Program
Collection (C) 2018 copyright by the U.S. Secretary of Commerce
on behalf of the United States of America. All rights reserved.
##CAS REGISTRY NO=72-20-8
##MOLFORM=C 12 H 8 Cl 6 O
##$NIST SOURCE=MSDC-IR
##SPECTROMETER/DATA SYSTEM=HP-GC/MS/IRD
##STATE=gas
##XUNITS=1/CM
##YUNITS=ABSORBANCE
##XFACTOR=1.0
##YFACTOR=0.000001000
##DELTAX=4.0
##FIRSTX=550.0
##LASTX=3846.0
##FIRSTY=0.001119
##MAXX=3846
##MINX=550
##MAXY=0.01
##MINY=0
##NPOINTS=825
##XYDATA=(X++(Y..Y))
550.0 1119 1974 2748 2520 1556 1158 1384 1385 885 370
590.0 241 253 290 381 437 353 196 126 84 48
630.0 25 0 25 96 123 57 39 85 190 388
670.0 722 1379 2133 2391 1898 1114 682 545 618 1084
710.0 2029 3405 4470 4134 2780 1825 1706 2314 3851 5463
750.0 5352 3439 1648 861 643 589 514 460 446 424
790.0 427 574 893 1142 1175 1007 826 747 810 873
830.0 836 930 1366 2570 5389 9010 10000 7131 3622 1941
870.0 1544 1690 2166 2774 3307 3419 3038 2745 2902 3112
910.0 2812 2063 1416 975 764 757 896 1111 1233 1218
950.0 1296 1461 1472 1268 1187 1552 2400 3372 3551 2793
990.0 2061 1951 2257 2731 3107 2962 2336 1812 1741 2062
1030.0 2648 3325 4059 4692 4907 4460 3623 3003 2678 2521
1070.0 2504 2480 2285 1917 1500 1165 1004 971 1065 1307
1110.0 1493 1340 957 648 546 597 750 884 798 608
1150.0 529 577 725 957 1276 1680 2116 2467 2579 2321
1190.0 1688 1051 657 424 315 280 282 376 620 1103
1230.0 1697 1971 1676 1236 1073 1184 1597 2274 2522 1910
1270.0 1126 774 756 814 1014 1480 1862 1726 1200 711
1310.0 436 299 237 209 193 178 169 173 186 225
1350.0 256 290 349 485 710 1050 1411 1447 1047 582
1390.0 336 258 248 250 260 285 271 220 213 201
1430.0 176 187 224 279 335 504 832 1209 1259 888
1470.0 517 326 261 221 180 161 147 135 118 92
1510.0 85 78 69 84 104 83 68 52 43 71
1550.0 87 94 104 148 223 272 304 378 542 871
1590.0 1484 2364 3147 3131 2186 1102 477 272 210 161
1630.0 151 138 114 116 100 52 42 87 104 123
1670.0 129 124 128 89 58 80 77 71 88 102
1710.0 101 81 86 127 173 214 225 230 207 164
1750.0 147 179 228 289 335 327 289 231 177 155
1790.0 131 107 107 96 85 99 96 65 53 55
1830.0 58 63 69 69 81 79 78 83 78 66
1870.0 54 53 65 75 69 63 50 50 71 84
1910.0 80 67 62 60 62 67 75 70 61 62
1950.0 71 95 110 108 106 90 69 89 106 92
1990.0 99 74 59 74 92 92 88 98 80 46
2030.0 40 51 61 76 64 57 72 83 82 76
2070.0 80 97 89 85 105 118 102 79 86 85
2110.0 85 105 100 82 88 90 102 101 104 115
2150.0 112 100 88 97 112 109 95 89 89 86
2190.0 94 95 82 84 100 104 92 96 99 104
2230.0 102 88 96 105 114 108 85 88 107 92
2270.0 83 102 94 82 72 65 62 61 76 97
2310.0 94 78 80 80 76 67 64 74 67 55
2350.0 62 76 85 89 90 79 84 99 95 84
2390.0 90 85 67 71 71 86 101 90 81 67
2430.0 59 55 43 47 44 46 63 41 44 66
2470.0 70 58 41 43 60 65 66 63 67 85
2510.0 76 59 55 60 52 50 52 47 49 65
2550.0 60 45 57 43 34 52 45 43 54 63
2590.0 52 35 34 20 29 44 54 65 33 1
2630.0 27 49 45 36 32 38 44 37 50 57
2670.0 48 72 72 68 75 58 65 70 56 59
2710.0 79 80 75 66 45 57 74 75 59 32
2750.0 44 74 84 66 56 54 54 72 84 67
2790.0 67 70 83 107 93 87 77 65 98 116
2830.0 98 92 111 120 111 117 132 121 111 103
2870.0 108 154 171 200 296 435 568 583 478 355
2910.0 275 242 226 202 218 240 272 327 388 463
2950.0 594 943 1538 2126 2337 2253 2900 4891 6802 6150
2990.0 3530 1491 666 460 379 339 412 683 1181 1499
3030.0 1213 647 303 191 157 154 188 259 374 569
3070.0 756 790 668 490 327 173 128 140 80 49
3110.0 56 84 105 63 55 83 112 105 73 59
3150.0 86 85 71 86 94 110 110 124 143 92
3190.0 70 83 67 69 88 99 74 37 35 29
3230.0 58 100 93 77 61 55 72 72 67 51
3270.0 58 64 63 68 53 98 100 55 55 18
3310.0 14 37 37 47 68 82 85 65 41 60
3350.0 60 69 65 46 83 115 99 67 66 74
3390.0 65 50 46 7 12 69 83 107 96 55
3430.0 22 33 69 80 47 17 25 33 55 47
3470.0 47 72 89 60 57 92 70 71 99 89
3510.0 73 68 51 64 75 68 40 32 32 47
3550.0 55 55 46 39 57 60 77 51 58 99
3590.0 83 88 90 77 86 92 72 75 72 63
3630.0 56 71 95 103 45 2 25 2 19 45
3670.0 90 145 156 134 94 78 67 56 83 110
3710.0 74 71 88 103 131 93 53 75 41 18
3750.0 55 79 81 78 84 67 79 120 128 110
3790.0 85 83 78 64 59 73 99 114 119 94
3830.0 83 76 72 104 119
##END=
