##TITLE=4,4'-DDD
##JCAMP-DX=4.24
##DATA TYPE=INFRARED SPECTRUM
##ORIGIN=NIST Mass Spectrometry Data Center
##OWNER=NIST Standard Reference Data Program
Collection (C) 2018 copyright by the U.S. Secretary of Commerce
on behalf of the United States of America. All rights reserved.
##CAS REGISTRY NO=72-54-8
##MOLFORM=C 14 H 10 Cl 4
##$NIST SOURCE=MSDC-IR
##SPECTROMETER/DATA SYSTEM=HP-GC/MS/IRD
##STATE=gas
##XUNITS=1/CM
##YUNITS=ABSORBANCE
##XFACTOR=1.0
##YFACTOR=0.000002000
##DELTAX=4.0
##FIRSTX=550.0
##LASTX=3846.0
##FIRSTY=0.001448
##MAXX=3846
##MINX=550
##MAXY=0.02
##MINY=0
##NPOINTS=825
##XYDATA=(X++(Y..Y))
550.0 724 488 300 386 383 397 541 694 766 751
590.0 634 412 240 176 206 284 400 566 601 491
630.0 385 335 323 362 414 521 697 835 872 792
670.0 706 648 582 511 451 450 568 777 993 1099
710.0 964 752 646 662 796 935 988 1034 1197 1704
750.0 2836 4558 6391 7688 7740 6228 4024 2388 1620 1340
790.0 1291 1398 1552 1720 1919 2115 2184 2055 1865 1699
830.0 1528 1368 1268 1289 1369 1354 1194 955 740 610
870.0 566 585 606 565 434 277 182 135 106 89
910.0 81 54 14 16 15 11 29 38 49 31
950.0 4 4 2 1 13 27 37 47 80 150
990.0 212 278 422 680 1293 2994 4903 4465 2285 940
1030.0 600 489 404 298 240 210 198 230 264 354
1070.0 519 729 1123 2017 3783 6227 7837 7198 5149 3376
1110.0 2338 1734 1307 926 674 539 447 368 319 295
1150.0 269 243 224 226 228 249 293 328 350 330
1190.0 280 254 251 278 356 470 571 622 590 519
1230.0 460 405 384 385 366 341 310 285 277 250
1270.0 229 219 193 175 155 146 167 191 210 226
1310.0 223 194 180 174 169 178 171 159 160 155
1350.0 121 102 88 70 68 77 94 99 124 171
1390.0 237 327 471 663 816 806 631 432 293 245
1430.0 263 295 334 375 397 416 464 557 666 742
1470.0 818 1066 1672 2974 5565 8982 10000 7067 3503 1745
1510.0 1067 750 570 437 333 267 228 191 167 161
1550.0 164 155 147 176 228 291 342 385 459 625
1590.0 825 916 819 602 419 337 309 279 245 217
1630.0 192 172 163 154 137 115 100 96 86 84
1670.0 68 46 45 39 32 22 17 16 19 19
1710.0 18 15 12 18 27 31 21 36 61 60
1750.0 63 86 112 162 219 237 206 153 102 71
1790.0 45 26 19 17 17 17 24 19 17 25
1830.0 28 20 21 27 26 32 42 46 49 61
1870.0 81 116 159 232 307 338 314 251 190 130
1910.0 95 71 51 34 29 32 23 17 23 32
1950.0 27 26 31 29 26 27 28 28 24 14
1990.0 8 13 20 25 34 27 20 20 22 25
2030.0 28 24 20 27 29 27 28 28 27 31
2070.0 29 21 19 23 26 29 33 26 17 13
2110.0 9 9 15 9 1 12 16 11 13 12
2150.0 15 13 13 11 17 15 8 14 14 11
2190.0 18 20 17 22 12 14 22 12 22 31
2230.0 18 17 16 15 17 17 19 26 25 33
2270.0 39 37 45 51 44 43 60 73 66 55
2310.0 50 43 42 37 25 18 14 13 20 18
2350.0 20 31 35 33 31 37 41 43 36 37
2390.0 51 38 26 37 34 35 48 45 37 37
2430.0 45 43 35 28 33 38 41 39 29 33
2470.0 39 40 40 42 50 52 43 42 46 48
2510.0 49 41 46 52 54 62 59 49 50 58
2550.0 56 51 61 51 43 50 52 47 57 71
2590.0 67 63 64 62 60 63 56 40 44 32
2630.0 25 28 28 31 20 26 33 35 29 21
2670.0 22 31 27 32 42 39 41 40 31 25
2710.0 16 16 23 8 0 4 8 16 20 13
2750.0 9 13 18 25 31 34 32 27 20 9
2790.0 7 12 19 20 22 33 35 32 25 18
2830.0 17 18 28 29 17 27 44 41 23 27
2870.0 47 31 20 43 72 99 112 124 119 110
2910.0 111 101 95 107 126 141 138 98 47 29
2950.0 42 43 31 55 81 94 113 125 141 183
2990.0 224 313 421 418 312 229 210 259 361 474
3030.0 609 710 703 594 491 463 439 369 290 252
3070.0 264 288 330 437 563 623 596 495 398 327
3110.0 227 146 115 89 69 66 61 50 34 23
3150.0 24 27 29 31 16 9 28 34 33 33
3190.0 23 12 9 14 15 18 20 18 18 16
3230.0 16 20 24 29 35 29 33 37 34 13
3270.0 6 1 15 41 51 50 36 29 27 15
3310.0 4 20 37 41 44 32 33 43 24 39
3350.0 45 35 48 56 63 42 35 48 50 52
3390.0 58 52 61 70 54 42 45 59 58 66
3430.0 67 51 54 57 64 63 62 80 80 73
3470.0 69 70 65 51 59 83 80 65 54 39
3510.0 46 58 44 50 70 84 100 92 83 89
3550.0 62 33 44 44 43 64 69 60 66 102
3590.0 101 74 83 96 78 52 50 67 80 67
3630.0 40 41 52 55 63 67 73 79 74 73
3670.0 88 99 81 83 79 61 63 70 65 80
3710.0 92 92 93 85 93 95 80 83 78 52
3750.0 52 49 57 84 89 82 68 56 70 82
3790.0 71 57 57 61 58 52 46 45 50 51
3830.0 65 69 56 60 60
##END=
