##TITLE=Methyl-p-phneylbenzoate
##JCAMP-DX=4.24
##DATA TYPE=INFRARED SPECTRUM
##ORIGIN=EPA-IR VAPOR PHASE LIBRARY
##OWNER=SRD/NIST
Collection (C) 2018 copyright by the U.S. Secretary of Commerce
on behalf of the United States of America. All rights reserved.
##CAS REGISTRY NO=720-75-2
##MOLFORM=C 14 H 12 O 2
##$NIST SOURCE=MSDC-IR
##STATE=gas
##XUNITS=1/CM
##YUNITS=ABSORBANCE
##XFACTOR=1.
##YFACTOR=0.001
##DELTAX=1.92898
##FIRSTX=549.8
##LASTX=4000.7
##FIRSTY=3.46
##MAXX=4000.7
##MINX=549.759
##MAXY=0.36405
##MINY=0
##NPOINTS=1790
##XYDATA=(X++(Y..Y))
549.759 3.46 3.08 2.51 2.4 2.49 2.44 1.86 1.54 1.59 1.64
569.049 1.21 0.7 0.66 0.75 0.45 0.09 0.5 0.74 0.6 0.44
588.339 0.24 0.5 0.45 0.46 0.91 0.88 1.1 1.41 1.19 1.41
607.628 1.32 1.16 1.4 1.66 1.5 0.91 1.22 1.48 1.29 1.52
626.918 1.6 1.59 1.7 1.76 1.81 1.76 1.74 2.22 2.42 2.39
646.208 2.86 3.24 3.11 2.75 2.92 3.2 3.41 3.64 3.88 4.32
665.498 4.803 5.4036 6.1067 7.07 7.85 8.39 9.29 10.83 12.82 15.08
684.787 18.05 21.19 24.21 27.77 31.12 33.66 35.36 36 35.83 34.79
704.077 33.12 31.11 28.65 25.98 23.49 21.37 19.59 18.17 16.96 16.02
723.367 15.73 16.39 17.96 19.92 22.8 27.02 31.93 37.82 45.24 53.68
742.657 62.14 68.58 72.83 74.47 71.08 64.15 57.14 50.34 43.15 36.4
761.947 30.5 25.43 21.27 18.15 16 14.71 13.79 13.13 12.73 12.11
781.236 11.46 10.93 10.32 9.52 8.78 8.34 7.73 6.79 6.46 6.3713
800.526 6.3769 6.76 6.45 6.59 7.65 8.45 9.35 10.66 12.18 13.92
819.816 15.17 15.44 15.19 14.49 13.53 12.33 10.98 9.99 9.75 10.13
839.106 10.62 11.22 11.96 13.16 14.65 16.13 17.63 18.71 19.3 19.42
858.395 18.39 16.22 14.08 12.39 10.71 8.77 7.09 5.7335 4.72 4.26
877.685 3.89 3.7 3.6 3.41 3.21 3.28 3.39 3.18 3.11 3.29
896.975 3.22 3.27 3.43 3.48 3.71 3.9 3.89 3.68 3.77 3.68
916.265 3.35 3.34 3.08 2.83 2.97 3.06 2.97 2.77 2.76 3.12
935.555 3.27 2.98 2.81 3.13 3.43 3.31 3.52 4.05 4.443 4.711
954.844 4.907 5.52227 6.2673 6.93 7.64 8.4 8.97 9.17 9.35 9.12
974.134 8.4 7.78 7.08 6.3307 5.737 5.178 4.932 4.867 5.017 5.6431
993.424 6.3101 6.78 7.94 10.23 14.22 20.2 27.81 33.13 34.29 34.04
1012.714 30.03 23.69 20.04 19.53 19.5 18.72 17.59 15.74 12.99 10.71
1032.003 10.13 10.12 10.15 10.43 10.44 9.95 9.42 9.25 9.09 8.58
1051.293 8.48 8.68 9.18 9.78 9.88 10.76 11.64 11.88 13.3 15.48
1070.583 17.07 18.15 19.63 21.63 24.3 27.55 32.09 37.7 44.04 52.26
1089.873 62.04 73.66 85.66 97.56 110.09 122.39 134.2 143.97 150.4 153.66
1109.163 151.36 142.25 129.55 115.15 100.09 86.23 75.35 66.57 58.03 50.84
1128.452 45.04 39.48 34.74 30.74 27.22 24.72 22.77 20.9 19.59 18.32
1147.742 17.41 17.03 16.55 16.01 14.99 14.46 14.55 14.73 14.7 14.92
1167.032 16.32 17.93 20.43 25.08 30.46 35.59 41.38 48.1 55.58 61.15
1186.322 62.98 63.19 62.15 57.64 50.61 44.42 39.08 34.13 29.4 25.04
1205.611 21.87 19.91 18.59 17.8 17.72 18.09 18.84 19.42 21.15 24.78
1224.901 28.94 33.29 37.7 42.1 45.91 48.96 51.71 53.42 54.73 56.77
1244.191 60.04 65.48 72.98 82.37 94.07 107.83 123.98 142.65 164.04 188.88
1263.481 216.73 247.53 280.74 313.45 341.43 360.1 364.05 351.11 323.56 284.67
1282.771 240.56 199.54 166.69 141.49 121.46 105.34 91.92 81.02 72.55 65.35
1302.060 59.39 55.14 52.44 50.81 49.21 47.29 44.75 40.83 36.09 31.67
1321.350 27.98 25.18 23.16 21.61 20.37 19.34 18.55 17.67 16.7 15.94
1340.640 15.13 14.35 13.72 13.14 12.7 12.36 12.06 11.78 11.53 11.28
1359.930 10.83 10.5 10.23 9.81 9.44 9.21 9.1 8.98 8.98 9.15
1379.219 9.25 9.31 9.48 9.75 10.08 10.5 11.23 12.2 13.46 15.05
1398.509 16.8 18.61 20.05 20.56 20.41 19.81 18.4 16.44 14.68 13.31
1417.799 12.25 11.73 11.75 12.31 13.79 16.37 20.91 27.97 38.03 49.1
1437.089 56.65 58.81 57.26 49.93 37.9 27.99 22.36 19.33 17.36 15.66
1456.378 14.3 13.37 12.74 12.27 12.05 12.02 12.2 12.42 12.88 13.68
1475.668 14.98 16.97 19.63 23 26.09 27.92 27.75 25.64 22.31 18.28
1494.958 14.4 11.59 9.99 8.94 8.34 8.12 7.76 7.43 7.42 7.39
1514.248 7.33 7.35 7.4 7.45 7.43 7.34 7.25 7.15 6.97 6.79
1533.538 6.71 6.62 6.48 6.3732 6.45 6.48 6.54 6.74 6.92 7.3
1552.827 7.82 8.41 9.25 10.22 10.96 11.33 11.48 11.4 10.92 10.4
1572.117 10.02 9.63 9.59 9.9 10.33 11.04 12.01 13.4 15.46 18.18
1591.407 21.65 25.75 30.09 34.07 37.43 40.26 42.38 44.1 45.55 46.04
1610.697 45.02 41.83 36.67 30.04 23.35 17.93 13.96 11.49 10 8.96
1629.986 8.14 7.66 7.23 6.87 6.71 6.65 6.59 6.47 6.3755 6.0946
1649.276 5.8882 5.961 5.925 5.9948 6.0386 6.1277 6.3445 6.378 6.63 6.86
1668.566 7.09 7.4 7.6 8.05 8.58 8.96 9.53 10.27 11.06 11.75
1687.856 12.33 13.03 13.65 14.19 14.7 15.27 15.87 16.45 16.96 17.54
1707.146 17.94 18.36 18.95 19.75 20.99 22.84 25.29 28.47 33.08 39.44
1726.435 48.1 59.4 74.17 93.35 119.6 153.55 193.67 239.11 275.09 291.65
1745.725 290.62 272.45 231.84 179.39 135.42 104.18 79.89 61.67 47.58 36.81
1765.015 29.11 23.77 19.91 17.35 15.51 14.24 13.3 12.56 12.17 11.98
1784.305 11.8 11.75 11.81 12.02 12.36 12.57 12.59 12.4 11.94 11.33
1803.594 10.53 9.65 8.83 8.01 7.28 6.71 6.2984 6.0431 5.8072 5.5514
1822.884 5.248 4.837 4.41 4.11 3.8 3.48 3.26 3.08 2.86 2.77
1842.174 2.75 2.69 2.74 2.71 2.66 2.61 2.59 2.66 2.75 2.93
1861.464 3.05 3.02 3.03 3.18 3.36 3.45 3.45 3.49 3.51 3.56
1880.754 3.7 3.83 3.88 4.05 4.21 4.17 4.08 3.89 3.64 3.49
1900.043 3.49 3.62 3.75 3.91 4.1 4.32 4.653 4.906 5.322 5.8086
1919.333 6.0424 6.3288 6.63 6.87 7.11 7.3 7.31 7.27 7.23 7.05
1938.623 6.84 6.64 6.349 6.048 5.7229 5.3689 5.083 4.842 4.773 4.621
1957.913 4.3 3.95 3.62 3.29 2.85 2.44 2.2 2.05 1.94 1.91
1977.202 1.89 1.86 1.85 1.84 1.91 1.95 1.9 1.88 1.88 1.86
1996.492 1.84 1.82 1.8 1.83 1.87 1.87 1.8 1.88 1.97 1.96
2015.782 1.98 1.88 1.85 1.85 1.79 1.7 1.72 1.83 1.78 1.76
2035.072 1.84 1.95 1.97 1.99 2.03 2.03 2.08 2.12 2.21 2.34
2054.362 2.47 2.6 2.75 2.76 2.81 3.06 3.15 3.23 3.42 3.51
2073.651 3.46 3.49 3.5 3.49 3.58 3.6 3.53 3.48 3.39 3.22
2092.941 3.09 3.02 2.95 2.75 2.55 2.46 2.34 2.15 2.09 2.03
2112.231 1.93 1.88 1.76 1.71 1.74 1.69 1.64 1.61 1.55 1.52
2131.521 1.43 1.38 1.37 1.36 1.38 1.37 1.32 1.38 1.38 1.28
2150.810 1.38 1.39 1.35 1.32 1.26 1.26 1.28 1.38 1.44 1.39
2170.100 1.32 1.24 1.18 1.21 1.29 1.27 1.2 1.27 1.24 1.12
2189.390 1.21 1.33 1.21 1.14 1.12 1.1 1.18 1.13 1.13 1.15
2208.680 1.13 1.2 1.08 0.92 1.03 1.17 1.09 1.2 1.35 1.25
2227.970 1.29 1.42 1.42 1.4 1.38 1.42 1.46 1.58 1.57 1.3
2247.259 1.4 1.58 1.57 1.54 1.44 1.46 1.42 1.39 1.43 1.5
2266.549 1.51 1.45 1.4 1.35 1.32 1.25 1.31 1.44 1.41 1.41
2285.839 1.38 1.43 1.4 1.47 1.56 1.46 1.4 1.31 1.34 1.39
2305.129 1.38 1.36 1.42 1.48 1.5 1.48 1.61 1.65 1.57 1.43
2324.418 1.26 1.11 1.22 1.29 1.33 1.44 1.36 1.47 1.42 1.36
2343.708 1.43 1.35 1.3 1.32 1.36 1.38 1.42 1.3 1.29 1.33
2362.998 1.23 1.24 1.33 1.39 1.32 1.31 1.4 1.48 1.48 1.44
2382.288 1.53 1.53 1.53 1.53 1.44 1.43 1.46 1.46 1.3 1.3
2401.578 1.4 1.35 1.27 1.2 1.2 1.2 1.16 1.19 1.27 1.18
2420.867 1.09 1.06 1.04 1.07 1.08 0.99 0.91 0.92 0.94 1.07
2440.157 1.04 0.96 1.1 1.1 1 0.92 0.8 0.93 1.1 1.02
2459.447 0.97 1 0.96 0.98 1 0.95 0.91 1.02 1.2 1.1
2478.737 0.94 0.95 0.99 0.91 1.01 0.99 0.9 0.98 0.94 0.84
2498.026 0.84 1.03 1.09 1.01 1.01 1.06 1.11 1.19 1.37 1.42
2517.316 1.3 1.24 1.19 1.29 1.41 1.46 1.53 1.59 1.73 1.81
2536.606 1.87 1.95 1.84 1.78 1.93 2.07 2.09 2.25 2.21 1.98
2555.896 1.96 1.92 1.89 1.83 1.76 1.76 1.75 1.65 1.53 1.48
2575.186 1.48 1.53 1.42 1.41 1.41 1.34 1.36 1.37 1.49 1.45
2594.475 1.33 1.4 1.42 1.44 1.47 1.47 1.41 1.4 1.52 1.37
2613.765 1.26 1.4 1.35 1.21 1.18 1.25 1.15 0.87 0.91 0.94
2633.055 0.9 1.02 1.01 0.98 1.02 1.05 1.02 0.97 1 0.89
2652.345 0.9 1.02 1.05 0.94 0.99 1.17 0.96 0.84 0.83 0.77
2671.634 0.75 0.75 0.76 0.88 0.88 0.6 0.58 0.73 0.66 0.63
2690.924 0.69 0.56 0.58 0.81 0.81 0.8 0.81 0.92 1.02 0.95
2710.214 0.87 0.85 0.97 1.03 1.16 1.16 0.97 1.05 1.02 0.91
2729.504 0.88 0.84 0.75 0.73 0.68 0.59 0.7 0.7 0.9 1.01
2748.794 0.95 1.02 0.98 0.85 0.8 0.66 0.64 0.87 0.92 0.91
2768.083 0.94 0.93 1.04 1.14 1.17 1.09 1.15 1.29 1.19 1.05
2787.373 1.08 1.13 1.22 1.18 1.16 1.26 1.11 1.09 1.26 1.58
2806.663 1.67 1.64 1.82 1.9 1.83 1.83 1.87 1.78 1.91 2.06
2825.953 1.98 2.19 2.48 2.61 2.97 3.36 3.68 4.27 5.196 6.1311
2845.242 7.13 8.26 9.07 9.41 9.16 8.28 7.29 6.2453 5.198 4.555
2864.532 4.2 4.05 4.1 4.13 3.96 4.04 4.16 4.4 4.754 4.682
2883.822 4.873 5.184 5.338 5.569 5.9826 6.3786 6.2493 6.52 6.88 7.01
2903.112 7.19 7.05 7.1 7.39 7.61 7.99 8.52 8.55 8.34 8.39
2922.401 8.48 8.13 7.64 7.49 7.47 7.4 7.42 7.63 7.98 8.49
2941.691 9.32 10.48 12.25 14.39 17.2 21.25 26.56 33.66 41.55 47.36
2960.981 49.23 47.28 42.37 34.25 25.31 18.62 14.37 12.04 10.44 9.51
2980.271 9.22 9.01 8.96 9.16 9.37 9.75 10.37 10.94 11.31 11.55
2999.561 11.95 12.22 12.28 12.39 12.55 12.56 12.44 12.88 13.31 13.56
3018.850 14.33 15.34 16.45 17.88 19.56 21.35 23.43 25.92 28.14 29.34
3038.140 29.64 28.94 27.23 24.92 22.51 20.77 19.8 19.41 19.51 20.34
3057.430 21.29 22.32 24.02 26.54 29.92 33.51 36.1 37.07 36.18 33.76
3076.720 30.51 27.27 25.02 23.76 23.16 22.61 22.03 21.4 20.4 19.28
3096.009 18.06 16.68 15.35 13.97 12.54 11.2 9.9 8.94 8.24 7.46
3115.299 6.9 6.57 5.967 5.5527 5.252 4.759 4.38 4.17 4.08 3.62
3134.589 3.16 2.96 2.6 2.46 2.5 2.26 2.17 2.12 1.87 1.87
3153.879 1.92 1.62 1.46 1.43 1.61 1.71 1.55 1.48 1.67 1.58
3173.169 1.23 1.26 1.25 1.17 1.21 1.22 1.11 0.62 0.42 0.74
3192.458 0.65 0.79 1.21 1.35 1.29 1.09 0.86 0.67 0.94 1.01
3211.748 0.75 0.83 0.84 0.85 0.73 0.38 0.47 0.69 0.75 0.68
3231.038 0.51 0.4 0.39 0.61 0.7 0.61 0.68 0.81 0.71 0.64
3250.328 0.68 0.49 0.36 0.45 0.54 0.74 0.69 0.62 0.85 0.71
3269.617 0.62 0.64 0.61 0.6 0.35 0.37 0.54 0.37 0.54 0.51
3288.907 0.4 0.58 0.36 0.24 0.25 0.52 0.77 0.81 0.96 0.85
3308.197 0.76 0.49 0.19 0.5 0.27 0.11 0.49 0.5 0.73 0.67
3327.487 0.47 0.37 0.39 0.79 1.12 1.01 0.65 0.6 0.71 0.73
3346.777 0.9 0.83 0.63 0.82 0.86 0.74 0.65 0.67 0.53 0.59
3366.066 0.75 0.79 0.76 0.35 0.41 0.61 0.47 0.53 0.5 0.37
3385.356 0.48 0.59 0.54 0.21 0.13 0.44 0.41 0.5 0.9 0.85
3404.646 0.87 1.23 1.18 0.85 0.52 0.37 0.77 0.78 0.59 0.51
3423.936 0.67 0.87 0.72 0.73 0.78 1.01 0.83 0.43 0.56 0.9
3443.225 1.03 0.99 0.8 1.09 1.48 1.38 1.36 1.37 1.52 1.87
3462.515 2.14 2.32 2.31 2.31 2.36 2.35 2.19 2.14 2.11 2.07
3481.805 2.4 2.15 1.46 1.25 1.23 1.5 1.47 1.05 0.84 0.76
3501.095 0.76 0.82 0.69 0.47 0.63 0.79 0.77 0.66 0.68 0.61
3520.385 0.62 0.76 0.7 0.54 0.53 0.45 0.57 0.59 0.62 0.59
3539.674 0.34 0.33 0.3 0.47 0.53 0.51 0.67 0.61 0.48 0.29
3558.964 0.22 0.46 0.74 0.58 0.26 0.22 0.28 0.63 0.73 0.36
3578.254 0.19 0.06 0.06 0.36 0.45 0.57 0.54 0.22 0.12 0.27
3597.544 0.34 0.12 0.13 0.4 0.64 0.53 0.2 0.2 0.41 0.42
3616.833 0.37 0.51 0.63 0.47 0.37 0.45 0.33 0.22 0.29 0.31
3636.123 0.26 0.35 0.49 0.53 0.73 0.78 0.68 0.71 0.67 0.68
3655.413 0.75 0.82 0.68 0.57 0.62 0.63 0.7 0.62 0.27 0.33
3674.703 0.6 0.85 0.78 0.63 0.74 0.59 0.58 0.84 0.75 0.45
3693.993 0.34 0.49 0.57 0.54 0.79 1.03 0.9 0.84 1.09 1.06
3713.282 0.72 0.53 0.61 0.62 0.5 0.38 0.59 0.59 0.37 0.27
3732.572 0.18 0.48 0.58 0.65 0.53 0.4 0.53 0.46 0.26 0.39
3751.862 0.44 0.23 0.27 0.42 0.3 0.33 0.59 0.62 0.66 0.58
3771.152 0.71 0.73 0.46 0.42 0.23 0.13 0.13 0.28 0.47 0.36
3790.441 0.37 0.16 0.09 0.31 0.64 0.62 0.59 0.47 0.26 0.56
3809.731 0.51 0.39 0.49 0.56 0.98 0.93 0.68 0.62 0.71 1.01
3829.021 0.62 0.27 0.49 0.58 0.38 0.34 0.42 0.57 0.48 0.16
3848.311 0.02 0.25 0.28 0.07 0.34 0.66 0.78 0.4 0.41 0.49
3867.601 0.28 0.22 0.15 0.57 0.67 0.35 0.53 0.57 0.23 0.16
3886.890 0.55 0.77 1.02 1.11 0.94 0.89 0.56 0.53 0.44 0.17
3906.180 0.3 0.38 0.27 0.2 0.04 0.21 0.65 0.77 0.73 0.6
3925.470 0.58 0.66 0.86 0.88 0.52 0.43 0.75 0.83 0.65 0.53
3944.760 0.39 0.34 0.37 0.4 0.27 0.3 0.71 1.1 0.95 0.78
3964.049 0.51 0 0.09 0.66 0.87 0.66 0.48 0.07 0.41 0.87
3983.339 0.6 0.59 0.72 0.6 0.49 0.77 0.96 0.92 0.96 0.9
##END=
