##TITLE=cis-6-Dodecene
##JCAMP-DX=4.24
##DATA TYPE=INFRARED SPECTRUM
##ORIGIN=EPA-IR VAPOR PHASE LIBRARY
##OWNER=SRD/NIST
Collection (C) 2018 copyright by the U.S. Secretary of Commerce
on behalf of the United States of America. All rights reserved.
##CAS REGISTRY NO=7206-29-3
##MOLFORM=C 12 H 24
##$NIST SOURCE=MSDC-IR
##STATE=gas
##XUNITS=1/CM
##YUNITS=ABSORBANCE
##XFACTOR=1.
##YFACTOR=0.001
##DELTAX=1.929
##FIRSTX=549.8
##LASTX=4000.8
##FIRSTY=0.5506
##MAXX=4000.75
##MINX=549.766
##MAXY=0.12055
##MINY=0
##NPOINTS=1790
##XYDATA=(X++(Y..Y))
549.766 0.5506 0.6189 0.634 0.4771 0.304 0.4802 0.833 1.1452 1.1316 0.9684
569.056 0.9749 1.1022 1.1069 1.1204 1.37 1.56 1.6 1.66 1.71 1.83
588.346 1.83 1.62 1.56 1.59 1.6 1.61 1.57 1.39 1.2071 1.2253
607.636 1.2514 1.2768 1.1839 0.9409 0.97 1.0927 0.9504 0.7926 0.9757 1.145
626.926 1.1944 1.1799 1.2072 1.2786 1.1706 1.2269 1.2505 1.0417 1.2583 1.52
646.216 1.54 1.46 1.38 1.55 1.6 1.64 1.86 1.96 1.97 2.18
665.506 2.46 2.5 2.54 2.66 2.83 2.9 3.12 3.51 3.63 3.8
684.796 4.09 4.36 4.68 4.96 5.12 5.23 5.38 5.6 5.82 6.14
704.086 6.29 6.33 6.44 6.43 6.41 6.49 6.48 6.4 6.3 6.26
723.376 6.22 6.18 6.11 5.92 5.78 5.57 5.33 5.12 4.82 4.52
742.666 4.28 4.08 3.86 3.69 3.53 3.34 3.13 2.96 2.83 2.79
761.956 2.84 2.79 2.64 2.58 2.62 2.66 2.58 2.45 2.32 2.18
781.246 2.02 1.92 1.79 1.65 1.56 1.41 1.2719 1.2036 1.1433 1.0725
800.536 0.9619 0.9699 1.0087 1.0194 0.9059 0.9125 0.8135 0.57 0.6664 0.8431
819.826 1.0956 1.0608 0.9951 1.0645 1.1202 1.158 1.0947 1.1746 1.2611 1.276
839.116 1.3142 1.3152 1.41 1.41 1.3326 1.3644 1.2715 1.2365 1.2163 1.1087
858.406 1.148 1.1414 1.0966 1.0932 1.0638 1.0979 1.07 1.0537 1.0864 0.9996
877.696 1.023 1.0597 1.0356 1.0668 1.066 1.0135 0.903 0.9209 1.0196 1.0382
896.986 0.978 0.9019 0.9698 1.0651 1.0243 1.0153 1.0526 0.9501 0.8593 0.8554
916.276 0.8572 0.9152 0.855 0.7796 0.858 0.9217 0.8524 0.7977 0.7783 0.8694
935.566 0.9379 0.9784 1.1153 1.105 1.1149 1.1582 1.2256 1.38 1.42 1.48
954.856 1.6 1.66 1.74 1.78 1.85 1.95 2.07 2.16 2.24 2.24
974.146 2.21 2.14 2.02 1.98 1.93 1.8 1.69 1.6 1.56 1.5
993.436 1.45 1.44 1.3636 1.2406 1.2293 1.2976 1.2886 1.3086 1.3618 1.3445
1012.726 1.287 1.324 1.351 1.3525 1.3526 1.3337 1.3578 1.4 1.39 1.41
1032.016 1.39 1.41 1.54 1.57 1.52 1.53 1.48 1.3259 1.2973 1.2072
1051.306 1.1123 1.117 1.0581 1.035 1.1085 1.1652 1.1417 1.1536 1.1928 1.1684
1070.596 1.1115 1.0985 1.1549 1.1818 1.1247 1.1379 1.2521 1.2125 1.0772 1.148
1089.886 1.2062 1.2212 1.3458 1.41 1.41 1.49 1.56 1.54 1.51 1.5
1109.176 1.46 1.3633 1.2183 1.1302 1.0613 0.9679 0.8884 0.8325 0.8074 0.7336
1128.467 0.7084 0.8091 0.8238 0.7405 0.6701 0.6907 0.7121 0.7009 0.6768 0.5737
1147.757 0.5481 0.5806 0.5301 0.46544 0.44113 0.43799 0.4796 0.4815 0.45147 0.43008
1167.047 0.41809 0.5223 0.594 0.5268 0.5381 0.598 0.6167 0.6745 0.7125 0.7866
1186.337 0.8249 0.8024 0.8918 0.9029 0.8989 0.9802 1.0422 0.9409 0.823 0.8614
1205.627 0.8935 0.9417 0.9367 1.0504 1.1834 1.1355 1.0802 1.079 1.1078 1.0765
1224.917 1.1478 1.1921 1.197 1.214 1.1 1.0421 1.1992 1.2067 1.1387 1.1777
1244.207 1.1564 1.1259 1.1429 1.2103 1.2447 1.3068 1.3485 1.38 1.47 1.56
1263.497 1.55 1.54 1.65 1.72 1.82 1.88 1.96 2.14 2.23 2.27
1282.787 2.32 2.31 2.3 2.26 2.23 2.21 2.18 2.2 2.23 2.32
1302.077 2.4 2.49 2.59 2.73 2.85 2.85 2.91 2.98 3 2.92
1321.367 2.86 2.87 2.86 2.89 2.92 2.89 2.92 3.07 3.17 3.28
1340.657 3.42 3.54 3.57 3.52 3.48 3.38 3.27 3.23 3.16 3.1
1359.947 3.02 2.93 2.95 2.98 2.94 2.96 3.09 3.26 3.46 3.7
1379.237 3.97 4.15 4.27 4.34 4.29 4.14 3.94 3.84 3.83 3.97
1398.527 4.22 4.42 4.47 4.44 4.39 4.15 3.7 3.31 3.08 2.92
1417.817 2.85 2.87 2.95 3.06 3.23 3.5 3.82 4.16 4.52 4.98
1437.107 5.54 6.12 6.67 7.21 7.76 8.32 8.88 9.47 10.04 10.56
1456.397 11.03 11.44 11.66 11.71 11.61 11.31 10.8 10.15 9.44 8.56
1475.687 7.65 6.76 5.99 5.3 4.65 4.12 3.67 3.26 2.92 2.63
1494.977 2.37 2.19 2.02 1.84 1.73 1.68 1.56 1.43 1.3273 1.2311
1514.267 1.1533 1.1328 1.1104 1.0456 0.9736 0.8675 0.8479 0.8921 0.815 0.7265
1533.557 0.6739 0.6258 0.6263 0.6468 0.6895 0.6659 0.5975 0.5657 0.5391 0.5313
1552.847 0.5716 0.5778 0.6083 0.6224 0.581 0.4863 0.43282 0.46814 0.43499 0.41079
1572.137 0.41476 0.44173 0.5371 0.4933 0.44112 0.4921 0.46172 0.41935 0.40632 0.39511
1591.427 0.41674 0.46422 0.46261 0.4741 0.5048 0.4929 0.5236 0.5361 0.5163 0.5279
1610.717 0.5387 0.5005 0.5433 0.622 0.5953 0.6022 0.6496 0.6885 0.6951 0.7178
1630.007 0.7704 0.7891 0.8113 0.9062 1.0031 1.0563 1.1329 1.2552 1.2841 1.2906
1649.297 1.3334 1.38 1.41 1.3089 1.2038 1.1433 1.119 1.071 1.0256 1.0027
1668.587 0.9608 0.9234 0.9144 0.9315 0.9385 0.9198 0.8569 0.8214 0.8302 0.887
1687.877 0.8477 0.7726 0.7557 0.713 0.7049 0.6847 0.6576 0.5927 0.5416 0.5477
1707.167 0.539 0.4633 0.41755 0.376813 0.36269 0.40562 0.38137 0.3568 0.376763 0.3466
1726.457 0.3293 0.315 0.269 0.248 0.268 0.3009 0.2727 0.254 0.228 0.185
1745.747 0.164 0.183 0.201 0.19 0.232 0.265 0.217 0.203 0.17 0.168
1765.037 0.194 0.138 0.122 0.164 0.155 0.124 0.112 0.104 0.149 0.168
1784.327 0.141 0.117 0.117 0.114 0.138 0.217 0.192 0.158 0.148 0.12
1803.617 0.15 0.118 0.1 0.131 0.108 0.143 0.173 0.189 0.236 0.189
1822.907 0.135 0.126 0.083 0.069 0.12 0.122 0.131 0.173 0.16 0.129
1842.197 0.097 0.078 0.075 0.093 0.09 0.083 0.093 0.065 0.054 0.063
1861.487 0.057 0.058 0.032 0.036 0.084 0.092 0.092 0.099 0.089 0.039
1880.777 0.004 0.029 0.051 0.053 0.046 0.036 0.048 0.049 0.023 0.023
1900.067 0.014 0.01 0.031 0.02 0.018 0.057 0.095 0.111 0.103 0.098
1919.357 0.125 0.136 0.104 0.099 0.119 0.108 0.101 0.125 0.129 0.106
1938.647 0.139 0.168 0.131 0.112 0.112 0.079 0.073 0.093 0.075 0.042
1957.937 0.038 0.031 0.028 0.054 0.06 0.048 0.074 0.087 0.055 0.026
1977.227 0.002 0.002 0.067 0.13 0.086 0.045 0.036 0.034 0.017 0.014
1996.517 0.069 0.11 0.076 0.015 0.081 0.123 0.102 0.073 0.102 0.13
2015.807 0.067 0.038 0.072 0.112 0.082 0.092 0.181 0.254 0.241 0.185
2035.097 0.181 0.163 0.161 0.185 0.219 0.206 0.191 0.207 0.155 0.142
2054.387 0.162 0.2 0.22 0.208 0.17 0.166 0.196 0.144 0.128 0.133
2073.677 0.115 0.084 0.087 0.091 0.088 0.12 0.126 0.093 0.056 0.041
2092.967 0 0.017 0.046 0.034 0.06 0.099 0.114 0.081 0.081 0.087
2112.257 0.074 0.075 0.055 0.048 0.074 0.076 0.054 0.025 0.034 0.074
2131.547 0.091 0.115 0.125 0.11 0.062 0.038 0.07 0.069 0.035 0.034
2150.837 0.072 0.075 0.075 0.118 0.138 0.143 0.13 0.12 0.089 0.038
2170.127 0.057 0.105 0.128 0.116 0.089 0.094 0.061 0.096 0.107 0.075
2189.417 0.101 0.096 0.095 0.129 0.085 0.053 0.115 0.07 0.043 0.098
2208.707 0.101 0.09 0.088 0.079 0.09 0.09 0.1 0.115 0.102 0.029
2227.997 0.026 0.123 0.12 0.057 0.105 0.153 0.144 0.148 0.152 0.154
2247.287 0.166 0.147 0.11 0.122 0.101 0.049 0.053 0.11 0.099 0.064
2266.577 0.113 0.13 0.096 0.071 0.064 0.084 0.117 0.156 0.135 0.163
2285.868 0.175 0.126 0.129 0.136 0.145 0.123 0.084 0.115 0.16 0.138
2305.158 0.125 0.163 0.177 0.136 0.123 0.131 0.152 0.151 0.12 0.104
2324.448 0.091 0.124 0.139 0.1 0.064 0.071 0.129 0.103 0.072 0.161
2343.738 0.241 0.143 0.04 0.075 0.1 0.104 0.112 0.12 0.123 0.113
2363.028 0.092 0.12 0.134 0.15 0.145 0.067 0.11 0.166 0.165 0.185
2382.318 0.212 0.222 0.182 0.152 0.159 0.196 0.207 0.176 0.156 0.156
2401.608 0.161 0.169 0.163 0.158 0.217 0.244 0.169 0.145 0.239 0.2797
2420.898 0.241 0.199 0.143 0.149 0.178 0.157 0.119 0.112 0.089 0.091
2440.188 0.129 0.147 0.158 0.17 0.15 0.101 0.105 0.104 0.11 0.141
2459.478 0.128 0.133 0.127 0.128 0.099 0.06 0.093 0.101 0.142 0.179
2478.768 0.138 0.107 0.155 0.187 0.185 0.191 0.192 0.152 0.15 0.152
2498.058 0.149 0.202 0.223 0.178 0.162 0.151 0.166 0.207 0.212 0.225
2517.348 0.2755 0.3027 0.2761 0.267 0.267 0.3595 0.38118 0.281 0.2811 0.3281
2536.638 0.3593 0.3824 0.3525 0.3413 0.3473 0.377893 0.4067 0.40566 0.38716 0.3569
2555.928 0.36365 0.39947 0.41147 0.3962 0.44132 0.5021 0.45786 0.39515 0.38487 0.42576
2575.218 0.4727 0.5128 0.4976 0.4919 0.5247 0.5199 0.5157 0.5035 0.5524 0.6805
2594.508 0.6867 0.5002 0.43952 0.4796 0.5096 0.5667 0.5723 0.515 0.5301 0.6258
2613.798 0.6639 0.6341 0.664 0.7312 0.81 0.8238 0.7273 0.774 0.8151 0.7915
2633.088 0.8081 0.8377 0.8831 0.9075 0.8417 0.8131 0.8966 0.8934 0.8813 0.9517
2652.378 0.9829 1.0562 1.1225 1.1242 1.2144 1.2504 1.207 1.2473 1.3397 1.3567
2671.668 1.2819 1.2357 1.2047 1.1271 1.1228 1.17 1.1981 1.1767 1.1425 1.0967
2690.958 1.0943 1.1948 1.1583 1.1084 1.1325 1.1264 1.1013 1.1122 1.1142 1.1187
2710.248 1.177 1.1887 1.1655 1.2055 1.263 1.2797 1.3432 1.3533 1.42 1.47
2729.538 1.47 1.56 1.67 1.72 1.72 1.72 1.72 1.84 1.91 1.83
2748.828 1.83 1.87 1.83 1.82 1.82 1.83 1.86 1.89 1.91 1.96
2768.118 1.99 2.03 2.15 2.23 2.32 2.39 2.46 2.55 2.68 2.77
2787.408 2.88 3.01 3.12 3.31 3.46 3.62 3.85 3.97 4.1 4.28
2806.698 4.47 4.71 4.95 5.19 5.45 5.72 5.99 6.35 6.76 7.26
2825.988 7.85 8.46 9.18 9.93 10.75 11.81 12.95 14.17 15.6 17.28
2845.278 19.36 21.87 24.6 27.46 30.77 34.26 37.57 40.74 43.69 46.12
2864.568 47.77 48.75 49.17 48.99 48.46 47.77 47.04 46.36 45.6 44.79
2883.858 43.94 43.01 41.96 40.98 40.18 39.71 39.72 40.28 41.43 42.97
2903.148 44.84 47.33 50.34 53.67 57.54 62.13 67.47 73.34 79.83 86.96
2922.438 94.38 101.67 108.28 113.82 117.98 120.24 120.55 119.06 115.86 111.39
2941.728 105.97 100.06 94.02 88.15 83.02 78.91 76.11 74.75 74.61 75.65
2961.018 77.46 79.32 80.39 79.81 77.31 72.97 67.18 60.31 52.93 45.86
2980.308 39.71 34.59 30.32 26.82 24.12 22.17 20.77 19.85 19.41 19.5
2999.598 20.06 21.06 22.36 23.8 25.04 25.95 26.27 25.8 24.87 23.36
3018.888 21.42 19.25 16.83 14.55 12.4 10.52 9.1 7.95 7.03 6.31
3038.178 5.81 5.32 4.98 4.78 4.53 4.27 3.97 3.81 3.67 3.49
3057.468 3.44 3.47 3.43 3.4 3.36 3.22 3.05 2.96 2.94 2.84
3076.758 2.75 2.62 2.42 2.32 2.29 2.21 2.08 1.98 1.94 1.95
3096.048 2.02 2.03 1.83 1.65 1.64 1.65 1.63 1.61 1.58 1.55
3115.338 1.56 1.45 1.45 1.43 1.37 1.345 1.3087 1.3486 1.2744 1.1943
3134.628 1.2438 1.2525 1.2011 1.2176 1.3406 1.2506 1.047 1.05 1.0544 1.0982
3153.918 1.1207 1.1101 1.1274 0.9434 0.8656 0.9421 0.926 0.8832 0.8939 0.8785
3173.208 0.9171 0.9437 0.832 0.7924 0.7721 0.7582 0.886 0.8729 0.8288 0.8798
3192.498 0.7903 0.7799 0.8083 0.7005 0.6116 0.5929 0.5437 0.5946 0.6436 0.5945
3211.788 0.5702 0.4719 0.46551 0.5943 0.6072 0.5452 0.5916 0.5931 0.459 0.36655
3231.078 0.46269 0.5594 0.5274 0.46239 0.44852 0.43754 0.377031 0.369204 0.3992 0.41306
3250.368 0.36346 0.2998 0.4074 0.5189 0.377555 0.234 0.23 0.254 0.27 0.2749
3269.658 0.38793 0.45335 0.43214 0.473 0.4788 0.42494 0.3595 0.40286 0.45849 0.5099
3288.948 0.44335 0.36735 0.39991 0.4357 0.481 0.36124 0.3192 0.2953 0.225 0.2913
3308.238 0.40225 0.41626 0.2949 0.2804 0.40787 0.4743 0.372472 0.231 0.237 0.176
3327.528 0.054 0.135 0.265 0.3013 0.3166 0.2893 0.2814 0.207 0.127 0.2982
3346.818 0.42715 0.46669 0.45919 0.36727 0.41372 0.41486 0.266 0.223 0.232 0.3449
3366.108 0.41006 0.2944 0.266 0.2903 0.3382 0.3062 0.261 0.38633 0.3959 0.3231
3385.398 0.304 0.372158 0.374725 0.2897 0.272 0.167 0.169 0.2819 0.2846 0.232
3404.688 0.177 0.263 0.2813 0.198 0.189 0.193 0.2826 0.42188 0.2818 0.188
3423.978 0.3106 0.377243 0.36625 0.3202 0.316 0.3 0.2773 0.219 0.218 0.241
3443.269 0.195 0.237 0.262 0.186 0.248 0.2778 0.206 0.202 0.147 0.173
3462.559 0.242 0.268 0.39916 0.4723 0.38668 0.186 0.182 0.3591 0.2923 0.266
3481.849 0.3493 0.2723 0.2807 0.3151 0.2731 0.3134 0.379611 0.28 0.12 0.219
3501.139 0.257 0.174 0.222 0.257 0.208 0.21 0.2851 0.267 0.195 0.213
3520.429 0.233 0.141 0.093 0.177 0.177 0.132 0.179 0.205 0.204 0.235
3539.719 0.204 0.199 0.2925 0.3351 0.33 0.3152 0.223 0.173 0.221 0.186
3559.009 0.062 0.041 0.121 0.251 0.3288 0.3165 0.3291 0.197 0.156 0.3195
3578.299 0.4748 0.40715 0.264 0.25 0.234 0.185 0.243 0.3131 0.264 0.3043
3597.589 0.3227 0.3273 0.37652 0.39185 0.3869 0.3189 0.231 0.253 0.3316 0.36306
3616.879 0.3974 0.3402 0.2948 0.44665 0.369501 0.3391 0.46032 0.4906 0.43097 0.4419
3636.169 0.6073 0.4978 0.3265 0.253 0.246 0.3144 0.39985 0.41537 0.427 0.40827
3655.459 0.3311 0.2702 0.2992 0.3365 0.3012 0.3308 0.3346 0.36349 0.36007 0.269
3674.749 0.377035 0.5087 0.5814 0.5797 0.45963 0.38411 0.46468 0.4885 0.36638 0.39622
3694.039 0.43878 0.3518 0.2902 0.3161 0.3229 0.39012 0.5338 0.5218 0.505 0.4806
3713.329 0.3508 0.3014 0.3069 0.39113 0.45128 0.369928 0.36462 0.375412 0.375504 0.373884
3732.619 0.3185 0.2771 0.2837 0.3009 0.346 0.3441 0.213 0.218 0.3453 0.42308
3751.909 0.4774 0.5544 0.505 0.46063 0.5239 0.43664 0.37734 0.4234 0.39989 0.39361
3771.199 0.3581 0.242 0.207 0.2969 0.3126 0.268 0.183 0.249 0.4787 0.4719
3790.489 0.43358 0.42504 0.5275 0.709 0.5555 0.41897 0.2868 0.243 0.40372 0.4251
3809.779 0.41013 0.3492 0.237 0.22 0.373907 0.3575 0.2754 0.3408 0.3273 0.3382
3829.069 0.3423 0.41552 0.44424 0.38912 0.42563 0.41406 0.43127 0.3126 0.207 0.2938
3848.359 0.43041 0.5018 0.46492 0.40974 0.4199 0.4813 0.45439 0.45943 0.41979 0.39741
3867.649 0.41384 0.3451 0.38434 0.43767 0.5179 0.4783 0.36663 0.39713 0.41479 0.45701
3886.939 0.38289 0.3343 0.3597 0.39209 0.4806 0.38087 0.2747 0.40807 0.4199 0.261
3906.229 0.2708 0.3329 0.3285 0.225 0.18 0.2773 0.37828 0.4731 0.38833 0.3397
3925.519 0.4703 0.4878 0.378693 0.379626 0.301 0.218 0.173 0.196 0.2798 0.275
3944.809 0.2721 0.3404 0.41103 0.3569 0.36747 0.40445 0.42697 0.5339 0.6321 0.5932
3964.099 0.4561 0.4816 0.5789 0.5106 0.4962 0.5452 0.5484 0.5397 0.4806 0.4753
3983.389 0.5211 0.4723 0.46501 0.39035 0.3259 0.5059 0.5333 0.42709 0.40471 0.5031
##END=
