##TITLE=3-(Trifluoromethyl)-.alpha.,.alpha.,.alpha.-trifluoroacetophenone
##JCAMP-DX=4.24
##DATA TYPE=INFRARED SPECTRUM
##ORIGIN=EPA-IR VAPOR PHASE LIBRARY
##OWNER=SRD/NIST
Collection (C) 2018 copyright by the U.S. Secretary of Commerce
on behalf of the United States of America. All rights reserved.
##CAS REGISTRY NO=721-37-9
##MOLFORM=C 9 H 4 F 6 O
##$NIST SOURCE=MSDC-IR
##STATE=gas
##XUNITS=1/CM
##YUNITS=ABSORBANCE
##XFACTOR=1.
##YFACTOR=0.001
##DELTAX=1.929
##FIRSTX=549.8
##LASTX=4000.8
##FIRSTY=1.3647
##MAXX=4000.75
##MINX=549.766
##MAXY=0.38205
##MINY=0
##NPOINTS=1790
##XYDATA=(X++(Y..Y))
549.766 1.3647 1.443 1.2389 0.9769 1.07383 1.03095 1.00666 1.09686 1.1799 1.5177
569.056 1.687 1.8621 1.9846 2.07 2.33 2.51 2.44 2.3 2.44 2.4
588.346 2.4 2.29 1.9749 1.9802 2.09 2.26 2.32 2.42 2.65 2.79
607.636 2.9 2.97 2.86 2.67 2.4 2.08 1.8697 1.6015 1.3876 1.2304
626.926 1.2391 1.2899 1.2237 1.3712 1.5897 2.02 2.63 3.31 4.18 5.18
646.216 6.16 6.73 6.78 6.71 6.53 5.86 4.97 4.32 4.04 3.93
665.506 4.1 4.67 5.49 6.75 9.56 15.4 25.73 37.22 43.98 48
684.796 52.84 55.36 52.93 49.1 47.07 45.48 42.3 36.18 27.47 19.61
704.086 14.18 10.63 8.32 6.64 5.47 4.77 4.27 3.96 3.75 3.41
723.376 3.25 3.09 3.02 3.37 3.85 4.44 5.55 7.23 9.2 11.18
742.666 12.9 14.42 15.87 16.66 16.94 17.46 18.42 19.3 19.22 17.97
761.956 16.03 13.97 11.78 9.67 7.9 6.44 5.26 4.42 3.98 3.67
781.246 3.52 3.33 3.26 3.37 3.59 4.1 4.67 5.36 6.09 6.64
800.536 7.1 7.61 8.1 8.72 9.57 10.65 11.29 10.92 10.28 9.33
819.826 7.69 5.93 4.42 3.25 2.53 2.14 1.8746 1.6951 1.6025 1.5254
839.116 1.4394 1.3757 1.2936 1.2211 1.1717 1.1468 1.1821 1.1183 1.0837 1.1097
858.406 1.1468 1.2585 1.2434 1.1724 1.2063 1.2981 1.3832 1.4551 1.5184 1.5641
877.696 1.5926 1.5902 1.6148 1.6603 1.7189 1.8014 1.7995 1.8397 1.9815 2.14
896.986 2.28 2.41 2.63 3.03 3.5 4 4.58 5.2 5.65 5.87
916.276 5.98 6.11 6.28 6.42 6.61 6.63 6.55 6.44 6.32 6.25
935.566 6.27 6.4 6.66 7.22 8.22 9.76 11.96 15.09 19.25 23.9
954.856 28.47 32.28 34.58 35.31 34.58 32.24 28.92 25.77 23.86 23.5
974.146 23.84 24 23.35 21.57 18.6 14.63 10.6 7.63 5.91 5
993.436 4.51 4.16 3.95 3.8 3.65 3.52 3.36 3.22 3.08 2.91
1012.726 2.8 2.67 2.65 2.68 2.66 2.58 2.56 2.62 2.66 2.75
1032.016 2.78 2.8 2.86 2.99 3.15 3.29 3.41 3.62 3.86 4.15
1051.306 4.48 4.87 5.35 5.95 6.82 8.05 9.83 12.24 15.42 19.66
1070.596 24.81 30.45 35.68 39.47 41.54 41.74 39.81 35.8 30.93 26.9
1089.886 24.41 23.25 22.86 22.84 22.75 22.21 21.25 19.87 18.38 17.11
1109.176 16.24 15.77 15.87 16.58 17.61 19.08 20.77 22.64 24.91 27.51
1128.467 30.78 34.99 40.36 47.29 56.13 67.31 81.44 98.88 119.77 144.19
1147.757 171.76 201.38 231.21 258.8 281.38 297.18 307.36 315.02 323.21 335.05
1167.047 350.46 365.66 377.14 382.05 375.84 355.28 323.16 286.05 248.44 211.94
1186.337 178.69 150.75 128.96 112.99 102.24 96.08 94.24 96.79 103.54 113.55
1205.627 125.43 137.34 146.8 151.46 149.91 142.36 129.93 114.19 97.15 80.92
1224.917 66.91 55.72 47.02 40.21 34.8 30.26 26.27 22.78 19.71 17.21
1244.207 15.41 14.01 12.9 12.1 11.66 11.37 11.1 10.89 10.74 10.6
1263.497 10.46 10.49 10.51 10.57 10.67 10.96 11.45 12 12.79 13.78
1282.787 14.78 15.79 16.86 17.92 19.12 20.59 22.55 25.38 29.27 34.38
1302.077 40.66 47.68 55.21 62.54 68.98 74.14 77.88 80.24 81.29 81.24
1321.367 80.06 78.14 76.19 75 75.14 76.61 79.31 82.29 83.94 82.82
1340.657 78.33 70.71 60.71 49.81 39.43 30.54 23.4 17.89 13.91 11.14
1359.947 9.3 7.96 6.95 6.28 5.79 5.31 4.93 4.62 4.29 4.03
1379.237 3.86 3.78 3.64 3.39 3.27 3.25 3.17 3.07 3.03 3.09
1398.527 3.09 3.06 3.08 3.09 3.12 3.15 3.17 3.12 3.11 3.21
1417.817 3.29 3.54 3.89 4.29 4.95 5.86 7.06 8.44 9.8 10.77
1437.107 11.21 11.07 10.23 8.79 6.97 5.18 3.87 3.06 2.5 2.18
1456.397 1.9414 1.8199 1.8202 1.7897 1.7542 1.7213 1.7348 1.7718 1.7631 1.7881
1475.687 1.9012 2.06 2.14 2.25 2.44 2.51 2.57 2.65 2.65 2.59
1494.977 2.49 2.37 2.22 2.07 1.9395 1.7963 1.6909 1.6899 1.7282 1.6737
1514.267 1.5484 1.4671 1.4536 1.3756 1.2656 1.2894 1.2803 1.2262 1.1952 1.1837
1533.557 1.1605 1.1821 1.16 1.09459 1.1522 1.2193 1.2142 1.2041 1.2319 1.2848
1552.847 1.2782 1.2445 1.2603 1.3198 1.4816 1.6372 1.7408 1.8042 1.8084 1.8681
1572.137 2.07 2.25 2.4 2.65 2.99 3.34 3.71 4.19 4.71 5.21
1591.427 5.64 6.04 6.31 6.53 6.86 7.34 8.08 9.15 10.45 11.8
1610.717 12.87 13.46 13.4 12.56 11.2 9.55 7.84 6.39 5.33 4.57
1630.007 3.95 3.45 3.03 2.68 2.49 2.36 2.22 2.12 2.06 2.06
1649.297 2.05 1.9364 1.8751 2.01 2.05 2.03 1.9954 1.9396 1.9282 1.9427
1668.587 1.9211 1.9149 1.9683 1.9841 2.1 2.22 2.28 2.45 2.63 2.89
1687.877 3.12 3.34 3.67 3.93 4.18 4.42 4.68 5 5.26 5.57
1707.167 6.01 6.63 7.42 8.43 9.7 11.24 13.28 15.87 19.4 24.13
1726.457 30.35 38.14 47.42 57 66.12 72.73 75.46 74.17 68.75 59.77
1745.747 49.09 38.9 30.53 24.05 19.37 16.06 13.52 11.73 10.39 9.31
1765.037 8.45 7.69 6.97 6.29 5.68 5.1 4.58 4.13 3.74 3.42
1784.327 3.15 2.88 2.69 2.55 2.39 2.28 2.18 2.09 1.9978 1.924
1803.617 1.8807 1.872 1.8899 1.8861 1.9206 2.01 2.09 2.13 2.17 2.16
1822.907 2.08 2.01 1.9796 1.905 1.7862 1.7721 1.7374 1.7077 1.7042 1.6894
1842.197 1.6981 1.6783 1.6359 1.6777 1.6791 1.589 1.5454 1.538 1.5128 1.4525
1861.487 1.4213 1.4062 1.4004 1.3707 1.3588 1.3532 1.2966 1.2772 1.2795 1.2977
1880.777 1.2959 1.3079 1.3351 1.3514 1.3746 1.4008 1.4583 1.5379 1.5952 1.6541
1900.067 1.7466 1.8445 2 2.15 2.28 2.41 2.43 2.4 2.36 2.31
1919.357 2.2 2.06 1.9649 1.9171 1.8282 1.7179 1.6124 1.489 1.3821 1.3252
1938.647 1.2763 1.2145 1.1855 1.2163 1.2555 1.2692 1.3333 1.432 1.4689 1.4985
1957.937 1.566 1.646 1.7107 1.7374 1.7698 1.7792 1.6891 1.5674 1.5021 1.4592
1977.227 1.3903 1.3325 1.2815 1.1822 1.0774 0.9865 0.961 0.9517 0.9505 0.944
1996.517 0.9081 0.9316 0.9348 0.887 0.865 0.871 0.875 0.876 0.884 0.885
2015.807 0.842 0.792 0.757 0.777 0.811 0.771 0.73 0.742 0.797 0.836
2035.097 0.804 0.779 0.775 0.748 0.765 0.822 0.813 0.816 0.866 0.868
2054.387 0.845 0.83 0.828 0.833 0.83 0.806 0.844 0.88 0.867 0.878
2073.677 0.871 0.9059 0.939 0.9163 0.892 0.878 0.876 0.886 0.877 0.86
2092.967 0.846 0.889 0.9669 0.9445 0.9291 0.9342 1.01139 1.07494 1.0463 1.08143
2112.257 1.08442 1.04809 1.05909 1.04247 1.03593 1.0923 1.1174 1.1423 1.1257 1.1005
2131.547 1.1201 1.1096 1.1075 1.1039 1.09236 1.07418 1.1045 1.154 1.07975 1.04116
2150.837 1.04806 1.01096 0.999673 1.03555 1.02981 0.9914 0.9661 0.9381 0.9196 0.881
2170.127 0.863 0.89 0.893 0.882 0.874 0.882 0.891 0.887 0.878 0.857
2189.417 0.9118 1.01569 0.9747 0.888 0.9308 0.9092 0.869 0.873 0.887 0.899
2208.707 0.9096 0.9235 0.888 0.9287 0.9546 0.9777 1.00689 0.9785 1.03914 1.09004
2227.997 1.06573 1.1058 1.1471 1.1151 1.1049 1.1526 1.1575 1.1338 1.1479 1.1778
2247.287 1.1944 1.1912 1.2151 1.244 1.2715 1.3045 1.3195 1.2546 1.2862 1.3916
2266.577 1.3334 1.3146 1.3679 1.3733 1.4018 1.4443 1.4822 1.5333 1.5359 1.5408
2285.868 1.5704 1.5989 1.6675 1.7083 1.7231 1.7405 1.7509 1.7074 1.6906 1.7369
2305.158 1.6845 1.6235 1.6153 1.6145 1.6078 1.5807 1.535 1.4937 1.5413 1.5023
2324.448 1.4511 1.4975 1.439 1.4182 1.5094 1.5008 1.4544 1.5298 1.5431 1.4963
2343.738 1.4859 1.5404 1.6175 1.6571 1.6561 1.5672 1.5428 1.5779 1.5563 1.5809
2363.028 1.6055 1.568 1.5062 1.4505 1.4936 1.5105 1.4326 1.3492 1.3381 1.3284
2382.318 1.2949 1.279 1.2482 1.2637 1.2754 1.2549 1.273 1.1988 1.1676 1.1705
2401.608 1.1082 1.04842 1.0869 1.1544 1.1156 1.1111 1.08144 1.06459 1.1192 1.13
2420.898 1.1318 1.09003 1.07386 1.06014 1.04488 1.05892 1.04696 0.99589 0.9233 0.9505
2440.188 0.9691 1.00109 1.05574 1.00711 0.958 0.972 0.9868 1.00928 1.04566 1.03929
2459.478 1.02561 1.04158 1.0242 1.02518 1.1119 1.1598 1.1827 1.2111 1.2245 1.2244
2478.768 1.2016 1.1792 1.1991 1.2413 1.241 1.2204 1.2092 1.2231 1.2219 1.21
2498.058 1.2294 1.2312 1.2271 1.2793 1.3147 1.2746 1.2548 1.2385 1.22 1.2491
2517.348 1.2479 1.2783 1.3019 1.2558 1.243 1.2139 1.1797 1.1605 1.1335 1.1316
2536.638 1.1149 1.09032 1.07299 1.06647 1.0127 0.9834 0.9836 0.983 0.9615 0.9188
2555.928 0.9623 1.00336 1.04309 0.9792 0.866 0.832 0.851 0.9503 0.9504 0.87
2575.218 0.88 0.892 0.9 0.897 0.894 0.9031 0.88 0.9229 0.9245 0.878
2594.508 0.9201 0.9289 0.9184 0.9719 0.97 0.9398 0.9115 0.9322 1.00795 1.05639
2613.798 0.9654 0.9408 0.9592 0.866 0.879 0.876 0.842 0.871 0.869 0.874
2633.088 0.888 0.889 0.876 0.857 0.829 0.786 0.781 0.795 0.778 0.749
2652.378 0.749 0.744 0.755 0.803 0.836 0.809 0.808 0.863 0.843 0.813
2671.668 0.788 0.759 0.764 0.768 0.754 0.774 0.786 0.72 0.731 0.716
2690.958 0.709 0.697 0.686 0.731 0.749 0.767 0.743 0.736 0.765 0.735
2710.248 0.743 0.801 0.779 0.73 0.742 0.794 0.809 0.779 0.771 0.755
2729.538 0.771 0.815 0.807 0.773 0.766 0.708 0.715 0.755 0.758 0.743
2748.828 0.753 0.759 0.674 0.688 0.772 0.787 0.759 0.802 0.826 0.884
2768.118 0.9064 0.894 0.9145 0.9178 0.866 0.826 0.78 0.702 0.763 0.843
2787.408 0.843 0.771 0.699 0.738 0.787 0.769 0.795 0.774 0.734 0.78
2806.698 0.764 0.727 0.657 0.636 0.566 0.587 0.691 0.63 0.587 0.594
2825.988 0.662 0.708 0.75 0.651 0.576 0.642 0.626 0.566 0.53 0.55
2845.278 0.58 0.529 0.445 0.53 0.584 0.557 0.619 0.691 0.679 0.624
2864.568 0.585 0.577 0.577 0.495 0.427 0.459 0.554 0.616 0.561 0.561
2883.858 0.625 0.623 0.599 0.533 0.511 0.594 0.606 0.575 0.686 0.657
2903.148 0.59 0.695 0.715 0.722 0.742 0.786 0.779 0.779 0.813 0.757
2922.438 0.664 0.611 0.698 0.826 0.848 0.791 0.696 0.672 0.738 0.751
2941.728 0.748 0.792 0.813 0.815 0.851 0.854 0.9276 0.904 0.732 0.657
2961.018 0.657 0.707 0.698 0.617 0.576 0.639 0.705 0.67 0.627 0.555
2980.308 0.543 0.599 0.647 0.612 0.532 0.548 0.616 0.648 0.57 0.503
2999.598 0.516 0.502 0.472 0.392 0.324 0.369 0.483 0.497 0.471 0.493
3018.888 0.494 0.503 0.487 0.561 0.59 0.593 0.575 0.522 0.557 0.652
3038.178 0.772 0.793 0.836 0.839 0.775 0.862 0.99647 1.05839 1.02204 0.9897
3057.468 0.9421 0.9589 1.1636 1.2579 1.3024 1.4261 1.5773 1.8942 2.19 2.48
3076.758 2.92 3.32 3.58 3.76 3.91 3.84 3.71 3.52 3.21 2.83
3096.048 2.48 2.15 1.7896 1.612 1.4648 1.2659 1.08289 0.9081 0.818 0.806
3115.338 0.685 0.64 0.708 0.568 0.443 0.497 0.58 0.595 0.488 0.419
3134.628 0.396 0.441 0.445 0.363 0.28 0.229 0.352 0.39 0.402 0.457
3153.918 0.444 0.487 0.357 0.309 0.448 0.471 0.44 0.436 0.523 0.507
3173.208 0.479 0.42 0.341 0.416 0.445 0.389 0.358 0.392 0.381 0.329
3192.498 0.342 0.393 0.453 0.488 0.385 0.409 0.492 0.418 0.339 0.296
3211.788 0.438 0.432 0.314 0.41 0.376 0.3 0.284 0.225 0.273 0.331
3231.078 0.319 0.255 0.24 0.321 0.253 0.209 0.244 0.182 0.241 0.248
3250.368 0.287 0.376 0.253 0.235 0.258 0.216 0.161 0.101 0.179 0.281
3269.658 0.246 0.184 0.176 0.145 0.214 0.325 0.261 0.206 0.197 0.149
3288.948 0.153 0.181 0.188 0.247 0.223 0.129 0.117 0.103 0.114 0.121
3308.238 0.128 0.229 0.225 0.268 0.34 0.295 0.326 0.236 0.114 0.173
3327.528 0.221 0.189 0.226 0.391 0.364 0.215 0.206 0.287 0.267 0.249
3346.818 0.295 0.339 0.308 0.174 0.229 0.211 0.126 0.134 0.183 0.252
3366.108 0.236 0.295 0.294 0.251 0.185 0.177 0.279 0.318 0.238 0.199
3385.398 0.186 0.237 0.297 0.262 0.204 0.264 0.387 0.341 0.299 0.344
3404.688 0.375 0.417 0.509 0.358 0.281 0.356 0.422 0.589 0.629 0.575
3423.978 0.629 0.584 0.515 0.504 0.541 0.672 0.638 0.791 0.9155 0.826
3443.269 0.9414 1.01419 1.05292 1.2196 1.3118 1.3212 1.3384 1.401 1.4563 1.355
3462.559 1.2401 1.1938 1.0611 1.02133 0.9582 0.84 0.681 0.609 0.597 0.555
3481.849 0.562 0.448 0.41 0.486 0.505 0.442 0.34 0.176 0.136 0.29
3501.139 0.432 0.408 0.343 0.371 0.323 0.212 0.175 0.245 0.449 0.576
3520.429 0.515 0.452 0.345 0.301 0.276 0.296 0.361 0.281 0.394 0.46
3539.719 0.345 0.319 0.382 0.494 0.425 0.235 0.274 0.311 0.188 0.123
3559.009 0.192 0.209 0.279 0.326 0.257 0.253 0.256 0.203 0.227 0.28
3578.299 0.277 0.304 0.305 0.289 0.341 0.335 0.239 0.227 0.165 0.079
3597.589 0.211 0.215 0.122 0.242 0.328 0.353 0.379 0.367 0.324 0.232
3616.879 0.151 0.023 0 0.067 0.203 0.397 0.49 0.423 0.433 0.473
3636.169 0.37 0.373 0.405 0.353 0.294 0.208 0.24 0.32 0.333 0.273
3655.459 0.178 0.251 0.294 0.278 0.342 0.437 0.417 0.313 0.226 0.25
3674.749 0.261 0.262 0.409 0.405 0.341 0.324 0.334 0.275 0.26 0.431
3694.039 0.345 0.37 0.507 0.442 0.456 0.554 0.514 0.401 0.384 0.355
3713.329 0.469 0.538 0.513 0.616 0.552 0.372 0.345 0.422 0.4 0.284
3732.619 0.358 0.518 0.545 0.492 0.433 0.527 0.5 0.328 0.393 0.492
3751.909 0.482 0.496 0.434 0.309 0.4 0.541 0.459 0.358 0.408 0.491
3771.199 0.478 0.546 0.635 0.567 0.562 0.658 0.691 0.612 0.472 0.495
3790.489 0.622 0.662 0.695 0.652 0.561 0.459 0.375 0.413 0.504 0.51
3809.779 0.476 0.532 0.591 0.544 0.576 0.517 0.41 0.491 0.479 0.404
3829.069 0.371 0.38 0.355 0.365 0.421 0.361 0.4 0.566 0.597 0.512
3848.359 0.489 0.357 0.12 0.301 0.505 0.358 0.248 0.312 0.492 0.52
3867.649 0.412 0.402 0.361 0.338 0.426 0.564 0.55 0.517 0.503 0.36
3886.939 0.405 0.432 0.441 0.502 0.439 0.425 0.467 0.586 0.609 0.578
3906.229 0.598 0.656 0.573 0.421 0.428 0.592 0.726 0.591 0.544 0.524
3925.519 0.419 0.41 0.445 0.43 0.48 0.515 0.604 0.685 0.628 0.572
3944.809 0.635 0.629 0.576 0.632 0.61 0.656 0.673 0.577 0.49 0.473
3964.099 0.551 0.578 0.573 0.685 0.637 0.576 0.644 0.744 0.732 0.566
3983.389 0.502 0.656 0.82 0.722 0.737 0.792 0.644 0.591 0.678 0.773
##END=
