##TITLE=Prilocaine
##JCAMP-DX=4.24
##DATA TYPE=INFRARED SPECTRUM
##ORIGIN=NIST Mass Spectrometry Data Center
##OWNER=NIST Standard Reference Data Program
Collection (C) 2018 copyright by the U.S. Secretary of Commerce
on behalf of the United States of America. All rights reserved.
##CAS REGISTRY NO=721-50-6
##MOLFORM=C 13 H 20 N 2 O
##$NIST SOURCE=MSDC-IR
##SPECTROMETER/DATA SYSTEM=HP-GC/MS/IRD
##STATE=gas
##XUNITS=1/CM
##YUNITS=ABSORBANCE
##XFACTOR=1.0
##YFACTOR=0.000001300
##DELTAX=4.0
##FIRSTX=550.0
##LASTX=3846.0
##FIRSTY=0.000997
##MAXX=3846
##MINX=550
##MAXY=0.013
##MINY=0
##NPOINTS=825
##XYDATA=(X++(Y..Y))
550.0 767 588 408 366 432 494 474 471 441 426
590.0 407 346 348 352 362 384 359 352 369 383
630.0 335 366 463 458 431 470 501 513 527 558
670.0 588 603 627 629 598 595 666 739 783 904
710.0 1009 1024 1052 1160 1329 1586 1999 2486 2964 3288
750.0 3258 2755 2007 1353 913 697 582 512 476 441
790.0 391 347 297 244 217 184 171 140 72 64
830.0 37 23 52 52 73 83 97 128 129 112
870.0 98 114 138 140 134 139 159 201 241 252
910.0 273 275 258 243 236 256 268 226 215 199
950.0 142 118 107 87 87 102 125 156 217 289
990.0 334 355 332 309 314 305 317 361 423 501
1030.0 575 676 775 884 952 900 792 704 641 641
1070.0 655 648 634 636 642 618 610 668 734 885
1110.0 1167 1462 1774 2063 2287 2446 2455 2321 2161 2056
1150.0 1981 1868 1720 1542 1367 1192 1048 959 917 954
1190.0 977 952 907 863 813 767 746 730 741 805
1230.0 943 1161 1429 1660 1748 1623 1401 1180 1030 988
1270.0 1016 1111 1256 1492 1823 2194 2496 2527 2255 1854
1310.0 1523 1345 1254 1192 1082 939 836 763 734 733
1350.0 740 769 853 968 1133 1328 1506 1599 1589 1503
1390.0 1384 1230 1138 1151 1226 1325 1430 1589 1846 2238
1430.0 2794 3514 4479 5690 6975 7944 8171 7598 6677 5864
1470.0 5330 5058 5028 5201 5521 5941 6403 6916 7489 8153
1510.0 8903 9616 10000 9631 8406 6709 5069 3817 2960 2368
1550.0 1949 1670 1499 1412 1424 1554 1826 2269 2829 3223
1590.0 3179 2695 2071 1601 1289 1039 849 706 625 583
1630.0 546 515 491 479 488 504 527 560 629 717
1670.0 832 941 1062 1207 1407 1718 2151 2837 3910 5354
1710.0 7053 8527 9062 8272 6487 4552 3072 2122 1551 1189
1750.0 949 794 685 593 524 469 423 399 372 343
1790.0 311 281 259 217 188 171 167 166 147 134
1830.0 123 112 111 89 76 77 77 75 68 68
1870.0 73 74 87 81 68 86 105 110 117 113
1910.0 107 100 87 84 85 96 108 110 96 72
1950.0 61 49 34 17 8 27 31 24 30 37
1990.0 26 11 10 10 4 16 27 18 21 26
2030.0 20 14 21 27 16 6 2 0 3 16
2070.0 20 24 36 36 32 34 33 30 30 28
2110.0 23 33 40 25 20 32 52 49 36 34
2150.0 41 37 24 27 25 25 28 20 28 35
2190.0 39 46 36 23 28 44 37 27 34 35
2230.0 33 33 35 26 25 29 37 39 38 53
2270.0 46 41 56 66 66 56 50 45 45 39
2310.0 46 57 55 57 56 52 46 39 35 44
2350.0 52 48 50 48 40 37 44 53 48 49
2390.0 48 38 44 42 40 46 41 48 64 64
2430.0 45 42 46 57 62 50 54 54 48 54
2470.0 52 36 31 31 37 26 24 43 44 37
2510.0 25 19 22 22 31 49 62 44 26 47
2550.0 66 74 69 56 64 69 70 68 62 79
2590.0 89 72 64 83 83 64 58 59 63 62
2630.0 50 58 73 77 86 85 75 66 52 55
2670.0 80 92 91 93 93 102 115 115 119 133
2710.0 150 157 159 181 203 205 203 218 222 223
2750.0 222 219 229 224 221 248 266 277 282 290
2790.0 326 369 408 458 508 574 668 770 882 1023
2830.0 1194 1350 1486 1568 1582 1575 1619 1723 1892 2125
2870.0 2366 2576 2732 2817 2783 2680 2525 2402 2344 2332
2910.0 2389 2508 2675 2948 3331 3764 4128 4268 4113 3760
2950.0 3390 3199 3355 3906 4563 4892 4656 4048 3386 2791
2990.0 2291 1895 1569 1300 1085 938 902 952 1030 1115
3030.0 1149 1130 1072 1028 1036 1063 1111 1187 1291 1371
3070.0 1393 1352 1220 1048 855 698 589 496 422 368
3110.0 325 298 275 243 228 211 180 155 162 172
3150.0 151 138 140 133 140 140 130 136 151 136
3190.0 114 120 116 131 135 108 102 87 91 111
3230.0 105 98 106 131 151 160 152 140 145 162
3270.0 185 209 231 232 248 276 283 314 360 401
3310.0 439 493 552 595 641 728 827 964 1167 1410
3350.0 1708 2019 2274 2392 2312 2080 1790 1490 1254 1064
3390.0 914 812 708 629 570 506 437 392 372 345
3430.0 315 300 285 260 232 242 233 210 210 208
3470.0 199 175 160 122 80 85 85 81 70 74
3510.0 78 71 67 60 83 80 68 72 68 59
3550.0 44 58 60 54 37 36 62 73 78 59
3590.0 59 71 78 84 59 35 31 57 65 76
3630.0 85 82 78 77 43 43 83 73 67 66
3670.0 55 37 40 67 63 31 20 26 45 64
3710.0 73 51 54 59 39 30 55 78 66 63
3750.0 74 69 61 51 50 64 82 93 99 110
3790.0 89 71 57 71 86 68 58 67 87 96
3830.0 99 89 80 61 47
##END=
