##TITLE=3-Hydroxy-3,7,11-trimethyl-1,6,10-dodecatriene
##JCAMP-DX=4.24
##DATA TYPE=INFRARED SPECTRUM
##ORIGIN=EPA-IR VAPOR PHASE LIBRARY
##OWNER=SRD/NIST
Collection (C) 2018 copyright by the U.S. Secretary of Commerce
on behalf of the United States of America. All rights reserved.
##CAS REGISTRY NO=7212-44-4
##MOLFORM=C 15 H 26 O
##$NIST SOURCE=MSDC-IR
##STATE=gas
##XUNITS=1/CM
##YUNITS=ABSORBANCE
##XFACTOR=1.
##YFACTOR=0.001
##DELTAX=1.92898
##FIRSTX=549.8
##LASTX=4000.7
##FIRSTY=8.32
##MAXX=4000.7
##MINX=549.759
##MAXY=0.23237
##MINY=0.0009226
##NPOINTS=1790
##XYDATA=(X++(Y..Y))
549.759 8.32 8.32 8.31 8.41 8.56 8.48 8.27 8.31 8.73 8.71
569.049 8.24 8.47 8.5 8.09 7.9 7.96 7.49 6.92 7.08 7.36
588.339 7.46 7.45 7.48 7.54 7.4 7.34 7.14 6.64 6.3 5.94
607.628 5.39 5.13 5.18 5.03 4.85 4.54 4.16 3.84 3.78 3.8
626.918 3.68 3.81 3.82 3.83 3.67 3.56 3.78 3.76 3.85 4.03
646.208 4 4.11 4.13 4.22 4.56 4.79 5.01 5.26 5.71 6.09
665.498 6.3 6.98 7.52 7.96 8.69 9.39 10.29 11.06 11.57 12.05
684.787 12.35 12.41 12.21 11.74 11.18 10.64 9.84 9.14 8.62 8.36
704.077 8.27 7.86 7.69 7.67 7.44 7.32 7.28 7.19 7.02 6.99
723.367 7.12 7.17 7.07 7.36 7.59 7.68 7.92 8.16 8.28 8.27
742.657 8.24 8.11 7.92 7.93 7.91 7.8 7.85 7.82 7.73 7.46
761.947 7.35 7.53 7.69 7.5 7.43 7.7 7.89 8.03 8.11 8.27
781.236 8.4 8.49 8.76 9.15 9.47 9.9 10.53 10.98 11.32 11.78
800.526 12.35 12.75 13.17 13.82 14.5 14.81 15.35 16.36 17.01 17.73
819.816 18.77 19.94 21.16 22.19 22.96 23.56 23.84 23.97 23.79 23.1
839.106 22.38 21.72 20.79 19.77 18.95 17.96 17.26 16.68 16.11 15.75
858.395 15.33 14.94 14.46 14.3 14.41 14.44 14.59 14.83 15.36 15.74
877.685 16.04 16.74 17.42 18.07 18.87 19.55 20.6 21.97 23.31 24.83
896.975 26.94 29.33 31.72 34.4 37.37 41 45.01 49.63 55.4 62.02
916.265 69.17 76.07 81.25 83.04 81 75.55 67.86 60 53 47.39
935.555 43.18 40 37.53 35.62 33.91 32.38 31.3 30.31 29.31 28.46
954.844 27.68 26.94 26.28 25.77 25.43 25.14 25.07 25.07 25.03 25.3
974.134 25.88 26.53 27.42 28.58 29.88 31.86 34.43 37.19 39.78 41.86
993.424 43.18 43.23 42.05 40.08 37.56 34.6 31.99 30.08 28.43 27.33
1012.714 26.45 25.51 24.77 24.24 23.8 23.36 23.23 22.96 22.35 21.91
1032.003 21.6 21.23 21.06 20.76 20.75 20.95 21.08 21.16 21.15 21.55
1051.293 22.22 22.72 23.26 24.04 24.72 25.46 26.55 27.93 28.8 29.41
1070.583 30.75 32.09 33.13 34.08 35.09 36.21 36.92 38.06 39.36 41.01
1089.873 42.8 44.18 46.1 47.92 49.47 51.32 52.96 54.32 55.61 56.06
1109.163 54.91 53.52 52.53 51.07 48.94 46.42 43.97 42.45 41.68 40.14
1128.452 38.31 36.89 35.78 34.96 34.42 34.09 34.04 33.59 33.35 33.99
1147.742 34.51 34.57 34.78 35.17 35.27 35.64 35.95 35.67 35.5 35.4
1167.032 35.48 35.75 35.69 35.86 36.07 35.96 35.83 35.84 35.6 35.57
1186.322 35.83 35.51 35.13 34.73 33.97 33.81 33.67 32.87 32.31 32.18
1205.611 31.7 31.05 30.39 29.92 29.8 29.46 29.15 28.72 28.57 28.53
1224.901 28.46 28.55 28.35 28.03 27.89 27.71 27.37 27.15 27.13 26.9
1244.191 26.62 26.39 25.98 25.79 25.86 25.89 25.72 25.61 25.61 25.67
1263.481 25.68 25.45 25.4 25.3 25.2 25.39 25.57 25.61 25.79 26.07
1282.771 26.07 26.35 26.72 27 27.41 27.6 27.82 28.16 28.5 28.87
1302.060 29.28 29.7 30.07 30.33 30.55 30.66 30.71 30.79 30.71 30.58
1321.350 30.46 30.37 30.23 29.98 29.57 29.08 28.7 28.44 28.37 28.48
1340.640 28.66 29.03 29.68 30.34 31 31.61 32.12 32.54 33.01 33.7
1359.930 34.73 36.21 38.14 40.74 44.05 47.86 51.87 55.65 58.64 60.47
1379.219 60.98 60.19 58.32 55.71 52.52 48.86 45.15 41.83 38.97 36.67
1398.509 35.13 34.35 34.25 34.74 35.72 36.93 38.05 38.7 38.73 38.28
1417.799 37.41 36.22 35.01 34.18 33.82 34.01 34.73 35.91 37.5 39.4
1437.089 41.32 43.05 44.65 45.89 46.79 47.33 47.45 47.21 46.68 45.78
1456.378 44.42 42.5 40.2 37.63 34.79 31.89 29.08 26.51 24.25 22.15
1475.668 20.29 18.69 17.28 16.06 14.97 14.03 13.25 12.55 11.92 11.32
1494.958 10.8 10.4 10.04 9.61 9.28 9.1 8.9 8.62 8.45 8.32
1514.248 8.18 8.07 7.93 7.91 7.85 7.69 7.57 7.49 7.43 7.33
1533.538 7.31 7.3 7.25 7.24 7.17 7.07 6.97 6.9 6.87 6.78
1552.827 6.69 6.61 6.54 6.6 6.47 6.34 6.27 6.21 6.17 6.02
1572.117 5.94 5.91 5.92 5.88 5.84 5.91 5.96 5.99 5.99 5.95
1591.407 6 6.09 6.18 6.29 6.32 6.33 6.41 6.38 6.36 6.41
1610.697 6.45 6.55 6.64 6.78 6.91 7.03 7.27 7.56 7.86 8.31
1629.986 8.83 9.4 9.96 10.4 10.78 11.03 11.13 11.12 11.02 10.79
1649.276 10.4 10.19 10.12 9.96 9.82 9.82 9.83 9.7 9.43 9.14
1668.566 8.78 8.31 7.69 7.1 6.53 5.94 5.42 4.98 4.65 4.34
1687.856 4.05 3.84 3.65 3.51 3.44 3.35 3.24 3.05 2.93 2.88
1707.146 2.77 2.64 2.51 2.48 2.44 2.4 2.39 2.25 2.18 2.13
1726.435 2.05 2.03 2.01 2.02 2.04 1.97 1.9 1.91 1.93 1.93
1745.725 1.87 1.84 1.86 1.84 1.73 1.77 1.83 1.75 1.74 1.79
1765.015 1.76 1.77 1.79 1.69 1.65 1.69 1.71 1.71 1.74 1.79
1784.305 1.82 1.85 1.82 1.81 1.87 1.88 1.92 2.02 2.09 2.02
1803.594 1.96 2.03 2.09 2.17 2.24 2.25 2.31 2.37 2.49 2.65
1822.884 2.75 2.93 3.13 3.34 3.61 3.89 4.24 4.61 5 5.46
1842.174 5.78 6 6.13 6.06 5.88 5.54 5.19 4.85 4.39 4
1861.464 3.69 3.37 3.12 2.86 2.65 2.47 2.3 2.19 2.11 2.03
1880.754 1.94 1.8 1.76 1.75 1.7 1.69 1.64 1.57 1.54 1.51
1900.043 1.51 1.53 1.54 1.56 1.57 1.56 1.55 1.55 1.53 1.53
1919.333 1.46 1.38 1.38 1.42 1.4 1.38 1.37 1.35 1.38 1.39
1938.623 1.42 1.46 1.46 1.46 1.48 1.45 1.41 1.41 1.43 1.44
1957.913 1.45 1.46 1.53 1.56 1.53 1.57 1.6 1.61 1.64 1.62
1977.202 1.61 1.56 1.54 1.54 1.51 1.47 1.46 1.43 1.39 1.37
1996.492 1.34 1.3 1.29 1.26 1.23 1.27 1.34 1.34 1.26 1.3
2015.782 1.28 1.24 1.25 1.32 1.37 1.33 1.32 1.32 1.28 1.22
2035.072 1.23 1.29 1.28 1.18 1.2 1.28 1.24 1.18 1.22 1.26
2054.362 1.22 1.22 1.25 1.27 1.27 1.26 1.21 1.26 1.33 1.35
2073.651 1.29 1.27 1.27 1.23 1.27 1.3 1.24 1.19 1.16 1.15
2092.941 1.18 1.19 1.18 1.22 1.21 1.15 1.15 1.16 1.14 1.11
2112.231 1.13 1.17 1.15 1.16 1.2 1.14 1.09 1.09 1.14 1.19
2131.521 1.23 1.18 1.12 1.12 1.11 1.15 1.15 1.13 1.09 1.07
2150.810 1.13 1.11 1.06 1.07 1.09 1.11 1.13 1.17 1.16 1.14
2170.100 1.17 1.21 1.2 1.17 1.16 1.13 1.1 1.07 1.09 1.15
2189.390 1.14 1.1 1.14 1.14 1.08 1.13 1.12 1.05 1.07 1.05
2208.680 1.06 1.07 0.9967 0.9628 1.02 1.01 1.02 1.09 1.04 0.9937
2227.970 0.9652 0.972 1.03 0.997 0.987 1.03 0.9884 0.9901 1.08 1.08
2247.259 1.02 0.9875 0.9711 0.9572 0.9605 0.9635 0.9226 0.9455 1 1.04
2266.549 1.03 1.02 1.09 1.12 1.07 1.01 0.9867 1.03 1.1 1.13
2285.839 1.11 1.19 1.18 1.14 1.13 1.12 1.16 1.06 1.07 1.11
2305.129 1.14 1.17 1.12 1.15 1.17 1.11 1.09 1.22 1.27 1.22
2324.418 1.2 1.18 1.2 1.28 1.29 1.27 1.25 1.22 1.24 1.25
2343.708 1.18 1.18 1.21 1.28 1.33 1.31 1.32 1.31 1.3 1.28
2362.998 1.29 1.31 1.28 1.36 1.41 1.38 1.4 1.4 1.43 1.44
2382.288 1.43 1.42 1.45 1.45 1.49 1.51 1.49 1.51 1.51 1.47
2401.578 1.49 1.52 1.52 1.52 1.52 1.53 1.56 1.59 1.61 1.64
2420.867 1.61 1.57 1.54 1.59 1.59 1.52 1.57 1.55 1.51 1.56
2440.157 1.56 1.57 1.6 1.59 1.55 1.55 1.55 1.51 1.54 1.59
2459.447 1.57 1.57 1.5 1.47 1.52 1.58 1.62 1.61 1.58 1.53
2478.737 1.56 1.56 1.57 1.54 1.45 1.54 1.61 1.57 1.55 1.59
2498.026 1.64 1.63 1.53 1.49 1.54 1.63 1.57 1.49 1.55 1.53
2517.316 1.43 1.49 1.58 1.56 1.55 1.64 1.69 1.6 1.63 1.66
2536.606 1.66 1.72 1.77 1.66 1.62 1.65 1.68 1.77 1.69 1.62
2555.896 1.73 1.89 1.94 1.94 1.98 2.01 2.01 1.93 1.95 2.06
2575.186 2.08 2.04 1.94 1.98 2.02 2.01 1.98 1.98 2.06 2.1
2594.475 2.02 1.99 1.97 1.99 2 2.04 2.01 2 2.08 2.11
2613.765 2.08 2.06 2.07 2.09 2.12 2.09 2.14 2.17 2.21 2.24
2633.055 2.23 2.18 2.23 2.37 2.42 2.44 2.43 2.46 2.52 2.65
2652.345 2.72 2.7 2.68 2.61 2.61 2.68 2.72 2.79 2.92 2.94
2671.634 2.84 2.82 2.97 3.2 3.33 3.29 3.2 3.26 3.28 3.37
2690.924 3.51 3.62 3.71 3.7 3.69 3.84 3.98 4.06 4.13 4.12
2710.214 4.21 4.35 4.5 4.69 4.9 5.18 5.5 5.76 6.01 6.42
2729.504 6.76 7.05 7.49 7.79 7.95 8.19 8.25 8.09 7.85 7.6
2748.794 7.35 7.13 6.97 6.86 6.71 6.62 6.66 6.76 6.76 6.76
2768.083 6.86 6.9 6.9 7.03 7.11 7.22 7.52 7.76 8 8.28
2787.373 8.53 8.83 9.14 9.45 9.83 10.37 10.9 11.36 11.91 12.63
2806.663 13.24 13.79 14.49 15.28 16.18 17.09 18.12 19.39 20.7 22.05
2825.953 23.61 25.47 27.6 30.14 33.1 36.37 40.02 44.27 49.05 54.19
2845.242 59.9 66.04 72.35 78.61 84.52 90.01 94.9 98.88 102.4 105.49
2864.532 107.84 109.18 109.63 109.42 108.61 107.57 106.55 105.88 105.75 106.34
2883.822 107.59 109.33 111.59 114.41 117.58 121.09 124.9 129.1 133.73 138.77
2903.112 144.6 151.12 157.95 165.13 172.98 181.21 189.67 198.22 206.63 214.63
2922.401 221.5 227 230.73 232.37 231.98 229.44 224.83 218.31 210.02 200.16
2941.691 189.36 178.21 167.54 157.82 149.46 142.79 137.8 134.77 133.59 134.12
2960.981 136.39 140.32 145.52 151.71 158.6 165.37 171.43 176.12 178.62 178.61
2980.271 176.08 171.11 164.09 155.51 145.81 135.53 125.05 114.76 105.07 96.48
2999.561 89.09 82.87 77.77 73.71 70.6 67.98 65.83 63.81 61.69 59.32
3018.850 56.54 53.68 50.89 48.21 45.78 43.69 41.86 40.01 38.33 36.89
3038.140 35.57 34.48 33.52 32.56 31.56 30.68 29.9 29.15 28.39 27.55
3057.430 26.68 25.95 25.34 24.69 24.06 23.46 22.92 22.4 22.09 22.12
3076.720 22.31 22.61 23.09 24 25.45 27.07 28.63 29.89 30.18 29.37
3096.009 27.6 24.82 21.49 18.51 16.13 14.14 12.55 11.25 10.2 9.31
3115.299 8.67 8.18 7.58 7.02 6.67 6.42 6.23 5.99 5.79 5.6
3134.589 5.19 4.87 4.74 4.55 4.36 4.21 4.03 3.9 3.81 3.73
3153.879 3.58 3.41 3.3 3.25 3.23 3.14 2.97 2.85 2.73 2.58
3173.169 2.62 2.62 2.55 2.6 2.56 2.52 2.48 2.45 2.45 2.48
3192.458 2.42 2.32 2.37 2.4 2.38 2.38 2.4 2.24 2.1 2.1
3211.748 2.24 2.31 2.17 2.11 2.19 2.14 2.01 2.03 2.06 2.11
3231.038 2.07 2 1.91 1.82 1.78 1.77 1.82 1.82 1.78 1.75
3250.328 1.75 1.74 1.66 1.66 1.65 1.54 1.54 1.62 1.72 1.65
3269.617 1.47 1.38 1.46 1.62 1.64 1.6 1.57 1.56 1.62 1.62
3288.907 1.52 1.48 1.38 1.33 1.51 1.59 1.45 1.49 1.53 1.56
3308.197 1.55 1.48 1.49 1.47 1.57 1.59 1.5 1.61 1.63 1.6
3327.487 1.65 1.71 1.7 1.56 1.57 1.64 1.64 1.57 1.54 1.58
3346.777 1.65 1.62 1.58 1.7 1.71 1.66 1.74 1.67 1.57 1.59
3366.066 1.65 1.59 1.62 1.73 1.82 1.95 1.86 1.8 1.84 1.84
3385.356 1.87 1.89 1.8 1.8 1.76 1.66 1.85 1.97 1.95 1.95
3404.646 1.95 1.89 1.79 1.75 1.72 1.72 1.63 1.58 1.72 1.77
3423.936 1.7 1.71 1.68 1.69 1.78 1.82 1.77 1.61 1.59 1.57
3443.225 1.42 1.39 1.44 1.35 1.29 1.4 1.37 1.37 1.37 1.29
3462.515 1.3 1.44 1.49 1.47 1.55 1.4 1.26 1.33 1.25 1.27
3481.805 1.26 1.21 1.39 1.27 1.18 1.29 1.39 1.45 1.31 1.2
3501.095 1.34 1.46 1.35 1.26 1.21 1.36 1.46 1.47 1.45 1.3
3520.385 1.32 1.46 1.56 1.64 1.62 1.64 1.73 1.73 1.81 2.03
3539.674 2.21 2.19 2.24 2.43 2.6 2.8 2.99 3.27 3.57 3.86
3558.964 4.22 4.65 5.02 5.44 5.96 6.37 6.57 6.89 7.21 7.41
3578.254 7.56 7.65 7.8 7.87 8.01 7.83 7.73 7.82 7.71 7.7
3597.544 7.52 7.33 7.15 6.82 6.71 6.92 6.99 6.85 7 7.19
3616.833 7.58 8.27 9.01 9.78 10.7 12 13.67 15.28 16.51 17.47
3636.123 17.84 17.52 16.44 14.77 12.95 11.24 9.64 8.37 7.28 6.13
3655.413 5.21 4.42 3.88 3.51 3 2.73 2.55 2.37 2.33 2.19
3674.703 2.08 2 1.87 1.64 1.59 1.57 1.43 1.41 1.38 1.3
3693.993 1.25 1.35 1.38 1.24 1.3 1.36 1.32 1.31 1.4 1.31
3713.282 1.23 1.39 1.24 0.9435 0.9359 1.19 1.37 1.28 1.15 1.11
3732.572 1.09 1.19 1.27 1.13 1.17 1.32 1.34 1.32 1.28 1.14
3751.862 1.19 1.29 1.3 1.31 1.25 1.34 1.35 1.21 1.12 1.21
3771.152 1.14 1.08 1.18 1.21 1.22 1.22 1.32 1.39 1.4 1.37
3790.441 1.35 1.3 1.34 1.43 1.39 1.32 1.44 1.55 1.57 1.44
3809.731 1.4 1.55 1.52 1.46 1.34 1.42 1.51 1.53 1.63 1.71
3829.021 1.7 1.67 1.77 1.9 1.91 1.71 1.75 1.69 1.71 1.81
3848.311 1.77 1.81 1.97 2.07 1.89 1.83 1.86 1.89 1.87 1.86
3867.601 2.02 2.13 1.91 1.92 2.14 2.11 2.05 1.86 1.78 2.06
3886.890 2.05 1.8 1.72 1.72 1.68 1.71 1.74 1.75 1.75 1.73
3906.180 1.76 1.79 1.78 1.72 1.64 1.65 1.57 1.54 1.72 1.72
3925.470 1.57 1.54 1.56 1.47 1.56 1.66 1.72 1.58 1.46 1.56
3944.760 1.36 1.33 1.63 1.53 1.3 1.36 1.51 1.48 1.45 1.5
3964.049 1.54 1.53 1.55 1.55 1.38 1.32 1.41 1.45 1.34 1.41
3983.339 1.47 1.57 1.58 1.47 1.45 1.5 1.54 1.42 1.38 1.38
##END=
