##TITLE=5-Methyl-1-heptanol
##JCAMP-DX=4.24
##DATA TYPE=INFRARED SPECTRUM
##ORIGIN=NIST Mass Spectrometry Data Center
##OWNER=NIST Standard Reference Data Program
Collection (C) 2018 copyright by the U.S. Secretary of Commerce
on behalf of the United States of America. All rights reserved.
##CAS REGISTRY NO=7212-53-5
##MOLFORM=C 8 H 18 O
##$NIST SOURCE=MSDC-IR
##SPECTROMETER/DATA SYSTEM=HP-GC/MS/IRD
##STATE=gas
##XUNITS=1/CM
##YUNITS=ABSORBANCE
##XFACTOR=1.0
##YFACTOR=0.000003100
##DELTAX=4.0
##FIRSTX=550.0
##LASTX=3846.0
##FIRSTY=0.000279
##MAXX=3846
##MINX=550
##MAXY=0.031
##MINY=0
##NPOINTS=825
##XYDATA=(X++(Y..Y))
550.0 90 48 36 44 24 1 7 29 56 58
590.0 43 34 26 31 46 45 42 48 34 34
630.0 37 23 24 23 40 56 44 43 37 29
670.0 17 20 36 44 51 37 40 48 43 44
710.0 58 78 96 102 100 96 94 102 97 94
750.0 103 101 105 123 136 150 163 156 167 173
790.0 148 132 117 115 118 113 126 123 164 184
830.0 131 128 133 132 136 138 149 158 166 171
870.0 177 174 186 203 206 220 226 237 271 300
910.0 326 360 395 415 428 444 458 469 476 491
950.0 499 518 549 571 600 631 653 675 706 753
990.0 811 884 981 1098 1241 1409 1578 1754 1955 2151
1030.0 2339 2514 2646 2731 2758 2698 2559 2356 2137 1925
1070.0 1728 1539 1346 1162 997 859 745 668 622 581
1110.0 557 532 496 462 437 420 403 399 407 410
1150.0 419 429 431 418 399 398 394 393 403 410
1190.0 412 417 422 427 437 450 467 471 473 477
1230.0 482 489 496 502 514 515 515 522 524 521
1270.0 521 517 506 502 498 497 494 486 487 487
1310.0 474 467 471 476 475 489 519 552 584 625
1350.0 662 691 730 787 874 995 1146 1283 1368 1383
1390.0 1285 1097 889 716 592 508 456 427 418 426
1430.0 452 508 591 688 805 955 1119 1256 1330 1323
1470.0 1235 1077 893 715 552 417 321 259 215 184
1510.0 157 140 130 121 109 94 86 93 88 69
1550.0 67 71 78 75 65 59 60 58 47 43
1590.0 43 42 40 38 39 36 35 35 33 39
1630.0 33 29 31 26 30 40 38 27 28 28
1670.0 24 25 29 36 32 22 24 26 23 16
1710.0 11 16 20 11 6 10 14 15 14 14
1750.0 16 14 14 9 7 12 11 4 2 8
1790.0 13 9 7 7 5 3 2 1 4 8
1830.0 6 2 1 6 5 2 6 4 2 5
1870.0 6 6 5 4 5 8 7 5 6 6
1910.0 4 3 11 15 9 7 10 9 12 14
1950.0 11 8 4 3 6 5 7 11 10 7
1990.0 8 9 11 12 14 14 9 12 14 15
2030.0 16 16 17 24 30 28 22 23 22 18
2070.0 18 22 21 15 12 12 13 9 9 11
2110.0 9 9 8 3 0 0 1 3 5 8
2150.0 8 7 7 7 7 9 6 6 4 2
2190.0 5 4 8 12 4 0 5 6 6 7
2230.0 7 8 4 3 7 10 12 12 10 11
2270.0 12 9 12 16 15 18 19 15 14 14
2310.0 17 18 18 25 26 28 27 31 31 28
2350.0 27 28 28 27 31 33 34 29 30 32
2390.0 29 26 23 29 29 24 24 29 29 25
2430.0 24 29 31 32 28 30 30 25 22 25
2470.0 32 28 20 22 28 29 24 23 26 29
2510.0 28 25 26 27 29 27 33 39 42 41
2550.0 40 41 42 45 48 60 63 66 74 76
2590.0 80 85 88 91 87 86 89 92 95 95
2630.0 96 102 102 106 113 113 118 122 126 130
2670.0 138 149 152 161 167 168 171 179 184 192
2710.0 197 200 211 225 238 252 262 267 279 293
2750.0 290 291 300 307 315 324 342 355 371 391
2790.0 415 445 476 517 549 581 630 693 767 854
2830.0 960 1102 1292 1562 1905 2318 2831 3382 3921 4439
2870.0 4921 5326 5614 5730 5656 5487 5335 5325 5562 6033
2910.0 6669 7385 8098 8780 9365 9788 10000 9919 9532 8961
2950.0 8412 8101 8139 8399 8516 8113 7121 5720 4223 2972
2990.0 2119 1585 1231 1000 841 729 631 556 502 456
3030.0 413 390 375 351 330 313 293 277 268 259
3070.0 248 237 228 219 204 196 184 167 161 153
3110.0 139 134 129 116 115 119 115 112 108 110
3150.0 110 106 105 107 103 94 86 83 87 86
3190.0 75 63 52 45 42 40 40 26 19 25
3230.0 28 25 19 24 23 15 8 6 6 3
3270.0 11 15 10 18 21 15 12 10 2 3
3310.0 5 7 4 4 13 16 17 23 20 11
3350.0 11 8 8 14 13 14 16 16 11 1
3390.0 4 8 7 10 17 21 28 32 26 30
3430.0 35 36 29 33 32 26 33 34 37 38
3470.0 27 24 30 36 30 23 29 30 26 18
3510.0 18 18 16 16 17 17 29 35 23 22
3550.0 23 17 26 35 34 35 32 24 21 28
3590.0 32 24 32 46 47 51 58 65 82 109
3630.0 134 149 184 239 302 388 498 602 675 718
3670.0 721 652 537 425 322 239 188 152 120 101
3710.0 93 82 73 68 57 45 56 55 47 49
3750.0 50 44 39 36 30 28 25 23 26 31
3790.0 29 35 43 46 49 50 49 52 45 36
3830.0 37 44 53 55 50
##END=
