##TITLE=3',6'-Diacetoxybenzonorbornadiene
##JCAMP-DX=4.24
##DATA TYPE=INFRARED SPECTRUM
##ORIGIN=EPA-IR VAPOR PHASE LIBRARY
##OWNER=SRD/NIST
Collection (C) 2018 copyright by the U.S. Secretary of Commerce
on behalf of the United States of America. All rights reserved.
##CAS REGISTRY NO=7213-65-2
##MOLFORM=C 15 H 14 O 4
##$NIST SOURCE=MSDC-IR
##STATE=gas
##XUNITS=1/CM
##YUNITS=ABSORBANCE
##XFACTOR=1.
##YFACTOR=0.001
##DELTAX=1.92898
##FIRSTX=549.8
##LASTX=4000.7
##FIRSTY=3.37
##MAXX=4000.7
##MINX=549.759
##MAXY=0.6819
##MINY=0.00003922
##NPOINTS=1790
##XYDATA=(X++(Y..Y))
549.759 3.37 3.75 4.39 5.41 6.84 7.88 8.61 9.32 9.16 8.32
569.049 7.62 7.24 6.64 6.79 7.66 8.28 9.29 10.86 12.02 12.65
588.339 13.24 13.59 13.69 13.58 13.34 13.47 13.61 13.51 13.56 13.48
607.628 13.12 12.5 11.88 10.97 9.82 8.87 8.28 8.46 8.99 10.26
626.918 12.3 14.37 16.6 18.74 19.75 19.29 17.66 15.4 12.43 9.21
646.208 6.81 5.02 3.77 3.17 2.79 2.49 2.22 2.14 2.07 1.89
665.498 1.97 2.07 2.03 2.02 2.18 2.09 2.06 2.17 2.12 2.25
684.787 2.61 3 3.47 4.15 4.73 5.41 6.22 6.84 7.16 7.21
704.077 7.23 7.12 6.82 6.65 6.82 7.45 8.82 10.99 14.47 19.84
723.367 26.67 34.39 40.13 41.76 41.79 39.51 33.17 25.22 18.15 12.84
742.657 9.16 6.8 5.23 4.33 3.97 3.92 3.74 3.45 3.42 3.29
761.947 3.11 3.02 2.88 2.83 2.75 2.57 2.58 2.88 3.29 3.47
781.236 3.6 4.09 4.63 5.08 5.7 6.37 7.23 7.87 8.32 8.79
800.526 8.96 9.29 10.03 11.1 13.11 15.99 19.61 23.33 25.99 27.55
819.816 27.67 26.09 22.76 18.74 15.12 12.05 9.78 8.44 7.53 6.92
839.106 6.67 6.31 6.24 6.32 6.41 6.61 7.01 7.75 8.23 8.6
858.395 9.17 9.96 11.2 12.48 13.68 14.89 15.9 16.89 17.72 18.64
877.685 19.94 21.63 23.86 26.06 27.77 29.47 31.01 32.69 35.07 38.14
896.975 41.15 42.85 42.55 39.99 35.27 28.98 22.58 17.35 13.56 10.95
916.265 9.16 7.8 6.85 6.64 6.66 6.6 6.8 7.2 7.47 7.67
935.555 7.94 8.06 8.31 8.71 9.13 9.87 11.08 12.55 14.14 15.46
954.844 16.3 16.65 16.01 14.58 12.97 11.61 10.69 10.29 10.17 10.33
974.134 10.91 11.88 13.28 14.84 16.43 18.28 20.53 23.2 26.16 29.33
993.424 32.62 36.13 39.76 43.67 48.04 53.02 58.03 62.08 64.61 64.98
1012.714 62.83 58.23 52.15 45.02 38.47 33.48 29.45 26.38 24.24 22.25
1032.003 20.4 19.17 18.03 17.25 16.43 15.69 15.38 15.14 15.17 15.23
1051.293 15.21 15.72 16.54 16.85 17.33 18.31 19.45 20.32 21.14 22.6
1070.583 23.92 24.76 24.99 24.71 24.67 24.1 23.61 23.44 23.15 23.16
1089.873 22.41 21.74 21.31 20.97 21.34 22.01 23.54 27.44 34.98 46.84
1109.163 62.12 75.72 82.46 81.45 74.74 62.73 46.59 33.38 26.55 24.44
1128.452 25.43 27.47 29.08 31.13 34.92 40.48 49.24 62.51 81.38 108.14
1147.742 142.54 180.34 213.5 233.34 235.85 221.2 191.42 153.09 117.33 92.34
1167.032 78.85 74.37 76.85 84.34 96.34 112.43 132.86 158.35 190.75 232.16
1186.322 282.86 345.16 419.86 501.92 582.64 648 681.9 675.94 632.38 557.74
1205.611 465.25 372.88 295.46 237.49 195.56 165.27 142.61 124.95 111.08 100.34
1224.901 90.78 82.05 74.18 66.78 59.77 53.67 48.69 43.61 39.48 36.52
1244.191 33.29 30.53 28.87 27.99 28.07 29.07 30.31 30.93 30.58 29.13
1263.481 26.78 23.8 20.72 18.39 16.66 15.43 14.38 13.45 12.82 12.28
1282.771 11.65 11.24 11.21 11.5 12.49 14.29 17.07 21.26 26.45 30.88
1302.060 33.11 32.95 30.56 26.17 20.56 15.7 12.81 11.38 10.62 10.12
1321.350 9.7 9.26 8.84 8.54 8.29 8.16 8.17 8.29 8.51 8.73
1340.640 9.17 9.83 10.5 11.43 12.74 14.33 16.37 19.03 22.5 27.45
1359.930 34.51 44.14 56.37 69.93 82.63 92.18 96.5 94.38 86.15 74.04
1379.219 60.77 48.74 38.89 31.49 26.17 22.32 19.53 17.45 15.86 14.57
1398.509 13.58 12.83 12.2 11.7 11.42 11.29 11.16 11.08 11.13 11.18
1417.799 11.25 11.37 11.54 11.82 12.05 12.22 12.38 12.56 12.77 12.99
1437.089 13.24 13.49 13.76 14.2 14.84 15.67 16.65 17.62 18.74 19.82
1456.378 21.02 22.89 25.53 29.38 35.01 43.07 54.31 69.13 86.93 105.63
1475.668 120.14 126.82 123.89 111.81 92.59 70.45 50.65 36.59 27.86 22.59
1494.958 19.24 16.89 15.16 13.83 12.81 11.87 11.12 10.64 10.19 9.7
1514.248 9.4 9.18 8.85 8.61 8.49 8.3 8.04 7.71 7.37 7.09
1533.538 6.79 6.52 6.31 6.15 6.01 5.95 5.98 5.97 6.04 6.27
1552.827 6.62 7.05 7.49 7.98 8.58 9.1 9.27 9.31 9.13 8.59
1572.117 8.07 7.78 7.68 7.79 8 8.29 8.65 8.9 9.18 9.34
1591.407 9.33 9.2 8.89 8.55 8.16 7.88 7.69 7.52 7.59 7.75
1610.697 7.96 8.53 9.27 10.05 10.86 11.66 12.42 12.95 13.21 12.99
1629.986 12.37 11.56 10.46 9.32 8.25 7.28 6.61 6.12 5.71 5.34
1649.276 4.98 4.73 4.55 4.56 4.61 4.56 4.48 4.44 4.45 4.47
1668.566 4.49 4.53 4.57 4.54 4.58 4.62 4.7 4.8 4.84 4.99
1687.856 5.18 5.33 5.4 5.48 5.62 5.82 6.11 6.45 6.77 7.16
1707.146 7.58 7.95 8.36 8.82 9.37 9.91 10.46 11.1 11.77 12.51
1726.435 13.39 14.24 15.2 16.22 17.36 18.66 19.96 21.33 22.81 24.43
1745.725 26.25 28.29 30.58 33.33 36.54 40.15 44.49 49.6 55.67 63.2
1765.015 72.41 83.53 97.04 112.51 130.17 148.66 166.61 182.46 194.22 200.22
1784.305 199.19 191.58 178.41 161.25 141.89 122.2 103.66 86.84 72.6 61.07
1803.594 52.27 45.62 40.49 36.35 32.92 29.89 27.14 24.7 22.54 20.65
1822.884 19 17.48 16.21 15.13 14.19 13.37 12.61 11.95 11.32 10.78
1842.174 10.28 9.8 9.4 9.02 8.67 8.31 7.92 7.51 7.03 6.6
1861.464 6.13 5.61 5.22 4.85 4.53 4.33 4.13 3.99 3.92 3.85
1880.754 3.73 3.59 3.48 3.42 3.36 3.28 3.21 3.13 2.99 2.89
1900.043 2.9 2.82 2.7 2.62 2.54 2.46 2.44 2.45 2.44 2.38
1919.333 2.35 2.4 2.4 2.4 2.42 2.44 2.42 2.4 2.4 2.43
1938.623 2.39 2.29 2.29 2.32 2.37 2.4 2.42 2.46 2.52 2.52
1957.913 2.48 2.48 2.49 2.56 2.64 2.62 2.64 2.66 2.64 2.75
1977.202 2.82 2.82 2.85 2.88 2.87 2.84 2.84 2.87 2.86 2.79
1996.492 2.79 2.72 2.59 2.59 2.58 2.56 2.6 2.58 2.52 2.51
2015.782 2.5 2.5 2.56 2.54 2.47 2.49 2.47 2.44 2.48 2.44
2035.072 2.4 2.49 2.54 2.59 2.6 2.63 2.64 2.6 2.63 2.62
2054.362 2.6 2.72 2.89 3 3.15 3.24 3.32 3.49 3.62 3.65
2073.651 3.72 3.78 3.71 3.66 3.61 3.52 3.39 3.35 3.27 3.11
2092.941 3 2.99 2.95 2.8 2.66 2.6 2.59 2.54 2.52 2.47
2112.231 2.35 2.3 2.26 2.14 2.03 1.94 1.84 1.72 1.65 1.61
2131.521 1.57 1.55 1.6 1.62 1.61 1.61 1.55 1.48 1.51 1.56
2150.810 1.56 1.59 1.63 1.63 1.58 1.6 1.67 1.66 1.65 1.68
2170.100 1.7 1.72 1.72 1.69 1.74 1.79 1.83 1.81 1.78 1.75
2189.390 1.65 1.53 1.47 1.5 1.5 1.5 1.48 1.41 1.39 1.4
2208.680 1.42 1.47 1.49 1.49 1.46 1.41 1.39 1.31 1.23 1.22
2227.970 1.26 1.31 1.29 1.25 1.21 1.32 1.41 1.36 1.44 1.49
2247.259 1.37 1.4 1.47 1.43 1.41 1.46 1.43 1.36 1.35 1.31
2266.549 1.21 1.12 1.08 1.07 1.07 1.07 1 0.963 0.9504 0.8673
2285.839 0.8706 0.9137 0.9403 0.9841 1 0.9818 0.9898 0.9847 0.9367 0.9034
2305.129 0.8879 0.8791 0.8453 0.8351 0.8228 0.8239 0.8621 0.8445 0.883 0.9139
2324.418 0.9301 0.9642 0.9578 0.9395 0.9815 1.08 1.11 1.12 1.11 1.2
2343.708 1.32 1.36 1.41 1.4 1.41 1.47 1.42 1.38 1.47 1.47
2362.998 1.38 1.39 1.47 1.49 1.52 1.59 1.68 1.69 1.7 1.81
2382.288 1.81 1.81 1.76 1.77 1.82 1.83 1.81 1.73 1.68 1.74
2401.578 1.75 1.65 1.65 1.67 1.67 1.68 1.64 1.6 1.57 1.48
2420.867 1.48 1.5 1.47 1.45 1.45 1.42 1.39 1.4 1.4 1.28
2440.157 1.22 1.31 1.37 1.31 1.21 1.22 1.26 1.26 1.26 1.24
2459.447 1.16 1.12 1.07 1.04 1.03 0.9902 0.9274 0.9347 0.9082 0.8344
2478.737 0.8959 0.9414 0.9137 0.8549 0.904 1.02 1.01 0.9429 0.9321 0.9219
2498.026 0.9294 0.9291 0.8725 0.8862 0.8555 0.8112 0.8108 0.7872 0.837 0.8063
2517.316 0.7133 0.6774 0.6604 0.7732 0.7953 0.8269 0.8778 0.8429 0.8572 0.882
2536.606 0.8734 0.7977 0.8188 0.8652 0.8401 0.7893 0.7837 0.898 0.9219 0.8666
2555.896 0.7887 0.7999 0.8547 0.8282 0.8671 0.8096 0.7191 0.7917 0.8369 0.7904
2575.186 0.7717 0.7694 0.7485 0.6896 0.6263 0.5943 0.6388 0.6435 0.6082 0.6399
2594.475 0.6112 0.5662 0.5828 0.5338 0.5421 0.5378 0.436 0.4213 0.5142 0.5561
2613.765 0.449 0.3974 0.3837 0.369 0.4059 0.4409 0.4239 0.4394 0.4807 0.4423
2633.055 0.392 0.4028 0.4186 0.4284 0.4449 0.5004 0.5191 0.5094 0.5484 0.5767
2652.345 0.5689 0.5914 0.5921 0.5211 0.5073 0.5232 0.5097 0.549 0.6115 0.522
2671.634 0.616 0.7628 0.6268 0.5078 0.538 0.5529 0.5613 0.5653 0.6121 0.6432
2690.924 0.5835 0.6283 0.5114 0.3806 0.4926 0.509 0.415 0.3993 0.413 0.3635
2710.214 0.4163 0.5075 0.502 0.4662 0.4808 0.5095 0.4738 0.4903 0.5292 0.5269
2729.504 0.513 0.4735 0.4383 0.4782 0.4665 0.4134 0.4388 0.5718 0.6229 0.5269
2748.794 0.463 0.439 0.4277 0.4974 0.5372 0.4533 0.5048 0.5407 0.5481 0.6646
2768.083 0.703 0.6049 0.6526 0.7213 0.5397 0.5395 0.691 0.5945 0.5043 0.5491
2787.373 0.5321 0.6206 0.6993 0.6776 0.7628 0.7776 0.6679 0.648 0.6441 0.6756
2806.663 0.7036 0.6129 0.6069 0.7695 0.8589 0.8076 0.7858 0.8188 0.8456 0.8394
2825.953 0.7994 0.808 0.8685 0.9288 1.02 1.02 1.05 1.19 1.34 1.43
2845.242 1.47 1.5 1.59 1.78 1.88 1.93 2.17 2.51 2.74 3.01
2864.532 3.45 4.06 4.74 5.68 6.67 7.34 7.89 8.21 8.01 7.43
2883.822 6.54 5.5 4.49 3.8 3.41 2.91 2.47 2.33 2.25 2.11
2903.112 2.11 2.12 2.18 2.39 2.44 2.48 2.67 2.94 3.19 3.43
2922.401 3.8 4.34 4.96 5.51 6.33 7.57 8.93 10.57 12.66 15.1
2941.691 17.73 20.23 22.31 23.65 23.83 22.81 20.83 18.31 15.77 13.49
2960.981 11.77 10.79 10.67 11.67 13.78 17.29 22.29 28.11 33.12 35.6
2980.271 35.8 34.57 31.05 25.22 19.33 14.98 12.36 11.4 12.02 14.42
2999.561 18.67 24.65 31.68 38.32 43.66 46.5 45.46 40.77 33.99 26.67
3018.850 19.79 14.27 10.71 8.6 7.42 6.84 6.57 6.4 6.29 6.19
3038.140 6.06 5.87 5.61 5.51 5.48 5.32 5.14 4.98 5.03 5.14
3057.430 5.21 5.42 5.9 6.57 7.33 8.41 9.74 11.16 12.62 14.11
3076.720 15.22 15.62 15.44 14.53 13.01 11.28 9.5 7.91 6.52 5.3
3096.009 4.54 4.12 3.82 3.53 3.19 2.94 2.87 2.8 2.8 2.71
3115.299 2.51 2.55 2.59 2.65 2.81 2.99 3.19 3.36 3.52 3.67
3134.589 3.69 3.55 3.22 2.82 2.48 2.09 1.71 1.44 1.2 1.12
3153.879 1.11 0.9651 0.9472 0.9122 0.7924 0.7659 0.8173 0.9055 0.8165 0.7422
3173.169 0.761 0.6504 0.6351 0.717 0.6443 0.698 0.7804 0.8493 0.7803 0.601
3192.458 0.4937 0.519 0.6489 0.5637 0.5429 0.5757 0.4766 0.4511 0.5557 0.507
3211.748 0.4427 0.4648 0.4686 0.4469 0.5149 0.6219 0.4889 0.4063 0.4005 0.518
3231.038 0.5478 0.4206 0.4759 0.5654 0.6106 0.4628 0.4063 0.3501 0.2807 0.2206
3250.328 0.2562 0.3892 0.368 0.3957 0.433 0.5129 0.5288 0.4807 0.5007 0.3096
3269.617 0.2821 0.4205 0.3597 0.2857 0.3622 0.3841 0.3218 0.3421 0.345 0.2804
3288.907 0.3043 0.4687 0.4792 0.4301 0.3511 0.2555 0.2769 0.2859 0.326 0.4422
3308.197 0.4061 0.2962 0.1579 0.2447 0.5056 0.4311 0.2681 0.2807 0.2701 0.1379
3327.487 0.06886 0.211 0.4029 0.366 0.2271 0.14 0.06725 0.2886 0.5308 0.3561
3346.777 0.2623 0.3516 0.3168 0.2099 0.209 0.2476 0.2642 0.3414 0.3368 0.4373
3366.066 0.4928 0.3787 0.2991 0.2585 0.2947 0.3996 0.3896 0.3821 0.4822 0.4314
3385.356 0.4074 0.394 0.3548 0.3257 0.3822 0.4457 0.494 0.6372 0.5584 0.4899
3404.646 0.5149 0.3678 0.2514 0.2223 0.2219 0.2163 0.3232 0.4093 0.443 0.4067
3423.936 0.3022 0.277 0.2894 0.2996 0.2503 0.3512 0.4885 0.4966 0.4972 0.4566
3443.225 0.4648 0.5971 0.6468 0.5741 0.5339 0.5289 0.6483 0.6948 0.6197 0.6843
3462.515 0.7175 0.6491 0.5497 0.5826 0.6577 0.6942 0.6808 0.6156 0.6096 0.7174
3481.805 0.7698 0.7512 0.8213 0.787 0.733 0.9139 0.8823 0.7262 0.7031 0.7834
3501.095 0.9303 0.8855 0.8201 0.7708 0.7721 0.9031 0.9108 1.08 1.29 1.14
3520.385 1.11 1.3 1.46 1.58 1.67 1.78 2.05 2.26 2.27 2.43
3539.674 2.55 2.58 2.62 2.51 2.32 2.29 2.3 2.15 1.94 1.85
3558.964 1.83 1.71 1.59 1.48 1.55 1.5 1.29 1.16 1.12 1.13
3578.254 0.9976 0.8659 0.9173 1 0.973 0.7786 0.6495 0.7285 0.7665 0.7379
3597.544 0.688 0.6037 0.6194 0.5376 0.4453 0.5188 0.7082 0.7112 0.5039 0.479
3616.833 0.5959 0.6552 0.5794 0.4388 0.3416 0.2704 0.2875 0.3658 0.3172 0.2806
3636.123 0.306 0.3181 0.2801 0.2244 0.3242 0.3264 0.2744 0.3457 0.3798 0.3646
3655.413 0.2447 0.303 0.4634 0.5117 0.494 0.4011 0.3221 0.2453 0.2424 0.2966
3674.703 0.2541 0.2353 0.3634 0.4445 0.3024 0.2831 0.4044 0.438 0.4989 0.436
3693.993 0.3354 0.3762 0.6424 0.6648 0.4592 0.4431 0.5047 0.6333 0.6013 0.5334
3713.282 0.564 0.4061 0.4491 0.5235 0.3144 0.1602 0.08886 0.1815 0.3905 0.4767
3732.572 0.2873 0.06088 0.03922 0.2518 0.4193 0.3144 0.2058 0.3497 0.3291 0.2666
3751.862 0.3763 0.4325 0.3429 0.4475 0.5619 0.508 0.5611 0.5281 0.348 0.2106
3771.152 0.158 0.2031 0.4018 0.4924 0.46 0.5041 0.3759 0.2824 0.2896 0.3519
3790.441 0.5037 0.535 0.4988 0.6086 0.5758 0.454 0.5981 0.6347 0.6435 0.7309
3809.731 0.6316 0.5508 0.7208 0.8223 0.5963 0.5234 0.7842 0.8433 0.8168 0.8632
3829.021 0.7784 0.7259 0.7774 0.6354 0.4785 0.4547 0.5389 0.5338 0.3827 0.4521
3848.311 0.6274 0.6373 0.6035 0.558 0.4238 0.5665 0.7115 0.5141 0.3885 0.5362
3867.601 0.5089 0.3673 0.5893 0.668 0.6342 0.5973 0.464 0.5451 0.6029 0.5054
3886.890 0.4794 0.5731 0.6337 0.6359 0.6529 0.6246 0.6538 0.7789 0.8814 0.7862
3906.180 0.622 0.4476 0.4486 0.5518 0.5634 0.4845 0.3855 0.4629 0.5058 0.4984
3925.470 0.5496 0.6735 0.7895 0.7546 0.6235 0.7255 0.8327 0.767 0.741 0.7634
3944.760 0.7753 0.8929 0.8222 0.6777 0.6908 0.677 0.7 0.7677 0.8811 0.7487
3964.049 0.5731 0.6062 0.6905 0.7226 0.6951 0.7402 0.6988 0.5336 0.6327 0.6963
3983.339 0.5313 0.5965 0.6233 0.6554 0.6971 0.5701 0.6115 0.6552 0.6717 0.6644
##END=
