##TITLE=cis-3,5-Dimethylcyclohexanone
##JCAMP-DX=4.24
##DATA TYPE=INFRARED SPECTRUM
##ORIGIN=NIST Mass Spectrometry Data Center
##OWNER=NIST Standard Reference Data Program
Collection (C) 2018 copyright by the U.S. Secretary of Commerce
on behalf of the United States of America. All rights reserved.
##CAS REGISTRY NO=7214-49-5
##MOLFORM=C 8 H 14 O
##$NIST SOURCE=MSDC-IR
##SPECTROMETER/DATA SYSTEM=HP-GC/MS/IRD
##STATE=gas
##XUNITS=1/CM
##YUNITS=ABSORBANCE
##XFACTOR=1.0
##YFACTOR=0.000002000
##DELTAX=4.0
##FIRSTX=550.0
##LASTX=3846.0
##FIRSTY=0.000394
##MAXX=3846
##MINX=550
##MAXY=0.02
##MINY=0
##NPOINTS=825
##XYDATA=(X++(Y..Y))
550.0 197 188 151 122 56 13 45 47 61 88
590.0 57 50 56 33 50 86 106 113 102 77
630.0 70 66 41 25 23 15 11 38 43 9
670.0 3 30 41 29 14 9 20 30 29 24
710.0 24 29 44 28 19 44 70 64 44 23
750.0 23 49 46 32 44 60 65 57 47 52
790.0 64 86 86 97 120 146 168 165 186 193
830.0 185 190 190 187 177 173 187 191 192 242
870.0 288 293 293 275 223 163 102 73 64 47
910.0 50 52 40 36 41 57 62 65 71 68
950.0 52 50 57 57 59 57 60 54 47 54
990.0 58 62 68 74 84 99 100 93 108 134
1030.0 167 200 227 284 363 428 458 466 456 435
1070.0 383 306 261 222 191 176 175 198 230 247
1110.0 267 308 339 350 345 324 292 258 234 212
1150.0 196 211 257 306 335 362 398 423 424 419
1190.0 438 500 592 745 1002 1364 1732 1967 2039 1956
1230.0 1731 1359 996 822 872 1063 1320 1594 1806 1938
1270.0 1964 1856 1626 1323 1046 797 551 391 329 312
1310.0 321 358 431 551 715 871 999 1102 1175 1197
1350.0 1183 1172 1143 1102 1055 987 905 833 789 720
1390.0 618 518 429 380 415 541 709 840 933 1003
1430.0 1006 942 891 910 1065 1280 1320 1371 1440 1234
1470.0 971 778 584 416 296 219 178 158 136 112
1510.0 106 98 90 90 90 82 78 74 66 62
1550.0 60 59 54 63 72 76 86 88 96 116
1590.0 128 136 138 138 144 149 153 162 180 202
1630.0 218 243 279 302 315 324 331 342 341 339
1670.0 360 398 452 521 623 755 939 1204 1617 2288
1710.0 3351 4865 6700 8394 9519 10000 9739 8652 6955 5246
1750.0 3989 3162 2517 1904 1338 893 599 437 351 301
1790.0 269 257 250 246 238 216 204 192 170 146
1830.0 128 112 104 97 81 69 68 74 75 69
1870.0 77 94 105 105 99 92 76 61 51 45
1910.0 44 36 33 28 24 25 29 25 25 31
1950.0 32 30 32 30 25 24 24 23 27 27
1990.0 23 21 20 21 13 18 21 18 20 24
2030.0 35 39 36 31 30 36 36 28 36 36
2070.0 37 42 45 52 44 36 39 37 32 35
2110.0 36 31 27 25 22 9 8 16 25 31
2150.0 31 35 31 28 38 36 29 28 31 34
2190.0 36 38 37 30 22 18 24 21 17 22
2230.0 15 20 31 27 22 13 4 6 6 6
2270.0 12 15 24 27 17 6 0 8 15 9
2310.0 9 18 22 14 10 12 14 19 20 21
2350.0 15 9 10 1 1 2 4 1 14 24
2390.0 11 9 22 30 31 29 30 37 33 20
2430.0 20 24 17 25 28 23 25 20 19 20
2470.0 20 15 12 15 23 19 19 30 20 15
2510.0 12 8 9 15 21 24 24 21 25 17
2550.0 13 24 23 17 18 8 10 15 6 9
2590.0 23 35 46 51 41 46 59 52 45 46
2630.0 52 62 64 60 51 49 52 46 49 54
2670.0 53 57 58 47 43 50 49 55 69 72
2710.0 70 82 93 102 116 133 141 142 147 141
2750.0 131 127 118 116 122 119 125 146 164 175
2790.0 191 213 235 253 282 320 371 454 551 675
2830.0 848 1033 1147 1249 1320 1281 1215 1196 1267 1538
2870.0 2021 2563 3055 3548 3997 4238 4318 4337 4559 5112
2910.0 5294 5181 5275 5337 5275 4997 4676 4394 4205 4394
2950.0 5127 6281 7937 9486 9312 8040 6692 4878 2952 1654
2990.0 1016 711 553 458 382 315 279 253 229 204
3030.0 175 163 159 165 178 175 173 180 171 159
3070.0 161 162 159 161 167 153 140 135 129 116
3110.0 106 108 100 99 97 85 81 64 68 99
3150.0 114 109 86 67 77 85 86 98 105 106
3190.0 99 93 75 63 58 54 58 55 50 44
3230.0 34 26 30 36 21 1 4 12 16 26
3270.0 42 40 39 37 35 22 10 11 14 13
3310.0 27 45 35 19 31 37 35 33 37 53
3350.0 64 72 71 61 49 52 49 41 39 43
3390.0 63 74 82 89 88 100 99 117 142 140
3430.0 157 181 188 190 182 164 141 133 126 109
3470.0 104 84 63 75 83 67 76 67 51 57
3510.0 56 43 28 33 19 1 19 42 37 46
3550.0 39 20 33 26 26 37 30 38 47 34
3590.0 19 40 41 27 38 42 38 28 25 40
3630.0 46 45 39 39 31 19 40 48 42 43
3670.0 38 31 27 18 26 17 15 32 49 52
3710.0 41 45 52 56 44 18 8 13 29 41
3750.0 24 30 40 42 50 42 43 48 47 41
3790.0 54 52 25 27 44 49 37 47 65 41
3830.0 33 49 66 61 31
##END=
