##TITLE=o-Methoxybenzenethiol
##JCAMP-DX=4.24
##DATA TYPE=INFRARED SPECTRUM
##ORIGIN=EPA-IR VAPOR PHASE LIBRARY
##OWNER=SRD/NIST
Collection (C) 2018 copyright by the U.S. Secretary of Commerce
on behalf of the United States of America. All rights reserved.
##CAS REGISTRY NO=7217-59-6
##MOLFORM=C 7 H 8 O S
##$NIST SOURCE=MSDC-IR
##STATE=gas
##XUNITS=1/CM
##YUNITS=ABSORBANCE
##XFACTOR=1.
##YFACTOR=0.001
##DELTAX=1.92898
##FIRSTX=549.8
##LASTX=4000.7
##FIRSTY=1.9274
##MAXX=4000.7
##MINX=549.759
##MAXY=0.107167
##MINY=0
##NPOINTS=1790
##XYDATA=(X++(Y..Y))
549.759 1.9274 1.9174 1.8674 1.7974 1.7874 1.9174 2.2874 2.5374 2.5774 2.6874
569.049 2.9374 3.1074 3.0474 2.9274 3.0374 3.0374 2.7674 2.7974 2.8374 2.6574
588.339 2.5174 2.3374 2.0174 1.7474 1.5174 1.2574 1.1074 1.0574 0.8933 0.7857
607.628 0.8778 0.7872 0.6273 0.5769 0.4932 0.4964 0.4959 0.3106 0.3305 0.3928
626.918 0.3864 0.435 0.3831 0.3893 0.4803 0.5537 0.6276 0.7327 0.6225 0.5611
646.208 0.7029 0.6579 0.6934 0.8875 1.0774 1.3074 1.6174 2.0174 2.4674 3.0374
665.498 3.7074 4.5174 5.3374 6.1474 6.8274 7.4374 8.1274 8.5374 8.7974 8.9074
684.787 8.8074 8.5074 8.1074 7.6574 7.1874 6.8774 6.7174 6.7274 6.8474 7.1174
704.077 7.6574 8.3674 9.2974 10.4474 11.3874 12.0774 12.8074 13.5774 14.3774 15.4274
723.367 17.0174 19.0074 21.3274 23.8974 26.5574 29.3474 32.4174 36.2274 41.0774 46.5474
742.657 50.9274 51.1674 48.3374 45.7474 43.1874 39.9074 35.9274 31.8274 27.9574 24.2374
761.947 20.8374 17.7274 14.8774 12.5074 10.5974 9.0974 7.9774 7.2474 6.9374 6.8374
781.236 6.7874 6.9174 7.1074 7.0974 7.0474 7.0974 7.0674 6.8774 6.5974 6.3074
800.526 5.9374 5.3574 4.6974 4.1374 3.6974 3.2574 2.8074 2.4374 2.2374 2.0974
819.816 1.9774 1.8274 1.6674 1.6274 1.5774 1.6074 1.7174 1.6674 1.5974 1.5474
839.106 1.5774 1.5574 1.4274 1.4074 1.4474 1.4474 1.3274 1.2574 1.2574 1.3274
858.395 1.2974 1.1274 1.0274 1.0674 1.1874 1.1774 1.2274 1.2774 1.1874 1.1474
877.685 1.0774 1.0774 1.1474 1.1274 1.1074 1.1174 1.1674 1.2174 1.1974 1.1974
896.975 1.3074 1.4174 1.5374 1.5974 1.6474 1.7774 1.8974 2.0174 2.2474 2.4574
916.265 2.5774 2.8374 3.0474 3.2174 3.3974 3.4174 3.2574 3.1674 3.1674 3.1374
935.555 2.9874 2.8174 2.7574 2.7474 2.7774 2.6674 2.5074 2.5074 2.5074 2.5474
954.844 2.6074 2.6174 2.5974 2.6774 2.7974 2.9174 3.0774 3.3174 3.5574 3.7774
974.134 4.0374 4.3274 4.6074 4.9274 5.2774 5.5974 5.8974 6.3374 6.8874 7.3774
993.424 7.9374 8.5574 9.3974 10.4274 11.6574 13.1274 14.6974 16.6374 18.7874 21.0274
1012.714 23.4074 25.6274 27.8274 30.0674 32.2674 34.2774 36.1274 37.8774 39.3274 40.5574
1032.003 41.3474 41.4074 40.6274 39.4174 37.6874 35.2974 32.5474 29.6574 26.8974 23.9974
1051.293 21.2674 19.0574 17.2774 16.2074 16.2374 17.1174 18.6774 20.7774 23.0174 25.2974
1070.583 27.4574 29.2274 30.7574 32.0074 32.6174 32.6274 32.0474 30.8974 29.3074 27.0374
1089.873 24.3274 21.8074 19.3974 17.3174 15.2674 13.2274 11.5074 9.9274 8.8274 7.8674
1109.163 6.9974 6.5174 6.2774 6.3274 6.6474 7.3274 8.0874 8.6874 9.2274 9.5974
1128.452 9.8074 9.9074 9.8174 9.6974 9.5274 9.2074 8.5974 7.6174 6.6974 6.0074
1147.742 5.4474 5.1574 4.9874 4.9374 4.8374 4.7874 5.0374 5.2274 5.4474 5.8874
1167.032 6.2574 6.6074 7.1074 7.4974 7.8474 8.3174 8.7174 9.1474 9.4674 9.6074
1186.322 9.7274 9.6874 9.7574 9.7374 9.4274 9.2274 9.1774 9.2674 9.5674 10.0474
1205.611 10.7574 11.6674 12.8374 14.3474 16.2174 18.8174 21.9074 25.6974 30.4974 36.2274
1224.901 43.0874 51.0574 59.9974 69.5874 78.9674 87.6074 95.1574 101.067 104.957 106.867
1244.191 107.167 105.567 102.067 96.5874 89.2774 80.6574 71.4474 62.7374 55.0974 49.1574
1263.481 44.9574 42.0074 39.9174 38.3574 37.1874 36.0774 34.8674 33.7774 32.6274 31.2874
1282.771 30.0374 28.8474 27.6274 26.4574 25.2274 24.0774 22.9674 21.7574 20.5474 19.2574
1302.060 17.8174 16.2774 14.5974 12.8174 11.0574 9.3274 7.7474 6.4374 5.4174 4.6674
1321.350 4.1174 3.7174 3.4174 3.1774 3.0074 2.8874 2.7974 2.7174 2.6374 2.5674
1340.640 2.5574 2.5074 2.4674 2.4774 2.4774 2.4674 2.4674 2.5074 2.5674 2.6074
1359.930 2.6774 2.7474 2.8474 2.9874 3.1174 3.2674 3.4174 3.5274 3.6574 3.7474
1379.219 3.7974 3.8474 3.8774 3.8774 3.8574 3.8374 3.7874 3.7374 3.7174 3.7074
1398.509 3.7274 3.8274 3.9474 4.0974 4.3574 4.6474 5.0074 5.5674 6.3174 7.2774
1417.799 8.5374 10.2474 12.3574 14.8774 17.7774 20.6774 23.2774 25.3174 26.6974 27.5874
1437.089 28.4874 29.4674 30.4374 31.2074 31.5074 31.1874 30.5474 30.3474 31.1074 32.9674
1456.378 36.0174 39.9274 44.2074 48.9174 53.8674 59.3374 65.6874 72.7274 79.5374 85.2174
1475.668 88.8274 90.2874 89.7074 87.4774 83.9074 79.1374 73.1074 65.7674 57.0974 47.8974
1494.958 39.0874 31.3074 25.1574 20.5274 17.1374 14.6274 12.6274 10.9474 9.5974 8.4474
1514.248 7.3974 6.4274 5.6174 5.0374 4.5774 4.1874 3.9274 3.7274 3.5374 3.4874
1533.538 3.4774 3.4374 3.4974 3.6574 3.8274 4.0374 4.3474 4.7174 5.2074 5.7874
1552.827 6.5474 7.5074 8.5974 9.9574 11.6274 13.3874 15.2974 17.3174 19.2974 21.2674
1572.117 23.1274 24.7874 26.2874 27.4974 28.2474 28.3074 27.5774 26.1974 24.3574 22.2674
1591.407 20.1674 18.1474 16.1674 14.0974 12.0474 10.1574 8.4774 6.9974 5.7774 4.8574
1610.697 4.2074 3.6874 3.2574 2.8674 2.5574 2.3574 2.1674 1.9974 1.8874 1.7774
1629.986 1.6774 1.5974 1.5374 1.5374 1.5374 1.5174 1.4774 1.4474 1.4874 1.5474
1649.276 1.5574 1.5874 1.6474 1.6774 1.7074 1.7874 1.8274 1.8374 1.8574 1.8374
1668.566 1.8174 1.8074 1.8174 1.8274 1.8174 1.7774 1.7174 1.6974 1.6474 1.5774
1687.856 1.5274 1.4574 1.4274 1.3974 1.3474 1.3374 1.3374 1.3574 1.3774 1.3474
1707.146 1.3574 1.3774 1.3374 1.3174 1.3474 1.3574 1.3274 1.2974 1.2674 1.3174
1726.435 1.3674 1.3274 1.2974 1.2974 1.3074 1.3374 1.3774 1.4274 1.4774 1.5374
1745.725 1.5874 1.6774 1.7574 1.7974 1.8174 1.8374 1.8474 1.8174 1.8274 1.8174
1765.015 1.7674 1.7474 1.7074 1.6374 1.5674 1.4974 1.4674 1.4374 1.4374 1.4374
1784.305 1.4174 1.3574 1.3274 1.3474 1.3674 1.4174 1.4674 1.4874 1.4874 1.4874
1803.594 1.4774 1.4674 1.4874 1.4574 1.4374 1.4374 1.4174 1.3974 1.4074 1.3874
1822.884 1.3374 1.3174 1.3274 1.3374 1.3574 1.3674 1.3474 1.3574 1.3674 1.3674
1842.174 1.3774 1.3674 1.3674 1.3774 1.3874 1.4074 1.4374 1.4374 1.4774 1.5474
1861.464 1.6074 1.6774 1.7874 1.9174 2.0574 2.1874 2.2474 2.2974 2.3774 2.3974
1880.754 2.3974 2.3974 2.3574 2.2874 2.2174 2.1074 1.9774 1.8574 1.7474 1.6774
1900.043 1.6274 1.6174 1.6374 1.6974 1.7974 1.8974 2.0074 2.1374 2.2274 2.2774
1919.333 2.3074 2.2774 2.1974 2.0974 1.9774 1.8574 1.6974 1.5174 1.3374 1.1674
1938.623 1.0071 0.8656 0.7764 0.7003 0.5986 0.5529 0.5636 0.5571 0.5688 0.5746
1957.913 0.5506 0.5503 0.5671 0.583 0.5696 0.5612 0.5758 0.5808 0.5785 0.5822
1977.202 0.584 0.582 0.6132 0.6427 0.649 0.6792 0.7229 0.7583 0.8161 0.8309
1996.492 0.8427 0.9008 0.9571 1.0174 1.0774 1.1274 1.1974 1.2874 1.4174 1.5374
2015.782 1.6474 1.7974 1.9274 2.0374 2.1474 2.2374 2.3174 2.3974 2.4774 2.5474
2035.072 2.5474 2.4974 2.4674 2.4474 2.4074 2.3074 2.2174 2.1974 2.1374 2.0874
2054.362 2.0674 2.0274 2.0174 2.0074 1.9374 1.8874 1.8574 1.7774 1.6774 1.5874
2073.651 1.5274 1.4874 1.3974 1.2874 1.1974 1.1374 1.0774 1.0374 0.9879 0.9289
2092.941 0.8868 0.8406 0.8147 0.8314 0.8223 0.7872 0.7858 0.7744 0.746 0.7374
2112.231 0.7118 0.6656 0.6211 0.6126 0.5955 0.5681 0.5561 0.5397 0.5344 0.5078
2131.521 0.4949 0.5109 0.5147 0.468 0.424 0.4328 0.4587 0.4811 0.5095 0.5233
2150.810 0.5116 0.5235 0.5212 0.5495 0.575 0.5591 0.5476 0.516 0.4775 0.4237
2170.100 0.4009 0.4186 0.407 0.3813 0.3695 0.359 0.3345 0.3273 0.3416 0.3215
2189.390 0.2802 0.2784 0.3253 0.3227 0.2559 0.262 0.3019 0.2896 0.2874 0.3055
2208.680 0.3107 0.2889 0.3102 0.3554 0.3431 0.34 0.3353 0.3467 0.3635 0.3745
2227.970 0.3863 0.361 0.3525 0.3775 0.4329 0.4723 0.5081 0.5014 0.4713 0.5328
2247.259 0.5869 0.6384 0.6705 0.6873 0.7281 0.7733 0.8054 0.856 0.9248 0.9936
2266.549 1.0274 0.9973 1.013 1.0374 1.0374 1.0018 0.9741 0.954 0.9346 0.9179
2285.839 0.8538 0.8135 0.7973 0.75 0.69 0.631 0.6223 0.5926 0.5453 0.5342
2305.129 0.5583 0.558 0.5319 0.5231 0.5236 0.5202 0.5097 0.5486 0.5749 0.5723
2324.418 0.5625 0.5433 0.5322 0.5127 0.4798 0.4948 0.5374 0.5123 0.4664 0.4337
2343.708 0.4133 0.4215 0.4423 0.428 0.4543 0.5096 0.4991 0.5181 0.5538 0.5842
2362.998 0.5961 0.6006 0.5895 0.5869 0.6225 0.6516 0.6321 0.6019 0.6511 0.678
2382.288 0.6443 0.5696 0.5023 0.5035 0.5021 0.4709 0.4524 0.4566 0.4574 0.3904
2401.578 0.374 0.4387 0.4146 0.3709 0.42 0.4349 0.4144 0.4085 0.3878 0.4018
2420.867 0.4206 0.4194 0.4111 0.4458 0.4418 0.4147 0.4406 0.453 0.452 0.4344
2440.157 0.4399 0.4751 0.5256 0.5571 0.5756 0.5466 0.5503 0.5998 0.5731 0.5744
2459.447 0.6467 0.7237 0.7635 0.7908 0.7967 0.8307 0.8659 0.8648 0.8189 0.7853
2478.737 0.8153 0.8037 0.8002 0.8286 0.8465 0.8433 0.8607 0.8516 0.8231 0.8294
2498.026 0.7793 0.8065 0.8667 0.8342 0.8161 0.8754 0.8688 0.8459 0.9099 0.9751
2517.316 1.0089 1.0674 1.1274 1.1874 1.1974 1.2174 1.3774 1.4574 1.4574 1.4574
2536.606 1.4774 1.5174 1.5574 1.5874 1.5674 1.5274 1.5274 1.4974 1.4274 1.3774
2555.896 1.3674 1.3574 1.3274 1.3474 1.3274 1.2674 1.3074 1.3274 1.3174 1.3774
2575.186 1.4874 1.6174 1.7074 1.8274 1.9874 2.1974 2.4274 2.6874 2.9374 3.1174
2594.475 3.2774 3.3974 3.4874 3.5474 3.4974 3.3774 3.2374 3.1074 2.8774 2.5574
2613.765 2.2774 2.0074 1.7174 1.5074 1.3174 1.1674 1.0174 0.8583 0.779 0.722
2633.055 0.6773 0.6973 0.7024 0.6164 0.5754 0.555 0.5431 0.5745 0.6336 0.6143
2652.345 0.5399 0.5227 0.4743 0.4215 0.416 0.4351 0.4226 0.3809 0.4307 0.4904
2671.634 0.434 0.4071 0.4572 0.4681 0.4543 0.4708 0.4876 0.4743 0.4706 0.4833
2690.924 0.4489 0.4328 0.4667 0.4704 0.509 0.5557 0.5334 0.5088 0.5533 0.5949
2710.214 0.5846 0.5628 0.5685 0.5697 0.5313 0.551 0.5533 0.5414 0.516 0.5107
2729.504 0.59 0.6212 0.5648 0.5615 0.5441 0.5385 0.5794 0.5716 0.6122 0.6295
2748.794 0.6314 0.6033 0.5775 0.5978 0.6099 0.6296 0.6677 0.7021 0.7206 0.7525
2768.083 0.7708 0.7615 0.7721 0.8326 0.9006 0.9478 0.9745 0.9688 0.9789 1.0092
2787.373 1.1074 1.2374 1.2874 1.3574 1.4574 1.5174 1.6374 1.7874 1.9574 2.1374
2806.663 2.2974 2.4874 2.6974 2.9374 3.1874 3.5074 3.8574 4.1974 4.5974 5.1374
2825.953 5.7774 6.5974 7.5674 8.7074 10.0574 11.4174 12.6474 13.6374 14.2774 14.5574
2845.242 14.7074 14.7574 14.6774 14.3774 13.6874 12.6774 11.5074 10.2774 9.1374 8.2074
2864.532 7.5474 7.1174 6.8474 6.7274 6.6574 6.6674 6.7474 6.8174 6.8774 6.9474
2883.822 7.0674 7.2174 7.3274 7.4274 7.6274 7.9074 8.1974 8.5374 8.9074 9.2574
2903.112 9.5974 10.0374 10.4774 10.8774 11.3374 11.7874 12.2574 12.6474 13.0174 13.3474
2922.401 13.5574 13.8074 14.1674 14.7374 15.4874 16.5074 17.7274 19.0974 20.6074 22.0174
2941.691 23.2574 24.2674 25.0374 25.6374 26.0074 26.1374 26.0174 25.4674 24.5374 23.5374
2960.981 22.6474 21.9274 20.6974 18.7674 16.9274 15.5274 14.4274 13.5174 12.7774 12.0274
2980.271 11.4174 10.9974 10.6774 10.5774 10.7374 11.1074 11.6974 12.5274 13.6274 14.9174
2999.561 16.2974 17.5774 18.5774 19.2674 19.6174 19.6974 19.6374 19.4274 18.8474 17.9674
3018.850 16.8374 15.4174 13.8874 12.4374 11.1974 10.1574 9.3174 8.6874 8.1874 7.7574
3038.140 7.5274 7.4974 7.4974 7.5874 7.8074 8.1174 8.5474 9.0974 9.7974 10.6474
3057.430 11.7274 13.1374 14.8174 16.6174 18.4274 20.2974 21.7874 22.6474 23.1674 23.3174
3076.720 23.1774 22.7474 22.0174 20.9774 19.4174 17.4174 15.2674 13.0874 11.1874 9.7274
3096.009 8.5674 7.6174 6.8174 6.1074 5.3674 4.6774 4.0074 3.4674 3.0574 2.5874
3115.299 2.1874 1.9574 1.8774 1.8274 1.7774 1.6774 1.5274 1.4874 1.3774 1.3274
3134.589 1.4674 1.4474 1.4174 1.4274 1.3174 1.2874 1.4074 1.3874 1.2974 1.3174
3153.879 1.2174 1.2274 1.2874 1.1874 1.0774 1.0174 0.9477 0.8277 0.801 0.8128
3173.169 0.7776 0.6702 0.6357 0.6534 0.6108 0.5262 0.5195 0.5037 0.4668 0.4291
3192.458 0.3375 0.28 0.2975 0.3259 0.3021 0.3048 0.2788 0.2699 0.3165 0.3271
3211.748 0.3212 0.3042 0.1933 0.1799 0.247 0.2946 0.3219 0.2221 0.1624 0.1955
3231.038 0.2512 0.2719 0.2343 0.1855 0.2915 0.3485 0.2452 0.2384 0.1604 0.1109
3250.328 0.1747 0.2391 0.2695 0.2308 0.1764 0.1937 0.1467 0.10216 0.1843 0.2794
3269.617 0.2816 0.2352 0.2998 0.3083 0.189 0.1916 0.2269 0.1388 0.1206 0.2388
3288.907 0.2606 0.1848 0.1825 0.1702 0.1482 0.1678 0.1776 0.1435 0.1557 0.2191
3308.197 0.1892 0.1654 0.178 0.1867 0.287 0.2697 0.1922 0.1833 0.10706 0.11213
3327.487 0.2225 0.2256 0.1636 0.1227 0.10414 0.10649 0.1984 0.2075 0.1665 0.1294
3346.777 0.11067 0.1644 0.2102 0.2099 0.1507 0.1565 0.11166 0.03891 0.05869 0.08718
3366.066 0 0.03405 0.1619 0.134 0.06412 0.0026 0.0682 0.1189 0.10773 0.1217
3385.356 0.1362 0.09934 0.1792 0.2968 0.2336 0.138 0.1366 0.1755 0.1126 0.1623
3404.646 0.1365 0.08904 0.08872 0.05344 0.08271 0.1245 0.139 0.09404 0.03388 0.07732
3423.936 0.1838 0.2029 0.1969 0.2542 0.2459 0.3136 0.3917 0.4098 0.4408 0.4245
3443.225 0.4325 0.4122 0.3974 0.4552 0.452 0.4118 0.4137 0.3679 0.4065 0.3856
3462.515 0.3381 0.4433 0.5493 0.5752 0.5083 0.485 0.5682 0.632 0.699 0.7537
3481.805 0.7541 0.7623 0.8016 0.8445 0.8198 0.8498 0.8973 0.9038 0.9587 0.918
3501.095 0.8703 0.84 0.8325 0.8108 0.7325 0.7016 0.6855 0.5805 0.463 0.4341
3520.385 0.3374 0.3148 0.3485 0.3484 0.3119 0.2517 0.2675 0.2191 0.1538 0.1477
3539.674 0.1722 0.2377 0.182 0.07753 0.07708 0.03704 0.0902 0.1534 0.06452 0.01331
3558.964 0.04979 0.153 0.2115 0.2182 0.2238 0.1371 0.1329 0.149 0.11048 0.09106
3578.254 0.07704 0.09968 0.1373 0.10306 0.10486 0.1391 0.09371 0.1284 0.1411 0.2028
3597.544 0.209 0.1355 0.08769 0.05341 0.022835 0.03165 0.11157 0.1261 0.1367 0.2245
3616.833 0.2278 0.1411 0.11215 0.1227 0.1544 0.09789 0.06041 0.0622 0.065 0.10086
3636.123 0.09777 0.05593 0.003 0.11272 0.1532 0.1828 0.2059 0.1672 0.2255 0.1735
3655.413 0.11456 0.1459 0.1417 0.1567 0.1583 0.1607 0.2282 0.2302 0.2176 0.2184
3674.703 0.2856 0.1434 0.0058 0.1923 0.2977 0.2259 0.196 0.2201 0.2184 0.2001
3693.993 0.1965 0.1843 0.189 0.1225 0.04948 0.027096 0.1745 0.2605 0.08286 0.09746
3713.282 0.2095 0.2247 0.2774 0.2629 0.1642 0.2046 0.2161 0.1478 0.10594 0.11321
3732.572 0.1577 0.2298 0.2607 0.1757 0.2002 0.2733 0.2369 0.2507 0.2585 0.1644
3751.862 0.1527 0.2538 0.2069 0.04729 0.06834 0.1725 0.2213 0.1959 0.1335 0.08849
3771.152 0.1693 0.2119 0.1731 0.2101 0.1878 0.1909 0.2608 0.2758 0.199 0.1784
3790.441 0.2237 0.2466 0.2784 0.2174 0.11313 0.1376 0.153 0.1783 0.2824 0.3654
3809.731 0.3115 0.2303 0.2143 0.2114 0.3061 0.2549 0.1356 0.2216 0.2786 0.2221
3829.021 0.1839 0.1907 0.252 0.2257 0.1356 0.166 0.2802 0.3472 0.3138 0.2981
3848.311 0.3515 0.4004 0.4473 0.5459 0.5675 0.6128 0.6416 0.6141 0.5859 0.5688
3867.601 0.6393 0.5831 0.4423 0.4464 0.536 0.4366 0.3476 0.3486 0.2392 0.1598
3886.890 0.2603 0.3105 0.2905 0.2874 0.2499 0.1765 0.1721 0.3492 0.4157 0.3218
3906.180 0.2449 0.243 0.2773 0.2933 0.2588 0.2326 0.1813 0.1276 0.1618 0.2108
3925.470 0.193 0.3088 0.353 0.1963 0.2553 0.2719 0.2081 0.2331 0.2189 0.1841
3944.760 0.2725 0.3058 0.2344 0.2402 0.2831 0.3701 0.4019 0.394 0.3406 0.3581
3964.049 0.3971 0.3382 0.3463 0.3627 0.3578 0.3082 0.2856 0.2705 0.3092 0.3264
3983.339 0.289 0.3069 0.2871 0.271 0.251 0.2155 0.2675 0.397 0.4004 0.4095
##END=
