##TITLE=3-Chloro-4-fluorobenzylamine
##JCAMP-DX=4.24
##DATA TYPE=INFRARED SPECTRUM
##ORIGIN=EPA-IR VAPOR PHASE LIBRARY
##OWNER=SRD/NIST
Collection (C) 2018 copyright by the U.S. Secretary of Commerce
on behalf of the United States of America. All rights reserved.
##CAS REGISTRY NO=72235-56-4
##MOLFORM=C 7 H 7 Cl F N
##$NIST SOURCE=MSDC-IR
##STATE=gas
##XUNITS=1/CM
##YUNITS=ABSORBANCE
##XFACTOR=1.
##YFACTOR=0.001
##DELTAX=1.929
##FIRSTX=549.8
##LASTX=4000.8
##FIRSTY=10.56
##MAXX=4000.75
##MINX=549.766
##MAXY=0.22054
##MINY=0
##NPOINTS=1790
##XYDATA=(X++(Y..Y))
549.766 10.56 10.44 10.61 10.62 10.38 10.3 10.24 10.28 10.65 11.01
569.056 11.25 11.43 11.79 12.49 12.99 13.2 13.68 14.18 14.44 14.65
588.346 14.96 15.28 15.54 15.71 15.57 15.43 15.25 15.14 15.07 14.91
607.636 14.7 14.66 14.42 14.07 13.78 13.53 13.32 13.24 13.06 12.81
626.926 12.66 12.37 12.4 12.59 12.45 12.47 12.86 13.01 13.02 13.26
646.216 13.6 13.93 14.16 14.46 15.08 15.54 16.24 17.16 17.88 18.74
665.506 19.85 21.35 22.9 24.67 26.77 29.13 31.79 34.16 36.05 37.42
684.796 38.43 39.33 39.99 40.01 39.5 38.77 38.26 38.23 38.57 39.36
704.086 40.56 41.98 43.36 44.65 46.13 47.68 49.16 50.81 52.48 54.1
723.376 55.78 57.46 59.12 60.77 62.68 64.67 66.65 68.8 70.9 72.68
742.666 74.01 74.67 74.6 73.81 72.07 69.43 66.22 62.79 59.26 55.81
761.956 52.65 50.04 48.16 46.92 46.29 46.3 46.64 47.05 47.49 47.72
781.246 47.8 47.97 48.12 48.19 48.22 48.28 48.89 49.76 50.9 52.69
800.536 54.98 57.7 60.67 63.96 67.37 70.51 73.08 74.62 74.41 71.98
819.826 67.79 63.08 58.22 53.04 47.77 42.62 37.85 33.56 29.74 26.39
839.116 23.65 21.5 19.84 18.72 18.05 17.64 17.37 17.54 18.17 19.02
858.406 20.19 21.72 23.66 25.78 28.16 30.68 33.06 35.19 36.79 37.96
877.696 38.69 39.01 39.04 38.74 37.93 36.63 35.13 33.52 31.92 30.4
896.986 28.86 27.3 25.71 24.09 22.36 20.74 19.32 17.86 16.58 15.53
916.276 14.43 13.42 12.57 11.78 11.18 10.8 10.49 10.19 9.89 9.63
935.566 9.35 9.11 8.96 8.82 8.61 8.39 8.23 8.04 7.83 7.68
954.856 7.56 7.41 7.27 7.26 7.28 7.27 7.22 7.06 6.9 6.77
974.146 6.65 6.56 6.54 6.59 6.53 6.53 6.61 6.56 6.59 6.68
993.436 6.62 6.65 6.74 6.85 6.99 7.15 7.25 7.38 7.57 7.69
1012.726 7.82 8.07 8.39 8.53 8.74 9.05 9.43 10.01 10.6 11.25
1032.016 12.09 13.14 14.31 15.74 17.46 19.43 21.89 24.98 28.68 32.94
1051.306 37.71 42.63 46.77 49.19 49.77 49.4 49.39 49.8 48.82 45.07
1070.596 39.44 33.35 27.91 23.45 19.76 16.88 14.66 12.87 11.53 10.61
1089.886 9.84 9.19 8.75 8.37 7.93 7.56 7.29 7.04 6.85 6.79
1109.176 6.82 6.82 6.89 7.15 7.58 8.07 8.61 9.02 9.23 9.42
1128.467 9.6 9.67 9.69 9.75 9.64 9.38 9.17 8.89 8.66 8.55
1147.757 8.31 8 7.77 7.53 7.27 7.14 6.93 6.72 6.69 6.79
1167.047 6.98 7.15 7.34 7.7 8.13 8.53 9.06 9.84 10.74 11.82
1186.337 13.24 14.74 16.29 17.7 18.96 20.04 20.63 20.66 20.45 19.96
1205.627 19.14 17.99 16.55 15.21 14.1 13.34 13.19 13.48 14.14 15.44
1224.917 17.38 20.06 23.65 28.51 34.93 43.05 52.99 64.52 76.92 89.63
1244.207 102.04 113.58 124.27 133.81 141.22 145.96 147.83 147.07 144.26 139.45
1263.497 132.45 123.45 112.93 101.32 89.22 76.98 64.69 52.89 42.69 34.9
1282.787 29.37 25.53 22.77 20.68 18.96 17.45 16.2 15.15 14.18 13.33
1302.077 12.56 11.93 11.41 10.99 10.62 10.24 10.01 9.94 9.9 9.89
1321.367 10.02 10.14 10.31 10.63 11.07 11.42 11.75 12.2 12.64 13.02
1340.657 13.29 13.56 13.92 14.28 14.66 15.14 15.68 16.26 16.94 17.79
1359.947 18.69 19.6 20.57 21.56 22.53 23.44 24.32 25.04 25.57 25.96
1379.237 26.14 26.21 26.31 26.43 26.61 26.89 27.4 28.26 29.49 30.92
1398.527 32.42 33.84 34.83 35.2 34.88 34.08 32.98 31.47 29.42 26.87
1417.817 24.07 21.08 18.43 16.32 14.58 13.27 12.28 11.65 11.22 10.96
1437.107 10.92 10.91 11.13 11.56 12.16 13.01 14 15.18 16.6 18.28
1456.397 20.24 22.08 23.61 24.99 26.29 27.42 28.44 29.63 31.2 33.02
1475.687 35.34 38.83 43.89 51.13 60.92 73.99 91.09 112.22 137.26 163.24
1494.977 187.12 206.46 217.61 220.54 216.14 205.08 186.8 163.04 134.66 103.46
1514.267 76.32 55.69 41.42 32.49 26.17 21.88 18.73 16.39 14.61 13.27
1533.557 12.23 11.31 10.75 10.42 10.02 9.64 9.43 9.3 9.34 9.38
1552.847 9.46 9.63 9.83 10.26 10.64 11.01 11.57 12.23 13.03 13.84
1572.137 14.68 15.69 16.92 18.14 19.35 20.69 21.97 23.23 24.42 25.52
1591.427 26.46 27.34 28.09 28.49 28.7 28.7 28.46 28.08 27.63 27.17
1610.717 26.57 25.87 25.19 24.47 23.68 22.98 22.33 21.57 20.79 19.94
1630.007 18.99 17.99 16.99 15.95 14.86 13.91 12.99 12.19 11.52 10.83
1649.297 10.2 9.7 9.11 8.39 7.77 7.19 6.66 6.22 5.82 5.44
1668.587 5.08 4.76 4.51 4.26 3.92 3.69 3.56 3.45 3.4 3.21
1687.877 2.98 2.88 2.81 2.76 2.81 2.82 2.86 2.79 2.69 2.73
1707.167 2.77 2.77 2.79 2.86 2.97 3.1 3.14 3.18 3.34 3.47
1726.457 3.57 3.72 3.95 4.26 4.56 4.78 5.01 5.3 5.48 5.67
1745.747 5.83 5.91 6 5.96 5.79 5.67 5.51 5.31 5.06 4.8
1765.037 4.59 4.45 4.29 4.14 3.99 3.76 3.6 3.52 3.45 3.37
1784.327 3.33 3.28 3.2 3.15 3.1 3.05 3 3 3.06 3.08
1803.617 3.06 3.01 3.04 3.04 3.05 3.01 2.89 2.87 2.84 2.75
1822.907 2.67 2.57 2.45 2.4 2.32 2.2 2.13 2.09 2.0402 1.9822
1842.197 1.9905 1.9961 1.9402 1.9213 1.9709 2.1 2.2 2.29 2.46 2.66
1861.487 2.9 3.17 3.44 3.72 4.05 4.34 4.51 4.57 4.56 4.48
1880.777 4.35 4.19 3.9 3.58 3.22 2.92 2.66 2.38 2.15 1.9557
1900.067 1.7905 1.6394 1.5138 1.4174 1.3723 1.3016 1.2202 1.1971 1.13411 1.09681
1919.357 1.0407 0.985 0.985 0.974 0.9904 1.0092 1.0113 1.0216 1.01 0.963
1938.647 0.964 1.0116 1.0347 1.0171 1.0006 0.986 0.923 0.887 0.961 0.984
1957.937 0.972 1.0087 0.9941 0.96 0.975 1.0005 0.9919 0.967 0.955 1.0234
1977.227 1.08807 1.08101 1.12198 1.18251 1.2398 1.3168 1.3979 1.4464 1.503 1.6053
1996.517 1.6271 1.6113 1.6302 1.6798 1.6989 1.7033 1.7207 1.7198 1.695 1.682
2015.807 1.7201 1.692 1.5843 1.4734 1.4567 1.4067 1.2896 1.2745 1.2701 1.2252
2035.097 1.18011 1.12421 1.0587 0.996 0.977 0.981 0.928 0.93 0.959 0.891
2054.387 0.87 0.906 0.902 0.878 0.829 0.815 0.801 0.737 0.738 0.746
2073.677 0.759 0.827 0.805 0.728 0.71 0.747 0.771 0.735 0.716 0.708
2092.967 0.714 0.689 0.654 0.701 0.747 0.732 0.702 0.701 0.681 0.656
2112.257 0.694 0.68 0.719 0.804 0.792 0.787 0.821 0.848 0.827 0.865
2131.547 0.934 0.886 0.879 0.916 0.923 0.928 0.911 0.925 0.983 0.973
2150.837 0.921 0.879 0.851 0.826 0.785 0.809 0.797 0.767 0.765 0.72
2170.127 0.653 0.633 0.647 0.667 0.704 0.666 0.614 0.635 0.659 0.669
2189.417 0.658 0.657 0.67 0.678 0.662 0.6 0.568 0.538 0.564 0.611
2208.707 0.633 0.586 0.51 0.55 0.61 0.636 0.664 0.688 0.66 0.694
2227.997 0.782 0.782 0.793 0.833 0.88 0.928 0.971 1.031 1.11335 1.14687
2247.287 1.15159 1.18623 1.18719 1.18833 1.16692 1.14779 1.15324 1.18802 1.1898 1.14594
2266.577 1.1132 1.10542 1.035 1.0024 1.0034 0.903 0.854 0.847 0.875 0.887
2285.868 0.822 0.765 0.739 0.717 0.739 0.798 0.822 0.819 0.813 0.792
2305.158 0.756 0.777 0.842 0.873 0.892 0.912 0.949 1.0181 1.0765 1.13327
2324.448 1.11829 1.0749 1.15465 1.15767 1.12717 1.16897 1.0553 0.973 0.934 0.857
2343.738 0.819 0.815 0.787 0.788 0.82 0.795 0.809 0.856 0.916 0.899
2363.028 0.886 0.907 0.892 0.871 0.818 0.808 0.821 0.795 0.81 0.757
2382.318 0.743 0.809 0.796 0.76 0.722 0.676 0.656 0.659 0.666 0.644
2401.608 0.553 0.484 0.52 0.528 0.486 0.496 0.467 0.452 0.482 0.481
2420.898 0.478 0.492 0.516 0.553 0.555 0.519 0.511 0.556 0.599 0.582
2440.188 0.496 0.535 0.621 0.623 0.679 0.723 0.731 0.74 0.75 0.743
2459.478 0.795 0.837 0.817 0.824 0.811 0.787 0.78 0.818 0.845 0.843
2478.768 0.803 0.756 0.805 0.867 0.918 0.941 0.9967 1.0247 1.0283 1.1183
2498.058 1.2353 1.3105 1.333 1.3996 1.4214 1.4053 1.4259 1.4742 1.5304 1.4909
2517.348 1.4511 1.4533 1.4961 1.5335 1.4887 1.414 1.3491 1.3338 1.3662 1.2755
2536.638 1.17795 1.2123 1.15742 1.11031 1.0661 1.0052 1.0334 1.0611 1.0432 1.0562
2555.928 1.09169 1.08231 1.0361 1.0587 1.08505 0.9957 0.94 0.932 0.925 0.859
2575.218 0.826 0.834 0.803 0.773 0.799 0.775 0.712 0.645 0.601 0.647
2594.508 0.657 0.672 0.706 0.738 0.745 0.723 0.645 0.666 0.75 0.716
2613.798 0.719 0.746 0.702 0.676 0.663 0.71 0.89 0.932 0.836 0.816
2633.088 0.825 0.861 0.907 0.942 0.944 1.0095 1.069 1.0618 0.9989 0.925
2652.378 0.982 1.0305 1.08996 1.079 1.0699 1.10759 1.13216 1.12132 1.09974 1.12073
2671.668 1.10446 1.15175 1.13934 1.11732 1.11757 1.10942 1.1497 1.14711 1.09365 1.12441
2690.958 1.16304 1.12344 1.11061 1.18046 1.2596 1.2621 1.3185 1.3386 1.3423 1.3729
2710.248 1.3839 1.4089 1.5023 1.584 1.6095 1.6897 1.8016 1.86 1.8465 1.881
2729.538 1.968 2.0251 2.0844 2.21 2.28 2.26 2.28 2.41 2.56 2.55
2748.828 2.52 2.65 2.7 2.67 2.76 2.83 2.88 2.83 2.83 2.92
2768.118 2.92 2.94 2.95 2.96 2.96 2.99 3.06 3.09 3.11 3.16
2787.408 3.31 3.37 3.36 3.5 3.65 3.82 4.04 4.2 4.32 4.58
2806.698 4.9 5.12 5.27 5.48 5.82 6.14 6.54 6.97 7.38 7.82
2825.988 8.33 8.79 9.28 9.88 10.41 11.02 11.69 12.32 12.99 13.8
2845.278 14.74 15.75 16.84 18.01 19.28 20.49 21.62 22.81 23.91 24.71
2864.568 25.28 25.72 25.86 25.75 25.48 24.96 24.31 23.61 22.91 22.38
2883.858 21.86 21.3 20.93 20.68 20.62 20.82 21 21.26 21.5 21.81
2903.148 22.17 22.31 22.44 22.4 22.17 21.93 21.52 20.96 20.46 19.97
2922.438 19.53 19.23 18.98 18.82 18.85 19.07 19.33 19.5 19.44 19.41
2941.728 19.4 19.12 18.63 17.95 17.29 16.45 15.3 14.22 13.23 12.25
2961.018 11.26 10.29 9.45 8.6 7.78 7.21 6.72 6.15 5.63 5.21
2980.308 4.76 4.42 4.15 3.83 3.57 3.46 3.36 3.15 2.97 2.78
2999.598 2.64 2.61 2.54 2.48 2.47 2.38 2.29 2.33 2.36 2.39
3018.888 2.64 3.03 3.28 3.58 4.11 4.65 5.32 6.14 6.97 7.75
3038.178 8.45 9 9.42 9.65 9.75 9.62 9.25 8.93 8.54 8.02
3057.468 7.47 6.99 6.72 6.43 6.08 5.82 5.5 5.14 4.97 4.88
3076.758 4.71 4.47 4.25 4.06 3.84 3.54 3.29 3.16 2.99 2.74
3096.048 2.59 2.38 2.19 2.0515 1.8333 1.7681 1.6482 1.4364 1.2593 1.10926
3115.338 1.0498 0.946 0.75 0.533 0.507 0.621 0.576 0.54 0.458 0.248
3134.628 0.111 0.187 0.35 0.3 0.175 0.163 0.162 0.165 0.244 0.234
3153.918 0.225 0.242 0.189 0.104 0.111 0.256 0.34 0.331 0.312 0.31
3173.208 0.359 0.402 0.348 0.304 0.256 0.311 0.423 0.378 0.321 0.235
3192.498 0.239 0.417 0.425 0.385 0.383 0.248 0.171 0.214 0.316 0.397
3211.788 0.331 0.327 0.387 0.392 0.451 0.39 0.331 0.372 0.393 0.354
3231.078 0.254 0.353 0.38 0.283 0.246 0.23 0.252 0.259 0.335 0.298
3250.368 0.242 0.255 0.109 0.08 0.234 0.272 0.233 0.184 0.207 0.185
3269.658 0.113 0.137 0.206 0.18 0.04 0 0.07 0.188 0.181 0.102
3288.948 0.03 0.03 0.213 0.284 0.223 0.311 0.356 0.309 0.356 0.387
3308.238 0.352 0.241 0.227 0.357 0.352 0.349 0.461 0.462 0.403 0.455
3327.528 0.498 0.477 0.605 0.809 0.825 0.754 0.826 1.0707 1.2549 1.2794
3346.818 1.4448 1.5679 1.5867 1.6855 1.5643 1.4806 1.5427 1.3573 1.08909 1.0345
3366.108 1.0124 0.89 0.811 0.805 0.685 0.561 0.593 0.608 0.601 0.571
3385.398 0.566 0.586 0.596 0.644 0.6 0.549 0.619 0.669 0.795 0.906
3404.688 0.878 0.904 0.951 1.08057 1.13183 1.13145 1.1989 1.253 1.2986 1.3202
3423.978 1.3854 1.284 1.1164 1.0792 1.10123 1.0243 0.887 0.944 1.0417 0.921
3443.269 0.779 0.839 0.725 0.576 0.556 0.614 0.75 0.642 0.511 0.577
3462.559 0.599 0.47 0.457 0.444 0.35 0.302 0.226 0.241 0.338 0.404
3481.849 0.387 0.258 0.165 0.214 0.349 0.354 0.418 0.49 0.441 0.399
3501.139 0.368 0.377 0.318 0.25 0.31 0.344 0.259 0.19 0.165 0.16
3520.429 0.213 0.211 0.169 0.16 0.233 0.206 0.07 0.117 0.232 0.168
3539.719 0.196 0.317 0.22 0.199 0.232 0.285 0.359 0.406 0.316 0.252
3559.009 0.288 0.291 0.227 0.151 0.138 0.147 0.261 0.3 0.149 0.117
3578.299 0.252 0.295 0.234 0.226 0.302 0.297 0.268 0.185 0.157 0.217
3597.589 0.312 0.418 0.286 0.175 0.239 0.369 0.473 0.453 0.337 0.249
3616.879 0.281 0.357 0.364 0.221 0.114 0.156 0.318 0.374 0.387 0.476
3636.169 0.451 0.226 0.19 0.302 0.305 0.392 0.52 0.43 0.251 0.242
3655.459 0.272 0.275 0.309 0.33 0.315 0.283 0.355 0.337 0.301 0.288
3674.749 0.31 0.372 0.332 0.28 0.27 0.251 0.235 0.299 0.308 0.423
3694.039 0.445 0.306 0.288 0.291 0.279 0.385 0.431 0.342 0.403 0.52
3713.329 0.405 0.314 0.325 0.381 0.44 0.38 0.395 0.465 0.395 0.474
3732.619 0.519 0.492 0.566 0.409 0.372 0.443 0.491 0.577 0.51 0.447
3751.909 0.499 0.549 0.547 0.504 0.485 0.533 0.462 0.388 0.401 0.483
3771.199 0.392 0.38 0.44 0.366 0.343 0.412 0.471 0.432 0.544 0.6
3790.489 0.408 0.206 0.286 0.412 0.403 0.471 0.469 0.331 0.366 0.429
3809.779 0.413 0.39 0.368 0.374 0.404 0.496 0.533 0.501 0.371 0.29
3829.069 0.388 0.414 0.336 0.269 0.307 0.304 0.276 0.399 0.399 0.397
3848.359 0.549 0.529 0.494 0.402 0.253 0.317 0.258 0.166 0.255 0.371
3867.649 0.407 0.447 0.405 0.282 0.259 0.24 0.262 0.165 0.104 0.247
3886.939 0.255 0.182 0.192 0.145 0.02 0.12 0.318 0.314 0.318 0.352
3906.229 0.36 0.331 0.324 0.307 0.408 0.579 0.479 0.403 0.356 0.344
3925.519 0.414 0.409 0.437 0.563 0.62 0.564 0.532 0.474 0.445 0.52
3944.809 0.488 0.392 0.5 0.506 0.315 0.212 0.186 0.26 0.381 0.303
3964.099 0.275 0.259 0.286 0.362 0.316 0.288 0.273 0.311 0.392 0.283
3983.389 0.199 0.139 0.16 0.211 0.179 0.233 0.1 0.04 0.115 0.107
##END=
