##TITLE=N-Phenylisatin
##JCAMP-DX=4.24
##DATA TYPE=INFRARED SPECTRUM
##ORIGIN=EPA-IR VAPOR PHASE LIBRARY
##OWNER=SRD/NIST
Collection (C) 2018 copyright by the U.S. Secretary of Commerce
on behalf of the United States of America. All rights reserved.
##CAS REGISTRY NO=723-89-7
##MOLFORM=C 14 H 9 N O 2
##$NIST SOURCE=MSDC-IR
##STATE=gas
##XUNITS=1/CM
##YUNITS=ABSORBANCE
##XFACTOR=1.
##YFACTOR=0.001
##DELTAX=1.92898
##FIRSTX=549.8
##LASTX=4000.7
##FIRSTY=5.21
##MAXX=4000.7
##MINX=549.759
##MAXY=0.15954
##MINY=0
##NPOINTS=1790
##XYDATA=(X++(Y..Y))
549.759 5.21 4.77 4.8 4.85 4.04 3.97 3.49 2.7902 3.36 2.6495
569.049 1.879 2.5037 2.8501 2.21578 1.593 1.743 2.4767 2.21033 1.414 1.579
588.339 1.607 1.277 1.8 2.1277 1.841 2.5005 2.6239 2.039 2.31152 2.23826
607.628 1.989 2.5861 2.7304 2.132 1.612 2.3277 3.39 4.35 6.12 7.39
626.918 8.6 8.7 8 7.16 6.37 5.34 3.81 3.57 3.43 2.7442
646.208 2.69 3.1735 3.23 3.21 3.38 3.2199 3.31 3.37 3.66 3.59
665.498 3.33 3.74 3.88 4.11 4.6 5.31 6.26 7.35 8.43 9.63
684.787 10.95 12.79 15.05 17.09 19.38 20.94 21.49 21.7 21.45 19.16
704.077 16.15 13.92 11.62 9.62 7.97 7.13 6.64 6.31 6.22 5.95
723.367 5.91 6.31 6.31 6.21 6.52 6.98 8.08 10.87 14.8 19.36
742.657 24.47 29.73 36.02 42.44 44.48 40.73 35.47 31.16 26.68 21.44
761.947 15.86 11.34 8.43 7.03 6.24 5.18 4.85 4.91 4.7 4.41
781.236 3.94 3.66 3.5 3.41 3.39 3.0835 3.0781 3.1679 3.156 3.39
800.526 3.54 3.37 3.36 3.7 3.54 3.3 3.32 4.21 4.7 3.39
819.816 3.47 3.38 2.8786 3.68 3.9 3.43 3.53 4.1 4.23 4
839.106 4.26 4.98 5.49 6.4 7.02 6.76 6.43 6.17 5.58 4.91
858.395 4.08 3.1983 2.8898 2.8309 2.7262 2.9202 2.719 2.3973 2.5685 2.712
877.685 2.8223 2.9998 3.26 2.9976 2.9354 3.59 3.79 3.57 3.31 3.1166
896.975 3.51 3.94 4.1 4.52 5.09 5.19 5.41 5.96 6.7 7.89
916.265 9.6 11.87 14.13 16.04 17.37 17.54 16.94 15.47 13.09 10.65
935.555 8.57 7.01 5.79 4.75 4.46 4.43 4.32 4.38 4.22 3.81
954.844 3.62 3.8 3.86 3.64 3.83 3.92 4.11 4.28 4.18 4.5
974.134 4.8 5.04 5.56 6.3 7.31 7.5 7.18 7.13 6.36 5.78
993.424 4.96 4.24 4.3 4.33 4.51 4.45 3.82 4.01 4.94 4.65
1012.714 4.08 3.98 4.21 4.51 5.57 6.56 5.93 5.91 6.24 6.1
1032.003 5.83 5.45 4.29 3.45 3.37 3.1481 3.29 3.2198 3.47 4.17
1051.293 4.53 4.52 4.9 4.79 5.05 5.41 4.82 5.57 6.15 6.44
1070.583 7.04 7.88 8.42 8.21 8.89 9.62 10.4 11.73 13.26 14.9
1089.873 15.82 15.83 16.43 17.25 16.84 15.05 12.48 10.37 11.51 11.36
1109.163 9.11 9.85 10.09 10.25 11.27 12.87 14.51 16.7 19.3 21.17
1128.452 24.54 28.25 30.54 31.23 30.23 29.12 26.83 23.73 20.58 17.15
1147.742 15.28 13.61 10.98 10.11 10.04 9.3 9.07 8.94 9.28 9.52
1167.032 9.49 11.27 12.89 14.26 16.28 17.36 18.47 20.68 22.65 23.75
1186.322 25.52 25.05 23.09 22.47 20.71 17.77 14.45 10.63 9.06 8.64
1205.611 7.09 4.38 2.24136 2.5622 2.012 0.86 0.86 1.237 0.71 0
1224.901 0.06 0.66 1.749 1.819 1.992 1.808 1.19 1.962 1.791 1.381
1244.191 1.04 0.57 1.13 1.19 1.519 2.049 1.668 1.393 1.73 2.24548
1263.481 2.196 1.742 1.18 1.971 3.34 3.67 4.17 4.67 5.13 6.39
1282.771 8.21 10.32 12.43 15.11 18.4 22.27 26.63 30.64 34.88 38.83
1302.060 41.35 42.01 41.24 39.29 35.65 30.84 25.88 21.3 17.1 13.9
1321.350 11.88 10.85 10.23 9.74 9.73 9.89 10.27 10.91 11.95 13.53
1340.640 15.4 17.82 21.26 25.21 29.61 34.86 40.38 45.53 49.91 52.96
1359.930 54.3 53.35 50.23 45.35 39.01 32.23 25.64 19.91 15.45 12.43
1379.219 10.61 9.31 8.41 7.7 7.01 6.68 6.51 6.21 6.01 5.95
1398.509 5.73 5.55 5.4 5.42 5.47 5.44 5.47 5.54 5.75 5.7
1417.799 5.41 5.4 5.52 5.49 5.53 5.42 5.41 5.76 6.33 6.74
1437.089 7.01 7.63 8.38 9.08 9.73 10.64 12.13 14.05 16.7 20.18
1456.378 25.32 32.32 40.84 51.03 61.11 69.72 74.76 75.19 70.76 61.92
1475.668 50.15 38.48 30.38 26.18 24.58 24.66 26.12 28.27 31.54 35.52
1494.958 39.89 44.59 48.14 49.47 48.37 45.08 39.05 31.78 24.57 18.06
1514.248 13.92 11.4 9.91 9.22 8.71 8.56 8.22 7.91 7.8 7.41
1533.538 7.13 6.87 6.67 6.36 6 5.87 5.86 5.99 5.84 5.76
1552.827 5.88 5.92 6.25 6.61 6.7 6.82 7.25 8.06 8.65 9.3
1572.117 10.42 11.66 13.57 15.95 18.51 21.76 25.96 31.23 37.39 44.73
1591.407 52.63 59.99 66.39 71.39 74.63 76.5 77.73 79.43 80.91 82.3
1610.697 83.59 83.25 81.33 76.7 69.81 61.93 52.96 43.98 35.6 28.02
1629.986 22.01 17.63 14.7 12.88 11.75 10.88 9.94 9.34 8.87 8.36
1649.276 8.14 7.86 7.62 7.33 6.7 6.29 6.1 6.09 6.06 5.75
1668.566 5.55 5.55 5.46 5.59 5.9 5.94 5.8 5.82 6.08 6.34
1687.856 6.48 6.39 6.38 6.71 6.9 6.86 7.03 7.31 7.32 7.36
1707.146 7.51 7.54 7.98 8.59 8.86 9.27 9.65 10.19 10.89 11.65
1726.435 12.63 13.64 14.66 16.16 18.31 20.81 24.05 29.3 37.08 48.7
1745.725 64.7 85.44 109.41 132.79 149.58 157.34 159.54 158.05 148.48 131.57
1765.015 116.88 108.65 105.47 104.44 102.59 98.36 90.56 78.87 64.63 50.31
1784.305 37.85 27.87 20.66 16 12.74 10.53 9.28 8.41 7.77 7.23
1803.594 7.02 6.92 6.81 6.65 6.62 6.6 6.3 6.02 5.96 5.88
1822.884 5.9 5.9 5.75 5.79 5.99 5.97 5.96 5.77 5.65 5.57
1842.174 5.51 5.64 5.58 5.48 5.55 5.64 5.53 5.4 5.17 5.07
1861.464 5.11 4.96 4.72 4.52 4.53 4.5 4.29 4.17 4.21 4.08
1880.754 3.99 4.09 4.03 4.05 4.07 3.84 3.7 3.75 3.85 3.74
1900.043 3.56 3.5 3.66 4.01 4.13 4.08 4.07 3.98 4.01 4.18
1919.333 4.22 4.23 4.06 3.99 4 3.8 3.86 3.9 4.14 4.29
1938.623 4.19 4.33 4.31 4.24 4.34 4.43 4.37 4.3 4.19 3.98
1957.913 3.9 3.96 3.89 3.6 3.43 3.42 3.1824 2.9903 3.0822 2.971
1977.202 2.8739 3.1671 3.39 3.1941 3.0033 3.0655 2.8842 2.7056 2.7345 2.8229
1996.492 2.9394 2.9344 2.8286 2.8609 2.8908 2.8852 2.9894 2.9375 2.7479 2.5977
2015.782 2.5313 2.4801 2.4903 2.6143 2.7427 2.6385 2.6804 2.7579 2.8657 2.9795
2035.072 2.7437 2.6331 2.7138 2.8385 2.9665 3.0119 2.9491 2.8888 2.9364 2.9269
2054.362 2.9039 3.0893 2.9881 2.7751 2.82 2.8412 2.9531 3.0186 2.8788 2.8498
2073.651 2.78 2.668 2.7517 2.8651 2.8064 2.8032 2.974 3.0393 2.96 2.8263
2092.941 2.9171 3.0346 3.0379 3.1193 3.1056 3.1208 3.1417 3.1035 3.187 3.1882
2112.231 3.1093 2.9697 3.048 3.0644 2.79 2.9238 3.25 3.1873 3.0305 2.8167
2131.521 2.6502 2.6908 2.7812 3.0809 3.0097 2.6613 2.5741 2.7046 2.5611 2.506
2150.810 2.7733 2.8616 2.7552 2.5637 2.5155 2.5566 2.6663 2.8264 2.9176 2.8012
2170.100 2.7442 2.8289 2.9748 2.8485 2.7581 2.9527 2.9139 2.731 2.642 2.7144
2189.390 2.7437 2.824 2.9491 2.9496 2.9901 3.0231 2.8415 2.8507 2.9515 2.9781
2208.680 3.0727 2.993 2.9944 2.9959 2.899 2.9245 2.8733 2.902 2.933 2.7969
2227.970 2.8256 2.9263 2.9132 2.8659 2.8204 2.8163 2.9131 3.0531 3.0043 2.9941
2247.259 3.1637 3.32 3.26 3.1216 3.1776 3.24 3.38 3.57 3.57 3.6
2266.549 3.75 3.53 3.36 3.38 3.25 3.34 3.42 3.33 3.1716 3.1491
2285.839 3.37 3.34 3.3 3.42 3.28 3.34 3.43 3.23 3.23 3.29
2305.129 3.24 3.0829 2.9817 3.28 3.51 3.58 3.64 3.38 3.29 3.27
2324.418 3.2179 3.31 3.51 3.49 3.24 3.36 3.36 3.24 2.941 2.9782
2343.708 3.4 3.27 3.01 2.9475 3.0324 2.9786 3.0325 3.26 3.0208 2.5856
2362.998 2.5441 2.9284 3.0515 2.9053 2.7987 2.8143 2.8848 2.795 2.8632 2.7611
2382.288 2.6009 2.7039 2.8371 2.984 2.9261 2.7583 2.6796 2.7764 2.8606 2.7101
2401.578 2.6957 2.8793 2.8453 2.8324 2.9166 2.8488 2.9913 3.018 2.8901 2.9806
2420.867 3.0854 2.9881 2.9577 3.24 3.1984 3.0955 3.3 3.4 3.32 3.26
2440.157 3.27 3.1818 3.0855 2.9407 2.8938 3.1939 3.1018 3.0137 3.0817 2.972
2459.447 3.1111 3.34 3.31 3.0844 2.9805 3.1283 3.0412 2.7904 2.9203 2.9966
2478.737 3.0306 3.0234 3.1046 3.1271 3.31 3.45 3.58 3.65 3.38 3.51
2498.026 3.41 3.1132 3.36 3.45 3.32 3.25 3.23 3.39 3.28 3.24
2517.316 3.34 3.29 3.1669 3.1855 3.0014 2.7208 2.9502 3.0858 3.1735 3.37
2536.606 3.63 3.63 3.43 3.47 3.54 3.47 3.44 3.49 3.41 3.42
2555.896 3.45 3.23 3.22 3.32 3.34 3.2151 2.9373 2.8032 2.9609 2.9244
2575.186 2.7683 3.0099 2.832 2.5853 2.7062 2.692 2.7879 2.9703 2.9646 2.91
2594.475 2.9387 3.0223 3.1094 3.23 3.1497 3.0822 3.1703 3.198 3.125 2.8237
2613.765 2.9387 3.3 3.1029 2.9735 3.28 2.9907 2.7694 2.8625 2.9072 3.0034
2633.055 2.8378 2.9306 3.1749 3.1781 2.9386 2.9257 3.1304 3.2162 3.0609 3.0956
2652.345 3.6 3.6 3.1871 3.1731 3.0951 3.0658 3.1918 3.24 3.0089 2.9458
2671.634 2.9826 2.8559 2.9347 2.9042 2.9428 2.9281 2.8524 3.0646 3.25 3.0831
2690.924 2.8522 2.849 2.9491 2.9622 2.9961 2.9176 2.9102 3.0616 3.0334 3.1272
2710.214 2.7555 2.4574 2.8184 2.9266 2.9241 2.9395 2.7987 2.8221 3.0022 3.1322
2729.504 3.1618 3.0168 2.8501 2.6869 2.7197 2.8954 2.7103 2.4984 2.7794 3.0888
2748.794 3.1504 3.34 3.47 3.58 3.57 3.62 3.74 3.53 3.22 3.0933
2768.083 3.1178 3.2177 3.28 3.18 3.1314 3.0426 3.2029 3.43 3.52 3.31
2787.373 3.1212 3.0919 2.9382 3.0472 3.37 3.58 3.58 3.2026 3.0693 3.29
2806.663 3.0395 2.7219 2.6676 2.6673 2.6528 2.7637 2.9378 2.97 2.9101 2.7853
2825.953 3.0569 3.0558 2.5511 2.5657 3.1053 3.3 3.28 3.31 3.0079 2.7756
2845.242 2.6708 2.7482 2.9914 2.9446 2.9139 3.1234 3.33 3.37 2.9984 2.981
2864.532 3.39 3.1253 2.7926 2.8497 2.8357 2.8318 2.7682 2.7301 2.7112 2.9143
2883.822 3.22 3.0694 2.9112 2.9833 2.916 3.1062 3.32 2.9661 2.8954 3.1158
2903.112 3.27 3.39 3.37 3.0339 2.8226 3.0869 3.28 3.1838 2.9831 3.1169
2922.401 3.133 2.9721 3.2046 3.1076 2.9553 3.0256 2.9145 2.6382 2.5763 2.7409
2941.691 3.1603 3.44 3.33 3.32 2.862 2.4686 2.545 2.6459 2.6213 2.8761
2960.981 2.9427 2.8611 2.5592 2.5246 2.8463 2.7985 2.9303 2.9402 3.0249 2.8591
2980.271 2.662 2.9348 2.9238 2.6856 2.7096 2.8705 2.8789 2.9036 2.8737 2.9188
2999.561 2.9678 2.9074 3.0808 3.3 3.39 3.45 3.53 3.24 3.1344 3.6
3018.850 3.96 4.19 4.56 5.19 5.3 5.04 5.79 6.53 6.9 7.41
3038.140 7.98 8.62 8.78 9.39 9.71 9.64 10.16 10.22 9.86 9.73
3057.430 10 10.08 10.73 11.51 12.02 12.77 13.56 14.14 14.61 15.52
3076.720 15.88 15.5 14.78 14.01 13.47 12.65 11.74 11.13 10.57 9.85
3096.009 9.06 8.37 7.92 7.32 6.56 5.84 5.48 5.36 4.76 4.36
3115.299 4.4 4.15 4.02 4.13 3.94 3.58 3.44 3.34 3.0885 3.1634
3134.589 2.8382 2.4642 2.6897 2.6746 2.556 2.4473 2.5131 2.7966 2.6975 2.6235
3153.879 2.7421 2.589 2.5999 2.5781 2.1 1.744 2.28633 2.394 1.982 2.4547
3173.169 2.486 2.5839 2.8801 2.4613 2.049 2.083 2.28364 2.561 2.4973 2.3837
3192.458 2.8892 2.8729 2.4163 2.7704 3.1017 3.1699 3.4 3.1788 2.776 3.129
3211.748 3.32 2.7701 2.631 2.8233 2.7293 2.6757 2.6449 2.27958 2.42 2.4906
3231.038 2.4961 2.6595 2.547 2.27854 2.3821 2.759 2.8931 3.0637 2.6238 2.26233
3250.328 2.4855 2.076 2.019 2.3895 2.4048 2.7532 2.7973 2.7379 2.6189 2.6487
3269.617 2.7152 2.4246 2.26609 2.29799 2.31752 1.981 2.1578 2.4638 2.4222 2.2
3288.907 2.24422 2.3995 2.3384 2.893 2.9232 2.5378 2.2092 2.1238 2.4914 2.3625
3308.197 1.676 1.584 2.3924 2.7923 2.4751 2.22866 2.47 2.7262 3.0416 2.9803
3327.487 2.6719 2.7636 2.5687 2.5797 2.3727 2.2373 2.472 2.401 2.6565 2.7658
3346.777 2.7076 2.5273 2.29917 2.1798 2.3662 2.6665 2.963 2.6942 2.3548 2.1223
3366.066 1.97 2.4652 2.4343 2.106 2.473 2.4596 2.4738 3.0345 2.7878 2.7754
3385.356 2.4829 1.911 1.923 1.842 2.028 2.5823 2.6266 2.1779 2.23041 2.1636
3404.646 2.1549 2.1741 2.097 2.1703 2.3275 2.7485 2.4807 1.954 2.095 2.6133
3423.936 2.9385 2.2819 2.119 2.3303 1.968 2.086 2.209 2.046 2.076 2.1845
3443.225 2.1742 2.077 2.5157 2.545 2.5124 3.1629 3.1316 2.8973 2.889 3.0728
3462.515 2.8523 2.5955 2.7712 3.0331 2.9892 2.4532 2.30687 2.9621 3.54 3.58
3481.805 3.71 4.11 4.08 3.81 4.36 5.09 4.87 4.63 4.87 5.02
3501.095 4.65 3.71 3.39 3.3 3.26 3.58 3.44 3.1195 3.66 4.17
3520.385 3.8 3.93 3.83 3.66 3.75 3.65 3.66 3.53 3.49 3.33
3539.674 3.0177 2.9776 2.9996 3.0167 2.9313 3.0584 2.9057 2.6172 2.7057 2.8232
3558.964 3.0567 2.8042 2.495 2.28836 1.927 1.745 2.016 2.019 1.844 1.949
3578.254 2.059 2.373 2.4876 1.945 1.693 1.95 2.4014 2.5038 2.1519 1.808
3597.544 1.642 1.83 2.24316 2.5216 2.1349 1.929 2.052 2.1914 2.5753 2.6128
3616.833 2.1352 2.11 2.066 1.866 2.23926 2.26828 2.1212 2.5907 2.3532 2.1926
3636.123 2.5937 2.206 2.24527 2.6568 2.5995 2.5135 2.3993 2.3367 2.4769 2.7076
3655.413 2.6633 2.23052 1.97 2.4502 2.5707 2.27949 2.1879 2.3809 2.8897 2.9521
3674.703 2.8097 2.4234 2.5485 2.7126 2.2432 2.05 2.22767 2.25471 2.27849 2.7395
3693.993 3.1068 2.9375 2.4088 2.1633 2.5544 2.6691 2.6009 2.4621 2.21156 2.3448
3713.282 2.5879 2.7627 2.8298 2.9358 2.7677 2.5237 2.6475 2.5905 2.22555 1.993
3732.572 1.979 2.087 2.3803 2.30702 1.949 1.859 1.691 2.22012 2.8232 2.697
3751.862 2.8217 2.9793 2.9223 3.1848 3.0772 2.613 2.6534 2.7459 3.0384 2.5518
3771.152 1.725 1.974 2.2026 2.4049 2.6068 2.6588 2.6381 2.3307 2.23638 2.28216
3790.441 2.3607 2.3317 2.26386 2.21482 2.4707 2.684 2.014 1.414 1.677 2.24021
3809.731 2.31642 2.073 2.28173 2.7477 2.9269 2.7016 2.23454 2.1621 2.4388 2.5595
3829.021 2.4196 1.912 1.809 2.3296 2.55 2.6797 2.6133 2.4844 2.4652 2.9395
3848.311 2.9114 2.5975 2.9252 2.9788 2.6784 2.6329 2.30828 1.933 2.114 2.4615
3867.601 2.4782 1.937 2.075 2.1515 2.25963 2.8717 2.9201 2.9526 2.6378 2.1418
3886.890 1.865 2.058 2.7133 2.6361 2.439 2.5291 2.3935 2.4065 2.5721 2.316
3906.180 1.807 1.578 1.896 2.6067 2.8052 2.3264 2.28487 2.9143 3.26 2.8557
3925.470 2.01 1.793 2.24939 2.1343 2.017 2.1904 2.28161 2.027 1.964 2.21109
3944.760 2.6784 2.9809 2.5714 2.3476 2.4652 2.8176 2.9044 2.7994 2.9251 3.075
3964.049 2.589 2.001 2.1432 2.6024 2.5121 2.4884 2.6619 2.4524 2.5876 2.4926
3983.339 2.5637 3.144 2.731 2.29916 2.5122 2.3392 2.1412 2.5074 2.6761 2.5766
##END=
