##TITLE=N,N-Dimethylisobutylamine
##JCAMP-DX=4.24
##DATA TYPE=INFRARED SPECTRUM
##ORIGIN=EPA-IR VAPOR PHASE LIBRARY
##OWNER=SRD/NIST
Collection (C) 2018 copyright by the U.S. Secretary of Commerce
on behalf of the United States of America. All rights reserved.
##CAS REGISTRY NO=7239-24-9
##MOLFORM=C 6 H 15 N
##$NIST SOURCE=MSDC-IR
##STATE=gas
##XUNITS=1/CM
##YUNITS=ABSORBANCE
##XFACTOR=1.
##YFACTOR=0.001
##DELTAX=3.85796
##FIRSTX=501.5
##LASTX=4000.7
##FIRSTY=1.9365
##MAXX=4000.7
##MINX=501.534
##MAXY=0.45358
##MINY=0
##NPOINTS=908
##XYDATA=(X++(Y..Y))
501.534 1.9365 1.9291 1.8579 1.646 1.3147 1.06903 1.0231 1.04413 0.855 0.615
540.114 0.485 0.411 0.3 0.16 0.075 0 0.133 0.132 0.085 0.125
578.693 0.067 0.11 0.154 0.167 0.211 0.239 0.187 0.132 0.152 0.168
617.273 0.128 0.04 0.03 0.07 0.131 0.112 0.052 0.086 0.156 0.145
655.852 0.113 0.169 0.228 0.179 0.248 0.362 0.309 0.273 0.301 0.321
694.432 0.346 0.397 0.467 0.526 0.543 0.577 0.703 0.761 0.746 0.838
733.011 0.907 0.9621 1.09954 1.1726 1.258 1.465 1.7188 1.921 2.11 2.35
771.591 2.5 2.65 2.93 3.22 3.61 4.24 5.24 6.56 8.31 10.65
810.170 13.51 16.9 20.78 25.14 29.67 33.75 36.78 38.15 37.46 34.81
848.750 30.51 24.94 19.27 14.47 10.81 8.31 6.66 5.65 5.05 4.77
887.330 4.69 4.63 4.64 4.84 5.14 5.47 5.89 6.34 6.74 7.02
925.909 7.13 7.12 7.01 6.75 6.55 6.49 6.51 6.57 6.62 6.56
964.489 6.45 6.43 6.27 6.23 6.47 6.98 7.81 8.9 10.33 12.26
1003.068 15.02 19.03 24.76 33.07 44.94 61.24 81.91 104.35 124.32 139.17
1041.648 146.43 145.33 136.14 116.6 91.88 69.43 51.74 39.42 31.39 26.48
1080.227 24.04 23.68 24.97 27.83 31.91 36.7 41.53 45.09 46.25 44.8
1118.807 40.77 35.17 29.8 25.78 23.72 23.56 24.77 26.9 29.49 32.08
1157.387 33.84 34.31 33.3 30.9 27.76 24.53 21.71 19.52 18.35 18.34
1195.966 19.36 20.97 22.68 24.1 24.83 24.72 23.74 22.26 20.7 19.46
1234.546 19.12 20.07 22.68 27.37 33.84 41.11 47.88 53.12 56.37 57.08
1273.125 55.18 50.75 44.65 38.92 34.5 31.22 28.72 26.69 25.08 23.83
1311.705 22.84 22.13 21.66 21.54 21.78 22.14 22.57 23.13 24.03 25.44
1350.284 27.36 29.79 32.61 35.76 39.29 43.23 47.39 51.61 54.57 55.18
1388.864 53.84 50.02 45.58 39.51 31.04 24.31 20.81 19.79 20.52 22.77
1427.443 26.74 32.5 40.26 50.33 62.04 74.66 86.95 97.97 106.97 110.98
1466.023 109.18 102.88 92.74 80.74 67.6 53.87 41.33 31.44 24.18 18.95
1504.603 15.45 12.83 11.04 9.72 8.73 7.9 7.24 6.65 6.19 5.8
1543.182 5.48 5.23 4.99 4.8 4.67 4.55 4.46 4.36 4.3 4.24
1581.762 4.18 4.15 4.13 4.1 4.13 4.15 4.17 4.21 4.25 4.31
1620.341 4.36 4.41 4.42 4.37 4.32 4.29 4.25 4.18 4.12 4.09
1658.921 4.07 4.01 3.96 3.91 3.86 3.77 3.66 3.56 3.47 3.33
1697.500 3.18 3.05 2.97 2.91 2.82 2.72 2.66 2.61 2.55 2.47
1736.080 2.42 2.39 2.38 2.36 2.35 2.37 2.37 2.36 2.34 2.29
1774.659 2.22 2.17 2.11 2.06 2.0229 1.9878 1.9486 1.8879 1.8461 1.8296
1813.239 1.8093 1.7843 1.7772 1.7883 1.818 1.8775 1.9658 2.07 2.2 2.36
1851.819 2.53 2.71 2.89 3.02 3.12 3.18 3.19 3.12 3.01 2.84
1890.398 2.6 2.35 2.11 1.9082 1.7801 1.6876 1.6305 1.5968 1.5859 1.61
1928.978 1.6493 1.7316 1.8316 1.8943 1.941 1.978 1.9622 1.9165 1.8701 1.8284
1967.557 1.7742 1.733 1.7432 1.763 1.806 1.8546 1.9053 1.9573 1.9928 2.0047
2006.137 1.9629 1.9379 1.9262 1.8961 1.8615 1.8455 1.8575 1.8626 1.8902 1.9243
2044.716 1.9444 1.9575 1.9873 2.0456 2.11 2.21 2.37 2.52 2.7 2.89
2083.296 3.05 3.2 3.3 3.35 3.33 3.25 3.12 3 2.89 2.75
2121.875 2.62 2.49 2.38 2.31 2.26 2.21 2.15 2.11 2.08 2.0433
2160.455 2.0127 1.9794 1.9893 2.0218 2.09 2.17 2.23 2.27 2.3 2.32
2199.035 2.33 2.32 2.31 2.27 2.21 2.14 2.11 2.1 2.11 2.15
2237.614 2.23 2.32 2.41 2.47 2.54 2.6 2.6 2.59 2.6 2.61
2276.194 2.61 2.65 2.67 2.67 2.66 2.67 2.67 2.6 2.58 2.54
2314.773 2.48 2.44 2.4 2.36 2.35 2.34 2.35 2.39 2.43 2.49
2353.353 2.55 2.64 2.75 2.84 2.93 3.02 3.1 3.18 3.21 3.25
2391.932 3.31 3.39 3.51 3.61 3.68 3.75 3.79 3.81 3.8 3.76
2430.512 3.69 3.57 3.46 3.41 3.38 3.39 3.47 3.59 3.76 4
2469.092 4.25 4.51 4.82 5.16 5.5 5.82 6.09 6.3 6.43 6.47
2507.671 6.43 6.36 6.27 6.17 6.09 6.08 6.15 6.23 6.33 6.47
2546.251 6.64 6.82 7 7.15 7.26 7.4 7.55 7.71 7.91 8.12
2584.830 8.41 8.73 9.06 9.46 9.83 10.13 10.43 10.71 10.94 11.12
2623.410 11.3 11.52 11.74 12.08 12.57 13.18 13.92 14.74 15.62 16.51
2661.989 17.37 18.22 19.07 19.98 21.09 22.52 24.35 26.59 29.34 32.64
2700.569 36.39 40.58 45.19 49.99 54.84 59.57 64.08 68.48 73.06 78.4
2739.148 85.38 95.19 109.14 128.59 154.53 186.12 220.28 252.74 279.58 297.56
2777.728 304.36 299.99 285.95 265.66 243.51 222.71 205.61 193.6 186.8 184.17
2816.308 183.72 183.09 179.75 172.67 162.38 148.99 135.12 124.4 118.5 117.7
2854.887 121.49 129.05 139.6 152.22 165.02 175.19 181.86 185.95 187.79 187.75
2893.467 187.47 189.14 194.22 202.92 213.62 224.72 235.55 245.68 256.01 268.56
2932.046 284.45 303.44 324.94 348.74 374.73 401.32 427.5 447.98 453.58 447.14
2970.626 428.38 392.04 342.21 285.3 229.67 178.91 131.23 91.95 65.73 49.76
3009.205 40.02 33.77 29.55 26.53 24.2 22.32 20.89 19.7 18.63 17.73
3047.785 17.02 16.51 16.04 15.67 15.37 15.03 14.73 14.43 14.1 13.7
3086.364 13.28 12.81 12.3 11.9 11.55 11.12 10.75 10.48 10.28 10.15
3124.944 10.02 9.92 9.82 9.72 9.53 9.36 9.24 9.13 9.04 8.93
3163.524 8.87 8.75 8.69 8.63 8.49 8.35 8.18 7.94 7.61 7.18
3202.103 6.74 6.33 5.91 5.47 5.04 4.61 4.24 3.89 3.64 3.45
3240.683 3.16 2.91 2.75 2.63 2.53 2.51 2.53 2.55 2.6 2.62
3279.262 2.6 2.63 2.6 2.5 2.39 2.28 2.19 2.12 2.06 2.002
3317.842 1.9945 2.0013 1.9389 1.9341 1.8856 1.8041 1.8429 1.8942 1.8626 1.766
3356.421 1.804 1.854 1.8376 1.8829 1.8984 1.854 1.879 1.8947 1.8505 1.8192
3395.001 1.8138 1.7992 1.7056 1.6318 1.6556 1.6553 1.5721 1.4307 1.3426 1.2782
3433.580 1.1769 1.11704 1.08718 1.07121 1.04889 0.9744 0.9679 1.04257 0.9783 0.941
3472.160 0.9718 0.9632 0.929 0.862 0.842 0.825 0.804 0.787 0.743 0.685
3510.740 0.697 0.701 0.648 0.631 0.662 0.681 0.656 0.693 0.694 0.637
3549.319 0.606 0.659 0.714 0.698 0.691 0.767 0.782 0.759 0.803 0.835
3587.899 0.838 0.797 0.8 0.867 0.891 0.908 0.9649 0.925 0.851 0.87
3626.478 0.819 0.802 0.843 0.826 0.813 0.822 0.83 0.861 0.898 0.913
3665.058 0.942 0.914 0.883 0.901 0.947 0.9825 0.9994 1.0345 1.05193 1.04026
3703.637 1.05447 1.04606 1.06777 1.1368 1.12288 1.10889 1.08667 1.04211 1.04772 1.04375
3742.217 1.05611 1.08622 1.1907 1.271 1.2794 1.3092 1.3376 1.4012 1.4661 1.4612
3780.797 1.5333 1.6872 1.7336 1.7416 1.9311 2.12 2.2 2.36 2.42 2.44
3819.376 2.58 2.61 2.49 2.45 2.4 2.27 2.17 2.13 2.1 2.0231
3857.956 2.0019 2.033 2.028 2.08 2.14 2.13 2.16 2.16 2.15 2.11
3896.535 2.07 2.0401 2.0167 1.9914 1.9459 1.9778 2.0273 2.0453 2.08 2.08
3935.115 2.048 2.05 2.15 2.2 2.19 2.24 2.28 2.29 2.29 2.36
3973.694 2.46 2.54 2.61 2.7 2.75 2.72 2.67 2.69
##END=
