##TITLE=2-(Phenoxymethyl)benzoic acid
##JCAMP-DX=4.24
##DATA TYPE=INFRARED SPECTRUM
##ORIGIN=EPA-IR VAPOR PHASE LIBRARY
##OWNER=SRD/NIST
Collection (C) 2018 copyright by the U.S. Secretary of Commerce
on behalf of the United States of America. All rights reserved.
##CAS REGISTRY NO=724-98-1
##MOLFORM=C 14 H 12 O 3
##$NIST SOURCE=MSDC-IR
##STATE=gas
##XUNITS=1/CM
##YUNITS=ABSORBANCE
##XFACTOR=1.
##YFACTOR=0.001
##DELTAX=1.92898
##FIRSTX=549.8
##LASTX=4000.7
##FIRSTY=3.494
##MAXX=4000.7
##MINX=549.759
##MAXY=0.041984
##MINY=0
##NPOINTS=1790
##XYDATA=(X++(Y..Y))
549.759 3.494 3.544 3.464 3.504 3.924 4.134 4.374 4.424 4.454 4.654
569.049 4.804 5.154 5.274 5.164 5.124 5.064 5.044 4.604 3.944 3.534
588.339 3.284 3.054 2.884 2.774 2.594 2.094 2.104 2.374 2.374 2.474
607.628 2.474 2.554 2.654 2.604 2.054 2.174 2.714 3.124 3.654 3.904
626.918 4.624 5.684 6.644 7.534 7.934 7.944 7.834 7.164 6.064 4.824
646.208 3.764 3.034 2.414 2.124 1.764 1.464 1.474 1.484 1.714 1.944
665.498 1.834 1.974 2.164 2.064 2.494 2.824 2.834 3.314 3.934 4.434
684.787 4.804 5.084 5.284 5.384 5.404 5.344 5.014 4.664 4.584 4.394
704.077 4.224 4.174 4.154 4.234 4.354 4.404 4.494 4.814 4.944 5.294
723.367 5.944 6.584 7.684 8.894 10.044 11.414 12.774 13.834 14.384 14.704
742.657 15.014 15.114 15.104 14.944 14.214 13.304 12.204 10.494 8.924 7.924
761.947 6.884 5.974 5.534 5.164 4.764 4.464 4.194 4.054 3.904 3.614
781.236 3.474 3.524 3.564 3.364 3.004 2.784 2.524 2.184 2.014 1.924
800.526 1.764 1.634 1.644 1.704 1.794 2.134 2.134 1.934 2.024 2.074
819.816 1.974 1.894 1.964 1.894 1.574 1.614 1.944 1.924 1.514 1.344
839.106 1.704 1.964 2.164 2.184 1.884 1.954 2.174 1.914 1.774 1.924
858.395 1.844 1.524 1.324 1.514 1.544 1.504 1.484 1.424 1.714 1.714
877.685 1.804 2.234 2.174 1.934 1.784 1.944 2.024 1.704 1.484 1.534
896.975 1.404 1.1581 1.0952 1.0388 1.274 1.474 1.0341 1.1052 1.414 1.354
916.265 1.334 1.2637 1.364 1.484 1.414 1.213 1.1116 1.0615 1.027 0.9287
935.555 1.0575 1.2368 1.434 1.374 1.2296 1.2514 1.2532 1.554 1.734 1.474
954.844 1.524 1.814 1.694 1.794 1.864 1.794 1.754 1.544 1.324 1.344
974.134 1.464 1.584 1.904 2.134 2.454 2.824 3.004 3.134 3.474 3.624
993.424 3.654 3.764 3.874 4.014 3.794 3.984 4.504 4.994 5.424 6.204
1012.714 7.114 7.594 8.114 8.904 9.824 10.644 11.384 12.414 13.714 15.224
1032.003 16.374 17.094 17.554 17.254 16.604 15.504 14.214 13.264 12.874 12.574
1051.293 12.374 12.664 12.634 12.614 12.844 12.914 12.404 11.224 10.384 9.384
1070.583 8.434 7.844 7.264 6.874 6.794 6.944 6.914 6.704 6.714 5.974
1089.873 4.914 4.834 4.224 4.414 5.534 5.244 5.194 5.854 6.784 7.224
1109.163 7.264 7.474 7.264 7.694 8.264 9.114 9.934 10.774 12.354 13.814
1128.452 13.604 12.704 12.554 12.224 10.774 8.994 7.484 6.174 5.124 4.614
1147.742 5.084 5.024 4.774 5.444 6.224 6.714 7.574 8.494 9.734 11.154
1167.032 12.464 14.034 15.554 17.034 18.234 19.424 20.464 20.704 20.194 19.364
1186.322 17.764 15.734 13.974 13.034 12.524 11.734 11.384 11.484 11.934 13.104
1205.611 14.134 14.564 16.264 18.564 19.654 20.444 20.944 20.974 21.624 21.814
1224.901 21.744 21.854 22.274 23.004 23.314 24.154 25.104 25.164 24.714 23.804
1244.191 22.214 19.744 17.144 14.874 12.744 11.304 10.344 9.324 8.594 8.354
1263.481 8.424 8.304 7.944 7.924 7.744 7.804 7.804 7.704 7.804 7.734
1282.771 7.864 7.994 8.074 8.074 8.064 8.184 8.284 8.574 8.854 8.964
1302.060 9.024 8.834 8.604 8.444 8.004 7.494 6.904 6.484 6.264 6.054
1321.350 5.934 5.924 6.024 6.244 6.574 6.914 7.164 7.384 7.774 8.014
1340.640 8.044 8.064 7.934 7.474 6.924 6.414 5.814 5.194 4.684 4.294
1359.930 4.034 3.884 3.814 3.974 4.154 4.284 4.454 4.714 4.914 5.034
1379.219 5.154 5.154 4.994 4.644 4.214 3.714 3.234 2.834 2.464 2.104
1398.509 1.874 1.634 1.454 1.394 1.324 1.264 1.284 1.294 1.274 1.2306
1417.799 1.2622 1.304 1.374 1.444 1.474 1.604 1.744 1.784 1.854 2.004
1437.089 2.214 2.414 2.634 2.974 3.394 3.664 3.824 4.044 4.034 3.864
1456.378 3.834 3.854 3.704 3.664 3.884 4.154 4.294 4.374 4.674 5.044
1475.668 5.324 5.734 6.374 7.394 8.814 10.684 13.094 15.784 18.464 20.414
1494.958 21.164 20.544 18.684 15.944 12.624 9.484 7.014 5.274 4.154 3.324
1514.248 2.764 2.504 2.264 2.014 1.804 1.664 1.654 1.634 1.574 1.494
1533.538 1.484 1.494 1.464 1.544 1.644 1.644 1.594 1.654 1.734 1.734
1552.827 1.784 1.834 1.964 2.224 2.504 2.734 2.954 3.194 3.564 4.104
1572.117 4.604 5.034 5.594 6.284 7.114 7.984 8.864 9.984 11.224 12.434
1591.407 13.654 14.884 15.754 15.824 15.154 13.894 12.124 10.044 7.984 6.234
1610.697 4.914 3.994 3.314 2.814 2.424 2.084 1.954 1.734 1.484 1.494
1629.986 1.414 1.314 1.294 1.364 1.334 1.2407 1.2209 1.16 0.9518 0.9493
1649.276 1.1533 1.1481 0.9785 0.9634 1.0725 1.0597 1.0816 1.1497 1.1292 1.1069
1668.566 1.1703 1.1692 1.1683 1.1934 1.1707 1.264 1.384 1.444 1.634 1.764
1687.856 1.734 1.794 1.834 1.914 2.104 2.264 2.364 2.514 2.744 2.854
1707.146 3.034 3.284 3.584 3.824 3.984 4.194 4.474 4.754 5.034 5.434
1726.435 5.834 6.294 6.904 7.664 8.724 10.064 11.864 14.624 18.464 23.354
1745.725 28.714 33.864 37.934 40.774 41.984 40.834 37.684 33.644 29.104 24.264
1765.015 19.874 16.214 13.334 11.264 9.584 8.344 7.424 6.744 6.284 5.894
1784.305 5.544 5.204 4.904 4.614 4.294 3.984 3.654 3.404 3.134 2.864
1803.594 2.584 2.304 2.144 2.074 2.044 1.964 1.894 1.794 1.774 1.704
1822.884 1.544 1.454 1.404 1.324 1.2151 1.2504 1.264 1.1735 1.1723 1.1111
1842.174 1.0457 1.0328 1.042 1.0767 1.0825 1.0784 1.0634 0.9799 0.9128 0.9428
1861.464 0.8873 0.8741 0.8716 0.86 0.8855 0.8088 0.7264 0.7352 0.7705 0.7642
1880.754 0.7292 0.738 0.7469 0.6988 0.705 0.7088 0.7375 0.7379 0.7705 0.8352
1900.043 0.817 0.8543 0.8396 0.7274 0.7768 0.9219 0.9032 0.8771 0.9951 1.0981
1919.333 1.1217 1.1703 1.1728 1.1105 1.1233 1.2238 1.2589 1.1757 1.1759 1.216
1938.623 1.1659 1.161 1.2296 1.1809 1.0267 0.953 0.9124 0.7655 0.7568 0.9057
1957.913 0.8995 0.8754 0.8194 0.7238 0.751 0.7761 0.7106 0.6616 0.7481 0.8164
1977.202 0.7691 0.7834 0.8581 0.8272 0.7519 0.7184 0.6619 0.6233 0.7052 0.7045
1996.492 0.6846 0.7716 0.7968 0.6972 0.6446 0.6587 0.6414 0.6809 0.6903 0.6728
2015.782 0.6133 0.631 0.7284 0.7126 0.7291 0.7697 0.7476 0.7522 0.7611 0.7574
2035.072 0.72 0.6786 0.6875 0.7071 0.7295 0.7242 0.734 0.6743 0.6228 0.689
2054.362 0.6949 0.6839 0.7217 0.7202 0.6621 0.6417 0.6633 0.6583 0.6892 0.7498
2073.651 0.7699 0.7119 0.6347 0.6045 0.6398 0.6548 0.6691 0.6618 0.6492 0.6897
2092.941 0.6293 0.6443 0.7184 0.6499 0.6043 0.528 0.4827 0.5568 0.4759 0.4146
2112.231 0.5115 0.6557 0.6713 0.5624 0.554 0.5534 0.5665 0.6516 0.6287 0.5784
2131.521 0.5443 0.5162 0.6251 0.6356 0.529 0.5122 0.514 0.4982 0.5338 0.5196
2150.810 0.5355 0.6399 0.6102 0.5649 0.5028 0.489 0.5213 0.5081 0.5126 0.5566
2170.100 0.5858 0.5463 0.4604 0.4177 0.4773 0.4982 0.4547 0.4588 0.4866 0.4638
2189.390 0.4485 0.4372 0.4955 0.5503 0.4254 0.3905 0.4701 0.4358 0.4379 0.5035
2208.680 0.5097 0.4693 0.4184 0.4902 0.5707 0.4706 0.3982 0.4066 0.5296 0.5867
2227.970 0.4688 0.4404 0.4889 0.5041 0.571 0.5493 0.5001 0.5389 0.468 0.3926
2247.259 0.4031 0.4397 0.4846 0.523 0.5192 0.4691 0.4212 0.464 0.4372 0.4615
2266.549 0.5065 0.47 0.4978 0.4278 0.4516 0.542 0.5754 0.5547 0.5022 0.5331
2285.839 0.5941 0.5891 0.5369 0.4252 0.3878 0.5119 0.5414 0.5005 0.508 0.5412
2305.129 0.5652 0.5894 0.5425 0.5148 0.59 0.6379 0.5888 0.5852 0.5698 0.5357
2324.418 0.5721 0.5803 0.591 0.5567 0.6584 0.6726 0.4796 0.4907 0.622 0.7135
2343.708 0.7066 0.7187 0.7062 0.6021 0.6142 0.6474 0.6176 0.5429 0.4838 0.5629
2362.998 0.6225 0.5121 0.5312 0.5834 0.6324 0.6972 0.6583 0.6138 0.612 0.6936
2382.288 0.7487 0.659 0.5734 0.5744 0.4812 0.5032 0.6446 0.6579 0.6465 0.5547
2401.578 0.4769 0.5895 0.6358 0.6605 0.6734 0.646 0.6319 0.5858 0.6676 0.7554
2420.867 0.67 0.539 0.6195 0.7017 0.6361 0.6775 0.7844 0.7414 0.5873 0.5724
2440.157 0.6214 0.5452 0.5136 0.5799 0.5769 0.6552 0.6069 0.4819 0.4685 0.4647
2459.447 0.5649 0.6423 0.6339 0.6312 0.6058 0.5687 0.5467 0.5031 0.5393 0.4991
2478.737 0.4791 0.5124 0.4459 0.4537 0.5575 0.7692 0.7853 0.6508 0.5858 0.4228
2498.026 0.3745 0.5068 0.5988 0.6461 0.6442 0.6305 0.5321 0.489 0.5575 0.5335
2517.316 0.5654 0.6635 0.7356 0.6382 0.5053 0.4967 0.5704 0.6149 0.5204 0.5435
2536.606 0.5405 0.5607 0.7283 0.6851 0.464 0.508 0.6362 0.6284 0.597 0.5353
2555.896 0.5446 0.5078 0.5194 0.5011 0.538 0.6929 0.5707 0.5049 0.5772 0.4814
2575.186 0.3861 0.34069 0.4572 0.6267 0.6098 0.5051 0.4102 0.5206 0.6288 0.5477
2594.475 0.48 0.514 0.5115 0.4335 0.4421 0.4718 0.4813 0.4985 0.4924 0.5179
2613.765 0.4578 0.4496 0.4931 0.411 0.4696 0.5278 0.4909 0.4627 0.3503 0.30545
2633.055 0.4143 0.6169 0.6162 0.4483 0.4018 0.3974 0.4084 0.3852 0.344 0.3988
2652.345 0.4672 0.4584 0.4496 0.3897 0.4344 0.5018 0.5311 0.583 0.4829 0.35256
2671.634 0.32561 0.4089 0.5028 0.4282 0.3867 0.4221 0.4016 0.29548 0.33672 0.4459
2690.924 0.4277 0.454 0.415 0.4164 0.4948 0.4644 0.4353 0.522 0.5984 0.5679
2710.214 0.4192 0.35663 0.502 0.5263 0.4037 0.35868 0.4084 0.5009 0.5587 0.5142
2729.504 0.4978 0.4935 0.4048 0.5071 0.5488 0.4878 0.6028 0.6651 0.5995 0.5371
2748.794 0.423 0.4147 0.4861 0.4426 0.34157 0.2369 0.2518 0.4106 0.4157 0.30161
2768.083 0.4806 0.6565 0.6491 0.5734 0.4055 0.3668 0.5066 0.5569 0.4979 0.51
2787.373 0.5734 0.564 0.6174 0.652 0.5678 0.5762 0.584 0.5847 0.5489 0.5459
2806.663 0.5641 0.6064 0.613 0.5452 0.4879 0.5374 0.6696 0.7197 0.665 0.7641
2825.953 0.8115 0.6564 0.7117 0.7063 0.68 0.6847 0.6468 0.4542 0.5062 0.6675
2845.242 0.5349 0.6286 0.7441 0.6481 0.7377 0.9065 0.7825 0.7599 0.9518 0.9658
2864.532 0.8485 0.8059 0.9557 1.0793 1.0969 1.1344 1.1641 1.2314 1.1896 1.1522
2883.822 1.2605 1.484 1.444 1.354 1.394 1.2606 1.274 1.374 1.384 1.294
2903.112 1.2115 1.1777 1.189 1.2087 1.1937 1.2445 1.2579 1.2111 1.2535 1.374
2922.401 1.344 1.284 1.314 1.324 1.344 1.394 1.384 1.454 1.424 1.2168
2941.691 1.2592 1.444 1.414 1.374 1.504 1.434 1.404 1.414 1.294 1.2478
2960.981 1.2078 1.2192 1.2047 1.1819 1.1081 1.095 1.0626 0.8082 0.7855 0.7388
2980.271 0.7126 0.7382 0.689 0.7212 0.7586 0.7819 0.7166 0.6602 0.8631 0.9679
2999.561 0.9565 1.0954 1.1247 1.1255 1.1887 1.1259 1.2104 1.364 1.424 1.444
3018.850 1.514 1.734 1.884 1.964 2.244 2.484 2.664 2.964 3.194 3.404
3038.140 3.614 3.764 3.864 3.954 3.934 3.844 3.724 3.674 3.464 3.484
3057.430 3.614 3.644 3.914 4.064 4.334 4.864 5.404 5.804 6.124 6.344
3076.720 6.644 6.754 6.414 5.884 5.164 4.544 4.024 3.624 3.424 3.144
3096.009 2.864 2.764 2.704 2.384 2.054 2.004 1.844 1.624 1.434 1.284
3115.299 1.304 1.294 1.0908 0.7609 0.7963 0.9434 0.9055 0.6336 0.4319 0.5491
3134.589 0.5245 0.6059 0.6319 0.5799 0.552 0.6374 0.6864 0.5957 0.5848 0.5112
3153.879 0.5624 0.5871 0.482 0.5281 0.649 0.7492 0.8061 0.5571 0.3705 0.375
3173.169 0.5257 0.5768 0.5956 0.7786 0.7671 0.6945 0.6035 0.5684 0.5035 0.5795
3192.458 0.6437 0.4783 0.30824 0.2579 0.32646 0.5545 0.5843 0.38 0.442 0.4835
3211.748 0.3694 0.27486 0.4597 0.5569 0.478 0.3853 0.2121 0.052 0.263823 0.5124
3231.038 0.33321 0.4544 0.4842 0.398 0.5253 0.6165 0.5061 0.33036 0.35539 0.5788
3250.328 0.5937 0.4058 0.3795 0.30126 0.121 0.1725 0.4684 0.34335 0.3312 0.5462
3269.617 0.5312 0.4133 0.27973 0.30914 0.4793 0.553 0.4505 0.36273 0.3716 0.4171
3288.907 0.4079 0.35958 0.35054 0.5677 0.5981 0.605 0.7418 0.5879 0.4269 0.5432
3308.197 0.609 0.5061 0.5888 0.7141 0.7233 0.6367 0.5506 0.3841 0.32327 0.4049
3327.487 0.6656 0.8869 0.8409 0.7313 0.7362 0.7903 0.783 0.5566 0.5612 0.7568
3346.777 0.5226 0.495 0.4685 0.4778 0.7849 0.7716 0.5862 0.4667 0.4647 0.502
3366.066 0.4058 0.29563 0.2538 0.3906 0.5899 0.7485 0.6657 0.5124 0.5828 0.5728
3385.356 0.6602 0.708 0.5171 0.3147 0.33256 0.5292 0.4969 0.3628 0.5388 0.7523
3404.646 0.7206 0.3783 0.3677 0.5328 0.4081 0.4276 0.5096 0.4775 0.2448 0.269304
3423.936 0.4297 0.3879 0.30551 0.3982 0.4791 0.416 0.4511 0.4135 0.5673 0.7175
3443.225 0.5923 0.5968 0.5481 0.531 0.5756 0.5147 0.4667 0.4984 0.6006 0.7538
3462.515 0.6856 0.6438 0.763 0.6668 0.6128 0.6521 0.5913 0.6019 0.5972 0.6032
3481.805 0.7967 0.8229 0.6742 0.7439 0.7051 0.4881 0.4098 0.487 0.6805 0.6891
3501.095 0.7795 0.8557 0.6063 0.5496 0.6598 0.6275 0.4244 0.4506 0.7471 0.8007
3520.385 0.5808 0.4364 0.4443 0.5944 0.6275 0.6453 0.5831 0.5424 0.5359 0.5416
3539.674 0.6566 0.7402 0.8156 0.8387 1.0618 1.0779 1.1165 1.524 2.194 2.744
3558.964 3.194 4.144 5.224 6.034 7.224 8.384 9.364 10.404 11.224 11.864
3578.254 11.944 11.424 10.454 9.164 7.764 6.154 4.484 3.124 2.264 1.894
3597.544 1.474 1.1246 1.1558 1.037 0.7407 0.4876 0.6153 0.7041 0.6508 0.5816
3616.833 0.4894 0.4448 0.4374 0.6365 0.8053 0.8397 0.7391 0.7475 0.7707 0.7543
3636.123 0.7544 0.4984 0.35903 0.34794 0.31939 0.4591 0.6232 0.7388 0.6206 0.4696
3655.413 0.4981 0.4258 0.366 0.4914 0.3923 0.3881 0.4568 0.29691 0.2147 0.33016
3674.703 0.477 0.5373 0.4035 0.28765 0.3846 0.35924 0.4516 0.5039 0.3737 0.4165
3693.993 0.31728 0.4136 0.6731 0.4248 0.3897 0.566 0.4209 0.376 0.468 0.5192
3713.282 0.5133 0.485 0.6395 0.7009 0.4864 0.4071 0.3833 0.25637 0.2068 0.3713
3732.572 0.471 0.3835 0.409 0.5358 0.635 0.4343 0.1729 0.2518 0.2286 0.247
3751.862 0.33547 0.33431 0.4337 0.6571 0.637 0.5726 0.535 0.5677 0.7395 0.6627
3771.152 0.384 0.33829 0.4225 0.30299 0.4309 0.49 0.3712 0.3663 0.384 0.3913
3790.441 0.5339 0.7006 0.6153 0.4761 0.5601 0.5508 0.3718 0.4584 0.33125 0.078
3809.731 0.1916 0.4218 0.5513 0.4377 0.27911 0.27948 0.34766 0.4458 0.4537 0.5994
3829.021 0.6545 0.4049 0.31818 0.31257 0.26132 0.166 0.392 0.5531 0.4784 0.4306
3848.311 0.2516 0.15 0.2884 0.4537 0.32897 0.33468 0.5435 0.6103 0.472 0.4505
3867.601 0.6477 0.5625 0.4718 0.3818 0.4698 0.7035 0.5403 0.515 0.5646 0.4708
3886.890 0.3691 0.3906 0.4449 0.4898 0.6435 0.7715 0.7975 0.8754 0.9681 0.7788
3906.180 0.6489 0.6976 0.5984 0.29312 0.1996 0.3149 0.4475 0.4255 0.28425 0.4479
3925.470 0.5472 0.4498 0.4328 0.4541 0.265603 0.31354 0.4237 0.4076 0.6103 0.6713
3944.760 0.5291 0.5651 0.5499 0.4483 0.5321 0.5957 0.529 0.34756 0.32053 0.4626
3964.049 0.28042 0.2561 0.5694 0.6553 0.7164 0.6394 0.4734 0.4399 0.2538 0.26888
3983.339 0.4303 0.4451 0.6061 0.615 0.34101 0 0.014 0.1743 0.1906 0.31499
##END=
