##TITLE=3,5-Bis(trifluoromethyl)benzoic acid
##JCAMP-DX=4.24
##DATA TYPE=INFRARED SPECTRUM
##ORIGIN=EPA-IR VAPOR PHASE LIBRARY
##OWNER=SRD/NIST
Collection (C) 2018 copyright by the U.S. Secretary of Commerce
on behalf of the United States of America. All rights reserved.
##CAS REGISTRY NO=725-89-3
##MOLFORM=C 9 H 4 F 6 O 2
##$NIST SOURCE=MSDC-IR
##STATE=gas
##XUNITS=1/CM
##YUNITS=ABSORBANCE
##XFACTOR=1.
##YFACTOR=0.001
##DELTAX=1.92934
##FIRSTX=549.9
##LASTX=3999.5
##FIRSTY=1.7793
##MAXX=3999.53
##MINX=549.863
##MAXY=0.043095
##MINY=0
##NPOINTS=1789
##XYDATA=(X++(Y..Y))
549.863 1.7793 1.7018 1.6971 1.5869 1.4305 1.2322 1.07 1.1481 1.2371 1.2735
569.156 1.3614 1.4675 1.4974 1.4104 1.4485 1.5524 1.5353 1.5368 1.5351 1.5825
588.450 1.5864 1.5738 1.6902 1.806 1.955 2.145 2.365 2.535 2.555 2.495
607.743 2.485 2.505 2.455 2.345 2.255 2.145 2.015 1.895 1.7437 1.6436
627.037 1.5595 1.4632 1.4878 1.6076 1.8559 2.375 3.345 4.785 6.245 6.815
646.330 6.665 6.625 6.075 4.675 3.245 2.275 1.7525 1.4888 1.3364 1.2184
665.624 1.169 1.222 1.2678 1.3932 1.7219 2.315 3.205 4.195 4.885 5.205
684.917 5.095 4.605 3.855 2.905 2.225 1.975 1.965 2.165 2.355 2.305
704.210 2.015 1.7708 1.6035 1.4113 1.2408 1.1253 1.051 0.9901 0.96198 0.9821
723.504 0.9817 1.0097 1.0383 1.005 1.0055 1.0065 0.95594 0.91935 0.9356 0.95697
742.797 0.96179 0.93508 0.92781 0.9668 1.0342 1.0838 1.1026 1.1901 1.3792 1.5723
762.091 1.7522 1.995 2.285 2.645 3.025 3.105 2.765 2.425 2.205 1.995
781.384 1.7194 1.4247 1.2551 1.2036 1.1892 1.1308 1.0856 1.0903 1.0642 1.0321
800.678 1.0356 1.0347 1.0754 1.1134 1.0965 1.0973 1.1242 1.1199 1.117 1.1663
819.971 1.171 1.1479 1.1413 1.1324 1.1347 1.1463 1.2155 1.3374 1.5312 1.7507
839.264 1.965 2.195 2.355 2.455 2.495 2.435 2.315 2.165 1.975 1.794
858.558 1.6799 1.6247 1.5801 1.5782 1.59 1.5231 1.3603 1.2706 1.2116 1.0664
877.851 1.0173 1.0243 1.0072 0.9898 0.9386 0.93056 0.9854 0.9932 0.95218 0.9889
897.145 1.0617 1.1184 1.2455 1.4426 1.7561 2.095 2.445 2.855 3.335 3.615
916.438 3.315 2.795 2.395 2.025 1.6944 1.4207 1.2712 1.1858 1.1604 1.1612
935.732 1.1268 1.0893 1.0771 1.0811 1.0736 1.0434 1.0306 1.0363 1.0191 1.0216
955.025 0.9989 0.95976 0.9673 0.9883 0.9954 0.9752 0.96007 0.9726 0.9953 0.9973
974.318 0.9918 1.0215 1.0155 1.0176 1.0524 1.0458 1.0272 1.0417 1.0354 1.0414
993.612 1.0656 1.0633 1.0675 1.0623 1.032 1.0328 1.0941 1.1262 1.1624 1.1673
1012.905 1.1201 1.1219 1.1652 1.165 1.1293 1.0951 1.0732 1.0721 1.0716 1.1002
1032.199 1.1155 1.1186 1.1394 1.1546 1.1731 1.2038 1.2265 1.2644 1.3088 1.347
1051.492 1.3668 1.3843 1.3905 1.3559 1.331 1.331 1.3259 1.3379 1.3939 1.4053
1070.786 1.419 1.4716 1.4625 1.4291 1.475 1.5941 1.676 1.7418 1.865 2.065
1090.079 2.365 2.665 2.975 3.235 3.365 3.405 3.355 3.385 3.545 3.925
1109.372 4.505 5.045 5.465 5.685 5.585 5.245 4.785 4.315 3.965 3.835
1128.666 3.875 4.075 4.445 4.965 5.645 6.575 7.865 9.585 11.855 14.745
1147.959 18.395 22.705 27.425 32.235 36.505 39.055 38.745 35.815 31.715 27.565
1167.253 23.735 20.645 18.765 18.195 18.745 20.135 22.115 24.335 26.435 28.055
1186.546 28.755 28.165 26.285 23.465 20.175 16.805 13.695 11.045 9.075 7.845
1205.840 7.135 6.615 6.155 5.725 5.285 4.925 4.585 4.325 4.125 3.955
1225.133 3.915 3.825 3.755 3.705 3.595 3.515 3.415 3.275 3.125 2.965
1244.426 2.895 2.925 2.955 3.015 3.195 3.485 3.865 4.365 5.045 5.945
1263.720 7.175 8.725 10.795 13.665 17.715 23.155 29.615 36.065 40.935 43.095
1283.013 42.025 37.625 30.495 22.175 14.995 10.615 8.705 8.055 7.935 8.055
1302.307 8.325 8.585 8.695 8.665 8.385 7.925 7.385 6.795 6.195 5.775
1321.600 5.575 5.535 5.615 5.685 5.675 5.565 5.335 5.025 4.655 4.265
1340.894 3.905 3.615 3.375 3.195 3.045 2.905 2.765 2.625 2.485 2.355
1360.187 2.225 2.115 2.045 2.005 2.015 2.045 2.035 2.035 2.055 2.025
1379.480 2.015 1.995 1.945 1.895 1.875 1.875 1.875 1.935 1.975 1.975
1398.774 1.965 1.925 1.8325 1.7224 1.6171 1.5577 1.4939 1.4245 1.3768 1.3325
1418.067 1.3136 1.3065 1.3151 1.2789 1.2507 1.2912 1.3269 1.336 1.3472 1.3625
1437.361 1.383 1.3912 1.3712 1.3784 1.4291 1.4079 1.3985 1.4306 1.4724 1.5427
1456.654 1.5482 1.5042 1.4718 1.4314 1.3874 1.3371 1.277 1.2442 1.222 1.1934
1475.948 1.1612 1.1333 1.1459 1.1403 1.1168 1.114 1.1133 1.1198 1.1287 1.1154
1495.241 1.1158 1.1223 1.1074 1.1236 1.1221 1.1898 1.2249 1.1474 1.126 1.1634
1514.534 1.181 1.1529 1.1529 1.1797 1.1902 1.1416 1.0974 1.1122 1.1129 1.1274
1533.828 1.1619 1.1488 1.1867 1.2576 1.2676 1.2278 1.1643 1.151 1.1661 1.1717
1553.121 1.1777 1.1767 1.2161 1.2443 1.1524 1.1004 1.1374 1.1202 1.1463 1.1952
1572.415 1.158 1.1795 1.2367 1.1847 1.1601 1.189 1.1798 1.1604 1.1557 1.1625
1591.708 1.1931 1.2331 1.2589 1.2477 1.2681 1.3098 1.3266 1.3859 1.4651 1.5616
1611.002 1.685 1.8088 1.915 1.995 2.005 1.995 1.955 1.839 1.7381 1.6403
1630.295 1.5562 1.5148 1.5125 1.4802 1.4079 1.3717 1.3511 1.3596 1.3809 1.338
1649.588 1.2915 1.3452 1.3847 1.2643 1.1864 1.1733 1.1608 1.1716 1.16 1.1523
1668.882 1.1774 1.1597 1.1149 1.1372 1.1655 1.1527 1.148 1.1769 1.2205 1.1985
1688.175 1.1614 1.1684 1.1738 1.1854 1.1971 1.1949 1.231 1.2332 1.1987 1.2384
1707.469 1.3069 1.3579 1.4187 1.4585 1.5582 1.7519 1.895 1.995 2.075 2.185
1726.762 2.235 2.185 2.095 2.015 1.935 1.8268 1.7816 1.772 1.7673 1.7797
1746.056 1.885 2.015 2.135 2.375 2.755 3.295 4.145 5.465 7.445 10.155
1765.349 13.295 16.295 18.335 18.935 18.115 15.995 12.675 8.835 5.665 3.775
1784.642 2.745 2.215 1.925 1.7137 1.6054 1.5078 1.4229 1.3938 1.39 1.4267
1803.936 1.4627 1.5009 1.6183 1.7399 1.8192 1.915 1.985 2.005 1.985 1.895
1823.229 1.7385 1.604 1.5289 1.4382 1.3232 1.2406 1.2355 1.2491 1.2348 1.2445
1842.523 1.2528 1.239 1.228 1.2092 1.2093 1.213 1.1861 1.1757 1.1913 1.1894
1861.816 1.1809 1.19 1.171 1.1316 1.1339 1.1274 1.0875 1.0964 1.0958 1.0985
1881.110 1.1052 1.1113 1.1328 1.1138 1.1075 1.0952 1.0612 1.061 1.0463 1.0027
1900.403 1.016 1.0342 0.9986 1.0072 1.0335 0.997 0.9769 0.95762 0.95163 0.95686
1919.696 0.94856 0.94899 0.94048 0.94674 0.94383 0.92211 0.92433 0.93631 0.94132 0.9758
1938.990 1.0002 0.9815 0.95525 0.94891 0.95833 0.9714 0.9672 0.94882 0.93921 0.94499
1958.283 0.95551 0.95001 0.9537 0.95721 0.93661 0.92421 0.9293 0.92884 0.91438 0.91812
1977.577 0.91871 0.90378 0.90742 0.92563 0.93259 0.92975 0.92483 0.91906 0.89266 0.8966
1996.870 0.91116 0.90516 0.92747 0.9495 0.95605 0.93656 0.93668 0.94646 0.94746 0.93207
2016.164 0.90366 0.90495 0.93379 0.94581 0.89264 0.8764 0.91531 0.92726 0.92788 0.92666
2035.457 0.91384 0.88868 0.85884 0.865015 0.87538 0.864204 0.8481 0.853 0.872168 0.864516
2054.750 0.86207 0.8526 0.8421 0.8507 0.86192 0.86499 0.85664 0.826 0.8045 0.8222
2074.044 0.8397 0.8533 0.8389 0.8122 0.8171 0.8238 0.822 0.8145 0.8229 0.8086
2093.337 0.7962 0.8173 0.8095 0.8051 0.8133 0.7838 0.7985 0.8334 0.827 0.8222
2112.631 0.7989 0.7884 0.7885 0.7737 0.7886 0.8249 0.8212 0.8043 0.7903 0.7848
2131.924 0.8055 0.8109 0.812 0.8145 0.7955 0.7762 0.7764 0.7942 0.8112 0.7969
2151.218 0.7877 0.7971 0.7947 0.8012 0.8107 0.7954 0.7801 0.7925 0.7895 0.7871
2170.511 0.7942 0.7803 0.7653 0.7684 0.757 0.75 0.7741 0.7835 0.7888 0.7877
2189.804 0.7845 0.7976 0.7787 0.7717 0.767 0.7682 0.7926 0.7944 0.7986 0.7826
2209.098 0.758 0.7858 0.7887 0.7717 0.7882 0.789 0.8041 0.7984 0.7949 0.8056
2228.391 0.7951 0.7995 0.81 0.8072 0.8064 0.8179 0.8333 0.8123 0.7822 0.8297
2247.685 0.868695 0.849 0.8439 0.8281 0.8213 0.8074 0.7875 0.8016 0.8042 0.819
2266.978 0.8355 0.8062 0.7846 0.7807 0.8124 0.847 0.8499 0.828 0.8022 0.7982
2286.272 0.7928 0.7946 0.8103 0.8178 0.8264 0.8281 0.8121 0.8088 0.8025 0.7988
2305.565 0.8156 0.7986 0.751 0.753 0.7718 0.7749 0.763 0.7766 0.7781 0.7687
2324.858 0.7807 0.7955 0.8093 0.816 0.8296 0.8183 0.8203 0.8294 0.8107 0.8073
2344.152 0.8103 0.8029 0.7942 0.7815 0.7816 0.7766 0.7908 0.8017 0.809 0.7854
2363.445 0.751 0.7795 0.7729 0.7666 0.7792 0.746 0.729 0.719 0.71 0.717
2382.739 0.727 0.746 0.748 0.757 0.732 0.725 0.743 0.729 0.706 0.686
2402.032 0.688 0.704 0.721 0.731 0.729 0.719 0.719 0.706 0.685 0.651
2421.326 0.639 0.668 0.671 0.661 0.673 0.673 0.662 0.669 0.673 0.659
2440.619 0.667 0.682 0.673 0.676 0.668 0.667 0.669 0.662 0.677 0.677
2459.912 0.66 0.647 0.646 0.653 0.657 0.664 0.676 0.678 0.653 0.642
2479.206 0.689 0.704 0.669 0.646 0.639 0.67 0.658 0.651 0.661 0.628
2498.499 0.61 0.618 0.65 0.663 0.603 0.567 0.585 0.591 0.588 0.579
2517.793 0.579 0.583 0.591 0.61 0.597 0.593 0.614 0.618 0.609 0.597
2537.086 0.59 0.581 0.566 0.561 0.576 0.57 0.561 0.558 0.561 0.548
2556.380 0.563 0.598 0.554 0.52 0.544 0.535 0.505 0.512 0.537 0.564
2575.673 0.563 0.563 0.577 0.572 0.539 0.525 0.55 0.55 0.532 0.505
2594.966 0.5 0.503 0.479 0.468 0.488 0.492 0.472 0.456 0.448 0.469
2614.260 0.482 0.476 0.463 0.457 0.449 0.438 0.461 0.482 0.479 0.468
2633.553 0.465 0.488 0.491 0.476 0.455 0.441 0.445 0.439 0.443 0.407
2652.847 0.4 0.409 0.41 0.451 0.46 0.449 0.449 0.424 0.372 0.353
2672.140 0.377 0.436 0.471 0.485 0.462 0.415 0.405 0.405 0.377 0.382
2691.434 0.411 0.384 0.363 0.379 0.368 0.378 0.418 0.362 0.291 0.273
2710.727 0.306 0.362 0.335 0.33 0.343 0.337 0.339 0.364 0.393 0.375
2730.020 0.351 0.313 0.32 0.349 0.367 0.38 0.373 0.33 0.295 0.327
2749.314 0.335 0.301 0.292 0.315 0.293 0.311 0.372 0.328 0.261 0.233
2768.607 0.238 0.253 0.262 0.297 0.304 0.264 0.254 0.239 0.267 0.299
2787.901 0.271 0.268 0.247 0.189 0.186 0.222 0.253 0.259 0.257 0.248
2807.194 0.245 0.224 0.242 0.267 0.21 0.219 0.243 0.22 0.206 0.212
2826.488 0.226 0.235 0.241 0.223 0.199 0.233 0.252 0.212 0.211 0.264
2845.781 0.246 0.215 0.234 0.154 0.098 0.165 0.193 0.192 0.213 0.247
2865.074 0.255 0.216 0.234 0.255 0.213 0.213 0.172 0.144 0.2 0.26
2884.368 0.237 0.138 0.076 0.105 0.189 0.175 0.189 0.202 0.163 0.204
2903.661 0.227 0.188 0.183 0.164 0.155 0.191 0.152 0.122 0.057 0.043
2922.955 0.121 0.181 0.195 0.17 0.105 0 0.015 0.072 0.129 0.14
2942.248 0.167 0.155 0.075 0.095 0.088 0.062 0.148 0.191 0.121 0.108
2961.542 0.154 0.092 0.046 0.14 0.146 0.107 0.117 0.17 0.192 0.141
2980.835 0.16 0.142 0.062 0.106 0.196 0.142 0.124 0.13 0.125 0.151
3000.128 0.14 0.148 0.178 0.148 0.078 0.148 0.167 0.143 0.175 0.202
3019.422 0.21 0.191 0.206 0.235 0.147 0.152 0.248 0.208 0.182 0.17
3038.715 0.184 0.241 0.176 0.06 0.117 0.154 0.155 0.12 0.136 0.15
3058.009 0.155 0.224 0.159 0.154 0.136 0.107 0.188 0.271 0.236 0.152
3077.302 0.128 0.197 0.248 0.262 0.329 0.315 0.352 0.402 0.353 0.272
3096.596 0.284 0.368 0.37 0.296 0.223 0.314 0.345 0.259 0.215 0.251
3115.889 0.2 0.142 0.284 0.323 0.153 0.12 0.245 0.263 0.243 0.229
3135.182 0.178 0.158 0.147 0.105 0.085 0.124 0.22 0.245 0.201 0.28
3154.476 0.382 0.333 0.263 0.286 0.363 0.331 0.299 0.263 0.239 0.271
3173.769 0.293 0.302 0.259 0.214 0.191 0.247 0.298 0.38 0.405 0.405
3193.063 0.444 0.388 0.354 0.398 0.346 0.321 0.356 0.284 0.306 0.315
3212.356 0.414 0.539 0.474 0.337 0.368 0.432 0.378 0.396 0.364 0.327
3231.650 0.339 0.35 0.425 0.472 0.432 0.404 0.434 0.411 0.414 0.47
3250.943 0.401 0.313 0.366 0.464 0.406 0.445 0.487 0.457 0.45 0.431
3270.236 0.498 0.51 0.515 0.562 0.532 0.59 0.673 0.561 0.479 0.496
3289.530 0.48 0.489 0.532 0.47 0.437 0.476 0.502 0.582 0.65 0.66
3308.823 0.613 0.497 0.5 0.587 0.583 0.585 0.581 0.573 0.578 0.563
3328.117 0.557 0.581 0.617 0.654 0.671 0.673 0.65 0.628 0.738 0.757
3347.410 0.598 0.607 0.63 0.648 0.71 0.643 0.62 0.604 0.646 0.744
3366.704 0.668 0.609 0.673 0.733 0.7939 0.8078 0.706 0.712 0.8046 0.8104
3385.997 0.688 0.652 0.654 0.592 0.698 0.866664 0.88305 0.763 0.66 0.676
3405.290 0.733 0.7858 0.714 0.571 0.611 0.8038 0.8273 0.743 0.724 0.638
3424.584 0.706 0.8303 0.8502 0.8211 0.701 0.665 0.747 0.744 0.684 0.717
3443.877 0.7787 0.7832 0.755 0.671 0.677 0.7948 0.7799 0.75 0.7666 0.7684
3463.171 0.7801 0.7753 0.8479 0.8547 0.722 0.73 0.749 0.713 0.7782 0.749
3482.464 0.75 0.864232 0.89373 0.8483 0.7885 0.8451 0.90105 0.8471 0.8274 0.89738
3501.758 0.90041 0.8137 0.8137 0.8168 0.8408 0.91424 0.9714 0.9921 0.9763 0.93646
3521.051 0.95777 1.0275 1.0153 0.95455 0.9687 1.0265 0.95784 0.8516 0.8005 0.7865
3540.344 0.7902 0.795 0.7975 0.8378 0.92489 0.8432 0.7728 0.8244 0.90068 0.94866
3559.638 1.0186 1.0337 1.1525 1.4757 1.7722 2.305 3.035 3.925 4.915 6.035
3578.931 6.995 7.415 7.295 6.685 5.685 4.495 3.315 2.305 1.6095 1.2529
3598.225 1.1253 1.0265 0.95224 0.94756 0.871703 0.8274 0.90554 0.9087 0.92157 0.92896
3617.518 0.870994 0.8456 0.8285 0.8218 0.92181 0.89223 0.8062 0.8406 0.7982 0.7664
3636.812 0.757 0.777 0.751 0.735 0.8446 0.88464 0.7974 0.8153 0.833 0.8003
3656.105 0.7691 0.726 0.71 0.746 0.7795 0.733 0.705 0.74 0.8282 0.8084
3675.398 0.778 0.7699 0.751 0.759 0.721 0.758 0.7849 0.744 0.755 0.7659
3694.692 0.762 0.735 0.741 0.729 0.7 0.665 0.636 0.703 0.7853 0.7965
3713.985 0.755 0.7741 0.7866 0.731 0.722 0.689 0.664 0.725 0.8165 0.803
3733.279 0.712 0.684 0.721 0.739 0.715 0.74 0.7785 0.86151 0.8462 0.8113
3752.572 0.8125 0.8089 0.8174 0.728 0.665 0.677 0.67 0.692 0.672 0.618
3771.866 0.659 0.678 0.679 0.706 0.644 0.619 0.648 0.657 0.701 0.688
3791.159 0.706 0.7829 0.728 0.644 0.729 0.8033 0.748 0.73 0.757 0.737
3810.452 0.661 0.654 0.69 0.671 0.724 0.742 0.75 0.674 0.63 0.696
3829.746 0.667 0.66 0.7 0.71 0.679 0.758 0.757 0.736 0.7719 0.7755
3849.039 0.719 0.681 0.739 0.693 0.669 0.69 0.679 0.675 0.665 0.655
3868.333 0.655 0.638 0.59 0.588 0.708 0.728 0.703 0.693 0.643 0.703
3887.626 0.699 0.646 0.677 0.729 0.7894 0.742 0.674 0.586 0.524 0.554
3906.920 0.61 0.673 0.657 0.64 0.659 0.676 0.648 0.629 0.609 0.61
3926.213 0.62 0.56 0.504 0.55 0.607 0.68 0.673 0.602 0.617 0.545
3945.506 0.53 0.615 0.575 0.532 0.563 0.601 0.589 0.555 0.589 0.625
3964.800 0.66 0.692 0.602 0.535 0.577 0.587 0.546 0.597 0.717 0.654
3984.093 0.561 0.584 0.557 0.567 0.565 0.573 0.651 0.674 0.658
##END=
