##TITLE=Tetramethyl bicyclo[2.2.2]-7-octene-2,3,5,6-tetracarboxylate
##JCAMP-DX=4.24
##DATA TYPE=INFRARED SPECTRUM
##ORIGIN=EPA-IR VAPOR PHASE LIBRARY
##OWNER=SRD/NIST
Collection (C) 2018 copyright by the U.S. Secretary of Commerce
on behalf of the United States of America. All rights reserved.
##CAS REGISTRY NO=72598-54-0
##MOLFORM=C 16 H 20 O 8
##$NIST SOURCE=MSDC-IR
##STATE=gas
##XUNITS=1/CM
##YUNITS=ABSORBANCE
##XFACTOR=1.
##YFACTOR=0.001
##DELTAX=1.92898
##FIRSTX=549.8
##LASTX=4000.7
##FIRSTY=0.9296
##MAXX=4000.7
##MINX=549.759
##MAXY=0.082261
##MINY=0
##NPOINTS=1790
##XYDATA=(X++(Y..Y))
549.759 0.9296 0.8513 1.461 1.721 1.431 1.3618 1.441 1.2968 1.481 1.551
569.049 1.2937 1.2622 1.0361 0.9375 0.8653 0.6921 0.7923 0.8507 0.7825 0.7131
588.339 0.9619 0.8746 0.5774 0.9749 1.0663 0.8024 0.8842 0.9472 0.8681 0.8121
607.628 0.9867 1.0767 0.9431 0.8359 0.9114 0.9946 1.1371 1.1675 0.7462 1.0422
626.918 1.441 1.2605 1.2848 1.491 1.451 1.3209 1.3436 1.421 1.421 1.3673
646.208 1.3354 1.1973 1.1509 1.3695 1.651 1.561 1.451 1.591 1.791 1.761
665.498 1.641 1.721 1.781 1.731 1.841 2.211 2.341 2.281 2.511 2.701
684.787 2.621 2.781 2.811 2.801 2.941 3.221 3.671 3.751 4.061 4.381
704.077 4.501 4.771 4.971 4.981 4.471 3.861 3.751 3.711 3.391 3.181
723.367 3.201 3.221 3.131 2.981 3.081 3.281 3.361 3.281 3.101 3.131
742.657 3.161 2.881 2.661 2.511 2.351 2.431 2.571 2.351 2.131 2.401
761.947 2.401 2.221 2.121 1.991 2.011 2.101 2.171 1.851 1.611 1.521
781.236 1.641 1.991 2.111 2.311 2.491 2.691 2.881 3.061 3.211 3.011
800.526 2.921 3.041 2.701 2.561 2.471 2.291 2.361 2.091 2.121 2.301
819.816 2.321 2.401 2.331 2.531 2.721 2.731 2.761 2.751 2.531 2.511
839.106 2.621 2.231 2.201 2.331 2.071 1.831 1.721 1.711 1.741 1.601
858.395 1.611 1.871 2.161 2.291 2.281 2.321 2.631 2.861 2.931 3.171
877.685 3.101 3.021 2.951 2.811 2.851 2.841 2.821 2.881 2.791 2.701
896.975 2.641 2.581 2.681 2.741 2.551 2.341 2.411 2.521 2.471 2.611
916.265 3.061 3.421 3.651 3.881 4.061 4.101 4.001 3.731 3.461 3.221
935.555 2.951 2.741 2.371 2.301 2.291 2.101 2.111 1.941 1.811 1.711
954.844 1.671 1.591 1.601 1.731 1.631 1.581 1.531 1.491 1.581 1.751
974.134 1.871 1.781 1.741 1.891 2.021 2.001 2.131 2.391 2.341 2.151
993.424 2.161 2.261 2.251 2.451 2.841 3.311 3.701 4.011 4.531 5.221
1012.714 5.871 6.281 7.051 8.071 8.871 10.141 11.531 12.611 14.011 16.071
1032.003 17.891 19.531 21.251 22.571 23.831 24.441 24.461 23.491 21.881 20.051
1051.293 17.871 16.211 14.871 13.361 11.701 10.461 9.651 8.651 7.991 7.921
1070.583 7.711 8.231 8.811 8.921 9.331 9.351 9.371 9.691 9.341 8.851
1089.873 8.401 7.781 7.871 7.461 6.211 5.671 5.571 5.661 5.831 5.811
1109.163 6.551 6.911 6.581 6.461 6.641 7.091 7.341 8.001 8.921 10.181
1128.452 11.061 11.621 12.591 14.391 16.491 17.901 19.671 21.801 23.571 25.451
1147.742 28.311 31.631 34.781 38.441 42.991 47.741 52.431 57.391 62.621 67.091
1167.032 71.231 75.111 77.531 78.911 78.971 77.251 74.301 70.511 66.451 63.321
1186.322 61.091 59.531 58.491 56.981 55.501 53.791 51.421 48.441 45.271 41.991
1205.611 38.701 36.331 34.031 31.891 30.571 30.131 29.491 28.931 28.901 28.851
1224.901 29.291 30.131 30.751 30.851 30.821 30.861 30.721 30.471 30.201 29.991
1244.191 29.901 29.821 29.951 30.091 30.011 30.211 30.811 31.601 32.091 32.541
1263.481 32.701 32.621 32.661 32.301 31.651 30.751 29.111 27.061 25.151 22.901
1282.771 20.521 18.301 16.311 14.651 13.291 12.181 11.431 10.971 10.601 10.401
1302.060 10.321 10.451 10.711 11.041 11.571 12.071 12.581 13.021 13.341 13.731
1321.350 13.981 13.971 13.671 13.141 12.431 11.731 11.081 10.571 10.301 10.201
1340.640 10.331 10.591 10.931 11.271 11.581 11.941 12.301 12.701 13.101 13.501
1359.930 13.751 13.751 13.621 13.321 12.861 12.251 11.451 10.591 9.671 8.701
1379.219 7.861 7.131 6.481 5.911 5.381 4.961 4.691 4.451 4.161 3.971
1398.509 3.811 3.641 3.531 3.531 3.571 3.671 3.761 3.731 3.731 3.761
1417.799 3.791 4.021 4.341 4.741 5.451 6.671 8.811 12.051 16.071 19.621
1437.089 21.481 21.121 18.431 14.331 10.631 8.281 6.971 6.221 5.801 5.421
1456.378 5.081 4.961 4.841 4.661 4.541 4.461 4.321 4.171 3.961 3.711
1475.668 3.491 3.371 3.281 3.061 2.871 2.721 2.591 2.491 2.411 2.341
1494.958 2.251 2.231 2.241 2.171 2.041 1.901 1.791 1.781 1.781 1.731
1514.248 1.721 1.801 1.841 1.731 1.641 1.681 1.751 1.791 1.751 1.771
1533.538 1.801 1.841 1.811 1.691 1.721 1.701 1.631 1.701 1.721 1.651
1552.827 1.671 1.741 1.731 1.601 1.551 1.701 1.791 1.661 1.571 1.651
1572.117 1.621 1.481 1.481 1.611 1.661 1.611 1.601 1.531 1.461 1.451
1591.407 1.411 1.451 1.551 1.521 1.3734 1.411 1.451 1.3838 1.411 1.451
1610.697 1.441 1.471 1.501 1.471 1.491 1.521 1.521 1.501 1.421 1.3676
1629.986 1.388 1.491 1.501 1.3869 1.342 1.3459 1.3814 1.461 1.501 1.501
1649.276 1.501 1.481 1.561 1.631 1.651 1.691 1.731 1.821 1.871 1.901
1668.566 1.961 1.921 1.921 2.001 2.081 2.171 2.251 2.291 2.331 2.451
1687.856 2.491 2.521 2.661 2.731 2.811 3.041 3.321 3.541 3.811 4.141
1707.146 4.401 4.601 4.921 5.371 5.821 6.371 7.051 7.741 8.421 9.231
1726.435 10.351 11.681 13.211 15.101 17.691 21.141 25.401 31.011 37.801 45.281
1745.725 52.511 58.541 62.521 64.451 65.181 65.991 68.021 71.541 76.011 80.161
1765.015 82.261 80.951 75.531 66.731 55.851 44.961 35.341 27.591 21.781 17.521
1784.305 14.451 12.221 10.441 9.051 8.001 7.131 6.331 5.641 5.031 4.511
1803.594 4.071 3.661 3.381 3.151 2.951 2.711 2.521 2.491 2.421 2.271
1822.884 2.211 2.161 2.091 2.021 2.021 2.021 1.981 1.971 1.911 1.831
1842.174 1.811 1.851 1.761 1.661 1.701 1.731 1.701 1.531 1.511 1.511
1861.464 1.411 1.441 1.411 1.3068 1.2956 1.3071 1.3007 1.291 1.2679 1.2328
1880.754 1.1859 1.1451 1.1096 1.0788 1.0657 1.0232 0.9367 0.9816 0.9936 0.9177
1900.043 0.9663 0.9487 0.9572 1.0183 1.0158 0.9557 0.9155 0.9117 0.8894 0.8976
1919.333 0.932 0.9739 1.0151 0.9981 0.9646 1.0029 1.0196 0.9737 0.8902 0.8733
1938.623 0.9307 0.9878 1.0084 1.0011 0.9731 0.96 0.9596 0.9817 1.0144 1.0332
1957.913 1.0253 1.0095 1.0176 0.9885 1.0252 1.0682 1.0606 1.0762 1.1086 1.1595
1977.202 1.179 1.1582 1.1603 1.1089 1.1066 1.0468 1.0376 1.1846 1.1868 1.1825
1996.492 1.1343 1.0989 1.1562 1.1094 1.1326 1.1631 1.0834 1.102 1.1462 1.1441
2015.782 1.0995 1.0436 1.0764 1.0752 1.0442 1.0941 1.1228 1.0611 1.0614 1.0893
2035.072 1.0803 1.0709 1.0831 1.0689 1.0461 1.0815 1.0365 1.0725 1.1781 1.2074
2054.362 1.1647 1.1446 1.1389 1.1197 1.1429 1.1732 1.1478 1.1108 1.1286 1.0845
2073.651 1.0521 1.1073 1.149 1.0877 1.0503 1.0912 1.097 1.0529 1.0346 1.0097
2092.941 0.9808 1.0579 1.0483 0.9559 0.9897 1.0446 0.9972 0.9448 0.9302 0.9274
2112.231 0.9135 0.9852 0.978 0.8937 0.9168 0.8482 0.8332 0.9246 0.8829 0.7983
2131.521 0.7993 0.8345 0.8733 0.846 0.8035 0.8172 0.829 0.7751 0.6751 0.7022
2150.810 0.7518 0.6922 0.6521 0.6902 0.6806 0.6846 0.7082 0.6315 0.6426 0.6575
2170.100 0.6225 0.6727 0.6427 0.5794 0.5586 0.5857 0.642 0.6174 0.5702 0.5632
2189.390 0.6077 0.6492 0.6069 0.5865 0.5414 0.45987 0.47365 0.45076 0.41896 0.4916
2208.680 0.5069 0.48534 0.4974 0.48347 0.47107 0.5196 0.45248 0.4672 0.6089 0.5065
2227.970 0.47358 0.5053 0.43519 0.352 0.3736 0.42268 0.44649 0.43841 0.40942 0.3859
2247.259 0.38423 0.43332 0.45408 0.509 0.5317 0.5544 0.5911 0.5191 0.41455 0.47796
2266.549 0.5014 0.40798 0.44541 0.5146 0.5518 0.5811 0.5928 0.5131 0.47027 0.42693
2285.839 0.40354 0.48465 0.46267 0.4934 0.5608 0.48652 0.5112 0.5582 0.5782 0.6139
2305.129 0.5835 0.595 0.5392 0.48061 0.44687 0.43254 0.47266 0.43989 0.42219 0.45614
2324.418 0.47183 0.47695 0.4678 0.5378 0.5255 0.5011 0.574 0.5605 0.5378 0.5732
2343.708 0.6207 0.6889 0.7581 0.6281 0.4943 0.5556 0.5873 0.5741 0.5525 0.5492
2362.998 0.5769 0.6056 0.5846 0.5445 0.5685 0.5803 0.5185 0.4858 0.5543 0.5652
2382.288 0.559 0.5994 0.5107 0.44708 0.504 0.5253 0.5515 0.5483 0.5463 0.5134
2401.578 0.47153 0.5464 0.5192 0.43142 0.43298 0.4265 0.41852 0.42266 0.46323 0.47235
2420.867 0.5023 0.6244 0.5841 0.49057 0.5402 0.5287 0.41865 0.379 0.40137 0.44158
2440.157 0.5287 0.5233 0.46824 0.43412 0.46586 0.47881 0.43679 0.48659 0.5229 0.5355
2459.447 0.46888 0.40842 0.4953 0.47505 0.4261 0.43613 0.4074 0.41158 0.43178 0.4962
2478.737 0.5344 0.45156 0.3294 0.3329 0.41696 0.44302 0.41712 0.3794 0.3651 0.3586
2498.026 0.3708 0.38642 0.44199 0.44404 0.3176 0.2951 0.289 0.29 0.3108 0.3614
2517.316 0.42993 0.38148 0.3787 0.367 0.3494 0.47007 0.44104 0.3346 0.3584 0.3339
2536.606 0.38451 0.46717 0.48391 0.5562 0.5198 0.4228 0.392089 0.3396 0.43308 0.5047
2555.896 0.4077 0.45248 0.5177 0.46249 0.3518 0.3361 0.44298 0.397018 0.3216 0.40519
2575.186 0.43287 0.41519 0.4912 0.46282 0.44071 0.48546 0.42768 0.359 0.3742 0.4998
2594.475 0.5451 0.44085 0.45305 0.5635 0.6232 0.5353 0.3658 0.41028 0.5632 0.5434
2613.765 0.5521 0.5948 0.5482 0.5736 0.5502 0.5059 0.4951 0.5561 0.6374 0.5075
2633.055 0.3162 0.3189 0.381 0.43604 0.48967 0.4178 0.3554 0.3426 0.323 0.45661
2652.345 0.5104 0.41276 0.38525 0.3533 0.38586 0.44512 0.3792 0.3704 0.43397 0.395163
2671.634 0.394925 0.4316 0.45194 0.46845 0.42885 0.42355 0.47436 0.3785 0.297 0.3254
2690.924 0.41741 0.41775 0.3174 0.3059 0.3492 0.42641 0.3311 0.216 0.2947 0.3533
2710.214 0.3782 0.3392 0.2968 0.275 0.231 0.3257 0.40186 0.3774 0.283 0.275
2729.504 0.42776 0.3335 0.3011 0.41625 0.46678 0.44483 0.3723 0.3576 0.3343 0.286
2748.794 0.3311 0.44648 0.397556 0.3625 0.3569 0.3492 0.47432 0.5341 0.48102 0.3752
2768.083 0.3664 0.398682 0.3667 0.38213 0.41252 0.49079 0.48118 0.5325 0.5648 0.41567
2787.373 0.3618 0.48558 0.5593 0.4996 0.46639 0.4593 0.4919 0.5533 0.5576 0.522
2806.663 0.4954 0.4969 0.5498 0.5173 0.5774 0.6831 0.6419 0.7254 0.757 0.7868
2825.953 0.9561 1.098 1.1476 1.3437 1.591 1.781 2.041 2.321 2.871 3.461
2845.242 3.981 4.301 4.351 4.261 3.771 3.171 2.681 2.301 2.011 1.801
2864.532 1.691 1.571 1.451 1.441 1.601 1.721 1.811 1.901 1.941 2.031
2883.822 2.221 2.481 2.751 3.171 3.731 4.291 4.891 5.431 5.781 6.141
2903.112 6.461 6.491 6.291 6.071 5.831 5.651 5.541 5.341 5.291 5.321
2922.401 5.191 5.091 5.091 5.171 5.351 5.521 5.801 6.271 6.811 7.471
2941.691 8.301 9.321 10.641 12.111 13.921 16.561 20.151 24.361 28.171 29.981
2960.981 29.131 25.851 20.961 15.911 12.061 9.521 7.921 7.021 6.261 5.891
2980.271 5.841 5.741 5.581 5.561 5.721 5.931 6.141 6.261 6.401 6.541
2999.561 6.461 6.361 6.241 5.971 5.751 5.491 5.321 5.021 4.711 4.611
3018.850 4.641 4.761 4.731 4.651 4.621 4.481 4.321 4.101 3.771 3.491
3038.140 3.221 2.881 2.611 2.471 2.261 2.161 2.141 2.221 2.191 1.961
3057.430 2.001 2.021 1.911 1.981 2.151 2.341 2.481 2.541 2.621 2.901
3076.720 3.121 3.101 3.181 3.131 2.671 2.321 2.241 2.021 1.891 1.691
3096.009 1.561 1.551 1.471 1.3714 1.2447 1.2435 1.308 1.2384 1.1596 1.2814
3115.299 1.2526 1.0996 1.0114 0.964 0.8992 0.8528 0.8684 0.8357 0.7253 0.6393
3134.589 0.6309 0.6836 0.6807 0.6641 0.6262 0.6912 0.7014 0.4911 0.491 0.6398
3153.879 0.6428 0.5503 0.44556 0.40626 0.4614 0.42524 0.4881 0.45671 0.398863 0.42345
3173.169 0.47887 0.5409 0.5296 0.379 0.241 0.29 0.45059 0.5071 0.43384 0.4958
3192.458 0.47873 0.40852 0.277 0.251 0.396898 0.44074 0.3523 0.400938 0.46917 0.3737
3211.748 0.3682 0.3312 0.3544 0.43147 0.43593 0.5206 0.46344 0.40172 0.3429 0.332
3231.038 0.47655 0.45284 0.319 0.273 0.327 0.43674 0.3523 0.3217 0.3168 0.206
3250.328 0.19 0.274 0.289 0.3001 0.3767 0.3632 0.40692 0.3634 0.3453 0.2981
3269.617 0.205 0.225 0.097 0.083 0.135 0.168 0.289 0.3029 0.305 0.234
3288.907 0.127 0.237 0.395139 0.3668 0.3038 0.29 0.3537 0.379 0.3553 0.177
3308.197 0 0.034 0.26 0.3098 0.093 0.171 0.199 0.147 0.263 0.243
3327.487 0.192 0.166 0.205 0.3696 0.397634 0.3545 0.3553 0.21 0.3189 0.44816
3346.777 0.231 0.207 0.41968 0.45524 0.41392 0.38522 0.38625 0.3719 0.395028 0.44628
3366.066 0.400886 0.3052 0.217 0.262 0.38708 0.48967 0.285 0.145 0.265 0.3004
3385.356 0.3396 0.4036 0.2965 0.248 0.3552 0.3 0.3022 0.3606 0.3222 0.2987
3404.646 0.206 0.182 0.3183 0.3651 0.2981 0.396688 0.48062 0.47246 0.4967 0.44594
3423.936 0.43742 0.5012 0.40151 0.258 0.44013 0.43219 0.281 0.281 0.22 0.3486
3443.225 0.3706 0.392654 0.3808 0.3723 0.5177 0.5614 0.5392 0.48706 0.5241 0.44045
3462.515 0.391693 0.6234 0.8678 0.7022 0.47064 0.6325 0.8803 0.9092 0.8991 0.8286
3481.805 0.7773 0.8217 0.8331 0.8177 0.8143 0.9419 0.9799 0.8894 0.7962 0.7919
3501.095 0.8641 0.8988 1.0111 1.1275 1.0457 0.8722 0.7755 0.8486 0.8208 0.8508
3520.385 0.8842 0.7755 0.6973 0.6406 0.6717 0.6237 0.6166 0.5449 0.5235 0.548
3539.674 0.47657 0.47189 0.47852 0.44651 0.3081 0.248 0.274 0.291 0.363 0.398186
3558.964 0.42034 0.47682 0.3807 0.3412 0.3527 0.3495 0.45474 0.4915 0.395785 0.3008
3578.254 0.400671 0.41315 0.29 0.3641 0.3129 0.178 0.27 0.3323 0.42989 0.5052
3597.544 0.4975 0.5186 0.5171 0.3073 0.135 0.119 0.099 0.256 0.2958 0.3692
3616.833 0.366 0.288 0.3322 0.3713 0.45344 0.46491 0.3453 0.3439 0.45459 0.3586
3636.123 0.243 0.41285 0.4956 0.271 0.3233 0.42708 0.3197 0.3805 0.47208 0.3167
3655.413 0.28 0.45619 0.45208 0.45026 0.3748 0.3345 0.47387 0.38994 0.4224 0.5203
3674.703 0.335 0.229 0.241 0.3398 0.3559 0.253 0.248 0.3341 0.47781 0.3098
3693.993 0.148 0.3184 0.40272 0.311 0.204 0.24 0.275 0.3318 0.3551 0.2923
3713.282 0.2919 0.3237 0.44624 0.3534 0.199 0.109 0.108 0.184 0.203 0.3044
3732.572 0.2932 0.3138 0.3511 0.269 0.267 0.227 0.098 0.145 0.2988 0.42521
3751.862 0.48065 0.40324 0.41517 0.3688 0.41785 0.5455 0.525 0.5503 0.5308 0.396785
3771.152 0.3549 0.23 0.278 0.48476 0.4995 0.2984 0.152 0.2995 0.3415 0.3317
3790.441 0.3579 0.38798 0.3288 0.38418 0.46074 0.38886 0.5065 0.46868 0.34 0.396538
3809.731 0.38435 0.43334 0.5941 0.5419 0.3374 0.314 0.272 0.3183 0.3606 0.233
3829.021 0.261 0.41551 0.263 0.097 0.136 0.192 0.222 0.40645 0.5047 0.43298
3848.311 0.46319 0.5034 0.38564 0.2996 0.43322 0.5836 0.5466 0.554 0.5411 0.3489
3867.601 0.183 0.196 0.45559 0.2937 0.247 0.392003 0.55 0.6637 0.47067 0.38115
3886.890 0.3274 0.2987 0.269 0.262 0.43447 0.45051 0.205 0.12 0.287 0.3304
3906.180 0.244 0.267 0.205 0.174 0.42144 0.542 0.44594 0.5074 0.5393 0.5094
3925.470 0.48608 0.3701 0.24 0.261 0.274 0.257 0.3564 0.4943 0.4222 0.44731
3944.760 0.41479 0.153 0.247 0.46009 0.5336 0.47867 0.44375 0.6205 0.6234 0.4943
3964.049 0.46434 0.4802 0.42174 0.281 0.3514 0.38149 0.3155 0.3314 0.3671 0.3345
3983.339 0.3614 0.45349 0.41926 0.42558 0.47553 0.3346 0.184 0.224 0.46301 0.521
##END=
