##TITLE=4-Amino-3,5-dibromobenzotrifluoride
##JCAMP-DX=4.24
##DATA TYPE=INFRARED SPECTRUM
##ORIGIN=EPA-IR VAPOR PHASE LIBRARY
##OWNER=SRD/NIST
Collection (C) 2018 copyright by the U.S. Secretary of Commerce
on behalf of the United States of America. All rights reserved.
##CAS REGISTRY NO=72678-19-4
##MOLFORM=C 7 H 4 Br 2 F 3 N
##$NIST SOURCE=MSDC-IR
##STATE=gas
##XUNITS=1/CM
##YUNITS=ABSORBANCE
##XFACTOR=1.
##YFACTOR=0.001
##DELTAX=1.92898
##FIRSTX=549.8
##LASTX=4000.7
##FIRSTY=6.027
##MAXX=4000.7
##MINX=549.759
##MAXY=0.570807
##MINY=0
##NPOINTS=1790
##XYDATA=(X++(Y..Y))
549.759 6.027 5.637 6.017 6.197 5.647 6.477 6.987 6.387 6.047 5.257
569.049 5.137 5.007 5.047 4.627 4.827 5.517 5.097 4.777 5.347 5.977
588.339 5.817 5.717 5.707 5.817 6.247 6.437 6.467 5.997 5.177 5.067
607.628 5.177 5.627 6.297 6.537 6.407 7.407 8.267 9.017 10.057 10.397
626.918 10.887 11.957 13.317 14.747 17.187 20.807 25.437 31.927 41.647 54.127
646.208 66.337 76.357 83.147 86.197 83.787 74.497 61.537 48.567 36.757 26.417
665.498 18.267 12.867 9.637 7.657 6.777 6.607 6.677 6.677 6.717 7.077
684.787 8.127 9.117 9.597 9.837 10.617 11.607 12.487 13.587 14.677 15.857
704.077 17.507 19.497 20.397 21.577 23.887 26.367 29.367 32.717 35.177 37.297
723.367 42.017 48.837 56.067 63.877 70.047 73.827 75.367 73.747 69.397 64.027
742.657 58.737 52.817 46.667 41.147 36.397 32.907 30.587 28.637 26.547 24.187
761.947 21.917 20.147 18.207 16.247 14.587 13.377 12.807 12.507 12.087 11.587
781.236 11.167 11.097 11.117 10.547 10.087 9.877 9.677 9.787 9.877 9.827
800.526 9.867 10.097 9.797 9.397 9.947 9.847 9.327 8.937 9.237 9.937
819.816 10.247 10.137 9.977 9.947 9.947 10.057 8.937 8.277 8.587 8.057
839.106 6.987 6.717 6.357 5.557 5.597 5.517 5.407 5.907 6.407 6.877
858.395 8.167 10.127 12.427 15.617 18.837 20.907 22.737 24.657 26.147 28.157
877.685 31.837 37.897 44.787 51.077 58.707 62.287 52.647 40.277 32.667 25.717
896.975 19.397 14.637 12.217 10.617 9.367 8.647 7.987 6.987 6.467 6.597
916.265 6.627 6.507 6.297 6.427 6.597 6.337 6.097 6.317 6.327 6.047
935.555 5.847 5.667 5.697 5.757 5.837 5.847 5.527 5.307 5.457 5.687
954.844 5.567 5.417 5.277 5.277 5.317 5.047 4.747 4.887 5.237 5.337
974.134 5.627 5.447 5.427 5.727 5.627 5.187 5.027 5.257 5.157 5.347
993.424 5.717 6.027 6.277 5.997 5.847 5.817 6.407 6.257 5.647 5.917
1012.714 5.507 5.297 5.587 5.607 5.927 5.817 5.537 5.987 6.317 6.567
1032.003 6.387 6.777 7.117 7.927 8.527 8.657 9.237 10.587 12.127 12.987
1051.293 13.497 14.047 14.757 16.207 18.297 19.077 19.277 19.797 21.497 22.747
1070.583 23.077 22.867 21.997 21.337 21.127 20.707 20.977 23.027 27.167 34.787
1089.873 44.587 59.017 74.897 86.127 91.917 90.647 81.167 64.967 48.697 38.317
1109.163 34.907 33.287 31.377 28.837 28.417 31.467 33.877 38.467 47.487 58.937
1128.452 75.897 99.397 128.647 164.297 207.817 257.267 305.867 348.427 368.767 354.337
1147.742 307.517 243.327 183.557 134.817 98.017 78.617 74.047 80.757 98.397 124.467
1167.032 158.267 198.237 237.967 267.497 276.457 262.407 229.657 184.647 136.197 94.247
1186.322 63.887 44.927 34.837 28.397 24.707 22.217 19.217 18.347 18.857 19.727
1205.611 20.607 20.337 20.877 20.507 19.967 18.767 16.097 14.137 13.217 12.807
1224.901 12.437 13.267 14.667 17.727 20.837 22.997 25.927 27.577 27.107 25.877
1244.191 23.947 20.517 17.287 15.577 15.197 15.907 17.297 18.467 20.337 24.627
1263.481 30.927 39.527 52.207 71.377 99.337 134.997 173.867 209.247 232.697 240.207
1282.771 230.127 204.957 172.247 141.757 120.217 107.607 101.787 100.827 102.647 106.037
1302.060 110.707 116.987 126.227 140.927 164.697 201.757 255.677 326.207 407.287 486.457
1321.350 546.117 570.807 552.817 493.477 403.327 303.637 216.947 155.237 116.277 91.217
1340.640 73.667 60.137 49.067 40.637 34.967 31.097 28.007 25.227 22.477 19.767
1359.930 17.267 15.377 14.197 13.357 12.857 12.707 12.637 12.287 11.737 11.197
1379.219 10.777 10.627 10.477 10.577 11.177 12.337 13.907 16.307 20.077 25.287
1398.509 32.647 42.077 52.417 61.507 66.467 65.887 60.507 51.397 39.527 28.257
1417.799 20.597 16.337 13.917 12.397 11.167 9.867 8.647 7.497 6.587 6.027
1437.089 5.467 5.217 5.217 5.107 5.127 5.167 5.397 5.787 6.017 6.057
1456.378 6.077 6.097 6.027 6.057 6.187 6.637 7.267 8.257 10.017 12.197
1475.668 14.977 18.417 21.517 23.897 25.257 25.367 23.707 20.457 16.777 12.937
1494.958 9.697 7.357 5.677 4.557 3.947 3.737 3.677 3.567 3.697 3.977
1514.248 4.087 4.407 4.627 4.767 5.177 5.757 6.307 6.797 7.597 8.317
1533.538 8.907 9.357 9.637 9.947 9.827 9.867 10.397 11.327 12.847 14.457
1552.827 15.817 16.887 17.337 16.957 15.757 14.817 13.757 12.807 12.607 12.817
1572.117 13.307 13.827 14.847 15.967 16.527 17.027 17.887 18.727 19.547 20.607
1591.407 21.637 23.267 25.337 27.447 29.867 32.607 36.217 41.237 48.257 57.997
1610.697 70.457 86.007 103.717 122.507 139.807 151.337 154.897 149.317 135.107 114.587
1629.986 91.577 70.277 53.567 41.737 33.447 27.577 23.397 20.347 17.917 15.627
1649.276 13.777 12.287 10.757 9.457 8.437 7.747 7.037 6.387 6.037 5.667
1668.566 5.257 4.887 4.517 3.937 3.507 3.417 3.247 3.087 3.127 2.967
1687.856 2.847 2.887 2.777 2.797 2.747 2.887 2.967 3.077 3.207 3.207
1707.146 3.367 3.147 2.837 2.737 2.647 2.547 2.397 2.297 2.077 1.907
1726.435 2.017 1.917 1.827 1.897 1.857 1.967 2.117 2.047 2.077 2.217
1745.725 2.327 2.507 2.637 2.707 3.007 3.487 4.107 4.857 5.627 6.547
1765.015 7.597 8.637 9.677 10.567 10.877 10.667 9.767 8.547 7.537 6.357
1784.305 5.317 4.517 3.917 3.487 3.247 2.987 2.587 2.427 2.297 2.247
1803.594 2.167 2.107 2.167 2.137 1.987 1.727 1.6391 1.837 2.037 1.777
1822.884 1.5531 1.767 1.767 1.727 1.6234 1.6417 1.6937 1.3676 1.2992 1.2919
1842.174 1.2122 1.35 1.3995 1.3352 1.3231 1.4221 1.4445 1.3303 1.3627 1.4002
1861.464 1.4825 1.534 1.5338 1.5654 1.4382 1.4305 1.3313 1.2248 1.3477 1.2961
1880.754 1.1641 1.0944 1.0395 0.9957 1.0264 1.022 1.061 1.2006 1.0509 1.023
1900.043 1.2478 1.363 1.3377 1.2402 1.3086 1.3893 1.3769 1.4311 1.3845 1.3087
1919.333 1.4599 1.4363 1.3041 1.3342 1.3091 1.3152 1.2399 1.2626 1.525 1.5536
1938.623 1.4086 1.3269 1.3834 1.3261 1.2782 1.3536 1.3297 1.2945 1.2086 1.2465
1957.913 1.2438 1.0432 1.0945 1.1422 1.0315 0.9429 1.0152 1.0484 0.9166 1.0116
1977.202 1.0586 1.033 1.0296 1.0329 1.0141 1.0098 1.039 0.9892 1.0946 1.1516
1996.492 1.0795 1.1748 1.2531 1.301 1.2148 1.1215 1.1087 1.1142 1.1816 1.1735
2015.782 1.275 1.3383 1.2654 1.2685 1.3182 1.3236 1.4531 1.4532 1.5175 1.6726
2035.072 1.5587 1.5559 1.807 1.847 1.6619 1.5304 1.523 1.6534 1.6085 1.4765
2054.362 1.3964 1.4315 1.4479 1.2254 0.9888 1.0357 1.2472 1.334 1.2029 1.02
2073.651 1.0447 0.9153 0.8626 0.8844 0.9473 1.0946 1.1125 1.1709 1.2658 1.2735
2092.941 1.0915 1.0666 1.2483 1.4854 1.5263 1.2694 1.0946 1.3378 1.4314 1.2914
2112.231 1.4512 1.5144 1.4986 1.4359 1.593 1.807 1.817 1.787 1.6437 1.6302
2131.521 1.6927 1.867 2.117 2.087 1.857 1.707 1.707 1.6357 1.5135 1.3225
2150.810 1.3055 1.4408 1.4324 1.5514 1.6283 1.45 1.3344 1.3504 1.459 1.4759
2170.100 1.2808 1.5013 1.6044 1.4554 1.5816 1.827 1.997 1.997 2.087 2.077
2189.390 1.907 1.897 1.977 2.027 1.907 1.6499 1.5519 1.5415 1.3574 1.413
2208.680 1.5918 1.4042 1.3613 1.4355 1.3338 1.4664 1.5595 1.5506 1.5954 1.6576
2227.970 1.6698 1.5872 1.5726 1.757 2.067 2.077 2.017 2.057 1.967 1.767
2247.259 1.877 2.007 1.947 1.867 1.737 1.767 1.897 1.987 1.977 2.077
2266.549 1.997 1.897 2.247 2.407 2.277 2.137 2.207 2.137 1.917 1.777
2285.839 1.6835 1.6692 1.6885 1.797 1.717 1.6804 1.737 1.847 1.707 1.5546
2305.129 1.6321 1.5442 1.6264 1.797 1.727 1.6865 1.666 1.727 1.747 1.767
2324.418 1.767 1.737 1.837 1.737 1.6563 1.747 1.707 1.737 1.917 1.857
2343.708 1.797 1.987 1.837 1.6406 1.697 1.837 1.827 1.717 1.887 1.6209
2362.998 1.4287 1.5839 1.4495 1.4194 1.4759 1.4691 1.5688 1.4278 1.1893 1.1347
2382.288 1.0129 1.0808 1.2121 1.0303 0.9595 1.1107 1.1019 0.9617 0.8613 0.8723
2401.578 0.78307 0.68733 0.804 0.78246 0.9324 1.2438 1.2931 1.149 1.009 1.0456
2420.867 1.1345 0.9157 0.8073 1.0228 1.0245 1.0115 1.1622 1.0174 0.9098 1.1138
2440.157 1.0713 0.8923 1.192 1.383 1.0966 1.0056 0.8903 0.74651 0.8724 0.935
2459.447 0.9841 1.2457 1.2509 1.2822 1.2741 1.0446 0.9543 0.9192 1.0515 1.2011
2478.737 1.2171 1.1317 1.1693 1.261 1.3816 1.3894 1.3412 1.2932 1.322 1.4411
2498.026 1.3757 1.4378 1.469 1.231 1.0554 1.0611 1.3675 1.573 1.4667 1.443
2517.316 1.3019 1.2432 1.4665 1.4921 1.5093 1.4367 1.3331 1.487 1.5705 1.6168
2536.606 1.6426 1.907 2.287 2.387 2.167 2.047 2.257 2.267 2.057 1.987
2555.896 1.947 1.997 1.937 1.6108 1.4956 1.5139 1.4923 1.3174 1.1697 1.1756
2575.186 1.1701 1.1069 1.1209 1.355 1.3989 1.293 1.2419 1.1948 1.3785 1.5234
2594.475 1.6368 1.767 1.957 1.927 1.877 2.327 2.667 2.637 2.377 2.377
2613.765 2.587 2.437 2.047 2.117 2.297 2.257 2.177 2.237 2.317 1.947
2633.055 1.817 1.977 2.087 2.377 2.287 2.207 2.127 1.857 1.6122 1.6103
2652.345 1.707 1.6008 1.4733 1.1873 1.2339 1.3473 0.9906 0.8589 0.9301 0.8834
2671.634 0.76902 0.6109 0.779 1.1005 0.8705 0.458 0.465 0.68883 0.6461 0.509
2690.924 0.6387 0.73768 0.74103 0.59 0.445 0.455 0.562 0.5978 0.53 0.382
2710.214 0.525 0.9757 0.8636 0.6446 0.74066 0.74909 0.79197 0.75293 0.52 0.459
2729.504 0.587 0.74194 0.402 0.114 0.313 0.469 0.543 0.516 0.422 0.474
2748.794 0.9125 1.0658 0.9639 0.8454 0.8746 1.216 1.2802 1.074 1.0598 0.9998
2768.083 0.9071 0.7439 0.566 0.6563 0.8587 0.9228 0.871 0.8803 0.9253 1.1427
2787.373 1.2246 0.9959 0.8648 0.8457 0.8005 0.77226 0.561 0.407 0.543 0.6062
2806.663 0.72361 0.8201 0.436 0.119 0.23 0.477 0.8375 1.2644 1.1924 0.6248
2825.953 0.6098 0.7976 0.76899 0.576 0.6779 1.0377 1.0908 0.849 0.594 0.559
2845.242 0.6502 0.79265 0.9453 1.0002 0.9363 0.9466 1.0571 1.3211 1.1092 1.2045
2864.532 1.444 1.0985 0.9666 1.0999 0.9611 0.8949 0.7859 0.559 0.76041 1.0337
2883.822 0.8887 0.9657 1.2308 1.1878 0.9526 0.8012 1.2196 1.5117 1.4999 1.3051
2903.112 1.162 1.1815 1.0797 1.1826 1.5029 1.5043 1.3302 1.2221 1.4078 1.5272
2922.401 1.5438 1.5667 1.3788 1.707 1.947 1.757 1.847 1.837 1.817 1.777
2941.691 1.767 1.727 1.63 1.5811 1.5536 1.5381 1.2807 1.0798 1.0134 1.2455
2960.981 1.3425 1.2093 1.2292 1.0074 0.6394 0.6183 0.9434 0.9398 0.71827 0.9729
2980.271 1.2396 0.9919 0.6381 0.6531 0.6555 0.432 0.6311 0.8755 0.6898 0.319
2999.561 0.343 0.8519 0.9674 0.554 0.432 0.563 0.427 0.351 0.696797 0.8909
3018.850 0.451 0.505 0.71324 0.58 0.544 0.76899 0.9308 0.8256 0.6842 0.6046
3038.140 0.75783 0.9019 0.8984 1.1301 1.2967 1.1499 1.0839 1.0629 0.9763 0.73485
3057.430 0.76422 0.9668 0.8862 0.6259 0.6626 1.087 1.4819 1.0924 0.75719 0.998
3076.720 1.2697 1.4813 1.3902 1.5844 1.727 1.4389 1.5626 1.747 1.5067 1.4905
3096.009 1.6041 1.697 1.3978 1.0191 1.5449 2.067 2.437 2.567 2.547 2.377
3115.299 2.107 1.947 1.4135 1.737 1.987 1.6952 1.4491 1.2496 1.0099 0.9685
3134.589 1.0029 0.82 0.8768 0.8577 0.9403 1.2634 0.9747 0.73239 0.9501 0.9871
3153.879 0.967 0.9294 0.8186 0.704213 0.79413 0.8358 0.7411 0.724 1.0094 1.1999
3173.169 0.9983 0.901 1.309 1.6416 1.907 1.4581 1.0197 1.4616 1.5785 1.4842
3192.458 1.857 1.947 1.707 1.6748 1.5985 1.707 1.5487 0.9529 0.569 0.8234
3211.748 0.9888 0.6616 0.6725 0.8515 0.8954 0.8414 0.8564 1.1996 1.3252 1.0302
3231.038 0.8109 1.116 1.5437 1.1444 0.71269 1.0098 1.0581 0.78746 0.429 0.6045
3250.328 0.78907 0.6155 0.6733 0.352 0.254 0.6212 0.77379 0.6781 0.8164 1.0418
3269.617 0.8177 0.472 0.552 0.6022 0.8322 0.638 0.168 0.489 0.69383 0.515
3288.907 0.473 0.271 0.427 0.341 0 0.329 0.541 0.6267 0.8722 0.9238
3308.197 0.9955 1.0113 1.1319 1.1681 0.9896 1.0594 0.9306 1.0327 0.8021 0.504
3327.487 0.7309 1.1683 1.2806 0.8465 0.75701 0.6612 0.542 0.9647 1.3273 1.079
3346.777 1.1355 1.3339 1.1969 1.0178 1.0718 1.2654 1.3376 1.817 1.997 1.857
3366.066 2.077 2.277 2.317 2.447 2.867 3.617 4.177 5.097 5.937 6.687
3385.356 8.357 10.077 11.727 13.337 15.157 17.157 19.307 21.127 22.207 23.087
3404.646 23.147 23.087 22.917 22.557 22.607 23.077 23.977 24.967 25.917 26.327
3423.936 25.607 23.457 20.327 16.687 12.987 9.237 6.757 5.187 3.937 3.487
3443.225 3.297 3.587 3.787 3.687 3.367 2.987 3.427 3.857 3.907 3.797
3462.515 4.237 4.947 5.147 5.767 6.597 7.317 8.427 9.577 10.497 11.787
3481.805 12.997 13.587 14.567 16.267 17.847 19.297 21.127 23.237 24.837 25.857
3501.095 26.307 26.147 25.447 24.067 22.197 21.497 21.317 21.077 21.867 23.127
3520.385 24.117 25.527 27.447 28.737 29.337 28.027 25.367 21.957 17.517 13.017
3539.674 9.417 6.907 4.697 3.417 3.197 2.707 2.147 2.367 2.257 1.707
3558.964 1.727 1.586 1.3685 1.1264 0.9933 1.547 1.205 0.71596 0.702676 0.8281
3578.254 0.79569 0.74476 1.2861 1.1358 0.9851 1.4701 1.4842 1.1796 1.0213 1.5178
3597.544 1.747 1.3688 1.3582 1.0976 0.68865 0.8857 0.919 0.72183 0.557 0.73879
3616.833 1.1648 1.0283 0.7984 1.1585 1.0486 0.517 0.9907 1.4548 0.94 0.557
3636.123 0.9534 0.9597 0.73566 0.596 0.579 0.6322 0.337 0.502 0.461 0.386
3655.413 0.8857 0.76399 0.5 0.227 0.17 0.501 0.697739 0.8896 1.0281 1.2458
3674.703 1.1052 0.459 0.33 0.7977 0.77299 0.73659 0.8875 1.0551 1.2684 1.0394
3693.993 0.76008 0.74745 0.6514 0.543 0.6803 0.696686 0.479 0.557 0.8127 0.69225
3713.282 0.595 0.389 0.145 0.415 0.6558 0.78091 0.6685 0.618 0.7618 0.9942
3732.572 0.6481 0.075 0.218 0.521 1.0156 1.22 0.79023 0.672 0.78882 0.6533
3751.862 0.552 0.818 1.0808 0.507 0.287 0.73518 0.6388 0.392 0.488 0.516
3771.152 0.32 0.228 0.021 0.265 0.8217 0.8301 0.594 0.884 1.261 0.9684
3790.441 0.547 0.68866 1.0687 0.8455 0.37 0.556 0.78534 0.585 0.561 0.6021
3809.731 0.75882 0.78048 1.1666 1.2883 0.8614 0.6748 0.814 1.0232 1.298 1.2297
3829.021 0.74626 0.8191 0.8404 0.242 0.265 0.8416 1.2636 1.3239 0.76122 0.391
3848.311 0.6256 0.76009 0.489 0.418 0.59 1.1562 1.2998 1.1827 1.5492 1.5369
3867.601 1.4141 1.1252 0.9895 1.2546 1.3303 1.6927 1.847 1.6358 1.5268 1.4754
3886.890 1.5036 1.4384 1.4397 1.717 1.737 1.5106 1.4922 1.6413 1.837 1.757
3906.180 1.817 2.047 1.997 1.997 1.737 1.41 1.1838 1.2261 1.3701 1.1351
3925.470 1.2925 1.5737 1.3324 1.6403 1.907 1.827 1.837 1.6607 1.5409 1.1491
3944.760 1.1525 1.0948 1.2233 1.6486 1.3083 1.2687 1.5853 1.2198 0.73628 0.9169
3964.049 1.1325 1.0677 0.8212 0.7426 1.0694 0.7588 0.6628 1.3102 1.2223 0.8769
3983.339 1.153 1.6286 1.757 1.5021 1.3288 1.4656 1.4954 1.1993 0.8683 0.6327
##END=
