##TITLE=6-Methyl-1,5-heptadiene
##JCAMP-DX=4.24
##DATA TYPE=INFRARED SPECTRUM
##ORIGIN=NIST Mass Spectrometry Data Center
##OWNER=NIST Standard Reference Data Program
Collection (C) 2018 copyright by the U.S. Secretary of Commerce
on behalf of the United States of America. All rights reserved.
##CAS REGISTRY NO=7270-50-0
##MOLFORM=C 8 H 14
##$NIST SOURCE=MSDC-IR
##SPECTROMETER/DATA SYSTEM=HP-GC/MS/IRD
##STATE=gas
##XUNITS=1/CM
##YUNITS=ABSORBANCE
##XFACTOR=1.0
##YFACTOR=0.000001500
##DELTAX=4.0
##FIRSTX=550.0
##LASTX=3846.0
##FIRSTY=0.000713
##MAXX=3846
##MINX=550
##MAXY=0.015
##MINY=0
##NPOINTS=825
##XYDATA=(X++(Y..Y))
550.0 475 268 178 192 131 170 179 182 123 104
590.0 175 186 155 162 182 222 252 268 388 513
630.0 585 579 556 519 422 392 399 322 212 150
670.0 100 78 88 78 119 172 120 90 111 77
710.0 65 60 50 31 21 71 122 145 175 239
750.0 260 263 260 254 239 210 185 183 233 287
790.0 317 344 412 467 568 721 816 928 1023 1025
830.0 990 910 810 768 730 678 644 624 612 601
870.0 621 671 748 831 979 1167 1378 1759 2275 2750
910.0 3070 3162 3032 2704 2196 1740 1420 1211 1061 974
950.0 942 914 899 929 985 1083 1210 1346 1483 1577
990.0 1596 1594 1537 1383 1204 1036 925 799 680 624
1030.0 564 501 447 448 415 367 362 351 340 345
1070.0 392 445 508 575 631 665 675 685 726 757
1110.0 733 703 672 598 515 424 329 243 191 204
1150.0 192 169 186 192 157 172 211 239 259 248
1190.0 227 225 241 250 263 286 322 329 331 345
1230.0 340 342 356 355 346 335 319 311 288 255
1270.0 226 231 247 265 275 283 330 385 446 488
1310.0 518 560 583 577 551 507 462 445 457 474
1350.0 507 574 670 795 928 1069 1228 1356 1409 1392
1390.0 1303 1182 1062 941 868 867 924 1007 1110 1239
1430.0 1392 1580 1748 1865 1928 1903 1797 1616 1424 1228
1470.0 1063 926 787 672 586 519 458 404 371 358
1510.0 327 308 314 316 297 297 320 332 339 333
1550.0 332 333 325 306 284 280 277 253 257 294
1590.0 276 263 287 321 366 409 477 584 730 943
1630.0 1190 1436 1574 1555 1445 1197 880 668 558 486
1670.0 426 372 322 278 218 185 160 158 158 121
1710.0 114 113 94 81 89 102 89 66 68 71
1750.0 66 63 65 73 83 88 83 80 76 80
1790.0 84 101 112 113 140 177 229 285 341 393
1830.0 405 387 332 258 199 161 139 128 110 90
1870.0 78 67 66 69 64 58 64 63 58 56
1910.0 54 53 66 69 54 45 56 66 64 63
1950.0 58 57 64 90 113 102 81 86 96 75
1990.0 69 59 48 57 50 46 46 44 43 48
2030.0 61 44 29 28 27 42 53 52 47 43
2070.0 25 24 39 45 49 63 61 55 45 33
2110.0 34 39 38 36 56 57 38 34 39 34
2150.0 37 46 42 47 52 40 35 32 29 28
2190.0 18 27 42 42 41 34 29 32 20 17
2230.0 35 44 48 48 58 69 59 45 60 56
2270.0 36 37 45 60 53 34 40 55 52 43
2310.0 51 67 60 53 54 55 66 70 57 41
2350.0 36 50 64 72 76 72 68 50 46 47
2390.0 43 55 63 62 63 71 65 68 70 62
2430.0 56 54 64 69 77 71 67 73 65 55
2470.0 65 77 80 65 66 70 69 59 46 56
2510.0 65 72 75 74 79 80 75 75 54 61
2550.0 93 95 71 64 70 63 60 67 67 59
2590.0 66 72 66 68 80 87 87 87 89 103
2630.0 108 88 73 66 58 79 104 81 71 80
2670.0 104 112 92 82 85 99 119 142 146 154
2710.0 172 183 203 216 262 318 350 364 374 384
2750.0 373 349 319 311 308 315 311 325 349 360
2790.0 386 421 462 524 597 660 719 828 961 1087
2830.0 1275 1519 1819 2193 2587 3044 3560 4025 4433 4746
2870.0 4942 4965 4920 4895 4945 5111 5394 5776 6276 6914
2910.0 7642 8441 9201 9762 10000 9844 9321 8545 7685 6936
2950.0 6375 5968 5765 5759 5873 5995 6059 6111 6052 5803
2990.0 5441 5072 4681 4272 3868 3515 3151 2750 2442 2207
3030.0 2029 1920 1844 1763 1674 1635 1664 1690 1728 1811
3070.0 1963 2181 2447 2601 2518 2341 2021 1567 1161 894
3110.0 729 605 516 474 405 363 337 290 272 244
3150.0 215 193 199 196 171 140 118 124 142 140
3190.0 115 115 108 69 52 83 106 76 65 51
3230.0 22 44 78 55 49 48 26 23 28 38
3270.0 2 0 63 86 70 59 52 86 76 39
3310.0 66 59 48 63 83 80 59 69 58 56
3350.0 62 64 70 73 48 40 68 61 50 59
3390.0 84 97 87 71 50 57 42 59 72 65
3430.0 50 55 59 43 53 38 20 27 52 47
3470.0 64 76 72 75 45 43 80 83 57 63
3510.0 88 88 88 64 52 71 59 45 54 44
3550.0 36 60 59 49 34 36 46 54 61 41
3590.0 26 16 25 34 31 51 40 22 39 65
3630.0 77 61 29 18 52 46 41 65 55 86
3670.0 86 57 55 64 75 75 67 75 60 27
3710.0 53 69 19 9 54 73 76 101 96 62
3750.0 74 78 57 69 96 105 83 66 80 86
3790.0 88 127 116 69 75 93 90 71 56 61
3830.0 53 66 66 29 30
##END=
