##TITLE=2-Piperidinobenzonitrile
##JCAMP-DX=4.24
##DATA TYPE=INFRARED SPECTRUM
##ORIGIN=EPA-IR VAPOR PHASE LIBRARY
##OWNER=SRD/NIST
Collection (C) 2018 copyright by the U.S. Secretary of Commerce
on behalf of the United States of America. All rights reserved.
##CAS REGISTRY NO=72752-52-4
##MOLFORM=C 12 H 14 N 2
##$NIST SOURCE=MSDC-IR
##STATE=gas
##XUNITS=1/CM
##YUNITS=ABSORBANCE
##XFACTOR=1.
##YFACTOR=0.001
##DELTAX=1.92898
##FIRSTX=549.8
##LASTX=4000.7
##FIRSTY=2.79
##MAXX=4000.7
##MINX=549.759
##MAXY=0.25371
##MINY=0
##NPOINTS=1790
##XYDATA=(X++(Y..Y))
549.759 2.79 2.94 2.28 2.52 3.74 4.03 3.63 3.74 3.54 3.42
569.049 3.08 2.68 2.61 2.06 2.37 2.31 1.65 1.95 2.24 1.9
588.339 2.27 2.25 1.3879 1.4788 1.59 1.2855 1.1343 1.2835 1.4487 1.1483
607.628 1.0381 1.4922 1.6 1.72 1.94 1.92 1.74 1.4669 1.2667 0.8327
626.918 0.59476 0.9733 1.159 1.32 1.85 1.74 1.4445 1.141 1.1037 1.1657
646.208 1.0234 1.3815 1.66 1.68 1.81 1.55 1.2455 1.3956 1.5187 1.54
665.498 1.2797 0.9932 1.1183 1.2601 1.3916 1.4422 1.75 1.67 1.397 1.88
684.787 2.03 2.41 2.92 2.92 3 3.4 3.71 3.83 4.41 5.04
704.077 5.14 5.34 5.59 5.29 4.66 4.4 4.47 4.72 4.93 5.27
723.367 6 7.08 8.96 11.42 14.17 17.83 22.44 28.49 36.73 46.41
742.657 55.37 62.63 70.23 78.24 86.84 94.43 95.58 86.91 73.3 61.54
761.947 52.2 43.02 33.44 25.01 18.81 14.14 10.67 8.7 7.28 6.65
781.236 5.6 4.48 4.34 4.36 4.23 4.03 3.77 3.68 3.84 3.91
800.526 3.67 3.77 3.77 3.52 3.47 3.48 3.48 3.29 3.59 4.02
819.816 4.16 3.73 3.44 3.85 4.25 4.2 4.56 4.82 5.14 5.24
839.106 5.09 5.49 5.95 6.7 7.7 9.15 10.27 11.81 14.24 15.64
858.395 15.9 15.85 14.72 12.95 11.69 9.4 7.23 6.03 5.07 4.62
877.685 4.62 4.26 3.88 4.05 4.38 4.67 4.66 4.46 4.86 6.02
896.975 7.32 8.11 8.75 9.88 11.07 12.59 14.55 16.86 20.71 26.13
916.265 32.37 39.25 44.99 48.83 50.93 50.61 47.41 41.97 35.27 27.75
935.555 21.61 17.16 14.12 12.69 11.44 10.26 9.49 9.24 8.9 8.04
954.844 7.55 7.23 6.62 6.38 6.4 6.15 5.68 5.22 4.76 4.57
974.134 4.46 4.29 4.57 4.36 3.7 3.38 3.36 3.79 3.54 3.31
993.424 3.66 4.14 4.69 5.4 5.9 5.78 6.15 7.75 9.34 10.46
1012.714 12.4 15.18 17.86 20.75 23.46 25.66 26.71 26.73 26.69 25.89
1032.003 25.4 24.47 24.7 25.72 26.61 28.04 28.47 27.21 25.11 22.71
1051.293 20.63 17.95 14.45 12.8 10.84 9.33 9.59 9.47 9.08 9.3
1070.583 8.68 7.91 8.59 8.26 7.79 8.01 8.62 10.3 10.56 11.55
1089.873 13.17 14.37 16.61 18.93 20.29 20.99 21.08 19.92 19.82 20.2
1109.163 20.23 21.58 23.15 23.21 25.14 27.35 28.49 29.74 29.76 29.89
1128.452 31.03 31.57 31.1 29.7 27.66 26.45 23.24 18.51 15.56 14.02
1147.742 14.36 15.03 16.05 19.03 21.9 24.37 26.75 26.99 26.22 25.22
1167.032 23.21 20.56 17.58 15.06 13.15 12.35 12.88 11.66 10.14 10.78
1186.322 10.68 10.59 11.59 12.53 12.54 12.08 13.12 15.66 17.7 19.83
1205.611 23.56 26.02 28.76 34.48 40.57 46.37 52.09 59.03 68.55 79.79
1224.901 91.23 103.62 117.15 127.03 132.09 131.99 126.39 116.41 101.94 84.6
1244.191 66.72 50.08 37.56 30.94 27.7 25.12 23.62 22.92 22.73 22.74
1263.481 23.31 24.35 25.28 27.61 30.46 33.18 35.71 37.87 38.86 38.79
1282.771 37.9 35.75 33.06 29.61 25.57 21.77 18.71 16.15 13.95 12.15
1302.060 11.05 10.45 9.78 9.44 9.3 9.42 9.75 10.12 10.73 11.2
1321.350 11.92 12.96 13.89 15.16 17.04 19.32 21.92 25.04 28.23 30.99
1340.640 33.2 34.65 35.36 35.09 33.86 32.01 29.93 28.33 27.3 26.96
1359.930 27.5 28.56 30.21 32.54 35.77 39.97 44.96 50.56 56.16 60.7
1379.219 63.16 63.39 61.82 58.49 53.16 46.63 39.77 33.3 28.14 24.4
1398.509 21.51 19.18 17.5 16.33 15.63 15.29 15.17 15.2 15.22 15.2
1417.799 15.36 15.65 16.09 16.63 17.55 19.13 21.79 26.02 32.34 40.92
1437.089 52.73 66.82 81.98 96.79 109.34 118.35 123.4 124.12 119.41 109.14
1456.378 95.53 81.96 71.7 65.14 60.64 57.41 56.36 58.14 63 70.85
1475.668 81.34 94.56 109.95 126.29 141.19 152.37 158.08 157.46 149.82 136.59
1494.958 119.4 99.92 81.17 65.34 53.04 44.11 37.5 32.7 29.58 26.81
1514.248 24.62 22.95 21.63 20.6 19.37 18.43 17.71 16.92 16.16 15.67
1533.538 15.1 14.52 14.24 13.92 13.54 13.35 13.56 14.04 14.52 15.25
1552.827 16.69 18.21 19.99 22.08 23.83 25.49 27.12 28.28 28.53 28.52
1572.117 28.48 28.49 28.69 29.71 32.4 37.26 44.25 53.52 64.4 74.69
1591.407 82.75 87.26 87.76 84.51 77.8 68.26 56.6 44.46 34.08 26.37
1610.697 21.31 18.05 15.71 14.19 13.08 12.12 11.56 11.21 10.84 10.37
1629.986 9.85 9.28 9.02 8.56 7.98 7.6 7.24 7.12 6.84 6.36
1649.276 5.87 5.53 5.4 4.98 4.34 4.18 4.17 3.7 3.54 3.48
1668.566 3.32 3.2 2.99 3.16 3.45 3.56 3.64 3.71 3.96 4.09
1687.856 4.21 4.27 4.28 4.55 4.42 4.27 4.13 3.9 3.84 3.71
1707.146 3.44 3.31 3.3 3.27 3.3 3.2 2.92 2.72 2.75 2.75
1726.435 2.67 2.55 2.32 2.39 2.56 2.46 2.27 2.25 2.35 2.3
1745.725 2.37 2.24 2.03 2.02 1.99 2.05 1.97 1.93 1.99 2.23
1765.015 2.38 2.23 2.23 2.35 2.41 2.38 2.46 2.6 2.69 2.76
1784.305 2.89 3.11 3.33 3.52 3.51 3.45 3.41 3.29 3.29 3.15
1803.594 2.96 2.78 2.65 2.56 2.49 2.52 2.59 2.66 2.81 2.93
1822.884 3.09 3.21 3.11 3.03 2.81 2.57 2.34 2.12 2.03 2.01
1842.174 2.07 2.02 2 1.98 1.85 2.04 2.19 1.99 1.99 2.16
1861.464 2 1.95 2.3 2.49 2.59 2.8 3.13 3.58 3.61 3.42
1880.754 3.42 3.39 3.29 3.13 2.88 2.72 2.78 2.71 2.66 2.88
1900.043 3.32 3.77 4.04 4.34 4.6 4.66 4.71 4.7 4.58 4.36
1919.333 4.08 3.76 3.46 3.4 3.43 3.5 3.78 4.12 4.38 4.59
1938.623 4.85 5.03 5.02 4.89 4.73 4.4 3.89 3.27 2.77 2.52
1957.913 2.34 2.13 2.02 1.83 1.66 1.73 1.79 1.69 1.55 1.6
1977.202 1.7 1.72 1.53 1.4919 1.4844 1.4656 1.4694 1.4801 1.73 1.76
1996.492 1.77 1.75 1.84 1.81 1.61 1.55 1.58 1.66 1.55 1.54
2015.782 1.68 1.7 1.62 1.58 1.63 1.76 1.63 1.4126 1.61 1.75
2035.072 1.69 1.69 1.7 1.65 1.7 1.82 1.88 1.76 1.64 1.83
2054.362 1.87 1.84 1.87 1.77 1.71 1.71 1.6 1.6 1.68 1.58
2073.651 1.3709 1.2872 1.6 1.67 1.4375 1.58 1.72 1.57 1.4764 1.3707
2092.941 1.2544 1.3063 1.3417 1.3064 1.3621 1.4363 1.4559 1.61 1.56 1.4589
2112.231 1.53 1.5024 1.61 1.64 1.56 1.63 1.56 1.3931 1.4893 1.4601
2131.521 1.4887 1.64 1.68 1.73 1.6 1.54 1.61 1.75 1.83 1.86
2150.810 1.92 2.09 2.11 2.11 2.17 2.16 2.19 2.11 2.33 2.53
2170.100 2.51 2.7 2.94 2.99 2.98 3.12 3.04 3.04 3.26 3.33
2189.390 3.39 3.45 3.43 3.56 3.73 3.92 4.41 5.01 5.76 6.93
2208.680 8.43 10.2 12.3 14.82 17.56 20.01 21.9 23.1 23.64 23.5
2227.970 22.28 20.2 17.42 14.25 11.45 9.13 6.99 5.31 4.29 3.63
2247.259 3.23 3.01 2.83 2.61 2.31 2.25 2.31 2.37 2.51 2.51
2266.549 2.44 2.5 2.42 2.32 2.34 2.3 2.53 2.44 2.21 2.13
2285.839 2.05 2.17 2.2 2.19 2.19 2.22 2.09 1.84 1.8 2.09
2305.129 2.36 2.1 1.86 1.77 1.73 1.81 1.9 1.98 2.1 2.17
2324.418 2.11 2.25 2.24 2.16 2.3 2.28 2.29 2.23 1.98 1.77
2343.708 1.69 1.73 1.72 1.57 1.68 1.87 1.74 1.76 2.03 2.01
2362.998 1.73 1.74 1.88 1.92 1.91 1.95 2.07 2.28 2.28 2.1
2382.288 1.98 2.11 2.29 2.05 2.08 2.3 2.33 2.48 2.47 2.33
2401.578 2.35 2.35 2.2 2.02 1.84 1.98 2.1 1.96 1.92 1.88
2420.867 1.95 1.85 1.71 1.76 1.76 1.82 1.76 1.64 1.84 2.11
2440.157 2.08 1.93 1.77 1.73 1.91 2.01 2.11 2.2 2.2 2.15
2459.447 2.21 2.18 2.23 2.47 2.6 2.75 2.9 2.78 2.6 2.59
2478.737 2.5 2.43 2.54 2.52 2.21 2.29 2.33 2.26 2.49 2.55
2498.026 2.63 2.48 2.32 2.6 2.85 2.89 2.84 2.64 2.65 2.63
2517.316 2.41 2.53 2.72 2.78 2.66 2.26 2.17 2.18 2.2 2.2
2536.606 2.13 2.11 2.16 2.24 2.46 2.7 2.72 2.5 2.35 2.6
2555.896 2.64 2.67 2.78 2.91 3.14 3.17 3.22 3.76 4.18 3.96
2575.186 3.71 3.63 3.78 3.98 3.93 4.09 4.15 4 3.95 4.02
2594.475 4.13 4.12 4.01 4 3.97 3.91 3.96 4.08 4 4.13
2613.765 4.17 3.85 4.06 4.27 4.13 4.02 3.96 4.24 4.3 4.12
2633.055 4.22 4.24 4.27 4.6 4.8 4.73 4.84 5.1 5.25 5.53
2652.345 5.76 5.87 5.99 6.13 6.35 6.68 6.95 7.09 7.45 7.89
2671.634 8.27 8.61 9.04 9.21 9.39 9.71 9.76 9.74 9.66 9.96
2690.924 10.64 10.77 10.82 11.15 11.21 11.4 11.57 11.41 11.22 10.84
2710.214 10.42 10.05 9.77 9.65 9.62 9.64 9.88 9.6 9.38 9.77
2729.504 9.94 10.31 10.76 11.39 12.12 12.46 13.26 13.8 14 14.64
2748.794 15.03 15 14.72 14.32 13.68 13.33 13.1 12.78 12.63 12.6
2768.083 12.71 12.66 13.22 14.2 15.09 16.58 18.19 20.15 22.82 25.8
2787.373 29.39 33.34 37.79 42.87 48.25 53.67 59.26 64.41 69.02 73.76
2806.663 78.1 81.24 82.65 82.7 81.01 77.71 73.48 68.81 63.52 57.56
2825.953 51.78 46.44 42.32 38.94 35.73 33.33 31.62 30.22 29.36 29.17
2845.242 29.42 30.34 32 34.64 38.19 42.54 47.57 53.81 60.59 65.83
2864.532 68.13 68.75 68.02 64.64 59.51 53.43 46.97 40.71 35.66 32.1
2883.822 29.25 27.48 26.79 26.29 25.82 25.87 26.62 27.26 27.65 28.27
2903.112 29.29 30.18 31.29 32.78 34.53 37.3 40.74 44.85 50.11 56.25
2922.401 63.47 71.91 81.28 91.81 103.35 116.56 132.58 152.61 177.35 203.64
2941.691 225.88 241.36 250.47 253.71 245.7 222.5 192.37 159.36 126.37 99.86
2960.981 80.25 65.32 54.09 45.6 39.08 34.03 29.94 26.39 23.6 21.52
2980.271 20.14 19.39 18.84 18.58 18.33 18.3 18.03 17.55 16.67 15.59
2999.561 14.51 13.06 11.97 11 10.1 9.31 8.98 8.63 7.93 8
3018.850 8.09 8.23 8.62 8.93 9.45 10.21 11.08 11.38 11.51 11.77
3038.140 11.89 11.81 11.65 11.65 11.34 11.31 11.23 11.27 11.78 12.07
3057.430 12.68 13.74 14.98 16.06 17.37 19.11 21.05 23.23 24.93 26.19
3076.720 26.87 26.19 24.91 23.02 20.65 18.02 15.29 13.06 11.26 10.21
3096.009 9.5 9.02 8.84 8.55 7.94 7.34 6.92 6.33 5.75 5.4
3115.299 4.92 4.43 4.38 4.05 3.62 3.39 3.24 3.1 3.06 2.95
3134.589 2.69 2.64 2.46 2.37 2.38 2.38 2.29 1.91 1.88 1.85
3153.879 1.71 1.78 1.62 1.74 1.87 1.68 1.66 1.52 1.63 1.91
3173.169 2.09 1.88 1.4275 1.3939 1.4681 1.4402 1.2191 0.9811 0.9167 1.0862
3192.458 1.1535 1.084 0.8199 1.0494 1.2271 0.876 1.0932 1.338 1.62 1.6
3211.748 1.1946 1.3378 1.0471 0.9256 1.123 0.6239 0.61828 0.9273 1.2592 1.1312
3231.038 0.6794 0.8178 0.7699 0.8519 1.1388 0.8532 1.0963 1.4876 1.3555 0.7438
3250.328 0.6648 1.0133 0.923 1.0476 0.9557 0.7917 0.56474 0.6482 0.9301 0.8634
3269.617 0.7031 0.327 0.256 0.23 0 0.293 0.9481 0.9 0.55186 0.7212
3288.907 0.8728 0.8261 0.8221 0.521786 0.4305 0.8496 0.7978 0.55632 0.5019 0.8546
3308.197 0.8255 0.58865 0.54744 0.55945 0.7604 0.6945 0.8916 0.9654 0.8993 0.9214
3327.487 0.9239 1.0042 0.998 1.142 1.0739 1.1008 0.9338 0.61248 0.466 0.315
3346.777 0.527172 0.58543 0.377 0.56496 0.6595 0.408 0.392 0.59172 0.60528 0.7987
3366.066 1.1872 0.7812 0.439 0.9162 1.1275 0.8039 0.8238 1.0408 1.1914 1.2639
3385.356 1.2171 0.9904 0.8518 0.9646 1.2165 1.3891 1.4393 1.282 0.9642 1.1857
3404.646 1.1417 0.8805 0.8511 0.6692 0.832 0.818 0.8822 1.2877 1.2012 1.3845
3423.936 1.3676 0.7814 0.6799 0.8587 0.718 0.5873 0.7274 0.6259 0.6297 0.7038
3443.225 0.7289 0.8775 1.2086 1.4281 1.108 1.0394 0.8645 0.6951 0.8006 0.8666
3462.515 0.9921 1.1016 1.0915 0.8619 0.6486 0.7604 0.9071 0.9414 0.9504 0.8329
3481.805 0.684 0.7115 0.7493 0.59451 0.5019 0.399 0.57302 0.60319 0.5516 0.414
3501.095 0.4655 0.8505 0.7732 0.58296 0.4399 0.6597 0.4802 0.055 0.174 0.6456
3520.385 0.9558 0.7712 0.54911 0.6919 0.6703 0.174 0.124 0.432 0.394 0.326
3539.674 0.6719 0.8698 0.7847 0.58982 0.503 0.246 0.088 0.179 0.309 0.5896
3558.964 0.7405 0.8531 0.6322 0.311 0.713 0.6544 0.362 0.229 0.127 0.6863
3578.254 0.7236 0.53822 0.55678 0.406 0.4385 0.57209 0.4425 0.211 0.9097 1.1087
3597.544 0.5809 0.7939 0.4248 0.293 0.8527 0.768 0.338 0.351 0.7018 0.8971
3616.833 1.0766 1.0423 0.55774 0.257 0.319 0.4814 0.4811 0.4735 0.4902 0.418
3636.123 0.5018 0.7069 0.4826 0.8365 1.0792 0.6647 0.6582 0.60862 0.159 0.083
3655.413 0.355 0.178 0.51663 0.6936 0.177 0.066 0.4594 0.8222 0.9562 0.9266
3674.703 0.9216 0.8452 0.4403 0.54093 0.51671 0.721 0.9319 0.59579 0.57769 0.4849
3693.993 0.7666 0.8167 0.6822 1.1428 1.2064 0.7635 1.0966 1.2502 0.865 0.4835
3713.282 0.199 0.32 0.6223 1.0575 1.0698 0.7929 0.7859 0.8206 0.953 1.0375
3732.572 0.839 0.8723 1.1066 0.9613 0.6352 0.4584 0.419 0.6829 0.9137 0.7936
3751.862 0.8931 1.1792 1.06 0.8888 0.8756 0.8742 1.0293 1.1527 0.54715 0.204
3771.152 1.1064 1.3908 1.2605 1.2079 1.3053 1.3091 0.7375 0.4725 0.5052 0.4362
3790.441 0.394 0.6896 0.53045 0.6249 0.9755 1.2171 1.4218 0.9636 1.0201 1.2639
3809.731 1.1853 1.0019 1.0281 1.0658 0.9085 1.0311 1.2084 0.9799 0.7935 0.9556
3829.021 0.949 1.0768 1.136 0.9182 0.9794 1.3607 1.2157 0.7801 0.8135 0.9581
3848.311 0.8357 0.9488 1.61 1.64 1.58 1.4127 0.7416 1.0849 1.56 1.2589
3867.601 0.56111 0.719 1.354 1.2203 0.7236 0.9394 1.1303 1.1019 1.2012 1.0374
3886.890 0.7951 0.8628 1.57 1.62 1.1992 0.9428 1.164 1.4054 1.0472 0.6726
3906.180 0.7626 0.7611 0.6329 0.9864 1.0872 0.9202 1.0787 1.66 1.89 1.3526
3925.470 1.4848 1.6 1.4457 1.2348 1.0961 1.2271 0.9491 0.7558 0.9799 1.0723
3944.760 0.9045 1.3301 1.87 1.85 1.91 1.86 1.71 1.7 1.0487 0.9608
3964.049 1.4901 1.4301 1.3904 1.3243 1.7 1.61 1.57 1.93 1.54 1.1713
3983.339 1.4259 1.504 1.4251 1.4684 1.258 1.2847 1.3794 1.2681 1.2559 1.178
##END=
