##TITLE=3-Trifluoromethylbenzophenone
##JCAMP-DX=4.24
##DATA TYPE=INFRARED SPECTRUM
##ORIGIN=EPA-IR VAPOR PHASE LIBRARY
##OWNER=SRD/NIST
Collection (C) 2018 copyright by the U.S. Secretary of Commerce
on behalf of the United States of America. All rights reserved.
##CAS REGISTRY NO=728-81-4
##MOLFORM=C 14 H 9 F 3 O
##$NIST SOURCE=MSDC-IR
##STATE=gas
##XUNITS=1/CM
##YUNITS=ABSORBANCE
##XFACTOR=1.
##YFACTOR=0.001
##DELTAX=1.92934
##FIRSTX=549.9
##LASTX=3999.5
##FIRSTY=2.0913
##MAXX=3999.53
##MINX=549.863
##MAXY=0.16821
##MINY=0
##NPOINTS=1789
##XYDATA=(X++(Y..Y))
549.863 2.0913 2.01385 1.9205 1.9568 2.1273 2.04111 1.9388 1.9222 1.87 1.9435
569.156 1.9571 1.9343 2.00241 2.0866 2.1684 2.2441 2.2893 2.3346 2.3992 2.3832
588.450 2.4635 2.4803 2.3661 2.41 2.5987 2.7511 2.9556 3.17 3.58 4.16
607.743 4.85 5.8 6.84 7.9 8.71 9.19 9.44 9.39 9.1 8.84
627.037 8.84 9.09 9.39 9.68 9.84 9.94 9.97 9.99 10.07 10.11
646.330 10.14 10.37 11.25 13.27 17.08 22.96 29.26 33.74 35.68 34.23
665.624 29.41 23.42 18.03 14.02 11.56 10.38 9.99 10.19 11.01 12.56
684.917 14.84 17.88 21.25 24.61 27.56 29.61 30.88 31.4 31.03 30.04
704.210 29.12 28.61 28.48 28.82 29.75 30.52 30.38 29.96 29.81 29.48
723.504 28.53 26.6 23.61 19.9 16.15 13.08 10.85 9.24 8.05 7.09
742.797 6.34 5.8 5.33 4.96 4.76 4.66 4.59 4.53 4.43 4.33
762.091 4.34 4.42 4.59 4.84 5.28 6 6.89 7.91 8.9 9.82
781.384 10.66 11.51 12.44 13.34 13.88 13.84 13.35 12.41 11.32 10.53
800.678 10.17 10.32 10.97 11.88 12.87 13.83 14.46 14.49 13.78 12.4
819.971 10.51 8.55 6.93 5.64 4.68 3.99 3.54 3.25 3.05 2.9605
839.264 2.9359 2.8895 2.8277 2.7576 2.6464 2.5411 2.3629 2.2515 2.2205 2.1773
858.558 2.1611 2.06717 1.99349 2.0057 2.03868 2.0549 2.07564 2.1361 2.1903 2.2219
877.851 2.2692 2.3048 2.379 2.5057 2.6267 2.7397 2.9063 3.14 3.37 3.66
897.145 3.97 4.3 4.77 5.37 6.06 7.11 8.46 9.76 10.88 11.66
916.438 11.92 11.74 11.23 10.42 9.57 8.87 8.33 7.87 7.59 7.61
935.732 7.9 8.68 9.91 11.61 13.66 15.59 16.99 17.66 17.71 17.08
955.025 15.85 14.41 12.99 11.58 10.1 8.58 7.14 6.03 5.17 4.54
974.318 4.11 3.74 3.45 3.23 3.11 3.1 3.12 3.08 3.06 3.16
993.612 3.36 3.75 4.17 4.41 4.42 4.25 3.84 3.28 2.916 2.7191
1012.905 2.6485 2.7223 2.9233 3.24 3.68 4.23 4.77 5.11 5.16 4.99
1032.199 4.63 4.18 3.83 3.67 3.7 3.78 3.88 4.1 4.34 4.71
1051.492 5.22 5.79 6.69 7.96 9.61 11.82 14.76 18.48 22.94 27.9
1070.786 32.79 36.73 38.99 39.22 37.47 33.95 29.35 25.1 22.57 21.78
1090.079 21.82 21.82 21.2 19.84 17.81 15.38 13.27 11.98 11.3 11.06
1109.372 11.21 11.63 12.29 13.21 14.41 15.95 17.97 20.56 23.82 28.02
1128.666 33.42 40.21 48.73 59.4 72.54 88.16 106.04 125.39 144.2 159.63
1147.959 168.21 167.3 156.58 138.59 117.65 97.93 82.19 71.71 67.06 68.17
1167.253 73.1 78.26 82.19 86.34 90.7 94.38 97.26 97.21 92.39 83.37
1186.546 70.92 56.76 43.91 34.41 28.01 23.81 21.12 19.34 18.15 17.38
1205.840 16.85 16.42 16.18 16.07 16.09 16.43 17.07 18.03 19.42 21.26
1225.133 23.64 26.6 30 33.86 38.04 42.3 46.51 50.63 54.95 59.89
1244.426 66 74.19 84.89 98.27 113.74 129.54 143.39 152.91 156.07 151.66
1263.720 139.98 122.91 103.25 83.88 67.24 54.59 45.66 39.44 35.07 32.17
1283.013 30.47 29.73 29.53 29.55 29.7 29.83 30.04 30.32 30.57 30.89
1302.307 31.41 32.22 33.3 34.67 36.25 37.83 39.38 41.13 43.43 46.98
1321.600 52.66 61.27 72.9 86.65 100.5 111.53 117.14 115.71 107.11 92.79
1340.894 75.3 57.81 42.43 30.4 21.98 16.45 12.98 10.81 9.37 8.35
1360.187 7.59 7.02 6.51 6.12 5.81 5.55 5.37 5.16 4.93 4.79
1379.480 4.66 4.51 4.4 4.29 4.18 4.07 4.01 3.95 3.86 3.78
1398.774 3.75 3.78 3.81 3.87 3.96 4.03 4.08 4.2 4.36 4.57
1418.067 4.97 5.48 6.17 7.13 8.28 9.54 10.82 11.78 12.18 12.09
1437.361 11.54 10.73 10.07 9.78 9.79 9.74 9.41 8.8 7.83 6.72
1456.654 5.6 4.73 4.25 3.9 3.66 3.48 3.35 3.3 3.26 3.19
1475.948 3.18 3.21 3.28 3.36 3.43 3.44 3.36 3.27 3.21 3.12
1495.241 2.9774 2.8337 2.7759 2.7805 2.7987 2.7127 2.6459 2.7796 2.8331 2.7993
1514.534 2.8187 2.8199 2.7115 2.6483 2.6774 2.6653 2.6747 2.6942 2.7139 2.7644
1533.828 2.8023 2.9179 2.9654 2.9216 2.9428 3.02 3.11 3.15 3.15 3.14
1553.121 3.18 3.2 3.24 3.39 3.63 3.79 3.93 4.17 4.38 4.62
1572.415 4.9 5.13 5.4 5.73 6.07 6.42 6.78 7.25 7.84 8.42
1591.708 9.03 9.69 10.33 10.95 11.36 11.63 11.91 12.07 12.02 11.74
1611.002 11.31 10.62 9.69 8.68 7.79 7.06 6.48 6.04 5.72 5.48
1630.295 5.33 5.17 5.05 5.12 5.22 5.37 5.56 5.69 5.86 6.04
1649.588 6.18 6.37 6.74 7.12 7.61 8.34 9.33 10.59 12.19 14.32
1668.882 17.31 21.53 27.05 34.12 42.92 52.05 60.54 66.62 69.62 69.21
1688.175 65.05 57.75 49.05 40.79 33.21 27.24 22.71 18.89 16.24 14.04
1707.469 12.4 11.08 9.96 9.03 8.27 7.58 7.04 6.68 6.42 6.19
1726.762 5.96 5.75 5.47 5.16 4.9 4.73 4.58 4.4 4.34 4.25
1746.056 4.11 3.95 3.76 3.59 3.46 3.32 3.18 3.11 3 2.8927
1765.349 2.8709 2.7899 2.6962 2.629 2.5715 2.5296 2.464 2.3856 2.346 2.3382
1784.642 2.334 2.3679 2.4156 2.4397 2.4923 2.5807 2.6807 2.7388 2.7862 2.9117
1803.936 2.99 3.03 3.12 3.16 3.15 3.15 3.11 3.02 2.9055 2.8174
1823.229 2.7813 2.731 2.6484 2.5719 2.5016 2.4646 2.4477 2.4008 2.3267 2.2792
1842.523 2.2245 2.192 2.2359 2.2271 2.2435 2.2695 2.2553 2.263 2.2644 2.2992
1861.816 2.3056 2.2774 2.2552 2.2631 2.2528 2.1918 2.1812 2.1705 2.1574 2.2394
1881.110 2.3019 2.3492 2.4286 2.5079 2.6052 2.7048 2.8283 2.9477 3.05 3.17
1900.403 3.27 3.33 3.37 3.43 3.47 3.39 3.24 3.05 2.8716 2.705
1919.696 2.5126 2.3621 2.2473 2.1664 2.1266 2.098 2.1153 2.1294 2.0931 2.0839
1938.990 2.1768 2.2453 2.3059 2.4222 2.5457 2.6898 2.8475 2.99 3.11 3.19
1958.283 3.24 3.24 3.19 3.17 3.09 2.9652 2.8722 2.7546 2.6007 2.43
1977.577 2.2557 2.1091 1.9695 1.845 1.814 1.81 1.75 1.673 1.612 1.564
1996.870 1.54 1.535 1.528 1.504 1.462 1.45 1.472 1.443 1.425 1.431
2016.164 1.449 1.442 1.419 1.414 1.433 1.452 1.432 1.448 1.452 1.435
2035.457 1.42 1.414 1.447 1.45 1.45 1.458 1.436 1.424 1.47 1.504
2054.750 1.518 1.537 1.521 1.536 1.559 1.504 1.473 1.493 1.472 1.467
2074.044 1.46 1.426 1.412 1.406 1.435 1.466 1.443 1.438 1.455 1.484
2093.337 1.481 1.477 1.482 1.472 1.467 1.469 1.498 1.511 1.547 1.559
2112.631 1.558 1.614 1.65 1.664 1.649 1.609 1.608 1.644 1.621 1.556
2131.924 1.522 1.546 1.55 1.563 1.588 1.595 1.627 1.591 1.563 1.572
2151.218 1.604 1.567 1.481 1.469 1.475 1.447 1.415 1.442 1.434 1.413
2170.511 1.436 1.441 1.456 1.447 1.423 1.393 1.382 1.401 1.39 1.396
2189.804 1.433 1.442 1.408 1.415 1.466 1.495 1.496 1.475 1.493 1.545
2209.098 1.575 1.595 1.59 1.618 1.648 1.633 1.642 1.633 1.602 1.64
2228.391 1.705 1.696 1.655 1.663 1.67 1.641 1.658 1.682 1.701 1.739
2247.685 1.739 1.751 1.756 1.736 1.748 1.765 1.782 1.785 1.789 1.798
2266.978 1.84 1.858 1.872 1.8959 1.871 1.875 1.8992 1.9143 1.853 1.839
2286.272 1.8939 1.8869 1.842 1.81 1.806 1.775 1.769 1.761 1.683 1.66
2305.565 1.67 1.704 1.713 1.709 1.743 1.787 1.849 1.862 1.866 1.89
2324.858 1.84 1.775 1.754 1.737 1.743 1.788 1.825 1.855 1.873 1.8803
2344.152 1.909 1.8894 1.859 1.831 1.755 1.702 1.69 1.611 1.584 1.635
2363.445 1.644 1.557 1.532 1.579 1.599 1.62 1.62 1.611 1.598 1.633
2382.739 1.695 1.716 1.689 1.691 1.702 1.7 1.753 1.762 1.721 1.767
2402.032 1.825 1.833 1.799 1.741 1.696 1.686 1.653 1.611 1.636 1.619
2421.326 1.514 1.485 1.51 1.514 1.471 1.392 1.434 1.461 1.446 1.398
2440.619 1.366 1.397 1.376 1.379 1.356 1.351 1.37 1.34 1.357 1.408
2459.912 1.398 1.381 1.396 1.415 1.404 1.363 1.364 1.386 1.419 1.439
2479.206 1.43 1.408 1.42 1.438 1.408 1.365 1.353 1.397 1.434 1.405
2498.499 1.349 1.335 1.383 1.428 1.399 1.348 1.343 1.372 1.408 1.425
2517.793 1.435 1.384 1.293 1.281 1.288 1.297 1.308 1.297 1.309 1.307
2537.086 1.315 1.312 1.286 1.286 1.322 1.325 1.292 1.284 1.278 1.284
2556.380 1.272 1.238 1.258 1.291 1.295 1.322 1.354 1.347 1.354 1.423
2575.673 1.395 1.361 1.409 1.417 1.41 1.43 1.444 1.474 1.499 1.472
2594.966 1.461 1.46 1.488 1.436 1.374 1.411 1.424 1.393 1.305 1.273
2614.260 1.278 1.237 1.222 1.249 1.246 1.222 1.257 1.286 1.274 1.258
2633.553 1.251 1.239 1.264 1.273 1.265 1.253 1.227 1.244 1.263 1.293
2652.847 1.247 1.165 1.157 1.164 1.131 1.121 1.147 1.112 1.071 1.073
2672.140 1.06 1.072 1.098 1.007 0.95 1.041 1.057 1.032 1.057 1.054
2691.434 0.996 1.007 1.043 1.009 1.041 1.054 1.022 1.007 1.03 1.094
2710.727 1.142 1.096 1.033 1.088 1.173 1.239 1.164 1.074 1.104 1.14
2730.020 1.185 1.228 1.252 1.21 1.126 1.147 1.176 1.222 1.249 1.318
2749.314 1.31 1.285 1.28 1.211 1.161 1.118 1.126 1.187 1.234 1.236
2768.607 1.18 1.097 1.13 1.091 1.033 1.033 1.031 1.025 1.021 1.02
2787.901 0.97 0.93 0.97 0.983 0.95 0.92 0.95 1.012 1.003 0.97
2807.194 0.96 0.93 0.97 1.017 1.001 0.98 1.004 1.078 1.029 0.97
2826.488 1.075 1.114 1.033 0.983 0.982 1.023 1.078 1.101 1.129 1.124
2845.781 1.028 0.97 1.01 1.124 1.179 1.137 1.12 1.099 1.124 1.098
2865.074 1.063 1.085 1.023 1.015 1.058 1.111 1.139 1.133 1.058 1.039
2884.368 1.066 0.998 1.009 1.029 1.012 0.984 0.92 0.91 0.88 0.86
2903.661 0.9 0.89 0.79 0.78 0.89 0.91 0.91 0.93 0.94 1.03
2922.955 1.038 0.96 1.002 1.118 1.161 1.127 1.145 1.154 1.158 1.125
2942.248 1.027 1.022 1 0.93 0.9 0.91 1.014 1.061 0.96 0.94
2961.542 0.93 0.9 0.88 0.87 0.89 0.8 0.8 0.87 0.83 0.8
2980.835 0.74 0.78 0.9 0.9 0.991 1.027 0.95 0.97 1.01 0.89
3000.128 0.94 1.117 1.084 1.058 1.195 1.376 1.487 1.67 1.8999 2.1551
3019.422 2.4034 2.5594 2.8474 3.19 3.54 4.02 4.56 5.02 5.24 5.42
3038.715 5.66 5.77 5.61 5.41 5.19 4.94 4.97 5.12 5.32 5.63
3058.009 6.16 6.98 7.93 9.03 10.52 12.31 13.86 14.93 15.32 15.14
3077.302 14.58 13.73 12.93 12.3 11.77 11.17 10.38 9.54 8.68 7.63
3096.596 6.47 5.68 5.15 4.61 4.2 3.76 3.28 2.8445 2.5088 2.2224
3115.889 1.794 1.533 1.376 1.126 1.073 0.996 0.95 0.89 0.87 0.9
3135.182 0.72 0.6 0.64 0.63 0.69 0.54 0.51 0.61 0.53 0.49
3154.476 0.56 0.55 0.49 0.58 0.59 0.42 0.33 0.41 0.45 0.39
3173.769 0.3 0.23 0.21 0.23 0.23 0.28 0.21 0.2 0.38 0.29
3193.063 0.25 0.48 0.49 0.29 0.29 0.33 0.37 0.47 0.39 0.38
3212.356 0.33 0.27 0.33 0.37 0.34 0.33 0.33 0.21 0.15 0.15
3231.650 0.05 0 0.11 0.13 0.18 0.25 0.12 0 0 0.1
3250.943 0.36 0.41 0.19 0.16 0.22 0.16 0.26 0.28 0.16 0.21
3270.236 0.13 0.17 0.29 0.27 0.23 0.22 0.34 0.33 0.19 0.19
3289.530 0.32 0.37 0.21 0.03 0.12 0.32 0.24 0.24 0.35 0.36
3308.823 0.42 0.33 0.32 0.35 0.34 0.41 0.41 0.48 0.53 0.5
3328.117 0.51 0.36 0.37 0.43 0.57 0.76 0.88 1.124 1.275 1.266
3347.410 1.249 1.301 1.316 1.29 1.298 1.193 1.013 0.82 0.72 0.73
3366.704 0.74 0.83 0.76 0.61 0.48 0.39 0.34 0.47 0.62 0.46
3385.997 0.3 0.43 0.53 0.56 0.52 0.38 0.34 0.42 0.45 0.35
3405.290 0.41 0.45 0.39 0.53 0.5 0.35 0.48 0.52 0.43 0.48
3424.584 0.55 0.49 0.42 0.35 0.41 0.48 0.45 0.52 0.56 0.5
3443.877 0.47 0.56 0.58 0.52 0.62 0.6 0.48 0.4 0.43 0.43
3463.171 0.42 0.52 0.59 0.54 0.51 0.52 0.47 0.53 0.62 0.43
3482.464 0.35 0.44 0.47 0.53 0.52 0.55 0.59 0.62 0.67 0.73
3501.758 0.73 0.63 0.47 0.42 0.52 0.68 0.66 0.55 0.66 0.66
3521.051 0.59 0.6 0.65 0.61 0.6 0.54 0.45 0.6 0.66 0.58
3540.344 0.58 0.61 0.62 0.72 0.86 0.77 0.65 0.68 0.75 0.84
3559.638 0.76 0.65 0.77 0.88 0.85 0.8 0.68 0.67 0.81 0.82
3578.931 0.76 0.8 0.9 0.83 0.75 0.75 0.69 0.63 0.74 0.8
3598.225 0.82 0.86 0.84 0.83 0.77 0.73 0.67 0.76 0.88 0.93
3617.518 0.88 0.86 0.83 0.77 0.85 0.84 0.81 0.95 0.91 0.87
3636.812 0.96 0.93 0.96 1.018 0.985 0.95 0.95 0.95 0.991 1.001
3656.105 0.95 0.97 1.078 1.163 1.017 0.92 0.94 0.88 0.86 0.85
3675.398 0.87 0.92 0.94 0.996 1.035 1.099 1.158 1.109 1.114 1.06
3694.692 1.051 1.065 1.047 1.063 1.104 1.124 1.181 1.241 1.204 1.147
3713.985 1.145 1.121 1.007 1.04 1.152 1.177 1.177 1.175 1.156 1.104
3733.279 1.06 1.032 1.053 1.125 1.109 0.986 0.91 0.96 0.92 0.991
3752.572 0.988 0.87 0.994 1.098 1.058 1.057 1.103 1.048 1.108 1.12
3771.866 1.105 1.078 1.025 1.091 1.1 1.092 1.047 1.036 1.101 1.095
3791.159 1.077 1.121 1.068 1.09 1.114 0.89 0.91 1.044 0.992 1.058
3810.452 1.168 1.164 1.129 1.171 1.155 1.039 1.02 1.107 1.143 1.146
3829.746 1.098 1.077 1.126 1.073 0.992 1.056 1.08 1.11 1.077 0.982
3849.039 1.083 1.102 1.082 1.097 1.049 1.077 1.12 1.127 1.109 1.118
3868.333 1.091 0.992 1.043 1.101 1.114 1.131 1.118 1.114 1.151 1.185
3887.626 1.156 1.096 1.139 1.148 1.025 1.044 1.152 1.137 1.166 1.215
3906.920 1.202 1.166 1.22 1.253 1.153 1.124 1.092 1.113 1.148 1.09
3926.213 1.053 1.055 1.078 1.043 1.05 1.089 1.144 1.073 0.87 0.89
3945.506 1.049 1.058 0.984 1.02 1.036 1.045 1.153 1.201 1.145 1.19
3964.800 1.206 1.099 1.079 1.121 1.089 1.099 1.108 1.064 1.067 1.101
3984.093 1.135 1.128 1.129 1.125 1.055 1.091 1.227 1.204 1.185
##END=
