##TITLE=1-Benzyl-5-phenylbarbituric acid
##JCAMP-DX=4.24
##DATA TYPE=INFRARED SPECTRUM
##ORIGIN=EPA-IR VAPOR PHASE LIBRARY
##OWNER=SRD/NIST
Collection (C) 2018 copyright by the U.S. Secretary of Commerce
on behalf of the United States of America. All rights reserved.
##CAS REGISTRY NO=72846-00-5
##MOLFORM=C 17 H 14 N 2 O 3
##$NIST SOURCE=MSDC-IR
##STATE=gas
##XUNITS=1/CM
##YUNITS=ABSORBANCE
##XFACTOR=1.
##YFACTOR=0.001
##DELTAX=1.92934
##FIRSTX=549.9
##LASTX=3999.5
##FIRSTY=0.76889
##MAXX=3999.53
##MINX=549.863
##MAXY=0.028126
##MINY=0
##NPOINTS=1789
##XYDATA=(X++(Y..Y))
549.863 0.76889 0.74998 0.73377 0.589 0.593 0.71478 0.6817 0.6042 0.564 0.522
569.156 0.469 0.48 0.463 0.504 0.6136 0.6678 0.6022 0.6509 0.9487 1.1638
588.450 1.2386 1.4002 1.5568 1.5677 1.5427 1.4866 1.4698 1.4437 1.4201 1.4531
607.743 1.3964 1.4111 1.5191 1.6127 1.6849 1.766 1.896 1.996 2.096 2.126
627.037 2.076 2.116 2.096 1.996 1.926 1.866 1.846 1.746 1.6516 1.5227
646.330 1.3762 1.3492 1.2962 1.2412 1.2089 1.2295 1.3631 1.4648 1.5653 1.746
665.624 1.886 1.926 1.896 1.866 1.936 2.006 2.046 2.146 2.226 2.346
684.917 2.556 2.766 3.026 3.276 3.416 3.506 3.506 3.476 3.386 3.226
704.210 3.116 3.126 3.206 3.256 3.346 3.446 3.496 3.426 3.286 3.106
723.504 2.896 2.656 2.396 2.166 2.006 1.856 1.766 1.776 1.796 1.846
742.797 1.926 2.036 2.146 2.386 2.716 3.016 3.216 3.256 3.136 2.916
762.091 2.596 2.256 1.996 1.736 1.474 1.2818 1.2194 1.175 1.0877 1.0264
781.384 0.929 0.8117 0.7997 0.834 0.8782 0.9322 0.9188 0.8755 0.8129 0.75698
800.678 0.74275 0.75826 0.8057 0.8293 0.79289 0.8215 0.8495 0.9363 1.0392 0.9627
819.971 0.8991 0.884 0.9063 0.9323 0.9187 0.8626 0.8548 0.8665 0.79437 0.73113
839.264 0.68833 0.6697 0.6535 0.70647 0.7474 0.73707 0.70642 0.68667 0.75554 0.75791
858.558 0.76345 0.8587 0.8685 0.8859 0.902 0.818 0.8321 0.8539 0.77361 0.75335
877.851 0.79322 0.8114 0.77406 0.75946 0.78564 0.8262 0.8487 0.8746 0.9268 0.8907
897.145 0.8606 0.9008 0.951 1.0096 1.0423 1.0308 0.9985 1.0232 1.0937 1.1289
916.438 1.1542 1.1585 1.1364 1.1424 1.0947 0.9695 0.9213 0.9423 0.9161 0.8907
935.732 0.8621 0.832 0.79494 0.7694 0.78831 0.78367 0.7966 0.8157 0.8062 0.77323
955.025 0.78368 0.79005 0.8015 0.78125 0.70978 0.72472 0.74597 0.7306 0.701333 0.72757
974.318 0.72448 0.6365 0.6238 0.6635 0.70213 0.72242 0.71504 0.71554 0.72018 0.73511
993.612 0.75644 0.76274 0.78143 0.8309 0.8974 0.8919 0.8357 0.8352 0.8225 0.8277
1012.905 0.8583 0.8548 0.8162 0.8139 0.9156 1.0288 1.1471 1.2776 1.3387 1.3218
1032.199 1.2769 1.2053 1.0664 0.9178 0.8947 0.8764 0.8455 0.8942 0.9274 0.9426
1051.492 0.9369 0.9681 1.0215 1.0316 1.0699 1.0666 1.0574 1.0943 1.105 1.1277
1070.786 1.1812 1.2039 1.233 1.3053 1.3035 1.2083 1.1261 1.1023 1.0656 1.0246
1090.079 1.0031 0.9445 0.9097 0.9429 0.9625 0.9974 1.0204 1.03 1.0677 1.0447
1109.372 1.0074 0.9711 0.9263 0.9545 0.9198 0.8505 0.8692 0.8707 0.8838 0.8874
1128.666 0.8064 0.8536 0.8932 0.79533 0.8395 0.9103 0.8832 0.8781 0.8617 0.887
1147.959 0.936 1.1082 1.3435 1.4019 1.4736 1.6221 1.786 1.836 1.956 2.276
1167.253 2.546 2.716 3.046 3.516 3.866 4.086 4.176 4.016 3.856 3.726
1186.546 3.376 2.936 2.446 2.296 2.276 2.096 1.956 1.936 1.766 1.5595
1205.840 1.4446 1.4327 1.487 1.5199 1.516 1.2209 1.2554 1.3535 1.2043 1.1032
1225.133 1.3332 1.5393 1.4578 1.4491 1.3756 1.3813 1.5085 1.6176 1.6306 1.6512
1244.426 1.786 1.896 1.796 1.716 1.786 1.906 2.006 2.136 2.206 2.206
1263.720 2.356 2.436 2.456 2.576 2.716 2.836 3.026 3.176 3.236 3.346
1283.013 3.466 3.686 3.906 4.026 4.216 4.456 4.686 4.936 5.146 5.396
1302.307 5.726 6.086 6.436 6.836 7.206 7.496 7.776 7.976 8.056 8.046
1321.600 8.056 8.016 7.956 7.936 7.956 8.036 8.086 8.106 8.086 8.026
1340.894 7.916 7.716 7.476 7.206 6.966 6.776 6.596 6.426 6.216 5.976
1360.187 5.746 5.516 5.316 5.166 5.096 5.086 5.186 5.436 5.776 6.196
1379.480 6.646 7.176 7.806 8.476 9.156 9.846 10.526 11.076 11.446 11.706
1398.774 11.766 11.636 11.336 10.926 10.426 9.836 9.186 8.436 7.616 6.806
1418.067 6.026 5.306 4.786 4.356 4.066 3.946 3.986 4.276 4.716 5.256
1437.361 5.786 6.176 6.356 6.116 5.496 4.716 3.976 3.396 2.946 2.596
1456.654 2.326 2.136 2.016 1.876 1.746 1.6145 1.5297 1.497 1.4549 1.4396
1475.948 1.4367 1.45 1.4554 1.442 1.4619 1.5624 1.716 1.916 2.196 2.496
1495.241 2.696 2.776 2.696 2.456 2.196 1.876 1.5768 1.4397 1.3462 1.2676
1514.534 1.24 1.1904 1.1506 1.1078 1.1166 1.1155 1.0615 1.0577 1.0224 0.9958
1533.828 0.9752 0.9816 0.9735 0.8946 0.857 0.9122 0.9532 0.9246 0.8964 0.8659
1553.121 0.8552 0.8658 0.8247 0.73993 0.79485 0.8728 0.8514 0.8938 0.9387 0.9533
1572.415 0.9987 0.9782 0.9453 1.0062 1.094 1.1336 1.1531 1.202 1.2584 1.2396
1591.708 1.1997 1.2515 1.3343 1.3642 1.3921 1.4231 1.4072 1.3708 1.3354 1.316
1611.002 1.2539 1.171 1.0817 1.0216 1.0367 1.0381 1.0327 1.0114 0.9796 1.0246
1630.295 1.0895 1.0927 1.11 1.1342 1.1363 1.1445 1.1278 1.0996 1.1084 1.1452
1649.588 1.1807 1.1627 1.2263 1.3841 1.4439 1.4564 1.5504 1.6294 1.6812 1.746
1668.882 1.796 1.916 2.016 2.066 2.206 2.346 2.466 2.606 2.756 2.956
1688.175 3.186 3.426 3.716 4.066 4.536 5.136 5.866 6.836 8.036 9.686
1707.469 11.806 14.356 17.216 19.986 22.186 23.326 23.026 21.526 19.026 16.206
1726.762 13.726 11.916 10.796 10.406 10.686 11.606 13.106 15.296 18.116 21.346
1746.056 24.516 26.996 28.126 27.676 25.746 22.686 19.106 15.866 13.256 11.326
1765.349 9.956 8.846 7.846 6.976 6.126 5.376 4.726 4.166 3.736 3.456
1784.642 3.226 3.016 2.866 2.726 2.566 2.456 2.356 2.246 2.156 2.096
1803.936 1.996 1.886 1.826 1.766 1.716 1.6846 1.6335 1.5529 1.4586 1.45
1823.229 1.4367 1.3956 1.3696 1.3103 1.2495 1.1971 1.1879 1.1969 1.1649 1.1378
1842.523 1.1391 1.1192 1.1042 1.1252 1.108 1.0707 1.0766 1.0781 1.0252 1.0045
1861.816 1.0413 1.051 1.0391 1.0084 0.9795 0.9972 0.9987 1.0107 1.0223 0.9926
1881.110 0.9798 0.9857 0.9739 0.9928 1.0238 1.0277 1.0282 1.015 1.0074 1.0059
1900.403 0.991 0.9837 0.9776 0.9464 0.9099 0.9113 0.9189 0.9073 0.8813 0.8752
1919.696 0.9238 0.9347 0.9313 0.943 0.9246 0.9233 0.9405 0.9378 0.9507 0.9592
1938.990 0.9441 0.9543 0.9611 0.9707 0.9751 0.9571 0.9574 0.9319 0.9331 0.9831
1958.283 0.9509 0.9156 0.9113 0.8778 0.8887 0.8674 0.8134 0.8071 0.8231 0.79539
1977.577 0.75346 0.76128 0.78526 0.79378 0.79282 0.8007 0.78336 0.75922 0.75882 0.76626
1996.870 0.8007 0.8118 0.76265 0.74743 0.77094 0.77882 0.76524 0.75501 0.75792 0.77096
2016.164 0.78116 0.77529 0.77173 0.7709 0.76872 0.77178 0.79305 0.8181 0.8322 0.7987
2035.457 0.75845 0.799 0.8122 0.78304 0.79134 0.78751 0.75295 0.74057 0.76296 0.77772
2054.750 0.79301 0.78007 0.73442 0.74015 0.77008 0.77725 0.77845 0.78026 0.809 0.8181
2074.044 0.8052 0.8189 0.8296 0.8135 0.79151 0.77295 0.77139 0.75116 0.73771 0.76194
2093.337 0.75619 0.75113 0.74849 0.74486 0.75449 0.74594 0.75271 0.77831 0.78564 0.77026
2112.631 0.76244 0.78508 0.79153 0.75318 0.77397 0.78881 0.77472 0.79167 0.79267 0.801
2131.924 0.77809 0.75654 0.76361 0.76826 0.77502 0.78504 0.77051 0.7328 0.73872 0.76391
2151.218 0.76518 0.7747 0.78222 0.78889 0.79362 0.77264 0.77872 0.78645 0.78085 0.78896
2170.511 0.78585 0.78139 0.77111 0.75974 0.78123 0.8037 0.7932 0.8004 0.79293 0.7985
2189.804 0.808 0.8081 0.8112 0.807 0.8207 0.8094 0.77137 0.74987 0.74995 0.78766
2209.098 0.8072 0.78975 0.8045 0.7975 0.79469 0.8237 0.8351 0.8339 0.8127 0.77654
2228.391 0.77867 0.8107 0.8259 0.8281 0.8282 0.8142 0.77362 0.76491 0.8208 0.8296
2247.685 0.8161 0.8355 0.8424 0.8302 0.8059 0.8089 0.8363 0.8365 0.8261 0.8428
2266.978 0.8276 0.8101 0.843 0.8438 0.8491 0.8634 0.8343 0.805 0.78994 0.8301
2286.272 0.8511 0.8182 0.7943 0.7991 0.8289 0.8402 0.826 0.8345 0.8025 0.7965
2305.565 0.8157 0.8078 0.8377 0.8535 0.8519 0.8409 0.8619 0.8614 0.8497 0.8603
2324.858 0.8588 0.8215 0.8149 0.79498 0.76497 0.771 0.76731 0.78995 0.7999 0.8019
2344.152 0.8241 0.8328 0.8362 0.8453 0.8201 0.77364 0.79385 0.8378 0.8306 0.79231
2363.445 0.75443 0.77266 0.79155 0.78064 0.78227 0.8093 0.8084 0.8053 0.8271 0.8269
2382.739 0.8162 0.8044 0.77946 0.76579 0.77128 0.7988 0.8259 0.839 0.8377 0.78571
2402.032 0.7829 0.79024 0.8101 0.806 0.78078 0.8027 0.76724 0.7604 0.7995 0.79218
2421.326 0.78281 0.76739 0.78419 0.8275 0.8043 0.801 0.8053 0.8004 0.79583 0.7971
2440.619 0.79135 0.78944 0.79203 0.77504 0.78577 0.77136 0.79109 0.7981 0.75134 0.76763
2459.912 0.79534 0.78826 0.8286 0.8511 0.8068 0.7962 0.7803 0.797 0.843 0.832
2479.206 0.7967 0.8024 0.8129 0.803 0.78878 0.75213 0.77881 0.8151 0.78719 0.77005
2498.499 0.79349 0.7988 0.8136 0.8441 0.8213 0.8089 0.8245 0.806 0.8073 0.8345
2517.793 0.8135 0.8249 0.8644 0.8076 0.77012 0.77504 0.77889 0.8382 0.8364 0.8017
2537.086 0.8287 0.8362 0.8223 0.78949 0.8002 0.8218 0.77901 0.78732 0.8088 0.8186
2556.380 0.8227 0.79033 0.79041 0.7974 0.77357 0.77713 0.8133 0.8057 0.7998 0.7984
2575.673 0.78762 0.8053 0.8081 0.8045 0.8037 0.7972 0.7991 0.8278 0.851 0.8272
2594.966 0.8208 0.8514 0.8022 0.77194 0.76842 0.77 0.8113 0.8191 0.79218 0.77086
2614.260 0.75794 0.77309 0.7693 0.74062 0.76584 0.7995 0.76833 0.75599 0.76246 0.73349
2633.553 0.72198 0.76241 0.8451 0.8813 0.8173 0.75237 0.75287 0.7904 0.79555 0.75527
2652.847 0.76584 0.76011 0.77609 0.8007 0.78302 0.76889 0.73834 0.7198 0.68696 0.71709
2672.140 0.70618 0.6555 0.698061 0.71737 0.73064 0.78054 0.78913 0.73229 0.73967 0.75265
2691.434 0.72008 0.76811 0.8106 0.8039 0.8047 0.78625 0.78153 0.74621 0.6715 0.651
2710.727 0.71783 0.77777 0.76741 0.75687 0.79093 0.8295 0.8157 0.815 0.8407 0.8214
2730.020 0.77517 0.7581 0.76098 0.82 0.8308 0.78341 0.76111 0.79586 0.7985 0.74078
2749.314 0.73677 0.75771 0.79116 0.72616 0.69396 0.76214 0.76334 0.74484 0.75812 0.73438
2768.607 0.75588 0.75771 0.69238 0.73329 0.79264 0.78684 0.75887 0.71134 0.71171 0.73571
2787.901 0.71283 0.6713 0.701676 0.7778 0.78466 0.76361 0.76419 0.72848 0.73502 0.76037
2807.194 0.75309 0.702905 0.6597 0.73647 0.75744 0.68998 0.6494 0.68753 0.72851 0.69397
2826.488 0.697108 0.7994 0.8204 0.72399 0.6639 0.71873 0.71789 0.700957 0.72957 0.69074
2845.781 0.703162 0.71841 0.8004 0.8464 0.75295 0.76438 0.8831 0.8705 0.78373 0.7972
2865.074 0.8056 0.75451 0.73433 0.76098 0.77439 0.71581 0.6698 0.68914 0.75035 0.7975
2884.368 0.75374 0.75757 0.7975 0.79197 0.74215 0.708 0.68951 0.70013 0.76228 0.7546
2903.661 0.71331 0.72806 0.74062 0.696386 0.6734 0.76799 0.8055 0.71879 0.71621 0.8305
2922.955 0.79328 0.6812 0.69807 0.698627 0.7988 0.8667 0.8382 0.852 0.8332 0.8193
2942.248 0.8369 0.8823 0.8767 0.8925 0.9496 0.8887 0.8617 0.9036 0.8694 0.8612
2961.542 0.8812 0.9889 1.1198 1.1766 1.2041 1.0991 1.0653 1.0857 1.0546 1.0404
2980.835 0.9783 0.9273 0.8346 0.8438 0.8978 0.822 0.7974 0.77762 0.70904 0.6805
3000.128 0.672 0.69101 0.6692 0.702251 0.75471 0.74207 0.8059 0.8746 0.8727 0.8798
3019.422 0.9436 1.0434 1.1243 1.2366 1.3486 1.3472 1.4543 1.5596 1.706 1.886
3038.715 1.926 1.926 1.826 1.766 1.746 1.706 1.6724 1.664 1.5256 1.405
3058.009 1.4059 1.4009 1.4839 1.618 1.856 2.196 2.516 2.756 2.846 2.806
3077.302 2.596 2.186 1.966 1.806 1.6123 1.498 1.4727 1.4087 1.2706 1.3369
3096.596 1.3656 1.1677 1.054 1.0604 1.0607 1.0242 0.9071 0.8979 0.8085 0.73309
3115.889 0.74393 0.663 0.6708 0.595 0.449 0.502 0.543 0.575 0.6125 0.51
3135.182 0.366 0.322 0.348 0.37 0.376 0.306 0.334 0.404 0.325 0.381
3154.476 0.475 0.426 0.332 0.316 0.459 0.455 0.431 0.437 0.319 0.3
3173.769 0.351 0.287 0.266 0.377 0.411 0.337 0.266 0.24 0.165 0.11
3193.063 0.256 0.312 0.244 0.285 0.337 0.323 0.251 0.2 0.186 0.246
3212.356 0.258 0.194 0.247 0.302 0.348 0.275 0.197 0.272 0.36 0.3
3231.650 0.175 0.262 0.32 0.25 0.242 0.18 0.089 0.081 0.121 0.151
3250.943 0.135 0.116 0.261 0.378 0.224 0.173 0.261 0.239 0.122 0.118
3270.236 0.18 0.187 0.169 0.114 0.165 0.224 0.176 0.097 0.03 0.102
3289.530 0.225 0.334 0.354 0.267 0.273 0.196 0.174 0.304 0.177 0.125
3308.823 0.165 0.138 0.164 0.116 0.093 0.128 0.161 0.164 0.138 0.109
3328.117 0.12 0.174 0.242 0.164 0 0.069 0.148 0.187 0.242 0.224
3347.410 0.144 0.059 0.14 0.253 0.203 0.186 0.208 0.15 0.164 0.173
3366.704 0.118 0.143 0.228 0.25 0.269 0.185 0.11 0.144 0.212 0.253
3385.997 0.207 0.172 0.133 0.183 0.18 0.15 0.218 0.332 0.37 0.217
3405.290 0.247 0.493 0.700239 0.8767 1.0983 1.4048 1.6868 2.116 2.766 3.246
3424.584 3.746 4.226 4.406 4.376 3.986 3.276 2.536 1.986 1.5357 1.0954
3443.877 0.77273 0.6035 0.464 0.358 0.461 0.547 0.554 0.587 0.504 0.556
3463.171 0.6183 0.545 0.529 0.519 0.498 0.506 0.52 0.469 0.432 0.45
3482.464 0.436 0.385 0.472 0.466 0.371 0.433 0.422 0.439 0.422 0.374
3501.758 0.345 0.371 0.385 0.375 0.391 0.34 0.285 0.205 0.224 0.241
3521.051 0.212 0.177 0.213 0.231 0.193 0.262 0.296 0.233 0.202 0.251
3540.344 0.274 0.266 0.311 0.27 0.226 0.292 0.197 0.133 0.273 0.282
3559.638 0.217 0.239 0.191 0.155 0.187 0.269 0.319 0.257 0.167 0.207
3578.931 0.333 0.311 0.209 0.126 0.122 0.245 0.21 0.133 0.311 0.328
3598.225 0.241 0.208 0.136 0.252 0.357 0.304 0.176 0.136 0.177 0.189
3617.518 0.209 0.241 0.302 0.221 0.166 0.272 0.319 0.301 0.287 0.274
3636.812 0.296 0.271 0.235 0.259 0.242 0.259 0.219 0.23 0.317 0.247
3656.105 0.216 0.293 0.358 0.382 0.423 0.404 0.255 0.242 0.321 0.274
3675.398 0.268 0.307 0.248 0.293 0.329 0.278 0.325 0.294 0.254 0.287
3694.692 0.237 0.169 0.256 0.333 0.277 0.3 0.311 0.289 0.247 0.241
3713.985 0.368 0.408 0.391 0.357 0.287 0.321 0.385 0.342 0.299 0.365
3733.279 0.269 0.112 0.217 0.277 0.256 0.209 0.233 0.282 0.191 0.173
3752.572 0.24 0.366 0.45 0.472 0.433 0.319 0.294 0.292 0.327 0.375
3771.866 0.377 0.375 0.381 0.384 0.317 0.344 0.397 0.309 0.299 0.333
3791.159 0.357 0.362 0.267 0.231 0.295 0.336 0.354 0.368 0.327 0.316
3810.452 0.331 0.349 0.296 0.225 0.284 0.253 0.185 0.282 0.357 0.351
3829.746 0.329 0.312 0.399 0.358 0.333 0.417 0.384 0.423 0.406 0.345
3849.039 0.321 0.346 0.366 0.283 0.341 0.476 0.525 0.536 0.437 0.31
3868.333 0.352 0.419 0.488 0.506 0.448 0.42 0.327 0.311 0.362 0.378
3887.626 0.415 0.419 0.414 0.394 0.403 0.434 0.414 0.374 0.395 0.45
3906.920 0.429 0.456 0.437 0.384 0.429 0.423 0.451 0.536 0.529 0.445
3926.213 0.412 0.392 0.32 0.41 0.455 0.401 0.498 0.483 0.384 0.395
3945.506 0.442 0.408 0.313 0.261 0.317 0.438 0.48 0.425 0.397 0.369
3964.800 0.345 0.41 0.462 0.428 0.429 0.406 0.376 0.473 0.493 0.479
3984.093 0.515 0.518 0.453 0.325 0.367 0.412 0.377 0.412 0.469
##END=
