##TITLE=Chloramben methyl
##JCAMP-DX=4.24
##DATA TYPE=INFRARED SPECTRUM
##ORIGIN=NIST Mass Spectrometry Data Center
##OWNER=NIST Standard Reference Data Program
Collection (C) 2018 copyright by the U.S. Secretary of Commerce
on behalf of the United States of America. All rights reserved.
##CAS REGISTRY NO=7286-84-2
##MOLFORM=C 8 H 7 Cl 2 N O 2
##$NIST SOURCE=MSDC-IR
##SPECTROMETER/DATA SYSTEM=HP-GC/MS/IRD
##STATE=gas
##XUNITS=1/CM
##YUNITS=ABSORBANCE
##XFACTOR=1.0
##YFACTOR=0.000000300
##DELTAX=4.0
##FIRSTX=550.0
##LASTX=3846.0
##FIRSTY=0.000211
##MAXX=3846
##MINX=550
##MAXY=0.003
##MINY=0
##NPOINTS=825
##XYDATA=(X++(Y..Y))
550.0 704 226 5 436 452 432 386 339 344 260
590.0 404 371 322 487 409 374 644 565 475 574
630.0 354 168 381 366 136 28 225 541 712 775
670.0 764 777 920 946 1022 1005 982 1060 872 708
710.0 786 779 686 741 902 909 888 1165 1381 1480
750.0 1536 1397 1118 874 788 816 886 916 914 896
790.0 706 681 755 706 656 527 466 403 531 623
830.0 620 866 1203 1648 2075 2190 1838 1454 1276 1098
870.0 761 560 485 453 378 279 271 229 323 336
910.0 409 551 690 906 1209 1624 1783 1839 1637 1331
950.0 1099 767 559 488 287 192 349 462 474 514
990.0 673 934 1442 1869 2069 2139 1926 1540 1296 1265
1030.0 1276 1403 1826 1964 1817 1861 1667 1139 603 531
1070.0 688 768 838 1160 1624 2132 2572 2863 3061 2752
1110.0 2459 2280 1887 1679 1467 997 697 683 670 819
1150.0 955 1140 1419 1949 2868 3904 5033 5982 6176 5764
1190.0 5407 5215 4975 4170 3056 2079 1315 1018 998 1157
1230.0 1637 2563 3832 5080 5968 6111 5274 4071 2970 2423
1270.0 2365 2681 3252 3885 4276 4259 4099 4342 5309 6999
1310.0 8863 10000 9670 7962 5632 3601 2305 1551 1114 866
1350.0 768 697 592 491 387 357 327 296 330 328
1390.0 326 409 543 766 1166 1761 2433 2972 3234 3200
1430.0 3127 3187 3296 3290 3035 2900 2927 2885 2620 2113
1470.0 1567 1185 935 794 729 666 589 565 525 390
1510.0 355 403 425 422 421 424 435 470 551 660
1550.0 801 1003 1305 1835 2452 2963 3311 3312 2905 2418
1590.0 2105 2085 2411 3092 4079 5129 5853 5987 5402 4348
1630.0 3279 2408 1768 1311 1070 921 785 721 646 573
1670.0 522 528 545 533 513 518 510 556 674 762
1710.0 911 1177 1453 1746 2118 2597 3164 3946 5130 6598
1750.0 7913 8439 7891 6574 5057 3875 3116 2493 1921 1409
1790.0 993 677 526 401 298 247 213 217 219 205
1830.0 127 91 62 24 49 78 79 75 99 103
1870.0 85 68 48 44 79 89 74 43 44 0
1910.0 21 75 28 27 67 106 117 106 95 58
1950.0 97 118 52 81 105 47 59 89 69 37
1990.0 49 92 86 88 143 158 118 111 154 144
2030.0 117 149 209 191 158 141 135 113 93 158
2070.0 211 192 118 82 106 102 107 177 181 119
2110.0 134 171 145 77 82 133 124 120 137 149
2150.0 123 123 98 85 97 103 111 58 96 149
2190.0 94 87 108 130 143 114 115 107 59 59
2230.0 70 72 34 93 156 150 72 68 103 52
2270.0 9 45 115 141 145 92 79 97 108 115
2310.0 134 157 146 134 186 172 86 82 129 172
2350.0 186 187 183 218 218 165 122 159 214 145
2390.0 71 105 143 115 99 111 141 188 197 162
2430.0 115 80 36 72 134 106 132 145 123 83
2470.0 136 202 150 94 113 119 98 110 142 147
2510.0 210 284 222 226 208 109 84 64 110 204
2550.0 255 226 181 163 75 55 127 183 217 144
2590.0 203 307 316 267 187 150 122 119 173 252
2630.0 320 299 236 232 218 202 151 126 152 111
2670.0 102 141 205 260 292 246 184 179 188 246
2710.0 272 220 163 216 306 338 297 161 156 225
2750.0 222 291 282 242 249 178 105 212 246 237
2790.0 214 261 322 259 247 289 344 323 303 354
2830.0 336 304 397 473 518 495 479 504 497 454
2870.0 428 423 408 320 333 381 411 488 523 576
2910.0 500 352 345 402 464 495 512 560 614 790
2950.0 998 1343 1937 2237 1984 1554 1044 642 436 440
2990.0 521 455 580 675 658 729 645 535 505 556
3030.0 581 590 540 385 420 457 453 432 328 348
3070.0 339 378 422 302 272 292 375 387 256 150
3110.0 281 367 256 303 299 179 162 289 444 338
3150.0 206 234 187 168 174 156 234 296 352 267
3190.0 287 312 267 207 145 225 308 270 221 269
3230.0 322 294 175 166 229 251 221 217 284 283
3270.0 230 247 241 272 266 239 317 286 295 356
3310.0 382 250 168 229 315 241 199 309 290 261
3350.0 310 436 343 223 361 305 274 330 310 348
3390.0 489 606 624 767 921 1103 1391 1473 1423 1367
3430.0 1106 787 600 454 402 370 383 500 442 349
3470.0 318 280 292 364 451 544 660 843 991 991
3510.0 997 1101 1080 817 708 668 554 427 350 359
3550.0 258 146 52 146 162 91 155 258 402 457
3590.0 312 204 189 179 178 132 140 306 429 395
3630.0 259 176 129 101 214 285 245 180 120 259
3670.0 208 121 147 44 63 86 93 116 130 184
3710.0 294 297 365 372 282 183 174 215 215 199
3750.0 7 29 180 157 131 130 185 334 357 292
3790.0 291 195 266 253 26 77 134 136 159 159
3830.0 278 350 360 433 451
##END=
