##TITLE=Acetophenone azine
##JCAMP-DX=4.24
##DATA TYPE=INFRARED SPECTRUM
##ORIGIN=EPA-IR VAPOR PHASE LIBRARY
##OWNER=SRD/NIST
Collection (C) 2018 copyright by the U.S. Secretary of Commerce
on behalf of the United States of America. All rights reserved.
##CAS REGISTRY NO=729-43-1
##MOLFORM=C 16 H 16 N 2
##$NIST SOURCE=MSDC-IR
##STATE=gas
##XUNITS=1/CM
##YUNITS=ABSORBANCE
##XFACTOR=1.
##YFACTOR=0.001
##DELTAX=3.85796
##FIRSTX=551.7
##LASTX=4000.7
##FIRSTY=13.49
##MAXX=4000.7
##MINX=551.688
##MAXY=0.09442
##MINY=0.0001325
##NPOINTS=895
##XYDATA=(X++(Y..Y))
551.688 13.49 17.78 21.66 22.75 20.28 16.2 12.15 9.03 6.99 5.89
590.268 5.41 5.3 5.35 5.53 5.97 6.51 7.05 7.24 6.88 6.67
628.847 7.09 7.87 9.15 11.07 13.5 16.73 20.91 25.11 27.94 29.54
667.427 31.83 36.52 44.34 55.59 69.04 82.62 91.18 88.24 75.81 60.26
706.006 46.38 35.81 28.28 23.5 21.12 20.27 20.29 21.79 25.36 31.72
744.586 41.69 54.78 67.95 74.87 70.33 57.46 43.3 31.94 24 18.66
783.165 15 12.27 10.04 7.91 6.01 4.67 3.76 3.12 2.74 2.49
821.745 2.54 2.34 2.03 2.05 2.02 2 2.04 2.1 2.2 2.32
860.324 2.51 2.82 3.18 3.56 3.89 4.29 4.63 4.91 5.27 5.61
898.904 6.15 7.03 7.83 8.13 7.86 7.16 6.24 5.53 5.11 4.79
937.484 4.58 4.55 4.54 4.49 4.52 4.71 4.99 5.42 5.94 6.24
976.063 6.4 6.34 6.09 5.88 5.9 6.18 6.64 7.42 9.07 12.16
1014.643 17.89 28.88 42.36 46.33 35.99 21.88 13.88 11.17 10.26 10.04
1053.222 10.22 11 12.39 14.83 18.53 22.68 25.56 24.97 21.36 17.35
1091.802 14.14 11.85 10.04 8.31 6.86 5.85 5.26 5.01 4.81 4.55
1130.381 3.98 3.4 3.05 2.83 2.86 3.23 3.6 3.75 3.8 4.24
1168.961 5.42 8.61 16 22.85 21.22 13.3 7.32 5.16 4.28 3.91
1207.540 4.04 4.56 5.25 6.25 7.7 9.66 11.13 11.1 10.08 9.15
1246.120 9.02 9.82 11.23 13.25 16.31 20.91 27.48 36.8 49.48 63.65
1284.699 74.82 77.18 68.77 54.64 43.06 36.65 31.61 25.42 19.59 15.77
1323.279 13.59 12.18 11.2 10.82 11.26 12.64 15.1 19.16 25.6 35.44
1361.859 49.03 62.44 67.93 62.17 49.97 37.65 27.97 21.56 17.84 15.69
1400.438 14.51 13.84 13.57 13.71 14.3 15.45 17.24 19.8 23.17 27.14
1439.018 31.49 34.41 33.76 29.43 23.79 18.9 15.69 13.61 12.48 12.23
1477.597 12.97 15.19 19.69 26.78 32.31 30.16 21.91 15.08 12.27 11.7
1516.177 11.72 11.84 11.93 11.97 12.02 12.14 12.38 12.82 13.51 14.55
1554.756 15.98 18.1 21.1 24.8 28.75 31.04 30.4 28.33 28.09 31.63
1593.336 38.89 49.31 62.62 76.7 84.53 79.15 63.46 47.02 34.26 24.76
1631.915 18.68 14.96 12.68 11.21 10.2 9.56 9.15 9.06 9.27 9.6
1670.495 9.49 8.53 7.09 5.76 4.77 4.15 3.72 3.4 3.2 3.07
1709.075 3.02 3.07 3.19 3.37 3.6 3.88 4.19 4.52 4.73 4.72
1747.654 4.53 4.17 3.73 3.32 3.03 2.93 3.15 3.52 3.8 4.06
1786.234 4.85 6.4 8.07 8.63 7.55 5.79 4.56 4.08 3.98 3.87
1824.813 3.53 3.04 2.59 2.32 2.23 2.24 2.34 2.51 2.77 3.16
1863.393 3.61 4.09 4.63 5.07 5.51 6.03 6.47 6.47 5.69 4.4
1901.972 3.32 2.73 2.44 2.39 2.54 2.88 3.41 4.01 4.65 5.37
1940.552 6.13 6.67 6.83 6.86 6.81 6.28 4.99 3.42 2.33 1.83
1979.131 1.6 1.46 1.36 1.27 1.23 1.17 1.06 0.9863 0.9172 0.8789
2017.711 0.8499 0.8382 0.8628 0.8351 0.8022 0.8395 0.8673 0.8443 0.8468 0.8682
2056.291 0.9267 0.9313 0.8834 0.8467 0.7961 0.7874 0.7661 0.7439 0.7655 0.7957
2094.870 0.8428 0.8726 0.8493 0.8353 0.8383 0.8381 0.8217 0.7906 0.741 0.6702
2133.450 0.6701 0.6679 0.6363 0.6532 0.639 0.6172 0.6153 0.6202 0.6156 0.6098
2172.029 0.6258 0.6662 0.6834 0.6312 0.5904 0.5732 0.5514 0.5602 0.5911 0.5947
2210.609 0.6245 0.6325 0.6154 0.6275 0.6592 0.6907 0.7253 0.7718 0.7993 0.8341
2249.188 0.8604 0.9007 0.9643 1.01 1.04 1.08 1.12 1.16 1.18 1.18
2287.768 1.19 1.15 1.11 1.15 1.28 1.51 1.87 2.19 2.14 1.81
2326.347 1.54 1.47 1.52 1.57 1.56 1.46 1.32 1.27 1.31 1.35
2364.927 1.32 1.29 1.26 1.2 1.12 1.06 1.03 1.01 0.9911 0.9579
2403.507 0.9348 0.9222 0.9303 0.9041 0.8601 0.8684 0.9015 0.9054 0.8672 0.9033
2442.086 0.9605 0.9223 0.8726 0.8692 0.8464 0.8132 0.839 0.8487 0.7923 0.6978
2480.666 0.6837 0.6947 0.6648 0.6718 0.6853 0.6684 0.6609 0.6736 0.6664 0.6537
2519.245 0.6884 0.6857 0.691 0.7274 0.7064 0.7231 0.7787 0.8166 0.7822 0.781
2557.825 0.8144 0.8261 0.8872 0.9466 0.9693 1.03 1.13 1.21 1.28 1.29
2596.404 1.31 1.32 1.25 1.16 1.11 1.12 1.22 1.26 1.27 1.29
2634.984 1.29 1.23 1.2 1.2 1.14 1.12 1.13 1.12 1.12 1.13
2673.563 1.16 1.15 1.14 1.13 1.13 1.1 1.05 1.05 1.06 1.06
2712.143 1.08 1.12 1.14 1.13 1.06 0.9748 0.9438 0.9172 0.9154 0.887
2750.722 0.8478 0.8646 0.8733 0.9179 1 1.06 1.1 1.15 1.16 1.21
2789.302 1.28 1.31 1.36 1.43 1.52 1.61 1.71 1.87 2.07 2.25
2827.882 2.52 2.9 3.33 3.89 4.52 5.21 5.81 6.27 6.55 6.5
2866.461 6.47 6.62 6.81 7.08 7.37 7.63 7.83 8.12 8.6 9.19
2905.041 10.08 11.45 13.5 16.56 20.72 24.94 27.38 27.16 25.1 22.6
2943.620 20.41 18.88 18.01 17.58 17.09 16.38 15.58 14.78 14.21 13.79
2982.200 13.4 13.12 13.15 13.64 14.51 15.64 16.83 18.18 19.98 22.57
3020.779 26.08 30.29 35.02 39.73 43.37 44.76 44 43.1 45.18 52.09
3059.359 63.81 78.94 92.53 94.42 80.42 62.1 51.59 47.51 44.15 40.02
3097.938 35.39 30.76 26.27 21.71 17.04 12.95 10.07 8.4 7.39 6.68
3136.518 6.21 5.7 5.21 4.78 4.36 4.03 3.68 3.34 3.11 2.9
3175.098 2.73 2.68 2.63 2.59 2.58 2.52 2.4 2.26 2.14 1.93
3213.677 1.67 1.56 1.38 1.1 0.9819 0.9332 0.8451 0.8659 0.8251 0.7173
3252.257 0.5893 0.4642 0.453 0.4367 0.4266 0.39 0.3411 0.3987 0.454 0.3984
3290.836 0.3846 0.4571 0.3959 0.3563 0.3758 0.3087 0.2786 0.2361 0.2798 0.3662
3329.416 0.3257 0.3958 0.4609 0.3438 0.2469 0.2363 0.2805 0.2753 0.2948 0.3139
3367.995 0.2958 0.271 0.2668 0.3203 0.3205 0.3302 0.408 0.3571 0.2892 0.3033
3406.575 0.2593 0.2644 0.2652 0.2912 0.3063 0.2259 0.2834 0.3296 0.3341 0.3821
3445.154 0.3329 0.2975 0.3459 0.3894 0.3431 0.336 0.3961 0.3762 0.2906 0.2367
3483.734 0.2538 0.3259 0.3384 0.3061 0.3233 0.3299 0.3008 0.2975 0.3621 0.3946
3522.314 0.3414 0.2922 0.2333 0.2487 0.2263 0.1325 0.156 0.2722 0.3957 0.2621
3560.893 0.1943 0.2349 0.209 0.2753 0.2382 0.1542 0.2019 0.2125 0.2347 0.3113
3599.473 0.2817 0.2651 0.2322 0.185 0.179 0.2015 0.2596 0.3016 0.3372 0.4248
3638.052 0.5329 0.644 0.6657 0.6687 0.7248 0.6751 0.6158 0.5815 0.552 0.5454
3676.632 0.6044 0.6511 0.6153 0.5879 0.6447 0.7227 0.7734 0.8185 0.7486 0.6828
3715.211 0.6329 0.5488 0.4744 0.4088 0.3645 0.3458 0.3835 0.3331 0.2635 0.3331
3753.791 0.4195 0.4032 0.341 0.3731 0.5018 0.4853 0.3802 0.4018 0.3447 0.3207
3792.370 0.4108 0.4798 0.4645 0.3682 0.4261 0.4792 0.4298 0.4352 0.3668 0.3049
3830.950 0.3577 0.3149 0.31 0.4028 0.402 0.3956 0.4008 0.3705 0.3832 0.3238
3869.530 0.2718 0.2917 0.2971 0.3468 0.3296 0.227 0.2984 0.3646 0.339 0.3776
3908.109 0.3316 0.3034 0.3187 0.3294 0.4142 0.4255 0.4373 0.4764 0.4576 0.5155
3946.689 0.5518 0.5697 0.5429 0.4537 0.5444 0.6102 0.5656 0.5269 0.5359 0.6641
3985.268 0.6511 0.6186 0.7121 0.8258 0.8998
##END=
