##TITLE=2,2,2-Trichloro-N,N-dimethylacetamide
##JCAMP-DX=4.24
##DATA TYPE=INFRARED SPECTRUM
##ORIGIN=EPA-IR VAPOR PHASE LIBRARY
##OWNER=SRD/NIST
Collection (C) 2018 copyright by the U.S. Secretary of Commerce
on behalf of the United States of America. All rights reserved.
##CAS REGISTRY NO=7291-33-0
##MOLFORM=C 4 H 6 Cl 3 N O
##$NIST SOURCE=MSDC-IR
##STATE=gas
##XUNITS=1/CM
##YUNITS=ABSORBANCE
##XFACTOR=1.
##YFACTOR=0.001
##DELTAX=1.92898
##FIRSTX=549.8
##LASTX=4000.7
##FIRSTY=0.6878
##MAXX=4000.7
##MINX=549.759
##MAXY=0.117279
##MINY=0
##NPOINTS=1790
##XYDATA=(X++(Y..Y))
549.759 0.6878 0.34394 0.077 0.2192 0.6958 0.7479 0.37267 0.37876 0.4266 0.285
569.049 0.30227 0.132 0.2895 0.7432 0.8559 0.5417 0.4823 0.6177 0.5802 0.7099
588.339 0.5511 0.5682 0.7522 0.6267 0.6789 0.7042 0.6947 0.7822 0.7649 0.6026
607.628 0.554 0.7633 1.0365 1.0423 0.989 1.286 1.389 1.359 1.479 1.519
626.918 1.709 1.759 1.849 2.329 2.899 3.599 4.719 6.349 8.339 10.749
646.208 12.859 15.639 18.919 20.229 21.879 24.869 26.639 27.119 27.149 27.779
665.498 28.889 29.779 29.659 27.699 24.869 22.009 19.279 16.289 13.389 10.819
684.787 8.499 6.689 5.389 4.619 3.919 3.439 3.279 3.189 3.129 3.129
704.077 2.979 2.789 2.679 2.679 2.809 2.859 2.869 2.749 2.469 2.519
723.367 2.529 2.329 2.179 2.219 2.149 1.939 2.019 1.989 1.849 1.779
742.657 1.779 1.959 1.949 1.789 2.059 2.129 2.059 1.969 1.759 1.729
761.947 1.879 2.229 2.359 2.429 2.699 3.079 3.659 4.139 4.749 5.659
781.236 6.759 8.099 9.769 12.049 14.679 17.849 21.689 25.839 30.539 35.689
800.526 40.569 44.909 48.389 50.459 51.469 51.419 49.419 44.679 37.889 31.729
819.816 27.689 24.579 21.769 19.769 19.269 20.499 23.019 26.449 30.239 33.859
839.106 36.899 39.259 40.509 40.329 38.959 36.389 32.739 28.449 24.289 20.439
858.395 16.449 12.919 10.119 7.659 5.999 5.049 4.329 3.669 3.309 3.199
877.685 2.959 2.809 2.749 2.669 2.559 2.359 2.379 2.429 2.289 2.089
896.975 1.899 1.829 1.879 1.769 1.639 1.609 1.489 1.399 1.349 1.2789
916.265 1.1976 1.2207 1.1264 1.064 1.0196 1.0411 1.217 1.24 1.329 1.539
935.555 1.789 1.859 1.969 2.319 2.809 3.379 3.949 4.609 5.349 6.209
954.844 7.129 7.989 8.709 9.329 9.829 10.149 10.199 9.909 9.429 8.609
974.134 7.639 6.719 5.669 4.559 3.739 2.999 2.519 2.109 1.799 1.669
993.424 1.409 1.3067 1.1238 1.1409 1.329 1.449 1.2919 1.1831 1.489 1.629
1012.714 1.389 1.0888 1.0809 1.2125 1.439 1.599 1.529 1.709 1.729 1.719
1032.003 2.159 2.349 2.589 2.939 3.079 3.419 3.909 4.239 4.529 5.029
1051.293 5.139 5.469 6.069 5.859 5.809 5.989 5.659 5.309 5.159 4.849
1070.583 4.599 4.129 3.719 3.649 3.659 3.679 3.449 3.229 3.109 3.189
1089.873 3.109 3.199 3.889 4.269 4.309 4.599 4.899 5.119 5.319 5.509
1109.163 5.459 5.749 6.339 6.299 6.609 7.299 7.839 8.319 8.879 9.959
1128.452 10.819 11.419 12.059 12.859 13.579 14.429 15.449 15.929 16.349 16.849
1147.742 16.899 16.539 16.359 15.479 14.369 13.249 12.039 11.019 9.609 8.499
1167.032 8.009 7.379 6.519 5.959 5.589 5.299 5.239 5.029 4.599 4.559
1186.322 4.569 4.239 4.179 3.969 3.539 3.489 3.619 3.709 3.909 4.249
1205.611 4.439 4.459 4.109 4.169 4.379 4.309 4.579 4.649 4.829 5.439
1224.901 6.019 6.129 6.419 6.969 7.319 7.909 8.829 9.579 10.119 10.829
1244.191 11.519 12.129 12.629 12.919 13.119 12.929 12.469 11.869 11.039 9.919
1263.481 8.809 7.769 6.649 5.669 4.889 4.379 3.949 3.509 3.099 2.899
1282.771 2.889 2.809 2.669 2.669 2.719 2.809 2.909 2.909 3.019 3.059
1302.060 3.019 3.049 3.009 3.039 3.059 3.039 3.029 3.049 3.159 3.329
1321.350 3.449 3.519 3.679 3.939 4.209 4.469 4.769 5.129 5.559 5.999
1340.640 6.569 7.209 7.969 8.919 10.019 11.319 12.779 14.389 16.259 18.249
1359.930 20.349 22.579 24.719 26.739 28.599 30.159 31.249 31.799 31.809 31.269
1379.219 30.199 28.629 26.709 24.579 22.269 20.009 17.939 16.079 14.469 13.129
1398.509 12.139 11.389 10.859 10.499 10.169 9.869 9.659 9.439 9.129 8.759
1417.799 8.269 7.709 7.269 6.799 6.319 5.999 5.729 5.579 5.609 5.699
1437.089 5.879 6.119 6.469 6.999 7.569 8.159 8.779 9.319 9.789 10.219
1456.378 10.549 10.779 10.919 10.949 10.919 10.829 10.679 10.529 10.589 10.809
1475.668 10.989 11.119 11.239 11.379 11.369 11.219 10.979 10.589 10.169 9.799
1494.958 9.329 8.749 8.189 7.729 7.309 6.859 6.449 6.149 5.859 5.629
1514.248 5.449 5.179 4.959 4.769 4.569 4.459 4.309 4.109 3.989 3.819
1533.538 3.669 3.609 3.529 3.399 3.309 3.299 3.259 3.199 3.229 3.169
1552.827 2.999 2.929 2.859 2.749 2.769 2.809 2.819 2.719 2.709 2.739
1572.117 2.679 2.649 2.669 2.709 2.739 2.849 2.799 2.689 2.689 2.679
1591.407 2.699 2.769 2.789 2.719 2.719 2.689 2.639 2.639 2.629 2.629
1610.697 2.579 2.379 2.259 2.239 2.289 2.269 2.249 2.339 2.339 2.389
1629.986 2.539 2.549 2.579 2.719 2.929 3.139 3.319 3.509 3.689 3.959
1649.276 4.269 4.519 4.849 5.139 5.409 5.779 6.209 6.679 7.119 7.439
1668.566 7.909 8.429 8.969 9.599 10.369 11.299 12.539 14.049 16.219 19.369
1687.856 23.499 29.019 36.449 45.539 56.849 69.529 81.709 94.219 104.119 112.099
1707.146 116.969 117.279 111.799 102.019 90.059 76.929 62.429 48.499 36.019 26.219
1726.435 19.139 14.189 10.899 8.829 7.289 6.149 5.369 4.819 4.459 4.069
1745.725 3.819 3.679 3.479 3.359 3.359 3.319 3.259 3.149 3.039 2.989
1765.015 2.929 2.839 2.769 2.569 2.349 2.229 2.039 1.849 1.679 1.499
1784.305 1.409 1.369 1.2365 1.1318 1.1454 1.1227 1.0826 0.9936 0.9372 0.9225
1803.594 0.9179 0.8721 0.8033 0.8051 0.7592 0.7244 0.7113 0.719 0.7444 0.7366
1822.884 0.6839 0.6247 0.6268 0.6032 0.5779 0.58 0.6324 0.6583 0.6038 0.571
1842.174 0.522 0.5023 0.4944 0.4825 0.5332 0.534 0.5404 0.6079 0.6212 0.5581
1861.464 0.5116 0.5576 0.6039 0.5532 0.4916 0.5027 0.4948 0.4941 0.5276 0.5049
1880.754 0.485 0.5045 0.508 0.5207 0.5605 0.558 0.5078 0.4723 0.5183 0.5167
1900.043 0.4632 0.4584 0.4546 0.4363 0.4723 0.514 0.4859 0.5133 0.4927 0.4567
1919.333 0.5483 0.5169 0.484 0.5233 0.5304 0.57 0.5916 0.5926 0.5376 0.5185
1938.623 0.5584 0.5612 0.5689 0.5817 0.5938 0.5645 0.5725 0.5969 0.5867 0.5467
1957.913 0.513 0.5297 0.4812 0.4727 0.4987 0.4594 0.4743 0.5459 0.506 0.4548
1977.202 0.4414 0.4336 0.4451 0.4644 0.5237 0.4998 0.4266 0.4208 0.4285 0.4606
1996.492 0.5193 0.5031 0.508 0.5318 0.5211 0.5253 0.5235 0.4942 0.5007 0.5655
2015.782 0.5595 0.5337 0.5722 0.5867 0.5688 0.5276 0.4946 0.5104 0.4794 0.4339
2035.072 0.475 0.4772 0.4436 0.4418 0.4573 0.4348 0.37186 0.36842 0.431 0.3938
2054.362 0.35473 0.36676 0.34512 0.38257 0.38413 0.33022 0.308237 0.309748 0.314118 0.35362
2073.651 0.39892 0.39805 0.36429 0.3368 0.3262 0.32404 0.36364 0.35893 0.30653 0.32306
2092.941 0.37424 0.4119 0.40628 0.4339 0.4672 0.4616 0.4432 0.433 0.4514 0.4134
2112.231 0.2978 0.2727 0.37551 0.40086 0.4159 0.4408 0.4519 0.453 0.4103 0.4161
2131.521 0.441 0.4834 0.4819 0.4603 0.4564 0.4142 0.39348 0.4648 0.515 0.4738
2150.810 0.5063 0.5436 0.5199 0.4926 0.5003 0.52 0.524 0.5621 0.5741 0.5642
2170.100 0.6428 0.6443 0.5552 0.5379 0.539 0.5287 0.4945 0.492 0.5132 0.5233
2189.390 0.5057 0.4596 0.4564 0.4443 0.4198 0.465 0.474 0.5146 0.5487 0.508
2208.680 0.4914 0.4377 0.392 0.4124 0.476 0.5441 0.4999 0.4369 0.4308 0.432
2227.970 0.4336 0.4146 0.4704 0.474 0.38071 0.38223 0.4598 0.5016 0.4849 0.4458
2247.259 0.4491 0.4346 0.38252 0.4289 0.4672 0.4466 0.4915 0.5372 0.5502 0.5569
2266.549 0.4904 0.4399 0.482 0.4922 0.4756 0.4699 0.4954 0.5663 0.5879 0.5803
2285.839 0.5648 0.5036 0.4275 0.40297 0.429 0.4931 0.5805 0.5417 0.4939 0.5103
2305.129 0.5067 0.4624 0.40536 0.37985 0.33866 0.39013 0.4793 0.487 0.4169 0.34709
2324.418 0.34231 0.37336 0.39662 0.39767 0.40749 0.4251 0.38984 0.34656 0.4092 0.4861
2343.708 0.5332 0.5688 0.5508 0.5488 0.578 0.6084 0.6676 0.6542 0.5654 0.5283
2362.998 0.5783 0.5561 0.4395 0.39865 0.4391 0.4829 0.4819 0.39652 0.37984 0.4455
2382.288 0.4253 0.37514 0.37247 0.39446 0.4369 0.4667 0.4149 0.33066 0.33964 0.36907
2401.578 0.3482 0.39583 0.437 0.3731 0.34354 0.4106 0.39731 0.31952 0.33581 0.38636
2420.867 0.39908 0.3821 0.37854 0.4301 0.37506 0.30123 0.38136 0.38618 0.33521 0.33771
2440.157 0.3744 0.4492 0.4354 0.38983 0.4229 0.4414 0.4578 0.4227 0.37009 0.4344
2459.447 0.4899 0.4257 0.39276 0.436 0.39658 0.4413 0.5203 0.5159 0.548 0.5136
2478.737 0.416 0.4491 0.499 0.445 0.4596 0.5651 0.5803 0.5362 0.5881 0.587
2498.026 0.5656 0.5225 0.4832 0.4812 0.4806 0.5302 0.5352 0.5406 0.5248 0.5414
2517.316 0.5776 0.5099 0.4918 0.5021 0.5445 0.5567 0.4846 0.5454 0.5698 0.491
2536.606 0.474 0.479 0.5135 0.5024 0.4798 0.4862 0.538 0.5669 0.5197 0.5057
2555.896 0.5577 0.5745 0.5365 0.5345 0.4764 0.4342 0.4776 0.4808 0.4434 0.4972
2575.186 0.5423 0.5216 0.5135 0.5251 0.5445 0.5193 0.5014 0.5865 0.5168 0.4528
2594.475 0.5536 0.5163 0.4968 0.5705 0.5998 0.5333 0.4535 0.482 0.39899 0.36991
2613.765 0.4399 0.4315 0.4686 0.4936 0.5181 0.5594 0.5947 0.5586 0.577 0.629
2633.055 0.5271 0.4112 0.4256 0.5528 0.5934 0.5492 0.6321 0.627 0.5091 0.534
2652.345 0.5707 0.5042 0.4857 0.5367 0.5092 0.513 0.565 0.5305 0.5349 0.6468
2671.634 0.6616 0.6134 0.6459 0.616 0.5812 0.5974 0.5557 0.5241 0.5674 0.5466
2690.924 0.4684 0.5097 0.5333 0.4958 0.524 0.5973 0.6847 0.686 0.6742 0.6888
2710.214 0.6842 0.6435 0.5972 0.6269 0.7265 0.796 0.7076 0.6911 0.6714 0.6874
2729.504 0.7338 0.7273 0.7557 0.7422 0.8371 0.8506 0.7789 0.813 0.8706 0.9044
2748.794 0.8676 0.8007 0.8426 0.8826 0.8167 0.8032 0.8516 0.8991 0.8161 0.7174
2768.083 0.7713 0.8193 0.8643 0.9477 0.9187 0.912 0.9923 1.0599 1.0767 1.1326
2787.373 1.0968 1.0617 1.1627 1.1791 1.2933 1.419 1.609 1.719 1.839 2.059
2806.663 2.179 2.239 2.359 2.489 2.559 2.559 2.589 2.719 2.729 2.799
2825.953 2.889 2.789 2.789 2.889 2.909 2.999 3.179 3.259 3.279 3.319
2845.242 3.399 3.479 3.599 3.779 3.829 3.889 4.129 4.319 4.519 4.819
2864.532 5.019 5.289 5.669 5.869 6.099 6.279 6.439 6.569 6.599 6.749
2883.822 6.819 6.749 6.749 6.759 6.719 6.789 6.889 6.959 7.079 7.219
2903.112 7.449 7.649 7.779 8.009 8.279 8.549 8.729 8.969 9.479 10.059
2922.401 10.689 11.359 12.049 12.809 13.549 14.329 15.149 15.949 16.589 17.119
2941.691 17.589 17.959 18.129 18.159 18.199 17.959 17.609 17.129 16.419 15.649
2960.981 14.869 13.939 12.839 11.829 10.859 9.789 8.759 7.919 7.169 6.549
2980.271 5.989 5.339 4.889 4.589 4.239 3.959 3.709 3.449 3.269 3.119
2999.561 3.089 2.949 2.789 2.739 2.629 2.539 2.439 2.479 2.619 2.619
3018.850 2.519 2.419 2.349 2.459 2.549 2.359 2.299 2.419 2.409 2.469
3038.140 2.519 2.479 2.499 2.529 2.429 2.359 2.299 2.319 2.359 2.299
3057.430 2.259 2.289 2.309 2.129 2.049 2.059 2.009 1.939 1.839 1.799
3076.720 1.829 1.769 1.619 1.569 1.509 1.329 1.2471 1.2955 1.2703 1.2698
3096.009 1.329 1.359 1.2118 1.0024 0.8729 0.8702 0.9119 0.9321 1.0294 0.9697
3115.299 0.8188 0.7932 0.7973 0.7413 0.7662 0.7483 0.6774 0.6716 0.6937 0.6032
3134.589 0.4532 0.5437 0.707 0.7739 0.7084 0.5807 0.5542 0.5026 0.5859 0.7435
3153.879 0.6982 0.679 0.5727 0.548 0.6013 0.5393 0.5019 0.5244 0.5512 0.517
3173.169 0.5297 0.498 0.4904 0.6018 0.6167 0.5835 0.6127 0.5552 0.5039 0.6217
3192.458 0.6471 0.4673 0.4288 0.545 0.5899 0.5663 0.5853 0.6137 0.4865 0.38661
3211.748 0.4449 0.4912 0.4903 0.4337 0.37005 0.4118 0.4826 0.4543 0.39867 0.4623
3231.038 0.5885 0.5861 0.527 0.4212 0.33438 0.30495 0.30309 0.35832 0.37383 0.311716
3250.328 0.2875 0.29975 0.30594 0.3591 0.34286 0.3234 0.2894 0.2308 0.2337 0.2587
3269.617 0.33071 0.38672 0.38679 0.38604 0.4134 0.38801 0.4474 0.5726 0.4795 0.2782
3288.907 0.2366 0.4373 0.4622 0.39354 0.4648 0.4691 0.5043 0.39864 0.34581 0.4361
3308.197 0.32911 0.2754 0.34331 0.36568 0.38418 0.4662 0.5059 0.4598 0.4742 0.39251
3327.487 0.2782 0.30486 0.35628 0.5721 0.6805 0.4525 0.34422 0.34136 0.2967 0.2555
3346.777 0.312535 0.2688 0.163 0.2606 0.37155 0.4554 0.4685 0.3728 0.4805 0.7292
3366.066 0.7035 0.5614 0.5895 0.6006 0.7113 0.803 0.7492 0.8949 0.9697 1.0168
3385.356 1.1048 0.9627 0.879 0.9602 1.0807 1.1604 1.1515 1.1924 1.2746 1.223
3404.646 1.0369 0.9112 0.8708 0.8001 0.7818 0.8122 0.6523 0.5855 0.6034 0.5498
3423.936 0.5198 0.4732 0.4097 0.4637 0.628 0.37404 0.107 0.2523 0.4508 0.5067
3443.225 0.38472 0.2334 0.2819 0.4385 0.4972 0.4591 0.35266 0.2379 0.184 0.2
3462.515 0.2375 0.2139 0.2531 0.2792 0.2092 0.36004 0.313627 0.154 0.2455 0.3354
3481.805 0.37446 0.35977 0.33209 0.36773 0.34075 0.2639 0.2852 0.37886 0.4302 0.293
3501.095 0.2686 0.2645 0.2096 0.29971 0.39413 0.33617 0.2131 0.2225 0.2125 0.161
3520.385 0.135 0.2418 0.32151 0.313192 0.32341 0.2736 0.181 0.185 0.2493 0.177
3539.674 0.2113 0.37645 0.36194 0.28 0.2942 0.34615 0.35598 0.318357 0.164 0.07
3558.964 0.2111 0.2464 0.153 0.2699 0.4226 0.2794 0.178 0.16 0.029 0.107
3578.254 0.2535 0.312647 0.33592 0.2531 0.2373 0.3606 0.4633 0.3865 0.2317 0.2716
3597.544 0.38365 0.3378 0.32921 0.287 0.312612 0.35863 0.248 0.2886 0.36552 0.36586
3616.833 0.34844 0.2368 0.2647 0.4433 0.4732 0.4423 0.34482 0.2821 0.2528 0.192
3636.123 0.191 0.2673 0.3619 0.312669 0.2917 0.36111 0.2695 0.128 0.174 0.2322
3655.413 0.2926 0.37153 0.49 0.501 0.314336 0.2668 0.204 0.139 0.2743 0.2805
3674.703 0.2295 0.2202 0.197 0.2702 0.2992 0.32867 0.37017 0.2814 0.32632 0.38186
3693.993 0.2926 0.34945 0.313414 0.2261 0.3921 0.36023 0.2189 0.37425 0.5607 0.4198
3713.282 0.18 0.198 0.35109 0.269 0.184 0.2849 0.308133 0.2743 0.30777 0.4164
3732.572 0.4179 0.34625 0.310435 0.310936 0.283 0.065 0.051 0.204 0.112 0.131
3751.862 0.37369 0.4374 0.201 0.113 0.205 0.2 0.2191 0.2777 0.29 0.2314
3771.152 0.30521 0.4179 0.4461 0.33402 0.2836 0.38377 0.39398 0.30011 0.2517 0.2339
3790.441 0.124 0.154 0.35122 0.33795 0.19 0.142 0 0.003 0.169 0.192
3809.731 0.128 0.2506 0.3834 0.30603 0.2644 0.33695 0.2545 0.283 0.37694 0.2829
3829.021 0.37345 0.4112 0.2773 0.33927 0.33903 0.2519 0.2138 0.2662 0.309711 0.30372
3848.311 0.2282 0.146 0.2176 0.2726 0.2274 0.196 0.185 0.2295 0.37255 0.36669
3867.601 0.309815 0.248 0.185 0.2762 0.37497 0.35788 0.2811 0.2428 0.34816 0.34576
3886.890 0.089 0.056 0.183 0.31756 0.34222 0.30399 0.2657 0.2827 0.35381 0.32958
3906.180 0.31966 0.32559 0.2294 0.201 0.4493 0.40788 0.158 0.125 0.155 0.273
3925.470 0.3079 0.35497 0.409 0.34791 0.2846 0.218 0.3015 0.317653 0.35551 0.39783
3944.760 0.4463 0.4819 0.4495 0.4281 0.2607 0.36803 0.459 0.35156 0.4755 0.4505
3964.049 0.4105 0.4874 0.5081 0.4887 0.39761 0.33995 0.4156 0.37251 0.185 0.155
3983.339 0.3607 0.4704 0.4308 0.37135 0.2623 0.31322 0.38596 0.32647 0.36787 0.438
##END=
