##TITLE=Trimesitylborane
##JCAMP-DX=4.24
##DATA TYPE=INFRARED SPECTRUM
##ORIGIN=EPA-IR VAPOR PHASE LIBRARY
##OWNER=SRD/NIST
Collection (C) 2018 copyright by the U.S. Secretary of Commerce
on behalf of the United States of America. All rights reserved.
##CAS REGISTRY NO=7297-95-2
##MOLFORM=C 27 H 33 B
##$NIST SOURCE=MSDC-IR
##STATE=gas
##XUNITS=1/CM
##YUNITS=ABSORBANCE
##XFACTOR=1.
##YFACTOR=0.001
##DELTAX=1.92898
##FIRSTX=549.8
##LASTX=4000.7
##FIRSTY=1.2707
##MAXX=4000.7
##MINX=549.759
##MAXY=0.090721
##MINY=0
##NPOINTS=1790
##XYDATA=(X++(Y..Y))
549.759 1.2707 1.3439 2.281 2.751 2.721 3.111 3.101 3.371 3.841 3.001
569.049 2.091 2.391 2.991 3.201 3.271 3.141 2.341 1.2763 1.1709 1.2899
588.339 0.8074 0.6169 0.5657 0.5685 0.8984 1.2078 0.822 0.294 0.6712 0.9572
607.628 0.9146 0.9179 0.8433 0.8327 0.7896 0.643 0.728 0.5616 0.199 0.038
626.918 0.44663 0.8426 0.9372 1.1777 1.601 1.2166 0.8261 1.1486 1.3887 1.3813
646.208 0.9962 1.2134 1.631 1.621 2.041 2.461 3.031 4.581 6.251 8.571
665.498 10.061 8.981 7.571 6.331 5.101 4.781 4.971 5.031 4.431 3.771
684.787 3.811 4.171 4.131 4.241 4.551 4.161 3.761 3.681 3.391 3.561
704.077 4.361 4.401 4.701 6.111 8.201 10.751 13.921 18.531 22.991 25.391
723.367 24.191 20.071 14.991 9.941 6.391 4.451 3.161 2.281 1.981 2.031
742.657 2.261 2.521 2.771 2.771 2.621 2.711 2.861 2.791 2.761 2.721
761.947 2.621 2.291 2.221 2.361 2.061 2.001 2.331 2.491 2.141 1.981
781.236 2.181 2.131 1.741 1.3317 1.571 2.031 1.791 1.451 1.881 2.161
800.526 2.321 2.811 2.891 2.971 3.421 3.951 4.481 5.291 6.151 6.691
819.816 7.161 8.161 10.441 14.381 21.121 32.131 48.551 67.831 82.811 87.061
839.106 79.871 66.881 54.471 45.241 37.401 29.051 21.771 16.611 13.361 11.591
858.395 10.441 9.181 7.391 5.871 5.061 4.631 4.391 3.961 3.941 4.791
877.685 5.261 4.661 4.291 4.131 3.781 3.461 3.161 2.911 2.511 2.441
896.975 2.481 2.411 2.351 2.271 2.381 2.711 2.711 2.501 2.751 2.911
916.265 2.911 3.091 3.451 3.951 4.201 4.141 3.891 3.571 3.341 3.441
935.555 3.421 3.161 3.111 3.551 4.131 4.661 5.391 6.411 7.381 8.541
954.844 9.561 9.771 9.041 7.851 6.991 6.041 4.911 4.411 4.321 3.611
974.134 2.981 3.061 3.471 3.421 3.001 3.161 3.531 3.581 3.691 3.611
993.424 3.711 4.101 3.631 3.551 4.271 4.721 4.671 4.931 5.431 5.521
1012.714 6.181 7.161 7.681 7.661 8.121 8.631 8.541 8.181 7.951 8.181
1032.003 8.101 8.061 7.891 7.501 7.051 6.761 6.121 5.891 6.211 5.871
1051.293 5.751 5.301 4.731 4.571 4.831 4.901 4.181 3.681 3.691 3.271
1070.583 3.081 3.281 2.971 2.951 2.921 2.731 2.541 2.961 3.751 3.291
1089.873 3.681 3.811 3.211 3.971 4.151 3.941 4.031 4.071 4.151 4.091
1109.163 4.051 3.921 3.251 3.171 3.841 4.331 4.691 4.961 5.481 6.101
1128.452 7.011 6.861 7.621 9.101 10.411 12.451 14.491 18.051 23.811 32.691
1147.742 42.511 49.571 51.741 47.621 37.881 27.701 20.181 14.261 10.751 9.041
1167.032 7.481 6.641 6.721 6.711 6.331 6.431 7.111 7.151 6.551 7.411
1186.322 9.461 10.841 12.241 14.421 16.681 19.181 22.801 28.101 33.271 39.691
1205.611 47.721 55.761 62.151 63.031 59.311 53.091 45.621 39.451 34.251 30.021
1224.901 29.301 31.351 34.811 40.021 46.031 51.631 56.351 57.711 54.941 49.791
1244.191 43.651 37.411 31.241 25.291 20.391 16.451 13.571 11.481 9.571 8.681
1263.481 8.501 8.071 7.571 7.541 7.931 8.411 9.341 10.041 10.611 10.631
1282.771 9.481 8.101 6.891 5.911 5.301 4.961 4.591 4.451 4.491 4.431
1302.060 4.441 4.361 4.441 4.731 4.711 4.761 4.881 4.891 5.131 5.331
1321.350 5.291 5.201 5.261 5.431 5.631 5.831 5.941 6.051 6.171 6.241
1340.640 6.251 6.291 6.471 6.561 6.661 6.891 7.121 7.461 7.771 8.061
1359.930 8.371 8.781 9.271 9.661 10.201 10.931 11.691 12.791 14.321 16.071
1379.219 17.831 19.061 19.581 19.401 18.881 18.441 18.461 19.191 20.431 22.161
1398.509 24.341 26.841 29.591 32.511 35.691 38.931 42.141 45.181 47.731 49.731
1417.799 50.941 51.411 51.221 50.141 48.451 46.381 43.851 41.131 38.331 35.701
1437.089 33.331 31.341 29.751 28.361 27.201 26.351 25.491 24.631 23.881 23.081
1456.378 22.251 21.511 20.991 20.681 20.351 19.991 19.611 19.071 18.521 18.021
1475.668 17.601 17.171 16.841 16.551 16.391 16.241 15.981 15.921 15.821 15.791
1494.958 15.851 15.951 16.101 16.221 16.401 16.511 16.751 17.061 17.361 17.771
1514.248 18.071 18.491 18.931 19.121 19.461 19.851 20.131 20.631 21.321 21.941
1533.538 22.481 22.921 23.191 23.241 22.871 22.301 21.421 20.361 19.271 18.061
1552.827 17.051 16.211 15.461 14.901 14.651 14.451 14.241 14.111 13.981 14.051
1572.117 14.231 14.561 15.081 15.631 16.471 17.761 19.411 21.931 25.481 29.861
1591.407 35.531 43.051 52.421 63.381 75.081 85.161 90.721 89.361 80.701 66.301
1610.697 50.321 36.521 26.251 19.431 14.851 11.691 9.781 8.301 7.101 6.401
1629.986 5.881 5.461 5.101 4.731 4.301 4.011 3.861 3.711 3.551 3.341
1649.276 3.091 2.931 2.871 2.781 2.631 2.391 2.241 2.251 2.271 2.301
1668.566 2.241 2.181 2.201 2.171 2.041 1.971 1.911 1.891 1.901 1.881
1687.856 1.791 1.751 1.741 1.681 1.841 1.981 2.011 2.171 2.241 2.501
1707.146 2.951 3.341 3.691 4.021 4.311 4.451 4.481 4.381 4.031 3.651
1726.435 3.281 2.891 2.451 2.181 2.201 2.311 2.401 2.391 2.491 2.731
1745.725 3.001 3.091 3.081 3.211 3.081 2.781 2.551 2.241 1.961 1.771
1765.015 1.581 1.511 1.491 1.461 1.3375 1.2399 1.2951 1.4231 1.461 1.3464
1784.305 1.3241 1.491 1.631 1.611 1.501 1.511 1.591 1.551 1.511 1.571
1803.594 1.531 1.471 1.471 1.4296 1.3494 1.2848 1.2044 1.1367 1.0659 1.0272
1822.884 1.053 0.9666 0.9133 0.9355 1.0812 1.0813 1.0467 1.0853 1.0706 1.1309
1842.174 1.1766 1.1195 1.0566 1.0528 1.059 1.063 1.0866 1.092 1.0466 1.0528
1861.464 1.1194 1.1827 1.147 1.1132 1.1656 1.2877 1.3913 1.3159 1.3021 1.481
1880.754 1.581 1.561 1.4097 1.3874 1.4278 1.4242 1.471 1.431 1.441 1.4123
1900.043 1.3914 1.451 1.471 1.3481 1.27 1.296 1.2622 1.3292 1.3857 1.3439
1919.333 1.3115 1.2452 1.2862 1.4051 1.4029 1.3972 1.451 1.481 1.491 1.491
1938.623 1.611 1.661 1.611 1.621 1.471 1.3469 1.3133 1.3039 1.3328 1.3139
1957.913 1.2725 1.1749 1.1262 1.0987 0.9993 1.0613 1.0863 1.0126 1.0029 1.0417
1977.202 1.1147 1.081 1.0342 0.945 0.8033 0.817 0.8907 0.8819 0.8331 0.8545
1996.492 0.8846 0.8217 0.8825 0.9114 0.7564 0.7401 0.8558 0.8431 0.7775 0.8119
2015.782 0.8245 0.7968 0.7629 0.7416 0.7344 0.6959 0.6341 0.6437 0.7419 0.7651
2035.072 0.7658 0.8139 0.8501 0.9133 1.0039 0.9205 0.8326 0.9231 0.9482 0.9075
2054.362 0.8089 0.7668 0.7514 0.7846 0.8593 0.8677 0.9528 0.9316 0.806 0.7704
2073.651 0.797 0.8449 0.8979 0.9059 0.7559 0.7281 0.8054 0.7798 0.8518 0.9268
2092.941 0.8518 0.7772 0.8759 0.9962 1.0297 1.0011 1.0296 1.0361 0.9569 0.9188
2112.231 0.9078 0.9321 0.9361 0.9648 0.9627 0.9318 0.8564 0.7891 0.8277 0.9099
2131.521 0.9561 0.9159 0.8544 0.886 0.928 0.9538 1.0231 1.0343 0.8951 0.8683
2150.810 0.989 0.9237 0.9882 1.1277 1.0996 1.1006 1.1403 1.1247 1.1363 1.1353
2170.100 1.1042 1.0275 1.0193 1.0985 1.0515 0.9849 0.9493 0.9471 0.9766 0.8252
2189.390 0.7321 0.8686 0.9244 0.9846 0.9635 0.8355 0.8457 0.8384 0.8545 0.8699
2208.680 0.7252 0.7224 0.9245 0.8801 0.7602 0.785 0.809 0.8509 0.7658 0.7611
2227.970 0.8835 0.8944 0.839 0.8361 0.8819 0.9386 0.9252 0.9209 0.8897 0.8654
2247.259 0.9016 0.9203 1.004 0.9401 0.8087 0.8057 0.8343 0.893 0.8483 0.7651
2266.549 0.8505 0.917 0.8558 0.9354 0.9543 0.8351 0.8547 0.8268 0.7659 0.9248
2285.839 0.9894 0.9852 1.0384 1.0369 1.0422 1.0192 1.1274 1.1537 1.0357 1.0848
2305.129 1.0755 1.0311 1.0879 0.951 0.8822 0.9498 0.9738 0.964 0.9274 0.919
2324.418 0.9916 1.0238 0.9845 1.0955 1.0549 0.9501 1.089 1.1641 1.0682 0.9461
2343.708 0.8892 0.8815 1.04 1.2022 1.2217 1.1561 1.1467 1.1528 1.0686 1.175
2362.998 1.2828 1.2417 1.2954 1.3421 1.2198 1.1829 1.2873 1.3168 1.3306 1.3579
2382.288 1.3118 1.2926 1.3738 1.441 1.394 1.3969 1.491 1.511 1.451 1.481
2401.578 1.4291 1.3831 1.4125 1.3737 1.461 1.571 1.581 1.501 1.491 1.511
2420.867 1.561 1.651 1.581 1.561 1.541 1.481 1.491 1.561 1.611 1.581
2440.157 1.491 1.3402 1.3892 1.561 1.561 1.412 1.3003 1.3975 1.451 1.481
2459.447 1.4113 1.3079 1.4235 1.511 1.601 1.581 1.561 1.601 1.551 1.431
2478.737 1.471 1.631 1.541 1.511 1.3329 1.2205 1.3749 1.4214 1.461 1.451
2498.026 1.2629 1.2048 1.222 1.1897 1.1745 1.0473 1.1004 1.2109 1.1026 1
2517.316 0.9348 0.9574 1.06 0.988 0.968 1.1356 1.1052 0.9738 0.9225 0.957
2536.606 1.0104 0.9614 0.8813 0.8031 0.7874 0.9734 1.183 1.102 0.9838 0.9334
2555.896 0.8951 0.9584 0.9336 0.9128 0.9985 0.8775 0.7385 0.7076 0.8706 1.0278
2575.186 1.0895 1.0002 0.9407 0.9915 0.9591 0.977 0.8353 0.8098 0.9508 0.9734
2594.475 0.9152 1.015 1.113 1.1736 1.0794 0.8895 0.9645 1.0833 1.072 1.0398
2613.765 1.1796 1.3007 1.2371 1.1408 1.1238 1.1456 1.1228 1.2134 1.325 1.2465
2633.055 1.2874 1.2796 1.206 1.2722 1.3825 1.4265 1.3844 1.4184 1.3717 1.3726
2652.345 1.427 1.491 1.571 1.551 1.621 1.751 1.711 1.631 1.671 1.621
2671.634 1.481 1.451 1.3877 1.3589 1.3536 1.3104 1.3163 1.3892 1.541 1.641
2690.924 1.491 1.386 1.531 1.531 1.561 1.681 1.681 1.641 1.651 1.781
2710.214 1.861 1.881 1.821 1.931 2.061 2.001 2.071 2.241 2.471 2.941
2729.504 3.401 3.801 4.281 4.841 5.231 5.401 5.201 4.661 4.181 3.721
2748.794 3.261 2.861 2.651 2.481 2.451 2.321 2.141 2.131 2.291 2.481
2768.083 2.301 2.261 2.381 2.291 2.251 2.331 2.421 2.531 2.731 2.801
2787.373 2.701 2.821 2.931 2.971 3.181 3.371 3.491 3.581 3.681 3.781
2806.663 4.041 4.181 4.411 4.691 4.781 5.051 5.331 5.351 5.521 6.041
2825.953 6.421 6.681 7.071 7.621 8.181 8.521 8.911 9.621 10.341 11.271
2845.242 12.381 13.311 14.391 15.711 17.251 19.021 20.851 22.921 25.051 26.901
2864.532 28.371 29.521 30.271 30.211 29.661 29.011 28.071 27.301 26.641 25.871
2883.822 25.661 25.451 25.051 24.831 24.691 24.661 24.841 25.341 25.831 26.571
2903.112 27.461 28.641 30.281 32.261 34.711 37.751 41.431 45.461 50.071 55.681
2922.401 62.091 68.491 74.131 78.191 79.711 78.061 73.641 67.541 60.671 54.031
2941.691 48.271 43.731 40.511 38.191 36.611 35.811 35.421 35.351 35.581 35.791
2960.981 36.141 36.431 36.441 36.621 36.991 37.011 36.881 36.831 37.081 37.371
2980.271 37.361 37.491 37.751 37.761 37.701 37.371 36.731 36.071 35.661 35.661
2999.561 35.951 36.981 38.551 40.151 41.611 42.621 42.831 42.341 41.551 40.891
3018.850 40.371 39.871 39.491 39.171 38.841 38.321 37.461 36.011 34.341 32.661
3038.140 30.301 27.361 24.671 22.351 20.261 18.871 17.411 15.941 14.981 14.001
3057.430 13.291 12.751 11.981 11.091 10.571 9.891 9.161 8.841 8.431 8.151
3076.720 7.621 6.891 6.591 6.491 6.211 5.621 5.231 5.121 4.981 4.801
3096.009 4.431 4.071 4.151 4.091 3.841 3.971 4.021 3.681 3.501 3.361
3115.299 3.031 2.891 2.641 2.371 2.291 2.201 2.191 2.121 1.951 1.991
3134.589 1.841 1.781 1.841 1.701 1.741 1.831 1.691 1.711 1.751 1.4181
3153.879 1.1818 1.3245 1.581 1.471 1.32 1.3262 1.3398 1.2696 0.9262 0.8895
3173.169 1.1395 1.1463 1.2564 1.0821 0.7683 0.8507 1.1492 1.2195 0.9185 0.6486
3192.458 0.6906 0.9144 0.9857 0.8216 0.6419 0.833 1.0067 1.1357 1.1501 0.8627
3211.748 0.8058 0.7924 0.7903 0.8891 0.6433 0.44431 0.6878 0.6605 0.6135 0.7488
3231.038 0.6855 0.62 0.7515 0.7719 0.5414 0.5851 0.7581 0.7141 0.7369 0.7898
3250.328 0.7505 0.599 0.677 0.7082 0.386 0.5381 0.6942 0.6647 0.7758 0.7127
3269.617 0.7277 0.8417 0.9045 0.9984 1.0201 0.8157 0.6731 0.5959 0.6141 0.8735
3288.907 0.7685 0.5474 0.7323 0.9079 0.8953 0.8903 0.7657 0.6513 0.6435 0.6865
3308.197 0.8007 0.6617 0.5595 0.7767 0.7124 0.7485 0.9405 0.8712 0.8626 0.8308
3327.487 0.8487 0.9127 0.7794 0.5545 0.6117 0.8066 0.9124 0.7813 0.7588 0.6952
3346.777 0.272 0.252 0.3628 0.43227 0.6613 0.7842 0.47733 0.294 0.3977 0.3669
3366.066 0.37 0.46148 0.5011 0.25 0.173 0.4023 0.51956 0.49229 0.4143 0.434441
3385.356 0.5319 0.5346 0.51437 0.49601 0.5081 0.51352 0.654 0.6052 0.3601 0.42736
3404.646 0.6144 0.5843 0.52126 0.5048 0.5488 0.6525 0.46939 0.5499 0.50472 0.327
3423.936 0.47166 0.4031 0.51426 0.6444 0.436636 0.44855 0.51661 0.50508 0.553 0.6356
3443.225 0.9808 1.1269 0.8807 0.734 0.777 0.7903 0.9011 0.9005 0.8792 0.8677
3462.515 0.6468 0.51808 0.49605 0.44398 0.42249 0.49047 0.44513 0.48024 0.45879 0.5786
3481.805 0.6923 0.45033 0.31 0.29 0.32 0.49837 0.5872 0.51434 0.44753 0.3449
3501.095 0.406 0.5877 0.6403 0.5928 0.52927 0.401 0.3858 0.45568 0.49288 0.5409
3520.385 0.51975 0.45719 0.47527 0.6359 0.6077 0.50267 0.52816 0.6021 0.7083 0.6227
3539.674 0.6657 0.7472 0.7398 0.6598 0.5704 0.5825 0.5788 0.5644 0.4098 0.431868
3558.964 0.5895 0.6532 0.5942 0.47279 0.6653 0.6746 0.5715 0.7814 0.5871 0.3487
3578.254 0.352 0.48946 0.6235 0.5445 0.436359 0.48005 0.5456 0.438049 0.3853 0.4084
3597.544 0.6588 0.8449 0.632 0.5556 0.6231 0.375 0.274 0.3802 0.325 0.3832
3616.833 0.435462 0.171 0.186 0.289 0.181 0.091 0.097 0.171 0.164 0.292
3636.123 0.375 0.243 0.093 0.011 0.222 0.439571 0.3496 0.247 0.109 0.146
3655.413 0.246 0.267 0.3596 0.48766 0.27 0.159 0.313 0.163 0.215 0.251
3674.703 0.059 0.21 0.166 0.059 0.036 0 0.205 0.06 0.039 0.205
3693.993 0.257 0.3959 0.515 0.52837 0.3698 0.319 0.3787 0.271 0.133 0.134
3713.282 0.246 0.44671 0.3908 0.251 0.287 0.233 0.151 0.248 0.42638 0.50278
3732.572 0.4729 0.3667 0.46047 0.52246 0.329 0.258 0.5477 0.5761 0.3379 0.3754
3751.862 0.312 0.239 0.199 0.202 0.221 0.24 0.288 0.3665 0.548 0.51898
3771.152 0.283 0.42157 0.49587 0.3469 0.3898 0.3802 0.298 0.217 0.125 0.44138
3790.441 0.69 0.46723 0.50595 0.47171 0.3803 0.28 0.208 0.268 0.323 0.3907
3809.731 0.308 0.4044 0.5986 0.45355 0.3426 0.327 0.4204 0.6655 0.42258 0.332
3829.021 0.5949 0.6667 0.5745 0.47349 0.3616 0.239 0.139 0.257 0.42798 0.49915
3848.311 0.46349 0.3952 0.48831 0.49379 0.5437 0.609 0.49377 0.3351 0.3964 0.46118
3867.601 0.7141 0.7836 0.6283 0.50809 0.306 0.123 0.197 0.4156 0.5929 0.6178
3886.890 0.6796 0.712 0.8893 0.9788 0.8313 0.709 0.7293 0.7835 0.6455 0.811
3906.180 0.9376 0.7756 0.46256 0.5612 0.7584 0.6277 0.7812 0.9532 0.8154 0.8001
3925.470 0.8913 0.8634 0.8308 0.7265 0.7889 0.6686 0.6699 0.9362 0.847 0.7807
3944.760 0.818 0.6574 0.555 0.6249 0.7523 1.062 1.1453 1.0928 1.187 1.039
3964.049 0.7543 0.9035 0.9436 0.8256 0.8388 0.7888 0.9161 0.864 0.8232 1.0126
3983.339 0.9853 0.6727 0.622 0.6374 0.4436 0.6783 0.6329 0.266 0.297 0.435776
##END=
