##TITLE=3-Methyl-3-heptene (c,t)
##JCAMP-DX=4.24
##DATA TYPE=INFRARED SPECTRUM
##ORIGIN=NIST Mass Spectrometry Data Center
##OWNER=NIST Standard Reference Data Program
Collection (C) 2018 copyright by the U.S. Secretary of Commerce
on behalf of the United States of America. All rights reserved.
##CAS REGISTRY NO=7300-03-0
##MOLFORM=C 8 H 16
##$NIST SOURCE=MSDC-IR
##SPECTROMETER/DATA SYSTEM=HP-GC/MS/IRD
##STATE=gas
##XUNITS=1/CM
##YUNITS=ABSORBANCE
##XFACTOR=1.0
##YFACTOR=0.000001800
##DELTAX=4.0
##FIRSTX=550.0
##LASTX=3846.0
##FIRSTY=0.000518
##MAXX=3846
##MINX=550
##MAXY=0.018
##MINY=0
##NPOINTS=825
##XYDATA=(X++(Y..Y))
550.0 288 233 221 238 173 124 109 40 40 53
590.0 31 45 62 7 9 50 92 126 63 31
630.0 22 19 14 32 71 69 57 44 16 27
670.0 37 41 103 82 55 63 75 80 75 97
710.0 89 73 90 96 129 160 154 154 127 97
750.0 117 164 170 155 165 188 218 245 240 253
790.0 276 258 256 248 242 250 283 306 287 284
830.0 262 285 303 297 293 277 299 319 354 403
870.0 443 466 489 517 524 513 483 430 356 297
910.0 242 198 173 161 157 132 132 141 138 123
950.0 106 126 146 148 151 160 173 191 211 216
990.0 235 270 286 303 303 283 286 286 266 245
1030.0 230 248 258 240 232 278 320 357 437 455
1070.0 435 452 443 404 352 313 288 258 253 285
1110.0 311 317 346 376 357 316 264 192 141 131
1150.0 121 105 109 126 111 88 95 126 141 163
1190.0 191 179 158 145 142 144 156 178 161 152
1230.0 170 159 141 147 140 146 175 179 187 196
1270.0 213 218 205 214 209 183 183 199 228 288
1310.0 349 394 445 490 503 492 450 401 366 349
1350.0 350 369 416 483 564 674 799 902 969 984
1390.0 931 820 696 598 522 477 470 480 503 555
1430.0 623 722 837 952 1065 1190 1288 1345 1338 1255
1470.0 1144 1023 878 706 569 479 419 370 325 282
1510.0 258 253 239 224 211 209 200 187 182 169
1550.0 156 155 157 165 154 130 130 141 139 124
1590.0 115 122 122 122 130 126 122 117 115 112
1630.0 106 113 110 116 129 140 156 173 166 160
1670.0 154 136 111 86 78 73 64 60 58 53
1710.0 52 38 36 47 48 36 19 28 48 59
1750.0 54 38 28 41 45 36 37 32 30 32
1790.0 40 42 28 30 28 20 25 27 23 15
1830.0 13 22 25 19 25 24 20 32 35 34
1870.0 33 33 43 39 32 41 42 41 37 23
1910.0 27 36 33 31 33 33 23 18 14 13
1950.0 24 25 27 32 17 8 22 26 17 13
1990.0 24 22 0 6 18 17 21 22 15 17
2030.0 21 29 37 28 24 18 7 6 13 18
2070.0 28 26 21 19 19 22 22 17 9 12
2110.0 23 30 23 22 24 11 14 24 29 27
2150.0 25 27 22 19 18 15 16 22 19 11
2190.0 18 21 26 25 18 24 16 19 31 22
2230.0 31 25 6 22 32 22 27 27 17 23
2270.0 24 17 18 28 26 25 20 14 13 15
2310.0 18 11 15 30 23 15 18 22 23 32
2350.0 35 33 34 44 44 31 36 34 29 53
2390.0 52 34 29 27 36 47 50 48 32 20
2430.0 12 21 31 37 32 31 33 29 23 21
2470.0 42 50 53 42 33 36 35 45 49 46
2510.0 45 53 55 34 33 46 34 44 56 61
2550.0 61 59 56 42 45 49 61 48 41 54
2590.0 61 70 84 81 78 77 88 88 61 68
2630.0 83 81 88 94 90 101 98 91 96 108
2670.0 109 113 131 127 113 109 104 114 144 147
2710.0 135 155 188 204 212 226 246 246 246 249
2750.0 249 253 268 275 270 282 305 323 331 345
2790.0 373 402 429 458 504 564 619 696 786 913
2830.0 1068 1251 1509 1803 2147 2520 2891 3277 3660 4018
2870.0 4372 4740 5021 5142 5157 5125 5015 4910 4921 5045
2910.0 5277 5624 6054 6549 7042 7511 7894 8032 7923 7764
2950.0 7682 7777 8286 9224 9932 10000 9565 8551 6961 5416
2990.0 4315 3560 2988 2531 2212 1952 1740 1553 1413 1312
3030.0 1225 1141 1037 948 889 823 741 683 637 576
3070.0 538 527 479 416 379 369 378 356 318 305
3110.0 291 252 240 249 249 234 234 217 187 189
3150.0 191 188 183 154 136 140 156 179 168 140
3190.0 142 155 131 108 122 119 93 86 85 104
3230.0 97 64 43 52 80 92 105 88 69 68
3270.0 62 65 66 71 64 67 100 121 84 54
3310.0 62 66 56 44 53 45 60 72 31 9
3350.0 47 60 43 49 73 82 73 66 47 24
3390.0 50 78 63 56 54 59 82 80 64 57
3430.0 44 71 69 48 56 72 65 32 54 81
3470.0 76 65 45 25 51 70 61 60 73 86
3510.0 85 103 77 47 47 48 64 75 71 65
3550.0 77 63 33 17 35 46 40 36 20 40
3590.0 69 84 68 46 71 81 60 45 65 87
3630.0 61 56 71 76 75 80 78 59 52 56
3670.0 57 71 79 97 132 102 58 60 71 68
3710.0 52 55 91 107 99 73 54 60 81 106
3750.0 125 126 133 116 91 97 85 75 116 127
3790.0 100 80 65 85 89 72 85 96 86 93
3830.0 95 65 53 93 122
##END=
