##TITLE=2-Amino-5-methylthiazole
##JCAMP-DX=4.24
##DATA TYPE=INFRARED SPECTRUM
##ORIGIN=EPA-IR VAPOR PHASE LIBRARY
##OWNER=SRD/NIST
Collection (C) 2018 copyright by the U.S. Secretary of Commerce
on behalf of the United States of America. All rights reserved.
##CAS REGISTRY NO=7305-71-7
##MOLFORM=C 4 H 6 N 2 S
##$NIST SOURCE=MSDC-IR
##STATE=gas
##XUNITS=1/CM
##YUNITS=ABSORBANCE
##XFACTOR=1.
##YFACTOR=0.001
##DELTAX=1.92898
##FIRSTX=549.8
##LASTX=4000.7
##FIRSTY=5.37
##MAXX=4000.7
##MINX=549.759
##MAXY=0.02281
##MINY=0
##NPOINTS=1790
##XYDATA=(X++(Y..Y))
549.759 5.37 5.74 4.69 4.46 5.17 5.07 4.08 3.31 3.6 4.46
569.049 5.01 4.6 3.78 4.07 4.17 4.6 5.04 4.39 4.93 5.17
588.339 4.64 4.38 4.79 4.95 4.74 4.67 4.89 5.53 6.2 6.52
607.628 6.82 6.25 5.77 5.63 5.94 6.55 6.56 6.68 6.7 6.75
626.918 6.69 6.87 6.42 6.2 5.96 5.97 6.31 6.3 6.27 5.88
646.208 5.98 6.27 6.75 6.54 6.55 7.25 6.3 5.5 5.88 6.36
665.498 6.09 6.02 6.53 6.58 6.96 7.09 6.04 5.43 5.91 5.39
684.787 4.73 4.85 4.93 5.19 5.32 5.43 5.36 4.71 4.84 5.46
704.077 5.57 5.47 5.62 5.59 5.58 5.77 5.29 5.05 5.45 5.85
723.367 6.04 5.83 5.63 5.33 5.68 6.39 5.9 5.87 6.03 5.82
742.657 5.71 5.63 5.22 5.2 5.46 5.51 5.89 5.42 5.15 5.66
761.947 5.79 5.08 5.2 5.85 5.55 5.63 5.72 5.23 5.43 5.95
781.236 5.31 4.88 5.11 4.49 4.29 4.83 4.67 3.73 3.38 3.66
800.526 3.95 4.19 4.24 3.68 3.72 4.16 3.57 3.99 4.25 3.83
819.816 4.85 5.11 5.26 6.18 5.11 4.36 5.06 5.25 5.23 5.99
839.106 7.53 6.85 5 4.81 4.64 4.26 4.23 4.2 4.01 3.69
858.395 3.58 3.52 3.37 3.56 4.16 3.69 2.59 2.95 3.1 2.253
877.685 1.8956 2.0568 2.1731 2.65 3.24 3.48 3.48 2.65 2.2359 2.43
896.975 2.61 2.92 2.83 2.2773 2.68 3.38 2.72 2.146 2.57 2.77
916.265 2.36 2.4 2.32 2.61 3.06 3.06 3.28 3.6 3.5 3.13
935.555 3.11 2.61 2.2813 2.48 2.37 2.0179 2.2314 2.73 2.36 2.34
954.844 2.56 2.63 3.12 3.07 2.5 1.7738 1.5098 1.4913 1.9305 2.132
974.134 1.9517 2.55 2.42 2.2148 2.67 3.23 3.5 3.29 3.06 3.01
993.424 3.26 3.26 2.51 2.44 2.73 2.82 3.19 2.8 2.1502 2.76
1012.714 3.7 3.45 3.92 4.31 4.31 4.27 3.07 4 5.26 5.53
1032.003 5.68 6.14 6.97 7.18 8.02 9.13 9.41 10.21 10.8 10.79
1051.293 10.25 8.64 8.21 8.99 10.13 9.02 8.17 7.49 5.82 5.8
1070.583 4.59 4.63 5.1 3.69 4.61 4.59 2.68 2.192 1.683 1.8098
1089.873 2.33 1.9561 2.77 3.08 1.137 1.005 2.0772 3.51 4.26 2.59
1109.163 1.7887 1.4935 2.97 5.24 6.41 5.79 4.2 3.77 3.96 3.22
1128.452 2.0637 2.88 3.73 3.17 3.68 3.41 2.89 3.79 3.46 3.59
1147.742 3.22 3.6 4.24 4.43 5.32 4.01 2.91 4.19 5.44 5.67
1167.032 5.18 5.07 5.29 4.84 4.7 4.71 4.69 4.08 3.52 3.48
1186.322 2.88 2.76 3.7 4.53 4.17 2.73 3.22 4.73 4.48 4.39
1205.611 5.17 5.78 5.37 5.47 5.08 4.07 3.68 3.87 4.43 4.95
1224.901 5.26 5.21 5.07 5.01 5.93 5.95 5.52 6.87 7.8 7.09
1244.191 7.27 7.88 9.01 10.04 10.03 9.93 10.41 10.85 10.6 10.37
1263.481 10.08 9.74 9.27 8.79 7.33 6.31 6.04 5.7 5.78 6.03
1282.771 6.34 6.61 7.12 7.88 8.15 8.44 9.21 10.14 10.6 11.11
1302.060 11.7 12.2 12.58 12.65 12.89 12.8 12.65 12.73 12.61 12.53
1321.350 12.27 11.97 11.84 11.66 11.37 11.07 10.93 10.55 9.98 9.67
1340.640 9.13 8.51 8.12 7.64 7.15 6.25 5.41 4.76 3.98 3.4
1359.930 3.17 3.07 2.93 2.74 2.57 2.55 2.5 2.37 2.1869 2.0891
1379.219 2.1404 2.0291 2.03 2.2478 2.1745 2.0701 1.948 1.9523 2.0833 1.9187
1398.509 2.0412 2.42 2.5 2.296 2.1111 2.0414 2.1534 2.33 2.41 2.39
1417.799 2.41 2.2811 2.37 2.54 2.42 2.51 2.72 2.83 2.81 2.92
1437.089 3 2.96 3.09 3.39 3.69 3.85 3.8 3.82 3.91 4.03
1456.378 3.97 3.99 4.19 4.09 4.13 4.16 4.11 4.19 4.14 4.12
1475.668 4.26 4.13 4.21 4.5 4.61 4.93 5.36 5.95 6.53 7.56
1494.958 8.68 9.74 11.15 12.69 14.51 16.06 17.56 18.92 20.25 21.52
1514.248 22.44 22.81 22.79 22.7 22.27 21.73 21.05 20.3 19.32 18.23
1533.538 17.1 15.26 13.3 12.2 11.54 10.89 10.33 9.82 9.35 8.86
1552.827 8.69 8.55 8.64 9.32 9.06 8.6 8.76 8.7 8.34 8.19
1572.117 8.62 8.86 9.08 9.21 9.25 10.12 11.14 12.02 13.02 13.93
1591.407 15.14 16.49 17.67 18.28 18.6 19 18.96 18.72 18.32 18.01
1610.697 17.88 17.47 16.34 14.79 13.51 11.89 10.54 9.42 8.14 7.22
1629.986 6.35 5.61 5.03 4.68 4.51 4.25 3.91 3.85 3.67 3.37
1649.276 3.49 3.53 3.61 3.53 3.4 3.39 3.34 3.44 3.81 3.8
1668.566 3.49 3.29 3.02 2.93 3.13 3.12 2.99 3.02 2.79 2.6
1687.856 2.54 2.72 2.8 2.53 2.2843 2.33 2.52 2.48 2.2617 1.9855
1707.146 2.1978 2.35 2.128 1.9745 2.1465 2.35 2.197 2.35 2.2798 2.1498
1726.435 2.2218 1.8618 1.6786 2.0224 2.1294 2.1849 2.3 2.14 1.9481 1.8303
1745.725 1.8569 1.7708 1.6392 1.8198 1.8283 1.6985 1.9362 1.9815 1.6784 1.6505
1765.015 1.8198 1.8359 1.8389 1.9028 1.815 1.854 1.9169 1.6776 1.6182 1.873
1784.305 1.9265 1.8492 2.1049 1.8928 1.7344 2.0115 1.9477 1.8794 1.8658 1.7537
1803.594 1.7155 1.7049 1.6501 1.8104 1.9282 1.7134 1.5701 1.732 1.7618 1.7776
1822.884 1.7351 1.5316 1.6673 1.7479 1.7191 1.6679 1.4701 1.4909 1.6042 1.6975
1842.174 1.5902 1.5424 1.4622 1.39239 1.5787 1.6504 1.6298 1.7394 1.7286 1.4267
1861.464 1.4148 1.5667 1.5659 1.7075 1.9164 1.7752 1.6509 1.6552 1.4097 1.4199
1880.754 1.7502 1.8349 1.6982 1.4884 1.415 1.4782 1.4013 1.4058 1.5915 1.716
1900.043 1.5478 1.4394 1.4326 1.35371 1.4548 1.6819 1.8671 1.887 1.7901 1.6377
1919.333 1.5045 1.4825 1.5927 1.6978 1.6296 1.5148 1.5104 1.6553 1.5789 1.38706
1938.623 1.4957 1.5746 1.6592 1.7173 1.6877 1.6518 1.5083 1.5509 1.6574 1.6579
1957.913 1.7366 1.6709 1.7845 1.7484 1.4114 1.4388 1.6691 1.7832 1.7713 1.4458
1977.202 1.35913 1.572 1.5384 1.5971 1.4572 1.275 1.4119 1.4706 1.4588 1.4989
1996.492 1.596 1.6472 1.7477 1.7518 1.6033 1.6135 1.4492 1.4554 1.7222 1.6253
2015.782 1.4277 1.6413 1.8604 1.8601 1.7933 1.6753 1.4611 1.084 1.087 1.205
2035.072 1.193 1.30285 1.36899 1.5188 1.4767 1.535 1.7306 1.57 1.39064 1.32641
2054.362 1.4038 1.4311 1.4432 1.4774 1.4459 1.5405 1.5479 1.4508 1.6702 1.6771
2073.651 1.30511 1.36117 1.37363 1.4521 1.7036 1.5468 1.31824 1.2926 1.2864 1.2839
2092.941 1.2588 1.2578 1.31309 1.32053 1.4289 1.4533 1.29252 1.39977 1.4663 1.195
2112.231 1.097 1.19 1.4249 1.5137 1.32276 1.31853 1.4143 1.39722 1.2334 1.25
2131.521 1.37253 1.2488 1.11 1.015 1.095 1.3325 1.5078 1.4093 1.2304 1.34453
2150.810 1.4625 1.2993 1.2882 1.33015 1.2793 1.2241 1.143 1.239 1.3354 1.4081
2170.100 1.5152 1.38524 1.2325 1.5364 1.5705 1.2186 1.2066 1.2535 1.33573 1.5116
2189.390 1.6063 1.6428 1.501 1.39631 1.39887 1.5278 1.693 1.7105 1.5901 1.428
2208.680 1.4368 1.39307 1.5154 1.5955 1.4012 1.2737 1.39387 1.736 1.8323 1.5797
2227.970 1.4763 1.7182 1.7504 1.4304 1.5331 1.6673 1.5717 1.765 1.7254 1.581
2247.259 1.4613 1.4903 1.35563 1.2589 1.4242 1.4795 1.5675 1.4925 1.37308 1.4185
2266.549 1.4712 1.5629 1.667 1.6019 1.5002 1.31813 1.38341 1.5471 1.6116 1.7344
2285.839 1.8975 1.7557 1.4664 1.4044 1.31659 1.2367 1.33558 1.4272 1.6818 1.6713
2305.129 1.31505 1.33891 1.4519 1.4438 1.37924 1.4014 1.6628 1.609 1.4859 1.34224
2324.418 1.095 1.31854 1.4092 1.184 1.2812 1.4888 1.4599 1.6362 1.7135 1.4618
2343.708 1.5805 1.6526 1.36421 1.31113 1.276 1.197 1.34489 1.5906 1.7702 1.6831
2362.998 1.5074 1.504 1.6209 1.4706 1.2883 1.2523 1.2325 1.315 1.35908 1.4123
2382.288 1.124 1.36079 1.5936 1.469 1.5761 1.36121 1.30867 1.4119 1.4872 1.2898
2401.578 1.2423 1.30923 1.2997 1.154 1.2601 1.6252 1.6299 1.4961 1.2617 1.2756
2420.867 1.5842 1.5758 1.4008 1.2314 1.2231 1.5677 1.4805 1.38576 1.2202 1.2
2440.157 1.34114 1.36112 1.5017 1.39604 1.4299 1.557 1.5307 1.4937 1.5804 1.4716
2459.447 1.121 1.2515 1.4012 1.4446 1.3757 1.39281 1.4001 1.36956 1.136 0.996
2478.737 1.2601 1.5181 1.5502 1.35698 1.4268 1.266 1.114 1.2599 1.37496 1.159
2498.026 0.972 1.2614 1.5044 1.4432 1.37557 1.4961 1.8533 1.811 1.4775 1.4946
2517.316 1.4059 1.101 1.02 1.16 1.37663 1.656 1.638 1.36935 1.37466 1.4931
2536.606 1.6428 1.678 1.4173 1.2131 1.4085 1.8675 1.7674 1.38066 1.2883 1.2834
2555.896 1.38286 1.599 1.6323 1.4511 1.6641 1.54 1.4255 1.5975 1.4635 1.4609
2575.186 1.2123 1.037 1.31175 1.528 1.576 1.5688 1.29788 1.13 1.15 1.2638
2594.475 1.5819 1.6006 1.6381 1.4047 1.029 0.944 0.834 0.77 0.8 1.068
2613.765 0.997 1.093 1.4458 1.31521 1.2697 1.5134 1.8319 1.5246 0.794 0.835
2633.055 1.022 1.017 0.983 1.031 1.5067 1.5935 1.6268 1.5401 1.38474 1.2029
2652.345 0.971 1.4454 1.6341 1.2843 1.2305 1.38265 1.38447 1.3312 1.31794 1.2236
2671.634 1.005 1.088 1.491 1.5594 1.2524 1.4279 1.5045 1.34813 1.174 1.198
2690.924 1.4598 1.4042 1.5063 1.4377 1.5577 1.5153 0.935 1.049 1.281 1.37472
2710.214 1.35016 1.36536 1.5296 1.6405 1.5796 1.5157 1.38837 1.018 1.3768 1.7103
2729.504 1.286 1.2724 1.6403 1.722 1.34498 0.815 0.929 1.30067 1.6384 1.6606
2748.794 1.451 1.31441 1.543 1.5748 1.29679 1.39916 1.6625 1.836 1.8732 1.6462
2768.083 1.5683 1.31694 1.134 1.2666 1.35026 1.4231 1.33626 1.3028 1.151 1.2596
2787.373 1.5242 1.4716 1.3504 1.059 0.906 1.29397 1.2743 1.32516 1.6751 1.5054
2806.663 1.18 1.04 1.19 1.2564 1.5518 1.6323 1.6629 1.597 1.4489 1.8934
2825.953 2.1732 1.9402 1.39165 1.39607 1.564 1.5586 1.6515 1.7172 1.7243 2.0628
2845.242 1.947 1.8515 2.1286 2.1047 2.1841 2.5 2.49 2.2333 2.55 2.98
2864.532 3.26 3.22 3.47 3.83 3.73 3.62 3.94 4.14 4.16 4.03
2883.822 3.84 3.81 3.92 3.92 3.64 3.64 3.39 3.13 2.7 2.73
2903.112 2.84 2.64 2.6 2.42 2.2099 2.36 3.03 3.18 3.08 3.84
2922.401 4.71 4.79 5.2 5.85 6.1 6.01 6.06 5.93 5.71 6.13
2941.691 6.26 6.02 5.79 5.25 4.81 4.64 4.36 3.92 3.98 4.38
2960.981 4.13 3.79 3.05 2.86 3.73 4.19 3.7 3.37 3.29 2.88
2980.271 2.74 2.55 2.9 2.94 2.73 3.13 3.06 2.1902 1.8546 1.6904
2999.561 2.0713 2.51 2.0741 1.8963 1.8246 1.6423 1.5552 1.8692 1.9986 2.1578
3018.850 1.8916 1.4643 1.5032 1.8078 1.7955 1.6388 2.2461 1.9125 1.5969 1.8961
3038.140 2.2815 2.1271 1.5164 1.74 2.1856 2.54 2.71 2.65 2.44 2.44
3057.430 2.53 2.51 2.64 2.51 2.2532 2.62 2.8 2.1583 2.4 3.15
3076.720 2.95 2.64 2.91 3.06 2.99 2.66 2.1948 2.49 2.1321 1.8659
3096.009 2.2088 2.69 2.53 1.6853 1.8143 1.587 1.5143 1.9725 1.8691 1.8604
3115.299 1.8517 1.621 2.0062 2.109 1.203 0.876 0.951 0.971 1.5803 1.5529
3134.589 1.3895 1.8691 1.8057 1.7704 1.5439 0.778 0.524 1.054 1.6057 1.33177
3153.879 0.971 1.117 1.6033 1.6909 1.35057 1.4516 1.4743 1.31387 1.4115 1.5964
3173.169 1.7634 1.7216 0.831 0.949 1.31866 1.019 1.2515 1.5461 1.5615 1.4303
3192.458 1.6352 1.6886 1.5922 1.162 0.84 0.935 1.032 0.845 1.19 1.5878
3211.748 1.2797 1.077 1.2066 1.4882 1.4732 1.38833 1.4755 1.36665 0.959 0.987
3231.038 1.016 1.29578 1.6998 1.4676 1.2403 1.7307 1.8606 1.133 0.423 0.777
3250.328 1.2536 1.091 0.807 0.949 1.197 1.4242 2.0706 1.4474 0.726 1.4042
3269.617 1.7323 1.5042 1.4203 1.6446 1.5939 0.982 0.912 0.977 1.173 0.79
3288.907 0.509 1.155 1.148 1.027 0.902 0.963 1.657 1.7964 1.197 1.081
3308.197 1.2112 1.14 1.3114 0.949 0.453 0.569 0.515 0.462 0.9 1.089
3327.487 0.761 0.844 1.35782 1.5639 1.8007 1.4088 0.803 0.94 0.626 0.508
3346.777 1.037 1.015 0.894 0.573 0.816 1.4554 1.5947 1.6872 1.4397 0.879
3366.066 1.089 1.7808 2.0393 1.9979 1.7286 1.7667 2.2794 3.1 3.11 2.86
3385.356 3.85 4.03 4.47 5.25 5.72 6.17 6.56 7.16 7.42 7.65
3404.646 7.04 7.16 6.8 6.02 6.53 5.94 4.67 4.12 3.91 3.43
3423.936 2.83 2.88 2.48 2.32 2.64 2.2453 1.8769 2.44 2.0886 1.019
3443.225 0.808 0.901 1.091 1.5071 2.1442 2.0969 1.7501 1.3891 1.1 0.975
3462.515 1.37379 1.8807 2.1719 2.2688 2.2867 2.1902 1.9273 2.48 3.42 3.39
3481.805 3.64 4.46 4.28 4.42 4.59 4.6 4.83 4.72 4.8 4.63
3501.095 4.72 4.76 4.4 4.36 4.71 4.57 4.15 3.87 2.88 2.0982
3520.385 2.58 2.93 2.4 2.47 2.2965 1.9428 1.8801 1.8494 2.0859 1.9859
3539.674 1.5959 1.7338 1.7906 1.31375 0.947 1.2738 1.4136 0.855 0.433 0.602
3558.964 0.991 1.5769 1.7838 0.96 0.558 0.963 1.09 1.078 0.854 0.849
3578.254 1.4571 1.161 1.002 1.5167 1.5035 1.059 1.042 1.5229 1.4107 1.055
3597.544 0.65 0.822 0.822 0.375 0.717 1.7218 2.1286 1.7012 1.546 1.2694
3616.833 0.93 0.977 0.875 0.937 1.101 0.896 1.069 0.811 0.768 1.738
3636.123 1.8144 1.5016 1.5788 1.2697 1.4319 1.097 0.26 1.32652 1.8 1.11
3655.413 1.187 1.4613 1.4952 1.045 1.138 1.189 0.795 1.074 1.081 1.056
3674.703 1.4307 1.37999 1.092 0.675 0.913 1.066 0.682 1.066 1.2169 1.033
3693.993 0.933 0.571 0.615 1.169 1.5574 1.5174 1.5422 1.4543 1.4452 1.7531
3713.282 1.4105 0.592 0.409 1.29913 1.2003 0.717 1.085 0.709 0.591 0.793
3732.572 0.619 0.05 0.733 1.32712 0.993 0.983 1.07 1.2896 1.6168 1.405
3751.862 0.777 0.724 0.956 1.2297 1.146 0.659 0.97 1.7679 1.5358 1.22
3771.152 1.512 1.787 1.2888 0.422 0.02 0.466 0.784 1.152 1.173 1.055
3790.441 0.74 1.033 1.6932 1.6963 1.647 1.214 1.33508 1.5417 1.172 1.36345
3809.731 1.5989 1.4572 1.32444 0.836 0.809 1.023 1.8252 1.9128 1.7825 1.4517
3829.021 0.995 0.632 0.465 1.4211 1.9834 1.5773 1.061 1.4796 1.30421 1.009
3848.311 1.5101 1.5154 1.35059 1.051 0.494 0.6 0.631 0.883 1.36629 0.373
3867.601 0.386 1.041 0.845 1.072 1.2062 1.103 0.797 1.022 1.38206 1.4631
3886.890 0.947 0.586 1.5391 1.987 1.166 0.834 1.171 1.33197 1.18 0.466
3906.180 0.428 0.369 0.322 0.652 0.713 1.194 1.3735 1.4143 1.8337 1.9979
3925.470 1.112 0.24 0.974 1.8192 1.6752 1.184 0.48 0.806 1.34463 0.944
3944.760 1.171 1.36099 1.155 1.133 0.956 0.926 0.939 1.082 1.4189 1.2252
3964.049 0.74 0.513 1.147 1.799 1.152 0.805 1.2595 1.025 0.645 0.622
3983.339 0.952 1.6525 1.8087 1.32811 0.81 0 0.1 0.873 0.595 0.596
##END=
