##TITLE=5,5-Dimethylhexane-2,4-dione
##JCAMP-DX=4.24
##DATA TYPE=INFRARED SPECTRUM
##ORIGIN=EPA-IR VAPOR PHASE LIBRARY
##OWNER=SRD/NIST
Collection (C) 2018 copyright by the U.S. Secretary of Commerce
on behalf of the United States of America. All rights reserved.
##CAS REGISTRY NO=7307-04-2
##MOLFORM=C 8 H 14 O 2
##$NIST SOURCE=MSDC-IR
##STATE=gas
##XUNITS=1/CM
##YUNITS=ABSORBANCE
##XFACTOR=1.
##YFACTOR=0.001
##DELTAX=1.92898
##FIRSTX=549.8
##LASTX=4000.7
##FIRSTY=8
##MAXX=4000.7
##MINX=549.759
##MAXY=0.18827
##MINY=0.0005424
##NPOINTS=1790
##XYDATA=(X++(Y..Y))
549.759 8 7.87 8.11 7.79 6.75 5.43 5.31 5.41 5.21 5.28
569.049 5.06 4.7 5.21 5.59 5.76 6.02 4.94 4.31 5.4 6.19
588.339 6.03 5.42 5.08 5.12 5.07 4.8 5.12 5.52 5.17 5.17
607.628 4.99 5.06 5.28 5.44 5.3 4.43 3.94 3.56 3.55 2.95
626.918 3.07 3.28 2.9 3.17 2.9 3.02 3.58 3.24 3 3.06
646.208 3.24 3.69 3.53 3.37 3.43 3.28 2.94 2.79 2.83 2.71
665.498 2.5 1.98 2.2 2.63 2.54 2.36 2.3 2.52 2.51 2.74
684.787 3.06 3.19 2.99 2.76 3.32 3.32 2.67 2.78 3.34 3.17
704.077 2.81 3.07 3.27 3.62 3.78 3.45 3.39 4.23 4.9 5.28
723.367 6.05 6.51 6.74 7.16 7.61 8.22 9.06 9.77 10.2 10
742.657 10.1 10.72 10.78 10.7 10.25 9.98 10.78 11.28 11.07 11.08
761.947 11.67 12.36 12.89 13.6 14.45 15.17 16.06 17.02 17.69 18.37
781.236 18.18 17.33 17.14 16.37 15.12 14.17 13.12 12.07 11.46 10.64
800.526 10.07 9.86 9.46 9.28 8.86 8.8 9.33 9.28 8.87 8.58
819.816 8.04 8.1 8.01 7.41 7.41 7.65 7.73 7.68 7.78 8.02
839.106 8.21 8.12 8.25 8.6 8.79 9.33 9.44 9.41 10.07 11.11
858.395 12.14 13.48 14.96 16.66 18.6 20.67 23.45 26.52 29.85 32.77
877.685 35.16 36.92 37.64 37.69 36.81 35.41 33.01 29.79 26.71 23.49
896.975 20.63 19.05 17.74 16.49 16.18 15.87 15.89 15.98 15.88 15.98
916.265 16.28 16.9 17.14 17.45 17.97 18.26 18.75 19.46 19.74 19.98
935.555 20.09 20.19 20.66 20.95 21.11 21.32 21.49 21.12 20.47 20.22
954.844 20.3 20.29 19.99 20.31 20.49 19.98 19.92 19.84 19.51 19.92
974.134 19.95 19.8 20.02 19.95 20.15 19.89 19.43 19.12 18.97 18.66
993.424 18.08 17.62 17.33 16.94 16.05 15.92 15.87 15.67 15.92 15.32
1012.714 14.47 14.64 15.4 15.7 15.44 15.19 15.11 15.16 15.37 15.55
1032.003 16.22 16.29 16.33 16.94 17.22 17.45 17.8 18.48 18.6 19.5
1051.293 21.27 22.59 24.02 25.43 26.56 27.88 29.86 31.8 33 34
1070.583 35.58 36 36.13 36.88 36.69 35.99 35.48 35.12 34.68 32.76
1089.873 30.63 29.39 29.25 28.94 27.06 25.95 25.53 26.45 27.71 28.73
1109.163 30.08 31.92 33.88 35.43 37.41 39.23 40.41 41.08 42.05 42.79
1128.452 42.86 42.84 41.52 40.02 40.59 40.53 39.43 38.1 36.7 35.22
1147.742 33.78 33.05 32.65 32.18 30.84 29.28 28.8 28.34 27.13 27.55
1167.032 28.38 28.39 28.62 28.21 27.91 28.89 29.77 30.94 32.4 34.42
1186.322 36.77 37.99 39.54 41.35 43.68 46.31 47.39 47.77 49.1 50.85
1205.611 52.24 53.51 54.62 54.86 54 54 53.73 52.25 50.85 49.51
1224.901 48.19 47.44 46.02 44.01 42.68 41.31 40.33 39.64 39.19 39.01
1244.191 38.53 38.65 38.58 38.38 38.94 39.16 39.54 40.34 41.33 42.61
1263.481 43.69 44.97 46.27 46.74 47.25 48.4 49.38 49.88 50.44 51.01
1282.771 51.18 51.58 51.74 51.3 50.85 50.58 50.08 49.18 48.18 47.27
1302.060 46.54 45.51 44.34 43.07 41.8 40.63 39.6 38.5 37.56 36.91
1321.350 36.19 35.64 35.36 35.18 35 34.96 35.12 35.7 36.43 37.06
1340.640 38.15 39.67 41.46 43.56 46.25 49.47 52.84 56.32 59.99 63.66
1359.930 66.88 69.73 72.07 73.4 73.77 73.12 71.29 68.7 65.67 62.45
1379.219 59.21 56.08 53.48 51.56 50.15 49.17 48.74 48.66 48.75 49.06
1398.509 49.41 49.73 50.02 50.36 50.37 50.12 50.06 49.98 50.09 50.47
1417.799 50.79 51.37 51.77 52.06 52.71 53.27 53.43 53.61 53.93 54.07
1437.089 54.48 54.88 55.16 55.65 56.08 56.46 56.92 57.5 58.21 58.82
1456.378 59.53 60.17 60.7 61.38 61.97 62.59 63.31 64.13 65.06 66.23
1475.668 67.34 68.08 68.33 68.03 67.58 66.73 65.29 63.35 61.08 58.58
1494.958 56.09 53.99 52.35 51.06 50.22 49.55 49.05 48.98 48.87 49.05
1514.248 49.21 49.32 49.8 50.32 51.08 51.72 52.51 53.48 54.33 55.65
1533.538 57.01 58.39 59.85 61.5 63.26 65.11 67.01 68.71 70.92 73.13
1552.827 75.01 77.15 79.42 82.35 85.62 88.57 92.01 95.59 99.2 103.8
1572.117 108.7 113.2 118.6 124.61 130.08 136.1 141.95 147.69 153.65 159.53
1591.407 165.25 170.65 175.45 179.68 183.04 185.5 187.32 188.27 188.02 187.02
1610.697 185.1 182.35 179.38 175.53 171.17 167.16 162.59 157.77 152.97 148.11
1629.986 143.71 139.17 133.87 128.67 123.91 118.74 113.38 108.25 102.95 97.69
1649.276 92.79 88.13 82.93 78.67 75.1 71.41 68.21 65.22 62.32 60.01
1668.566 57.83 55.92 54.71 53.55 52.68 51.95 51.45 51.38 51.69 52.56
1687.856 53.59 55.24 57.43 59.53 62.25 65.38 68.34 71.9 75.13 77.85
1707.146 80.11 81.87 82.75 82.85 82.34 81.17 79.27 76.8 74.06 71.33
1726.435 68.66 66.1 63.34 60.58 58.18 56.01 53.61 51.01 48.13 45.12
1745.725 42.3 39.42 36.7 34.34 32.16 30.05 28.11 26.42 24.82 23.17
1765.015 21.75 20.57 19.48 18.52 17.68 16.99 16.16 15.46 14.87 14.24
1784.305 13.67 13.19 12.89 12.54 12.14 11.67 11.39 11.16 10.9 10.82
1803.594 10.59 10.32 10.11 9.95 9.84 9.6 9.52 9.37 9.05 9.03
1822.884 9.01 8.8 8.63 8.61 8.56 8.46 8.35 8.29 8.4 8.47
1842.174 8.4 8.27 8.26 8.35 8.29 8.29 8.27 8.21 8.1 7.99
1861.464 7.95 8.02 8.12 8.02 7.94 7.92 7.96 8.1 8.07 7.94
1880.754 7.88 7.85 7.77 7.81 7.93 7.82 7.63 7.58 7.7 7.79
1900.043 7.79 7.72 7.69 7.67 7.54 7.49 7.53 7.46 7.25 7.22
1919.333 7.19 7.12 7.18 7.07 7.09 7.08 6.87 6.89 6.94 6.9
1938.623 6.85 6.81 6.88 6.83 6.63 6.51 6.56 6.56 6.54 6.62
1957.913 6.56 6.44 6.44 6.26 6.23 6.35 6.25 6.11 6.24 6.37
1977.202 6.21 6.17 6.23 6.22 6.11 6.1 6.13 6.08 6.06 6.09
1996.492 6.26 6.24 6.2 6.24 6.19 6.08 6.05 6.07 6.1 6.04
2015.782 5.88 5.92 5.95 6 6.04 6.02 5.76 5.55 5.69 5.76
2035.072 5.75 5.8 5.79 5.67 5.72 5.88 5.69 5.44 5.49 5.61
2054.362 5.62 5.68 5.71 5.58 5.64 5.85 5.8 5.7 5.65 5.67
2073.651 5.66 5.65 5.77 5.72 5.69 5.7 5.58 5.55 5.56 5.6
2092.941 5.62 5.57 5.55 5.59 5.62 5.6 5.73 5.74 5.61 5.66
2112.231 5.78 5.82 5.75 5.69 5.65 5.57 5.53 5.51 5.45 5.57
2131.521 5.74 5.81 5.74 5.66 5.76 5.78 5.82 6.05 6.18 6.05
2150.810 5.9 5.93 5.94 5.83 5.81 5.88 5.83 5.79 5.88 5.77
2170.100 5.6 5.6 5.61 5.41 5.25 5.46 5.54 5.55 5.48 5.42
2189.390 5.5 5.37 5.23 5.37 5.44 5.24 5.15 5.29 5.3 5.2
2208.680 5.3 5.38 5.44 5.4 5.33 5.38 5.37 5.29 5.4 5.61
2227.970 5.65 5.57 5.51 5.49 5.57 5.67 5.65 5.45 5.46 5.65
2247.259 5.86 5.92 5.71 5.62 5.65 5.61 5.51 5.6 5.6 5.59
2266.549 5.59 5.47 5.52 5.61 5.58 5.54 5.71 5.61 5.39 5.41
2285.839 5.54 5.72 5.89 5.92 5.91 5.83 5.87 5.94 5.91 5.92
2305.129 5.9 5.98 5.93 5.91 5.78 5.7 5.96 6.09 5.92 5.65
2324.418 5.78 5.85 5.66 5.68 5.8 5.87 5.76 5.89 5.98 5.99
2343.708 5.94 5.93 5.95 5.81 5.82 5.95 5.89 5.93 6 5.83
2362.998 5.94 6.08 6 6.04 6.09 6.27 6.29 6.24 6.29 6.29
2382.288 6.31 6.1 6.18 6.41 6.25 6.17 6.27 6.16 6.13 6.4
2401.578 6.45 6.4 6.27 6.26 6.43 6.34 6.34 6.44 6.55 6.5
2420.867 6.36 6.33 6.4 6.24 6.11 6.27 6.34 6.2 6.08 6.23
2440.157 6.47 6.54 6.52 6.55 6.59 6.49 6.49 6.51 6.45 6.4
2459.447 6.26 6.26 6.41 6.76 6.92 6.88 6.93 6.84 6.87 6.79
2478.737 6.67 6.62 6.58 6.46 6.49 6.56 6.5 6.6 6.7 6.98
2498.026 7 6.84 6.9 6.91 7.1 7.09 6.93 7.11 7.08 7.13
2517.316 7.19 7.23 7.46 7.35 7.15 7.04 7.1 7.28 7.24 7.04
2536.606 6.99 7.12 7.16 7.19 7.16 7.05 7.08 7.19 7.06 6.95
2555.896 7.22 7.35 7.22 7.18 7.15 7.14 7.41 7.61 7.41 7.39
2575.186 7.56 7.28 7.25 7.43 7.27 7.2 7.37 7.46 7.39 7.36
2594.475 7.38 7.41 7.18 7.13 7.28 7.25 7.23 7.47 7.39 7.11
2613.765 7.38 7.5 7.34 7.44 7.51 7.4 7.28 7.35 7.45 7.38
2633.055 7.32 7.42 7.47 7.55 7.68 7.57 7.58 7.81 7.82 7.68
2652.345 7.68 7.9 7.94 7.94 8.12 8.11 8.15 8.27 8.06 7.85
2671.634 7.97 8.05 7.99 8.01 8.12 8.46 8.38 8.24 8.69 8.86
2690.924 8.56 8.54 8.71 8.52 8.53 8.53 8.34 8.54 8.66 8.62
2710.214 8.62 8.51 8.69 9.08 9.15 9.1 9.07 9.02 9.07 9.07
2729.504 9.04 9.25 9.22 9.38 9.39 9.24 9.3 9.06 9 8.92
2748.794 8.93 9.32 9.31 8.96 9.06 9.27 9.47 9.39 9.08 9.11
2768.083 9 9.01 9.42 9.49 9.36 9.26 9.19 9.46 9.77 9.81
2787.373 9.8 9.76 9.78 9.86 9.85 9.93 9.91 9.63 9.7 9.96
2806.663 10.03 10.16 10.32 10.3 10.26 10.65 10.73 10.77 10.85 10.81
2825.953 11.21 11.3 11.32 11.26 11.3 11.73 12.19 12.41 12.54 12.89
2845.242 13.35 14.23 14.78 14.95 15.53 16.22 16.89 18.23 19.91 21.67
2864.532 23.34 25.14 27.03 28.61 30.63 32.61 34.05 35.38 36.5 37.09
2883.822 36.95 36.85 36.8 36.5 36.36 36.33 36.29 36.23 36.47 37
2903.112 37.97 39.52 40.95 42.22 43.58 44.63 46.06 47.3 48.05 48.91
2922.401 49.93 51.01 51.92 53.01 53.63 54.5 55.79 56.64 57.25 57.75
2941.691 58.69 59.82 61.57 63.71 66.13 69.89 75.08 80.87 87.16 94.76
2960.981 102.99 111.46 119.89 127.01 132.53 136.35 137.29 135.96 132.74 126.77
2980.271 118.77 109.56 99.43 89.28 79.64 70.42 62.63 56.15 49.99 44.64
2999.561 40.1 36.1 32.26 28.96 26.51 23.96 21.77 20.24 19.1 17.82
3018.850 16.95 16.43 15.72 14.93 14.29 13.86 13.22 13.25 12.79 12.01
3038.140 11.97 11.76 11.42 11.58 11.4 10.85 10.84 10.76 10.76 10.36
3057.430 9.73 9.74 9.81 9.72 9.63 9.68 9.53 9.42 9.68 9.75
3076.720 9.83 9.95 9.82 9.83 9.87 9.77 9.51 9.8 10.12 9.4
3096.009 9.23 9.42 9.27 9.15 8.6 8.63 9.22 9.42 9.18 8.38
3115.299 8.01 8.28 8.31 7.93 7.78 7.85 7.84 7.62 7.7 7.69
3134.589 7.23 7.13 7.3 7.42 7.12 7.04 6.99 6.88 7.19 7.11
3153.879 6.74 6.43 6.4 6.58 6.7 6.87 6.75 6.73 6.74 6.52
3173.169 6.34 6.56 6.95 6.9 6.68 6.85 7.09 7.1 7.19 6.85
3192.458 6.76 7.01 6.67 6.28 6.33 6.51 6.6 6.58 6.48 6.2
3211.748 6.04 6.11 6.22 6.03 6.01 5.9 5.6 5.98 6.28 6.02
3231.038 5.99 6.03 5.91 5.6 5.43 5.65 5.43 5.14 5.04 5.25
3250.328 5.24 4.91 5 4.81 4.83 4.93 4.6 4.53 4.57 4.59
3269.617 4.43 4.32 4.44 4.55 4.69 4.59 4.38 4.23 4.25 4.28
3288.907 3.96 3.98 4.01 3.97 4.03 3.84 3.66 3.49 3.24 3.03
3308.197 3.1 3.26 3.58 3.79 3.6 3.49 3.39 3.45 3.27 2.84
3327.487 2.88 3.26 3.51 3.63 3.8 3.26 2.83 2.98 3 3.01
3346.777 3.19 3.11 3.18 3.21 3.32 3.28 2.73 2.94 3.06 2.54
3366.066 2.6 2.92 2.8 3.16 3.22 2.91 3.2 3.22 3.2 3.52
3385.356 3.48 3.41 3.25 2.85 3.11 3.18 2.44 2.77 3 2.3
3404.646 2.36 2.9 3.09 2.81 3 3.25 3.01 3.01 3.11 3.01
3423.936 2.73 2.93 3.05 2.91 2.71 2.85 3.11 2.96 3.34 3.42
3443.225 3.06 3.09 2.57 2.09 2.58 2.96 2.48 2.19 2.15 1.99
3462.515 2.06 2.19 2.17 1.93 1.93 2.23 2.3 1.94 1.68 2.02
3481.805 2.24 1.75 1.6 2.07 1.89 1.38 1.48 1.66 1.78 1.65
3501.095 1.56 1.71 1.56 1.46 1.42 1.62 1.84 1.86 1.61 1.21
3520.385 1.2 1.33 1.61 1.74 1.38 0.9259 1.12 1.5 1.24 1.28
3539.674 1.5 1.74 2.06 2.19 1.9 1.44 1.38 1.36 1.29 1.56
3558.964 1.54 1.4 1.61 1.68 1.76 1.56 1.63 1.79 1.6 1.61
3578.254 1.73 1.76 1.51 1.26 1.32 1.22 1.32 1.05 0.8954 1.19
3597.544 1.19 1.12 0.8958 0.9602 1.08 1.32 1.43 1.32 1.35 0.9459
3616.833 1.04 1.38 1.37 1.54 1.34 1.36 1.38 1.14 1.4 1.3
3636.123 1.17 1.26 1.23 1.09 1.57 1.84 1.26 0.7721 0.8995 1.48
3655.413 1.17 0.8258 1.04 1.09 1.05 1.45 1.45 1.25 1.54 1.31
3674.703 0.7378 0.8645 0.9673 0.9039 1.09 1.09 1.22 1.34 1.47 1.41
3693.993 1.15 1.3 1.36 1.27 1.52 1.61 1.15 0.8034 0.7452 1.28
3713.282 1.78 1.52 1.1 0.9197 0.8157 1.15 1.51 0.9079 0.611 1.05
3732.572 0.9903 0.6441 1.03 1.26 0.9874 0.9914 0.8762 0.7123 0.9977 1.21
3751.862 1.22 1.36 1.32 1.17 1.07 1.03 1.06 1.3 1.3 1.2
3771.152 1.41 1.39 0.9523 1.2 1.8 1.77 1.46 1.32 1.28 1.26
3790.441 1.19 1.27 1.23 1 0.94 1.19 1.05 0.5424 0.9361 0.7739
3809.731 0.7232 1.08 0.9108 0.8544 1.05 1.16 1.04 1.55 1.71 1.15
3829.021 1.38 1.87 1.45 1.11 1.28 1.4 1.51 1.3 1.25 1.49
3848.311 1.38 1.19 1.05 1.37 1.7 1.62 1.5 1.44 1.58 1.63
3867.601 1.63 1.59 1.61 1.48 1.56 1.39 1.37 1.76 1.56 1.4
3886.890 1.43 1.03 1.33 2.06 1.95 1.96 2.13 2.31 1.92 1.7
3906.180 2.25 2.01 1.26 1.36 1.87 2.02 2.01 2.14 2 1.5
3925.470 1.19 1.41 1.87 1.49 1.26 1.71 2.17 2.28 2.11 1.91
3944.760 1.98 2.18 1.84 1.84 1.76 1.42 1.6 1.72 1.22 0.7814
3964.049 0.9235 1.35 1.77 1.95 2.07 2.25 2.01 1.7 1.66 1.74
3983.339 1.89 1.8 2.11 2.32 1.74 1.53 1.73 1.81 1.71 1.6
##END=
