##TITLE=2-Hydroxy-5-methylisophthalaldehyde
##JCAMP-DX=4.24
##DATA TYPE=INFRARED SPECTRUM
##ORIGIN=EPA-IR VAPOR PHASE LIBRARY
##OWNER=SRD/NIST
Collection (C) 2018 copyright by the U.S. Secretary of Commerce
on behalf of the United States of America. All rights reserved.
##CAS REGISTRY NO=7310-95-4
##MOLFORM=C 9 H 8 O 3
##$NIST SOURCE=MSDC-IR
##STATE=gas
##XUNITS=1/CM
##YUNITS=ABSORBANCE
##XFACTOR=1.
##YFACTOR=0.001
##DELTAX=1.92898
##FIRSTX=549.8
##LASTX=4000.7
##FIRSTY=3.8966
##MAXX=4000.7
##MINX=549.759
##MAXY=0.0983666
##MINY=0
##NPOINTS=1790
##XYDATA=(X++(Y..Y))
549.759 3.8966 4.3066 4.3266 4.2866 4.5866 4.6966 4.0966 3.7966 3.7466 3.3766
569.049 2.8666 2.6366 2.8966 2.5066 2.3766 2.6366 2.7666 2.9666 3.3966 3.8766
588.339 4.2466 4.8266 5.1666 5.9466 6.9466 7.7266 8.2966 8.6566 8.9466 9.0966
607.628 9.2466 9.0966 8.7866 8.5066 8.4066 8.5266 8.6866 9.1466 10.0466 11.6966
626.918 13.8266 15.7166 17.5166 19.1366 20.3666 21.2466 21.4966 20.9966 19.8266 18.2266
646.208 16.2766 14.1366 12.2366 10.4866 9.0566 7.7466 6.7366 6.2566 5.5866 4.7666
665.498 4.0466 3.6366 3.4466 3.2466 3.2466 3.4266 3.6766 3.7866 3.8866 4.1766
684.787 4.2466 4.4266 4.8266 5.0666 5.3766 5.8566 6.4166 6.9166 7.3066 7.6866
704.077 8.3866 9.0566 9.5266 10.1966 10.8866 11.5366 12.0366 12.6066 13.0566 13.3066
723.367 13.4366 13.2366 12.9666 12.7066 12.5066 12.2766 11.8266 11.3966 11.3166 11.1366
742.657 10.6666 10.7266 11.2866 11.7566 11.9766 11.7166 11.2866 11.4166 11.7366 11.4866
761.947 11.0466 10.5166 9.8466 9.1766 8.2166 6.6666 5.1366 3.9566 3.2766 3.0366
781.236 2.7666 2.5666 2.4466 2.3866 2.3666 2.6566 2.9866 3.1766 3.5366 3.9466
800.526 4.1166 4.0566 4.1866 4.0266 3.7166 3.3666 2.9266 2.5366 2.1666 1.8666
819.816 1.4966 1.2766 1.4166 1.3266 1.0466 0.9368 1.0466 1.2166 1.0466 0.9082
839.106 0.9955 1.0766 1.1966 1.3566 1.4466 1.5866 1.5566 1.5266 1.8266 2.1366
858.395 2.4766 2.8366 3.2166 3.8366 4.5066 4.9766 5.5166 6.3466 7.2966 7.4566
877.685 6.4766 5.3466 4.5166 4.0566 3.5066 2.9066 2.4766 2.2866 2.0166 1.6566
896.975 1.6666 1.7566 1.8366 1.8666 1.9766 2.1966 2.3066 2.2466 2.3466 2.6566
916.265 2.8566 2.8866 2.8766 3.1066 3.3766 3.6966 4.1166 4.6466 5.1266 5.8066
935.555 6.7166 7.7666 9.3366 11.3866 14.1066 17.4466 21.2566 25.4566 29.6366 32.7966
954.844 34.5466 35.3166 35.2066 34.2066 31.9466 28.3766 23.7666 18.9766 14.9266 11.7866
974.134 9.7466 8.3366 7.3966 6.9366 6.4366 6.1466 6.1666 6.0566 5.8066 5.9466
993.424 6.2266 6.2366 6.3466 6.7366 6.9866 7.0566 7.2066 7.1866 7.4666 7.6466
1012.714 7.5166 7.2866 6.7366 6.2766 5.9466 5.5666 5.1166 4.7266 3.9266 3.3466
1032.003 3.1966 2.7366 2.3766 2.1866 2.0966 1.9866 1.7066 1.5766 1.5566 1.6166
1051.293 1.7266 1.7866 1.6466 1.4566 1.4966 1.5366 1.6266 1.7666 1.7266 1.8766
1070.583 2.0666 1.8666 1.4966 1.4866 1.7066 1.7766 1.8366 1.6366 1.5766 1.7766
1089.873 1.9066 1.7166 1.4266 1.6666 1.4466 1.2466 1.5866 1.4066 1.0566 1.2466
1109.163 1.6066 1.5866 1.7166 1.8466 2.0366 2.1366 1.9266 2.0566 2.3166 2.3666
1128.452 2.7866 3.1666 2.6366 2.4166 2.9966 3.1966 3.1866 3.5766 4.2666 4.9866
1147.742 5.9466 7.0266 7.7866 8.3166 9.0666 9.1866 8.7066 8.7266 8.1866 6.8166
1167.032 5.5866 4.7666 4.1466 3.6366 3.3866 3.2466 3.0866 3.2966 3.4966 3.8566
1186.322 4.3366 4.5766 5.1066 6.1166 7.0766 8.2166 9.8666 11.7866 14.1566 17.0566
1205.611 20.1066 22.7766 24.9366 26.3166 26.8066 26.7466 26.0466 24.3466 21.9966 18.8966
1224.901 15.8966 13.7066 11.7766 10.3966 9.6266 9.2466 8.7466 8.3466 8.0466 7.9666
1244.191 8.0566 8.3166 9.0166 9.8366 11.0166 12.5866 14.6466 17.0566 19.1766 20.8866
1263.481 22.3266 23.1366 23.2866 23.0566 22.1866 20.7566 18.9266 16.8066 14.8666 13.4766
1282.771 12.7266 12.8566 13.5866 14.4966 15.8366 17.6666 19.7466 21.9666 24.0266 25.8066
1302.060 27.1466 27.6766 27.5766 26.8766 25.5566 23.7766 21.5066 18.9666 16.4966 14.2966
1321.350 12.5766 11.4366 10.8566 10.6266 10.6666 10.8566 11.0766 11.3166 11.4966 11.7366
1340.640 11.8866 11.9666 12.0466 12.0866 12.0866 12.0566 12.0866 12.1866 12.4066 12.7166
1359.930 13.2366 13.8566 14.5666 15.4566 16.3466 17.1766 17.9566 18.5666 19.0566 19.4866
1379.219 19.7866 20.0866 20.4766 20.8866 21.3966 22.0466 22.7266 23.2266 23.5366 23.6466
1398.509 23.6066 23.3366 22.6766 21.7566 20.7066 19.6866 18.7766 18.0366 17.5966 17.4266
1417.799 17.5366 17.7866 18.0366 18.2766 18.4966 18.8266 19.1066 19.2766 19.5766 19.9566
1437.089 20.5566 21.3966 22.4466 23.8666 25.7366 28.0666 30.9766 34.3666 38.0466 41.5566
1456.378 44.3566 45.9266 46.0566 44.9866 43.1266 40.6566 37.1766 32.5266 27.2066 22.0266
1475.668 17.8566 14.7466 12.5666 10.9566 9.8766 9.1366 8.4866 7.9266 7.5066 7.1566
1494.958 6.7966 6.4266 6.0966 5.8266 5.5266 5.2166 4.8866 4.5766 4.3966 4.2366
1514.248 4.0666 4.0066 3.9066 3.8966 3.9566 3.9466 3.9566 3.9366 3.9866 3.9466
1533.538 3.7866 3.7266 3.6466 3.6066 3.5866 3.5766 3.6266 3.6566 3.6866 3.7566
1552.827 3.8766 4.0466 4.2666 4.4466 4.6966 5.1266 5.6066 6.1966 6.8666 7.5066
1572.117 8.3566 9.4866 10.7866 12.2166 13.8066 15.5866 17.5066 19.7266 22.1666 24.6166
1591.407 27.2666 29.9666 32.3766 34.5566 36.3066 37.4066 37.6766 37.1966 35.9566 34.0766
1610.697 31.6566 28.6266 25.3666 22.1266 19.2766 16.9066 15.0266 13.5066 12.2666 11.3166
1629.986 10.5766 9.9466 9.5766 9.4466 9.4666 9.6466 9.9766 10.4666 11.1266 12.1166
1649.276 13.4866 15.4066 18.2566 22.0466 26.9866 33.5366 41.6066 51.1866 61.5866 71.6766
1668.566 80.5566 87.9566 93.5566 97.1566 98.3666 96.7966 92.1966 85.1466 76.6166 68.1866
1687.856 61.3066 55.9466 53.0366 53.1266 56.6666 63.3566 71.3066 78.2266 81.6766 83.7866
1707.146 85.5366 84.6166 81.0066 73.9466 61.3866 46.8966 34.7966 27.0566 22.3466 19.3366
1726.435 17.2966 15.7066 14.2866 13.0366 11.9166 10.8766 9.9766 9.1066 8.0866 7.0266
1745.725 6.1366 5.4066 4.8666 4.4066 4.1066 3.8766 3.6566 3.5166 3.3666 3.2566
1765.015 3.1066 2.9466 2.8666 2.8766 2.8466 2.6866 2.7266 2.7866 2.7166 2.7666
1784.305 2.7966 2.7566 2.6666 2.5966 2.5366 2.4366 2.3966 2.3766 2.3366 2.2666
1803.594 2.1866 2.0766 1.9266 1.7966 1.6666 1.5766 1.4766 1.3566 1.2666 1.1766
1822.884 1.1366 1.0766 1.0266 1.0766 1.0566 1.0166 1.0566 1.0866 1.1066 1.0866
1842.174 1.1066 1.1566 1.1666 1.2166 1.1966 1.1266 1.0766 1.0566 1.0366 1.0666
1861.464 1.0666 1.0087 0.9851 0.9714 0.9807 0.969 0.9859 1.0266 1.0466 1.0366
1880.754 1.0266 0.9958 1.0041 1.0002 0.9832 0.9583 0.941 0.9633 0.9386 0.9012
1900.043 0.8825 0.9154 0.9598 0.9839 0.9887 1.0046 0.9965 0.9977 1.0266 1.0566
1919.333 1.1566 1.2166 1.1866 1.1966 1.1666 1.1166 1.1466 1.1166 1.0266 0.9909
1938.623 0.9918 0.9426 0.8829 0.8987 0.8714 0.7719 0.7387 0.7249 0.6766 0.6971
1957.913 0.7041 0.6535 0.6624 0.7157 0.6984 0.6393 0.6939 0.7847 0.7834 0.7559
1977.202 0.7519 0.7177 0.6556 0.6478 0.6196 0.5516 0.5261 0.5303 0.5326 0.5764
1996.492 0.603 0.5989 0.623 0.5923 0.4778 0.4251 0.3921 0.3756 0.3826 0.3463
2015.782 0.3996 0.4301 0.3758 0.3613 0.3384 0.3182 0.3314 0.361 0.3571 0.2965
2035.072 0.263 0.2575 0.2932 0.3121 0.3119 0.3317 0.3346 0.3002 0.3274 0.3456
2054.362 0.3727 0.4471 0.4583 0.4774 0.4633 0.4345 0.513 0.5523 0.5112 0.4792
2073.651 0.5035 0.5111 0.4642 0.4369 0.4536 0.4449 0.4353 0.4347 0.373 0.3954
2092.941 0.4463 0.4337 0.409 0.3977 0.4234 0.541 0.5832 0.5365 0.6216 0.6542
2112.231 0.5687 0.5733 0.658 0.6317 0.5287 0.4986 0.4601 0.4261 0.3737 0.3235
2131.521 0.3544 0.3848 0.3567 0.2998 0.3474 0.3717 0.3741 0.331 0.3375 0.3439
2150.810 0.297 0.3038 0.2582 0.2764 0.2748 0.2954 0.3212 0.2928 0.2585 0.2573
2170.100 0.2623 0.2266 0.2426 0.2786 0.2452 0.2413 0.3352 0.3692 0.3489 0.3126
2189.390 0.2544 0.2795 0.3156 0.3436 0.318 0.2716 0.2653 0.2973 0.3949 0.3731
2208.680 0.3197 0.3676 0.358 0.3658 0.4234 0.4785 0.4746 0.3849 0.3217 0.3564
2227.970 0.452 0.4804 0.4485 0.4441 0.4333 0.4314 0.4753 0.4912 0.5377 0.5452
2247.259 0.5465 0.6018 0.5853 0.5981 0.6703 0.7574 0.7822 0.7554 0.7444 0.7411
2266.549 0.7215 0.6529 0.5965 0.5309 0.4377 0.4945 0.4622 0.3551 0.3806 0.3774
2285.839 0.3106 0.3065 0.3506 0.3486 0.2893 0.1921 0.2437 0.2844 0.3092 0.3421
2305.129 0.3244 0.3894 0.4153 0.4379 0.4668 0.4081 0.4407 0.4267 0.3362 0.3724
2324.418 0.43 0.5014 0.5171 0.4655 0.4153 0.4044 0.4168 0.3421 0.3075 0.3256
2343.708 0.3766 0.4003 0.452 0.4958 0.4548 0.4759 0.5104 0.5329 0.5015 0.4727
2362.998 0.506 0.4982 0.574 0.6741 0.6301 0.5379 0.5064 0.5668 0.6205 0.5992
2382.288 0.5487 0.5253 0.5462 0.5871 0.6153 0.6045 0.6215 0.6175 0.6132 0.6337
2401.578 0.6163 0.6942 0.7445 0.7573 0.753 0.6839 0.7228 0.7885 0.7742 0.7111
2420.867 0.6786 0.7191 0.7236 0.6118 0.5132 0.5803 0.6019 0.5859 0.571 0.5227
2440.157 0.4634 0.401 0.4699 0.5226 0.4517 0.363 0.3781 0.4214 0.4301 0.4705
2459.447 0.3997 0.3724 0.4693 0.5008 0.5475 0.6362 0.6661 0.5934 0.5558 0.6266
2478.737 0.6484 0.5939 0.595 0.5905 0.6198 0.6375 0.6348 0.6017 0.5442 0.5542
2498.026 0.5658 0.6435 0.7221 0.7883 0.8362 0.8763 0.9105 0.9381 0.8722 0.8515
2517.316 0.9818 1.0866 1.1466 1.1266 1.1366 1.1866 1.1066 1.0266 1.0666 1.0966
2536.606 1.0666 0.9806 0.8041 0.7363 0.7419 0.7075 0.7052 0.6717 0.6355 0.5896
2555.896 0.6349 0.7464 0.7268 0.7008 0.6907 0.7197 0.7703 0.7657 0.8171 0.8313
2575.186 0.7766 0.7252 0.7394 0.776 0.7014 0.7192 0.7979 0.7741 0.7934 0.873
2594.475 0.8476 0.8148 0.8502 0.8223 0.8415 0.862 0.8916 0.9397 0.935 0.9765
2613.765 1.0366 1.0011 0.9851 1.0039 0.985 0.9604 0.9545 0.979 1.0466 1.1066
2633.055 1.1266 1.0866 1.0466 1.1566 1.2366 1.2266 1.2866 1.3266 1.3366 1.3166
2652.345 1.3266 1.4266 1.4366 1.3966 1.3366 1.3366 1.3266 1.3366 1.3966 1.4466
2671.634 1.5166 1.4766 1.5266 1.7466 1.7166 1.6866 1.7966 1.8566 2.0066 2.1766
2690.924 2.2666 2.3366 2.5366 2.6766 2.7566 2.8266 2.8566 2.9766 3.0866 3.1566
2710.214 3.2666 3.3566 3.5066 3.7266 3.8966 4.0666 4.4266 4.8666 5.1966 5.4766
2729.504 5.8366 6.1166 6.2266 6.3066 6.3866 6.3966 6.2866 6.2666 6.1066 5.8966
2748.794 5.8166 5.7666 5.7666 5.8266 5.9166 5.9166 5.8866 5.9266 5.8366 5.6166
2768.083 5.4866 5.3666 5.1066 4.9366 4.8266 4.6866 4.4766 4.2766 4.2366 4.1966
2787.373 4.1766 4.2366 4.3666 4.4366 4.3866 4.3666 4.5066 4.6566 4.7866 4.8366
2806.663 4.9666 5.3266 5.7366 6.1066 6.5466 7.2966 8.1166 9.0366 10.2066 11.5866
2825.953 13.2266 15.0566 17.1166 19.1166 20.8466 22.2366 23.0566 23.3066 23.0066 22.2866
2845.242 21.1166 19.6266 18.0066 16.4266 15.1166 14.1466 13.9166 14.2066 14.8266 15.6866
2864.532 16.4566 17.1566 17.5366 17.4366 17.1266 16.7166 15.9066 14.4966 12.9366 11.4766
2883.822 9.9366 8.6366 7.6666 6.8166 6.0766 5.4966 5.0966 4.9566 4.9766 4.8366
2903.112 4.5766 4.5466 4.6366 4.7366 4.8366 4.9466 5.0866 5.2466 5.4466 5.7066
2922.401 6.1066 6.6566 7.1966 7.5966 8.1166 8.6866 9.0466 9.1466 9.0666 8.8566
2941.691 8.5366 8.0466 7.4466 6.9266 6.2666 5.6766 5.2566 4.9166 4.7266 4.5666
2960.981 4.3566 4.1666 4.1266 4.0366 3.9966 4.0066 3.8866 3.8566 3.8966 3.8366
2980.271 3.8866 3.9966 3.9266 3.8566 3.8666 3.9866 4.1366 4.2766 4.4366 4.5066
2999.561 4.6966 4.8666 5.0566 5.4566 5.7866 6.1766 6.4166 6.5366 6.6566 6.7166
3018.850 6.9266 6.8866 6.6566 6.5566 6.3466 6.0866 5.9266 5.6066 5.3566 5.1566
3038.140 4.9166 4.6966 4.6666 4.7366 4.7766 4.7566 4.6466 4.6866 4.6466 4.5366
3057.430 4.3766 4.4766 4.5166 4.3366 4.3166 4.3566 4.3066 4.3766 4.5066 4.4266
3076.720 4.2566 4.1566 4.1266 4.0666 3.9666 3.9266 3.9266 4.0466 4.2166 4.2466
3096.009 4.3566 4.4766 4.5066 4.6166 4.6166 4.6966 4.7266 4.6466 4.7266 4.8366
3115.299 4.8666 4.8566 4.9766 5.1866 5.3566 5.3966 5.4066 5.5466 5.5966 5.6066
3134.589 5.7866 5.9166 5.9566 5.9666 6.0866 6.1166 6.1366 6.2366 6.4566 6.6366
3153.879 6.5566 6.5266 6.4766 6.5066 6.6466 6.6766 6.6666 6.6966 6.6666 6.6666
3173.169 6.7066 6.7666 6.8066 6.8066 6.8266 6.8066 6.8466 6.6866 6.4666 6.5366
3192.458 6.4766 6.4466 6.5566 6.4766 6.3666 6.3466 6.3466 6.4566 6.5366 6.4566
3211.748 6.3866 6.3566 6.3266 6.3366 6.3166 6.3466 6.3866 6.2266 6.1266 6.1366
3231.038 6.0066 6.0966 6.1866 6.1166 5.9966 5.9266 5.8966 5.7866 5.8266 5.8966
3250.328 5.8666 5.7966 5.7066 5.5566 5.5166 5.6166 5.6466 5.5366 5.5366 5.6566
3269.617 5.7166 5.6666 5.6966 5.8066 5.8066 5.6566 5.5966 5.6666 5.7666 5.7066
3288.907 5.6166 5.7866 5.8066 5.6566 5.6566 5.5966 5.5566 5.6366 5.5866 5.4566
3308.197 5.4066 5.2666 5.2366 5.5866 5.6666 5.4666 5.2466 5.1866 5.3766 5.6766
3327.487 5.7666 5.7366 5.7666 5.6966 5.6066 5.6666 5.6966 5.6566 5.6466 5.5866
3346.777 5.5366 5.3166 5.1366 4.9866 4.7566 4.5466 4.4866 4.6366 4.6766 4.4666
3366.066 4.2066 4.2466 4.2566 4.0866 4.0466 3.9466 3.9366 3.9666 3.9466 4.2366
3385.356 4.4966 4.5166 4.6866 4.8266 4.8466 4.7066 4.4966 4.5566 4.4866 4.2266
3404.646 4.0666 3.8866 3.5666 3.2666 3.0466 3.0166 3.0566 2.9666 2.8566 2.7866
3423.936 2.7166 2.7566 2.8166 2.8066 2.6766 2.4966 2.4966 2.4266 2.2566 2.2066
3443.225 2.3066 2.5366 2.6166 2.3866 2.3266 2.2866 2.1766 2.1766 2.0866 2.0866
3462.515 2.0366 1.9166 1.9266 2.0266 2.0766 2.1166 2.0666 1.9566 1.9066 2.0066
3481.805 2.1066 1.8166 1.6166 1.5766 1.5966 1.6166 1.5766 1.6266 1.5166 1.3666
3501.095 1.3666 1.4166 1.4166 1.5766 1.5466 1.3166 1.5466 1.7166 1.4666 1.2966
3520.385 1.3066 1.3566 1.2666 1.1666 1.1766 1.2066 1.2566 1.3266 1.2066 1.0466
3539.674 1.1466 1.1466 1.1266 1.1766 1.2066 1.1666 1.006 1.0366 1.0166 1.0064
3558.964 1.1266 1.1066 0.9694 0.8149 0.8056 0.9477 1.0366 1.0142 0.9004 0.7828
3578.254 0.7943 0.7746 0.7549 0.8525 0.8406 0.8573 0.8396 0.7454 0.7437 0.6164
3597.544 0.3809 0.3186 0.4556 0.5604 0.4843 0.456 0.488 0.466 0.4236 0.5732
3616.833 0.6535 0.6555 0.6218 0.5077 0.6774 0.6706 0.4858 0.3978 0.4267 0.5309
3636.123 0.5887 0.5661 0.4993 0.5389 0.4635 0.3171 0.3437 0.4005 0.4379 0.5014
3655.413 0.51 0.5591 0.5093 0.3815 0.3811 0.3406 0.3508 0.3339 0.4075 0.5854
3674.703 0.5527 0.3754 0.3275 0.4181 0.3763 0.3482 0.387 0.4155 0.4014 0.3692
3693.993 0.3895 0.3916 0.3688 0.2427 0.1658 0.1625 0.1515 0.2797 0.2745 0.2604
3713.282 0.2759 0.1863 0.2883 0.3805 0.2947 0.3719 0.4565 0.3813 0.3085 0.295
3732.572 0.4349 0.5227 0.4389 0.3137 0.1893 0.3034 0.6427 0.5537 0.4015 0.4311
3751.862 0.3835 0.4243 0.4957 0.2994 0.2184 0.3911 0.3739 0.2252 0.1523 0.1849
3771.152 0.2302 0.2377 0.1695 0.2207 0.438 0.493 0.3686 0.395 0.3119 0.3059
3790.441 0.5183 0.451 0.299 0.3642 0.491 0.4683 0.3916 0.441 0.3376 0.2628
3809.731 0.3319 0.4784 0.483 0.3795 0.2269 0.1409 0.3514 0.2887 0.2397 0.3295
3829.021 0.2321 0.2896 0.3692 0.3518 0.2812 0.2824 0.4352 0.4675 0.3606 0.3717
3848.311 0.3637 0.3086 0.3576 0.3789 0.3443 0.3078 0.2856 0.2679 0.2858 0.2979
3867.601 0.2538 0.1507 0.2215 0.3118 0.2907 0.2675 0.1525 0.1449 0.2372 0.3343
3886.890 0.531 0.5398 0.4258 0.3354 0.2371 0.2553 0.265 0.2374 0.3336 0.3752
3906.180 0.3727 0.4171 0.3246 0.2651 0.259 0.2112 0.2006 0.2397 0.2026 0.1833
3925.470 0.1484 0.08927 0.2299 0.2565 0.0468 0.10784 0.3319 0.3067 0.2871 0.2668
3944.760 0.194 0.267 0.1565 0 0.1247 0.154 0.1263 0.1622 0.2721 0.4089
3964.049 0.3579 0.1842 0.2328 0.3908 0.4868 0.466 0.4627 0.4704 0.4863 0.4747
3983.339 0.4808 0.5746 0.4927 0.3577 0.2387 0.2427 0.2569 0.2973 0.4553 0.4629
##END=
