##TITLE=N-Dodecylmethylamine
##JCAMP-DX=4.24
##DATA TYPE=INFRARED SPECTRUM
##ORIGIN=EPA-IR VAPOR PHASE LIBRARY
##OWNER=SRD/NIST
Collection (C) 2018 copyright by the U.S. Secretary of Commerce
on behalf of the United States of America. All rights reserved.
##CAS REGISTRY NO=7311-30-0
##MOLFORM=C 13 H 29 N
##$NIST SOURCE=MSDC-IR
##STATE=gas
##XUNITS=1/CM
##YUNITS=ABSORBANCE
##XFACTOR=1.
##YFACTOR=0.001
##DELTAX=1.92934
##FIRSTX=549.9
##LASTX=3999.5
##FIRSTY=0.6504
##MAXX=3999.53
##MINX=549.863
##MAXY=0.031767
##MINY=0
##NPOINTS=1789
##XYDATA=(X++(Y..Y))
549.863 0.6504 0.7441 0.6915 0.5766 0.57559 0.52649 0.4569 0.4457 0.48 0.6409
569.156 0.6941 0.59822 0.58902 0.6574 0.7214 0.6907 0.6496 0.7281 0.7351 0.6934
588.450 0.7249 0.777 0.7691 0.7156 0.7184 0.6729 0.6709 0.7232 0.7428 0.6995
607.743 0.6586 0.6864 0.7207 0.7158 0.7539 0.8354 0.8193 0.775 0.7491 0.732
627.037 0.7579 0.804 0.8176 0.8788 0.9064 0.8799 0.9437 0.9667 0.9115 0.898
646.330 0.9776 1.0269 1.077 1.0638 1.0255 1.0679 1.0815 1.126 1.1729 1.1744
665.624 1.1795 1.17 1.1729 1.2428 1.2928 1.2956 1.3228 1.3633 1.3402 1.3633
684.917 1.4113 1.4401 1.4573 1.4342 1.4797 1.577 1.597 1.577 1.577 1.557
704.210 1.657 1.757 1.767 1.787 1.757 1.747 1.767 1.787 1.787 1.757
723.504 1.697 1.627 1.567 1.557 1.567 1.537 1.4556 1.3761 1.2878 1.2375
742.797 1.2635 1.2375 1.1275 1.0524 1.0629 1.0521 0.9831 0.9679 0.9676 0.9665
762.091 0.978 0.9734 0.9486 0.922 0.8917 0.8365 0.8479 0.8973 0.8594 0.7909
781.384 0.8118 0.8028 0.7426 0.7631 0.7853 0.7546 0.7296 0.6898 0.6799 0.7366
800.678 0.7168 0.6431 0.6475 0.6467 0.611 0.60119 0.6239 0.6469 0.60232 0.57344
819.971 0.6189 0.6339 0.6307 0.6397 0.59787 0.57871 0.59132 0.5919 0.5983 0.59673
839.264 0.592 0.57323 0.59158 0.6303 0.60642 0.6215 0.623 0.56411 0.58904 0.6157
858.558 0.58679 0.58216 0.58697 0.56604 0.53854 0.52945 0.54585 0.57793 0.59255 0.58486
877.851 0.59844 0.59169 0.58459 0.56354 0.55075 0.59704 0.6103 0.58991 0.58464 0.58236
897.145 0.5869 0.59703 0.6162 0.6427 0.6323 0.6283 0.6187 0.6149 0.6248 0.6142
916.438 0.6041 0.6196 0.6322 0.6272 0.6413 0.6506 0.6239 0.60184 0.6185 0.6411
935.732 0.6395 0.6262 0.6404 0.636 0.6224 0.6497 0.6715 0.6673 0.6666 0.6622
955.025 0.6395 0.6454 0.6592 0.6756 0.7074 0.7128 0.698 0.6893 0.6521 0.6376
974.318 0.6567 0.6775 0.7035 0.6887 0.659 0.6312 0.6397 0.6495 0.6415 0.677
993.612 0.7253 0.7089 0.6782 0.6551 0.6501 0.7028 0.7188 0.7036 0.7005 0.6982
1012.905 0.7187 0.7513 0.7404 0.7258 0.7267 0.7252 0.7602 0.7852 0.7946 0.8093
1032.199 0.817 0.8038 0.7565 0.7472 0.8145 0.8229 0.782 0.8274 0.8893 0.8537
1051.492 0.8448 0.8613 0.8766 0.9046 0.9226 0.9472 0.9422 0.9351 0.9292 0.9009
1070.786 0.8852 0.9426 0.9539 0.9113 0.8844 0.8945 0.9169 0.9161 0.9252 0.9071
1090.079 0.9729 1.0706 1.0348 1.0046 1.0133 1.021 1.062 1.1188 1.1421 1.1757
1109.372 1.2442 1.3326 1.4177 1.4879 1.547 1.597 1.657 1.727 1.777 1.767
1128.666 1.827 1.887 1.847 1.837 1.857 1.857 1.817 1.857 1.877 1.817
1147.959 1.797 1.737 1.747 1.777 1.697 1.547 1.4791 1.4679 1.3542 1.2501
1167.253 1.1598 1.0281 0.9862 0.9204 0.8952 0.8724 0.7974 0.7998 0.833 0.7656
1186.546 0.6334 0.53563 0.4459 0.4406 0.4289 0.371 0.358 0.346 0.324 0.253
1205.840 0.194 0.131 0.074 0.097 0.057 0 0.1 0.213 0.201 0.163
1225.133 0.238 0.297 0.241 0.169 0.341 0.512416 0.437 0.342 0.356 0.448
1244.426 0.4707 0.4259 0.415 0.4394 0.399 0.387 0.4321 0.4415 0.4133 0.388
1263.720 0.353 0.313 0.337 0.343 0.343 0.352 0.378 0.4105 0.4224 0.46
1283.013 0.4746 0.4404 0.4214 0.4583 0.53632 0.59079 0.60342 0.6392 0.657 0.6419
1302.307 0.6393 0.674 0.6796 0.7003 0.7636 0.7658 0.7341 0.7211 0.7414 0.7627
1321.600 0.7583 0.7331 0.7482 0.7762 0.7796 0.8138 0.8655 0.8992 0.9384 1.0091
1340.894 1.0961 1.1712 1.2333 1.2894 1.3394 1.3795 1.3841 1.4138 1.4443 1.4445
1360.187 1.4361 1.3979 1.3808 1.3438 1.3091 1.3073 1.2709 1.2111 1.1599 1.1398
1379.480 1.1155 1.0662 1.0244 0.9939 0.9485 0.8938 0.8446 0.7807 0.7511 0.7429
1398.774 0.7173 0.6981 0.7016 0.7338 0.7504 0.7538 0.7685 0.7507 0.7266 0.7542
1418.067 0.7963 0.8473 0.8912 0.9407 1.0021 1.057 1.1323 1.2561 1.3658 1.4692
1437.361 1.617 1.787 1.967 2.147 2.317 2.467 2.607 2.727 2.817 2.917
1456.654 3.017 3.117 3.187 3.187 3.127 3.067 2.977 2.867 2.687 2.497
1475.948 2.317 2.137 1.967 1.777 1.577 1.4059 1.273 1.138 1.0539 1.012
1495.241 0.9276 0.8489 0.7923 0.7181 0.6697 0.615 0.56719 0.56152 0.56451 0.59715
1514.534 0.59957 0.5489 0.53883 0.52366 0.53628 0.514396 0.4706 0.4928 0.4846 0.4668
1533.828 0.4676 0.47 0.4656 0.4408 0.422 0.4218 0.4471 0.4561 0.4169 0.4246
1553.121 0.4224 0.393 0.384 0.373 0.383 0.4194 0.4342 0.4154 0.406 0.4224
1572.415 0.424 0.382 0.357 0.409 0.4421 0.4248 0.406 0.391 0.403 0.391
1591.708 0.385 0.4145 0.4156 0.4124 0.405 0.392 0.382 0.363 0.377 0.392
1611.002 0.398 0.4163 0.393 0.388 0.401 0.39 0.384 0.399 0.4298 0.39
1630.295 0.369 0.38 0.366 0.361 0.365 0.374 0.395 0.406 0.4131 0.397
1649.588 0.397 0.4095 0.405 0.4253 0.4498 0.4523 0.4201 0.4353 0.464 0.454
1668.882 0.4341 0.4672 0.4857 0.4699 0.50268 0.49855 0.4592 0.4241 0.4288 0.4225
1688.175 0.386 0.383 0.379 0.372 0.359 0.359 0.348 0.336 0.35 0.364
1707.469 0.369 0.396 0.393 0.333 0.321 0.331 0.351 0.364 0.37 0.378
1726.762 0.389 0.383 0.363 0.338 0.325 0.362 0.386 0.396 0.391 0.395
1746.056 0.37 0.346 0.359 0.372 0.383 0.369 0.364 0.384 0.396 0.4094
1765.349 0.404 0.365 0.372 0.386 0.396 0.406 0.401 0.376 0.365 0.381
1784.642 0.369 0.359 0.381 0.399 0.397 0.392 0.385 0.388 0.372 0.381
1803.936 0.394 0.393 0.401 0.363 0.363 0.376 0.361 0.347 0.378 0.401
1823.229 0.361 0.358 0.4096 0.42 0.367 0.355 0.376 0.369 0.363 0.388
1842.523 0.381 0.369 0.368 0.37 0.373 0.36 0.367 0.366 0.355 0.367
1861.816 0.379 0.39 0.395 0.352 0.308 0.329 0.39 0.4098 0.385 0.37
1881.110 0.364 0.362 0.377 0.379 0.337 0.33 0.351 0.364 0.366 0.366
1900.403 0.367 0.357 0.334 0.331 0.339 0.335 0.36 0.368 0.367 0.379
1919.696 0.378 0.363 0.367 0.371 0.356 0.378 0.403 0.401 0.402 0.399
1938.990 0.381 0.369 0.394 0.4 0.368 0.362 0.354 0.354 0.38 0.376
1958.283 0.378 0.39 0.373 0.378 0.399 0.401 0.384 0.374 0.372 0.37
1977.577 0.38 0.395 0.398 0.402 0.4127 0.395 0.39 0.379 0.365 0.388
1996.870 0.406 0.399 0.382 0.392 0.4194 0.4294 0.4162 0.4114 0.4227 0.4196
2016.164 0.4089 0.4081 0.4163 0.4392 0.4372 0.422 0.4332 0.4403 0.4268 0.4286
2035.457 0.445 0.4665 0.4581 0.452 0.4575 0.4519 0.4665 0.4825 0.4579 0.4469
2054.750 0.46 0.4444 0.4536 0.4745 0.4712 0.4538 0.4422 0.4517 0.452 0.4435
2074.044 0.4363 0.4261 0.4278 0.4305 0.4196 0.4161 0.4168 0.4254 0.4449 0.4453
2093.337 0.4377 0.4346 0.4423 0.4479 0.4663 0.4737 0.4548 0.4587 0.4659 0.4528
2112.631 0.4512 0.4411 0.436 0.4614 0.4532 0.4493 0.4566 0.4568 0.4611 0.4502
2131.924 0.4545 0.4513 0.4393 0.4308 0.4436 0.471 0.4766 0.4813 0.4676 0.4344
2151.218 0.424 0.4515 0.4619 0.4542 0.4597 0.4623 0.4495 0.4613 0.4744 0.4593
2170.511 0.4604 0.4578 0.4375 0.4376 0.4516 0.4693 0.4877 0.4596 0.4469 0.4639
2189.804 0.4533 0.4613 0.4733 0.4553 0.456 0.4728 0.4726 0.4678 0.4724 0.4715
2209.098 0.4676 0.4606 0.4455 0.446 0.4562 0.441 0.4537 0.50345 0.4918 0.4639
2228.391 0.4713 0.4857 0.49921 0.51111 0.50201 0.4836 0.487 0.476 0.4728 0.4803
2247.685 0.4733 0.4944 0.50352 0.4915 0.4839 0.4739 0.4694 0.4753 0.50498 0.506978
2266.978 0.481 0.4598 0.4521 0.4612 0.4751 0.4707 0.4608 0.4863 0.4704 0.4589
2286.272 0.4719 0.4788 0.4911 0.4585 0.4782 0.516697 0.50221 0.4848 0.4838 0.498
2305.565 0.5045 0.52189 0.4921 0.4532 0.4661 0.50272 0.511781 0.469 0.4813 0.509622
2324.858 0.4886 0.4915 0.49986 0.507022 0.5171 0.50013 0.495 0.4828 0.4777 0.4756
2344.152 0.4751 0.4876 0.4901 0.4886 0.4749 0.4673 0.4757 0.4757 0.4725 0.4898
2363.445 0.4916 0.4582 0.4817 0.513435 0.4862 0.4736 0.50526 0.52044 0.50515 0.508836
2382.739 0.5188 0.510816 0.512235 0.51931 0.52717 0.54429 0.52208 0.50166 0.52859 0.54577
2402.032 0.54458 0.53133 0.52345 0.53225 0.52734 0.52714 0.52466 0.52276 0.51767 0.508233
2421.326 0.50349 0.53594 0.5634 0.54123 0.54591 0.56758 0.53286 0.509835 0.53539 0.55038
2440.619 0.51794 0.49873 0.54056 0.57077 0.53378 0.5267 0.56155 0.54729 0.52937 0.54715
2459.912 0.54765 0.52717 0.53995 0.57253 0.58589 0.55792 0.55757 0.58109 0.57519 0.54329
2479.206 0.52388 0.5408 0.55533 0.56438 0.58977 0.59729 0.59722 0.60657 0.59513 0.57798
2498.499 0.56215 0.56503 0.60094 0.6323 0.6066 0.57233 0.6076 0.6175 0.6082 0.6187
2517.793 0.6085 0.621 0.6391 0.6278 0.59922 0.6164 0.6104 0.56692 0.5941 0.6507
2537.086 0.6743 0.6787 0.6805 0.6761 0.6595 0.6634 0.6857 0.6814 0.6859 0.6925
2556.380 0.6938 0.7034 0.6921 0.6804 0.6596 0.6625 0.6716 0.6535 0.6818 0.7189
2575.673 0.7009 0.6854 0.6797 0.6717 0.7054 0.7151 0.7116 0.7417 0.7795 0.7893
2594.966 0.7636 0.7255 0.7337 0.7664 0.7781 0.8084 0.8247 0.7964 0.8009 0.8048
2614.260 0.7959 0.7979 0.7945 0.771 0.7941 0.8165 0.8086 0.8363 0.7982 0.8077
2633.553 0.8533 0.8494 0.8323 0.8367 0.8891 0.8931 0.8597 0.901 0.9525 0.9487
2652.847 0.9382 0.9391 0.9276 0.9501 1.0083 1.0032 1.0022 1.0687 1.0799 1.0694
2672.140 1.0683 1.043 1.0478 1.0691 1.0895 1.1112 1.1489 1.1872 1.2009 1.2076
2691.434 1.225 1.2162 1.1908 1.1834 1.1912 1.2452 1.2317 1.178 1.212 1.2315
2710.727 1.2296 1.2273 1.2328 1.2767 1.2943 1.2682 1.2785 1.3111 1.3325 1.3988
2730.020 1.4063 1.3593 1.4165 1.4139 1.3715 1.4317 1.4794 1.507 1.567 1.597
2749.314 1.627 1.697 1.757 1.807 1.827 1.897 2.017 2.127 2.217 2.317
2768.607 2.447 2.557 2.727 2.907 2.997 3.087 3.227 3.387 3.567 3.777
2787.901 4.017 4.277 4.487 4.697 4.887 4.947 4.977 4.987 4.967 4.897
2807.194 4.757 4.667 4.617 4.557 4.527 4.447 4.377 4.377 4.387 4.387
2826.488 4.407 4.407 4.457 4.547 4.617 4.777 4.947 5.157 5.427 5.847
2845.781 6.447 7.057 7.807 8.717 9.727 10.767 11.727 12.467 12.917 13.057
2865.074 12.877 12.507 11.977 11.317 10.647 10.047 9.577 9.207 8.947 8.737
2884.368 8.547 8.427 8.337 8.287 8.407 8.567 8.777 9.137 9.577 10.047
2903.661 10.577 11.237 11.977 12.807 13.727 14.837 16.167 17.687 19.427 21.497
2922.955 23.867 26.247 28.407 30.197 31.397 31.767 31.377 30.357 28.737 26.697
2942.248 24.537 22.327 20.157 18.137 16.307 14.857 13.757 12.817 12.087 11.547
2961.542 11.157 10.967 10.757 10.457 10.057 9.527 8.927 8.197 7.377 6.647
2980.835 5.997 5.337 4.717 4.267 3.957 3.607 3.257 2.987 2.807 2.667
3000.128 2.597 2.467 2.297 2.247 2.147 1.967 1.857 1.887 1.867 1.747
3019.422 1.677 1.637 1.627 1.667 1.597 1.5029 1.506 1.537 1.517 1.4507
3038.715 1.3698 1.3922 1.4676 1.4285 1.3612 1.3261 1.2841 1.2463 1.2397 1.2032
3058.009 1.1634 1.1285 1.0814 1.0529 1.0684 1.0784 1.0571 1.0046 1.0672 1.147
3077.302 1.0353 0.9446 0.9831 1.0562 1.0341 1.0112 0.9426 0.9521 1.0633 1.0497
3096.596 0.997 0.9907 0.9724 0.9535 0.965 0.9825 0.9832 0.8999 0.8836 0.9597
3115.889 0.948 0.9189 0.9023 0.9027 0.9074 0.9005 0.8857 0.8782 0.8786 0.9021
3135.182 0.941 0.858 0.8151 0.8415 0.7902 0.7739 0.8057 0.7752 0.7393 0.778
3154.476 0.8203 0.7593 0.7434 0.7668 0.8235 0.8529 0.7208 0.7228 0.8318 0.7719
3173.769 0.6904 0.6976 0.7193 0.6991 0.7445 0.7266 0.6244 0.6983 0.8062 0.8065
3193.063 0.7844 0.8236 0.8198 0.7839 0.7269 0.671 0.6746 0.688 0.6698 0.7529
3212.356 0.7931 0.7431 0.7645 0.692 0.6529 0.6719 0.6014 0.6337 0.669 0.6768
3231.650 0.703 0.6566 0.6486 0.7062 0.7644 0.67 0.59523 0.669 0.6951 0.685
3250.943 0.6285 0.54903 0.55444 0.6176 0.6539 0.6324 0.6294 0.6428 0.6077 0.6294
3270.236 0.57221 0.52252 0.6227 0.653 0.6863 0.6813 0.6819 0.6893 0.6385 0.6306
3289.530 0.6679 0.6759 0.6705 0.6529 0.6312 0.56911 0.4754 0.4577 0.4819 0.51905
3308.823 0.59168 0.6824 0.56442 0.54953 0.6555 0.6258 0.6235 0.54781 0.506614 0.58908
3328.117 0.6315 0.60373 0.58251 0.59346 0.6623 0.6731 0.55976 0.515062 0.53395 0.54368
3347.410 0.54801 0.5837 0.6153 0.611 0.58111 0.57963 0.57999 0.56801 0.59019 0.617
3366.704 0.6147 0.54914 0.56105 0.55787 0.4894 0.52355 0.511648 0.52299 0.53217 0.55576
3385.997 0.6459 0.6209 0.58021 0.55158 0.4848 0.4605 0.56722 0.6089 0.52356 0.51977
3405.290 0.54672 0.50454 0.54918 0.6131 0.54455 0.50279 0.4794 0.4425 0.50335 0.4755
3424.584 0.4865 0.51548 0.4918 0.53317 0.53017 0.4718 0.4811 0.4826 0.385 0.4511
3443.877 0.51781 0.4211 0.384 0.4693 0.55178 0.55503 0.4929 0.4956 0.52814 0.4879
3463.171 0.4555 0.4234 0.393 0.403 0.4104 0.4248 0.506292 0.513993 0.515764 0.54478
3482.464 0.4909 0.4677 0.4239 0.4454 0.50097 0.4188 0.4072 0.4918 0.4749 0.4469
3501.758 0.4912 0.4827 0.4213 0.4403 0.4536 0.376 0.361 0.366 0.4184 0.406
3521.051 0.353 0.4333 0.4702 0.459 0.4806 0.4148 0.406 0.4817 0.4587 0.4159
3540.344 0.4262 0.4178 0.383 0.4226 0.4826 0.4572 0.4459 0.4692 0.4789 0.4765
3559.638 0.4816 0.4668 0.4909 0.4815 0.4292 0.4749 0.4567 0.376 0.351 0.396
3578.931 0.438 0.4433 0.4638 0.50344 0.4638 0.386 0.403 0.4927 0.4974 0.4902
3598.225 0.51799 0.6293 0.6534 0.6167 0.58092 0.516608 0.53278 0.5384 0.53053 0.516322
3617.518 0.4951 0.50315 0.53152 0.50015 0.4593 0.4427 0.4719 0.54122 0.54813 0.4941
3636.812 0.52221 0.515302 0.4353 0.4244 0.4665 0.4913 0.4882 0.4801 0.4328 0.39
3656.105 0.4526 0.52822 0.4875 0.4766 0.4909 0.4802 0.5334 0.510898 0.4553 0.4913
3675.398 0.4725 0.4412 0.4791 0.4882 0.57126 0.5665 0.4899 0.507624 0.515477 0.53988
3694.692 0.53795 0.4863 0.4461 0.4556 0.4728 0.49829 0.513091 0.52727 0.52714 0.510892
3713.985 0.4872 0.4681 0.513355 0.513362 0.4588 0.4811 0.53956 0.53017 0.4854 0.53061
3733.279 0.54064 0.4831 0.4812 0.4402 0.4701 0.50612 0.52795 0.58514 0.53862 0.54144
3752.572 0.53415 0.4962 0.4958 0.52798 0.54095 0.52163 0.5522 0.50014 0.4551 0.49871
3771.866 0.54845 0.50171 0.506229 0.54849 0.508258 0.54099 0.53159 0.4572 0.4592 0.4754
3791.159 0.49901 0.50234 0.507095 0.56574 0.510531 0.4848 0.507889 0.51924 0.509083 0.510439
3810.452 0.52514 0.55486 0.59309 0.57138 0.51736 0.4967 0.54023 0.533 0.562 0.59016
3829.746 0.55346 0.52262 0.4695 0.4327 0.4432 0.4798 0.50526 0.54119 0.57871 0.58546
3849.039 0.54144 0.506539 0.4912 0.4947 0.54557 0.58748 0.6139 0.5642 0.58031 0.56332
3868.333 0.50583 0.54768 0.5591 0.55128 0.55173 0.55929 0.50543 0.511521 0.5849 0.54868
3887.626 0.52917 0.50422 0.514795 0.54983 0.54162 0.51781 0.4578 0.49811 0.57311 0.56818
3906.920 0.54842 0.58165 0.59894 0.5578 0.52418 0.52911 0.59641 0.6117 0.614 0.6121
3926.213 0.58414 0.59909 0.54271 0.56242 0.6371 0.6544 0.6308 0.5951 0.6202 0.58604
3945.506 0.50455 0.54428 0.54196 0.52991 0.6194 0.6215 0.6289 0.59408 0.58771 0.6354
3964.800 0.60196 0.58165 0.59321 0.6205 0.6423 0.6358 0.59591 0.55424 0.56185 0.5861
3984.093 0.61 0.59002 0.56935 0.58008 0.54722 0.58188 0.647 0.6387 0.5885
##END=
