##TITLE=2,4-Dimethoxybenzyl alcohol
##JCAMP-DX=4.24
##DATA TYPE=INFRARED SPECTRUM
##ORIGIN=EPA-IR VAPOR PHASE LIBRARY
##OWNER=SRD/NIST
Collection (C) 2018 copyright by the U.S. Secretary of Commerce
on behalf of the United States of America. All rights reserved.
##CAS REGISTRY NO=7314-44-5
##MOLFORM=C 9 H 12 O 3
##$NIST SOURCE=MSDC-IR
##STATE=gas
##XUNITS=1/CM
##YUNITS=ABSORBANCE
##XFACTOR=1.
##YFACTOR=0.001
##DELTAX=1.92934
##FIRSTX=549.9
##LASTX=3999.5
##FIRSTY=2.456
##MAXX=3999.53
##MINX=549.863
##MAXY=0.027626
##MINY=0
##NPOINTS=1789
##XYDATA=(X++(Y..Y))
549.863 2.456 2.406 2.376 2.506 2.606 2.446 2.426 2.436 2.296 2.286
569.156 2.246 2.126 2.086 2.006 1.806 1.856 1.936 1.876 1.766 1.596
588.450 1.5219 1.5087 1.5087 1.4148 1.3255 1.2932 1.3172 1.3258 1.2822 1.2904
607.743 1.3392 1.3318 1.2958 1.35 1.345 1.2503 1.2608 1.3362 1.4093 1.4704
627.037 1.433 1.426 1.4855 1.4697 1.5281 1.5441 1.5143 1.4983 1.4825 1.5035
646.330 1.4777 1.4852 1.4642 1.3824 1.333 1.287 1.2256 1.14 1.1447 1.1209
665.624 1.0504 1.0685 1.1232 1.0646 0.9679 0.9931 0.9377 0.8631 0.926 1.0167
684.917 0.9761 0.9264 0.9628 0.955 0.9975 1.0472 1.1167 1.1794 1.172 1.1832
704.210 1.2576 1.3023 1.2804 1.2845 1.2862 1.2841 1.2424 1.2284 1.1986 1.0946
723.504 1.0418 1.0275 1.0107 1.0017 0.9657 0.9565 0.9433 0.9627 0.9792 0.9283
742.797 0.9193 0.9448 0.8952 0.9052 0.9969 1.053 1.0844 1.1067 1.1636 1.2505
762.091 1.3741 1.4881 1.656 1.866 2.046 2.156 2.296 2.446 2.556 2.686
781.384 2.706 2.736 2.796 2.736 2.686 2.716 2.726 2.736 2.716 2.676
800.678 2.726 2.796 2.876 2.926 2.946 3.056 3.166 3.296 3.436 3.576
819.971 3.846 4.106 4.306 4.526 4.706 4.896 5.056 5.236 5.436 5.546
839.264 5.506 5.266 4.936 4.646 4.326 4.026 3.756 3.406 3.086 2.806
858.558 2.526 2.296 2.106 1.956 1.886 1.756 1.626 1.5774 1.5314 1.4549
877.851 1.4251 1.3936 1.3324 1.3304 1.396 1.4497 1.4462 1.4718 1.5282 1.606
897.145 1.656 1.686 1.846 1.996 2.136 2.396 2.736 3.046 3.466 3.926
916.438 4.316 4.686 5.066 5.436 5.646 5.706 5.716 5.606 5.386 5.166
935.732 4.906 4.576 4.216 3.996 3.946 3.856 3.766 3.736 3.756 3.826
955.025 3.926 3.966 3.976 3.976 4.016 4.086 4.096 4.116 4.206 4.286
974.318 4.426 4.586 4.736 4.966 5.276 5.616 6.006 6.416 6.936 7.526
993.612 8.106 8.746 9.436 10.186 10.916 11.706 12.606 13.376 14.086 14.786
1012.905 15.426 15.976 16.486 16.976 17.416 17.806 18.186 18.536 18.916 19.336
1032.199 19.736 20.146 20.406 20.526 20.446 20.136 19.526 18.576 17.376 16.026
1051.492 14.476 12.766 11.156 9.676 8.376 7.226 6.296 5.586 5.016 4.616
1070.786 4.326 4.116 3.936 3.836 3.736 3.646 3.696 3.756 3.796 3.906
1090.079 4.126 4.386 4.696 5.096 5.636 6.356 7.166 8.086 9.106 10.136
1109.372 11.166 12.136 12.976 13.706 14.266 14.536 14.596 14.446 14.116 13.676
1128.666 13.136 12.546 12.036 11.656 11.546 11.806 12.506 13.746 15.476 17.686
1147.959 20.276 22.926 25.106 26.646 27.496 27.626 27.046 25.696 23.676 21.196
1167.253 18.716 16.566 14.856 13.716 12.916 12.376 12.106 12.046 12.166 12.356
1186.546 12.776 13.416 14.236 15.396 16.776 18.526 20.666 22.756 24.626 26.026
1205.840 26.586 26.456 25.746 24.336 22.276 19.886 17.226 14.676 12.626 10.826
1225.133 9.486 8.626 8.116 7.776 7.486 7.486 7.546 7.706 8.066 8.446
1244.426 8.986 9.646 10.316 11.086 11.826 12.526 13.136 13.496 13.846 14.276
1263.720 14.616 14.926 15.246 15.666 16.236 17.076 18.146 19.296 20.566 21.676
1283.013 22.426 22.896 22.936 22.596 21.856 20.686 19.236 17.666 16.086 14.636
1302.307 13.396 12.326 11.406 10.596 9.876 9.236 8.686 8.186 7.736 7.286
1321.600 6.856 6.486 6.116 5.706 5.346 5.036 4.796 4.556 4.306 4.136
1340.894 3.946 3.756 3.586 3.456 3.396 3.326 3.296 3.296 3.306 3.346
1360.187 3.436 3.546 3.656 3.806 4.006 4.206 4.456 4.756 5.056 5.386
1379.480 5.696 6.016 6.276 6.466 6.656 6.886 6.986 6.966 6.946 6.976
1398.774 6.996 7.036 7.146 7.286 7.466 7.666 7.866 8.006 8.086 8.136
1418.067 8.076 7.926 7.716 7.446 7.206 7.036 6.966 7.066 7.326 7.726
1437.361 8.186 8.546 8.816 9.076 9.246 9.386 9.516 9.576 9.706 10.066
1456.654 10.696 11.496 12.306 12.996 13.486 13.686 13.596 13.346 12.946 12.456
1475.948 11.906 11.256 10.676 10.366 10.316 10.586 11.246 12.286 13.646 15.226
1495.241 17.096 19.116 20.916 22.386 23.256 23.376 22.746 21.476 19.586 17.156
1514.534 14.476 11.756 9.366 7.466 6.006 4.996 4.276 3.786 3.436 3.176
1533.828 3.016 2.906 2.826 2.796 2.806 2.826 2.866 2.876 2.896 3.026
1553.121 3.246 3.486 3.736 4.066 4.436 4.846 5.366 5.956 6.636 7.476
1572.415 8.396 9.436 10.536 11.616 12.696 13.706 14.586 15.376 16.056 16.706
1591.708 17.286 17.806 18.406 19.096 19.936 21.036 22.226 23.336 24.306 24.936
1611.002 24.956 24.396 23.306 21.616 19.576 17.386 15.086 12.826 10.756 8.916
1630.295 7.396 6.286 5.466 4.776 4.196 3.736 3.326 3.026 2.826 2.626
1649.588 2.416 2.336 2.246 2.086 1.936 1.806 1.766 1.726 1.646 1.574
1668.882 1.5794 1.5289 1.4354 1.4076 1.3592 1.3113 1.3264 1.3069 1.2859 1.3053
1688.175 1.2723 1.2652 1.2346 1.2416 1.3207 1.3154 1.2751 1.2525 1.2456 1.245
1707.469 1.2051 1.1388 1.1101 1.0753 1.0402 1.036 1.0478 1.0257 1.0118 1.0105
1726.762 0.9788 0.947 0.9105 0.9141 0.9356 0.9196 0.8909 0.8757 0.8756 0.9168
1746.056 0.8969 0.8719 0.8707 0.8254 0.8147 0.7892 0.7882 0.794 0.81 0.7981
1765.349 0.757 0.7754 0.7655 0.7226 0.7253 0.7393 0.7074 0.67507 0.66916 0.7033
1784.642 0.7502 0.7403 0.7121 0.69289 0.66006 0.64012 0.64203 0.64793 0.6544 0.66151
1803.936 0.64264 0.65921 0.67007 0.652 0.65741 0.66218 0.6706 0.6845 0.67399 0.64425
1823.229 0.66161 0.65956 0.6524 0.6969 0.7087 0.67981 0.68584 0.735 0.7357 0.7465
1842.523 0.7711 0.7816 0.8162 0.8522 0.8523 0.8237 0.8267 0.8568 0.912 0.8977
1861.816 0.8772 0.8975 0.9019 0.8883 0.8747 0.8473 0.8206 0.8368 0.8321 0.8156
1881.110 0.7961 0.7792 0.7872 0.7651 0.708 0.7087 0.69104 0.65365 0.65666 0.66189
1900.403 0.68445 0.711 0.7014 0.64719 0.64775 0.7027 0.7139 0.69596 0.6942 0.6989
1919.696 0.69584 0.69573 0.68274 0.66558 0.66708 0.65184 0.66588 0.69066 0.64325 0.63822
1938.990 0.68108 0.6864 0.69237 0.7039 0.7029 0.68131 0.7022 0.7082 0.68572 0.7135
1958.283 0.7326 0.7634 0.7861 0.7702 0.7592 0.762 0.7561 0.7238 0.7133 0.7517
1977.577 0.7574 0.7348 0.7244 0.7351 0.719 0.7056 0.7524 0.7695 0.7652 0.776
1996.870 0.7559 0.74 0.7831 0.7948 0.7663 0.7527 0.7373 0.7114 0.7223 0.7602
2016.164 0.7569 0.7488 0.7517 0.7783 0.7691 0.7627 0.8001 0.7827 0.7437 0.7789
2035.457 0.8236 0.8091 0.824 0.8355 0.8255 0.8471 0.8855 0.8878 0.8875 0.8716
2054.750 0.8659 0.8953 0.9102 0.9304 0.9413 0.9473 0.9452 0.9475 0.9472 0.9136
2074.044 0.8989 0.9102 0.9383 0.9551 0.9215 0.9186 0.8927 0.8349 0.8298 0.8272
2093.337 0.8053 0.7669 0.7303 0.7063 0.66512 0.62862 0.6301 0.62602 0.58 0.5584
2112.631 0.5775 0.5851 0.5816 0.5807 0.5765 0.5738 0.5653 0.5506 0.5745 0.601441
2131.924 0.5846 0.5721 0.5587 0.5416 0.5675 0.6062 0.595368 0.5361 0.5276 0.5935
2151.218 0.63706 0.62993 0.63952 0.63813 0.62459 0.63278 0.63906 0.63605 0.64639 0.66537
2170.511 0.66535 0.66662 0.66023 0.69028 0.709 0.68987 0.68834 0.68828 0.68687 0.68579
2189.804 0.7062 0.7282 0.7204 0.7247 0.7451 0.7894 0.8077 0.7818 0.7608 0.7424
2209.098 0.7354 0.717 0.7294 0.755 0.6991 0.62216 0.63646 0.672 0.65467 0.60604
2228.391 0.5773 0.5697 0.5389 0.5274 0.517 0.5065 0.5055 0.509 0.5052 0.48
2247.685 0.492 0.5123 0.466 0.418 0.454 0.476 0.45 0.443 0.442 0.454
2266.978 0.458 0.465 0.458 0.443 0.46 0.452 0.457 0.495 0.488 0.475
2286.272 0.484 0.5252 0.5478 0.484 0.439 0.436 0.484 0.5363 0.5221 0.5199
2305.565 0.558 0.538 0.5159 0.5163 0.5164 0.5164 0.496 0.5167 0.509 0.5228
2324.858 0.551 0.5482 0.5629 0.5413 0.5402 0.5295 0.5659 0.5789 0.5365 0.523
2344.152 0.5204 0.51 0.48 0.5108 0.5076 0.522 0.554 0.5205 0.5095 0.5305
2363.445 0.5309 0.516 0.4967 0.473 0.466 0.496 0.4992 0.5042 0.5289 0.5402
2382.739 0.558 0.5604 0.5598 0.5579 0.5636 0.5512 0.5346 0.547 0.5578 0.5635
2402.032 0.5408 0.5509 0.5617 0.5333 0.5253 0.5483 0.5337 0.5193 0.5556 0.5717
2421.326 0.5564 0.5279 0.537 0.5438 0.5591 0.56 0.5494 0.5522 0.5765 0.5749
2440.619 0.5745 0.5769 0.5643 0.5813 0.5679 0.5397 0.5179 0.5272 0.5385 0.5414
2459.912 0.544 0.5115 0.5183 0.565 0.5499 0.5404 0.5699 0.5725 0.5473 0.5325
2479.206 0.503 0.497 0.5169 0.5064 0.5672 0.64008 0.63002 0.61486 0.61005 0.5737
2498.499 0.5483 0.5432 0.5294 0.5183 0.5168 0.5188 0.503 0.494 0.5051 0.5025
2517.793 0.452 0.424 0.44 0.485 0.5187 0.473 0.433 0.479 0.494 0.448
2537.086 0.422 0.394 0.434 0.457 0.468 0.495 0.449 0.444 0.454 0.425
2556.380 0.447 0.459 0.451 0.468 0.462 0.455 0.429 0.443 0.49 0.489
2575.673 0.451 0.435 0.469 0.5231 0.5206 0.496 0.493 0.473 0.495 0.5357
2594.966 0.5534 0.5152 0.475 0.459 0.481 0.5432 0.492 0.446 0.481 0.5039
2614.260 0.5199 0.485 0.487 0.492 0.45 0.45 0.465 0.459 0.43 0.413
2633.553 0.423 0.474 0.5091 0.488 0.488 0.496 0.484 0.445 0.441 0.388
2652.847 0.381 0.42 0.419 0.463 0.454 0.45 0.5055 0.5302 0.46 0.446
2672.140 0.441 0.396 0.419 0.411 0.379 0.415 0.464 0.457 0.436 0.449
2691.434 0.444 0.438 0.473 0.491 0.425 0.399 0.5024 0.5375 0.467 0.426
2710.727 0.391 0.449 0.5174 0.5042 0.475 0.475 0.5043 0.5242 0.5544 0.497
2730.020 0.448 0.5017 0.472 0.472 0.5273 0.5036 0.5215 0.5605 0.5789 0.5512
2749.314 0.5375 0.5511 0.5619 0.59243 0.598421 0.63439 0.601273 0.5586 0.65135 0.7107
2768.607 0.7401 0.7608 0.7329 0.7545 0.7957 0.8555 0.9101 0.9164 0.9481 0.9559
2787.901 0.9271 0.9011 0.9466 1.0457 1.1356 1.1929 1.2277 1.2594 1.3452 1.3919
2807.194 1.4105 1.5366 1.646 1.766 1.926 2.086 2.226 2.386 2.626 2.936
2826.488 3.296 3.706 4.156 4.746 5.406 6.026 6.576 7.066 7.426 7.596
2845.781 7.676 7.606 7.406 7.116 6.676 6.346 6.096 5.816 5.696 5.616
2865.074 5.506 5.536 5.696 5.796 5.936 6.186 6.406 6.556 6.706 6.866
2884.368 7.016 7.046 7.006 7.026 6.986 6.996 7.016 6.966 6.926 7.016
2903.661 7.046 7.056 7.216 7.396 7.576 7.736 7.926 8.176 8.356 8.396
2922.955 8.426 8.556 8.706 8.846 9.106 9.496 10.106 10.776 11.426 12.226
2942.248 12.956 13.546 14.026 14.326 14.456 14.406 14.106 13.726 13.306 12.756
2961.542 12.186 11.506 10.746 9.966 9.266 8.546 7.746 7.156 6.706 6.256
2980.835 5.896 5.656 5.506 5.446 5.546 5.746 6.146 6.706 7.326 8.086
3000.128 8.776 9.306 9.596 9.696 9.626 9.226 8.656 7.906 6.846 5.866
3019.422 5.046 4.406 4.006 3.686 3.426 3.316 3.196 3.096 3.146 3.126
3038.715 2.926 2.656 2.426 2.256 2.206 2.096 1.916 1.736 1.626 1.636
3058.009 1.5219 1.3841 1.4286 1.5192 1.519 1.5253 1.636 1.756 1.796 1.766
3077.302 1.716 1.796 1.946 1.936 1.876 1.846 1.796 1.736 1.756 1.716
3096.596 1.706 1.646 1.4435 1.3331 1.3473 1.3822 1.1973 0.9846 0.9274 0.9313
3115.889 0.8433 0.7389 0.7129 0.7643 0.795 0.7255 0.7165 0.7455 0.605777 0.496
3135.182 0.482 0.5085 0.5123 0.48 0.434 0.349 0.362 0.398 0.328 0.26
3154.476 0.363 0.378 0.319 0.301 0.287 0.337 0.431 0.357 0.162 0.119
3173.769 0.158 0.205 0.279 0.246 0.216 0.284 0.225 0.168 0.17 0.189
3193.063 0.121 0.096 0.214 0.28 0.29 0.334 0.321 0.255 0.334 0.371
3212.356 0.312 0.337 0.334 0.273 0.352 0.465 0.377 0.232 0.211 0.195
3231.650 0.173 0.229 0.24 0.187 0.271 0.344 0.25 0.185 0.153 0.099
3250.943 0.072 0.202 0.374 0.385 0.268 0.189 0.173 0.054 0 0.083
3270.236 0.214 0.252 0.264 0.281 0.26 0.24 0.222 0.199 0.264 0.279
3289.530 0.253 0.228 0.18 0.229 0.218 0.214 0.169 0.127 0.176 0.23
3308.823 0.182 0.058 0.113 0.24 0.238 0.293 0.292 0.319 0.38 0.366
3328.117 0.323 0.32 0.295 0.318 0.409 0.408 0.374 0.318 0.207 0.249
3347.410 0.453 0.433 0.324 0.374 0.474 0.436 0.313 0.356 0.405 0.339
3366.704 0.222 0.144 0.266 0.379 0.385 0.389 0.462 0.465 0.393 0.354
3385.997 0.332 0.411 0.5136 0.61893 0.64139 0.552 0.421 0.272 0.214 0.291
3405.290 0.368 0.416 0.49 0.51 0.422 0.372 0.483 0.468 0.331 0.258
3424.584 0.325 0.398 0.452 0.484 0.406 0.361 0.353 0.5003 0.5745 0.5263
3443.877 0.441 0.41 0.5314 0.5391 0.476 0.385 0.402 0.563 0.5097 0.325
3463.171 0.393 0.5798 0.493 0.328 0.388 0.5245 0.5328 0.468 0.5034 0.63317
3482.464 0.5781 0.428 0.48 0.5497 0.5619 0.63592 0.6203 0.5021 0.475 0.5318
3501.758 0.58889 0.61246 0.62995 0.60732 0.64789 0.65913 0.5426 0.5764 0.58796 0.603615
3521.051 0.602568 0.5666 0.5742 0.5193 0.5671 0.5624 0.63315 0.7376 0.67201 0.604626
3540.344 0.5658 0.4971 0.485 0.600749 0.69284 0.68043 0.7322 0.6974 0.5348 0.47
3559.638 0.5504 0.61848 0.58717 0.62199 0.68304 0.7199 0.7369 0.66747 0.68029 0.69425
3578.931 0.7354 0.8286 0.8492 0.8538 0.7906 0.8585 0.8826 0.8273 0.9091 0.9273
3598.225 0.9085 0.9202 0.9394 0.9485 1.027 1.0647 1.0086 0.995 1.0799 1.1726
3617.518 1.231 1.3323 1.4024 1.4833 1.626 1.856 1.966 2.056 2.186 2.246
3636.812 2.386 2.526 2.566 2.516 2.516 2.596 2.556 2.406 2.266 2.166
3656.105 2.166 2.096 2.006 1.946 1.846 1.666 1.636 1.706 1.636 1.4408
3675.398 1.3823 1.4516 1.4328 1.3684 1.2395 1.1827 1.114 0.9081 0.8548 0.9429
3694.692 0.9273 0.9053 0.9047 0.8087 0.7481 0.7976 0.8577 0.9027 0.8686 0.8059
3713.985 0.7982 0.7953 0.707 0.65486 0.68973 0.5807 0.5855 0.63974 0.68799 0.811
3733.279 0.67984 0.576 0.64008 0.64637 0.68206 0.7041 0.66343 0.69048 0.7369 0.68595
3752.572 0.62657 0.5649 0.479 0.5214 0.5513 0.5077 0.5044 0.5076 0.5309 0.5829
3771.866 0.5818 0.458 0.466 0.5157 0.479 0.5237 0.5463 0.481 0.5249 0.5354
3791.159 0.5711 0.63856 0.60981 0.62691 0.5645 0.5483 0.59201 0.64009 0.66465 0.5635
3810.452 0.374 0.336 0.457 0.5162 0.5309 0.508 0.5336 0.5728 0.487 0.48
3829.746 0.5575 0.5484 0.531 0.5751 0.5731 0.5572 0.5268 0.48 0.5191 0.5579
3849.039 0.5549 0.5786 0.69431 0.796 0.68372 0.5268 0.59445 0.7172 0.68908 0.66582
3868.333 0.67717 0.64148 0.65562 0.68249 0.66593 0.7152 0.7601 0.68501 0.66278 0.596503
3887.626 0.5757 0.63394 0.62521 0.62363 0.5646 0.5003 0.5546 0.64277 0.61822 0.602364
3906.920 0.61028 0.486 0.382 0.476 0.4979 0.47 0.5705 0.58644 0.5285 0.5095
3926.213 0.5444 0.62788 0.59305 0.59482 0.66562 0.64636 0.5305 0.471 0.5323 0.5645
3945.506 0.5539 0.495 0.5433 0.59303 0.62791 0.62255 0.5338 0.5077 0.5044 0.5277
3964.800 0.56 0.5459 0.577 0.61795 0.63191 0.59532 0.5084 0.5349 0.5661 0.5345
3984.093 0.443 0.477 0.5654 0.5806 0.65788 0.6356 0.58715 0.5206 0.462
##END=
