##TITLE=trans-1,4-Hexadiene
##JCAMP-DX=4.24
##DATA TYPE=INFRARED SPECTRUM
##ORIGIN=NIST Mass Spectrometry Data Center
##OWNER=NIST Standard Reference Data Program
Collection (C) 2018 copyright by the U.S. Secretary of Commerce
on behalf of the United States of America. All rights reserved.
##CAS REGISTRY NO=7319-00-8
##MOLFORM=C 6 H 10
##$NIST SOURCE=MSDC-IR
##SPECTROMETER/DATA SYSTEM=HP-GC/MS/IRD
##STATE=gas
##XUNITS=1/CM
##YUNITS=ABSORBANCE
##XFACTOR=1.0
##YFACTOR=0.000001500
##DELTAX=4.0
##FIRSTX=550.0
##LASTX=3846.0
##FIRSTY=0.000971
##MAXX=3846
##MINX=550
##MAXY=0.015
##MINY=0
##NPOINTS=825
##XYDATA=(X++(Y..Y))
550.0 647 333 59 48 16 13 23 24 97 50
590.0 95 230 252 223 288 408 442 557 682 657
630.0 648 771 782 685 630 619 612 511 413 477
670.0 441 342 314 279 311 316 349 345 313 288
710.0 221 198 191 203 179 153 139 149 188 167
750.0 143 167 162 151 155 151 156 192 184 164
790.0 170 172 164 158 173 241 315 315 252 324
830.0 465 499 595 675 709 803 888 988 1087 1181
870.0 1305 1548 1847 2170 2580 3063 3671 4414 5268 6078
910.0 6599 6930 7171 7034 6725 6453 6277 6254 6397 6645
950.0 6911 7174 7378 7511 7529 7443 7212 6921 6593 6155
990.0 5679 5234 4745 4208 3694 3189 2745 2418 2178 1995
1030.0 1874 1825 1755 1704 1695 1632 1524 1385 1244 1172
1070.0 1122 1055 987 918 871 853 819 812 820 808
1110.0 780 717 679 650 592 540 474 414 406 383
1150.0 344 313 287 257 245 215 199 232 237 215
1190.0 241 290 295 290 290 309 341 360 335 316
1230.0 336 335 351 356 413 535 672 811 952 1031
1270.0 1091 1173 1136 999 905 843 804 757 722 697
1310.0 659 646 622 606 604 591 562 539 538 558
1350.0 585 609 629 688 736 783 880 974 1069 1156
1390.0 1244 1310 1386 1504 1619 1735 1868 2017 2164 2306
1430.0 2412 2445 2440 2425 2374 2263 2083 1900 1753 1611
1470.0 1459 1308 1164 1028 930 850 769 689 628 600
1510.0 563 506 478 464 440 411 391 384 344 332
1550.0 349 369 340 322 350 336 328 335 367 358
1590.0 371 438 481 538 646 782 982 1282 1660 2099
1630.0 2511 2736 2762 2709 2602 2279 1719 1233 951 773
1670.0 635 544 490 440 385 350 356 374 380 387
1710.0 379 370 402 401 367 338 292 256 222 195
1750.0 155 140 155 144 127 139 161 184 178 183
1790.0 225 264 302 321 358 431 532 607 678 747
1830.0 769 757 717 637 533 429 348 276 226 202
1870.0 184 163 141 117 90 101 127 118 93 80
1910.0 61 75 93 84 86 81 94 91 83 93
1950.0 99 116 121 128 151 164 155 158 162 141
1990.0 136 132 122 128 117 103 86 64 66 60
2030.0 54 61 54 46 26 17 18 18 21 21
2070.0 17 18 31 31 40 35 8 2 20 23
2110.0 13 0 0 27 28 13 13 30 28 24
2150.0 35 28 23 36 32 29 41 40 29 24
2190.0 50 39 25 26 22 27 29 48 57 37
2230.0 26 42 36 24 17 20 22 15 17 34
2270.0 50 43 23 28 29 39 54 40 33 31
2310.0 28 40 57 79 80 49 31 29 39 51
2350.0 61 55 40 12 31 64 86 103 95 100
2390.0 101 86 89 107 94 85 95 105 115 102
2430.0 86 74 77 87 69 86 98 98 106 102
2470.0 116 123 112 107 92 92 84 68 65 76
2510.0 86 85 85 76 85 105 97 102 98 95
2550.0 110 121 102 106 111 93 98 90 98 114
2590.0 104 84 93 120 116 109 118 128 119 110
2630.0 116 116 96 109 129 134 141 150 145 150
2670.0 183 173 164 166 176 174 197 243 280 284
2710.0 269 288 322 344 361 380 421 481 531 553
2750.0 528 493 469 438 411 375 354 369 400 450
2790.0 484 536 610 702 821 946 1106 1290 1506 1698
2830.0 1866 2033 2212 2359 2526 2766 3133 3640 4189 4643
2870.0 5033 5439 5836 6193 6416 6662 6968 7272 7537 7792
2910.0 8130 8587 9230 9820 10000 9885 9783 9580 8991 8191
2950.0 7578 7270 7195 7190 7179 7220 7314 7367 7319 7242
2990.0 7201 7203 7244 7275 7256 7209 7118 6984 6770 6414
3030.0 5951 5508 5148 4819 4494 4222 4018 3855 3793 3798
3070.0 3903 4191 4546 4680 4588 4412 4210 3810 3142 2469
3110.0 1946 1607 1359 1158 984 871 793 708 634 591
3150.0 548 517 485 429 369 349 349 328 315 273
3190.0 239 247 255 241 195 170 192 196 181 180
3230.0 198 187 146 128 145 135 126 144 120 104
3270.0 104 118 130 112 85 66 65 102 123 87
3310.0 57 74 86 107 119 84 90 78 89 115
3350.0 81 66 80 88 98 79 55 79 98 94
3390.0 79 85 72 30 44 89 94 72 67 87
3430.0 115 116 106 123 100 62 86 123 108 65
3470.0 83 97 82 90 82 44 61 78 90 98
3510.0 78 54 27 21 53 52 43 45 28 28
3550.0 16 57 114 111 102 76 61 70 59 58
3590.0 54 41 19 39 43 22 27 18 13 32
3630.0 63 48 18 49 52 28 17 33 45 15
3670.0 29 71 49 25 44 43 29 41 84 101
3710.0 53 57 96 80 53 55 65 50 1 34
3750.0 86 50 37 51 52 63 68 13 0 26
3790.0 91 122 89 36 42 75 72 70 80 75
3830.0 46 49 80 67 53
##END=
