##TITLE=2,4,6-Tri-tert-butylphenol
##JCAMP-DX=4.24
##DATA TYPE=INFRARED SPECTRUM
##ORIGIN=NIST Mass Spectrometry Data Center
##OWNER=NIST Standard Reference Data Program
Collection (C) 2018 copyright by the U.S. Secretary of Commerce
on behalf of the United States of America. All rights reserved.
##CAS REGISTRY NO=732-26-3
##MOLFORM=C 18 H 30 O
##$NIST SOURCE=MSDC-IR
##SPECTROMETER/DATA SYSTEM=HP-GC/MS/IRD
##STATE=gas
##XUNITS=1/CM
##YUNITS=ABSORBANCE
##XFACTOR=1.0
##YFACTOR=0.000005700
##DELTAX=4.0
##FIRSTX=550.0
##LASTX=3846.0
##FIRSTY=0.000673
##MAXX=3846
##MINX=550
##MAXY=0.057
##MINY=0
##NPOINTS=825
##XYDATA=(X++(Y..Y))
550.0 118 74 53 69 74 63 46 45 48 44
590.0 30 27 38 50 49 44 59 70 82 112
630.0 126 132 147 157 168 157 123 77 43 27
670.0 5 1 15 22 24 35 51 57 71 111
710.0 183 268 307 257 159 89 62 58 53 59
750.0 79 116 172 234 241 178 107 65 54 53
790.0 68 123 217 314 354 321 274 236 193 124
830.0 67 46 35 29 26 27 33 51 91 170
870.0 301 466 563 530 427 307 208 147 123 117
910.0 124 141 156 164 174 171 148 109 77 61
950.0 47 42 39 34 31 29 34 38 37 40
990.0 42 47 52 56 64 79 92 105 113 105
1030.0 91 75 64 59 54 46 44 47 51 56
1070.0 64 68 73 82 91 104 124 156 210 304
1110.0 468 666 785 752 620 520 509 549 620 719
1150.0 867 1063 1231 1288 1202 1055 932 872 871 909
1190.0 976 1033 1068 1097 1117 1156 1257 1465 1793 2211
1230.0 2597 2759 2609 2218 1766 1364 1066 892 802 732
1270.0 638 536 478 473 495 517 521 509 500 516
1310.0 553 577 556 482 388 316 279 273 303 366
1350.0 471 636 898 1266 1562 1550 1277 984 832 869
1390.0 1074 1302 1346 1161 918 799 810 892 1051 1317
1430.0 1711 2171 2495 2486 2193 1841 1618 1518 1479 1465
1470.0 1481 1541 1567 1452 1179 845 576 406 304 238
1510.0 193 168 148 130 113 100 90 78 71 69
1550.0 65 61 60 59 63 64 68 79 93 111
1590.0 132 154 162 143 106 73 53 44 39 36
1630.0 36 35 36 37 36 34 32 29 25 23
1670.0 25 25 22 19 20 19 17 18 21 23
1710.0 24 25 24 25 28 29 34 42 50 62
1750.0 79 96 105 105 100 86 72 59 43 33
1790.0 29 25 25 23 21 19 16 17 16 17
1830.0 16 16 17 14 11 11 9 11 10 8
1870.0 7 7 6 3 7 11 11 13 14 14
1910.0 14 13 14 18 18 17 18 19 18 15
1950.0 15 15 12 11 12 12 11 10 9 8
1990.0 10 11 13 14 12 12 10 8 7 9
2030.0 12 11 10 8 8 9 10 9 8 5
2070.0 4 4 6 8 6 3 3 4 1 0
2110.0 5 7 6 9 7 6 5 4 7 7
2150.0 5 5 7 8 8 7 9 11 11 11
2190.0 8 5 5 3 2 0 0 2 2 1
2230.0 0 1 3 2 3 5 8 7 4 7
2270.0 9 11 14 16 17 16 16 15 15 12
2310.0 9 9 5 4 5 4 4 4 7 9
2350.0 10 9 7 8 10 13 17 19 24 29
2390.0 30 28 24 21 19 16 15 18 14 10
2430.0 11 7 6 7 5 7 8 9 9 8
2470.0 6 7 11 14 13 9 6 6 5 3
2510.0 4 5 4 5 7 5 6 10 12 13
2550.0 15 20 24 24 22 17 14 11 13 14
2590.0 13 13 12 12 11 9 10 12 14 17
2630.0 19 20 22 24 25 24 30 34 34 37
2670.0 36 35 34 30 33 35 38 41 46 53
2710.0 60 72 83 89 91 85 81 80 83 87
2750.0 88 88 86 85 83 81 90 102 113 123
2790.0 125 127 136 145 155 170 191 212 230 249
2830.0 274 303 341 390 457 556 695 892 1168 1515
2870.0 1905 2278 2550 2667 2647 2567 2516 2537 2656 2874
2910.0 3125 3332 3426 3413 3359 3331 3378 3551 3909 4544
2950.0 5547 6881 8313 9490 10000 9439 7784 5656 3848 2647
2990.0 1917 1488 1249 1108 987 839 672 523 414 343
3030.0 297 268 242 216 195 184 175 166 164 163
3070.0 162 163 165 175 193 215 230 240 240 228
3110.0 210 183 157 134 113 102 91 84 80 79
3150.0 81 77 74 78 77 73 76 79 82 84
3190.0 82 78 70 68 69 60 55 54 50 50
3230.0 53 49 43 37 37 37 33 31 32 33
3270.0 30 27 32 35 33 33 34 33 29 26
3310.0 24 22 25 24 21 19 16 14 11 10
3350.0 12 10 8 10 15 18 12 10 15 18
3390.0 21 22 19 17 19 23 23 20 21 23
3430.0 21 21 21 24 21 17 16 10 6 9
3470.0 10 7 5 7 8 6 3 3 2 0
3510.0 1 5 6 7 8 9 8 6 8 5
3550.0 3 4 10 19 15 16 17 14 19 27
3590.0 31 34 40 47 59 68 75 92 114 139
3630.0 170 221 299 400 553 792 1129 1536 1924 2122
3670.0 2033 1717 1329 986 727 537 395 293 222 177
3710.0 144 117 92 73 65 56 44 37 34 28
3750.0 20 20 20 20 24 24 16 13 13 19
3790.0 24 20 22 26 23 25 29 27 27 27
3830.0 23 21 20 22 18
##END=
