##TITLE=Imidan
##JCAMP-DX=4.24
##DATA TYPE=INFRARED SPECTRUM
##ORIGIN=NIST Mass Spectrometry Data Center
##OWNER=NIST Standard Reference Data Program
Collection (C) 2018 copyright by the U.S. Secretary of Commerce
on behalf of the United States of America. All rights reserved.
##CAS REGISTRY NO=732-11-6
##MOLFORM=C 11 H 12 N O 4 P S 2
##$NIST SOURCE=MSDC-IR
##SPECTROMETER/DATA SYSTEM=HP-GC/MS/IRD
##STATE=gas
##XUNITS=1/CM
##YUNITS=ABSORBANCE
##XFACTOR=1.0
##YFACTOR=0.000004900
##DELTAX=4.0
##FIRSTX=550.0
##LASTX=3846.0
##FIRSTY=0.002058
##MAXX=3846
##MINX=550
##MAXY=0.049
##MINY=0
##NPOINTS=825
##XYDATA=(X++(Y..Y))
550.0 420 216 47 41 11 19 23 40 89 131
590.0 185 238 294 413 513 467 314 219 210 219
630.0 264 364 524 810 1325 2122 3063 3595 3226 2249
670.0 1373 879 627 491 427 396 388 413 473 588
710.0 802 1195 1655 1840 1599 1138 735 489 342 264
750.0 235 218 225 249 275 324 393 476 605 772
790.0 946 1127 1328 1510 1672 1821 1941 2015 1969 1858
830.0 1752 1582 1322 1051 825 635 476 367 293 252
870.0 231 214 203 188 190 205 220 277 396 594
910.0 855 1051 1027 790 514 334 250 208 197 198
950.0 201 221 242 261 282 311 334 343 354 381
990.0 444 528 633 813 1072 1423 1909 2539 3304 4104
1030.0 4741 5018 4846 4394 3925 3575 3324 3079 2806 2563
1070.0 2396 2266 2097 1813 1448 1117 880 734 649 580
1110.0 507 457 415 379 342 307 287 273 268 266
1150.0 278 307 331 343 373 431 489 523 520 478
1190.0 411 332 256 202 177 162 150 142 133 138
1230.0 150 172 202 242 287 343 428 538 702 982
1270.0 1432 2092 2755 2944 2505 1833 1366 1175 1102 996
1310.0 828 668 560 499 478 479 499 554 658 841
1350.0 1112 1518 2150 3050 4117 5055 5409 4854 3664 2477
1390.0 1656 1210 1003 926 946 1104 1424 1699 1617 1206
1430.0 821 630 562 536 513 487 472 476 507 540
1470.0 536 461 355 279 239 214 199 187 178 173
1510.0 166 160 164 169 168 160 154 154 157 155
1550.0 147 145 155 156 157 164 173 185 179 171
1590.0 166 170 182 191 201 214 225 222 196 157
1630.0 121 100 89 89 92 100 110 107 118 130
1670.0 142 157 159 179 195 216 248 297 364 443
1710.0 553 665 812 1098 1749 3128 5667 8665 10000 8415
1750.0 5143 2604 1443 994 823 773 796 880 1070 1324
1790.0 1386 1118 724 447 318 254 208 182 178 177
1830.0 180 178 179 173 158 142 126 111 102 102
1870.0 113 128 136 138 134 123 115 104 89 77
1910.0 70 63 53 52 60 62 68 74 73 64
1950.0 48 42 38 40 48 53 53 48 43 31
1990.0 28 29 27 25 24 24 18 15 13 13
2030.0 16 14 15 18 17 17 15 15 14 17
2070.0 19 21 29 28 21 18 19 21 16 16
2110.0 14 11 15 20 18 20 20 16 17 21
2150.0 23 26 25 18 17 15 12 13 14 14
2190.0 15 14 10 14 14 10 14 15 18 14
2230.0 14 20 21 25 23 21 21 20 20 19
2270.0 19 20 14 12 20 25 21 17 15 12
2310.0 13 18 22 22 18 23 26 25 27 30
2350.0 29 17 10 11 11 10 10 9 11 14
2390.0 12 8 9 11 9 7 6 9 15 20
2430.0 22 26 26 26 30 27 20 21 21 17
2470.0 12 9 6 0 0 8 8 6 13 14
2510.0 7 9 10 14 15 12 13 14 10 5
2550.0 10 15 10 10 9 2 2 7 9 11
2590.0 11 12 12 10 10 12 17 20 21 17
2630.0 18 28 32 31 28 26 26 30 30 24
2670.0 28 31 29 29 30 28 28 38 33 19
2710.0 13 13 14 9 12 14 16 18 13 15
2750.0 19 19 17 13 17 33 34 33 38 42
2790.0 47 54 52 49 52 51 59 64 70 84
2830.0 93 104 130 167 213 274 304 271 204 157
2870.0 134 111 106 109 111 116 128 134 137 154
2910.0 166 169 179 191 204 233 275 330 428 583
2950.0 787 969 1004 834 602 435 332 279 249 247
2990.0 255 262 271 275 269 257 254 256 246 226
3030.0 208 198 185 175 178 179 187 207 223 226
3070.0 210 213 242 276 300 288 236 169 132 109
3110.0 83 65 60 52 41 43 44 43 33 27
3150.0 42 48 45 43 39 30 29 27 24 32
3190.0 32 30 36 41 30 27 32 32 34 28
3230.0 29 31 27 29 23 17 21 24 21 22
3270.0 26 29 21 12 18 22 24 20 20 28
3310.0 33 27 13 13 18 27 24 22 23 14
3350.0 13 14 18 15 7 11 17 18 24 30
3390.0 30 26 23 21 14 18 21 13 12 14
3430.0 26 18 11 14 16 13 10 26 29 31
3470.0 36 42 56 61 67 71 68 69 69 84
3510.0 106 107 104 93 75 67 38 21 28 31
3550.0 34 42 40 21 22 27 24 23 28 38
3590.0 37 34 31 32 34 41 47 43 41 34
3630.0 24 31 29 24 21 15 25 45 43 35
3670.0 27 13 16 28 19 19 31 36 39 36
3710.0 34 48 58 48 51 57 44 42 49 45
3750.0 32 34 45 50 44 51 46 44 62 54
3790.0 41 32 29 26 35 49 45 51 58 42
3830.0 31 40 36 32 34
##END=
