##TITLE=1,4-Di-t-Butyl-2,5-dimethoxybenzene
##JCAMP-DX=4.24
##DATA TYPE=INFRARED SPECTRUM
##ORIGIN=EPA-IR VAPOR PHASE LIBRARY
##OWNER=SRD/NIST
Collection (C) 2018 copyright by the U.S. Secretary of Commerce
on behalf of the United States of America. All rights reserved.
##CAS REGISTRY NO=7323-63-9
##MOLFORM=C 16 H 26 O 2
##$NIST SOURCE=MSDC-IR
##STATE=gas
##XUNITS=1/CM
##YUNITS=ABSORBANCE
##XFACTOR=1.
##YFACTOR=0.001
##DELTAX=3.85796
##FIRSTX=551.7
##LASTX=4000.7
##FIRSTY=1.484
##MAXX=4000.7
##MINX=551.688
##MAXY=0.23096
##MINY=0
##NPOINTS=895
##XYDATA=(X++(Y..Y))
551.688 1.484 1.385 1.096 0.95 0.81 0.66 0.67 0.86 1.026 0.92
590.268 1.035 1.566 2.3272 3.17 3.8 3.78 3.26 2.5786 2.02246 1.571
628.847 1.327 1.295 1.052 0.83 0.84 0.82 0.76 0.78 0.88 0.94
667.427 0.97 1.111 1.256 1.264 1.225 1.245 1.359 1.505 1.675 1.9563
706.006 2.3546 2.734 2.872 2.9247 2.9022 3.08 3.47 4 4.88 6.18
744.586 8.18 11.27 16.04 22.32 28.61 31.78 29.36 22.4 14.93 9.94
783.165 7.16 5.59 4.69 3.92 3.18 2.7253 2.5416 2.4805 2.5009 2.655
821.745 3.14 4.12 5.97 9.46 15.37 22.51 27.21 27.07 23.19 19.36
860.324 18.41 19.61 20.7 19.9 16.66 12.32 8.58 6.06 4.69 3.92
898.904 3.46 3.22 3.09 3.13 3.29 3.53 3.99 4.39 4.38 3.99
937.484 3.48 3.2 3.1 3.01 3.05 3.18 3.28 3.55 3.85 4.13
976.063 4.59 5.18 5.75 6.38 7.21 8.28 9.82 11.9 14.92 19.36
1014.643 25.18 31.17 37.05 45.17 57.85 74.39 89.73 96.49 90.05 72.91
1053.222 52.88 36.84 26.52 20.39 16.73 14.7 13.39 12.5 11.82 10.98
1091.802 9.85 9.25 9.62 10.98 14.64 21.61 32.73 45.41 53.59 52.94
1130.381 44.11 33.21 25.56 21.08 18.53 16.96 16.07 15.92 16.47 18.01
1168.961 20.89 25.5 32.5 42.6 55.98 73.82 97.7 129.87 169.54 205.43
1207.540 218.48 198.94 157.76 116.79 88.57 72.91 66.12 64.96 66.35 67.04
1246.120 63.81 55.59 45 35.35 27.98 22.45 18.38 15.16 12.61 10.86
1284.699 9.55 8.61 7.99 7.54 7.28 7.19 7.22 7.37 7.62 8.01
1323.279 8.61 9.47 10.62 12.28 14.71 18.22 23.75 32.8 47.62 69.87
1361.859 97.83 123.12 136.78 134.48 115.34 87.03 62.29 49.51 46.65 45.45
1400.438 40.72 32.23 23.98 19.17 17.01 16.18 16.09 16.63 17.95 20.32
1439.018 24.16 29.96 38.1 47.69 56.09 62.38 66.92 70.02 70.97 70
1477.597 69.3 71.1 75.4 82.73 94.67 110.49 122.03 118.28 97.28 69.84
1516.177 46.72 31.98 23.36 18.22 14.83 12.52 10.91 9.71 8.83 8.27
1554.756 7.99 7.81 7.63 7.47 7.19 6.82 6.35 5.88 5.44 5.06
1593.336 4.78 4.59 4.41 4.26 4.08 3.85 3.63 3.47 3.28 3.14
1631.915 3.21 3.27 3.22 3.13 3 2.9106 2.8539 2.8304 2.8474 2.8446
1670.495 2.8681 2.8823 2.8628 2.8963 2.9487 3.03 3.11 3.22 3.36 3.45
1709.075 3.43 3.38 3.37 3.32 3.22 3.07 2.8004 2.5411 2.3387 2.1055
1747.654 1.888 1.709 1.572 1.497 1.445 1.431 1.392 1.329 1.274 1.225
1786.234 1.235 1.258 1.27 1.286 1.287 1.335 1.407 1.473 1.506 1.528
1824.813 1.59 1.625 1.575 1.497 1.404 1.317 1.249 1.139 1.033 1.011
1863.393 1.002 0.98 0.97 0.98 1.06 1.124 1.168 1.238 1.334 1.442
1901.972 1.524 1.579 1.606 1.563 1.457 1.362 1.277 1.175 1.104 1.096
1940.552 1.078 1.074 1.104 1.089 1.111 1.197 1.31 1.467 1.654 1.871
1979.131 2.1358 2.4216 2.7636 3.06 3.27 3.36 3.24 3.01 2.7655 2.5226
2017.711 2.3095 2.1591 2.0431 1.98103 1.9557 1.9853 2.06608 2.1019 2.08647 2.06966
2056.291 2.0741 2.1069 2.1397 2.2492 2.4032 2.5341 2.639 2.6849 2.711 2.7274
2094.870 2.6649 2.5389 2.4016 2.2365 2.04911 1.844 1.682 1.541 1.389 1.265
2133.450 1.201 1.154 1.146 1.182 1.22 1.317 1.452 1.595 1.732 1.849
2172.029 1.885 1.822 1.657 1.458 1.324 1.209 1.13 1.127 1.172 1.175
2210.609 1.116 1.058 0.97 0.87 0.77 0.7 0.69 0.69 0.63 0.54
2249.188 0.5 0.5 0.52 0.53 0.56 0.6 0.67 0.71 0.72 0.75
2287.768 0.82 0.87 0.83 0.81 0.78 0.73 0.77 0.85 0.91 0.93
2326.347 0.9 0.89 0.91 0.84 0.74 0.69 0.68 0.65 0.63 0.67
2364.927 0.74 0.82 0.92 1.01 1.102 1.142 1.136 1.178 1.163 1.106
2403.507 1.125 1.176 1.241 1.283 1.323 1.398 1.473 1.555 1.578 1.527
2442.086 1.495 1.411 1.297 1.268 1.238 1.221 1.266 1.319 1.345 1.42
2480.666 1.549 1.535 1.437 1.4 1.331 1.26 1.218 1.158 1.04 0.97
2519.245 0.9 0.83 0.84 0.9 0.96 1.008 1.061 1.125 1.208 1.275
2557.825 1.356 1.395 1.4 1.339 1.288 1.327 1.41 1.493 1.567 1.615
2596.404 1.632 1.635 1.584 1.521 1.518 1.552 1.576 1.573 1.617 1.755
2634.984 1.84 1.9109 1.98103 2.01373 2.04612 2.05024 2.0479 2.02236 1.9202 1.849
2673.563 1.795 1.747 1.742 1.778 1.814 1.9029 1.98621 2.1234 2.4584 2.8476
2712.143 3.27 3.63 3.75 3.63 3.34 3.14 3.11 3.15 3.35 3.58
2750.722 3.69 3.76 3.82 3.95 4.13 4.38 4.82 5.42 6.06 6.67
2789.302 7.19 7.77 8.59 9.66 11.08 12.75 14.48 16.23 18.2 20.82
2827.882 24.88 30.84 38.01 44.17 47.21 46.72 44.37 42.58 43.35 47.68
2866.461 55.2 64.11 71.71 76.29 77.67 76.95 75.92 76 78.13 83.02
2905.041 90.75 100.53 110.85 119.65 125.21 127.55 128.51 130.29 134.23 140.42
2943.620 148.96 160.9 178 198.37 217.47 230.96 230.11 203.76 155.51 110.49
2982.200 85.1 76.88 78.16 81.43 81.57 75.83 64.46 50.26 36.59 26.56
3020.779 20.54 16.99 14.78 13.34 12.38 11.81 11.39 10.99 10.63 10.23
3059.359 9.82 9.55 9.36 9.19 8.96 8.57 8.14 7.67 7.13 6.68
3097.938 6.38 6.17 6.09 6.06 6.06 6.11 6.19 6.2 6.15 6.01
3136.518 5.67 5.26 4.8 4.38 4.15 3.95 3.71 3.52 3.36 3.27
3175.098 3.19 3.08 2.99 2.8534 2.7695 2.7414 2.6674 2.5116 2.3099 2.1664
3213.677 2.1162 2.0973 1.9589 1.8 1.767 1.778 1.747 1.722 1.619 1.548
3252.257 1.639 1.655 1.559 1.511 1.512 1.489 1.508 1.431 1.402 1.411
3290.836 1.354 1.368 1.324 1.273 1.173 1.045 0.94 0.91 0.91 0.77
3329.416 0.7 0.74 0.73 0.69 0.67 0.68 0.7 0.76 0.81 0.72
3367.995 0.68 0.72 0.73 0.7 0.64 0.6 0.65 0.63 0.62 0.66
3406.575 0.66 0.7 0.61 0.44 0.5 0.55 0.53 0.56 0.42 0.38
3445.154 0.38 0.34 0.35 0.31 0.26 0.28 0.33 0.32 0.28 0.26
3483.734 0.34 0.36 0.33 0.38 0.3 0.23 0.25 0.28 0.33 0.26
3522.314 0.18 0.22 0.17 0.1 0.06 0.07 0.13 0.18 0.15 0.11
3560.893 0.11 0.12 0.18 0.11 0.08 0.11 0.06 0.04 0.14 0.18
3599.473 0.1 0.1 0.1 0.07 0.17 0.11 0.03 0.12 0.14 0.05
3638.052 0 0.1 0.12 0.12 0.13 0.09 0.12 0.13 0.06 0.03
3676.632 0.04 0 0.03 0.08 0.03 0.07 0.12 0.1 0.1 0.08
3715.211 0.07 0.08 0.07 0.03 0.05 0.09 0.15 0.21 0.24 0.22
3753.791 0.12 0.21 0.22 0.16 0.21 0.33 0.39 0.38 0.39 0.31
3792.370 0.33 0.41 0.45 0.43 0.4 0.37 0.33 0.39 0.43 0.43
3830.950 0.4 0.4 0.42 0.38 0.29 0.35 0.44 0.44 0.4 0.44
3869.530 0.49 0.6 0.72 0.79 0.88 0.92 0.96 0.92 0.81 0.68
3908.109 0.7 0.68 0.65 0.69 0.63 0.58 0.69 0.8 0.75 0.72
3946.689 0.73 0.75 0.7 0.74 0.82 0.81 0.82 0.82 0.74 0.75
3985.268 0.86 0.81 0.75 0.76 0.79
##END=
