##TITLE=Ethyl 2-Chlorobenzoate
##JCAMP-DX=4.24
##DATA TYPE=INFRARED SPECTRUM
##ORIGIN=EPA-IR VAPOR PHASE LIBRARY
##OWNER=SRD/NIST
Collection (C) 2018 copyright by the U.S. Secretary of Commerce
on behalf of the United States of America. All rights reserved.
##CAS REGISTRY NO=7335-25-3
##MOLFORM=C 9 H 9 Cl O 2
##$NIST SOURCE=MSDC-IR
##STATE=gas
##XUNITS=1/CM
##YUNITS=ABSORBANCE
##XFACTOR=1.
##YFACTOR=0.001
##DELTAX=1.92934
##FIRSTX=549.9
##LASTX=3999.5
##FIRSTY=2.1814
##MAXX=3999.53
##MINX=549.863
##MAXY=0.12351
##MINY=0
##NPOINTS=1789
##XYDATA=(X++(Y..Y))
549.863 2.1814 2.0272 1.88418 1.9788 1.86945 1.8231 1.92079 1.694 1.549 1.627
569.156 1.58 1.488 1.603 1.7443 1.7492 1.665 1.576 1.667 1.589 1.352
588.450 1.359 1.481 1.595 1.626 1.513 1.42 1.264 1.261 1.351 1.246
607.743 1.206 1.3 1.357 1.37 1.385 1.393 1.329 1.336 1.314 1.325
627.037 1.46 1.474 1.537 1.65 1.88255 2.2329 2.6673 3.34 4.25 5.21
646.330 5.91 6.43 6.87 6.95 6.83 6.46 5.56 4.47 3.62 3.03
665.624 2.6717 2.5435 2.4163 2.4747 2.5888 2.6481 2.7387 2.7827 2.96 3.23
684.917 3.49 3.81 4.18 4.5 4.83 5.22 5.48 5.57 5.69 5.83
704.210 5.96 6.22 6.62 7.23 7.93 8.76 9.55 10.25 11.03 11.87
723.504 12.94 14.16 15.65 17.75 20.45 23.66 27.23 30.96 35.01 39.87
742.797 45.34 48.76 46.12 39.4 33.62 29.32 25.29 21.19 17.18 13.61
762.091 10.74 8.66 7.33 6.44 5.76 5.38 5.13 4.85 4.62 4.38
781.384 4.24 4.14 3.95 3.81 3.75 3.63 3.43 3.26 3.13 3.07
800.678 2.98 2.8115 2.7585 2.7464 2.692 2.7282 2.7384 2.6518 2.6477 2.6605
819.971 2.6701 2.737 2.765 2.8384 3.01 3.13 3.32 3.61 3.87 4.14
839.264 4.49 4.85 5.2 5.48 5.76 6.05 6.21 6.34 6.36 6.2
858.558 6.02 5.8 5.58 5.32 5.08 4.91 4.7 4.49 4.36 4.29
877.851 4.03 3.69 3.41 3.18 2.9 2.6157 2.4077 2.2472 2.0893 2.0015
897.145 1.9135 1.8194 1.7969 1.7943 1.8144 1.7453 1.632 1.633 1.67 1.689
916.438 1.658 1.621 1.649 1.635 1.662 1.7465 1.87429 1.90589 1.92034 2.0307
935.732 2.1035 2.1938 2.311 2.3924 2.4638 2.6127 2.8334 2.93 2.86 2.7555
955.025 2.7002 2.6472 2.5506 2.4766 2.4539 2.4717 2.4701 2.4165 2.4667 2.5624
974.318 2.6162 2.7147 2.7846 2.88 3.01 3.17 3.38 3.64 4.01 4.39
993.612 4.78 5.26 5.79 6.45 7.16 7.91 8.73 9.46 10.07 10.63
1012.905 11.05 11.34 11.57 11.7 11.81 12.1 12.6 13.43 14.88 17.07
1032.199 19.76 22.73 25.78 28.99 32.98 37.97 43.63 48.95 52.74 54.74
1051.492 55.23 54.44 52.33 48.64 43 35.77 28.24 21.93 17.51 14.63
1070.786 12.77 11.67 11.11 10.83 10.84 11.07 11.42 12.04 12.9 14.01
1090.079 15.5 17.38 19.74 22.83 26.73 31.44 37.18 43.98 51.6 59.69
1109.372 67.78 75.43 82.22 87.62 91.32 93.06 92.58 90.11 86.32 81.65
1128.666 76.36 70.59 64.48 58.29 52.21 46.45 41.01 35.96 31.45 27.51
1147.959 24.3 22.05 20.68 20.07 19.9 19.61 19.3 19.12 18.79 18.48
1167.253 17.95 16.9 15.75 14.81 14.11 13.45 12.79 12.15 11.5 10.88
1186.546 10.3 9.74 9.25 8.83 8.62 8.54 8.59 8.73 8.87 9.13
1205.840 9.54 10.03 10.61 11.35 12.17 13.08 14.22 15.65 17.4 19.55
1225.133 22.21 25.64 30.06 35.58 42.64 51.45 61.76 72.94 83.86 92.79
1244.426 98.39 100.24 98.49 93.29 84.81 73.69 61.31 50.25 42.97 39.99
1263.720 40.41 43.27 47.95 54.15 61.5 69.73 78.8 88.31 97.96 107.22
1283.013 115.1 120.82 123.51 122.74 118.64 111.33 101.27 89.31 76.63 64.37
1302.307 53.49 44.52 37.33 31.68 27.21 23.62 20.62 18.07 15.93 14.11
1321.600 12.54 11.15 10 8.99 8.14 7.44 6.86 6.38 5.96 5.64
1340.894 5.38 5.17 5.04 4.98 5.03 5.19 5.48 5.96 6.68 7.7
1360.187 9.1 10.77 12.29 13.35 13.98 14.15 13.83 13.26 12.22 10.62
1379.480 9.01 7.88 7.18 6.75 6.58 6.59 6.65 6.65 6.68 6.73
1398.774 6.73 6.81 6.83 6.89 7 7.12 7.32 7.56 7.92 8.45
1418.067 9.23 10.21 11.33 12.7 14.32 16.09 17.92 19.44 20.5 21.11
1437.361 21.3 21.23 20.79 19.76 18.28 16.61 15.03 13.79 12.92 12.38
1456.654 12.23 12.48 13.1 13.93 14.88 15.86 16.56 16.89 16.86 16.5
1475.948 15.82 14.89 13.65 12.09 10.49 9 7.73 6.68 5.83 5.2
1495.241 4.68 4.23 3.9 3.62 3.35 3.11 2.93 2.89 2.7963 2.6634
1514.534 2.6505 2.6066 2.5184 2.4687 2.4422 2.4167 2.4439 2.4766 2.4694 2.469
1533.828 2.459 2.4421 2.425 2.4452 2.4788 2.5413 2.6987 2.8219 2.9 3.06
1553.121 3.27 3.53 3.76 4.05 4.48 4.87 5.24 5.59 5.94 6.31
1572.415 6.66 6.94 7.29 7.82 8.36 8.98 9.82 10.84 11.87 12.73
1591.708 13.22 13.32 13.09 12.48 11.54 10.32 8.92 7.61 6.39 5.41
1611.002 4.78 4.31 3.97 3.62 3.31 3.05 2.84 2.6481 2.5386 2.5131
1630.295 2.3864 2.3202 2.279 2.239 2.2675 2.256 2.2602 2.3105 2.3041 2.3114
1649.588 2.401 2.4179 2.4251 2.4964 2.4982 2.5468 2.6303 2.6788 2.7769 2.9
1668.882 3.06 3.24 3.4 3.6 3.84 4.09 4.44 4.79 5.18 5.63
1688.175 6.06 6.52 7.03 7.55 8.17 8.82 9.52 10.46 11.48 12.67
1707.469 14.03 15.61 17.4 19.38 21.73 24.48 27.64 31.14 35.2 39.71
1726.762 44.63 49.92 55.37 60.61 65.7 70.2 73.94 77.1 79.46 80.82
1746.056 81.06 80.47 79.2 77.2 74.55 71.44 67.83 63.44 57.88 51.61
1765.349 45.25 39.1 33.43 28.41 23.97 20.24 17.12 14.55 12.42 10.76
1784.642 9.39 8.18 7.25 6.56 5.92 5.4 5.02 4.71 4.5 4.34
1803.936 4.16 4.05 3.94 3.83 3.69 3.55 3.44 3.32 3.18 3.01
1823.229 2.86 2.7422 2.7173 2.7099 2.6524 2.587 2.5169 2.5395 2.5363 2.4386
1842.523 2.3891 2.3389 2.2292 2.1029 2.0363 1.9725 1.8908 1.8146 1.8077 1.8153
1861.816 1.7587 1.7544 1.7722 1.776 1.7912 1.8005 1.7516 1.7657 1.8175 1.8195
1881.110 1.84436 1.87849 1.89524 1.93654 1.9712 1.9704 1.9179 1.91563 1.9593 1.92561
1900.403 1.9444 1.9964 2.008 2.0367 2.0967 2.1615 2.2605 2.3741 2.4524 2.5585
1919.696 2.6626 2.6638 2.6448 2.5812 2.4738 2.3864 2.3012 2.1832 2.0608 2.0084
1938.990 1.9599 1.9417 1.9941 2.0339 2.1106 2.1829 2.1899 2.2107 2.2151 2.1625
1958.283 2.1048 2.0092 1.89141 1.7983 1.717 1.673 1.616 1.574 1.573 1.517
1977.577 1.503 1.54 1.475 1.463 1.519 1.518 1.482 1.41 1.395 1.431
1996.870 1.425 1.386 1.33 1.286 1.286 1.29 1.284 1.304 1.29 1.275
2016.164 1.271 1.258 1.226 1.204 1.194 1.213 1.251 1.191 1.125 1.128
2035.457 1.129 1.16 1.173 1.14 1.128 1.099 1.079 1.062 1.073 1.09
2054.750 1.091 1.066 1.056 1.093 1.117 1.112 1.071 1.128 1.181 1.161
2074.044 1.222 1.223 1.228 1.269 1.26 1.31 1.364 1.376 1.402 1.375
2093.337 1.329 1.358 1.374 1.374 1.389 1.371 1.342 1.326 1.303 1.296
2112.631 1.312 1.29 1.304 1.312 1.309 1.345 1.353 1.301 1.247 1.273
2131.924 1.292 1.285 1.286 1.302 1.282 1.284 1.301 1.277 1.277 1.282
2151.218 1.28 1.25 1.198 1.173 1.143 1.137 1.158 1.146 1.136 1.131
2170.511 1.11 1.07 1.082 1.124 1.096 1.048 1.005 1.002 1.032 1.031
2189.804 1.027 1.025 0.993 0.962 0.991 0.995 0.981 1.013 0.991 0.95
2209.098 0.959 1.005 1.045 1.027 1.023 1.029 1.012 1.021 1.043 1.058
2228.391 1.031 1.023 1.059 1.048 1.047 1.087 1.111 1.122 1.142 1.151
2247.685 1.126 1.124 1.19 1.157 1.109 1.168 1.19 1.186 1.174 1.133
2266.978 1.13 1.165 1.164 1.191 1.169 1.125 1.176 1.198 1.194 1.206
2286.272 1.204 1.207 1.237 1.242 1.217 1.216 1.26 1.253 1.217 1.182
2305.565 1.168 1.173 1.148 1.153 1.173 1.185 1.217 1.262 1.269 1.278
2324.858 1.275 1.273 1.254 1.233 1.193 1.168 1.206 1.197 1.168 1.157
2344.152 1.132 1.111 1.082 1.051 1.078 1.08 1.056 1.054 1.071 1.082
2363.445 1.088 1.131 1.161 1.156 1.156 1.193 1.202 1.207 1.259 1.263
2382.739 1.197 1.152 1.222 1.283 1.277 1.3 1.283 1.243 1.277 1.316
2402.032 1.303 1.276 1.246 1.256 1.256 1.257 1.296 1.261 1.204 1.151
2421.326 1.126 1.142 1.171 1.17 1.132 1.101 1.081 1.094 1.077 1.058
2440.619 1.061 1.045 0.984 0.984 0.994 0.936 0.946 1.004 1.018 1.022
2459.912 1.047 0.995 0.958 0.95 0.933 0.951 0.965 0.959 0.932 0.953
2479.206 0.965 0.959 0.996 0.981 0.942 0.935 0.895 0.916 0.96 0.98
2498.499 1.006 1.016 1.007 0.982 0.968 0.967 0.997 0.981 0.944 0.964
2517.793 0.983 0.956 0.955 0.995 1 1.034 1.054 1.041 1.039 1.034
2537.086 1.031 1.036 1.003 0.966 0.986 1.006 1.044 1.104 1.122 1.101
2556.380 1.106 1.099 1.079 1.053 1.047 1.047 1.024 1.068 1.075 0.999
2575.673 1.012 1.026 0.975 0.961 0.979 0.984 0.991 1.015 1.004 0.999
2594.966 1.024 1.03 1.064 1.079 1.099 1.107 1.074 1.04 1.07 1.077
2614.260 1.004 1.007 1.04 1.081 1.078 1.002 0.998 1.009 0.977 0.988
2633.553 1.01 0.994 0.962 1.006 0.99 0.919 0.966 1.011 0.955 0.925
2652.847 0.943 0.935 0.922 0.931 0.935 0.927 0.914 0.9 0.878 0.867
2672.140 0.873 0.83 0.856 0.858 0.8 0.75 0.73 0.8 0.84 0.872
2691.434 0.941 0.911 0.85 0.865 0.907 0.872 0.881 0.953 0.955 0.935
2710.727 0.945 0.997 1.048 1.092 1.094 1.071 1.069 1.07 1.082 1.095
2730.020 1.099 1.097 1.034 1.014 1.036 1.046 1.035 1.053 1.112 1.073
2749.314 1.05 1.076 1.097 1.105 1.096 1.105 1.081 1.09 1.146 1.231
2768.607 1.207 1.168 1.257 1.299 1.253 1.201 1.274 1.297 1.186 1.192
2787.901 1.175 1.177 1.179 1.191 1.291 1.187 1.101 1.187 1.246 1.275
2807.194 1.289 1.27 1.26 1.378 1.459 1.435 1.494 1.454 1.441 1.588
2826.488 1.605 1.593 1.615 1.638 1.72 1.641 1.597 1.647 1.67 1.705
2845.781 1.7833 1.85933 1.8296 1.86968 1.91836 1.9778 2.0684 2.1427 2.2197 2.3922
2865.074 2.5623 2.7621 2.92 3.04 3.31 3.51 3.68 3.95 4.22 4.44
2884.368 4.67 4.86 4.94 4.97 4.98 4.97 4.98 4.95 5.02 5.26
2903.661 5.51 5.7 5.86 6.01 6.1 6.13 6.21 6.21 6.17 6.23
2922.955 6.25 6.34 6.56 6.97 7.39 7.93 8.7 9.52 10.4 11.14
2942.248 11.72 12.09 12.23 12.09 11.72 11.39 10.93 10.44 10.18 10.08
2961.542 10.26 10.62 11.22 11.96 12.74 13.65 14.75 16.18 17.94 19.85
2980.835 21.57 22.85 23.62 23.93 23.68 22.88 21.66 20.07 18.18 16.29
3000.128 14.72 13.5 12.6 11.69 10.79 10.04 9.32 8.65 7.92 7.17
3019.422 6.63 6.21 5.77 5.33 4.88 4.56 4.31 3.99 3.81 3.68
3038.715 3.47 3.36 3.3 3.25 3.24 3.23 3.26 3.57 3.95 4.45
3058.009 5.05 5.78 6.59 7.34 8.13 8.9 9.6 10.17 10.57 10.72
3077.302 10.73 10.42 9.92 9.33 8.57 7.77 6.86 5.92 4.94 4.18
3096.596 3.63 3.14 2.9 2.5518 2.2192 2.0465 1.86371 1.608 1.49 1.459
3115.889 1.341 1.373 1.306 1.305 1.317 1.31 1.405 1.434 1.459 1.493
3135.182 1.477 1.483 1.502 1.431 1.306 1.128 1.025 1.067 1.05 0.946
3154.476 0.968 0.906 0.76 0.65 0.66 0.73 0.68 0.6 0.54 0.51
3173.769 0.49 0.57 0.78 0.77 0.63 0.55 0.45 0.45 0.45 0.42
3193.063 0.53 0.47 0.48 0.52 0.4 0.48 0.58 0.46 0.32 0.31
3212.356 0.36 0.41 0.43 0.34 0.21 0.11 0.22 0.3 0.37 0.36
3231.650 0.29 0.34 0.21 0.17 0.23 0.17 0.12 0.15 0.24 0.19
3250.943 0.09 0.16 0.25 0.33 0.3 0.2 0.15 0.19 0.13 0.13
3270.236 0.13 0 0.17 0.22 0.11 0.03 0.04 0.08 0.22 0.25
3289.530 0.08 0.09 0.18 0.14 0.06 0.16 0.16 0.11 0.14 0.16
3308.823 0.09 0.1 0.34 0.49 0.41 0.37 0.38 0.35 0.3 0.17
3328.117 0.11 0.13 0.2 0.32 0.23 0.2 0.28 0.31 0.26 0.2
3347.410 0.22 0.19 0.22 0.36 0.42 0.32 0.25 0.23 0.26 0.24
3366.704 0.28 0.35 0.32 0.29 0.33 0.45 0.44 0.4 0.38 0.29
3385.997 0.31 0.37 0.35 0.27 0.22 0.19 0.3 0.52 0.46 0.4
3405.290 0.51 0.49 0.57 0.66 0.53 0.45 0.53 0.62 0.56 0.52
3424.584 0.57 0.71 0.78 0.69 0.71 0.74 0.59 0.67 0.74 0.67
3443.877 0.78 0.78 0.892 0.935 0.897 1.013 0.995 0.877 0.848 1.01
3463.171 1.086 0.97 1.078 1.085 0.954 0.965 1.036 1.124 1.187 1.216
3482.464 1.179 1.214 1.249 1.194 1.169 1.26 1.331 1.232 1.12 1.046
3501.758 0.987 0.895 0.75 0.848 0.878 0.856 0.926 0.83 0.82 0.84
3521.051 0.67 0.63 0.62 0.62 0.71 0.68 0.63 0.71 0.77 0.76
3540.344 0.76 0.73 0.74 0.76 0.75 0.71 0.73 0.78 0.872 0.76
3559.638 0.77 0.84 0.71 0.68 0.67 0.75 0.75 0.6 0.6 0.61
3578.931 0.62 0.61 0.63 0.64 0.64 0.8 0.85 0.83 0.73 0.67
3598.225 0.77 0.848 0.78 0.66 0.7 0.78 0.82 0.82 0.81 0.72
3617.518 0.6 0.69 0.83 0.841 0.8 0.81 0.78 0.76 0.81 0.76
3636.812 0.71 0.78 0.878 0.855 0.74 0.8 0.8 0.82 1.022 0.999
3656.105 0.81 0.7 0.74 0.79 0.914 0.968 0.84 0.856 0.963 1.014
3675.398 0.956 0.899 0.898 0.926 0.895 0.83 0.878 0.88 0.935 0.919
3694.692 0.884 0.863 0.84 0.952 0.961 0.952 0.941 0.933 1 0.957
3713.985 0.946 1.016 1.113 1.028 0.927 0.992 1.005 0.996 0.934 0.925
3733.279 1.007 1.111 1.157 1.183 1.168 1.114 1.016 0.96 1.023 0.992
3752.572 0.971 1.01 0.984 0.951 1.063 1.132 1.09 1.074 1.063 1.099
3771.866 1.057 1.073 1.149 1.145 1.105 1.142 1.122 1.017 1.125 1.244
3791.159 1.193 1.086 1.057 1.017 1.001 1.126 1.15 1.067 1.033 1.06
3810.452 1.1 1.094 1.015 1.032 1.118 1.079 1.004 1.04 1.182 1.197
3829.746 1.134 1.086 1.096 1.197 1.278 1.242 1.209 1.187 1.161 1.168
3849.039 1.168 1.142 1.106 1.142 1.121 1.093 1.165 1.18 1.169 1.134
3868.333 1.138 1.163 1.187 1.184 1.126 1.127 1.157 1.164 1.056 1.063
3887.626 1.145 1.14 1.154 1.168 1.174 1.125 1.072 1.12 1.128 1.116
3906.920 1.096 1.038 1.037 1.119 1.218 1.244 1.182 1.087 1.123 1.274
3926.213 1.198 1.1 1.18 1.137 1.08 1.138 1.093 1.093 1.208 1.206
3945.506 1.148 1.192 1.239 1.174 1.26 1.345 1.337 1.325 1.213 1.236
3964.800 1.278 1.253 1.207 1.157 1.155 1.177 1.262 1.256 1.261 1.302
3984.093 1.251 1.209 1.216 1.175 1.098 1.145 1.208 1.166 1.177
##END=
