##TITLE=2,5-Dimethylphenoxyacetic acid
##JCAMP-DX=4.24
##DATA TYPE=INFRARED SPECTRUM
##ORIGIN=EPA-IR VAPOR PHASE LIBRARY
##OWNER=SRD/NIST
Collection (C) 2018 copyright by the U.S. Secretary of Commerce
on behalf of the United States of America. All rights reserved.
##CAS REGISTRY NO=7356-41-4
##MOLFORM=C 10 H 12 O 3
##$NIST SOURCE=MSDC-IR
##STATE=gas
##XUNITS=1/CM
##YUNITS=ABSORBANCE
##XFACTOR=1.
##YFACTOR=0.001
##DELTAX=1.92934
##FIRSTX=549.9
##LASTX=3999.5
##FIRSTY=29.52
##MAXX=3999.53
##MINX=549.863
##MAXY=0.2223
##MINY=0
##NPOINTS=1789
##XYDATA=(X++(Y..Y))
549.863 29.52 30.62 31.61 32.55 33.68 34.85 35.95 36.9 37.6 38.21
569.156 38.74 39.02 39.09 39.14 39.13 39.17 39.24 39.27 39.26 39.29
588.450 39.32 39.42 39.62 39.88 40.28 40.81 41.49 42.22 42.94 43.56
607.743 44.17 44.77 45.2 45.59 45.97 46.19 46.24 46.14 45.92 45.57
627.037 45.1 44.51 43.67 42.57 41.35 40.19 39.05 37.87 36.76 35.78
646.330 34.91 33.99 32.99 32.1 31.22 30.21 29.19 28.27 27.4 26.58
665.624 25.81 25.14 24.3 23.35 22.48 21.65 20.79 19.96 19.16 18.35
684.917 17.63 16.96 16.37 15.82 15.22 14.69 14.18 13.7 13.29 12.96
704.210 12.67 12.38 12.17 12.13 12.18 12.33 12.52 12.76 12.98 13.06
723.504 13.02 12.84 12.52 12.12 11.65 11.13 10.62 10.19 9.83 9.65
742.797 9.62 9.65 9.8 10.1 10.48 10.9 11.33 11.83 12.43 13.03
762.091 13.57 14 14.31 14.37 14.23 13.99 13.59 13.07 12.6 12.28
781.384 12.23 12.64 13.8 15.78 18.7 22.61 27.23 32.14 37.12 42.33
800.678 48.18 53.69 54.33 49.06 42.55 37.09 32.27 27.48 22.81 18.89
819.971 15.92 13.87 12.76 12.39 12.43 12.8 13.43 14.17 15.05 15.99
839.264 16.83 17.55 18.09 18.41 18.51 18.4 18.16 17.82 17.39 16.91
858.558 16.43 16.04 15.66 15.26 14.89 14.54 14.17 13.82 13.49 13.11
877.851 12.69 12.28 11.88 11.47 11.08 10.7 10.38 10.12 9.91 9.77
897.145 9.71 9.74 9.84 9.99 10.33 10.81 11.42 12.25 13.14 13.99
916.438 14.78 15.44 15.99 16.4 16.59 16.54 16.34 15.97 15.44 14.89
935.732 14.31 13.62 12.94 12.25 11.62 11.12 10.73 10.5 10.37 10.33
955.025 10.41 10.64 10.95 11.32 11.8 12.33 12.89 13.56 14.34 15.22
974.318 16.17 17.16 18.18 19.23 20.26 21.21 22.05 22.72 23.21 23.53
993.612 23.62 23.48 23.22 22.92 22.59 22.32 22.2 22.21 22.43 22.74
1012.905 23.17 23.8 24.52 25.34 26.25 27.24 28.45 29.86 31.47 33.37
1032.199 35.64 38.3 41.38 44.92 48.8 52.92 57.15 61.35 65.44 69.27
1051.492 72.87 76.22 79.25 82.08 84.74 87.23 89.51 91.43 92.73 93.17
1070.786 92.53 90.6 87.35 82.95 77.68 71.93 66.21 60.99 56.77 53.97
1090.079 52.87 53.71 56.5 61.22 68.06 77.12 88.56 102.37 118.28 135.74
1109.372 153.77 171.19 187.1 200.86 211.76 219.15 222.3 220.77 215.14 206.4
1128.666 195.36 182.64 168.74 154.58 141.47 130.48 122.47 117.92 116.55 117.53
1147.959 119.85 122.22 123.79 124.12 122.86 119.88 115.13 109.04 102.31 95.46
1167.253 88.86 82.63 76.74 71.29 66.24 61.6 57.45 53.72 50.35 47.47
1186.546 45.02 42.96 41.25 39.89 38.86 38.09 37.57 37.25 37.02 36.83
1205.840 36.74 36.72 36.77 36.84 36.95 37.24 37.78 38.79 40.34 42.52
1225.133 45.47 49.26 53.97 59.61 66.08 73.21 80.69 87.95 94.58 100.25
1244.426 104.82 108.45 111.3 113.65 115.84 118.09 120.39 122.56 124.29 125
1263.720 124.19 121.52 117.04 111.18 104.63 98.14 92.25 87.13 82.79 79.12
1283.013 75.74 72.48 69.13 65.54 61.71 57.83 54.28 51.33 49.05 47.42
1302.307 46.29 45.5 44.95 44.61 44.56 44.81 45.36 46.31 47.65 49.35
1321.600 51.41 53.64 56.09 58.74 61.39 63.84 65.86 67.25 68.01 68.41
1340.894 68.55 68.43 67.94 66.98 65.71 64.42 63.35 62.36 61.22 59.91
1360.187 58.39 56.62 54.61 52.53 50.35 48.08 45.87 43.83 42.08 40.59
1379.480 39.2 37.9 36.75 35.88 35.12 34.31 33.72 33.63 34.16 35.32
1398.774 37.23 40.03 43.52 47.72 52.37 56.95 61.12 64.48 66.58 67.23
1418.067 66.41 64.19 61.07 57.36 53.43 49.89 46.86 44.44 42.71 41.64
1437.361 41.01 40.76 40.74 40.71 40.45 39.91 39.04 37.96 36.68 35.25
1456.654 33.63 31.98 30.57 29.4 28.43 27.61 26.91 26.33 25.9 25.55
1475.948 25.35 25.37 25.62 26.15 27.01 28.28 30.05 32.51 35.91 40.36
1495.241 46.34 54.29 63.91 74.78 85.63 94.77 101.32 104.34 103.61 99.14
1514.534 91.15 79.89 67.01 54.94 44.6 37.37 32.14 28.33 25.58 23.58
1533.828 22.08 20.98 20.23 19.72 19.38 19.22 19.18 19.23 19.41 19.72
1553.121 20.16 20.74 21.46 22.39 23.44 24.64 26.09 27.74 29.59 31.61
1572.415 33.73 35.8 37.78 39.45 40.58 41.11 40.91 39.94 38.3 36.21
1591.708 33.82 31.47 29.45 27.98 27.17 26.96 27.25 28.02 29.13 30.48
1611.002 31.84 32.95 33.56 33.42 32.56 31.01 28.78 25.97 22.87 19.65
1630.295 16.69 14.28 12.41 10.97 9.97 9.23 8.65 8.23 7.88 7.58
1649.588 7.37 7.22 7.06 6.94 6.89 6.88 6.89 6.91 6.94 6.97
1668.882 7.03 7.12 7.19 7.27 7.36 7.47 7.6 7.69 7.81 7.92
1688.175 8.07 8.22 8.35 8.49 8.61 8.79 9.02 9.24 9.42 9.68
1707.469 10.01 10.36 10.73 11.16 11.66 12.21 12.89 13.67 14.57 15.56
1726.762 16.71 18.04 19.51 21.05 22.78 24.54 26.37 28.32 30.29 32.4
1746.056 34.61 36.98 39.6 42.61 45.87 49.44 53.53 58.13 63.57 70.06
1765.349 77.89 87.5 98.95 111.33 124.23 135.77 145.04 151.57 155.09 155.63
1784.642 152.89 147.65 142.04 138.36 138.16 141.88 149.14 159.2 170.91 182.81
1803.936 192.98 199.61 201.49 198.48 191.08 179.81 165.2 147.91 129.28 110.8
1823.229 93.85 79.1 67 57.42 49.69 43.68 38.89 34.97 31.73 29.04
1842.523 26.72 24.61 22.75 21.11 19.6 18.28 17.16 16.13 15.24 14.51
1861.816 13.88 13.36 12.91 12.47 12.03 11.59 11.15 10.66 10.15 9.61
1881.110 9.03 8.49 8.01 7.57 7.12 6.71 6.38 6.09 5.83 5.6183
1900.403 5.4478 5.2945 5.134 4.9872 4.8725 4.7617 4.67645 4.5985 4.508 4.435
1919.696 4.392 4.351 4.27 4.186 4.137 4.105 4.05 4 3.983 3.938
1938.990 3.88 3.866 3.852 3.86 3.874 3.861 3.842 3.845 3.874 3.897
1958.283 3.91 3.939 3.983 3.986 4 4.017 3.996 3.994 3.991 3.975
1977.577 3.972 3.982 3.979 3.962 3.933 3.901 3.898 3.914 3.95 3.955
1996.870 3.911 3.86 3.844 3.843 3.808 3.777 3.775 3.785 3.788 3.775
2016.164 3.769 3.781 3.787 3.769 3.747 3.738 3.734 3.716 3.692 3.672
2035.457 3.654 3.63 3.64 3.63 3.58 3.55 3.54 3.52 3.48 3.46
2054.750 3.46 3.46 3.43 3.42 3.41 3.4 3.39 3.4 3.42 3.42
2074.044 3.4 3.42 3.43 3.45 3.49 3.51 3.51 3.51 3.53 3.52
2093.337 3.53 3.55 3.55 3.56 3.55 3.54 3.54 3.52 3.5 3.5
2112.631 3.5 3.52 3.52 3.52 3.5 3.5 3.51 3.54 3.56 3.58
2131.924 3.61 3.64 3.667 3.68 3.685 3.688 3.681 3.711 3.759 3.762
2151.218 3.772 3.743 3.73 3.76 3.794 3.801 3.802 3.821 3.825 3.846
2170.511 3.903 3.963 3.989 4.002 4.047 4.109 4.133 4.152 4.16 4.167
2189.804 4.193 4.219 4.22 4.221 4.221 4.209 4.193 4.188 4.167 4.126
2209.098 4.096 4.083 4.077 4.042 4.011 3.973 3.935 3.899 3.863 3.852
2228.391 3.81 3.742 3.728 3.705 3.666 3.63 3.56 3.51 3.48 3.44
2247.685 3.4 3.35 3.31 3.3 3.31 3.29 3.3 3.3 3.25 3.22
2266.978 3.23 3.25 3.26 3.25 3.26 3.26 3.26 3.29 3.32 3.31
2286.272 3.31 3.33 3.35 3.37 3.39 3.41 3.44 3.47 3.51 3.54
2305.565 3.56 3.59 3.61 3.63 3.61 3.61 3.647 3.676 3.669 3.666
2324.858 3.668 3.665 3.691 3.706 3.697 3.687 3.678 3.673 3.692 3.707
2344.152 3.663 3.6 3.57 3.56 3.57 3.61 3.651 3.64 3.61 3.62
2363.445 3.61 3.63 3.645 3.62 3.61 3.6 3.55 3.5 3.46 3.4
2382.739 3.34 3.34 3.33 3.32 3.32 3.3 3.32 3.34 3.35 3.38
2402.032 3.41 3.41 3.44 3.45 3.44 3.44 3.42 3.43 3.44 3.42
2421.326 3.4 3.36 3.31 3.3 3.3 3.27 3.25 3.23 3.23 3.23
2440.619 3.23 3.22 3.19 3.14 3.12 3.14 3.11 3.09 3.1 3.09
2459.912 3.08 3.08 3.04 3 3.01 3.03 3.02 3.03 3.03 2.98
2479.206 2.96 2.99 3.02 3.03 3.04 3.05 3.03 3.03 3.02 3.05
2498.499 3.05 3.03 3.02 3.03 3.07 3.07 3.03 3.05 3.04 3.05
2517.793 3.08 3.08 3.1 3.11 3.12 3.1 3.1 3.12 3.13 3.15
2537.086 3.15 3.15 3.12 3.09 3.1 3.09 3.06 3.01 2.98 2.96
2556.380 2.9 2.85 2.81 2.79 2.77 2.76 2.76 2.73 2.7 2.67
2575.673 2.61 2.58 2.57 2.5 2.44 2.45 2.43 2.38 2.34 2.29
2594.966 2.26 2.25 2.21 2.16 2.13 2.13 2.07 2.04 2.04 2.04
2614.260 2.04 2.03 2.01 2.02 2.04 2.07 2.07 2.03 2.01 2.02
2633.553 2.01 1.96 1.99 2.05 2.07 2.09 2.11 2.09 2.07 2.08
2652.847 2.13 2.11 2.12 2.18 2.15 2.13 2.18 2.21 2.16 2.13
2672.140 2.17 2.21 2.25 2.28 2.26 2.23 2.25 2.27 2.31 2.38
2691.434 2.38 2.38 2.4 2.41 2.42 2.46 2.43 2.37 2.36 2.4
2710.727 2.44 2.44 2.45 2.42 2.41 2.49 2.56 2.6 2.71 2.86
2730.020 2.95 3.09 3.31 3.55 3.804 3.96 4.1 4.222 4.222 4.122
2749.314 3.966 3.789 3.54 3.27 3.08 2.94 2.82 2.74 2.69 2.68
2768.607 2.63 2.63 2.71 2.72 2.69 2.68 2.72 2.77 2.83 2.87
2787.901 2.93 2.95 3.02 3.14 3.2 3.33 3.39 3.35 3.41 3.5
2807.194 3.55 3.675 3.798 3.894 4.017 4.137 4.345 4.5766 4.66298 4.8269
2826.488 5.0689 5.2541 5.535 5.92 6.32 6.73 7.18 7.7 8.37 9.02
2845.781 9.66 10.43 11.3 12.31 13.52 14.88 16.38 18.11 20 21.9
2865.074 23.83 25.71 27.31 28.62 29.62 30.25 30.48 30.34 30.01 29.42
2884.368 28.69 28.01 27.41 26.98 26.78 26.73 26.76 26.97 27.41 28.05
2903.661 28.87 29.85 31.04 32.56 34.38 36.61 39.22 42.29 45.96 50.12
2922.955 54.8 59.69 64.47 68.92 72.66 75.25 76.41 76.12 74.5 71.74
2942.248 68.01 63.48 58.56 53.78 49.43 45.62 42.42 39.89 37.88 36.18
2961.542 34.77 33.42 32.1 30.94 29.77 28.72 27.83 27.12 26.68 26.41
2980.835 26.2 25.85 25.59 25.46 25.23 24.97 24.7 24.52 24.5 24.6
3000.128 24.82 25.16 25.51 25.88 26.4 26.95 27.54 28.26 28.9 29.64
3019.422 30.58 31.58 32.59 33.49 34.1 34.27 33.96 33.42 32.73 31.78
3038.715 30.74 29.85 29.24 29.09 29.35 29.86 30.58 31.17 31.4 31.27
3058.009 30.51 29.18 27.4 25.34 23.2 20.97 18.88 17.11 15.6 14.3
3077.302 13.2 12.28 11.54 10.82 10.1 9.47 8.92 8.39 7.82 7.3
3096.596 6.83 6.31 5.85 5.4477 5.0657 4.71968 4.381 4.085 3.783 3.49
3115.889 3.34 3.24 3.05 2.91 2.79 2.67 2.59 2.42 2.23 2.12
3135.182 2.01 1.79 1.59 1.43 1.32 1.17 0.95 0.86 0.8 0.69
3154.476 0.61 0.58 0.51 0.45 0.43 0.42 0.35 0.35 0.34 0.32
3173.769 0.35 0.28 0.22 0.25 0.26 0.19 0.17 0.14 0.05 0.01
3193.063 0.07 0.12 0.13 0.13 0.11 0.07 0.09 0.07 0.06 0.08
3212.356 0 0.07 0.18 0.11 0.14 0.21 0.22 0.2 0.14 0.09
3231.650 0.07 0.12 0.19 0.14 0.17 0.2 0.18 0.2 0.16 0.18
3250.943 0.23 0.27 0.24 0.29 0.32 0.33 0.39 0.28 0.25 0.27
3270.236 0.24 0.36 0.4 0.33 0.41 0.52 0.52 0.57 0.58 0.5
3289.530 0.51 0.64 0.65 0.65 0.73 0.72 0.77 0.84 0.82 0.81
3308.823 0.78 0.79 0.74 0.69 0.68 0.61 0.57 0.55 0.58 0.52
3328.117 0.59 0.69 0.6 0.6 0.52 0.5 0.58 0.56 0.56 0.54
3347.410 0.59 0.55 0.49 0.59 0.65 0.68 0.66 0.6 0.58 0.66
3366.704 0.71 0.67 0.67 0.66 0.7 0.78 0.85 0.84 0.81 0.92
3385.997 0.9 0.86 0.9 0.89 0.85 0.92 1.08 1.19 1.15 1.13
3405.290 1.21 1.26 1.26 1.27 1.39 1.5 1.58 1.64 1.62 1.73
3424.584 1.89 1.88 1.88 1.99 2.08 2.19 2.31 2.26 2.22 2.33
3443.877 2.43 2.36 2.31 2.48 2.54 2.49 2.53 2.52 2.65 2.84
3463.171 2.98 3.17 3.29 3.49 3.728 4.026 4.526 4.9527 5.3656 5.83
3482.464 6.5 7.37 8.2 9.17 10.25 11.41 12.74 14.24 15.88 17.74
3501.758 19.88 22.15 24.57 27.24 29.85 32.16 34.2 35.74 36.37 36.2
3521.051 35.28 33.67 31.55 29.14 26.76 24.51 22.55 20.91 19.56 18.45
3540.344 17.57 16.9 16.44 16.19 16.12 16.27 16.66 17.44 18.89 21.02
3559.638 24.27 29.11 35.8 44.62 55 65.43 74.71 81.95 85.57 84.9
3578.931 80.51 72.99 63.17 52.67 42.5 33.2 25.62 20.14 16.27 13.56
3598.225 11.69 10.34 9.36 8.52 7.79 7.22 6.69 6.2 5.81 5.4999
3617.518 5.2025 4.9026 4.5988 4.4 4.201 3.958 3.655 3.4 3.29 3.13
3636.812 2.99 2.94 2.82 2.68 2.57 2.51 2.47 2.46 2.41 2.34
3656.105 2.28 2.21 2.18 2.22 2.23 2.13 2.08 2.04 2.04 2.07
3675.398 2.04 2.03 2.04 2.05 2.07 2.04 2.01 1.98 1.96 2.03
3694.692 2.09 2.06 2.01 1.99 1.98 2 2.02 2.1 2.13 2.03
3713.985 1.97 2 2.07 2.1 2.12 2.11 2.09 2.06 2.01 2.07
3733.279 2.13 2.15 2.1 2.1 2.17 2.25 2.24 2.19 2.17 2.15
3752.572 2.11 2.1 2.12 2.11 2.14 2.18 2.17 2.12 2.03 2.03
3771.866 2.08 2.12 2.12 2.09 2.05 2.09 2.14 2.09 2.11 2.14
3791.159 2.13 2.12 2.1 2.08 2.05 2.01 1.98 2.01 2.05 2.05
3810.452 2.04 2.02 2.03 2.06 2.1 2.11 2.1 2.12 2.12 2.16
3829.746 2.17 2.19 2.23 2.15 2.09 2.14 2.16 2.16 2.18 2.14
3849.039 2.13 2.12 2.08 2.1 2.11 2.08 2.11 2.18 2.18 2.09
3868.333 2.08 2.11 2.08 2.08 2.17 2.22 2.2 2.19 2.18 2.16
3887.626 2.16 2.15 2.12 2.15 2.25 2.25 2.24 2.27 2.26 2.28
3906.920 2.29 2.21 2.2 2.25 2.28 2.29 2.34 2.4 2.36 2.33
3926.213 2.34 2.3 2.34 2.37 2.37 2.41 2.41 2.4 2.43 2.5
3945.506 2.51 2.48 2.41 2.42 2.49 2.5 2.55 2.58 2.6 2.64
3964.800 2.59 2.57 2.59 2.6 2.62 2.63 2.63 2.58 2.55 2.56
3984.093 2.57 2.55 2.59 2.57 2.55 2.61 2.56 2.53 2.55
##END=
