##TITLE=Bis(2-aminopropyl)amine
##JCAMP-DX=4.24
##DATA TYPE=INFRARED SPECTRUM
##ORIGIN=NIST Mass Spectrometry Data Center
##OWNER=NIST Standard Reference Data Program
Collection (C) 2018 copyright by the U.S. Secretary of Commerce
on behalf of the United States of America. All rights reserved.
##CAS REGISTRY NO=7356-00-5
##MOLFORM=C 6 H 17 N 3
##$NIST SOURCE=MSDC-IR
##SPECTROMETER/DATA SYSTEM=HP-GC/MS/IRD
##STATE=gas
##XUNITS=1/CM
##YUNITS=ABSORBANCE
##XFACTOR=1.0
##YFACTOR=0.000007800
##DELTAX=4.0
##FIRSTX=550.0
##LASTX=3846.0
##FIRSTY=0.003760
##MAXX=3846
##MINX=550
##MAXY=0.078
##MINY=0
##NPOINTS=825
##XYDATA=(X++(Y..Y))
550.0 482 379 33 109 97 106 110 117 128 140
590.0 160 186 223 254 273 305 340 369 411 467
630.0 516 565 619 680 750 816 881 957 1034 1122
670.0 1209 1286 1360 1438 1526 1608 1691 1781 1871 1977
710.0 2091 2202 2334 2483 2641 2818 3025 3255 3484 3706
750.0 3901 4057 4165 4235 4270 4267 4231 4152 3999 3769
790.0 3483 3159 2817 2503 2234 1994 1801 1631 1480 1366
830.0 1259 1165 1085 1014 961 914 867 811 759 726
870.0 680 631 588 550 521 492 462 440 420 407
910.0 403 386 381 379 390 400 354 303 283 275
950.0 277 279 296 352 381 329 297 298 294 298
990.0 312 325 342 368 399 438 475 501 540 585
1030.0 630 667 684 727 789 842 924 1020 1132 1249
1070.0 1331 1386 1389 1386 1390 1382 1400 1438 1505 1617
1110.0 1794 2055 2382 2702 2911 2963 2817 2487 2071 1676
1150.0 1362 1133 968 809 679 586 511 441 370 322
1190.0 291 264 234 212 201 192 185 178 173 171
1230.0 172 167 164 162 164 174 183 195 205 213
1270.0 220 228 233 243 265 286 311 338 357 376
1310.0 394 418 445 486 556 659 783 914 1025 1103
1350.0 1154 1178 1186 1185 1168 1143 1111 1074 1025 963
1390.0 883 791 687 585 506 459 455 501 582 699
1430.0 834 967 1086 1179 1285 1426 1591 1752 1859 1878
1470.0 1787 1587 1309 1025 782 589 451 356 288 248
1510.0 217 187 171 160 147 141 141 142 146 149
1550.0 153 163 182 193 205 223 252 288 328 376
1590.0 438 515 605 715 846 993 1141 1262 1320 1300
1630.0 1198 1043 869 711 575 465 371 291 234 191
1670.0 154 125 102 85 71 59 57 56 48 36
1710.0 31 30 28 23 21 28 35 30 27 28
1750.0 28 27 28 28 30 36 36 34 37 39
1790.0 43 48 52 52 49 51 53 56 59 62
1830.0 63 62 63 62 60 55 50 45 40 37
1870.0 33 26 21 16 14 11 8 6 6 4
1910.0 6 7 5 2 0 0 1 3 4 5
1950.0 6 5 6 8 8 8 11 14 14 17
1990.0 18 19 20 22 24 26 29 33 35 36
2030.0 36 38 43 48 48 48 50 50 52 55
2070.0 57 56 57 59 62 64 62 65 67 68
2110.0 69 68 71 75 74 76 79 79 80 83
2150.0 87 87 84 86 88 91 91 92 94 94
2190.0 97 100 99 98 99 97 97 98 98 96
2230.0 98 96 97 96 95 95 97 100 98 97
2270.0 98 98 100 101 100 100 102 104 105 105
2310.0 107 108 107 107 109 110 109 109 108 107
2350.0 106 108 110 112 112 111 109 107 106 104
2390.0 104 103 104 104 102 105 108 108 109 110
2430.0 108 110 110 112 115 115 114 115 116 118
2470.0 119 121 124 126 126 128 130 131 133 139
2510.0 141 143 145 147 152 154 156 161 163 167
2550.0 173 176 182 186 191 197 203 209 215 221
2590.0 230 238 244 255 266 277 288 297 309 321
2630.0 335 349 361 378 394 416 438 461 486 514
2670.0 542 568 596 622 645 668 695 720 743 768
2710.0 790 817 852 887 924 963 1001 1046 1090 1132
2750.0 1175 1222 1263 1309 1363 1424 1503 1602 1734 1905
2790.0 2118 2375 2675 3011 3366 3718 4037 4302 4503 4646
2830.0 4753 4845 4943 5064 5207 5361 5496 5587 5615 5573
2870.0 5474 5351 5219 5106 5036 5046 5164 5419 5818 6355
2910.0 7015 7744 8479 9149 9680 9989 10000 9662 8974 8016
2950.0 6926 5835 4824 3936 3183 2564 2073 1682 1378 1148
2990.0 969 830 719 628 561 504 453 410 375 344
3030.0 314 290 270 251 236 220 212 204 194 188
3070.0 180 175 171 165 163 163 157 148 149 150
3110.0 147 150 148 139 137 133 133 137 134 133
3150.0 132 132 131 130 130 129 128 125 124 128
3190.0 132 131 130 127 124 128 134 136 130 129
3230.0 129 123 124 124 121 122 124 127 128 128
3270.0 127 127 131 136 136 136 141 147 150 158
3310.0 165 181 204 232 266 307 348 373 388 385
3350.0 369 342 310 280 253 229 206 198 191 187
3390.0 194 205 216 230 234 229 222 206 186 170
3430.0 162 158 146 137 129 125 126 131 128 123
3470.0 126 119 113 115 118 115 111 115 118 111
3510.0 107 106 109 113 109 102 105 107 105 112
3550.0 111 104 101 101 109 108 103 102 103 105
3590.0 108 105 106 108 107 110 110 110 108 108
3630.0 111 102 101 103 106 111 111 107 100 100
3670.0 102 104 100 96 100 99 94 99 100 92
3710.0 100 97 91 97 103 105 106 106 107 108
3750.0 106 101 95 89 90 90 85 86 91 87
3790.0 85 87 88 91 94 91 89 99 99 92
3830.0 97 96 99 102 96
##END=
