##TITLE=2-Ethyl-3-methyl-1-butene
##JCAMP-DX=4.24
##DATA TYPE=INFRARED SPECTRUM
##ORIGIN=NIST Mass Spectrometry Data Center
##OWNER=NIST Standard Reference Data Program
Collection (C) 2018 copyright by the U.S. Secretary of Commerce
on behalf of the United States of America. All rights reserved.
##CAS REGISTRY NO=7357-93-9
##MOLFORM=C 7 H 14
##$NIST SOURCE=MSDC-IR
##SPECTROMETER/DATA SYSTEM=HP-GC/MS/IRD
##STATE=gas
##XUNITS=1/CM
##YUNITS=ABSORBANCE
##XFACTOR=1.0
##YFACTOR=0.000000700
##DELTAX=4.0
##FIRSTX=550.0
##LASTX=3846.0
##FIRSTY=0.000266
##MAXX=3846
##MINX=550
##MAXY=0.007
##MINY=0
##NPOINTS=825
##XYDATA=(X++(Y..Y))
550.0 380 297 351 387 311 377 315 360 222 105
590.0 477 628 381 369 446 312 320 345 442 421
630.0 336 436 404 299 442 491 307 113 171 220
670.0 125 184 172 193 223 181 56 157 231 234
710.0 260 208 226 235 149 218 279 143 126 226
750.0 148 121 173 191 240 208 152 134 93 25
790.0 26 171 261 317 298 299 349 252 268 279
830.0 188 167 214 195 179 250 226 236 451 630
870.0 792 1040 1364 1738 2094 2396 2552 2381 2016 1642
910.0 1351 1021 739 663 573 484 512 433 393 329
950.0 271 326 290 262 320 377 381 328 309 345
990.0 427 464 389 384 430 471 456 455 488 498
1030.0 484 373 347 452 474 417 438 500 509 455
1070.0 450 473 454 511 655 728 722 726 700 689
1110.0 661 625 592 481 430 435 377 345 388 406
1150.0 418 461 448 393 242 135 96 87 95 73
1190.0 14 25 63 68 120 168 175 124 180 219
1230.0 182 198 177 120 157 215 223 251 270 252
1270.0 214 199 197 191 222 252 250 274 325 327
1310.0 314 321 300 264 247 302 328 276 259 278
1350.0 318 385 523 656 738 855 920 925 969 952
1390.0 888 842 744 678 628 603 646 686 711 736
1430.0 774 844 980 1106 1177 1351 1510 1567 1633 1622
1470.0 1557 1425 1291 1066 861 762 629 505 447 367
1510.0 312 310 287 244 227 228 223 222 214 225
1550.0 241 216 182 162 159 223 237 190 205 224
1590.0 229 261 282 293 292 312 374 489 652 773
1630.0 864 956 1045 1038 940 871 764 586 440 327
1670.0 240 183 167 122 93 139 123 84 93 104
1710.0 108 84 56 40 82 117 86 61 56 81
1750.0 98 117 95 116 169 133 144 183 169 188
1790.0 219 196 163 180 196 180 193 164 129 104
1830.0 97 120 132 119 125 134 88 81 128 119
1870.0 116 152 143 119 110 88 85 86 89 110
1910.0 113 68 57 85 109 117 93 117 152 155
1950.0 156 133 105 84 67 54 75 97 101 97
1990.0 97 70 93 151 116 71 56 68 97 112
2030.0 123 88 41 69 99 79 66 61 61 79
2070.0 86 84 90 54 35 77 80 49 35 51
2110.0 70 34 31 107 119 63 36 47 80 85
2150.0 83 121 110 72 100 109 99 76 81 109
2190.0 117 103 95 77 36 73 97 75 73 74
2230.0 79 76 81 111 108 57 70 98 75 67
2270.0 59 67 62 48 57 78 91 85 84 60
2310.0 51 95 62 41 81 95 91 61 81 84
2350.0 85 99 72 45 50 76 99 82 10 16
2390.0 77 104 97 94 117 126 95 83 87 99
2430.0 105 78 67 74 66 111 116 47 30 66
2470.0 100 90 56 13 4 31 51 76 82 50
2510.0 53 81 70 78 103 57 52 99 87 86
2550.0 83 83 95 77 75 111 131 79 60 100
2590.0 79 51 66 88 100 100 88 64 63 71
2630.0 81 99 136 172 157 115 110 124 137 126
2670.0 57 65 65 82 134 102 80 122 163 163
2710.0 171 176 164 195 199 183 189 210 222 219
2750.0 259 277 259 270 258 278 279 249 274 318
2790.0 312 318 324 344 373 386 424 459 459 521
2830.0 630 704 737 811 915 1023 1150 1312 1614 1987
2870.0 2377 2765 3195 3481 3651 3830 3895 3876 3830 3753
2910.0 3711 3704 3741 3889 4151 4446 4706 4981 5257 5577
2950.0 6125 6928 7919 8954 9728 10000 9852 9075 7703 6180
2990.0 4737 3511 2678 2138 1721 1382 1112 915 809 776
3030.0 751 673 545 526 515 475 485 560 627 720
3070.0 880 1049 1161 1162 1194 1164 1040 907 693 561
3110.0 444 304 279 237 242 258 202 164 165 143
3150.0 133 193 239 218 179 169 182 239 244 174
3190.0 113 161 255 225 192 146 131 175 226 228
3230.0 162 122 113 108 82 150 199 126 89 59
3270.0 96 191 181 157 244 227 176 193 206 177
3310.0 114 124 145 105 106 155 125 136 102 32
3350.0 51 111 132 104 101 70 52 33 18 6
3390.0 41 107 133 133 116 64 53 88 111 135
3430.0 139 127 28 30 94 126 148 117 132 148
3470.0 107 141 163 83 82 130 107 40 15 62
3510.0 101 36 55 59 3 0 81 141 147 149
3550.0 170 129 104 146 102 73 148 179 74 31
3590.0 99 121 154 164 109 101 140 174 206 209
3630.0 158 105 96 111 61 16 40 126 173 116
3670.0 78 63 97 165 120 103 217 223 210 166
3710.0 50 20 40 109 177 237 228 154 145 188
3750.0 221 274 232 124 123 171 161 124 133 154
3790.0 168 162 161 156 183 169 128 159 173 152
3830.0 187 171 126 140 174
##END=
