##TITLE=2,3,4-Trichlorotoluene
##JCAMP-DX=4.24
##DATA TYPE=INFRARED SPECTRUM
##ORIGIN=EPA-IR VAPOR PHASE LIBRARY
##OWNER=SRD/NIST
Collection (C) 2018 copyright by the U.S. Secretary of Commerce
on behalf of the United States of America. All rights reserved.
##CAS REGISTRY NO=7359-72-0
##MOLFORM=C 7 H 5 Cl 3
##$NIST SOURCE=MSDC-IR
##STATE=gas
##XUNITS=1/CM
##YUNITS=ABSORBANCE
##XFACTOR=1.
##YFACTOR=0.001
##DELTAX=1.92898
##FIRSTX=549.8
##LASTX=4000.7
##FIRSTY=6.029
##MAXX=4000.7
##MINX=549.759
##MAXY=0.132949
##MINY=0
##NPOINTS=1790
##XYDATA=(X++(Y..Y))
549.759 6.029 7.299 10.839 11.469 8.119 6.209 5.529 5.119 4.619 3.519
569.049 2.589 1.859 1.489 1.3311 1.2803 1.047 1.1969 1.489 1.1937 0.9168
588.339 0.9059 1.1308 1.0292 1.2035 1.569 1.569 1.519 1.469 1.4568 1.589
607.628 1.3141 0.9877 0.8914 0.9271 1.1388 1.2804 1.4194 1.1829 0.8913 1.0203
626.918 1.188 1.3513 1.519 1.539 1.559 1.4384 1.4343 1.2647 0.9266 0.7939
646.208 0.9429 1.2137 1.4575 1.719 2.189 3.379 5.149 7.469 10.329 13.799
665.498 16.769 18.199 18.519 18.829 18.299 16.869 14.989 11.249 7.109 4.349
684.787 2.769 1.999 1.559 1.3424 1.3243 1.1019 0.9163 0.9734 1.0114 0.939
704.077 0.999 1.1938 1.0769 1.0002 1.0103 0.8293 0.9441 1.1622 1.4003 1.479
723.367 1.4253 1.3878 1.699 2.029 1.909 2.309 2.839 3.179 3.389 3.849
742.657 4.489 4.699 5.039 5.619 6.189 6.939 7.979 9.269 11.399 14.449
761.947 18.549 24.219 31.759 41.029 51.049 60.519 68.039 73.049 75.289 74.469
781.236 71.449 65.559 56.789 47.429 40.589 37.949 38.639 41.339 44.459 48.209
800.526 54.639 66.149 75.539 63.419 43.959 36.829 33.209 28.079 22.189 16.419
819.816 11.849 8.649 6.619 5.539 4.559 3.839 3.589 3.369 2.979 2.899
839.106 3.109 3.259 3.819 4.489 5.159 5.979 7.039 8.059 8.529 8.899
858.395 9.169 9.169 9.469 9.949 10.549 11.969 14.349 18.079 23.429 29.699
877.685 35.999 40.839 42.919 42.599 41.989 41.519 38.989 33.309 26.049 19.139
896.975 13.709 9.869 6.939 4.969 3.979 3.229 2.689 2.469 2.219 1.949
916.265 1.949 1.959 1.909 1.909 1.879 1.889 1.969 2.159 2.269 2.369
935.555 2.379 2.389 2.369 2.349 2.309 2.329 2.279 2.149 2.109 2.069
954.844 2.299 2.379 2.249 2.409 2.559 2.669 2.749 3.009 3.119 2.989
974.134 3.319 3.679 3.949 4.089 4.269 4.509 4.899 5.429 5.799 6.069
993.424 6.449 7.229 8.209 9.329 10.469 11.819 13.179 14.479 15.549 16.069
1012.714 16.249 16.319 15.979 14.849 13.629 12.449 10.879 9.319 8.289 7.339
1032.003 6.729 6.299 5.659 5.189 5.179 4.829 4.019 3.899 3.719 3.409
1051.293 3.419 3.629 3.459 3.109 3.279 3.629 3.679 3.699 3.689 3.369
1070.583 3.629 3.999 4.099 4.779 5.499 5.879 6.869 8.189 8.589 8.779
1089.873 8.969 8.579 8.299 7.829 7.299 6.669 5.619 5.129 4.439 3.579
1109.163 3.369 3.059 2.689 2.539 2.529 2.569 2.449 2.319 2.439 2.229
1128.452 2.249 2.569 2.909 3.059 3.509 5.129 7.199 9.929 13.939 17.999
1147.742 20.139 21.359 23.419 24.659 25.509 27.189 27.939 29.369 32.649 37.559
1167.032 42.979 47.059 50.029 51.869 51.939 50.069 46.339 40.659 33.549 26.439
1186.322 20.899 16.929 13.849 11.129 8.499 6.529 5.289 4.539 4.009 3.909
1205.611 4.179 4.159 4.589 5.189 5.279 5.849 6.959 7.829 9.089 10.649
1224.901 12.469 14.459 16.049 17.819 19.459 20.419 21.049 21.419 20.989 19.959
1244.191 18.349 16.309 14.519 12.859 11.299 10.249 9.079 7.519 6.149 4.829
1263.481 4.049 3.629 3.179 2.849 2.289 2.199 2.269 1.949 1.699 1.499
1282.771 1.619 1.889 1.919 1.909 1.879 1.959 2.039 2.059 2.089 2.079
1302.060 2.179 2.209 2.129 2.089 2.179 2.239 2.239 2.279 2.289 2.349
1321.350 2.429 2.569 2.799 3.009 3.279 3.769 4.399 5.099 6.029 7.359
1340.640 9.119 11.319 14.229 17.809 22.069 26.919 32.049 37.409 42.969 48.749
1359.930 54.339 58.369 59.609 58.429 56.249 53.949 50.779 45.649 39.049 32.519
1379.219 27.169 23.359 20.609 18.529 16.929 15.549 14.409 13.539 12.639 11.469
1398.509 10.379 9.599 8.969 8.559 8.399 8.469 8.849 9.499 10.499 12.109
1417.799 14.479 17.759 22.329 28.539 36.649 46.709 58.879 72.599 87.239 101.609
1437.089 114.809 125.099 131.209 132.949 130.579 124.819 116.099 105.029 92.339 79.139
1456.378 66.479 55.769 47.469 40.489 33.949 27.379 21.569 16.919 13.589 11.279
1475.668 9.679 8.589 7.939 7.579 7.289 7.189 7.229 7.219 7.189 7.029
1494.958 6.699 6.319 5.979 5.689 5.299 4.849 4.579 4.369 4.229 4.079
1514.248 3.989 3.929 3.789 3.789 3.779 3.649 3.569 3.439 3.309 3.329
1533.538 3.309 3.249 3.229 3.389 3.639 3.939 4.359 4.779 5.199 5.759
1552.827 6.259 6.699 7.259 7.859 8.399 8.889 9.339 9.899 10.659 11.469
1572.117 12.369 13.119 13.639 13.909 13.759 13.309 12.749 11.829 10.589 9.359
1591.407 8.189 7.159 6.339 5.839 5.599 5.369 5.219 4.999 4.779 4.539
1610.697 4.189 3.929 3.609 3.259 2.819 2.439 2.139 1.819 1.659 1.639
1629.986 1.649 1.649 1.619 1.639 1.599 1.509 1.519 1.489 1.3918 1.3871
1649.276 1.3726 1.3495 1.4275 1.399 1.2904 1.2449 1.3346 1.459 1.469 1.3595
1668.566 1.3306 1.3383 1.3038 1.273 1.2718 1.3143 1.4068 1.3233 1.136 1.1211
1687.856 1.1815 1.2621 1.2361 1.1436 1.1184 1.0953 1.0533 1.0112 0.9237 0.819
1707.146 0.784 0.8222 0.8377 0.8914 0.9647 1.0009 1.0758 1.1817 1.324 1.629
1726.435 1.889 2.069 2.379 2.649 2.859 2.919 2.859 2.749 2.659 2.449
1745.725 2.159 1.909 1.609 1.3835 1.2943 1.2852 1.2247 1.1349 1.0186 0.9365
1765.015 0.9229 0.8906 0.8975 0.8317 0.8053 0.8422 0.7464 0.6755 0.7391 0.7379
1784.305 0.6989 0.7346 0.7032 0.7002 0.7133 0.7068 0.7512 0.7497 0.727 0.6937
1803.594 0.6367 0.6794 0.7034 0.7119 0.7714 0.7881 0.7317 0.7533 0.8699 0.9234
1822.884 0.9541 0.9848 1.0307 1.0444 1.061 1.1308 1.1659 1.2546 1.331 1.3285
1842.174 1.4204 1.519 1.519 1.509 1.579 1.719 1.789 1.949 2.309 2.649
1861.464 3.019 3.519 3.989 4.469 4.859 5.039 5.079 4.869 4.569 4.269
1880.754 3.879 3.409 2.839 2.219 1.809 1.569 1.3217 1.0884 0.9467 0.8902
1900.043 0.8276 0.7839 0.8159 0.8576 0.815 0.808 0.8315 0.76 0.7367 0.7518
1919.333 0.773 0.8083 0.7939 0.8321 0.853 0.8452 0.8812 0.9168 0.9599 1.0291
1938.623 1.0577 1.0321 1.0268 1.0841 1.1015 1.0765 1.0518 1.0326 1.0382 1.0416
1957.913 1.0439 0.9648 0.8974 0.9154 0.9156 0.8713 0.8507 0.7894 0.7653 0.7741
1977.202 0.7764 0.7883 0.7727 0.7256 0.6927 0.6716 0.617 0.6144 0.566 0.5893
1996.492 0.6233 0.5568 0.5846 0.5853 0.55565 0.5787 0.6205 0.6846 0.6976 0.6585
2015.782 0.6358 0.7133 0.7312 0.7132 0.7442 0.7457 0.791 0.7686 0.7831 0.8342
2035.072 0.8051 0.7597 0.6857 0.6872 0.7552 0.8435 0.8038 0.7842 0.819 0.765
2054.362 0.7689 0.7703 0.741 0.7662 0.8159 0.8144 0.7264 0.6335 0.6145 0.6329
2073.651 0.6573 0.6393 0.6169 0.6209 0.6825 0.6416 0.54126 0.53775 0.5875 0.6492
2092.941 0.6076 0.5979 0.6205 0.6105 0.6343 0.6687 0.6746 0.615 0.6199 0.6969
2112.231 0.7531 0.721 0.6456 0.6599 0.6721 0.7316 0.7966 0.7621 0.7212 0.7236
2131.521 0.7034 0.7076 0.6825 0.6667 0.6804 0.6312 0.613 0.6198 0.6327 0.6657
2150.810 0.6482 0.6427 0.6485 0.6196 0.5938 0.5742 0.5708 0.5646 0.5779 0.54221
2170.100 0.55377 0.5823 0.55115 0.5806 0.6003 0.613 0.594 0.50323 0.50149 0.52027
2189.390 0.461039 0.4256 0.4202 0.45216 0.5494 0.6032 0.5713 0.460019 0.4479 0.54142
2208.680 0.5811 0.6194 0.6771 0.6578 0.6612 0.7287 0.642 0.52338 0.5831 0.6612
2227.970 0.6589 0.6607 0.717 0.7027 0.6898 0.7195 0.7043 0.7579 0.85 0.9001
2247.259 0.8502 0.7892 0.7657 0.8229 0.8194 0.7319 0.8039 0.8346 0.7676 0.7884
2266.549 0.8098 0.8607 0.8323 0.7934 0.8569 0.7707 0.6522 0.6404 0.7095 0.6997
2285.839 0.634 0.6292 0.6783 0.6852 0.678 0.7115 0.7324 0.8176 0.92 0.8254
2305.129 0.7059 0.7358 0.8038 0.9125 0.9442 0.8545 0.7983 0.864 0.9829 1.0644
2324.418 1.0589 0.951 0.8114 0.9285 1.0497 0.9381 0.7934 0.7292 0.7958 0.7971
2343.708 0.7113 0.6363 0.5728 0.5963 0.6317 0.5665 0.5807 0.6472 0.6079 0.6105
2362.998 0.6853 0.6574 0.6312 0.5721 0.51864 0.5815 0.5794 0.6438 0.7326 0.7502
2382.288 0.7997 0.7861 0.77 0.8034 0.8494 0.8892 0.8373 0.7993 0.7967 0.8014
2401.578 0.7892 0.772 0.814 0.9049 0.9002 0.8762 0.8756 0.9242 0.9722 0.8888
2420.867 0.8466 0.7598 0.7238 0.7195 0.7615 0.7683 0.7009 0.6596 0.6672 0.7665
2440.157 0.701 0.6993 0.7961 0.8072 0.897 0.9069 0.8609 0.8154 0.7937 0.8416
2459.447 0.8618 0.9237 0.9798 0.9235 0.9736 1.0975 1.0876 1.1821 1.1787 1.1392
2478.737 1.2462 1.254 1.1631 1.1171 1.193 1.2174 1.251 1.3069 1.2667 1.2341
2498.026 1.2292 1.2159 1.1925 1.0751 1.0427 1.0677 1.0505 1.051 1.0112 0.9432
2517.316 0.8587 0.8544 0.8728 0.8559 0.8035 0.7774 0.8328 0.7645 0.688 0.6878
2536.606 0.7371 0.7702 0.7363 0.6544 0.6532 0.7019 0.6852 0.7029 0.6572 0.6433
2555.896 0.6813 0.578 0.52258 0.6022 0.6002 0.5678 0.5673 0.5924 0.4826 0.4065
2575.186 0.45416 0.53864 0.6107 0.584 0.612 0.6102 0.5686 0.55133 0.5999 0.5879
2594.475 0.5876 0.641 0.6414 0.6694 0.7114 0.8092 0.8211 0.7599 0.8053 0.9363
2613.765 0.9748 0.9997 1.0968 1.1262 1.0651 1.0306 1.0859 1.1241 1.1125 1.0488
2633.055 0.9587 0.957 1.0378 1.0073 0.924 0.862 0.7387 0.7188 0.6978 0.7077
2652.345 0.7295 0.6469 0.6649 0.6928 0.6921 0.6412 0.53418 0.5755 0.6652 0.7453
2671.634 0.7641 0.7304 0.7156 0.6365 0.7005 0.7617 0.6664 0.51837 0.4824 0.5098
2690.924 0.53913 0.6307 0.6525 0.6151 0.5889 0.6637 0.7371 0.6757 0.6803 0.6138
2710.214 0.5693 0.7025 0.6589 0.6418 0.7261 0.7 0.7929 0.7935 0.6935 0.7281
2729.504 0.7585 0.9117 0.9605 0.9054 0.9226 0.9513 0.9991 1.1113 1.1468 1.2063
2748.794 1.262 1.28 1.4351 1.579 1.669 1.599 1.519 1.3928 1.191 1.023
2768.083 0.8969 0.8276 0.8189 0.9297 0.9618 0.9479 0.9356 0.87 0.924 1.0352
2787.373 1.0015 0.9783 0.9422 0.9512 1.0383 0.9722 0.9346 1.0476 1.1555 1.2612
2806.663 1.2778 1.253 1.3664 1.3619 1.3825 1.4024 1.4582 1.539 1.539 1.659
2825.953 1.689 1.559 1.579 1.709 1.799 1.979 2.099 2.199 2.319 2.419
2845.242 2.489 2.549 2.779 3.049 3.199 3.389 3.789 4.259 4.689 5.139
2864.532 5.679 6.089 6.259 6.419 6.609 6.729 6.729 6.539 6.379 6.079
2883.822 5.689 5.579 5.569 5.359 5.109 5.079 5.119 5.049 4.999 5.049
2903.112 5.099 5.169 5.189 5.179 5.279 5.509 5.769 6.109 6.699 7.449
2922.401 8.629 10.209 12.049 14.539 17.089 19.159 20.919 21.949 22.359 22.279
2941.691 21.369 19.759 17.679 15.529 13.459 11.869 10.729 10.149 10.219 10.229
2960.981 10.259 10.489 11.039 11.849 12.349 12.179 11.839 11.659 11.799 11.969
2980.271 12.129 12.559 13.059 13.499 13.639 13.299 12.909 12.869 12.619 11.939
2999.561 10.939 9.899 8.849 8.009 7.639 7.319 6.689 6.239 5.989 5.569
3018.850 5.379 5.259 4.949 4.739 4.679 4.479 4.339 4.359 4.489 4.839
3038.140 4.979 5.339 5.979 6.539 7.329 8.149 9.029 10.019 10.859 11.489
3057.430 11.789 11.669 11.369 10.829 10.049 9.139 8.179 7.359 6.529 5.789
3076.720 5.399 5.069 4.649 4.329 4.149 3.859 3.489 3.219 2.849 2.619
3096.009 2.549 2.329 2.209 2.169 1.969 1.869 1.899 1.779 1.669 1.689
3115.299 1.589 1.549 1.799 1.869 1.649 1.599 1.649 1.569 1.479 1.4244
3134.589 1.2888 1.2944 1.3913 1.3866 1.4121 1.4512 1.2938 1.1406 1.1679 1.1092
3153.879 0.9415 0.9727 0.9853 0.7279 0.6495 0.7737 0.749 0.7149 0.6593 0.55245
3173.169 0.49028 0.314 0.318 0.4195 0.3709 0.5174 0.6634 0.6887 0.5839 0.522
3192.458 0.671 0.7178 0.6813 0.55623 0.416 0.47046 0.55887 0.463434 0.362 0.3758
3211.748 0.51037 0.6516 0.51643 0.3591 0.3807 0.357 0.33 0.50814 0.54883 0.28
3231.038 0.245 0.33 0.345 0.229 0.3708 0.4071 0.269 0.4112 0.4256 0.53106
3250.328 0.459453 0.268 0.366 0.48913 0.6117 0.7259 0.6087 0.3896 0.239 0.328
3269.617 0.295 0.215 0.276 0.301 0.4385 0.4046 0.4871 0.5967 0.4476 0.3705
3288.907 0.253 0.272 0.3941 0.4071 0.47441 0.5809 0.5546 0.47209 0.4455 0.344
3308.197 0.231 0.177 0.229 0.304 0.269 0.27 0.359 0.354 0.3907 0.424
3327.487 0.4003 0.3927 0.337 0.3808 0.4206 0.3736 0.3871 0.3792 0.178 0.214
3346.777 0.309 0.315 0.247 0.261 0.3721 0.336 0.227 0.128 0.143 0.102
3366.066 0.285 0.458875 0.319 0.284 0.388 0.48783 0.47388 0.397 0.4082 0.3619
3385.356 0.326 0.293 0.3599 0.347 0.379 0.45046 0.49288 0.54149 0.50664 0.52947
3404.646 0.4331 0.232 0.143 0.326 0.339 0.219 0.142 0.179 0.319 0.207
3423.936 0.168 0.23 0.303 0.323 0.243 0.187 0.153 0.217 0.327 0.3736
3443.225 0.351 0.3924 0.397 0.319 0.28 0.146 0.134 0.337 0.4068 0.4162
3462.515 0.3904 0.31 0.311 0.3709 0.353 0.201 0.207 0.302 0.309 0.3768
3481.805 0.364 0.3732 0.4352 0.5612 0.6455 0.5595 0.3827 0.278 0.249 0.054
3501.095 0.162 0.3966 0.3724 0.3617 0.46979 0.53322 0.309 0.061 0.042 0.228
3520.385 0.354 0.33 0.47745 0.5929 0.48325 0.4435 0.3905 0.331 0.32 0.308
3539.674 0.292 0.24 0.237 0.223 0.163 0.188 0.251 0.27 0.305 0.4082
3558.964 0.47338 0.312 0.279 0.337 0.303 0.4198 0.47093 0.274 0.113 0.08
3578.254 0.106 0.326 0.4194 0.31 0.289 0.264 0.229 0.27 0.289 0.3777
3597.544 0.3779 0.245 0.254 0.354 0.194 0.149 0.312 0.216 0.219 0.272
3616.833 0.253 0.122 0 0.117 0.213 0.233 0.222 0.074 0.019 0.05
3636.123 0.082 0.076 0.018 0.132 0.21 0.231 0.284 0.095 0.122 0.217
3655.413 0.298 0.4194 0.229 0.235 0.3624 0.322 0.205 0.159 0.22 0.272
3674.703 0.223 0.27 0.307 0.244 0.17 0.245 0.45165 0.363 0.247 0.4028
3693.993 0.4209 0.301 0.4057 0.3696 0.263 0.305 0.262 0.205 0.291 0.3976
3713.282 0.4058 0.4143 0.54085 0.654 0.5302 0.4252 0.6263 0.6604 0.50627 0.45311
3732.572 0.3795 0.47499 0.6461 0.5933 0.4102 0.3666 0.323 0.316 0.238 0.19
3751.862 0.165 0.263 0.335 0.152 0.229 0.4474 0.47469 0.3832 0.3708 0.3697
3771.152 0.166 0.138 0.4435 0.3967 0.332 0.268 0.127 0.221 0.3798 0.4341
3790.441 0.3971 0.303 0.336 0.4081 0.48717 0.47694 0.226 0.16 0.331 0.587
3809.731 0.5841 0.26 0.246 0.4243 0.337 0.3591 0.4286 0.47112 0.4434 0.338
3829.021 0.317 0.322 0.47446 0.51015 0.405 0.395 0.4182 0.3853 0.4105 0.4062
3848.311 0.324 0.321 0.45243 0.55117 0.5957 0.5718 0.50887 0.465141 0.271 0.3948
3867.601 0.53546 0.3671 0.327 0.351 0.3953 0.3596 0.3904 0.465497 0.4199 0.4248
3886.890 0.306 0.231 0.128 0.3821 0.727 0.5973 0.3626 0.299 0.4432 0.51457
3906.180 0.337 0.172 0.183 0.273 0.50148 0.47255 0.3602 0.52652 0.51729 0.317
3925.470 0.281 0.47981 0.45887 0.4006 0.5812 0.48208 0.5741 0.55762 0.3671 0.4144
3944.760 0.49282 0.4162 0.356 0.54694 0.6491 0.51177 0.4076 0.5912 0.5834 0.319
3964.049 0.45731 0.7413 0.6509 0.50118 0.50521 0.5766 0.4142 0.26 0.3782 0.4402
3983.339 0.299 0.257 0.3949 0.47934 0.6078 0.5365 0.3858 0.333 0.4343 0.4301
##END=
