##TITLE=2,4-Diacetoxypentane
##JCAMP-DX=4.24
##DATA TYPE=INFRARED SPECTRUM
##ORIGIN=EPA-IR VAPOR PHASE LIBRARY
##OWNER=SRD/NIST
Collection (C) 2018 copyright by the U.S. Secretary of Commerce
on behalf of the United States of America. All rights reserved.
##CAS REGISTRY NO=7371-86-0
##MOLFORM=C 9 H 16 O 4
##$NIST SOURCE=MSDC-IR
##STATE=gas
##XUNITS=1/CM
##YUNITS=ABSORBANCE
##XFACTOR=1.
##YFACTOR=0.001
##DELTAX=1.92898
##FIRSTX=549.8
##LASTX=4000.7
##FIRSTY=0.283
##MAXX=4000.7
##MINX=549.759
##MAXY=0.207478
##MINY=0
##NPOINTS=1790
##XYDATA=(X++(Y..Y))
549.759 0.283 0.378 0.339 0.22 0 0.123 0.382 0.521751 0.57373 0.357
569.049 0.205 0.147 0.055 0.269 0.6609 0.9507 0.8529 0.8119 0.9799 1.0202
588.339 1.1844 1.538 1.918 2.128 2.428 2.988 3.838 4.778 5.488 6.048
607.628 6.468 6.408 6.058 5.658 4.898 4.178 3.668 3.428 3.628 3.838
626.918 4.058 4.158 4.038 4.208 4.328 4.248 4.178 3.988 3.828 3.728
646.208 3.338 3.028 2.888 2.478 1.918 1.708 1.758 1.5006 1.3486 1.2335
665.498 0.9499 0.9028 0.8709 0.782 0.8983 0.8793 0.7371 0.883 0.9481 0.7825
684.787 0.7876 0.8804 0.8577 0.7306 0.57339 0.61222 0.6955 0.63 0.735 0.7692
704.077 0.57235 0.58187 0.6069 0.57085 0.6211 0.6312 0.7608 0.8641 0.6967 0.6186
723.367 0.7622 0.8245 0.6663 0.57741 0.6501 0.5557 0.4898 0.6831 0.7149 0.60017
742.657 0.4946 0.59674 0.7779 0.7454 0.6683 0.7021 0.9837 1.0458 0.8487 0.88
761.947 0.8468 0.862 1.0398 0.9006 0.8736 1.0597 0.9748 0.8587 1.0078 1.1466
781.236 1.2373 1.2199 1.213 1.4361 1.638 1.738 1.768 1.918 2.108 2.278
800.526 2.408 2.458 2.788 2.988 2.808 2.608 2.638 2.728 2.578 2.418
819.816 2.268 2.138 2.168 2.178 2.038 1.938 1.988 2.108 2.188 2.278
839.106 2.308 2.388 2.538 2.748 2.848 2.818 3.008 3.008 3.028 3.318
858.395 3.388 3.438 3.418 3.428 3.458 3.358 3.208 3.138 3.128 3.028
877.685 2.968 2.918 2.728 2.478 2.578 2.798 2.988 3.088 2.988 2.938
896.975 3.048 3.088 3.188 3.568 3.778 3.948 4.418 4.938 5.298 5.618
916.265 5.908 6.298 6.518 6.638 6.848 6.828 6.768 6.808 6.978 7.128
935.555 7.448 8.268 9.238 10.138 11.108 12.368 13.668 14.868 15.818 16.478
954.844 16.848 16.578 15.678 14.698 13.658 12.378 10.928 9.578 8.678 8.088
974.134 7.758 7.618 7.718 7.928 8.158 8.718 9.328 9.778 10.468 11.398
993.424 12.438 13.548 14.838 16.308 17.748 19.238 20.838 22.608 24.308 25.818
1012.714 27.468 28.848 29.858 30.348 30.468 30.608 30.328 29.948 29.678 29.178
1032.003 28.668 28.388 28.258 28.128 27.818 27.288 26.428 25.098 23.488 21.968
1051.293 20.508 18.948 17.738 17.008 16.678 16.328 15.768 16.078 16.518 16.848
1070.583 17.678 18.458 19.188 20.008 20.648 22.088 24.008 25.408 26.828 28.648
1089.873 30.778 32.648 34.008 36.008 38.068 38.598 38.948 39.548 39.538 39.258
1109.163 38.508 37.178 35.978 34.698 33.538 32.528 31.308 30.228 29.488 29.068
1128.452 28.388 27.758 27.418 27.358 26.908 25.878 25.288 24.778 24.398 23.868
1147.742 23.108 22.278 21.048 19.868 18.808 17.818 16.638 15.418 14.468 13.448
1167.032 12.518 11.678 10.978 10.478 10.018 9.948 10.068 10.448 10.878 11.438
1186.322 12.098 12.718 13.588 14.768 16.328 17.968 19.808 22.428 25.398 28.618
1205.611 32.848 38.198 44.278 51.068 59.228 69.138 81.028 94.648 110.348 127.858
1224.901 145.928 163.708 179.758 192.968 202.308 207.308 207.478 202.428 192.868 180.018
1244.191 165.038 149.188 133.438 117.948 103.008 89.398 77.398 66.888 57.908 50.108
1263.481 43.658 38.438 34.238 30.608 27.558 25.108 22.878 21.088 19.638 18.298
1282.771 17.128 16.038 15.068 14.038 13.038 12.068 11.168 10.378 9.698 9.118
1302.060 8.528 8.118 7.658 7.278 6.988 6.658 6.358 6.138 5.968 5.798
1321.350 5.608 5.538 5.548 5.528 5.598 5.728 5.928 6.178 6.548 7.038
1340.640 7.658 8.398 9.248 10.248 11.498 13.008 14.798 16.988 19.628 22.818
1359.930 26.638 31.158 36.118 41.098 45.798 49.808 52.708 54.278 54.218 52.568
1379.219 49.598 45.748 41.398 36.998 32.728 28.628 24.858 21.478 18.508 15.888
1398.509 13.628 11.818 10.418 9.228 8.348 7.738 7.268 6.948 6.688 6.568
1417.799 6.498 6.428 6.508 6.648 6.748 6.938 7.148 7.328 7.518 7.678
1437.089 7.878 8.048 8.248 8.528 8.758 8.938 9.128 9.268 9.368 9.488
1456.378 9.468 9.358 9.238 9.068 8.828 8.468 8.008 7.458 6.918 6.448
1475.668 5.908 5.458 5.108 4.718 4.438 4.218 4.028 3.918 3.788 3.658
1494.958 3.558 3.438 3.408 3.378 3.328 3.398 3.378 3.308 3.228 3.188
1514.248 3.228 3.208 3.128 3.088 3.118 3.118 3.028 2.988 2.998 2.998
1533.538 2.958 2.938 2.948 2.918 2.828 2.798 2.868 2.898 2.898 2.898
1552.827 2.868 2.918 2.928 2.818 2.808 2.828 2.808 2.798 2.768 2.718
1572.117 2.728 2.708 2.658 2.708 2.678 2.608 2.608 2.598 2.538 2.568
1591.407 2.568 2.528 2.478 2.348 2.328 2.318 2.318 2.328 2.218 2.188
1610.697 2.208 2.158 2.148 2.118 2.118 2.128 2.078 1.988 1.948 1.968
1629.986 1.988 2.018 2.118 2.178 2.248 2.318 2.388 2.438 2.488 2.578
1649.276 2.628 2.718 2.788 2.908 2.978 2.988 3.098 3.208 3.288 3.318
1668.566 3.378 3.538 3.688 3.758 3.828 4.008 4.118 4.288 4.538 4.728
1687.856 4.968 5.188 5.398 5.688 6.138 6.618 7.088 7.648 8.308 9.148
1707.146 9.978 10.818 11.668 12.508 13.388 14.198 15.008 15.878 16.898 18.138
1726.435 19.668 21.488 23.768 26.698 30.548 35.358 41.348 49.488 59.838 72.748
1745.725 87.998 105.228 122.628 138.568 150.848 157.598 157.218 149.398 135.718 118.258
1765.015 99.548 81.628 65.898 53.358 43.368 35.938 30.478 26.378 23.298 20.868
1784.305 18.998 17.498 16.268 15.148 14.188 13.318 12.408 11.538 10.738 9.868
1803.594 9.128 8.458 7.728 7.118 6.588 6.118 5.818 5.528 5.148 4.878
1822.884 4.698 4.568 4.338 4.088 3.958 3.828 3.698 3.568 3.448 3.388
1842.174 3.318 3.178 3.058 2.978 2.918 2.888 2.848 2.758 2.618 2.548
1861.464 2.538 2.498 2.478 2.418 2.358 2.368 2.358 2.208 2.168 2.208
1880.754 2.118 2.038 1.988 1.928 1.848 1.838 1.848 1.838 1.788 1.728
1900.043 1.698 1.648 1.598 1.568 1.528 1.5062 1.518 1.5026 1.4908 1.528
1919.333 1.4796 1.4216 1.3867 1.3411 1.3413 1.3212 1.3177 1.3149 1.2984 1.2847
1938.623 1.2885 1.3163 1.2672 1.2215 1.2633 1.2746 1.222 1.1841 1.1524 1.1524
1957.913 1.1711 1.1573 1.1341 1.1322 1.117 1.0818 1.0776 1.065 1.0233 1.043
1977.202 1.0729 1.0849 1.0836 1.06 1.0367 1.0022 0.9996 1.0567 1.0983 1.1194
1996.492 1.1774 1.1907 1.1548 1.1114 1.1401 1.1457 1.15 1.1814 1.192 1.2094
2015.782 1.1692 1.1885 1.1854 1.173 1.1669 1.1905 1.2414 1.2287 1.2294 1.2741
2035.072 1.2661 1.2111 1.2416 1.2562 1.2397 1.2444 1.2889 1.3137 1.3059 1.2729
2054.362 1.2785 1.2808 1.2642 1.26 1.2651 1.235 1.2229 1.2278 1.231 1.25
2073.651 1.2492 1.275 1.2677 1.3214 1.3439 1.3 1.2889 1.2486 1.2539 1.3161
2092.941 1.2821 1.2393 1.2224 1.214 1.219 1.185 1.1384 1.1027 1.0815 1.045
2112.231 0.9961 0.9783 0.9734 0.9377 0.9812 0.9891 0.9277 0.9286 0.9318 0.8833
2131.521 0.9044 0.9824 1.0131 1.0193 0.9713 0.9957 1.0111 0.9988 1.0339 1.0378
2150.810 1.0454 0.9834 0.9859 0.9969 0.9543 1.0401 1.0363 0.9859 0.9783 0.9434
2170.100 0.9791 0.9967 0.9071 0.8871 0.9315 0.9623 0.9522 0.9387 0.9643 0.9369
2189.390 0.8583 0.7551 0.7806 0.8609 0.8876 0.9048 0.8238 0.7602 0.7859 0.8772
2208.680 0.9213 0.841 0.8107 0.8153 0.7994 0.7863 0.7689 0.7932 0.8324 0.856
2227.970 0.9115 0.8989 0.8348 0.8523 0.8312 0.7946 0.8613 0.8998 0.924 0.9151
2247.259 0.9131 0.9886 0.9983 0.9373 0.8746 0.856 0.8136 0.7973 0.8779 0.847
2266.549 0.8394 0.8483 0.8256 0.851 0.8224 0.7614 0.7894 0.8646 0.8315 0.8064
2285.839 0.8198 0.8468 0.8343 0.8203 0.8002 0.8552 0.9131 0.8359 0.8352 0.8689
2305.129 0.8474 0.8299 0.8398 0.8588 0.8118 0.8133 0.8306 0.8777 0.9304 0.8408
2324.418 0.8729 0.8988 0.8215 0.8666 0.8825 0.8473 0.8477 0.8244 0.826 0.817
2343.708 0.7515 0.7174 0.7096 0.7097 0.7287 0.748 0.747 0.7772 0.8027 0.7939
2362.998 0.7398 0.723 0.7994 0.8093 0.7694 0.7597 0.7366 0.79 0.834 0.8398
2382.288 0.8426 0.8212 0.8134 0.7848 0.8078 0.872 0.8956 0.8723 0.8417 0.8608
2401.578 0.8482 0.78 0.7388 0.7285 0.7433 0.7902 0.9051 0.8732 0.8068 0.8018
2420.867 0.7702 0.8222 0.9049 0.8562 0.8202 0.8669 0.8782 0.8659 0.8195 0.8641
2440.157 0.9642 0.9474 0.9141 0.9945 0.9803 0.9051 0.9214 0.9799 0.9978 0.9569
2459.447 1.0273 1.1406 1.169 1.184 1.1975 1.1556 1.0635 1.0271 1.0215 1.0276
2478.737 0.9621 0.9021 0.867 0.8706 0.8969 0.8953 0.8947 0.8359 0.825 0.8237
2498.026 0.7647 0.7426 0.7686 0.7104 0.7443 0.8059 0.833 0.7695 0.6821 0.7323
2517.316 0.7349 0.6935 0.6865 0.6636 0.61545 0.58519 0.6201 0.6793 0.7171 0.6816
2536.606 0.6363 0.6253 0.61624 0.60541 0.58219 0.57141 0.59432 0.59296 0.55764 0.61211
2555.896 0.6605 0.6125 0.58253 0.6428 0.6244 0.60196 0.6428 0.6697 0.6682 0.6484
2575.186 0.6406 0.6544 0.7695 0.8331 0.8364 0.848 0.7976 0.722 0.7146 0.7518
2594.475 0.7905 0.7898 0.6714 0.6272 0.729 0.7581 0.7356 0.7278 0.7471 0.8055
2613.765 0.7388 0.7838 0.8601 0.7703 0.7499 0.7441 0.6951 0.7049 0.7334 0.7476
2633.055 0.6985 0.5848 0.59403 0.6603 0.6489 0.6751 0.7533 0.729 0.7169 0.7421
2652.345 0.7277 0.686 0.7163 0.7282 0.735 0.7731 0.7842 0.8395 0.7746 0.7281
2671.634 0.7642 0.7757 0.7922 0.7681 0.7792 0.8142 0.8428 0.9074 0.9548 0.9457
2690.924 0.9057 0.8877 0.894 0.9231 0.951 1.0237 1.0604 1.1188 1.2016 1.0964
2710.214 0.9179 0.9315 0.9598 0.9364 0.935 0.9525 1.0724 1.0748 1.0084 0.9892
2729.504 0.9787 0.9977 1.0302 1.1434 1.2034 1.17 1.1881 1.2049 1.1128 1.093
2748.794 1.2392 1.2865 1.1896 1.0697 1.0608 1.1348 1.0861 1.0346 1.0279 0.9795
2768.083 0.9758 0.9955 1.023 1.0575 1.0528 1.0338 1.0205 1.0098 0.9812 1.0487
2787.373 1.0894 1.0291 0.9669 0.9683 1.0243 0.9211 0.9895 1.0847 1.0888 1.1961
2806.663 1.2054 1.2186 1.1875 1.207 1.3152 1.2661 1.3292 1.4249 1.384 1.4658
2825.953 1.538 1.648 1.778 1.698 1.588 1.618 1.808 1.958 2.048 2.028
2845.242 2.048 2.208 2.328 2.398 2.518 2.648 2.698 2.718 2.918 3.028
2864.532 2.958 3.028 3.248 3.398 3.508 3.698 3.858 4.058 4.378 4.568
2883.822 4.648 4.768 4.878 4.808 4.658 4.628 4.648 4.668 4.658 4.668
2903.112 4.868 5.028 5.148 5.498 5.858 6.288 6.798 7.348 8.008 8.758
2922.401 9.518 10.218 10.918 11.608 12.338 13.028 13.678 14.338 15.058 15.758
2941.691 16.278 16.748 16.928 16.648 16.268 15.728 15.018 14.328 13.508 12.778
2960.981 12.378 12.128 12.108 12.358 13.008 14.148 15.588 17.278 19.248 21.378
2980.271 23.408 25.308 26.878 27.828 28.048 27.418 25.868 23.608 21.148 18.498
2999.561 15.808 13.288 10.978 9.328 8.018 6.808 5.968 5.328 4.768 4.428
3018.850 4.178 3.888 3.728 3.648 3.488 3.398 3.358 3.318 3.308 3.238
3038.140 3.118 2.928 2.868 2.818 2.788 2.858 2.818 2.758 2.518 2.438
3057.430 2.508 2.508 2.578 2.578 2.478 2.438 2.398 2.318 2.288 2.288
3076.720 2.278 2.268 2.228 2.098 2.028 2.078 2.068 2.078 2.098 2.008
3096.009 1.988 1.968 1.908 1.878 1.778 1.788 1.778 1.638 1.558 1.578
3115.299 1.608 1.528 1.4523 1.4379 1.4476 1.4123 1.2993 1.2951 1.2993 1.2345
3134.589 1.265 1.3242 1.1859 1.0667 1.0831 1.1032 1.134 1.0888 1.0131 1.0929
3153.879 1.1684 1.1143 1.0093 0.9687 1.0773 1.0873 1.1202 1.1367 1.0413 0.9488
3173.169 0.8481 0.9317 0.919 0.8306 0.9359 0.927 0.8739 0.9699 1.0716 1.0187
3192.458 0.9663 0.8882 0.8162 0.8064 0.805 0.811 0.8395 0.8608 0.8017 0.7434
3211.748 0.8207 0.8452 0.6988 0.6427 0.619 0.6593 0.6991 0.671 0.6433 0.61165
3231.038 0.55122 0.4664 0.52308 0.55381 0.56519 0.7196 0.7802 0.6813 0.60201 0.59181
3250.328 0.56633 0.4776 0.357 0.298 0.404 0.4785 0.56399 0.6624 0.519048 0.4511
3269.617 0.55605 0.6376 0.60724 0.53065 0.522181 0.517418 0.521161 0.55434 0.6235 0.56857
3288.907 0.396 0.401 0.53745 0.54159 0.4807 0.4469 0.4707 0.6638 0.7413 0.6614
3308.197 0.6591 0.6754 0.54006 0.4313 0.424 0.256 0.4596 0.6649 0.61153 0.6839
3327.487 0.60337 0.53701 0.59763 0.5526 0.4923 0.55428 0.58475 0.6691 0.6771 0.4593
3346.777 0.346 0.378 0.4858 0.526102 0.5443 0.56097 0.4623 0.4954 0.4459 0.4839
3366.066 0.6033 0.4252 0.368 0.412 0.4371 0.51087 0.5087 0.517793 0.50931 0.384
3385.356 0.398 0.53971 0.59234 0.6473 0.6471 0.6059 0.56472 0.685 0.7224 0.56331
3404.646 0.6256 0.7084 0.61775 0.50839 0.4 0.55555 0.746 0.60126 0.54667 0.5448
3423.936 0.58732 0.6415 0.6559 0.7522 0.7321 0.6716 0.7459 0.7695 0.6498 0.627
3443.225 0.7274 0.9646 1.0235 0.8737 0.8073 0.7804 0.7881 0.8115 0.8603 0.8216
3462.515 0.763 0.7864 0.8832 0.9612 1.0592 1.1814 1.2293 1.2721 1.3456 1.4564
3481.805 1.588 1.708 1.728 1.918 2.058 2.048 2.188 2.138 1.938 1.798
3501.095 1.698 1.688 1.628 1.548 1.3348 1.1897 1.1401 1.0693 1.0086 0.9133
3520.385 0.8595 0.8871 0.9209 0.8706 0.7731 0.7292 0.6925 0.56887 0.61079 0.60743
3539.674 0.4728 0.4984 0.6393 0.61721 0.60272 0.57162 0.50915 0.53306 0.524228 0.4869
3558.964 0.4298 0.343 0.244 0.248 0.37 0.376 0.377 0.55528 0.57302 0.4912
3578.254 0.54515 0.523185 0.55578 0.59689 0.4855 0.383 0.358 0.412 0.4661 0.391
3597.544 0.255 0.32 0.407 0.357 0.275 0.348 0.4917 0.524307 0.4615 0.4367
3616.833 0.55902 0.51103 0.5522 0.58187 0.4285 0.35 0.339 0.4628 0.4714 0.405
3636.123 0.4837 0.51339 0.4763 0.411 0.4742 0.59128 0.4621 0.4389 0.4584 0.4551
3655.413 0.4819 0.4814 0.58625 0.517666 0.31 0.286 0.4859 0.56945 0.4766 0.4943
3674.703 0.5014 0.3 0.31 0.479 0.522792 0.4628 0.374 0.4575 0.4915 0.4696
3693.993 0.406 0.4203 0.4928 0.414 0.306 0.324 0.358 0.284 0.334 0.394
3713.282 0.33 0.398 0.394 0.4195 0.4739 0.369 0.4884 0.55766 0.4366 0.4616
3732.572 0.53775 0.60096 0.57935 0.53102 0.60663 0.53638 0.401 0.4556 0.50964 0.4346
3751.862 0.417 0.525326 0.53827 0.499 0.51582 0.4644 0.4208 0.4538 0.518789 0.653
3771.152 0.7316 0.59328 0.4996 0.6254 0.53464 0.4375 0.53004 0.54278 0.4721 0.51039
3790.441 0.4803 0.334 0.301 0.461 0.498 0.417 0.4683 0.497 0.4624 0.4465
3809.731 0.525482 0.383 0.4546 0.61361 0.7063 0.68 0.4631 0.409 0.4589 0.54448
3829.021 0.61422 0.56383 0.4325 0.57007 0.525578 0.4309 0.4928 0.4495 0.54919 0.4602
3848.311 0.292 0.4331 0.60064 0.58901 0.51541 0.455 0.402 0.4888 0.55218 0.56484
3867.601 0.6442 0.5918 0.4454 0.403 0.342 0.53827 0.6653 0.4869 0.4927 0.52936
3886.890 0.61014 0.6752 0.60604 0.58033 0.51222 0.56924 0.6349 0.636 0.57543 0.59397
3906.180 0.61654 0.53239 0.6497 0.60489 0.6321 0.54718 0.4 0.5059 0.55265 0.5065
3925.470 0.4859 0.415 0.401 0.477 0.467 0.6422 0.7805 0.7561 0.707 0.6456
3944.760 0.6262 0.56275 0.6678 0.7284 0.7358 0.7803 0.60277 0.55392 0.57002 0.51049
3964.049 0.411 0.33 0.4214 0.54863 0.653 0.748 0.7295 0.6357 0.55592 0.51198
3983.339 0.4282 0.53248 0.60122 0.6461 0.6328 0.51036 0.6807 0.7588 0.7181 0.6892
##END=
