##TITLE=1-Heptyn-3-ol
##JCAMP-DX=4.24
##DATA TYPE=INFRARED SPECTRUM
##ORIGIN=NIST Mass Spectrometry Data Center
##OWNER=NIST Standard Reference Data Program
Collection (C) 2018 copyright by the U.S. Secretary of Commerce
on behalf of the United States of America. All rights reserved.
##CAS REGISTRY NO=7383-19-9
##MOLFORM=C 7 H 12 O
##$NIST SOURCE=MSDC-IR
##SPECTROMETER/DATA SYSTEM=HP-GC/MS/IRD
##STATE=gas
##XUNITS=1/CM
##YUNITS=ABSORBANCE
##XFACTOR=1.0
##YFACTOR=0.000001600
##DELTAX=4.0
##FIRSTX=550.0
##LASTX=3846.0
##FIRSTY=0.002080
##MAXX=3846
##MINX=550
##MAXY=0.016
##MINY=0
##NPOINTS=825
##XYDATA=(X++(Y..Y))
550.0 1300 1064 863 755 586 480 388 334 246 244
590.0 227 218 290 368 516 840 1395 2144 3058 4168
630.0 5262 5835 5746 5133 4809 5282 5641 5173 4280 3388
670.0 2525 1690 1062 640 411 295 188 137 149 125
710.0 103 133 140 124 146 180 159 148 181 183
750.0 178 178 164 155 160 168 166 184 196 195
790.0 216 212 178 150 136 151 178 182 204 222
830.0 215 234 269 298 308 322 329 334 354 375
870.0 377 394 450 470 449 459 484 487 488 488
910.0 468 452 455 453 451 460 507 582 657 711
950.0 782 880 991 1084 1149 1240 1344 1456 1620 1830
990.0 2097 2427 2832 3266 3714 4185 4638 5069 5393 5560
1030.0 5598 5439 5061 4561 4000 3429 2896 2487 2182 1908
1070.0 1736 1608 1477 1360 1262 1201 1153 1138 1151 1187
1110.0 1245 1273 1255 1216 1143 1024 899 789 677 597
1150.0 551 534 501 471 471 477 478 507 568 633
1190.0 681 737 820 877 952 1045 1099 1146 1203 1294
1230.0 1367 1454 1669 1969 2321 2653 2788 2772 2709 2483
1270.0 2160 1897 1709 1580 1502 1480 1480 1450 1443 1500
1310.0 1586 1671 1760 1875 1962 2022 2078 2136 2187 2238
1350.0 2266 2273 2281 2301 2307 2288 2274 2227 2129 1973
1390.0 1801 1592 1340 1129 985 872 791 742 707 709
1430.0 748 796 860 929 1013 1102 1179 1256 1279 1228
1470.0 1128 998 849 689 549 430 346 288 242 202
1510.0 172 153 144 141 140 136 122 102 94 97
1550.0 90 78 68 62 52 48 43 54 54 45
1590.0 47 47 50 56 44 34 36 41 33 25
1630.0 24 14 15 15 22 24 11 10 22 18
1670.0 8 15 23 9 0 3 7 2 14 29
1710.0 25 16 24 36 32 26 16 8 10 10
1750.0 22 31 33 25 18 24 30 39 47 37
1790.0 25 29 44 58 47 28 34 41 37 46
1830.0 50 38 39 41 45 50 50 49 56 61
1870.0 59 64 58 47 61 69 65 69 69 68
1910.0 70 59 62 81 77 75 81 76 70 76
1950.0 74 71 73 70 70 82 86 78 80 87
1990.0 94 99 107 113 115 123 111 106 121 129
2030.0 129 134 136 140 141 136 129 131 135 127
2070.0 114 104 107 120 125 120 118 132 149 163
2110.0 179 175 156 139 133 128 128 129 121 120
2150.0 115 115 113 113 116 112 121 130 126 107
2190.0 107 123 125 130 135 123 128 126 118 127
2230.0 119 127 134 126 113 102 112 126 127 128
2270.0 121 118 127 129 119 117 122 124 126 121
2310.0 120 128 125 127 144 157 137 116 121 130
2350.0 127 117 121 136 144 146 139 137 139 132
2390.0 140 143 131 136 143 142 134 136 143 136
2430.0 135 138 146 138 127 133 130 128 121 117
2470.0 120 113 121 121 123 140 135 128 131 125
2510.0 115 117 128 137 136 137 136 134 138 145
2550.0 153 154 154 152 147 149 158 168 161 150
2590.0 152 166 175 178 168 162 174 167 162 164
2630.0 168 190 196 195 206 226 228 234 247 254
2670.0 265 249 245 252 257 273 274 262 244 236
2710.0 233 240 255 255 261 291 295 288 298 310
2750.0 321 317 296 291 294 313 339 345 345 358
2790.0 388 412 435 452 476 529 564 593 640 699
2830.0 767 855 981 1162 1400 1699 2089 2543 3052 3563
2870.0 4062 4504 4786 4843 4747 4595 4374 4143 4095 4232
2910.0 4506 4959 5563 6294 7104 7946 8778 9484 9911 10000
2950.0 9858 9598 9355 9222 8943 8243 7270 6045 4622 3346
2990.0 2455 1877 1481 1220 1050 923 816 743 686 631
3030.0 586 538 508 471 418 380 354 337 334 329
3070.0 323 302 280 280 275 256 257 255 253 262
3110.0 249 234 241 218 195 191 183 193 195 191
3150.0 174 158 160 164 165 144 126 133 145 157
3190.0 158 150 145 146 138 145 151 135 134 127
3230.0 119 142 143 139 145 152 179 207 238 301
3270.0 372 447 542 649 755 907 1171 1536 1821 2064
3310.0 2538 3235 3934 4171 3954 3962 3564 2335 1358 898
3350.0 609 451 379 336 302 251 216 207 177 168
3390.0 169 156 140 137 158 166 145 144 157 132
3430.0 131 144 130 107 108 140 127 128 151 149
3470.0 140 139 137 145 166 175 162 168 172 163
3510.0 156 154 153 129 124 132 138 137 137 132
3550.0 107 113 130 131 140 128 129 134 117 133
3590.0 180 180 167 181 208 220 236 297 388 504
3630.0 673 968 1374 1789 2028 2093 1998 1676 1277 912
3670.0 606 403 292 253 223 180 187 187 180 179
3710.0 141 119 131 140 139 114 113 145 143 135
3750.0 141 111 87 126 159 166 160 162 169 167
3790.0 163 157 150 147 156 172 151 150 184 177
3830.0 156 172 147 122 133
##END=
