##TITLE=3,4-Dimethyl-1-pentene
##JCAMP-DX=4.24
##DATA TYPE=INFRARED SPECTRUM
##ORIGIN=NIST Mass Spectrometry Data Center
##OWNER=NIST Standard Reference Data Program
Collection (C) 2018 copyright by the U.S. Secretary of Commerce
on behalf of the United States of America. All rights reserved.
##CAS REGISTRY NO=7385-78-6
##MOLFORM=C 7 H 14
##$NIST SOURCE=MSDC-IR
##SPECTROMETER/DATA SYSTEM=HP-GC/MS/IRD
##STATE=gas
##XUNITS=1/CM
##YUNITS=ABSORBANCE
##XFACTOR=1.0
##YFACTOR=0.000005400
##DELTAX=4.0
##FIRSTX=550.0
##LASTX=3846.0
##FIRSTY=0.000751
##MAXX=3846
##MINX=550
##MAXY=0.054
##MINY=0
##NPOINTS=825
##XYDATA=(X++(Y..Y))
550.0 139 47 24 37 26 24 18 2 18 28
590.0 11 2 4 12 17 11 22 41 39 41
630.0 48 57 69 87 122 166 224 264 289 324
670.0 344 336 324 278 222 177 122 73 50 41
710.0 34 31 33 32 24 25 33 28 24 38
750.0 44 52 60 48 46 54 56 57 58 53
790.0 43 38 26 19 24 31 28 38 43 60
830.0 83 104 120 136 155 173 185 181 174 169
870.0 174 178 197 254 348 518 781 1121 1503 1819
910.0 2029 2169 2144 1930 1596 1220 876 616 460 364
950.0 310 291 284 293 321 362 427 518 644 779
990.0 893 990 1069 1089 1037 916 785 686 591 515
1030.0 469 422 379 338 302 275 261 253 251 258
1070.0 279 298 306 315 326 326 320 341 363 366
1110.0 366 358 336 310 277 236 201 194 195 184
1150.0 181 185 186 181 175 168 164 158 146 129
1190.0 115 107 93 82 78 78 75 69 65 64
1230.0 73 90 108 122 132 145 161 174 192 201
1270.0 201 205 206 209 212 210 213 218 218 207
1310.0 195 191 187 192 203 216 228 242 270 306
1350.0 358 454 590 752 936 1130 1245 1318 1367 1324
1390.0 1205 1004 826 713 631 589 566 560 567 565
1430.0 564 582 625 695 795 905 1022 1130 1190 1177
1470.0 1110 1011 882 734 584 446 335 252 193 157
1510.0 131 113 99 93 86 76 72 71 70 69
1550.0 71 77 84 89 93 102 107 109 110 112
1590.0 118 123 127 137 157 194 246 319 419 520
1630.0 599 651 679 664 601 512 398 283 206 159
1670.0 131 115 102 91 82 75 69 64 59 57
1710.0 56 53 48 41 34 34 37 36 35 32
1750.0 31 34 36 37 32 29 33 35 33 33
1790.0 36 37 41 55 74 100 131 169 204 223
1830.0 230 228 212 181 139 104 80 59 43 34
1870.0 29 28 24 21 23 25 25 24 28 24
1910.0 22 22 19 15 13 10 9 7 9 14
1950.0 14 14 15 18 23 28 27 28 28 23
1990.0 24 25 22 16 14 14 14 12 11 11
2030.0 10 12 11 7 10 9 6 6 7 8
2070.0 6 4 6 9 9 8 10 8 5 4
2110.0 6 6 2 6 6 0 1 5 4 4
2150.0 5 5 5 10 13 8 7 7 6 6
2190.0 2 4 6 3 2 1 6 6 3 6
2230.0 5 4 5 4 5 9 9 9 10 8
2270.0 9 10 14 19 18 10 8 14 15 12
2310.0 10 9 11 14 14 11 13 12 10 13
2350.0 16 18 22 18 15 17 20 21 18 21
2390.0 25 22 24 23 17 15 20 18 18 26
2430.0 28 25 23 23 22 19 19 21 18 17
2470.0 18 18 17 15 18 17 15 15 14 14
2510.0 16 18 12 12 18 21 23 24 28 29
2550.0 32 33 37 42 45 49 55 57 64 66
2590.0 66 67 69 69 67 62 57 57 58 60
2630.0 62 62 64 71 70 66 65 64 60 61
2670.0 63 56 51 52 57 62 59 62 66 74
2710.0 88 101 114 125 134 143 148 146 146 142
2750.0 137 131 129 134 140 144 141 139 143 150
2790.0 162 178 186 202 224 239 259 278 298 325
2830.0 359 396 451 530 638 797 1023 1331 1749 2279
2870.0 2849 3394 3892 4304 4521 4522 4333 4034 3734 3483
2910.0 3301 3219 3251 3385 3578 3807 4075 4377 4726 5208
2950.0 5929 6872 7950 9109 9930 10000 9571 8785 7534 6055
2990.0 4704 3577 2700 2083 1663 1363 1141 972 831 725
3030.0 645 584 557 547 544 562 610 690 795 927
3070.0 1088 1225 1328 1433 1364 1196 1068 882 672 490
3110.0 373 297 251 225 209 199 197 191 186 189
3150.0 188 182 173 171 171 177 181 166 146 140
3190.0 136 129 121 105 95 92 87 80 74 68
3230.0 66 55 43 40 38 40 43 39 35 29
3270.0 20 24 27 25 33 31 22 27 32 27
3310.0 30 38 35 28 27 29 36 35 30 32
3350.0 30 29 27 25 24 23 27 26 23 28
3390.0 25 18 23 25 18 12 9 11 14 15
3430.0 20 20 23 27 27 29 27 16 13 16
3470.0 20 21 23 19 13 15 17 17 8 1
3510.0 9 14 14 16 8 7 14 11 17 20
3550.0 19 22 19 15 14 6 11 20 23 22
3590.0 23 22 19 24 23 17 21 27 28 25
3630.0 23 15 13 22 16 8 13 24 30 27
3670.0 21 18 22 22 21 15 10 12 5 8
3710.0 23 13 10 23 23 21 23 24 27 30
3750.0 27 31 33 23 13 13 23 25 16 26
3790.0 33 35 35 32 34 28 23 33 34 28
3830.0 31 26 29 42 46
##END=
