##TITLE=trans-5-Methyl-2-hexene
##JCAMP-DX=4.24
##DATA TYPE=INFRARED SPECTRUM
##ORIGIN=NIST Mass Spectrometry Data Center
##OWNER=NIST Standard Reference Data Program
Collection (C) 2018 copyright by the U.S. Secretary of Commerce
on behalf of the United States of America. All rights reserved.
##CAS REGISTRY NO=7385-82-2
##MOLFORM=C 7 H 14
##$NIST SOURCE=MSDC-IR
##SPECTROMETER/DATA SYSTEM=HP-GC/MS/IRD
##STATE=gas
##XUNITS=1/CM
##YUNITS=ABSORBANCE
##XFACTOR=1.0
##YFACTOR=0.000004600
##DELTAX=4.0
##FIRSTX=550.0
##LASTX=3846.0
##FIRSTY=0.000225
##MAXX=3846
##MINX=550
##MAXY=0.046
##MINY=0
##NPOINTS=825
##XYDATA=(X++(Y..Y))
550.0 49 41 27 33 22 14 3 0 25 32
590.0 32 13 16 27 38 43 37 37 28 23
630.0 20 24 35 46 53 45 34 31 19 37
670.0 48 37 30 16 44 62 45 37 36 54
710.0 57 51 43 40 50 47 39 36 55 63
750.0 65 67 64 65 64 63 60 58 68 65
790.0 64 71 69 79 93 96 90 84 90 97
830.0 97 93 97 103 103 98 97 110 131 133
870.0 135 150 159 165 168 180 204 235 270 299
910.0 347 409 462 526 590 659 740 860 1029 1241
950.0 1498 1783 2020 2121 2116 2040 1837 1529 1215 950
990.0 748 598 491 419 375 349 332 322 313 312
1030.0 314 309 319 328 335 339 332 308 271 243
1070.0 223 200 182 170 173 186 197 214 229 239
1110.0 241 228 210 187 172 165 170 176 188 217
1150.0 263 319 376 416 424 411 388 339 268 214
1190.0 184 155 143 145 149 165 183 187 199 208
1230.0 197 187 187 181 167 164 178 209 243 273
1270.0 283 288 292 275 248 231 228 237 246 251
1310.0 263 280 290 306 327 357 393 430 468 501
1350.0 525 572 646 734 826 909 1026 1155 1198 1157
1390.0 1067 946 786 624 502 441 423 434 477 546
1430.0 637 744 866 986 1101 1205 1269 1309 1337 1323
1470.0 1256 1134 985 837 693 568 469 391 330 282
1510.0 245 219 198 183 166 148 136 126 114 106
1550.0 105 104 98 90 93 99 92 81 80 89
1590.0 94 88 83 84 85 82 78 78 82 85
1630.0 82 81 78 75 83 95 95 102 112 111
1670.0 114 119 116 113 117 123 128 131 142 148
1710.0 144 127 119 107 90 80 75 74 64 53
1750.0 52 55 57 62 61 67 72 70 72 76
1790.0 79 75 71 61 56 56 54 51 53 53
1830.0 53 54 49 43 41 38 32 29 30 30
1870.0 29 29 28 23 25 27 26 26 23 20
1910.0 22 24 24 24 27 23 18 18 19 16
1950.0 15 16 15 12 15 22 24 22 24 26
1990.0 29 30 35 38 31 29 27 19 18 20
2030.0 18 12 6 6 7 6 9 4 1 2
2070.0 6 8 10 10 6 4 6 8 4 2
2110.0 3 2 4 8 9 9 14 11 8 7
2150.0 9 9 6 9 12 17 15 8 10 14
2190.0 13 12 9 10 12 8 8 9 12 16
2230.0 9 1 5 3 6 13 11 8 9 12
2270.0 11 10 11 13 10 7 8 11 16 16
2310.0 11 14 16 19 20 20 21 22 25 22
2350.0 22 28 32 32 37 41 42 43 45 45
2390.0 39 33 36 38 38 41 40 35 34 34
2430.0 34 37 38 37 42 40 38 39 39 36
2470.0 39 42 42 42 48 48 48 51 44 40
2510.0 40 41 47 48 53 55 49 52 62 60
2550.0 57 56 60 64 64 68 72 71 73 80
2590.0 84 85 89 90 91 92 91 93 101 103
2630.0 100 104 106 113 113 107 108 105 105 106
2670.0 106 105 99 107 117 123 121 122 136 152
2710.0 162 170 183 200 226 256 285 304 307 301
2750.0 288 271 251 244 251 254 255 266 279 290
2790.0 309 327 346 381 422 470 532 613 713 832
2830.0 972 1128 1291 1450 1602 1769 1992 2305 2709 3163
2870.0 3625 3987 4248 4517 4787 5015 5266 5567 5841 6051
2910.0 6220 6358 6501 6664 6783 6839 6879 6926 6995 7205
2950.0 7704 8513 9452 10000 9892 9330 8305 6877 5305 3907
2990.0 2957 2421 2137 1991 1927 1918 1911 1878 1834 1756
3030.0 1636 1495 1341 1176 1024 899 789 704 647 591
3070.0 546 514 477 452 437 423 402 380 353 333
3110.0 320 302 287 278 265 253 244 233 225 215
3150.0 210 204 197 200 195 186 185 191 192 181
3190.0 176 173 163 146 138 127 126 120 100 87
3230.0 85 80 68 69 75 78 77 68 58 55
3270.0 56 57 60 67 67 61 60 56 45 39
3310.0 46 51 53 54 47 47 50 49 44 47
3350.0 52 41 29 20 30 44 43 43 46 48
3390.0 42 34 35 36 36 33 28 24 26 29
3430.0 31 32 31 26 22 29 27 17 15 20
3470.0 20 22 22 20 20 24 31 31 23 18
3510.0 27 27 15 18 19 12 23 32 31 25
3550.0 21 19 21 22 17 9 0 8 24 21
3590.0 15 8 10 25 28 21 12 12 25 24
3630.0 11 16 17 21 13 7 12 11 21 19
3670.0 11 12 23 25 28 25 20 22 27 27
3710.0 27 23 14 13 20 21 22 24 23 23
3750.0 20 24 30 28 26 36 38 27 22 29
3790.0 42 41 34 28 26 35 42 40 37 43
3830.0 52 43 45 46 38
##END=
