##TITLE=4-Toluoylacetonitrile
##JCAMP-DX=4.24
##DATA TYPE=INFRARED SPECTRUM
##ORIGIN=EPA-IR VAPOR PHASE LIBRARY
##OWNER=SRD/NIST
Collection (C) 2018 copyright by the U.S. Secretary of Commerce
on behalf of the United States of America. All rights reserved.
##CAS REGISTRY NO=7391-28-8
##MOLFORM=C 10 H 9 N O
##$NIST SOURCE=MSDC-IR
##STATE=gas
##XUNITS=1/CM
##YUNITS=ABSORBANCE
##XFACTOR=1.
##YFACTOR=0.001
##DELTAX=1.92898
##FIRSTX=549.8
##LASTX=4000.7
##FIRSTY=6.93
##MAXX=4000.7
##MINX=549.759
##MAXY=0.09349
##MINY=0
##NPOINTS=1790
##XYDATA=(X++(Y..Y))
549.759 6.93 8.01 8.94 9.65 9.75 9.92 10.08 9.26 8.7 8.33
569.049 7.5 6.76 6.45 5.66 5.1 4.99 4.58 4.2 3.97 4.27
588.339 3.9 3.14 3.05 3.57 3.6 3.11 3.44 3.67 3.31 2.99
607.628 3.3 3.42 2.83 2.65 2.93 2.92 2.71 2.82 3.32 3.32
626.918 3.53 3.76 3.49 3.97 3.95 3.62 3.9 3.68 3.46 3.48
646.208 3.44 2.82 2.81 3.2 3.22 2.87 2.33 2.28 2.13 2.3
665.498 2.8 2.72 2.84 2.99 2.95 3.13 3.41 3.81 4.25 4.72
684.787 5.01 5.16 5.13 5.12 5.19 5.37 4.87 4.15 3.75 3.91
704.077 4.09 3.6 3.67 4.27 4.51 4.85 4.94 5.12 5.96 6.33
723.367 6.63 7.07 6.91 7.21 7.64 7.79 7.63 7.62 7.72 7.07
742.657 6.89 6.53 6.5 6.24 5.32 5.07 4.89 5.22 5.33 5.18
761.947 5.63 5.79 5.9 5.98 6.28 6.45 6.08 5.56 5.29 5.46
781.236 5.87 6.3 6.25 6.43 6.76 7.94 9.08 9.61 10.53 11.01
800.526 11.95 13.31 13.76 14.39 15.24 15.52 15.6 15.49 15.25 14.81
819.816 13.6 11.89 10.78 9.91 9.22 8.48 7.72 7.52 7.23 6.2
839.106 5.25 5.01 4.46 4.46 4.11 3.32 3.06 2.69 2.6 2.56
858.395 2.43 2.69 2.26 1.8712 2.36 2.62 2.29 2.23 2.53 2.66
877.685 2.76 2.51 2.52 2.82 2.69 2.59 2.7 2.7 3.03 3.69
896.975 4.26 4.57 4.86 5.08 5.82 6.84 7.55 8.16 8.96 9.83
916.265 10.43 10.49 10.42 10.66 10.12 9.32 9.09 8.35 7.72 6.98
935.555 5.98 5.4 4.81 4.63 4.33 4.18 4.29 4.47 4.28 3.85
954.844 3.65 3.8 3.85 3.59 3.46 3.21 3.13 3.35 3.55 3.62
974.134 3.68 3.64 3.88 4.41 4.53 4.18 4.12 4.47 5.35 6.19
993.424 6.83 7.83 9.63 11.26 13.23 16.06 18.93 21.46 22.66 22.61
1012.714 22 21.38 20.15 18.23 16.36 14.54 13.44 12.68 12.18 12.14
1032.003 11.42 11.3 11.03 9.61 8.05 7.38 6.74 5.78 5.27 5.09
1051.293 4.93 4.37 3.8 4.3 4.82 4.82 4.44 3.86 3.54 3.37
1070.583 3.63 3.72 3.55 2.87 3.05 3.43 2.61 2.31 2.99 4.24
1089.873 3.75 3.07 3.51 2.9 3.24 3.31 2.72 3.02 4.34 4.14
1109.163 2.57 2.64 3.59 4.02 3.96 3.75 4.18 5.03 5.11 4.47
1128.452 4.05 4.47 4.03 3.25 2.91 3.46 3.42 2.71 2.94 3.25
1147.742 3.62 3.37 3.57 4.5 4.96 5.89 7.82 9.59 10.93 12.96
1167.032 16.19 19.77 22.28 25.25 27.57 30.15 33.36 33.39 31.78 30.12
1186.322 27.56 23.67 20.56 17.97 15.45 14.2 13.14 11.72 11.26 11.59
1205.611 12.54 13.95 15.1 16.17 15.55 14.07 13.44 13.6 13.36 13.21
1224.901 13.42 13.34 12.79 12.69 12.68 11.92 11.87 11.31 11.6 12.92
1244.191 14.12 16 17.75 19.65 22.43 25.98 30.5 35.39 40.83 46.75
1263.481 53.12 58.19 61.06 61.8 59.79 56.07 51.09 44.53 37.39 31.36
1282.771 26.23 21.81 18.27 16.06 14.87 13.74 12.92 12.56 12.56 12.54
1302.060 12.42 12.55 13.06 13.79 14.55 15.56 16.66 17.44 18.01 18.47
1321.350 18.85 18.84 17.94 16.77 15.4 13.65 11.93 10.28 8.87 7.83
1340.640 6.95 6.09 5.41 4.95 4.6 4.39 4.14 3.96 3.9 3.84
1359.930 3.7 3.41 3.32 3.42 3.42 3.46 3.58 3.63 3.66 3.59
1379.219 3.76 4.2 4.58 4.76 4.98 5.31 5.63 6.03 6.5 7.14
1398.509 8.02 8.95 9.83 10.82 11.81 12.65 13.63 14.78 15.64 16.08
1417.799 16.21 16.18 15.7 14.71 13.49 12.24 11.02 9.64 8.37 7.53
1437.089 6.78 6.09 5.76 5.56 5.35 5.23 4.98 4.92 4.97 4.79
1456.378 4.65 4.56 4.52 4.58 4.53 4.37 4.27 4.31 4.3 4.23
1475.668 4.15 3.94 3.88 3.92 3.86 3.87 3.87 3.88 3.82 3.8
1494.958 3.85 3.88 3.97 3.94 4.04 4.4 4.48 4.19 4.03 4.04
1514.248 4.06 4.03 4.02 4.13 3.89 3.55 3.42 3.56 3.78 3.76
1533.538 3.85 3.84 3.63 3.61 3.73 3.88 3.96 4.11 4.3 4.27
1552.827 4.42 4.75 4.91 5.36 5.82 6.02 6.34 6.78 7.22 7.61
1572.117 7.91 8.13 8.43 8.83 9.11 9.42 9.95 10.65 11.69 12.95
1591.407 14.56 16.59 18.87 21.16 23.89 26.73 29.19 31.37 32.97 33.41
1610.697 32.98 32.25 30.62 28.12 25.31 22.23 19.21 16.61 14.3 12.4
1629.986 10.93 9.44 8.41 7.47 6.49 6.15 5.71 5.34 5.16 4.94
1649.276 4.79 4.67 4.55 4.45 4.56 4.86 5.1 5.21 5.45 5.81
1668.566 6.18 6.9 7.66 8.24 8.86 9.53 10.61 11.95 13.65 15.78
1687.856 18.37 21.77 26.39 31.94 38.61 46.31 54.66 64 72.64 80.34
1707.146 86.28 90.23 92.68 93.49 91.26 85.25 76.67 67.47 58.3 49.36
1726.435 40.71 33.07 26.65 21.5 17.5 14.54 12.33 10.67 9.24 8.13
1745.725 7.24 6.58 6.19 5.66 5.4 5.17 4.8 4.52 4.3 4.05
1765.015 3.82 3.61 3.35 3.07 2.86 2.77 2.71 2.72 2.71 2.73
1784.305 2.69 2.64 2.63 2.69 2.96 3.07 2.98 2.95 2.89 2.92
1803.594 3.03 2.91 2.71 2.58 2.51 2.48 2.41 2.23 2.0203 1.9343
1822.884 1.8292 1.9014 2.0392 1.7941 1.6591 1.7472 1.7175 1.6287 1.5372 1.5626
1842.174 1.7598 1.8314 1.6955 1.5836 1.455 1.3666 1.4264 1.3266 1.2513 1.3407
1861.464 1.4138 1.5728 1.5959 1.4496 1.4073 1.5264 1.614 1.704 1.7672 1.7465
1880.754 1.6583 1.696 1.8542 1.8132 1.8378 2.0052 2.23 2.33 2.24 2.29
1900.043 2.46 2.39 2.28 2.42 2.44 2.47 2.59 2.56 2.4 2.29
1919.333 2.22 2.22 2.19 2.0896 2.0383 1.9694 2.0328 2.0974 1.9522 1.779
1938.623 1.9109 1.9977 1.8223 1.931 1.8775 1.7682 1.8146 1.6238 1.5506 1.6052
1957.913 1.5275 1.5023 1.477 1.3742 1.2693 1.2944 1.12337 1.0341 1.21678 1.2682
1977.202 1.2715 1.2277 1.3715 1.45 1.3636 1.3254 1.41 1.3772 1.2801 1.2673
1996.492 1.2562 1.21581 1.3198 1.2233 1.0605 1.19951 1.26 1.3186 1.3024 1.15889
2015.782 1.17564 1.0673 0.937 1.12568 1.16515 1.3011 1.3705 1.084 1.012 1.1769
2035.072 1.2695 1.3024 1.3697 1.2931 1.0798 1.0851 1.15467 1.18384 1.018 0.838
2054.362 0.916 1.0208 1.0435 0.984 1.006 1.12829 1.21894 1.016 0.882 1.0318
2073.651 1.14166 1.0602 0.943 1.0347 1.12638 1.11463 1.16832 1.17575 1.13656 1.11669
2092.941 1.11641 1.0468 1.0843 1.19519 1.12148 1.0528 1.14248 1.2718 1.12297 0.938
2112.231 1.005 1.1097 1.0885 0.958 1.0581 1.20494 1.2346 1.17184 1.0376 0.945
2131.521 0.764 0.826 0.953 0.801 0.842 0.924 0.999 1.0548 1.013 1.0478
2150.810 1.0777 1.19146 1.2353 1.2478 1.13354 0.961 1.0727 1.11578 1.11125 1.2591
2170.100 1.12183 0.868 0.967 1.0465 1.0542 1.063 1.21848 1.3983 1.3549 1.3735
2189.390 1.3589 1.3031 1.2774 1.17081 1.0329 1.2983 1.6179 1.7862 1.9604 1.9573
2208.680 1.9492 1.7992 1.7129 1.6828 1.4668 1.4728 1.5896 1.6239 1.4687 1.3471
2227.970 1.2836 1.0852 1.11566 1.20179 1.19776 1.3869 1.3853 1.4004 1.638 1.7318
2247.259 2.0761 2.39 2.43 2.41 2.35 2.47 2.39 2.33 2.28 2.0936
2266.549 2.0099 1.7835 1.6652 1.4728 1.354 1.4743 1.3791 1.3907 1.536 1.3771
2285.839 1.0714 1.0517 1.1377 1.21818 1.2467 1.2536 1.3978 1.2943 1.13233 1.14992
2305.129 1.21033 1.20073 1.15991 1.3194 1.3389 1.2977 1.3833 1.3947 1.4573 1.5179
2324.418 1.5168 1.3135 1.3585 1.3947 1.11921 1.14802 1.3894 1.4125 1.3503 1.3711
2343.708 1.482 1.5269 1.428 1.4142 1.2456 1.2388 1.5104 1.5907 1.4979 1.4465
2362.998 1.4464 1.2991 1.1018 1.16356 1.17014 1.13797 1.12091 0.945 0.928 1.0701
2382.288 1.18561 1.3236 1.5876 1.4251 1.003 0.998 1.2829 1.4436 1.3868 1.13691
2401.578 1.0602 1.0567 1.17366 1.5486 1.5755 1.5435 1.6003 1.4703 1.4473 1.4264
2420.867 1.19424 1.0676 1.18925 1.5107 1.6464 1.4903 1.4504 1.5576 1.5919 1.5076
2440.157 1.3865 1.4113 1.2507 1.0618 1.2997 1.4678 1.3871 1.1924 1.18416 1.17494
2459.447 1.2085 1.3944 1.3692 1.2935 1.3346 1.2728 1.15956 1.1072 0.989 0.957
2478.737 1.0453 1.3113 1.4194 1.0355 1.0926 1.3167 1.2394 1.2759 1.2149 1.19689
2498.026 1.21348 1.17585 1.11019 1.14936 1.21298 1.4493 1.5754 1.3222 1.2731 1.3278
2517.316 1.19842 1.3635 1.564 1.3202 1.2867 1.4609 1.7542 1.6969 1.3515 1.3208
2536.606 1.3519 1.4097 1.3221 1.3972 1.426 1.5007 1.62 1.4161 1.4701 1.4724
2555.896 1.4115 1.4863 1.4088 1.4147 1.5786 1.6649 1.3964 1.397 1.6868 1.5798
2575.186 1.553 1.5535 1.6593 1.8398 1.7981 1.7137 1.4617 1.5574 1.8883 1.8278
2594.475 1.4639 1.3656 1.6112 1.6023 1.3355 1.2541 1.5816 1.5339 1.3446 1.4842
2613.765 1.2571 0.92 1.0377 1.0745 1.2224 1.4419 1.4443 1.5984 1.5268 1.561
2633.055 1.5069 1.3649 1.2754 1.20389 1.328 1.4492 1.425 1.4179 1.18558 0.958
2652.345 1.17421 1.3911 1.3396 1.21137 1.3147 1.19555 0.959 0.876 1.0333 1.17886
2671.634 1.16915 1.18597 1.0859 1.3767 1.778 1.7 1.2404 1.20971 1.3289 1.2333
2690.924 1.3292 1.21923 1.032 1.0368 1.035 1.11414 1.2247 1.3263 1.4152 1.5004
2710.214 1.14382 0.902 1.1403 0.929 1.14162 1.5812 1.5638 1.4661 1.3347 1.3127
2729.504 1.3358 1.4065 1.4741 1.6135 1.6062 1.5547 1.6614 1.6788 1.6631 1.5505
2748.794 1.6797 1.6406 1.3811 1.4153 1.3652 1.4779 1.5401 1.2845 1.21797 1.0502
2768.083 1.059 1.1073 0.998 0.971 1.1039 1.2768 1.4116 1.5838 1.5145 1.0957
2787.373 1.16448 1.4406 1.4893 1.4652 1.2638 1.288 1.20186 1.2301 1.5275 1.6604
2806.663 1.8162 1.9683 1.6838 1.577 1.5958 1.505 1.6609 1.9148 2.0748 1.951
2825.953 1.7559 1.7575 1.8831 1.9627 1.8461 1.8677 2.13 2.16 2.1003 2.0404
2845.242 2.31 2.52 2.6 2.77 2.86 2.96 3.15 3.45 3.68 3.71
2864.532 3.77 4.34 4.29 4.35 5.33 5.65 5.36 5.52 5.39 5.09
2883.822 5.15 5.09 5.29 5.07 4.78 5.09 5.23 5.09 4.95 4.74
2903.112 4.83 5.17 5.13 4.94 4.69 4.62 5.22 5.92 6.48 7.14
2922.401 7.86 8.4 9.28 10.12 10.82 11.44 11.6 11.75 11.82 11.5
2941.691 10.46 9.69 8.96 8 7.13 6.24 5.66 5.11 4.9 4.72
2960.981 4.45 4.32 4.3 4.37 4.33 4.39 4.44 4.52 4.5 4.19
2980.271 4.21 4.2 3.88 4.3 4.82 4.97 5.45 5.8 6.09 6.47
2999.561 6.69 6.67 6.6 6.6 6.66 6.74 6.69 6.81 6.74 6.89
3018.850 7.04 6.88 7.27 7.95 8.91 9.79 10.76 11.7 12.12 12.42
3038.140 12.56 12.69 12.62 12.19 11.51 10.86 10.16 9.33 8.95 8.85
3057.430 8.41 7.93 7.75 7.41 7.02 7.09 7 6.76 6.47 6.33
3076.720 6.44 6.3 6.26 6.19 6.06 5.97 5.9 5.94 5.93 5.76
3096.009 5.57 5.13 4.51 4.19 3.93 3.45 3.11 3.08 3.02 2.9
3115.299 2.8 2.95 2.79 2.46 2.71 2.98 2.67 2.22 2.0776 1.8725
3134.589 1.8904 2.0236 1.8797 1.9304 1.929 1.869 2.0867 1.8064 1.4008 1.5399
3153.879 1.6969 1.5749 1.4602 1.2495 1.12013 1.20505 1.2293 0.967 1.15652 1.5099
3173.169 1.2399 1.16943 1.2591 1.3099 1.2802 1.0862 1.013 1.2936 1.4154 1.03
3192.458 1.0218 1.5011 1.9111 1.8625 1.6106 1.3475 1.2424 1.461 1.3951 1.18203
3211.748 1.2419 1.4431 1.503 1.4018 1.0751 0.886 1.17938 1.4959 1.4552 1.0599
3231.038 0.828 0.973 0.838 1.019 1.361 1.15763 0.8 0.795 0.976 1.13021
3250.328 1.1046 1.0322 0.983 1.21438 1.3835 1.0544 0.933 0.794 0.827 0.889
3269.617 0.8 0.981 0.831 0.641 0.899 0.807 1.15919 1.4282 0.765 0.465
3288.907 1.15512 1.4409 1.1076 1.0485 1.20095 1.20497 1.0554 0.868 0.852 1.0222
3308.197 1.3824 1.365 0.817 0.689 0.896 1.21164 1.2334 1.2203 0.984 0.686
3327.487 0.73 0.649 0.616 0.906 0.942 1.11264 1.005 0.906 0.934 0.851
3346.777 0.873 0.742 0.842 0.774 0.527 0.406 0.881 1.14966 1.0876 1.247
3366.066 1.2689 1.14816 1.5571 1.8182 1.592 1.5253 1.3633 1.4054 1.4101 1.4501
3385.356 1.8959 1.9542 1.8011 1.5095 1.8784 2.57 2.15 1.9133 2.41 2.19
3404.646 2.34 2.42 1.8786 2.0308 2.34 1.9685 1.8777 2.115 1.7107 1.5241
3423.936 1.514 1.4007 1.349 1.4105 1.2751 1.0794 1.2639 1.6196 1.5005 1.0756
3443.225 1.3952 1.7713 1.4175 1.12806 0.989 0.906 0.853 1.1502 1.4661 1.1042
3462.515 0.819 0.961 0.68 0.515 0.827 0.861 1.18647 1.16717 0.629 0.697
3481.805 0.596 0.633 0.527 0.357 0.623 0.737 0.9 0.716 0.32 0.47
3501.095 0.809 0.853 0.688 0.628 0.771 0.432 0 0.134 0.11 0.279
3520.385 0.721 0.895 0.97 0.985 1.003 0.915 0.859 0.892 0.838 0.998
3539.674 1.19591 1.3786 1.3509 1.2083 1.3756 1.2324 1.0692 1.0345 0.799 0.903
3558.964 1.225 1.227 0.912 0.771 1.14031 1.1079 0.853 0.857 1.0926 1.3884
3578.254 1.2731 1.0906 0.9 0.302 0.17 0.418 0.485 0.6 0.466 0.443
3597.544 0.474 0.352 0.574 0.776 0.527 0.457 0.939 1.15452 1.2631 1.3195
3616.833 0.758 0.888 1.0393 0.193 0.192 0.816 0.806 0.809 0.796 0.943
3636.123 1.3014 1.4911 1.243 1.0564 1.0459 0.844 1.19381 1.21467 0.846 0.93
3655.413 1.2352 1.4553 1.515 1.4157 0.96 0.764 0.83 0.91 0.772 0.815
3674.703 1.15264 1.15054 1.0652 1.15695 1.13687 1.12548 1.34 1.11636 0.923 0.839
3693.993 0.764 0.841 1.007 1.16365 0.936 1.0632 0.94 0.722 1.0379 1.0546
3713.282 0.825 0.994 1.4109 1.5274 1.2541 1.007 0.698 0.95 1.5638 1.18258
3732.572 0.654 0.896 0.934 0.735 1.14038 1.351 1.16426 0.989 0.727 0.691
3751.862 0.791 0.685 0.813 1.16164 1.4028 1.2345 1.0328 1.0916 0.7 0.717
3771.152 0.908 0.599 0.646 1.0509 1.2586 1.2491 0.847 0.739 1.079 1.1087
3790.441 0.873 0.344 0.173 0.574 0.927 0.85 0.864 0.843 0.742 1.0593
3809.731 1.1003 0.69 0.591 0.71 0.836 1.0437 1.0877 0.816 0.842 1.0523
3829.021 1.2413 1.16879 0.759 0.403 0.289 0.631 0.863 0.785 0.784 0.947
3848.311 1.0581 1.1218 1.3476 1.17696 1.0479 1.2212 1.0351 0.956 0.712 0.5
3867.601 0.784 0.92 1.0209 1.4423 1.16791 0.815 1.21115 1.2419 1.0954 1.19481
3886.890 1.18535 1.0493 0.972 0.962 1.0857 1.1714 1.3243 1.3781 1.4706 1.3275
3906.180 1.016 1.1398 0.885 0.529 0.707 0.946 0.997 0.959 1.0375 1.2983
3925.470 1.3137 1.18657 1.4787 1.4076 1.3798 1.2536 0.716 0.798 0.744 0.708
3944.760 0.82 0.656 0.656 0.951 0.932 1.001 1.0667 0.739 0.963 1.431
3964.049 1.0862 0.84 1.21844 1.045 0.762 0.851 0.931 1.1329 1.0707 0.934
3983.339 1.1035 1.2205 0.928 0.957 1.18382 0.842 0.582 0.913 1.2748 1.15801
##END=
