##TITLE=2,2',6,6'-Tetrachlorodibenzyl ether
##JCAMP-DX=4.24
##DATA TYPE=INFRARED SPECTRUM
##ORIGIN=EPA-IR VAPOR PHASE LIBRARY
##OWNER=SRD/NIST
Collection (C) 2018 copyright by the U.S. Secretary of Commerce
on behalf of the United States of America. All rights reserved.
##CAS REGISTRY NO=73927-56-7
##MOLFORM=C 14 H 10 Cl 4 O
##$NIST SOURCE=MSDC-IR
##STATE=gas
##XUNITS=1/CM
##YUNITS=ABSORBANCE
##XFACTOR=1.
##YFACTOR=0.001
##DELTAX=1.92934
##FIRSTX=549.9
##LASTX=3999.5
##FIRSTY=2.0376
##MAXX=3999.53
##MINX=549.863
##MAXY=0.12579
##MINY=0
##NPOINTS=1789
##XYDATA=(X++(Y..Y))
549.863 2.0376 1.9903 1.9583 1.9172 1.906 1.9403 1.9485 1.9803 1.8877 1.9185
569.156 2.0365 2.1298 1.9997 1.9143 1.9696 1.8906 1.9939 2.0465 1.8956 1.759
588.450 1.7981 1.8626 1.9288 1.9147 1.8684 1.8936 1.8807 1.9229 2.0206 2.0194
607.743 2.018 2.1161 2.3007 2.51 2.7 2.82 2.84 2.84 2.79 2.79
627.037 2.77 2.64 2.61 2.67 2.87 3.13 3.26 3.35 3.35 3.25
646.330 3.12 2.93 2.77 2.53 2.38 2.2787 2.235 2.3009 2.3023 2.2889
665.624 2.2106 2.068 2.1821 2.36 2.3563 2.38 2.41 2.47 2.51 2.58
684.917 2.76 2.93 3.07 3.2 3.34 3.48 3.66 3.9 4.19 4.55
704.210 5.03 5.63 6.47 7.71 9.13 10.55 11.81 12.57 12.66 12.65
723.504 12.97 13.83 15.48 17.79 20.38 22.48 23.31 22.69 21.16 19.46
742.797 18.04 17.29 17.32 17.93 19.03 20.82 23.41 27.1 32.24 39.03
762.091 48.01 59.34 72.9 88.61 105.21 119.27 125.56 119.12 99.5 74.13
781.384 51.46 35.07 24.84 18.73 15.01 12.53 10.88 9.78 8.95 8.34
800.678 7.88 7.52 7.26 7.1 7.08 7.19 7.43 7.86 8.45 9.08
819.971 9.64 10.14 10.33 10.13 9.64 8.98 8.37 7.87 7.57 7.44
839.264 7.46 7.5 7.38 7.11 6.65 5.98 5.28 4.63 4.09 3.71
858.558 3.4 3.21 3.1 2.95 2.79 2.75 2.72 2.69 2.68 2.62
877.851 2.6 2.62 2.65 2.66 2.59 2.59 2.65 2.72 2.81 2.86
897.145 2.98 3.18 3.4 3.62 3.86 4.19 4.51 4.88 5.37 5.98
916.438 6.65 7.45 8.46 9.62 10.88 12.09 13.04 13.43 13.08 12.11
935.732 10.77 9.37 8.18 7.33 6.79 6.5 6.43 6.47 6.63 6.93
955.025 7.25 7.6 8.04 8.45 8.76 9.04 9.29 9.46 9.61 9.71
974.318 9.79 10.02 10.35 10.74 11.26 11.83 12.49 13.25 14.17 15.16
993.612 16.16 17.24 18.15 18.81 19.14 19.07 18.68 17.94 16.89 15.7
1012.905 14.49 13.37 12.39 11.6 10.99 10.49 10.13 9.92 9.82 9.8
1032.199 9.89 10.11 10.4 10.8 11.36 12.06 12.88 13.99 15.37 17
1051.492 19 21.44 24.55 28.53 33.3 38.4 42.67 45.05 45.06 43.3
1070.786 41.46 41.28 43.75 48.09 52.53 55.7 56.82 55.91 53.88 52.23
1090.079 52.46 56.17 64.95 79.36 97.59 115.05 125.79 125.41 113.68 93.96
1109.372 71.93 53.2 40.06 31.5 25.72 21.57 18.44 16.07 14.28 12.86
1128.666 11.76 10.92 10.27 9.82 9.38 9.03 8.85 8.72 8.69 8.86
1147.959 9.14 9.43 9.61 9.77 10.04 10.38 10.79 11.17 11.36 11.34
1167.253 11.13 10.86 10.68 10.54 10.51 10.76 11.26 11.97 13.05 14.68
1186.546 16.91 19.84 23.68 28.2 32.94 37.4 41.04 42.99 42.54 39.69
1205.840 34.55 28.08 21.82 16.77 13.12 10.61 9.06 8.28 8 8.03
1225.133 8.33 8.72 9.04 9.47 9.73 9.74 9.84 9.95 9.8 9.44
1244.426 8.86 8.14 7.45 6.72 6 5.42 5.01 4.68 4.33 4.05
1263.720 3.81 3.68 3.62 3.62 3.68 3.62 3.61 3.73 3.88 4.07
1283.013 4.27 4.42 4.6 4.78 4.74 4.65 4.56 4.39 4.2 4.07
1302.307 4 3.95 3.91 3.88 3.82 3.74 3.69 3.67 3.6 3.59
1321.600 3.67 3.68 3.72 3.81 3.92 4.1 4.34 4.64 4.97 5.43
1340.894 6.12 7.02 8.17 9.76 11.89 14.45 17.06 19.15 20.58 21.37
1360.187 21.48 20.9 19.62 17.73 15.43 13.13 11.22 9.82 8.97 8.54
1379.480 8.37 8.46 8.81 9.3 9.87 10.46 10.81 10.84 10.64 10.34
1398.774 10.12 10.06 10.18 10.38 10.61 10.87 11.22 11.71 12.46 13.53
1418.067 15.02 17.08 19.84 23.65 28.91 35.88 44.86 55.36 65.95 74.27
1437.361 77.98 75.52 67.36 55.51 42.74 31.78 23.82 18.72 15.62 13.85
1456.654 12.85 12.33 12.13 12.1 12.18 12.3 12.32 12.21 11.96 11.51
1475.948 10.96 10.34 9.77 9.25 8.8 8.41 8.07 7.84 7.63 7.33
1495.241 7.02 6.68 6.24 5.75 5.32 4.9 4.52 4.23 3.96 3.72
1514.534 3.56 3.44 3.35 3.28 3.29 3.34 3.4 3.53 3.73 3.95
1533.828 4.27 4.72 5.25 5.91 6.79 7.88 9.19 10.86 12.92 15.57
1553.121 19.04 23.59 29.06 35.64 42.54 48.23 51.82 52.52 50.38 46.26
1572.415 41.83 38.32 35.83 33.91 31.56 28.06 23.81 19.38 15.34 12.09
1591.708 9.82 8.33 7.35 6.64 6.11 5.72 5.31 4.85 4.47 4.22
1611.002 4.01 3.83 3.68 3.57 3.56 3.49 3.4 3.34 3.26 3.2
1630.295 3.14 3.05 2.95 2.86 2.81 2.79 2.77 2.7 2.67 2.73
1649.588 2.79 2.83 2.91 3.09 3.29 3.45 3.6 3.73 3.72 3.5
1668.882 3.23 2.95 2.64 2.36 2.1873 2.0545 1.9851 1.8703 1.7447 1.7441
1688.175 1.7189 1.6901 1.6632 1.6285 1.6023 1.5677 1.5485 1.587 1.6085 1.5996
1707.469 1.5762 1.5742 1.6101 1.6131 1.5868 1.5641 1.5909 1.5764 1.5514 1.6467
1726.762 1.6771 1.6398 1.6595 1.6633 1.6518 1.6766 1.7217 1.7396 1.6937 1.62
1746.056 1.6083 1.5811 1.5 1.5003 1.5549 1.6054 1.6275 1.6765 1.8115 1.9717
1765.349 2.218 2.51 2.77 3.09 3.41 3.64 3.75 3.68 3.49 3.16
1784.642 2.78 2.42 2.1452 1.976 1.8601 1.7482 1.6818 1.6762 1.615 1.5444
1803.936 1.5342 1.534 1.4822 1.4605 1.4674 1.4569 1.42652 1.41122 1.45465 1.5255
1823.229 1.5683 1.5934 1.6182 1.6381 1.763 1.9456 2.0705 2.1994 2.38 2.54
1842.523 2.74 3.02 3.24 3.36 3.44 3.47 3.39 3.22 2.97 2.66
1861.816 2.4 2.1856 1.9739 1.8087 1.6827 1.6105 1.5465 1.5153 1.4984 1.45605
1881.110 1.42277 1.41045 1.41112 1.40379 1.43315 1.45691 1.41632 1.42374 1.4768 1.5291
1900.403 1.5954 1.7021 1.8396 1.975 2.1088 2.3045 2.59 2.83 3.1 3.42
1919.696 3.73 4.02 4.22 4.32 4.27 4.05 3.66 3.2 2.76 2.3448
1938.990 2.0605 1.8839 1.7484 1.6538 1.5938 1.5531 1.5395 1.5308 1.5365 1.5355
1958.283 1.5374 1.5375 1.578 1.6636 1.6767 1.6606 1.6988 1.7545 1.7831 1.813
1977.577 1.8463 1.8746 1.9255 1.927 1.9164 1.9478 1.9546 1.9719 1.9599 1.9347
1996.870 1.9455 1.9352 1.9213 1.9376 1.9153 1.8788 1.8807 1.8681 1.8385 1.8063
2016.164 1.7973 1.7782 1.8069 1.7891 1.7417 1.7583 1.7534 1.7557 1.7371 1.7222
2035.457 1.7041 1.6924 1.6899 1.6612 1.6607 1.6777 1.653 1.6478 1.6393 1.6304
2054.750 1.6337 1.623 1.6578 1.6994 1.7234 1.735 1.72 1.725 1.7432 1.7493
2074.044 1.7403 1.7125 1.7016 1.7215 1.7671 1.7559 1.691 1.6585 1.6644 1.6689
2093.337 1.6557 1.6308 1.5879 1.5718 1.5943 1.5574 1.5103 1.4976 1.4902 1.4607
2112.631 1.42138 1.39394 1.37472 1.325 1.259 1.233 1.234 1.239 1.214 1.174
2131.924 1.149 1.147 1.146 1.145 1.145 1.178 1.196 1.16 1.132 1.125
2151.218 1.12 1.146 1.113 1.075 1.079 1.09 1.124 1.122 1.079 1.082
2170.511 1.126 1.133 1.102 1.102 1.148 1.122 1.121 1.153 1.181 1.17
2189.804 1.152 1.155 1.146 1.144 1.165 1.185 1.157 1.156 1.18 1.184
2209.098 1.174 1.17 1.171 1.168 1.139 1.125 1.15 1.141 1.099 1.083
2228.391 1.102 1.11 1.082 1.047 1.042 1.042 1.059 1.05 1.028 1.043
2247.685 1.034 1.034 1.075 1.095 1.102 1.143 1.156 1.154 1.169 1.184
2266.978 1.176 1.173 1.173 1.161 1.157 1.189 1.216 1.201 1.198 1.193
2286.272 1.2 1.213 1.189 1.17 1.192 1.231 1.2832 1.3235 1.37242 1.40779
2305.565 1.40666 1.41138 1.40994 1.4467 1.42472 1.35473 1.3198 1.2732 1.231 1.173
2324.858 1.148 1.145 1.081 1.031 1.003 0.988 0.986 0.986 0.999 1.001
2344.152 1.016 1.023 1.048 1.069 1.024 0.985 0.971 0.981 0.971 0.901
2363.445 0.851 0.816 0.835 0.897 0.915 0.908 0.93 0.974 0.956 0.954
2382.739 0.985 1.003 0.988 0.984 0.99 0.982 1.001 1.002 1.002 0.992
2402.032 1.012 1.038 1.01 0.965 0.957 0.966 0.986 0.981 0.921 0.947
2421.326 1.045 1.082 1.077 1.084 1.062 1.08 1.087 1.045 1.047 1.023
2440.619 0.982 0.993 1.027 1.031 1.002 0.95 0.905 0.909 0.909 0.895
2459.912 0.877 0.862 0.852 0.856 0.863 0.825 0.818 0.859 0.879 0.881
2479.206 0.892 0.885 0.882 0.928 0.933 0.922 0.92 0.909 0.919 0.914
2498.499 0.914 0.937 0.959 0.962 0.949 0.954 0.962 0.909 0.879 0.924
2517.793 0.939 0.863 0.85 0.847 0.783 0.778 0.796 0.8 0.761 0.741
2537.086 0.73 0.739 0.765 0.74 0.737 0.728 0.736 0.724 0.731 0.752
2556.380 0.719 0.736 0.751 0.722 0.76 0.799 0.766 0.729 0.726 0.751
2575.673 0.731 0.704 0.741 0.813 0.836 0.829 0.845 0.835 0.805 0.802
2594.966 0.8 0.798 0.818 0.826 0.815 0.832 0.826 0.833 0.82 0.82
2614.260 0.844 0.806 0.788 0.789 0.792 0.843 0.929 0.954 0.969 1.041
2633.553 1.069 1.03 1.011 1.054 1.064 1.046 1.117 1.154 1.134 1.177
2652.847 1.224 1.2939 1.3006 1.2812 1.3234 1.2837 1.209 1.181 1.162 1.137
2672.140 1.145 1.129 1.073 0.998 0.962 0.976 0.93 0.87 0.864 0.84
2691.434 0.849 0.764 0.678 0.737 0.781 0.761 0.745 0.757 0.76 0.711
2710.727 0.686 0.697 0.662 0.685 0.696 0.701 0.692 0.698 0.664 0.653
2730.020 0.747 0.776 0.785 0.728 0.668 0.648 0.674 0.766 0.754 0.654
2749.314 0.644 0.731 0.758 0.775 0.789 0.803 0.845 0.759 0.722 0.787
2768.607 0.786 0.764 0.781 0.809 0.826 0.859 0.852 0.909 0.954 0.947
2787.901 1.037 1.17 1.202 1.238 1.24 1.24 1.3259 1.2819 1.231 1.2889
2807.194 1.3455 1.3047 1.239 1.2702 1.292 1.3082 1.3974 1.4959 1.5092 1.5621
2826.488 1.7022 1.6648 1.5941 1.7042 1.8132 1.7924 1.7901 1.9129 2.1161 2.2471
2845.781 2.3265 2.47 2.61 2.71 2.89 3.05 3.29 3.61 3.89 4.28
2865.074 4.63 5 5.43 5.94 6.52 7.03 7.71 8.5 9.15 9.67
2884.368 10.05 10.3 10.34 10.26 10.05 9.62 9.06 8.48 7.83 7.13
2903.661 6.57 6.14 5.77 5.51 5.32 5.29 5.34 5.41 5.57 5.79
2922.955 6.16 6.68 7.17 7.65 8.15 8.69 9.23 9.74 10.15 10.43
2942.248 10.72 10.96 10.99 11.12 11.12 10.81 10.42 9.92 9.43 8.93
2961.542 8.33 7.88 7.48 7.03 6.77 6.54 6.19 5.9 5.56 5.09
2980.835 4.62 4.08 3.58 3.18 2.79 2.48 2.2189 1.9643 1.7087 1.5081
3000.128 1.45048 1.2636 1.133 1.065 0.874 0.763 0.827 0.86 0.73 0.654
3019.422 0.668 0.618 0.535 0.481 0.502 0.529 0.565 0.586 0.603 0.666
3038.715 0.683 0.789 0.97 1.127 1.2832 1.5617 1.9434 2.2856 2.74 3.4
3058.009 4.25 5.2 6.03 6.85 7.54 7.71 7.5 7.02 6.28 5.79
3077.302 5.91 6.3 6.67 6.91 6.82 6.12 4.97 3.9 2.87 2.0669
3096.596 1.5732 1.2624 1.164 1.039 0.964 1.001 0.944 0.908 0.971 1.114
3115.889 1.3088 1.4855 1.6891 1.8117 1.8895 1.9526 1.9957 2.0056 1.8566 1.6087
3135.182 1.512 1.35351 1.014 0.795 0.658 0.527 0.388 0.33 0.25 0.19
3154.476 0.21 0.15 0.21 0.372 0.25 0.17 0.2 0.11 0 0.03
3173.769 0.28 0.33 0.18 0.18 0.24 0.15 0.17 0.26 0.27 0.23
3193.063 0.22 0.26 0.33 0.365 0.2 0.22 0.27 0.34 0.443 0.34
3212.356 0.24 0.2 0.27 0.35 0.36 0.374 0.432 0.437 0.31 0.31
3231.650 0.428 0.442 0.448 0.406 0.386 0.361 0.387 0.458 0.487 0.489
3250.943 0.527 0.511 0.47 0.504 0.459 0.422 0.446 0.455 0.429 0.488
3270.236 0.505 0.548 0.642 0.559 0.499 0.518 0.578 0.609 0.554 0.558
3289.530 0.634 0.646 0.562 0.5 0.531 0.6 0.562 0.589 0.546 0.552
3308.823 0.663 0.676 0.724 0.65 0.554 0.537 0.53 0.644 0.669 0.692
3328.117 0.697 0.529 0.654 0.827 0.769 0.699 0.665 0.822 0.871 0.739
3347.410 0.712 0.72 0.679 0.677 0.751 0.701 0.709 0.778 0.748 0.758
3366.704 0.779 0.863 0.917 0.796 0.623 0.637 0.786 0.867 0.892 0.829
3385.997 0.83 0.843 0.731 0.844 0.929 0.862 0.978 0.958 0.819 0.848
3405.290 0.875 0.749 0.737 0.933 0.938 0.908 0.926 1.018 1.132 0.996
3424.584 0.915 0.957 0.921 0.935 1.064 1.038 1.004 0.947 0.964 0.996
3443.877 0.942 0.891 0.87 0.851 0.804 0.781 0.856 0.879 0.824 0.914
3463.171 1.024 1.076 1.065 1.101 1.027 0.95 1.01 0.967 0.951 1.006
3482.464 1.079 1.09 1.065 0.978 0.999 1.075 1.122 1.168 1.048 1.048
3501.758 1.064 1.041 1.085 1.126 1.091 1.055 1.167 1.123 1.051 1.109
3521.051 1.098 1.055 1.042 1.137 1.193 1.152 1.089 1.065 1.028 1.07
3540.344 1.065 1.075 1.114 1.104 1.108 1.11 1.054 1.066 1.155 1.111
3559.638 1.082 1.12 1.035 1.021 1.086 1.057 1.04 1.077 1.156 1.215
3578.931 1.253 1.204 1.11 1.105 1.103 1.108 1.12 1.122 1.086 1.077
3598.225 1.061 1.075 1.178 1.14 1.13 1.065 0.952 1 1.103 1.071
3617.518 1.044 0.99 0.928 1.053 1.082 1.051 1.04 1.036 1.075 1.038
3636.812 1.068 0.99 0.893 1.005 1.069 1.058 1.064 1.06 1.013 0.99
3656.105 1.055 1.076 1.03 0.977 0.93 0.934 1.002 1.051 1.028 1.099
3675.398 1.141 1.105 1.067 0.98 0.921 1.052 1.169 1.139 1.204 1.247
3694.692 1.162 1.132 1.077 1.069 1.087 1.078 1.07 1.07 1.155 1.198
3713.985 1.172 1.105 1.134 1.129 0.998 0.993 1.057 0.999 0.964 0.965
3733.279 1.064 1.141 1.071 1.061 1.102 1.023 0.991 1.081 1.131 1.073
3752.572 1.007 1.013 1.019 1.056 1.034 1.052 1.125 1.099 0.974 0.986
3771.866 1.011 0.993 1.155 1.237 1.141 1.135 1.1 1.151 1.196 1.05
3791.159 1.066 1.08 0.945 0.964 1.019 1.003 1.039 1.074 1.132 1.156
3810.452 1.163 1.11 1.08 1.079 1.072 1.206 1.197 1.105 1.127 1.134
3829.746 1.049 1.065 1.19 1.201 1.2 1.226 1.2688 1.2856 1.2653 1.2814
3849.039 1.36477 1.2942 1.103 1.176 1.2786 1.3182 1.19 1.131 1.245 1.225
3868.333 1.158 1.153 1.199 1.241 1.218 1.184 1.161 1.072 1.186 1.3194
3887.626 1.2984 1.235 1.186 1.259 1.2878 1.208 1.172 1.182 1.118 1.099
3906.920 1.172 1.185 1.179 1.194 1.183 1.178 1.223 1.204 1.165 1.184
3926.213 1.145 1.105 1.075 1.143 1.165 1.131 1.204 1.147 1.14 1.202
3945.506 1.167 1.203 1.183 1.083 1.099 1.109 1.093 1.043 1.064 1.076
3964.800 1.067 1.099 1.011 0.986 1.069 1.069 1.04 1.047 1.05 1.046
3984.093 1.051 1.075 1.079 1.117 1.09 1.038 1.05 1.077 1.04
##END=
