##TITLE=.gamma.-Trityloxymethyl-.gamma.-butyrolactone
##JCAMP-DX=4.24
##DATA TYPE=INFRARED SPECTRUM
##ORIGIN=EPA-IR VAPOR PHASE LIBRARY
##OWNER=SRD/NIST
Collection (C) 2018 copyright by the U.S. Secretary of Commerce
on behalf of the United States of America. All rights reserved.
##CAS REGISTRY NO=73968-62-4
##MOLFORM=C 24 H 22 O 3
##$NIST SOURCE=MSDC-IR
##STATE=gas
##XUNITS=1/CM
##YUNITS=ABSORBANCE
##XFACTOR=1.
##YFACTOR=0.001
##DELTAX=1.92898
##FIRSTX=549.8
##LASTX=4000.7
##FIRSTY=1.1227
##MAXX=4000.7
##MINX=549.759
##MAXY=0.081983
##MINY=0
##NPOINTS=1790
##XYDATA=(X++(Y..Y))
549.759 1.1227 1.2844 1.0752 0.6834 0.47983 0.47757 1.1038 1.763 1.463 0.7235
569.049 0.6781 0.8954 0.9445 1.0414 0.8753 0.6551 0.9614 1.0289 0.8864 0.52363
588.339 0.6578 1.3961 1.1399 1.0276 1.603 1.593 1.3038 1.493 1.3976 1.359
607.628 1.543 1.683 1.733 1.833 2.163 2.223 2.413 2.903 3.103 3.813
626.918 5.273 7.003 8.683 9.333 8.713 7.793 6.783 5.733 4.933 5.083
646.208 5.423 4.643 3.903 3.583 3.123 3.173 3.473 3.073 2.973 3.243
665.498 3.253 3.513 4.053 4.073 4.153 4.423 4.613 5.133 5.513 5.863
684.787 6.673 7.463 8.823 11.103 13.393 16.063 19.713 23.923 28.223 31.303
704.077 32.133 30.023 26.173 21.633 16.433 12.623 10.353 8.363 6.583 5.613
723.367 5.043 4.813 4.823 4.593 4.583 4.943 5.643 7.103 8.573 9.893
742.657 10.813 10.673 10.143 9.423 9.013 9.263 9.843 10.933 11.703 11.893
761.947 11.943 11.143 10.503 10.293 9.693 8.663 7.513 6.543 5.473 4.293
781.236 3.633 3.523 3.483 3.073 2.763 2.953 2.983 2.933 2.843 2.943
800.526 2.913 2.763 2.503 2.413 2.253 1.983 2.133 2.313 2.503 2.603
819.816 2.503 2.343 2.413 2.653 2.693 2.413 2.133 2.463 2.643 2.443
839.106 2.473 2.533 2.563 2.473 2.673 2.993 3.103 2.763 2.613 2.713
858.395 2.553 2.913 3.333 3.393 3.273 3.423 3.933 4.573 4.903 5.193
877.685 5.703 5.873 5.903 5.953 6.153 6.343 6.343 6.633 7.423 8.103
896.975 8.483 8.573 8.243 7.603 6.883 6.433 6.103 5.953 5.773 5.383
916.265 5.253 5.353 5.323 5.123 5.273 5.523 5.773 6.043 6.053 6.053
935.555 6.403 6.933 7.483 8.253 8.843 9.003 9.083 8.953 8.563 8.283
954.844 7.893 7.363 7.233 7.363 7.403 7.563 7.673 8.003 8.363 8.043
974.134 7.693 7.883 7.773 7.003 6.653 6.933 7.273 7.683 8.203 8.543
993.424 8.733 9.283 9.873 10.083 10.163 9.753 8.863 8.343 8.023 7.773
1012.714 8.053 8.633 9.023 9.233 10.003 11.223 12.213 13.043 14.003 15.073
1032.003 15.533 15.113 14.603 14.373 13.543 11.963 11.223 11.463 10.863 10.433
1051.293 10.413 10.473 10.703 10.733 11.103 11.753 12.843 13.473 15.273 17.673
1070.583 19.013 20.773 22.113 23.793 25.513 25.573 25.603 25.693 24.893 23.713
1089.873 23.753 24.133 23.713 23.583 24.023 24.353 24.063 23.173 21.723 20.593
1109.163 18.893 17.463 16.453 14.593 13.533 12.453 11.743 11.303 10.933 11.473
1128.452 12.153 13.113 14.433 15.693 16.853 19.093 21.583 23.493 26.563 27.983
1147.742 28.663 29.663 29.133 27.563 25.913 24.993 23.403 21.583 19.863 18.893
1167.032 17.963 16.733 16.763 16.783 16.853 17.073 16.603 16.653 16.383 14.533
1186.322 13.233 12.883 11.723 10.483 10.003 9.873 9.613 10.033 10.373 10.593
1205.611 10.663 10.123 10.503 10.853 10.543 10.653 10.523 10.063 9.023 8.603
1224.901 7.813 6.703 5.883 4.763 4.433 4.033 3.883 4.003 4.263 4.163
1244.191 4.133 3.453 3.023 3.393 3.143 3.083 3.203 3.373 4.153 4.213
1263.481 3.413 3.633 3.973 3.633 3.253 3.383 3.613 3.763 3.813 3.493
1282.771 3.053 2.993 3.283 3.183 2.943 2.913 2.993 3.073 3.103 3.323
1302.060 3.313 3.293 3.473 3.553 3.553 3.583 3.583 3.583 3.653 3.533
1321.350 3.543 3.703 3.663 3.563 3.543 3.633 3.793 4.113 4.433 4.533
1340.640 4.653 4.683 4.403 4.213 4.003 3.853 3.923 3.943 3.883 3.763
1359.930 3.703 3.653 3.543 3.343 3.153 2.963 2.753 2.593 2.553 2.563
1379.219 2.573 2.533 2.403 2.313 2.253 2.193 2.133 2.143 2.083 2.003
1398.509 1.923 1.863 1.893 1.813 1.673 1.683 1.813 1.893 1.913 1.983
1417.799 2.093 2.223 2.513 2.973 3.193 3.393 3.723 3.913 4.133 4.373
1437.089 4.863 5.643 6.623 7.853 9.213 10.253 10.573 10.013 8.503 6.993
1456.378 5.963 5.503 5.553 5.723 5.613 5.243 4.953 4.673 4.383 4.283
1475.668 4.353 4.633 5.043 5.763 6.773 7.813 8.863 9.843 10.313 9.903
1494.958 8.973 7.583 5.993 4.713 3.863 3.313 2.843 2.473 2.263 2.073
1514.248 1.803 1.533 1.513 1.593 1.603 1.563 1.543 1.4498 1.3176 1.3503
1533.538 1.3709 1.2687 1.2857 1.2466 1.3459 1.4128 1.2536 1.3147 1.4267 1.503
1552.827 1.3857 1.3031 1.3249 1.3273 1.2944 1.2341 1.3203 1.322 1.3422 1.4138
1572.117 1.493 1.563 1.653 1.673 1.703 1.873 2.093 2.303 2.473 2.793
1591.407 3.123 3.273 3.423 3.673 3.553 3.203 2.993 2.733 2.413 2.143
1610.697 2.013 1.913 1.703 1.523 1.513 1.503 1.4321 1.3336 1.2711 1.1856
1629.986 1.0185 1.0839 1.2133 1.3647 1.3735 1.2293 1.2008 1.2084 1.1495 1.1328
1649.276 1.303 1.3591 1.3054 1.2746 1.2763 1.3028 1.1804 1.0991 1.215 1.2813
1668.566 1.2309 1.3592 1.3752 1.1643 1.1821 1.2732 1.2258 1.1627 1.213 1.3615
1687.856 1.3372 1.2776 1.3604 1.4132 1.4343 1.4261 1.473 1.4434 1.4105 1.4364
1707.146 1.4145 1.3831 1.463 1.563 1.483 1.493 1.563 1.623 1.653 1.643
1726.435 1.673 1.703 1.853 1.903 1.903 1.873 1.863 2.013 2.163 2.233
1745.725 2.203 2.333 2.533 2.653 2.763 2.973 3.223 3.483 3.753 4.093
1765.015 4.553 4.953 5.313 5.623 6.063 6.523 6.993 7.603 8.353 9.253
1784.305 10.383 11.793 13.453 15.713 18.483 21.713 25.773 30.953 37.543 45.813
1803.594 55.273 65.293 74.443 80.503 81.983 78.073 69.513 58.493 47.343 37.623
1822.884 29.963 24.243 19.913 16.723 14.273 12.413 10.953 9.693 8.653 7.843
1842.174 7.153 6.453 5.833 5.423 4.943 4.523 4.293 4.063 3.763 3.573
1861.464 3.463 3.333 3.143 3.023 2.973 2.863 2.733 2.703 2.663 2.643
1880.754 2.583 2.423 2.443 2.503 2.303 2.173 2.173 2.133 2.203 2.153
1900.043 2.123 2.163 2.103 2.003 1.893 1.803 1.793 1.883 1.893 1.723
1919.333 1.613 1.573 1.633 1.713 1.643 1.643 1.643 1.573 1.613 1.753
1938.623 1.903 2.093 2.163 2.243 2.343 2.373 2.403 2.373 2.393 2.383
1957.913 2.273 2.203 2.143 2.003 1.893 1.783 1.693 1.543 1.3627 1.299
1977.202 1.2291 1.2259 1.2162 1.1903 1.1647 1.1236 1.1219 1.0519 1.0087 1.0527
1996.492 1.1007 1.0825 1.0733 1.0482 0.9901 0.9329 1.0289 1.0223 1.0024 1.0097
2015.782 0.8918 0.8404 0.7891 0.7988 0.8509 0.9029 0.8691 0.7902 0.811 0.8917
2035.072 0.9113 0.9035 0.8841 0.8235 0.8994 0.9511 0.92 0.9709 0.9649 0.9751
2054.362 1.0149 0.9303 0.9181 1.0239 0.9951 0.9466 0.9849 0.977 0.9892 1.0566
2073.651 1.0511 1.0017 0.964 0.8871 0.8409 0.8372 0.9018 0.8381 0.8004 0.8988
2092.941 0.8269 0.7901 0.8102 0.7336 0.711 0.7063 0.7268 0.7789 0.6747 0.6644
2112.231 0.7179 0.7556 0.7137 0.7205 0.8029 0.7906 0.7547 0.8211 0.8729 0.7382
2131.521 0.7369 0.7892 0.7261 0.7109 0.7283 0.7555 0.7029 0.7104 0.7385 0.6705
2150.810 0.7239 0.7255 0.6749 0.6361 0.6255 0.6734 0.7218 0.7462 0.7523 0.7204
2170.100 0.7627 0.7823 0.7139 0.7628 0.8491 0.8578 0.8093 0.8219 0.7542 0.7314
2189.390 0.8783 0.7982 0.6704 0.7714 0.7646 0.7116 0.6965 0.7367 0.9041 0.9093
2208.680 0.945 0.9683 0.802 0.818 0.9863 0.9447 0.7062 0.6618 0.8134 0.7832
2227.970 0.7681 0.8445 0.8933 0.817 0.702 0.7115 0.7301 0.796 0.8481 0.7767
2247.259 0.7678 0.7762 0.7334 0.7876 0.83 0.7272 0.7124 0.8657 0.8117 0.7672
2266.549 0.9231 0.8786 0.785 0.8069 0.7255 0.7335 0.8541 0.8723 0.7178 0.7095
2285.839 0.8389 0.802 0.7067 0.7963 0.8076 0.7149 0.7977 0.8035 0.8559 0.909
2305.129 0.9021 0.9444 0.9993 0.918 0.8573 0.9665 1.0636 0.9993 0.869 0.8436
2324.418 0.8821 0.8948 0.7697 0.8009 0.9086 0.8636 0.7687 0.8759 0.8689 0.7918
2343.708 0.8769 0.8152 0.7425 0.7353 0.7756 0.9117 0.9469 0.815 0.7914 0.8534
2362.998 0.7802 0.7033 0.6296 0.6647 0.7299 0.7333 0.696 0.5513 0.559 0.6619
2382.288 0.6825 0.692 0.7136 0.6397 0.52992 0.462922 0.54744 0.6429 0.6633 0.673
2401.578 0.6165 0.6275 0.7797 0.8095 0.6585 0.5563 0.49981 0.5438 0.54519 0.48165
2420.867 0.6426 0.6173 0.49196 0.51022 0.51791 0.6154 0.6308 0.6268 0.6478 0.6308
2440.157 0.5605 0.54666 0.5927 0.6166 0.6818 0.7329 0.673 0.6386 0.53785 0.48317
2459.447 0.6342 0.6875 0.6089 0.6037 0.7223 0.8104 0.8655 0.809 0.7106 0.48856
2478.737 0.5884 0.8291 0.9406 0.892 0.7098 0.6304 0.6678 0.6666 0.49729 0.576
2498.026 0.5745 0.51256 0.6388 0.8289 0.7985 0.631 0.6536 0.7224 0.6401 0.6594
2517.316 0.6829 0.54031 0.53588 0.49382 0.54223 0.6268 0.53831 0.44869 0.3725 0.4305
2536.606 0.5717 0.55141 0.48369 0.5833 0.6739 0.6392 0.55272 0.6356 0.6501 0.5538
2555.896 0.5533 0.6112 0.5686 0.52449 0.7097 0.7164 0.5501 0.6759 0.6762 0.5488
2575.186 0.7171 0.7012 0.685 0.7808 0.7667 0.6951 0.7239 0.6846 0.5707 0.6816
2594.475 0.6733 0.6938 0.6817 0.5536 0.6174 0.7351 0.757 0.6576 0.6542 0.6605
2613.765 0.5907 0.52215 0.6063 0.7735 0.8525 0.8956 0.7485 0.7617 0.7537 0.5965
2633.055 0.6378 0.9006 1.0379 0.758 0.7165 0.7265 0.7041 0.6738 0.5943 0.6086
2652.345 0.6208 0.7085 0.7689 0.6267 0.54973 0.6117 0.6464 0.7744 0.6591 0.50273
2671.634 0.50596 0.3781 0.4403 0.51044 0.54177 0.7881 0.7652 0.8197 0.7913 0.6071
2690.924 0.7202 0.6283 0.48645 0.6035 0.8339 0.8957 0.7131 0.727 0.7949 0.7145
2710.214 0.7713 0.8352 0.7076 0.5673 0.6511 0.8411 0.7584 0.5906 0.6292 0.7416
2729.504 0.7099 0.8257 0.9069 0.7987 0.8054 0.8033 0.8217 0.9423 0.9855 0.867
2748.794 0.8401 0.883 0.8534 0.7477 1.0306 1.1708 0.9242 0.8544 0.8043 0.6898
2768.083 0.7064 0.7412 0.7755 1.0031 1.043 0.98 0.91 0.8256 0.7856 0.6594
2787.373 0.8119 0.9482 0.9428 0.8154 0.7797 0.9858 0.9989 0.8644 0.6246 0.6174
2806.663 0.8183 0.8729 0.8656 0.7599 0.7439 0.7996 0.8681 1.0239 0.9674 0.9937
2825.953 1.1333 1.248 1.3103 1.3644 1.4249 1.383 1.2458 1.188 1.3776 1.583
2845.242 1.563 1.533 1.683 1.873 1.783 1.693 1.913 2.053 2.203 2.703
2864.532 3.083 3.373 3.913 4.233 4.273 4.213 4.143 4.013 4.013 3.983
2883.822 3.803 3.773 3.663 3.463 3.233 3.073 3.203 3.273 3.253 3.373
2903.112 3.513 3.673 3.893 3.933 3.893 4.023 4.523 4.853 5.003 5.193
2922.401 5.233 5.393 5.363 5.063 5.103 5.493 5.823 5.783 5.913 6.013
2941.691 6.153 6.263 6.143 6.213 6.043 6.213 6.553 6.393 6.193 6.353
2960.981 6.443 6.333 6.363 6.313 5.773 5.373 5.403 5.133 4.613 4.533
2980.271 4.523 4.623 4.843 4.663 4.663 4.603 4.603 4.713 4.403 4.073
2999.561 4.043 3.683 3.133 3.073 3.233 3.083 3.123 3.473 3.773 4.183
3018.850 4.683 5.093 5.303 5.883 6.543 6.913 7.463 7.923 8.323 8.663
3038.140 8.783 8.723 8.193 7.593 6.973 6.483 6.433 6.853 7.683 8.673
3057.430 9.693 11.373 13.453 15.423 17.413 18.993 19.693 19.273 17.863 15.413
3076.720 12.413 10.473 9.513 8.573 8.493 8.713 8.693 8.603 8.313 7.943
3096.009 7.053 6.163 5.523 4.813 4.253 3.613 3.293 3.193 2.883 2.443
3115.299 2.123 1.973 1.833 1.733 1.603 1.473 1.4045 1.4013 1.3193 1.267
3134.589 1.2493 0.9566 0.8389 1.1205 1.1397 1.108 1.1033 0.9443 0.9851 1.013
3153.879 0.9538 1.0229 1.1762 1.4263 1.2603 1.2273 1.1294 0.6552 0.6015 0.8111
3173.169 0.9158 0.8851 1.0262 1.1017 0.8025 0.6854 1.064 1.1485 0.9866 0.8346
3192.458 0.857 0.9265 0.7278 0.7153 0.7244 0.5946 0.5542 0.5227 0.51359 0.3797
3211.748 0.348 0.5633 0.8408 0.7522 0.5716 0.7652 0.7691 0.7801 0.6502 0.295
3231.038 0.259 0.3979 0.405 0.50439 0.5872 0.52737 0.6931 0.7695 0.6237 0.6177
3250.328 0.49173 0.5942 0.54751 0.25 0.408 0.51221 0.603 0.599 0.6935 0.7598
3269.617 0.6533 0.52397 0.353 0.46794 0.3916 0.11 0.344 0.551 0.107 0.03
3288.907 0.232 0.197 0.46905 0.7001 0.8703 0.8313 0.53825 0.435 0.221 0.115
3308.197 0.248 0.319 0.3941 0.46829 0.6553 0.75 0.8971 0.8355 0.3865 0.244
3327.487 0.293 0.4188 0.51345 0.55286 0.3699 0.248 0.3553 0.50653 0.5642 0.5014
3346.777 0.3895 0.337 0.5704 0.787 0.6519 0.48507 0.6478 0.7006 0.47536 0.33
3366.066 0.216 0.224 0.3833 0.5561 0.5695 0.50203 0.7042 0.9626 0.7451 0.50285
3385.356 0.47715 0.262 0.3816 0.6869 0.6146 0.4041 0.343 0.4095 0.4057 0.48651
3404.646 0.417 0.222 0.25 0.44928 0.5967 0.4268 0.3871 0.49083 0.222 0.016
3423.936 0.401 0.49586 0.4013 0.6899 0.721 0.6861 0.6525 0.47063 0.4091 0.5586
3443.225 0.5602 0.6651 0.8224 0.6557 0.3877 0.292 0.48832 0.4049 0.44444 0.6827
3462.515 0.711 0.47431 0.3876 0.7861 0.9247 0.6171 0.181 0.275 0.327 0.21
3481.805 0.3734 0.48408 0.126 0.127 0.4309 0.34 0.382 0.344 0.287 0.106
3501.095 0.116 0.4217 0.311 0.276 0.3775 0.296 0.209 0.228 0.3876 0.5693
3520.385 0.53473 0.54241 0.8451 0.8854 0.7707 0.8574 0.7952 0.6755 0.6113 0.8679
3539.674 1.069 0.7348 0.5715 0.304 0.3953 0.8248 0.6777 0.4422 0.291 0.249
3558.964 0.5731 0.5969 0.428 0.8785 1.1609 0.5976 0.389 0.6445 0.49851 0.54382
3578.254 0.816 0.9168 0.8977 0.6037 0.5938 1.019 1.136 1.0597 0.9109 1.1146
3597.544 1.3644 1.2441 1.345 1.2742 1.4404 1.713 1.4458 1.2748 1.473 1.3239
3616.833 1.0044 0.8748 0.8368 0.8778 0.8387 1.0031 0.8122 0.50814 0.454211 0.3765
3636.123 0.8308 1.1586 0.6954 0.4224 0.51444 0.5567 0.7246 0.8754 0.9313 0.6431
3655.413 0.51519 0.54846 0.6172 0.6815 0.4265 0.26 0.3 0.5652 0.6492 0.256
3674.703 0.311 0.5724 0.44704 0.5533 0.46483 0.6825 0.8559 0.49267 0.44644 0.52257
3693.993 0.7663 0.7874 0.6644 0.6931 0.5783 0.7958 0.9339 0.37 0.223 0.8116
3713.282 0.954 0.53588 0.6859 1.0331 0.8814 0.7947 0.9263 0.9704 0.6944 0.586
3732.572 0.6034 0.46623 0.5633 0.8263 0.9968 0.7264 0.7635 0.8989 0.53798 0.52736
3751.862 0.52015 0.4106 0.7455 1.0499 0.8045 0.6395 0.9075 0.9708 0.8916 0.8258
3771.152 0.6003 0.5085 0.44601 0.53582 0.6941 0.7699 0.5801 0.232 0.4378 0.6116
3790.441 0.137 0.193 0.54416 0.5695 0.6311 0.53228 0.44561 0.4322 0.295 0.4054
3809.731 1.0832 1.0062 0.5925 0.7151 0.8326 0.8691 0.6857 0.5964 0.53062 0.5901
3829.021 0.484 0.6176 0.7128 0.55126 0.7008 0.49964 0.4075 0.4208 0.4108 0.679
3848.311 0.54759 0.51916 0.5908 0.454279 0.52602 0.44526 0.47435 0.52224 0.287 0.53407
3867.601 0.6685 0.455537 0.55039 0.6503 0.6558 0.52598 0.6275 0.49915 0.6042 0.8354
3886.890 0.677 0.274 0.122 0.52809 0.688 0.7782 0.9834 0.6424 0.49518 0.462202
3906.180 0 0.15 0.49743 0.7047 0.5547 0.351 0.3972 0.238 0.083 0.063
3925.470 0.278 0.53292 0.3637 0.3695 0.6247 0.6405 0.45068 0.50229 0.7529 0.5681
3944.760 0.5845 0.8041 0.8123 0.9953 1.1037 0.7341 0.5574 0.4353 0.262 0.315
3964.049 0.51663 0.7202 0.7927 0.5639 0.47974 0.55162 0.44513 0.511 0.333 0.3672
3983.339 0.48043 0.319 0.46736 0.8945 0.8052 0.7528 0.8396 0.48858 0.342 0.54383
##END=
