##TITLE=Butyl glycolate
##JCAMP-DX=4.24
##DATA TYPE=INFRARED SPECTRUM
##ORIGIN=NIST Mass Spectrometry Data Center
##OWNER=NIST Standard Reference Data Program
Collection (C) 2018 copyright by the U.S. Secretary of Commerce
on behalf of the United States of America. All rights reserved.
##CAS REGISTRY NO=7397-62-8
##MOLFORM=C 6 H 12 O 3
##$NIST SOURCE=MSDC-IR
##SPECTROMETER/DATA SYSTEM=HP-GC/MS/IRD
##STATE=gas
##XUNITS=1/CM
##YUNITS=ABSORBANCE
##XFACTOR=1.0
##YFACTOR=0.000003400
##DELTAX=4.0
##FIRSTX=550.0
##LASTX=3846.0
##FIRSTY=0.000163
##MAXX=3846
##MINX=550
##MAXY=0.034
##MINY=0
##NPOINTS=825
##XYDATA=(X++(Y..Y))
550.0 48 23 25 1 15 2 43 91 147 154
590.0 136 136 102 105 123 148 141 143 152 140
630.0 142 146 138 125 115 100 116 130 131 137
670.0 123 129 173 207 215 202 219 247 257 287
710.0 313 302 291 319 334 317 310 308 318 320
750.0 320 306 260 227 220 210 193 203 217 211
790.0 216 217 206 211 236 243 261 291 329 366
830.0 386 429 433 439 426 374 355 344 324 320
870.0 322 321 348 401 422 432 448 462 480 471
910.0 501 531 556 609 667 741 803 907 995 1032
950.0 1089 1142 1166 1153 1141 1122 1077 1040 1040 1030
990.0 1030 1063 1137 1252 1348 1428 1537 1633 1655 1634
1030.0 1565 1472 1409 1362 1330 1373 1484 1629 1775 1836
1070.0 1821 1773 1734 1770 1890 2132 2499 2958 3515 4201
1110.0 5093 6105 7162 8210 9104 9700 9992 10000 9659 8948
1150.0 7997 6890 5797 4887 4273 4039 4095 4408 4934 5458
1190.0 5652 5342 4633 3876 3332 2994 2806 2719 2713 2769
1230.0 2836 2922 3035 3180 3322 3439 3558 3673 3765 3855
1270.0 3925 3925 3820 3606 3277 2884 2497 2149 1848 1602
1310.0 1385 1198 1056 953 891 851 830 840 894 951
1350.0 973 963 913 874 853 847 852 876 932 980
1390.0 1005 994 957 899 811 729 673 645 659 704
1430.0 767 842 905 953 1008 1068 1137 1224 1283 1308
1470.0 1281 1186 1050 880 714 565 455 385 320 272
1510.0 237 217 198 182 171 164 158 152 143 135
1550.0 133 130 123 122 120 116 118 111 104 102
1590.0 108 114 110 108 113 118 113 109 111 111
1630.0 112 117 117 116 113 124 133 129 138 146
1670.0 156 173 183 199 217 245 293 342 406 489
1710.0 585 698 844 1029 1271 1613 2117 2855 3861 4951
1750.0 5756 6075 5943 5692 5646 5641 5301 4529 3536 2617
1790.0 1925 1430 1084 840 668 553 458 382 331 288
1830.0 261 244 217 188 173 166 149 137 128 117
1870.0 110 103 97 102 100 94 94 90 84 76
1910.0 67 63 69 74 66 61 67 66 53 48
1950.0 58 64 59 48 51 57 46 46 60 64
1990.0 60 62 72 68 54 55 65 64 68 71
2030.0 68 82 94 86 87 88 86 93 95 97
2070.0 98 91 85 81 77 78 80 82 82 81
2110.0 73 73 78 73 70 64 69 71 72 72
2150.0 70 69 68 56 52 60 58 55 46 43
2190.0 41 44 53 43 39 47 55 50 34 27
2230.0 28 36 33 32 37 39 38 31 30 29
2270.0 29 28 33 46 41 27 27 38 48 42
2310.0 43 41 34 34 40 45 50 46 36 37
2350.0 36 31 34 36 27 33 38 34 39 39
2390.0 36 33 22 22 35 45 37 23 25 17
2430.0 9 12 25 33 31 28 23 21 17 27
2470.0 31 22 20 24 16 14 10 0 12 28
2510.0 31 28 26 36 33 20 14 17 19 15
2550.0 21 20 13 24 34 44 44 36 34 33
2590.0 39 45 57 63 48 48 55 48 59 73
2630.0 70 67 60 56 68 70 62 75 83 89
2670.0 99 98 112 126 125 118 112 141 163 158
2710.0 165 187 206 200 208 215 218 247 269 277
2750.0 285 293 298 305 320 334 344 341 350 362
2790.0 373 386 403 430 468 515 551 598 674 755
2830.0 850 996 1176 1387 1650 1946 2252 2562 2871 3194
2870.0 3554 3900 4177 4365 4405 4298 4112 3970 3954 4048
2910.0 4219 4442 4694 4946 5201 5544 6004 6517 6920 7110
2950.0 7138 7160 7370 7796 8159 8075 7351 6138 4815 3727
2990.0 2905 2270 1788 1437 1180 980 837 738 654 586
3030.0 515 459 407 372 346 321 289 253 237 231
3070.0 209 198 203 193 186 174 152 156 150 152
3110.0 155 141 133 142 133 118 112 106 106 101
3150.0 103 97 95 102 106 108 104 90 89 94
3190.0 100 104 92 79 80 88 67 53 58 73
3230.0 72 66 62 38 38 49 32 30 45 48
3270.0 45 46 42 42 40 39 24 19 36 41
3310.0 32 22 31 37 35 39 61 78 54 38
3350.0 52 59 56 50 34 32 35 32 36 38
3390.0 31 40 38 16 36 71 66 42 40 52
3430.0 51 41 42 47 46 61 66 46 46 72
3470.0 74 54 58 77 77 75 89 99 108 108
3510.0 96 89 87 91 83 88 77 46 63 68
3550.0 34 60 76 45 53 48 29 37 50 47
3590.0 37 35 38 36 25 25 28 44 57 36
3630.0 28 27 16 2 6 19 38 48 21 13
3670.0 37 52 49 48 63 60 42 47 46 58
3710.0 64 58 48 49 52 40 62 55 52 65
3750.0 64 67 47 49 48 46 72 84 64 15
3790.0 17 41 39 53 90 62 46 90 96 53
3830.0 41 73 92 75 53
##END=
