##TITLE=4-t-Butyl-o-xylene
##JCAMP-DX=4.24
##DATA TYPE=INFRARED SPECTRUM
##ORIGIN=NIST Mass Spectrometry Data Center
##OWNER=NIST Standard Reference Data Program
Collection (C) 2018 copyright by the U.S. Secretary of Commerce
on behalf of the United States of America. All rights reserved.
##CAS REGISTRY NO=7397-06-0
##MOLFORM=C 12 H 18
##$NIST SOURCE=MSDC-IR
##SPECTROMETER/DATA SYSTEM=HP-GC/MS/IRD
##STATE=gas
##XUNITS=1/CM
##YUNITS=ABSORBANCE
##XFACTOR=1.0
##YFACTOR=0.000018500
##DELTAX=4.0
##FIRSTX=550.0
##LASTX=3846.0
##FIRSTY=0.000537
##MAXX=3846
##MINX=550
##MAXY=0.185
##MINY=0
##NPOINTS=825
##XYDATA=(X++(Y..Y))
550.0 29 37 32 37 35 33 37 56 94 156
590.0 230 298 363 356 277 206 143 88 56 46
630.0 38 29 22 13 6 1 0 3 7 8
670.0 6 3 6 8 12 21 36 62 100 156
710.0 213 280 317 272 211 160 106 65 42 33
750.0 27 26 27 30 35 38 40 47 61 87
790.0 134 226 380 579 797 1029 1205 1097 841 622
830.0 407 236 136 89 72 69 77 102 142 191
870.0 252 319 363 343 291 243 206 195 216 250
910.0 265 253 208 154 120 102 88 77 71 67
950.0 66 70 78 89 103 123 157 204 274 365
990.0 451 490 471 400 311 244 208 191 181 168
1030.0 148 131 119 105 92 82 73 67 59 46
1070.0 40 35 30 30 29 30 34 42 52 61
1110.0 75 95 121 171 255 374 519 627 658 613
1150.0 498 375 298 255 224 211 215 254 335 432
1190.0 521 558 508 405 307 236 198 190 188 182
1230.0 172 161 165 190 251 354 523 775 1052 1230
1270.0 1225 1023 708 448 314 257 230 210 192 172
1310.0 156 148 148 150 155 164 182 216 274 362
1350.0 488 653 837 997 1094 1085 990 886 828 846
1390.0 937 998 963 854 693 552 474 438 431 453
1430.0 501 575 678 804 947 1096 1232 1334 1382 1396
1470.0 1412 1443 1454 1423 1371 1325 1388 1620 1870 1936
1510.0 1758 1373 918 587 431 369 344 331 318 304
1550.0 290 277 270 271 276 281 283 282 277 272
1590.0 271 278 299 337 386 422 423 388 324 247
1630.0 183 141 110 87 72 61 54 49 47 46
1670.0 43 42 40 39 41 42 42 41 39 37
1710.0 35 34 35 37 43 52 67 88 114 140
1750.0 153 151 134 108 82 63 50 42 37 33
1790.0 31 27 25 25 26 26 27 29 32 32
1830.0 31 32 31 32 33 33 38 44 53 66
1870.0 80 92 99 100 95 84 70 56 44 36
1910.0 31 27 24 23 22 22 21 19 17 15
1950.0 13 12 12 13 11 10 10 9 8 8
1990.0 6 4 5 6 5 6 6 5 5 6
2030.0 5 6 8 7 5 4 5 4 3 1
2070.0 0 0 0 0 0 0 1 1 0 1
2110.0 2 4 5 7 7 6 5 4 3 3
2150.0 2 3 4 6 6 8 11 12 10 9
2190.0 8 7 7 9 8 6 4 3 2 1
2230.0 2 1 0 2 3 2 3 4 5 6
2270.0 8 10 12 14 15 15 14 12 8 6
2310.0 5 5 6 5 4 5 4 4 5 6
2350.0 8 10 11 12 14 16 20 26 29 30
2390.0 31 30 27 25 24 22 21 20 19 19
2430.0 18 17 17 18 18 19 18 18 19 18
2470.0 19 21 22 22 21 19 17 16 16 17
2510.0 15 13 12 14 15 14 15 16 18 21
2550.0 25 29 33 35 35 34 33 32 31 30
2590.0 29 30 29 30 29 30 29 28 29 28
2630.0 31 33 35 39 43 46 48 49 52 54
2670.0 53 52 52 54 56 58 63 69 76 85
2710.0 95 106 119 133 146 161 177 189 189 180
2750.0 169 161 155 153 154 153 157 162 169 177
2790.0 183 190 198 210 228 249 270 294 324 360
2830.0 403 456 523 611 729 885 1101 1391 1761 2190
2870.0 2622 2971 3175 3231 3178 3078 2998 2991 3089 3298
2910.0 3564 3823 4073 4336 4614 4852 4982 5003 5028 5279
2950.0 5938 6970 8192 9362 10000 9711 8570 6855 5110 3765
2990.0 2827 2195 1801 1584 1501 1512 1588 1683 1730 1694
3030.0 1572 1396 1224 1111 1061 1049 1053 1053 1042 1016
3070.0 976 921 857 782 701 610 525 452 398 356
3110.0 328 307 293 279 259 235 210 188 170 153
3150.0 140 130 122 116 112 106 104 106 108 107
3190.0 104 102 99 98 100 94 93 94 93 89
3230.0 86 83 76 70 68 63 59 59 58 55
3270.0 54 52 51 51 51 48 43 43 40 38
3310.0 35 33 32 26 25 24 22 20 19 19
3350.0 19 20 22 26 29 29 27 26 26 27
3390.0 23 20 19 16 14 17 16 12 13 13
3430.0 13 15 17 17 18 16 14 15 17 17
3470.0 14 13 14 15 14 11 9 8 6 5
3510.0 7 9 11 13 10 8 10 11 10 9
3550.0 10 9 6 4 3 4 5 5 5 3
3590.0 2 2 4 5 4 5 5 2 0 0
3630.0 2 3 6 0 0 5 5 6 8 7
3670.0 8 13 13 12 11 10 8 8 6 4
3710.0 6 5 3 7 6 3 5 9 10 8
3750.0 12 11 8 8 10 13 15 14 13 13
3790.0 16 16 17 20 22 21 21 19 21 23
3830.0 19 19 21 21 23
##END=
