##TITLE=1-Methyl-2-isopropenylbenzene
##JCAMP-DX=4.24
##DATA TYPE=INFRARED SPECTRUM
##ORIGIN=NIST Mass Spectrometry Data Center
##OWNER=NIST Standard Reference Data Program
Collection (C) 2018 copyright by the U.S. Secretary of Commerce
on behalf of the United States of America. All rights reserved.
##CAS REGISTRY NO=7399-49-7
##MOLFORM=C 10 H 12
##$NIST SOURCE=MSDC-IR
##SPECTROMETER/DATA SYSTEM=HP-GC/MS/IRD
##STATE=gas
##XUNITS=1/CM
##YUNITS=ABSORBANCE
##XFACTOR=1.0
##YFACTOR=0.000001000
##DELTAX=4.0
##FIRSTX=550.0
##LASTX=3846.0
##FIRSTY=0.001272
##MAXX=3846
##MINX=550
##MAXY=0.01
##MINY=0
##NPOINTS=825
##XYDATA=(X++(Y..Y))
550.0 1272 1231 1114 944 761 709 660 606 505 353
590.0 275 196 92 67 18 41 65 86 77 7
630.0 83 99 47 108 132 118 136 140 158 217
670.0 245 211 208 259 221 202 266 353 610 1148
710.0 1963 3016 4076 5583 7327 7534 7083 6956 6703 6593
750.0 6659 6606 6510 6375 5602 4320 3190 2287 1492 934
790.0 642 512 456 409 387 343 315 293 263 240
830.0 233 253 266 297 366 453 571 675 724 760
870.0 828 986 1306 1914 2999 4610 6452 7384 7622 7638
910.0 6418 4523 2908 1874 1378 1202 1138 1065 925 801
950.0 682 524 434 376 338 323 303 277 283 327
990.0 367 423 519 565 579 614 589 536 517 595
1030.0 780 1068 1458 1700 1711 1603 1381 1036 699 548
1070.0 535 616 822 1103 1424 1690 1792 1773 1639 1349
1110.0 970 666 520 456 445 459 447 406 356 315
1150.0 253 213 176 150 158 162 148 154 168 166
1190.0 171 177 195 193 166 146 110 94 133 148
1230.0 146 182 199 190 233 273 295 339 418 511
1270.0 593 685 793 956 1161 1357 1457 1446 1325 1109
1310.0 853 627 476 383 359 344 322 361 419 479
1350.0 592 803 1084 1505 2022 2548 2960 2962 2749 2420
1390.0 1998 1652 1421 1319 1302 1373 1507 1691 1919 2184
1430.0 2496 2791 3085 3365 3564 3627 3548 3406 3254 3155
1470.0 3252 3537 3992 4392 4528 4349 3886 3158 2331 1665
1510.0 1232 992 852 756 697 651 611 579 557 548
1550.0 536 529 551 602 674 781 866 940 1056 1179
1590.0 1295 1431 1543 1569 1594 1649 1721 1843 2069 2385
1630.0 2720 2986 3099 2960 2542 2010 1486 1067 781 588
1670.0 479 449 431 406 406 405 380 362 342 316
1710.0 295 273 259 236 211 198 186 176 154 147
1750.0 161 155 154 177 185 218 279 344 437 550
1790.0 691 841 960 1046 1096 1036 928 821 711 601
1830.0 509 437 363 276 217 199 194 200 210 234
1870.0 252 250 247 252 287 343 419 506 558 579
1910.0 565 492 392 328 318 357 420 450 434 388
1950.0 330 247 154 113 86 73 75 54 42 40
1990.0 45 41 44 32 13 29 38 19 23 38
2030.0 31 35 16 13 30 24 24 39 43 44
2070.0 47 40 48 57 52 59 58 36 40 48
2110.0 40 41 30 24 23 22 35 34 33 39
2150.0 36 24 34 38 30 24 38 51 50 65
2190.0 69 56 40 39 42 42 36 41 49 32
2230.0 35 35 29 47 42 39 55 55 57 63
2270.0 69 68 81 88 95 119 133 146 133 119
2310.0 128 133 134 123 105 87 61 60 59 39
2350.0 45 40 36 37 42 55 83 102 90 85
2390.0 86 87 91 86 86 94 96 100 88 72
2430.0 74 82 95 93 87 84 74 75 86 99
2470.0 85 72 76 76 62 63 54 38 48 64
2510.0 71 65 48 46 57 53 60 70 69 80
2550.0 85 78 99 100 87 87 83 79 80 72
2590.0 69 63 62 55 48 44 50 49 18 12
2630.0 43 82 93 86 67 65 75 58 51 55
2670.0 79 88 95 103 95 93 106 116 123 146
2710.0 159 180 209 217 227 274 324 341 327 296
2750.0 286 278 247 239 260 248 234 254 285 297
2790.0 313 349 379 405 444 490 534 582 629 701
2830.0 812 913 1018 1183 1402 1657 1956 2261 2586 2874
2870.0 3068 3195 3274 3294 3302 3271 3226 3251 3398 3704
2910.0 4196 4850 5612 6410 7077 7375 7384 7301 7136 6884
2950.0 6625 6499 6585 6848 7270 7675 7918 7904 7595 6995
2990.0 6214 5532 5109 4944 5063 5489 6041 6501 6710 6664
3030.0 6298 5696 5136 4832 4901 5425 6362 7462 8420 9154
3070.0 9678 10000 9738 9015 7967 6633 5287 3845 2729 2060
3110.0 1616 1296 1073 937 822 724 663 613 565 484
3150.0 405 348 301 248 199 181 170 161 178 190
3190.0 150 122 119 111 109 103 106 101 57 41
3230.0 44 38 43 58 69 54 62 65 47 49
3270.0 55 48 49 41 10 0 0 20 35 39
3310.0 53 47 41 37 15 11 33 63 62 61
3350.0 54 59 59 40 36 40 35 32 22 39
3390.0 54 44 48 44 40 40 33 61 53 52
3430.0 59 52 74 74 64 52 31 17 17 12
3470.0 22 47 63 39 32 65 80 62 38 21
3510.0 22 48 29 28 60 40 19 26 53 68
3550.0 64 38 21 17 12 46 60 37 45 61
3590.0 52 44 46 37 39 37 13 14 40 25
3630.0 20 28 52 67 28 47 55 19 45 62
3670.0 58 51 45 70 62 47 60 59 51 23
3710.0 22 43 23 17 44 31 31 38 22 55
3750.0 44 51 73 58 65 70 70 78 66 66
3790.0 83 87 75 62 88 79 32 28 33 38
3830.0 72 72 69 99 84
##END=
