##TITLE=n-Octadecyltriethoxysilane
##JCAMP-DX=4.24
##DATA TYPE=INFRARED SPECTRUM
##ORIGIN=EPA-IR VAPOR PHASE LIBRARY
##OWNER=SRD/NIST
Collection (C) 2018 copyright by the U.S. Secretary of Commerce
on behalf of the United States of America. All rights reserved.
##CAS REGISTRY NO=7399-00-0
##MOLFORM=C 24 H 52 O 3 Si
##$NIST SOURCE=MSDC-IR
##STATE=gas
##XUNITS=1/CM
##YUNITS=ABSORBANCE
##XFACTOR=1.
##YFACTOR=0.001
##DELTAX=1.92934
##FIRSTX=549.9
##LASTX=3999.5
##FIRSTY=1.78605
##MAXX=3999.53
##MINX=549.863
##MAXY=0.40269
##MINY=0
##NPOINTS=1789
##XYDATA=(X++(Y..Y))
549.863 1.78605 1.8638 1.73563 1.579 1.6257 1.554 1.394 1.202 1.099 1.353
569.156 1.433 1.284 1.192 1.178 1.232 1.232 1.306 1.361 1.359 1.413
588.450 1.485 1.46 1.379 1.267 1.414 1.6485 1.6478 1.501 1.548 1.8914
607.743 1.9489 1.977 2.1592 2.2793 2.3766 2.414 2.4497 2.5248 2.5399 2.4627
627.037 2.4374 2.3993 2.3477 2.4025 2.4015 2.3221 2.3512 2.3973 2.3545 2.3075
646.330 2.2824 2.3657 2.4511 2.492 2.568 2.6418 2.7 2.74 2.83 3.04
665.624 3.26 3.3 3.41 3.59 3.69 3.75 3.88 3.96 4 4.16
684.917 4.28 4.38 4.51 4.67 4.93 5.26 5.62 5.97 6.38 6.9
704.210 7.5 8.17 8.89 9.67 10.57 11.57 12.48 13.34 14.25 15.34
723.504 16.43 17.49 18.74 20.03 21.37 22.81 24.25 25.73 27.14 28.42
742.797 29.71 31.03 32.35 33.6 34.92 36.51 38.17 39.99 41.99 44.05
762.091 46.17 48.27 50.25 52.09 53.79 55.35 56.77 57.94 58.91 59.7
781.384 60.19 60.12 59.49 58.4 56.64 54.29 51.44 48.14 44.57 41.02
800.678 37.49 34.09 30.99 28.15 25.59 23.23 21.22 19.33 17.69 16.51
819.971 15.34 14.19 13.17 12.37 11.61 10.94 10.35 9.77 9.32 8.89
839.264 8.41 7.99 7.64 7.37 7.14 6.91 6.64 6.42 6.27 6.06
858.558 5.87 5.66 5.55 5.48 5.43 5.32 5.18 5.06 4.99 4.93
877.851 4.89 4.83 4.79 4.81 4.81 4.95 5.01 5.02 5.11 5.29
897.145 5.47 5.66 5.84 6.13 6.56 6.92 7.41 8.02 8.7 9.54
916.438 10.61 11.85 13.28 14.96 17.06 19.66 22.61 26.13 30.05 34.23
935.732 38.68 43.14 47.48 51.69 55.71 59.46 62.68 65.12 66.4 66.11
955.025 64.37 61.33 57.11 52.23 47.12 42.09 37.44 33.16 29.31 26.03
974.318 23.29 21.04 19.17 17.62 16.38 15.37 14.65 14.12 13.72 13.46
993.612 13.26 13.14 13.16 13.22 13.3 13.46 13.68 13.85 14 14.26
1012.905 14.51 14.83 15.21 15.68 16.31 16.94 17.63 18.49 19.46 20.47
1032.199 21.59 22.89 24.31 25.83 27.61 29.5 31.53 33.85 36.39 39.21
1051.492 42.31 45.81 49.8 54.29 59.41 65.26 71.95 79.47 87.76 96.85
1070.786 106.56 116.45 125.9 134.3 140.74 144.25 144.41 141.18 135.45 128.57
1090.079 122.12 117.79 116.71 119.37 126.04 136.52 150.48 167.11 184.92 202.33
1109.372 217.58 228.67 234.4 234.81 230.2 221.89 211.28 199.52 187.8 176.71
1128.666 166.35 156.64 147.65 139.2 131.32 124.2 117.84 112.12 106.71 101.78
1147.959 97.41 93.52 89.92 86.44 83.1 79.93 76.94 74.21 71.54 68.91
1167.253 66.52 64.28 62.27 60.3 58.22 56.02 53.89 51.7 49.28 46.81
1186.546 44.4 42.13 39.93 37.69 35.53 33.69 31.96 30.23 28.71 27.28
1205.840 26.08 24.96 23.86 22.69 21.76 20.93 19.95 19.26 18.37 17.77
1225.133 17.41 16.65 16.08 15.72 15.33 14.81 14.46 14.26 13.94 13.72
1244.426 13.81 13.63 13.38 13.34 13.25 13.19 13.09 13.05 13.07 13.14
1263.720 13.26 13.36 13.36 13.46 13.46 13.43 13.55 13.53 13.49 13.5
1283.013 13.55 13.69 13.75 13.89 14.02 14.04 14.16 14.26 14.4 14.6
1302.307 14.62 14.54 14.4 14.09 13.75 13.36 12.78 12.22 11.7 11.22
1321.600 10.86 10.57 10.44 10.43 10.47 10.62 10.96 11.4 11.87 12.48
1340.894 13.16 13.69 14.13 14.46 14.77 15.05 15.14 15.1 15.04 15
1360.187 15.08 15.3 15.67 16.07 16.37 16.58 16.7 16.88 17.3 18.02
1379.480 19.05 20.3 21.79 23.39 24.9 26.21 26.95 26.8 25.55 23.5
1398.774 21.14 18.85 17.01 15.62 14.68 14.13 13.78 13.46 13.04 12.43
1418.067 11.82 11.3 10.93 10.69 10.59 10.61 10.72 10.99 11.4 11.94
1437.361 12.74 13.75 14.89 16.14 17.48 18.82 20.1 21.31 22.5 23.59
1456.654 24.57 25.42 25.79 25.51 24.59 23.16 21.33 19.18 16.92 14.73
1475.948 12.83 11.31 10.06 8.99 8.2 7.56 6.98 6.44 5.97 5.62
1495.241 5.29 4.96 4.77 4.63 4.4 4.12 3.87 3.67 3.54 3.46
1514.534 3.33 3.21 3.1 2.97 2.86 2.77 2.7 2.5785 2.517 2.5165
1533.828 2.4413 2.319 2.2827 2.1962 2.1263 2.069 2.0053 2.0266 2.0505 1.9742
1553.121 1.8114 1.824 1.8728 1.8034 1.8043 1.7921 1.74011 1.68901 1.6174 1.548
1572.415 1.561 1.5929 1.579 1.527 1.487 1.524 1.487 1.427 1.423 1.399
1591.708 1.396 1.354 1.345 1.374 1.329 1.374 1.396 1.323 1.319 1.296
1611.002 1.222 1.213 1.224 1.228 1.228 1.219 1.242 1.267 1.262 1.248
1630.295 1.209 1.186 1.191 1.145 1.11 1.07 1.07 1.13 1.094 1.052
1649.588 1.044 0.998 0.997 1.062 1.131 1.149 1.133 1.183 1.167 1.124
1668.882 1.19 1.208 1.184 1.18 1.172 1.167 1.254 1.324 1.33 1.336
1688.175 1.352 1.375 1.389 1.418 1.383 1.376 1.444 1.508 1.565 1.558
1707.469 1.517 1.541 1.6047 1.6346 1.626 1.6164 1.6658 1.71528 1.77665 1.814
1726.762 1.7974 1.76317 1.74549 1.70586 1.70127 1.76519 1.74585 1.74113 1.73925 1.68568
1746.056 1.6356 1.6274 1.6116 1.5995 1.6246 1.6083 1.5967 1.576 1.551 1.538
1765.349 1.504 1.477 1.48 1.465 1.427 1.411 1.363 1.344 1.377 1.422
1784.642 1.414 1.392 1.447 1.471 1.427 1.383 1.377 1.396 1.43 1.501
1803.936 1.516 1.498 1.503 1.514 1.48 1.509 1.575 1.581 1.6121 1.6451
1823.229 1.6775 1.70767 1.72924 1.77487 1.8047 1.8026 1.8735 1.9409 1.9661 1.9965
1842.523 2.0205 2.0914 2.1784 2.2126 2.2175 2.2321 2.2842 2.3417 2.3958 2.4308
1861.816 2.424 2.5076 2.5702 2.5725 2.6083 2.6153 2.5665 2.5616 2.5563 2.5523
1881.110 2.6188 2.6617 2.71 2.72 2.73 2.73 2.6684 2.6532 2.6531 2.6073
1900.403 2.5506 2.5248 2.5063 2.4513 2.3509 2.2931 2.2628 2.1884 2.1154 2.0923
1919.696 2.0199 1.8894 1.8424 1.8298 1.7624 1.6902 1.6427 1.587 1.498 1.398
1938.990 1.348 1.289 1.225 1.167 1.163 1.145 1.109 1.072 1.03 1.005
1958.283 0.947 0.94 0.889 0.845 0.824 0.798 0.833 0.858 0.853 0.835
1977.577 0.805 0.832 0.849 0.83 0.797 0.696 0.66 0.746 0.793 0.744
1996.870 0.704 0.736 0.758 0.71 0.66 0.65 0.68 0.723 0.743 0.742
2016.164 0.745 0.757 0.757 0.733 0.739 0.74 0.766 0.826 0.811 0.779
2035.457 0.792 0.784 0.738 0.729 0.748 0.741 0.757 0.746 0.714 0.722
2054.750 0.754 0.732 0.66 0.67 0.66 0.62 0.58 0.59 0.65 0.66
2074.044 0.64 0.67 0.67 0.64 0.56 0.49 0.48 0.54 0.61 0.6
2093.337 0.56 0.55 0.6 0.61 0.6 0.59 0.55 0.55 0.57 0.58
2112.631 0.59 0.59 0.56 0.52 0.48 0.52 0.55 0.5 0.55 0.6
2131.924 0.58 0.6 0.62 0.62 0.6 0.58 0.57 0.57 0.66 0.702
2151.218 0.68 0.707 0.72 0.66 0.65 0.714 0.745 0.809 0.827 0.759
2170.511 0.765 0.828 0.87 0.884 0.875 0.893 0.884 0.886 0.893 0.868
2189.804 0.902 0.971 0.936 0.868 0.841 0.849 0.923 0.925 0.874 0.872
2209.098 0.912 0.909 0.835 0.844 0.876 0.838 0.826 0.813 0.817 0.814
2228.391 0.769 0.787 0.842 0.829 0.801 0.834 0.807 0.784 0.785 0.738
2247.685 0.721 0.748 0.769 0.767 0.797 0.823 0.821 0.798 0.768 0.767
2266.978 0.763 0.739 0.738 0.78 0.771 0.7 0.711 0.724 0.708 0.69
2286.272 0.711 0.726 0.69 0.66 0.64 0.691 0.69 0.703 0.767 0.772
2305.565 0.781 0.763 0.736 0.757 0.8 0.788 0.791 0.824 0.821 0.846
2324.858 0.819 0.783 0.815 0.839 0.834 0.794 0.773 0.774 0.756 0.72
2344.152 0.65 0.68 0.709 0.704 0.706 0.64 0.62 0.64 0.61 0.54
2363.445 0.58 0.55 0.49 0.51 0.51 0.5 0.54 0.57 0.53 0.51
2382.739 0.52 0.55 0.57 0.57 0.59 0.58 0.58 0.6 0.57 0.53
2402.032 0.55 0.6 0.58 0.54 0.56 0.61 0.62 0.61 0.58 0.57
2421.326 0.6 0.63 0.66 0.66 0.702 0.695 0.67 0.722 0.748 0.79
2440.619 0.852 0.871 0.876 0.876 0.845 0.804 0.862 0.877 0.816 0.855
2459.912 0.913 0.844 0.77 0.755 0.759 0.769 0.735 0.69 0.691 0.716
2479.206 0.724 0.736 0.737 0.69 0.66 0.695 0.694 0.65 0.64 0.68
2498.499 0.69 0.65 0.6 0.64 0.721 0.783 0.776 0.792 0.847 0.837
2517.793 0.876 0.865 0.842 0.879 0.91 0.954 0.925 0.911 0.963 1
2537.086 0.987 0.988 1.046 1.076 1.074 1.034 1.038 1.079 1.112 1.107
2556.380 1.115 1.191 1.235 1.242 1.227 1.238 1.327 1.344 1.285 1.338
2575.673 1.418 1.439 1.433 1.416 1.484 1.583 1.583 1.6113 1.6492 1.6757
2594.966 1.69973 1.70861 1.78304 1.8699 1.9884 2.0429 2.0152 2.0758 2.1101 2.0751
2614.260 2.1615 2.3165 2.3579 2.3656 2.465 2.5136 2.4262 2.4152 2.5411 2.5862
2633.553 2.5707 2.6155 2.6123 2.6495 2.81 2.88 2.87 2.88 2.91 2.95
2652.847 2.96 2.99 3.12 3.16 3.15 3.22 3.25 3.34 3.48 3.51
2672.140 3.47 3.52 3.63 3.71 3.68 3.66 3.78 3.81 3.72 3.73
2691.434 3.74 3.77 3.8 3.77 3.76 3.79 3.77 3.78 3.91 3.99
2710.727 4.01 4.1 4.29 4.52 4.59 4.76 5.01 5.02 5.1 5.2
2730.020 5.36 5.57 5.72 5.83 5.93 6.08 6.15 6.21 6.35 6.35
2749.314 6.36 6.39 6.38 6.48 6.66 6.71 6.75 6.94 7.14 7.23
2768.607 7.29 7.38 7.54 7.64 7.74 7.9 7.92 7.93 8.16 8.43
2787.901 8.69 9.01 9.31 9.62 9.97 10.37 10.78 11.09 11.47 11.97
2807.194 12.43 12.88 13.45 14.02 14.61 15.44 16.34 17.14 17.96 18.85
2826.488 19.85 20.98 22.27 23.71 25.44 27.56 30.08 33.12 36.89 41.56
2845.781 47.47 55.17 64.7 76.5 90.8 106.61 122.03 134.57 142.15 143.9
2865.074 140.67 134.33 126.65 118.85 111.88 106.43 102.57 100.22 99.33 99.54
2884.368 100.28 101.37 102.74 104.16 105.84 107.76 110.3 113.83 118.4 124.1
2903.661 130.96 138.65 147.04 156.15 165.92 177.19 190.7 207.19 227.78 253.31
2922.955 283.52 317.17 351.31 380.7 399.19 402.69 390.99 366.82 334.66 298.92
2942.248 263.28 230.15 200.69 175.39 154.68 138.35 125.81 116.79 110.78 107.22
2961.542 105.66 105.33 105.78 106.61 107.23 107.44 107.07 105.84 103.42 99.15
2980.835 92.79 85.1 77.04 69.42 62.68 56.87 51.73 47.24 43.33 39.93
3000.128 36.87 33.96 31.29 28.97 26.79 24.67 22.91 21.42 19.9 18.3
3019.422 16.88 15.79 14.81 13.92 13.07 12.16 11.38 10.77 10.18 9.57
3038.715 9.01 8.55 7.99 7.51 7.29 6.97 6.5 6.17 5.88 5.56
3058.009 5.42 5.22 5.02 4.84 4.55 4.29 4.18 4.11 3.85 3.72
3077.302 3.71 3.61 3.51 3.41 3.32 3.25 3.23 3.1 3.09 3.04
3096.596 2.93 2.9 2.75 2.7 2.6126 2.4583 2.506 2.5152 2.3918 2.3061
3115.889 2.2546 2.1293 2.094 2.1268 2.0386 1.96 1.98 1.9383 1.78841 1.796
3135.182 1.78446 1.76302 1.9287 1.8311 1.70734 1.7957 1.73679 1.72704 1.7926 1.6197
3154.476 1.475 1.444 1.349 1.396 1.36 1.299 1.341 1.351 1.418 1.377
3173.769 1.364 1.342 1.3 1.308 1.189 1.096 1.111 1.165 1.168 1.227
3193.063 1.204 1.112 1.087 1.105 1.152 1.227 1.257 1.224 1.189 1.182
3212.356 1.066 0.886 0.882 0.933 0.955 0.954 0.85 0.729 0.707 0.713
3231.650 0.778 0.767 0.739 0.67 0.52 0.69 0.802 0.54 0.44 0.63
3250.943 0.67 0.56 0.57 0.56 0.37 0.31 0.39 0.28 0.19 0.26
3270.236 0.33 0.23 0.17 0.3 0.53 0.55 0.55 0.57 0.35 0.19
3289.530 0.21 0.46 0.49 0.33 0.33 0.37 0.28 0.27 0.3 0.19
3308.823 0.1 0.19 0.31 0.31 0.37 0.4 0.3 0.22 0.23 0.12
3328.117 0.13 0.21 0.15 0.26 0.36 0.25 0.26 0.36 0.35 0.47
3347.410 0.44 0.25 0.27 0.36 0.47 0.51 0.39 0.44 0.49 0.49
3366.704 0.43 0.48 0.48 0.36 0.4 0.47 0.48 0.58 0.55 0.45
3385.997 0.42 0.49 0.53 0.51 0.45 0.36 0.43 0.43 0.48 0.43
3405.290 0.31 0.41 0.55 0.47 0.33 0.36 0.39 0.36 0.29 0.3
3424.584 0.26 0.15 0.24 0.43 0.51 0.48 0.48 0.4 0.34 0.29
3443.877 0.29 0.37 0.38 0.55 0.39 0.13 0.23 0.31 0.34 0.2
3463.171 0.27 0.29 0.24 0.28 0.13 0.03 0.13 0.15 0.13 0.12
3482.464 0.15 0.24 0.38 0.38 0.22 0.17 0.21 0.24 0.21 0.12
3501.758 0.09 0.08 0.11 0.24 0.17 0.1 0.06 0.01 0 0.16
3521.051 0.28 0.21 0.28 0.37 0.3 0.24 0.24 0.18 0.17 0.24
3540.344 0.34 0.32 0.27 0.28 0.36 0.44 0.32 0.28 0.33 0.19
3559.638 0.1 0.18 0.3 0.42 0.4 0.18 0.12 0.32 0.47 0.42
3578.931 0.31 0.27 0.28 0.33 0.42 0.39 0.38 0.53 0.55 0.5
3598.225 0.42 0.5 0.61 0.45 0.4 0.49 0.57 0.6 0.51 0.59
3617.518 0.66 0.52 0.53 0.5 0.49 0.47 0.41 0.57 0.66 0.62
3636.812 0.75 0.859 0.68 0.53 0.38 0.33 0.48 0.61 0.66 0.58
3656.105 0.6 0.71 0.695 0.6 0.52 0.55 0.6 0.56 0.62 0.63
3675.398 0.64 0.767 0.753 0.72 0.64 0.51 0.56 0.52 0.49 0.49
3694.692 0.53 0.68 0.68 0.704 0.753 0.66 0.59 0.54 0.62 0.68
3713.985 0.695 0.68 0.65 0.703 0.59 0.55 0.696 0.67 0.61 0.65
3733.279 0.62 0.693 0.728 0.758 0.708 0.54 0.6 0.753 0.66 0.67
3752.572 0.735 0.61 0.64 0.707 0.72 0.66 0.49 0.5 0.61 0.65
3771.866 0.74 0.757 0.63 0.6 0.68 0.64 0.67 0.748 0.65 0.62
3791.159 0.65 0.716 0.785 0.67 0.62 0.762 0.68 0.52 0.62 0.722
3810.452 0.698 0.67 0.69 0.63 0.61 0.705 0.68 0.718 0.708 0.65
3829.746 0.695 0.723 0.691 0.65 0.63 0.64 0.67 0.66 0.65 0.64
3849.039 0.735 0.779 0.66 0.62 0.738 0.762 0.68 0.6 0.64 0.739
3868.333 0.72 0.716 0.734 0.68 0.8 0.894 0.848 0.885 0.821 0.879
3887.626 0.922 0.862 0.84 0.834 0.863 0.835 0.809 0.835 0.86 0.806
3906.920 0.8 0.834 0.691 0.67 0.829 0.784 0.695 0.69 0.67 0.695
3926.213 0.713 0.703 0.757 0.885 0.96 0.957 0.927 0.874 0.797 0.773
3945.506 0.822 0.854 0.891 0.891 0.899 0.896 0.876 0.925 0.947 0.942
3964.800 1.021 0.975 0.863 0.928 1.025 1.123 1.173 1.199 1.199 1.186
3984.093 1.186 1.198 1.257 1.169 1.142 1.229 1.306 1.341 1.45
##END=
