##TITLE=Molindone
##JCAMP-DX=4.24
##DATA TYPE=INFRARED SPECTRUM
##ORIGIN=NIST Mass Spectrometry Data Center
##OWNER=NIST Standard Reference Data Program
Collection (C) 2018 copyright by the U.S. Secretary of Commerce
on behalf of the United States of America. All rights reserved.
##CAS REGISTRY NO=7416-34-4
##MOLFORM=C 16 H 24 N 2 O 2
##$NIST SOURCE=MSDC-IR
##SPECTROMETER/DATA SYSTEM=HP-GC/MS/IRD
##STATE=gas
##XUNITS=1/CM
##YUNITS=ABSORBANCE
##XFACTOR=1.0
##YFACTOR=0.000000800
##DELTAX=4.0
##FIRSTX=550.0
##LASTX=3846.0
##FIRSTY=0.000415
##MAXX=3846
##MINX=550
##MAXY=0.008
##MINY=0
##NPOINTS=825
##XYDATA=(X++(Y..Y))
550.0 519 453 508 412 327 421 410 370 418 381
590.0 249 257 326 310 334 463 639 727 668 601
630.0 518 423 440 386 233 161 146 118 45 57
670.0 103 72 82 99 115 174 215 223 150 137
710.0 221 228 213 223 198 240 290 358 431 407
750.0 402 485 528 515 505 438 333 308 383 416
790.0 454 657 921 995 946 804 546 386 295 282
830.0 283 249 265 305 334 369 471 614 935 1374
870.0 1593 1391 1035 829 770 806 834 848 852 804
910.0 750 753 810 862 934 1016 1201 1441 1670 1920
950.0 2118 2191 2156 2133 2084 1990 1807 1583 1408 1288
990.0 1259 1324 1439 1597 1821 1961 1807 1558 1432 1390
1030.0 1368 1207 999 880 828 917 1046 1172 1295 1327
1070.0 1283 1154 1014 904 927 984 1025 1246 1537 1893
1110.0 2448 3183 4038 4633 4718 4467 4055 3484 2858 2282
1150.0 1790 1460 1179 965 810 711 653 578 554 558
1190.0 525 511 508 515 576 607 570 557 537 528
1230.0 527 585 656 651 632 635 665 709 814 992
1270.0 1177 1323 1441 1496 1475 1367 1225 1115 992 896
1310.0 840 832 890 993 1094 1141 1137 1142 1190 1403
1350.0 1760 2115 2408 2531 2419 2068 1655 1324 1161 1159
1390.0 1152 1048 882 775 728 747 816 912 1159 1602
1430.0 2322 3363 4457 5074 5068 4813 4763 5113 5691 5913
1470.0 5196 3770 2473 1681 1206 945 755 630 594 549
1510.0 562 612 659 785 987 1150 1185 1003 762 617
1550.0 485 356 257 276 285 254 240 248 288 329
1590.0 398 471 512 522 544 569 565 614 685 702
1630.0 712 702 730 800 896 1062 1397 1925 2787 4245
1670.0 6536 8933 10000 9006 6572 4205 2560 1593 1135 885
1710.0 665 500 397 351 304 235 190 192 215 220
1750.0 182 166 162 148 137 105 95 95 93 119
1790.0 119 103 101 89 80 74 71 65 68 84
1830.0 77 85 96 84 77 95 118 121 110 98
1870.0 104 101 66 61 75 84 94 80 81 80
1910.0 75 80 73 81 99 103 94 85 94 113
1950.0 112 94 81 86 95 77 59 68 84 101
1990.0 111 82 78 98 95 81 70 67 57 43
2030.0 42 45 53 61 63 67 63 60 45 53
2070.0 70 67 71 68 52 50 39 50 79 67
2110.0 65 75 73 79 78 80 76 76 60 31
2150.0 48 57 62 60 58 72 77 76 73 76
2190.0 80 67 49 45 35 36 33 35 53 61
2230.0 74 72 88 99 75 63 65 66 70 92
2270.0 102 84 89 92 70 62 64 70 84 87
2310.0 68 61 59 58 56 52 36 35 41 42
2350.0 44 39 39 37 54 59 67 76 62 67
2390.0 61 40 50 74 67 57 57 67 77 76
2430.0 82 79 55 41 46 50 28 25 32 35
2470.0 53 58 49 43 45 57 70 72 58 35
2510.0 31 38 54 57 63 73 61 60 69 62
2550.0 51 56 73 75 83 70 42 47 63 88
2590.0 100 95 81 75 78 89 93 98 119 163
2630.0 199 203 201 200 227 266 285 276 284 307
2670.0 318 322 346 381 398 405 379 366 364 386
2710.0 423 447 468 485 529 597 612 608 639 715
2750.0 779 819 891 902 923 973 1003 1063 1139 1235
2790.0 1393 1608 1938 2391 2847 3099 3057 2776 2463 2320
2830.0 2273 2309 2541 2905 3349 3967 4654 5060 5015 4603
2870.0 4187 3905 3652 3451 3301 3235 3310 3485 3698 3900
2910.0 4207 4725 5373 6096 6722 7032 7077 6893 6381 5667
2950.0 5126 4890 5068 5789 6567 6463 5154 3630 2667 2093
2990.0 1604 1228 977 826 700 598 517 473 473 447
3030.0 428 416 374 334 310 297 263 240 219 222
3070.0 189 137 189 197 147 139 138 148 146 143
3110.0 167 153 139 118 117 126 107 106 93 94
3150.0 110 99 109 129 139 116 63 32 48 80
3190.0 92 86 133 137 100 80 41 46 75 104
3230.0 109 103 79 35 57 93 82 61 75 114
3270.0 98 78 101 120 113 112 99 104 82 72
3310.0 79 88 119 123 98 79 100 117 141 153
3350.0 106 107 118 118 93 50 66 76 98 146
3390.0 116 87 90 91 93 57 72 63 70 94
3430.0 93 125 138 145 183 221 267 352 471 559
3470.0 654 815 1057 1465 1982 2243 1913 1199 645 393
3510.0 260 171 106 130 126 77 68 33 25 48
3550.0 58 78 80 46 37 47 77 59 34 71
3590.0 50 12 47 94 112 68 65 60 23 10
3630.0 29 53 82 120 100 104 102 68 71 85
3670.0 59 41 70 101 48 2 41 46 16 17
3710.0 39 54 87 101 75 53 35 29 7 31
3750.0 72 77 88 105 98 60 60 72 38 0
3790.0 9 43 64 57 88 112 79 43 68 98
3830.0 114 97 80 68 51
##END=
