##TITLE=2-Ethoxyphenylacetonitrile
##JCAMP-DX=4.24
##DATA TYPE=INFRARED SPECTRUM
##ORIGIN=EPA-IR VAPOR PHASE LIBRARY
##OWNER=SRD/NIST
Collection (C) 2018 copyright by the U.S. Secretary of Commerce
on behalf of the United States of America. All rights reserved.
##CAS REGISTRY NO=74205-51-9
##MOLFORM=C 10 H 11 N O
##$NIST SOURCE=MSDC-IR
##STATE=gas
##XUNITS=1/CM
##YUNITS=ABSORBANCE
##XFACTOR=1.
##YFACTOR=0.001
##DELTAX=1.92898
##FIRSTX=549.8
##LASTX=4000.7
##FIRSTY=1.1988
##MAXX=4000.7
##MINX=549.759
##MAXY=0.0905988
##MINY=0
##NPOINTS=1790
##XYDATA=(X++(Y..Y))
549.759 1.1988 1.0866 0.9502 1.1488 0.8436 0.6352 0.8412 1.0226 1.0096 1.0691
569.049 1.3788 1.2388 0.9625 1.0374 1.0988 1.2688 1.5588 1.7588 1.8388 1.7488
588.339 1.6688 1.8988 2.2288 2.2188 2.1988 2.2488 2.4388 2.3388 1.9188 1.9488
607.628 2.1088 1.9788 1.8688 1.8688 1.7388 1.7088 1.8888 1.7988 1.6588 1.5088
626.918 1.2488 1.1388 1.0801 1.0888 0.9714 0.7512 0.7164 0.8323 0.8487 0.6064
646.208 0.6486 0.7152 0.7214 0.7639 0.6393 0.7869 0.926 0.7304 0.6526 0.6768
665.498 0.809 0.9379 0.9215 0.9869 0.9773 0.8921 0.9945 1.03 0.9935 1.0748
684.787 1.1588 1.2988 1.5988 1.7988 1.8188 1.9388 2.2388 2.4888 2.7188 3.0688
704.077 3.4088 3.7888 4.0688 4.4688 4.8588 5.1888 5.6188 5.8988 6.2788 7.0488
723.367 7.8288 8.6888 9.5888 10.4888 11.5688 12.9488 14.8088 16.8688 19.4188 22.0488
742.657 24.5888 27.5088 30.8488 34.1988 35.1488 32.4688 28.9088 26.2288 23.4588 20.2488
761.947 17.0488 14.1588 11.6688 9.5088 8.0388 6.9388 5.9088 5.2688 4.7588 4.3488
781.236 3.9588 3.5788 3.2488 3.0588 2.7788 2.3488 2.1888 2.2188 2.3088 2.3088
800.526 2.2588 2.1088 2.0288 2.2688 2.3488 2.4088 2.6188 2.5688 2.4988 2.7188
819.816 2.9288 2.8288 2.6988 2.6388 2.4188 2.2788 2.2088 2.0788 2.0888 1.8688
839.106 1.6488 1.7088 1.9388 2.0088 1.9388 1.9488 1.9988 2.0288 2.0288 2.0088
858.395 1.8488 1.6388 1.6088 1.6188 1.4788 1.4088 1.5088 1.5888 1.8188 1.9888
877.685 2.1388 2.2688 2.2088 2.3188 2.5588 2.7588 3.2588 3.8188 4.0888 4.4288
896.975 4.7388 5.2188 5.8488 6.2388 6.5488 6.8688 7.0988 7.2188 7.4388 7.6988
916.265 7.9788 8.2788 8.4088 8.4588 8.3888 8.3088 8.1288 7.7888 7.4088 7.0188
935.555 6.7488 6.3788 5.8888 5.4588 5.0088 4.6388 4.3388 3.9888 3.5288 3.0088
954.844 2.5988 2.3188 2.0988 1.9688 1.9788 1.7888 1.5688 1.7688 1.9488 1.7288
974.134 1.7988 1.8788 1.7388 1.7488 1.8788 1.8788 1.9188 2.0388 1.9888 2.2788
993.424 2.5688 2.7588 2.9788 3.1588 3.5488 3.9188 4.2488 4.8288 5.3988 5.9888
1012.714 6.6188 7.4188 8.6388 10.0288 11.2788 12.8788 14.5388 16.5088 18.8288 20.9888
1032.003 23.2288 25.3488 27.4088 29.2988 30.9888 32.0188 32.0388 31.5988 30.3188 28.0588
1051.293 25.5088 22.7488 19.6888 16.6888 13.9188 11.6288 10.0488 8.8988 7.9188 6.9788
1070.583 6.4388 6.3888 6.4488 6.4488 6.1788 6.4288 6.7388 6.5988 7.0688 7.7288
1089.873 8.6588 9.7988 11.0988 12.7788 14.7288 17.1088 19.9888 22.8588 25.1688 27.4688
1109.163 29.6988 31.0588 31.5988 31.4888 30.2388 28.2088 25.9588 23.5188 20.7488 17.9588
1128.452 15.3088 12.3788 10.1688 8.7288 7.4088 6.5088 5.8088 5.3988 5.1988 5.0088
1147.742 5.0088 5.2888 5.4988 5.7388 6.1388 6.2788 6.3288 6.5788 6.6488 6.3688
1167.032 6.2888 6.4588 6.6788 6.9788 7.0288 6.6588 6.4788 6.5688 6.5488 6.3588
1186.322 6.2488 6.1288 5.8588 5.5388 5.6088 5.9288 5.9888 6.2288 6.7388 7.3788
1205.611 7.8888 8.3988 9.3288 10.6988 12.4788 14.2988 16.5688 19.5688 23.2188 27.6588
1224.901 32.8388 38.9988 45.8588 53.2988 60.9688 68.2688 75.2788 81.5388 86.4788 89.6188
1244.191 90.5988 89.6788 86.9588 82.4188 76.2288 68.6288 60.4888 52.3588 44.4688 37.3688
1263.481 31.3988 26.6288 23.3488 21.1288 19.4388 18.4488 17.8088 17.2388 17.0488 17.1388
1282.771 17.2288 17.4188 17.5588 17.6388 17.7888 17.8088 17.7188 17.5888 17.3688 17.0288
1302.060 16.4988 15.7888 14.9788 14.1088 13.3188 12.6788 12.0888 11.5488 11.1588 10.8488
1321.350 10.5588 10.2488 9.8488 9.4488 8.9888 8.3888 7.7288 7.0488 6.3688 5.7388
1340.640 5.2288 4.8788 4.6188 4.3688 4.1688 4.0788 3.9888 3.8888 3.8788 3.8688
1359.930 3.9088 3.9888 4.0688 4.1588 4.3188 4.5488 4.8588 5.2288 5.6888 6.2688
1379.219 6.9688 7.7788 8.6188 9.5788 10.6088 11.5288 12.3088 12.9288 13.3488 13.4888
1398.509 13.3388 12.9588 12.3788 11.6288 10.8188 10.0688 9.3888 8.8088 8.5288 8.6088
1417.799 8.8888 9.1588 9.3488 9.3688 9.2288 9.0888 8.8788 8.5888 8.3588 8.2488
1437.089 8.3888 9.0588 10.2088 11.8788 14.2188 17.0888 20.2788 23.0988 25.0288 26.0088
1456.378 26.2988 26.0488 25.1988 23.8588 21.9388 19.6288 17.7988 17.1288 17.8488 19.7388
1475.668 22.2488 24.9688 28.0488 31.6288 35.6188 39.8488 43.7488 46.4988 47.9388 48.2888
1494.958 47.7888 46.5188 44.2288 40.7188 36.1488 31.0388 25.8988 21.3688 17.5688 14.2688
1514.248 11.6188 9.5688 7.8988 6.6188 5.5588 4.8388 4.3688 3.9188 3.5888 3.3988
1533.538 3.2288 3.0788 3.0088 2.9288 2.8188 2.8288 2.9188 2.8888 2.8888 2.9688
1552.827 3.0588 3.0988 3.1788 3.2988 3.4388 3.7388 3.9688 4.3088 4.7888 5.4388
1572.117 6.3088 7.2588 8.4988 9.8688 11.3088 12.9588 14.5988 16.1188 17.5488 18.7988
1591.407 19.8888 20.6988 20.8888 20.5288 19.7388 18.4188 16.7988 15.1988 13.5888 11.8988
1610.697 10.3088 8.6188 6.9888 5.6788 4.6388 3.8288 3.2588 2.8788 2.5188 2.2588
1629.986 2.1488 2.0688 1.9388 1.8088 1.7388 1.6188 1.5688 1.5788 1.5988 1.5588
1649.276 1.5088 1.5288 1.5288 1.5588 1.5688 1.5388 1.5888 1.5888 1.5788 1.5988
1668.566 1.5988 1.5888 1.5088 1.4888 1.4888 1.5088 1.5188 1.4988 1.5488 1.5088
1687.856 1.4388 1.4488 1.4488 1.4388 1.3888 1.3088 1.2988 1.2688 1.2488 1.2688
1707.146 1.2388 1.2288 1.1888 1.1888 1.2088 1.1588 1.1388 1.1288 1.1288 1.1188
1726.435 1.082 1.0708 1.1188 1.0841 1.0538 1.0988 1.0658 1.0433 0.9911 1.0025
1745.725 1.084 1.0681 1.0414 1.0502 1.0861 1.1488 1.1588 1.1288 1.075 1.1288
1765.015 1.2388 1.2288 1.2088 1.2688 1.2888 1.2488 1.2688 1.3588 1.3588 1.3488
1784.305 1.3488 1.3488 1.3288 1.2588 1.2388 1.2088 1.1888 1.2088 1.1588 1.0988
1803.594 1.1288 1.1288 1.0479 1.0988 1.1188 1.0277 1.0117 0.9611 0.9157 0.9731
1822.884 1.0177 0.9723 0.9142 0.8731 0.8761 0.8857 0.9281 0.9504 0.9237 0.9778
1842.174 0.9661 0.9413 0.9863 0.9724 0.9804 1.0327 1.0493 1.0193 1.0291 1.0442
1861.464 1.054 1.0845 1.1088 1.1588 1.1988 1.1988 1.2288 1.2388 1.2788 1.3188
1880.754 1.3588 1.4188 1.3988 1.3888 1.4488 1.4888 1.5088 1.4988 1.4788 1.4888
1900.043 1.4688 1.4588 1.4788 1.5488 1.5888 1.5888 1.5688 1.5788 1.5888 1.5488
1919.333 1.5088 1.5588 1.5988 1.6788 1.7988 1.8188 1.8088 1.7788 1.7388 1.6988
1938.623 1.6188 1.4888 1.3688 1.2588 1.084 1.0153 1.0319 0.9538 0.9426 0.9248
1957.913 0.8595 0.8612 0.8778 0.8325 0.7963 0.7836 0.7897 0.8561 0.8373 0.7863
1977.202 0.8115 0.903 0.914 0.8951 0.9117 0.8816 0.8429 0.8499 0.8646 0.8582
1996.492 0.8528 0.8109 0.8087 0.9024 0.9303 0.8571 0.9058 0.9838 0.9378 0.9055
2015.782 0.9104 0.9635 0.9679 0.9354 0.931 0.889 0.8484 0.8565 0.9167 0.9491
2035.072 0.9258 0.9186 0.8283 0.7758 0.8218 0.8824 0.9058 0.8971 0.9363 0.9856
2054.362 0.9631 0.9559 1.0212 1.0207 1.0144 0.9503 0.9109 0.888 0.8617 0.8833
2073.651 0.8436 0.8058 0.7998 0.7723 0.7331 0.7475 0.7584 0.6864 0.6517 0.6412
2092.941 0.6146 0.6158 0.5959 0.5862 0.5813 0.5834 0.617 0.6133 0.548 0.4968
2112.231 0.5189 0.5436 0.5425 0.544 0.509 0.5126 0.5425 0.5431 0.523 0.5124
2131.521 0.5381 0.5447 0.5112 0.4691 0.4547 0.4609 0.5135 0.4876 0.4385 0.4944
2150.810 0.505 0.4647 0.4592 0.4636 0.4333 0.4471 0.4648 0.407 0.4205 0.4595
2170.100 0.4321 0.3654 0.3607 0.4124 0.4426 0.4213 0.385 0.4103 0.4613 0.4387
2189.390 0.3825 0.3558 0.3629 0.4265 0.4497 0.4823 0.4463 0.4514 0.4961 0.4788
2208.680 0.5224 0.5669 0.5401 0.5442 0.5662 0.5724 0.6047 0.5835 0.5735 0.6275
2227.970 0.6459 0.6571 0.7403 0.8433 0.9408 0.9734 1.0116 1.1288 1.2988 1.4588
2247.259 1.5788 1.6888 1.7588 1.7888 1.8188 1.8288 1.7588 1.6888 1.5688 1.4588
2266.549 1.3188 1.1488 1.0428 0.9895 0.9247 0.7873 0.746 0.7405 0.722 0.7025
2285.839 0.6903 0.6933 0.6249 0.5662 0.5576 0.5338 0.4884 0.5529 0.5761 0.4858
2305.129 0.4534 0.5276 0.5601 0.5195 0.5622 0.5866 0.6221 0.7065 0.6333 0.6022
2324.418 0.7188 0.7452 0.6892 0.6185 0.5949 0.6401 0.6974 0.7227 0.6597 0.5857
2343.708 0.5319 0.509 0.5126 0.4985 0.4943 0.4489 0.4928 0.5874 0.5658 0.4843
2362.998 0.5007 0.5086 0.4513 0.4211 0.4474 0.462 0.4882 0.4722 0.4245 0.4671
2382.288 0.479 0.4913 0.4811 0.473 0.4972 0.4586 0.4873 0.5011 0.4775 0.5732
2401.578 0.625 0.6319 0.6537 0.6421 0.669 0.6786 0.6259 0.599 0.6033 0.596
2420.867 0.6047 0.6006 0.548 0.5258 0.5428 0.5748 0.539 0.5327 0.5983 0.6589
2440.157 0.6578 0.5912 0.5914 0.5975 0.6145 0.5807 0.4756 0.5886 0.6756 0.6142
2459.447 0.6061 0.6533 0.7271 0.7309 0.7522 0.7469 0.7805 0.8517 0.8969 0.9341
2478.737 0.8985 0.8803 0.8566 0.9075 0.9053 0.9175 0.9553 0.8604 0.8048 0.8012
2498.026 0.8238 0.8197 0.784 0.7852 0.7863 0.8375 0.8236 0.716 0.7142 0.6858
2517.316 0.7321 0.8287 0.7306 0.7447 0.812 0.8098 0.8557 0.8847 0.9527 0.9571
2536.606 0.888 0.9462 0.9338 0.89 0.8549 0.8007 0.8112 0.7669 0.7241 0.7377
2555.896 0.7844 0.7426 0.7088 0.694 0.6274 0.6352 0.6961 0.7274 0.6721 0.6037
2575.186 0.6088 0.5878 0.577 0.5717 0.5788 0.5973 0.5853 0.584 0.5755 0.5946
2594.475 0.6177 0.6536 0.6732 0.7091 0.6534 0.6048 0.6992 0.6739 0.6123 0.5692
2613.765 0.4951 0.4982 0.603 0.6356 0.539 0.5371 0.5151 0.5055 0.5848 0.5175
2633.055 0.4484 0.4475 0.453 0.4954 0.4805 0.3728 0.3803 0.4938 0.4842 0.4664
2652.345 0.5621 0.5539 0.4311 0.3029 0.3142 0.4211 0.4284 0.4034 0.4159 0.4492
2671.634 0.4024 0.4055 0.354 0.2864 0.3831 0.4428 0.4821 0.5441 0.4525 0.4315
2690.924 0.4817 0.4479 0.4663 0.5138 0.5841 0.5658 0.5825 0.614 0.6168 0.5924
2710.214 0.5491 0.63 0.6286 0.5898 0.5487 0.5917 0.7613 0.844 0.8748 0.9169
2729.504 1.0329 1.0311 0.9288 0.9321 1.0095 1.0699 1.0788 1.02 0.9848 0.926
2748.794 0.8894 1.0082 1.0604 0.9835 0.9021 0.934 0.9777 0.9337 0.8593 0.8882
2768.083 0.9783 0.967 0.9287 1.0093 1.0563 0.979 0.9694 0.9592 0.9524 0.9914
2787.373 1.0004 1.0318 1.0712 1.0888 1.0988 1.0506 1.0639 1.1088 1.0701 1.0682
2806.663 1.0475 1.0644 1.2188 1.2788 1.2988 1.3988 1.4488 1.5088 1.5488 1.6388
2825.953 1.7588 1.8488 1.9588 2.0388 2.0688 2.0788 2.0788 2.0988 2.1588 2.1688
2845.242 2.2088 2.3888 2.6188 2.6688 2.7588 2.9888 3.1788 3.3188 3.4288 3.5988
2864.532 3.8688 4.1688 4.5288 4.8788 5.2188 5.6588 6.1588 6.6788 7.2588 7.9188
2883.822 8.4888 8.9588 9.4388 9.9388 10.3288 10.4688 10.5388 10.5988 10.6988 10.7888
2903.112 10.7888 10.8188 10.8888 10.8788 10.9088 10.9888 11.0888 11.1688 11.3488 11.7188
2922.401 12.1688 12.6788 13.0688 13.4688 14.1488 14.8488 15.5388 16.2188 16.7388 16.8388
2941.691 16.7288 16.5688 16.1688 15.5788 14.8088 13.8988 12.9088 12.0888 11.3888 10.6688
2960.981 10.3488 10.2988 10.2688 10.4388 10.8288 11.4988 12.3188 13.3288 14.8388 16.4888
2980.271 17.9688 19.4988 20.8188 21.6688 22.1088 22.2888 22.1088 21.0088 18.7888 16.2988
2999.561 14.2188 12.4088 10.8588 9.5488 8.3788 7.3888 6.6688 6.4088 6.2688 5.9988
3018.850 5.9488 6.1188 6.2988 6.6088 6.9688 7.3188 7.8688 8.2288 8.4288 8.5488
3038.140 8.5688 8.4888 8.2488 8.0188 7.7888 7.4688 7.2188 7.0788 6.8088 6.7288
3057.430 6.8788 6.9988 7.1388 7.4488 7.9288 8.3888 8.9288 9.6288 10.1588 10.6088
3076.720 11.0088 11.1688 11.0788 10.7388 10.3788 9.8388 8.9688 7.9988 6.9688 6.0888
3096.009 5.3488 4.5188 3.9588 3.5788 3.2688 3.1488 3.0088 2.7988 2.6288 2.4288
3115.299 2.2188 1.9988 1.8188 1.7988 1.6688 1.3588 1.1888 1.1988 1.0683 0.8417
3134.589 0.7916 0.8502 0.8562 0.7993 0.7632 0.7961 0.7523 0.7502 0.8513 0.8263
3153.879 0.8063 0.8185 0.7625 0.7639 0.8465 0.8573 0.8094 0.7836 0.8113 0.9007
3173.169 0.8304 0.7567 0.7666 0.6574 0.6506 0.7511 0.6768 0.6552 0.8346 0.7533
3192.458 0.6336 0.6862 0.6908 0.6423 0.5947 0.536 0.5867 0.7253 0.7771 0.6747
3211.748 0.5468 0.6224 0.5652 0.4362 0.4505 0.534 0.5835 0.5838 0.524 0.4061
3231.038 0.4405 0.4368 0.4671 0.462 0.4667 0.437 0.3669 0.4444 0.4577 0.463
3250.328 0.4347 0.4083 0.4418 0.4498 0.3341 0.2611 0.2224 0.17283 0.2281 0.2884
3269.617 0.2929 0.3179 0.2606 0.2723 0.3255 0.2832 0.2199 0.205 0.2178 0.3893
3288.907 0.4246 0.3496 0.4041 0.341 0.4044 0.44 0.4775 0.4176 0.3125 0.343
3308.197 0.2787 0.3839 0.4491 0.3011 0.2851 0.2665 0.3163 0.3885 0.4201 0.4114
3327.487 0.3995 0.4984 0.3564 0.2324 0.2289 0.0639 0 0.0783 0.072 0.023
3346.777 0.087964 0.14973 0.2412 0.3094 0.2268 0.13275 0.2004 0.2917 0.2349 0.2609
3366.066 0.3019 0.4209 0.4802 0.2874 0.2491 0.309 0.3297 0.3342 0.2766 0.2827
3385.356 0.3058 0.4735 0.3843 0.2823 0.3968 0.2967 0.2399 0.2684 0.2467 0.16849
3404.646 0.2052 0.16069 0.0061 0.11204 0.3168 0.2398 0.13716 0.12359 0.1128 0.0781
3423.936 0.0497 0.0507 0.093403 0.2844 0.2998 0.2172 0.1983 0.2954 0.3562 0.3179
3443.225 0.2744 0.221 0.17403 0.13807 0.12604 0.13855 0.287 0.3459 0.2936 0.11467
3462.515 0.0613 0.18055 0.283 0.3245 0.248 0.2397 0.2256 0.2306 0.3735 0.2971
3481.805 0.2767 0.3594 0.2517 0.2169 0.2936 0.3325 0.2312 0.3157 0.4152 0.3185
3501.095 0.2855 0.2538 0.2469 0.2783 0.2056 0.2632 0.4182 0.3726 0.2602 0.2362
3520.385 0.2916 0.2351 0.2309 0.3979 0.4127 0.3732 0.3422 0.282 0.2472 0.1595
3539.674 0.1935 0.2619 0.2022 0.2686 0.3515 0.11885 0.12237 0.4232 0.4692 0.4646
3558.964 0.3735 0.289 0.2489 0.2331 0.2519 0.2349 0.2666 0.3693 0.3291 0.1934
3578.254 0.1941 0.2279 0.2197 0.2393 0.2657 0.16587 0.0788 0.17956 0.2468 0.2952
3597.544 0.2062 0.2637 0.3836 0.2798 0.3897 0.5408 0.4831 0.3832 0.2998 0.2659
3616.833 0.3029 0.2849 0.353 0.2419 0.0751 0.17763 0.2387 0.2278 0.2936 0.3197
3636.123 0.4789 0.5749 0.3999 0.3283 0.2454 0.2539 0.4358 0.3621 0.15051 0.16516
3655.413 0.16405 0.18718 0.3466 0.3085 0.234 0.3144 0.3644 0.3193 0.342 0.3404
3674.703 0.2772 0.229 0.13567 0.14907 0.232 0.2857 0.2979 0.2699 0.26 0.17158
3693.993 0.1983 0.2347 0.2873 0.4756 0.4984 0.4941 0.327 0.2256 0.2828 0.14588
3713.282 0.225 0.4788 0.4714 0.2642 0.2194 0.1987 0.16682 0.2427 0.2545 0.13757
3732.572 0.12535 0.2235 0.2534 0.2596 0.2606 0.2398 0.3043 0.2988 0.1752 0.3025
3751.862 0.3214 0.2715 0.2901 0.2331 0.16237 0.09822 0.14058 0.14961 0.2141 0.2593
3771.152 0.299 0.379 0.4498 0.5065 0.3567 0.14854 0.11681 0.14579 0.2533 0.3184
3790.441 0.2061 0.15319 0.2353 0.3431 0.2718 0.305 0.4595 0.3152 0.3096 0.4358
3809.731 0.4133 0.4664 0.3813 0.2102 0.2361 0.2183 0.18743 0.2284 0.3058 0.3318
3829.021 0.329 0.3209 0.2728 0.3313 0.4407 0.4729 0.5585 0.6121 0.3943 0.3414
3848.311 0.34 0.3416 0.4679 0.479 0.282 0.3515 0.5451 0.4444 0.3564 0.3115
3867.601 0.3387 0.4633 0.5326 0.4576 0.4404 0.4014 0.3319 0.3616 0.2793 0.4061
3886.890 0.5232 0.3762 0.3513 0.467 0.4487 0.2849 0.294 0.3233 0.4008 0.4962
3906.180 0.4655 0.3553 0.2225 0.2359 0.2808 0.4347 0.5503 0.4281 0.3939 0.3375
3925.470 0.2228 0.4522 0.6811 0.5943 0.4987 0.4185 0.3814 0.436 0.4604 0.3158
3944.760 0.2779 0.2701 0.259 0.2594 0.2028 0.2501 0.3209 0.3561 0.4919 0.5143
3964.049 0.3908 0.4318 0.4201 0.3463 0.318 0.4899 0.5221 0.3988 0.462 0.3945
3983.339 0.2304 0.2538 0.292 0.4187 0.3538 0.2275 0.3271 0.3232 0.384 0.4861
##END=
