##TITLE=Endrin aldehyde
##JCAMP-DX=4.24
##DATA TYPE=INFRARED SPECTRUM
##ORIGIN=NIST Mass Spectrometry Data Center
##OWNER=NIST Standard Reference Data Program
Collection (C) 2018 copyright by the U.S. Secretary of Commerce
on behalf of the United States of America. All rights reserved.
##CAS REGISTRY NO=7421-93-4
##MOLFORM=C 12 H 8 Cl 6 O
##$NIST SOURCE=MSDC-IR
##SPECTROMETER/DATA SYSTEM=HP-GC/MS/IRD
##STATE=gas
##XUNITS=1/CM
##YUNITS=ABSORBANCE
##XFACTOR=1.0
##YFACTOR=0.000001800
##DELTAX=4.0
##FIRSTX=550.0
##LASTX=3846.0
##FIRSTY=0.000655
##MAXX=3846
##MINX=550
##MAXY=0.018
##MINY=0
##NPOINTS=825
##XYDATA=(X++(Y..Y))
550.0 364 290 162 77 24 29 46 34 2 34
590.0 96 179 297 456 614 676 593 440 341 300
630.0 261 234 243 252 256 223 180 188 227 301
670.0 463 701 933 1070 1055 960 876 792 663 528
710.0 456 438 487 623 860 1210 1637 1976 2018 1776
750.0 1482 1245 1064 973 995 1057 1016 848 650 501
790.0 433 414 451 540 693 825 901 1005 1279 1785
830.0 2450 2955 2827 2107 1338 868 654 543 495 505
870.0 517 532 615 716 802 934 1202 1649 2285 2917
910.0 3109 2673 1889 1255 920 757 679 664 727 858
950.0 1022 1138 1170 1239 1375 1435 1284 993 739 606
990.0 567 574 618 737 955 1252 1544 1763 1843 1763
1030.0 1569 1390 1284 1322 1504 1833 2247 2612 2795 2793
1070.0 2705 2495 2233 2047 2033 2164 2256 2142 1837 1481
1110.0 1224 1135 1139 1103 989 873 825 888 1031 1102
1150.0 1028 921 887 856 810 810 925 1240 1735 2188
1190.0 2292 1917 1293 786 515 404 366 364 381 437
1230.0 524 595 673 757 871 1009 1125 1183 1150 1042
1270.0 927 829 777 756 722 684 687 701 637 513
1310.0 420 417 470 521 532 509 496 538 651 794
1350.0 937 1076 1198 1249 1191 1024 829 701 688 687
1390.0 606 437 287 218 187 176 173 157 150 147
1430.0 138 132 128 136 162 227 346 495 516 364
1470.0 199 117 100 91 72 66 68 64 58 38
1510.0 41 52 44 40 46 52 49 34 29 36
1550.0 41 33 13 29 54 49 31 35 49 56
1590.0 50 45 49 48 60 73 57 58 65 69
1630.0 69 58 75 87 89 98 113 143 166 181
1670.0 206 232 267 309 383 494 599 713 819 910
1710.0 1005 1133 1368 1765 2399 3559 5657 8343 10000 9264
1750.0 6761 4354 2890 2129 1728 1471 1250 1050 874 727
1790.0 597 484 401 336 286 261 232 201 182 166
1830.0 149 137 122 97 94 111 110 100 102 105
1870.0 97 96 100 92 79 80 86 83 79 78
1910.0 76 68 60 52 59 64 55 51 49 54
1950.0 58 60 59 51 47 49 49 47 50 53
1990.0 51 53 50 52 49 49 55 55 54 47
2030.0 48 51 49 49 43 40 45 44 47 48
2070.0 45 49 50 52 59 58 55 59 60 60
2110.0 53 44 46 48 39 45 50 58 64 55
2150.0 54 53 55 53 49 50 55 62 55 51
2190.0 50 50 50 44 32 27 39 49 51 40
2230.0 39 35 30 40 37 31 29 26 30 36
2270.0 37 37 32 25 28 28 18 21 26 37
2310.0 42 22 9 20 38 36 26 24 30 32
2350.0 23 24 23 17 14 12 17 23 26 32
2390.0 31 23 6 5 23 33 28 21 18 23
2430.0 27 34 37 27 28 27 26 31 34 27
2470.0 25 29 32 24 18 26 27 18 27 37
2510.0 30 27 30 34 28 24 32 33 33 31
2550.0 27 38 36 41 56 50 44 51 45 48
2590.0 71 75 72 71 80 92 90 98 113 125
2630.0 130 140 169 202 218 222 233 246 256 269
2670.0 307 360 412 469 535 620 714 792 907 1130
2710.0 1445 1728 1790 1571 1239 995 853 750 677 613
2750.0 555 500 469 461 464 470 482 500 539 608
2790.0 694 810 985 1291 1753 2140 2120 1703 1234 935
2830.0 767 660 581 526 491 459 433 406 406 454
2870.0 548 722 925 1019 944 769 634 587 578 562
2910.0 530 501 491 501 569 793 1347 2183 2681 2386
2950.0 1739 1317 1286 1594 1873 1677 1117 647 436 345
2990.0 341 468 614 600 414 252 154 118 129 118
3030.0 102 87 86 87 94 109 110 91 79 78
3070.0 85 82 73 89 98 86 76 67 62 63
3110.0 57 63 68 53 65 82 73 64 51 45
3150.0 58 63 59 62 69 58 48 46 43 40
3190.0 46 48 39 40 45 51 46 36 39 40
3230.0 34 40 52 56 34 25 40 32 18 24
3270.0 32 38 38 36 47 47 46 53 31 23
3310.0 30 31 33 26 38 46 44 50 48 35
3350.0 28 32 27 29 28 34 31 26 36 28
3390.0 30 53 57 54 51 49 58 61 58 49
3430.0 64 83 92 76 82 117 156 182 194 186
3470.0 155 154 154 125 105 106 99 74 50 49
3510.0 68 71 51 43 43 48 40 33 31 32
3550.0 33 18 19 33 29 18 8 16 32 39
3590.0 29 33 44 38 48 58 51 35 47 42
3630.0 13 46 50 25 25 14 11 16 18 10
3670.0 2 10 10 12 10 13 27 24 27 19
3710.0 10 26 27 19 33 35 9 23 13 2
3750.0 6 12 29 39 45 35 34 45 29 14
3790.0 29 29 8 0 31 70 67 46 33 41
3830.0 57 51 41 37 47
##END=
