##TITLE=p-Methoxybenzylidene p-phenylazoaniline
##JCAMP-DX=4.24
##DATA TYPE=INFRARED SPECTRUM
##ORIGIN=EPA-IR VAPOR PHASE LIBRARY
##OWNER=SRD/NIST
Collection (C) 2018 copyright by the U.S. Secretary of Commerce
on behalf of the United States of America. All rights reserved.
##CAS REGISTRY NO=744-66-1
##MOLFORM=C 20 H 17 N 3 O
##$NIST SOURCE=MSDC-IR
##STATE=gas
##XUNITS=1/CM
##YUNITS=ABSORBANCE
##XFACTOR=1.
##YFACTOR=0.001
##DELTAX=1.92898
##FIRSTX=549.8
##LASTX=4000.7
##FIRSTY=2.415
##MAXX=4000.7
##MINX=549.759
##MAXY=0.022925
##MINY=0
##NPOINTS=1790
##XYDATA=(X++(Y..Y))
549.759 2.415 2.435 2.505 2.295 2.385 2.705 2.745 2.665 2.625 2.685
569.049 2.885 2.945 2.885 3.005 3.065 2.815 2.495 1.865 1.405 1.355
588.339 1.145 0.7604 0.7274 1.0126 1.092 0.7805 0.6517 0.7893 0.833 0.6673
607.628 0.3788 0.3749 0.4827 0.475 0.4898 0.515 0.4126 0.4543 0.5328 0.6687
626.918 0.6919 0.4584 0.3088 0.5032 0.7206 0.6473 0.4948 0.4074 0.3953 0.3637
646.208 0.3847 0.5769 0.537 0.5102 0.6763 0.7464 0.6936 0.7295 0.8333 0.9234
665.498 1.1033 0.8336 0.7885 1.0723 1.115 1.335 1.605 1.925 2.115 2.155
684.787 2.525 2.675 2.505 2.345 2.085 1.925 1.745 1.505 1.275 1.165
704.077 1.245 1.325 1.0927 0.8502 0.6905 0.6397 0.8346 0.86 0.8216 0.8177
723.367 0.7125 0.634 0.9182 1.155 1.0842 0.9648 1.0108 1.235 1.325 1.185
742.657 1.185 1.255 1.205 1.375 1.605 1.815 1.905 1.985 2.195 2.395
761.947 2.505 2.515 2.525 2.395 2.185 1.985 1.635 1.475 1.335 1.0305
781.236 1.1108 1.235 1.109 1.155 1.0507 1.0258 1.0475 0.9892 0.9105 0.7799
800.526 0.8672 1.0558 1.245 1.305 1.405 1.635 1.635 1.685 1.845 2.205
819.816 2.675 2.725 2.945 3.175 3.355 3.735 4.095 4.445 4.915 5.295
839.106 5.625 5.745 5.555 5.245 4.825 4.425 3.795 3.255 2.945 2.585
858.395 2.335 2.225 2.005 1.825 1.865 1.945 1.985 2.075 2.205 2.365
877.685 2.545 2.725 2.915 3.255 3.465 3.445 3.365 3.045 2.615 2.225
896.975 1.995 1.755 1.285 1.115 1.275 1.265 1.125 1.145 1.175 1.225
916.265 1.215 1.175 1.165 1.145 1.0564 0.9787 0.9544 0.8297 0.7335 0.7856
935.555 1.0682 1.145 0.9217 0.8616 0.8906 0.8366 0.9119 0.9822 1.0715 1.185
954.844 1.1052 0.946 0.9357 1.205 1.335 1.0915 1.0097 1.115 1.165 0.966
974.134 0.9556 1.125 1.0781 1.0854 1.135 1.275 1.315 1.155 1.038 1.205
993.424 1.315 1.295 1.325 1.375 1.655 1.805 2.035 2.435 2.515 2.615
1012.714 2.495 2.395 2.635 2.825 2.925 3.005 3.025 2.935 3.015 3.315
1032.003 3.585 3.735 4.055 4.305 4.295 3.955 3.445 3.155 3.145 2.755
1051.293 2.335 1.965 1.635 1.615 1.405 1.415 1.505 1.485 1.485 1.705
1070.583 1.925 1.715 1.655 1.245 0.5552 0.7036 0.8555 1.0223 1.175 1.175
1089.873 1.335 1.465 1.705 1.845 2.175 1.945 1.635 1.835 2.045 2.145
1109.163 1.785 1.525 1.715 1.825 1.715 1.895 1.805 1.215 1.405 2.065
1128.452 2.325 2.765 3.115 3.945 5.045 6.305 7.295 7.445 6.925 6.135
1147.742 6.285 7.095 8.265 9.395 9.895 10.235 11.485 15.055 20.015 22.925
1167.032 21.215 15.875 10.285 6.815 5.545 4.905 4.435 4.805 5.405 5.825
1186.322 6.235 6.645 6.595 6.025 5.545 4.635 3.415 2.615 2.235 2.305
1205.611 2.665 2.855 2.895 3.085 3.395 3.625 3.735 3.745 4.115 3.985
1224.901 4.025 4.625 4.815 5.385 6.215 7.075 8.065 9.035 10.435 12.115
1244.191 13.735 15.275 16.945 18.395 18.785 18.475 17.365 15.285 13.315 11.265
1263.481 8.985 7.385 6.485 5.795 5.375 4.955 4.525 4.295 4.115 4.085
1282.771 4.095 4.295 4.585 4.745 4.925 5.285 5.655 5.935 6.315 6.855
1302.060 7.245 7.155 6.575 5.735 4.825 3.975 3.315 2.785 2.435 2.145
1321.350 1.855 1.715 1.655 1.625 1.505 1.395 1.385 1.345 1.315 1.275
1340.640 1.245 1.195 1.155 1.1083 1.083 1.0285 0.9715 1.0242 1.0112 0.9966
1359.930 1.0514 1.0354 1.0002 0.9597 0.9567 0.9764 0.9732 0.9688 0.9281 0.8708
1379.219 0.836 0.8176 0.8548 0.8721 0.8868 0.9048 0.8975 0.9442 0.9614 0.9633
1398.509 1.0379 1.145 1.235 1.405 1.675 1.905 2.215 2.605 2.895 3.135
1417.799 3.385 3.535 3.425 2.985 2.425 2.065 1.825 1.655 1.625 1.685
1437.089 1.725 1.815 2.045 2.385 2.745 2.885 2.755 2.525 2.315 2.195
1456.378 2.205 2.325 2.485 2.765 3.065 3.375 3.665 3.775 3.755 3.705
1475.668 3.635 3.705 4.075 4.595 4.945 5.205 5.545 5.905 6.205 6.305
1494.958 6.195 5.975 5.925 6.505 7.665 9.365 11.785 14.385 16.405 16.885
1514.248 15.275 12.335 9.115 6.715 5.075 3.995 3.335 2.905 2.565 2.355
1533.538 2.245 2.135 1.965 1.855 1.855 1.805 1.795 1.855 1.955 2.085
1552.827 2.265 2.455 2.675 2.995 3.405 3.975 4.775 5.805 7.265 9.245
1572.117 11.335 13.375 14.935 15.285 14.735 14.155 14.255 15.295 16.885 18.375
1591.407 19.055 18.645 17.325 15.595 14.235 13.375 12.845 12.535 12.015 11.095
1610.697 9.945 8.705 7.685 6.935 6.535 6.465 6.685 7.265 8.255 9.575
1629.986 10.915 11.845 11.955 11.085 9.565 8.025 6.625 5.515 4.705 4.095
1649.276 3.625 3.255 2.945 2.605 2.285 2.105 1.975 1.835 1.705 1.635
1668.566 1.555 1.495 1.505 1.445 1.365 1.355 1.335 1.305 1.235 1.125
1687.856 1.051 1.0216 0.9061 0.8764 0.9213 0.8723 0.8376 0.7979 0.7664 0.8022
1707.146 0.7622 0.7402 0.7239 0.6799 0.7009 0.7041 0.6794 0.6304 0.615 0.6222
1726.435 0.6649 0.6934 0.671 0.6762 0.6858 0.6336 0.6381 0.6717 0.6841 0.6531
1745.725 0.6595 0.6813 0.6453 0.6664 0.6674 0.6525 0.6914 0.6893 0.6508 0.6893
1765.015 0.71 0.7216 0.7371 0.7042 0.6855 0.6857 0.6567 0.634 0.5962 0.5365
1784.305 0.5319 0.5712 0.6078 0.6459 0.6581 0.633 0.6278 0.6019 0.5849 0.5718
1803.594 0.532 0.5476 0.5616 0.5893 0.5818 0.4893 0.463 0.455 0.5052 0.5725
1822.884 0.5189 0.4465 0.4225 0.4306 0.4284 0.4237 0.4394 0.3974 0.4287 0.5027
1842.174 0.4378 0.362 0.3992 0.4349 0.3985 0.4152 0.4381 0.4335 0.4465 0.4201
1861.464 0.449 0.5156 0.5331 0.5397 0.4944 0.518 0.5801 0.5295 0.4901 0.5485
1880.754 0.6328 0.6976 0.6907 0.6755 0.6687 0.6771 0.7089 0.7355 0.7372 0.7287
1900.043 0.7008 0.7107 0.7094 0.6522 0.6525 0.6101 0.5888 0.5866 0.5557 0.6217
1919.333 0.6277 0.6329 0.6761 0.6356 0.6433 0.6735 0.7004 0.7153 0.6752 0.6763
1938.623 0.7103 0.7215 0.6969 0.6398 0.6246 0.6006 0.5999 0.6325 0.6139 0.5976
1957.913 0.5846 0.5582 0.546 0.5528 0.5687 0.4746 0.4194 0.4771 0.4821 0.463
1977.202 0.4587 0.5042 0.5119 0.4891 0.5109 0.5389 0.5393 0.4742 0.4704 0.5129
1996.492 0.535 0.5679 0.5636 0.5673 0.5724 0.5483 0.5203 0.4999 0.6015 0.6269
2015.782 0.6556 0.7068 0.6031 0.6144 0.6128 0.553 0.5982 0.5771 0.5383 0.5509
2035.072 0.5191 0.5287 0.5942 0.6514 0.6646 0.613 0.5941 0.5877 0.6164 0.6886
2054.362 0.6315 0.6024 0.6703 0.6557 0.6461 0.5914 0.5121 0.5525 0.5839 0.6395
2073.651 0.6392 0.5601 0.5787 0.5695 0.5303 0.4943 0.4787 0.5098 0.4961 0.4895
2092.941 0.4746 0.4267 0.3802 0.3642 0.3897 0.4365 0.3863 0.3332 0.3881 0.3699
2112.231 0.3797 0.4013 0.3491 0.3457 0.338 0.2848 0.2921 0.3237 0.3141 0.3413
2131.521 0.3216 0.2893 0.2997 0.3101 0.3191 0.2958 0.2893 0.2964 0.3364 0.3136
2150.810 0.2693 0.3184 0.2921 0.2721 0.3217 0.292 0.313 0.347 0.2485 0.2246
2170.100 0.2861 0.3156 0.321 0.3276 0.3589 0.3499 0.2906 0.2587 0.2966 0.3048
2189.390 0.3219 0.3004 0.2378 0.2607 0.2727 0.2809 0.2722 0.2222 0.2298 0.2521
2208.680 0.274 0.2962 0.2434 0.2368 0.2373 0.2492 0.2411 0.233 0.2848 0.3045
2227.970 0.3139 0.3118 0.3096 0.2833 0.2712 0.3164 0.3103 0.2561 0.2225 0.2671
2247.259 0.2843 0.3167 0.4105 0.4117 0.4172 0.3891 0.3208 0.3397 0.3368 0.3006
2266.549 0.3338 0.3212 0.2827 0.3005 0.389 0.4339 0.3338 0.3389 0.3615 0.3331
2285.839 0.347 0.3464 0.3579 0.3313 0.2834 0.2529 0.2595 0.2827 0.2853 0.3249
2305.129 0.3952 0.3879 0.3744 0.3722 0.3897 0.3837 0.3111 0.3288 0.2958 0.2621
2324.418 0.3075 0.3807 0.3975 0.3168 0.2778 0.2638 0.3249 0.3314 0.2805 0.20757
2343.708 0.18498 0.4011 0.4354 0.3311 0.3398 0.3052 0.3473 0.4409 0.4878 0.3645
2362.998 0.2658 0.269 0.2679 0.3478 0.3426 0.3243 0.3109 0.2869 0.3681 0.4005
2382.288 0.3816 0.3576 0.3344 0.3323 0.3265 0.3402 0.4399 0.4269 0.3002 0.2669
2401.578 0.2989 0.3762 0.389 0.3664 0.3804 0.3745 0.3693 0.3936 0.3943 0.2744
2420.867 0.276 0.35 0.3252 0.4192 0.4327 0.3759 0.3919 0.3847 0.3265 0.3305
2440.157 0.4179 0.479 0.4446 0.3894 0.384 0.3785 0.3745 0.3395 0.3651 0.4714
2459.447 0.536 0.5099 0.4752 0.3772 0.3927 0.4279 0.3771 0.3638 0.4076 0.4653
2478.737 0.3878 0.4164 0.4191 0.4225 0.5066 0.4762 0.4971 0.5572 0.4724 0.4157
2498.026 0.4479 0.4541 0.4384 0.434 0.4908 0.5464 0.56 0.5204 0.4673 0.4808
2517.316 0.5002 0.4918 0.4661 0.438 0.4879 0.4843 0.4896 0.5615 0.5344 0.514
2536.606 0.5774 0.5673 0.532 0.5892 0.6235 0.6783 0.6796 0.6883 0.7193 0.7252
2555.896 0.6926 0.5633 0.5448 0.5858 0.6416 0.6206 0.5258 0.5204 0.4944 0.5243
2575.186 0.5014 0.4387 0.5247 0.5828 0.5698 0.5477 0.4958 0.4594 0.4362 0.454
2594.475 0.4913 0.4757 0.4749 0.4749 0.4619 0.4461 0.4147 0.4484 0.4728 0.4582
2613.765 0.4882 0.4118 0.3448 0.3891 0.4204 0.4856 0.4855 0.4071 0.4207 0.4472
2633.055 0.3576 0.2981 0.4083 0.4527 0.4506 0.3436 0.2815 0.34 0.3069 0.321
2652.345 0.4166 0.4656 0.3815 0.3416 0.3018 0.2444 0.3163 0.3921 0.2328 0.1549
2671.634 0.21384 0.2712 0.3597 0.3128 0.2338 0.2412 0.3179 0.3709 0.3725 0.28
2690.924 0.2352 0.2757 0.3211 0.3069 0.26 0.3248 0.2938 0.2816 0.4231 0.4445
2710.214 0.3465 0.3021 0.3317 0.4324 0.4683 0.4957 0.546 0.5346 0.5816 0.5384
2729.504 0.4073 0.3655 0.3399 0.4015 0.4887 0.3754 0.3545 0.4457 0.444 0.4863
2748.794 0.5235 0.4663 0.4467 0.5091 0.4762 0.3906 0.3258 0.2638 0.333 0.4255
2768.083 0.4212 0.4176 0.4145 0.4321 0.4593 0.5398 0.5923 0.6228 0.5621 0.4716
2787.373 0.4711 0.4307 0.4586 0.4627 0.473 0.4535 0.4506 0.4673 0.534 0.5973
2806.663 0.5739 0.5568 0.616 0.7098 0.7043 0.7329 0.7676 0.8497 0.8559 0.7655
2825.953 0.8473 0.8969 0.8791 0.9792 1.115 1.265 1.435 1.615 1.875 2.285
2845.242 2.675 2.815 2.715 2.485 2.225 2.065 1.885 1.795 1.785 1.705
2864.532 1.735 1.715 1.675 1.695 1.655 1.615 1.605 1.595 1.555 1.525
2883.822 1.405 1.385 1.455 1.495 1.465 1.385 1.315 1.225 1.175 1.155
2903.112 1.245 1.275 1.355 1.455 1.485 1.545 1.505 1.475 1.605 1.575
2922.401 1.525 1.545 1.525 1.545 1.555 1.625 1.715 1.695 1.785 2.095
2941.691 2.295 2.365 2.395 2.435 2.535 2.455 2.265 2.245 2.245 2.235
2960.981 2.165 1.935 1.815 1.895 1.845 1.595 1.465 1.475 1.295 1.215
2980.271 1.315 1.315 1.335 1.265 1.185 1.185 1.225 1.315 1.355 1.385
2999.561 1.535 1.835 2.025 2.105 2.265 2.485 2.735 2.725 2.485 2.185
3018.850 1.895 1.815 1.785 1.715 1.725 1.825 1.955 2.155 2.305 2.385
3038.140 2.465 2.455 2.405 2.395 2.355 2.365 2.325 2.235 2.175 2.235
3057.430 2.365 2.375 2.345 2.475 2.795 3.055 3.335 3.695 4.045 4.415
3076.720 4.435 4.235 3.815 3.265 2.875 2.635 2.495 2.225 2.085 2.055
3096.009 1.935 1.815 1.635 1.385 1.275 1.165 1.0323 1.0226 0.9314 0.7792
3115.299 0.6857 0.6123 0.5473 0.5376 0.4779 0.4161 0.548 0.5781 0.5025 0.4805
3134.589 0.4859 0.4876 0.401 0.4567 0.5225 0.5965 0.5695 0.4463 0.5347 0.5368
3153.879 0.3564 0.3941 0.5128 0.5156 0.5061 0.4098 0.3612 0.3534 0.3235 0.3554
3173.169 0.3775 0.3048 0.19509 0.3166 0.4642 0.3667 0.316 0.4933 0.5945 0.5279
3192.458 0.4373 0.2942 0.2327 0.1773 0.2797 0.3766 0.2361 0.15089 0.3128 0.3316
3211.748 0.2203 0.3329 0.3541 0.2958 0.2912 0.3061 0.3914 0.3452 0.2062 0.17245
3231.038 0.2455 0.4404 0.5131 0.3445 0.302 0.4882 0.5276 0.3991 0.3717 0.3991
3250.328 0.3796 0.3765 0.4295 0.4229 0.3165 0.3034 0.3214 0.4237 0.6445 0.5178
3269.617 0.2441 0.3314 0.3386 0.2573 0.2762 0.3205 0.3912 0.3536 0.303 0.2643
3288.907 0.2309 0.115933 0.11374 0.3078 0.3363 0.15812 0.17525 0.2589 0.3067 0.2731
3308.197 0.10878 0.0798 0.078 0.16817 0.14937 0.10658 0.2866 0.3538 0.387 0.3372
3327.487 0.2405 0.19183 0.14747 0.20036 0.16658 0.120548 0.2494 0.3071 0.15777 0.2635
3346.777 0.3779 0.2546 0.3222 0.5136 0.4131 0.2164 0.19165 0.3525 0.4237 0.3366
3366.066 0.3471 0.2617 0.20293 0.2281 0.2763 0.2801 0.2461 0.3443 0.3475 0.281
3385.356 0.3015 0.3347 0.34 0.3582 0.285 0.3188 0.4172 0.4437 0.3815 0.2902
3404.646 0.3466 0.3551 0.2599 0.13263 0.20457 0.21417 0.0237 0.10568 0.2553 0.2411
3423.936 0.18904 0.16135 0.13377 0.0165 0.0157 0.13076 0.20814 0.2529 0.3103 0.2503
3443.225 0.21333 0.2484 0.115526 0.111 0.15964 0.1487 0.2635 0.2394 0.20049 0.13816
3462.515 0.15794 0.2676 0.3946 0.4251 0.2717 0.16759 0.13774 0.19535 0.2176 0.3409
3481.805 0.3259 0.16677 0.2222 0.2776 0.15452 0.14334 0.20782 0.3139 0.3547 0.2459
3501.095 0.15922 0.18782 0.2228 0.20531 0.2654 0.17687 0.19931 0.3181 0.2456 0.21232
3520.385 0.2349 0.311 0.2384 0.284 0.374 0.19041 0.2415 0.15481 0 0.115647
3539.674 0.16778 0.18948 0.21102 0.2097 0.16686 0.17786 0.2388 0.17943 0.2302 0.2829
3558.964 0.17803 0.16064 0.2182 0.2532 0.2239 0.2351 0.3144 0.3244 0.2698 0.2674
3578.254 0.2633 0.2292 0.2404 0.3473 0.3702 0.2751 0.2411 0.2843 0.2846 0.20736
3597.544 0.2317 0.2979 0.18695 0.2842 0.4536 0.4175 0.3469 0.20759 0.2734 0.3226
3616.833 0.232 0.14319 0.124381 0.19841 0.14646 0.027 0.044 0.062 0.0693 0.1691
3636.123 0.2168 0.2759 0.3456 0.3168 0.2962 0.2405 0.2293 0.3352 0.4456 0.4513
3655.413 0.2916 0.18138 0.13986 0.2172 0.2318 0.10864 0.1031 0.20318 0.3001 0.1991
3674.703 0.19242 0.15037 0.0269 0.15254 0.0792 0.0552 0.102 0.0177 0.18921 0.3131
3693.993 0.2741 0.2281 0.2348 0.14716 0.0443 0.15157 0.2188 0.16758 0.20605 0.263
3713.282 0.122348 0.122992 0.2283 0.3228 0.411 0.3659 0.2762 0.215 0.17905 0.1805
3732.572 0.13439 0.14339 0.19839 0.19463 0.2195 0.2462 0.21228 0.17551 0.21086 0.20069
3751.862 0.14828 0.13669 0.245 0.3333 0.3323 0.2437 0.20747 0.245 0.2296 0.19682
3771.152 0.2464 0.2706 0.2806 0.4002 0.3859 0.286 0.2346 0.2781 0.3678 0.3891
3790.441 0.3678 0.18047 0.124438 0.20556 0.0938 0.17144 0.3101 0.21323 0.2184 0.3583
3809.731 0.3884 0.3247 0.2625 0.16945 0.14109 0.16847 0.13615 0.0352 0.15086 0.3251
3829.021 0.2474 0.12647 0.13634 0.0769 0.17093 0.3387 0.1925 0.2537 0.324 0.221
3848.311 0.2878 0.2839 0.33 0.4341 0.4028 0.239 0.14854 0.3143 0.4558 0.4569
3867.601 0.3262 0.20583 0.2714 0.3631 0.2712 0.3458 0.4867 0.3939 0.3318 0.3705
3886.890 0.2836 0.2726 0.16674 0.1021 0.2868 0.18836 0.17951 0.2568 0.2248 0.2702
3906.180 0.2215 0.19584 0.2185 0.181 0.3198 0.4559 0.3902 0.2776 0.2759 0.3294
3925.470 0.3413 0.3988 0.4542 0.4293 0.3496 0.276 0.2678 0.2799 0.3241 0.3324
3944.760 0.2196 0.2391 0.3445 0.14392 0.0988 0.20882 0.16924 0.15995 0.078 0.13128
3964.049 0.318 0.4422 0.4965 0.4223 0.2441 0.19633 0.2699 0.20046 0.20684 0.334
3983.339 0.3143 0.2728 0.2895 0.3207 0.2723 0.342 0.4236 0.4401 0.3666 0.2402
##END=
