##TITLE=Diphenylisophthalate
##JCAMP-DX=4.24
##DATA TYPE=INFRARED SPECTRUM
##ORIGIN=EPA-IR VAPOR PHASE LIBRARY
##OWNER=SRD/NIST
Collection (C) 2018 copyright by the U.S. Secretary of Commerce
on behalf of the United States of America. All rights reserved.
##CAS REGISTRY NO=744-45-6
##MOLFORM=C 20 H 14 O 4
##$NIST SOURCE=MSDC-IR
##STATE=gas
##XUNITS=1/CM
##YUNITS=ABSORBANCE
##XFACTOR=1.
##YFACTOR=0.001
##DELTAX=1.92934
##FIRSTX=549.9
##LASTX=3999.5
##FIRSTY=1.117
##MAXX=3999.53
##MINX=549.863
##MAXY=0.16968
##MINY=0
##NPOINTS=1789
##XYDATA=(X++(Y..Y))
549.863 1.117 0.99 0.875 1.0724 1.18432 1.17162 1.5216 1.8092 1.753 1.9972
569.156 2.41 2.68 2.7 2.62 2.52 2.46 2.43 2.31 2.27 2.0507
588.450 1.7319 1.5953 1.4873 1.3149 1.2782 1.2888 1.3283 1.3072 1.16134 1.1162
607.743 1.1038 1.018 1.011 1.0888 1.0879 1.1043 1.17677 1.1332 1.14129 1.22131
627.037 1.24316 1.2544 1.2884 1.22946 1.17297 1.24327 1.2825 1.3402 1.3972 1.4756
646.330 1.6084 1.7229 1.8921 2.17 2.49 2.87 3.14 3.37 3.5 3.44
665.624 3.48 3.7 4.04 4.32 4.59 4.99 5.42 5.97 6.76 7.53
684.917 8.02 8.12 7.79 7.22 6.61 6.2 6.13 6.28 6.58 7.16
704.210 8.27 9.78 11.26 12.32 12.71 12.75 12.9 13.45 14.55 15.91
723.504 16.57 16.02 14.83 13.48 12.26 11.43 10.92 10.58 10.24 9.89
742.797 9.53 9.22 9.04 9.05 9.18 9.15 8.99 8.71 8.19 7.54
762.091 6.8 6.12 5.52 5.04 4.61 4.19 3.9 3.65 3.38 3.19
781.384 3.13 3.05 3 2.95 2.94 3.05 3.19 3.35 3.43 3.58
800.678 3.82 4.04 4.25 4.39 4.55 4.71 4.88 4.93 4.97 5.2
819.971 5.32 5.46 5.49 5.41 5.23 4.95 4.59 4.19 3.9 3.69
839.264 3.54 3.33 3.11 2.89 2.63 2.44 2.37 2.31 2.25 2.19
858.558 2.2 2.28 2.34 2.43 2.59 2.84 3.09 3.41 3.76 4.14
877.851 4.66 5.13 5.48 5.63 5.6 5.33 4.94 4.54 4.15 3.88
897.145 3.74 3.68 3.66 3.67 3.75 3.93 4.12 4.34 4.64 4.84
916.438 4.87 4.78 4.48 4.16 3.89 3.58 3.37 3.24 3.07 2.94
935.732 2.9 2.77 2.6 2.5 2.41 2.32 2.26 2.18 2.1431 2.124
955.025 2.0701 2.043 2.0394 2.0607 2.0522 2.0313 2.0453 2.0228 1.9955 1.9619
974.318 1.9318 1.9704 2.023 2.0379 2.0527 2.1102 2.23 2.36 2.53 2.78
993.612 3.12 3.55 4.15 4.78 5.24 5.57 5.65 5.51 5.32 5.02
1012.905 4.71 4.48 4.43 4.69 5.24 5.98 6.43 6.35 5.75 4.97
1032.199 4.43 4.27 4.4 4.68 5.1 5.71 6.54 7.65 9.2 11.3
1051.492 14.05 17.43 21.16 24.83 27.9 29.99 30.8 30.2 28.53 26.3
1070.786 23.96 22.02 21.03 21.11 22.14 23.5 24.22 23.83 22.18 19.6
1090.079 16.83 14.4 12.37 10.69 9.57 8.81 8.23 7.84 7.45 7.09
1109.372 6.84 6.57 6.23 5.82 5.51 5.33 5.14 4.98 4.95 5.06
1128.666 5.11 5.17 5.36 5.69 6.06 6.31 6.64 7.18 7.82 8.66
1147.959 9.92 11.61 14.03 17.46 22.3 28.63 35.82 42.27 45.87 46.64
1167.253 46.02 44.7 42.74 40.07 37.61 37.16 40.28 47.69 58.93 74.72
1186.546 95.34 119.18 142.99 161.35 169.68 165.74 152.44 135.57 121.45 114.06
1205.840 112.71 116.02 121.58 125.33 122.91 113.02 97.56 79.77 63.67 51.74
1225.133 43.32 36.95 32.03 28.13 25.04 22.35 20.05 18.25 16.63 15.39
1244.426 14.41 13.53 12.89 12.31 11.79 11.42 11.15 10.98 10.99 11.17
1263.720 11.46 11.92 12.59 13.39 14.37 15.63 17.26 19.37 21.91 24.69
1283.013 27.67 30.88 33.98 36.59 38.61 39.59 38.96 36.44 32.17 26.95
1302.307 21.81 17.52 14.36 12.23 10.77 9.72 8.97 8.34 7.89 7.49
1321.600 7.07 6.77 6.41 6.07 5.8 5.48 5.25 5.02 4.84 4.75
1340.894 4.62 4.51 4.36 4.25 4.18 4.09 3.95 3.84 3.74 3.63
1360.187 3.51 3.44 3.39 3.3 3.25 3.19 3.13 3.06 3 2.99
1379.480 3 2.98 2.93 2.87 2.87 2.86 2.8 2.8 2.77 2.7
1398.774 2.65 2.65 2.66 2.68 2.69 2.71 2.75 2.78 2.83 2.92
1418.067 3.02 3.15 3.33 3.58 3.93 4.32 4.75 5.13 5.29 5.16
1437.361 4.77 4.3 3.93 3.68 3.49 3.4 3.41 3.48 3.57 3.71
1456.654 3.86 4.05 4.25 4.5 4.91 5.44 6.04 6.8 7.68 8.55
1475.948 9.35 10.05 10.8 11.68 12.88 14.88 18.04 22.59 28.1 32.3
1495.241 32.56 28.26 21.19 14.31 9.71 7.11 5.59 4.69 4.15 3.79
1514.534 3.58 3.42 3.24 3.15 3.06 2.97 2.93 2.86 2.78 2.76
1533.828 2.7 2.68 2.67 2.67 2.71 2.7 2.71 2.74 2.72 2.75
1553.121 2.85 2.86 2.87 2.97 3.09 3.23 3.4 3.6 3.9 4.34
1572.415 4.85 5.44 6.17 7.08 8.04 9.13 10.34 11.57 12.8 13.93
1591.708 14.72 14.9 14.35 13.02 11.16 9.17 7.48 6.25 5.41 4.89
1611.002 4.37 3.88 3.48 3.12 2.87 2.69 2.55 2.45 2.35 2.31
1630.295 2.27 2.24 2.25 2.21 2.146 2.134 2.1357 2.0556 2.0143 2.0533
1649.588 2.0314 2.0045 2.0444 2.1004 2.1401 2.1301 2.1377 2.16 2.1116 2.0961
1668.882 2.0909 2.0652 2.048 1.9984 1.9734 2.0249 2.0871 2.1222 2.17 2.22
1688.175 2.26 2.29 2.32 2.38 2.49 2.61 2.75 2.9 3.03 3.21
1707.469 3.42 3.64 3.89 4.24 4.55 4.71 4.92 5.17 5.41 5.67
1726.762 6 6.36 6.77 7.18 7.64 8.18 8.85 9.76 11.05 13.02
1746.056 16.06 20.91 28.35 39.02 51.72 63.37 70.26 69.65 62.29 51.84
1765.349 41.62 32.96 26.3 21.42 17.65 14.73 12.57 11.01 9.93 9.19
1784.642 8.62 8.09 7.51 6.92 6.35 5.84 5.4 4.99 4.64 4.39
1803.936 4.13 3.89 3.69 3.5 3.3 3.11 2.96 2.81 2.68 2.61
1823.229 2.47 2.32 2.27 2.2 2.1105 2.0869 2.0835 2.0797 2.0537 2.0343
1842.523 2.0364 2.0066 2.0175 2.0489 2.0483 2.0356 2.0268 2.0438 2.0506 2.0578
1861.816 2.0744 2.0803 2.0774 2.0215 1.9975 2.0309 2.0174 1.9989 1.984 1.9605
1881.110 1.9638 1.937 1.8979 1.8862 1.8282 1.7879 1.7806 1.7852 1.79 1.7865
1900.403 1.7778 1.7699 1.7952 1.8486 1.8843 1.9355 2.0216 2.0917 2.15 2.18
1919.696 2.23 2.29 2.33 2.38 2.37 2.33 2.28 2.23 2.17 2.1212
1938.990 2.0382 2.0106 2.07 2.1282 2.18 2.22 2.19 2.147 2.0795 1.9637
1958.283 1.9054 1.8595 1.8584 1.8871 1.8693 1.8485 1.8373 1.839 1.8547 1.878
1977.577 1.8651 1.8143 1.8374 1.8619 1.8695 1.9029 1.915 1.8871 1.8716 1.9002
1996.870 1.901 1.8897 1.9126 1.8861 1.8357 1.8293 1.8582 1.8869 1.8827 1.8622
2016.164 1.8323 1.8424 1.8556 1.8248 1.8067 1.8261 1.795 1.791 1.7907 1.7408
2035.457 1.6844 1.6481 1.635 1.585 1.5187 1.4985 1.4735 1.4366 1.4336 1.4263
2054.750 1.3857 1.3394 1.3118 1.2934 1.3005 1.2897 1.2789 1.2925 1.3054 1.309
2074.044 1.2966 1.2733 1.2514 1.23314 1.20626 1.22247 1.2664 1.2603 1.2382 1.21681
2093.337 1.22479 1.24666 1.21923 1.22452 1.23605 1.24029 1.2751 1.2528 1.24939 1.2991
2112.631 1.307 1.2789 1.2852 1.2936 1.287 1.2791 1.2756 1.2753 1.22878 1.2221
2131.924 1.24116 1.2426 1.2593 1.22615 1.20594 1.23764 1.24126 1.23727 1.21339 1.19155
2151.218 1.24533 1.2565 1.20238 1.18764 1.21241 1.2583 1.2566 1.24003 1.24253 1.24318
2170.511 1.22959 1.23385 1.2598 1.21656 1.18957 1.21414 1.19909 1.17689 1.1384 1.1171
2189.804 1.124 1.1378 1.1605 1.1759 1.17738 1.14621 1.1384 1.1063 1.096 1.1119
2209.098 1.0774 1.0645 1.0738 1.0605 1.0644 1.0874 1.0839 1.0618 1.048 1.0704
2228.391 1.0602 1.046 1.0824 1.14425 1.1227 1.0699 1.0813 1.0866 1.0992 1.0753
2247.685 1.0999 1.17114 1.14172 1.0905 1.1128 1.14419 1.14155 1.15446 1.16163 1.15774
2266.978 1.15853 1.18671 1.21635 1.19847 1.17996 1.17131 1.21148 1.259 1.2568 1.24197
2286.272 1.24695 1.2645 1.2528 1.24964 1.23001 1.22513 1.22291 1.19782 1.1779 1.16383
2305.565 1.22144 1.2695 1.2877 1.3451 1.3796 1.356 1.3352 1.3195 1.2824 1.2676
2324.858 1.2798 1.2863 1.2972 1.2808 1.24485 1.22796 1.23839 1.2639 1.2241 1.24201
2344.152 1.2844 1.2753 1.2835 1.3052 1.3025 1.2846 1.3197 1.3242 1.2782 1.2803
2363.445 1.2662 1.251 1.23903 1.22377 1.23698 1.23544 1.21554 1.22969 1.2631 1.2602
2382.739 1.27 1.2685 1.3022 1.3375 1.3053 1.2728 1.2588 1.23076 1.19363 1.19961
2402.032 1.20207 1.16573 1.16718 1.16427 1.16006 1.14262 1.1088 1.0913 1.0568 1.0517
2421.326 1.0851 1.098 1.0525 1.015 1.022 1.016 0.989 1.016 1.0556 1.029
2440.619 1.019 0.99 0.957 0.967 0.985 1.007 1.044 1.011 0.966 0.967
2459.912 0.956 0.979 0.983 0.963 0.95 0.957 0.963 0.969 0.988 0.978
2479.206 0.972 0.986 0.975 0.962 0.957 1.003 0.968 0.953 1.018 1.002
2498.499 0.977 0.972 0.935 0.918 0.91 0.927 0.967 0.939 0.941 0.942
2517.793 0.898 0.912 0.912 0.866 0.855 0.86 0.869 0.85 0.852 0.882
2537.086 0.872 0.855 0.846 0.806 0.817 0.841 0.815 0.834 0.865 0.866
2556.380 0.866 0.855 0.864 0.912 0.952 0.933 0.884 0.883 0.881 0.872
2575.673 0.901 0.937 0.95 0.913 0.92 0.931 0.85 0.815 0.865 0.877
2594.966 0.864 0.82 0.802 0.808 0.794 0.806 0.813 0.795 0.807 0.803
2614.260 0.786 0.774 0.731 0.793 0.868 0.836 0.789 0.803 0.823 0.82
2633.553 0.8 0.783 0.758 0.743 0.752 0.747 0.757 0.762 0.72 0.714
2652.847 0.739 0.742 0.734 0.708 0.713 0.785 0.83 0.745 0.721 0.734
2672.140 0.672 0.657 0.654 0.705 0.75 0.726 0.713 0.759 0.786 0.751
2691.434 0.708 0.701 0.746 0.756 0.713 0.683 0.663 0.696 0.763 0.754
2710.727 0.752 0.723 0.697 0.668 0.67 0.704 0.727 0.746 0.692 0.66
2730.020 0.642 0.647 0.666 0.668 0.724 0.7 0.67 0.655 0.627 0.644
2749.314 0.675 0.707 0.663 0.627 0.653 0.651 0.651 0.643 0.638 0.689
2768.607 0.651 0.575 0.539 0.614 0.675 0.634 0.589 0.564 0.643 0.632
2787.901 0.561 0.595 0.632 0.609 0.511 0.49 0.59 0.621 0.583 0.508
2807.194 0.469 0.549 0.577 0.58 0.58 0.569 0.547 0.518 0.494 0.454
2826.488 0.509 0.486 0.482 0.548 0.52 0.526 0.528 0.512 0.541 0.535
2845.781 0.529 0.539 0.549 0.578 0.569 0.536 0.51 0.529 0.583 0.618
2865.074 0.691 0.681 0.526 0.508 0.556 0.532 0.593 0.657 0.656 0.584
2884.368 0.58 0.635 0.568 0.591 0.615 0.565 0.631 0.592 0.594 0.677
2903.661 0.638 0.651 0.601 0.556 0.545 0.47 0.367 0.394 0.603 0.594
2922.955 0.445 0.39 0.384 0.405 0.401 0.514 0.519 0.349 0.314 0.289
2942.248 0.337 0.363 0.313 0.378 0.409 0.433 0.511 0.489 0.494 0.554
2961.542 0.501 0.403 0.325 0.368 0.384 0.352 0.313 0.358 0.473 0.4
2980.835 0.353 0.41 0.393 0.396 0.361 0.32 0.381 0.407 0.413 0.39
3000.128 0.391 0.503 0.637 0.642 0.611 0.616 0.695 0.841 0.974 1.0678
3019.422 1.15586 1.2416 1.4003 1.5382 1.6569 1.8191 2.0013 2.15 2.31 2.75
3038.715 3.26 3.69 4.1 4.56 5.01 5.27 5.25 4.94 4.46 4.08
3058.009 3.8 3.65 3.74 3.9 4 4.3 4.88 5.38 5.87 6.48
3077.302 7.22 7.95 8.31 8.15 7.58 6.77 5.74 4.82 4.15 3.64
3096.596 3.33 3.23 3.13 3.03 2.9 2.68 2.41 2.0173 1.6728 1.4254
3115.889 1.17356 1.012 0.875 0.733 0.568 0.574 0.64 0.518 0.481 0.412
3135.182 0.338 0.365 0.337 0.306 0.354 0.448 0.489 0.389 0.203 0.152
3154.476 0.3 0.355 0.371 0.322 0.252 0.23 0.252 0.341 0.296 0.183
3173.769 0.225 0.317 0.268 0.321 0.39 0.352 0.38 0.371 0.281 0.364
3193.063 0.424 0.407 0.406 0.37 0.312 0.243 0.311 0.362 0.32 0.298
3212.356 0.281 0.317 0.322 0.287 0.369 0.365 0.199 0 0.01 0.174
3231.650 0.28 0.33 0.334 0.284 0.303 0.307 0.311 0.253 0.156 0.255
3250.943 0.426 0.387 0.242 0.241 0.27 0.332 0.257 0.241 0.391 0.334
3270.236 0.258 0.282 0.283 0.292 0.231 0.282 0.399 0.4 0.332 0.177
3289.530 0.1 0.13 0.249 0.284 0.238 0.254 0.222 0.209 0.251 0.298
3308.823 0.294 0.289 0.322 0.295 0.322 0.296 0.254 0.266 0.219 0.192
3328.117 0.236 0.237 0.342 0.44 0.389 0.491 0.542 0.441 0.412 0.521
3347.410 0.535 0.538 0.542 0.432 0.38 0.353 0.372 0.339 0.332 0.401
3366.704 0.318 0.368 0.469 0.593 0.639 0.454 0.442 0.445 0.424 0.463
3385.997 0.492 0.42 0.435 0.458 0.457 0.468 0.389 0.401 0.397 0.417
3405.290 0.424 0.392 0.374 0.355 0.388 0.427 0.43 0.469 0.492 0.508
3424.584 0.388 0.352 0.492 0.596 0.602 0.54 0.472 0.526 0.518 0.522
3443.877 0.545 0.475 0.408 0.351 0.4 0.48 0.55 0.574 0.55 0.587
3463.171 0.535 0.491 0.526 0.559 0.765 0.67 0.578 0.651 0.624 0.604
3482.464 0.649 0.777 0.842 0.9 0.958 1.033 1.0754 1.041 0.992 0.913
3501.758 0.958 1 1.0551 0.975 0.751 0.687 0.766 0.88 0.877 0.86
3521.051 0.815 0.719 0.749 0.744 0.686 0.673 0.683 0.724 0.73 0.73
3540.344 0.728 0.685 0.631 0.714 0.732 0.733 0.781 0.726 0.682 0.627
3559.638 0.481 0.443 0.59 0.592 0.558 0.654 0.695 0.686 0.644 0.548
3578.931 0.547 0.614 0.56 0.578 0.661 0.691 0.693 0.665 0.678 0.614
3598.225 0.47 0.515 0.66 0.586 0.537 0.622 0.645 0.634 0.547 0.509
3617.518 0.622 0.654 0.657 0.623 0.686 0.789 0.652 0.649 0.706 0.708
3636.812 0.723 0.641 0.638 0.64 0.617 0.584 0.572 0.625 0.712 0.797
3656.105 0.758 0.706 0.7 0.738 0.768 0.681 0.6 0.588 0.613 0.634
3675.398 0.668 0.712 0.644 0.647 0.749 0.748 0.705 0.648 0.623 0.667
3694.692 0.71 0.731 0.686 0.728 0.738 0.723 0.743 0.833 0.882 0.709
3713.985 0.608 0.564 0.619 0.727 0.723 0.661 0.633 0.65 0.634 0.674
3733.279 0.765 0.812 0.776 0.698 0.64 0.611 0.589 0.608 0.745 0.84
3752.572 0.754 0.711 0.762 0.841 0.795 0.681 0.721 0.684 0.612 0.67
3771.866 0.733 0.607 0.53 0.665 0.712 0.764 0.835 0.772 0.684 0.754
3791.159 0.823 0.701 0.651 0.628 0.608 0.657 0.637 0.665 0.71 0.777
3810.452 0.832 0.857 0.808 0.774 0.7 0.574 0.676 0.651 0.62 0.746
3829.746 0.751 0.756 0.764 0.751 0.663 0.7 0.714 0.7 0.768 0.756
3849.039 0.777 0.693 0.745 0.819 0.773 0.749 0.701 0.735 0.737 0.727
3868.333 0.735 0.695 0.725 0.786 0.835 0.824 0.758 0.731 0.735 0.662
3887.626 0.585 0.65 0.708 0.737 0.704 0.686 0.724 0.65 0.653 0.675
3906.920 0.629 0.623 0.626 0.667 0.71 0.633 0.635 0.725 0.743 0.729
3926.213 0.659 0.7 0.699 0.581 0.516 0.6 0.645 0.645 0.712 0.686
3945.506 0.637 0.585 0.571 0.619 0.596 0.54 0.625 0.727 0.688 0.684
3964.800 0.74 0.721 0.664 0.587 0.588 0.624 0.663 0.742 0.766 0.708
3984.093 0.64 0.658 0.742 0.751 0.681 0.663 0.663 0.709 0.755
##END=
