##TITLE=trans-3-Methylcyclohexanol
##JCAMP-DX=4.24
##DATA TYPE=INFRARED SPECTRUM
##ORIGIN=NIST Mass Spectrometry Data Center
##OWNER=NIST Standard Reference Data Program
Collection (C) 2018 copyright by the U.S. Secretary of Commerce
on behalf of the United States of America. All rights reserved.
##CAS REGISTRY NO=7443-55-2
##MOLFORM=C 7 H 14 O
##$NIST SOURCE=MSDC-IR
##SPECTROMETER/DATA SYSTEM=HP-GC/MS/IRD
##STATE=gas
##XUNITS=1/CM
##YUNITS=ABSORBANCE
##XFACTOR=1.0
##YFACTOR=0.000005900
##DELTAX=4.0
##FIRSTX=550.0
##LASTX=3846.0
##FIRSTY=0.000696
##MAXX=3846
##MINX=550
##MAXY=0.059
##MINY=0
##NPOINTS=825
##XYDATA=(X++(Y..Y))
550.0 118 46 22 53 37 30 54 38 21 26
590.0 22 26 21 24 35 37 40 34 34 48
630.0 50 44 33 21 17 25 38 49 59 79
670.0 83 86 100 114 112 108 91 56 37 34
710.0 29 14 7 7 2 3 16 18 17 23
750.0 23 30 37 34 31 33 33 25 31 51
790.0 68 85 113 152 184 200 196 174 177 154
830.0 124 133 141 152 169 196 217 219 216 202
870.0 181 169 155 136 125 119 114 103 97 110
910.0 122 147 195 266 376 501 627 746 869 936
950.0 897 848 803 727 667 677 752 871 1016 1180
990.0 1353 1495 1478 1324 1194 1051 892 772 692 653
1030.0 669 703 729 773 822 845 860 876 883 881
1070.0 888 884 855 803 722 635 560 514 501 522
1110.0 565 620 695 773 830 867 883 884 852 756
1150.0 638 556 481 413 375 359 357 374 401 438
1190.0 472 508 549 590 638 677 717 761 793 826
1230.0 855 875 896 895 875 833 778 722 668 622
1270.0 575 535 505 476 454 433 427 423 411 403
1310.0 399 408 429 455 490 521 553 578 595 606
1350.0 612 627 644 672 715 760 794 811 809 765
1390.0 697 603 491 403 341 298 286 307 351 414
1430.0 504 616 748 864 958 1073 1119 1079 1018 906
1470.0 764 607 465 346 247 179 133 97 77 67
1510.0 60 48 40 37 34 28 26 25 22 14
1550.0 12 13 15 12 9 8 10 10 6 10
1590.0 13 11 13 15 15 14 12 11 6 2
1630.0 7 10 11 12 11 12 9 8 9 7
1670.0 12 15 14 14 18 18 21 29 35 38
1710.0 47 64 82 99 117 129 131 121 105 88
1750.0 70 49 33 22 18 17 12 9 11 12
1790.0 14 19 18 15 14 11 12 15 9 8
1830.0 9 6 3 3 3 4 3 3 4 2
1870.0 2 5 5 8 10 11 11 7 3 1
1910.0 0 0 6 11 12 14 13 12 13 13
1950.0 13 12 10 10 7 4 6 7 9 11
1990.0 9 6 8 8 7 7 5 8 7 6
2030.0 5 2 2 3 6 6 8 4 3 9
2070.0 9 6 10 9 7 9 9 8 7 6
2110.0 6 9 7 9 12 11 9 3 7 10
2150.0 8 9 14 12 11 9 9 14 14 13
2190.0 15 17 15 12 12 12 11 12 9 7
2230.0 8 7 11 12 14 11 4 3 3 4
2270.0 9 6 1 2 3 7 10 11 13 14
2310.0 13 13 16 16 12 14 15 11 16 15
2350.0 9 12 13 11 11 12 13 13 16 16
2390.0 14 15 14 16 17 19 19 18 17 16
2430.0 15 15 18 18 17 17 14 11 11 12
2470.0 14 13 12 15 17 18 16 13 15 18
2510.0 19 21 19 14 11 11 12 15 19 19
2550.0 19 24 28 29 32 30 33 42 47 48
2590.0 55 59 63 67 67 70 75 78 79 84
2630.0 95 106 109 118 128 131 138 146 151 159
2670.0 161 162 162 159 152 146 139 131 125 124
2710.0 122 126 131 130 137 147 148 149 151 151
2750.0 152 152 153 154 156 166 178 190 198 203
2790.0 213 223 236 252 271 296 323 366 432 534
2830.0 687 906 1199 1523 1836 2108 2318 2495 2684 2895
2870.0 3111 3312 3527 3746 3948 4135 4320 4552 4895 5392
2910.0 6034 6783 7642 8488 9161 9665 10000 9952 9289 8342
2950.0 7431 6694 5826 4664 3719 3011 2294 1585 1038 681
2990.0 453 316 238 192 164 143 133 120 106 108
3030.0 110 105 99 99 101 101 104 107 107 101
3070.0 106 108 99 93 95 92 84 81 76 67
3110.0 63 59 55 55 44 36 36 39 48 44
3150.0 41 43 45 42 34 37 43 47 47 41
3190.0 34 35 36 30 25 20 16 11 10 14
3230.0 11 15 19 10 0 9 14 17 27 28
3270.0 25 24 26 28 29 27 21 17 19 12
3310.0 7 9 11 17 21 19 20 21 21 27
3350.0 27 25 23 21 22 22 22 25 19 18
3390.0 23 27 28 31 32 31 31 37 43 48
3430.0 45 36 37 37 30 32 38 35 33 33
3470.0 29 25 27 34 38 36 37 35 32 33
3510.0 32 31 33 32 29 25 26 29 31 27
3550.0 21 18 16 14 23 27 24 29 31 35
3590.0 34 27 26 28 35 42 52 72 90 121
3630.0 169 236 324 418 496 556 591 548 469 387
3670.0 294 213 146 101 80 68 53 46 46 39
3710.0 34 42 46 38 33 22 20 35 42 32
3750.0 32 36 39 46 45 41 40 48 57 60
3790.0 49 46 59 63 56 54 56 59 63 66
3830.0 63 64 60 55 47
##END=
