##TITLE=4-Methyl-2-octyn-4-ol
##JCAMP-DX=4.24
##DATA TYPE=INFRARED SPECTRUM
##ORIGIN=EPA-IR VAPOR PHASE LIBRARY
##OWNER=SRD/NIST
Collection (C) 2018 copyright by the U.S. Secretary of Commerce
on behalf of the United States of America. All rights reserved.
##CAS REGISTRY NO=74514-59-3
##MOLFORM=C 9 H 16 O
##$NIST SOURCE=MSDC-IR
##STATE=gas
##XUNITS=1/CM
##YUNITS=ABSORBANCE
##XFACTOR=1.
##YFACTOR=0.001
##DELTAX=1.92898
##FIRSTX=549.8
##LASTX=4000.7
##FIRSTY=2.7
##MAXX=4000.7
##MINX=549.759
##MAXY=0.03658
##MINY=0
##NPOINTS=1790
##XYDATA=(X++(Y..Y))
549.759 2.7 3.09 4.52 5.06 4.94 3.79 3.08 4.21 3.99 3.52
569.049 3.01 2.5 3.36 2.96 2.33 2.19 1.6578 2.41 2.88 2.25
588.339 3.26 3.65 2.77 2.49 2.29 2.64 2.63 2.0966 2.51 2.23
607.628 1.9695 2.65 3.43 3.87 3.92 3.74 3.16 3.4 2.44 1.9157
626.918 1.9846 2.0383 3.02 3.34 3.48 3.33 2.93 2.78 2.74 3.25
646.208 3.37 2.8 2.74 2.76 3.03 3.18 2.99 2.87 2.47 2.49
665.498 2.94 3.28 3.08 2.97 3.23 3.13 2.65 2.3 1.9155 1.8219
684.787 1.6787 1.5344 2.19 2.75 2.74 2.28 2.0188 2.41 2.66 2.2
704.077 2.0548 2.29 2.46 2.64 2.54 2.57 2.46 2.0304 2.43 2.44
723.367 2.13 2.44 2.52 2.41 2.17 2.28 2.55 2.34 2.73 2.99
742.657 2.99 2.66 2.0011 1.8664 2.31 2.67 2.65 2.58 2.78 2.94
761.947 2.35 2.4 2.54 2.43 2.58 2.5 2.31 2.42 2.85 2.91
781.236 2.66 2.51 2.65 2.71 2.0246 1.8809 2.46 3.01 3.09 2.46
800.526 2.34 2.67 2.2 2.55 3.26 2.19 1.9698 2.0691 2.34 4.23
819.816 5.32 3.2 1.3971 2.15 2.15 1.956 2.17 2.29 2.37 2.51
839.106 2.62 2.62 2.61 2.51 2.59 2.77 2.65 2.82 2.87 3.28
858.395 3.7 3.66 4.33 4.1 4.12 4.36 4.08 4.19 4.07 4.38
877.685 4.25 3.54 3.4 3.56 4.07 4.44 4.04 3.26 3.09 3.62
896.975 3.83 4.11 4.26 3.86 3.69 3.48 3.95 4.55 5.04 5.98
916.265 5.9 5.88 6.4 6.68 6.85 7.45 7.62 8.08 8.1 7.06
935.555 7.04 7.23 7.06 6.55 6.16 6 5.89 5.49 4.69 3.77
954.844 3.13 3.52 3.5 2.99 2.98 2.85 2.29 2.12 2.25 2.66
974.134 3.11 3.13 3.14 3.34 3.1 2.42 3.14 3.82 3.54 2.97
993.424 3.18 3.78 3.45 3.04 3.8 4.59 4.2 4.53 5.04 5.04
1012.714 4.82 4.96 4.98 4.45 4.33 4.04 4.17 3.68 4.26 5.16
1032.003 5.88 5.64 4.75 5.45 6.22 6.67 6.75 6.29 7.1 8.31
1051.293 8.5 9.11 8.68 8.16 6.9 6.69 7.13 7.19 6.83 5.17
1070.583 5.51 5.7 3.97 3.41 3.66 3.28 3.94 6.48 5.93 5.34
1089.873 6.46 4.68 3.87 5.58 5.81 3.6 3.44 4.79 5.75 7.35
1109.163 8.18 6.12 5.91 7.12 6.52 5.96 5.32 7.02 9.11 8.22
1128.452 8.24 10.43 11.04 9.29 8.3 8.1 6.94 9.06 11.02 9.65
1147.742 9.68 9.63 10.2 10.64 9.6 8.62 9.39 9.12 7.61 7.8
1167.032 7.83 6.86 6.9 8.37 7.98 7.87 8.37 7.7 6.05 6.95
1186.322 8.17 8.17 8.86 7.63 6.59 6.53 6.28 8.18 10.61 10.1
1205.611 8.72 8.59 9.07 9.09 8.17 7.5 7.47 6.4 8.1 11.34
1224.901 11.2 8.89 8.43 8.65 7.91 8.26 8.28 7.28 6.67 6.5
1244.191 6.6 7.02 7.14 7.01 7.37 7.25 7.17 7.34 7.28 7.22
1263.481 7.29 6.95 6.86 7.24 6.52 6.46 7.33 7.68 7.66 7.33
1282.771 6.93 6.5 6.73 6.93 6.77 6.86 6.64 6.87 6.99 6.96
1302.060 7.36 7.46 7.56 7.71 7.7 7.71 7.89 8.46 8.82 8.78
1321.350 9.22 9.75 9.97 10.44 10.64 10.8 11.29 11.81 12.05 12.08
1340.640 12.14 11.85 11.63 11.52 11.34 10.86 10.53 10.28 9.79 9.45
1359.930 9.45 9.62 9.59 9.6 9.71 9.88 10.03 10.31 10.55 10.3
1379.219 9.81 9.34 8.94 8.55 8.08 7.26 6.46 6.01 5.6 5.08
1398.509 4.74 4.39 4.09 4.02 3.82 3.85 3.96 3.86 3.91 3.91
1417.799 4.05 4.17 3.98 3.94 3.91 4.07 4.22 4.36 4.39 4.4
1437.089 4.43 4.51 4.9 5.21 5.29 5.39 5.62 5.88 6.02 6.18
1456.378 6.33 6.22 5.95 5.85 6.1 6.18 5.88 5.4 5.12 5.02
1475.668 4.7 4.43 4.28 4.08 3.75 3.44 3.44 3.24 2.95 2.91
1494.958 2.83 2.78 2.88 3.1 3.11 3.06 2.93 2.83 2.67 2.38
1514.248 2.31 2.41 2.58 2.63 2.49 2.21 2.17 2.25 2.31 2.29
1533.538 2.29 2.55 2.71 2.65 2.58 2.59 2.66 2.55 2.52 2.7
1552.827 2.5 2.17 2.17 2.19 2.0509 2.0966 2.56 2.47 1.5271 1.4203
1572.117 1.738 1.9459 1.9981 1.9932 2.0785 1.9599 1.9525 1.9837 2.19 2.46
1591.407 2.44 1.9709 1.8845 1.8025 1.6314 1.803 2.0187 1.9798 2.11 2.29
1610.697 2.0255 1.9399 1.9634 2.0656 2.29 2.33 2.0424 1.8783 1.6221 1.5216
1629.986 1.817 1.7414 1.7277 1.9739 1.8822 1.9376 2.14 1.9399 1.7627 1.9175
1649.276 1.8782 1.5647 1.7297 2.13 2.098 2.0529 1.8808 1.6937 1.6289 1.4724
1668.566 1.8631 2.2 2.0366 2.1018 1.9102 1.9052 1.9246 1.7892 1.8178 1.7557
1687.856 2.0965 2.0915 1.8066 1.6676 1.6324 1.9926 1.8903 1.5598 1.8431 1.759
1707.146 1.6877 1.9529 1.8858 1.9194 2.0516 2.1065 1.8738 1.6048 1.5595 1.5865
1726.435 1.7227 1.8832 1.9101 2.0678 2.28 2.25 2.24 2.0915 1.8086 1.7487
1745.725 1.8285 1.8596 1.8197 1.7673 1.6086 1.5599 1.8614 1.9495 1.884 1.8273
1765.015 1.8958 1.878 1.7833 1.8998 1.9238 1.9705 1.8874 1.7418 1.7569 1.954
1784.305 1.8967 1.5166 1.5302 1.6583 1.5243 1.6852 1.8793 1.8118 1.9079 1.8918
1803.594 1.5597 1.5911 1.7302 1.6981 1.5495 1.5076 1.8025 1.7661 1.4698 1.6868
1822.884 2.068 1.8777 1.6449 1.57 1.5061 1.3751 1.2898 1.6063 1.7403 1.7274
1842.174 1.8482 1.7666 1.6634 1.6674 1.6118 1.6801 1.6385 1.7097 2.0615 2.0525
1861.464 1.6459 1.6207 1.7076 1.5042 1.4371 1.5603 1.7364 1.8758 1.7488 1.5359
1880.754 1.4328 1.3343 1.4685 1.4377 1.7039 1.9286 1.7621 1.7375 1.7953 1.9664
1900.043 1.8368 1.6403 1.7826 1.6729 1.5009 1.5206 1.6142 1.452 1.2522 1.5405
1919.333 1.703 1.6509 1.8014 1.8321 1.5795 1.6294 1.6876 1.5407 1.6163 1.6602
1938.623 1.7098 1.7248 1.5623 1.3598 1.3985 1.5295 1.6527 1.5055 1.2432 1.3809
1957.913 1.5317 1.6338 1.6734 1.6312 1.604 1.6259 1.6945 1.6686 1.6098 1.5696
1977.202 1.4441 1.3413 1.3253 1.4958 1.6712 1.4152 1.3213 1.4908 1.5633 1.7301
1996.492 1.73 1.5143 1.4134 1.432 1.4686 1.5139 1.6156 1.6009 1.5922 1.6604
2015.782 1.6361 1.69 1.6505 1.664 1.5243 1.2523 1.4057 1.7182 1.7912 1.7783
2035.072 1.8168 1.7614 1.5725 1.6603 1.7839 1.6005 1.6665 1.8332 1.8147 1.7473
2054.362 1.5495 1.5571 1.5784 1.6437 1.6645 1.542 1.6593 1.8425 1.9834 1.9365
2073.651 1.5935 1.4643 1.7267 1.7247 1.3121 1.267 1.5694 1.3416 1.2384 1.4356
2092.941 1.4461 1.4488 1.5411 1.544 1.4357 1.3851 1.439 1.6057 1.4409 1.1761
2112.231 1.4498 1.5397 1.4751 1.4182 1.2892 1.5523 1.7488 1.6623 1.418 1.3543
2131.521 1.6761 1.5784 1.5292 1.6451 1.5006 1.5181 1.4712 1.5824 1.4694 1.274
2150.810 1.5117 1.5683 1.6724 1.6597 1.5529 1.5903 1.6719 1.6844 1.7748 1.6905
2170.100 1.5451 1.5893 1.6649 1.6218 1.5369 1.6215 1.4873 1.3941 1.5872 1.9628
2189.390 2.0254 1.9449 1.8321 1.6083 1.4459 1.5569 1.7192 1.8384 1.9238 1.8664
2208.680 1.8869 2.0068 2.13 2.0176 2.0018 1.84 1.8363 2.2 2.32 2.43
2227.970 2.42 2.32 2.39 2.58 2.59 2.51 2.65 2.58 2.38 2.4
2247.259 2.43 2.53 2.51 2.56 2.75 2.66 2.23 1.9295 1.9607 1.6623
2266.549 1.8105 2.37 2.14 1.8021 1.7878 1.7631 1.6721 1.5858 1.8558 1.9782
2285.839 1.6525 1.4762 1.428 1.5191 1.9635 2.0301 1.8662 1.717 1.6406 1.936
2305.129 2.26 2.13 1.8366 1.903 1.9342 1.7796 1.8305 1.6978 1.5217 1.6275
2324.418 1.5236 1.416 1.4567 1.4549 1.4168 1.7406 2.0123 1.7223 1.5605 1.5152
2343.708 1.5408 1.536 1.3883 1.3345 1.4194 1.7213 1.7495 1.7101 2.0717 1.9235
2362.998 1.316 1.3661 1.856 1.8904 1.6225 1.6791 1.5358 1.446 1.5171 1.4783
2382.288 1.6475 1.7342 1.5896 1.741 1.8157 1.7311 1.8284 1.846 1.8617 1.9664
2401.578 1.9382 1.5829 1.4682 1.5294 1.6852 1.7712 1.7056 1.8953 1.7326 1.6967
2420.867 1.9429 1.8204 1.7248 1.5854 1.344 1.2754 1.12529 1.0496 1.5001 1.6164
2440.157 1.4778 1.6583 1.7829 1.7143 1.7653 1.674 1.734 1.9282 1.8855 1.6338
2459.447 1.6323 1.808 1.5669 1.4035 1.2483 1.2502 1.2401 1.4165 1.5468 1.3505
2478.737 1.4291 1.6718 1.9863 1.8607 1.5349 1.6232 1.6296 1.4686 1.4489 1.4555
2498.026 1.4331 1.6937 2.0251 2.0767 1.9866 1.7246 1.7009 1.7779 1.5445 1.6446
2517.316 1.9656 1.8981 1.5342 1.15119 1.0845 1.271 1.18529 1.211 1.4222 1.5972
2536.606 1.20145 1.12753 1.4984 1.5121 1.6847 1.7255 1.4003 1.5546 1.7803 1.6471
2555.896 1.7874 1.7592 1.8238 1.7355 1.4863 1.5088 1.4982 1.2375 1.20787 1.535
2575.186 1.6078 1.4621 1.2377 1.3448 1.7328 1.7549 1.4232 1.3717 1.6205 1.8365
2594.475 1.543 1.2432 1.3971 1.6649 1.8323 1.7115 1.7196 1.6564 1.656 1.4411
2613.765 1.5464 1.8639 1.8377 1.6894 1.7103 2.0964 1.9549 1.7689 2.0281 2.32
2633.055 1.9787 1.6539 1.762 1.5751 1.4297 1.7603 1.7954 1.7684 2.0249 1.8508
2652.345 1.7294 1.7048 1.632 1.6227 1.5941 1.7659 1.8593 2.0038 1.9411 1.5345
2671.634 1.6611 1.7476 1.3891 1.4627 1.6663 1.7368 1.8104 1.5913 1.3982 1.19865
2690.924 1.5815 1.7618 1.4283 1.4007 1.5092 1.8115 1.6439 1.7409 2.0252 1.5291
2710.214 1.4944 1.8187 1.9916 2.0243 1.7369 1.7951 1.9648 2.1034 2.0616 2.14
2729.504 2.44 2.0895 2.0617 2.31 2.4 2.28 1.9566 1.9312 2.0843 2.3
2748.794 2.13 2.14 1.9346 1.6846 2.19 1.9913 1.7411 1.6215 1.8311 2.31
2768.083 2.37 2.4 1.7715 1.5098 1.7032 1.5136 1.6318 2.35 2.85 2.54
2787.373 2.21 2.21 2.0066 2.26 2.38 2.34 2.73 2.65 2.55 2.83
2806.663 3 3.08 2.82 2.69 2.65 2.48 2.59 2.58 2.55 2.8
2825.953 3.12 3.15 3.51 3.85 3.72 4.01 4.27 4.02 4.1 4.75
2845.242 4.93 5.15 6.13 6.75 6.8 7.18 7.79 8.66 9.88 10.67
2864.532 11.47 12.46 13.3 14.11 14.59 15.05 15.62 15.79 15.7 15.5
2883.822 15.03 14.51 13.59 12.66 12.66 12.2 11.51 11.14 11.23 11.21
2903.112 10.76 11.41 12.57 13.45 14.25 14.93 16.16 17.59 18.6 20.13
2922.401 21.91 23.81 25.85 27.78 30.18 32.09 33.54 34.84 35.68 36.42
2941.691 36.58 35.64 33.72 32.24 30.93 29.19 27.85 26.52 25.48 25.44
2960.981 26.21 27.48 28.03 27.64 27.5 27.18 26.74 25.91 24.46 23.75
2980.271 23.1 22.38 21.83 21.37 20.18 18.71 17.29 15.36 13.36 11.58
2999.561 10.34 9.29 8.14 7.14 6.6 5.82 5.07 4.81 5.06 4.97
3018.850 4.07 3.88 4.07 3.92 3.78 3.88 3.77 3.5 3.15 3.15
3038.140 3.33 2.9 2.92 3.41 3.46 3.21 3.11 3.16 3.01 3.2
3057.430 3.08 2.61 2.67 2.5 2.45 2.67 2.86 2.77 2.53 2.11
3076.720 1.7295 1.9455 2.65 2.52 2.17 2.61 2.12 1.5863 1.7956 1.7845
3096.009 1.5213 2.0343 2.54 2.17 2.31 2.63 2.41 2.16 1.9098 1.7142
3115.299 1.6817 1.6046 1.6106 1.4839 1.5772 1.6555 1.8078 2.16 2.5 2.41
3134.589 1.8907 1.8253 1.8884 1.9481 2.0967 2.2 2.1019 1.8498 2.0527 1.9251
3153.879 1.373 1.0372 1.13112 1.385 1.2134 1.17312 1.5401 1.5066 1.6899 1.8893
3173.169 1.291 1.0823 1.3481 1.20498 1.3557 1.9937 2.33 2.16 2.12 2.3
3192.458 2.19 2.26 2.54 2.27 1.9877 2.27 2.5 2.0869 1.6373 1.4773
3211.748 1.5481 1.4189 1.2659 1.5037 1.7334 1.9788 2.0442 2.4 2.1097 2.0425
3231.038 1.9557 0.91 0.727 1.2229 1.4528 1.6483 1.5934 1.16043 1.4373 2.059
3250.328 1.8322 1.5531 2.2 2.109 1.5969 1.4988 1.10808 1.4965 1.7822 1.5845
3269.617 1.14566 1.20544 1.7518 1.6759 0.97 0.58 1.18688 1.7125 1.6816 1.5072
3288.907 1.5822 1.7563 1.8889 2.13 1.8133 1.14867 1.3083 1.4784 1.6028 1.8666
3308.197 1.8691 1.2739 1.5069 2.79 2.78 2.16 1.7838 1.758 1.7117 1.3846
3327.487 1.2639 1.5378 1.5531 1.4334 1.8557 1.6231 1.15086 1.16588 1.12553 1.7333
3346.777 2.0457 1.7335 1.8997 2.34 2.38 1.7591 1.5416 2.21 2.77 2.17
3366.066 1.621 1.2234 1.18996 2.11 2.2 1.282 1.2456 1.5712 1.9882 2.35
3385.356 1.6213 0.996 1.3915 1.6737 1.8583 2.0081 1.8607 1.7597 2.22 1.8886
3404.646 0.707 1.326 1.9198 1.885 1.5532 0.866 1.2723 1.6254 1.7071 2.0996
3423.936 2.32 1.7715 1.5581 2.4 2.3 1.8467 1.068 0 0.668 1.3501
3443.225 0.931 1.5145 1.8412 1.2594 0.745 0.703 1.2788 1.4757 1.352 1.3662
3462.515 1.751 1.6829 1.3096 1.5326 1.8315 1.7268 1.13352 0.739 1.4451 2.21
3481.805 1.2973 0.851 1.6643 2.2 2.0394 1.7562 1.9494 1.6302 1.2515 1.6546
3501.095 1.8424 1.7352 1.4954 1.6819 1.9979 1.7175 1.6842 1.4155 1.2176 1.13641
3520.385 0.952 1.3467 1.0147 1.15661 1.5368 1.4424 1.4871 1.5584 1.6688 1.355
3539.674 1.5853 1.6776 1.4974 1.8448 2.38 2.3 2.0186 1.6695 1.6028 2.13
3558.964 1.9106 1.948 2.26 1.0278 0.558 1.10116 1.3201 1.4342 1.4153 1.471
3578.254 1.5176 1.7566 1.6422 1.0382 1.0307 1.7165 1.4801 1.4714 1.4913 1.335
3597.544 1.3147 1.4342 2.22 1.6266 1.17297 1.5068 1.8124 2.19 2.1072 2.24
3616.833 2.81 2.75 2.14 2.6 3.12 2.94 3.09 3.13 3.92 5.06
3636.123 5.14 5.33 5.99 6.74 6.74 6.13 5.45 4.91 4.73 4.41
3655.413 3.95 3.44 3.06 2.88 2.0211 1.4312 1.8171 2.0221 1.7581 2.032
3674.703 2.24 1.6425 1.4359 1.7939 2.0715 1.9629 1.785 1.4978 1.5819 1.6162
3693.993 1.071 1.2695 1.8233 1.771 1.402 1.5674 1.9137 2.18 2.5 2.12
3713.282 1.8572 1.8383 1.8391 1.9976 1.4719 1.16584 1.3379 1.4923 1.4928 1.2885
3732.572 1.6139 1.5175 1.3905 1.4865 1.3409 1.2336 1.4915 1.8098 2.21 2.26
3751.862 1.6071 1.4661 1.3795 1.009 1.3392 1.3723 0.594 0.867 1.6886 1.6042
3771.152 1.3225 1.4203 1.6757 1.5494 1.18636 1.497 1.20031 0.954 1.5491 1.2213
3790.441 0.846 1.0135 1.002 1.3646 1.9662 1.6032 1.4801 1.881 1.9304 1.9749
3809.731 1.7771 1.513 1.2704 0.986 1.3476 1.5054 1.1064 1.11036 1.0684 1.3464
3829.021 2.11 2.17 1.7793 1.4444 1.4127 1.6956 1.4492 0.907 1.10513 1.2554
3848.311 1.2667 1.2973 1.4105 1.4517 1.4348 2.14 1.6951 0.866 1.2616 1.727
3867.601 1.5787 1.5766 2.0445 2.23 1.7942 1.5835 2.0875 2.0523 1.5713 1.7917
3886.890 1.9651 1.8123 1.4743 0.988 1.19901 1.6275 1.982 2.21 2.22 2.0804
3906.180 1.8097 1.367 1.3429 1.2935 0.636 0.747 1.224 1.4901 1.7763 2.0325
3925.470 2.0501 2.42 2.0123 1.7803 1.9651 2.32 2.98 2.16 1.0114 0.65
3944.760 1.2186 1.4772 1.5469 1.2921 1.2983 1.6623 0.997 0.995 1.7879 1.4752
3964.049 1.3592 2.13 1.6596 0.813 1.5112 2.43 2.28 2.31 2.25 1.7609
3983.339 2.0433 2.0528 1.7453 1.7121 1.2475 1.7803 1.9249 1.6287 1.8703 0.722
##END=
