##TITLE=2-Chlorobutyramide
##JCAMP-DX=4.24
##DATA TYPE=INFRARED SPECTRUM
##ORIGIN=EPA-IR VAPOR PHASE LIBRARY
##OWNER=SRD/NIST
Collection (C) 2018 copyright by the U.S. Secretary of Commerce
on behalf of the United States of America. All rights reserved.
##CAS REGISTRY NO=7462-73-9
##MOLFORM=C 4 H 8 Cl N O
##$NIST SOURCE=MSDC-IR
##STATE=gas
##XUNITS=1/CM
##YUNITS=ABSORBANCE
##XFACTOR=1.
##YFACTOR=0.001
##DELTAX=1.92898
##FIRSTX=549.8
##LASTX=4000.7
##FIRSTY=2.3655
##MAXX=4000.7
##MINX=549.759
##MAXY=0.0399
##MINY=0
##NPOINTS=1790
##XYDATA=(X++(Y..Y))
549.759 2.3655 2.0781 2.2447 2.0324 1.9591 3.03 3.31 2.6072 2.0485 2.5534
569.049 2.318 2.1352 3.26 3.25 2.8193 2.96 2.8477 2.7872 3.6 3.49
588.339 3.48 3.09 2.8282 2.96 2.4776 2.93 2.6712 2.5325 2.5462 2.2233
607.628 2.415 2.4835 2.1619 2.3085 2.4764 1.8846 1.44 1.9627 1.7896 1.92854
626.918 2.27 2.2725 2.7474 2.356 2.6303 3.04 2.5217 2.3758 2.94 2.91
646.208 2.5069 2.5465 2.2051 2.0679 2.3928 2.5703 2.8237 3.18 3.06 2.6975
665.498 2.553 2.789 3.44 3.8 3.83 3.99 3.59 3.31 3.59 3.49
684.787 3.66 3.8 3.74 3.43 2.675 3.01 3.51 3.26 3.25 3.25
704.077 3.36 3.69 3.78 3.73 3.31 3.35 3.91 3.83 3.68 3.6
723.367 3.88 4.18 4.01 3.67 3.85 4.27 3.45 3.39 3.75 3.71
742.657 4.19 4.32 4.59 4.52 4.25 4.54 4.53 4.56 4.86 4.67
761.947 4.1 4.07 4.18 4.36 4.19 4.36 5.23 5.41 4.9 4.68
781.236 4.58 4.18 4.73 4.97 4.8 4.81 4.92 4.95 4.95 5
800.526 4.46 4.21 3.83 3.98 4.54 4.74 5.07 5.53 5.59 5.15
819.816 5.25 5.03 5.17 5.62 5.61 5.05 4.8 4.99 4.95 5.1
839.106 4.5 4.15 4.69 4.82 4.34 4.51 5.4 5.97 5.8 6.03
858.395 6.14 5.26 4.92 5.22 5.36 5.82 5.71 5.07 5.16 5.02
877.685 4.9 4.65 4.11 4.21 4.77 5.25 4.97 4.38 3.8 4.33
896.975 4.26 3.91 4.46 4.42 4.25 3.9 3.66 3.36 3.68 4.33
916.265 4.45 4.3 4.44 4.38 3.81 3.83 3.76 3.65 4 4.03
935.555 3.55 3.26 3.6 3.49 2.99 3.42 3.35 2.89 3.2 3.35
954.844 2.6966 2.1987 2.5504 2.7903 3.03 3.22 3 2.99 3.23 2.85
974.134 2.5367 2.7841 3.03 2.7961 2.3283 2.4912 2.88 3.05 3.26 3.38
993.424 3.17 2.7586 2.6686 2.6316 3.13 3.19 2.89 3.18 3.53 3.73
1012.714 3.18 2.91 2.7013 2.55 2.3324 2.3161 2.8386 2.86 2.0857 2.4473
1032.003 3.48 3.08 2.4238 4.15 4.63 3.43 2.8288 2.0174 2.4473 3.56
1051.293 3.72 3.08 3.24 3.15 3.1 3.23 2.3285 2.3618 3.13 3.65
1070.583 3.68 3.06 2.86 2.5672 3.31 4.19 4.23 4.01 4.7 4.47
1089.873 3.64 3.9 4 4.37 3.9 2.93 2.2451 2.86 2.803 1.321
1109.163 2.3589 2.231 0.3 1.217 2.4798 2.4128 1.03 0.38 1.465 2.3295
1128.452 1.89016 0.932 0.857 0.929 0.892 1.589 1.585 0.45 0.14 1.264
1147.742 0.77 0 2.0085 3 2.5408 2.141 1.569 1.228 1.549 1.90832
1167.032 1.376 1.361 3.05 4.2 3.83 3.46 3.85 3.83 3.52 3.68
1186.322 2.89 1.684 2.3567 3.12 2.4717 1.711 2.499 2.5338 1.9126 2.1482
1205.611 2.834 3.19 1.617 1.413 3.43 3.88 4.04 5.18 4.65 3.77
1224.901 3.99 3 2.4282 3.23 3.26 3.59 2.7533 2.5045 3.38 3.51
1244.191 3.01 2.2626 2.91 3.44 3.2 2.7628 2.5528 2.96 3.19 2.6158
1263.481 2.2122 2.3633 2.0462 2.0875 2.3199 2.7324 3.42 3.53 3.67 4.34
1282.771 4.09 3.48 3.44 3.54 3.86 4.21 3.99 3.68 3.89 4.19
1302.060 4.03 4.01 4 3.87 4.13 4.19 4.35 4.58 4.72 4.82
1321.350 4.78 5.17 5.6 5.92 6.23 6.31 6.53 7.09 7.9 8.46
1340.640 8.93 9.54 9.92 10.53 11.12 11.58 12.04 12.41 12.77 12.83
1359.930 12.66 12.69 12.56 11.96 11.3 10.52 9.9 9.19 8.14 7.5
1379.219 6.99 6.4 5.91 5.52 5.22 4.93 4.71 4.63 4.5 4.35
1398.509 4.02 3.56 3.5 3.49 3.45 3.19 2.8467 2.809 2.7644 2.6253
1417.799 2.7373 2.7505 2.7424 2.94 2.99 3.06 3.17 3.25 3.45 3.49
1437.089 3.4 3.68 3.72 3.62 3.65 3.8 3.99 4.07 4.17 4.12
1456.378 3.83 3.64 3.53 3.51 3.6 3.72 3.82 3.47 3.31 3.28
1475.668 3.21 3.17 3 2.86 2.94 2.93 2.6617 2.495 2.567 2.57
1494.958 2.3647 2.3983 2.4768 2.4486 2.5348 2.3623 2.1604 2.6448 2.8127 2.6603
1514.248 2.5913 2.3849 2.5016 2.6066 2.6445 2.7726 2.671 2.5454 2.5726 2.6399
1533.538 2.6545 2.7252 3.1 3.27 3.38 3.54 3.62 4.04 4.55 5.13
1552.827 5.52 5.74 6.32 7.4 8.39 9.06 10.13 11.3 12.33 13.2
1572.117 14.02 14.77 15.26 15.6 15.73 16.01 15.64 14.78 14.22 13.52
1591.407 12.2 11.18 10.53 9.46 8.57 7.95 6.97 6.23 5.86 5.24
1610.697 4.87 4.72 4.36 3.74 3.63 3.82 3.85 3.84 3.72 3.57
1629.986 3.33 3.29 3.12 2.8092 2.6335 2.577 2.97 3.12 2.85 3.03
1649.276 3.3 2.92 2.99 3.05 2.87 3.12 3.44 3.73 3.71 3.73
1668.566 3.75 4.08 4.37 4.51 4.92 5.14 5.58 5.73 5.77 6.22
1687.856 6.65 7.17 7.28 7.53 8.58 9.43 10.16 11.39 12.98 14.89
1707.146 16.88 19.47 22.25 25.08 28.05 30.42 32.91 35.42 37.58 39.23
1726.435 39.9 39.66 39.02 37.75 35.77 33.72 31.23 28.52 25.83 22.64
1745.725 19.64 17.23 15.28 13.69 12.49 11.56 10.75 10.05 9.51 9.27
1765.015 8.77 7.95 7.32 6.92 6.56 6.03 5.46 5.03 4.56 4.26
1784.305 3.91 3.39 3.19 3.15 3.04 3.01 2.97 2.88 2.7971 2.639
1803.594 2.5839 2.3914 2.2811 2.2823 2.2501 2.4165 2.5269 2.2981 2.1625 2.2696
1822.884 2.4154 2.4368 2.3593 2.3454 2.2259 2.1459 2.0655 2.0853 2.273 2.3256
1842.174 2.2375 2.041 1.90577 2.0423 2.0438 1.94474 1.9847 2.274 2.3881 2.381
1861.464 2.4212 2.2213 2.0485 2.1348 2.2944 2.1087 2.0746 2.1233 2.2 2.2506
1880.754 2.0175 1.85915 1.9907 2.0123 1.90374 1.9981 2.0492 1.94587 2.0141 2.0931
1900.043 1.978 2.066 2.0023 1.721 1.727 1.92813 1.9798 1.9966 2.0015 1.8299
1919.333 2.0594 2.1027 1.91273 2.0644 2.0862 2.0731 2.1648 2.1984 2.1239 2.3191
1938.623 2.4853 2.3518 2.1529 2.0817 1.9786 2.0177 2.3042 2.3304 2.05 1.9719
1957.913 2.1047 2.1754 2.3008 2.189 1.89268 1.727 2.0142 2.1962 2.1661 2.2336
1977.202 2.156 2.0646 2.0537 2.1133 2.1032 2.142 2.0962 2.0456 2.0264 2.0087
1996.492 1.9514 1.85449 1.90405 1.8335 1.87067 1.9056 1.86075 1.9773 2.083 2.1253
2015.782 2.0084 1.94971 1.87192 1.8041 1.9641 2.1135 2.133 2.1086 2.0881 2.0346
2035.072 2.0969 2.123 2.1559 2.0915 2.0427 2.0343 1.87745 1.9906 2.1318 2.1328
2054.362 2.0848 1.849 1.904 2.1588 1.9819 1.8529 1.90625 1.9743 2.03 1.92218
2073.651 1.93171 2.0068 1.93504 2.0932 2.1959 2.0894 1.9794 1.92798 1.833 1.689
2092.941 1.9584 2.0596 1.92635 1.94541 1.9805 1.9521 1.87869 1.695 1.67 1.91632
2112.231 1.9312 1.9714 1.91526 1.8207 1.92812 1.89018 1.8009 1.8352 2.0553 2.0563
2131.521 1.8158 1.89491 1.9717 1.86669 1.698 1.631 1.7514 1.88662 2.0567 2.1118
2150.810 1.9636 1.698 1.708 2.0357 2.1522 2.0584 2.0923 2.0574 1.9715 2.0469
2170.100 2.2728 2.3194 2.2763 2.0783 2.073 2.0478 1.89227 2.0337 2.166 2.1885
2189.390 1.90161 1.718 1.9913 2.2258 2.388 2.4479 2.1616 1.8192 1.8068 2.0045
2208.680 1.91502 2.0322 2.2623 2.2134 2.1722 2.1454 2.0108 2.0904 2.2746 2.2973
2227.970 2.263 2.2531 2.2851 2.1711 2.1445 2.1568 2.1806 2.227 2.1328 1.9629
2247.259 1.91021 1.9906 2.0721 2.0435 2.2596 2.2996 1.9759 1.90354 2.0537 2.2387
2266.549 2.1801 2.0655 1.9655 1.8306 1.8295 1.84518 1.8362 2.0396 1.93409 1.7871
2285.839 1.89671 1.8141 1.7786 1.9569 1.8953 1.85005 2.0183 2.083 2.2288 2.3197
2305.129 2.4042 2.4719 2.0742 1.7993 1.91965 2.1184 2.2186 2.0855 1.9905 1.9932
2324.418 2.1027 2.1459 1.9594 1.89207 1.89438 1.7854 1.631 1.484 1.702 1.8134
2343.708 1.729 1.7968 2.0158 1.89446 1.8303 1.90562 1.7883 1.8126 2.0574 2.2246
2362.998 1.9851 1.682 1.662 1.9679 2.1326 2.0738 1.8328 1.84717 1.8043 1.87302
2382.288 2.1377 2.3352 2.4796 2.2681 2.1548 1.9759 2.0094 2.1875 2.2001 2.0743
2401.578 1.689 1.608 2.0281 2.1671 2.1472 2.2579 1.91016 1.764 2.1338 2.1436
2420.867 2.2845 2.5623 2.3223 2.0417 2.252 2.4069 2.1149 2.1305 2.0875 1.9665
2440.157 2.1707 2.432 2.3918 2.3704 2.1893 2.0501 2.3998 2.3021 1.9628 1.94406
2459.447 2.131 2.1078 1.7576 1.85761 1.92613 1.85618 2.0572 2.1102 2.1389 2.0619
2478.737 2.0102 2.05 2.0311 1.9547 2.3312 2.2859 1.93799 2.0579 1.9691 1.84716
2498.026 1.7576 1.9586 2.1116 1.88804 1.88795 2.2168 2.5254 2.215 1.9577 2.1212
2517.316 2.1475 1.9974 2.1281 2.4406 2.4756 2.1821 1.9522 1.8098 1.7571 2.1424
2536.606 2.1832 2.154 2.2223 2.118 2.2361 2.5798 2.2583 2.0527 2.3453 2.2998
2555.896 2.3848 2.3918 2.185 2.1467 2.5247 2.3635 1.92644 2.0278 2.0681 2.1357
2575.186 2.3297 2.1847 1.794 2.097 2.4036 2.1178 2.0994 2.2392 2.1715 2.2381
2594.475 2.2446 1.9851 2.0602 2.3615 2.2319 2.0962 2.1825 2.1497 2.0496 2.2288
2613.765 2.0271 1.9508 2.1348 2.074 2.5494 2.8096 2.4961 2.1023 2.1046 2.1732
2633.055 2.2654 2.3702 2.3106 2.0593 1.7611 1.7 1.687 2.0282 2.3761 2.0601
2652.345 1.9795 2.2019 2.0919 2.2233 2.3828 2.1661 2.5646 2.6088 2.1746 2.2324
2671.634 2.3424 2.3484 1.86081 1.8343 2.2773 2.321 2.2248 2.2342 2.2954 2.2663
2690.924 2.3623 2.6274 2.7585 2.5214 2.2455 2.4488 2.3383 2.0791 2.3095 2.3426
2710.214 2.2454 2.1608 2.103 2.4183 2.579 2.3569 2.278 2.4037 2.4751 2.0242
2729.504 1.747 1.7777 1.7742 1.91925 1.7851 1.652 2.0158 2.3615 2.3654 2.1749
2748.794 2.1414 2.1306 2.0229 2.2063 2.0798 2.0556 2.036 2.0108 2.3077 2.3132
2768.083 2.1163 2.1123 2.4042 2.4685 2.1489 1.9644 2.0095 2.0749 2.3515 2.5023
2787.373 2.3244 2.1816 2.4025 2.4208 2.2168 2.7362 2.88 2.5003 2.8296 2.7678
2806.663 2.2297 2.2064 2.2853 2.2592 2.2708 2.3703 2.5568 2.6268 2.2693 2.2503
2825.953 2.6178 2.7438 2.5369 2.565 2.5936 2.5076 2.7415 2.3009 1.86277 2.018
2845.242 2.0443 2.1223 2.5919 2.8023 2.7666 2.7231 2.92 3.12 2.7548 2.7981
2864.532 2.7858 2.7101 3.09 3.22 3.3 3.42 3.51 3.55 3.65 3.93
2883.822 3.97 3.92 4.24 4.33 4.04 4.35 4.53 4.04 3.88 3.91
2903.112 3.92 3.98 3.95 4.2 3.92 3.61 3.97 4.16 4.13 4.21
2922.401 3.92 3.64 3.94 4.76 5.31 5.28 5.65 6.1 6.35 6.61
2941.691 6.46 6.2 6.37 6.55 6.47 6.49 6.85 6.78 6.69 6.87
2960.981 6.93 7.04 7.25 7.34 7.3 7.33 7.83 8.18 8.68 9.42
2980.271 9.38 8.92 8.43 8.44 8.05 7.28 6.8 6.67 6.43 5.9
2999.561 5.27 4.4 3.78 3.36 3.17 3.2 3.13 2.97 3.11 3
3018.850 2.86 2.5801 2.3742 2.91 2.93 2.5941 2.6911 2.4562 2.3547 2.8141
3038.140 2.836 2.5414 2.6167 2.86 2.7391 2.4896 2.1651 2.332 2.3295 2.1892
3057.430 2.4954 2.6748 2.4918 2.3285 2.2573 2.6697 2.86 2.2988 1.85485 2.1293
3076.720 2.5866 2.4927 2.4177 2.5007 2.4715 2.3833 2.33 2.3298 2.4356 2.662
3096.009 2.6463 2.6655 2.8153 2.2502 1.8483 1.8194 2.002 2.1419 2.3768 2.6367
3115.299 2.5525 2.5283 2.5107 2.3682 2.2592 2.5539 2.7527 2.1662 2.0641 2.3199
3134.589 2.0836 2.1235 2.4054 2.4746 2.2257 2.0436 1.788 1.9123 1.93063 2.0015
3153.879 2.4724 2.3397 2.0013 2.0148 2.0435 1.7883 2.1268 2.2153 1.665 1.669
3173.169 2.1969 2.5701 2.6546 2.5098 2.1378 1.7906 1.7835 2.028 1.9937 1.92286
3192.458 1.8107 2.1565 2.0773 1.612 1.9931 1.89422 1.804 1.9721 1.85041 2.0878
3211.748 2.0158 1.8109 2.0768 1.8244 1.7844 2.0758 2.3955 2.4404 1.9727 1.625
3231.038 1.463 1.793 2.0413 1.9649 1.85686 1.696 2.0457 2.078 2.1144 2.5786
3250.328 2.4074 2.2543 1.9892 1.84217 1.90715 1.303 0.74 0.79 1.133 1.168
3269.617 1.655 1.85193 1.7735 1.731 1.418 2.0394 2.3769 1.91972 1.491 1.474
3288.907 1.651 2.054 2.2045 2.0347 1.90214 1.726 2.0343 2.3394 2.0188 1.694
3308.197 1.744 1.7595 1.39 1.464 1.7503 1.357 0.981 1.191 2.1954 2.3761
3327.487 2.4862 2.2299 1.503 1.285 1.543 2.1346 2.2877 2.16 2.1175 2.3905
3346.777 2.4046 2.3293 1.7846 1.262 1.593 2.1969 2.3596 2.112 1.8646 2.1078
3366.066 2.2685 2.0124 1.9631 2.2255 2.5324 2.3731 1.7625 1.696 1.833 2.0215
3385.356 2.2478 2.2783 2.4714 2.6489 3.19 3.17 2.9 2.7844 2.6723 2.8311
3404.646 3.16 3.17 3.49 4.41 4.86 4.73 4.79 5.43 5.87 6.2
3423.936 6.43 6.4 6.41 6.25 6.12 6.2 6.15 5.8 5.24 5.33
3443.225 5.78 5.18 4.27 3.54 2.98 3.28 3.47 3.43 3.12 2.7781
3462.515 2.3719 1.9547 1.9947 2.4134 2.588 2.5275 2.7005 2.4527 2.5557 2.3218
3481.805 2.0784 2.6791 2.7841 2.98 2.8262 2.5728 2.4893 2.18 2.2892 3
3501.095 3.1 3.25 3.57 3.58 3.85 4.06 4.26 4.24 4.22 4.33
3520.385 4.65 4.59 5.05 6.04 6.3 6.05 5.95 6.21 6.99 7.93
3539.674 8.67 8.99 8.78 8.95 8.72 8.21 8.3 8.75 8.77 7.76
3558.964 6.6 6.08 5.44 4.29 3.71 3.61 3.2 3.06 2.9 2.5616
3578.254 2.0469 1.368 1.717 1.9721 1.7661 2.3228 2.2296 2.014 2.0295 1.345
3597.544 0.868 0.61 0.955 1.524 1.497 1.172 1.566 1.9943 1.725 1.93659
3616.833 2.1936 2.1996 1.89535 1.489 1.718 1.597 1.27 1.494 1.526 1.643
3636.123 1.92953 1.9886 2.1199 1.557 1.248 0.951 0.76 1.673 1.9812 1.86393
3655.413 1.36 1.274 1.449 1.189 1.656 1.731 1.57 1.674 1.27 1.423
3674.703 1.94648 1.8194 1.229 1.623 1.587 1.347 1.24 0.951 0.982 1.091
3693.993 1.475 1.448 1.704 1.7765 1.41 1.387 1.677 1.082 1.074 1.8269
3713.282 1.703 1.8153 1.748 1.666 1.798 1.9929 1.7945 1.87736 2.3192 1.9584
3732.572 1.527 1.439 1.7592 1.9996 2.1691 2.1844 1.9723 1.8271 2.0524 2.2486
3751.862 1.9501 1.9531 1.87985 1.87876 2.1236 2.2334 2.0398 1.8568 2.0779 1.477
3771.152 1.02 2.0762 2.4889 1.7781 0.865 1.299 2.1338 1.7944 1.90442 2.2448
3790.441 2.2394 2.0366 1.454 1.218 1.483 1.89141 1.89615 1.665 2.0728 2.5491
3809.731 2.4635 1.436 1.477 2.2028 2.0336 1.516 1.365 1.91587 1.8398 2.1481
3829.021 2.2678 1.86352 2.1278 1.90577 1.246 1.335 1.286 1.254 1.626 2.1712
3848.311 1.84038 0.968 1.261 1.205 1.09 1.156 1.009 0.986 1.236 1.718
3867.601 1.736 1.92995 2.0207 1.7841 1.464 1.569 1.8707 1.559 1.756 1.066
3886.890 0.76 1.391 1.089 1.163 1.85688 2.1701 2.1331 1.9752 1.247 1.169
3906.180 0.8 0.41 1.325 1.513 1.367 1.565 1.31 1.436 1.586 1.122
3925.470 0.84 1.067 1.298 1.348 1.543 1.549 1.611 1.517 1.028 1.324
3944.760 1.486 1.51 1.555 1.15 1.106 1.418 1.48 1.674 1.351 1.171
3964.049 1.663 1.686 2.0276 2.0825 1.8085 1.531 1.393 1.66 1.7987 2.1126
3983.339 1.92033 1.319 1.643 1.688 1.417 1.707 1.8072 1.9981 2.1454 2.1171
##END=
