##TITLE=N-(2-Chloroethyl)naphthalimide
##JCAMP-DX=4.24
##DATA TYPE=INFRARED SPECTRUM
##ORIGIN=EPA-IR VAPOR PHASE LIBRARY
##OWNER=SRD/NIST
Collection (C) 2018 copyright by the U.S. Secretary of Commerce
on behalf of the United States of America. All rights reserved.
##CAS REGISTRY NO=74732-00-6
##MOLFORM=C 14 H 10 Cl N O 2
##$NIST SOURCE=MSDC-IR
##STATE=gas
##XUNITS=1/CM
##YUNITS=ABSORBANCE
##XFACTOR=1.
##YFACTOR=0.001
##DELTAX=1.92898
##FIRSTX=549.8
##LASTX=4000.7
##FIRSTY=0.9896
##MAXX=4000.7
##MINX=549.759
##MAXY=0.082215
##MINY=0
##NPOINTS=1790
##XYDATA=(X++(Y..Y))
549.759 0.9896 0.80588 1.1524 1.4075 1.1013 0.6764 0.9997 1.4739 0.9686 0.8507
569.049 0.6495 0.071 0.739006 0.75794 0.231 0.396 0.589 0.521 0.009 0
588.339 0.9231 1.0569 0.735144 0.8509 0.9596 0.455 0.589 1.061 0.445 0.03
607.628 0.108 0.483 0.6549 1.0077 0.9398 0.543 0.6569 0.9782 1.2918 1.3289
626.918 1.4636 1.6586 2.225 2.725 2.975 3.475 3.825 3.565 2.775 2.295
646.208 1.755 1.5045 1.485 1.125 0.9419 1.2032 1.6221 1.3419 1.4274 2.135
665.498 2.415 2.495 2.895 2.875 2.225 1.925 1.6079 1.1016 1.083 1.3332
684.787 1.5025 1.5788 1.795 2.175 2.265 1.895 1.7112 1.5774 1.4481 1.4285
704.077 1.2297 1.1029 1.0846 1.0835 1.1857 1.2403 1.1914 1.0803 1.115 1.4357
723.367 1.3805 1.0012 1.2353 1.3799 1.3879 1.795 1.7075 1.6324 1.4591 1.3445
742.657 1.4597 1.1877 1.2326 1.3544 1.6261 1.7084 1.995 2.535 2.755 3.575
761.947 4.595 5.945 7.815 10.315 13.295 16.795 20.685 24.375 27.755 29.725
781.236 28.605 24.735 19.995 15.785 12.275 8.805 6.275 4.735 3.385 2.835
800.526 2.645 2.245 1.995 2.235 2.205 1.895 2.175 2.155 1.755 1.5754
819.816 1.7276 1.995 1.745 1.72 2.155 2.205 2.155 2.505 2.785 2.925
839.106 3.125 3.685 4.375 4.765 4.565 4.035 3.315 2.495 1.955 1.905
858.395 2.205 2.395 2.585 2.805 3.055 3.155 3.395 3.715 3.755 3.745
877.685 3.655 3.395 3.055 2.865 2.525 2.165 1.7065 1.4758 1.6769 1.2913
896.975 1.1514 1.4827 1.865 1.925 1.6575 1.765 1.6757 1.3012 1.2805 1.554
916.265 1.815 2.045 1.6372 1.2299 1.3827 1.6155 2.015 2.255 2.145 1.955
935.555 1.835 1.905 2.185 2.185 1.985 2.035 2.355 2.645 2.695 2.585
954.844 2.465 2.365 2.335 2.375 2.445 2.225 2.045 1.915 1.69 1.965
974.134 1.845 1.6089 1.965 2.075 2.165 2.085 1.915 1.885 2.325 2.565
993.424 2.325 2.455 3.045 3.485 3.885 4.885 5.535 5.685 5.995 6.475
1012.714 6.905 6.885 6.545 6.845 6.905 6.945 7.205 6.585 5.815 5.375
1032.003 4.925 4.385 4.135 3.775 3.285 2.965 2.655 2.665 2.595 1.5594
1051.293 0.467 0.368 0.9082 1.2597 1.1341 1.1962 1.755 1.965 1.815 2.025
1070.583 2.595 2.875 2.395 1.905 1.1211 1.1019 1.835 1.895 2.265 2.315
1089.873 2.345 2.585 2.195 2.845 4.185 4.775 4.775 4.785 4.315 4.345
1109.163 4.295 2.965 2.545 2.825 2.655 2.025 1.7328 2.055 1.765 0.6685
1128.452 1.0782 2.825 3.735 4.415 4.825 5.285 5.955 5.525 5.585 6.405
1147.742 5.735 5.215 4.965 4.175 3.625 3.535 4.695 6.505 8.365 10.395
1167.032 12.315 12.775 13.065 13.465 12.945 11.005 8.015 6.365 5.425 4.515
1186.322 4.265 4.505 4.605 4.265 4.105 4.355 5.025 5.235 4.875 5.355
1205.611 5.815 5.895 5.435 5.065 5.105 6.765 8.635 10.045 12.335 13.935
1224.901 16.125 17.995 18.765 20.095 21.005 20.155 18.545 16.265 14.685 13.435
1244.191 12.655 12.395 12.245 12.765 12.955 12.665 12.655 12.675 12.485 11.725
1263.481 10.185 9.125 8.405 7.375 6.345 5.965 6.005 5.585 4.845 4.895
1282.771 5.155 5.085 5.155 4.945 4.795 4.765 4.455 4.225 4.325 4.365
1302.060 4.365 4.495 4.965 5.455 5.815 6.445 7.225 8.305 9.905 11.945
1321.350 14.155 16.975 20.245 23.595 27.485 31.455 34.965 37.875 39.835 40.695
1340.640 40.905 40.995 41.185 41.425 41.075 39.795 37.355 33.685 29.465 25.305
1359.930 21.925 19.585 18.145 17.585 17.745 18.485 19.885 21.785 23.925 25.685
1379.219 26.605 26.435 24.975 22.495 19.415 16.365 13.815 11.685 9.935 8.635
1398.509 7.555 6.595 5.725 5.005 4.505 4.135 3.935 3.915 3.875 3.995
1417.799 4.325 4.805 5.685 6.845 8.255 10.125 12.475 14.685 16.315 17.435
1437.089 18.015 18.085 17.795 17.045 16.085 15.175 14.215 12.925 11.505 10.225
1456.378 8.905 7.715 6.625 5.805 5.265 4.645 4.215 3.865 3.385 3.185
1475.668 3.065 2.845 2.675 2.425 2.345 2.275 2.075 2.135 2.145 2.065
1494.958 2.045 2.185 2.235 2.225 2.435 2.625 2.775 2.965 3.295 3.315
1514.248 3.065 2.925 2.805 2.615 2.525 2.345 2.015 1.845 1.785 1.765
1533.538 1.6255 1.57 1.652 1.6954 1.7053 1.735 1.663 1.7013 1.795 1.6527
1552.827 1.765 2.025 2.145 2.245 2.495 2.715 2.835 3.175 3.665 4.275
1572.117 4.675 5.185 6.175 7.355 8.975 11.035 13.165 15.305 17.355 18.855
1591.407 19.315 18.735 17.195 15.015 12.505 9.895 7.745 6.105 5.085 4.585
1610.697 4.175 3.865 3.625 3.395 3.305 3.405 3.405 3.235 3.225 3.285
1629.986 3.425 3.485 3.495 3.665 3.685 3.605 3.595 3.725 4.135 4.545
1649.276 4.875 5.475 6.155 6.755 7.525 8.365 9.285 10.175 11.285 12.665
1668.566 14.455 17.285 21.375 27.055 34.875 44.505 55.655 66.525 75.235 80.625
1687.856 82.215 79.955 73.335 63.885 53.795 44.885 37.745 32.185 28.655 26.675
1707.146 26.045 26.725 28.785 32.145 36.665 41.645 45.735 47.375 46.155 42.295
1726.435 36.425 29.645 23.175 18.175 14.535 11.895 9.845 8.105 6.805 5.855
1745.725 5.215 4.755 4.425 4.185 3.955 3.645 3.445 3.555 3.485 3.145
1765.015 2.945 2.935 2.755 2.745 2.855 2.615 2.355 2.155 2.035 2.005
1784.305 1.945 1.875 1.825 1.765 1.775 1.6818 1.5486 1.563 1.6167 1.5202
1803.594 1.4747 1.4614 1.3117 1.3055 1.4006 1.3257 1.3649 1.3842 1.1361 1.0147
1822.884 1.0613 1.0952 0.971 0.8994 0.9674 0.9724 1.0017 0.9718 0.9681 1.1319
1842.174 1.2486 1.219 1.2125 1.2425 1.3642 1.543 1.5884 1.6779 1.865 1.775
1861.464 1.587 1.6708 1.6588 1.5602 1.5203 1.4404 1.4032 1.2818 1.1815 1.2073
1880.754 1.2434 1.2736 1.2294 1.2576 1.3497 1.431 1.4638 1.5337 1.6648 1.6476
1900.043 1.5882 1.505 1.5539 1.6094 1.5622 1.5507 1.4898 1.4884 1.4269 1.3804
1919.333 1.4064 1.3123 1.2403 1.2599 1.2403 1.095 0.937 0.9745 1.1738 1.1648
1938.623 1.1068 1.1842 1.2617 1.387 1.4736 1.6522 1.825 1.845 1.845 1.815
1957.913 1.6223 1.3465 1.1944 1.1405 1.0698 0.9892 0.9941 0.9134 0.8922 0.9764
1977.202 0.9317 0.8366 0.8514 0.8855 0.8833 0.8866 0.9619 0.8671 0.75625 0.77828
1996.492 0.81887 0.8768 0.845 0.79989 0.8569 0.9141 0.8873 0.9338 0.9269 0.8925
2015.782 0.9931 0.9606 0.82099 0.9475 1.1086 1.0818 1.0326 1.0253 0.9091 0.79204
2035.072 0.8407 0.82583 0.76138 0.6905 0.7151 0.8976 0.9222 0.8911 0.8652 0.8741
2054.362 0.83228 0.7222 0.741208 0.76518 0.82264 0.8874 0.8796 0.844 0.9157 0.944
2073.651 0.82593 0.7508 0.78488 0.8458 0.8599 0.8675 0.8502 0.81769 0.80803 0.8372
2092.941 0.8742 0.9035 0.8677 0.8266 0.78824 0.76961 0.9362 0.9013 0.75818 0.76918
2112.231 0.82605 0.8754 0.9166 0.9448 0.9425 0.9711 1.0175 0.9191 0.77902 0.83271
2131.521 0.9611 0.9395 0.8122 0.82372 0.8862 0.909 0.8648 0.83372 0.8841 0.924
2150.810 0.9132 0.9381 0.8569 0.82147 0.8771 0.8454 0.8678 0.888 0.905 0.839
2170.100 0.79501 0.734456 0.6888 0.75618 0.7829 0.9108 0.9581 0.83486 0.8732 0.9456
2189.390 0.80446 0.75855 0.79645 0.76836 0.81483 0.8436 0.8766 0.80334 0.73313 0.78604
2208.680 0.8372 0.80633 0.72642 0.7119 0.6916 0.82871 0.9026 0.897 0.9265 0.9625
2227.970 0.9178 0.9527 0.996 0.9139 0.9318 1.0431 1.1837 1.0932 0.9848 0.9535
2247.259 1.0051 1.0955 1.0305 0.9825 0.9415 0.866 0.8841 0.9574 0.949 0.8847
2266.549 0.892 0.9429 0.83337 0.7126 0.9839 1.1516 1.0109 0.9635 1.029 0.951
2285.839 0.9024 0.9962 0.9148 0.8595 0.83432 0.8882 1.0607 0.9124 0.80685 0.9323
2305.129 0.9764 0.943 0.9403 0.9541 0.9458 0.9428 1.0387 1.0531 0.9083 0.8829
2324.418 1.0099 0.9747 0.77122 0.8617 0.77231 0.6594 0.82611 0.9829 1.0092 0.9008
2343.708 0.8585 0.8756 1.0141 1.0267 0.9451 0.8824 0.82981 0.9473 0.9329 0.8949
2362.998 1.0224 0.968 0.73144 0.6624 0.76009 0.81968 0.957 0.9751 0.9786 1.0396
2382.288 0.9784 0.9262 0.9089 0.8208 0.9761 1.171 1.0356 1.0419 0.9767 0.8706
2401.578 0.9219 1.0272 0.948 0.8951 1.0029 1.0795 1.0869 0.8806 0.865 0.9839
2420.867 1.0017 1.0035 1.0751 0.9819 0.8695 0.8495 0.81914 0.8654 0.9389 0.9593
2440.157 0.9501 0.9911 0.8425 0.73967 0.8664 1.023 1.0342 0.8618 0.79725 0.841
2459.447 0.81555 0.8664 1.031 1.1214 1.1617 1.038 0.9362 1.0747 1.0608 1.0706
2478.737 1.0038 0.81249 0.8354 0.9065 0.9209 0.9304 0.9259 0.9272 0.89 0.82357
2498.026 0.9021 0.9392 0.8646 0.9237 1.0217 1.0441 0.9253 0.8566 0.78918 0.76522
2517.316 0.82115 0.8815 0.9815 0.9435 0.8555 0.8061 0.9122 0.9309 0.9393 0.9511
2536.606 0.846 0.79332 0.78083 0.77556 0.8657 0.8721 1.0175 1.1511 0.991 0.8389
2555.896 0.7019 0.81068 0.82296 0.77813 0.79362 0.8846 1.0924 1.0557 1.0128 1.0621
2575.186 0.8585 0.75192 0.9668 1.0832 1.0207 1.0773 1.2169 1.1192 1.0085 1.0071
2594.475 1.1171 1.1897 1.0027 0.9651 0.9801 0.9954 0.9205 0.77178 0.8734 0.8848
2613.765 1.0376 1.1578 0.9255 0.8387 0.82632 0.8417 0.8952 0.9144 0.9178 1.129
2633.055 1.1724 0.9057 0.9385 0.8441 0.7128 0.8588 0.8597 0.8545 1.0893 1.0871
2652.345 0.9164 0.79167 0.9292 0.9349 0.81671 0.973 0.9455 0.9083 0.9316 0.9466
2671.634 0.9833 0.9301 0.77456 0.79652 0.9748 0.9417 0.77687 0.8422 1.0811 1.0433
2690.924 0.9996 1.0938 0.82395 0.8796 1.059 0.8499 0.74671 0.76056 0.9642 1.183
2710.214 1.1285 1.0066 1.0578 1.0875 0.9386 0.9403 0.944 0.875 0.8581 0.9173
2729.504 1.0296 0.9661 0.79718 0.7198 0.7151 0.6447 0.81591 1.1211 1.0498 1.0203
2748.794 0.91 0.7085 0.9031 0.94 0.82299 0.77439 0.9101 0.9549 0.67 0.72565
2768.083 0.9064 0.9819 0.9756 0.9168 0.876 0.7154 0.6968 0.736308 0.75681 0.81874
2787.373 0.8528 0.8798 0.8461 0.82928 0.76682 0.80295 0.8933 0.9177 0.9178 0.79508
2806.663 0.80192 0.81561 0.7555 0.8593 0.9488 0.9579 0.80725 0.609 0.668 0.9732
2825.953 1.1833 0.9715 0.9809 1.0388 0.79444 0.81351 0.83026 0.9588 1.2282 1.0647
2845.242 0.8531 0.8419 0.7612 0.6737 0.76811 0.9096 0.9447 0.9132 0.8576 0.8385
2864.532 1.0271 1.2722 1.231 1.1058 0.9802 0.8852 1.0483 1.2554 1.2168 1.0732
2883.822 0.9226 0.8995 0.8939 1.0059 1.1767 1.0068 0.913 0.9527 0.993 1.0916
2903.112 1.0755 0.8897 0.9101 0.8773 0.76833 0.806 0.78588 0.9546 0.9892 0.8874
2922.401 1.1065 1.1071 1.173 1.2285 1.0468 1.0907 1.3705 1.6781 1.6445 1.775
2941.691 1.835 1.875 2.235 2.535 2.605 2.615 2.565 2.495 2.485 2.295
2960.981 2.245 2.305 2.435 2.865 3.515 4.075 4.425 4.565 4.695 4.525
2980.271 4.075 3.605 3.145 3.005 3.055 2.935 2.855 2.715 2.325 1.935
2999.561 1.755 1.7308 1.7056 1.6774 1.5607 1.7099 1.815 1.6835 1.6187 1.5876
3018.850 1.6959 1.6402 1.745 1.955 2.005 1.825 1.7058 1.825 1.6917 1.4564
3038.140 1.6054 1.7348 1.6269 1.735 1.825 2.155 2.605 3.035 3.505 4.035
3057.430 4.625 5.055 5.555 5.985 6.245 6.405 6.515 6.655 6.605 6.165
3076.720 5.555 5.045 4.445 3.575 2.845 2.465 2.025 1.755 1.7069 1.6572
3096.009 1.5597 1.588 1.765 1.7035 1.6474 1.6755 1.363 1.281 1.4041 1.0455
3115.299 0.8999 0.8885 0.74949 0.8528 0.6608 0.615 0.78711 0.7113 0.618 0.639
3134.589 0.81392 0.9123 0.73333 0.623 0.743278 0.632 0.427 0.6702 0.81783 0.467
3153.879 0.502 0.6661 0.77216 0.75099 0.514 0.564 0.75336 0.9451 0.9226 0.6905
3173.169 0.576 0.6922 0.81989 0.77995 0.82186 0.9309 0.705 0.499 0.454 0.382
3192.458 0.37 0.463 0.615 0.76969 0.9653 0.82764 0.6854 0.6887 0.613 0.521
3211.748 0.428 0.412 0.46 0.411 0.417 0.43 0.297 0.354 0.464 0.6692
3231.038 0.8643 0.7082 0.72526 0.612 0.428 0.6726 0.7145 0.8188 0.83032 0.68
3250.328 0.607 0.563 0.436 0.49 0.77485 0.77624 0.665 0.656 0.8605 0.9387
3269.617 0.8397 0.72541 0.7001 0.79612 0.6645 0.47 0.594 0.81439 0.6995 0.567
3288.907 0.743603 0.6414 0.6602 0.6914 0.556 0.7137 0.76192 0.75925 0.9618 0.8473
3308.197 0.75321 0.9909 0.8984 0.6802 0.734833 0.75256 0.8349 0.9249 0.8989 0.845
3327.487 0.76766 0.8388 0.8548 1.0111 1.096 0.8798 0.79636 0.9658 0.8716 0.8328
3346.777 0.8889 0.8753 1.1521 1.0061 0.741388 0.8871 1.1307 1.2254 1.0418 0.9977
3366.066 1.2931 1.2869 1.3253 1.4025 1.2653 1.393 1.3756 1.28 1.2602 1.3012
3385.356 1.5157 1.5492 1.4416 1.2547 1.1714 1.298 1.3038 1.2551 1.3213 1.4556
3404.646 1.2946 1.0653 0.8946 0.7033 0.566 0.627 0.743326 0.7993 0.73034 0.6951
3423.936 0.9858 0.8865 0.78071 0.8948 1.0064 1.3013 1.0779 0.9121 1.1276 0.9872
3443.225 0.739269 0.587 0.447 0.454 0.7116 0.6858 0.734668 0.9266 0.7219 0.83441
3462.515 0.903 0.79219 0.76142 0.6518 0.76402 0.9135 0.8632 0.538 0.311 0.6437
3481.805 0.8441 0.7223 0.6956 0.6941 0.6672 0.6467 0.521 0.72941 1.0863 0.82109
3501.095 0.7151 0.6631 0.339 0.456 0.422 0.397 0.545 0.507 0.58 0.6736
3520.385 0.736699 0.80493 0.9671 0.74981 0.493 0.6467 0.7421 0.75163 0.6386 0.428
3539.674 0.6361 0.80807 0.6786 0.6372 0.618 0.606 0.566 0.426 0.303 0.331
3558.964 0.461 0.6922 0.8505 0.8874 0.978 0.79718 0.511 0.523 0.7116 0.8473
3578.254 0.8746 0.72682 0.6668 0.78986 0.79037 0.82205 0.627 0.552 0.526 0.415
3597.544 0.627 0.81264 0.8619 0.573 0.55 0.82252 0.8509 0.9136 0.74645 0.6889
3616.833 0.6869 0.47 0.512 0.79422 0.74886 0.515 0.482 0.569 0.519 0.548
3636.123 0.81565 0.604 0.408 0.536 0.585 0.372 0.275 0.76359 1.0171 0.75734
3655.413 0.6836 0.8384 0.619 0.557 0.385 0.394 0.7101 0.39 0.317 0.6709
3674.703 0.582 0.381 0.343 0.507 0.662 0.6384 0.7162 0.608 0.548 0.445
3693.993 0.603 0.75614 0.72893 0.865 0.75449 0.516 0.629 0.83053 0.73092 0.586
3713.282 0.507 0.62 0.77045 0.7459 0.6419 0.6586 0.7076 0.6836 0.6589 0.6706
3732.572 0.9326 0.9988 0.7171 0.472 0.78731 0.8995 0.469 0.78523 1.1725 0.8493
3751.862 0.506 0.614 0.7034 0.76781 0.75641 0.622 0.6771 0.74676 0.9039 0.9069
3771.152 0.78417 0.76143 0.75564 0.549 0.488 0.557 0.498 0.366 0.364 0.481
3790.441 0.6466 0.509 0.283 0.444 0.466 0.491 0.546 0.527 0.634 0.6757
3809.731 0.52 0.8085 0.7034 0.46 0.521 0.608 0.734999 0.616 0.565 0.459
3829.021 0.627 0.81133 0.877 0.8699 0.8882 0.7732 0.494 0.8566 0.8637 0.515
3848.311 0.7244 0.9833 0.742672 0.468 0.465 0.61 0.80898 0.83298 0.9077 0.6939
3867.601 0.474 0.622 0.8556 0.77425 0.567 0.549 0.75424 0.78353 0.613 0.585
3886.890 0.48 0.6714 0.7646 0.6686 0.73014 0.6707 0.6371 0.8443 1.0218 0.9587
3906.180 0.9097 0.8402 0.77685 0.998 1.0168 0.6352 0.372 0.497 0.76586 0.7175
3925.470 0.72559 0.9393 0.9545 0.9371 0.77248 0.548 0.454 0.425 0.474 0.498
3944.760 0.51 0.7093 0.7013 0.394 0.418 0.56 0.426 0.6992 0.6491 0.308
3964.049 0.503 0.416 0.311 0.468 0.7541 0.8736 0.79844 0.513 0.379 0.625
3983.339 0.6682 0.79715 0.6814 0.371 0.198 0.284 0.6581 0.509 0.172 0.116
##END=
