##TITLE=Methyl 3-(1-pyrrolo)thiophene-2-carboxylate
##JCAMP-DX=4.24
##DATA TYPE=INFRARED SPECTRUM
##ORIGIN=EPA-IR VAPOR PHASE LIBRARY
##OWNER=SRD/NIST
Collection (C) 2018 copyright by the U.S. Secretary of Commerce
on behalf of the United States of America. All rights reserved.
##CAS REGISTRY NO=74772-16-0
##MOLFORM=C 10 H 9 N O 2 S
##$NIST SOURCE=MSDC-IR
##STATE=gas
##XUNITS=1/CM
##YUNITS=ABSORBANCE
##XFACTOR=1.
##YFACTOR=0.001
##DELTAX=1.92898
##FIRSTX=549.8
##LASTX=4000.7
##FIRSTY=2.053
##MAXX=4000.7
##MINX=549.759
##MAXY=0.19069
##MINY=0
##NPOINTS=1790
##XYDATA=(X++(Y..Y))
549.759 2.053 1.5327 0.948 1.03 1.4967 2.23 2.38 2.0471 1 0.846
569.049 2.1277 2.28 2.0692 2.1623 2.1594 2 2.79 3.09 2.79 3.48
588.339 3.36 3.15 4.03 3.87 3.88 4.97 5.27 5.45 6.14 7.6
607.628 9.1 10.91 12.87 13.81 13.91 13.65 13.63 13.17 12.41 10.85
626.918 9.3 8.48 8.1 7.09 6.75 7.61 8.38 9.16 9.8 11.11
646.208 12.97 14.34 16.4 18.99 21.07 23.64 25.66 25.42 23.88 22.79
665.498 21.43 19.99 18.22 16.08 14.15 12.63 11.97 11.65 10.77 10.31
684.787 10.57 11.03 11.35 11.83 12.95 13.56 14 14.75 15.64 17.8
704.077 21.76 27.29 35.89 48.43 64.87 82.87 97.7 105.7 107.12 107.69
723.367 104.4 91.18 72.71 55.42 41.41 31.49 25.72 21.74 19.22 17.82
742.657 16.3 15.54 15.3 14.86 14.26 13.87 13.98 14.25 15.36 17.05
761.947 18.7 20.96 24.35 27.84 31.6 35.81 38.67 38.76 36.84 35.24
781.236 34.26 33.14 30.83 28.26 26.09 23.33 20.28 17.44 14.84 12.94
800.526 11.3 9.88 8.9 8.26 7.98 7.93 8.2 8.14 7.7 7.17
819.816 6.51 4.58 3.6 5.52 5.97 5.55 5.58 5.39 5.53 5.43
839.106 5.26 5.16 5.76 6.24 6.65 8.24 10.16 12.63 16.62 21.86
858.395 28.17 33.41 37.07 38.88 38.3 36.03 32.7 27.41 20.57 15.06
877.685 11.16 9.03 7.92 6.6 5.74 5.48 5.22 4.36 3.67 3.35
896.975 3.31 3.27 2.9 2.95 3.15 3.26 3.33 3.39 3.62 3.81
916.265 3.78 3.85 4.24 4.78 5.01 4.89 4.97 5.52 5.65 5.6
935.555 6.34 6.61 6.19 5.55 5.03 4.99 4.99 4.76 4.72 4.89
954.844 4.98 5.51 6.2 7.24 8.78 10.52 12.4 14.27 15.75 17.15
974.134 17.64 16.8 15.74 13.7 11.72 9.94 7.66 6.43 5.58 4.62
993.424 3.95 3.7 3.63 3.7 3.64 3.61 4.04 4.12 3.69 2.74
1012.714 3.25 4.37 4.65 4.51 4.25 4.87 5.73 6.42 6.72 7.23
1032.003 7.73 8.25 9.61 11.75 13.34 13.5 14.79 16.42 17.23 19.99
1051.293 23.22 26.33 30.78 36.89 45.39 56.55 68.44 79.85 92.35 105.33
1070.583 115.56 122.28 128.33 133.11 134.94 134.64 132.82 128.35 122.75 117.45
1089.873 110.97 104.44 96.53 86.06 77.35 71.05 64.42 57.93 50.03 41.39
1109.163 33.74 28.71 25.12 22.01 21.41 20.66 18.98 17.93 17.11 17.03
1128.452 15.91 13.91 14.93 15.39 15.14 15.11 15.5 16.25 17 17.33
1147.742 17.41 17.88 17.17 16.09 14.8 13.46 12.31 11.96 11.92 11.49
1167.032 11.21 11.49 11.99 13.23 15.18 16.03 16.06 17.11 18.31 19.5
1186.322 20.48 21.35 22.83 25.01 27.47 28.96 32.23 37.38 42.25 49.59
1205.611 60.47 72.57 86.39 103.17 123.49 144.8 163.13 176.77 186.66 190.69
1224.901 186.69 177.94 163.37 144.46 125.51 109.27 97.91 91.15 86.11 83.97
1244.191 84.29 86.14 89.4 91.25 93.01 94.5 95.06 94.81 91.56 86.09
1263.481 79.91 73.72 66.08 57.96 50.96 44.97 40.15 36.7 34.86 33.75
1282.771 33.72 34.67 36.61 40.18 45.91 53.79 62.75 71.99 80.2 86.02
1302.060 88.94 89.06 86.12 79.82 70.6 59.95 49.44 40.47 33.53 28.47
1321.350 24.83 21.95 19.82 18.18 16.74 15.34 14.23 13.45 12.81 12.38
1340.640 11.95 11.67 11.39 10.93 10.67 10.58 10.58 10.65 10.95 11.3
1359.930 11.73 12.29 13.01 14.05 15.12 16.27 17.63 19.17 20.69 22.38
1379.219 24.83 27.88 31.57 35.48 38.93 41.82 43.85 45.17 46.22 46.86
1398.509 47.21 48.15 50.65 55 60.26 65.5 69.83 72.33 72.6 71.07
1417.799 67.81 62.55 56.74 51.41 47.74 46.69 48.76 53.83 61.13 69.48
1437.089 77.27 82.31 84.61 84.96 82.06 74.57 63.36 52.06 42.54 35.79
1456.378 31.42 28.53 27.41 27.02 27.07 28.3 30.4 33.58 38.54 45.42
1475.668 53.7 63.04 71.72 78.31 81.74 81.68 78.34 71.42 61.5 50.72
1494.958 40.4 31.77 26 22.66 21.02 20.63 20.61 20.71 21.12 21.74
1514.248 22.42 23.4 25.05 27.43 30.4 34.16 39 44.68 51.6 60.1
1533.538 70.57 82.99 96.46 111.78 127.65 141.73 152.81 159.47 160.1 154.9
1552.827 144.06 127.78 109.44 88.98 68.95 53.2 41.25 32.75 26.88 22.63
1572.117 19.52 17.58 16.06 14.72 13.58 12.82 12.19 11.3 10.51 10.18
1591.407 9.88 9.75 9.76 9.59 9.48 9.43 9.43 9.33 8.88 8.53
1610.697 8.53 8.22 7.75 7.54 7.5 7.32 7.17 6.9 6.46 6.29
1629.986 6.13 5.98 6.12 5.95 5.7 5.61 5.42 5.47 5.51 5.58
1649.276 5.71 5.95 6.05 5.92 6.12 6.33 6.74 7.1 7.15 7.4
1668.566 7.74 8.27 8.93 9.74 10.39 11.23 12.24 13.05 14.01 14.43
1687.856 15.14 16.22 17.23 18.36 20.04 21.95 24.07 26.59 29.21 32.68
1707.146 36.41 40.86 46.54 53.73 63.17 74.94 89.01 103.96 119.18 132.7
1726.435 143.02 149.63 152.75 152.34 148.54 143.99 140.27 138.7 138.17 136.34
1745.725 132.66 127.21 119.15 106.18 89.76 73.33 59.02 48.68 41.28 36
1765.015 32.16 28.94 26.34 24.4 22.47 20.81 19.21 17.5 15.88 14.31
1784.305 12.8 11.57 10.34 9.22 8.49 7.63 6.71 6.33 5.85 5.16
1803.594 5.02 4.94 4.74 4.63 4.54 4.29 4.21 4.09 3.87 3.82
1822.884 3.76 3.62 3.53 3.59 3.65 3.58 3.49 3.52 3.65 3.6
1842.174 3.57 3.64 3.56 3.59 3.66 3.68 3.93 4.06 3.86 3.91
1861.464 3.99 3.84 3.8 3.84 3.78 3.73 3.79 3.84 3.73 3.69
1880.754 3.72 3.53 3.37 3.38 3.46 3.47 3.52 3.6 3.52 3.38
1900.043 3.33 3.38 3.35 3.13 3 2.98 3.01 3.05 2.94 2.72
1919.333 2.61 2.51 2.53 2.59 2.37 2.21 2.27 2.29 2.33 2.27
1938.623 2.078 2.1172 2.122 2.0211 1.9107 2.0307 2.19 2.19 2.1758 2.0599
1957.913 2.0285 1.8289 1.7382 1.7942 1.8371 1.9885 2.0001 1.9879 2.1138 2.0081
1977.202 1.8147 1.8715 2.0146 2.1538 2.33 2.37 2.31 2.42 2.39 2.39
1996.492 2.58 2.85 3.1 3.2 3.28 3.44 3.43 3.37 3.5 3.48
2015.782 3.37 3.48 3.52 3.15 3 3.08 3.06 2.87 2.7 2.73
2035.072 2.82 2.99 3.01 2.81 2.78 2.93 2.79 2.57 2.55 2.47
2054.362 2.28 2.1022 1.9792 2.0056 2.1264 2.0218 2.0039 2.0353 2.085 2.26
2073.651 1.9702 2.0089 2.0997 2.0372 2.0815 2.0654 2.1124 2.0019 1.918 2.0802
2092.941 2.1722 2.1291 2.1161 2.0623 2.0518 1.8903 1.8113 1.8331 1.7227 1.8073
2112.231 2.0629 2.1392 1.981 1.9522 2.0742 2.25 2.29 1.8899 1.6171 1.6627
2131.521 1.5967 1.5974 1.5689 1.3922 1.5931 1.7633 1.7886 1.9378 1.8795 1.843
2150.810 1.8298 1.7801 1.935 2.0314 2.129 2.1499 1.9555 1.9097 1.9706 1.9797
2170.100 2.1662 2.33 2.36 2.22 1.9234 1.9873 2.0076 1.7489 1.7083 1.8935
2189.390 1.8034 1.6664 1.797 1.8107 1.8281 1.9395 1.8389 1.787 1.7948 1.7748
2208.680 1.8225 1.865 1.7263 1.5806 1.6201 1.7514 1.8506 1.7177 1.6219 1.7014
2227.970 1.6147 1.5981 1.795 1.9012 1.8969 1.6988 1.7683 1.8073 1.5804 1.4662
2247.259 1.4685 1.6636 1.4739 1.25053 1.25874 1.3701 1.4436 1.27059 1.1686 1.3451
2266.549 1.3692 1.071 1.17501 1.349 1.141 1.1612 1.3611 1.2893 1.23431 1.3622
2285.839 1.5325 1.5663 1.431 1.4433 1.418 1.4106 1.493 1.5766 1.5975 1.4951
2305.129 1.4368 1.3016 1.4088 1.3458 1.20638 1.1106 1.079 1.2934 1.23618 1.2828
2324.418 1.474 1.2661 1.1246 1.5078 1.8223 1.6861 1.5483 1.4727 1.4287 1.4107
2343.708 1.2974 1.3101 1.4331 1.4393 1.3438 1.25766 1.328 1.5809 1.678 1.5506
2362.998 1.2972 1.3542 1.5624 1.6076 1.6832 1.5082 1.1102 1.2872 1.4314 1.24149
2382.288 1.1203 1.073 1.3399 1.5726 1.5027 1.3925 1.3939 1.4035 1.6842 1.734
2401.578 1.4884 1.3251 1.2972 1.3432 1.2917 1.3094 1.3729 1.4909 1.4195 1.25277
2420.867 1.27628 1.4684 1.4796 1.4188 1.6168 1.5252 1.1275 1.26729 1.3566 1.18111
2440.157 1.22796 1.24387 1.23695 1.397 1.5433 1.4492 1.4711 1.7001 1.8416 1.7142
2459.447 1.5612 1.4316 1.3407 1.4079 1.5978 1.6415 1.3659 1.4647 1.6953 1.6489
2478.737 1.4765 1.5396 1.6635 1.5004 1.372 1.5348 1.5945 1.5501 1.5186 1.3996
2498.026 1.543 1.5368 1.3739 1.2607 1.4064 1.8021 2.0162 2.1077 2.0459 1.9006
2517.316 1.9875 1.9268 1.8078 1.8679 1.9576 1.6922 1.6101 1.8255 1.749 1.7777
2536.606 1.8595 1.7342 1.6674 1.687 1.6067 1.6089 1.6745 1.8173 2.0975 2.1083
2555.896 2.1256 2.2 2.0612 1.9694 2.1404 2.0907 1.7883 1.8945 2.1443 2.0645
2575.186 1.7198 1.6459 1.6767 1.6228 1.6359 1.7514 1.8681 1.835 2.0625 2.3
2594.475 2.36 2.43 2.23 2.078 2.22 2.41 2.52 2.72 2.66 2.39
2613.765 2.38 2.37 2.28 2.42 2.33 2.3 2.45 2.3 2.0865 1.7191
2633.055 1.5918 1.8334 1.7725 1.7909 1.7878 1.5977 1.4127 1.3793 1.6826 1.6584
2652.345 1.6051 1.6834 1.4563 1.3326 1.4035 1.3278 1.17788 1.4272 1.561 1.26425
2671.634 1.1968 1.1401 1.3532 1.5033 1.291 1.20394 1.1696 1.3654 1.5869 1.7157
2690.924 1.69 1.5145 1.4021 1.19402 1.3502 1.6066 1.3798 1.2937 1.523 1.722
2710.214 1.8897 1.8975 1.6028 1.3229 1.3657 1.667 1.8594 1.7405 1.629 1.4522
2729.504 1.3163 1.3076 1.059 1.1149 1.324 1 1.1054 1.451 1.5001 1.5658
2748.794 1.4201 1.1631 1.23803 1.6228 1.9002 1.892 1.4914 1.3185 1.6153 1.4821
2768.083 1.4231 1.3495 1.26048 1.4971 1.8226 1.836 1.8013 1.6373 1.4709 1.7415
2787.373 1.6804 1.6456 1.7562 1.8598 1.8458 1.7329 1.6969 1.522 1.5169 1.7732
2806.663 1.8874 2.1753 2.31 1.8594 1.9254 2.39 2.69 2.95 2.97 2.98
2825.953 2.99 2.96 2.98 3.61 4.47 4.74 5.1 5.72 5.65 5.48
2845.242 5.54 5.77 5.76 5.4 5.45 5.21 4.75 4.33 4.11 4.03
2864.532 3.94 4.05 3.85 3.64 3.58 3.42 3.33 3.16 3.04 3.17
2883.822 3.67 3.77 3.54 3.51 3.84 4.14 4.25 4.65 5.09 5.44
2903.112 5.7 5.59 5.21 5.51 5.68 5.49 5.29 5.31 5.77 5.79
2922.401 5.41 5.4 5.57 5.44 5.29 5.52 5.71 6.01 6.4 6.91
2941.691 7.59 8.67 10.27 12.1 14.72 18.12 22.12 26.29 29.94 32
2960.981 32 30.94 29.17 26.26 22.06 17.79 14.34 11.33 9.15 7.91
2980.271 7.04 6.73 6.7 6.2 5.86 6.09 6.56 6.92 7.02 7.18
2999.561 7.24 7.5 7.75 7.71 7.52 7.16 7.12 6.9 6.35 5.98
3018.850 6.31 6.55 6.33 6.48 6.63 6.38 6.49 6.87 6.58 5.94
3038.140 5.49 5.44 5.27 4.94 4.64 4.25 3.8 3.4 3.5 3.64
3057.430 3.13 2.92 2.82 2.93 3.12 2.86 2.96 2.9 2.89 3.03
3076.720 3.22 3.46 3.59 3.45 3.44 3.51 3.39 3.45 3.73 4.21
3096.009 4.19 4.31 4.83 5.09 5.14 5.4 5.93 6.68 7.38 7.85
3115.299 8.04 7.97 7.73 7.18 7.22 7.13 6.22 5.88 5.58 4.68
3134.589 4.43 4.54 4.27 4.41 4.63 4.45 4.61 4.2 3.87 3.82
3153.879 3.85 3.83 3.37 3.07 2.82 2.73 2.59 2.33 2.1019 2.0739
3173.169 2.3 2.2 1.8375 2.0407 1.9887 1.6808 1.7129 1.556 1.3674 1.21955
3192.458 1.012 1.19015 1.4634 1.3847 1.4916 1.6269 1.6268 1.3916 1.24063 1.1268
3211.748 0.769 0.839 1.003 1.1699 1.1265 1.0844 1.072 0.802 1.3068 1.4916
3231.038 1.026 0.601 0.6 1.021 0.839 0.67 0.987 1.1669 1.1293 0.999
3250.328 1.09 0.72 0.321 0.706 0.723 0.716 0.8 0.606 0.536 0.588
3269.617 0.508 0.681 1.1519 0.801 0.315 0.61 0.65 0.471 1.046 1.3207
3288.907 0.707 0.808 0.927 0.438 0.564 0.79 0.725 0.93 0.941 1.054
3308.197 1.002 0.872 1.0805 0.884 0.731 0.912 0.961 0.76 0.769 1.061
3327.487 0.758 0.277 0.58 0.602 0.243 0.49 0.8 0.956 0.371 0.04
3346.777 0.653 0.891 0.841 0.601 0.735 1.11 1.019 0.676 0.664 1.02
3366.066 0.811 0.812 1.048 0.983 0.931 1.04 0.871 0.645 0.824 0.536
3385.356 0.702 0.693 0.648 1.1306 0.84 0.562 0.925 0.744 0.414 0.531
3404.646 0.786 1.1511 1.012 0.774 0.882 1.25326 1.4758 1.3044 1.321 1.4415
3423.936 1.4597 1.5434 1.8849 2.26 1.7391 1.3311 1.6388 1.8678 2.0305 1.8635
3443.225 1.5636 1.3395 1.18071 1.21748 1.4414 1.6152 1.4583 1.732 2.1067 1.7545
3462.515 1.3948 1.9836 2.0609 1.9443 2.1376 2.0872 2.1395 1.7906 1.4948 1.18523
3481.805 1.1157 1.4925 1.5805 1.9251 2.19 2.0329 1.7923 1.3992 1.042 0.86
3501.095 0.832 0.988 1.429 1.4856 1.4264 1.2903 1.1085 0.967 1.033 1.398
3520.385 1.4183 1.3236 1.5619 1.17644 0.272 0.262 0.459 0.282 0.613 1.023
3539.674 0.951 0.696 0.643 0.839 0.815 0.719 0.905 0.627 0.226 0.298
3558.964 1.049 1.4988 1.17996 0.863 0.61 0.333 0.584 1.031 1.1348 1.1687
3578.254 1.073 1.25126 1.2903 1.011 1.032 1.3402 0.773 0.15 0 0.08
3597.544 0.298 0.28 0.27 0.813 1.21087 0.913 0.73 0.531 0.14 0.375
3616.833 0.645 0.474 0.572 0.871 1.031 0.948 1.068 1.4157 1.1353 0.591
3636.123 0.888 1.028 1.047 1.052 0.381 0.387 0.802 0.787 0.518 0.18
3655.413 0.371 0.406 0.18 0.322 0.397 0.442 0.886 1.5714 1.1527 0.548
3674.703 0.888 0.924 0.507 0.232 0.411 0.972 1.19216 0.677 0.59 0.566
3693.993 0.204 0.254 0.538 0.891 1.069 1.0948 0.771 0.17 0.349 0.921
3713.282 0.798 0.772 0.866 0.965 1.1329 1.26345 1.1664 0.828 0.581 0.978
3732.572 1.3348 1.045 0.714 0.885 1.19923 0.877 0.76 0.75 0.849 1.0859
3751.862 0.831 0.725 0.714 0.54 0.663 0.999 0.854 0.692 1.1114 0.973
3771.152 1.017 0.98 0.37 0.426 0.738 0.582 0.248 0.514 0.716 0.276
3790.441 0.215 0.32 0.204 0.506 0.81 0.399 0.436 1.048 1.3938 1.3019
3809.731 0.94 0.836 0.713 0.96 1.244 1.5073 1.0849 0.377 0.477 0.745
3829.021 1.026 1.0888 0.533 0.463 0.784 0.545 0.727 0.708 0.797 0.697
3848.311 0.17 0.394 1.5299 1.589 0.941 0.784 0.507 0.458 0.533 0.614
3867.601 0.814 0.822 0.745 0.887 1.042 1.017 0.909 1.1267 0.89 0.38
3886.890 0.339 0.705 1.17454 0.738 0.345 0.988 1.1094 0.757 0.684 1.054
3906.180 1.5766 1.6578 0.876 0.502 1.018 1.3019 1.23723 0.973 1.1482 1.1431
3925.470 0.853 0.677 0.528 0.184 0.334 0.899 0.874 0.816 1.7084 1.599
3944.760 1.044 1.3626 1.1292 0.846 0.744 1.19119 1.548 1.369 1.1879 1.5968
3964.049 1.8256 1.2848 0.818 1.022 1.3462 1.1521 1.26713 1.7296 2.0739 2.43
3983.339 2.74 2.31 1.9925 2.1037 1.6104 1.3903 1.5003 0.817 0.52 1.1673
##END=
