##TITLE=4-(Trifluoromethyl)-.alpha.,.alpha.,.alpha.-trifluoroacetophenone
##JCAMP-DX=4.24
##DATA TYPE=INFRARED SPECTRUM
##ORIGIN=EPA-IR VAPOR PHASE LIBRARY
##OWNER=SRD/NIST
Collection (C) 2018 copyright by the U.S. Secretary of Commerce
on behalf of the United States of America. All rights reserved.
##CAS REGISTRY NO=74853-66-0
##MOLFORM=C 9 H 4 F 6 O
##$NIST SOURCE=MSDC-IR
##STATE=gas
##XUNITS=1/CM
##YUNITS=ABSORBANCE
##XFACTOR=1.
##YFACTOR=0.001
##DELTAX=1.92898
##FIRSTX=549.8
##LASTX=4000.7
##FIRSTY=2.95
##MAXX=4000.7
##MINX=549.759
##MAXY=0.31023
##MINY=0
##NPOINTS=1790
##XYDATA=(X++(Y..Y))
549.759 2.95 3.62 3.6 2.78 2.6 3.18 3.76 3.94 4.55 4.5
569.049 4.53 5.31 5.25 5.13 5.18 5.25 5.36 4.86 5.4 6.75
588.339 7.28 7.7 8.93 10.08 11.1 12.36 13.11 13.37 14.03 14.04
607.628 12.3 11.36 10.51 8.61 7.62 7.42 7.39 6.8 5.6 5.35
626.918 5.51 4.29 4.14 5.07 4.78 4.71 4.64 4.84 5.15 4.57
646.208 4.85 4.71 3.6 3.38 3.56 4.34 4.8 4.31 3.83 3.55
665.498 4.51 5.36 5.31 5.44 5.88 6.45 6.95 7.64 8.43 9.11
684.787 9.53 9.45 9.2 8.6 8.45 8.74 8.37 8.65 9.08 9.48
704.077 10.67 10.97 10.74 10.88 11.05 11.17 10.75 9.7 8.52 8.29
723.367 8.39 7.73 7.61 8.91 10.8 13.65 19.43 28.73 38.11 43.11
742.657 43.86 41.89 35.44 24.48 15.66 11.22 8.94 8.23 8.3 8.76
761.947 9.49 10.81 12.43 13.76 15.01 15.95 15.91 15.14 13.66 11.99
781.236 10.82 9.61 8.18 7.21 5.89 4.93 5.05 4.99 4.72 4.58
800.526 3.72 3.18 3.07 3.07 3.15 3.08 3.42 3.59 3.91 4.12
819.816 3.7 3.58 4.1 4.78 5.25 5.65 6.2 6.22 6.2 6.87
839.106 7.71 8.62 9.72 11.38 14.03 16.07 17.86 19.89 20.62 20.23
858.395 19.16 17.19 15.01 12.74 11.29 10.39 8.96 7.76 6.42 5.7
877.685 5.42 4.97 4.54 4.42 4.72 4.41 4.29 4.13 4.34 4.36
896.975 4.01 3.88 4.07 4.43 4.37 4.16 4.28 4.95 6.09 7.36
916.265 8.46 9.94 11.52 13.93 17.41 21.61 26.8 33.78 42.39 53.27
935.555 67.18 82.14 95.41 105.21 109.32 106.17 95.86 81.06 64.94 50.11
954.844 38.86 30.52 23.88 19.55 17.14 14.86 13.22 12.43 10.61 9.05
974.134 9.08 8.61 7.71 6.33 6.13 5.83 4.45 4.18 4.69 4.45
993.424 4.2 4.09 3.5 4.11 4.49 4.51 5.38 6.36 7.72 9.26
1012.714 11.97 16.89 21.04 23.37 24.03 22.37 18.27 12.87 8.38 5.77
1032.003 4.76 4.58 4.58 4.77 5.04 5.92 5.37 6.3 8.32 8
1051.293 9.93 13.08 17.73 24.33 32.57 46.77 67.6 91.16 110.6 120.02
1070.583 119.41 108.96 86.68 59.86 40.96 30.7 24.69 21.54 19.77 18.71
1089.873 17.63 15.87 13.52 12.87 14.42 15.25 14.84 16.12 18.04 19.89
1109.163 20.9 22.11 25.01 28.14 30.31 33.84 38.35 40.35 42.74 45.6
1128.452 48.38 52.57 57.14 63.33 71.69 82.17 95.5 111.03 129.02 149.98
1147.742 172.95 196.09 219.2 242.42 262.06 277.34 286.33 288.71 287.26 280.38
1167.032 273.01 269.38 270.37 277.95 288.9 300.57 308.91 310.23 302.58 281
1186.322 253.92 224.93 195.02 169.89 151.73 139.44 130.31 125.55 128.42 137.12
1205.611 145.54 156.03 169.39 179.22 184.4 184.09 177.33 162.73 141.4 118.62
1224.901 96.24 74.85 57.7 46.63 39.57 34.32 29.33 24.95 22.34 21.43
1244.191 20.59 19.58 18.24 17.7 18.11 17.7 16.81 16.38 15.57 15.24
1263.481 15.61 15.31 14.57 14.02 14.62 14.92 14.85 15.37 16.23 17.36
1282.771 18.34 19.19 20.42 21.74 23.1 25.23 27.96 30.96 34.28 37.83
1302.060 42.13 47.96 55.63 66.57 83.07 106.94 137.61 171.86 205.17 234.81
1321.350 259.19 272.06 268.32 250.53 223.21 187.31 144.9 104.2 73.17 52.69
1340.640 39.44 30.81 24.92 21.04 18.29 16.09 14.36 12.98 11.82 11.08
1359.930 10.45 9.78 9.29 8.96 8.57 8.11 7.85 7.46 7.25 7.24
1379.219 6.99 6.73 6.51 6.29 6.09 5.92 5.94 6.22 6.43 6.63
1398.509 7.12 7.83 8.78 10.08 11.24 12.44 13.51 14.12 14.27 13.6
1417.799 12.56 11.09 9.44 8.48 7.52 6.29 5.42 4.8 4.5 4.43
1437.089 4.05 3.65 3.56 3.67 3.68 3.77 3.78 3.53 3.34 3.34
1456.378 3.29 2.95 2.78 2.84 3.02 2.92 2.57 2.62 2.72 2.47
1475.668 2.47 2.5 2.46 2.83 2.94 2.81 2.9 3.03 3.05 3.06
1494.958 3.21 3.36 3.81 4.39 4.71 5.37 6.86 7.98 8.63 9.31
1514.248 9.24 8.41 7.36 6.12 5.06 4.39 3.91 3.44 3.21 3.07
1533.538 2.86 2.91 2.68 2.56 3.12 3.63 3.88 3.62 3.58 3.94
1552.827 3.89 4.29 4.68 4.76 4.76 4.73 4.89 4.98 4.98 4.75
1572.117 4.6 4.91 5.35 5.26 4.86 4.62 4.54 4.43 4.35 4.26
1591.407 4.28 4.18 3.88 3.55 3.23 3.06 2.97 3.08 3.06 3.21
1610.697 3.76 4.06 4.02 3.62 3.46 3.57 3.53 3.61 3.93 3.7
1629.986 3.26 3.13 3.17 3.39 3.07 2.87 3.23 3.38 3.21 3.09
1649.276 3.06 3.21 3.24 3.12 3.04 2.99 3.37 3.51 3.31 3.43
1668.566 3.81 4.03 3.87 4.05 4.4 4.73 5.27 5.47 5.32 5.36
1687.856 5.73 5.96 6.11 6.46 6.59 6.46 6.62 6.96 7.11 7.22
1707.146 7.59 8.32 8.94 9.89 11.44 13.31 15.97 18.68 22.4 27.79
1726.435 34.59 43.25 54.2 66.07 78.85 89.42 95.01 95.3 90.05 79.82
1745.725 66.54 53.23 41.97 32.78 25.4 20.01 15.84 12.83 10.78 9.29
1765.015 8.05 7.14 6.63 6.11 5.67 5.58 5.31 5.07 5.01 4.76
1784.305 4.6 4.58 4.5 4.48 4.58 4.76 4.95 5.09 4.93 4.86
1803.594 4.96 5.15 5.32 5.28 5.13 4.89 4.53 4.04 3.76 3.41
1822.884 3.09 2.97 2.9 2.8 2.63 2.44 2.51 2.62 2.53 2.43
1842.174 2.3628 2.4273 2.44 2.3813 2.2103 2.2176 2.2744 2.2712 2.1544 2.1559
1861.464 2.1879 2.1706 2.1687 2.2213 2.3881 2.4249 2.2655 1.9941 2.1163 2.3118
1880.754 2.354 2.5 2.55 2.3937 2.51 2.62 2.49 2.55 2.52 2.46
1900.043 2.56 2.68 2.8 2.78 2.74 2.71 2.59 2.68 3.03 3.25
1919.333 3.35 3.48 3.6 3.65 3.74 3.68 3.66 3.61 3.58 3.52
1938.623 3.29 3.22 3.12 2.95 2.93 2.84 2.63 2.65 2.62 2.3418
1957.913 2.1684 2.1144 2.1169 2.0216 1.8687 1.8563 1.8979 1.8557 1.6949 1.7323
1977.202 1.8701 1.8155 1.8136 1.7409 1.5665 1.6005 1.7244 1.777 1.7607 1.7467
1996.492 1.6852 1.5667 1.52227 1.6568 1.5494 1.44711 1.591 1.6543 1.5972 1.5528
2015.782 1.7224 1.6283 1.6036 1.6908 1.5526 1.3804 1.3618 1.5687 1.6491 1.4198
2035.072 1.252 1.29 1.285 1.3526 1.43553 1.45698 1.48428 1.51203 1.3476 1.45533
2054.362 1.47612 1.179 1.3805 1.6149 1.44257 1.47965 1.5814 1.45655 1.5349 1.5966
2073.651 1.6955 1.7031 1.547 1.6407 1.8493 1.8447 1.589 1.5478 1.5685 1.7394
2092.941 1.9091 1.8673 1.9612 2.0497 2.0742 2.0228 2.1674 2.27 2.0085 1.9617
2112.231 2.0962 2.1038 1.9674 1.7211 1.7165 1.7485 1.607 1.48513 1.46944 1.49826
2131.521 1.4091 1.46779 1.5845 1.5628 1.5301 1.5317 1.6181 1.52037 1.4037 1.3458
2150.810 1.315 1.271 1.44089 1.52763 1.48843 1.5941 1.5769 1.398 1.3489 1.47458
2170.100 1.51863 1.3993 1.3589 1.371 1.3996 1.5373 1.43496 1.5335 1.688 1.3431
2189.390 1.062 1.234 1.3349 1.48896 1.6114 1.5942 1.52375 1.3937 1.3489 1.46013
2208.680 1.5852 1.7077 1.8302 1.8667 1.9785 1.877 1.7309 1.8042 1.7703 1.5697
2227.970 1.45214 1.5619 1.7399 1.8571 1.7486 1.817 1.9964 2.0096 2.016 1.7881
2247.259 1.8963 2.0881 1.9753 1.9774 1.8779 1.7685 1.7636 1.8668 2.0179 2.0648
2266.549 1.8544 1.7032 2.0786 2.1398 2.0036 2.1817 2.1871 2.2106 2.2506 2.0377
2285.839 2.1511 2.62 2.79 2.59 2.6 2.61 2.2518 2.102 2.3981 2.6
2305.129 2.46 2.4223 2.43 2.3651 2.2718 2.2225 2.3209 2.1966 2.187 2.1812
2324.418 2.3153 2.4043 2.1846 2.0383 1.9793 2.1619 2.2384 2.3489 2.2307 2.1973
2343.708 2.44 2.4112 2.1242 2.0327 2.3173 2.53 2.47 2.49 2.2692 2.2158
2362.998 2.143 1.9002 2.138 2.2776 2.0359 2.1223 2.3886 2.3094 2.1524 1.9949
2382.288 2.0609 2.0449 2.1478 2.0338 1.6395 1.6529 1.8485 1.9279 1.7433 1.8293
2401.578 2.1062 2.2214 2.0467 1.5382 1.5845 1.7256 1.51804 1.322 1.328 1.399
2420.867 1.3997 1.4196 1.168 1.3989 1.7909 1.51659 1.4075 1.383 1.158 1.057
2440.157 0.991 1.177 1.4149 1.47534 1.44454 1.47405 1.3981 1.42407 1.45377 1.241
2459.447 1.3387 1.4048 1.45633 1.3902 1.3739 1.52403 1.6963 1.8966 1.603 1.3301
2478.737 1.48866 1.5979 1.829 1.8034 1.6684 2.0435 2.1593 1.9485 1.8551 1.9969
2498.026 1.9591 1.9528 2.2298 1.9965 1.8691 2.1808 2.1204 1.8894 1.7777 1.7186
2517.316 1.5882 1.6814 1.7527 1.6741 1.6919 1.8977 1.8003 1.44519 1.5928 1.6449
2536.606 1.6558 1.7325 1.6099 1.44504 1.7441 1.8741 1.6194 1.5873 1.5391 1.6045
2555.896 1.43846 1.222 1.47105 1.6999 1.7084 1.6853 1.44717 1.288 1.4177 1.6413
2575.186 1.6283 1.269 1.254 1.51424 1.44614 1.04 0.975 1.3864 1.6208 1.7464
2594.475 1.47066 1.361 1.646 1.6399 1.3481 1.402 1.49812 1.42936 1.6759 1.6798
2613.765 1.5462 1.50075 1.328 1.294 1.7281 1.9104 1.57 1.49599 1.52284 1.3356
2633.055 1.338 1.559 1.8201 1.7203 1.5093 1.46504 1.3793 0.957 1.154 1.5456
2652.345 1.399 1.3965 1.3448 1.335 1.071 0.528 0.42 0.855 0.956 0.943
2671.634 1.266 1.6353 1.7793 1.46807 1.5017 1.609 1.223 0.852 0.999 1.3476
2690.924 1.187 1.052 1.281 1.51589 1.158 0.959 1.223 1.304 1.192 1.25
2710.214 1.148 0.895 1.322 1.205 0.818 1.3322 1.52091 1.07 1.064 1.03
2729.504 1.065 1.309 1.095 0.787 0.721 0.623 0.55 0.895 0.942 0.808
2748.794 1.018 1.153 1.3583 1.3819 1.211 1.172 0.9 0.807 1.142 1.064
2768.083 1.096 1.5536 1.313 0.89 0.739 0.654 0.832 0.959 1.3887 1.9
2787.373 1.9622 1.9788 1.48371 1.062 1.045 0.836 0.959 1.43332 1.132 0.82
2806.663 1.149 1.46219 1.45713 1.12 1.078 1.108 0.984 1.171 1.207 0.998
2825.953 1.288 1.45512 1.345 1.3624 1.366 1.134 0.919 0.819 0.87 1.11
2845.242 1.197 1.303 1.536 1.9028 1.7559 1.48057 1.47856 1.08 0.951 1.02
2864.532 1.052 0.996 1.081 1.4144 1.42806 1.2 1.08 1.3958 1.7864 1.8197
2883.822 1.291 0.871 1.271 1.4109 0.887 0.633 0.497 0.457 0.889 1.42109
2903.112 1.6966 1.225 1.4046 1.6771 1.52721 1.6826 1.279 1.165 1.154 1.241
2922.401 1.5762 1.4088 1.093 1.012 1.124 1.6385 1.9214 1.8253 1.323 1.12
2941.691 1.5494 1.5844 1.6335 1.5301 1.45374 1.5675 1.246 0.941 0.771 0.654
2960.981 0.597 0.518 0.747 0.775 0.694 0.848 0.955 1.132 1.273 1.47368
2980.271 1.5337 1.246 0.888 1.242 1.6518 1.4188 1.45766 1.7244 1.5862 1.328
2999.561 1.213 0.971 0.945 1.317 1.6961 1.7966 1.665 1.211 0.89 1.274
3018.850 1.3716 1.22 1.215 1.15 1.114 1.261 1.264 1.215 1.47875 1.259
3038.140 1.173 1.3483 1.393 1.313 1.52217 1.9214 1.9287 1.6445 1.128 1.188
3057.430 1.626 1.6654 1.92 2.3753 2.033 2.0135 2.48 2.2046 1.6493 1.6562
3076.720 1.51519 1.3989 1.6608 1.7204 2.0709 1.9966 1.6522 1.8129 2.1172 2.1015
3096.009 1.5454 1.49274 2.1281 2.2867 2.51 2.65 2.0268 1.6304 1.6992 1.95
3115.299 2.3837 1.7876 0.93 1.07 1.29 1.223 1.1 1.024 1.198 1.52577
3134.589 1.41 1.45729 1.4088 1.148 1.6899 1.4594 0.854 1.125 1.49503 1.6594
3153.879 1.3539 0.846 0.474 0.483 0.926 1.087 1.106 1.155 1.096 1.061
3173.169 0.583 0.722 1.14 1.243 1.3969 1.8607 2.0252 1.6112 1.3568 1.3558
3192.458 1.6489 1.7813 1.262 1.087 1.3837 0.94 1.065 1.319 1.017 1.163
3211.748 1.6424 1.6661 0.674 0.33 0.729 0.703 0.72 1.012 1.038 0.847
3231.038 0.846 1.128 1.229 0.906 0.746 0.924 1.5733 2.0053 1.5637 1.234
3250.328 0.958 0.937 1.256 1.7028 1.8196 1.177 0.82 0.742 1.065 1.224
3269.617 1.202 1.5743 1.6024 1.6372 1.4548 1.198 1.6116 1.325 1.044 1.42657
3288.907 1.275 0.923 0.832 1.08 0.804 0.42 0.568 0.837 1.3972 1.45361
3308.197 1.057 1.144 1.5775 1.6554 1.232 1.216 1.018 0.615 0.852 1.104
3327.487 1.244 1.45551 1.092 1.016 1.3659 1.49384 1.5563 1.6655 1.8636 1.8267
3346.777 1.7738 1.50699 1.102 0.791 0.728 1.136 1.6311 1.197 1.03 1.5753
3366.066 1.9463 1.7324 1.4005 1.49841 1.8462 2.0277 1.6126 1.214 1.306 1.7183
3385.356 1.8493 1.121 0.762 1.4141 2.1033 1.5699 1.106 0.792 0 0.46
3404.646 0.998 1.212 1.272 0.998 1.287 1.7286 0.92 0.786 1.634 1.7766
3423.936 1.9628 1.954 2.1341 2.403 2.1762 1.7428 1.3713 1.533 2.093 2.63
3443.225 2.69 2.73 3.15 3.04 2.66 2.354 2.81 3.06 3.02 3.26
3462.515 2.73 2.72 2.91 2.63 2.3968 2.3288 2.2558 1.8604 1.8172 2.2949
3481.805 2.1323 1.8749 1.9226 1.7906 1.9753 1.4193 1.203 1.265 0.947 0.835
3501.095 1.255 1.573 1.107 1.032 1.028 0.888 0.964 1.295 1.3694 1.5797
3520.385 1.47231 0.859 0.739 1.272 1.3674 0.926 1.284 1.49007 1.108 1.308
3539.674 1.21 1.47987 1.7137 1.311 0.788 0.573 1.244 1.7189 1.42968 1.3409
3558.964 1.5977 1.5364 1.4146 1.887 1.7684 1.7991 2.0006 1.9628 2.0524 1.3692
3578.254 0.747 0.879 1.6959 1.6541 1.8542 1.9774 1.126 1.264 1.265 1.145
3597.544 0.923 1.055 1.3472 1.047 1.032 0.715 1.052 1.23 1.001 1.307
3616.833 1.8627 1.407 0.84 1.3381 1.8303 1.577 0.966 0.966 1.124 1.5638
3636.123 1.7801 1.4505 1.5588 1.7564 1.44363 1.108 1.42749 2.1027 1.46245 0.657
3655.413 0.902 1.3915 2.0341 1.9671 1.6632 1.5521 1.7825 2.2935 1.864 0.818
3674.703 0.551 0.967 1.242 1.121 1.078 1.083 0.702 0.972 1.8044 1.7334
3693.993 1.098 0.866 0.86 1.132 1.056 1.4053 1.7582 1.136 0.723 0.973
3713.282 1.04 1.013 1.107 1.679 2.1266 1.46672 1.3578 1.51007 1.03 0.652
3732.572 0.867 1.51959 1.7199 1.51173 0.965 0.912 1.4162 1.5503 1.6444 1.6285
3751.862 1.3 1.53 1.7226 1.5304 1.9198 2.3609 1.9673 1.099 0.825 1.354
3771.152 1.8952 1.9047 1.43886 0.954 1.8243 2.53 1.6072 1.311 1.5966 1.269
3790.441 1.7548 2.4195 2.0297 1.42654 0.666 0.811 1.158 1.245 1.42603 1.001
3809.731 1.178 1.5702 0.859 0.598 0.524 0.4 0.663 0.487 0.641 1.289
3829.021 1.7666 1.224 0.783 1.065 0.861 0.804 0.691 1.179 1.307 0.793
3848.311 1.157 1.44849 1.6645 1.3301 0.585 0.799 1.03 0.973 1.066 1.296
3867.601 1.601 1.5989 1.8128 1.8021 2.0275 1.7786 1.3493 1.52336 1.6963 1.202
3886.890 0.476 0.559 0.728 0.962 1.241 1.281 0.897 0.505 0.937 1.262
3906.180 1.6402 1.7069 1.256 1.52444 1.3677 1.295 1.202 0.686 0.649 0.733
3925.470 1.187 1.262 1.268 1.329 0.699 0.845 1.3877 1.6473 2.0179 1.5833
3944.760 0.987 0.752 0.793 0.82 0.646 0.45 0.886 0.983 0.587 0.634
3964.049 1.121 1.249 0.997 1.279 0.751 0.11 0.28 0.738 0.981 0.909
3983.339 0.661 1.42307 1.8818 1.051 0.734 0.688 0.963 1.058 1.119 1.47805
##END=
