##TITLE=2-Methyl-4-octanone
##JCAMP-DX=4.24
##DATA TYPE=INFRARED SPECTRUM
##ORIGIN=NIST Mass Spectrometry Data Center
##OWNER=NIST Standard Reference Data Program
Collection (C) 2018 copyright by the U.S. Secretary of Commerce
on behalf of the United States of America. All rights reserved.
##CAS REGISTRY NO=7492-38-8
##MOLFORM=C 9 H 18 O
##$NIST SOURCE=MSDC-IR
##SPECTROMETER/DATA SYSTEM=HP-GC/MS/IRD
##STATE=gas
##XUNITS=1/CM
##YUNITS=ABSORBANCE
##XFACTOR=1.0
##YFACTOR=0.000001000
##DELTAX=4.0
##FIRSTX=550.0
##LASTX=3846.0
##FIRSTY=0.000181
##MAXX=3846
##MINX=550
##MAXY=0.01
##MINY=0
##NPOINTS=825
##XYDATA=(X++(Y..Y))
550.0 181 161 181 143 133 231 226 86 12 71
590.0 75 155 201 125 95 104 155 249 241 199
630.0 230 210 215 200 167 201 229 142 95 125
670.0 133 149 151 93 6 36 95 72 85 118
710.0 99 122 172 195 232 233 172 162 199 228
750.0 226 193 226 219 210 204 160 195 171 133
790.0 119 54 73 128 119 118 165 156 241 232
830.0 93 88 81 75 108 166 179 128 126 145
870.0 117 128 123 89 105 156 172 172 169 132
910.0 167 229 237 269 306 300 296 281 286 280
950.0 242 246 234 213 199 166 124 130 171 189
990.0 189 187 185 201 240 288 385 509 642 785
1030.0 973 1199 1362 1421 1311 1145 998 832 698 630
1070.0 550 488 471 469 448 417 395 416 454 491
1110.0 572 677 729 751 794 881 997 1070 1148 1244
1150.0 1311 1346 1336 1360 1382 1315 1119 913 778 656
1190.0 573 524 505 542 571 564 557 552 561 579
1230.0 557 567 582 599 585 559 553 549 537 537
1270.0 609 705 802 866 914 969 968 918 880 861
1310.0 835 822 830 897 984 1085 1202 1315 1480 1676
1350.0 1854 1994 2055 2073 2020 1856 1642 1484 1346 1217
1390.0 1124 1001 896 877 864 877 880 849 851 868
1430.0 874 852 853 927 1003 1073 1130 1222 1334 1338
1470.0 1258 1131 991 810 612 483 401 327 254 164
1510.0 112 117 105 107 100 92 96 87 72 81
1550.0 86 88 93 101 121 138 146 123 100 108
1590.0 110 97 97 117 131 133 145 158 152 145
1630.0 131 119 151 181 164 155 182 224 243 248
1670.0 300 367 419 498 643 811 1031 1368 1867 2507
1710.0 3267 4057 4772 5202 5169 4636 3739 2809 1993 1347
1750.0 905 650 513 416 322 264 243 203 160 160
1790.0 148 107 90 86 97 84 74 76 70 61
1830.0 70 82 70 52 48 50 46 42 39 37
1870.0 60 65 44 53 59 44 25 25 28 25
1910.0 36 31 31 37 37 46 32 26 31 30
1950.0 34 38 38 34 28 27 26 26 36 30
1990.0 8 12 18 22 27 37 49 31 28 39
2030.0 35 17 19 25 27 31 26 26 15 17
2070.0 38 34 33 39 27 43 41 38 42 22
2110.0 23 28 30 27 18 25 25 23 54 48
2150.0 14 13 19 25 39 46 36 15 17 40
2190.0 28 14 29 19 15 37 37 26 24 30
2230.0 34 41 35 1 3 22 33 40 34 28
2270.0 35 33 30 16 17 34 25 12 14 39
2310.0 50 43 45 44 54 47 43 45 33 28
2350.0 36 49 42 26 14 15 38 58 43 29
2390.0 33 46 43 37 38 35 45 41 43 69
2430.0 70 45 50 56 45 34 48 40 26 43
2470.0 56 50 31 19 26 55 49 32 27 38
2510.0 44 33 42 40 33 33 28 37 41 29
2550.0 28 46 45 39 59 57 45 56 71 73
2590.0 63 79 91 71 54 59 67 51 48 87
2630.0 109 106 94 92 96 79 81 82 103 134
2670.0 141 135 92 83 98 103 109 116 135 146
2710.0 141 142 137 139 169 201 216 227 216 208
2750.0 206 186 209 224 203 204 230 260 253 251
2790.0 293 337 350 367 394 435 461 482 522 587
2830.0 656 702 769 865 1004 1167 1359 1623 1986 2426
2870.0 2931 3422 3873 4177 4299 4241 4112 4027 4035 4106
2910.0 4198 4384 4629 4910 5288 5782 6282 6701 7035 7285
2950.0 7582 8053 8831 9670 10000 9548 8292 6591 4985 3729
2990.0 2771 2065 1610 1318 1089 896 744 630 554 511
3030.0 474 418 375 366 353 336 333 324 297 284
3070.0 287 278 261 258 253 207 188 213 195 213
3110.0 212 175 174 168 163 166 168 178 192 178
3150.0 173 153 134 162 154 142 158 172 193 189
3190.0 181 186 159 138 113 105 113 91 103 95
3230.0 63 59 71 98 99 108 94 38 32 63
3270.0 73 69 99 104 95 73 23 39 82 103
3310.0 89 73 90 80 61 52 50 72 72 62
3350.0 55 80 101 99 105 77 73 87 82 88
3390.0 115 140 121 157 185 145 150 172 188 179
3430.0 168 174 167 130 99 79 80 98 102 129
3470.0 133 100 59 45 63 53 38 56 79 83
3510.0 86 112 90 32 35 69 37 45 53 15
3550.0 0 12 59 54 16 47 78 72 54 18
3590.0 24 50 63 65 51 47 22 29 61 86
3630.0 108 96 78 87 47 25 76 91 106 114
3670.0 90 86 75 48 55 92 106 87 82 100
3710.0 82 40 48 45 35 40 16 19 23 55
3750.0 109 113 107 107 148 132 115 126 102 92
3790.0 84 74 79 97 103 98 109 124 111 130
3830.0 159 138 115 99 76
##END=
