##TITLE=Allylphenoxy acetate
##JCAMP-DX=4.24
##DATA TYPE=INFRARED SPECTRUM
##ORIGIN=NIST Mass Spectrometry Data Center
##OWNER=NIST Standard Reference Data Program
Collection (C) 2018 copyright by the U.S. Secretary of Commerce
on behalf of the United States of America. All rights reserved.
##CAS REGISTRY NO=7493-74-5
##MOLFORM=C 11 H 12 O 3
##$NIST SOURCE=MSDC-IR
##SPECTROMETER/DATA SYSTEM=HP-GC/MS/IRD
##STATE=gas
##XUNITS=1/CM
##YUNITS=ABSORBANCE
##XFACTOR=1.0
##YFACTOR=0.000004000
##DELTAX=4.0
##FIRSTX=550.0
##LASTX=3846.0
##FIRSTY=0.000440
##MAXX=3846
##MINX=550
##MAXY=0.04
##MINY=0
##NPOINTS=825
##XYDATA=(X++(Y..Y))
550.0 110 97 26 29 27 54 62 96 139 134
590.0 124 139 112 53 59 80 71 83 74 46
630.0 21 13 12 28 49 60 84 126 183 249
670.0 346 490 679 902 1066 1080 959 784 613 475
710.0 379 324 300 294 322 405 578 827 1176 1566
750.0 1816 1790 1520 1176 922 761 677 672 675 640
790.0 566 457 350 273 231 217 222 245 279 306
830.0 341 358 330 285 226 181 167 160 160 184
870.0 221 270 324 361 377 375 372 400 442 492
910.0 593 717 874 1050 1244 1401 1413 1309 1135 959
950.0 864 840 880 984 1142 1345 1600 1901 2207 2436
990.0 2526 2489 2359 2191 2027 1879 1760 1649 1548 1474
1030.0 1432 1422 1457 1518 1620 1766 1951 2173 2419 2661
1070.0 2880 3052 3168 3213 3111 2810 2360 1871 1452 1143
1110.0 926 788 714 696 731 827 997 1260 1658 2256
1150.0 3089 4138 5462 7056 8629 9717 10000 9491 8497 7333
1190.0 6347 5806 5689 5847 5991 5883 5534 5133 4879 4798
1230.0 4762 4651 4422 4148 3922 3819 3837 3953 4136 4331
1270.0 4488 4571 4555 4403 4134 3822 3509 3186 2814 2373
1310.0 1917 1512 1190 969 840 771 719 666 609 577
1350.0 577 596 627 648 666 688 707 726 726 683
1390.0 610 535 478 440 422 417 432 459 491 531
1430.0 582 658 752 868 989 1061 1047 973 901 871
1470.0 914 1058 1360 1930 2888 4082 4784 4493 3363 2014
1510.0 1120 701 472 351 281 233 208 197 200 218
1550.0 246 285 331 404 498 633 826 1099 1463 1946
1590.0 2515 3011 3150 2755 2025 1294 791 515 375 298
1630.0 257 242 239 243 240 226 208 181 153 134
1670.0 124 129 133 145 171 196 222 258 296 345
1710.0 408 480 572 679 813 1014 1315 1782 2502 3461
1750.0 4470 5155 5270 4878 4320 3972 3945 4034 3964 3591
1790.0 2970 2301 1726 1283 964 745 595 493 424 373
1830.0 336 302 278 260 250 246 235 224 214 197
1870.0 179 159 141 121 105 99 97 96 100 106
1910.0 114 127 135 137 132 125 121 121 114 96
1950.0 80 65 55 53 48 46 46 43 47 50
1990.0 52 59 61 56 50 47 45 45 47 42
2030.0 40 41 43 46 48 51 52 52 53 55
2070.0 57 61 57 55 58 57 49 50 56 47
2110.0 49 52 45 47 47 46 44 45 45 39
2150.0 38 39 30 19 17 19 14 12 16 17
2190.0 14 14 13 8 5 3 1 4 2 0
2230.0 3 6 11 13 11 13 15 13 11 14
2270.0 18 24 29 31 33 39 37 35 39 42
2310.0 47 45 38 37 35 33 37 39 34 37
2350.0 42 41 34 28 27 28 30 34 32 30
2390.0 30 29 30 33 31 26 27 32 35 31
2430.0 31 33 30 31 34 34 31 30 33 34
2470.0 33 31 29 30 29 29 28 23 26 34
2510.0 35 29 32 34 33 33 33 40 45 39
2550.0 30 31 39 37 39 40 35 29 25 23
2590.0 21 22 25 31 33 24 20 23 21 19
2630.0 13 10 20 27 23 19 21 24 21 26
2670.0 21 20 22 20 19 15 19 25 24 23
2710.0 29 38 40 35 35 34 34 34 34 40
2750.0 43 43 46 48 49 51 50 50 51 53
2790.0 53 48 48 59 61 62 69 73 77 82
2830.0 81 80 86 100 123 139 155 178 205 227
2870.0 249 266 275 296 322 344 366 384 395 405
2910.0 428 471 544 625 700 777 858 934 988 1023
2950.0 1055 1076 1062 1010 921 821 732 657 593 548
2990.0 518 506 495 480 470 467 478 516 572 638
3030.0 697 752 811 869 903 892 850 804 803 865
3070.0 958 1063 1126 1110 1050 983 935 909 845 725
3110.0 575 430 311 224 159 115 95 79 68 68
3150.0 58 40 42 46 40 38 35 40 42 34
3190.0 30 33 40 35 43 48 41 45 38 31
3230.0 29 27 18 20 36 38 31 31 28 24
3270.0 26 33 37 38 35 22 14 11 16 26
3310.0 28 27 33 41 40 33 32 27 31 31
3350.0 22 19 21 22 27 30 34 32 23 19
3390.0 25 23 28 39 33 29 32 29 32 33
3430.0 35 39 32 34 40 39 48 55 53 57
3470.0 60 61 60 57 69 80 79 88 96 81
3510.0 72 67 64 71 72 61 63 73 83 75
3550.0 69 59 54 64 58 57 55 41 32 34
3590.0 42 35 33 34 30 40 40 32 39 38
3630.0 42 44 30 33 42 44 47 44 39 38
3670.0 43 35 32 42 41 39 43 49 50 40
3710.0 32 39 46 47 42 40 48 42 35 44
3750.0 47 43 36 45 53 48 42 48 55 53
3790.0 49 44 48 54 55 42 34 44 46 38
3830.0 45 56 42 44 51
##END=
