##TITLE=Allyl undecylenate
##JCAMP-DX=4.24
##DATA TYPE=INFRARED SPECTRUM
##ORIGIN=NIST Mass Spectrometry Data Center
##OWNER=NIST Standard Reference Data Program
Collection (C) 2018 copyright by the U.S. Secretary of Commerce
on behalf of the United States of America. All rights reserved.
##CAS REGISTRY NO=7493-76-7
##MOLFORM=C 14 H 24 O 2
##$NIST SOURCE=MSDC-IR
##SPECTROMETER/DATA SYSTEM=HP-GC/MS/IRD
##STATE=gas
##XUNITS=1/CM
##YUNITS=ABSORBANCE
##XFACTOR=1.0
##YFACTOR=0.000003700
##DELTAX=4.0
##FIRSTX=550.0
##LASTX=3846.0
##FIRSTY=0.000348
##MAXX=3846
##MINX=550
##MAXY=0.037
##MINY=0
##NPOINTS=825
##XYDATA=(X++(Y..Y))
550.0 94 79 30 18 11 18 3 13 57 64
590.0 65 94 112 136 158 156 175 196 203 214
630.0 215 219 195 159 147 135 113 96 95 89
670.0 69 61 63 65 77 72 65 87 96 100
710.0 120 139 162 189 188 169 153 137 125 115
750.0 99 102 104 100 101 93 91 96 107 102
790.0 91 94 97 107 117 124 130 140 160 175
830.0 178 188 199 217 246 273 306 327 352 381
870.0 410 450 486 530 587 655 761 932 1173 1496
910.0 1852 2075 2109 2073 2058 2009 1842 1585 1351 1164
950.0 1042 1003 1017 1069 1181 1353 1564 1819 2140 2482
990.0 2730 2776 2645 2454 2277 2108 1942 1772 1612 1473
1030.0 1339 1231 1153 1080 1054 1033 1025 1028 1033 1053
1070.0 1083 1133 1195 1257 1338 1422 1507 1601 1693 1783
1110.0 1890 2023 2152 2296 2520 2822 3218 3692 4216 4714
1150.0 5117 5393 5508 5503 5415 5237 4971 4658 4320 4006
1190.0 3728 3486 3305 3196 3140 3116 3132 3179 3235 3291
1230.0 3321 3303 3206 3046 2851 2626 2408 2230 2099 2003
1270.0 1946 1889 1802 1702 1610 1533 1471 1425 1381 1326
1310.0 1274 1228 1179 1138 1111 1117 1152 1204 1251 1270
1350.0 1261 1249 1265 1308 1356 1359 1290 1162 1000 841
1390.0 704 606 553 543 559 605 669 735 811 892
1430.0 960 1023 1094 1190 1292 1376 1431 1431 1341 1145
1470.0 909 694 513 387 304 242 204 179 161 144
1510.0 122 113 109 103 98 98 99 99 95 82
1550.0 75 76 77 76 74 70 77 85 81 77
1590.0 84 92 104 122 137 160 194 236 287 361
1630.0 458 586 707 754 693 565 442 339 271 235
1670.0 216 209 208 220 242 271 322 386 469 566
1710.0 660 769 931 1143 1427 1837 2430 3251 4323 5571
1750.0 6733 7371 7149 6173 4855 3585 2567 1852 1366 1040
1790.0 810 647 529 439 377 333 308 295 286 284
1830.0 278 253 225 201 181 172 165 159 153 141
1870.0 124 106 87 77 70 66 66 64 55 49
1910.0 51 51 47 47 43 38 43 45 45 46
1950.0 46 47 50 54 57 55 61 65 62 58
1990.0 49 51 54 50 43 42 43 45 50 47
2030.0 45 44 40 39 43 42 35 35 36 35
2070.0 36 35 31 30 28 26 23 22 22 20
2110.0 22 17 15 21 18 12 8 8 12 16
2150.0 13 12 12 11 11 9 6 3 0 3
2190.0 8 8 3 2 6 13 14 8 4 3
2230.0 8 11 8 9 12 12 14 10 6 8
2270.0 3 1 4 5 5 6 9 11 5 2
2310.0 9 7 1 1 0 0 6 10 4 5
2350.0 7 9 11 8 8 3 0 0 0 1
2390.0 0 2 5 8 6 3 2 3 6 5
2430.0 7 10 7 5 0 4 7 9 12 12
2470.0 10 6 5 7 8 10 8 5 11 14
2510.0 14 14 11 9 16 17 12 17 26 26
2550.0 23 21 21 19 21 32 29 24 26 30
2590.0 32 32 38 39 35 36 38 41 46 41
2630.0 40 50 57 58 62 64 64 71 72 73
2670.0 79 88 95 97 98 97 95 95 96 93
2710.0 91 88 86 93 96 94 97 103 112 115
2750.0 112 113 121 130 133 140 153 162 173 188
2790.0 207 227 250 279 307 341 376 422 473 539
2830.0 625 715 848 1044 1333 1748 2311 2949 3451 3600
2870.0 3371 2951 2554 2256 2092 2056 2141 2343 2666 3123
2910.0 3729 4472 5383 6528 7899 9233 10000 9836 8879 7575
2950.0 6278 5142 4190 3429 2867 2473 2194 1989 1827 1680
2990.0 1538 1420 1323 1245 1171 1062 935 831 757 712
3030.0 648 565 503 464 441 438 451 476 511 575
3070.0 657 761 918 1092 1185 1139 979 816 668 528
3110.0 410 310 259 211 161 135 123 120 105 88
3150.0 93 94 76 66 68 68 64 52 46 39
3190.0 41 45 38 30 24 29 40 40 30 17
3230.0 18 17 5 0 8 17 22 26 22 16
3270.0 21 29 22 14 21 24 16 9 3 1
3310.0 12 16 10 10 10 13 12 12 8 11
3350.0 9 9 15 17 19 17 11 11 20 26
3390.0 24 22 27 22 12 20 16 2 18 26
3430.0 20 28 31 26 22 26 34 35 39 45
3470.0 55 68 69 72 86 97 88 80 73 63
3510.0 62 66 49 30 33 26 13 12 11 12
3550.0 18 27 14 0 2 9 12 5 1 9
3590.0 15 8 11 15 6 3 4 8 11 9
3630.0 15 26 19 13 18 21 22 30 30 27
3670.0 30 33 36 29 24 32 37 22 15 27
3710.0 34 31 30 31 27 29 20 9 16 34
3750.0 45 34 31 23 21 30 24 28 22 15
3790.0 18 19 24 29 22 26 34 35 43 40
3830.0 32 36 37 39 30
##END=
