##TITLE=Allyl 2-ethylbutyrate
##JCAMP-DX=4.24
##DATA TYPE=INFRARED SPECTRUM
##ORIGIN=NIST Mass Spectrometry Data Center
##OWNER=NIST Standard Reference Data Program
Collection (C) 2018 copyright by the U.S. Secretary of Commerce
on behalf of the United States of America. All rights reserved.
##CAS REGISTRY NO=7493-69-8
##MOLFORM=C 9 H 16 O 2
##$NIST SOURCE=MSDC-IR
##SPECTROMETER/DATA SYSTEM=HP-GC/MS/IRD
##STATE=gas
##XUNITS=1/CM
##YUNITS=ABSORBANCE
##XFACTOR=1.0
##YFACTOR=0.000003800
##DELTAX=4.0
##FIRSTX=550.0
##LASTX=3846.0
##FIRSTY=0.000308
##MAXX=3846
##MINX=550
##MAXY=0.038
##MINY=0
##NPOINTS=825
##XYDATA=(X++(Y..Y))
550.0 81 96 54 78 75 90 53 34 33 14
590.0 30 48 27 14 28 38 54 66 70 77
630.0 71 66 70 79 99 94 77 68 74 67
670.0 45 49 51 41 12 0 12 0 4 17
710.0 20 22 33 49 50 81 128 156 200 241
750.0 245 229 198 176 174 177 186 207 242 284
790.0 361 441 461 466 450 380 317 260 207 185
830.0 186 190 201 197 195 208 221 238 246 266
870.0 280 287 312 346 373 414 472 539 629 752
910.0 922 1136 1375 1643 1873 1961 1879 1655 1380 1159
950.0 1014 959 983 1077 1249 1547 2000 2588 3223 3697
990.0 3805 3502 2889 2234 1738 1419 1245 1154 1107 1071
1030.0 1058 1049 1024 993 969 959 979 1074 1249 1513
1070.0 1850 2205 2509 2656 2631 2516 2388 2342 2419 2596
1110.0 2863 3217 3663 4237 4995 5923 6862 7535 7709 7346
1150.0 6690 6181 6189 6753 7513 7987 7868 7095 5897 4689
1190.0 3758 3166 2889 2870 3065 3435 3861 4189 4273 4058
1230.0 3571 2977 2473 2142 2009 2041 2197 2423 2635 2749
1270.0 2701 2485 2146 1780 1474 1268 1157 1099 1054 996
1310.0 942 896 871 864 856 838 829 846 887 935
1350.0 973 1005 1039 1099 1191 1306 1424 1520 1564 1536
1390.0 1436 1265 1059 878 761 698 680 690 706 721
1430.0 737 776 855 982 1162 1370 1567 1702 1716 1603
1470.0 1405 1151 901 678 520 416 345 290 252 225
1510.0 194 176 174 173 160 158 159 158 152 145
1550.0 137 132 133 130 124 117 116 118 119 124
1590.0 126 126 125 129 137 142 151 160 177 202
1630.0 230 266 312 364 396 394 373 325 287 267
1670.0 252 257 278 303 333 380 457 554 658 788
1710.0 933 1099 1329 1666 2203 3079 4413 6122 7926 9497
1750.0 10000 8957 7108 5123 3405 2253 1591 1208 970 798
1790.0 664 552 456 385 331 283 246 223 198 188
1830.0 181 173 169 170 175 178 182 190 190 179
1870.0 166 152 132 116 110 99 89 85 77 79
1910.0 82 77 70 70 70 65 64 66 64 61
1950.0 63 65 69 71 72 67 67 68 61 54
1990.0 51 51 48 37 37 43 41 39 45 47
2030.0 43 46 45 42 45 51 52 47 48 50
2070.0 50 46 38 38 38 34 34 30 30 34
2110.0 35 30 22 21 25 24 13 11 18 19
2150.0 17 17 14 8 4 6 7 7 7 1
2190.0 2 9 8 1 0 1 3 0 7 11
2230.0 5 7 8 6 10 18 22 21 17 21
2270.0 26 25 23 23 25 24 23 23 20 20
2310.0 23 26 29 28 26 23 25 33 29 19
2350.0 11 20 27 23 21 22 21 19 18 19
2390.0 22 23 18 17 20 22 21 18 16 12
2430.0 6 11 15 14 15 7 6 11 10 12
2470.0 11 12 15 17 19 19 12 8 6 6
2510.0 6 4 6 8 6 0 6 13 9 9
2550.0 9 5 8 9 5 6 16 21 19 15
2590.0 16 23 30 24 15 16 11 6 12 24
2630.0 26 20 17 19 22 21 27 25 19 18
2670.0 23 27 23 28 33 33 34 39 42 42
2710.0 45 51 53 51 51 60 73 81 91 104
2750.0 115 119 115 112 106 110 117 120 120 127
2790.0 142 152 159 165 178 190 201 218 231 250
2830.0 271 294 329 371 416 478 567 688 872 1135
2870.0 1454 1802 2154 2439 2592 2588 2456 2250 2057 1973
2910.0 1996 2105 2290 2553 2938 3462 4085 4681 5102 5292
2950.0 5264 5126 5106 5386 5966 6571 6733 6263 5291 4093
2990.0 3024 2260 1757 1410 1170 1018 921 855 802 759
3030.0 699 624 558 506 466 438 426 420 415 433
3070.0 466 501 536 587 654 714 735 716 659 558
3110.0 446 355 286 247 219 191 168 152 148 147
3150.0 129 121 123 115 103 88 86 73 59 69
3190.0 63 55 54 49 45 46 37 23 30 30
3230.0 27 26 20 20 19 21 16 11 12 7
3270.0 9 12 9 16 15 7 2 4 6 5
3310.0 16 21 12 12 17 7 0 9 11 7
3350.0 7 15 17 16 27 31 25 19 19 23
3390.0 18 11 25 43 27 18 32 39 30 12
3430.0 20 31 34 48 48 52 69 71 82 102
3470.0 117 122 123 126 124 112 94 79 70 64
3510.0 67 55 43 38 43 40 32 37 32 36
3550.0 36 41 36 31 37 36 34 37 35 32
3590.0 35 28 26 28 29 31 26 25 43 40
3630.0 32 30 27 35 36 30 34 28 9 11
3670.0 26 31 21 24 40 39 38 36 34 24
3710.0 9 8 24 37 26 13 18 20 14 25
3750.0 21 21 18 11 22 31 25 12 2 16
3790.0 30 29 30 32 33 43 43 43 52 37
3830.0 35 44 29 21 31
##END=
