##TITLE=2-Bromocinnamic acid
##JCAMP-DX=4.24
##DATA TYPE=INFRARED SPECTRUM
##ORIGIN=EPA-IR VAPOR PHASE LIBRARY
##OWNER=SRD/NIST
Collection (C) 2018 copyright by the U.S. Secretary of Commerce
on behalf of the United States of America. All rights reserved.
##CAS REGISTRY NO=7499-56-1
##MOLFORM=C 9 H 7 Br O 2
##$NIST SOURCE=MSDC-IR
##STATE=gas
##XUNITS=1/CM
##YUNITS=ABSORBANCE
##XFACTOR=1.
##YFACTOR=0.001
##DELTAX=1.929
##FIRSTX=549.8
##LASTX=4000.8
##FIRSTY=16.699
##MAXX=4000.75
##MINX=549.766
##MAXY=0.109789
##MINY=0
##NPOINTS=1790
##XYDATA=(X++(Y..Y))
549.766 16.699 17.699 18.669 19.729 20.139 20.129 20.359 21.179 23.039 25.949
569.056 29.079 31.579 33.299 34.139 33.769 31.379 27.199 22.909 19.239 15.989
588.346 13.039 10.689 8.949 7.859 7.249 6.579 5.959 5.559 5.209 4.819
607.636 4.489 4.199 4.139 4.059 3.859 3.799 3.869 3.799 3.699 3.909
626.926 4.239 4.519 4.749 5.109 5.769 6.389 6.909 7.249 7.229 7.049
646.216 6.699 6.119 5.309 4.529 3.919 3.519 3.379 3.329 3.439 3.809
665.506 4.379 5.399 6.509 7.569 8.889 10.259 11.439 12.329 12.899 12.909
684.796 12.309 11.329 10.099 8.829 7.769 6.919 6.239 5.679 5.229 4.929
704.086 4.629 4.419 4.269 3.979 3.879 3.919 3.779 3.709 3.799 3.919
723.376 4.059 4.309 4.609 4.979 5.489 5.939 6.359 7.159 8.629 10.799
742.666 13.539 16.879 20.509 24.249 28.249 31.759 32.569 29.619 24.949 20.769
761.956 17.199 13.689 10.439 7.839 5.959 4.739 3.959 3.469 3.119 2.849
781.246 2.719 2.659 2.569 2.479 2.449 2.319 2.199 2.149 2.199 2.209
800.536 2.149 2.129 2.219 2.389 2.589 2.709 2.769 2.819 2.829 2.779
819.826 2.729 2.749 2.689 2.599 2.499 2.409 2.399 2.389 2.279 2.259
839.116 2.319 2.329 2.349 2.299 2.359 2.479 2.519 2.639 2.789 2.849
858.406 2.909 3.049 3.309 3.619 4.019 4.459 4.819 4.999 4.849 4.559
877.696 4.359 4.099 3.899 3.789 3.719 3.699 3.789 4.019 4.219 4.479
896.986 4.749 4.849 4.829 4.629 4.399 4.199 3.899 3.559 3.309 3.089
916.276 2.949 2.949 2.949 2.939 2.999 3.069 3.199 3.359 3.489 3.669
935.566 3.979 4.269 4.609 4.949 5.199 5.359 5.429 5.479 5.579 5.649
954.856 5.709 5.889 6.269 6.809 7.439 8.199 9.099 10.199 11.409 12.479
974.146 13.149 13.469 13.819 13.879 13.019 11.599 10.269 9.249 8.449 7.719
993.436 7.149 6.809 6.639 6.569 6.559 6.629 6.759 6.999 7.379 7.699
1012.726 8.049 8.539 9.219 10.269 11.629 13.269 15.099 16.799 17.799 17.959
1032.016 17.809 17.299 15.979 13.879 11.699 10.059 8.959 8.179 7.599 7.229
1051.306 6.839 6.319 5.819 5.329 4.889 4.669 4.559 4.459 4.479 4.599
1070.596 4.789 5.019 5.279 5.599 6.039 6.609 7.259 8.079 9.099 10.269
1089.886 11.649 13.299 15.219 17.479 20.099 23.309 27.379 32.579 39.299 47.859
1109.176 58.379 70.459 82.609 92.319 97.549 98.229 94.699 87.129 75.919 62.869
1128.467 51.639 44.349 40.229 37.689 36.019 34.989 34.369 34.049 34.339 35.399
1147.757 37.289 39.909 42.779 45.109 45.979 44.999 42.649 39.359 34.809 29.229
1167.047 23.729 19.249 16.099 14.029 12.659 11.739 11.119 10.569 10.009 9.459
1186.337 9.009 8.639 8.359 8.179 8.179 8.349 8.469 8.459 8.409 8.209
1205.627 7.949 7.589 7.129 6.839 6.689 6.599 6.519 6.499 6.579 6.609
1224.917 6.749 6.889 7.029 7.269 7.609 8.039 8.459 8.899 9.369 9.919
1244.207 10.509 11.029 11.589 12.199 12.769 13.259 13.679 13.959 14.119 14.009
1263.497 13.679 13.379 13.049 12.699 12.479 12.369 12.359 12.429 12.569 12.709
1282.787 12.739 12.589 12.309 11.979 11.719 11.569 11.459 11.599 12.019 12.469
1302.077 13.049 13.689 14.209 14.489 14.489 14.209 13.699 13.009 12.249 11.569
1321.367 11.069 10.849 10.819 10.859 10.989 11.199 11.469 11.789 12.289 13.069
1340.657 14.139 15.529 17.289 19.419 21.809 24.319 26.769 28.969 30.589 31.399
1359.947 31.089 29.619 27.219 24.139 20.679 17.109 13.849 11.239 9.369 8.089
1379.237 7.179 6.499 5.939 5.469 5.109 4.729 4.389 4.159 3.959 3.809
1398.527 3.719 3.639 3.619 3.639 3.669 3.679 3.729 3.839 3.949 4.089
1417.817 4.319 4.669 5.109 5.699 6.509 7.469 8.469 9.439 10.299 10.839
1437.107 11.029 10.869 10.379 9.619 8.669 7.739 6.929 6.399 6.339 6.719
1456.397 7.499 8.649 10.029 11.419 12.639 13.489 13.709 13.369 12.519 11.149
1475.687 9.509 7.739 6.159 4.969 4.119 3.509 3.049 2.689 2.459 2.329
1494.977 2.199 2.059 1.989 1.899 1.859 1.859 1.839 1.779 1.749 1.729
1514.267 1.669 1.659 1.629 1.599 1.629 1.629 1.609 1.629 1.649 1.649
1533.557 1.679 1.769 1.849 1.999 2.189 2.379 2.639 2.949 3.369 3.879
1552.847 4.389 4.919 5.399 5.779 6.039 6.119 6.039 5.949 5.659 5.229
1572.137 4.869 4.579 4.469 4.469 4.519 4.589 4.649 4.669 4.569 4.409
1591.427 4.269 4.059 3.769 3.539 3.409 3.409 3.439 3.489 3.609 3.799
1610.717 4.029 4.279 4.589 5.069 5.599 6.279 7.179 8.339 9.799 11.489
1630.007 13.459 15.609 17.829 19.979 21.699 22.689 22.739 21.809 19.899 17.169
1649.297 13.989 10.869 8.079 6.109 4.909 4.169 3.709 3.419 3.239 3.159
1668.587 3.149 3.169 3.139 3.119 3.159 3.229 3.339 3.469 3.609 3.769
1687.877 3.919 4.099 4.239 4.349 4.529 4.689 4.879 5.189 5.549 5.979
1707.167 6.479 7.069 7.669 8.299 8.949 9.669 10.539 11.539 12.889 14.609
1726.457 16.659 19.069 21.829 24.879 28.319 32.189 36.539 41.809 48.079 55.919
1745.747 65.519 76.489 87.569 97.579 105.279 109.679 109.789 104.769 95.379 84.509
1765.037 74.289 64.419 55.219 47.809 42.269 38.349 35.469 33.239 31.369 29.589
1784.327 27.719 25.649 23.619 21.849 20.219 18.689 17.299 16.109 15.089 14.199
1803.617 13.399 12.569 11.709 10.909 10.129 9.309 8.489 7.669 6.939 6.299
1822.907 5.779 5.349 4.919 4.529 4.169 3.809 3.529 3.279 3.009 2.769
1842.197 2.579 2.419 2.279 2.179 2.099 1.989 1.869 1.799 1.719 1.649
1861.487 1.579 1.489 1.429 1.3949 1.3987 1.439 1.479 1.509 1.539 1.569
1880.777 1.619 1.639 1.629 1.579 1.499 1.426 1.342 1.2711 1.2101 1.1908
1900.067 1.171 1.1808 1.2523 1.3481 1.469 1.559 1.629 1.669 1.669 1.639
1919.357 1.559 1.439 1.3266 1.2435 1.1715 1.1282 1.1245 1.1454 1.1901 1.2823
1938.647 1.3752 1.429 1.479 1.529 1.579 1.589 1.549 1.489 1.405 1.2725
1957.937 1.1776 1.1288 1.0746 0.9847 0.8654 0.8183 0.8219 0.8082 0.7886 0.7703
1977.227 0.7705 0.759 0.7049 0.7027 0.7102 0.6782 0.6712 0.6741 0.6933 0.6912
1996.517 0.6832 0.7014 0.6847 0.6509 0.655 0.6655 0.6568 0.6429 0.6383 0.6695
2015.807 0.6949 0.6851 0.6962 0.7089 0.7083 0.7441 0.7703 0.7925 0.7533 0.7256
2035.097 0.7672 0.7972 0.8271 0.8507 0.8991 0.9213 0.9216 0.9309 0.9509 0.9667
2054.387 0.9682 0.9597 0.9476 0.9477 0.9431 0.9022 0.8283 0.7805 0.7594 0.7435
2073.677 0.6983 0.6716 0.6493 0.596 0.5826 0.5772 0.5451 0.52206 0.51333 0.50958
2092.967 0.4966 0.49497 0.4996 0.48062 0.46049 0.46264 0.4794 0.46891 0.45537 0.47457
2112.257 0.46043 0.44607 0.46002 0.44401 0.432888 0.46443 0.50483 0.48313 0.45343 0.434687
2131.547 0.3983 0.4084 0.45809 0.48581 0.47776 0.4646 0.44739 0.433614 0.437062 0.41953
2150.837 0.3997 0.42462 0.412 0.392 0.432397 0.46146 0.45669 0.44491 0.4043 0.381
2170.127 0.4101 0.3892 0.3766 0.42303 0.45393 0.44131 0.429006 0.45031 0.46842 0.4588
2189.417 0.46001 0.50362 0.5274 0.52665 0.52471 0.5409 0.5365 0.5664 0.5738 0.5689
2208.707 0.5867 0.5841 0.6036 0.6325 0.6661 0.6576 0.6554 0.6537 0.662 0.7064
2227.997 0.729 0.6871 0.6468 0.6391 0.6524 0.662 0.6286 0.5964 0.5915 0.6017
2247.287 0.6228 0.6318 0.5971 0.5709 0.586 0.5811 0.5413 0.5421 0.5603 0.52337
2266.577 0.52698 0.5397 0.5304 0.5681 0.5917 0.6042 0.6206 0.6166 0.6524 0.6516
2285.868 0.6392 0.6925 0.7109 0.7149 0.7506 0.7585 0.7995 0.8233 0.8338 0.9095
2305.158 0.9171 0.9057 0.9491 0.9807 1.0038 1.0616 1.0814 1.1071 1.1549 1.1547
2324.448 1.1513 1.1263 1.1186 1.1206 1.0538 0.9854 0.9614 0.9502 0.9176 0.8987
2343.738 0.878 0.8363 0.8106 0.8268 0.9062 0.969 0.9885 1.0224 1.058 1.0978
2363.028 1.1217 1.0802 1.0689 1.0768 1.0107 0.9424 0.8926 0.8348 0.7936 0.742
2382.318 0.6686 0.6567 0.6071 0.5307 0.51474 0.46153 0.47368 0.52169 0.48531 0.47323
2401.608 0.42369 0.3991 0.46942 0.49299 0.52487 0.48532 0.42566 0.46989 0.49687 0.43962
2420.898 0.42679 0.45184 0.48652 0.50655 0.50137 0.50595 0.50762 0.5398 0.5347 0.51034
2440.188 0.50862 0.5096 0.50522 0.51964 0.5675 0.5492 0.51383 0.51171 0.52441 0.5703
2459.478 0.5614 0.538 0.5686 0.5944 0.5849 0.6046 0.61 0.6039 0.6072 0.6108
2478.768 0.5898 0.5719 0.5946 0.5873 0.5816 0.5727 0.5509 0.5476 0.5365 0.5309
2498.058 0.5508 0.5408 0.5172 0.5489 0.5858 0.5618 0.5547 0.5312 0.46914 0.47796
2517.348 0.50749 0.47079 0.45721 0.47867 0.49316 0.49655 0.4736 0.47169 0.47383 0.47923
2536.638 0.49089 0.46731 0.44616 0.435586 0.46831 0.50426 0.50646 0.5042 0.51068 0.5346
2555.928 0.51669 0.50101 0.50875 0.5336 0.5546 0.5463 0.5597 0.5628 0.5358 0.5663
2575.218 0.5838 0.5686 0.5593 0.5629 0.6037 0.6223 0.5758 0.5536 0.5621 0.5585
2594.508 0.5462 0.50595 0.48706 0.51409 0.47514 0.42534 0.45478 0.48188 0.47628 0.4047
2613.798 0.42083 0.48554 0.42596 0.3765 0.4044 0.436916 0.42588 0.3806 0.4062 0.46854
2633.088 0.42598 0.3824 0.3478 0.319 0.314 0.294 0.316 0.326 0.324 0.3336
2652.378 0.3632 0.3795 0.3578 0.32 0.31 0.323 0.3838 0.3816 0.3788 0.436205
2671.668 0.437503 0.4495 0.4184 0.385 0.41993 0.44113 0.3956 0.379 0.4127 0.43948
2690.958 0.4121 0.384 0.3847 0.387 0.4124 0.45251 0.46946 0.46642 0.45358 0.45237
2710.248 0.430959 0.42534 0.44482 0.46271 0.4095 0.325 0.3522 0.3808 0.385 0.4028
2729.538 0.38 0.305 0.271 0.288 0.288 0.31 0.3772 0.4131 0.399 0.354
2748.828 0.3595 0.4155 0.4132 0.3824 0.3959 0.4185 0.3863 0.3634 0.3644 0.3688
2768.118 0.3909 0.3612 0.3297 0.3386 0.3381 0.3805 0.45341 0.44311 0.3573 0.3584
2787.408 0.3919 0.3574 0.3339 0.3448 0.3414 0.3874 0.3976 0.3477 0.327 0.292
2806.698 0.276 0.269 0.305 0.3558 0.3306 0.286 0.307 0.315 0.284 0.3373
2825.988 0.3502 0.289 0.3333 0.3885 0.3692 0.3465 0.3469 0.3768 0.4151 0.3793
2845.278 0.3713 0.3761 0.402 0.429169 0.44053 0.4177 0.3955 0.47466 0.48431 0.52298
2864.568 0.5831 0.5775 0.537 0.566 0.5659 0.45581 0.42142 0.46467 0.46386 0.44797
2883.858 0.46664 0.48755 0.49325 0.4572 0.45604 0.50263 0.47871 0.48612 0.506 0.52238
2903.148 0.47863 0.46594 0.5797 0.584 0.50173 0.48255 0.46076 0.46413 0.5529 0.50298
2922.438 0.42342 0.4609 0.49091 0.48948 0.50859 0.45208 0.4092 0.49237 0.5397 0.51887
2941.728 0.50697 0.50491 0.50965 0.50469 0.5057 0.5518 0.5745 0.5578 0.49485 0.48404
2961.018 0.5852 0.5727 0.5008 0.47421 0.52048 0.6284 0.6465 0.6365 0.6382 0.6415
2980.308 0.638 0.6445 0.6992 0.7461 0.7503 0.8116 0.8483 0.7961 0.771 0.8256
2999.598 0.9314 1.0017 1.0446 1.0565 1.0621 1.0887 1.1359 1.2068 1.2846 1.2982
3018.888 1.2504 1.2506 1.3411 1.4074 1.3702 1.2655 1.2245 1.2679 1.2598 1.268
3038.178 1.2936 1.3304 1.3977 1.459 1.639 1.899 2.109 2.429 2.869 3.349
3057.468 4.009 4.799 5.509 6.149 6.669 7.039 7.419 7.639 7.569 7.409
3076.758 7.129 6.719 6.349 5.789 5.079 4.449 3.869 3.329 2.889 2.469
3096.048 1.999 1.619 1.3696 1.1424 0.9608 0.9465 0.9198 0.9132 0.9083 0.8984
3115.338 0.9856 1.0198 1.0068 1.0504 1.0993 1.1288 1.1556 1.052 0.9334 0.8238
3134.628 0.7984 0.8271 0.6471 0.44856 0.4066 0.4149 0.4258 0.436087 0.3846 0.3589
3153.918 0.3666 0.278 0.217 0.266 0.271 0.26 0.28 0.284 0.313 0.247
3173.208 0.174 0.152 0.182 0.209 0.191 0.206 0.221 0.216 0.219 0.187
3192.498 0.174 0.178 0.12 0.136 0.161 0.174 0.23 0.237 0.198 0.191
3211.788 0.168 0.239 0.266 0.161 0.119 0.15 0.157 0.12 0.131 0.153
3231.078 0.147 0.162 0.227 0.262 0.151 0.083 0.135 0.177 0.156 0.164
3250.368 0.228 0.161 0.097 0.119 0.071 0.076 0.154 0.066 0.051 0.122
3269.658 0.074 0.02 0.07 0.134 0.094 0.057 0.041 0.07 0.084 0.111
3288.948 0.119 0.085 0.119 0.092 0.108 0.147 0.116 0.1 0.094 0.091
3308.238 0.132 0.147 0.148 0.189 0.205 0.147 0.134 0.166 0.074 0
3327.528 0.064 0.119 0.079 0.077 0.089 0.069 0.1 0.185 0.177 0.155
3346.818 0.176 0.228 0.22 0.199 0.264 0.26 0.234 0.206 0.137 0.097
3366.108 0.109 0.184 0.29 0.299 0.29 0.282 0.244 0.318 0.375 0.295
3385.398 0.286 0.305 0.279 0.3405 0.327 0.266 0.248 0.3416 0.3934 0.243
3404.688 0.302 0.375 0.292 0.293 0.239 0.139 0.177 0.252 0.273 0.282
3423.978 0.232 0.193 0.228 0.241 0.128 0.153 0.297 0.309 0.3775 0.3897
3443.269 0.363 0.301 0.177 0.244 0.328 0.3671 0.3417 0.298 0.3909 0.4121
3462.559 0.3837 0.4042 0.47368 0.52668 0.5678 0.5641 0.5295 0.5576 0.5805 0.6274
3481.849 0.7664 0.9071 0.9063 0.8946 0.9332 0.9372 0.9779 1.0312 0.9983 0.9683
3501.139 0.9565 0.9555 1.0479 1.1045 1.0546 1.0098 0.9832 0.9199 0.8714 0.7973
3520.429 0.6766 0.6765 0.6312 0.5946 0.6091 0.6117 0.5721 0.50685 0.5381 0.575
3539.719 0.6099 0.6836 0.7712 0.8242 0.965 1.059 1.0181 1.1205 1.3839 1.629
3559.009 1.949 2.479 3.269 4.399 6.019 8.709 12.799 18.559 26.069 34.219
3578.299 41.209 45.879 47.989 47.109 43.139 36.569 28.459 20.689 14.259 9.299
3597.589 5.899 3.929 2.869 2.179 1.759 1.499 1.2875 1.1402 0.9919 0.8587
3616.879 0.8112 0.8231 0.7618 0.7169 0.7572 0.6801 0.6508 0.6511 0.6169 0.5722
3636.169 0.48518 0.51967 0.6073 0.5996 0.579 0.6052 0.5726 0.6106 0.7055 0.7573
3655.459 0.8153 0.7536 0.6714 0.6005 0.52822 0.5483 0.5787 0.52216 0.45076 0.47695
3674.749 0.436779 0.3304 0.317 0.326 0.3362 0.3765 0.3564 0.319 0.4001 0.4055
3694.039 0.3929 0.4091 0.4109 0.4073 0.3454 0.3797 0.3816 0.3771 0.419 0.46762
3713.329 0.48685 0.4177 0.4058 0.363 0.3305 0.3687 0.3664 0.3321 0.228 0.252
3732.619 0.319 0.285 0.3539 0.3743 0.319 0.3401 0.3487 0.293 0.235 0.293
3751.909 0.327 0.3622 0.3856 0.3903 0.3719 0.248 0.267 0.3691 0.3349 0.242
3771.199 0.271 0.253 0.234 0.236 0.232 0.23 0.222 0.276 0.224 0.186
3790.489 0.307 0.3598 0.254 0.16 0.185 0.247 0.267 0.295 0.29 0.312
3809.779 0.303 0.271 0.273 0.292 0.317 0.287 0.3324 0.354 0.301 0.3
3829.069 0.23 0.235 0.319 0.276 0.294 0.3636 0.253 0.167 0.26 0.271
3848.359 0.173 0.174 0.289 0.245 0.169 0.264 0.286 0.246 0.213 0.234
3867.649 0.3413 0.3387 0.299 0.249 0.237 0.229 0.196 0.263 0.221 0.166
3886.939 0.224 0.322 0.3734 0.3925 0.3764 0.3622 0.4036 0.3989 0.3387 0.301
3906.229 0.296 0.3 0.323 0.266 0.254 0.224 0.176 0.26 0.3578 0.41905
3925.519 0.3744 0.3867 0.372 0.247 0.254 0.254 0.205 0.198 0.209 0.229
3944.809 0.243 0.229 0.187 0.16 0.188 0.265 0.315 0.256 0.189 0.209
3964.099 0.235 0.309 0.3398 0.296 0.3315 0.326 0.32 0.293 0.268 0.267
3983.389 0.263 0.27 0.272 0.305 0.265 0.258 0.297 0.312 0.3519 0.371
##END=
