##TITLE=Dichloromethylsilane
##JCAMP-DX=4.24
##DATA TYPE=INFRARED SPECTRUM
##ORIGIN=EPA-IR VAPOR PHASE LIBRARY
##OWNER=SRD/NIST
Collection (C) 2018 copyright by the U.S. Secretary of Commerce
on behalf of the United States of America. All rights reserved.
##CAS REGISTRY NO=75-54-7
##MOLFORM=C H 4 Cl 2 Si
##$NIST SOURCE=MSDC-IR
##STATE=gas
##XUNITS=1/CM
##YUNITS=ABSORBANCE
##XFACTOR=1.
##YFACTOR=0.001
##DELTAX=3.85796
##FIRSTX=501.5
##LASTX=4000.7
##FIRSTY=138.208
##MAXX=4000.7
##MINX=501.534
##MAXY=0.561288
##MINY=0
##NPOINTS=908
##XYDATA=(X++(Y..Y))
501.534 138.208 133.138 119.288 98.978 78.588 62.418 53.488 53.958 67.228 97.398
540.114 148.258 220.078 303.598 379.378 431.648 453.728 447.438 419.758 375.328 313.408
578.693 223.248 127.048 61.118 29.988 17.788 12.278 9.118 7.288 6.058 5.238
617.273 4.828 4.698 4.678 4.658 4.818 5.128 5.608 6.268 7.148 8.178
655.852 9.278 10.488 12.098 13.838 15.578 17.338 20.098 22.088 21.478 21.238
694.432 21.638 21.838 22.748 24.818 28.528 34.238 42.828 54.908 70.718 90.038
733.011 112.568 136.638 158.478 175.618 189.408 203.068 211.898 206.178 189.308 171.658
771.591 152.528 129.738 106.748 85.858 68.018 53.918 44.248 39.508 39.808 44.798
810.170 55.088 72.848 101.208 143.318 200.898 271.978 350.938 435.498 503.418 535.988
848.750 561.288 540.558 483.198 448.358 408.658 360.848 337.628 341.378 346.728 327.878
887.330 305.098 297.338 274.178 232.048 189.568 150.788 118.138 92.508 73.658 60.238
925.909 50.968 44.618 39.978 36.448 33.268 29.968 26.658 23.508 20.478 17.518
964.489 14.728 12.288 10.278 8.628 7.418 6.728 6.418 6.258 6.258 6.298
1003.068 6.338 6.298 6.258 6.208 6.198 6.448 6.738 7.068 7.708 8.358
1041.648 8.928 9.508 9.888 10.038 10.098 9.808 9.168 8.368 7.458 6.458
1080.227 5.568 4.808 4.058 3.648 3.288 2.868 2.808 2.788 2.688 2.648
1118.807 2.548 2.508 2.528 2.328 2.148 2.028 1.848 1.6191 1.377 1.2514
1157.387 1.2906 1.2415 1.1069 1.0757 1.0571 1.0501 1.1352 1.204 1.1466 1.1882
1195.966 1.2837 1.3357 1.4707 1.5677 1.7368 2.188 2.928 3.828 5.218 7.398
1234.546 10.628 15.328 21.728 30.088 40.458 52.048 62.838 70.188 71.318 71.228
1273.125 72.318 65.908 52.738 38.528 25.808 16.398 10.288 6.708 4.848 3.968
1311.705 3.488 3.188 3.038 2.948 2.878 2.838 2.808 2.788 2.758 2.768
1350.284 2.828 2.938 3.098 3.328 3.708 4.218 4.938 5.938 7.048 8.228
1388.864 9.368 10.218 10.738 11.318 11.828 11.918 11.438 10.508 9.678 8.948
1427.443 8.338 7.768 7.188 6.688 6.208 5.808 5.438 5.028 4.618 4.208
1466.023 3.768 3.388 3.158 2.988 2.828 2.768 2.758 2.798 2.918 3.008
1504.603 3.088 3.108 3.108 3.168 3.198 3.078 2.968 2.888 2.768 2.688
1543.182 2.568 2.428 2.378 2.428 2.478 2.538 2.678 2.858 3.028 3.158
1581.762 3.248 3.288 3.188 2.998 2.818 2.588 2.368 2.158 1.938 1.7582
1620.341 1.6198 1.4953 1.3775 1.2789 1.1897 1.0981 0.9956 0.9591 0.9443 0.85214
1658.921 0.76331 0.7175 0.7027 0.7401 0.80165 0.82516 0.84234 0.86582 0.9146 0.9293
1697.500 0.9383 1.0206 1.0257 0.9353 0.9033 0.8939 0.8824 0.84612 0.85698 0.8756
1736.080 0.8968 0.9865 1.0897 1.1826 1.2813 1.3723 1.4558 1.5018 1.4919 1.4513
1774.659 1.421 1.2869 1.0666 0.8898 0.7362 0.605 0.525 0.484 0.455 0.419
1813.239 0.411 0.439 0.422 0.38 0.373 0.364 0.355 0.303 0.273 0.268
1851.819 0.256 0.233 0.208 0.18 0.153 0.152 0.18 0.216 0.209 0.217
1890.398 0.244 0.253 0.293 0.36 0.396 0.398 0.47 0.531 0.6697 0.85086
1928.978 0.985 1.1315 1.2752 1.44 1.5949 1.7092 1.828 1.888 1.888 1.888
1967.557 1.858 1.788 1.7521 1.778 1.798 1.858 1.998 2.148 2.328 2.528
2006.137 2.728 2.818 2.858 2.858 2.838 2.728 2.538 2.288 1.998 1.7106
2044.716 1.4305 1.2123 1.0302 0.8718 0.773266 0.7176 0.770581 0.76693 0.79305 0.83415
2083.296 0.85954 0.8851 0.9758 1.0851 1.1917 1.2776 1.3969 1.5381 1.7597 1.978
2121.875 2.248 2.578 2.938 3.258 3.728 4.198 4.788 4.948 4.758 4.888
2160.455 5.398 6.058 7.438 9.988 14.988 23.658 38.398 60.178 89.198 121.268
2199.035 152.758 178.858 210.048 251.558 307.418 287.978 193.248 156.498 142.938 117.418
2237.614 86.208 54.298 30.868 16.188 8.838 5.198 3.628 2.708 2.288 1.878
2276.194 1.7077 1.5111 1.4113 1.2411 1.1684 1.0705 0.9905 0.9025 0.85581 0.7319
2314.773 0.6924 0.602 0.57 0.52 0.444 0.372 0.407 0.392 0.361 0.338
2353.353 0.329 0.28 0.309 0.338 0.311 0.311 0.358 0.388 0.428 0.4
2391.932 0.358 0.375 0.452 0.433 0.413 0.369 0.339 0.357 0.323 0.266
2430.512 0.216 0.173 0.157 0.149 0.139 0.142 0.161 0.145 0.173 0.193
2469.092 0.195 0.16 0.174 0.204 0.224 0.233 0.203 0.201 0.259 0.304
2507.671 0.258 0.246 0.295 0.256 0.242 0.21 0.139 0.112 0.08 0.087
2546.251 0.112 0.068 0.034 0.053 0.079 0.131 0.105 0.044 0.104 0.119
2584.830 0.091 0.069 0.09 0.076 0.042 0.068 0.067 0.044 0.084 0.096
2623.410 0.078 0.061 0.074 0.125 0.178 0.192 0.176 0.149 0.192 0.249
2661.989 0.248 0.228 0.249 0.27 0.282 0.271 0.258 0.321 0.392 0.424
2700.569 0.49 0.595 0.6756 0.628 0.571 0.577 0.618 0.627 0.545 0.461
2739.148 0.46 0.4 0.359 0.402 0.377 0.376 0.475 0.593 0.656 0.77187
2777.728 0.8806 0.9195 0.9648 0.9855 1.0704 1.1437 1.0584 0.9415 0.84201 0.80259
2816.308 0.8987 0.9302 0.8655 0.79126 0.7179 0.666 0.6959 0.78539 0.78586 0.78552
2854.887 0.776647 0.79885 0.9108 0.9589 1.0136 1.04 1.0958 1.1899 1.2472 1.3393
2893.467 1.4689 1.6197 1.808 1.968 2.008 1.968 1.908 1.858 1.878 1.828
2932.046 1.768 1.7609 1.788 2.068 2.418 2.888 3.758 5.098 6.988 9.298
2970.626 11.708 13.328 14.398 15.468 15.478 14.388 12.338 9.538 6.858 4.918
3009.205 3.578 2.618 1.938 1.6156 1.4508 1.3348 1.3878 1.4161 1.5459 1.7655
3047.785 1.958 2.168 2.318 2.388 2.498 2.638 2.748 2.818 2.908 2.928
3086.364 2.978 3.028 2.928 2.918 2.878 2.688 2.368 2.088 1.928 1.7625
3124.944 1.6293 1.5336 1.3809 1.188 1.1794 1.1723 1.1205 1.129 1.15 1.1045
3163.524 1.1121 1.2713 1.3575 1.2896 1.1927 1.1099 1.0106 0.776345 0.526 0.39
3202.103 0.371 0.418 0.357 0.257 0.218 0.335 0.543 0.617 0.634 0.666
3240.683 0.64 0.595 0.561 0.518 0.475 0.445 0.31 0.157 0.194 0.229
3279.262 0.11 0.055 0.132 0.157 0.131 0.064 0.048 0.04 0.047 0.12
3317.842 0.119 0.114 0.159 0.131 0.04 0.099 0.206 0.173 0.101 0.058
3356.421 0.072 0.075 0.066 0 0.042 0.075 0.032 0.059 0.074 0.066
3395.001 0.11 0.2 0.143 0.13 0.151 0.118 0.122 0.088 0.172 0.265
3433.580 0.224 0.195 0.053 0 0.113 0.221 0.302 0.242 0.155 0.236
3472.160 0.307 0.305 0.343 0.318 0.331 0.302 0.219 0.184 0.263 0.324
3510.740 0.321 0.367 0.283 0.198 0.215 0.22 0.337 0.359 0.394 0.443
3549.319 0.36 0.461 0.512 0.448 0.494 0.515 0.481 0.523 0.556 0.511
3587.899 0.546 0.644 0.631 0.595 0.643 0.673 0.66 0.6796 0.6915 0.7983
3626.478 0.9963 1.1 1.1556 1.1841 1.3037 1.3698 1.4647 1.6197 1.7166 1.7119
3665.058 1.6105 1.4999 1.4581 1.5248 1.4342 1.3008 1.2125 1.0851 0.9468 0.872
3703.637 0.8927 0.9214 0.9496 1.0469 1.2189 1.332 1.4295 1.5487 1.57 1.6383
3742.217 1.7483 1.788 1.808 1.7203 1.6134 1.5256 1.4389 1.3848 1.3628 1.3167
3780.797 1.248 1.2497 1.1223 1.0448 1.1376 1.204 1.2533 1.1891 1.1703 1.2155
3819.376 1.2058 1.0201 0.84304 0.80239 0.83009 0.8728 0.83604 0.80196 0.9162 0.9625
3857.956 0.8902 0.9234 0.8973 0.8712 0.84195 0.7228 0.548 0.501 0.544 0.544
3896.535 0.409 0.281 0.242 0.306 0.419 0.427 0.451 0.357 0.375 0.372
3935.115 0.335 0.39 0.399 0.417 0.409 0.381 0.338 0.327 0.298 0.318
3973.694 0.333 0.202 0.106 0.181 0.269 0.328 0.363 0.265
##END=
