##TITLE=Dichlorodimethylsilane
##JCAMP-DX=4.24
##DATA TYPE=INFRARED SPECTRUM
##ORIGIN=EPA-IR VAPOR PHASE LIBRARY
##OWNER=SRD/NIST
Collection (C) 2018 copyright by the U.S. Secretary of Commerce
on behalf of the United States of America. All rights reserved.
##CAS REGISTRY NO=75-78-5
##MOLFORM=C 2 H 6 Cl 2 Si
##$NIST SOURCE=MSDC-IR
##STATE=gas
##XUNITS=1/CM
##YUNITS=ABSORBANCE
##XFACTOR=1.
##YFACTOR=0.001
##DELTAX=3.85796
##FIRSTX=501.5
##LASTX=4000.7
##FIRSTY=18.205
##MAXX=4000.7
##MINX=501.534
##MAXY=0.301985
##MINY=0
##NPOINTS=908
##XYDATA=(X++(Y..Y))
501.534 18.205 21.885 29.425 42.075 62.115 92.685 134.565 183.585 230.175 268.295
540.114 293.925 291.995 264.185 225.535 174.515 114.005 63.895 34.835 21.455 15.525
578.693 12.275 10.215 8.795 7.725 6.895 6.205 5.685 5.395 5.405 5.425
617.273 5.545 5.755 5.915 6.165 6.215 6.455 7.005 7.475 8.315 9.965
655.852 13.305 19.325 28.635 41.785 57.695 74.735 91.405 105.705 112.595 108.255
694.432 97.575 86.685 72.655 55.135 40.025 30.075 24.015 20.205 17.795 16.355
733.011 15.695 15.745 16.495 17.765 19.345 21.455 24.045 26.515 28.865 32.445
771.591 38.425 48.015 62.555 83.335 109.815 140.335 176.255 224.295 259.065 264.745
810.170 283.605 301.985 297.925 291.455 279.485 271.135 269.745 255.965 234.715 216.415
848.750 193.635 165.135 139.395 117.375 97.615 81.085 68.495 59.345 52.365 46.865
887.330 42.505 38.785 35.385 32.035 28.675 25.595 22.695 19.965 17.625 15.605
925.909 13.785 12.205 10.885 9.685 8.605 7.625 6.765 6.145 5.715 5.425
964.489 5.255 5.265 5.405 5.645 5.985 6.365 6.955 7.645 8.385 9.105
1003.068 9.655 9.975 9.955 9.605 8.955 8.215 7.485 6.835 6.375 6.035
1041.648 5.845 5.855 5.885 5.935 5.895 5.835 5.715 5.465 5.215 4.985
1080.227 4.605 4.045 3.705 3.505 3.195 2.835 2.415 2.265 2.165 1.865
1118.807 1.705 1.835 1.915 1.835 1.815 1.745 1.675 1.575 1.505 1.515
1157.387 1.485 1.515 1.625 1.675 1.555 1.455 1.375 1.325 1.355 1.305
1195.966 1.355 1.475 1.705 2.045 2.545 3.305 4.385 5.725 7.435 9.995
1234.546 13.805 19.695 28.455 40.965 56.525 72.265 86.625 102.895 114.355 112.425
1273.125 99.075 80.575 62.865 44.455 27.625 15.895 9.325 6.205 4.705 3.865
1311.705 3.335 3.035 2.855 2.745 2.695 2.695 2.715 2.775 2.805 2.785
1350.284 2.785 2.905 3.165 3.495 3.865 4.315 4.945 5.805 6.835 8.115
1388.864 9.715 11.435 13.095 14.565 15.555 15.955 15.805 14.495 12.765 11.215
1427.443 9.345 7.415 5.775 4.615 3.885 3.435 3.125 2.955 2.915 2.885
1466.023 2.915 2.975 3.015 3.065 3.125 3.155 3.125 3.005 2.875 2.775
1504.603 2.625 2.525 2.505 2.415 2.315 2.245 2.185 2.095 2.035 1.985
1543.182 1.935 1.915 1.885 1.835 1.755 1.735 1.745 1.685 1.605 1.565
1581.762 1.485 1.335 1.225 1.0808 0.8941 0.7772 0.7291 0.6472 0.6084 0.5951
1620.341 0.5633 0.5776 0.6414 0.684 0.6849 0.6685 0.6467 0.6157 0.5481 0.4392
1658.921 0.3329 0.26986 0.2258 0.1747 0.133 0.138 0.1007 0.082 0.092 0.09
1697.500 0.139 0.1701 0.2069 0.2554 0.3171 0.3905 0.4444 0.4739 0.5216 0.5888
1736.080 0.6047 0.5609 0.5062 0.4473 0.3476 0.28809 0.22799 0.1494 0.1071 0.1129
1774.659 0.1288 0.1049 0.1125 0.1561 0.1458 0.1308 0.1414 0.1686 0.19102 0.1837
1813.239 0.18822 0.194722 0.172 0.1375 0.1418 0.1258 0.1174 0.152 0.1684 0.1267
1851.819 0.1098 0.1195 0.159 0.1835 0.1749 0.19067 0.19286 0.18965 0.199041 0.2067
1890.398 0.23327 0.2952 0.368 0.4472 0.527 0.6171 0.7551 0.9278 1.1435 1.445
1928.978 1.785 2.175 2.625 3.005 3.305 3.535 3.565 3.345 2.955 2.535
1967.557 2.105 1.685 1.355 1.1046 0.9399 0.8789 0.81 0.7679 0.7439 0.7158
2006.137 0.7189 0.7613 0.7821 0.7691 0.7599 0.7944 0.8252 0.8207 0.8517 0.8944
2044.716 1.0074 1.1889 1.365 1.545 1.755 1.955 2.215 2.345 2.185 2.045
2083.296 1.905 1.685 1.495 1.345 1.265 1.235 1.1805 1.1363 1.0685 1.0161
2121.875 0.9455 0.8782 0.8427 0.8167 0.7996 0.7853 0.7987 0.7865 0.772 0.7867
2160.455 0.8119 0.7846 0.738 0.7066 0.659 0.6145 0.5484 0.4999 0.4895 0.481
2199.035 0.4707 0.4821 0.4983 0.4707 0.4859 0.5278 0.5407 0.5318 0.4947 0.4707
2237.614 0.4589 0.41 0.3754 0.3543 0.327 0.3315 0.3052 0.29183 0.3008 0.28658
2276.194 0.26613 0.23317 0.21694 0.20592 0.21475 0.22174 0.21475 0.23493 0.21529 0.1765
2314.773 0.1578 0.171 0.19255 0.18709 0.1533 0.1495 0.197767 0.1798 0.1439 0.1436
2353.353 0.1451 0.1352 0.1369 0.1332 0.1281 0.1277 0.1448 0.1163 0.064 0.076
2391.932 0.0984 0.1112 0.0965 0.1217 0.1231 0.094 0.1019 0.086 0.1062 0.1268
2430.512 0.1135 0.1054 0.091 0.1065 0.1024 0.051 0.04 0.06 0.071 0.077
2469.092 0.103 0.1327 0.1385 0.1339 0.1459 0.1781 0.22405 0.26628 0.323 0.3873
2507.671 0.3928 0.3898 0.4245 0.4546 0.4361 0.374 0.25924 0.1708 0.1444 0.1027
2546.251 0.065 0.07 0.052 0.034 0.018 0.02 0.03 0 0.024 0.045
2584.830 0.05 0.054 0.052 0.036 0.015 0.053 0.058 0.03 0.024 0.052
2623.410 0.068 0.09 0.1535 0.1702 0.1723 0.20609 0.22156 0.22371 0.27266 0.3484
2661.989 0.3374 0.3476 0.3798 0.3442 0.3241 0.28962 0.2696 0.23938 0.203465 0.1817
2700.569 0.1665 0.1695 0.1787 0.20574 0.24687 0.2936 0.3289 0.374 0.4354 0.4954
2739.148 0.531 0.6151 0.6892 0.6914 0.7408 0.7465 0.7089 0.7691 0.8471 0.872
2777.728 0.9532 1.1262 1.315 1.455 1.575 1.705 1.805 1.815 1.765 1.725
2816.308 1.695 1.575 1.465 1.375 1.315 1.315 1.305 1.315 1.355 1.405
2854.887 1.425 1.455 1.535 1.575 1.555 1.685 1.865 2.015 2.285 2.625
2893.467 3.085 3.615 4.135 4.675 5.125 5.305 5.225 4.945 4.505 3.975
2932.046 3.525 3.165 2.985 3.055 3.425 4.435 6.155 8.825 12.535 16.695
2970.626 20.555 24.105 26.545 26.275 25.315 23.025 18.005 13.275 9.745 6.915
3009.205 4.785 3.355 2.495 1.955 1.725 1.675 1.585 1.565 1.685 1.815
3047.785 1.885 2.005 2.125 2.215 2.345 2.465 2.485 2.475 2.435 2.465
3086.364 2.525 2.565 2.635 2.705 2.715 2.635 2.555 2.385 2.295 2.285
3124.944 2.185 2.205 2.255 2.235 2.285 2.365 2.325 2.155 1.905 1.605
3163.524 1.325 1.0725 0.859 0.712 0.5643 0.5494 0.618 0.7551 0.9659 1.0913
3202.103 1.235 1.405 1.375 1.355 1.495 1.425 1.1826 1.0713 0.9377 0.7799
3240.683 0.616 0.544 0.5016 0.3869 0.3131 0.23782 0.21314 0.20561 0.195865 0.2971
3279.262 0.3002 0.20428 0.168 0.082 0.088 0.1452 0.1804 0.1294 0.1052 0.1455
3317.842 0.201855 0.24906 0.21886 0.1259 0.1303 0.25544 0.25608 0.194733 0.1016 0.091
3356.421 0.1688 0.18549 0.20891 0.1832 0.19273 0.24164 0.19084 0.1844 0.204361 0.22895
3395.001 0.18612 0.1578 0.1688 0.1613 0.200883 0.176 0.091 0.103 0.1529 0.1223
3433.580 0.128 0.24777 0.3537 0.3156 0.29323 0.3713 0.336 0.26732 0.1821 0.19977
3472.160 0.3043 0.3551 0.3459 0.25392 0.3432 0.3889 0.321 0.22774 0.1441 0.1089
3510.740 0.1732 0.28372 0.28478 0.3681 0.3822 0.374 0.4376 0.3816 0.3658 0.3137
3549.319 0.28578 0.3902 0.3682 0.3335 0.4263 0.5314 0.5564 0.6606 0.7197 0.676
3587.899 0.779 0.8983 0.9394 0.9279 0.9389 0.9699 0.9212 0.9504 1.0123 0.9427
3626.478 0.8495 0.874 0.9424 1.0314 1.1031 1.158 1.265 1.385 1.445 1.495
3665.058 1.565 1.555 1.545 1.535 1.545 1.475 1.405 1.475 1.545 1.585
3703.637 1.675 1.755 1.735 1.815 2.005 2.125 2.215 2.185 2.135 2.065
3742.217 2.025 2.075 2.175 2.135 2.005 1.965 1.895 1.835 1.865 1.855
3780.797 1.705 1.625 1.665 1.485 1.295 1.225 1.1606 1.1412 1.1301 1.061
3819.376 1.0138 0.9715 1.0473 1.1077 0.9599 0.9007 0.851 0.6981 0.5136 0.4324
3857.956 0.4219 0.3928 0.3546 0.3928 0.4151 0.3764 0.3584 0.3723 0.4001 0.3209
3896.535 0.334 0.3148 0.3193 0.3916 0.3424 0.27576 0.26429 0.28251 0.3161 0.351
3935.115 0.26491 0.28301 0.2968 0.2644 0.258 0.21773 0.24841 0.27718 0.29062 0.3588
3973.694 0.3479 0.23555 0.155 0.1369 0.1836 0.1608 0.1312 0.1751
##END=
