##TITLE=Dalapon-acid
##JCAMP-DX=4.24
##DATA TYPE=INFRARED SPECTRUM
##ORIGIN=NIST Mass Spectrometry Data Center
##OWNER=NIST Standard Reference Data Program
Collection (C) 2018 copyright by the U.S. Secretary of Commerce
on behalf of the United States of America. All rights reserved.
##CAS REGISTRY NO=75-99-0
##MOLFORM=C 3 H 4 Cl 2 O 2
##$NIST SOURCE=MSDC-IR
##SPECTROMETER/DATA SYSTEM=HP-GC/MS/IRD
##STATE=gas
##XUNITS=1/CM
##YUNITS=ABSORBANCE
##XFACTOR=1.0
##YFACTOR=0.000001100
##DELTAX=4.0
##FIRSTX=550.0
##LASTX=3846.0
##FIRSTY=0.002473
##MAXX=3846
##MINX=550
##MAXY=0.011
##MINY=0
##NPOINTS=825
##XYDATA=(X++(Y..Y))
550.0 2248 2058 1902 1803 1801 1834 1774 1719 1686 1611
590.0 1511 1411 1339 1256 1178 1182 1165 1141 1227 1302
630.0 1462 1776 2105 2614 3215 3556 3865 4400 4569 4535
670.0 4648 4462 3999 3569 3082 2640 2353 2138 1991 1820
710.0 1694 1602 1439 1204 1010 813 643 644 594 506
750.0 584 650 658 657 646 737 909 1079 1166 1231
790.0 1361 1368 1207 1063 861 691 609 565 616 591
830.0 490 479 514 488 433 392 381 423 414 344
870.0 253 166 113 46 0 46 94 101 146 148
910.0 112 138 165 206 270 305 355 380 304 209
950.0 259 278 245 256 281 308 307 292 308 306
990.0 294 301 315 406 490 455 429 525 700 855
1030.0 967 1126 1296 1571 2050 2650 3348 4180 5007 5910
1070.0 6700 7192 7348 7106 6650 6276 6014 5692 5442 5351
1110.0 5293 5161 4960 4659 4223 3726 3262 2974 2748 2650
1150.0 2666 2838 3156 3498 3799 3874 3840 3693 3481 3248
1190.0 2903 2589 2406 2335 2271 2113 2033 1927 1777 1585
1230.0 1428 1356 1200 977 906 893 802 771 742 731
1270.0 735 669 642 696 782 864 1013 1234 1522 1892
1310.0 2318 2775 3239 3636 3791 3676 3402 3031 2571 2115
1350.0 1768 1526 1423 1378 1381 1449 1526 1558 1663 1798
1390.0 1586 1363 1257 1005 751 623 553 486 467 484
1430.0 525 620 726 783 822 848 810 708 586 470
1470.0 385 309 244 214 212 225 239 232 228 244
1510.0 213 190 213 224 213 207 209 202 186 190
1550.0 200 197 226 196 168 200 213 216 197 216
1590.0 253 282 295 291 295 298 313 288 237 203
1630.0 153 121 96 72 80 111 94 60 56 59
1670.0 59 40 41 56 64 58 97 140 152 181
1710.0 213 252 322 407 521 656 829 1046 1288 1627
1750.0 2107 2762 3649 4824 6174 7418 8610 9972 10000 9243
1790.0 9263 8839 8196 7563 7017 6449 5346 4244 3388 2694
1830.0 2131 1665 1289 994 757 570 445 361 299 259
1870.0 222 179 159 141 110 86 82 72 85 107
1910.0 99 98 83 59 59 54 18 6 20 37
1950.0 41 11 20 63 55 47 40 43 53 50
1990.0 59 56 61 75 68 67 69 61 70 86
2030.0 70 63 79 92 104 128 128 104 112 160
2070.0 203 218 243 301 348 386 439 524 637 732
2110.0 824 914 982 1015 1055 1097 1065 995 931 908
2150.0 1007 1143 1297 1406 1375 1269 1074 861 685 532
2190.0 432 388 352 309 287 266 237 226 194 135
2230.0 122 97 81 114 104 100 94 77 68 78
2270.0 93 94 101 119 157 194 201 231 276 311
2310.0 360 398 427 455 481 511 525 497 467 411
2350.0 389 501 618 650 653 590 473 356 238 155
2390.0 110 110 95 76 95 67 18 32 94 120
2430.0 121 133 112 95 92 91 105 116 109 115
2470.0 104 72 76 109 110 87 63 67 93 103
2510.0 110 119 110 73 74 101 69 25 29 81
2550.0 96 83 77 61 47 56 58 18 25 42
2590.0 35 42 48 45 43 58 35 3 19 37
2630.0 43 41 52 98 47 2 61 68 56 40
2670.0 26 40 44 28 20 31 29 54 69 47
2710.0 60 65 54 33 19 11 31 40 27 51
2750.0 64 54 53 49 86 101 81 67 30 4
2790.0 33 53 41 29 34 77 104 101 90 84
2830.0 85 98 90 67 81 81 105 130 119 134
2870.0 150 154 139 111 118 123 99 108 113 117
2910.0 107 99 139 158 131 144 170 221 248 246
2950.0 277 256 185 153 193 205 186 195 206 193
2990.0 242 302 303 384 441 449 449 402 383 310
3030.0 220 173 157 170 178 186 165 120 127 164
3070.0 182 175 153 102 88 110 91 85 35 4
3110.0 35 34 21 35 43 63 82 26 25 77
3150.0 47 33 32 31 44 74 47 8 27 32
3190.0 74 71 32 33 56 102 99 104 72 30
3230.0 20 29 79 76 77 64 35 64 118 134
3270.0 122 122 67 5 38 79 99 81 70 79
3310.0 64 99 122 67 25 44 56 87 49 58
3350.0 88 57 66 51 72 81 65 80 95 58
3390.0 47 60 63 55 10 20 61 116 136 83
3430.0 120 127 104 106 77 109 109 108 126 118
3470.0 118 142 175 175 178 211 213 276 334 315
3510.0 302 324 365 422 531 628 720 787 881 989
3550.0 1128 1285 1615 2332 3203 3992 4668 5048 4985 4542
3590.0 3730 2850 1928 1079 590 398 359 326 254 246
3630.0 243 230 224 217 202 192 201 238 256 207
3670.0 231 272 215 202 226 186 182 152 167 228
3710.0 221 172 170 159 112 154 166 147 230 254
3750.0 230 176 155 226 208 216 237 185 146 104
3790.0 128 156 229 283 236 211 190 175 164 148
3830.0 190 323 324 220 235
##END=
