##TITLE=p-Hexadecyloxyaniline
##JCAMP-DX=4.24
##DATA TYPE=INFRARED SPECTRUM
##ORIGIN=EPA-IR VAPOR PHASE LIBRARY
##OWNER=SRD/NIST
Collection (C) 2018 copyright by the U.S. Secretary of Commerce
on behalf of the United States of America. All rights reserved.
##CAS REGISTRY NO=7502-06-9
##MOLFORM=C 22 H 39 N O
##$NIST SOURCE=MSDC-IR
##STATE=gas
##XUNITS=1/CM
##YUNITS=ABSORBANCE
##XFACTOR=1.
##YFACTOR=0.001
##DELTAX=1.92898
##FIRSTX=549.8
##LASTX=4000.7
##FIRSTY=6.6
##MAXX=4000.7
##MINX=549.759
##MAXY=0.25519
##MINY=0.0001291
##NPOINTS=1790
##XYDATA=(X++(Y..Y))
549.759 6.6 6.3 5.8 5.97 6.34 5.97 5.9 6.21 5.94 5.5
569.049 5.36 5.4 5.29 5.21 5.2 5.04 4.99 5 5.11 5.12
588.339 5.06 5.16 5.29 5.41 5.32 5.39 5.46 5.51 5.58 5.72
607.628 5.87 5.85 5.9 6.21 6.5 6.82 7.13 7.04 7.2 7.56
626.918 7.98 8.45 8.92 9.49 9.98 10.62 11.59 12.48 13.34 14.31
646.208 15.22 16.13 16.87 17.27 17.24 16.86 16.3 15.59 14.93 14.06
665.498 13.29 12.9 12.38 11.98 11.81 11.7 11.56 11.45 11.42 11.51
684.787 11.8 11.93 11.93 11.79 11.72 11.84 11.89 12.03 12.21 12.32
704.077 12.62 12.9 13.06 13.31 13.58 13.6 13.64 13.83 13.58 13.23
723.367 13.04 12.81 12.47 12.21 12.03 11.57 11.08 10.7 10.41 10.07
742.657 9.82 9.65 9.34 9.13 8.94 8.79 8.62 8.44 8.23 7.97
761.947 7.97 7.95 7.7 7.5 7.25 7.04 7.01 6.91 6.8 6.9
781.236 7.03 7.05 7.16 7.52 8 8.35 8.66 8.92 9.25 9.82
800.526 10.58 11.49 12.59 13.91 15.74 17.75 19.79 21.82 23.27 24.08
819.816 23.89 22.73 21.19 19.59 17.84 16.18 14.91 13.7 12.46 11.44
839.106 10.64 10.07 9.39 8.66 8.26 7.81 7.31 7 6.63 6.24
858.395 5.92 5.88 5.72 5.43 5.29 5.04 4.77 4.88 4.89 4.58
877.685 4.41 4.35 4.36 4.4 4.52 4.47 4.42 4.45 4.44 4.42
896.975 4.38 4.4 4.35 4.31 4.44 4.49 4.39 4.32 4.4 4.44
916.265 4.55 4.64 4.56 4.56 4.49 4.49 4.52 4.51 4.53 4.53
935.555 4.53 4.65 4.75 4.7 4.77 4.85 4.94 4.9 4.85 5.09
954.844 5.15 5.28 5.63 5.7 5.82 6.08 6.28 6.45 6.57 6.85
974.134 7.15 7.13 7.08 7.41 7.67 7.89 8.24 8.35 8.38 8.49
993.424 8.77 9.29 9.92 10.23 10.59 11.22 11.99 12.79 13.59 14.38
1012.714 15.03 15.66 16.34 16.71 17.06 17.57 17.93 18.34 18.92 19.4
1032.003 19.61 19.73 20 20.38 20.34 20.25 20.05 19.79 19.45 18.84
1051.293 18.36 17.66 16.93 16.29 15.75 15.3 14.89 14.49 13.92 13.22
1070.583 12.77 12.61 12.47 12.22 11.89 11.32 10.7 10.42 9.84 9.24
1089.873 8.84 8.56 8.15 7.81 7.54 6.96 6.7 6.55 6.22 6.43
1109.163 6.88 6.66 6.35 6.68 6.96 6.98 7.34 7.51 6.98 6.63
1128.452 6.56 6.14 5.43 5.05 4.68 4.55 4.62 4.27 4.11 4.04
1147.742 3.84 3.67 3.74 4.1 4.61 5.1 6.12 7.22 7.97 8.88
1167.032 9.43 9.21 8.74 8.14 7.42 7.1 7.16 7.34 7.87 8.62
1186.322 9.24 10.45 11.89 13.26 14.98 17.1 18.99 20.96 22.82 24.68
1205.611 27.09 29.64 32.76 36.04 40.23 45.59 51.11 57.08 63.47 70.53
1224.901 78.06 85.96 94.18 101.9 108.33 112.13 112.64 108.94 100.77 89.62
1244.191 77.52 66.68 57.72 50.58 45.36 41.62 38.91 36.79 34.64 32.48
1263.481 30.14 27.44 24.65 22.06 19.98 18.43 17.35 16.58 16 15.7
1282.771 15.43 15.15 14.97 14.75 14.54 14.33 14.01 13.77 13.56 13.22
1302.060 12.88 12.43 11.94 11.5 11.02 10.51 10.08 9.74 9.48 9.29
1321.350 9.06 8.86 8.65 8.36 8.12 7.92 7.75 7.71 7.81 7.9
1340.640 8.05 8.23 8.46 8.68 8.86 9.09 9.18 9.13 8.98 8.77
1359.930 8.57 8.38 8.27 8.23 8.27 8.35 8.51 8.77 9.23 9.97
1379.219 10.82 11.7 12.4 12.66 12.4 11.69 10.74 9.65 8.57 7.64
1398.509 6.89 6.25 5.77 5.52 5.36 5.27 5.19 5.15 5.22 5.32
1417.799 5.44 5.53 5.68 5.88 6.13 6.52 7.01 7.53 8.14 8.87
1437.089 9.68 10.52 11.47 12.5 13.58 14.74 15.99 17.26 18.57 19.91
1456.378 21.18 22.37 23.29 24 24.54 25.08 25.81 26.62 27.3 27.36
1475.668 26.54 24.86 22.75 20.72 19.26 18.63 18.99 20.48 23.18 27.27
1494.958 33.32 41.93 53.6 69.02 88.37 110.59 133.69 151.92 158.71 151.14
1514.248 131.02 104.65 79.41 59.88 45.39 35.34 28.01 22.51 18.33 15.1
1533.538 12.59 10.69 9.25 8.03 7.09 6.39 5.88 5.48 5.14 4.86
1552.827 4.64 4.47 4.31 4.18 4.07 3.92 3.84 3.86 3.85 3.82
1572.117 3.86 3.93 4.04 4.22 4.37 4.55 4.82 5.03 5.24 5.53
1591.407 5.77 6.01 6.33 6.74 7.33 8.06 9.02 10.38 11.93 13.52
1610.697 15.02 16.12 16.8 17.05 17.01 16.85 16.56 16.12 15.41 14.37
1629.986 13.14 11.87 10.49 9.12 8.02 7.08 6.22 5.5 4.91 4.45
1649.276 4.06 3.73 3.38 3.19 2.99 2.76 2.62 2.48 2.37 2.28
1668.566 2.17 2.04 1.93 1.83 1.76 1.75 1.69 1.63 1.57 1.54
1687.856 1.56 1.55 1.54 1.52 1.54 1.52 1.47 1.41 1.41 1.51
1707.146 1.54 1.58 1.62 1.67 1.72 1.71 1.69 1.77 1.83 1.76
1726.435 1.69 1.7 1.72 1.66 1.57 1.5 1.46 1.44 1.41 1.4
1745.725 1.38 1.35 1.35 1.3 1.23 1.21 1.18 1.16 1.14 1.16
1765.015 1.2 1.19 1.17 1.15 1.17 1.16 1.12 1.15 1.18 1.17
1784.305 1.16 1.15 1.19 1.21 1.22 1.24 1.24 1.32 1.37 1.4
1803.594 1.43 1.44 1.46 1.5 1.51 1.52 1.57 1.62 1.65 1.67
1822.884 1.69 1.74 1.75 1.77 1.88 1.91 1.92 1.98 2.03 2.08
1842.174 2.11 2.12 2.09 2.07 2.06 2.03 1.99 1.95 1.94 1.88
1861.464 1.75 1.65 1.61 1.58 1.51 1.45 1.4 1.37 1.32 1.25
1880.754 1.23 1.17 1.1 1.08 1.1 1.06 1.07 1.14 1.1 1.1
1900.043 1.15 1.19 1.14 1.14 1.15 1.16 1.23 1.26 1.24 1.25
1919.333 1.27 1.25 1.26 1.23 1.28 1.33 1.31 1.31 1.27 1.28
1938.623 1.29 1.29 1.32 1.32 1.31 1.28 1.3 1.41 1.41 1.35
1957.913 1.37 1.36 1.38 1.41 1.42 1.45 1.45 1.46 1.47 1.46
1977.202 1.49 1.46 1.45 1.49 1.49 1.49 1.52 1.52 1.46 1.43
1996.492 1.47 1.54 1.53 1.52 1.56 1.57 1.58 1.58 1.55 1.51
2015.782 1.55 1.61 1.56 1.52 1.56 1.58 1.55 1.59 1.62 1.59
2035.072 1.58 1.6 1.61 1.59 1.59 1.62 1.59 1.51 1.5 1.53
2054.362 1.53 1.56 1.54 1.54 1.56 1.55 1.54 1.52 1.54 1.57
2073.651 1.53 1.45 1.44 1.43 1.37 1.35 1.37 1.32 1.29 1.24
2092.941 1.18 1.18 1.16 1.15 1.11 1.07 0.9991 0.9543 0.9798 0.9658
2112.231 0.9576 0.9247 0.8691 0.8483 0.8163 0.8141 0.8146 0.8161 0.8161 0.8189
2131.521 0.8113 0.7706 0.7722 0.7733 0.7664 0.8008 0.8272 0.7862 0.7703 0.7817
2150.810 0.7354 0.7528 0.8014 0.7969 0.7619 0.7159 0.7071 0.7122 0.7647 0.773
2170.100 0.7341 0.7323 0.7542 0.7539 0.7252 0.6948 0.6986 0.6895 0.6821 0.7067
2189.390 0.6941 0.6941 0.6968 0.6762 0.6915 0.7236 0.7329 0.7095 0.6846 0.6898
2208.680 0.6681 0.6515 0.667 0.6603 0.6675 0.6897 0.6738 0.671 0.6798 0.7121
2227.970 0.7332 0.7174 0.6989 0.7175 0.7507 0.7715 0.8156 0.8354 0.8447 0.9123
2247.259 0.9054 0.8391 0.823 0.8217 0.8616 0.8514 0.7924 0.8029 0.8492 0.8518
2266.549 0.866 0.9076 0.8743 0.8673 0.8961 0.9024 0.9032 0.9167 0.9259 0.9252
2285.839 0.9308 0.9351 0.9435 0.9328 0.958 0.9926 0.9592 0.9452 0.9709 0.9227
2305.129 0.929 0.9932 1.07 1.07 0.9846 1.05 1.11 1.08 1.11 1.11
2324.418 1.08 1.12 1.15 1.13 1.13 1.16 1.16 1.17 1.19 1.2
2343.708 1.2 1.23 1.23 1.18 1.16 1.16 1.16 1.15 1.09 1.06
2362.998 1.07 1.01 0.9314 0.9657 1.02 1.05 1.01 0.9063 0.8551 0.8948
2382.288 0.9513 0.939 0.9368 0.974 0.9331 0.9086 0.9837 1.01 0.9929 0.9561
2401.578 0.969 0.9788 0.9289 0.9325 0.9471 0.965 0.9739 0.9557 0.9455 0.9563
2420.867 0.9558 0.9175 0.8795 0.8519 0.8678 0.9201 0.9408 0.9364 1.02 1.07
2440.157 1.02 1.04 1.09 1.09 1.07 1.1 1.13 1.09 1.09 1.17
2459.447 1.21 1.18 1.17 1.18 1.14 1.14 1.16 1.13 1.12 1.07
2478.737 1.04 1.02 1.01 1.03 1.06 1.06 1.06 1.13 1.14 1.07
2498.026 1.03 1.05 1.08 1.11 1.19 1.21 1.27 1.36 1.33 1.3
2517.316 1.31 1.36 1.39 1.38 1.34 1.37 1.36 1.29 1.35 1.39
2536.606 1.31 1.22 1.25 1.25 1.24 1.23 1.16 1.18 1.2 1.15
2555.896 1.15 1.2 1.22 1.2 1.18 1.18 1.2 1.33 1.36 1.33
2575.186 1.35 1.3 1.26 1.34 1.41 1.43 1.46 1.4 1.43 1.55
2594.475 1.56 1.59 1.56 1.5 1.52 1.59 1.63 1.62 1.67 1.65
2613.765 1.62 1.64 1.68 1.74 1.78 1.78 1.8 1.83 1.84 1.9
2633.055 1.94 1.96 1.96 1.96 1.99 2.02 2.04 2.13 2.16 2.15
2652.345 2.25 2.32 2.37 2.41 2.46 2.48 2.46 2.5 2.54 2.61
2671.634 2.76 2.82 2.84 2.86 2.87 2.88 2.9 2.88 2.9 2.97
2690.924 2.94 2.87 2.85 2.86 2.79 2.78 2.74 2.67 2.67 2.71
2710.214 2.74 2.69 2.65 2.64 2.68 2.73 2.79 2.91 2.97 3.02
2729.504 3.1 3.13 3.18 3.24 3.36 3.47 3.53 3.57 3.52 3.54
2748.794 3.63 3.68 3.67 3.66 3.67 3.71 3.73 3.74 3.81 3.79
2768.083 3.78 3.88 3.98 4.02 4.02 4.05 4.18 4.37 4.52 4.68
2787.373 4.83 4.89 5.13 5.44 5.61 5.81 6.01 6.21 6.46 6.74
2806.663 6.99 7.33 7.81 8.24 8.58 8.99 9.43 9.96 10.6 11.2
2825.953 11.9 12.64 13.42 14.37 15.5 16.89 18.51 20.52 23.03 26.1
2845.242 29.99 34.8 40.87 48.58 57.8 68.37 79.4 89.18 96.12 98.98
2864.532 97.88 93.84 87.9 81.36 75.07 69.45 64.72 60.99 58.17 56.03
2883.822 54.27 52.8 51.76 51.29 51.51 52.58 54.52 57.38 61.15 65.77
2903.112 71.11 77.08 83.62 90.46 97.71 105.69 114.73 125.49 138.62 154.49
2922.401 173.27 194.3 215.93 235.39 249.27 255.19 252.35 242.1 226.74 208.46
2941.691 189.15 170.11 152.15 135.68 120.99 108.26 97.53 88.74 81.73 76.26
2960.981 72.07 68.59 65.42 62.08 58.06 53.38 47.98 42.36 37.15 32.51
2980.271 28.71 25.6 22.96 20.81 19.07 17.64 16.59 15.74 15.1 14.69
2999.561 14.4 14.28 14.24 14.22 14.32 14.3 14.17 14.05 13.82 13.49
3018.850 13.16 12.92 12.88 12.97 13.29 13.67 14.12 14.84 15.68 16.45
3038.140 16.77 16.6 15.9 14.58 12.83 11.17 9.79 8.66 7.77 7.14
3057.430 6.77 6.6 6.51 6.4 6.29 6.23 6.12 5.93 5.84 5.64
3076.720 5.47 5.24 4.88 4.76 4.6 4.43 4.31 4.16 3.96 3.9
3096.009 3.88 3.79 3.72 3.67 3.6 3.43 3.35 3.36 3.22 3.06
3115.299 2.96 2.8 2.64 2.6 2.52 2.38 2.24 2.06 1.95 1.93
3134.589 1.94 1.9 1.71 1.56 1.57 1.52 1.42 1.32 1.29 1.32
3153.879 1.31 1.21 1.2 1.28 1.25 1.21 1.21 1.15 1.07 1.03
3173.169 1.13 1.21 1.14 1.11 1.06 0.9528 0.9091 0.9041 0.9086 0.8504
3192.458 0.865 0.9634 0.9758 0.9685 0.9463 0.9373 0.9542 0.9243 1.01 1.04
3211.748 0.8939 0.8606 0.9342 0.8863 0.831 0.8825 0.897 0.9116 0.8757 0.8216
3231.038 0.7959 0.8048 0.8626 0.7079 0.6082 0.6581 0.6796 0.7131 0.7031 0.7036
3250.328 0.7049 0.6639 0.6503 0.6518 0.6282 0.685 0.7169 0.6728 0.6766 0.7618
3269.617 0.7614 0.6973 0.658 0.6606 0.6341 0.5705 0.563 0.5414 0.4806 0.4261
3288.907 0.4623 0.4558 0.3845 0.3755 0.3848 0.4234 0.3955 0.3551 0.3573 0.2984
3308.197 0.3306 0.3945 0.3807 0.3113 0.2889 0.3387 0.399 0.3879 0.4666 0.4257
3327.487 0.3079 0.3274 0.3314 0.3423 0.347 0.4179 0.3253 0.299 0.3638 0.4092
3346.777 0.5238 0.4907 0.4224 0.3723 0.3393 0.4061 0.4061 0.3687 0.3838 0.5002
3366.066 0.5733 0.5987 0.6916 0.7538 0.8527 0.8942 0.9216 1.07 1.25 1.37
3385.356 1.48 1.59 1.71 2.03 2.38 2.63 2.8 3.06 3.25 3.25
3404.646 3.14 2.79 2.41 1.97 1.6 1.4 1.22 1.14 1.18 1.07
3423.936 0.9905 1.07 1.03 0.9876 0.9887 0.8584 0.8316 0.9586 1.02 1.03
3443.225 1.04 1.13 1.12 1.08 1.18 1.2 1.18 1.26 1.3 1.39
3462.515 1.58 1.63 1.79 1.96 2.05 2.13 2.16 2.23 2.29 2.33
3481.805 2.29 2.22 2.12 2.03 2.05 1.88 1.71 1.55 1.31 1.13
3501.095 1.11 1.03 0.7787 0.7007 0.6485 0.6295 0.6377 0.6134 0.6239 0.5676
3520.385 0.5827 0.5432 0.4107 0.3482 0.2783 0.3138 0.3462 0.2582 0.2917 0.3349
3539.674 0.2511 0.264 0.2664 0.2883 0.384 0.4775 0.4296 0.2908 0.1764 0.2665
3558.964 0.3817 0.291 0.1821 0.2599 0.274 0.185 0.2331 0.2352 0.1591 0.1291
3578.254 0.1643 0.1422 0.2111 0.2861 0.2563 0.266 0.2441 0.2922 0.3797 0.3669
3597.544 0.3613 0.3259 0.2903 0.3208 0.4384 0.4134 0.3034 0.3197 0.4339 0.5188
3616.833 0.4644 0.4049 0.3942 0.4572 0.4732 0.427 0.4252 0.4175 0.4215 0.4054
3636.123 0.4151 0.4793 0.5315 0.6117 0.6415 0.5291 0.5092 0.5239 0.472 0.5366
3655.413 0.6137 0.5577 0.4605 0.5064 0.5326 0.5274 0.4593 0.4243 0.4261 0.4853
3674.703 0.5239 0.484 0.4599 0.4762 0.5754 0.5479 0.503 0.4912 0.3684 0.3016
3693.993 0.3662 0.3652 0.3378 0.5064 0.5541 0.4343 0.4978 0.5114 0.4395 0.4559
3713.282 0.3659 0.3471 0.4314 0.4796 0.4994 0.515 0.513 0.492 0.4831 0.4519
3732.572 0.557 0.5885 0.4935 0.47 0.4512 0.4722 0.5078 0.3984 0.4072 0.4891
3751.862 0.4897 0.5128 0.5672 0.5442 0.4909 0.5578 0.5068 0.4435 0.4798 0.4188
3771.152 0.3204 0.3513 0.3853 0.42 0.5079 0.5419 0.5221 0.511 0.526 0.5704
3790.441 0.6577 0.6451 0.6493 0.5068 0.3939 0.4743 0.5282 0.5622 0.5539 0.5727
3809.731 0.5118 0.4935 0.5316 0.4451 0.4577 0.5239 0.5981 0.5142 0.4704 0.6309
3829.021 0.6503 0.5668 0.4867 0.4402 0.6058 0.5838 0.4884 0.5676 0.456 0.3738
3848.311 0.5017 0.6457 0.6238 0.5515 0.5811 0.6637 0.7598 0.7139 0.5747 0.4839
3867.601 0.4739 0.5807 0.6238 0.4803 0.4596 0.6895 0.8377 0.7543 0.6985 0.8174
3886.890 0.8461 0.8692 0.7332 0.708 0.8206 0.8817 0.8194 0.7909 0.8961 0.8868
3906.180 0.8513 0.6609 0.5617 0.7031 0.7307 0.672 0.7071 0.6899 0.5955 0.6667
3925.470 0.8371 0.8433 0.738 0.6421 0.6228 0.7122 0.7134 0.7556 0.83 0.7655
3944.760 0.7711 0.7694 0.659 0.6263 0.6989 0.6145 0.6154 0.7265 0.7328 0.7931
3964.049 0.7969 0.6667 0.6747 0.7349 0.7454 0.6683 0.7189 0.8639 0.7241 0.7084
3983.339 0.7858 0.7875 0.8678 0.847 0.826 0.8226 0.8025 0.9388 0.9691 0.7927
##END=
