##TITLE=trans-2-Undecen-1-ol
##JCAMP-DX=4.24
##DATA TYPE=INFRARED SPECTRUM
##ORIGIN=EPA-IR VAPOR PHASE LIBRARY
##OWNER=SRD/NIST
Collection (C) 2018 copyright by the U.S. Secretary of Commerce
on behalf of the United States of America. All rights reserved.
##CAS REGISTRY NO=75039-84-8
##MOLFORM=C 11 H 22 O
##$NIST SOURCE=MSDC-IR
##STATE=gas
##XUNITS=1/CM
##YUNITS=ABSORBANCE
##XFACTOR=1.
##YFACTOR=0.001
##DELTAX=1.92934
##FIRSTX=549.9
##LASTX=3999.5
##FIRSTY=1.009
##MAXX=3999.53
##MINX=549.863
##MAXY=0.06561
##MINY=0
##NPOINTS=1789
##XYDATA=(X++(Y..Y))
549.863 1.009 1.0684 0.9058 0.9267 0.8691 0.8643 0.7311 0.7733 1.0663 0.8742
569.156 0.7654 0.9736 0.8819 0.7748 0.6187 0.5562 0.7113 0.6934 0.5765 0.6519
588.450 0.6274 0.6171 0.8529 0.8162 0.6629 0.5222 0.50068 0.5414 0.5918 0.6918
607.743 0.6963 0.7189 0.5926 0.6532 0.6963 0.48203 0.48295 0.561 0.5887 0.6057
627.037 0.6164 0.5729 0.50909 0.5746 0.5986 0.5385 0.6081 0.6657 0.6532 0.6492
646.330 0.6418 0.5829 0.5549 0.6099 0.6268 0.601 0.539 0.6104 0.7123 0.6345
665.624 0.5332 0.5931 0.6043 0.422781 0.3779 0.428569 0.4032 0.41476 0.5427 0.6548
684.917 0.6504 0.5693 0.574 0.6183 0.6342 0.6828 0.6659 0.6966 0.7648 0.8445
704.210 0.8874 0.9087 1.0321 1.0634 1.0348 1.0854 1.1435 1.2181 1.219 1.2059
723.504 1.2899 1.3856 1.3339 1.1785 1.1827 1.1534 1.1198 1.0244 0.9502 1.0172
742.797 1.0399 1.0202 0.9618 0.9552 0.9162 0.8627 0.8531 0.9077 0.8706 0.8328
762.091 0.8803 0.8907 0.8343 0.8082 0.8294 0.8048 0.8144 0.8179 0.8004 0.8346
781.384 0.8171 0.7627 0.7326 0.6786 0.6591 0.5956 0.5919 0.7051 0.6714 0.6214
800.678 0.6522 0.6757 0.7176 0.7034 0.7585 0.777 0.7153 0.6749 0.6238 0.6171
819.971 0.5929 0.6827 0.7411 0.6688 0.661 0.5521 0.5081 0.6615 0.7456 0.6165
839.264 0.5981 0.7532 0.7354 0.7355 0.7189 0.6848 0.7459 0.8526 0.8369 0.7621
858.558 0.7461 0.7192 0.7866 0.7734 0.7346 0.7872 0.8768 0.9517 1.0192 1.0275
877.851 1.0475 1.1443 1.1841 1.173 1.1883 1.2538 1.3432 1.3015 1.2017 1.2786
897.145 1.46 1.54 1.46 1.52 1.66 1.68 1.72 1.78 1.86 1.94
916.438 2.01 2.09 2.21 2.3 2.33 2.41 2.54 2.72 2.84 2.99
935.732 3.25 3.42 3.62 3.82 4.02 4.33 4.63 4.93 5.37 5.89
955.025 6.48 7.1 7.76 8.55 9.18 9.76 10.43 10.82 10.92 10.85
974.318 10.59 10.28 10.03 9.74 9.5 9.43 9.45 9.58 9.86 10.05
993.612 10.27 10.52 10.71 10.86 10.92 10.98 10.97 10.79 10.48 10.16
1012.905 9.79 9.4 8.96 8.39 7.87 7.45 6.95 6.5 6.19 5.77
1032.199 5.38 5.06 4.74 4.49 4.24 4.11 4.03 3.94 3.87 3.83
1051.492 3.82 3.8 3.8 3.84 3.88 3.82 3.85 3.96 3.96 4.07
1070.786 4.25 4.41 4.54 4.61 4.65 4.69 4.82 4.9 4.92 4.88
1090.079 4.68 4.42 4.18 3.93 3.77 3.54 3.3 3.03 2.78 2.75
1109.372 2.6 2.35 2.31 2.22 2.09 2.08 1.97 1.81 1.8 1.78
1128.666 1.66 1.63 1.57 1.54 1.66 1.55 1.4045 1.57 1.58 1.56
1147.959 1.53 1.3769 1.2663 1.2996 1.48 1.56 1.45 1.43 1.44 1.3381
1167.253 1.2947 1.48 1.62 1.52 1.3932 1.4092 1.48 1.49 1.67 1.73
1186.546 1.69 1.88 1.74 1.64 1.67 1.48 1.68 1.52 1.0551 1.0424
1205.840 1.0715 1.1431 1.1357 1.2946 1.62 1.5 1.3564 1.4035 1.255 1.1574
1225.133 1.3688 1.48 1.49 1.43 1.2291 1.0811 1.187 1.3468 1.44 1.5
1244.426 1.3522 1.308 1.52 1.64 1.6 1.62 1.64 1.73 1.77 1.65
1263.720 1.63 1.65 1.64 1.65 1.62 1.6 1.64 1.81 1.83 1.71
1283.013 1.77 1.9 2 1.97 1.95 2.02 2.03 2.09 2.27 2.41
1302.307 2.45 2.42 2.44 2.51 2.58 2.63 2.64 2.55 2.45 2.47
1321.600 2.53 2.55 2.53 2.58 2.71 2.8 2.81 2.86 3 3.16
1340.894 3.3 3.4 3.53 3.66 3.76 3.9 4.03 4.11 4.14 4.22
1360.187 4.31 4.48 4.65 4.77 5.02 5.22 5.37 5.6 5.85 6.02
1379.480 6.13 6.19 6.09 5.98 5.83 5.5 5.1 4.69 4.36 4.05
1398.774 3.76 3.54 3.27 3.06 2.92 2.71 2.51 2.34 2.3 2.22
1418.067 2.14 2.17 2.1 2 2 2.12 2.24 2.33 2.47 2.66
1437.361 2.89 3.11 3.4 3.68 3.93 4.13 4.3 4.5 4.65 4.82
1456.654 4.98 5.07 5.13 5.1 4.97 4.8 4.53 4.21 3.87 3.48
1475.948 3.1 2.73 2.43 2.09 1.77 1.6 1.49 1.3441 1.2079 1.1527
1495.241 1.095 0.9793 0.885 0.8562 0.8714 0.8162 0.7772 0.7807 0.6719 0.5712
1514.534 0.5637 0.5034 0.45157 0.48898 0.5565 0.50597 0.4052 0.3881 0.3933 0.41049
1533.828 0.3932 0.41257 0.428515 0.3964 0.3735 0.3803 0.45002 0.4026 0.3818 0.4052
1553.121 0.3609 0.3569 0.3815 0.3799 0.296 0.225 0.271 0.277 0.278 0.253
1572.415 0.24 0.239 0.183 0.144 0.192 0.29 0.324 0.3 0.231 0.246
1591.708 0.251 0.247 0.241 0.253 0.261 0.228 0.266 0.247 0.156 0.152
1611.002 0.164 0.219 0.251 0.26 0.332 0.31 0.226 0.217 0.243 0.272
1630.295 0.311 0.313 0.3237 0.388 0.4186 0.4006 0.3765 0.4072 0.5283 0.5743
1649.588 0.5288 0.62 0.733 0.8037 0.9103 0.9763 1.0019 1.0986 1.2024 1.1827
1668.882 1.1528 1.0896 0.9934 0.8652 0.707 0.5682 0.5295 0.50764 0.46194 0.45249
1688.175 0.3983 0.3785 0.3633 0.3959 0.43179 0.4075 0.44668 0.42473 0.3956 0.45307
1707.469 0.5338 0.6094 0.6718 0.715 0.7076 0.6836 0.6033 0.47855 0.46643 0.44396
1726.762 0.3984 0.4038 0.359 0.306 0.293 0.295 0.267 0.225 0.271 0.311
1746.056 0.312 0.3307 0.3689 0.3704 0.3574 0.4015 0.3487 0.272 0.296 0.313
1765.349 0.248 0.235 0.26 0.248 0.26 0.273 0.244 0.174 0.156 0.224
1784.642 0.247 0.237 0.242 0.208 0.246 0.24 0.212 0.281 0.291 0.213
1803.936 0.129 0.163 0.222 0.208 0.18 0.232 0.229 0.158 0.19 0.231
1823.229 0.267 0.271 0.225 0.208 0.199 0.161 0.172 0.19 0.126 0.1
1842.523 0.145 0.199 0.249 0.277 0.237 0.149 0.101 0.133 0.198 0.227
1861.816 0.195 0.237 0.3296 0.294 0.244 0.235 0.219 0.178 0.147 0.146
1881.110 0.124 0.169 0.222 0.236 0.261 0.218 0.238 0.236 0.219 0.242
1900.403 0.23 0.253 0.221 0.182 0.192 0.255 0.293 0.242 0.205 0.237
1919.696 0.276 0.269 0.253 0.25 0.23 0.2 0.206 0.211 0.201 0.261
1938.990 0.288 0.269 0.295 0.258 0.224 0.26 0.267 0.223 0.25 0.309
1958.283 0.293 0.242 0.249 0.288 0.282 0.298 0.283 0.283 0.308 0.314
1977.577 0.296 0.292 0.3361 0.265 0.258 0.3381 0.32 0.287 0.301 0.336
1996.870 0.3228 0.289 0.285 0.294 0.256 0.227 0.293 0.3431 0.3382 0.3506
2016.164 0.3435 0.3257 0.318 0.304 0.31 0.3271 0.3263 0.314 0.287 0.281
2035.457 0.311 0.3243 0.3 0.293 0.302 0.27 0.288 0.307 0.308 0.306
2054.750 0.261 0.236 0.265 0.279 0.274 0.268 0.262 0.274 0.25 0.256
2074.044 0.268 0.247 0.259 0.296 0.3338 0.3464 0.29 0.243 0.241 0.223
2093.337 0.233 0.238 0.227 0.232 0.254 0.256 0.24 0.3 0.3 0.288
2112.631 0.3347 0.312 0.251 0.259 0.299 0.276 0.281 0.3218 0.325 0.307
2131.924 0.299 0.299 0.296 0.28 0.278 0.294 0.302 0.314 0.287 0.285
2151.218 0.3291 0.3544 0.3649 0.3254 0.264 0.29 0.31 0.289 0.294 0.3
2170.511 0.316 0.299 0.284 0.3412 0.3865 0.3682 0.3273 0.3413 0.3765 0.3533
2189.804 0.309 0.311 0.288 0.234 0.264 0.3494 0.355 0.29 0.254 0.285
2209.098 0.3454 0.296 0.264 0.309 0.3594 0.4007 0.4097 0.3965 0.334 0.3
2228.391 0.312 0.306 0.296 0.3254 0.3436 0.3751 0.374 0.3325 0.3738 0.384
2247.685 0.4023 0.47038 0.41296 0.3377 0.379 0.4026 0.4024 0.369 0.3569 0.3749
2266.978 0.3457 0.3241 0.311 0.3714 0.401 0.3815 0.41186 0.419396 0.3828 0.3407
2286.272 0.3999 0.4847 0.45588 0.43175 0.43457 0.41012 0.3866 0.3986 0.44547 0.45555
2305.565 0.44873 0.4095 0.393 0.44335 0.43292 0.4097 0.41567 0.4051 0.43741 0.43226
2324.858 0.4449 0.50829 0.45534 0.427901 0.4714 0.46172 0.44043 0.45209 0.45096 0.46054
2344.152 0.48542 0.4867 0.4776 0.46482 0.47773 0.5233 0.5234 0.49062 0.44873 0.47967
2363.445 0.5255 0.4797 0.49629 0.51889 0.51286 0.48312 0.48401 0.5291 0.5476 0.5575
2382.739 0.5322 0.51308 0.49239 0.47974 0.49389 0.48927 0.48398 0.46899 0.45624 0.47688
2402.032 0.46511 0.44075 0.45851 0.48778 0.46894 0.44594 0.43728 0.424406 0.44248 0.4482
2421.326 0.46594 0.5155 0.5459 0.5363 0.49572 0.4758 0.5329 0.51757 0.48612 0.51639
2440.619 0.48527 0.45193 0.49203 0.51573 0.45867 0.46133 0.50577 0.5202 0.47994 0.47108
2459.912 0.51405 0.5906 0.6132 0.4975 0.45773 0.50997 0.5366 0.50445 0.48707 0.5429
2479.206 0.5232 0.429732 0.427904 0.47735 0.5006 0.5321 0.5753 0.6092 0.5928 0.5223
2498.499 0.47625 0.51915 0.48186 0.44662 0.5281 0.50132 0.45296 0.47738 0.5399 0.5456
2517.793 0.51363 0.50932 0.5597 0.6315 0.6581 0.6457 0.5984 0.5868 0.6108 0.583
2537.086 0.5601 0.5964 0.6019 0.5498 0.5667 0.5803 0.5501 0.5734 0.6204 0.6457
2556.380 0.6602 0.7051 0.699 0.7067 0.6813 0.6341 0.644 0.6334 0.6665 0.6799
2575.673 0.5967 0.5668 0.6335 0.7135 0.6966 0.6902 0.803 0.8123 0.7919 0.7996
2594.966 0.785 0.7176 0.6504 0.6767 0.6602 0.6718 0.7449 0.7813 0.7936 0.7821
2614.260 0.7754 0.8394 0.8572 0.7725 0.7413 0.7959 0.8354 0.8552 0.8808 0.8404
2633.553 0.8647 0.9163 0.9289 0.9613 0.944 1.0031 1.0764 1.0776 1.0488 1.0436
2652.847 1.0637 1.0854 1.0931 1.0531 1.0977 1.1603 1.1063 1.1573 1.1549 1.0776
2672.140 1.1342 1.1193 1.0693 1.0878 1.1476 1.2305 1.244 1.1997 1.1846 1.1682
2691.434 1.1931 1.1889 1.1155 1.1484 1.2278 1.2416 1.2244 1.2718 1.3207 1.2583
2710.727 1.1517 1.0831 1.144 1.1989 1.2415 1.3177 1.248 1.1752 1.2502 1.2515
2730.020 1.2768 1.334 1.44 1.54 1.48 1.5 1.57 1.55 1.59 1.64
2749.314 1.57 1.55 1.53 1.5 1.58 1.68 1.7 1.79 1.74 1.6
2768.607 1.68 1.73 1.76 1.82 1.87 2.03 2.05 1.98 1.98 2.04
2787.901 2.09 2.11 2.25 2.39 2.46 2.54 2.53 2.58 2.78 2.91
2807.194 2.92 2.93 3.07 3.23 3.37 3.63 3.77 3.93 4.14 4.29
2826.488 4.63 5.02 5.36 5.62 6.06 6.6 7.13 7.89 8.76 9.81
2845.781 11.01 12.35 13.91 15.75 17.75 19.87 21.83 23.64 25.14 26
2865.074 26.5 26.61 26.24 25.5 24.63 23.71 22.81 22.04 21.35 20.68
2884.368 19.97 19.33 18.89 18.53 18.15 18.03 18.35 18.88 19.66 20.56
2903.661 21.57 22.95 24.58 26.41 28.45 30.6 33.16 36.44 40.07 44.13
2922.955 48.71 53.49 57.96 61.71 64.38 65.61 65.3 63.51 60.63 56.88
2942.248 52.36 47.78 43.24 38.79 35 31.97 29.66 27.88 26.64 26.02
2961.542 25.73 25.54 25.35 24.76 23.72 22.4 20.83 18.94 16.8 14.82
2980.835 13.23 11.88 10.68 9.76 9.04 8.47 7.93 7.45 7.15 6.83
3000.128 6.59 6.39 6.22 6.11 6 5.84 5.71 5.74 5.58 5.31
3019.422 5.18 5.18 5.08 4.93 4.73 4.57 4.51 4.25 3.96 3.71
3038.715 3.55 3.39 3.17 3.04 2.83 2.7 2.58 2.35 2.22 2.23
3058.009 2.13 2.03 1.95 1.8 1.87 1.98 1.76 1.62 1.64 1.55
3077.302 1.46 1.45 1.48 1.4159 1.43 1.4122 1.3793 1.3759 1.3158 1.2396
3096.596 1.2476 1.1996 1.1032 0.9904 0.9628 0.9882 0.884 0.9496 1.1742 1.228
3115.889 1.1724 1.108 0.9936 1.0654 0.9634 0.7431 0.7962 0.886 0.9623 0.7296
3135.182 0.7603 0.9112 0.7886 0.7292 0.7096 0.8646 0.9211 0.8868 0.9113 0.894
3154.476 0.8063 0.7568 0.7795 0.7282 0.7637 0.939 0.8225 0.7366 0.8284 0.7963
3173.769 0.6839 0.7333 0.8049 0.7572 0.5519 0.4401 0.6227 0.7767 0.8105 0.6772
3193.063 0.7117 0.7494 0.6724 0.7145 0.8786 0.7102 0.51816 0.5462 0.47608 0.5378
3212.356 0.7862 0.8989 0.6324 0.48713 0.3883 0.43787 0.44942 0.248 0.26 0.51469
3231.650 0.6143 0.3818 0.221 0.286 0.44365 0.43832 0.422137 0.387 0.3422 0.294
3250.943 0.101 0.234 0.3559 0.3389 0.3526 0.3644 0.49983 0.46144 0.3627 0.305
3270.236 0.46129 0.3769 0.162 0.3934 0.49698 0.5477 0.5397 0.3568 0.426212 0.4744
3289.530 0.3901 0.306 0.144 0.132 0.249 0.198 0 0.031 0.309 0.51613
3308.823 0.3304 0.113 0.3784 0.5557 0.4221 0.289 0.301 0.3779 0.3569 0.3229
3328.117 0.3285 0.292 0.3689 0.4084 0.3738 0.193 0.126 0.3 0.222 0.223
3347.410 0.426658 0.48399 0.248 0.085 0.133 0.3327 0.3499 0.16 0.317 0.3614
3366.704 0.195 0.267 0.282 0.226 0.231 0.291 0.3327 0.3867 0.45727 0.43925
3385.997 0.425424 0.3841 0.3757 0.231 0.24 0.297 0.084 0.044 0.182 0.3256
3405.290 0.318 0.255 0.3876 0.3617 0.274 0.3541 0.3719 0.224 0.167 0.44875
3424.584 0.41651 0.3636 0.44621 0.3969 0.46052 0.286 0.194 0.177 0.086 0.085
3443.877 0.258 0.3646 0.248 0.134 0.196 0.134 0.025 0.189 0.294 0.324
3463.171 0.3201 0.3411 0.3745 0.45221 0.319 0.132 0.234 0.27 0.191 0.162
3482.464 0.3595 0.44242 0.285 0.049 0.04 0.206 0.212 0.182 0.121 0.31
3501.758 0.43496 0.319 0.26 0.273 0.45209 0.44121 0.187 0.217 0.3697 0.3984
3521.051 0.3299 0.313 0.3311 0.307 0.229 0.173 0.261 0.301 0.224 0.068
3540.344 0.101 0.223 0.3348 0.5061 0.395 0.209 0.224 0.174 0.125 0.213
3559.638 0.3385 0.285 0.084 0.171 0.3788 0.352 0.261 0.199 0.192 0.3352
3578.931 0.41094 0.292 0.217 0.274 0.268 0.253 0.3567 0.51056 0.50445 0.277
3598.225 0.227 0.222 0.18 0.44833 0.50057 0.43371 0.6307 0.6814 0.6282 0.6765
3617.518 0.677 0.688 0.7059 0.5969 0.6419 0.8468 1.0609 1.1286 1.088 1.065
3636.812 1.1047 1.2541 1.3958 1.62 1.82 1.8 1.84 2.13 2.26 2.22
3656.105 2.04 1.97 2.17 2.34 2.21 2.05 2.16 1.99 1.67 1.62
3675.398 1.5 1.47 1.4174 1.1196 1.0077 0.9915 1.0251 0.9007 0.7513 0.8016
3694.692 0.8317 0.7838 0.6792 0.5808 0.5566 0.5574 0.51616 0.592 0.5728 0.41896
3713.985 0.3748 0.51723 0.51563 0.46063 0.3922 0.304 0.44465 0.6067 0.49302 0.276
3733.279 0.3822 0.44243 0.308 0.29 0.3222 0.3411 0.3414 0.289 0.261 0.375
3752.572 0.3665 0.249 0.294 0.316 0.192 0.317 0.44464 0.44918 0.41164 0.309
3771.866 0.44765 0.46362 0.3687 0.3523 0.3336 0.3258 0.3762 0.49411 0.48962 0.3989
3791.159 0.4488 0.47339 0.42353 0.49735 0.51449 0.3683 0.3898 0.3632 0.3363 0.3513
3810.452 0.44323 0.50745 0.3926 0.44131 0.3898 0.3709 0.419078 0.44684 0.49948 0.51819
3829.746 0.42569 0.278 0.425824 0.426614 0.426583 0.5302 0.49162 0.47412 0.4152 0.46204
3849.039 0.4097 0.3251 0.3568 0.41155 0.51581 0.44854 0.3885 0.45058 0.43369 0.3907
3868.333 0.44204 0.41098 0.3411 0.47061 0.51225 0.45211 0.4513 0.47263 0.51918 0.5687
3887.626 0.5201 0.3967 0.4126 0.5561 0.643 0.47219 0.308 0.46136 0.50999 0.47653
3906.920 0.47224 0.49192 0.553 0.50807 0.43836 0.3631 0.428005 0.5811 0.5333 0.311
3926.213 0.271 0.46996 0.46826 0.311 0.303 0.3835 0.3794 0.3999 0.6134 0.6214
3945.506 0.47288 0.3391 0.3993 0.44265 0.278 0.3323 0.3698 0.51915 0.5475 0.4071
3964.800 0.46329 0.5202 0.3837 0.3323 0.3483 0.4319 0.45909 0.422348 0.5352 0.506
3984.093 0.4657 0.47286 0.43734 0.3428 0.3489 0.45806 0.46067 0.3757 0.3783
##END=
