##TITLE=Isothiocyanatoacetaldehyde dimethyl acetal
##JCAMP-DX=4.24
##DATA TYPE=INFRARED SPECTRUM
##ORIGIN=EPA-IR VAPOR PHASE LIBRARY
##OWNER=SRD/NIST
Collection (C) 2018 copyright by the U.S. Secretary of Commerce
on behalf of the United States of America. All rights reserved.
##CAS REGISTRY NO=75052-04-9
##MOLFORM=C 5 H 9 N O 2 S
##$NIST SOURCE=MSDC-IR
##STATE=gas
##XUNITS=1/CM
##YUNITS=ABSORBANCE
##XFACTOR=1.
##YFACTOR=0.001
##DELTAX=1.92898
##FIRSTX=549.8
##LASTX=4000.7
##FIRSTY=19.669
##MAXX=4000.7
##MINX=549.759
##MAXY=0.504329
##MINY=0
##NPOINTS=1790
##XYDATA=(X++(Y..Y))
549.759 19.669 19.769 19.649 19.929 19.529 19.139 19.199 18.839 18.519 18.309
569.049 17.829 17.319 17.049 16.609 16.229 15.859 15.189 14.809 14.259 13.709
588.339 13.539 13.139 12.819 12.469 11.789 11.139 10.629 10.289 9.829 9.129
607.628 8.509 8.269 8.159 7.829 7.449 6.979 6.499 6.379 6.359 5.969
626.918 5.519 5.419 5.399 5.309 4.939 4.619 4.749 4.909 4.759 4.689
646.208 4.629 4.449 4.429 4.349 4.479 4.679 4.759 4.719 4.569 4.659
665.498 4.679 4.599 4.539 4.239 4.189 4.289 4.219 4.169 4.559 5.019
684.787 5.239 5.539 6.149 6.919 7.489 8.269 9.409 10.649 11.879 13.069
704.077 14.479 15.949 17.459 18.959 20.209 21.469 22.419 23.079 23.539 23.519
723.367 23.449 23.459 22.899 22.099 21.069 19.819 18.579 17.299 15.959 14.449
742.657 12.949 11.619 10.359 9.409 8.549 7.649 6.909 6.149 5.789 5.659
761.947 5.219 4.659 4.449 4.449 4.359 4.139 3.849 3.629 3.579 3.519
781.236 3.349 3.139 3.149 2.989 3.009 3.189 3.299 3.569 3.759 3.899
800.526 4.159 4.609 5.349 5.939 6.559 7.469 8.349 9.369 10.199 11.089
819.816 12.249 13.199 14.129 15.319 16.279 16.999 17.929 18.969 19.879 20.359
839.106 20.649 21.049 20.779 20.169 19.699 18.559 17.189 15.749 14.249 13.039
858.395 12.069 11.159 10.149 9.219 8.439 8.029 7.619 7.289 6.969 6.409
877.685 6.049 5.899 5.709 5.449 5.299 5.249 5.229 5.169 5.429 5.689
896.975 5.839 6.199 6.479 6.849 7.269 7.679 8.199 8.739 9.459 9.879
916.265 10.299 10.909 11.199 11.519 11.689 11.629 11.409 11.149 10.939 10.709
935.555 10.559 10.529 10.459 10.579 10.729 10.799 11.099 11.649 12.279 13.149
954.844 14.049 14.879 15.919 17.149 18.269 19.369 20.619 21.689 22.689 23.389
974.134 24.089 24.629 24.419 24.009 23.289 22.439 21.509 20.399 19.459 18.329
993.424 17.029 16.219 15.669 15.329 15.199 15.079 15.409 16.079 16.849 17.579
1012.714 18.329 19.499 21.039 22.959 24.679 25.899 27.639 29.269 30.669 32.509
1032.003 34.219 35.759 37.399 39.019 41.059 43.969 47.089 50.319 53.689 57.509
1051.293 61.489 65.339 69.149 72.499 76.089 79.659 82.769 85.459 88.719 92.659
1070.583 97.409 103.719 111.139 119.349 128.689 139.279 150.869 162.969 173.649 182.419
1089.873 189.329 194.459 196.389 195.289 192.679 187.389 180.379 172.729 164.749 158.129
1109.163 152.939 148.139 145.529 144.979 144.909 146.339 149.389 152.739 155.679 158.139
1128.452 158.769 157.549 155.469 151.439 145.579 138.849 130.429 121.549 112.979 103.879
1147.742 94.849 87.069 80.279 73.739 67.969 63.219 58.699 55.059 52.079 49.319
1167.032 47.199 45.549 44.699 44.259 44.029 44.569 45.779 47.279 49.239 51.159
1186.322 53.439 56.519 59.359 61.899 64.369 66.139 67.079 67.559 66.909 64.689
1205.611 62.379 59.689 55.739 51.419 46.989 43.139 39.809 37.059 34.499 32.319
1224.901 30.969 29.909 29.079 28.799 28.869 28.659 28.589 28.789 29.159 29.599
1244.191 29.849 30.409 30.789 30.669 30.629 30.269 29.769 29.179 28.349 27.809
1263.481 27.029 25.829 24.679 23.729 22.859 22.029 21.439 20.729 19.979 19.659
1282.771 19.679 20.179 21.189 22.359 23.869 26.149 29.029 32.399 35.719 38.209
1302.060 39.999 41.109 41.399 40.819 39.369 36.799 33.079 28.899 25.099 22.029
1321.350 19.579 17.819 16.569 15.709 15.309 15.239 15.439 15.829 16.429 17.249
1340.640 18.299 19.539 20.929 22.639 24.419 25.979 27.409 28.609 29.469 30.069
1359.930 30.419 30.579 30.569 30.559 30.509 30.179 29.599 28.809 27.749 26.459
1379.219 24.999 23.409 21.689 19.989 18.339 16.779 15.299 13.909 12.789 11.849
1398.509 11.039 10.389 9.849 9.439 9.219 9.049 8.939 9.019 9.139 9.319
1417.799 9.559 9.799 10.209 10.889 11.679 12.649 14.199 16.299 18.869 22.029
1437.089 25.769 29.649 33.139 35.979 38.159 39.839 40.929 41.149 40.229 37.799
1456.378 34.279 30.729 27.759 25.339 23.419 21.729 20.159 18.759 17.479 16.349
1475.668 15.369 14.299 13.279 12.319 11.419 10.549 9.759 9.089 8.479 7.919
1494.958 7.459 7.099 6.739 6.399 6.099 5.809 5.579 5.389 5.139 4.889
1514.248 4.699 4.569 4.479 4.389 4.299 4.179 4.069 3.919 3.859 3.869
1533.538 3.789 3.769 3.729 3.699 3.709 3.689 3.669 3.609 3.599 3.619
1552.827 3.579 3.539 3.519 3.469 3.469 3.509 3.499 3.479 3.469 3.359
1572.117 3.289 3.289 3.299 3.309 3.199 3.099 3.079 3.029 2.979 2.919
1591.407 2.939 3.009 2.939 2.819 2.779 2.719 2.609 2.599 2.559 2.459
1610.697 2.559 2.539 2.399 2.449 2.489 2.489 2.509 2.519 2.499 2.459
1629.986 2.499 2.539 2.579 2.639 2.589 2.569 2.559 2.549 2.509 2.489
1649.276 2.599 2.559 2.409 2.429 2.419 2.429 2.449 2.359 2.329 2.409
1668.566 2.489 2.449 2.419 2.499 2.449 2.379 2.339 2.339 2.329 2.289
1687.856 2.329 2.319 2.239 2.199 2.199 2.229 2.199 2.129 2.069 2.079
1707.146 2.089 2.049 2.079 2.109 2.149 2.159 2.179 2.179 2.149 2.129
1726.435 2.109 2.109 2.089 2.089 2.079 2.119 2.149 2.119 2.099 2.029
1745.725 1.999 2.079 2.139 2.099 2.029 2.009 2.039 2.029 1.989 1.989
1765.015 1.949 1.899 1.929 1.919 1.849 1.839 1.839 1.819 1.789 1.749
1784.305 1.799 1.829 1.839 1.809 1.809 1.849 1.859 1.829 1.849 1.899
1803.594 1.869 1.819 1.879 1.919 1.919 1.879 1.839 1.929 2.009 2.029
1822.884 2.019 2.039 2.079 2.129 2.159 2.169 2.229 2.239 2.289 2.379
1842.174 2.389 2.429 2.559 2.629 2.649 2.739 2.839 2.919 3.049 3.209
1861.464 3.349 3.409 3.479 3.659 3.859 4.039 4.189 4.359 4.499 4.659
1880.754 4.869 5.079 5.279 5.519 5.809 6.049 6.329 6.579 6.819 7.199
1900.043 7.589 7.879 8.219 8.579 8.919 9.349 9.779 10.149 10.549 10.979
1919.333 11.399 11.869 12.359 12.869 13.419 14.019 14.739 15.429 16.129 16.849
1938.623 17.569 18.369 19.319 20.269 21.199 22.269 23.339 24.509 25.819 27.219
1957.913 28.769 30.279 31.889 33.719 35.629 37.659 39.839 42.159 44.609 47.289
1977.202 50.109 53.029 56.279 59.799 63.499 67.419 71.669 76.249 81.109 86.379
1996.492 92.099 98.149 104.579 111.609 119.179 127.279 136.039 145.489 155.699 166.689
2015.782 178.559 191.389 205.049 219.559 234.909 251.029 267.889 285.359 303.159 321.419
2035.072 339.829 358.029 376.149 394.189 411.789 428.729 444.719 459.569 473.149 484.859
2054.362 494.319 501.039 504.329 503.329 497.709 487.649 473.459 455.599 434.859 412.579
2073.651 389.419 366.119 343.269 321.209 300.199 280.499 262.309 245.399 229.979 216.049
2092.941 203.549 192.419 182.739 174.449 167.429 161.769 157.339 154.079 151.899 150.509
2112.231 149.699 149.129 148.489 147.409 145.499 142.789 139.149 134.569 129.269 123.469
2131.521 117.419 111.239 104.989 98.909 93.139 87.749 82.769 78.209 74.009 70.269
2150.810 66.899 63.809 61.059 58.539 56.369 54.439 52.699 51.249 49.959 48.799
2170.100 47.789 46.859 46.059 45.429 44.799 44.169 43.649 43.119 42.609 42.089
2189.390 41.479 40.899 40.409 39.839 39.319 38.829 38.289 37.799 37.349 36.979
2208.680 36.649 36.329 36.049 35.799 35.679 35.559 35.299 35.119 34.989 34.809
2227.970 34.569 34.269 33.999 33.619 33.239 32.759 32.239 31.699 31.029 30.259
2247.259 29.429 28.579 27.619 26.669 25.659 24.429 23.179 22.089 20.879 19.629
2266.549 18.479 17.419 16.399 15.349 14.419 13.639 12.809 12.019 11.309 10.709
2285.839 10.159 9.629 9.129 8.669 8.309 7.939 7.609 7.239 6.849 6.539
2305.129 6.299 6.079 5.849 5.649 5.449 5.209 4.979 4.809 4.669 4.499
2324.418 4.349 4.219 4.109 3.989 3.839 3.729 3.719 3.689 3.619 3.529
2343.708 3.399 3.309 3.199 3.129 3.149 3.139 3.109 3.049 2.909 2.889
2362.998 2.909 2.919 2.919 2.879 2.789 2.769 2.759 2.699 2.709 2.679
2382.288 2.639 2.669 2.629 2.579 2.579 2.679 2.629 2.509 2.529 2.509
2401.578 2.449 2.399 2.449 2.469 2.409 2.359 2.319 2.329 2.349 2.299
2420.867 2.289 2.319 2.339 2.299 2.269 2.189 2.149 2.159 2.119 2.119
2440.157 2.169 2.129 2.029 1.999 1.949 1.869 1.879 1.929 1.959 1.899
2459.447 1.899 1.979 1.959 1.959 1.909 1.859 1.839 1.859 1.959 2.019
2478.737 1.979 2.009 2.099 2.159 2.149 2.119 2.139 2.149 2.149 2.209
2498.026 2.209 2.279 2.389 2.409 2.449 2.459 2.429 2.449 2.439 2.459
2517.316 2.509 2.559 2.579 2.649 2.709 2.699 2.779 2.909 2.849 2.829
2536.606 2.959 2.999 3.019 3.119 3.199 3.219 3.349 3.479 3.589 3.629
2555.896 3.669 3.749 3.829 3.959 4.069 4.149 4.159 4.129 4.129 4.129
2575.186 4.059 3.969 3.919 3.849 3.819 3.779 3.669 3.569 3.499 3.539
2594.475 3.519 3.399 3.399 3.469 3.399 3.269 3.259 3.279 3.229 3.149
2613.765 3.079 2.979 2.919 3.029 3.049 2.949 2.969 3.069 3.079 3.069
2633.055 3.139 3.209 3.179 3.189 3.329 3.489 3.649 3.709 3.759 3.779
2652.345 3.809 3.849 3.879 3.889 3.839 3.879 3.879 3.829 3.729 3.739
2671.634 3.839 3.819 3.809 3.779 3.799 3.859 3.799 3.849 3.849 3.819
2690.924 3.849 3.919 4.059 4.079 4.119 4.109 4.099 4.129 4.219 4.289
2710.214 4.329 4.359 4.389 4.449 4.529 4.669 4.809 4.929 5.059 5.159
2729.504 5.269 5.419 5.559 5.719 5.859 5.959 6.049 6.239 6.439 6.549
2748.794 6.719 6.859 7.009 7.189 7.299 7.459 7.679 7.879 8.149 8.329
2768.083 8.479 8.829 9.169 9.409 9.689 9.959 10.099 10.299 10.459 10.579
2787.373 10.749 10.989 11.299 11.459 11.669 11.949 12.349 12.829 13.299 13.699
2806.663 14.199 14.879 15.599 16.409 17.349 18.489 19.769 21.359 23.169 25.229
2825.953 27.759 30.759 33.949 37.249 40.769 44.319 47.449 49.879 51.359 51.949
2845.242 51.699 50.549 48.609 46.089 43.339 40.559 38.009 35.889 34.079 32.639
2864.532 31.599 30.739 30.159 29.689 29.249 28.859 28.549 28.419 28.239 28.189
2883.822 28.449 28.859 29.319 29.799 30.539 31.499 32.509 33.629 35.129 36.839
2903.112 38.569 40.419 42.329 44.249 46.129 47.809 49.289 50.699 51.969 53.119
2922.401 54.309 55.569 57.109 59.129 61.489 63.949 66.759 69.989 73.179 76.089
2941.691 78.759 80.959 82.389 83.029 83.019 82.579 81.499 79.649 77.109 74.359
2960.981 71.489 68.319 65.259 62.169 59.139 56.289 53.619 51.009 48.549 46.259
2980.271 44.279 42.539 40.919 39.739 38.849 38.179 37.849 37.869 37.909 38.119
2999.561 38.449 38.389 37.779 36.869 35.869 34.449 32.599 30.569 28.339 25.969
3018.850 23.689 21.609 19.859 18.369 16.949 15.789 14.799 13.849 13.209 12.599
3038.140 11.969 11.509 11.129 10.739 10.259 9.989 9.899 9.599 9.239 9.049
3057.430 8.999 8.789 8.499 8.279 8.019 7.719 7.589 7.459 7.219 7.079
3076.720 6.869 6.709 6.589 6.379 6.179 5.899 5.669 5.539 5.399 5.229
3096.009 5.019 4.939 4.669 4.409 4.399 4.239 4.029 3.939 3.799 3.549
3115.299 3.369 3.239 3.119 2.989 2.859 2.769 2.679 2.529 2.439 2.279
3134.589 2.089 2.049 2.119 2.149 2.039 1.899 1.789 1.639 1.599 1.649
3153.879 1.609 1.499 1.3379 1.4605 1.4264 1.3564 1.4332 1.3204 1.2449 1.2087
3173.169 1.2327 1.1067 0.9701 0.9094 0.8739 0.9144 0.9408 1.0224 0.9312 0.7898
3192.458 0.7688 0.8016 0.9483 0.8201 0.6144 0.5897 0.6601 0.6612 0.6139 0.6763
3211.748 0.6961 0.6724 0.56191 0.4544 0.52163 0.50631 0.3867 0.365 0.56209 0.6259
3231.038 0.51894 0.47574 0.361 0.27 0.4299 0.6396 0.51469 0.342 0.258 0.308
3250.328 0.4151 0.4601 0.50894 0.4514 0.343 0.3907 0.53384 0.4631 0.4237 0.4403
3269.617 0.4047 0.299 0.171 0.208 0.28 0.121 0.142 0.342 0.165 0.042
3288.907 0.249 0.365 0.189 0.242 0.366 0.364 0.379 0.208 0.114 0.17
3308.197 0.198 0.197 0.086 0.209 0.276 0.18 0.155 0.17 0.32 0.4039
3327.487 0.346 0.21 0.233 0.372 0.277 0.242 0.299 0.361 0.3 0.168
3346.777 0.106 0.047 0.3 0.4053 0.286 0.336 0.3934 0.298 0.222 0.213
3366.066 0.269 0.289 0.324 0.331 0.228 0.171 0.21 0.4028 0.309 0.171
3385.356 0.328 0.3853 0.371 0.4082 0.338 0.286 0.322 0.347 0.3 0.235
3404.646 0.245 0.237 0.161 0.216 0.349 0.269 0.123 0 0.264 0.53643
3423.936 0.4079 0.3827 0.373 0.339 0.304 0.189 0.26 0.279 0.201 0.337
3443.225 0.3895 0.336 0.362 0.186 0.146 0.4156 0.57047 0.50432 0.4336 0.52393
3462.515 0.54184 0.51345 0.52613 0.4597 0.4409 0.3862 0.3793 0.4415 0.361 0.301
3481.805 0.278 0.308 0.294 0.231 0.334 0.51744 0.4426 0.321 0.3921 0.50072
3501.095 0.54444 0.50617 0.5059 0.4401 0.342 0.349 0.35 0.375 0.362 0.3855
3520.385 0.44 0.357 0.377 0.487357 0.52223 0.49993 0.31 0.234 0.24 0.182
3539.674 0.4103 0.428 0.258 0.234 0.305 0.47775 0.4182 0.3883 0.48951 0.341
3558.964 0.113 0.141 0.24 0.365 0.4446 0.188 0.052 0.176 0.289 0.347
3578.254 0.378 0.336 0.4104 0.51642 0.328 0.113 0.195 0.338 0.262 0.196
3597.544 0.3 0.3933 0.301 0.294 0.36 0.346 0.232 0.043 0.147 0.257
3616.833 0.227 0.304 0.335 0.253 0.103 0.141 0.293 0.352 0.4287 0.341
3636.123 0.208 0.317 0.344 0.311 0.32 0.348 0.344 0.324 0.328 0.338
3655.413 0.4235 0.3863 0.253 0.242 0.239 0.27 0.369 0.4238 0.4096 0.3965
3674.703 0.46992 0.52873 0.4663 0.51235 0.51859 0.365 0.325 0.3973 0.327 0.227
3693.993 0.353 0.4267 0.4189 0.37 0.238 0.273 0.303 0.218 0.305 0.6163
3713.282 0.6853 0.51399 0.4438 0.359 0.363 0.442 0.331 0.365 0.364 0.286
3732.572 0.337 0.3878 0.4061 0.237 0.226 0.337 0.4519 0.5665 0.4499 0.4027
3751.862 0.33 0.264 0.367 0.4199 0.5284 0.359 0.212 0.272 0.307 0.3936
3771.152 0.4213 0.4488 0.5939 0.52545 0.351 0.344 0.4136 0.3931 0.344 0.278
3790.441 0.348 0.3847 0.41 0.374 0.28 0.481216 0.52815 0.349 0.3 0.47431
3809.731 0.4371 0.3903 0.5852 0.6832 0.7009 0.6477 0.6257 0.6581 0.57705 0.54528
3829.021 0.5949 0.7085 0.8252 0.809 0.7807 0.7872 0.876 0.9952 0.9248 0.8371
3848.311 0.8488 0.9218 0.8437 0.6825 0.7782 0.8657 0.8467 0.8948 0.9283 0.9019
3867.601 0.895 0.8279 0.8211 0.8148 0.7788 0.7793 0.8134 0.8766 1.0248 1.1479
3886.890 0.8454 0.6856 0.8614 0.9398 0.8632 0.8104 0.8966 0.9517 1.1248 1.0968
3906.180 1.0055 1.1794 1.192 1.0657 1.0473 1.0306 1.032 1.1167 1.1529 1.2151
3925.470 1.4523 1.4496 1.3979 1.4726 1.462 1.539 1.539 1.609 1.649 1.609
3944.760 1.4324 1.539 1.689 1.4767 1.3586 1.3961 1.4432 1.509 1.679 1.549
3964.049 1.4312 1.569 1.729 1.939 2.079 1.879 1.729 1.889 2.009 2.019
3983.339 2.079 2.249 2.219 2.019 1.999 2.169 2.299 2.269 2.309 2.289
##END=
