##TITLE=4,5-Dimethoxy-2-nitrotoluene
##JCAMP-DX=4.24
##DATA TYPE=INFRARED SPECTRUM
##ORIGIN=EPA-IR VAPOR PHASE LIBRARY
##OWNER=SRD/NIST
Collection (C) 2018 copyright by the U.S. Secretary of Commerce
on behalf of the United States of America. All rights reserved.
##CAS REGISTRY NO=7509-11-7
##MOLFORM=C 9 H 11 N O 4
##$NIST SOURCE=MSDC-IR
##STATE=gas
##XUNITS=1/CM
##YUNITS=ABSORBANCE
##XFACTOR=1.
##YFACTOR=0.001
##DELTAX=1.92898
##FIRSTX=549.8
##LASTX=4000.7
##FIRSTY=0.71907
##MAXX=4000.7
##MINX=549.759
##MAXY=0.072323
##MINY=0
##NPOINTS=1790
##XYDATA=(X++(Y..Y))
549.759 0.71907 0.6104 0.351 0.485 0.425 0.397 0.52 0.6051 0.68033 0.524
569.049 0.408 0.6328 0.650389 0.8223 1.0545 0.8482 0.9438 1.3353 1.683 2.013
588.339 2.063 2.273 2.643 2.633 2.333 2.233 2.513 2.843 2.813 2.453
607.628 2.353 2.413 2.193 2.033 1.863 1.813 1.813 1.753 1.793 1.903
626.918 1.853 1.5675 1.6009 1.5622 1.3234 1.3013 1.4133 1.4706 1.2707 1.1185
646.208 1.0131 0.9611 1.1968 1.2579 1.0122 0.8763 1.0087 1.2071 1.2394 1.1934
665.498 1.0813 1.3189 1.4861 1.1844 0.9803 0.8622 1.0259 1.06 0.9015 0.9011
684.787 0.8909 0.8716 0.8755 0.8855 0.7537 0.8008 0.9167 0.9088 0.9321 0.9063
704.077 0.8215 0.8614 1.1475 1.3246 1.4762 1.663 1.4846 1.4516 1.5471 1.3576
723.367 1.2809 1.3955 1.5269 1.5622 1.5301 1.753 2.183 2.353 2.363 2.563
742.657 2.683 2.773 3.053 3.243 3.493 3.633 3.673 3.903 4.053 4.163
761.947 4.413 4.413 4.523 4.823 5.073 5.383 6.013 6.553 6.983 7.613
781.236 8.353 9.213 10.363 11.513 12.313 12.943 13.173 12.993 12.303 11.383
800.526 10.113 8.733 7.293 5.823 4.863 4.113 3.373 3.183 2.913 2.493
819.816 2.533 2.443 2.423 2.333 2.293 2.473 2.693 3.133 3.333 3.703
839.106 4.303 4.553 4.863 5.013 5.033 5.153 5.113 4.993 4.743 4.493
858.395 4.493 4.513 4.363 4.293 4.183 4.363 4.423 4.533 4.843 4.963
877.685 5.093 5.193 5.433 5.553 5.383 5.323 5.223 4.783 4.273 3.963
896.975 3.483 3.013 2.523 2.213 2.113 1.913 1.783 1.5862 1.4117 1.3368
916.265 1.2206 1.357 1.4847 1.3718 1.3425 1.4481 1.4735 1.5181 1.4133 1.3829
935.555 1.5582 1.6321 1.823 1.953 1.983 2.043 2.193 2.173 2.143 2.323
954.844 2.543 2.813 3.333 3.763 3.913 4.173 4.713 5.123 5.423 5.883
974.134 6.063 6.173 6.443 6.763 6.663 6.573 6.553 6.193 5.963 5.903
993.424 5.693 5.583 5.693 5.723 5.813 6.173 6.543 6.723 7.043 7.413
1012.714 7.943 8.513 8.863 9.613 10.623 11.463 12.553 13.623 14.493 15.553
1032.003 16.173 16.193 16.323 16.503 16.163 15.443 14.763 13.993 13.503 13.323
1051.293 13.373 14.113 15.403 16.983 18.873 20.913 22.663 23.833 24.783 24.753
1070.583 23.413 21.733 19.403 16.573 13.833 11.313 8.853 7.023 5.993 5.063
1089.873 4.113 3.853 4.113 4.113 3.893 3.423 3.543 3.483 2.903 2.803
1109.163 2.603 2.643 2.663 2.483 2.393 2.373 2.553 2.513 2.603 2.583
1128.452 2.443 2.843 3.343 3.333 3.553 4.083 4.113 4.473 5.143 5.533
1147.742 5.983 6.893 8.333 9.613 10.353 10.963 11.833 12.293 12.273 12.283
1167.032 12.093 11.863 11.633 11.113 10.733 10.443 10.063 10.203 10.233 10.203
1186.322 10.293 10.323 10.663 10.623 10.663 11.533 12.453 12.963 14.243 15.893
1205.611 17.613 19.613 21.903 24.883 28.143 30.893 33.143 35.333 37.083 38.183
1224.901 38.613 37.963 36.313 34.373 31.903 29.063 25.943 22.943 20.453 18.743
1244.191 17.753 17.223 17.443 18.333 19.803 22.003 24.423 26.973 30.103 33.823
1263.481 37.953 41.873 45.493 48.983 51.593 53.013 53.543 53.243 52.083 50.043
1282.771 47.473 44.813 41.893 39.103 36.873 34.783 32.833 31.143 29.533 28.133
1302.060 26.913 25.823 24.943 24.143 23.453 22.843 22.343 21.933 21.763 21.953
1321.350 22.333 23.063 24.203 25.723 27.653 29.943 32.533 35.243 38.073 40.773
1340.640 43.093 44.923 46.023 46.293 45.703 44.283 42.033 39.183 35.983 32.673
1359.930 29.343 26.223 23.513 21.183 19.213 17.573 16.233 15.193 14.343 13.633
1379.219 13.123 12.733 12.403 12.143 11.823 11.443 11.043 10.543 10.013 9.413
1398.509 8.733 8.123 7.603 7.163 6.813 6.553 6.393 6.343 6.303 6.343
1417.799 6.443 6.613 6.923 7.293 7.753 8.303 9.043 9.933 10.963 11.943
1437.089 13.003 13.983 14.643 15.123 15.383 15.373 15.213 15.083 15.123 15.323
1456.378 15.773 16.603 17.513 18.383 19.133 19.543 19.523 19.213 18.823 18.403
1475.668 17.863 17.333 17.023 17.123 17.793 18.863 20.443 22.663 25.493 28.873
1494.958 32.943 37.643 42.593 47.653 52.493 56.613 59.943 62.183 63.163 63.153
1514.248 62.433 61.463 60.623 60.373 61.063 62.713 65.163 67.853 70.303 72.003
1533.538 72.323 71.033 68.263 64.103 58.773 52.843 46.863 41.473 37.063 33.493
1552.827 30.843 28.963 27.643 26.683 26.033 25.623 25.293 25.053 24.793 24.553
1572.117 24.183 23.633 23.033 22.223 20.993 19.603 18.163 16.483 14.753 13.143
1591.407 11.633 10.253 9.023 8.063 7.363 6.853 6.473 6.283 6.183 6.033
1610.697 5.973 5.933 5.943 5.773 5.533 5.373 5.133 4.813 4.443 4.103
1629.986 3.763 3.463 3.273 3.133 2.953 2.803 2.723 2.653 2.483 2.373
1649.276 2.393 2.383 2.423 2.293 2.083 2.013 2.013 1.973 1.943 1.923
1668.566 1.903 1.893 1.893 1.873 1.873 1.843 1.773 1.723 1.733 1.733
1687.856 1.6221 1.603 1.6366 1.643 1.673 1.723 1.693 1.6343 1.643 1.653
1707.146 1.663 1.5869 1.5066 1.4786 1.4231 1.428 1.3992 1.286 1.3024 1.3743
1726.435 1.3901 1.3889 1.3924 1.4456 1.4627 1.3712 1.3423 1.3626 1.3491 1.3461
1745.725 1.2649 1.1932 1.2134 1.2481 1.2798 1.2317 1.2587 1.3248 1.2933 1.3005
1765.015 1.2762 1.2313 1.1972 1.1709 1.1989 1.1834 1.1352 1.139 1.1107 1.0997
1784.305 1.1109 1.0773 1.0651 1.0869 1.1176 1.0849 1.0388 1.0737 1.0849 1.0358
1803.594 1.0016 1.0168 1.0818 1.1099 1.0899 1.1374 1.1195 1.0745 1.0895 1.0725
1822.884 1.0567 1.084 1.0999 1.0448 1.0181 1.0037 1.0071 1.0387 0.9719 0.925
1842.174 0.9547 0.9083 0.8852 0.8971 0.9227 1.0008 0.9863 0.9323 0.9659 0.9611
1861.464 0.9389 0.9585 0.9776 0.9398 0.9419 0.9839 0.9891 1.0317 0.9772 0.9264
1880.754 0.9115 0.8584 0.845 0.8804 0.901 0.8569 0.857 0.9146 0.9042 0.8491
1900.043 0.8252 0.8886 0.9749 0.9396 0.8811 0.8686 0.8922 0.9501 0.9286 0.8658
1919.333 0.8382 0.8341 0.8401 0.8464 0.9122 0.9285 0.878 0.8614 0.8953 0.8644
1938.623 0.849 0.9161 0.9357 0.9033 0.8266 0.8464 0.9339 0.9532 0.9304 0.9773
1957.913 0.9991 0.9753 0.9636 0.9588 0.956 0.9386 0.8996 0.8899 0.9309 0.9976
1977.202 1.0608 1.05 1.0616 1.1024 1.1568 1.1974 1.1954 1.2141 1.2655 1.2753
1996.492 1.3001 1.3616 1.4 1.3474 1.3572 1.3952 1.3735 1.3541 1.2874 1.3401
2015.782 1.4412 1.4349 1.4606 1.5068 1.5007 1.4801 1.4749 1.4711 1.4589 1.4835
2035.072 1.5148 1.5373 1.525 1.4842 1.4933 1.4798 1.4461 1.4434 1.3895 1.3457
2054.362 1.3668 1.3497 1.3717 1.3792 1.3238 1.2939 1.2563 1.2217 1.1504 1.1543
2073.651 1.1867 1.1433 1.1303 1.1272 1.1211 1.1061 1.1204 1.119 1.085 1.0886
2092.941 1.0823 1.0576 1.0483 1.092 1.0631 0.9764 0.9433 0.979 1.0204 0.9809
2112.231 0.9171 0.9149 0.9043 0.886 0.8983 0.8451 0.8214 0.8134 0.8132 0.8229
2131.521 0.8285 0.8636 0.8487 0.7966 0.7862 0.72534 0.71685 0.7997 0.72549 0.65728
2150.810 0.63554 0.5981 0.6215 0.5982 0.5751 0.58 0.593 0.6134 0.6072 0.6178
2170.100 0.6161 0.6311 0.6913 0.72198 0.66502 0.70397 0.7737 0.69712 0.6552 0.7681
2189.390 0.8164 0.72528 0.69367 0.758 0.8627 0.8573 0.8393 0.8525 0.8124 0.7617
2208.680 0.72037 0.71635 0.7612 0.8009 0.7699 0.74005 0.7459 0.7738 0.7956 0.7978
2227.970 0.8409 0.8525 0.8107 0.8429 0.7987 0.73525 0.7679 0.7964 0.73726 0.7528
2247.259 0.8606 0.8388 0.81 0.7674 0.7861 0.8361 0.7803 0.7461 0.7606 0.8172
2266.549 0.8369 0.7856 0.7501 0.7651 0.82 0.801 0.797 0.8447 0.8604 0.8887
2285.839 0.8826 0.8331 0.8804 0.9551 0.9216 0.8273 0.8294 0.8488 0.9144 0.9794
2305.129 0.9028 0.8879 0.8555 0.852 0.8242 0.8447 0.9371 0.8961 0.8162 0.73853
2324.418 0.776 0.8078 0.782 0.7464 0.70854 0.74034 0.7864 0.8395 0.847 0.7529
2343.708 0.71899 0.8113 0.8402 0.8321 0.7952 0.7453 0.7873 0.8073 0.7997 0.8329
2362.998 0.9079 0.8578 0.8028 0.7522 0.7671 0.8914 0.8851 0.8928 0.914 0.8745
2382.288 0.8449 0.8545 0.7905 0.8018 0.83 0.801 0.7945 0.8083 0.8453 0.8481
2401.578 0.8439 0.9035 0.9343 0.8829 0.9477 1.0353 0.9859 0.9493 1.0007 0.9315
2420.867 0.8794 0.9023 0.9191 0.9657 0.97 0.946 0.8724 0.8219 0.8053 0.8507
2440.157 0.8636 0.7892 0.7746 0.7927 0.8293 0.8563 0.7987 0.7768 0.7513 0.71344
2459.447 0.8579 0.9551 0.9413 0.8706 0.71966 0.72375 0.7435 0.7667 0.8449 0.7666
2478.737 0.72016 0.72585 0.67282 0.68504 0.71464 0.70031 0.75 0.7797 0.7691 0.7794
2498.026 0.7623 0.799 0.8617 0.8469 0.72867 0.6311 0.72945 0.8132 0.7675 0.718
2517.316 0.73481 0.8146 0.8251 0.7942 0.8561 0.8368 0.7166 0.7486 0.8447 0.8365
2536.606 0.8345 0.9285 0.9458 0.9371 0.9483 0.9904 1.007 0.9027 0.9176 1.0137
2555.896 1.0358 0.9856 1.0023 1.121 1.1418 1.1524 1.21 1.1796 1.2436 1.2402
2575.186 1.1926 1.3122 1.4457 1.5314 1.4378 1.4066 1.3883 1.4122 1.54 1.4302
2594.475 1.4393 1.5529 1.5648 1.5705 1.4908 1.4754 1.4746 1.4017 1.3707 1.371
2613.765 1.3397 1.2684 1.3007 1.2697 1.2545 1.197 1.0415 1.0861 1.0842 1.0953
2633.055 1.1126 1.1117 1.2361 1.2678 1.2056 1.1546 1.1408 1.2367 1.2824 1.2401
2652.345 1.217 1.1926 1.1272 1.1202 1.1436 1.1449 1.0987 1.008 1.0049 1.0414
2671.634 1.008 0.9642 1.0349 1.0493 1.0075 0.9828 0.9474 0.9299 0.9306 0.9375
2690.924 0.9788 0.9598 0.8843 0.8623 0.7828 0.8081 0.913 0.9662 0.9399 0.8875
2710.214 0.87 0.8216 0.8347 0.8431 0.8264 0.8863 0.9391 0.9645 0.9437 0.925
2729.504 0.934 0.9154 0.8422 0.8784 0.9449 0.9166 0.9518 0.999 0.9981 1.0175
2748.794 1.0888 1.0109 1.0273 1.1425 1.1272 1.1494 1.1938 1.1875 1.1828 1.1677
2768.083 1.1383 1.155 1.0734 1.0852 1.2247 1.2473 1.1665 1.2001 1.2603 1.2389
2787.373 1.2911 1.3367 1.4365 1.5645 1.6071 1.6141 1.723 1.753 1.783 1.913
2806.663 2.013 2.123 2.183 2.323 2.563 2.793 2.953 3.133 3.373 3.573
2825.953 3.823 4.213 4.573 4.933 5.373 5.763 6.273 6.923 7.493 7.973
2845.242 8.543 9.143 9.613 9.873 10.073 10.043 9.743 9.353 8.863 8.293
2864.532 7.763 7.303 6.893 6.483 6.163 6.003 5.903 5.843 5.683 5.643
2883.822 5.743 5.773 5.793 5.843 5.973 6.103 6.163 6.343 6.613 6.773
2903.112 6.893 7.243 7.553 7.713 7.993 8.213 8.453 8.803 9.163 9.373
2922.401 9.673 10.073 10.353 10.703 11.323 12.323 13.493 14.693 16.083 17.643
2941.691 19.013 19.903 20.273 20.353 19.913 19.203 18.413 17.253 16.163 15.293
2960.981 14.643 14.143 13.593 13.203 12.733 12.213 11.783 11.203 10.893 10.763
2980.271 10.383 10.173 10.113 9.913 9.783 9.613 9.483 9.333 9.163 9.333
2999.561 9.613 9.903 10.393 10.883 11.433 11.943 12.133 11.843 11.323 10.743
3018.850 9.993 8.973 7.703 6.493 5.653 5.093 4.703 4.283 3.973 3.903
3038.140 3.673 3.483 3.363 3.203 3.203 3.193 3.023 3.013 3.043 2.833
3057.430 2.663 2.693 2.773 2.753 2.733 2.783 2.683 2.493 2.473 2.623
3076.720 2.553 2.573 2.633 2.593 2.653 2.623 2.493 2.443 2.343 2.283
3096.009 2.213 2.173 2.123 1.883 1.733 1.693 1.5563 1.3803 1.537 1.5069
3115.299 1.5043 1.5688 1.3772 1.2775 1.3157 1.2281 1.0429 1.0365 1.0832 1.1599
3134.589 1.1696 1.194 1.1178 0.9433 1.0148 0.9603 0.8371 0.9155 0.7927 0.7587
3153.879 0.8467 0.8862 0.8428 0.67582 0.6057 0.69301 0.8582 0.8198 0.66344 0.6027
3173.169 0.72158 0.7826 0.72266 0.66765 0.68576 0.644296 0.5594 0.5769 0.644562 0.68019
3192.458 0.646003 0.5986 0.54 0.6227 0.72868 0.7527 0.8425 0.8031 0.65562 0.68389
3211.748 0.64041 0.476 0.455 0.536 0.5643 0.521 0.63685 0.68254 0.644346 0.5706
3231.038 0.436 0.576 0.69787 0.72036 0.66988 0.5784 0.5643 0.505 0.44 0.526
3250.328 0.5594 0.489 0.39 0.356 0.436 0.394 0.355 0.309 0.34 0.415
3269.617 0.279 0.322 0.418 0.387 0.414 0.352 0.44 0.529 0.422 0.397
3288.907 0.337 0.285 0.346 0.298 0.254 0.351 0.401 0.401 0.199 0.028
3308.197 0.157 0.291 0.266 0.267 0.327 0.32 0.424 0.295 0.145 0.194
3327.487 0.228 0.283 0.334 0.411 0.36 0.278 0.361 0.468 0.42 0.444
3346.777 0.468 0.382 0.361 0.364 0.35 0.252 0.179 0.305 0.398 0.361
3366.066 0.394 0.395 0.392 0.494 0.395 0.123 0.247 0.371 0.281 0.419
3385.356 0.438 0.404 0.282 0.18 0.312 0.432 0.446 0.409 0.395 0.298
3404.646 0.219 0.227 0.314 0.447 0.261 0.166 0.248 0.257 0.279 0.273
3423.936 0.307 0.228 0.288 0.255 0.124 0.179 0.27 0.295 0.27 0.185
3443.225 0.262 0.343 0.361 0.429 0.324 0.156 0.285 0.235 0.113 0.244
3462.515 0.192 0.268 0.296 0.172 0.21 0.216 0.167 0.161 0.09 0.233
3481.805 0.332 0.277 0.247 0.273 0.272 0.211 0.21 0.278 0.376 0.34
3501.095 0.257 0.313 0.253 0.178 0.247 0.239 0.314 0.453 0.517 0.499
3520.385 0.353 0.245 0.17 0.126 0.343 0.44 0.204 0.184 0.283 0.322
3539.674 0.357 0.159 0.025 0.189 0.323 0.263 0.201 0.148 0.259 0.335
3558.964 0.246 0.321 0.26 0.169 0.175 0.211 0.328 0.324 0.422 0.453
3578.254 0.322 0.248 0.252 0.197 0.057 0.13 0.289 0.264 0.252 0.159
3597.544 0 0.064 0.197 0.178 0.15 0.253 0.362 0.328 0.344 0.316
3616.833 0.218 0.278 0.23 0.329 0.463 0.356 0.414 0.411 0.38 0.337
3636.123 0.22 0.279 0.196 0.181 0.337 0.354 0.299 0.334 0.353 0.371
3655.413 0.419 0.291 0.108 0.127 0.286 0.388 0.459 0.528 0.449 0.341
3674.703 0.402 0.427 0.367 0.353 0.223 0.159 0.178 0.193 0.381 0.408
3693.993 0.312 0.431 0.479 0.353 0.249 0.18 0.175 0.193 0.253 0.29
3713.282 0.205 0.217 0.225 0.228 0.313 0.233 0.038 0.069 0.139 0.104
3732.572 0.193 0.168 0.155 0.241 0.319 0.338 0.311 0.249 0.212 0.132
3751.862 0.108 0.147 0.166 0.335 0.424 0.415 0.355 0.133 0.005 0.175
3771.152 0.259 0.202 0.202 0.216 0.244 0.228 0.178 0.146 0.189 0.234
3790.441 0.257 0.391 0.308 0.32 0.438 0.304 0.218 0.206 0.172 0.199
3809.731 0.18 0.119 0.292 0.295 0.37 0.484 0.396 0.353 0.121 0.027
3829.021 0.128 0.264 0.387 0.32 0.135 0.128 0.198 0.12 0.11 0.135
3848.311 0.317 0.346 0.121 0.145 0.114 0.156 0.349 0.349 0.19 0.152
3867.601 0.231 0.192 0.168 0.215 0.178 0.109 0.254 0.31 0.266 0.445
3886.890 0.419 0.133 0.134 0.304 0.257 0.319 0.534 0.5709 0.401 0.235
3906.180 0.232 0.279 0.304 0.212 0.277 0.367 0.202 0.088 0.336 0.505
3925.470 0.244 0.266 0.426 0.394 0.277 0.212 0.368 0.351 0.297 0.365
3944.760 0.366 0.339 0.308 0.367 0.446 0.288 0.187 0.33 0.293 0.331
3964.049 0.43 0.228 0.153 0.184 0.141 0.164 0.19 0.279 0.436 0.425
3983.339 0.412 0.387 0.35 0.5685 0.72295 0.72002 0.6246 0.463 0.309 0.306
##END=
