##TITLE=2,4,5-Trimethylphenylacetonitrile
##JCAMP-DX=4.24
##DATA TYPE=INFRARED SPECTRUM
##ORIGIN=EPA-IR VAPOR PHASE LIBRARY
##OWNER=SRD/NIST
Collection (C) 2018 copyright by the U.S. Secretary of Commerce
on behalf of the United States of America. All rights reserved.
##CAS REGISTRY NO=75279-58-2
##MOLFORM=C 11 H 13 N
##$NIST SOURCE=MSDC-IR
##STATE=gas
##XUNITS=1/CM
##YUNITS=ABSORBANCE
##XFACTOR=1.
##YFACTOR=0.001
##DELTAX=1.92898
##FIRSTX=549.8
##LASTX=4000.7
##FIRSTY=0.6353
##MAXX=4000.7
##MINX=549.759
##MAXY=0.034453
##MINY=0
##NPOINTS=1790
##XYDATA=(X++(Y..Y))
549.759 0.6353 0.7039 0.6334 0.4233 0.49649 0.266 0.195 0.4295 0.4196 0.316
569.049 0.13 0.304 0.422 0.324 0.32 0.143 0 0.096 0.171 0.095
588.339 0.312 0.54398 0.33 0.331 0.45597 0.6276 0.9102 0.8165 0.7383 0.6322
607.628 0.6699 0.6085 0.4493 0.668 0.6436 0.3973 0.45355 0.339 0.146 0.088
626.918 0.3824 0.6256 0.54663 0.5665 0.54944 0.55439 0.4528 0.3939 0.3766 0.3631
646.208 0.3824 0.4116 0.5769 0.6397 0.7204 0.6694 0.6646 0.8408 0.9616 1.1135
665.498 0.8702 0.767 1.132 1.533 1.623 1.3828 1.483 1.583 1.503 1.543
684.787 1.4345 1.4622 1.483 1.306 1.0929 1.0964 1.2835 1.2147 0.9574 0.9181
704.077 1.0305 0.8492 0.8826 1.0118 0.9976 1.0417 1.0393 0.913 0.807 0.8707
723.367 0.8969 0.9114 0.832 0.7502 0.7735 0.7912 0.7576 0.8029 0.8283 0.9104
742.657 1.0687 1.055 1.0749 1.0707 0.8856 0.8621 0.9996 0.9706 0.7199 0.6806
761.947 0.8931 1.1102 0.9997 0.8893 0.9692 0.7332 0.7882 1.0334 0.9848 1.0266
781.236 1.1662 1.2198 1.2286 1.3673 1.473 1.3848 1.1646 1.1016 1.1146 1.1423
800.526 1.4287 1.593 1.533 1.553 1.563 1.473 1.473 1.3319 1.177 1.2576
819.816 1.191 1.0679 1.0256 1.0534 1.1671 1.2624 1.2055 1.126 1.3324 1.3361
839.106 1.2849 1.523 1.953 2.373 2.553 2.953 3.603 4.353 5.043 5.563
858.395 6.413 7.303 8.193 8.723 8.893 9.173 9.123 8.543 7.683 6.893
877.685 5.953 4.943 4.233 3.783 3.303 2.743 2.133 1.783 1.693 1.583
896.975 1.473 1.473 1.4584 1.3605 1.4357 1.387 1.2993 1.473 1.653 1.743
916.265 1.673 1.683 1.683 1.693 1.703 1.723 1.833 1.893 2.013 2.123
935.555 2.133 2.063 1.873 1.623 1.563 1.4499 1.2801 1.3112 1.2972 1.1995
954.844 1.1274 1.0972 1.0962 1.0757 0.9703 0.948 1.0171 0.9064 0.9894 1.2062
974.134 1.2486 1.3259 1.4026 1.4226 1.593 1.763 1.873 2.283 2.783 2.963
993.424 3.253 3.483 3.583 3.823 3.843 3.793 3.913 3.813 3.513 3.293
1012.714 3.103 3.063 2.643 2.613 2.863 2.763 2.663 2.723 2.693 2.473
1032.003 2.613 2.643 2.293 2.143 2.133 1.883 1.643 1.473 1.493 1.3488
1051.293 1.0692 0.84 0.8122 0.7577 0.8126 1.2183 1.1545 0.964 0.9104 0.8709
1070.583 0.9749 0.9926 0.6273 0.446 0.735 0.8949 0.7424 0.474 0.4205 0.4021
1089.873 0.833 1.0592 0.7885 0.9755 1.0876 1.113 0.674 0.248 0.5681 1.0196
1109.163 0.7933 0.54095 0.627 0.6126 0.6292 0.6507 0.7611 0.894 1.0326 1.0471
1128.452 0.883 0.7348 0.7729 0.704 0.9113 1.206 1.1469 0.808 0.8064 1.0867
1147.742 1.1521 1.2374 0.8922 0.9214 1.2834 1.2155 1.0905 1.2432 1.583 1.913
1167.032 2.093 2.153 2.433 2.903 3.183 3.343 3.443 3.663 3.813 3.463
1186.322 3.363 3.233 2.923 2.733 2.573 2.343 2.113 2.063 2.133 1.983
1205.611 1.923 2.183 1.783 1.3785 1.4363 1.553 1.733 1.693 1.4131 1.3496
1224.901 1.513 1.563 1.663 1.553 1.3355 1.3092 1.2422 1.1635 1.147 1.2108
1244.191 1.3162 1.493 1.573 1.663 1.683 1.503 1.673 1.943 2.033 2.013
1263.481 2.123 2.413 2.393 2.193 2.153 2.153 2.193 2.173 2.163 1.983
1282.771 1.983 1.993 1.873 1.993 2.013 1.923 1.973 2.013 1.963 1.993
1302.060 2.043 2.043 2.003 1.943 1.823 1.733 1.713 1.683 1.633 1.623
1321.350 1.623 1.593 1.563 1.603 1.653 1.653 1.613 1.613 1.663 1.693
1340.640 1.713 1.713 1.763 1.823 1.853 1.863 1.833 1.883 1.913 1.943
1359.930 2.003 2.063 2.123 2.153 2.243 2.373 2.453 2.573 2.673 2.833
1379.219 3.033 3.213 3.323 3.403 3.603 3.823 4.003 4.183 4.313 4.393
1398.509 4.433 4.423 4.483 4.563 4.653 4.763 4.923 5.163 5.493 5.943
1417.799 6.473 7.163 7.853 8.563 9.213 9.683 10.083 10.323 10.453 10.483
1437.089 10.383 10.283 10.333 10.493 10.793 11.263 11.833 12.443 13.033 13.503
1456.378 13.773 13.863 13.783 13.483 13.093 12.593 11.933 11.223 10.353 9.483
1475.668 8.743 8.163 7.703 7.323 7.163 7.173 7.333 7.703 8.423 9.403
1494.958 10.623 12.223 14.003 15.783 17.323 18.353 18.783 18.713 18.123 16.873
1514.248 15.123 13.043 10.783 8.783 7.193 6.123 5.423 4.853 4.363 4.063
1533.538 3.873 3.653 3.523 3.483 3.423 3.263 3.073 3.083 3.103 3.023
1552.827 3.053 3.063 2.993 2.843 2.833 2.823 2.663 2.623 2.603 2.573
1572.117 2.543 2.463 2.413 2.413 2.323 2.233 2.093 1.923 1.903 1.863
1591.407 1.773 1.693 1.723 1.733 1.683 1.643 1.583 1.563 1.543 1.553
1610.697 1.523 1.543 1.563 1.563 1.463 1.343 1.413 1.3754 1.316 1.2965
1629.986 1.2369 1.1329 1.0393 1.0341 0.9952 0.9514 0.9258 0.9425 0.997 0.9385
1649.276 0.8708 0.8771 0.8683 0.8934 0.8263 0.7902 0.8609 0.8649 0.8117 0.7071
1668.566 0.7016 0.7618 0.6989 0.7045 0.7957 0.8037 0.7509 0.7381 0.7376 0.7812
1687.856 0.7931 0.6908 0.6964 0.7672 0.7657 0.7158 0.7442 0.7964 0.8056 0.8115
1707.146 0.8169 0.8458 0.9353 1.0608 1.0916 1.1307 1.253 1.3527 1.473 1.573
1726.435 1.633 1.723 1.793 1.803 1.833 1.843 1.813 1.743 1.573 1.4583
1745.725 1.4477 1.3028 1.1513 1.0867 1.0425 0.9571 0.8781 0.8063 0.7665 0.7864
1765.015 0.7516 0.73 0.7539 0.7244 0.7102 0.7412 0.7047 0.6755 0.6581 0.6733
1784.305 0.7052 0.6992 0.6739 0.6778 0.7245 0.7218 0.7082 0.6455 0.6295 0.6456
1803.594 0.636 0.6924 0.6721 0.6413 0.6687 0.6202 0.5916 0.6028 0.5892 0.6158
1822.884 0.6147 0.6566 0.7266 0.6823 0.6702 0.6754 0.5845 0.5988 0.6734 0.6821
1842.174 0.6949 0.6675 0.6677 0.657 0.6182 0.5936 0.6087 0.6257 0.5899 0.6045
1861.464 0.6334 0.5646 0.55563 0.5855 0.54512 0.6199 0.6953 0.6637 0.639 0.665
1880.754 0.7059 0.705 0.7302 0.729 0.7115 0.7421 0.7769 0.7752 0.7407 0.7271
1900.043 0.753 0.7947 0.7878 0.7854 0.7696 0.7453 0.6606 0.6071 0.6321 0.6218
1919.333 0.5998 0.5854 0.6028 0.6202 0.5977 0.5836 0.5634 0.51536 0.52253 0.53714
1938.623 0.49591 0.48275 0.51253 0.53906 0.532 0.49671 0.4495 0.4206 0.4297 0.5048
1957.913 0.584 0.5625 0.49725 0.4476 0.4397 0.45912 0.468828 0.48935 0.4375 0.4524
1977.202 0.52697 0.48566 0.47812 0.47904 0.45767 0.50138 0.54353 0.55238 0.53646 0.51512
1996.492 0.51048 0.50451 0.50246 0.49871 0.4302 0.3928 0.4415 0.45558 0.4475 0.4351
2015.782 0.45435 0.47992 0.4512 0.4492 0.48936 0.52123 0.48475 0.4188 0.4295 0.4439
2035.072 0.45372 0.50476 0.52353 0.47905 0.4185 0.4229 0.49981 0.4815 0.4992 0.53268
2054.362 0.48132 0.48231 0.48041 0.464347 0.472482 0.52858 0.53572 0.4861 0.48955 0.50422
2073.651 0.4798 0.48523 0.45793 0.3762 0.4024 0.48139 0.45464 0.45638 0.4834 0.462559
2092.941 0.45686 0.48694 0.55723 0.53803 0.47745 0.48735 0.50164 0.53078 0.55036 0.48067
2112.231 0.46094 0.49591 0.49147 0.48895 0.5732 0.5769 0.544 0.53692 0.53073 0.5947
2131.521 0.5774 0.48146 0.48605 0.466093 0.48727 0.51948 0.468919 0.50644 0.46035 0.4124
2150.810 0.4118 0.4078 0.4494 0.4433 0.48289 0.52102 0.52713 0.51842 0.48639 0.48036
2170.100 0.50756 0.47434 0.4476 0.51101 0.51445 0.51719 0.55965 0.49903 0.456 0.45708
2189.390 0.4381 0.48524 0.51923 0.5635 0.53964 0.52607 0.49142 0.45957 0.5274 0.55046
2208.680 0.5633 0.4956 0.4267 0.4954 0.53214 0.5788 0.6025 0.56086 0.5931 0.6089
2227.970 0.6234 0.7097 0.7924 0.8318 0.84 0.9161 1.0503 1.2389 1.4313 1.543
2247.259 1.693 1.783 1.813 1.883 1.903 1.803 1.703 1.573 1.3214 1.1664
2266.549 1.0439 0.9225 0.854 0.7781 0.7308 0.6952 0.6539 0.6293 0.5825 0.55999
2285.839 0.5769 0.54842 0.5543 0.5722 0.50952 0.49142 0.54224 0.5819 0.5981 0.55862
2305.129 0.51952 0.54284 0.48868 0.47525 0.50127 0.50443 0.55751 0.55172 0.49013 0.4394
2324.418 0.4503 0.4516 0.50246 0.5744 0.585 0.5872 0.6046 0.5947 0.55366 0.5208
2343.708 0.53023 0.6169 0.6315 0.56265 0.55419 0.6086 0.6611 0.6925 0.6896 0.6545
2362.998 0.601 0.5859 0.54664 0.48047 0.49281 0.55079 0.50454 0.435 0.45828 0.471429
2382.288 0.4441 0.4419 0.47983 0.52443 0.5729 0.5969 0.55261 0.47587 0.50468 0.6012
2401.578 0.6584 0.6418 0.6434 0.6757 0.6516 0.6349 0.6468 0.6861 0.7041 0.6335
2420.867 0.6048 0.6538 0.6242 0.55823 0.55468 0.6067 0.6777 0.6497 0.6041 0.6045
2440.157 0.7179 0.8081 0.7701 0.7737 0.7445 0.6995 0.6858 0.6672 0.6385 0.643
2459.447 0.6099 0.54381 0.6042 0.6322 0.6521 0.6742 0.6589 0.6768 0.6816 0.6885
2478.737 0.6295 0.6173 0.6525 0.6358 0.6142 0.6416 0.6554 0.7002 0.673 0.5851
2498.026 0.6637 0.6237 0.54598 0.54153 0.50772 0.45835 0.4045 0.45654 0.4453 0.464464
2517.316 0.598 0.579 0.51251 0.55942 0.5826 0.55228 0.48362 0.51634 0.6018 0.55863
2536.606 0.5415 0.54923 0.5344 0.47855 0.47696 0.54136 0.5693 0.55977 0.51842 0.52364
2555.896 0.55741 0.5659 0.6265 0.6927 0.6535 0.5895 0.52432 0.55141 0.6188 0.55999
2575.186 0.5897 0.5914 0.6133 0.6695 0.6122 0.5687 0.5651 0.6192 0.6168 0.565
2594.475 0.5919 0.6699 0.6618 0.6532 0.6181 0.50508 0.49411 0.50373 0.5759 0.7121
2613.765 0.6682 0.5935 0.6407 0.6319 0.5853 0.53529 0.47634 0.553 0.6616 0.7499
2633.055 0.7199 0.6205 0.6619 0.5903 0.55289 0.6877 0.6712 0.6404 0.6152 0.5507
2652.345 0.55679 0.6129 0.6539 0.6358 0.6563 0.6829 0.6252 0.5786 0.5924 0.6604
2671.634 0.6867 0.6791 0.7332 0.709 0.6473 0.5503 0.5689 0.6856 0.7627 0.7414
2690.924 0.744 0.8716 0.7955 0.7467 0.8006 0.7714 0.7886 0.8691 0.9132 0.9171
2710.214 0.898 0.9665 0.9731 0.8903 0.8653 0.9063 0.9789 1.0835 1.1247 1.1687
2729.504 1.3795 1.493 1.613 1.693 1.583 1.623 1.753 1.773 1.763 1.763
2748.794 1.703 1.733 1.823 1.643 1.523 1.553 1.483 1.4589 1.493 1.513
2768.083 1.503 1.4309 1.3963 1.4395 1.4019 1.36 1.4373 1.4377 1.4012 1.4449
2787.373 1.4236 1.3472 1.3417 1.4221 1.543 1.563 1.593 1.533 1.623 1.713
2806.663 1.733 1.843 1.783 1.833 2.003 2.173 2.323 2.373 2.433 2.493
2825.953 2.543 2.683 2.913 3.143 3.333 3.463 3.593 3.833 4.063 4.303
2845.242 4.573 4.793 5.043 5.383 5.733 6.033 6.543 7.173 7.813 8.643
2864.532 9.643 10.643 11.813 12.983 14.073 15.043 15.663 16.123 16.563 16.633
2883.822 16.393 16.133 15.683 15.183 14.613 14.183 13.883 13.523 13.313 13.163
2903.112 13.113 13.173 13.313 13.563 13.993 14.623 15.463 16.753 18.323 20.213
2922.401 22.593 25.293 28.013 30.453 32.533 33.863 34.453 34.383 33.443 31.933
2941.691 30.043 27.823 25.683 24.023 22.723 21.573 20.593 19.843 19.093 18.313
2960.981 17.713 17.363 17.133 16.893 16.833 16.993 17.203 17.393 17.443 17.363
2980.271 17.193 16.783 16.173 15.583 14.903 14.143 13.463 13.043 12.973 13.123
2999.561 13.613 14.483 15.573 16.863 18.043 19.033 19.743 20.003 19.933 19.563
3018.850 18.683 17.213 15.583 13.973 12.293 10.713 9.413 8.343 7.563 7.043
3038.140 6.633 6.303 6.083 5.883 5.833 5.813 5.583 5.433 5.423 5.393
3057.430 5.363 5.203 4.983 4.833 4.843 4.683 4.443 4.393 4.133 3.963
3076.720 3.903 3.733 3.693 3.523 3.233 3.133 3.023 2.853 2.823 2.753
3096.009 2.613 2.443 2.283 2.343 2.323 2.193 2.233 2.213 2.173 2.193
3115.299 2.133 2.153 2.273 2.213 2.133 2.163 2.173 2.123 2.123 2.143
3134.589 1.953 1.673 1.533 1.613 1.603 1.4525 1.3251 1.327 1.3155 1.1329
3153.879 0.9939 0.9782 0.9936 0.967 0.7557 0.6832 0.8698 0.9654 0.9581 0.9101
3173.169 0.8677 0.9699 0.9353 0.8255 0.8659 0.8903 0.8788 0.8629 0.8342 0.9205
3192.458 0.9885 0.8012 0.7841 0.7416 0.6281 0.6049 0.6184 0.6563 0.53944 0.5968
3211.748 0.7991 0.7988 0.6677 0.696 0.682 0.6014 0.6097 0.6494 0.6537 0.5875
3231.038 0.629 0.6649 0.6851 0.6783 0.6279 0.6628 0.6448 0.5893 0.5751 0.6459
3250.328 0.6964 0.6506 0.54345 0.53819 0.5936 0.5718 0.6302 0.6251 0.54971 0.6105
3269.617 0.6598 0.53654 0.49768 0.51662 0.48907 0.6095 0.6613 0.6124 0.5843 0.3942
3288.907 0.4181 0.5818 0.46644 0.344 0.309 0.54309 0.7346 0.6164 0.4394 0.359
3308.197 0.49389 0.50816 0.4194 0.4246 0.465182 0.5728 0.6074 0.6379 0.5651 0.5942
3327.487 0.6423 0.4062 0.208 0.198 0.278 0.3828 0.3813 0.377 0.436 0.3765
3346.777 0.48635 0.49091 0.47533 0.4525 0.3857 0.351 0.191 0.081 0.258 0.47803
3366.066 0.4262 0.3939 0.4122 0.52837 0.5941 0.3994 0.3686 0.45563 0.346 0.325
3385.356 0.4232 0.4287 0.50157 0.45369 0.3979 0.44 0.357 0.3995 0.4342 0.3777
3404.646 0.50135 0.53364 0.4145 0.3854 0.5846 0.6259 0.4229 0.47546 0.55472 0.55851
3423.936 0.6314 0.7039 0.6334 0.50952 0.52311 0.49771 0.4521 0.49088 0.53398 0.5983
3443.225 0.766 0.7845 0.54691 0.465538 0.52371 0.4078 0.342 0.323 0.3826 0.4519
3462.515 0.33 0.314 0.448 0.6888 0.7322 0.6056 0.52067 0.464197 0.3967 0.3865
3481.805 0.50189 0.50995 0.54957 0.5704 0.4344 0.4471 0.46275 0.3761 0.465792 0.50552
3501.095 0.52897 0.6213 0.4173 0.331 0.48137 0.7333 0.7984 0.7346 0.8162 0.6037
3520.385 0.416 0.4175 0.3964 0.469118 0.53514 0.5258 0.5581 0.6242 0.50753 0.3831
3539.674 0.3965 0.52799 0.6341 0.579 0.52566 0.4798 0.54039 0.5788 0.54197 0.52674
3558.964 0.4196 0.51459 0.646 0.55071 0.52006 0.52954 0.464466 0.4388 0.4279 0.4161
3578.254 0.47632 0.49435 0.55046 0.578 0.6194 0.5732 0.50711 0.468017 0.3999 0.51052
3597.544 0.53657 0.3756 0.142 0.157 0.385 0.49754 0.51246 0.427 0.3803 0.273
3616.833 0.164 0.3636 0.55464 0.4511 0.308 0.325 0.4157 0.3778 0.305 0.4304
3636.123 0.5647 0.5686 0.462468 0.4438 0.5678 0.578 0.52064 0.4219 0.272 0.345
3655.413 0.3924 0.3885 0.50668 0.463968 0.327 0.331 0.4349 0.49553 0.6079 0.49907
3674.703 0.34 0.4266 0.4195 0.299 0.327 0.4522 0.47976 0.5639 0.7054 0.53099
3693.993 0.3682 0.3677 0.44 0.4032 0.3717 0.52148 0.56284 0.4443 0.45884 0.52789
3713.282 0.408 0.50491 0.5564 0.4368 0.5791 0.6697 0.3788 0.3678 0.50976 0.5656
3732.572 0.53783 0.4289 0.469858 0.50185 0.471347 0.4394 0.47674 0.6657 0.6799 0.55236
3751.862 0.466504 0.4252 0.61 0.6404 0.4523 0.4055 0.47623 0.472306 0.49806 0.53941
3771.152 0.56032 0.49726 0.337 0.318 0.322 0.33 0.5829 0.6073 0.4488 0.5759
3790.441 0.51808 0.416 0.4491 0.344 0.34 0.45968 0.53672 0.55178 0.658 0.79
3809.731 0.6457 0.6327 0.6655 0.4274 0.336 0.3812 0.3839 0.4224 0.4388 0.432
3829.021 0.4297 0.3769 0.358 0.4204 0.6205 0.7586 0.6408 0.6546 0.6747 0.5863
3848.311 0.7357 0.6735 0.45 0.449 0.4465 0.4178 0.4471 0.466689 0.45977 0.45961
3867.601 0.47426 0.556 0.6237 0.7056 0.6174 0.53744 0.55998 0.52174 0.52839 0.49892
3886.890 0.47419 0.53009 0.51088 0.438 0.49996 0.54819 0.5746 0.5561 0.53257 0.6386
3906.180 0.7268 0.791 0.7547 0.6383 0.54485 0.53757 0.51172 0.591 0.6723 0.6045
3925.470 0.47769 0.48003 0.48125 0.50647 0.729 0.7168 0.6337 0.6059 0.3816 0.295
3944.760 0.4295 0.47584 0.6065 0.686 0.5907 0.435 0.45993 0.597 0.8399 0.9168
3964.049 0.6292 0.52385 0.53365 0.468286 0.4477 0.54447 0.7201 0.7158 0.52413 0.55368
3983.339 0.7792 0.7287 0.54262 0.625 0.668 0.49208 0.54279 0.48502 0.3821 0.7257
##END=
