##TITLE=1,2-Bis(allyloxy)ethane
##JCAMP-DX=4.24
##DATA TYPE=INFRARED SPECTRUM
##ORIGIN=EPA-IR VAPOR PHASE LIBRARY
##OWNER=SRD/NIST
Collection (C) 2018 copyright by the U.S. Secretary of Commerce
on behalf of the United States of America. All rights reserved.
##CAS REGISTRY NO=7529-27-3
##MOLFORM=C 8 H 14 O 2
##$NIST SOURCE=MSDC-IR
##STATE=gas
##XUNITS=1/CM
##YUNITS=ABSORBANCE
##XFACTOR=1.
##YFACTOR=0.001
##DELTAX=1.92898
##FIRSTX=549.8
##LASTX=4000.7
##FIRSTY=6.4
##MAXX=4000.7
##MINX=549.759
##MAXY=0.21786
##MINY=0
##NPOINTS=1790
##XYDATA=(X++(Y..Y))
549.759 6.4 7.1 6.86 5.92 6.37 5.91 5.8 6.04 5.36 5.44
569.049 4.12 3.07 3.78 3.61 3.74 4.33 4.08 3.25 3.01 3.36
588.339 3.7 3.93 3.82 3.68 3.47 3.89 3.98 4 3.7 3.8
607.628 4.14 4.01 4.87 5.25 4.95 5.04 5.02 4.82 5.44 5.7
626.918 5.1 4.97 5.47 5.85 5.76 5.42 5.01 4.55 4.42 4.96
646.208 5.21 5.1 4.72 4.37 4.19 4.01 4.32 3.69 2.96 2.78
665.498 2.79 2.81 2.54 2.8 3.46 3.84 3.34 2.77 2.55 1.96
684.787 1.84 1.93 2.25 2.29 1.4968 1.408 1.4518 1.57 1.4367 1.4177
704.077 1.76 1.94 1.87 1.422 1.0561 1.1943 1.81 1.78 1.57 1.5227
723.367 1.4363 1.79 2.08 1.63 1.5537 1.77 1.69 1.3949 1.4609 1.3776
742.657 0.9847 1.3455 1.436 1.1222 1.1543 1.0046 0.9286 1.4364 1.68 1.64
761.947 1.1898 1.0433 0.9911 0.9109 1.5425 2 1.85 1.78 2.27 2.26
781.236 1.71 1.58 1.72 1.64 2.1 2.57 2.59 3.11 2.7 2.53
800.526 2.92 2.35 2.53 2.84 3.33 3.48 3.35 3.52 3.53 3.85
819.816 3.73 4.06 4.96 5.65 6.37 6.74 6.67 7.08 7.32 7.43
839.106 8.01 8.44 8.56 8.6 8.85 9.11 9.26 9.47 10 10.55
858.395 10.85 11.25 11.48 11.97 12.77 13.69 14.12 14.41 14.81 14.57
877.685 15.09 16.53 17.2 17.26 18.09 19.22 19.85 20.17 20.93 22.43
896.975 24.17 26.09 27.71 29.9 33.17 36.15 39.84 44.05 48.6 54.03
916.265 59.84 65.59 71.01 74.66 76.74 78.03 76.82 73.54 69.09 64.03
935.555 58.79 53.88 49.93 46.36 42.91 40.67 38.68 36.95 35.89 34.78
954.844 33.92 33.86 34.26 34.34 34.99 35.48 35.94 37.36 39.01 40.48
974.134 41.86 43.71 45.91 48.23 50.43 52.62 55.1 57.67 60.07 61.72
993.424 62.36 62.25 62.58 62.37 61.41 59.8 57.42 54.95 53.17 51.87
1012.714 50.66 50.04 49.48 49.38 49.07 47.87 47.07 47.12 47.23 47.19
1032.003 46.83 46.22 46.23 45.73 44.86 45.39 46.32 46.24 45.16 44.09
1051.293 44.49 46.11 47.8 48.94 49.47 50.69 53.07 56.92 61.34 65.39
1070.583 69.15 73.08 78.03 84.15 91.6 98.58 105.84 115.09 124.12 133.99
1089.873 144.07 154.72 165.3 175.88 186.12 194.51 201.69 205.73 209.88 213.43
1109.163 215.22 216.86 217.86 214.12 208.66 204.8 199.82 194.63 187.61 180.13
1128.452 172.22 165.1 158.61 151.12 144 136.33 129.39 123.54 117.97 112.51
1147.742 107.51 102.55 97.09 91.58 85.77 79.58 73.72 66.4 59.07 53.18
1167.032 48.23 43.72 38.21 33.68 31.15 28.68 25.47 23.47 21.79 19.8
1186.322 18.05 16.86 15.99 15.21 14.11 12.36 12.57 12.79 11.27 10.02
1205.611 10.62 9.93 8.77 8.67 9.54 10.76 10 10.45 11.06 10.09
1224.901 11.04 13.24 13.36 13.2 14.36 15.95 16.81 17.78 18.6 18.08
1244.191 18.32 19.74 20.29 20.82 21.72 21.83 22.68 23.75 23.85 25.22
1263.481 25.74 24.72 24.88 24.84 23.72 23.4 23.64 23.58 23.03 22.67
1282.771 22.58 22.81 22.88 22.54 22.68 22.36 21.82 21.3 20.22 19.03
1302.060 18.36 17.68 16.96 16.56 16.24 16.45 16.81 17.09 17.79 18.41
1321.350 19.18 20.21 21.1 22.12 23.28 24.76 26.78 29.08 31.68 34.36
1340.640 37.1 39.35 40.98 42.08 42.33 41.93 40.62 38.67 36.42 33.88
1359.930 31.15 28.62 26.68 24.95 23.32 21.82 20.4 19.04 17.87 16.71
1379.219 15.71 14.98 14.27 13.7 13.33 13.07 12.86 12.93 13.06 13.31
1398.509 14.13 15.06 15.51 16.35 17.48 18.47 19.73 21.25 22.87 24.69
1417.799 26.3 27.52 28.31 28.75 28.77 28.25 27.15 25.7 23.98 22.17
1437.089 20.93 19.75 18.73 18.27 18.11 18.19 18.3 18.66 19.15 19.35
1456.378 19.38 19.66 19.48 19.01 18.51 17.77 16.97 16.15 15.2 14.04
1475.668 12.94 12.13 11.36 10.27 9.39 8.75 8.09 7.53 7.01 6.52
1494.958 5.88 5.18 4.87 4.71 4.57 4.16 3.73 3.72 3.54 3.63
1514.248 3.67 3.23 3.04 3.08 2.98 3.04 3.09 2.89 2.97 2.89
1533.538 2.75 2.88 3 3.08 2.94 2.83 2.82 2.92 2.98 2.85
1552.827 3 3.02 2.95 3.01 2.87 2.81 2.77 2.6 2.46 2.57
1572.117 2.82 2.74 2.63 2.48 2.27 2.57 2.88 2.83 2.76 2.79
1591.407 2.79 2.71 2.75 2.93 3.18 3.04 2.99 3.26 3.39 3.28
1610.697 3.31 3.51 3.58 3.78 4.04 4.17 4.51 4.96 5.27 5.53
1629.986 6.04 6.7 7.18 7.84 8.39 8.71 9.26 9.72 10.03 9.94
1649.276 9.67 9.19 8.43 7.93 7.07 6.41 6.08 5.37 4.71 4.25
1668.566 3.9 3.71 3.42 2.98 2.62 2.65 2.71 2.33 1.95 1.99
1687.856 2.03 2.01 2.12 1.96 1.77 1.86 1.68 1.62 1.7 1.66
1707.146 1.96 1.89 1.57 1.75 1.81 1.62 1.78 1.65 1.5302 1.7
1726.435 1.65 1.74 1.59 1.3626 1.5087 1.74 1.76 1.69 1.68 1.7
1745.725 1.69 1.64 1.57 1.58 1.67 1.58 1.5271 1.84 1.91 1.59
1765.015 1.4031 1.5097 1.58 1.4908 1.67 1.64 1.57 1.69 1.69 1.5496
1784.305 1.4799 1.61 1.57 1.4352 1.393 1.3731 1.5321 1.68 1.63 1.63
1803.594 1.73 1.73 1.8 1.96 1.91 1.93 2.11 2.11 2.21 2.57
1822.884 2.83 2.93 3.11 3.35 3.62 3.79 4.02 4.53 5.18 5.63
1842.174 5.77 6.18 6.59 6.81 6.97 7.03 6.96 6.71 6.41 6.12
1861.464 5.83 5.53 5.21 4.86 4.63 4.32 3.79 3.53 3.44 3.3
1880.754 3.26 3.19 3.06 2.81 2.71 2.64 2.58 2.71 2.7 2.59
1900.043 2.47 2.51 2.6 2.68 2.69 2.65 2.72 2.76 2.75 2.57
1919.333 2.45 2.68 2.75 2.68 2.79 2.71 2.67 2.88 2.88 2.74
1938.623 2.76 2.97 3.12 3.15 3.12 3.01 3.13 3.22 3.24 3.63
1957.913 3.6 3.35 3.52 3.87 3.9 3.87 3.95 3.9 3.96 3.91
1977.202 4.16 4.35 4.28 4.25 4.27 4.32 4.26 4.23 4.25 4.06
1996.492 3.97 4.06 4.08 4.03 3.9 3.97 3.96 3.94 4.04 3.8
2015.782 3.64 3.63 3.5 3.46 3.46 3.59 3.53 3.19 3.23 3.41
2035.072 3.17 3.12 3.32 3.32 3.21 3.12 3.19 3.28 3.29 3.27
2054.362 3.26 3.24 3.15 3.05 2.95 3.08 3.37 3.37 3.24 3.23
2073.651 3.35 3.42 3.39 3.41 3.41 3.37 3.35 3.25 3.23 3.18
2092.941 3.08 3.05 3.21 3.46 3.56 3.48 3.27 3.04 2.96 3.03
2112.231 2.9 2.75 2.77 2.75 2.86 2.82 2.64 2.67 2.8 2.73
2131.521 2.6 2.62 2.59 2.55 2.53 2.62 2.48 2.37 2.29 2.24
2150.810 2.2 2.22 2.3 2.14 2.13 2.24 2.26 2.26 2.29 2.44
2170.100 2.47 2.22 2.05 2.08 1.98 1.87 2.09 2.17 2.1 2.19
2189.390 2.15 1.84 1.98 2.15 2.16 2.28 2.15 2.05 2.04 2.21
2208.680 2.25 2.09 2.03 2.07 2.17 2.37 2.31 2.07 2.05 2.09
2227.970 1.93 1.99 2.07 2.01 1.96 2.09 2.24 2.19 2.29 2.33
2247.259 2.35 2.3 2.17 2.16 2.04 2.01 2.06 2.17 2.35 2.31
2266.549 2.17 2.04 2.17 2.3 2.17 1.84 1.68 1.8 2.04 2.16
2285.839 2.14 2.07 1.79 1.75 2.11 2.02 1.91 2.05 2.07 2.08
2305.129 1.86 1.74 1.79 1.92 1.9 1.84 1.75 1.53 1.5171 1.72
2324.418 1.92 1.89 1.9 1.76 1.63 1.67 1.58 1.64 1.64 1.8
2343.708 1.97 1.84 1.59 1.73 1.91 1.72 1.74 1.9 1.96 1.74
2362.998 1.72 1.97 1.79 1.62 1.91 1.99 1.94 1.99 2.01 1.93
2382.288 1.75 1.72 1.78 2.03 2.03 1.68 1.65 1.84 1.91 1.95
2401.578 1.75 1.58 1.87 1.96 1.87 1.92 1.97 1.78 1.57 1.5587
2420.867 1.7 2.08 2.05 1.86 1.93 1.99 1.95 1.94 1.8 1.75
2440.157 1.92 1.84 1.67 1.6 1.64 1.68 1.84 1.65 1.57 1.62
2459.447 1.5067 1.69 1.72 1.85 1.64 1.3803 1.4209 1.5576 1.76 1.85
2478.737 2.03 1.92 1.79 1.92 1.84 1.74 1.91 1.72 1.2369 1.1997
2498.026 1.59 1.65 1.4047 1.3516 1.2918 1.2371 1.4272 1.59 1.5241 1.56
2517.316 1.68 1.75 1.72 1.512 1.4235 1.4935 1.5479 1.68 1.63 1.72
2536.606 1.88 1.6 1.62 1.94 1.99 1.94 2.1 2.07 2.19 2.16
2555.896 1.92 1.72 1.68 1.83 1.88 1.96 2.03 2.12 2 2
2575.186 2.22 2.33 2.15 2 2.12 2.41 2.72 2.75 2.48 2.17
2594.475 2.19 2.37 2.37 2.36 2.27 2.48 2.67 2.62 2.73 2.64
2613.765 2.44 2.43 2.29 2.19 2.38 2.52 2.43 2.35 2.36 2.36
2633.055 2.56 2.62 2.51 2.51 2.76 3.03 3.17 3.05 3.07 3.13
2652.345 3.05 3.26 3.13 2.97 3.21 3.26 3.33 3.85 4.15 4.03
2671.634 3.93 3.88 4.07 4.48 4.8 5 4.91 5.11 5.08 5.12
2690.924 5.95 6.29 6.3 6.45 6.77 6.71 6.47 6.97 7.1 6.89
2710.214 7.18 7.37 7.6 7.68 7.72 7.73 7.72 8.1 8.27 8.22
2729.504 8.18 7.99 7.93 8.3 8.72 8.75 8.67 8.98 9 8.91
2748.794 9.07 9.14 9.21 9.38 9.65 10.18 10.59 10.58 10.88 11.39
2768.083 11.62 11.87 12.13 12.5 12.7 12.95 13.5 13.59 13.6 14.12
2787.373 14.56 14.87 15.51 16.24 16.92 17.26 17.56 18.39 18.97 19.44
2806.663 20.43 21.23 21.94 22.8 24.08 25.78 27.22 29.05 31.28 33.07
2825.953 35.46 38.19 41.06 44.26 47.59 51.67 56.16 60.5 64.52 69.01
2845.242 73.91 79.11 84.48 89.05 93.07 96.59 99.48 101.85 103.35 104.04
2864.532 104.16 104.07 103.56 101.99 99.78 97.43 94.99 92.55 90.33 88.43
2883.822 86.61 85.01 83.33 81.65 80.32 79.05 78.19 77.65 76.92 76.1
2903.112 75.25 74.64 74.51 74.55 73.87 72.95 72.99 72.93 72.46 72.06
2922.401 71.47 71.03 70.62 70.31 70.44 69.83 69.36 69.49 69.06 68.37
2941.691 67.1 65.63 63.95 61.57 59.04 56.42 53.41 50.41 47.51 44.69
2960.981 42.49 40.66 38.51 36.78 34.72 32.76 31.88 30.93 29.95 29.43
2980.271 28.93 28.4 28.43 28.29 28 27.44 26.8 26.5 26.14 25.61
2999.561 25.26 24.59 23.77 23.21 22.82 22.6 22.86 23.4 23.91 24.28
3018.850 23.95 23.78 23.52 22.51 21.59 20.4 18.62 17.17 15.76 14.6
3038.140 13.74 12.89 12.39 11.96 11.76 11.92 11.76 11.69 12.01 12.25
3057.430 12.7 13.01 13.4 14.49 15.42 16.08 17.07 18.19 18.99 20.05
3076.720 21.43 23.17 25.28 27.23 28.54 28.85 29.05 29.56 29.34 28.49
3096.009 27.26 25.7 23.75 21.62 19.78 18.06 16.57 14.65 12.76 11.4
3115.299 10.05 8.8 7.54 6.22 5.61 5.45 5.02 4.93 4.97 4.42
3134.589 4.1 3.79 3.39 3.34 3.32 3.16 2.9 3.1 3.07 2.87
3153.879 2.69 2.55 2.56 2.32 2.31 2.48 2.66 2.2 1.85 1.98
3173.169 1.86 1.69 1.87 2.4 1.89 1.3424 1.9 2.19 1.98 1.98
3192.458 1.72 1.67 1.85 2.01 2.31 2.09 1.78 2.17 2.32 2.02
3211.748 2.25 2.12 1.456 1.59 1.6 1.5289 2.07 1.97 1.79 2.34
3231.038 2.42 1.68 1.69 2.19 2.14 1.82 1.72 1.94 1.72 1.3854
3250.328 2.06 2.16 1.3305 1.0355 1.1897 1.3631 1.5202 1.4552 1.2994 1.74
3269.617 2 1.82 1.95 2.13 1.57 0.969 1.1979 1.3211 1.3696 1.3146
3288.907 1.176 1.1642 1.2784 1.1976 1.428 1.4608 1.3008 1.48 1.5356 1.6
3308.197 1.0602 0.8586 1.3734 1.3688 1.012 1.1651 0.65191 0.296 1.1471 1.79
3327.487 1.78 1.5231 1.5054 1.59 1.5207 1.3762 1.4982 1.4723 1.1184 0.64886
3346.777 0.7545 1.0617 0.8904 1.0705 1.3894 1.0877 0.7408 0.9508 0.838 0.9205
3366.066 1.2313 0.971 0.7871 0.993 0.8319 0.65421 0.9188 1.1018 1.3936 1.2503
3385.356 1.0309 1.0207 1.1447 1.0798 0.7911 0.9933 0.8892 0.8792 1.2794 1.2068
3404.646 1.0406 1.1427 0.9964 1.1316 1.4812 0.7962 1.0527 1.4104 0.8836 0.9343
3423.936 1.2412 1.5511 1.3448 1.0955 1.1319 1.2859 1.2711 1.3135 1.4598 1.4455
3443.225 1.2324 1.2521 1.3398 1.3274 1.3068 1.2403 1.2111 0.9344 1.3367 1.436
3462.515 1.0355 1.2753 1.0714 0.9118 1.4208 1.57 1.4451 1.64 1.3562 1.3082
3481.805 1.455 1.3491 0.8071 0.7316 1.4913 1.1649 0.7993 0.9341 0.6996 0.9606
3501.095 0.875 0.232 0.9029 1.3859 1.2451 1.4096 1.73 1.3905 0.9534 0.9233
3520.385 0.58374 0.7624 1.2971 1.3842 1.2645 1.069 0.958 0.8807 1.0356 1.099
3539.674 0.9874 1.1932 0.7909 0 0.097 0.6819 0.844 0.8181 1.2163 1.63
3558.964 1.222 1.2325 1.61 1.4204 0.8579 0.8335 1.2103 1.0956 0.721 0.356
3578.254 0.7246 1.0245 1.1077 1.1807 0.8274 0.7152 0.8374 0.8337 0.8223 0.9209
3597.544 1.1571 0.9501 0.5134 0.4825 0.7828 0.8226 0.6797 0.8289 1.0365 1.2066
3616.833 1.1456 0.9767 0.8278 0.4665 0.63306 1.0989 1.0486 1.0635 1.1107 0.9664
3636.123 0.564276 0.211 0.202 0.60145 0.9126 0.9132 0.7111 0.401 0.563045 0.8348
3655.413 1.4621 1.93 1.68 1.3614 1.3394 1.3094 1.019 0.5741 0.4653 0.7339
3674.703 0.61283 0.5002 0.8632 0.9835 0.8591 0.8828 1.0588 1.2646 0.8348 0.9012
3693.993 0.9976 1.086 1.0258 0.8474 0.7452 0.9437 1.59 1.3659 1.0995 1.2984
3713.282 1.3679 1.0571 0.9821 0.9945 1.1045 1.1928 1.1938 1.0529 0.6941 1.1228
3732.572 1.5057 0.8246 0.567917 0.8609 1.0532 1.2974 1.3199 1.1465 1.032 0.8419
3751.862 0.945 1.2535 1.2346 0.9287 1.1141 1.3563 0.7021 0.424 0.9778 1.4836
3771.152 1.1931 1.0269 1.2263 1.1638 1.58 1.72 1.4945 1.242 1.3328 1.4158
3790.441 1.1502 1.3976 1.5346 1.0438 0.7817 1.2786 1.4786 1.3267 1.3979 1.2561
3809.731 1.1688 1.1449 1.1412 1.71 1.78 0.8827 0.268 0.8592 1.5157 1.59
3829.021 1.67 1.78 1.534 1.0964 1.2225 1.4742 1.2284 0.8458 0.8838 1.2383
3848.311 0.9279 0.8644 1.2174 1.3327 1.5562 1.3919 1.2706 1.63 1.5012 1.0293
3867.601 1.0165 1.1838 1.2877 1.3109 1.1224 1.1181 1.5483 1.67 1.3262 1.2456
3886.890 1.318 1.57 1.88 1.83 1.4693 1.66 1.81 1.68 2.46 2.12
3906.180 1.2644 1.4715 1.71 1.63 1.2474 1.63 1.87 1.3544 0.9117 0.4767
3925.470 1.0665 1.3376 0.7281 0.8198 1.087 1.8 1.95 1.4176 1.58 2.33
3944.760 2.5 1.96 1.67 1.73 1.5106 1.59 1.89 1.5114 1.2381 1.3753
3964.049 1.81 1.98 2.13 2.11 2.16 1.91 1.4981 1.64 2.35 2.42
3983.339 2.11 2.63 2.67 2.11 1.95 2.58 2.49 2.08 2.09 1.88
##END=
