##TITLE=2,6-Dichlorobenzyl thiocyanate
##JCAMP-DX=4.24
##DATA TYPE=INFRARED SPECTRUM
##ORIGIN=EPA-IR VAPOR PHASE LIBRARY
##OWNER=SRD/NIST
Collection (C) 2018 copyright by the U.S. Secretary of Commerce
on behalf of the United States of America. All rights reserved.
##CAS REGISTRY NO=7534-64-7
##MOLFORM=C 8 H 5 Cl 2 N S
##$NIST SOURCE=MSDC-IR
##STATE=gas
##XUNITS=1/CM
##YUNITS=ABSORBANCE
##XFACTOR=1.
##YFACTOR=0.001
##DELTAX=1.92934
##FIRSTX=549.9
##LASTX=3999.5
##FIRSTY=0.8865
##MAXX=3999.53
##MINX=549.863
##MAXY=0.045538
##MINY=0
##NPOINTS=1789
##XYDATA=(X++(Y..Y))
549.863 0.8865 1.0037 0.9554 0.9766 1.1297 1.0652 1.0273 1.0308 1.0651 1.0668
569.156 1.0644 0.9834 1.0459 1.1487 1.1407 1.2201 1.1714 1.0808 1.2025 1.2158
588.450 1.1342 1.2381 1.2472 1.2918 1.2713 1.2516 1.354 1.4555 1.5178 1.5195
607.743 1.565 1.5487 1.6721 1.7134 1.5466 1.5391 1.5867 1.5276 1.4413 1.435
627.037 1.454 1.5675 1.6727 1.6954 1.828 1.928 2.068 2.348 2.688 3.038
646.330 3.428 3.848 4.208 4.458 4.668 4.778 4.708 4.628 4.578 4.538
665.624 4.538 4.518 4.438 4.428 4.458 4.368 4.298 4.198 4.028 3.838
684.917 3.538 3.198 2.878 2.598 2.408 2.248 2.058 1.908 1.788 1.758
704.210 1.6785 1.5713 1.5823 1.6392 1.6697 1.6351 1.6955 1.808 1.858 1.988
723.504 2.178 2.468 2.788 3.158 3.658 4.178 4.778 5.448 6.078 6.638
742.797 7.278 8.038 8.958 10.118 11.648 13.648 16.038 18.678 21.288 23.628
762.091 25.748 27.838 29.988 32.158 34.008 35.008 35.518 37.208 39.508 36.828
781.384 29.608 23.938 19.688 15.378 11.418 8.328 6.208 4.948 4.228 3.748
800.678 3.488 3.338 3.208 3.028 2.998 3.078 3.178 3.298 3.418 3.548
819.971 3.588 3.578 3.598 3.488 3.248 3.078 2.838 2.538 2.328 2.168
839.264 1.958 1.828 1.788 1.758 1.758 1.748 1.748 1.808 1.828 1.808
858.558 1.898 2.088 2.298 2.548 2.948 3.418 4.068 5.048 6.408 8.288
877.851 10.828 13.858 17.088 20.078 22.338 23.588 23.768 22.878 20.988 18.198
897.145 14.698 11.228 8.458 6.408 4.898 3.858 3.118 2.598 2.268 1.988
916.438 1.758 1.5797 1.3982 1.2891 1.2635 1.2216 1.1322 1.1146 1.1029 1.0537
935.732 1.0845 1.0952 1.0869 1.0857 1.0507 1.1201 1.1828 1.1981 1.2505 1.2667
955.025 1.2774 1.2962 1.3348 1.3374 1.3471 1.3955 1.3783 1.3421 1.3194 1.2688
974.318 1.2579 1.2554 1.2122 1.1578 1.0591 0.977 0.9525 0.9662 0.9686 0.93
993.612 0.9561 0.9732 0.9379 0.9657 0.9815 0.9897 1.0607 1.086 1.0709 1.0991
1012.905 1.0776 1.057 1.1206 1.1663 1.134 1.0588 1.0653 1.1313 1.122 1.11
1032.199 1.114 1.1015 1.1126 1.1352 1.1181 1.0982 1.1147 1.1434 1.1626 1.2019
1051.492 1.2101 1.1972 1.2452 1.321 1.3647 1.4136 1.5488 1.6768 1.828 2.048
1070.786 2.268 2.558 2.968 3.508 4.248 5.148 6.158 7.328 8.678 10.068
1090.079 11.228 12.088 12.698 12.848 12.248 10.898 9.388 7.928 6.578 5.438
1109.372 4.668 4.408 4.578 4.918 5.328 5.868 6.528 7.348 8.128 8.788
1128.666 9.508 9.958 9.968 9.778 9.428 8.958 8.258 7.418 6.488 5.618
1147.959 4.858 4.308 3.918 3.588 3.318 3.028 2.818 2.568 2.418 2.468
1167.253 2.328 2.158 2.088 2.018 2.008 2.008 2.008 1.978 1.968 2.188
1186.546 2.378 2.368 2.478 2.628 2.758 3.188 3.598 4.068 4.668 5.308
1205.840 6.018 6.468 6.648 6.958 6.958 6.408 5.898 5.208 4.568 4.288
1225.133 3.978 3.578 3.548 3.798 4.318 5.178 6.108 7.388 8.798 10.238
1244.426 11.418 12.048 12.238 11.848 10.968 9.708 8.288 6.738 5.258 4.188
1263.720 3.438 2.808 2.438 2.168 1.988 1.898 1.738 1.6755 1.5914 1.4704
1283.013 1.4113 1.3498 1.3536 1.3884 1.3077 1.2633 1.2704 1.2483 1.3233 1.4301
1302.307 1.426 1.3952 1.3959 1.3952 1.3951 1.3629 1.3292 1.2707 1.1814 1.1668
1321.600 1.1841 1.1426 1.0725 1.0697 1.0734 1.056 1.032 1.0112 1.0292 1.0386
1340.894 1.0491 1.0593 1.079 1.1092 1.1325 1.1428 1.1392 1.1608 1.1774 1.1187
1360.187 1.0782 1.1154 1.1358 1.1163 1.1005 1.1186 1.1425 1.1606 1.2022 1.2513
1379.480 1.3286 1.4081 1.4551 1.5128 1.5893 1.738 1.898 1.978 2.048 2.138
1398.774 2.298 2.458 2.608 2.848 3.148 3.508 3.988 4.588 5.348 6.358
1418.067 7.688 9.518 11.798 14.898 19.038 24.018 29.808 35.748 40.888 44.298
1437.361 45.538 44.768 42.238 38.048 32.458 26.078 19.698 14.448 10.488 7.798
1456.654 6.008 4.848 4.248 3.938 3.818 3.698 3.598 3.518 3.428 3.318
1475.948 3.168 2.988 2.878 2.828 2.808 2.828 2.958 3.038 3.048 3.078
1495.241 3.078 2.968 2.818 2.708 2.548 2.378 2.258 2.098 1.988 1.938
1514.534 1.888 1.838 1.768 1.718 1.728 1.738 1.768 1.808 1.848 1.948
1533.828 2.118 2.298 2.498 2.888 3.328 3.818 4.498 5.408 6.568 8.028
1553.121 9.788 11.958 14.248 16.638 18.778 20.238 21.198 21.568 21.148 19.988
1572.415 18.338 16.558 14.858 13.388 12.098 10.818 9.428 7.908 6.448 5.228
1591.708 4.208 3.408 2.848 2.438 2.188 1.998 1.878 1.818 1.778 1.728
1611.002 1.7011 1.6549 1.6269 1.5888 1.5227 1.4696 1.4516 1.4185 1.3748 1.3721
1630.295 1.4082 1.3998 1.3722 1.4218 1.43 1.4 1.3754 1.3812 1.4621 1.4591
1649.588 1.4171 1.4704 1.4788 1.4595 1.4588 1.4813 1.5653 1.6672 1.758 1.788
1668.882 1.778 1.728 1.6242 1.5223 1.4328 1.3089 1.2198 1.1704 1.1034 1.0477
1688.175 1.0105 0.9772 0.9338 0.9336 0.9609 0.9533 0.99 0.9867 0.976 1.0087
1707.469 0.9981 1.0052 0.9788 0.9325 0.962 0.9932 1.0057 0.958 0.8962 0.8825
1726.762 0.8731 0.9291 0.9502 0.9334 0.9526 0.9537 0.9893 0.9802 0.9269 0.9645
1746.056 0.9871 0.9345 0.8918 0.9092 0.9492 0.9941 0.9689 0.9572 0.9954 0.9956
1765.349 1.0454 1.106 1.1641 1.238 1.3653 1.5029 1.5859 1.6762 1.758 1.768
1784.642 1.738 1.6701 1.5477 1.4201 1.2774 1.1274 1.0137 0.9438 0.8925 0.8637
1803.936 0.8354 0.79921 0.79137 0.79723 0.8213 0.8192 0.80363 0.78798 0.78609 0.78542
1823.229 0.80701 0.8592 0.8696 0.8916 0.9209 0.9315 0.9398 0.9623 1.0392 1.1456
1842.523 1.2239 1.3071 1.3846 1.4827 1.6048 1.6972 1.758 1.808 1.808 1.758
1861.816 1.6615 1.5384 1.3932 1.254 1.1621 1.0311 0.9687 0.9428 0.9052 0.8943
1881.110 0.8748 0.833 0.79597 0.80309 0.79271 0.77411 0.79725 0.8236 0.8278 0.8203
1900.403 0.8268 0.8284 0.8786 0.9321 0.9853 1.0619 1.1022 1.1863 1.3141 1.4793
1919.696 1.6403 1.758 1.878 1.988 2.068 2.118 2.108 2.028 1.928 1.798
1938.990 1.6375 1.4681 1.2774 1.1282 1.0621 1.0042 0.9069 0.8459 0.8293 0.78004
1958.283 0.78834 0.81374 0.81077 0.80508 0.78806 0.8036 0.8455 0.8605 0.81739 0.80544
1977.577 0.80869 0.80956 0.8264 0.8356 0.81374 0.81622 0.844 0.838 0.8513 0.8664
1996.870 0.8803 0.8681 0.8609 0.8892 0.9185 0.9519 0.9327 0.909 0.992 1.0526
2016.164 1.0414 1.0698 1.0741 1.0661 1.078 1.1202 1.1365 1.1035 1.0693 1.0455
2035.457 1.0676 1.0917 1.0809 1.0673 1.0904 1.1265 1.11 1.0838 1.059 1.0191
2054.750 1.0066 0.9882 0.9582 0.9288 0.9318 0.9709 0.9542 0.8918 0.8562 0.8414
2074.044 0.8541 0.8599 0.8674 0.8902 0.8862 0.8845 0.9014 0.8837 0.8398 0.8294
2093.337 0.8433 0.8496 0.8607 0.8869 0.9069 0.9103 0.9092 0.8931 0.8587 0.8715
2112.631 0.8746 0.8707 0.9193 0.9319 0.9378 0.9534 0.966 1.0263 1.1099 1.184
2131.924 1.2524 1.316 1.3869 1.5193 1.693 1.898 2.128 2.348 2.668 3.088
2151.218 3.548 4.118 4.638 5.098 5.438 5.568 5.488 5.248 4.838 4.268
2170.511 3.618 2.958 2.418 2.018 1.738 1.5371 1.4087 1.2748 1.1567 1.0562
2189.804 0.9712 0.9521 0.9239 0.8831 0.818 0.7989 0.80979 0.81626 0.8186 0.77317
2209.098 0.7574 0.77367 0.76322 0.76104 0.73001 0.7078 0.726979 0.72976 0.74512 0.7444
2228.391 0.6994 0.6731 0.6695 0.6778 0.6748 0.7015 0.73723 0.73194 0.73779 0.720883
2247.685 0.717636 0.722253 0.73017 0.74423 0.7538 0.759 0.721484 0.73675 0.77238 0.7614
2266.978 0.79433 0.78525 0.75715 0.79322 0.8415 0.8677 0.8701 0.842 0.8032 0.8257
2286.272 0.8581 0.8212 0.80262 0.80089 0.79678 0.8389 0.8768 0.8685 0.8566 0.8517
2305.565 0.8728 0.9043 0.9269 0.9366 0.9015 0.9168 0.9449 0.9198 0.9253 0.9446
2324.858 0.9102 0.8805 0.9125 0.9042 0.8403 0.8261 0.8262 0.8286 0.8232 0.80719
2344.152 0.8378 0.80927 0.7916 0.8198 0.77269 0.73905 0.73431 0.726376 0.70877 0.6977
2363.445 0.75577 0.78107 0.71249 0.6808 0.71623 0.702 0.6386 0.646 0.6749 0.6761
2382.739 0.7048 0.693 0.6395 0.6322 0.625 0.615 0.6364 0.6544 0.6655 0.6845
2402.032 0.67 0.6747 0.70949 0.7007 0.717922 0.725861 0.719264 0.724351 0.6887 0.682
2421.326 0.6543 0.6264 0.6369 0.6647 0.6753 0.6324 0.6349 0.6563 0.6536 0.6619
2440.619 0.6974 0.7045 0.6693 0.6955 0.7066 0.6902 0.687 0.6738 0.6738 0.6848
2459.912 0.71602 0.73232 0.725819 0.74015 0.77777 0.77967 0.77957 0.77159 0.77608 0.79269
2479.206 0.7742 0.76348 0.77889 0.79086 0.79048 0.80189 0.80553 0.80413 0.79901 0.75812
2498.499 0.73486 0.73787 0.7442 0.75725 0.71412 0.6538 0.6364 0.7035 0.79329 0.74549
2517.793 0.7048 0.7064 0.6652 0.6708 0.696 0.71924 0.74818 0.738 0.73796 0.77972
2537.086 0.77919 0.81246 0.81612 0.76599 0.77984 0.78933 0.77541 0.74355 0.7599 0.76657
2556.380 0.77664 0.78048 0.72598 0.73607 0.72911 0.6644 0.6345 0.6743 0.7052 0.6764
2575.673 0.6567 0.6678 0.6504 0.629 0.6559 0.6826 0.7076 0.74621 0.73205 0.6783
2594.966 0.7006 0.73583 0.723051 0.74469 0.73368 0.6882 0.688 0.6698 0.6736 0.6748
2614.260 0.6343 0.6858 0.73933 0.70874 0.719461 0.75501 0.76863 0.73708 0.75454 0.8299
2633.553 0.8298 0.81743 0.8597 0.8826 0.8752 0.9173 1.0064 1.0583 1.017 0.9775
2652.847 0.9561 0.8933 0.8594 0.8841 0.8798 0.8383 0.8797 0.902 0.81431 0.77636
2672.140 0.80587 0.8273 0.8478 0.8405 0.792 0.76015 0.73071 0.6932 0.6924 0.6712
2691.434 0.6544 0.654 0.589 0.559 0.566 0.589 0.6919 0.65 0.564 0.6589
2710.727 0.6752 0.6201 0.6634 0.6531 0.585 0.547 0.557 0.572 0.529 0.5
2730.020 0.511 0.564 0.56 0.546 0.587 0.556 0.52 0.563 0.532 0.475
2749.314 0.515 0.515 0.463 0.454 0.468 0.474 0.489 0.49 0.447 0.434
2768.607 0.503 0.541 0.497 0.471 0.498 0.453 0.446 0.518 0.525 0.547
2787.901 0.506 0.471 0.501 0.506 0.506 0.501 0.509 0.475 0.53 0.597
2807.194 0.561 0.543 0.526 0.515 0.503 0.541 0.573 0.565 0.599 0.653
2826.488 0.6912 0.6567 0.6621 0.722988 0.78274 0.8785 0.8924 0.8665 0.9048 0.8551
2845.781 0.81564 0.78869 0.7364 0.71491 0.74653 0.77698 0.74636 0.7073 0.6667 0.6566
2865.074 0.588 0.497 0.445 0.472 0.447 0.414 0.492 0.487 0.418 0.402
2884.368 0.394 0.358 0.414 0.432 0.418 0.425 0.365 0.404 0.404 0.412
2903.661 0.397 0.294 0.329 0.411 0.461 0.457 0.402 0.407 0.45 0.516
2922.955 0.519 0.424 0.424 0.527 0.509 0.496 0.52 0.471 0.559 0.6647
2942.248 0.6208 0.608 0.6188 0.6205 0.6994 0.78306 0.8487 1.0141 1.1622 1.2006
2961.542 1.352 1.4344 1.2769 1.2275 1.2303 1.114 1.0089 1.0212 1.1079 1.0705
2980.835 0.9373 0.8541 0.80036 0.8283 0.8498 0.7719 0.8401 0.8433 0.6279 0.489
3000.128 0.543 0.608 0.6372 0.679 0.6768 0.6375 0.572 0.578 0.591 0.582
3019.422 0.6226 0.659 0.76365 0.8235 0.74219 0.7064 0.73462 0.77487 0.6809 0.577
3038.715 0.618 0.6 0.514 0.604 0.6898 0.658 0.7796 0.9832 1.1089 1.1082
3058.009 1.2236 1.4755 1.808 2.028 2.178 2.318 2.428 2.458 2.318 2.328
3077.302 2.318 2.238 2.188 2.108 2.088 2.008 1.798 1.6061 1.3947 1.167
3096.596 0.9872 0.79123 0.6548 0.542 0.55 0.6717 0.71688 0.599 0.517 0.508
3115.889 0.553 0.6913 0.81605 0.80585 0.78866 0.8966 0.8365 0.76938 0.8661 0.8621
3135.182 0.75912 0.608 0.586 0.555 0.382 0.394 0.428 0.396 0.418 0.287
3154.476 0.156 0.285 0.252 0.173 0.212 0.186 0.262 0.351 0.37 0.307
3173.769 0.174 0.037 0.105 0.321 0.259 0.125 0.163 0.124 0 0.093
3193.063 0.331 0.321 0.242 0.243 0.276 0.275 0.206 0.186 0.229 0.254
3212.356 0.119 0.196 0.306 0.189 0.233 0.332 0.263 0.213 0.289 0.286
3231.650 0.267 0.239 0.209 0.264 0.211 0.186 0.212 0.122 0.179 0.37
3250.943 0.402 0.309 0.295 0.319 0.331 0.298 0.248 0.311 0.291 0.177
3270.236 0.174 0.194 0.29 0.369 0.312 0.309 0.291 0.331 0.46 0.35
3289.530 0.22 0.272 0.28 0.157 0.144 0.303 0.236 0.082 0.103 0.109
3308.823 0.077 0.194 0.223 0.256 0.351 0.341 0.283 0.237 0.244 0.276
3328.117 0.201 0.204 0.353 0.417 0.363 0.218 0.284 0.444 0.425 0.298
3347.410 0.272 0.322 0.284 0.362 0.364 0.219 0.204 0.25 0.166 0.201
3366.704 0.313 0.292 0.207 0.037 0.075 0.202 0.276 0.265 0.189 0.18
3385.997 0.152 0.198 0.187 0.206 0.241 0.147 0.231 0.288 0.179 0.159
3405.290 0.374 0.416 0.298 0.321 0.377 0.424 0.378 0.324 0.329 0.233
3424.584 0.162 0.231 0.343 0.338 0.299 0.399 0.375 0.352 0.465 0.328
3443.877 0.27 0.353 0.253 0.302 0.358 0.282 0.321 0.286 0.225 0.376
3463.171 0.447 0.351 0.333 0.434 0.52 0.588 0.577 0.405 0.307 0.306
3482.464 0.365 0.456 0.513 0.475 0.44 0.529 0.525 0.456 0.491 0.56
3501.758 0.458 0.374 0.461 0.517 0.465 0.379 0.43 0.535 0.477 0.342
3521.051 0.34 0.376 0.381 0.358 0.359 0.378 0.334 0.358 0.352 0.42
3540.344 0.461 0.426 0.411 0.39 0.461 0.511 0.544 0.478 0.433 0.512
3559.638 0.612 0.6 0.503 0.492 0.521 0.539 0.525 0.528 0.584 0.529
3578.931 0.454 0.389 0.302 0.331 0.376 0.399 0.338 0.361 0.41 0.408
3598.225 0.514 0.447 0.385 0.417 0.426 0.48 0.503 0.546 0.48 0.354
3617.518 0.306 0.342 0.517 0.599 0.545 0.506 0.531 0.472 0.406 0.434
3636.812 0.476 0.572 0.598 0.564 0.466 0.437 0.491 0.518 0.489 0.581
3656.105 0.6435 0.565 0.528 0.566 0.612 0.569 0.494 0.476 0.491 0.52
3675.398 0.6324 0.7033 0.613 0.504 0.459 0.411 0.527 0.509 0.459 0.525
3694.692 0.482 0.463 0.492 0.468 0.469 0.536 0.479 0.597 0.73325 0.605
3713.985 0.513 0.477 0.538 0.558 0.543 0.586 0.6445 0.6347 0.535 0.503
3733.279 0.519 0.482 0.499 0.511 0.442 0.406 0.507 0.567 0.501 0.523
3752.572 0.569 0.531 0.574 0.614 0.6611 0.6554 0.594 0.589 0.562 0.597
3771.866 0.558 0.468 0.498 0.501 0.456 0.53 0.532 0.44 0.515 0.511
3791.159 0.518 0.608 0.57 0.461 0.408 0.455 0.491 0.494 0.468 0.443
3810.452 0.462 0.506 0.524 0.498 0.442 0.437 0.426 0.454 0.516 0.509
3829.746 0.504 0.6712 0.719608 0.567 0.6319 0.6883 0.70812 0.76063 0.71269 0.6652
3849.039 0.6716 0.6782 0.604 0.574 0.542 0.514 0.506 0.597 0.644 0.6673
3868.333 0.6565 0.564 0.535 0.564 0.609 0.6252 0.6478 0.6195 0.6259 0.6889
3887.626 0.75344 0.725604 0.6896 0.725177 0.74005 0.77505 0.80775 0.71372 0.6386 0.6268
3906.920 0.615 0.6671 0.726348 0.6915 0.599 0.603 0.6312 0.604 0.598 0.598
3926.213 0.599 0.598 0.566 0.472 0.402 0.403 0.382 0.389 0.481 0.557
3945.506 0.553 0.539 0.547 0.526 0.502 0.514 0.517 0.579 0.583 0.558
3964.800 0.505 0.428 0.442 0.442 0.482 0.513 0.56 0.54 0.422 0.417
3984.093 0.457 0.448 0.479 0.543 0.605 0.574 0.459 0.476 0.471
##END=
