##TITLE=4-Methoxy-3-methylphenylacetonitrile
##JCAMP-DX=4.24
##DATA TYPE=INFRARED SPECTRUM
##ORIGIN=EPA-IR VAPOR PHASE LIBRARY
##OWNER=SRD/NIST
Collection (C) 2018 copyright by the U.S. Secretary of Commerce
on behalf of the United States of America. All rights reserved.
##CAS REGISTRY NO=75391-57-0
##MOLFORM=C 10 H 11 N O
##$NIST SOURCE=MSDC-IR
##STATE=gas
##XUNITS=1/CM
##YUNITS=ABSORBANCE
##XFACTOR=1.
##YFACTOR=0.001
##DELTAX=1.92898
##FIRSTX=549.8
##LASTX=4000.7
##FIRSTY=1.364
##MAXX=4000.7
##MINX=549.759
##MAXY=0.098034
##MINY=0
##NPOINTS=1790
##XYDATA=(X++(Y..Y))
549.759 1.364 1.474 1.494 1.384 1.384 1.714 2.054 2.084 2.094 2.184
569.049 2.344 2.364 2.234 2.254 1.954 1.804 1.894 1.794 1.784 1.844
588.339 1.914 1.844 1.914 2.024 2.164 2.234 2.504 2.764 2.854 3.104
607.628 3.214 3.414 3.664 3.904 3.594 3.074 3.044 2.994 2.974 2.624
626.918 2.104 1.804 1.614 1.514 1.424 1.164 1.0167 1.0431 1.154 1.0648
646.208 0.8328 0.7874 0.8251 0.7918 0.6127 0.4902 0.59 0.7117 0.6504 0.617
665.498 0.818 0.9749 0.7933 0.8213 0.9683 0.8319 0.8572 1.0907 1.0193 0.8442
684.787 1.0532 1.204 1.344 1.454 1.364 1.284 1.1136 1.0253 1.134 1.294
704.077 1.304 1.334 1.374 1.274 1.144 1.064 1.204 1.424 1.334 1.1089
723.367 1.244 1.334 1.584 1.934 2.104 2.274 2.604 3.194 3.674 4.174
742.657 4.834 5.464 5.944 6.274 6.434 6.614 6.654 6.184 5.484 4.784
761.947 4.104 3.694 3.404 3.154 2.994 2.854 2.774 2.784 2.854 2.914
781.236 3.344 3.704 4.144 5.074 5.994 7.104 8.484 9.844 11.104 12.264
800.526 13.644 15.064 16.024 16.234 15.884 15.494 14.734 13.514 12.544 11.334
819.816 9.924 8.464 6.944 5.944 5.174 4.364 3.724 3.304 2.894 2.494
839.106 2.254 2.124 1.954 1.934 2.044 2.184 2.164 2.354 2.534 2.554
858.395 2.934 3.394 3.644 3.834 4.304 4.504 4.574 4.664 4.454 4.144
877.685 3.994 3.604 2.954 2.864 2.664 2.394 2.404 2.234 2.064 2.014
896.975 1.844 1.584 1.654 1.804 1.824 1.954 1.964 2.064 2.304 2.264
916.265 2.284 2.444 2.374 2.334 2.214 2.084 2.044 2.084 2.114 2.074
935.555 1.994 1.954 1.854 1.944 2.024 1.914 2.184 2.234 2.094 2.074
954.844 1.974 1.944 1.844 1.754 1.664 1.834 2.114 2.214 2.274 2.264
974.134 2.364 2.454 2.564 2.744 3.194 3.734 3.844 4.014 4.234 4.494
993.424 5.014 5.444 5.674 5.974 6.414 6.754 7.074 7.504 8.004 8.624
1012.714 9.644 10.674 11.534 13.114 14.944 16.714 18.454 20.124 22.064 23.664
1032.003 24.984 25.844 25.884 25.394 24.474 23.144 21.334 19.384 17.294 14.924
1051.293 12.814 10.824 9.024 7.614 6.524 5.684 4.974 4.534 4.374 4.084
1070.583 3.664 3.294 3.134 3.214 3.064 2.904 2.954 2.944 2.734 2.684
1089.873 2.854 2.874 2.944 3.334 3.354 3.264 3.614 3.924 4.334 4.834
1109.163 5.564 6.444 7.624 9.034 10.734 12.994 15.874 19.304 23.154 27.434
1128.452 31.544 34.794 36.654 37.124 36.844 35.664 33.424 30.184 26.154 22.614
1147.742 19.224 16.324 14.034 12.224 11.004 9.854 8.704 7.964 7.574 7.144
1167.032 7.054 7.114 7.264 7.764 8.204 8.554 9.084 9.504 9.844 10.004
1186.322 9.794 9.934 9.824 9.204 9.264 9.424 9.524 10.014 10.704 11.824
1205.611 13.654 15.834 18.124 20.844 23.894 26.674 28.774 30.014 30.794 31.074
1224.901 31.004 30.344 29.464 29.624 30.764 32.484 35.644 41.144 47.814 55.544
1244.191 64.554 73.844 82.994 90.894 96.154 98.034 96.694 92.784 86.004 77.144
1263.481 67.674 58.344 50.244 43.784 38.934 35.344 32.704 30.544 28.984 27.744
1282.771 26.404 25.134 23.974 22.964 21.764 20.514 19.354 18.214 17.114 16.094
1302.060 15.144 14.344 13.834 13.274 12.664 12.144 11.644 11.134 10.554 9.914
1321.350 9.274 8.614 7.884 7.164 6.524 5.894 5.284 4.864 4.494 4.154
1340.640 3.924 3.734 3.554 3.424 3.344 3.224 3.184 3.174 3.194 3.184
1359.930 3.204 3.164 3.034 3.054 3.134 3.224 3.244 3.244 3.394 3.594
1379.219 3.744 3.814 3.844 3.904 4.034 4.124 4.114 4.054 3.964 3.974
1398.509 4.184 4.474 4.774 5.254 5.894 6.614 7.434 8.364 9.284 10.234
1417.799 11.224 12.244 13.344 14.234 14.644 14.734 14.754 14.644 14.464 14.224
1437.089 14.014 14.064 14.404 14.804 15.004 15.054 15.284 15.554 15.664 15.594
1456.378 15.634 16.134 17.094 18.384 19.654 20.474 20.754 20.774 20.794 20.774
1475.668 20.584 20.204 20.024 20.574 22.134 24.884 28.864 34.114 40.754 48.614
1494.958 57.414 66.674 75.424 82.564 87.024 88.144 86.044 81.004 73.304 63.674
1514.248 53.034 42.674 33.714 26.744 21.484 17.724 15.064 12.994 11.304 10.044
1533.538 9.114 8.344 7.644 7.104 6.644 6.274 5.944 5.554 5.214 4.994
1552.827 4.794 4.554 4.324 4.164 4.024 3.864 3.784 3.684 3.574 3.504
1572.117 3.484 3.414 3.394 3.524 3.614 3.694 3.764 3.924 4.144 4.464
1591.407 4.834 5.274 5.744 6.184 6.794 7.564 8.404 9.284 10.004 10.484
1610.697 10.774 10.784 10.484 9.824 8.924 7.954 6.904 5.874 4.994 4.254
1629.986 3.604 3.104 2.814 2.614 2.434 2.334 2.164 1.974 1.914 1.844
1649.276 1.834 1.804 1.764 1.754 1.584 1.514 1.484 1.494 1.574 1.504
1668.566 1.424 1.354 1.254 1.344 1.334 1.224 1.204 1.184 1.118 1.0698
1687.856 1.1131 1.0858 1.0823 1.1072 1.0555 1.0311 1.0499 1.0895 1.1129 1.0994
1707.146 1.0732 1.085 1.154 1.224 1.304 1.424 1.494 1.494 1.534 1.554
1726.435 1.504 1.534 1.614 1.684 1.734 1.664 1.624 1.564 1.564 1.554
1745.725 1.484 1.494 1.434 1.344 1.354 1.364 1.334 1.354 1.384 1.414
1765.015 1.364 1.264 1.264 1.304 1.324 1.404 1.464 1.464 1.494 1.494
1784.305 1.454 1.464 1.404 1.344 1.374 1.384 1.284 1.154 1.0343 0.9901
1803.594 1.0103 0.9684 0.9037 0.8219 0.8064 0.8246 0.7629 0.7134 0.7386 0.738
1822.884 0.7661 0.8533 0.8893 0.8979 1.0243 1.0899 1.0912 1.194 1.214 1.224
1842.174 1.334 1.384 1.434 1.494 1.474 1.404 1.444 1.514 1.544 1.574
1861.464 1.494 1.464 1.524 1.504 1.464 1.444 1.434 1.454 1.414 1.364
1880.754 1.334 1.304 1.274 1.304 1.314 1.234 1.164 1.0709 1.0068 0.983
1900.043 0.9891 0.9696 0.8952 0.8419 0.8303 0.8168 0.7222 0.7311 0.7674 0.7018
1919.333 0.6613 0.6563 0.6121 0.5783 0.5872 0.56 0.5414 0.5605 0.5848 0.6181
1938.623 0.6509 0.604 0.5859 0.6003 0.6249 0.6297 0.6583 0.689 0.6131 0.6471
1957.913 0.7367 0.7321 0.7501 0.826 0.847 0.887 0.9477 0.9196 0.8946 0.9424
1977.202 1.0365 1.068 1.1027 1.144 1.224 1.344 1.414 1.514 1.664 1.714
1996.492 1.754 1.874 1.944 1.984 2.014 2.034 2.024 1.904 1.824 1.784
2015.782 1.724 1.674 1.574 1.534 1.534 1.454 1.334 1.334 1.444 1.454
2035.072 1.374 1.374 1.414 1.454 1.424 1.414 1.364 1.324 1.414 1.444
2054.362 1.464 1.444 1.374 1.394 1.454 1.484 1.524 1.474 1.444 1.414
2073.651 1.344 1.324 1.284 1.184 1.0661 1.0033 0.9207 0.903 0.8651 0.729
2092.941 0.7089 0.6664 0.6182 0.6525 0.6255 0.578 0.5635 0.603 0.6064 0.5934
2112.231 0.6463 0.6269 0.5999 0.5905 0.573 0.5633 0.6071 0.6001 0.5391 0.5531
2131.521 0.5448 0.5723 0.555 0.5258 0.5418 0.6073 0.6366 0.5809 0.5821 0.6115
2150.810 0.6618 0.6914 0.657 0.6256 0.7034 0.7454 0.663 0.668 0.7292 0.7533
2170.100 0.7564 0.7505 0.791 0.7695 0.7056 0.655 0.6553 0.7275 0.7429 0.7025
2189.390 0.6791 0.6459 0.6285 0.6476 0.6331 0.5883 0.5291 0.5513 0.5646 0.5564
2208.680 0.5512 0.536 0.587 0.6366 0.5966 0.6206 0.6862 0.6725 0.7436 0.842
2227.970 0.8947 0.8788 0.9206 1.0413 1.164 1.244 1.294 1.404 1.564 1.794
2247.259 2.034 2.194 2.274 2.344 2.484 2.464 2.274 2.134 1.924 1.774
2266.549 1.614 1.354 1.144 1.1089 1.0526 0.926 0.9167 0.9271 0.8558 0.7581
2285.839 0.7157 0.7352 0.7089 0.6506 0.6849 0.6982 0.6196 0.5379 0.5413 0.5822
2305.129 0.6157 0.6254 0.7445 0.7543 0.6763 0.6717 0.6535 0.6993 0.7039 0.6301
2324.418 0.5813 0.594 0.5871 0.5477 0.544 0.6277 0.6488 0.5703 0.5678 0.5908
2343.708 0.6284 0.6543 0.708 0.7738 0.77 0.7232 0.6761 0.6547 0.6899 0.6891
2362.998 0.632 0.6905 0.7146 0.6775 0.6504 0.7083 0.6914 0.6257 0.6713 0.6891
2382.288 0.6055 0.6087 0.6161 0.5484 0.5033 0.4719 0.5943 0.6 0.5347 0.622
2401.578 0.6197 0.5441 0.5232 0.5284 0.5347 0.5753 0.6408 0.678 0.6646 0.6546
2420.867 0.6223 0.7344 0.8325 0.7621 0.7285 0.627 0.5886 0.6589 0.6657 0.6435
2440.157 0.6953 0.6982 0.6621 0.6505 0.6595 0.6105 0.5516 0.6218 0.5928 0.5518
2459.447 0.5701 0.5593 0.5538 0.5852 0.5882 0.6246 0.7427 0.7406 0.7533 0.7565
2478.737 0.64 0.6444 0.7737 0.8787 0.929 0.9725 0.9972 0.9683 1.0023 1.0706
2498.026 1.1187 1.164 1.134 1.134 1.204 1.224 1.204 1.204 1.264 1.234
2517.316 1.124 1.174 1.164 1.1021 1.124 1.174 1.164 1.111 1.102 1.0954
2536.606 1.0769 1.0767 1.154 1.0865 1.0655 1.244 1.284 1.184 1.0396 1.0819
2555.896 1.184 1.0746 1.034 1.0862 1.174 1.184 1.1222 1.134 1.0546 0.9421
2575.186 1.0236 1.0588 0.9895 1.0314 0.9718 0.89 0.9656 0.984 0.9421 0.872
2594.475 0.85 0.9435 0.9495 0.9242 0.9288 0.9649 1.0361 0.9836 0.9136 0.8965
2613.765 0.8493 0.8524 0.8588 0.8283 0.7935 0.7393 0.6999 0.6837 0.7149 0.8452
2633.055 0.849 0.8002 0.8281 0.7196 0.6719 0.7633 0.7525 0.7426 0.7477 0.6514
2652.345 0.5848 0.5115 0.4742 0.5553 0.6169 0.6618 0.5749 0.5206 0.613 0.6233
2671.634 0.5292 0.4058 0.4281 0.5076 0.4889 0.4487 0.4641 0.503 0.5132 0.5045
2690.924 0.5711 0.6493 0.6932 0.7185 0.7589 0.8066 0.7822 0.7633 0.6978 0.5585
2710.214 0.7391 0.9098 0.9674 1.0203 0.9672 0.9742 0.9804 0.9584 0.9287 0.9644
2729.504 0.9357 0.9345 1.0994 1.264 1.334 1.364 1.434 1.474 1.484 1.534
2748.794 1.424 1.284 1.174 1.154 1.144 1.1002 1.1065 1.1023 1.0433 1.0318
2768.083 1.0836 1.0783 1.154 1.1204 1.1171 1.134 1.12 1.244 1.274 1.324
2787.373 1.474 1.554 1.664 1.774 1.844 1.974 2.054 2.114 2.224 2.344
2806.663 2.524 2.674 2.864 3.084 3.314 3.584 3.764 3.934 4.264 4.804
2825.953 5.454 6.174 6.964 8.014 9.144 10.374 11.644 12.804 13.754 14.394
2845.242 14.694 14.504 14.224 13.694 12.754 11.824 10.964 10.304 9.694 9.274
2864.532 9.084 8.784 8.494 8.404 8.324 8.174 8.194 8.114 7.924 7.854
2883.822 7.864 8.034 8.274 8.394 8.524 8.884 9.474 10.034 10.564 11.234
2903.112 11.984 12.794 13.804 14.834 15.814 17.004 18.004 19.014 20.024 20.764
2922.401 21.594 22.494 23.454 24.344 25.084 25.924 26.824 27.564 28.044 28.454
2941.691 28.844 29.044 28.994 28.814 28.524 28.024 27.404 26.634 25.794 24.954
2960.981 23.884 22.754 21.464 20.104 18.854 17.604 16.514 15.694 14.994 14.434
2980.271 13.954 13.504 13.214 13.154 13.224 13.344 13.694 14.164 14.684 15.784
2999.561 17.214 18.684 20.044 21.074 21.454 21.264 20.844 20.064 19.064 17.644
3018.850 16.194 15.124 14.074 13.264 12.624 12.084 11.544 10.954 10.384 9.744
3038.140 9.184 8.734 8.484 8.324 8.234 8.074 7.894 7.774 7.474 7.244
3057.430 6.904 6.554 6.284 5.874 5.654 5.484 5.384 5.244 5.194 5.144
3076.720 4.914 4.814 4.814 4.744 4.524 4.284 4.064 3.944 3.774 3.574
3096.009 3.374 3.144 2.974 2.914 2.914 2.774 2.664 2.694 2.824 2.834
3115.299 2.604 2.494 2.414 2.314 2.254 2.084 2.074 2.084 1.904 1.834
3134.589 1.734 1.644 1.604 1.544 1.634 1.554 1.234 1.0648 1.1109 1.244
3153.879 1.234 1.0737 0.9265 0.9131 0.9225 0.8888 0.9406 1.0273 1.0353 0.9488
3173.169 0.899 0.8383 0.779 0.9496 0.9721 0.8676 0.8936 0.8863 0.9714 1.0531
3192.458 0.9092 0.7773 0.6915 0.6951 0.7194 0.7799 0.8978 0.8338 0.8636 0.7242
3211.748 0.6356 0.5657 0.4174 0.5413 0.5543 0.5616 0.5907 0.6564 0.6979 0.5972
3231.038 0.5449 0.6455 0.8083 0.7746 0.5526 0.5176 0.5787 0.4075 0.2428 0.22125
3250.328 0.3609 0.3312 0.17756 0.2684 0.3267 0.3507 0.4303 0.4631 0.5679 0.6768
3269.617 0.6571 0.6024 0.5283 0.5431 0.5416 0.4223 0.4918 0.5116 0.4049 0.4032
3288.907 0.394 0.4371 0.4316 0.323 0.3173 0.3224 0.19498 0.16084 0.2632 0.2285
3308.197 0.19153 0.18698 0.15438 0.1468 0.1692 0.21764 0.2778 0.2555 0.2357 0.32
3327.487 0.3534 0.332 0.2869 0.2606 0.1977 0.1121 0.17278 0.2375 0.2604 0.3995
3346.777 0.4566 0.443 0.3447 0.4461 0.5954 0.4682 0.4268 0.3372 0.2734 0.3793
3366.066 0.4822 0.4851 0.4062 0.4085 0.3763 0.3028 0.20081 0.126858 0.2352 0.14396
3385.356 0.0332 0.2268 0.4156 0.3385 0.17929 0.2708 0.401 0.3596 0.3733 0.3225
3404.646 0.19623 0.2354 0.13762 0.0756 0.12205 0.0765 0.19251 0.20941 0.0481 0.1094
3423.936 0.2855 0.3277 0.3119 0.3525 0.3626 0.356 0.3093 0.3536 0.3102 0.2655
3443.225 0.3539 0.3127 0.3329 0.3602 0.3759 0.4777 0.4748 0.2563 0.0572 0.13905
3462.515 0.2479 0.20607 0.2677 0.2288 0.20496 0.20434 0.2531 0.2667 0.317 0.5012
3481.805 0.4494 0.2867 0.288 0.396 0.3667 0.3399 0.2643 0.2995 0.3452 0.2298
3501.095 0.133451 0.0725 0.16369 0.3091 0.3475 0.2856 0.14849 0.2425 0.4772 0.3236
3520.385 0.0784 0.11502 0.2742 0.3721 0.3167 0.3496 0.3088 0.1106 0.22164 0.4219
3539.674 0.3637 0.364 0.3004 0.2542 0.3815 0.5015 0.6421 0.5374 0.3354 0.388
3558.964 0.5074 0.4665 0.3803 0.4227 0.3175 0.18855 0.2628 0.2822 0.224 0.2535
3578.254 0.3167 0.21012 0.127759 0.17275 0.18304 0.22216 0.2562 0.332 0.3458 0.3766
3597.544 0.3762 0.2408 0.3026 0.2753 0.2406 0.3989 0.2654 0.16949 0.414 0.4388
3616.833 0.44 0.4628 0.385 0.4867 0.3908 0.2412 0.3131 0.3764 0.3671 0.20831
3636.123 0.13846 0.16211 0.11921 0.22191 0.3202 0.3227 0.3527 0.304 0.2568 0.19889
3655.413 0.3012 0.2757 0.21514 0.3999 0.4383 0.3518 0.16117 0.1081 0.2397 0.20312
3674.703 0.1018 0.14207 0.18663 0.21984 0.2821 0.15749 0.022 0.0877 0.2867 0.328
3693.993 0.22052 0.3529 0.3713 0.17968 0.0985 0.0526 0.0632 0.21535 0.5044 0.4555
3713.282 0.17325 0.21592 0.4159 0.3743 0.308 0.3895 0.2916 0.1092 0.2327 0.3015
3732.572 0.2622 0.3347 0.3973 0.3371 0.19642 0.3488 0.344 0.124333 0.0794 0.16117
3751.862 0.2849 0.2737 0.263 0.16233 0.003 0 0.0581 0.16188 0.363 0.3271
3771.152 0.18853 0.2479 0.21486 0.2915 0.3836 0.4843 0.5463 0.3999 0.344 0.3141
3790.441 0.4309 0.4907 0.3677 0.3304 0.3831 0.4275 0.4055 0.5211 0.4249 0.215
3809.731 0.3316 0.3602 0.17171 0.14514 0.3004 0.3068 0.3168 0.4669 0.5076 0.2983
3829.021 0.17346 0.3383 0.3794 0.3722 0.4061 0.3061 0.3188 0.2956 0.3852 0.5444
3848.311 0.4278 0.5016 0.5304 0.3697 0.3898 0.4356 0.3144 0.15083 0.14782 0.3036
3867.601 0.4346 0.375 0.4358 0.3768 0.3571 0.636 0.4963 0.2857 0.3193 0.4178
3886.890 0.3375 0.333 0.4482 0.529 0.5959 0.5207 0.4332 0.3643 0.3272 0.2381
3906.180 0.2537 0.3184 0.2359 0.3289 0.6201 0.5688 0.3712 0.4061 0.3905 0.2816
3925.470 0.4875 0.6153 0.4946 0.3404 0.3829 0.5721 0.5033 0.4066 0.5235 0.3695
3944.760 0.3626 0.5932 0.6308 0.5776 0.3797 0.3802 0.4463 0.4505 0.5188 0.5767
3964.049 0.6415 0.6434 0.6861 0.654 0.5405 0.615 0.6432 0.618 0.639 0.7103
3983.339 0.6681 0.5654 0.4799 0.5698 0.8024 0.7356 0.5789 0.4558 0.2993 0.465
##END=
