##TITLE=Heptafluoropropyliodide
##JCAMP-DX=4.24
##DATA TYPE=INFRARED SPECTRUM
##ORIGIN=EPA-IR VAPOR PHASE LIBRARY
##OWNER=SRD/NIST
Collection (C) 2018 copyright by the U.S. Secretary of Commerce
on behalf of the United States of America. All rights reserved.
##CAS REGISTRY NO=754-34-7
##MOLFORM=C 3 F 7 I
##$NIST SOURCE=MSDC-IR
##STATE=gas
##XUNITS=1/CM
##YUNITS=ABSORBANCE
##XFACTOR=1.
##YFACTOR=0.001
##DELTAX=3.85796
##FIRSTX=501.5
##LASTX=4000.7
##FIRSTY=4.489
##MAXX=4000.7
##MINX=501.534
##MAXY=0.898719
##MINY=0
##NPOINTS=908
##XYDATA=(X++(Y..Y))
501.534 4.489 5.459 6.409 7.759 10.829 16.099 21.959 26.489 28.209 26.449
540.114 22.899 18.949 14.909 11.589 9.189 7.669 6.869 6.459 6.679 7.689
578.693 10.269 15.429 21.359 24.579 23.739 18.589 12.539 9.099 8.239 9.019
617.273 10.069 10.579 10.219 9.059 8.249 9.059 11.659 15.689 19.969 23.409
655.852 26.649 34.329 55.829 82.769 93.739 85.529 57.919 31.899 21.969 18.279
694.432 15.069 12.219 10.729 10.709 12.519 17.839 31.689 72.189 164.969 275.459
733.011 326.749 306.129 213.729 136.749 108.169 90.109 61.779 31.019 15.169 10.309
771.591 8.499 8.239 9.069 10.949 13.929 18.919 28.719 49.439 92.419 166.819
810.170 251.249 297.539 276.369 184.929 92.139 47.009 33.389 28.249 25.519 25.099
848.750 27.359 32.579 42.219 58.349 83.329 117.379 154.749 182.159 186.319 161.099
887.330 116.439 76.729 52.479 38.189 29.159 23.299 18.759 14.799 11.889 9.869
925.909 8.529 7.909 7.619 7.299 7.119 7.069 7.219 7.539 7.869 8.329
964.489 8.809 9.239 9.649 9.959 9.959 9.929 10.509 11.899 13.969 16.949
1003.068 21.389 28.359 40.069 59.489 89.259 128.709 170.219 198.959 201.059 172.399
1041.648 124.659 81.409 57.619 52.659 57.869 64.729 67.309 62.949 52.899 42.009
1080.227 35.119 33.289 35.159 39.559 46.599 57.419 75.519 106.219 155.169 229.269
1118.807 330.789 442.619 519.929 526.729 462.969 356.319 268.939 224.619 202.479 179.379
1157.387 148.689 119.239 102.409 101.729 117.129 147.289 189.539 238.899 289.539 338.469
1195.966 387.639 446.559 522.679 612.739 706.729 791.949 852.479 883.089 893.819 898.719
1234.546 897.439 868.389 792.739 675.359 540.909 418.889 325.159 260.209 214.569 177.609
1273.125 143.919 113.779 90.539 76.029 69.169 68.919 76.099 92.759 121.969 166.109
1311.705 222.809 280.429 318.649 318.479 276.539 211.369 150.099 108.989 86.259 70.259
1350.284 54.919 40.539 28.759 21.079 16.759 14.219 12.539 11.279 10.199 9.249
1388.864 8.549 8.199 8.249 8.599 8.929 8.989 8.599 7.909 7.129 6.399
1427.443 5.749 5.139 4.679 4.349 4.079 3.899 3.909 3.969 4.059 4.169
1466.023 4.269 4.339 4.479 4.729 4.939 4.959 4.769 4.449 4.059 3.659
1504.603 3.259 2.849 2.539 2.339 2.259 2.309 2.479 2.729 3.009 3.229
1543.182 3.429 3.569 3.629 3.519 3.319 3.299 3.299 3.269 3.219 3.149
1581.762 3.039 2.829 2.649 2.529 2.449 2.399 2.409 2.479 2.579 2.609
1620.341 2.589 2.499 2.419 2.379 2.309 2.349 2.459 2.589 2.779 3.069
1658.921 3.289 3.299 3.139 2.789 2.339 1.939 1.689 1.579 1.539 1.519
1697.500 1.459 1.449 1.539 1.679 1.809 1.999 2.229 2.479 2.689 2.789
1736.080 2.879 2.819 2.549 2.229 1.919 1.679 1.529 1.459 1.379 1.339
1774.659 1.379 1.469 1.559 1.659 1.809 2.009 2.179 2.249 2.239 2.169
1813.239 2.079 2.029 2.019 2.019 1.999 1.999 1.999 1.969 1.889 1.799
1851.819 1.709 1.569 1.459 1.379 1.329 1.2391 1.1364 1.018 0.8869 0.7996
1890.398 0.6999 0.6165 0.6271 0.65 0.6137 0.6248 0.6617 0.7186 0.8289 0.9714
1928.978 1.1741 1.419 1.619 1.759 1.829 1.889 1.899 1.829 1.809 1.869
1967.557 1.939 1.979 1.899 1.699 1.419 1.1535 0.966 0.8458 0.7701 0.7359
2006.137 0.7401 0.7896 0.8818 0.99 1.1485 1.329 1.439 1.479 1.489 1.439
2044.716 1.389 1.429 1.439 1.479 1.529 1.509 1.469 1.449 1.449 1.449
2083.296 1.419 1.349 1.339 1.299 1.2374 1.2476 1.309 1.409 1.579 1.769
2121.875 2.009 2.209 2.329 2.339 2.189 2.019 1.909 1.809 1.689 1.619
2160.455 1.559 1.499 1.579 1.719 1.839 1.959 2.129 2.249 2.369 2.509
2199.035 2.519 2.599 2.779 2.899 2.969 2.939 2.819 2.689 2.599 2.569
2237.614 2.629 2.719 2.809 2.889 2.969 3.099 3.259 3.389 3.519 3.709
2276.194 3.899 3.979 4.029 4.069 4.139 4.239 4.199 3.959 3.529 3.029
2314.773 2.719 2.529 2.409 2.399 2.399 2.359 2.339 2.369 2.429 2.589
2353.353 2.869 3.149 3.399 3.629 3.789 3.849 3.859 3.879 3.809 3.669
2391.932 3.529 3.329 3.199 3.099 2.999 2.959 2.969 3.099 3.239 3.269
2430.512 3.289 3.319 3.379 3.429 3.489 3.509 3.439 3.289 3.189 3.089
2469.092 2.949 2.869 2.729 2.559 2.409 2.289 2.159 2.079 2.069 2.109
2507.671 2.209 2.249 2.299 2.379 2.439 2.519 2.609 2.649 2.659 2.699
2546.251 2.709 2.629 2.559 2.469 2.329 2.079 1.789 1.559 1.289 1.0289
2584.830 0.8796 0.6852 0.5551 0.4827 0.4006 0.35422 0.2478 0.2372 0.2411 0.1813
2623.410 0.136 0.127 0.097 0.072 0.062 0.085 0.065 0.028 0 0.014
2661.989 0.03 0.03 0.063 0.074 0.097 0.099 0.049 0 0.008 0.022
2700.569 0.035 0.033 0.065 0.077 0.032 0.032 0.054 0.089 0.116 0.132
2739.148 0.096 0.073 0.047 0.04 0.015 0.007 0.101 0.097 0.041 0.066
2777.728 0.106 0.113 0.104 0.078 0.108 0.157 0.11 0.12 0.137 0.074
2816.308 0.071 0.098 0.095 0.081 0.071 0.075 0.085 0.056 0.058 0.111
2854.887 0.109 0.1 0.122 0.141 0.114 0.06 0.046 0.061 0.122 0.147
2893.467 0.13 0.096 0.067 0.059 0.083 0.079 0.109 0.137 0.092 0.047
2932.046 0.087 0.15 0.158 0.166 0.194 0.2213 0.2042 0.2033 0.1986 0.175
2970.626 0.13 0.089 0.128 0.12 0.056 0.063 0.129 0.124 0.09 0.15
3009.205 0.118 0.107 0.1844 0.1804 0.136 0.091 0.1802 0.2478 0.1843 0.098
3047.785 0.059 0.086 0.139 0.1884 0.1865 0.16 0.1917 0.1968 0.147 0.174
3086.364 0.2144 0.16 0.122 0.162 0.148 0.102 0.058 0.032 0.054 0.094
3124.944 0.169 0.2009 0.166 0.144 0.147 0.136 0.144 0.2339 0.29915 0.27732
3163.524 0.2382 0.131 0.025 0.071 0.096 0.146 0.2375 0.165 0.155 0.2071
3202.103 0.142 0.16 0.226 0.1816 0.139 0.1834 0.2365 0.2092 0.122 0.139
3240.683 0.2319 0.156 0.136 0.268 0.278875 0.1837 0.2189 0.32301 0.2682 0.2358
3279.262 0.2684 0.32697 0.32314 0.32517 0.33448 0.2581 0.2238 0.2259 0.2697 0.2575
3317.842 0.2338 0.28916 0.279172 0.216 0.2326 0.30137 0.282692 0.279875 0.31751 0.34174
3356.421 0.309 0.2303 0.2338 0.2172 0.280801 0.33926 0.34138 0.31153 0.2525 0.131
3395.001 0.142 0.2544 0.2637 0.27 0.288538 0.31242 0.3621 0.3802 0.32012 0.27477
3433.580 0.2271 0.2557 0.2614 0.241 0.2591 0.141 0.2056 0.3927 0.33324 0.2203
3472.160 0.2654 0.32805 0.30689 0.2668 0.29491 0.31158 0.281868 0.2564 0.2468 0.33609
3510.740 0.3899 0.31498 0.2579 0.31725 0.4476 0.3806 0.2406 0.27174 0.37871 0.4335
3549.319 0.4214 0.4213 0.3907 0.32619 0.30993 0.37414 0.4299 0.37352 0.30716 0.2267
3587.899 0.2332 0.4025 0.3857 0.35253 0.37162 0.27706 0.27577 0.30086 0.2655 0.32697
3626.478 0.35866 0.30538 0.31576 0.283472 0.245 0.2595 0.2586 0.254 0.27758 0.2377
3665.058 0.2448 0.32003 0.33659 0.3799 0.29824 0.2531 0.278613 0.32711 0.35878 0.2457
3703.637 0.2006 0.2113 0.27025 0.34539 0.3481 0.2774 0.27608 0.31952 0.31413 0.34706
3742.217 0.33877 0.27719 0.173 0.165 0.3123 0.29059 0.2124 0.1975 0.2675 0.2359
3780.797 0.136 0.1969 0.2322 0.33047 0.30091 0.171 0.113 0.103 0.2485 0.27471
3819.376 0.29279 0.33561 0.2407 0.2105 0.2316 0.2457 0.2416 0.36302 0.29442 0.139
3857.956 0.2044 0.2106 0.159 0.145 0.2353 0.261 0.166 0.138 0.1901 0.2615
3896.535 0.31847 0.35665 0.35775 0.31919 0.33303 0.3052 0.286237 0.30206 0.30924 0.30518
3935.115 0.2339 0.286265 0.2027 0.067 0.17 0.261 0.2311 0.2073 0.2419 0.2558
3973.694 0.2589 0.2316 0.2138 0.138 0.115 0.174 0.2422 0.2423
##END=
