##TITLE=3,5-Bis(trifluoromethyl)benzyl chloride
##JCAMP-DX=4.24
##DATA TYPE=INFRARED SPECTRUM
##ORIGIN=NIST Mass Spectrometry Data Center
##OWNER=NIST Standard Reference Data Program
Collection (C) 2018 copyright by the U.S. Secretary of Commerce
on behalf of the United States of America. All rights reserved.
##CAS REGISTRY NO=75462-59-8
##MOLFORM=C 9 H 5 Cl F 6
##$NIST SOURCE=MSDC-IR
##SPECTROMETER/DATA SYSTEM=HP-GC/MS/IRD
##STATE=gas
##XUNITS=1/CM
##YUNITS=ABSORBANCE
##XFACTOR=1.0
##YFACTOR=0.000045400
##DELTAX=4.0
##FIRSTX=550.0
##LASTX=3846.0
##FIRSTY=0.001362
##MAXX=3846
##MINX=550
##MAXY=0.454
##MINY=0
##NPOINTS=825
##XYDATA=(X++(Y..Y))
550.0 30 39 15 8 1 2 7 13 18 20
590.0 23 28 38 52 64 76 98 130 164 171
630.0 142 97 61 41 33 29 28 32 41 64
670.0 111 308 775 1167 1122 693 350 350 463 444
710.0 321 247 260 381 497 518 448 365 325 298
750.0 259 211 165 137 122 110 88 64 46 33
790.0 26 20 17 17 18 20 17 22 28 41
830.0 77 150 238 294 285 224 160 116 95 96
870.0 108 121 133 142 156 182 227 303 409 524
910.0 551 458 353 277 212 152 109 83 68 55
950.0 44 35 28 22 20 20 20 21 23 27
990.0 33 40 44 48 49 46 40 36 33 31
1030.0 30 32 30 30 32 33 35 37 42 49
1070.0 58 69 80 92 111 144 196 278 400 539
1110.0 624 597 517 500 571 743 1080 1711 2838 4652
1150.0 6986 8853 8475 6198 4227 3653 4470 6073 7617 7884
1190.0 6354 4060 2268 1337 937 750 657 605 569 542
1230.0 519 501 500 532 612 757 972 1282 1774 2697
1270.0 4525 7349 9852 10000 7523 4563 2795 1866 1223 782
1310.0 517 365 278 228 200 185 182 187 198 224
1350.0 276 379 580 921 1427 1990 2317 2127 1495 822
1390.0 417 247 173 137 119 108 97 88 85 85
1430.0 89 98 108 123 141 161 182 194 191 167
1470.0 130 92 64 47 36 31 28 27 27 28
1510.0 27 26 25 24 23 22 20 17 16 16
1550.0 18 20 20 21 21 22 23 21 18 16
1590.0 18 21 27 34 46 65 91 119 135 122
1630.0 89 59 43 37 36 37 37 35 32 26
1670.0 20 15 12 11 8 7 7 7 8 7
1710.0 7 8 9 9 8 9 11 12 13 14
1750.0 15 16 16 15 14 16 17 22 27 31
1790.0 35 40 43 48 59 70 76 73 63 51
1830.0 45 44 41 35 28 22 17 14 12 11
1870.0 10 11 10 11 9 8 6 5 6 6
1910.0 7 6 5 3 2 3 2 2 3 2
1950.0 3 2 1 0 0 1 2 3 5 7
1990.0 8 10 11 12 13 13 11 9 8 8
2030.0 7 6 5 5 4 5 4 5 6 5
2070.0 6 6 5 6 5 4 5 5 6 7
2110.0 7 6 6 4 3 2 2 1 0 1
2150.0 0 1 0 1 0 1 3 3 4 4
2190.0 6 7 8 9 11 13 14 15 14 13
2230.0 11 11 12 13 15 17 20 21 21 22
2270.0 23 25 29 32 34 35 35 33 30 26
2310.0 23 21 20 18 18 20 18 21 20 21
2350.0 20 21 20 18 20 21 21 20 17 17
2390.0 14 12 10 9 8 7 8 7 8 9
2430.0 8 9 8 7 6 5 6 7 6 7
2470.0 6 5 4 3 3 2 3 2 3 2
2510.0 3 4 3 4 5 4 5 4 5 5
2550.0 6 8 8 7 6 5 5 3 2 3
2590.0 2 2 3 2 3 3 4 4 5 5
2630.0 6 7 8 10 12 13 13 11 8 5
2670.0 4 2 1 2 1 2 1 2 3 3
2710.0 4 5 5 6 7 6 4 3 3 2
2750.0 2 3 1 0 1 1 2 1 3 2
2790.0 1 1 2 3 2 2 3 4 3 4
2830.0 5 5 6 7 8 7 8 8 9 10
2870.0 10 12 14 17 16 17 16 15 14 13
2910.0 13 12 12 12 14 17 21 27 34 42
2950.0 48 49 52 62 75 89 92 81 65 55
2990.0 51 49 47 44 43 40 34 26 20 16
3030.0 15 16 17 17 20 21 21 18 17 15
3070.0 13 12 12 13 12 12 13 15 13 11
3110.0 9 7 6 5 4 3 2 3 3 2
3150.0 3 4 3 2 3 2 2 3 2 3
3190.0 2 3 3 2 3 3 2 3 3 2
3230.0 3 3 2 3 3 2 2 3 3 2
3270.0 3 3 2 3 2 1 2 1 2 1
3310.0 2 2 2 2 1 2 3 2 1 2
3350.0 3 4 3 2 3 2 1 1 2 3
3390.0 2 2 2 3 3 2 3 2 3 4
3430.0 3 2 1 2 3 3 2 3 2 3
3470.0 2 3 4 3 4 5 5 4 3 2
3510.0 3 2 2 3 4 3 3 4 3 4
3550.0 3 2 2 3 2 1 2 3 2 2
3590.0 3 4 3 2 1 3 4 3 4 4
3630.0 3 2 3 3 2 3 4 3 3 4
3670.0 4 3 3 2 2 3 3 2 1 1
3710.0 2 3 2 2 3 2 3 4 3 3
3750.0 3 2 3 3 2 1 2 1 2 1
3790.0 1 2 2 3 3 2 1 2 3 2
3830.0 1 2 1 1 2
##END=
