##TITLE=Anisyl propionate
##JCAMP-DX=4.24
##DATA TYPE=INFRARED SPECTRUM
##ORIGIN=NIST Mass Spectrometry Data Center
##OWNER=NIST Standard Reference Data Program
Collection (C) 2018 copyright by the U.S. Secretary of Commerce
on behalf of the United States of America. All rights reserved.
##CAS REGISTRY NO=7549-33-9
##MOLFORM=C 11 H 14 O 3
##$NIST SOURCE=MSDC-IR
##SPECTROMETER/DATA SYSTEM=HP-GC/MS/IRD
##STATE=gas
##XUNITS=1/CM
##YUNITS=ABSORBANCE
##XFACTOR=1.0
##YFACTOR=0.000004600
##DELTAX=4.0
##FIRSTX=550.0
##LASTX=3846.0
##FIRSTY=0.001122
##MAXX=3846
##MINX=550
##MAXY=0.046
##MINY=0
##NPOINTS=825
##XYDATA=(X++(Y..Y))
550.0 244 437 414 412 390 358 299 265 235 195
590.0 179 144 104 99 87 78 72 60 63 56
630.0 49 51 48 26 16 16 5 5 8 3
670.0 5 3 4 13 22 22 34 47 47 45
710.0 63 70 58 48 49 52 51 69 91 118
750.0 140 141 133 128 118 109 127 162 203 253
790.0 339 446 574 718 867 1044 1218 1388 1530 1590
830.0 1567 1471 1357 1242 1095 919 740 576 454 375
870.0 326 287 264 266 273 284 309 326 333 337
910.0 337 348 380 426 481 500 486 484 508 547
950.0 574 573 549 534 533 548 588 668 791 945
990.0 1129 1329 1547 1806 2073 2266 2371 2407 2409 2408
1030.0 2428 2514 2632 2662 2578 2433 2326 2297 2314 2324
1070.0 2316 2297 2273 2219 2074 1879 1699 1570 1502 1470
1110.0 1468 1476 1485 1511 1558 1618 1723 1903 2180 2594
1150.0 3215 4137 5471 7237 9059 10000 9533 8186 6950 6282
1190.0 5852 5491 5239 5060 4909 4763 4649 4570 4520 4536
1230.0 4727 5219 6064 7044 7690 7631 6896 5866 4947 4240
1270.0 3698 3275 2930 2658 2461 2333 2252 2134 1905 1600
1310.0 1353 1249 1276 1380 1502 1607 1682 1740 1762 1691
1350.0 1510 1274 1077 958 906 894 897 897 868 794
1390.0 687 580 502 462 444 443 465 501 544 602
1430.0 679 776 904 1039 1141 1213 1275 1380 1537 1648
1470.0 1616 1428 1173 985 909 948 1115 1482 2179 3379
1510.0 4860 5645 5088 3499 1964 1120 739 541 420 344
1550.0 303 282 274 282 303 341 399 485 596 714
1590.0 823 944 1125 1388 1678 1899 1932 1725 1351 959
1630.0 665 489 381 315 274 245 225 212 202 191
1670.0 187 189 198 207 223 248 289 339 403 483
1710.0 577 683 810 980 1216 1546 2016 2675 3563 4690
1750.0 5910 6758 6747 5829 4491 3286 2379 1739 1288 979
1790.0 766 615 510 433 369 315 273 235 198 172
1830.0 152 140 134 126 121 122 122 120 122 127
1870.0 128 128 128 124 120 112 101 94 90 82
1910.0 76 79 79 71 66 63 63 63 62 65
1950.0 65 65 67 70 73 76 78 81 88 94
1990.0 99 104 113 116 115 113 109 107 102 95
2030.0 97 96 96 99 101 104 107 111 115 118
2070.0 122 121 111 101 91 80 70 56 44 40
2110.0 35 30 28 20 15 18 15 11 13 10
2150.0 6 7 10 8 4 3 4 4 2 4
2190.0 5 3 2 6 13 13 17 19 17 14
2230.0 13 16 14 13 16 20 23 23 26 30
2270.0 34 33 36 39 37 36 35 30 26 22
2310.0 21 22 22 20 18 19 20 18 19 20
2350.0 18 13 14 10 7 8 2 0 3 8
2390.0 8 4 4 8 13 17 17 20 31 33
2430.0 25 20 21 25 29 26 20 21 24 27
2470.0 26 25 26 30 35 36 34 32 27 30
2510.0 37 33 32 38 42 48 49 48 51 54
2550.0 51 42 38 34 27 20 20 19 20 21
2590.0 22 19 15 21 23 16 11 11 14 19
2630.0 19 11 8 10 15 14 10 12 4 3
2670.0 6 2 6 13 13 10 10 14 17 17
2710.0 14 17 22 21 29 37 37 39 43 49
2750.0 54 56 55 59 64 65 74 83 85 88
2790.0 95 105 117 135 156 181 209 239 281 337
2830.0 407 511 668 824 887 809 665 549 481 456
2870.0 458 487 538 616 704 799 884 940 978 1019
2910.0 1066 1115 1160 1195 1245 1337 1488 1703 1948 2175
2950.0 2346 2416 2371 2233 2054 1888 1771 1733 1764 1821
2990.0 1830 1766 1702 1711 1737 1640 1387 1101 900 797
3030.0 761 761 772 748 670 572 485 431 413 411
3070.0 425 442 426 381 343 310 289 271 253 239
3110.0 224 203 178 156 145 128 116 110 98 85
3150.0 75 68 63 60 56 51 46 40 43 40
3190.0 33 43 37 31 32 29 27 27 24 16
3230.0 12 12 17 16 17 21 19 13 9 10
3270.0 13 7 0 2 2 3 5 9 9 9
3310.0 12 15 16 13 15 21 21 18 24 20
3350.0 12 10 8 16 17 10 10 11 11 5
3390.0 5 10 12 13 15 16 8 4 14 21
3430.0 13 9 6 3 11 20 18 16 23 35
3470.0 48 47 50 64 75 83 86 75 66 63
3510.0 53 49 51 45 42 37 34 32 23 22
3550.0 16 9 15 19 20 11 10 15 14 13
3590.0 9 8 10 13 13 15 14 15 17 10
3630.0 13 22 19 15 18 22 20 22 22 12
3670.0 18 26 18 18 21 15 14 17 18 17
3710.0 18 21 24 27 34 35 23 18 19 16
3750.0 22 21 13 10 24 28 32 26 17 20
3790.0 27 34 28 23 20 22 33 33 29 31
3830.0 28 21 22 30 23
##END=
