##TITLE=2,3,3-Trimethyl-1,4-pentadiene
##JCAMP-DX=4.24
##DATA TYPE=INFRARED SPECTRUM
##ORIGIN=NIST Mass Spectrometry Data Center
##OWNER=NIST Standard Reference Data Program
Collection (C) 2018 copyright by the U.S. Secretary of Commerce
on behalf of the United States of America. All rights reserved.
##CAS REGISTRY NO=756-02-5
##MOLFORM=C 8 H 14
##$NIST SOURCE=MSDC-IR
##SPECTROMETER/DATA SYSTEM=HP-GC/MS/IRD
##STATE=gas
##XUNITS=1/CM
##YUNITS=ABSORBANCE
##XFACTOR=1.0
##YFACTOR=0.000001200
##DELTAX=4.0
##FIRSTX=550.0
##LASTX=3846.0
##FIRSTY=0.001219
##MAXX=3846
##MINX=550
##MAXY=0.012
##MINY=0
##NPOINTS=825
##XYDATA=(X++(Y..Y))
550.0 1016 724 448 424 382 391 406 357 355 328
590.0 289 298 274 160 82 125 124 136 203 206
630.0 146 195 279 316 358 345 315 391 421 345
670.0 343 397 446 455 391 361 400 420 419 372
710.0 354 360 327 271 225 200 202 176 92 84
750.0 85 37 17 58 104 104 66 16 50 54
790.0 31 51 85 108 89 93 154 179 171 225
830.0 293 334 324 324 345 330 348 391 412 492
870.0 686 975 1358 1849 2334 2911 3621 4041 4200 4242
910.0 4194 3964 3470 2920 2347 1760 1278 945 719 601
950.0 565 519 463 444 446 463 505 549 636 760
990.0 905 1052 1142 1197 1157 1027 886 711 566 484
1030.0 416 403 434 443 415 384 352 308 231 192
1070.0 167 133 101 62 75 151 182 152 189 224
1110.0 214 211 242 314 432 562 668 803 1014 1239
1150.0 1464 1591 1603 1502 1317 1132 937 761 601 473
1190.0 430 412 373 371 390 359 328 329 334 309
1230.0 254 213 202 183 167 160 175 169 156 152
1270.0 145 165 169 157 141 134 150 152 157 169
1310.0 169 188 203 212 231 257 272 307 394 504
1350.0 631 787 1059 1414 1651 1812 2031 2188 2088 1884
1390.0 1694 1446 1234 1148 1120 1124 1148 1139 1107 1083
1430.0 1084 1101 1158 1277 1407 1553 1660 1705 1717 1672
1470.0 1535 1349 1164 960 773 627 503 404 339 305
1510.0 282 253 224 203 189 179 178 169 166 173
1550.0 184 188 189 209 247 270 293 326 340 388
1590.0 454 519 587 666 773 916 1121 1370 1667 1973
1630.0 2189 2283 2233 2027 1676 1267 896 593 415 330
1670.0 273 221 191 187 173 148 133 141 139 134
1710.0 127 121 120 105 94 98 99 102 107 107
1750.0 97 88 114 134 128 125 149 166 194 227
1790.0 255 276 284 297 298 291 295 306 319 342
1830.0 347 338 324 284 231 191 160 133 112 95
1870.0 92 85 71 73 71 68 58 57 82 93
1910.0 70 59 62 76 75 52 51 63 46 33
1950.0 58 79 66 49 66 89 81 67 69 80
1990.0 85 69 62 65 55 56 58 59 62 66
2030.0 59 52 64 64 73 75 55 50 53 55
2070.0 59 51 39 55 61 53 46 38 39 51
2110.0 52 40 42 36 29 43 41 27 25 24
2150.0 19 19 32 26 36 55 56 46 43 42
2190.0 26 31 43 41 39 41 30 39 46 40
2230.0 47 33 31 40 32 24 44 54 42 38
2270.0 35 18 26 49 58 56 54 51 37 38
2310.0 59 51 31 19 29 44 27 13 20 16
2350.0 26 29 13 15 20 25 23 28 52 60
2390.0 58 51 42 45 21 15 35 52 50 28
2430.0 13 13 29 22 29 47 33 38 36 30
2470.0 40 37 31 29 20 4 13 35 38 31
2510.0 32 34 30 33 39 47 40 18 16 35
2550.0 45 22 11 12 10 22 27 28 29 24
2590.0 40 61 54 42 36 46 43 22 31 43
2630.0 34 35 34 21 16 16 22 16 20 21
2670.0 27 60 70 64 56 46 49 63 48 46
2710.0 68 85 106 124 115 117 129 113 95 69
2750.0 55 69 72 70 100 121 106 90 102 114
2790.0 114 112 119 148 173 180 181 207 247 275
2830.0 294 327 377 416 476 544 666 828 997 1250
2870.0 1544 1797 2018 2171 2260 2287 2242 2219 2273 2362
2910.0 2462 2639 2880 3130 3410 3705 3912 4074 4220 4307
2950.0 4485 4983 5833 6945 8164 9302 10000 9992 9502 8448
2990.0 6908 5487 4402 3621 3082 2675 2314 2027 1776 1504
3030.0 1254 1089 1003 929 870 846 852 896 977 1110
3070.0 1276 1519 1839 2124 2376 2597 2556 2294 1945 1529
3110.0 1123 775 505 373 286 242 235 198 161 154
3150.0 160 144 155 148 135 151 155 145 137 146
3190.0 125 115 109 115 155 141 129 128 123 138
3230.0 151 140 127 95 120 130 96 102 102 88
3270.0 91 93 123 132 110 79 55 61 61 45
3310.0 61 119 131 103 58 43 68 73 91 108
3350.0 107 80 59 67 55 46 37 41 53 53
3390.0 67 91 61 53 101 95 72 70 66 75
3430.0 102 106 102 76 48 57 34 0 20 63
3470.0 87 68 30 41 64 93 110 100 101 93
3510.0 108 107 30 23 62 83 79 80 75 62
3550.0 71 53 81 79 48 59 91 114 88 70
3590.0 93 115 110 97 95 94 86 58 65 88
3630.0 71 72 33 16 43 41 28 61 77 60
3670.0 94 99 50 43 87 60 19 37 59 53
3710.0 61 74 95 103 69 52 32 20 38 21
3750.0 48 74 36 21 15 26 88 81 66 75
3790.0 36 9 21 53 55 13 18 78 115 105
3830.0 80 56 42 46 8
##END=
