##TITLE=Dimethyl allylphosphate
##JCAMP-DX=4.24
##DATA TYPE=INFRARED SPECTRUM
##ORIGIN=EPA-IR VAPOR PHASE LIBRARY
##OWNER=SRD/NIST
Collection (C) 2018 copyright by the U.S. Secretary of Commerce
on behalf of the United States of America. All rights reserved.
##CAS REGISTRY NO=757-54-0
##MOLFORM=C 5 H 11 O 3 P
##$NIST SOURCE=MSDC-IR
##STATE=gas
##XUNITS=1/CM
##YUNITS=ABSORBANCE
##XFACTOR=1.
##YFACTOR=0.001
##DELTAX=1.929
##FIRSTX=549.8
##LASTX=4000.8
##FIRSTY=0.785
##MAXX=4000.75
##MINX=549.766
##MAXY=0.06407
##MINY=0
##NPOINTS=1790
##XYDATA=(X++(Y..Y))
549.766 0.785 0.981 0.958 0.988 1.26989 1.3822 1.22263 1.092 1.1573 1.3402
569.056 1.3024 1.3472 1.3851 1.1291 0.987 1.098 1.1006 1.3933 1.7735 2.0176
588.346 2.39 2.41 2.55 3.1 3.47 3.8 4.42 5.14 5.74 6.26
607.636 6.95 7.45 7.89 8.39 8.63 8.45 7.97 7.55 7.12 6.51
626.926 5.73 4.98 4.24 3.54 2.88 2.36 2.1348 1.9341 1.8446 1.7664
646.216 1.5921 1.4676 1.2966 1.27772 1.20269 1.1378 1.20069 1.24883 1.26161 1.20485
665.506 1.207 1.22453 1.23286 1.24585 1.2974 1.20124 1.1546 1.3596 1.20836 1.1223
684.796 1.1294 1.1233 1.23806 1.339 1.4208 1.3627 1.4466 1.4834 1.475 1.6044
704.086 1.7259 1.801 1.8895 2.0498 2.1416 2.1785 2.38 2.66 2.8 2.86
723.376 3.03 3.18 3.22 3.26 3.33 3.53 3.5 3.29 3.29 3.13
742.666 3.05 2.9 2.69 2.61 2.55 2.58 2.5 2.46 2.67 2.97
761.956 3.31 3.66 3.77 4.06 4.62 5.14 5.77 6.47 7.32 8.18
781.246 9 10.04 11.1 12.15 13.07 13.91 14.6 15.04 15.4 15.43
800.536 15.22 14.81 13.99 13.13 12.25 11.42 10.35 9.4 9.12 8.63
819.826 8.21 8.17 8.14 8.17 8.41 8.7 8.85 9.03 9.27 9.58
839.116 10.02 10.6 11.27 11.94 12.53 13.04 13.5 13.89 14.12 14.04
858.406 13.62 12.94 12.18 11.23 10.13 8.9 7.63 6.61 5.64 4.7
877.696 4.05 3.67 3.33 2.89 2.59 2.46 2.53 2.54 2.48 2.63
896.986 2.76 2.96 3.23 3.44 3.84 4.45 4.98 5.51 6.14 6.57
916.276 6.89 7.17 7.35 7.46 7.37 7.24 7.03 6.68 6.3 5.85
935.566 5.49 5.23 4.88 4.53 4.3 4.04 3.63 3.28 3.13 2.93
954.856 2.81 2.85 2.87 2.9 2.91 2.94 3.01 2.99 3.06 3.31
974.146 3.46 3.57 3.77 4.01 4.29 4.64 4.83 4.91 4.99 5.08
993.436 5.29 5.4 5.41 5.56 5.57 5.66 6.17 6.67 7.28 8.02
1012.726 8.95 10.2 11.7 13.54 15.71 18.5 21.98 25.85 30.13 35.01
1032.016 40.13 45.18 49.99 54.35 57.94 60.69 62.59 63.73 64.07 63.52
1051.306 62.27 60.42 58.07 55.24 52.34 49.7 47.49 45.59 43.67 41.71
1070.596 39.76 37.58 35.13 32.49 29.76 26.93 24.05 21.43 19.15 17.32
1089.886 15.65 14.28 13.28 12.28 11.43 10.75 10.16 9.75 9.39 8.99
1109.176 8.58 8.14 7.89 7.65 7.33 7.11 6.86 6.5 6.21 5.98
1128.467 5.69 5.6 5.42 5.1 4.92 4.68 4.44 4.28 4.24 4.24
1147.757 4.23 4.16 4.04 4 3.95 3.91 4.04 4.11 4.12 4.22
1167.047 4.45 4.75 4.93 5.1 5.32 5.61 5.9 6.03 6.07 6.11
1186.337 6.18 6.31 6.25 5.99 5.82 5.62 5.46 5.34 5.2 5.26
1205.627 5.27 5.23 5.22 5.39 5.56 5.66 5.95 6.15 6.21 6.42
1224.917 6.53 6.45 6.4 6.33 6.32 6.39 6.17 5.97 6 5.95
1244.207 5.97 6.1 6.28 6.64 7.12 7.64 8.35 9.4 10.66 11.94
1263.497 13.33 14.93 16.58 18.31 20.16 21.94 23.56 24.66 24.94 24.64
1282.787 24.14 23.62 22.89 21.65 19.96 18.14 16.49 14.87 13.22 11.64
1302.077 10.15 8.9 7.8 6.76 5.96 5.25 4.55 3.96 3.46 3.08
1321.367 2.76 2.45 2.22 2.0832 2.0603 1.9927 1.8574 1.8005 1.7457 1.6868
1340.657 1.5772 1.5064 1.5217 1.4684 1.4465 1.4275 1.3664 1.3524 1.3946 1.4225
1359.947 1.4048 1.2992 1.293 1.4053 1.3956 1.3778 1.4056 1.4146 1.4438 1.5244
1379.237 1.5946 1.6598 1.7833 1.9198 1.9859 2.1042 2.26 2.31 2.36 2.41
1398.527 2.5 2.6 2.75 2.8 2.69 2.66 2.7 2.78 2.69 2.57
1417.817 2.57 2.57 2.52 2.45 2.37 2.31 2.23 2.17 2.112 1.9677
1437.107 1.8915 1.9423 1.9999 2.0514 2.1398 2.1354 2.1353 2.22 2.27 2.31
1456.397 2.35 2.29 2.28 2.38 2.34 2.25 2.24 2.1667 2.1793 2.1753
1475.687 2.0608 2.0885 2.0613 1.9442 1.8842 1.802 1.7702 1.74 1.7068 1.6452
1494.977 1.5597 1.5568 1.553 1.5212 1.4702 1.4244 1.4313 1.4629 1.4632 1.4256
1514.267 1.4236 1.4779 1.445 1.4335 1.4727 1.4946 1.5519 1.4891 1.454 1.4411
1533.557 1.3578 1.4146 1.4067 1.4184 1.5337 1.5327 1.5 1.446 1.4061 1.3967
1552.847 1.4141 1.4066 1.3726 1.3723 1.3399 1.33 1.3643 1.3002 1.1503 1.18192
1572.137 1.2829 1.3088 1.2918 1.24598 1.20408 1.17737 1.21238 1.21307 1.22137 1.2364
1591.427 1.2614 1.2577 1.22578 1.18532 1.20725 1.27345 1.27383 1.27669 1.3429 1.3183
1610.717 1.27787 1.3408 1.3879 1.4389 1.5452 1.6883 1.7451 1.8975 2.1033 2.29
1630.007 2.52 2.74 2.93 3.07 3.11 3.06 3.13 3.11 2.91 2.7
1649.297 2.5 2.32 1.988 1.635 1.4115 1.24495 1.1172 1.034 1.06 1.051
1668.587 1.022 1.046 1.013 0.982 0.94 0.875 0.883 0.9 0.927 1.005
1687.877 0.96 0.917 0.939 0.963 0.949 0.808 0.778 0.854 0.874 0.886
1707.167 0.869 0.827 0.808 0.834 0.857 0.888 0.89 0.888 0.902 0.896
1726.457 0.89 0.838 0.828 0.841 0.846 0.86 0.885 0.973 1.034 1.023
1745.747 0.991 0.945 0.951 1.009 1.01 0.992 1.057 1.1298 1.0815 1.0807
1765.037 1.1326 1.17327 1.17852 1.1082 1.0967 1.164 1.17498 1.18037 1.17984 1.1471
1784.327 1.1264 1.1451 1.153 1.17989 1.155 1.134 1.17256 1.1116 1.062 1.08
1803.617 1.1282 1.1577 1.1683 1.19091 1.17352 1.2081 1.21773 1.17344 1.2853 1.4134
1822.907 1.4164 1.4593 1.5211 1.566 1.6753 1.7187 1.7231 1.768 1.7886 1.7693
1842.197 1.7803 1.7446 1.6767 1.632 1.6133 1.5643 1.4819 1.4127 1.3696 1.3444
1861.487 1.2893 1.3144 1.3279 1.26673 1.20626 1.22781 1.22755 1.19234 1.17813 1.1657
1880.777 1.18759 1.24123 1.23593 1.1476 1.1442 1.1691 1.1434 1.077 1.1288 1.19755
1900.067 1.21425 1.19474 1.1207 1.1105 1.1116 1.1114 1.1413 1.17649 1.1368 1.1036
1919.357 1.1087 1.064 1.027 1.042 1.048 1.02 1.009 1.072 1.062 1.041
1938.647 1.042 1.042 1.054 1.024 0.956 0.905 0.945 1.014 1.013 1.039
1957.937 1.021 0.959 1.004 1.017 1.004 0.94 0.926 0.965 0.994 0.947
1977.227 0.874 0.941 1.007 0.979 0.949 0.974 1.004 1.026 1.011 0.965
1996.517 0.95 0.938 0.926 0.954 0.954 0.939 0.955 0.993 0.987 0.949
2015.807 0.942 0.921 0.932 0.984 0.984 0.931 0.924 0.937 0.969 1.037
2035.097 1.044 1.001 0.967 0.99 0.958 0.927 0.921 0.934 1.004 0.967
2054.387 0.934 0.967 0.96 0.956 1.024 1.019 0.957 0.992 0.991 0.978
2073.677 1.028 1.071 1.057 1.067 1.1179 1.1088 1.0899 1.082 1.057 1.077
2092.967 1.1351 1.1 1.056 1.0873 1 0.966 1.017 1.013 1 1.03
2112.257 1.058 1.061 1.1187 1.077 1.049 1.06 1.003 1.03 1.077 1.068
2131.547 1.055 1.042 1.054 1 1.006 1.075 1.042 1.013 1.014 1.024
2150.837 1.013 0.965 0.954 0.945 0.957 0.942 0.999 1.0921 1.018 0.941
2170.127 0.95 1 1.08 1.048 0.993 1.03 1.03 0.968 0.913 0.96
2189.417 1 1.005 0.993 0.935 0.967 1.026 1.005 0.978 0.974 0.978
2208.707 0.968 0.981 0.986 1.064 1.0969 0.966 0.933 1.01 1.066 1.102
2227.997 1.028 0.971 0.989 0.983 1.011 1.022 1.064 1.077 1.022 1.041
2247.287 1.0853 1.057 1.034 1.031 1.037 1.031 1.054 1.078 1.035 1.078
2266.577 1.053 0.991 1.069 1.0906 1.045 1.005 1.007 1.015 1.022 1.018
2285.868 1.023 1.02 0.952 0.927 0.951 1.048 1.0892 1.054 1.065 1.0893
2305.158 1.0955 1.041 0.96 0.96 0.966 0.952 1.013 1.013 0.986 0.99
2324.448 1.021 1.038 1.047 0.981 0.942 1.036 1.0943 1.0966 1.0903 1.0961
2343.738 1.078 1.0963 1.1151 1.1233 1.0966 1.059 1.1267 1.2072 1.18452 1.153
2363.028 1.078 1.07 1.1351 1.1126 1.069 0.992 0.898 0.913 1.054 1.112
2382.318 1.075 1.011 0.982 1.072 1.1193 1.1416 1.17204 1.131 1.0963 1.1333
2401.608 1.18997 1.17463 1.0804 1.022 1.023 1.03 1.1229 1.1566 1.065 1.005
2420.898 0.992 1.066 1.0907 1.0891 1.1677 1.1502 1.1227 1.1427 1.1258 1.056
2440.188 1.048 1.1387 1.1922 1.1516 1.1294 1.1465 1.18326 1.2564 1.21603 1.1115
2459.478 1.055 1.075 1.1471 1.2013 1.1671 1.0946 1.0834 1.1142 1.168 1.18961
2478.768 1.23596 1.17502 1.035 1.072 1.1329 1.18848 1.23966 1.22252 1.2027 1.1306
2498.058 1.0973 1.0857 1.08 1.1198 1.001 1.015 1.1352 1.1375 1.1371 1.1268
2517.348 1.1501 1.1234 1.1681 1.2316 1.2812 1.21139 1.019 1.08 1.19642 1.19257
2536.638 1.17158 1.1121 1.1256 1.1842 1.1544 1.1671 1.25157 1.26265 1.1617 1.0935
2555.928 1.1329 1.18514 1.1641 1.1274 1.1337 1.0994 1.1644 1.20009 1.1464 1.1434
2575.218 1.1214 1.1422 1.20025 1.27513 1.25727 1.24211 1.24649 1.23307 1.24598 1.24643
2594.508 1.23754 1.22279 1.26938 1.3095 1.25059 1.2509 1.25792 1.26751 1.3042 1.3061
2613.798 1.25196 1.1477 1.1288 1.23556 1.3389 1.2825 1.335 1.412 1.3911 1.3559
2633.088 1.2862 1.25354 1.26612 1.291 1.27476 1.25798 1.3238 1.3357 1.3031 1.2945
2652.378 1.2043 1.25236 1.3333 1.23329 1.17149 1.2916 1.4294 1.4468 1.4205 1.3382
2671.668 1.26279 1.22539 1.21179 1.18898 1.20299 1.24657 1.22248 1.2214 1.23863 1.26718
2690.958 1.2882 1.25961 1.24187 1.22103 1.22381 1.22153 1.20791 1.21469 1.20798 1.2484
2710.248 1.24029 1.1649 1.2103 1.23316 1.22206 1.27801 1.3159 1.25345 1.25983 1.3432
2729.538 1.3393 1.24327 1.27943 1.3136 1.27915 1.24511 1.20498 1.26764 1.27381 1.25168
2748.828 1.23005 1.27449 1.3782 1.4002 1.3646 1.398 1.3982 1.394 1.3947 1.3317
2768.118 1.25522 1.23342 1.2968 1.3619 1.3448 1.23727 1.1627 1.24495 1.3658 1.3369
2787.408 1.3377 1.3784 1.3782 1.4073 1.4699 1.4604 1.4335 1.4421 1.5288 1.6333
2806.698 1.5887 1.547 1.5412 1.6167 1.6893 1.7546 1.8616 1.893 1.7919 1.7676
2825.988 1.8992 1.9287 1.9279 1.9932 2.0491 2.1604 2.4 2.67 2.89 3.12
2845.278 3.58 4.04 4.35 4.72 4.96 5.15 5.4 5.5 5.46 5.33
2864.568 5.12 4.9 4.5 4.15 3.78 3.38 3.2 2.93 2.74 2.73
2883.858 2.73 2.71 2.8 2.9 2.85 2.8 2.88 3.04 3.13 3.3
2903.148 3.41 3.52 3.76 3.96 4.22 4.27 4.23 4.38 4.47 4.51
2922.438 4.54 4.42 4.37 4.52 4.65 4.63 4.68 4.8 4.94 5.12
2941.728 5.59 6.33 7.18 8.2 9.05 9.92 10.78 11.44 11.95 12.15
2961.018 12.21 12.14 11.81 11.22 10.57 9.74 8.86 8.14 7.37 6.67
2980.308 6.33 6.13 5.97 5.81 5.66 5.58 5.51 5.36 5.3 5.45
2999.598 5.39 5.26 5.19 5.22 5.3 5.16 5.03 5.09 4.95 4.63
3018.888 4.76 4.98 4.86 4.81 4.68 4.46 4.25 3.99 3.94 3.75
3038.178 3.52 3.36 3.11 3.1 3.14 3.06 3.07 3.07 2.96 2.93
3057.468 2.99 3.02 2.98 2.92 3 2.95 2.84 2.91 3.1 3.22
3076.758 3.21 3.24 3.5 3.68 3.82 4.08 4.14 4.18 4.16 3.93
3096.048 3.62 3.34 3.18 2.94 2.63 2.4 2.19 2.0765 1.8141 1.6184
3115.338 1.7091 1.4681 1.27747 1.4852 1.4748 1.3867 1.2807 1.1872 1.24077 1.325
3134.628 1.4593 1.4242 1.20716 1.19335 1.19878 1.071 1.012 0.958 0.836 0.784
3153.918 0.986 1.078 0.964 0.992 1.044 0.982 0.95 0.87 0.754 0.852
3173.208 0.88 0.755 0.638 0.679 0.717 0.664 0.728 0.831 0.923 0.901
3192.498 0.634 0.539 0.694 0.736 0.782 0.818 0.737 0.714 0.712 0.669
3211.788 0.647 0.544 0.543 0.76 0.823 0.719 0.733 0.809 0.673 0.5
3231.078 0.529 0.596 0.591 0.567 0.646 0.543 0.514 0.717 0.741 0.766
3250.368 0.861 0.797 0.661 0.644 0.566 0.445 0.427 0.416 0.458 0.5
3269.658 0.56 0.587 0.554 0.551 0.482 0.413 0.463 0.435 0.477 0.634
3288.948 0.541 0.27 0.332 0.535 0.492 0.388 0.367 0.465 0.608 0.563
3308.238 0.545 0.551 0.476 0.574 0.529 0.526 0.628 0.529 0.565 0.637
3327.528 0.53 0.494 0.541 0.399 0.307 0.412 0.393 0.456 0.41 0.368
3346.818 0.452 0.421 0.391 0.426 0.589 0.605 0.527 0.367 0.275 0.36
3366.108 0.305 0.187 0.386 0.511 0.43 0.389 0.316 0.408 0.38 0.15
3385.398 0.278 0.535 0.482 0.463 0.443 0.437 0.387 0.278 0.392 0.497
3404.688 0.526 0.512 0.349 0.463 0.524 0.389 0.462 0.441 0.397 0.266
3423.978 0.1 0.13 0.09 0 0.226 0.516 0.391 0.14 0.215 0.423
3443.269 0.398 0.361 0.397 0.409 0.441 0.438 0.29 0.16 0.13 0.16
3462.559 0.17 0.316 0.5 0.451 0.314 0.341 0.445 0.333 0.302 0.398
3481.849 0.435 0.296 0.281 0.327 0.348 0.491 0.432 0.203 0.183 0.335
3501.139 0.15 0.08 0.349 0.424 0.42 0.481 0.471 0.325 0.229 0.404
3520.429 0.414 0.271 0.219 0.05 0.13 0.229 0.205 0.269 0.265 0.288
3539.719 0.284 0.209 0.232 0.407 0.404 0.234 0.17 0.306 0.435 0.392
3559.009 0.34 0.349 0.353 0.287 0.297 0.394 0.265 0.231 0.414 0.529
3578.299 0.552 0.383 0.268 0.335 0.402 0.49 0.471 0.338 0.384 0.446
3597.589 0.449 0.487 0.446 0.404 0.414 0.485 0.443 0.337 0.318 0.221
3616.879 0.26 0.317 0.286 0.431 0.442 0.307 0.323 0.35 0.332 0.332
3636.169 0.47 0.462 0.254 0.16 0.248 0.442 0.482 0.301 0.18 0.293
3655.459 0.43 0.371 0.36 0.517 0.509 0.428 0.447 0.389 0.369 0.438
3674.749 0.36 0.251 0.429 0.639 0.664 0.539 0.337 0.362 0.445 0.369
3694.039 0.344 0.242 0.298 0.403 0.422 0.395 0.298 0.421 0.593 0.663
3713.329 0.522 0.392 0.412 0.559 0.649 0.592 0.572 0.582 0.616 0.532
3732.619 0.458 0.575 0.525 0.355 0.318 0.333 0.403 0.353 0.271 0.387
3751.909 0.481 0.356 0.307 0.368 0.345 0.428 0.433 0.411 0.43 0.452
3771.199 0.497 0.623 0.745 0.741 0.674 0.576 0.445 0.33 0.436 0.465
3790.489 0.497 0.623 0.601 0.573 0.567 0.374 0.344 0.402 0.426 0.579
3809.779 0.702 0.577 0.454 0.442 0.445 0.52 0.433 0.379 0.351 0.556
3829.069 0.598 0.28 0.18 0.478 0.65 0.51 0.512 0.636 0.699 0.562
3848.359 0.421 0.596 0.863 0.623 0.431 0.507 0.438 0.314 0.396 0.421
3867.649 0.414 0.603 0.579 0.486 0.716 0.84 0.564 0.395 0.536 0.683
3886.939 0.765 0.768 0.632 0.682 0.863 0.746 0.732 0.778 0.767 0.765
3906.229 0.628 0.731 0.717 0.724 0.77 0.724 0.787 0.701 0.375 0.408
3925.519 0.599 0.602 0.499 0.322 0.571 0.719 0.743 0.791 0.592 0.44
3944.809 0.461 0.506 0.596 0.759 0.863 0.794 0.707 0.728 0.765 0.748
3964.099 0.695 0.84 0.797 0.715 0.812 0.916 0.884 0.823 0.903 0.837
3983.389 0.841 0.972 0.859 0.771 0.79 0.784 0.681 0.5 0.496 0.56
##END=
