##TITLE=2,3-Dimethyl-1,4-pentadiene
##JCAMP-DX=4.24
##DATA TYPE=INFRARED SPECTRUM
##ORIGIN=NIST Mass Spectrometry Data Center
##OWNER=NIST Standard Reference Data Program
Collection (C) 2018 copyright by the U.S. Secretary of Commerce
on behalf of the United States of America. All rights reserved.
##CAS REGISTRY NO=758-86-1
##MOLFORM=C 7 H 12
##$NIST SOURCE=MSDC-IR
##SPECTROMETER/DATA SYSTEM=HP-GC/MS/IRD
##STATE=gas
##XUNITS=1/CM
##YUNITS=ABSORBANCE
##XFACTOR=1.0
##YFACTOR=0.000002100
##DELTAX=4.0
##FIRSTX=550.0
##LASTX=3846.0
##FIRSTY=0.000473
##MAXX=3846
##MINX=550
##MAXY=0.021
##MINY=0
##NPOINTS=825
##XYDATA=(X++(Y..Y))
550.0 225 197 197 172 184 147 136 144 115 88
590.0 79 85 60 77 107 118 144 133 118 146
630.0 222 245 261 349 445 514 576 696 704 591
670.0 510 485 426 316 212 180 180 175 180 179
710.0 166 149 151 119 86 62 38 25 0 20
750.0 37 25 48 55 52 77 92 109 108 84
790.0 88 100 92 96 86 92 152 175 250 274
830.0 213 230 284 341 412 480 570 702 865 1141
870.0 1589 2174 2842 3563 4279 5127 5789 5995 6089 6052
910.0 5840 5497 5001 4432 3777 3005 2263 1713 1338 1076
950.0 949 871 818 818 827 920 1131 1355 1568 1785
990.0 1944 1994 1958 1832 1599 1312 1061 890 779 715
1030.0 681 662 686 704 705 730 725 719 731 768
1070.0 838 865 844 813 789 734 653 584 498 430
1110.0 357 278 248 234 218 242 268 256 216 200
1150.0 175 141 139 115 78 70 96 85 49 42
1190.0 57 74 85 110 158 219 279 340 394 421
1230.0 459 451 396 348 316 297 272 260 289 331
1270.0 370 420 453 465 436 412 390 334 308 288
1310.0 261 252 230 224 233 243 254 273 318 378
1350.0 465 620 843 1085 1336 1584 1810 1925 1907 1807
1390.0 1665 1476 1280 1189 1186 1219 1264 1301 1339 1383
1430.0 1437 1524 1663 1839 1962 2055 2132 2149 2031 1797
1470.0 1550 1297 1040 814 636 512 442 388 334 296
1510.0 263 245 224 199 206 213 202 198 208 228
1550.0 238 260 284 291 307 333 341 362 391 413
1590.0 451 504 549 630 768 953 1211 1549 1940 2311
1630.0 2634 2888 3008 2987 2819 2470 1998 1558 1208 898
1670.0 622 435 321 237 186 160 141 132 117 106
1710.0 91 75 74 69 61 59 57 49 49 55
1750.0 52 68 84 95 121 148 187 236 280 317
1790.0 340 344 346 313 285 288 300 326 369 400
1830.0 419 421 399 371 316 243 170 117 80 59
1870.0 51 39 41 42 37 33 19 16 27 38
1910.0 39 27 30 37 35 39 28 19 28 28
1950.0 25 27 21 23 32 41 41 36 48 52
1990.0 43 30 18 35 29 16 12 14 24 25
2030.0 19 15 7 4 10 24 34 34 36 28
2070.0 18 18 13 12 23 18 11 21 28 18
2110.0 4 11 22 30 38 37 26 25 36 37
2150.0 33 33 28 33 38 21 16 25 15 6
2190.0 7 14 21 13 4 8 9 16 26 26
2230.0 30 36 37 37 45 38 42 50 32 30
2270.0 21 19 37 36 40 47 45 47 51 48
2310.0 59 67 52 44 50 44 35 46 49 50
2350.0 39 35 41 43 53 61 58 49 44 43
2390.0 48 50 50 50 54 62 49 50 57 56
2430.0 71 67 46 50 44 43 43 28 38 54
2470.0 51 59 63 51 53 57 51 57 66 70
2510.0 66 55 63 80 83 84 98 95 85 87
2550.0 81 71 71 71 69 67 80 96 79 68
2590.0 66 72 84 76 63 47 43 55 65 80
2630.0 85 81 80 85 82 66 74 81 75 84
2670.0 85 88 85 75 83 82 88 108 126 129
2710.0 129 148 165 178 195 191 179 188 194 190
2750.0 185 183 174 174 179 183 197 210 214 226
2790.0 243 267 286 309 342 366 394 428 465 521
2830.0 584 646 716 834 1007 1224 1482 1763 2082 2443
2870.0 2796 3104 3350 3509 3544 3503 3450 3391 3331 3326
2910.0 3390 3514 3700 3904 4115 4318 4475 4591 4668 4774
2950.0 4962 5314 5964 6974 8203 9298 9922 10000 9514 8736
2990.0 7606 6172 4933 4042 3441 2958 2575 2265 1994 1742
3030.0 1537 1389 1318 1308 1334 1442 1616 1854 2205 2642
3070.0 3113 3623 4090 4321 4312 4013 3489 2952 2339 1707
3110.0 1190 849 662 535 448 396 348 317 296 268
3150.0 236 224 231 234 230 209 189 185 171 153
3190.0 165 181 172 163 166 159 143 138 109 110
3230.0 152 140 114 92 85 94 98 110 107 98
3270.0 93 81 88 96 84 90 95 85 89 90
3310.0 91 86 70 79 78 63 52 52 47 45
3350.0 47 68 76 45 39 46 31 13 31 48
3390.0 37 35 39 42 46 39 38 60 63 61
3430.0 58 40 32 48 68 62 56 49 38 44
3470.0 35 18 38 50 53 55 51 39 39 56
3510.0 66 68 60 52 31 8 11 22 28 33
3550.0 35 53 43 5 7 24 29 13 18 37
3590.0 50 60 54 46 33 39 52 52 60 58
3630.0 46 47 54 61 65 49 38 49 51 51
3670.0 49 50 59 77 73 44 22 31 42 18
3710.0 5 1 32 56 41 33 43 34 44 68
3750.0 64 69 55 73 75 54 70 82 51 38
3790.0 48 43 46 48 46 37 39 51 61 51
3830.0 41 55 47 44 56
##END=
