##TITLE=1,2,3,4-Tetrahydronaphthalene-d12
##JCAMP-DX=4.24
##DATA TYPE=INFRARED SPECTRUM
##ORIGIN=NIST Mass Spectrometry Data Center
##OWNER=NIST Standard Reference Data Program
Collection (C) 2018 copyright by the U.S. Secretary of Commerce
on behalf of the United States of America. All rights reserved.
##CAS REGISTRY NO=75840-23-2
##MOLFORM=C 10 D 12
##$NIST SOURCE=MSDC-IR
##SPECTROMETER/DATA SYSTEM=HP-GC/MS/IRD
##STATE=gas
##XUNITS=1/CM
##YUNITS=ABSORBANCE
##XFACTOR=1.0
##YFACTOR=0.000000900
##DELTAX=4.0
##FIRSTX=550.0
##LASTX=3846.0
##FIRSTY=0.000644
##MAXX=3846
##MINX=550
##MAXY=0.009
##MINY=0
##NPOINTS=825
##XYDATA=(X++(Y..Y))
550.0 715 1730 2457 3331 4275 6137 5997 4174 3313 2449
590.0 1531 854 370 128 158 171 72 18 63 67
630.0 99 137 124 193 175 56 39 55 29 4
670.0 24 28 0 34 79 150 165 106 104 188
710.0 360 424 372 376 394 308 158 85 40 96
750.0 176 145 155 178 134 109 99 96 155 202
790.0 169 133 156 138 77 118 127 193 338 413
830.0 483 509 481 491 488 519 547 501 486 454
870.0 409 412 412 312 196 142 87 90 71 44
910.0 110 145 138 110 72 50 93 156 138 155
950.0 161 125 181 195 93 35 49 111 162 219
990.0 349 444 480 520 535 470 468 646 772 800
1030.0 780 672 527 417 423 548 595 624 709 793
1070.0 775 695 666 631 512 400 338 275 240 264
1110.0 255 241 249 233 213 172 212 308 314 400
1150.0 518 493 486 471 367 367 423 466 543 593
1190.0 598 581 498 379 294 229 163 143 144 107
1230.0 56 77 91 72 101 126 180 248 315 379
1270.0 436 486 509 493 419 323 245 191 158 125
1310.0 97 131 191 208 232 285 323 358 395 421
1350.0 488 531 545 562 521 434 393 454 589 845
1390.0 1247 1653 1868 1882 1707 1299 813 485 334 249
1430.0 205 196 164 138 109 88 71 65 88 84
1470.0 61 37 40 69 80 102 132 154 167 164
1510.0 187 176 167 173 162 174 243 369 609 893
1550.0 1093 1192 1181 1071 902 743 614 516 507 474
1590.0 428 417 437 424 376 327 249 151 108 106
1630.0 75 14 7 29 28 42 63 81 94 91
1670.0 78 68 63 48 25 37 50 44 40 55
1710.0 69 42 47 66 44 30 31 46 43 44
1750.0 57 42 12 7 21 49 56 53 64 66
1790.0 41 44 55 53 61 61 60 71 65 52
1830.0 68 84 79 64 39 49 75 64 63 94
1870.0 109 94 82 57 54 66 50 42 37 38
1910.0 48 61 38 30 44 63 81 63 53 59
1950.0 61 68 79 104 107 101 112 121 133 152
1990.0 163 151 143 148 153 176 221 266 288 325
2030.0 378 425 458 500 589 683 772 878 970 1086
2070.0 1242 1445 1743 2134 2717 3477 4377 5350 6281 7110
2110.0 7542 7401 6784 5932 5140 4490 4035 3729 3468 3209
2150.0 2954 2798 2737 2759 2862 3054 3388 3878 4566 5433
2190.0 6422 7529 8677 9530 9964 10000 9271 7863 6371 5076
2230.0 4101 3425 3008 2752 2582 2601 2868 3307 3879 4428
2270.0 4834 5194 5391 5257 4852 4256 3484 2652 1876 1241
2310.0 835 616 485 400 343 276 265 270 243 221
2350.0 239 250 209 206 222 220 227 218 243 284
2390.0 311 335 332 319 279 236 235 232 209 182
2430.0 165 146 128 121 108 103 104 102 82 65
2470.0 39 30 40 45 55 41 42 66 43 53
2510.0 80 58 51 25 1 6 50 92 64 78
2550.0 80 49 28 38 66 66 79 78 72 87
2590.0 90 78 76 108 88 85 95 76 46 28
2630.0 56 75 76 55 38 46 37 29 49 56
2670.0 47 35 24 36 30 63 93 64 44 34
2710.0 11 21 59 69 48 48 58 65 53 46
2750.0 34 20 40 28 41 71 37 14 35 56
2790.0 64 100 115 94 51 66 78 105 98 44
2830.0 59 63 94 103 61 44 45 37 53 78
2870.0 73 90 145 152 156 202 220 214 197 207
2910.0 225 248 270 312 369 344 303 282 232 187
2950.0 176 148 128 136 130 109 95 88 89 113
2990.0 117 101 79 62 28 62 118 109 106 116
3030.0 90 113 140 79 56 100 120 127 150 154
3070.0 101 70 77 89 113 109 104 127 162 132
3110.0 144 172 176 167 149 154 130 150 188 182
3150.0 179 192 198 178 207 207 144 151 175 194
3190.0 186 158 124 133 122 120 156 138 162 154
3230.0 153 177 162 145 132 78 60 102 125 147
3270.0 166 165 167 161 181 211 182 149 144 123
3310.0 105 123 148 127 124 90 97 105 33 32
3350.0 51 67 84 54 30 58 77 76 79 80
3390.0 106 102 105 120 119 144 154 196 173 121
3430.0 113 77 103 131 96 117 148 78 70 143
3470.0 121 73 74 101 114 113 119 117 139 141
3510.0 113 75 14 60 132 132 116 111 139 180
3550.0 118 50 46 65 59 53 106 123 116 67
3590.0 54 85 87 62 28 62 59 56 111 95
3630.0 47 0 38 93 86 95 89 83 122 138
3670.0 124 138 105 99 181 141 98 133 138 133
3710.0 109 112 130 139 136 115 109 81 52 41
3750.0 47 82 108 73 46 106 141 115 108 173
3790.0 205 164 167 196 187 164 149 102 75 130
3830.0 154 74 110 160 93
##END=
