##TITLE=2,3-Difluorobenzyl alcohol
##JCAMP-DX=4.24
##DATA TYPE=INFRARED SPECTRUM
##ORIGIN=EPA-IR VAPOR PHASE LIBRARY
##OWNER=SRD/NIST
Collection (C) 2018 copyright by the U.S. Secretary of Commerce
on behalf of the United States of America. All rights reserved.
##CAS REGISTRY NO=75853-18-8
##MOLFORM=C 7 H 6 F 2 O
##$NIST SOURCE=MSDC-IR
##STATE=gas
##XUNITS=1/CM
##YUNITS=ABSORBANCE
##XFACTOR=1.
##YFACTOR=0.001
##DELTAX=1.92898
##FIRSTX=549.8
##LASTX=4000.7
##FIRSTY=4.63
##MAXX=4000.7
##MINX=549.759
##MAXY=0.07644
##MINY=0
##NPOINTS=1790
##XYDATA=(X++(Y..Y))
549.759 4.63 4.8 5.43 5.15 4.56 3.83 4.33 5.04 4.17 3.92
569.049 3.91 3.62 3.66 2.75 1.9837 1.9739 1.8052 1.8319 1.8271 2.2174
588.339 2.49 1.7714 1.3847 1.8956 2.1819 1.9608 1.6909 2.1641 2.41 2.43
607.628 2.59 2.1243 1.8575 2.0728 2.1867 2.4 2.49 2.0409 2.1899 2.59
626.918 3.3 4.52 4.83 4.78 5.67 6.32 6.48 6.86 7.51 8.16
646.208 7.97 7.74 8.04 8.53 8.71 8.56 8.61 8.52 8.26 8.58
665.498 9.14 9.43 9.21 8.9 9 8.93 8.9 8.95 8.98 8.56
684.787 8.17 8.3 8.59 8.74 8.46 7.73 7.2 7.18 6.88 6.79
704.077 6.38 5.69 5.22 4.94 4.92 4.7 4.2 3.85 3.42 2.96
723.367 2.96 2.77 2.8 2.54 2.014 1.9589 1.4389 1.5477 2.1601 2.1817
742.657 1.9995 1.6844 1.4348 1.5221 1.878 1.5868 1.3601 1.381 1.24315 1.29554
761.947 1.5929 2.0328 1.7522 1.5366 1.6768 1.3873 1.3046 1.3605 1.24887 1.32816
781.236 1.6106 1.68 1.6604 1.9913 1.776 1.3473 1.5328 1.9251 2.0653 2.0716
800.526 2.24 2.34 2.57 2.68 2.25 2.1473 2.69 2.63 2.25 2.72
819.816 3.98 5.14 5.63 5.67 5.52 6.73 8.39 10.36 13.09 16.04
839.106 19.38 22.41 25.39 28.43 33.03 40.09 48.23 50.46 42.25 34.15
858.395 30.92 28.84 26.48 23.73 20.5 16.62 13.61 11.28 8.99 7.49
877.685 6.39 5.69 5.77 5.24 4.31 4.49 4.33 3.7 3.63 3.91
896.975 4.36 4.15 3.82 4.04 4.19 4.06 4 4.2 4.45 5.03
916.265 5.5 5.54 5.99 6.27 6.65 7.26 7.64 7.97 8.27 9.35
935.555 10.83 12.15 13.73 15.32 16.81 18.86 20.84 22.22 23.74 24.99
954.844 26.02 26.61 26.5 26.31 26.59 26.47 25.83 25.26 24.41 23.91
974.134 23.67 23.44 23.48 24.05 24.79 25.71 26.71 27.35 28.56 29.63
993.424 29.95 30.04 29.69 29.42 29.48 28.36 26.89 25.77 23.89 22.05
1012.714 20.92 20.06 18.85 17.91 17.53 16.76 15.59 15.45 16.48 16.04
1032.003 16.53 17.4 16.58 17.22 17.69 18 17.91 17.49 17.57 18.23
1051.293 18.68 18.5 17.91 16.96 15.76 14.72 15.05 14.44 13.3 12.5
1070.583 11.92 10.88 9.74 9.31 8.87 9.43 9.5 8.93 7.96 8.44
1089.873 9.78 10.14 9.37 7.82 9.23 12.29 14.98 16.88 20.18 24.79
1109.163 31.54 39.89 50.11 61.31 69.82 74.33 72.9 69.9 71.16 76.44
1128.452 76.27 67.73 56.14 43.28 31.9 23.53 17.99 13.9 10.18 7.85
1147.742 6.7 6.15 6.81 7.11 6.23 5.91 5.84 6.42 6.21 6.03
1167.032 6.38 5.29 5.66 6.98 7.02 6.73 7.24 7.76 7.07 6.35
1186.322 6.27 6.76 6.49 6.66 6.18 5.22 5.95 6.21 6.18 5.43
1205.611 4.54 4.61 5.21 5.79 5.77 5.53 4.89 3.26 3.17 4.65
1224.901 4.35 4.55 5.68 4.92 4.35 3.97 4.48 5.67 5.38 5.33
1244.191 6.02 5.76 5.23 5.57 5.19 5.08 5.76 5.58 5.3 4.93
1263.481 4.78 5.44 5.5 5.55 5.95 5.85 6.17 6.12 5.67 6.07
1282.771 6.31 6.63 7.25 7.65 8.35 8.98 9.9 10.93 12.33 14.26
1302.060 16.11 18.44 21.45 24.93 28.78 32.84 36.78 40.46 43.35 45.42
1321.350 46.61 46.42 45.17 43.05 40.03 36.23 32.15 28.12 24.19 20.76
1340.640 17.9 15.66 14.19 13.35 12.79 12.6 12.71 13.01 13.55 14.27
1359.930 15.01 15.84 16.82 17.65 18.25 18.64 18.93 18.98 18.86 18.68
1379.219 18.27 17.53 16.67 15.85 14.97 14.02 13.13 12.47 11.88 11.42
1398.509 11.17 11.01 10.58 10.13 10.07 10.06 10.14 10.31 10.59 11.14
1417.799 11.98 12.94 14.31 16.22 18.35 20.74 23.35 26.04 28.64 30.92
1437.089 32.91 34.36 35.52 36.52 37.49 38.71 39.95 41.11 41.94 42.47
1456.378 43.09 43.66 44.09 44.23 43.77 42.73 40.86 38.29 35.29 31.59
1475.668 27.61 23.84 20.52 17.66 15.36 13.45 11.77 10.2 9.03 8.32
1494.958 8 7.61 7.45 7.51 7.66 7.77 7.69 7.86 7.75 7.48
1514.248 7.5 7.42 7.33 7.09 6.7 6.67 6.33 5.84 5.71 5.59
1533.538 5.55 5.53 5.41 5.51 5.62 5.49 5.41 5.5 5.68 5.86
1552.827 6.15 6.5 6.92 7.46 8.19 8.98 9.81 11.02 12.79 14.78
1572.117 16.92 19.6 23.13 26.9 30.98 35.44 39.91 44.61 48.93 52.71
1591.407 55.39 57.65 59.46 60.14 60.44 60.51 59.42 57.98 56.95 56.23
1610.697 56.71 58.55 61.09 63.93 66.43 67.9 68.04 66.88 64.34 60.52
1629.986 55.62 49.77 43.65 37.19 31.3 26.52 22.27 18.97 16.33 14.19
1649.276 12.53 10.94 9.71 8.74 7.85 7.35 7.1 6.62 6.3 6.19
1668.566 5.97 5.95 6.05 5.97 5.79 5.54 5.44 5.45 5.34 5.02
1687.856 4.62 4.59 4.4 4.19 3.97 3.89 3.8 3.5 3.31 3.02
1707.146 2.69 2.57 2.57 2.45 2.43 2.36 2.1451 2.29 2.4 2.2032
1726.435 2.0375 1.9497 1.9944 2.0153 1.9251 1.9171 1.9231 1.8456 1.7587 1.684
1745.725 1.5165 1.4243 1.3805 1.3323 1.3835 1.32552 1.24466 1.32581 1.2811 1.1307
1765.015 1.24005 1.3472 1.3667 1.3475 1.1581 1.124 1.26743 1.1682 1.099 1.1546
1784.305 1.072 1.1876 1.2102 0.979 0.987 1.1684 1.1556 1.1955 1.1316 0.995
1803.594 1.093 0.97 0.886 1.1459 1.118 1.035 1.001 1.033 1.119 1.074
1822.884 1.1522 1.057 0.948 1.063 1.044 1.004 1.117 1.1547 1.022 0.979
1842.174 1.133 1.112 1.092 1.1593 1.1395 1.032 1.1664 1.22907 0.994 0.939
1861.464 1.1597 1.086 0.873 1.014 1.024 1 0.987 0.959 1.005 1.08
1880.754 0.986 0.907 0.886 0.859 0.984 0.945 0.925 1.1457 1.1889 1.016
1900.043 0.803 0.614 0.637 0.822 1.08 1.1 0.91 0.891 1.038 1.098
1919.333 0.951 0.888 1 0.874 0.888 1.086 1.089 1.084 1.063 1.126
1938.623 1.24188 1.31182 1.1784 0.977 1.086 1.1335 1.023 0.936 1.03 1.084
1957.913 1.124 1.121 0.99 1.058 1.2009 1.226 1.1787 1.1985 1.12 1.1397
1977.202 1.24104 1.26599 1.26372 1.22757 1.1772 1.23258 1.2159 1.071 1.066 1.1692
1996.492 1.086 1.029 1.1883 1.23059 1.24829 1.1934 1.05 1.072 1.127 1.1433
2015.782 1.106 1.047 1.134 1.1875 1.027 0.932 1.094 1.1467 1.095 1.09
2035.072 1.086 1.081 1.005 1.101 1.1752 1.168 1.1504 1.1578 1.30216 1.3636
2054.362 1.25427 1.26618 1.29734 1.28518 1.32154 1.1778 1.1454 1.23335 1.3796 1.3759
2073.651 1.4413 1.4253 1.4028 1.5136 1.5277 1.6773 1.6634 1.5451 1.5789 1.6684
2092.941 1.6099 1.5098 1.5545 1.5252 1.4717 1.4826 1.5007 1.5943 1.6343 1.4802
2112.231 1.4934 1.5108 1.437 1.5017 1.5525 1.5329 1.4417 1.3907 1.3697 1.3741
2131.521 1.30971 1.27542 1.4423 1.4529 1.26711 1.191 1.27227 1.4673 1.3637 1.2182
2150.810 1.188 1.035 0.97 1.1432 1.23629 1.089 0.942 1.003 1.1569 1.115
2170.100 0.961 0.993 1.101 1.083 0.97 0.9 1.23523 1.24132 1.081 1.24665
2189.390 1.1865 1.053 0.869 0.685 0.766 0.951 0.971 1.1883 1.3423 1.1501
2208.680 1.084 1.025 1.007 1.063 0.949 0.729 0.83 1.083 1.119 1.088
2227.970 0.96 0.932 0.959 0.983 1.124 1.22253 1.118 1.1557 1.337 1.28746
2247.259 1.3509 1.3796 1.27293 1.29582 1.27568 1.333 1.22573 1.1311 1.32467 1.4111
2266.549 1.4258 1.27709 1.28153 1.25012 1.1995 1.25861 1.2751 1.3836 1.32298 1.1884
2285.839 1.23794 1.3314 1.4091 1.31848 1.1896 1.2464 1.1874 0.938 0.824 1.038
2305.129 1.2996 1.32655 1.102 1.066 1.083 1.044 1.048 1.09 1.1721 1.3322
2324.418 1.4191 1.3615 1.24443 1.086 0.983 0.903 1.1362 1.125 1.064 1.2587
2343.708 1.1527 0.991 1.28379 1.26664 1.001 1.25938 1.205 1.1722 1.26503 1.1764
2362.998 1.2186 1.184 1.1331 1.2031 1.1673 1.108 1.1432 1.073 1.1616 1.037
2382.288 0.954 1.111 1.056 0.931 0.977 1.1968 1.30188 1.32272 1.31126 1.31481
2401.578 1.071 0.932 1.1446 1.24281 1.4014 1.6931 1.6714 1.5176 1.4534 1.5873
2420.867 1.7855 1.9332 1.7928 1.6799 1.9993 2.0931 2.0955 2.1678 2.0038 1.9268
2440.157 1.9872 1.8769 1.7559 1.8527 1.7077 1.4043 1.3825 1.5309 1.5892 1.4972
2459.447 1.3241 1.1997 1.3929 1.26923 1.1357 1.2119 1.1998 1.1976 1.037 1.064
2478.737 1.103 0.984 1.076 0.955 0.84 0.833 0.803 0.999 1.084 0.973
2498.026 1.122 1.3088 1.1783 0.975 0.897 0.916 1.021 0.913 0.788 1.076
2517.316 1.108 1.22631 1.102 0.97 0.978 1.048 1.24621 1.083 1.031 0.742
2536.606 0.723 0.929 0.902 0.923 1.008 0.913 0.924 1.1768 1.23343 1.31883
2555.896 1.3385 1.3545 1.25027 1.175 1.1654 1.058 1.049 1.185 1.23292 1.25576
2575.186 1.30711 1.32147 1.558 1.6407 1.27835 1.25341 1.2132 0.985 1.099 1.1487
2594.475 1.107 1.013 1.2057 1.3387 1.3528 1.25622 1.1639 1.3454 1.1794 1.052
2613.765 1.07 1.077 1.125 0.9 0.892 0.911 0.86 0.961 0.972 1.011
2633.055 1.1631 1.08 1.036 1.12 1.069 1.1617 1.31364 1.078 0.756 0.831
2652.345 0.974 1.1428 1.044 0.944 1.029 1.1651 1.3726 1.23732 1.1414 1.1787
2671.634 0.78 0.848 1.24082 1.1848 1 1.061 1.2098 1.089 1.1537 1.30339
2690.924 1.3347 1.25041 1.1346 1.22307 1.30415 1.036 0.836 0.993 0.931 0.994
2710.214 1.22585 1.1411 1.2596 1.31354 1.32685 1.1591 0.974 1.093 1.198 1.1399
2729.504 1.013 1.123 1.102 1.26329 1.4801 1.4207 1.466 1.5748 1.5951 1.41
2748.794 1.5299 1.5649 1.1646 1.25783 1.3865 1.25213 1.25075 1.31955 1.4668 1.5909
2768.083 1.4269 1.436 1.5775 1.6041 1.6036 1.5864 1.4539 1.4917 1.7251 1.8026
2787.373 1.9989 1.8341 1.792 1.8119 1.9012 2.0687 1.828 1.8821 2.1293 2.079
2806.663 1.9721 2.0192 2.1707 2.2111 2.0924 2.1383 2.35 2.46 2.59 2.54
2825.953 2.51 2.75 3.03 3.29 3.2 3.18 3.28 3.33 3.39 3.63
2845.242 3.74 3.65 3.83 3.97 4.32 4.84 5.05 4.98 5.02 5.58
2864.532 5.97 6.06 6.46 7.04 7.27 7.56 8.06 8.73 9.34 9.54
2883.822 9.71 9.83 9.88 9.83 9.83 9.7 9.54 9.52 9.49 9.38
2903.112 9.19 9.17 9.08 8.67 8.54 8.49 8.15 7.98 8.37 8.72
2922.401 8.8 8.73 8.47 8.56 8.8 8.9 8.86 8.61 8.5 8.57
2941.691 8.49 8.11 7.59 7.41 7.35 7.1 6.92 6.59 6.45 6.35
2960.981 6.01 5.65 5.22 5.17 5.02 4.87 4.66 4.01 3.77 3.82
2980.271 3.43 3.18 3.14 2.76 2.4 2.0938 1.8296 1.7609 1.901 2.1367
2999.561 2.1325 1.8367 1.7324 1.6677 1.6743 1.6996 1.4529 1.4105 1.3478 1.4278
3018.850 1.25683 1.1879 1.4434 1.2009 1.107 1.1665 1.1644 1.046 1.097 1.031
3038.140 1.1787 1.29004 0.902 0.927 1.142 1.029 1.063 1.183 1.06 1.1661
3057.430 1.088 1.22046 1.4345 1.6479 1.7268 1.6782 1.7401 1.6874 1.6753 1.6358
3076.720 1.4078 1.5911 1.976 2.0807 2.32 1.8875 1.474 1.8719 1.7926 1.6034
3096.009 1.6611 1.7029 1.8774 1.6762 1.3592 1.4356 1.5467 1.4045 1.063 0.899
3115.299 0.809 0.504 0.69 0.478 0.15 0.382 0.734 0.943 0.862 0.892
3134.589 0.839 0.667 0.723 0.94 0.806 0.861 0.621 0.431 0.728 0.589
3153.879 0.683 0.809 0.785 0.669 0.552 0.674 0.821 0.663 0.78 0.971
3173.169 0.671 0.834 0.634 0.415 0.848 0.703 0.624 0.884 0.861 0.788
3192.458 0.99 1.129 0.908 0.84 0.801 0.843 0.943 0.863 0.862 0.741
3211.748 0.995 1.28137 0.895 0.448 0.18 0.245 0.586 0.915 0.98 0.856
3231.038 0.82 0.694 0.71 0.747 0.908 1.335 1.067 0.795 0.73 0.617
3250.328 0.642 1.037 1.038 0.481 0.249 0.523 0.984 1.091 1.025 0.431
3269.617 0.334 0.3 0.262 0.413 0.503 0.757 0.778 0.942 0.895 0.668
3288.907 0.8 0.583 0.439 0.636 0.466 0.314 0.17 0.629 0.946 0.75
3308.197 0.759 0.677 0.645 1.003 1.089 0.842 0.763 0.701 0.762 0.664
3327.487 0.453 0.437 0.514 0.18 0 0.32 0.576 0.587 0.385 0.709
3346.777 0.897 0.743 0.431 0.396 0.994 1.048 1.057 1.014 0.932 1.195
3366.066 0.847 0.815 0.932 0.822 1.129 0.682 0.17 0.54 0.897 1.048
3385.356 0.941 0.72 0.892 1.1508 0.951 0.532 0.655 0.894 0.624 0.408
3404.646 0.493 1.035 1.1851 0.787 0.614 0.943 1.085 0.927 1.186 1.4039
3423.936 1.1378 0.653 0.596 0.948 1.4486 1.6999 1.23814 0.629 1.031 1.1583
3443.225 0.762 0.664 0.766 0.939 0.962 1.102 0.654 0.409 0.776 0.888
3462.515 0.775 1.082 1.5011 1.14 0.969 1.1921 1.26092 1.27609 1.1415 0.607
3481.805 0.677 0.927 0.763 0.549 0.719 1.2089 1.115 0.971 0.866 0.947
3501.095 0.906 0.828 1 1.126 1.115 0.766 0.632 0.741 0.797 0.737
3520.385 0.612 0.787 0.954 0.827 0.976 1.3469 1.25397 1.032 1.006 0.575
3539.674 0.324 0.742 0.724 0.883 1.076 1.088 0.901 0.522 0.698 0.984
3558.964 0.996 0.849 1.1481 1.5381 1.4022 1.1848 1.05 0.932 1.1863 1.001
3578.254 0.804 0.887 1.23075 1.5469 1.1612 1.033 1.1433 1.4512 1.674 1.5765
3597.544 1.6169 1.536 1.23846 1.112 1.3944 1.4775 1.27498 1.3856 1.6832 1.9071
3616.833 1.9791 2.0184 2.0451 2.0963 2.1814 2.69 3.02 3.16 3.72 4.1
3636.123 4.21 4.27 4.69 5.04 5.34 6.16 6.88 7.5 7.98 8.19
3655.413 8.32 8.2 8.07 7.81 7.43 7.63 7.65 7.19 7.01 6.97
3674.703 6.66 6.08 5.69 5.21 4.77 4.31 4.14 4.32 3.78 3.32
3693.993 2.81 2.59 2.81 2.45 2.1108 1.7454 1.5671 1.5447 1.29814 0.985
3713.282 1.4027 1.8067 1.3384 1.061 1.1973 1.13 1.2055 1.5588 1.5222 1.32292
3732.572 1.30802 1.1 0.808 0.93 0.884 0.598 0.888 1.036 0.87 0.931
3751.862 0.675 0.441 0.331 0.404 0.464 0.492 0.464 0.522 0.593 0.376
3771.152 0.973 1.1429 0.755 0.428 0.522 1.049 0.756 1.091 1.4922 1.385
3790.441 1.111 0.576 0.51 1.083 0.951 0.957 1.7001 1.077 0.756 1.26985
3809.731 1.066 0.716 0.811 1.006 1.5044 1.4829 0.586 0.22 0.589 0.889
3829.021 0.692 0.622 0.827 1.063 1.4503 1.5804 1.3716 1.073 0.821 0.666
3848.311 0.584 0.692 0.98 0.747 0.836 1.089 0.933 0.977 0.908 0.832
3867.601 0.771 1.01 1.3942 1.5175 1.26056 1.016 1.22812 1.6802 1.25986 1.1496
3886.890 1.3753 1.016 1.26628 1.071 0.53 0.533 0.97 0.655 0.267 0.641
3906.180 1.3867 1.5235 0.792 0.703 0.687 0.977 1.1753 0.99 1.021 0.96
3925.470 1.1865 1.29175 0.839 0.37 0.331 0.554 0.845 0.944 0.832 0.912
3944.760 1.113 1.3408 1.29475 1.123 1.26049 0.923 0.869 1.019 0.826 0.769
3964.049 0.788 0.701 0.676 0.862 0.697 0.863 0.826 0.737 1.058 0.913
3983.339 0.606 0.489 0.618 0.876 0.863 0.787 0.85 0.553 0.547 0.458
##END=
