##TITLE=2,5-Difluorobenzyl alcohol
##JCAMP-DX=4.24
##DATA TYPE=INFRARED SPECTRUM
##ORIGIN=EPA-IR VAPOR PHASE LIBRARY
##OWNER=SRD/NIST
Collection (C) 2018 copyright by the U.S. Secretary of Commerce
on behalf of the United States of America. All rights reserved.
##CAS REGISTRY NO=75853-20-2
##MOLFORM=C 7 H 6 F 2 O
##$NIST SOURCE=MSDC-IR
##STATE=gas
##XUNITS=1/CM
##YUNITS=ABSORBANCE
##XFACTOR=1.
##YFACTOR=0.001
##DELTAX=1.92898
##FIRSTX=549.8
##LASTX=4000.7
##FIRSTY=6.228
##MAXX=4000.7
##MINX=549.759
##MAXY=0.208988
##MINY=0
##NPOINTS=1790
##XYDATA=(X++(Y..Y))
549.759 6.228 6.668 7.298 7.538 7.448 7.688 8.518 8.588 8.248 7.828
569.049 7.388 7.138 6.488 5.528 5.258 4.958 4.168 3.848 3.658 3.528
588.339 3.338 3.058 2.798 2.698 2.738 2.518 2.488 2.548 2.508 2.578
607.628 2.478 2.558 2.978 3.158 3.048 3.048 3.228 3.498 3.488 3.658
626.918 3.718 3.378 3.138 3.158 3.208 2.948 2.828 2.728 2.528 2.448
646.208 2.248 1.898 1.958 1.908 1.838 1.918 1.858 1.908 1.718 1.548
665.498 1.438 1.528 1.578 1.638 1.798 1.908 1.898 1.878 2.158 2.498
684.787 2.838 3.328 3.818 4.358 4.998 5.908 7.438 9.208 11.208 13.578
704.077 16.268 19.158 21.878 23.958 25.498 27.218 28.278 28.708 29.048 28.598
723.367 27.678 26.868 26.258 25.938 26.178 26.728 27.228 27.908 28.598 29.088
742.657 29.428 29.228 28.668 27.728 26.628 25.188 23.538 22.048 20.708 19.688
761.947 18.608 17.668 17.068 16.608 16.248 16.208 16.238 16.358 16.708 16.948
781.236 17.108 17.318 17.738 18.238 18.768 19.718 20.738 21.908 23.788 26.148
800.526 28.258 30.008 32.118 34.808 38.928 44.178 47.918 46.198 40.468 35.208
819.816 31.218 28.308 25.818 22.668 19.158 16.068 13.318 11.018 9.018 7.678
839.106 7.008 6.738 6.768 6.658 6.778 7.318 8.268 9.458 11.098 13.208
858.395 15.378 18.048 21.278 24.058 26.568 29.788 33.788 38.578 42.568 42.408
877.685 37.748 32.688 28.788 25.638 23.018 20.318 17.688 14.978 12.258 9.958
896.975 8.448 7.398 6.548 6.088 5.838 5.698 5.598 5.628 5.728 5.988
916.265 6.308 6.688 7.108 7.538 8.218 9.118 10.138 11.128 12.218 13.548
935.555 14.728 15.708 16.688 17.418 18.068 18.418 18.548 18.848 18.978 18.748
954.844 18.348 17.818 16.968 16.468 16.318 16.038 15.478 14.918 14.858 14.448
974.134 13.938 14.078 14.048 13.518 13.078 13.268 13.498 13.838 14.328 14.828
993.424 15.398 16.048 17.138 18.138 19.688 21.878 23.698 25.518 28.118 31.048
1012.714 34.068 37.508 41.418 45.068 49.188 53.348 56.618 59.818 62.468 63.558
1032.003 63.768 63.678 62.278 59.188 55.428 51.528 47.088 42.328 37.318 32.828
1051.293 28.498 24.598 21.458 18.778 16.948 14.808 13.248 12.438 11.568 11.218
1070.583 10.808 10.668 10.518 9.728 8.978 8.968 9.568 9.778 9.488 9.318
1089.873 9.138 8.748 8.588 8.868 8.458 8.248 8.538 8.158 8.098 8.458
1109.163 8.788 8.808 9.308 10.658 11.968 13.428 15.518 18.538 21.798 25.308
1128.452 29.098 32.008 34.608 35.988 36.268 36.418 36.378 36.518 35.448 32.888
1147.742 30.158 27.038 23.718 21.378 19.538 17.988 17.848 18.578 19.588 21.508
1167.032 23.748 27.148 31.118 34.958 40.258 46.228 51.898 58.078 64.598 70.598
1186.322 75.708 79.898 83.528 86.758 89.088 89.968 89.368 87.428 84.888 81.888
1205.611 78.868 75.448 72.308 70.248 68.438 65.588 63.228 61.858 60.318 58.618
1224.901 57.348 55.918 55.038 54.398 52.698 51.728 50.578 49.618 48.418 46.698
1244.191 45.308 43.528 41.568 39.578 37.108 34.638 32.458 30.818 29.568 28.738
1263.481 28.718 29.408 30.498 31.758 33.158 33.838 33.608 33.288 32.758 31.538
1282.771 29.788 27.288 24.508 21.598 18.838 16.768 14.808 13.338 12.488 11.648
1302.060 11.078 10.698 10.328 10.008 9.678 9.428 9.318 9.258 9.148 9.028
1321.350 9.018 9.028 8.998 9.038 9.178 9.278 9.338 9.468 9.678 9.888
1340.640 10.138 10.478 10.838 11.128 11.528 12.078 12.668 13.298 14.068 14.988
1359.930 16.018 17.058 18.208 19.508 20.768 22.098 23.378 24.538 25.508 26.238
1379.219 26.678 26.818 26.778 26.408 25.728 24.918 23.938 22.958 21.938 20.958
1398.509 20.188 19.498 19.008 18.778 18.868 19.248 19.918 21.138 22.978 25.288
1417.799 28.018 31.168 34.358 37.288 39.908 41.868 43.028 43.478 43.158 41.998
1437.089 39.888 36.798 32.888 28.958 25.698 23.288 21.798 21.268 21.518 22.398
1456.378 24.138 26.328 28.648 31.168 33.758 36.448 39.528 43.218 47.618 53.108
1475.668 59.968 68.748 79.838 93.658 110.398 129.578 150.008 169.818 187.028 199.578
1494.958 206.658 208.988 206.628 199.868 188.788 173.058 152.308 128.928 105.818 84.578
1514.248 66.708 52.238 40.868 32.198 25.458 20.588 16.998 14.208 12.108 10.518
1533.538 9.278 8.238 7.488 6.948 6.398 5.858 5.458 5.118 4.918 4.768
1552.827 4.558 4.448 4.458 4.398 4.228 4.068 4.048 4.238 4.438 4.458
1572.117 4.628 5.028 5.388 5.678 5.998 6.488 6.928 7.298 7.658 8.018
1591.407 8.288 8.478 8.788 9.028 9.018 8.848 8.628 8.428 8.268 7.908
1610.697 7.498 7.118 6.828 6.628 6.288 5.908 5.578 5.258 5.048 4.908
1629.986 4.688 4.408 4.128 3.918 3.618 3.258 3.028 2.818 2.668 2.558
1649.276 2.378 2.358 2.228 2.008 1.858 1.848 1.878 1.738 1.638 1.648
1668.566 1.658 1.608 1.578 1.638 1.678 1.698 1.608 1.558 1.688 1.618
1687.856 1.518 1.658 1.678 1.668 1.678 1.448 1.2563 1.2339 1.2698 1.2932
1707.146 1.3608 1.3143 1.2619 1.3581 1.438 1.558 1.668 1.818 2.048 2.288
1726.435 2.558 2.808 3.058 3.398 3.628 3.738 3.808 3.898 3.928 3.878
1745.725 3.768 3.568 3.298 3.038 2.868 2.658 2.398 2.168 1.918 1.698
1765.015 1.498 1.2715 1.1572 1.0888 1.0656 1.0475 0.908 0.8703 0.8409 0.7519
1784.305 0.7375 0.8387 0.868 0.8656 0.9315 0.9756 0.9891 0.908 0.8994 1.0112
1803.594 1.0575 1.0983 1.13 1.0712 1.0613 1.0904 1.063 1.0607 1.1065 1.1786
1822.884 1.2027 1.2788 1.3849 1.458 1.638 1.808 2.008 2.268 2.598 3.028
1842.174 3.478 3.838 4.138 4.468 4.648 4.628 4.508 4.368 4.208 3.918
1861.464 3.558 3.178 2.738 2.338 2.058 1.758 1.498 1.3533 1.1697 1.0694
1880.754 0.9712 0.8751 0.8923 0.923 0.9152 0.831 0.8162 0.8255 0.7514 0.6953
1900.043 0.6861 0.7303 0.6826 0.657 0.6696 0.6314 0.6789 0.6913 0.6394 0.6851
1919.333 0.7443 0.7275 0.6444 0.583 0.6504 0.7897 0.8026 0.6875 0.6913 0.7421
1938.623 0.8582 0.8252 0.8081 0.9733 1.0118 0.9961 0.9936 1.0839 1.1657 1.1093
1957.913 1.1325 1.2266 1.2727 1.2728 1.3242 1.388 1.458 1.528 1.488 1.538
1977.202 1.608 1.638 1.698 1.708 1.708 1.718 1.778 1.818 1.758 1.728
1996.492 1.718 1.758 1.728 1.648 1.618 1.638 1.728 1.698 1.718 1.718
2015.782 1.628 1.678 1.788 1.858 1.728 1.698 1.798 1.738 1.708 1.728
2035.072 1.708 1.658 1.598 1.578 1.618 1.598 1.528 1.538 1.518 1.488
2054.362 1.508 1.438 1.2969 1.254 1.3028 1.2452 1.2132 1.1611 1.1853 1.2404
2073.651 1.1217 1.0076 1.0878 1.1065 1.02 0.9568 0.8826 0.8454 0.8319 0.8579
2092.941 0.8669 0.9192 0.9033 0.7618 0.7251 0.6927 0.6507 0.6704 0.691 0.8028
2112.231 0.761 0.6948 0.7703 0.7721 0.7942 0.7155 0.6427 0.7252 0.7852 0.8796
2131.521 0.9195 0.9387 1.0022 0.9908 0.9484 0.8698 0.8582 0.8401 0.7564 0.8158
2150.810 0.8944 0.8679 0.8559 0.8557 0.8518 0.8295 0.7681 0.752 0.7787 0.7799
2170.100 0.7701 0.7369 0.7452 0.7803 0.8026 0.7712 0.7147 0.773 0.7797 0.6934
2189.390 0.6744 0.768 0.7807 0.6707 0.6437 0.6627 0.6565 0.7339 0.8773 0.9051
2208.680 0.8208 0.6902 0.7182 0.8165 0.8058 0.8559 0.8512 0.761 0.8057 0.8802
2227.970 0.8186 0.8191 0.862 0.8719 0.8935 0.9337 0.9322 0.8863 0.8432 0.7647
2247.259 0.7858 0.7981 0.7668 0.8335 0.8159 0.7769 0.8323 0.9403 1.0266 0.951
2266.549 0.9203 0.9547 1.085 1.153 1.0951 1.1272 1.1669 1.1326 1.1034 1.1283
2285.839 1.0574 1.0218 1.05 0.9369 0.8281 0.8786 0.9659 0.9357 0.9248 0.9693
2305.129 0.9689 0.9818 0.9379 0.9418 1.0126 1.0599 1.0469 0.9647 0.9791 1.0306
2324.418 1.0513 1.0892 1.1093 1.1104 1.0796 1.0245 0.9963 1.1245 1.0745 0.9735
2343.708 0.9466 0.8655 0.921 1.0081 1.0366 0.9099 0.9589 1.0825 1.0714 1.0513
2362.998 0.9869 0.9708 0.926 0.9404 0.9614 1.0347 1.1167 1.1256 1.0861 1.0362
2382.288 1.0672 1.1006 1.1222 1.1289 1.1841 1.1728 1.1706 1.1965 1.2566 1.2526
2401.578 1.2477 1.3558 1.3679 1.408 1.488 1.538 1.558 1.488 1.418 1.418
2420.867 1.408 1.408 1.3699 1.388 1.498 1.408 1.388 1.418 1.3139 1.3731
2440.157 1.418 1.3404 1.374 1.408 1.458 1.588 1.628 1.568 1.568 1.628
2459.447 1.568 1.518 1.458 1.428 1.388 1.3586 1.418 1.468 1.418 1.2789
2478.737 1.3351 1.3505 1.2513 1.2521 1.2533 1.1897 1.0937 1.0961 1.222 1.1352
2498.026 1.0147 0.991 1.0682 1.1829 1.0951 0.987 0.9894 1.0652 1.0908 1.0674
2517.316 1.0601 1.0824 1.1474 1.1251 1.0194 1.0486 1.0167 0.9077 0.9782 1.0182
2536.606 0.9942 0.9933 0.9635 0.9059 0.8867 0.9063 0.8066 0.7792 0.8792 0.8829
2555.896 0.8865 0.8384 0.7924 0.8628 0.8653 0.7428 0.7779 0.7946 0.719 0.8039
2575.186 0.776 0.7128 0.796 0.7694 0.6558 0.6483 0.6873 0.6821 0.6477 0.6274
2594.475 0.647 0.6051 0.6173 0.7491 0.7311 0.6928 0.6235 0.4931 0.4978 0.5425
2613.765 0.5444 0.5889 0.6283 0.6537 0.6286 0.6552 0.757 0.6692 0.5769 0.5097
2633.055 0.5301 0.6815 0.6799 0.629 0.6872 0.7204 0.6646 0.5892 0.5887 0.6009
2652.345 0.6326 0.6925 0.7011 0.7339 0.7738 0.7445 0.7813 0.87 0.8398 0.7783
2671.634 0.7449 0.7764 0.7942 0.7374 0.7532 0.7739 0.8184 0.897 0.771 0.6993
2690.924 0.8041 0.7733 0.7187 0.8188 0.8227 0.8942 1.0127 1.0168 1.078 1.0842
2710.214 0.9742 1.0139 1.0767 1.0699 1.1805 1.2416 1.2389 1.2284 1.1928 1.1629
2729.504 1.2468 1.3019 1.3257 1.448 1.408 1.3561 1.498 1.458 1.3813 1.488
2748.794 1.508 1.398 1.3285 1.418 1.458 1.3213 1.3397 1.3811 1.428 1.428
2768.083 1.3633 1.3347 1.3179 1.398 1.448 1.3197 1.1991 1.2544 1.3024 1.3758
2787.373 1.3263 1.2619 1.468 1.698 1.668 1.668 1.708 1.668 1.638 1.708
2806.663 1.848 1.998 2.048 1.978 1.988 2.008 1.988 2.048 2.198 2.308
2825.953 2.448 2.568 2.688 2.918 3.148 3.358 3.458 3.628 3.748 3.748
2845.242 3.938 4.218 4.478 4.808 5.128 5.278 5.568 5.918 6.268 6.698
2864.532 7.128 7.678 8.198 8.668 9.248 9.958 10.598 11.258 11.988 12.778
2883.822 13.638 14.228 14.598 15.068 15.598 15.948 15.878 15.648 15.528 15.228
2903.112 14.668 14.048 13.678 13.248 12.748 12.448 12.278 12.028 11.648 11.488
2922.401 11.448 11.378 11.438 11.638 12.008 12.238 12.308 12.498 12.878 13.218
2941.691 13.218 13.258 13.348 13.178 13.038 12.798 12.548 12.418 12.198 11.798
2960.981 11.448 11.108 10.718 10.468 10.028 9.638 9.448 9.108 8.678 8.318
2980.271 7.878 7.458 7.178 6.928 6.488 5.978 5.468 4.958 4.528 4.168
2999.561 3.878 3.528 3.118 2.738 2.498 2.368 2.368 2.248 2.008 1.878
3018.850 1.868 1.788 1.648 1.598 1.598 1.628 1.518 1.488 1.588 1.768
3038.140 1.788 1.728 1.918 1.978 1.958 2.098 2.288 2.598 2.698 2.608
3057.430 2.738 2.858 2.828 2.608 2.638 2.868 2.788 2.758 2.808 2.628
3076.720 2.398 2.288 2.258 2.288 2.328 2.398 2.448 2.468 2.458 2.248
3096.009 2.108 1.918 1.688 1.598 1.3755 1.1864 1.109 1.0162 1.0592 1.1677
3115.299 1.0512 0.7664 0.7194 0.7888 0.7439 0.8035 0.8023 0.7249 0.6865 0.725
3134.589 0.7901 0.776 0.7779 0.7251 0.44047 0.3122 0.45901 0.6076 0.6429 0.42585
3153.879 0.3172 0.46199 0.5501 0.6107 0.6332 0.5556 0.4964 0.42753 0.3514 0.40512
3173.169 0.47716 0.4945 0.5509 0.5911 0.5513 0.40859 0.44424 0.42404 0.3864 0.5134
3192.458 0.44986 0.48764 0.5044 0.3424 0.3561 0.43079 0.336 0.3386 0.43595 0.489
3211.748 0.5332 0.4049 0.46122 0.6255 0.6075 0.5656 0.5018 0.45036 0.186 0
3231.038 0.131 0.3576 0.48762 0.45261 0.3324 0.215 0.4798 0.6312 0.47597 0.3752
3250.328 0.397905 0.5401 0.501 0.41411 0.286 0.232 0.255 0.206 0.3229 0.4909
3269.617 0.5067 0.41823 0.44691 0.5352 0.41843 0.38398 0.5453 0.6162 0.6849 0.4527
3288.907 0.274 0.44726 0.5266 0.47677 0.3126 0.3742 0.5878 0.5381 0.42499 0.4913
3308.197 0.5267 0.3175 0.202 0.44015 0.6504 0.5206 0.4463 0.46398 0.45523 0.6601
3327.487 0.7301 0.6492 0.6486 0.5479 0.45184 0.42624 0.5034 0.5439 0.5756 0.611
3346.777 0.5361 0.617 0.5998 0.563 0.7691 0.7844 0.6759 0.5727 0.5127 0.5062
3366.066 0.56 0.6562 0.7211 0.5812 0.5613 0.7007 0.7016 0.782 0.7015 0.612
3385.356 0.4708 0.44021 0.5786 0.626 0.5472 0.5525 0.6954 0.7012 0.5742 0.5212
3404.646 0.645 0.619 0.5734 0.7342 1.0158 1.0873 0.9376 0.8711 0.8921 0.9371
3423.936 0.97 0.8847 0.7746 0.7593 0.7543 0.8265 0.6789 0.535 0.7503 0.8745
3443.225 0.7004 0.7238 0.9042 0.905 0.8784 0.9795 0.9989 0.8963 0.8888 0.8729
3462.515 0.8496 0.8832 0.9366 0.9284 0.7844 0.7959 1.0178 0.9625 0.7693 0.9229
3481.805 1.1378 1.0795 0.9107 0.8475 0.8717 0.9099 0.8995 0.7658 0.7985 0.9555
3501.095 0.8932 0.8023 0.8225 0.8595 0.9425 0.9793 0.9801 0.9381 0.8547 0.8179
3520.385 0.8858 1.0446 0.9985 0.9664 1.0136 1.0321 1.0461 0.8665 0.708 0.6344
3539.674 0.6684 0.8161 0.9605 0.9471 0.8831 0.9311 0.8832 0.7789 0.7497 0.7884
3558.964 0.6568 0.761 0.8925 0.6987 0.7777 0.8589 0.8164 0.8346 0.9478 1.0505
3578.254 0.9514 1.0775 1.2905 1.3423 1.1457 0.8993 1.1283 1.3687 1.558 1.668
3597.544 1.738 1.858 1.818 1.928 2.198 2.298 2.258 2.578 2.968 3.068
3616.833 3.148 3.348 3.578 3.798 3.978 4.208 4.588 4.838 5.148 5.618
3636.123 6.288 7.078 7.898 8.748 9.628 10.808 12.098 13.378 14.758 16.038
3655.413 17.138 17.878 18.088 17.948 17.588 17.128 16.798 16.188 15.208 14.148
3674.703 13.078 12.178 11.438 10.598 9.808 9.198 8.508 7.768 7.158 6.708
3693.993 6.208 5.608 4.958 4.658 4.368 3.958 3.788 3.398 3.178 2.888
3713.282 2.448 2.358 2.298 2.138 1.938 1.808 1.808 1.628 1.348 1.3454
3732.572 1.468 1.428 1.2219 1.1281 1.2008 1.1683 1.0763 1.0909 1.1644 1.1659
3751.862 1.0622 0.9932 1.0841 1.3249 1.438 1.2589 1.1493 0.9599 0.8939 0.9913
3771.152 0.8029 0.8843 1.0188 1.0279 1.0149 1.0096 0.9182 0.7657 0.8232 0.9209
3790.441 0.8849 0.914 1.0054 1.0477 0.9347 0.9177 0.8841 0.9275 1.1201 1.1536
3809.731 1.2586 1.3829 1.3773 1.2107 1.2422 1.188 1.138 1.1228 0.9987 1.0722
3829.021 1.0587 1.0405 1.0735 1.0201 1.1822 1.1387 0.8932 1.1086 1.254 1.1105
3848.311 1.0967 1.1358 1.267 1.3001 1.1951 1.1745 1.2094 1.2581 1.112 1.0614
3867.601 1.1262 1.0988 1.0568 1.2079 1.306 1.0219 1.0426 1.1024 0.986 1.0871
3886.890 1.0551 0.9221 0.976 1.0886 0.9086 0.7912 0.9656 1.0328 0.9686 0.8915
3906.180 0.9238 0.9879 0.8429 0.7891 0.9334 1.0784 1.1795 1.1095 0.9665 0.6609
3925.470 0.5834 0.8021 0.9537 0.8924 0.7556 0.789 0.7784 0.7874 0.6796 0.5574
3944.760 0.6178 0.46195 0.47579 0.8029 0.7958 0.7341 0.6483 0.46218 0.5352 0.5552
3964.049 0.6202 0.6083 0.6946 0.8275 0.5966 0.5087 0.671 0.8262 0.8753 0.7938
3983.339 0.7659 0.7729 0.7532 0.6014 0.47835 0.5664 0.7417 0.8102 0.689 0.6758
##END=
