##TITLE=Ethyl isopropylidenecyanoacetate
##JCAMP-DX=4.24
##DATA TYPE=INFRARED SPECTRUM
##ORIGIN=EPA-IR VAPOR PHASE LIBRARY
##OWNER=SRD/NIST
Collection (C) 2018 copyright by the U.S. Secretary of Commerce
on behalf of the United States of America. All rights reserved.
##CAS REGISTRY NO=759-58-0
##MOLFORM=C 8 H 11 N O 2
##$NIST SOURCE=MSDC-IR
##STATE=gas
##XUNITS=1/CM
##YUNITS=ABSORBANCE
##XFACTOR=1.
##YFACTOR=0.001
##DELTAX=1.92898
##FIRSTX=549.8
##LASTX=4000.7
##FIRSTY=0.19796
##MAXX=4000.7
##MINX=549.759
##MAXY=0.12729
##MINY=0
##NPOINTS=1790
##XYDATA=(X++(Y..Y))
549.759 0.19796 0.1255 0.3103 0.4295 0.7899 0.8775 0.7668 0.3957 0.208424 0.200574
569.049 0 0.1413 0.3199 0.3156 0.4117 0.4476 0.4766 0.361 0.3418 0.501
588.339 0.55 0.7148 0.5929 0.4501 0.4055 0.28799 0.3297 0.3378 0.571 0.635
607.628 0.4441 0.4032 0.3955 0.4875 0.459 0.3559 0.3273 0.4015 0.3512 0.22674
626.918 0.21442 0.3924 0.5281 0.3344 0.27957 0.3843 0.29382 0.242 0.3444 0.3946
646.208 0.4433 0.4461 0.3983 0.4591 0.5029 0.5319 0.5029 0.5373 0.6158 0.5718
665.498 0.554 0.4122 0.3641 0.3437 0.4515 0.6421 0.6344 0.6569 0.6575 0.7074
684.787 0.6597 0.6041 0.7658 0.7096 0.5806 0.5084 0.4984 0.5456 0.4948 0.4473
704.077 0.5158 0.6683 0.6709 0.5458 0.5365 0.457 0.3534 0.5401 0.5623 0.6034
723.367 0.6077 0.6757 0.8922 0.8187 0.7914 0.8661 0.9049 1.0952 1.1532 1.2
742.657 1.33 1.35 1.49 1.64 1.97 2.11 2.34 2.73 2.97 3.45
761.947 3.92 4.3 4.83 5.51 6.15 6.57 6.93 7.25 7.21 7.04
781.236 6.85 6.61 6.24 5.81 5.5 5.26 4.91 4.6 4.35 4.26
800.526 4.24 4.12 4.01 3.91 3.84 3.72 3.74 3.64 3.36 3.27
819.816 3.29 3.15 2.84 2.67 2.58 2.34 2.35 2.42 2.38 2.33
839.106 2.42 2.63 2.85 3.03 3.11 3.32 3.55 3.92 4.27 4.46
858.395 4.67 4.83 4.81 4.65 4.42 4.17 3.84 3.59 3.38 3.03
877.685 2.82 2.75 2.59 2.22 2.03 2.17 2.12 1.99 1.9 2.08
896.975 2.33 2.3 2.17 2.23 2.38 2.42 2.55 2.61 2.69 2.86
916.265 3.02 3.15 3.19 3.19 3.14 3.02 2.85 2.63 2.44 2.26
935.555 2.11 2.01 2.06 2.04 1.96 1.96 1.83 1.82 1.84 1.88
954.844 1.97 1.93 1.89 1.98 2.02 1.91 2 2.19 2.21 2.36
974.134 2.62 2.7 2.73 2.68 2.77 2.83 2.91 3.17 3.44 3.77
993.424 4.09 4.31 4.64 5.12 5.58 6.14 6.5 7.15 7.91 8.26
1012.714 8.63 9.09 9.36 9.46 9.46 9.16 8.93 8.82 8.53 8.16
1032.003 8.08 7.98 7.78 8.04 8.19 8.27 8.53 8.72 9.3 10.4
1051.293 11.5 12.56 13.86 15.49 17.44 19.48 22.12 25.59 29.31 33.62
1070.583 38.08 42.68 47.4 51.98 56.87 61.34 65.05 67.62 68.69 68.84
1089.873 67.65 65.69 62.62 58.04 52.83 47.36 42.42 37.57 32.5 27.74
1109.163 23.28 19.87 17.33 15.15 13.58 12.44 11.81 11.39 11.18 11.01
1128.452 10.76 10.36 10.16 10.38 10.22 9.89 9.43 9.19 8.85 7.87
1147.742 7.42 7.35 7.07 6.88 6.48 6.53 6.87 6.87 6.9 7.08
1167.032 7.25 7.29 7.52 7.77 8.1 8.7 9.51 10.1 10.51 11.22
1186.322 12.24 13.5 14.77 16.21 18.39 20.87 23.65 26.8 30.22 34.04
1205.611 38.93 44.27 49.92 56.86 64.48 72.97 82.6 92.33 102.13 111.74
1224.901 119.21 124.55 127.29 126.4 122.05 114.9 104.91 92.86 79.89 66.94
1244.191 54.98 44.83 37.01 31.15 26.94 24.34 23.09 22.9 23.88 25.97
1263.481 29.18 34.02 40.11 47.4 55.74 64.03 71.37 76.85 80.03 81.01
1282.771 79.7 75.82 69.58 61.54 52.31 43.42 36.59 31.97 28.96 27.1
1302.060 25.86 24.88 23.96 22.93 21.88 20.57 19.04 17.51 15.9 14.23
1321.350 12.6 11.18 9.98 8.96 8.14 7.53 7.03 6.61 6.32 6.12
1340.640 5.94 5.85 5.85 5.84 5.93 6.19 6.46 6.82 7.37 8.18
1359.930 9.19 10.35 11.68 12.93 14.04 15.19 16.23 17.16 17.92 18.33
1379.219 18.29 17.97 17.6 17.08 16.35 15.46 14.41 13.36 12.34 11.31
1398.509 10.42 9.68 9.11 8.63 8.2 7.88 7.68 7.57 7.55 7.57
1417.799 7.59 7.63 7.71 7.84 8.04 8.33 8.65 8.88 9.15 9.51
1437.089 9.89 10.16 10.35 10.55 10.72 10.85 10.97 11.03 10.98 10.83
1456.378 10.69 10.52 10.44 10.47 10.47 10.42 10.29 10.16 10.01 9.76
1475.668 9.37 8.94 8.6 8.14 7.61 7.18 6.77 6.35 6 5.69
1494.958 5.48 5.32 5.14 5.01 4.83 4.72 4.67 4.57 4.43 4.39
1514.248 4.36 4.29 4.29 4.28 4.21 4.17 4.18 4.2 4.2 4.21
1533.538 4.27 4.29 4.38 4.47 4.48 4.49 4.47 4.51 4.6 4.63
1552.827 4.67 4.73 4.79 4.84 4.81 4.8 4.75 4.68 4.71 4.77
1572.117 4.8 4.82 4.89 4.97 5.11 5.34 5.51 5.72 6.09 6.48
1591.407 6.92 7.38 7.96 8.76 9.56 10.49 11.58 12.79 14.04 15.44
1610.697 16.99 18.51 19.9 21.16 22.13 22.6 22.52 21.91 20.84 19.31
1629.986 17.44 15.35 13.23 11.1 9.31 7.89 6.72 5.88 5.22 4.74
1649.276 4.27 3.95 3.81 3.64 3.49 3.4 3.31 3.22 3.18 3.25
1668.566 3.33 3.4 3.48 3.56 3.64 3.75 3.94 4.17 4.42 4.62
1687.856 4.92 5.38 5.76 6.11 6.64 7.17 7.6 8.23 8.97 9.8
1707.146 10.63 11.6 12.67 13.99 15.63 17.63 20.09 22.91 26.49 30.94
1726.435 36.49 43.26 51.26 59.95 69.49 78.41 84.86 88.66 89.77 89.7
1745.725 89.33 87.02 80.87 71.29 60.6 50.57 41.6 34.53 28.97 24.64
1765.015 21.47 19.11 17.18 15.61 14.1 12.69 11.39 10.11 8.91 7.81
1784.305 6.82 6.02 5.28 4.6 4.11 3.68 3.28 2.96 2.69 2.45
1803.594 2.29 2.17 1.99 1.81 1.73 1.65 1.57 1.55 1.53 1.5
1822.884 1.45 1.41 1.36 1.31 1.31 1.3 1.27 1.27 1.23 1.1714
1842.174 1.1871 1.1836 1.1659 1.1238 1.091 1.1111 1.1205 1.1214 1.1029 1.101
1861.464 1.1049 1.1061 1.1072 1.1292 1.1157 1.0081 0.9803 1.0149 0.9704 0.9562
1880.754 0.9576 0.9435 0.8708 0.8291 0.9047 0.9239 0.8954 0.8843 0.8699 0.8661
1900.043 0.872 0.8423 0.8486 0.845 0.8891 0.9287 0.8821 0.8615 0.8977 0.9254
1919.333 0.8926 0.932 0.9952 1.0295 1.0364 1.0264 1.0505 1.0604 1.0814 1.081
1938.623 1.0878 1.133 1.1207 1.0793 1.1057 1.1015 1.0703 1.0465 1.0411 1.0731
1957.913 1.0155 0.9223 0.8965 0.9195 0.8691 0.8152 0.819 0.8031 0.7862 0.7997
1977.202 0.7853 0.7677 0.7256 0.6637 0.6459 0.6525 0.6771 0.6755 0.6902 0.6866
1996.492 0.6657 0.6851 0.6704 0.6267 0.6385 0.6437 0.6361 0.5713 0.4916 0.497
2015.782 0.536 0.5555 0.5472 0.5604 0.5528 0.5309 0.5088 0.5186 0.5072 0.5101
2035.072 0.5508 0.5519 0.5966 0.5726 0.5021 0.5179 0.5772 0.5585 0.5542 0.6202
2054.362 0.6503 0.6883 0.6839 0.6751 0.7477 0.7854 0.8385 0.8412 0.8184 0.8553
2073.651 0.8876 0.9487 0.958 0.9472 0.9135 0.9318 0.9825 0.9722 0.9492 0.9099
2092.941 0.8875 0.8782 0.885 0.866 0.7823 0.7478 0.7435 0.7449 0.7461 0.7168
2112.231 0.6682 0.6081 0.6025 0.6314 0.688 0.7297 0.7454 0.7336 0.6914 0.6819
2131.521 0.6509 0.5997 0.6289 0.6537 0.6608 0.6927 0.6717 0.6598 0.6833 0.6509
2150.810 0.626 0.6638 0.6608 0.6281 0.5822 0.5305 0.5562 0.5754 0.5406 0.5323
2170.100 0.5676 0.5969 0.6277 0.6521 0.6431 0.659 0.6829 0.6539 0.6483 0.7046
2189.390 0.7395 0.7784 0.8714 0.9164 0.9017 0.9293 0.9841 1.1138 1.29 1.4
2208.680 1.49 1.59 1.73 1.9 2.03 2.2 2.45 2.63 2.7 2.71
2227.970 2.68 2.68 2.66 2.52 2.35 2.22 2.01 1.77 1.58 1.37
2247.259 1.1979 1.1045 1.0109 0.9395 0.8823 0.7927 0.788 0.77 0.7157 0.7488
2266.549 0.7783 0.7444 0.7515 0.8136 0.7833 0.7404 0.7374 0.758 0.7699 0.6681
2285.839 0.6794 0.7215 0.6827 0.7479 0.7838 0.8033 0.8351 0.8477 0.8501 0.8911
2305.129 0.8707 0.7885 0.7677 0.7946 0.8195 0.8267 0.8579 0.7686 0.7312 0.7371
2324.418 0.6854 0.6952 0.7147 0.6795 0.6382 0.6333 0.6338 0.6158 0.5929 0.5903
2343.708 0.5738 0.5816 0.5994 0.6355 0.6467 0.6274 0.6495 0.6834 0.7035 0.6562
2362.998 0.6643 0.6919 0.6801 0.656 0.6313 0.6635 0.7172 0.7466 0.6989 0.6451
2382.288 0.677 0.6509 0.5353 0.5426 0.6766 0.6927 0.6323 0.6876 0.7074 0.6947
2401.578 0.7073 0.7091 0.735 0.6981 0.6245 0.5844 0.6335 0.6464 0.5724 0.5851
2420.867 0.6074 0.6362 0.6434 0.5951 0.5101 0.5141 0.6092 0.5876 0.5203 0.5171
2440.157 0.5043 0.4938 0.5005 0.5502 0.6421 0.6369 0.5779 0.5318 0.5368 0.5527
2459.447 0.579 0.5985 0.5979 0.5719 0.5852 0.6399 0.5594 0.483 0.5687 0.5767
2478.737 0.5305 0.528 0.52 0.5247 0.4948 0.5214 0.5269 0.4645 0.5007 0.5626
2498.026 0.5573 0.5177 0.5718 0.618 0.5832 0.5838 0.5285 0.5025 0.4941 0.5028
2517.316 0.4802 0.4177 0.4444 0.4729 0.4956 0.4356 0.3607 0.3945 0.3988 0.3855
2536.606 0.4009 0.4698 0.5243 0.4699 0.4257 0.4241 0.429 0.4152 0.3619 0.3462
2555.896 0.3346 0.3372 0.3635 0.39 0.3683 0.3566 0.3965 0.4023 0.3687 0.382
2575.186 0.3737 0.27088 0.3101 0.3983 0.3648 0.3801 0.419 0.4073 0.4004 0.4297
2594.475 0.4006 0.3584 0.3544 0.3896 0.5065 0.488 0.384 0.3524 0.3708 0.4429
2613.765 0.4764 0.4557 0.4286 0.3907 0.3567 0.3417 0.3658 0.3845 0.4116 0.4213
2633.055 0.3783 0.3526 0.4163 0.4202 0.3509 0.3712 0.3973 0.3998 0.4273 0.4428
2652.345 0.4571 0.4778 0.4455 0.4302 0.3712 0.3427 0.4267 0.4521 0.4839 0.4599
2671.634 0.4124 0.3997 0.3993 0.4452 0.4841 0.4292 0.4139 0.4653 0.4843 0.5206
2690.924 0.5066 0.4849 0.4792 0.4279 0.4749 0.513 0.452 0.4657 0.4755 0.4498
2710.214 0.5481 0.6229 0.5795 0.5934 0.5825 0.6203 0.6834 0.74 0.8065 0.7908
2729.504 0.8216 0.863 0.8673 0.9278 0.9735 0.99 1.0581 1.0697 1.0176 1.0494
2748.794 1.0896 1.1114 0.9996 0.8703 0.9169 0.98 0.9595 0.9244 0.9739 0.9662
2768.083 0.9031 0.8506 0.8574 0.8976 0.8638 0.8086 0.8303 0.9589 0.953 0.9553
2787.373 1.0427 1.0151 0.9659 0.952 1.051 1.0639 0.9948 0.9699 1.0166 1.1816
2806.663 1.22 1.1869 1.22 1.1898 1.27 1.33 1.34 1.46 1.55 1.58
2825.953 1.59 1.6 1.67 1.85 1.91 1.96 2.01 2.06 2.15 2.21
2845.242 2.36 2.59 2.78 2.94 3.12 3.25 3.42 3.59 3.71 3.85
2864.532 4 4.1 4.11 4.24 4.5 4.67 4.79 4.85 4.93 5.16
2883.822 5.32 5.43 5.54 5.61 5.75 5.84 5.9 6.04 6.3 6.57
2903.112 6.82 7.15 7.57 8.01 8.48 9.02 9.59 10.33 11.12 11.86
2922.401 12.58 13.15 13.68 14.18 14.54 14.77 14.91 15.15 15.38 15.41
2941.691 15.3 15.18 14.98 14.79 14.53 14 13.46 12.93 12.39 11.98
2960.981 11.74 11.62 11.71 11.99 12.34 12.97 13.64 14.31 15.25 16.31
2980.271 17.58 18.76 19.59 20.1 20.21 20.12 19.83 19.25 18.31 17.07
2999.561 15.81 14.51 13.3 12.38 11.64 10.85 10.06 9.44 8.78 8.17
3018.850 7.66 7.18 6.67 6.18 5.85 5.47 5.09 4.86 4.63 4.46
3038.140 4.28 4.05 3.91 3.78 3.63 3.48 3.42 3.44 3.27 3.1
3057.430 3.16 3.16 3.06 2.91 2.81 2.83 2.79 2.69 2.64 2.48
3076.720 2.36 2.49 2.5 2.36 2.28 2.3 2.25 2.01 1.92 1.91
3096.009 1.77 1.61 1.62 1.66 1.56 1.53 1.54 1.5 1.48 1.39
3115.299 1.27 1.1613 1.25 1.3 1.29 1.1644 0.9466 1.0094 1.1293 1.035
3134.589 0.861 0.9024 0.9635 0.93 0.8621 0.7544 0.7842 0.8164 0.8072 0.7719
3153.879 0.703 0.8153 0.8789 0.8113 0.735 0.6862 0.6703 0.6496 0.7291 0.7411
3173.169 0.7092 0.7005 0.656 0.689 0.813 0.6777 0.6045 0.6945 0.6934 0.68
3192.458 0.6076 0.573 0.5473 0.5621 0.6326 0.6587 0.5732 0.4772 0.5422 0.5522
3211.748 0.4456 0.4651 0.5236 0.5647 0.5398 0.487 0.492 0.5542 0.5831 0.6362
3231.038 0.6257 0.4814 0.4281 0.5339 0.5504 0.4469 0.4232 0.4597 0.4514 0.4291
3250.328 0.4106 0.4357 0.5043 0.4874 0.4211 0.4063 0.4299 0.4035 0.3548 0.354
3269.617 0.3577 0.3923 0.4049 0.3604 0.3783 0.3546 0.3 0.22928 0.25932 0.3443
3288.907 0.4129 0.3865 0.28447 0.3097 0.4186 0.4528 0.4037 0.3433 0.3349 0.3544
3308.197 0.3441 0.3899 0.3555 0.327 0.4041 0.3969 0.355 0.3788 0.3624 0.3955
3327.487 0.4462 0.4631 0.401 0.28105 0.3519 0.4935 0.5219 0.4393 0.4134 0.4839
3346.777 0.5205 0.3546 0.29206 0.4141 0.4134 0.4471 0.4929 0.5291 0.5237 0.537
3366.066 0.631 0.6057 0.4951 0.5323 0.4766 0.4453 0.5049 0.4315 0.4233 0.363
3385.356 0.3686 0.4423 0.3782 0.3459 0.4064 0.3969 0.3766 0.4047 0.3749 0.4113
3404.646 0.4526 0.4179 0.3515 0.3109 0.3452 0.3941 0.4309 0.4752 0.4839 0.4798
3423.936 0.4545 0.5081 0.5883 0.6088 0.649 0.582 0.5783 0.6713 0.6786 0.7056
3443.225 0.7934 0.8025 0.8305 0.8509 0.8825 0.9103 1.004 1.0679 0.989 1.0193
3462.515 1.113 1.1575 1.21 1.33 1.3 1.1997 1.116 1.0243 0.9987 1.0571
3481.805 0.9502 0.7615 0.7823 0.8128 0.791 0.7442 0.7813 0.8016 0.7361 0.6264
3501.095 0.5137 0.4319 0.3913 0.5538 0.6271 0.4781 0.3035 0.3422 0.4228 0.3782
3520.385 0.3629 0.3012 0.28495 0.24276 0.21882 0.3203 0.3622 0.3363 0.3711 0.412
3539.674 0.3776 0.3132 0.24168 0.26749 0.2587 0.1549 0.1572 0.1722 0.1769 0.22305
3558.964 0.27472 0.3939 0.5209 0.474 0.3742 0.3479 0.3067 0.4478 0.5086 0.3666
3578.254 0.3055 0.2106 0.1154 0.1399 0.203785 0.26917 0.2843 0.24137 0.21035 0.2223
3597.544 0.26957 0.22552 0.1822 0.183 0.29027 0.29757 0.25394 0.28571 0.26315 0.3127
3616.833 0.25389 0.201119 0.2956 0.3909 0.3539 0.22403 0.21596 0.21873 0.25252 0.25149
3636.123 0.21305 0.23119 0.22329 0.1763 0.204731 0.3534 0.4247 0.4047 0.29615 0.1814
3655.413 0.22042 0.26212 0.26791 0.26711 0.24047 0.26345 0.2494 0.207679 0.2433 0.27362
3674.703 0.183 0.21803 0.3225 0.25223 0.204566 0.3074 0.3915 0.3712 0.3611 0.3481
3693.993 0.28027 0.25767 0.23313 0.200859 0.206202 0.141 0.25982 0.3452 0.3065 0.3028
3713.282 0.25353 0.25906 0.381 0.4361 0.29741 0.28809 0.3516 0.3634 0.469 0.4354
3732.572 0.3073 0.4314 0.4222 0.27287 0.24017 0.27565 0.3055 0.3565 0.4573 0.3458
3751.862 0.22669 0.3159 0.4472 0.4983 0.4284 0.3997 0.3003 0.22419 0.27024 0.206528
3771.152 0.1622 0.24644 0.4422 0.4511 0.2972 0.3051 0.3958 0.3905 0.27189 0.1785
3790.441 0.208467 0.3534 0.3775 0.3964 0.4822 0.3757 0.25158 0.29541 0.3397 0.3245
3809.731 0.29956 0.3635 0.4464 0.3919 0.3039 0.24666 0.207489 0.27957 0.3169 0.4106
3829.021 0.502 0.4268 0.3406 0.2474 0.27175 0.4443 0.4099 0.3581 0.382 0.29065
3848.311 0.25887 0.3795 0.5582 0.3857 0.23518 0.3617 0.22407 0.175 0.3669 0.4647
3867.601 0.3469 0.22052 0.27122 0.26077 0.3899 0.3562 0.201649 0.25625 0.3278 0.3356
3886.890 0.3461 0.3625 0.23676 0.27944 0.4137 0.406 0.4946 0.5053 0.3382 0.28197
3906.180 0.3668 0.3459 0.29001 0.22751 0.21974 0.3059 0.26111 0.24138 0.3354 0.341
3925.470 0.3715 0.3979 0.26598 0.25418 0.26159 0.1624 0.29142 0.25804 0.1326 0.26492
3944.760 0.21961 0.26076 0.3202 0.207312 0.29769 0.5226 0.4968 0.23658 0.1562 0.3002
3964.049 0.3915 0.3026 0.22339 0.25814 0.3611 0.4368 0.421 0.4294 0.3709 0.27329
3983.339 0.28306 0.3882 0.461 0.5275 0.4664 0.4106 0.5222 0.5536 0.4456 0.4378
##END=
