##TITLE=Diethyl 2,2-diethoxyethylphosphonate
##JCAMP-DX=4.24
##DATA TYPE=INFRARED SPECTRUM
##ORIGIN=EPA-IR VAPOR PHASE LIBRARY
##OWNER=SRD/NIST
Collection (C) 2018 copyright by the U.S. Secretary of Commerce
on behalf of the United States of America. All rights reserved.
##CAS REGISTRY NO=7598-61-0
##MOLFORM=C 10 H 23 O 5 P
##$NIST SOURCE=MSDC-IR
##STATE=gas
##XUNITS=1/CM
##YUNITS=ABSORBANCE
##XFACTOR=1.
##YFACTOR=0.001
##DELTAX=3.85796
##FIRSTX=501.5
##LASTX=4000.7
##FIRSTY=7.029
##MAXX=4000.7
##MINX=501.534
##MAXY=0.186249
##MINY=0
##NPOINTS=908
##XYDATA=(X++(Y..Y))
501.534 7.029 7.579 8.239 8.849 9.819 11.339 13.139 15.109 17.619 20.449
540.114 22.999 24.729 24.719 22.709 19.359 15.649 12.469 9.999 8.239 7.069
578.693 6.129 5.389 4.739 4.019 3.539 3.189 2.829 2.599 2.389 2.159
617.273 2.059 1.989 1.859 1.829 1.879 1.969 2.059 2.119 2.179 2.289
655.852 2.409 2.509 2.549 2.529 2.449 2.369 2.359 2.329 2.349 2.499
694.432 2.649 2.879 3.299 3.809 4.469 5.269 6.129 6.909 7.479 7.839
733.011 8.009 8.119 8.269 8.539 9.139 10.079 11.199 12.309 13.229 13.899
771.591 14.259 14.349 14.379 14.679 15.339 16.499 18.269 20.439 22.519 23.849
810.170 24.059 23.209 21.599 19.569 17.189 14.659 12.349 10.439 8.999 8.049
848.750 7.379 6.909 6.499 6.109 5.879 5.739 5.679 5.829 6.199 6.779
887.330 7.539 8.389 9.309 10.239 11.299 12.599 14.149 16.129 18.869 22.719
925.909 28.209 35.769 45.419 56.129 65.549 71.129 71.829 68.309 62.309 55.819
964.489 50.219 46.419 45.229 47.029 51.419 57.329 63.329 68.149 71.079 72.319
1003.068 72.639 73.009 74.629 79.029 87.379 100.129 116.789 135.359 152.229 164.419
1041.648 171.609 175.669 179.359 183.609 186.249 183.719 173.669 156.909 136.709 117.209
1080.227 101.499 90.929 85.509 83.809 83.059 80.309 74.769 68.659 64.669 63.169
1118.807 63.099 62.949 61.419 58.149 53.609 48.569 43.699 39.319 35.659 32.879
1157.387 30.639 28.699 27.119 25.739 24.519 23.519 22.709 22.079 21.689 21.439
1195.966 21.059 20.319 19.299 18.259 17.549 17.639 18.809 21.379 25.509 30.619
1234.546 35.229 37.439 36.349 33.469 31.949 33.939 39.289 46.609 53.219 56.759
1273.125 57.359 56.159 53.289 47.939 40.429 32.539 26.009 21.319 18.029 15.669
1311.705 13.879 12.569 11.729 11.369 11.609 12.489 14.079 16.359 19.049 21.499
1350.284 22.829 22.359 20.489 18.829 19.299 22.469 26.319 27.839 26.379 24.239
1388.864 23.439 23.429 22.779 20.909 18.269 15.639 13.389 11.489 9.959 8.839
1427.443 8.099 7.699 7.569 7.679 7.959 8.189 8.109 7.699 7.229 6.799
1466.023 6.389 6.079 5.919 5.859 5.799 5.529 4.989 4.359 3.809 3.389
1504.603 3.069 2.809 2.589 2.409 2.249 2.119 1.979 1.859 1.769 1.689
1543.182 1.599 1.509 1.439 1.379 1.319 1.2744 1.2293 1.2008 1.1903 1.1782
1581.762 1.1788 1.1893 1.2063 1.289 1.419 1.549 1.709 1.849 1.919 1.919
1620.341 1.929 1.989 2.049 2.069 2.039 1.899 1.719 1.579 1.519 1.499
1658.921 1.479 1.479 1.499 1.479 1.449 1.459 1.469 1.479 1.479 1.469
1697.500 1.439 1.439 1.439 1.419 1.389 1.369 1.369 1.369 1.379 1.399
1736.080 1.429 1.459 1.509 1.579 1.629 1.669 1.709 1.729 1.749 1.769
1774.659 1.749 1.729 1.719 1.699 1.679 1.679 1.659 1.649 1.639 1.639
1813.239 1.629 1.619 1.629 1.629 1.649 1.669 1.679 1.709 1.749 1.789
1851.819 1.819 1.839 1.829 1.819 1.819 1.809 1.779 1.739 1.709 1.669
1890.398 1.599 1.529 1.459 1.379 1.319 1.279 1.2413 1.1744 1.1459 1.1507
1928.978 1.1545 1.1577 1.1572 1.1525 1.1617 1.1703 1.1649 1.1659 1.1563 1.1264
1967.557 1.1026 1.0972 1.1024 1.092 1.0557 1.0194 0.9769 0.9619 0.9673 0.932
2006.137 0.918 0.8949 0.8624 0.8524 0.8499 0.8448 0.8277 0.8152 0.7991 0.805
2044.716 0.8023 0.8027 0.8049 0.78 0.7671 0.7597 0.7459 0.7518 0.7591 0.764
2083.296 0.7596 0.7484 0.7596 0.775 0.7911 0.8012 0.8166 0.8059 0.7975 0.8072
2121.875 0.7926 0.7926 0.7968 0.8022 0.7999 0.768 0.7616 0.767 0.7388 0.7391
2160.455 0.7285 0.6968 0.7076 0.707 0.6863 0.668 0.6569 0.6434 0.6329 0.6156
2199.035 0.5943 0.5819 0.5821 0.5745 0.563 0.5729 0.5478 0.5324 0.5493 0.5529
2237.614 0.5205 0.5118 0.5275 0.5177 0.5266 0.5601 0.5757 0.5556 0.571 0.5879
2276.194 0.5695 0.5318 0.5079 0.5269 0.5082 0.469 0.4702 0.4755 0.4617 0.4541
2314.773 0.4397 0.4411 0.4666 0.4581 0.4267 0.442 0.472 0.4374 0.4199 0.4315
2353.353 0.4078 0.37436 0.35903 0.35262 0.34841 0.35388 0.3674 0.35817 0.36 0.36834
2391.932 0.37543 0.3912 0.37516 0.3792 0.4021 0.416 0.4381 0.4523 0.465 0.4959
2430.512 0.517 0.5089 0.4972 0.5059 0.5019 0.4932 0.5011 0.5036 0.4866 0.4905
2469.092 0.5014 0.4727 0.4379 0.4034 0.3859 0.37878 0.3792 0.397 0.4059 0.3915
2507.671 0.3675 0.35223 0.35552 0.36752 0.36425 0.33298 0.3181 0.31408 0.30598 0.33598
2546.251 0.34287 0.32137 0.32277 0.32962 0.34062 0.33899 0.34639 0.36272 0.35751 0.3864
2584.830 0.4178 0.4329 0.4649 0.5133 0.5616 0.6032 0.6556 0.6865 0.7015 0.7312
2623.410 0.7496 0.7608 0.7933 0.8281 0.8369 0.8374 0.8505 0.8825 0.9195 0.9435
2661.989 0.9627 0.9728 0.9854 1.008 1.0404 1.0659 1.0631 1.089 1.1304 1.1496
2700.569 1.1787 1.247 1.359 1.469 1.579 1.709 1.869 1.999 2.139 2.269
2739.148 2.349 2.419 2.479 2.559 2.629 2.709 2.829 2.989 3.149 3.309
2777.728 3.449 3.519 3.579 3.699 3.819 3.929 4.069 4.199 4.339 4.539
2816.308 4.739 5.009 5.299 5.619 6.039 6.499 7.059 7.819 8.759 9.869
2854.887 11.229 12.859 14.789 17.149 19.959 23.059 26.019 28.189 29.249 29.319
2893.467 28.999 28.889 29.299 30.389 31.799 33.019 33.789 34.209 35.129 37.579
2932.046 41.919 46.729 49.199 47.519 42.679 37.609 34.489 33.779 35.129 38.369
2970.626 43.809 51.609 60.579 66.979 66.339 58.579 47.769 37.899 30.399 24.909
3009.205 20.839 17.679 15.099 12.869 10.939 9.349 8.079 7.039 6.119 5.379
3047.785 4.799 4.209 3.719 3.359 3.069 2.809 2.579 2.379 2.189 2.059
3086.364 1.959 1.889 1.819 1.729 1.649 1.639 1.629 1.559 1.499 1.469
3124.944 1.449 1.389 1.329 1.289 1.2231 1.1768 1.1467 1.1691 1.1875 1.1441
3163.524 1.1106 1.0415 1.0113 1.0408 1.0197 1.0141 0.9979 0.9558 0.9213 0.9093
3202.103 0.8868 0.8835 0.8656 0.8111 0.7804 0.7094 0.671 0.6715 0.6243 0.5778
3240.683 0.5403 0.5062 0.4501 0.3856 0.37053 0.36637 0.35507 0.31546 0.280326 0.29429
3279.262 0.278437 0.2514 0.2453 0.2221 0.2339 0.2502 0.2258 0.2067 0.2225 0.2352
3317.842 0.1821 0.147 0.17 0.2557 0.29997 0.2281 0.2311 0.2508 0.2042 0.2176
3356.421 0.2433 0.1919 0.168 0.1905 0.154 0.172 0.1983 0.2 0.224 0.1874
3395.001 0.154 0.17 0.135 0.126 0.153 0.112 0.115 0.146 0.108 0.11
3433.580 0.17 0.17 0.159 0.124 0.094 0.093 0.055 0.084 0.131 0.086
3472.160 0.101 0.136 0.13 0.121 0.101 0.078 0.074 0.087 0.095 0.12
3510.740 0.103 0.08 0.092 0.108 0.053 0.037 0.091 0.105 0.106 0.097
3549.319 0.048 0.058 0.077 0.051 0.106 0.137 0.136 0.11 0.092 0.115
3587.899 0.071 0.045 0.054 0.073 0.054 0 0.051 0.118 0.111 0.119
3626.478 0.117 0.074 0.083 0.13 0.153 0.155 0.157 0.071 0.008 0.074
3665.058 0.073 0.046 0.124 0.1877 0.2112 0.2009 0.157 0.17 0.1939 0.1927
3703.637 0.163 0.1799 0.2193 0.2015 0.2089 0.2242 0.2352 0.2458 0.2683 0.2306
3742.217 0.1954 0.2109 0.2319 0.2156 0.2064 0.27237 0.31173 0.27641 0.2425 0.2172
3780.797 0.165 0.2374 0.31826 0.30383 0.2616 0.19 0.2035 0.2191 0.2342 0.2565
3819.376 0.2008 0.2047 0.2397 0.2239 0.168 0.162 0.2027 0.2012 0.1989 0.1982
3857.956 0.219 0.2393 0.2605 0.29293 0.261 0.2157 0.239 0.269 0.286639 0.30165
3896.535 0.33498 0.31672 0.30955 0.37251 0.37126 0.36329 0.3927 0.35829 0.37417 0.4471
3935.115 0.4223 0.3881 0.4 0.4112 0.4164 0.4593 0.5077 0.4817 0.4958 0.5777
3973.694 0.6046 0.5922 0.5667 0.6127 0.606 0.5733 0.615 0.6056
##END=
