##TITLE=Heptachlor
##JCAMP-DX=4.24
##DATA TYPE=INFRARED SPECTRUM
##ORIGIN=NIST Mass Spectrometry Data Center
##OWNER=NIST Standard Reference Data Program
Collection (C) 2018 copyright by the U.S. Secretary of Commerce
on behalf of the United States of America. All rights reserved.
##CAS REGISTRY NO=76-44-8
##MOLFORM=C 10 H 5 Cl 7
##$NIST SOURCE=MSDC-IR
##SPECTROMETER/DATA SYSTEM=HP-GC/MS/IRD
##STATE=gas
##XUNITS=1/CM
##YUNITS=ABSORBANCE
##XFACTOR=1.0
##YFACTOR=0.000001100
##DELTAX=4.0
##FIRSTX=550.0
##LASTX=3846.0
##FIRSTY=0.004120
##MAXX=3846
##MINX=550
##MAXY=0.011
##MINY=0
##NPOINTS=825
##XYDATA=(X++(Y..Y))
550.0 3745 2210 930 522 329 233 221 93 77 89
590.0 11 89 159 162 133 134 320 480 573 628
630.0 582 585 760 1098 1768 2974 4430 5290 4917 3612
670.0 2355 1933 2320 2712 2232 1243 584 470 680 1033
710.0 1577 2343 3192 3840 3867 3343 2839 2510 2045 1575
750.0 1403 1781 3213 5827 7785 6891 4471 3395 4732 7754
790.0 10000 9024 5736 2955 1725 1450 1707 2524 4035 6062
830.0 7358 6661 4729 3248 2715 2493 2084 1507 1102 919
870.0 916 1089 1402 1802 2173 2599 3210 4203 5412 5898
910.0 5054 3573 2358 1570 1134 856 697 701 699 676
950.0 615 573 693 894 1009 986 984 1141 1533 2147
990.0 2796 3157 2961 2372 1840 1550 1530 1739 2089 2616
1030.0 3467 4867 6299 6781 6364 5769 5543 5551 5289 4673
1070.0 3879 3345 3509 4167 4796 5047 5042 4784 4091 3206
1110.0 2639 2396 1936 1265 851 704 632 600 710 966
1150.0 1409 2150 3059 3825 4033 3591 2720 1811 1174 818
1190.0 601 546 632 821 1096 1304 1402 1513 1726 2072
1230.0 2271 2145 2003 2431 3776 5576 6455 5537 3856 2655
1270.0 1897 1359 1176 1292 1449 1458 1343 1257 1236 1178
1310.0 1012 771 566 438 370 362 406 550 862 1283
1350.0 1536 1380 919 486 282 193 126 109 132 115
1390.0 68 57 82 88 82 79 63 58 40 26
1430.0 37 17 14 40 24 30 36 23 32 47
1470.0 44 29 33 34 26 29 41 43 45 25
1510.0 0 12 27 32 32 50 75 68 37 17
1550.0 37 69 87 113 204 294 342 422 613 957
1590.0 1636 2882 4505 5638 5281 3560 1807 811 424 279
1630.0 187 136 111 79 60 58 35 43 50 32
1670.0 27 43 70 57 61 96 93 116 194 298
1710.0 339 257 141 87 81 69 60 85 99 79
1750.0 66 87 90 89 99 120 146 142 99 79
1790.0 65 42 33 42 47 24 3 5 9 21
1830.0 31 31 32 36 28 31 39 34 36 35
1870.0 40 68 103 122 122 106 75 27 20 50
1910.0 64 48 22 31 37 37 23 33 49 44
1950.0 27 35 54 53 54 50 49 65 54 28
1990.0 24 21 39 45 44 66 66 50 48 47
2030.0 43 53 60 60 55 37 27 32 16 14
2070.0 30 35 23 25 32 40 42 37 40 35
2110.0 33 57 68 55 60 53 34 49 56 66
2150.0 64 58 57 60 57 39 32 30 62 81
2190.0 52 34 34 56 89 83 59 53 67 85
2230.0 117 99 62 58 61 48 45 49 37 35
2270.0 71 70 44 54 63 45 46 73 67 63
2310.0 87 89 74 49 45 62 78 89 97 82
2350.0 71 69 72 81 68 64 74 65 63 69
2390.0 59 57 61 62 62 64 58 40 42 44
2430.0 52 79 68 48 62 91 86 59 65 67
2470.0 54 61 66 59 36 36 61 65 70 73
2510.0 78 77 63 56 42 44 64 59 36 42
2550.0 56 82 80 70 73 60 45 52 68 70
2590.0 59 62 44 31 57 83 91 75 58 48
2630.0 53 49 69 102 67 37 57 33 10 49
2670.0 65 39 45 48 57 77 78 56 37 56
2710.0 54 36 30 30 32 34 41 50 25 24
2750.0 68 74 53 36 43 45 48 54 25 35
2790.0 74 58 24 34 41 37 63 53 49 55
2830.0 48 41 52 78 71 69 70 61 61 64
2870.0 88 106 104 96 92 82 91 119 87 75
2910.0 116 109 97 93 90 107 130 130 103 140
2950.0 282 507 696 670 485 379 359 264 165 124
2990.0 122 86 57 69 71 46 36 41 40 66
3030.0 81 59 50 64 55 57 55 89 172 271
3070.0 443 641 741 700 481 230 115 116 107 62
3110.0 28 16 29 69 79 52 37 5 27 56
3150.0 48 45 36 70 82 38 46 67 64 79
3190.0 83 93 75 63 74 79 74 82 103 72
3230.0 36 36 52 70 63 33 11 1 20 50
3270.0 54 45 30 26 23 27 45 34 37 60
3310.0 46 15 35 67 35 29 45 48 31 39
3350.0 61 73 83 54 54 46 44 35 9 37
3390.0 65 47 60 71 54 27 46 74 66 33
3430.0 43 63 71 66 64 96 124 120 84 62
3470.0 93 74 39 68 61 45 52 27 18 40
3510.0 43 76 65 42 98 94 31 57 79 68
3550.0 63 30 63 79 62 96 116 121 115 95
3590.0 101 82 59 70 110 128 88 60 68 86
3630.0 77 94 117 76 52 39 60 113 75 56
3670.0 93 94 101 118 129 119 98 86 92 88
3710.0 91 83 73 99 103 82 68 81 86 119
3750.0 83 52 69 60 120 155 122 139 184 143
3790.0 94 112 128 139 172 161 123 115 109 84
3830.0 100 107 81 120 151
##END=
