##TITLE=Triphenylmethyl chloride
##JCAMP-DX=4.24
##DATA TYPE=INFRARED SPECTRUM
##ORIGIN=NIST Mass Spectrometry Data Center
##OWNER=NIST Standard Reference Data Program
Collection (C) 2018 copyright by the U.S. Secretary of Commerce
on behalf of the United States of America. All rights reserved.
##CAS REGISTRY NO=76-83-5
##MOLFORM=C 19 H 15 Cl
##$NIST SOURCE=MSDC-IR
##SPECTROMETER/DATA SYSTEM=HP-GC/MS/IRD
##STATE=gas
##XUNITS=1/CM
##YUNITS=ABSORBANCE
##XFACTOR=1.0
##YFACTOR=0.000002600
##DELTAX=4.0
##FIRSTX=550.0
##LASTX=3846.0
##FIRSTY=0.000569
##MAXX=3846
##MINX=550
##MAXY=0.026
##MINY=0
##NPOINTS=825
##XYDATA=(X++(Y..Y))
550.0 219 298 239 249 267 287 270 302 333 379
590.0 411 380 437 546 727 1132 1656 2252 3025 3591
630.0 2961 1598 819 631 606 645 804 1123 1636 2262
670.0 2794 3082 3293 3737 4734 6567 8874 10000 8740 6156
710.0 3905 2660 2204 2202 2652 3725 5376 6888 7006 6358
750.0 6224 6107 5168 3581 2193 1390 972 754 656 570
790.0 483 445 451 464 491 566 705 918 1175 1373
830.0 1394 1245 1072 981 966 945 854 724 598 489
870.0 442 477 580 766 980 1022 815 516 318 227
910.0 171 165 166 154 147 119 90 79 50 21
950.0 1 7 36 50 51 49 42 56 102 153
990.0 215 311 411 457 429 358 328 378 519 773
1030.0 1158 1499 1396 896 437 228 156 118 132 188
1070.0 221 261 282 238 186 172 161 167 194 207
1110.0 217 200 183 190 225 297 365 468 556 604
1150.0 625 605 604 630 682 761 949 1294 1717 2025
1190.0 2022 1843 1709 1622 1524 1395 1193 985 850 766
1230.0 689 632 606 580 547 523 503 494 501 500
1270.0 492 479 448 417 397 381 367 376 404 451
1310.0 525 594 618 583 524 472 423 373 318 288
1350.0 265 245 238 243 266 284 314 334 318 292
1390.0 257 226 213 215 228 257 288 334 417 537
1430.0 741 1126 1864 2833 3308 2783 1816 1112 904 967
1470.0 1147 1431 1772 2055 2281 2541 2803 2738 2169 1366
1510.0 770 499 349 268 247 248 249 234 212 209
1550.0 194 178 177 217 269 336 424 527 652 786
1590.0 945 1099 1136 988 743 502 353 278 243 207
1630.0 167 134 113 112 107 104 133 162 175 191
1670.0 208 223 222 207 183 157 124 94 83 88
1710.0 93 94 113 139 136 125 118 131 138 152
1750.0 186 217 261 289 296 295 282 276 264 297
1790.0 384 523 674 743 682 530 394 296 227 177
1830.0 141 128 133 138 141 167 196 211 215 216
1870.0 223 242 272 301 339 377 397 398 378 341
1910.0 288 234 197 174 179 227 314 431 548 609
1950.0 585 529 473 391 286 189 127 96 85 70
1990.0 47 41 38 40 40 34 35 36 34 29
2030.0 30 28 26 30 34 27 22 25 22 23
2070.0 24 21 19 24 24 15 7 11 17 20
2110.0 18 10 16 17 16 14 9 6 7 3
2150.0 2 8 11 14 15 22 27 34 33 26
2190.0 29 19 2 0 6 15 13 10 11 15
2230.0 16 12 11 12 20 35 50 70 84 74
2270.0 59 45 35 36 31 20 24 31 31 35
2310.0 55 84 95 81 52 30 27 33 53 60
2350.0 46 34 28 20 25 37 34 25 21 27
2390.0 30 30 32 30 26 26 26 13 15 23
2430.0 27 25 29 35 36 38 33 17 14 21
2470.0 16 21 24 16 19 23 18 13 16 13
2510.0 14 20 21 17 12 13 10 12 22 21
2550.0 13 13 20 19 20 23 27 34 40 42
2590.0 37 41 48 42 30 33 32 32 41 36
2630.0 33 41 41 41 43 43 37 42 34 12
2670.0 14 14 15 28 39 36 16 24 38 24
2710.0 11 2 5 18 34 30 24 41 59 57
2750.0 50 49 52 58 65 63 57 50 37 31
2790.0 37 38 36 32 21 32 26 27 41 33
2830.0 30 20 24 39 35 27 43 58 45 45
2870.0 66 75 78 79 91 113 121 97 75 78
2910.0 66 61 59 67 90 94 105 107 104 103
2950.0 87 71 70 97 110 122 150 171 204 231
2990.0 254 295 352 421 517 673 901 1197 1542 1894
3030.0 2216 2469 2609 2589 2454 2475 2918 3842 5125 6447
3070.0 7148 6585 5064 3731 3182 2976 2620 2086 1572 1215
3110.0 954 764 592 447 357 285 232 216 207 189
3150.0 191 221 240 229 192 140 97 87 87 75
3190.0 79 77 65 62 69 67 47 43 48 45
3230.0 42 40 48 61 54 45 38 27 27 22
3270.0 19 37 24 10 28 18 0 33 67 40
3310.0 43 62 70 57 57 69 66 80 83 67
3350.0 49 42 58 81 80 71 80 85 84 84
3390.0 61 44 58 53 57 78 83 70 83 87
3430.0 87 103 99 90 69 87 115 113 124 111
3470.0 109 108 94 90 74 80 109 114 84 82
3510.0 100 93 121 138 100 84 103 116 124 111
3550.0 102 111 114 121 115 115 123 118 122 120
3590.0 112 103 112 138 120 96 103 112 89 77
3630.0 93 118 121 118 148 144 144 154 165 157
3670.0 132 112 113 140 151 147 147 150 154 167
3710.0 145 126 151 163 141 114 85 81 95 76
3750.0 75 98 98 110 124 131 117 91 81 85
3790.0 100 115 101 102 98 90 100 82 79 82
3830.0 48 44 66 61 73
##END=
