##TITLE=Methyl benzilate
##JCAMP-DX=4.24
##DATA TYPE=INFRARED SPECTRUM
##ORIGIN=EPA-IR VAPOR PHASE LIBRARY
##OWNER=SRD/NIST
Collection (C) 2018 copyright by the U.S. Secretary of Commerce
on behalf of the United States of America. All rights reserved.
##CAS REGISTRY NO=76-89-1
##MOLFORM=C 15 H 14 O 3
##$NIST SOURCE=MSDC-IR
##STATE=gas
##XUNITS=1/CM
##YUNITS=ABSORBANCE
##XFACTOR=1.
##YFACTOR=0.001
##DELTAX=1.92898
##FIRSTX=549.8
##LASTX=4000.7
##FIRSTY=3.53
##MAXX=4000.7
##MINX=549.759
##MAXY=0.17213
##MINY=0.00007965
##NPOINTS=1790
##XYDATA=(X++(Y..Y))
549.759 3.53 3.38 3.28 3.51 3.82 3.75 3.97 4.35 4.76 5.24
569.049 5.29 5.63 6.11 6.24 6.52 6.88 7.26 7.47 7.69 8.08
588.339 8.62 9.28 10.06 11.26 12.85 14.88 17.36 19.96 22.29 24.05
607.628 25.14 25.33 24.6 23.21 21.21 19.04 17.1 15.44 13.8 12.15
626.918 10.65 9.07 7.83 7.18 6.68 6.12 5.72 5.61 5.57 5.63
646.208 5.65 5.76 6.06 6.49 7.03 7.68 8.59 9.96 11.76 14.16
665.498 17.39 21.27 25.15 28.8 32.13 34.98 37.58 39.8 42.52 46.58
684.787 52.15 59.33 67.73 76.19 83.5 88.4 89.56 86.85 81.16 73.42
704.077 64.8 56.16 48.11 41.3 35.72 30.99 27.24 24.57 22.61 21.5
723.367 21.21 21.52 22.45 24.04 26.27 29.09 32.48 36.36 40.54 44.8
742.657 49.15 53.34 56.98 59.62 60.98 60.97 59.63 57.03 53.53 49.44
761.947 44.89 40.3 35.98 31.83 27.73 23.97 20.77 17.99 15.73 13.92
781.236 12.53 11.71 11.35 11.53 12.11 12.86 13.63 14.19 14.26 13.65
800.526 12.66 11.41 9.94 8.5 7.21 6.19 5.49 5.06 4.68 4.5
819.816 4.28 3.96 3.79 3.73 3.81 3.76 3.68 3.63 3.52 3.41
839.106 3.44 3.55 3.55 3.68 3.89 3.75 3.61 3.73 3.93 4.14
858.395 4.41 4.8 4.98 5.41 6.09 6.74 7.45 8.07 8.74 9.52
877.685 10.36 11.02 11.56 11.85 11.85 11.7 11.31 10.79 10.31 10.03
896.975 9.94 10.09 10.34 10.55 10.6 10.5 10.42 10.32 10.08 9.75
916.265 9.5 9.3 9.2 9.21 9.33 9.54 9.85 10.14 10.51 10.87
935.555 11.15 11.27 11.14 10.82 10.24 9.59 8.9 8.09 7.26 6.86
954.844 6.67 6.41 6.28 6.31 6.42 6.76 7.28 7.92 8.79 9.97
974.134 11.44 13.35 15.57 18.11 21.21 24.78 28.5 31.91 34.67 36.68
993.424 37.87 38.17 37.68 36.46 34.96 33.66 32.71 32.3 32.69 33.47
1012.714 34.79 36.5 37.56 37.84 37.34 36.5 35.89 35.36 35.07 34.75
1032.003 34.73 34.63 33.87 33.19 32.75 32.93 34.26 37.07 41.07 45.64
1051.293 50.54 54.83 57.88 59.4 58.74 56 51.56 46.14 41.04 36.35
1070.583 32.32 29.08 26.62 25.42 24.84 24.54 24.79 25.43 26.26 27.03
1089.873 27.39 27.56 27.33 26.6 25.21 24 23.17 22.32 21.8 21.13
1109.163 20.87 20.79 20.12 19.55 18.8 17.87 16.98 16.13 15.58 14.96
1128.452 14.59 14.69 15.12 15.8 16.58 17.65 19.12 21.04 23.54 26.42
1147.742 29.98 34.49 39.57 45.37 52.11 59.19 66.54 73.54 79.3 83.92
1167.032 86.56 86.54 84.36 81.18 77.52 74.08 71.48 69.81 69.26 69.38
1186.322 69.74 70.32 71.15 71.92 73.05 75.17 77.92 81.13 84.91 89.21
1205.611 93.52 97.61 101.54 105.07 108.06 110.15 111.98 113.85 115.37 116.76
1224.901 118.29 120.28 122.68 125.68 129.41 133.82 138.3 142.47 146.28 149.08
1244.191 150.2 149.29 145.79 139.92 131.87 121.74 110.39 98.63 87.16 76.4
1263.481 66.72 58.4 51.64 46.02 41.18 37.42 34.43 31.78 29.5 27.49
1282.771 25.7 24.24 23.01 21.95 21.1 20.44 19.96 19.7 19.47 19.25
1302.060 19.19 19.14 19.07 18.93 18.76 18.64 18.47 18.25 18.06 17.94
1321.350 17.87 17.85 17.86 17.89 18.03 18.25 18.41 18.67 18.93 19.23
1340.640 19.67 20.09 20.47 20.83 21.2 21.49 21.64 21.78 21.88 21.89
1359.930 21.86 21.76 21.62 21.45 21.14 20.68 20.03 19.17 18.18 17.12
1379.219 15.99 14.81 13.7 12.68 11.71 10.84 10.03 9.38 8.88 8.46
1398.509 8.2 7.99 7.81 7.75 7.8 7.87 7.95 8.11 8.31 8.54
1417.799 8.94 9.5 10.33 11.62 13.57 16.37 20.24 24.92 29.91 34.44
1437.089 38.19 40.4 40.83 39.86 37.87 35.59 33.6 31.71 29.56 27.2
1456.378 24.64 22.08 19.86 17.99 16.53 15.36 14.62 14.25 14.2 14.43
1475.668 15.08 16.13 17.57 19.55 21.91 24.53 27.32 29.92 31.99 33.11
1494.958 32.94 31.42 28.79 25.39 21.59 17.91 14.56 11.88 9.98 8.62
1514.248 7.62 6.93 6.47 6.12 5.86 5.71 5.64 5.57 5.43 5.39
1533.538 5.35 5.19 5.06 4.95 4.82 4.71 4.62 4.53 4.41 4.32
1552.827 4.34 4.3 4.23 4.23 4.27 4.34 4.42 4.54 4.72 4.89
1572.117 5.05 5.3 5.69 6.03 6.37 6.91 7.57 8.29 9.15 10.18
1591.407 11.2 12.16 12.95 13.21 12.99 12.39 11.45 10.28 9.01 7.75
1610.697 6.75 6.01 5.34 4.84 4.52 4.25 4.06 3.96 3.88 3.77
1629.986 3.65 3.67 3.66 3.67 3.68 3.66 3.67 3.71 3.82 3.87
1649.276 3.95 4.1 4.27 4.47 4.63 4.79 5.01 5.26 5.46 5.62
1668.566 5.77 6.01 6.2 6.37 6.67 6.93 7.25 7.55 7.8 7.97
1687.856 8.15 8.4 8.6 8.85 9.18 9.53 9.86 10.23 10.57 10.98
1707.146 11.52 12.13 12.95 14.08 15.57 17.43 19.85 22.84 26.69 31.77
1726.435 38.55 47.57 59.59 74.63 93.57 114.49 134.64 153.66 167.36 172.13
1745.725 166.76 154.23 137.88 119.93 103.24 89.93 79.77 72.49 66.7 61.52
1765.015 56.47 51.34 46 40.92 35.96 31.55 27.78 24.63 22.03 19.95
1784.305 18.38 17.23 16.45 15.91 15.66 15.51 15.33 15.11 14.69 14.05
1803.594 13.22 12.14 11.01 9.84 8.74 7.79 6.98 6.31 5.75 5.31
1822.884 4.88 4.46 4.11 3.85 3.64 3.43 3.3 3.2 3.03 2.92
1842.174 2.88 2.87 2.84 2.77 2.77 2.85 2.87 2.89 2.99 3.14
1861.464 3.3 3.46 3.64 3.81 3.93 4.04 4.17 4.31 4.42 4.52
1880.754 4.61 4.65 4.63 4.56 4.45 4.27 3.99 3.72 3.5 3.28
1900.043 3.06 2.85 2.71 2.67 2.63 2.55 2.51 2.5 2.47 2.5
1919.333 2.55 2.64 2.74 2.77 2.93 3.17 3.41 3.65 3.93 4.29
1938.623 4.63 4.9 5.19 5.43 5.53 5.6 5.63 5.6 5.55 5.46
1957.913 5.28 5 4.62 4.08 3.5 3.02 2.6 2.2 1.92 1.78
1977.202 1.75 1.72 1.64 1.6 1.58 1.57 1.5 1.4 1.32 1.22
1996.492 1.14 1.13 1.15 1.13 1.12 1.11 1.1 1.12 1.13 1.15
2015.782 1.16 1.17 1.2 1.2 1.23 1.28 1.33 1.31 1.3 1.32
2035.072 1.29 1.3 1.29 1.22 1.17 1.17 1.15 1.16 1.16 1.11
2054.362 1.08 1.05 0.9687 0.9139 0.9427 0.9368 0.9039 0.8768 0.8633 0.8489
2073.651 0.8314 0.8248 0.821 0.8077 0.8275 0.8724 0.8495 0.8099 0.8161 0.8506
2092.941 0.8679 0.8765 0.8754 0.8616 0.8091 0.7759 0.8102 0.8181 0.8156 0.827
2112.231 0.8193 0.7675 0.761 0.7851 0.7641 0.721 0.7315 0.7526 0.7546 0.7645
2131.521 0.7575 0.7454 0.7482 0.752 0.7552 0.7543 0.7638 0.7759 0.7481 0.7728
2150.810 0.7891 0.7956 0.7887 0.7558 0.7554 0.7951 0.8424 0.8561 0.862 0.862
2170.100 0.8343 0.8131 0.8398 0.8062 0.8333 0.8349 0.8112 0.8369 0.794 0.8099
2189.390 0.8545 0.8279 0.7299 0.7091 0.6869 0.5866 0.5509 0.5745 0.5631 0.5287
2208.680 0.4574 0.4436 0.5092 0.4959 0.4546 0.4359 0.3857 0.3276 0.3742 0.3818
2227.970 0.3323 0.3261 0.3042 0.3267 0.347 0.3505 0.3297 0.3297 0.3399 0.3029
2247.259 0.26 0.2389 0.2477 0.2409 0.2238 0.2462 0.2173 0.1835 0.2164 0.2377
2266.549 0.2388 0.2255 0.2435 0.2321 0.222 0.2462 0.255 0.242 0.2301 0.2491
2285.839 0.2974 0.3436 0.3186 0.2927 0.3177 0.3821 0.4228 0.4032 0.4066 0.4569
2305.129 0.507 0.565 0.6646 0.7559 0.8691 0.9545 0.9785 0.9859 0.9199 0.8706
2324.418 0.7988 0.6325 0.5147 0.4998 0.516 0.5398 0.5684 0.572 0.6363 0.6984
2343.708 0.71 0.7074 0.6709 0.6726 0.65 0.6389 0.6537 0.6434 0.6189 0.5535
2362.998 0.4667 0.4816 0.5981 0.5899 0.5668 0.5569 0.516 0.544 0.5702 0.5466
2382.288 0.5163 0.4634 0.3809 0.3276 0.2838 0.2873 0.3302 0.3404 0.385 0.4086
2401.578 0.3537 0.3154 0.3648 0.3884 0.419 0.4669 0.4111 0.4345 0.4673 0.416
2420.867 0.4163 0.4303 0.4232 0.426 0.4631 0.4529 0.3983 0.3548 0.336 0.3755
2440.157 0.3615 0.2909 0.311 0.3555 0.3505 0.312 0.2939 0.3078 0.3324 0.3358
2459.447 0.3269 0.3256 0.314 0.3861 0.4411 0.3841 0.3501 0.3492 0.3374 0.3502
2478.737 0.3991 0.419 0.385 0.3744 0.3466 0.2659 0.2415 0.2533 0.2349 0.2043
2498.026 0.2189 0.2205 0.1941 0.1598 0.1504 0.1934 0.1631 0.1595 0.1493 0.1381
2517.316 0.1469 0.1533 0.1539 0.1277 0.1593 0.1801 0.1554 0.1848 0.2477 0.2391
2536.606 0.1727 0.1266 0.1348 0.1632 0.19 0.1314 0.07965 0.1343 0.1228 0.1258
2555.896 0.1566 0.1625 0.2712 0.3159 0.2194 0.149 0.1992 0.236 0.1857 0.1336
2575.186 0.1187 0.1521 0.1792 0.2347 0.2813 0.3148 0.3992 0.4369 0.3898 0.3884
2594.475 0.4262 0.4377 0.4475 0.4587 0.4439 0.4339 0.4141 0.3963 0.3458 0.2241
2613.765 0.1887 0.207 0.2224 0.227 0.223 0.2032 0.1925 0.2011 0.2504 0.3758
2633.055 0.3592 0.3182 0.3591 0.4039 0.4986 0.4257 0.3492 0.3833 0.3595 0.2938
2652.345 0.2648 0.2894 0.2111 0.1438 0.2208 0.295 0.2686 0.2708 0.2842 0.2788
2671.634 0.2017 0.1683 0.2502 0.3262 0.3278 0.2797 0.2376 0.178 0.1604 0.2229
2690.924 0.2488 0.1453 0.1389 0.2097 0.1782 0.1232 0.1247 0.1366 0.1384 0.1557
2710.214 0.199 0.1564 0.1312 0.1949 0.1643 0.1247 0.1042 0.1171 0.1523 0.1212
2729.504 0.1178 0.1729 0.2522 0.2874 0.2963 0.2901 0.3295 0.3146 0.2874 0.3907
2748.794 0.3703 0.3618 0.4085 0.4041 0.3406 0.3113 0.3537 0.4384 0.4683 0.4073
2768.083 0.4958 0.5076 0.409 0.4579 0.4932 0.489 0.4753 0.4559 0.4627 0.4292
2787.373 0.419 0.4556 0.4495 0.3712 0.3811 0.3936 0.4236 0.4544 0.4302 0.4881
2806.663 0.5428 0.4985 0.4763 0.5556 0.588 0.6008 0.6532 0.7211 0.7727 0.8406
2825.953 0.9432 1.07 1.23 1.43 1.71 2.06 2.44 2.86 3.4 4.05
2845.242 4.72 5.32 5.64 5.76 5.63 5.12 4.47 3.74 3.13 2.66
2864.532 2.29 2.14 2.1 2.09 2.14 2.18 2.26 2.3 2.38 2.56
2883.822 2.78 3.01 3.3 3.55 3.85 4.24 4.49 4.73 4.85 4.95
2903.112 5.11 5.22 5.29 5.28 5.36 5.41 5.42 5.45 5.39 5.23
2922.401 5.11 5.18 5.26 5.22 5.14 5.23 5.47 5.71 5.95 6.48
2941.691 7.22 8.09 9.41 11.12 13.55 17.05 21.59 26.81 31.95 36.12
2960.981 38.56 38.81 36.45 32.1 26.79 21.32 16.53 12.78 10.38 8.93
2980.271 7.99 7.48 7.3 7.3 7.36 7.58 7.92 8.22 8.59 9.2
2999.561 9.94 10.58 11.1 11.64 12.15 12.56 12.98 13.34 13.82 14.63
3018.850 15.69 16.98 18.48 20.27 22.22 24.34 26.5 28.46 30.25 31.78
3038.140 32.82 33.23 33.06 32.38 31.31 30.15 29.26 28.97 29.48 31
3057.430 33.58 37.31 42.03 47.43 53.17 58.34 62.13 63.56 62.16 58.31
3076.720 52.5 45.81 39.2 33.55 29.64 27.35 26.11 25.57 25.12 24.35
3096.009 23.26 21.98 20.52 18.83 17.11 15.33 13.67 12.19 10.61 9.28
3115.299 8.31 7.34 6.24 5.33 4.71 4.08 3.65 3.35 3.04 2.9
3134.589 2.81 2.6 2.37 2.28 2.2 2.04 2 2.04 1.98 1.98
3153.879 1.98 1.9 1.98 2.11 2.02 1.97 2.01 2.02 1.86 1.72
3173.169 1.7 1.47 1.4 1.44 1.29 1.11 0.9955 0.968 0.9561 0.9105
3192.458 0.957 0.8915 0.7094 0.651 0.7258 0.8622 0.8047 0.5804 0.5007 0.582
3211.748 0.4949 0.4047 0.4785 0.4778 0.4939 0.5535 0.5462 0.5292 0.52 0.4576
3231.038 0.5327 0.5215 0.4205 0.4123 0.4345 0.4917 0.3968 0.3753 0.4175 0.3311
3250.328 0.2687 0.38 0.4583 0.4386 0.3678 0.3713 0.3837 0.3165 0.3946 0.5007
3269.617 0.488 0.3477 0.4479 0.4988 0.4383 0.4487 0.4196 0.3987 0.4501 0.4996
3288.907 0.3683 0.3331 0.3905 0.3893 0.333 0.3643 0.472 0.4987 0.4663 0.4128
3308.197 0.4188 0.2971 0.2519 0.34 0.2466 0.2521 0.4106 0.4517 0.3781 0.4573
3327.487 0.5591 0.4769 0.4942 0.5517 0.5469 0.5421 0.4964 0.5139 0.5294 0.5537
3346.777 0.5578 0.5785 0.6011 0.5554 0.5183 0.5192 0.5068 0.441 0.4005 0.4071
3366.066 0.4421 0.4077 0.5913 0.734 0.5769 0.5606 0.4581 0.3015 0.3629 0.3765
3385.356 0.3663 0.3716 0.3981 0.477 0.4547 0.3986 0.2649 0.3422 0.4463 0.4906
3404.646 0.4655 0.3406 0.3638 0.4529 0.553 0.4537 0.4303 0.5526 0.5759 0.5641
3423.936 0.6307 0.6676 0.6214 0.5363 0.496 0.6049 0.6919 0.8889 1.03 1.06
3443.225 1.09 1.08 1.25 1.38 1.51 1.61 1.55 1.7 1.86 2.01
3462.515 2.34 2.48 2.44 2.42 2.44 2.47 2.54 2.63 2.66 2.57
3481.805 2.59 2.74 2.75 2.82 2.91 3.04 3.14 3.28 3.56 3.89
3501.095 4.08 4.22 4.44 4.7 4.88 5.12 5.47 5.94 6.51 7.05
3520.385 7.81 8.61 9.63 10.92 12.44 14.18 16.26 18.72 21.41 24.19
3539.674 26.75 29 30.78 31.98 32.39 32.1 31.25 29.74 27.81 25.71
3558.964 23.35 21.12 19.19 17.1 15.05 13.39 11.89 10.64 9.54 8.49
3578.254 7.68 7 6.3 5.67 5.2 4.97 4.88 4.52 4.25 4.12
3597.544 4.15 4.23 4.17 4.33 4.58 5 5.63 6.2 7.24 8.67
3616.833 9.9 11.4 12.96 13.76 13.81 13.37 12.31 10.87 9.3 7.59
3636.123 6.03 4.85 3.86 3.2 2.81 2.52 2.28 2.09 1.9 1.75
3655.413 1.75 1.65 1.56 1.38 1.2 1.15 1.21 1.23 1.16 1.17
3674.703 1.1 1.05 1.06 0.8827 0.712 0.6318 0.7242 0.7269 0.5907 0.672
3693.993 0.7441 0.7175 0.5705 0.5213 0.6403 0.6597 0.4843 0.3486 0.5519 0.7238
3713.282 0.6431 0.6394 0.6272 0.5965 0.5889 0.5408 0.5304 0.5509 0.4742 0.6261
3732.572 0.7698 0.5017 0.3706 0.3897 0.4013 0.3735 0.3894 0.4673 0.5226 0.5434
3751.862 0.5712 0.5098 0.3535 0.4663 0.5555 0.4906 0.4832 0.4062 0.4753 0.4116
3771.152 0.2127 0.398 0.4968 0.2922 0.2763 0.3539 0.2692 0.3705 0.422 0.3602
3790.441 0.3082 0.4531 0.5318 0.3751 0.3491 0.3171 0.3938 0.4317 0.4053 0.3507
3809.731 0.387 0.3376 0.3838 0.5956 0.4705 0.4377 0.3654 0.2719 0.3217 0.3422
3829.021 0.426 0.3535 0.3387 0.3427 0.2795 0.3924 0.3522 0.3298 0.5012 0.4421
3848.311 0.3514 0.4997 0.4473 0.3148 0.3264 0.2969 0.3582 0.4365 0.5056 0.6429
3867.601 0.693 0.6005 0.5165 0.4593 0.5789 0.6323 0.597 0.479 0.3849 0.5125
3886.890 0.5596 0.5082 0.5924 0.6086 0.4758 0.4743 0.6194 0.6533 0.6093 0.6367
3906.180 0.5721 0.5892 0.6252 0.487 0.4376 0.5217 0.5113 0.6344 0.6365 0.4198
3925.470 0.4973 0.6514 0.7839 0.8174 0.6157 0.5454 0.6289 0.6221 0.6388 0.6436
3944.760 0.5283 0.5472 0.6848 0.5737 0.3222 0.3013 0.3201 0.4461 0.6861 0.7773
3964.049 0.7285 0.6153 0.6024 0.6475 0.5212 0.375 0.4035 0.4408 0.3932 0.3477
3983.339 0.2549 0.3075 0.5133 0.544 0.5286 0.6335 0.581 0.4732 0.3967 0.4042
##END=
