##TITLE=Ethyl 5-bromo-2-chlorobenzoate
##JCAMP-DX=4.24
##DATA TYPE=INFRARED SPECTRUM
##ORIGIN=EPA-IR VAPOR PHASE LIBRARY
##OWNER=SRD/NIST
Collection (C) 2018 copyright by the U.S. Secretary of Commerce
on behalf of the United States of America. All rights reserved.
##CAS REGISTRY NO=76008-73-6
##MOLFORM=C 9 H 8 Br Cl O 2
##$NIST SOURCE=MSDC-IR
##STATE=gas
##XUNITS=1/CM
##YUNITS=ABSORBANCE
##XFACTOR=1.
##YFACTOR=0.001
##DELTAX=1.929
##FIRSTX=549.8
##LASTX=4000.8
##FIRSTY=4.841
##MAXX=4000.75
##MINX=549.766
##MAXY=0.315261
##MINY=0
##NPOINTS=1790
##XYDATA=(X++(Y..Y))
549.766 4.841 4.911 5.141 5.281 5.581 5.991 6.371 6.941 7.481 8.061
569.056 8.561 9.121 9.711 10.081 10.241 10.101 9.591 8.931 8.081 7.101
588.346 6.131 5.161 4.451 3.911 3.511 3.311 3.051 2.701 2.521 2.371
607.636 2.291 2.281 2.331 2.261 2.061 2.031 1.971 1.851 1.6663 1.421
626.926 1.546 1.524 1.2595 1.1966 1.1765 1.1255 1.0395 1.1671 1.3764 1.3641
646.216 1.462 1.881 2.121 2.711 3.821 5.131 6.461 7.351 7.761 7.591
665.506 6.851 5.691 4.571 3.771 3.161 2.931 2.791 2.551 2.561 2.681
684.796 2.841 2.841 2.811 3.101 3.091 3.031 3.211 3.201 3.021 2.861
704.086 2.721 2.661 2.591 2.421 2.371 2.451 2.471 2.461 2.591 2.821
723.376 2.971 3.111 3.461 4.031 4.741 5.631 7.151 9.321 11.931 14.601
742.666 16.881 18.531 19.051 18.291 16.571 14.321 12.231 10.521 9.071 8.131
761.956 7.791 7.841 8.131 8.671 9.461 10.331 11.071 11.781 12.331 12.491
781.246 12.331 11.901 11.361 11.011 10.691 10.271 9.921 9.701 10.001 10.771
800.536 12.001 14.221 18.021 23.251 29.211 35.471 41.861 48.361 51.541 47.161
819.826 38.851 31.731 25.531 19.521 14.421 11.011 9.071 7.931 7.271 7.121
839.116 7.251 7.281 7.431 7.751 8.091 8.621 9.401 10.221 11.081 11.921
858.406 12.511 12.901 13.151 13.251 13.281 13.381 13.751 14.471 15.551 16.931
877.696 18.541 20.021 21.171 21.841 21.811 21.271 20.271 19.051 17.951 16.791
896.986 15.391 13.711 11.931 10.171 8.531 7.211 6.141 5.301 4.711 4.221
916.276 3.811 3.531 3.351 3.271 3.161 3.031 3.021 3.031 2.971 2.931
935.566 2.921 3.001 3.121 3.201 3.281 3.491 3.781 3.831 3.821 3.841
954.856 3.831 3.891 3.961 4.021 4.101 4.181 4.301 4.441 4.561 4.691
974.146 4.951 5.211 5.401 5.741 6.221 6.721 7.241 7.921 8.841 9.991
993.436 11.391 13.091 15.131 17.561 20.651 24.391 28.741 33.561 38.541 43.191
1012.726 46.911 49.141 49.751 48.711 46.371 43.331 40.251 37.881 36.371 35.801
1032.016 36.371 38.201 41.201 45.341 50.821 57.471 64.861 72.661 80.371 87.121
1051.306 92.021 94.381 93.841 90.161 83.651 75.251 65.621 55.791 46.991 40.021
1070.596 35.171 32.391 31.751 33.101 36.421 41.511 47.721 53.801 58.411 61.511
1089.886 63.161 62.861 60.911 58.761 57.921 58.991 61.861 66.521 72.891 80.631
1109.176 89.441 98.871 108.211 116.971 124.731 130.891 134.991 136.931 136.581 133.721
1128.467 128.271 120.731 111.821 102.471 93.921 86.601 80.441 75.051 69.811 64.351
1147.757 58.331 51.931 45.721 40.181 35.771 32.351 29.821 28.281 27.281 26.611
1167.047 26.361 26.391 26.631 26.861 27.101 27.421 27.731 28.031 28.261 28.411
1186.337 28.701 29.071 29.501 30.101 30.911 31.991 33.101 34.521 36.521 38.901
1205.627 41.901 45.621 50.111 55.691 62.561 70.951 80.931 92.831 106.941 122.991
1224.917 140.831 159.611 177.971 194.131 205.461 210.151 207.021 195.801 177.691 155.421
1244.207 132.361 111.661 95.781 86.001 82.221 83.451 88.661 97.341 109.241 124.441
1263.497 143.771 168.021 197.091 229.361 261.691 289.821 308.921 315.261 307.331 285.861
1282.787 253.641 215.591 177.461 143.851 116.821 96.211 80.781 69.061 60.041 52.951
1302.077 47.191 42.371 38.201 34.541 31.251 28.281 25.671 23.311 21.201 19.341
1321.367 17.641 16.151 14.881 13.711 12.801 12.011 11.391 10.971 10.551 10.281
1340.657 10.141 10.061 10.121 10.361 10.721 11.241 12.081 13.241 14.661 16.461
1359.947 18.701 21.331 24.251 27.461 31.191 35.571 40.581 46.051 51.691 56.881
1379.237 60.921 63.001 62.521 59.761 55.331 50.291 45.801 42.351 39.951 38.301
1398.527 36.851 35.181 33.271 31.071 28.771 26.441 24.101 21.981 20.211 18.731
1417.817 17.611 16.801 16.311 16.011 15.941 16.121 16.421 16.851 17.501 18.431
1437.107 19.741 21.301 23.361 26.031 29.391 33.521 38.681 44.761 51.571 58.421
1456.397 64.851 70.011 72.691 72.841 70.311 65.561 59.421 52.691 45.941 39.461
1475.687 33.751 28.561 24.081 20.211 17.051 14.481 12.351 10.671 9.351 8.281
1494.977 7.521 6.901 6.361 5.951 5.621 5.351 5.131 4.921 4.811 4.731
1514.267 4.591 4.501 4.481 4.481 4.501 4.541 4.651 4.801 4.961 5.181
1533.557 5.441 5.701 6.081 6.571 7.141 7.791 8.561 9.341 10.041 10.681
1552.847 11.131 11.241 10.991 10.421 9.591 8.741 8.031 7.451 7.091 7.001
1572.137 7.081 7.311 7.651 8.031 8.371 8.541 8.541 8.401 8.081 7.571
1591.427 6.931 6.371 5.921 5.571 5.321 5.081 4.881 4.731 4.621 4.571
1610.717 4.461 4.421 4.521 4.651 4.871 5.171 5.561 5.961 6.271 6.451
1630.007 6.531 6.491 6.251 5.861 5.421 5.011 4.651 4.361 4.151 4.051
1649.297 4.061 4.101 4.131 4.141 4.241 4.351 4.491 4.621 4.751 4.971
1668.587 5.171 5.331 5.501 5.691 5.981 6.261 6.521 6.871 7.331 7.801
1687.877 8.271 8.931 9.651 10.381 11.291 12.231 13.341 14.641 15.961 17.651
1707.167 19.601 21.871 24.561 27.601 31.021 35.061 39.811 45.041 51.081 58.061
1726.457 66.021 75.071 85.251 95.931 107.231 117.771 126.521 133.901 139.561 144.141
1745.747 147.911 151.591 155.221 158.051 158.631 155.781 148.911 138.631 125.441 111.061
1765.037 97.251 84.261 72.281 61.831 52.451 44.531 37.891 32.351 27.751 23.921
1784.327 20.801 18.181 16.031 14.251 12.681 11.341 10.241 9.251 8.421 7.701
1803.617 7.041 6.461 5.931 5.521 5.201 4.921 4.721 4.501 4.301 4.141
1822.907 4.111 4.061 3.921 3.831 3.811 3.781 3.731 3.661 3.561 3.521
1842.197 3.461 3.411 3.291 3.141 3.091 3.041 2.981 2.891 2.821 2.781
1861.487 2.691 2.641 2.611 2.611 2.611 2.621 2.701 2.811 2.951 3.051
1880.777 3.171 3.371 3.631 3.871 4.131 4.411 4.561 4.641 4.601 4.391
1900.067 4.101 3.781 3.431 3.061 2.761 2.551 2.401 2.271 2.161 2.051
1919.357 1.951 1.911 1.831 1.7328 1.6805 1.6717 1.6333 1.619 1.618 1.5763
1938.647 1.5202 1.5084 1.5173 1.5053 1.4882 1.4679 1.4589 1.4624 1.4724 1.4414
1957.937 1.4807 1.5232 1.4962 1.5434 1.6258 1.6439 1.6759 1.7319 1.7206 1.6938
1977.227 1.7408 1.7771 1.821 1.831 1.8035 1.7943 1.7717 1.7776 1.7353 1.7112
1996.517 1.7182 1.6556 1.5382 1.4638 1.4715 1.4454 1.4261 1.3984 1.3159 1.2929
2015.807 1.3107 1.3463 1.3369 1.3278 1.3111 1.2725 1.2668 1.2702 1.2763 1.2645
2035.097 1.219 1.1629 1.1832 1.1815 1.1658 1.2126 1.2236 1.1884 1.195 1.2201
2054.387 1.2225 1.1838 1.1989 1.2495 1.2265 1.2191 1.2299 1.2383 1.2874 1.3254
2073.677 1.3495 1.4249 1.504 1.5098 1.5142 1.5185 1.5536 1.6382 1.7064 1.731
2092.967 1.7262 1.7421 1.7291 1.6986 1.6479 1.6332 1.6083 1.512 1.4734 1.4666
2112.257 1.4703 1.4458 1.4012 1.3831 1.3907 1.4436 1.4545 1.4659 1.4963 1.4718
2131.547 1.4596 1.4527 1.4248 1.4515 1.4158 1.3377 1.3184 1.3198 1.2873 1.3037
2150.837 1.3171 1.2322 1.1498 1.1211 1.0783 1.0017 0.9698 0.9614 0.9592 0.9639
2170.127 0.9584 0.9178 0.90204 0.88222 0.82975 0.80874 0.85244 0.89601 0.84723 0.7802
2189.417 0.756 0.7519 0.7383 0.7289 0.7681 0.7991 0.7754 0.7921 0.82422 0.7977
2208.707 0.7397 0.7148 0.7454 0.7752 0.8004 0.815428 0.80575 0.7888 0.82597 0.84504
2227.997 0.83323 0.84499 0.85051 0.86295 0.89942 0.91028 0.918 0.912 0.88992 0.9629
2247.287 0.9969 0.9822 0.9673 0.9553 0.959 0.9861 1.0578 1.0377 0.9675 1.0171
2266.577 1.0649 1.0629 1.0478 1.049 1.0655 1.0934 1.1853 1.1959 1.1369 1.14
2285.868 1.17 1.1931 1.1657 1.0377 0.9838 0.9639 0.923 0.90356 0.9127 0.9693
2305.158 0.9706 0.9347 0.9374 0.9621 0.9167 0.87593 0.9148 0.90473 0.85922 0.86392
2324.448 0.9132 0.9654 0.9938 1.018 1.0157 1.0227 1.0177 1.0219 1.0177 1.0499
2343.738 1.1181 1.0722 1.0292 1.036 0.9948 0.9748 0.96 0.9931 1.0223 0.9504
2363.028 0.9595 0.9704 0.9946 1.0673 1.0586 1.0598 1.0702 1.0249 1.0242 0.9982
2382.318 0.9652 1.0238 1.0683 1.033 1.0523 1.0997 1.1071 1.1198 1.1197 1.0625
2401.608 1.0085 1.0646 1.0562 1.0331 1.0422 0.9859 0.9697 0.9741 0.9487 0.90016
2420.898 0.8357 0.83759 0.819862 0.7902 0.764 0.7425 0.7327 0.68 0.665 0.659
2440.188 0.622 0.621 0.638 0.637 0.611 0.597 0.59 0.544 0.562 0.608
2459.478 0.589 0.568 0.606 0.588 0.565 0.654 0.638 0.604 0.623 0.623
2478.768 0.651 0.58 0.566 0.605 0.62 0.695 0.7256 0.7186 0.7255 0.676
2498.058 0.675 0.7256 0.7522 0.7801 0.7424 0.709 0.71 0.7435 0.7797 0.7622
2517.348 0.7177 0.7232 0.7597 0.7779 0.713 0.645 0.632 0.62 0.577 0.581
2536.638 0.591 0.555 0.533 0.506 0.522 0.481 0.436 0.434 0.406 0.372
2555.928 0.403 0.399 0.322 0.304 0.319 0.329 0.318 0.342 0.376 0.366
2575.218 0.376 0.371 0.338 0.381 0.444 0.465 0.384 0.339 0.392 0.428
2594.508 0.414 0.389 0.34 0.405 0.495 0.499 0.479 0.458 0.47 0.474
2613.798 0.472 0.426 0.458 0.517 0.523 0.546 0.565 0.519 0.454 0.437
2633.088 0.47 0.497 0.473 0.398 0.371 0.37 0.327 0.349 0.35 0.299
2652.378 0.306 0.375 0.393 0.316 0.337 0.448 0.448 0.386 0.393 0.423
2671.668 0.416 0.388 0.36 0.282 0.281 0.319 0.296 0.331 0.387 0.414
2690.958 0.364 0.327 0.318 0.306 0.325 0.375 0.403 0.314 0.247 0.297
2710.248 0.245 0.222 0.246 0.252 0.273 0.269 0.365 0.393 0.368 0.432
2729.538 0.437 0.398 0.405 0.432 0.447 0.427 0.412 0.435 0.438 0.45
2748.828 0.438 0.409 0.518 0.558 0.456 0.451 0.62 0.676 0.659 0.698
2768.118 0.689 0.71 0.7569 0.7452 0.7779 0.90379 0.9971 0.9852 0.9751 1.0409
2787.408 1.0616 1.0224 1.0271 1.0825 1.056 0.9871 1.0552 1.1509 1.1588 1.1973
2806.698 1.2436 1.271 1.3318 1.4215 1.4571 1.4846 1.4973 1.5422 1.6637 1.673
2825.988 1.6977 1.7465 1.7509 1.831 1.841 1.881 1.931 1.991 2.011 1.931
2845.278 1.951 2.021 2.131 2.171 2.231 2.381 2.521 2.671 2.791 2.901
2864.568 2.961 3.181 3.451 3.671 3.961 4.241 4.651 5.131 5.601 6.051
2883.858 6.451 6.801 6.961 6.921 6.901 6.821 6.841 7.071 7.321 7.661
2903.148 8.001 8.371 8.771 9.101 9.401 9.661 9.841 9.931 9.851 9.711
2922.438 9.601 9.631 9.921 10.311 10.891 11.711 12.711 14.021 15.731 17.381
2941.728 18.861 20.051 20.561 20.481 19.701 18.491 17.221 16.081 15.381 15.211
2961.018 15.451 16.101 16.981 18.041 19.411 20.981 22.751 24.891 27.631 30.901
2980.308 34.711 38.861 42.321 44.271 44.441 42.791 39.491 35.321 31.241 27.711
2999.598 24.961 22.841 21.091 19.551 18.091 16.661 15.251 13.831 12.501 11.221
3018.888 10.081 9.071 8.061 7.231 6.441 5.741 5.231 4.811 4.241 3.731
3038.178 3.551 3.411 3.111 2.771 2.571 2.401 2.291 2.191 2.081 2.081
3057.468 2.121 2.171 2.331 2.511 2.561 2.751 3.151 3.481 3.621 3.851
3076.758 3.931 3.721 3.511 3.311 3.001 2.671 2.411 2.211 2.051 1.941
3096.048 1.861 1.6138 1.4694 1.5666 1.5577 1.3433 1.3015 1.3312 1.3112 1.2717
3115.338 1.18 1.1683 1.1242 1.0237 1.01 1.1339 1.1511 1.0755 1.0047 0.8993
3134.628 0.80753 0.82199 0.87087 0.89199 0.9472 0.87417 0.820698 0.7859 0.707 0.7522
3153.918 0.82189 0.7942 0.7749 0.689 0.574 0.585 0.63 0.545 0.493 0.636
3173.208 0.611 0.557 0.556 0.489 0.526 0.565 0.49 0.51 0.571 0.545
3192.498 0.53 0.404 0.329 0.382 0.333 0.341 0.455 0.451 0.298 0.261
3211.788 0.343 0.302 0.215 0.249 0.211 0.106 0.094 0.222 0.252 0.189
3231.078 0.203 0.214 0.272 0.252 0.206 0.235 0.288 0.196 0.142 0.229
3250.368 0.263 0.279 0.114 0.074 0.161 0.148 0.209 0.25 0.287 0.285
3269.658 0.194 0.183 0.157 0.139 0.146 0.11 0.109 0.066 0 0.012
3288.948 0.102 0.062 0.103 0.188 0.053 0.067 0.183 0.109 0.052 0.21
3308.238 0.252 0.187 0.204 0.086 0.099 0.236 0.356 0.462 0.487 0.352
3327.528 0.137 0.168 0.225 0.179 0.192 0.295 0.302 0.314 0.354 0.306
3346.818 0.323 0.258 0.244 0.267 0.208 0.265 0.267 0.242 0.259 0.35
3366.108 0.429 0.418 0.376 0.204 0.118 0.283 0.386 0.32 0.351 0.391
3385.398 0.381 0.303 0.309 0.493 0.536 0.436 0.376 0.4 0.432 0.408
3404.688 0.476 0.507 0.482 0.451 0.433 0.455 0.495 0.55 0.531 0.56
3423.978 0.63 0.637 0.634 0.7265 0.812952 0.86476 0.9382 0.90499 0.7938 0.9517
3443.269 1.1388 1.1248 1.153 1.1416 1.0731 1.138 1.3549 1.3672 1.2269 1.2476
3462.559 1.3591 1.3332 1.3054 1.3269 1.2524 1.2742 1.3733 1.5014 1.6501 1.6287
3481.849 1.6011 1.7013 1.811 1.871 1.7534 1.6575 1.6231 1.5472 1.4843 1.298
3501.139 1.1849 1.2168 1.1455 1.0677 0.9694 0.86358 0.84455 0.7729 0.7516 0.7542
3520.429 0.653 0.68 0.692 0.647 0.612 0.635 0.726 0.705 0.602 0.522
3539.719 0.555 0.508 0.355 0.412 0.469 0.523 0.598 0.533 0.512 0.632
3559.009 0.685 0.421 0.307 0.446 0.558 0.604 0.567 0.611 0.564 0.469
3578.299 0.493 0.494 0.443 0.422 0.478 0.52 0.417 0.391 0.467 0.386
3597.589 0.306 0.247 0.369 0.553 0.554 0.493 0.372 0.344 0.43 0.549
3616.879 0.576 0.568 0.544 0.544 0.479 0.364 0.387 0.378 0.337 0.342
3636.169 0.364 0.431 0.542 0.463 0.496 0.519 0.407 0.555 0.656 0.681
3655.459 0.691 0.452 0.43 0.653 0.697 0.644 0.599 0.634 0.637 0.501
3674.749 0.413 0.522 0.537 0.53 0.622 0.682 0.602 0.555 0.71 0.629
3694.039 0.54 0.603 0.562 0.527 0.449 0.485 0.547 0.508 0.529 0.614
3713.329 0.7892 0.7694 0.627 0.683 0.69 0.609 0.7176 0.788 0.709 0.757
3732.619 0.80346 0.816275 0.7111 0.561 0.7363 0.9046 0.80238 0.7373 0.653 0.681
3751.909 0.88209 0.87444 0.7609 0.80985 0.7234 0.722 0.87235 0.7762 0.634 0.614
3771.199 0.64 0.631 0.592 0.675 0.7498 0.603 0.535 0.609 0.573 0.422
3790.489 0.422 0.639 0.677 0.613 0.617 0.573 0.588 0.677 0.69 0.688
3809.779 0.8096 0.655 0.5 0.555 0.568 0.629 0.619 0.541 0.61 0.7406
3829.069 0.7187 0.7421 0.7357 0.7897 0.7871 0.7648 0.80944 0.7286 0.7632 0.7843
3848.359 0.8232 0.7897 0.679 0.706 0.7669 0.7737 0.7464 0.63 0.554 0.676
3867.649 0.657 0.681 0.7127 0.696 0.643 0.571 0.556 0.454 0.46 0.603
3886.939 0.676 0.606 0.685 0.7547 0.703 0.605 0.67 0.661 0.54 0.579
3906.229 0.531 0.509 0.474 0.508 0.539 0.496 0.526 0.634 0.675 0.605
3925.519 0.525 0.541 0.672 0.7426 0.628 0.579 0.694 0.667 0.636 0.7777
3944.809 0.7654 0.669 0.618 0.621 0.7404 0.7342 0.7484 0.88925 0.83481 0.777
3964.099 0.80606 0.704 0.734 0.7427 0.7141 0.7132 0.7155 0.87573 0.86593 0.686
3983.389 0.654 0.665 0.703 0.689 0.606 0.64 0.58 0.532 0.629 0.602
##END=
