##TITLE=Phenylsulphonylacetonitrile
##JCAMP-DX=4.24
##DATA TYPE=INFRARED SPECTRUM
##ORIGIN=EPA-IR VAPOR PHASE LIBRARY
##OWNER=SRD/NIST
Collection (C) 2018 copyright by the U.S. Secretary of Commerce
on behalf of the United States of America. All rights reserved.
##CAS REGISTRY NO=7605-28-9
##MOLFORM=C 8 H 7 N O 2 S
##$NIST SOURCE=MSDC-IR
##STATE=gas
##XUNITS=1/CM
##YUNITS=ABSORBANCE
##XFACTOR=1.
##YFACTOR=0.001
##DELTAX=1.92934
##FIRSTX=549.9
##LASTX=3999.5
##FIRSTY=6.228
##MAXX=3999.53
##MINX=549.863
##MAXY=0.069818
##MINY=0
##NPOINTS=1789
##XYDATA=(X++(Y..Y))
549.863 6.228 6.188 6.558 7.118 7.888 9.218 10.858 12.658 14.888 17.228
569.156 19.408 21.678 23.708 25.098 25.608 25.268 24.408 22.928 20.838 18.408
588.450 16.028 13.798 11.858 10.438 9.418 8.748 8.498 8.418 8.328 8.218
607.743 7.998 7.658 7.218 6.518 5.728 4.958 4.198 3.588 3.158 2.858
627.037 2.528 2.268 2.178 2.088 1.998 1.968 1.958 2.038 2.108 2.138
646.330 2.178 2.258 2.348 2.438 2.608 2.858 3.118 3.378 3.788 4.278
665.624 4.748 5.418 6.308 7.308 8.618 10.168 11.888 13.658 15.408 17.018
684.917 18.358 18.938 18.378 17.138 15.788 14.348 12.778 11.338 10.168 9.198
704.210 8.588 8.298 8.248 8.438 8.808 9.348 10.008 10.788 11.538 12.418
723.504 13.668 15.498 18.018 21.078 24.508 28.038 31.308 33.858 35.588 36.098
742.797 34.398 31.088 27.538 23.878 20.238 17.248 15.398 14.668 14.618 14.918
762.091 15.278 15.448 15.288 14.728 13.698 12.358 10.898 9.418 8.168 7.218
781.384 6.408 5.738 5.188 4.658 4.138 3.708 3.348 3.058 2.838 2.618
800.678 2.488 2.348 2.178 2.078 2.028 1.968 1.918 1.928 1.898 1.868
819.971 1.818 1.758 1.788 1.818 1.868 1.948 2.008 2.078 2.128 2.288
839.264 2.488 2.798 3.188 3.608 4.208 4.938 5.888 7.088 8.448 9.968
858.558 11.548 13.218 14.798 15.868 16.428 16.518 16.068 15.078 13.688 12.028
877.851 10.118 8.088 6.238 4.848 3.878 3.218 2.758 2.388 2.108 1.908
897.145 1.708 1.557 1.4606 1.3258 1.2775 1.2582 1.1591 1.1082 1.1116 1.0893
916.438 1.104 1.1375 1.1588 1.1522 1.1094 1.0909 1.1265 1.1222 1.1152 1.0908
935.732 1.0219 1.0045 1.0371 1.072 1.0626 1.0698 1.1057 1.1262 1.1212 1.0796
955.025 1.0497 1.0543 1.0579 1.0275 1.004 0.9928 0.9744 0.9404 0.9038 0.9151
974.318 0.9389 0.9659 0.9981 1.0122 1.0226 1.0721 1.1489 1.2844 1.4735 1.708
993.612 1.908 1.978 2.058 2.098 2.078 2.048 1.988 1.868 1.708 1.6435
1012.905 1.698 1.858 2.058 2.228 2.368 2.428 2.468 2.438 2.288 2.128
1032.199 1.978 1.808 1.6454 1.5004 1.3693 1.3079 1.285 1.2997 1.4091 1.6124
1051.492 1.818 2.018 2.208 2.478 2.748 3.038 3.328 3.618 3.948 4.348
1070.786 4.898 5.558 6.508 7.848 9.418 11.028 12.538 13.908 14.808 15.098
1090.079 14.928 14.178 13.008 11.498 9.548 7.518 5.838 4.618 3.748 3.168
1109.372 2.788 2.458 2.258 2.198 2.208 2.278 2.388 2.668 3.038 3.498
1128.666 4.308 5.478 7.188 9.558 12.548 15.988 19.638 23.338 26.668 29.368
1147.959 31.308 32.348 32.718 32.838 32.878 33.158 34.508 37.458 41.898 47.738
1167.253 54.028 59.518 63.628 66.148 66.888 65.118 61.108 55.298 47.498 38.788
1186.546 31.068 24.668 19.228 15.198 12.388 10.258 8.808 7.868 7.368 7.058
1205.840 6.898 6.938 6.948 6.998 7.218 7.498 7.648 7.868 8.208 9.118
1225.133 10.268 11.288 12.528 13.788 14.878 15.788 16.528 16.848 16.378 15.148
1244.426 13.648 11.898 9.978 8.198 6.658 5.348 4.378 3.838 3.508 3.298
1263.720 3.128 3.118 3.218 3.258 3.358 3.468 3.618 3.708 3.688 3.698
1283.013 3.758 3.718 3.588 3.488 3.438 3.388 3.348 3.318 3.318 3.408
1302.307 3.508 3.628 3.778 3.928 4.108 4.298 4.398 4.478 4.588 4.738
1321.600 4.968 5.358 5.818 6.258 6.748 7.278 7.858 8.388 8.858 9.328
1340.894 9.868 10.688 11.978 13.838 16.388 19.798 24.068 29.298 35.458 42.278
1360.187 49.288 56.058 62.158 66.928 69.698 69.818 66.918 61.288 54.118 46.828
1379.480 39.658 32.718 26.308 20.958 16.868 13.938 12.008 10.718 9.668 8.818
1398.774 8.118 7.478 6.908 6.328 5.728 5.138 4.598 4.138 3.788 3.438
1418.067 3.128 2.958 2.798 2.688 2.708 2.828 3.038 3.378 3.948 4.758
1437.361 5.758 6.798 7.818 8.738 9.528 10.258 10.838 10.568 9.298 8.078
1456.654 7.058 5.968 4.868 3.828 3.078 2.618 2.398 2.358 2.418 2.518
1475.948 2.638 2.708 2.738 2.748 2.698 2.578 2.408 2.178 1.958 1.748
1495.241 1.5765 1.4947 1.4251 1.3492 1.3185 1.2899 1.2532 1.2395 1.2375 1.2002
1514.534 1.1299 1.1019 1.0768 1.064 1.0898 1.0684 1.0574 1.0488 1.0029 0.9453
1533.828 0.9233 0.9329 0.9101 0.893 0.8841 0.8601 0.8524 0.8812 0.9148 0.9087
1553.121 0.8975 0.9024 0.946 1.0011 0.9818 0.9662 0.9902 1.0567 1.1196 1.1866
1572.415 1.311 1.451 1.6098 1.758 1.868 1.988 2.038 2.058 2.058 1.978
1591.708 1.818 1.6605 1.5167 1.3805 1.2823 1.1547 1.0609 1.0761 1.0805 1.0364
1611.002 0.9915 0.9607 0.9289 0.8916 0.8583 0.8032 0.75808 0.7319 0.74777 0.7896
1630.295 0.7866 0.76355 0.71215 0.7296 0.76002 0.74917 0.7437 0.76135 0.76525 0.7614
1649.588 0.7786 0.8032 0.8118 0.8572 0.916 0.9281 0.965 1.0065 1.0426 1.0727
1668.882 1.0492 1.0428 1.0823 1.0759 1.0722 1.0701 1.0472 1.0596 1.051 1.0376
1688.175 1.029 1.0173 1.013 0.9608 0.9572 0.9194 0.8417 0.839 0.8224 0.7838
1707.469 0.74623 0.72852 0.75229 0.74649 0.73886 0.74595 0.73406 0.748 0.76881 0.7844
1726.762 0.77075 0.76634 0.77679 0.7833 0.8185 0.7971 0.76304 0.77233 0.7859 0.8456
1746.056 0.8982 0.8934 0.9438 1.0153 1.009 1.0068 1.0696 1.0752 1.0791 1.1249
1765.349 1.1461 1.2011 1.2359 1.2325 1.2249 1.2124 1.1869 1.1755 1.1358 1.068
1784.642 1.0261 1.0096 1.0016 1.0264 1.0921 1.1557 1.2097 1.3035 1.4293 1.5377
1803.936 1.6256 1.6656 1.708 1.718 1.678 1.5857 1.5005 1.4396 1.3235 1.1898
1823.229 1.1079 1.0694 1.0103 0.9708 0.9364 0.9493 0.9798 0.9656 0.938 0.8987
1842.523 0.8745 0.8533 0.8464 0.8493 0.8567 0.8699 0.8623 0.8584 0.8832 0.8925
1861.816 0.8344 0.8238 0.846 0.798 0.7897 0.8047 0.8414 0.9149 0.943 0.9701
1881.110 1.009 1.0433 1.0907 1.1394 1.2058 1.2918 1.3575 1.4304 1.4664 1.499
1900.403 1.538 1.5449 1.5439 1.5575 1.5631 1.5186 1.475 1.4432 1.3951 1.3307
1919.696 1.2855 1.2411 1.1925 1.1313 1.0699 1.0082 0.9258 0.8948 0.8681 0.8406
1938.990 0.8465 0.8375 0.8601 0.8982 0.9834 1.0963 1.1551 1.2107 1.2867 1.3521
1958.283 1.4223 1.4405 1.4336 1.4524 1.4401 1.4167 1.4016 1.3599 1.3495 1.353
1977.577 1.3104 1.2906 1.2466 1.1682 1.0876 0.999 0.9396 0.8648 0.7787 0.74874
1996.870 0.72282 0.66979 0.6346 0.6644 0.68949 0.70108 0.70479 0.69736 0.69332 0.677912
2016.164 0.6412 0.648 0.685359 0.683514 0.6563 0.6332 0.6484 0.667 0.6355 0.6284
2035.457 0.6408 0.6184 0.6032 0.6092 0.6204 0.6038 0.576 0.545 0.553 0.575
2054.750 0.575 0.576 0.569 0.555 0.548 0.565 0.6078 0.5951 0.5814 0.591
2074.044 0.556 0.559 0.561 0.544 0.551 0.563 0.5996 0.617 0.6016 0.572
2093.337 0.565 0.6038 0.6348 0.6368 0.6161 0.603 0.6426 0.67516 0.6627 0.679194
2112.631 0.69256 0.6384 0.6215 0.6535 0.6618 0.6125 0.5869 0.6179 0.6207 0.6059
2131.924 0.557 0.515 0.526 0.541 0.501 0.513 0.577 0.5834 0.5975 0.6245
2151.218 0.6221 0.6258 0.6261 0.6491 0.69644 0.71905 0.729 0.72938 0.71347 0.70244
2170.511 0.72633 0.72507 0.73463 0.72254 0.67046 0.6694 0.6576 0.67659 0.66829 0.6229
2189.804 0.5995 0.5976 0.5972 0.5845 0.568 0.573 0.5946 0.6273 0.6169 0.573
2209.098 0.6052 0.6043 0.6124 0.6455 0.635 0.64 0.6661 0.67525 0.666 0.6655
2228.391 0.682082 0.72246 0.7835 0.8215 0.8393 0.8812 0.9398 0.9681 1.0119 1.0573
2247.685 1.1271 1.2035 1.2284 1.2715 1.2971 1.297 1.2706 1.2334 1.1887 1.1333
2266.978 1.0868 1.0164 0.9551 0.8947 0.8545 0.8481 0.8131 0.7834 0.79 0.77714
2286.272 0.73849 0.74798 0.75636 0.7148 0.70157 0.73033 0.69358 0.6667 0.70723 0.683081
2305.565 0.67156 0.69541 0.71641 0.74825 0.77583 0.8066 0.8692 0.9371 0.9597 0.9683
2324.858 0.9709 0.9738 0.9936 0.9919 0.958 0.9379 0.9011 0.8762 0.873 0.8156
2344.152 0.7983 0.8043 0.7797 0.7669 0.7226 0.687202 0.69219 0.67515 0.6553 0.6581
2363.445 0.651 0.67503 0.6924 0.679991 0.683007 0.6605 0.6189 0.6284 0.6453 0.6136
2382.739 0.6084 0.6217 0.6365 0.6371 0.6037 0.608 0.617 0.5967 0.5981 0.6002
2402.032 0.5844 0.5892 0.5871 0.562 0.571 0.542 0.552 0.5883 0.5908 0.582
2421.326 0.548 0.57 0.604 0.6091 0.6101 0.6017 0.6222 0.6578 0.6657 0.687386
2440.619 0.71961 0.75274 0.76819 0.76647 0.7971 0.8336 0.8381 0.8344 0.8459 0.8718
2459.912 0.8652 0.8593 0.8647 0.8357 0.8383 0.8284 0.7965 0.75996 0.73183 0.74359
2479.206 0.72487 0.69421 0.6573 0.6689 0.68939 0.6451 0.6327 0.6492 0.6677 0.69926
2498.499 0.71458 0.71932 0.74636 0.75702 0.75951 0.77374 0.7949 0.8078 0.7869 0.77197
2517.793 0.8165 0.8019 0.72386 0.67676 0.69936 0.71267 0.662 0.637 0.6513 0.73639
2537.086 0.76629 0.77362 0.7722 0.7124 0.71446 0.726 0.69726 0.70015 0.70231 0.66944
2556.380 0.66945 0.6419 0.5951 0.6046 0.6122 0.6179 0.6564 0.70952 0.72587 0.70278
2575.673 0.70823 0.70981 0.682099 0.668 0.67588 0.680003 0.6915 0.687315 0.6448 0.6372
2594.966 0.680756 0.680276 0.6297 0.67351 0.73375 0.67614 0.6586 0.6328 0.5906 0.6399
2614.260 0.6626 0.6177 0.576 0.575 0.5787 0.6069 0.6015 0.561 0.519 0.536
2633.553 0.556 0.541 0.538 0.534 0.526 0.512 0.535 0.558 0.55 0.53
2652.847 0.518 0.495 0.5 0.5857 0.6614 0.6653 0.6431 0.67339 0.6554 0.6034
2672.140 0.6349 0.6321 0.564 0.518 0.483 0.455 0.468 0.445 0.416 0.41
2691.434 0.427 0.389 0.386 0.412 0.326 0.317 0.364 0.363 0.396 0.379
2710.727 0.327 0.307 0.32 0.359 0.397 0.394 0.384 0.464 0.457 0.431
2730.020 0.463 0.471 0.468 0.444 0.425 0.424 0.454 0.457 0.411 0.404
2749.314 0.391 0.389 0.451 0.438 0.356 0.371 0.45 0.401 0.392 0.426
2768.607 0.388 0.354 0.357 0.433 0.429 0.372 0.361 0.339 0.403 0.417
2787.901 0.306 0.293 0.296 0.267 0.252 0.223 0.229 0.321 0.358 0.273
2807.194 0.247 0.25 0.25 0.269 0.287 0.294 0.274 0.275 0.234 0.189
2826.488 0.226 0.25 0.253 0.261 0.232 0.233 0.229 0.226 0.32 0.328
2845.781 0.259 0.199 0.182 0.201 0.256 0.279 0.241 0.219 0.231 0.296
2865.074 0.31 0.302 0.248 0.219 0.313 0.433 0.417 0.311 0.282 0.305
2884.368 0.314 0.322 0.374 0.416 0.438 0.401 0.36 0.371 0.407 0.419
2903.661 0.378 0.296 0.217 0.222 0.264 0.304 0.305 0.33 0.338 0.324
2922.955 0.321 0.385 0.44 0.488 0.6152 0.72555 0.8421 1.0444 1.251 1.5164
2942.248 1.748 1.838 1.948 1.918 1.788 1.5959 1.4259 1.1475 0.9004 0.73214
2961.542 0.484 0.41 0.422 0.427 0.382 0.39 0.483 0.412 0.348 0.393
2980.835 0.413 0.528 0.6608 0.812 0.9255 0.9438 0.9747 1.037 1.1106 1.0882
3000.128 1.0059 0.9342 0.9673 0.9984 0.8887 0.76095 0.8109 0.8682 0.8665 0.8545
3019.422 0.77621 0.8088 0.9255 0.9553 0.9143 0.9785 1.0098 0.8628 0.8667 0.9576
3038.715 0.8951 0.9196 0.9852 0.9599 0.9767 1.1073 1.2386 1.3597 1.6567 2.038
3058.009 2.478 2.898 3.368 4.108 5.008 5.898 6.878 7.888 8.458 8.648
3077.302 8.758 8.648 8.208 7.508 6.618 5.728 4.718 3.698 3.058 2.668
3096.596 2.298 2.018 1.748 1.3526 1.1269 1.0162 0.8105 0.67184 0.6263 0.484
3115.889 0.331 0.542 0.617 0.445 0.423 0.492 0.465 0.387 0.403 0.49
3135.182 0.487 0.32 0.28 0.348 0.43 0.435 0.35 0.33 0.351 0.28
3154.476 0.283 0.471 0.545 0.417 0.376 0.524 0.533 0.435 0.454 0.477
3173.769 0.391 0.343 0.302 0.269 0.236 0.144 0.119 0.173 0.234 0.206
3193.063 0.218 0.165 0.134 0.256 0.334 0.269 0.308 0.479 0.432 0.333
3212.356 0.37 0.433 0.425 0.383 0.356 0.333 0.273 0.248 0.226 0.223
3231.650 0.164 0.154 0.129 0.074 0.274 0.304 0.215 0.185 0.158 0.19
3250.943 0.235 0.347 0.301 0.106 0.08 0.203 0.16 0.125 0.205 0.168
3270.236 0.156 0.162 0.144 0.152 0.162 0.205 0.221 0.193 0.17 0.17
3289.530 0.143 0.118 0.24 0.235 0.033 0 0.151 0.245 0.231 0.196
3308.823 0.247 0.289 0.235 0.166 0.137 0.064 0.028 0.163 0.216 0.12
3328.117 0.101 0.159 0.206 0.193 0.128 0.08 0.124 0.185 0.253 0.223
3347.410 0.154 0.166 0.218 0.268 0.227 0.251 0.222 0.148 0.13 0.157
3366.704 0.174 0.113 0.191 0.244 0.237 0.313 0.315 0.235 0.229 0.339
3385.997 0.33 0.202 0.179 0.312 0.308 0.23 0.235 0.15 0.054 0.167
3405.290 0.266 0.21 0.261 0.245 0.222 0.26 0.225 0.209 0.383 0.366
3424.584 0.221 0.151 0.165 0.185 0.196 0.206 0.213 0.32 0.256 0.235
3443.877 0.283 0.265 0.234 0.34 0.391 0.255 0.241 0.252 0.218 0.221
3463.171 0.289 0.319 0.314 0.424 0.389 0.257 0.25 0.235 0.206 0.278
3482.464 0.388 0.41 0.318 0.279 0.414 0.387 0.35 0.448 0.382 0.314
3501.758 0.301 0.28 0.311 0.292 0.29 0.416 0.458 0.461 0.459 0.456
3521.051 0.418 0.347 0.348 0.305 0.247 0.345 0.379 0.353 0.319 0.266
3540.344 0.293 0.336 0.403 0.346 0.273 0.248 0.326 0.408 0.428 0.451
3559.638 0.439 0.401 0.385 0.466 0.48 0.423 0.322 0.308 0.393 0.379
3578.931 0.461 0.501 0.485 0.399 0.294 0.372 0.343 0.324 0.369 0.319
3598.225 0.266 0.298 0.377 0.425 0.397 0.415 0.349 0.322 0.385 0.403
3617.518 0.48 0.401 0.337 0.344 0.4 0.484 0.451 0.398 0.31 0.382
3636.812 0.456 0.416 0.45 0.383 0.413 0.503 0.416 0.378 0.411 0.425
3656.105 0.472 0.463 0.369 0.395 0.399 0.42 0.399 0.372 0.45 0.363
3675.398 0.334 0.401 0.413 0.433 0.449 0.562 0.5847 0.519 0.566 0.485
3694.692 0.383 0.409 0.459 0.547 0.6442 0.6094 0.523 0.463 0.516 0.6163
3713.985 0.553 0.454 0.454 0.442 0.389 0.323 0.41 0.495 0.451 0.385
3733.279 0.292 0.307 0.339 0.363 0.435 0.443 0.365 0.438 0.47 0.418
3752.572 0.449 0.472 0.389 0.396 0.458 0.427 0.442 0.419 0.436 0.427
3771.866 0.405 0.488 0.465 0.374 0.408 0.44 0.423 0.461 0.463 0.429
3791.159 0.392 0.404 0.418 0.362 0.333 0.405 0.543 0.502 0.441 0.461
3810.452 0.463 0.419 0.343 0.375 0.365 0.376 0.403 0.314 0.339 0.458
3829.746 0.415 0.343 0.338 0.309 0.297 0.35 0.492 0.542 0.458 0.376
3849.039 0.371 0.444 0.516 0.533 0.477 0.488 0.522 0.454 0.357 0.45
3868.333 0.5785 0.562 0.498 0.406 0.43 0.482 0.44 0.434 0.387 0.408
3887.626 0.421 0.403 0.51 0.465 0.425 0.407 0.315 0.317 0.384 0.38
3906.920 0.361 0.366 0.312 0.317 0.407 0.424 0.389 0.404 0.396 0.416
3926.213 0.403 0.405 0.443 0.423 0.446 0.485 0.46 0.383 0.384 0.451
3945.506 0.548 0.557 0.48 0.431 0.372 0.406 0.407 0.315 0.375 0.36
3964.800 0.267 0.275 0.392 0.504 0.456 0.357 0.313 0.323 0.378 0.41
3984.093 0.471 0.488 0.457 0.477 0.4 0.424 0.497 0.438 0.394
##END=
