##TITLE=cis-4,4-Dimethyl-2-pentene
##JCAMP-DX=4.24
##DATA TYPE=INFRARED SPECTRUM
##ORIGIN=NIST Mass Spectrometry Data Center
##OWNER=NIST Standard Reference Data Program
Collection (C) 2018 copyright by the U.S. Secretary of Commerce
on behalf of the United States of America. All rights reserved.
##CAS REGISTRY NO=762-63-0
##MOLFORM=C 7 H 14
##$NIST SOURCE=MSDC-IR
##SPECTROMETER/DATA SYSTEM=HP-GC/MS/IRD
##STATE=gas
##XUNITS=1/CM
##YUNITS=ABSORBANCE
##XFACTOR=1.0
##YFACTOR=0.000005300
##DELTAX=4.0
##FIRSTX=550.0
##LASTX=3846.0
##FIRSTY=0.000154
##MAXX=3846
##MINX=550
##MAXY=0.053
##MINY=0
##NPOINTS=825
##XYDATA=(X++(Y..Y))
550.0 29 23 5 5 2 19 51 54 40 54
590.0 78 63 67 80 106 132 151 170 176 175
630.0 188 195 170 151 143 116 105 134 165 186
670.0 235 316 412 540 719 906 1094 1300 1498 1595
710.0 1576 1522 1440 1330 1202 1049 881 749 627 501
750.0 389 301 235 180 142 134 126 106 89 85
790.0 95 90 86 77 62 67 70 62 61 60
830.0 52 61 78 82 84 86 96 102 107 121
870.0 132 134 127 119 106 104 108 115 128 139
910.0 157 185 216 250 301 365 440 522 576 608
950.0 612 586 537 469 389 309 247 207 176 157
990.0 153 151 157 167 182 189 195 209 213 209
1030.0 207 198 181 167 157 141 128 132 129 118
1070.0 111 111 113 107 108 103 95 91 85 84
1110.0 77 77 75 72 72 70 73 78 84 95
1150.0 103 103 121 143 167 208 271 354 463 603
1190.0 774 961 1132 1246 1263 1164 987 801 669 587
1230.0 530 471 410 359 299 241 199 163 131 114
1270.0 104 99 99 98 96 92 94 96 96 102
1310.0 105 111 121 130 145 172 217 286 382 518
1350.0 683 865 1042 1238 1394 1395 1303 1202 1076 922
1390.0 785 687 646 655 669 674 676 671 661 637
1430.0 600 584 606 660 753 869 978 1087 1186 1280
1470.0 1340 1326 1270 1164 1030 906 764 611 479 384
1510.0 324 289 260 242 227 209 193 181 170 163
1550.0 154 143 136 127 122 113 105 98 93 91
1590.0 89 89 90 95 100 105 114 121 131 153
1630.0 184 215 244 274 306 327 335 339 334 315
1670.0 285 255 229 196 164 140 123 110 100 96
1710.0 92 91 87 84 84 83 81 78 75 71
1750.0 66 62 56 48 42 36 33 38 37 31
1790.0 29 31 33 31 26 28 27 27 28 28
1830.0 27 27 26 24 24 22 23 23 20 23
1870.0 24 24 26 21 18 21 22 24 24 28
1910.0 28 27 27 28 28 27 23 22 24 25
1950.0 25 27 28 26 29 37 40 41 41 43
1990.0 43 37 37 34 28 24 20 21 18 16
2030.0 15 13 7 5 6 9 11 8 8 8
2070.0 5 5 6 6 9 8 10 10 6 8
2110.0 7 11 13 9 3 0 3 4 5 7
2150.0 6 7 7 3 4 8 4 1 4 2
2190.0 2 7 4 4 6 6 7 5 4 5
2230.0 8 9 9 9 7 5 10 12 10 10
2270.0 12 12 12 16 19 21 22 22 25 23
2310.0 15 13 13 14 17 15 15 14 13 15
2350.0 18 20 19 20 21 21 17 15 20 23
2390.0 24 27 28 22 16 16 24 23 18 18
2430.0 18 17 19 16 15 18 20 17 15 15
2470.0 11 16 21 19 18 18 19 20 20 19
2510.0 21 23 23 22 18 16 20 22 25 26
2550.0 30 39 42 44 46 42 41 42 42 42
2590.0 38 35 37 39 40 39 41 46 46 42
2630.0 42 41 43 50 53 53 61 65 64 68
2670.0 70 77 82 84 91 94 99 105 114 128
2710.0 145 157 162 168 174 175 170 167 161 157
2750.0 163 171 173 176 180 190 201 211 221 227
2790.0 240 259 272 292 312 328 348 371 395 427
2830.0 476 532 602 694 827 1009 1247 1549 1917 2307
2870.0 2668 2970 3185 3304 3339 3336 3334 3375 3478 3619
2910.0 3784 3972 4163 4351 4534 4725 4989 5408 6004 6744
2950.0 7553 8392 9228 9851 10000 9574 8753 7754 6601 5424
2990.0 4439 3721 3255 3002 2907 2899 2902 2805 2623 2415
3030.0 2160 1864 1575 1318 1104 935 806 707 630 565
3070.0 517 475 435 393 353 321 294 278 263 238
3110.0 225 215 205 195 186 182 182 176 170 169
3150.0 168 165 165 164 158 157 159 157 167 176
3190.0 165 158 156 153 153 149 144 143 137 124
3230.0 119 119 115 111 108 96 94 94 79 69
3270.0 72 73 71 69 68 68 58 59 61 56
3310.0 55 53 54 52 55 61 62 60 57 59
3350.0 68 74 72 64 57 60 61 52 43 41
3390.0 44 39 36 33 29 26 29 27 21 25
3430.0 34 33 33 32 28 20 18 19 13 10
3470.0 14 23 23 12 12 22 17 5 5 6
3510.0 2 9 12 7 12 17 17 16 9 9
3550.0 11 4 7 14 15 12 20 26 21 24
3590.0 28 21 19 17 10 10 18 19 17 19
3630.0 22 14 12 15 18 21 22 22 16 13
3670.0 14 19 20 21 29 28 28 29 25 22
3710.0 23 28 29 33 41 34 22 19 23 36
3750.0 35 20 18 24 21 16 19 17 17 29
3790.0 32 23 24 26 15 16 20 24 26 18
3830.0 19 26 29 22 20
##END=
