##TITLE=5-Methyl-1,4-hexadiene
##JCAMP-DX=4.24
##DATA TYPE=INFRARED SPECTRUM
##ORIGIN=NIST Mass Spectrometry Data Center
##OWNER=NIST Standard Reference Data Program
Collection (C) 2018 copyright by the U.S. Secretary of Commerce
on behalf of the United States of America. All rights reserved.
##CAS REGISTRY NO=763-88-2
##MOLFORM=C 7 H 12
##$NIST SOURCE=MSDC-IR
##SPECTROMETER/DATA SYSTEM=HP-GC/MS/IRD
##STATE=gas
##XUNITS=1/CM
##YUNITS=ABSORBANCE
##XFACTOR=1.0
##YFACTOR=0.000002200
##DELTAX=4.0
##FIRSTX=550.0
##LASTX=3846.0
##FIRSTY=0.000592
##MAXX=3846
##MINX=550
##MAXY=0.022
##MINY=0
##NPOINTS=825
##XYDATA=(X++(Y..Y))
550.0 269 160 61 73 43 25 59 34 19 66
590.0 97 90 151 213 261 317 285 295 419 470
630.0 460 511 553 547 479 408 391 349 274 207
670.0 145 107 123 120 79 58 79 93 59 29
710.0 29 31 1 1 3 10 15 55 106 131
750.0 141 161 216 263 310 366 376 357 415 469
790.0 515 581 654 716 811 981 1052 1122 1182 1214
830.0 1229 1213 1174 1099 1024 960 916 857 830 863
870.0 911 1004 1151 1374 1715 2163 2734 3417 4138 4744
910.0 5031 4988 4643 4049 3400 2823 2380 2055 1795 1618
950.0 1497 1397 1358 1387 1448 1557 1724 1941 2147 2292
990.0 2345 2307 2191 1982 1717 1456 1240 1050 902 800
1030.0 723 649 608 569 531 536 549 543 515 504
1070.0 514 558 627 715 812 933 1083 1217 1322 1403
1110.0 1427 1392 1255 1084 914 765 628 496 416 369
1150.0 353 364 387 409 448 473 498 529 566 580
1190.0 567 546 512 504 465 426 432 449 477 492
1230.0 498 490 476 451 415 404 421 468 529 590
1270.0 653 685 697 704 685 621 540 499 489 476
1310.0 452 434 426 422 421 440 486 556 628 701
1350.0 804 909 1039 1214 1399 1605 1801 1934 2040 2096
1390.0 2039 1897 1724 1590 1525 1510 1536 1597 1695 1822
1430.0 1939 2053 2157 2213 2224 2169 2066 1922 1768 1600
1470.0 1425 1236 1059 922 808 726 642 568 522 516
1510.0 497 477 489 498 491 484 477 493 502 476
1550.0 470 486 487 457 437 428 415 403 390 399
1590.0 423 446 481 530 597 702 845 1055 1360 1753
1630.0 2127 2373 2449 2402 2252 1928 1476 1139 981 901
1670.0 823 730 626 539 421 314 253 230 206 167
1710.0 156 157 145 112 103 125 130 113 102 100
1750.0 97 93 97 100 101 97 88 84 93 106
1790.0 133 158 181 217 265 332 399 454 499 523
1830.0 507 471 420 352 278 220 185 158 132 108
1870.0 95 99 86 58 61 74 70 66 58 54
1910.0 52 51 44 42 52 56 51 45 55 67
1950.0 79 83 82 84 89 106 115 113 84 67
1990.0 79 67 51 43 45 51 39 28 25 18
2030.0 9 5 8 6 2 8 7 6 13 14
2070.0 17 18 16 17 10 5 9 11 6 0
2110.0 7 14 19 10 9 23 31 34 29 28
2150.0 40 38 28 31 29 31 27 21 29 33
2190.0 33 36 32 18 17 23 30 20 10 11
2230.0 2 4 11 8 11 9 1 6 13 10
2270.0 7 4 4 2 2 6 10 14 11 15
2310.0 21 14 15 23 23 27 31 30 24 20
2350.0 24 37 50 53 43 41 45 46 36 28
2390.0 34 31 28 31 32 31 40 37 25 20
2430.0 12 14 25 26 27 26 14 20 23 20
2470.0 22 27 28 22 19 13 13 26 31 21
2510.0 22 15 0 5 13 12 18 20 19 26
2550.0 38 41 23 13 7 8 23 32 23 4
2590.0 1 8 9 14 19 11 19 22 8 12
2630.0 14 12 13 15 4 15 37 36 20 24
2670.0 36 38 36 53 65 67 79 104 142 160
2710.0 175 209 234 248 301 377 416 443 465 463
2750.0 441 390 335 304 299 321 334 341 353 377
2790.0 428 483 556 628 700 787 903 1051 1215 1387
2830.0 1598 1839 2092 2388 2739 3144 3652 4220 4734 5182
2870.0 5543 5794 6004 6176 6313 6487 6725 7013 7356 7799
2910.0 8372 9045 9610 9919 10000 9857 9446 8748 7863 7094
2950.0 6592 6318 6292 6485 6833 7210 7517 7778 7910 7774
2990.0 7444 7014 6557 6119 5679 5246 4859 4488 4082 3684
3030.0 3359 3124 2958 2821 2720 2658 2616 2608 2638 2695
3070.0 2820 3068 3364 3465 3381 3258 3013 2567 2005 1494
3110.0 1161 961 821 707 615 527 448 400 360 306
3150.0 261 236 206 184 168 119 86 95 96 81
3190.0 69 67 63 54 58 60 58 69 57 45
3230.0 69 67 48 55 67 66 58 38 39 64
3270.0 58 26 23 37 29 35 31 30 29 24
3310.0 23 24 34 38 27 26 52 55 44 33
3350.0 27 26 26 32 25 32 48 34 38 54
3390.0 51 39 25 46 44 30 26 14 21 41
3430.0 57 42 38 34 52 61 40 36 34 43
3470.0 44 14 1 19 24 23 21 12 19 28
3510.0 35 47 35 31 52 49 34 20 26 22
3550.0 24 26 7 24 24 17 24 29 18 18
3590.0 35 23 27 44 38 51 55 35 26 35
3630.0 38 28 21 13 23 28 15 18 23 34
3670.0 63 72 45 24 32 33 26 20 33 50
3710.0 53 48 44 47 48 41 40 36 42 60
3750.0 77 57 18 49 62 38 25 21 23 45
3790.0 65 76 73 63 55 58 57 48 80 89
3830.0 47 38 77 81 61
##END=
