##TITLE=2-Ethoxycarbonylphenylisocyanate
##JCAMP-DX=4.24
##DATA TYPE=INFRARED SPECTRUM
##ORIGIN=EPA-IR VAPOR PHASE LIBRARY
##OWNER=SRD/NIST
Collection (C) 2018 copyright by the U.S. Secretary of Commerce
on behalf of the United States of America. All rights reserved.
##CAS REGISTRY NO=76393-16-3
##MOLFORM=C10 H9 N O3
##$NIST SOURCE=MSDC-IR
##STATE=gas
##XUNITS=1/CM
##YUNITS=ABSORBANCE
##XFACTOR=1.
##YFACTOR=0.001
##DELTAX=1.92898
##FIRSTX=549.8
##LASTX=4000.7
##FIRSTY=3.5642
##MAXX=4000.7
##MINX=549.759
##MAXY=0.408214
##MINY=0
##NPOINTS=1790
##XYDATA=(X++(Y..Y))
549.759 3.5642 3.7042 3.5542 3.5642 3.8542 4.0442 4.2742 4.7042 5.0542 5.4542
569.049 5.5442 5.8142 6.0742 6.2842 6.8142 7.6142 8.0342 8.4042 9.4842 10.5442
588.339 11.4742 12.7042 13.4642 14.0242 14.8042 14.9142 14.4942 14.2142 13.6142 12.5242
607.628 11.3242 10.2842 9.4142 8.4942 7.7242 7.3042 6.7042 6.2242 5.8342 5.4742
626.918 5.3942 5.3442 5.2142 4.8942 4.7742 4.7842 4.8042 4.9342 5.0342 5.1042
646.208 5.2642 5.3442 5.2842 5.2742 5.2142 5.0742 4.9642 4.5742 4.2142 4.1242
665.498 3.7842 3.2342 2.9442 2.7742 2.7342 2.7242 2.7942 3.1542 3.4542 3.7842
684.787 4.3342 5.0442 5.8842 6.4742 7.1142 8.1042 8.8742 9.1642 8.9242 8.2742
704.077 7.6242 7.1542 6.5642 5.8142 5.1642 4.6042 4.2542 4.0042 3.8042 3.6242
723.367 3.5342 3.8342 4.0142 4.1742 4.8142 5.7442 7.1242 9.5542 12.9442 17.4742
742.657 23.4842 29.9942 36.3642 43.1742 52.1142 62.1242 63.8942 54.3242 44.8442 39.2142
761.947 33.6742 27.3942 21.1242 16.0242 12.3742 10.0342 8.6442 7.7042 7.0142 6.5442
781.236 6.0642 5.4242 5.0642 5.0642 4.9342 4.7342 4.5642 4.3642 4.1042 3.6842
800.526 3.3842 3.2842 3.3142 3.0842 2.7342 2.5842 2.5342 2.4142 2.3242 2.5542
819.816 2.4342 2.3242 2.2942 2.2342 2.3042 2.3342 2.5342 2.5342 2.6342 2.9942
839.106 3.2642 3.4342 3.5442 4.0342 4.5642 4.8942 5.2842 5.5142 5.5842 5.6742
858.395 5.7342 5.7442 5.7942 5.7942 5.7642 5.8642 6.0442 5.7842 5.3142 4.8342
877.685 4.1442 3.6342 3.2142 2.7542 2.3042 1.9042 1.6742 1.4142 1.3242 1.1942
896.975 0.9899 0.8859 0.8847 0.8806 0.7718 0.7525 0.8581 0.9913 1.0313 1.1042
916.265 1.1442 1.1242 1.1942 1.2142 1.0311 0.9333 0.9043 0.9025 1.0942 1.3242
935.555 1.3542 1.4742 1.6142 1.6342 1.8442 2.2042 2.4642 2.5842 2.6642 2.5942
954.844 2.4742 2.3542 2.2642 2.1942 1.9642 1.7442 1.6342 1.5542 1.7542 1.9242
974.134 1.9542 1.9542 2.0542 2.3142 2.5842 2.8742 3.0242 3.1942 3.4342 3.8542
993.424 4.3142 4.9742 5.7242 6.3242 6.9542 7.7542 8.5142 8.9942 9.3942 9.8942
1012.714 10.2742 10.3542 10.3142 10.4242 10.4742 10.4742 10.5942 11.2542 12.5442 13.9442
1032.003 15.6142 17.1542 18.4742 19.7242 20.4742 21.0442 21.2342 20.4342 19.2142 18.3742
1051.293 18.3242 19.2742 21.4142 25.0942 30.4442 36.9642 44.8642 53.1642 60.5642 66.8642
1070.583 70.9342 72.3542 70.3642 65.6342 59.2542 51.1842 42.6142 34.9242 29.0442 25.4642
1089.873 23.3042 22.5142 22.7842 23.6142 24.3242 25.6842 28.2342 31.6342 36.3442 41.4542
1109.163 47.4142 53.7042 59.6642 65.9642 70.8042 73.4042 74.0742 72.8842 69.6742 64.4942
1128.452 58.7842 52.8042 47.4542 43.1642 39.5542 36.6142 34.1942 32.3042 30.3242 28.4042
1147.742 26.9142 25.7942 24.9342 24.8842 25.6142 26.0142 26.3142 26.6442 26.3742 25.6342
1167.032 24.6442 23.3342 21.5942 19.9042 18.8742 17.6942 16.5142 15.7842 14.7742 13.6942
1186.322 12.9742 12.3942 11.8742 11.2942 10.6042 10.4242 10.2942 10.4842 10.8642 10.4442
1205.611 10.5742 11.1342 11.5142 12.1242 12.8742 13.8142 14.8442 16.3642 18.0742 20.0742
1224.901 22.3742 25.0242 28.8442 33.7242 39.8542 47.2642 56.1942 66.5042 77.3742 87.9942
1244.191 97.7242 105.264 109.924 110.764 107.244 99.9342 89.6642 78.0342 66.9542 57.8742
1263.481 51.5342 48.8642 49.6542 52.9542 58.5242 65.8742 74.4642 84.0142 94.4042 104.724
1282.771 114.254 122.494 127.564 128.704 125.984 118.874 107.794 93.8842 78.9442 65.0042
1302.060 53.3042 44.1742 37.1342 31.5842 27.0542 23.3742 20.3142 17.7042 15.4842 13.6442
1321.350 12.1142 10.8742 9.8142 8.8542 8.0042 7.3342 6.7842 6.2542 5.8442 5.4842
1340.640 5.1842 5.0042 4.8342 4.7742 4.8342 4.9442 5.1342 5.4942 6.0942 6.9842
1359.930 8.2242 9.8042 11.5042 12.9842 14.0042 14.5642 14.5742 14.0542 13.2442 11.8842
1379.219 10.1442 8.7042 7.8242 7.3242 7.0242 6.8842 6.8142 6.7642 6.7642 6.7642
1398.509 6.7242 6.6842 6.6942 6.6942 6.6442 6.7042 6.9142 7.1742 7.5942 8.2142
1417.799 9.0942 10.1442 11.4442 12.8442 14.1442 15.1542 15.6942 15.8242 15.7342 15.3042
1437.089 14.4542 13.4842 12.4442 11.5742 11.0542 10.6742 10.4842 10.6042 10.8442 11.0542
1456.378 11.4042 11.9142 12.5042 13.1442 13.8142 14.3942 14.8142 15.0342 14.9442 14.6442
1475.668 14.2142 13.6342 12.9342 12.3242 11.9042 11.6942 11.7042 11.9242 12.3342 13.0642
1494.958 13.9842 15.0142 16.2942 17.7542 19.3942 21.1242 22.9442 24.9742 26.9242 28.6742
1514.248 30.2042 31.3942 32.0942 32.2542 31.7642 30.6242 28.9842 26.9042 24.4742 21.9642
1533.538 19.4342 16.9642 14.8642 13.0142 11.4142 10.1642 9.1942 8.4242 7.7742 7.3442
1552.827 7.2342 7.2942 7.4942 7.8642 8.5242 9.5042 10.6342 11.8242 13.1142 14.4342
1572.117 15.5642 16.4442 17.1842 17.7342 18.1442 18.4442 18.7542 19.2842 20.4342 22.3742
1591.407 24.9342 27.9742 31.3142 34.3242 36.4842 37.5342 37.2042 35.5042 32.6042 28.7942
1610.697 24.5142 20.1042 16.0742 12.6542 10.1642 8.5342 7.4342 6.6542 5.9542 5.3742
1629.986 4.9542 4.5242 4.1842 3.9542 3.7642 3.7142 3.5742 3.3642 3.2342 3.1642
1649.276 3.1942 3.2242 3.2042 3.1942 3.2342 3.2942 3.2942 3.3442 3.4642 3.5942
1668.566 3.7242 3.8342 4.0042 4.1442 4.3142 4.6042 4.9742 5.3842 5.8842 6.5142
1687.856 7.1442 7.8142 8.5642 9.4042 10.3542 11.4542 12.6442 13.8442 15.1642 16.8242
1707.146 18.7542 20.9842 23.6342 26.7842 30.6342 35.5042 41.6542 48.9542 57.7542 67.8642
1726.435 78.7142 89.5942 99.5142 107.514 112.944 115.244 114.234 110.264 103.514 94.0642
1745.725 83.0142 71.9042 61.9042 53.3942 46.5042 41.0442 36.5442 32.7042 29.3742 26.3942
1765.015 23.6742 21.0242 18.5442 16.3942 14.4042 12.6142 11.0542 9.7042 8.5942 7.6642
1784.305 6.9042 6.1942 5.5242 5.0042 4.6042 4.2642 3.9842 3.7542 3.5342 3.3242
1803.594 3.1942 3.1242 3.0242 2.9542 2.9242 2.9242 2.9542 2.9342 2.8642 2.7942
1822.884 2.7742 2.6842 2.5442 2.3942 2.2542 2.1542 2.0442 1.9742 1.9342 1.9342
1842.174 1.8842 1.8042 1.8242 1.8042 1.8042 1.7842 1.6942 1.6042 1.5542 1.4942
1861.464 1.4742 1.4542 1.4342 1.4542 1.4742 1.4742 1.4342 1.4542 1.4942 1.5242
1880.754 1.5942 1.6042 1.6242 1.6342 1.5842 1.6142 1.6442 1.6742 1.6842 1.6942
1900.043 1.7442 1.7442 1.7642 1.8542 1.8742 1.8842 1.9342 2.0242 2.1042 2.1442
1919.333 2.3742 2.5742 2.6042 2.6442 2.7242 2.7742 2.6742 2.5442 2.4142 2.3242
1938.623 2.2142 2.1042 2.0442 2.0342 2.1042 2.2242 2.3642 2.4442 2.4542 2.4142
1957.913 2.3142 2.1442 1.9042 1.7742 1.6742 1.5142 1.4042 1.3842 1.3242 1.2642
1977.202 1.2442 1.2042 1.2142 1.2342 1.1942 1.1942 1.2342 1.2042 1.1442 1.1342
1996.492 1.1042 1.0813 1.0842 1.1042 1.1242 1.0739 1.0474 1.0635 1.1042 1.1242
2015.782 1.0842 1.0942 1.1442 1.1742 1.2142 1.2542 1.3342 1.4242 1.4642 1.4642
2035.072 1.4242 1.4142 1.4942 1.4742 1.4342 1.4342 1.4742 1.5942 1.6842 1.6642
2054.362 1.6742 1.7342 1.8542 1.9242 1.8842 1.9342 2.0142 2.1042 2.2142 2.3142
2073.651 2.3742 2.3042 2.3442 2.4742 2.5542 2.6842 2.8042 2.8642 2.9042 3.0342
2092.941 3.1842 3.2942 3.4342 3.5742 3.6242 3.6242 3.7542 3.9342 4.0342 4.1842
2112.231 4.3942 4.5642 4.7342 4.8942 5.0742 5.2342 5.4442 5.6842 5.9042 6.0742
2131.521 6.1542 6.2542 6.4742 6.6842 6.7942 6.9842 7.2042 7.4442 7.8042 8.1742
2150.810 8.5242 8.9142 9.3642 9.8242 10.2042 10.6842 11.2442 11.7442 12.2642 12.8042
2170.100 13.3842 14.0342 14.6442 15.2542 15.9242 16.5342 17.2042 17.8642 18.4742 19.1142
2189.390 19.7942 20.4842 21.1242 21.8042 22.5842 23.4842 24.5242 25.6842 26.9842 28.4742
2208.680 30.0342 31.7142 33.5142 35.4242 37.4642 39.4642 41.5342 43.7142 45.9942 48.4042
2227.970 50.9542 53.7042 56.7942 60.2642 64.3242 69.1542 74.8042 81.5342 89.6442 99.3142
2247.259 110.744 124.174 139.904 158.034 178.384 200.794 224.874 249.894 274.924 299.244
2266.549 322.154 342.764 360.594 375.624 387.624 396.734 403.044 406.684 408.214 407.414
2285.839 403.734 397.064 387.254 373.874 357.384 338.054 316.364 293.104 268.694 244.304
2305.129 220.744 198.524 178.294 160.094 143.804 129.604 117.234 106.324 96.7542 88.3242
2324.418 80.8742 74.2442 68.3242 62.8542 57.8542 53.4142 49.3742 45.7542 42.5142 39.6342
2343.708 37.1042 34.9042 32.9542 31.1742 29.6342 28.3342 27.2342 26.2942 25.4742 24.7942
2362.998 24.2942 23.8742 23.5842 23.2742 22.9342 22.7042 22.4842 22.2142 21.9442 21.7042
2382.288 21.3342 20.9042 20.4442 19.9242 19.3142 18.6842 18.0342 17.3242 16.5142 15.7242
2401.578 14.9742 14.1942 13.4042 12.6142 11.8542 11.1442 10.4242 9.6842 9.0742 8.5342
2420.867 7.9342 7.4042 6.9242 6.4942 6.1042 5.6642 5.2442 4.9842 4.7542 4.4542
2440.157 4.1442 3.8742 3.6842 3.4742 3.2942 3.1742 3.0342 2.9142 2.8442 2.7442
2459.447 2.6742 2.6142 2.4642 2.3342 2.2942 2.2542 2.2542 2.2742 2.1642 2.0442
2478.737 2.0042 1.9842 1.8442 1.7842 1.7742 1.7242 1.7042 1.6642 1.5642 1.4742
2498.026 1.4642 1.3342 1.2642 1.3442 1.3242 1.2442 1.1942 1.2042 1.2142 1.1842
2517.316 1.0841 1.0677 1.0705 0.9866 1.0372 1.1142 1.1042 1.0823 1.0688 1.069
2536.606 1.0942 1.0741 1.024 0.9772 0.9709 1.0354 1.0659 0.9803 0.9958 1.0174
2555.896 1.0334 1.1642 1.1242 1.1142 1.1342 1.1342 1.1542 1.1642 1.2442 1.2742
2575.186 1.3542 1.3342 1.2442 1.2642 1.2942 1.2942 1.2742 1.2942 1.3642 1.4142
2594.475 1.3342 1.2742 1.2642 1.2642 1.2142 1.1442 1.1142 1.0942 1.0942 0.9546
2613.765 0.8755 0.9533 0.9336 0.9117 0.8986 0.8506 0.8309 0.8115 0.8338 0.8583
2633.055 0.8186 0.758 0.7216 0.7801 0.7844 0.7413 0.7334 0.7821 0.8332 0.8415
2652.345 0.9065 0.8835 0.8477 0.8557 0.834 0.7947 0.7251 0.7353 0.7723 0.7652
2671.634 0.7585 0.7188 0.7692 0.8076 0.7767 0.7755 0.7635 0.7386 0.734 0.7615
2690.924 0.7921 0.773 0.7713 0.7743 0.8459 0.8647 0.8086 0.8774 0.8945 0.9568
2710.214 0.9579 0.9218 0.9911 1.0023 1.0018 1.0317 1.0706 1.0787 1.0842 1.1542
2729.504 1.1642 1.1342 1.2742 1.3642 1.2942 1.2642 1.2742 1.3042 1.3142 1.3742
2748.794 1.4542 1.4642 1.4842 1.5242 1.5242 1.4542 1.4342 1.4442 1.4942 1.4642
2768.083 1.3042 1.3542 1.4142 1.4042 1.4642 1.4642 1.4342 1.4042 1.3842 1.2442
2787.373 1.2442 1.2642 1.1842 1.1342 1.2042 1.2342 1.1342 1.1042 1.0677 1.1042
2806.663 1.3142 1.4042 1.3842 1.3742 1.3742 1.4742 1.5742 1.6042 1.5142 1.4642
2825.953 1.4842 1.5642 1.5442 1.4842 1.5142 1.5042 1.5342 1.5342 1.6242 1.6542
2845.242 1.6942 1.7842 1.8142 1.8642 1.8542 1.9542 2.1642 2.2642 2.2842 2.4342
2864.532 2.5642 2.7042 2.9542 3.1342 3.2442 3.4642 3.7042 3.9842 4.4242 4.7642
2883.822 4.9842 5.1142 5.1842 5.3142 5.3342 5.3842 5.4142 5.3242 5.3542 5.5142
2903.112 5.7242 5.8742 5.9842 6.1842 6.3342 6.4642 6.5142 6.4542 6.4842 6.4042
2922.401 6.3342 6.4542 6.7042 6.8342 7.0442 7.5942 8.2142 9.0542 9.8942 10.6042
2941.691 11.3842 11.8842 12.0942 12.0042 11.6742 11.2642 10.5642 9.9742 9.6542 9.4642
2960.981 9.4942 9.8042 10.4042 11.2242 12.0542 12.9342 14.0942 15.2242 16.5642 18.3142
2980.271 20.0742 21.4142 22.5042 23.2442 23.3042 22.7942 21.7542 20.3342 18.6742 16.7642
2999.561 15.1542 14.0342 13.0342 12.2342 11.4542 10.7642 10.1542 9.5642 9.0742 8.4642
3018.850 7.8942 7.4142 6.9042 6.5342 6.1642 5.9042 5.6942 5.3942 5.2542 5.0842
3038.140 4.9642 4.9242 4.9742 5.0042 4.9642 5.1642 5.3942 5.5142 5.7942 6.2042
3057.430 6.8042 7.3742 7.6842 8.1342 8.7142 9.2542 9.7642 10.4242 11.1742 11.8042
3076.720 12.3142 12.4542 12.2442 12.0042 11.4742 10.5042 9.3142 8.0842 6.7542 5.6642
3096.009 4.9242 4.2242 3.7642 3.3842 3.1442 2.8642 2.4542 2.3242 2.1942 2.1242
3115.299 2.0242 1.9142 1.9142 1.7742 1.6842 1.7142 1.6542 1.4642 1.4042 1.4042
3134.589 1.5242 1.7042 1.6442 1.4642 1.3942 1.3342 1.3042 1.2342 1.1842 1.2142
3153.879 1.1742 1.0821 1.0001 1.0181 0.9385 0.8687 0.9141 0.8554 0.7822 0.7768
3173.169 0.8318 0.8291 0.8202 0.753 0.5711 0.5632 0.5834 0.5573 0.5673 0.4051
3192.458 0.4076 0.5268 0.4162 0.3838 0.4033 0.2984 0.2506 0.3067 0.2896 0.2819
3211.748 0.2478 0.2006 0.208 0.2758 0.3323 0.2452 0.17676 0.1786 0.089708 0.085842
3231.038 0.16618 0.2804 0.3332 0.2741 0.3195 0.2395 0.0366 0.0242 0.2338 0.2755
3250.328 0.10231 0.087139 0.1884 0.1946 0.2395 0.2836 0.2086 0.09811 0.0407 0.2443
3269.617 0.288 0.2701 0.2741 0.13085 0.10358 0.10991 0.11927 0.15709 0.2171 0.2218
3288.907 0.2671 0.2582 0.2809 0.4227 0.4029 0.3246 0.2902 0.2841 0.4045 0.5387
3308.197 0.5358 0.5147 0.5059 0.5746 0.6423 0.6617 0.6595 0.5987 0.5489 0.627
3327.487 0.7207 0.8254 0.8349 0.7545 0.899 1.0405 1.0102 0.9633 1.07 1.1442
3346.777 1.0236 1.0002 1.0842 1.2342 1.2942 1.1442 1.1942 1.4342 1.4042 1.1542
3366.066 1.2442 1.4542 1.3942 1.3442 1.3842 1.4442 1.4142 1.4042 1.4542 1.4742
3385.356 1.4942 1.4742 1.5942 1.7142 1.6642 1.6542 1.7042 1.7242 1.7942 1.8042
3404.646 1.7442 1.7642 1.9842 2.0642 1.9042 1.9342 2.1942 2.2942 2.1942 2.2642
3423.936 2.5042 2.5942 2.6342 2.7342 2.6642 2.6442 2.6842 2.6542 2.7542 2.6642
3443.225 2.5842 2.6542 2.5942 2.3842 2.3042 2.3442 2.2642 2.1342 2.0042 1.8042
3462.515 1.6342 1.6242 1.5542 1.3242 1.3142 1.3942 1.3042 1.2642 1.2042 1.1642
3481.805 1.2142 1.0652 0.8682 0.8786 0.9947 0.9977 0.829 0.7156 0.6564 0.6671
3501.095 0.6857 0.683 0.6729 0.6633 0.6578 0.5547 0.3526 0.352 0.5927 0.6387
3520.385 0.5184 0.5669 0.5611 0.5049 0.5675 0.5912 0.671 0.666 0.5544 0.503
3539.674 0.5067 0.5651 0.5113 0.3773 0.432 0.4308 0.3025 0.4282 0.4131 0.4556
3558.964 0.6396 0.5406 0.4921 0.5596 0.6002 0.6472 0.6159 0.4464 0.3292 0.4255
3578.254 0.5408 0.4752 0.5133 0.5813 0.4973 0.3772 0.4377 0.5907 0.5286 0.3759
3597.544 0.2757 0.3069 0.4533 0.4622 0.442 0.4614 0.5544 0.5128 0.2691 0.4158
3616.833 0.672 0.6633 0.6513 0.5382 0.5047 0.6558 0.5997 0.6207 0.7275 0.7323
3636.123 0.6697 0.7185 0.7516 0.7203 0.757 0.6115 0.644 0.914 0.9766 0.9695
3655.413 1.0103 1.1642 1.1742 1.0706 1.2142 1.1142 1.0842 1.3042 1.2642 1.2842
3674.703 1.4542 1.4242 1.4742 1.5542 1.6542 1.7442 1.7442 1.7242 1.8042 1.9542
3693.993 1.9542 1.9242 1.8642 1.8742 1.9442 1.9642 1.8842 1.8342 1.9342 1.9842
3713.282 2.0442 2.0342 1.9842 1.8642 1.7142 1.6642 1.6242 1.5242 1.5142 1.5142
3732.572 1.4542 1.4842 1.4742 1.5342 1.4742 1.4742 1.5842 1.4642 1.3942 1.4442
3751.862 1.4942 1.5642 1.5142 1.3742 1.3142 1.4642 1.5242 1.3042 1.2142 1.3842
3771.152 1.5142 1.4842 1.3242 1.2942 1.3342 1.4742 1.4942 1.2642 1.1742 1.3142
3790.441 1.3442 1.2742 1.3442 1.4142 1.4742 1.4842 1.5242 1.4742 1.3742 1.2342
3809.731 1.1942 1.3042 1.2242 1.1542 1.2042 1.1542 1.0752 0.9589 0.883 0.9636
3829.021 0.9262 0.9076 0.9572 0.8098 0.7751 0.8122 0.637 0.6547 0.7829 0.7899
3848.311 0.8707 0.8098 0.6357 0.5895 0.5639 0.6366 0.7239 0.7523 0.6299 0.5327
3867.601 0.4032 0.3591 0.4976 0.498 0.6046 0.633 0.5768 0.4912 0.4761 0.5423
3886.890 0.523 0.4688 0.4097 0.3535 0.2919 0.3456 0.4571 0.3352 0.1193 0.2526
3906.180 0.4459 0.4834 0.4196 0.245 0.2411 0.2843 0.3705 0.5469 0.4782 0.3786
3925.470 0.377 0.2891 0.34 0.4238 0.4141 0.3501 0.2519 0.2393 0.3021 0.3817
3944.760 0.4303 0.5054 0.2494 0.18354 0.3514 0.2709 0.3302 0.4074 0.4204 0.426
3964.049 0.4079 0.4 0.403 0.3454 0.3496 0.3245 0.2293 0.17885 0.12849 0.2252
3983.339 0.3582 0.3448 0.3309 0.3419 0.1844 0.12051 0.089854 0 0.2405 0.4126
##END=
