##TITLE=2-Hexyn-1-ol
##JCAMP-DX=4.24
##DATA TYPE=INFRARED SPECTRUM
##ORIGIN=NIST Mass Spectrometry Data Center
##OWNER=NIST Standard Reference Data Program
Collection (C) 2018 copyright by the U.S. Secretary of Commerce
on behalf of the United States of America. All rights reserved.
##CAS REGISTRY NO=764-60-3
##MOLFORM=C 6 H 10 O
##$NIST SOURCE=MSDC-IR
##SPECTROMETER/DATA SYSTEM=HP-GC/MS/IRD
##STATE=gas
##XUNITS=1/CM
##YUNITS=ABSORBANCE
##XFACTOR=1.0
##YFACTOR=0.000001500
##DELTAX=4.0
##FIRSTX=550.0
##LASTX=3846.0
##FIRSTY=0.000609
##MAXX=3846
##MINX=550
##MAXY=0.015
##MINY=0
##NPOINTS=825
##XYDATA=(X++(Y..Y))
550.0 406 293 202 169 154 161 135 121 105 120
590.0 108 53 58 80 41 62 69 33 56 51
630.0 34 20 17 71 89 30 16 50 85 97
670.0 103 115 128 144 171 233 300 294 269 274
710.0 313 316 303 301 293 284 270 257 248 253
750.0 213 216 235 190 196 216 187 189 194 187
790.0 207 222 221 188 175 196 197 188 176 182
830.0 181 177 170 173 182 198 226 245 263 280
870.0 318 341 358 396 415 420 420 432 435 441
910.0 468 489 510 544 597 661 744 865 993 1160
950.0 1362 1612 1916 2274 2670 3133 3657 4219 4805 5457
990.0 6157 6827 7392 7759 7901 7823 7578 7335 7188 7032
1030.0 6672 6065 5325 4418 3402 2591 2101 1809 1633 1505
1070.0 1366 1218 1112 1006 885 809 789 793 773 784
1110.0 849 933 1082 1356 1729 2067 2261 2289 2198 1895
1150.0 1451 1100 867 702 620 601 593 563 547 564
1190.0 581 606 624 648 703 751 811 869 896 935
1230.0 969 1000 1003 996 1008 1055 1108 1157 1239 1372
1270.0 1540 1672 1712 1686 1607 1449 1273 1166 1124 1144
1310.0 1232 1372 1593 1888 2207 2503 2721 2800 2756 2718
1350.0 2716 2757 2945 3277 3693 4152 4613 5022 5346 5525
1390.0 5526 5297 4859 4279 3651 3055 2551 2159 1862 1682
1430.0 1577 1507 1473 1462 1470 1460 1452 1447 1398 1307
1470.0 1195 1061 917 791 656 562 491 411 356 318
1510.0 281 246 216 189 166 160 159 150 141 144
1550.0 139 127 129 122 121 124 115 112 104 89
1590.0 86 70 60 65 66 66 64 68 66 57
1630.0 51 54 51 51 57 51 42 40 54 58
1670.0 64 72 60 60 63 64 74 73 58 44
1710.0 45 37 24 24 30 33 30 29 33 31
1750.0 26 26 21 19 23 24 13 0 2 2
1790.0 17 36 31 27 12 14 23 19 21 18
1830.0 17 18 15 18 21 21 17 17 24 22
1870.0 15 15 17 14 10 26 37 24 22 28
1910.0 32 37 30 27 36 48 56 61 72 76
1950.0 77 79 87 98 95 105 114 113 118 116
1990.0 119 130 136 139 129 126 118 107 109 104
2030.0 96 84 79 72 60 61 54 50 49 45
2070.0 42 40 40 44 42 36 27 28 35 37
2110.0 37 40 35 35 38 41 47 51 55 58
2150.0 53 73 95 98 116 132 130 140 165 192
2190.0 232 275 338 429 508 601 693 770 819 803
2230.0 729 631 517 408 323 285 272 275 294 327
2270.0 379 425 469 506 520 497 444 368 265 186
2310.0 133 99 95 90 79 69 69 70 67 57
2350.0 57 59 68 80 77 78 72 52 54 63
2390.0 54 48 44 54 67 63 53 67 67 57
2430.0 44 29 40 44 36 30 28 38 55 51
2470.0 38 28 22 19 20 31 30 14 14 23
2510.0 24 22 28 29 29 38 34 31 43 43
2550.0 48 55 53 45 38 43 49 52 62 70
2590.0 56 48 52 66 76 71 72 74 80 87
2630.0 78 74 80 93 111 121 138 139 145 153
2670.0 142 137 143 131 136 151 153 163 160 149
2710.0 156 172 171 178 184 181 194 217 235 253
2750.0 268 284 293 295 308 326 342 352 368 389
2790.0 405 429 463 492 523 567 620 684 773 869
2830.0 1000 1180 1392 1632 1879 2118 2359 2634 2965 3391
2870.0 3944 4547 5106 5512 5683 5686 5549 5377 5331 5435
2910.0 5690 6047 6430 6853 7349 7983 8764 9477 9904 10000
2950.0 9756 9201 8611 8332 8492 8769 8565 7945 7234 6180
2990.0 4766 3502 2630 2027 1588 1268 1039 881 752 644
3030.0 583 536 490 453 429 406 382 358 365 361
3070.0 337 311 278 262 274 262 229 221 229 217
3110.0 161 137 146 145 150 161 153 143 125 122
3150.0 137 119 94 87 100 115 112 99 107 104
3190.0 91 80 73 68 65 71 51 58 54 26
3230.0 33 54 54 30 25 24 17 27 35 17
3270.0 17 27 23 27 29 20 26 21 28 58
3310.0 49 27 33 26 32 46 52 63 54 46
3350.0 46 32 30 55 61 39 39 45 46 56
3390.0 53 47 51 58 51 57 76 69 83 84
3430.0 58 56 68 71 63 67 74 79 70 69
3470.0 71 74 76 76 95 103 86 82 101 122
3510.0 114 99 89 84 87 73 83 103 91 80
3550.0 87 104 128 112 95 106 86 80 112 126
3590.0 127 156 183 204 259 326 384 455 530 601
3630.0 670 747 845 931 1025 1122 1186 1223 1238 1218
3670.0 1173 1095 993 893 782 664 554 458 376 309
3710.0 250 208 179 152 139 150 149 137 151 126
3750.0 99 100 101 128 154 155 120 114 105 90
3790.0 110 129 124 103 97 90 78 89 101 122
3830.0 143 130 109 104 109
##END=
