##TITLE=cis-3-Octene
##JCAMP-DX=4.24
##DATA TYPE=INFRARED SPECTRUM
##ORIGIN=NIST Mass Spectrometry Data Center
##OWNER=NIST Standard Reference Data Program
Collection (C) 2018 copyright by the U.S. Secretary of Commerce
on behalf of the United States of America. All rights reserved.
##CAS REGISTRY NO=7642-15-1
##MOLFORM=C 8 H 16
##$NIST SOURCE=MSDC-IR
##SPECTROMETER/DATA SYSTEM=HP-GC/MS/IRD
##STATE=gas
##XUNITS=1/CM
##YUNITS=ABSORBANCE
##XFACTOR=1.0
##YFACTOR=0.000004300
##DELTAX=4.0
##FIRSTX=550.0
##LASTX=3846.0
##FIRSTY=0.000275
##MAXX=3846
##MINX=550
##MAXY=0.043
##MINY=0
##NPOINTS=825
##XYDATA=(X++(Y..Y))
550.0 64 40 39 50 57 78 89 116 159 148
590.0 135 110 90 92 69 56 52 65 68 76
630.0 86 96 105 125 167 193 219 255 300 332
670.0 373 455 544 637 734 819 894 940 952 925
710.0 872 808 725 633 557 491 408 349 315 287
750.0 267 257 252 247 236 214 200 171 125 89
790.0 59 41 32 25 12 8 20 29 31 38
830.0 61 80 111 152 194 227 258 300 339 367
870.0 387 408 421 409 386 359 329 288 243 206
910.0 173 138 102 83 71 46 37 38 27 24
950.0 23 19 17 15 25 30 26 35 53 64
990.0 66 67 74 78 66 51 44 42 42 46
1030.0 64 101 146 182 203 221 232 236 265 307
1070.0 339 351 335 299 248 202 162 131 109 93
1110.0 71 55 47 42 41 43 41 36 33 20
1150.0 9 11 10 0 3 13 11 9 11 18
1190.0 20 21 21 28 38 43 49 64 78 82
1230.0 92 96 102 117 132 149 183 224 253 272
1270.0 285 277 244 208 176 150 138 146 169 199
1310.0 239 272 305 337 361 379 383 365 347 314
1350.0 263 224 214 223 265 341 434 522 574 596
1390.0 590 544 504 482 459 434 398 362 361 394
1430.0 454 532 633 755 872 985 1078 1159 1204 1170
1470.0 1078 955 821 676 543 436 357 290 231 185
1510.0 158 139 116 105 103 95 83 69 56 58
1550.0 58 53 50 52 53 50 52 53 53 48
1590.0 51 56 51 53 61 65 69 78 83 90
1630.0 105 119 137 156 170 179 180 188 187 172
1670.0 156 144 134 122 110 101 90 75 64 64
1710.0 58 46 43 41 36 28 19 19 20 21
1750.0 16 14 12 16 15 12 11 11 11 10
1790.0 9 9 13 18 22 25 28 32 35 39
1830.0 45 46 46 41 38 37 35 29 24 22
1870.0 21 20 18 16 15 13 13 12 9 13
1910.0 15 15 13 13 18 16 18 19 16 18
1950.0 16 14 15 12 8 12 15 11 11 16
1990.0 15 15 18 17 15 18 23 25 29 31
2030.0 32 35 36 38 39 41 42 36 32 29
2070.0 24 24 25 24 19 16 16 17 19 19
2110.0 20 17 20 17 19 20 20 17 15 20
2150.0 22 22 21 19 23 23 22 26 30 31
2190.0 30 26 23 25 27 24 21 24 27 24
2230.0 27 27 24 21 23 22 18 21 26 25
2270.0 23 25 27 24 18 16 20 20 14 14
2310.0 11 8 10 7 10 12 14 16 17 18
2350.0 16 12 10 5 2 1 6 13 21 27
2390.0 29 30 30 27 28 32 32 36 41 35
2430.0 34 35 26 22 27 24 25 23 20 19
2470.0 20 19 20 25 29 29 33 37 38 38
2510.0 39 43 41 44 49 45 41 44 45 46
2550.0 49 51 51 51 53 54 56 54 51 55
2590.0 57 56 55 56 59 60 60 58 56 61
2630.0 64 67 71 74 78 83 88 93 98 105
2670.0 107 108 106 100 103 107 108 109 116 125
2710.0 126 133 141 147 152 160 173 183 191 200
2750.0 199 202 207 205 211 222 235 253 276 300
2790.0 326 352 381 415 448 483 530 589 663 754
2830.0 869 1019 1204 1428 1686 1988 2326 2704 3151 3657
2870.0 4154 4608 4919 4993 4900 4725 4508 4365 4382 4547
2910.0 4825 5202 5690 6279 6941 7629 8235 8614 8720 8667
2950.0 8604 8663 9010 9635 10000 9687 8895 7685 6125 4744
2990.0 3868 3409 3229 3233 3306 3330 3242 3035 2702 2270
3030.0 1823 1425 1104 865 712 620 557 515 489 465
3070.0 434 403 375 344 319 297 280 264 250 241
3110.0 222 208 199 189 189 185 177 171 168 158
3150.0 148 150 142 134 133 128 126 123 114 109
3190.0 111 108 99 86 86 85 79 69 64 60
3230.0 50 51 46 41 40 43 47 41 42 45
3270.0 45 47 45 42 44 46 45 44 42 43
3310.0 38 30 34 42 43 39 33 32 36 38
3350.0 33 28 26 30 33 27 26 27 25 20
3390.0 25 27 20 21 30 36 29 26 24 18
3430.0 20 27 28 25 22 20 10 9 14 18
3470.0 21 21 24 29 31 23 23 22 13 19
3510.0 23 17 20 24 19 17 21 19 15 13
3550.0 20 26 21 14 8 13 25 29 23 13
3590.0 10 17 23 24 16 11 14 12 19 19
3630.0 18 35 34 29 23 17 26 38 43 37
3670.0 30 26 28 31 26 26 35 34 33 40
3710.0 36 40 42 27 27 32 20 25 22 22
3750.0 33 38 39 35 40 44 44 44 44 51
3790.0 49 37 34 45 55 56 55 49 40 35
3830.0 37 40 42 38 34
##END=
