##TITLE=Lauryl vinyl ether
##JCAMP-DX=4.24
##DATA TYPE=INFRARED SPECTRUM
##ORIGIN=EPA-IR VAPOR PHASE LIBRARY
##OWNER=SRD/NIST
Collection (C) 2018 copyright by the U.S. Secretary of Commerce
on behalf of the United States of America. All rights reserved.
##CAS REGISTRY NO=765-14-0
##MOLFORM=C 14 H 28 O
##$NIST SOURCE=MSDC-IR
##STATE=gas
##XUNITS=1/CM
##YUNITS=ABSORBANCE
##XFACTOR=1.
##YFACTOR=0.001
##DELTAX=3.85796
##FIRSTX=501.5
##LASTX=4000.7
##FIRSTY=0
##MAXX=4000.7
##MINX=501.534
##MAXY=0.18301
##MINY=0
##NPOINTS=908
##XYDATA=(X++(Y..Y))
501.534 0 0.22 0.307 0.262 0.326 0.453 0.573 0.671 0.477 0.413
540.114 0.468 0.439 0.431 0.369 0.219 0.369 0.447 0.195 0.288 0.433
578.693 0.471 0.593 0.696 0.72 0.753 0.77 0.881 1.071 0.944 0.744
617.273 0.815 0.809 0.801 0.754 0.718 0.809 0.781 0.868 0.974 1.036
655.852 1.164 1.2389 1.20736 1.26548 1.326 1.4042 1.6305 1.8272 1.9974 2.3
694.432 2.56 2.76 2.99 3.2 3.54 3.92 4.12 4.14 4.11 4.05
733.011 3.8 3.6 3.59 3.42 3.32 3.39 3.39 3.39 3.46 3.61
771.591 3.76 3.95 4.32 4.65 5.06 5.66 6.42 7.38 8.55 10.13
810.170 11.86 13.05 13.1 12.45 11.75 11.34 11.22 10.97 10.42 9.65
848.750 8.78 7.93 7.2 6.61 6.23 5.99 5.83 5.75 5.76 5.82
887.330 5.85 5.9 5.9 5.91 5.98 6.03 6.04 6.11 6.26 6.38
925.909 6.6 7.01 7.53 8.16 8.63 8.78 8.86 9.18 9.77 10.28
964.489 10.44 10.21 9.94 9.89 9.97 10.1 10.34 10.62 10.96 11.28
1003.068 11.37 11.28 10.98 10.56 10.25 10.1 10.04 10.01 10 10.18
1041.648 10.37 10.58 11.03 11.72 12.66 13.92 15.58 17.53 19.29 20.55
1080.227 20.6 19.21 17.18 14.86 12.53 10.61 9.26 8.57 8.38 8.4
1118.807 8.87 9.63 10.43 11.31 12.38 13.66 15.23 17.02 19.01 21.16
1157.387 23.08 24.96 27.04 29.21 31.61 34.27 37.36 40.92 44.89 49.52
1195.966 54.5 58.36 59.06 54.91 46.23 35.82 26.83 20.55 16.43 13.61
1234.546 11.7 10.4 9.5 8.87 8.38 7.94 7.7 7.55 7.35 7.32
1273.125 7.39 7.48 7.5 7.53 7.73 8.04 8.47 9.25 10.59 12.58
1311.705 15.14 18.1 20.54 20.66 17.96 14.33 11.66 10.22 9.69 9.68
1350.284 9.97 10.41 10.91 11.69 12.92 14.16 14.7 14.26 12.93 11.03
1388.864 9.02 7.4 6.32 5.64 5.23 5.01 4.88 4.82 4.82 4.93
1427.443 5.28 5.9 6.79 7.94 9.28 10.78 12.43 14.09 15.54 16.31
1466.023 16.25 15.52 13.99 11.79 9.45 7.51 6.16 5.32 4.84 4.56
1504.603 4.4 4.26 4.12 4 3.95 3.93 3.95 3.98 3.99 3.98
1543.182 3.95 3.97 3.99 4.08 4.27 4.57 4.96 5.49 6.19 7.12
1581.762 8.36 10.04 12.24 15.08 18.72 23.18 28.46 33.79 36.71 35.61
1620.341 32.71 31.34 32.38 35.04 37.75 38.01 34.44 28.64 23.66 20
1658.921 17.02 14.1 11.42 9.31 7.86 6.8 5.91 5.09 4.37 3.81
1697.500 3.34 2.96 2.65 2.41 2.26 2.1336 2.0082 1.9273 1.8688 1.8176
1736.080 1.7782 1.7063 1.6524 1.6359 1.6297 1.6146 1.6221 1.6601 1.6595 1.6667
1774.659 1.687 1.7039 1.6591 1.6167 1.6013 1.5734 1.5672 1.5548 1.536 1.5025
1813.239 1.5029 1.5064 1.517 1.5252 1.5008 1.4963 1.5104 1.5395 1.5493 1.5763
1851.819 1.6458 1.684 1.7351 1.7929 1.8417 1.9381 2.002 2.0212 1.9413 1.8414
1890.398 1.8173 1.7821 1.7701 1.803 1.8289 1.8277 1.8444 1.8454 1.8119 1.804
1928.978 1.7639 1.7291 1.7329 1.7165 1.7163 1.7231 1.7055 1.6677 1.6176 1.5909
1967.557 1.5982 1.5838 1.5626 1.5535 1.5523 1.5627 1.5567 1.5585 1.5671 1.5855
2006.137 1.619 1.6201 1.6195 1.6529 1.6953 1.7168 1.7312 1.7485 1.7473 1.7375
2044.716 1.7413 1.7593 1.7732 1.7603 1.7379 1.7492 1.7501 1.7345 1.7335 1.7264
2083.296 1.7393 1.7536 1.7732 1.7838 1.7588 1.7631 1.7551 1.7313 1.7379 1.7458
2121.875 1.7679 1.7544 1.7272 1.7363 1.7462 1.7784 1.7819 1.7387 1.7092 1.6969
2160.455 1.6953 1.6564 1.6375 1.6657 1.6579 1.6149 1.5939 1.58 1.584 1.5652
2199.035 1.536 1.5375 1.5064 1.4765 1.473 1.4912 1.494 1.4688 1.442 1.4455
2237.614 1.441 1.4176 1.4092 1.4351 1.4577 1.4582 1.4546 1.4636 1.4601 1.4527
2276.194 1.4746 1.4621 1.4603 1.488 1.4956 1.5048 1.5111 1.5236 1.547 1.5575
2314.773 1.5252 1.5194 1.5657 1.5681 1.5523 1.5715 1.5751 1.6242 1.6656 1.6189
2353.353 1.5946 1.61 1.6305 1.6471 1.68 1.6435 1.6101 1.6254 1.6038 1.5525
2391.932 1.5646 1.6072 1.5827 1.5441 1.5544 1.5633 1.5464 1.5326 1.5341 1.5411
2430.512 1.523 1.5121 1.5087 1.4763 1.4601 1.4718 1.4682 1.5034 1.5242 1.5061
2469.092 1.4951 1.4973 1.5202 1.5466 1.552 1.5676 1.6032 1.6499 1.7078 1.6943
2507.671 1.6822 1.6969 1.7253 1.7875 1.8095 1.8502 1.875 1.8394 1.8435 1.8671
2546.251 1.8581 1.8546 1.8854 1.8897 1.8624 1.8618 1.9263 2.0216 2.018 1.9991
2584.830 2.0369 2.0597 2.0809 2.0809 2.0736 2.1433 2.2 2.24 2.29 2.33
2623.410 2.33 2.36 2.42 2.45 2.51 2.54 2.54 2.57 2.63 2.73
2661.989 2.85 2.94 2.98 3.03 3.09 3.13 3.17 3.17 3.17 3.19
2700.569 3.19 3.13 3.11 3.13 3.18 3.28 3.35 3.45 3.52 3.55
2739.148 3.63 3.72 3.78 3.81 3.87 3.94 4 4.1 4.24 4.39
2777.728 4.57 4.8 5.07 5.4 5.75 6.15 6.57 7.03 7.54 8.16
2816.308 8.93 9.78 10.73 11.89 13.34 15.31 18.13 22.31 28.63 37.98
2854.887 50.2 62.63 70.76 72.07 68.07 62.1 56.73 52.63 49.44 47.28
2893.467 47.12 49.64 54.77 62.42 72.3 84.38 99.83 120.18 145.17 169.21
2932.046 183.01 181.51 167.08 145.69 122.84 102.53 86.9 76.42 69.85 64.22
2970.626 56.71 46.73 36.65 28.75 23.1 19.1 16.2 14.01 12.36 11.11
3009.205 10.17 9.41 8.83 8.45 8.13 7.67 7.15 6.76 6.47 6.33
3047.785 6.34 6.29 6.15 5.91 5.55 5.17 4.93 4.83 4.72 4.64
3086.364 4.45 4.19 4.03 4.01 4.06 4.18 4.46 4.87 5.58 6.4
3124.944 6.69 6.02 4.86 3.89 3.25 2.89 2.67 2.56 2.48 2.38
3163.524 2.29 2.23 2.1443 2.0344 1.9889 2.0213 2.0095 1.9621 1.9579 1.9075
3202.103 1.8327 1.7876 1.7721 1.6868 1.6391 1.6906 1.6561 1.5731 1.5317 1.5087
3240.683 1.4707 1.5074 1.5558 1.4855 1.4344 1.4654 1.5494 1.5925 1.5327 1.5236
3279.262 1.5106 1.4572 1.439 1.4346 1.4522 1.404 1.3523 1.3731 1.3591 1.3053
3317.842 1.3492 1.4308 1.4518 1.373 1.26626 1.23524 1.23786 1.27624 1.27918 1.25781
3356.421 1.23208 1.26574 1.3466 1.3225 1.28778 1.28431 1.26392 1.2941 1.28227 1.26189
3395.001 1.351 1.4036 1.3913 1.26669 1.20841 1.24261 1.25219 1.2522 1.23751 1.26869
3433.580 1.26126 1.23779 1.27741 1.22734 1.1223 1.1627 1.18565 1.1633 1.1499 1.21401
3472.160 1.25558 1.20122 1.22827 1.1666 1.048 1.047 1.1179 1.23506 1.19869 1.067
3510.740 1.1076 1.1615 1.1181 1.1043 1.0976 1.138 1.20929 1.2199 1.20537 1.088
3549.319 1.03 1.075 1.084 1.0912 1.1241 1.1004 1.102 1.18193 1.1563 1.0937
3587.899 1.1223 1.20974 1.26649 1.25293 1.27967 1.3128 1.3142 1.3184 1.3638 1.4193
3626.478 1.3685 1.3158 1.3649 1.387 1.331 1.269 1.27415 1.28493 1.28745 1.28402
3665.058 1.3491 1.3978 1.308 1.26525 1.25596 1.24701 1.19667 1.224 1.3552 1.3856
3703.637 1.3294 1.2908 1.311 1.3594 1.3824 1.3984 1.3946 1.3803 1.3553 1.3759
3742.217 1.4184 1.4849 1.4745 1.4049 1.4195 1.4237 1.3781 1.3876 1.3901 1.3585
3780.797 1.3903 1.4252 1.4403 1.4152 1.3787 1.3768 1.4145 1.4578 1.4377 1.3829
3819.376 1.3641 1.3982 1.4161 1.3705 1.3683 1.431 1.4515 1.4404 1.4385 1.4161
3857.956 1.4873 1.4664 1.341 1.3972 1.4498 1.46 1.4788 1.4429 1.4264 1.427
3896.535 1.4306 1.365 1.3685 1.4074 1.3893 1.4282 1.4352 1.4485 1.5014 1.477
3935.115 1.4354 1.4059 1.3923 1.5109 1.5854 1.6112 1.5816 1.5838 1.6052 1.5341
3973.694 1.4559 1.512 1.6366 1.5351 1.4984 1.563 1.5882 1.558
##END=
