##TITLE=1-Penatdecyne
##JCAMP-DX=4.24
##DATA TYPE=INFRARED SPECTRUM
##ORIGIN=NIST Mass Spectrometry Data Center
##OWNER=NIST Standard Reference Data Program
Collection (C) 2018 copyright by the U.S. Secretary of Commerce
on behalf of the United States of America. All rights reserved.
##CAS REGISTRY NO=765-13-9
##MOLFORM=C 15 H 28
##$NIST SOURCE=MSDC-IR
##SPECTROMETER/DATA SYSTEM=HP-GC/MS/IRD
##STATE=gas
##XUNITS=1/CM
##YUNITS=ABSORBANCE
##XFACTOR=1.0
##YFACTOR=0.000006800
##DELTAX=4.0
##FIRSTX=550.0
##LASTX=3846.0
##FIRSTY=0.000462
##MAXX=3846
##MINX=550
##MAXY=0.068
##MINY=0
##NPOINTS=825
##XYDATA=(X++(Y..Y))
550.0 68 45 28 31 42 33 26 31 33 35
590.0 49 72 105 154 228 338 516 774 1116 1689
630.0 2464 2696 2172 1539 1036 652 406 260 169 111
670.0 76 63 52 37 39 48 56 64 73 87
710.0 105 125 143 145 133 120 106 92 84 71
750.0 62 61 53 49 47 42 37 34 30 27
790.0 24 18 19 18 16 18 15 8 7 14
830.0 9 3 9 13 11 8 8 8 12 14
870.0 9 13 19 17 18 22 21 21 24 22
910.0 19 17 15 10 11 15 15 12 13 19
950.0 22 20 18 18 17 15 15 14 18 21
990.0 18 21 26 26 27 33 34 33 35 33
1030.0 32 31 25 21 24 31 35 30 28 31
1070.0 30 29 30 31 32 24 20 18 19 21
1110.0 20 23 22 11 7 8 8 10 9 14
1150.0 15 17 20 22 25 26 29 31 33 35
1190.0 35 36 41 48 53 61 72 82 105 144
1230.0 201 289 414 573 694 694 571 414 296 227
1270.0 188 163 149 145 147 149 156 168 178 185
1310.0 190 195 201 208 216 228 239 251 270 291
1350.0 303 301 282 258 236 220 203 191 182 164
1390.0 140 119 110 106 107 109 116 128 154 191
1430.0 248 327 408 481 545 609 677 735 750 697
1470.0 592 462 347 258 191 150 122 102 86 72
1510.0 64 58 49 43 42 41 36 30 30 30
1550.0 28 24 21 23 25 24 19 20 21 18
1590.0 17 16 16 14 12 12 12 10 11 12
1630.0 12 11 11 10 10 7 7 9 9 7
1670.0 6 10 13 9 8 8 6 3 4 8
1710.0 7 5 5 6 7 6 6 8 7 5
1750.0 4 5 4 3 5 5 4 6 6 7
1790.0 4 4 4 5 6 6 7 7 5 5
1830.0 6 6 5 4 5 7 7 9 8 6
1870.0 5 4 5 6 5 6 4 3 4 1
1910.0 2 3 3 2 1 2 2 1 4 4
1950.0 5 4 1 0 1 1 1 4 2 0
1990.0 2 0 0 4 6 5 7 10 10 11
2030.0 15 16 14 15 15 14 15 14 14 15
2070.0 17 18 21 24 29 36 46 58 75 94
2110.0 115 132 139 131 111 79 50 35 28 23
2150.0 20 17 15 13 12 12 10 9 8 7
2190.0 7 8 6 6 6 4 6 4 5 6
2230.0 6 7 6 6 7 6 6 8 8 9
2270.0 9 8 8 8 9 7 7 8 6 7
2310.0 12 12 10 12 14 15 14 16 15 14
2350.0 13 15 18 18 16 14 13 11 7 9
2390.0 11 10 11 11 10 11 12 11 10 10
2430.0 8 9 12 13 10 8 9 9 10 11
2470.0 12 13 12 11 10 14 15 15 16 16
2510.0 18 20 22 25 26 25 26 26 27 28
2550.0 29 30 29 28 29 31 35 37 38 41
2590.0 45 42 43 47 51 54 57 57 58 64
2630.0 66 66 72 75 80 82 84 89 93 98
2670.0 102 104 106 109 112 110 110 109 105 98
2710.0 94 93 95 98 102 104 106 112 118 120
2750.0 122 123 123 130 138 146 151 157 170 186
2790.0 207 226 245 269 293 320 354 399 453 512
2830.0 586 686 825 1034 1354 1843 2512 3215 3673 3700
2870.0 3378 2939 2563 2310 2155 2083 2127 2313 2643 3115
2910.0 3725 4491 5511 6867 8418 9642 10000 9443 8308 6934
2950.0 5569 4432 3655 3204 2908 2559 2084 1597 1218 957
2990.0 777 645 549 473 413 367 332 297 266 243
3030.0 226 205 186 174 159 147 138 128 120 114
3070.0 105 99 98 93 90 86 84 81 73 68
3110.0 69 66 67 71 70 63 57 52 55 57
3150.0 54 54 54 51 47 46 47 51 51 45
3190.0 42 41 43 43 40 39 40 38 35 35
3230.0 37 35 35 36 39 46 51 53 58 70
3270.0 83 94 113 140 178 210 233 279 369 475
3310.0 532 545 605 788 1016 1047 804 515 346 258
3350.0 206 170 143 115 86 63 50 42 36 32
3390.0 29 28 26 25 26 24 23 23 19 15
3430.0 16 21 20 21 26 20 14 16 14 16
3470.0 20 14 10 12 12 15 13 9 7 10
3510.0 11 8 10 12 11 10 9 6 10 11
3550.0 5 5 6 6 4 9 15 16 17 10
3590.0 9 15 17 17 13 14 19 23 25 23
3630.0 24 25 22 22 23 23 25 25 20 16
3670.0 21 25 23 22 18 17 18 19 22 24
3710.0 21 18 20 21 22 17 18 21 20 16
3750.0 11 13 17 25 22 18 23 25 25 28
3790.0 29 28 28 24 20 21 21 23 32 31
3830.0 26 28 31 30 26
##END=
