##TITLE=Diphenyl n-propyl phosphine
##JCAMP-DX=4.24
##DATA TYPE=INFRARED SPECTRUM
##ORIGIN=EPA-IR VAPOR PHASE LIBRARY
##OWNER=SRD/NIST
Collection (C) 2018 copyright by the U.S. Secretary of Commerce
on behalf of the United States of America. All rights reserved.
##CAS REGISTRY NO=7650-84-2
##MOLFORM=C 15 H 17 P
##$NIST SOURCE=MSDC-IR
##STATE=gas
##XUNITS=1/CM
##YUNITS=ABSORBANCE
##XFACTOR=1.
##YFACTOR=0.001
##DELTAX=1.92898
##FIRSTX=549.8
##LASTX=4000.7
##FIRSTY=2.397
##MAXX=4000.7
##MINX=549.759
##MAXY=0.144307
##MINY=0
##NPOINTS=1790
##XYDATA=(X++(Y..Y))
549.759 2.397 1.987 1.757 2.437 2.367 1.647 2.237 2.357 1.837 1.967
569.049 1.977 1.697 1.337 1.207 1.767 2.247 1.947 1.867 1.647 1.207
588.339 1.337 1.477 1.827 1.867 1.757 2.277 2.317 2.207 2.607 3.107
607.628 3.107 3.117 3.577 3.627 3.627 3.797 3.807 4.057 4.377 4.597
626.918 4.767 5.217 5.907 6.597 7.627 9.107 10.697 11.867 12.747 13.827
646.208 14.647 14.957 14.747 14.307 14.437 14.637 14.967 15.927 17.377 19.417
665.498 21.407 23.277 25.407 28.427 31.907 35.497 39.857 45.537 52.407 60.907
684.787 71.987 84.917 99.357 113.567 125.187 132.157 133.567 129.787 121.547 111.077
704.077 100.497 90.577 82.537 76.487 72.477 70.617 70.087 71.317 73.727 76.797
723.367 80.607 84.967 89.207 92.747 96.077 98.357 99.057 98.277 95.297 90.157
742.657 83.347 75.187 66.187 57.037 48.527 40.887 34.097 28.467 24.257 21.027
761.947 18.147 16.327 14.997 13.487 12.627 11.797 11.027 10.597 10.547 10.457
781.236 10.097 9.827 9.397 8.817 8.367 7.967 7.367 6.997 6.777 6.517
800.526 6.147 6.017 5.897 5.967 6.037 6.047 6.207 6.517 6.707 6.667
819.816 6.997 7.227 6.967 6.697 6.787 6.807 6.477 6.417 6.697 6.437
839.106 5.677 5.057 4.537 4.367 4.217 3.467 2.777 2.467 2.287 2.407
858.395 2.637 2.507 2.147 2.187 2.547 2.507 2.217 2.177 2.237 2.287
877.685 2.437 2.687 2.527 2.477 2.517 2.347 2.207 2.357 2.547 2.437
896.975 2.737 3.097 3.327 3.647 3.587 3.417 3.547 3.507 3.447 3.037
916.265 2.757 2.777 2.717 2.647 2.507 2.357 2.287 2.547 2.487 2.207
935.555 2.277 2.437 2.517 2.667 2.797 2.547 2.347 2.177 2.197 2.527
954.844 2.527 2.267 2.307 2.307 2.287 2.567 2.407 2.247 2.327 2.427
974.134 2.327 2.327 2.687 2.937 2.857 2.967 3.627 4.227 5.127 6.447
993.424 7.887 9.707 11.447 12.487 13.107 13.287 13.037 12.167 11.367 11.767
1012.714 13.527 15.867 18.207 21.477 25.337 28.347 28.997 27.607 25.587 22.707
1032.003 18.827 14.457 10.687 8.757 8.117 7.657 7.607 8.077 8.017 8.257
1051.293 9.497 10.477 11.567 13.427 14.887 16.037 17.567 19.057 20.167 20.567
1070.583 21.237 22.297 23.467 24.357 25.577 27.247 28.647 30.007 31.077 31.457
1089.873 31.327 30.927 29.837 28.057 26.827 23.867 20.707 19.157 16.847 14.577
1109.163 11.667 9.897 9.107 7.997 6.687 5.557 5.197 4.917 4.667 4.197
1128.452 3.827 3.467 3.147 3.317 2.557 1.947 2.517 2.797 2.957 2.497
1147.742 1.947 2.547 3.077 3.447 3.547 3.497 3.267 2.967 2.947 2.867
1167.032 3.187 3.737 4.447 5.657 6.637 6.877 8.217 10.377 11.777 12.137
1186.322 11.637 11.137 10.487 8.737 7.207 6.907 6.647 6.207 6.237 6.647
1205.611 6.947 6.727 6.557 7.417 7.197 5.697 4.907 4.827 4.847 5.237
1224.901 4.957 4.167 3.647 3.787 4.317 4.637 4.627 4.527 4.237 4.017
1244.191 4.087 3.717 3.867 4.347 4.477 5.147 5.547 5.557 5.927 6.227
1263.481 6.497 6.637 6.877 7.127 7.337 6.997 6.767 7.077 7.017 7.307
1282.771 7.777 7.797 8.067 8.767 9.257 9.647 10.077 10.577 10.857 10.937
1302.060 10.857 10.587 10.267 9.807 9.467 9.377 9.417 9.357 9.307 9.427
1321.350 9.747 10.127 10.417 10.857 11.537 12.107 12.477 12.557 12.347 11.967
1340.640 11.257 10.287 9.117 7.877 6.807 6.077 5.677 5.317 5.147 5.307
1359.930 5.447 5.607 5.987 6.397 6.797 7.387 8.167 9.037 10.047 11.097
1379.219 11.957 12.567 12.877 12.787 12.207 11.397 10.527 9.727 9.157 9.037
1398.509 9.207 9.477 9.927 10.667 11.727 13.097 14.707 16.497 18.627 20.867
1417.799 23.267 25.847 28.587 31.667 35.057 38.577 41.877 44.587 46.247 46.137
1437.089 43.497 39.367 35.057 30.817 26.997 24.007 22.007 20.897 20.547 20.747
1456.378 21.317 22.257 23.257 24.177 25.207 26.247 27.237 28.427 29.977 31.937
1475.668 33.987 36.067 37.647 38.157 37.257 34.927 31.337 26.787 21.967 17.687
1494.958 14.047 11.157 9.137 7.677 6.627 5.827 5.347 5.067 4.787 4.607
1514.248 4.397 4.167 4.157 4.217 4.207 4.107 4.177 4.347 4.537 4.557
1533.538 4.497 4.617 4.677 4.657 4.647 4.587 4.497 4.427 4.307 4.227
1552.827 4.367 4.537 4.797 5.007 5.357 5.877 6.487 7.397 8.317 9.307
1572.117 10.457 11.957 13.737 15.797 17.877 19.247 19.997 20.147 19.197 17.417
1591.407 15.077 12.497 10.057 8.047 6.627 5.677 5.037 4.537 4.047 3.697
1610.697 3.497 3.197 2.877 2.787 2.887 2.937 2.797 2.777 2.907 2.947
1629.986 3.117 3.277 3.477 3.717 4.087 4.547 4.857 5.217 5.637 5.767
1649.276 5.707 5.647 5.377 5.057 4.847 4.487 3.967 3.547 3.247 3.017
1668.566 2.817 2.557 2.387 2.257 2.097 1.867 1.757 1.727 1.687 1.697
1687.856 1.637 1.647 1.707 1.717 1.717 1.707 1.717 1.727 1.767 1.877
1707.146 1.997 2.047 2.057 2.157 2.127 2.137 2.207 2.157 2.247 2.377
1726.435 2.317 2.347 2.527 2.567 2.567 2.667 2.897 3.137 3.207 3.307
1745.725 3.317 3.307 3.377 3.317 3.287 3.227 3.087 2.967 2.817 2.637
1765.015 2.667 2.897 3.097 3.327 3.437 3.497 3.517 3.477 3.457 3.517
1784.305 3.747 4.157 4.707 5.377 6.297 7.327 8.297 9.067 9.607 9.747
1803.594 9.527 9.067 8.457 7.847 7.217 6.517 5.847 5.367 4.897 4.477
1822.884 4.207 3.877 3.517 3.177 2.897 2.737 2.617 2.597 2.587 2.447
1842.174 2.407 2.407 2.407 2.637 2.847 3.037 3.257 3.467 3.707 4.037
1861.464 4.517 4.957 5.327 5.707 6.097 6.597 7.177 7.627 7.907 8.267
1880.754 8.587 8.527 8.297 7.957 7.457 6.827 6.047 5.227 4.527 3.967
1900.043 3.467 3.037 2.677 2.487 2.467 2.487 2.367 2.277 2.337 2.527
1919.333 2.787 2.997 3.297 3.627 3.907 4.347 4.857 5.407 6.017 6.577
1938.623 7.027 7.487 7.997 8.357 8.727 9.017 9.087 9.077 8.917 8.637
1957.913 8.227 7.617 6.777 5.857 4.937 4.027 3.187 2.627 2.257 1.957
1977.202 1.817 1.717 1.497 1.437 1.427 1.247 1.077 1.097 1.187 1.177
1996.492 1.147 1.147 1.227 1.177 1.0731 1.0555 1.0755 1.097 1.0377 1.06
2015.782 1.087 1.0298 1.0338 1.061 1.048 1.0344 1.0036 0.9155 0.8523 0.8778
2035.072 0.8877 0.8508 0.8542 0.8769 0.8998 0.8538 0.8168 0.9159 1.0702 1.097
2054.362 0.9901 0.8883 0.8768 0.9979 1.0385 0.8824 0.7835 0.8049 0.8405 0.8172
2073.651 0.844 0.827 0.7826 0.8207 0.8478 0.7925 0.7356 0.8259 0.8874 0.8656
2092.941 0.8537 0.8893 0.9141 0.9333 0.9065 0.8588 0.873 0.8849 0.7962 0.7767
2112.231 0.841 0.8469 0.8607 0.8719 0.8134 0.793 0.841 0.8564 0.7833 0.6954
2131.521 0.6347 0.6529 0.7415 0.8176 0.7954 0.6909 0.7117 0.69 0.6264 0.6061
2150.810 0.6143 0.7452 0.8441 0.8221 0.7881 0.8099 0.832 0.8181 0.8702 0.9419
2170.100 0.9223 0.8811 0.8177 0.7836 0.8298 0.7702 0.7737 0.7904 0.8072 0.7552
2189.390 0.6602 0.6368 0.6092 0.7348 0.7629 0.597 0.6276 0.7034 0.685 0.6924
2208.680 0.6832 0.7491 0.842 0.8516 0.7885 0.7181 0.7434 0.8648 0.7876 0.7233
2227.970 0.7829 0.7937 0.8251 0.825 0.737 0.6486 0.6983 0.8285 0.863 0.8824
2247.259 1.0078 0.9831 0.9487 1.0115 1.0266 1.087 1.097 1.0363 0.877 0.871
2266.549 1.0357 1.137 1.177 1.187 1.107 1.127 1.207 1.127 1.127 1.137
2285.839 1.117 1.137 1.0734 1.0478 1.157 1.237 1.177 1.107 1.117 1.197
2305.129 1.317 1.627 2.007 2.257 2.417 2.347 2.237 2.127 1.867 1.557
2324.418 1.387 1.367 1.327 1.307 1.307 1.367 1.517 1.527 1.487 1.507
2343.708 1.497 1.457 1.467 1.497 1.357 1.237 1.197 1.167 1.087 1.117
2362.998 1.097 0.9799 0.9945 1.087 1.087 0.994 0.9844 1.007 1.0767 1.127
2382.288 1.0191 0.934 0.9322 0.9663 0.9908 1.0063 1.087 1.257 1.307 1.207
2401.578 1.277 1.277 1.297 1.317 1.277 1.247 1.087 1.0536 1.0306 1.0145
2420.867 1.0127 0.948 0.9278 0.8807 0.7798 0.7843 0.8419 0.8335 0.6995 0.5655
2440.157 0.6437 0.807 0.881 0.7941 0.7139 0.6391 0.6045 0.675 0.7988 0.8957
2459.447 0.8241 0.7427 0.7228 0.6325 0.5937 0.6297 0.619 0.7307 0.7162 0.6119
2478.737 0.6726 0.6751 0.7337 0.7252 0.7722 0.8217 0.7608 0.7352 0.7939 0.8675
2498.026 0.8344 0.8861 0.8431 0.8542 0.8812 0.7959 0.7724 0.7612 0.828 0.9631
2517.316 0.9506 0.8978 0.8725 0.8375 0.8833 0.8049 0.7394 0.8208 0.8119 0.7552
2536.606 0.8943 0.9344 0.8233 0.8162 0.7892 0.8144 0.9121 0.9134 0.8505 0.9414
2555.896 1.0396 1.107 1.227 1.227 1.227 1.317 1.327 1.427 1.487 1.347
2575.186 1.387 1.547 1.517 1.387 1.487 1.597 1.557 1.517 1.507 1.347
2594.475 1.397 1.607 1.547 1.557 1.687 1.677 1.727 1.897 1.797 1.677
2613.765 1.737 1.767 1.657 1.747 1.747 1.497 1.607 1.697 1.717 1.737
2633.055 1.707 1.707 1.627 1.617 1.597 1.427 1.407 1.497 1.467 1.557
2652.345 1.667 1.707 1.837 1.897 1.857 1.967 2.097 2.077 2.157 2.187
2671.634 2.147 2.147 2.077 2.067 2.077 1.967 1.847 1.757 1.637 1.457
2690.924 1.377 1.367 1.257 1.117 1.177 1.257 1.187 1.177 1.187 1.187
2710.214 1.157 1.117 0.9837 0.9711 1.137 1.187 1.267 1.307 1.307 1.447
2729.504 1.677 1.977 2.027 2.097 2.277 2.277 2.437 2.567 2.567 2.517
2748.794 2.347 2.267 2.217 2.187 2.257 2.347 2.337 2.247 2.367 2.367
2768.083 2.187 2.267 2.457 2.667 2.717 2.747 2.937 3.067 3.127 3.347
2787.373 3.637 3.757 3.797 3.857 4.077 4.367 4.597 4.897 5.177 5.397
2806.663 5.577 5.817 6.227 6.587 6.887 7.087 7.117 7.357 7.547 7.667
2825.953 7.687 7.667 7.667 7.617 7.837 8.137 8.227 8.237 8.347 8.697
2845.242 9.097 9.507 10.037 10.547 11.177 12.077 13.247 14.667 16.637 18.867
2864.532 21.497 24.737 28.397 32.577 37.027 41.637 45.867 49.257 51.467 52.187
2883.822 51.507 49.747 47.547 45.207 43.217 42.027 41.707 42.287 43.177 44.207
2903.112 45.257 45.887 46.047 45.807 45.627 45.787 46.207 46.997 48.157 49.847
2922.401 52.117 55.037 58.817 63.327 68.247 73.647 79.307 84.387 87.617 88.007
2941.691 85.897 81.727 75.927 69.927 64.767 61.517 61.417 64.957 71.807 82.037
2960.981 94.827 108.267 119.887 126.257 126.047 119.287 107.447 92.657 77.057 62.507
2980.271 50.577 41.967 35.867 31.797 29.187 27.717 27.217 27.137 27.357 27.987
2999.561 28.897 29.937 31.147 32.467 33.767 35.077 36.487 37.837 39.347 40.487
3018.850 40.847 40.667 39.517 37.827 35.967 33.887 32.347 31.467 30.867 30.657
3038.140 30.857 31.367 32.547 34.997 39.007 44.787 52.737 63.647 77.837 94.567
3057.430 112.567 128.507 139.157 144.307 143.767 138.137 129.027 118.657 110.127 104.427
3076.720 99.917 94.397 87.827 80.727 73.067 65.047 56.937 49.157 41.937 35.187
3096.009 29.077 23.747 19.437 16.117 13.647 11.857 10.637 9.617 8.587 8.087
3115.299 7.607 7.497 7.367 6.987 6.987 6.987 7.217 7.457 7.607 7.767
3134.589 7.867 8.217 8.347 8.127 7.757 7.327 6.977 6.317 5.547 4.867
3153.879 4.227 3.647 3.287 3.237 3.187 2.957 2.697 2.797 2.957 2.917
3173.169 2.737 2.547 2.607 2.557 2.287 2.047 1.797 1.777 1.757 1.687
3192.458 1.727 1.687 1.667 1.557 1.427 1.387 1.317 1.397 1.477 1.357
3211.748 1.217 1.237 1.297 1.207 1.167 1.437 1.307 0.9929 0.8671 0.7187
3231.038 0.7832 0.9715 0.9531 0.7745 0.8101 1.147 1.147 0.7754 0.6612 0.7007
3250.328 0.7724 0.8101 0.7853 0.8049 0.7286 0.6006 0.5781 0.4014 0.3557 0.4205
3269.617 0.3408 0.2698 0.2786 0.4114 0.6072 0.728 0.6851 0.5828 0.6679 0.681
3288.907 0.5944 0.6179 0.637 0.6038 0.5499 0.5178 0.5507 0.5188 0.4992 0.5942
3308.197 0.6666 0.637 0.67 0.5669 0.3188 0.3649 0.4374 0.4975 0.466 0.4683
3327.487 0.4239 0.4456 0.4735 0.4569 0.3635 0.5345 0.8632 0.8123 0.9063 0.7502
3346.777 0.4853 0.3685 0.3841 0.5916 0.6808 0.5722 0.4571 0.3928 0.3641 0.5638
3366.066 0.5151 0.33 0.4223 0.4288 0.4464 0.3641 0.3598 0.5869 0.4597 0.16214
3385.356 0.16488 0.17527 0.1876 0.4345 0.3959 0.3337 0.5228 0.5384 0.5322 0.5243
3404.646 0.5571 0.5331 0.4565 0.4605 0.3585 0.3264 0.3309 0.4502 0.3723 0.2631
3423.936 0.3095 0.1998 0.1981 0.4644 0.5148 0.2767 0.2457 0.3344 0.5874 0.6501
3443.225 0.4347 0.435 0.6788 0.8059 0.6571 0.4924 0.3812 0.2792 0.3982 0.6271
3462.515 0.548 0.621 0.5227 0.2641 0.4586 0.4768 0.3644 0.2443 0.148 0.3396
3481.805 0.3396 0.16045 0.3699 0.4162 0.4494 0.5079 0.3151 0.2639 0.2841 0.12639
3501.095 0.1874 0.3798 0.1908 0.15206 0.3061 0.1043 0.0035 0.2076 0.10528 0
3520.385 0.2202 0.2139 0.3254 0.3676 0.262 0.4911 0.5335 0.6224 0.6643 0.2881
3539.674 0.2773 0.4806 0.11088 0.0489 0.4058 0.302 0.2225 0.3364 0.3123 0.295
3558.964 0.3025 0.3028 0.3589 0.3931 0.13672 0.06879 0.08835 0.2753 0.4289 0.11246
3578.254 0.0437 0.2071 0.3939 0.3254 0.10293 0.12956 0.14443 0.2839 0.6177 0.5719
3597.544 0.5644 0.782 0.6531 0.3533 0.4169 0.6714 0.6634 0.5488 0.4121 0.2945
3616.833 0.4943 0.8187 0.7947 0.8254 0.9301 0.9301 0.9897 1.0322 1.0044 0.9242
3636.123 0.637 0.556 0.8431 0.9191 0.7841 0.6502 0.6013 0.7032 0.7271 0.5545
3655.413 0.5179 0.4748 0.783 0.9125 0.5948 0.6782 0.7961 0.6574 0.8198 1.167
3674.703 1.04 0.8828 1.0218 1.0761 1.167 1.337 1.407 1.487 1.657 1.737
3693.993 1.657 1.637 1.467 1.247 1.197 1.257 1.387 1.087 0.801 0.7033
3713.282 0.6692 0.8689 0.808 0.784 1.077 0.9933 0.5626 0.4499 0.6753 1.054
3732.572 1.167 1.177 1.187 0.985 0.8053 0.8197 1.077 1.117 0.8561 0.917
3751.862 1.107 1.247 1.307 1.187 1.127 1.0639 0.9017 0.7754 0.6839 0.5002
3771.152 0.4507 0.5449 0.5555 0.7084 0.7554 0.7264 0.8247 0.7768 0.512 0.4256
3790.441 0.544 0.6947 0.5797 0.3475 0.3651 0.2358 0.15519 0.08911 0.2084 0.4156
3809.731 0.638 0.629 0.2365 0.14205 0.2577 0.4026 0.4802 0.452 0.3891 0.4728
3829.021 0.7159 0.6889 0.446 0.0594 0.0229 0.3604 0.5529 0.4512 0.2283 0.3142
3848.311 0.3123 0.3433 0.6154 0.6535 0.5415 0.4355 0.3541 0.5045 0.4914 0.2991
3867.601 0.3325 0.4836 0.6625 0.7971 0.7948 0.5193 0.506 0.6215 0.5837 0.6654
3886.890 0.5464 0.4093 0.5539 0.7011 0.6179 0.5721 0.588 0.4417 0.4967 0.6418
3906.180 0.6389 0.6141 0.5369 0.4385 0.6081 0.6397 0.5394 0.5933 0.5826 0.5387
3925.470 0.4733 0.576 0.6169 0.4641 0.5358 0.5565 0.5088 0.5263 0.4065 0.5144
3944.760 0.6211 0.5794 0.6818 0.801 0.6215 0.6081 0.6732 0.6497 0.7932 0.7574
3964.049 0.678 0.733 1.0019 1.0024 0.7149 0.7154 0.6367 0.5067 0.5858 0.6798
3983.339 0.7118 0.8268 0.7553 0.6441 0.679 0.8482 0.9616 0.9879 1.0763 1.041
##END=
