##TITLE=o-Toluic acid hydrazide
##JCAMP-DX=4.24
##DATA TYPE=INFRARED SPECTRUM
##ORIGIN=EPA-IR VAPOR PHASE LIBRARY
##OWNER=SRD/NIST
Collection (C) 2018 copyright by the U.S. Secretary of Commerce
on behalf of the United States of America. All rights reserved.
##CAS REGISTRY NO=7658-80-2
##MOLFORM=C 8 H 10 N 2 O
##$NIST SOURCE=MSDC-IR
##STATE=gas
##XUNITS=1/CM
##YUNITS=ABSORBANCE
##XFACTOR=1.
##YFACTOR=0.001
##DELTAX=1.92898
##FIRSTX=549.8
##LASTX=4000.7
##FIRSTY=1.707
##MAXX=4000.7
##MINX=549.759
##MAXY=0.023197
##MINY=0
##NPOINTS=1790
##XYDATA=(X++(Y..Y))
549.759 1.707 1.747 1.837 1.747 1.637 1.3721 0.8653 1.184 1.677 1.467
569.049 1.3628 1.487 1.737 1.467 1.0451 1.3593 1.467 1.3488 1.457 1.707
588.339 1.647 1.3021 1.427 1.537 1.2032 0.9852 1.2083 1.1855 1.1886 1.447
607.628 1.637 1.577 1.2463 1.3681 1.507 1.487 1.437 1.2343 1.2452 1.1652
626.918 1.0876 1.3276 1.2772 1.1678 1.2663 1.437 1.667 1.497 1.2606 1.1165
646.208 1.1374 1.477 1.577 1.747 1.897 1.717 1.727 1.927 2.047 2.247
665.498 2.347 2.407 2.537 2.267 2.107 2.137 1.777 1.417 1.507 1.557
684.787 1.517 1.427 1.3359 1.3588 1.3723 1.3489 1.1824 1.2969 1.427 1.3123
704.077 1.3026 1.467 1.577 1.577 1.737 1.907 2.017 2.357 3.047 3.607
723.367 4.117 4.647 5.137 5.847 6.397 6.977 7.717 8.087 7.877 7.347
742.657 6.867 6.337 5.767 5.357 4.947 4.487 4.157 3.737 3.387 3.317
761.947 3.227 3.197 2.947 2.497 2.597 2.797 2.717 2.607 2.367 2.277
781.236 2.207 1.967 1.727 1.797 1.977 1.607 1.3801 1.3642 1.143 1.1938
800.526 1.1398 1.0826 1.1078 1.1674 1.2966 1.0771 0.9913 1.1884 1.1759 1.0342
819.816 1.196 1.1913 0.9389 1.3354 1.627 1.477 1.487 1.3837 1.1384 1.0897
839.106 1.1512 1.2477 1.2147 1.2325 1.396 1.3722 1.3663 1.597 1.827 1.997
858.395 1.967 1.827 1.807 1.637 1.477 1.467 1.517 1.717 1.717 1.507
877.685 1.657 1.777 1.637 1.767 1.877 1.797 1.787 1.747 1.877 1.997
896.975 2.037 2.357 2.867 3.127 3.357 3.627 3.977 4.557 4.987 5.557
916.265 6.217 6.937 7.717 8.487 9.307 9.917 10.267 10.527 10.597 10.377
935.555 10.007 9.597 9.067 8.447 7.757 6.887 5.877 5.157 4.737 4.257
954.844 3.747 3.437 3.177 2.757 2.517 2.277 1.907 1.757 1.707 1.707
974.134 1.607 1.417 1.587 1.597 1.417 1.447 1.3207 1.1936 1.279 1.2325
993.424 1.119 1.0821 1.0221 1.0737 1.307 1.1894 0.8355 0.805 1.1478 1.517
1012.714 1.1256 0.7631 1.1531 1.3597 0.9829 0.9059 0.9689 1.1484 1.547 1.4046
1032.003 1.0382 1.1594 1.0117 0.8234 1.0134 1.2163 1.547 1.557 1.1876 1.0977
1051.293 1.2396 1.2767 1.2499 1.1405 1.1824 1.2156 1.0693 0.7964 0.917 1.1113
1070.583 0.9081 0.7166 1.0646 1.1798 1.2184 1.657 1.3223 0.7515 1.2476 1.447
1089.873 1.0166 0.8768 1.1966 1.1181 0.7856 0.8793 0.7082 0.9382 1.3992 1.1369
1109.163 0.9198 0.912 1.0471 1.1605 1.2372 1.447 1.3972 1.0469 0.9144 0.881
1128.452 0.6319 0.8332 1.1141 0.9548 0.47144 0.5403 1.1002 1.0283 0.9412 0.9913
1147.742 0.8112 0.6054 0.7253 1.1157 1.317 1.2483 1.207 1.497 1.807 1.587
1167.032 1.3777 1.477 1.567 1.517 1.2588 1.3889 1.527 1.467 1.487 1.2831
1186.322 1.1985 0.979 0.9925 1.2006 1.2636 1.597 1.427 1.1102 0.9516 0.9544
1205.611 1.2441 1.487 1.1635 0.9372 1.0604 0.9064 0.6775 0.48248 0.4742 1.103
1224.901 1.286 0.9999 1.437 1.607 1.527 1.727 1.757 1.527 1.527 1.777
1244.191 1.947 2.297 2.617 2.917 3.427 3.727 3.917 4.317 4.877 5.297
1263.481 5.777 6.237 6.457 6.817 7.257 7.147 6.967 7.167 7.127 7.017
1282.771 6.917 6.897 6.977 6.807 6.577 6.487 6.267 5.807 5.287 4.607
1302.060 3.867 3.227 2.787 2.447 2.097 1.917 1.877 1.747 1.537 1.447
1321.350 1.447 1.507 1.537 1.467 1.457 1.3944 1.417 1.477 1.427 1.457
1340.640 1.477 1.467 1.507 1.477 1.447 1.427 1.4 1.3641 1.3563 1.3855
1359.930 1.3024 1.2436 1.2541 1.2038 1.1757 1.2143 1.2667 1.3897 1.447 1.477
1379.219 1.567 1.657 1.757 1.857 1.917 1.967 2.007 2.037 2.127 2.237
1398.509 2.297 2.357 2.537 2.757 2.897 3.047 3.377 3.717 4.137 4.737
1417.799 5.317 5.967 6.787 7.627 8.587 9.587 10.507 11.347 12.057 12.757
1437.089 13.247 13.527 13.667 13.557 13.267 12.807 12.307 11.817 11.167 10.557
1456.378 9.947 9.237 8.717 8.347 7.877 7.357 6.947 6.767 6.627 6.467
1475.668 6.307 6.227 6.247 6.217 6.287 6.347 6.287 6.187 6.047 5.877
1494.958 5.617 5.367 5.027 4.637 4.307 3.897 3.527 3.257 3.007 2.777
1514.248 2.547 2.357 2.217 2.187 2.107 2.007 1.947 1.807 1.677 1.627
1533.538 1.547 1.547 1.647 1.567 1.467 1.577 1.527 1.417 1.417 1.3936
1552.827 1.3656 1.3405 1.437 1.497 1.3567 1.3763 1.507 1.527 1.517 1.537
1572.117 1.567 1.517 1.617 1.777 1.867 1.967 2.007 2.077 2.087 2.237
1591.407 2.417 2.487 2.607 2.797 3.067 3.107 3.127 3.277 3.407 3.537
1610.697 3.657 3.737 3.767 3.847 4.077 4.457 4.807 5.087 5.307 5.617
1629.986 5.927 6.017 6.147 6.237 6.067 5.927 5.677 5.317 4.907 4.537
1649.276 4.307 4.107 3.907 3.827 3.737 3.697 3.737 3.747 3.887 4.047
1668.566 4.217 4.507 4.767 5.127 5.637 6.187 6.937 7.927 9.277 10.837
1687.856 12.487 14.367 16.277 18.207 19.987 21.417 22.617 23.197 22.647 21.287
1707.146 19.507 17.497 15.347 13.287 11.297 9.507 8.037 6.697 5.607 4.827
1726.435 4.137 3.627 3.287 2.997 2.707 2.397 2.157 1.977 1.867 1.807
1745.725 1.777 1.627 1.402 1.3285 1.2515 1.1899 1.2026 1.1041 0.9864 0.9824
1765.015 1.054 1.0097 0.9168 0.8906 0.8585 0.8113 0.7937 0.8042 0.7984 0.8239
1784.305 0.8917 0.895 0.8205 0.8525 0.8392 0.8193 0.878 0.8588 0.8715 0.8451
1803.594 0.8467 0.852 0.7284 0.7048 0.7007 0.6797 0.7364 0.7066 0.607 0.5396
1822.884 0.51 0.5908 0.647 0.5972 0.5892 0.6411 0.6818 0.6494 0.5359 0.50096
1842.174 0.5535 0.5164 0.44614 0.43073 0.4782 0.50195 0.4495 0.40558 0.3962 0.4423
1861.464 0.508 0.5082 0.45947 0.39843 0.354 0.3421 0.3677 0.42577 0.5255 0.5528
1880.754 0.5301 0.5203 0.5645 0.593 0.5848 0.5485 0.5123 0.5749 0.599 0.5702
1900.043 0.5806 0.5206 0.47778 0.6039 0.6891 0.7016 0.7025 0.6822 0.6153 0.6371
1919.333 0.671 0.6459 0.64 0.627 0.5964 0.537 0.5393 0.5197 0.5532 0.6142
1938.623 0.5447 0.45144 0.45009 0.568 0.6277 0.6357 0.6477 0.6107 0.5574 0.529
1957.913 0.5437 0.47692 0.46279 0.47722 0.41988 0.3838 0.3535 0.3769 0.43506 0.3947
1977.202 0.3 0.3514 0.3873 0.3233 0.3646 0.3758 0.3379 0.3693 0.3598 0.3626
1996.492 0.3612 0.3082 0.3 0.3345 0.3348 0.3562 0.40491 0.378 0.3191 0.3619
2015.782 0.3782 0.369 0.333 0.22 0.251 0.352 0.3573 0.3838 0.3816 0.3323
2035.072 0.318 0.3085 0.306 0.246 0.181 0.214 0.295 0.292 0.287 0.3406
2054.362 0.3405 0.3444 0.41358 0.3634 0.3077 0.3148 0.274 0.187 0.195 0.291
2073.651 0.3072 0.3569 0.3677 0.3242 0.346 0.3445 0.3394 0.3744 0.3667 0.286
2092.941 0.255 0.248 0.223 0.198 0.267 0.3263 0.3081 0.294 0.296 0.3481
2112.231 0.3748 0.43201 0.44528 0.3785 0.3237 0.243 0.156 0.171 0.256 0.3272
2131.521 0.3189 0.285 0.293 0.262 0.224 0.26 0.292 0.287 0.3155 0.275
2150.810 0.259 0.26 0.219 0.229 0.251 0.3255 0.3857 0.3955 0.3773 0.3452
2170.100 0.3105 0.271 0.237 0.208 0.291 0.3248 0.3144 0.3091 0.265 0.29
2189.390 0.3 0.3349 0.386 0.3969 0.364 0.348 0.337 0.3578 0.40254 0.39963
2208.680 0.391 0.3661 0.3476 0.3702 0.3851 0.3739 0.364 0.334 0.292 0.297
2227.970 0.3122 0.3403 0.3517 0.3869 0.3842 0.307 0.275 0.264 0.3269 0.3252
2247.259 0.266 0.3435 0.3812 0.3539 0.3309 0.3226 0.3398 0.3673 0.3496 0.289
2266.549 0.291 0.291 0.304 0.247 0.195 0.242 0.284 0.287 0.253 0.192
2285.839 0.201 0.289 0.284 0.265 0.3083 0.3493 0.40532 0.3637 0.276 0.302
2305.129 0.3762 0.43017 0.344 0.245 0.299 0.3555 0.3628 0.3957 0.3687 0.409535
2324.418 0.3773 0.264 0.255 0.274 0.323 0.3636 0.3455 0.268 0.29 0.3294
2343.708 0.3231 0.3236 0.3706 0.4206 0.3587 0.301 0.3071 0.367 0.3691 0.295
2362.998 0.33 0.3401 0.3169 0.284 0.237 0.303 0.3423 0.358 0.3084 0.288
2382.288 0.3458 0.3107 0.3463 0.281 0.217 0.305 0.267 0.269 0.3285 0.292
2401.578 0.297 0.3607 0.3701 0.28 0.222 0.3112 0.3238 0.3194 0.3372 0.3572
2420.867 0.3488 0.283 0.3321 0.41016 0.413312 0.251 0.14 0.272 0.39952 0.303
2440.157 0.2 0.201 0.26 0.301 0.3241 0.41935 0.409566 0.3316 0.3158 0.252
2459.447 0.218 0.3364 0.3936 0.4011 0.43353 0.407917 0.3278 0.278 0.294 0.3754
2478.737 0.517 0.48327 0.3517 0.289 0.265 0.3291 0.3531 0.3686 0.298 0.232
2498.026 0.273 0.269 0.3272 0.3381 0.301 0.3176 0.3574 0.29 0.23 0.235
2517.316 0.269 0.287 0.277 0.3313 0.3427 0.267 0.274 0.3546 0.3947 0.45246
2536.606 0.43231 0.3325 0.295 0.3411 0.3777 0.3605 0.3471 0.3356 0.3183 0.3372
2555.896 0.40366 0.3503 0.3126 0.3819 0.3722 0.3885 0.43369 0.5237 0.5411 0.409407
2575.186 0.3866 0.3445 0.3136 0.3568 0.262 0.21 0.284 0.292 0.3248 0.39891
2594.475 0.3645 0.3086 0.3709 0.40577 0.3459 0.294 0.3101 0.40165 0.285 0.261
2613.765 0.3823 0.3466 0.305 0.238 0.238 0.221 0.086 0.165 0.266 0.202
2633.055 0.238 0.265 0.178 0.216 0.27 0.245 0.3218 0.3759 0.3717 0.3158
2652.345 0.3505 0.45925 0.3633 0.233 0.233 0.293 0.257 0.25 0.3118 0.3428
2671.634 0.3618 0.3211 0.286 0.282 0.3382 0.3986 0.41828 0.45498 0.3614 0.3569
2690.924 0.47501 0.379 0.275 0.3494 0.3401 0.3114 0.3273 0.253 0.258 0.3499
2710.214 0.3661 0.381 0.41719 0.39899 0.40549 0.3739 0.3689 0.40008 0.3361 0.299
2729.504 0.3095 0.3463 0.268 0.284 0.44202 0.3667 0.3433 0.4273 0.406253 0.3963
2748.794 0.42352 0.44536 0.5495 0.5798 0.5486 0.5207 0.44389 0.406515 0.40581 0.47965
2768.083 0.534 0.40342 0.298 0.3955 0.42012 0.28 0.296 0.42278 0.416115 0.43745
2787.373 0.45821 0.43477 0.46456 0.4859 0.50292 0.45846 0.40498 0.48743 0.5132 0.46989
2806.663 0.47057 0.42391 0.3344 0.278 0.3144 0.3183 0.3296 0.410914 0.49108 0.50693
2825.953 0.3854 0.42677 0.6316 0.5858 0.47056 0.5389 0.45543 0.48068 0.618 0.6341
2845.242 0.6802 0.6228 0.6183 0.6667 0.7677 0.7113 0.6052 0.6981 0.9305 1.0723
2864.532 0.8951 0.8805 0.9983 0.8655 0.948 1.0334 0.9884 1.047 1.0884 1.1819
2883.822 1.2065 1.1881 1.1543 1.0618 0.9583 0.9412 0.8714 0.8997 0.9802 1.0264
2903.112 1.0479 0.9253 0.907 0.963 1.0473 1.1426 1.1372 1.3039 1.393 1.3529
2922.401 1.3645 1.467 1.657 1.697 1.917 2.187 2.197 2.167 2.057 2.037
2941.691 2.037 2.027 2.027 1.927 1.817 1.657 1.647 1.617 1.587 1.667
2960.981 1.547 1.487 1.587 1.537 1.517 1.697 1.607 1.427 1.527 1.577
2980.271 1.547 1.537 1.507 1.467 1.437 1.3967 1.3289 1.2495 1.2229 1.2642
2999.561 1.2588 1.139 1.1147 1.1548 1.3015 1.447 1.497 1.647 1.927 2.137
3018.850 2.107 2.137 2.207 2.347 2.507 2.397 2.467 2.647 2.467 2.207
3038.140 2.137 2.007 1.927 1.947 1.817 1.717 1.797 2.037 2.187 2.257
3057.430 2.377 2.597 2.987 3.297 3.387 3.567 3.657 3.517 3.577 3.567
3076.720 3.287 3.097 3.007 2.837 2.497 2.197 1.927 1.617 1.407 1.3306
3096.009 1.427 1.2967 0.9938 0.9434 0.9533 0.917 0.8605 0.789 0.8055 0.7073
3115.299 0.5892 0.6385 0.5332 0.45301 0.5831 0.6062 0.5624 0.6372 0.5485 0.5514
3134.589 0.5914 0.5724 0.5724 0.499 0.541 0.6093 0.566 0.48386 0.7333 0.8195
3153.879 0.6159 0.5344 0.3676 0.233 0.39739 0.5457 0.5119 0.3881 0.3636 0.3561
3173.169 0.3824 0.5747 0.6772 0.709 0.5889 0.47391 0.553 0.5937 0.605 0.7229
3192.458 0.6199 0.5224 0.49043 0.5137 0.6477 0.6364 0.5306 0.5704 0.7557 0.6516
3211.748 0.5432 0.5149 0.45484 0.47421 0.40491 0.3268 0.216 0.281 0.408202 0.45986
3231.038 0.49894 0.3482 0.231 0.21 0.232 0.189 0.24 0.43683 0.409842 0.268
3250.328 0.306 0.3663 0.3146 0.287 0.211 0.196 0.415238 0.50269 0.4382 0.3961
3269.617 0.50133 0.48275 0.3171 0.46187 0.47985 0.3145 0.41806 0.5074 0.46154 0.3628
3288.907 0.3187 0.3885 0.46142 0.4927 0.5357 0.674 0.6566 0.5841 0.6481 0.567
3308.197 0.44136 0.46513 0.6151 0.6823 0.5959 0.49403 0.3525 0.43097 0.574 0.50012
3327.487 0.50447 0.6041 0.5086 0.49145 0.6229 0.5299 0.3966 0.6095 0.663 0.5302
3346.777 0.5779 0.5982 0.5433 0.46489 0.6624 0.691 0.5515 0.6839 0.7186 0.5579
3366.066 0.4375 0.5218 0.6619 0.5356 0.3634 0.47614 0.5651 0.5269 0.5773 0.6194
3385.356 0.6942 0.6422 0.6418 0.7518 0.5921 0.4726 0.5099 0.46201 0.44036 0.5833
3404.646 0.5501 0.45062 0.341 0.291 0.581 0.79 0.6226 0.47385 0.7371 0.8283
3423.936 0.851 0.8312 0.7124 0.8889 0.9287 0.7806 0.9427 1.1447 1.1126 1.3425
3443.225 1.437 1.487 1.887 2.227 2.497 2.727 2.967 3.147 3.307 3.367
3462.515 3.377 3.507 3.657 3.817 3.697 3.257 3.067 2.977 2.707 2.537
3481.805 2.307 2.047 1.707 1.3993 1.3725 1.3435 1.0962 0.9301 0.8973 0.7736
3501.095 0.8633 0.9643 0.8309 0.6949 0.5661 0.7663 0.8778 0.5473 0.3946 0.3624
3520.385 0.406215 0.43649 0.40342 0.43044 0.46706 0.5443 0.5173 0.3076 0.28 0.6173
3539.674 0.6227 0.46826 0.7178 0.7323 0.415792 0.3247 0.40234 0.49549 0.414442 0.3921
3558.964 0.47449 0.46336 0.3874 0.202 0.279 0.5223 0.5922 0.5108 0.49296 0.5513
3578.254 0.42825 0.46003 0.555 0.39976 0.255 0.40345 0.5115 0.46161 0.45702 0.248
3597.544 0 0.118 0.408272 0.47972 0.3925 0.3874 0.46942 0.42117 0.338 0.3433
3616.833 0.3388 0.166 0.123 0.3569 0.49292 0.412214 0.3553 0.49168 0.50393 0.48245
3636.123 0.4797 0.3726 0.262 0.253 0.46103 0.5698 0.4784 0.3936 0.246 0.236
3655.413 0.336 0.295 0.3335 0.3515 0.44024 0.5357 0.3688 0.3556 0.3367 0.27
3674.703 0.3139 0.265 0.19 0.252 0.3796 0.292 0.249 0.3715 0.3719 0.224
3693.993 0.3459 0.527 0.40378 0.237 0.206 0.255 0.279 0.344 0.3646 0.303
3713.282 0.28 0.3699 0.3466 0.2 0.3406 0.6303 0.5869 0.48797 0.40337 0.41951
3732.572 0.5097 0.43891 0.41972 0.409798 0.3751 0.3451 0.3 0.296 0.40307 0.47801
3751.862 0.3212 0.164 0.3185 0.3665 0.277 0.321 0.318 0.189 0.159 0.256
3771.152 0.3528 0.3577 0.126 0.081 0.235 0.293 0.3893 0.45711 0.3738 0.263
3790.441 0.3101 0.3702 0.45028 0.5971 0.5142 0.43998 0.371 0.258 0.3095 0.3926
3809.731 0.3746 0.3708 0.412993 0.302 0.175 0.212 0.257 0.411827 0.44686 0.21
3829.021 0.126 0.232 0.261 0.232 0.3387 0.41645 0.5402 0.557 0.46948 0.3682
3848.311 0.3132 0.42755 0.5578 0.44964 0.42723 0.5283 0.3834 0.208 0.3858 0.5832
3867.601 0.46068 0.3883 0.287 0.202 0.46582 0.6051 0.3252 0.18 0.179 0.205
3886.890 0.292 0.159 0.109 0.133 0.201 0.413507 0.47401 0.40432 0.278 0.414845
3906.180 0.40519 0.3092 0.43369 0.414522 0.416756 0.42787 0.243 0.299 0.5355 0.5098
3925.470 0.3427 0.224 0.279 0.3794 0.55 0.48559 0.42811 0.5439 0.5344 0.5834
3944.760 0.5531 0.3219 0.199 0.49042 0.7365 0.7081 0.50396 0.3565 0.47807 0.42578
3964.049 0.257 0.278 0.39868 0.7345 0.6823 0.3782 0.251 0.159 0.223 0.276
3983.339 0.376 0.3741 0.055 0.046 0.28 0.43088 0.554 0.5346 0.43454 0.3592
##END=
