##TITLE=Cyclohexanecarbonitrile
##JCAMP-DX=4.24
##DATA TYPE=INFRARED SPECTRUM
##ORIGIN=EPA-IR VAPOR PHASE LIBRARY
##OWNER=SRD/NIST
Collection (C) 2018 copyright by the U.S. Secretary of Commerce
on behalf of the United States of America. All rights reserved.
##CAS REGISTRY NO=766-05-2
##MOLFORM=C 7 H 11 N
##$NIST SOURCE=MSDC-IR
##STATE=gas
##XUNITS=1/CM
##YUNITS=ABSORBANCE
##XFACTOR=1.
##YFACTOR=0.001
##DELTAX=1.92898
##FIRSTX=549.8
##LASTX=4000.7
##FIRSTY=0.636
##MAXX=4000.7
##MINX=549.759
##MAXY=0.151432
##MINY=0
##NPOINTS=1790
##XYDATA=(X++(Y..Y))
549.759 0.636 0.721 0.711 0.578 0.436 0.307 0.275 0.48 0.578 0.645
569.049 0.8163 0.93641 0.9453 0.664 0.436 0.521 0.685 0.7681 0.642 0.634
588.339 0.85556 0.8021 0.672 0.702 0.827 0.7639 0.93924 1.0595 0.699 0.652
607.628 0.7684 0.7723 0.732 0.8303 0.8121 0.681 0.721 0.7564 0.731 0.656
626.918 0.631 0.667 0.7475 0.717 0.708 0.605 0.487 0.7576 0.8264 0.729
646.208 0.709 0.7438 0.8298 0.843829 0.7582 0.8127 0.9042 0.85305 0.86457 0.7863
665.498 0.675 0.676 0.7591 0.85731 0.9906 1.0291 0.9665 0.90291 0.9752 1.061
684.787 1.0831 1.0672 1.0067 1.0324 0.9669 0.7669 0.8298 0.89302 1.0084 1.2471
704.077 1.1549 1.0188 0.9963 0.93544 0.845089 0.734 0.787 0.92475 1.019 0.9963
723.367 0.93397 1.0185 0.9875 0.91382 0.9664 1.03 0.9634 0.9683 0.9881 1.0036
742.657 1.0095 0.9508 0.9642 0.9741 1.077 1.1522 1.1492 1.135 1.0702 1.0559
761.947 1.2216 1.4441 1.4277 1.4175 1.4859 1.2774 1.1718 1.3625 1.3738 1.2126
781.236 1.1519 1.1364 1.0458 0.9969 0.9885 0.90993 0.9432 0.9831 0.9739 0.9994
800.526 1.0407 0.92771 0.92495 1.0569 1.0352 1.0427 0.9632 1.0866 1.1894 1.0682
819.816 1.0587 1.2686 1.4473 1.5424 1.8213 1.942 1.862 1.982 2.212 2.392
839.106 2.412 2.262 2.362 2.592 2.712 2.562 2.412 2.512 2.572 2.302
858.395 2.082 2.242 2.312 2.312 2.372 2.312 2.332 2.422 2.572 2.722
877.685 2.762 2.852 3.012 3.152 3.162 3.132 3.032 2.702 2.662 2.862
896.975 2.762 2.592 2.342 2.162 2.002 1.892 1.8006 1.629 1.7011 1.6718
916.265 1.6342 1.77 1.8165 1.8379 1.8223 1.912 2.032 2.022 2.032 1.972
935.555 1.962 2.052 2.032 1.912 1.7698 1.6731 1.5144 1.4946 1.3966 1.226
954.844 1.3769 1.393 1.2308 1.2263 1.1984 1.1631 1.0642 0.85079 0.8263 1.003
974.134 1.1102 1.0807 1.2171 1.1083 0.87365 0.91629 1.0452 1.1888 1.1042 1.1496
993.424 1.3774 1.5938 1.7743 1.882 2.012 2.072 2.192 2.372 2.452 2.522
1012.714 2.482 2.332 2.302 2.282 2.182 2.042 2.302 2.532 2.392 2.342
1032.003 2.392 2.432 2.372 2.202 2.342 2.522 2.172 2.052 2.142 2.042
1051.293 2.042 1.952 1.8259 1.804 1.7092 1.5567 1.3176 1.059 1.1591 1.2539
1070.583 1.2045 1.0988 0.9954 1.0988 1.1998 1.1804 1.1736 1.1524 1.1935 1.4934
1089.873 1.4083 1.258 1.339 1.2987 1.2674 1.1204 1.0644 1.0203 0.87573 1.0834
1109.163 1.3277 0.9852 0.7818 0.9808 1.3186 1.3119 1.1255 1.4018 1.1087 0.848877
1128.452 1.0421 1.31 1.7051 1.7753 1.3741 1.2989 1.4998 1.4769 1.387 1.1773
1147.742 1.2571 1.4078 1.3412 1.2468 1.0974 1.1441 1.1881 1.1201 0.91713 0.682
1167.032 0.7778 0.71 0.552 0.7692 0.90684 0.8316 0.72 0.611 0.51 0.431
1186.322 0.612 0.632 0.671 0.9706 0.887 0.251 0 0.361 0.424 0.426
1205.611 0.561 0.7581 0.87743 0.615 0.494 0.547 0.569 0.608 0.83289 1.0241
1224.901 1.0115 1.1197 1.5049 1.5501 1.5477 1.5385 1.2622 1.4048 1.6019 1.5568
1244.191 1.626 1.6577 1.5136 1.5651 1.6126 1.5346 1.5014 1.3966 1.2494 1.4499
1263.481 1.667 1.6046 1.5742 1.5339 1.557 1.695 1.796 1.7444 1.6562 1.6043
1282.771 1.6153 1.6508 1.6859 1.7503 1.7859 1.7254 1.6449 1.587 1.6173 1.6955
1302.060 1.7532 1.7848 1.8158 1.882 1.952 2.032 2.032 2.042 2.132 2.172
1321.350 2.062 1.942 2.012 2.052 2.022 2.012 1.962 1.862 1.8325 1.882
1340.640 1.992 2.132 2.232 2.292 2.292 2.352 2.432 2.482 2.452 2.402
1359.930 2.372 2.302 2.292 2.172 2.002 1.902 1.7966 1.6944 1.5934 1.5295
1379.219 1.4575 1.3997 1.3392 1.2456 1.2147 1.2546 1.2242 1.204 1.2223 1.3008
1398.509 1.387 1.3867 1.4114 1.4441 1.4825 1.5634 1.6476 1.7268 1.8406 1.942
1417.799 2.002 2.122 2.272 2.492 2.822 3.222 3.782 4.522 5.452 6.582
1437.089 7.942 9.402 10.922 12.382 13.722 14.852 15.832 16.762 17.662 19.282
1456.378 20.812 19.142 16.692 15.572 14.552 13.492 12.302 10.732 9.142 7.812
1475.668 6.662 5.622 4.722 3.962 3.322 2.862 2.512 2.152 1.892 1.7433
1494.958 1.6685 1.5897 1.4898 1.3994 1.3684 1.3346 1.2568 1.2109 1.1363 1.0789
1514.248 1.0686 1.0656 1.0537 1.0612 1.0662 1.051 1.0271 1.0136 0.9792 0.9571
1533.538 1.0201 1.0079 1.0163 1.0263 0.9894 0.9638 0.9489 0.9767 1.0446 1.07
1552.827 0.9638 0.8528 0.89077 0.9402 0.9656 1.0323 1.0174 0.9736 0.91035 0.88398
1572.117 0.9578 1.0423 1.0671 1.0006 0.993 1.0137 1.0016 1.0405 1.0459 0.9825
1591.407 0.9567 0.92716 0.86611 0.88471 0.951 0.89436 0.7867 0.7592 0.7929 0.87581
1610.697 0.89169 0.842727 0.86078 0.87064 0.8165 0.84024 0.9026 0.851147 0.849651 0.86187
1629.986 0.8254 0.86543 0.85806 0.8135 0.849525 0.818 0.7953 0.8313 0.844895 0.87214
1649.276 0.8584 0.85404 0.87497 0.87357 0.86501 0.8147 0.84008 0.90488 0.88903 0.89105
1668.566 0.8915 0.90238 0.86273 0.7927 0.8105 0.85522 0.847929 0.8315 0.8582 0.85715
1687.856 0.85696 0.86358 0.827 0.847814 0.86685 0.842041 0.87779 0.85594 0.8167 0.86362
1707.146 0.88847 0.83426 0.88409 0.9682 0.9271 0.86657 0.84724 0.8566 0.86613 0.842382
1726.435 0.8228 0.848654 0.844137 0.8 0.785 0.7887 0.8281 0.8245 0.8053 0.8248
1745.725 0.8234 0.88879 0.90348 0.86285 0.85213 0.85656 0.88695 0.91446 0.91787 0.90901
1765.015 0.88378 0.7782 0.721 0.7944 0.8164 0.8109 0.86494 0.8847 0.90058 0.85324
1784.305 0.8142 0.8651 0.88308 0.87354 0.87604 0.87794 0.849695 0.85657 0.86939 0.83675
1803.594 0.85452 0.91132 0.90111 0.8648 0.8861 0.9108 0.91314 0.91729 0.8765 0.87723
1822.884 0.90121 0.93193 0.9756 0.93701 0.89092 0.93799 0.9496 0.9666 1.0154 0.9749
1842.174 0.9728 0.93179 0.89919 0.8865 0.86065 0.86742 0.88326 0.88739 0.88822 0.87406
1861.464 0.85847 0.90134 0.9138 0.92058 0.92608 0.89969 0.87538 0.87666 0.89893 0.91367
1880.754 0.91737 0.86132 0.83335 0.90392 0.93417 0.92952 0.9425 0.93504 0.9268 0.9468
1900.043 0.91624 0.86775 0.85535 0.86372 0.89581 0.92544 0.91209 0.88624 0.8905 0.88955
1919.333 0.83569 0.8124 0.83476 0.8264 0.8171 0.842054 0.86051 0.88016 0.91559 0.90141
1938.623 0.91529 0.88488 0.850944 0.91627 0.93909 0.9486 0.9749 1.0086 0.9814 0.976
1957.913 1.01 1.0257 1.0846 1.0886 1.0257 0.9917 1.0126 1.0408 1.0575 1.0383
1977.202 1.0165 0.9835 0.9708 0.981 0.9714 0.9446 0.91057 0.90663 0.966 0.9617
1996.492 0.92286 0.9761 0.9877 0.9885 0.90039 0.86155 0.9303 0.913 0.8912 0.91132
2015.782 0.88761 0.86016 0.9102 0.90621 0.88936 0.90994 0.93911 0.8829 0.86386 0.93565
2035.072 0.9624 0.91358 0.87226 0.90897 0.93335 1.0046 0.9934 0.9584 1.0033 0.9776
2054.362 0.93404 0.9279 0.89944 0.88614 0.90698 0.9496 0.9534 0.9632 0.9832 0.9661
2073.651 0.977 1.0211 1.0431 0.9614 0.92901 0.9633 0.9451 0.88936 0.90786 0.9632
2092.941 0.9906 1.0034 1.0126 1.0165 1.0055 0.9731 0.92831 0.9574 0.9851 0.9889
2112.231 0.9748 0.9884 1.0289 1.0281 0.9759 0.9636 1.0022 1.0198 0.9949 1.0011
2131.521 1.0718 1.1035 1.1029 1.0919 1.0625 1.0624 1.0921 1.1072 1.1278 1.1313
2150.810 1.1165 1.1083 1.0857 1.0372 1.0081 1.0272 1.093 1.146 1.1434 1.147
2170.100 1.1544 1.1233 1.1281 1.1406 1.1371 1.1645 1.1852 1.195 1.1999 1.1981
2189.390 1.2006 1.1789 1.1609 1.2168 1.2463 1.1769 1.1665 1.2337 1.225 1.2449
2208.680 1.2888 1.3467 1.3482 1.3611 1.4991 1.5722 1.6355 1.7728 1.912 2.062
2227.970 2.292 2.492 2.652 2.772 2.952 3.122 3.212 3.272 3.302 3.362
2247.259 3.312 3.142 2.962 2.772 2.632 2.412 2.122 1.892 1.6009 1.4016
2266.549 1.3317 1.2547 1.2324 1.2162 1.2054 1.205 1.2224 1.2105 1.215 1.2084
2285.839 1.203 1.227 1.1614 1.1219 1.1895 1.2402 1.2354 1.2112 1.2191 1.2083
2305.129 1.1093 1.1163 1.1424 1.071 1.1132 1.1611 1.1158 1.1164 1.1059 1.0515
2324.418 1.0424 1.042 1.1176 1.1665 1.0843 1.1009 1.1462 1.1152 1.1308 1.1927
2343.708 1.1701 1.105 1.108 1.2147 1.2221 1.1366 1.1382 1.1619 1.1486 1.2123
2362.998 1.3124 1.2986 1.2786 1.2932 1.3607 1.4105 1.3941 1.3546 1.3706 1.4137
2382.288 1.3643 1.3291 1.3544 1.3782 1.393 1.3547 1.3047 1.3199 1.3609 1.3123
2401.578 1.2074 1.2046 1.2478 1.1907 1.1079 1.1073 1.0763 1.0276 1.046 1.1152
2420.867 1.1573 1.1099 1.0514 1.0659 1.0479 1.0759 1.091 1.0681 1.0838 1.0392
2440.157 1.032 1.0637 1.0895 1.0741 1.0228 1.016 1.0959 1.1207 1.0792 0.9995
2459.447 0.9656 1.0535 1.0399 0.9914 1.0347 1.0962 1.0783 1.0897 1.1682 1.1987
2478.737 1.1841 1.1794 1.2062 1.2278 1.1903 1.2125 1.2303 1.2243 1.2166 1.17
2498.026 1.1708 1.1407 1.1834 1.2196 1.208 1.1844 1.1512 1.1561 1.1426 1.142
2517.316 1.1906 1.2279 1.2155 1.1884 1.1508 1.0965 1.079 1.0499 1.0203 1.0587
2536.606 1.0645 1.025 1.015 1.0608 1.1111 1.1126 1.133 1.1517 1.12 1.198
2555.896 1.2242 1.1582 1.1488 1.1329 1.2048 1.2672 1.2656 1.3226 1.3349 1.3462
2575.186 1.3396 1.3006 1.3737 1.387 1.3187 1.3366 1.4039 1.3915 1.3489 1.3417
2594.475 1.431 1.5176 1.4715 1.4681 1.4696 1.369 1.3874 1.3933 1.3746 1.4306
2613.765 1.37 1.3818 1.3868 1.4363 1.4537 1.4144 1.5242 1.5318 1.4867 1.5837
2633.055 1.6063 1.5345 1.5029 1.4823 1.5415 1.6559 1.7187 1.6999 1.6757 1.7445
2652.345 1.922 2.042 2.052 2.082 2.222 2.402 2.492 2.472 2.492 2.482
2671.634 2.402 2.392 2.422 2.392 2.402 2.382 2.222 2.152 2.212 2.172
2690.924 2.052 1.972 1.892 1.8339 1.8207 1.7578 1.6887 1.6594 1.5901 1.6022
2710.214 1.6188 1.5846 1.5733 1.5062 1.4217 1.4176 1.4828 1.4405 1.4043 1.4097
2729.504 1.4266 1.4211 1.3794 1.3401 1.316 1.3879 1.4382 1.4412 1.4398 1.378
2748.794 1.3302 1.4446 1.515 1.5075 1.5111 1.523 1.6497 1.7222 1.6929 1.7206
2768.083 1.7989 1.8249 1.841 1.882 1.942 1.992 2.072 2.102 2.132 2.222
2787.373 2.272 2.362 2.452 2.462 2.542 2.682 2.672 2.672 2.762 2.862
2806.663 2.832 2.812 2.842 2.892 2.942 2.932 3.052 3.172 3.182 3.262
2825.953 3.362 3.432 3.592 3.732 3.932 4.252 4.602 5.112 5.922 7.072
2845.242 8.522 10.392 12.852 15.752 18.972 22.422 25.692 28.492 31.222 34.142
2864.532 36.902 38.652 39.092 38.852 38.302 37.222 35.472 33.122 30.492 27.882
2883.822 25.442 23.162 21.062 19.392 18.062 17.092 16.472 16.312 16.402 16.592
2903.112 17.182 18.082 19.172 20.522 22.312 24.692 27.382 30.352 33.632 37.552
2922.401 42.692 49.042 56.742 65.942 76.212 87.302 98.682 109.822 120.982 131.492
2941.691 140.432 148.452 151.432 148.632 145.702 137.952 127.382 120.372 112.222 100.472
2960.981 86.892 72.602 58.832 46.562 36.352 28.202 21.732 16.922 13.132 10.202
2980.271 8.122 6.512 5.332 4.372 3.852 3.572 3.172 2.822 2.532 2.342
2999.561 2.232 2.112 2.062 1.992 1.922 1.8396 1.7768 1.7795 1.7088 1.6621
3018.850 1.6688 1.5704 1.4531 1.5443 1.6153 1.6045 1.5649 1.5023 1.5105 1.5248
3038.140 1.5169 1.5269 1.639 1.6453 1.5983 1.6022 1.5701 1.6146 1.5868 1.559
3057.430 1.607 1.618 1.6601 1.6415 1.5551 1.5009 1.5648 1.5996 1.4876 1.3999
3076.720 1.3306 1.295 1.2353 1.1368 1.1907 1.2351 1.1964 1.2035 1.2483 1.3169
3096.009 1.341 1.2593 1.2085 1.1311 1.1126 1.1567 1.1069 1.1584 1.1458 1.1059
3115.299 1.0195 1.0138 1.1713 1.1497 1.0451 1.0263 1.0133 1.0735 1.13 1.1388
3134.589 1.1724 1.1387 1.0746 1.0653 1.1087 1.2192 1.3448 1.3819 1.3339 1.3102
3153.879 1.3276 1.3399 1.4224 1.4893 1.5124 1.4663 1.5027 1.5322 1.5448 1.658
3173.169 1.5901 1.507 1.5459 1.5462 1.6082 1.6146 1.4599 1.3997 1.4166 1.3792
3192.458 1.3804 1.3961 1.3662 1.3586 1.4494 1.4319 1.2393 1.214 1.2603 1.1825
3211.748 1.125 1.1136 1.0602 1.0309 0.9853 0.9554 0.9287 0.851989 0.89824 0.9937
3231.038 0.9822 0.93157 0.8086 0.735 0.88528 1.0011 1.0321 1.0304 1.0307 1.0478
3250.328 0.91667 0.7947 0.842875 0.91876 0.9451 1.0297 1.1214 1.0537 0.9721 0.9985
3269.617 0.9924 0.9972 1.0725 1.1124 1.0531 0.9677 0.90585 0.9216 1.0502 1.1051
3288.907 1.1159 1.1481 1.1726 1.2047 1.1666 1.0872 1.1199 1.1909 1.1252 1.0629
3308.197 1.0731 0.9967 0.9549 1.1046 1.1602 1.1091 1.0819 1.0359 1.0278 1.0621
3327.487 1.0446 1.0242 1.0389 1.1134 1.1279 1.1045 1.1875 1.1346 1.008 1.0472
3346.777 1.0948 1.0923 1.0762 0.9906 0.9623 0.9832 1.0051 1.0717 1.0832 0.9757
3366.066 0.9528 1.0336 1.0009 0.9292 0.90852 0.85311 0.84942 0.90088 0.90809 0.841473
3385.356 0.742 0.83329 0.91989 0.8144 0.8086 0.8244 0.8034 0.90019 0.9798 0.9826
3404.646 0.9659 0.9691 1.0235 0.9513 0.92319 1.023 1.0259 0.949 0.90322 0.92913
3423.936 0.983 0.9828 0.92482 0.8656 1.0222 1.1446 1.1682 1.2523 1.1479 1.0536
3443.225 1.0656 1.104 1.1201 1.1601 1.1432 1.0798 1.0964 1.0725 1.0788 1.0316
3462.515 0.9864 0.9868 0.90987 0.92381 1.0346 1.0606 0.87731 0.8227 0.845655 0.723
3481.805 0.664 0.7665 0.83266 0.9576 0.91888 0.723 0.779 0.765 0.7788 0.85972
3501.095 0.8182 0.85519 0.9541 0.91011 0.91208 0.9546 0.844169 0.8144 0.9559 0.93306
3520.385 0.89089 0.89985 0.8179 0.8171 0.8157 0.8272 0.88573 0.8026 0.91011 1.0319
3539.674 0.88591 0.8112 0.88167 0.9701 0.93713 0.9208 0.9515 0.89339 0.797 0.92776
3558.964 1.0124 0.9892 0.8895 0.7957 0.8287 0.91304 1.0076 0.9985 0.9588 1.0234
3578.254 0.9941 0.94153 0.9583 0.8229 0.91603 1.0391 0.9959 0.92781 0.86211 0.9552
3597.544 1.0442 1.025 0.92285 0.91738 0.91152 0.87482 0.91603 0.9733 0.9985 0.9831
3616.833 0.88919 0.7597 0.8126 0.733 0.691 0.87421 0.9691 0.89533 0.8084 0.7543
3636.123 0.7854 0.92914 0.94153 0.8057 0.8218 0.9383 0.89099 0.8097 0.90197 1.0546
3655.413 1.0542 0.9786 0.90104 0.8245 0.93153 0.9713 0.7772 0.8125 0.92776 1.0018
3674.703 1.0085 0.9573 1.0671 1.02 0.92256 0.89044 1.0098 1.1283 1.055 0.9798
3693.993 1.0262 1.1294 1.0629 0.9742 0.9096 0.89211 0.94083 0.947 0.91798 0.87368
3713.282 0.85908 0.91365 1.0389 1.0124 0.94162 0.9859 0.9588 0.90489 0.776 0.91186
3732.572 1.0611 0.9643 0.88391 0.9488 1.0295 1.0458 1.2142 1.1526 0.9432 0.90135
3751.862 0.9797 0.9563 1.0637 1.1026 0.93422 0.93136 0.93101 0.8243 0.90363 0.9995
3771.152 0.9964 1.0853 1.0697 0.90411 0.86691 1.0219 1.0276 0.9755 0.9741 1.0809
3790.441 1.0731 0.92327 0.90901 1.016 1.1084 1.1044 0.974 0.9644 1.1361 1.1339
3809.731 1.1952 1.2815 1.1405 1.0356 1.0386 1.0115 1.0073 0.93912 0.91662 1.0726
3829.021 1.1513 1.1662 1.2207 1.08 0.9554 0.86721 0.87131 0.9751 1.0276 1.1777
3848.311 1.175 1.0286 0.9072 0.91014 0.90033 0.9468 1.0041 0.91313 0.9682 1.0439
3867.601 0.91568 0.86902 1.0483 1.1078 0.92124 0.733 0.7876 0.92523 0.9942 0.9553
3886.890 0.794 0.9467 1.0445 0.83779 0.8018 1.0147 1.1198 0.9758 0.9508 1.0191
3906.180 1.0584 1.068 1.051 0.9993 0.88374 0.7942 0.88244 0.9759 0.89809 0.7823
3925.470 0.7644 0.8203 0.93423 1.0042 1.1253 1.1258 0.9449 0.89693 0.89116 1.0626
3944.760 1.2106 1.1673 1.2273 1.2667 1.1016 1.1355 1.077 1.0022 1.0972 1.0555
3964.049 1.072 1.1562 1.3489 1.3048 1.3101 1.3544 1.2319 1.278 1.192 1.0119
3983.339 1.1071 1.0922 0.92897 0.9749 1.1815 1.3641 1.342 1.2722 1.3508 1.4029
##END=
