##TITLE=3-Iodoanisole
##JCAMP-DX=4.24
##DATA TYPE=INFRARED SPECTRUM
##ORIGIN=NIST Mass Spectrometry Data Center
##OWNER=NIST Standard Reference Data Program
Collection (C) 2018 copyright by the U.S. Secretary of Commerce
on behalf of the United States of America. All rights reserved.
##CAS REGISTRY NO=766-85-8
##MOLFORM=C 7 H 7 I O
##$NIST SOURCE=MSDC-IR
##SPECTROMETER/DATA SYSTEM=HP-GC/MS/IRD
##STATE=gas
##XUNITS=1/CM
##YUNITS=ABSORBANCE
##XFACTOR=1.0
##YFACTOR=0.000002700
##DELTAX=4.0
##FIRSTX=550.0
##LASTX=3846.0
##FIRSTY=0.000524
##MAXX=3846
##MINX=550
##MAXY=0.027
##MINY=0
##NPOINTS=825
##XYDATA=(X++(Y..Y))
550.0 194 315 241 207 133 75 70 45 26 54
590.0 32 3 9 44 42 39 76 63 58 70
630.0 88 122 156 232 397 510 516 489 443 508
670.0 682 915 1172 1261 1099 854 608 406 247 130
710.0 87 80 61 50 40 63 99 142 214 375
750.0 626 919 1319 1790 2118 2334 2364 1989 1504 1112
790.0 839 727 771 984 1396 2037 2848 3564 3766 3329
830.0 2485 1591 1074 858 739 691 664 661 672 668
870.0 606 515 449 374 278 205 144 103 81 64
910.0 54 48 44 46 47 33 36 52 52 51
950.0 58 93 110 124 156 201 285 420 712 1109
990.0 1347 1386 1157 861 838 1029 1386 1945 2691 3565
1030.0 4445 5126 5376 5038 4169 3068 2128 1589 1333 1141
1070.0 925 744 634 570 543 489 410 351 302 266
1110.0 266 269 248 232 241 237 214 236 264 305
1150.0 402 586 772 883 943 932 929 964 989 996
1190.0 990 1006 1072 1201 1435 1819 2416 3289 4354 5284
1230.0 5924 6227 6219 6071 5656 4934 3888 2896 2385 2233
1270.0 2325 2640 3140 3655 3936 3813 3295 2613 2057 1699
1310.0 1462 1317 1251 1220 1180 1064 902 729 551 414
1350.0 318 262 235 228 240 258 295 356 428 511
1390.0 605 708 843 1049 1358 1729 2053 2287 2359 2250
1430.0 2114 2072 2219 2450 2580 2619 2612 2884 3715 5087
1470.0 6680 7677 7404 5979 3979 2307 1383 953 778 718
1510.0 696 690 667 636 620 636 699 821 1001 1262
1550.0 1670 2285 3226 4535 5954 7381 8606 9539 10000 9648
1590.0 8270 6229 4219 2730 1787 1233 898 680 536 426
1630.0 339 280 241 221 210 204 194 185 177 173
1670.0 166 167 172 157 150 140 135 130 120 124
1710.0 130 145 159 167 168 165 168 157 131 115
1750.0 113 117 114 105 95 90 92 93 85 85
1790.0 91 100 103 108 122 130 135 132 132 132
1830.0 137 144 151 150 140 125 100 89 80 59
1870.0 49 51 50 41 45 59 73 82 94 113
1910.0 124 129 130 119 98 74 55 42 26 18
1950.0 21 21 11 9 16 21 31 35 37 43
1990.0 44 46 47 45 47 55 67 76 98 121
2030.0 135 151 173 190 197 198 204 210 208 204
2070.0 194 177 155 134 121 111 105 97 87 83
2110.0 70 54 45 41 38 32 24 27 27 26
2150.0 24 21 20 12 7 14 19 7 3 6
2190.0 5 4 8 6 3 13 16 17 24 24
2230.0 24 22 15 19 21 23 18 18 28 26
2270.0 29 39 41 45 49 51 48 45 48 44
2310.0 32 24 24 25 24 20 16 22 25 27
2350.0 31 32 27 28 23 20 35 47 49 57
2390.0 73 75 79 83 70 59 54 52 52 39
2430.0 28 35 37 31 42 48 47 51 55 61
2470.0 66 68 86 97 90 94 100 93 92 98
2510.0 94 89 75 66 64 42 33 40 39 34
2550.0 30 36 39 47 60 56 54 49 34 27
2590.0 38 33 25 36 38 37 40 38 38 43
2630.0 50 42 43 43 41 37 34 36 29 40
2670.0 40 38 43 42 35 27 22 30 39 35
2710.0 30 31 30 30 34 40 34 25 33 40
2750.0 33 38 39 35 50 45 45 63 81 86
2790.0 94 105 121 147 166 189 210 242 290 364
2830.0 475 619 820 1002 1081 1060 924 758 650 581
2870.0 528 479 453 441 454 493 558 633 727 813
2910.0 856 887 925 946 965 1030 1148 1347 1590 1791
2950.0 1881 1844 1706 1548 1383 1197 1029 884 783 742
2990.0 754 829 972 1192 1446 1583 1530 1323 1013 751
3030.0 598 510 455 408 394 397 416 466 555 685
3070.0 847 969 980 922 800 632 496 395 305 225
3110.0 184 147 118 107 102 104 98 109 116 105
3150.0 96 81 70 67 64 67 56 35 41 49
3190.0 50 44 47 46 35 42 51 53 55 52
3230.0 34 25 43 32 18 26 25 32 19 14
3270.0 32 25 22 29 33 31 37 36 34 34
3310.0 24 9 11 32 25 19 21 10 17 25
3350.0 31 36 32 34 31 17 13 19 31 28
3390.0 19 28 28 18 10 16 39 32 13 27
3430.0 25 30 38 27 24 27 27 9 10 33
3470.0 34 22 25 31 33 26 22 24 26 29
3510.0 29 25 11 27 41 40 46 57 69 65
3550.0 56 32 38 41 32 32 36 41 31 15
3590.0 17 29 30 40 49 41 30 30 36 32
3630.0 34 30 32 43 45 49 38 22 30 37
3670.0 35 21 0 9 31 38 32 37 49 52
3710.0 48 45 38 36 49 45 27 45 61 51
3750.0 63 66 41 35 42 37 37 26 18 33
3790.0 44 47 33 17 21 32 33 25 28 39
3830.0 55 47 32 31 33
##END=
