##TITLE=3-Octen-2-ol
##JCAMP-DX=4.24
##DATA TYPE=INFRARED SPECTRUM
##ORIGIN=EPA-IR VAPOR PHASE LIBRARY
##OWNER=SRD/NIST
Collection (C) 2018 copyright by the U.S. Secretary of Commerce
on behalf of the United States of America. All rights reserved.
##CAS REGISTRY NO=76649-14-4
##MOLFORM=C 8 H 16 O
##$NIST SOURCE=MSDC-IR
##STATE=gas
##XUNITS=1/CM
##YUNITS=ABSORBANCE
##XFACTOR=1.
##YFACTOR=0.001
##DELTAX=1.92934
##FIRSTX=549.9
##LASTX=3999.5
##FIRSTY=2.101
##MAXX=3999.53
##MINX=549.863
##MAXY=0.088111
##MINY=0
##NPOINTS=1789
##XYDATA=(X++(Y..Y))
549.863 2.101 1.971 1.6404 1.5152 1.791 1.6787 1.2156 1.2933 1.4489 1.3505
569.156 1.27 1.3294 1.3854 1.4023 1.3761 1.2435 1.2164 1.2172 1.1219 1.0946
588.450 1.2269 1.4034 1.3906 1.2518 1.2061 1.3068 1.4437 1.3561 1.2302 1.228
607.743 1.2216 1.2613 1.3963 1.3829 1.3354 1.3344 1.3385 1.3631 1.2616 1.2464
627.037 1.4323 1.4765 1.349 1.3032 1.2799 1.3276 1.3289 1.3455 1.443 1.3808
646.330 1.32 1.27 1.19 1.2069 1.1979 1.1433 1.139 1.2393 1.235 1.095
665.624 1.1246 1.152 1.0854 1.0048 0.9168 0.9978 1.0804 1.0704 1.059 0.9777
684.917 1.0074 1.0545 1.0422 1.1126 1.188 1.2192 1.1791 1.1173 1.1809 1.2167
704.210 1.1733 1.1867 1.235 1.2994 1.3467 1.3822 1.4885 1.5701 1.6295 1.6481
723.504 1.6612 1.821 1.961 2.071 2.181 2.351 2.501 2.581 2.631 2.591
742.797 2.621 2.671 2.581 2.451 2.281 2.271 2.201 2.011 1.981 2.021
762.091 1.991 1.961 1.961 1.911 1.881 1.861 1.871 1.861 1.841 1.831
781.384 1.821 1.801 1.7516 1.7348 1.781 1.7287 1.6583 1.6918 1.771 1.811
800.678 1.791 1.841 1.951 1.981 1.991 2.041 2.191 2.321 2.461 2.521
819.971 2.641 2.811 2.901 3.081 3.281 3.491 3.691 3.841 4.041 4.251
839.264 4.451 4.661 4.841 5.001 5.141 5.201 5.281 5.491 5.611 5.621
858.558 5.671 5.681 5.631 5.551 5.461 5.371 5.241 5.101 4.941 4.801
877.851 4.671 4.501 4.471 4.411 4.351 4.391 4.341 4.401 4.581 4.731
897.145 4.901 5.191 5.471 5.681 5.981 6.331 6.761 7.221 7.751 8.301
916.438 8.731 9.111 9.601 10.091 10.521 10.881 11.241 11.611 11.941 12.401
935.732 12.901 13.441 14.081 14.741 15.471 16.261 17.101 17.901 18.761 19.641
955.025 20.551 21.551 22.461 23.251 23.881 24.251 24.361 24.191 23.701 22.961
974.318 21.921 20.561 19.051 17.491 16.031 14.741 13.601 12.621 11.861 11.251
993.612 10.831 10.621 10.561 10.541 10.601 10.811 11.041 11.361 11.761 12.181
1012.905 12.641 13.171 13.781 14.321 14.861 15.511 16.281 17.101 17.901 18.801
1032.199 19.721 20.581 21.371 22.081 22.691 23.201 23.571 23.861 24.051 24.101
1051.492 24.051 23.981 23.861 23.671 23.481 23.241 22.821 22.391 21.891 21.291
1070.786 20.581 19.821 19.111 18.441 17.751 17.001 16.331 15.771 15.271 14.901
1090.079 14.601 14.421 14.281 14.151 14.131 14.141 14.191 14.271 14.291 14.311
1109.372 14.301 14.361 14.511 14.641 14.591 14.381 14.231 14.101 14.011 13.901
1128.666 13.691 13.411 13.241 13.151 13.091 12.881 12.571 12.311 12.041 11.751
1147.959 11.301 10.861 10.491 10.011 9.581 9.111 8.441 7.861 7.451 7.061
1167.253 6.721 6.421 6.171 5.921 5.691 5.641 5.521 5.411 5.461 5.451
1186.546 5.471 5.601 5.781 5.831 6.061 6.281 6.371 6.601 6.681 6.671
1205.840 6.301 6.641 7.371 7.321 7.301 7.361 7.571 8.241 8.901 9.191
1225.133 9.651 10.211 10.701 11.101 11.801 12.831 13.661 14.421 15.121 15.621
1244.426 15.971 16.051 15.871 15.691 15.191 14.341 13.591 12.941 12.311 11.731
1263.720 11.121 10.581 10.081 9.651 9.321 8.981 8.821 8.741 8.661 8.641
1283.013 8.671 8.761 8.811 8.901 9.121 9.171 9.271 9.441 9.531 9.691
1302.307 9.801 9.851 9.921 9.971 10.011 10.081 10.161 10.291 10.411 10.631
1321.600 10.941 11.291 11.611 11.991 12.471 12.911 13.281 13.721 14.161 14.471
1340.894 14.691 14.871 15.071 15.261 15.431 15.621 15.861 16.101 16.421 16.861
1360.187 17.321 17.741 18.121 18.471 18.821 19.181 19.551 19.881 20.131 20.291
1379.480 20.261 19.991 19.481 18.811 17.991 16.801 15.511 14.291 13.041 11.861
1398.774 10.841 9.931 9.121 8.431 7.891 7.431 7.021 6.701 6.461 6.361
1418.067 6.321 6.311 6.351 6.441 6.551 6.791 7.211 7.671 8.161 8.751
1437.361 9.331 9.781 10.261 10.711 11.161 11.611 11.971 12.221 12.341 12.421
1456.654 12.501 12.391 12.141 11.881 11.541 11.061 10.471 9.881 9.311 8.641
1475.948 7.931 7.171 6.471 5.801 5.171 4.691 4.311 3.971 3.611 3.281
1495.241 3.091 2.871 2.631 2.521 2.391 2.271 2.271 2.151 2.011 1.951
1514.534 1.901 1.871 1.781 1.801 1.7464 1.6292 1.6463 1.6679 1.5976 1.4697
1533.828 1.4397 1.4332 1.3936 1.3629 1.3787 1.367 1.2475 1.2025 1.258 1.2072
1553.121 1.1803 1.171 1.0955 1.0526 1.0144 1.029 1.0003 0.9245 0.9663 0.999
1572.415 0.9667 0.9105 0.9062 1.0008 1.0226 0.978 0.9333 0.9337 0.9077 0.8893
1591.708 0.9383 0.9343 0.9127 0.9476 0.962 0.9308 0.9215 0.9072 0.9459 0.9664
1611.002 0.9355 0.928 0.9401 0.9442 0.9617 1.0419 1.0879 1.0891 1.0397 1.0689
1630.295 1.1618 1.2195 1.3119 1.3688 1.4379 1.4965 1.5144 1.641 1.811 1.921
1649.588 2.071 2.361 2.671 2.901 3.131 3.371 3.571 3.721 3.761 3.771
1668.882 3.691 3.461 3.191 2.841 2.451 2.151 1.861 1.6456 1.499 1.3731
1688.175 1.3118 1.2403 1.1733 1.1398 1.1117 1.068 1.0195 0.9997 1.0207 0.9906
1707.469 0.9325 0.8971 0.921 0.9729 0.9749 0.9855 0.9956 0.9976 0.9813 0.9571
1726.762 0.9528 0.9961 1.0742 1.1047 1.0543 1.0243 1.0762 1.0979 1.0809 1.1159
1746.056 1.1638 1.2174 1.2824 1.2419 1.1792 1.2213 1.2049 1.1755 1.2111 1.2122
1765.349 1.251 1.2585 1.2487 1.2813 1.2672 1.2731 1.2821 1.2788 1.3198 1.332
1784.642 1.3408 1.3552 1.2929 1.2907 1.3194 1.2462 1.1915 1.207 1.2166 1.2164
1803.936 1.1975 1.1249 1.0763 1.0602 1.0128 0.9475 0.9193 0.9098 0.9088 0.9257
1823.229 0.8866 0.8642 0.8824 0.85943 0.80465 0.7471 0.7503 0.75986 0.7083 0.6927
1842.523 0.6979 0.722 0.6934 0.6677 0.6954 0.6749 0.6841 0.679 0.642 0.646
1861.816 0.6729 0.655 0.6966 0.7241 0.653 0.618 0.577 0.578 0.613 0.619
1881.110 0.627 0.652 0.6933 0.66 0.64 0.635 0.597 0.566 0.584 0.613
1900.403 0.581 0.56 0.55 0.564 0.549 0.54 0.588 0.601 0.601 0.588
1919.696 0.582 0.624 0.602 0.548 0.573 0.564 0.557 0.527 0.448 0.458
1938.990 0.493 0.524 0.527 0.479 0.499 0.517 0.485 0.469 0.445 0.494
1958.283 0.523 0.503 0.491 0.48 0.52 0.526 0.537 0.53 0.465 0.477
1977.577 0.54 0.591 0.558 0.477 0.513 0.535 0.481 0.5 0.501 0.48
1996.870 0.522 0.563 0.56 0.538 0.542 0.565 0.562 0.529 0.524 0.541
2016.164 0.552 0.594 0.608 0.615 0.592 0.565 0.569 0.584 0.605 0.597
2035.457 0.591 0.582 0.579 0.566 0.543 0.528 0.56 0.612 0.599 0.557
2054.750 0.519 0.516 0.549 0.532 0.518 0.507 0.507 0.504 0.537 0.579
2074.044 0.572 0.556 0.531 0.526 0.499 0.503 0.525 0.518 0.538 0.545
2093.337 0.528 0.536 0.517 0.51 0.513 0.535 0.571 0.553 0.545 0.518
2112.631 0.502 0.523 0.558 0.572 0.557 0.54 0.533 0.541 0.554 0.567
2131.924 0.557 0.553 0.564 0.56 0.56 0.573 0.602 0.592 0.636 0.6815
2151.218 0.653 0.654 0.66 0.659 0.65 0.6637 0.6709 0.6675 0.6617 0.648
2170.511 0.6614 0.6643 0.631 0.659 0.6915 0.658 0.644 0.6659 0.6704 0.6645
2189.804 0.613 0.572 0.62 0.643 0.643 0.661 0.63 0.617 0.646 0.6677
2209.098 0.637 0.613 0.627 0.644 0.628 0.641 0.7055 0.6838 0.632 0.644
2228.391 0.638 0.626 0.632 0.633 0.6754 0.6672 0.657 0.6639 0.6704 0.6615
2247.685 0.648 0.653 0.642 0.6676 0.6703 0.631 0.611 0.633 0.645 0.632
2266.978 0.635 0.648 0.6859 0.659 0.642 0.6649 0.6787 0.6684 0.618 0.634
2286.272 0.6621 0.654 0.617 0.606 0.628 0.624 0.604 0.64 0.6809 0.6933
2305.565 0.7187 0.7244 0.7394 0.7453 0.7201 0.7216 0.6984 0.6616 0.69 0.6999
2324.858 0.657 0.648 0.6985 0.7047 0.655 0.657 0.66 0.656 0.6752 0.6811
2344.152 0.6891 0.7262 0.7355 0.7025 0.6653 0.66 0.661 0.6669 0.6985 0.7029
2363.445 0.7214 0.7076 0.6908 0.7113 0.758 0.78607 0.81527 0.82992 0.77741 0.77366
2382.739 0.79009 0.80735 0.83131 0.85135 0.8302 0.8141 0.8878 0.9136 0.9044 0.8934
2402.032 0.85088 0.83886 0.85991 0.8984 0.85723 0.812 0.8682 0.9306 0.942 0.9019
2421.326 0.84276 0.8812 0.9194 0.864 0.81756 0.79977 0.82452 0.8714 0.83722 0.79924
2440.619 0.82972 0.82728 0.83666 0.84371 0.83708 0.81447 0.80207 0.80058 0.81312 0.80291
2459.912 0.78676 0.81417 0.81376 0.79575 0.770849 0.767541 0.81629 0.84452 0.81994 0.763976
2479.206 0.7003 0.7427 0.78922 0.78697 0.78071 0.80993 0.78213 0.7197 0.80097 0.82522
2498.499 0.7949 0.78378 0.78913 0.81514 0.80517 0.81377 0.84181 0.8692 0.8642 0.85533
2517.793 0.8671 0.8712 0.83062 0.8094 0.8691 0.9417 0.9497 0.9068 0.8799 0.9002
2537.086 0.9297 0.9592 0.9366 0.8855 0.9243 0.9384 0.9443 0.9552 0.9417 0.9921
2556.380 1.0752 1.081 1.0608 1.0651 1.0831 1.1046 1.1122 1.1549 1.1712 1.1557
2575.673 1.1875 1.2619 1.2799 1.2521 1.2358 1.2156 1.2402 1.2035 1.2072 1.3116
2594.966 1.295 1.3239 1.3783 1.3297 1.3208 1.3459 1.3468 1.355 1.3982 1.3981
2614.260 1.3935 1.4553 1.5039 1.5256 1.4435 1.4097 1.4617 1.4851 1.5247 1.5257
2633.553 1.4725 1.4999 1.5116 1.4271 1.427 1.4865 1.4934 1.5175 1.5418 1.5577
2652.847 1.6164 1.6061 1.5754 1.6048 1.6535 1.6698 1.6344 1.6229 1.6661 1.7296
2672.140 1.7501 1.7259 1.7409 1.7565 1.801 1.801 1.821 1.821 1.7397 1.6981
2691.434 1.7352 1.7382 1.7145 1.6918 1.7032 1.6407 1.5492 1.6608 1.7035 1.7208
2710.727 1.791 1.801 1.851 1.861 1.801 1.901 2.031 2.001 1.961 2.041
2730.020 2.081 2.131 2.291 2.301 2.291 2.401 2.451 2.431 2.511 2.601
2749.314 2.541 2.531 2.551 2.521 2.451 2.501 2.551 2.541 2.541 2.501
2768.607 2.521 2.671 2.741 2.731 2.761 2.801 2.951 3.081 3.141 3.201
2787.901 3.321 3.491 3.561 3.571 3.691 3.911 4.081 4.191 4.341 4.521
2807.194 4.671 4.841 4.941 5.091 5.361 5.581 5.861 6.241 6.661 7.031
2826.488 7.461 8.021 8.661 9.411 10.261 11.291 12.421 13.611 15.001 16.501
2845.781 18.071 19.851 21.831 23.961 26.281 28.601 30.791 32.901 34.981 36.891
2865.074 38.571 40.131 41.411 42.371 43.211 44.001 44.721 45.141 45.101 44.821
2884.368 44.381 43.791 43.051 42.241 41.501 40.791 40.231 40.061 40.391 41.161
2903.661 42.231 43.641 45.431 47.601 50.201 53.151 56.321 59.841 63.731 67.811
2922.955 72.001 76.181 79.991 83.101 85.591 87.271 88.111 87.931 86.401 83.911
2942.248 80.761 77.321 73.921 70.721 68.121 66.341 65.491 65.621 66.901 69.171
2961.542 72.181 75.591 78.671 80.941 82.051 82.171 81.771 80.641 78.391 74.871
2980.835 70.361 65.491 60.541 55.581 50.481 45.321 40.231 35.351 31.081 27.671
3000.128 24.981 22.791 21.011 19.571 18.381 17.351 16.511 15.611 14.921 14.301
3019.422 13.711 13.271 12.811 12.331 11.891 11.461 11.081 10.621 10.081 9.661
3038.715 9.011 8.491 8.001 7.521 7.101 6.571 6.181 5.721 5.281 5.091
3058.009 4.831 4.471 4.221 4.011 3.811 3.571 3.421 3.301 3.191 3.131
3077.302 2.911 2.841 2.841 2.701 2.631 2.581 2.691 2.621 2.371 2.241
3096.596 2.331 2.331 2.261 2.191 2.001 1.941 2.011 1.941 1.811 1.771
3115.889 1.7267 1.6985 1.6016 1.6122 1.7082 1.6952 1.5563 1.5143 1.4814 1.4084
3135.182 1.4669 1.4509 1.4264 1.4288 1.395 1.3191 1.2908 1.2938 1.3511 1.3981
3154.476 1.2686 1.2064 1.1822 1.1386 1.1072 1.1502 1.1603 1.0876 1.1961 1.3585
3173.769 1.2993 1.1849 1.2014 1.1717 1.0615 1.0963 1.1742 1.1479 1.0111 0.9091
3193.063 1.0076 1.0569 0.9709 0.80843 0.7441 0.80322 0.81429 0.9389 1.0407 0.9618
3212.356 0.9129 0.83544 0.82323 0.6948 0.505 0.517 0.544 0.6968 0.7303 0.567
3231.650 0.456 0.436 0.391 0.42 0.54 0.482 0.447 0.377 0.368 0.411
3250.943 0.24 0.424 0.42 0.231 0.257 0.191 0.085 0 0.077 0.107
3270.236 0.075 0.098 0.182 0.089 0.115 0.284 0.223 0.216 0.334 0.325
3289.530 0.185 0.06 0.107 0.232 0.252 0.172 0.157 0.182 0.149 0.104
3308.823 0.202 0.356 0.386 0.309 0.161 0.152 0.142 0.184 0.251 0.204
3328.117 0.17 0.239 0.239 0.213 0.326 0.372 0.326 0.329 0.381 0.319
3347.410 0.23 0.252 0.221 0.255 0.317 0.348 0.468 0.444 0.283 0.253
3366.704 0.397 0.424 0.36 0.42 0.485 0.455 0.332 0.334 0.267 0.197
3385.997 0.292 0.324 0.213 0.263 0.428 0.362 0.31 0.359 0.332 0.181
3405.290 0.36 0.508 0.375 0.408 0.412 0.214 0.201 0.354 0.44 0.321
3424.584 0.267 0.409 0.537 0.591 0.476 0.234 0.174 0.269 0.279 0.188
3443.877 0.181 0.359 0.51 0.453 0.289 0.281 0.333 0.476 0.42 0.307
3463.171 0.348 0.286 0.222 0.184 0.229 0.397 0.429 0.344 0.387 0.389
3482.464 0.307 0.235 0.195 0.257 0.349 0.226 0.129 0.192 0.093 0.018
3501.758 0.215 0.245 0.025 0.088 0.192 0.111 0.02 0.034 0.101 0.22
3521.051 0.412 0.4 0.169 0.133 0.097 0.03 0.092 0.042 0.028 0.091
3540.344 0.078 0.084 0.15 0.16 0.284 0.279 0.181 0.265 0.292 0.291
3559.638 0.309 0.184 0.217 0.367 0.422 0.46 0.552 0.488 0.464 0.437
3578.931 0.295 0.335 0.327 0.301 0.349 0.44 0.423 0.492 0.618 0.54
3598.225 0.567 0.574 0.611 0.75755 0.8843 0.9616 1.0414 1.2588 1.3801 1.4912
3617.518 1.6431 1.821 2.111 2.381 2.651 3.121 3.431 3.691 4.191 4.691
3636.812 5.201 5.641 6.201 6.611 6.891 7.281 7.381 7.341 7.101 6.751
3656.105 6.411 5.961 5.351 4.721 4.141 3.651 3.241 2.751 2.361 2.041
3675.398 1.891 1.705 1.4613 1.3343 1.2317 1.1979 1.0658 0.8748 0.8662 0.9387
3694.692 0.760058 0.586 0.597 0.571 0.563 0.496 0.467 0.622 0.654 0.523
3713.985 0.485 0.514 0.47 0.513 0.498 0.479 0.605 0.569 0.544 0.558
3733.279 0.477 0.464 0.502 0.52 0.501 0.453 0.38 0.336 0.405 0.475
3752.572 0.49 0.459 0.402 0.342 0.385 0.42 0.344 0.432 0.449 0.375
3771.866 0.367 0.431 0.449 0.259 0.295 0.448 0.5 0.445 0.388 0.418
3791.159 0.41 0.473 0.476 0.482 0.495 0.455 0.551 0.532 0.475 0.48
3810.452 0.48 0.553 0.463 0.429 0.575 0.61 0.564 0.596 0.691 0.661
3829.746 0.612 0.609 0.606 0.605 0.621 0.6685 0.643 0.626 0.6847 0.6916
3849.039 0.651 0.619 0.66 0.659 0.484 0.524 0.6897 0.6933 0.589 0.562
3868.333 0.618 0.63 0.6926 0.808 0.7259 0.523 0.59 0.626 0.6634 0.6779
3887.626 0.543 0.532 0.61 0.608 0.633 0.6947 0.644 0.631 0.586 0.6614
3906.920 0.7035 0.592 0.53 0.61 0.64 0.623 0.614 0.537 0.521 0.509
3926.213 0.476 0.493 0.586 0.601 0.591 0.54 0.53 0.523 0.528 0.588
3945.506 0.6828 0.7008 0.622 0.621 0.609 0.6708 0.658 0.642 0.646 0.536
3964.800 0.587 0.7096 0.617 0.511 0.497 0.53 0.585 0.548 0.478 0.458
3984.093 0.569 0.607 0.597 0.595 0.516 0.566 0.567 0.503 0.572
##END=
