##TITLE=cis,cis,trans-1,2,3-Trimethylcyclohexane
##JCAMP-DX=4.24
##DATA TYPE=INFRARED SPECTRUM
##ORIGIN=NIST Mass Spectrometry Data Center
##OWNER=NIST Standard Reference Data Program
Collection (C) 2018 copyright by the U.S. Secretary of Commerce
on behalf of the United States of America. All rights reserved.
##CAS REGISTRY NO=7667-55-2
##MOLFORM=C 9 H 18
##$NIST SOURCE=MSDC-IR
##SPECTROMETER/DATA SYSTEM=HP-GC/MS/IRD
##STATE=gas
##XUNITS=1/CM
##YUNITS=ABSORBANCE
##XFACTOR=1.0
##YFACTOR=0.000004200
##DELTAX=4.0
##FIRSTX=550.0
##LASTX=3846.0
##FIRSTY=0.000101
##MAXX=3846
##MINX=550
##MAXY=0.042
##MINY=0
##NPOINTS=825
##XYDATA=(X++(Y..Y))
550.0 24 24 40 15 11 33 31 11 0 10
590.0 21 33 38 55 77 93 112 108 98 82
630.0 79 83 59 39 34 37 37 20 25 31
670.0 25 28 35 31 20 26 32 31 42 51
710.0 50 38 37 37 37 41 46 47 42 44
750.0 43 36 37 36 41 50 47 46 52 51
790.0 48 55 63 61 62 65 66 67 74 77
830.0 85 87 81 81 81 77 70 70 66 64
870.0 68 74 82 81 71 67 64 55 53 58
910.0 63 64 66 76 96 115 118 122 120 124
950.0 131 136 151 174 191 204 224 242 242 231
990.0 215 196 173 147 125 113 113 115 110 104
1030.0 106 121 140 160 172 172 167 149 117 91
1070.0 77 71 72 81 95 107 114 116 109 99
1110.0 89 80 80 80 80 88 94 93 88 91
1150.0 95 101 100 107 112 102 90 76 73 68
1190.0 71 81 88 89 93 88 80 79 72 58
1230.0 56 62 67 70 75 79 85 83 76 72
1270.0 75 78 81 85 93 99 101 106 110 110
1310.0 115 123 127 128 133 142 154 165 170 180
1350.0 204 244 298 383 516 691 871 1018 1110 1063
1390.0 898 701 478 303 208 168 157 165 193 248
1430.0 338 457 598 772 963 1133 1273 1373 1345 1211
1470.0 1051 863 660 483 341 238 176 141 113 94
1510.0 86 78 68 62 56 50 51 51 42 35
1550.0 43 45 43 43 39 40 43 40 43 48
1590.0 50 49 52 53 52 48 46 47 44 43
1630.0 43 39 42 46 44 38 34 39 41 35
1670.0 31 32 31 33 31 34 31 23 23 21
1710.0 21 24 23 24 26 26 25 24 21 19
1750.0 17 16 20 16 18 21 21 21 20 18
1790.0 15 15 19 16 15 21 18 18 19 15
1830.0 13 16 15 11 11 11 13 17 16 13
1870.0 11 12 12 10 9 8 9 12 12 11
1910.0 14 11 8 11 13 10 8 5 3 5
1950.0 10 8 8 7 8 10 8 8 6 7
1990.0 10 10 5 5 8 7 7 5 1 2
2030.0 5 4 5 7 6 3 5 7 6 4
2070.0 4 2 1 0 1 3 4 5 5 6
2110.0 3 3 1 0 2 5 8 9 8 5
2150.0 6 6 2 2 8 11 9 5 4 3
2190.0 6 11 11 7 6 8 5 2 2 4
2230.0 2 2 1 0 2 7 8 9 9 7
2270.0 9 10 7 6 7 7 9 10 11 8
2310.0 9 12 12 14 16 15 15 12 15 19
2350.0 19 18 19 21 21 23 26 25 25 27
2390.0 23 18 20 22 24 26 31 31 30 29
2430.0 28 28 29 29 25 23 24 27 27 25
2470.0 22 22 24 24 23 25 28 29 30 32
2510.0 38 37 31 34 43 44 45 47 43 45
2550.0 49 50 54 60 64 69 77 81 88 97
2590.0 102 107 114 111 110 115 117 120 123 127
2630.0 131 133 136 140 144 150 156 160 165 170
2670.0 176 179 173 164 162 155 148 143 137 133
2710.0 136 142 147 151 156 166 170 168 171 170
2750.0 169 169 168 167 167 170 182 192 196 207
2790.0 220 232 250 271 288 313 349 391 443 499
2830.0 574 710 932 1240 1613 2034 2497 3012 3459 3893
2870.0 4470 5038 5444 5775 5921 5672 5270 4937 4764 4908
2910.0 5429 6316 7395 8274 9131 10000 9638 8639 7918 7128
2950.0 6438 6089 6110 6242 6238 6069 5589 4778 3863 2961
2990.0 2135 1441 959 670 509 416 358 320 293 275
3030.0 264 255 248 244 239 232 227 224 221 216
3070.0 211 213 222 222 218 212 207 197 185 180
3110.0 174 167 166 159 149 143 144 143 139 133
3150.0 132 133 128 123 119 113 102 96 96 92
3190.0 89 84 76 72 65 61 62 56 54 51
3230.0 45 46 43 39 42 49 45 42 42 43
3270.0 43 45 49 50 48 42 45 51 43 37
3310.0 41 40 34 36 35 31 27 30 31 28
3350.0 25 24 25 24 21 13 22 32 20 17
3390.0 19 19 23 26 28 26 22 17 21 25
3430.0 17 14 18 17 16 15 18 22 25 22
3470.0 17 17 14 9 9 13 19 19 14 13
3510.0 12 17 17 11 13 15 11 15 16 15
3550.0 13 12 6 4 6 10 9 5 6 4
3590.0 5 5 2 5 5 0 1 4 8 14
3630.0 19 15 6 5 6 4 9 18 16 11
3670.0 6 7 13 10 13 13 18 22 17 15
3710.0 18 18 22 23 16 23 22 17 18 21
3750.0 22 20 20 25 23 16 14 13 18 21
3790.0 22 22 19 23 28 29 25 19 16 18
3830.0 22 17 19 23 20
##END=
