##TITLE=cis,trans,trans-1,2,4-Trimethylcyclohexane
##JCAMP-DX=4.24
##DATA TYPE=INFRARED SPECTRUM
##ORIGIN=NIST Mass Spectrometry Data Center
##OWNER=NIST Standard Reference Data Program
Collection (C) 2018 copyright by the U.S. Secretary of Commerce
on behalf of the United States of America. All rights reserved.
##CAS REGISTRY NO=7667-60-9
##MOLFORM=C 9 H 18
##$NIST SOURCE=MSDC-IR
##SPECTROMETER/DATA SYSTEM=HP-GC/MS/IRD
##STATE=gas
##XUNITS=1/CM
##YUNITS=ABSORBANCE
##XFACTOR=1.0
##YFACTOR=0.000001400
##DELTAX=4.0
##FIRSTX=550.0
##LASTX=3846.0
##FIRSTY=0.000269
##MAXX=3846
##MINX=550
##MAXY=0.014
##MINY=0
##NPOINTS=825
##XYDATA=(X++(Y..Y))
550.0 192 105 7 1 29 19 47 54 45 42
590.0 10 16 16 45 102 124 121 123 136 112
630.0 118 137 99 73 90 133 143 142 165 127
670.0 144 182 199 169 88 46 41 80 109 113
710.0 155 171 139 121 114 91 91 138 146 133
750.0 143 157 157 144 135 136 145 183 195 177
790.0 127 81 79 116 147 166 173 155 38 34
830.0 161 189 171 162 178 157 158 198 188 161
870.0 163 176 160 153 192 214 191 195 210 180
910.0 174 194 185 176 186 209 249 273 288 286
950.0 260 255 270 278 286 296 304 291 278 249
990.0 221 218 222 247 252 253 261 253 241 234
1030.0 237 209 178 220 255 231 193 177 178 152
1070.0 140 142 127 128 126 115 133 163 189 200
1110.0 197 215 239 220 170 138 121 98 97 116
1150.0 130 129 130 146 153 144 128 104 94 94
1190.0 91 86 103 102 103 103 73 100 124 126
1230.0 145 158 187 239 264 268 277 273 240 209
1270.0 205 212 229 244 257 262 277 278 257 224
1310.0 185 172 180 191 192 192 210 225 238 260
1350.0 291 336 398 467 573 706 820 893 883 809
1390.0 680 501 353 274 225 200 206 226 257 321
1430.0 409 548 758 995 1252 1470 1606 1604 1488 1285
1470.0 1080 859 658 504 388 316 258 213 189 157
1510.0 133 134 136 128 126 121 101 103 97 87
1550.0 93 102 103 95 97 101 112 119 113 103
1590.0 87 97 114 124 122 93 90 104 114 122
1630.0 120 116 103 101 115 127 127 110 97 97
1670.0 105 105 106 119 106 85 95 91 90 82
1710.0 71 73 73 70 75 82 77 71 73 73
1750.0 72 82 81 70 68 73 67 56 56 55
1790.0 56 48 49 54 44 55 63 40 38 52
1830.0 55 61 52 58 65 62 51 44 52 47
1870.0 40 42 39 42 46 38 27 33 49 52
1910.0 38 36 36 36 39 36 33 46 53 42
1950.0 36 43 51 41 32 28 21 27 40 42
1990.0 33 34 29 36 35 29 28 24 17 6
2030.0 9 20 29 26 20 31 34 20 19 24
2070.0 28 33 24 9 6 16 19 27 26 33
2110.0 34 21 43 43 28 29 26 26 12 6
2150.0 19 22 30 31 23 25 21 13 19 35
2190.0 45 48 40 28 29 27 16 13 20 31
2230.0 30 27 19 25 24 18 20 22 15 2
2270.0 15 32 34 27 15 15 16 9 24 34
2310.0 33 34 30 28 26 27 18 11 15 33
2350.0 36 29 37 31 17 24 22 25 44 53
2390.0 48 51 60 58 60 56 42 44 47 46
2430.0 49 50 50 34 25 21 31 39 28 45
2470.0 58 49 49 43 43 57 63 53 50 41
2510.0 37 37 42 58 61 69 62 57 69 56
2550.0 49 56 53 59 61 68 89 98 103 111
2590.0 106 111 131 125 137 144 143 158 166 167
2630.0 156 167 167 141 149 159 163 151 145 163
2670.0 164 156 155 144 137 149 150 146 150 170
2710.0 174 178 200 226 232 233 250 259 266 253
2750.0 227 225 223 222 228 245 255 264 285 301
2790.0 311 335 368 412 433 454 517 568 639 798
2830.0 1033 1341 1747 2231 2746 3201 3557 3856 4252 4758
2870.0 5090 5234 5298 5291 5267 5215 5265 5573 6201 7093
2910.0 8328 9587 10000 9861 9396 8528 7644 6761 6086 5905
2950.0 6189 6972 7423 7020 6563 5980 5049 4054 3159 2402
2990.0 1718 1137 741 536 436 384 353 322 300 288
3030.0 270 256 252 256 231 220 245 236 235 250
3070.0 237 235 245 241 237 249 221 185 207 225
3110.0 209 190 202 211 207 212 212 192 173 172
3150.0 171 172 169 165 167 168 171 145 124 130
3190.0 116 112 101 79 66 64 70 84 71 71
3230.0 78 71 70 85 94 80 74 87 89 94
3270.0 120 120 107 76 54 47 23 31 59 40
3310.0 39 51 39 44 31 39 60 59 74 63
3350.0 37 70 82 54 51 53 46 42 38 50
3390.0 44 46 50 39 42 73 79 69 80 69
3430.0 54 50 61 68 63 55 61 64 63 69
3470.0 59 45 27 17 29 54 52 30 46 57
3510.0 25 28 47 45 47 27 36 49 34 43
3550.0 61 62 36 42 57 37 9 13 26 12
3590.0 0 18 21 6 6 22 51 64 52 31
3630.0 34 39 51 59 47 46 43 50 75 105
3670.0 112 88 66 75 83 75 59 33 42 51
3710.0 55 54 38 57 74 77 67 67 71 74
3750.0 73 86 67 49 58 55 52 60 69 60
3790.0 77 89 87 68 55 62 54 87 116 90
3830.0 54 66 85 94 76
##END=
