##TITLE=N-(2-Carboxymethylphenyl)isatin
##JCAMP-DX=4.24
##DATA TYPE=INFRARED SPECTRUM
##ORIGIN=EPA-IR VAPOR PHASE LIBRARY
##OWNER=SRD/NIST
Collection (C) 2018 copyright by the U.S. Secretary of Commerce
on behalf of the United States of America. All rights reserved.
##CAS REGISTRY NO=76681-87-3
##MOLFORM=C 16 H 11 N O 4
##$NIST SOURCE=MSDC-IR
##STATE=gas
##XUNITS=1/CM
##YUNITS=ABSORBANCE
##XFACTOR=1.
##YFACTOR=0.001
##DELTAX=1.92934
##FIRSTX=549.9
##LASTX=3999.5
##FIRSTY=2.61
##MAXX=3999.53
##MINX=549.863
##MAXY=0.09151
##MINY=0
##NPOINTS=1789
##XYDATA=(X++(Y..Y))
549.863 2.61 2.66 2.68 2.57 2.47 2.39 2.25 2.16 2.1257 2.1005
569.156 1.9317 1.7424 1.5855 1.4509 1.4356 1.3066 1.21377 1.2439 1.13795 1.0713
588.450 1.0512 1.011 0.968 0.937 1.005 1.003 0.897 0.813 0.812 0.804
607.743 0.83 0.824 0.782 0.835 0.853 0.896 0.965 1.0854 1.3568 1.6107
627.037 1.9071 2.24 2.52 2.62 2.44 2.19 1.7378 1.2443 1.0571 0.992
646.330 0.924 0.912 0.969 1.011 1.13487 1.4068 1.697 1.9719 2.19 2.26
665.624 2.22 2.0452 1.8327 1.7049 1.5732 1.5824 1.6534 1.7759 2.1037 2.42
684.917 2.65 2.88 2.94 2.86 2.83 2.86 3.02 3.41 4.03 4.95
704.210 6.15 7.4 8.61 9.53 9.6 8.91 7.95 6.76 5.56 4.59
723.504 3.82 3.31 3.01 2.85 2.87 3.09 3.56 4.42 5.97 8.48
742.797 11.81 15.47 18.94 21.62 22.33 20.91 18.65 16 12.82 9.75
762.091 7.36 5.54 4.19 3.29 2.74 2.42 2.25 2.21 2.18 2.16
781.384 2.17 2.21 2.22 2.23 2.26 2.28 2.18 2.0315 1.9911 1.9848
800.678 1.9866 2.0863 2.33 2.66 2.98 3.31 3.65 3.83 3.79 3.64
819.971 3.36 2.94 2.53 2.19 1.9179 1.7244 1.5467 1.4147 1.3363 1.3162
839.264 1.2641 1.2866 1.3975 1.4966 1.7207 2.0472 2.44 2.84 3.12 3.26
858.558 3.18 2.89 2.55 2.15 1.8558 1.7694 1.7588 1.8165 1.9185 1.9842
877.851 1.9869 1.9397 1.8056 1.663 1.5367 1.3891 1.2841 1.22527 1.21829 1.22484
897.145 1.19728 1.18715 1.21757 1.2689 1.341 1.4327 1.5304 1.7006 1.9898 2.41
916.438 3.05 3.93 4.99 6.17 7.21 7.82 7.75 7.02 5.9 4.66
935.732 3.61 2.89 2.51 2.35 2.32 2.4 2.48 2.55 2.64 2.7
955.025 2.8 2.91 2.98 3.06 3.14 3.15 3.09 3.01 2.86 2.68
974.318 2.56 2.55 2.68 2.85 3.02 3.12 3.08 2.89 2.58 2.24
993.612 1.9227 1.6952 1.5424 1.4219 1.3338 1.2921 1.2955 1.2821 1.2568 1.2621
1012.905 1.2925 1.3247 1.4003 1.5281 1.6561 1.7752 1.9446 2.16 2.44 2.78
1032.199 3.19 3.6 4 4.33 4.53 4.59 4.52 4.29 3.95 3.65
1051.492 3.44 3.3 3.26 3.34 3.54 3.88 4.34 4.96 5.8 6.91
1070.786 8.32 10.06 12.06 14.18 16.27 18.12 19.5 20.2 20.18 19.56
1090.079 18.49 17.1 15.59 14.12 12.78 11.65 10.77 10.21 9.91 9.81
1109.372 9.93 10.37 11.19 12.39 13.88 15.59 17.32 18.84 19.98 20.56
1128.666 20.62 20.4 20.01 19.62 19.36 19.17 18.87 18.18 17.12 15.77
1147.959 14.45 13.55 13.11 13.05 13.24 13.06 12.15 10.91 9.52 8.19
1167.253 7.24 6.77 6.72 7.06 7.76 8.71 9.92 11.21 12.47 13.64
1186.546 14.48 14.89 14.77 14.12 13.14 11.99 10.8 9.72 8.72 7.84
1205.840 7.13 6.49 5.92 5.5 5.25 5.09 5.01 5.07 5.29 5.54
1225.133 5.85 6.26 6.74 7.31 8.05 8.96 10.08 11.5 13.25 15.46
1244.426 18.14 21.12 24.23 27.15 29.51 31.1 31.75 31.54 30.64 29.24
1263.720 27.65 26.03 24.54 23.46 22.89 23.02 23.82 25.11 26.89 29.02
1283.013 31.29 33.51 35.34 36.48 36.81 36.38 35.51 34.68 34.16 33.92
1302.307 33.67 32.95 31.29 28.58 25.22 21.65 18.29 15.42 13.07 11.22
1321.600 9.76 8.57 7.62 6.92 6.39 6.02 5.78 5.64 5.66 5.82
1340.894 6.11 6.58 7.35 8.43 9.84 11.7 13.99 16.58 19.28 21.8
1360.187 23.73 24.7 24.49 23.04 20.54 17.41 14.19 11.23 8.8 7.04
1379.480 5.83 4.99 4.4 3.99 3.71 3.46 3.3 3.19 3.11 3.02
1398.774 2.92 2.84 2.82 2.84 2.83 2.82 2.83 2.86 2.9 2.97
1418.067 3.04 3.15 3.35 3.65 4.1 4.74 5.64 6.71 7.87 8.99
1437.361 9.98 10.49 10.56 10.54 10.67 11.01 11.65 12.51 13.44 14.43
1456.654 15.86 18.03 21.15 25.48 30.78 36.13 39.86 41.02 38.82 33.78
1475.948 27.44 21.19 17.1 15.57 15.95 17.47 19.44 21.18 22.1 21.9
1495.241 20.59 18.4 15.87 13.38 11.22 9.44 7.96 6.82 5.94 5.18
1514.534 4.61 4.15 3.78 3.48 3.23 3.04 2.89 2.75 2.62 2.56
1533.828 2.5 2.45 2.45 2.41 2.39 2.43 2.45 2.47 2.52 2.58
1553.121 2.66 2.77 2.96 3.19 3.41 3.68 4.03 4.47 5 5.56
1572.415 6.25 6.98 7.67 8.29 8.86 9.54 10.34 11.4 12.93 15.05
1591.708 17.73 20.89 24.38 27.85 31 33.67 35.84 37.73 39.53 41.18
1611.002 42.44 43 42.35 40.17 36.71 32.19 27.07 22.11 17.83 14.34
1630.295 11.69 9.79 8.35 7.14 6.19 5.42 4.76 4.28 3.9 3.62
1649.588 3.4 3.23 3.1 3.03 2.98 2.94 2.95 2.94 2.9 2.86
1668.882 2.86 2.9 2.95 3.02 3.09 3.18 3.31 3.44 3.59 3.76
1688.175 3.9 4.06 4.28 4.51 4.8 5.12 5.47 5.87 6.21 6.56
1707.469 6.93 7.3 7.69 8.13 8.65 9.28 10.04 10.99 12.19 13.7
1726.762 15.69 18.29 21.69 26.15 32.28 39.56 47.81 57.22 66.24 73.87
1746.056 79.71 84.28 87.79 90.43 91.51 89.83 83.72 73.85 62.5 52.46
1765.349 46.06 43.98 45.53 48.78 51.93 52.99 50.87 46.05 39.57 32.58
1784.642 26.01 20.5 16.36 13.25 10.79 8.9 7.57 6.55 5.76 5.13
1803.936 4.61 4.21 3.89 3.64 3.37 3.15 3.01 2.87 2.78 2.74
1823.229 2.7 2.64 2.64 2.63 2.57 2.5 2.47 2.43 2.36 2.29
1842.523 2.24 2.23 2.21 2.17 2.18 2.18 2.17 2.14 2.0413 1.9483
1861.816 1.8692 1.7949 1.7075 1.6298 1.5638 1.5115 1.4976 1.4685 1.4486 1.4581
1881.110 1.4392 1.4108 1.4254 1.4496 1.444 1.4164 1.3736 1.3318 1.3368 1.3739
1900.403 1.426 1.4638 1.5211 1.6229 1.6842 1.7345 1.8247 1.8788 1.862 1.8293
1919.696 1.8165 1.7551 1.6553 1.6059 1.5881 1.5579 1.5627 1.5666 1.5853 1.6094
1938.990 1.5953 1.596 1.5945 1.5755 1.5665 1.5375 1.4971 1.4623 1.4191 1.3761
1958.283 1.3334 1.315 1.2769 1.22569 1.1845 1.14667 1.1017 1.026 0.951 0.89
1977.577 0.835 0.829 0.822 0.792 0.796 0.799 0.793 0.799 0.807 0.8
1996.870 0.794 0.827 0.864 0.868 0.834 0.818 0.842 0.858 0.846 0.829
2016.164 0.83 0.829 0.805 0.776 0.775 0.78 0.79 0.803 0.784 0.746
2035.457 0.741 0.785 0.834 0.854 0.833 0.833 0.848 0.838 0.848 0.839
2054.750 0.847 0.888 0.888 0.892 0.915 0.919 0.919 0.933 0.974 0.983
2074.044 0.971 0.991 0.99 0.973 0.957 0.953 0.963 0.945 0.938 0.955
2093.337 0.961 0.974 0.989 0.983 0.994 1.002 0.983 0.963 0.94 0.936
2112.631 0.938 0.923 0.89 0.868 0.886 0.893 0.869 0.839 0.814 0.765
2131.924 0.735 0.719 0.691 0.683 0.666 0.653 0.656 0.644 0.613 0.605
2151.218 0.618 0.618 0.601 0.603 0.611 0.608 0.624 0.613 0.613 0.651
2170.511 0.634 0.638 0.655 0.634 0.627 0.615 0.598 0.609 0.62 0.602
2189.804 0.596 0.609 0.6 0.599 0.611 0.619 0.626 0.623 0.62 0.647
2209.098 0.651 0.638 0.672 0.695 0.682 0.692 0.713 0.702 0.688 0.694
2228.391 0.713 0.703 0.67 0.665 0.677 0.698 0.727 0.757 0.762 0.761
2247.685 0.762 0.77 0.783 0.782 0.8 0.799 0.786 0.783 0.798 0.831
2266.978 0.847 0.84 0.819 0.811 0.844 0.872 0.864 0.868 0.861 0.847
2286.272 0.86 0.857 0.838 0.843 0.854 0.834 0.834 0.842 0.846 0.836
2305.565 0.811 0.804 0.795 0.805 0.794 0.802 0.837 0.838 0.845 0.867
2324.858 0.899 0.909 0.893 0.881 0.85 0.826 0.797 0.784 0.768 0.769
2344.152 0.759 0.732 0.725 0.718 0.716 0.678 0.653 0.65 0.624 0.578
2363.445 0.571 0.598 0.625 0.635 0.634 0.658 0.649 0.626 0.624 0.633
2382.739 0.655 0.645 0.637 0.642 0.654 0.655 0.647 0.639 0.632 0.645
2402.032 0.644 0.636 0.619 0.584 0.583 0.596 0.609 0.634 0.639 0.628
2421.326 0.625 0.646 0.669 0.658 0.639 0.657 0.69 0.696 0.692 0.671
2440.619 0.677 0.711 0.711 0.711 0.695 0.641 0.653 0.687 0.679 0.651
2459.912 0.618 0.63 0.664 0.668 0.623 0.608 0.629 0.64 0.622 0.603
2479.206 0.627 0.627 0.614 0.634 0.685 0.697 0.678 0.697 0.723 0.71
2498.499 0.721 0.758 0.777 0.737 0.702 0.717 0.703 0.676 0.665 0.638
2517.793 0.597 0.595 0.6 0.59 0.592 0.611 0.614 0.614 0.638 0.687
2537.086 0.704 0.724 0.753 0.768 0.8 0.803 0.81 0.818 0.832 0.868
2556.380 0.888 0.875 0.883 0.918 0.889 0.849 0.822 0.791 0.751 0.729
2575.673 0.739 0.734 0.71 0.651 0.634 0.659 0.642 0.634 0.667 0.668
2594.966 0.651 0.667 0.707 0.722 0.687 0.647 0.642 0.624 0.624 0.635
2614.260 0.62 0.605 0.593 0.579 0.567 0.58 0.575 0.564 0.556 0.536
2633.553 0.521 0.549 0.559 0.536 0.536 0.492 0.473 0.477 0.492 0.526
2652.847 0.522 0.517 0.538 0.551 0.527 0.544 0.566 0.57 0.586 0.587
2672.140 0.555 0.543 0.561 0.549 0.54 0.543 0.521 0.521 0.517 0.485
2691.434 0.474 0.49 0.471 0.396 0.375 0.4 0.404 0.443 0.466 0.393
2710.727 0.367 0.386 0.375 0.384 0.438 0.428 0.397 0.378 0.35 0.402
2730.020 0.468 0.5 0.482 0.47 0.458 0.502 0.562 0.528 0.518 0.516
2749.314 0.522 0.565 0.581 0.596 0.591 0.599 0.586 0.542 0.538 0.551
2768.607 0.592 0.613 0.593 0.539 0.501 0.514 0.522 0.518 0.5 0.462
2787.901 0.444 0.434 0.429 0.418 0.447 0.508 0.462 0.407 0.397 0.411
2807.194 0.419 0.443 0.459 0.452 0.48 0.532 0.518 0.453 0.496 0.554
2826.488 0.552 0.588 0.594 0.555 0.644 0.805 0.876 0.924 1.0551 1.19298
2845.781 1.2797 1.3498 1.4223 1.4171 1.318 1.17445 1.072 0.925 0.821 0.782
2865.074 0.704 0.663 0.703 0.737 0.683 0.714 0.743 0.701 0.713 0.737
2884.368 0.787 0.868 0.897 0.881 0.916 0.97 0.99 0.981 1.001 1.0614
2903.661 1.0626 1.0763 1.0954 1.1152 1.17398 1.2244 1.17216 1.1048 1.13794 1.1013
2922.955 1.1117 1.1034 1.0392 1.0664 1.0823 1.1132 1.12912 1.0958 1.20682 1.3923
2942.248 1.4871 1.6745 1.9798 2.34 2.88 3.66 4.57 5.54 6.44 7.05
2961.542 7.19 6.81 6.07 5.06 4 3.09 2.43 1.9545 1.6573 1.4715
2980.835 1.3055 1.20578 1.15386 1.12309 1.19038 1.2821 1.3214 1.4124 1.5034 1.5884
3000.128 1.6542 1.7043 1.75 1.7353 1.7637 1.8294 1.7838 1.7219 1.726 1.7856
3019.422 1.877 1.8788 1.9758 2.17 2.24 2.34 2.51 2.64 2.65 2.63
3038.715 2.61 2.67 2.8 2.91 3.06 3.06 2.91 2.87 2.94 3.21
3058.009 3.55 3.92 4.27 4.5 4.69 4.81 4.97 5.16 5.38 5.67
3077.302 6.02 6.24 6.32 6.23 5.93 5.57 4.98 4.35 3.72 3.02
3096.596 2.5 2.0944 1.7381 1.43 1.15221 1.0628 0.974 0.867 0.755 0.609
3115.889 0.588 0.555 0.554 0.612 0.475 0.411 0.513 0.46 0.397 0.492
3135.182 0.441 0.413 0.503 0.515 0.507 0.383 0.417 0.505 0.427 0.375
3154.476 0.366 0.308 0.352 0.378 0.304 0.231 0.208 0.269 0.302 0.275
3173.769 0.294 0.314 0.333 0.323 0.289 0.377 0.385 0.299 0.256 0.253
3193.063 0.232 0.24 0.369 0.344 0.291 0.227 0.1 0.156 0.191 0.243
3212.356 0.26 0.239 0.259 0.177 0.12 0.147 0.184 0.264 0.274 0.194
3231.650 0.09 0.13 0.218 0.183 0.176 0.198 0.171 0.193 0.188 0.182
3250.943 0.149 0.11 0.131 0.168 0.167 0.03 0.01 0.09 0.15 0.158
3270.236 0.198 0.279 0.271 0.266 0.219 0.09 0 0.141 0.288 0.279
3289.530 0.222 0.11 0.1 0.212 0.202 0.197 0.179 0.1 0.11 0.1
3308.823 0.182 0.273 0.305 0.317 0.317 0.323 0.292 0.266 0.204 0.174
3328.117 0.237 0.231 0.185 0.244 0.237 0.235 0.348 0.33 0.274 0.166
3347.410 0.144 0.19 0.244 0.361 0.338 0.278 0.292 0.318 0.277 0.304
3366.704 0.361 0.304 0.258 0.236 0.297 0.311 0.267 0.381 0.432 0.331
3385.997 0.279 0.275 0.328 0.408 0.423 0.467 0.505 0.428 0.358 0.469
3405.290 0.507 0.411 0.356 0.382 0.366 0.368 0.425 0.521 0.547 0.445
3424.584 0.388 0.396 0.423 0.353 0.414 0.476 0.436 0.454 0.419 0.409
3443.877 0.455 0.453 0.534 0.565 0.606 0.706 0.678 0.739 0.902 0.883
3463.171 0.913 1.0332 1.0341 0.994 1.0541 1.14129 1.0715 1.1181 1.21431 1.2787
3482.464 1.401 1.4847 1.6104 1.7065 1.7289 1.6958 1.616 1.6204 1.5686 1.4983
3501.758 1.3602 1.1094 0.998 0.973 1.007 1.008 1.026 1.0462 0.969 0.933
3521.051 0.913 1.015 1.12654 1.1305 1.22757 1.2956 1.2802 1.18304 1.1174 1.0915
3540.344 1.009 1.004 0.924 0.801 0.771 0.724 0.658 0.63 0.67 0.727
3559.638 0.744 0.737 0.638 0.6 0.575 0.473 0.451 0.493 0.527 0.576
3578.931 0.619 0.595 0.543 0.468 0.433 0.459 0.555 0.596 0.552 0.512
3598.225 0.521 0.572 0.544 0.484 0.574 0.551 0.497 0.533 0.511 0.595
3617.518 0.582 0.474 0.473 0.494 0.498 0.485 0.451 0.428 0.43 0.487
3636.812 0.572 0.597 0.51 0.485 0.543 0.504 0.474 0.543 0.597 0.521
3656.105 0.433 0.498 0.536 0.538 0.578 0.563 0.468 0.468 0.538 0.501
3675.398 0.485 0.571 0.633 0.662 0.712 0.662 0.641 0.571 0.475 0.549
3694.692 0.564 0.59 0.627 0.642 0.6 0.57 0.539 0.446 0.455 0.574
3713.985 0.698 0.668 0.593 0.626 0.667 0.647 0.646 0.666 0.652 0.645
3733.279 0.662 0.62 0.676 0.677 0.586 0.568 0.604 0.623 0.592 0.629
3752.572 0.624 0.565 0.568 0.64 0.691 0.689 0.716 0.718 0.682 0.658
3771.866 0.644 0.629 0.581 0.565 0.598 0.667 0.742 0.726 0.67 0.625
3791.159 0.582 0.572 0.648 0.684 0.636 0.65 0.639 0.657 0.712 0.698
3810.452 0.632 0.629 0.66 0.639 0.647 0.608 0.649 0.637 0.535 0.541
3829.746 0.537 0.555 0.511 0.5 0.621 0.652 0.598 0.619 0.634 0.604
3849.039 0.534 0.556 0.62 0.581 0.627 0.66 0.585 0.529 0.614 0.739
3868.333 0.74 0.717 0.699 0.653 0.696 0.741 0.631 0.584 0.652 0.677
3887.626 0.624 0.668 0.73 0.67 0.686 0.691 0.643 0.638 0.679 0.675
3906.920 0.672 0.707 0.673 0.665 0.732 0.749 0.716 0.727 0.726 0.703
3926.213 0.715 0.74 0.772 0.756 0.749 0.727 0.708 0.72 0.711 0.691
3945.506 0.644 0.647 0.668 0.705 0.717 0.651 0.67 0.753 0.723 0.686
3964.800 0.679 0.632 0.658 0.621 0.568 0.636 0.638 0.63 0.711 0.712
3984.093 0.646 0.678 0.724 0.701 0.653 0.702 0.729 0.701 0.716
##END=
