##TITLE=2-Amino-4,6-Dimethylpyrimidine
##JCAMP-DX=4.24
##DATA TYPE=INFRARED SPECTRUM
##ORIGIN=NIST Mass Spectrometry Data Center
##OWNER=NIST Standard Reference Data Program
Collection (C) 2018 copyright by the U.S. Secretary of Commerce
on behalf of the United States of America. All rights reserved.
##CAS REGISTRY NO=767-15-7
##MOLFORM=C 6 H 9 N 3
##$NIST SOURCE=MSDC-IR
##SPECTROMETER/DATA SYSTEM=HP-GC/MS/IRD
##STATE=gas
##XUNITS=1/CM
##YUNITS=ABSORBANCE
##XFACTOR=1.0
##YFACTOR=0.000003700
##DELTAX=4.0
##FIRSTX=550.0
##LASTX=3846.0
##FIRSTY=0.000622
##MAXX=3846
##MINX=550
##MAXY=0.037
##MINY=0
##NPOINTS=825
##XYDATA=(X++(Y..Y))
550.0 168 206 106 112 69 55 49 27 40 64
590.0 61 74 73 88 112 127 143 161 161 145
630.0 134 128 137 118 90 87 87 86 91 81
670.0 78 91 96 103 130 164 199 252 322 389
710.0 439 467 488 492 479 453 409 373 355 354
750.0 364 364 356 344 343 341 343 364 384 411
790.0 465 529 567 611 691 757 834 911 839 680
830.0 563 443 336 255 197 154 132 124 124 119
870.0 110 111 117 120 131 150 173 185 192 198
910.0 208 221 233 251 295 338 362 373 357 322
950.0 260 192 149 122 111 102 94 98 112 117
990.0 107 107 104 85 78 82 77 79 93 95
1030.0 104 125 126 121 122 106 87 84 81 72
1070.0 73 81 81 75 56 40 41 47 37 22
1110.0 18 20 20 15 10 7 0 5 10 10
1150.0 10 5 3 4 11 19 29 43 61 83
1190.0 109 137 166 196 226 257 284 293 289 280
1230.0 255 220 191 172 151 136 130 127 115 98
1270.0 91 79 72 69 66 68 69 73 80 87
1310.0 96 114 143 191 267 365 444 474 474 479
1350.0 452 398 373 427 551 743 977 1208 1365 1412
1390.0 1383 1280 1099 949 937 1113 1481 1963 2420 2758
1430.0 2968 3029 2832 2394 1919 1572 1363 1224 1122 1043
1470.0 985 950 944 970 1010 1046 1086 1136 1192 1251
1510.0 1312 1369 1425 1484 1548 1610 1680 1775 1891 2044
1550.0 2254 2518 2865 3318 3885 4665 5691 6972 8293 9394
1590.0 10000 9951 9213 7876 6389 5129 4099 3224 2509 1925
1630.0 1440 1068 798 604 471 378 313 270 236 209
1670.0 185 167 159 149 138 134 130 127 114 99
1710.0 89 82 71 62 60 60 55 53 53 51
1750.0 50 49 48 47 45 39 35 37 41 39
1790.0 39 41 39 38 34 36 37 35 31 26
1830.0 27 33 34 34 37 36 33 34 38 43
1870.0 45 44 48 49 46 46 47 48 53 51
1910.0 54 55 56 57 57 60 58 57 58 52
1950.0 43 41 41 39 36 36 39 40 36 41
1990.0 44 45 53 57 58 55 53 53 54 55
2030.0 55 52 53 54 52 53 57 55 48 44
2070.0 42 40 41 40 38 41 43 50 59 68
2110.0 72 71 68 74 75 68 70 71 68 68
2150.0 64 59 60 60 61 57 52 51 50 51
2190.0 49 47 49 54 59 61 62 62 58 57
2230.0 57 48 37 35 38 37 34 30 26 31
2270.0 38 40 38 38 40 42 44 47 48 50
2310.0 55 62 63 59 56 58 61 57 52 43
2350.0 41 43 49 51 49 46 48 51 51 46
2390.0 46 44 37 36 43 48 46 44 42 44
2430.0 43 38 40 42 43 42 43 45 49 51
2470.0 46 52 55 51 54 54 57 60 57 56
2510.0 59 63 59 52 57 55 50 49 48 43
2550.0 43 40 41 49 45 44 45 44 38 37
2590.0 37 29 25 30 31 34 39 41 41 46
2630.0 53 55 55 53 51 53 52 56 64 67
2670.0 64 63 59 52 55 50 47 51 48 42
2710.0 50 53 50 48 40 42 52 52 45 45
2750.0 51 52 52 44 38 45 45 34 41 52
2790.0 52 51 48 52 57 58 64 65 59 60
2830.0 67 75 83 91 102 119 133 135 138 142
2870.0 136 129 126 119 117 123 134 145 161 181
2910.0 213 270 332 395 470 529 554 548 513 459
2950.0 384 305 253 228 220 229 246 250 255 259
2990.0 259 258 248 235 217 198 196 203 208 215
3030.0 234 250 256 262 256 245 244 255 263 260
3070.0 258 246 226 203 177 146 124 115 110 101
3110.0 86 69 67 70 66 60 59 67 67 69
3150.0 70 62 61 60 55 54 62 60 54 56
3190.0 47 44 45 48 49 45 38 36 32 32
3230.0 34 29 40 43 35 45 45 32 37 40
3270.0 32 30 42 50 50 47 45 40 38 41
3310.0 36 26 28 35 34 42 43 39 49 45
3350.0 33 36 45 46 44 37 28 39 54 56
3390.0 57 74 90 109 137 174 226 290 349 410
3430.0 492 586 663 706 719 702 643 542 432 334
3470.0 242 183 154 138 120 101 93 99 114 123
3510.0 141 165 188 220 254 292 312 334 356 374
3550.0 411 436 452 452 413 366 322 269 219 185
3590.0 151 125 106 87 75 68 65 70 60 49
3630.0 47 51 61 53 54 51 39 47 53 43
3670.0 35 40 42 35 31 36 30 23 33 42
3710.0 41 39 38 32 43 41 39 44 39 34
3750.0 34 45 41 31 32 34 37 42 47 44
3790.0 31 32 32 21 24 39 54 57 44 37
3830.0 43 46 50 54 54
##END=
