##TITLE=2-Methyl-1-phenyl-1-propene
##JCAMP-DX=4.24
##DATA TYPE=INFRARED SPECTRUM
##ORIGIN=NIST Mass Spectrometry Data Center
##OWNER=NIST Standard Reference Data Program
Collection (C) 2018 copyright by the U.S. Secretary of Commerce
on behalf of the United States of America. All rights reserved.
##CAS REGISTRY NO=768-49-0
##MOLFORM=C 10 H 12
##$NIST SOURCE=MSDC-IR
##SPECTROMETER/DATA SYSTEM=HP-GC/MS/IRD
##STATE=gas
##XUNITS=1/CM
##YUNITS=ABSORBANCE
##XFACTOR=1.0
##YFACTOR=0.000001300
##DELTAX=4.0
##FIRSTX=550.0
##LASTX=3846.0
##FIRSTY=0.000451
##MAXX=3846
##MINX=550
##MAXY=0.013
##MINY=0
##NPOINTS=825
##XYDATA=(X++(Y..Y))
550.0 347 150 0 46 87 109 134 109 73 93
590.0 109 137 170 144 128 213 273 358 617 871
630.0 927 842 680 520 496 566 604 683 843 1066
670.0 1429 1953 2654 3577 4704 5845 7016 7487 6924 6002
710.0 5135 4529 4224 4376 4928 5565 6142 5994 5086 4068
750.0 3083 2200 1524 1087 795 626 520 430 382 357
790.0 378 427 527 739 1011 1288 1599 1958 2189 2349
830.0 2430 2283 1996 1714 1485 1320 1158 979 842 705
870.0 600 555 507 476 459 478 552 652 785 918
910.0 1032 1073 998 841 621 435 332 313 299 263
950.0 238 242 247 301 355 377 412 449 460 475
990.0 496 506 509 478 464 504 640 978 1395 1579
1030.0 1546 1440 1147 872 917 1115 1279 1365 1384 1286
1070.0 1095 916 756 593 434 282 221 215 179 142
1110.0 127 116 113 90 91 113 124 117 124 174
1150.0 207 277 412 557 772 1050 1289 1449 1462 1316
1190.0 1057 782 581 467 426 458 530 574 553 496
1230.0 409 327 292 271 260 265 271 261 238 250
1270.0 256 243 269 273 272 279 275 276 284 295
1310.0 309 326 358 398 463 571 679 804 928 981
1350.0 1012 1030 1037 1093 1227 1445 1655 1826 1920 1886
1390.0 1748 1541 1328 1169 1087 1079 1154 1291 1478 1749
1430.0 2039 2318 2557 2646 2643 2566 2411 2185 1962 1792
1470.0 1733 1815 1991 2355 2893 3285 3271 2991 2462 1645
1510.0 977 681 559 514 509 523 532 542 536 527
1550.0 545 578 621 678 751 841 941 1064 1244 1535
1590.0 1912 2203 2273 2101 1772 1334 1014 885 850 881
1630.0 932 1018 1158 1330 1526 1705 1778 1712 1523 1244
1670.0 932 634 434 339 289 259 236 219 215 221
1710.0 231 232 218 216 211 211 213 223 252 277
1750.0 279 258 257 246 233 251 260 283 337 397
1790.0 473 520 524 488 413 332 268 238 217 182
1830.0 155 150 136 116 121 140 159 191 227 270
1870.0 326 368 412 444 443 398 326 273 212 179
1910.0 192 219 241 287 359 413 470 528 567 579
1950.0 549 486 399 288 174 108 80 69 68 66
1990.0 58 43 41 40 26 21 31 37 38 42
2030.0 29 28 35 37 22 16 24 28 27 31
2070.0 33 20 21 35 34 26 15 18 26 25
2110.0 22 28 44 37 20 25 24 28 37 33
2150.0 39 31 35 46 42 42 46 47 43 48
2190.0 57 54 43 45 40 32 32 32 42 59
2230.0 57 49 59 47 42 56 49 39 37 37
2270.0 35 34 30 16 20 38 35 33 54 70
2310.0 81 99 96 95 101 105 106 92 85 72
2350.0 66 79 85 64 63 67 57 52 53 63
2390.0 62 58 63 56 52 60 69 68 64 66
2430.0 66 65 56 62 62 35 39 47 34 30
2470.0 22 28 41 35 29 32 43 56 62 54
2510.0 45 49 53 37 38 40 35 34 24 39
2550.0 49 47 50 52 63 61 49 35 30 47
2590.0 49 40 45 51 51 48 47 44 42 46
2630.0 55 47 43 40 39 35 36 43 29 27
2670.0 18 11 33 25 26 55 50 45 66 103
2710.0 137 169 193 231 305 378 450 519 554 537
2750.0 471 397 344 306 290 291 288 280 292 313
2790.0 332 364 396 438 494 556 624 700 771 843
2830.0 939 1063 1217 1445 1750 2153 2711 3381 4039 4561
2870.0 4890 5017 5028 4981 4928 4909 4946 5086 5376 5906
2910.0 6786 7924 9027 9759 10000 9700 8913 7943 7105 6422
2950.0 5893 5588 5504 5626 5885 6170 6357 6416 6351 6151
2990.0 5785 5326 4810 4309 4018 4021 4304 4798 5357 5830
3030.0 6057 6053 5823 5454 5168 5202 5693 6578 7443 7838
3070.0 7818 7366 6413 5469 4890 4433 3916 3360 2794 2272
3110.0 1850 1474 1168 955 795 670 584 533 488 441
3150.0 401 362 316 270 242 222 199 165 113 89
3190.0 117 141 102 71 73 69 75 69 67 62
3230.0 47 46 37 24 39 35 18 45 60 62
3270.0 62 54 59 65 81 91 86 93 110 97
3310.0 71 82 85 44 13 31 73 73 38 62
3350.0 86 76 59 47 45 64 75 67 53 26
3390.0 39 88 91 67 65 58 51 45 35 39
3430.0 49 84 92 92 117 103 61 53 71 74
3470.0 64 66 84 77 84 86 76 74 69 92
3510.0 70 55 71 52 43 68 78 73 96 113
3550.0 89 71 59 51 67 81 92 89 80 72
3590.0 56 52 66 91 88 86 90 101 97 63
3630.0 71 101 121 131 113 98 90 97 111 132
3670.0 140 147 150 146 127 123 141 130 113 104
3710.0 92 89 99 102 99 109 119 125 110 103
3750.0 109 92 105 107 79 75 73 78 87 78
3790.0 82 91 98 83 81 115 132 96 86 125
3830.0 151 150 143 137 107
##END=
