##TITLE=Squalene
##JCAMP-DX=4.24
##DATA TYPE=INFRARED SPECTRUM
##ORIGIN=NIST Mass Spectrometry Data Center
##OWNER=NIST Standard Reference Data Program
Collection (C) 2018 copyright by the U.S. Secretary of Commerce
on behalf of the United States of America. All rights reserved.
##CAS REGISTRY NO=7683-64-9
##MOLFORM=C 30 H 50
##$NIST SOURCE=MSDC-IR
##SPECTROMETER/DATA SYSTEM=HP-GC/MS/IRD
##STATE=gas
##XUNITS=1/CM
##YUNITS=ABSORBANCE
##XFACTOR=1.0
##YFACTOR=0.000000800
##DELTAX=4.0
##FIRSTX=550.0
##LASTX=3846.0
##FIRSTY=0.000234
##MAXX=3846
##MINX=550
##MAXY=0.008
##MINY=0
##NPOINTS=825
##XYDATA=(X++(Y..Y))
550.0 293 499 470 477 472 518 550 554 523 452
590.0 391 390 361 306 237 177 193 183 213 194
630.0 158 172 154 99 62 128 110 19 54 122
670.0 116 113 125 131 120 82 47 19 34 45
710.0 55 128 198 212 194 208 215 241 307 360
750.0 348 330 331 319 304 308 373 407 401 370
790.0 371 434 480 557 640 664 731 824 874 952
830.0 1047 1078 1020 936 870 795 690 574 506 484
870.0 442 434 462 485 489 496 455 362 309 284
910.0 268 272 268 258 253 231 219 232 230 269
950.0 303 313 342 339 342 355 381 408 427 427
990.0 395 395 392 368 385 350 328 352 357 355
1030.0 383 415 418 419 401 409 386 369 390 410
1070.0 440 488 578 664 705 750 786 834 840 807
1110.0 742 611 476 414 380 364 387 362 365 426
1150.0 487 511 502 427 404 437 394 362 373 381
1190.0 391 393 407 441 445 446 448 486 518 494
1230.0 461 432 408 385 372 340 318 303 294 295
1270.0 286 278 261 262 279 305 333 363 425 491
1310.0 543 606 654 688 709 700 664 631 625 641
1350.0 668 732 813 877 985 1160 1372 1633 1827 1811
1390.0 1571 1280 1056 899 811 766 760 799 882 1015
1430.0 1201 1458 1732 1921 1951 1875 1717 1500 1266 1069
1470.0 912 770 651 576 518 456 417 393 356 324
1510.0 311 318 320 304 292 292 285 276 266 273
1550.0 281 271 238 217 223 222 220 200 200 195
1590.0 187 186 174 186 194 187 182 174 178 208
1630.0 218 215 233 263 288 321 383 461 474 434
1670.0 378 296 236 199 177 156 140 124 120 117
1710.0 112 105 99 102 85 68 60 64 71 73
1750.0 76 84 83 75 72 79 76 67 58 67
1790.0 76 79 76 78 77 62 66 54 41 44
1830.0 47 64 70 53 41 53 64 59 59 64
1870.0 53 45 54 52 49 60 65 62 72 69
1910.0 47 52 57 44 31 22 21 18 14 30
1950.0 43 32 32 32 29 42 51 65 68 47
1990.0 42 42 42 47 58 47 23 36 53 41
2030.0 26 27 39 36 39 32 36 55 56 53
2070.0 39 22 29 40 31 28 23 30 44 33
2110.0 25 36 44 36 26 43 45 47 53 40
2150.0 33 39 34 37 47 51 43 36 41 40
2190.0 39 39 35 36 39 41 40 20 20 36
2230.0 36 35 26 34 54 48 28 21 22 34
2270.0 32 14 19 33 37 31 23 24 26 16
2310.0 19 29 31 42 30 34 52 43 33 31
2350.0 40 35 30 32 34 47 22 14 32 28
2390.0 24 23 32 36 29 36 39 37 28 21
2430.0 41 51 42 33 24 27 38 34 30 35
2470.0 36 36 48 51 47 40 33 31 31 25
2510.0 26 33 31 27 11 20 18 0 10 15
2550.0 12 8 13 30 33 24 32 35 33 31
2590.0 15 33 44 28 43 69 75 73 67 57
2630.0 56 71 91 90 90 103 95 69 64 91
2670.0 90 83 71 82 110 124 103 86 106 135
2710.0 142 132 153 200 251 277 285 301 323 319
2750.0 284 283 298 278 259 287 315 303 319 343
2790.0 382 438 470 516 589 661 749 879 1038 1236
2830.0 1493 1851 2291 2825 3493 4207 4831 5258 5439 5458
2870.0 5342 5170 5111 5189 5414 5745 6182 6697 7296 7926
2910.0 8518 9058 9487 9844 10000 9839 9385 8706 7933 7167
2950.0 6508 6034 5709 5538 5495 5488 5392 5190 4970 4712
2990.0 4376 3959 3534 3147 2791 2503 2267 2084 1932 1801
3030.0 1706 1609 1504 1401 1300 1226 1143 1012 888 801
3070.0 717 643 570 530 488 428 387 294 243 236
3110.0 237 216 206 199 159 165 147 113 112 113
3150.0 95 69 47 67 96 84 79 76 41 38
3190.0 75 76 50 36 39 39 31 34 43 52
3230.0 36 52 80 64 40 46 55 71 61 20
3270.0 19 48 74 75 46 16 22 41 54 80
3310.0 95 80 102 103 83 70 71 101 88 68
3350.0 76 70 74 64 35 15 35 93 122 104
3390.0 80 84 108 100 76 99 107 95 107 85
3430.0 79 65 74 82 75 126 118 59 47 84
3470.0 116 91 87 100 94 71 73 98 71 68
3510.0 64 82 132 126 97 95 103 83 95 106
3550.0 88 99 109 128 124 109 114 111 144 160
3590.0 135 96 112 113 112 133 120 141 147 93
3630.0 47 48 81 120 111 111 106 148 148 101
3670.0 102 99 148 188 141 99 115 129 121 115
3710.0 129 113 92 121 119 129 172 174 154 148
3750.0 113 86 96 104 117 131 121 119 130 182
3790.0 194 150 137 154 173 196 200 177 182 172
3830.0 186 185 150 169 182
##END=
