##TITLE=2,3,5,6-Tetrafluorophenol
##JCAMP-DX=4.24
##DATA TYPE=INFRARED SPECTRUM
##ORIGIN=EPA-IR VAPOR PHASE LIBRARY
##OWNER=SRD/NIST
Collection (C) 2018 copyright by the U.S. Secretary of Commerce
on behalf of the United States of America. All rights reserved.
##CAS REGISTRY NO=769-39-1
##MOLFORM=C 6 H 2 F 4 O
##$NIST SOURCE=MSDC-IR
##STATE=gas
##XUNITS=1/CM
##YUNITS=ABSORBANCE
##XFACTOR=1.
##YFACTOR=0.001
##DELTAX=1.92934
##FIRSTX=549.9
##LASTX=3999.5
##FIRSTY=34.31
##MAXX=3999.53
##MINX=549.863
##MAXY=1.65388
##MINY=0
##NPOINTS=1789
##XYDATA=(X++(Y..Y))
549.863 34.31 35.51 36.39 37.66 39.89 44.08 48.62 46.4 40.59 38.54
569.156 37.47 35.35 33.49 31.8 30.11 28.61 27.46 26.67 26.3 26.2
588.450 26.14 26.23 26.3 26.38 26.76 27.34 27.8 28.18 28.29 28.1
607.743 27.64 26.95 26.23 25.32 24.27 23.19 22.02 20.94 20.01 19.29
627.037 18.83 18.46 18.21 18.08 18.12 18.29 18.51 18.74 18.94 19.12
646.330 19.2 19.34 19.6 20.03 20.53 21.12 22.24 24.03 26.7 30.84
665.624 36.65 44.45 53.84 63.46 71.87 77.27 79.92 81.58 83.1 83.36
684.917 82.2 78.04 69.54 59.88 52.7 50.15 52.95 60.81 74.58 96.21
704.210 126.95 164.93 202.95 230.67 235.44 219.5 219.13 236.31 234.45 210.53
723.504 174.67 134.17 97.88 69.99 50.55 37.65 29.29 23.93 20.55 18.51
742.797 17.27 16.45 15.81 15.26 14.87 14.58 14.46 14.46 14.59 14.77
762.091 14.99 15.2 15.38 15.63 15.97 16.56 17.26 17.82 18.23 18.54
781.384 18.87 19.44 20.36 21.56 22.54 23.26 24.35 26.47 30.18 36.19
800.678 45.39 58.75 76.38 97.7 120.48 142.57 162.78 185.72 221.49 281.65
819.971 341.76 325.32 273.17 243.26 224.45 205.17 180.06 152.88 127 103.72
839.264 83.61 67.21 54.36 44.78 37.91 33.01 29.44 26.86 24.89 23.41
858.558 22.38 21.85 21.73 21.95 22.51 23.48 25.03 27.2 29.93 33.25
877.851 36.97 40.66 44.19 47.5 50.54 53.36 56.23 59.49 63.72 69.72
897.145 78.91 93.86 117.54 153.62 207.18 283.59 386.62 516.72 668.4 830.71
916.438 988.63 1123.18 1214.49 1255.31 1259.09 1224.27 1134.66 1010.42 862.59 691.02
935.732 522.66 386.87 294.3 239.19 209.63 195.37 189.95 190.09 193.62 198.61
955.025 204.01 209.72 215.86 221.56 225.24 224.34 217.46 206.42 192.67 176.5
974.318 159.27 142.1 124.54 106.74 90.03 76.01 65.44 57.95 52.91 49.93
993.612 48.33 47.11 45.34 43.23 41.64 40.94 40.98 41.69 43.19 45.26
1012.905 47.51 49.79 52.28 54.98 57.42 59.94 63.17 66.83 70.89 76.02
1032.199 82.77 91.05 99.62 106.75 111.21 113.58 116.72 123.59 134.11 146.54
1051.492 161.7 183.22 215.24 261.98 328.28 419.48 540.07 691.73 871.19 1068.24
1070.786 1265.42 1438.2 1560.49 1617.88 1616.86 1580.2 1508.54 1385.49 1192.35 949.9
1090.079 709.73 506.91 356.06 255.42 193.51 157.54 137.72 127.48 122.79 121.54
1109.372 123.13 128.05 137.26 151.16 169.11 188.67 205.43 215.72 220.44 222.8
1128.666 221.61 213.94 201.75 183.39 153.76 118.45 88.85 70.82 63.5 63.81
1147.959 70.27 83.51 106.2 142.95 198.77 275.72 368.5 459.74 525.28 554.82
1167.253 569.32 584.02 568.67 533.3 496.98 431.66 338.29 245.03 172.16 124.26
1186.546 96.04 80.22 71.37 66.4 63.97 63.82 65.9 70.05 76.02 83.58
1205.840 92.46 102.69 114.5 128.05 143.41 161.08 182.62 209.25 242.08 282.47
1225.133 330.74 385.71 444.13 500.2 546.18 575.32 585.62 580.65 565.43 540.23
1244.426 498.67 434.88 353.89 271.68 203.33 155.13 125.23 108.88 102.28 103.6
1263.720 112.39 127.91 148.3 170.43 190.28 204.55 212.69 217.9 225.93 239.69
1283.013 253.91 261.28 263.2 266.25 274.71 290.32 312.93 341.39 374.74 411.87
1302.307 451.14 490.69 528.47 563 592.93 616.09 629.4 630.38 618.59 596.02
1321.600 565.59 528.25 482.23 425.84 361.96 298.24 241.44 194.74 157.93 128.95
1340.894 106.19 89.03 76.56 67.85 62.03 58.44 56.71 56.66 58.15 60.8
1360.187 63.84 66.18 66.98 66.3 65.02 63.58 61.24 58.55 56.13 52.6
1379.480 48.33 45.22 44.52 46.51 51.18 58.24 67.38 78.18 89.89 100.79
1398.774 109.17 113.84 114.46 112.11 108.46 104.32 98.49 88.91 75.92 62.4
1418.067 51 42.43 37.3 34.69 33.47 33.14 33.38 33.84 34.22 34.35
1437.361 34.1 33.48 32.95 32.87 33.41 34.69 36.89 39.99 44.73 51.64
1456.654 62.28 76.97 95.7 119.19 146.66 176.76 208.42 244.8 290.48 347.46
1475.948 415.94 503.62 607.71 728.87 860.81 995.99 1121.02 1223.82 1296.2 1338.28
1495.241 1344.81 1328.01 1291.05 1226.63 1123.68 988.24 838.9 719.02 647.29 627.01
1514.534 657.81 736.66 860.07 1019.46 1217.21 1403.86 1537.21 1611.55 1646.18 1653.88
1533.828 1648.17 1641.42 1610.55 1560.22 1510.3 1425.17 1265.17 1027.82 759.68 533.53
1553.121 381.76 287.2 234.32 199.24 173.12 153.48 136.53 121.81 108.39 94.78
1572.415 81.24 68.73 57.77 49.77 44.96 42.47 41.79 42.37 43.97 46.49
1591.708 50.08 54.81 60.72 67.79 75.73 84.42 93.72 103.52 113.72 124.26
1611.002 134.46 144.14 153.35 163.21 174.03 186.37 201.07 217.68 234.59 251.18
1630.295 266.58 279.76 290.14 299.27 309.25 320.5 331.39 340.87 348.5 352.2
1649.588 349.19 338.4 321.43 305.1 287.52 263.07 230.4 192.75 157.23 127.6
1668.882 104.04 86.11 73.23 63.68 56.44 51.16 46.97 43.69 41.14 39.33
1688.175 38.21 37.63 37.87 38.82 40.6 42.95 45.53 48.29 50.47 51.98
1707.469 52.57 52.23 50.88 48.5 45.16 41 36.21 31.38 26.82 22.99
1726.762 20.17 18.34 17.21 16.58 16.29 16.31 16.57 16.98 17.54 18.12
1746.056 18.67 19.18 19.56 19.79 19.87 19.8 19.51 19.06 18.45 17.63
1765.349 16.73 15.8 14.99 14.2938 13.6868 13.268 12.978 12.8 12.685 12.653
1784.642 12.659 12.726 12.873 13.096 13.303 13.4572 13.6711 13.9277 14.2083 14.49
1803.936 14.86 15.35 15.93 16.62 17.4 18.15 18.83 19.4 19.92 20.38
1823.229 20.75 21.05 21.39 21.73 22.14 22.5 22.64 22.51 22.17 21.75
1842.523 21.27 20.66 19.86 18.81 17.5 15.97 14.4276 13.084 12.15 11.57
1861.816 11.16 10.87 10.73 10.68 10.64 10.67 10.8 10.92 11.07 11.26
1881.110 11.37 11.42 11.43 11.37 11.28 11.1 10.83 10.49 10.17 9.87
1900.403 9.62 9.45 9.32 9.22 9.22 9.27 9.34 9.42 9.55 9.7
1919.696 9.83 10.03 10.24 10.39 10.5 10.5 10.48 10.41 10.25 10.04
1938.990 9.86 9.71 9.57 9.47 9.44 9.5 9.62 9.75 9.91 10.03
1958.283 10.1 10.24 10.35 10.39 10.44 10.49 10.51 10.58 10.69 10.85
1977.577 11.09 11.33 11.52 11.69 11.88 12.02 12.09 12.14 12.12 12.05
1996.870 11.89 11.67 11.39 11.07 10.76 10.46 10.18 9.97 9.84 9.73
2016.164 9.66 9.63 9.62 9.66 9.68 9.68 9.69 9.73 9.81 9.79
2035.457 9.78 9.77 9.75 9.69 9.61 9.58 9.52 9.53 9.57 9.61
2054.750 9.66 9.72 9.89 10.11 10.33 10.6 10.93 11.22 11.47 11.74
2074.044 11.97 12.11 12.14 12.08 11.94 11.72 11.41 11.11 10.81 10.55
2093.337 10.41 10.37 10.44 10.65 10.99 11.42 11.93 12.496 13.11 13.6864
2112.631 14.1968 14.58 14.8 14.86 14.74 14.46 14.0275 13.5218 12.938 12.32
2131.924 11.76 11.31 11.09 11.05 11.18 11.44 11.78 12.2 12.682 13.145
2151.218 13.5547 13.9098 14.1354 14.2339 14.1904 14.074 13.8542 13.4836 13.043 12.607
2170.511 12.18 11.81 11.58 11.49 11.61 11.94 12.41 13.046 13.8304 14.7
2189.804 15.67 16.69 17.71 18.66 19.48 20.11 20.51 20.68 20.58 20.22
2209.098 19.64 18.91 18.06 17.15 16.32 15.63 15.11 14.82 14.79 14.92
2228.391 15.16 15.51 15.94 16.33 16.72 17.13 17.5 17.75 17.82 17.69
2247.685 17.41 17.02 16.47 15.77 15.01 14.1386 13.246 12.37 11.57 10.89
2266.978 10.39 10.07 9.88 9.74 9.69 9.73 9.78 9.82 9.88 9.95
2286.272 10.03 10.11 10.19 10.36 10.64 10.93 11.26 11.66 12.11 12.646
2305.565 13.256 13.9479 14.72 15.5 16.3 17.15 17.98 18.68 19.29 19.87
2324.858 20.27 20.51 20.55 20.46 20.29 20.01 19.65 19.34 19.2 19.11
2344.152 19.1 19.16 19.27 19.46 19.65 19.76 19.77 19.67 19.44 19.06
2363.445 18.5 17.78 17 16.27 15.59 15.04 14.6 14.2411 14.0147 13.8545
2382.739 13.8092 13.9564 14.2472 14.61 15.04 15.54 16.07 16.53 16.91 17.21
2402.032 17.35 17.33 17.1 16.64 16.06 15.33 14.4473 13.5106 12.595 11.82
2421.326 11.27 10.88 10.58 10.39 10.21 10.09 10.01 9.97 10.06 10.19
2440.619 10.35 10.57 10.79 11.01 11.29 11.61 11.97 12.34 12.727 13.156
2459.912 13.622 14.1873 14.84 15.48 16.07 16.6 17.07 17.43 17.56 17.54
2479.206 17.34 16.96 16.4 15.68 14.9 14.1871 13.5398 12.949 12.531 12.34
2498.499 12.34 12.542 12.974 13.6313 14.4466 15.38 16.42 17.59 18.83 20.09
2517.793 21.4 22.69 23.83 24.76 25.43 25.83 25.89 25.62 25.1 24.35
2537.086 23.5 22.57 21.67 20.92 20.41 20.27 20.44 20.79 21.28 21.86
2556.380 22.4 22.96 23.5 23.94 24.29 24.48 24.51 24.41 24.06 23.65
2575.673 23.12 22.27 21.27 20.23 19.17 18.19 17.45 17.06 16.89 16.92
2594.966 17.15 17.47 17.81 18.17 18.54 18.88 19.24 19.6 19.87 20.06
2614.260 20.2 20.34 20.37 20.22 19.98 19.67 19.22 18.68 18.12 17.56
2633.553 17.05 16.63 16.24 15.95 15.82 15.81 15.85 15.86 15.92 16
2652.847 15.99 15.83 15.56 15.28 14.92 14.3837 13.6612 12.907 12.14 11.26
2672.140 10.35 9.56 8.87 8.21 7.69 7.4 7.15 6.99 6.97 6.96
2691.434 7.06 7.17 7.24 7.35 7.49 7.67 7.88 8.05 8.18 8.33
2710.727 8.48 8.64 8.85 9.09 9.28 9.44 9.62 9.76 9.82 9.85
2730.020 9.8 9.63 9.38 9.05 8.77 8.44 8 7.58 7.26 7.08
2749.314 6.9 6.71 6.58 6.51 6.49 6.52 6.57 6.61 6.66 6.69
2768.607 6.72 6.71 6.67 6.66 6.66 6.68 6.65 6.58 6.56 6.6
2787.901 6.68 6.78 6.83 6.93 7.04 7.1 7.21 7.27 7.32 7.34
2807.194 7.31 7.31 7.29 7.2 7.02 6.81 6.65 6.49 6.28 6.07
2826.488 5.97 5.86 5.79 5.76 5.72 5.73 5.74 5.71 5.69 5.67
2845.781 5.69 5.7 5.66 5.6 5.55 5.63 5.65 5.59 5.55 5.5
2865.074 5.5 5.64 5.69 5.69 5.78 5.83 6 6.16 6.3 6.45
2884.368 6.58 6.71 6.8 7.02 7.16 7.27 7.49 7.68 7.76 7.84
2903.661 7.86 7.82 7.78 7.67 7.63 7.59 7.53 7.45 7.5 7.59
2922.955 7.73 7.87 7.95 8.05 8.18 8.24 8.16 8.03 7.82 7.46
2942.248 7.05 6.69 6.19 5.66 5.19 4.86 4.54 4.2 3.95 3.82
2961.542 3.85 3.88 3.93 4.09 4.2 4.33 4.54 4.79 5.09 5.36
2980.835 5.55 5.66 5.61 5.47 5.38 5.39 5.27 4.92 4.59 4.27
3000.128 3.86 3.47 3.19 2.83 2.61 2.49 2.39 2.3 2.23 2.17
3019.422 2.18 2.19 2.09 2.07 2.21 2.31 2.19 2.18 2.27 2.23
3038.715 2.16 2.22 2.35 2.38 2.36 2.34 2.42 2.57 2.73 2.91
3058.009 3.05 3.23 3.38 3.44 3.5 3.7 3.91 4 4.13 4.38
3077.302 4.88 5.66 6.53 7.7 9.32 11.33 13.8331 16.74 19.89 22.71
3096.596 24.75 25.63 25.31 24.61 23.92 23.05 21.24 18.23 14.57 11.01
3115.889 8.14 5.92 4.35 3.39 2.75 2.45 2.28 2.23 2.21 2.19
3135.182 2.19 2.09 2.14 2.34 2.42 2.52 2.62 2.55 2.5 2.45
3154.476 2.41 2.36 2.26 2.25 2.17 2.03 1.96 1.86 1.68 1.58
3173.769 1.49 1.36 1.29 1.24 1.14 1.05 0.94 0.85 0.83 0.8
3193.063 0.71 0.59 0.49 0.34 0.16 0.05 0.11 0.11 0 0.06
3212.356 0.22 0.27 0.26 0.3 0.53 0.73 0.66 0.7 0.91 1.03
3231.650 1.16 1.27 1.23 1.25 1.42 1.67 1.95 2.36 2.81 3.34
3250.943 4.04 4.68 5.36 6.12 6.85 7.69 8.59 8.95 8.73 8.46
3270.236 8.07 7.59 7.05 6.58 6.37 6.19 6.07 5.96 5.83 5.84
3289.530 5.94 6.1 6.25 6.53 6.72 6.59 6.56 6.65 6.75 6.93
3308.823 6.97 6.83 6.74 6.73 6.72 6.74 6.8 6.72 6.78 7.05
3328.117 7.22 7.51 7.75 7.83 7.91 7.86 7.74 7.58 7.29 6.76
3347.410 6.15 5.71 5.22 4.87 4.61 4.32 4.23 4.14 3.98 3.94
3366.704 4.08 4.11 3.97 3.93 4.02 4.04 3.91 3.84 3.83 3.74
3385.997 3.64 3.5 3.48 3.66 3.67 3.64 3.53 3.48 3.6 3.72
3405.290 3.73 3.75 3.79 3.85 3.97 4.04 4.1 4.2 4.34 4.21
3424.584 4 3.82 3.64 3.65 3.68 3.6 3.6 3.58 3.62 3.67
3443.877 3.66 3.62 3.61 3.75 3.85 3.78 3.75 3.81 3.88 3.91
3463.171 3.9 3.91 3.94 3.87 3.89 3.94 3.94 3.99 4.07 4.11
3482.464 3.99 3.92 3.95 3.89 3.84 3.85 3.84 3.83 3.83 3.85
3501.758 3.99 4.07 4.11 4.14 4.29 4.5 4.52 4.63 4.76 4.8
3521.051 4.94 5.11 5.23 5.31 5.32 5.45 5.52 5.56 5.71 5.78
3540.344 5.87 6.03 6.14 6.24 6.38 6.48 6.63 6.87 7.08 7.18
3559.638 7.26 7.55 7.81 7.87 8.12 8.52 8.92 9.46 10.07 10.59
3578.931 11.33 12.34 13.3929 14.57 16 17.84 20.25 23.37 27.55 33.39
3598.225 41.66 53.79 71.84 98.5 138.5 198.09 284.07 400.44 546.11 702.64
3617.518 830.16 893.91 899.3 890.25 889.41 880.19 827.74 707.4 543.1 379.63
3636.812 249.24 158.81 101.89 67.83 47.68 35.68 28.14 23.34 20.29 18.16
3656.105 16.68 15.57 14.57 13.8159 13.252 12.678 12.12 11.62 11.24 10.99
3675.398 10.64 10.37 10.15 9.87 9.7 9.49 9.2 9.06 8.99 8.89
3694.692 8.77 8.58 8.43 8.35 8.29 8.2 8.12 8.09 7.94 7.69
3713.985 7.57 7.57 7.51 7.36 7.18 7.1 7.16 7.17 7.11 7.04
3733.279 7.03 7.01 7.07 7.17 7.24 7.2 7.05 7.08 7.16 7.25
3752.572 7.31 7.36 7.42 7.42 7.35 7.31 7.28 7.24 7.24 7.3
3771.866 7.33 7.35 7.44 7.49 7.48 7.51 7.55 7.53 7.61 7.74
3791.159 7.87 7.94 7.96 8.01 8.12 8.25 8.38 8.64 8.9 9.24
3810.452 9.52 9.62 9.75 9.88 9.99 10.15 10.36 10.55 10.59 10.49
3829.746 10.23 9.98 9.82 9.72 9.65 9.59 9.66 9.77 9.77 9.82
3849.039 9.86 9.87 9.76 9.75 9.83 9.77 9.72 9.68 9.64 9.67
3868.333 9.6 9.48 9.42 9.38 9.3 9.3 9.27 9.34 9.49 9.54
3887.626 9.7 9.88 10.17 10.59 11.16 11.85 12.523 13.175 13.6801 14.0126
3906.920 14.2528 14.3679 14.3307 14.1885 13.9862 13.657 13.195 12.883 12.646 12.36
3926.213 12.19 12.15 12.07 12.03 12.07 12.14 12.17 12.02 11.7 11.31
3945.506 11.11 11.06 10.99 10.87 10.67 10.33 10.01 9.88 9.83 9.8
3964.800 9.78 9.94 10.29 10.62 10.98 11.45 11.96 12.43 12.918 13.223
3984.093 13.214 12.972 12.24 11.4 10.73 10.11 9.56 9.01 8.5
##END=
