##TITLE=1,3-Dimethylbarbituric acid
##JCAMP-DX=4.24
##DATA TYPE=INFRARED SPECTRUM
##ORIGIN=EPA-IR VAPOR PHASE LIBRARY
##OWNER=SRD/NIST
Collection (C) 2018 copyright by the U.S. Secretary of Commerce
on behalf of the United States of America. All rights reserved.
##CAS REGISTRY NO=769-42-6
##MOLFORM=C 6 H 8 N 2 O 3
##$NIST SOURCE=MSDC-IR
##STATE=gas
##XUNITS=1/CM
##YUNITS=ABSORBANCE
##XFACTOR=1.
##YFACTOR=0.001
##DELTAX=1.92934
##FIRSTX=549.9
##LASTX=3999.5
##FIRSTY=0.495
##MAXX=3999.53
##MINX=549.863
##MAXY=0.038117
##MINY=0
##NPOINTS=1789
##XYDATA=(X++(Y..Y))
549.863 0.495 0.353 0.41 0.565 0.61189 0.5563 0.489 0.451 0.419 0.466
569.156 0.404 0.447 0.5089 0.451 0.46 0.413 0.458 0.61245 0.5712 0.443
588.450 0.4 0.414 0.38 0.285 0.284 0.34 0.459 0.5159 0.5642 0.602405
607.743 0.69404 0.8187 0.8712 0.8987 0.9399 1.0675 1.1134 1.0402 0.9922 1.0441
627.037 1.0272 0.8797 0.8162 0.7494 0.6356 0.63746 0.5832 0.5629 0.5591 0.483
646.330 0.476 0.398 0.356 0.402 0.38 0.386 0.444 0.466 0.449 0.424
665.624 0.451 0.487 0.5551 0.63929 0.6942 0.7803 0.8007 0.7747 0.792 0.8079
684.917 0.7985 0.8233 0.8318 0.7982 0.7558 0.7271 0.7138 0.7074 0.66079 0.5654
704.210 0.5401 0.5419 0.5288 0.5017 0.5394 0.551 0.5033 0.496 0.527 0.5425
723.504 0.5052 0.5525 0.62167 0.59533 0.5573 0.58921 0.6133 0.596246 0.66293 0.7728
742.797 0.8064 0.8441 0.9274 0.9638 0.9923 1.0375 1.1383 1.3453 1.627 1.637
762.091 1.3662 1.2026 1.0817 1.0204 0.9851 0.8796 0.7823 0.7196 0.64255 0.5679
781.384 0.5574 0.5495 0.5297 0.511 0.474 0.463 0.454 0.494 0.5085 0.431
800.678 0.442 0.491 0.5034 0.485 0.483 0.488 0.5348 0.5423 0.483 0.5302
819.971 0.5683 0.5417 0.5613 0.5471 0.526 0.5166 0.488 0.495 0.5157 0.5365
839.264 0.5273 0.496 0.5199 0.5435 0.495 0.454 0.442 0.483 0.478 0.43
858.558 0.438 0.446 0.406 0.421 0.488 0.463 0.451 0.47 0.45 0.44
877.851 0.472 0.487 0.471 0.5061 0.5219 0.5508 0.5494 0.5038 0.5258 0.5065
897.145 0.459 0.486 0.5146 0.496 0.488 0.481 0.494 0.5138 0.5246 0.5267
916.438 0.5468 0.602714 0.62201 0.62773 0.64536 0.69252 0.7593 0.7923 0.8329 0.8887
935.732 0.9934 1.0643 1.0824 1.1022 1.0787 1.0119 0.939 0.8749 0.8311 0.8199
955.025 0.773 0.749 0.7792 0.7923 0.8245 0.8903 0.965 1.0318 1.1427 1.2575
974.318 1.3924 1.5109 1.5427 1.607 1.647 1.647 1.647 1.647 1.607 1.506
993.612 1.3995 1.2909 1.1816 1.0798 1.0064 0.9709 0.9474 0.9622 0.9714 0.9877
1012.905 1.0339 1.0583 1.1239 1.1617 1.2067 1.2338 1.2489 1.2533 1.2118 1.1795
1032.199 1.1199 1.0827 1.0046 0.8689 0.8303 0.8485 0.8431 0.8844 0.8893 0.9379
1051.492 0.9739 0.9408 1.0357 1.1442 1.2152 1.3382 1.4789 1.597 1.697 1.817
1070.786 1.997 2.187 2.357 2.507 2.657 2.777 2.837 2.937 3.027 3.077
1090.079 3.107 3.097 3.137 3.107 3.087 3.097 3.007 2.937 2.917 2.887
1109.372 2.817 2.677 2.577 2.517 2.387 2.297 2.177 2.117 2.157 2.167
1128.666 2.107 2.137 2.237 2.247 2.287 2.427 2.527 2.627 2.747 2.717
1147.959 2.647 2.657 2.597 2.517 2.447 2.397 2.307 2.207 2.177 2.077
1167.253 1.937 1.787 1.697 1.5693 1.4644 1.4853 1.4682 1.4095 1.422 1.4436
1186.546 1.3704 1.3194 1.3662 1.3853 1.2034 1.0328 1.11 1.1573 1.1686 1.243
1205.840 1.1633 1.251 1.3845 1.1792 1.0843 1.2744 1.4001 1.3544 1.3413 1.4183
1225.133 1.38 1.3269 1.4079 1.3977 1.4233 1.607 1.717 1.677 1.707 1.867
1244.426 2.037 2.357 2.627 2.897 3.357 3.827 4.207 4.537 4.897 5.167
1263.720 5.267 5.247 5.067 4.767 4.447 4.117 3.777 3.417 3.037 2.727
1283.013 2.517 2.287 2.137 2.147 2.117 2.117 2.177 2.197 2.137 2.087
1302.307 2.107 2.027 1.967 1.977 1.957 1.927 1.917 1.937 1.917 1.927
1321.600 2.017 2.117 2.247 2.397 2.577 2.817 3.107 3.397 3.717 4.147
1340.894 4.617 5.117 5.717 6.387 7.027 7.697 8.397 9.067 9.797 10.607
1360.187 11.497 12.437 13.417 14.447 15.437 16.257 16.847 17.157 17.297 17.227
1379.480 16.767 15.907 14.657 13.237 11.777 10.377 9.167 8.217 7.457 6.837
1398.774 6.337 5.977 5.777 5.697 5.707 5.817 6.007 6.227 6.527 6.897
1418.067 7.347 7.827 8.237 8.627 9.027 9.457 9.907 10.337 10.727 11.137
1437.361 11.467 11.607 11.697 11.787 11.807 11.687 11.477 11.177 10.667 10.087
1456.654 9.407 8.567 7.747 7.007 6.287 5.567 4.947 4.367 3.927 3.577
1475.948 3.267 3.047 2.877 2.747 2.647 2.567 2.517 2.477 2.417 2.337
1495.241 2.307 2.257 2.177 2.127 2.157 2.227 2.267 2.207 2.157 2.117
1514.534 2.077 2.067 2.007 1.977 1.937 1.867 1.797 1.687 1.5708 1.5214
1533.828 1.5221 1.4774 1.4455 1.4591 1.404 1.3813 1.3619 1.2766 1.2772 1.3057
1553.121 1.3018 1.298 1.3383 1.3734 1.2635 1.2159 1.2383 1.205 1.2129 1.232
1572.415 1.2041 1.1941 1.2166 1.1947 1.1562 1.1427 1.0837 1.0339 1.0113 1.0248
1591.708 1.0524 1.0085 0.9889 0.9899 0.9941 0.9804 0.9456 0.9249 0.9328 0.9631
1611.002 0.9988 1.0076 1.0004 1.032 1.0514 1.0341 1.0298 1.0591 1.0853 1.088
1630.295 1.0908 1.1562 1.2647 1.3408 1.3677 1.4274 1.5113 1.597 1.737 1.837
1649.588 1.927 2.107 2.257 2.297 2.367 2.447 2.557 2.657 2.767 2.927
1668.882 3.127 3.347 3.587 3.867 4.187 4.627 5.267 6.087 7.137 8.297
1688.175 9.677 11.437 13.517 15.887 18.607 21.437 24.397 27.437 30.097 32.577
1707.469 34.537 35.937 36.767 37.327 37.787 38.117 38.047 37.377 36.087 34.377
1726.762 32.487 30.557 28.597 26.547 24.117 21.477 18.737 15.807 13.057 10.617
1746.056 8.657 7.197 6.077 5.177 4.487 3.967 3.557 3.217 2.947 2.707
1765.349 2.497 2.347 2.197 2.067 1.967 1.817 1.727 1.657 1.5354 1.465
1784.642 1.3929 1.3372 1.302 1.2742 1.2521 1.2024 1.1773 1.172 1.1541 1.1122
1803.936 1.078 1.057 1.0197 0.9979 0.9765 0.9601 0.9337 0.9284 0.9314 0.9135
1823.229 0.913 0.9033 0.8794 0.8733 0.8435 0.8102 0.8202 0.8106 0.7935 0.784
1842.523 0.8015 0.8083 0.7842 0.7646 0.767 0.7664 0.7544 0.7328 0.713 0.7462
1861.816 0.7684 0.7579 0.7725 0.7775 0.7611 0.7606 0.7738 0.7819 0.7739 0.7733
1881.110 0.7888 0.8109 0.8203 0.8092 0.8169 0.8213 0.8081 0.7761 0.7553 0.7686
1900.403 0.7725 0.7649 0.748 0.7409 0.7402 0.7615 0.7835 0.7504 0.7436 0.7399
1919.696 0.7022 0.68724 0.68169 0.67771 0.67161 0.66646 0.63943 0.63854 0.63528 0.61464
1938.990 0.6077 0.601459 0.59125 0.5813 0.605982 0.64023 0.63278 0.60725 0.61236 0.61391
1958.283 0.61959 0.62834 0.61523 0.60949 0.58734 0.58985 0.62942 0.63509 0.6219 0.599443
1977.577 0.61551 0.63359 0.62628 0.63765 0.64225 0.65499 0.62714 0.60902 0.64583 0.66495
1996.870 0.68682 0.69324 0.67021 0.64128 0.61983 0.62521 0.65722 0.64924 0.600202 0.58778
2016.164 0.59052 0.58913 0.58919 0.5631 0.5646 0.5698 0.5611 0.5554 0.5653 0.59357
2035.457 0.5951 0.59342 0.604544 0.604391 0.59345 0.5837 0.58868 0.596075 0.5766 0.5835
2054.750 0.61693 0.62707 0.601929 0.5839 0.59585 0.59539 0.5804 0.59428 0.62215 0.61016
2074.044 0.5842 0.5792 0.5577 0.5362 0.5384 0.5272 0.5226 0.5217 0.495 0.49
2093.337 0.492 0.493 0.5187 0.5444 0.5347 0.479 0.474 0.5042 0.4997 0.478
2112.631 0.479 0.463 0.458 0.472 0.468 0.488 0.5017 0.505 0.5052 0.5099
2131.924 0.5121 0.517 0.4994 0.495 0.5143 0.528 0.5513 0.5536 0.5408 0.5261
2151.218 0.54 0.5356 0.5154 0.5366 0.5712 0.5735 0.5402 0.5335 0.55 0.5218
2170.511 0.513 0.5475 0.5332 0.497 0.495 0.496 0.5094 0.5087 0.475 0.451
2189.804 0.436 0.438 0.435 0.442 0.448 0.444 0.445 0.435 0.433 0.434
2209.098 0.436 0.446 0.442 0.432 0.438 0.432 0.412 0.399 0.412 0.418
2228.391 0.433 0.435 0.451 0.486 0.476 0.443 0.419 0.43 0.433 0.439
2247.685 0.45 0.452 0.465 0.469 0.459 0.466 0.453 0.437 0.449 0.447
2266.978 0.438 0.448 0.446 0.449 0.459 0.434 0.447 0.446 0.42 0.44
2286.272 0.446 0.429 0.425 0.441 0.451 0.43 0.417 0.433 0.442 0.443
2305.565 0.444 0.452 0.447 0.463 0.487 0.489 0.491 0.4993 0.5184 0.5296
2324.858 0.5377 0.535 0.5346 0.5445 0.5361 0.5081 0.49 0.5051 0.53 0.5348
2344.152 0.5304 0.5246 0.492 0.47 0.484 0.486 0.483 0.493 0.5137 0.5026
2363.445 0.481 0.486 0.482 0.476 0.453 0.451 0.424 0.407 0.43 0.426
2382.739 0.433 0.417 0.371 0.378 0.409 0.407 0.411 0.422 0.412 0.415
2402.032 0.431 0.437 0.44 0.453 0.434 0.412 0.401 0.41 0.432 0.428
2421.326 0.411 0.402 0.404 0.395 0.413 0.401 0.379 0.403 0.417 0.389
2440.619 0.403 0.422 0.383 0.375 0.396 0.405 0.392 0.39 0.406 0.402
2459.912 0.402 0.386 0.372 0.355 0.33 0.34 0.341 0.381 0.412 0.404
2479.206 0.391 0.373 0.395 0.379 0.335 0.353 0.362 0.374 0.353 0.319
2498.499 0.327 0.338 0.373 0.408 0.409 0.406 0.405 0.415 0.43 0.415
2517.793 0.387 0.376 0.416 0.443 0.426 0.386 0.392 0.408 0.366 0.333
2537.086 0.329 0.351 0.36 0.342 0.354 0.377 0.352 0.336 0.324 0.328
2556.380 0.332 0.32 0.329 0.347 0.339 0.307 0.31 0.323 0.315 0.303
2575.673 0.33 0.332 0.32 0.33 0.315 0.322 0.329 0.312 0.267 0.255
2594.966 0.282 0.293 0.304 0.277 0.295 0.327 0.314 0.324 0.337 0.326
2614.260 0.286 0.27 0.255 0.244 0.295 0.308 0.311 0.331 0.305 0.283
2633.553 0.277 0.276 0.276 0.269 0.264 0.248 0.263 0.3 0.297 0.296
2652.847 0.284 0.246 0.214 0.241 0.291 0.296 0.254 0.231 0.249 0.243
2672.140 0.256 0.257 0.244 0.234 0.234 0.177 0.111 0.194 0.284 0.25
2691.434 0.213 0.24 0.248 0.204 0.171 0.205 0.213 0.224 0.236 0.234
2710.727 0.239 0.234 0.209 0.194 0.203 0.207 0.174 0.21 0.263 0.214
2730.020 0.167 0.185 0.21 0.193 0.156 0.128 0.171 0.188 0.183 0.178
2749.314 0.153 0.139 0.135 0.141 0.129 0.107 0.092 0.11 0.155 0.158
2768.607 0.16 0.148 0.123 0.116 0.136 0.163 0.137 0.115 0.13 0.177
2787.901 0.169 0.159 0.153 0.122 0.081 0.071 0.147 0.204 0.184 0.16
2807.194 0.226 0.253 0.207 0.174 0.134 0.136 0.147 0.144 0.161 0.165
2826.488 0.146 0.107 0.106 0.097 0.121 0.149 0.104 0.115 0.117 0.1
2845.781 0.125 0.15 0.162 0.173 0.156 0.161 0.182 0.18 0.171 0.174
2865.074 0.2 0.2 0.185 0.186 0.207 0.238 0.2 0.169 0.175 0.148
2884.368 0.204 0.262 0.249 0.259 0.264 0.264 0.295 0.31 0.313 0.311
2903.661 0.345 0.417 0.404 0.388 0.373 0.427 0.476 0.433 0.428 0.388
2922.955 0.342 0.349 0.422 0.47 0.401 0.39 0.475 0.5265 0.61585 0.65716
2942.248 0.62846 0.7358 0.8148 0.8346 0.9595 1.0082 1.0622 1.1679 1.2436 1.3757
2961.542 1.4542 1.4669 1.4754 1.486 1.5402 1.5232 1.4171 1.3533 1.2598 1.1348
2980.835 1.0319 0.9722 0.908 0.908 0.9278 0.7936 0.67235 0.62769 0.5562 0.5193
3000.128 0.5192 0.493 0.481 0.511 0.486 0.373 0.297 0.287 0.256 0.239
3019.422 0.225 0.16 0.141 0.144 0.095 0.043 0.096 0.131 0.173 0.216
3038.715 0.129 0.149 0.127 0.059 0.051 0.03 0.104 0.131 0.117 0.111
3058.009 0.077 0.069 0.102 0.142 0.159 0.17 0.138 0.118 0.122 0.14
3077.302 0.169 0.177 0.126 0.159 0.186 0.149 0.177 0.167 0.132 0.12
3096.596 0.164 0.227 0.279 0.254 0.268 0.247 0.14 0.114 0.098 0.056
3115.889 0.044 0.144 0.209 0.146 0.055 0.075 0.179 0.214 0.21 0.145
3135.182 0.135 0.243 0.22 0.18 0.173 0.123 0.189 0.182 0.18 0.179
3154.476 0.019 0.034 0.074 0.058 0.071 0.069 0.083 0.023 0 0.11
3173.769 0.159 0.183 0.188 0.133 0.124 0.153 0.159 0.077 0.046 0.046
3193.063 0.071 0.139 0.13 0.124 0.099 0.063 0.092 0.179 0.26 0.199
3212.356 0.216 0.224 0.132 0.128 0.183 0.224 0.169 0.172 0.272 0.266
3231.650 0.157 0.15 0.17 0.115 0.082 0.116 0.239 0.229 0.276 0.356
3250.943 0.286 0.293 0.25 0.212 0.253 0.343 0.369 0.275 0.237 0.232
3270.236 0.274 0.328 0.332 0.255 0.257 0.318 0.285 0.25 0.263 0.295
3289.530 0.257 0.227 0.249 0.252 0.269 0.323 0.314 0.297 0.337 0.329
3308.823 0.28 0.248 0.237 0.254 0.293 0.334 0.314 0.3 0.312 0.33
3328.117 0.349 0.352 0.305 0.259 0.262 0.291 0.289 0.306 0.301 0.296
3347.410 0.369 0.301 0.253 0.392 0.414 0.365 0.451 0.443 0.355 0.315
3366.704 0.356 0.433 0.41 0.339 0.396 0.433 0.443 0.426 0.368 0.305
3385.997 0.197 0.218 0.38 0.5045 0.5152 0.464 0.433 0.438 0.405 0.411
3405.290 0.5295 0.5358 0.5059 0.599432 0.5312 0.455 0.497 0.5308 0.5413 0.489
3424.584 0.5082 0.5304 0.60767 0.64199 0.5855 0.69606 0.66997 0.601989 0.69204 0.681
3443.877 0.63341 0.61566 0.67934 0.7488 0.67104 0.63257 0.7365 0.7658 0.69144 0.67461
3463.171 0.68041 0.64567 0.5774 0.5746 0.62595 0.54 0.5826 0.7372 0.6635 0.5816
3482.464 0.5785 0.479 0.411 0.476 0.523 0.5522 0.5608 0.48 0.476 0.525
3501.758 0.472 0.469 0.5385 0.5346 0.484 0.468 0.472 0.46 0.4999 0.5244
3521.051 0.467 0.415 0.403 0.497 0.497 0.45 0.493 0.427 0.469 0.5372
3540.344 0.391 0.372 0.443 0.466 0.455 0.43 0.465 0.5289 0.537 0.529
3559.638 0.495 0.465 0.472 0.473 0.5389 0.484 0.438 0.4987 0.471 0.377
3578.931 0.407 0.454 0.5121 0.59304 0.4997 0.476 0.5039 0.493 0.475 0.427
3598.225 0.435 0.455 0.442 0.514 0.64691 0.5686 0.486 0.5283 0.5256 0.5699
3617.518 0.5363 0.5037 0.5324 0.5162 0.5127 0.493 0.463 0.395 0.413 0.492
3636.812 0.417 0.383 0.408 0.385 0.4 0.493 0.5117 0.491 0.488 0.41
3656.105 0.404 0.5064 0.536 0.487 0.485 0.454 0.419 0.5307 0.5639 0.483
3675.398 0.4978 0.5123 0.47 0.438 0.5225 0.5534 0.5592 0.5635 0.5212 0.454
3694.692 0.448 0.5208 0.467 0.422 0.451 0.457 0.43 0.438 0.482 0.5099
3713.985 0.492 0.454 0.455 0.419 0.387 0.431 0.465 0.5291 0.508 0.465
3733.279 0.466 0.457 0.474 0.436 0.416 0.438 0.5069 0.554 0.53 0.465
3752.572 0.423 0.474 0.466 0.402 0.42 0.465 0.45 0.443 0.425 0.354
3771.866 0.408 0.464 0.433 0.379 0.396 0.421 0.416 0.484 0.447 0.462
3791.159 0.433 0.364 0.437 0.367 0.378 0.415 0.413 0.451 0.409 0.393
3810.452 0.337 0.363 0.343 0.385 0.446 0.409 0.443 0.479 0.443 0.395
3829.746 0.419 0.383 0.376 0.425 0.448 0.4971 0.434 0.405 0.453 0.417
3849.039 0.444 0.5049 0.49 0.419 0.412 0.451 0.427 0.434 0.431 0.311
3868.333 0.327 0.421 0.43 0.458 0.397 0.415 0.478 0.419 0.384 0.407
3887.626 0.396 0.355 0.339 0.353 0.372 0.36 0.383 0.345 0.319 0.37
3906.920 0.431 0.45 0.39 0.372 0.335 0.343 0.392 0.393 0.427 0.385
3926.213 0.385 0.415 0.369 0.324 0.323 0.4 0.406 0.412 0.376 0.325
3945.506 0.351 0.385 0.375 0.297 0.276 0.28 0.337 0.382 0.323 0.258
3964.800 0.24 0.303 0.33 0.311 0.294 0.306 0.358 0.358 0.381 0.381
3984.093 0.362 0.354 0.379 0.421 0.392 0.361 0.343 0.34 0.295
##END=
