##TITLE=2,4,6-Trimethylstyrene
##JCAMP-DX=4.24
##DATA TYPE=INFRARED SPECTRUM
##ORIGIN=NIST Mass Spectrometry Data Center
##OWNER=NIST Standard Reference Data Program
Collection (C) 2018 copyright by the U.S. Secretary of Commerce
on behalf of the United States of America. All rights reserved.
##CAS REGISTRY NO=769-25-5
##MOLFORM=C 11 H 14
##$NIST SOURCE=MSDC-IR
##SPECTROMETER/DATA SYSTEM=HP-GC/MS/IRD
##STATE=gas
##XUNITS=1/CM
##YUNITS=ABSORBANCE
##XFACTOR=1.0
##YFACTOR=0.000001400
##DELTAX=4.0
##FIRSTX=550.0
##LASTX=3846.0
##FIRSTY=0.000619
##MAXX=3846
##MINX=550
##MAXY=0.014
##MINY=0
##NPOINTS=825
##XYDATA=(X++(Y..Y))
550.0 442 343 310 303 346 505 543 461 398 362
590.0 309 217 178 165 163 122 62 69 41 18
630.0 37 18 43 72 191 254 272 362 444 463
670.0 508 544 512 447 371 317 283 278 250 233
710.0 272 257 230 240 247 258 300 365 427 502
750.0 618 627 501 425 354 255 194 221 219 165
790.0 172 165 166 152 141 204 233 268 390 543
830.0 881 1476 2125 2817 3976 4165 3005 2303 1744 1122
870.0 740 593 584 592 601 603 645 743 932 1344
910.0 2037 3065 3952 4168 4230 3837 2775 1858 1345 1104
950.0 989 955 962 995 1064 1167 1354 1642 1984 2291
990.0 2490 2570 2481 2189 1847 1629 1557 1505 1426 1381
1030.0 1318 1240 1176 1116 1036 953 903 817 729 673
1070.0 619 558 537 541 544 569 633 695 753 795
1110.0 837 892 869 800 704 607 499 407 334 304
1150.0 324 314 310 339 348 335 328 342 350 355
1190.0 357 344 371 385 374 383 383 379 353 328
1230.0 349 347 327 327 325 317 304 311 351 382
1270.0 411 432 456 506 583 644 693 714 692 656
1310.0 592 507 459 451 452 469 496 517 530 557
1350.0 610 653 707 785 873 1008 1197 1343 1415 1444
1390.0 1340 1174 1086 1092 1141 1219 1305 1429 1581 1722
1430.0 1874 2014 2165 2326 2474 2590 2660 2718 2782 2879
1470.0 3044 3200 3258 3184 2971 2647 2300 2017 1826 1722
1510.0 1625 1549 1523 1516 1497 1476 1481 1486 1512 1507
1550.0 1480 1481 1504 1495 1472 1465 1451 1458 1472 1512
1590.0 1622 1842 2200 2682 3108 3323 3331 3185 2951 2743
1630.0 2574 2348 1990 1536 1057 711 533 432 379 348
1670.0 318 307 292 280 289 279 288 326 370 428
1710.0 501 570 611 585 513 429 335 280 277 267
1750.0 265 256 221 194 151 127 126 122 128 121
1790.0 101 100 97 91 88 96 107 124 148 181
1830.0 244 345 474 603 692 706 636 506 366 268
1870.0 214 194 182 162 170 186 188 186 157 143
1910.0 145 125 122 122 94 72 70 68 72 85
1950.0 100 110 106 101 105 110 101 84 74 63
1990.0 61 70 43 13 21 26 28 31 25 31
2030.0 31 45 51 39 39 38 36 32 34 38
2070.0 51 50 36 33 27 29 37 22 21 33
2110.0 34 34 39 28 19 26 16 21 38 31
2150.0 19 27 33 30 24 26 36 40 44 41
2190.0 27 15 12 0 4 22 28 23 21 20
2230.0 13 10 5 14 15 12 10 4 19 24
2270.0 16 18 16 22 22 9 23 38 41 49
2310.0 58 72 69 64 68 62 72 64 70 66
2350.0 57 67 80 97 97 69 59 56 62 77
2390.0 84 85 87 86 87 93 91 99 96 70
2430.0 69 70 72 84 91 72 67 90 105 92
2470.0 87 91 101 104 84 75 80 79 75 65
2510.0 59 72 75 66 56 57 67 56 38 52
2550.0 49 41 64 61 39 48 51 24 32 55
2590.0 46 42 39 36 28 17 14 30 46 48
2630.0 55 57 51 68 88 86 66 84 114 115
2670.0 113 114 110 116 124 126 146 156 140 140
2710.0 166 189 218 247 261 340 435 498 545 534
2750.0 474 398 321 270 252 238 244 276 299 319
2790.0 346 356 377 426 473 516 566 623 683 781
2830.0 893 1022 1187 1387 1692 2065 2519 3082 3701 4260
2870.0 4635 4816 4760 4531 4281 4114 4047 4108 4318 4693
2910.0 5243 6096 7251 8466 9455 10000 9979 9412 8484 7505
2950.0 6725 6203 5902 5769 5728 5746 5804 5899 5951 6013
2990.0 6214 6606 7140 7543 7709 7573 7100 6467 5913 5453
3030.0 5075 4739 4391 4012 3621 3239 2883 2575 2356 2226
3070.0 2217 2358 2735 3214 3481 3432 3011 2317 1565 1064
3110.0 800 666 566 479 447 414 380 361 331 310
3150.0 296 258 246 256 241 217 172 145 148 139
3190.0 141 108 104 127 101 105 99 99 110 91
3230.0 75 91 120 115 100 108 105 101 111 121
3270.0 113 113 94 60 55 92 107 65 73 80
3310.0 64 58 57 57 51 60 60 55 48 55
3350.0 57 48 56 51 55 65 45 22 18 55
3390.0 66 44 65 59 22 37 59 48 66 102
3430.0 96 68 36 13 45 77 69 71 65 68
3470.0 96 80 59 53 32 41 59 31 38 61
3510.0 64 75 59 61 66 65 70 63 89 75
3550.0 55 64 64 90 88 77 76 60 73 76
3590.0 73 83 103 111 96 121 132 95 91 103
3630.0 72 42 73 98 80 62 76 101 79 59
3670.0 87 98 86 79 42 31 38 33 45 69
3710.0 63 39 49 52 40 49 60 48 55 60
3750.0 32 39 24 19 34 29 48 42 31 56
3790.0 57 53 72 66 68 69 62 74 68 34
3830.0 12 50 102 74 69
##END=
