##TITLE=sec-Butyl ethyl sulphoxide
##JCAMP-DX=4.24
##DATA TYPE=INFRARED SPECTRUM
##ORIGIN=EPA-IR VAPOR PHASE LIBRARY
##OWNER=SRD/NIST
Collection (C) 2018 copyright by the U.S. Secretary of Commerce
on behalf of the United States of America. All rights reserved.
##CAS REGISTRY NO=7694-18-0
##MOLFORM=C 6 H 14 O S
##$NIST SOURCE=MSDC-IR
##STATE=gas
##XUNITS=1/CM
##YUNITS=ABSORBANCE
##XFACTOR=1.
##YFACTOR=0.001
##DELTAX=1.92898
##FIRSTX=549.8
##LASTX=4000.7
##FIRSTY=3.114
##MAXX=4000.7
##MINX=549.759
##MAXY=0.052714
##MINY=0
##NPOINTS=1790
##XYDATA=(X++(Y..Y))
549.759 3.114 2.194 2.684 3.354 3.204 2.754 2.614 3.444 2.954 2.514
569.049 2.204 2.284 3.434 3.674 3.544 3.104 2.584 2.544 1.924 2.084
588.339 2.844 2.974 3.304 3.164 3.214 3.994 4.344 4.244 3.804 3.464
607.628 3.814 4.004 4.054 3.984 4.614 5.384 4.924 4.614 4.574 4.844
626.918 5.414 5.474 4.984 5.224 5.574 5.334 5.344 5.164 5.154 5.634
646.208 5.954 6.114 5.584 5.194 5.654 5.204 4.544 5.164 5.794 5.954
665.498 6.294 6.534 6.534 6.244 6.134 6.524 6.424 5.924 5.454 5.214
684.787 5.314 5.384 5.324 5.434 5.104 4.884 5.414 5.514 5.374 5.294
704.077 5.414 6.074 6.374 6.634 6.894 6.824 7.314 8.104 9.184 10.154
723.367 10.514 11.264 12.534 14.084 15.754 17.074 18.684 20.604 22.504 24.364
742.657 25.864 27.274 28.314 29.014 29.714 30.234 30.964 31.274 31.014 30.074
761.947 28.454 27.194 26.304 25.124 24.044 23.104 21.324 19.094 17.314 15.804
781.236 14.114 12.624 11.034 9.924 8.894 7.614 6.914 6.464 5.784 5.084
800.526 4.984 4.464 4.144 4.034 3.724 3.414 2.824 2.724 2.914 3.194
819.816 3.354 2.834 2.244 2.884 3.414 2.874 2.524 2.384 3.034 3.254
839.106 2.574 2.884 3.234 3.004 3.334 3.654 3.144 3.214 3.514 3.834
858.395 3.914 3.974 4.564 4.664 4.494 4.394 4.904 5.154 5.294 5.274
877.685 5.144 5.794 6.094 5.824 6.254 6.654 6.804 7.184 7.334 7.744
896.975 7.934 8.134 8.794 8.944 8.634 8.784 9.884 10.984 10.744 10.014
916.265 9.784 9.514 9.634 10.474 10.444 10.074 10.414 10.304 9.864 9.864
935.555 9.504 9.474 9.834 9.824 10.154 10.184 11.484 14.504 14.054 11.434
954.844 10.804 10.764 10.234 9.994 10.134 9.614 9.504 9.764 9.554 9.374
974.134 9.304 9.454 9.774 10.014 9.594 8.834 9.224 10.314 9.884 8.934
993.424 9.534 9.634 8.904 8.864 8.824 8.594 8.594 8.444 8.444 9.054
1012.714 8.594 8.454 8.474 7.994 7.624 7.034 6.924 7.104 6.954 6.674
1032.003 6.724 6.744 7.034 6.604 7.104 7.814 7.064 7.114 7.624 7.644
1051.293 7.674 8.384 9.104 9.764 9.934 10.644 11.774 12.014 12.184 12.614
1070.583 13.454 14.354 15.254 15.904 15.514 14.464 14.214 14.294 14.264 12.444
1089.873 9.664 8.744 9.104 7.754 6.274 6.124 5.464 5.534 6.814 6.534
1109.163 6.474 6.604 5.764 6.284 7.314 7.264 7.994 9.164 9.454 9.534
1128.452 8.824 8.544 9.614 11.114 12.474 13.234 14.554 15.964 16.894 18.544
1147.742 20.124 20.674 20.394 19.894 19.754 19.414 19.164 19.144 18.594 19.084
1167.032 19.674 19.324 19.014 17.814 16.724 16.574 15.234 12.984 10.944 9.234
1186.322 8.024 7.554 6.994 5.964 5.394 4.134 3.774 4.264 3.284 3.934
1205.611 3.894 3.074 2.874 2.684 3.944 3.974 4.084 4.164 2.794 1.944
1224.901 2.574 2.904 1.934 2.114 3.904 4.344 3.454 3.784 4.894 4.384
1244.191 4.674 5.354 5.514 6.284 6.144 6.744 7.164 6.354 6.184 6.764
1263.481 7.494 7.654 7.664 7.234 6.664 6.124 5.644 5.954 6.214 5.894
1282.771 5.354 4.914 4.814 4.784 4.624 4.174 3.854 3.984 3.924 3.924
1302.060 4.194 4.044 3.834 3.844 3.754 3.804 3.874 3.844 3.754 3.704
1321.350 3.774 3.864 3.904 3.904 3.974 3.944 3.924 4.084 4.204 4.424
1340.640 4.514 4.214 4.054 4.154 4.094 4.224 4.444 4.524 4.644 4.754
1359.930 5.224 5.564 5.464 5.564 5.924 6.384 6.734 7.074 7.324 7.724
1379.219 8.034 8.164 8.304 8.444 8.624 8.654 8.584 8.514 8.524 8.464
1398.509 8.404 8.094 7.804 7.824 7.824 7.674 7.664 7.694 7.664 7.804
1417.799 7.914 7.964 7.964 8.044 8.114 8.314 8.414 8.624 9.034 9.544
1437.089 9.914 9.844 10.124 10.624 10.964 11.334 11.484 11.474 11.544 11.754
1456.378 12.284 11.994 11.464 11.404 11.434 11.154 10.564 10.254 10.094 9.754
1475.668 9.384 8.704 8.164 7.804 7.254 7.184 7.024 6.684 6.174 5.734
1494.958 5.654 5.244 4.754 4.784 4.824 4.734 4.864 4.654 4.404 4.144
1514.248 3.844 3.744 3.624 3.814 3.834 3.524 3.464 3.284 2.924 2.884
1533.538 2.754 2.644 2.834 2.964 2.894 2.644 2.534 2.394 2.584 2.594
1552.827 2.384 2.304 2.474 3.034 2.724 2.144 1.7524 1.8131 2.404 2.434
1572.117 2.214 2.244 2.404 2.194 1.9286 1.944 1.9021 1.8684 2.034 2.024
1591.407 1.8643 1.984 1.994 2.044 2.364 2.694 2.584 2.264 2.334 2.524
1610.697 2.724 2.934 3.094 3.444 3.854 4.084 4.184 4.294 4.414 4.524
1629.986 4.584 4.434 4.494 4.634 4.624 4.684 4.354 4.264 4.614 4.754
1649.276 4.544 4.524 5.044 4.784 4.064 3.834 3.654 3.384 3.034 2.714
1668.566 2.654 2.554 2.394 2.424 2.374 2.304 2.254 2.284 2.394 2.084
1687.856 1.994 2.134 1.984 1.984 1.934 1.7876 2.254 2.084 1.5566 1.7611
1707.146 1.934 1.7202 1.4647 1.535 1.7783 1.994 1.7343 1.5332 1.5871 1.3832
1726.435 1.2871 1.5104 1.635 1.8754 1.934 1.521 1.4552 1.3279 1.3608 1.4927
1745.725 1.2903 1.3005 1.6119 1.7407 1.4853 1.3705 1.5099 1.363 1.3345 1.3994
1765.015 1.3831 1.6096 1.6261 1.6584 1.5757 1.4058 1.292 1.3387 1.5647 1.5132
1784.305 1.5732 1.4835 1.4164 1.4266 1.3326 1.3406 1.3297 1.3425 1.4479 1.5558
1803.594 1.4667 1.5603 1.6911 1.7895 1.8524 1.781 1.8206 2.014 1.9257 1.8025
1822.884 1.954 1.954 1.7892 1.7757 1.7798 1.7411 1.8228 1.9151 2.024 1.944
1842.174 1.974 2.124 1.954 1.9266 1.8792 1.6543 1.4514 1.3835 1.3907 1.3573
1861.464 1.4768 1.4308 1.3437 1.4448 1.4426 1.3546 1.3596 1.3128 1.1215 1.156
1880.754 1.1694 1.0892 1.2163 1.2994 1.4263 1.4319 1.2908 1.236 1.2397 1.1658
1900.043 1.1897 1.1696 0.95468 1.1162 1.4484 1.397 1.2497 1.3176 1.3373 1.4045
1919.333 1.4308 1.4111 1.4191 1.3443 1.4515 1.4989 1.2491 1.1819 1.2964 1.3311
1938.623 1.3048 1.3944 1.5222 1.2181 1.0898 1.1144 1.1504 1.2341 1.175 1.0648
1957.913 1.0226 1.1744 1.1687 1.16 1.1862 1.2409 1.1872 0.8996 0.95316 1.066
1977.202 1.065 1.3359 1.6439 1.6561 1.3386 1.1131 1.2246 1.2929 1.2462 1.2518
1996.492 1.4542 1.3387 0.98143 1.0669 1.0493 1.01162 1.136 1.0879 0.98071 0.97583
2015.782 1.1005 1.2026 1.1982 1.1486 1.02313 1.0615 1.12 1.0653 1.1039 1.0753
2035.072 1.03395 1.1842 1.3238 1.2209 1.1269 1.03215 1.01965 1.0335 0.8686 0.844
2054.362 1.01969 1.0457 0.8399 0.95977 1.1195 1.02208 1.03312 1.02886 1.0485 0.95862
2073.651 0.745 0.801 0.92736 1.067 1.0476 0.98609 0.96393 1.0348 1.1442 0.9215
2092.941 0.96699 1.0817 1.1008 1.1626 0.99924 1.02023 1.2275 1.0685 0.9057 1.01934
2112.231 1.01775 0.96209 0.9027 0.9209 0.92429 0.8422 0.918 1.01654 0.94529 0.98684
2131.521 1.1098 1.0495 0.937096 1.0767 1.2234 1.2072 1.1325 1.0765 1.117 1.156
2150.810 1.2591 1.1257 1.02058 1.2257 1.264 1.1043 1.087 1.0641 1.02349 1.0639
2170.100 1.1571 1.0496 0.8522 1.1191 1.1372 0.92951 1.1039 1.2202 1.2276 1.1733
2189.390 0.9074 0.8355 1.0964 1.1414 1.0849 1.02833 0.99448 1.1723 1.1897 1.03052
2208.680 1.0961 1.11 1.0602 1.0791 1.02392 1.00918 0.98444 1.0834 1.1625 1.0372
2227.970 1.0906 1.3934 1.2761 1.0978 1.0766 1.01941 1.2333 1.3507 1.5243 1.5232
2247.259 1.2831 1.3463 1.6705 1.5498 1.2745 1.00436 1.1068 1.4715 1.252 1.2301
2266.549 1.3694 1.4256 1.6083 1.7738 1.7392 1.5947 1.6223 1.6065 1.7079 1.984
2285.839 1.964 1.8908 2.094 2.174 1.974 2.054 2.304 2.384 2.204 2.034
2305.129 2.164 2.204 2.074 2.064 2.014 2.014 1.944 1.7222 1.6402 1.6372
2324.418 1.6775 1.6185 1.5442 1.4931 1.4775 1.4034 1.3256 1.3413 1.2959 1.3198
2343.708 1.139 1.1066 1.4029 1.4679 1.4421 1.2584 1.0935 1.0874 1.0791 1.1794
2362.998 1.1803 1.3671 1.4844 1.2125 1.1144 1.3431 1.1963 1.0867 1.1953 1.0959
2382.288 0.97594 0.98801 0.821 0.829 0.96345 0.9024 1.00727 1.1331 1.2571 1.3091
2401.578 1.2275 1.112 1.1037 1.1761 1.058 1.0872 1.2993 1.3504 1.3281 1.1842
2420.867 1.1805 1.3206 1.3382 1.3519 1.4294 1.4657 1.376 1.3686 1.1843 1.0396
2440.157 1.1685 1.3015 1.1243 0.762 0.92484 1.00611 1.00247 1.0795 1.3193 1.3836
2459.447 1.0728 0.8626 0.809 0.95023 1.2391 1.3508 1.134 1.1774 1.2228 1.0671
2478.737 1.1317 1.2144 1.0434 0.95932 1.1188 1.081 1.0384 0.876 0.95637 1.1699
2498.026 1.1958 1.0269 1.0449 1.4352 1.1575 0.9014 1.0931 1.2275 1.1232 0.97716
2517.316 0.817 0.9199 0.92742 0.9231 1.0805 1.1906 1.335 1.2241 1.0501 1.00875
2536.606 1.0685 1.02715 1.1831 1.2739 1.01981 0.752 0.804 0.8963 0.99362 0.8713
2555.896 0.758 0.9224 0.9126 0.98649 1.1215 1.1398 1.1808 0.812 0.685 0.745
2575.186 0.74 1.1123 1.2023 0.8829 0.642 0.81 0.936853 0.935482 0.934585 0.752
2594.475 0.8525 1.057 0.9101 1.0422 0.94402 0.744 0.699 0.8762 1.1415 1.1294
2613.765 1.3472 1.2405 1.0287 1.0545 1.1247 1.2585 1.0379 1.0719 1.155 1.2124
2633.055 1.4239 1.4815 1.25 0.8827 0.92517 1.1644 1.2654 1.0668 1.00913 1.1866
2652.345 1.1028 1.3605 1.6896 1.4153 1.1392 1.1547 1.01443 0.94918 1.256 1.2893
2671.634 1.0743 0.783 0.8382 1.2798 1.5847 1.4255 1.5716 1.8139 1.6005 1.242
2690.924 1.2424 1.6066 1.4477 1.3182 1.4092 1.6295 1.6551 1.2886 1.2131 1.3779
2710.214 1.4518 1.45 1.5445 1.694 1.6864 1.6333 1.7816 1.8902 1.7863 1.5493
2729.504 1.4532 1.7111 1.944 1.974 2.114 2.214 2.034 1.954 1.954 2.124
2748.794 2.434 2.434 2.214 2.274 2.604 2.254 1.934 2.084 2.294 2.184
2768.083 1.994 2.084 2.104 2.224 2.194 2.174 2.484 2.634 2.474 2.424
2787.373 2.534 2.734 2.674 2.594 2.554 2.784 3.304 3.364 3.174 3.144
2806.663 3.284 3.544 3.954 3.924 3.904 3.894 3.954 4.474 4.684 4.734
2825.953 5.004 5.134 5.294 5.724 5.844 5.884 6.274 6.514 6.654 7.054
2845.242 7.734 8.594 8.904 9.754 10.584 11.254 12.254 13.054 14.064 14.894
2864.532 15.834 17.254 18.434 19.564 20.654 21.624 22.574 23.414 24.134 24.704
2883.822 25.164 26.184 27.004 27.284 27.894 28.334 28.934 29.234 29.444 30.154
2903.112 30.454 30.544 31.254 31.804 32.194 33.044 34.104 35.244 36.304 37.404
2922.401 38.374 39.464 40.654 41.674 42.614 43.274 43.784 44.354 44.954 45.534
2941.691 46.034 46.274 46.234 46.374 46.784 47.064 47.454 47.874 48.354 48.904
2960.981 49.574 50.724 51.624 51.444 51.444 52.104 52.514 52.714 52.414 51.824
2980.271 50.824 49.594 48.554 46.884 44.374 41.644 39.464 37.314 34.564 32.034
2999.561 30.164 28.184 25.924 24.124 22.814 21.754 20.884 19.684 18.264 17.424
3018.850 16.714 16.084 15.344 14.444 13.964 13.234 12.444 12.444 12.214 11.494
3038.140 11.164 10.884 10.854 10.634 10.254 10.164 10.034 9.864 9.604 9.364
3057.430 9.284 9.554 9.504 9.244 9.644 9.784 9.584 9.634 9.444 9.324
3076.720 8.954 8.644 8.664 8.634 8.584 8.634 8.344 7.674 7.734 8.024
3096.009 7.734 7.614 7.604 7.324 7.024 6.384 6.234 6.094 5.414 5.184
3115.299 4.764 4.304 4.744 4.624 4.334 4.214 4.064 3.834 3.684 3.494
3134.589 3.244 3.474 3.404 3.484 3.154 2.684 2.804 2.924 2.724 2.694
3153.879 2.784 2.684 2.554 2.114 2.074 2.174 2.234 2.414 2.354 2.104
3173.169 2.024 2.484 2.184 1.8572 2.024 2.044 2.514 2.504 2.224 2.044
3192.458 1.8368 1.964 1.8516 1.636 1.934 2.064 1.934 1.7929 1.1065 1.1396
3211.748 1.4887 1.2805 0.8825 0.99667 1.3081 1.0808 1.065 1.3362 1.6728 1.6918
3231.038 1.483 1.4313 1.5612 1.6026 1.4038 1.2698 1.2018 1.3666 1.7256 1.7975
3250.328 1.8171 1.6387 1.4041 1.4765 1.3376 0.8379 0.8909 1.0982 0.8912 1.0664
3269.617 1.637 1.5012 0.943517 1.3296 1.7283 2.004 1.736 1.02203 0.73 0.9279
3288.907 1.2763 1.2656 1.2481 1.5296 1.7186 1.4072 1.5773 1.5464 1.4313 1.37
3308.197 1.3074 0.95838 0.677 0.542 0.265 0.491 0.631 0.99694 1.3607 0.8411
3327.487 0.678 1.1508 1.0996 1.0596 1.115 0.8382 0.649 0.582 0.94753 1.2422
3346.777 1.0843 1.2345 1.0981 1.1574 1.4629 1.7136 1.2506 1.1426 1.3979 0.768
3366.066 0.786 1.3975 1.5308 1.2134 0.71 0.438 1.0353 1.2939 0.8663 1.02996
3385.356 0.98316 0.702 0.505 0.612 0.562 0.25 1.02963 1.1431 1.3006 1.3764
3404.646 0.602 0.672 1.02009 0.851 0.8759 0.8403 0.513 0.571 0.821 1.01056
3423.936 1.1351 1.1144 0.98709 0.821 0.685 0.59 0.582 0.99697 1.268 1.1279
3443.225 1.1119 0.8406 0.8989 0.96707 0.746 0.684 0.738 0.719 0.509 0.78
3462.515 1.02761 0.8412 0.487 0.816 1.1776 1.2266 1.4919 1.287 0.98602 1.01246
3481.805 0.798 0.62 0.685 0.809 1.02303 0.76 0.422 0.401 0.205 0.445
3501.095 1.01647 1.2333 1.02243 0.733 1.0663 1.517 1.3392 1.1821 0.8383 0.272
3520.385 0 0.342 0.73 0.783 0.8648 0.595 0.674 0.8537 0.624 0.827
3539.674 1.2023 1.366 1.4883 1.6484 1.5249 1.6365 1.6509 1.2262 1.5288 1.8174
3558.964 1.7286 1.9088 2.374 3.184 3.774 3.424 3.364 4.164 4.914 5.644
3578.254 6.274 6.544 7.214 8.254 9.664 11.174 12.174 13.604 15.234 16.444
3597.544 17.284 17.964 18.314 18.644 19.584 21.274 22.314 20.404 18.354 17.724
3616.833 17.754 18.184 17.594 16.444 14.664 12.714 11.404 9.964 8.584 7.524
3636.123 6.374 5.384 4.904 4.754 4.684 4.124 3.644 3.264 2.774 2.294
3655.413 2.074 2.004 1.5165 1.4822 1.3848 1.4174 1.7015 1.3292 1.1092 1.0825
3674.703 1.1686 1.03126 1.1283 1.0507 0.731 0.8997 1.3729 1.4822 1.275 1.1377
3693.993 0.94927 0.8397 0.8755 1.1381 0.832 0.487 0.712 0.93964 1.0465 1.3426
3713.282 1.3064 0.8745 0.8903 1.1343 0.96038 1.00457 1.1825 1.1206 1.3296 1.5819
3732.572 1.4518 1.6253 1.5761 0.98863 1.1107 1.6771 1.7367 1.7643 1.8192 1.7079
3751.862 1.7247 1.379 0.9686 0.759 0.93163 0.935511 0.657 0.757 0.887 0.98101
3771.152 0.96796 1.166 1.0355 0.804 1.1858 1.0768 0.617 0.221 0.34 0.9052
3790.441 1.0384 0.818 0.99746 1.6329 1.2968 1.2622 1.3492 1.0584 1.1309 1.1137
3809.731 0.9925 0.822 1.0555 1.2967 1.1541 1.3704 1.5541 1.0767 0.931 1.1038
3829.021 1.2933 0.99108 0.8 1.01029 1.0896 1.1425 1.3552 1.5096 1.2811 1.4189
3848.311 0.97313 0.638 1.9011 2.284 1.6492 1.5546 1.4756 1.2137 1.1511 1.5149
3867.601 1.4511 1.2163 0.98705 1.0627 1.1855 0.9093 1.3729 1.2195 1.0404 1.3307
3886.890 0.639 0.649 1.01135 1.3711 1.7361 1.7225 1.7097 1.944 1.954 1.3164
3906.180 1.313 1.152 1.2279 1.3086 1.1239 1.8176 2.184 1.7862 1.3131 1.1969
3925.470 1.146 1.3301 1.974 2.354 2.454 2.044 1.1856 1.3013 1.626 1.2082
3944.760 1.5264 1.4295 1.1509 1.3394 1.2632 1.2484 1.2084 0.9034 1.0952 1.4963
3964.049 1.27 1.1675 1.2952 1.3985 1.1286 0.97271 1.1436 1.3126 1.3941 1.5065
3983.339 1.595 1.5856 1.5427 1.2205 0.9227 1.0732 1.3153 1.4658 1.3997 1.1255
##END=
