##TITLE=DL-alpha-Tocopheryl acetate
##JCAMP-DX=4.24
##DATA TYPE=INFRARED SPECTRUM
##ORIGIN=EPA-IR VAPOR PHASE LIBRARY
##OWNER=SRD/NIST
Collection (C) 2018 copyright by the U.S. Secretary of Commerce
on behalf of the United States of America. All rights reserved.
##CAS REGISTRY NO=7695-91-2
##MOLFORM=C 31 H 52 O 3
##$NIST SOURCE=MSDC-IR
##STATE=gas
##XUNITS=1/CM
##YUNITS=ABSORBANCE
##XFACTOR=1.
##YFACTOR=0.001
##DELTAX=1.92898
##FIRSTX=549.8
##LASTX=4000.7
##FIRSTY=0.5904
##MAXX=4000.7
##MINX=549.759
##MAXY=0.047233
##MINY=0
##NPOINTS=1790
##XYDATA=(X++(Y..Y))
549.759 0.5904 0.4432 0.5054 0.9086 1.303 1.0746 0.6777 0.6243 0.7172 0.6868
569.049 0.542 0.582 0.6604 0.5721 0.5612 0.7009 0.719 0.6963 0.6924 0.754
588.339 0.7632 0.5683 0.451 0.4745 0.5106 0.4836 0.5049 0.5306 0.5323 0.67
607.628 0.806 0.8754 0.8579 0.8329 0.9431 1.0037 1.0719 1.1366 0.9687 0.7295
626.918 0.6891 0.7081 0.5593 0.452 0.4545 0.4062 0.2185 0.133 0.1811 0.2384
646.208 0.35094 0.34262 0.32129 0.33255 0.33325 0.30871 0.28392 0.3288 0.3785 0.3824
665.498 0.4406 0.5426 0.5769 0.5633 0.6285 0.6891 0.6557 0.7632 0.79 0.7143
684.787 0.6628 0.5992 0.5052 0.4215 0.4718 0.4572 0.35271 0.4331 0.5394 0.5299
704.077 0.4713 0.3171 0.26837 0.34663 0.3761 0.3857 0.4064 0.4327 0.3932 0.31948
723.367 0.3768 0.4073 0.4076 0.4971 0.513 0.5264 0.5895 0.6021 0.6546 0.6138
742.657 0.493 0.5149 0.55 0.5234 0.5049 0.4682 0.4145 0.3931 0.36041 0.26467
761.947 0.32492 0.3342 0.31552 0.34938 0.29227 0.34176 0.32477 0.29852 0.31879 0.2471
781.236 0.218 0.272908 0.31425 0.3854 0.34696 0.278234 0.29791 0.29042 0.31481 0.3673
800.526 0.4552 0.497 0.5243 0.584 0.6041 0.5657 0.5373 0.5127 0.5101 0.5006
819.816 0.5056 0.5248 0.5566 0.5831 0.5638 0.5743 0.5951 0.6746 0.7878 0.7757
839.106 0.7756 0.8896 0.9766 0.9563 0.9041 0.8494 0.7271 0.7438 0.7718 0.7523
858.395 0.8209 0.7587 0.7318 0.7418 0.6838 0.689 0.6638 0.7179 0.8437 0.9479
877.685 0.9393 0.9147 1.0479 1.1288 1.2251 1.553 1.773 1.863 2.013 2.093
896.975 2.083 2.093 2.123 2.093 2.073 2.153 2.303 2.433 2.553 2.633
916.265 2.703 2.803 2.713 2.653 2.663 2.533 2.433 2.283 2.123 2.093
935.555 2.043 1.933 1.813 1.713 1.673 1.543 1.363 1.333 1.313 1.2598
954.844 1.2646 1.2064 1.1948 1.2487 1.2057 1.2317 1.283 1.293 1.283 1.283
974.134 1.313 1.413 1.463 1.493 1.523 1.613 1.763 1.813 1.983 2.153
993.424 2.243 2.383 2.583 2.703 2.883 3.273 3.603 3.763 3.813 3.813
1012.714 3.553 3.173 3.013 2.933 2.823 2.583 2.493 2.503 2.403 2.503
1032.003 2.713 2.693 2.773 3.013 3.333 3.733 3.873 4.073 4.353 4.703
1051.293 4.983 5.143 5.593 5.823 5.883 6.313 6.903 7.113 7.343 7.823
1070.583 8.393 8.723 9.023 9.483 9.843 10.083 10.133 10.073 9.873 9.413
1089.873 8.743 8.283 7.963 7.533 7.263 7.203 7.313 7.463 7.703 7.743
1109.163 7.613 7.603 6.993 6.483 6.003 5.183 4.733 4.503 4.293 4.343
1128.452 4.303 4.183 4.133 4.103 4.103 4.153 4.323 4.403 4.513 4.793
1147.742 5.303 5.443 5.613 5.903 6.063 6.133 6.023 5.983 5.953 6.003
1167.032 6.233 6.363 6.303 6.273 6.513 6.903 7.113 7.433 8.143 9.133
1186.322 10.223 11.703 13.783 16.743 20.593 25.103 30.383 36.293 42.053 46.073
1205.611 47.233 44.973 39.363 32.273 25.353 19.523 15.273 12.113 9.663 7.993
1224.901 6.793 5.773 5.163 4.753 4.413 4.293 4.073 3.873 3.973 4.133
1244.191 4.263 4.353 4.333 4.463 4.493 4.213 3.903 3.583 3.353 3.013
1263.481 2.643 2.453 2.323 2.163 2.033 1.933 1.853 1.803 1.713 1.673
1282.771 1.653 1.683 1.693 1.663 1.703 1.733 1.733 1.693 1.703 1.763
1302.060 1.843 1.863 1.923 1.973 2.033 2.133 2.253 2.363 2.493 2.663
1321.350 2.763 2.893 3.063 3.213 3.263 3.243 3.193 3.063 2.943 2.813
1340.640 2.723 2.723 2.803 2.943 3.103 3.323 3.553 3.813 4.203 4.733
1359.930 5.463 6.483 7.763 9.133 10.243 10.773 10.663 10.153 9.653 9.323
1379.219 9.083 8.723 8.003 7.083 6.193 5.403 4.743 4.273 3.993 3.793
1398.509 3.713 3.783 3.933 4.133 4.403 4.743 5.153 5.583 6.013 6.373
1417.799 6.583 6.603 6.413 6.183 5.943 5.683 5.473 5.363 5.403 5.613
1437.089 5.923 6.183 6.393 6.603 6.803 7.003 7.223 7.433 7.623 7.743
1456.378 7.863 7.913 7.823 7.693 7.503 7.173 6.703 6.223 5.693 5.123
1475.668 4.563 4.063 3.643 3.303 3.033 2.803 2.593 2.403 2.223 2.073
1494.958 1.973 1.873 1.833 1.753 1.663 1.653 1.653 1.583 1.533 1.463
1514.248 1.373 1.373 1.373 1.383 1.383 1.313 1.313 1.313 1.273 1.2641
1533.538 1.273 1.273 1.2671 1.2447 1.2688 1.313 1.323 1.323 1.333 1.353
1552.827 1.343 1.363 1.413 1.503 1.493 1.453 1.483 1.503 1.523 1.553
1572.117 1.553 1.553 1.573 1.493 1.403 1.343 1.2657 1.1562 1.1035 1.0522
1591.407 0.941 0.8905 0.888 0.8563 0.8472 0.8854 0.8238 0.7285 0.7265 0.7521
1610.697 0.7619 0.7322 0.7161 0.7646 0.7362 0.6957 0.7263 0.7345 0.715 0.6968
1629.986 0.6852 0.652 0.6245 0.6382 0.5992 0.595 0.6151 0.5716 0.5703 0.6146
1649.276 0.6265 0.6677 0.6759 0.5941 0.5501 0.5672 0.5909 0.5895 0.5739 0.6047
1668.566 0.6643 0.6416 0.6099 0.6451 0.6279 0.5643 0.5707 0.6113 0.6704 0.6589
1687.856 0.6172 0.6332 0.666 0.6863 0.7019 0.6809 0.7441 0.7786 0.7443 0.8105
1707.146 0.8289 0.8279 0.8509 0.8784 0.9273 0.9649 0.9761 0.9801 1.0002 1.0354
1726.435 1.0853 1.1442 1.1782 1.2061 1.2561 1.2722 1.303 1.353 1.423 1.543
1745.725 1.643 1.783 2.013 2.313 2.693 3.123 3.663 4.303 5.053 5.873
1765.015 6.813 7.913 9.143 10.443 11.643 12.403 12.523 11.953 10.923 9.623
1784.305 8.213 6.763 5.403 4.293 3.483 2.883 2.443 2.123 1.883 1.653
1803.594 1.513 1.423 1.323 1.2358 1.1832 1.1427 1.1221 1.1019 1.0575 1.0392
1822.884 1.0188 0.9916 0.9749 0.9452 0.9106 0.883 0.8513 0.8024 0.7587 0.7379
1842.174 0.6972 0.6581 0.6313 0.5908 0.5798 0.5619 0.5223 0.5017 0.495 0.4527
1861.464 0.4268 0.4361 0.4155 0.403 0.4286 0.4325 0.4046 0.3927 0.3979 0.3821
1880.754 0.3628 0.35845 0.36027 0.4004 0.3984 0.3748 0.36949 0.36177 0.36611 0.35353
1900.043 0.34951 0.37166 0.4083 0.4231 0.4148 0.4071 0.3741 0.36649 0.4001 0.3779
1919.333 0.36134 0.3676 0.3822 0.3871 0.3799 0.4006 0.4032 0.3995 0.3896 0.35224
1938.623 0.33903 0.35069 0.34133 0.33978 0.33723 0.32143 0.35457 0.34735 0.30423 0.3176
1957.913 0.31775 0.31802 0.34445 0.36972 0.36045 0.34214 0.32813 0.31627 0.33467 0.34041
1977.202 0.32476 0.31959 0.30189 0.31994 0.33029 0.29133 0.275749 0.29664 0.32438 0.31577
1996.492 0.31532 0.31241 0.32553 0.34425 0.32681 0.32193 0.35112 0.3666 0.3748 0.3732
2015.782 0.36064 0.35614 0.33584 0.32029 0.31474 0.32111 0.33054 0.35757 0.34942 0.3249
2035.072 0.33248 0.36396 0.383 0.3672 0.36044 0.3906 0.4388 0.44 0.4331 0.4362
2054.362 0.4009 0.4074 0.4225 0.4213 0.4625 0.4458 0.3973 0.37273 0.35161 0.34384
2073.651 0.36785 0.4212 0.4296 0.4216 0.4336 0.4442 0.4319 0.4138 0.4128 0.3925
2092.941 0.419 0.4445 0.432 0.4306 0.4156 0.3875 0.37149 0.35594 0.37207 0.37089
2112.231 0.3438 0.35456 0.35307 0.35534 0.33516 0.34118 0.34705 0.33797 0.3812 0.3868
2131.521 0.36005 0.35197 0.3585 0.36922 0.32891 0.280163 0.28248 0.30387 0.33395 0.3467
2150.810 0.32467 0.32796 0.36109 0.33847 0.32548 0.32006 0.31667 0.31101 0.30408 0.30653
2170.100 0.26659 0.27151 0.30119 0.32781 0.31541 0.2689 0.29184 0.30817 0.26606 0.2287
2189.390 0.239 0.2481 0.2595 0.279361 0.29354 0.282474 0.28746 0.28993 0.237 0.234
2208.680 0.272972 0.278292 0.30392 0.30672 0.29538 0.32791 0.29301 0.2592 0.26768 0.26416
2227.970 0.2388 0.2161 0.2198 0.2487 0.27114 0.2595 0.26496 0.29639 0.2567 0.2157
2247.259 0.275708 0.31627 0.28395 0.27159 0.28318 0.276427 0.29353 0.281735 0.2408 0.224
2266.549 0.224 0.273069 0.27152 0.2531 0.2618 0.2477 0.2477 0.26717 0.2491 0.2362
2285.839 0.29313 0.30519 0.278255 0.28806 0.29674 0.252 0.2424 0.274225 0.26976 0.27128
2305.129 0.26487 0.247 0.27263 0.29118 0.2671 0.2592 0.2621 0.26768 0.30287 0.32454
2324.418 0.28852 0.2971 0.33252 0.32968 0.32692 0.2991 0.26855 0.2078 0.2556 0.36684
2343.708 0.36269 0.35481 0.32882 0.28521 0.29546 0.33386 0.3805 0.3769 0.3819 0.3911
2362.998 0.36711 0.35655 0.32182 0.35287 0.3809 0.34286 0.33784 0.34908 0.33999 0.31702
2382.288 0.30153 0.29696 0.282629 0.276926 0.29195 0.30965 0.30523 0.30768 0.33092 0.31937
2401.578 0.34998 0.3948 0.3769 0.33723 0.34592 0.3747 0.35587 0.31091 0.33601 0.378
2420.867 0.34497 0.35081 0.34405 0.35486 0.3761 0.36037 0.35967 0.3846 0.3918 0.3577
2440.157 0.32975 0.31606 0.33913 0.3591 0.33498 0.29532 0.28345 0.29669 0.31514 0.3414
2459.447 0.35813 0.35855 0.36549 0.37163 0.31193 0.27182 0.32348 0.33643 0.31946 0.278593
2478.737 0.2432 0.276127 0.3033 0.29329 0.28651 0.30461 0.32185 0.31307 0.33356 0.36658
2498.026 0.35773 0.33034 0.32195 0.33364 0.3753 0.3995 0.3868 0.33919 0.35312 0.403
2517.316 0.376 0.35128 0.30337 0.321 0.35976 0.31525 0.29979 0.31692 0.34566 0.3696
2536.606 0.3485 0.34334 0.3857 0.399 0.3833 0.35385 0.3844 0.3974 0.31107 0.29466
2555.896 0.35499 0.3965 0.4432 0.4511 0.4422 0.4647 0.4681 0.5022 0.5018 0.474
2575.186 0.4563 0.4231 0.3767 0.3922 0.4409 0.4701 0.4472 0.406 0.4227 0.43
2594.475 0.3953 0.3946 0.4664 0.4653 0.3972 0.415 0.4507 0.4547 0.4526 0.459
2613.765 0.4761 0.4627 0.4148 0.4428 0.444 0.4704 0.5163 0.4825 0.5065 0.471
2633.055 0.437 0.465 0.4527 0.4763 0.512 0.5374 0.5513 0.5196 0.5164 0.5724
2652.345 0.5859 0.5421 0.5471 0.5483 0.5511 0.5373 0.543 0.5526 0.5256 0.5468
2671.634 0.5729 0.5648 0.5545 0.5144 0.5047 0.5556 0.612 0.6204 0.6522 0.6313
2690.924 0.518 0.5685 0.6241 0.6308 0.6264 0.6343 0.6603 0.6393 0.6858 0.7261
2710.214 0.6935 0.6623 0.6685 0.6859 0.6948 0.6826 0.7184 0.7288 0.7198 0.7822
2729.504 0.8574 0.8446 0.7762 0.8073 0.8609 0.8832 0.9133 0.8886 0.8159 0.8198
2748.794 0.8856 0.8216 0.7343 0.7481 0.7455 0.7331 0.7624 0.7497 0.799 0.8347
2768.083 0.8178 0.817 0.8021 0.8066 0.8275 0.8874 0.9272 0.9238 0.8862 0.8903
2787.373 0.9324 0.9651 1.0412 1.1343 1.1634 1.1307 1.1529 1.2083 1.2088 1.2389
2806.663 1.293 1.363 1.453 1.503 1.523 1.633 1.793 1.843 1.893 1.993
2825.953 2.083 2.203 2.353 2.493 2.743 2.993 3.253 3.653 4.083 4.653
2845.242 5.383 6.173 7.063 7.953 8.753 9.393 9.713 9.893 10.053 10.203
2864.532 10.393 10.643 10.983 11.413 12.003 12.563 13.023 13.313 13.233 12.883
2883.822 12.463 12.063 11.823 11.733 11.763 12.013 12.603 13.373 14.123 15.033
2903.112 16.033 16.993 17.903 18.683 19.283 19.613 19.903 20.343 20.963 21.753
2922.401 22.623 23.773 25.213 26.683 27.933 28.913 29.563 29.783 29.663 29.233
2941.691 28.763 28.273 27.513 26.383 25.183 24.253 23.783 23.793 24.193 24.773
2960.981 25.113 24.943 24.083 22.633 20.683 18.503 16.343 14.333 12.833 11.753
2980.271 10.883 9.973 8.883 7.803 6.773 5.923 5.263 4.703 4.173 3.753
2999.561 3.463 3.163 2.923 2.803 2.723 2.653 2.583 2.463 2.363 2.383
3018.850 2.353 2.283 2.223 2.183 2.153 2.083 2.023 2.003 1.953 1.903
3038.140 1.863 1.803 1.763 1.743 1.683 1.623 1.643 1.583 1.523 1.493
3057.430 1.473 1.503 1.423 1.303 1.2673 1.333 1.343 1.2081 1.1194 1.1215
3076.720 1.1291 1.0613 1.0303 1.0162 0.9739 0.9817 0.9706 0.9351 0.7985 0.7169
3096.009 0.7535 0.7607 0.809 0.7835 0.7141 0.6976 0.8086 0.79 0.669 0.7135
3115.299 0.7145 0.6687 0.6783 0.7069 0.6392 0.5543 0.585 0.5738 0.5589 0.5443
3134.589 0.5427 0.5755 0.5198 0.4764 0.5042 0.4702 0.4874 0.512 0.4779 0.5142
3153.879 0.5047 0.535 0.537 0.4283 0.4857 0.5931 0.6537 0.579 0.4407 0.4781
3173.169 0.5519 0.5746 0.5412 0.4895 0.4218 0.4906 0.6014 0.508 0.443 0.494
3192.458 0.4354 0.32477 0.35937 0.4295 0.4724 0.3887 0.30331 0.36733 0.33922 0.34339
3211.748 0.4196 0.35799 0.273535 0.2568 0.2097 0.2235 0.34804 0.26935 0.2244 0.33987
3231.038 0.32666 0.28331 0.2616 0.3028 0.30039 0.2561 0.282062 0.3105 0.28413 0.2593
3250.328 0.29447 0.32092 0.258 0.161 0.162 0.166 0.1734 0.2358 0.1784 0.2217
3269.617 0.30356 0.2336 0.2168 0.32351 0.3845 0.36651 0.3835 0.34914 0.29062 0.28946
3288.907 0.2516 0.1948 0.2438 0.26737 0.274276 0.2628 0.26757 0.2555 0.2346 0.2611
3308.197 0.2445 0.2501 0.2301 0.1831 0.1944 0.2182 0.2361 0.27552 0.32275 0.32708
3327.487 0.29993 0.33543 0.35147 0.31273 0.29983 0.26596 0.214 0.26358 0.35939 0.34171
3346.777 0.2265 0.1798 0.1793 0.2602 0.33981 0.31169 0.33259 0.30452 0.234 0.195
3366.066 0.1782 0.198 0.1802 0.156 0.155 0.1866 0.1914 0.163 0.118 0.067
3385.356 0.1768 0.33693 0.2922 0.2032 0.2425 0.2546 0.2536 0.1976 0.12 0.125
3404.646 0.2303 0.31148 0.29856 0.280358 0.2396 0.2334 0.2132 0.1825 0.1793 0.2618
3423.936 0.31897 0.27174 0.2048 0.211 0.2355 0.174 0.1961 0.207 0.171 0.227
3443.225 0.169 0.025 0.072 0.1768 0.2224 0.2612 0.2432 0.184 0.159 0.173
3462.515 0.1927 0.1844 0.12 0.135 0.1749 0.2597 0.34773 0.2233 0.107 0.164
3481.805 0.2477 0.2163 0.1782 0.2172 0.2232 0.123 0.156 0.272969 0.172 0.1753
3501.095 0.2308 0.129 0.13 0.1749 0.2422 0.2853 0.28425 0.2491 0.2114 0.1752
3520.385 0.2248 0.2571 0.2162 0.2601 0.28677 0.3775 0.439 0.4021 0.29704 0.1849
3539.674 0.2074 0.223 0.1776 0.2025 0.2069 0.2526 0.32759 0.277344 0.1767 0.1768
3558.964 0.1865 0.2109 0.1893 0.2023 0.29931 0.2509 0.31945 0.4195 0.2307 0.18
3578.254 0.2542 0.142 0.171 0.258 0.29068 0.281566 0.2115 0.1779 0.2132 0.26431
3597.544 0.1774 0.075 0.094 0.159 0.1848 0.137 0.114 0.095 0.136 0.2356
3616.833 0.179 0.098 0.184 0.2036 0.092 0.063 0.1821 0.162 0.162 0.229
3636.123 0.24 0.199 0.108 0.161 0.2555 0.280587 0.2717 0.2591 0.166 0.164
3655.413 0.2405 0.127 0.053 0.124 0.2235 0.1992 0.2043 0.31114 0.1851 0.101
3674.703 0.2233 0.34075 0.3853 0.3802 0.2455 0.164 0.1814 0.191 0.2214 0.1951
3693.993 0.2098 0.2625 0.26391 0.114 0 0.1796 0.2253 0.1869 0.282492 0.34103
3713.282 0.2355 0.055 0.077 0.1967 0.2323 0.2344 0.26437 0.2411 0.161 0.143
3732.572 0.154 0.2047 0.3424 0.31306 0.2058 0.185 0.1797 0.2509 0.274709 0.28811
3751.862 0.34826 0.34469 0.253 0.141 0.106 0.127 0.133 0.172 0.1887 0.131
3771.152 0.094 0.122 0.17 0.141 0.147 0.1737 0.169 0.2067 0.1934 0.151
3790.441 0.107 0.154 0.258 0.26395 0.116 0.089 0.155 0.171 0.30701 0.2142
3809.731 0.117 0.1732 0.154 0.167 0.111 0.2179 0.35634 0.242 0.142 0.165
3829.021 0.1888 0.2442 0.28477 0.2058 0.2277 0.2302 0.071 0.054 0.115 0.079
3848.311 0.114 0.1839 0.2186 0.2318 0.29278 0.28464 0.148 0.114 0.083 0.114
3867.601 0.1906 0.146 0.2023 0.31131 0.36525 0.30322 0.1921 0.2177 0.17 0.099
3886.890 0.096 0.094 0.211 0.276412 0.2084 0.2612 0.393 0.34884 0.2338 0.1791
3906.180 0.186 0.26849 0.2905 0.1853 0.1767 0.2597 0.26849 0.159 0.113 0.204
3925.470 0.282585 0.3256 0.2161 0.242 0.27608 0.1825 0.1822 0.2087 0.34689 0.3794
3944.760 0.3939 0.36163 0.276511 0.28401 0.26 0.13 0.128 0.2033 0.2262 0.1879
3964.049 0.078 0.115 0.146 0.132 0.141 0.111 0.164 0.146 0.1796 0.28942
3983.339 0.2164 0.082 0.03 0.1878 0.2233 0.13 0.187 0.2131 0.2021 0.2624
##END=
