##TITLE=Phencylidine
##JCAMP-DX=4.24
##DATA TYPE=INFRARED SPECTRUM
##ORIGIN=NIST Mass Spectrometry Data Center
##OWNER=NIST Standard Reference Data Program
Collection (C) 2018 copyright by the U.S. Secretary of Commerce
on behalf of the United States of America. All rights reserved.
##CAS REGISTRY NO=77-10-1
##MOLFORM=C 17 H 25 N
##$NIST SOURCE=MSDC-IR
##SPECTROMETER/DATA SYSTEM=HP-GC/MS/IRD
##STATE=gas
##XUNITS=1/CM
##YUNITS=ABSORBANCE
##XFACTOR=1.0
##YFACTOR=0.000003000
##DELTAX=4.0
##FIRSTX=550.0
##LASTX=3846.0
##FIRSTY=0.000492
##MAXX=3846
##MINX=550
##MAXY=0.03
##MINY=0
##NPOINTS=825
##XYDATA=(X++(Y..Y))
550.0 164 141 142 113 93 118 132 132 120 110
590.0 70 40 22 5 11 41 55 58 56 64
630.0 98 117 113 122 141 126 121 164 179 189
670.0 244 281 337 436 565 796 1154 1463 1474 1168
710.0 777 513 395 364 370 391 425 474 554 664
750.0 751 734 594 414 281 205 180 176 188 202
790.0 187 140 119 124 97 93 95 89 101 99
830.0 110 152 188 189 191 188 193 232 263 257
870.0 222 186 162 155 163 178 210 261 281 289
910.0 300 293 272 237 204 187 176 180 206 265
950.0 375 503 614 635 535 407 307 223 166 140
990.0 131 134 151 196 268 339 396 426 443 461
1030.0 462 454 404 342 298 292 309 338 387 467
1070.0 571 637 657 644 610 556 496 455 458 492
1110.0 502 493 434 349 303 294 300 318 357 414
1150.0 507 587 553 444 360 309 290 304 317 314
1190.0 309 298 273 230 185 157 138 132 148 171
1230.0 200 246 283 287 277 280 307 339 354 352
1270.0 360 374 381 371 352 332 319 321 310 284
1310.0 254 226 214 214 213 222 236 254 289 310
1350.0 302 280 263 243 221 202 195 201 198 172
1390.0 145 126 112 110 113 120 136 159 187 228
1430.0 284 373 508 680 832 916 965 965 889 770
1470.0 660 572 494 438 420 430 421 366 286 195
1510.0 134 109 90 71 63 59 59 60 57 49
1550.0 45 42 36 42 53 67 79 99 125 149
1590.0 176 202 208 184 143 108 76 63 61 57
1630.0 58 53 54 59 54 48 48 48 49 47
1670.0 37 34 30 29 32 26 22 21 18 17
1710.0 26 28 24 27 36 39 36 38 38 35
1750.0 29 29 36 36 30 33 41 41 47 57
1790.0 68 74 75 70 59 56 52 42 31 25
1830.0 30 34 31 34 40 41 39 43 47 45
1870.0 49 53 55 51 48 45 35 33 34 29
1910.0 33 37 35 38 47 55 64 77 83 80
1950.0 76 70 55 41 28 20 17 19 21 17
1990.0 15 14 17 22 16 11 16 13 9 5
2030.0 7 13 10 12 10 4 9 6 0 1
2070.0 6 7 11 17 14 10 9 11 12 9
2110.0 11 13 11 12 14 13 12 10 14 19
2150.0 20 19 15 5 6 11 9 8 10 14
2190.0 11 15 19 16 20 18 14 12 14 13
2230.0 8 12 13 11 19 24 13 5 10 14
2270.0 10 12 16 18 16 15 20 19 16 13
2310.0 19 32 32 24 19 22 20 20 30 34
2350.0 29 26 25 24 26 28 28 20 16 19
2390.0 25 28 27 27 30 29 26 19 20 24
2430.0 21 18 14 23 23 20 31 33 27 27
2470.0 33 33 26 29 39 38 34 36 40 39
2510.0 42 39 34 35 31 33 34 31 38 35
2550.0 37 41 38 38 40 46 52 62 69 71
2590.0 76 90 93 92 98 105 112 115 118 119
2630.0 122 129 140 145 148 160 183 196 208 229
2670.0 254 257 255 255 245 244 245 239 236 237
2710.0 244 253 272 294 317 342 379 417 427 424
2750.0 421 416 399 401 407 434 486 576 709 870
2790.0 1057 1264 1438 1515 1460 1275 1039 838 723 676
2830.0 666 683 742 864 1063 1361 1777 2246 2598 2677
2870.0 2475 2139 1796 1515 1332 1241 1223 1288 1425 1666
2910.0 2054 2632 3456 4551 5966 7702 9270 10000 9443 7636
2950.0 5539 3920 2833 2115 1620 1300 1159 1193 1335 1379
2990.0 1201 897 628 467 400 389 417 445 489 544
3030.0 593 626 617 574 528 519 587 723 856 904
3070.0 848 717 588 535 555 559 511 436 356 289
3110.0 225 170 141 121 97 78 71 65 68 74
3150.0 70 68 69 63 61 68 60 45 43 47
3190.0 42 39 29 27 38 46 45 46 39 37
3230.0 39 36 38 39 42 39 39 39 29 26
3270.0 24 22 23 22 30 33 34 27 19 22
3310.0 22 25 39 42 38 33 31 23 17 20
3350.0 29 32 30 25 26 31 31 35 34 32
3390.0 34 32 28 22 19 28 22 6 22 36
3430.0 37 32 25 34 44 46 42 34 26 21
3470.0 22 25 36 39 34 33 33 18 11 13
3510.0 14 22 20 23 35 33 17 18 20 19
3550.0 30 25 34 35 19 25 37 43 34 23
3590.0 21 18 16 23 32 36 40 36 29 31
3630.0 44 45 52 47 44 43 29 34 38 37
3670.0 38 38 36 39 37 31 27 21 25 35
3710.0 35 36 31 20 32 38 31 35 40 34
3750.0 39 43 37 40 49 46 39 34 39 43
3790.0 48 52 49 48 44 44 43 39 51 48
3830.0 26 34 37 32 52
##END=
