##TITLE=Diethyl diethylmalonate
##JCAMP-DX=4.24
##DATA TYPE=INFRARED SPECTRUM
##ORIGIN=EPA-IR VAPOR PHASE LIBRARY
##OWNER=SRD/NIST
Collection (C) 2018 copyright by the U.S. Secretary of Commerce
on behalf of the United States of America. All rights reserved.
##CAS REGISTRY NO=77-25-8
##MOLFORM=C 11 H 20 O 4
##$NIST SOURCE=MSDC-IR
##STATE=gas
##XUNITS=1/CM
##YUNITS=ABSORBANCE
##XFACTOR=1.
##YFACTOR=0.001
##DELTAX=3.85796
##FIRSTX=501.5
##LASTX=4000.7
##FIRSTY=0.8378
##MAXX=4000.7
##MINX=501.534
##MAXY=0.155934
##MINY=0
##NPOINTS=908
##XYDATA=(X++(Y..Y))
501.534 0.8378 0.9506 1.0535 0.9752 0.921 1.0366 1.1839 1.2039 1.1539 1.1539
540.114 1.2339 1.1839 1.0231 0.941 0.8353 0.7527 0.6293 0.4362 0.3314 0.4293
578.693 0.4269 0.2119 0.15163 0.1673 0.2374 0.2371 0.12705 0.18784 0.2616 0.2849
617.273 0.2717 0.2295 0.2587 0.2711 0.2204 0.18471 0.2349 0.2896 0.4036 0.5204
655.852 0.6215 0.8552 1.0879 1.3439 1.7339 2.0639 2.3839 2.6039 2.6139 2.5539
694.432 2.3639 1.9839 1.6539 1.4439 1.2739 1.2239 1.3139 1.5139 1.7939 2.3839
733.011 3.1039 3.6139 3.7039 3.4739 3.1039 2.8039 2.6939 2.7639 3.0039 3.3339
771.591 3.7339 4.2039 4.6239 4.8839 5.0439 5.2939 5.5439 5.6539 5.7139 5.6539
810.170 5.4739 5.3539 5.3139 5.2439 5.1739 4.9739 4.7239 4.5139 4.4239 4.5939
848.750 5.0839 5.9439 6.9639 7.7539 7.9539 7.3539 6.1239 4.8139 3.7539 2.9839
887.330 2.5139 2.2739 2.1839 2.1439 2.1339 2.1839 2.2539 2.3739 2.6639 3.1039
925.909 3.7039 4.5239 5.6639 7.0539 8.3639 9.2539 9.3439 8.6839 7.6839 6.6539
964.489 5.7339 5.0839 4.7339 4.6739 4.8139 5.1439 5.6739 6.5039 7.7039 9.3639
1003.068 11.7739 15.2039 19.7639 25.3139 31.1439 36.1139 39.2439 39.7439 37.7639 34.0139
1041.648 29.3039 24.7639 21.0439 18.4239 16.8939 16.1739 15.9739 16.3139 16.8939 17.6039
1080.227 18.9539 21.3939 25.2239 30.8439 38.3739 47.9439 59.5739 72.3939 84.2139 92.0539
1118.807 93.8939 90.4439 84.9739 80.8539 79.7239 80.9039 81.7839 79.7139 73.5839 64.2839
1157.387 54.4539 46.1139 39.9239 35.8839 33.7439 33.4639 35.2039 39.2039 45.5539 53.6939
1195.966 62.6739 71.5639 79.8739 88.2039 97.3239 108.064 120.684 133.434 142.614 144.394
1234.546 136.844 121.114 101.054 80.8939 63.3639 49.5639 39.3039 31.8339 26.5439 23.1239
1273.125 21.0939 20.2739 20.3939 20.9939 21.7239 22.6739 23.8739 24.7039 24.2939 22.3439
1311.705 19.4739 16.6639 14.5639 13.1939 12.4439 12.3339 12.7539 13.2739 13.3839 12.8539
1350.284 11.9239 11.2139 11.4739 13.0139 15.0439 16.3239 16.2639 15.2939 14.6839 15.0439
1388.864 15.4039 14.7439 13.0239 10.9139 9.1939 8.1039 7.4639 7.1339 7.0539 7.2439
1427.443 7.7439 8.6439 10.0139 11.9239 14.2739 16.7239 18.7339 19.8839 20.2139 20.0939
1466.023 19.6139 18.6239 16.9039 14.5639 12.0339 9.7239 7.8539 6.4539 5.4639 4.7439
1504.603 4.2339 3.8739 3.5739 3.3739 3.2539 3.1739 3.0939 3.0339 2.9839 2.9339
1543.182 2.8739 2.8239 2.7639 2.7039 2.6439 2.5439 2.4439 2.3739 2.3339 2.2739
1581.762 2.2339 2.1839 2.1339 2.1239 2.1139 2.1039 2.1239 2.1539 2.1739 2.2039
1620.341 2.2439 2.2739 2.3339 2.4439 2.5139 2.5839 2.6839 2.7739 2.8739 3.0239
1658.921 3.2139 3.4339 3.7039 4.0739 4.5239 5.0939 5.8139 6.6839 7.7239 8.9939
1697.500 10.5739 12.4339 14.5239 16.9539 19.9939 24.3839 31.2439 42.2739 59.7139 84.3539
1736.080 114.014 141.044 155.934 152.064 134.804 113.414 91.1539 69.0539 49.2039 33.5939
1774.659 23.3839 17.5039 13.9039 11.5039 9.7839 8.4539 7.4239 6.6039 5.8739 5.2039
1813.239 4.6139 4.1039 3.6439 3.2239 2.8839 2.6039 2.3539 2.1739 2.0339 1.9139
1851.819 1.8339 1.7739 1.7339 1.7239 1.7439 1.7639 1.7939 1.8439 1.8539 1.8339
1890.398 1.7939 1.7339 1.6339 1.5339 1.4339 1.3139 1.2039 1.1139 1.0393 0.9901
1928.978 0.949 0.9153 0.9049 0.9033 0.9142 0.9228 0.9404 0.9887 1.0197 1.0436
1967.557 1.0908 1.1439 1.1639 1.1739 1.1639 1.1539 1.1639 1.1639 1.1439 1.1239
2006.137 1.0827 1.0544 1.0261 0.9694 0.9093 0.8802 0.8558 0.8185 0.8012 0.8195
2044.716 0.8409 0.8574 0.9078 0.9636 0.9974 1.0593 1.1139 1.1439 1.1739 1.1939
2083.296 1.1839 1.1639 1.1339 1.0636 0.9937 0.9228 0.8495 0.7948 0.7698 0.7538
2121.875 0.722 0.7018 0.6858 0.6785 0.6837 0.6925 0.6901 0.6933 0.6913 0.689
2160.455 0.6834 0.6777 0.6652 0.6436 0.6373 0.6053 0.564 0.5265 0.505 0.4997
2199.035 0.464 0.4332 0.4308 0.4079 0.4057 0.4297 0.4553 0.4824 0.4956 0.4984
2237.614 0.5112 0.5192 0.4983 0.48 0.4857 0.494 0.4724 0.4365 0.4393 0.4427
2276.194 0.4482 0.4732 0.4718 0.4604 0.4696 0.4894 0.4952 0.5131 0.5362 0.5286
2314.773 0.5523 0.5931 0.6151 0.6527 0.6977 0.7168 0.7139 0.7107 0.6984 0.6588
2353.353 0.6375 0.6282 0.615 0.6162 0.6198 0.6411 0.6305 0.6058 0.5966 0.6115
2391.932 0.6396 0.6368 0.655 0.6989 0.725 0.7271 0.734 0.7474 0.7204 0.6684
2430.512 0.6114 0.5673 0.5418 0.514 0.5021 0.504 0.4792 0.4416 0.4204 0.4222
2469.092 0.4201 0.412 0.405 0.4003 0.3989 0.3784 0.3655 0.3401 0.3251 0.3215
2507.671 0.3047 0.3006 0.2855 0.2907 0.2741 0.2369 0.2391 0.2544 0.2687 0.265
2546.251 0.2496 0.25 0.2502 0.2568 0.2539 0.2423 0.2814 0.2868 0.2761 0.2867
2584.830 0.2821 0.305 0.3131 0.3103 0.32 0.3297 0.3226 0.3288 0.3696 0.3718
2623.410 0.3593 0.3402 0.3343 0.3327 0.3045 0.288 0.3044 0.3144 0.3033 0.3179
2661.989 0.3169 0.3223 0.3324 0.3372 0.3772 0.4018 0.3968 0.4234 0.451 0.4595
2700.569 0.4681 0.495 0.536 0.5589 0.6125 0.681 0.7525 0.823 0.8829 0.9331
2739.148 0.9957 1.1039 1.2339 1.3939 1.5239 1.5939 1.6139 1.6039 1.5839 1.6039
2777.728 1.6039 1.6439 1.6739 1.6939 1.7339 1.7539 1.8239 1.9339 2.0639 2.1839
2816.308 2.3539 2.5239 2.6839 2.8539 3.0339 3.2439 3.5339 3.8839 4.3039 4.7839
2854.887 5.3039 5.9639 6.7639 7.7439 9.0139 10.8239 13.3339 16.5139 19.8439 22.3039
2893.467 23.1739 22.4839 21.1339 20.1539 19.8439 19.8939 20.1439 20.7439 22.1339 24.7339
2932.046 28.6739 33.8939 39.6039 44.2339 46.4439 45.9939 44.2339 43.4739 45.2939 50.0639
2970.626 57.4539 66.4739 74.1839 76.9339 73.1439 63.9739 52.6839 42.3439 34.1139 27.5739
3009.205 22.2439 17.9539 14.5839 11.9239 9.8739 8.3039 7.0939 6.1739 5.4539 4.9039
3047.785 4.4539 4.0839 3.8139 3.5639 3.3839 3.2439 3.1139 3.0239 2.8939 2.7539
3086.364 2.6539 2.5639 2.5039 2.4039 2.2939 2.2039 2.1039 2.0039 1.9539 1.8839
3124.944 1.8439 1.7839 1.6939 1.6139 1.5239 1.4539 1.4039 1.3539 1.2939 1.2339
3163.524 1.1639 1.1339 1.1039 1.0328 0.9994 0.9302 0.8218 0.7679 0.7214 0.7153
3202.103 0.7316 0.6836 0.6211 0.5548 0.5135 0.4981 0.4646 0.4112 0.3598 0.3557
3240.683 0.3292 0.3068 0.2847 0.2728 0.2555 0.2157 0.2487 0.2668 0.2475 0.2099
3279.262 0.17601 0.17103 0.18627 0.2074 0.18627 0.2177 0.2044 0.12229 0.12523 0.16817
3317.842 0.17327 0.15108 0.16265 0.14574 0.12531 0.11582 0.12261 0.10907 0.11418 0.15718
3356.421 0.17476 0.1554 0.13738 0.16444 0.18853 0.17351 0.13326 0.15329 0.2368 0.262
3395.001 0.2476 0.2352 0.2367 0.206 0.2072 0.2292 0.2622 0.3208 0.3205 0.3401
3433.580 0.3606 0.3712 0.4107 0.4875 0.5814 0.709 0.8376 0.9593 1.1039 1.2139
3472.160 1.3139 1.4239 1.4539 1.4639 1.4339 1.2539 1.0577 0.9185 0.754 0.6465
3510.740 0.5854 0.4785 0.4221 0.3989 0.3268 0.2952 0.2645 0.2174 0.17004 0.102568
3549.319 0.093236 0.0945592 0.101441 0.100548 0.0603 0.0504 0.0626 0.069 0.0742 0.058
3587.899 0.059 0.0475 0.0109 0.0068 0.0285 0.0654 0.0713 0.0727 0.10657 0.11165
3626.478 0.103143 0.0709 0.011 0.059 0.099396 0.0617 0.08421 0.0707 0.0546 0.0698
3665.058 0.0677 0.0503 0.0353 0.0517 0.09042 0.09119 0.0313 0.0477 0.097413 0.12422
3703.637 0.046 0 0.0827 0.13292 0.15413 0.13816 0.082 0.0574 0.09282 0.14913
3742.217 0.18065 0.16326 0.17999 0.18857 0.14037 0.12503 0.16284 0.12901 0.10847 0.17436
3780.797 0.18888 0.17433 0.14859 0.12788 0.17602 0.2106 0.2021 0.2331 0.2427 0.1997
3819.376 0.16886 0.18925 0.209 0.206 0.2662 0.311 0.2738 0.2378 0.1945 0.15818
3857.956 0.1673 0.18945 0.15729 0.16499 0.15352 0.0807 0.096179 0.14753 0.1508 0.11035
3896.535 0.0744 0.0797 0.0705 0.11852 0.17943 0.18653 0.1979 0.17849 0.17351 0.18898
3935.115 0.1949 0.17517 0.13995 0.10612 0.102774 0.16741 0.2018 0.2007 0.2519 0.2548
3973.694 0.2449 0.2811 0.2958 0.2908 0.2909 0.2782 0.2724 0.3273
##END=
