##TITLE=Methsuximide
##JCAMP-DX=4.24
##DATA TYPE=INFRARED SPECTRUM
##ORIGIN=NIST Mass Spectrometry Data Center
##OWNER=NIST Standard Reference Data Program
Collection (C) 2018 copyright by the U.S. Secretary of Commerce
on behalf of the United States of America. All rights reserved.
##CAS REGISTRY NO=77-41-8
##MOLFORM=C 12 H 13 N O 2
##$NIST SOURCE=MSDC-IR
##SPECTROMETER/DATA SYSTEM=HP-GC/MS/IRD
##STATE=gas
##XUNITS=1/CM
##YUNITS=ABSORBANCE
##XFACTOR=1.0
##YFACTOR=0.000006100
##DELTAX=4.0
##FIRSTX=550.0
##LASTX=3846.0
##FIRSTY=0.000128
##MAXX=3846
##MINX=550
##MAXY=0.061
##MINY=0
##NPOINTS=825
##XYDATA=(X++(Y..Y))
550.0 21 14 8 8 0 3 7 17 35 43
590.0 43 52 70 78 81 85 99 128 146 156
630.0 162 154 148 148 152 147 133 114 102 115
670.0 149 202 279 378 511 651 742 747 656 520
710.0 390 292 231 183 155 134 117 111 117 120
750.0 130 154 182 202 196 173 147 121 100 88
790.0 90 83 81 86 85 71 52 35 22 17
830.0 19 14 10 12 8 4 6 10 12 15
870.0 18 24 36 53 78 101 107 96 71 52
910.0 44 41 44 52 64 90 134 185 224 234
950.0 208 162 122 91 74 66 60 60 63 74
990.0 91 117 156 212 304 449 677 968 1224 1318
1030.0 1202 922 602 374 256 206 188 200 239 298
1070.0 364 425 463 466 434 372 310 262 227 200
1110.0 173 149 134 129 141 162 192 231 264 283
1150.0 287 280 276 289 313 345 376 386 365 320
1190.0 270 214 167 131 106 92 87 84 82 90
1230.0 103 117 130 148 175 212 271 377 549 790
1270.0 1068 1301 1400 1342 1172 975 809 672 559 464
1310.0 391 340 307 288 280 282 293 305 324 355
1350.0 409 502 652 880 1180 1462 1644 1707 1650 1498
1390.0 1287 1024 781 634 573 588 673 844 1090 1347
1430.0 1542 1587 1445 1194 921 700 561 475 419 369
1470.0 319 279 262 270 303 359 409 425 398 330
1510.0 254 196 157 133 123 112 105 97 89 86
1550.0 85 82 74 77 81 84 86 93 104 117
1590.0 131 147 157 155 139 119 101 87 83 84
1630.0 85 87 91 96 104 113 126 149 172 196
1670.0 219 246 285 334 403 494 611 759 951 1223
1710.0 1704 2627 4311 6700 8969 10000 9091 6642 4015 2267
1750.0 1390 979 783 673 605 564 560 616 756 959
1790.0 1097 1064 844 531 305 197 148 122 105 91
1830.0 81 74 68 62 60 60 62 62 61 61
1870.0 63 66 67 67 65 61 56 49 47 45
1910.0 43 41 42 41 40 39 39 41 44 46
1950.0 47 49 49 45 37 30 25 20 19 18
1990.0 14 12 11 10 9 8 10 10 12 11
2030.0 7 7 8 7 8 9 8 7 9 11
2070.0 11 11 9 8 7 7 9 9 9 10
2110.0 10 9 7 8 9 6 7 8 10 10
2150.0 8 8 9 8 7 7 6 5 5 6
2190.0 6 3 1 2 1 0 0 0 0 1
2230.0 0 2 4 3 1 2 3 3 3 2
2270.0 3 4 2 2 3 2 4 7 8 9
2310.0 12 16 17 18 16 10 7 7 8 7
2350.0 8 7 8 10 11 12 13 12 11 12
2390.0 11 11 12 12 14 14 13 14 11 10
2430.0 12 12 10 9 13 13 12 11 11 10
2470.0 8 7 7 6 4 5 6 8 9 9
2510.0 8 9 10 8 7 8 9 9 8 8
2550.0 9 5 6 6 8 8 10 11 8 6
2590.0 5 6 8 11 10 9 7 6 6 8
2630.0 12 13 12 13 15 17 17 18 18 16
2670.0 13 11 13 12 12 13 11 9 8 9
2710.0 11 11 10 13 13 9 8 8 9 9
2750.0 11 11 7 6 6 8 11 9 9 11
2790.0 17 18 21 20 18 20 21 23 25 27
2830.0 32 35 38 42 44 43 44 50 57 73
2870.0 92 110 132 145 144 144 146 154 167 175
2910.0 181 185 190 208 239 284 344 400 437 453
2950.0 450 432 406 399 452 540 585 553 442 329
2990.0 283 267 243 203 163 139 135 140 155 179
3030.0 213 236 247 247 237 230 236 265 320 384
3070.0 429 424 368 296 241 213 198 179 159 136
3110.0 112 91 75 60 43 32 28 27 25 24
3150.0 23 24 23 25 20 15 17 16 12 10
3190.0 12 16 17 17 16 10 13 14 11 12
3230.0 14 12 9 5 10 12 11 13 10 10
3270.0 12 8 6 6 7 8 10 10 8 7
3310.0 5 6 6 7 8 9 8 4 7 9
3350.0 9 6 4 5 5 3 4 10 14 13
3390.0 11 11 13 13 12 14 16 15 15 12
3430.0 13 18 22 28 37 38 37 37 35 35
3470.0 36 37 38 40 41 51 70 84 92 93
3510.0 87 71 47 31 27 23 16 12 12 14
3550.0 13 12 13 14 12 12 17 19 16 13
3590.0 13 14 15 10 4 8 11 10 9 2
3630.0 0 8 9 8 10 12 12 8 7 9
3670.0 5 3 8 10 7 8 9 10 11 14
3710.0 10 10 16 11 8 9 13 9 4 2
3750.0 4 6 3 2 4 8 7 7 7 7
3790.0 10 12 6 2 5 8 5 2 5 7
3830.0 8 10 8 8 8
##END=
