##TITLE=Bis(2-hydroxy-5-methyl-3-[1-methylcyclohexyl]phenyl)methane
##JCAMP-DX=4.24
##DATA TYPE=INFRARED SPECTRUM
##ORIGIN=EPA-IR VAPOR PHASE LIBRARY
##OWNER=SRD/NIST
Collection (C) 2018 copyright by the U.S. Secretary of Commerce
on behalf of the United States of America. All rights reserved.
##CAS REGISTRY NO=77-62-3
##MOLFORM=C 29 H 40 O 2
##$NIST SOURCE=MSDC-IR
##STATE=gas
##XUNITS=1/CM
##YUNITS=ABSORBANCE
##XFACTOR=1.
##YFACTOR=0.001
##DELTAX=1.92934
##FIRSTX=549.9
##LASTX=3999.5
##FIRSTY=0.365
##MAXX=3999.53
##MINX=549.863
##MAXY=0.02295
##MINY=0
##NPOINTS=1789
##XYDATA=(X++(Y..Y))
549.863 0.365 0.337 0.336 0.301 0.301 0.26 0.204 0.216 0.199 0.208
569.156 0.174 0.156 0.214 0.246 0.289 0.317 0.313 0.229 0.191 0.221
588.450 0.211 0.245 0.291 0.309 0.321 0.318 0.365 0.439 0.442 0.413
607.743 0.421 0.463 0.485 0.5097 0.5185 0.48 0.421 0.358 0.347 0.341
627.037 0.307 0.277 0.305 0.341 0.326 0.356 0.36 0.338 0.324 0.275
646.330 0.25 0.279 0.312 0.282 0.245 0.227 0.236 0.27 0.274 0.267
665.624 0.269 0.254 0.271 0.315 0.315 0.321 0.35 0.337 0.289 0.263
684.917 0.271 0.267 0.247 0.272 0.28 0.283 0.262 0.234 0.26 0.252
704.210 0.226 0.244 0.261 0.244 0.242 0.254 0.237 0.239 0.287 0.298
723.504 0.311 0.333 0.332 0.319 0.302 0.329 0.366 0.414 0.46 0.5109
742.797 0.5641 0.6181 0.68649 0.7219 0.7719 0.8105 0.813 0.8452 0.8916 0.8938
762.091 0.931 0.9551 0.9525 1.0034 1.0217 1.0162 1.0242 1.0009 0.929 0.8592
781.384 0.7609 0.69022 0.65364 0.5838 0.5225 0.479 0.423 0.396 0.394 0.387
800.678 0.431 0.411 0.371 0.35 0.331 0.36 0.331 0.293 0.314 0.343
819.971 0.357 0.362 0.345 0.358 0.391 0.41 0.413 0.42 0.448 0.486
839.264 0.562 0.6351 0.7401 0.8896 1.0842 1.3614 1.71 2.07 2.26 2.25
858.558 2.11 1.87 1.5924 1.2667 1.0077 0.8501 0.7238 0.64673 0.59145 0.5753
877.851 0.5793 0.572 0.5396 0.5151 0.5466 0.5629 0.5668 0.59524 0.62263 0.61773
897.145 0.62091 0.64241 0.65813 0.67029 0.66002 0.64978 0.65147 0.69263 0.703 0.66146
916.438 0.64925 0.65263 0.65821 0.67659 0.69863 0.7177 0.726 0.7326 0.718 0.66708
935.732 0.6626 0.66012 0.62365 0.62321 0.64056 0.63495 0.63793 0.66226 0.65449 0.64737
955.025 0.64101 0.61751 0.63738 0.65978 0.65493 0.66226 0.64462 0.64067 0.64196 0.59708
974.318 0.5832 0.5595 0.5419 0.5324 0.5241 0.5244 0.5152 0.5257 0.5145 0.5236
993.612 0.5618 0.5642 0.5545 0.564 0.553 0.5348 0.5501 0.5534 0.5288 0.5118
1012.905 0.5025 0.5043 0.491 0.477 0.479 0.473 0.452 0.437 0.423 0.39
1032.199 0.388 0.383 0.379 0.409 0.425 0.414 0.414 0.405 0.404 0.42
1051.492 0.392 0.375 0.373 0.356 0.342 0.356 0.384 0.395 0.395 0.39
1070.786 0.397 0.393 0.413 0.43 0.411 0.444 0.488 0.5251 0.5853 0.63748
1090.079 0.7064 0.7828 0.8292 0.8667 0.9177 0.9434 0.9411 0.9079 0.8715 0.8711
1109.372 0.8362 0.8151 0.8503 0.8655 0.8625 0.8701 0.9242 0.978 1.0044 1.078
1128.666 1.1389 1.1626 1.2323 1.2749 1.2589 1.2664 1.2859 1.315 1.3929 1.4759
1147.959 1.5613 1.68 1.79 1.9 2.01 2.14 2.32 2.49 2.67 2.88
1167.253 3.06 3.13 3.14 3.07 2.9 2.68 2.51 2.39 2.32 2.32
1186.546 2.35 2.44 2.61 2.8 2.97 3.12 3.29 3.43 3.48 3.41
1205.840 3.26 3.1 2.96 2.82 2.68 2.59 2.5 2.41 2.39 2.39
1225.133 2.42 2.48 2.48 2.45 2.37 2.28 2.19 2.09 2.03 1.97
1244.426 1.89 1.81 1.75 1.7 1.64 1.61 1.61 1.64 1.67 1.68
1263.720 1.69 1.66 1.62 1.62 1.62 1.5875 1.5426 1.4942 1.4841 1.4724
1283.013 1.4188 1.4062 1.396 1.3856 1.3726 1.33 1.3527 1.3937 1.4181 1.4315
1302.307 1.4543 1.4991 1.4979 1.4726 1.4454 1.4421 1.449 1.4148 1.3859 1.3648
1321.600 1.336 1.3089 1.2681 1.2233 1.1677 1.1039 1.0469 1.0101 1.0034 0.9865
1340.894 0.967 0.9847 1.0284 1.0701 1.0831 1.0786 1.0608 1.0245 0.9826 0.9465
1360.187 0.919 0.8901 0.8372 0.7868 0.8189 0.8898 1.0036 1.1607 1.287 1.3656
1379.480 1.3928 1.3527 1.2385 1.1193 1.0083 0.9228 0.8568 0.848 0.8803 0.8735
1398.774 0.8857 0.9103 0.9589 1.0448 1.1478 1.2399 1.3478 1.4684 1.5779 1.71
1418.067 1.86 2 2.11 2.25 2.35 2.44 2.51 2.58 2.68 2.84
1437.361 3.07 3.31 3.65 4.07 4.49 4.94 5.35 5.62 5.79 5.9
1456.654 5.93 5.88 5.86 5.84 5.74 5.59 5.34 5.05 4.7 4.27
1475.948 3.81 3.3 2.76 2.27 1.88 1.5668 1.349 1.2116 1.0678 0.9293
1495.241 0.847 0.8001 0.7547 0.705 0.65491 0.62617 0.62281 0.5846 0.5635 0.544
1514.534 0.5297 0.5467 0.5413 0.5394 0.499 0.461 0.438 0.407 0.386 0.387
1533.828 0.396 0.398 0.397 0.378 0.393 0.43 0.402 0.378 0.393 0.363
1553.121 0.338 0.316 0.286 0.313 0.328 0.324 0.334 0.338 0.361 0.38
1572.415 0.387 0.392 0.388 0.401 0.426 0.433 0.43 0.449 0.478 0.481
1591.708 0.461 0.473 0.5327 0.5835 0.60077 0.606904 0.600969 0.59242 0.59424 0.5577
1611.002 0.5027 0.466 0.462 0.469 0.461 0.431 0.413 0.401 0.384 0.372
1630.295 0.369 0.369 0.341 0.308 0.301 0.311 0.294 0.302 0.307 0.288
1649.588 0.278 0.259 0.267 0.269 0.25 0.246 0.235 0.233 0.229 0.213
1668.882 0.2 0.242 0.266 0.246 0.247 0.233 0.236 0.274 0.267 0.218
1688.175 0.221 0.23 0.234 0.264 0.286 0.272 0.257 0.285 0.315 0.295
1707.469 0.282 0.312 0.322 0.337 0.346 0.319 0.304 0.313 0.327 0.34
1726.762 0.372 0.417 0.431 0.441 0.443 0.424 0.426 0.421 0.422 0.422
1746.056 0.432 0.466 0.488 0.483 0.439 0.426 0.407 0.379 0.406 0.391
1765.349 0.359 0.377 0.379 0.353 0.331 0.313 0.309 0.321 0.324 0.34
1784.642 0.35 0.314 0.304 0.321 0.32 0.304 0.293 0.309 0.345 0.345
1803.936 0.302 0.286 0.301 0.314 0.314 0.306 0.274 0.261 0.286 0.275
1823.229 0.29 0.309 0.293 0.31 0.322 0.299 0.276 0.272 0.259 0.285
1842.523 0.32 0.3 0.278 0.286 0.277 0.269 0.267 0.265 0.273 0.283
1861.816 0.29 0.274 0.257 0.278 0.304 0.299 0.28 0.266 0.271 0.274
1881.110 0.275 0.294 0.303 0.304 0.305 0.281 0.276 0.297 0.297 0.28
1900.403 0.281 0.29 0.31 0.317 0.317 0.313 0.306 0.321 0.337 0.353
1919.696 0.351 0.34 0.34 0.321 0.306 0.32 0.347 0.354 0.343 0.337
1938.990 0.334 0.337 0.356 0.358 0.359 0.366 0.344 0.349 0.372 0.375
1958.283 0.354 0.322 0.312 0.321 0.346 0.354 0.338 0.313 0.318 0.351
1977.577 0.373 0.361 0.339 0.338 0.333 0.326 0.341 0.356 0.343 0.338
1996.870 0.33 0.332 0.353 0.362 0.368 0.364 0.343 0.35 0.37 0.366
2016.164 0.362 0.352 0.359 0.358 0.346 0.347 0.366 0.381 0.37 0.367
2035.457 0.367 0.353 0.348 0.364 0.374 0.373 0.369 0.349 0.35 0.359
2054.750 0.353 0.364 0.354 0.346 0.375 0.386 0.385 0.365 0.348 0.368
2074.044 0.389 0.395 0.39 0.362 0.362 0.381 0.369 0.378 0.388 0.388
2093.337 0.389 0.365 0.355 0.372 0.382 0.373 0.372 0.376 0.382 0.404
2112.631 0.425 0.433 0.415 0.398 0.395 0.38 0.386 0.414 0.416 0.415
2131.924 0.405 0.389 0.399 0.417 0.426 0.425 0.421 0.397 0.393 0.396
2151.218 0.399 0.393 0.381 0.382 0.386 0.394 0.378 0.374 0.383 0.387
2170.511 0.407 0.392 0.363 0.391 0.397 0.401 0.403 0.41 0.427 0.398
2189.804 0.384 0.402 0.418 0.42 0.417 0.425 0.423 0.425 0.422 0.418
2209.098 0.424 0.417 0.431 0.464 0.462 0.448 0.438 0.439 0.444 0.429
2228.391 0.443 0.464 0.454 0.448 0.451 0.455 0.448 0.449 0.433 0.435
2247.685 0.458 0.449 0.434 0.435 0.438 0.435 0.436 0.427 0.425 0.429
2266.978 0.443 0.433 0.42 0.411 0.406 0.421 0.456 0.445 0.424 0.465
2286.272 0.474 0.464 0.467 0.455 0.448 0.451 0.46 0.461 0.442 0.463
2305.565 0.476 0.47 0.462 0.476 0.492 0.492 0.495 0.494 0.486 0.477
2324.858 0.485 0.481 0.469 0.485 0.5187 0.5147 0.473 0.47 0.483 0.489
2344.152 0.5151 0.5216 0.5133 0.497 0.494 0.492 0.482 0.483 0.49 0.5069
2363.445 0.5117 0.5026 0.5253 0.5453 0.5319 0.5193 0.5232 0.5532 0.5688 0.5396
2382.739 0.5181 0.5085 0.492 0.494 0.498 0.5156 0.524 0.5207 0.5145 0.5031
2402.032 0.5172 0.5069 0.5124 0.5331 0.498 0.498 0.5428 0.535 0.529 0.5549
2421.326 0.5456 0.5143 0.5168 0.5322 0.5204 0.5178 0.5389 0.5382 0.5205 0.5288
2440.619 0.5341 0.5473 0.5527 0.5509 0.5401 0.5157 0.5347 0.5636 0.5472 0.5313
2459.912 0.5516 0.5468 0.5469 0.5675 0.5665 0.579 0.58 0.5654 0.5698 0.565
2479.206 0.5708 0.59 0.5858 0.5687 0.5858 0.5934 0.578 0.5736 0.5645 0.5613
2498.499 0.5745 0.576 0.5696 0.5732 0.5885 0.574 0.5582 0.5698 0.59059 0.609714
2517.793 0.5855 0.5622 0.5827 0.5851 0.5793 0.59651 0.59537 0.59106 0.59467 0.5768
2537.086 0.5564 0.5699 0.5737 0.5657 0.5674 0.5605 0.5652 0.605604 0.61075 0.6118
2556.380 0.5897 0.5614 0.5405 0.5175 0.5442 0.5629 0.5678 0.5755 0.5877 0.59142
2575.673 0.59394 0.63438 0.63884 0.609378 0.609993 0.61286 0.61709 0.59448 0.61766 0.65917
2594.966 0.63321 0.61862 0.63088 0.63228 0.65028 0.67249 0.69152 0.69748 0.67412 0.64971
2614.260 0.64584 0.66483 0.68785 0.708 0.7024 0.68894 0.68921 0.7004 0.7315 0.7435
2633.553 0.7413 0.7385 0.732 0.736 0.7266 0.7076 0.7166 0.7417 0.729 0.7203
2652.847 0.7275 0.7511 0.7907 0.7975 0.7884 0.7909 0.7849 0.7899 0.8053 0.7872
2672.140 0.7724 0.7988 0.8016 0.7698 0.7848 0.791 0.787 0.7389 0.7158 0.7441
2691.434 0.7615 0.7763 0.7212 0.7135 0.7195 0.69051 0.68536 0.7014 0.7305 0.7288
2710.727 0.7237 0.7193 0.7225 0.706 0.7098 0.7431 0.745 0.7568 0.7868 0.7802
2730.020 0.76 0.7731 0.8073 0.8426 0.8566 0.8503 0.8438 0.8728 0.8573 0.8302
2749.314 0.8422 0.8222 0.8158 0.8383 0.8273 0.809 0.8145 0.8259 0.8136 0.7911
2768.607 0.8047 0.8089 0.8022 0.8239 0.873 0.9247 0.8909 0.8545 0.8686 0.8709
2787.901 0.895 0.9053 0.8934 0.9529 0.974 0.9565 0.9773 1.0076 1.0572 1.0671
2807.194 1.1281 1.1443 1.0952 1.0865 1.095 1.1741 1.1814 1.2177 1.2846 1.2929
2826.488 1.4134 1.4878 1.4787 1.5182 1.579 1.69 1.77 1.8 1.95 2.12
2845.781 2.26 2.56 3.01 3.52 4.24 5.23 6.4 7.67 8.69 9.24
2865.074 9.38 9.26 8.93 8.6 8.21 7.7 7.11 6.51 5.93 5.46
2884.368 5.12 4.87 4.69 4.62 4.67 4.73 4.8 5 5.21 5.45
2903.661 5.74 6.08 6.46 6.92 7.57 8.33 9.32 10.47 11.81 13.27
2922.955 14.8 16.56 18.47 20.32 21.85 22.8 22.95 22.35 21.2 19.5
2942.248 17.49 15.46 13.51 11.8 10.42 9.4 8.61 7.91 7.19 6.43
2961.542 5.71 5.07 4.57 4.2 3.91 3.81 3.77 3.66 3.57 3.51
2980.835 3.48 3.44 3.32 3.17 3.13 3.08 3 3.01 3.01 2.89
3000.128 2.75 2.67 2.61 2.56 2.5 2.38 2.36 2.27 2.09 2
3019.422 1.91 1.95 1.93 1.87 1.81 1.76 1.7 1.5917 1.5503 1.4866
3038.715 1.4479 1.4135 1.3957 1.4038 1.3641 1.3356 1.3105 1.2441 1.1706 1.1623
3058.009 1.1756 1.2091 1.2764 1.232 1.1525 1.1525 1.1382 1.0751 1.0455 1.0637
3077.302 1.0602 1.0233 1.0045 1.0094 1.0212 1.0333 0.9376 0.8464 0.8431 0.8471
3096.596 0.7974 0.7181 0.65357 0.63983 0.64197 0.63187 0.61183 0.5169 0.5236 0.5718
3115.889 0.5888 0.5894 0.5398 0.483 0.537 0.5759 0.5009 0.459 0.481 0.5251
3135.182 0.474 0.453 0.45 0.423 0.453 0.489 0.5021 0.5092 0.479 0.444
3154.476 0.471 0.474 0.39 0.337 0.39 0.5209 0.494 0.437 0.469 0.412
3173.769 0.38 0.333 0.297 0.301 0.341 0.378 0.328 0.325 0.333 0.343
3193.063 0.408 0.337 0.281 0.346 0.323 0.248 0.25 0.277 0.306 0.338
3212.356 0.345 0.362 0.379 0.305 0.215 0.279 0.278 0.226 0.292 0.262
3231.650 0.132 0.155 0.186 0.129 0.113 0.142 0.175 0.216 0.303 0.231
3250.943 0.115 0.125 0.129 0.087 0.1 0.201 0.192 0.135 0.171 0.168
3270.236 0.097 0.086 0.107 0.117 0.143 0.169 0.106 0.095 0.139 0.104
3289.530 0.087 0.106 0.116 0.14 0.179 0.176 0.137 0.061 0.016 0.066
3308.823 0.103 0.151 0.153 0.123 0.158 0.13 0.103 0.057 0.09 0.163
3328.117 0.15 0.11 0.07 0.118 0.218 0.202 0.027 0 0.105 0.116
3347.410 0.11 0.062 0.099 0.14 0.097 0.047 0.068 0.154 0.092 0.096
3366.704 0.192 0.214 0.161 0.117 0.178 0.136 0.086 0.156 0.124 0.085
3385.997 0.091 0.118 0.153 0.149 0.177 0.15 0.089 0.138 0.175 0.153
3405.290 0.183 0.176 0.136 0.132 0.242 0.331 0.277 0.198 0.248 0.336
3424.584 0.27 0.237 0.24 0.3 0.335 0.317 0.329 0.347 0.421 0.406
3443.877 0.379 0.448 0.438 0.5343 0.65599 0.64253 0.61694 0.5324 0.483 0.59055
3463.171 0.7271 0.7901 0.7098 0.7438 0.8455 0.859 0.9618 1.0295 1.092 1.1947
3482.464 1.2596 1.3188 1.3672 1.427 1.5668 1.68 1.72 1.76 1.81 1.89
3501.758 2.05 2.15 2.23 2.44 2.64 2.84 3.08 3.39 3.76 4.15
3521.051 4.44 4.66 4.84 4.97 5.07 5.13 5.06 4.89 4.82 4.72
3540.344 4.54 4.4 4.23 4.09 3.97 3.85 3.64 3.46 3.36 3.19
3559.638 3.01 2.85 2.69 2.52 2.36 2.25 2.16 2.04 1.9 1.81
3578.931 1.72 1.5284 1.4118 1.4099 1.3329 1.1791 1.0462 0.9987 0.9271 0.86
3598.225 0.8455 0.781 0.7384 0.67263 0.5796 0.5771 0.63563 0.6641 0.64199 0.609928
3617.518 0.5833 0.5643 0.5516 0.5632 0.64297 0.69185 0.7075 0.8093 0.9724 1.0903
3636.812 1.1469 1.2047 1.2748 1.3779 1.4706 1.5518 1.5513 1.4919 1.4479 1.3937
3656.105 1.3488 1.2543 1.1796 1.1883 1.1559 1.073 0.9662 0.867 0.7611 0.69798
3675.398 0.64935 0.5536 0.5006 0.418 0.401 0.418 0.353 0.319 0.324 0.266
3694.692 0.247 0.264 0.255 0.255 0.235 0.189 0.209 0.249 0.131 0.088
3713.985 0.155 0.176 0.15 0.14 0.146 0.136 0.151 0.142 0.152 0.185
3733.279 0.195 0.213 0.218 0.175 0.112 0.084 0.162 0.165 0.112 0.107
3752.572 0.097 0.126 0.144 0.152 0.15 0.15 0.166 0.169 0.192 0.175
3771.866 0.153 0.193 0.159 0.163 0.223 0.248 0.223 0.168 0.175 0.184
3791.159 0.193 0.166 0.137 0.125 0.095 0.171 0.226 0.184 0.151 0.162
3810.452 0.163 0.14 0.195 0.245 0.213 0.201 0.261 0.285 0.252 0.242
3829.746 0.203 0.191 0.185 0.194 0.243 0.278 0.262 0.183 0.182 0.229
3849.039 0.265 0.292 0.302 0.271 0.236 0.253 0.29 0.299 0.292 0.269
3868.333 0.248 0.238 0.202 0.215 0.231 0.22 0.224 0.194 0.227 0.29
3887.626 0.267 0.238 0.235 0.224 0.242 0.267 0.35 0.4 0.361 0.337
3906.920 0.278 0.257 0.271 0.324 0.356 0.339 0.354 0.33 0.279 0.279
3926.213 0.279 0.252 0.249 0.31 0.336 0.312 0.288 0.281 0.319 0.344
3945.506 0.313 0.273 0.236 0.183 0.232 0.309 0.262 0.21 0.244 0.305
3964.800 0.299 0.27 0.278 0.284 0.344 0.377 0.37 0.341 0.295 0.309
3984.093 0.322 0.316 0.316 0.317 0.292 0.314 0.317 0.28 0.297
##END=
