##TITLE=2-Methyl-2-ethyl-1,3-propanediol
##JCAMP-DX=4.24
##DATA TYPE=INFRARED SPECTRUM
##ORIGIN=EPA-IR VAPOR PHASE LIBRARY
##OWNER=SRD/NIST
Collection (C) 2018 copyright by the U.S. Secretary of Commerce
on behalf of the United States of America. All rights reserved.
##CAS REGISTRY NO=77-84-9
##MOLFORM=C 6 H 14 O 2
##$NIST SOURCE=MSDC-IR
##STATE=gas
##XUNITS=1/CM
##YUNITS=ABSORBANCE
##XFACTOR=1.
##YFACTOR=0.001
##DELTAX=1.92898
##FIRSTX=549.8
##LASTX=4000.7
##FIRSTY=1.14
##MAXX=4000.7
##MINX=549.759
##MAXY=0.02981
##MINY=0.0000288
##NPOINTS=1790
##XYDATA=(X++(Y..Y))
549.759 1.14 1.32 1.31 1.47 1.82 1.67 1.52 1.71 1.6 1.61
569.049 1.68 1.41 1.42 1.56 1.44 1.44 1.45 1.54 1.58 1.39
588.339 1.21 1.2 1.31 1.35 1.29 1.17 0.8975 0.8694 1.01 0.8256
607.628 0.6394 0.605 0.6169 0.6353 0.6733 0.6347 0.651 0.6526 0.5208 0.4709
626.918 0.4199 0.4442 0.5108 0.4429 0.3396 0.3204 0.2119 0.1836 0.3647 0.4742
646.208 0.4934 0.4413 0.3741 0.4377 0.4557 0.4213 0.4149 0.4423 0.4563 0.3871
665.498 0.3709 0.4446 0.3915 0.3883 0.4913 0.3775 0.4512 0.5252 0.4428 0.4868
684.787 0.544 0.5539 0.5411 0.519 0.5033 0.5115 0.5506 0.5424 0.5587 0.5701
704.077 0.659 0.7775 0.6915 0.6996 0.9139 1.08 1.03 0.9429 0.9485 1.04
723.367 1.03 1.03 1.1 1.03 1.04 1.06 0.9808 0.9799 1.06 1.08
742.657 1.01 0.8964 0.7818 0.8126 0.8701 0.862 0.9656 0.9815 0.9365 0.9523
761.947 1.01 1.15 1.18 1.12 1.17 1.45 1.68 1.75 1.86 1.82
781.236 1.81 1.91 1.91 1.84 1.71 1.57 1.44 1.39 1.36 1.26
800.526 1.07 1.06 0.9828 0.8386 0.8062 0.6981 0.7208 0.7537 0.7404 0.7315
819.816 0.7214 0.7978 0.8339 0.8138 0.7757 0.7679 0.9025 0.8554 0.8391 0.9007
839.106 0.838 0.9389 1.05 1.06 1.03 1.03 1.09 1.21 1.25 1.26
858.395 1.31 1.29 1.29 1.28 1.36 1.36 1.34 1.4 1.45 1.47
877.685 1.39 1.45 1.57 1.55 1.53 1.67 1.69 1.6 1.67 1.77
896.975 1.7 1.64 1.79 1.92 1.87 1.76 1.74 1.8 1.83 1.84
916.265 1.88 1.93 1.98 1.97 2.07 2.2 2.39 2.58 2.61 2.67
935.555 2.83 3.02 3.18 3.24 3.37 3.46 3.48 3.54 3.6 3.68
954.844 3.71 3.84 3.89 3.88 3.86 3.86 3.95 4.12 4.23 4.27
974.134 4.51 4.72 5 5.37 5.72 6.31 7.01 7.82 8.75 9.6
993.424 10.47 11.45 12.39 13.34 14.42 15.34 16.12 16.95 17.67 18.39
1012.714 19.17 19.69 20.15 20.68 21.26 21.88 22.45 23.05 23.87 24.75
1032.003 25.4 25.93 26.61 27.16 27.55 27.87 28.23 28.53 28.26 27.97
1051.293 27.9 27.47 26.64 25.6 24.59 23.69 22.62 21.44 19.85 18.18
1070.583 16.66 14.94 13.32 11.77 10.37 9.03 7.74 6.73 5.88 5.1
1089.873 4.49 4.1 3.64 3.27 3.13 3.14 3.16 3.09 3.05 3.03
1109.163 3.07 3.04 3.12 3.1 3.01 3.24 3.33 3.1 3.21 3.49
1128.452 3.48 3.53 3.7 3.77 3.9 4.09 4.13 4.06 4 4.09
1147.742 4.18 4.32 4.37 4.47 4.49 4.41 4.43 4.48 4.54 4.51
1167.032 4.43 4.43 4.5 4.36 4.06 3.97 4 4 3.92 3.82
1186.322 3.72 3.7 3.69 3.49 3.43 3.43 3.28 3.26 3.29 3.31
1205.611 3.32 3.23 3.2 3.34 3.43 3.49 3.49 3.46 3.37 3.46
1224.901 3.71 3.8 3.83 3.86 3.92 3.93 3.89 3.94 3.97 3.98
1244.191 3.95 3.95 4 3.85 3.78 3.92 3.89 3.83 3.84 3.77
1263.481 3.73 3.73 3.71 3.65 3.56 3.63 3.72 3.68 3.64 3.63
1282.771 3.67 3.62 3.53 3.56 3.6 3.61 3.63 3.63 3.61 3.62
1302.060 3.6 3.56 3.59 3.62 3.61 3.61 3.64 3.7 3.72 3.74
1321.350 3.72 3.72 3.74 3.74 3.74 3.72 3.7 3.71 3.71 3.68
1340.640 3.7 3.72 3.74 3.77 3.82 3.86 3.9 3.99 4.06 4.14
1359.930 4.27 4.43 4.55 4.65 4.82 5.01 5.19 5.39 5.54 5.64
1379.219 5.74 5.81 5.91 5.99 5.97 5.92 5.86 5.75 5.65 5.57
1398.509 5.46 5.33 5.19 5.08 4.98 4.86 4.78 4.72 4.62 4.5
1417.799 4.38 4.2 4.02 3.87 3.71 3.55 3.4 3.29 3.2 3.16
1437.089 3.2 3.29 3.44 3.66 3.96 4.32 4.65 4.98 5.37 5.79
1456.378 6.27 6.71 7.05 7.33 7.54 7.73 7.82 7.79 7.64 7.43
1475.668 7.15 6.78 6.33 5.83 5.31 4.79 4.26 3.77 3.32 2.88
1494.958 2.48 2.11 1.84 1.62 1.46 1.34 1.21 1.11 1.06 1
1514.248 0.9388 0.8756 0.8449 0.795 0.7511 0.731 0.7106 0.6651 0.6608 0.7048
1533.538 0.7032 0.69 0.6715 0.6261 0.6021 0.6152 0.6148 0.5777 0.5813 0.5838
1552.827 0.5815 0.5699 0.5404 0.5815 0.5858 0.5386 0.5231 0.5051 0.5187 0.557
1572.117 0.5602 0.5275 0.4922 0.4768 0.4555 0.4605 0.4725 0.471 0.4761 0.4938
1591.407 0.4841 0.4911 0.4701 0.4109 0.3913 0.3849 0.4185 0.4178 0.3698 0.3587
1610.697 0.3144 0.2885 0.3449 0.3323 0.3269 0.3127 0.2545 0.2441 0.2421 0.2705
1629.986 0.2458 0.2424 0.2746 0.271 0.2632 0.2335 0.1952 0.2054 0.2319 0.224
1649.276 0.2031 0.2385 0.2628 0.1841 0.1703 0.221 0.2194 0.1734 0.1396 0.1168
1668.566 0.1507 0.1441 0.1259 0.1727 0.164 0.1562 0.1275 0.07035 0.09116 0.1037
1687.856 0.09907 0.1171 0.09707 0.101 0.09576 0.09996 0.09168 0.07029 0.06398 0.06141
1707.146 0.09631 0.0899 0.06293 0.06939 0.07482 0.07994 0.06928 0.02945 0.0288 0.05871
1726.435 0.1012 0.107 0.08421 0.1031 0.1282 0.1086 0.09351 0.07352 0.0828 0.1176
1745.725 0.1445 0.1377 0.1299 0.1515 0.1725 0.2067 0.2108 0.2312 0.273 0.2826
1765.015 0.2674 0.2853 0.3001 0.2754 0.2594 0.2662 0.2967 0.3104 0.2807 0.2464
1784.305 0.2342 0.23 0.2249 0.2003 0.1787 0.1749 0.1761 0.1544 0.1383 0.1223
1803.594 0.1069 0.1226 0.1183 0.1166 0.1101 0.09825 0.09221 0.09496 0.07654 0.05154
1822.884 0.05916 0.07706 0.1101 0.09969 0.05423 0.06466 0.0827 0.07431 0.07777 0.08056
1842.174 0.07861 0.04021 0.04406 0.06482 0.06861 0.06894 0.0392 0.03671 0.05826 0.08808
1861.464 0.08532 0.04527 0.04455 0.06023 0.03505 0.04676 0.06752 0.04786 0.0365 0.04823
1880.754 0.06722 0.07917 0.07342 0.05913 0.04512 0.06181 0.08219 0.05476 0.08513 0.1163
1900.043 0.08172 0.03359 0.0407 0.07326 0.07409 0.06377 0.04862 0.05336 0.05025 0.06245
1919.333 0.07428 0.08856 0.09768 0.08258 0.09788 0.08512 0.06403 0.09797 0.1219 0.1195
1938.623 0.1109 0.1108 0.1081 0.09274 0.1144 0.1367 0.1314 0.1309 0.1206 0.1186
1957.913 0.1172 0.08639 0.08808 0.09586 0.09236 0.09816 0.09869 0.09708 0.141 0.1547
1977.202 0.09912 0.1173 0.1354 0.1094 0.1366 0.1558 0.1603 0.1462 0.1162 0.1319
1996.492 0.1571 0.1492 0.1497 0.171 0.1712 0.184 0.2196 0.2314 0.2305 0.2404
2015.782 0.2311 0.206 0.2326 0.2649 0.2309 0.2256 0.2637 0.27 0.2492 0.229
2035.072 0.2021 0.2484 0.3165 0.3055 0.2981 0.2992 0.3121 0.3435 0.3525 0.3422
2054.362 0.3555 0.3918 0.4128 0.41 0.4178 0.4151 0.3901 0.4161 0.4366 0.391
2073.651 0.323 0.3274 0.373 0.3787 0.3475 0.3299 0.364 0.3646 0.3319 0.2874
2092.941 0.2598 0.2802 0.3081 0.2652 0.2008 0.1849 0.1939 0.2164 0.2086 0.2343
2112.231 0.2381 0.207 0.2178 0.2149 0.206 0.2303 0.234 0.2007 0.1777 0.1885
2131.521 0.1567 0.1088 0.1389 0.18 0.1619 0.1757 0.2045 0.1673 0.1411 0.1558
2150.810 0.188 0.1834 0.1663 0.1545 0.1693 0.2034 0.1591 0.1185 0.1543 0.1931
2170.100 0.214 0.1893 0.1809 0.1842 0.1518 0.1792 0.1822 0.1454 0.1521 0.1726
2189.390 0.1802 0.1928 0.163 0.1668 0.1819 0.1415 0.1428 0.18 0.2054 0.1984
2208.680 0.1829 0.1832 0.1955 0.1772 0.1474 0.1702 0.1691 0.1888 0.2298 0.1841
2227.970 0.2059 0.2403 0.2188 0.1821 0.185 0.1812 0.1884 0.2021 0.2005 0.2039
2247.259 0.2249 0.2373 0.1917 0.1766 0.1699 0.1971 0.1937 0.1676 0.1695 0.1871
2266.549 0.2243 0.219 0.2207 0.2501 0.2538 0.2667 0.2422 0.2412 0.261 0.2536
2285.839 0.2366 0.1932 0.2065 0.2344 0.2319 0.2109 0.2165 0.228 0.2208 0.254
2305.129 0.2945 0.2858 0.2883 0.2845 0.2435 0.2481 0.2817 0.2614 0.2417 0.2666
2324.418 0.2819 0.2783 0.2785 0.2798 0.2682 0.2474 0.2428 0.2758 0.2819 0.233
2343.708 0.2185 0.2437 0.2655 0.2748 0.2706 0.272 0.2637 0.269 0.281 0.2997
2362.998 0.313 0.2811 0.2644 0.3328 0.3733 0.3058 0.2581 0.2481 0.288 0.3019
2382.288 0.2705 0.3236 0.3385 0.3093 0.2992 0.3131 0.3193 0.3183 0.35 0.3668
2401.578 0.3886 0.3795 0.3292 0.339 0.3544 0.3125 0.3175 0.334 0.3549 0.3335
2420.867 0.3126 0.3689 0.3681 0.3555 0.3794 0.3328 0.2606 0.2557 0.3124 0.3418
2440.157 0.3046 0.3373 0.3546 0.3122 0.3002 0.2853 0.2772 0.3069 0.3705 0.3842
2459.447 0.3386 0.3235 0.3547 0.3569 0.2946 0.2347 0.2536 0.2922 0.3124 0.3139
2478.737 0.3077 0.3047 0.2745 0.276 0.2678 0.2646 0.2719 0.2965 0.3245 0.2974
2498.026 0.3157 0.345 0.3695 0.3617 0.3362 0.3412 0.3244 0.3219 0.3319 0.3237
2517.316 0.347 0.328 0.2687 0.3147 0.2885 0.2613 0.3191 0.264 0.2771 0.315
2536.606 0.2552 0.27 0.3105 0.3223 0.3091 0.2838 0.2718 0.2507 0.2543 0.2754
2555.896 0.2666 0.2534 0.2491 0.2693 0.3361 0.321 0.3007 0.3604 0.3756 0.3357
2575.186 0.3202 0.3451 0.3439 0.3388 0.3583 0.3548 0.342 0.3577 0.3897 0.4287
2594.475 0.4102 0.41 0.3927 0.3572 0.3833 0.3642 0.3829 0.4069 0.4039 0.3917
2613.765 0.4013 0.4366 0.461 0.4829 0.4615 0.4779 0.4839 0.4476 0.481 0.5165
2633.055 0.4986 0.543 0.5772 0.569 0.5756 0.5812 0.6243 0.6406 0.603 0.5861
2652.345 0.577 0.5763 0.6633 0.7013 0.6427 0.6502 0.6623 0.6662 0.7103 0.7853
2671.634 0.7771 0.7562 0.8096 0.8446 0.8419 0.7872 0.728 0.786 0.8706 0.8866
2690.924 0.9376 0.9803 0.9923 0.9586 0.9176 0.9737 0.9986 0.9849 1.02 1.08
2710.214 1.11 1.16 1.15 1.12 1.18 1.19 1.2 1.28 1.37 1.4
2729.504 1.4 1.49 1.58 1.58 1.6 1.67 1.66 1.62 1.72 1.83
2748.794 1.82 1.81 1.83 1.85 1.89 1.95 1.96 1.95 1.99 2.04
2768.083 2.05 2.11 2.19 2.17 2.19 2.23 2.2 2.21 2.26 2.31
2787.373 2.39 2.45 2.49 2.52 2.52 2.62 2.62 2.63 2.75 2.79
2806.663 2.84 2.86 2.91 3.08 3.22 3.26 3.33 3.49 3.56 3.61
2825.953 3.75 3.93 4.11 4.33 4.51 4.66 5 5.37 5.71 6.08
2845.242 6.52 7.07 7.63 8.15 8.73 9.44 10.22 11.1 11.97 12.88
2864.532 13.92 14.91 15.95 16.9 17.84 18.78 19.6 20.46 21.27 21.88
2883.822 22.19 22.34 22.39 22.27 22.16 22.01 21.74 21.5 21.33 21.24
2903.112 21.31 21.56 21.9 22.25 22.72 23.34 24.02 24.75 25.47 26.08
2922.401 26.71 27.37 27.81 28.06 28.2 28.22 28.22 28.11 27.97 27.83
2941.691 27.59 27.29 26.96 26.65 26.48 26.48 26.61 26.85 27.32 27.97
2960.981 28.67 29.15 29.42 29.62 29.76 29.81 29.59 28.86 27.54 25.84
2980.271 23.91 21.9 19.68 17.46 15.44 13.38 11.44 9.74 8.27 7.01
2999.561 6.02 5.25 4.56 4.02 3.61 3.22 2.91 2.67 2.46 2.27
3018.850 2.1 2.05 2.01 1.93 1.84 1.75 1.73 1.71 1.61 1.51
3038.140 1.52 1.44 1.4 1.41 1.26 1.19 1.25 1.27 1.2 1.17
3057.430 1.24 1.22 1.17 1.16 1.11 1.13 1.1 1.04 1.09 1.07
3076.720 0.997 0.9849 0.9593 0.8883 0.9509 0.9987 0.9715 0.9587 0.8971 0.8423
3096.009 0.7827 0.7461 0.8089 0.881 0.8909 0.8432 0.7845 0.7649 0.7797 0.7024
3115.299 0.681 0.7825 0.7479 0.6625 0.6633 0.6037 0.5749 0.6375 0.6947 0.7476
3134.589 0.7143 0.7014 0.699 0.6661 0.6258 0.526 0.5135 0.5807 0.594 0.5916
3153.879 0.5996 0.6137 0.6492 0.5875 0.5872 0.6956 0.6144 0.6115 0.742 0.6791
3173.169 0.5909 0.6425 0.6096 0.4981 0.5374 0.5308 0.5228 0.5984 0.57 0.5777
3192.458 0.5686 0.6026 0.6469 0.5724 0.4842 0.3845 0.399 0.4315 0.3098 0.2655
3211.748 0.3047 0.3002 0.3084 0.3036 0.2856 0.3336 0.3158 0.2446 0.2192 0.2676
3231.038 0.3098 0.2733 0.2903 0.3194 0.3006 0.3087 0.3467 0.3652 0.3355 0.2512
3250.328 0.2485 0.2659 0.2658 0.2766 0.3133 0.3737 0.3859 0.3152 0.3748 0.4199
3269.617 0.3356 0.3016 0.2989 0.3177 0.2741 0.2943 0.3439 0.2799 0.2052 0.2504
3288.907 0.3699 0.3618 0.3061 0.363 0.3398 0.3041 0.269 0.2484 0.2303 0.2794
3308.197 0.327 0.2856 0.2993 0.2339 0.1974 0.25 0.3566 0.3318 0.1985 0.261
3327.487 0.3381 0.3066 0.2193 0.2506 0.2987 0.2031 0.2449 0.2603 0.2519 0.236
3346.777 0.2097 0.2562 0.2526 0.2521 0.2809 0.2786 0.3323 0.3187 0.2964 0.3351
3366.066 0.3402 0.3505 0.3477 0.3623 0.3877 0.4405 0.3865 0.3213 0.3708 0.3758
3385.356 0.3775 0.3727 0.3438 0.3596 0.4081 0.444 0.4207 0.4189 0.3721 0.3823
3404.646 0.4512 0.3309 0.3829 0.5318 0.426 0.3744 0.4726 0.5417 0.5017 0.5172
3423.936 0.4901 0.4552 0.5169 0.4681 0.4983 0.551 0.5587 0.549 0.4822 0.5268
3443.225 0.6797 0.7424 0.6451 0.6071 0.6296 0.5698 0.5539 0.5642 0.5544 0.6657
3462.515 0.5841 0.4651 0.5353 0.5572 0.5414 0.5863 0.6291 0.537 0.4478 0.4336
3481.805 0.4553 0.5168 0.5428 0.516 0.5329 0.5956 0.6124 0.5603 0.5865 0.6078
3501.095 0.553 0.5779 0.5786 0.5805 0.5612 0.4774 0.458 0.5072 0.5814 0.5296
3520.385 0.5153 0.5538 0.4827 0.4642 0.4708 0.5338 0.6113 0.6066 0.5236 0.6237
3539.674 0.8111 0.8003 0.7226 0.6373 0.601 0.7055 0.7979 0.7807 0.7647 0.8462
3558.964 0.9032 0.9175 1.01 1.08 1.17 1.12 1.06 1.21 1.49 1.57
3578.254 1.79 2.13 2.31 2.62 3.03 3.53 3.93 4.26 4.53 4.85
3597.544 5.19 5.36 5.36 5.27 5.14 5.08 5.02 4.85 4.52 4.2
3616.833 3.86 3.55 3.41 3.28 3.03 2.73 2.64 2.6 2.55 2.59
3636.123 2.59 2.48 2.57 2.82 2.92 3.12 3.45 3.91 4.52 5.06
3655.413 5.52 5.97 6.51 6.98 7.37 7.81 8.24 8.48 8.42 8.19
3674.703 8.01 7.71 7.27 6.71 6.09 5.55 4.96 4.35 3.75 3.26
3693.993 2.76 2.32 2.13 1.99 1.78 1.55 1.37 1.35 1.36 1.24
3713.282 1.18 1.17 1.19 1.15 0.9841 0.9581 1.01 1.01 0.9756 0.9822
3732.572 0.9041 0.7607 0.8619 0.9688 0.9507 0.7638 0.6711 0.8004 0.845 0.7627
3751.862 0.6455 0.7046 0.6749 0.6911 0.8198 0.7724 0.7287 0.6836 0.709 0.8111
3771.152 0.8552 0.7439 0.7687 0.7966 0.6786 0.7164 0.7413 0.689 0.637 0.5755
3790.441 0.5877 0.645 0.7385 0.7105 0.6147 0.6374 0.6732 0.652 0.7013 0.7319
3809.731 0.704 0.6862 0.6532 0.6021 0.5549 0.6329 0.6374 0.6242 0.5586 0.5613
3829.021 0.7081 0.675 0.6021 0.6385 0.6542 0.6191 0.5563 0.4573 0.4423 0.5135
3848.311 0.6048 0.5746 0.5196 0.5474 0.508 0.4337 0.4322 0.5921 0.6552 0.6073
3867.601 0.5671 0.4771 0.4079 0.4687 0.5017 0.5019 0.6562 0.7265 0.7193 0.6636
3886.890 0.5794 0.5833 0.5974 0.5879 0.5417 0.5163 0.5191 0.5658 0.6376 0.5736
3906.180 0.4813 0.5927 0.7343 0.6777 0.5847 0.5617 0.4561 0.4886 0.6135 0.5791
3925.470 0.5598 0.4659 0.4554 0.6359 0.6516 0.6915 0.6818 0.4894 0.4907 0.4817
3944.760 0.3783 0.3735 0.4991 0.524 0.4723 0.5364 0.4039 0.5016 0.6259 0.4094
3964.049 0.4078 0.4182 0.3902 0.3411 0.3705 0.4809 0.3768 0.3048 0.3495 0.3823
3983.339 0.3619 0.3079 0.423 0.4667 0.4247 0.4159 0.4263 0.4478 0.4158 0.3867
##END=
