##TITLE=Ciodrin
##JCAMP-DX=4.24
##DATA TYPE=INFRARED SPECTRUM
##ORIGIN=NIST Mass Spectrometry Data Center
##OWNER=NIST Standard Reference Data Program
Collection (C) 2018 copyright by the U.S. Secretary of Commerce
on behalf of the United States of America. All rights reserved.
##CAS REGISTRY NO=7700-17-6
##MOLFORM=C 14 H 19 O 6 P
##$NIST SOURCE=MSDC-IR
##SPECTROMETER/DATA SYSTEM=HP-GC/MS/IRD
##STATE=gas
##XUNITS=1/CM
##YUNITS=ABSORBANCE
##XFACTOR=1.0
##YFACTOR=0.000011500
##DELTAX=4.0
##FIRSTX=550.0
##LASTX=3846.0
##FIRSTY=0.008568
##MAXX=3846
##MINX=550
##MAXY=0.115
##MINY=0
##NPOINTS=825
##XYDATA=(X++(Y..Y))
550.0 745 656 575 515 448 403 348 303 261 222
590.0 208 204 203 175 130 86 58 47 36 24
630.0 18 10 6 14 21 34 49 60 78 118
670.0 171 222 271 323 429 670 976 1038 818 606
710.0 518 496 494 487 487 506 531 548 566 604
750.0 672 752 800 769 678 604 567 569 615 709
790.0 847 1022 1239 1476 1671 1712 1559 1295 1079 990
830.0 1017 1150 1362 1605 1840 2019 2108 2096 1981 1782
870.0 1546 1344 1219 1182 1244 1426 1766 2272 2810 3081
910.0 2886 2336 1720 1255 962 791 688 629 610 616
950.0 631 662 722 799 905 1063 1281 1572 1894 2180
990.0 2427 2735 3173 3702 4385 5401 6727 8066 8990 9274
1030.0 9079 8866 8987 9331 9659 9902 10000 9898 9599 9050
1070.0 8186 7128 6056 5049 4202 3608 3264 3124 3157 3344
1110.0 3708 4319 5221 6298 7106 7066 6070 4667 3462 2634
1150.0 2124 1836 1699 1672 1687 1692 1661 1581 1490 1425
1190.0 1375 1339 1344 1398 1463 1509 1580 1749 2019 2315
1230.0 2504 2476 2245 1932 1685 1564 1531 1540 1530 1471
1270.0 1389 1346 1399 1570 1857 2233 2614 2886 3018 3116
1310.0 3235 3260 3106 2838 2518 2203 1955 1784 1664 1571
1350.0 1455 1294 1114 953 835 788 826 926 1070 1288
1390.0 1527 1550 1274 921 679 555 495 475 481 507
1430.0 543 576 594 609 643 695 718 677 590 503
1470.0 435 386 351 336 346 379 406 379 313 254
1510.0 220 205 195 195 203 207 207 205 202 201
1550.0 200 202 203 206 213 220 229 240 254 277
1590.0 301 322 346 372 398 426 459 512 595 707
1630.0 851 1055 1376 1871 2594 3449 4127 4179 3485 2488
1670.0 1670 1171 896 747 672 641 636 660 712 810
1710.0 971 1229 1652 2304 3136 3839 3953 3344 2390 1579
1750.0 1070 781 605 480 393 332 291 261 238 221
1790.0 213 207 196 173 153 136 124 116 106 100
1830.0 97 91 88 89 87 87 88 93 101 105
1870.0 108 106 106 108 107 101 96 95 93 90
1910.0 88 87 90 92 91 92 97 99 97 90
1950.0 84 80 74 62 51 43 38 35 34 33
1990.0 29 27 26 24 22 24 22 22 21 20
2030.0 19 20 21 20 15 15 13 11 10 9
2070.0 9 9 7 7 6 5 8 10 13 15
2110.0 17 20 25 29 30 33 37 36 35 32
2150.0 27 24 20 16 12 10 9 8 7 7
2190.0 6 7 8 10 9 7 11 12 12 15
2230.0 20 23 22 21 20 17 18 18 15 12
2270.0 12 11 9 8 10 11 13 17 18 19
2310.0 23 29 31 30 28 30 34 38 38 37
2350.0 36 38 42 42 40 37 31 22 17 14
2390.0 9 6 6 6 5 6 8 10 11 12
2430.0 9 3 3 6 8 8 9 8 8 7
2470.0 7 7 6 6 5 3 3 5 2 0
2510.0 0 0 3 6 7 6 7 9 13 11
2550.0 10 11 15 20 17 16 14 11 10 11
2590.0 13 13 10 10 11 12 13 13 15 14
2630.0 13 19 18 14 13 12 12 8 5 9
2670.0 12 10 7 9 11 13 11 10 11 12
2710.0 11 11 12 15 16 18 19 19 17 20
2750.0 24 24 26 29 32 32 31 35 37 34
2790.0 35 38 41 44 48 51 57 64 70 79
2830.0 89 104 125 144 172 218 284 371 462 494
2870.0 443 368 315 276 247 230 224 230 237 247
2910.0 271 295 323 366 420 497 590 674 727 747
2950.0 791 896 1073 1266 1335 1219 1037 945 1011 1200
2990.0 1270 1082 820 652 565 522 500 503 528 568
3030.0 620 662 678 655 592 531 501 500 536 609
3070.0 685 695 622 533 473 434 388 339 294 262
3110.0 232 203 173 141 115 96 83 72 67 59
3150.0 56 56 49 44 43 43 43 41 35 24
3190.0 22 26 27 26 27 22 22 25 23 23
3230.0 22 19 19 15 16 20 21 23 22 18
3270.0 18 21 23 26 25 19 18 18 21 25
3310.0 23 19 17 17 18 16 20 25 20 14
3350.0 13 18 19 17 17 20 18 20 23 19
3390.0 15 20 25 21 24 27 32 26 24 28
3430.0 30 35 40 43 41 39 37 34 31 36
3470.0 37 27 23 21 18 19 17 13 17 17
3510.0 15 13 12 7 9 14 16 14 8 5
3550.0 8 14 11 8 14 16 20 27 32 34
3590.0 27 20 20 17 11 13 17 23 22 16
3630.0 12 13 17 20 15 12 14 16 15 14
3670.0 21 24 22 20 16 18 19 15 18 26
3710.0 27 23 21 23 19 17 16 14 13 18
3750.0 15 13 22 25 18 17 18 22 23 23
3790.0 25 21 15 16 20 21 16 14 18 23
3830.0 26 23 23 21 24
##END=
