##TITLE=2,3-Diaminonaphthalene
##JCAMP-DX=4.24
##DATA TYPE=INFRARED SPECTRUM
##ORIGIN=NIST Mass Spectrometry Data Center
##OWNER=NIST Standard Reference Data Program
Collection (C) 2018 copyright by the U.S. Secretary of Commerce
on behalf of the United States of America. All rights reserved.
##CAS REGISTRY NO=771-97-1
##MOLFORM=C 10 H 10 N 2
##$NIST SOURCE=MSDC-IR
##SPECTROMETER/DATA SYSTEM=HP-GC/MS/IRD
##STATE=gas
##XUNITS=1/CM
##YUNITS=ABSORBANCE
##XFACTOR=1.0
##YFACTOR=0.000002000
##DELTAX=4.0
##FIRSTX=550.0
##LASTX=3846.0
##FIRSTY=0.005330
##MAXX=3846
##MINX=550
##MAXY=0.02
##MINY=0
##NPOINTS=825
##XYDATA=(X++(Y..Y))
550.0 2665 2135 1764 1823 1766 1816 1903 2016 2198 2369
590.0 2576 2852 3202 3633 4261 5164 6067 6471 6454 6191
630.0 5608 5259 5322 5357 5241 4974 4596 4207 3877 3599
670.0 3346 3144 2999 2868 2790 2727 2665 2705 2813 2958
710.0 3222 3567 4042 4638 5157 5648 6247 6140 5122 4100
750.0 3210 2432 1912 1639 1498 1396 1300 1219 1161 1103
790.0 1042 988 964 933 906 934 939 983 1061 1262
830.0 1655 2220 2972 3789 4612 5404 5584 4888 3998 3140
870.0 2329 1715 1288 1006 873 810 748 693 633 582
910.0 524 484 498 505 511 550 602 683 684 563
950.0 489 426 381 326 271 225 186 190 201 192
990.0 186 194 209 263 303 336 401 417 331 234
1030.0 174 124 80 77 69 65 96 65 71 90
1070.0 105 192 242 264 328 400 446 450 450 483
1110.0 467 430 439 422 397 367 334 346 365 423
1150.0 532 681 876 1186 1564 1901 2095 2168 1986 1543
1190.0 1066 675 447 402 389 369 381 433 497 537
1230.0 612 723 899 1211 1689 2447 3655 5302 7025 8226
1270.0 8349 7301 5529 3729 2347 1409 820 479 290 185
1310.0 122 80 59 57 70 83 99 122 176 265
1350.0 354 460 552 587 588 554 493 447 465 573
1390.0 781 1036 1285 1465 1513 1357 1065 747 475 309
1430.0 244 235 281 388 521 721 1004 1501 2395 3919
1470.0 5864 7306 7558 6711 4993 3256 2705 3331 4562 6275
1510.0 8378 9911 10000 8810 6604 3996 2196 1422 1107 948
1550.0 854 819 826 872 943 1041 1169 1299 1427 1519
1590.0 1593 1696 1867 2155 2588 3116 3638 4021 4167 4117
1630.0 3973 3849 3751 3586 3308 2901 2336 1783 1385 1158
1670.0 1031 949 859 738 593 475 385 332 322 320
1710.0 323 316 293 263 216 171 146 144 144 148
1750.0 165 184 186 186 186 190 213 236 251 263
1790.0 267 262 259 250 247 232 218 230 236 231
1830.0 224 204 168 144 137 137 134 126 138 157
1870.0 184 214 221 216 212 208 211 209 219 233
1910.0 222 225 263 292 278 227 154 82 39 18
1950.0 11 9 9 8 4 3 0 9 21 26
1990.0 27 35 44 39 47 59 71 69 52 49
2030.0 45 25 16 28 39 39 30 28 31 33
2070.0 37 35 45 48 58 84 96 100 108 113
2110.0 102 91 82 73 68 59 56 63 65 59
2150.0 59 63 62 61 70 77 77 81 80 84
2190.0 99 99 95 101 99 101 113 113 110 116
2230.0 126 124 128 130 126 133 129 118 128 140
2270.0 139 133 131 122 110 115 118 117 120 113
2310.0 111 118 128 130 135 133 118 117 116 115
2350.0 116 107 120 122 106 97 96 92 74 67
2390.0 63 57 68 65 58 64 74 74 71 66
2430.0 72 91 86 84 87 80 78 71 68 66
2470.0 62 56 57 69 77 81 74 77 89 96
2510.0 93 99 105 115 131 130 125 111 104 113
2550.0 108 79 72 84 69 60 66 71 69 66
2590.0 60 63 68 70 85 86 64 68 79 87
2630.0 92 88 95 101 114 119 119 129 149 155
2670.0 152 144 144 140 124 116 100 100 100 98
2710.0 98 91 98 115 131 136 127 127 120 88
2750.0 79 94 83 80 92 82 88 91 78 89
2790.0 105 114 139 156 154 158 150 127 108 93
2830.0 82 79 76 66 54 42 33 44 56 61
2870.0 83 78 67 89 97 104 123 138 139 140
2910.0 143 156 156 158 182 199 230 260 269 281
2950.0 285 278 294 332 359 368 395 468 548 631
2990.0 761 909 1088 1351 1706 2101 2430 2621 2692 2621
3030.0 2364 2104 1985 2067 2406 2971 3570 3909 3963 3851
3070.0 3402 2766 2231 1776 1378 1044 781 621 499 366
3110.0 274 231 194 149 123 105 118 126 101 112
3150.0 128 112 104 121 133 122 122 134 138 137
3190.0 123 127 120 101 113 119 119 121 156 173
3230.0 166 159 134 146 163 146 126 111 90 74
3270.0 72 91 128 113 81 98 96 68 60 68
3310.0 67 65 69 76 87 113 143 162 153 171
3350.0 257 380 601 896 1179 1388 1455 1319 1071 856
3390.0 681 516 424 366 322 324 311 294 285 308
3430.0 355 409 519 676 887 1115 1257 1289 1267 1128
3470.0 950 794 654 546 460 400 350 311 268 255
3510.0 243 228 234 207 160 139 142 156 164 149
3550.0 161 162 155 146 137 123 115 135 129 114
3590.0 108 117 146 154 153 127 95 111 135 115
3630.0 108 122 125 153 161 141 121 121 134 120
3670.0 96 101 131 112 82 119 143 133 125 108
3710.0 80 65 63 53 65 63 52 75 80 55
3750.0 51 70 88 79 79 100 113 96 87 80
3790.0 71 66 59 70 63 56 69 77 84 59
3830.0 43 67 89 87 71
##END=
