##TITLE=3-Bromo-4-methoxyphenylacetonitrile
##JCAMP-DX=4.24
##DATA TYPE=INFRARED SPECTRUM
##ORIGIN=EPA-IR VAPOR PHASE LIBRARY
##OWNER=SRD/NIST
Collection (C) 2018 copyright by the U.S. Secretary of Commerce
on behalf of the United States of America. All rights reserved.
##CAS REGISTRY NO=772-59-8
##MOLFORM=C9 H8 Br N O
##$NIST SOURCE=MSDC-IR
##STATE=gas
##XUNITS=1/CM
##YUNITS=ABSORBANCE
##XFACTOR=1.
##YFACTOR=0.001
##DELTAX=1.92898
##FIRSTX=549.8
##LASTX=4000.7
##FIRSTY=3.803
##MAXX=4000.7
##MINX=549.759
##MAXY=0.136603
##MINY=0
##NPOINTS=1790
##XYDATA=(X++(Y..Y))
549.759 3.803 4.043 4.133 4.033 3.663 3.343 3.193 3.283 3.373 3.443
569.049 3.533 3.313 3.103 3.343 3.263 2.993 3.033 3.293 3.553 3.483
588.339 3.643 3.943 4.213 4.373 4.463 4.753 4.933 4.993 4.933 4.893
607.628 4.883 4.773 4.713 4.433 3.963 3.643 3.363 3.123 3.033 2.783
626.918 2.163 1.913 1.963 1.823 1.713 1.733 1.603 1.463 1.573 1.633
646.208 1.753 1.893 2.003 2.263 2.523 2.693 3.083 3.793 4.663 5.753
665.498 7.243 8.953 10.513 11.813 12.643 12.663 12.173 11.283 9.863 8.423
684.787 7.053 5.733 4.703 3.883 3.383 3.173 2.983 2.743 2.483 2.353
704.077 2.473 2.543 2.583 2.533 2.313 2.223 2.243 2.123 2.113 2.323
723.367 2.363 2.393 2.493 2.583 2.533 2.623 2.833 2.863 3.043 3.583
742.657 4.163 4.803 5.433 6.053 6.753 7.073 7.093 6.803 6.183 5.533
761.947 5.033 4.693 4.273 3.963 3.633 3.403 3.553 3.453 3.293 3.443
781.236 3.723 4.103 4.473 4.963 5.983 7.303 8.813 10.473 12.543 14.743
800.526 16.743 18.623 19.863 20.353 20.253 19.853 18.783 17.493 16.313 14.583
819.816 13.003 11.663 10.273 9.073 8.033 7.233 6.643 6.063 5.593 5.433
839.106 5.423 5.483 5.573 5.853 6.353 6.833 7.463 7.953 8.243 8.693
858.395 9.033 9.243 9.243 9.143 8.993 8.683 8.323 7.803 7.043 6.373
877.685 5.913 5.463 5.063 4.573 4.183 3.893 3.773 3.703 3.543 3.513
896.975 3.303 3.073 3.093 3.063 2.993 3.223 3.413 3.293 3.333 3.573
916.265 3.643 3.813 4.133 4.253 4.133 4.103 4.113 4.063 3.993 3.863
935.555 3.823 3.893 3.723 3.573 3.503 3.453 3.413 3.253 3.203 3.073
954.844 2.973 2.953 2.853 2.843 2.893 3.003 3.083 3.203 3.323 3.433
974.134 3.503 3.613 3.833 4.013 4.343 4.863 5.343 5.693 5.943 6.433
993.424 7.153 7.953 8.773 9.613 10.813 12.263 13.763 15.733 17.963 20.253
1012.714 22.753 25.013 26.593 27.753 28.463 28.313 27.153 25.373 23.123 20.683
1032.003 18.753 16.843 15.503 15.253 15.933 17.813 20.753 24.553 29.233 34.273
1051.293 39.143 43.143 46.293 48.363 48.713 47.343 44.253 39.853 34.933 29.943
1070.583 24.883 20.063 16.063 12.883 10.133 8.283 7.023 5.963 5.683 5.563
1089.873 5.023 4.393 3.753 3.363 3.273 3.483 3.323 2.813 3.013 3.213
1109.163 2.803 2.653 2.663 2.463 2.593 2.683 2.593 2.783 3.043 3.373
1128.452 3.793 4.463 5.323 6.283 6.963 7.403 7.693 8.253 8.853 8.933
1147.742 9.233 8.973 8.723 8.863 8.603 8.253 7.833 7.103 6.483 6.183
1167.032 5.903 5.953 6.353 6.833 7.463 8.133 9.003 9.883 10.773 11.563
1186.322 12.083 12.533 12.683 12.303 11.473 10.893 10.383 9.573 8.873 8.163
1205.611 7.643 7.473 7.253 7.603 7.823 7.773 8.363 9.123 9.693 10.213
1224.901 10.783 11.563 13.233 14.763 16.193 18.523 21.413 24.583 28.323 33.183
1244.191 38.963 45.583 52.913 60.533 67.963 74.783 80.243 84.133 86.313 86.843
1263.481 86.503 85.423 84.593 84.233 84.273 84.973 85.513 85.443 84.533 82.433
1282.771 79.043 74.383 68.863 62.833 56.463 50.063 43.903 38.463 33.623 29.373
1302.060 25.913 22.963 20.383 18.273 16.433 14.733 13.233 11.843 10.483 9.303
1321.350 8.283 7.423 6.783 6.193 5.633 5.283 5.013 4.723 4.553 4.363
1340.640 4.163 4.063 3.953 3.843 3.803 3.783 3.683 3.613 3.533 3.473
1359.930 3.463 3.443 3.413 3.413 3.443 3.443 3.443 3.513 3.593 3.713
1379.219 3.973 4.203 4.463 4.863 5.373 6.033 6.873 7.883 9.003 10.233
1398.509 11.433 12.463 13.263 13.873 14.293 14.393 14.213 13.923 13.643 13.443
1417.799 13.533 14.183 15.503 17.233 18.683 19.553 20.243 20.753 20.983 20.803
1437.089 20.663 21.263 22.353 23.243 23.493 23.173 22.413 21.213 19.573 18.253
1456.378 17.913 18.503 19.633 20.913 22.003 22.773 23.423 24.113 24.973 26.123
1475.668 27.963 31.153 36.173 43.463 53.213 65.633 80.493 96.573 112.443 125.823
1494.958 134.273 136.603 132.233 121.753 106.183 87.773 68.633 51.603 38.433 28.823
1514.248 22.233 17.683 14.503 12.283 10.613 9.293 8.253 7.493 6.973 6.513
1533.538 6.083 5.693 5.443 5.243 5.023 4.873 4.793 4.743 4.663 4.663
1552.827 4.793 4.953 5.143 5.403 5.723 6.093 6.433 6.743 6.983 7.083
1572.117 7.133 7.093 7.013 6.883 6.833 6.913 7.103 7.593 8.383 9.323
1591.407 10.363 11.543 12.653 13.563 14.133 14.303 14.213 13.653 12.793 11.683
1610.697 10.333 8.943 7.723 6.683 5.723 4.963 4.343 3.913 3.553 3.213
1629.986 2.973 2.713 2.423 2.223 2.063 1.913 1.773 1.713 1.693 1.613
1649.276 1.623 1.663 1.573 1.493 1.433 1.463 1.433 1.403 1.433 1.393
1668.566 1.3597 1.346 1.3358 1.3226 1.2585 1.2383 1.2531 1.2464 1.2513 1.23
1687.856 1.1364 1.1424 1.1654 1.1169 1.1002 1.1025 1.1389 1.122 1.1424 1.1809
1707.146 1.2169 1.319 1.383 1.423 1.423 1.433 1.563 1.693 1.703 1.723
1726.435 1.793 1.823 1.833 1.783 1.713 1.703 1.693 1.693 1.683 1.593
1745.725 1.583 1.613 1.593 1.533 1.533 1.513 1.503 1.503 1.433 1.383
1765.015 1.463 1.533 1.563 1.593 1.553 1.613 1.663 1.653 1.623 1.663
1784.305 1.703 1.673 1.643 1.603 1.533 1.513 1.453 1.3464 1.2972 1.2427
1803.594 1.2343 1.2237 1.1532 1.1131 1.1207 1.1316 1.0979 1.0405 1.0234 1.0112
1822.884 0.9993 1.0178 1.0279 0.9926 0.9829 1.0264 1.0335 1.0264 1.0571 1.117
1842.174 1.1898 1.2319 1.2789 1.3684 1.423 1.463 1.533 1.573 1.613 1.693
1861.464 1.713 1.673 1.723 1.783 1.823 1.823 1.773 1.773 1.753 1.733
1880.754 1.693 1.663 1.643 1.633 1.583 1.523 1.483 1.413 1.3599 1.3298
1900.043 1.2505 1.1941 1.0835 0.9961 0.9956 0.9547 0.9299 0.8953 0.8518 0.8541
1919.333 0.8312 0.7903 0.7888 0.7819 0.8013 0.7726 0.7527 0.7326 0.6795 0.6887
1938.623 0.6597 0.6133 0.6257 0.5903 0.5804 0.6217 0.6092 0.6025 0.5811 0.5521
1957.913 0.5484 0.6153 0.6661 0.6418 0.7002 0.7643 0.7784 0.7517 0.7055 0.7539
1977.202 0.7942 0.8379 0.9316 1.0105 1.0265 1.0627 1.183 1.241 1.2821 1.413
1996.492 1.533 1.643 1.793 1.873 1.943 2.023 2.103 2.173 2.193 2.223
2015.782 2.273 2.333 2.383 2.413 2.393 2.353 2.383 2.373 2.373 2.383
2035.072 2.293 2.163 2.073 2.033 1.993 1.953 1.863 1.773 1.723 1.633
2054.362 1.493 1.453 1.473 1.423 1.3379 1.2609 1.2402 1.3069 1.3375 1.2527
2073.651 1.2605 1.324 1.2532 1.2455 1.3072 1.3358 1.3371 1.2604 1.1901 1.1324
2092.941 1.0995 1.083 1.0199 0.9967 1.0318 1.0325 1.0189 1.0069 1.0147 1.0435
2112.231 1.069 1.0606 1.0353 1.0363 1.0153 1.0648 1.137 1.1138 1.0629 1.0589
2131.521 1.0562 1.0702 1.0901 1.0405 0.9888 0.9849 0.932 0.9035 0.8889 0.8499
2150.810 0.8267 0.7694 0.7972 0.8357 0.7634 0.7314 0.7795 0.7444 0.7371 0.7842
2170.100 0.7915 0.7655 0.6889 0.6141 0.6077 0.6011 0.5468 0.543 0.554 0.5487
2189.390 0.5164 0.46347 0.5067 0.5805 0.5624 0.5418 0.5552 0.5891 0.606 0.5695
2208.680 0.5439 0.5516 0.5984 0.641 0.6641 0.6563 0.6562 0.7025 0.7142 0.7372
2227.970 0.7564 0.7964 0.9334 1.0342 1.0531 1.1263 1.2376 1.334 1.423 1.533
2247.259 1.633 1.713 1.803 1.903 1.863 1.823 1.813 1.793 1.693 1.523
2266.549 1.433 1.3241 1.163 1.1073 1.1721 1.0974 0.9784 0.929 0.8567 0.7922
2285.839 0.7912 0.7983 0.8028 0.837 0.7965 0.7378 0.7462 0.7469 0.7585 0.801
2305.129 0.8312 0.8775 0.8392 0.7972 0.8176 0.8104 0.821 0.8292 0.8142 0.8671
2324.418 0.8828 0.8772 0.9405 0.9815 1.0028 0.9682 0.9106 0.8928 0.9379 0.9747
2343.708 1.0227 1.0553 1.0795 1.1135 1.0852 1.014 0.9983 1.0778 1.0705 0.9917
2362.998 0.9258 0.8483 0.7996 0.7665 0.7268 0.7538 0.7291 0.6546 0.6748 0.6532
2382.288 0.6023 0.6326 0.6498 0.6392 0.6047 0.5134 0.4871 0.5337 0.5249 0.5038
2401.578 0.5435 0.4904 0.44842 0.46247 0.5486 0.6137 0.5234 0.46924 0.5108 0.5111
2420.867 0.5127 0.5846 0.5525 0.5328 0.5209 0.5872 0.6754 0.6818 0.6725 0.6153
2440.157 0.6066 0.5997 0.6087 0.6353 0.603 0.664 0.703 0.6518 0.6739 0.6764
2459.447 0.6578 0.737 0.7406 0.6904 0.6638 0.6947 0.7554 0.6892 0.7089 0.7596
2478.737 0.7625 0.7302 0.7292 0.8032 0.8334 0.8241 0.8186 0.8061 0.8407 0.9254
2498.026 0.9532 0.8989 0.8689 0.9532 1.0388 1.0905 1.1578 1.1913 1.228 1.2668
2517.316 1.2888 1.3088 1.3192 1.383 1.463 1.573 1.693 1.733 1.793 1.873
2536.606 1.943 1.983 1.953 1.933 1.943 1.953 2.003 2.003 2.043 2.073
2555.896 2.053 2.023 1.893 1.843 1.833 1.753 1.663 1.523 1.433 1.403
2575.186 1.413 1.3653 1.346 1.383 1.2951 1.2406 1.2694 1.2995 1.2688 1.1566
2594.475 1.1243 1.1548 1.1109 1.1474 1.1861 1.0787 1.0419 1.063 1.0556 1.0098
2613.765 1.0092 0.9838 0.9932 0.961 0.8798 0.8651 0.8768 0.8489 0.8042 0.86
2633.055 0.8519 0.8054 0.7554 0.7594 0.8044 0.7695 0.7569 0.7537 0.6695 0.6127
2652.345 0.6346 0.6105 0.5588 0.5428 0.44609 0.40804 0.5328 0.5772 0.5087 0.46549
2671.634 0.4915 0.5394 0.5714 0.6567 0.7113 0.6221 0.5795 0.5497 0.5524 0.6341
2690.924 0.6324 0.5775 0.6446 0.6224 0.5971 0.6308 0.5924 0.6223 0.6581 0.7086
2710.214 0.6637 0.6737 0.7933 0.8144 0.7214 0.6888 0.747 0.7835 0.7801 0.8371
2729.504 0.9115 0.9009 0.9528 1.0623 1.0152 0.9775 0.9813 0.8876 0.9461 0.9721
2748.794 0.9056 0.9339 1.0086 1.1042 1.1235 1.1012 1.1231 1.0352 0.9794 1.0169
2768.083 1.0649 1.0981 1.1008 1.1743 1.1885 1.1685 1.1923 1.272 1.3034 1.3312
2787.373 1.383 1.369 1.3467 1.3594 1.483 1.563 1.583 1.673 1.763 1.833
2806.663 1.943 2.083 2.223 2.313 2.453 2.703 3.003 3.233 3.543 3.943
2825.953 4.313 4.803 5.293 5.963 6.833 7.793 8.883 10.053 11.213 12.173
2845.242 12.683 12.963 12.963 12.663 12.163 11.233 10.073 8.993 8.083 7.213
2864.532 6.523 5.993 5.563 5.203 4.893 4.743 4.613 4.533 4.593 4.733
2883.822 4.863 4.873 4.983 5.283 5.623 6.043 6.443 6.823 7.363 7.893
2903.112 8.353 8.803 9.303 9.723 10.153 10.723 11.153 11.403 11.673 11.943
2922.401 12.243 12.623 13.063 13.543 14.193 14.963 15.893 16.823 17.713 18.773
2941.691 19.883 20.823 21.483 22.033 22.443 22.353 21.983 21.383 20.473 19.463
2960.981 18.493 17.753 17.013 16.123 15.193 14.213 13.223 12.123 11.123 10.213
2980.271 9.293 8.593 8.033 7.593 7.273 7.153 7.193 7.283 7.363 7.623
2999.561 8.023 8.503 9.293 10.263 11.423 12.593 13.713 14.673 14.933 14.703
3018.850 14.133 13.153 11.863 10.513 9.443 8.523 7.853 7.523 7.353 7.393
3038.140 7.453 7.413 7.373 7.283 7.133 6.813 6.433 6.223 5.893 5.443
3057.430 5.193 4.893 4.503 4.283 4.093 3.933 3.913 3.983 4.093 4.093
3076.720 4.083 4.133 4.073 4.073 4.023 3.903 3.903 3.723 3.423 3.233
3096.009 3.043 2.933 2.873 2.743 2.503 2.283 2.183 2.043 1.893 1.833
3115.299 1.723 1.583 1.473 1.403 1.3702 1.2416 1.2195 1.2144 1.1917 1.1563
3134.589 1.0277 0.8901 0.8274 0.9919 1.0746 1.0423 1.0387 0.9883 0.9829 0.9188
3153.879 0.8286 0.8345 0.8303 0.9236 0.9967 0.9063 0.8465 0.8419 0.8227 0.7542
3173.169 0.786 0.8881 0.893 0.8274 0.8545 0.949 0.9123 0.8119 0.7476 0.8341
3192.458 0.9273 0.8671 0.8786 0.839 0.8662 0.9067 0.7851 0.728 0.6957 0.7142
3211.748 0.6819 0.6757 0.7059 0.6474 0.5075 0.45553 0.4895 0.5113 0.5975 0.519
3231.038 0.40426 0.38577 0.42778 0.5026 0.3571 0.183 0.231 0.253 0.235 0.3564
3250.328 0.41332 0.36356 0.3352 0.3413 0.44548 0.44084 0.37758 0.36561 0.3105 0.259
3269.617 0.315 0.3222 0.4123 0.47281 0.2966 0.269 0.187 0.156 0.268 0.296
3288.907 0.221 0.097 0.164 0.266 0.179 0.188 0.3131 0.3169 0.373755 0.41431
3308.197 0.3124 0.2736 0.229 0.22 0.215 0.196 0.245 0.278 0.375009 0.39966
3327.487 0.3265 0.261 0.195 0.137 0.128 0.261 0.38458 0.2929 0.207 0.106
3346.777 0.032 0.208 0.3245 0.297 0.2927 0.255 0.268 0.3173 0.257 0.239
3366.066 0.15 0.078 0 0.007 0.232 0.259 0.178 0.183 0.2868 0.24
3385.356 0.124 0.123 0.092 0.127 0.259 0.2888 0.3323 0.334 0.244 0.263
3404.646 0.321 0.36982 0.42739 0.3099 0.066 0.082 0.228 0.218 0.213 0.224
3423.936 0.131 0.243 0.38457 0.4197 0.39656 0.188 0.084 0.121 0.136 0.08
3443.225 0.142 0.215 0.149 0.212 0.24 0.202 0.27 0.152 0.101 0.3187
3462.515 0.165 0.043 0.11 0.139 0.195 0.186 0.161 0.221 0.2905 0.351
3481.805 0.38584 0.2873 0.231 0.174 0.134 0.172 0.3588 0.3225 0.159 0.272
3501.095 0.2802 0.193 0.273 0.267 0.256 0.293 0.233 0.148 0.037 0.021
3520.385 0.219 0.376376 0.43522 0.45974 0.3059 0.2809 0.278 0.257 0.2963 0.2797
3539.674 0.3389 0.46291 0.3615 0.2923 0.2926 0.251 0.253 0.216 0.266 0.3069
3558.964 0.3197 0.2998 0.2958 0.3025 0.232 0.254 0.38519 0.3482 0.2828 0.36936
3578.254 0.3457 0.2854 0.241 0.266 0.265 0.2982 0.3191 0.269 0.202 0.255
3597.544 0.41477 0.3263 0.221 0.216 0.23 0.3194 0.3035 0.3463 0.44055 0.3017
3616.833 0.189 0.175 0.24 0.198 0.149 0.239 0.2925 0.2897 0.231 0.092
3636.123 0.094 0.201 0.245 0.39306 0.41829 0.248 0.159 0.239 0.18 0.067
3655.413 0.227 0.259 0.137 0.116 0.183 0.089 0.108 0.2782 0.42646 0.45363
3674.703 0.42831 0.4791 0.3217 0.139 0.176 0.256 0.226 0.2911 0.2733 0.2
3693.993 0.277 0.259 0.3132 0.41526 0.39008 0.3467 0.3053 0.41018 0.44181 0.36303
3713.282 0.377515 0.39909 0.41018 0.3319 0.234 0.3166 0.38689 0.378222 0.323 0.3471
3732.572 0.42802 0.39123 0.3402 0.297 0.3516 0.380459 0.3567 0.2948 0.3271 0.276
3751.862 0.263 0.3388 0.3465 0.372095 0.3312 0.45056 0.475 0.5059 0.478 0.382238
3771.152 0.37084 0.3407 0.36739 0.2945 0.166 0.203 0.39676 0.40087 0.237 0.255
3790.441 0.233 0.222 0.3501 0.36821 0.318 0.2993 0.41003 0.44993 0.39436 0.40309
3809.731 0.42438 0.45884 0.44816 0.39531 0.380524 0.373713 0.3198 0.2871 0.342 0.3207
3829.021 0.261 0.3569 0.43724 0.4076 0.38951 0.3241 0.2884 0.46821 0.41735 0.3199
3848.311 0.3492 0.238 0.2936 0.40494 0.40154 0.3607 0.2925 0.38423 0.5992 0.5957
3867.601 0.4945 0.5889 0.5155 0.44257 0.43825 0.244 0.268 0.46148 0.5192 0.5436
3886.890 0.6148 0.5943 0.40565 0.3517 0.4808 0.47125 0.23 0.202 0.358 0.3465
3906.180 0.3105 0.45671 0.6708 0.529 0.309 0.3387 0.43659 0.46549 0.45974 0.3538
3925.470 0.2753 0.244 0.244 0.3095 0.325 0.2849 0.2985 0.3151 0.2835 0.38728
3944.760 0.47092 0.5011 0.44628 0.2818 0.3591 0.39255 0.3667 0.39347 0.45448 0.4826
3964.049 0.42723 0.42939 0.44038 0.4023 0.2767 0.25 0.3602 0.5123 0.39561 0.3443
3983.339 0.46942 0.503 0.47175 0.38363 0.4648 0.5753 0.6427 0.5956 0.5051 0.5528
##END=
