##TITLE=4-Chlorophenyl phosphorodichloridate
##JCAMP-DX=4.24
##DATA TYPE=INFRARED SPECTRUM
##ORIGIN=EPA-IR VAPOR PHASE LIBRARY
##OWNER=SRD/NIST
Collection (C) 2018 copyright by the U.S. Secretary of Commerce
on behalf of the United States of America. All rights reserved.
##CAS REGISTRY NO=772-79-2
##MOLFORM=C 6 H 4 Cl 3 O 2 P
##$NIST SOURCE=MSDC-IR
##STATE=gas
##XUNITS=1/CM
##YUNITS=ABSORBANCE
##XFACTOR=1.
##YFACTOR=0.001
##DELTAX=1.92934
##FIRSTX=549.9
##LASTX=3999.5
##FIRSTY=145.91
##MAXX=3999.53
##MINX=549.863
##MAXY=0.63774
##MINY=0
##NPOINTS=1789
##XYDATA=(X++(Y..Y))
549.863 145.91 168.17 186.69 197.68 199.92 195.08 184.93 171.85 159 148.85
569.156 142.74 140.59 142.35 147.53 155.95 167.65 182.33 199.41 218.18 237.82
588.450 257.4 276.27 294.14 310.59 325.01 336.17 342.05 340.33 330.36 313.07
607.743 290.27 265.64 244.11 228.88 220.33 217.07 217.19 218.68 219.3 217.49
627.037 213.52 208.29 202.24 196.31 190.58 182.67 171.08 156.15 137.53 115.8
646.330 94.81 78.04 65.66 56.26 48.9 42.88 37.8 33.58 30.07 27.13
665.624 24.8 22.83 21.26 20.16 19.38 18.75 18.26 18.03 17.86 17.7
684.917 17.63 17.62 17.74 18.15 18.96 20.19 21.36 21.9 21.86 21.43
704.210 20.43 18.94 17.58 16.65 16.07 15.63 15.24 14.93 14.58 14.18
723.504 13.77 13.43 13.17 13.04 13 13.04 13.21 13.48 13.85 14.37
742.797 15.12 16.07 17.29 18.95 21.16 24.12 28.28 34.12 42.27 53.22
762.091 66.91 81.97 95.6 104.47 106.29 100.64 88.07 70.37 51.91 37.52
781.384 28.59 23.47 20.33 18.36 17.12 16.35 16.06 16.13 16.55 17.49
800.678 18.92 20.95 23.67 26.95 31.02 36.15 42.56 50.46 60.02 71.3
819.971 84.02 97.38 110.47 122.28 131.72 137.49 138.46 133.99 124.31 111.27
839.264 96.82 82.15 68.31 56.12 45.98 37.92 31.69 26.91 23.3 20.6
858.558 18.74 17.56 16.91 16.73 16.9 17.33 18.07 19.07 20.26 21.64
877.851 23.09 24.52 25.87 27.03 27.99 28.79 29.53 30.32 31.28 32.54
897.145 34.17 36.29 38.92 42.07 45.84 50.23 55.36 61.24 67.89 75.7
916.438 85.19 97.09 112.28 131.82 156.86 187.7 222.96 259.41 294.78 331.42
935.732 374.47 427.21 489.48 555.35 610.08 637.74 632.27 595.57 534.77 462.89
955.025 392.86 331.37 279.13 234.68 196.75 164.65 137.7 115.28 97.12 82.87
974.318 72.05 63.83 57.29 51.89 47.29 43.44 40.25 37.74 35.88 34.58
993.612 33.72 33.11 32.6 32.33 32.61 34.11 38.14 47.09 63.73 86.9
1012.905 106.41 112.5 109.57 101.96 83.16 55.63 34.02 23.2 18.41 16.04
1032.199 14.58 13.6 12.92 12.45 12.11 11.9 11.79 11.72 11.73 11.82
1051.492 11.95 12.1 12.3 12.57 12.91 13.44 14.14 15.02 16.13 17.46
1070.786 18.94 20.63 22.75 25.63 29.93 36.81 48.17 66.81 95.59 135.02
1090.079 179.91 218.11 238.25 238.37 219.25 178.73 126.63 84.07 59.48 46.83
1109.372 39.57 34.75 31.22 28.55 26.47 24.84 23.63 22.78 22.24 21.95
1128.666 21.9 22.02 22.31 22.86 23.62 24.57 25.81 27.36 29.44 32.29
1147.959 36.47 42.81 52.58 68.15 93.02 129.93 174.85 212.35 229.1 229.31
1167.253 217.82 189.6 152.37 127.35 124.57 142.14 177.36 229.49 297.81 379.53
1186.546 467.77 549.81 609.44 634.95 623.97 579.13 508.5 429.31 357.8 299.52
1205.840 253.05 216.22 188.23 168.99 157.31 150.5 144.79 137.34 127.36 114.73
1225.133 99.75 84.13 70.66 60.83 54.17 49.65 46.4 43.97 42.04 40.44
1244.426 39.07 37.76 36.63 35.65 34.76 33.93 33.11 32.32 31.51 30.69
1263.720 29.79 28.8 27.79 26.84 26.01 25.32 24.75 24.43 24.4 24.59
1283.013 25.02 25.8 27.04 28.77 31.1 34.13 38.15 43.47 50.5 59.63
1302.307 71.37 86.18 104.32 125.79 150.22 176.85 204.23 230.42 253.48 271.35
1321.600 282.2 285.27 281.48 272.47 259.32 242.95 223.91 202.34 177.99 151.42
1340.894 124.34 99.01 76.8 59.03 46.22 37.58 31.77 27.74 24.91 22.83
1360.187 21.22 19.82 18.58 17.54 16.61 15.8 15.16 14.59 14.13 13.82
1379.480 13.6 13.41 13.23 13.07 12.92 12.82 12.74 12.68 12.71 12.87
1398.774 13.02 13.07 13.09 13.02 12.9 12.8 12.68 12.65 12.79 13.2
1418.067 14 15.41 17.34 19.71 22.28 24.54 26.09 26.67 26.23 24.85
1437.361 22.92 21.07 19.66 18.86 18.65 18.85 19.32 19.95 20.83 21.91
1456.654 23.38 25.33 27.78 31.01 35.55 41.94 50.99 64.17 84.21 114.3
1475.948 157.23 218.35 297.85 393.22 486.41 549.16 560.48 525.58 453.35 351.41
1495.241 239.59 150.1 97.55 69.45 54.24 45.28 39.06 34.52 31.2 28.4
1514.534 26.02 24.01 22.41 21.17 20.24 19.6 19.04 18.46 17.85 17.03
1533.828 16 14.98 14.01 13.14 12.52 12.11 11.8 11.66 11.68 11.75
1553.121 11.84 12.02 12.2 12.39 12.78 13.25 13.77 14.38 15.09 16.01
1572.415 17.2 18.59 20.33 22.46 24.68 26.84 28.62 29.58 29.45 28.08
1591.708 25.56 22.33 18.97 16.02 13.76 12.1 10.95 10.22 9.73 9.43
1611.002 9.33 9.31 9.33 9.38 9.56 9.79 9.97 10.25 10.61 10.98
1630.295 11.38 11.72 11.89 12.05 12.08 11.91 11.59 11.1 10.46 9.76
1649.588 9.16 8.53 7.94 7.6466 7.4087 7.1452 6.8673 6.588 6.462 6.327
1668.882 6.124 5.997 5.96 5.87 5.863 5.973 6.02 6.076 6.192 6.406
1688.175 6.70149 7.0076 7.3019 7.548 7.84 8.18 8.51 8.87 9.16 9.43
1707.469 9.7 9.94 10.17 10.25 10.2 10.16 10.07 9.82 9.43 9.03
1726.762 8.68 8.36 8.1 7.83 7.6364 7.6811 7.81 8.03 8.32 8.76
1746.056 9.27 9.78 10.24 10.63 10.83 10.66 10.26 9.71 9.05 8.46
1765.349 7.99 7.6811 7.4687 7.3605 7.3504 7.4347 7.568 7.6808 7.81 7.94
1784.642 8.09 8.27 8.41 8.46 8.47 8.53 8.55 8.54 8.52 8.51
1803.936 8.51 8.5 8.5 8.51 8.58 8.66 8.7 8.76 8.84 8.91
1823.229 8.9 8.83 8.74 8.58 8.38 8.16 7.88 7.6085 7.3393 7.1252
1842.523 7.04 7.0328 7.0636 7.1719 7.4143 7.73 8.03 8.42 8.93 9.44
1861.816 9.98 10.57 11.14 11.67 12.25 12.78 13.26 13.7 14.06 14.28
1881.110 14.38 14.31 14.05 13.65 13.1 12.43 11.7 10.9 10.16 9.5
1900.403 8.92 8.44 8 7.6458 7.3632 7.1058 6.8646 6.6507 6.508 6.432
1919.696 6.374 6.387 6.481 6.6383 6.8745 7.1049 7.2594 7.381 7.4151 7.3511
1938.990 7.2166 7.0461 6.8986 6.8575 6.9625 7.2154 7.5782 8 8.48 8.94
1958.283 9.34 9.63 9.78 9.7 9.41 8.98 8.42 7.81 7.2633 6.7996
1977.577 6.41 6.146 5.949 5.773 5.64 5.52 5.4 5.31 5.22 5.14
1996.870 5.03 4.9 4.84 4.75 4.64 4.61 4.58 4.58 4.57 4.57
2016.164 4.62 4.62 4.63 4.63 4.63 4.64 4.63 4.63 4.61 4.51
2035.457 4.47 4.45 4.38 4.29 4.21 4.16 4.09 4.03 4.01 3.97
2054.750 3.94 3.94 3.9 3.86 3.87 3.86 3.84 3.81 3.8 3.8
2074.044 3.8 3.79 3.77 3.8 3.82 3.82 3.85 3.88 3.91 3.91
2093.337 3.91 3.93 3.93 3.97 4 3.97 3.94 3.93 3.92 3.94
2112.631 3.96 3.95 3.91 3.91 3.91 3.88 3.86 3.88 3.87 3.84
2131.924 3.79 3.76 3.74 3.75 3.73 3.69 3.69 3.71 3.71 3.68
2151.218 3.65 3.67 3.64 3.63 3.65 3.65 3.65 3.69 3.72 3.69
2170.511 3.72 3.8 3.84 3.85 3.84 3.84 3.87 3.85 3.78 3.75
2189.804 3.74 3.72 3.7 3.69 3.71 3.75 3.77 3.74 3.76 3.81
2209.098 3.81 3.81 3.82 3.84 3.85 3.85 3.85 3.87 3.87 3.87
2228.391 3.86 3.9 3.95 4 4.06 4.14 4.27 4.43 4.61 4.78
2247.685 5.01 5.28 5.51 5.699 5.814 5.9 5.899 5.807 5.66 5.49
2266.978 5.32 5.19 5.09 4.99 4.92 4.85 4.78 4.71 4.65 4.61
2286.272 4.56 4.54 4.48 4.39 4.34 4.32 4.27 4.26 4.26 4.25
2305.565 4.26 4.23 4.19 4.17 4.21 4.22 4.22 4.25 4.23 4.27
2324.858 4.33 4.29 4.26 4.26 4.23 4.23 4.27 4.32 4.43 4.55
2344.152 4.71 4.89 5.05 5.16 5.2 5.21 5.16 5.08 4.98 4.88
2363.445 4.81 4.72 4.7 4.75 4.78 4.86 4.96 5.03 5.05 5.04
2382.739 5.02 4.99 4.92 4.85 4.75 4.62 4.56 4.51 4.38 4.3
2402.032 4.27 4.24 4.16 4.08 4.03 4 3.99 3.97 3.92 3.85
2421.326 3.83 3.82 3.78 3.72 3.74 3.76 3.71 3.67 3.64 3.61
2440.619 3.6 3.59 3.56 3.51 3.47 3.46 3.5 3.54 3.48 3.43
2459.912 3.46 3.5 3.51 3.47 3.47 3.49 3.46 3.45 3.44 3.43
2479.206 3.46 3.43 3.4 3.4 3.42 3.47 3.47 3.44 3.45 3.43
2498.499 3.43 3.45 3.43 3.44 3.5 3.49 3.45 3.46 3.46 3.43
2517.793 3.42 3.4 3.39 3.4 3.39 3.39 3.42 3.48 3.52 3.49
2537.086 3.48 3.51 3.54 3.55 3.54 3.55 3.59 3.59 3.6 3.66
2556.380 3.69 3.69 3.69 3.66 3.66 3.68 3.65 3.63 3.61 3.59
2575.673 3.59 3.54 3.47 3.4 3.34 3.31 3.24 3.21 3.21 3.16
2594.966 3.13 3.12 3.15 3.15 3.13 3.13 3.13 3.15 3.16 3.2
2614.260 3.27 3.26 3.3 3.37 3.42 3.5 3.55 3.53 3.52 3.5
2633.553 3.47 3.43 3.41 3.37 3.34 3.33 3.34 3.37 3.38 3.41
2652.847 3.38 3.31 3.24 3.15 3.11 3.1 3.05 3.04 3.07 3.06
2672.140 3.05 3.04 3.09 3.11 3 3.01 3.03 2.94 2.85 2.8
2691.434 2.77 2.72 2.69 2.66 2.63 2.63 2.62 2.59 2.52 2.48
2710.727 2.45 2.41 2.37 2.36 2.34 2.28 2.33 2.38 2.44 2.43
2730.020 2.33 2.26 2.27 2.3 2.31 2.26 2.22 2.21 2.22 2.25
2749.314 2.27 2.26 2.23 2.21 2.23 2.24 2.23 2.19 2.22 2.32
2768.607 2.34 2.38 2.46 2.54 2.52 2.44 2.4 2.39 2.38 2.28
2787.901 2.2 2.18 2.21 2.22 2.23 2.27 2.21 2.12 2.16 2.2
2807.194 2.22 2.25 2.25 2.27 2.36 2.52 2.6 2.64 2.67 2.72
2826.488 2.75 2.82 2.95 2.99 3.05 3.16 3.24 3.37 3.44 3.4
2845.781 3.28 3.11 2.91 2.67 2.53 2.41 2.24 2.16 2.03 1.91
2865.074 1.86 1.74 1.65 1.62 1.66 1.65 1.58 1.53 1.57 1.61
2884.368 1.55 1.51 1.44 1.4 1.42 1.37 1.32 1.3 1.26 1.26
2903.661 1.27 1.32 1.31 1.17 1.1 1.12 1.1 1.06 1.07 1.12
2922.955 1.18 1.17 1.2 1.12 1.02 1.05 1.07 1.07 1.01 1.02
2942.248 1.07 1.09 1.02 0.96 0.91 0.81 0.74 0.69 0.7 0.71
2961.542 0.72 0.69 0.57 0.57 0.64 0.62 0.61 0.69 0.77 0.85
2980.835 0.86 0.74 0.63 0.63 0.65 0.69 0.8 0.83 0.92 1.01
3000.128 0.96 0.89 0.87 0.91 0.96 0.86 0.86 1 1.01 0.92
3019.422 0.88 0.85 0.86 0.92 1.02 1.14 1.18 1.32 1.52 1.6
3038.715 1.69 1.84 2.04 2.2 2.18 2.2 2.13 2.05 2.02 2
3058.009 2.02 2.04 2.18 2.2 2.3 2.57 2.8 3.07 3.26 3.39
3077.302 3.47 3.42 3.48 3.61 3.66 3.72 3.75 3.81 3.87 3.99
3096.596 4.13 4.08 3.98 3.75 3.36 2.95 2.61 2.18 1.78 1.52
3115.889 1.36 1.24 1.05 0.9 0.75 0.7 0.7 0.71 0.67 0.51
3135.182 0.45 0.49 0.49 0.47 0.47 0.44 0.38 0.38 0.41 0.32
3154.476 0.31 0.32 0.36 0.39 0.38 0.36 0.29 0.23 0.25 0.32
3173.769 0.33 0.27 0.19 0.25 0.26 0.2 0.24 0.18 0.16 0.19
3193.063 0.2 0.19 0.1 0.03 0.07 0.16 0.19 0.2 0.19 0.19
3212.356 0.18 0.16 0.09 0 0.08 0.17 0.2 0.18 0.17 0.09
3231.650 0.12 0.2 0.09 0 0.03 0.15 0.14 0.02 0.04 0.07
3250.943 0.04 0.12 0.2 0.25 0.21 0.13 0.18 0.21 0.2 0.26
3270.236 0.33 0.28 0.3 0.38 0.39 0.4 0.41 0.4 0.41 0.38
3289.530 0.33 0.31 0.35 0.45 0.43 0.41 0.41 0.48 0.47 0.39
3308.823 0.37 0.38 0.51 0.62 0.63 0.58 0.6 0.7 0.63 0.57
3328.117 0.54 0.6 0.67 0.54 0.58 0.62 0.65 0.72 0.66 0.65
3347.410 0.66 0.72 0.76 0.78 0.84 0.81 0.81 0.72 0.71 0.83
3366.704 0.86 0.84 0.84 0.9 0.93 0.93 0.86 0.87 0.99 1.01
3385.997 1.14 1.22 1.1 1.03 0.96 1.02 1.04 0.98 1.13 1.21
3405.290 1.24 1.26 1.2 1.18 1.18 1.27 1.29 1.25 1.33 1.31
3424.584 1.24 1.32 1.35 1.29 1.31 1.44 1.49 1.42 1.53 1.63
3443.877 1.56 1.51 1.51 1.46 1.47 1.66 1.77 1.71 1.69 1.72
3463.171 1.78 1.73 1.67 1.77 1.81 1.72 1.74 1.85 1.85 1.84
3482.464 1.84 1.84 1.99 2.03 1.91 1.92 1.96 1.94 1.96 2.02
3501.758 2.07 2.03 2.02 2.06 2.07 2.06 2.02 2.06 2.08 2.12
3521.051 2.23 2.17 2.14 2.18 2.11 2.19 2.21 2.23 2.29 2.37
3540.344 2.42 2.33 2.28 2.26 2.26 2.21 2.27 2.33 2.37 2.43
3559.638 2.5 2.54 2.54 2.51 2.4 2.41 2.54 2.66 2.55 2.5
3578.931 2.62 2.59 2.54 2.58 2.57 2.57 2.65 2.62 2.57 2.62
3598.225 2.73 2.75 2.65 2.61 2.68 2.68 2.66 2.76 2.82 2.76
3617.518 2.77 2.76 2.77 2.83 2.76 2.74 2.78 2.79 2.81 2.89
3636.812 2.9 2.94 2.97 2.93 2.92 2.87 2.77 2.79 2.97 3.11
3656.105 3.11 3.09 3.14 3.2 3.19 3.13 3.16 3.1 3.11 3.12
3675.398 3.07 3.2 3.35 3.32 3.33 3.33 3.18 3.17 3.24 3.28
3694.692 3.36 3.35 3.3 3.32 3.32 3.28 3.29 3.31 3.28 3.29
3713.985 3.37 3.45 3.49 3.47 3.53 3.56 3.55 3.62 3.68 3.64
3733.279 3.59 3.54 3.49 3.52 3.44 3.36 3.34 3.33 3.31 3.31
3752.572 3.31 3.32 3.33 3.32 3.3 3.31 3.39 3.4 3.35 3.37
3771.866 3.34 3.31 3.29 3.24 3.26 3.34 3.34 3.31 3.28 3.28
3791.159 3.31 3.38 3.28 3.21 3.31 3.3 3.28 3.35 3.39 3.42
3810.452 3.48 3.47 3.4 3.35 3.4 3.44 3.49 3.51 3.42 3.43
3829.746 3.47 3.44 3.4 3.38 3.39 3.42 3.49 3.52 3.54 3.61
3849.039 3.6 3.51 3.4 3.43 3.59 3.66 3.68 3.62 3.57 3.62
3868.333 3.66 3.63 3.7 3.7 3.68 3.62 3.57 3.58 3.55 3.5
3887.626 3.43 3.44 3.49 3.55 3.53 3.52 3.5 3.44 3.42 3.42
3906.920 3.47 3.53 3.52 3.45 3.4 3.38 3.37 3.36 3.38 3.43
3926.213 3.44 3.47 3.51 3.48 3.49 3.52 3.48 3.5 3.48 3.39
3945.506 3.41 3.44 3.39 3.39 3.43 3.44 3.5 3.48 3.51 3.55
3964.800 3.45 3.48 3.51 3.51 3.47 3.4 3.45 3.44 3.48 3.47
3984.093 3.4 3.42 3.45 3.44 3.41 3.5 3.55 3.5 3.56
##END=
