##TITLE=2-Fluoro-4-(trifluoromethyl)phenol
##JCAMP-DX=4.24
##DATA TYPE=INFRARED SPECTRUM
##ORIGIN=EPA-IR VAPOR PHASE LIBRARY
##OWNER=SRD/NIST
Collection (C) 2018 copyright by the U.S. Secretary of Commerce
on behalf of the United States of America. All rights reserved.
##CAS REGISTRY NO=77227-78-2
##MOLFORM=C 7 H 4 F 4 O
##$NIST SOURCE=MSDC-IR
##STATE=gas
##XUNITS=1/CM
##YUNITS=ABSORBANCE
##XFACTOR=1.
##YFACTOR=0.001
##DELTAX=1.92898
##FIRSTX=549.8
##LASTX=4000.7
##FIRSTY=8.18
##MAXX=4000.7
##MINX=549.759
##MAXY=1.30993
##MINY=0
##NPOINTS=1790
##XYDATA=(X++(Y..Y))
549.759 8.18 9.04 9.46 10.57 11.33 11.64 11.52 11.08 11.6 11.96
569.049 10.94 10.1 9.37 8.04 6.66 6.57 7.54 8.82 11.02 14.8
588.339 21.35 28.71 32.99 35.25 37.92 39.59 40.08 38.52 34.25 28.61
607.628 24.67 23.61 24.36 27.26 33.36 45.11 62.26 81.35 95.53 100.76
626.918 102.34 101.51 99.23 94.52 83.44 69.07 56.69 48.59 44.53 43.38
646.208 44.12 47.14 47.47 41.85 35.27 30.76 27.85 25.08 22.12 19.49
665.498 17.27 15.29 13.7 12.3 11.19 10.79 10.61 10.71 10.45 10.12
684.787 10.25 10.13 9.87 9.6 8.85 7.93 7.3 7.42 7.62 7.55
704.077 7.62 7.78 8.13 8.95 9.76 10.15 11.11 12.86 14.22 14.38
723.367 14.44 14.69 16.06 19.13 23.91 33.01 46.8 62.4 74.31 80.2
742.657 84.3 87.02 89.23 88.23 77.82 61.77 48.05 39.92 35.16 32.21
761.947 30 28.14 27.6 29.09 33.25 41.44 56.24 78.3 103.61 125.34
781.236 137.7 141.34 140.98 136.96 128.76 110.88 82.91 56.89 40.91 34.17
800.526 33.36 35.66 39.16 43.76 49.14 55.25 61.2 67.12 72.73 77.54
819.816 81.75 86.84 95.28 104.33 102.57 87.5 74.54 68.2 62.38 55.28
839.106 47.65 39.88 32.54 26.37 21.96 19.13 17.28 16.54 16.83 18.24
858.395 21.08 25.75 32.13 39.46 47.93 57.23 66.38 75.46 84.21 94.3
877.685 108.77 123.96 122.18 106.67 97.36 93 89.33 87.02 86.9 89.53
896.975 97.34 111.45 128.95 145.66 157.16 164.61 171.49 176.72 176.15 164.48
916.265 143.25 119.8 99 82.56 67.75 53.38 41.96 33.66 27.14 22.62
935.555 19.17 16.19 14.18 12.38 11.03 10.29 9.59 8.81 8.23 7.95
954.844 7.88 7.4 6.78 6.66 6.9 7.16 7.3 7.15 7.02 7.19
974.134 7.04 6.73 6.89 7.03 6.63 6.31 5.75 5.65 6.04 5.99
993.424 5.87 6.49 7.11 6.99 7.02 7.7 8.33 8.32 9.21 10.61
1012.714 11.27 11.2 11.2 10.98 11.44 12.19 11.53 11.72 11.82 11.5
1032.003 12.25 13.74 15.03 16.51 18.84 21.33 25.75 32.03 39.46 51.35
1051.293 68.46 88.88 110.41 129.99 145.36 155.93 161.85 163.25 157.3 140.26
1070.583 115.31 90.43 70.99 57.9 50.69 46.54 43.5 42.72 43.41 45.28
1089.873 49.38 56.22 65.59 76.91 91.24 109.56 130.08 152.97 177.22 199.85
1109.163 221.74 241.18 258.05 273.83 288.38 304.27 318.7 331.82 346.5 365.77
1128.452 393.09 428.08 473 523.12 580.55 650.15 727.94 808.08 878.53 915.79
1147.742 902.84 855.39 802.45 753.35 701.58 649.94 610.36 588.11 591.18 623.27
1167.032 667.71 708.66 721.06 702.67 667.28 615.87 556.53 488.8 423.93 369.45
1186.322 322.18 280.53 247.88 228.77 223.8 233.12 253.9 291.13 348.18 424.9
1205.611 516.43 608.84 686.97 737.32 762.76 763.39 748.95 718.07 652.52 563.21
1224.901 473.87 396.37 334.85 286.5 246.71 211.59 181.92 159.12 142.91 133.7
1244.191 130.36 130.88 133.07 137.37 142.92 148.72 153.89 155.97 154.77 152.09
1263.481 150.11 150.43 152.11 153.36 153.16 151.14 149.38 150.03 154.37 162.04
1282.771 172.02 184.49 198.23 209.66 216.49 219.34 219.26 216.22 209.99 201
1302.060 192.33 191.53 205.38 238.9 297.83 388.64 516.04 677.27 859.15 1037
1321.350 1181.11 1272.23 1309.93 1299.71 1243.86 1137.48 975.73 769.86 559.83 396.44
1340.640 293.95 235.9 200.88 176.95 159.63 147 138.4 133.91 134.06 138.87
1359.930 147.09 157.45 168.66 178.78 186.17 188.53 183.82 172.26 155.07 135.17
1379.219 114.58 93.81 74.86 60.53 51.32 45.96 42.57 40.3 39.04 38.45
1398.509 38.59 39.54 40.95 43.21 46.9 52.28 58.76 65.22 71.38 77.29
1417.799 82.85 88.36 94.25 101.3 110.67 123.5 141.71 166.48 198.18 233.89
1437.089 269.87 298.67 314.83 317.83 311.17 297.06 271.76 233.34 183.62 135.56
1456.378 98.88 75.11 61 51.24 44.17 38.25 33.45 29.9 26.84 24.24
1475.668 22.19 20.35 19.01 17.9 17.21 16.69 16.64 17.35 18.46 20.03
1494.958 22.6 26.5 31.97 39.7 50.37 65 85.5 111.48 141.64 175.08
1514.248 207.51 234.64 254 264.93 270.1 270.42 263.92 249.32 227.03 202.1
1533.538 180.16 162.64 147.9 132.14 113.15 92.63 74.45 60.34 49.99 42.98
1552.827 38.24 34.72 32.41 30.29 28.19 26.24 23.89 21.94 20.41 19.24
1572.117 18.64 18.71 19.66 20.85 22.09 23.77 25.93 28.67 31.76 35.09
1591.407 38.86 43.3 48.65 55.11 62.98 71.48 79.59 87.04 93.94 100.15
1610.697 105.79 111.37 116.6 121.78 126.73 132.16 137.72 142.18 144.54 143.97
1629.986 140.05 132.2 120.77 106.26 91.72 79.42 68.66 59.69 52.57 47
1649.276 43.06 40.96 39.35 37.49 35.37 32.97 29.92 26 21.92 17.97
1668.566 14.61 11.86 9.7 8.42 7.64 7.22 6.9 6.74 6.68 6.48
1687.856 6.19 6.14 6.17 6.16 6.06 5.83 5.69 5.44 5.38 5.49
1707.146 5.64 5.67 5.52 5.45 5.4 5.25 5.21 5.31 5.39 5.41
1726.435 5.55 5.63 5.66 5.92 6.34 6.97 7.48 8.04 8.98 9.82
1745.725 10.82 12.02 13.16 14.29 15.06 15.3 15.37 15.62 15.73 15.38
1765.015 14.57 13.51 12.4 11.36 10.3 9.33 8.37 7.25 6.1 5.41
1784.305 5.02 4.68 4.42 4.18 4.17 4.27 4.29 4.15 4.24 4.4
1803.594 4.51 4.57 4.42 4.25 4.15 4.07 4.02 3.9 3.84 3.85
1822.884 3.63 3.7 3.76 3.67 3.71 3.6 3.52 3.36 3.21 3.18
1842.174 3.13 3.18 3.21 3.28 3.32 3.4 3.44 3.48 3.51 3.51
1861.464 3.81 4.17 4.37 4.45 4.8 5.36 5.84 6.4 7.06 7.9
1880.754 8.74 9.45 10.03 10.46 10.57 10.29 9.83 9.49 9.44 9.1
1900.043 8.15 7.16 6.37 5.84 5.35 4.91 4.58 4.22 3.81 3.62
1919.333 3.64 3.44 3.1 3.11 3.08 2.8 2.69 2.78 2.79 2.74
1938.623 2.77 2.52 2.27 2.4 2.69 2.9 3.04 3.09 3.22 3.23
1957.913 3.25 3.31 3.37 3.41 3.26 3.14 3 2.7 2.5 2.48
1977.202 2.46 2.43 2.24 2.04 2.04 2 1.94 2 2.09 2.1
1996.492 1.99 1.99 2.15 2.22 2.2 2.23 2.27 2.23 2.32 2.38
2015.782 2.49 2.71 2.74 2.9 3.15 3.39 3.61 3.75 3.84 3.78
2035.072 3.74 3.73 3.61 3.41 3.39 3.5 3.49 3.57 3.74 3.97
2054.362 4.27 4.53 4.9 5.63 6.04 6.21 6.72 7.22 7.67 7.85
2073.651 7.79 7.68 7.44 7.06 6.63 6.21 5.68 5.19 4.75 4.34
2092.941 3.97 3.74 3.72 3.74 3.66 3.6 3.71 3.95 4.08 4.29
2112.231 4.53 4.71 4.73 4.86 5.13 5.04 4.76 4.68 4.57 4.37
2131.521 4.04 3.65 3.51 3.27 2.91 2.7 2.35 2.05 2.13 2.18
2150.810 2.06 1.9 1.86 1.78 1.69 1.84 1.85 1.65 1.67 1.72
2170.100 1.54 1.68 1.91 1.92 2.02 2.01 1.96 2.06 2.13 2.1
2189.390 2.23 2.45 2.41 2.24 2.31 2.4 2.69 2.77 2.76 2.81
2208.680 2.87 2.95 2.92 2.86 2.93 3.16 3.17 3.15 3.3 3.58
2227.970 3.79 3.8 4.03 4.27 4.25 4.13 3.95 3.99 3.99 3.89
2247.259 3.75 3.84 3.86 3.79 3.86 3.99 4.24 4.54 4.75 4.76
2266.549 5.08 5.46 5.62 6.08 6.4 6.39 6.31 6.28 6.45 6.68
2285.839 6.55 6.23 6.3 6.26 6.28 6.63 6.89 7.03 7.11 7.1
2305.129 7.22 7.35 7.4 7.47 7.29 7.1 6.95 6.82 6.93 6.94
2324.418 6.63 6.34 6.37 6.23 5.77 5.53 5.49 5.34 5.31 5.41
2343.708 5.29 4.92 4.58 4.62 4.62 4.4 4.24 4.23 4.15 3.89
2362.998 3.88 3.92 3.82 3.92 4.08 3.99 4.02 4.23 4.22 4.28
2382.288 4.64 4.75 4.65 4.63 4.45 4.55 4.79 4.63 4.53 4.58
2401.578 4.47 4.25 4.15 4.11 3.77 3.54 3.56 3.36 3.16 3.33
2420.867 3.3 3.07 3.18 3.29 3.47 3.41 3.16 3.32 3.24 2.94
2440.157 2.82 2.8 2.88 2.91 2.85 2.79 2.86 3.1 3.23 3.22
2459.447 3.44 3.78 4.09 4.17 4.15 3.97 3.78 3.87 4.08 4.15
2478.737 4.15 3.99 3.83 4.01 4.23 4.28 4.19 4.52 4.88 5.15
2498.026 5.33 5.36 5.48 5.75 5.93 5.95 6.11 6.04 6.01 6.09
2517.316 5.93 5.63 5.63 5.93 6.06 6.3 6.59 7.12 7.72 8.02
2536.606 8.46 8.71 8.64 8.68 8.57 8.18 7.61 6.99 6.27 5.57
2555.896 4.96 4.42 3.93 3.51 2.95 2.48 2.48 2.73 2.61 2.29
2575.186 2.25 2.34 2.39 2.16 2.13 2.24 2.19 1.9 1.83 1.89
2594.475 1.76 1.81 1.78 1.6 1.54 1.55 1.62 1.71 1.72 1.59
2613.765 1.53 1.58 1.89 2.13 1.89 1.85 2.05 2.19 2.42 2.52
2633.055 2.58 2.86 3.18 3.28 3.21 3.34 3.47 3.81 4.09 4.22
2652.345 4.39 4.46 4.41 4.69 4.86 4.66 4.43 4.25 4.03 3.71
2671.634 3.85 3.84 3.41 3.3 3.48 3.76 3.88 3.8 3.96 4.02
2690.924 3.95 4.07 4.06 3.82 3.38 3.2 3.06 2.55 2 1.74
2710.214 1.77 1.77 1.71 1.63 1.5 1.44 1.62 1.89 2.1 2.11
2729.504 1.89 1.94 1.78 1.83 2.04 2.07 2.23 2.18 1.95 1.69
2748.794 1.69 1.85 1.84 1.88 1.98 1.71 1.61 1.93 2.23 2.15
2768.083 2.05 2.25 2.32 2.11 2.19 2.3 2.14 1.98 1.88 1.95
2787.373 2.02 2.28 2.4 2.05 1.96 2.02 2.08 2.17 2.09 1.88
2806.663 2.15 2.43 2.5 2.45 2.34 2.2 1.91 2.08 2.32 2.01
2825.953 1.87 2.22 1.95 1.78 2.06 2.08 1.89 1.85 1.94 2.13
2845.242 1.9 1.5 1.424 1.3649 1.64 1.63 1.3524 1.3301 1.2447 1.2199
2864.532 1.3151 1.1753 1.0845 1.2685 1.1071 0.9014 1.1119 0.6494 0.5365 0.9933
2883.822 0.8052 0.7044 0.7125 0.5887 0.47131 0.5822 0.5831 0.4161 0.313 0.157
2903.112 0.6334 0.9901 0.439927 0.014 0.223 0.4008 0.42533 0.7282 0.7629 0.8357
2922.401 1.0083 1.1699 1.423 1.65 1.3743 0.9284 1.2509 1.3964 1.44 1.78
2941.691 1.98 2.03 2.19 2.26 2.32 2.21 1.99 1.7 1.79 1.88
2960.981 1.47 1.74 2.17 2.2 2.03 1.8 1.71 1.88 1.78 1.49
2980.271 1.3342 1.3002 1.5 1.44 1.1963 1.1097 1.168 1.2134 1.0641 1.1173
2999.561 1.2602 1.0883 1.0612 1.0935 1.0112 1.0069 1.2867 1.4252 1.2831 1.45
3018.850 1.67 2.1 2.39 2.7 3.1 3.37 3.69 3.82 3.98 4.14
3038.140 4.03 3.9 4.02 4.16 3.79 3.13 3.02 2.98 2.73 2.81
3057.430 3.24 3.36 3.25 3.29 3.51 3.64 3.7 4.36 4.75 4.93
3076.720 5.88 6.7 7.28 8.3 9.1 9.52 9.92 9.56 8.73 8.22
3096.009 7.22 5.67 4.23 3.28 2.77 2.3 2.29 2.25 1.375 0.7405
3115.299 0.6694 0.8531 0.9357 0.7958 0.8068 0.7185 0.5333 0.266 0.3692 0.48232
3134.589 0.279 0.3795 0.2 0.062 0.4136 0.6458 0.6882 0.432082 0.4109 0.4053
3153.879 0.431311 0.6579 0.4053 0.298 0.656 0.7947 0.48738 0.52761 0.50092 0.305
3173.169 0.159 0.247 0.3354 0.247 0.236 0.3756 0.5741 0.7585 0.6828 0.51372
3192.458 0.7512 0.8651 0.7399 0.49299 0.541 0.8125 0.9497 1.1211 0.9137 0.8512
3211.748 1.6 2.36 1.97 1.49 2.11 2.51 2.8 3.17 3.19 3.41
3231.038 3.96 4.12 4.03 3.72 3.22 3.18 3.03 2.65 2.19 2.19
3250.328 2.67 2.81 2.77 2.78 2.75 2.78 2.86 2.45 2.23 2.3
3269.617 2.25 1.96 1.72 1.49 1.64 1.89 1.76 2.06 1.92 1.2304
3288.907 0.8542 1.4233 2.11 2.32 2.22 1.79 1.51 1.359 1.66 1.95
3308.197 1.74 1.67 1.65 1.68 1.53 1.63 1.99 1.61 1.44 1.95
3327.487 2.04 1.71 2.09 2.45 2.11 1.71 1.67 1.81 1.8 1.55
3346.777 1.4067 1.75 1.48 1.4122 1.52 1.2278 1.0467 0.8171 1.078 1.3538
3366.066 0.9537 0.7442 1.1555 0.9357 0.5898 0.5969 0.7526 1.0062 0.9135 1.0906
3385.356 1.1971 0.9731 0.9822 1.0569 1.0098 0.9105 0.8501 0.9194 1.0804 1.0993
3404.646 1.0634 1.125 0.957 0.7219 0.7462 0.9729 1.1674 1.1176 0.9818 0.9332
3423.936 0.9387 0.8643 0.5648 0.3595 0.48592 0.42982 0.5411 0.9742 0.9368 0.6805
3443.225 1.1472 1.57 1.1521 1.0555 1.0904 0.8781 0.7997 1.1807 1.2386 0.6908
3462.515 0.7151 0.8024 0.5902 0.6483 0.5715 0.48851 0.6294 0.5215 0.509 0.4032
3481.805 0.219 0.3764 0.47647 0.6647 0.50799 0.112 0.01 0.114 0.097 0.281
3501.095 0.41 0.3 0.4706 0.197 0.146 0.559 0.6783 0.6599 0.7751 1.078
3520.385 1.2526 1.2954 1.59 1.79 1.98 1.65 1.3561 1.54 1.1975 1.1247
3539.674 0.9551 0.68 0.8466 1.1568 1.1836 0.9416 0.9231 1.2079 1.428 1.48
3558.964 1.58 1.95 2.41 2.33 2.09 2.06 2.11 2.34 2.7 2.67
3578.254 2.57 2.87 3.26 3.59 3.45 3.89 4.85 5.62 7.04 8.96
3597.544 11.56 15.1 19.85 26.27 35.66 49.93 70.08 99.06 141.07 196.55
3616.833 262.19 324.85 365.83 378.93 376.79 368.94 349.25 312.51 251.88 180.56
3636.123 124.32 88.92 69.33 59.17 53.13 48.94 45.2 41.02 37.26 33.74
3655.413 29.99 25.35 19.84 14.86 11.04 8.3 6.51 5.66 5.26 4.66
3674.703 3.83 3.2 2.81 2.63 2.48 2.18 2.25 2.24 2.05 2.05
3693.993 2.05 1.72 1.68 1.88 1.87 1.8 1.53 1.2779 1.6 1.96
3713.282 2.06 2.15 2.08 1.89 1.64 1.8 2.04 1.68 1.3967 1.3713
3732.572 1.0201 1.1122 1.2565 1.118 1.56 1.91 1.91 1.76 1.66 1.2711
3751.862 1.4148 1.47 1.2286 1.46 1.2312 1.1742 1.1754 0.8588 1.0405 1.0292
3771.152 0.8978 1.2112 1.64 1.55 1.2169 1.2623 1.0343 0.8608 0.5716 0.118
3790.441 0.5699 1.4067 1.3182 0.431347 0 0.438525 0.51094 0.8595 1.2618 1.132
3809.731 1.0321 0.921 0.7576 0.8694 0.9154 0.6285 0.9826 1.356 1.2296 1.1197
3829.021 0.7146 0.6491 1.0446 1.1956 1.321 1.0802 1.1429 1.44 1.1962 0.9056
3848.311 1.0806 1.2562 1.263 1.391 1.45 1.0511 0.7869 1.1151 1.1295 0.5236
3867.601 0.219 0.7222 0.9729 0.9481 1.1271 1.1097 1.1393 1.2865 1.52 1.44
3886.890 1.3423 1.62 1.71 1.76 1.57 1.73 2.04 2.04 1.83 1.62
3906.180 1.85 2.04 1.94 2.04 2.19 2.34 2.23 2.07 2.16 1.9
3925.470 1.59 1.61 2.05 2.4 2.64 2.72 2.1 1.95 2.05 1.8
3944.760 1.91 1.89 1.72 1.79 2.2 2.05 1.7 1.85 1.84 1.78
3964.049 1.92 1.84 1.59 1.4028 1.7 2.66 2.85 2.49 2.86 3.05
3983.339 2.82 2.86 2.96 2.81 2.42 2.11 2.07 2.15 2.26 2.38
##END=
