##TITLE=trans-4-Methylcyclohexanol
##JCAMP-DX=4.24
##DATA TYPE=INFRARED SPECTRUM
##ORIGIN=NIST Mass Spectrometry Data Center
##OWNER=NIST Standard Reference Data Program
Collection (C) 2018 copyright by the U.S. Secretary of Commerce
on behalf of the United States of America. All rights reserved.
##CAS REGISTRY NO=7731-29-5
##MOLFORM=C 7 H 14 O
##$NIST SOURCE=MSDC-IR
##SPECTROMETER/DATA SYSTEM=HP-GC/MS/IRD
##STATE=gas
##XUNITS=1/CM
##YUNITS=ABSORBANCE
##XFACTOR=1.0
##YFACTOR=0.000005800
##DELTAX=4.0
##FIRSTX=550.0
##LASTX=3846.0
##FIRSTY=0.000133
##MAXX=3846
##MINX=550
##MAXY=0.058
##MINY=0
##NPOINTS=825
##XYDATA=(X++(Y..Y))
550.0 23 37 31 29 20 32 39 64 99 131
590.0 180 214 227 219 190 127 71 50 32 19
630.0 10 8 19 8 5 11 10 10 9 17
670.0 24 20 27 29 26 21 13 9 13 14
710.0 5 0 6 6 8 11 8 14 17 13
750.0 12 15 24 30 30 29 28 20 28 35
790.0 31 32 25 25 30 30 30 40 45 44
830.0 49 60 66 64 64 66 65 74 84 95
870.0 124 163 202 210 214 242 256 239 219 213
910.0 217 209 196 195 208 242 316 397 458 502
950.0 522 509 457 394 360 362 400 462 541 638
990.0 753 886 979 998 992 971 916 842 820 957
1030.0 1327 1959 2764 3434 3798 3910 3779 3252 2305 1551
1070.0 1360 1484 1730 1969 2074 1993 1765 1432 1058 732
1110.0 532 441 418 434 453 459 468 469 449 417
1150.0 384 355 329 311 303 291 287 297 313 342
1190.0 372 408 459 499 528 555 582 623 663 686
1230.0 702 715 717 695 666 651 647 634 615 596
1270.0 569 529 481 436 405 383 367 365 366 368
1310.0 369 366 358 354 356 372 395 422 460 511
1350.0 583 658 749 855 952 1017 1031 1009 952 845
1390.0 715 592 485 407 357 323 299 296 311 349
1430.0 425 540 690 881 1029 1150 1306 1320 1194 1008
1470.0 815 645 487 363 265 197 153 123 99 84
1510.0 74 66 57 49 43 41 41 41 41 39
1550.0 38 35 31 24 27 29 31 36 31 27
1590.0 27 30 31 30 34 30 25 28 28 29
1630.0 28 30 33 30 31 34 31 27 26 25
1670.0 27 26 21 21 21 18 19 17 15 13
1710.0 11 15 19 15 14 18 17 14 14 13
1750.0 9 6 8 9 9 16 15 7 6 6
1790.0 6 6 2 4 6 10 10 6 8 9
1830.0 6 6 2 0 0 0 1 2 3 3
1870.0 5 7 12 14 14 18 17 16 13 10
1910.0 10 11 14 13 11 12 12 10 7 5
1950.0 8 9 7 6 7 5 6 9 7 10
1990.0 14 14 15 12 10 9 5 6 8 10
2030.0 8 8 11 12 13 9 11 14 11 10
2070.0 12 13 14 16 17 15 11 10 12 10
2110.0 7 6 4 8 12 8 5 7 5 4
2150.0 5 4 5 6 3 2 4 4 3 4
2190.0 11 9 6 7 8 8 6 6 8 6
2230.0 0 2 3 4 6 7 6 7 8 10
2270.0 14 12 8 7 8 8 5 5 9 10
2310.0 9 9 13 17 18 17 20 20 19 17
2350.0 15 18 24 28 28 26 22 22 25 22
2390.0 19 20 24 23 19 18 22 22 20 23
2430.0 24 22 24 23 23 24 25 28 25 26
2470.0 25 20 21 21 19 20 19 20 21 23
2510.0 24 28 31 29 28 28 29 28 30 26
2550.0 27 32 31 32 35 37 42 46 47 51
2590.0 57 65 72 77 82 88 92 98 107 112
2630.0 115 118 124 127 129 130 128 129 128 127
2670.0 126 126 129 125 120 123 122 120 118 120
2710.0 124 127 131 137 139 144 152 159 168 175
2750.0 173 176 181 182 186 186 186 190 198 208
2790.0 221 235 249 273 299 323 355 400 464 553
2830.0 690 886 1169 1572 2091 2662 3195 3627 3920 4114
2870.0 4202 4113 3880 3646 3480 3373 3340 3505 3862 4344
2910.0 4975 5781 6808 8061 9209 9806 10000 9806 9125 8245
2950.0 7297 6489 5786 4728 3776 3118 2356 1622 1064 685
2990.0 448 306 225 184 157 136 120 115 109 101
3030.0 97 89 84 85 88 87 86 91 96 92
3070.0 92 94 95 94 81 71 73 75 68 61
3110.0 64 65 67 70 71 68 67 69 68 69
3150.0 67 67 68 64 60 59 55 47 44 39
3190.0 31 28 26 23 17 14 15 11 9 8
3230.0 4 7 8 5 8 13 14 11 4 3
3270.0 4 3 4 6 12 13 8 4 7 6
3310.0 2 7 18 18 13 16 19 17 18 17
3350.0 12 10 12 14 9 14 21 14 11 12
3390.0 14 16 18 20 17 12 12 19 23 24
3430.0 22 17 18 27 27 22 20 15 10 12
3470.0 14 13 17 14 7 7 8 8 9 6
3510.0 6 4 2 6 3 9 10 10 16 11
3550.0 10 11 5 5 7 3 0 3 8 10
3590.0 4 7 22 26 27 36 44 62 90 136
3630.0 203 286 412 537 598 620 599 540 434 291
3670.0 181 109 69 46 34 28 22 23 28 22
3710.0 16 19 15 9 8 5 9 12 8 10
3750.0 14 15 17 21 16 10 16 17 14 19
3790.0 23 23 24 27 22 23 30 34 35 33
3830.0 32 34 31 27 24
##END=
