##TITLE=9,10-Dihydrophenanthrene
##JCAMP-DX=4.24
##DATA TYPE=INFRARED SPECTRUM
##ORIGIN=NIST Mass Spectrometry Data Center
##OWNER=NIST Standard Reference Data Program
Collection (C) 2018 copyright by the U.S. Secretary of Commerce
on behalf of the United States of America. All rights reserved.
##CAS REGISTRY NO=776-35-2
##MOLFORM=C 14 H 12
##$NIST SOURCE=MSDC-IR
##SPECTROMETER/DATA SYSTEM=HP-GC/MS/IRD
##STATE=gas
##XUNITS=1/CM
##YUNITS=ABSORBANCE
##XFACTOR=1.0
##YFACTOR=0.000001400
##DELTAX=4.0
##FIRSTX=550.0
##LASTX=3846.0
##FIRSTY=0.000078
##MAXX=3846
##MINX=550
##MAXY=0.014
##MINY=0
##NPOINTS=825
##XYDATA=(X++(Y..Y))
550.0 56 93 72 38 25 69 75 91 96 162
590.0 246 306 443 566 557 591 808 1029 1104 1028
630.0 642 254 182 162 156 148 102 88 78 79
670.0 109 102 106 155 225 284 309 278 262 356
710.0 573 946 1477 2315 3456 4752 6254 8056 10000 8907
750.0 6105 4275 2603 1647 1438 1571 1452 1099 799 504
790.0 314 256 211 173 176 161 163 173 155 146
830.0 137 135 133 125 144 229 314 325 315 273
870.0 204 167 146 197 248 272 292 264 206 171
910.0 168 180 186 206 238 266 344 374 302 234
950.0 165 115 96 80 93 104 108 119 142 186
990.0 296 430 523 550 506 424 340 321 316 310
1030.0 322 381 461 475 446 345 212 120 104 110
1070.0 121 152 191 280 339 344 318 239 140 79
1110.0 72 70 69 79 81 83 85 75 66 130
1150.0 213 251 255 203 130 92 83 97 114 133
1190.0 154 185 188 151 139 136 108 91 95 88
1230.0 96 118 142 210 281 367 431 454 445 364
1270.0 283 244 260 298 352 426 500 521 496 456
1310.0 376 289 215 159 124 107 103 112 139 181
1350.0 199 181 163 137 113 92 94 105 98 88
1390.0 85 107 140 178 240 323 407 507 640 820
1430.0 1070 1406 1753 1978 2263 2585 2520 2176 1632 974
1470.0 729 944 1528 2086 2260 2005 1318 674 421 322
1510.0 260 239 219 176 125 109 103 92 92 104
1550.0 119 124 112 127 164 212 280 342 393 406
1590.0 381 349 331 324 303 254 180 131 132 147
1630.0 155 164 165 149 127 98 98 134 147 146
1670.0 145 158 175 159 144 143 139 141 174 208
1710.0 231 236 210 187 156 128 118 116 125 129
1750.0 121 109 88 81 82 83 105 147 206 256
1790.0 295 319 297 255 192 135 141 176 222 258
1830.0 253 234 182 113 79 76 89 109 150 208
1870.0 244 247 224 187 172 213 297 391 453 455
1910.0 402 306 215 188 220 293 386 432 387 297
1950.0 199 116 82 68 63 65 56 56 62 57
1990.0 51 56 55 50 55 58 68 67 58 49
2030.0 47 57 69 65 48 51 52 31 28 25
2070.0 27 37 36 33 39 43 37 36 38 41
2110.0 40 31 31 32 35 40 23 21 34 30
2150.0 19 6 0 12 30 40 29 27 37 45
2190.0 49 54 59 49 55 72 78 73 59 59
2230.0 62 55 45 48 48 50 49 49 56 57
2270.0 56 41 35 54 69 75 69 65 62 65
2310.0 90 95 103 120 111 103 87 60 67 69
2350.0 65 70 61 50 40 50 68 57 44 49
2390.0 59 55 46 34 28 41 52 37 31 25
2430.0 29 46 38 34 55 65 45 35 39 44
2470.0 58 56 40 38 48 56 51 49 52 46
2510.0 50 53 50 41 33 45 53 45 45 62
2550.0 57 50 56 53 45 48 64 65 55 58
2590.0 66 72 71 69 83 99 100 101 96 80
2630.0 70 65 61 67 63 56 61 56 49 42
2670.0 44 47 54 70 78 73 67 55 50 47
2710.0 37 55 72 68 67 71 67 63 69 75
2750.0 81 89 91 90 94 92 88 104 122 143
2790.0 151 144 167 182 187 183 176 213 283 373
2830.0 538 812 1193 1574 1809 1866 1669 1306 996 799
2870.0 676 636 648 729 875 1123 1463 1852 2192 2205
2910.0 1861 1490 1222 1078 1153 1548 2377 3774 5163 5647
2950.0 5372 4320 2773 1624 967 604 414 318 273 272
2990.0 307 338 407 570 838 1260 1773 2275 2684 2922
3030.0 2999 2987 2940 2763 2489 2272 2238 2590 3418 4499
3070.0 5262 5302 4620 3412 2231 1519 1191 1052 977 873
3110.0 731 551 432 351 294 271 255 248 261 274
3150.0 269 241 223 207 151 104 101 103 101 112
3190.0 106 81 78 87 80 82 86 62 66 81
3230.0 88 84 70 88 92 62 39 41 51 32
3270.0 43 72 71 63 76 96 88 89 80 52
3310.0 38 30 36 59 61 58 72 83 75 76
3350.0 70 40 22 51 87 74 69 86 77 69
3390.0 66 63 54 52 74 82 62 65 78 75
3430.0 73 69 57 80 93 62 31 36 68 84
3470.0 97 125 123 97 87 89 78 76 100 120
3510.0 106 94 84 78 65 71 98 122 121 109
3550.0 91 62 77 77 70 86 78 82 94 83
3590.0 83 97 107 77 58 65 52 68 78 85
3630.0 99 91 63 44 87 133 126 108 116 104
3670.0 94 99 108 128 104 88 107 111 107 85
3710.0 70 88 97 104 101 105 117 109 100 93
3750.0 105 124 123 101 106 105 124 143 133 131
3790.0 134 124 114 114 135 151 146 140 153 152
3830.0 162 158 124 130 149
##END=
