##TITLE=2-Trifluoromethylbenzenesulphonyl chloride
##JCAMP-DX=4.24
##DATA TYPE=INFRARED SPECTRUM
##ORIGIN=EPA-IR VAPOR PHASE LIBRARY
##OWNER=SRD/NIST
Collection (C) 2018 copyright by the U.S. Secretary of Commerce
on behalf of the United States of America. All rights reserved.
##CAS REGISTRY NO=776-04-5
##MOLFORM=C 7 H 4 Cl F 3 O 2 S
##$NIST SOURCE=MSDC-IR
##STATE=gas
##XUNITS=1/CM
##YUNITS=ABSORBANCE
##XFACTOR=1.
##YFACTOR=0.001
##DELTAX=1.92934
##FIRSTX=549.9
##LASTX=3999.5
##FIRSTY=23.7
##MAXX=3999.53
##MINX=549.863
##MAXY=0.18475
##MINY=0
##NPOINTS=1789
##XYDATA=(X++(Y..Y))
549.863 23.7 30.46 37.06 43.5 50 53.14 52.18 50.63 48.09 44.48
569.156 42.27 43.28 47.93 55.91 66.3 77.43 88.37 97.62 103.67 105.81
588.450 103.75 97.75 89.67 82.26 75.9 67.21 56.29 47.2 40.01 33.22
607.743 27.02 21.86 17.72 14.46 11.89 9.85 8.17 6.9 5.96 5.26
627.037 4.88 4.76 5.09 6.15 7.94 10.08 11.33 11.98 13 12.48
646.330 11.22 10.25 8.26 6.15 4.84 4.12 3.81 3.53 3.33 3.22
665.624 3.03 2.86 2.59 2.39 2.38 2.49 2.6 2.61 2.62 2.71
684.917 2.88 3.08 3.33 3.67 4.23 4.99 6.13 7.99 10.76 14.68
704.210 19.44 24.27 28.31 31.12 32.53 31.91 29.23 25.17 20.03 14.48
723.504 10.05 7.24 5.62 4.77 4.38 4.1 3.91 3.88 3.9 4.01
742.797 4.14 4.33 4.75 5.42 6.46 8.19 10.8 14.13 17.85 21.57
762.091 25.24 29.56 33.92 34.26 28.99 23.33 19.87 16.75 13.46 10.54
781.384 8.58 7.5 6.76 6.07 5.43 4.73 3.89 3.14 2.61 2.29
800.678 2.0512 1.9857 1.9772 1.8729 1.8797 1.8571 1.7951 1.8126 1.8214 1.7928
819.971 1.7818 1.7748 1.6845 1.5982 1.5769 1.5985 1.5667 1.4863 1.4611 1.4727
839.264 1.4807 1.4675 1.4384 1.4651 1.4381 1.3327 1.3379 1.379 1.3471 1.3172
858.558 1.2868 1.23407 1.1675 1.17896 1.21213 1.3214 1.5128 1.5425 1.6371 1.8568
877.851 2.0202 2.18 2.37 2.38 2.25 2.0577 1.8599 1.7196 1.5241 1.3875
897.145 1.24169 1.1284 1.0913 1.012 1.006 1.04 0.999 1.009 1.035 1.039
916.438 1.082 1.1021 1.0928 1.0974 1.0934 1.1006 1.1421 1.1609 1.17169 1.19394
935.732 1.20292 1.20444 1.19041 1.1376 1.19093 1.26559 1.27656 1.3288 1.3743 1.5007
955.025 1.6628 1.7612 1.9467 2.15 2.24 2.27 2.21 2.0387 1.8811 1.7453
974.318 1.5859 1.4553 1.4078 1.4089 1.3852 1.3819 1.4258 1.4176 1.4573 1.5626
993.612 1.6377 1.694 1.7876 1.8821 2.0138 2.1402 2.25 2.5 2.79 3.22
1012.905 3.82 4.6 5.74 7.37 9.71 12.99 17.11 21.96 26.87 31.06
1032.199 34.29 35.97 35.71 33.66 30.1 25.42 20.27 15.62 12.02 9.37
1051.492 7.59 6.36 5.5 5.03 4.77 4.69 4.8 4.99 5.16 5.47
1070.786 5.97 6.69 7.64 9.16 11.33 14.01 17.32 20.96 24.58 27.7
1090.079 29.92 30.95 30.62 29.12 26.7 23.9 21.32 19.46 18.53 18.12
1109.372 18.14 18.68 19.78 21.74 24.62 27.88 30.67 32.66 33.87 34.05
1128.666 32.82 30.47 27.52 24.38 22.19 21.39 21.72 22.89 24.69 27.02
1147.959 29.73 32.7 36.05 40.02 44.49 49.45 55.28 62.21 70.15 79.33
1167.253 89.56 100.25 111.34 122.92 134.58 145.56 154.86 162.78 170.2 176.59
1186.546 181.36 184.16 184.75 182.74 178.06 171.15 160.96 145.59 125.62 104.77
1205.840 85.53 68.4 53.72 41.91 32.72 26.44 22.49 19.6 17.45 15.59
1225.133 14.4 13.39 12.35 11.83 11.08 10.2 9.77 9.6 9.43 9.26
1244.426 9.24 9.54 10.02 10.74 11.8 13.41 16.1 19.98 25.08 31.31
1263.720 38.12 44.63 49.61 52.69 53.87 53.15 50.63 46.45 41.56 37.02
1283.013 33.41 31.04 29.87 29.89 31.39 34.71 40.7 50.23 63.41 79.29
1302.307 95.77 109.99 119.54 123.53 121.42 112.9 98.59 80.6 61.91 45.43
1321.600 33.12 25.05 19.98 16.78 14.65 13 11.63 10.5 9.45 8.61
1340.894 7.93 7.37 6.95 6.57 6.31 6.14 5.99 6 6.16 6.35
1360.187 6.42 5.96 5.71 6.09 6.7 7.45 8.15 8.81 9.51 10.34
1379.480 11.34 12.56 14.12 16 18.36 21.31 25.06 29.98 36.62 45.1
1398.774 55.59 67.48 78.51 87.17 91.58 91.08 85.97 77.02 65.31 51.91
1418.067 38.8 27.6 20.43 16.37 14.22 13.52 13.54 13.88 14.35 14.71
1437.361 14.85 14.64 14 13.01 11.69 10.27 8.73 7.32 6.17 5.22
1456.654 4.42 3.75 3.24 2.84 2.56 2.34 2.1577 2.0497 1.9798 1.8702
1475.948 1.7961 1.74 1.6351 1.5627 1.5236 1.5172 1.472 1.3864 1.3939 1.4138
1495.241 1.4149 1.3842 1.324 1.327 1.3178 1.26979 1.24269 1.23031 1.199 1.1024
1514.534 1.073 1.072 1.053 1.03 0.995 1.039 1.054 1.054 1.1096 1.111
1533.828 1.0867 1.0872 0.994 0.938 0.969 0.954 0.94 0.925 0.9 0.897
1553.121 0.887 0.863 0.934 1.016 1.043 1.1176 1.22547 1.3649 1.5056 1.5823
1572.415 1.6992 1.8746 1.9723 2.0096 2.0913 2.0882 2.0445 2.1509 2.29 2.4
1591.708 2.51 2.6 2.61 2.57 2.47 2.25 1.9907 1.804 1.6347 1.4279
1611.002 1.3381 1.3704 1.3905 1.3898 1.3999 1.3707 1.3037 1.3158 1.3633 1.3274
1630.295 1.3142 1.3761 1.4024 1.5064 1.6259 1.6887 1.8276 1.9438 1.9945 2.0031
1649.588 2.0232 1.9781 1.8987 1.7801 1.6222 1.5002 1.3765 1.25599 1.22614 1.1468
1668.882 1.046 1.013 1.003 1 1.003 1.013 1.007 1.064 1.077 1.055
1688.175 1.063 1.1113 1.1196 1.1057 1.1238 1.106 1.1064 1.0887 1.039 1.002
1707.469 0.963 1.009 1.1122 1.1184 1.1179 1.1692 1.17899 1.24248 1.3446 1.4233
1726.762 1.4434 1.4656 1.485 1.4298 1.3809 1.3352 1.24472 1.17636 1.1589 1.0849
1746.056 1.034 1.04 1.079 1.1082 1.1408 1.1474 1.1235 1.121 1.1057 1.1091
1765.349 1.1565 1.104 1.044 1.053 0.991 0.947 0.939 0.929 0.923 0.92
1784.642 0.893 0.902 0.901 0.903 0.903 0.871 0.883 0.878 0.92 0.971
1803.936 1.013 1.007 0.958 0.939 0.929 1.007 1.047 1.035 1.031 1.028
1823.229 1.075 1.1229 1.1403 1.2176 1.3323 1.4136 1.4854 1.6101 1.7467 1.7915
1842.523 1.7861 1.7727 1.7248 1.6397 1.5215 1.3589 1.26016 1.17582 1.078 1.063
1861.816 1.073 1.0847 1.0893 1.1259 1.18183 1.24145 1.2806 1.23793 1.18482 1.1368
1881.110 1.076 1.047 0.991 0.927 0.917 0.904 0.901 0.921 0.89 0.873
1900.403 0.854 0.849 0.898 0.874 0.864 0.882 0.894 0.906 0.928 0.946
1919.696 0.969 0.996 1.027 1.072 1.068 1.074 1.0968 1.1001 1.1321 1.17148
1938.990 1.22624 1.2967 1.3745 1.5048 1.6433 1.7457 1.8734 2.0035 2.0382 1.9775
1958.283 1.9108 1.8298 1.7095 1.5597 1.4294 1.4074 1.4052 1.4049 1.4365 1.4069
1977.577 1.4231 1.4757 1.4562 1.409 1.3177 1.22622 1.1255 1.011 0.928 0.861
1996.870 0.802 0.803 0.79 0.734 0.723 0.718 0.694 0.732 0.74 0.698
2016.164 0.704 0.734 0.75 0.774 0.783 0.756 0.738 0.759 0.746 0.767
2035.457 0.806 0.77 0.753 0.759 0.819 0.842 0.838 0.884 0.931 0.935
2054.750 0.927 0.942 0.949 0.917 0.908 0.931 0.918 0.885 0.912 0.965
2074.044 0.954 0.947 0.993 0.997 0.984 1.018 1.059 1.0817 1.0863 1.071
2093.337 1.043 1.034 1.01 0.96 0.938 0.884 0.834 0.866 0.86 0.844
2112.631 0.862 0.89 0.915 0.883 0.886 0.957 0.943 0.884 0.874 0.897
2131.924 0.887 0.827 0.815 0.847 0.847 0.898 0.894 0.867 0.869 0.844
2151.218 0.868 0.824 0.793 0.787 0.8 0.848 0.838 0.797 0.831 0.891
2170.511 0.896 0.857 0.82 0.859 0.869 0.879 0.912 0.99 0.998 0.927
2189.804 0.932 0.949 0.988 0.969 0.935 0.967 1.028 1.0858 1.0984 1.0933
2209.098 1.0909 1.1002 1.125 1.1413 1.1563 1.1311 1.1181 1.1182 1.068 1.051
2228.391 1.061 1.084 1.075 1.042 1.009 0.991 0.977 1.003 1.019 1.012
2247.685 1.01 1.04 1.068 1.066 1.1052 1.1353 1.144 1.1007 1.0854 1.1345
2266.978 1.1626 1.1582 1.17176 1.18196 1.17769 1.1691 1.128 1.1262 1.17992 1.20768
2286.272 1.19104 1.2175 1.2811 1.2978 1.26567 1.24816 1.2872 1.27819 1.22561 1.23376
2305.565 1.26095 1.25514 1.23636 1.20062 1.20366 1.20388 1.22174 1.23969 1.23652 1.26146
2324.858 1.26875 1.2747 1.292 1.3169 1.3048 1.3155 1.3897 1.4544 1.4911 1.5018
2344.152 1.5236 1.5384 1.5778 1.6223 1.6239 1.5953 1.53 1.4515 1.4676 1.5318
2363.445 1.4748 1.4229 1.4494 1.4172 1.3429 1.3366 1.3263 1.2621 1.23306 1.24109
2382.739 1.25189 1.24039 1.21794 1.20804 1.1614 1.1524 1.17564 1.1191 1.071 1.054
2402.032 1.037 1.042 1.014 0.96 0.927 0.918 0.882 0.82 0.865 0.901
2421.326 0.836 0.808 0.811 0.837 0.895 0.926 0.935 0.932 0.889 0.919
2440.619 0.989 0.96 0.909 0.903 0.948 0.993 0.997 0.966 0.942 0.995
2459.912 0.975 0.932 1.019 1.0832 1.074 1.077 1.091 1.1159 1.1111 1.064
2479.206 1.041 1.061 1.0951 1.0827 1.1068 1.0839 1.036 1.036 1.026 1.0952
2498.499 1.1326 1.1061 1.0893 1.055 1.076 1.07 0.994 0.996 1.013 0.988
2517.793 1.01 1.06 1.0934 1.058 1.035 1.047 1.004 0.978 1.004 1.01
2537.086 0.996 1.016 1.079 1.1094 1.0852 1.064 1.0957 1.1019 1.092 1.1359
2556.380 1.1269 1.1115 1.17855 1.22559 1.22104 1.2329 1.27282 1.3273 1.2888 1.25806
2575.673 1.3694 1.4649 1.4353 1.3769 1.4497 1.5019 1.4735 1.4875 1.4422 1.4444
2594.966 1.5322 1.5452 1.4816 1.4563 1.4699 1.4113 1.3522 1.3675 1.3717 1.2919
2614.260 1.22322 1.17757 1.18683 1.17963 1.0815 1.1016 1.0897 1.041 1.0801 1.064
2633.553 0.995 0.963 0.976 0.935 0.866 0.835 0.843 0.962 0.936 0.871
2652.847 0.942 0.881 0.81 0.859 0.887 0.852 0.838 0.89 0.942 0.891
2672.140 0.877 0.899 0.896 0.885 0.865 0.849 0.834 0.881 0.928 0.944
2691.434 0.896 0.837 0.831 0.821 0.811 0.843 0.883 0.815 0.792 0.801
2710.727 0.79 0.81 0.846 0.855 0.827 0.848 0.792 0.759 0.746 0.743
2730.020 0.816 0.863 0.854 0.819 0.794 0.792 0.792 0.786 0.839 0.903
2749.314 0.891 0.869 0.859 0.867 0.89 0.902 0.898 0.753 0.758 0.827
2768.607 0.727 0.747 0.822 0.773 0.762 0.791 0.749 0.772 0.845 0.918
2787.901 0.985 0.937 0.919 0.967 0.918 0.882 0.887 0.857 0.848 0.829
2807.194 0.828 0.836 0.851 0.922 0.829 0.716 0.717 0.757 0.806 0.775
2826.488 0.695 0.721 0.788 0.79 0.781 0.726 0.73 0.817 0.786 0.773
2845.781 0.769 0.748 0.824 0.726 0.696 0.705 0.673 0.776 0.822 0.794
2865.074 0.773 0.773 0.88 0.866 0.805 0.882 0.823 0.822 0.863 0.803
2884.368 0.772 0.805 0.885 0.887 0.861 0.89 0.893 0.84 0.761 0.781
2903.661 0.877 0.84 0.772 0.839 0.806 0.634 0.721 0.842 0.868 0.854
2922.955 0.772 0.734 0.736 0.772 0.838 0.873 0.826 0.75 0.822 0.809
2942.248 0.7 0.714 0.745 0.768 0.699 0.671 0.739 0.759 0.611 0.601
2961.542 0.802 0.79 0.654 0.702 0.724 0.718 0.694 0.736 0.757 0.779
2980.835 0.843 0.906 0.965 0.915 0.879 0.881 0.931 0.895 0.799 0.808
3000.128 0.849 0.853 0.81 0.701 0.738 0.749 0.674 0.714 0.776 0.89
3019.422 0.893 0.841 0.939 0.91 0.951 1.1019 1.124 1.1094 1.1629 1.1212
3038.715 1.20909 1.4462 1.4857 1.5957 1.6323 1.4293 1.5196 1.7258 1.6139 1.5972
3058.009 1.6376 1.5853 1.6355 1.9319 2.1537 2.44 2.85 3.28 3.94 4.45
3077.302 4.74 4.95 5.1 5.03 4.85 4.63 4.25 3.96 3.84 3.59
3096.596 3.15 2.71 2.29 1.9976 1.7302 1.5282 1.3398 1.20623 1.25059 1.23208
3115.889 0.966 0.767 0.8 0.809 0.805 0.76 0.624 0.606 0.686 0.791
3135.182 0.804 0.713 0.75 0.812 0.817 0.844 0.887 0.849 0.795 0.763
3154.476 0.627 0.569 0.634 0.693 0.779 0.76 0.607 0.492 0.466 0.511
3173.769 0.617 0.54 0.51 0.629 0.492 0.453 0.515 0.436 0.337 0.325
3193.063 0.407 0.413 0.368 0.346 0.387 0.336 0.223 0.203 0.307 0.313
3212.356 0.16 0.17 0.261 0.361 0.326 0.232 0.12 0.13 0.07 0.15
3231.650 0.34 0.348 0.423 0.397 0.267 0.268 0.419 0.276 0.13 0.214
3250.943 0.213 0.249 0.241 0.17 0.312 0.426 0.329 0.275 0.12 0.05
3270.236 0.219 0.236 0.247 0.385 0.345 0.245 0.352 0.352 0.377 0.273
3289.530 0.13 0.06 0.11 0.324 0.307 0.254 0.348 0.285 0.338 0.503
3308.823 0.376 0.301 0.321 0.367 0.449 0.359 0.254 0.193 0.308 0.416
3328.117 0.307 0.273 0.406 0.299 0.15 0.259 0.304 0.328 0.42 0.328
3347.410 0.16 0.305 0.315 0.233 0.251 0.222 0.189 0.192 0.268 0.259
3366.704 0.265 0.197 0.16 0.16 0.214 0.422 0.314 0.234 0.262 0.183
3385.997 0.18 0.274 0.339 0.225 0.1 0.195 0.306 0.269 0.18 0.09
3405.290 0 0.13 0.382 0.4 0.12 0.1 0.351 0.32 0.251 0.321
3424.584 0.329 0.35 0.306 0.328 0.379 0.27 0.262 0.319 0.27 0.235
3443.877 0.34 0.406 0.376 0.388 0.301 0.193 0.288 0.317 0.198 0.18
3463.171 0.277 0.351 0.4 0.439 0.466 0.475 0.461 0.43 0.389 0.388
3482.464 0.443 0.434 0.414 0.363 0.287 0.19 0.216 0.29 0.263 0.4
3501.758 0.575 0.592 0.38 0.223 0.286 0.402 0.383 0.304 0.333 0.443
3521.051 0.464 0.361 0.32 0.364 0.403 0.354 0.311 0.305 0.388 0.415
3540.344 0.484 0.487 0.423 0.602 0.564 0.42 0.412 0.319 0.442 0.53
3559.638 0.607 0.675 0.549 0.518 0.572 0.474 0.408 0.584 0.596 0.413
3578.931 0.469 0.526 0.425 0.511 0.558 0.491 0.468 0.398 0.409 0.38
3598.225 0.268 0.369 0.538 0.695 0.689 0.586 0.463 0.39 0.437 0.501
3617.518 0.455 0.459 0.607 0.625 0.523 0.489 0.508 0.511 0.47 0.516
3636.812 0.638 0.589 0.599 0.749 0.724 0.607 0.572 0.601 0.626 0.71
3656.105 0.825 0.794 0.698 0.731 0.801 0.804 0.72 0.604 0.626 0.67
3675.398 0.552 0.585 0.723 0.673 0.606 0.659 0.678 0.616 0.647 0.55
3694.692 0.515 0.537 0.542 0.58 0.657 0.794 0.749 0.603 0.548 0.645
3713.985 0.76 0.776 0.836 0.766 0.646 0.714 0.702 0.573 0.618 0.705
3733.279 0.622 0.728 0.884 0.808 0.77 0.712 0.696 0.758 0.79 0.792
3752.572 0.637 0.58 0.755 0.702 0.539 0.544 0.71 0.873 0.788 0.714
3771.866 0.727 0.759 0.752 0.677 0.676 0.772 0.772 0.688 0.699 0.741
3791.159 0.796 0.822 0.719 0.648 0.601 0.56 0.596 0.676 0.789 0.85
3810.452 0.923 0.919 0.833 0.817 0.804 0.802 0.852 0.846 0.768 0.715
3829.746 0.815 0.828 0.751 0.757 0.746 0.766 0.762 0.828 0.89 0.862
3849.039 0.865 0.867 0.886 0.874 0.771 0.788 0.878 0.828 0.822 0.974
3868.333 1.045 0.979 0.957 0.916 0.944 0.937 0.961 0.944 0.876 0.951
3887.626 0.849 0.713 0.655 0.599 0.635 0.778 0.853 0.858 0.927 0.824
3906.920 0.598 0.565 0.565 0.643 0.78 0.804 0.819 0.828 0.837 0.854
3926.213 0.873 0.862 0.819 0.781 0.743 0.806 0.769 0.707 0.764 0.717
3945.506 0.798 0.877 0.728 0.665 0.742 0.874 0.977 0.821 0.73 0.833
3964.800 0.764 0.756 0.817 0.78 0.781 0.806 0.748 0.713 0.71 0.674
3984.093 0.726 0.762 0.776 0.923 0.988 0.896 0.844 0.816 0.745
##END=
