##TITLE=Bromodiphenylmethane
##JCAMP-DX=4.24
##DATA TYPE=INFRARED SPECTRUM
##ORIGIN=NIST Mass Spectrometry Data Center
##OWNER=NIST Standard Reference Data Program
Collection (C) 2018 copyright by the U.S. Secretary of Commerce
on behalf of the United States of America. All rights reserved.
##CAS REGISTRY NO=776-74-9
##MOLFORM=C 13 H 11 Br
##$NIST SOURCE=MSDC-IR
##SPECTROMETER/DATA SYSTEM=HP-GC/MS/IRD
##STATE=gas
##XUNITS=1/CM
##YUNITS=ABSORBANCE
##XFACTOR=1.0
##YFACTOR=0.000001400
##DELTAX=4.0
##FIRSTX=550.0
##LASTX=3846.0
##FIRSTY=0.000571
##MAXX=3846
##MINX=550
##MAXY=0.014
##MINY=0
##NPOINTS=825
##XYDATA=(X++(Y..Y))
550.0 408 289 279 339 430 959 1739 2205 2111 1400
590.0 744 590 638 892 1458 2411 3344 3789 3644 3042
630.0 2226 1499 1075 928 1014 1229 1488 1869 2455 3199
670.0 3920 4622 5481 6556 7967 9371 10000 9388 7786 5880
710.0 4242 3128 2408 2058 2026 2246 2760 3449 3952 3940
750.0 3518 2927 2402 2046 1697 1286 992 809 635 510
790.0 444 430 423 448 563 762 926 926 775 555
830.0 396 298 285 365 428 404 332 256 191 152
870.0 134 107 91 96 105 102 70 69 108 144
910.0 154 151 156 124 88 58 45 36 15 7
950.0 1 9 17 30 25 16 34 36 41 58
990.0 89 189 290 312 279 192 153 269 523 899
1030.0 1172 1088 727 345 165 153 193 268 383 493
1070.0 583 597 544 422 300 253 237 238 251 248
1110.0 193 167 166 163 179 244 347 477 652 887
1150.0 1118 1315 1530 1637 1637 1673 1744 1809 1813 1702
1190.0 1440 1125 889 714 562 468 397 339 304 295
1230.0 314 333 350 388 465 579 672 682 612 494
1270.0 403 363 342 350 378 379 348 353 361 350
1310.0 365 382 391 410 419 423 422 397 336 266
1350.0 222 178 151 168 168 179 190 198 194 161
1390.0 138 115 113 127 140 171 197 238 328 447
1430.0 611 820 1141 1538 1871 2031 1898 1532 1157 864
1470.0 683 622 685 944 1480 2262 2800 2634 1849 952
1510.0 481 321 234 219 209 197 179 139 115 109
1550.0 104 110 112 143 206 288 374 482 607 707
1590.0 826 939 998 950 779 551 353 241 192 153
1630.0 127 101 96 96 86 98 119 154 161 158
1670.0 159 143 118 96 90 101 77 45 68 97
1710.0 101 105 110 139 172 174 182 217 241 254
1750.0 242 212 191 181 181 173 183 228 284 372
1790.0 479 543 520 413 307 234 196 187 159 127
1830.0 105 84 73 68 71 93 120 152 196 256
1870.0 309 346 366 377 396 400 358 279 186 132
1910.0 120 122 138 161 208 278 348 398 426 435
1950.0 443 435 403 335 235 144 90 75 69 62
1990.0 48 40 46 46 34 32 24 15 20 21
2030.0 20 29 42 30 20 19 14 21 29 26
2070.0 25 27 24 9 0 10 13 17 18 28
2110.0 39 21 7 8 7 9 15 19 28 20
2150.0 18 20 16 25 36 38 30 26 19 17
2190.0 20 26 24 19 16 10 15 13 10 13
2230.0 19 10 1 3 26 37 32 35 38 38
2270.0 29 32 36 37 46 47 55 61 60 69
2310.0 82 114 120 84 60 40 36 50 60 64
2350.0 59 51 37 21 20 21 35 61 56 37
2390.0 27 24 34 59 55 46 51 55 58 54
2430.0 49 32 32 50 46 38 33 37 48 46
2470.0 36 36 27 21 28 26 30 46 52 51
2510.0 52 47 49 44 29 28 25 23 29 42
2550.0 46 29 26 29 33 37 41 53 62 62
2590.0 54 54 59 66 70 71 61 57 53 40
2630.0 39 31 30 52 41 30 30 28 31 33
2670.0 27 26 32 28 27 23 25 19 4 4
2710.0 19 26 27 25 17 23 33 35 28 32
2750.0 44 45 47 36 49 76 68 61 66 61
2790.0 39 24 24 31 31 26 21 38 44 38
2830.0 46 46 48 61 69 76 72 63 73 81
2870.0 85 74 69 76 70 85 111 103 106 117
2910.0 115 118 124 141 138 117 111 139 162 145
2950.0 146 184 240 295 326 333 300 266 248 237
2990.0 225 252 314 399 527 687 921 1235 1704 2337
3030.0 2939 3285 3248 2916 2578 2396 2441 2793 3539 4603
3070.0 5413 5410 4599 3540 2871 2574 2344 2018 1671 1383
3110.0 1121 869 641 446 300 215 174 151 148 137
3150.0 120 142 154 138 135 129 105 91 58 43
3190.0 53 52 41 42 55 31 12 18 29 16
3230.0 23 51 56 54 46 34 26 29 33 36
3270.0 38 48 36 25 20 7 17 21 37 38
3310.0 29 25 23 32 31 23 13 41 59 43
3350.0 32 34 38 38 45 36 45 48 33 20
3390.0 24 21 4 1 35 55 42 46 50 40
3430.0 33 49 70 85 59 40 56 63 47 28
3470.0 39 61 59 53 58 48 30 23 49 64
3510.0 49 50 55 33 39 56 52 56 48 44
3550.0 73 53 51 75 59 73 83 73 88 104
3590.0 95 80 70 71 73 58 69 79 80 88
3630.0 73 66 64 85 108 107 104 103 113 103
3670.0 83 68 73 92 95 83 73 82 104 92
3710.0 67 72 74 47 26 16 13 19 16 23
3750.0 30 40 57 65 75 68 61 53 35 13
3790.0 40 72 65 77 92 90 73 56 65 79
3830.0 93 96 62 37 31
##END=
