##TITLE=4-Hydroxy-1-naphthaldehyde
##JCAMP-DX=4.24
##DATA TYPE=INFRARED SPECTRUM
##ORIGIN=EPA-IR VAPOR PHASE LIBRARY
##OWNER=SRD/NIST
Collection (C) 2018 copyright by the U.S. Secretary of Commerce
on behalf of the United States of America. All rights reserved.
##CAS REGISTRY NO=7770-45-8
##MOLFORM=C 11 H 8 O 2
##$NIST SOURCE=MSDC-IR
##STATE=gas
##XUNITS=1/CM
##YUNITS=ABSORBANCE
##XFACTOR=1.
##YFACTOR=0.001
##DELTAX=1.92898
##FIRSTX=549.8
##LASTX=4000.7
##FIRSTY=1.568
##MAXX=4000.7
##MINX=549.759
##MAXY=0.058558
##MINY=0
##NPOINTS=1790
##XYDATA=(X++(Y..Y))
549.759 1.568 1.778 1.658 1.0459 0.6908 0.7292 0.7599 0.9447 0.9801 0.6982
569.049 0.7247 1.1042 0.9094 0.6589 0.8321 1.0907 1.1153 0.967 1.3359 1.478
588.339 1.2859 1.231 1.1928 1.1418 1.126 1.2169 1.1153 1.0297 1.2406 1.428
607.628 1.568 1.718 1.878 2.188 2.728 3.268 3.788 4.318 4.758 4.808
626.918 4.818 5.018 4.968 4.368 3.828 3.308 2.618 2.158 1.798 1.768
646.208 1.898 1.768 1.588 1.428 1.1141 1.1983 1.3092 1.2763 1.488 1.488
665.498 1.3048 1.173 1.1261 1.0571 1.0334 1.1231 1.2183 1.428 1.3817 1.2924
684.787 1.388 1.508 1.628 1.798 2.128 2.388 2.518 2.748 3.008 3.058
704.077 3.048 2.968 2.798 2.608 2.238 1.928 1.608 1.3454 1.3728 1.3157
723.367 1.3648 1.3312 1.2251 1.3006 1.578 1.758 2.008 2.658 3.398 4.218
742.657 5.038 6.218 7.898 9.818 11.308 12.198 12.958 13.638 13.838 14.238
761.947 15.448 14.658 11.698 10.008 9.678 9.258 8.748 8.478 8.188 7.678
781.236 6.978 6.248 5.908 5.728 5.368 5.228 5.168 5.098 5.208 5.498
800.526 6.128 6.768 7.418 7.888 7.878 7.568 7.288 7.238 7.048 6.698
819.816 6.098 5.358 4.958 4.798 4.588 4.248 3.578 3.048 2.898 2.648
839.106 2.348 2.048 1.808 1.648 1.488 1.418 1.3689 1.2692 1.1435 1.0505
858.395 1.0039 0.8871 0.8673 0.9095 0.7608 0.7362 0.8925 0.886 0.8385 0.7474
877.685 0.6508 0.5582 0.5814 0.8383 0.9171 0.902 0.7851 0.7562 0.8555 0.7039
896.975 0.6997 0.7122 0.7086 0.7783 0.8822 0.9548 0.8138 0.8729 0.8535 0.7108
916.265 0.6363 0.696 0.8659 0.7908 0.6388 0.6129 0.7785 0.7334 0.7548 0.8812
935.555 0.7999 0.9132 0.9085 0.8929 0.9195 0.8641 1.0377 1.0165 0.9227 0.9737
954.844 0.8447 0.8441 1.0871 1.1299 0.9251 0.9668 1.1896 1.3296 1.588 1.828
974.134 1.968 2.078 2.268 2.578 2.908 3.098 3.358 3.738 3.928 4.128
993.424 4.438 4.378 4.258 4.298 4.218 4.498 4.928 5.338 5.958 6.518
1012.714 7.078 7.538 7.908 7.948 7.798 7.628 7.108 6.108 5.118 5.068
1032.003 5.428 6.088 7.198 8.888 10.978 13.118 15.118 16.538 17.438 17.828
1051.293 17.358 16.268 14.868 12.458 9.598 7.378 5.688 4.278 3.408 2.998
1070.583 2.628 2.168 1.778 1.618 1.2542 1.0026 1.1838 1.428 1.478 1.2683
1089.873 1.0825 0.8595 0.5481 1.0431 1.948 1.758 1.488 1.528 1.548 1.638
1109.163 1.928 2.088 2.128 2.178 2.118 2.268 2.608 2.848 3.108 3.448
1128.452 3.798 4.378 5.618 7.188 8.148 8.968 9.728 10.378 10.858 11.098
1147.742 11.208 11.248 11.368 11.578 12.248 13.008 13.208 13.308 13.448 13.298
1167.032 12.928 12.378 11.498 10.528 9.568 8.948 9.388 10.648 11.908 12.968
1186.322 13.748 14.568 15.328 15.848 16.968 18.208 19.488 21.158 22.658 23.788
1205.611 24.928 25.948 26.398 26.438 25.908 23.998 21.078 18.348 15.668 13.338
1224.901 11.688 9.598 7.358 5.818 4.618 4.038 4.068 4.308 4.758 5.338
1244.191 5.968 6.438 6.788 7.088 7.308 7.508 7.438 6.908 6.268 5.668
1263.481 4.948 4.348 3.988 3.888 3.958 4.018 4.268 4.468 4.538 4.668
1282.771 4.538 4.318 4.038 3.608 3.158 2.788 2.468 2.138 1.978 1.938
1302.060 1.918 1.938 2.158 2.448 2.748 3.208 3.658 4.168 4.808 5.508
1321.350 6.208 6.888 7.668 8.498 9.388 10.188 10.728 11.078 11.148 10.878
1340.640 10.488 9.978 9.168 8.148 7.178 6.348 5.588 4.938 4.538 4.368
1359.930 4.288 4.278 4.428 4.548 4.618 4.758 4.878 4.938 5.008 5.028
1379.219 4.978 4.868 4.748 4.698 4.608 4.538 4.558 4.558 4.538 4.648
1398.509 4.718 4.828 4.928 5.038 5.128 5.148 5.188 5.128 4.958 4.718
1417.799 4.508 4.398 4.408 4.438 4.648 5.088 5.568 6.068 6.458 6.638
1437.089 6.698 6.688 6.528 6.148 5.528 4.788 4.088 3.578 3.208 2.918
1456.378 2.728 2.728 2.788 2.878 2.958 2.988 2.978 2.868 2.718 2.578
1475.668 2.458 2.258 2.078 1.868 1.748 1.708 1.748 1.938 2.208 2.598
1494.958 3.138 4.028 5.238 6.808 8.768 10.958 13.198 15.358 17.118 18.238
1514.248 18.658 18.308 17.288 15.718 13.748 11.408 8.848 6.778 5.348 4.328
1533.538 3.698 3.408 3.168 3.028 3.018 3.078 3.248 3.528 3.918 4.428
1552.827 5.028 5.738 6.578 7.478 8.878 10.738 12.858 15.368 18.138 21.138
1572.117 24.268 27.008 29.058 30.368 30.848 30.518 29.288 27.258 24.398 20.968
1591.407 17.658 14.888 12.758 11.118 9.718 8.418 7.398 6.618 5.828 5.388
1610.697 5.298 5.268 5.318 5.478 5.788 6.028 6.048 5.908 5.718 5.498
1629.986 5.148 4.688 4.178 3.658 3.258 2.908 2.608 2.328 2.098 2.018
1649.276 1.968 1.798 1.688 1.758 1.858 1.918 1.948 1.968 2.078 2.148
1668.566 2.188 2.348 2.548 2.708 2.998 3.378 3.668 4.148 4.958 6.138
1687.856 7.838 10.248 13.788 18.798 25.208 32.858 41.058 49.148 55.388 57.978
1707.146 58.558 57.718 53.958 48.178 40.708 31.128 21.298 13.638 8.658 5.748
1726.435 4.148 3.168 2.598 2.218 1.938 1.908 1.858 1.698 1.658 1.688
1745.725 1.608 1.508 1.458 1.448 1.478 1.468 1.428 1.478 1.508 1.488
1765.015 1.538 1.528 1.528 1.578 1.548 1.648 1.778 1.728 1.588 1.398
1784.305 1.2269 1.2067 1.1169 0.9693 0.9224 0.9424 0.9559 0.8687 0.831 0.8925
1803.594 0.9266 0.8846 0.8457 0.8866 0.9096 0.9013 0.9583 1.015 1.0594 1.1026
1822.884 1.0913 1.168 1.3305 1.398 1.448 1.478 1.458 1.518 1.538 1.468
1842.174 1.3557 1.2918 1.235 1.144 1.183 1.1779 1.1671 1.1856 1.1508 1.092
1861.464 1.0519 1.0153 0.986 1.0028 0.9758 0.9671 0.931 0.8635 0.8868 0.8672
1880.754 0.8308 0.8328 0.8434 0.8361 0.7758 0.7223 0.7422 0.7081 0.6744 0.7223
1900.043 0.6884 0.7126 0.739 0.6955 0.76 0.8049 0.8008 0.8052 0.7669 0.7618
1919.333 0.799 0.7935 0.807 0.8655 0.8918 0.9079 0.9385 0.8826 0.8341 0.8673
1938.623 0.8363 0.8376 0.8925 0.8793 0.8344 0.8295 0.8266 0.8382 0.8449 0.8179
1957.913 0.7268 0.646 0.6525 0.6715 0.6779 0.6337 0.649 0.6849 0.6496 0.6202
1977.202 0.5871 0.5618 0.5538 0.525 0.5114 0.5277 0.4817 0.47384 0.5273 0.5535
1996.492 0.46634 0.4026 0.44177 0.44778 0.4907 0.5075 0.5092 0.48291 0.391144 0.38063
2015.782 0.41245 0.46077 0.47509 0.44656 0.42067 0.45022 0.45897 0.397128 0.396347 0.395172
2035.072 0.39259 0.40877 0.40926 0.42721 0.47644 0.4947 0.4911 0.44308 0.38126 0.38459
2054.362 0.40536 0.5091 0.5637 0.5588 0.5641 0.5624 0.5132 0.47324 0.5042 0.44362
2073.651 0.3771 0.44679 0.46633 0.45851 0.46608 0.3806 0.3499 0.343 0.37846 0.396903
2092.941 0.3686 0.3772 0.3716 0.38602 0.392866 0.3406 0.3602 0.41301 0.3659 0.3683
2112.231 0.3778 0.3199 0.3128 0.3181 0.336 0.3356 0.3467 0.390946 0.40509 0.3687
2131.521 0.38491 0.39561 0.3693 0.3563 0.3401 0.3709 0.3274 0.3246 0.3321 0.296
2150.810 0.336 0.387426 0.3545 0.284 0.3077 0.268 0.21 0.2973 0.3411 0.3421
2170.100 0.337 0.3486 0.40124 0.41032 0.42994 0.46525 0.3751 0.3049 0.2908 0.2956
2189.390 0.3343 0.3559 0.40358 0.44744 0.498 0.4927 0.4641 0.46865 0.4949 0.47164
2208.680 0.4935 0.5862 0.5849 0.5618 0.5543 0.5077 0.44285 0.41969 0.42469 0.46574
2227.970 0.47054 0.5331 0.5879 0.4922 0.4214 0.37 0.38221 0.42974 0.4913 0.5044
2247.259 0.5316 0.5669 0.5502 0.5419 0.5413 0.572 0.5629 0.5354 0.5426 0.5783
2266.549 0.5853 0.5224 0.46987 0.4975 0.5659 0.5669 0.5374 0.5509 0.5806 0.6185
2285.839 0.6415 0.6786 0.6537 0.57 0.5197 0.5024 0.5325 0.5495 0.5533 0.5883
2305.129 0.5463 0.5276 0.5665 0.5198 0.4981 0.48789 0.45482 0.47401 0.4909 0.47505
2324.418 0.4916 0.5624 0.5685 0.527 0.504 0.5062 0.5388 0.5807 0.5953 0.5081
2343.708 0.46447 0.46809 0.42593 0.3513 0.41128 0.48252 0.40814 0.41985 0.41202 0.42048
2362.998 0.367 0.3596 0.45234 0.44069 0.44471 0.43984 0.4487 0.45113 0.4905 0.5405
2382.288 0.526 0.5377 0.5912 0.5851 0.5772 0.5295 0.46696 0.5139 0.46337 0.393707
2401.578 0.41976 0.5035 0.5476 0.5426 0.563 0.5936 0.6039 0.6258 0.5975 0.5716
2420.867 0.6837 0.6584 0.59 0.6039 0.5779 0.6495 0.6773 0.6512 0.7013 0.7462
2440.157 0.676 0.5999 0.5825 0.5269 0.46302 0.5057 0.5703 0.5387 0.5221 0.4956
2459.447 0.4967 0.45162 0.44183 0.562 0.5739 0.45818 0.47889 0.5153 0.41855 0.40297
2478.737 0.46585 0.4921 0.47532 0.47169 0.43967 0.44826 0.5224 0.5519 0.5631 0.5602
2498.026 0.564 0.5615 0.5217 0.5588 0.5921 0.5164 0.5696 0.5867 0.5317 0.5451
2517.316 0.4934 0.45118 0.5487 0.6672 0.6594 0.6465 0.6388 0.6381 0.6344 0.6546
2536.606 0.6547 0.6332 0.6226 0.6504 0.6766 0.6211 0.567 0.5716 0.678 0.7346
2555.896 0.6834 0.6431 0.7007 0.7158 0.5597 0.4959 0.5587 0.6138 0.7034 0.7313
2575.186 0.6304 0.5545 0.5749 0.5601 0.5335 0.5547 0.583 0.5688 0.5611 0.5753
2594.475 0.6359 0.6388 0.5933 0.588 0.5973 0.6483 0.7481 0.7335 0.6627 0.736
2613.765 0.7297 0.6984 0.721 0.7227 0.7447 0.726 0.735 0.7936 0.7906 0.7751
2633.055 0.8188 0.8797 0.8684 0.8038 0.8697 0.9196 0.9257 0.9554 0.9681 1.0158
2652.345 0.9695 0.9531 0.9927 1.0061 1.0303 1.0178 1.0518 1.1134 1.0797 1.0411
2671.634 1.0296 1.0643 1.1485 1.3246 1.458 1.538 1.688 1.818 1.978 2.228
2690.924 2.418 2.588 2.858 3.148 3.508 4.018 4.598 5.348 6.378 7.488
2710.214 8.728 10.108 11.238 11.968 12.418 12.588 12.418 11.808 10.838 9.658
2729.504 8.368 7.108 6.048 5.188 4.458 3.908 3.478 3.238 3.028 2.788
2748.794 2.778 2.688 2.578 2.608 2.588 2.598 2.578 2.538 2.518 2.408
2768.083 2.428 2.488 2.578 2.538 2.418 2.348 2.258 2.338 2.338 2.368
2787.373 2.588 2.788 2.878 2.898 2.858 2.918 2.898 2.868 2.928 2.948
2806.663 3.018 2.918 2.828 2.878 2.938 2.868 2.848 2.808 2.808 2.978
2825.953 3.118 3.268 3.428 3.558 3.738 3.878 3.968 3.968 3.918 3.878
2845.242 3.798 3.658 3.508 3.348 3.088 2.868 2.648 2.438 2.268 2.008
2864.532 1.808 1.688 1.528 1.478 1.418 1.2949 1.2537 1.143 1.0707 1.1219
2883.822 1.1567 1.1152 1.0858 1.0525 0.9999 1.0133 1.0221 1.0081 0.9087 0.8091
2903.112 0.853 0.7816 0.7868 0.8212 0.6563 0.5754 0.5901 0.6818 0.684 0.7814
2922.401 0.7505 0.6285 0.721 0.7693 0.7244 0.7355 0.7039 0.6454 0.7236 0.7205
2941.691 0.6699 0.677 0.7012 0.6291 0.5484 0.5446 0.5341 0.6898 0.7173 0.7682
2960.981 0.783 0.7495 0.7919 0.7113 0.7 0.6631 0.7521 0.8693 0.86 0.7424
2980.271 0.709 0.8139 0.8429 0.9096 0.9098 0.8673 0.9661 0.9509 0.8679 0.9058
2999.561 1.0088 1.1599 1.2595 1.3161 1.418 1.568 1.788 1.918 2.038 2.198
3018.850 2.318 2.508 2.488 2.558 2.838 3.038 3.158 3.268 3.468 3.758
3038.140 4.008 4.248 4.308 4.358 4.538 4.478 4.428 4.338 4.138 4.018
3057.430 3.928 3.838 3.848 3.898 3.898 4.048 4.068 4.048 4.118 4.098
3076.720 4.158 4.178 4.208 4.168 4.158 4.288 4.198 4.048 3.978 3.818
3096.009 3.658 3.468 3.248 3.058 2.738 2.328 2.068 1.848 1.588 1.3102
3115.299 1.0985 1.0312 0.8391 0.744 0.6963 0.6749 0.5684 0.44087 0.5554 0.5836
3134.589 0.47837 0.43885 0.41487 0.3092 0.43079 0.5484 0.5324 0.5072 0.48765 0.42112
3153.879 0.41528 0.38329 0.2886 0.3392 0.376 0.47553 0.41446 0.254 0.3485 0.5306
3173.169 0.46394 0.3024 0.3116 0.3244 0.41467 0.44948 0.42038 0.41196 0.40801 0.46118
3192.458 0.5165 0.5947 0.5863 0.5477 0.5148 0.42409 0.3559 0.261 0.3283 0.45387
3211.748 0.4181 0.41409 0.4575 0.43778 0.46226 0.4924 0.3967 0.3636 0.43816 0.4977
3231.038 0.5326 0.387738 0.2 0.173 0.216 0.3262 0.396419 0.261 0.228 0.32
3250.328 0.287 0.3042 0.3368 0.3569 0.41761 0.41656 0.3402 0.3376 0.3591 0.503
3269.617 0.5183 0.38471 0.45885 0.45361 0.39853 0.3589 0.43659 0.46437 0.41452 0.5705
3288.907 0.6337 0.5852 0.4964 0.43823 0.4952 0.5595 0.5081 0.42589 0.42469 0.3764
3308.197 0.43087 0.44077 0.4454 0.4219 0.3823 0.5096 0.4715 0.390625 0.41064 0.45733
3327.487 0.4917 0.4232 0.45842 0.4917 0.41993 0.41214 0.43994 0.3727 0.40541 0.5346
3346.777 0.42434 0.3472 0.5033 0.5855 0.5482 0.396281 0.44608 0.6149 0.5816 0.5075
3366.066 0.337 0.38038 0.387781 0.39918 0.6568 0.7301 0.712 0.7525 0.7647 0.7342
3385.356 0.8293 1.0269 1.0579 1.148 1.3558 1.2978 1.1993 1.2034 1.1909 1.0701
3404.646 0.8857 0.8057 0.7062 0.6882 0.5848 0.41453 0.3685 0.3706 0.249 0.186
3423.936 0.237 0.279 0.247 0.256 0.3245 0.40126 0.3232 0.147 0.193 0.217
3443.225 0.204 0.145 0.149 0.088 0.116 0.2949 0.247 0.133 0.225 0.252
3462.515 0.118 0.185 0.3267 0.42266 0.388914 0.3165 0.3657 0.46239 0.43568 0.38406
3481.805 0.275 0.234 0.279 0.265 0.269 0.231 0.189 0.14 0.208 0.196
3501.095 0.164 0.269 0.38371 0.396633 0.3718 0.41658 0.42302 0.46288 0.342 0.157
3520.385 0.259 0.268 0.253 0.42168 0.285 0.103 0.138 0.145 0.14 0.124
3539.674 0.158 0.2992 0.3402 0.253 0.273 0.3336 0.3361 0.202 0.104 0.136
3558.964 0.226 0.25 0.242 0.238 0.097 0.142 0.199 0.25 0.272 0.232
3578.254 0.3567 0.44162 0.394193 0.26 0.204 0.207 0.2916 0.43774 0.45722 0.3494
3597.544 0.3574 0.40326 0.3737 0.42237 0.47067 0.46257 0.5254 0.7254 0.7973 0.8287
3616.833 1.0439 1.2922 1.668 2.118 2.508 3.188 4.368 5.908 8.058 10.858
3636.123 13.778 16.368 17.968 18.458 18.318 17.738 17.038 15.548 12.788 9.438
3655.413 6.478 4.488 3.128 2.188 1.498 1.1378 0.9376 0.7123 0.6576 0.6773
3674.703 0.5881 0.4928 0.514 0.5062 0.286 0.241 0.3776 0.40849 0.45641 0.33
3693.993 0.268 0.2972 0.3165 0.46995 0.513 0.38932 0.199 0.139 0.126 0.103
3713.282 0.2939 0.43305 0.3586 0.243 0.167 0.145 0.108 0.051 0.124 0.115
3732.572 0.123 0.139 0.156 0.181 0.167 0.2969 0.247 0.2896 0.176 0.126
3751.862 0.289 0.261 0.42563 0.46894 0.336 0.234 0.2975 0.3452 0.40291 0.3756
3771.152 0.272 0.179 0.103 0.3194 0.43285 0.3297 0.263 0.201 0.131 0.119
3790.441 0.231 0.213 0.106 0.052 0.201 0.41893 0.366 0.226 0.3033 0.545
3809.731 0.6037 0.5484 0.41195 0.3518 0.3109 0.3254 0.38296 0.39197 0.38017 0.43309
3829.021 0.44462 0.4923 0.42811 0.186 0.22 0.283 0.314 0.2981 0.3069 0.3765
3848.311 0.41244 0.3776 0.218 0.081 0.158 0.2954 0.3442 0.266 0.198 0.261
3867.601 0.294 0.38669 0.5358 0.3068 0.138 0.173 0.143 0.102 0.074 0.191
3886.890 0.149 0.086 0.084 0.264 0.46727 0.3219 0.245 0.269 0.207 0.228
3906.180 0.24 0.111 0.035 0.192 0.282 0.241 0.264 0.3321 0.3514 0.347
3925.470 0.3398 0.277 0.123 0.197 0.3157 0.3766 0.46634 0.43532 0.3361 0.274
3944.760 0.247 0 0.1 0.44123 0.43862 0.3643 0.3114 0.265 0.45642 0.45313
3964.049 0.3443 0.392767 0.42088 0.3715 0.3551 0.3297 0.3229 0.42861 0.3221 0.224
3983.339 0.2919 0.3015 0.2916 0.239 0.19 0.212 0.206 0.076 0.13 0.19
##END=
