##TITLE=2,2-Diphenylpropane
##JCAMP-DX=4.24
##DATA TYPE=INFRARED SPECTRUM
##ORIGIN=NIST Mass Spectrometry Data Center
##OWNER=NIST Standard Reference Data Program
Collection (C) 2018 copyright by the U.S. Secretary of Commerce
on behalf of the United States of America. All rights reserved.
##CAS REGISTRY NO=778-22-3
##MOLFORM=C 15 H 16
##$NIST SOURCE=MSDC-IR
##SPECTROMETER/DATA SYSTEM=HP-GC/MS/IRD
##STATE=gas
##XUNITS=1/CM
##YUNITS=ABSORBANCE
##XFACTOR=1.0
##YFACTOR=0.000003200
##DELTAX=4.0
##FIRSTX=550.0
##LASTX=3846.0
##FIRSTY=0.001994
##MAXX=3846
##MINX=550
##MAXY=0.032
##MINY=0
##NPOINTS=825
##XYDATA=(X++(Y..Y))
550.0 623 999 892 1103 1274 1327 1191 908 647 574
590.0 677 782 794 632 389 227 160 137 110 96
630.0 105 125 130 132 161 228 354 483 602 764
670.0 991 1304 1776 2553 3832 5731 7817 8858 8161 6206
710.0 4093 2633 1756 1250 989 902 976 1200 1593 2207
750.0 2944 3510 3606 3243 2691 2093 1539 1101 825 721
790.0 687 601 485 390 299 207 135 106 95 78
830.0 69 59 37 19 19 7 1 4 4 8
870.0 25 47 57 67 83 104 131 178 233 238
910.0 208 172 144 141 145 152 151 122 79 56
950.0 51 44 31 31 37 39 42 51 57 65
990.0 78 100 148 219 280 371 568 952 1668 2359
1030.0 2535 2140 1357 703 415 357 402 532 711 819
1070.0 813 749 767 923 1052 1018 823 560 381 308
1110.0 262 197 116 73 64 55 48 54 46 43
1150.0 32 5 7 18 27 43 52 84 182 324
1190.0 432 455 390 325 343 427 554 737 948 1105
1230.0 1155 1102 985 840 695 564 457 373 336 326
1270.0 336 360 384 369 330 278 232 222 217 201
1310.0 173 137 102 81 70 67 72 87 112 164
1350.0 253 409 673 1001 1342 1505 1421 1310 1252 1202
1390.0 1117 933 680 480 368 328 337 376 450 572
1430.0 771 1082 1473 1806 1925 1802 1591 1444 1436 1510
1470.0 1595 1667 1798 2176 2945 3858 4225 3732 2623 1507
1510.0 865 616 499 441 407 380 349 306 251 208
1550.0 179 157 164 195 244 324 446 632 898 1235
1590.0 1579 1808 1855 1698 1386 1011 668 427 290 210
1630.0 160 123 99 93 102 114 127 142 156 165
1670.0 166 156 144 121 102 95 86 79 77 81
1710.0 88 92 105 123 143 165 178 186 183 171
1750.0 153 132 118 115 121 140 169 211 276 369
1790.0 477 543 518 433 322 239 192 150 114 95
1830.0 87 85 90 101 124 159 202 247 283 310
1870.0 335 349 349 331 286 233 183 158 148 127
1910.0 113 122 149 185 242 320 408 473 486 466
1950.0 437 396 325 230 141 87 65 58 50 42
1990.0 39 36 30 25 23 27 27 24 21 20
2030.0 15 14 19 17 14 8 12 18 21 17
2070.0 14 18 18 17 16 19 21 11 1 2
2110.0 11 12 6 12 17 14 11 13 11 11
2150.0 16 17 13 7 15 23 17 17 19 18
2190.0 18 16 14 11 9 10 6 3 7 7
2230.0 2 1 5 11 15 9 8 11 11 12
2270.0 14 14 12 12 12 15 17 19 23 35
2310.0 51 65 70 57 36 23 21 26 33 41
2350.0 50 50 39 28 29 32 35 37 40 41
2390.0 38 40 33 27 41 41 31 30 28 30
2430.0 29 26 28 29 31 27 24 26 31 26
2470.0 20 20 30 33 23 20 16 18 31 37
2510.0 34 30 32 37 40 35 34 33 26 22
2550.0 27 34 31 36 46 45 50 58 61 54
2590.0 53 56 63 59 46 41 49 49 46 48
2630.0 44 49 52 54 54 53 50 46 47 54
2670.0 58 54 52 55 58 52 51 54 52 57
2710.0 62 53 52 63 63 61 71 78 71 71
2750.0 78 72 68 78 96 106 103 98 83 76
2790.0 88 87 93 108 127 150 166 180 186 189
2830.0 198 203 222 266 318 364 425 503 587 720
2870.0 926 1200 1472 1673 1751 1722 1643 1558 1503 1464
2910.0 1476 1543 1630 1744 1913 2126 2374 2604 2768 2837
2950.0 2817 2805 2980 3640 5300 7747 9672 10000 8446 6039
2990.0 4057 2671 1821 1405 1269 1348 1599 1980 2439 2961
3030.0 3448 3754 3783 3570 3312 3288 3699 4494 5465 6180
3070.0 6201 5563 4650 3986 3720 3508 3122 2597 2072 1650
3110.0 1324 1055 807 607 466 371 314 271 249 235
3150.0 227 217 205 195 172 152 146 125 107 106
3190.0 98 100 101 99 95 91 91 87 85 91
3230.0 98 88 73 87 92 87 86 90 106 98
3270.0 96 113 107 102 104 92 75 68 69 55
3310.0 38 40 61 68 66 59 51 44 30 28
3350.0 18 19 31 36 42 50 41 26 29 34
3390.0 37 40 35 25 20 30 27 21 10 12
3430.0 17 7 21 27 27 22 32 50 36 4
3470.0 3 16 28 34 15 10 14 9 0 10
3510.0 11 21 26 6 2 8 0 9 22 10
3550.0 4 8 11 20 32 33 21 11 9 6
3590.0 7 11 10 16 18 9 13 17 21 29
3630.0 34 38 29 30 32 32 48 47 24 16
3670.0 26 36 42 41 44 45 42 32 32 42
3710.0 36 35 36 38 57 48 19 22 41 41
3750.0 27 40 64 64 51 52 44 28 23 16
3790.0 24 34 20 9 29 40 46 53 42 24
3830.0 10 15 18 18 45
##END=
