##TITLE=2,2,4,4,6,6-Hexamethylcyclohexane-1,3,5-trione
##JCAMP-DX=4.24
##DATA TYPE=INFRARED SPECTRUM
##ORIGIN=NIST Mass Spectrometry Data Center
##OWNER=NIST Standard Reference Data Program
Collection (C) 2018 copyright by the U.S. Secretary of Commerce
on behalf of the United States of America. All rights reserved.
##CAS REGISTRY NO=778-18-7
##MOLFORM=C 12 H 18 O 3
##$NIST SOURCE=MSDC-IR
##SPECTROMETER/DATA SYSTEM=HP-GC/MS/IRD
##STATE=gas
##XUNITS=1/CM
##YUNITS=ABSORBANCE
##XFACTOR=1.0
##YFACTOR=0.000004500
##DELTAX=4.0
##FIRSTX=550.0
##LASTX=3846.0
##FIRSTY=0.000221
##MAXX=3846
##MINX=550
##MAXY=0.045
##MINY=0
##NPOINTS=825
##XYDATA=(X++(Y..Y))
550.0 49 38 43 38 30 35 31 23 24 33
590.0 17 1 15 34 42 50 56 59 54 44
630.0 45 53 58 55 52 37 31 43 43 45
670.0 66 72 64 56 49 54 47 49 60 52
710.0 54 66 59 47 54 65 64 66 69 70
750.0 72 79 83 80 75 74 67 66 68 63
790.0 68 65 65 72 89 87 79 77 76 85
830.0 99 102 110 147 210 290 370 443 476 454
870.0 390 306 223 164 127 109 99 93 91 91
910.0 98 101 100 102 103 104 112 125 145 177
950.0 211 237 248 241 233 224 231 256 292 345
990.0 418 507 606 699 779 864 953 1051 1180 1370
1030.0 1648 2013 2432 2821 3087 3153 2977 2588 2077 1582
1070.0 1192 917 738 623 544 500 484 473 473 479
1110.0 469 442 393 338 284 238 214 197 182 180
1150.0 186 192 198 204 210 233 273 316 369 431
1190.0 479 510 518 512 493 466 450 440 432 426
1230.0 420 427 456 491 556 648 766 900 1038 1154
1270.0 1217 1215 1139 1016 870 714 567 445 349 278
1310.0 229 195 171 156 143 133 133 133 143 165
1350.0 198 258 368 520 735 959 1208 1626 2088 2359
1390.0 2224 1708 1069 615 418 334 299 286 294 321
1430.0 367 437 535 659 797 935 1062 1205 1365 1497
1470.0 1535 1435 1210 925 656 466 354 291 248 213
1510.0 191 176 161 149 143 136 127 116 112 113
1550.0 112 105 98 102 108 104 96 98 104 102
1590.0 105 109 113 116 124 136 145 156 166 183
1630.0 203 217 244 274 298 322 357 414 476 562
1670.0 674 808 993 1257 1685 2427 3675 5566 7786 9540
1710.0 10000 8865 6632 4333 2772 1896 1379 1053 838 695
1750.0 593 516 459 414 368 329 301 273 242 218
1790.0 195 172 157 141 127 118 107 97 88 82
1830.0 78 71 64 54 45 42 41 40 39 39
1870.0 36 35 38 38 35 38 39 37 40 41
1910.0 37 36 39 36 34 33 35 36 29 27
1950.0 30 30 29 28 29 30 30 35 39 35
1990.0 31 33 31 35 37 37 31 30 31 31
2030.0 33 32 31 27 26 29 31 30 27 26
2070.0 25 22 22 21 21 23 20 18 21 22
2110.0 22 24 21 20 22 23 21 23 25 27
2150.0 26 25 26 28 27 23 24 26 26 27
2190.0 24 22 26 27 26 27 30 30 31 30
2230.0 27 27 26 24 23 21 20 18 14 14
2270.0 15 17 15 12 16 17 15 14 16 20
2310.0 23 25 28 27 22 17 13 13 15 18
2350.0 17 13 12 14 17 15 12 8 12 15
2390.0 13 11 13 13 8 10 13 16 20 18
2430.0 18 19 22 22 18 20 23 20 16 16
2470.0 17 18 19 19 16 13 13 14 12 11
2510.0 8 7 9 7 7 7 5 7 10 11
2550.0 13 15 11 11 11 12 10 9 10 8
2590.0 7 6 8 7 4 4 2 2 7 9
2630.0 10 10 11 11 15 16 11 9 7 7
2670.0 8 9 15 12 9 12 10 7 6 7
2710.0 11 12 15 16 16 18 20 20 20 25
2750.0 25 18 19 22 20 22 20 20 23 28
2790.0 32 36 42 51 61 64 67 72 71 77
2830.0 80 83 86 91 102 119 143 171 214 283
2870.0 378 492 604 684 712 690 631 570 530 520
2910.0 526 547 585 631 701 809 958 1162 1417 1651
2950.0 1764 1690 1480 1242 1096 1117 1333 1723 2225 2734
2990.0 3095 3153 2839 2270 1636 1099 727 485 340 257
3030.0 201 163 136 115 105 94 85 81 76 76
3070.0 76 72 69 69 67 63 57 56 58 53
3110.0 50 51 54 55 54 57 60 68 66 58
3150.0 55 56 58 59 57 55 63 68 62 55
3190.0 50 46 51 55 52 46 46 50 50 48
3230.0 44 39 38 39 43 40 29 27 34 36
3270.0 34 36 31 30 25 25 33 29 24 23
3310.0 23 23 30 33 27 29 31 29 33 35
3350.0 29 26 23 23 35 43 41 40 48 65
3390.0 79 88 111 136 147 152 147 135 121 108
3430.0 96 90 95 106 108 105 98 81 67 55
3470.0 43 32 28 26 21 18 20 23 21 20
3510.0 19 17 16 16 13 13 19 19 19 16
3550.0 11 17 21 16 14 14 17 18 17 15
3590.0 12 12 16 10 1 4 10 11 12 11
3630.0 9 18 19 7 12 13 9 10 13 8
3670.0 0 3 10 11 14 16 15 13 17 20
3710.0 17 12 11 13 13 9 4 11 16 12
3750.0 12 13 18 20 18 16 15 11 17 25
3790.0 17 8 7 6 11 15 14 14 12 12
3830.0 16 20 22 22 20
##END=
