##TITLE=Dimethyldiphenylsilane
##JCAMP-DX=4.24
##DATA TYPE=INFRARED SPECTRUM
##ORIGIN=EPA-IR VAPOR PHASE LIBRARY
##OWNER=SRD/NIST
Collection (C) 2018 copyright by the U.S. Secretary of Commerce
on behalf of the United States of America. All rights reserved.
##CAS REGISTRY NO=778-24-5
##MOLFORM=C 14 H 16 Si
##$NIST SOURCE=MSDC-IR
##STATE=gas
##XUNITS=1/CM
##YUNITS=ABSORBANCE
##XFACTOR=1.
##YFACTOR=0.001
##DELTAX=1.92934
##FIRSTX=549.9
##LASTX=3999.5
##FIRSTY=2.9221
##MAXX=3999.53
##MINX=549.863
##MAXY=0.24522
##MINY=0
##NPOINTS=1789
##XYDATA=(X++(Y..Y))
549.863 2.9221 2.7441 2.8866 2.8145 2.6947 2.7324 2.9071 3.0142 2.8758 2.8971
569.156 2.9672 2.8294 2.822 2.788 2.7972 2.8532 2.8059 2.8759 2.9675 3.0859
588.450 3.1256 3.1849 3.3054 3.32 3.39 3.51 3.72 3.92 4.25 4.66
607.743 5.02 5.36 5.76 6.2 6.63 7.15 7.65 8.33 9.22 10.23
627.037 11.68 13.52 15.77 18.38 20.99 23.34 25.16 26.2 26.28 25.54
646.330 24.22 22.26 20.05 17.91 16.03 14.81 14.21 14.25 14.92 15.95
665.624 17.37 19.32 21.77 24.63 27.87 31.7 36.23 41.58 48.04 55.54
684.917 64.15 74.05 85.09 97.01 109.4 121.37 131.85 139.84 144.36 145.33
704.210 143.56 139.38 132.69 124.47 116.63 110.66 107.28 106.56 108.01 110.86
723.504 114.18 116.95 118.38 117.79 114.82 109.72 102.95 95.23 87.17 79.07
742.797 71.26 64.04 57.7 52.3 47.92 44.55 42.18 40.87 40.56 41.37
762.091 43.38 46.69 51.24 56.81 63.15 69.62 75.61 80.43 82.47 80.4
781.384 75.57 69.93 64.04 58.35 53.49 50.07 48.56 48.92 51.06 55.22
800.678 61.71 70.79 83.16 99.87 121.61 148.06 177.11 204.72 226.7 240.57
819.971 245.22 240.81 228.24 210.64 192.66 176.82 163.22 151 139.36 127.61
839.264 115.55 103.49 91.9 81.38 72.14 64.17 57.47 51.87 47.22 43.34
858.558 40.09 37.41 35.05 33.02 31.27 29.64 28.14 26.81 25.48 24.16
877.851 23.01 21.93 20.82 19.79 18.82 17.84 16.97 16.11 15.23 14.41
897.145 13.62 12.91 12.25 11.58 10.96 10.34 9.78 9.32 8.82 8.35
916.438 7.93 7.54 7.2 6.93 6.74 6.55 6.4 6.26 6.18 6.17
935.732 6.15 6.08 5.93 5.86 5.77 5.62 5.47 5.24 5 4.81
955.025 4.59 4.39 4.21 4.05 3.92 3.77 3.65 3.56 3.48 3.46
974.318 3.39 3.33 3.36 3.43 3.5 3.62 3.88 4.34 5.24 6.66
993.612 8.19 9.09 9.43 9.41 9 8.17 6.61 5.04 4.06 3.53
1012.905 3.2996 3.2112 3.2287 3.3148 3.51 3.79 4.07 4.21 4.22 4.19
1032.199 4.07 3.8 3.49 3.36 3.43 3.57 3.7 3.92 4.17 4.35
1051.492 4.55 4.73 4.86 4.95 5.04 5.16 5.27 5.29 5.4 5.58
1070.786 5.76 6.08 6.6 7.28 8.2 9.48 11.15 13.29 16.06 19.76
1090.079 24.93 31.98 41.45 53.84 69.37 87.54 106.68 124.34 137.91 145.42
1109.372 145.91 139.67 127.86 112.6 96.89 83.36 72.68 63.87 56.29 49.23
1128.666 42.34 35.83 29.73 24.21 19.51 15.77 12.82 10.55 9.08 8
1147.959 7.11 6.44 5.89 5.56 5.39 5.17 5 4.86 4.81 4.83
1167.253 4.88 4.94 4.86 4.89 5.04 5.33 5.7 6.31 7.57 9.44
1186.546 11.62 13.57 14.82 15.36 15.38 14.58 12.97 10.76 8.8 7.38
1205.840 6.34 5.44 4.9 4.65 4.39 4.48 4.78 5.07 5.47 6.24
1225.133 6.88 7.87 9.33 10.7 12.45 14.92 17.96 21.75 26.76 33.15
1244.426 41 50.3 60.7 71.59 82.41 90.97 93.88 90.93 84.69 76.41
1263.720 66.31 55.43 45 36.15 29.33 24.42 20.98 18.58 16.93 15.84
1283.013 15.07 14.55 14.22 13.91 13.71 13.58 13.48 13.34 13.2 12.96
1302.307 12.72 12.52 12.31 12.1 11.86 11.61 11.41 11.2 10.91 10.63
1321.600 10.39 10.1 9.82 9.59 9.35 9.13 8.94 8.74 8.47 8.13
1340.894 7.77 7.42 7.09 6.79 6.46 6.24 6.07 5.9 5.84 5.8
1360.187 5.78 5.78 5.76 5.78 5.75 5.68 5.64 5.59 5.57 5.57
1379.480 5.6 5.7 5.85 6.09 6.4 6.83 7.41 8.12 9 10.06
1398.774 11.31 12.72 14.24 15.91 17.7 19.6 21.5 23.51 25.64 27.81
1418.067 30.09 32.28 34.08 35.36 35.92 35.77 34.88 33.25 30.99 28.25
1437.361 25.16 22.01 18.97 16.3 14.1 12.3 10.84 9.67 8.75 7.91
1456.654 7.2 6.71 6.26 5.84 5.47 5.22 5.07 4.97 4.95 5.02
1475.948 5.22 5.63 6.19 6.91 7.68 8.22 8.41 8.27 7.83 7.14
1495.241 6.14 4.99 4.11 3.6 3.319 3.1113 2.9647 2.9668 2.9853 2.9743
1514.534 2.9696 2.9305 2.9814 3.0142 3.0562 3.1801 3.302 3.42 3.51 3.6
1533.828 3.71 3.87 3.97 4.03 4.16 4.3 4.4 4.51 4.56 4.57
1553.121 4.58 4.61 4.62 4.63 4.74 4.85 4.9 4.93 4.96 5.02
1572.415 5.07 5.1 5.13 5.17 5.21 5.25 5.3 5.27 5.15 5
1591.708 4.83 4.6 4.34 4.15 4 3.94 3.97 4 3.99 3.97
1611.002 3.91 3.78 3.59 3.44 3.37 3.34 3.34 3.41 3.53 3.75
1630.295 4.05 4.41 4.82 5.22 5.56 5.74 5.73 5.55 5.25 4.85
1649.588 4.46 3.99 3.54 3.2959 3.1461 3.0073 2.8112 2.6888 2.6401 2.559
1668.882 2.5338 2.5225 2.4973 2.4846 2.4224 2.39329 2.4364 2.38867 2.34221 2.37772
1688.175 2.36222 2.38472 2.40592 2.32025 2.2591 2.2482 2.2209 2.2825 2.2739 2.157
1707.469 2.126 2.145 2.154 2.147 2.098 2.034 2.038 2.01 1.984 2.011
1726.762 2.042 2.089 2.148 2.184 2.288 2.39491 2.4513 2.5888 2.7945 2.9807
1746.056 3.108 3.2248 3.34 3.47 3.55 3.56 3.52 3.43 3.309 3.2897
1765.349 3.2675 3.2541 3.3161 3.37 3.42 3.44 3.4 3.34 3.259 3.0967
1784.642 3.0105 3.0546 3.1782 3.42 3.8 4.36 5.09 5.94 6.92 7.95
1803.936 8.88 9.62 10.12 10.2 9.88 9.31 8.54 7.69 6.8 6.04
1823.229 5.45 4.95 4.55 4.21 3.9 3.62 3.43 3.2746 3.1103 3.0386
1842.523 2.9826 2.9301 2.8825 2.9101 3.0173 3.1517 3.32 3.52 3.75 4.01
1861.816 4.33 4.72 5.11 5.49 5.88 6.31 6.71 7.06 7.43 7.81
1881.110 8.24 8.64 8.99 9.19 9.14 8.87 8.32 7.52 6.63 5.7
1900.403 4.82 4.13 3.61 3.2785 3.0995 2.9911 2.942 2.9421 2.9579 2.9957
1919.696 3.1016 3.2288 3.39 3.61 3.85 4.14 4.47 4.87 5.26 5.63
1938.990 6.07 6.52 6.94 7.28 7.61 7.91 8.18 8.39 8.51 8.53
1958.283 8.45 8.17 7.67 7 6.21 5.46 4.69 3.94 3.37 2.9843
1977.577 2.7202 2.5265 2.4262 2.32668 2.2359 2.176 2.137 2.127 2.082 2.044
1996.870 2.048 2.073 2.093 2.082 2.068 2.074 2.05 2.032 2.053 2.053
2016.164 2.078 2.074 2.058 2.065 2.066 2.093 2.122 2.114 2.103 2.093
2035.457 2.082 2.104 2.1 2.064 2.015 2.015 2.039 2.009 1.971 1.934
2054.750 1.883 1.845 1.8 1.75 1.739 1.704 1.666 1.674 1.68 1.688
2074.044 1.68 1.688 1.696 1.689 1.697 1.688 1.691 1.732 1.768 1.764
2093.337 1.732 1.731 1.739 1.716 1.715 1.723 1.717 1.724 1.76 1.756
2112.631 1.735 1.734 1.723 1.714 1.723 1.736 1.739 1.769 1.816 1.827
2131.924 1.839 1.861 1.838 1.807 1.814 1.838 1.837 1.831 1.807 1.789
2151.218 1.767 1.719 1.713 1.724 1.708 1.672 1.637 1.627 1.645 1.664
2170.511 1.65 1.654 1.679 1.725 1.752 1.713 1.708 1.724 1.713 1.711
2189.804 1.721 1.744 1.747 1.727 1.728 1.722 1.77 1.848 1.899 1.916
2209.098 1.918 1.983 2.044 2.043 2.036 2.042 2.049 2.054 2.02 1.957
2228.391 1.888 1.867 1.87 1.844 1.82 1.785 1.745 1.74 1.742 1.757
2247.685 1.754 1.74 1.745 1.752 1.737 1.748 1.784 1.764 1.722 1.714
2266.978 1.737 1.732 1.726 1.746 1.759 1.75 1.758 1.815 1.835 1.81
2286.272 1.813 1.813 1.782 1.82 1.867 1.851 1.879 1.938 1.989 2.076
2305.565 2.193 2.33166 2.5091 2.6852 2.7542 2.6854 2.6157 2.5382 2.33931 2.119
2324.858 1.985 1.885 1.814 1.804 1.84 1.845 1.839 1.89 1.914 1.925
2344.152 1.993 2.06 2.093 2.085 2.101 2.083 2.018 2 2.004 1.978
2363.445 1.931 1.866 1.775 1.716 1.689 1.686 1.69 1.662 1.652 1.646
2382.739 1.631 1.605 1.632 1.678 1.649 1.643 1.663 1.66 1.626 1.587
2402.032 1.571 1.554 1.572 1.598 1.611 1.592 1.57 1.552 1.524 1.487
2421.326 1.479 1.501 1.487 1.447 1.431 1.442 1.445 1.406 1.391 1.427
2440.619 1.45 1.453 1.462 1.492 1.512 1.503 1.47 1.465 1.473 1.468
2459.912 1.473 1.475 1.469 1.451 1.452 1.445 1.418 1.444 1.475 1.47
2479.206 1.476 1.525 1.566 1.596 1.644 1.692 1.746 1.766 1.734 1.733
2498.499 1.715 1.713 1.696 1.606 1.537 1.488 1.487 1.516 1.528 1.525
2517.793 1.488 1.473 1.518 1.51 1.46 1.451 1.47 1.491 1.509 1.526
2537.086 1.545 1.528 1.535 1.535 1.502 1.51 1.522 1.554 1.589 1.591
2556.380 1.6 1.586 1.609 1.617 1.591 1.616 1.637 1.678 1.751 1.816
2575.673 1.871 1.913 2 2.098 2.136 2.163 2.116 2.053 1.996 1.888
2594.966 1.84 1.864 1.867 1.827 1.792 1.795 1.853 1.884 1.86 1.91
2614.260 1.965 1.971 1.932 1.893 1.851 1.756 1.69 1.606 1.506 1.514
2633.553 1.538 1.528 1.498 1.511 1.536 1.516 1.532 1.526 1.504 1.52
2652.847 1.56 1.594 1.591 1.6 1.667 1.669 1.676 1.686 1.717 1.778
2672.140 1.802 1.864 1.924 1.999 2.05 2.075 2.114 2.178 2.251 2.2794
2691.434 2.2483 2.2507 2.2609 2.2306 2.187 2.055 1.957 1.93 1.854 1.769
2710.727 1.658 1.599 1.563 1.491 1.477 1.478 1.466 1.481 1.486 1.456
2730.020 1.421 1.429 1.46 1.474 1.513 1.513 1.486 1.506 1.557 1.598
2749.314 1.597 1.623 1.618 1.662 1.741 1.749 1.837 1.912 1.943 1.981
2768.607 1.998 2.104 2.209 2.2505 2.31486 2.40725 2.5179 2.7191 2.8716 2.9914
2787.901 3.227 3.41 3.56 3.72 3.87 4.02 4.21 4.38 4.58 4.78
2807.194 4.82 4.92 5 5.01 5 4.9 4.89 4.85 4.72 4.66
2826.488 4.59 4.51 4.4 4.27 4.23 4.23 4.26 4.34 4.43 4.49
2845.781 4.55 4.61 4.66 4.79 4.9 4.89 4.91 5 5.01 5.1
2865.074 5.19 5.17 5.28 5.48 5.64 5.9 6.3 6.71 7.12 7.56
2884.368 8.18 8.88 9.68 10.74 11.91 13.2 14.39 15.65 16.9 17.85
2903.661 18.54 18.88 18.85 18.46 17.71 16.66 15.47 14.25 12.98 11.72
2922.955 10.72 9.87 9.19 8.77 8.55 8.47 8.51 8.81 9.36 10.21
2942.248 11.36 13.01 15.3 18.24 22.31 27.71 34.6 42.92 51.71 59.64
2961.542 65.48 68.38 68.06 64.52 58.27 50.52 42.59 35.71 30.24 26.01
2980.835 22.82 20.48 19.15 18.57 18.6 19.13 20.06 21.31 22.96 24.95
3000.128 27.06 29.7 32.75 35.99 39.39 42.76 45.63 47.59 48.46 48.42
3019.422 47.32 45.16 42.65 39.98 37.59 35.88 34.71 33.85 33.49 33.61
3038.715 34.34 35.99 38.91 43.45 50.06 59.31 71.27 85.51 100.42 113.28
3058.009 121.79 125.32 124.29 119.38 111.3 101.32 92.67 87.24 83.79 80.88
3077.302 77.7 73.84 69.29 64.26 59.21 54.16 48.94 43.77 38.63 33.62
3096.596 28.9 24.43 20.28 16.68 13.95 12 10.45 9.32 8.53 8.02
3115.889 7.73 7.43 7.28 7.33 7.46 7.6 7.79 7.9 8 8.1
3135.182 7.98 7.71 7.28 6.64 5.87 4.98 4.16 3.55 3.0382 2.7055
3154.476 2.5152 2.3442 2.2837 2.2512 2.13 2.089 2.096 2.104 2.208 2.216
3173.769 2.139 2.156 2.162 1.98 1.76 1.806 1.67 1.31 1.09 1.07
3193.063 0.96 0.78 0.77 0.68 0.68 0.66 0.62 0.58 0.55 0.5
3212.356 0.47 0.46 0.34 0.27 0.37 0.37 0.28 0.37 0.43 0.38
3231.650 0.33 0.27 0.25 0.33 0.38 0.37 0.21 0.07 0.08 0.22
3250.943 0.35 0.28 0.26 0.35 0.31 0.25 0.32 0.37 0.4 0.41
3270.236 0.34 0.26 0.25 0.18 0.16 0.18 0.26 0.31 0.34 0.43
3289.530 0.28 0.24 0.27 0.22 0.12 0.1 0.26 0.26 0.18 0.15
3308.823 0.2 0.23 0.15 0.24 0.26 0.25 0.18 0.08 0.2 0.13
3328.117 0.01 0.02 0.08 0.17 0.13 0.13 0.29 0.25 0.15 0.24
3347.410 0.27 0.18 0.11 0 0.06 0.13 0.14 0.21 0.28 0.29
3366.704 0.27 0.41 0.46 0.38 0.35 0.47 0.51 0.37 0.22 0.3
3385.997 0.3 0.26 0.35 0.38 0.36 0.26 0.3 0.42 0.41 0.31
3405.290 0.3 0.3 0.3 0.27 0.31 0.29 0.31 0.42 0.44 0.45
3424.584 0.38 0.39 0.49 0.45 0.53 0.64 0.55 0.53 0.61 0.59
3443.877 0.53 0.46 0.45 0.42 0.37 0.39 0.37 0.35 0.39 0.36
3463.171 0.38 0.44 0.34 0.29 0.29 0.27 0.4 0.4 0.42 0.48
3482.464 0.53 0.56 0.41 0.33 0.36 0.41 0.39 0.35 0.46 0.55
3501.758 0.6 0.65 0.56 0.54 0.62 0.59 0.65 0.67 0.61 0.65
3521.051 0.71 0.72 0.77 0.8 0.75 0.69 0.68 0.71 0.76 0.73
3540.344 0.7 0.8 0.85 0.75 0.78 0.92 0.86 0.75 0.83 0.94
3559.638 1 0.85 0.8 0.87 0.9 1.01 0.93 0.89 0.92 0.96
3578.931 1.02 1 0.98 0.95 0.99 1.04 1.01 1.06 1.14 1.23
3598.225 1.25 1.13 1.1 1.19 1.24 1.24 1.324 1.399 1.395 1.406
3617.518 1.454 1.463 1.494 1.642 1.706 1.675 1.64 1.604 1.635 1.705
3636.812 1.797 1.813 1.83 1.993 1.881 1.821 1.944 1.944 1.859 1.805
3656.105 1.881 1.842 1.826 1.917 1.874 1.809 1.818 1.878 1.964 2.049
3675.398 2.115 2.055 2.073 2.203 2.35247 2.4219 2.36261 2.35034 2.39026 2.39106
3694.692 2.40994 2.31528 2.187 2.104 2.101 2.18 2.085 2.052 2.078 2.042
3713.985 2.102 2.101 2.144 2.082 2.026 2.146 2.127 2.08 2.054 2.095
3733.279 2.183 2.213 2.18 2.2305 2.18 2.106 2.119 1.983 1.921 1.945
3752.572 1.892 1.876 1.882 1.852 1.792 1.733 1.737 1.703 1.655 1.606
3771.866 1.541 1.484 1.383 1.44 1.574 1.597 1.524 1.466 1.491 1.453
3791.159 1.428 1.423 1.402 1.339 1.31 1.352 1.384 1.423 1.35 1.21
3810.452 1.29 1.27 1.24 1.27 1.25 1.29 1.16 1 1.06 1.14
3829.746 1.11 1.09 1.04 1.04 1.12 1.18 1.2 1.18 1.15 1.01
3849.039 0.99 1.1 1.08 0.97 0.98 1.11 1.18 1.15 1.16 1.23
3868.333 1.25 1.28 1.3 1.31 1.23 1.18 1.29 1.3 1.31 1.336
3887.626 1.24 1.2 1.19 1.2 1.25 1.25 1.19 1.08 1.07 1.13
3906.920 1.14 1.18 1.19 1.16 1.22 1.27 1.17 1.08 1.18 1.28
3926.213 1.22 1.23 1.21 1.12 1.16 1.22 1.17 1.12 1.1 1.08
3945.506 1.13 1.13 1.07 1.19 1.26 1.2 1.19 1.19 1.25 1.332
3964.800 1.397 1.321 1.27 1.341 1.394 1.406 1.411 1.372 1.27 1.39
3984.093 1.449 1.401 1.407 1.36 1.457 1.536 1.518 1.534 1.597
##END=
