##TITLE=4-Bromo-2-methyl-6-nitroaniline
##JCAMP-DX=4.24
##DATA TYPE=INFRARED SPECTRUM
##ORIGIN=EPA-IR VAPOR PHASE LIBRARY
##OWNER=SRD/NIST
Collection (C) 2018 copyright by the U.S. Secretary of Commerce
on behalf of the United States of America. All rights reserved.
##CAS REGISTRY NO=77811-44-0
##MOLFORM=C 7 H 7 Br N 2 O 2
##$NIST SOURCE=MSDC-IR
##STATE=gas
##XUNITS=1/CM
##YUNITS=ABSORBANCE
##XFACTOR=1.
##YFACTOR=0.001
##DELTAX=1.92898
##FIRSTX=549.8
##LASTX=4000.7
##FIRSTY=15.4398
##MAXX=4000.7
##MINX=549.759
##MAXY=0.24971
##MINY=0
##NPOINTS=1790
##XYDATA=(X++(Y..Y))
549.759 15.4398 14.5298 13.3998 12.2398 11.4698 10.7398 11.0898 11.5498 11.3098 10.5898
569.049 10.8098 10.7798 10.6398 10.4798 10.3498 10.2298 9.9598 10.4598 10.1698 9.9998
588.339 9.8898 9.6598 10.4298 9.9298 9.1798 8.2498 7.7798 8.6698 8.2998 8.0198
607.628 8.3298 8.3998 8.6098 8.7398 9.2698 9.5498 9.2698 8.8098 8.7898 9.1298
626.918 9.9398 10.1898 9.9498 10.5398 10.5098 10.2698 10.9098 10.9698 10.3898 11.0998
646.208 11.6898 11.6298 12.0398 12.2798 12.3498 12.3098 11.6898 11.6498 11.9898 12.0498
665.498 12.1398 12.1198 12.1798 11.7998 11.7498 12.0098 12.3498 13.0598 13.5798 14.4898
684.787 15.3198 16.3698 18.3498 20.5398 22.9198 25.7398 28.1898 30.1998 31.4298 31.6798
704.077 30.5998 27.7698 24.4998 20.8798 17.1998 14.3698 12.2398 10.6798 10.0798 9.5198
723.367 9.3298 8.8698 8.4098 8.0998 7.7798 8.1398 8.1398 8.4598 8.0298 7.8398
742.657 8.7198 9.0198 9.0898 9.3098 9.7498 10.3698 10.6598 10.8298 12.0698 13.5898
761.947 14.9998 16.7198 17.7698 17.1498 15.8898 14.9898 13.9598 13.1698 12.6398 12.4598
781.236 12.3698 11.9998 11.6398 11.1998 11.1698 10.7898 10.2898 10.1798 9.3798 8.3998
800.526 8.0298 7.9998 7.6298 7.4898 6.9498 6.1898 5.9898 6.2998 6.3098 6.2398
819.816 5.9598 6.3798 6.5798 5.0298 6.0698 7.2398 6.8998 6.8198 6.8598 6.8898
839.106 6.8398 7.0598 6.5398 6.8298 7.6298 7.4398 7.0898 7.3698 8.4798 9.7698
858.395 11.3198 13.8698 18.3098 23.6398 28.2298 32.7898 36.7598 39.6398 42.0498 42.8298
877.685 41.4298 37.9098 32.6398 27.4798 22.9298 20.0198 18.0198 16.3698 16.3998 16.4098
896.975 16.3298 17.7198 19.4898 20.7098 21.7398 22.2698 22.0098 21.3298 19.8398 17.4998
916.265 14.5098 11.7998 10.1998 8.6498 7.2298 6.6698 6.4998 6.2098 5.5498 4.9398
935.555 4.7398 4.7898 4.8098 4.5498 4.6898 5.2198 5.2598 4.9898 5.2298 4.7398
954.844 3.9398 3.6898 3.7998 4.1098 4.3798 4.3298 4.3698 4.6798 4.7398 4.7998
974.134 4.8098 5.3298 5.3898 5.0598 5.4798 5.7298 5.8998 5.8298 6.2198 7.1798
993.424 8.0898 8.9698 9.2498 10.1198 11.2098 11.2998 10.9298 11.1698 10.6598 9.3098
1012.714 7.7598 6.4798 5.8798 5.3998 5.4698 5.6298 5.1398 3.7098 3.3198 3.7398
1032.003 3.8298 4.0998 3.6298 3.1398 3.8198 3.7398 3.1798 2.9698 3.1098 3.2398
1051.293 2.6598 3.0198 3.4898 3.2498 3.3598 3.6998 3.8798 3.9498 4.4398 5.4998
1070.583 5.7998 4.8198 4.8298 6.1698 6.2498 6.7498 7.8898 8.8598 9.4898 7.6998
1089.873 6.6998 8.2398 8.1798 7.7098 9.7098 10.5498 9.6398 9.4898 9.3898 9.4398
1109.163 10.1298 9.0998 8.5198 8.3698 7.3198 5.8598 5.1298 5.1398 4.7698 5.9698
1128.452 6.2798 4.7298 4.1498 3.6598 3.4298 4.1198 3.5098 2.9898 3.8598 3.2198
1147.742 3.0498 3.2998 3.1598 3.7398 2.9698 2.2798 3.1198 3.3398 2.7098 3.6898
1167.032 3.7298 3.8098 4.6498 4.1998 4.3698 5.5298 6.5498 6.8398 7.2998 8.8598
1186.322 11.4998 13.5298 15.6498 19.4298 21.6998 21.9798 22.7698 23.9298 24.6098 23.0498
1205.611 20.0198 18.1598 18.4098 17.3698 15.8298 16.5098 17.3298 18.7598 19.7098 21.4898
1224.901 22.1898 22.9498 28.2098 34.2698 39.6998 46.2998 52.6498 57.2698 59.1398 58.7098
1244.191 58.1298 55.7898 50.5098 44.1098 38.5398 34.0598 30.5998 28.3798 27.7198 28.6698
1263.481 29.2298 29.5198 30.2498 29.9998 28.8498 27.5298 25.6798 23.7498 21.7598 19.4798
1282.771 18.0398 17.1498 16.1198 14.9898 14.0598 14.1698 14.3798 14.4598 15.3098 16.5598
1302.060 18.1598 20.2498 23.0098 26.3698 30.1798 34.0898 37.7498 40.9198 42.8098 43.9798
1321.350 44.6098 44.4898 44.1998 44.2898 45.7198 49.3198 55.4598 64.1698 75.3398 88.2798
1340.640 101.25 111.7 118.11 119.41 114.73 104.56 89.9398 72.6198 55.9098 42.2598
1359.930 32.4798 26.2198 22.1198 19.2298 17.1398 15.7698 15.0798 14.6898 14.7798 15.2398
1379.219 15.9998 16.9198 17.6498 18.0898 18.6598 19.5098 20.2398 20.9298 22.1398 23.6198
1398.509 24.8198 25.4298 25.6198 25.1898 23.8998 21.8198 19.2898 17.0798 15.2698 14.0198
1417.799 13.1198 12.4698 12.1798 12.0098 11.7998 11.8398 11.8998 11.9498 12.2998 12.6498
1437.089 13.5998 14.8198 15.7098 16.8498 18.2898 19.6698 20.9698 22.1298 23.1298 24.0898
1456.378 25.3398 27.0598 29.5698 32.5098 35.4998 39.0398 41.9498 43.4498 44.0298 43.5798
1475.668 42.0698 39.6898 37.0798 34.8598 33.2198 32.4098 32.1998 32.2798 32.6698 32.8398
1494.958 32.7498 32.9198 33.6598 34.6498 36.0198 38.1298 41.4598 46.0198 52.0098 60.3098
1514.248 71.4298 86.2498 105.53 129.3 158.22 188.26 217.02 238.68 249.71 248.49
1533.538 235.34 212.86 182.35 145.82 112.21 86.0198 67.1098 54.2198 45.5298 39.7598
1552.827 35.7198 32.9198 31.1398 29.7898 29.0798 28.7398 28.2998 27.7898 27.3398 26.8098
1572.117 26.1298 24.8098 23.0298 21.7498 20.5598 19.2698 18.0398 17.1098 16.7298 16.6598
1591.407 16.6998 17.1398 17.8698 18.6898 19.6698 21.0498 23.1298 25.9598 29.3598 34.2398
1610.697 40.2298 46.7498 53.4398 59.9198 65.1798 67.7498 67.6798 64.3498 58.7898 51.7998
1629.986 43.5398 35.5498 28.3398 22.5598 18.7998 16.0698 13.9298 12.0698 10.5998 9.3998
1649.276 8.4298 7.8298 6.9598 6.1498 5.7498 5.3198 4.7998 4.4198 4.0898 4.0298
1668.566 3.7898 3.6398 3.5898 3.3998 3.3598 3.3398 3.1798 3.0198 3.0198 2.9698
1687.856 3.1098 3.1798 2.9398 2.6398 2.6398 2.5998 2.6198 2.7098 2.6298 2.5898
1707.146 2.5998 2.5598 2.5298 2.8498 2.8398 2.6698 2.6298 2.5498 2.5198 2.4898
1726.435 2.3198 2.1098 2.2098 2.1098 2.1198 2.2998 2.2098 2.1898 2.2898 2.4198
1745.725 2.6798 2.8398 2.8698 3.0198 3.3298 3.7398 4.1598 4.4998 4.6898 4.5698
1765.015 4.6198 4.8298 4.6098 4.2998 4.1398 3.8898 3.6198 3.3998 3.1898 2.9698
1784.305 2.6098 2.3898 2.2998 2.1398 1.8698 1.8098 1.8798 1.8098 1.8898 1.8398
1803.594 1.6098 1.5598 1.7498 1.8498 1.8798 1.8598 1.7898 1.8898 2.0198 1.9198
1822.884 1.7698 1.5998 1.4498 1.5298 1.6098 1.5498 1.5098 1.6098 1.4298 1.3798
1842.174 1.5098 1.3498 1.2798 1.3998 1.3998 1.3098 1.2798 1.2598 1.2398 1.3098
1861.464 1.3698 1.1598 1.1398 1.3098 1.2698 1.2998 1.2398 1.2398 1.2198 1.2498
1880.754 1.2198 1.1398 1.1198 1.0398 1.0598 1.1798 1.2498 1.3198 1.4098 1.4798
1900.043 1.5798 1.4998 1.3898 1.3598 1.3898 1.2898 1.1698 1.3198 1.3998 1.2098
1919.333 1.3398 1.5198 1.3498 1.1798 1.1798 1.2198 1.2398 1.3298 1.1998 1.0007
1938.623 1.0144 1.1398 1.2298 1.1798 1.2998 1.2498 1.1698 1.2098 0.9852 0.9545
1957.913 1.0798 1.0298 1.1198 1.1098 0.8918 1.0398 1.2298 1.2398 1.1398 1.0148
1977.202 1.0698 1.0998 1.1298 1.2298 1.2298 1.2598 1.3598 1.2298 1.2198 1.3198
1996.492 1.2798 1.2298 1.3298 1.2698 1.0798 1.1598 1.0598 0.9795 1.0498 1.0698
2015.782 1.0171 0.8803 0.9193 1.0398 1.1398 1.0998 0.9228 1.1598 1.3398 1.2398
2035.072 1.1098 0.9722 0.9707 0.8878 0.7935 0.9783 1.2698 1.3398 1.3498 1.3898
2054.362 1.2098 1.1598 1.1398 1.1798 1.2598 1.0498 0.9774 0.9953 1.0798 1.1198
2073.651 0.9873 1.1098 1.2198 1.0298 0.9671 0.762 0.8813 1.1598 0.9952 0.8934
2092.941 1.0498 1.0698 0.8858 0.9418 1.0092 1.0398 1.1298 0.9626 0.8766 1.0156
2112.231 0.8398 0.8399 1.0298 1.0135 1.0137 1.0598 1.1298 1.0054 0.878 1.0002
2131.521 1.1398 1.1598 1.1198 1.2098 1.1698 1.0898 1.0298 1.0698 1.1198 1.0498
2150.810 1.0998 1.0194 0.7657 0.8111 1.0145 0.8887 0.7321 0.9735 1.2098 0.9513
2170.100 0.8917 1.0798 0.9777 0.9096 1.0898 1.1698 1.1498 1.1898 1.3198 1.1298
2189.390 0.8916 0.9635 0.9855 0.8856 0.7403 0.7979 0.9995 1.0598 1.0898 1.1398
2208.680 1.0398 1.0023 0.9563 0.888 1.0298 1.2198 1.2898 1.0498 0.8899 1.0998
2227.970 1.1698 1.2198 1.1998 1.1398 1.2098 1.2498 1.2898 1.2298 1.0019 1.0298
2247.259 1.3698 1.3298 1.1098 1.2398 1.4198 1.5598 1.2898 0.9532 1.0498 1.0598
2266.549 1.1298 1.1898 1.0598 1.0598 1.2898 1.3498 1.2098 1.1998 1.1698 1.2398
2285.839 1.1898 1.2098 1.2898 1.2998 1.4098 1.2098 1.1798 1.2998 1.2598 1.4898
2305.129 1.4598 1.4298 1.6098 1.5798 1.6798 1.7598 1.6698 1.6598 1.5998 1.4198
2324.418 1.1998 1.2398 1.4198 1.4398 1.1398 1.0598 1.0898 1.0188 1.2498 1.2498
2343.708 1.0798 0.9131 0.7971 0.7937 0.9897 0.9006 0.9693 1.3698 1.1998 0.947
2362.998 1.0298 0.9483 1.0175 0.9243 0.6697 0.7282 0.9749 1.2398 1.1198 0.9873
2382.288 1.012 1.0052 1.0091 1.2198 1.2398 1.0498 1.2298 1.3498 1.2698 1.3298
2401.578 1.5298 1.6698 1.5998 1.5498 1.4298 1.3698 1.4898 1.3498 1.2798 1.4898
2420.867 1.5698 1.5498 1.4398 1.3598 1.2598 1.4498 1.5998 1.4798 1.5298 1.5398
2440.157 1.4798 1.6098 1.6798 1.3498 1.1898 1.2298 1.1198 1.2898 1.3998 1.2798
2459.447 1.0798 0.8737 1.0183 1.2798 1.3698 1.3298 1.3898 1.3398 1.2898 1.5098
2478.737 1.5498 1.5198 1.3998 1.1898 1.2598 1.3698 1.4798 1.3398 1.0498 0.845
2498.026 0.7998 0.8829 1.0498 1.0798 1.1898 1.4698 1.1898 0.9427 1.0015 0.9331
2517.316 1.0034 1.4898 1.4098 0.9835 1.2498 1.4198 1.3298 1.3798 1.5098 1.6098
2536.606 1.4998 1.5298 1.7298 1.6298 1.4798 1.6398 1.4998 1.4998 1.8098 1.5098
2555.896 1.3398 1.6598 1.6198 1.5498 1.4298 1.2598 1.2298 1.1598 1.3898 1.4298
2575.186 1.4198 1.4598 1.3798 1.2898 1.0998 1.2098 1.5098 1.3498 1.1498 1.2898
2594.475 1.2098 0.9948 1.1098 1.1798 1.0598 1.2398 1.4298 1.5298 1.4898 1.3798
2613.765 1.4298 1.4598 1.4198 1.3298 1.2998 1.3298 1.2698 1.4098 1.6998 1.7698
2633.055 1.6498 1.2898 1.1298 0.982 0.9112 1.0107 1.1198 1.3698 1.4498 1.6098
2652.345 1.7398 1.4298 1.3298 1.5398 1.4798 1.5098 1.5698 1.5398 1.6198 1.3398
2671.634 1.2698 1.6298 1.6498 1.5498 1.6298 1.6198 1.8998 1.8898 1.7698 2.1098
2690.924 2.0398 1.7998 1.7098 1.6698 1.2298 1.0898 1.5398 1.8698 1.7798 1.3798
2710.214 1.4798 1.8598 1.7198 1.8298 1.8998 1.6998 1.4898 1.4898 1.7498 1.7398
2729.504 1.6098 1.5598 1.7698 2.0198 1.8798 1.7098 1.7798 1.6698 1.8098 2.2298
2748.794 2.2598 2.2398 2.2498 1.8498 1.6898 2.0198 2.0798 1.6998 1.6798 1.7998
2768.083 1.2698 1.2398 1.6898 1.7198 1.7098 1.8998 1.7998 1.4498 1.5798 1.6398
2787.373 1.5698 1.4698 1.3998 1.5398 1.8298 1.7898 1.5898 1.7698 2.2298 2.5498
2806.663 2.3798 2.1298 2.1898 2.1498 1.7998 1.6598 1.8298 1.9898 2.1598 2.3098
2825.953 2.2598 2.5898 2.7798 2.7498 2.9698 3.2298 3.1298 3.0698 3.1598 3.0798
2845.242 3.0898 3.4198 3.6298 3.7098 4.0098 4.0098 4.1098 4.3198 4.5498 4.8898
2864.532 5.3498 5.8498 6.4998 6.8898 7.0098 7.4298 7.7998 8.2898 8.8798 8.7098
2883.822 7.9798 7.7998 8.0598 7.9898 7.5698 7.0598 6.8098 6.9198 6.8998 7.0298
2903.112 7.3398 7.4198 7.2698 7.3498 7.8098 7.7498 7.7698 8.3898 9.0098 8.6598
2922.401 8.2598 8.8398 9.1898 9.2698 9.0498 8.8498 9.2398 9.6798 9.6898 9.7598
2941.691 9.7098 9.9098 10.2898 9.9498 8.8898 8.0198 7.6398 7.1498 6.5498 5.6198
2960.981 4.7598 4.5598 4.7598 4.2898 3.7498 3.9998 4.0998 4.0898 4.5998 4.8998
2980.271 5.4098 6.1398 6.6098 7.1698 7.3898 7.3398 7.1598 6.9698 6.3398 5.5098
2999.561 4.9198 4.2398 3.5998 3.1398 2.9098 2.9498 3.0498 2.8998 2.4898 2.1198
3018.850 2.1198 1.9098 1.6598 1.5498 1.6598 2.2298 1.9798 1.5998 1.9498 2.3098
3038.140 2.3698 2.4698 2.3898 2.2698 2.2198 2.3498 2.8398 2.7998 2.5598 2.5698
3057.430 2.7198 2.8498 2.8298 3.0198 3.1898 2.5998 2.3898 2.7798 2.9298 2.9598
3076.720 2.6598 2.3998 2.3898 2.5298 2.9098 3.0398 3.3298 4.0298 4.4398 4.5098
3096.009 4.6098 5.1998 6.0398 6.0598 5.6298 5.2398 4.8098 4.5198 3.9898 3.1798
3115.299 2.5498 2.2298 2.0398 2.1398 1.7798 1.3198 1.1798 1.2798 1.2398 0.9914
3134.589 1.0598 0.9546 0.6103 0.5956 1.0498 1.3298 1.2098 1.0898 1.3398 1.4798
3153.879 1.4998 1.6098 1.3398 1.3798 1.4898 1.2498 1.0182 0.9382 0.745 0.9572
3173.169 1.0898 0.7624 0.7566 0.6449 0.8585 1.2098 1.4998 1.9098 1.6598 1.6198
3192.458 2.0798 1.9198 1.4298 1.3098 1.2598 1.1898 1.3098 1.6398 1.7898 1.3498
3211.748 1.1198 1.4798 1.7098 1.8798 1.5798 1.0298 1.1398 0.8398 0.6346 1.0798
3231.038 1.2498 0.9485 1.014 1.0898 0.9018 0.7364 0.9234 1.0698 1.1198 1.2598
3250.328 0.9044 0.9718 0.9609 0.9615 0.6623 0.01246 0.1829 0.8145 1.3498 0.9879
3269.617 0.7865 1.0398 0.8065 0.4758 0.6846 1.0698 0.962 0.8077 0.8964 0.8292
3288.907 0.7424 0.8142 0.8434 1.1198 0.9511 0.592 0.5075 0.2452 0.3337 0.7461
3308.197 1.2098 0.9842 0.8406 0.9003 0.8212 1.0598 1.3698 1.3798 1.2498 1.2098
3327.487 0.8476 0.9291 1.2298 1.4498 1.5098 1.6998 1.9498 1.6198 1.6298 1.4298
3346.777 1.0198 1.2898 1.8198 1.8698 2.0798 2.1698 2.4798 3.3398 3.1498 2.8798
3366.066 2.9398 2.9798 3.1998 3.8098 4.1298 4.7398 5.7498 6.4598 7.8798 9.1698
3385.356 10.5598 13.2198 16.1998 19.3298 23.3698 27.5398 31.4198 35.5298 38.2998 39.6898
3404.646 40.1498 38.8298 36.9098 33.2998 28.7998 24.4098 19.7498 15.8298 12.4598 9.5698
3423.936 7.5798 6.5798 5.5598 4.4198 3.8698 3.8298 3.8198 3.2898 2.4398 1.8598
3443.225 2.1398 2.4098 2.3098 2.2698 2.1498 2.4998 2.7798 2.7498 2.5298 2.6798
3462.515 2.9498 2.8798 2.6398 2.4798 2.8298 2.6898 2.4998 2.9298 3.4798 4.3198
3481.805 4.1598 3.8098 4.6098 4.8998 5.2698 5.8898 6.3498 6.9598 7.8798 9.0698
3501.095 9.7098 10.8898 11.9798 12.5898 13.8198 15.6798 18.0198 19.2598 20.5198 22.1998
3520.385 23.5698 24.6498 25.0498 25.2398 24.9698 24.5598 23.7898 22.6798 20.9798 18.9898
3539.674 17.1098 15.1798 13.7698 12.0398 10.4298 9.2498 8.0598 6.9398 5.7098 4.5598
3558.964 3.9498 3.3298 2.5598 2.7298 3.0798 2.4998 2.0498 2.0898 2.1098 2.1798
3578.254 1.6998 0.9866 0.8946 0.9276 0.9045 0.9753 1.5098 1.7098 1.5198 1.5398
3597.544 1.7498 1.5598 0.8626 0.9563 1.1098 1.0898 1.1198 0.815 0.6323 0.7369
3616.833 1.0598 1.1398 0.579 0.66 0.921 0.8457 1.0298 1.2998 0.5107 0.4802
3636.123 1.1898 0.5711 0.3895 0.5407 0.3067 0.5782 0.9054 0.7089 0.4403 0.5176
3655.413 0.5538 0.2236 0.5161 0.6122 0.4633 0.8109 0.6605 0.6452 0.779 0.8042
3674.703 0.9349 0.6645 0.5368 0.5542 0.936 0.9259 0.506 0.561 0.5235 0.5867
3693.993 0.6486 0.7771 0.9133 1.0298 0.9798 0.7128 0.8051 0.5416 0.8915 0.7338
3713.282 0.06616 0.5642 0.7875 0.8932 0.7963 0.3356 0.8492 1.4998 1.1698 1.2898
3732.572 1.0898 0.6451 0.789 1.0598 1.4598 1.3498 0.9331 0.781 0.9553 0.8921
3751.862 0.9625 1.2598 1.4498 1.2998 1.0298 0.8804 0.6009 0.8012 0.9696 0.6529
3771.152 0.7473 0.9881 0.9555 1.0498 0.7505 0.07201 0 0.432 0.4715 0.6149
3790.441 0.8878 0.8174 0.6603 0.5624 0.3401 0.6172 1.0698 0.7705 0.3147 0.5159
3809.731 0.9129 1.0798 0.8726 0.3966 0.5864 0.6632 0.7691 0.6408 0.4027 0.4602
3829.021 0.5928 0.9566 1.1498 0.8981 0.8196 1.1198 1.0137 0.8263 0.9991 0.999
3848.311 0.8216 0.7794 0.7375 0.5052 0.3781 0.4169 0.7893 1.2698 1.2598 1.1298
3867.601 1.3998 0.8632 0.1967 0.5613 0.7336 0.6604 0.6492 0.7883 0.8542 0.7954
3886.890 0.5255 0.2874 0.125 0.6576 1.1798 0.8816 0.4983 0.294 0.8642 1.2598
3906.180 0.9889 0.8626 0.7202 0.811 0.7492 0.6476 0.6182 0.5518 0.7711 0.7298
3925.470 0.4669 0.5832 1.1398 1.1098 0.9276 0.8625 1.0164 1.0498 0.598 0.9693
3944.760 1.5198 1.5798 1.3498 1.4398 1.5498 1.0197 0.48 0.3693 0.7651 0.9234
3964.049 0.9405 0.9224 1.1398 0.721 0.6243 1.4798 1.2998 0.9047 1.0086 1.1998
3983.339 1.4798 1.3798 1.3198 1.4798 1.4498 1.0398 0.6923 0.9477 0.6998 0.59
##END=
