##TITLE=S-(+)-2-Phenylpropionic acid
##JCAMP-DX=4.24
##DATA TYPE=INFRARED SPECTRUM
##ORIGIN=EPA-IR VAPOR PHASE LIBRARY
##OWNER=SRD/NIST
Collection (C) 2018 copyright by the U.S. Secretary of Commerce
on behalf of the United States of America. All rights reserved.
##CAS REGISTRY NO=7782-24-3
##MOLFORM=C 9 H 10 O 2
##$NIST SOURCE=MSDC-IR
##STATE=gas
##XUNITS=1/CM
##YUNITS=ABSORBANCE
##XFACTOR=1.
##YFACTOR=0.001
##DELTAX=1.92898
##FIRSTX=549.8
##LASTX=4000.7
##FIRSTY=9.507
##MAXX=4000.7
##MINX=549.759
##MAXY=0.060767
##MINY=0
##NPOINTS=1790
##XYDATA=(X++(Y..Y))
549.759 9.507 10.027 10.167 11.287 11.977 12.287 12.287 12.627 12.047 12.087
569.049 12.777 12.977 12.897 12.357 12.677 13.147 13.237 13.977 15.167 16.347
588.339 17.857 19.037 19.787 20.157 20.157 20.207 19.527 18.047 16.887 15.497
607.628 13.877 12.267 10.547 9.407 8.727 8.317 7.957 7.807 8.107 7.707
626.918 6.967 6.857 7.127 7.177 6.757 6.457 6.337 6.057 5.667 5.667
646.208 5.647 4.867 4.207 4.047 3.997 3.947 3.577 3.557 3.617 3.317
665.498 3.267 3.387 3.627 3.797 3.777 4.297 5.467 6.817 7.647 8.037
684.787 8.947 9.827 10.887 12.317 13.367 13.987 14.217 14.177 13.507 12.567
704.077 12.027 11.637 10.777 9.647 9.087 8.797 8.217 7.947 7.567 7.307
723.367 7.387 7.117 6.677 6.687 6.317 5.567 5.637 5.987 6.117 6.307
742.657 6.107 5.727 5.907 5.527 5.307 5.587 5.267 5.097 5.197 5.037
761.947 4.537 4.077 4.097 3.617 3.077 3.137 2.947 2.707 2.337 2.197
781.236 2.427 2.307 1.857 1.687 1.987 2.117 2.237 2.537 2.627 2.707
800.526 2.707 2.567 2.597 2.457 2.507 2.557 2.497 2.747 2.547 2.167
819.816 1.907 2.087 2.517 2.377 2.307 2.247 2.237 2.537 2.517 2.477
839.106 2.537 2.527 2.377 2.067 2.107 2.237 2.047 1.787 1.677 1.2781
858.395 1.1321 1.3003 1.1754 0.9533 1.0498 1.1077 0.8492 1.1661 1.507 1.337
877.685 0.8496 0.7764 0.663 0.8548 1.266 0.987 0.8769 0.8754 1.0131 1.2628
896.975 1.2573 0.7599 0.7682 1.347 1.567 1.347 1.0217 0.9568 1.0457 1.2104
916.265 1.0765 0.7629 0.6067 0.5998 0.9681 1.2262 1.0301 0.9491 0.7935 0.7199
935.555 0.701 0.637 0.7673 0.8751 1.048 0.983 1.0457 1.437 1.2254 0.92
954.844 1.0959 1.0182 1.0233 1.467 1.527 1.467 1.537 1.527 1.857 2.197
974.134 2.307 2.507 2.787 2.957 2.927 2.987 3.167 3.407 3.297 3.097
993.424 3.067 2.717 2.897 3.527 3.657 3.667 3.447 3.627 3.847 3.907
1012.714 4.067 4.187 4.507 4.777 5.667 6.377 6.667 6.897 6.857 6.927
1032.003 7.697 8.347 7.887 8.047 8.577 8.337 8.787 9.747 10.457 10.917
1051.293 11.657 12.287 12.507 12.597 12.927 13.177 13.427 14.217 14.427 13.747
1070.583 13.707 14.117 14.297 14.697 15.097 15.107 15.077 15.547 15.817 15.967
1089.873 16.117 16.097 15.657 15.477 16.137 16.487 16.857 17.457 17.947 19.487
1109.163 21.707 21.807 21.057 22.097 23.957 25.987 27.767 27.927 28.307 30.597
1128.452 31.537 30.937 30.107 29.617 30.197 29.587 27.207 25.397 23.577 21.357
1147.742 20.167 19.187 17.987 16.607 16.157 16.547 16.167 15.567 14.527 13.257
1167.032 12.747 12.087 11.107 10.267 9.367 8.777 8.597 8.507 7.897 7.177
1186.322 7.047 7.337 6.847 6.137 6.057 5.687 6.037 6.177 5.627 4.747
1205.611 4.077 3.687 3.787 3.737 3.437 3.877 3.757 3.307 3.157 3.337
1224.901 3.117 2.817 2.717 2.737 2.867 2.517 2.447 2.807 2.667 2.157
1244.191 2.617 3.167 2.877 3.057 2.897 2.497 2.787 3.137 3.327 2.987
1263.481 2.397 2.797 3.307 3.287 3.587 3.807 3.547 3.287 3.377 3.427
1282.771 3.667 3.977 4.037 4.167 4.217 4.317 4.417 4.427 4.437 4.637
1302.060 4.767 4.737 4.707 4.797 5.007 5.137 5.267 5.277 5.137 5.067
1321.350 4.997 4.947 4.867 4.897 4.907 4.807 4.747 4.677 4.667 4.717
1340.640 4.677 4.647 4.817 4.917 5.067 5.267 5.337 5.527 5.647 5.727
1359.930 5.927 6.027 6.137 6.097 6.127 6.287 6.287 6.347 6.337 6.197
1379.219 6.177 6.267 6.127 5.887 5.727 5.427 5.047 4.667 4.227 3.767
1398.509 3.477 3.247 2.977 2.777 2.647 2.557 2.437 2.227 2.107 2.137
1417.799 2.207 2.207 1.997 1.857 1.917 1.997 2.127 2.237 2.397 2.547
1437.089 2.847 3.227 3.537 3.857 4.157 4.617 5.287 5.687 5.937 6.157
1456.378 6.307 6.287 6.207 6.077 5.707 5.297 4.877 4.587 4.287 3.917
1475.668 3.627 3.417 3.317 3.487 3.887 4.267 4.747 5.347 5.857 5.997
1494.958 6.147 6.247 5.997 5.597 5.167 4.567 3.947 3.227 2.497 2.047
1514.248 1.687 1.647 1.677 1.527 1.3105 1.3246 1.3265 1.2859 1.397 1.367
1533.538 1.2821 1.377 1.337 1.2081 1.1522 1.2008 1.2835 1.2397 1.1966 1.0974
1552.827 1.1059 1.175 1.327 1.407 1.2671 1.1909 1.1854 1.2586 1.2566 1.217
1572.117 1.2542 1.447 1.567 1.577 1.797 1.917 2.067 2.247 2.397 2.757
1591.407 2.967 2.887 3.027 3.277 3.187 3.127 3.067 2.927 2.837 2.447
1610.697 2.197 2.097 1.747 1.647 1.597 1.367 1.2715 1.2102 1.1408 1.1836
1629.986 1.1819 1.0954 1.0067 0.9041 1.0464 1.1752 1.1253 1.1975 1.1027 1.0257
1649.276 1.1658 1.2388 1.226 1.1616 1.2371 1.2931 1.397 1.497 1.397 1.347
1668.566 1.347 1.3071 1.387 1.457 1.377 1.3121 1.2709 1.3196 1.417 1.397
1687.856 1.357 1.447 1.587 1.637 1.707 1.747 1.857 1.887 1.877 2.087
1707.146 2.287 2.487 2.707 2.967 3.207 3.577 4.037 4.547 5.127 5.607
1726.435 6.207 7.097 7.817 8.457 9.327 10.097 10.917 11.957 12.937 14.017
1745.725 15.477 17.037 18.837 21.157 23.887 27.107 31.057 35.537 40.437 45.487
1765.015 50.247 54.437 57.827 59.937 60.767 60.227 58.067 54.317 49.177 43.447
1784.305 37.897 32.817 28.787 25.677 23.077 21.017 19.217 17.647 16.237 14.817
1803.594 13.447 12.067 10.657 9.237 7.957 6.937 6.227 5.477 4.797 4.287
1822.884 3.857 3.497 3.117 2.827 2.557 2.357 2.217 2.167 2.147 2.017
1842.174 1.827 1.727 1.717 1.707 1.747 1.667 1.547 1.547 1.517 1.437
1861.464 1.467 1.537 1.607 1.707 1.697 1.707 1.727 1.687 1.627 1.697
1880.754 1.807 1.627 1.457 1.417 1.357 1.2838 1.2476 1.347 1.3128 1.2425
1900.043 1.099 0.941 0.9947 1.0271 1.0167 1.01 0.9542 0.866 0.8973 0.9595
1919.333 1.045 1.0976 1.2348 1.337 1.1824 1.2003 1.2766 1.2454 1.2634 1.347
1938.623 1.407 1.427 1.517 1.507 1.507 1.557 1.447 1.367 1.337 1.2869
1957.913 1.191 1.1423 1.1929 1.239 1.1559 1.049 1.0205 0.9497 0.9041 0.8745
1977.202 0.8198 0.8553 0.9881 1.0147 0.8785 0.8648 0.8132 0.7673 0.7992 0.7783
1996.492 0.8162 0.8454 0.7263 0.6414 0.7946 0.8083 0.7935 0.7532 0.7052 0.6889
2015.782 0.702 0.7325 0.7765 0.6648 0.5491 0.5619 0.4992 0.5252 0.5015 0.5338
2035.072 0.6631 0.7091 0.6848 0.6051 0.6414 0.7003 0.6691 0.5758 0.4573 0.4851
2054.362 0.5697 0.5894 0.613 0.5553 0.5545 0.7034 0.6688 0.6084 0.7118 0.7231
2073.651 0.553 0.4568 0.5676 0.651 0.6327 0.6441 0.5829 0.6026 0.6578 0.6021
2092.941 0.555 0.705 0.7176 0.5938 0.6171 0.5503 0.6807 0.7607 0.6493 0.7005
2112.231 0.6948 0.7108 0.6426 0.6429 0.7795 0.6579 0.6177 0.656 0.5461 0.6535
2131.521 0.7767 0.7025 0.7463 0.7486 0.7178 0.7038 0.7084 0.6922 0.7087 0.7503
2150.810 0.7709 0.7725 0.6939 0.6597 0.7033 0.712 0.6106 0.6195 0.6424 0.6617
2170.100 0.7349 0.7498 0.7928 0.829 0.824 0.7684 0.856 0.9162 0.8194 0.8447
2189.390 0.8707 0.8593 0.8362 0.7941 0.7094 0.7319 0.7946 0.7098 0.7156 0.7208
2208.680 0.7407 0.7981 0.8069 0.8443 0.7641 0.692 0.6741 0.6339 0.6818 0.7396
2227.970 0.8657 0.8718 0.7925 0.7193 0.6131 0.7171 0.836 0.7339 0.5061 0.5778
2247.259 0.65 0.6612 0.8196 0.7665 0.7587 0.8615 0.7792 0.6898 0.7454 0.7717
2266.549 0.8325 0.8174 0.7089 0.7642 0.9642 0.9932 0.8637 0.8435 0.8183 0.8171
2285.839 0.7257 0.5672 0.6398 0.6844 0.5392 0.6103 0.7435 0.7408 0.7764 0.7523
2305.129 0.6253 0.6657 0.7334 0.7524 0.8181 0.8372 0.7647 0.6675 0.7304 0.7403
2324.418 0.7784 0.7872 0.6933 0.6967 0.8207 0.892 0.9093 1.0197 0.9917 0.8944
2343.708 0.8797 0.9007 0.6944 0.6548 0.7916 0.7332 0.6759 0.733 0.7949 0.7943
2362.998 0.8021 0.865 0.9247 0.8261 0.7519 0.6829 0.6732 0.7963 0.8242 0.8095
2382.288 0.8234 0.7171 0.7434 0.7879 0.7465 0.7666 0.8758 0.9133 0.8209 0.7702
2401.578 0.6684 0.651 0.7127 0.8509 0.8763 0.7202 0.6051 0.5724 0.6122 0.5809
2420.867 0.5785 0.6711 0.7726 0.8519 0.9001 0.8228 0.6454 0.6123 0.6721 0.7399
2440.157 0.7774 0.8049 0.7945 0.7418 0.7491 0.7606 0.7422 0.7134 0.7276 0.6786
2459.447 0.6563 0.761 0.7733 0.7294 0.761 0.7147 0.5739 0.5529 0.6235 0.724
2478.737 0.682 0.6213 0.5897 0.6063 0.7756 0.8768 0.8141 0.8044 0.7636 0.7731
2498.026 0.8113 0.7621 0.7607 0.6465 0.753 0.7939 0.7126 0.7772 0.6557 0.673
2517.316 0.7787 0.7544 0.6126 0.5293 0.6382 0.6433 0.5743 0.6657 0.6163 0.5748
2536.606 0.635 0.5435 0.4905 0.34211 0.34204 0.4949 0.5656 0.7221 0.664 0.41937
2555.896 0.5216 0.617 0.5845 0.5205 0.5841 0.6251 0.5565 0.7004 0.6889 0.5509
2575.186 0.7143 0.7958 0.7353 0.79 0.8176 0.7792 0.5899 0.4789 0.6055 0.7306
2594.475 0.7407 0.8007 0.9055 0.8126 0.6188 0.692 0.8222 0.7271 0.6443 0.6001
2613.765 0.7586 1.0095 0.9414 0.7351 0.489 0.478 0.539 0.4926 0.5143 0.609
2633.055 0.7409 0.8164 0.8564 0.7148 0.6189 0.7271 0.7044 0.4946 0.42352 0.5414
2652.345 0.6412 0.653 0.6161 0.5846 0.5602 0.6247 0.6192 0.6991 0.8661 0.607
2671.634 0.35853 0.42468 0.4728 0.5964 0.6255 0.5114 0.5792 0.6372 0.6837 0.6629
2690.924 0.511 0.4977 0.619 0.6979 0.5913 0.5198 0.6422 0.5124 0.38515 0.39763
2710.214 0.4429 0.6113 0.6541 0.7044 0.6491 0.614 0.6524 0.6903 0.793 0.8087
2729.504 0.7559 0.7258 0.7289 0.5666 0.5103 0.4889 0.5577 0.66 0.622 0.598
2748.794 0.5222 0.6247 0.5442 0.3448 0.5323 0.6681 0.5037 0.4286 0.6041 0.7091
2768.083 0.6237 0.4277 0.5587 0.8834 0.8742 0.7312 0.7744 0.8413 0.8145 0.6287
2787.373 0.6289 0.6701 0.6538 0.8373 0.7628 0.5111 0.5024 0.6542 0.7062 0.5792
2806.663 0.6429 0.8872 0.8843 0.6813 0.6863 0.7804 0.769 0.9108 1.0529 1.0584
2825.953 0.9122 0.896 0.9338 0.8689 0.8026 0.8887 1.0188 0.8293 0.7264 0.9122
2845.242 1.0241 0.985 0.9317 0.7974 0.7965 0.8518 0.8048 1.0357 1.2005 1.2019
2864.532 1.1763 1.1987 1.2903 1.437 1.627 1.757 1.867 2.187 2.347 2.407
2883.822 2.737 2.957 2.917 2.857 2.877 2.897 2.917 2.957 2.797 2.617
2903.112 2.667 2.567 2.567 2.697 2.627 2.427 2.487 2.507 2.557 2.747
2922.401 2.847 2.967 3.057 3.387 3.647 3.767 4.087 4.567 4.807 5.117
2941.691 5.457 5.597 5.677 5.627 5.537 5.447 5.237 4.767 4.137 3.837
2960.981 3.707 3.497 3.427 3.557 3.547 3.587 4.427 5.177 5.947 7.007
2980.271 7.937 8.857 9.537 10.077 10.567 10.677 10.297 9.977 9.307 8.087
2999.561 6.957 5.947 5.297 4.637 3.917 3.557 3.627 3.667 3.697 3.817
3018.850 4.047 4.317 4.537 5.027 5.417 5.967 6.507 6.917 7.117 6.937
3038.140 7.017 7.037 6.717 6.407 6.257 6.067 5.657 5.277 5.067 5.007
3057.430 5.137 5.577 6.107 6.617 7.287 7.777 8.077 8.337 8.317 8.117
3076.720 8.027 7.767 7.367 6.737 6.027 5.707 5.297 4.897 4.657 4.537
3096.009 4.477 4.277 4.087 3.757 3.257 2.887 2.607 2.407 2.417 2.427
3115.299 2.287 2.037 1.737 1.517 1.427 1.302 1.1411 1.0547 0.8698 0.889
3134.589 0.9132 0.9047 0.9974 0.9568 1.0951 1.1134 0.7781 0.6104 0.6445 0.876
3153.879 1.0501 0.9784 0.8397 0.7427 0.8879 0.9168 0.8513 0.7534 0.7706 0.8724
3173.169 0.9213 0.6959 0.7125 0.8926 0.6884 0.6116 0.5308 0.484 0.5251 0.6219
3192.458 0.6232 0.5323 0.6336 0.7063 0.6771 0.8515 0.9763 1.0787 1.0687 0.7545
3211.748 0.6328 0.7028 0.7026 0.5499 0.6649 0.8725 0.8649 0.7257 0.7268 0.8439
3231.038 0.7655 0.6546 0.5464 0.5888 0.7144 0.9056 0.7677 0.5362 0.42283 0.5208
3250.328 0.7915 0.6888 0.6556 0.7588 0.5767 0.576 0.5758 0.4841 0.608 0.40947
3269.617 0.121 0.35046 0.6704 0.7366 0.7089 0.7881 0.7411 0.4754 0.4929 0.6889
3288.907 0.7453 0.5307 0.4335 0.4926 0.5804 0.5909 0.5184 0.4286 0.37292 0.2414
3308.197 0.34239 0.645 0.5124 0.523 0.5788 0.4749 0.6062 0.7533 0.6239 0.693
3327.487 0.7706 0.7062 0.7798 0.55 0.18 0.2833 0.37269 0.4478 0.5639 0.4346
3346.777 0.4549 0.5866 0.7843 0.7072 0.5871 0.7184 0.6928 0.34783 0.4221 0.8451
3366.066 0.616 0.4933 0.579 0.4352 0.5082 0.4004 0.21 0.2944 0.32403 0.4283
3385.356 0.6699 0.5277 0.36221 0.5311 0.6864 0.5441 0.5346 0.6262 0.6989 0.8982
3404.646 0.7102 0.5737 0.4473 0.3141 0.31718 0.327534 0.504 0.502 0.5818 0.7546
3423.936 0.6784 0.7145 0.7215 0.7556 0.686 0.5735 0.5469 0.5195 0.551 0.7818
3443.225 0.86 0.6589 0.7255 0.8068 0.7443 0.6539 0.8973 0.9411 0.7593 0.7975
3462.515 0.6633 0.39201 0.34694 0.4928 0.6779 0.693 0.6157 0.6384 0.5623 0.454
3481.805 0.6404 0.7706 0.6215 0.5243 0.5367 0.39193 0.3436 0.6586 0.8139 0.9003
3501.095 1.1317 0.9969 0.9875 1.262 1.2144 1.0793 1.0184 1.0406 1.1277 1.0688
3520.385 0.8784 1.2539 1.647 1.767 1.727 1.557 1.797 2.007 1.937 1.947
3539.674 2.147 2.037 2.087 2.217 2.247 2.847 3.597 3.897 4.587 6.047
3558.964 7.997 10.257 12.507 15.457 18.427 20.607 21.917 22.547 22.687 21.797
3578.254 20.277 18.147 15.357 11.997 8.897 6.697 4.997 4.037 3.337 2.747
3597.544 2.177 1.937 1.877 1.567 1.397 1.567 1.417 1.1198 1.056 1.0415
3616.833 1.1295 1.0545 0.856 0.7076 0.7147 0.704 0.7533 0.9013 0.8034 0.6119
3636.123 0.5344 0.4127 0.37192 0.5487 0.4957 0.5383 0.5462 0.4837 0.588 0.7008
3655.413 0.828 0.6497 0.5449 0.7381 0.9819 0.8111 0.6231 0.5944 0.41505 0.5043
3674.703 0.6949 0.8132 0.9096 0.7249 0.5236 0.37364 0.4741 0.5836 0.42228 0.4342
3693.993 0.6469 0.7604 0.7102 0.5746 0.4351 0.6971 0.6043 0.4476 0.5548 0.5631
3713.282 0.989 1.1081 0.6781 0.6749 0.7577 0.40533 0.34562 0.5018 0.40251 0.4458
3732.572 0.37576 0.2717 0.6332 0.8351 0.828 0.6339 0.4722 0.5412 0.5454 0.4441
3751.862 0.38589 0.34335 0.327146 0.2916 0.2772 0.213 0.195 0.174 0.221 0.4991
3771.152 0.6669 0.666 0.7942 0.7919 0.4305 0.34118 0.3092 0.2408 0.5236 0.8439
3790.441 0.7804 0.6753 0.7352 0.8327 0.8228 0.4783 0.3139 0.4594 0.4378 0.5373
3809.731 0.5929 0.2799 0.152 0.077 0.206 0.37532 0.42466 0.7452 0.7584 0.54
3829.021 0.5778 0.6649 0.5558 0.5273 0.36824 0.5298 0.7528 0.4984 0.37412 0.42349
3848.311 0.5614 0.6601 0.682 0.41377 0.6027 0.7909 0.7143 0.8548 0.37831 0
3867.601 0.40263 0.555 0.38806 0.631 0.5785 0.5009 0.5778 0.5113 0.6323 0.5424
3886.890 0.36228 0.4276 0.6625 0.6953 0.612 0.32475 0.128 0.35761 0.6206 0.6127
3906.180 0.4896 0.5826 0.31725 0.067 0.34226 0.6135 0.8473 0.9512 0.9797 1.0955
3925.470 0.7226 0.275 0.39872 0.5111 0.4755 0.40545 0.35718 0.6005 0.7528 0.4911
3944.760 0.35591 0.39502 0.41273 0.4567 0.6396 0.8591 0.7694 0.5415 0.4815 0.569
3964.049 0.8474 0.7928 0.5251 0.5542 0.6607 0.6395 0.4596 0.34034 0.38724 0.5446
3983.339 0.6746 0.8948 0.9033 0.6764 0.38492 0.46 0.7143 0.6589 0.37015 0.32021
##END=
