##TITLE=(-).alpha.-Pinene
##JCAMP-DX=4.24
##DATA TYPE=INFRARED SPECTRUM
##ORIGIN=EPA-IR VAPOR PHASE LIBRARY
##OWNER=SRD/NIST
Collection (C) 2018 copyright by the U.S. Secretary of Commerce
on behalf of the United States of America. All rights reserved.
##CAS REGISTRY NO=7785-26-4
##MOLFORM=C 10 H 16
##$NIST SOURCE=MSDC-IR
##STATE=gas
##XUNITS=1/CM
##YUNITS=ABSORBANCE
##XFACTOR=1.
##YFACTOR=0.001
##DELTAX=1.92898
##FIRSTX=549.8
##LASTX=4000.7
##FIRSTY=0.7965
##MAXX=4000.7
##MINX=549.759
##MAXY=0.227127
##MINY=0
##NPOINTS=1790
##XYDATA=(X++(Y..Y))
549.759 0.7965 1.0476 1.227 1.277 1.397 1.817 1.847 1.967 2.027 1.677
569.049 1.657 1.767 1.677 1.1761 1.0151 1.0232 0.8228 0.4302 0.1617 0.24038
588.339 0.27296 0.4564 0.5507 0.3523 0.444 0.4379 0.20159 0.29111 0.3543 0.4946
607.628 0.6902 0.7956 0.9871 1.0236 1.1132 1.237 1.1504 1.217 1.1587 0.9498
626.918 0.8868 0.7641 0.6239 0.5547 0.4519 0.308 0.091 0 0.105 0.23854
646.208 0.4522 0.4835 0.1122 0.1413 0.4362 0.3894 0.3898 0.5988 0.6664 0.4821
665.498 0.5664 0.5498 0.5165 0.7058 0.7024 0.6288 0.5284 0.42 0.4422 0.3527
684.787 0.1136 0.018 0.057 0.095 0.194 0.24717 0.1719 0.1493 0.19912 0.25063
704.077 0.25115 0.29406 0.28883 0.1922 0.092 0.23057 0.30206 0.30049 0.5033 0.379
723.367 0.3575 0.4447 0.3636 0.4006 0.4252 0.4224 0.4425 0.4133 0.29857 0.3711
742.657 0.5732 0.7466 0.8176 0.8446 1.1669 1.637 1.927 2.327 2.907 3.377
761.947 3.967 4.787 5.577 6.437 7.677 9.027 10.027 11.147 12.377 13.167
781.236 13.937 15.087 17.047 18.637 17.757 15.237 13.257 11.997 10.917 9.737
800.526 8.127 6.297 4.717 3.417 2.527 1.967 1.457 1.257 1.1984 1.0396
819.816 0.889 0.7388 0.6967 0.7729 0.86 0.9545 1.0694 1.237 1.337 1.257
839.106 1.0822 1.016 1.0059 0.9461 1.0704 1.1072 1.0158 1.102 1.1039 1.1996
858.395 1.357 1.327 1.497 1.907 2.347 2.877 3.487 4.197 4.627 4.967
877.685 5.667 6.597 7.777 7.767 7.127 6.877 6.377 5.927 5.487 5.007
896.975 4.497 3.837 3.177 2.847 2.517 2.187 1.927 1.847 1.927 1.957
916.265 1.987 2.117 2.147 2.297 2.517 2.517 2.637 2.637 2.637 2.907
935.555 3.087 3.287 3.597 3.897 4.267 4.487 4.657 4.787 4.877 4.987
954.844 4.707 4.237 4.027 3.837 3.337 2.787 2.387 1.907 1.567 1.297
974.134 0.9919 0.9285 0.9261 0.902 0.9402 0.8713 0.7591 0.9302 1.0882 1.267
993.424 1.447 1.427 1.497 1.797 2.157 2.427 2.767 2.947 2.967 3.047
1012.714 3.327 3.557 3.517 3.337 3.367 3.267 3.257 3.167 2.617 2.367
1032.003 2.257 2.157 2.147 2.007 1.877 1.907 1.967 2.087 2.007 1.997
1051.293 1.947 1.787 1.947 1.997 1.827 1.787 1.987 2.337 2.627 2.997
1070.583 3.067 2.947 3.437 3.847 4.077 4.607 4.767 4.617 4.577 4.847
1089.873 5.017 4.887 4.747 4.577 4.347 4.157 4.087 4.337 4.157 4.087
1109.163 4.217 4.167 4.637 4.937 4.997 5.137 5.277 5.407 5.647 5.477
1128.452 5.047 4.487 4.147 3.957 3.407 3.157 2.867 2.287 2.097 2.127
1147.742 1.977 2.047 2.277 2.517 2.627 2.847 3.167 3.427 3.597 3.507
1167.032 3.387 3.377 3.527 3.837 3.717 3.407 3.407 3.457 3.487 3.627
1186.322 3.877 3.877 4.117 4.647 5.107 5.337 5.587 6.167 6.877 7.357
1205.611 7.567 7.747 7.927 8.027 8.017 7.687 7.117 6.687 6.477 5.977
1224.901 5.237 4.767 4.107 3.587 3.297 2.777 2.377 2.217 2.147 2.207
1244.191 2.377 2.547 2.687 2.867 3.077 3.287 3.617 4.057 4.417 4.387
1263.481 4.217 4.227 4.037 3.907 3.747 3.357 3.197 3.187 2.937 2.807
1282.771 2.687 2.487 2.407 2.337 2.377 2.407 2.457 2.617 2.697 2.817
1302.060 2.927 2.957 2.987 3.087 3.177 3.297 3.587 3.937 4.357 4.727
1321.350 5.047 5.387 5.677 5.957 6.247 6.417 6.377 6.287 6.157 5.937
1340.640 5.627 5.317 5.157 5.157 5.277 5.647 6.227 6.947 7.807 8.867
1359.930 10.027 11.097 12.357 14.047 16.177 18.527 19.417 18.897 18.877 19.877
1379.219 20.527 19.837 19.327 19.427 18.347 15.917 13.767 12.167 10.787 9.407
1398.509 7.957 6.607 5.487 4.777 4.357 4.087 4.047 4.157 4.267 4.567
1417.799 4.997 5.527 6.307 7.217 8.317 9.537 10.757 12.017 13.317 14.577
1437.089 16.167 17.877 19.387 20.287 20.447 20.467 20.557 20.747 20.967 20.927
1456.378 20.527 19.907 19.307 18.667 17.977 17.357 16.777 16.177 15.477 14.567
1475.668 13.497 12.307 11.187 10.157 9.227 8.347 7.417 6.457 5.577 4.817
1494.958 4.187 3.657 3.167 2.757 2.447 2.197 1.977 1.817 1.687 1.607
1514.248 1.547 1.427 1.337 1.307 1.327 1.267 1.257 1.387 1.417 1.367
1533.538 1.277 1.327 1.387 1.387 1.407 1.477 1.547 1.587 1.697 1.857
1552.827 1.947 2.007 2.127 2.287 2.437 2.547 2.657 2.797 2.857 2.907
1572.117 2.927 2.877 2.757 2.607 2.537 2.447 2.307 2.207 2.117 1.987
1591.407 2.017 2.077 1.987 1.937 1.877 1.877 1.887 1.867 1.957 1.997
1610.697 2.027 2.017 1.987 1.967 1.907 1.947 2.017 2.027 1.987 2.047
1629.986 2.077 2.097 2.157 2.237 2.387 2.487 2.637 2.797 2.907 3.087
1649.276 3.197 3.277 3.407 3.477 3.487 3.477 3.457 3.337 3.127 2.907
1668.566 2.757 2.587 2.327 2.117 1.897 1.687 1.547 1.467 1.367 1.307
1687.856 1.267 1.1814 1.1235 1.0602 1.0247 0.9674 0.8797 0.8925 0.9784 0.9024
1707.146 0.8162 0.8317 0.8465 0.8627 0.8581 0.8644 0.8943 0.9212 0.9463 0.9602
1726.435 0.9625 0.9859 0.9903 0.9782 0.9906 0.9922 1.0082 0.9818 0.9177 0.9372
1745.725 0.9192 0.8494 0.8866 0.9333 0.9065 0.8899 0.8653 0.8902 0.8858 0.8135
1765.015 0.8393 0.9114 0.9673 1.02 0.9746 0.9519 0.9167 0.8478 0.8466 0.8221
1784.305 0.7564 0.6964 0.6938 0.6355 0.5751 0.5889 0.5303 0.4986 0.531 0.5803
1803.594 0.5754 0.5285 0.5458 0.558 0.5219 0.5381 0.5946 0.6261 0.6648 0.633
1822.884 0.5664 0.5629 0.6217 0.6865 0.6561 0.63 0.6152 0.5819 0.5971 0.5593
1842.174 0.5532 0.5825 0.6441 0.7033 0.6982 0.6966 0.679 0.6471 0.6696 0.6607
1861.464 0.6273 0.6727 0.6677 0.6518 0.6355 0.5646 0.5302 0.4909 0.496 0.5681
1880.754 0.5883 0.5957 0.5811 0.5369 0.5213 0.5037 0.4663 0.4696 0.4596 0.4643
1900.043 0.5496 0.5572 0.5438 0.5119 0.4431 0.4244 0.4032 0.4236 0.4417 0.4252
1919.333 0.4508 0.4568 0.4489 0.4533 0.4783 0.5102 0.4841 0.4811 0.5142 0.5688
1938.623 0.6021 0.556 0.5566 0.5731 0.5423 0.5407 0.5613 0.5939 0.5876 0.5416
1957.913 0.527 0.5657 0.565 0.5657 0.5636 0.5691 0.5624 0.4998 0.5299 0.5746
1977.202 0.5776 0.5687 0.5881 0.571 0.5851 0.6351 0.5923 0.5758 0.5878 0.5364
1996.492 0.5016 0.535 0.5539 0.5883 0.6326 0.5634 0.4874 0.5319 0.6257 0.6004
2015.782 0.5056 0.5524 0.5645 0.5536 0.5936 0.5769 0.5898 0.6525 0.6804 0.6478
2035.072 0.6548 0.7237 0.7662 0.767 0.7271 0.6739 0.6033 0.6554 0.8044 0.7849
2054.362 0.7011 0.6892 0.6857 0.6715 0.6685 0.6549 0.6477 0.6812 0.6868 0.6305
2073.651 0.6062 0.6136 0.6547 0.6255 0.5724 0.5947 0.6102 0.6265 0.5958 0.612
2092.941 0.593 0.5599 0.6163 0.6637 0.6575 0.6206 0.641 0.639 0.6245 0.5666
2112.231 0.5419 0.5965 0.6082 0.6148 0.6062 0.6178 0.6151 0.5532 0.5753 0.6513
2131.521 0.6786 0.6833 0.6322 0.6008 0.668 0.7362 0.7053 0.6415 0.6888 0.7405
2150.810 0.707 0.7028 0.6852 0.6344 0.6173 0.6502 0.7353 0.7053 0.6299 0.6301
2170.100 0.59 0.5681 0.6151 0.6381 0.6101 0.569 0.5483 0.597 0.6312 0.5636
2189.390 0.523 0.566 0.5651 0.5179 0.5597 0.6251 0.6666 0.6644 0.6441 0.6876
2208.680 0.7208 0.7545 0.7267 0.7002 0.6381 0.5253 0.4865 0.5321 0.5181 0.4854
2227.970 0.511 0.5225 0.5101 0.3793 0.3446 0.4384 0.513 0.5043 0.4899 0.477
2247.259 0.4725 0.5102 0.5036 0.5142 0.4952 0.4654 0.5587 0.6348 0.5579 0.488
2266.549 0.4827 0.5448 0.5761 0.5131 0.4759 0.468 0.5479 0.6192 0.5963 0.5579
2285.839 0.5816 0.4714 0.4007 0.5364 0.5326 0.5346 0.5634 0.5148 0.5476 0.6195
2305.129 0.5582 0.5473 0.5764 0.5527 0.5248 0.5351 0.6299 0.6232 0.5643 0.5636
2324.418 0.5795 0.6153 0.61 0.6929 0.7042 0.6371 0.6551 0.6616 0.6363 0.6248
2343.708 0.7262 0.808 0.7686 0.7201 0.6477 0.6778 0.7401 0.753 0.8184 0.784
2362.998 0.7624 0.724 0.7069 0.7449 0.7359 0.7401 0.7888 0.8344 0.7739 0.7032
2382.288 0.7266 0.7911 0.7748 0.7111 0.7221 0.7121 0.6845 0.7409 0.7862 0.6955
2401.578 0.6836 0.6544 0.6219 0.6975 0.6282 0.5841 0.5898 0.6302 0.6606 0.6527
2420.867 0.7001 0.7525 0.7823 0.7333 0.6796 0.6449 0.6084 0.6508 0.7225 0.6469
2440.157 0.563 0.6368 0.709 0.6308 0.5713 0.653 0.7225 0.6791 0.7339 0.8436
2459.447 0.8331 0.8106 0.8199 0.8746 0.8714 0.8069 0.831 0.8532 0.9112 0.9608
2478.737 0.9371 0.9142 0.853 0.859 0.8855 0.8694 0.8591 0.8461 0.8576 0.8525
2498.026 0.8395 0.8537 0.8494 0.9203 0.9516 0.9466 0.9619 0.9274 0.91 0.941
2517.316 0.8749 0.8455 0.8816 0.8618 0.947 1.0005 0.9466 0.8881 0.97 0.9615
2536.606 0.8233 0.8461 0.8899 0.8783 0.8955 0.9377 0.9351 0.9059 0.9025 1.0201
2555.896 1.0379 0.9716 0.9097 0.9793 1.0931 1.0227 0.9099 0.8621 0.9278 0.9473
2575.186 0.957 0.9361 0.9937 1.0459 0.9819 0.9596 0.9184 0.9026 0.9538 0.8805
2594.475 0.9098 0.9359 0.8178 0.8038 0.8367 0.8865 0.9699 0.9992 0.8924 0.9136
2613.765 1.0175 1.0528 1.0239 0.958 1.0228 1.0715 1.0958 1.1369 1.109 1.1541
2633.055 1.1943 1.1343 1.1585 1.207 1.227 1.327 1.447 1.557 1.617 1.557
2652.345 1.617 1.717 1.777 1.847 1.737 1.677 1.617 1.497 1.467 1.467
2671.634 1.417 1.337 1.247 1.155 1.0758 0.991 1.0315 1.0695 0.9791 0.9417
2690.924 1.0474 1.1678 1.1664 1.1551 1.2045 1.237 1.337 1.507 1.637 1.727
2710.214 1.797 1.867 1.977 2.157 2.307 2.547 2.817 3.017 3.207 3.417
2729.504 3.617 3.667 3.707 3.777 3.917 3.907 3.747 3.667 3.557 3.397
2748.794 3.347 3.267 3.107 3.067 3.077 3.147 3.187 3.217 3.247 3.237
2768.083 3.257 3.307 3.367 3.337 3.387 3.377 3.377 3.367 3.367 3.557
2787.373 3.697 3.887 4.027 4.067 4.207 4.457 4.807 4.957 5.117 5.437
2806.663 5.757 6.077 6.287 6.597 7.037 7.517 8.057 8.747 9.797 11.067
2825.953 12.647 14.707 17.277 20.137 23.107 26.047 28.817 31.517 34.557 37.777
2845.242 40.187 41.027 40.717 40.447 40.587 41.147 41.867 42.427 43.357 44.717
2864.532 46.467 48.847 51.857 55.477 59.737 64.507 69.727 75.197 80.377 84.717
2883.822 87.897 90.077 92.637 98.107 107.497 108.887 99.997 95.347 96.387 99.557
2903.112 103.667 109.017 116.777 127.237 140.127 154.107 167.217 179.057 192.097 208.987
2922.401 225.167 227.127 218.047 214.097 214.217 209.327 195.887 177.447 160.907 148.507
2941.691 138.757 130.537 123.697 118.277 114.147 111.167 109.367 108.567 108.087 107.137
2960.981 105.267 102.347 99.047 96.927 96.687 94.787 89.997 87.227 87.887 89.257
2980.271 89.537 89.307 89.597 89.737 89.067 88.797 90.107 90.837 86.607 77.797
2999.561 69.497 63.217 57.037 50.157 43.077 36.677 31.727 28.637 27.097 26.687
3018.850 27.137 27.807 28.487 29.117 29.767 30.367 30.047 28.107 25.797 23.997
3038.140 22.207 19.807 16.917 14.267 12.027 10.247 9.147 8.437 7.857 7.717
3057.430 7.597 7.477 7.497 7.437 7.367 7.327 7.357 7.347 7.437 7.427
3076.720 6.897 6.567 6.507 6.237 6.007 5.847 5.667 5.407 5.227 5.127
3096.009 5.007 4.897 4.797 4.767 4.757 4.757 4.637 4.547 4.617 4.467
3115.299 4.347 4.357 4.237 4.117 4.017 3.977 3.877 3.717 3.567 3.407
3134.589 3.337 3.407 3.417 3.247 3.087 2.987 2.817 2.797 2.847 2.817
3153.879 2.847 2.757 2.527 2.317 2.267 2.217 2.207 2.207 2.097 1.947
3173.169 1.767 1.627 1.587 1.517 1.507 1.587 1.417 1.307 1.327 1.387
3192.458 1.457 1.337 1.1983 1.0712 0.922 0.939 1.0207 1.1484 1.227 1.1069
3211.748 1.1044 1.1531 1.1993 1.357 1.457 1.447 1.267 1.267 1.237 0.9654
3231.038 0.8244 0.8378 0.9768 1.1022 1.0573 0.8682 0.8399 0.8113 0.6843 0.6879
3250.328 0.663 0.7069 0.8391 0.8272 0.7646 0.6925 0.7639 0.8865 1.0232 1.0533
3269.617 1.0021 0.8169 0.7325 0.8517 0.8391 0.7039 0.6701 0.7743 0.8279 0.8215
3288.907 0.7175 0.6838 0.7048 0.7404 0.6728 0.6247 0.7548 0.7591 0.7309 0.8247
3308.197 0.7802 0.706 0.7329 0.7123 0.7234 0.6775 0.7263 0.7406 0.6294 0.7453
3327.487 0.858 0.9252 0.9048 0.7794 0.6694 0.6535 0.6211 0.5613 0.5993 0.6633
3346.777 0.7236 0.7584 0.7181 0.6622 0.6702 0.5967 0.5753 0.6609 0.8199 0.7826
3366.066 0.6281 0.7698 0.7842 0.6751 0.6128 0.5618 0.6908 0.7238 0.5782 0.4832
3385.356 0.3929 0.431 0.5848 0.6501 0.6089 0.6994 0.716 0.5712 0.6608 0.7375
3404.646 0.669 0.4614 0.4548 0.5724 0.5627 0.6539 0.59 0.6091 0.6942 0.5879
3423.936 0.551 0.4995 0.3874 0.4195 0.3998 0.23112 0.24468 0.24812 0.30067 0.27551
3443.225 0.3806 0.6267 0.5168 0.5402 0.5812 0.5324 0.5434 0.6205 0.6475 0.598
3462.515 0.4016 0.25821 0.3227 0.3648 0.3811 0.4258 0.4225 0.4805 0.4908 0.3957
3481.805 0.4356 0.3703 0.3978 0.431 0.3856 0.3589 0.427 0.5473 0.6166 0.7827
3501.095 0.5325 0.3514 0.4237 0.4366 0.4564 0.3768 0.3479 0.3545 0.3494 0.24511
3520.385 0.214198 0.4229 0.6733 0.5512 0.28104 0.29536 0.4924 0.5252 0.4292 0.3321
3539.674 0.26996 0.3396 0.4337 0.3866 0.4187 0.4681 0.4235 0.4803 0.3401 0.169
3558.964 0.321 0.5076 0.5535 0.5283 0.548 0.5229 0.30674 0.3601 0.4791 0.44
3578.254 0.5153 0.3214 0.134 0.23427 0.3295 0.4053 0.4424 0.5351 0.5366 0.4024
3597.544 0.3361 0.3903 0.4041 0.4283 0.4638 0.4332 0.4578 0.4393 0.3449 0.2881
3616.833 0.30449 0.29928 0.3802 0.537 0.4417 0.3172 0.3111 0.24602 0.1194 0.1229
3636.123 0.27545 0.28511 0.3506 0.598 0.5634 0.3638 0.3806 0.30484 0.089 0.056
3655.413 0.1888 0.3619 0.3373 0.1921 0.29247 0.3853 0.4552 0.3386 0.216444 0.4599
3674.703 0.4157 0.3379 0.5178 0.4075 0.29272 0.448 0.4804 0.3444 0.4055 0.5326
3693.993 0.4464 0.4006 0.4357 0.4942 0.4118 0.3967 0.5549 0.5129 0.4259 0.4963
3713.282 0.549 0.5009 0.4648 0.3499 0.315 0.3837 0.5055 0.671 0.664 0.6122
3732.572 0.5855 0.5583 0.5409 0.7921 0.7691 0.5099 0.5631 0.5697 0.5039 0.6449
3751.862 0.8269 0.8477 0.8403 0.6694 0.4563 0.5019 0.6384 0.6524 0.666 0.4499
3771.152 0.3712 0.4662 0.6197 0.6821 0.4104 0.4327 0.5085 0.7215 0.9127 0.8598
3790.441 0.7418 0.5303 0.5478 0.6174 0.6072 0.6679 0.7648 0.8046 0.793 0.6209
3809.731 0.5124 0.6196 0.6904 0.7338 0.8343 0.8122 0.7996 0.7112 0.7896 0.8061
3829.021 0.898 0.9118 0.7039 0.6607 0.6279 0.7946 0.8398 0.9196 0.9251 0.8635
3848.311 0.982 1.0805 1.0624 0.9523 0.691 0.6611 0.8535 0.9412 0.8971 0.9627
3867.601 0.8219 0.8701 1.1026 0.9726 0.9348 0.9542 1.0071 1.1055 0.9397 0.8874
3886.890 1.0348 0.8445 0.8325 1.0714 1.0823 0.912 0.8083 0.7452 0.6945 0.7365
3906.180 0.7991 0.8989 0.7898 0.7033 0.9313 1.027 0.954 0.9089 0.7784 0.7825
3925.470 0.8936 0.8817 0.9235 0.8956 0.83 0.8289 0.6601 0.6629 0.7856 0.8039
3944.760 0.7877 0.653 0.6186 0.8212 1.0835 0.9416 0.9038 0.9731 0.921 0.913
3964.049 0.8145 0.9806 0.9901 0.7654 0.7611 0.8353 0.7944 0.653 0.6785 0.7524
3983.339 0.8307 0.8553 0.8058 0.7506 0.7408 0.9172 0.8791 0.5741 0.6268 0.717
##END=
