##TITLE=2-Methoxy-4-vinylphenol
##JCAMP-DX=4.24
##DATA TYPE=INFRARED SPECTRUM
##ORIGIN=EPA-IR VAPOR PHASE LIBRARY
##OWNER=SRD/NIST
Collection (C) 2018 copyright by the U.S. Secretary of Commerce
on behalf of the United States of America. All rights reserved.
##CAS REGISTRY NO=7786-61-0
##MOLFORM=C 9 H 10 O 2
##$NIST SOURCE=MSDC-IR
##STATE=gas
##XUNITS=1/CM
##YUNITS=ABSORBANCE
##XFACTOR=1.
##YFACTOR=0.001
##DELTAX=1.92898
##FIRSTX=549.8
##LASTX=4000.7
##FIRSTY=3.864
##MAXX=4000.7
##MINX=549.759
##MAXY=0.071134
##MINY=0
##NPOINTS=1790
##XYDATA=(X++(Y..Y))
549.759 3.864 4.154 4.434 4.464 4.674 4.694 4.814 5.504 5.404 4.684
569.049 4.264 3.954 3.904 3.594 3.384 3.734 3.474 3.054 2.824 2.484
588.339 2.344 2.314 2.324 1.954 1.804 1.394 0.8808 0.9391 1.0268 1.394
607.628 1.844 1.714 1.344 1.334 1.169 1.2617 1.424 1.1936 1.0311 0.8804
626.918 1.1304 1.0986 0.871 0.9117 0.8484 0.9759 1.0473 1.1001 0.8228 0.33032
646.208 0.5565 0.8764 0.9018 0.1854 0 0.6157 0.32907 0.068 0.34533 0.5245
665.498 0.4697 0.7627 0.9968 0.7682 0.6678 0.4963 0.5648 0.9058 1.2511 1.414
684.787 1.394 1.2725 1.0797 1.079 1.334 1.494 1.2305 0.9768 1.1284 1.364
704.077 1.784 1.864 1.564 1.464 1.2111 1.334 1.414 1.474 1.544 1.1499
723.367 1.284 1.954 2.054 1.794 1.914 1.844 1.834 1.934 1.584 1.1398
742.657 1.1875 1.314 1.354 1.554 1.594 1.534 1.634 1.944 2.334 2.424
761.947 2.614 2.954 2.884 3.284 3.774 3.874 4.414 5.394 6.124 6.814
781.236 7.784 8.794 9.664 10.144 10.344 10.564 10.524 9.824 9.214 8.714
800.526 7.854 6.904 6.424 6.604 6.774 7.164 7.804 8.644 9.614 10.714
819.816 11.704 11.434 9.954 8.344 7.634 7.234 6.664 6.494 6.064 5.624
839.106 5.394 5.344 5.494 5.784 6.304 6.794 7.624 8.224 8.284 8.304
858.395 8.154 7.744 7.254 7.014 6.604 6.224 6.194 5.914 5.654 5.654
877.685 5.754 5.644 5.534 5.714 6.044 6.264 6.774 7.704 8.764 9.854
896.975 10.734 11.384 11.574 11.734 12.174 12.104 11.284 10.264 9.414 8.734
916.265 7.894 6.744 5.884 5.514 5.094 4.614 4.224 3.734 3.444 3.504
935.555 3.154 2.594 2.464 2.654 2.804 2.604 2.434 2.754 3.084 3.204
954.844 2.984 2.994 3.474 3.554 3.714 4.234 4.454 4.584 4.764 4.824
974.134 5.054 5.534 5.674 6.024 6.214 6.394 6.954 6.704 6.124 5.884
993.424 5.834 5.654 5.484 5.344 5.074 5.184 5.404 5.734 6.424 6.534
1012.714 7.054 8.294 9.374 9.774 10.654 12.434 13.164 13.864 14.704 14.774
1032.003 15.224 15.584 15.064 14.264 13.834 13.534 12.784 11.904 10.624 9.044
1051.293 7.944 6.804 5.754 5.034 3.914 3.044 3.354 3.494 2.964 2.654
1070.583 3.034 2.414 1.844 2.454 2.494 3.144 3.274 3.334 3.294 3.004
1089.873 3.134 3.304 3.204 2.854 3.254 3.724 3.964 4.424 5.644 7.674
1109.163 9.194 10.764 12.234 13.284 14.374 13.734 13.684 14.554 14.994 14.944
1128.452 14.194 13.024 11.574 10.764 11.214 11.794 12.474 14.114 15.294 15.854
1147.742 16.364 17.154 17.694 17.504 17.784 17.754 16.764 16.404 15.704 14.404
1167.032 14.194 14.404 13.904 13.204 13.324 14.074 15.054 15.764 16.154 16.934
1186.322 17.664 17.554 17.434 18.214 19.034 20.394 21.774 22.844 24.344 25.124
1205.611 24.034 23.114 23.424 23.204 22.564 21.824 21.384 21.654 21.684 22.214
1224.901 24.044 25.614 27.934 29.974 31.914 34.144 35.404 35.644 35.594 35.674
1244.191 35.424 34.864 34.394 33.984 33.694 35.044 37.934 42.054 46.784 51.904
1263.481 57.154 61.894 66.074 68.304 68.514 67.734 65.004 60.394 54.444 47.564
1282.771 40.704 34.134 28.514 23.824 19.994 16.824 14.004 11.744 9.794 8.504
1302.060 7.804 6.884 6.154 5.624 5.164 4.834 4.604 4.544 4.334 4.174
1321.350 4.174 3.934 3.764 3.874 3.874 3.784 3.824 4.004 4.284 4.624
1340.640 5.094 5.654 6.334 7.254 8.184 9.044 10.014 10.984 11.784 12.384
1359.930 12.794 13.004 13.094 13.014 12.584 11.914 11.034 10.084 9.114 8.134
1379.219 7.264 6.434 5.604 4.904 4.514 4.284 4.154 4.134 4.234 4.474
1398.509 4.844 5.304 5.914 6.674 7.534 8.594 9.594 10.484 11.284 11.944
1417.799 12.594 13.224 13.574 13.834 13.814 13.334 12.594 11.774 11.054 10.454
1437.089 9.804 8.884 8.054 7.494 7.224 7.204 7.434 7.914 8.474 9.144
1456.378 9.894 10.404 10.694 11.074 11.474 11.554 11.354 11.224 11.054 10.874
1475.668 10.734 10.614 10.484 10.354 10.494 11.124 12.174 13.734 16.084 19.214
1494.958 23.444 28.794 35.224 42.744 50.564 58.164 64.744 69.164 71.134 70.914
1514.248 68.354 63.434 56.714 48.644 39.224 30.024 21.964 15.874 11.974 9.514
1533.538 7.784 6.634 5.994 5.464 4.884 4.624 4.314 3.974 3.834 3.654
1552.827 3.614 3.554 3.524 3.604 3.544 3.444 3.514 3.704 4.084 4.544
1572.117 5.014 5.524 6.184 6.964 7.824 8.714 9.594 10.574 11.454 12.174
1591.407 12.814 13.224 13.474 13.654 13.624 13.484 13.204 13.024 13.064 12.864
1610.697 12.354 11.994 11.834 11.434 11.014 10.474 9.974 9.334 8.434 7.914
1629.986 7.544 6.974 6.614 6.284 5.634 5.054 4.544 3.934 3.314 2.864
1649.276 2.484 2.254 2.044 1.784 1.654 1.534 1.454 1.494 1.484 1.414
1668.566 1.354 1.374 1.394 1.314 1.324 1.434 1.414 1.2583 1.2781 1.384
1687.856 1.2522 1.2507 1.334 1.2575 1.1464 1.1878 1.314 1.2491 1.1262 1.2045
1707.146 1.1994 1.138 1.1708 1.2045 1.2584 1.2358 1.111 0.9642 0.9771 1.046
1726.435 1.0857 0.9992 0.9013 0.8407 0.8669 1.0259 1.0343 1.0328 1.0647 1.0577
1745.725 1.0293 1.0264 1.0743 1.0354 0.9993 1.0361 1.0478 0.8619 0.7615 0.7487
1765.015 0.7455 0.7732 0.6613 0.6999 0.8109 0.8361 0.888 0.8631 0.8546 0.9485
1784.305 0.988 1.0889 1.1904 1.2572 1.324 1.404 1.504 1.584 1.664 1.834
1803.594 2.024 2.144 2.184 2.174 2.094 2.024 2.074 2.094 2.004 1.814
1822.884 1.724 1.664 1.524 1.304 1.1009 1.0777 1.0124 1.0059 1.0754 1.0571
1842.174 1.0671 1.0986 1.1245 1.0676 1.0942 1.2441 1.384 1.474 1.454 1.394
1861.464 1.364 1.364 1.344 1.304 1.2479 1.1961 1.0819 0.9722 0.9268 0.7722
1880.754 0.6463 0.629 0.6336 0.6894 0.578 0.4786 0.6218 0.6004 0.5625 0.6395
1900.043 0.6804 0.6524 0.6738 0.6695 0.6454 0.7202 0.7119 0.7799 0.858 0.8742
1919.333 0.8773 0.8151 0.7536 0.8106 0.9661 1.0623 1.0695 0.9491 0.9349 1.042
1938.623 0.9818 0.948 1.0212 1.0267 0.9493 0.8951 0.7575 0.6573 0.7328 0.8147
1957.913 0.7696 0.7204 0.7299 0.721 0.8043 0.7351 0.71 0.7422 0.5894 0.5356
1977.202 0.4481 0.4712 0.5702 0.5982 0.673 0.6901 0.6519 0.5835 0.5752 0.6494
1996.492 0.6951 0.6099 0.6199 0.6793 0.5896 0.5607 0.596 0.638 0.7584 0.7589
2015.782 0.7231 0.8386 0.8858 0.9087 0.9945 0.9861 1.0338 1.0993 0.9889 0.9086
2035.072 0.9451 1.009 1.0409 1.1305 1.334 1.374 1.314 1.2555 1.294 1.424
2054.362 1.494 1.484 1.474 1.434 1.334 1.394 1.384 1.304 1.2816 1.2506
2073.651 1.1659 1.1541 1.1002 0.8997 0.8712 0.7963 0.7431 0.8282 0.7516 0.7361
2092.941 0.7042 0.6513 0.6378 0.6466 0.7159 0.7266 0.6988 0.6407 0.6348 0.5802
2112.231 0.5808 0.6402 0.5118 0.4927 0.5122 0.5006 0.538 0.5935 0.6551 0.6043
2131.521 0.499 0.4864 0.5848 0.6818 0.7672 0.8071 0.8128 0.6887 0.6401 0.7574
2150.810 0.7889 0.7639 0.6712 0.684 0.7124 0.5987 0.669 0.7241 0.7092 0.6638
2170.100 0.5529 0.5498 0.6059 0.5792 0.5115 0.5901 0.6708 0.5796 0.5592 0.6825
2189.390 0.7753 0.7983 0.836 0.6681 0.544 0.6904 0.7166 0.5833 0.5009 0.5324
2208.680 0.5558 0.5322 0.5058 0.4673 0.4848 0.5544 0.5778 0.5508 0.4551 0.4925
2227.970 0.614 0.5228 0.5164 0.5836 0.4821 0.4461 0.6066 0.5999 0.3991 0.4192
2247.259 0.5375 0.5799 0.6179 0.6174 0.4904 0.4551 0.4975 0.5214 0.4894 0.4526
2266.549 0.4062 0.4411 0.51 0.5021 0.4537 0.5288 0.6659 0.5978 0.5777 0.6547
2285.839 0.6107 0.7113 0.9028 0.8059 0.6868 0.6897 0.8365 0.9524 0.8521 0.7784
2305.129 0.8919 0.9606 0.8066 0.753 0.7975 0.7125 0.6571 0.6845 0.7541 0.7581
2324.418 0.705 0.6876 0.6834 0.7232 0.7953 0.7346 0.7304 0.6654 0.5993 0.64
2343.708 0.6435 0.6413 0.5687 0.5728 0.6074 0.8345 0.8337 0.5982 0.6297 0.6667
2362.998 0.7464 0.8582 0.7282 0.6531 0.8156 0.7874 0.7526 0.7841 0.7183 0.8468
2382.288 0.92 0.7834 0.8538 0.9063 0.7551 0.7563 0.8579 0.7771 0.6219 0.5835
2401.578 0.5787 0.5276 0.464 0.6148 0.6988 0.7527 0.6333 0.546 0.7016 0.6696
2420.867 0.6359 0.6608 0.6718 0.6441 0.7877 0.8402 0.7008 0.6355 0.6365 0.7211
2440.157 0.6338 0.4818 0.5019 0.633 0.7553 0.7135 0.6437 0.6732 0.6086 0.5756
2459.447 0.7367 0.8081 0.8843 0.9265 0.8964 0.7957 0.697 0.7649 0.7976 0.8262
2478.737 0.9107 0.9432 0.8609 0.7695 0.8309 1.0183 1.0121 0.996 0.9629 0.8818
2498.026 1.0073 1.0276 0.8898 0.7981 0.8987 1.0706 1.0879 0.9721 1.0103 1.0848
2517.316 1.0961 1.1105 1.0599 0.9971 0.963 1.0421 1.1358 1.1094 1.036 1.0299
2536.606 0.8961 0.836 0.8815 0.8177 0.7558 0.655 0.6948 0.7264 0.7825 0.8807
2555.896 0.8199 0.7259 0.6444 0.7377 0.6834 0.5642 0.5929 0.6966 0.724 0.647
2575.186 0.5773 0.5819 0.6491 0.618 0.6189 0.5447 0.4409 0.4746 0.5092 0.5195
2594.475 0.5952 0.7057 0.7055 0.6561 0.8198 0.8122 0.7502 0.7685 0.5901 0.7264
2613.765 0.8322 0.6512 0.6963 0.8074 0.8517 1.0347 1.0047 0.8847 1.0486 1.1267
2633.055 1.0438 0.8383 0.6141 0.6698 0.7469 0.722 0.7038 0.7313 0.7478 0.6615
2652.345 0.6235 0.6371 0.7849 0.8742 0.6986 0.5253 0.5703 0.6683 0.6287 0.7075
2671.634 0.8642 0.9181 0.9463 0.7597 0.6157 0.6329 0.4698 0.4002 0.607 0.603
2690.924 0.5403 0.652 0.6143 0.6755 0.7552 0.531 0.5298 0.6941 0.8315 0.8606
2710.214 0.6258 0.588 0.5669 0.6216 0.7441 0.7165 0.7245 0.6969 0.7008 0.7443
2729.504 0.7457 0.677 0.608 0.6608 0.582 0.49 0.6325 0.6934 0.6305 0.6735
2748.794 0.9708 0.8626 0.6329 0.6437 0.7008 0.8044 0.658 0.7985 0.7884 0.5373
2768.083 0.5172 0.5802 0.8234 0.9499 0.8649 0.8673 1.0856 1.0608 0.9272 0.8957
2787.373 0.8751 0.881 0.9274 0.9166 0.894 1.0026 0.9413 0.9115 1.1621 1.2567
2806.663 1.2637 1.354 1.364 1.544 1.584 1.524 1.664 1.894 2.064 2.114
2825.953 2.104 2.184 2.524 2.904 3.174 3.324 3.354 3.824 4.424 4.644
2845.242 4.714 5.074 5.234 5.094 5.274 5.124 4.924 4.734 4.344 3.944
2864.532 3.714 3.474 3.234 3.274 3.244 3.144 3.114 3.034 2.884 2.874
2883.822 3.034 3.014 2.884 2.864 2.814 2.864 3.034 2.904 2.924 3.144
2903.112 3.094 3.154 3.204 3.564 3.784 3.834 4.304 4.454 4.544 4.904
2922.401 4.904 4.834 5.034 5.284 5.624 5.974 6.154 6.504 7.194 7.744
2941.691 8.054 8.604 9.114 9.414 9.754 9.814 9.994 10.044 9.854 9.664
2960.981 9.354 9.184 8.744 8.284 8.054 7.694 7.294 6.944 6.784 6.784
2980.271 6.704 6.374 6.094 6.144 6.344 6.544 6.754 6.914 7.414 8.114
2999.561 8.694 9.404 10.244 11.074 11.634 11.924 11.964 11.544 10.804 10.084
3018.850 9.274 8.404 7.304 6.214 5.464 4.954 4.704 4.594 4.654 4.624
3038.140 4.684 5.014 5.184 5.434 5.564 5.674 6.184 6.354 6.334 6.584
3057.430 6.754 6.754 6.854 6.774 6.624 6.454 6.114 5.854 5.544 5.404
3076.720 5.324 5.194 5.234 5.544 5.934 6.434 6.994 7.334 7.444 7.384
3096.009 6.974 6.454 6.204 5.594 4.664 3.754 2.934 2.334 2.064 1.844
3115.299 1.664 1.814 1.754 1.474 1.314 1.131 1.1455 1.2506 1.344 1.384
3134.589 1.2666 1.1739 1.0064 1.0495 1.1374 0.9754 0.9309 1.0394 0.8756 0.7555
3153.879 0.7974 0.7482 0.9727 1.0328 0.7839 0.6737 0.9214 0.9259 0.7952 0.8783
3173.169 0.7639 0.5772 0.5585 0.5849 0.6718 1.038 1.0751 0.6362 0.5022 0.5558
3192.458 0.6585 0.651 0.5346 0.4579 0.6109 0.8368 0.6873 0.6137 0.6204 0.5753
3211.748 0.4421 0.438 0.546 0.6432 0.5933 0.37984 0.4102 0.5998 0.5795 0.4564
3231.038 0.5146 0.4582 0.37105 0.286428 0.36508 0.6871 0.9311 0.7829 0.5749 0.6357
3250.328 0.6049 0.4437 0.5006 0.6476 0.6984 0.6699 0.5864 0.6938 0.8228 0.7103
3269.617 0.5344 0.6234 0.5613 0.5431 0.6845 0.619 0.30541 0.5922 0.8492 0.5293
3288.907 0.6525 0.7306 0.5381 0.54 0.6764 0.6948 0.5966 0.5786 0.8141 0.7247
3308.197 0.34811 0.4228 0.6072 0.5183 0.6837 0.7159 0.5075 0.5997 0.5646 0.6811
3327.487 0.4864 0.085 0.2095 0.27928 0.34615 0.4202 0.32554 0.2516 0.5224 0.7595
3346.777 0.6324 0.5068 0.4282 0.32544 0.4464 0.5933 0.37348 0.156 0.109 0.171
3366.066 0.35122 0.5119 0.5186 0.4836 0.5111 0.30718 0.4495 0.6888 0.4873 0.4867
3385.356 0.5535 0.6063 0.5121 0.5783 0.9037 0.8553 0.4142 0.095 0.285784 0.6425
3404.646 0.5885 0.32624 0.4861 0.7025 0.6955 0.3868 0.068 0.1923 0.4283 0.27464
3423.936 0.172 0.3576 0.34044 0.4093 0.624 0.4367 0.229 0.132 0.2619 0.5428
3443.225 0.5019 0.45 0.37621 0.36685 0.4303 0.538 0.4146 0.2222 0.4189 0.4055
3462.515 0.3351 0.5572 0.5048 0.5806 0.5685 0.505 0.751 0.7374 0.597 0.5701
3481.805 0.37804 0.2175 0.2442 0.4052 0.4812 0.4545 0.7398 0.7754 0.5398 0.4272
3501.095 0.3849 0.34123 0.407 0.4974 0.4977 0.4866 0.7251 0.751 0.5553 0.7357
3520.385 0.6947 0.5313 0.6727 0.8419 0.7272 0.8322 0.9562 0.7694 0.8166 1.1698
3539.674 1.2618 1.122 1.1294 1.042 1.0839 1.2066 1.374 1.694 2.014 2.364
3558.964 2.924 3.394 3.964 5.094 6.634 8.464 10.684 13.644 16.974 20.404
3578.254 23.834 26.914 29.324 31.014 32.034 32.044 30.804 28.724 25.904 22.344
3597.544 18.664 15.134 11.964 9.254 6.954 5.484 4.434 3.494 3.054 2.644
3616.833 2.194 1.914 1.714 1.584 1.314 1.2247 1.494 1.494 1.354 1.1885
3636.123 1.1428 1.314 1.344 1.374 1.284 1.2132 1.314 1.324 1.374 1.524
3655.413 1.494 1.1787 1.0147 1.1531 1.053 0.8275 0.8379 0.8865 0.9856 0.7462
3674.703 0.4534 0.5377 0.62 0.7322 0.5413 0.4572 0.5949 0.7348 0.8435 0.649
3693.993 0.5971 0.5322 0.32743 0.085 0.27687 0.5185 0.4563 0.4957 0.4651 0.591
3713.282 0.5787 0.5448 0.639 0.6037 0.5796 0.5386 0.37532 0.4479 0.4886 0.5046
3732.572 0.2509 0.15 0.429 0.4596 0.5325 0.521 0.127 0.062 0.4384 0.6533
3751.862 0.5581 0.34762 0.3028 0.32979 0.4887 0.5217 0.4896 0.6206 0.8334 0.9082
3771.152 0.7577 0.6574 0.6461 0.5523 0.33863 0.169 0.30657 0.37086 0.214 0.30484
3790.441 0.2252 0.136 0.36901 0.4617 0.4078 0.4863 0.5039 0.30321 0.2443 0.2068
3809.731 0.153 0.30781 0.5246 0.5252 0.2007 0.046 0.1853 0.408 0.7079 0.684
3829.021 0.6806 0.5795 0.28618 0.5551 0.7029 0.5765 0.4859 0.4453 0.3614 0.2505
3848.311 0.33459 0.290446 0.2952 0.452 0.5067 0.436 0.2736 0.290288 0.4103 0.31394
3867.601 0.5109 0.7331 0.6676 0.5884 0.6033 0.7513 0.8251 0.8052 0.7188 0.34304
3886.890 0.12 0.34203 0.6883 0.7876 0.5105 0.32863 0.6559 0.9635 0.7676 0.6885
3906.180 0.7248 0.5953 0.4171 0.4371 0.38353 0.35164 0.5151 0.6797 0.62 0.34654
3925.470 0.32213 0.4276 0.5366 0.6434 0.6258 0.4899 0.5049 0.6596 0.6939 0.446
3944.760 0.2491 0.29791 0.4089 0.4239 0.5209 0.608 0.5913 0.7617 0.7902 0.5209
3964.049 0.34379 0.2397 0.288792 0.2585 0.33306 0.5899 0.5299 0.35549 0.168 0.30348
3983.339 0.5962 0.6878 0.691 0.6966 0.8682 0.8441 0.5228 0.2568 0.1897 0.2362
##END=
