##TITLE=1-Chloroethyltrimethylsilane
##JCAMP-DX=4.24
##DATA TYPE=INFRARED SPECTRUM
##ORIGIN=EPA-IR VAPOR PHASE LIBRARY
##OWNER=SRD/NIST
Collection (C) 2018 copyright by the U.S. Secretary of Commerce
on behalf of the United States of America. All rights reserved.
##CAS REGISTRY NO=7787-87-3
##MOLFORM=C 5 H 13 Cl Si
##$NIST SOURCE=MSDC-IR
##STATE=gas
##XUNITS=1/CM
##YUNITS=ABSORBANCE
##XFACTOR=1.
##YFACTOR=0.001
##DELTAX=1.92898
##FIRSTX=549.8
##LASTX=4000.7
##FIRSTY=5.1
##MAXX=4000.7
##MINX=549.759
##MAXY=0.17157
##MINY=0
##NPOINTS=1790
##XYDATA=(X++(Y..Y))
549.759 5.1 4.61 4.03 5.29 6.12 5.69 5.72 5.76 5.54 5.13
569.049 4.44 3.06 2.52 2.68 2.46 1.681 1.2679 1.5178 2.54 2.98
588.339 1.7047 1.41975 1.7703 2.4 3.36 3.86 3.51 3.73 4.82 6.28
607.628 8.52 10.53 12.87 15.18 16.37 17.48 19.14 20.8 22.52 22.6
626.918 21.27 19.87 19.39 18.86 16.32 12.74 9.7 7.88 6.67 5.61
646.208 4.74 4.11 3.94 3.78 4.22 4.52 4.4 4.43 4.5 4.66
665.498 4.92 5.54 6.3 7.15 7.83 8.35 9 10.07 11.01 12.17
684.787 13.71 15.34 17.07 18.58 20.62 22.23 22.95 24.29 25.41 26.57
704.077 27.36 27.36 27.68 27.57 27.39 26.97 26.23 25.02 23.73 22.7
723.367 21.69 20.97 20.37 19.52 18.72 18.77 19.12 19.94 20.52 20.87
742.657 22.77 24.8 26.17 28.43 30.03 31.12 32.3 33.25 33.82 33.51
761.947 32.99 32.09 30.19 28.44 27.22 25.27 23.09 21.86 20.89 19.17
781.236 17.76 16.93 16.13 15.52 15.35 15.18 15.52 15.9 16.26 17.09
800.526 17.87 19.32 21.12 22.29 24.28 27.19 29.79 32.93 37.51 43.34
819.816 50.18 57.86 67.22 77.97 88.57 100.27 112.81 125.75 138.71 150.41
839.106 159.99 167.09 170.75 171.57 171.05 168.79 164.77 159.59 152.86 145.61
858.395 138.79 131.75 124.77 118.26 110.83 102.56 95.11 88.49 81.55 74.17
877.685 67.44 61.17 55.56 50.41 46.14 42.15 38.79 36.05 32.99 30.7
896.975 28.8 26.81 24.93 23.21 21.72 19.9 18.29 17.02 15.79 15.36
916.265 14.34 12.92 12.02 11.13 10.41 10.26 9.84 9.19 8.79 8.41
935.555 8.38 8.73 8.89 9.46 9.9 9.69 10.01 10 10.07 10.65
954.844 11.57 11.65 11.51 11.16 10.63 10.68 10.03 8.78 7.8 7.32
974.134 6.59 6.11 5.77 5.44 4.83 4.91 5.44 5.59 6.19 6.9
993.424 7.81 9.2 10.59 11.47 13.06 14.6 15.45 16.61 17.28 17.58
1012.714 18.12 17.93 16.78 15.72 14.53 12.37 10.11 8.52 7.23 5.46
1032.003 4.82 5.04 3.67 2.3051 2.1491 2.75 2.296 1.2754 1.7305 2.2399
1051.293 3.05 3.58 3.13 2.83 3.02 3.42 3.14 2.72 2.89 3.31
1070.583 3.65 3.08 2.83 3.32 3.58 2.98 2.45 2.2727 1.219 1.17
1089.873 2.36 2.82 1.7024 1.7196 2.77 0.82 0 0.641 0.983 1.115
1109.163 0.463 0.817 1.5022 2.2733 2.52 1.6855 1.102 1.3071 2.0239 1.8472
1128.452 1.6744 1.9131 1.3505 1.243 1.4701 1.175 0.45 0.553 0.87 0.529
1147.742 1.2986 2.45 2.37 2.1908 2.96 3.53 4.02 4.93 4.8 4.73
1167.032 4.95 4.9 5.67 6.59 6.23 6.09 6.45 6.52 6.69 6.59
1186.322 5.61 4.95 4.73 4.39 3.71 3.61 3.91 3.22 2.74 2.3414
1205.611 2.64 2.78 3.27 3.14 3.35 5.38 6.28 7.28 7.25 7.19
1224.901 8.6 8.8 10.41 12.92 15.91 19.08 22.07 27.38 33 38.12
1244.191 44.51 51.17 57.81 64.95 70.96 76.06 81.66 85.62 87.07 85.56
1263.481 81.29 76.12 70.72 65.35 58.53 50.94 43.51 36.5 29.97 24.09
1282.771 19.67 16.5 13.53 11.17 9.89 9.17 8.72 8.45 8.2 7.9
1302.060 7.78 7.77 7.96 8.15 8.13 8.06 7.87 7.71 7.48 7.12
1321.350 6.89 6.49 5.97 5.69 5.47 5.19 4.85 4.44 4.2 4.24
1340.640 4.12 3.89 3.78 3.67 3.66 3.74 3.74 3.68 3.79 4.06
1359.930 4.29 4.54 4.86 5.31 5.91 6.28 6.55 7.09 7.65 8.08
1379.219 8.44 8.61 8.43 8.35 8.56 8.27 7.91 7.92 7.77 7.62
1398.509 7.76 7.93 8.05 8.1 8.14 8.28 8.42 8.39 8.38 8.36
1417.799 8.19 8.26 8.32 8.26 8.37 8.51 8.86 9.26 9.57 10.1
1437.089 10.57 10.87 11.11 11.44 11.77 11.77 11.47 11.06 10.98 10.98
1456.378 10.6 10.19 9.97 9.56 9.39 8.87 7.9 7.34 6.92 6.59
1475.668 6.01 5.03 4.47 4.22 4 3.71 3.12 2.92 3 2.88
1494.958 2.86 2.86 2.82 2.76 2.7 2.6 2.5 2.45 2.61 2.6
1514.248 2.61 2.81 2.57 2.36 2.6 2.49 2.46 2.46 2.44 2.45
1533.538 2.2954 2.35 2.37 2.44 2.54 2.41 2.3133 2.1177 2.0313 2.0323
1552.827 2.1324 2.39 2.42 2.62 2.42 2.1787 2.105 2.0458 2.2449 2.3161
1572.117 2.44 2.43 2.3362 2.37 2.2646 2.0923 1.7609 1.7673 1.993 2.0698
1591.407 2.0473 1.9991 2.1046 2.1131 2.1061 1.9535 1.7663 1.7118 1.8279 1.9994
1610.697 1.9259 1.592 1.5991 1.8185 1.7489 1.7002 1.7556 1.8334 1.7132 1.7706
1629.986 1.8884 1.7749 1.9004 2.0212 1.8309 1.7396 1.9089 1.8417 1.6842 1.7111
1649.276 1.7705 2.0001 1.9962 1.7475 1.8846 2.023 1.8136 1.5601 1.5965 1.7405
1668.566 1.9635 1.8571 1.6165 1.7368 1.6815 1.6649 1.7298 1.6718 1.6139 1.5472
1687.856 1.5315 1.5515 1.6578 1.6478 1.4819 1.482 1.6049 1.4988 1.3296 1.41118
1707.146 1.4848 1.5778 1.601 1.42534 1.3397 1.41756 1.5092 1.4549 1.3247 1.4539
1726.435 1.583 1.5511 1.43548 1.42371 1.6397 1.5816 1.5379 1.6406 1.6138 1.37187
1745.725 1.2763 1.3965 1.5163 1.5798 1.42655 1.2736 1.3061 1.2992 1.156 1.186
1765.015 1.3148 1.3021 1.3169 1.3129 1.3351 1.4051 1.44168 1.40423 1.39197 1.36484
1784.305 1.211 1.188 1.2562 1.212 1.2928 1.40953 1.36717 1.527 1.5228 1.3845
1803.594 1.42301 1.44475 1.5492 1.6259 1.5831 1.4875 1.506 1.6721 1.7455 1.7427
1822.884 1.6101 1.6096 1.7573 1.7633 1.6638 1.5053 1.36921 1.2872 1.228 1.204
1842.174 1.3126 1.2958 1.3028 1.38877 1.36841 1.40375 1.5776 1.6036 1.6705 1.8324
1861.464 1.8172 1.9146 2.0062 1.9171 1.9148 1.8978 1.797 1.8668 1.961 2.0505
1880.754 2.2152 2.2482 2.1098 2.1282 2.2814 2.1845 2.0059 2.0053 1.9428 1.8382
1900.043 1.8357 1.8657 1.7294 1.627 1.753 1.7752 1.6687 1.6419 1.72 1.7424
1919.333 1.7379 1.9438 2.0301 1.8921 1.9751 2.0513 1.996 2.0918 2.0635 2.0071
1938.623 2.1586 2.42 2.63 2.51 2.2976 2.325 2.58 2.69 2.62 2.56
1957.913 2.38 2.36 2.39 2.2798 2.37 2.51 2.48 2.1989 2.1008 2.0347
1977.202 1.8036 1.8265 1.8789 1.921 1.9632 1.9366 2.0243 1.9878 1.7925 1.7751
1996.492 1.7707 1.7767 1.874 1.7615 1.6178 1.6825 1.709 1.6235 1.6846 1.7769
2015.782 1.7047 1.6678 1.6508 1.6317 1.562 1.5304 1.6077 1.6344 1.78 1.9003
2035.072 1.7542 1.697 1.5439 1.43795 1.4877 1.5105 1.41906 1.34109 1.44613 1.4899
2054.362 1.3354 1.2781 1.4981 1.6174 1.6822 1.5899 1.5621 1.7085 1.66 1.42785
2073.651 1.2819 1.37929 1.5891 1.6626 1.665 1.8146 1.7878 1.6948 1.736 1.7511
2092.941 1.8535 1.8399 1.8411 1.8614 1.8888 1.9806 1.934 2.0729 2.1576 2.148
2112.231 2.1478 1.9604 1.9326 1.9588 2.0421 2.0961 1.9592 1.9358 1.9226 1.9564
2131.521 1.9473 1.8955 1.8588 1.8276 1.7719 1.728 1.7255 1.5885 1.6696 1.5942
2150.810 1.492 1.6285 1.7942 1.8916 1.6987 1.43924 1.35389 1.4624 1.6072 1.6419
2170.100 1.5145 1.3302 1.37458 1.4712 1.4845 1.5788 1.39286 1.252 1.43571 1.5988
2189.390 1.7821 1.6484 1.41184 1.646 1.6243 1.4922 1.4937 1.4748 1.6238 1.6902
2208.680 1.5022 1.4672 1.6773 1.4717 1.535 1.8541 1.5349 1.3286 1.44656 1.6102
2227.970 1.4997 1.2785 1.37154 1.43071 1.35306 1.43858 1.476 1.36187 1.40641 1.5087
2247.259 1.5657 1.5307 1.556 1.6411 1.44756 1.2869 1.4739 1.599 1.5517 1.6284
2266.549 1.7181 1.6933 1.5334 1.6086 1.7254 1.5401 1.588 1.5218 1.246 1.227
2285.839 1.4615 1.42042 1.228 1.35331 1.4762 1.4673 1.3098 1.211 1.223 1.3054
2305.129 1.3098 1.202 1.44474 1.5946 1.44849 1.5744 1.7239 1.6644 1.36713 1.36048
2324.418 1.6615 1.4917 1.2948 1.263 1.256 1.22 1.162 1.35478 1.44571 1.4638
2343.708 1.603 1.6348 1.4956 1.5227 1.4788 1.42715 1.6735 1.8042 1.6912 1.6588
2362.998 1.712 1.5208 1.204 1.065 1.44184 1.39703 1.245 1.35715 1.248 1.3341
2382.288 1.36717 1.2982 1.39582 1.5191 1.4638 1.37405 1.5383 1.5935 1.44305 1.215
2401.578 0.942 0.968 1.159 1.38486 1.2997 1.3248 1.42805 1.134 1.113 1.214
2420.867 1.34177 1.3372 1.34202 1.3045 1.35534 1.6025 1.6115 1.6106 1.7721 1.8291
2440.157 1.7336 1.613 1.41549 1.42839 1.6634 1.8301 1.7457 1.8535 1.748 1.6398
2459.447 1.7089 1.5041 1.43673 1.4962 1.4013 1.37887 1.5386 1.7085 1.747 1.4569
2478.737 1.5061 1.6437 1.44331 1.2861 1.087 1.41127 1.6433 1.6892 1.7011 1.6838
2498.026 1.7393 1.5532 1.5847 1.5668 1.4727 1.4737 1.634 1.4658 1.228 1.37262
2517.316 1.42023 1.5587 1.559 1.35433 1.4723 1.5375 1.5377 1.38831 1.2632 1.5088
2536.606 1.6954 1.65 1.7641 1.797 1.40474 1.119 1.066 1.101 1.176 1.072
2555.896 0.938 1.161 1.40646 1.2627 1.071 1.461 1.3036 1.047 1.3048 1.065
2575.186 1.093 1.073 1.36805 1.6892 1.3309 1.115 1.126 1.055 1.05 1.35054
2594.475 1.43389 1.3396 1.147 1.031 1.153 1.4604 1.6251 1.2541 1.213 1.5341
2613.765 1.6756 1.5621 1.40941 1.4829 1.4528 1.39298 1.2537 1.219 1.2719 1.44164
2633.055 1.36691 1.198 1.5014 1.6125 1.4728 1.019 1.037 1.39337 1.8117 1.9146
2652.345 1.6415 1.4687 1.3173 1.4174 1.8141 2.0214 2.0519 1.9612 1.6625 1.6516
2671.634 1.34565 1.42527 1.5582 1.5564 1.5842 1.5503 1.41025 1.17 1.38498 1.4795
2690.924 1.5495 1.6531 1.6562 1.9276 1.7067 1.35461 1.552 1.6739 1.8788 1.9755
2710.214 1.9385 1.836 1.6315 1.6914 1.8568 2.0724 2.1463 2.0354 1.9733 2.0325
2729.504 2.1772 2.46 2.59 2.1685 2.0069 2.3172 2.45 2.36 2.5 2.52
2748.794 2.52 2.52 2.2086 2.43 2.57 2.2818 2.2272 2.47 2.45 2.54
2768.083 2.75 2.71 2.92 2.85 2.82 3.26 3.52 3.29 3.26 3.28
2787.373 3.49 3.89 3.96 3.73 3.88 4.28 4.58 4.87 4.84 4.92
2806.663 5.13 4.94 4.77 4.87 5.2 5.47 5.14 5.06 5.28 5.48
2825.953 5.65 5.49 5.37 5.73 6.11 5.96 6.15 6.59 6.39 6.59
2845.242 7.24 7.35 7.23 7.74 8.37 8.76 9.18 9.9 10.48 11.25
2864.532 12.05 12.48 12.99 13.46 13.82 13.89 14.11 14.52 14.99 15.29
2883.822 15.68 16.3 17.35 18.66 19.72 21.15 22.83 24.28 25.98 27.58
2903.112 29.04 30.48 31.6 32.76 33.68 33.8 33.9 34.3 34.82 35.2
2922.401 34.5 32.8 31.76 31.61 31.14 29.83 29.09 29.29 29.24 29.24
2941.691 29.49 30.81 33.08 36.36 40.29 44.29 49.06 54.97 61.39 67.47
2960.981 73.2 77.54 79.41 80.65 80.9 78.06 74.63 72.07 68.65 62.44
2980.271 53.7 45.35 38.27 31.9 26.84 22.71 18.9 15.87 13.43 11.29
2999.561 9.85 9 8.21 7.69 7.47 7.2 6.79 6.4 6.42 6.28
3018.850 5.92 5.97 6.35 6.22 5.95 6.22 6.54 6.31 6.04 5.68
3038.140 5.72 6.03 5.93 6.07 6 5.57 5.72 6.23 6.19 6.41
3057.430 6.59 6.71 6.99 6.68 6.22 6.15 6.36 6.65 6.24 6.02
3076.720 6.41 6.8 6.71 6.27 6.42 6.66 6.28 6.05 6.17 5.99
3096.009 5.93 5.64 5.27 5.13 4.92 4.7 4.56 4.21 4.15 4.33
3115.299 4.06 4.23 4.83 4.45 3.99 4.1 4.11 3.64 3.3 3.38
3134.589 3.31 3.2 3.26 3.04 2.75 2.67 2.62 2.82 2.56 2.41
3153.879 2.74 2.83 2.79 2.74 2.59 2.2462 2.48 2.71 2.78 2.95
3173.169 2.61 2.45 2.9 2.93 2.41 2.46 2.6 2.87 3.02 2.94
3192.458 2.66 2.65 2.87 2.43 2.3009 2.35 2.5 2.62 2.38 2.167
3211.748 1.9281 2.0003 2.1011 1.9025 1.7216 1.7657 1.7117 1.6123 1.4635 1.2621
3231.038 1.544 1.8917 2.073 1.9987 1.7772 1.6397 1.8186 1.7763 1.6094 1.5131
3250.328 1.2834 1.7069 2.0591 2.1455 2.2427 2.0739 1.6907 1.5625 1.6128 1.5995
3269.617 1.6231 1.8725 1.8127 1.4808 1.7368 2.3183 2.46 2.62 2.53 1.5213
3288.907 1.185 1.7518 1.4889 1.2842 1.5109 1.6775 1.8624 1.6679 1.8847 1.5881
3308.197 0.972 1.13 1.42359 1.39634 1.307 1.194 1.14 1.4351 1.5308 1.522
3327.487 1.9117 1.8825 1.40472 1.4193 1.7666 1.5469 1.2992 1.37334 1.3924 1.299
3346.777 0.915 0.432 0.29 1.147 1.9564 2.0193 1.7994 1.4548 1.2936 1.4958
3366.066 1.4797 1.024 1.193 1.066 0.723 0.914 1.032 0.528 0.2 0.926
3385.356 0.973 1.063 1.7013 2.0531 1.6719 1.104 1.38047 1.456 1.5503 2.1651
3404.646 1.8986 1.5665 1.9896 1.7198 1.3349 1.37547 1.205 1.2686 1.3023 1.224
3423.936 1.5214 1.36182 1.059 1.36842 1.291 1.097 1.3352 1.7719 1.9739 1.5779
3443.225 1.6111 1.5868 1.239 1.5197 1.9779 1.7669 1.123 1.42969 2.42 2.2891
3462.515 1.36624 1.533 2.1384 1.5637 1.074 1.086 1.42144 1.38929 1.2649 1.223
3481.805 0.731 0.815 1.5329 1.624 1.34982 1.9625 2.216 1.7705 1.41231 1.5
3501.095 1.3033 1.38347 1.5205 1.275 1.5947 1.9602 1.8286 1.2863 1.41206 1.5239
3520.385 1.201 1.191 1.39841 1.4996 1.42583 1.4492 1.4865 1.8016 2.128 1.7914
3539.674 1.43781 1.35775 2.1241 2.46 2.1235 2.0428 2.0782 1.8267 1.2669 1.42172
3558.964 1.8491 2.0355 1.5244 1.6744 1.8652 1.5078 1.43084 0.982 1.158 1.585
3578.254 1.5215 1.5657 1.6277 1.8713 2.283 2.3025 2.0557 1.9086 1.5806 1.40303
3597.544 1.6213 1.769 1.5417 1.35163 1.3396 1.4571 1.4872 1.59 1.9962 1.9598
3616.833 1.9377 2.0351 1.7369 1.42968 1.6447 1.9144 2.1978 2.1383 1.8109 1.9612
3636.123 2.2454 2.2342 2.0347 2.2399 2.2175 1.6864 2.2403 2.3034 1.5324 1.8382
3655.413 1.8567 1.8587 1.7393 1.5545 1.7405 1.6883 1.6475 1.8797 2.141 2.0549
3674.703 1.9641 2.0468 1.6647 1.5688 1.7646 1.5768 1.8821 2.0086 2.0149 1.9544
3693.993 1.676 1.806 1.9652 1.9907 2.1402 2.1508 2.2758 2.48 2.2822 2.45
3713.282 2.6 2.62 2.38 1.5142 1.238 1.631 2.0853 2.1362 2.0192 2.302
3732.572 2.57 2.2339 2.0867 2.1719 2.1606 2.125 2.2817 2.67 2.63 2.3106
3751.862 2.3004 2.7 3.24 3.02 2.3338 2.1487 2.3188 2.46 2.0574 1.7826
3771.152 1.8121 2.0212 1.9144 2.0003 2.35 2.1042 2.1453 2.36 1.9521 1.8465
3790.441 1.8255 2.0265 2.1171 1.8468 1.9928 2.257 2.35 1.9251 1.43736 1.933
3809.731 2.3337 1.9927 2.043 2.1369 1.7766 1.9217 2.41 2.1775 1.8188 1.8614
3829.021 1.8091 1.6794 1.43889 1.4965 1.6525 1.5041 1.5165 1.5998 1.386 1.293
3848.311 1.9207 2.0016 1.9434 1.9791 1.5842 1.5601 1.8927 1.2813 1.038 1.38776
3867.601 0.979 1.218 1.4609 1.006 1.36568 1.7097 1.5704 1.4554 2.0154 2.3276
3886.890 1.6142 1.3142 1.519 1.6498 1.5056 1.34055 1.118 0.888 0.602 0.775
3906.180 1.007 0.802 0.752 0.995 1.26 1.3011 1.219 1.7825 2.1482 1.664
3925.470 1.6521 2.0363 1.5906 1.288 1.627 1.5957 1.42126 1.42131 1.6462 1.9721
3944.760 1.7422 1.3276 1.148 0.691 0.537 1.068 1.7049 1.8377 1.6023 1.4947
3964.049 1.5344 1.5116 1.4193 1.6028 2.035 2.0332 1.7766 1.7901 2.1442 1.8403
3983.339 1.3283 1.37436 1.6257 1.8155 1.107 1.181 1.958 1.5308 1.17 1.3123
##END=
