##TITLE=3-Acetamidocoumarin
##JCAMP-DX=4.24
##DATA TYPE=INFRARED SPECTRUM
##ORIGIN=EPA-IR VAPOR PHASE LIBRARY
##OWNER=SRD/NIST
Collection (C) 2018 copyright by the U.S. Secretary of Commerce
on behalf of the United States of America. All rights reserved.
##CAS REGISTRY NO=779-30-6
##MOLFORM=C 11 H 9 N O 3
##$NIST SOURCE=MSDC-IR
##STATE=gas
##XUNITS=1/CM
##YUNITS=ABSORBANCE
##XFACTOR=1.
##YFACTOR=0.001
##DELTAX=1.92898
##FIRSTX=549.8
##LASTX=4000.7
##FIRSTY=1.164
##MAXX=4000.7
##MINX=549.759
##MAXY=0.02818
##MINY=0
##NPOINTS=1790
##XYDATA=(X++(Y..Y))
549.759 1.164 1.474 1.2364 1.6741 1.51 2.1149 2.2181 1.6976 2.37 2.54
569.049 2.54 2.8 2.59 2.47 2.68 2.95 3.34 2.99 2.46 3.02
588.339 3.65 3.35 3.32 3.83 4.33 3.82 3.47 3.42 2.73 2.39
607.628 2.1532 1.38743 0.926 0.988 0.827 0.925 1.2456 1.7258 1.29025 0.988
626.918 1.7861 1.9089 1.5651 2.1453 2.5 2.091 2.32 2.35 1.9441 2.0299
646.208 1.5881 1.638 1.9938 1.5222 1.7995 1.7642 1.8558 2.0356 1.854 1.8684
665.498 1.463 1.2859 1.35438 1.129 1.023 1.191 1.31358 1.4705 1.5956 1.36815
684.787 1.2331 1.4737 1.5931 1.6144 1.4223 1.30218 1.5908 1.5103 1.123 1.29873
704.077 1.6007 1.6677 1.6365 1.31063 1.194 1.162 1.073 1.4393 1.3764 1.098
723.367 1.35439 1.31806 1.054 1.4402 1.8699 1.7979 1.8606 2.33 2.96 3.41
742.657 3.81 4.6 5.32 6.27 7.07 6.3 5.16 4.5 4.27 3.68
761.947 3.11 2.35 1.7479 1.9561 1.7651 1.6521 2.2413 2.47 1.9891 1.7197
781.236 1.5036 1.5835 1.9185 1.8702 1.4688 1.30296 1.3458 1.4629 1.4824 1.34938
800.526 1.9855 2.1866 1.6063 0.963 1.112 1.5489 1.4299 1.4509 2.6 3.77
819.816 4.28 3.8 1.6459 1.168 1.2566 0.808 1.152 1.4157 1.37105 1.33329
839.106 1.131 1.39736 1.8586 1.8492 1.7906 1.8708 1.9301 1.7522 1.32345 1.2104
858.395 1.4119 1.2598 1.622 1.7028 1.199 1.4011 1.5136 1.6501 1.6139 1.31429
877.685 1.5267 1.5673 1.29686 1.5059 1.4374 1.2746 1.8374 1.9549 1.6734 1.6848
896.975 1.8237 2.54 2.79 2.5 2.65 2.55 2.59 2.71 2.43 2.1934
916.265 2.2058 2.2219 2.59 2.56 2.46 2.62 2.45 2.38 2.41 2.72
935.555 2.79 2.83 2.77 2.74 2.69 2.2757 2.0046 1.6228 1.38373 1.4875
954.844 1.32671 0.926 0.979 0.794 0.737 1.167 1.32591 1.085 0.924 1.4566
974.134 1.7856 1.6509 1.594 1.8954 1.8346 1.4436 1.7165 1.9333 1.4019 0.871
993.424 1.6081 2.111 1.8402 1.8157 1.178 0.963 1.4176 1.5696 1.6299 1.6234
1012.714 1.7131 1.3249 1.16 1.5977 1.837 1.4776 1.2378 1.5055 1.2187 1.2276
1032.003 1.172 1.4128 1.8869 1.8718 2.1461 1.4597 0.843 0.27 0.433 0.896
1051.293 0.738 0.875 1.07 1.185 0.998 0.533 0.18 1.2393 2.1317 1.711
1070.583 1.6031 1.33639 1.2706 2.0059 0.912 0.05 1.273 2.1429 2.66 2.0511
1089.873 0.919 1.109 1.7131 1.9946 2.1256 1.6863 1.6578 2.53 3.21 3.38
1109.163 3.67 3.77 3.35 2.73 2.34 2.77 2.92 2.5 2.39 3.35
1128.452 3.96 4.51 3.96 4.74 6.99 7.34 7.12 5.79 5.19 4.83
1147.742 3.93 3.73 3.14 2.48 2.46 2.49 1.946 1.4871 2.1652 2.85
1167.032 3.12 2.84 2.32 2.1719 3.1 4.8 4.37 3.56 4.03 3.58
1186.322 2.1134 2.42 3.98 3.94 4.06 3.87 3.3 4.55 4.76 3.6
1205.611 3.7 4.77 5.81 7.05 5.85 4.21 5.76 7.25 7.94 9.68
1224.901 10.22 9.49 9.99 10.61 10.71 10.62 10.19 9.82 9.03 7.72
1244.191 6.47 5.28 4.96 4.84 4.42 4.11 3.83 3.64 3.63 3.46
1263.481 3.03 2.84 2.76 2.56 2.41 2.286 2.2508 2.33 2.77 3.25
1282.771 3.53 3.79 3.82 3.73 3.61 3.25 3.15 3.31 3.14 2.74
1302.060 2.68 2.59 2.54 2.54 2.43 2.43 2.34 2.42 2.45 2.43
1321.350 2.53 2.46 2.36 2.45 2.74 2.98 3.18 3.54 3.99 4.59
1340.640 5.64 6.87 8.06 9.37 10.65 11.71 12.23 12.37 12.04 11.2
1359.930 10.2 9.25 8.72 8.51 8.46 8.47 8.3 7.85 7.28 6.73
1379.219 6.12 5.53 4.97 4.62 4.4 3.88 3.36 3.15 2.93 2.7
1398.509 2.52 2.46 2.44 2.44 2.49 2.2831 2.1616 2.237 2.1945 2.1504
1417.799 2.1471 2.1249 2.2223 2.51 2.73 2.58 2.39 2.59 2.61 2.68
1437.089 2.81 2.84 3.04 3.22 3.59 3.95 4.48 5.11 5.68 6.43
1456.378 6.97 7.02 6.89 6.82 6.6 6.04 5.56 5.2 5.39 6.24
1475.668 7.09 7.8 8.48 8.99 9.1 9.08 8.92 8.66 8.41 8.1
1494.958 8.22 8.78 9.55 10.9 12.59 14.54 16.95 19.49 21.65 23.15
1514.248 24.31 24.96 24.87 24.13 22.64 20.94 18.85 16.63 14.17 11.68
1533.538 9.6 7.75 6.42 5.52 5.04 4.53 3.98 3.82 3.75 3.46
1552.827 3.1 2.81 2.61 2.85 2.85 2.61 2.54 2.52 2.71 2.64
1572.117 2.31 2.2618 2.38 2.66 2.61 2.4 2.56 2.39 2.43 2.92
1591.407 2.91 2.72 2.68 3.04 3.26 3.24 3.2 3.12 3.18 2.94
1610.697 2.98 3.16 3.17 3.39 3.51 3.54 3.78 3.95 3.83 3.81
1629.986 4.18 4.36 4.19 4.14 3.88 3.85 3.83 3.62 3.48 3.1
1649.276 2.95 2.67 2.3 2.43 2.39 2.2556 2.2879 2.41 2.31 2.2512
1668.566 2.4 2.34 2.2962 2.42 2.67 2.68 2.48 2.6 2.88 3.05
1687.856 3.11 3.35 3.55 3.76 3.98 4.1 4.38 4.99 5.74 6.53
1707.146 7.45 8.54 10.13 12.09 14.23 16.42 18.74 20.81 22.64 24.2
1726.435 25.31 26.15 26.8 27.3 27.85 28.18 28.16 27.68 26.78 25.65
1745.725 23.72 21.26 18.49 15.48 12.75 10.33 8.26 6.72 5.52 4.64
1765.015 4.09 3.75 3.44 3.14 3 3.06 3.07 3.07 3.02 2.7
1784.305 2.49 2.51 2.52 2.42 2.2675 2.04 2.0132 2.1672 2.0448 1.9059
1803.594 1.8286 1.7928 1.8713 1.7786 1.7957 1.9507 1.7551 1.5991 1.7956 1.8521
1822.884 1.8238 1.7909 1.6216 1.5502 1.5367 1.6135 1.6299 1.6576 1.7238 1.6688
1842.174 1.5582 1.5904 1.7811 1.722 1.667 1.7198 1.7087 1.832 1.8083 1.6642
1861.464 1.6409 1.6567 1.732 1.6016 1.4165 1.4813 1.5819 1.5934 1.6649 1.6736
1880.754 1.5333 1.4666 1.4566 1.4211 1.34493 1.35737 1.5065 1.5896 1.5493 1.32661
1900.043 1.2325 1.35113 1.35986 1.32646 1.30822 1.4102 1.5853 1.5938 1.4467 1.37124
1919.333 1.305 1.37369 1.5578 1.4355 1.32159 1.4176 1.32255 1.2826 1.4112 1.4897
1938.623 1.5529 1.5668 1.5891 1.5135 1.31903 1.30758 1.4862 1.4216 1.2711 1.186
1957.913 1.148 1.2754 1.37648 1.34187 1.2493 1.2118 1.123 1.2595 1.33902 1.182
1977.202 1.134 1.149 1.223 1.29858 1.2479 1.182 1.2647 1.4104 1.35223 1.13
1996.492 1.071 1.2599 1.38506 1.37287 1.4412 1.46 1.5059 1.4401 1.4265 1.37448
2015.782 1.2806 1.2376 1.197 1.252 1.29205 1.2074 1.2098 1.4097 1.33352 1.32602
2035.072 1.37911 1.34543 1.286 1.192 1.2044 1.31347 1.4132 1.37863 1.2497 1.176
2054.362 1.2772 1.30884 1.36892 1.4573 1.342 1.17 1.151 1.30968 1.35116 1.2735
2073.651 1.33298 1.33571 1.33736 1.3712 1.2003 1.087 1.2168 1.30741 1.29358 1.2394
2092.941 1.185 1.061 0.927 1.063 1.083 1.2486 1.4712 1.31109 1.2362 1.2881
2112.231 1.2669 1.178 1.34553 1.39163 1.191 1.121 1.087 1.148 1.01 1.05
2131.521 1.2117 1.142 1.30123 1.2151 1.081 1.2534 1.168 1.139 1.34676 1.33582
2150.810 1.163 1.078 1.085 1.2557 1.4683 1.38569 1.2287 1.34761 1.4887 1.36677
2170.100 1.2688 1.144 1.022 1.089 1.109 1.2362 1.3092 1.3915 1.33879 1.131
2189.390 1.214 1.2691 1.2792 1.2699 0.943 0.932 1.2205 1.083 1.075 1.052
2208.680 0.927 1.167 1.4707 1.5424 1.39804 1.182 1.049 1.11 1.30845 1.31885
2227.970 1.2748 1.35699 1.17 1.173 1.2341 1.074 1.168 1.2782 1.195 1.2614
2247.259 1.2845 1.102 1.129 1.2775 1.29333 1.2046 1.2388 1.29837 1.34113 1.491
2266.549 1.5795 1.29005 0.947 1.2704 1.7304 1.7331 1.4723 1.30627 1.35578 1.34938
2285.839 1.31307 1.2195 1.2713 1.2243 1.193 1.32939 1.37093 1.4439 1.4062 1.33628
2305.129 1.38196 1.4542 1.39096 1.2276 1.183 1.116 1.144 1.2286 1.32958 1.38905
2324.418 1.178 1.162 1.2708 1.177 1.2021 1.35643 1.4888 1.5558 1.34093 1.105
2343.708 1.161 1.4016 1.38691 1.34231 1.36565 1.2385 1.2382 1.38319 1.2503 1.2188
2362.998 1.5104 1.4564 1.255 1.31216 1.5219 1.4262 1.4117 1.6387 1.5407 1.37542
2382.288 1.4307 1.4411 1.29675 1.154 1.2543 1.38807 1.32992 1.30586 1.2347 1.31004
2401.578 1.37424 1.3031 1.3875 1.32769 1.33147 1.3661 1.2575 1.38278 1.29629 0.985
2420.867 1.112 1.29757 1.2822 1.3176 1.30223 1.29712 1.6685 1.8353 1.5204 1.4029
2440.157 1.4995 1.4227 1.2843 1.29571 1.2276 1.2184 1.2362 1.099 1.2408 1.41
2459.447 1.3258 1.2652 1.37273 1.4206 1.2782 1.261 1.4319 1.4729 1.6607 1.4248
2478.737 1.019 1.19 1.2322 1.183 1.39936 1.4855 1.412 1.501 1.5138 1.32699
2498.026 1.2193 1.35313 1.38294 1.5342 1.4718 1.30035 1.29813 1.043 1.036 1.31017
2517.316 1.36757 1.2304 1.39536 1.5739 1.505 1.5351 1.3654 1.198 1.2324 1.29348
2536.606 1.39594 1.2946 1.188 1.187 1.2049 1.32324 1.33592 1.252 0.988 0.96
2555.896 1.182 1.2356 1.2038 0.984 1.074 1.2888 1.36967 1.2851 0.939 1.035
2575.186 1.2094 1.139 1.31856 1.2528 1.118 1.161 1.2392 1.37975 1.197 0.882
2594.475 0.944 1.101 0.927 1.048 1.4002 1.4676 1.2185 1.145 1.35491 1.187
2613.765 0.824 1.061 1.29797 1.061 1.129 1.163 1.06 1.2878 1.416 1.2734
2633.055 0.985 0.959 1.027 1.095 1.31124 1.2437 1.036 1.096 1.32197 1.2809
2652.345 1.2421 1.38043 1.478 1.6273 1.6857 1.6681 1.519 1.4929 1.5047 1.29126
2671.634 1.30891 1.39918 1.284 1.087 1.13 1.033 1.137 1.4896 1.4524 1.281
2690.924 1.245 1.2403 1.039 1.015 1.30725 1.5478 1.5374 1.4116 1.4062 1.4054
2710.214 1.30391 1.3274 1.4304 1.37077 1.31334 1.3807 1.2324 1.167 1.33321 1.434
2729.504 1.5075 1.5226 1.4666 1.4984 1.5162 1.3879 1.092 0.878 1.34741 1.8092
2748.794 1.8385 1.8416 1.4026 1.129 1.16 1.173 1.32759 1.4044 1.4615 1.4961
2768.083 1.7701 1.8249 1.5623 1.2248 1.06 1.29329 1.33043 1.021 1.032 1.117
2787.373 1.127 1.167 1.234 1.326 1.2104 1.2106 1.5132 1.753 1.5499 1.4449
2806.663 1.2696 0.975 1.048 1.39403 1.6827 1.59 1.5999 1.6033 1.38988 1.4463
2825.953 1.2612 0.93 0.948 1.121 1.36646 1.6555 1.7026 1.4048 1.198 1.2333
2845.242 1.29932 1.2443 1.2105 1.4261 1.4201 1.538 1.5057 1.2139 1.028 0.992
2864.532 1.2117 1.2604 1.2 1.4348 1.4639 1.30445 1.5568 1.5924 1.2276 1.105
2883.822 1.35205 1.35846 1.4428 1.5295 1.4111 1.2217 1 1.2884 1.38406 1.2062
2903.112 1.148 0.989 1.079 1.34135 1.5264 1.29736 1.121 1.085 1.117 1.39542
2922.401 1.31621 1.33679 1.4939 1.35676 1.2795 1.4295 1.4268 1.4423 1.6076 1.9523
2941.691 2.1018 1.6255 1.4351 1.4083 1.5139 1.4508 1.2444 1.406 1.4476 1.5559
2960.981 1.4522 1.2268 1.2563 1.2103 1.2655 1.6232 1.5362 1.068 0.944 1.091
2980.271 1.3333 1.6732 1.5135 1.122 1.35003 1.425 1.2046 1.3673 1.5242 1.5405
2999.561 1.2917 1.045 1.2413 1.2521 1.4079 1.38637 1.159 1.404 1.2435 1.2313
3018.850 1.29149 0.9 1.021 1.4101 1.435 1.4029 1.31223 1.4776 1.7498 1.8375
3038.140 1.6471 1.5691 1.6717 1.567 1.7451 1.9093 1.8202 1.563 1.4739 1.29714
3057.430 1.2538 1.4819 1.727 1.8255 1.9916 2.1021 2.0906 2.0915 1.7865 2.0036
3076.720 2.226 2.1999 2.37 2.2921 2.33 2.38 2.0769 2.1488 2.3 2.1472
3096.009 1.7845 1.5455 1.727 1.8871 1.8235 1.5454 1.4031 1.38367 1.2529 1.31862
3115.299 1.182 0.881 1.137 1.2716 1.2102 1.2183 1.035 1.176 1.6756 1.4005
3134.589 0.933 1.2143 1.4479 1.181 1.215 1.38495 1.2485 1.4629 1.31447 0.823
3153.879 0.909 1.139 1.4429 1.7785 1.6113 1.656 1.8339 1.5728 0.965 0.968
3173.169 1.34032 1.2254 0.942 0.884 1.35084 1.4345 1.2457 1.103 1.033 1.062
3192.458 1.144 1.09 1.078 1.1 1.152 1.193 1.175 1.012 0.984 1.181
3211.748 1.067 0.745 0.519 0.731 1.062 1.33633 1.08 0.728 0.568 0.981
3231.038 1 0.495 1.101 1.33249 1.124 1.01 1.145 1.104 1.067 0.751
3250.328 0.455 0.819 0.987 1.084 1.188 1.078 1.076 1.127 0.816 1.143
3269.617 1.125 0.862 0.716 0.45 0.632 0.832 0.807 0.873 1.133 1.2209
3288.907 1.072 1.036 1.39259 1.6666 1.2869 0.726 0.523 0.73 1.098 1.113
3308.197 1.098 1.161 1.033 1.2211 1.163 0.84 0.771 1.138 1.6067 1.29749
3327.487 0.846 1.057 1.039 1.037 1.6476 1.8704 1.5044 1.125 1.2214 1.096
3346.777 1.30894 1.5875 0.997 0.913 1.194 1.2808 1.32349 1.5381 1.4057 1.061
3366.066 1.2768 1.4572 1.5196 1.2556 0.799 1.13 1.436 1.4677 1.5138 1.32247
3385.356 1.012 1.137 1.5319 1.32222 1.5421 2.33 2.43 2.35 2.75 3.06
3404.646 3.62 4.01 4.32 4.86 4.95 4.87 4.54 4.36 3.75 2.99
3423.936 2.55 2.2987 2.44 1.9947 1.6182 1.4987 1.4909 1.01 0.903 1.2082
3443.225 1.6253 1.6196 1.29289 1.5617 1.37879 1.053 1.5466 1.882 1.5179 1.36582
3462.515 1.39499 1.2158 1.2142 1.5045 1.5153 1.32922 1.193 1.083 0.757 0.784
3481.805 1.173 1.4942 1.6153 1.32363 1.012 1.2154 1.108 0.859 1.026 1.2808
3501.095 1.6202 1.5897 1.04 0.752 0.803 0.985 0.929 0.724 0.736 0.612
3520.385 0.795 1.023 1.018 1.082 1.083 0.855 0.908 0.983 0.854 1.185
3539.674 0.832 0.763 1.124 0.863 0.606 0.624 0.78 0.919 1.34577 1.417
3558.964 1.2742 1.2592 0.965 1.127 1.4949 1.173 0.554 0.621 1.2341 1.171
3578.254 0.865 0.729 0.676 0.609 0.564 0.868 0.819 1.03 1.2725 1.207
3597.544 1.067 0.846 0.781 0.732 1.131 1.5724 1.4849 1.198 1.2075 1.2765
3616.833 1.2328 1.1 1.026 1.123 0.978 0.781 0.913 0.734 0.476 0.669
3636.123 0.874 0.955 1.028 0.814 0.837 0.951 0.379 0 0.424 0.675
3655.413 0.659 0.532 0.429 0.513 0.697 0.978 1.38905 1.30131 1.016 1.39175
3674.703 1.5391 1.2731 1.044 1.2193 1.2401 0.883 0.661 1.006 1.4719 0.995
3693.993 0.494 0.766 0.762 0.878 0.952 0.954 0.94 0.927 1.2736 1.001
3713.282 0.838 1.079 1.2502 1.137 0.814 0.923 1.185 1.2505 0.883 0.424
3732.572 0.683 1.225 1.31573 1.124 1.2582 0.793 0.457 0.939 0.695 0.615
3751.862 0.78 0.754 0.973 0.766 0.632 0.912 1.152 0.994 0.699 0.987
3771.152 1.099 0.719 0.659 0.916 1.05 1.068 1.024 0.98 0.746 0.543
3790.441 0.895 0.971 0.799 1.428 1.5147 0.58 0.27 0.877 1.2063 0.976
3809.731 0.806 0.926 0.697 0.361 0.77 1.054 1.29635 1.198 0.841 0.672
3829.021 0.55 0.52 0.438 0.453 0.938 1.158 0.69 0.635 0.853 0.434
3848.311 0.392 0.872 0.559 0.398 0.663 0.802 1.154 1.2841 1.032 0.877
3867.601 0.746 0.842 1.084 1.2539 0.69 0.551 1.1 1.2713 1.188 0.724
3886.890 0.559 0.994 0.935 0.475 0.74 1.026 1.032 1.4077 1.2092 1.4801
3906.180 1.6871 0.758 0.57 1.138 1.4682 1.02 0.543 0.794 1.34105 1.5346
3925.470 1.195 0.834 1.022 0.864 0.864 1.2226 1.4981 1.7408 1.5841 1.283
3944.760 1.144 1.262 1.39197 1.37617 1.31662 1.445 1.329 1.123 0.876 1.132
3964.049 1.4171 0.903 0.21 0.07 0.673 1.096 0.757 0.604 1.004 1.2249
3983.339 1.097 0.659 0.834 1.2356 1.09 0.755 0.861 0.991 1.163 1.4085
##END=
