##TITLE=(4R,5S)-(+)-4-Methyl-5-phenyl-2-oxazolidinone
##JCAMP-DX=4.24
##DATA TYPE=INFRARED SPECTRUM
##ORIGIN=EPA-IR VAPOR PHASE LIBRARY
##OWNER=SRD/NIST
Collection (C) 2018 copyright by the U.S. Secretary of Commerce
on behalf of the United States of America. All rights reserved.
##CAS REGISTRY NO=77943-39-6
##MOLFORM=C 10 H 11 N O 2
##$NIST SOURCE=MSDC-IR
##STATE=gas
##XUNITS=1/CM
##YUNITS=ABSORBANCE
##XFACTOR=1.
##YFACTOR=0.001
##DELTAX=1.92898
##FIRSTX=549.8
##LASTX=4000.7
##FIRSTY=2.535
##MAXX=4000.7
##MINX=549.759
##MAXY=0.239055
##MINY=0
##NPOINTS=1790
##XYDATA=(X++(Y..Y))
549.759 2.535 2.215 1.895 2.395 2.545 2.715 2.795 3.435 4.155 3.985
569.049 3.975 4.115 4.355 3.995 3.515 4.025 4.175 3.845 3.545 3.175
588.339 3.305 3.155 2.425 2.485 3.245 3.265 2.735 2.965 3.105 3.065
607.628 2.995 2.665 2.845 3.225 3.165 3.115 2.875 2.995 3.275 3.325
626.918 3.885 3.765 3.255 3.275 3.245 2.945 2.495 2.375 2.495 2.775
646.208 2.605 2.275 2.465 2.605 2.715 2.885 2.875 3.145 3.265 3.195
665.498 3.525 3.625 3.585 3.795 3.835 4.025 4.595 5.315 6.185 7.495
684.787 9.075 10.695 12.295 13.715 15.175 16.455 17.445 17.985 17.785 17.245
704.077 16.445 15.275 14.315 13.485 12.365 11.875 11.645 11.195 11.585 12.095
723.367 12.505 13.105 13.025 12.465 12.615 12.695 12.255 11.845 11.845 12.295
742.657 12.345 12.375 12.665 12.445 12.415 12.575 12.495 12.775 13.185 13.065
761.947 12.825 12.855 12.285 11.785 11.425 10.395 9.175 8.175 7.185 6.555
781.236 6.205 5.785 5.225 4.715 4.745 4.925 4.685 4.605 4.685 4.595
800.526 4.365 4.485 4.325 4.205 4.695 4.685 4.595 4.665 4.205 3.815
819.816 3.305 3.065 3.485 3.715 3.525 3.065 2.845 3.075 2.815 2.275
839.106 2.425 2.435 1.895 1.445 1.515 2.025 2.065 1.625 1.625 1.665
858.395 1.585 1.795 2.045 1.895 1.785 2.015 2.505 3.035 3.115 3.035
877.685 3.525 4.025 4.325 4.655 4.765 4.525 4.225 3.685 3.465 3.705
896.975 3.725 4.015 3.845 3.665 3.685 4.005 4.985 5.445 5.785 6.385
916.265 6.455 6.535 7.025 7.645 8.355 9.275 10.715 12.365 13.875 15.295
935.555 16.305 17.315 18.285 18.145 17.665 16.795 15.765 14.205 12.285 11.055
954.844 10.075 9.545 9.275 8.605 7.965 7.845 7.665 7.425 7.065 7.175
974.134 7.675 8.035 8.515 8.485 8.645 9.385 10.235 11.395 12.695 14.425
993.424 16.315 18.725 21.375 23.075 24.195 25.845 27.825 28.105 27.485 27.275
1012.714 26.445 25.415 25.205 24.915 24.005 23.295 23.155 22.685 21.855 21.425
1032.003 21.695 21.055 19.585 19.155 19.035 18.565 17.445 16.485 16.005 14.555
1051.293 12.825 11.695 11.215 11.185 10.715 10.695 10.335 10.095 10.395 10.075
1070.583 10.195 9.865 9.115 9.295 9.215 9.795 11.625 11.855 11.155 12.595
1089.873 14.975 15.235 15.715 16.235 16.025 15.975 13.525 12.775 14.145 14.185
1109.163 14.985 14.875 15.605 18.415 18.965 19.575 19.755 18.045 17.385 17.675
1128.452 17.065 14.815 12.615 11.465 10.265 9.435 8.605 7.115 6.115 6.085
1147.742 5.755 5.615 5.515 4.885 5.725 6.635 7.265 7.315 6.865 7.855
1167.032 8.915 9.225 9.915 11.275 12.085 12.945 14.505 16.545 18.405 20.255
1186.322 22.195 23.165 25.575 28.435 30.135 32.175 33.005 33.175 33.855 35.365
1205.611 36.525 34.895 32.955 31.685 29.755 26.935 24.345 22.105 18.775 15.425
1224.901 13.095 10.965 9.785 8.535 7.815 7.185 6.415 5.895 5.295 5.545
1244.191 5.235 4.745 4.735 3.985 3.835 4.085 3.335 3.215 3.475 3.695
1263.481 3.955 3.975 4.515 4.595 4.415 4.555 5.265 5.645 5.635 6.005
1282.771 6.195 6.405 6.475 6.145 5.985 6.355 6.725 6.685 6.935 7.375
1302.060 7.515 7.955 8.645 9.375 10.105 10.955 11.905 13.155 14.825 16.585
1321.350 18.365 20.185 21.955 23.525 24.745 25.435 25.405 24.735 23.615 22.235
1340.640 20.955 19.815 18.875 18.325 18.065 17.925 18.115 18.545 18.765 18.865
1359.930 19.075 19.325 19.705 20.135 20.515 21.085 21.715 22.155 22.625 23.175
1379.219 23.825 24.455 24.885 24.775 24.165 23.135 21.625 19.575 17.225 14.855
1398.509 12.615 10.695 9.075 7.685 6.555 5.745 5.135 4.575 4.295 3.955
1417.799 3.635 3.525 3.425 3.355 3.235 3.085 3.125 3.295 3.425 3.595
1437.089 3.775 4.025 4.515 5.185 5.965 6.685 7.455 8.275 8.735 8.875
1456.378 8.865 8.695 8.215 7.315 6.355 5.525 4.665 3.985 3.355 2.845
1475.668 2.675 2.685 2.715 2.615 2.785 3.145 3.465 4.015 4.665 4.985
1494.958 5.245 5.385 5.155 4.885 4.475 4.065 3.545 2.965 2.635 2.415
1514.248 2.275 2.325 2.485 2.495 2.335 2.345 2.405 2.455 2.465 2.425
1533.538 2.395 2.345 2.125 1.805 1.755 1.825 1.655 1.475 1.455 1.3198
1552.827 1.2413 1.3938 1.3982 1.3234 1.2026 1.054 0.9935 1.1817 1.2296 0.9835
1572.117 1.0168 1.0204 1.1136 1.2003 1.1967 1.2307 1.2446 1.3511 1.3625 1.2876
1591.407 1.376 1.445 1.515 1.535 1.525 1.925 2.125 1.945 1.885 1.735
1610.697 1.475 1.2855 1.2074 1.1308 0.9518 0.8065 0.8915 0.9375 0.8884 0.9932
1629.986 0.9022 0.6837 0.574 0.5988 0.773 0.9915 1.0791 1.0518 1.0417 1.0061
1649.276 0.9713 1.1301 1.2474 1.069 1.0602 1.1763 1.1745 1.1052 0.9742 1.0851
1668.566 1.1851 1.1469 1.1933 1.271 1.2258 1.1581 1.0834 1.1835 1.4342 1.475
1687.856 1.455 1.398 1.555 1.725 1.735 1.785 1.875 1.915 1.995 2.225
1707.146 2.305 2.225 2.305 2.485 2.525 2.605 2.695 2.635 2.625 2.575
1726.435 2.685 2.955 3.095 3.155 3.165 3.445 3.755 3.855 4.105 4.455
1745.725 4.815 5.445 6.105 6.645 7.245 7.925 8.695 9.515 10.315 11.165
1765.015 12.055 12.905 13.845 14.665 15.485 16.255 17.075 18.155 19.675 21.665
1784.305 24.285 28.045 32.785 38.605 46.175 55.595 67.295 81.725 98.595 117.965
1803.594 139.615 162.515 185.025 205.675 222.415 233.825 239.055 237.505 229.295 214.685
1822.884 195.285 173.085 150.055 128.115 107.765 90.045 75.015 62.615 52.705 44.595
1842.174 38.105 33.075 29.245 26.135 23.565 21.675 20.155 18.875 17.905 16.995
1861.464 16.185 15.665 15.085 14.555 14.415 14.155 13.655 13.235 12.935 12.505
1880.754 11.935 11.395 10.795 10.365 9.845 9.115 8.605 8.055 7.505 7.065
1900.043 6.605 6.175 5.875 5.615 5.215 4.915 4.875 4.825 4.705 4.605
1919.333 4.595 4.565 4.365 4.205 4.155 4.185 4.295 4.315 4.215 4.215
1938.623 4.235 4.255 4.205 4.115 4.155 4.045 3.855 3.625 3.335 3.215
1957.913 3.085 2.945 2.815 2.685 2.615 2.405 2.125 2.045 1.935 1.755
1977.202 1.675 1.565 1.3747 1.2814 1.2741 1.2304 1.1624 1.143 1.1816 1.097
1996.492 1.0273 1.0118 0.9883 0.9913 1.0254 1.0146 1.0259 0.9385 0.7978 0.7339
2015.782 0.7642 0.8775 0.9678 1.0086 1.0099 1.0436 0.9186 0.8682 1.0149 1.0106
2035.072 0.8654 0.779 0.7105 0.7654 0.7424 0.6531 0.7366 1.0171 1.1321 0.9069
2054.362 0.8447 0.9478 1.0348 0.9569 0.8953 1.0167 0.9663 0.9218 1.0015 1.0085
2073.651 0.9942 0.9319 0.9325 0.8788 0.833 0.9008 0.8768 0.8943 0.9161 0.8534
2092.941 0.7566 0.6978 0.6451 0.6499 0.8651 0.927 0.6598 0.5319 0.691 0.6734
2112.231 0.5936 0.6966 0.7766 0.8141 0.8121 0.7062 0.6255 0.6832 0.7541 0.7955
2131.521 0.8052 0.8543 0.7605 0.705 0.7774 0.7446 0.7248 0.706 0.6293 0.50724
2150.810 0.50824 0.5905 0.546 0.52586 0.7017 0.676 0.6621 0.7045 0.5799 0.46878
2170.100 0.47146 0.53745 0.5537 0.51086 0.6244 0.771 0.7092 0.6647 0.577 0.5888
2189.390 0.671 0.6899 0.695 0.6496 0.7194 0.7519 0.7112 0.6849 0.6274 0.6977
2208.680 0.7857 0.795 0.7404 0.6039 0.6585 0.6677 0.5842 0.50725 0.50816 0.6494
2227.970 0.6895 0.7031 0.6173 0.6031 0.6642 0.5742 0.5507 0.712 0.762 0.7161
2247.259 0.7127 0.7313 0.7343 0.8687 1.0414 0.9 0.7969 0.8607 0.7629 0.7375
2266.549 0.7738 0.7591 0.7148 0.6639 0.6422 0.5885 0.53627 0.5461 0.6711 0.6412
2285.839 0.50079 0.52024 0.48375 0.3816 0.444789 0.6407 0.6477 0.53145 0.5711 0.5493
2305.129 0.53079 0.5379 0.5992 0.7466 0.6833 0.6498 0.6099 0.5922 0.8206 0.7498
2324.418 0.6148 0.7706 0.8499 0.7511 0.7328 0.6354 0.51071 0.6567 0.6876 0.6751
2343.708 0.8184 0.7565 0.8305 0.8676 0.5564 0.449121 0.5664 0.6172 0.32 0.287
2362.998 0.5464 0.5745 0.7104 0.7706 0.7217 0.7646 0.8453 0.6877 0.48597 0.6115
2382.288 0.7008 0.6231 0.6403 0.6728 0.6659 0.6592 0.5657 0.48919 0.5462 0.6921
2401.578 0.6724 0.53433 0.50618 0.53737 0.50998 0.49314 0.34 0.206 0.311 0.5537
2420.867 0.6324 0.5466 0.5621 0.5467 0.6626 0.6446 0.5487 0.6773 0.5911 0.4082
2440.157 0.4244 0.3926 0.3679 0.49335 0.7118 0.6422 0.44022 0.48204 0.4274 0.3855
2459.447 0.402 0.452228 0.5638 0.452606 0.33 0.3966 0.4345 0.49668 0.43723 0.318
2478.737 0.50331 0.48871 0.326 0.4151 0.3925 0.292 0.207 0.332 0.47279 0.3756
2498.026 0.4203 0.4001 0.43956 0.589 0.444175 0.48216 0.6768 0.6323 0.651 0.6273
2517.316 0.5603 0.6083 0.6592 0.6588 0.6099 0.7123 0.6105 0.5595 0.7032 0.6529
2536.606 0.6786 0.5827 0.50616 0.5886 0.6637 0.5907 0.5869 0.5799 0.5631 0.5624
2555.896 0.4118 0.49808 0.6251 0.6237 0.54418 0.49992 0.51929 0.3989 0.389 0.5921
2575.186 0.6178 0.5566 0.5846 0.6253 0.587 0.50784 0.49766 0.5455 0.46369 0.4022
2594.475 0.452546 0.5458 0.7853 0.7823 0.6458 0.48601 0.4168 0.5792 0.6096 0.5944
2613.765 0.3873 0.317 0.43597 0.4014 0.6012 0.8271 0.7214 0.7172 0.8682 0.6434
2633.055 0.43619 0.5634 0.6116 0.5819 0.6651 0.7388 0.7771 0.7922 0.6674 0.4243
2652.345 0.4045 0.5472 0.5919 0.6108 0.62 0.6248 0.51704 0.6581 0.5979 0.326
2671.634 0.49697 0.621 0.52505 0.5644 0.6549 0.5691 0.5638 0.6455 0.5954 0.7052
2690.924 0.8266 0.7694 0.8113 0.7207 0.61 0.8142 0.7894 0.6919 0.7959 0.9636
2710.214 0.975 0.8658 0.9034 0.8978 0.8619 0.7968 0.7217 0.8628 1.0721 0.9817
2729.504 0.8013 0.8614 0.9604 0.9178 0.9206 0.8435 0.5697 0.49977 0.8074 0.8384
2748.794 0.7006 0.7796 0.8828 0.8114 0.7474 0.8343 0.8995 0.9675 0.7918 0.6921
2768.083 0.9193 0.8393 0.7754 0.776 0.7089 0.7003 0.6413 0.5485 0.5475 0.50886
2787.373 0.4432 0.5994 0.6056 0.48483 0.604 0.7083 0.7658 0.9818 0.9989 0.8307
2806.663 0.745 0.8949 0.7801 0.549 0.597 0.7145 0.7571 0.8837 1.0989 1.0737
2825.953 0.9829 0.7772 0.7057 1.0857 1.3026 1.1691 0.901 1.0265 1.1919 1.0091
2845.242 1.0673 1.2438 1.2235 1.2796 1.515 1.535 1.495 1.685 2.165 2.515
2864.532 2.675 2.975 3.175 3.435 4.055 4.565 5.165 5.755 5.745 6.075
2883.822 6.635 6.745 6.855 7.215 7.285 7.355 7.685 7.455 7.435 7.795
2903.112 7.575 7.415 7.445 7.075 6.835 6.955 6.945 6.885 6.925 7.025
2922.401 6.985 7.415 8.005 8.415 9.215 10.295 11.325 11.895 12.365 12.575
2941.691 12.415 12.155 11.725 10.875 9.995 9.235 8.335 7.715 7.325 7.175
2960.981 7.275 7.615 8.165 9.395 11.065 12.695 13.915 14.615 15.135 15.375
2980.271 15.455 14.855 13.355 11.695 10.425 9.415 8.745 8.055 7.045 5.905
2999.561 5.185 4.855 4.285 3.695 3.215 3.015 3.235 3.345 3.455 3.805
3018.850 3.965 4.375 5.105 5.875 6.755 7.145 7.335 7.765 8.085 8.325
3038.140 8.125 7.505 6.935 6.585 6.265 5.795 5.325 5.295 5.335 5.245
3057.430 5.565 5.985 6.375 6.935 7.745 8.415 9.115 9.645 9.625 9.385
3076.720 9.365 9.225 8.315 7.615 6.975 6.005 5.425 5.155 4.855 4.635
3096.009 4.485 4.085 3.735 3.625 3.595 3.325 3.055 2.925 2.655 2.445
3115.299 2.045 1.935 1.805 1.4127 1.3586 1.1971 1.1684 1.1838 1.1591 1.1096
3134.589 0.9929 1.1971 1.1886 1.0645 1.0192 0.7143 0.46732 0.7125 0.6929 0.6886
3153.879 0.9601 0.94 0.8292 0.7552 0.8361 0.9261 0.6908 0.5961 0.7606 0.7246
3173.169 0.7246 0.57 0.63 0.7789 0.784 0.9463 0.815 0.6068 0.564 0.6886
3192.458 0.8106 0.8796 0.8024 0.7162 0.8907 0.8291 0.8658 0.9192 0.8836 0.6225
3211.748 0.4331 0.3726 0.25 0.48655 0.54261 0.5182 0.3947 0.24 0.44235 0.7385
3231.038 0.7838 0.6191 0.544 0.49383 0.281 0.198 0.4022 0.51148 0.45586 0.3687
3250.328 0.335 0.4163 0.3475 0.46942 0.7041 0.6219 0.699 0.5481 0.4026 0.4416
3269.617 0.4094 0.3503 0.342 0.4348 0.301 0.281 0.54479 0.6367 0.5293 0.344
3288.907 0.47793 0.7061 0.50545 0.179 0.225 0.319 0.165 0.143 0 0.216
3308.197 0.48399 0.22 0.19 0.47738 0.5616 0.356 0.319 0.3648 0.5674 0.6761
3327.487 0.297 0.295 0.3846 0.067 0.05 0.141 0.3517 0.5851 0.47531 0.3786
3346.777 0.4071 0.6786 0.7337 0.52179 0.27 0.207 0.413 0.4589 0.4552 0.5925
3366.066 0.49984 0.23 0.21 0.43543 0.314 0.223 0.4012 0.288 0.197 0.274
3385.356 0.6529 0.7168 0.48681 0.3531 0.197 0.3808 0.7056 0.7586 0.53678 0.5687
3404.646 0.7432 0.8042 0.7477 0.3586 0.301 0.6227 0.5884 0.3988 0.4312 0.6042
3423.936 0.7544 0.7075 0.52197 0.50534 0.4803 0.5959 1.0016 0.8733 0.53429 0.9391
3443.225 1.1887 1.0731 1.1166 1.445 1.765 1.935 2.295 2.615 3.255 4.145
3462.515 5.055 6.345 8.225 10.445 12.285 13.665 14.815 15.465 15.695 15.455
3481.805 14.505 12.845 10.755 8.795 7.165 5.855 4.475 3.365 2.775 2.415
3501.095 1.725 1.475 1.595 1.2342 0.973 1.2143 1.3444 1.1609 0.8813 0.5465
3520.385 0.9752 1.2214 1.0752 0.8185 0.6298 0.8476 0.8075 0.6797 0.5746 0.53461
3539.674 0.6921 0.7775 0.741 0.6956 0.6057 0.50687 0.7878 0.6036 0.138 0.4123
3558.964 0.8407 0.8873 0.609 0.596 0.6468 0.52078 0.6503 0.914 0.9432 0.9504
3578.254 1.1401 1.455 1.1865 0.8507 1.231 1.455 1.4314 1.635 1.835 1.875
3597.544 1.845 1.695 1.955 2.165 1.865 1.905 2.165 2.285 2.325 2.195
3616.833 2.175 2.165 1.935 1.3724 1.2299 1.2178 1.3334 1.705 1.645 1.4134
3636.123 1.2985 1.3554 1.3027 1.1907 1.3098 0.9939 0.837 1.2414 0.9881 0.7214
3655.413 0.9154 0.9984 0.6495 0.5921 0.7563 0.5924 0.47536 0.6881 0.7388 0.5496
3674.703 0.5813 0.46581 0.295 0.49579 0.7549 0.785 0.6099 0.52841 0.7066 0.8217
3693.993 0.7958 0.7059 0.6925 0.8334 0.7111 0.5875 0.45905 0.3894 0.49472 0.3775
3713.282 0.335 0.3923 0.348 0.3891 0.5738 0.6567 0.5687 0.5855 0.6708 0.6392
3732.572 0.3979 0.3687 0.52784 0.49535 0.5485 0.51217 0.222 0.208 0.5585 0.54444
3751.862 0.4223 0.51624 0.53076 0.7292 0.52804 0.321 0.51363 0.3577 0.335 0.6038
3771.152 0.6378 0.3455 0.271 0.3507 0.4192 0.47792 0.49572 0.6357 0.233 0.134
3790.441 0.312 0.322 0.6287 0.719 0.9408 1.0845 0.7684 0.6104 0.50609 0.43646
3809.731 0.9674 1.1163 0.6951 0.4114 0.317 0.213 0.211 0.317 0.4151 0.4769
3829.021 0.187 0.229 0.446933 0.6061 0.6608 0.5841 0.53792 0.568 0.6238 0.7161
3848.311 1.0414 1.052 0.8467 0.6038 0.5524 0.7418 0.673 0.711 0.54276 0.217
3867.601 0.307 0.7495 0.9695 0.7419 0.6511 0.5512 0.450852 0.313 0.50969 0.8111
3886.890 1.0716 0.939 0.46693 0.47681 0.292 0.287 0.4273 0.454038 0.6629 0.6584
3906.180 0.5485 0.611 0.279 0.262 0.5711 0.6849 0.5958 0.44001 0.8738 0.9348
3925.470 0.54072 0.47463 0.788 0.8622 0.49664 0.53138 0.8115 0.5565 0.6034 0.8848
3944.760 0.8546 0.9915 0.9279 0.6672 0.7687 0.9102 0.687 0.6647 0.8471 0.8552
3964.049 0.7535 0.637 0.7283 0.6285 0.49379 0.4011 0.311 0.4116 0.5517 0.6413
3983.339 0.44021 0.323 0.48324 0.6174 0.6445 0.8716 1.0091 0.6876 0.53743 0.555
##END=
