##TITLE=Tri-p-cresyl phosphate
##JCAMP-DX=4.24
##DATA TYPE=INFRARED SPECTRUM
##ORIGIN=EPA-IR VAPOR PHASE LIBRARY
##OWNER=SRD/NIST
Collection (C) 2018 copyright by the U.S. Secretary of Commerce
on behalf of the United States of America. All rights reserved.
##CAS REGISTRY NO=78-32-0
##MOLFORM=C 21 H 21 O 4 P
##$NIST SOURCE=MSDC-IR
##STATE=gas
##XUNITS=1/CM
##YUNITS=ABSORBANCE
##XFACTOR=1.
##YFACTOR=0.001
##DELTAX=1.92898
##FIRSTX=549.8
##LASTX=4000.7
##FIRSTY=24.77
##MAXX=4000.7
##MINX=549.759
##MAXY=0.46901
##MINY=0
##NPOINTS=1790
##XYDATA=(X++(Y..Y))
549.759 24.77 26.56 28.59 30.62 32.41 34.07 35.24 35.85 35.89 35.15
569.049 33.42 30.72 27.21 23.39 19.82 16.82 14.05 11.79 10.14 8.72
588.339 7.63 6.84 6.12 5.58 5.25 4.84 4.49 4.4 4.27 4.23
607.628 4.19 4.06 4.17 4.3 4.47 4.76 4.86 4.94 5.23 5.51
626.918 5.81 6.32 6.96 7.7 8.68 9.67 10.49 10.95 10.8 10.21
646.208 9.39 8.59 8.07 7.72 7.45 7.33 7.38 7.5 7.71 8
665.498 8.24 8.55 9.02 9.35 9.56 9.81 10.06 10.39 10.95 11.73
684.787 12.56 13.6 14.89 16.31 17.79 19.16 20.39 21.07 20.97 20.43
704.077 19.69 19.1 18.89 18.81 18.74 18.41 17.69 16.68 15.3 13.7
723.367 12.13 10.6 9.23 8.1 7.02 6.03 5.22 4.61 4.22 3.89
742.657 3.6 3.4 3.23 3.18 3.17 3.07 3.03 3.14 3.21 3.2
761.947 3.27 3.4 3.5 3.63 3.76 3.94 4.13 4.38 4.77 5.1
781.236 5.59 6.19 6.85 7.75 8.76 9.87 11.19 12.78 14.66 16.91
800.526 19.52 22.53 26.11 30.27 35.18 40.83 46.92 53.01 58.42 62.5
819.816 64.87 65.41 64.49 62.75 60.64 57.98 53.97 48.3 41.46 34.6
839.106 28.56 23.6 19.77 16.83 14.68 13.16 11.97 10.98 10.23 9.76
858.395 9.46 9.19 8.96 8.81 8.74 8.71 8.72 8.76 8.92 9.11
877.685 9.24 9.49 9.78 10.1 10.54 10.89 11.39 12.04 12.67 13.3
896.975 14 14.96 16.01 17.24 18.74 20.4 22.25 24.47 27.27 30.49
916.265 34.12 38.5 43.71 49.61 56.16 63.1 69.88 75.94 81.15 86
935.555 91.26 98.1 107.64 120.25 136.26 155.89 178.86 205.19 234.88 267.79
954.844 303.82 342.19 380.97 417 446.23 464.53 469.01 458.95 435.13 400.51
974.134 359.55 316.07 273.03 232.63 196.41 165.05 138.45 116.4 98.39 83.56
993.424 71.46 61.69 53.57 46.79 41.3 36.73 32.99 30.38 28.85 28.65
1012.714 30.89 35.83 40.83 42.55 40.34 34.28 26.23 20.01 16.61 14.69
1032.003 13.31 12.35 11.75 11.22 10.86 10.58 10.36 10.13 9.78 9.43
1051.293 9.13 8.82 8.41 8.06 7.79 7.66 7.38 6.99 6.72 6.54
1070.583 6.53 6.42 6.26 6.18 6.27 6.59 6.75 6.56 6.69 7.17
1089.873 7.62 7.97 8.39 9.12 10.04 10.92 11.46 11.96 12.51 12.79
1109.163 12.71 12.71 12.78 12.63 12.17 11.57 10.99 10.28 9.8 9.62
1128.452 9.48 9.48 9.87 10.46 11.14 12.11 13.35 14.77 16.46 18.68
1147.742 21.75 25.77 30.92 38.1 47.99 61.96 82.29 110.74 145.38 175.93
1167.032 189.44 181.3 153.84 117.4 87.4 71.35 67.86 74.42 90.3 116.54
1186.322 156.2 211.7 281.38 356.19 419.3 453.05 447.95 408.18 351.64 299.77
1205.611 261.78 235.77 214.94 192.77 167.81 142.22 119.73 102.47 89.93 81.01
1224.901 74.51 69.18 64.48 60.16 56.07 52.35 49.31 46.72 44.11 41.44
1244.191 38.57 35.52 32.55 29.94 27.73 25.74 23.93 22.49 21.32 20.27
1263.481 19.41 18.76 18.21 17.79 17.41 17.02 16.7 16.44 16.2 16.08
1282.771 16.12 16.36 16.85 17.56 18.77 20.64 23.03 26.01 29.42 32.72
1302.060 35.39 37.36 38.97 40.8 43.38 47.1 51.85 57.02 61.97 66.46
1321.350 71.03 76.33 81.8 85.54 85.12 79.19 68.56 55.95 44.1 34.61
1340.640 27.6 22.63 19.06 16.43 14.53 13.09 11.93 11.03 10.35 9.8
1359.930 9.34 8.97 8.69 8.45 8.28 8.14 8 7.93 7.96 8.11
1379.219 8.38 8.73 9.07 9.31 9.29 8.99 8.57 8.2 7.94 7.73
1398.509 7.58 7.49 7.49 7.54 7.58 7.68 7.85 8.06 8.31 8.6
1417.799 8.88 9.11 9.27 9.41 9.47 9.41 9.27 9.05 8.79 8.54
1437.089 8.29 8.05 7.87 7.74 7.64 7.59 7.64 7.77 7.96 8.21
1456.378 8.49 8.73 9.03 9.42 9.9 10.49 11.17 11.89 12.68 13.66
1475.668 14.89 16.45 18.47 21.2 24.88 29.77 36.62 46.14 59.85 78.68
1494.958 104.71 141.2 186.18 235.84 279.85 303.95 300.62 272.68 229.25 180.95
1514.248 140.57 110.23 87.22 70.35 56.03 45.27 36.7 29.78 24.53 20.61
1533.538 17.6 15.15 13.44 11.99 10.76 9.79 9.02 8.37 7.91 7.44
1552.827 7.11 6.91 6.74 6.59 6.45 6.39 6.4 6.45 6.6 6.81
1572.117 6.99 7.26 7.74 8.27 8.94 9.83 10.81 11.94 13.26 14.71
1591.407 16.26 17.96 19.82 21.85 24.02 26.33 28.47 30.05 30.59 29.66
1610.697 27.43 24.21 20.66 17.2 14.43 12.6 11.35 10.58 10.1 9.81
1629.986 9.57 9.31 9.04 8.76 8.44 8.05 7.65 7.26 6.85 6.42
1649.276 6.03 5.75 5.47 5.27 5.07 4.86 4.73 4.57 4.39 4.29
1668.566 4.19 4.1 4.02 3.91 3.8 3.69 3.61 3.5 3.37 3.24
1687.856 3.13 3.01 2.89 2.76 2.63 2.48 2.33 2.2 2.11 2.05
1707.146 1.99 1.92 1.9 1.9 1.9 1.87 1.83 1.87 1.94 1.99
1726.435 2.05 2.09 2.16 2.32 2.47 2.56 2.7 2.87 3.02 3.16
1745.725 3.28 3.4 3.53 3.64 3.75 3.9 4.12 4.38 4.62 4.8
1765.015 4.87 4.78 4.53 4.18 3.7 3.28 2.95 2.69 2.52 2.39
1784.305 2.26 2.15 2.14 2.13 2.09 2.08 2.09 2.06 2.04 2.03
1803.594 2 1.93 1.89 1.87 1.82 1.77 1.71 1.71 1.72 1.71
1822.884 1.72 1.73 1.73 1.77 1.88 1.96 2 2.07 2.16 2.29
1842.174 2.41 2.57 2.74 2.88 3.05 3.27 3.53 3.83 4.16 4.51
1861.464 4.92 5.37 5.78 6.18 6.64 7.07 7.45 7.82 8.15 8.37
1880.754 8.48 8.46 8.26 7.94 7.55 7.12 6.69 6.28 5.92 5.65
1900.043 5.43 5.29 5.18 5.03 4.9 4.8 4.7 4.57 4.44 4.34
1919.333 4.25 4.16 4.07 3.98 3.9 3.85 3.8 3.72 3.65 3.57
1938.623 3.49 3.41 3.3 3.21 3.11 3.01 2.92 2.81 2.71 2.6
1957.913 2.5 2.4 2.3 2.21 2.11 2 1.95 1.93 1.89 1.85
1977.202 1.84 1.86 1.85 1.85 1.84 1.88 1.97 2.01 2.04 2.1
1996.492 2.1 2.07 2.03 1.94 1.87 1.82 1.74 1.69 1.68 1.67
2015.782 1.68 1.67 1.64 1.65 1.64 1.64 1.62 1.58 1.55 1.53
2035.072 1.51 1.47 1.47 1.49 1.46 1.42 1.41 1.43 1.41 1.37
2054.362 1.35 1.3 1.25 1.2 1.21 1.25 1.23 1.2 1.15 1.1094
2073.651 1.0952 1.0745 1.0568 1.0238 0.9885 0.9871 0.9553 0.9146 0.9101 0.886
2092.941 0.8308 0.7953 0.7984 0.7905 0.7795 0.7565 0.6984 0.6728 0.6624 0.6323
2112.231 0.6194 0.6389 0.6504 0.6495 0.6276 0.6153 0.6073 0.5986 0.6241 0.6025
2131.521 0.5723 0.5567 0.5449 0.5671 0.5516 0.496 0.4906 0.4878 0.4332 0.4375
2150.810 0.4994 0.5168 0.5243 0.505 0.4751 0.4469 0.4478 0.5111 0.543 0.5426
2170.100 0.5634 0.6195 0.6397 0.658 0.6766 0.6747 0.7171 0.7387 0.7331 0.7433
2189.390 0.7605 0.7544 0.7425 0.7411 0.717 0.6769 0.6823 0.7198 0.7258 0.7177
2208.680 0.7609 0.7652 0.7512 0.769 0.745 0.7227 0.7338 0.7379 0.751 0.7437
2227.970 0.6925 0.6705 0.6667 0.6769 0.6695 0.6715 0.6391 0.6066 0.6474 0.6414
2247.259 0.6231 0.6506 0.6719 0.6895 0.684 0.6796 0.6671 0.6819 0.7247 0.7381
2266.549 0.7879 0.8732 0.8953 0.8966 0.954 0.9952 1.0128 1.0522 1.1005 1.13
2285.839 1.15 1.14 1.14 1.15 1.19 1.24 1.2 1.19 1.27 1.3
2305.129 1.31 1.35 1.38 1.37 1.37 1.38 1.4 1.41 1.44 1.46
2324.418 1.42 1.43 1.44 1.45 1.49 1.45 1.43 1.39 1.33 1.32
2343.708 1.26 1.21 1.22 1.26 1.25 1.26 1.33 1.43 1.51 1.55
2362.998 1.55 1.5 1.48 1.45 1.4 1.35 1.35 1.37 1.36 1.39
2382.288 1.46 1.5 1.54 1.63 1.65 1.64 1.69 1.72 1.74 1.74
2401.578 1.75 1.78 1.79 1.76 1.72 1.7 1.66 1.64 1.63 1.58
2420.867 1.56 1.55 1.52 1.55 1.59 1.61 1.61 1.62 1.63 1.6
2440.157 1.54 1.5 1.44 1.36 1.33 1.27 1.23 1.17 1.1163 1.0822
2459.447 1.0068 1.004 1.0477 1.0171 0.9895 0.9737 0.9608 0.9844 0.9646 0.9482
2478.737 0.9568 0.9283 0.9 0.8961 0.8754 0.8318 0.8125 0.8042 0.8134 0.8187
2498.026 0.7669 0.7548 0.8175 0.8207 0.7691 0.7591 0.7783 0.8018 0.7945 0.8065
2517.316 0.8537 0.8912 0.8941 0.9302 0.9633 0.911 0.9062 0.9123 0.8788 0.9144
2536.606 0.9659 0.944 0.891 0.9112 0.9455 0.9596 0.9767 0.9663 0.9656 0.9551
2555.896 0.9142 0.8927 0.9316 0.9881 1.0004 1.0074 1.0455 1.0709 1.0761 1.0516
2575.186 1.0733 1.0968 1.0863 1.1085 1.14 1.17 1.17 1.17 1.13 1.0494
2594.475 0.9978 0.9605 0.9343 0.8617 0.8327 0.8357 0.7847 0.772 0.7291 0.6702
2613.765 0.6471 0.644 0.6242 0.5952 0.619 0.634 0.592 0.5866 0.6078 0.5416
2633.055 0.4482 0.4383 0.449 0.454 0.504 0.4864 0.4493 0.4362 0.4333 0.4525
2652.345 0.4546 0.4577 0.4891 0.4833 0.4865 0.5064 0.4523 0.4674 0.5258 0.5673
2671.634 0.5791 0.5585 0.5699 0.5584 0.5514 0.5478 0.5601 0.57 0.5462 0.5794
2690.924 0.6227 0.6514 0.6869 0.6815 0.6937 0.7662 0.8296 0.8778 0.8623 0.8085
2710.214 0.7535 0.8018 0.8507 0.799 0.8338 0.825 0.7541 0.7686 0.7686 0.8354
2729.504 0.941 1.0264 1.15 1.25 1.41 1.69 1.93 2.06 2.21 2.29
2748.794 2.12 1.89 1.67 1.44 1.3 1.0804 0.9456 1.0022 0.9551 0.8892
2768.083 0.8495 0.8282 0.8803 0.8831 0.8274 0.801 0.8244 0.8916 0.9109 0.9128
2787.373 0.9402 0.9044 0.9291 0.9748 1.0341 1.0846 1.13 1.21 1.24 1.22
2806.663 1.29 1.43 1.46 1.46 1.49 1.54 1.65 1.7 1.71 1.8
2825.953 1.93 2.05 2.16 2.3 2.38 2.44 2.7 2.97 3.21 3.53
2845.242 3.87 4.19 4.62 5.14 5.6 6.16 6.81 7.51 8.38 9.3
2864.532 10.27 11.45 12.8 14.1 15.38 16.64 17.66 18.27 18.5 18.24
2883.822 17.53 16.77 15.98 15.27 14.7 14.22 13.82 13.53 13.31 13.19
2903.112 13.21 13.33 13.5 13.75 14.21 14.84 15.59 16.57 17.87 19.44
2922.401 21.26 23.52 26.14 29.13 32.26 35.04 37.06 37.65 36.51 33.87
2941.691 30.13 25.96 22.16 19.02 16.5 14.52 12.94 11.79 10.93 10.25
2960.981 9.75 9.3 8.98 8.73 8.46 8.32 8.29 8.27 8.35 8.54
2980.271 8.81 9.13 9.57 10.08 10.65 11.35 12 12.63 13.33 14.01
2999.561 14.58 15.09 15.41 15.71 16.06 16.17 16.29 16.34 16.34 16.53
3018.850 16.82 17.3 18.03 19.12 20.65 22.71 25.42 28.68 32.09 35.08
3038.140 36.98 37.16 35.7 33.06 29.75 26.59 23.77 21.33 19.16 17.1
3057.430 15.32 13.92 12.9 12.13 11.5 11.01 10.62 10.24 9.98 9.62
3076.720 8.99 8.32 7.7 7.08 6.53 6.13 5.84 5.64 5.51 5.46
3096.009 5.32 5.18 5.17 5.08 4.92 4.86 4.87 4.69 4.53 4.44
3115.299 4.18 3.97 3.75 3.54 3.39 3.19 2.96 2.72 2.47 2.22
3134.589 2.05 1.85 1.66 1.5 1.32 1.23 1.16 1.0384 1.055 1.0464
3153.879 1.014 0.98 0.9413 0.9443 0.8594 0.7746 0.747 0.7666 0.7547 0.6905
3173.169 0.6404 0.6835 0.7237 0.7292 0.7312 0.737 0.798 0.7308 0.6155 0.6121
3192.458 0.6962 0.7277 0.7714 0.7832 0.7587 0.7662 0.7157 0.634 0.5911 0.5274
3211.748 0.5083 0.544 0.469 0.3793 0.4258 0.4885 0.54 0.5258 0.4222 0.4918
3231.038 0.5111 0.4467 0.4116 0.3968 0.424 0.4313 0.4198 0.4144 0.4083 0.4196
3250.328 0.4131 0.3565 0.3331 0.3036 0.2882 0.342 0.3798 0.358 0.2672 0.2516
3269.617 0.3101 0.3045 0.313 0.299 0.2413 0.2807 0.3164 0.2539 0.2547 0.24
3288.907 0.2473 0.2535 0.2905 0.2915 0.20001 0.2134 0.2372 0.2146 0.17845 0.2589
3308.197 0.3596 0.3955 0.3836 0.3661 0.4161 0.3772 0.3286 0.266 0.15317 0.16455
3327.487 0.17612 0.14667 0.2931 0.4139 0.3462 0.3096 0.3102 0.3461 0.3466 0.3751
3346.777 0.2994 0.267 0.4004 0.3826 0.3561 0.2994 0.2653 0.2634 0.2719 0.3366
3366.066 0.3065 0.2606 0.2803 0.2569 0.17799 0.19829 0.2942 0.2798 0.2345 0.2187
3385.356 0.22105 0.2528 0.16279 0.0893 0.18728 0.2881 0.17713 0.0995 0.2381 0.3439
3404.646 0.2599 0.2447 0.2831 0.2634 0.2621 0.2606 0.21921 0.2068 0.2507 0.21638
3423.936 0.22929 0.2327 0.20929 0.20184 0.18959 0.21932 0.18366 0.17918 0.22579 0.19689
3443.225 0.20157 0.22301 0.2863 0.2325 0.1126 0.17863 0.2768 0.2543 0.22571 0.2384
3462.515 0.19762 0.21134 0.2906 0.3815 0.2959 0.2417 0.253 0.21802 0.1148 0.0694
3481.805 0.16957 0.18907 0.1185 0 0.0468 0.0809 0.20717 0.336 0.2459 0.15278
3501.095 0.17281 0.2306 0.18871 0.20811 0.21735 0.21883 0.18931 0.139666 0.19681 0.2688
3520.385 0.21382 0.20267 0.2579 0.24 0.17201 0.12172 0.1162 0.021 0.0387 0.0304
3539.674 0.0332 0.16698 0.1857 0.18162 0.12793 0.2054 0.20379 0.14935 0.1745 0.130549
3558.964 0.139672 0.20817 0.19558 0.078 0.0976 0.2379 0.2565 0.134234 0.0636 0.0826
3578.254 0.138889 0.17472 0.19324 0.22902 0.17235 0.0878 0.1067 0.0986 0.1175 0.20273
3597.544 0.21258 0.13374 0.20354 0.3301 0.22578 0.0822 0.1149 0.19142 0.19346 0.22556
3616.833 0.2424 0.20432 0.17151 0.1174 0.0999 0.19154 0.2336 0.18535 0.22664 0.2787
3636.123 0.21447 0.15076 0.0834 0.0768 0.14611 0.12107 0.0955 0.1154 0.0894 0.139364
3655.413 0.17585 0.18938 0.22401 0.3029 0.3068 0.2447 0.2678 0.3244 0.3682 0.3796
3674.703 0.3209 0.2858 0.2768 0.2731 0.3574 0.3393 0.3155 0.35 0.3068 0.22745
3693.993 0.2467 0.2754 0.3143 0.3324 0.2869 0.2454 0.2891 0.2379 0.18347 0.19988
3713.282 0.2425 0.2588 0.1019 0.16455 0.2688 0.19961 0.22143 0.22134 0.2545 0.2465
3732.572 0.16522 0.21653 0.21486 0.2468 0.2814 0.21624 0.14708 0.1023 0.12805 0.21166
3751.862 0.2452 0.18657 0.19676 0.2753 0.3118 0.3395 0.3732 0.3704 0.3322 0.2834
3771.152 0.2321 0.22797 0.1633 0.13689 0.15473 0.136741 0.17925 0.2677 0.3045 0.2729
3790.441 0.21148 0.2314 0.2759 0.2319 0.132295 0.057 0.15039 0.17057 0.22958 0.2819
3809.731 0.21764 0.22019 0.15525 0.15979 0.18169 0.16323 0.2308 0.22802 0.19433 0.18039
3829.021 0.14351 0.202 0.22756 0.22653 0.2541 0.18345 0.0776 0.19951 0.3346 0.3151
3848.311 0.3416 0.2786 0.17885 0.16902 0.15466 0.19052 0.21331 0.2481 0.2566 0.2743
3867.601 0.3122 0.3141 0.3423 0.3678 0.4326 0.4287 0.3395 0.2336 0.3231 0.3869
3886.890 0.3481 0.3352 0.3043 0.18589 0.2 0.3392 0.3133 0.3664 0.4186 0.4048
3906.180 0.3408 0.3698 0.4404 0.3965 0.3427 0.3626 0.469 0.3323 0.2092 0.2725
3925.470 0.2423 0.2837 0.4124 0.4591 0.419 0.3697 0.2774 0.21705 0.257 0.2653
3944.760 0.21478 0.15099 0.15705 0.15191 0.0596 0.1143 0.19619 0.19294 0.20089 0.19906
3964.049 0.3408 0.3569 0.2699 0.2476 0.299 0.368 0.21969 0.17624 0.3305 0.27
3983.339 0.20003 0.2379 0.2348 0.2644 0.2386 0.2419 0.294 0.401 0.3986 0.3845
##END=
