##TITLE=Dioxathion
##JCAMP-DX=4.24
##DATA TYPE=INFRARED SPECTRUM
##ORIGIN=NIST Mass Spectrometry Data Center
##OWNER=NIST Standard Reference Data Program
Collection (C) 2018 copyright by the U.S. Secretary of Commerce
on behalf of the United States of America. All rights reserved.
##CAS REGISTRY NO=78-34-2
##MOLFORM=C 12 H 26 O 6 P 2 S 4
##$NIST SOURCE=MSDC-IR
##SPECTROMETER/DATA SYSTEM=HP-GC/MS/IRD
##STATE=gas
##XUNITS=1/CM
##YUNITS=ABSORBANCE
##XFACTOR=1.0
##YFACTOR=0.000009000
##DELTAX=4.0
##FIRSTX=550.0
##LASTX=3846.0
##FIRSTY=0.002880
##MAXX=3846
##MINX=550
##MAXY=0.09
##MINY=0
##NPOINTS=825
##XYDATA=(X++(Y..Y))
550.0 320 160 60 82 98 107 81 54 61 88
590.0 123 144 121 64 17 5 9 28 64 120
630.0 192 322 540 903 1559 2564 3658 4276 4002 3051
670.0 2048 1352 906 596 397 279 195 141 114 94
710.0 79 74 74 76 79 91 112 130 156 203
750.0 269 349 460 610 791 988 1184 1371 1577 1836
790.0 2156 2503 2815 2995 2976 2798 2542 2261 2000 1796
830.0 1605 1347 1022 730 533 417 360 344 363 439
870.0 599 765 803 691 550 502 559 695 957 1426
910.0 2066 2591 2682 2393 2088 2088 2426 2999 3741 4507
950.0 5119 5399 5253 4751 4037 3282 2618 2132 1858 1779
990.0 1862 2057 2355 2843 3627 4786 6276 7882 9256 10000
1030.0 9936 9292 8456 7697 7016 6343 5610 4843 4148 3596
1070.0 3246 3061 2944 2844 2820 2934 3152 3451 3829 4168
1110.0 4215 3778 3031 2417 2214 2373 2779 3395 4221 5196
1150.0 5966 5958 4972 3475 2202 1450 1050 814 651 533
1190.0 434 342 283 239 194 148 121 128 140 160
1230.0 230 367 531 610 541 397 305 324 446 570
1270.0 574 462 333 304 383 616 1145 1864 2262 1985
1310.0 1251 625 336 221 164 130 113 108 113 126
1350.0 148 186 260 383 524 600 581 536 559 671
1390.0 787 814 715 539 384 295 249 227 216 209
1430.0 207 212 229 261 304 362 431 476 451 371
1470.0 301 271 256 228 189 148 121 101 83 69
1510.0 56 45 37 29 24 21 15 14 19 20
1550.0 20 29 41 51 68 95 125 165 207 252
1590.0 308 364 422 481 557 680 901 1312 1973 2789
1630.0 3370 3240 2380 1339 639 336 216 155 122 99
1670.0 81 66 56 55 52 44 47 52 53 51
1710.0 49 46 43 41 36 35 42 48 51 50
1750.0 44 38 32 30 28 32 33 35 39 43
1790.0 52 60 64 69 77 86 88 89 93 96
1830.0 96 89 78 69 62 55 50 45 39 34
1870.0 30 24 22 22 19 19 18 16 16 15
1910.0 15 10 5 5 3 1 3 5 3 1
1950.0 1 0 0 0 3 6 8 11 18 23
1990.0 22 25 27 29 36 46 52 60 71 70
2030.0 59 47 36 27 24 26 28 32 36 34
2070.0 32 22 11 5 4 5 4 3 2 2
2110.0 4 9 14 21 30 38 42 46 42 33
2150.0 27 18 13 14 11 6 7 10 12 15
2190.0 17 20 23 26 27 24 24 28 30 31
2230.0 27 28 28 27 28 31 31 32 34 31
2270.0 29 28 30 33 33 34 34 31 24 13
2310.0 10 10 9 9 12 13 12 13 12 9
2350.0 11 14 16 13 9 9 11 8 1 1
2390.0 4 6 6 5 8 11 11 14 13 11
2430.0 12 16 18 19 19 23 27 27 25 18
2470.0 18 17 12 8 4 6 5 8 12 9
2510.0 7 8 9 8 7 6 5 7 14 18
2550.0 15 13 12 9 7 7 6 9 12 14
2590.0 14 15 20 24 22 20 24 26 27 27
2630.0 20 18 18 15 17 21 21 20 19 19
2670.0 21 23 23 26 28 30 36 41 46 58
2710.0 74 94 112 123 116 101 92 89 84 80
2750.0 82 84 87 98 104 108 114 118 114 103
2790.0 94 83 76 82 87 88 94 108 123 135
2830.0 147 157 158 168 187 206 235 279 334 416
2870.0 544 737 1012 1308 1476 1407 1176 962 868 861
2910.0 878 891 912 996 1188 1481 1826 2108 2154 1902
2950.0 1513 1212 1098 1158 1342 1654 2186 2955 3607 3650
2990.0 3046 2241 1655 1282 1000 800 665 562 476 405
3030.0 341 287 245 210 181 159 137 118 110 105
3070.0 98 94 87 79 76 75 78 90 101 120
3110.0 149 161 140 97 70 62 58 55 53 57
3150.0 50 42 47 53 48 43 37 35 36 39
3190.0 44 45 44 41 40 40 38 36 35 34
3230.0 38 37 34 35 35 34 29 32 39 33
3270.0 26 25 28 26 25 18 16 21 23 20
3310.0 18 17 17 16 14 8 9 17 22 21
3350.0 21 24 21 23 20 19 21 18 19 19
3390.0 21 26 20 15 19 23 20 17 19 17
3430.0 13 12 6 4 11 15 17 15 13 16
3470.0 22 23 18 16 17 15 16 15 7 8
3510.0 6 5 9 12 20 18 16 22 18 10
3550.0 6 9 8 14 17 13 15 21 23 20
3590.0 23 26 15 8 12 11 9 19 23 17
3630.0 19 18 11 16 16 9 13 16 17 18
3670.0 17 10 12 21 19 19 23 18 10 14
3710.0 22 29 28 28 35 25 17 23 13 11
3750.0 21 21 24 24 20 21 16 19 29 25
3790.0 21 26 26 24 31 33 34 35 27 24
3830.0 28 25 22 32 30
##END=
