##TITLE=3,7-Dimethyl-3-octanol
##JCAMP-DX=4.24
##DATA TYPE=INFRARED SPECTRUM
##ORIGIN=NIST Mass Spectrometry Data Center
##OWNER=NIST Standard Reference Data Program
Collection (C) 2018 copyright by the U.S. Secretary of Commerce
on behalf of the United States of America. All rights reserved.
##CAS REGISTRY NO=78-69-3
##MOLFORM=C 10 H 22 O
##$NIST SOURCE=MSDC-IR
##SPECTROMETER/DATA SYSTEM=HP-GC/MS/IRD
##STATE=gas
##XUNITS=1/CM
##YUNITS=ABSORBANCE
##XFACTOR=1.0
##YFACTOR=0.000003600
##DELTAX=4.0
##FIRSTX=550.0
##LASTX=3846.0
##FIRSTY=0.000781
##MAXX=3846
##MINX=550
##MAXY=0.036
##MINY=0
##NPOINTS=825
##XYDATA=(X++(Y..Y))
550.0 217 155 94 86 100 127 86 62 95 85
590.0 61 22 4 38 52 53 60 64 56 29
630.0 38 67 61 49 55 62 57 63 67 52
670.0 53 59 63 67 76 88 88 95 84 77
710.0 94 111 124 123 130 143 151 164 169 148
750.0 129 118 114 120 123 120 121 120 124 126
790.0 139 142 139 144 127 118 127 145 163 167
830.0 165 182 205 195 174 169 162 153 161 177
870.0 201 242 298 364 445 549 652 740 799 820
910.0 829 827 811 792 756 707 670 639 611 587
950.0 563 549 547 565 594 616 624 607 571 544
990.0 517 506 507 505 495 470 464 479 482 488
1030.0 493 529 559 555 540 499 464 440 432 437
1070.0 435 452 478 498 534 575 606 632 657 684
1110.0 726 759 786 837 891 941 997 1069 1145 1232
1150.0 1330 1401 1448 1472 1429 1337 1231 1102 977 892
1190.0 842 812 795 779 755 734 721 698 678 669
1230.0 672 673 676 695 714 719 723 727 722 713
1270.0 693 688 687 674 674 677 680 682 689 703
1310.0 711 715 708 699 691 699 724 744 757 787
1350.0 822 874 961 1093 1271 1469 1642 1751 1773 1663
1390.0 1431 1132 840 631 513 444 404 386 385 403
1430.0 440 502 593 707 842 1005 1181 1362 1486 1520
1470.0 1446 1248 998 768 581 441 349 283 240 210
1510.0 177 154 146 138 123 106 95 100 94 81
1550.0 88 94 93 89 82 79 77 74 76 67
1590.0 59 64 63 60 67 64 63 62 53 55
1630.0 55 54 56 57 58 62 58 49 48 46
1670.0 44 46 47 43 37 35 41 43 39 38
1710.0 40 41 40 37 33 32 33 32 32 33
1750.0 31 27 27 31 28 24 22 23 27 27
1790.0 31 31 28 24 23 27 24 24 25 25
1830.0 27 29 25 25 29 25 23 29 26 18
1870.0 21 22 14 22 29 20 20 19 19 22
1910.0 18 14 16 14 12 15 14 15 18 18
1950.0 13 6 12 17 7 6 10 7 7 13
1990.0 14 11 11 21 24 18 14 13 15 18
2030.0 24 20 16 17 14 14 17 18 20 18
2070.0 18 18 14 15 16 18 19 17 13 12
2110.0 17 14 11 14 16 17 15 16 11 8
2150.0 12 13 12 12 16 16 15 16 19 23
2190.0 21 15 15 13 14 16 18 19 13 8
2230.0 5 10 17 14 17 18 15 15 20 26
2270.0 22 22 27 29 32 29 22 21 29 29
2310.0 24 20 24 34 35 33 37 36 32 30
2350.0 38 44 45 50 51 48 38 30 30 31
2390.0 32 31 26 23 22 22 25 28 28 30
2430.0 35 34 26 28 33 33 29 25 28 27
2470.0 26 26 28 31 29 28 28 28 34 39
2510.0 39 34 28 27 24 22 32 37 40 40
2550.0 36 35 40 43 49 57 58 55 61 65
2590.0 73 75 68 69 74 78 83 88 92 87
2630.0 90 99 94 92 93 96 100 96 93 99
2670.0 99 100 100 103 109 115 113 114 123 130
2710.0 132 138 151 164 177 191 195 194 194 189
2750.0 189 192 193 191 197 214 216 222 238 247
2790.0 269 296 310 336 370 400 440 476 529 601
2830.0 685 797 959 1170 1425 1710 1968 2185 2392 2626
2870.0 2933 3279 3585 3816 3968 4059 4150 4306 4533 4815
2910.0 5080 5301 5519 5807 6229 6728 7216 7598 7812 7878
2950.0 7947 8263 8943 9673 10000 9627 8561 7138 5660 4335
2990.0 3226 2344 1698 1257 968 772 644 558 490 441
3030.0 400 371 356 334 309 290 283 279 272 265
3070.0 263 260 248 237 230 225 217 206 194 183
3110.0 182 184 175 158 150 156 157 148 141 129
3150.0 130 139 143 136 129 125 122 128 131 129
3190.0 131 133 123 103 86 82 78 71 65 55
3230.0 55 47 37 27 25 34 37 26 26 36
3270.0 35 39 42 41 44 38 28 32 33 20
3310.0 29 33 24 28 35 44 41 36 37 36
3350.0 43 52 50 48 38 33 30 20 18 20
3390.0 30 37 26 31 37 30 29 29 37 40
3430.0 33 20 19 37 38 34 27 11 11 24
3470.0 32 24 12 15 12 9 11 16 17 9
3510.0 10 12 2 10 18 12 13 16 21 11
3550.0 2 0 11 23 13 9 21 21 9 8
3590.0 16 21 21 18 18 46 68 85 132 192
3630.0 266 350 410 417 372 301 225 156 105 71
3670.0 52 47 46 40 38 34 19 4 13 22
3710.0 15 5 5 25 31 17 15 17 18 29
3750.0 29 5 0 4 12 16 15 18 27 33
3790.0 40 41 34 31 26 21 31 50 61 55
3830.0 44 30 20 28 28
##END=
