##TITLE=2,2'-Azobis(2-methylpropionitrile)
##JCAMP-DX=4.24
##DATA TYPE=INFRARED SPECTRUM
##ORIGIN=NIST Mass Spectrometry Data Center
##OWNER=NIST Standard Reference Data Program
Collection (C) 2018 copyright by the U.S. Secretary of Commerce
on behalf of the United States of America. All rights reserved.
##CAS REGISTRY NO=78-67-1
##MOLFORM=C 8 H 12 N 4
##$NIST SOURCE=MSDC-IR
##SPECTROMETER/DATA SYSTEM=HP-GC/MS/IRD
##STATE=gas
##XUNITS=1/CM
##YUNITS=ABSORBANCE
##XFACTOR=1.0
##YFACTOR=0.000000900
##DELTAX=4.0
##FIRSTX=550.0
##LASTX=3846.0
##FIRSTY=0.000121
##MAXX=3846
##MINX=550
##MAXY=0.009
##MINY=0
##NPOINTS=825
##XYDATA=(X++(Y..Y))
550.0 134 209 81 94 190 201 153 110 76 76
590.0 191 246 190 135 155 213 231 210 246 306
630.0 318 252 172 156 156 169 113 21 46 118
670.0 68 33 61 77 51 48 111 83 63 108
710.0 155 153 121 186 206 184 228 271 296 278
750.0 211 222 264 227 228 222 219 266 262 207
790.0 173 159 131 93 62 119 163 165 185 154
830.0 105 110 111 88 75 92 120 91 67 74
870.0 102 101 65 98 160 166 132 132 185 218
910.0 230 221 183 134 121 168 184 202 238 281
950.0 321 322 290 229 191 158 99 104 129 78
990.0 80 124 141 137 121 136 130 123 138 121
1030.0 99 118 118 128 184 205 152 135 181 228
1070.0 273 281 276 326 379 407 483 607 725 880
1110.0 1031 1173 1357 1549 1824 2189 2692 3312 3819 4068
1150.0 3951 3498 2936 2346 1904 1710 1741 1747 1696 1726
1190.0 1671 1542 1361 1172 1035 886 722 633 629 618
1230.0 571 534 481 426 333 272 288 287 261 235
1270.0 226 239 225 204 198 213 200 185 210 233
1310.0 211 194 222 210 207 237 230 224 255 285
1350.0 317 384 517 747 1128 1657 2343 3192 4076 4550
1390.0 4637 4401 3656 2792 2010 1331 906 725 624 597
1430.0 647 764 923 1133 1483 2000 2606 3219 3743 4090
1470.0 4018 3495 2941 2279 1563 1036 699 526 435 372
1510.0 348 340 313 274 260 251 224 221 218 195
1550.0 180 166 156 148 149 147 134 118 114 135
1590.0 148 146 139 129 157 177 175 161 144 139
1630.0 140 151 157 159 171 175 178 177 144 127
1670.0 129 137 156 172 164 142 132 146 148 131
1710.0 134 132 120 127 134 128 114 108 108 108
1750.0 113 121 121 119 111 107 120 117 114 119
1790.0 99 97 125 119 75 60 70 75 74 76
1830.0 102 106 79 79 104 106 93 90 88 73
1870.0 67 77 76 77 95 96 85 57 62 66
1910.0 64 65 60 64 61 56 48 54 61 58
1950.0 48 59 81 99 86 61 65 61 51 60
1990.0 55 34 43 37 38 79 86 67 75 67
2030.0 57 63 84 95 64 63 67 63 69 66
2070.0 53 41 32 44 62 36 12 27 30 28
2110.0 20 4 10 11 22 46 60 39 0 4
2150.0 13 1 0 1 19 32 10 7 21 32
2190.0 37 34 38 24 11 16 32 39 52 81
2230.0 122 170 201 210 183 150 103 57 35 38
2270.0 46 44 45 29 14 44 57 47 46 47
2310.0 77 83 83 83 77 79 67 58 52 56
2350.0 54 64 73 65 82 86 60 38 42 65
2390.0 65 64 80 71 70 74 79 88 86 91
2430.0 79 62 70 87 90 46 34 56 51 46
2470.0 38 22 41 68 66 63 55 34 20 54
2510.0 80 64 66 91 90 88 74 63 75 79
2550.0 81 79 62 71 102 91 70 86 107 108
2590.0 112 96 73 70 82 71 84 110 104 87
2630.0 62 93 91 96 123 123 114 93 85 96
2670.0 72 38 44 35 44 80 81 57 52 63
2710.0 67 35 42 86 59 54 100 104 93 103
2750.0 123 134 118 80 71 74 114 149 171 180
2790.0 160 138 151 162 170 194 221 255 240 202
2830.0 242 288 294 303 311 323 353 395 411 478
2870.0 584 728 912 1103 1290 1427 1505 1545 1501 1406
2910.0 1408 1404 1417 1481 1599 1737 1910 2214 2534 2779
2950.0 3009 3124 3027 2785 2522 2318 2371 2995 4332 6069
2990.0 7970 9560 10000 9816 8740 6860 5005 3535 2465 1636
3030.0 1114 796 566 447 423 407 379 340 342 332
3070.0 275 242 269 252 226 210 211 220 242 284
3110.0 275 213 202 215 197 217 226 214 181 169
3150.0 207 215 245 249 224 253 266 234 215 207
3190.0 220 261 218 201 213 188 168 186 220 266
3230.0 246 222 199 186 202 211 223 201 130 113
3270.0 111 118 151 132 116 85 66 73 63 60
3310.0 99 136 136 130 111 67 83 125 110 91
3350.0 88 76 64 95 133 150 137 122 109 68
3390.0 98 126 79 78 121 131 115 130 132 131
3430.0 117 93 83 96 121 109 108 109 113 107
3470.0 82 72 104 133 146 152 112 87 63 42
3510.0 99 110 135 158 111 113 130 98 72 94
3550.0 113 79 36 63 137 155 121 83 56 68
3590.0 104 137 144 100 73 83 91 96 129 104
3630.0 49 21 22 66 79 72 91 57 47 82
3670.0 51 64 85 89 83 26 28 103 112 93
3710.0 124 103 27 9 44 52 86 90 49 63
3750.0 59 71 115 121 86 103 114 88 101 103
3790.0 85 121 134 136 172 189 141 76 84 119
3830.0 133 121 71 103 75
##END=
