##TITLE=Diethoxydimethylsilane
##JCAMP-DX=4.24
##DATA TYPE=INFRARED SPECTRUM
##ORIGIN=EPA-IR VAPOR PHASE LIBRARY
##OWNER=SRD/NIST
Collection (C) 2018 copyright by the U.S. Secretary of Commerce
on behalf of the United States of America. All rights reserved.
##CAS REGISTRY NO=78-62-6
##MOLFORM=C 6 H 16 O 2 Si
##$NIST SOURCE=MSDC-IR
##STATE=gas
##XUNITS=1/CM
##YUNITS=ABSORBANCE
##XFACTOR=1.
##YFACTOR=0.001
##DELTAX=3.85796
##FIRSTX=501.5
##LASTX=4000.7
##FIRSTY=0.5005
##MAXX=4000.7
##MINX=501.534
##MAXY=0.198847
##MINY=0
##NPOINTS=908
##XYDATA=(X++(Y..Y))
501.534 0.5005 0.6396 0.5143 0.2353 0.0162 0.035 0.2101 0.1985 0.09704 0.1795
540.114 0.271 0.2091 0.1884 0.166 0.1953 0.3154 0.3008 0.2596 0.2113 0.2367
578.693 0.3545 0.4489 0.488 0.4039 0.388 0.4127 0.5147 0.5886 0.7147 0.8809
617.273 0.9393 0.988 1.0316 1.1069 1.1169 1.1669 1.1969 1.1469 1.2469 1.3169
655.852 1.4569 1.6869 1.8669 2.1569 2.5869 3.1469 3.7769 4.3469 4.9869 5.7069
694.432 6.4669 7.3969 8.6469 10.3569 12.5069 14.9869 17.4469 19.4969 20.8369 21.1669
733.011 20.6569 19.5769 18.3269 17.2669 16.5369 16.1069 15.9769 16.2369 17.1169 18.9369
771.591 22.3669 28.1069 36.4269 47.2169 59.5269 71.8269 80.3269 80.7769 74.7269 65.7069
810.170 56.1269 49.0069 46.5269 48.9369 55.2569 64.0869 73.6169 81.4669 85.1869 83.5469
848.750 76.7669 66.5569 55.6069 45.7469 37.6869 31.3769 26.5069 22.7069 19.5969 17.1069
887.330 15.1969 13.6669 12.5469 11.9069 11.7869 12.1569 13.2169 15.3669 18.7869 23.7569
925.909 30.7669 40.0469 51.2969 63.4169 74.4469 81.9469 83.7769 79.4369 70.1769 58.1069
964.489 45.5769 34.6069 26.1269 20.1269 16.0769 13.3369 11.4669 10.1569 9.2869 8.7769
1003.068 8.5769 8.5369 8.6969 9.1869 9.8369 10.7569 12.0869 13.7569 15.8869 18.6569
1041.648 22.2069 26.7269 32.6369 40.3169 49.9969 61.8769 75.9169 90.7569 104.037 113.467
1080.227 117.207 115.537 110.807 107.027 109.377 121.027 141.217 164.727 185.137 197.507
1118.807 198.847 188.917 171.387 151.837 133.477 117.547 104.097 92.6069 82.7369 74.0869
1157.387 66.4969 59.6869 53.6769 48.6069 44.3369 40.4469 36.5469 32.6269 28.8269 25.2569
1195.966 22.0169 19.2569 17.1069 15.5069 14.3569 13.5669 13.1169 13.0369 13.4069 14.2869
1234.546 15.8769 18.6569 23.2169 29.9569 38.5569 48.0369 58.3669 63.8869 60.3469 53.6869
1273.125 44.5969 33.9369 25.0869 19.3469 16.1069 14.2269 13.0869 12.3069 11.6169 10.8669
1311.705 10.0969 9.3269 8.6369 8.0569 7.6269 7.3769 7.1969 7.1569 7.2669 7.4569
1350.284 7.7269 8.1269 8.6969 9.3769 10.1869 11.1869 12.5069 14.3169 16.7069 19.3569
1388.864 21.4169 22.2869 21.7969 19.9969 17.0469 13.7869 11.3769 9.8769 8.9269 8.2869
1427.443 7.7969 7.4269 7.1969 7.0769 6.9469 6.7369 6.4869 6.1369 5.6969 5.2669
1466.023 4.8769 4.5269 4.2369 3.9869 3.7669 3.5669 3.3369 3.0969 2.8569 2.6369
1504.603 2.4169 2.1969 2.0269 1.9169 1.8169 1.6969 1.6069 1.5169 1.4569 1.3969
1543.182 1.3369 1.2969 1.2769 1.2469 1.1869 1.1469 1.1069 1.0371 0.9834 0.9113
1581.762 0.8492 0.8323 0.7902 0.7381 0.7147 0.7043 0.6803 0.6657 0.6826 0.7025
1620.341 0.7101 0.6936 0.7173 0.7613 0.7663 0.795 0.8456 0.878 0.9024 0.9669
1658.921 1.0569 1.0969 1.1469 1.2069 1.2069 1.1869 1.1769 1.1869 1.1669 1.1069
1697.500 1.0669 1.0469 1.0154 0.9703 0.9388 0.9482 0.9546 0.9832 1.0127 1.0345
1736.080 1.0569 1.0122 0.9985 1.0087 0.9964 0.9931 1.0094 1.0569 1.1169 1.1769
1774.659 1.2569 1.3369 1.4369 1.5469 1.6169 1.6869 1.7469 1.7969 1.8369 1.8769
1813.239 1.8869 1.9269 1.9769 2.0469 2.1369 2.2469 2.3669 2.4469 2.4869 2.4769
1851.819 2.4269 2.3369 2.2369 2.1469 2.0669 1.9769 1.9169 1.8369 1.7269 1.6169
1890.398 1.5069 1.4069 1.3069 1.2469 1.2069 1.1469 1.1269 1.1069 1.0569 1.0669
1928.978 1.0669 1.0469 1.0469 1.0669 1.0569 1.0291 1.0112 1.0182 1.0339 1.0351
1967.557 1.0237 0.9789 0.9485 0.9049 0.861 0.8291 0.7736 0.7448 0.6828 0.6096
2006.137 0.5766 0.53 0.4766 0.431 0.3944 0.3622 0.3253 0.3154 0.3393 0.3515
2044.716 0.345 0.3746 0.408 0.412 0.4085 0.3753 0.3668 0.365 0.3225 0.3147
2083.296 0.3244 0.3192 0.334 0.3542 0.3678 0.4056 0.4032 0.3774 0.3667 0.3456
2121.875 0.3126 0.2889 0.3012 0.3191 0.3082 0.2939 0.2879 0.2937 0.3294 0.3354
2160.455 0.3462 0.4115 0.4876 0.5244 0.554 0.5845 0.5875 0.6027 0.6233 0.6083
2199.035 0.5884 0.5628 0.544 0.5293 0.5062 0.5152 0.5229 0.5158 0.5236 0.5051
2237.614 0.4788 0.4639 0.419 0.3942 0.3763 0.3592 0.3489 0.3056 0.2661 0.2411
2276.194 0.2125 0.2069 0.2082 0.215 0.2247 0.2195 0.2319 0.2332 0.2236 0.245
2314.773 0.251 0.2562 0.2851 0.2887 0.2815 0.2877 0.2833 0.2394 0.2033 0.1679
2353.353 0.1502 0.14465 0.10709 0.08573 0.06213 0.0362 0.0199 0.0244 0.0258 0.0218
2391.932 0.0352 0.0472387 0.05456 0.055049 0.054531 0.06952 0.09464 0.11037 0.123 0.1546
2430.512 0.192 0.2207 0.2466 0.282 0.3192 0.3363 0.3583 0.3384 0.3164 0.2881
2469.092 0.2288 0.2102 0.1908 0.1723 0.1473 0.1662 0.1854 0.1524 0.1642 0.1864
2507.671 0.1806 0.1751 0.1717 0.154 0.11398 0.08244 0.11326 0.1506 0.11179 0.11558
2546.251 0.1539 0.1614 0.1706 0.2125 0.2603 0.282 0.3329 0.3359 0.2961 0.3082
2584.830 0.3227 0.3365 0.3946 0.4356 0.4321 0.4693 0.5422 0.5746 0.6115 0.6396
2623.410 0.68 0.6766 0.6623 0.6974 0.7265 0.7831 0.7946 0.7772 0.7771 0.8015
2661.989 0.8479 0.8517 0.8397 0.8565 0.9002 0.9278 0.96 1.0469 1.1469 1.2469
2700.569 1.3569 1.5169 1.7469 1.9969 2.2569 2.5269 2.7469 2.9669 3.1869 3.3269
2739.148 3.4269 3.5369 3.5869 3.6169 3.6569 3.6769 3.7469 3.8269 3.8669 3.8669
2777.728 3.8369 3.7969 3.7969 3.7869 3.8569 4.0269 4.2669 4.5269 4.8169 5.2269
2816.308 5.7369 6.2969 6.8769 7.5569 8.3569 9.2769 10.3869 11.7169 13.1969 14.8969
2854.887 16.9469 19.3969 22.2069 25.4369 28.9969 32.6269 36.0169 38.7669 40.4969 41.2169
2893.467 41.4769 41.7469 42.1969 42.7569 43.1169 43.1469 43.0869 43.4769 44.7269 46.4569
2932.046 47.7169 48.0469 47.3569 45.7269 43.9769 43.7169 46.1369 51.1369 57.7069 64.5369
2970.626 69.8669 71.8469 69.6869 63.7769 55.5769 46.5369 38.2269 31.6369 26.6069 22.6969
3009.205 19.4369 16.6769 14.2669 12.1769 10.4669 9.0969 8.0869 7.2369 6.5469 6.0169
3047.785 5.5869 5.2469 4.9469 4.7569 4.6069 4.4069 4.2269 4.0169 3.7969 3.6569
3086.364 3.4969 3.3269 3.1869 3.0569 2.9069 2.7669 2.6269 2.4869 2.3369 2.1369
3124.944 1.9869 1.8369 1.6369 1.4969 1.4069 1.3169 1.1669 1.1169 1.0869 1.0669
3163.524 1.0769 1.1069 1.1469 1.1069 1.1269 1.1169 1.0869 1.0569 0.9827 0.9494
3202.103 0.9626 0.9586 0.9115 0.8832 0.8343 0.7873 0.7415 0.6836 0.6634 0.6534
3240.683 0.6234 0.5456 0.47 0.4388 0.3961 0.3808 0.3785 0.3539 0.3393 0.3102
3279.262 0.2904 0.2669 0.2418 0.2301 0.2129 0.2167 0.2241 0.2473 0.2979 0.3167
3317.842 0.2345 0.2376 0.2214 0.2153 0.2457 0.1568 0.0836 0.11125 0.1909 0.206
3356.421 0.2338 0.2505 0.2462 0.211 0.2225 0.2279 0.1565 0.1553 0.1728 0.1817
3395.001 0.2303 0.1998 0.1896 0.1741 0.11109 0.10409 0.11011 0.12519 0.09508 0.08611
3433.580 0.09217 0.07336 0.06733 0.11602 0.10723 0.07377 0.06932 0.03925 0.0421 0.07451
3472.160 0.09049 0.1273 0.1519 0.1025 0.06253 0.0021 0 0.055716 0.07902 0.08662
3510.740 0.13465 0.1551 0.09943 0.10563 0.0914 0.06084 0.10246 0.10045 0.06578 0.11102
3549.319 0.1959 0.2422 0.2067 0.1628 0.13399 0.1506 0.2328 0.2739 0.2711 0.2868
3587.899 0.3427 0.3299 0.2826 0.2987 0.3153 0.3251 0.2866 0.2418 0.3081 0.3558
3626.478 0.3978 0.4161 0.4094 0.4439 0.4095 0.3902 0.4039 0.4406 0.4758 0.4884
3665.058 0.4514 0.4439 0.4813 0.4782 0.4723 0.4865 0.5268 0.573 0.5727 0.5554
3703.637 0.6165 0.6223 0.5974 0.6011 0.591 0.6067 0.6152 0.5575 0.5567 0.6461
3742.217 0.7174 0.7239 0.6705 0.603 0.6029 0.6077 0.54 0.4906 0.4758 0.4657
3780.797 0.4196 0.4062 0.384 0.295 0.2761 0.2919 0.3352 0.3563 0.3256 0.3405
3819.376 0.3447 0.3236 0.3268 0.3562 0.376 0.2823 0.2109 0.2141 0.2303 0.2364
3857.956 0.2314 0.2642 0.2771 0.2772 0.2488 0.2276 0.2564 0.2694 0.2602 0.297
3896.535 0.2811 0.2414 0.238 0.2614 0.2419 0.2541 0.2564 0.2589 0.3252 0.2803
3935.115 0.3343 0.3719 0.3067 0.321 0.3479 0.4138 0.4356 0.3691 0.3941 0.389
3973.694 0.3941 0.4731 0.4924 0.5184 0.5325 0.5565 0.6404 0.6595
##END=
