##TITLE=Linolool
##JCAMP-DX=4.24
##DATA TYPE=INFRARED SPECTRUM
##ORIGIN=NIST Mass Spectrometry Data Center
##OWNER=NIST Standard Reference Data Program
Collection (C) 2018 copyright by the U.S. Secretary of Commerce
on behalf of the United States of America. All rights reserved.
##CAS REGISTRY NO=78-70-6
##MOLFORM=C 10 H 18 O
##$NIST SOURCE=MSDC-IR
##SPECTROMETER/DATA SYSTEM=HP-GC/MS/IRD
##STATE=gas
##XUNITS=1/CM
##YUNITS=ABSORBANCE
##XFACTOR=1.0
##YFACTOR=0.000001500
##DELTAX=4.0
##FIRSTX=550.0
##LASTX=3846.0
##FIRSTY=0.000477
##MAXX=3846
##MINX=550
##MAXY=0.015
##MINY=0
##NPOINTS=825
##XYDATA=(X++(Y..Y))
550.0 318 379 359 223 185 214 144 91 142 99
590.0 9 24 65 55 36 50 79 76 53 90
630.0 122 142 144 103 98 119 144 183 236 298
670.0 408 531 589 628 660 654 567 477 435 426
710.0 402 338 351 385 360 367 323 311 338 336
750.0 359 347 320 290 280 297 288 262 265 295
790.0 338 356 401 488 535 597 706 784 881 963
830.0 1021 1035 956 850 761 693 613 569 582 600
870.0 630 663 720 819 979 1209 1460 1744 2145 2671
910.0 3327 4127 4849 5163 4882 4151 3343 2717 2329 2082
950.0 1877 1743 1622 1508 1447 1442 1510 1664 1904 2191
990.0 2475 2638 2590 2351 2018 1737 1588 1496 1393 1282
1030.0 1225 1232 1204 1141 1143 1219 1286 1348 1427 1511
1070.0 1645 1806 2011 2277 2507 2716 2932 3093 3191 3217
1110.0 3188 3118 2989 2801 2601 2429 2281 2182 2072 1988
1150.0 1957 1962 2019 2059 2089 2140 2154 2147 2150 2157
1190.0 2145 2098 2014 1935 1885 1799 1720 1655 1611 1598
1230.0 1571 1579 1571 1556 1544 1531 1531 1530 1525 1538
1270.0 1544 1554 1579 1589 1604 1639 1680 1698 1713 1716
1310.0 1712 1704 1667 1620 1576 1563 1591 1619 1645 1673
1350.0 1675 1685 1773 1988 2319 2681 2961 3077 2932 2623
1390.0 2276 1973 1791 1781 1916 2052 2106 2068 1915 1764
1430.0 1724 1786 1855 1897 1981 2052 2043 1972 1803 1563
1470.0 1341 1126 919 770 662 585 519 462 398 365
1510.0 365 351 332 326 315 300 282 282 286 275
1550.0 267 264 265 247 241 238 235 259 255 257
1590.0 271 270 271 277 288 301 324 354 393 421
1630.0 440 502 553 558 542 524 478 391 350 343
1670.0 309 266 220 169 142 120 103 85 83 70
1710.0 48 51 38 27 20 23 34 26 12 15
1750.0 16 8 12 14 22 37 42 31 26 45
1790.0 50 42 31 26 40 45 44 58 100 131
1830.0 161 199 242 300 340 326 266 212 182 150
1870.0 110 79 66 49 41 34 34 38 28 31
1910.0 37 36 36 26 28 32 32 36 33 28
1950.0 39 41 35 36 49 53 39 37 47 46
1990.0 39 35 27 15 16 29 23 16 22 28
2030.0 22 16 16 13 14 16 11 21 34 29
2070.0 24 25 14 8 22 22 5 0 14 24
2110.0 16 21 23 20 14 11 17 7 10 15
2150.0 18 26 20 16 20 26 13 9 12 13
2190.0 14 10 5 14 31 41 21 13 35 40
2230.0 23 22 31 35 30 31 26 16 20 27
2270.0 40 44 36 38 35 25 25 28 33 35
2310.0 23 24 44 53 50 58 65 65 50 43
2350.0 57 62 68 69 79 89 79 67 61 59
2390.0 49 43 48 60 72 78 65 49 64 60
2430.0 45 58 61 54 53 65 70 77 85 87
2470.0 89 80 63 45 49 54 55 49 53 42
2510.0 43 63 64 64 55 53 57 55 57 79
2550.0 86 75 75 73 65 68 74 75 76 78
2590.0 79 78 78 82 85 81 86 85 72 65
2630.0 58 72 82 75 76 81 93 107 121 99
2670.0 73 91 104 97 90 118 140 149 160 180
2710.0 194 219 255 273 301 337 374 413 423 405
2750.0 376 335 300 293 336 349 335 341 364 396
2790.0 423 441 473 519 567 641 699 760 846 933
2830.0 1051 1235 1477 1758 2077 2473 2923 3433 3960 4351
2870.0 4571 4633 4615 4589 4656 4804 4969 5176 5447 5869
2910.0 6522 7380 8378 9260 9815 10000 9732 9095 8275 7440
2950.0 6718 6274 6221 6525 7209 8095 8837 9192 9012 8253
2990.0 7114 5904 4861 4062 3552 3217 2977 2760 2505 2236
3030.0 1997 1778 1622 1515 1417 1355 1313 1264 1231 1205
3070.0 1190 1219 1288 1436 1640 1756 1730 1537 1217 914
3110.0 695 547 442 375 335 306 258 221 217 203
3150.0 175 166 152 137 158 154 115 96 100 126
3190.0 118 107 118 119 128 122 145 122 98 89
3230.0 79 119 115 79 67 80 96 93 53 35
3270.0 60 43 9 24 69 68 48 41 11 20
3310.0 51 51 58 37 5 40 77 81 64 58
3350.0 89 93 62 82 106 96 76 61 55 77
3390.0 97 68 49 38 35 53 59 74 85 75
3430.0 72 66 71 73 48 21 55 91 81 70
3470.0 66 68 65 62 64 48 10 23 40 29
3510.0 6 16 37 41 48 58 53 31 75 111
3550.0 81 94 148 159 190 258 297 313 341 380
3590.0 392 405 421 405 411 405 428 476 597 809
3630.0 956 1056 1112 1003 801 576 391 267 194 143
3670.0 99 87 86 89 76 53 33 26 49 57
3710.0 62 79 60 38 43 27 42 54 55 66
3750.0 57 37 53 48 31 32 37 72 90 68
3790.0 46 63 30 4 21 55 79 91 99 67
3830.0 22 35 81 62 30
##END=
