##TITLE=4-Dimethylaminonaphthalene-1-carboxylic acid
##JCAMP-DX=4.24
##DATA TYPE=INFRARED SPECTRUM
##ORIGIN=EPA-IR VAPOR PHASE LIBRARY
##OWNER=SRD/NIST
Collection (C) 2018 copyright by the U.S. Secretary of Commerce
on behalf of the United States of America. All rights reserved.
##CAS REGISTRY NO=78062-03-0
##MOLFORM=C 13 H 13 N O 2
##$NIST SOURCE=MSDC-IR
##STATE=gas
##XUNITS=1/CM
##YUNITS=ABSORBANCE
##XFACTOR=1.
##YFACTOR=0.001
##DELTAX=1.92898
##FIRSTX=549.8
##LASTX=4000.7
##FIRSTY=6.822
##MAXX=4000.7
##MINX=549.759
##MAXY=0.085122
##MINY=0
##NPOINTS=1790
##XYDATA=(X++(Y..Y))
549.759 6.822 7.472 6.862 6.262 6.202 6.392 6.852 6.832 7.302 7.552
569.049 7.472 7.292 7.402 7.342 7.072 8.122 8.662 8.712 9.342 10.842
588.339 12.592 13.972 15.682 17.192 17.972 18.912 18.762 17.562 16.322 14.212
607.628 12.052 10.742 9.462 8.602 7.872 6.862 6.542 6.022 5.142 4.452
626.918 3.992 3.482 3.172 3.182 3.162 2.872 2.592 2.292 1.602 1.1459
646.208 1.3559 1.702 1.892 1.692 1.822 2.132 2.032 1.952 1.872 1.792
665.498 1.702 1.752 1.412 1.1001 1.402 1.872 2.032 1.892 1.602 1.462
684.787 1.612 1.932 2.202 2.172 2.262 2.292 2.522 3.262 4.382 5.942
704.077 7.992 9.852 10.832 11.502 11.742 11.192 9.772 7.892 6.182 4.852
723.367 3.902 2.862 2.442 2.252 2.102 2.172 1.722 1.652 1.912 2.132
742.657 2.472 2.722 2.932 2.852 3.132 4.082 5.292 6.662 7.952 9.942
761.947 12.772 15.992 19.132 22.112 25.492 28.152 28.602 25.962 21.932 18.552
781.236 15.482 12.952 11.042 9.222 8.242 7.712 7.012 6.632 6.442 5.792
800.526 5.252 4.822 4.022 3.532 3.292 3.222 2.582 2.072 1.892 1.752
819.816 2.052 2.612 2.652 2.522 2.822 3.002 3.282 4.142 4.272 4.162
839.106 4.402 4.302 3.972 3.362 3.102 2.702 2.282 1.992 1.682 1.402
858.395 1.592 1.662 1.412 1.502 1.2491 1.452 2.012 1.962 1.702 1.3603
877.685 1.2367 1.802 1.942 1.872 2.272 2.622 2.892 3.362 3.792 3.932
896.975 4.432 4.932 4.982 4.522 3.962 3.702 3.372 2.742 2.162 2.062
916.265 1.922 1.882 1.842 1.942 1.952 1.672 1.732 2.082 2.242 2.262
935.555 2.312 2.432 2.322 2.252 2.422 2.312 2.462 2.652 2.982 2.832
954.844 2.932 3.542 4.032 5.142 6.012 6.812 8.002 8.832 9.482 9.792
974.134 9.582 9.292 8.662 7.752 6.982 6.122 5.122 4.472 4.182 3.932
993.424 3.192 2.922 3.292 3.342 2.872 2.652 3.082 3.512 3.682 3.552
1012.714 3.602 3.842 4.082 4.982 5.872 7.032 8.612 9.912 11.392 11.712
1032.003 11.322 11.552 11.912 12.162 13.542 15.832 18.162 19.502 20.312 21.242
1051.293 20.642 19.482 17.952 15.282 13.622 12.512 10.932 9.882 8.642 8.372
1070.583 8.472 8.072 8.422 8.632 8.292 8.222 9.022 10.092 11.242 12.652
1089.873 13.612 16.162 20.412 24.162 28.962 34.332 39.802 44.632 48.702 53.572
1109.163 57.172 57.182 54.422 51.152 46.952 41.962 36.762 31.722 27.482 24.852
1128.452 23.692 22.752 23.112 24.502 26.232 28.892 31.282 32.662 33.402 32.992
1147.742 30.912 29.222 28.052 26.402 26.002 26.132 26.812 29.382 30.932 30.852
1167.032 30.732 29.442 27.792 25.432 21.912 19.312 18.072 16.682 15.922 16.012
1186.322 14.952 14.552 15.092 15.302 15.822 15.232 14.512 14.852 15.632 15.322
1205.611 14.102 13.882 13.252 13.992 14.682 13.792 14.282 14.002 12.102 11.102
1224.901 9.942 8.612 8.482 8.542 7.882 6.642 5.682 5.662 5.732 5.872
1244.191 6.062 5.522 5.392 5.412 5.262 5.702 5.812 5.972 6.262 6.002
1263.481 6.382 6.612 6.352 7.292 8.082 8.502 9.182 9.432 9.782 10.272
1282.771 10.572 10.892 11.492 11.692 11.582 11.902 12.052 12.112 12.292 12.382
1302.060 12.172 11.982 11.962 11.852 12.042 12.312 12.842 13.852 14.792 15.882
1321.350 17.452 18.942 20.132 20.862 21.262 21.432 21.072 20.272 19.242 18.092
1340.640 17.032 16.152 15.162 14.182 13.452 12.742 11.922 11.072 10.322 9.632
1359.930 8.842 8.152 7.762 7.432 7.062 6.802 6.782 6.722 6.592 6.622
1379.219 6.902 7.352 7.652 8.232 8.992 9.652 10.202 10.442 10.382 10.092
1398.509 9.552 8.782 8.002 6.942 6.152 5.932 5.822 5.882 6.242 6.772
1417.799 7.602 8.942 10.322 11.362 12.112 12.382 12.012 11.162 10.132 9.022
1437.089 7.952 7.482 7.242 7.182 7.492 7.752 8.132 8.822 9.512 10.042
1456.378 10.422 10.692 10.902 10.852 10.502 9.912 9.142 8.582 7.992 7.522
1475.668 7.292 7.112 6.992 6.982 6.762 6.552 6.442 6.062 5.982 6.252
1494.958 6.712 7.402 8.582 10.272 12.262 14.292 16.312 18.042 19.062 19.102
1514.248 18.182 16.452 13.962 11.212 8.832 7.062 5.682 4.782 4.212 3.942
1533.538 3.692 3.422 3.402 3.372 3.142 3.102 3.272 3.552 3.842 4.242
1552.827 4.762 5.342 6.112 7.302 9.112 11.342 14.402 18.212 22.442 27.042
1572.117 31.192 34.252 36.062 36.122 34.292 30.972 26.942 22.582 18.302 14.552
1591.407 11.522 9.052 7.312 6.352 5.472 4.842 4.582 4.432 4.352 4.252
1610.697 4.162 4.072 3.852 3.812 3.742 3.412 3.152 2.862 2.762 2.972
1629.986 2.882 2.622 2.612 2.632 2.612 2.512 2.442 2.352 2.192 2.132
1649.276 2.142 2.112 2.152 2.072 1.992 2.132 2.192 2.152 2.282 2.502
1668.566 2.532 2.532 2.722 2.842 2.972 3.172 3.172 3.242 3.442 3.462
1687.856 3.372 3.452 3.682 4.002 4.392 4.792 5.202 5.692 6.122 6.612
1707.146 7.292 7.882 8.352 8.942 9.622 10.312 10.692 11.092 11.672 12.462
1726.435 14.052 16.362 19.752 24.752 32.082 41.512 52.722 64.982 75.352 82.342
1745.725 85.122 83.422 76.952 66.092 52.842 39.972 29.452 22.012 16.912 13.752
1765.015 11.912 10.862 10.332 10.232 10.362 10.582 10.962 11.182 11.132 10.892
1784.305 10.362 9.712 8.922 7.912 6.782 5.742 4.952 4.282 3.722 3.282
1803.594 2.912 2.672 2.542 2.332 2.172 2.182 2.172 2.092 2.082 2.152
1822.884 2.112 1.982 1.932 1.962 1.942 1.942 1.842 1.692 1.722 1.702
1842.174 1.612 1.662 1.792 1.822 1.762 1.742 1.682 1.672 1.642 1.552
1861.464 1.542 1.522 1.462 1.592 1.662 1.692 1.752 1.822 1.972 1.932
1880.754 1.932 1.982 1.882 1.802 1.722 1.602 1.612 1.512 1.3043 1.2754
1900.043 1.3145 1.3646 1.2686 1.2021 1.1153 0.9667 0.9759 1.0606 1.1571 1.276
1919.333 1.3171 1.3005 1.2925 1.3186 1.3492 1.3641 1.452 1.532 1.462 1.452
1938.623 1.492 1.462 1.502 1.522 1.432 1.432 1.432 1.3578 1.3903 1.402
1957.913 1.2664 1.213 1.1462 1.054 0.9919 0.7854 0.7723 0.8046 0.7002 0.8382
1977.202 0.9037 0.8266 0.7723 0.7448 0.7886 0.7841 0.7881 0.8046 0.8275 0.9177
1996.492 0.8891 0.847 0.8942 0.8234 0.8116 0.8283 0.9624 1.0091 0.9344 0.9298
2015.782 0.9592 0.9669 0.9023 0.7842 0.7012 0.7741 0.8537 0.8494 0.7921 0.8302
2035.072 0.9766 1.0078 0.898 0.7238 0.5707 0.6188 0.7102 0.6797 0.7278 0.6546
2054.362 0.5573 0.6367 0.5878 0.6505 0.7126 0.8468 0.9302 0.7819 0.7932 0.8847
2073.651 0.9597 0.9721 0.9295 0.9757 0.9454 0.8682 0.8201 0.7645 0.7775 0.7535
2092.941 0.7505 0.8239 0.8626 0.7614 0.7681 0.766 0.7283 0.8413 0.8968 0.7901
2112.231 0.6456 0.6944 0.7309 0.6943 0.6495 0.7078 0.7329 0.7653 0.82 0.713
2131.521 0.6763 0.767 0.7627 0.7267 0.7821 0.8055 0.8286 0.7623 0.6054 0.6314
2150.810 0.6464 0.517 0.5801 0.7487 0.8145 0.6441 0.5653 0.7161 0.7633 0.7604
2170.100 0.6736 0.6004 0.6425 0.5241 0.48385 0.6364 0.6414 0.6356 0.7109 0.7206
2189.390 0.7452 0.5677 0.46378 0.7619 0.8651 0.6752 0.6078 0.6875 0.6411 0.6294
2208.680 0.691 0.6244 0.5663 0.6605 0.7114 0.6112 0.6106 0.6048 0.6933 0.78
2227.970 0.7071 0.7022 0.7337 0.7552 0.713 0.6647 0.6972 0.6693 0.6047 0.611
2247.259 0.7222 0.7542 0.7218 0.7111 0.6842 0.7551 0.7851 0.7841 0.7979 0.7572
2266.549 0.7542 0.795 0.8827 0.9019 0.8093 0.8422 0.8614 0.7428 0.6939 0.6835
2285.839 0.7581 0.6533 0.5224 0.7374 0.8642 0.8695 0.8648 0.917 1.0229 1.0629
2305.129 0.9972 1.0441 1.1153 1.1235 1.0566 1.0946 1.105 1.0827 1.2095 1.1532
2324.418 1.0785 1.1481 1.2327 1.2914 1.2542 1.0967 1.0203 1.0445 1.0122 0.9841
2343.708 1.108 1.0323 0.8035 0.8646 1.0451 1.1446 1.1901 1.176 1.0764 1.0954
2362.998 1.1149 1.2261 1.2035 1.0371 1.1796 1.2194 1.1565 1.0628 0.931 0.8491
2382.288 0.8426 0.78 0.7658 0.8265 0.72 0.6647 0.6067 0.5566 0.6674 0.7612
2401.578 0.6973 0.5853 0.609 0.5635 0.5222 0.6334 0.652 0.5454 0.5501 0.6155
2420.867 0.6835 0.7031 0.6392 0.606 0.5314 0.58 0.6386 0.5941 0.6942 0.6515
2440.157 0.7148 0.7704 0.5912 0.6125 0.7917 0.8677 0.7744 0.7016 0.7952 0.8489
2459.447 0.6965 0.6897 0.7092 0.5566 0.647 0.7294 0.606 0.5485 0.45865 0.6021
2478.737 0.7888 0.6614 0.7199 0.822 0.6706 0.6857 0.7974 0.6869 0.6786 0.793
2498.026 0.6578 0.6478 0.8016 0.7882 0.7159 0.8269 0.8841 0.7516 0.7743 0.7655
2517.316 0.7504 0.8483 0.923 0.7568 0.6171 0.7861 0.7742 0.7472 0.699 0.5822
2536.606 0.6762 0.7696 0.7009 0.7359 0.7397 0.6192 0.6395 0.7114 0.5346 0.3885
2555.896 0.6084 0.688 0.6423 0.6307 0.6044 0.45191 0.47183 0.7238 0.7665 0.6893
2575.186 0.6664 0.63 0.677 0.6748 0.48854 0.5541 0.7618 0.6542 0.5012 0.6815
2594.475 0.7519 0.798 0.7429 0.5702 0.7585 0.8609 0.7726 0.6349 0.7351 0.9005
2613.765 0.8029 0.7465 0.726 0.7414 0.7606 0.836 0.8967 1.0699 1.2012 1.0416
2633.055 0.8947 0.9582 1.1257 0.9634 0.8034 0.8748 0.9523 0.9704 0.8597 0.9286
2652.345 1.008 1.0033 1.1728 1.1569 1.016 0.8406 0.8599 0.7892 0.6649 0.8371
2671.634 0.9161 0.9573 1.0488 1.0612 0.8438 0.7427 0.8329 0.7186 0.587 0.7202
2690.924 0.7362 0.6364 0.7455 0.9445 0.853 0.6761 0.574 0.8632 1.1439 1.029
2710.214 0.9825 0.9028 1.0752 1.3077 1.1511 1.1073 1.0571 0.9526 1.1435 1.2807
2729.504 1.2831 1.3657 1.412 1.363 1.2803 1.2359 1.3725 1.412 1.512 1.592
2748.794 1.672 1.822 1.822 1.862 1.902 1.942 2.062 2.292 2.532 2.772
2768.083 3.102 3.282 3.512 4.102 4.602 5.082 5.672 6.362 7.122 7.862
2787.373 8.872 9.912 10.992 11.822 12.022 12.212 11.942 11.172 10.542 10.002
2806.663 9.222 8.372 7.872 7.182 6.502 6.132 5.892 5.802 5.732 5.932
2825.953 6.262 6.912 7.842 8.732 9.852 10.942 11.722 12.372 12.842 12.992
2845.242 12.692 12.002 11.422 10.662 9.702 9.002 8.652 8.422 8.102 7.972
2864.532 7.982 8.122 8.332 8.312 8.302 8.312 8.352 8.302 7.952 7.712
2883.822 7.392 7.122 6.912 6.792 6.622 6.402 6.532 6.482 6.322 6.322
2903.112 6.412 6.422 6.332 6.202 6.232 6.072 5.912 5.842 5.772 5.852
2922.401 5.962 6.062 6.272 6.602 7.092 7.752 8.172 8.742 9.552 10.552
2941.691 11.822 12.982 14.082 14.822 14.992 14.962 14.522 13.642 12.462 10.932
2960.981 9.472 8.222 7.222 6.302 5.422 4.702 4.352 4.442 4.712 5.082
2980.271 5.532 5.892 6.282 6.802 7.312 7.442 7.242 6.912 6.532 6.112
2999.561 5.652 5.352 4.882 4.422 4.072 3.832 3.812 3.572 3.252 3.112
3018.850 3.082 3.072 2.812 2.712 2.712 2.572 2.672 2.702 2.672 2.892
3038.140 3.092 3.322 3.662 3.872 4.132 4.392 4.752 5.282 5.652 5.702
3057.430 5.582 5.392 5.122 5.172 5.322 5.302 5.172 4.992 4.922 5.012
3076.720 5.342 5.902 6.122 6.142 6.252 6.312 6.172 5.842 5.362 4.812
3096.009 4.522 4.392 4.182 3.622 3.252 3.022 2.692 2.282 1.952 1.852
3115.299 1.692 1.2495 1.2425 1.522 1.402 1.1789 1.2811 1.1391 0.8103 0.9612
3134.589 0.8005 0.6056 0.8552 0.7816 0.6542 0.7408 0.8436 0.9416 0.8988 0.8611
3153.879 0.7383 0.777 0.9928 1.1546 1.0483 0.8075 0.7422 0.8106 0.8218 0.8331
3173.169 0.8904 0.7662 0.7604 0.9219 0.753 0.511 0.7946 0.8256 0.7475 0.7055
3192.458 0.5714 0.7645 0.792 0.8747 0.9896 0.8987 0.9185 0.9686 0.8437 0.8128
3211.748 0.8325 0.7334 0.654 0.5556 0.6185 0.6695 0.6068 0.633 0.5362 0.301
3231.038 0.22 0.43649 0.5967 0.5132 0.6225 0.569 0.5348 0.5877 0.3667 0.5047
3250.328 0.5833 0.41773 0.45032 0.7113 0.7937 0.5758 0.5529 0.7063 0.7209 0.6617
3269.617 0.6001 0.4492 0.207 0.258 0.5581 0.3776 0.4522 0.6505 0.4988 0.255
3288.907 0.04 0.195 0.343 0.5464 0.5749 0.393048 0.43708 0.49087 0.4354 0.46864
3308.197 0.45752 0.6111 0.8778 0.6448 0.3606 0.3662 0.399269 0.239 0.268 0.7402
3327.487 0.9752 0.6728 0.47477 0.44313 0.6331 0.682 0.289 0.245 0.3745 0.263
3346.777 0.185 0.3698 0.5236 0.5731 0.5672 0.4253 0.46203 0.5446 0.4959 0.3416
3366.066 0.43184 0.5571 0.6095 0.641 0.5935 0.4493 0.191 0.185 0.5829 0.6864
3385.356 0.47796 0.6929 0.5299 0.47961 0.7147 0.6398 0.7429 0.6147 0.6542 0.8959
3404.646 0.6353 0.5084 0.46294 0.3588 0.6043 0.5498 0.41261 0.7218 0.8693 0.9178
3423.936 0.814 0.604 0.7477 1.0342 0.927 0.7074 0.6851 0.6504 0.6604 0.5258
3443.225 0.577 0.7347 0.6447 0.6564 0.6796 0.8223 0.5754 0.268 0.5076 0.7114
3462.515 0.814 0.9461 0.8882 0.9863 1.1391 1.0585 1.2529 1.1901 1.0262 1.0315
3481.805 0.8077 0.8571 0.7822 0.8935 1.0541 0.5613 0.5109 0.6044 0.6533 0.8118
3501.095 0.5407 0.4576 0.7342 0.7096 0.74 0.8187 0.6093 0.5816 0.7713 0.8779
3520.385 0.9338 0.9941 0.9785 0.7194 0.46922 0.7221 0.7581 0.6877 0.7752 0.5529
3539.674 0.631 0.8474 0.8157 0.8776 1.1306 1.354 1.522 1.922 2.462 3.482
3558.964 5.282 7.482 9.502 11.092 12.462 13.832 15.402 16.732 18.172 20.032
3578.254 21.472 22.212 22.052 20.842 18.122 14.362 10.722 7.402 4.622 3.092
3597.544 2.452 1.762 1.3824 1.3525 1.3882 1.173 0.8971 1.083 1.1326 0.8705
3616.833 0.8688 0.7924 0.8011 0.7674 0.7718 0.9246 0.44778 0.43644 0.9842 1.2462
3636.123 1.0815 0.7978 0.896 1.1501 1.2313 0.9294 0.7305 0.9103 0.8952 0.6936
3655.413 0.5938 0.7253 0.7335 0.7182 0.8978 0.8708 0.9364 0.6257 0.5999 0.8884
3674.703 0.6543 0.69 0.7592 0.5954 0.48077 0.5332 0.39873 0.41285 0.85 0.8217
3693.993 0.6883 0.5801 0.49052 0.5594 0.635 0.5421 0.5014 0.8657 1.0826 0.8115
3713.282 0.6787 0.7927 0.5845 0.41159 0.5713 0.49181 0.393657 0.6411 0.6428 0.46518
3732.572 0.38562 0 0.164 0.77 0.608 0.46891 0.46714 0.3095 0.258 0.46045
3751.862 0.6888 0.4972 0.637 0.7334 0.47675 0.5724 0.7796 0.7233 0.5849 0.81
3771.152 0.7914 0.8211 0.9149 0.4316 0.3408 0.8729 0.9685 0.6552 0.5385 0.6053
3790.441 0.6964 0.48553 0.41817 0.5887 0.5037 0.42887 0.287 0.3015 0.596 0.5443
3809.731 0.6164 0.7372 0.7114 0.5107 0.45118 0.655 0.629 0.7203 0.9222 0.846
3829.021 0.6771 0.6244 0.5986 0.7586 0.7566 0.8339 0.7412 0.5759 0.6268 0.5142
3848.311 0.205 0.171 0.5551 0.5018 0.287 0.509 0.7165 0.5706 0.48734 0.42301
3867.601 0.251 0.28 0.242 0.3465 0.7527 0.8556 0.6495 0.3429 0.5396 0.5872
3886.890 0.3092 0.40841 0.46356 0.5239 0.5297 0.38733 0.302 0.46141 0.6592 0.7009
3906.180 0.8338 0.8288 0.7659 0.7222 0.6971 0.6927 0.5607 0.6151 0.5459 0.5606
3925.470 0.5686 0.6117 0.7084 0.5004 0.43231 0.7942 0.7287 0.3604 0.38442 0.36
3944.760 0.5197 0.5976 0.3509 0.3586 0.3355 0.394308 0.7017 0.5352 0.614 0.8108
3964.049 0.40443 0.3617 0.5551 0.48681 0.7984 1.1585 0.8646 0.6438 0.5865 0.48362
3983.339 0.8731 0.9031 0.7732 0.5886 0.6368 0.9106 0.8151 0.7543 0.6284 0.5679
##END=
