##TITLE=2-Acetylfluorene
##JCAMP-DX=4.24
##DATA TYPE=INFRARED SPECTRUM
##ORIGIN=NIST Mass Spectrometry Data Center
##OWNER=NIST Standard Reference Data Program
Collection (C) 2018 copyright by the U.S. Secretary of Commerce
on behalf of the United States of America. All rights reserved.
##CAS REGISTRY NO=781-73-7
##MOLFORM=C 15 H 12 O
##$NIST SOURCE=MSDC-IR
##SPECTROMETER/DATA SYSTEM=HP-GC/MS/IRD
##STATE=gas
##XUNITS=1/CM
##YUNITS=ABSORBANCE
##XFACTOR=1.0
##YFACTOR=0.000002400
##DELTAX=4.0
##FIRSTX=550.0
##LASTX=3846.0
##FIRSTY=0.000218
##MAXX=3846
##MINX=550
##MAXY=0.024
##MINY=0
##NPOINTS=825
##XYDATA=(X++(Y..Y))
550.0 91 97 3 0 21 62 119 175 253 379
590.0 604 882 1035 931 696 489 432 411 334 292
630.0 253 271 347 370 316 229 193 175 152 148
670.0 162 272 537 753 739 513 291 174 141 188
710.0 295 523 955 1615 2347 3009 2953 2275 1612 1021
750.0 731 759 975 1278 1529 1430 1089 743 418 214
790.0 127 110 116 125 185 291 443 627 800 847
830.0 803 757 656 506 353 266 217 193 210 256
870.0 317 347 307 262 264 246 214 193 148 123
910.0 130 142 164 181 199 245 314 429 623 850
950.0 1028 1088 1048 977 884 745 580 430 345 320
990.0 330 407 530 593 556 442 329 295 277 233
1030.0 197 168 147 154 144 118 142 174 169 168
1070.0 176 186 184 190 239 300 368 396 355 321
1110.0 303 300 356 405 419 406 428 492 768 1289
1150.0 1611 1531 1135 820 669 587 667 800 927 1077
1190.0 1214 1221 1063 883 907 1255 1855 2474 2859 2872
1230.0 2597 2161 1863 1923 2365 3474 5596 8328 10000 9076
1270.0 6084 3353 2270 2251 2486 2512 2145 1588 1118 805
1310.0 615 511 475 502 544 594 645 706 828 1078
1350.0 1553 2225 2759 2782 2247 1558 1051 760 630 598
1390.0 640 728 850 1023 1262 1564 1874 2040 1958 1673
1430.0 1305 988 771 654 620 653 704 791 899 961
1470.0 914 707 468 329 263 239 230 214 202 192
1510.0 178 157 144 146 155 174 195 231 290 352
1550.0 431 525 622 725 824 908 944 927 882 819
1590.0 786 832 1036 1441 1926 2183 2002 1512 1058 777
1630.0 589 473 426 418 448 497 565 651 694 718
1670.0 774 920 1266 1871 2993 4897 7482 9523 9596 7560
1710.0 4722 2644 1484 909 670 581 569 594 604 565
1750.0 493 404 319 257 220 188 166 169 180 185
1790.0 194 197 194 186 171 172 177 174 172 171
1830.0 158 139 121 111 103 104 109 106 107 114
1870.0 116 109 112 119 129 141 152 151 143 124
1910.0 105 97 94 98 105 123 155 194 211 182
1950.0 128 80 54 45 46 44 38 34 23 14
1990.0 19 20 21 21 16 24 24 25 31 32
2030.0 35 36 28 26 26 17 8 5 5 11
2070.0 11 11 9 9 12 6 3 13 13 8
2110.0 13 14 16 15 5 4 7 4 7 11
2150.0 13 8 3 7 11 9 6 8 9 9
2190.0 13 10 5 6 11 18 19 18 20 24
2230.0 25 23 15 11 21 23 28 33 31 23
2270.0 25 32 33 34 24 4 5 21 31 33
2310.0 30 32 34 26 24 20 13 21 18 18
2350.0 25 16 3 3 10 12 12 14 21 25
2390.0 14 9 13 18 20 25 27 29 25 21
2430.0 21 21 22 17 22 20 15 12 11 19
2470.0 35 43 39 39 38 37 43 33 22 27
2510.0 30 33 43 48 44 35 29 27 40 48
2550.0 47 40 30 34 40 50 54 41 39 47
2590.0 57 55 47 42 38 51 55 49 52 63
2630.0 68 57 55 52 48 43 28 23 32 35
2670.0 28 34 48 45 46 54 44 36 38 42
2710.0 42 37 32 30 35 30 17 22 25 17
2750.0 25 29 26 38 47 48 56 63 65 75
2790.0 78 93 105 120 140 145 133 118 98 87
2830.0 92 97 91 83 77 82 101 106 105 109
2870.0 119 131 128 132 160 193 241 328 467 597
2910.0 692 767 779 729 676 582 465 362 275 221
2950.0 187 180 190 204 223 246 277 276 260 253
2990.0 264 293 360 462 589 757 901 1006 1038 1027
3030.0 1014 1007 1004 1000 1015 1062 1162 1341 1565 1814
3070.0 2037 2079 1856 1483 1132 874 697 538 390 298
3110.0 242 193 158 143 133 123 105 82 73 94
3150.0 98 87 116 130 111 92 77 67 55 56
3190.0 49 41 59 59 33 31 47 54 35 14
3230.0 31 34 18 15 14 12 8 19 20 12
3270.0 9 0 1 23 31 21 31 39 53 57
3310.0 24 9 20 24 21 21 33 49 48 31
3350.0 39 54 38 44 73 112 153 166 171 148
3390.0 112 99 79 62 57 52 45 49 53 30
3430.0 27 34 13 0 28 43 31 23 23 10
3470.0 2 23 42 41 23 20 20 15 16 13
3510.0 5 4 19 32 30 14 0 18 30 31
3550.0 25 6 6 23 26 22 27 24 37 62
3590.0 42 18 24 22 17 18 11 22 14 5
3630.0 15 1 19 36 35 40 41 28 16 10
3670.0 20 14 21 48 44 19 15 11 3 11
3710.0 20 15 9 23 28 16 18 27 11 13
3750.0 28 26 17 9 17 37 41 40 26 17
3790.0 35 42 27 11 28 37 18 17 18 30
3830.0 44 32 26 31 34
##END=
