##TITLE=9,10-Dimethylanthracene
##JCAMP-DX=4.24
##DATA TYPE=INFRARED SPECTRUM
##ORIGIN=NIST Mass Spectrometry Data Center
##OWNER=NIST Standard Reference Data Program
Collection (C) 2018 copyright by the U.S. Secretary of Commerce
on behalf of the United States of America. All rights reserved.
##CAS REGISTRY NO=781-43-1
##MOLFORM=C 16 H 14
##$NIST SOURCE=MSDC-IR
##SPECTROMETER/DATA SYSTEM=HP-GC/MS/IRD
##STATE=gas
##XUNITS=1/CM
##YUNITS=ABSORBANCE
##XFACTOR=1.0
##YFACTOR=0.000002000
##DELTAX=4.0
##FIRSTX=550.0
##LASTX=3846.0
##FIRSTY=0.000448
##MAXX=3846
##MINX=550
##MAXY=0.02
##MINY=0
##NPOINTS=825
##XYDATA=(X++(Y..Y))
550.0 224 74 18 119 284 596 1026 1503 1495 1148
590.0 889 766 693 587 448 259 117 27 0 9
630.0 41 62 70 66 56 56 37 12 13 38
670.0 76 70 57 78 59 78 126 101 104 158
710.0 191 241 388 668 1302 2722 4809 7446 10000 8652
750.0 5488 3437 1818 1099 865 621 375 234 171 144
790.0 142 139 155 184 219 250 225 173 134 132
830.0 125 132 129 106 104 111 126 161 203 216
870.0 195 141 101 90 67 58 57 45 32 17
910.0 5 14 28 24 32 26 16 25 43 53
950.0 62 82 121 157 200 259 335 455 605 711
990.0 697 579 443 341 283 276 334 451 526 514
1030.0 428 287 187 151 136 131 130 122 108 82
1070.0 65 65 63 59 49 39 36 20 6 14
1110.0 14 4 7 10 11 15 14 14 16 14
1150.0 18 29 34 38 49 41 43 54 61 53
1190.0 37 22 7 4 6 12 10 13 23 20
1230.0 21 32 36 25 19 25 29 33 40 44
1270.0 59 80 86 77 66 57 59 70 77 73
1310.0 67 65 72 83 103 136 165 209 335 518
1350.0 732 1002 1246 1397 1481 1421 1321 1342 1420 1499
1390.0 1543 1433 1172 901 721 642 584 531 537 561
1430.0 578 586 617 622 526 411 285 227 259 271
1470.0 260 266 340 399 391 364 338 312 311 266
1510.0 274 357 425 522 615 620 528 367 244 210
1550.0 188 150 104 133 177 209 226 226 237 218
1590.0 187 176 176 183 212 258 294 315 309 269
1630.0 210 136 99 79 51 18 8 45 62 86
1670.0 136 222 350 464 530 511 375 213 146 142
1710.0 122 65 34 64 90 89 93 120 107 58
1750.0 12 12 24 36 52 85 151 206 231 238
1790.0 250 296 349 356 322 235 140 80 40 15
1830.0 9 11 12 4 7 25 35 37 40 34
1870.0 26 47 84 138 188 210 214 205 200 203
1910.0 210 206 204 250 334 382 342 233 116 63
1950.0 48 33 26 23 14 15 17 14 17 16
1990.0 10 15 14 8 7 8 8 8 12 12
2030.0 13 14 11 12 17 20 18 15 8 6
2070.0 11 10 15 10 2 5 5 13 20 16
2110.0 11 6 9 10 10 16 20 21 22 16
2150.0 13 14 9 8 11 5 1 5 10 10
2190.0 8 12 18 21 17 10 9 11 14 12
2230.0 3 2 7 12 12 13 11 8 6 13
2270.0 15 15 22 14 14 21 18 22 21 17
2310.0 20 19 17 18 20 33 54 59 52 44
2350.0 34 33 27 19 24 36 46 47 52 58
2390.0 47 37 40 54 58 55 55 43 39 46
2430.0 46 45 50 48 43 45 42 40 39 37
2470.0 40 37 41 42 44 56 61 61 57 50
2510.0 48 46 49 51 45 43 40 45 51 49
2550.0 48 50 42 42 46 53 51 48 49 48
2590.0 50 46 52 53 51 54 48 48 52 61
2630.0 66 59 57 63 65 62 62 62 61 63
2670.0 65 66 65 71 68 65 75 79 79 74
2710.0 75 88 96 89 94 109 122 132 142 147
2750.0 143 137 136 133 133 132 124 116 103 105
2790.0 108 112 126 137 147 150 164 180 190 210
2830.0 239 257 275 306 353 407 475 559 655 766
2870.0 894 1022 1151 1230 1254 1254 1239 1217 1183 1181
2910.0 1212 1265 1357 1484 1622 1767 1902 2002 2037 1975
2950.0 1833 1666 1497 1332 1178 1066 992 937 914 918
2990.0 918 924 939 953 999 1070 1131 1182 1214 1244
3030.0 1297 1409 1574 1788 2013 2217 2359 2445 2513 2621
3070.0 2809 3101 3534 4061 4423 4331 3693 2758 1902 1294
3110.0 929 715 570 463 383 326 292 263 228 203
3150.0 191 184 185 185 169 160 160 159 165 168
3190.0 147 134 135 121 120 136 136 130 133 133
3230.0 137 144 142 135 113 100 91 87 83 76
3270.0 82 83 73 70 75 72 62 63 66 65
3310.0 74 91 93 83 80 79 68 68 58 52
3350.0 62 71 73 69 63 56 68 76 72 62
3390.0 65 67 63 81 88 71 74 79 56 54
3430.0 72 69 55 73 84 69 69 67 69 67
3470.0 65 82 75 60 71 66 62 62 63 69
3510.0 63 67 69 57 50 55 63 68 44 28
3550.0 49 62 63 48 12 31 67 69 52 11
3590.0 12 41 48 46 27 20 33 32 56 37
3630.0 5 47 71 72 40 31 57 61 63 52
3670.0 33 36 62 84 54 38 62 72 76 84
3710.0 57 43 50 19 11 19 2 21 16 6
3750.0 26 40 62 71 67 60 67 83 92 95
3790.0 93 84 70 68 80 91 86 73 81 90
3830.0 96 97 70 75 87
##END=
