##TITLE=2-(4-Fluorophenyl)indole
##JCAMP-DX=4.24
##DATA TYPE=INFRARED SPECTRUM
##ORIGIN=EPA-IR VAPOR PHASE LIBRARY
##OWNER=SRD/NIST
Collection (C) 2018 copyright by the U.S. Secretary of Commerce
on behalf of the United States of America. All rights reserved.
##CAS REGISTRY NO=782-17-2
##MOLFORM=C 14 H 10 F N
##$NIST SOURCE=MSDC-IR
##STATE=gas
##XUNITS=1/CM
##YUNITS=ABSORBANCE
##XFACTOR=1.
##YFACTOR=0.001
##DELTAX=1.92898
##FIRSTX=549.8
##LASTX=4000.7
##FIRSTY=6
##MAXX=4000.7
##MINX=549.759
##MAXY=0.08307
##MINY=0
##NPOINTS=1790
##XYDATA=(X++(Y..Y))
549.759 6 6.23 4.95 4.28 4.24 4.28 4.38 4.26 3.7028 3.058
569.049 3.5472 3.8305 4.1544 3.4319 3.1133 3.5038 3.027 3.055 2.992 3.4808
588.339 4.1945 3.8924 3.8133 4.22 3.7379 3.28965 3.21421 3.21489 3.6783 4.42
607.628 4.97 4.99 4.97 4.75 4.82 5.5 6.91 7.99 7.57 7.96
626.918 7.45 5.6 4.7 4.5 4.84 4.43 3.6606 3.19632 3.9592 4.74
646.208 4.34 4.28 4.93 5.62 5.46 5.24 5.4 5.62 5.84 5.91
665.498 5.77 5.71 6.1 5.78 5.15 5.33 5.05 4.49 4.69 4.96
684.787 4.88 5.05 4.91 4.94 5.1 4.62 4.6 5.02 4.92 4.96
704.077 4.87 4.62 5.04 5.34 6.01 6.83 7.6 9 10.41 11.82
723.367 14.14 16.27 17.66 20.09 22.88 22.85 21.29 21.35 21.16 20.57
742.657 19.24 17.61 16.16 14.44 13.66 12.65 11.74 10.74 10.04 9.79
761.947 9.14 9.19 9.08 8.72 9.47 10.87 12.62 15.03 17.7 20.75
781.236 23.73 26.6 29.06 30.91 32.42 31.43 28.44 25.46 23.43 21.8
800.526 20.17 19.13 18.48 17.69 17.18 16.78 16.31 16.33 16.54 17.33
819.816 18.58 19.49 21.95 25.09 27.21 28.99 30.45 31.81 31.94 29.65
839.106 26.53 24.24 22.02 19.52 16.77 14.97 13.45 11.87 10.79 10
858.395 9 8.29 8.25 7.71 7.62 7.58 7.16 7.13 6.88 6.55
877.685 6.41 6.67 7.21 7.56 7.32 7.05 6.98 6.39 6.21 6.45
896.975 6.23 5.9 5.76 5.63 5.85 6.19 6.36 6.02 5.6 5.38
916.265 5.14 5.08 5.01 4.86 5.05 5.12 5.24 5 4.52 4.66
935.555 4.7 4.66 4.73 4.67 4.46 4.62 4.94 4.93 4.6 4.59
954.844 4.56 4.64 4.33 3.8973 4.53 4.88 4.47 4.43 4.36 4.41
974.134 4.57 4.46 4.74 5.24 5.1 5.05 5.66 5.46 5.03 4.96
993.424 4.68 4.57 4.62 4.51 4.72 5.37 6.09 7.73 9.12 8.79
1012.714 8.55 8.64 8.25 7.15 6.31 6.64 6.61 5.56 4.62 4.94
1032.003 4.99 3.9806 4.1554 5.28 5.49 5.44 5.66 5.43 6 6.4
1051.293 5.48 5.38 5.13 4.98 5.34 5.78 5.46 4.8 4.94 4.92
1070.583 4.8 5.51 6.62 5.8 5.77 5.59 5.61 6.93 6.33 5.64
1089.873 5.39 5.27 5.92 7.4 7.05 5.66 5.21 3.4491 1.9 1.82
1109.163 2.254 3.7506 3.9573 4.29 5.58 5.5 4.57 3.002 1.69 2.204
1128.452 2.521 1.69 1.51 1.39 1.84 3.1221 4.7 5.85 5.8 6.14
1147.742 8.41 11.04 13.69 18.12 21.67 22.62 22.41 20.75 16.9 11.14
1167.032 6.43 4.74 4.0875 3.20052 2.787 3.093 3.8718 3.6581 2.579 2.37
1186.322 1.62 0 0 1.28 1.48 1.65 2.18 1.62 1.08 1.43
1205.611 2.997 3.7276 3.21311 2.942 4.78 6.7 7.28 9.62 11.38 12.92
1224.901 16 20.6 28.65 39.32 52.44 67.46 79.09 83.07 80.98 72.76
1244.191 57.68 42.16 30.59 23.17 18.01 13.31 10.35 8.79 7.81 7.11
1263.481 6.63 6.44 6.09 6.01 6.48 7.27 8.04 9.8 12.95 16.04
1282.771 19.38 23.38 26.89 29.45 30.43 29.41 26.83 23.31 19.16 15.12
1302.060 12.12 10.26 8.89 8 7.44 6.71 6.31 6.28 6.05 5.87
1321.350 6.08 6.19 6.37 6.73 7.41 8.47 9.72 11.18 12.56 13.73
1340.640 14.57 14.85 14.43 13.46 12.42 11.65 11.23 10.76 10.5 10.39
1359.930 10.02 9.57 8.85 8.13 7.23 6.27 5.91 5.83 5.81 5.86
1379.219 6.03 6.33 6.71 7.28 8.11 8.86 9.29 9.78 10.09 10.01
1398.509 9.65 9.33 9.26 9.34 9.59 9.84 10.25 10.99 12.12 13.5
1417.799 14.56 15.36 15.8 15.35 14.18 12.95 11.52 10.09 9.2 8.77
1437.089 8.89 9.16 9.9 11.62 14.15 18.04 22.57 26.29 28.6 28.92
1456.378 27.45 24.01 19.51 15.52 12.94 11.3 10.41 9.73 9.56 10.24
1475.668 11.54 14.01 17.66 22.22 27.33 32.49 37.08 40.79 43.98 47.16
1494.958 51.42 56.83 61.38 63.54 62.28 57.27 48.61 38.59 29.23 21.58
1514.248 16.55 13.41 11.49 10.32 9.44 8.96 8.76 8.59 8.37 8.14
1533.538 8.34 8.87 9.39 9.99 10.56 11.24 12.32 13.55 15.08 16.7
1552.827 17.97 18.9 19 18.25 16.36 14.13 11.91 10.09 9.23 8.78
1572.117 8.34 8.26 8.28 8.21 8.16 8.14 8.27 8.2 8.1 8.05
1591.407 7.86 7.72 7.68 7.88 8.06 7.98 8.31 8.76 8.91 8.9
1610.697 9 8.83 8.26 7.78 7.5 6.96 6.15 5.53 5.19 4.98
1629.986 4.84 5.11 5.39 5.28 5.24 5.39 5.34 5.52 5.74 5.65
1649.276 5.74 5.71 5.57 5.39 4.85 4.51 4.43 4.1973 4.1583 4.0763
1668.566 3.931 4.0617 4.1434 4.0591 3.7549 3.6479 3.7161 3.5412 3.526 3.5758
1687.856 3.6798 3.7683 3.549 3.5648 3.6127 3.5843 3.8161 3.788 3.6007 3.745
1707.146 3.8295 3.7215 3.7206 3.5427 3.4383 3.6255 3.6617 3.5398 3.5345 3.5044
1726.435 3.5258 3.5061 3.3451 3.5083 3.5891 3.4753 3.5978 3.7164 3.7895 4.0923
1745.725 4.35 4.4 4.6 4.91 4.98 4.8 4.67 4.57 4.41 4.33
1765.015 4.1448 4.0155 4.1118 3.9752 3.6299 3.6108 3.5928 3.3929 3.4536 3.5077
1784.305 3.5646 3.7443 3.8394 3.9485 4.1078 4.1188 4.0169 4.0381 3.7788 3.3577
1803.594 3.3074 3.24131 3.3236 3.342 3.22921 3.3249 3.4461 3.4697 3.37 3.27397
1822.884 3.28816 3.317 3.3578 3.5071 3.6882 3.965 4.1714 4.1721 4.1242 4.31
1842.174 4.44 4.37 4.38 4.25 4.0374 3.9727 4.1564 4.34 4.35 4.25
1861.464 4.1687 4.4 4.61 4.76 4.97 5.06 5.16 5.36 5.41 5.35
1880.754 5.27 5.17 5.11 5.03 4.77 4.47 4.1758 4.22 4.21 4.0904
1900.043 4.1706 4.1277 4.39 4.75 4.94 5.24 5.44 5.43 5.2 4.86
1919.333 4.52 3.9507 3.6178 3.6256 3.6955 3.6373 3.6107 3.7533 3.7656 3.6028
1938.623 3.5928 3.7509 3.8038 3.6645 3.4974 3.4439 3.5301 3.5654 3.6103 3.8271
1957.913 3.8121 3.8419 3.8814 3.5838 3.4535 3.5351 3.5991 3.5697 3.6196 3.7451
1977.202 3.9316 4.0287 3.74 3.7691 3.9032 3.8007 3.7461 3.7336 3.6697 3.5798
1996.492 3.7029 3.7644 3.9085 3.9203 3.6853 3.6892 3.8309 3.8062 3.78 3.8012
2015.782 3.819 3.9481 3.9341 4.0048 4.1678 4.0602 3.961 4.055 3.8709 3.8232
2035.072 3.9346 3.7837 3.9035 4.0294 3.9895 4.0584 4.0903 3.9702 3.9412 4.1476
2054.362 4.21 4.1285 3.9944 3.8833 3.9941 4.0022 3.8909 3.9569 4.1585 4.27
2073.651 4.1171 3.8379 3.6106 3.6488 3.7736 3.7392 3.7004 3.6848 3.5946 3.6374
2092.941 3.6838 3.6552 3.7655 3.7497 3.655 3.7268 3.7916 3.6558 3.5339 3.4072
2112.231 3.5903 3.872 3.8354 3.7108 3.5826 3.7807 3.9181 3.9707 4.1164 4.0554
2131.521 3.954 3.8021 3.8174 3.8538 3.7693 3.8962 4.0787 3.9712 3.8041 4.0103
2150.810 4.0791 4.0758 4.082 3.9782 3.947 3.9148 3.8528 3.6546 3.5815 3.7485
2170.100 3.8757 3.8447 3.7714 3.6917 3.8294 3.7083 3.5826 3.7438 3.7474 3.7061
2189.390 3.8236 3.8899 3.677 3.5553 3.5764 3.699 3.8287 3.8318 3.9171 3.8523
2208.680 3.7862 3.9692 3.9222 3.7346 3.7589 3.7682 3.6689 3.6746 3.875 3.906
2227.970 3.7223 3.6519 3.7443 3.9621 3.9552 3.9522 3.9854 3.8269 3.6468 3.7892
2247.259 4.1028 4.33 4.1797 3.9647 4.0154 4.0364 4.029 4.0905 4.0058 3.7698
2266.549 3.6971 3.896 3.9862 3.6821 3.7892 3.954 3.9534 4.0277 3.7801 3.677
2285.839 3.7989 3.7419 3.4713 3.3568 3.4959 3.7882 3.9799 3.787 3.6979 3.8539
2305.129 3.8976 3.9395 4.0522 4.0186 4.0172 4.047 4.1453 4.0498 3.9861 4.169
2324.418 4.0538 3.7581 3.8607 3.9446 3.8905 4.0822 4.0501 3.9803 4.0425 3.9491
2343.708 4.0191 4.25 4.0007 3.8933 4.1672 4.1474 4.0384 3.9904 3.9083 3.9676
2362.998 4.0983 4.27 4.22 4.21 4.27 4.1557 4.25 4.1609 4.0568 4.1444
2382.288 4.1802 4.21 4.21 4.3 4.35 4.29 4.27 4.1171 3.9199 4.0693
2401.578 4.24 4.39 4.38 4.111 4.158 4.1957 4.194 4.27 4.1825 4.22
2420.867 4.1615 4.21 4.35 4.31 4.1476 4.01 4.143 4.1506 4.1989 4.1274
2440.157 3.9734 4.28 4.26 4.24 4.47 4.31 4.1083 4.1734 4.31 4.27
2459.447 4.46 4.35 4.2 4.41 4.72 4.58 4.39 4.35 4.1932 4.1099
2478.737 4.0401 3.8872 3.8548 3.9821 3.8479 3.8123 4.1085 4.31 4.1314 3.9985
2498.026 4.0681 4.1159 4.25 4.26 4.27 4.56 4.61 4.55 4.62 4.58
2517.316 4.32 4.1841 3.9694 3.8976 4.3 4.38 4.1208 4.0308 4.0548 4.22
2536.606 4.21 4.0698 3.9157 3.8212 4.0452 4.2 4.0698 4.0622 4.3 4.34
2555.896 4.28 4.1351 4.1926 4.29 3.9518 3.9813 4.29 4.39 4.39 4.26
2575.186 4.24 4.39 4.48 4.25 3.9975 4.1287 4.119 4.0064 4.24 4.67
2594.475 4.77 4.57 4.36 4.1689 4.3 4.4 4.34 4.0078 4.1304 4.36
2613.765 4.32 4.2 3.9173 3.9201 4.1067 4.33 4.1832 4.23 4.1634 3.8604
2633.055 4.0885 4.46 4.56 4.48 4.32 4.37 4.34 4.1505 4.0485 3.9995
2652.345 4.33 4.33 3.9748 4.0608 4.4 4.38 4.31 4.23 4.1049 4.23
2671.634 4.1265 4.27 4.37 4.43 4.25 4.0962 4.27 4.36 4.7 4.57
2690.924 4.48 4.49 4.1816 4.22 4.121 4.0482 4.24 4.54 4.36 3.8086
2710.214 3.6769 3.6678 3.7531 4.0174 4.0382 3.8149 4.0191 4.178 4.1955 4.137
2729.504 4.197 4.185 4.0642 4.44 4.33 3.8998 4.0226 4.1171 3.9826 3.8262
2748.794 3.8909 4.21 3.716 3.3945 4.0833 4.0434 3.8891 4.44 4.28 3.7031
2768.083 3.796 4.1516 4.1841 4.0556 4.36 4.67 4.66 4.45 4.32 4.29
2787.373 4.24 4.49 4.29 4.0482 4.4 4.66 4.36 4.1096 4.31 4.1012
2806.663 4.0339 4.1085 4.0661 4.107 4.0447 4.1806 4.1719 3.8804 3.9947 3.8885
2825.953 3.4449 3.6185 3.9452 3.9965 3.9369 4.176 4.49 4.44 4.34 4.43
2845.242 4.51 4.49 4.47 4.28 4.25 4.36 4.47 4.43 4.24 4.1445
2864.532 4.0175 4.1763 4.1732 4.1687 4.44 4.36 4.32 4.71 4.77 4.6
2883.822 4.76 4.68 4.38 4.21 3.9682 3.904 4.1117 4.1427 4.4 4.61
2903.112 4.33 4.44 4.75 4.8 4.57 4.45 4.56 4.2 3.9649 4.23
2922.401 4.54 4.72 4.58 4.39 4.0902 4.0978 4.0709 4.1063 4.34 4.35
2941.691 4.0218 3.9945 4.45 4.68 4.72 4.64 4.68 4.53 4.72 4.95
2960.981 4.6 4.49 4.54 4.5 4.6 4.61 4.42 4.1329 4.22 4.38
2980.271 4.46 4.77 4.58 4.47 4.69 4.073 3.6318 3.9917 4.4 4.69
2999.561 4.42 4.47 5.09 5.34 5.5 5.79 5.91 6.23 6.45 6.64
3018.850 7.07 7.03 7.38 7.84 8.12 8.38 8.92 9.71 10.19 10.78
3038.140 11 11.33 12.22 12.89 12.94 13.1 13.36 13.62 14.21 14.82
3057.430 15.36 16.81 19.15 21.05 22.84 23.9 23.2 21.86 19.53 17.63
3076.720 16.41 14.81 14.25 13.93 12.61 11.09 10.21 9.56 8.59 7.96
3096.009 7.54 7.22 7.67 7.67 6.96 6.51 6.59 6.62 6.54 6.09
3115.299 6.03 6.09 5.76 6.18 6.39 5.78 5.45 5.46 5.44 5.15
3134.589 4.6 4.48 4.56 4.38 4.1705 4.26 4.1627 4.35 4.39 4.1571
3153.879 4.1727 4.0204 4.148 4.47 4.1912 3.733 3.9995 4.0458 4.0905 4.33
3173.169 3.9329 3.9314 4.1355 3.8367 3.7238 3.9114 4.0755 4.1381 4.23 3.9361
3192.458 3.5415 3.4646 3.5779 4.1308 4.0362 4.23 5.03 4.65 4.0525 3.6615
3211.748 3.5134 3.5008 3.7057 4.26 4.27 3.7646 3.4921 3.7884 3.785 3.8049
3231.038 3.8457 3.7067 3.7257 3.4981 3.6857 3.6508 3.155 3.3057 3.7212 3.8004
3250.328 3.5298 3.3029 3.24216 2.931 3.1569 3.8295 3.9451 3.3812 3.4137 3.6363
3269.617 3.6889 3.8449 3.6158 3.6255 3.7321 3.4903 3.1128 3.1877 3.4875 3.5321
3288.907 3.5641 3.519 3.3943 3.493 3.4224 3.1546 3.27187 3.3681 3.4897 3.8616
3308.197 3.9318 3.6044 3.4967 3.7054 3.5872 3.4604 3.5608 3.8741 3.7318 3.4008
3327.487 3.4426 3.20827 3.1678 3.1669 3.488 4.1528 3.6971 3.22816 3.6219 3.9449
3346.777 3.8092 3.4542 3.3559 3.6323 3.6433 3.4185 3.5783 3.843 3.4103 3.077
3366.066 2.999 3.1621 3.5943 3.5574 3.6981 3.9672 3.7659 3.7323 4.0181 3.7236
3385.356 3.3743 3.4136 3.5041 3.7392 3.7772 3.5512 3.6783 4.0345 4.0563 3.6639
3404.646 3.5928 3.7639 3.8722 3.865 3.4948 3.3684 3.4898 3.5623 3.6553 3.8672
3423.936 4.1956 3.9882 3.595 3.8139 4.41 4.39 4.0388 3.9126 3.7736 3.9629
3443.225 3.8024 3.6775 3.9782 3.9546 4.46 4.87 4.49 4.1719 4.1048 4.58
3462.515 4.59 4.77 5.52 5.81 5.95 6.65 6.92 6.98 7.65 8.02
3481.805 8.39 9.19 10.34 10.87 11.72 13.02 13.92 14.55 14.91 14.98
3501.095 14.66 14.52 14.15 13.14 11.36 9.68 8.69 7.94 7.22 5.85
3520.385 5.24 5.44 5.28 4.91 4.33 4.1001 3.8535 3.6504 3.9776 4.0195
3539.674 3.6689 3.8446 3.7483 3.698 3.8353 3.3248 3.23436 3.3041 3.3917 3.5554
3558.964 3.4968 3.5563 3.24912 3.074 3.1788 3.3063 3.034 3.1429 3.8814 3.6868
3578.254 3.4564 3.4735 3.4499 3.3587 3.3263 3.28192 3.26863 3.4458 3.344 3.3619
3597.544 3.28661 3.333 3.6476 3.8128 3.5428 3.1065 3.26232 3.29348 3.3478 3.489
3616.833 3.8018 4.22 3.5934 3.1855 3.5867 3.5628 3.036 2.786 2.87 2.944
3636.123 3.4074 3.7456 3.7123 3.9132 4.27 4.0535 3.4901 3.038 2.91 3.019
3655.413 2.673 3.039 3.4815 3.6628 3.8577 3.6966 3.5465 3.3754 3.3461 3.5353
3674.703 3.8824 3.9181 4.0284 4.0522 3.8507 3.7061 3.9124 3.6863 3.111 3.6187
3693.993 4.1789 3.6804 3.5141 3.8594 3.4816 3.3618 3.4339 3.5476 3.5213 2.794
3713.282 2.838 3.3544 3.3069 3.20118 3.3323 3.2987 3.3077 3.4831 3.6684 3.8111
3732.572 3.5288 3.824 3.9359 3.3372 3.1173 3.3896 3.5824 3.6974 3.4441 3.104
3751.862 3.44 3.652 3.5155 3.5626 3.7474 3.4532 3.171 2.912 3.1093 3.1247
3771.152 2.71 3.3954 4.1979 4.2 3.7056 3.5144 3.7247 3.5628 3.052 3.004
3790.441 3.3919 3.4004 3.1648 3.1234 3.3526 3.6884 3.5329 3.20189 3.3311 3.3667
3809.731 3.26165 2.967 2.773 2.863 3.016 3.4453 3.8943 3.5962 3.074 3.19802
3829.021 3.022 3.28933 3.8596 3.3647 3.4803 3.6381 3.4008 3.5917 3.4827 3.1154
3848.311 3.24257 3.3372 2.795 2.867 3.4644 3.3309 2.94 3.3803 3.7555 3.4796
3867.601 3.27668 3.24743 3.3755 3.4472 3.6507 3.824 4.0085 4.132 3.5721 3.1864
3886.890 3.3524 3.471 3.3541 3.5969 4.1731 3.6808 3.083 3.6141 3.9445 3.2668
3906.180 3.017 3.7626 3.9981 3.9125 3.5041 3.1616 3.5046 3.24448 2.987 3.3679
3925.470 3.8263 3.8658 3.4259 3.19896 3.5002 3.9454 4.1202 3.713 3.6518 4.25
3944.760 4.46 4.1056 3.5213 3.1231 2.933 3.4361 4.0655 4.1889 4.0991 3.5228
3964.049 3.472 3.6788 3.5911 3.1792 3.1854 4.27 4.41 4.39 4.57 4.0701
3983.339 3.5801 3.9994 4.3 4.26 4.58 4.1833 3.4895 3.1877 3.5033 3.5416
##END=
