##TITLE=(4-Acetylphenyl)phenylmethane
##JCAMP-DX=4.24
##DATA TYPE=INFRARED SPECTRUM
##ORIGIN=EPA-IR VAPOR PHASE LIBRARY
##OWNER=SRD/NIST
Collection (C) 2018 copyright by the U.S. Secretary of Commerce
on behalf of the United States of America. All rights reserved.
##CAS REGISTRY NO=782-92-3
##MOLFORM=C 15 H 14 O
##$NIST SOURCE=MSDC-IR
##STATE=gas
##XUNITS=1/CM
##YUNITS=ABSORBANCE
##XFACTOR=1.
##YFACTOR=0.001
##DELTAX=3.85796
##FIRSTX=551.7
##LASTX=4000.7
##FIRSTY=3.64
##MAXX=4000.7
##MINX=551.688
##MAXY=0.13129
##MINY=0.0008487
##NPOINTS=895
##XYDATA=(X++(Y..Y))
551.688 3.64 4.61 6.24 8.85 11.53 12.72 11.93 10.53 10 10.27
590.268 11.17 13.04 16.09 18.98 19.14 16.12 11.94 8.61 6.65 5.58
628.847 5 4.71 4.57 4.53 4.61 4.79 5.16 5.81 6.77 8.28
667.427 10.74 14.38 18.79 22.72 25.25 27.34 30.52 33.87 34.59 31.91
706.006 27.84 24.53 22.64 21.86 21.5 20.85 19.46 17.52 15.76 14.83
744.586 14.48 13.66 11.74 9.21 7.25 6.31 6.03 6.17 6.88 8.27
783.165 10.29 12.6 14.35 14.95 14.54 13.37 11.82 10.36 9.18 8.38
821.745 8.09 8.23 8.69 9.47 10.48 11.49 11.96 11.54 10.2 8.44
860.324 6.81 5.5 4.61 4.12 3.85 3.7 3.64 3.68 3.87 4.1
898.904 4.34 4.53 4.58 4.53 4.48 4.5 4.62 4.89 5.35 6.18
937.484 7.8 10.59 14.81 19.64 22.45 21.24 16.91 12.37 9.28 7.42
976.063 6.31 5.6 5.19 4.97 4.87 5.05 5.57 6.38 7.79 10.97
1014.643 14.67 15.44 13.33 10.96 9.61 7.82 5.53 4.41 4.23 4.31
1053.222 4.67 5.35 6.36 7.56 8.62 9.1 8.5 7.13 5.76 4.8
1091.802 4.38 4.38 4.67 5.03 5.55 5.96 5.91 5.56 5.01 4.45
1130.381 4.01 3.77 3.6 3.64 3.85 4.11 4.43 4.82 5.48 6.37
1168.961 7.95 10.88 16.16 22.08 24.04 20.67 15.59 12.73 11.57 10.74
1207.540 10.19 10.48 11.98 14.71 18.64 23.23 27.41 30.66 34.05 39.5
1246.120 49 64.48 87.31 112.24 124.12 110.01 77.62 48.18 31.06 22.12
1284.699 17.11 14.2 12.6 11.9 11.79 11.79 11.34 10.28 9.02 8.05
1323.279 7.56 7.49 7.84 8.68 10.15 12.52 16.31 22.42 31.3 39.59
1361.859 41.45 35.14 25.43 17.88 13.51 11.17 10.09 9.88 10.41 11.78
1400.438 14.12 17.41 20.75 22.2 20.82 17.71 15.24 14.22 14.03 14.1
1439.018 14.11 13.95 13.51 12.73 11.64 10.21 8.71 7.38 6.45 6.02
1477.597 6.14 7.02 9.01 12.96 17.55 18.88 15.68 10.66 7.21 5.87
1516.177 5.22 5.01 5 5.05 5.09 5.14 5.21 5.36 5.68 6.18
1554.756 6.93 8.12 9.76 11.4 12.55 12.82 12.74 13.41 15.6 19.71
1593.336 26.22 34.89 43.48 47.8 44.53 34.99 23.96 16 11.84 9.69
1631.915 8.52 7.8 7.41 7.32 7.55 8.08 8.92 9.9 10.97 11.96
1670.495 13.2 15.18 18.64 24.38 34.2 49.61 74.23 107.24 131.29 127.77
1709.075 98.62 65.8 42.66 28.4 20.11 15.25 12.49 10.79 9.78 9.03
1747.654 8.4 7.72 6.99 6.26 5.57 5.01 4.63 4.42 4.31 4.29
1786.234 4.43 4.73 5.03 5.09 4.84 4.39 3.93 3.54 3.24 3.01
1824.813 2.84 2.69 2.57 2.53 2.52 2.54 2.62 2.73 2.84 2.96
1863.393 3.05 3.08 3.12 3.16 3.17 3.18 3.2 3.25 3.3 3.32
1901.972 3.31 3.29 3.29 3.33 3.41 3.54 3.68 3.83 4 4.13
1940.552 4.16 4.11 3.98 3.76 3.4 2.91 2.45 2.1 1.9 1.8
1979.131 1.74 1.69 1.65 1.59 1.53 1.52 1.53 1.55 1.57 1.58
2017.711 1.58 1.58 1.59 1.59 1.56 1.48 1.42 1.36 1.28 1.23
2056.291 1.21 1.21 1.21 1.18 1.16 1.16 1.15 1.15 1.15 1.15
2094.870 1.14 1.11 1.07 1.05 1.02 0.9767 0.9591 0.9479 0.9401 0.9202
2133.450 0.9108 0.9182 0.9111 0.9037 0.9098 0.9123 0.8982 0.8916 0.9196 0.9586
2172.029 0.9761 0.9801 0.9981 1.03 1.03 1.02 1.02 1.01 1.01 1.02
2210.609 1.03 1.02 1.01 0.9892 0.9642 0.9567 0.9499 0.9355 0.9528 0.97
2249.188 0.9645 0.9649 0.9733 0.975 0.9772 1.01 1.02 1.03 1.1 1.15
2287.768 1.18 1.24 1.32 1.38 1.44 1.5 1.52 1.51 1.49 1.45
2326.347 1.42 1.43 1.42 1.4 1.38 1.33 1.28 1.24 1.22 1.21
2364.927 1.19 1.16 1.16 1.16 1.14 1.15 1.14 1.1 1.08 1.07
2403.507 1.06 1.06 1.08 1.11 1.13 1.14 1.16 1.2 1.2 1.18
2442.086 1.15 1.11 1.07 1.05 1.04 1.01 0.9955 1.01 1.02 1.02
2480.666 1.01 1.04 1.07 1.11 1.15 1.19 1.22 1.26 1.32 1.35
2519.245 1.36 1.35 1.31 1.26 1.21 1.15 1.14 1.13 1.1 1.12
2557.825 1.13 1.16 1.18 1.18 1.19 1.21 1.26 1.29 1.33 1.35
2596.404 1.33 1.29 1.28 1.32 1.32 1.31 1.31 1.32 1.33 1.31
2634.984 1.27 1.24 1.23 1.2 1.18 1.17 1.12 1.09 1.06 1.06
2673.563 1.04 1.01 0.9828 0.9849 1 1.02 1.02 1.03 1.08 1.07
2712.143 1.08 1.09 1.07 1.08 1.06 1.07 1.11 1.13 1.15 1.2
2750.722 1.25 1.31 1.37 1.42 1.43 1.41 1.43 1.45 1.44 1.46
2789.302 1.44 1.42 1.43 1.43 1.43 1.48 1.56 1.71 1.91 2.08
2827.882 2.35 2.73 3.21 3.82 4.46 5.04 5.44 5.63 5.51 5.19
2866.461 4.82 4.48 4.19 4.02 4 4.09 4.36 4.82 5.51 6.47
2905.041 7.79 9.51 11.48 13.42 14.94 15.71 15.59 14.65 13.08 11.15
2943.620 9.3 7.76 6.64 5.97 5.59 5.44 5.49 5.64 5.8 5.89
2982.200 5.95 6.1 6.44 7.09 8.11 9.61 11.56 13.81 16.02 18.08
3020.779 20.53 24.04 28.52 32.14 32.49 29.17 24.51 21.01 19.29 19.08
3059.359 20.27 22.98 26.6 28.82 27.91 24.82 21.95 20.13 18.41 16.28
3097.938 13.87 11.63 9.82 8.46 7.3 6.13 5.01 4.08 3.39 2.88
3136.518 2.5 2.26 2.07 1.92 1.8 1.7 1.62 1.56 1.52 1.44
3175.098 1.36 1.27 1.2 1.19 1.17 1.13 1.1 1.14 1.16 1.12
3213.677 1.1 1.08 1.08 1.07 1.03 1 1 1.02 0.9981 0.9646
3252.257 0.9654 0.9808 0.9917 0.9807 1 1.02 0.9987 0.9639 0.9634 0.9521
3290.836 0.9527 0.9906 0.9994 0.9634 0.9381 0.9678 0.9915 0.9781 0.9203 0.9135
3329.416 0.9984 1.02 1.01 1.01 1.06 1.12 1.19 1.27 1.35 1.47
3367.995 1.67 1.96 2.29 2.67 3 3.18 3.06 2.69 2.25 1.86
3406.575 1.6 1.46 1.34 1.22 1.15 1.12 1.11 1.09 1.09 1.09
3445.154 1.1 1.07 1.01 1 1.03 1.08 1.08 0.9936 0.9764 0.9787
3483.734 1 1.03 1.01 0.9745 0.9279 0.9159 0.9404 0.9583 0.9511 0.9434
3522.314 0.8967 0.8609 0.8899 0.8884 0.8685 0.8838 0.9082 0.9305 0.9585 0.929
3560.893 0.9311 0.9174 0.8878 0.8937 0.8487 0.8599 0.8744 0.8548 0.8852 0.9116
3599.473 0.9013 0.9159 0.9422 0.9759 1 1 1 1.02 1.08 1.06
3638.052 1.04 1.06 1.06 1.08 1.13 1.16 1.15 1.16 1.16 1.16
3676.632 1.12 1.13 1.12 1.04 1.07 1.11 1.06 1.07 1.08 1.04
3715.211 1.06 1.08 1.08 1.05 1.01 1.01 0.9905 0.9356 0.9304 0.9894
3753.791 0.949 0.8913 0.8859 0.8773 0.8612 0.9218 0.9509 0.9394 0.9507 0.9398
3792.370 0.9764 1 0.998 0.9358 0.9143 0.9388 0.925 0.9773 1.02 1
3830.950 0.9926 1.05 1.09 1.04 1.05 1.12 1.09 1.04 1.09 1.12
3869.530 1.09 1.06 1.04 1.04 1.05 1.07 1.06 1.03 1.06 1.08
3908.109 1.06 1.06 1.03 1.01 1.05 1.07 1.01 0.9996 1.01 0.9884
3946.689 1.01 1.06 1.02 0.9956 1.04 1.03 1.02 1.05 1.01 0.991
3985.268 0.9744 0.9873 1.08 1.13 1.13
##END=
