##TITLE=1-(2-Pyridylmethyl)pyrrole
##JCAMP-DX=4.24
##DATA TYPE=INFRARED SPECTRUM
##ORIGIN=EPA-IR VAPOR PHASE LIBRARY
##OWNER=SRD/NIST
Collection (C) 2018 copyright by the U.S. Secretary of Commerce
on behalf of the United States of America. All rights reserved.
##CAS REGISTRY NO=78210-51-2
##MOLFORM=C 10 H 10 N 2
##$NIST SOURCE=MSDC-IR
##STATE=gas
##XUNITS=1/CM
##YUNITS=ABSORBANCE
##XFACTOR=1.
##YFACTOR=0.001
##DELTAX=1.92898
##FIRSTX=549.8
##LASTX=4000.7
##FIRSTY=2.03
##MAXX=4000.7
##MINX=549.759
##MAXY=0.16922
##MINY=0
##NPOINTS=1790
##XYDATA=(X++(Y..Y))
549.759 2.03 2.94 2.89 1.8313 2.57 2.44 1.9878 2.62 2.67 2.93
569.049 2.95 3.03 3.51 3.54 2.66 2.99 3.36 2.74 3.08 3.52
588.339 4.55 5.26 4.73 5.27 6 6.34 7.16 9.01 11.66 14.09
607.628 17.05 20.25 23.37 26.84 29.37 30.67 32.35 33.48 32.8 31.37
626.918 29.33 26.74 24.6 22.56 19.23 16.28 14.12 12.25 10.55 9.64
646.208 9.66 9.57 9.67 9.74 9.55 9.99 10.85 10.69 10.07 10.36
665.498 10.69 10.25 9.76 10.51 11.97 12.92 14.2 15.21 16.9 18.85
684.787 19.9 21.53 23.9 26.26 28.54 31.95 36.04 40.87 47.13 54.63
704.077 63.98 75.73 90.18 108.7 130.68 151.57 164.91 169.22 168.81 167.94
723.367 165.01 152.97 131.65 109.23 91.9 79.15 70.5 65.52 62.14 59.81
742.657 58.29 57.21 57.29 57.49 56.46 53.65 49.75 45.86 41.6 37.61
761.947 33.27 29.27 26.08 22.45 19.97 18.75 18.19 17.25 15.77 15.13
781.236 14.15 13.41 13.5 12.7 12.17 12.03 10.97 9.46 8.44 8.3
800.526 8.1 7.41 7.41 7.95 7.89 8.12 8.66 8.59 7.6 6.51
819.816 6.01 6.14 6.66 6.65 6.34 5.83 5.4 5.53 5.39 4.94
839.106 4.73 5.07 4.82 4.47 4.75 4.2 3.4 3.37 3.5 3.44
858.395 2.83 2.88 3.17 3.11 3.37 3.08 3.31 3.8 3.65 3.63
877.685 3.93 4.1 4.35 4.17 3.47 3.09 3.26 3.2 3.18 3.67
896.975 3.51 3.28 3.66 3.8 3.08 2.99 3.35 3.31 3.21 3.06
916.265 3.33 3.62 3.9 3.56 3.49 3.44 3.07 3.83 3.79 3.64
935.555 4.18 4.34 4.45 4.61 4.64 4.68 4.84 4.98 5.95 7.36
954.844 8.92 11.04 13.79 17.29 20.57 22.55 22.85 22.24 21.2 20.13
974.134 18.81 16.85 14.28 11.18 9.51 9.17 8.69 8.59 8.97 9.27
993.424 8.99 8.68 8.5 8.41 8.19 7.34 6.28 5.67 5.29 5.35
1012.714 5.66 5.78 6.13 5.91 5.95 6.26 5.1 3.91 5.18 6.18
1032.003 6.69 7.9 9.45 10.42 10.8 12.54 13.86 14.36 14.62 14.96
1051.293 16.4 19.19 21.57 22.95 23.97 25.07 25.55 25.87 26.61 26.93
1070.583 27.35 28.2 29.68 32.15 37.41 46.11 57.77 67.96 71.9 74.12
1089.873 75.55 72.81 69.32 62.82 50.17 35.19 23.75 17.54 13.31 9.03
1109.163 6.11 6.75 6.86 5.69 4.98 5.24 5.19 3.34 2.1 3.03
1128.452 5.04 3.84 2.62 3.71 5.34 6.92 6.75 7.18 7.05 6.66
1147.742 7.64 8.02 7.84 6.08 4.45 3.73 3.18 3.03 2.72 3.29
1167.032 3.82 3.26 2.55 2.53 3.71 4.29 3.17 1.609 1.00694 2.06
1186.322 3.05 2.67 2.27 1.7418 1.05379 1.5254 3.3 3.62 3.5 3.66
1205.611 3.37 4.72 6.33 6.71 5.96 7.9 9.71 8.33 6.83 6.54
1224.901 8.16 9.33 10.33 10.15 10.08 12.54 14.91 16.47 15.95 16.54
1244.191 17.61 17.97 18.3 17.74 15.9 15.02 15.84 16.17 16.45 17.07
1263.481 19.04 22.49 26.49 30.43 35.74 42.31 48.5 54.5 60.18 64.74
1282.771 67.31 68.14 67.22 63.57 58.5 53.52 48.2 42.47 36.69 31.39
1302.060 27.28 23.93 20.97 18.47 16.53 14.77 13.32 12.77 12.62 12.42
1321.350 12.59 13.54 14.58 15.46 17.04 19.19 21.42 24.07 27.16 30.44
1340.640 33.76 36.68 38.28 38.62 38.14 36.99 35.22 32.52 29.12 25.91
1359.930 23.11 20.84 19.46 18.19 16.89 16.03 15.15 14.13 13.57 13.24
1379.219 12.87 12.55 12.49 12.7 13.05 13.36 13.68 14.34 14.97 15.6
1398.509 16.24 16.85 17.71 18.52 19.19 20.16 21.3 22.74 24.64 27.1
1417.799 30.5 34.86 39.73 44.92 50.91 57.51 63.68 67.85 68.67 67.23
1437.089 64.61 60.81 55.83 48.86 40.45 32.82 27.4 23.76 21.07 19.33
1456.378 18.47 18.45 19.07 20.57 23.5 27.01 30.53 33.58 35.81 37.5
1475.668 38.92 40.51 41.9 42.75 44.19 47.77 53.47 59.8 65.43 68.84
1494.958 69.48 68.32 65.02 59.88 53.17 44.36 35.05 27.74 22.69 19.47
1514.248 17.8 17 16.36 16.37 17.38 18.88 20.94 23.27 25.29 27.01
1533.538 28.33 29.25 30.49 31.35 31.17 30.25 29.33 28.35 27.17 26.4
1552.827 25.75 25.22 25.33 25.42 26.16 27.86 29.92 32.14 34.49 37.05
1572.117 39.25 41.28 43.28 45.13 47.03 49.65 53.19 56.89 59.87 61.13
1591.407 60.3 57.21 52.49 47.26 41.2 34.31 27.54 21.77 17.4 14.49
1610.697 12.69 11.44 10.36 9.24 8.38 8.11 7.53 6.8 6.29 5.87
1629.986 5.65 5.35 5.16 4.79 4.43 3.97 3.35 3.35 3.62 3.54
1649.276 3.27 3.09 3.05 3.22 3.51 3.65 3.84 4.02 4.13 4.28
1668.566 4.59 4.9 5.18 5.36 5.38 5.51 5.39 4.76 4.39 4.4
1687.856 4.24 4.2 4.08 3.83 3.93 3.92 3.78 4.1 4.61 4.89
1707.146 5.21 5.61 5.94 6.24 6.18 6.23 6.02 5.7 5.55 4.91
1726.435 4.18 3.56 2.92 2.63 2.33 2.08 2.13 2.02 2.09 1.9041
1745.725 1.6496 1.7891 1.8641 1.8244 1.8193 1.9547 2.02 2.14 2.2 2.13
1765.015 2.15 2.15 2.16 2.07 2.09 2.23 2.19 2.03 1.7705 1.7016
1784.305 1.7763 1.8865 1.879 1.7021 1.5522 1.4493 1.6201 1.7125 1.6409 1.5402
1803.594 1.474 1.7302 1.7131 1.397 1.5362 1.7248 1.6634 1.6691 1.8101 1.947
1822.884 2.03 2.01 2.14 2.36 2.45 2.48 2.32 2.35 2.43 2.47
1842.174 2.73 2.73 2.72 2.9 2.9 2.79 2.73 2.81 3.03 3.01
1861.464 2.96 3.2 3.34 3.44 3.48 3.37 3.23 3.08 2.91 2.74
1880.754 2.39 2.06 2.11 2.21 2.11 2.04 2.11 2.24 2.29 2.42
1900.043 2.46 2.27 2.41 2.61 2.72 2.82 2.85 2.87 2.66 2.79
1919.333 3.01 2.93 2.84 2.97 3.26 3.3 3.11 3.01 3.04 3.19
1938.623 3.35 3.41 3.36 3.16 3.09 2.96 2.97 3.23 3.23 3.12
1957.913 3.14 3.11 3.31 3.52 3.56 3.36 3.1 3.12 3.13 3.23
1977.202 3.16 2.83 2.48 2.29 2.33 2.11 1.9574 1.9007 1.6986 1.6552
1996.492 1.6424 1.4434 1.3315 1.2941 1.3811 1.5664 1.5387 1.5442 1.6496 1.6085
2015.782 1.6531 1.6517 1.4648 1.5987 1.6284 1.5815 1.6251 1.676 1.7125 1.6062
2035.072 1.6499 1.6972 1.6887 1.6844 1.7289 1.7461 1.576 1.4727 1.4992 1.3794
2054.362 1.5174 1.6986 1.481 1.4278 1.5387 1.4136 1.2313 1.2993 1.454 1.5104
2073.651 1.5825 1.492 1.3732 1.4467 1.4291 1.4618 1.5164 1.3948 1.4336 1.5513
2092.941 1.3896 1.3163 1.4258 1.4024 1.3816 1.3666 1.3825 1.4437 1.5038 1.5854
2112.231 1.6238 1.5598 1.5129 1.5285 1.4389 1.4454 1.6221 1.6433 1.3994 1.4907
2131.521 1.4892 1.5932 1.7405 1.5619 1.5151 1.5811 1.7652 1.6032 1.7254 2.09
2150.810 2.14 2.02 1.8161 1.8301 1.7157 1.5604 1.7751 1.9089 1.9781 2.17
2170.100 2.14 1.8345 1.6775 1.9835 1.9984 1.8185 2.07 2.26 2.37 2.53
2189.390 2.44 2.15 2.05 1.9374 1.9988 2.17 2.15 1.9785 1.9189 2.15
2208.680 2.16 2.21 2.25 1.9262 1.638 1.747 1.7389 1.7982 2.17 2.13
2227.970 2.17 2.16 1.838 2.13 2.46 2.41 2.53 2.65 2.54 2.61
2247.259 2.69 2.39 2.52 2.72 2.37 2.31 2.34 2.08 2.02 2.2
2266.549 2.17 1.9384 1.9823 1.9479 1.7618 1.6739 1.885 1.9716 1.7141 1.7077
2285.839 1.9464 2.14 2.16 2.53 2.61 2.51 2.5 2.46 2.54 2.22
2305.129 2.14 2.14 1.8577 1.832 2.02 1.9399 1.8139 2.0088 1.9214 1.8038
2324.418 1.9571 2.0053 1.9711 2.22 2.35 2.3 2.48 2.4 2.41 2.43
2343.708 1.9423 2.07 2.29 2.21 2.34 2.38 2.39 2.41 2.54 2.53
2362.998 2.31 2.07 2.22 2.51 2.5 2.26 2.02 2.03 2.19 2.14
2382.288 2.08 1.9294 1.5413 1.6086 1.7765 1.7612 1.9481 1.8401 1.8005 1.7773
2401.578 1.6354 1.8396 1.92 1.7756 1.4688 1.5555 1.8399 1.7263 1.5423 1.4088
2420.867 1.644 1.8231 1.7125 2.02 2.21 2.14 2.16 2.02 1.7552 1.7095
2440.157 1.7532 1.934 2.16 2.17 2.14 2.12 2.16 2.43 2.46 2.33
2459.447 2.45 2.42 2.45 2.49 2.41 2.45 2.48 2.24 1.9812 2.26
2478.737 2.5 2.31 2.14 1.9788 2.01 2.04 1.8183 1.9491 2.01 1.803
2498.026 1.914 1.8569 1.7055 1.8769 1.9561 1.867 1.8532 1.6916 1.3722 1.4221
2517.316 1.8565 2.02 1.8915 1.9919 1.9664 1.8134 1.8545 1.7836 2.11 2.45
2536.606 2.35 2.24 1.9493 1.9936 2.28 2.56 2.54 2.44 2.47 2.58
2555.896 2.8 2.71 2.68 2.86 2.63 2.57 2.89 2.86 2.92 3.27
2575.186 3.12 2.8 2.89 2.87 2.88 2.93 2.74 2.77 2.59 2.57
2594.475 2.56 2.07 2.03 2.0043 2.08 2.02 1.9809 2.27 2.31 2.12
2613.765 2.12 1.9914 1.6823 1.6743 1.6831 1.8534 1.8987 1.6093 1.5404 1.5396
2633.055 1.6213 1.9987 2.14 1.8882 1.629 1.6791 1.6104 1.5447 1.6677 1.7661
2652.345 2.01 1.9288 1.7403 1.8884 1.8258 1.8153 2.09 1.976 1.9473 2.26
2671.634 2.21 2.1 2.13 1.5747 1.7341 2.27 1.9338 1.7874 2.03 1.9838
2690.924 2.05 2.26 2.04 2.09 2.45 2.36 1.8188 2.03 2.19 1.8685
2710.214 1.8405 1.6948 1.8808 2.3 2.44 2.39 2.49 2.4 2.15 2.33
2729.504 2.04 1.5883 1.6911 1.7203 1.7686 2.006 1.7876 1.9012 2.44 2.47
2748.794 2.89 3.06 2.46 2.47 3.08 3.31 3.29 3.15 2.86 3.18
2768.083 3.67 3.88 3.78 3.8 4.11 4.42 4.75 5.05 5.02 4.6
2787.373 4.26 4.12 4.12 3.96 3.94 3.69 3.38 3.07 2.82 2.92
2806.663 2.92 2.92 2.57 2.48 2.58 2.43 2.46 2.89 3.06 3.02
2825.953 3 2.87 3.02 3.06 3.01 2.96 3.6 3.74 3.38 3.59
2845.242 3.49 3.48 3.8 4.22 4.65 4.86 5.27 5.66 5.18 5.08
2864.532 5.22 5.22 5.37 5.6 5.72 5.36 5.13 4.83 5.34 5.72
2883.822 5.35 5.02 4.89 5.25 5.82 5.98 5.56 5.75 6.29 6.53
2903.112 7.11 7.58 8.24 8.64 8.8 9.7 10.38 10.6 10.96 11.88
2922.401 13.17 14.06 14.57 15.11 15.95 17.15 17.52 17.9 18.85 18.86
2941.691 18.8 19.08 19.33 19.12 18.42 18.04 17.18 16.23 15.71 14.75
2960.981 13.83 13.13 12.42 11.66 10.33 9.31 8.19 7.37 7.56 7.3
2980.271 6.45 5.61 5.62 6.01 6.22 6.23 6.25 6.79 7.13 7.66
2999.561 8.28 8.7 9.53 10.24 10.83 12.33 13.94 15 16.13 16.79
3018.850 16.83 16.51 16.31 15.81 14.56 13.52 12.9 11.68 10.7 10.63
3038.140 10.71 11.08 11.61 12.18 13.25 15.05 16.89 18.39 19.66 20.78
3057.430 21.88 22.56 23.19 23.98 24.7 26.07 27.86 30 31.98 32.44
3076.720 32.52 32.38 31.54 30.19 27.79 24.75 21.55 18.84 16.8 15.09
3096.009 13.87 12.93 12.21 11.68 11.84 12.3 12.55 13.14 13.93 14.67
3115.299 15.23 15.64 15.44 15.03 14.68 14.21 13.38 12.66 12.29 11.78
3134.589 10.79 10.06 9.87 9.19 8.56 7.61 6.32 5.34 4.26 3.78
3153.879 3.41 3.24 3.29 2.93 2.63 2.28 2.15 2.42 2.45 2.33
3173.169 2.45 2.33 2.39 2.19 1.3084 1.3812 1.8319 2.04 1.8941 1.6049
3192.458 1.5329 1.2238 1.1461 1.4749 1.3793 1.4726 1.7736 1.6594 1.3466 1.5012
3211.748 2.0058 1.5118 1.25 1.2447 1.01136 1.05031 1.4853 1.744 1.1581 0.719
3231.038 0.822 1.00834 0.73 0.592 0.896 0.9736 1.05786 0.9815 1.07427 0.908
3250.328 0.775 1.10471 1.5101 1.641 1.10969 1.1413 1.6477 1.5783 1.4358 1.2367
3269.617 1.3166 1.4464 1.3265 1.2888 1.2477 1.6895 1.8202 1.1346 0.9759 1.5528
3288.907 1.4801 1.0241 0.758 1.00466 1.6792 1.399 0.867 0.759 0.9256 1.1835
3308.197 0.816 0.25 0.427 0.858 1.2649 1.6013 1.02312 1.05277 1.5987 0.9558
3327.487 0.612 0.9412 0.9914 1.5371 1.4769 1.05599 1.1171 1.05262 0.627 0.659
3346.777 0.648 0.598 0.944 1.01909 0.885 0.849 1.1373 0.9381 0.472 0.675
3366.066 1.02947 1.1354 1.772 1.4395 0.608 0.498 0.534 0.581 0.649 0.802
3385.356 1.08213 1.4211 1.5746 1.2578 0.847 0.856 1.03969 1.5624 1.5104 0.993
3404.646 1.08218 0.9875 0.508 0.084 0.26 0.741 0.804 0.9815 1.5061 1.6708
3423.936 1.4697 1.4438 1.1119 0.9235 0.791 1.04296 0.896 0.432 0.825 0.9413
3443.225 1.1518 0.9261 0.603 1.2281 1.2496 0.567 0.545 0.639 0.334 0.342
3462.515 0.9885 1.4284 0.772 0.622 0.9153 1.10052 1.3595 1.5189 1.4871 0.9709
3481.805 1.6685 1.6889 1.1491 1.1957 1.08646 1.06634 0.676 0.873 0.9507 0.909
3501.095 1.2341 1.1281 1.2633 0.9249 1.01445 1.2732 0.812 0.66 1.1983 1.4871
3520.385 0.9693 0.9327 0.9237 0.702 0.516 0.481 0.418 0.383 0.601 0.681
3539.674 0.887 0.732 0.719 1.1504 0.451 0.15 0.102 0 0.64 0.9655
3558.964 0.206 0.105 0.809 0.801 1.1944 1.05917 1.08057 1.04439 0.565 0.9542
3578.254 0.9407 1.00376 0.702 0.832 1.3087 0.836 0.755 0.663 0.555 0.421
3597.544 0.41 1.01692 1.5026 1.8443 1.6315 0.758 0.864 1.3889 1.555 0.9826
3616.833 0.468 0.667 1.1182 1.4347 1.4025 1.1453 0.778 1.01404 1.4327 1.05476
3636.123 0.805 1.129 1.01079 1.5115 1.5923 1.5601 1.977 1.3632 0.617 0.406
3655.413 0.154 0.846 1.6651 1.5528 1.2769 1.07724 0.9888 0.885 0.87 0.687
3674.703 1.10147 1.5339 1.5064 1.7703 1.5247 0.9776 1.2454 1.4408 1.09566 0.896
3693.993 0.9882 1.10408 1.2471 1.2922 1.1346 1.02628 1.3912 1.4238 1.6339 1.852
3713.282 1.3264 1.1147 1.1628 1.5255 1.6724 1.2254 0.814 0.421 0.737 1.1787
3732.572 1.09264 1.04299 1.1781 1.3897 1.7442 1.515 0.537 0.9415 1.4647 1.4711
3751.862 1.3214 1.4983 1.5908 1.3104 1.2831 1.2091 0.9794 0.889 1.31 1.2486
3771.152 0.779 0.202 0.034 0.125 0.392 1.04892 1.4314 1.2841 1.2718 1.6604
3790.441 1.8227 1.2959 1.1923 1.4288 1.354 1.7315 1.7511 1.1279 0.814 1.08919
3809.731 1.4863 1.4281 1.2957 1.4913 1.01332 0.751 1.2181 1.6699 1.777 1.08819
3829.021 1.04129 1.4405 1.4214 1.4025 1.6159 1.6601 1.6549 1.4943 1.1476 0.879
3848.311 0.796 0.9309 1.2079 1.604 1.3574 0.9975 1.2023 1.5738 1.1863 1.10978
3867.601 1.5485 1.5947 1.5644 1.3356 1.5268 1.8197 1.3664 0.822 0.715 1.2668
3886.890 1.8004 1.5928 0.9136 0.681 1.1833 1.2027 1.3402 1.6901 2.08 2.14
3906.180 1.7568 1.5976 1.1419 1.3442 1.6054 1.3211 1.08063 0.793 0.845 1.2522
3925.470 1.1207 1.1717 1.4198 1.3478 1.7169 1.5581 1.4008 1.8985 1.1587 0.839
3944.760 1.3995 1.6181 1.2949 1.3661 2.07 1.8425 1.7699 1.9709 2.07 2.2
3964.049 1.9681 1.8655 1.7208 2.04 2.89 3.13 2.61 2.55 3.27 3.29
3983.339 3.03 3.28 3.53 3.55 3.41 2.39 2.31 2.83 2.97 3.14
##END=
