##TITLE=3-Nitrobenzoyl isothiocyanate
##JCAMP-DX=4.24
##DATA TYPE=INFRARED SPECTRUM
##ORIGIN=EPA-IR VAPOR PHASE LIBRARY
##OWNER=SRD/NIST
Collection (C) 2018 copyright by the U.S. Secretary of Commerce
on behalf of the United States of America. All rights reserved.
##CAS REGISTRY NO=78225-78-2
##MOLFORM=C 8 H 4 N 2 O 3 S
##$NIST SOURCE=MSDC-IR
##STATE=gas
##XUNITS=1/CM
##YUNITS=ABSORBANCE
##XFACTOR=1.
##YFACTOR=0.001
##DELTAX=1.92898
##FIRSTX=549.8
##LASTX=4000.7
##FIRSTY=0.32
##MAXX=4000.7
##MINX=549.759
##MAXY=0.167802
##MINY=0
##NPOINTS=1790
##XYDATA=(X++(Y..Y))
549.759 0.32 0.50802 0.6076 0.5682 0.4072 0.569 0.8476 0.9128 0.6866 0.46258
569.049 0.573 0.6943 0.8524 1.0388 0.8693 0.8626 1.0286 0.9127 0.8997 0.8488
588.339 0.6157 0.7054 0.9036 0.9951 1.1174 1.1551 1.1383 1.059 0.9227 0.9166
607.628 1.113 1.0347 0.7929 1.0738 1.2516 1.3537 1.712 1.972 2.342 2.772
626.918 3.312 3.722 4.132 4.792 5.462 6.472 7.852 9.492 11.232 12.512
646.208 12.922 12.852 12.452 11.202 9.332 7.522 5.972 4.752 4.132 4.102
665.498 4.302 4.762 5.232 5.852 7.022 8.322 9.472 10.752 12.022 13.682
684.787 15.662 17.482 19.302 21.172 22.982 24.332 25.582 27.042 28.642 30.472
704.077 32.422 34.692 37.312 39.282 39.282 37.812 36.182 34.362 32.302 30.082
723.367 27.532 24.932 22.392 19.942 17.732 15.672 13.832 12.372 11.602 11.082
742.657 10.692 10.432 10.032 9.502 8.822 8.062 7.142 5.992 4.872 4.042
761.947 3.382 2.782 2.172 1.832 1.652 1.562 1.3479 1.2059 1.2171 1.1944
781.236 1.233 1.3131 1.1401 1.1413 1.552 1.612 1.762 2.052 2.162 2.322
800.526 2.642 3.142 3.632 3.992 4.312 4.762 5.332 5.502 5.392 5.482
819.816 5.552 5.682 6.072 6.822 8.062 9.982 12.172 14.742 17.592 20.092
839.106 21.922 22.742 22.702 21.812 20.062 17.572 14.872 12.532 10.422 8.412
858.395 6.782 5.602 4.682 3.952 3.162 2.512 2.442 2.582 2.672 2.542
877.685 2.362 2.332 2.532 2.842 3.112 3.392 3.802 4.262 4.652 4.882
896.975 5.022 5.482 6.412 7.412 8.502 10.112 11.752 13.332 15.062 16.412
916.265 17.342 17.892 18.032 17.662 17.032 16.272 15.242 14.252 13.282 12.392
935.555 11.562 10.832 10.272 9.622 8.912 8.412 7.892 7.402 7.172 6.892
954.844 6.682 6.642 6.472 6.602 6.682 6.532 6.702 6.802 6.682 6.542
974.134 6.492 6.312 6.162 6.182 6.002 5.532 5.242 5.092 4.852 4.772
993.424 4.702 4.702 4.602 4.512 4.282 3.762 3.652 3.542 3.002 2.572
1012.714 2.372 2.292 2.242 2.162 2.102 2.042 2.052 2.122 2.302 2.602
1032.003 2.662 2.322 2.102 2.272 2.362 2.272 2.512 2.642 2.752 3.392
1051.293 3.712 4.002 4.662 5.482 6.012 6.122 6.732 7.692 8.352 8.752
1070.583 9.212 9.532 10.182 10.822 10.952 11.502 11.792 11.662 12.112 12.562
1089.873 12.742 13.172 13.562 13.842 14.472 15.182 16.162 17.502 19.362 21.682
1109.163 23.982 25.942 27.932 29.652 30.382 30.542 30.162 28.772 26.712 24.392
1128.452 21.712 19.022 16.572 14.222 11.732 9.632 8.092 6.822 5.912 5.102
1147.742 4.802 4.362 3.902 3.922 3.902 4.282 4.502 4.772 5.162 5.442
1167.032 5.552 5.632 5.652 5.232 4.962 5.012 4.582 4.242 4.322 4.392
1186.322 4.572 4.802 5.182 5.602 6.382 7.412 8.222 9.152 10.912 12.862
1205.611 14.992 17.932 21.352 24.892 29.012 33.792 38.682 43.892 49.602 55.552
1224.901 61.732 68.672 76.192 83.422 90.462 97.082 102.602 106.862 108.952 108.992
1244.191 106.422 100.472 91.962 81.412 69.572 57.712 46.842 37.682 30.782 25.422
1263.481 21.292 18.092 15.512 13.932 12.962 12.602 13.462 15.872 19.472 23.812
1282.771 27.982 30.612 30.792 29.482 27.602 23.972 18.552 13.862 11.272 10.212
1302.060 9.912 9.892 9.932 9.982 9.892 9.542 8.922 8.212 7.452 6.822
1321.350 6.342 6.022 5.962 6.162 6.542 7.082 7.892 9.142 10.862 13.142
1340.640 16.272 20.132 24.562 29.062 32.922 35.582 36.692 36.142 33.812 30.012
1359.930 25.412 20.832 16.902 13.752 11.382 9.532 7.982 6.762 5.792 5.012
1379.219 4.292 3.712 3.312 2.992 2.762 2.572 2.442 2.362 2.352 2.382
1398.509 2.452 2.502 2.472 2.512 2.642 2.672 2.612 2.722 2.912 3.002
1417.799 3.082 3.242 3.442 3.722 4.132 4.592 5.202 5.922 6.682 7.312
1437.089 7.622 7.552 7.042 6.122 5.042 4.062 3.282 2.842 2.662 2.532
1456.378 2.512 2.542 2.572 2.732 2.982 3.332 3.792 4.282 4.822 5.462
1475.668 5.942 6.152 6.172 6.072 5.922 5.562 5.072 4.732 4.552 4.532
1494.958 4.702 4.962 5.272 5.622 5.852 6.032 6.132 6.112 6.102 5.982
1514.248 5.852 5.832 5.852 5.922 6.152 6.472 6.802 7.342 8.102 9.072
1533.538 10.552 12.672 15.502 19.452 24.592 30.582 36.942 42.712 46.502 47.682
1552.827 46.222 42.592 37.432 30.972 24.432 19.402 15.852 13.472 11.852 10.712
1572.117 9.922 9.392 8.892 8.502 8.232 8.062 7.972 7.942 8.002 8.122
1591.407 8.132 8.052 8.062 8.232 8.482 8.772 9.282 9.982 10.862 11.832
1610.697 12.682 13.182 13.292 13.002 12.302 11.222 9.702 8.242 6.942 5.712
1629.986 4.802 4.182 3.762 3.402 3.222 3.102 3.012 2.972 2.902 2.902
1649.276 2.902 2.952 3.002 2.982 3.022 3.052 3.012 2.992 3.062 3.112
1668.566 3.202 3.402 3.562 3.722 3.882 4.142 4.482 4.722 4.942 5.222
1687.856 5.582 6.022 6.482 6.982 7.692 8.582 9.622 11.052 12.812 15.292
1707.146 18.722 23.342 29.472 36.982 45.572 54.522 62.862 69.432 73.962 75.942
1726.435 74.992 71.132 64.902 57.542 49.682 42.472 36.382 31.252 27.372 24.572
1745.725 22.692 21.292 20.072 18.652 16.932 14.992 12.962 11.142 9.472 8.142
1765.015 7.142 6.252 5.612 5.172 4.752 4.392 4.172 4.012 3.802 3.642
1784.305 3.532 3.472 3.412 3.342 3.272 3.202 3.182 3.192 3.192 3.222
1803.594 3.272 3.282 3.322 3.392 3.462 3.512 3.542 3.532 3.542 3.592
1822.884 3.622 3.762 3.842 3.912 4.042 4.122 4.242 4.412 4.602 4.792
1842.174 4.962 5.192 5.452 5.742 6.082 6.452 6.862 7.302 7.742 8.172
1861.464 8.702 9.232 9.812 10.492 11.222 12.052 12.902 13.772 14.792 15.892
1880.754 17.042 18.302 19.642 21.072 22.622 24.252 26.042 28.072 30.262 32.622
1900.043 35.282 38.222 41.232 44.412 47.712 50.962 54.082 56.992 59.572 61.872
1919.333 64.052 66.052 68.062 70.212 72.512 75.012 77.942 81.442 85.642 90.632
1938.623 96.532 103.402 111.272 120.082 129.522 139.092 148.252 156.362 162.652 166.622
1957.913 167.802 166.022 161.762 155.732 148.572 140.742 132.802 125.232 118.372 112.572
1977.202 107.902 104.482 102.312 101.182 100.962 101.522 102.682 104.242 106.102 108.152
1996.492 110.272 112.232 113.752 114.542 114.452 113.402 111.132 107.682 103.072 97.712
2015.782 91.932 85.842 79.762 73.952 68.572 63.702 59.282 55.282 51.842 48.902
2035.072 46.202 43.722 41.472 39.382 37.402 35.532 33.852 32.192 30.592 29.092
2054.362 27.652 26.232 24.862 23.522 22.252 21.182 20.222 19.252 18.432 17.832
2073.651 17.192 16.512 15.942 15.442 14.882 14.342 13.762 13.142 12.552 11.932
2092.941 11.382 10.822 10.242 9.732 9.222 8.772 8.422 8.122 7.812 7.542
2112.231 7.282 7.042 6.872 6.612 6.362 6.252 6.072 5.852 5.682 5.522
2131.521 5.312 5.232 5.142 4.982 4.922 4.862 4.792 4.802 4.742 4.642
2150.810 4.652 4.612 4.532 4.452 4.362 4.272 4.132 3.932 3.852 3.822
2170.100 3.762 3.742 3.672 3.542 3.512 3.512 3.462 3.442 3.462 3.432
2189.390 3.442 3.462 3.422 3.412 3.362 3.292 3.232 3.222 3.132 3.042
2208.680 3.022 2.932 2.842 2.852 2.762 2.662 2.692 2.652 2.562 2.542
2227.970 2.432 2.352 2.432 2.392 2.402 2.362 2.212 2.162 2.162 2.202
2247.259 2.212 2.112 2.042 2.062 2.032 1.902 1.802 1.832 1.822 1.692
2266.549 1.622 1.612 1.532 1.452 1.472 1.512 1.482 1.4043 1.3491 1.492
2285.839 1.562 1.442 1.3655 1.3984 1.432 1.452 1.482 1.532 1.582 1.632
2305.129 1.602 1.582 1.652 1.692 1.642 1.592 1.562 1.512 1.512 1.522
2324.418 1.512 1.512 1.542 1.542 1.482 1.4033 1.3841 1.4228 1.3821 1.2883
2343.708 1.2782 1.2684 1.2083 1.1515 1.2024 1.2342 1.1418 1.1022 1.1194 1.171
2362.998 1.1958 1.1712 1.1261 1.0709 1.0481 1.0537 1.0336 1.0156 0.9876 0.9506
2382.288 0.9566 0.9625 0.9608 0.9546 0.8539 0.8358 0.8856 0.7991 0.7875 0.8582
2401.578 0.8187 0.7812 0.8147 0.8229 0.8064 0.7045 0.7265 0.7501 0.7474 0.8468
2420.867 0.8181 0.7611 0.8059 0.906 0.9273 0.9164 0.9654 1.0158 0.9688 0.9797
2440.157 0.9678 0.9248 1.072 1.0519 0.8928 0.9252 0.9925 1.0199 1.0537 1.0179
2459.447 0.99 1.0038 1.0562 1.0462 1.0111 1.0085 1.0216 1.036 0.9597 0.9497
2478.737 0.9441 0.8748 0.9157 0.9271 0.9142 0.9308 0.903 0.8504 0.8541 0.915
2498.026 0.9051 0.9144 0.9871 0.9796 0.9611 1.0065 0.9639 0.9995 1.1331 1.1385
2517.316 1.0364 1.0268 1.033 1.0347 1.0705 1.0306 1.026 1.0824 1.0652 0.9921
2536.606 0.9653 0.9295 0.9153 0.961 1.0059 0.9875 0.9343 0.8961 0.9342 0.9421
2555.896 0.9076 0.9496 0.9285 0.8415 0.8513 0.894 0.8292 0.8174 0.8782 0.8513
2575.186 0.7875 0.8033 0.8597 0.8877 0.9169 0.9203 0.9263 0.9309 0.9097 0.9307
2594.475 0.9172 0.8489 0.854 0.9019 0.9412 0.9832 0.9673 1.0214 1.1152 1.0944
2613.765 1.0826 1.0617 1.0409 1.0697 1.0086 1.0116 1.1521 1.228 1.2106 1.1809
2633.055 1.2366 1.3102 1.3502 1.4191 1.512 1.512 1.452 1.442 1.432 1.4071
2652.345 1.4129 1.462 1.502 1.482 1.462 1.452 1.572 1.682 1.742 1.752
2671.634 1.682 1.772 1.852 1.812 1.792 1.822 1.842 1.832 1.812 1.812
2690.924 1.792 1.822 1.862 1.822 1.802 1.742 1.712 1.652 1.582 1.602
2710.214 1.512 1.4262 1.346 1.249 1.2059 1.1715 1.1723 1.1361 1.1167 1.0896
2729.504 1.0595 1.0415 1.068 1.1291 1.0106 0.9174 0.9173 0.8289 0.8254 0.8398
2748.794 0.8113 0.835 0.8745 0.9417 0.9112 0.829 0.8216 0.8314 0.778 0.7836
2768.083 0.8482 0.7834 0.6516 0.5836 0.5545 0.5931 0.6848 0.7617 0.7253 0.7006
2787.373 0.7765 0.7537 0.7198 0.7276 0.7448 0.7947 0.8322 0.8243 0.7788 0.7533
2806.663 0.7529 0.727 0.7593 0.8476 0.7777 0.7411 0.7577 0.6767 0.7341 0.7618
2825.953 0.7578 0.7725 0.7499 0.8426 0.901 0.8678 0.9303 0.8309 0.676 0.7462
2845.242 0.8079 0.8856 0.8885 0.8517 0.8848 0.946 1.0245 1.0843 1.1302 1.0096
2864.532 1.012 1.1461 1.1393 1.1966 1.2208 1.1663 1.19 1.2235 1.269 1.3059
2883.822 1.2322 1.2794 1.4148 1.462 1.532 1.582 1.502 1.462 1.3649 1.2558
2903.112 1.2273 1.1327 1.1779 1.2252 1.0287 0.9559 0.992 0.9095 0.9713 0.9445
2922.401 0.8195 0.8625 0.8449 0.8194 0.8588 0.8164 0.8157 0.8174 0.8062 0.8195
2941.691 0.9173 0.9359 0.8082 0.8038 0.8752 0.8891 0.7925 0.6324 0.5772 0.627
2960.981 0.6593 0.691 0.7119 0.7231 0.6067 0.49799 0.47724 0.48186 0.50824 0.440562
2980.271 0.431588 0.5375 0.5914 0.50612 0.46956 0.47581 0.4837 0.5752 0.5939 0.53059
2999.561 0.4139 0.3573 0.4139 0.43084 0.43028 0.5037 0.5783 0.5298 0.4916 0.4817
3018.850 0.47849 0.5496 0.6462 0.5618 0.48021 0.42205 0.3759 0.50434 0.5664 0.5641
3038.140 0.46556 0.4198 0.44052 0.48417 0.5399 0.5614 0.49093 0.3999 0.42256 0.42386
3057.430 0.5402 0.7142 0.719 0.7091 0.728 0.7311 0.882 1.2167 1.552 1.652
3076.720 1.892 2.352 2.772 3.132 3.472 3.682 3.652 3.582 3.442 3.162
3096.009 2.812 2.392 1.932 1.542 1.1786 0.9249 0.7326 0.6248 0.6394 0.5624
3115.299 0.42651 0.28 0.293 0.362 0.228 0.241 0.273 0.268 0.251 0.252
3134.589 0.182 0.149 0.249 0.272 0.287 0.313 0.283 0.219 0.148 0.09
3153.879 0.178 0.251 0.175 0.264 0.359 0.248 0.173 0.175 0.287 0.3421
3173.169 0.255 0.229 0.229 0.19 0.295 0.306 0.29 0.323 0.283 0.28
3192.458 0.219 0.174 0.096 0.131 0.099 0.029 0.129 0.208 0.249 0.274
3211.748 0.207 0.104 0.17 0.217 0.189 0.163 0.136 0.191 0.18 0.112
3231.038 0.193 0.234 0.187 0.177 0.203 0.183 0.141 0.122 0.179 0.209
3250.328 0.165 0.145 0.235 0.4019 0.309 0.198 0.3815 0.3427 0.122 0.121
3269.617 0.214 0.27 0.292 0.328 0.245 0.126 0.111 0.132 0.109 0.106
3288.907 0.188 0.204 0.188 0.213 0.151 0.15 0.226 0.294 0.295 0.209
3308.197 0.274 0.317 0.332 0.303 0.107 0.054 0.106 0.214 0.323 0.274
3327.487 0.201 0.187 0.219 0.277 0.403 0.391 0.25 0.241 0.296 0.211
3346.777 0.191 0.252 0.205 0.187 0.177 0.167 0.21 0.181 0.151 0.3349
3366.066 0.44656 0.268 0.11 0.141 0.253 0.312 0.233 0.315 0.44177 0.45592
3385.356 0.44845 0.3505 0.3962 0.4192 0.318 0.245 0.296 0.42359 0.44748 0.51118
3404.646 0.6061 0.5495 0.5977 0.6201 0.5742 0.8037 0.8833 0.7584 0.7674 0.754
3423.936 0.7492 0.7991 0.8274 0.7953 0.8274 0.8313 0.6733 0.5395 0.43002 0.5742
3443.225 0.7673 0.7103 0.5714 0.6168 0.6239 0.6354 0.7514 0.6907 0.6423 0.606
3462.515 0.6313 0.6197 0.6071 0.5622 0.5687 0.5754 0.5427 0.589 0.5869 0.52015
3481.805 0.5357 0.5571 0.50123 0.44448 0.4119 0.46965 0.46006 0.408 0.325 0.325
3501.095 0.3597 0.3557 0.3995 0.45818 0.47738 0.50604 0.356 0.232 0.321 0.3848
3520.385 0.329 0.3743 0.465 0.4121 0.46927 0.439244 0.26 0.18 0.289 0.432124
3539.674 0.3602 0.4094 0.3874 0.221 0.13 0.078 0.089 0.05 0.069 0.029
3558.964 0 0.114 0.155 0.044 0.242 0.3851 0.19 0.237 0.4181 0.3445
3578.254 0.209 0.313 0.3333 0.275 0.3642 0.3746 0.327 0.273 0.213 0.255
3597.544 0.44273 0.42467 0.157 0.182 0.295 0.3366 0.3401 0.168 0.161 0.3578
3616.833 0.292 0.133 0.138 0.236 0.3553 0.28 0.272 0.276 0.156 0.201
3636.123 0.19 0.078 0.178 0.299 0.267 0.328 0.3943 0.45859 0.3437 0.182
3655.413 0.207 0.234 0.261 0.278 0.3511 0.47599 0.4049 0.3746 0.42585 0.4141
3674.703 0.3621 0.306 0.45333 0.46292 0.3386 0.306 0.3915 0.46365 0.3626 0.283
3693.993 0.331 0.3933 0.4097 0.435099 0.3809 0.297 0.4216 0.3929 0.263 0.362
3713.282 0.322 0.328 0.3949 0.3402 0.44409 0.51943 0.4145 0.3358 0.372 0.51523
3732.572 0.49953 0.4195 0.3509 0.42255 0.46269 0.3325 0.5362 0.7102 0.6299 0.7135
3751.862 0.5836 0.3928 0.51536 0.5844 0.5433 0.5632 0.6512 0.52923 0.3788 0.42643
3771.152 0.44648 0.5613 0.5823 0.42939 0.47441 0.52485 0.51981 0.6219 0.6269 0.52307
3790.441 0.50252 0.51654 0.5527 0.50854 0.4085 0.51762 0.6425 0.5904 0.6037 0.5774
3809.731 0.48762 0.6078 0.6713 0.6714 0.6555 0.6936 0.8355 0.8577 0.9188 0.8236
3829.021 0.7589 0.8119 0.7838 0.6484 0.6007 0.8105 0.8644 0.838 0.744 0.766
3848.311 0.8941 0.8794 0.8746 0.996 0.998 0.9268 0.9396 0.8951 0.8302 0.8796
3867.601 0.9479 0.9782 1.0218 1.0471 1.0248 0.9773 1.0458 0.9616 0.9472 0.9124
3886.890 0.8066 0.8733 0.9104 0.9517 0.8994 0.8617 0.9397 1.1329 1.1739 1.0652
3906.180 1.0072 0.9024 1.0064 1.2513 1.3064 1.1835 1.1592 1.1338 1.1414 1.0661
3925.470 1.0799 1.2091 1.1962 1.1918 1.119 1.1282 1.0689 1.0173 0.9922 1.1303
3944.760 1.1568 0.9581 1.0719 1.1762 1.1809 1.1881 1.0415 0.9618 1.009 1.0118
3964.049 0.9447 0.9301 1.0331 0.9327 0.8875 1.0432 1.0072 0.9423 1.0002 0.9658
3983.339 0.7996 0.8164 0.7549 0.9656 1.1244 0.9306 0.9503 1.0075 1.0146 0.9531
##END=
