##TITLE=3'-Trifluoromethylmethacrylanilide
##JCAMP-DX=4.24
##DATA TYPE=INFRARED SPECTRUM
##ORIGIN=EPA-IR VAPOR PHASE LIBRARY
##OWNER=SRD/NIST
Collection (C) 2018 copyright by the U.S. Secretary of Commerce
on behalf of the United States of America. All rights reserved.
##CAS REGISTRY NO=783-05-1
##MOLFORM=C 11 H 10 F 3 N O
##$NIST SOURCE=MSDC-IR
##STATE=gas
##XUNITS=1/CM
##YUNITS=ABSORBANCE
##XFACTOR=1.
##YFACTOR=0.001
##DELTAX=1.92898
##FIRSTX=549.8
##LASTX=4000.7
##FIRSTY=7.084
##MAXX=4000.7
##MINX=549.759
##MAXY=0.279314
##MINY=0
##NPOINTS=1790
##XYDATA=(X++(Y..Y))
549.759 7.084 6.494 6.274 6.444 6.844 6.794 6.744 7.394 7.924 8.184
569.049 8.404 8.454 8.914 9.234 9.404 9.384 9.064 9.134 8.934 8.294
588.339 7.824 7.514 6.624 5.564 4.974 4.454 4.024 3.574 3.264 3.224
607.628 3.104 3.104 2.894 2.584 2.594 2.574 2.384 2.514 2.674 2.384
626.918 2.214 2.344 2.514 2.594 2.454 2.454 2.344 2.514 2.884 2.914
646.208 3.174 3.754 4.684 5.954 7.604 9.744 12.384 15.084 16.454 16.354
665.498 15.324 13.214 10.254 7.564 6.044 5.154 4.814 4.914 5.614 6.874
684.787 8.654 11.404 14.374 17.314 20.534 23.904 25.504 24.034 20.994 17.974
704.077 15.084 11.904 9.054 6.854 5.104 3.964 3.264 2.864 2.634 2.314
723.367 2.084 2.144 2.224 2.054 2.024 2.294 2.304 2.174 2.174 2.444
742.657 2.834 3.224 3.814 4.344 4.854 5.374 5.324 5.034 4.524 3.724
761.947 3.224 3.144 3.244 3.484 3.984 4.784 5.964 7.524 9.584 11.904
781.236 14.614 17.854 21.174 23.874 25.504 26.104 25.824 24.574 22.134 19.074
800.526 16.184 13.504 11.044 8.754 7.024 5.724 4.714 4.294 3.814 3.224
819.816 2.954 2.794 2.744 2.464 2.294 2.424 2.394 2.414 2.444 2.384
839.106 2.504 2.764 3.004 3.274 3.324 3.414 3.574 3.834 4.174 4.644
858.395 5.254 5.854 6.594 7.544 8.694 9.824 11.074 12.024 12.604 13.074
877.685 13.074 13.044 13.134 13.244 13.264 13.214 13.254 13.574 14.394 15.024
896.975 15.824 17.054 18.294 19.214 19.874 20.664 21.224 21.604 22.044 22.344
916.265 22.124 21.244 19.894 18.444 17.054 15.464 13.994 12.854 11.814 10.824
935.555 10.014 9.704 9.564 9.294 9.294 9.404 9.314 9.174 8.924 8.474
954.844 7.944 7.474 7.034 6.504 5.934 5.424 5.124 4.794 4.644 4.434
974.134 4.104 4.004 3.794 3.584 3.664 3.924 3.944 3.944 4.364 4.714
993.424 5.064 5.644 6.174 6.584 7.154 7.764 8.054 8.244 7.924 7.504
1012.714 7.234 6.604 5.774 5.464 5.174 4.774 4.554 4.244 4.164 4.444
1032.003 4.704 4.894 4.914 4.694 4.764 4.924 4.974 5.524 6.314 6.934
1051.293 7.614 8.524 9.984 12.014 15.144 19.294 24.164 30.104 36.254 41.424
1070.583 44.844 46.004 45.194 42.374 37.424 32.154 28.234 25.784 24.964 25.144
1089.873 26.284 28.764 31.664 34.724 36.764 36.854 34.974 31.974 29.304 26.634
1109.163 25.384 25.924 27.304 29.204 31.484 35.094 40.034 45.824 53.374 63.114
1128.452 75.514 90.704 108.764 129.844 152.634 176.644 201.224 223.314 240.464 251.214
1147.742 251.464 239.784 217.744 190.824 163.344 137.304 115.804 100.774 93.404 93.184
1167.032 96.654 100.954 105.244 110.054 114.514 116.334 114.934 110.224 102.264 91.314
1186.322 78.554 65.214 52.694 42.154 34.144 28.484 24.344 21.594 19.504 18.094
1205.611 17.384 17.124 17.434 18.444 19.664 20.944 22.894 24.804 26.594 28.304
1224.901 29.244 29.914 30.144 29.644 28.774 27.484 25.794 24.184 22.864 21.454
1244.191 20.094 19.014 17.904 16.724 16.004 16.044 16.384 17.014 18.104 19.174
1263.481 20.504 22.134 23.364 24.014 24.104 23.914 23.484 22.744 22.424 22.374
1282.771 22.614 23.414 24.714 26.454 28.364 30.544 33.354 36.774 40.954 46.224
1302.060 52.574 59.884 67.264 73.564 78.084 80.894 82.954 85.934 92.354 105.454
1321.350 127.394 158.054 195.154 233.324 264.044 279.314 274.544 249.194 207.174 157.014
1340.640 110.334 75.924 53.924 40.364 31.804 26.044 22.024 19.174 16.984 15.314
1359.930 14.084 13.104 12.354 11.774 11.384 11.274 11.374 11.714 12.244 12.814
1379.219 13.224 13.434 13.514 13.314 12.974 12.754 12.844 13.144 13.654 14.334
1398.509 15.134 16.064 17.164 18.504 20.104 22.124 24.544 27.334 30.484 33.884
1417.799 37.444 41.464 46.204 51.964 59.294 68.294 78.764 89.524 98.724 104.314
1437.089 105.154 101.094 92.424 80.514 67.784 56.444 47.794 42.054 38.364 36.024
1456.378 34.474 33.294 32.514 31.924 31.474 31.334 31.614 32.504 34.174 36.664
1475.668 40.114 44.884 51.044 58.544 67.004 75.604 82.904 87.394 88.564 86.604
1494.958 82.104 76.174 70.764 67.334 66.384 67.364 69.884 73.644 78.244 83.654
1514.248 89.524 95.454 101.104 105.854 108.934 109.424 106.914 101.484 93.544 83.864
1533.538 73.624 63.664 55.034 47.484 41.154 36.304 32.374 29.254 26.724 24.424
1552.827 22.504 20.924 19.674 18.534 17.564 16.954 16.434 15.954 15.734 15.684
1572.117 15.764 15.954 16.304 16.834 17.464 18.184 18.954 19.884 21.014 22.244
1591.407 23.584 24.984 26.444 27.774 28.614 28.934 28.814 28.214 27.604 27.244
1610.697 27.104 27.414 27.714 27.624 27.024 25.744 24.044 22.364 20.884 19.794
1629.986 19.074 18.634 18.284 17.644 16.734 15.694 14.474 13.234 12.044 10.964
1649.276 10.044 9.434 9.004 8.624 8.414 8.254 8.204 8.264 8.364 8.484
1668.566 8.804 9.344 9.804 10.314 10.924 11.544 12.324 13.134 14.094 15.344
1687.856 16.824 18.674 21.004 23.814 27.544 32.384 38.514 46.674 55.924 66.674
1707.146 77.674 86.984 93.044 95.154 93.074 87.074 77.424 66.204 54.814 44.544
1726.435 36.204 29.884 25.154 21.714 19.004 16.874 15.254 13.894 12.754 11.734
1745.725 10.864 10.154 9.534 8.924 8.354 7.884 7.454 7.004 6.614 6.184
1765.015 5.844 5.564 5.274 5.034 4.764 4.504 4.274 4.054 3.834 3.634
1784.305 3.474 3.334 3.244 3.164 3.034 2.874 2.784 2.764 2.714 2.664
1803.594 2.664 2.604 2.604 2.634 2.624 2.664 2.684 2.654 2.594 2.564
1822.884 2.564 2.564 2.644 2.664 2.634 2.654 2.614 2.534 2.454 2.414
1842.174 2.404 2.364 2.304 2.294 2.344 2.334 2.314 2.314 2.204 2.144
1861.464 2.114 2.004 1.914 1.894 1.934 1.974 1.994 2.034 2.114 2.254
1880.754 2.344 2.354 2.354 2.354 2.354 2.254 2.174 2.084 1.944 1.814
1900.043 1.724 1.644 1.584 1.534 1.494 1.454 1.424 1.474 1.534 1.534
1919.333 1.574 1.644 1.734 1.804 1.814 1.874 1.974 1.964 1.924 1.854
1938.623 1.774 1.764 1.744 1.704 1.664 1.624 1.594 1.544 1.504 1.414
1957.913 1.3208 1.2788 1.245 1.1857 1.0407 0.9558 0.9102 0.8796 0.9153 0.9248
1977.202 0.8571 0.8894 0.9367 0.8719 0.863 0.8786 0.9096 0.9025 0.8701 0.8714
1996.492 0.894 0.8628 0.8016 0.8521 0.8615 0.8102 0.8487 0.8681 0.8352 0.8094
2015.782 0.8278 0.8803 0.836 0.8002 0.8827 0.8753 0.8219 0.8401 0.8768 0.9192
2035.072 0.8705 0.8273 0.8581 0.8553 0.9168 0.9287 0.8651 0.8623 0.8456 0.844
2054.362 0.8406 0.8456 0.8955 0.9109 0.929 0.9226 0.9103 0.9437 0.9663 1.0136
2073.651 1.0232 1.0838 1.2504 1.3089 1.3509 1.3306 1.3332 1.434 1.384 1.3274
2092.941 1.3281 1.2474 1.2101 1.2016 1.1528 1.1567 1.1448 1.0182 0.9061 0.913
2112.231 0.9529 0.9522 0.8954 0.8639 0.85 0.8334 0.7844 0.7457 0.7428 0.6951
2131.521 0.6962 0.8163 0.9201 0.86 0.8298 0.8904 0.8874 0.8736 0.7909 0.715
2150.810 0.8176 0.8843 0.8322 0.7955 0.7915 0.7985 0.7873 0.746 0.8168 0.8743
2170.100 0.8958 0.9026 0.8331 0.8738 0.9409 0.9457 0.9051 0.829 0.8195 0.8759
2189.390 0.8622 0.8954 0.9304 0.8833 0.8807 0.8779 0.8702 0.8925 0.9137 0.9004
2208.680 0.8874 0.8979 0.9005 0.9346 0.9323 0.8662 0.8559 0.8794 0.873 0.8803
2227.970 0.8889 0.8893 0.8919 0.8197 0.7375 0.8233 0.9068 0.9534 1.085 1.0549
2247.259 1.015 1.076 1.0749 1.0875 1.1045 1.0688 1.0416 1.0951 1.1651 1.1746
2266.549 1.2302 1.2417 1.2479 1.2548 1.2829 1.3325 1.2671 1.2456 1.293 1.2863
2285.839 1.2334 1.2138 1.1824 1.1433 1.1487 1.0674 1.0027 1.0774 1.1145 1.1176
2305.129 1.1055 1.0209 0.8961 0.9301 1.0191 1.0305 0.9245 0.8432 0.9262 1.0185
2324.418 1.0811 1.0849 1.118 1.1592 1.1468 1.1388 1.1167 1.1624 1.183 1.187
2343.708 1.2567 1.271 1.2904 1.2992 1.2133 1.0873 1.1472 1.1854 1.0839 1.0294
2362.998 1.0129 1.0381 1.0717 1.0749 1.019 1.0089 1.0889 1.1706 1.0892 0.9791
2382.288 1.0207 1.0109 1.0099 1.0139 0.9756 0.9955 0.9801 0.9551 0.955 1.0271
2401.578 1.0791 1.0013 0.9519 0.9929 0.9775 0.9398 0.9596 0.9001 0.8806 0.9242
2420.867 0.9187 0.8994 0.7701 0.702 0.825 0.8384 0.7768 0.8314 0.8857 0.7872
2440.157 0.8129 0.8265 0.6561 0.632 0.6617 0.7119 0.7747 0.774 0.6982 0.6775
2459.447 0.8261 0.8593 0.8333 0.8709 0.8748 0.8726 0.9369 1.0099 0.9544 0.8815
2478.737 0.9111 0.9525 0.8869 0.9047 1.0092 1.0869 1.0188 0.8854 0.8559 0.9172
2498.026 0.9742 0.9641 0.9663 1.0842 1.1101 1.0346 1.0124 1.049 1.1032 1.0431
2517.316 0.9679 0.9316 0.8915 0.8039 0.7399 0.8148 0.9012 0.8482 0.807 0.8032
2536.606 0.816 0.8471 0.8044 0.7128 0.7662 0.8283 0.8959 0.9146 0.8311 0.7962
2555.896 0.7901 0.8739 0.8859 0.8753 0.8605 0.8981 0.9157 0.8153 0.7691 0.773
2575.186 0.7758 0.7083 0.7445 0.7422 0.7192 0.7583 0.7362 0.8439 0.9028 0.7785
2594.475 0.7368 0.7661 0.7267 0.6676 0.7052 0.7493 0.721 0.714 0.6969 0.6945
2613.765 0.7425 0.7543 0.6991 0.6566 0.6234 0.5845 0.6916 0.7733 0.8288 0.8879
2633.055 0.7936 0.7497 0.7806 0.8476 0.9018 0.8552 0.8914 1.0044 1.0188 0.9732
2652.345 1.0297 1.0467 1.0742 1.0848 1.052 1.0802 1.0954 1.0859 1.0531 1.0156
2671.634 0.8504 0.7313 0.7445 0.7871 0.8046 0.7171 0.6268 0.6848 0.6436 0.5181
2690.924 0.5639 0.6248 0.664 0.6595 0.656 0.6339 0.5577 0.5339 0.515 0.4751
2710.214 0.5136 0.5579 0.529 0.515 0.5285 0.6284 0.6872 0.6387 0.673 0.6736
2729.504 0.6172 0.5909 0.5941 0.6487 0.6977 0.8322 0.9234 0.9199 0.8369 0.7623
2748.794 0.7733 0.7999 0.811 0.7962 0.8168 0.8531 0.8732 0.7836 0.7013 0.6757
2768.083 0.5764 0.5645 0.608 0.6526 0.5726 0.5532 0.6539 0.6043 0.6421 0.5726
2787.373 0.4894 0.5823 0.659 0.6966 0.6991 0.6045 0.6693 0.7639 0.6246 0.6031
2806.663 0.6792 0.6917 0.7304 0.7356 0.6894 0.7432 0.7599 0.7425 0.7967 0.7781
2825.953 0.7602 0.8085 0.8875 0.9601 1.0352 1.1443 1.1314 1.1617 1.2422 1.2829
2845.242 1.354 1.404 1.484 1.624 1.704 1.814 1.884 1.854 1.914 2.034
2864.532 2.114 2.114 2.184 2.304 2.284 2.374 2.474 2.444 2.494 2.614
2883.822 2.594 2.544 2.564 2.594 2.624 2.634 2.784 2.934 2.964 3.044
2903.112 3.054 3.084 3.094 3.114 3.334 3.524 3.604 3.774 3.914 4.014
2922.401 4.334 4.674 5.004 5.474 5.994 6.464 6.954 7.454 7.544 7.384
2941.691 7.114 6.694 6.334 5.944 5.444 5.164 5.164 5.054 4.884 4.874
2960.981 5.024 5.184 5.274 5.364 5.614 5.874 6.044 6.294 6.804 7.494
2980.271 8.144 8.564 8.824 9.214 9.474 9.274 8.854 8.304 7.654 7.004
2999.561 6.204 5.524 5.064 4.574 4.424 4.354 4.124 3.964 4.034 4.144
3018.850 4.184 4.224 4.204 4.274 4.384 4.444 4.534 4.564 4.474 4.514
3038.140 4.544 4.634 4.884 5.024 5.124 5.104 4.994 4.984 4.984 4.944
3057.430 4.964 4.944 5.064 5.234 5.234 5.324 5.504 5.594 5.854 6.164
3076.720 6.714 7.544 8.744 10.514 12.314 13.454 13.624 13.144 12.074 10.164
3096.009 7.984 6.494 5.764 5.344 4.724 4.324 4.114 3.824 3.524 3.254
3115.299 3.064 2.894 2.844 2.794 2.614 2.404 2.204 2.014 1.904 1.784
3134.589 1.694 1.534 1.404 1.404 1.2839 1.3349 1.444 1.2758 1.1314 1.1143
3153.879 1.0464 0.9255 0.8963 0.9662 0.988 0.879 0.7651 0.7647 0.7105 0.6481
3173.169 0.6934 0.7156 0.6884 0.7223 0.7307 0.7012 0.7168 0.6759 0.6241 0.5077
3192.458 0.5035 0.5157 0.5987 0.641 0.6289 0.5473 0.40839 0.5334 0.6084 0.5812
3211.748 0.6755 0.6028 0.43909 0.5064 0.40891 0.41756 0.5777 0.5666 0.543 0.5471
3231.038 0.5223 0.4677 0.4698 0.4814 0.4672 0.4725 0.43706 0.4553 0.5965 0.5624
3250.328 0.37617 0.40309 0.44829 0.39433 0.2904 0.208 0.3409 0.5009 0.37054 0.2994
3269.617 0.44448 0.39775 0.39606 0.38636 0.3199 0.3148 0.2845 0.3068 0.305 0.2945
3288.907 0.4459 0.5343 0.5538 0.4745 0.3273 0.213 0.252 0.4071 0.4635 0.358401
3308.197 0.2956 0.37309 0.39357 0.44419 0.5254 0.4968 0.5324 0.5593 0.5863 0.573
3327.487 0.5479 0.6201 0.5278 0.39105 0.3679 0.6613 0.7561 0.5396 0.4818 0.5474
3346.777 0.5566 0.4639 0.4869 0.5229 0.4958 0.6164 0.6192 0.43731 0.5273 0.6292
3366.066 0.5812 0.6249 0.6045 0.5825 0.4888 0.4945 0.5094 0.498 0.676 0.6335
3385.356 0.6838 0.8598 0.9483 1.0847 1.2102 1.2685 1.404 1.704 1.794 1.824
3404.646 2.034 2.004 1.994 2.294 2.474 2.414 2.174 2.014 2.184 2.074
3423.936 1.844 2.074 2.214 2.114 2.294 2.374 2.384 2.494 2.774 3.304
3443.225 3.664 3.934 4.324 5.054 5.904 6.754 7.684 8.804 9.734 10.414
3462.515 11.214 11.544 11.414 11.034 10.074 8.894 7.754 6.414 5.184 4.364
3481.805 3.714 3.054 2.584 2.264 2.034 1.824 1.644 1.494 1.2896 1.0626
3501.095 0.9753 0.8715 0.7054 0.7253 0.7284 0.7664 0.7206 0.6261 0.6251 0.4898
3520.385 0.4827 0.5834 0.5151 0.4853 0.5183 0.4746 0.39719 0.3 0.3032 0.38478
3539.674 0.469 0.4603 0.231 0.249 0.3284 0.2648 0.3213 0.36823 0.2599 0.3136
3558.964 0.4447 0.2981 0.2974 0.3214 0.219 0.2631 0.2883 0.2672 0.2825 0.311
3578.254 0.2821 0.231 0.175 0.226 0.3069 0.177 0.253 0.36801 0.2878 0.187
3597.544 0.2763 0.3118 0.179 0.088 0.08 0.3232 0.5314 0.2938 0.075 0.135
3616.833 0.176 0.198 0.148 0.244 0.3229 0.239 0.157 0.2587 0.37959 0.3318
3636.123 0.40031 0.34692 0.197 0.223 0.23 0.219 0.3112 0.3364 0.234 0.204
3655.413 0.164 0.161 0.222 0.237 0.2596 0.2662 0.213 0.238 0.227 0.3005
3674.703 0.2818 0.139 0.073 0.227 0.497 0.42849 0.337 0.42233 0.5816 0.4888
3693.993 0.36258 0.2604 0.105 0.175 0.3306 0.2972 0.224 0.2859 0.41563 0.4757
3713.282 0.2746 0.222 0.2803 0.294 0.239 0.249 0.362483 0.238 0.11 0.3081
3732.572 0.39604 0.216 0.159 0.129 0.217 0.225 0.164 0.228 0.241 0.2927
3751.862 0.37777 0.41257 0.359326 0.2807 0.227 0.21 0.231 0.23 0.3277 0.2661
3771.152 0.149 0.178 0.153 0.176 0.246 0.2995 0.2919 0.353421 0.35101 0.197
3790.441 0.114 0.164 0.3153 0.244 0.134 0.172 0.145 0.2833 0.5359 0.42911
3809.731 0.243 0.2871 0.4763 0.5264 0.4751 0.39298 0.37882 0.45183 0.36347 0.2567
3829.021 0.3083 0.37362 0.196 0.211 0.2643 0.16 0.319 0.4371 0.2842 0.3123
3848.311 0.406 0.2829 0.2693 0.228 0.204 0.219 0.213 0.3095 0.231 0.004
3867.601 0 0.203 0.361012 0.3682 0.3082 0.2684 0.207 0.223 0.2794 0.39397
3886.890 0.4585 0.2828 0.134 0.2776 0.39828 0.302 0.2841 0.354142 0.307 0.3005
3906.180 0.2983 0.223 0.156 0.232 0.2642 0.212 0.2714 0.41224 0.3337 0.231
3925.470 0.3347 0.3104 0.360517 0.4372 0.4689 0.4343 0.2581 0.242 0.34677 0.37856
3944.760 0.5286 0.5497 0.3731 0.39028 0.40209 0.3521 0.43609 0.43634 0.4487 0.4898
3964.049 0.5873 0.8203 0.7175 0.6261 0.6462 0.5126 0.6032 0.44151 0.236 0.359077
3983.339 0.38307 0.45086 0.549 0.6138 0.5675 0.6202 0.5795 0.41158 0.39094 0.45183
##END=
