##TITLE=N-[2-Amino-4-(trifluoromethyl)phenyl]morpholine
##JCAMP-DX=4.24
##DATA TYPE=INFRARED SPECTRUM
##ORIGIN=EPA-IR VAPOR PHASE LIBRARY
##OWNER=SRD/NIST
Collection (C) 2018 copyright by the U.S. Secretary of Commerce
on behalf of the United States of America. All rights reserved.
##CAS REGISTRY NO=784-57-6
##MOLFORM=C 11 H 13 F 3 N 2 O
##$NIST SOURCE=MSDC-IR
##STATE=gas
##XUNITS=1/CM
##YUNITS=ABSORBANCE
##XFACTOR=1.
##YFACTOR=0.001
##DELTAX=1.92898
##FIRSTX=549.8
##LASTX=4000.7
##FIRSTY=12.081
##MAXX=4000.7
##MINX=549.759
##MAXY=0.312821
##MINY=0
##NPOINTS=1790
##XYDATA=(X++(Y..Y))
549.759 12.081 10.881 9.861 9.701 10.081 9.861 10.241 10.701 10.721 10.641
569.049 11.831 12.411 11.091 11.641 13.361 13.161 12.771 13.061 13.351 13.681
588.339 13.451 13.621 13.541 13.961 13.911 13.331 12.971 13.331 13.211 12.631
607.628 12.801 12.301 12.001 12.451 12.201 12.231 12.451 11.861 12.171 12.711
626.918 12.631 12.521 12.401 12.371 12.351 12.021 12.191 12.111 12.821 13.631
646.208 14.341 16.861 19.931 23.971 28.391 31.671 33.641 33.871 32.101 28.991
665.498 25.781 22.691 20.661 19.631 17.851 15.981 14.801 13.491 12.371 12.291
684.787 11.791 10.951 11.211 11.641 11.601 11.821 11.491 10.771 10.701 10.351
704.077 10.121 10.371 10.591 10.471 9.851 9.331 9.561 10.241 10.791 10.961
723.367 11.601 12.791 13.471 14.251 14.901 15.041 14.651 14.981 14.961 14.801
742.657 15.971 16.531 17.181 17.431 16.601 15.201 13.131 10.961 9.301 8.521
761.947 7.881 7.631 7.331 7.781 8.121 7.411 7.291 7.251 7.531 8.401
781.236 8.361 8.101 8.591 8.751 9.271 9.491 9.191 9.381 9.971 10.731
800.526 12.481 14.711 16.551 18.971 20.511 21.871 23.131 23.801 22.441 19.391
819.816 16.451 15.301 14.691 12.421 11.411 10.811 9.831 9.151 9.201 9.681
839.106 10.371 11.151 11.461 12.281 13.171 13.711 14.771 15.481 16.091 17.881
858.395 19.821 21.741 24.041 25.831 27.121 28.531 29.341 28.291 26.531 25.251
877.685 24.351 24.091 24.631 26.081 29.081 34.351 42.341 53.111 64.361 73.081
896.975 77.811 77.281 70.241 58.621 46.511 36.971 30.471 26.271 23.931 22.491
916.265 21.651 20.811 19.541 18.921 18.351 17.571 17.181 17.191 17.931 18.011
935.555 18.291 19.151 19.841 20.421 20.051 19.061 17.571 15.301 13.231 11.831
954.844 10.781 9.571 8.831 7.901 7.131 6.771 6.421 6.191 5.311 4.911
974.134 5.801 6.121 5.101 5.391 5.831 5.571 4.921 4.621 5.311 5.451
993.424 4.761 4.741 5.791 5.791 5.301 5.201 4.921 5.131 5.311 6.051
1012.714 6.911 6.931 6.271 6.031 7.041 7.841 8.291 8.061 8.831 10.021
1032.003 10.281 10.891 11.451 11.971 12.531 13.181 13.781 13.861 14.831 16.641
1051.293 18.121 19.311 21.071 23.751 26.421 29.011 32.101 34.421 34.501 34.131
1070.583 33.571 31.551 31.131 31.181 29.981 29.731 29.941 30.961 33.661 37.831
1089.873 42.011 46.151 48.581 49.871 51.321 51.011 50.031 49.821 52.721 57.811
1109.163 63.361 71.901 82.361 92.121 100.901 110.941 122.281 131.591 140.791 149.651
1128.452 159.801 173.191 188.461 206.361 222.651 237.811 249.601 251.221 243.751 226.561
1147.742 201.421 173.241 145.691 121.861 106.281 100.371 101.921 110.771 124.591 140.331
1167.032 154.011 163.931 168.301 163.461 151.901 136.351 118.541 100.741 84.741 72.901
1186.322 62.551 53.331 49.051 46.511 45.391 48.601 54.251 60.431 68.771 77.121
1205.611 86.161 95.141 100.641 106.131 111.001 111.511 109.301 105.941 98.641 86.571
1224.901 72.871 60.511 50.691 44.761 40.231 37.851 38.251 40.241 42.651 45.141
1244.191 49.201 53.251 57.491 61.701 63.841 64.351 63.931 60.961 55.811 51.201
1263.481 46.181 40.251 34.721 31.191 29.071 27.151 26.211 26.611 27.731 29.051
1282.771 30.951 33.701 36.491 38.731 40.401 40.781 40.371 39.201 37.611 35.841
1302.060 34.021 32.911 33.061 34.111 35.501 38.311 42.351 47.781 56.011 68.611
1321.350 87.211 112.871 146.631 188.131 233.241 274.511 303.491 312.821 299.041 264.441
1340.640 217.071 168.171 126.031 94.391 72.671 58.331 48.741 42.441 38.741 36.991
1359.930 36.341 36.061 36.211 36.431 36.551 36.421 35.441 33.371 30.561 27.121
1379.219 23.101 19.551 16.811 14.861 13.811 13.121 12.461 11.981 11.581 11.241
1398.509 11.221 11.341 11.381 11.621 12.241 12.871 13.521 14.351 15.481 17.191
1417.799 19.201 21.881 25.361 29.251 34.161 40.101 46.781 54.331 62.231 69.091
1437.089 74.411 77.091 76.421 72.461 66.071 59.221 53.291 48.461 44.551 40.971
1456.378 36.921 32.661 28.651 24.341 20.481 17.481 15.231 13.401 11.931 10.841
1475.668 10.101 9.301 8.861 8.491 7.871 7.611 7.611 7.921 8.261 8.381
1494.958 9.001 10.341 11.831 13.651 16.081 19.021 22.891 27.341 30.791 33.111
1514.248 33.661 32.161 29.081 24.971 20.691 17.581 15.321 13.841 12.981 12.311
1533.538 11.841 11.151 10.481 9.831 9.141 8.581 8.241 8.051 7.901 7.941
1552.827 8.031 8.291 8.691 9.291 9.451 9.801 10.621 11.331 12.101 13.031
1572.117 14.071 14.941 16.131 17.461 19.021 21.101 23.261 25.821 28.401 31.001
1591.407 33.621 35.741 37.891 39.271 39.811 40.391 41.061 42.121 43.061 44.171
1610.697 45.261 46.481 47.401 47.451 46.151 43.781 40.901 37.521 33.741 29.921
1629.986 26.191 22.951 20.341 17.851 16.011 14.221 12.781 11.931 11.051 10.091
1649.276 9.251 8.631 7.891 7.401 6.911 6.191 5.921 5.891 5.631 5.481
1668.566 5.431 5.181 4.961 4.921 4.921 4.861 4.841 4.861 4.661 4.351
1687.856 4.181 4.091 3.991 3.901 3.671 3.391 3.121 3.191 3.331 3.191
1707.146 3.161 3.241 3.301 3.211 3.331 3.591 3.861 3.991 4.151 4.491
1726.435 4.661 4.901 5.241 5.401 5.291 5.241 5.141 5.001 4.921 4.781
1745.725 4.701 4.401 4.011 3.531 3.301 3.231 3.061 2.861 2.701 2.721
1765.015 2.881 3.011 2.961 2.761 2.631 2.511 2.401 2.431 2.311 2.371
1784.305 2.281 2.241 2.511 2.511 2.441 2.451 2.471 2.511 2.431 2.261
1803.594 2.211 2.291 2.321 2.471 2.501 2.351 2.291 2.201 2.131 2.311
1822.884 2.491 2.411 2.441 2.491 2.451 2.441 2.431 2.501 2.371 2.401
1842.174 2.721 2.861 2.981 3.001 2.861 2.791 2.981 3.071 3.071 3.161
1861.464 3.141 3.221 3.141 3.031 3.231 3.121 2.991 3.081 2.941 2.731
1880.754 2.551 2.411 2.331 2.191 2.271 2.331 2.131 2.041 2.091 2.121
1900.043 2.081 2.011 2.111 2.261 2.331 2.341 2.201 2.211 2.141 1.981
1919.333 2.241 2.301 2.121 2.161 2.141 2.011 1.931 2.011 2.101 2.201
1938.623 2.301 2.301 2.321 2.381 2.521 2.591 2.451 2.581 2.721 2.841
1957.913 2.951 2.851 2.911 3.011 3.061 2.991 2.981 3.061 2.991 3.041
1977.202 2.871 2.671 2.731 2.441 2.111 2.151 2.051 1.871 1.881 1.821
1996.492 1.831 1.901 1.971 2.031 2.011 2.181 2.071 1.821 1.791 1.771
2015.782 1.881 1.851 1.931 2.001 1.841 1.801 1.781 1.801 1.901 1.981
2035.072 2.131 2.171 2.121 2.081 2.111 2.171 2.141 2.061 2.041 2.081
2054.362 2.101 2.271 2.311 2.431 2.511 2.421 2.441 2.251 2.171 2.411
2073.651 2.461 2.471 2.571 2.471 2.371 2.301 2.181 2.071 2.071 2.191
2092.941 2.231 2.291 2.291 2.091 2.061 2.131 2.031 1.971 2.071 2.061
2112.231 1.771 1.531 1.611 1.811 1.731 1.601 1.761 1.901 1.941 1.801
2131.521 1.701 1.821 1.941 2.011 1.991 1.971 1.881 1.851 1.901 1.931
2150.810 1.801 1.911 2.051 1.701 1.4589 1.511 1.651 1.781 1.741 1.661
2170.100 1.531 1.551 1.821 1.811 1.751 1.841 1.891 2.041 1.991 2.001
2189.390 2.171 1.981 1.701 1.711 1.751 1.721 1.821 1.731 1.731 1.971
2208.680 2.201 2.171 1.841 1.811 1.901 1.871 2.011 2.081 2.331 2.321
2227.970 2.141 2.271 2.231 2.281 2.541 2.471 2.491 2.611 2.371 2.231
2247.259 2.201 2.141 2.101 2.281 2.541 2.571 2.521 2.661 2.721 2.601
2266.549 2.501 2.421 2.421 2.371 2.511 2.471 2.291 2.391 2.701 2.671
2285.839 2.341 2.321 2.261 2.201 2.091 1.931 2.131 2.461 2.381 2.261
2305.129 2.311 2.251 2.061 1.871 1.911 2.181 2.241 2.101 2.191 2.181
2324.418 1.861 1.851 2.001 1.981 2.131 2.331 2.271 2.101 2.211 2.131
2343.708 2.141 1.991 1.621 1.4755 1.641 1.941 1.771 1.711 1.921 2.021
2362.998 1.881 1.771 1.761 1.531 1.711 1.851 1.521 1.681 2.031 1.711
2382.288 1.2772 1.571 1.901 1.821 1.781 1.801 1.691 1.541 1.511 1.701
2401.578 1.801 1.971 1.731 1.5078 1.751 1.831 2.031 2.041 1.871 1.971
2420.867 2.001 1.891 1.881 1.951 1.921 2.031 1.801 1.531 1.551 1.611
2440.157 1.671 1.581 1.551 1.721 1.751 1.591 1.437 1.4622 1.741 1.751
2459.447 1.741 1.771 1.921 1.901 1.721 1.831 1.881 2.021 2.001 1.951
2478.737 2.101 1.791 1.791 1.921 1.781 1.831 2.021 2.101 2.221 2.061
2498.026 1.821 1.841 1.941 2.001 1.931 1.811 1.691 1.881 2.091 1.941
2517.316 1.681 1.811 2.111 2.151 2.061 2.201 2.241 2.201 2.171 2.301
2536.606 2.181 2.011 1.731 1.4205 1.951 2.401 2.511 2.431 2.231 2.461
2555.896 2.531 2.271 2.441 2.501 2.321 2.421 2.141 1.871 1.971 1.961
2575.186 2.151 2.171 1.741 1.791 2.031 2.071 2.411 2.281 1.921 1.921
2594.475 2.021 2.161 2.171 2.331 2.341 2.141 1.941 2.121 2.401 2.571
2613.765 2.791 2.671 2.351 2.031 2.291 2.621 2.821 2.691 2.281 2.471
2633.055 2.391 2.691 3.111 2.901 2.891 3.131 3.221 3.071 3.071 3.071
2652.345 3.081 3.511 3.711 3.581 3.481 3.731 3.881 3.971 4.281 4.381
2671.634 4.341 4.471 4.651 4.921 5.041 4.891 5.011 5.491 5.851 5.631
2690.924 5.391 5.101 4.731 4.681 4.581 4.221 4.031 4.151 3.931 3.961
2710.214 4.371 4.021 3.721 4.031 4.281 4.451 4.521 4.711 5.011 5.181
2729.504 5.441 5.421 5.361 5.731 6.161 5.971 5.591 5.651 5.851 5.931
2748.794 5.921 6.221 6.541 6.491 6.391 6.491 6.571 6.571 6.341 5.951
2768.083 5.741 5.541 5.521 5.361 5.341 5.471 5.281 5.021 5.061 5.461
2787.373 5.661 5.601 5.581 5.591 5.811 6.271 6.691 6.971 7.471 8.281
2806.663 8.851 9.461 10.431 11.561 13.041 15.021 17.611 20.661 24.061 28.051
2825.953 32.241 36.611 40.921 44.831 47.971 49.281 48.981 47.801 46.661 45.751
2845.242 45.371 46.211 47.931 50.721 54.061 57.281 59.571 59.801 57.731 53.541
2864.532 47.981 41.731 35.871 31.071 26.781 23.251 20.951 19.771 19.331 19.171
2883.822 19.041 19.241 19.921 20.391 21.231 22.371 22.951 23.261 23.671 23.621
2903.112 23.581 23.361 22.981 22.651 22.101 21.591 20.601 19.781 19.171 18.671
2922.401 17.991 17.231 16.321 15.181 14.691 14.201 13.351 13.091 13.441 14.161
2941.691 15.041 16.401 18.531 20.731 23.001 25.241 27.201 29.541 32.421 35.491
2960.981 39.511 44.301 49.721 56.381 63.841 69.501 69.721 65.011 57.881 47.831
2980.271 36.351 26.351 19.211 14.731 11.141 8.611 7.241 6.571 5.861 5.011
2999.561 4.481 3.801 3.381 3.711 3.991 3.851 3.901 3.661 3.431 3.561
3018.850 3.351 3.191 3.291 3.211 3.291 3.631 3.741 3.681 3.881 4.211
3038.140 4.341 4.301 4.461 5.081 5.531 5.391 5.421 5.871 5.761 5.121
3057.430 4.821 4.741 4.681 4.421 3.971 4.211 4.051 3.361 3.511 3.761
3076.720 3.591 3.661 3.961 3.671 3.241 3.411 3.971 4.151 3.931 3.741
3096.009 3.591 3.481 3.201 3.011 2.941 2.831 3.051 2.691 1.881 1.681
3115.299 1.851 2.181 2.211 1.771 1.2816 1.4138 1.961 2.081 1.751 1.631
3134.589 1.881 1.781 1.531 1.4022 1.249 1.611 2.011 2.051 2.061 1.771
3153.879 1.541 1.521 1.4291 1.521 1.2641 1.0359 1.531 1.541 1.4869 1.681
3173.169 1.671 2.081 2.211 1.751 1.3076 1.0066 1.0903 1.1442 1.019 1.711
3192.458 2.191 1.921 1.453 1.2964 1.611 1.871 1.4735 1.3488 1.731 1.4929
3211.748 1.1884 1.831 2.031 1.4497 1.661 1.4755 1.2242 1.3319 1.4425 1.561
3231.038 1.5002 1.741 2.181 2.131 2.021 1.761 0.8214 0.403 1.097 1.541
3250.328 1.0343 0.61051 0.8464 0.8586 0.8845 0.9208 0.6991 0.54191 0.651 0.9052
3269.617 0.7863 1.0647 1.0823 1.0678 1.293 1.0469 1.4402 1.851 1.3921 1.0527
3288.907 1.0784 1.4184 1.651 1.42 1.192 0.8461 0.6693 0.60411 0.6729 1.3712
3308.197 1.3985 1.1883 0.9724 0.7384 1.3651 1.611 1.4616 1.284 1.0534 1.2985
3327.487 1.424 1.3303 1.2328 1.3496 1.641 1.701 1.951 1.661 1.3034 1.581
3346.777 1.741 1.851 1.541 2.001 2.861 2.961 2.751 2.751 3.701 4.951
3366.066 6.201 7.471 8.821 9.901 11.221 12.111 12.461 12.831 12.241 11.491
3385.356 10.361 9.621 8.691 7.541 6.851 6.011 5.171 4.531 4.321 4.091
3404.646 4.101 3.811 3.331 3.321 3.301 3.221 3.181 2.771 2.851 3.181
3423.936 2.601 1.991 2.081 2.451 2.201 2.171 2.671 2.501 2.151 2.141
3443.225 2.221 1.941 2.221 2.811 3.061 3.411 3.661 4.021 4.321 4.721
3462.515 5.201 6.141 6.851 7.531 8.551 9.421 10.411 11.911 13.491 14.171
3481.805 14.101 14.031 14.201 13.451 12.281 11.291 10.451 9.561 7.931 6.371
3501.095 6.361 6.271 5.641 4.921 4.401 4.611 4.381 3.981 4.011 3.901
3520.385 3.501 3.331 3.351 3.391 3.751 3.671 3.111 2.591 2.511 2.411
3539.674 1.931 1.791 1.781 1.2725 1.1085 1.3157 1.1492 1.2952 1.3351 1.671
3558.964 1.3184 0.9289 1.621 1.4745 1.1222 1.2327 1.4995 1.3284 1.069 1.321
3578.254 1.4962 1.561 1.3834 1.3389 1.2806 1.136 0.8377 0.7044 1.2217 1.4937
3597.544 0.8695 0.7062 0.9701 0.7656 1.0981 0.8848 0.632 1.0648 1.0886 1.1966
3616.833 1.1709 1.0649 0.9629 0.7736 0.8442 0.9143 0.55795 0.6251 1.1478 1.4176
3636.123 1.4433 1.3303 0.7215 0.476 1.1228 1.1853 1.0196 1.0302 0.59723 0
3655.413 0.325 1.1464 1.1601 0.9114 0.7525 0.7521 0.7439 0.839 0.8002 0.6149
3674.703 0.8601 1.1748 1.1539 1.0451 1.0966 1.0453 0.54934 0.719 1.3723 1.2701
3693.993 1.3174 1.4732 1.0217 0.6841 1.0599 1.0844 0.7514 0.50707 0.195 0.9084
3713.282 1.4807 0.7708 0.4666 0.8491 1.1683 1.1028 0.719 0.7469 1.2077 1.4858
3732.572 1.851 1.941 1.0967 0.931 1.4793 1.751 1.3804 0.7993 0.9127 1.2405
3751.862 0.868 0.7064 1.2434 1.591 1.621 1.3833 1.2573 1.1263 0.9962 0.6209
3771.152 0.8247 0.9288 0.7989 1.0047 0.4616 0.029 0.352 0.9746 1.0585 0.7649
3790.441 1.1751 1.2711 0.9932 0.6249 0.6187 0.9753 1.2024 1.398 0.9632 1.116
3809.731 1.631 1.3398 0.7594 1.044 1.3662 0.6939 0.4451 1.2125 1.4194 1.561
3829.021 1.511 0.8364 0.7894 1.4888 1.551 1.1074 0.8552 0.7146 0.8369 0.9014
3848.311 0.7055 1.0044 1.2881 1.0952 1.4018 1.2804 1.0592 0.8508 0.8148 1.1139
3867.601 1.0793 1.3916 1.571 1.4218 1.4443 1.541 1.4909 1.3077 1.1708 1.2913
3886.890 1.4114 0.8279 0.54316 0.7662 0.9899 1.4846 1.0961 0.7485 0.8646 0.6491
3906.180 0.8497 0.8513 1.0273 0.9146 0.6861 1.2271 1.4533 1.3233 1.3067 1.3699
3925.470 1.811 2.071 1.641 1.259 1.3053 1.315 1.1272 1.561 2.001 1.541
3944.760 1.1614 1.1962 1.631 1.981 1.971 2.061 2.071 1.4087 1.1119 1.741
3964.049 2.001 1.921 2.021 1.551 1.531 2.331 2.031 1.821 2.061 1.4424
3983.339 1.1398 1.641 1.681 1.921 2.261 1.711 1.3694 1.591 1.29 0.9343
##END=
