##TITLE=4-Amino-3,5-dichlorobenzonitrile
##JCAMP-DX=4.24
##DATA TYPE=INFRARED SPECTRUM
##ORIGIN=EPA-IR VAPOR PHASE LIBRARY
##OWNER=SRD/NIST
Collection (C) 2018 copyright by the U.S. Secretary of Commerce
on behalf of the United States of America. All rights reserved.
##CAS REGISTRY NO=78473-00-4
##MOLFORM=C 7 H 4 Cl 2 N 2
##$NIST SOURCE=MSDC-IR
##STATE=gas
##XUNITS=1/CM
##YUNITS=ABSORBANCE
##XFACTOR=1.
##YFACTOR=0.001
##DELTAX=3.85796
##FIRSTX=551.7
##LASTX=4000.7
##FIRSTY=8.04
##MAXX=4000.7
##MINX=551.688
##MAXY=0.10561
##MINY=0.0005693
##NPOINTS=895
##XYDATA=(X++(Y..Y))
551.688 8.04 6.9 6.16 5.64 5.26 5.21 5.37 5.43 5.63 5.94
590.268 6.75 7.93 9.65 12.1 11.15 9.15 8.02 6.64 6.03 5.89
628.847 5.91 5.81 5.72 5.6 5.54 5.62 5.79 6.06 6.46 6.82
667.427 7.29 7.84 8.42 9.08 9.81 10.7 11.79 13.28 15.31 18.2
706.006 22.24 26.8 30.05 32.16 32.11 28.12 24.11 21.2 18.79 17.32
744.586 16.21 15.25 14.44 13.84 13.43 13.42 13.92 15.07 16.69 18.9
783.165 22.14 26.44 31.54 36.88 41.13 42.87 41.38 36.69 29.97 23.09
821.745 17.84 14.69 12.84 11.65 10.84 10.26 9.82 9.42 9.15 9.11
860.324 9.76 11.63 15.34 20.31 25.82 31.24 28.64 21.71 17.43 13.86
898.904 12.33 12.24 12.35 12.03 11.05 9.8 8.61 7.63 6.83 6.14
937.484 5.69 5.41 5.19 5.13 5.13 5.09 5.08 4.98 4.88 4.78
976.063 4.7 4.63 4.58 4.51 4.41 4.34 4.23 4.1 3.97 3.86
1014.643 3.74 3.69 3.71 3.67 3.65 3.61 3.61 3.78 4.12 4.96
1053.222 6.73 10.07 15.62 22.49 27.96 31.09 30.94 26.75 21.31 16.53
1091.802 12.31 9.23 7.69 7.2 7.19 7.46 7.74 7.67 7.2 6.45
1130.381 5.54 4.7 4.06 3.59 3.17 3.11 3.34 3.66 4.31 5.08
1168.961 5.84 6.55 6.96 7.12 7.38 8.08 9.57 12.18 15.92 20.23
1207.540 23.47 23.65 20.37 14.78 9.44 7.09 6.82 6.45 5.79 4.66
1246.120 3.35 2.54 2.22 2.2 2.32 2.57 2.93 3.45 4.33 5.75
1284.699 8.07 11.74 16.78 22.07 25.58 25.85 22.68 17.1 11.41 7.48
1323.279 5.37 4.32 3.68 3.14 2.71 2.45 2.27 2.2 2.24 2.31
1361.859 2.42 2.61 2.87 3.22 3.67 4.24 5.04 6.43 8.72 11.52
1400.438 13.21 12.99 11.26 8.46 5.91 4.69 4.51 4.93 5.91 7.42
1439.018 9.19 10.79 12.05 13.17 14.95 18.96 26.63 39.73 56.53 72.23
1477.597 83.25 90.22 89.66 79.34 65.48 48.42 30.2 18.55 12.92 10.2
1516.177 8.61 7.71 7.24 7.24 7.88 9.61 13.2 18.9 25.05 29.32
1554.756 30.11 26.9 20.74 15.66 13.45 13.21 13.43 13.73 14.52 16.49
1593.336 20.67 28.06 39.56 54.59 70.73 86.85 101.06 105.61 98.45 81.93
1631.915 57.9 34.44 19.88 12.77 9.16 7.36 6.33 5.76 5.5 5.35
1670.495 5.26 5.16 4.97 4.71 4.29 3.83 3.39 3.02 2.79 2.69
1709.075 2.62 2.59 2.56 2.49 2.39 2.29 2.21 2.21 2.35 2.69
1747.654 3.28 4.17 5.16 5.86 5.98 5.54 4.66 3.64 2.89 2.4
1786.234 2.1 1.93 1.81 1.72 1.67 1.65 1.64 1.64 1.64 1.65
1824.813 1.66 1.63 1.6 1.58 1.54 1.53 1.53 1.49 1.48 1.48
1863.393 1.45 1.42 1.4 1.37 1.31 1.27 1.25 1.22 1.19 1.18
1901.972 1.17 1.18 1.19 1.17 1.16 1.14 1.12 1.1 1.08 1.07
1940.552 1.05 1.04 1.07 1.09 1.11 1.13 1.15 1.18 1.18 1.17
1979.131 1.18 1.2 1.2 1.2 1.23 1.28 1.32 1.35 1.38 1.36
2017.711 1.32 1.29 1.24 1.18 1.14 1.11 1.09 1.06 1.03 1
2056.291 0.9866 0.9763 0.9782 0.9708 0.9674 0.9917 1.01 1.02 1.04 1.05
2094.870 1.05 1.06 1.06 1.03 1.02 1.01 1 0.9863 0.9817 1.04
2133.450 1.11 1.17 1.22 1.26 1.27 1.28 1.28 1.25 1.22 1.2
2172.029 1.21 1.25 1.32 1.34 1.34 1.37 1.44 1.57 1.77 2.12
2210.609 2.7 3.71 5.48 8.38 12.41 16.65 19.31 19.09 15.91 10.76
2249.188 6.02 3.42 2.38 1.92 1.65 1.44 1.29 1.18 1.12 1.1
2287.768 1.12 1.14 1.15 1.19 1.21 1.24 1.27 1.26 1.23 1.17
2326.347 1.1 1.08 1.11 1.15 1.21 1.24 1.26 1.28 1.26 1.26
2364.927 1.26 1.25 1.24 1.22 1.19 1.19 1.18 1.17 1.17 1.14
2403.507 1.09 1.02 1.02 1.02 1.01 1.02 0.9923 0.9177 0.9146 0.9301
2442.086 0.9108 0.902 0.8505 0.8192 0.8269 0.8398 0.8627 0.8596 0.8789 0.886
2480.666 0.8646 0.8358 0.8119 0.8036 0.821 0.8575 0.8929 0.9591 1.05 1.17
2519.245 1.3 1.49 1.76 2 2.14 2.15 2.03 1.79 1.52 1.33
2557.825 1.21 1.19 1.19 1.23 1.29 1.36 1.49 1.66 1.89 2.15
2596.404 2.4 2.62 2.74 2.73 2.59 2.33 2.01 1.74 1.58 1.44
2634.984 1.34 1.36 1.38 1.34 1.31 1.29 1.24 1.15 1.08 1
2673.563 0.9353 0.8864 0.885 0.9211 0.9211 0.9065 0.9063 0.8868 0.8571 0.8149
2712.143 0.7568 0.6973 0.6538 0.6775 0.6739 0.6224 0.6415 0.65 0.6472 0.6873
2750.722 0.7326 0.7726 0.7732 0.8084 0.8812 0.9172 0.9405 0.9503 0.9471 0.9383
2789.302 0.9031 0.8344 0.7764 0.7066 0.6738 0.6604 0.629 0.6356 0.6255 0.638
2827.882 0.6878 0.7458 0.8061 0.8495 0.8207 0.803 0.8215 0.8055 0.7949 0.7534
2866.461 0.7077 0.6844 0.6988 0.6775 0.7035 0.7936 0.8094 0.8642 0.9274 0.9872
2905.041 1.09 1.16 1.19 1.2 1.18 1.14 1.12 1.04 0.9034 0.7817
2943.620 0.7846 0.7904 0.7422 0.7371 0.7227 0.6747 0.6412 0.6504 0.6085 0.5693
2982.200 0.6309 0.6394 0.6488 0.6382 0.6342 0.6653 0.6463 0.6873 0.7615 0.7723
3020.779 0.7595 0.7935 0.8135 0.8338 0.878 0.8531 0.8413 0.9014 0.882 0.8394
3059.359 0.8806 0.9536 1.01 1.07 1.1 1.15 1.23 1.26 1.3 1.4
3097.938 1.58 1.71 1.84 1.98 1.97 1.84 1.66 1.51 1.38 1.25
3136.518 1.2 1.17 1.1 1.07 1.06 1.09 1.13 1.14 1.22 1.38
3175.098 1.46 1.5 1.59 1.63 1.62 1.54 1.43 1.32 1.15 1.02
3213.677 0.9602 0.8483 0.7908 0.8068 0.7904 0.7567 0.6746 0.7284 0.8117 0.7552
3252.257 0.7133 0.7261 0.746 0.6887 0.6407 0.6474 0.7108 0.7162 0.6816 0.7049
3290.836 0.7106 0.7019 0.6851 0.7257 0.7906 0.7768 0.7527 0.7324 0.7698 0.8075
3329.416 0.7932 0.7785 0.7805 0.8207 0.8853 0.9399 0.9967 1.04 1.09 1.27
3367.995 1.51 1.81 2.28 2.93 3.87 5.17 6.85 9.03 11.71 14.92
3406.575 18.72 22.17 24.29 25.51 26.35 27.44 28.7 28.04 24.58 19.06
3445.154 12.66 7.78 5.33 4.28 3.82 3.7 3.87 4.15 4.59 5.15
3483.734 5.88 6.97 8.25 9.62 11.21 13.28 15.51 17.16 17.9 17.73
3522.314 16.88 16.4 17.3 19.03 19.8 18.52 15.5 11.3 7.15 4.43
3560.893 3.07 2.35 1.92 1.62 1.39 1.26 1.22 1.25 1.2 1.16
3599.473 1.15 1.11 1.08 1.01 0.9706 0.8938 0.8428 0.8088 0.7955 0.768
3638.052 0.64 0.599 0.6649 0.71 0.737 0.7029 0.638 0.6384 0.6389 0.6194
3676.632 0.6331 0.6327 0.6266 0.6947 0.69 0.6774 0.7589 0.8099 0.8271 0.804
3715.211 0.8218 0.8137 0.7764 0.7832 0.7669 0.7913 0.8065 0.7618 0.7062 0.6968
3753.791 0.7209 0.6765 0.6317 0.6571 0.6901 0.6858 0.69 0.6447 0.6237 0.7
3792.370 0.7409 0.7758 0.7958 0.7938 0.8462 0.909 0.8893 0.916 0.8796 0.8747
3830.950 0.8954 0.8046 0.8264 0.8613 0.8537 0.8957 0.9896 1.02 0.9577 0.9543
3869.530 0.9482 0.9292 0.995 1 0.9606 0.9967 1.09 1.11 1.08 1.08
3908.109 1.07 1.06 1.16 1.24 1.29 1.41 1.51 1.54 1.44 1.34
3946.689 1.26 1.15 1.02 0.9203 0.938 0.8954 0.7861 0.8135 0.8745 0.8421
3985.268 0.8059 0.82 0.8682 0.9222 0.8875
##END=
