##TITLE=4-Acetylbibenzyl
##JCAMP-DX=4.24
##DATA TYPE=INFRARED SPECTRUM
##ORIGIN=EPA-IR VAPOR PHASE LIBRARY
##OWNER=SRD/NIST
Collection (C) 2018 copyright by the U.S. Secretary of Commerce
on behalf of the United States of America. All rights reserved.
##CAS REGISTRY NO=785-78-4
##MOLFORM=C 16 H 16 O
##$NIST SOURCE=MSDC-IR
##STATE=gas
##XUNITS=1/CM
##YUNITS=ABSORBANCE
##XFACTOR=1.
##YFACTOR=0.001
##DELTAX=3.85796
##FIRSTX=551.7
##LASTX=4000.7
##FIRSTY=7.22
##MAXX=4000.7
##MINX=551.688
##MAXY=0.14005
##MINY=0.0007008
##NPOINTS=895
##XYDATA=(X++(Y..Y))
551.688 7.22 7.76 7.94 8.51 10.14 12.43 14.25 15.17 16.05 18.24
590.268 21.88 25.66 26.6 22.53 15.93 10.66 7.61 5.91 4.96 4.44
628.847 4.2 4.19 4.34 4.55 5.05 5.94 7.12 8.41 9.33 9.72
667.427 9.68 9.8 10.65 12.34 15.05 18.97 24.82 31.06 33.06 29.47
706.006 23.77 19.13 16 13.98 12.89 12.69 13.43 15.2 17.73 19.72
744.586 19.39 16.47 12.87 10.43 9.11 8.03 6.94 6.11 5.76 5.82
783.165 6.14 6.45 6.8 7.5 8.85 11.16 14.55 19.13 23.81 25.97
821.745 23.94 19.24 14.94 12.4 10.86 9.28 7.66 6.47 5.79 5.46
860.324 5.19 4.83 4.38 3.94 3.58 3.33 3.24 3.24 3.29 3.38
898.904 3.49 3.59 3.71 3.88 4.23 4.8 5.69 6.88 7.97 8.95
937.484 10.51 13.54 18.1 22.27 23.19 20.06 15.27 11.36 8.94 7.56
976.063 6.68 6.09 5.64 5.37 5.36 5.52 5.9 6.62 8.09 11.11
1014.643 14.22 14.35 11.73 9.65 8.87 7.5 5.76 4.74 4.45 4.48
1053.222 4.78 5.36 6.39 7.96 9.59 10.45 9.75 7.85 6.1 5.09
1091.802 4.57 4.4 4.6 4.93 5.19 5.26 5.11 4.72 4.35 4.15
1130.381 4.1 4.12 4.16 4.39 4.67 4.79 4.99 5.29 5.72 6.49
1168.961 8.07 11.31 17.63 25.24 28.01 23.58 16.92 12.99 11.19 10.18
1207.540 9.98 10.77 12.4 14.64 17.77 21.87 26.62 30.74 33.41 36.34
1246.120 43.51 59.67 87.93 120.5 134.85 113.94 74.2 43.87 28.85 21.81
1284.699 18.25 16.22 14.79 13.62 12.59 11.55 10.39 9.24 8.36 7.91
1323.279 7.93 8.41 9.39 10.95 13.09 15.62 18.94 24.37 33.05 41.63
1361.859 43.24 36.05 25.91 18.27 13.85 11.51 10.41 10.14 10.63 12.03
1400.438 14.44 17.61 20.38 20.97 19.01 16.01 13.82 12.82 12.68 13.14
1439.018 14.16 15.52 16.5 16.34 14.92 12.57 10.27 8.51 7.42 6.9
1477.597 6.86 7.43 8.84 11.61 15.2 17.07 15.1 10.78 7.33 5.82
1516.177 5.16 4.91 4.83 4.87 4.95 5.03 5.11 5.24 5.48 5.92
1554.756 6.61 7.65 8.9 10.08 10.94 11.14 11.06 11.59 13.63 17.73
1593.336 24.35 33.33 42.74 48.3 46 36.66 25.47 17.31 12.88 10.54
1631.915 9.28 8.48 8 7.83 8.01 8.48 9.23 10.17 11.24 12.36
1670.495 13.9 16.18 19.73 25.31 35.03 51.33 78.81 115.57 140.05 130.45
1709.075 94.79 61.14 40.09 27.94 20.98 16.49 13.45 11.18 9.68 8.66
1747.654 7.98 7.4 6.79 6.15 5.49 4.86 4.34 4 3.89 3.96
1786.234 4.27 4.69 4.97 4.9 4.54 4.09 3.61 3.13 2.79 2.59
1824.813 2.46 2.38 2.37 2.39 2.43 2.52 2.68 2.83 2.93 2.98
1863.393 3.01 3.03 3.05 3.1 3.14 3.11 3.06 3.07 3.13 3.17
1901.972 3.19 3.23 3.27 3.35 3.47 3.58 3.66 3.77 3.91 4
1940.552 3.92 3.79 3.69 3.54 3.19 2.64 2.16 1.87 1.72 1.64
1979.131 1.57 1.52 1.48 1.45 1.41 1.38 1.39 1.4 1.41 1.44
2017.711 1.5 1.51 1.53 1.54 1.49 1.42 1.37 1.31 1.24 1.19
2056.291 1.15 1.11 1.06 1.04 1.04 1.03 0.998 0.9873 0.986 0.9713
2094.870 0.9513 0.9328 0.9158 0.9053 0.8891 0.8664 0.8724 0.8782 0.8916 0.9198
2133.450 0.9215 0.9227 0.9383 0.9468 0.9363 0.9271 0.919 0.9068 0.9319 0.9529
2172.029 0.9345 0.9268 0.9545 0.9619 0.9575 0.9712 0.972 0.9681 0.9683 0.994
2210.609 0.9906 0.9541 0.903 0.8634 0.8657 0.8563 0.8528 0.879 0.8827 0.8809
2249.188 0.8841 0.8814 0.8976 0.9196 0.9306 0.9444 0.9788 0.9985 1.02 1.07
2287.768 1.14 1.2 1.25 1.3 1.35 1.39 1.41 1.44 1.43 1.37
2326.347 1.32 1.29 1.26 1.24 1.2 1.14 1.1 1.08 1.04 1.03
2364.927 1.05 1.07 1.08 1.1 1.09 1.07 1.06 1.04 1.05 1.02
2403.507 0.9991 0.9911 0.9748 0.9828 1 1.01 1 0.9996 0.9866 0.9824
2442.086 0.9778 0.9785 0.9947 0.9803 0.9656 0.9504 0.9376 0.917 0.9244 0.9616
2480.666 0.9509 0.9369 0.9501 0.9708 1.02 1.05 1.09 1.12 1.16 1.22
2519.245 1.25 1.25 1.21 1.15 1.08 1.06 1.06 1.08 1.11 1.13
2557.825 1.15 1.16 1.19 1.24 1.27 1.31 1.37 1.42 1.45 1.46
2596.404 1.45 1.44 1.44 1.42 1.42 1.38 1.35 1.35 1.33 1.28
2634.984 1.28 1.26 1.24 1.26 1.28 1.28 1.28 1.28 1.29 1.29
2673.563 1.24 1.22 1.22 1.15 1.13 1.11 1.09 1.1 1.09 1.06
2712.143 1.03 1 0.9917 0.9642 0.9437 0.9671 0.9765 0.9823 1.01 1.04
2750.722 1.09 1.13 1.16 1.24 1.31 1.38 1.48 1.54 1.63 1.72
2789.302 1.77 1.79 1.76 1.75 1.77 1.78 1.81 1.95 2.14 2.31
2827.882 2.54 2.83 3.18 3.65 4.31 5.22 6.56 8.44 10.8 13.08
2866.461 14.19 13.67 11.96 9.96 8.48 7.61 7.25 7.3 7.67 8.33
2905.041 9.27 10.61 12.59 15.53 19.53 24.21 28.66 31.79 33.07 33.2
2943.620 33.02 32.01 28.75 23.32 17.82 13.82 11.37 9.94 9.06 8.44
2982.200 8.06 7.9 8.06 8.77 9.96 11.66 13.84 16.14 18.27 20.44
3020.779 23.48 28.4 34.67 39.07 37.98 31.97 25.55 21.61 19.84 19.78
3059.359 21.32 24.38 28.29 30.45 28.88 25.19 22.43 20.9 19.17 16.77
3097.938 14.15 11.88 10.16 8.81 7.57 6.35 5.2 4.24 3.49 2.91
3136.518 2.53 2.3 2.09 1.9 1.74 1.66 1.57 1.5 1.45 1.34
3175.098 1.22 1.16 1.12 1.04 1.01 1.03 0.9875 0.97 0.9689 0.9685
3213.677 0.9572 0.9687 0.9483 0.873 0.8343 0.8205 0.8274 0.8213 0.8318 0.8226
3252.257 0.8128 0.8124 0.7959 0.8094 0.8387 0.8761 0.8686 0.8429 0.8567 0.8663
3290.836 0.849 0.8481 0.8531 0.8453 0.8477 0.8336 0.8517 0.873 0.8014 0.7761
3329.416 0.8106 0.8591 0.9176 0.9139 0.9352 0.9817 1.01 1.08 1.19 1.33
3367.995 1.54 1.85 2.24 2.65 2.96 2.97 2.74 2.42 2.01 1.65
3406.575 1.44 1.31 1.17 1.08 1.08 1.03 0.9749 0.9579 0.9538 0.9397
3445.154 0.8574 0.8302 0.8867 0.9216 0.8884 0.8499 0.8331 0.8204 0.8273 0.8448
3483.734 0.8343 0.7937 0.8041 0.827 0.803 0.7813 0.8028 0.7778 0.7595 0.7637
3522.314 0.7308 0.7227 0.702 0.7046 0.7576 0.7989 0.8016 0.7975 0.8162 0.7975
3560.893 0.7724 0.7801 0.7697 0.7433 0.7071 0.7008 0.7378 0.7505 0.7607 0.7888
3599.473 0.7886 0.7778 0.8025 0.7768 0.7417 0.7929 0.8576 0.8528 0.8561 0.9
3638.052 0.8968 0.8693 0.8669 0.919 0.9898 0.9872 0.9827 1 1.04 1.01
3676.632 0.9503 0.9287 0.9526 0.9989 1.02 1.02 0.9572 0.94 0.9241 0.8736
3715.211 0.875 0.9019 0.8689 0.85 0.8519 0.8522 0.7875 0.7553 0.7998 0.7963
3753.791 0.7702 0.7376 0.7642 0.7809 0.737 0.7818 0.8655 0.8905 0.8916 0.8703
3792.370 0.8497 0.8349 0.8012 0.7869 0.7937 0.8024 0.8292 0.837 0.8445 0.8974
3830.950 0.8901 0.8411 0.8701 0.8951 0.9017 0.9172 0.9457 0.9811 0.9589 0.9765
3869.530 0.9694 0.942 0.9516 0.9455 0.9219 0.8845 0.8884 0.9049 0.9102 0.8761
3908.109 0.8668 0.9047 0.9248 0.8974 0.9257 0.9652 0.932 0.9071 0.9118 0.886
3946.689 0.8732 0.9016 0.8945 0.8766 0.8859 0.8818 0.8695 0.8804 0.8979 0.9284
3985.268 0.917 0.8711 0.8909 0.94 0.9523
##END=
