##TITLE=(S)-5-Hydroxymethyl-2[5H]-furanone
##JCAMP-DX=4.24
##DATA TYPE=INFRARED SPECTRUM
##ORIGIN=EPA-IR VAPOR PHASE LIBRARY
##OWNER=SRD/NIST
Collection (C) 2018 copyright by the U.S. Secretary of Commerce
on behalf of the United States of America. All rights reserved.
##CAS REGISTRY NO=78508-96-0
##MOLFORM=C 5 H 6 O 3
##$NIST SOURCE=MSDC-IR
##STATE=gas
##XUNITS=1/CM
##YUNITS=ABSORBANCE
##XFACTOR=1.
##YFACTOR=0.001
##DELTAX=1.92898
##FIRSTX=549.8
##LASTX=4000.7
##FIRSTY=1.704
##MAXX=4000.7
##MINX=549.759
##MAXY=0.127624
##MINY=0
##NPOINTS=1790
##XYDATA=(X++(Y..Y))
549.759 1.704 1.874 2.134 0.8904 0.51074 0.7789 0.286 0.54959 1.1949 1.4294
569.049 1.1788 1.1172 1.3258 1.2151 0.724 0.4368 0.57553 0.4341 0.285 0.7237
588.339 1.2338 1.3359 1.4373 1.3909 1.2412 1.1338 1.2072 1.884 1.824 1.584
607.628 1.954 2.184 1.644 0.8276 1.0607 1.554 1.574 1.2448 1.554 1.584
626.918 1.3467 1.3462 1.1038 1.0945 1.2552 1.0012 0.9528 1.1321 0.9538 1.054
646.208 1.4638 1.734 1.554 1.4015 1.734 2.014 2.034 2.334 2.024 1.614
665.498 2.134 2.314 2.324 1.974 1.694 1.744 1.794 2.164 2.024 2.134
684.787 2.594 2.384 2.454 2.694 2.764 2.984 3.214 3.364 2.974 2.764
704.077 3.164 3.404 3.024 2.644 2.534 2.474 2.334 1.944 1.694 1.754
723.367 1.4515 1.053 1.3617 1.4063 1.0968 1.0596 0.6761 0.8006 0.9715 0.6971
742.657 0.778 0.9371 0.6762 0.60593 1.001 1.4357 1.824 1.584 1.4135 1.3075
761.947 1.1309 1.3709 1.1137 0.8446 1.2145 1.604 1.734 2.104 2.204 2.424
781.236 3.084 3.274 3.464 3.954 4.574 5.314 5.904 6.714 7.594 8.414
800.526 8.994 9.844 10.854 11.784 13.804 16.254 16.764 15.184 13.544 13.244
819.816 13.594 13.014 12.374 11.824 11.044 10.504 10.254 9.794 9.444 8.854
839.106 8.424 8.634 8.874 8.944 9.284 10.194 10.304 10.454 11.134 11.734
858.395 12.514 13.014 13.284 13.684 13.874 13.914 13.924 13.344 12.734 12.324
877.685 11.544 10.494 9.934 9.864 9.324 8.724 8.214 7.504 6.604 6.674
896.975 7.374 7.354 7.734 8.534 9.024 9.284 9.824 9.804 9.294 9.734
916.265 10.284 10.264 10.144 9.884 9.314 8.954 8.654 8.354 8.104 7.734
935.555 7.424 6.894 6.854 7.014 6.654 6.134 5.634 5.524 5.524 5.014
954.844 4.414 4.304 4.384 4.144 3.744 3.424 3.014 2.944 3.264 3.554
974.134 3.834 4.074 3.884 4.064 4.184 4.354 4.694 4.624 4.614 4.754
993.424 5.424 5.664 5.744 6.064 6.024 6.164 6.904 7.274 7.334 7.974
1012.714 8.794 9.174 9.234 9.584 10.704 12.744 14.284 15.164 16.404 17.454
1032.003 19.004 21.404 22.974 23.874 25.274 26.494 27.614 29.664 30.874 31.254
1051.293 32.474 34.054 34.744 34.484 34.664 33.764 32.334 32.124 31.934 31.294
1070.583 30.134 28.204 26.264 24.484 23.034 21.304 19.974 18.744 16.984 16.614
1089.873 15.994 15.524 16.194 16.964 16.214 16.144 16.774 16.174 16.384 17.704
1109.163 17.914 17.224 17.144 17.024 16.784 15.974 15.724 16.264 16.454 17.294
1128.452 18.534 19.224 20.324 21.604 22.634 24.674 25.674 25.094 24.574 24.604
1147.742 23.734 22.284 21.574 20.574 17.784 15.424 13.564 11.164 10.054 8.944
1167.032 7.404 6.924 6.144 5.344 4.994 4.184 4.024 4.094 4.594 4.204
1186.322 3.904 4.284 4.354 4.044 3.634 3.884 5.114 5.354 4.014 2.774
1205.611 3.074 3.804 2.784 2.094 1.3734 1.684 2.664 2.864 2.764 2.514
1224.901 1.814 1.1441 1.654 2.594 2.774 2.584 2.654 2.384 2.314 2.864
1244.191 2.584 2.384 3.104 3.474 2.874 2.904 3.344 3.544 4.204 3.924
1263.481 3.264 3.374 3.134 3.084 3.134 2.934 3.454 4.014 3.654 3.234
1282.771 3.274 3.174 3.584 4.034 4.304 4.554 4.664 4.854 4.894 5.154
1302.060 5.664 6.224 6.664 7.054 7.344 7.644 7.964 8.224 8.604 8.784
1321.350 8.574 8.324 8.164 7.984 7.654 7.134 6.774 6.564 6.194 5.914
1340.640 5.754 5.624 5.644 5.484 5.264 5.044 4.804 4.574 4.714 4.764
1359.930 4.604 4.674 4.594 4.554 4.624 4.754 4.894 4.944 4.934 5.044
1379.219 5.354 5.504 5.454 5.474 5.424 5.324 5.264 5.134 5.074 4.784
1398.509 4.554 4.354 4.034 3.714 3.254 2.994 2.904 2.704 2.614 2.484
1417.799 2.364 2.304 2.014 1.804 1.844 1.934 1.834 1.664 1.664 1.694
1437.089 1.514 1.554 1.644 1.664 1.834 1.914 1.794 1.654 1.754 1.874
1456.378 1.894 1.984 1.924 1.964 2.104 2.054 2.074 1.944 1.814 1.824
1475.668 1.754 1.814 1.844 1.624 1.4461 1.3876 1.335 1.534 1.614 1.3354
1494.958 1.2054 1.1893 1.314 1.3477 1.0674 1.1412 1.3116 1.2352 1.1304 1.0924
1514.248 1.0871 1.0427 1.0609 1.1046 1.0934 1.1645 1.2106 1.212 1.2139 1.0566
1533.538 1.0513 1.0628 1.12 1.2938 1.232 1.0509 1.0788 1.2194 1.1526 1.1133
1552.827 1.1322 1.1352 1.2444 1.4251 1.534 1.3168 1.063 1.1361 1.1611 1.0011
1572.117 1.1237 1.375 1.2848 1.1163 1.1266 1.0332 1.1456 1.316 1.4361 1.534
1591.407 1.704 2.044 1.954 1.944 2.144 2.184 1.964 1.904 2.034 2.284
1610.697 2.564 2.394 2.204 2.434 2.344 1.874 1.824 1.764 1.624 1.814
1629.986 1.904 1.834 1.754 1.704 1.784 1.704 1.594 1.584 1.744 1.764
1649.276 1.664 1.764 1.734 1.604 1.4927 1.4381 1.534 1.4836 1.2456 1.1808
1668.566 1.5006 1.5096 1.3621 1.4704 1.4546 1.5046 1.4531 1.3264 1.3136 1.2919
1687.856 1.3245 1.325 1.2992 1.4897 1.534 1.4049 1.584 1.664 1.524 1.564
1707.146 1.574 1.754 2.124 2.284 2.204 2.214 2.404 2.534 2.704 2.884
1726.435 3.094 3.294 3.374 3.734 4.184 4.334 4.614 5.064 5.434 5.734
1745.725 6.054 6.334 6.614 6.864 6.994 7.274 7.514 7.724 7.994 8.114
1765.015 8.304 8.724 9.324 9.924 10.784 12.004 13.684 15.914 18.494 21.644
1784.305 25.754 30.934 37.344 45.274 54.754 65.374 77.004 89.194 100.724 111.004
1803.594 118.924 124.174 126.784 127.624 127.484 125.644 121.874 116.364 108.074 96.074
1822.884 81.374 66.054 51.904 40.484 31.724 25.304 20.594 17.244 14.644 12.614
1842.174 11.264 10.114 9.014 8.034 7.244 6.574 6.054 5.544 5.014 4.644
1861.464 4.384 4.064 3.704 3.444 3.094 2.874 2.804 2.744 2.764 2.724
1880.754 2.674 2.584 2.484 2.534 2.544 2.414 2.344 2.384 2.334 2.354
1900.043 2.544 2.654 2.734 2.714 2.734 2.774 2.854 3.044 3.074 3.074
1919.333 3.184 3.084 2.954 2.954 2.814 2.654 2.464 2.384 2.254 2.104
1938.623 2.054 1.924 1.864 1.804 1.664 1.554 1.4648 1.4516 1.4987 1.4358
1957.913 1.3866 1.419 1.4272 1.4212 1.312 1.2107 1.2375 1.1622 1.1945 1.3342
1977.202 1.3606 1.2469 1.0652 1.1636 1.2141 1.1677 1.1883 1.2057 1.3547 1.3711
1996.492 1.2341 1.2299 1.2708 1.2402 1.2888 1.3001 1.2955 1.3474 1.2665 1.2414
2015.782 1.1819 1.0157 0.9822 0.9855 0.919 0.8235 0.9521 1.1596 1.1816 1.1246
2035.072 1.088 1.1401 1.029 0.8671 0.9105 0.9469 0.9095 0.9163 0.8058 0.7641
2054.362 0.8718 0.9303 1.052 1.1813 1.1746 1.0499 1.1004 1.0988 0.9932 1.0097
2073.651 0.9945 1.0058 1.0824 1.1255 1.0911 1.0552 1.0249 1.0962 1.1302 0.9222
2092.941 0.8846 0.9102 0.9114 1.0198 1.0487 1.0878 1.0907 1.0637 1.1046 1.1463
2112.231 1.0339 0.9615 1.0184 1.0541 0.8937 0.7614 0.8806 0.9861 1.0364 0.9697
2131.521 0.8886 0.8458 0.6759 0.7054 0.8613 0.9707 0.9854 0.8905 0.8514 0.9238
2150.810 0.9947 1.0216 0.954 0.8721 0.9876 1.0648 1.1716 1.1598 0.9993 0.9201
2170.100 0.8994 0.7813 0.6766 0.875 1.1231 1.2346 1.1449 0.9842 0.9717 0.9381
2189.390 1.046 1.1483 1.0572 0.9276 0.999 1.1122 1.1769 1.1264 0.9631 0.9689
2208.680 1.0612 1.0303 0.8816 0.9881 1.035 1.0278 1.2613 1.3197 1.0056 0.8917
2227.970 0.9515 1.0235 0.9654 0.8536 1.0643 1.1027 0.9775 0.9401 0.9114 1.1279
2247.259 1.2763 1.0792 0.9783 0.9965 1.0255 1.0811 0.9668 0.974 1.0575 1.1251
2266.549 1.2568 1.1879 1.269 1.1236 1.0118 1.2097 1.1217 1.0303 1.1234 1.1464
2285.839 1.1376 1.069 0.9799 1.0017 1.0092 1.0258 0.9928 0.9351 0.8355 0.6541
2305.129 0.6508 0.8049 0.8244 0.7613 0.8418 1.085 0.9183 0.6292 0.6005 0.6757
2324.418 0.8564 0.8255 0.7863 0.8096 0.7961 0.9619 0.9754 0.7223 0.6257 0.59803
2343.708 0.57144 0.646 0.7676 0.6884 0.6892 0.7878 0.7905 0.9782 0.88 0.763
2362.998 0.7265 0.56483 0.6837 0.8599 0.7596 0.515639 0.57048 0.702 0.7476 0.7837
2382.288 0.6425 0.59385 0.7646 0.9968 0.9377 0.8397 0.9819 0.9531 1.0309 0.9832
2401.578 0.7661 0.7453 0.8183 0.9445 0.9062 0.7397 0.6824 0.7144 0.732 0.6554
2420.867 0.7394 0.888 0.885 0.9928 1.0526 0.8548 0.8644 1.0083 0.8668 0.6756
2440.157 0.6877 0.7418 0.784 0.9232 0.9961 0.8847 0.864 1.059 1.0522 0.9849
2459.447 0.9766 1.0497 0.9563 0.7416 0.8657 0.9527 0.8024 0.6558 0.6762 0.8886
2478.737 0.8731 0.7751 0.7347 0.7026 0.8791 0.9865 0.9486 0.99 0.935 0.8742
2498.026 0.9924 0.7765 0.8476 1.1272 1.0549 0.8802 0.8664 0.9085 0.8351 0.8781
2517.316 0.8223 0.7702 0.9503 0.8927 0.8236 0.8643 0.9384 1.0002 0.8458 0.8837
2536.606 0.8697 0.8941 0.9593 0.9262 0.7582 0.53554 0.56453 0.7686 0.8543 0.7724
2555.896 0.7239 0.7598 0.9245 0.8845 0.7621 0.9963 0.8593 0.6436 0.8239 0.8985
2575.186 0.7448 0.57608 0.4521 0.4834 0.6986 0.8204 0.7322 0.361 0.459 0.7503
2594.475 0.57171 0.6217 0.7889 0.8938 0.9915 0.8656 0.6815 0.5015 0.6615 0.9059
2613.765 0.8264 0.8479 0.7628 0.6839 0.8307 0.8055 0.7183 0.641 0.7251 0.7092
2633.055 0.5294 0.56459 0.7135 0.9019 0.9468 0.7303 0.636 0.7708 0.6519 0.57685
2652.345 0.676 0.60842 0.60637 0.54778 0.61169 0.851 0.9913 0.925 0.9892 1.0769
2671.634 0.9238 0.8902 0.8317 0.7552 0.8456 0.8295 0.6855 0.58467 0.52754 0.6618
2690.924 0.6681 0.7266 0.9291 0.8885 0.8749 0.8814 1.1175 1.2916 1.0606 0.8125
2710.214 0.9001 1.0563 1.0644 1.0405 0.9764 1.0952 1.0785 1.0768 1.1283 0.9887
2729.504 0.9353 0.783 0.8779 1.2135 0.9835 0.8053 0.8294 0.8222 0.9192 0.9095
2748.794 0.8431 0.9251 1.0862 1.0181 0.6942 0.57816 0.8092 0.9583 0.8874 0.7322
2768.083 0.7832 0.8621 0.9217 0.7087 0.53552 0.9993 1.0591 0.9668 0.959 0.8249
2787.373 0.8587 0.9398 1.0485 1.1853 0.9505 0.8145 1.0303 0.8308 0.57594 0.7194
2806.663 1.046 1.2097 1.269 1.1202 0.9952 0.832 0.656 0.8444 1.0786 1.0118
2825.953 1.0531 1.3214 1.554 1.624 1.2802 1.1227 1.1336 1.2241 1.4624 1.4124
2845.242 1.1916 1.4495 1.744 1.804 1.984 2.074 2.234 2.594 2.744 2.644
2864.532 2.744 2.844 3.214 3.574 3.924 4.064 3.894 4.134 4.494 4.804
2883.822 4.954 4.994 5.154 5.404 5.714 6.014 6.324 6.484 6.644 6.794
2903.112 6.994 7.014 6.854 6.774 7.164 7.364 7.314 7.494 7.494 7.414
2922.401 7.604 7.714 7.714 7.914 7.904 8.124 8.224 8.294 8.644 8.724
2941.691 8.794 8.794 8.554 8.514 8.464 8.374 8.364 8.154 7.594 7.064
2960.981 6.674 5.974 5.464 5.474 5.224 4.864 4.234 3.564 3.174 2.664
2980.271 2.424 2.474 2.034 1.674 1.654 1.3271 1.1773 1.0588 1.0378 1.0727
2999.561 0.7039 0.55804 0.9331 0.9107 0.9995 1.2721 1.1666 1.0922 0.8416 0.8245
3018.850 1.0491 0.8103 0.6548 0.60731 0.523228 0.7038 0.7621 0.8286 0.9521 0.9671
3038.140 1.0253 0.826 0.52963 0.8335 1.1278 0.8364 0.56825 0.4271 0.35 0.407
3057.430 0.4596 0.5028 0.6383 0.9115 1.1281 1.1078 0.824 0.514628 0.7296 1.4483
3076.720 1.4933 1.0051 0.7605 0.8477 0.9472 0.4732 0.4181 0.6226 0.7913 1.1551
3096.009 1.005 0.9137 0.9958 0.7964 0.4335 0.4389 0.7499 0.9272 0.8569 0.7121
3115.299 0.7501 0.8187 0.8061 1.11 1.1806 0.55089 0.6426 0.7253 0.415 0.343
3134.589 0.33 0.55375 0.8641 0.674 0.237 0.115 0.019 0.284 0.694 0.9617
3153.879 0.8633 0.4861 0.4537 0.4184 0.206 0.412 0.7767 0.522288 0.52699 0.7006
3173.169 0.6414 0.55781 0.8828 0.9164 0.685 0.6708 0.7235 0.6737 0.6868 0.9373
3192.458 0.58652 0.53443 0.7483 0.7246 0.947 0.935 0.5927 0.6438 0.8637 0.67
3211.748 0.394 0.4314 0.57199 0.4593 0.404 0.7844 0.9087 0.7181 0.6835 0.55744
3231.038 0.4407 0.55442 0.51077 0.8246 1.0962 0.7563 0.355 0.183 0.4146 0.9491
3250.328 0.6928 0.397 0.58834 0.53989 0.521595 0.60179 0.4357 0.199 0.6204 0.9474
3269.617 0.9384 0.8711 1.0396 0.9115 0.4699 0.4206 0.413 0.50665 0.6186 0.8121
3288.907 0.8272 0.55371 0.7468 0.7468 0.5001 0.399 0.4457 0.5036 0.222 0.284
3308.197 0.4852 0.386 0.55541 0.53114 0.4209 0.5778 0.7196 0.7138 0.4609 0.4595
3327.487 0.7058 0.60574 0.517985 0.58841 0.491 0.4893 0.60821 0.797 0.663 0.4621
3346.777 0.6153 0.7034 0.4157 0.379 0.6647 0.7151 0.5341 0.4394 0.4897 0.6848
3366.066 0.8293 0.6291 0.56427 0.8225 0.7651 0.6897 0.7737 1.0536 1.3421 1.0513
3385.356 0.7038 0.4897 0.7035 1.0054 0.8595 0.7781 0.7604 0.7097 0.6808 0.6335
3404.646 0.7255 0.59203 0.58825 0.8048 0.6997 0.57723 0.7045 0.8795 0.8641 0.6783
3423.936 0.784 0.7537 0.6572 0.8866 1.0084 0.7129 0.6608 0.9403 0.6191 0.258
3443.225 0.309 0.56575 0.7167 0.7034 0.8864 0.7594 0.402 0.4725 0.6218 0.6598
3462.515 0.9746 0.8014 0.4752 0.7131 0.7493 0.60304 0.4721 0.7106 0.954 0.6189
3481.805 0.359 0.6438 0.822 0.7442 0.6827 0.6316 0.6702 0.6877 0.298 0.296
3501.095 0.8029 0.7962 0.8244 1.0183 1.0175 0.707 0.7237 0.741 0.6326 0.9597
3520.385 0.9239 0.6608 0.8161 1.0203 1.2266 1.0364 0.6968 0.9224 1.017 0.987
3539.674 1.1889 0.9895 0.8259 0.8019 0.7779 0.9917 1.052 1.3204 1.3363 1.2053
3558.964 1.4402 1.554 1.0661 1.375 1.804 1.574 1.524 1.564 1.4275 1.1761
3578.254 1.524 2.024 2.164 2.204 2.044 1.884 2.144 2.164 2.004 1.844
3597.544 2.284 2.934 2.934 2.664 2.524 2.734 2.504 2.404 2.674 2.754
3616.833 2.824 2.514 2.544 3.124 3.434 3.884 4.294 4.614 4.784 4.684
3636.123 4.444 4.784 5.154 5.364 5.694 6.184 6.254 5.804 5.874 5.454
3655.413 5.344 5.214 5.094 5.014 4.674 4.854 4.804 4.464 4.374 4.514
3674.703 4.604 4.664 4.304 3.864 3.544 3.464 3.474 2.974 2.594 2.464
3693.993 2.314 1.954 1.5014 1.2345 1.0445 1.2589 1.634 1.574 1.2032 0.9995
3713.282 0.9587 0.7093 0.7245 0.9421 0.8732 0.60161 0.692 0.6454 0.207 0.049
3732.572 0.355 0.6165 0.6468 0.7808 0.8875 0.8479 1.0623 1.2325 0.96 0.9885
3751.862 0.944 0.8518 1.1837 1.1039 0.8246 0.794 0.7955 0.7466 0.6329 0.8974
3771.152 0.9574 0.9241 1.1727 1.1373 0.9849 0.7172 0.51423 0.354 0.192 0.4152
3790.441 0.35 0.339 0.55771 0.378 0.298 0.59744 0.8784 0.404 0.4444 0.958
3809.731 1.0622 0.9143 0.8866 1.0939 0.9953 0.7509 0.6424 0.6146 0.57849 0.6166
3829.021 0.54397 0.7671 0.8356 0.8568 1.0229 0.60407 0.6828 1.0851 1.0206 0.6926
3848.311 0.6238 0.9744 0.9444 0.56851 0.6418 0.7379 0.7866 0.7521 0.4363 0.4
3867.601 0.262 0.383 0.4705 0.246 0.325 0.520266 0.50521 0.55669 0.7663 0.9157
3886.890 0.8642 0.763 0.6559 0.7942 1.038 1.0081 0.8706 0.8305 0.9835 0.7424
3906.180 0.7298 0.7283 0.761 1.1044 0.9948 1.1139 1.2018 0.55434 0.55105 0.7991
3925.470 0.59712 0.402 0.50545 0.7021 0.6438 0.7906 0.8592 0.96 1.2163 1.3439
3944.760 1.0513 0.6797 0.53229 0.51194 0.6371 0.6262 0.36 0.518145 0.7876 0.644
3964.049 0.6615 0.56864 0 0.072 0.7201 0.8446 0.8527 0.7741 0.798 1.2226
3983.339 1.109 0.8124 1.082 1.0202 0.8658 0.8122 0.6168 0.8743 0.8718 0.6599
##END=
