##TITLE=2-Methyl-6-hepten-3-ol
##JCAMP-DX=4.24
##DATA TYPE=INFRARED SPECTRUM
##ORIGIN=NIST Mass Spectrometry Data Center
##OWNER=NIST Standard Reference Data Program
Collection (C) 2018 copyright by the U.S. Secretary of Commerce
on behalf of the United States of America. All rights reserved.
##CAS REGISTRY NO=78631-45-5
##MOLFORM=C 8 H 16 O
##$NIST SOURCE=MSDC-IR
##SPECTROMETER/DATA SYSTEM=HP-GC/MS/IRD
##STATE=gas
##XUNITS=1/CM
##YUNITS=ABSORBANCE
##XFACTOR=1.0
##YFACTOR=0.000001600
##DELTAX=4.0
##FIRSTX=550.0
##LASTX=3846.0
##FIRSTY=0.000413
##MAXX=3846
##MINX=550
##MAXY=0.016
##MINY=0
##NPOINTS=825
##XYDATA=(X++(Y..Y))
550.0 258 308 410 445 389 337 281 171 156 208
590.0 167 114 103 93 113 103 91 123 140 100
630.0 96 119 56 13 36 22 25 54 55 62
670.0 59 55 63 42 33 45 37 85 102 90
710.0 75 75 92 96 107 86 90 108 128 164
750.0 159 142 159 175 163 196 232 223 243 235
790.0 207 201 182 161 171 212 215 224 241 234
830.0 253 292 299 323 387 460 539 640 783 996
870.0 1279 1704 2246 2859 3423 3744 3718 3371 2860 2316
910.0 1919 1711 1611 1548 1502 1470 1431 1372 1328 1349
950.0 1403 1509 1632 1763 1918 2063 2174 2261 2270 2214
990.0 2142 2011 1881 1787 1705 1625 1578 1569 1568 1580
1030.0 1563 1544 1548 1496 1460 1430 1412 1399 1407 1431
1070.0 1423 1430 1465 1479 1513 1589 1681 1791 1933 2052
1110.0 2099 2079 1987 1818 1581 1376 1216 1057 954 852
1150.0 793 788 783 798 816 839 884 949 982 977
1190.0 994 1023 1056 1078 1108 1173 1261 1342 1375 1410
1230.0 1435 1442 1433 1401 1381 1351 1305 1281 1268 1264
1270.0 1280 1288 1270 1234 1186 1134 1092 1075 1056 1016
1310.0 968 930 906 867 836 845 876 912 965 1043
1350.0 1160 1311 1463 1628 1833 2060 2241 2331 2349 2260
1390.0 2046 1809 1590 1392 1238 1124 1059 1048 1079 1153
1430.0 1298 1462 1683 1932 2129 2273 2332 2291 2169 1962
1470.0 1702 1421 1138 924 764 622 510 437 388 353
1510.0 318 287 281 279 253 229 227 236 226 202
1550.0 211 216 211 225 224 231 233 230 242 266
1590.0 279 284 287 300 331 365 408 467 549 664
1630.0 809 988 1193 1374 1466 1446 1314 1101 844 604
1670.0 437 341 258 200 181 148 126 116 104 96
1710.0 79 85 86 71 77 78 71 68 68 66
1750.0 79 83 76 93 123 157 187 202 237 242
1790.0 237 229 197 174 148 124 108 103 89 68
1830.0 56 46 51 55 50 43 41 49 51 43
1870.0 40 41 36 31 38 40 25 28 29 21
1910.0 26 42 48 30 29 29 34 45 42 32
1950.0 24 23 21 12 12 22 33 37 32 25
1990.0 22 17 20 30 31 29 29 18 0 14
2030.0 38 30 22 42 43 24 23 30 30 31
2070.0 33 34 30 26 26 29 32 28 29 30
2110.0 29 29 29 22 25 30 22 30 38 33
2150.0 35 33 29 30 22 25 31 28 28 21
2190.0 12 12 23 35 38 43 44 35 31 24
2230.0 20 13 17 23 25 33 38 31 22 33
2270.0 46 33 28 35 27 21 33 32 38 55
2310.0 44 39 44 44 51 46 42 42 46 47
2350.0 51 49 57 72 64 57 64 69 55 45
2390.0 46 52 46 51 61 60 60 58 58 44
2430.0 41 52 55 58 63 72 61 49 48 45
2470.0 44 42 46 47 42 52 70 74 65 60
2510.0 64 64 60 50 52 59 54 63 67 68
2550.0 71 79 86 82 88 103 103 93 93 97
2590.0 106 112 106 107 124 146 142 121 119 122
2630.0 121 135 144 141 153 163 167 167 170 191
2670.0 181 182 197 200 202 202 209 215 226 228
2710.0 229 242 242 235 247 278 309 321 324 330
2750.0 329 334 346 340 336 342 357 389 423 434
2790.0 450 478 500 539 580 623 693 780 874 996
2830.0 1153 1342 1596 1919 2266 2655 3094 3485 3812 4087
2870.0 4303 4470 4640 4786 4841 4840 4827 4834 4950 5227
2910.0 5625 6178 6887 7631 8376 9085 9659 10000 9995 9618
2950.0 8947 8189 7632 7451 7687 8009 7984 7490 6581 5385
2990.0 4160 3223 2557 2054 1677 1408 1218 1079 983 891
3030.0 825 777 748 751 762 798 859 954 1099 1325
3070.0 1666 2016 2188 2210 2109 1747 1301 963 692 526
3110.0 414 350 329 286 254 234 226 211 177 166
3150.0 173 171 156 149 150 148 129 107 115 127
3190.0 102 93 95 94 98 96 91 88 90 68
3230.0 87 105 61 20 36 49 53 49 42 67
3270.0 66 69 79 65 54 52 60 70 63 57
3310.0 66 67 61 67 56 28 15 39 64 81
3350.0 67 48 51 59 75 53 28 48 87 95
3390.0 75 82 77 57 68 77 92 110 121 111
3430.0 100 93 81 82 100 106 95 97 93 61
3470.0 36 60 88 83 74 71 61 72 93 92
3510.0 107 70 45 92 95 64 57 76 88 75
3550.0 79 83 87 92 78 92 85 53 79 127
3590.0 146 179 214 253 347 434 474 497 517 545
3630.0 546 566 646 742 825 886 902 892 837 720
3670.0 570 396 289 243 209 172 135 118 99 84
3710.0 91 80 73 100 86 68 80 80 47 49
3750.0 90 94 82 85 92 94 110 129 119 102
3790.0 105 108 87 79 58 71 98 87 100 115
3830.0 100 116 81 65 86
##END=
