##TITLE=N,N'-Dibenzoyl hydrazine
##JCAMP-DX=4.24
##DATA TYPE=INFRARED SPECTRUM
##ORIGIN=EPA-IR VAPOR PHASE LIBRARY
##OWNER=SRD/NIST
Collection (C) 2018 copyright by the U.S. Secretary of Commerce
on behalf of the United States of America. All rights reserved.
##CAS REGISTRY NO=787-84-8
##MOLFORM=C 14 H 12 N 2 O 2
##$NIST SOURCE=MSDC-IR
##STATE=gas
##XUNITS=1/CM
##YUNITS=ABSORBANCE
##XFACTOR=1.
##YFACTOR=0.001
##DELTAX=1.92898
##FIRSTX=549.8
##LASTX=4000.7
##FIRSTY=4.445
##MAXX=4000.7
##MINX=549.759
##MAXY=0.054815
##MINY=0
##NPOINTS=1790
##XYDATA=(X++(Y..Y))
549.759 4.445 4.255 3.885 3.535 2.975 2.855 2.985 2.625 2.895 2.955
569.049 2.565 2.705 2.575 2.255 2.165 2.315 2.465 2.435 2.355 2.135
588.339 2.105 2.265 2.265 2.005 1.975 2.095 1.925 1.775 1.785 1.875
607.628 1.935 1.885 1.695 1.545 1.635 1.745 1.715 1.685 1.615 1.605
626.918 1.515 1.445 1.355 1.465 1.665 1.485 1.2857 1.405 1.795 1.865
646.208 1.865 2.015 1.985 2.005 2.145 2.345 2.665 2.975 3.125 3.235
665.498 3.455 3.775 4.245 4.575 5.025 5.695 6.155 6.565 7.025 7.695
684.787 8.455 9.425 10.685 11.995 13.545 15.165 16.685 18.035 18.605 18.635
704.077 18.385 17.675 16.465 14.985 13.785 12.575 11.295 10.165 9.095 8.015
723.367 7.125 6.555 5.955 5.335 4.945 4.465 3.815 3.585 3.555 3.365
742.657 3.265 3.215 3.025 2.755 2.695 2.595 2.605 2.745 2.655 2.445
761.947 2.375 2.425 2.475 2.505 2.495 2.655 2.795 2.835 2.785 2.645
781.236 2.835 3.055 2.865 2.675 2.715 2.585 2.455 2.445 2.305 2.175
800.526 2.015 1.975 2.025 2.015 1.935 1.765 1.775 1.625 1.505 1.465
819.816 1.2493 1.375 1.475 1.495 1.535 1.535 1.515 1.645 1.695 1.495
839.106 1.595 1.795 1.765 1.815 1.875 1.835 1.885 1.935 1.905 1.875
858.395 1.935 2.055 1.895 1.615 1.725 1.755 1.845 1.855 1.685 1.695
877.685 1.855 1.945 1.845 1.745 1.765 1.955 1.975 1.925 1.955 2.025
896.975 2.075 2.025 2.055 2.155 2.265 2.265 2.405 2.365 2.245 2.345
916.265 2.345 2.515 2.535 2.385 2.305 2.255 2.135 2.005 1.865 1.775
935.555 1.835 1.875 1.735 1.745 1.895 1.915 1.815 1.715 1.625 1.555
954.844 1.795 1.965 1.885 1.685 1.625 1.685 1.765 1.795 1.405 1.2521
974.134 1.515 1.615 1.615 1.535 1.555 1.685 1.435 1.2788 1.435 1.525
993.424 1.725 1.985 1.965 1.785 1.905 2.065 2.095 1.905 1.705 1.915
1012.714 2.365 2.775 3.075 3.885 4.985 5.995 6.875 7.135 6.425 5.135
1032.003 3.965 2.955 2.375 2.025 2.265 2.475 2.055 2.025 2.185 2.475
1051.293 2.615 3.015 3.445 3.765 4.615 5.235 5.345 5.455 5.655 5.695
1070.583 5.445 4.605 4.165 4.185 4.575 4.715 4.525 5.085 5.735 5.945
1089.873 6.565 6.665 6.145 5.555 5.025 4.955 4.325 4.055 4.135 3.735
1109.163 3.515 3.265 2.885 2.335 1.845 1.715 1.765 1.785 1.915 1.855
1128.452 1.485 1.299 1.0122 0.7702 0.8779 0.9848 0.8962 0.8941 0.8806 0.8747
1147.742 1.1386 1.2295 1.027 1.1399 1.525 1.415 1.385 1.605 1.485 1.465
1167.032 1.585 2.085 2.325 2.415 3.175 3.665 4.285 5.265 5.505 5.155
1186.322 4.425 3.415 2.675 2.255 1.855 1.485 1.345 1.625 2.115 1.865
1205.611 1.825 1.845 1.765 2.315 2.755 3.215 3.545 4.375 5.485 5.905
1224.901 6.555 7.775 8.505 8.925 9.545 9.955 10.365 10.705 10.895 11.325
1244.191 11.905 12.385 12.535 12.315 11.805 11.045 10.085 9.245 8.625 8.025
1263.481 7.505 7.025 6.655 6.215 5.805 5.585 5.335 5.035 4.805 4.495
1282.771 4.275 4.305 4.185 4.085 4.025 3.925 3.905 4.005 4.015 3.865
1302.060 3.805 3.865 3.875 3.875 3.945 3.965 3.915 3.985 4.035 3.995
1321.350 4.035 4.115 4.125 4.205 4.305 4.345 4.315 4.195 4.165 4.195
1340.640 4.145 4.135 4.125 4.085 4.115 4.095 4.125 4.175 4.275 4.415
1359.930 4.445 4.505 4.695 4.895 5.135 5.425 5.795 6.205 6.585 7.075
1379.219 7.715 8.415 9.205 10.115 11.185 12.475 13.975 15.705 17.785 20.285
1398.509 23.165 26.485 30.235 34.505 39.175 43.835 48.105 51.695 54.025 54.815
1417.799 53.945 51.505 47.955 43.705 39.235 34.875 30.795 27.215 24.085 21.495
1437.089 19.475 18.075 17.235 17.145 17.895 19.355 21.245 22.795 23.355 22.775
1456.378 21.095 18.775 16.685 15.015 13.675 12.535 11.525 10.695 10.035 9.345
1475.668 8.715 8.195 7.795 7.465 7.175 6.965 6.925 7.105 7.505 8.115
1494.958 8.875 9.485 9.785 9.785 9.445 8.775 7.875 7.015 6.325 5.755
1514.248 5.325 4.955 4.635 4.365 4.135 3.925 3.705 3.535 3.455 3.395
1533.538 3.315 3.145 3.095 3.125 3.075 3.095 3.035 2.975 2.975 2.975
1552.827 2.975 3.025 3.125 3.145 3.105 3.235 3.325 3.315 3.475 3.705
1572.117 3.905 4.075 4.235 4.355 4.435 4.515 4.465 4.295 4.085 3.795
1591.407 3.725 3.705 3.635 3.745 3.865 3.965 4.055 4.075 3.975 3.775
1610.697 3.605 3.495 3.495 3.565 3.655 3.795 3.975 4.205 4.435 4.705
1629.986 5.035 5.385 5.845 6.425 6.995 7.615 8.405 9.205 10.145 11.385
1649.276 12.755 14.225 15.955 17.745 19.525 21.345 22.995 24.335 25.375 26.105
1668.566 26.475 26.495 26.125 25.505 24.715 23.835 22.915 21.965 20.935 19.985
1687.856 19.165 18.375 17.545 16.755 16.005 15.295 14.655 13.985 13.505 12.965
1707.146 12.355 11.925 11.565 11.255 10.955 10.685 10.465 10.155 9.745 9.345
1726.435 8.905 8.415 7.905 7.385 6.915 6.425 6.055 5.735 5.475 5.345
1745.725 5.215 5.145 5.075 5.015 4.935 4.825 4.625 4.385 4.225 3.985
1765.015 3.765 3.615 3.345 3.055 2.875 2.665 2.335 2.125 2.005 1.815
1784.305 1.645 1.525 1.485 1.465 1.485 1.485 1.445 1.465 1.565 1.635
1803.594 1.665 1.725 1.655 1.465 1.3374 1.2404 1.1135 1.0385 1.0099 1.0181
1822.884 0.9115 0.8543 0.9092 0.8487 0.8113 0.7857 0.741 0.7175 0.6992 0.6905
1842.174 0.6864 0.6576 0.6921 0.7244 0.713 0.6864 0.6194 0.6428 0.7049 0.7079
1861.464 0.676 0.6457 0.7047 0.7478 0.7443 0.7545 0.7191 0.7513 0.8245 0.8168
1880.754 0.8404 0.8793 0.9134 0.9385 0.9619 0.9921 1.0218 1.0294 1.0562 1.1008
1900.043 1.1621 1.1488 1.0951 1.1203 1.1129 1.0582 0.94 0.8827 0.8494 0.7884
1919.333 0.7629 0.7101 0.6274 0.6181 0.7121 0.7726 0.7166 0.6422 0.6405 0.6687
1938.623 0.7116 0.7363 0.7473 0.8323 0.8844 0.8947 0.9641 0.9909 1.021 1.0411
1957.913 1.0444 1.0231 1.0238 1.0709 1.0943 1.1269 1.0698 0.9609 0.8362 0.8083
1977.202 0.8144 0.6845 0.583 0.5733 0.5497 0.5556 0.549 0.466 0.4465 0.46
1996.492 0.4903 0.5199 0.4949 0.578 0.6401 0.5714 0.4831 0.42173 0.43698 0.4569
2015.782 0.43488 0.37895 0.38345 0.41576 0.37649 0.42228 0.5143 0.4598 0.42485 0.4693
2035.072 0.4868 0.43657 0.41816 0.4768 0.461 0.3855 0.40711 0.43839 0.39787 0.40412
2054.362 0.42432 0.44188 0.4634 0.4933 0.4962 0.444 0.43471 0.4701 0.42072 0.43015
2073.651 0.5489 0.5612 0.5562 0.5218 0.4486 0.41933 0.44241 0.4759 0.43851 0.4499
2092.941 0.4953 0.4682 0.44174 0.4699 0.5109 0.5055 0.41017 0.36626 0.41217 0.4626
2112.231 0.4681 0.4835 0.5033 0.4895 0.4718 0.4809 0.4514 0.4428 0.501 0.5088
2131.521 0.4948 0.5074 0.4685 0.43023 0.4816 0.4519 0.41646 0.446 0.4639 0.5078
2150.810 0.5506 0.517 0.5101 0.5047 0.4582 0.42375 0.41959 0.42169 0.4954 0.5209
2170.100 0.4972 0.547 0.5367 0.4811 0.4693 0.5418 0.586 0.5459 0.5145 0.4818
2189.390 0.461 0.42436 0.37284 0.347319 0.2818 0.3188 0.43468 0.39977 0.36465 0.468
2208.680 0.5229 0.4619 0.4539 0.4221 0.3154 0.3297 0.38431 0.35587 0.351542 0.36036
2227.970 0.350488 0.4138 0.42808 0.40237 0.3899 0.37972 0.37665 0.36989 0.40955 0.351006
2247.259 0.3313 0.41082 0.37569 0.354553 0.38608 0.36454 0.37709 0.37263 0.3037 0.35884
2266.549 0.42081 0.4527 0.44485 0.37644 0.41021 0.4582 0.4474 0.4601 0.478 0.4585
2285.839 0.39618 0.38472 0.38929 0.37065 0.39957 0.40782 0.4452 0.42855 0.41638 0.43206
2305.129 0.37174 0.41424 0.503 0.5149 0.5305 0.5675 0.6242 0.6301 0.5891 0.6299
2324.418 0.6405 0.5918 0.5574 0.5547 0.584 0.5648 0.5532 0.5737 0.5976 0.6497
2343.708 0.673 0.6253 0.5902 0.6193 0.6192 0.5569 0.5846 0.6133 0.6065 0.6257
2362.998 0.6243 0.6705 0.6963 0.6308 0.5074 0.4613 0.5077 0.4627 0.43378 0.4632
2382.288 0.492 0.4703 0.4834 0.4765 0.4977 0.589 0.5393 0.4978 0.4726 0.4902
2401.578 0.4539 0.43483 0.44312 0.4996 0.5351 0.43488 0.4492 0.5053 0.5535 0.5638
2420.867 0.4741 0.42595 0.43168 0.4921 0.5136 0.4714 0.5022 0.5163 0.5142 0.5628
2440.157 0.513 0.4466 0.44195 0.42436 0.4494 0.42071 0.3145 0.2845 0.3708 0.4539
2459.447 0.43246 0.4516 0.4849 0.4695 0.4981 0.5137 0.4851 0.41112 0.39908 0.4742
2478.737 0.4823 0.4606 0.42336 0.43437 0.5377 0.5198 0.4795 0.4902 0.42884 0.4584
2498.026 0.4633 0.38709 0.4679 0.4895 0.4769 0.5091 0.5079 0.5195 0.5387 0.4652
2517.316 0.433 0.43467 0.41676 0.5299 0.5422 0.4819 0.42583 0.38755 0.38782 0.3233
2536.606 0.2829 0.38209 0.43009 0.41667 0.41762 0.4627 0.5046 0.36879 0.3126 0.37605
2555.896 0.40349 0.42922 0.44275 0.42915 0.42212 0.42919 0.481 0.5018 0.38388 0.352073
2575.186 0.37166 0.34193 0.38174 0.40373 0.4609 0.4931 0.4874 0.4543 0.42737 0.43102
2594.475 0.40668 0.39134 0.43811 0.4624 0.37998 0.40014 0.4821 0.5689 0.4968 0.40499
2613.765 0.43196 0.40282 0.40351 0.38704 0.41085 0.44172 0.4636 0.494 0.44495 0.4082
2633.055 0.41106 0.38093 0.39631 0.3889 0.39474 0.4732 0.43137 0.3162 0.3312 0.4485
2652.345 0.4478 0.39233 0.35258 0.36982 0.39597 0.351028 0.3092 0.3033 0.35803 0.43153
2671.634 0.37986 0.3074 0.38723 0.38901 0.35835 0.36075 0.40879 0.43693 0.36749 0.34945
2690.924 0.33797 0.35745 0.3869 0.348636 0.2879 0.3123 0.43001 0.5078 0.41439 0.34389
2710.214 0.41929 0.4863 0.42156 0.40137 0.4028 0.3197 0.349587 0.347541 0.36352 0.40598
2729.504 0.39016 0.41566 0.4616 0.39961 0.350667 0.38251 0.39549 0.515 0.4993 0.3098
2748.794 0.349433 0.4663 0.45 0.38891 0.42108 0.5216 0.5012 0.4265 0.38015 0.3012
2768.083 0.354618 0.42758 0.38767 0.3297 0.36595 0.4632 0.44006 0.4757 0.4799 0.349336
2787.373 0.2985 0.41172 0.4573 0.41214 0.39639 0.39908 0.4536 0.4945 0.41365 0.2856
2806.663 0.36941 0.41478 0.3218 0.2669 0.185 0.2508 0.41209 0.41875 0.3233 0.36333
2825.953 0.33957 0.215 0.36444 0.4878 0.42479 0.4665 0.4735 0.43528 0.4488 0.39287
2845.242 0.39344 0.4512 0.4496 0.4963 0.4871 0.43417 0.4558 0.40613 0.37504 0.38619
2864.532 0.40096 0.4555 0.5165 0.4934 0.42243 0.353446 0.2787 0.2758 0.3002 0.33901
2883.822 0.352643 0.40886 0.4896 0.4796 0.4857 0.5104 0.495 0.4708 0.43861 0.43516
2903.112 0.4771 0.4795 0.4936 0.5082 0.4738 0.5695 0.6168 0.5598 0.5248 0.5215
2922.401 0.4689 0.34405 0.345979 0.487 0.5854 0.476 0.2976 0.3084 0.4571 0.5333
2941.691 0.5406 0.4901 0.5065 0.5719 0.4626 0.3276 0.33917 0.37969 0.347495 0.44131
2960.981 0.5229 0.41475 0.44445 0.5095 0.499 0.5049 0.5406 0.5615 0.5731 0.6023
2980.271 0.5803 0.4543 0.3859 0.42156 0.346582 0.41277 0.551 0.6033 0.665 0.656
2999.561 0.6952 0.7845 0.7768 0.7156 0.7537 0.9225 0.9867 0.9481 1.0767 1.1875
3018.850 1.2064 1.3129 1.375 1.555 1.905 2.035 2.205 2.585 2.955 3.335
3038.140 3.485 3.545 3.625 3.495 3.045 2.645 2.515 2.555 2.655 2.845
3057.430 3.125 3.375 3.705 4.415 5.185 5.925 6.895 7.775 8.205 8.085
3076.720 7.575 6.675 5.555 4.665 4.245 4.145 4.035 3.855 3.685 3.505
3096.009 3.245 3.015 2.725 2.535 2.425 2.315 2.255 1.955 1.605 1.505
3115.299 1.495 1.2964 0.9974 0.8665 0.7381 0.7233 0.7014 0.5927 0.6221 0.6904
3134.589 0.6304 0.5317 0.4659 0.42213 0.4737 0.4647 0.39304 0.40608 0.5293 0.6074
3153.879 0.6125 0.4833 0.41343 0.5108 0.6264 0.5989 0.5839 0.5536 0.41936 0.3338
3173.169 0.233 0.204 0.223 0.292 0.344307 0.3053 0.34368 0.41117 0.42246 0.3999
3192.458 0.3666 0.36194 0.37403 0.42202 0.4697 0.5334 0.6053 0.4835 0.41655 0.37777
3211.748 0.219 0.2632 0.36321 0.36946 0.2607 0.149 0.192 0.2629 0.3061 0.36185
3231.038 0.353801 0.2694 0.227 0.2541 0.4506 0.44123 0.235 0.345654 0.4977 0.4751
3250.328 0.346494 0.22 0.3079 0.3954 0.36238 0.281 0.33636 0.351961 0.2726 0.4638
3269.617 0.5573 0.4965 0.4616 0.3297 0.3219 0.3284 0.3076 0.3097 0.38919 0.4872
3288.907 0.37804 0.42128 0.5041 0.4581 0.5892 0.5921 0.6383 0.698 0.5463 0.5083
3308.197 0.4863 0.5198 0.5686 0.6469 0.7343 0.6592 0.5645 0.6495 0.7876 0.7968
3327.487 0.7476 0.6928 0.8386 1.0088 0.8723 0.9686 1.1337 1.0703 1.0094 0.9427
3346.777 1.0682 1.1802 1.2466 1.278 1.3366 1.535 1.535 1.615 1.765 1.805
3366.066 1.905 1.865 2.055 2.245 2.015 2.095 2.385 2.595 2.855 3.015
3385.356 3.225 3.535 3.705 3.915 4.205 4.465 4.775 5.125 5.525 5.835
3404.646 6.195 6.605 6.805 6.875 7.055 7.215 7.225 7.165 6.995 6.825
3423.936 6.485 6.145 5.925 5.435 4.975 4.635 4.335 4.085 3.805 3.495
3443.225 3.305 3.135 2.905 2.765 2.615 2.465 2.255 2.185 2.085 1.825
3462.515 1.705 1.745 1.675 1.3083 1.0456 0.9845 1.0437 1.0076 0.8494 0.7821
3481.805 0.7172 0.6591 0.6353 0.6496 0.597 0.5811 0.5035 0.43221 0.5189 0.5875
3501.095 0.6069 0.512 0.2947 0.2884 0.42765 0.40193 0.33559 0.35671 0.34002 0.2668
3520.385 0.235 0.2864 0.41641 0.332 0.244 0.35901 0.352225 0.3306 0.229 0.188
3539.674 0.2488 0.178 0.2455 0.37423 0.2774 0.148 0.111 0.199 0.3247 0.36698
3558.964 0.38299 0.278 0.182 0.2463 0.3283 0.3242 0.23 0.209 0.2857 0.38839
3578.254 0.34396 0.151 0.235 0.39896 0.43159 0.39324 0.2759 0.279 0.3152 0.224
3597.544 0.239 0.34125 0.2488 0.032 0 0.2949 0.4669 0.3254 0.174 0.052
3616.833 0.079 0.2655 0.4596 0.5594 0.39679 0.222 0.2514 0.214 0.3111 0.4695
3636.123 0.354638 0.27 0.2938 0.2973 0.198 0.041 0.03 0.202 0.3337 0.2837
3655.413 0.44207 0.5378 0.35711 0.3996 0.4988 0.4507 0.2833 0.2537 0.2806 0.03
3674.703 0.012 0.2823 0.2927 0.235 0.344944 0.312 0.33788 0.37721 0.199 0.2723
3693.993 0.33801 0.238 0.219 0.221 0.3262 0.3175 0.2901 0.3323 0.37905 0.4881
3713.282 0.5597 0.4712 0.3012 0.211 0.3092 0.354256 0.2631 0.2619 0.191 0.2792
3732.572 0.217 0.055 0.09 0.114 0.2522 0.39818 0.4942 0.41768 0.35722 0.42798
3751.862 0.4209 0.33878 0.3214 0.2767 0.121 0.213 0.37537 0.3112 0.182 0.148
3771.152 0.157 0.309 0.4594 0.38425 0.352535 0.35513 0.215 0.231 0.19 0.151
3790.441 0.33991 0.3181 0.2556 0.3117 0.4752 0.40592 0.244 0.231 0.183 0.2608
3809.731 0.338 0.2715 0.208 0.2977 0.3201 0.353042 0.38137 0.2586 0.2897 0.234
3829.021 0.175 0.129 0.029 0.054 0.069 0.123 0.079 0.102 0.3129 0.3335
3848.311 0.346593 0.39991 0.2649 0.3216 0.467 0.3073 0.118 0.118 0.197 0.3132
3867.601 0.204 0.023 0.05 0.038 0.101 0.159 0.095 0.173 0.3155 0.33785
3886.890 0.2607 0.233 0.2985 0.327 0.24 0.3277 0.36795 0.181 0.132 0.145
3906.180 0.075 0.117 0.19 0.2533 0.40267 0.242 0.031 0.02 0.051 0.059
3925.470 0.166 0.2839 0.202 0.222 0.311 0.34266 0.35612 0.34282 0.166 0.14
3944.760 0.239 0.216 0.33913 0.3168 0.105 0.148 0.234 0.3001 0.4221 0.2719
3964.049 0.062 0.12 0.14 0.078 0.157 0.027 0.103 0.38198 0.3093 0.14
3983.339 0.201 0.242 0.185 0.2465 0.199 0.145 0.3158 0.347732 0.218 0.204
##END=
