##TITLE=4,4'-Diacetylbiphenyl
##JCAMP-DX=4.24
##DATA TYPE=INFRARED SPECTRUM
##ORIGIN=EPA-IR VAPOR PHASE LIBRARY
##OWNER=SRD/NIST
Collection (C) 2018 copyright by the U.S. Secretary of Commerce
on behalf of the United States of America. All rights reserved.
##CAS REGISTRY NO=787-69-9
##MOLFORM=C 16 H 14 O 2
##$NIST SOURCE=MSDC-IR
##STATE=gas
##XUNITS=1/CM
##YUNITS=ABSORBANCE
##XFACTOR=1.
##YFACTOR=0.001
##DELTAX=1.92898
##FIRSTX=549.8
##LASTX=4000.7
##FIRSTY=0.5591
##MAXX=4000.7
##MINX=549.759
##MAXY=0.041547
##MINY=0
##NPOINTS=1790
##XYDATA=(X++(Y..Y))
549.759 0.5591 0.8352 1.0859 0.9686 0.7176 0.8122 1.0322 0.8855 1.014 1.317
569.049 1.231 1.597 2.177 2.177 2.467 3.187 3.957 5.427 6.937 7.967
588.339 8.997 9.067 8.347 7.127 5.657 4.717 3.817 3.017 2.507 2.187
607.628 1.747 1.427 1.297 1.1888 1.0375 0.8493 1.0407 0.9247 0.6389 0.7262
626.918 0.8262 0.6521 0.6442 0.727 0.8281 0.7353 0.6969 0.8836 0.7376 0.5278
646.208 0.1928 0.3732 0.7274 0.4588 0.34889 0.3744 0.4374 0.5619 0.5222 0.5993
665.498 0.5717 0.3121 0.34985 0.456 0.2365 0.29678 0.6079 0.5779 0.5717 0.6641
684.787 0.5934 0.4064 0.4551 0.638 0.5207 0.3695 0.34143 0.4938 0.683 0.6355
704.077 0.7 1.0013 1.1038 1.1069 1.307 1.497 1.547 1.747 2.227 2.777
723.367 3.367 3.557 3.257 2.917 2.357 1.577 1.0067 0.7527 0.7267 0.7579
742.657 0.6874 0.6423 0.6131 0.2448 0.055 0.33844 0.3608 0.516 0.596 0.4375
761.947 0.5413 0.6563 0.6447 0.591 0.5625 0.6336 0.5878 0.4783 0.5491 0.5833
781.236 0.589 0.7766 0.8708 0.9048 0.8789 0.8435 0.9811 1.0244 1.2392 1.427
800.526 1.697 2.297 2.547 2.837 3.647 4.467 5.297 6.067 6.577 6.877
819.816 6.807 6.347 5.847 5.417 4.977 4.427 3.947 3.607 3.367 3.307
839.106 2.987 2.467 2.247 2.217 2.207 2.077 1.747 1.487 1.447 1.447
858.395 1.357 1.0703 0.9564 1.257 1.267 0.9808 0.972 0.938 0.7049 0.704
877.685 0.8235 0.838 0.8992 0.8327 0.8454 0.922 0.8419 0.8475 0.7912 0.6269
896.975 0.6261 0.6413 0.5936 0.6638 0.8061 0.8254 0.6782 0.654 0.7928 0.8261
916.265 0.6491 0.6757 0.8543 0.9651 0.9604 0.6264 0.6515 0.994 1.1215 1.287
935.555 1.557 1.827 2.187 2.707 3.387 4.317 5.277 6.187 6.957 7.097
954.844 6.627 6.087 5.387 4.327 3.517 3.007 2.497 2.167 2.017 1.837
974.134 1.597 1.407 1.1841 1.118 1.377 1.487 1.337 1.377 1.617 1.877
993.424 1.947 2.047 2.457 3.007 3.627 4.437 4.847 4.707 4.047 3.097
1012.714 2.537 2.007 1.827 2.087 2.007 1.647 1.467 1.158 0.892 0.9318
1032.003 0.8109 0.8083 0.8807 0.8085 0.7628 0.8418 0.8862 0.7592 0.6721 0.31886
1051.293 0.4134 0.7314 0.6987 1.2325 1.2325 0.8354 1.0757 1.1828 1.387 1.627
1070.583 1.847 2.067 2.317 2.407 2.157 2.207 2.027 1.597 1.477 1.0558
1089.873 0.6745 0.5918 0.5827 0.5952 0.764 0.9518 0.961 0.9507 0.8006 1.0656
1109.163 1.597 1.597 1.567 1.407 0.8639 0.9484 1.0576 0.9492 0.888 0.793
1128.452 0.7013 0.6716 0.8037 0.7561 0.3661 0.4207 0.7719 0.4753 0.07 0.27609
1147.742 0.3886 0.1677 0.1858 0.31221 0.31298 0.122 0.29372 0.3623 0.4086 0.704
1167.032 0.5938 0.772 0.8996 0.9015 1.317 1.797 2.317 2.617 2.997 3.117
1186.322 2.837 2.467 2.087 1.867 1.547 1.677 1.877 1.757 1.897 1.977
1205.611 2.027 2.477 2.867 3.237 3.807 4.207 4.557 5.167 6.197 6.827
1224.901 7.657 8.747 9.127 10.027 10.617 10.527 10.677 10.927 11.637 12.707
1244.191 13.987 15.727 18.117 20.847 24.017 27.797 31.487 34.267 35.617 34.927
1263.481 31.587 26.757 22.017 18.017 15.117 12.867 10.847 9.027 7.577 6.447
1282.771 5.557 4.997 4.317 3.607 3.187 2.797 2.537 2.317 2.087 2.137
1302.060 2.197 2.167 2.267 2.367 2.307 2.147 1.957 1.717 1.507 1.457
1321.350 1.427 1.417 1.377 1.337 1.367 1.447 1.597 1.757 1.867 2.087
1340.640 2.427 2.797 3.247 3.777 4.337 5.067 6.047 7.227 8.637 9.997
1359.930 10.847 10.907 10.287 9.167 7.697 6.377 5.467 4.747 4.187 3.737
1379.219 3.497 3.527 3.607 3.757 3.987 4.237 4.577 4.807 4.857 4.817
1398.509 4.607 4.377 4.107 3.877 3.767 3.687 3.677 3.647 3.537 3.307
1417.799 2.997 2.657 2.397 2.287 2.237 2.187 2.097 2.047 2.007 1.897
1437.089 1.837 1.797 1.697 1.647 1.577 1.547 1.517 1.387 1.327 1.287
1456.378 1.267 1.2276 1.19 1.2049 1.1561 1.114 1.0938 1.136 1.0941 0.9922
1475.668 1.034 1.0558 1.0234 0.9469 0.9067 0.8828 0.8589 0.8817 0.9018 0.9087
1494.958 0.894 0.8918 0.8488 0.8527 0.8015 0.7535 0.762 0.7531 0.7508 0.7721
1514.248 0.8054 0.7744 0.7747 0.8444 0.9288 0.8847 0.84 0.8568 0.8926 0.9366
1533.538 0.9857 1.1106 1.161 1.2169 1.367 1.477 1.607 1.827 1.937 1.947
1552.827 2.037 2.007 1.987 2.007 1.967 1.937 1.957 1.947 2.067 2.107
1572.117 2.017 2.067 2.037 1.957 2.097 2.317 2.497 2.807 3.367 4.097
1591.407 5.067 6.347 7.767 9.207 10.727 11.867 12.237 11.907 10.757 8.927
1610.697 6.927 5.247 4.097 3.247 2.637 2.307 2.007 1.867 1.787 1.627
1629.986 1.567 1.527 1.487 1.417 1.437 1.467 1.497 1.597 1.627 1.747
1649.276 1.887 1.877 1.927 2.007 2.127 2.347 2.487 2.537 2.617 2.677
1668.566 2.817 2.997 3.137 3.397 3.667 3.887 4.297 4.947 5.827 6.867
1687.856 8.117 9.787 12.137 15.257 19.647 25.457 32.037 38.377 41.547 41.057
1707.146 36.847 30.087 23.017 17.377 13.267 10.267 8.007 6.407 5.167 4.357
1726.435 3.777 3.307 3.027 2.797 2.587 2.447 2.307 2.157 2.027 1.937
1745.725 1.807 1.767 1.717 1.657 1.607 1.507 1.387 1.317 1.297 1.2372
1765.015 1.2027 1.1104 1.039 1.0363 0.9789 0.8408 0.7566 0.7827 0.7943 0.7691
1784.305 0.7733 0.7369 0.651 0.6483 0.6886 0.716 0.7382 0.7954 0.9019 0.8812
1803.594 0.83 0.8509 0.8532 0.8208 0.7258 0.6333 0.5352 0.5026 0.51 0.4902
1822.884 0.5325 0.5862 0.5552 0.4925 0.4883 0.4982 0.492 0.5042 0.47 0.4342
1842.174 0.459 0.4457 0.5126 0.5801 0.5187 0.5135 0.508 0.506 0.5335 0.5249
1861.464 0.5268 0.4964 0.4783 0.4423 0.4522 0.5035 0.4939 0.5109 0.5205 0.5174
1880.754 0.5454 0.584 0.6403 0.6234 0.629 0.7207 0.7266 0.6498 0.6729 0.7053
1900.043 0.7207 0.7853 0.7672 0.7452 0.7294 0.6873 0.6604 0.6712 0.6684 0.6493
1919.333 0.6614 0.6648 0.6432 0.695 0.7262 0.6954 0.6738 0.6272 0.5683 0.5021
1938.623 0.5513 0.5828 0.5318 0.5205 0.5325 0.554 0.5496 0.4639 0.4507 0.4764
1957.913 0.4375 0.4201 0.4497 0.4732 0.4691 0.4809 0.465 0.514 0.5517 0.5252
1977.202 0.5442 0.5348 0.4832 0.5054 0.5377 0.553 0.5825 0.5646 0.5184 0.4776
1996.492 0.451 0.4578 0.4193 0.34869 0.31377 0.3633 0.4373 0.4287 0.38 0.35342
2015.782 0.32991 0.3754 0.4616 0.4625 0.4396 0.4065 0.35485 0.3871 0.4572 0.4067
2035.072 0.3587 0.3654 0.3688 0.3888 0.3787 0.3661 0.368 0.4179 0.4473 0.4342
2054.362 0.3859 0.3613 0.3713 0.30884 0.2339 0.22 0.27951 0.3668 0.377 0.31091
2073.651 0.362 0.4293 0.418 0.32846 0.25071 0.30508 0.3989 0.34797 0.34863 0.4358
2092.941 0.35159 0.3727 0.4196 0.29648 0.2403 0.29023 0.3858 0.4419 0.4211 0.3638
2112.231 0.265033 0.28456 0.3703 0.32688 0.31654 0.32744 0.2704 0.2394 0.31789 0.363
2131.521 0.32057 0.3667 0.422 0.3858 0.31186 0.257627 0.28253 0.30329 0.29999 0.3331
2150.810 0.33307 0.33759 0.3963 0.31045 0.28477 0.385 0.32532 0.33547 0.4148 0.3887
2170.100 0.438 0.4123 0.31156 0.30512 0.31003 0.31483 0.3313 0.33585 0.28648 0.243
2189.390 0.2868 0.31116 0.2959 0.29792 0.31092 0.34808 0.4427 0.442 0.33456 0.3732
2208.680 0.3704 0.3667 0.3758 0.33809 0.34482 0.34792 0.29829 0.27147 0.25368 0.2312
2227.970 0.257278 0.31652 0.3806 0.3867 0.32935 0.3227 0.3666 0.3531 0.31901 0.28014
2247.259 0.3603 0.33731 0.33309 0.4611 0.403 0.28459 0.27007 0.33118 0.3861 0.3908
2266.549 0.3682 0.4489 0.4794 0.3957 0.35671 0.4029 0.4336 0.4474 0.4908 0.4222
2285.839 0.3576 0.386 0.3733 0.4393 0.5168 0.4754 0.4338 0.4136 0.4102 0.428
2305.129 0.4213 0.4711 0.4917 0.4914 0.4578 0.3797 0.3954 0.4433 0.4584 0.3873
2324.418 0.33497 0.4442 0.5418 0.5097 0.4554 0.4078 0.4002 0.4645 0.5089 0.4379
2343.708 0.418 0.3617 0.31449 0.260275 0.2417 0.33159 0.35293 0.32339 0.3634 0.4358
2362.998 0.4023 0.32091 0.29717 0.32613 0.30625 0.257851 0.30074 0.31703 0.2402 0.266338
2382.288 0.3807 0.4161 0.3967 0.4079 0.3724 0.32363 0.27985 0.34489 0.3933 0.33108
2401.578 0.3747 0.4097 0.3816 0.3651 0.33812 0.29276 0.34656 0.4353 0.4008 0.33006
2420.867 0.34238 0.3954 0.378 0.32502 0.33175 0.3628 0.368 0.3857 0.3742 0.3845
2440.157 0.358 0.31004 0.33845 0.3748 0.32348 0.28391 0.33625 0.33635 0.2835 0.3603
2459.447 0.4413 0.4296 0.4498 0.4431 0.4286 0.3792 0.31494 0.35674 0.33404 0.29385
2478.737 0.31036 0.3832 0.412 0.3368 0.2343 0.1833 0.3194 0.3665 0.33573 0.4122
2498.026 0.4051 0.33306 0.3817 0.3967 0.4077 0.4364 0.4004 0.3724 0.374 0.4101
2517.316 0.4444 0.3894 0.3689 0.32655 0.32925 0.4309 0.4407 0.4366 0.471 0.4905
2536.606 0.4222 0.4438 0.4827 0.503 0.4013 0.33089 0.4059 0.3759 0.30803 0.33833
2555.896 0.4042 0.4456 0.4259 0.28657 0.28779 0.35284 0.3734 0.3875 0.3668 0.30598
2575.186 0.260975 0.27844 0.31797 0.3644 0.31062 0.30283 0.34014 0.34409 0.4159 0.3938
2594.475 0.34353 0.4528 0.4664 0.3706 0.3793 0.4047 0.4567 0.4885 0.4007 0.3205
2613.765 0.33965 0.35445 0.4491 0.4378 0.28651 0.30166 0.30303 0.32636 0.3643 0.27388
2633.055 0.16 0.1956 0.31373 0.3643 0.3726 0.3667 0.30961 0.3861 0.4363 0.3722
2652.345 0.3387 0.3921 0.4347 0.4482 0.4225 0.30492 0.28825 0.28736 0.2856 0.34086
2671.634 0.4164 0.402 0.4121 0.4013 0.263592 0.262063 0.3703 0.4067 0.3837 0.3492
2690.924 0.3618 0.3615 0.3378 0.2888 0.35127 0.3978 0.30482 0.30168 0.4508 0.4608
2710.214 0.433 0.4346 0.3941 0.4708 0.3639 0.3612 0.442 0.32366 0.260647 0.26895
2729.504 0.2766 0.31066 0.4226 0.3674 0.33192 0.4429 0.5152 0.4845 0.4176 0.4418
2748.794 0.4598 0.4325 0.32899 0.30965 0.33108 0.35004 0.4615 0.5706 0.5448 0.4461
2768.083 0.4293 0.4076 0.34213 0.34066 0.3671 0.4103 0.4076 0.33113 0.3917 0.4025
2787.373 0.3981 0.3731 0.35245 0.4568 0.4126 0.3658 0.371 0.27776 0.343 0.4887
2806.663 0.4022 0.3652 0.4311 0.3622 0.3797 0.4213 0.3939 0.3613 0.3659 0.4401
2825.953 0.4473 0.4812 0.4912 0.5161 0.5413 0.4748 0.4715 0.4951 0.4439 0.4593
2845.242 0.5088 0.5223 0.6299 0.711 0.6732 0.6507 0.6074 0.5172 0.5726 0.6105
2864.532 0.6257 0.7133 0.7676 0.6383 0.5329 0.6286 0.6854 0.6167 0.6457 0.7452
2883.822 0.6561 0.5043 0.5991 0.6491 0.5635 0.6351 0.5971 0.5295 0.5104 0.4999
2903.112 0.5733 0.5437 0.5007 0.5145 0.5213 0.5103 0.525 0.6317 0.6436 0.6063
2922.401 0.7227 0.7782 0.7144 0.7368 0.778 0.8804 0.8309 0.8863 0.9828 0.9016
2941.691 0.8529 0.8057 0.7977 0.7027 0.6939 0.6986 0.7549 0.7277 0.7292 0.8581
2960.981 0.898 0.9577 1.0894 1.0566 0.9817 1.036 0.999 0.8884 0.8092 0.9306
2980.271 1.0476 1.0294 0.9457 0.8552 0.9236 1.035 1.0628 1.084 1.1961 1.307
2999.561 1.2331 1.1762 1.277 1.447 1.527 1.707 1.967 2.137 2.177 2.037
3018.850 1.977 1.897 1.787 1.717 1.707 1.697 1.737 1.967 2.167 2.367
3038.140 2.617 2.687 2.587 2.427 2.247 2.017 1.937 1.947 1.957 1.957
3057.430 1.857 1.857 1.837 1.837 1.837 1.807 1.737 1.657 1.777 1.977
3076.720 2.027 2.007 1.967 2.007 2.287 2.317 2.117 2.057 1.977 1.937
3096.009 1.887 1.627 1.517 1.337 1.2313 1.297 1.2051 1.1236 1.0902 1.0478
3115.299 0.9223 0.8141 0.8218 0.7757 0.7814 0.8257 0.7139 0.5931 0.6138 0.5964
3134.589 0.6701 0.795 0.7895 0.6981 0.5006 0.432 0.522 0.5193 0.4874 0.5671
3153.879 0.4719 0.4076 0.5432 0.6336 0.5541 0.4132 0.4602 0.4463 0.3786 0.4366
3173.169 0.4545 0.34606 0.30422 0.3603 0.35373 0.3694 0.4502 0.5115 0.45 0.4121
3192.458 0.4226 0.27577 0.1888 0.3663 0.4858 0.5165 0.519 0.4723 0.5824 0.4654
3211.748 0.1743 0.1822 0.27894 0.26727 0.31382 0.32786 0.29981 0.3966 0.4385 0.33601
3231.038 0.27549 0.3683 0.4437 0.34962 0.3573 0.3845 0.35032 0.32151 0.32147 0.32933
3250.328 0.36 0.30132 0.2478 0.4396 0.4561 0.3647 0.29773 0.25527 0.2472 0.26008
3269.617 0.2303 0.078 0.2114 0.439 0.4604 0.30821 0.24759 0.35577 0.3951 0.4333
3288.907 0.29224 0.2249 0.2416 0.249 0.35186 0.30524 0.26753 0.27673 0.3752 0.3954
3308.197 0.27302 0.29104 0.33294 0.147 0.1942 0.4341 0.5514 0.5054 0.32414 0.26784
3327.487 0.242 0.27807 0.258788 0.24826 0.32241 0.4071 0.3658 0.3689 0.4775 0.327
3346.777 0.1615 0.25336 0.4351 0.4054 0.30172 0.4232 0.4561 0.366 0.4092 0.434
3366.066 0.4332 0.4777 0.579 0.692 0.6166 0.5652 0.6791 0.8142 0.928 0.8708
3385.356 0.7907 0.9157 1.0529 0.9738 0.8743 0.944 0.7636 0.6167 0.6081 0.5267
3404.646 0.4796 0.5305 0.5608 0.5747 0.6012 0.5315 0.4808 0.3875 0.4113 0.4506
3423.936 0.4411 0.3717 0.213 0.3945 0.44 0.34256 0.29684 0.2848 0.4544 0.5144
3443.225 0.4889 0.3647 0.27638 0.2159 0.1723 0.2339 0.2737 0.15 0.2464 0.35259
3462.515 0.31916 0.27568 0.29547 0.4392 0.28227 0.2192 0.27451 0.1798 0.2406 0.3155
3481.805 0.31777 0.3415 0.35358 0.2381 0.2152 0.2125 0.24893 0.4224 0.4146 0.29346
3501.095 0.24858 0.34813 0.28131 0.1931 0.154 0.193 0.26376 0.2041 0.28593 0.265652
3520.385 0.2449 0.2375 0.1583 0.157 0.25571 0.33224 0.3623 0.3738 0.3887 0.4091
3539.674 0.29235 0.28909 0.31451 0.34146 0.4135 0.3972 0.2419 0.1978 0.1636 0.1824
3558.964 0.33779 0.3348 0.1665 0 0.028 0.1897 0.34239 0.3708 0.266201 0.191
3578.254 0.148 0.2468 0.32625 0.3576 0.4337 0.4171 0.394 0.33667 0.30915 0.2219
3597.544 0.2041 0.2305 0.28692 0.34028 0.32328 0.201 0.2125 0.27701 0.25381 0.257326
3616.833 0.32915 0.32761 0.29647 0.5232 0.3976 0.1766 0.257236 0.29571 0.3743 0.32491
3636.123 0.5015 0.6214 0.4143 0.4505 0.4142 0.4006 0.488 0.4122 0.3408 0.29532
3655.413 0.2013 0.25503 0.3578 0.3757 0.5112 0.4987 0.2319 0.099 0.123 0.27928
3674.703 0.2352 0.031 0.118 0.31932 0.32181 0.351 0.4278 0.24918 0.29557 0.3991
3693.993 0.30048 0.2429 0.2256 0.176 0.144 0.29505 0.30191 0.33683 0.4484 0.4012
3713.282 0.3929 0.4297 0.3918 0.32166 0.265284 0.373 0.5303 0.4612 0.3916 0.3647
3732.572 0.2214 0.131 0.2391 0.2418 0.1697 0.1943 0.33425 0.3925 0.32317 0.26847
3751.862 0.1846 0.34435 0.5179 0.4465 0.29169 0.2461 0.29823 0.26776 0.31857 0.31676
3771.152 0.3689 0.3605 0.27018 0.3541 0.3835 0.30978 0.235 0.2224 0.29286 0.3266
3790.441 0.30271 0.3612 0.5532 0.5042 0.28403 0.28409 0.25038 0.35158 0.427 0.29264
3809.731 0.34434 0.4179 0.34478 0.3945 0.35032 0.3557 0.4187 0.4265 0.5194 0.4328
3829.021 0.27148 0.26902 0.4132 0.4198 0.31062 0.4596 0.5294 0.4878 0.4631 0.3669
3848.311 0.29126 0.35353 0.263798 0.258423 0.35518 0.3279 0.30977 0.2429 0.34831 0.34233
3867.601 0.4198 0.4281 0.31305 0.28204 0.2417 0.2429 0.24832 0.32236 0.3952 0.33168
3886.890 0.3815 0.5435 0.5065 0.35385 0.31596 0.34016 0.26793 0.256518 0.1626 0.092
3906.180 0.125 0.183 0.35669 0.28033 0.2281 0.28954 0.31104 0.34955 0.24771 0.2404
3925.470 0.2333 0.2279 0.34585 0.28784 0.131 0.1956 0.3705 0.361 0.34119 0.526
3944.760 0.4601 0.33153 0.4066 0.2397 0.135 0.1993 0.30322 0.35413 0.31836 0.281
3964.049 0.261133 0.3766 0.3871 0.2464 0.2468 0.3649 0.3973 0.4339 0.3844 0.4069
3983.339 0.5366 0.4398 0.493 0.493 0.4322 0.35601 0.33124 0.29314 0.133 0.2106
##END=
