##TITLE=Triphenylsilane
##JCAMP-DX=4.24
##DATA TYPE=INFRARED SPECTRUM
##ORIGIN=NIST Mass Spectrometry Data Center
##OWNER=NIST Standard Reference Data Program
Collection (C) 2018 copyright by the U.S. Secretary of Commerce
on behalf of the United States of America. All rights reserved.
##CAS REGISTRY NO=789-25-3
##MOLFORM=C 18 H 16 Si
##$NIST SOURCE=MSDC-IR
##SPECTROMETER/DATA SYSTEM=HP-GC/MS/IRD
##STATE=gas
##XUNITS=1/CM
##YUNITS=ABSORBANCE
##XFACTOR=1.0
##YFACTOR=0.000007500
##DELTAX=4.0
##FIRSTX=550.0
##LASTX=3846.0
##FIRSTY=0.000225
##MAXX=3846
##MINX=550
##MAXY=0.075
##MINY=0
##NPOINTS=825
##XYDATA=(X++(Y..Y))
550.0 30 36 23 2 3 20 34 32 26 28
590.0 32 33 34 26 29 32 36 41 46 49
630.0 42 44 56 74 92 111 139 173 223 308
670.0 431 566 697 841 1075 1445 1851 2070 2005 1822
710.0 1727 1763 1930 2289 2744 2891 2515 1881 1357 1012
750.0 788 642 550 494 452 414 387 389 438 552
790.0 772 1242 2243 4573 8473 10000 7070 3675 1856 1022
830.0 646 459 374 350 362 382 383 370 369 367
870.0 329 265 204 167 144 123 106 91 80 73
910.0 67 64 58 51 49 48 48 47 47 51
950.0 51 54 59 59 58 57 53 49 48 50
990.0 73 116 139 120 77 48 42 47 70 98
1030.0 100 77 55 49 59 75 95 123 147 162
1070.0 179 202 238 296 382 508 701 978 1360 1867
1110.0 2350 2497 2169 1577 1036 652 401 263 192 151
1150.0 130 118 106 97 95 98 112 144 200 279
1190.0 332 305 211 120 76 58 50 49 49 51
1230.0 55 62 73 85 95 105 116 121 122 123
1270.0 120 114 109 103 105 113 124 127 119 113
1310.0 113 120 137 153 157 143 121 102 88 75
1350.0 71 69 71 77 80 79 76 67 64 63
1390.0 65 72 83 101 137 194 277 402 583 768
1430.0 827 689 471 303 208 150 115 94 85 81
1470.0 76 80 99 133 156 141 97 60 45 38
1510.0 36 35 31 31 36 44 50 53 58 66
1550.0 70 73 80 90 99 104 104 102 106 108
1590.0 98 77 64 61 64 65 61 54 45 42
1630.0 48 59 81 100 102 87 61 43 35 32
1670.0 32 30 28 26 23 23 22 19 19 22
1710.0 24 22 21 22 21 20 20 22 28 34
1750.0 39 45 51 52 50 53 57 57 51 48
1790.0 48 58 77 105 137 161 163 147 124 102
1830.0 83 64 49 41 37 35 37 42 50 61
1870.0 76 95 110 122 134 142 139 116 82 54
1910.0 42 38 37 38 38 43 53 69 89 109
1950.0 123 127 130 127 112 85 56 37 26 21
1990.0 16 15 16 15 14 13 12 12 12 13
2030.0 11 11 13 15 18 18 23 30 33 32
2070.0 28 26 27 30 33 41 51 68 90 131
2110.0 195 323 531 922 1560 2419 2876 2085 1019 404
2150.0 159 104 69 56 45 39 35 33 32 32
2190.0 31 26 20 17 18 19 20 20 19 16
2230.0 14 11 9 9 11 11 10 11 11 10
2270.0 10 10 14 18 17 17 18 17 19 21
2310.0 27 31 29 20 11 9 8 8 10 14
2350.0 13 10 7 5 4 3 3 4 6 9
2390.0 11 9 8 6 3 4 4 3 5 3
2430.0 2 3 4 2 1 2 4 3 2 0
2470.0 0 1 2 3 2 3 2 3 4 2
2510.0 0 2 3 3 2 4 6 4 3 4
2550.0 3 6 9 10 9 9 12 15 17 20
2590.0 18 17 15 12 12 15 16 16 12 6
2630.0 5 7 7 6 5 4 3 6 9 8
2670.0 8 11 15 17 18 20 20 19 15 13
2710.0 11 8 7 5 4 2 1 1 2 1
2750.0 0 0 0 0 2 4 2 3 4 7
2790.0 9 10 14 16 19 20 20 22 21 18
2830.0 16 16 18 16 17 19 19 19 14 12
2870.0 11 12 18 22 24 30 37 40 40 43
2910.0 46 46 40 35 32 31 31 30 30 31
2950.0 32 34 35 39 48 57 69 86 109 145
2990.0 195 259 335 428 534 650 742 757 685 587
3030.0 506 454 449 526 726 1105 1655 2108 2160 1886
3070.0 1639 1514 1342 1110 914 752 579 397 253 173
3110.0 135 116 107 110 117 123 129 125 99 65
3150.0 41 30 21 20 21 23 20 15 14 15
3190.0 13 12 12 10 9 11 10 9 7 9
3230.0 10 9 10 13 11 10 9 9 10 8
3270.0 5 6 9 11 9 4 3 4 5 7
3310.0 7 4 5 5 4 5 7 6 5 3
3350.0 0 1 7 7 8 7 5 6 5 4
3390.0 6 9 8 3 1 3 5 8 8 5
3430.0 6 9 8 5 6 8 8 9 9 9
3470.0 7 7 3 2 5 6 5 8 9 7
3510.0 4 5 10 11 9 12 13 11 9 10
3550.0 9 9 8 7 10 10 6 4 5 7
3590.0 7 6 9 8 6 8 10 10 12 12
3630.0 14 17 13 14 11 12 14 12 10 12
3670.0 16 18 16 18 22 25 24 21 20 18
3710.0 18 16 15 15 18 20 17 16 20 22
3750.0 21 22 21 16 13 14 15 16 13 13
3790.0 12 12 10 8 12 13 11 10 11 10
3830.0 8 10 11 9 11
##END=
