##TITLE=2-Aminochrysene
##JCAMP-DX=4.24
##DATA TYPE=INFRARED SPECTRUM
##ORIGIN=EPA-IR VAPOR PHASE LIBRARY
##OWNER=SRD/NIST
Collection (C) 2018 copyright by the U.S. Secretary of Commerce
on behalf of the United States of America. All rights reserved.
##CAS REGISTRY NO=789-47-9
##MOLFORM=C 18 H 13 N
##$NIST SOURCE=MSDC-IR
##STATE=gas
##XUNITS=1/CM
##YUNITS=ABSORBANCE
##XFACTOR=1.
##YFACTOR=0.001
##DELTAX=1.92898
##FIRSTX=549.8
##LASTX=4000.7
##FIRSTY=3.3
##MAXX=4000.7
##MINX=549.759
##MAXY=0.02256
##MINY=0
##NPOINTS=1790
##XYDATA=(X++(Y..Y))
549.759 3.3 3.6 3.58 2.79 2.84 3.31 2.87 2.98 3.4 3.27
569.049 3.28 3.34 3.45 3.66 3.14 3.28 3.95 3.77 3.61 3.14
588.339 3.04 3.18 2.76 2.96 3.43 3.16 3.02 2.92 2.51 2.35
607.628 2.57 2.57 2.64 2.99 2.81 2.73 2.68 2.76 2.97 2.91
626.918 2.91 3.15 3.23 3.26 3.42 3.15 3.1 3.48 3.73 3.87
646.208 3.87 3.76 3.67 3.92 3.75 3.13 2.49 2.34 2.56 2.39
665.498 2.12 2.17 2.34 2.46 2.61 2.97 3.13 3.16 3.08 3.07
684.787 3.48 3.2 2.88 2.83 2.53 2.24 1.93 1.85 2.08 2.1
704.077 2 2.13 2.16 2.42 2.76 2.73 2.61 2.47 2.17 2
723.367 2.4 2.7 2.65 2.81 3.15 3.28 3.58 4.21 5.11 6.94
742.657 9.15 11.56 14.2 16.73 20.16 22.56 20.52 16.55 13.7 11.28
761.947 8.81 6.72 4.96 3.65 3.03 2.9 2.91 2.82 2.73 2.56
781.236 2.39 2.23 2.33 2.36 2.24 2.38 2.4 2.67 3.12 3.43
800.526 4.16 5.2 6.12 7.17 7.67 7.13 5.98 5.16 4.47 3.63
819.816 3.13 2.72 2.45 2.52 2.24 2.04 2.35 2.46 2.6 2.85
839.106 3.17 3.31 3.32 3.25 3.03 2.75 2.89 2.91 3.06 3.41
858.395 2.88 2.45 2.55 2.48 2.48 2.45 2.39 2.43 2.82 2.8
877.685 2.19 1.83 1.88 1.89 1.92 1.98 1.3795 1.0299 1.1623 1.4982
896.975 1.71 1.3424 1.146 1.3178 1.2958 1.392 1.52 1.1742 1.0214 1.189
916.265 1.0384 1.2086 1.5044 1.4096 1.62 1.8 1.504 1.3678 1.4867 1.53
935.555 1.69 1.77 1.55 1.2167 1.1438 1.3896 1.4316 1.4656 1.3699 1.238
954.844 1.5189 1.69 1.4628 1.2138 1.1651 1.093 1.1989 1.1499 1.0448 1.1417
974.134 1.1823 1.0886 1.2652 1.3301 1.3178 1.56 1.087 0.9202 1.0294 1.0037
993.424 0.8128 0.8767 1.0568 1.0885 1.2079 1.0943 0.9448 1.2169 1.72 1.4514
1012.714 1.2555 1.3144 1.2848 1.53 1.52 1.2414 1.2745 1.53 1.79 2.17
1032.003 2.51 2.58 2.67 2.66 2.37 2.33 2.35 2.24 2.1 1.89
1051.293 1.56 1.4671 1.61 1.2324 1.1873 0.8232 0.9114 1.56 1.1572 0.7741
1070.583 0.6756 0.6791 1.2639 1.1504 0.8084 0.8443 0.672 0.53355 0.8024 1.1629
1089.873 0.7227 0.685 1.0547 0.6559 0.019 0.166 0.309 0.362 0.6754 0.7014
1109.163 0.145 0 0.402 0.198 0.193 0.139 0.6536 1.0807 0.7657 0.86
1128.452 0.9833 0.9798 1.1909 1.4313 0.8101 0.51607 0.789 0.9394 0.60457 0.6697
1147.742 0.321 0.356 0.5097 0.372 0.53424 0.322 0.6349 1.1877 1.2897 1.0115
1167.032 1.0644 1.4913 1.2609 0.9016 1.0406 1.1 1.3134 0.9157 0.8052 0.9443
1186.322 0.7065 0.9648 1.5175 1.82 1.56 1.04 1.1215 0.9611 0.8912 1.3639
1205.611 1.261 1.15 0.8869 1.4248 1.61 1.3364 2.4 2.99 2.44 2.23
1224.901 2.64 3.14 3.34 3.34 3.18 2.85 2.61 2.85 3.04 3.02
1244.191 3.08 2.95 2.66 2.46 2.54 2.78 2.91 2.81 2.87 2.98
1263.481 2.84 2.5 1.77 1.3615 1.4646 1.0177 0.60067 0.7657 0.9165 0.9838
1282.771 1.1917 1.2271 1.1391 0.9132 1.0051 1.2969 1.0995 1.0371 1.0779 1.1553
1302.060 1.3768 1.2263 1.0171 0.9144 0.9268 0.93 0.849 0.9093 0.9224 0.9249
1321.350 1.0568 1.1653 1.2007 1.2161 1.2365 1.3628 1.488 1.5058 1.518 1.5086
1340.640 1.52 1.4035 1.3726 1.3712 1.3031 1.4012 1.3795 1.3169 1.3342 1.359
1359.930 1.4219 1.4965 1.53 1.77 2.07 2.23 2.55 2.91 3.26 3.56
1379.219 3.77 3.93 3.87 3.57 3.32 3.07 2.68 2.33 2.16 2.01
1398.509 1.8 1.71 1.76 1.85 1.94 2 2.03 2.2 2.46 2.66
1417.799 2.87 3.19 3.6 3.99 4.17 4.28 4.54 4.88 5.12 5.43
1437.089 5.75 5.83 5.71 5.45 5.19 4.89 4.49 4.01 3.62 3.29
1456.378 2.89 2.46 2.1 1.91 1.83 1.79 1.82 1.86 1.95 2.1
1475.668 2.32 2.71 3.25 3.8 4.19 4.37 4.42 4.25 3.93 3.45
1494.958 2.93 2.56 2.32 2.28 2.18 2.13 2.25 2.46 2.74 2.92
1514.248 3.26 3.72 4.06 4.34 4.53 4.6 4.47 4.07 3.5 3.02
1533.538 2.56 2.04 1.75 1.71 1.59 1.4226 1.3157 1.3103 1.4161 1.484
1552.827 1.3834 1.2829 1.326 1.5166 1.55 1.5199 1.69 1.77 1.96 2.3
1572.117 2.43 2.58 2.73 2.84 2.96 3.1 3.3 3.69 4.24 4.84
1591.407 5.53 6.06 6.36 6.51 6.74 6.77 6.48 6.36 6.58 7.07
1610.697 7.64 8.17 8.74 9.54 10.4 11.19 12.09 13.2 14.14 14.68
1629.986 14.81 14.29 13.32 12.03 10.42 8.79 7.28 6.06 5.13 4.34
1649.276 3.7 3.3 2.99 2.7 2.52 2.36 2.33 2.33 2.21 2.11
1668.566 2.07 2.13 2.14 2.04 2.03 2.02 1.91 1.88 1.86 1.78
1687.856 1.7 1.62 1.6 1.63 1.56 1.4377 1.414 1.4632 1.4578 1.435
1707.146 1.3703 1.3017 1.432 1.4795 1.3796 1.3772 1.3463 1.2406 1.2267 1.2683
1726.435 1.2125 1.1554 1.1363 1.124 1.2247 1.286 1.3144 1.4056 1.5059 1.64
1745.725 1.7 1.65 1.58 1.4681 1.3251 1.2884 1.172 1.0698 0.9881 0.8949
1765.015 0.9292 0.9467 0.9274 0.8972 0.9982 1.0494 0.9991 1.0351 1.0971 1.1837
1784.305 1.202 1.2437 1.3205 1.2873 1.2713 1.1992 1.1518 1.2847 1.2852 1.2416
1803.594 1.2746 1.2266 1.1648 1.1505 1.0933 1.1214 1.1698 1.1727 1.1591 1.1726
1822.884 1.2085 1.217 1.1817 1.0745 1.0752 1.0456 0.9583 0.8625 0.8114 0.7894
1842.174 0.793 0.8092 0.8447 0.8942 0.8967 0.9078 0.867 0.7875 0.7347 0.8275
1861.464 0.9388 0.8844 0.8819 0.9135 0.9392 1.1392 1.2577 1.2138 1.1986 1.1796
1880.754 1.2188 1.2148 1.2813 1.3105 1.1668 1.0986 1.1213 1.1569 1.1881 1.2045
1900.043 1.1509 1.179 1.194 1.1804 1.2069 1.1282 1.1101 1.1496 0.9921 0.9505
1919.333 1.062 1.087 1.1436 1.2058 1.2295 1.3285 1.3705 1.4124 1.4896 1.55
1938.623 1.54 1.3923 1.3746 1.3268 1.0999 0.9786 0.8865 0.8008 0.8437 0.8892
1957.913 0.8877 0.8304 0.8362 0.8152 0.7303 0.7365 0.7846 0.8236 0.8254 0.8375
1977.202 0.8113 0.7627 0.8507 0.9073 0.8327 0.8532 0.8821 0.8501 0.8889 0.8247
1996.492 0.8074 0.8892 0.8265 0.7882 0.7884 0.7601 0.8154 0.8589 0.8349 0.8048
2015.782 0.7953 0.8403 0.832 0.8094 0.7386 0.7367 0.7139 0.6823 0.662 0.6426
2035.072 0.6933 0.6379 0.6611 0.6548 0.58577 0.6285 0.6891 0.7153 0.7735 0.844
2054.362 0.9011 0.8359 0.808 0.8077 0.7253 0.7348 0.7614 0.7794 0.8469 0.8616
2073.651 0.9021 0.901 0.8113 0.7789 0.7385 0.7655 0.8169 0.8573 0.861 0.7611
2092.941 0.7474 0.7791 0.6766 0.676 0.6583 0.7076 0.8179 0.7282 0.7428 0.7462
2112.231 0.7282 0.7289 0.6799 0.7846 0.8877 0.8047 0.7553 0.8178 0.8102 0.7301
2131.521 0.7648 0.7662 0.8012 0.8667 0.8017 0.6579 0.681 0.8136 0.7673 0.8107
2150.810 0.8602 0.8375 0.7501 0.60261 0.6282 0.6488 0.6706 0.7534 0.7205 0.7007
2170.100 0.6512 0.6244 0.7224 0.7759 0.7479 0.6336 0.61015 0.6403 0.6203 0.6629
2189.390 0.6572 0.6306 0.7527 0.7623 0.6872 0.7395 0.7401 0.7454 0.6998 0.6757
2208.680 0.7642 0.6954 0.61573 0.6999 0.7431 0.7634 0.835 0.832 0.8152 0.8883
2227.970 0.8193 0.6435 0.699 0.6594 0.54403 0.6512 0.8122 0.8578 0.7269 0.7057
2247.259 0.7594 0.7364 0.6645 0.7355 0.8894 0.8015 0.7495 0.7676 0.7819 0.8185
2266.549 0.7469 0.7068 0.8175 0.8461 0.768 0.7007 0.7849 0.7667 0.61004 0.6534
2285.839 0.6683 0.7219 0.7753 0.6922 0.7632 0.8252 0.8204 0.7395 0.6281 0.6788
2305.129 0.7375 0.7812 0.7871 0.7336 0.7245 0.7692 0.745 0.6993 0.648 0.7388
2324.418 0.7902 0.7366 0.795 0.824 0.7556 0.8035 0.8691 0.8389 0.8444 0.891
2343.708 0.9194 0.836 0.7646 0.7769 0.8463 0.8367 0.8426 0.8796 0.8298 0.8503
2362.998 0.8414 0.6872 0.6285 0.7478 0.8535 0.736 0.6374 0.7436 0.7512 0.7367
2382.288 0.7203 0.7769 0.7727 0.7262 0.7506 0.744 0.723 0.7218 0.7398 0.6855
2401.578 0.6781 0.6861 0.8491 0.8829 0.8031 0.7883 0.7008 0.7011 0.7953 0.7884
2420.867 0.7705 0.8898 0.8584 0.7616 0.6759 0.7268 0.7691 0.714 0.7303 0.6484
2440.157 0.7505 0.9539 0.8743 0.7861 0.7334 0.6886 0.687 0.7084 0.7473 0.7948
2459.447 0.9377 0.9113 0.8579 0.8468 0.7873 0.7414 0.7222 0.8062 0.7925 0.7803
2478.737 0.7349 0.7032 0.7084 0.7745 0.9361 0.8918 0.79 0.7593 0.6959 0.6522
2498.026 0.6943 0.7884 0.7256 0.78 0.8435 0.7932 0.7966 0.7869 0.755 0.7165
2517.316 0.6738 0.54273 0.6598 0.8086 0.685 0.7016 0.8416 0.8458 0.8205 0.7994
2536.606 0.8008 0.833 0.8132 0.6701 0.60119 0.59809 0.7597 0.8564 0.7456 0.7913
2555.896 0.7607 0.781 0.8167 0.7465 0.7638 0.7989 0.8727 0.8978 0.8026 0.7321
2575.186 0.7492 0.894 0.9821 0.942 0.9115 0.8431 0.6646 0.6608 0.8305 0.7891
2594.475 0.7119 0.6252 0.6411 0.8039 0.83 0.6891 0.676 0.7448 0.8062 0.8344
2613.765 0.6818 0.6489 0.8375 0.8351 0.7412 0.8064 0.8316 0.7742 0.6775 0.8123
2633.055 0.9504 0.8743 0.8018 0.7469 0.7811 0.8344 0.8683 0.8177 0.7757 0.7603
2652.345 0.7368 0.7221 0.6389 0.6945 0.7451 0.7505 0.8819 0.9033 0.8537 0.9119
2671.634 0.9198 0.8496 0.7025 0.55997 0.6728 0.845 0.7633 0.8204 0.8817 0.7223
2690.924 0.7795 0.7416 0.7129 0.7358 0.7175 0.6996 0.6211 0.6366 0.7572 0.7601
2710.214 0.7277 0.742 0.7206 0.7175 0.6353 0.6561 0.8046 0.7836 0.7263 0.8417
2729.504 0.828 0.7413 0.7078 0.6463 0.7014 0.7131 0.6854 0.8289 0.8757 0.7056
2748.794 0.6655 0.6804 0.6554 0.711 0.7184 0.7179 0.7208 0.6719 0.721 0.7389
2768.083 0.7324 0.8472 0.7303 0.7328 0.6651 0.51228 0.6201 0.7734 0.7908 0.7088
2787.373 0.7311 0.685 0.7086 0.7379 0.6585 0.6952 0.7745 0.7838 0.7128 0.7191
2806.663 0.7854 0.6681 0.58484 0.7647 0.8288 0.6408 0.6583 0.7169 0.6727 0.7161
2825.953 0.8217 0.8751 0.64 0.57454 0.7226 0.7403 0.56715 0.4801 0.58408 0.7182
2845.242 0.8364 0.8429 0.8319 0.8113 0.9103 0.8321 0.7235 0.8054 0.7303 0.6629
2864.532 0.8536 0.9365 0.8652 0.7761 0.7 0.7569 0.8894 0.8804 0.8198 0.8056
2883.822 0.8264 1.0172 1.0402 0.8868 0.8601 0.8798 0.8209 0.6794 0.7237 0.7435
2903.112 0.8175 1.0183 0.9425 0.7918 0.722 0.8947 0.818 0.781 0.993 0.8833
2922.401 0.8831 0.9634 1.0314 0.8736 0.7579 0.9581 1.0611 0.9988 0.8303 0.8906
2941.691 0.9398 0.919 0.9797 1.0138 1.029 0.9364 0.9321 0.8422 0.7433 1.0029
2960.981 1.1413 1.0139 0.8763 0.8065 0.892 0.8765 0.8861 0.7627 0.7389 0.9941
2980.271 1.0137 0.9212 1.1197 1.2296 1.0483 1.0858 1.119 1.1481 1.2544 1.2818
2999.561 1.3985 1.55 1.58 1.62 1.7 1.77 1.85 2.05 2.08 2.17
3018.850 2.47 2.64 2.79 2.89 2.96 3.22 3.43 3.33 3.41 3.67
3038.140 3.85 4 4.02 4.29 4.6 4.74 5.23 5.75 5.92 6.17
3057.430 6.54 6.97 7.34 7.74 8.1 8.28 8.55 8.64 8.5 8.2
3076.720 7.66 7.25 7 6.81 6.59 6.37 6.23 6.07 5.73 5.34
3096.009 4.91 4.53 4.05 3.55 3.13 2.56 2.18 1.97 1.82 1.77
3115.299 1.72 1.4941 1.2598 1.2849 1.2575 1.1745 1.1463 1.2472 1.2057 0.8921
3134.589 0.6559 0.58069 0.8172 1.0336 0.9007 0.8545 0.9813 0.9326 0.8878 0.7617
3153.879 0.7598 0.9945 1.0042 0.9599 0.9444 0.7046 0.56347 0.7233 0.8508 0.7035
3173.169 0.58577 0.6304 0.7 0.7949 1.0443 1.1347 1.0846 1.1367 1.0677 0.9662
3192.458 0.7795 0.7198 0.822 0.7667 0.8232 1.0396 0.9597 0.7415 0.7404 0.6877
3211.748 0.6543 0.8749 0.7827 0.6871 0.7705 0.7577 0.681 0.61168 0.5326 0.6316
3231.038 0.8859 0.9025 0.8061 0.8508 0.8573 0.8446 0.9191 0.8695 0.7609 0.6976
3250.328 0.6656 0.723 0.8081 0.7508 0.6857 0.7872 0.7007 0.6658 0.8615 0.7491
3269.617 0.56873 0.57318 0.7339 0.9114 0.8554 0.6578 0.54006 0.7065 0.8264 0.7125
3288.907 0.6465 0.60398 0.61807 0.56031 0.4418 0.55455 0.66 0.6219 0.6438 0.6439
3308.197 0.6628 0.7978 0.7846 0.53567 0.389 0.402 0.56543 0.56513 0.4359 0.51705
3327.487 0.58958 0.6722 0.59284 0.59867 0.8249 0.8622 0.7767 0.7342 0.641 0.527456
3346.777 0.56522 0.6694 0.5777 0.414 0.4868 0.6358 0.711 0.6424 0.7568 0.741
3366.066 0.55582 0.60979 0.58271 0.4904 0.5864 0.768 0.6675 0.557 0.6959 0.8204
3385.356 0.8718 0.9069 1.0429 1.2464 1.1417 1.199 1.53 1.61 1.58 1.7
3404.646 1.95 2.06 1.94 1.58 1.2436 1.0213 0.909 1.0062 0.8725 0.59677
3423.936 0.5061 0.522129 0.507 0.4583 0.6566 0.6973 0.4601 0.4345 0.55397 0.7078
3443.225 0.7484 0.53754 0.492 0.6263 0.699 0.8034 0.7803 0.7336 0.6939 0.6337
3462.515 0.7308 0.8298 1.0057 1.122 0.9523 0.8336 0.9043 1.1068 1.3923 1.6
3481.805 1.77 1.82 1.81 1.79 1.59 1.4271 1.3962 1.2145 0.9952 0.9998
3501.095 0.9362 0.8707 1.0038 0.9296 0.7262 0.7071 0.7894 0.908 0.9716 0.9694
3520.385 0.9157 0.6981 0.6536 0.7399 0.6582 0.6764 0.57892 0.4902 0.4876 0.6368
3539.674 0.7052 0.6216 0.526142 0.357 0.4677 0.467 0.182 0.134 0.4361 0.678
3558.964 0.6757 0.61505 0.54067 0.57027 0.6129 0.61178 0.778 0.57807 0.4488 0.59585
3578.254 0.57935 0.628 0.53933 0.377 0.53458 0.6224 0.4874 0.313 0.266 0.4876
3597.544 0.4827 0.297 0.386 0.5016 0.493 0.6673 0.7913 0.6944 0.58267 0.39
3616.833 0.345 0.6376 0.5879 0.314 0.309 0.628 0.6377 0.4624 0.57379 0.522136
3636.123 0.6639 0.7015 0.60418 0.6235 0.57894 0.56728 0.4743 0.385 0.233 0.242
3655.413 0.4285 0.4972 0.7456 0.6819 0.4289 0.468 0.4224 0.4747 0.55347 0.4406
3674.703 0.53455 0.4 0.368 0.7636 0.9368 0.7506 0.396 0.354 0.60039 0.8377
3693.993 0.7717 0.57084 0.51754 0.4909 0.4702 0.59408 0.8204 0.7092 0.6995 0.8246
3713.282 0.685 0.54758 0.4935 0.4373 0.57806 0.5447 0.382 0.6223 0.6793 0.61938
3732.572 0.55505 0.6219 0.597 0.4797 0.5831 0.4792 0.57656 0.58546 0.416 0.520836
3751.862 0.56918 0.53953 0.54653 0.6599 0.6488 0.8102 0.9021 0.8407 0.782 0.6438
3771.152 0.657 0.4522 0.247 0.4529 0.61986 0.59235 0.4698 0.4346 0.6938 0.6886
3790.441 0.4396 0.31 0.384 0.51345 0.272 0.214 0.336 0.4214 0.6747 0.58256
3809.731 0.59172 0.6818 0.55521 0.6517 0.6274 0.4423 0.382 0.53436 0.6696 0.6766
3829.021 0.7066 0.7863 0.7034 0.56014 0.57869 0.56926 0.528439 0.6509 0.7249 0.56739
3848.311 0.4891 0.54805 0.58625 0.5385 0.4951 0.408 0.525393 0.7615 0.7351 0.7934
3867.601 0.8146 0.7741 0.7227 0.6317 0.5096 0.48 0.60193 0.4813 0.403 0.4945
3886.890 0.60329 0.5592 0.6206 0.6841 0.58765 0.61388 0.304 0.282 0.6913 0.7543
3906.180 0.56337 0.6804 0.8031 0.60883 0.53356 0.6914 0.7254 0.51289 0.5076 0.57737
3925.470 0.51575 0.59787 0.59838 0.6903 0.8868 0.7678 0.7808 0.8069 0.8767 0.9289
3944.760 0.51281 0.386 0.59448 0.5913 0.7093 0.5009 0.295 0.4695 0.7601 0.7203
3964.049 0.298 0.213 0.522875 0.7323 0.6802 0.56759 0.343 0.329 0.60609 0.8035
3983.339 0.831 0.5724 0.4496 0.58552 0.6971 0.59091 0.41 0.378 0.271 0.4732
##END=
