##TITLE=o,p'-DDT
##JCAMP-DX=4.24
##DATA TYPE=INFRARED SPECTRUM
##ORIGIN=NIST Mass Spectrometry Data Center
##OWNER=NIST Standard Reference Data Program
Collection (C) 2018 copyright by the U.S. Secretary of Commerce
on behalf of the United States of America. All rights reserved.
##CAS REGISTRY NO=789-02-6
##MOLFORM=C 14 H 9 Cl 5
##$NIST SOURCE=MSDC-IR
##SPECTROMETER/DATA SYSTEM=HP-GC/MS/IRD
##STATE=gas
##XUNITS=1/CM
##YUNITS=ABSORBANCE
##XFACTOR=1.0
##YFACTOR=0.000002900
##DELTAX=4.0
##FIRSTX=550.0
##LASTX=3846.0
##FIRSTY=0.000571
##MAXX=3846
##MINX=550
##MAXY=0.029
##MINY=0
##NPOINTS=825
##XYDATA=(X++(Y..Y))
550.0 197 101 139 168 172 171 186 214 247 245
590.0 273 409 658 1268 2205 2644 2053 1345 1244 1264
630.0 1025 723 584 621 787 1068 1376 1425 1206 1001
670.0 963 1071 1222 1309 1308 1208 1065 1015 1062 1208
710.0 1408 1460 1314 1149 1179 1435 1732 2095 3272 5113
750.0 5417 3773 2454 2467 3539 5771 8601 10000 8876 6389
790.0 4077 2571 1785 1423 1334 1424 1571 1727 1812 1781
830.0 1816 2078 2439 2558 2295 1890 1521 1217 990 828
870.0 726 686 667 688 777 954 1049 919 707 572
910.0 505 459 430 428 432 433 451 497 540 535
950.0 481 439 440 446 460 486 489 501 548 596
990.0 630 695 800 966 1259 2003 3032 3101 2078 1341
1030.0 1391 1808 2209 2362 2261 2032 1696 1298 966 753
1070.0 679 695 817 1116 1770 2776 3563 3438 2594 1859
1110.0 1478 1227 1033 896 825 768 651 511 375 265
1150.0 210 204 220 219 186 128 94 117 148 160
1190.0 139 93 57 28 4 0 14 36 60 73
1230.0 70 67 65 66 58 53 66 82 90 110
1270.0 131 146 174 190 165 141 146 147 138 141
1310.0 156 163 172 190 199 208 205 193 189 193
1350.0 194 193 186 181 198 208 218 232 257 275
1390.0 297 331 408 531 680 784 759 656 611 677
1430.0 846 1072 1293 1419 1347 1115 929 943 1165 1534
1470.0 1910 2150 2213 2412 3268 4768 5382 4015 2105 1102
1510.0 732 582 499 439 407 386 361 337 320 323
1550.0 335 340 355 400 463 527 555 555 612 777
1590.0 956 1000 853 652 506 414 356 315 284 278
1630.0 287 281 265 246 215 191 171 156 147 146
1670.0 152 142 138 132 143 164 155 129 117 124
1710.0 126 122 121 124 126 112 103 111 114 116
1750.0 124 140 154 168 192 206 198 174 146 140
1790.0 140 148 171 175 160 140 117 96 101 115
1830.0 130 139 128 116 106 95 83 74 75 83
1870.0 95 113 132 164 206 242 256 234 199 165
1910.0 165 191 201 180 142 115 102 113 132 143
1950.0 149 139 113 84 63 57 60 55 48 49
1990.0 42 38 50 50 49 50 51 52 49 46
2030.0 42 36 35 33 26 33 36 32 30 35
2070.0 39 35 34 35 30 23 19 18 16 8
2110.0 9 11 13 17 17 16 14 7 6 12
2150.0 15 15 8 12 19 19 18 13 7 4
2190.0 8 13 9 1 5 10 10 13 19 23
2230.0 17 19 24 26 32 27 24 30 30 29
2270.0 28 29 32 33 40 37 32 36 35 38
2310.0 43 33 37 51 52 46 47 50 46 42
2350.0 38 39 37 35 26 17 24 31 27 26
2390.0 36 43 36 28 35 29 28 35 41 45
2430.0 46 49 52 43 39 40 32 24 31 47
2470.0 46 45 45 36 44 51 54 54 58 62
2510.0 62 73 74 63 64 65 59 54 66 70
2550.0 70 75 61 57 63 70 70 72 70 80
2590.0 89 82 84 79 77 80 82 85 82 77
2630.0 79 83 82 83 83 72 68 81 96 96
2670.0 84 79 74 76 83 86 89 82 83 87
2710.0 80 77 83 87 93 95 85 86 85 78
2750.0 84 92 94 87 83 98 107 101 98 101
2790.0 109 99 88 101 110 111 114 111 104 106
2830.0 118 121 112 110 107 94 94 109 119 110
2870.0 95 109 120 94 76 85 94 90 93 102
2910.0 98 101 109 122 124 135 161 171 211 275
2950.0 311 320 282 216 203 217 216 198 168 159
2990.0 166 166 156 154 170 174 183 201 219 249
3030.0 281 316 341 328 297 311 350 431 594 833
3070.0 1036 1085 1011 851 670 553 484 433 377 322
3110.0 271 223 180 148 150 159 173 184 183 170
3150.0 146 120 98 99 101 105 99 87 74 77
3190.0 85 78 64 57 69 73 76 88 96 91
3230.0 84 80 72 72 76 71 59 48 56 73
3270.0 81 83 84 76 61 54 57 54 65 82
3310.0 76 63 64 60 54 57 69 79 56 51
3350.0 49 62 73 59 54 60 66 76 76 52
3390.0 32 26 24 39 47 46 40 33 53 50
3430.0 28 37 58 51 39 35 32 43 37 38
3470.0 41 10 4 35 49 42 16 13 44 46
3510.0 18 8 7 13 12 5 14 22 28 15
3550.0 0 9 20 19 21 41 46 24 20 33
3590.0 36 32 38 41 42 55 46 32 47 60
3630.0 67 54 33 22 31 45 47 46 26 21
3670.0 43 61 60 62 64 51 60 88 84 56
3710.0 67 73 84 70 54 96 95 54 42 68
3750.0 80 74 78 76 76 70 86 94 97 100
3790.0 88 68 64 58 58 69 67 99 118 76
3830.0 44 54 73 84 96
##END=
