##TITLE=Isobutryl chloride
##JCAMP-DX=4.24
##DATA TYPE=INFRARED SPECTRUM
##ORIGIN=EPA-IR VAPOR PHASE LIBRARY
##OWNER=SRD/NIST
Collection (C) 2018 copyright by the U.S. Secretary of Commerce
on behalf of the United States of America. All rights reserved.
##CAS REGISTRY NO=79-30-1
##MOLFORM=C 4 H 7 Cl O
##$NIST SOURCE=MSDC-IR
##STATE=gas
##XUNITS=1/CM
##YUNITS=ABSORBANCE
##XFACTOR=1.
##YFACTOR=0.001
##DELTAX=3.85796
##FIRSTX=501.5
##LASTX=4000.7
##FIRSTY=8.931
##MAXX=4000.7
##MINX=501.534
##MAXY=0.303851
##MINY=0
##NPOINTS=908
##XYDATA=(X++(Y..Y))
501.534 8.931 9.591 9.831 9.321 8.481 7.761 6.841 6.091 6.181 7.581
540.114 10.601 15.411 21.161 26.351 30.451 35.201 37.211 34.321 32.381 29.201
578.693 22.301 15.751 11.841 9.901 8.901 8.401 8.101 7.951 7.921 8.131
617.273 8.771 10.011 12.051 15.021 18.371 21.121 23.101 24.811 25.681 25.911
655.852 25.321 23.921 24.651 30.171 40.891 55.521 68.371 74.391 79.361 78.911
694.432 74.161 67.591 51.711 34.041 21.991 15.321 11.611 9.281 7.801 6.871
733.011 6.111 5.481 4.981 4.531 4.121 3.811 3.561 3.391 3.341 3.371
771.591 3.461 3.631 3.911 4.331 4.881 5.641 6.651 8.151 10.391 13.811
810.170 18.991 26.721 38.111 53.841 73.651 95.701 116.561 132.851 142.811 146.241
848.750 142.171 130.111 112.101 90.511 69.061 51.701 39.581 32.091 27.871 25.681
887.330 24.731 24.791 25.771 27.841 31.391 37.091 46.261 60.551 81.281 108.541
925.909 140.811 176.471 212.141 240.601 257.061 262.481 253.771 233.061 205.201 165.521
964.489 122.231 87.431 63.691 48.011 36.511 28.201 22.481 18.551 15.781 13.861
1003.068 12.401 11.141 10.131 9.211 8.251 7.481 6.911 6.371 5.921 5.631
1041.648 5.491 5.451 5.401 5.461 5.631 5.821 6.161 6.671 7.311 8.121
1080.227 9.211 10.571 11.931 13.361 14.801 15.911 16.601 17.001 17.621 18.481
1118.807 19.341 20.081 20.561 20.751 20.671 20.111 19.031 17.551 15.921 14.491
1157.387 13.461 12.981 12.881 12.841 12.711 12.391 11.671 10.491 9.061 7.561
1195.966 6.031 4.611 3.491 2.781 2.361 2.111 2.081 2.121 2.081 2.051
1234.546 2.071 2.091 2.161 2.281 2.381 2.421 2.431 2.421 2.461 2.631
1273.125 2.881 3.201 3.541 3.891 4.331 4.861 5.481 6.271 7.151 7.931
1311.705 8.681 9.291 9.381 9.141 8.871 8.531 8.241 7.961 7.711 7.761
1350.284 8.291 9.261 10.561 12.001 13.551 15.511 17.931 19.791 21.261 22.341
1388.864 22.961 22.751 20.261 17.941 15.971 12.931 10.291 8.861 8.511 8.851
1427.443 9.801 11.231 13.181 15.701 18.721 22.331 26.171 29.631 32.731 35.541
1466.023 36.771 35.561 33.411 30.571 26.961 22.911 18.531 14.431 11.061 8.531
1504.603 6.881 5.691 4.871 4.311 3.901 3.551 3.261 3.021 2.801 2.601
1543.182 2.411 2.231 2.071 1.971 1.921 1.871 1.861 1.871 1.901 1.961
1581.762 1.991 2.021 2.051 2.101 2.141 2.181 2.201 2.241 2.291 2.361
1620.341 2.421 2.501 2.591 2.681 2.781 2.861 2.931 3.021 3.141 3.261
1658.921 3.371 3.531 3.761 4.001 4.211 4.441 4.671 4.861 4.951 5.071
1697.500 5.201 5.261 5.371 5.611 6.041 6.771 7.851 9.391 11.531 14.451
1736.080 18.321 23.181 29.501 37.391 47.271 58.881 72.131 86.721 101.751 116.941
1774.659 132.041 146.931 162.661 180.031 199.611 222.301 246.521 270.461 290.831 303.121
1813.239 303.851 293.181 274.181 245.881 206.281 161.411 119.761 86.871 63.721 48.821
1851.819 39.881 34.501 31.321 29.421 28.311 27.571 26.871 26.051 24.951 23.571
1890.398 21.901 19.931 17.771 15.521 13.281 11.121 9.151 7.431 6.001 4.881
1928.978 3.981 3.281 2.751 2.381 2.071 1.841 1.651 1.521 1.451 1.381
1967.557 1.321 1.2902 1.2664 1.2581 1.249 1.2242 1.2038 1.1828 1.1895 1.2118
2006.137 1.2459 1.2962 1.341 1.391 1.431 1.471 1.501 1.511 1.501 1.471
2044.716 1.411 1.361 1.351 1.321 1.331 1.381 1.441 1.561 1.731 1.951
2083.296 2.231 2.531 2.861 3.231 3.641 4.071 4.491 4.941 5.391 5.671
2121.875 5.701 5.501 5.301 4.991 4.371 3.961 3.631 2.901 1.971 1.2424
2160.455 0.8537 0.6722 0.568 0.5164 0.5175 0.5241 0.5561 0.6226 0.6946 0.7876
2199.035 0.8858 0.996 1.1181 1.2194 1.321 1.441 1.551 1.661 1.741 1.801
2237.614 1.831 1.831 1.781 1.711 1.631 1.481 1.341 1.2138 1.0543 0.9192
2276.194 0.8099 0.7218 0.6677 0.6295 0.6031 0.6191 0.66 0.6958 0.7185 0.7103
2314.773 0.6727 0.6463 0.6468 0.619 0.5709 0.5434 0.5003 0.4637 0.4193 0.36213
2353.353 0.3649 0.39374 0.42 0.4483 0.4535 0.4592 0.4789 0.4685 0.4669 0.5104
2391.932 0.5429 0.5567 0.5829 0.6115 0.6125 0.5953 0.591 0.586 0.5564 0.5301
2430.512 0.5403 0.5058 0.4432 0.4441 0.4561 0.448 0.4234 0.4306 0.4736 0.4842
2469.092 0.5037 0.5353 0.5442 0.5713 0.6043 0.6142 0.634 0.6395 0.5721 0.5044
2507.671 0.4745 0.4301 0.36328 0.32611 0.3211 0.309406 0.33087 0.37122 0.4089 0.4668
2546.251 0.531 0.5804 0.6517 0.6682 0.6351 0.6327 0.6239 0.608 0.6009 0.569
2584.830 0.5655 0.5847 0.5766 0.5852 0.5872 0.5755 0.5975 0.6447 0.6455 0.6544
2623.410 0.6839 0.6763 0.6758 0.6954 0.6928 0.6812 0.7117 0.7606 0.765 0.7602
2661.989 0.7507 0.7408 0.7055 0.7052 0.6734 0.5953 0.5528 0.513 0.5199 0.5162
2700.569 0.548 0.6033 0.6423 0.6736 0.7211 0.8126 0.9547 1.1332 1.2734 1.441
2739.148 1.601 1.731 1.861 2.011 2.041 2.031 2.071 2.101 2.131 2.201
2777.728 2.181 2.051 1.981 1.991 1.981 1.991 2.041 2.121 2.291 2.491
2816.308 2.691 2.931 3.111 3.271 3.451 3.621 3.851 4.171 4.531 4.991
2854.887 5.681 6.561 7.911 9.921 12.671 16.091 19.541 22.341 24.631 26.271
2893.467 26.711 26.481 25.941 25.241 24.801 24.881 25.691 27.541 30.491 34.311
2932.046 38.851 43.801 48.321 51.721 53.301 52.761 51.421 50.711 51.411 54.431
2970.626 60.921 70.481 81.541 92.891 99.911 102.151 98.991 87.561 72.221 57.321
3009.205 43.481 31.051 21.491 15.071 11.061 8.571 6.861 5.561 4.631 3.961
3047.785 3.441 3.041 2.751 2.531 2.351 2.211 2.121 2.031 1.971 1.981
3086.364 2.031 2.031 2.051 2.091 2.091 2.101 2.101 2.091 2.091 2.071
3124.944 2.001 1.991 1.981 1.881 1.831 1.891 1.911 1.891 1.941 1.931
3163.524 1.911 1.941 1.991 2.011 2.031 2.091 2.091 2.061 2.081 2.071
3202.103 2.001 1.911 1.811 1.631 1.391 1.1821 0.9494 0.792 0.6896 0.5658
3240.683 0.4429 0.33682 0.2927 0.2702 0.2623 0.2599 0.2779 0.2796 0.2159 0.2073
3279.262 0.2383 0.198 0.2026 0.2456 0.2466 0.2309 0.2149 0.215 0.2055 0.199
3317.842 0.194 0.145 0.137 0.185 0.151 0.078 0.097 0.115 0.067 0.025
3356.421 0 0.024 0.028 0.044 0.082 0.119 0.111 0.059 0.091 0.156
3395.001 0.177 0.188 0.2258 0.2343 0.2151 0.2208 0.2162 0.2416 0.2636 0.2308
3433.580 0.184 0.175 0.17 0.103 0.119 0.17 0.163 0.174 0.197 0.199
3472.160 0.2174 0.2813 0.34252 0.39729 0.4582 0.5102 0.5291 0.5854 0.6265 0.6388
3510.740 0.7293 0.819 0.8998 0.9886 1.1057 1.2748 1.471 1.661 1.821 2.081
3549.319 2.451 2.811 3.181 3.641 4.111 4.501 4.861 5.161 5.351 5.431
3587.899 5.381 5.251 4.981 4.641 4.351 4.071 3.831 3.601 3.331 3.041
3626.478 2.781 2.511 2.181 1.911 1.691 1.481 1.371 1.2275 1.0957 1.0238
3665.058 0.9399 0.9178 0.8966 0.8142 0.7237 0.643 0.6035 0.5412 0.4601 0.4144
3703.637 0.39905 0.4063 0.39707 0.33791 0.2768 0.266 0.31204 0.31279 0.2394 0.2303
3742.217 0.2014 0.191 0.2292 0.2136 0.2572 0.29421 0.2703 0.233 0.2337 0.32553
3780.797 0.33656 0.2785 0.2635 0.268 0.29791 0.303096 0.35358 0.37571 0.35458 0.37021
3819.376 0.4253 0.4393 0.37499 0.38373 0.4651 0.4748 0.5002 0.5823 0.6311 0.6439
3857.956 0.5942 0.515 0.5061 0.5154 0.4786 0.5197 0.5427 0.5296 0.5112 0.5311
3896.535 0.5662 0.5767 0.5366 0.4959 0.5083 0.4811 0.44 0.482 0.4596 0.36427
3935.115 0.4197 0.4176 0.3718 0.4472 0.4356 0.38449 0.37225 0.3583 0.36542 0.34682
3973.694 0.34695 0.35082 0.34783 0.34831 0.33001 0.3517 0.34135 0.38082
##END=
