##TITLE=DL-Pentoyllactone
##JCAMP-DX=4.24
##DATA TYPE=INFRARED SPECTRUM
##ORIGIN=EPA-IR VAPOR PHASE LIBRARY
##OWNER=SRD/NIST
Collection (C) 2018 copyright by the U.S. Secretary of Commerce
on behalf of the United States of America. All rights reserved.
##CAS REGISTRY NO=79-50-5
##MOLFORM=C 6 H 10 O 3
##$NIST SOURCE=MSDC-IR
##STATE=gas
##XUNITS=1/CM
##YUNITS=ABSORBANCE
##XFACTOR=1.
##YFACTOR=0.001
##DELTAX=1.92898
##FIRSTX=549.8
##LASTX=4000.7
##FIRSTY=3.66
##MAXX=4000.7
##MINX=549.759
##MAXY=0.13144
##MINY=0.0002113
##NPOINTS=1790
##XYDATA=(X++(Y..Y))
549.759 3.66 3.68 3.67 3.8 3.83 3.52 3.13 2.84 2.64 2.61
569.049 2.47 2.28 1.98 1.69 1.67 1.57 1.27 1.2 1.21 0.9807
588.339 0.847 0.9014 0.964 0.8327 0.7894 0.8291 0.7317 0.6625 0.6655 0.6805
607.628 0.6216 0.6389 0.677 0.6852 0.6629 0.6495 0.6618 0.7312 0.8542 0.8373
626.918 0.8056 0.7868 0.7932 0.9591 1.09 1.04 1.12 1.17 1.05 1.02
646.208 1.02 1.03 0.998 0.8835 0.8443 0.8267 0.811 0.7464 0.6577 0.6342
665.498 0.6716 0.7226 0.7091 0.6943 0.7018 0.7596 0.7771 0.7911 0.8061 0.7607
684.787 0.7383 0.769 0.8771 0.9567 1.01 1.09 1.13 1.25 1.39 1.48
704.077 1.59 1.75 1.91 2.02 2.11 2.04 1.95 1.9 1.86 1.86
723.367 1.78 1.65 1.61 1.56 1.43 1.28 1.23 1.16 1.12 1.13
742.657 1.05 0.9088 0.7932 0.7401 0.7107 0.6748 0.6224 0.6054 0.5782 0.5577
761.947 0.5907 0.5669 0.4987 0.5255 0.5085 0.522 0.5979 0.6178 0.6301 0.6336
781.236 0.5994 0.7233 0.7987 0.7699 0.8122 0.8191 0.8646 0.9249 0.935 0.9303
800.526 0.9184 0.8896 0.897 0.9246 0.9121 0.919 0.9039 0.8154 0.7615 0.7805
819.816 0.8169 0.8246 0.7676 0.6338 0.5584 0.453 0.4647 0.5581 0.5378 0.5422
839.106 0.5663 0.601 0.586 0.5927 0.6265 0.6651 0.771 0.8189 0.8398 0.8894
858.395 0.9744 1.05 1.13 1.25 1.31 1.4 1.5 1.59 1.69 1.88
877.685 1.97 1.97 2.02 2.13 2.18 2.18 2.26 2.34 2.47 2.55
896.975 2.57 2.7 2.79 2.73 2.69 2.74 2.74 2.71 2.75 2.68
916.265 2.62 2.54 2.37 2.19 2.02 1.96 1.93 1.96 2.01 2
935.555 2.02 2.09 2.16 2.19 2.23 2.24 2.24 2.27 2.31 2.39
954.844 2.48 2.52 2.6 2.75 2.87 3 3.25 3.6 3.99 4.46
974.134 4.98 5.54 6.15 6.84 7.48 8.17 9.03 9.96 11.13 12.52
993.424 14.14 16.14 18.66 21.71 25.01 28.27 31.24 33.84 36.43 39.26
1012.714 42.11 44.04 43.89 42.83 42.1 41.04 39.1 36.01 31.86 27.5
1032.003 23.97 21.07 18.56 16.32 14.12 12.25 10.77 9.89 9.55 9.35
1051.293 9.35 9.64 10.1 10.56 10.98 11.45 12.1 12.6 13.17 13.99
1070.583 14.63 15.41 16.4 17.59 19.23 21.2 23.3 25.94 29.13 32.85
1089.873 37.17 41.75 46.47 51.31 56.09 60.56 64.44 67.67 70.05 71.22
1109.163 71.35 70.38 68.38 65.42 61.37 56.61 51.26 45.72 40.46 35.41
1128.452 30.68 26.68 23.67 21.24 19.3 17.97 17.1 16.58 16.23 15.87
1147.742 15.59 15.42 15.36 15.28 15.13 14.94 14.62 14.21 13.89 13.7
1167.032 13.5 13.09 12.55 12.05 11.68 11.55 11.37 11.22 11.32 11.43
1186.322 11.59 11.87 12.27 12.72 12.91 13.21 13.6 13.95 14.23 14.31
1205.611 14.37 14.3 13.93 13.65 13.41 13.21 13.21 13.09 13.26 13.59
1224.901 13.93 14.54 15.07 15.56 15.9 15.95 15.86 15.66 15.37 14.98
1244.191 14.41 13.64 12.82 11.93 10.97 10.04 9.13 8.27 7.51 6.81
1263.481 6.29 5.88 5.53 5.3 5.13 5.08 5.17 5.26 5.39 5.46
1282.771 5.53 5.57 5.58 5.65 5.67 5.62 5.45 5.3 5.16 4.93
1302.060 4.7 4.46 4.22 4.04 3.85 3.63 3.45 3.28 3.14 3.08
1321.350 3.06 3.04 3.08 3.16 3.28 3.43 3.59 3.79 4.02 4.28
1340.640 4.54 4.83 5.17 5.54 5.89 6.25 6.64 7.06 7.49 7.94
1359.930 8.4 8.88 9.38 9.78 10.04 10.13 10.11 10.13 10.29 10.64
1379.219 10.75 10.03 8.99 8.38 8.09 7.86 7.59 7.29 6.98 6.71
1398.509 6.49 6.28 5.98 5.53 5.1 4.74 4.42 4.06 3.67 3.24
1417.799 2.81 2.48 2.24 2.13 2.05 2 2.02 2.08 2.2 2.36
1437.089 2.53 2.69 2.92 3.2 3.5 3.8 4.12 4.5 4.97 5.45
1456.378 5.99 6.49 6.87 7.22 7.55 7.85 8.06 8.22 8.35 8.31
1475.668 8.08 7.76 7.43 7.04 6.6 6.11 5.49 4.86 4.28 3.78
1494.958 3.3 2.83 2.39 2.02 1.73 1.52 1.34 1.17 1.05 0.9743
1514.248 0.902 0.8473 0.8127 0.7947 0.7693 0.7397 0.7216 0.6835 0.6323 0.6232
1533.538 0.6184 0.5872 0.5933 0.6048 0.6161 0.5957 0.558 0.5455 0.542 0.5347
1552.827 0.5218 0.5464 0.5646 0.5584 0.564 0.5675 0.5526 0.5589 0.6115 0.5947
1572.117 0.5575 0.5898 0.6442 0.6275 0.5662 0.5832 0.5823 0.5451 0.5145 0.5212
1591.407 0.5464 0.5616 0.5934 0.5829 0.5484 0.5113 0.4986 0.5034 0.481 0.4778
1610.697 0.517 0.5634 0.5848 0.5719 0.5629 0.5773 0.5665 0.5347 0.5374 0.579
1629.986 0.6123 0.6183 0.6373 0.6701 0.6789 0.6892 0.6686 0.6708 0.7174 0.7495
1649.276 0.7651 0.7941 0.8316 0.8082 0.7997 0.8213 0.8586 0.8565 0.8605 0.8683
1668.566 0.8448 0.8332 0.8073 0.7904 0.758 0.756 0.791 0.8154 0.8383 0.8519
1687.856 0.8745 0.9129 0.9492 1.02 1.11 1.15 1.25 1.34 1.4 1.52
1707.146 1.63 1.73 1.87 2.01 2.14 2.25 2.36 2.48 2.6 2.73
1726.435 2.9 3.08 3.24 3.42 3.65 3.9 4.17 4.46 4.74 5.05
1745.725 5.4 5.8 6.26 6.7 7.15 7.62 8.12 8.58 9.05 9.54
1765.015 10.03 10.6 11.23 11.91 12.75 13.74 14.97 16.52 18.46 20.94
1784.305 24.16 28.29 33.41 39.68 47.22 55.87 65.14 74.91 84.77 94.59
1803.594 104.24 113.5 121.56 127.21 130.15 131.44 131.24 128.48 122.53 113.63
1822.884 102.81 91.36 80.02 68.94 57.8 47.16 37.44 29.12 22.42 17.3
1842.174 13.56 10.85 8.85 7.41 6.33 5.56 4.96 4.46 4.1 3.81
1861.464 3.57 3.38 3.22 3.06 2.91 2.79 2.68 2.55 2.47 2.37
1880.754 2.26 2.2 2.14 2.06 2.02 2.01 1.99 1.97 1.96 1.91
1900.043 1.88 1.85 1.82 1.82 1.78 1.72 1.63 1.54 1.51 1.46
1919.333 1.37 1.27 1.2 1.11 1.05 1 0.9416 0.9216 0.8768 0.8136
1938.623 0.7749 0.7363 0.694 0.6808 0.6536 0.6163 0.6195 0.6061 0.5875 0.5693
1957.913 0.5633 0.5712 0.5359 0.5274 0.5457 0.5402 0.5473 0.5484 0.5614 0.5633
1977.202 0.545 0.5457 0.5744 0.5727 0.5588 0.585 0.6008 0.6023 0.6002 0.5814
1996.492 0.5689 0.5961 0.6178 0.6052 0.5962 0.5645 0.5596 0.5668 0.5383 0.5225
2015.782 0.5057 0.4988 0.4941 0.4975 0.5301 0.5375 0.5026 0.4984 0.5078 0.502
2035.072 0.4986 0.4923 0.4629 0.4276 0.4247 0.427 0.3981 0.3757 0.3778 0.3734
2054.362 0.3816 0.3673 0.3372 0.3367 0.3526 0.3572 0.3541 0.3615 0.3625 0.363
2073.651 0.3815 0.3909 0.3722 0.3493 0.3571 0.3664 0.3787 0.3988 0.4004 0.4207
2092.941 0.4212 0.393 0.3902 0.4063 0.4199 0.3908 0.3934 0.4014 0.3772 0.3878
2112.231 0.3877 0.3885 0.3901 0.3936 0.374 0.3602 0.3426 0.3003 0.3142 0.3607
2131.521 0.3808 0.369 0.3701 0.3709 0.3472 0.3617 0.3747 0.3666 0.3676 0.3419
2150.810 0.3507 0.3665 0.3408 0.3303 0.3613 0.4019 0.4318 0.4235 0.369 0.3653
2170.100 0.3723 0.3652 0.3515 0.3562 0.3917 0.403 0.3959 0.3914 0.3958 0.3932
2189.390 0.4032 0.405 0.4154 0.4189 0.405 0.3965 0.4184 0.4359 0.4406 0.4666
2208.680 0.4689 0.424 0.4177 0.4528 0.4551 0.4585 0.4682 0.4449 0.4213 0.4309
2227.970 0.4489 0.4712 0.4853 0.5032 0.5212 0.5334 0.5355 0.5328 0.5666 0.621
2247.259 0.6394 0.648 0.6423 0.6896 0.7128 0.7034 0.7327 0.7312 0.7388 0.7281
2266.549 0.7094 0.737 0.76 0.7299 0.6866 0.6804 0.7116 0.6885 0.6533 0.6595
2285.839 0.6358 0.6 0.576 0.5723 0.5596 0.5422 0.5286 0.5116 0.5077 0.5067
2305.129 0.5222 0.5468 0.5343 0.5135 0.5239 0.5244 0.5052 0.4995 0.5083 0.5027
2324.418 0.4953 0.4963 0.5198 0.5372 0.5228 0.5322 0.5554 0.5652 0.5553 0.5726
2343.708 0.6117 0.6062 0.5573 0.5571 0.5945 0.5797 0.5422 0.5121 0.4986 0.5187
2362.998 0.5211 0.5125 0.5434 0.4967 0.4647 0.4672 0.4767 0.4618 0.4231 0.4467
2382.288 0.4426 0.417 0.3869 0.3876 0.408 0.4097 0.4141 0.4187 0.387 0.3545
2401.578 0.3697 0.3934 0.3671 0.3396 0.3546 0.3741 0.3997 0.4005 0.3652 0.3111
2420.867 0.2992 0.3418 0.3323 0.2972 0.3136 0.3061 0.2942 0.3245 0.3361 0.316
2440.157 0.3087 0.3085 0.3138 0.3298 0.3578 0.3943 0.3755 0.3456 0.3845 0.4491
2459.447 0.4567 0.4352 0.4497 0.4219 0.3997 0.439 0.4614 0.4738 0.4855 0.4658
2478.737 0.431 0.4394 0.4543 0.4357 0.4434 0.4535 0.4421 0.4493 0.4311 0.4364
2498.026 0.448 0.4238 0.4439 0.476 0.5009 0.5158 0.5089 0.4986 0.4488 0.453
2517.316 0.5102 0.5235 0.5301 0.4847 0.4577 0.4602 0.4505 0.4334 0.3884 0.3994
2536.606 0.3998 0.3819 0.3617 0.3339 0.3506 0.3877 0.3895 0.3569 0.3504 0.344
2555.896 0.3361 0.3401 0.3026 0.2708 0.2845 0.3132 0.3224 0.3168 0.3199 0.3416
2575.186 0.35 0.3564 0.3651 0.3392 0.3787 0.4103 0.3706 0.3616 0.3834 0.4035
2594.475 0.3881 0.346 0.3548 0.3373 0.3062 0.3428 0.3414 0.3433 0.3713 0.3813
2613.765 0.3683 0.3793 0.4207 0.3715 0.314 0.3414 0.3492 0.3805 0.4037 0.3812
2633.055 0.4141 0.4223 0.4382 0.4831 0.4753 0.472 0.4898 0.4936 0.5172 0.5413
2652.345 0.5487 0.5946 0.6383 0.6132 0.5673 0.5839 0.5781 0.5687 0.5602 0.5171
2671.634 0.5323 0.5398 0.5359 0.5807 0.6107 0.6042 0.6219 0.6807 0.695 0.708
2690.924 0.7366 0.7079 0.6928 0.7797 0.8438 0.7882 0.7521 0.7391 0.7691 0.8279
2710.214 0.8303 0.8129 0.8466 0.8143 0.7717 0.8062 0.8206 0.8406 0.8597 0.8397
2729.504 0.8465 0.8796 0.8748 0.8865 0.9079 0.952 0.9255 0.8745 0.861 0.8523
2748.794 0.897 0.8953 0.8478 0.7864 0.8041 0.8358 0.8279 0.8259 0.749 0.6835
2768.083 0.6764 0.7136 0.7236 0.7097 0.6813 0.7037 0.7218 0.717 0.7643 0.7725
2787.373 0.7518 0.7787 0.7993 0.8281 0.9176 0.9846 1.05 1.07 1.06 1.18
2806.663 1.25 1.26 1.3 1.33 1.46 1.6 1.68 1.81 1.97 2.17
2825.953 2.34 2.55 2.85 3.18 3.61 4.02 4.39 4.87 5.38 5.82
2845.242 6.32 6.87 7.36 7.79 8.08 8.23 8.42 8.65 8.78 8.85
2864.532 8.94 9.09 9.25 9.39 9.53 9.68 9.9 10.23 10.73 11.36
2883.822 11.99 12.56 13.18 13.89 14.73 15.56 16.21 16.78 17.42 18.2
2903.112 18.67 18.32 17.44 16.67 16.06 15.44 14.67 13.82 12.99 12.27
2922.401 11.74 11.44 11.35 11.39 11.55 11.87 12.28 12.73 13.23 13.67
2941.691 14.07 14.4 14.64 15.05 15.71 16.62 17.73 19.05 20.59 22.37
2960.981 24.4 26.77 29.06 30.38 31.23 31.92 31.86 31.09 30.39 29.87
2980.271 29.08 27.75 25.88 23.81 21.95 20.32 18.51 16.5 14.75 13.28
2999.561 11.78 10.28 8.8 7.34 5.97 4.78 3.73 2.86 2.26 1.82
3018.850 1.52 1.34 1.17 1.05 0.9516 0.8096 0.729 0.7643 0.7503 0.6775
3038.140 0.6752 0.6107 0.573 0.6429 0.6782 0.6542 0.5743 0.5896 0.6247 0.5962
3057.430 0.565 0.5675 0.5657 0.5312 0.5551 0.542 0.4773 0.4911 0.5289 0.4939
3076.720 0.5109 0.5288 0.5321 0.5982 0.621 0.6233 0.6186 0.5908 0.5839 0.6221
3096.009 0.6221 0.6062 0.6401 0.6201 0.6424 0.6151 0.5255 0.5297 0.5798 0.6339
3115.299 0.6401 0.6066 0.513 0.4817 0.5348 0.5355 0.4833 0.4369 0.504 0.5646
3134.589 0.5625 0.5488 0.574 0.5625 0.5349 0.4871 0.5141 0.6201 0.6225 0.5963
3153.879 0.5972 0.6532 0.6558 0.6706 0.7449 0.6944 0.6857 0.7681 0.7131 0.6411
3173.169 0.6592 0.6382 0.6782 0.7749 0.7471 0.6994 0.668 0.5835 0.5272 0.5214
3192.458 0.5506 0.5632 0.5164 0.5151 0.5531 0.5705 0.5627 0.5022 0.4371 0.4394
3211.748 0.4267 0.4844 0.4902 0.4231 0.4536 0.4395 0.3837 0.4143 0.3935 0.3521
3231.038 0.348 0.3898 0.41 0.3553 0.3037 0.3366 0.3376 0.2826 0.2806 0.2747
3250.328 0.3596 0.3883 0.377 0.4225 0.3984 0.3592 0.3786 0.3567 0.3407 0.3488
3269.617 0.3497 0.3855 0.3983 0.3906 0.3817 0.3342 0.2565 0.3053 0.3703 0.3273
3288.907 0.3269 0.3991 0.452 0.4142 0.3414 0.3781 0.4108 0.3269 0.3139 0.4229
3308.197 0.4626 0.435 0.4643 0.5344 0.479 0.3508 0.3513 0.4428 0.4771 0.4883
3327.487 0.548 0.5794 0.6126 0.618 0.6355 0.6303 0.631 0.67 0.64 0.6217
3346.777 0.638 0.6476 0.6153 0.6042 0.6274 0.6106 0.5735 0.5908 0.637 0.6028
3366.066 0.5473 0.5318 0.5302 0.5409 0.5252 0.5246 0.5209 0.4499 0.4577 0.4515
3385.356 0.4174 0.4504 0.4741 0.4315 0.4017 0.4206 0.3963 0.3699 0.3577 0.3824
3404.646 0.4719 0.5249 0.5338 0.5505 0.4789 0.4119 0.4176 0.4168 0.4082 0.3958
3423.936 0.4214 0.4675 0.4295 0.3842 0.3725 0.3146 0.2414 0.3018 0.3131 0.3185
3443.225 0.4123 0.3929 0.3272 0.3305 0.2795 0.2113 0.2588 0.2697 0.2504 0.2236
3462.515 0.2975 0.4264 0.3839 0.3344 0.3471 0.3385 0.2904 0.31 0.3923 0.4446
3481.805 0.5324 0.5698 0.4659 0.4711 0.498 0.4296 0.5024 0.4859 0.4697 0.51
3501.095 0.4532 0.4892 0.5521 0.4996 0.5281 0.648 0.5399 0.4506 0.5573 0.541
3520.385 0.5147 0.5912 0.6504 0.6954 0.6966 0.7011 0.744 0.8224 0.8137 0.8024
3539.674 0.8943 0.9371 0.9712 0.9915 1.03 1.25 1.37 1.47 1.71 1.91
3558.964 2.19 2.6 3.19 4.04 5.04 6.08 7.24 8.46 9.59 10.62
3578.254 11.67 12.82 13.76 14.32 14.75 15.03 15.04 14.84 14.44 13.74
3597.544 12.85 11.94 11.02 10.14 9.3 8.53 7.73 7 6.43 5.92
3616.833 5.52 5.21 4.94 4.71 4.63 4.46 4.26 4.2 4.05 3.81
3636.123 3.65 3.53 3.35 3.15 2.89 2.61 2.36 2.15 1.91 1.65
3655.413 1.48 1.34 1.2 1.03 0.8797 0.8602 0.8508 0.8317 0.8107 0.7568
3674.703 0.6977 0.6048 0.6191 0.6164 0.5527 0.6174 0.6514 0.6231 0.5108 0.443
3693.993 0.4589 0.5003 0.5665 0.5353 0.4533 0.439 0.4802 0.4285 0.521 0.5809
3713.282 0.3912 0.3257 0.3823 0.4172 0.4157 0.333 0.2611 0.3935 0.3967 0.2319
3732.572 0.2553 0.33 0.3013 0.3071 0.3301 0.3348 0.3595 0.3644 0.3405 0.3285
3751.862 0.3818 0.4236 0.4027 0.4383 0.4378 0.4239 0.4354 0.4051 0.3905 0.3749
3771.152 0.3458 0.3533 0.4231 0.5281 0.5359 0.4461 0.4375 0.4621 0.5016 0.5102
3790.441 0.5598 0.5319 0.4823 0.5224 0.5445 0.588 0.5989 0.6191 0.5554 0.5654
3809.731 0.6695 0.6806 0.6245 0.5858 0.6295 0.6716 0.6771 0.7264 0.742 0.6831
3829.021 0.7033 0.8676 0.9374 0.8371 0.8622 0.8006 0.6532 0.6216 0.6635 0.6664
3848.311 0.6177 0.5965 0.5758 0.588 0.5931 0.5927 0.6153 0.6172 0.6145 0.6312
3867.601 0.6826 0.7093 0.6857 0.7042 0.6789 0.6027 0.5439 0.5594 0.6212 0.665
3886.890 0.6465 0.5974 0.6133 0.6527 0.67 0.6263 0.5742 0.5852 0.6824 0.6575
3906.180 0.638 0.7088 0.6581 0.6279 0.5419 0.5265 0.5514 0.5297 0.5822 0.5727
3925.470 0.596 0.6058 0.6232 0.6154 0.5465 0.441 0.4017 0.4049 0.3863 0.3793
3944.760 0.3407 0.3596 0.3816 0.3466 0.3421 0.4587 0.4344 0.4001 0.5172 0.4867
3964.049 0.4457 0.4873 0.422 0.4537 0.4719 0.4176 0.4331 0.4632 0.3919 0.3227
3983.339 0.3956 0.4197 0.3877 0.3796 0.4065 0.4951 0.5006 0.4579 0.5236 0.5473
##END=
