##TITLE=2,5-Di-t-amyl hydroquinone
##JCAMP-DX=4.24
##DATA TYPE=INFRARED SPECTRUM
##ORIGIN=EPA-IR VAPOR PHASE LIBRARY
##OWNER=SRD/NIST
Collection (C) 2018 copyright by the U.S. Secretary of Commerce
on behalf of the United States of America. All rights reserved.
##CAS REGISTRY NO=79-74-3
##MOLFORM=C 16 H 26 O 2
##$NIST SOURCE=MSDC-IR
##STATE=gas
##XUNITS=1/CM
##YUNITS=ABSORBANCE
##XFACTOR=1.
##YFACTOR=0.001
##DELTAX=3.85796
##FIRSTX=501.5
##LASTX=4000.7
##FIRSTY=6.51
##MAXX=4000.7
##MINX=501.534
##MAXY=0.23208
##MINY=0.0001816
##NPOINTS=908
##XYDATA=(X++(Y..Y))
501.534 6.51 6.11 5.73 5.25 4.96 4.65 4.34 4.11 3.86 3.6
540.114 3.32 3.06 2.84 2.64 2.39 2.24 2.21 2.21 2.18 2.19
578.693 2.3 2.44 2.72 3.24 3.92 4.7 5.41 5.65 5.67 5.81
617.273 6.21 6.68 6.98 6.88 6.27 5.37 4.38 3.46 2.77 2.32
655.852 2.04 1.95 1.87 1.81 1.86 1.96 2.13 2.38 2.7 3.01
694.432 3.29 3.44 3.31 2.98 2.6 2.31 2.13 2.05 2.07 2.17
733.011 2.3 2.51 2.74 3.04 3.57 4.54 6.36 9.37 13.73 18.59
771.591 21.85 22.27 21.08 20.92 23.96 29.32 33.39 32.97 28.24 21.89
810.170 16.38 12.61 10.75 10.65 12.27 15.55 19.74 23.17 24.42 23.25
848.750 21.11 19.61 18.65 17.11 15.25 14.3 14.57 15.05 14.22 11.73
887.330 8.74 6.5 5.26 4.81 4.77 4.82 4.72 4.43 4.02 3.65
925.909 3.48 3.49 3.56 3.55 3.39 3.14 2.93 2.84 2.88 2.97
964.489 3.07 3.26 3.45 3.74 4.23 5.02 6.1 7.47 8.86 10.15
1003.068 11.45 12.45 12.46 11.22 9.43 7.93 7.17 7.14 7.67 8.29
1041.648 8.68 9 9.42 9.97 10.39 10.13 9.27 8.48 7.99 7.89
1080.227 8.29 9.1 10.36 12.3 15.24 19.76 26.16 34 41.53 46.07
1118.807 46.07 42.62 38.78 37.4 39.83 47.2 60.87 82.14 109.04 134.26
1157.387 149.32 151.49 144.7 135.32 126.79 118.56 109.25 98.5 86.76 74.96
1195.966 63.88 54.8 49.37 48.04 48.96 48.55 44.41 37.48 30.77 26.07
1234.546 23.04 20.79 18.93 17.5 16.53 16.25 16.83 18.08 19.84 22.05
1273.125 24.64 27.13 29.24 30.76 31.8 32.93 34.53 36.15 36.36 34.12
1311.705 29.93 25.34 21.58 19.07 17.76 17.22 16.89 16.55 16.37 16.6
1350.284 17.61 19.99 24.54 31.57 40.21 49.62 61.38 77.49 95.22 106.69
1388.864 108.56 108.27 114.46 123.22 121.28 104.02 80.37 60.71 47.18 37.98
1427.443 31.29 26.2 22.62 20.52 19.91 20.68 22.86 26.18 30.42 34.55
1466.023 37.71 39.7 41.43 43.27 44.15 43.76 43.83 46.05 49.43 51.46
1504.603 50.29 45.63 38.67 30.54 22.66 16.28 12.14 9.85 8.75 8.2
1543.182 7.79 7.3 6.65 5.92 5.29 4.86 4.61 4.4 4.23 4.12
1581.762 4.09 4.05 3.99 3.93 3.79 3.65 3.54 3.44 3.38 3.33
1620.341 3.29 3.21 3.1 2.96 2.8 2.74 2.75 2.92 3.36 4.12
1658.921 4.83 4.94 4.38 3.64 3.2 3.08 3.07 3.13 3.22 3.15
1697.500 2.94 2.65 2.36 2.13 1.96 1.83 1.8 1.81 1.8 1.76
1736.080 1.76 1.79 1.79 1.73 1.65 1.58 1.48 1.4 1.31 1.25
1774.659 1.24 1.22 1.18 1.11 1.03 0.9634 0.9233 0.8706 0.8222 0.7989
1813.239 0.7675 0.7126 0.6659 0.6292 0.5967 0.5753 0.5532 0.5168 0.486 0.4893
1851.819 0.5009 0.4953 0.4854 0.4701 0.4543 0.4505 0.4511 0.4389 0.441 0.4306
1890.398 0.415 0.4276 0.4375 0.4394 0.4391 0.449 0.4629 0.4679 0.4819 0.494
1928.978 0.4797 0.4437 0.4152 0.406 0.3909 0.3978 0.4323 0.4475 0.474 0.4951
1967.557 0.4903 0.5033 0.5142 0.5095 0.5113 0.5151 0.5246 0.5278 0.4958 0.4695
2006.137 0.4402 0.4242 0.4291 0.4395 0.4747 0.5132 0.5336 0.5495 0.5705 0.5505
2044.716 0.511 0.4922 0.4715 0.4417 0.4355 0.4292 0.3877 0.3587 0.3404 0.3196
2083.296 0.3094 0.3258 0.3492 0.359 0.3726 0.3703 0.3616 0.3332 0.3063 0.2659
2121.875 0.2079 0.1986 0.1908 0.1816 0.2117 0.2294 0.2222 0.2294 0.275 0.3054
2160.455 0.3084 0.303 0.2875 0.2897 0.3019 0.3116 0.3151 0.3132 0.323 0.3152
2199.035 0.3203 0.3548 0.3653 0.3655 0.3736 0.3827 0.3813 0.3711 0.345 0.3247
2237.614 0.3035 0.2722 0.2664 0.2662 0.2684 0.2894 0.2912 0.3173 0.3799 0.4285
2276.194 0.4545 0.4753 0.4976 0.5463 0.6167 0.6569 0.685 0.7176 0.7414 0.7482
2314.773 0.7622 0.7804 0.7956 0.83 0.8767 0.9212 0.9546 0.9629 1 1.07
2353.353 1.1 1.14 1.22 1.3 1.42 1.54 1.62 1.69 1.72 1.75
2391.932 1.77 1.73 1.69 1.65 1.6 1.54 1.49 1.46 1.42 1.4
2430.512 1.4 1.4 1.38 1.39 1.42 1.42 1.41 1.37 1.35 1.3
2469.092 1.22 1.15 1.09 1.06 1.05 1.04 0.9991 0.9311 0.9094 0.9314
2507.671 0.9174 0.9032 0.9163 0.9213 0.9171 0.8976 0.8525 0.8331 0.8036 0.7717
2546.251 0.7821 0.7513 0.7595 0.7984 0.8048 0.8133 0.8389 0.8432 0.8299 0.8695
2584.830 0.8991 0.9269 1.02 1.11 1.16 1.18 1.23 1.31 1.36 1.36
2623.410 1.38 1.42 1.48 1.55 1.61 1.67 1.75 1.8 1.81 1.76
2661.989 1.68 1.61 1.52 1.46 1.4 1.37 1.39 1.41 1.46 1.51
2700.569 1.59 1.71 1.83 2.02 2.27 2.48 2.69 2.91 3.13 3.34
2739.148 3.49 3.52 3.47 3.38 3.38 3.48 3.63 3.81 4 4.14
2777.728 4.26 4.42 4.57 4.72 4.86 5.04 5.24 5.47 5.84 6.29
2816.308 6.8 7.4 8.12 8.91 9.81 10.88 12.13 13.57 15.44 18.01
2854.887 21.64 26.96 34.82 46.07 60.09 74.03 84.8 91.27 93.68 91.95
2893.467 86.86 81.31 78.41 79.29 83.41 89.91 97.83 105.6 111.25 113.84
2932.046 114.6 115.64 117.8 120.59 124.15 131.38 145.65 167.08 193.43 218.63
2970.626 232.08 224.65 196.13 155.6 114.23 81.3 60.11 47.97 40.65 35.06
3009.205 29.93 25.43 21.96 19.51 18.05 17.53 17.69 18.05 18.01 17.19
3047.785 15.62 13.84 12.23 10.93 9.9 9.04 8.31 7.62 7.08 6.62
3086.364 6.23 5.95 5.72 5.52 5.37 5.23 5.12 5.04 4.87 4.69
3124.944 4.5 4.29 4.08 3.85 3.59 3.36 3.18 3.01 2.91 2.82
3163.524 2.71 2.63 2.62 2.57 2.49 2.4 2.31 2.25 2.17 2.04
3202.103 1.93 1.86 1.78 1.7 1.64 1.57 1.48 1.38 1.32 1.29
3240.683 1.26 1.23 1.2 1.15 1.13 1.14 1.13 1.15 1.2 1.19
3279.262 1.14 1.11 1.12 1.12 1.12 1.09 1.05 1.03 1 0.9771
3317.842 0.9636 0.9439 0.945 0.9134 0.8504 0.8493 0.8384 0.8535 0.8581 0.8769
3356.421 0.9755 1.06 1.16 1.27 1.39 1.46 1.51 1.52 1.48 1.48
3395.001 1.5 1.48 1.51 1.5 1.45 1.41 1.35 1.34 1.33 1.31
3433.580 1.34 1.31 1.28 1.28 1.27 1.25 1.22 1.17 1.12 1.12
3472.160 1.15 1.14 1.1 1.05 1.03 1.06 1.02 0.9267 0.8794 0.8282
3510.740 0.7939 0.7653 0.7151 0.6521 0.5956 0.5827 0.5896 0.5656 0.5507 0.5785
3549.319 0.606 0.5735 0.5405 0.5918 0.6222 0.6569 0.7127 0.7585 0.8737 0.9916
3587.899 1.16 1.34 1.59 1.91 2.23 2.66 3.21 3.94 4.99 6.76
3626.478 9.89 15.84 26.99 45.23 65.71 75.95 69.27 52.13 37.18 29.77
3665.058 26.88 24.94 22.73 20.22 17.71 15.34 13.06 10.95 9.03 7.33
3703.637 5.93 4.84 3.96 3.32 2.84 2.45 2.19 1.94 1.69 1.54
3742.217 1.37 1.25 1.22 1.2 1.18 1.1 1.03 1.11 1.17 1.12
3780.797 1.1 1.14 1.17 1.21 1.23 1.25 1.32 1.41 1.44 1.42
3819.376 1.42 1.42 1.4 1.4 1.38 1.39 1.41 1.33 1.26 1.24
3857.956 1.28 1.29 1.31 1.36 1.31 1.35 1.37 1.35 1.36 1.27
3896.535 1.22 1.18 1.18 1.28 1.35 1.36 1.33 1.25 1.16 1.06
3935.115 0.9298 0.83 0.7198 0.6799 0.6775 0.6373 0.6388 0.6433 0.6051 0.5727
3973.694 0.557 0.5691 0.5655 0.5833 0.5988 0.5356 0.4953 0.5283
##END=
