##TITLE=Camphene
##JCAMP-DX=4.24
##DATA TYPE=INFRARED SPECTRUM
##ORIGIN=NIST Mass Spectrometry Data Center
##OWNER=NIST Standard Reference Data Program
Collection (C) 2018 copyright by the U.S. Secretary of Commerce
on behalf of the United States of America. All rights reserved.
##CAS REGISTRY NO=79-92-5
##MOLFORM=C 10 H 16
##$NIST SOURCE=MSDC-IR
##SPECTROMETER/DATA SYSTEM=HP-GC/MS/IRD
##STATE=gas
##XUNITS=1/CM
##YUNITS=ABSORBANCE
##XFACTOR=1.0
##YFACTOR=0.000002100
##DELTAX=4.0
##FIRSTX=550.0
##LASTX=3846.0
##FIRSTY=0.000128
##MAXX=3846
##MINX=550
##MAXY=0.021
##MINY=0
##NPOINTS=825
##XYDATA=(X++(Y..Y))
550.0 61 88 84 71 51 69 73 42 22 0
590.0 33 67 36 30 47 34 23 41 108 133
630.0 157 188 147 132 152 141 132 190 237 260
670.0 275 226 194 177 119 86 87 73 80 68
710.0 39 45 27 32 61 75 92 110 144 174
750.0 162 151 146 97 74 85 54 42 58 58
790.0 62 71 84 93 74 70 69 79 10 5
830.0 55 31 47 54 67 103 146 234 410 737
870.0 1149 1394 1815 2249 1896 1490 1221 826 469 251
910.0 152 115 104 102 105 112 127 119 110 117
950.0 117 118 118 134 144 125 102 79 57 27
990.0 15 26 20 6 10 22 39 35 35 65
1030.0 78 89 113 116 104 87 68 56 24 5
1070.0 5 23 59 84 131 195 249 306 338 360
1110.0 363 322 294 246 187 165 148 153 185 216
1150.0 242 254 272 261 212 161 128 105 97 109
1190.0 128 152 161 160 149 135 127 119 93 70
1230.0 67 62 51 47 52 63 82 90 92 96
1270.0 93 99 100 103 118 126 134 145 149 135
1310.0 117 99 86 74 69 73 69 79 109 149
1350.0 213 301 372 476 585 555 561 609 586 553
1390.0 493 431 379 310 263 275 306 324 336 347
1430.0 364 369 392 461 540 653 768 860 926 928
1470.0 918 825 694 595 500 395 303 250 183 113
1510.0 92 82 51 41 45 40 43 49 45 46
1550.0 52 45 47 75 77 60 54 52 50 54
1590.0 55 47 57 62 61 84 108 136 171 202
1630.0 243 299 383 481 575 659 725 755 719 644
1670.0 545 430 329 237 166 126 96 70 51 52
1710.0 50 38 34 44 42 23 22 35 37 40
1750.0 54 74 100 116 137 165 155 137 118 78
1790.0 53 41 37 28 18 26 30 26 16 7
1830.0 17 23 18 22 24 22 24 19 15 14
1870.0 16 20 18 12 13 12 18 19 14 14
1910.0 19 24 18 10 2 9 15 14 10 5
1950.0 5 9 13 15 20 20 17 17 15 18
1990.0 18 20 20 22 22 18 9 6 16 18
2030.0 13 1 2 17 16 12 16 15 10 11
2070.0 19 21 18 22 21 12 13 16 22 27
2110.0 24 28 28 24 24 27 31 32 29 26
2150.0 24 22 26 25 21 21 18 20 26 19
2190.0 16 17 12 7 5 10 15 15 13 18
2230.0 24 22 22 20 14 12 21 24 17 18
2270.0 24 17 15 10 0 5 22 23 18 19
2310.0 15 14 15 17 18 2 5 17 12 12
2350.0 10 3 1 0 4 5 8 11 6 11
2390.0 16 20 18 13 14 18 21 10 4 11
2430.0 19 20 16 22 22 9 5 9 5 4
2470.0 11 15 14 20 18 13 7 8 16 17
2510.0 15 16 17 20 19 12 8 12 24 34
2550.0 28 22 26 24 23 16 16 28 25 19
2590.0 20 27 30 31 29 21 10 19 32 25
2630.0 15 14 12 20 31 27 26 25 25 35
2670.0 34 34 39 38 30 24 27 24 22 22
2710.0 33 51 57 60 70 80 75 61 64 71
2750.0 73 81 85 83 82 86 82 81 90 88
2790.0 85 91 94 88 89 106 120 134 139 142
2830.0 165 191 220 261 320 411 543 745 1071 1491
2870.0 1927 2354 2733 2914 2971 2968 2831 2669 2557 2508
2910.0 2538 2670 2936 3305 3753 4282 4879 5465 5990 6744
2950.0 7614 8231 9062 9760 9998 10000 9401 8531 7646 6530
2990.0 5034 3709 2778 1912 1214 775 538 409 334 303
3030.0 274 253 252 263 291 343 435 584 755 858
3070.0 995 1030 849 712 531 341 225 166 129 105
3110.0 100 102 104 91 88 84 93 99 91 90
3150.0 79 74 79 88 83 73 82 83 72 76
3190.0 92 94 82 68 54 40 48 54 47 35
3230.0 35 50 42 26 25 34 28 15 24 30
3270.0 35 21 19 33 20 13 8 16 24 30
3310.0 36 44 30 9 19 36 54 45 21 24
3350.0 42 38 42 60 59 42 29 19 31 48
3390.0 46 38 36 32 24 38 60 52 38 39
3430.0 38 29 30 43 32 26 28 28 21 4
3470.0 17 31 35 43 44 43 44 38 22 26
3510.0 34 15 16 35 25 12 22 29 22 19
3550.0 21 11 24 36 5 5 20 22 20 16
3590.0 29 28 26 25 10 18 45 37 22 34
3630.0 40 39 48 52 46 44 52 44 42 39
3670.0 44 52 44 33 22 34 41 43 48 54
3710.0 55 54 54 44 38 29 8 14 35 22
3750.0 6 34 49 35 49 55 44 37 35 40
3790.0 35 31 11 5 33 47 34 28 23 17
3830.0 28 48 57 59 60
##END=
