##TITLE=1,2,3,4-Tetramethyl-cyclopentane
##JCAMP-DX=4.24
##DATA TYPE=INFRARED SPECTRUM
##ORIGIN=NIST Mass Spectrometry Data Center
##OWNER=NIST Standard Reference Data Program
Collection (C) 2018 copyright by the U.S. Secretary of Commerce
on behalf of the United States of America. All rights reserved.
##CAS REGISTRY NO=79042-54-9
##MOLFORM=C 9 H 18
##$NIST SOURCE=MSDC-IR
##SPECTROMETER/DATA SYSTEM=HP-GC/MS/IRD
##STATE=gas
##XUNITS=1/CM
##YUNITS=ABSORBANCE
##XFACTOR=1.0
##YFACTOR=0.000004100
##DELTAX=4.0
##FIRSTX=550.0
##LASTX=3846.0
##FIRSTY=0.000205
##MAXX=3846
##MINX=550
##MAXY=0.041
##MINY=0
##NPOINTS=825
##XYDATA=(X++(Y..Y))
550.0 50 76 80 59 48 63 97 103 72 64
590.0 59 34 35 52 56 41 31 44 33 33
630.0 41 29 19 39 45 32 15 2 25 26
670.0 15 24 18 25 33 22 20 30 30 27
710.0 14 18 35 37 32 32 39 46 43 27
750.0 22 38 34 26 27 24 28 32 32 34
790.0 39 44 38 26 23 31 32 29 18 23
830.0 33 34 43 44 38 40 35 40 47 44
870.0 32 21 25 27 31 29 30 44 47 55
910.0 69 69 73 74 68 55 47 51 53 54
950.0 63 72 79 96 113 123 139 147 146 150
990.0 160 178 193 195 201 201 191 174 149 118
1030.0 99 92 81 74 69 64 78 78 68 71
1070.0 72 65 62 68 64 63 60 56 71 82
1110.0 88 102 101 93 101 92 85 93 90 79
1150.0 72 76 78 79 67 57 60 51 44 39
1190.0 44 46 47 58 53 50 58 62 67 73
1230.0 77 84 87 84 82 81 90 87 75 77
1270.0 88 99 111 121 126 139 151 143 132 124
1310.0 114 105 108 121 139 170 210 249 281 306
1350.0 321 344 388 462 581 735 879 968 1002 931
1390.0 749 555 392 277 213 185 178 182 203 232
1430.0 277 352 476 633 813 994 1125 1236 1309 1221
1470.0 1042 865 681 509 372 274 216 172 136 110
1510.0 91 79 68 56 52 53 47 39 37 38
1550.0 38 37 38 40 39 38 37 40 43 40
1590.0 42 46 48 50 48 47 48 51 53 49
1630.0 48 48 46 48 48 47 46 43 46 44
1670.0 45 42 39 43 42 40 34 29 27 26
1710.0 25 24 27 29 27 29 29 24 24 27
1750.0 29 27 24 21 15 14 15 16 16 12
1790.0 15 19 19 16 12 14 20 20 16 16
1830.0 14 12 9 11 11 13 13 11 11 12
1870.0 14 18 19 20 21 15 12 14 11 14
1910.0 11 9 12 15 11 2 0 5 9 9
1950.0 9 7 4 6 8 9 10 8 11 12
1990.0 12 5 4 7 10 8 0 4 7 8
2030.0 10 13 9 3 4 5 7 8 10 7
2070.0 6 7 2 2 8 13 13 9 8 8
2110.0 12 15 12 15 12 10 5 8 11 7
2150.0 4 1 3 6 7 12 14 10 12 13
2190.0 8 4 9 14 10 9 9 7 8 8
2230.0 6 10 15 11 10 10 8 10 9 10
2270.0 14 13 7 5 10 11 12 14 14 15
2310.0 18 17 12 16 19 18 25 28 24 21
2350.0 24 23 21 28 28 26 26 27 28 30
2390.0 30 24 24 25 31 33 29 32 37 38
2430.0 35 29 33 38 30 32 32 28 25 21
2470.0 21 20 22 25 22 13 15 22 22 28
2510.0 28 24 28 33 32 30 33 41 43 44
2550.0 46 46 44 49 48 48 55 53 55 59
2590.0 65 68 63 61 64 69 69 71 72 70
2630.0 73 76 84 87 85 83 83 86 86 82
2670.0 88 93 86 93 95 92 101 108 113 116
2710.0 114 120 139 159 169 174 180 181 176 164
2750.0 152 146 141 135 124 121 124 127 145 159
2790.0 168 178 195 214 239 270 298 337 384 430
2830.0 479 538 614 725 886 1097 1378 1757 2263 2904
2870.0 3580 4171 4634 4865 4808 4547 4267 4080 4027 4128
2910.0 4278 4451 4689 4971 5247 5504 5733 5971 6311 6896
2950.0 7844 9068 9975 10000 9417 8073 6037 4128 2692 1735
2990.0 1157 823 625 481 389 334 281 258 244 225
3030.0 215 196 181 185 187 183 173 167 163 164
3070.0 166 162 156 154 151 156 157 150 142 131
3110.0 125 134 132 121 121 129 138 124 118 129
3150.0 132 129 128 125 129 136 135 132 129 122
3190.0 118 113 104 95 96 84 72 67 57 51
3230.0 57 64 51 29 25 32 35 31 28 26
3270.0 26 28 32 27 19 9 5 20 26 34
3310.0 47 36 24 32 30 25 20 17 17 19
3350.0 32 41 40 34 32 32 22 20 25 25
3390.0 22 25 36 32 25 22 21 26 28 27
3430.0 27 32 29 16 14 18 17 16 18 27
3470.0 27 19 15 26 39 31 25 25 18 14
3510.0 11 15 20 18 11 19 21 27 30 15
3550.0 23 24 20 17 24 35 29 15 13 23
3590.0 18 6 7 15 17 19 25 18 15 19
3630.0 26 29 24 37 34 24 30 25 27 23
3670.0 12 20 30 21 10 13 21 21 21 18
3710.0 20 21 31 40 46 49 38 28 30 24
3750.0 21 33 30 23 22 29 31 20 15 18
3790.0 22 29 39 45 44 39 29 26 35 42
3830.0 38 29 29 22 36
##END=
