##TITLE=N-t-Butoxycarbonyl-4-piperidone
##JCAMP-DX=4.24
##DATA TYPE=INFRARED SPECTRUM
##ORIGIN=EPA-IR VAPOR PHASE LIBRARY
##OWNER=SRD/NIST
Collection (C) 2018 copyright by the U.S. Secretary of Commerce
on behalf of the United States of America. All rights reserved.
##CAS REGISTRY NO=79099-07-3
##MOLFORM=C 10 H 17 N O 3
##$NIST SOURCE=MSDC-IR
##STATE=gas
##XUNITS=1/CM
##YUNITS=ABSORBANCE
##XFACTOR=1.
##YFACTOR=0.001
##DELTAX=1.929
##FIRSTX=549.8
##LASTX=4000.8
##FIRSTY=2.162
##MAXX=4000.75
##MINX=549.766
##MAXY=0.210722
##MINY=0
##NPOINTS=1790
##XYDATA=(X++(Y..Y))
549.766 2.162 2.032 1.822 1.692 1.5158 1.4385 1.3737 1.3792 1.3298 1.455
569.056 1.4417 1.2947 1.3276 1.4198 1.3281 1.3159 1.3258 1.2471 1.0549 1.1091
588.346 1.2214 1.1919 1.2595 1.227 1.2899 1.2054 1.1295 1.2372 1.1866 1.2857
607.636 1.5035 1.4002 1.2566 1.4324 1.672 1.652 1.702 1.922 2.262 2.432
626.926 2.532 2.662 2.722 2.742 2.622 2.322 2.052 2.022 1.872 1.587
646.216 1.5657 1.4978 1.34 1.2314 1.0571 1.0776 1.1739 1.1139 1.0663 1.0424
665.506 1.4282 3.022 2.822 1.4844 1.3252 1.1686 1.2145 1.3267 1.2841 1.3439
684.796 1.416 1.3293 1.4828 1.6274 1.493 1.3277 1.2091 1.1238 1.1115 1.2531
704.086 1.3312 1.2155 1.2164 1.3732 1.398 1.341 1.4297 1.772 1.992 2.002
723.376 2.142 2.272 2.322 2.452 2.672 2.842 3.032 3.362 3.882 4.682
742.666 5.672 6.672 7.472 8.052 8.212 8.222 8.242 7.952 7.542 7.202
761.956 7.172 7.602 8.012 8.352 8.692 8.722 8.552 8.182 7.622 7.022
781.246 6.342 5.612 5.062 4.552 4.002 3.692 3.462 3.292 3.222 3.102
800.536 3.082 3.102 3.172 3.052 3.032 2.992 2.882 3.112 3.232 3.342
819.826 3.492 3.682 3.852 4.082 4.292 4.522 4.752 4.812 4.872 4.922
839.116 4.982 5.162 5.382 5.632 6.122 6.752 7.562 8.452 9.312 10.102
858.406 10.652 10.842 10.602 9.952 8.932 7.592 6.242 5.012 3.972 3.262
877.696 2.812 2.552 2.472 2.382 2.382 2.362 2.162 1.942 1.782 1.662
896.986 1.6095 1.5411 1.553 1.672 1.772 1.862 1.972 2.092 2.222 2.302
916.276 2.392 2.532 2.662 2.862 3.032 3.242 3.502 3.742 4.092 4.402
935.566 4.612 4.902 5.222 5.462 5.632 5.852 6.242 6.692 7.302 8.192
954.856 9.252 10.482 11.722 12.722 13.302 13.552 13.692 13.632 13.522 13.652
974.146 14.252 15.652 17.812 20.212 22.292 23.642 24.092 23.532 21.942 19.562
993.436 16.692 13.932 11.682 9.852 8.502 7.612 6.912 6.322 5.982 5.712
1012.726 5.372 5.032 4.792 4.532 4.252 4.092 4.012 3.982 3.872 3.902
1032.016 4.032 4.072 4.222 4.382 4.482 4.602 4.762 4.992 5.272 5.562
1051.306 5.832 6.042 6.172 6.222 6.232 6.212 6.042 5.852 5.772 5.722
1070.596 5.632 5.662 5.862 6.032 6.222 6.502 6.832 7.292 7.852 8.462
1089.886 9.232 10.152 11.312 12.782 14.442 16.572 19.162 22.092 25.472 29.032
1109.176 32.652 36.082 38.882 40.902 41.842 41.572 40.172 37.972 35.232 32.222
1128.467 29.382 27.052 25.582 25.082 25.392 26.472 28.132 30.362 33.302 36.892
1147.757 41.092 45.962 51.332 57.112 63.492 70.312 77.452 84.882 92.382 99.672
1167.047 106.472 112.392 116.762 119.022 118.842 116.002 110.542 102.922 93.712 83.682
1186.337 73.612 64.062 55.632 48.552 42.792 38.352 35.182 33.042 31.832 31.302
1205.627 31.612 32.572 33.872 35.702 38.162 41.322 45.232 50.112 55.982 62.762
1224.917 70.272 78.052 85.212 90.442 92.702 91.722 87.762 81.432 73.292 64.082
1244.207 55.232 47.892 42.422 38.562 35.862 34.112 33.152 32.792 32.982 33.842
1263.497 35.232 36.722 38.092 38.892 38.762 37.712 35.622 32.742 29.352 25.842
1282.787 22.672 20.122 18.332 17.222 16.972 17.502 18.772 21.032 24.402 28.922
1302.077 34.312 39.792 44.212 46.542 46.532 44.592 41.122 36.302 30.662 25.322
1321.367 20.992 17.832 15.772 14.392 13.462 12.912 12.722 12.792 13.032 13.512
1340.657 14.262 15.212 16.302 17.392 18.522 19.782 21.282 23.012 25.032 27.612
1359.947 30.902 34.872 39.222 43.392 47.012 49.922 51.682 51.942 51.102 49.972
1379.237 49.152 49.202 50.442 53.022 57.142 62.592 68.832 75.252 81.222 86.192
1398.527 90.012 92.702 93.712 92.952 90.912 87.952 84.012 79.122 73.342 66.782
1417.817 59.922 52.962 46.672 41.062 36.052 31.892 28.342 25.432 23.032 21.072
1437.107 19.482 18.282 17.432 16.992 16.862 16.932 17.172 17.582 18.062 18.412
1456.397 18.742 18.982 19.072 19.232 19.642 20.372 21.382 22.582 23.752 24.602
1475.687 24.932 24.722 23.932 22.582 20.862 19.032 17.232 15.592 14.152 12.852
1494.977 11.692 10.672 9.712 8.842 8.072 7.462 6.872 6.282 5.812 5.482
1514.267 5.252 5.072 4.942 4.832 4.752 4.662 4.572 4.452 4.352 4.362
1533.557 4.372 4.272 4.322 4.412 4.342 4.202 4.092 4.042 3.982 3.872
1552.847 3.802 3.752 3.672 3.582 3.442 3.312 3.222 3.152 3.092 3.042
1572.137 3.002 3.012 3.012 2.942 2.912 2.912 2.902 2.862 2.872 2.862
1591.427 2.822 2.832 2.862 2.902 2.902 2.902 2.962 2.982 2.942 2.952
1610.717 3.002 3.082 3.142 3.202 3.182 3.222 3.352 3.382 3.382 3.452
1630.007 3.512 3.602 3.742 3.882 3.992 4.102 4.312 4.522 4.812 5.052
1649.297 5.242 5.622 6.022 6.242 6.502 6.822 7.172 7.562 7.892 8.252
1668.587 8.722 9.182 9.612 10.072 10.582 11.112 11.732 12.392 13.242 14.162
1687.877 15.232 16.722 18.632 21.092 24.492 28.642 34.122 41.812 50.922 63.392
1707.167 79.192 98.712 121.892 147.302 172.132 192.522 205.822 210.722 207.472 196.152
1726.457 176.742 152.902 129.762 111.762 98.382 89.422 83.292 77.722 72.142 65.842
1745.747 58.742 50.852 42.782 35.062 28.562 23.702 20.062 17.452 15.512 13.882
1765.037 12.492 11.352 10.272 9.302 8.422 7.622 6.942 6.402 5.922 5.532
1784.327 5.172 4.812 4.562 4.382 4.202 3.962 3.752 3.612 3.472 3.312
1803.617 3.142 3.042 2.972 2.912 2.802 2.662 2.572 2.472 2.382 2.312
1822.907 2.272 2.212 2.122 2.072 2.012 1.932 1.922 1.902 1.832 1.752
1842.197 1.702 1.692 1.6158 1.5161 1.4619 1.4276 1.4277 1.4471 1.4017 1.3392
1861.487 1.3398 1.3003 1.2556 1.2339 1.2651 1.2925 1.2432 1.2325 1.2526 1.212
1880.777 1.1847 1.2185 1.212 1.2186 1.2445 1.2193 1.2366 1.2541 1.2298 1.2271
1900.067 1.2371 1.2308 1.2467 1.2732 1.2462 1.1897 1.1435 1.1094 1.1009 1.0793
1919.357 1.0446 1.0344 1.0304 1.0326 1.0434 1.0314 1 0.9883 1.0008 1.0139
1938.647 0.971 0.9655 0.9753 0.9355 0.9428 0.954 0.9649 0.9821 0.9395 0.8788
1957.937 0.8603 0.878 0.8749 0.8662 0.8899 0.9072 0.9447 0.9354 0.9074 0.944
1977.227 0.9579 0.9418 0.939 0.916 0.899 0.9072 0.9079 0.9273 0.9324 0.9181
1996.517 0.9214 0.8966 0.8731 0.897 0.9009 0.8926 0.8759 0.8734 0.8919 0.9395
2015.807 0.9521 0.92 0.8964 0.9124 0.9468 0.96 0.9705 0.9937 1.0193 1.0374
2035.097 1.0833 1.0991 1.0972 1.1026 1.0876 1.0505 1.0147 1.0279 1.0688 1.1003
2054.387 1.0905 1.0841 1.1059 1.1023 1.0982 1.0524 0.9831 0.9544 0.9538 0.9526
2073.677 0.9209 0.8751 0.8458 0.8474 0.8297 0.8318 0.8362 0.7988 0.7814 0.7542
2092.967 0.7533 0.7609 0.7397 0.70026 0.68518 0.70986 0.71788 0.68326 0.65423 0.62564
2112.257 0.6107 0.6127 0.5994 0.5908 0.5908 0.6127 0.6172 0.631558 0.6168 0.571
2131.547 0.5968 0.62577 0.62535 0.5685 0.5587 0.640034 0.66294 0.6063 0.5604 0.5476
2150.837 0.527 0.5438 0.6076 0.618 0.5779 0.5817 0.5838 0.5858 0.6007 0.6009
2170.127 0.62894 0.6057 0.5828 0.6017 0.5912 0.5968 0.596 0.5931 0.6202 0.66894
2189.417 0.64831 0.6059 0.62587 0.65363 0.65223 0.6098 0.6136 0.65124 0.64402 0.65151
2208.707 0.64502 0.62721 0.617 0.5873 0.5885 0.6015 0.62637 0.67546 0.70092 0.69377
2227.997 0.67684 0.66925 0.65032 0.65404 0.68003 0.68006 0.68419 0.64376 0.6218 0.6169
2247.287 0.6029 0.64995 0.68024 0.6577 0.6118 0.6014 0.62745 0.65407 0.68549 0.6915
2266.577 0.71608 0.7755 0.8159 0.8806 0.8875 0.8756 0.9591 1.0408 1.1048 1.1683
2285.868 1.2491 1.3689 1.5066 1.628 1.712 1.822 1.952 2.082 2.242 2.402
2305.158 2.622 2.802 2.922 3.112 3.332 3.472 3.602 3.752 3.872 3.942
2324.448 3.962 3.972 4.052 4.052 3.952 3.832 3.712 3.702 3.732 3.712
2343.738 3.602 3.352 3.102 3.172 3.572 4.052 4.542 4.912 5.122 5.312
2363.028 5.372 5.252 5.102 4.912 4.632 4.232 3.722 3.222 2.762 2.272
2382.318 1.822 1.3849 1.046 0.9238 0.7778 0.6109 0.5382 0.512 0.496 0.459
2401.608 0.46 0.483 0.5474 0.5446 0.503 0.5491 0.5419 0.485 0.469 0.511
2420.898 0.5738 0.5666 0.521 0.515 0.466 0.453 0.492 0.504 0.494 0.491
2440.188 0.47 0.403 0.414 0.451 0.453 0.451 0.449 0.451 0.437 0.418
2459.478 0.398 0.426 0.476 0.452 0.407 0.402 0.388 0.379 0.401 0.412
2478.768 0.417 0.426 0.436 0.436 0.412 0.382 0.353 0.361 0.438 0.455
2498.058 0.412 0.423 0.437 0.39 0.346 0.317 0.311 0.365 0.406 0.395
2517.348 0.364 0.351 0.413 0.462 0.461 0.441 0.478 0.5548 0.5765 0.524
2536.638 0.516 0.6087 0.5955 0.5691 0.5806 0.5679 0.5488 0.5678 0.5931 0.521
2555.928 0.452 0.396 0.347 0.343 0.333 0.333 0.352 0.333 0.295 0.304
2575.218 0.308 0.338 0.366 0.326 0.284 0.306 0.315 0.275 0.259 0.275
2594.508 0.322 0.338 0.359 0.394 0.41 0.425 0.356 0.318 0.372 0.367
2613.798 0.363 0.391 0.408 0.418 0.388 0.407 0.415 0.45 0.47 0.44
2633.088 0.426 0.421 0.467 0.529 0.5898 0.5716 0.5438 0.513 0.514 0.5782
2652.378 0.5489 0.51 0.515 0.5349 0.5685 0.5688 0.5814 0.5452 0.525 0.5386
2671.668 0.522 0.517 0.573 0.635195 0.6148 0.609 0.636439 0.68519 0.7271 0.7426
2690.958 0.7684 0.7954 0.7712 0.70737 0.70406 0.7555 0.7784 0.7753 0.7766 0.71811
2710.248 0.68886 0.7642 0.8221 0.8404 0.9087 0.9646 0.9927 1.001 1.0262 1.1259
2729.538 1.1602 1.1329 1.1581 1.1536 1.0948 0.9789 0.9332 0.9233 0.8291 0.8204
2748.828 0.8291 0.8203 0.8684 0.929 0.8914 0.8555 0.875 0.8598 0.8633 0.9274
2768.118 0.9471 0.9725 1.0605 1.1598 1.1563 1.0825 1.0711 1.1297 1.1225 1.1496
2787.408 1.2914 1.2874 1.27 1.3423 1.4583 1.5812 1.5768 1.5858 1.692 1.802
2806.698 1.912 2.092 2.222 2.352 2.432 2.532 2.772 3.032 3.172 3.222
2825.988 3.462 3.572 3.632 3.792 3.882 4.012 4.202 4.452 4.772 5.152
2845.278 5.522 5.882 6.282 6.742 7.252 7.712 8.282 8.972 9.832 10.832
2864.568 11.912 13.232 14.572 15.852 17.042 18.042 18.652 18.882 18.862 18.552
2883.858 18.072 17.412 16.662 15.882 15.232 14.772 14.412 14.332 14.332 14.412
2903.148 14.622 15.042 15.652 16.322 17.042 17.752 18.592 19.352 19.932 20.442
2922.438 20.882 21.192 21.362 21.492 21.602 21.772 22.002 22.112 22.162 22.122
2941.728 21.942 21.522 20.982 20.362 19.652 19.102 18.792 18.792 19.052 19.712
2961.018 20.832 22.472 24.872 27.902 31.382 35.002 38.282 41.142 43.652 45.912
2980.308 47.622 47.902 45.862 41.912 37.442 32.532 26.912 21.252 16.572 13.412
2999.598 11.642 10.922 10.772 10.862 10.982 11.092 11.022 10.772 10.372 9.692
3018.888 8.792 7.802 6.772 5.862 5.062 4.312 3.672 3.042 2.622 2.362
3038.178 2.072 1.862 1.732 1.578 1.4487 1.3872 1.3248 1.2596 1.1918 1.1611
3057.468 1.1503 1.1078 1.1297 1.1616 1.0366 0.9778 0.9811 0.9402 0.8894 0.7652
3076.758 0.7905 0.8717 0.8472 0.8843 0.9044 0.8759 0.8849 0.8609 0.8175 0.7883
3096.048 0.8619 0.9001 0.8513 0.8818 0.8575 0.7676 0.8033 0.8037 0.7059 0.69146
3115.338 0.70099 0.68713 0.7359 0.7755 0.8539 0.8788 0.7496 0.71173 0.72764 0.7499
3134.628 0.7904 0.70119 0.5652 0.5571 0.5463 0.563 0.5934 0.5796 0.5377 0.53
3153.918 0.474 0.362 0.434 0.495 0.463 0.362 0.322 0.4 0.406 0.383
3173.208 0.396 0.318 0.261 0.339 0.4 0.457 0.424 0.307 0.411 0.448
3192.498 0.328 0.312 0.359 0.372 0.357 0.416 0.393 0.392 0.529 0.6021
3211.788 0.508 0.439 0.306 0.242 0.24 0.24 0.234 0.311 0.333 0.261
3231.078 0.384 0.366 0.335 0.339 0.284 0.307 0.282 0.19 0.229 0.257
3250.368 0.201 0.173 0.201 0.244 0.174 0.131 0.17 0.129 0.09 0.15
3269.658 0.158 0.132 0.15 0.133 0.109 0.072 0.086 0.152 0.192 0.226
3288.948 0.193 0.011 0.089 0.244 0.12 0.115 0.131 0.102 0.106 0.085
3308.238 0.076 0.124 0.184 0.136 0.087 0.116 0.19 0.101 0.077 0.143
3327.528 0.115 0.191 0.153 0.068 0.104 0.12 0.144 0.205 0.231 0.211
3346.818 0.113 0.119 0.164 0.209 0.309 0.234 0.153 0.208 0.244 0.198
3366.108 0.219 0.266 0.283 0.278 0.216 0.142 0.133 0.164 0.264 0.442
3385.398 0.487 0.44 0.435 0.404 0.406 0.515 0.493 0.497 0.5647 0.6066
3404.688 0.67299 0.8039 0.8711 0.8807 1.0422 1.1798 1.1527 1.156 1.2263 1.2418
3423.978 1.3445 1.2911 1.208 1.2874 1.3293 1.2697 1.2679 1.3499 1.3071 1.1756
3443.269 1.1813 1.2476 1.2766 1.3899 1.3557 1.2668 1.2428 1.2259 1.2172 1.2812
3462.559 1.2039 1.0753 1.1015 0.9739 0.9014 0.8799 0.76 0.7389 0.7391 0.5991
3481.849 0.531 0.453 0.391 0.396 0.401 0.5544 0.424 0.329 0.376 0.344
3501.139 0.331 0.282 0.247 0.222 0.208 0.174 0.169 0.147 0.131 0.14
3520.429 0.039 0 0.079 0.051 0.086 0.195 0.213 0.237 0.237 0.237
3539.719 0.225 0.165 0.199 0.296 0.309 0.173 0.07 0.055 0.17 0.231
3559.009 0.164 0.137 0.194 0.2 0.203 0.295 0.249 0.17 0.203 0.197
3578.299 0.223 0.266 0.206 0.186 0.079 0.114 0.195 0.129 0.187 0.222
3597.589 0.157 0.117 0.109 0.114 0.063 0.084 0.2 0.237 0.266 0.238
3616.879 0.087 0.011 0.158 0.187 0.009 0.106 0.286 0.208 0.193 0.23
3636.169 0.261 0.222 0.205 0.242 0.221 0.253 0.245 0.23 0.249 0.093
3655.459 0.114 0.271 0.254 0.313 0.334 0.265 0.327 0.368 0.243 0.223
3674.749 0.28 0.212 0.218 0.341 0.336 0.26 0.242 0.361 0.378 0.237
3694.039 0.3 0.363 0.339 0.296 0.284 0.357 0.322 0.183 0.148 0.182
3713.329 0.259 0.254 0.199 0.271 0.309 0.241 0.214 0.33 0.298 0.374
3732.619 0.516 0.397 0.343 0.331 0.284 0.302 0.376 0.369 0.301 0.311
3751.909 0.293 0.221 0.164 0.159 0.148 0.152 0.163 0.194 0.25 0.143
3771.199 0.156 0.345 0.333 0.191 0.112 0.082 0.148 0.215 0.182 0.112
3790.489 0.152 0.342 0.42 0.283 0.14 0.16 0.239 0.297 0.305 0.286
3809.779 0.281 0.327 0.256 0.2 0.319 0.301 0.307 0.313 0.203 0.175
3829.069 0.224 0.393 0.468 0.412 0.361 0.358 0.319 0.227 0.262 0.321
3848.359 0.367 0.39 0.3 0.237 0.258 0.318 0.336 0.247 0.288 0.28
3867.649 0.218 0.334 0.447 0.369 0.33 0.287 0.316 0.394 0.318 0.328
3886.939 0.4 0.375 0.353 0.343 0.261 0.27 0.23 0.117 0.155 0.328
3906.229 0.348 0.309 0.342 0.395 0.415 0.346 0.254 0.162 0.241 0.256
3925.519 0.192 0.166 0.1 0.209 0.307 0.282 0.38 0.375 0.305 0.224
3944.809 0.127 0.22 0.368 0.354 0.348 0.38 0.367 0.314 0.308 0.368
3964.099 0.443 0.445 0.388 0.431 0.511 0.495 0.435 0.333 0.265 0.338
3983.389 0.314 0.23 0.27 0.26 0.189 0.265 0.278 0.28 0.384 0.461
##END=
