##TITLE=(3S)-(-)-3-Acetamidopyrrolidine
##JCAMP-DX=4.24
##DATA TYPE=INFRARED SPECTRUM
##ORIGIN=EPA-IR VAPOR PHASE LIBRARY
##OWNER=SRD/NIST
Collection (C) 2018 copyright by the U.S. Secretary of Commerce
on behalf of the United States of America. All rights reserved.
##CAS REGISTRY NO=79286-74-1
##MOLFORM=C 6 H 12 N 2 O
##$NIST SOURCE=MSDC-IR
##STATE=gas
##XUNITS=1/CM
##YUNITS=ABSORBANCE
##XFACTOR=1.
##YFACTOR=0.001
##DELTAX=1.92898
##FIRSTX=549.8
##LASTX=4000.7
##FIRSTY=9.734
##MAXX=4000.7
##MINX=549.759
##MAXY=0.093614
##MINY=0
##NPOINTS=1790
##XYDATA=(X++(Y..Y))
549.759 9.734 9.914 9.664 8.514 8.264 8.744 9.174 8.784 8.144 9.254
569.049 9.224 8.434 7.974 7.664 7.594 7.754 8.334 8.084 8.034 7.734
588.339 7.394 7.664 7.814 7.354 6.454 6.574 6.664 6.644 6.774 5.964
607.628 5.914 5.954 5.374 5.404 5.254 4.764 4.304 4.614 5.084 5.184
626.918 4.974 4.634 4.564 4.644 4.514 4.034 4.054 4.394 3.844 3.624
646.208 4.174 4.244 4.124 3.904 4.094 4.214 3.664 3.514 3.654 4.044
665.498 3.414 2.874 3.264 3.504 3.914 3.674 3.394 3.604 3.644 3.524
684.787 3.444 3.584 4.024 4.354 4.294 4.094 3.914 3.764 3.744 3.724
704.077 3.844 3.924 3.944 4.264 4.144 4.034 4.064 4.114 4.594 4.564
723.367 4.434 4.854 5.154 5.744 5.954 5.684 5.894 5.694 5.544 5.854
742.657 6.094 6.074 6.214 6.584 6.474 6.374 6.744 7.194 7.604 7.764
761.947 7.794 8.354 8.354 8.154 8.394 8.154 8.534 9.324 9.174 9.224
781.236 9.464 8.964 8.614 8.944 9.124 9.114 9.194 8.764 8.534 8.614
800.526 8.524 8.714 8.704 8.724 9.014 9.174 8.854 8.654 8.704 8.624
819.816 8.594 8.674 8.764 8.464 8.044 7.634 7.884 7.734 7.084 7.194
839.106 7.434 7.334 6.664 6.554 6.514 6.464 6.734 6.334 5.914 5.804
858.395 5.544 5.474 5.804 5.754 5.254 5.064 4.884 4.204 4.434 5.004
877.685 5.194 5.264 4.834 4.564 4.904 4.964 4.854 4.594 4.524 4.794
896.975 4.644 4.254 3.994 4.304 4.884 4.844 4.374 4.494 4.674 4.454
916.265 4.284 4.554 4.544 4.214 4.604 4.914 4.754 4.384 4.324 4.384
935.555 4.354 4.394 4.214 4.264 4.394 4.544 4.724 4.574 4.614 5.234
954.844 5.294 4.454 4.214 4.764 5.374 5.864 5.944 6.224 6.504 6.544
974.134 6.454 5.974 5.674 5.764 5.834 5.724 5.554 5.504 5.234 5.014
993.424 4.464 4.104 4.184 3.864 3.834 4.194 4.144 3.924 3.524 3.564
1012.714 4.304 3.774 2.934 2.824 2.754 3.744 4.404 4.014 3.634 3.184
1032.003 3.434 3.484 3.204 3.864 3.664 3.024 4.234 4.054 3.614 3.704
1051.293 3.554 3.834 4.474 4.734 4.744 5.164 5.074 5.094 4.464 4.804
1070.583 4.954 4.634 6.184 7.304 8.014 9.474 9.664 9.734 10.064 9.304
1089.873 8.614 9.374 9.884 9.094 8.244 8.154 8.064 8.104 8.254 7.264
1109.163 6.714 7.254 7.024 5.844 6.484 6.324 6.694 7.274 6.274 5.534
1128.452 4.084 4.064 4.334 3.134 3.394 3.064 3.154 3.564 2.864 2.774
1147.742 1.974 1.6682 2.434 2.994 2.574 3.584 3.854 2.484 2.614 3.434
1167.032 3.664 3.874 3.804 3.454 4.424 5.384 4.804 3.774 3.854 4.444
1186.322 3.794 3.674 5.134 5.824 6.234 6.144 6.294 7.574 8.124 8.764
1205.611 9.524 10.024 11.234 11.124 10.544 10.864 13.164 16.284 15.594 14.374
1224.901 15.614 18.044 19.694 20.464 21.724 22.394 23.394 24.434 25.964 27.414
1244.191 27.484 27.744 28.054 28.334 28.114 27.554 26.564 25.774 24.144 22.564
1263.481 22.234 21.124 20.624 19.904 18.484 17.574 17.404 16.794 15.344 14.424
1282.771 13.964 13.504 12.974 12.184 11.664 11.454 10.974 10.434 10.104 9.674
1302.060 9.254 9.104 8.964 8.754 8.664 8.654 8.494 8.304 8.164 7.804
1321.350 7.634 7.604 7.384 7.104 7.064 6.994 6.854 6.704 6.554 6.524
1340.640 6.574 6.774 7.224 7.694 8.174 8.744 9.374 10.594 11.964 13.124
1359.930 14.494 15.954 17.194 18.274 19.144 19.584 19.764 19.884 19.484 18.424
1379.219 17.524 16.564 15.234 14.354 13.594 12.824 12.294 11.724 11.444 11.254
1398.509 11.184 11.294 11.304 11.234 11.294 11.354 11.404 11.534 11.694 11.974
1417.799 12.304 12.684 13.034 13.374 13.834 14.294 14.724 15.234 15.934 16.704
1437.089 17.524 18.234 18.994 20.004 21.004 21.844 22.804 24.104 25.534 26.824
1456.378 28.124 30.134 32.304 34.464 36.604 39.014 41.984 45.024 48.094 51.574
1475.668 55.284 58.914 62.304 65.354 67.924 69.854 71.064 71.434 70.874 69.444
1494.958 66.974 63.984 60.314 56.094 51.454 46.624 41.794 37.104 33.064 29.424
1514.248 26.044 23.284 21.004 19.164 17.484 15.784 14.394 13.294 12.274 11.434
1533.538 10.784 10.054 9.384 8.884 8.404 7.884 7.454 7.234 7.054 6.604
1552.827 6.234 5.924 5.554 5.504 5.464 5.444 5.454 5.194 5.014 4.874
1572.117 4.774 4.554 4.274 4.164 4.044 3.904 3.654 3.614 3.374 3.174
1591.407 3.584 3.624 3.144 2.994 3.014 2.914 2.884 2.924 2.964 3.124
1610.697 3.234 3.034 2.964 2.984 2.934 3.024 2.984 2.874 2.944 3.164
1629.986 3.374 3.364 3.314 3.424 3.554 3.424 3.454 3.844 4.084 4.234
1649.276 4.384 4.524 4.524 4.934 5.534 6.004 6.214 6.584 7.154 7.424
1668.566 7.954 8.704 9.354 10.084 10.744 11.454 13.004 14.714 16.454 18.664
1687.856 21.394 24.964 29.284 34.454 40.744 47.384 54.774 63.524 71.514 78.944
1707.146 84.894 89.394 92.424 93.614 92.464 89.504 84.674 77.884 69.864 61.174
1726.435 52.164 44.244 37.474 31.224 26.024 22.014 18.554 15.854 13.794 12.274
1745.725 10.914 9.614 8.694 8.064 7.194 6.444 6.104 5.704 5.244 4.784
1765.015 4.584 4.414 4.144 3.804 3.564 3.494 3.204 3.034 3.074 2.814
1784.305 2.674 2.774 2.624 2.394 2.434 2.444 2.384 2.334 2.104 2.054
1803.594 2.224 2.304 2.214 2.194 2.244 2.174 2.054 1.954 2.054 2.084
1822.884 1.994 1.8933 1.924 1.954 1.944 1.8697 1.7418 1.8286 1.944 1.994
1842.174 1.6998 1.66 1.8487 1.8253 1.831 1.7061 1.571 1.5537 1.635 1.7496
1861.464 1.8241 1.6832 1.4648 1.5 1.5004 1.4201 1.5261 1.6027 1.6008 1.5868
1880.754 1.4414 1.4888 1.6807 1.4871 1.3957 1.5455 1.5639 1.5747 1.4579 1.3843
1900.043 1.5124 1.4062 1.5541 1.8156 1.6217 1.4182 1.3923 1.393 1.215 1.2035
1919.333 1.3695 1.428 1.4486 1.3793 1.283 1.2228 1.2078 1.2465 1.3748 1.4233
1938.623 1.3674 1.3396 1.2799 1.3793 1.4503 1.501 1.4272 1.4386 1.4311 1.2495
1957.913 1.3474 1.287 1.3048 1.5931 1.4991 1.328 1.3252 1.2931 1.4201 1.4673
1977.202 1.5249 1.5505 1.3029 1.2888 1.4279 1.348 1.2188 1.2181 1.339 1.2862
1996.492 1.1742 1.2061 1.1981 1.2509 1.3953 1.3401 1.347 1.3938 1.2807 1.3373
2015.782 1.3523 1.2971 1.3029 1.2481 1.2688 1.2466 1.2834 1.3856 1.3815 1.3428
2035.072 1.229 1.3308 1.2933 1.177 1.3439 1.4857 1.4511 1.4181 1.3347 1.2123
2054.362 1.2673 1.2569 1.2352 1.399 1.4231 1.296 1.3255 1.2268 1.143 1.1977
2073.651 1.1924 1.188 1.1788 1.0943 1.1414 1.1931 1.1264 1.02633 1.0389 1.3096
2092.941 1.4152 1.3072 1.1958 1.3054 1.392 1.2101 1.1024 1.0544 0.92462 0.941346
2112.231 1.1624 1.3667 1.2805 1.1841 1.2643 1.3683 1.3449 1.3002 1.4164 1.4798
2131.521 1.4437 1.4269 1.2989 1.2076 1.2173 1.1865 1.1896 1.2931 1.4161 1.409
2150.810 1.29 1.1227 1.1945 1.3232 1.2683 1.3959 1.5597 1.4834 1.361 1.3343
2170.100 1.3351 1.4294 1.3966 1.3444 1.503 1.4595 1.3377 1.2336 1.2973 1.3912
2189.390 1.41 1.4255 1.3793 1.3714 1.3084 1.4667 1.5737 1.3989 1.3827 1.5064
2208.680 1.6293 1.566 1.5211 1.4982 1.3741 1.3981 1.3533 1.2108 1.2313 1.3322
2227.970 1.4828 1.5029 1.3599 1.3705 1.3782 1.2842 1.3376 1.4258 1.3636 1.3018
2247.259 1.2275 1.2174 1.433 1.4354 1.3085 1.3487 1.2096 1.1655 1.1578 1.0785
2266.549 1.2474 1.4137 1.2857 1.3238 1.4895 1.4062 1.4381 1.536 1.4506 1.401
2285.839 1.4839 1.3261 1.2856 1.3231 1.1983 1.2802 1.1939 1.0605 1.00264 0.8368
2305.129 1.0582 1.2518 1.2215 1.3717 1.3997 1.3178 1.3912 1.4229 1.3596 1.6017
2324.418 1.6421 1.4097 1.1582 1.1931 1.4364 1.334 1.3076 1.2149 1.1452 1.2889
2343.708 1.3431 1.4227 1.359 1.2291 1.2336 1.384 1.5422 1.5833 1.6876 1.4921
2362.998 1.097 0.8979 1.2042 1.4462 1.3325 1.3604 1.3517 1.4495 1.3831 1.2179
2382.288 1.2835 1.3694 1.4496 1.3038 1.2664 1.3626 1.3671 1.2792 1.1717 1.1759
2401.578 1.1735 1.1034 1.2202 1.4002 1.2253 1.07 1.1932 1.2095 1.2944 1.1874
2420.867 1.4164 1.841 1.6103 1.3875 1.448 1.5426 1.5314 1.3556 1.524 1.6349
2440.157 1.4621 1.5723 1.3982 1.3823 1.5276 1.4583 1.4058 1.3928 1.4372 1.4879
2459.447 1.2647 1.2027 1.4428 1.6053 1.2866 1.1076 1.3656 1.4802 1.2274 1.0944
2478.737 1.4523 1.4322 1.167 1.2431 1.3436 1.2268 1.3973 1.3213 1.2237 1.3816
2498.026 1.1592 1.1705 1.4342 1.5194 1.3938 1.28 1.4234 1.4335 1.3067 1.2438
2517.316 1.4298 1.3622 1.054 0.8608 0.99939 1.2199 1.197 1.2214 1.3077 1.4762
2536.606 1.476 1.2076 1.1865 1.3267 1.2405 1.4303 1.6515 1.6148 1.447 1.2283
2555.896 1.2886 1.4097 1.2066 1.116 1.1994 1.3686 1.5047 1.4787 1.1676 1.1701
2575.186 1.447 1.3732 1.3728 1.3154 1.2267 1.4489 1.5531 1.334 1.5079 1.6828
2594.475 1.7832 1.964 1.832 1.7409 1.7239 1.714 1.587 1.521 1.5535 1.4616
2613.765 1.5332 1.6656 1.8923 1.984 1.7038 1.5539 1.586 1.5059 1.741 1.954
2633.055 1.8138 1.8446 1.974 1.964 1.8117 1.8645 1.954 1.8275 1.8115 1.7683
2652.345 1.8427 1.954 1.8328 1.7168 1.9214 2.014 1.8985 1.8845 1.7741 1.954
2671.634 1.954 1.8247 2.034 2.214 2.234 2.104 1.7666 1.5452 1.78 1.954
2690.924 1.8858 2.014 1.994 2.064 2.264 2.274 2.124 1.944 1.8613 1.6762
2710.214 1.974 2.374 2.354 2.324 2.474 2.674 2.814 2.514 2.094 2.484
2729.504 2.914 2.854 2.634 2.374 2.564 2.764 2.794 3.044 3.004 3.034
2748.794 3.304 3.454 3.504 3.414 3.254 3.164 3.434 3.554 3.394 3.514
2768.083 3.654 3.904 4.084 4.224 4.414 4.254 4.254 4.954 5.344 5.394
2787.373 5.544 5.904 6.314 6.494 6.884 7.144 7.274 7.774 8.544 9.194
2806.663 9.564 10.084 10.364 10.544 11.184 11.624 11.784 12.304 13.184 13.694
2825.953 14.004 14.394 14.914 15.444 15.434 15.094 15.024 15.284 15.244 15.124
2845.242 14.964 14.764 15.254 15.494 15.114 14.964 15.114 15.084 14.954 15.124
2864.532 15.604 15.964 16.114 16.674 16.644 16.324 16.294 16.094 16.214 16.454
2883.822 16.504 16.544 16.254 15.744 15.714 15.524 15.434 15.774 16.154 16.164
2903.112 16.204 16.384 16.684 16.904 16.744 16.784 17.004 17.644 18.174 18.184
2922.401 18.324 18.674 19.044 19.534 19.794 19.964 19.844 19.644 20.124 20.664
2941.691 20.904 20.674 20.594 21.114 21.354 21.704 22.424 22.604 22.854 23.114
2960.981 23.464 24.274 24.664 24.894 24.954 25.164 25.344 25.014 24.544 24.164
2980.271 23.924 22.414 20.444 19.414 18.194 16.994 15.884 14.274 12.874 11.794
2999.561 11.004 10.124 8.964 8.044 7.554 7.164 6.514 6.164 6.334 6.114
3018.850 5.474 5.174 4.804 4.304 4.314 4.514 4.484 4.214 4.144 4.034
3038.140 3.704 3.094 2.684 3.374 3.484 3.044 3.084 3.054 2.964 2.924
3057.430 2.844 2.994 3.164 3.064 2.934 2.684 2.664 2.664 2.824 2.654
3076.720 2.364 2.774 2.774 2.264 1.8656 1.974 2.014 2.084 1.944 1.974
3096.009 2.324 1.944 1.5337 1.652 1.7683 1.6254 1.487 1.3326 1.408 1.7136
3115.299 1.693 1.4933 1.5446 1.3031 1.3429 1.259 1.1459 1.4053 1.4244 1.4455
3134.589 1.1626 1.0717 1.4826 1.3843 1.0482 1.1265 1.3244 1.4394 1.6257 1.6056
3153.879 1.8536 1.7741 1.3036 1.0561 0.575 0.792 1.2635 1.371 1.1547 0.777
3173.169 1.1281 0.738 0.276 0.97175 1.2385 1.2829 1.4504 1.6914 1.5816 0.92647
3192.458 0.707 0.627 0.588 0.97514 1.02322 0.8999 0.98654 1.2483 1.1993 1.2125
3211.748 0.8731 0.337 0.58 0.608 0.818 1.1581 1.02819 1.2232 0.878 0.8411
3231.038 1.159 1.1318 1.00811 0.8634 1.2406 1.5284 1.3821 1.1327 1.09 1.3159
3250.328 1.3245 0.8964 0.638 0.8884 1.1705 1.0454 1.1383 0.98199 0.938968 1.394
3269.617 0.781 0.759 0.81 0.41 0.637 0.581 0.661 1.222 1.2419 0.96797
3288.907 1.348 1.2171 1.1227 1.5089 1.31 0.671 0.278 0.413 0.631 0.639
3308.197 0.723 0.806 1.1351 0.93117 0.805 0.8386 0.585 0.8915 0.942472 0.671
3327.487 0.73 0.741 0.821 0.8886 0.97874 1.5201 1.7089 1.5349 1.2004 1.3328
3346.777 1.6134 1.4106 1.485 1.6322 1.554 1.5978 1.5152 1.566 1.4188 1.441
3366.066 1.6755 1.3997 1.5567 1.6772 1.2434 1.534 2.054 2.124 2.184 1.964
3385.356 1.8785 1.739 1.8717 2.074 1.8379 1.8064 1.8642 1.8629 2.114 2.414
3404.646 2.264 2.044 2.254 2.274 2.474 2.534 2.464 2.804 3.134 3.144
3423.936 2.924 3.074 3.104 3.164 3.204 3.014 3.474 3.894 3.884 4.164
3443.225 4.434 4.834 5.554 5.634 5.814 6.024 6.154 6.414 6.024 5.984
3462.515 6.334 6.084 5.464 4.564 4.014 3.984 3.974 3.684 3.274 3.164
3481.805 2.824 2.324 1.984 1.9297 1.974 2.004 1.879 1.5829 1.2801 0.96265
3501.095 0.794 0.651 0.777 1.1779 1.2198 1.2339 1.3353 1.4566 1.3191 1.0871
3520.385 1.3371 1.552 1.2616 0.776 0.793 0.443 0.546 1.2121 1.0737 1.2795
3539.674 1.2922 0.8363 0.94817 0.8806 0.803 0.98526 0.8699 0.768 0.92788 0.8905
3558.964 1.2462 1.1685 0.524 0.458 0.807 0.82 0.542 0.793 1.1309 0.715
3578.254 0 0.31 0.765 0.641 0.940634 1.4996 1.1776 0.9179 0.721 0.814
3597.544 0.797 0.78 0.96767 0.8889 0.8792 1.0635 1.4458 1.3779 1.02391 0.9025
3616.833 1.1978 0.9164 0.7 0.631 0.446 0.396 0.436 0.8717 1.1072 1.0597
3636.123 0.9163 0.61 0.507 0.512 0.702 1.0926 0.8887 0.668 0.8402 0.795
3655.413 0.867 0.457 0.188 0.687 0.828 0.739 0.816 0.8887 1.03215 1.2128
3674.703 1.01219 0.709 0.917 1.02758 0.754 0.612 0.816 1.4622 1.6459 1.4658
3693.993 1.2846 1.2418 1.1509 0.841 0.96223 1.2009 1.6503 1.5885 1.1754 1.1199
3713.282 0.8935 0.8507 1.4018 1.588 1.3786 1.2371 0.783 0.772 1.1162 1.1502
3732.572 0.9008 1.02181 1.0467 0.683 0.469 0.53 0.763 1.02034 1.1732 1.03329
3751.862 0.8869 1.0434 1.2564 1.0773 0.526 0.515 0.629 0.8823 1.1972 1.3966
3771.152 1.3686 1.1059 1.02191 0.9601 1.0164 1.205 1.2782 1.2475 1.202 1.302
3790.441 1.2014 0.92788 1.02894 0.623 0.347 0.293 0.036 0.77 1.179 1.00378
3809.731 1.3651 1.3364 1.3275 1.1854 0.94866 0.666 0.589 1.1154 1.499 1.359
3829.021 0.9172 1.4195 1.4386 0.636 0.299 0.143 0.637 0.774 0.69 1.3522
3848.311 1.3053 0.73 0.272 0.295 0.93733 1.3549 1.3723 1.2775 1.1715 1.00471
3867.601 1.0371 1.0697 1.0456 1.1219 0.712 0.322 0.676 0.9049 1.0594 1.055
3886.890 0.95935 1.115 1.0961 0.99943 1.3135 1.4044 0.99023 0.809 0.415 0.452
3906.180 1.1679 1.379 1.1449 1.3288 1.3554 0.778 0.634 0.665 0.755 0.9443
3925.470 1.0685 1.2151 1.5594 1.9284 1.6655 1.1354 0.561 0.536 0.831 0.74
3944.760 1.1345 1.1658 0.55 0.714 0.8935 0.95948 1.4728 1.5032 1.1313 0.496
3964.049 0.182 0.64 1.2715 1.5593 1.2827 1.4073 0.8649 0.435 1.2137 1.3274
3983.339 1.1052 1.5146 1.4252 1.3819 1.507 1.4342 1.1197 0.462 0.524 0.804
##END=
