##TITLE=4.4'-Diacetylbibenzyl
##JCAMP-DX=4.24
##DATA TYPE=INFRARED SPECTRUM
##ORIGIN=EPA-IR VAPOR PHASE LIBRARY
##OWNER=SRD/NIST
Collection (C) 2018 copyright by the U.S. Secretary of Commerce
on behalf of the United States of America. All rights reserved.
##CAS REGISTRY NO=793-06-6
##MOLFORM=C 18 H 18 O 2
##$NIST SOURCE=MSDC-IR
##STATE=gas
##XUNITS=1/CM
##YUNITS=ABSORBANCE
##XFACTOR=1.
##YFACTOR=0.001
##DELTAX=1.92898
##FIRSTX=549.8
##LASTX=4000.7
##FIRSTY=1.1774
##MAXX=4000.7
##MINX=549.759
##MAXY=0.01876
##MINY=0
##NPOINTS=1790
##XYDATA=(X++(Y..Y))
549.759 1.1774 1.2743 1.63 1.58 1.57 1.51 1.39 1.94 2.23 2.15
569.049 2.4 2.56 2.26 1.93 1.73 1.62 1.34 1.1108 1.54 1.99
588.339 2 2.08 2.57 2.99 2.89 2.78 2.52 2.1 1.81 1.59
607.628 1.51 1.2191 0.9456 0.8601 1.2464 1.42 0.9368 0.8666 0.8408 0.7623
626.918 0.7892 0.6977 0.76 0.8377 0.9303 0.9284 0.6793 0.662 0.8422 1.0205
646.208 1.1808 1.2375 1.1844 1.217 1.41 1.2113 1.1383 1.41 1.37 1.2634
665.498 1.51 1.6 1.54 1.58 1.2233 1.069 1.0956 1.0979 1.0657 0.7832
684.787 0.6114 0.6815 0.7034 0.5208 0.39454 0.5085 0.5764 0.6379 0.5614 0.4343
704.077 0.2951 0.2323 0.5334 0.592 0.6403 0.7223 0.618 0.5089 0.4739 0.5449
723.367 0.5293 0.6133 0.5794 0.36893 0.34149 0.4871 0.5889 0.5809 0.2612 0.2366
742.657 0.479 0.41593 0.4501 0.5702 0.6321 0.4717 0.4625 0.5204 0.5433 0.41214
761.947 0.5182 0.7278 0.6431 0.7201 0.79 0.65 0.4332 0.39903 0.5552 0.7572
781.236 0.7958 0.7841 0.7529 0.5825 0.5678 0.8154 1.011 0.982 0.9812 1.0767
800.526 1.1089 1.1627 1.34 1.64 1.83 2.04 2.35 2.73 3.02 3.23
819.816 3.29 3.05 2.82 2.61 2.44 2.32 2.21 2.07 1.96 1.93
839.106 1.9 1.77 1.49 1.44 1.48 1.34 1.3079 1.28 1.1646 0.985
858.395 0.8462 0.814 0.6654 0.5925 0.706 0.6741 0.5701 0.6565 0.6431 0.5625
877.685 0.5249 0.6224 0.7621 0.7855 0.6823 0.7019 0.8757 0.8721 0.6934 0.6585
896.975 0.6824 0.6492 0.6083 0.7165 0.7959 0.7338 0.738 0.748 0.8069 0.9175
916.265 0.8494 0.8063 0.8612 0.7888 0.9112 0.9458 0.8514 0.971 1.142 1.1447
935.555 1.0839 1.1541 1.48 1.81 2.01 2.3 2.69 3.05 3.32 3.33
954.844 3.1 2.83 2.49 2.02 1.59 1.39 1.2199 1.2263 1.1705 1.0629
974.134 1.0852 1.0224 0.9955 0.8899 0.8942 1.1004 1.0164 0.874 0.9543 1.0997
993.424 1.116 0.9693 1.0331 1.0451 0.864 0.9803 0.9331 0.8896 1.2716 1.42
1012.714 1.62 1.98 2.15 1.96 1.68 1.42 1.1798 1.0039 0.7327 0.9439
1032.003 0.9628 0.6613 0.6429 0.9008 0.8484 0.5688 0.4415 0.5864 0.8468 0.754
1051.293 0.6886 0.5248 0.437 0.5741 0.9605 1.1939 1.2217 1.2873 1.2651 1.2883
1070.583 1.35 1.51 1.3175 0.7431 0.5451 0.5055 0.6247 1.0906 0.8736 0.7388
1089.873 1.0616 0.9814 0.923 0.838 0.9904 1.2742 0.9794 1.233 1.44 1.0359
1109.163 0.9938 0.6768 0.4863 0.775 0.6829 0.7746 0.7021 0.7586 0.6738 0.6134
1128.452 1.0113 0.8497 0.7721 0.6265 0.6242 0.7353 0.7114 0.7288 0.9194 1.0614
1147.742 0.6349 0.667 1.0301 0.9641 0.8234 0.8999 0.9746 0.8804 0.7826 0.8834
1167.032 1.0628 1.185 1.1495 1.2811 1.63 1.87 2.72 3.64 4.02 3.82
1186.322 3.37 2.89 2.38 2.05 1.85 1.73 1.62 1.48 1.1513 1.0774
1205.611 1.1879 1.2359 1.13 0.9299 1.0335 1.1673 1.2092 1.65 2 1.93
1224.901 2 2.41 2.84 2.96 3.27 3.96 4.17 4.21 4.53 5.05
1244.191 5.51 5.99 6.84 8.14 9.9 12.1 14.45 16.24 17.33 17.38
1263.481 15.87 13.33 10.62 8.31 6.39 4.85 3.86 3.33 3.07 2.82
1282.771 2.59 2.41 2.21 2 1.96 1.92 1.82 1.81 1.66 1.52
1302.060 1.5 1.53 1.61 1.46 1.2819 1.2509 1.1489 1.103 1.1066 1.069
1321.350 1.0442 1.1199 1.1231 1.0761 1.139 1.1965 1.2716 1.38 1.51 1.59
1340.640 1.71 1.87 1.99 2.2 2.44 2.82 3.36 3.97 4.7 5.41
1359.930 5.83 5.75 5.3 4.65 3.87 3.16 2.63 2.25 1.99 1.78
1379.219 1.6 1.53 1.48 1.41 1.34 1.38 1.47 1.52 1.6 1.7
1398.509 1.76 1.92 2.13 2.35 2.59 2.81 2.88 2.79 2.66 2.48
1417.799 2.27 2.04 1.83 1.73 1.7 1.63 1.6 1.63 1.57 1.55
1437.089 1.55 1.49 1.56 1.59 1.54 1.55 1.52 1.43 1.3186 1.1994
1456.378 1.1219 1.08 1.02 0.9635 0.8896 0.8685 0.8667 0.7985 0.7582 0.7748
1475.668 0.789 0.7672 0.7699 0.8242 0.8278 0.8224 0.8086 0.7682 0.7286 0.7009
1494.958 0.7006 0.7755 0.8696 0.8301 0.7273 0.6816 0.7491 0.8345 0.8223 0.7375
1514.248 0.7314 0.7282 0.7314 0.8069 0.7854 0.7451 0.7834 0.8269 0.8201 0.7488
1533.538 0.7321 0.8046 0.8488 0.8548 0.8539 0.8034 0.8723 0.9921 1.0195 1.0262
1552.827 0.9613 0.9646 1.012 1.1134 1.2422 1.2699 1.34 1.45 1.54 1.52
1572.117 1.5 1.44 1.35 1.2986 1.306 1.39 1.39 1.43 1.58 1.78
1591.407 2.04 2.45 2.95 3.44 4.01 4.68 5.28 5.64 5.64 5.29
1610.697 4.78 4.16 3.39 2.74 2.3 1.89 1.62 1.49 1.39 1.3001
1629.986 1.2424 1.1727 1.1566 1.1929 1.1777 1.133 1.0649 1.0609 1.1653 1.1916
1649.276 1.0964 1.0788 1.1779 1.2403 1.2834 1.39 1.44 1.41 1.5 1.64
1668.566 1.68 1.75 1.87 2.01 2.23 2.45 2.76 3.09 3.43 3.98
1687.856 4.7 5.49 6.66 8.42 10.78 13.54 16.25 18.31 18.76 17.57
1707.146 14.97 11.99 9.41 7.45 5.96 4.91 4.17 3.56 3.1 2.8
1726.435 2.46 2.14 1.9 1.68 1.55 1.5 1.47 1.39 1.3132 1.2855
1745.725 1.2468 1.2247 1.1354 1.0832 1.1038 1.1211 1.1202 1.0596 1.0048 0.9356
1765.015 0.8531 0.7886 0.747 0.722 0.703 0.7302 0.6918 0.6407 0.642 0.6522
1784.305 0.6889 0.6677 0.6603 0.6506 0.6145 0.617 0.6016 0.6472 0.6454 0.603
1803.594 0.6974 0.75 0.7067 0.6648 0.6436 0.6159 0.5926 0.5686 0.5188 0.5017
1822.884 0.5699 0.5496 0.5829 0.5787 0.5622 0.5979 0.5522 0.5639 0.5601 0.513
1842.174 0.4856 0.5088 0.5363 0.5814 0.5521 0.5374 0.561 0.547 0.5255 0.4841
1861.464 0.4819 0.4719 0.4616 0.4688 0.4701 0.5755 0.6099 0.5612 0.5461 0.4915
1880.754 0.5455 0.593 0.5794 0.5952 0.574 0.6235 0.6669 0.6863 0.7394 0.6882
1900.043 0.6255 0.6362 0.6281 0.6107 0.6544 0.675 0.7124 0.7329 0.6728 0.6031
1919.333 0.599 0.6765 0.6812 0.664 0.6985 0.7083 0.6565 0.6085 0.6475 0.6183
1938.623 0.6089 0.6058 0.5785 0.6053 0.5976 0.6017 0.6049 0.6011 0.6306 0.6598
1957.913 0.6491 0.6004 0.5029 0.4916 0.551 0.5434 0.5684 0.575 0.5319 0.5599
1977.202 0.5675 0.5325 0.5363 0.5552 0.494 0.4563 0.54 0.5367 0.4226 0.4407
1996.492 0.5314 0.5332 0.5071 0.5328 0.5757 0.538 0.4846 0.4382 0.40484 0.41127
2015.782 0.4837 0.5027 0.5274 0.5618 0.5347 0.5191 0.5278 0.5568 0.5539 0.588
2035.072 0.4901 0.4388 0.4433 0.4264 0.5139 0.4631 0.37825 0.4546 0.5407 0.4952
2054.362 0.5006 0.5807 0.5846 0.5043 0.4402 0.4503 0.4892 0.5395 0.5702 0.5572
2073.651 0.4878 0.4608 0.5033 0.4693 0.4409 0.4638 0.4918 0.5693 0.5567 0.4806
2092.941 0.4599 0.4315 0.4664 0.4937 0.4732 0.4332 0.4586 0.5224 0.491 0.4817
2112.231 0.4451 0.4953 0.4948 0.4416 0.5042 0.5451 0.5705 0.551 0.4919 0.496
2131.521 0.5143 0.4769 0.5139 0.5391 0.5043 0.5291 0.6032 0.5583 0.4699 0.4753
2150.810 0.4899 0.5107 0.4884 0.4942 0.527 0.5362 0.4992 0.4335 0.4922 0.5425
2170.100 0.4824 0.5292 0.5836 0.509 0.4481 0.39531 0.4451 0.5357 0.5345 0.5241
2189.390 0.5637 0.5928 0.5598 0.5123 0.4833 0.4884 0.461 0.4784 0.5215 0.5134
2208.680 0.4684 0.4946 0.5358 0.467 0.4459 0.4877 0.4979 0.477 0.471 0.4905
2227.970 0.4601 0.4795 0.5079 0.496 0.5218 0.5282 0.5358 0.5561 0.5478 0.521
2247.259 0.4703 0.4767 0.5336 0.4415 0.41162 0.421 0.36915 0.38618 0.39628 0.39686
2266.549 0.474 0.4919 0.4871 0.5041 0.4489 0.41482 0.40839 0.38663 0.35325 0.4358
2285.839 0.4899 0.4363 0.4552 0.504 0.5008 0.5484 0.5814 0.5468 0.5169 0.5454
2305.129 0.5951 0.572 0.5677 0.5289 0.5024 0.589 0.6077 0.52 0.5112 0.5347
2324.418 0.5387 0.5964 0.5441 0.4561 0.4925 0.4973 0.4732 0.5459 0.5188 0.4377
2343.708 0.38769 0.38304 0.5332 0.5292 0.4621 0.4957 0.5071 0.5339 0.5235 0.5498
2362.998 0.5798 0.4811 0.41383 0.4288 0.4656 0.5122 0.5384 0.4887 0.4258 0.40936
2382.288 0.4565 0.4698 0.4832 0.5896 0.5933 0.5469 0.5936 0.592 0.528 0.5409
2401.578 0.5543 0.5379 0.5418 0.4776 0.4502 0.5011 0.4766 0.4272 0.4584 0.4688
2420.867 0.4541 0.4235 0.445 0.502 0.4885 0.4965 0.5214 0.4715 0.39304 0.4388
2440.157 0.4893 0.5172 0.5517 0.5309 0.5432 0.5206 0.4958 0.5006 0.5049 0.4962
2459.447 0.478 0.5381 0.5665 0.5759 0.5142 0.39788 0.39065 0.4754 0.4667 0.4401
2478.737 0.4538 0.5241 0.52 0.40983 0.3927 0.41481 0.4219 0.4566 0.5226 0.5098
2498.026 0.5247 0.5656 0.5301 0.53 0.5487 0.5241 0.5412 0.549 0.5619 0.5749
2517.316 0.5908 0.5763 0.5402 0.573 0.5461 0.4877 0.4737 0.5077 0.5194 0.4464
2536.606 0.4582 0.5248 0.4798 0.45 0.4495 0.4488 0.4854 0.40281 0.34013 0.38595
2555.896 0.40379 0.38585 0.4809 0.5068 0.4752 0.5231 0.4425 0.36892 0.40876 0.4669
2575.186 0.4216 0.40367 0.4934 0.5047 0.5201 0.5484 0.5789 0.54 0.5025 0.5898
2594.475 0.6026 0.5642 0.5995 0.5542 0.5416 0.5313 0.5144 0.5008 0.461 0.5338
2613.765 0.5769 0.5517 0.4902 0.4992 0.4856 0.4646 0.4876 0.4497 0.4744 0.5438
2633.055 0.4973 0.4773 0.4631 0.4484 0.525 0.5851 0.6111 0.5447 0.4912 0.4466
2652.345 0.33033 0.38825 0.4236 0.4541 0.515 0.438 0.4484 0.4625 0.40343 0.4477
2671.634 0.5097 0.5638 0.5171 0.4565 0.4639 0.37365 0.39313 0.5465 0.4972 0.4827
2690.924 0.559 0.4908 0.5104 0.5531 0.4768 0.4488 0.4673 0.39387 0.36718 0.423
2710.214 0.5185 0.5303 0.5475 0.4741 0.41257 0.39988 0.33214 0.35144 0.37829 0.4749
2729.504 0.466 0.4397 0.4221 0.3708 0.4432 0.4564 0.46 0.40427 0.38951 0.4667
2748.794 0.4555 0.4668 0.5107 0.4889 0.4777 0.5394 0.5378 0.4475 0.4382 0.477
2768.083 0.4315 0.4231 0.4891 0.5215 0.5119 0.4501 0.4726 0.5207 0.4693 0.4869
2787.373 0.5834 0.6508 0.5563 0.4956 0.5048 0.4579 0.40196 0.4609 0.537 0.5063
2806.663 0.492 0.5477 0.5418 0.5166 0.5799 0.572 0.4835 0.4564 0.5117 0.623
2825.953 0.6794 0.6167 0.6001 0.6442 0.658 0.603 0.6057 0.6572 0.6626 0.7083
2845.242 0.6856 0.7235 0.7624 0.8316 0.8603 0.9021 0.9769 0.9297 0.9931 0.9988
2864.532 1.1259 1.2491 1.2326 1.3059 1.1975 1.0681 1.1127 0.9419 0.6891 0.7026
2883.822 0.7799 0.8789 0.8444 0.7339 0.7158 0.5966 0.6763 0.8798 0.9756 0.9498
2903.112 0.8598 0.812 0.8769 1.0569 1.0592 1.0264 1.1313 1.1907 1.2777 1.39
2922.401 1.59 1.82 1.91 1.96 2.03 2.17 2.29 2.35 2.32 2.27
2941.691 2.32 2.28 2.23 2.33 2.39 2.22 2.05 2.01 1.81 1.51
2960.981 1.34 1.2296 1.1204 1.0653 1.1458 1.1767 1.0697 0.9872 1.0803 1.1142
2980.271 0.982 0.8857 0.9121 0.9713 0.8469 0.8335 1.0102 1.091 1.0971 1.1688
2999.561 1.2471 1.2678 1.35 1.37 1.3111 1.42 1.64 1.71 1.72 1.66
3018.850 1.53 1.53 1.64 1.65 1.72 1.94 2 2.11 2.23 2.15
3038.140 2.08 1.86 1.63 1.51 1.45 1.42 1.34 1.2781 1.2025 1.2369
3057.430 1.2672 1.2048 1.2288 1.2257 1.1875 1.2117 1.1338 1.0599 1.1583 1.1825
3076.720 1.1784 1.2173 1.3043 1.37 1.3167 1.35 1.38 1.3001 1.33 1.2127
3096.009 0.8893 0.7961 0.9056 0.9405 0.9031 0.861 0.7958 0.6352 0.6282 0.6716
3115.299 0.5756 0.587 0.5745 0.5398 0.7148 0.6738 0.4874 0.5337 0.5787 0.5534
3134.589 0.5123 0.6217 0.7758 0.6962 0.4626 0.34553 0.34421 0.2936 0.308 0.39712
3153.879 0.4212 0.39758 0.3765 0.4234 0.40645 0.2903 0.2892 0.38574 0.4621 0.41784
3173.169 0.31105 0.33289 0.35808 0.2638 0.34824 0.4664 0.4709 0.5201 0.39892 0.3186
3192.458 0.4837 0.4882 0.2812 0.2601 0.35821 0.4457 0.4202 0.40882 0.4643 0.4733
3211.748 0.4913 0.4727 0.2878 0.34577 0.4377 0.34557 0.38486 0.3066 0.4204 0.4847
3231.038 0.33938 0.34887 0.319041 0.23 0.2646 0.3882 0.41818 0.37512 0.39923 0.5007
3250.328 0.41871 0.2309 0.3002 0.3047 0.2454 0.31282 0.40707 0.469 0.38759 0.4516
3269.617 0.5121 0.35738 0.2453 0.34965 0.33302 0.203 0.2466 0.31515 0.2962 0.215
3288.907 0.2452 0.2835 0.3003 0.31872 0.2849 0.3061 0.40684 0.5077 0.5086 0.5215
3308.197 0.4481 0.2537 0.2736 0.36405 0.34055 0.34662 0.4323 0.36079 0.2529 0.34907
3327.487 0.4746 0.433 0.4341 0.36965 0.213 0.139 0.2768 0.4544 0.41145 0.4405
3346.777 0.4301 0.3762 0.2773 0.207 0.37696 0.3426 0.34903 0.4765 0.4958 0.5205
3366.066 0.2904 0.2534 0.38224 0.41107 0.4774 0.5257 0.5559 0.582 0.6153 0.6829
3385.356 0.74 0.6543 0.7587 0.7437 0.5507 0.5473 0.5262 0.4671 0.41713 0.4776
3404.646 0.4744 0.5086 0.5367 0.5275 0.5825 0.5909 0.39882 0.34573 0.4232 0.3399
3423.936 0.4972 0.6591 0.5011 0.38821 0.37014 0.2627 0.3005 0.34961 0.41417 0.39291
3443.225 0.39421 0.38456 0.2804 0.4233 0.4574 0.39756 0.2548 0.152 0.40365 0.5801
3462.515 0.41671 0.217 0.2403 0.33989 0.36559 0.39705 0.4903 0.4759 0.454 0.5177
3481.805 0.39181 0.35428 0.41244 0.4234 0.4865 0.37194 0.3128 0.2305 0.18 0.2667
3501.095 0.320915 0.2736 0.183 0.2846 0.248 0.2924 0.4571 0.4347 0.4373 0.4307
3520.385 0.41434 0.4298 0.36606 0.2292 0.2441 0.36709 0.4247 0.39456 0.40528 0.38983
3539.674 0.38875 0.516 0.434 0.2908 0.277 0.3361 0.2955 0.164 0.166 0.214
3558.964 0.3093 0.35024 0.326146 0.38455 0.36281 0.2835 0.2949 0.3739 0.2639 0.161
3578.254 0.2448 0.3092 0.2738 0.155 0.12 0.2267 0.2554 0.184 0.2232 0.2586
3597.544 0.2404 0.212 0.39775 0.4518 0.322063 0.32156 0.2454 0.135 0.2869 0.34549
3616.833 0.2212 0.2928 0.2886 0.2574 0.2928 0.2673 0.141 0.3069 0.4603 0.40457
3636.123 0.2943 0.231 0.324057 0.3717 0.328856 0.37744 0.4202 0.36715 0.4427 0.4525
3655.413 0.4298 0.38564 0.37849 0.34645 0.2965 0.2741 0.2897 0.327242 0.322709 0.35862
3674.703 0.40011 0.3745 0.4419 0.37006 0.33907 0.4286 0.38396 0.4612 0.421 0.39941
3693.993 0.4556 0.34574 0.2588 0.248 0.199 0.193 0.2744 0.327622 0.35136 0.36369
3713.282 0.37091 0.2772 0.2772 0.36865 0.325368 0.33508 0.38933 0.36476 0.31511 0.37083
3732.572 0.41072 0.2982 0.206 0.3094 0.36645 0.2209 0.33807 0.4374 0.33204 0.323129
3751.862 0.2759 0.2617 0.40831 0.4235 0.215 0.202 0.38389 0.34624 0.2859 0.219
3771.152 0.084 0.196 0.3546 0.306 0.2618 0.2695 0.2633 0.31829 0.3051 0.35459
3790.441 0.322972 0.2481 0.35005 0.4351 0.4487 0.41375 0.2535 0.2788 0.41551 0.37665
3809.731 0.34984 0.36601 0.145 0.092 0.33299 0.265 0.2 0.2 0.2744 0.326201
3829.021 0.31657 0.33017 0.2649 0.3016 0.2842 0.2806 0.3001 0.169 0.178 0.2637
3848.311 0.36391 0.4523 0.4368 0.40536 0.39475 0.326553 0.37453 0.41122 0.2973 0.2
3867.601 0.324578 0.41055 0.2911 0.31987 0.214 0.032 0.196 0.31066 0.193 0.152
3886.890 0.158 0.2767 0.2853 0.179 0.2628 0.2582 0.328641 0.4732 0.4719 0.5395
3906.180 0.3017 0.2638 0.40153 0.2809 0.36848 0.4855 0.2769 0.203 0.2627 0.085
3925.470 0 0.124 0.2462 0.2331 0.246 0.2487 0.304 0.474 0.4787 0.4691
3944.760 0.40724 0.39496 0.33291 0.2255 0.2621 0.38883 0.4919 0.40795 0.2498 0.31575
3964.049 0.319447 0.3074 0.2813 0.169 0.3008 0.35891 0.197 0.133 0.31706 0.4287
3983.339 0.33771 0.2211 0.2416 0.219 0.109 0.174 0.2966 0.2673 0.127 0.009
##END=
