##TITLE=p-Anisic anhydride
##JCAMP-DX=4.24
##DATA TYPE=INFRARED SPECTRUM
##ORIGIN=EPA-IR VAPOR PHASE LIBRARY
##OWNER=SRD/NIST
Collection (C) 2018 copyright by the U.S. Secretary of Commerce
on behalf of the United States of America. All rights reserved.
##CAS REGISTRY NO=794-94-5
##MOLFORM=C 16 H 14 O 5
##$NIST SOURCE=MSDC-IR
##STATE=gas
##XUNITS=1/CM
##YUNITS=ABSORBANCE
##XFACTOR=1.
##YFACTOR=0.001
##DELTAX=3.85796
##FIRSTX=551.7
##LASTX=4000.7
##FIRSTY=3.21
##MAXX=4000.7
##MINX=551.688
##MAXY=0.1351
##MINY=0.000761
##NPOINTS=895
##XYDATA=(X++(Y..Y))
551.688 3.21 3.64 4.17 4.77 5.65 7.01 8.91 11.26 13.85 16.15
590.268 16.98 15.66 12.87 10.1 8.16 6.94 6.07 5.29 4.76 4.66
628.847 4.87 4.98 4.62 4.09 3.87 3.76 3.73 3.9 4.29 4.76
667.427 5.23 5.84 6.57 7.3 7.63 7.36 6.58 5.63 4.89 4.31
706.006 3.83 3.5 3.37 3.35 3.41 3.59 3.71 3.72 3.73 3.9
744.586 4.37 5.1 6.17 7.72 9.39 9.96 9.13 7.96 7.22 6.75
783.165 6.37 6.24 6.39 6.71 7.18 7.72 8.09 8.37 8.72 9.36
821.745 10.63 12.5 14.72 17.03 18.78 19.08 17.41 14.28 11.14 8.95
860.324 7.68 6.83 6.18 5.79 5.51 5.34 5.26 5.29 5.38 5.38
898.904 5.48 5.71 5.96 6.25 6.63 7.12 7.79 8.61 9.73 11.18
937.484 13.02 15.44 18.57 22.52 27.66 34.57 43.5 54.3 66.6 79.45
976.063 90.74 97.84 99.42 96.57 92.08 88.48 85.29 78.06 65.93 60.11
1014.643 69.38 85.66 97.14 101.43 100.86 97.44 92.52 87.1 81.75 75.59
1053.222 67.81 58.54 48.36 38.46 30.02 23.46 18.79 15.61 13.41 11.75
1091.802 10.44 9.61 9.11 8.8 8.83 9.04 9.11 8.7 8.17 8
1130.381 8.26 8.99 10.41 12.8 17.15 25.91 46.71 90.24 135.1 129.06
1168.961 84.57 51.88 37.56 30.42 25.85 22.83 22.43 25.51 33.69 48.92
1207.540 70.85 92.82 105.85 111.12 113.43 105.41 83.22 60.91 49.48 47.8
1246.120 52.75 62.62 74.31 80.73 74.95 59.51 44.77 35.5 30.15 26.59
1284.699 24.09 22.92 23.29 24.87 26.34 25.9 23.41 20.54 18.21 16.04
1323.279 13.69 11.3 9.29 7.87 6.9 6.22 5.72 5.32 5.01 4.74
1361.859 4.51 4.35 4.22 4.06 3.89 3.73 3.6 3.58 3.62 3.76
1400.438 4.08 4.64 5.56 6.88 8.03 8.09 7.1 6.16 5.9 6.31
1439.018 7.42 9.05 10.25 10.23 9.79 10.08 11.18 12.61 13.29 12.33
1477.597 10.54 9.39 9.33 10.41 12.96 17.9 26.71 38.94 48.5 44.67
1516.177 30.95 18.82 12.12 8.76 6.97 5.99 5.51 5.32 5.37 5.6
1554.756 6 6.67 7.8 9.53 12.25 16.03 20.76 24.84 27.73 31.82
1593.336 40.08 52.75 66.81 75.3 70.84 55.43 38.28 25.74 17.85 12.72
1631.915 9.56 7.58 6.38 5.66 5.16 4.8 4.5 4.2 3.94 3.74
1670.495 3.59 3.49 3.45 3.43 3.48 3.57 3.7 3.91 4.28 4.79
1709.075 5.43 6.24 7.42 9.17 11.59 15.04 20.81 30.7 42.59 49.15
1747.654 44.09 32.71 23.7 18.81 16.58 15.9 16.4 18.21 21.86 28.44
1786.234 38.9 52.05 63.19 66.2 60.55 50.5 40.03 30.67 22.87 16.77
1824.813 12.38 9.38 7.4 6.09 5.24 4.66 4.26 3.97 3.74 3.6
1863.393 3.48 3.37 3.26 3.21 3.18 3.13 3.11 3.1 3.1 3.15
1901.972 3.26 3.34 3.35 3.25 3.05 2.9 2.79 2.72 2.67 2.57
1940.552 2.43 2.35 2.33 2.34 2.37 2.35 2.26 2.21 2.18 2.16
1979.131 2.16 2.19 2.21 2.2 2.19 2.17 2.17 2.15 2.14 2.14
2017.711 2.14 2.17 2.17 2.19 2.24 2.33 2.45 2.57 2.69 2.78
2056.291 2.8 2.75 2.65 2.55 2.41 2.25 2.11 1.96 1.83 1.76
2094.870 1.69 1.61 1.52 1.45 1.37 1.29 1.25 1.18 1.11 1.07
2133.450 1.03 0.9895 0.9427 0.8955 0.8554 0.8199 0.8096 0.8253 0.8319 0.8225
2172.029 0.8302 0.8366 0.8416 0.8463 0.8546 0.8677 0.8703 0.8699 0.8925 0.9036
2210.609 0.889 0.8892 0.8963 0.9058 0.9285 0.9439 0.9455 0.9568 0.9677 0.9645
2249.188 0.9449 0.9305 0.9323 0.9335 0.9405 0.9747 1.03 1.05 1.08 1.12
2287.768 1.15 1.18 1.18 1.17 1.13 1.09 1.06 1.02 0.9889 0.9896
2326.347 0.99 0.9636 0.9459 0.9333 0.9015 0.8515 0.8248 0.8161 0.8072 0.7985
2364.927 0.8128 0.8327 0.8346 0.8793 0.9106 0.9356 1 1.06 1.1 1.11
2403.507 1.14 1.19 1.22 1.27 1.31 1.33 1.31 1.27 1.23 1.2
2442.086 1.19 1.15 1.11 1.1 1.12 1.18 1.18 1.19 1.22 1.25
2480.666 1.29 1.29 1.27 1.29 1.31 1.32 1.37 1.41 1.44 1.48
2519.245 1.47 1.45 1.43 1.43 1.49 1.55 1.64 1.74 1.87 2.05
2557.825 2.22 2.3 2.25 2.14 2.03 1.95 1.87 1.78 1.67 1.58
2596.404 1.52 1.48 1.48 1.49 1.46 1.45 1.46 1.41 1.34 1.28
2634.984 1.23 1.17 1.15 1.11 1.04 0.9697 0.9117 0.8997 0.8932 0.8569
2673.563 0.8448 0.8354 0.8481 0.8467 0.8561 0.9079 0.8993 0.897 0.911 0.9417
2712.143 0.9804 1.02 1.05 1.03 1.01 1.01 1.04 1.08 1.12 1.14
2750.722 1.17 1.22 1.28 1.38 1.44 1.45 1.42 1.36 1.33 1.37
2789.302 1.41 1.46 1.51 1.57 1.68 1.84 2.01 2.2 2.44 2.72
2827.882 3.09 3.6 4.37 5.56 7.45 9.46 9.81 8.12 6.09 4.76
2866.461 3.97 3.54 3.33 3.23 3.21 3.29 3.47 3.73 4.04 4.48
2905.041 5.1 5.85 6.54 6.99 7.25 7.34 7.36 7.58 8.28 9.58
2943.620 11.15 12.05 11.95 11.53 11.32 11.12 10.45 9.26 7.9 6.66
2982.200 5.77 5.24 5.01 5.07 5.49 6.4 7.89 10.02 11.8 11.15
3020.779 8.28 5.74 4.44 3.81 3.44 3.25 3.24 3.28 3.3 3.32
3059.359 3.3 3.34 3.54 3.84 4.16 4.63 4.97 4.71 4.01 3.44
3097.938 3.24 3.24 3.15 2.88 2.57 2.28 2.05 1.92 1.8 1.69
3136.518 1.56 1.44 1.44 1.44 1.41 1.44 1.42 1.38 1.32 1.26
3175.098 1.17 1.09 1.11 1.11 1.08 1.06 1.08 1.11 1.11 1.06
3213.677 1.06 1.05 0.9958 0.9761 0.9696 0.9613 0.9468 0.9087 0.894 0.9091
3252.257 0.8829 0.8483 0.8395 0.8417 0.8363 0.7958 0.7617 0.761 0.7966 0.8057
3290.836 0.8228 0.8505 0.8505 0.8417 0.8498 0.8566 0.8664 0.8894 0.8718 0.8691
3329.416 0.8769 0.8813 0.9432 0.9928 0.9654 0.9458 0.9429 0.932 0.9206 0.8782
3367.995 0.8856 0.9119 0.9064 0.9215 0.8959 0.9019 0.9612 0.9638 0.947 0.9278
3406.575 0.8848 0.8821 0.9059 0.9119 0.9196 0.8942 0.8937 0.9122 0.919 0.9474
3445.154 0.9637 0.9848 1 1.08 1.15 1.18 1.26 1.34 1.36 1.36
3483.734 1.35 1.3 1.28 1.24 1.2 1.19 1.2 1.22 1.2 1.19
3522.314 1.17 1.19 1.2 1.18 1.22 1.21 1.09 1.05 1.07 1.1
3560.893 1.21 1.3 1.28 1.25 1.27 1.33 1.36 1.35 1.3 1.27
3599.473 1.24 1.19 1.15 1.13 1.05 1.01 0.9895 0.9818 0.9526 0.9447
3638.052 0.9341 0.8825 0.8549 0.8657 0.8989 0.9299 0.9813 0.9864 0.9473 0.8982
3676.632 0.919 0.9634 0.9571 0.9667 0.9801 0.9618 0.9286 0.8875 0.8625 0.8873
3715.211 0.8949 0.8703 0.873 0.9151 0.9964 1.03 0.9822 0.9619 0.9583 0.9127
3753.791 0.9001 0.9233 0.9121 0.9252 0.927 0.8739 0.9284 0.9624 0.9299 0.8875
3792.370 0.8638 0.9071 0.9084 0.8685 0.8644 0.9139 0.9245 0.8659 0.9184 0.9389
3830.950 0.8886 0.9065 0.9242 0.9756 1.01 1 0.9785 1.02 1.04 1.06
3869.530 1.06 1.03 0.9975 1.01 1.04 1.03 1.04 1.03 0.9879 0.939
3908.109 0.9724 0.9815 0.9735 0.9579 0.905 0.9453 0.9932 0.9598 0.9276 0.9645
3946.689 0.9724 1 1.07 1.05 0.9947 1 1.01 1.01 1 1.06
3985.268 1.13 1.08 1.03 1.02 1.03
##END=
