##TITLE=2,4,6-Trifluorobenzoyl chloride
##JCAMP-DX=4.24
##DATA TYPE=INFRARED SPECTRUM
##ORIGIN=EPA-IR VAPOR PHASE LIBRARY
##OWNER=SRD/NIST
Collection (C) 2018 copyright by the U.S. Secretary of Commerce
on behalf of the United States of America. All rights reserved.
##CAS REGISTRY NO=79538-29-7
##MOLFORM=C 7 H 2 Cl F 3 O
##SOURCE REFERENCE=No.306781 (NIST/EPA/NIH MS Database)
##$NIST SOURCE=MSDC-IR
##STATE=gas
##XUNITS=1/CM
##YUNITS=ABSORBANCE
##XFACTOR=1.
##YFACTOR=0.001
##DELTAX=1.92898
##FIRSTX=549.8
##LASTX=4000.7
##FIRSTY=10.819
##MAXX=4000.7
##MINX=549.759
##MAXY=0.255239
##MINY=0
##NPOINTS=1790
##XYDATA=(X++(Y..Y))
549.759 10.819 10.769 10.499 10.559 10.649 11.459 11.039 11.459 12.829 12.359
569.049 11.869 12.509 13.009 13.449 14.599 14.869 15.979 17.739 20.059 23.849
588.339 29.359 37.789 49.319 62.629 74.049 80.379 85.299 87.739 84.309 79.149
607.628 69.559 54.679 40.809 32.209 29.649 32.629 38.109 44.869 52.669 58.849
626.918 65.509 69.959 63.769 54.629 47.139 37.119 27.209 19.879 14.749 10.999
646.208 8.469 7.209 6.499 5.529 5.109 4.759 4.429 4.659 4.699 4.599
665.498 4.269 4.039 4.379 4.659 4.569 4.629 4.839 4.309 3.519 3.369
684.787 3.279 3.339 3.679 3.529 3.289 3.179 3.069 3.259 3.219 3.009
704.077 2.589 2.199 2.009 1.4908 1.3662 1.729 2.109 1.999 1.939 1.789
723.367 1.4377 1.789 1.959 2.189 2.259 2.369 2.439 2.589 2.829 2.539
742.657 2.289 2.429 2.549 2.179 1.619 1.2897 1.759 2.159 2.229 2.199
761.947 2.189 2.319 2.519 2.509 2.189 2.249 2.509 2.829 3.219 3.399
781.236 3.259 3.649 4.009 3.719 3.939 4.279 4.279 4.269 4.459 5.169
800.526 5.939 6.389 6.839 7.439 8.259 8.739 9.439 10.259 10.439 10.279
819.816 10.259 11.679 14.479 16.559 18.779 22.669 28.679 36.709 45.249 54.909
839.106 65.869 78.029 94.369 115.189 126.049 125.239 129.209 138.999 151.169 164.099
858.395 177.709 192.509 206.399 216.679 221.789 220.659 212.389 196.779 175.759 152.309
877.685 128.859 107.089 87.519 72.069 60.999 53.049 46.719 41.819 38.039 34.499
896.975 31.029 27.579 24.989 22.489 19.539 17.359 15.909 14.549 13.319 12.459
916.265 11.569 10.839 10.469 9.979 9.849 9.919 9.579 9.739 10.289 10.489
935.555 10.349 10.069 9.879 9.939 10.019 9.669 9.259 8.959 8.649 8.159
954.844 7.289 6.529 6.209 6.039 5.859 5.449 5.099 5.079 4.789 4.409
974.134 4.389 4.409 4.719 5.069 5.719 6.909 8.609 11.239 16.079 23.399
993.424 33.099 43.399 49.569 52.559 55.109 54.139 50.699 46.619 38.339 28.599
1012.714 21.569 16.649 13.629 12.119 11.209 10.919 11.609 12.159 13.409 16.319
1032.003 19.419 23.769 30.369 38.329 47.459 59.269 72.659 85.639 96.989 102.989
1051.293 104.299 104.469 103.039 96.209 83.619 67.999 53.079 40.249 29.259 20.929
1070.583 15.539 12.299 9.679 8.599 9.419 10.389 10.189 10.139 8.979 8.219
1089.873 8.669 7.849 7.579 7.719 7.039 6.229 6.739 7.239 7.809 9.749
1109.163 11.699 14.569 19.749 26.779 36.659 52.499 75.959 107.809 143.809 173.869
1128.452 190.079 197.639 198.809 187.239 170.289 143.159 102.719 65.959 42.369 31.469
1147.742 26.659 23.359 21.629 22.799 26.249 29.359 33.449 39.189 45.349 50.819
1167.032 55.949 58.999 59.739 61.959 65.589 67.259 68.259 71.979 78.369 87.149
1186.322 98.729 112.919 126.859 138.209 145.899 150.239 147.499 136.779 121.849 103.729
1205.611 82.889 61.009 42.419 30.779 23.769 19.079 16.569 12.979 11.999 12.659
1224.901 12.129 11.269 10.149 10.649 9.479 9.059 8.979 8.469 8.379 6.929
1244.191 6.019 6.089 6.669 6.669 5.359 4.999 5.419 5.859 6.039 5.509
1263.481 5.349 6.089 6.739 6.699 6.749 6.849 6.809 6.689 6.629 6.429
1282.771 6.299 6.499 6.669 6.539 6.129 5.929 5.709 5.639 5.539 5.169
1302.060 5.029 4.899 4.799 4.989 5.189 5.339 5.539 5.659 5.939 6.189
1321.350 6.259 6.379 6.409 6.409 6.289 6.169 5.949 5.569 5.489 5.429
1340.640 5.449 5.589 5.759 6.299 7.159 8.569 10.419 12.729 15.429 17.879
1359.930 19.739 20.949 21.149 20.249 18.759 16.529 13.449 10.089 7.179 5.289
1379.219 4.239 3.929 3.899 3.759 3.589 3.449 3.479 3.729 3.999 4.279
1398.509 4.889 5.559 6.229 7.119 8.259 9.719 11.439 13.429 16.039 19.039
1417.799 22.199 26.059 30.339 35.339 41.119 47.539 54.859 62.449 70.269 77.349
1437.089 84.599 91.639 98.249 103.899 106.859 106.639 103.199 97.579 91.109 84.469
1456.378 75.409 64.329 54.349 45.549 38.519 33.079 29.439 26.699 24.499 22.589
1475.668 21.369 20.389 20.069 20.809 22.439 24.729 27.749 31.189 34.139 35.579
1494.958 35.869 35.089 33.329 30.639 27.249 23.459 19.799 17.499 15.849 14.609
1514.248 13.919 13.419 12.609 11.999 11.259 10.409 9.949 9.629 9.469 9.359
1533.538 9.319 9.399 9.529 9.569 9.749 10.079 10.739 11.499 12.059 12.649
1552.827 13.299 14.339 15.199 15.909 17.169 18.269 19.539 21.099 22.869 25.119
1572.117 27.929 31.619 36.809 42.939 49.739 58.229 68.399 80.649 94.129 109.229
1591.407 125.609 142.069 157.859 171.959 182.359 188.849 191.259 187.929 178.869 165.999
1610.697 150.889 135.409 122.509 114.399 113.329 119.879 133.429 153.979 177.739 204.289
1629.986 229.099 247.209 255.239 253.149 241.729 221.359 193.239 161.569 127.789 96.599
1649.276 73.769 59.319 48.629 41.589 37.409 34.299 31.889 29.529 27.269 25.089
1668.566 22.969 21.209 19.889 18.869 17.809 17.009 16.319 15.729 15.079 14.709
1687.856 14.419 13.779 13.389 13.399 14.039 14.849 15.649 16.899 17.919 18.869
1707.146 19.619 20.229 20.799 21.499 22.029 22.709 23.809 24.639 25.329 26.089
1726.435 26.659 27.069 27.169 26.599 25.999 25.659 25.189 24.629 24.039 23.559
1745.725 23.439 23.519 23.819 24.369 25.209 26.499 28.299 30.109 31.999 34.259
1765.015 36.769 39.359 42.219 44.949 47.849 50.959 54.749 59.449 65.539 73.549
1784.305 84.159 98.049 114.729 133.539 154.139 174.729 193.049 208.099 216.199 214.629
1803.594 202.699 184.619 164.489 143.639 122.489 102.279 84.159 68.799 56.449 47.029
1822.884 39.969 34.649 30.589 27.339 24.719 22.509 20.629 19.289 18.119 16.969
1842.174 15.779 14.349 12.919 11.709 10.509 9.399 8.629 8.039 7.389 6.979
1861.464 6.869 6.629 6.329 6.099 5.949 5.759 5.419 5.049 4.569 4.089
1880.754 3.829 3.539 3.189 3.019 3.029 2.849 2.489 2.269 2.239 2.319
1900.043 2.319 2.219 2.149 2.129 2.069 2.079 2.159 1.999 1.909 2.049
1919.333 1.999 1.809 1.799 1.829 1.859 1.949 1.879 1.899 1.989 2.009
1938.623 1.919 1.5946 1.4978 1.759 1.799 1.739 1.949 1.849 1.5961 1.649
1957.913 1.639 1.6043 1.679 1.709 1.729 1.709 1.719 1.699 1.729 1.689
1977.202 1.669 1.769 1.709 1.729 1.799 1.699 1.819 1.969 1.989 1.959
1996.492 1.799 1.909 2.129 2.269 2.299 2.249 2.069 1.959 1.939 1.779
2015.782 1.659 1.709 1.889 1.979 1.859 1.709 1.729 1.799 1.909 1.969
2035.072 1.789 1.819 2.009 1.919 1.859 1.809 1.779 2.019 2.299 2.229
2054.362 1.989 2.139 2.169 2.079 2.049 2.019 2.029 1.839 1.829 1.839
2073.651 1.709 1.629 1.699 1.659 1.5486 1.629 1.609 1.5106 1.4698 1.4067
2092.941 1.2943 1.3838 1.5206 1.5809 1.513 1.4333 1.4402 1.4319 1.4427 1.4121
2112.231 1.335 1.1605 1.2622 1.4989 1.5223 1.5894 1.659 1.709 1.739 1.819
2131.521 2.009 2.019 1.939 2.039 1.919 1.639 1.6042 1.5801 1.545 1.649
2150.810 1.639 1.5415 1.619 1.809 2.019 2.149 2.219 2.269 2.419 2.759
2170.100 3.139 3.119 3.089 3.189 3.079 3.089 3.039 3.019 2.989 2.789
2189.390 2.519 2.389 2.389 2.409 2.429 2.489 2.549 2.649 2.579 2.579
2208.680 2.659 2.449 2.469 2.589 2.489 2.269 2.069 1.859 1.779 1.679
2227.970 1.554 1.639 1.699 1.5358 1.5516 1.689 1.619 1.5138 1.3777 1.4887
2247.259 1.5964 1.5423 1.5847 1.679 1.669 1.699 1.899 1.999 1.809 1.5093
2266.549 1.4534 1.639 1.709 1.5014 1.2916 1.2418 1.2711 1.1834 1.1145 1.0753
2285.839 0.9887 0.952 1.0539 1.1969 1.0872 1.0817 1.1557 1.049 0.9624 1.0816
2305.129 1.1742 0.963 0.9484 1.0729 1.0951 1.2044 1.3261 1.4218 1.4033 1.2773
2324.418 1.2128 1.1354 1.2692 1.3721 1.3433 1.3755 1.3173 1.3384 1.3008 1.2439
2343.708 1.2928 1.5599 1.969 2.009 1.939 2.069 2.149 2.119 2.229 2.139
2362.998 2.029 2.379 2.439 2.329 2.359 2.189 2.079 2.229 2.219 2.249
2382.288 2.159 2.159 2.339 2.399 2.559 2.779 2.789 2.589 2.699 2.969
2401.578 3.149 3.259 3.169 2.999 2.869 2.979 3.089 2.889 2.759 2.629
2420.867 2.349 2.209 2.079 1.779 1.839 1.759 1.3009 1.1312 1.0664 1.0562
2440.157 1.2494 1.1284 1.081 1.181 1.1017 1.0503 1.1591 1.2355 1.5737 1.709
2459.447 1.4693 1.5087 1.649 1.769 1.959 2.069 2.109 2.409 2.899 2.959
2478.737 3.069 3.619 4.029 4.389 4.439 4.489 4.569 4.469 4.479 4.219
2498.026 3.499 2.859 2.259 1.799 1.849 1.739 1.3581 1.5567 1.679 1.6008
2517.316 1.769 1.859 1.839 1.789 1.679 1.659 1.809 1.869 1.819 1.769
2536.606 1.649 1.649 1.799 1.749 1.889 2.059 1.729 1.5536 1.849 1.999
2555.896 1.929 1.979 1.789 1.839 1.989 1.939 2.169 2.189 2.179 2.049
2575.186 2.169 2.189 1.929 2.129 2.159 2.059 2.079 2.079 1.979 1.889
2594.475 1.609 1.4661 1.739 1.699 1.5357 1.5272 1.5882 1.649 1.739 1.709
2613.765 1.497 1.5595 1.799 1.899 1.869 1.789 1.789 1.769 1.709 1.4378
2633.055 1.3324 1.3874 1.1697 1.2316 1.5121 1.3779 1.2716 1.5012 1.4781 1.4082
2652.345 1.2169 1.5273 1.929 1.829 1.729 1.4745 1.5391 1.799 1.799 1.789
2671.634 1.849 1.819 1.669 1.5545 1.679 1.5956 1.568 1.869 1.819 1.4706
2690.924 1.365 1.4358 1.5757 1.5379 1.2234 1.3217 1.5558 1.5397 1.699 1.979
2710.214 2.039 1.939 1.699 1.5501 1.749 2.089 2.209 2.289 2.449 2.339
2729.504 2.469 2.529 2.269 2.179 2.039 1.839 1.729 1.5791 1.639 1.909
2748.794 2.099 2.139 1.909 1.779 1.759 1.669 1.4825 1.6054 2.039 1.969
2768.083 2.009 2.019 1.739 1.839 1.719 1.553 1.679 1.849 1.889 1.849
2787.373 1.869 1.5178 1.3752 1.719 1.749 1.5828 1.679 1.669 1.669 1.5444
2806.663 1.1521 1.2552 1.5164 1.3662 1.3383 1.4658 1.3186 1.3153 1.4551 1.3523
2825.953 1.3602 1.4208 1.0285 0.7617 0.8628 0.9498 1.0181 1.0529 1.1994 1.2559
2845.242 1.3314 1.2184 0.9794 0.7197 0.68098 0.9606 0.9104 0.7859 0.9469 1.0056
2864.532 0.8691 0.7175 0.612963 0.8842 1.0104 1.0015 1.1758 1.0102 0.9247 0.9447
2883.822 0.70537 0.7317 0.9623 0.60135 0.38 0.67673 0.9423 1.0122 0.736 0.7525
2903.112 0.8037 0.7316 0.8015 0.8328 1.1301 1.3684 1.331 1.139 0.8985 1.1959
2922.401 1.3849 1.0805 1.2416 1.4419 1.2542 1.0767 0.9502 0.9989 1.0073 1.1064
2941.691 1.0379 0.61978 0.312 0.344 0.9969 1.2715 1.1719 1.1907 0.8809 0.8086
2960.981 0.9848 0.9713 0.6391 0.69804 1.0523 1.2703 1.1635 0.8915 0.459 0.483
2980.271 0.8243 0.9314 1.1609 1.0943 1.008 0.9701 0.9382 0.8836 1.0633 1.1717
2999.561 1.0478 1.1306 0.9729 1.017 1.3201 0.9815 0.7717 0.8217 0.8201 0.8512
3018.850 0.67381 0.5345 0.471 0.66287 0.60021 0.303 0.565 0.8094 0.7435 0.5107
3038.140 0.751 0.9097 0.5552 0.7977 1.1287 1.0627 0.9047 0.8529 1.0772 1.0453
3057.430 0.8102 1.2635 1.709 1.5759 1.517 1.909 1.939 1.6034 1.689 2.049
3076.720 2.219 2.149 2.079 2.019 2.599 3.079 2.929 3.129 3.349 3.119
3096.009 3.089 3.599 4.259 4.569 4.759 5.179 5.249 5.019 5.149 5.159
3115.299 4.739 3.979 3.379 2.979 2.659 2.389 1.829 1.639 1.629 1.2664
3134.589 0.8145 0.8795 1.0605 0.885 1.0635 1.1984 1.1777 1.0234 0.8386 0.8564
3153.879 0.8977 1.0154 1.2455 1.2026 0.8962 0.9652 1.0013 0.9431 1.2181 1.3424
3173.169 1.0397 1.2202 1.5945 1.4993 1.521 1.2405 0.68863 0.8309 0.6877 0.495
3192.458 1.0631 1.5166 1.5772 1.2151 1.0532 1.226 1.1256 1.338 1.498 1.2625
3211.748 1.5417 1.659 1.386 1.0766 0.918 1.1904 1.1939 1.2945 1.629 1.4424
3231.038 1.2215 1.0417 1.0367 1.1943 1.3191 1.2578 1.1614 1.0563 0.9171 1.1295
3250.328 1.25 0.9858 0.9767 0.943 1.2294 1.5696 1.0259 1.1355 1.6016 1.092
3269.617 0.9641 1.609 1.5924 1.04 1.0932 1.6006 1.769 1.0409 0.475 0.8314
3288.907 1.0827 1.107 0.9125 1.0398 1.3001 1.3697 1.3897 1.4644 1.2851 1.268
3308.197 1.2713 0.9187 1.0598 1.146 1.0748 1.1986 1.1361 1.1911 1.3944 1.2552
3327.487 1.0345 0.9149 0.614368 0.486 0.8485 1.1885 1.1454 0.7772 0.499 0.5093
3346.777 0.63823 0.63145 0.8408 1.1146 0.9629 0.807 0.67335 0.8031 0.9822 0.8936
3366.066 1.2237 1.1258 1.0784 1.1393 0.5589 0.7311 0.9674 0.7703 0.7911 0.779
3385.356 0.76 0.43 0.5767 0.9542 0.9701 0.68166 0.499 0.9038 1.208 1.1593
3404.646 0.95 0.9036 1.0729 1.3319 1.2814 1.2573 1.1415 1.01 1.027 0.9601
3423.936 0.9329 1.3147 1.0498 0.7818 0.8514 0.422 0.525 0.7536 0.8947 1.0377
3443.225 1.2455 0.9009 0.65861 1.5068 1.689 1.5525 1.4472 0.7137 0.68729 1.1917
3462.515 1.2761 0.8561 0.9208 1.0673 0.69295 0.8152 0.9588 0.68157 0.69771 0.7827
3481.805 0.8014 0.8513 1.0263 1.3799 1.4963 1.4885 1.3815 1.5622 1.789 1.799
3501.095 1.5921 1.719 1.909 1.809 2.089 2.179 1.729 1.829 2.069 2.059
3520.385 2.189 1.889 1.959 1.949 1.879 2.329 2.609 2.529 2.459 2.369
3539.674 2.219 2.089 1.939 2.129 2.149 2.079 2.209 2.229 1.899 1.839
3558.964 2.109 2.499 2.519 2.419 2.509 2.459 2.299 2.419 2.669 2.959
3578.254 3.359 2.839 2.489 2.559 2.829 2.759 2.559 2.989 3.019 2.839
3597.544 2.689 2.529 2.569 2.379 2.129 2.389 2.529 1.879 1.689 1.999
3616.833 1.829 1.5048 1.689 1.969 1.619 1.3575 1.0207 1.1981 1.919 1.639
3636.123 1.0386 1.1872 1.3495 1.4774 1.5228 1.3167 1.2157 0.991 0.9136 1.0351
3655.413 1.2874 1.1604 1.0526 1.3484 1.5208 1.3806 1.0123 0.9479 0.8019 0.144
3674.703 0 0.7765 1.1837 0.8122 1.005 1.3573 0.9525 0.8674 1.079 0.7472
3693.993 0.7339 1.0727 1.1196 0.8995 0.8339 0.9398 1.1453 1.689 1.3239 0.8863
3713.282 0.9793 1.0709 1.1763 1.4354 1.3444 1.0632 1.3102 1.0998 0.8168 0.284
3732.572 0.215 0.612787 0.69812 1.0522 0.9633 0.5754 0.64518 0.7312 1.0144 1.0173
3751.862 0.5708 0.65056 0.8345 0.69112 0.573 0.5133 0.7415 1.2296 1.0918 1.0705
3771.152 1.1209 1.2297 1.2501 1.0046 1.1457 1.1933 1.0264 0.7825 0.7761 1.1506
3790.441 1.0675 0.7649 0.9116 1.1887 0.9791 0.7554 0.7748 1.0883 0.8977 0.556
3809.731 0.9293 1.2893 1.3033 1.0809 1.1121 0.9336 0.9781 1.1266 0.7917 0.8349
3829.021 1.0413 0.9164 0.7834 0.794 0.9742 1.2743 1.4519 1.3396 0.8822 0.6772
3848.311 0.5604 1.1019 1.394 0.7253 0.7921 0.5382 0.8259 1.1496 0.66549 0.8103
3867.601 1.3349 1.4678 1.0601 0.7887 0.7158 0.509 0.5 0.5941 0.8568 0.8658
3886.890 0.9502 1.3945 1.1381 1.0223 1.3124 1.1358 1.0599 1.0439 0.7919 0.5761
3906.180 0.333 0.68968 0.441 0.5328 1.066 1.217 1.3797 1.1361 0.9705 0.69793
3925.470 0.7247 0.62784 0.8242 1.2096 1.2144 0.8547 0.611956 1.4547 1.769 1.4668
3944.760 1.1669 1.0504 1.3181 1.028 0.9435 0.9352 0.9228 1.2858 1.2768 1.1455
3964.049 1.4087 1.133 0.8255 0.70628 0.5666 1.2416 1.2147 0.68775 0.8874 1.3049
3983.339 1.3586 1.1199 0.9944 0.8155 0.7439 1.1519 1.2673 0.69979 0.67599 0.61949
##END=
