##TITLE=2,4,6-Trimethyl-1,6-heptadien-4-ol
##JCAMP-DX=4.24
##DATA TYPE=INFRARED SPECTRUM
##ORIGIN=NIST Mass Spectrometry Data Center
##OWNER=NIST Standard Reference Data Program
Collection (C) 2018 copyright by the U.S. Secretary of Commerce
on behalf of the United States of America. All rights reserved.
##CAS REGISTRY NO=79604-66-3
##MOLFORM=C 10 H 18 O
##$NIST SOURCE=MSDC-IR
##SPECTROMETER/DATA SYSTEM=HP-GC/MS/IRD
##STATE=gas
##XUNITS=1/CM
##YUNITS=ABSORBANCE
##XFACTOR=1.0
##YFACTOR=0.000001700
##DELTAX=4.0
##FIRSTX=550.0
##LASTX=3846.0
##FIRSTY=0.000928
##MAXX=3846
##MINX=550
##MAXY=0.017
##MINY=0
##NPOINTS=825
##XYDATA=(X++(Y..Y))
550.0 546 392 241 262 271 267 290 336 364 400
590.0 407 386 441 527 584 547 496 462 394 365
630.0 328 248 187 155 139 75 51 66 59 68
670.0 59 62 78 32 14 49 46 61 67 72
710.0 112 127 112 87 69 66 63 79 95 81
750.0 81 131 179 233 342 473 628 795 854 800
790.0 728 597 475 390 358 369 399 444 475 522
830.0 565 558 585 633 682 761 849 987 1176 1435
870.0 1854 2496 3466 4928 6731 8422 9437 9298 8062 6273
910.0 4528 3163 2314 1886 1672 1597 1602 1653 1694 1713
950.0 1676 1564 1359 1110 894 728 652 598 561 549
990.0 543 556 580 605 626 645 663 680 663 663
1030.0 651 652 682 670 673 686 721 820 927 1081
1070.0 1300 1559 1870 2233 2653 3122 3555 3863 4041 4067
1110.0 3902 3620 3283 2949 2642 2403 2223 2058 1912 1808
1150.0 1705 1589 1480 1388 1335 1297 1257 1238 1240 1260
1190.0 1326 1414 1524 1636 1718 1786 1853 1891 1941 2023
1230.0 2115 2216 2339 2424 2452 2429 2326 2191 2077 1955
1270.0 1871 1806 1749 1722 1709 1696 1717 1787 1892 2021
1310.0 2146 2245 2330 2395 2440 2519 2626 2710 2781 2828
1350.0 2844 2850 2898 3071 3484 4167 4887 5323 5263 4607
1390.0 3618 2738 2136 1811 1658 1602 1639 1734 1870 2065
1430.0 2296 2559 2846 3131 3395 3557 3606 3496 3215 2814
1470.0 2357 1920 1539 1225 992 831 704 607 537 485
1510.0 441 413 387 366 354 337 333 345 336 334
1550.0 346 355 379 371 368 389 419 423 414 434
1590.0 465 513 560 623 721 828 981 1213 1527 1957
1630.0 2467 2972 3329 3408 3162 2665 2048 1485 1050 763
1670.0 580 459 369 297 249 209 185 165 149 138
1710.0 127 130 127 118 114 108 112 103 93 96
1750.0 103 109 119 134 148 180 226 285 377 469
1790.0 546 598 598 566 515 444 373 303 243 195
1830.0 153 125 101 80 64 53 42 34 33 44
1870.0 49 34 31 39 32 21 30 27 18 11
1910.0 6 3 7 10 12 20 8 5 11 20
1950.0 19 17 26 19 8 7 6 17 27 9
1990.0 6 22 33 32 20 7 8 15 14 18
2030.0 22 34 36 35 26 20 33 38 34 40
2070.0 48 43 42 43 50 43 35 41 38 46
2110.0 45 38 35 26 25 33 38 27 22 33
2150.0 40 43 47 38 24 18 25 38 45 41
2190.0 44 47 45 50 45 43 50 56 47 42
2230.0 52 42 42 56 43 42 41 25 43 50
2270.0 36 33 32 21 25 42 47 54 50 39
2310.0 38 34 41 60 61 47 39 44 41 33
2350.0 28 32 42 42 42 32 17 18 21 20
2390.0 31 36 28 33 34 32 31 28 29 31
2430.0 32 8 11 33 24 24 23 17 27 31
2470.0 37 36 32 30 18 15 15 9 13 27
2510.0 36 23 13 21 19 11 22 17 11 16
2550.0 16 16 5 7 15 6 14 24 22 18
2590.0 19 22 14 20 34 40 32 31 40 35
2630.0 38 51 47 34 26 39 47 36 27 38
2670.0 47 49 54 62 58 43 47 67 88 99
2710.0 95 101 129 153 175 216 246 257 255 246
2750.0 221 211 207 210 214 211 226 246 265 282
2790.0 316 360 398 428 475 552 640 726 825 941
2830.0 1074 1235 1416 1595 1774 1965 2134 2312 2497 2673
2870.0 2856 3034 3221 3436 3650 3904 4227 4594 5014 5516
2910.0 6092 6696 7293 7859 8378 8740 8912 8849 8543 8096
2950.0 7601 7197 7062 7298 7954 8872 9669 10000 9724 8837
2990.0 7562 6231 4991 3886 2990 2377 1985 1711 1498 1330
3030.0 1211 1136 1100 1098 1138 1220 1364 1617 1999 2612
3070.0 3543 4524 5071 4972 4229 3075 2043 1401 1044 841
3110.0 703 582 481 394 338 292 247 219 197 171
3150.0 131 103 107 100 92 89 71 70 70 56
3190.0 55 68 65 66 54 54 59 42 41 29
3230.0 19 43 59 56 54 54 75 79 62 48
3270.0 62 73 56 47 25 16 28 28 50 66
3310.0 54 43 51 51 34 30 47 65 79 65
3350.0 45 50 47 58 69 62 56 59 70 69
3390.0 50 39 40 37 19 20 39 54 55 44
3430.0 25 33 54 36 35 28 3 9 40 53
3470.0 50 45 32 21 33 38 22 31 49 68
3510.0 74 59 74 87 88 87 99 120 143 161
3550.0 182 174 175 198 226 290 379 519 723 945
3590.0 1136 1233 1224 1111 964 826 717 691 678 692
3630.0 711 724 702 622 524 407 296 220 174 139
3670.0 122 111 87 58 43 25 29 28 12 5
3710.0 16 27 10 19 16 31 57 25 31 53
3750.0 43 47 34 12 2 7 31 17 10 15
3790.0 0 11 16 9 22 26 23 29 25 6
3830.0 2 6 10 5 3
##END=
