##TITLE=1-Cyclohexyl-2-buten-1-ol (c,t)
##JCAMP-DX=4.24
##DATA TYPE=INFRARED SPECTRUM
##ORIGIN=NIST Mass Spectrometry Data Center
##OWNER=NIST Standard Reference Data Program
Collection (C) 2018 copyright by the U.S. Secretary of Commerce
on behalf of the United States of America. All rights reserved.
##CAS REGISTRY NO=79605-62-2
##MOLFORM=C 10 H 18 O
##$NIST SOURCE=MSDC-IR
##SPECTROMETER/DATA SYSTEM=HP-GC/MS/IRD
##STATE=gas
##XUNITS=1/CM
##YUNITS=ABSORBANCE
##XFACTOR=1.0
##YFACTOR=0.000004900
##DELTAX=4.0
##FIRSTX=550.0
##LASTX=3846.0
##FIRSTY=0.000887
##MAXX=3846
##MINX=550
##MAXY=0.049
##MINY=0
##NPOINTS=825
##XYDATA=(X++(Y..Y))
550.0 181 134 103 104 112 121 106 103 127 136
590.0 119 94 69 58 57 46 39 36 37 56
630.0 71 80 86 82 79 77 85 92 84 70
670.0 70 73 66 58 41 28 25 15 18 26
710.0 13 8 10 13 9 6 9 10 7 10
750.0 14 21 27 26 25 28 38 52 54 44
790.0 52 55 54 52 49 53 47 42 44 54
830.0 80 98 113 120 119 125 127 136 147 156
870.0 173 192 220 265 312 340 344 324 286 258
910.0 261 283 318 363 419 460 493 539 594 673
950.0 799 987 1219 1416 1507 1484 1351 1190 1101 1087
990.0 1126 1196 1252 1269 1251 1184 1079 972 875 778
1030.0 692 629 587 570 573 581 595 622 648 673
1070.0 691 680 658 638 614 587 564 540 516 497
1110.0 474 449 419 383 363 341 327 322 313 299
1150.0 276 260 249 245 249 254 266 279 286 296
1190.0 313 334 359 384 414 435 444 448 452 466
1230.0 480 488 495 508 521 532 543 551 555 543
1270.0 522 497 461 440 427 419 420 426 425 411
1310.0 392 375 364 359 356 357 365 389 422 453
1350.0 468 469 453 432 425 438 460 478 488 477
1390.0 438 390 344 303 273 251 235 223 224 242
1430.0 279 347 462 629 818 954 1005 922 754 571
1470.0 415 300 218 171 144 123 111 108 98 86
1510.0 82 74 66 59 52 49 48 47 45 40
1550.0 36 34 36 38 35 31 29 29 27 25
1590.0 26 26 27 30 28 29 31 32 30 33
1630.0 37 39 44 51 61 78 103 134 160 180
1670.0 185 169 137 96 63 47 35 29 26 22
1710.0 19 19 21 24 27 29 29 32 34 35
1750.0 35 35 37 36 33 33 30 24 17 17
1790.0 16 14 17 17 15 17 16 15 13 12
1830.0 13 16 20 20 17 12 9 8 7 8
1870.0 4 2 4 3 3 4 3 3 4 7
1910.0 4 0 0 3 5 2 0 0 4 6
1950.0 8 7 5 6 7 8 6 10 15 19
1990.0 22 23 23 20 20 17 16 17 14 9
2030.0 10 11 14 15 12 9 10 8 7 8
2070.0 7 6 7 11 10 6 6 9 12 13
2110.0 14 10 7 8 10 11 12 15 15 13
2150.0 11 12 11 8 9 8 7 7 11 11
2190.0 8 10 11 9 8 10 10 13 15 16
2230.0 10 12 14 10 14 13 10 11 10 6
2270.0 6 9 12 9 7 7 8 9 9 12
2310.0 11 8 7 7 10 13 17 20 22 20
2350.0 21 23 23 26 26 25 23 22 24 26
2390.0 28 26 22 24 24 20 18 19 18 16
2430.0 17 18 18 17 14 15 16 12 12 15
2470.0 18 22 20 23 24 22 25 20 16 18
2510.0 15 16 21 22 21 19 19 22 18 18
2550.0 24 23 19 24 29 32 34 36 40 43
2590.0 52 55 52 55 55 54 55 57 59 60
2630.0 65 67 67 76 86 98 110 122 128 129
2670.0 130 126 116 104 97 95 92 89 88 87
2710.0 87 89 90 86 87 93 98 108 114 111
2750.0 109 105 102 98 100 107 118 132 146 161
2790.0 179 202 221 235 248 267 293 321 357 408
2830.0 480 585 746 1006 1416 2018 2800 3569 4050 4125
2870.0 3810 3257 2713 2296 2027 1900 1907 2034 2270 2631
2910.0 3144 3875 4904 6272 7860 9294 10000 9610 8296 6456
2950.0 4557 3076 2169 1656 1358 1165 1028 914 820 752
2990.0 702 665 634 612 594 583 575 568 556 541
3030.0 513 480 434 381 330 288 256 228 201 179
3070.0 165 152 139 131 121 113 105 96 84 77
3110.0 73 67 72 73 68 67 64 58 62 59
3150.0 50 49 44 45 46 41 40 35 32 36
3190.0 32 27 23 28 31 32 29 22 21 20
3230.0 18 13 18 26 27 21 9 7 17 23
3270.0 20 17 16 17 20 18 16 18 23 22
3310.0 19 21 17 24 22 15 27 34 34 33
3350.0 32 30 29 31 30 29 33 32 32 38
3390.0 33 36 42 42 40 40 42 40 41 49
3430.0 56 55 44 33 38 46 40 37 41 38
3470.0 33 40 44 36 32 34 36 39 40 40
3510.0 42 38 33 38 35 29 35 45 42 35
3550.0 37 36 33 37 38 35 34 33 36 40
3590.0 46 46 39 42 49 54 66 80 93 107
3630.0 139 206 300 406 466 480 442 349 251 175
3670.0 125 98 82 71 63 66 67 62 54 49
3710.0 52 52 52 51 46 42 43 47 49 51
3750.0 45 46 50 53 50 44 47 43 43 50
3790.0 51 50 51 49 49 48 47 53 53 46
3830.0 48 56 59 56 51
##END=
