##TITLE=5-Bromo-2-ethoxybenzaldehyde
##JCAMP-DX=4.24
##DATA TYPE=INFRARED SPECTRUM
##ORIGIN=EPA-IR VAPOR PHASE LIBRARY
##OWNER=SRD/NIST
Collection (C) 2018 copyright by the U.S. Secretary of Commerce
on behalf of the United States of America. All rights reserved.
##CAS REGISTRY NO=79636-94-5
##MOLFORM=C 9 H 9 Br O 2
##$NIST SOURCE=MSDC-IR
##STATE=gas
##XUNITS=1/CM
##YUNITS=ABSORBANCE
##XFACTOR=1.
##YFACTOR=0.001
##DELTAX=1.92934
##FIRSTX=549.9
##LASTX=3999.5
##FIRSTY=1.2082
##MAXX=3999.53
##MINX=549.863
##MAXY=0.01608
##MINY=0
##NPOINTS=1789
##XYDATA=(X++(Y..Y))
549.863 1.2082 1.1546 1.0675 0.9952 1.0091 0.9544 0.8834 0.8245 0.8287 0.8315
569.156 0.8317 0.9116 0.818 0.7663 0.8399 0.748 0.7651 0.9325 0.8699 0.7182
588.450 0.8189 0.9856 0.9189 0.9444 1.0956 1.1763 1.1362 1.1508 1.3255 1.3487
607.743 1.3198 1.366 1.49 1.59 1.72 1.84 1.97 2.12 2.11 2.07
627.037 2.06 2.14 2.22 2.23 2.24 2.25 2.3 2.31 2.25 2.19
646.330 2.13 2.06 1.94 1.89 1.9 1.9 1.87 1.83 1.81 1.7
665.624 1.52 1.3807 1.2844 1.2091 1.1471 1.0658 1.0156 1.0026 0.9868 0.9148
684.917 0.9028 0.948 0.8854 0.8669 0.9616 1.0153 0.9992 1.0343 1.041 1.0257
704.210 1.0382 0.9711 0.9309 0.8891 0.8526 0.8173 0.7839 0.8398 0.8829 0.8831
723.504 0.8594 0.8085 0.8013 0.8658 0.931 0.8969 0.878 0.9099 0.8652 0.8166
742.797 0.8315 0.8937 0.8721 0.832 0.8337 0.8403 0.9103 0.9679 0.9018 0.8809
762.091 0.9575 0.9902 1.0605 1.0793 1.0988 1.1279 1.1132 1.1456 1.1168 1.0948
781.384 1.1125 1.1529 1.2925 1.3505 1.3727 1.51 1.61 1.79 2.08 2.3
800.678 2.51 2.79 2.98 3.02 2.99 2.86 2.73 2.63 2.49 2.3
819.971 2.1 1.88 1.74 1.64 1.51 1.4087 1.3425 1.3656 1.3497 1.2834
839.264 1.2522 1.2469 1.2652 1.2954 1.3722 1.4094 1.4505 1.53 1.61 1.78
858.558 2.03 2.23 2.4 2.61 2.83 2.99 3.12 3.21 3.24 3.21
877.851 3.15 3.07 2.96 2.82 2.71 2.56 2.43 2.39 2.33 2.35
897.145 2.38 2.31 2.24 2.11 1.97 1.85 1.77 1.64 1.54 1.52
916.438 1.4346 1.3595 1.3445 1.3316 1.2997 1.2729 1.2312 1.1616 1.1227 1.1004
935.732 1.077 1.0731 1.0285 0.9691 0.9239 0.9121 0.9136 0.8789 0.8538 0.843
955.025 0.8502 0.8548 0.8854 0.8838 0.8581 0.8714 0.8735 0.8915 0.9079 0.8938
974.318 0.9137 0.9827 0.9758 0.946 0.982 1.022 1.0498 1.0786 1.1197 1.1829
993.612 1.2189 1.2984 1.3516 1.3394 1.3886 1.48 1.57 1.69 1.8 1.91
1012.905 2.12 2.32 2.54 2.8 3.1 3.47 3.87 4.23 4.55 4.86
1032.199 5.07 5.17 5.18 5.1 4.95 4.72 4.45 4.13 3.79 3.47
1051.492 3.19 2.94 2.69 2.45 2.28 2.13 2.03 1.95 1.88 1.86
1070.786 1.82 1.86 1.94 1.99 2.12 2.21 2.23 2.35 2.47 2.59
1090.079 2.7 2.71 2.75 2.79 2.87 3.03 3.34 3.63 3.77 4.13
1109.372 4.71 5.3 5.88 6.59 7.23 7.73 8.16 8.2 8.01 7.59
1128.666 6.95 6.29 5.62 5.08 4.62 4.24 3.93 3.79 3.67 3.53
1147.959 3.51 3.43 3.39 3.46 3.52 3.72 4.07 4.38 4.78 5.24
1167.253 5.66 6.16 6.6 6.76 6.68 6.58 6.35 5.95 5.48 4.92
1186.546 4.38 3.94 3.73 3.74 3.71 3.75 3.98 4.09 4.22 4.6
1205.840 5.04 5.43 5.98 6.63 7.24 8.09 9.03 9.62 10.39 11.32
1225.133 12.02 12.62 13.24 13.64 13.78 13.73 13.44 13.17 12.94 12.52
1244.426 11.98 11.58 11.36 11.3 11.5 11.99 12.67 13.46 14.17 14.69
1263.720 14.74 14.21 13.35 12.16 10.79 9.39 8.1 7.09 6.22 5.47
1283.013 4.89 4.44 4.09 3.87 3.8 3.72 3.64 3.64 3.55 3.32
1302.307 3.06 2.85 2.64 2.43 2.22 2 1.83 1.7 1.57 1.49
1321.600 1.4406 1.4096 1.4017 1.3683 1.3559 1.3539 1.3012 1.3182 1.3746 1.404
1340.894 1.3888 1.403 1.4463 1.449 1.48 1.58 1.68 1.78 1.95 2.14
1360.187 2.41 2.76 3.03 3.25 3.51 3.78 4.05 4.48 5.24 6.48
1379.480 8.12 9.63 10.57 10.89 10.61 9.71 8.27 6.65 5.4 4.72
1398.774 4.37 4.16 4.07 3.96 3.79 3.62 3.34 3.04 2.8 2.59
1418.067 2.39 2.25 2.15 2.12 2.15 2.18 2.24 2.32 2.39 2.47
1437.361 2.52 2.61 2.74 2.85 2.98 3.19 3.43 3.66 4.05 4.58
1456.654 5.26 6.15 7.23 8.55 10.07 11.62 13 14 14.42 14.36
1475.948 13.77 12.79 11.65 10.43 9.27 8.26 7.35 6.46 5.57 4.75
1495.241 3.99 3.29 2.79 2.43 2.16 1.96 1.8 1.71 1.64 1.57
1514.534 1.47 1.3981 1.3315 1.3032 1.2769 1.2183 1.1918 1.1632 1.1393 1.1314
1533.828 1.1181 1.1271 1.0824 1.0129 1.0357 1.0925 1.135 1.1608 1.197 1.2176
1553.121 1.2561 1.3259 1.3373 1.361 1.4682 1.59 1.72 1.83 1.94 2.1
1572.415 2.31 2.54 2.81 3.16 3.53 3.91 4.25 4.48 4.62 4.56
1591.708 4.28 3.88 3.37 2.85 2.39 2.01 1.79 1.67 1.55 1.48
1611.002 1.4539 1.3991 1.3012 1.2178 1.2035 1.1799 1.1471 1.1593 1.1685 1.1298
1630.295 1.1179 1.1066 1.0693 1.0497 1.0601 1.0811 1.1307 1.1292 1.1014 1.1388
1649.588 1.1723 1.1633 1.1809 1.2932 1.341 1.3162 1.3547 1.4556 1.55 1.61
1668.882 1.64 1.73 1.85 1.99 2.13 2.23 2.43 2.67 2.98 3.44
1688.175 3.99 4.66 5.53 6.59 7.96 9.51 11.18 13.11 14.67 15.72
1707.469 16.08 16.02 15.65 14.72 13.08 11.13 9.32 7.99 6.99 6.34
1726.762 5.89 5.47 5.01 4.51 3.92 3.39 2.92 2.5 2.24 2.02
1746.056 1.84 1.72 1.62 1.53 1.4697 1.4067 1.3419 1.2927 1.2592 1.2253
1765.349 1.1718 1.1468 1.1164 1.035 1.0138 1.0572 1.0528 1.008 0.9927 1.0012
1784.642 0.9747 0.9569 0.9711 0.9753 0.9715 0.9768 0.9959 0.9828 0.9673 0.9612
1803.936 0.9385 0.9069 0.8874 0.8903 0.8667 0.8293 0.8321 0.8316 0.8231 0.828
1823.229 0.8084 0.7793 0.7879 0.7726 0.7749 0.8007 0.8222 0.8296 0.8088 0.8173
1842.523 0.8199 0.8009 0.7872 0.8053 0.784 0.7474 0.7431 0.7238 0.7488 0.7975
1861.816 0.8043 0.8049 0.8047 0.8013 0.8315 0.8363 0.8251 0.8404 0.84 0.8267
1881.110 0.8203 0.8363 0.8305 0.8025 0.7895 0.7726 0.7754 0.7838 0.7821 0.7635
1900.403 0.772 0.755 0.7062 0.7186 0.7265 0.7294 0.7309 0.7022 0.6967 0.7065
1919.696 0.6937 0.6787 0.6717 0.6839 0.691 0.672 0.6742 0.6627 0.6581 0.6617
1938.990 0.6466 0.6493 0.6536 0.6523 0.6593 0.6354 0.6132 0.6292 0.6007 0.5708
1958.283 0.5964 0.6378 0.6411 0.62 0.6079 0.6375 0.6372 0.6216 0.6341 0.6405
1977.577 0.646 0.6472 0.6265 0.6031 0.618 0.6597 0.6817 0.6887 0.7045 0.6746
1996.870 0.6464 0.6437 0.6687 0.6767 0.6741 0.6582 0.6392 0.6372 0.6574 0.6784
2016.164 0.6547 0.6398 0.6568 0.655 0.6153 0.6225 0.6181 0.6381 0.6745 0.6627
2035.457 0.6545 0.6299 0.6409 0.6749 0.657 0.6464 0.6582 0.6323 0.6269 0.6299
2054.750 0.6159 0.6156 0.6016 0.5947 0.6075 0.6121 0.6053 0.5734 0.53938 0.54683
2074.044 0.5727 0.55548 0.53712 0.53231 0.54692 0.53337 0.50359 0.50046 0.46288 0.4448
2093.337 0.4568 0.48706 0.474529 0.46152 0.456 0.4259 0.4166 0.4045 0.4162 0.4369
2112.631 0.4295 0.435 0.4372 0.4317 0.4268 0.3937 0.4083 0.4383 0.4204 0.3871
2131.924 0.3868 0.3944 0.3935 0.3958 0.4103 0.418 0.3973 0.384 0.3952 0.4031
2151.218 0.3739 0.366 0.3759 0.3828 0.402 0.4091 0.3835 0.3947 0.4098 0.3916
2170.511 0.372 0.3857 0.39 0.367 0.366 0.3717 0.367 0.35 0.366 0.3913
2189.804 0.3912 0.362 0.341 0.356 0.3733 0.3723 0.361 0.353 0.353 0.354
2209.098 0.352 0.353 0.341 0.317 0.334 0.355 0.355 0.356 0.356 0.366
2228.391 0.3747 0.385 0.3908 0.3976 0.3981 0.348 0.338 0.3762 0.3735 0.369
2247.685 0.3716 0.376 0.3831 0.3843 0.3803 0.3828 0.383 0.363 0.341 0.357
2266.978 0.3715 0.3767 0.3947 0.3747 0.346 0.322 0.343 0.363 0.353 0.3704
2286.272 0.3853 0.3787 0.3721 0.3713 0.367 0.359 0.35 0.36 0.3722 0.357
2305.565 0.323 0.332 0.349 0.33 0.326 0.313 0.333 0.362 0.35 0.311
2324.858 0.279 0.317 0.31 0.297 0.305 0.254 0.22 0.251 0.282 0.295
2344.152 0.314 0.301 0.294 0.311 0.286 0.261 0.265 0.221 0.228 0.28
2363.445 0.253 0.252 0.29 0.3 0.292 0.287 0.31 0.339 0.328 0.302
2382.739 0.305 0.3 0.27 0.279 0.297 0.287 0.277 0.278 0.286 0.281
2402.032 0.294 0.299 0.302 0.293 0.284 0.313 0.313 0.292 0.275 0.283
2421.326 0.293 0.301 0.308 0.313 0.301 0.313 0.326 0.327 0.323 0.288
2440.619 0.264 0.247 0.267 0.263 0.255 0.326 0.355 0.319 0.3 0.283
2459.912 0.268 0.281 0.312 0.342 0.337 0.296 0.268 0.281 0.307 0.304
2479.206 0.304 0.3 0.309 0.307 0.29 0.284 0.264 0.246 0.244 0.251
2498.499 0.252 0.237 0.242 0.281 0.298 0.319 0.321 0.263 0.255 0.25
2517.793 0.26 0.272 0.259 0.264 0.253 0.221 0.19 0.227 0.251 0.211
2537.086 0.2 0.207 0.173 0.162 0.195 0.204 0.184 0.194 0.212 0.192
2556.380 0.171 0.194 0.208 0.19 0.2 0.213 0.18 0.156 0.198 0.195
2575.673 0.159 0.152 0.173 0.187 0.134 0.118 0.127 0.105 0.124 0.172
2594.966 0.165 0.143 0.151 0.15 0.115 0.099 0.115 0.099 0.1 0.147
2614.260 0.135 0.081 0.076 0.113 0.146 0.137 0.097 0.108 0.133 0.126
2633.553 0.132 0.13 0.135 0.144 0.124 0.116 0.161 0.158 0.156 0.201
2652.847 0.18 0.161 0.148 0.159 0.141 0.104 0.117 0.123 0.106 0.09
2672.140 0.127 0.161 0.148 0.164 0.203 0.152 0.112 0.127 0.145 0.214
2691.434 0.222 0.233 0.284 0.274 0.326 0.4465 0.52144 0.56915 0.5954 0.6161
2710.727 0.6348 0.6604 0.6702 0.6275 0.5818 0.54182 0.5405 0.5717 0.54507 0.49883
2730.020 0.477493 0.4526 0.50854 0.5807 0.6561 0.786 0.888 0.9256 0.9451 0.972
2749.314 1.007 0.9677 0.8474 0.7549 0.7087 0.6444 0.56179 0.51692 0.51272 0.4465
2768.607 0.352 0.306 0.314 0.271 0.237 0.27 0.281 0.312 0.29 0.279
2787.901 0.29 0.336 0.323 0.273 0.312 0.307 0.296 0.251 0.198 0.231
2807.194 0.299 0.342 0.31 0.35 0.3842 0.3801 0.4352 0.4307 0.4598 0.54207
2826.488 0.6004 0.6447 0.6878 0.7509 0.8008 0.8806 0.9624 1.0719 1.2329 1.3465
2845.781 1.54 1.79 2.12 2.55 2.96 3.39 3.81 4.15 4.32 4.33
2865.074 4.08 3.75 3.31 2.8 2.38 2.04 1.78 1.56 1.49 1.47
2884.368 1.4229 1.4109 1.3912 1.3819 1.3914 1.3961 1.4188 1.4514 1.4264 1.401
2903.661 1.4084 1.4387 1.4192 1.3564 1.2882 1.2676 1.3 1.3086 1.3743 1.3686
2922.955 1.3981 1.49 1.5 1.48 1.56 1.66 1.72 1.82 1.9 2.01
2942.248 2.07 2.09 2.05 1.92 1.79 1.72 1.56 1.382 1.3 1.2651
2961.542 1.2286 1.2123 1.2537 1.3407 1.376 1.368 1.55 1.82 1.98 2.12
2980.835 2.37 2.64 2.88 3.07 3.16 3.16 3.15 3.04 2.78 2.41
3000.128 1.98 1.74 1.53 1.2018 1.0423 0.9746 0.8169 0.706 0.6254 0.54927
3019.422 0.54449 0.55313 0.46794 0.3871 0.3711 0.3771 0.32 0.255 0.291 0.312
3038.715 0.276 0.227 0.189 0.151 0.107 0.159 0.182 0.143 0.12 0.147
3058.009 0.225 0.252 0.288 0.303 0.368 0.4034 0.3969 0.52948 0.56654 0.50505
3077.302 0.53262 0.51196 0.4443 0.4246 0.4151 0.48045 0.51189 0.477599 0.4581 0.46733
3096.596 0.4039 0.296 0.286 0.291 0.301 0.266 0.218 0.215 0.218 0.187
3115.889 0.115 0.064 0 0.012 0.041 0.047 0.106 0.085 0.013 0.035
3135.182 0.064 0.05 0.072 0.11 0.09 0.045 0.083 0.174 0.162 0.076
3154.476 0.002 0.062 0.106 0.101 0.167 0.106 0.058 0.074 0.093 0.145
3173.769 0.185 0.197 0.255 0.148 0 0.097 0.137 0.14 0.228 0.182
3193.063 0.199 0.168 0.076 0.102 0.161 0.22 0.225 0.232 0.245 0.172
3212.356 0.189 0.305 0.275 0.271 0.204 0.166 0.224 0.166 0.156 0.177
3231.650 0.171 0.24 0.306 0.314 0.3994 0.31 0.23 0.367 0.3827 0.336
3250.943 0.309 0.302 0.331 0.345 0.347 0.36 0.345 0.329 0.284 0.267
3270.236 0.348 0.345 0.295 0.259 0.233 0.29 0.34 0.3757 0.4171 0.4026
3289.530 0.3854 0.365 0.292 0.3779 0.477904 0.4348 0.4303 0.4405 0.4274 0.4125
3308.823 0.4292 0.4131 0.4356 0.53827 0.51899 0.48951 0.4288 0.4566 0.4546 0.4533
3328.117 0.49688 0.4105 0.4489 0.48449 0.4388 0.51954 0.6089 0.52773 0.51265 0.50698
3347.410 0.53773 0.6106 0.54353 0.49947 0.5504 0.5766 0.5926 0.6181 0.5715 0.5945
3366.704 0.6007 0.587 0.68 0.7101 0.6868 0.765 0.7344 0.6649 0.7378 0.8432
3385.997 0.8884 0.8614 0.7553 0.7233 0.7878 0.8412 0.8812 0.8447 0.8744 0.8473
3405.290 0.7112 0.6927 0.7673 0.7406 0.7173 0.7191 0.6621 0.6435 0.6812 0.6023
3424.584 0.5718 0.5644 0.52874 0.6223 0.627 0.5942 0.6046 0.5915 0.6162 0.6372
3443.877 0.6121 0.57 0.52108 0.55501 0.6033 0.607 0.6062 0.6986 0.7024 0.5728
3463.171 0.49048 0.476477 0.48969 0.471132 0.52216 0.583 0.6119 0.6147 0.6147 0.6302
3482.464 0.7146 0.749 0.6446 0.5833 0.55121 0.5794 0.6223 0.6502 0.662 0.6616
3501.758 0.6497 0.5928 0.6249 0.6536 0.5882 0.56662 0.5709 0.55244 0.646 0.6082
3521.051 0.6256 0.7484 0.6874 0.6174 0.6147 0.6545 0.6374 0.6244 0.6571 0.6336
3540.344 0.5757 0.6212 0.6467 0.5862 0.6292 0.7378 0.7053 0.6126 0.6448 0.6693
3559.638 0.6775 0.6852 0.6989 0.6326 0.6161 0.6583 0.5766 0.462 0.4544 0.628
3578.931 0.6818 0.6276 0.6712 0.7775 0.7483 0.5893 0.5618 0.6312 0.6775 0.6605
3598.225 0.5713 0.54331 0.54726 0.50268 0.55971 0.6448 0.5806 0.5759 0.5795 0.5823
3617.518 0.6456 0.5969 0.54381 0.6517 0.743 0.6622 0.55702 0.55765 0.59 0.56476
3636.812 0.53964 0.49624 0.5258 0.6513 0.6793 0.55844 0.473984 0.54374 0.6093 0.50044
3656.105 0.431 0.50925 0.6022 0.6536 0.6537 0.53688 0.4306 0.476144 0.52067 0.55292
3675.398 0.5852 0.5701 0.55273 0.55302 0.55036 0.5821 0.5666 0.50151 0.4826 0.46871
3694.692 0.479318 0.4583 0.473721 0.5754 0.5876 0.5646 0.54538 0.53 0.50933 0.48301
3713.985 0.4475 0.478267 0.46201 0.4512 0.51229 0.53366 0.52549 0.49871 0.50704 0.46552
3733.279 0.4575 0.54596 0.56726 0.50971 0.48553 0.49604 0.49896 0.53487 0.53726 0.46054
3752.572 0.4429 0.4456 0.4057 0.3974 0.3964 0.4424 0.51964 0.4577 0.4327 0.46856
3771.866 0.55026 0.54434 0.4088 0.4246 0.4484 0.3888 0.4319 0.4556 0.4484 0.5186
3791.159 0.50865 0.470915 0.477284 0.4557 0.4505 0.4404 0.4153 0.48282 0.4279 0.36
3810.452 0.445 0.49234 0.4473 0.351 0.347 0.33 0.326 0.343 0.326 0.366
3829.746 0.3816 0.3948 0.4315 0.470253 0.5052 0.49955 0.48928 0.49947 0.48414 0.4059
3849.039 0.3721 0.324 0.26 0.333 0.4 0.472384 0.48479 0.368 0.309 0.318
3868.333 0.3733 0.3784 0.312 0.3711 0.4302 0.46072 0.478627 0.4134 0.4015 0.4018
3887.626 0.4053 0.4058 0.4397 0.47601 0.4365 0.3847 0.366 0.4098 0.456 0.49097
3906.920 0.48684 0.4348 0.4238 0.4488 0.4438 0.46181 0.48605 0.49132 0.475286 0.4391
3926.213 0.46018 0.49798 0.49435 0.473865 0.49409 0.51884 0.48556 0.49523 0.51932 0.50266
3945.506 0.52298 0.5736 0.5326 0.48705 0.4391 0.3768 0.4094 0.4348 0.4266 0.3999
3964.800 0.3753 0.3873 0.344 0.298 0.317 0.37 0.433 0.3779 0.3782 0.4111
3984.093 0.37 0.361 0.4089 0.4502 0.436 0.3857 0.3759 0.431 0.46676
##END=
