##TITLE=N-Ethyl-p-toluenesulfonamide
##JCAMP-DX=4.24
##DATA TYPE=INFRARED SPECTRUM
##ORIGIN=EPA-IR VAPOR PHASE LIBRARY
##OWNER=SRD/NIST
Collection (C) 2018 copyright by the U.S. Secretary of Commerce
on behalf of the United States of America. All rights reserved.
##CAS REGISTRY NO=80-39-7
##MOLFORM=C 9 H 13 N O 2 S
##$NIST SOURCE=MSDC-IR
##STATE=gas
##XUNITS=1/CM
##YUNITS=ABSORBANCE
##XFACTOR=1.
##YFACTOR=0.001
##DELTAX=3.85796
##FIRSTX=501.5
##LASTX=4000.7
##FIRSTY=4.606
##MAXX=4000.7
##MINX=501.534
##MAXY=0.081236
##MINY=0
##NPOINTS=908
##XYDATA=(X++(Y..Y))
501.534 4.606 4.896 5.146 5.336 5.536 5.856 6.386 7.166 8.416 10.516
540.114 13.836 18.566 23.596 26.776 26.986 24.796 22.216 20.706 20.046 19.206
578.693 17.666 15.526 13.136 10.946 9.286 8.156 7.376 6.826 6.456 6.276
617.273 6.216 6.246 6.486 6.966 7.676 9.046 11.586 15.766 21.546 27.696
655.852 32.136 33.096 30.306 25.256 20.176 16.176 13.276 11.266 9.896 8.966
694.432 8.396 8.136 8.056 8.026 7.866 7.626 7.446 7.336 7.386 7.646
733.011 8.076 8.706 9.546 10.576 11.846 13.276 14.446 14.916 14.576 13.476
771.591 11.926 10.426 9.416 9.016 9.086 9.456 10.046 11.066 12.726 14.856
810.170 16.496 16.806 15.596 13.426 11.626 10.796 10.826 11.386 12.116 12.826
848.750 13.216 13.106 12.356 11.076 9.546 8.046 6.716 5.626 4.886 4.406
887.330 4.126 3.976 3.986 4.196 4.606 5.296 6.346 7.806 9.616 11.516
925.909 13.146 14.096 14.046 12.976 11.146 9.046 7.036 5.386 4.216 3.396
964.489 2.866 2.506 2.256 2.086 1.956 1.866 1.746 1.706 1.726 1.776
1003.068 1.976 2.296 2.916 3.806 4.456 4.716 4.716 4.676 5.136 6.136
1041.648 7.496 9.116 10.856 12.506 13.826 14.356 14.096 13.286 12.446 12.466
1080.227 13.946 17.156 21.806 26.226 28.546 27.916 24.466 20.156 16.776 14.516
1118.807 12.936 11.726 10.886 10.296 9.996 10.086 10.716 12.556 16.566 24.436
1157.387 38.016 57.246 74.916 81.236 73.526 54.356 33.746 20.266 13.206 9.546
1195.966 7.416 6.106 5.306 4.786 4.386 4.006 3.626 3.296 3.066 2.976
1234.546 2.876 2.776 2.786 2.846 2.956 3.116 3.376 3.706 4.066 4.476
1273.125 4.906 5.266 5.496 5.616 5.626 5.706 5.916 6.186 6.466 6.556
1311.705 6.606 6.946 7.706 9.036 11.026 13.706 17.096 21.176 25.746 30.226
1350.284 33.816 35.576 34.906 31.886 27.576 23.406 20.306 18.686 18.376 18.936
1388.864 20.066 21.606 23.636 26.106 28.466 29.836 29.476 27.256 23.566 19.406
1427.443 15.556 12.436 10.166 8.586 7.566 6.896 6.476 6.196 5.896 5.596
1466.023 5.296 4.996 4.786 4.726 4.896 5.376 6.136 6.776 6.786 6.086
1504.603 4.926 3.766 3.106 2.786 2.586 2.406 2.246 2.116 2.006 1.926
1543.182 1.836 1.766 1.716 1.706 1.736 1.786 1.836 1.916 2.066 2.286
1581.762 2.596 3.036 3.646 4.346 4.906 5.116 4.856 4.196 3.406 2.666
1620.341 2.126 1.796 1.616 1.516 1.496 1.526 1.536 1.486 1.396 1.256
1658.921 1.0893 0.9531 0.8367 0.7528 0.6931 0.6505 0.6199 0.5818 0.5623 0.5465
1697.500 0.5132 0.4919 0.4906 0.4776 0.4673 0.467 0.471 0.4855 0.4819 0.4907
1736.080 0.5227 0.5572 0.6169 0.6788 0.7192 0.7504 0.745 0.6941 0.6276 0.5811
1774.659 0.5744 0.6106 0.6903 0.8074 0.9384 1.0335 1.0332 0.9207 0.7459 0.5682
1813.239 0.456 0.4056 0.3819 0.3579 0.3377 0.3416 0.3463 0.3478 0.3501 0.3574
1851.819 0.3775 0.4093 0.4346 0.4379 0.4503 0.4841 0.5126 0.5364 0.5653 0.6204
1890.398 0.6973 0.7921 0.9097 1.0617 1.216 1.276 1.246 1.1236 0.9563 0.7865
1928.978 0.6598 0.5633 0.4919 0.4386 0.3968 0.3772 0.3588 0.3452 0.3362 0.3345
1967.557 0.3288 0.317 0.3047 0.2919 0.2778 0.25164 0.23003 0.21116 0.20266 0.19898
2006.137 0.19676 0.20102 0.19643 0.19031 0.19468 0.18858 0.17402 0.175361 0.17542 0.18763
2044.716 0.19057 0.16722 0.16969 0.177934 0.1644 0.1505 0.1484 0.158 0.1653 0.16808
2083.296 0.1586 0.1476 0.1595 0.17671 0.19071 0.20177 0.20296 0.20951 0.21589 0.20955
2121.875 0.19943 0.19873 0.180355 0.16745 0.1727 0.182553 0.19231 0.2012 0.21027 0.22863
2160.455 0.22561 0.19473 0.21263 0.24886 0.25962 0.2821 0.3035 0.2884 0.2857 0.2893
2199.035 0.26693 0.25273 0.25357 0.24308 0.21842 0.20317 0.20706 0.20656 0.21226 0.22775
2237.614 0.24671 0.2787 0.314 0.3538 0.3955 0.4346 0.4684 0.4798 0.4639 0.4126
2276.194 0.3536 0.3423 0.3456 0.3565 0.3734 0.3882 0.4028 0.397 0.3703 0.3488
2314.773 0.344 0.3434 0.3487 0.3573 0.3634 0.3325 0.3016 0.27101 0.24517 0.22413
2353.353 0.19088 0.182116 0.18926 0.19687 0.19854 0.19342 0.19681 0.21698 0.23824 0.25665
2391.932 0.26441 0.2834 0.3083 0.3267 0.3387 0.3309 0.3249 0.3267 0.3328 0.3168
2430.512 0.3058 0.2974 0.2886 0.3014 0.3023 0.2969 0.2967 0.2786 0.26295 0.25727
2469.092 0.2493 0.25737 0.24722 0.25792 0.2783 0.2837 0.3096 0.3243 0.3393 0.3647
2507.671 0.387 0.3892 0.3847 0.3661 0.348 0.3424 0.3293 0.3106 0.3019 0.2889
2546.251 0.2878 0.2985 0.29 0.3002 0.3156 0.3047 0.3269 0.3662 0.3863 0.4052
2584.830 0.3927 0.4013 0.4182 0.3875 0.3522 0.338 0.3104 0.27053 0.25529 0.24549
2623.410 0.24578 0.2421 0.20817 0.183079 0.179085 0.178607 0.18648 0.18756 0.18975 0.20847
2661.989 0.22506 0.23294 0.24995 0.2976 0.3392 0.3661 0.3831 0.4008 0.4451 0.4645
2700.569 0.4405 0.4171 0.3874 0.3681 0.361 0.3535 0.3845 0.4171 0.4583 0.5163
2739.148 0.5842 0.637 0.6559 0.6806 0.6878 0.6524 0.5931 0.556 0.5603 0.5667
2777.728 0.5666 0.5715 0.5786 0.6104 0.6678 0.7165 0.7221 0.7656 0.8439 0.8824
2816.308 0.9218 0.9875 1.0624 1.1272 1.206 1.316 1.456 1.616 1.826 2.106
2854.887 2.426 2.846 3.396 4.046 4.836 5.686 6.496 7.196 7.696 7.896
2893.467 7.776 7.486 7.216 7.086 7.136 7.406 7.876 8.606 9.726 11.186
2932.046 12.746 13.896 14.226 13.716 12.626 11.386 10.296 9.616 9.416 9.676
2970.626 10.436 11.506 12.546 13.066 12.696 11.526 10.046 8.696 7.616 6.846
3009.205 6.286 5.876 5.616 5.636 5.956 6.476 6.926 7.056 6.866 6.416
3047.785 5.916 5.446 4.916 4.516 4.346 4.226 3.956 3.496 2.996 2.616
3086.364 2.396 2.206 1.976 1.736 1.496 1.276 1.1236 1.0232 0.8946 0.7799
3124.944 0.7008 0.613 0.5411 0.4968 0.4845 0.4879 0.4626 0.441 0.4156 0.3803
3163.524 0.3743 0.3781 0.3545 0.3331 0.321 0.2849 0.2902 0.2851 0.26719 0.25643
3202.103 0.2243 0.2273 0.2117 0.1883 0.18603 0.18877 0.2277 0.21202 0.16843 0.178827
3240.683 0.1694 0.1646 0.164 0.1432 0.1208 0.1149 0.1206 0.1111 0.1169 0.1149
3279.262 0.1207 0.11 0.0933 0.1039 0.0953 0.0954 0.1191 0.17082 0.17142 0.1357
3317.842 0.181029 0.20874 0.20029 0.19995 0.18775 0.23819 0.2894 0.3241 0.3735 0.4062
3356.421 0.4919 0.5911 0.6485 0.7678 0.9226 1.1214 1.396 1.746 2.216 2.776
3395.001 3.476 4.286 5.146 5.976 6.616 6.846 6.556 5.826 4.826 3.746
3433.580 2.786 2.096 1.606 1.256 0.9568 0.7933 0.729 0.6476 0.5391 0.4702
3472.160 0.4222 0.3504 0.27193 0.2594 0.2911 0.26227 0.22308 0.180163 0.1615 0.16708
3510.740 0.17543 0.16643 0.1614 0.1515 0.1132 0.0894 0.1227 0.148 0.136 0.1386
3549.319 0.1089 0.1046 0.0857 0.0778 0.0946 0.0795 0.1078 0.1274 0.0936 0.1053
3587.899 0.1311 0.0989 0.07 0.073 0.046 0.02 0.021 0.037 0.066 0.068
3626.478 0.07 0.0978 0.1136 0.075 0.056 0.045 0.057 0.0894 0.0917 0.1131
3665.058 0.0988 0.0806 0.0919 0.1025 0.111 0.1032 0.1097 0.107 0.075 0.047
3703.637 0.1038 0.1377 0.07 0.0872 0.1116 0.0923 0.0976 0.0979 0.064 0.047
3742.217 0.049 0.0862 0.0809 0.009 0.039 0.054 0.058 0.0993 0.085 0.055
3780.797 0.068 0.061 0.046 0.071 0.058 0.04 0.047 0.056 0.08 0.07
3819.376 0.064 0.076 0.037 0.027 0.061 0.063 0.0799 0.1144 0.12 0.0915
3857.956 0.0773 0.1172 0.1088 0.1055 0.1323 0.1229 0.1021 0.075 0.0781 0.1131
3896.535 0.1071 0.0763 0.072 0.0858 0.0863 0.0835 0.1079 0.1384 0.1312 0.0849
3935.115 0.0935 0.065 0 0.039 0.066 0.051 0.058 0.075 0.0894 0.1362
3973.694 0.1365 0.1035 0.1323 0.1571 0.133 0.1319 0.1578 0.1509
##END=
