##TITLE=o-Sulfobenzoic anhydride
##JCAMP-DX=4.24
##DATA TYPE=INFRARED SPECTRUM
##ORIGIN=EPA-IR VAPOR PHASE LIBRARY
##OWNER=SRD/NIST
Collection (C) 2018 copyright by the U.S. Secretary of Commerce
on behalf of the United States of America. All rights reserved.
##CAS REGISTRY NO=81-08-3
##MOLFORM=C 7 H 4 O 4 S
##$NIST SOURCE=MSDC-IR
##STATE=gas
##XUNITS=1/CM
##YUNITS=ABSORBANCE
##XFACTOR=1.
##YFACTOR=0.001
##DELTAX=1.92898
##FIRSTX=549.8
##LASTX=4000.7
##FIRSTY=0.9698
##MAXX=4000.7
##MINX=549.759
##MAXY=0.027866
##MINY=0
##NPOINTS=1790
##XYDATA=(X++(Y..Y))
549.759 0.9698 0.5309 0.425 0.367238 0.253 0.5903 0.8673 0.7755 0.5995 0.7946
569.049 0.9935 0.9287 1.3104 2.156 3.186 4.426 5.696 6.586 6.806 6.816
588.339 6.926 7.056 6.686 5.866 5.046 4.026 3.026 2.496 2.316 2.286
607.628 1.936 1.836 1.956 1.776 1.596 1.2381 0.9098 0.8533 0.6257 0.45161
626.918 0.6245 0.5434 0.3274 0.3464 0.6518 0.6483 0.39578 0.3421 0.5234 0.7231
646.208 0.6327 0.7085 0.6949 0.6245 0.819 0.8999 1.0197 1.3537 1.906 2.446
665.498 2.646 3.056 3.416 3.316 2.816 2.526 2.586 2.316 1.946 1.666
684.787 1.566 1.476 1.2474 1.2892 1.546 1.616 1.516 1.466 1.3311 1.2228
704.077 1.3028 1.2151 0.8778 0.7504 0.752 0.4903 0.3441 0.3379 0.38743 0.5437
723.367 0.6422 0.8931 0.9375 0.8832 1.1879 1.406 1.566 2.066 2.746 3.396
742.657 4.186 5.206 6.616 8.196 9.116 9.076 8.526 7.866 7.386 7.176
761.947 6.786 6.016 5.106 4.136 3.296 2.566 2.116 2.006 2.016 2.136
781.236 2.276 2.426 2.376 2.506 2.926 3.406 4.156 5.006 5.866 6.976
800.526 8.266 9.296 10.086 10.856 11.406 11.756 11.886 11.796 11.326 10.386
819.816 9.386 8.426 7.526 6.606 5.676 4.966 4.466 3.976 3.516 3.206
839.106 3.216 3.236 3.056 2.766 2.446 2.186 1.916 1.736 1.536 1.446
858.395 1.546 1.396 1.1297 1.1429 1.1159 0.9912 1.0068 0.9832 0.8649 0.7628
877.685 0.8391 0.7414 0.7086 0.6737 0.763 0.8462 0.5517 0.377 0.5282 0.6819
896.975 0.5922 0.6058 0.5076 0.42459 0.42334 0.354 0.3252 0.46007 0.4991 0.5012
916.265 0.6062 0.45868 0.5151 0.6324 0.5146 0.5277 0.5786 0.7054 0.6562 0.5835
935.555 0.6993 0.6517 0.686 0.7877 0.7588 0.8691 0.8342 0.6714 0.6365 0.668
954.844 0.8937 1.0444 1.0468 1.1474 1.2523 1.1279 1.1424 1.3495 1.546 1.896
974.134 2.176 2.506 2.796 3.076 3.516 4.226 4.866 5.516 6.666 7.976
993.424 9.206 10.136 10.346 10.366 10.586 10.126 9.316 8.686 8.136 7.266
1012.714 6.326 5.656 5.296 5.326 5.466 5.586 5.766 5.776 5.496 5.116
1032.003 4.576 4.076 3.566 2.826 2.546 2.346 2.006 1.766 1.576 1.536
1051.293 1.456 1.636 1.746 1.826 1.926 2.006 1.936 1.826 2.016 2.026
1070.583 1.786 1.476 1.2945 1.1459 0.9954 0.7449 0.5871 0.5642 0.5373 0.6554
1089.873 0.4769 0.4802 0.7461 0.5372 0.44155 0.3328 0.5444 0.6162 0.155 0.012
1109.163 0.262 0.5625 0.5985 0.5985 0.8567 0.9064 0.8255 0.8856 0.8535 0.8597
1128.452 0.9658 1.2372 1.3215 1.3633 1.516 1.1268 0.8245 1.0625 1.0736 0.945
1147.742 0.9676 0.9259 0.9038 0.8867 1.0244 1.1347 1.221 1.3377 1.1694 1.0577
1167.032 1.486 1.646 1.2788 1.036 0.9205 1.1 1.376 1.476 1.416 1.696
1186.322 2.406 2.566 3.006 3.946 5.036 6.576 8.156 10.286 12.796 15.736
1205.611 19.146 22.386 25.056 26.746 27.716 27.866 26.636 24.496 21.806 18.536
1224.901 15.166 11.346 7.566 5.196 3.866 2.736 1.996 1.766 1.2386 0.8309
1244.191 0.7171 0.499 0.44447 0.4879 0.5834 0.6586 0.7951 0.8019 0.7378 0.8117
1263.481 0.7617 0.78 0.9589 1.0798 1.1325 1.2193 1.1837 1.1863 1.1481 1.1675
1282.771 1.2761 1.1312 1.0277 0.9977 0.8874 0.9701 1.0872 1.0624 0.9944 0.9059
1302.060 0.9126 0.9591 0.8598 0.8074 0.9042 0.9773 0.961 0.9172 0.9884 1.108
1321.350 1.1345 1.1454 1.2078 1.1819 1.0827 0.9931 0.9958 0.9969 0.92 0.8581
1340.640 0.8128 0.7681 0.7092 0.6667 0.6602 0.653 0.6199 0.5978 0.607 0.6488
1359.930 0.6727 0.696 0.768 0.7767 0.7436 0.7779 0.8559 0.947 1.1117 1.3159
1379.219 1.466 1.726 2.076 2.486 3.216 4.256 5.456 6.746 8.296 10.186
1398.509 12.136 13.786 15.126 16.896 19.856 23.166 23.546 19.406 14.616 12.256
1417.799 10.926 9.256 7.246 5.256 3.546 2.336 1.676 1.2095 0.9406 0.8794
1437.089 0.8169 0.7654 0.7932 0.8616 0.9964 1.1607 1.2861 1.426 1.576 1.686
1456.378 1.776 1.836 1.826 1.786 1.746 1.686 1.566 1.3629 1.1969 1.1069
1475.668 0.978 0.8853 0.7687 0.688 0.6812 0.6919 0.6763 0.6792 0.7835 0.8986
1494.958 0.9043 0.8585 0.8509 0.8086 0.787 0.7643 0.7014 0.6134 0.6005 0.6838
1514.248 0.7251 0.7272 0.7615 0.739 0.6527 0.6858 0.7475 0.7124 0.6362 0.5768
1533.538 0.5742 0.6398 0.6325 0.5922 0.6204 0.598 0.5847 0.6088 0.6742 0.7481
1552.827 0.7247 0.6265 0.5277 0.6194 0.7527 0.7234 0.6982 0.7216 0.677 0.6022
1572.117 0.5767 0.6114 0.6484 0.5671 0.5105 0.5354 0.6539 0.741 0.7122 0.752
1591.407 0.819 0.8214 0.8588 0.821 0.8139 0.9121 0.8627 0.8473 0.8467 0.7724
1610.697 0.6925 0.6304 0.6371 0.6558 0.6672 0.6957 0.6592 0.6148 0.6248 0.613
1629.986 0.5624 0.5367 0.5655 0.5153 0.4737 0.42615 0.38568 0.38603 0.3377 0.3472
1649.276 0.407 0.38093 0.43836 0.45755 0.372197 0.36031 0.373799 0.3778 0.37778 0.37678
1668.566 0.38809 0.3368 0.217 0.271 0.3385 0.3337 0.371993 0.3305 0.314 0.317
1687.856 0.262 0.246 0.203 0.218 0.2812 0.2812 0.277 0.3185 0.3471 0.2762
1707.146 0.224 0.251 0.249 0.195 0.173 0.175 0.185 0.248 0.252 0.197
1726.435 0.142 0.114 0.163 0.198 0.209 0.18 0.171 0.216 0.185 0.229
1745.725 0.2837 0.2674 0.291 0.265 0.259 0.2962 0.3418 0.39805 0.43732 0.42105
1765.015 0.41134 0.4765 0.5329 0.5551 0.6568 0.7667 0.7893 0.8554 0.9635 1.0315
1784.305 1.0876 1.1874 1.3426 1.526 1.736 1.946 2.086 2.336 2.686 3.026
1803.594 3.446 3.956 4.526 5.246 6.056 6.856 7.676 8.486 9.276 10.106
1822.884 10.966 11.906 13.006 14.286 15.866 17.656 19.496 21.216 22.606 23.436
1842.174 23.566 23.226 22.616 21.476 19.446 16.656 13.506 10.406 7.736 5.726
1861.464 4.276 3.256 2.546 2.066 1.726 1.506 1.3351 1.1715 1.089 1.009
1880.754 0.9388 0.9178 0.8797 0.8162 0.8069 0.8401 0.8174 0.7921 0.7442 0.6803
1900.043 0.663 0.6283 0.552 0.5808 0.6428 0.6186 0.6443 0.663 0.6059 0.5478
1919.333 0.5264 0.5182 0.5375 0.5578 0.5676 0.567 0.5537 0.5099 0.5221 0.5907
1938.623 0.5967 0.5866 0.5889 0.5832 0.6138 0.6109 0.5619 0.5924 0.5673 0.6027
1957.913 0.6622 0.6112 0.552 0.5168 0.492 0.46452 0.5456 0.5981 0.6349 0.6187
1977.202 0.556 0.6053 0.6137 0.5556 0.5482 0.5386 0.4937 0.4776 0.46287 0.45794
1996.492 0.45822 0.44653 0.36385 0.3357 0.36238 0.36228 0.4878 0.4954 0.41725 0.41717
2015.782 0.38669 0.3375 0.3443 0.43677 0.4719 0.3885 0.36226 0.42137 0.42903 0.43863
2035.072 0.44026 0.487 0.5017 0.42804 0.44325 0.41689 0.371411 0.39088 0.35855 0.3507
2054.362 0.41495 0.43022 0.35818 0.3135 0.3192 0.3228 0.3107 0.3162 0.313 0.242
2073.651 0.205 0.229 0.235 0.3044 0.3194 0.25 0.254 0.2756 0.25 0.244
2092.941 0.2704 0.3066 0.339 0.3168 0.2727 0.3062 0.3178 0.2788 0.3043 0.3092
2112.231 0.3089 0.2801 0.3249 0.271 0.187 0.3207 0.343 0.247 0.273 0.3514
2131.521 0.35616 0.3359 0.262 0.224 0.216 0.219 0.259 0.2808 0.262 0.26
2150.810 0.265 0.2858 0.3225 0.3097 0.3045 0.259 0.246 0.2728 0.261 0.209
2170.100 0.2764 0.36376 0.262 0.228 0.3197 0.3368 0.3284 0.231 0.213 0.3471
2189.390 0.40932 0.370948 0.279 0.2667 0.243 0.255 0.3455 0.38373 0.296 0.255
2208.680 0.305 0.3356 0.347 0.3201 0.3139 0.3249 0.3149 0.306 0.3109 0.2926
2227.970 0.365979 0.374167 0.2755 0.3274 0.2994 0.157 0.191 0.245 0.258 0.36334
2247.259 0.3245 0.2803 0.2979 0.265 0.2907 0.257 0.246 0.247 0.24 0.3031
2266.549 0.35828 0.35765 0.3222 0.3091 0.244 0.253 0.261 0.265 0.3379 0.342
2285.839 0.2882 0.3235 0.37686 0.3578 0.3005 0.2763 0.3173 0.2895 0.255 0.223
2305.129 0.242 0.2968 0.2959 0.3164 0.3547 0.37946 0.367096 0.35748 0.3146 0.3458
2324.418 0.367579 0.2753 0.2797 0.273 0.251 0.3377 0.38426 0.374515 0.40747 0.3238
2343.708 0.262 0.365987 0.3159 0.2 0.208 0.253 0.2801 0.2998 0.3395 0.2753
2362.998 0.2702 0.2988 0.25 0.2825 0.3278 0.231 0.165 0.251 0.2829 0.202
2382.288 0.158 0.215 0.251 0.231 0.237 0.268 0.249 0.2964 0.3259 0.2965
2401.578 0.3813 0.3163 0.223 0.245 0.262 0.3143 0.370932 0.3425 0.3556 0.39159
2420.867 0.39436 0.3446 0.2853 0.2709 0.3112 0.36188 0.367453 0.3299 0.245 0.223
2440.157 0.175 0.209 0.3109 0.2881 0.222 0.241 0.277 0.3483 0.3134 0.254
2459.447 0.2757 0.2679 0.2912 0.258 0.237 0.3194 0.3498 0.2734 0.22 0.2673
2478.737 0.3455 0.2895 0.241 0.3089 0.2927 0.212 0.153 0.202 0.295 0.3447
2498.026 0.3383 0.241 0.186 0.2892 0.42453 0.45657 0.44033 0.41825 0.3855 0.37655
2517.316 0.3526 0.38693 0.39966 0.3084 0.42178 0.5154 0.42328 0.35609 0.3427 0.3821
2536.606 0.41093 0.40242 0.3226 0.2771 0.2698 0.225 0.194 0.3058 0.38714 0.38326
2555.896 0.38363 0.3041 0.3279 0.289 0.216 0.264 0.2942 0.39594 0.37802 0.191
2575.186 0.176 0.231 0.2828 0.2857 0.2844 0.3458 0.2971 0.3026 0.36203 0.312
2594.475 0.3165 0.3369 0.3367 0.46265 0.4918 0.39551 0.35736 0.39415 0.4025 0.40554
2613.765 0.41827 0.39951 0.366242 0.37632 0.39198 0.2972 0.25 0.2802 0.3254 0.29
2633.055 0.192 0.2719 0.3024 0.2964 0.40957 0.4382 0.41018 0.3408 0.258 0.246
2652.345 0.39856 0.466 0.38488 0.3444 0.39538 0.41979 0.3301 0.2713 0.3072 0.219
2671.634 0.212 0.3443 0.40944 0.38174 0.35855 0.42388 0.371425 0.2939 0.2934 0.3156
2690.924 0.3017 0.182 0.158 0.304 0.351 0.372056 0.35771 0.2998 0.3107 0.3272
2710.214 0.3437 0.36423 0.3074 0.2983 0.225 0.242 0.44662 0.43619 0.268 0.208
2729.504 0.2851 0.2713 0.246 0.3334 0.39884 0.3289 0.3455 0.373095 0.2743 0.3399
2748.794 0.44531 0.42217 0.313 0.255 0.2746 0.2786 0.3236 0.41233 0.42907 0.3007
2768.083 0.192 0.216 0.3052 0.2781 0.223 0.2964 0.373783 0.4342 0.3544 0.232
2787.373 0.24 0.372481 0.40968 0.373271 0.40798 0.43564 0.45188 0.3513 0.39039 0.373716
2806.663 0.299 0.3243 0.234 0.194 0.40137 0.4699 0.44058 0.40526 0.176 0.111
2825.953 0.208 0.257 0.2791 0.255 0.2745 0.3013 0.195 0.222 0.3311 0.39211
2845.242 0.40023 0.40186 0.43736 0.45288 0.3199 0.144 0.3033 0.4518 0.2925 0.25
2864.532 0.3179 0.3111 0.244 0.40029 0.4945 0.3365 0.3033 0.38799 0.4945 0.45544
2883.822 0.38446 0.371787 0.368145 0.3574 0.3245 0.39434 0.38384 0.3003 0.39222 0.486
2903.112 0.4823 0.40979 0.3149 0.3122 0.3342 0.214 0.175 0.3478 0.45454 0.5597
2922.401 0.5234 0.2682 0.32 0.44333 0.4711 0.373516 0.233 0.3002 0.375031 0.38056
2941.691 0.43258 0.4814 0.4427 0.3004 0.189 0.199 0.262 0.2938 0.2699 0.365411
2960.981 0.3563 0.2902 0.35978 0.3441 0.3089 0.3324 0.3128 0.2967 0.26 0.3397
2980.271 0.39781 0.3279 0.2949 0.232 0.302 0.42385 0.4897 0.3058 0.2739 0.3269
2999.561 0.249 0.3015 0.3024 0.274 0.4251 0.53 0.41851 0.4678 0.558 0.527
3018.850 0.4638 0.36488 0.373372 0.5117 0.503 0.42986 0.5145 0.4824 0.37913 0.5028
3038.140 0.5684 0.45833 0.41605 0.3543 0.24 0.5015 0.5565 0.39097 0.4956 0.5408
3057.430 0.43303 0.4747 0.5151 0.4357 0.40405 0.4615 0.42974 0.381 0.5852 0.7154
3076.720 0.7585 0.8498 0.8767 0.8555 0.9768 1.0031 0.9312 0.939 1.0158 0.9946
3096.009 0.8914 0.7263 0.61 0.5299 0.3018 0.2729 0.3198 0.3774 0.4073 0.39992
3115.299 0.5519 0.6291 0.5096 0.41989 0.44877 0.38601 0.3333 0.3042 0.3875 0.42958
3134.589 0.38553 0.3189 0.234 0.3046 0.3194 0.3403 0.5098 0.4917 0.224 0.152
3153.879 0.222 0.2867 0.44202 0.6018 0.5001 0.353 0.2681 0.3199 0.6421 0.804
3173.169 0.7994 0.8668 0.7891 0.45889 0.3441 0.3042 0.213 0.4314 0.5143 0.4733
3192.458 0.519 0.512 0.41409 0.197 0.205 0.3523 0.38274 0.40805 0.38184 0.45078
3211.748 0.5098 0.349 0.45947 0.5298 0.46572 0.4822 0.43893 0.46322 0.2691 0.153
3231.038 0.123 0.155 0.45193 0.6902 0.5431 0.40664 0.38926 0.38977 0.3166 0.299
3250.328 0.45906 0.45649 0.3016 0.214 0.374152 0.3386 0.112 0.2756 0.36667 0.39452
3269.617 0.3855 0.2737 0.39388 0.42962 0.235 0.252 0.5025 0.45524 0.4848 0.5386
3288.907 0.3371 0.169 0.026 0.223 0.5148 0.42946 0.4879 0.6185 0.625 0.5484
3308.197 0.241 0.2876 0.40639 0.45538 0.6547 0.74 0.4839 0.26 0.38424 0.5098
3327.487 0.4842 0.175 0 0.104 0.313 0.3511 0.38457 0.43661 0.3283 0.40084
3346.777 0.40895 0.216 0.245 0.4806 0.5811 0.41754 0.43401 0.4764 0.4764 0.39477
3366.066 0.3501 0.4864 0.6104 0.6354 0.5612 0.618 0.42915 0.205 0.36318 0.38607
3385.356 0.2917 0.3307 0.3216 0.263 0.42579 0.6219 0.5951 0.5036 0.4251 0.5728
3404.646 0.5824 0.44681 0.45601 0.2954 0.208 0.2702 0.36251 0.43191 0.3557 0.3486
3423.936 0.3558 0.3371 0.237 0.35893 0.373805 0.264 0.486 0.5218 0.26 0.285
3443.225 0.47 0.3467 0.3044 0.3446 0.4163 0.3262 0.176 0.3031 0.255 0.3419
3462.515 0.6066 0.5463 0.40827 0.5225 0.6587 0.45734 0.3492 0.36189 0.375293 0.4696
3481.805 0.35892 0.4981 0.7971 0.6371 0.44806 0.3625 0.44537 0.6798 0.7418 0.5761
3501.095 0.38059 0.3336 0.3204 0.4931 0.6314 0.5375 0.5843 0.5921 0.372103 0.40348
3520.385 0.5133 0.46294 0.5086 0.485 0.4751 0.4964 0.40016 0.297 0.367247 0.5444
3539.674 0.5319 0.367313 0.215 0.162 0.3477 0.6108 0.5914 0.44679 0.4843 0.41038
3558.964 0.217 0.252 0.276 0.3491 0.3114 0.42196 0.5442 0.35851 0.42597 0.6046
3578.254 0.4867 0.5578 0.5695 0.3048 0.39932 0.44152 0.3346 0.248 0.202 0.2757
3597.544 0.2913 0.39291 0.6105 0.6907 0.6056 0.5224 0.41382 0.358 0.5491 0.7529
3616.833 0.709 0.4898 0.5198 0.7829 0.9802 0.7926 0.576 0.44936 0.45292 0.4856
3636.123 0.5674 0.634 0.66 0.8192 0.7421 0.5558 0.4869 0.4791 0.6348 0.8678
3655.413 0.9415 0.7103 0.4822 0.45659 0.4608 0.6245 0.6312 0.5583 0.6131 0.6549
3674.703 0.6393 0.6295 0.7336 0.7399 0.617 0.5038 0.46303 0.5674 0.4853 0.46583
3693.993 0.6635 0.45902 0.221 0.3497 0.40811 0.308 0.3423 0.4829 0.5244 0.369808
3713.282 0.3167 0.3538 0.223 0.233 0.370318 0.4242 0.3532 0.4696 0.6405 0.7708
3732.572 0.5987 0.36132 0.45903 0.3256 0.199 0.213 0.235 0.44819 0.5678 0.5878
3751.862 0.533 0.45103 0.40495 0.40385 0.5253 0.429 0.298 0.39609 0.40321 0.41252
3771.152 0.607 0.6622 0.44331 0.5099 0.5797 0.40904 0.5995 0.5161 0.3322 0.5031
3790.441 0.5296 0.5333 0.5853 0.5201 0.5543 0.7095 0.6709 0.42497 0.2721 0.2668
3809.731 0.38675 0.38927 0.45968 0.6612 0.6602 0.5375 0.40912 0.2961 0.3005 0.36147
3829.021 0.45047 0.41421 0.192 0.257 0.4914 0.370145 0.215 0.42977 0.40646 0.3487
3848.311 0.5496 0.5703 0.43506 0.197 0.13 0.263 0.3537 0.2731 0.3069 0.44583
3867.601 0.3422 0.43356 0.7535 0.636 0.4869 0.5643 0.38814 0.3342 0.5625 0.4708
3886.890 0.23 0.167 0.2 0.41024 0.3254 0.244 0.39943 0.4667 0.43179 0.36285
3906.180 0.3326 0.3153 0.4684 0.6255 0.5574 0.38092 0.3174 0.2684 0.372024 0.6402
3925.470 0.7306 0.6599 0.5089 0.42801 0.674 0.5406 0.153 0.217 0.3444 0.4831
3944.760 0.5318 0.43806 0.5076 0.6208 0.40084 0.4973 0.7689 0.5484 0.3059 0.263
3964.049 0.14 0.171 0.4074 0.5609 0.5407 0.41448 0.4692 0.7292 0.7595 0.6047
3983.339 0.212 0.177 0.226 0.118 0.3328 0.36021 0.43146 0.5229 0.38674 0.41571
##END=
