##TITLE=1,4-Diamino-2,3-dihydroanthraquinone
##JCAMP-DX=4.24
##DATA TYPE=INFRARED SPECTRUM
##ORIGIN=EPA-IR VAPOR PHASE LIBRARY
##OWNER=SRD/NIST
Collection (C) 2018 copyright by the U.S. Secretary of Commerce
on behalf of the United States of America. All rights reserved.
##CAS REGISTRY NO=81-63-0
##MOLFORM=C 14 H 12 N 2 O 2
##$NIST SOURCE=MSDC-IR
##STATE=gas
##XUNITS=1/CM
##YUNITS=ABSORBANCE
##XFACTOR=1.
##YFACTOR=0.001
##DELTAX=3.85796
##FIRSTX=501.5
##LASTX=4000.7
##FIRSTY=1.52
##MAXX=4000.7
##MINX=501.534
##MAXY=0.13206
##MINY=0.0007596
##NPOINTS=908
##XYDATA=(X++(Y..Y))
501.534 1.52 1.62 2.08 3.16 5.16 8.24 11.35 13.15 12.88 10.77
540.114 7.83 5.06 3.03 1.92 1.48 1.29 1.36 1.5 1.66 1.99
578.693 2.46 2.85 3.2 3.84 4.63 4.93 4.49 3.42 2.27 1.58
617.273 1.31 1.24 1.26 1.47 1.86 2.5 3.4 4.37 5.3 5.76
655.852 5.55 4.87 3.98 3.38 3.53 4.43 5.82 6.98 6.79 5.88
694.432 5.01 4.29 3.77 3.38 3.21 3.16 3.25 3.46 3.75 4.18
733.011 4.59 5 5.76 6.88 8.31 9.92 11.99 14.91 19.34 25.09
771.591 31.01 34.73 30.38 22.31 17.34 14.85 14.64 15.26 16.01 17.14
810.170 19.37 22.47 24.64 24.17 20.9 16.27 12.06 8.99 6.97 5.53
848.750 4.52 3.85 3.37 3.06 3.02 3.14 3.12 2.95 2.55 2.11
887.330 1.87 1.85 1.95 2.09 2.19 2.23 2.28 2.51 2.92 3.58
925.909 4.58 6.03 7.89 9.6 10.38 9.8 8.17 6.42 5.29 5
964.489 5.23 5.49 6 7.42 9.85 11.8 11.8 10.15 8.67 9.08
1003.068 10.7 11.43 10.37 8.52 7.79 8.97 10.46 10.42 8.42 5.76
1041.648 4.01 3.3 3.07 3.12 3.42 4.11 5.3 6.86 9.1 12.67
1080.227 17.39 21.54 23.98 24.5 22.81 19.33 14.5 9.96 7.51 6.6
1118.807 6.45 6.87 7.73 9.14 11.19 13.88 17.37 23.83 35.29 45.47
1157.387 46.71 37.87 26.08 20.8 23.05 30.78 42.21 53.1 57.61 53.39
1195.966 42.95 31.79 23.87 19.14 17.32 17.85 19.31 20.65 21.24 21.05
1234.546 20.84 21.98 26.08 33.38 40.63 43.42 40.44 34.36 30 29.62
1273.125 31.92 35.41 39.16 42.42 44.5 45.14 44.66 44.32 45.55 48.61
1311.705 53.3 59.41 66.11 70.95 71.11 65.96 57.65 49.3 42.66 37.85
1350.284 34.58 32.56 31.41 31.2 32.45 35.71 41.92 52.4 68.51 90.05
1388.864 112.3 125.22 121.76 103.23 78.81 59.65 49 43.52 40.33 38.92
1427.443 38.43 36.84 34.03 30.94 29.84 31.36 33.91 36.42 38.48 39.44
1466.023 38.83 36.3 31.96 27.04 22.83 20.34 20.38 23.64 30.76 39.31
1504.603 43.13 38.78 28.5 18.31 12.37 9.62 8.25 7.49 7.08 6.97
1543.182 7.21 7.84 8.84 10.04 11.42 13.1 15.39 18.94 24.12 30.81
1581.762 36.95 40.18 39.08 34.66 29.62 26.06 24.59 25.02 26.79 29.19
1620.341 31.59 34.11 37.61 43.11 52.11 65.99 85.31 109.18 128.04 132.06
1658.921 117.75 91.41 65.73 46.88 34.41 26.24 20.75 16.79 14.06 12.13
1697.500 10.66 9.63 8.94 8.47 8.13 7.77 7.36 6.97 6.63 6.39
1736.080 6.23 6.06 5.84 5.59 5.38 5.21 4.96 4.68 4.46 4.33
1774.659 4.21 4.08 3.92 3.77 3.62 3.47 3.33 3.17 3 2.87
1813.239 2.8 2.79 2.79 2.85 2.97 3.1 3.17 3.1 2.93 2.79
1851.819 2.73 2.71 2.62 2.42 2.17 1.96 1.84 1.78 1.72 1.65
1890.398 1.61 1.59 1.58 1.56 1.58 1.64 1.73 1.85 2.02 2.15
1928.978 2.2 2.15 2.08 2.1 2.22 2.26 2.17 2.06 2.06 2.19
1967.557 2.29 2.21 1.98 1.73 1.58 1.5 1.46 1.43 1.38 1.33
2006.137 1.29 1.26 1.21 1.18 1.19 1.23 1.27 1.28 1.27 1.24
2044.716 1.22 1.18 1.13 1.13 1.13 1.11 1.11 1.12 1.12 1.11
2083.296 1.11 1.12 1.1 1.11 1.13 1.16 1.19 1.24 1.28 1.3
2121.875 1.33 1.35 1.37 1.37 1.37 1.39 1.39 1.41 1.43 1.43
2160.455 1.39 1.36 1.32 1.3 1.29 1.25 1.21 1.19 1.19 1.17
2199.035 1.17 1.18 1.18 1.15 1.16 1.19 1.2 1.22 1.25 1.29
2237.614 1.32 1.34 1.34 1.33 1.33 1.32 1.33 1.32 1.36 1.4
2276.194 1.45 1.52 1.55 1.57 1.6 1.63 1.68 1.72 1.77 1.84
2314.773 1.84 1.78 1.73 1.69 1.63 1.61 1.59 1.56 1.53 1.5
2353.353 1.47 1.46 1.47 1.48 1.51 1.54 1.58 1.63 1.67 1.69
2391.932 1.71 1.75 1.78 1.8 1.83 1.86 1.88 1.88 1.9 1.92
2430.512 1.93 1.96 1.99 2.01 2.06 2.09 2.09 2.1 2.13 2.15
2469.092 2.14 2.15 2.18 2.22 2.27 2.3 2.32 2.35 2.39 2.46
2507.671 2.51 2.58 2.65 2.69 2.7 2.69 2.69 2.7 2.72 2.73
2546.251 2.77 2.82 2.85 2.92 2.96 2.98 2.98 2.97 2.99 3.01
2584.830 3.07 3.13 3.15 3.21 3.27 3.31 3.4 3.49 3.57 3.64
2623.410 3.68 3.65 3.6 3.58 3.63 3.7 3.77 3.85 3.95 4.07
2661.989 4.15 4.18 4.22 4.29 4.39 4.48 4.56 4.64 4.73 4.76
2700.569 4.81 4.9 4.95 4.93 4.88 4.81 4.76 4.74 4.76 4.82
2739.148 4.9 4.94 4.97 5.01 5.02 5.03 4.95 4.84 4.8 4.76
2777.728 4.72 4.71 4.66 4.64 4.64 4.65 4.71 4.79 4.94 5.08
2816.308 5.22 5.38 5.58 5.8 6.05 6.28 6.34 6.24 6.03 5.77
2854.887 5.56 5.41 5.31 5.25 5.2 5.2 5.24 5.32 5.43 5.6
2893.467 5.83 6.2 6.76 7.61 8.58 9.27 9.2 8.5 7.7 7.06
2932.046 6.69 6.5 6.43 6.36 6.33 6.43 6.63 7.02 7.67 8.78
2970.626 10.57 12.66 13.87 13.45 11.75 9.86 8.64 8 7.64 7.47
3009.205 7.41 7.39 7.42 7.48 7.52 7.6 7.75 7.97 8.2 8.48
3047.785 8.85 9.25 9.67 10.16 10.81 11.67 12.64 13.71 14.8 15.52
3086.364 15.14 13.53 11.32 9.54 8.44 7.75 7.38 7.22 7.1 6.98
3124.944 6.89 6.8 6.73 6.69 6.67 6.62 6.51 6.43 6.35 6.26
3163.524 6.21 6.17 6.14 6.15 6.09 6.02 6.01 5.91 5.82 5.7
3202.103 5.55 5.43 5.33 5.25 5.15 5.05 5.02 4.98 4.9 4.87
3240.683 4.79 4.68 4.64 4.62 4.62 4.64 4.65 4.69 4.79 4.84
3279.262 4.89 4.96 5.03 5.1 5.08 5 4.89 4.74 4.58 4.34
3317.842 4.08 3.91 3.77 3.61 3.47 3.35 3.23 3.15 3.09 2.95
3356.421 2.83 2.81 2.82 2.77 2.68 2.66 2.63 2.58 2.55 2.51
3395.001 2.45 2.42 2.36 2.28 2.26 2.23 2.18 2.15 2.14 2.11
3433.580 2.08 2.04 1.99 1.97 1.94 1.94 1.93 1.85 1.78 1.78
3472.160 1.79 1.72 1.64 1.62 1.59 1.57 1.56 1.6 1.59 1.52
3510.740 1.5 1.47 1.45 1.41 1.35 1.31 1.3 1.3 1.28 1.22
3549.319 1.17 1.18 1.19 1.13 1.1 1.13 1.19 1.21 1.12 1.03
3587.899 0.9961 1 1.04 1.07 1.01 0.9759 0.9647 0.9394 0.9429 0.9409
3626.478 0.9059 0.9209 0.9656 0.9552 0.9439 0.9187 0.8789 0.8456 0.8529 0.88
3665.058 0.8358 0.8016 0.8322 0.8578 0.8404 0.799 0.7685 0.7977 0.8624 0.8391
3703.637 0.8403 0.8602 0.8098 0.805 0.8393 0.8842 0.8839 0.8657 0.8575 0.8764
3742.217 0.9139 0.9003 0.7987 0.7807 0.8434 0.8405 0.8514 0.8419 0.8134 0.8265
3780.797 0.861 0.8619 0.8068 0.7756 0.8484 0.8348 0.7789 0.8032 0.8188 0.7847
3819.376 0.7596 0.7825 0.7972 0.8237 0.8022 0.778 0.7892 0.7927 0.8381 0.8629
3857.956 0.8498 0.8336 0.8029 0.8105 0.8213 0.8283 0.8622 0.9066 0.9372 0.917
3896.535 0.8497 0.8314 0.8454 0.8357 0.8482 0.8581 0.8598 0.9367 0.9252 0.8323
3935.115 0.8976 0.9862 0.9349 0.9193 0.9175 0.8989 0.9288 0.9441 0.9588 0.9325
3973.694 0.9367 0.9217 0.8784 0.9253 0.9236 0.8991 0.9105 0.9099
##END=
