##TITLE=Warfarin
##JCAMP-DX=4.24
##DATA TYPE=INFRARED SPECTRUM
##ORIGIN=NIST Mass Spectrometry Data Center
##OWNER=NIST Standard Reference Data Program
Collection (C) 2018 copyright by the U.S. Secretary of Commerce
on behalf of the United States of America. All rights reserved.
##CAS REGISTRY NO=81-81-2
##MOLFORM=C 19 H 16 O 4
##$NIST SOURCE=MSDC-IR
##SPECTROMETER/DATA SYSTEM=HP-GC/MS/IRD
##STATE=gas
##XUNITS=1/CM
##YUNITS=ABSORBANCE
##XFACTOR=1.0
##YFACTOR=0.000003700
##DELTAX=4.0
##FIRSTX=550.0
##LASTX=3846.0
##FIRSTY=0.000644
##MAXX=3846
##MINX=550
##MAXY=0.037
##MINY=0
##NPOINTS=825
##XYDATA=(X++(Y..Y))
550.0 174 192 119 48 31 49 50 4 22 90
590.0 174 226 157 63 43 69 107 102 57 24
630.0 14 10 12 24 32 51 88 97 74 78
670.0 109 131 155 208 365 658 907 855 582 366
710.0 262 242 275 295 292 286 311 414 661 1119
750.0 1779 2147 1781 1062 523 262 186 166 139 113
790.0 98 97 94 74 55 46 34 30 41 68
830.0 117 203 373 569 654 623 558 462 321 202
870.0 138 119 120 125 143 236 378 467 431 328
910.0 239 164 100 92 96 94 117 142 178 207
950.0 226 268 368 573 934 1398 1771 1841 1480 890
990.0 465 305 281 318 452 759 1294 1811 1962 1783
1030.0 1464 1022 588 354 247 176 142 137 153 196
1070.0 284 339 302 260 242 266 397 597 704 629
1110.0 417 216 140 146 186 268 393 618 923 1071
1150.0 949 742 755 1092 1725 2274 2290 1902 1664 1859
1190.0 2337 2674 2508 1985 1551 1420 1387 1224 933 636
1230.0 455 360 318 320 321 317 321 355 443 612
1270.0 835 941 867 751 785 1004 1248 1316 1158 978
1310.0 954 1077 1159 1035 764 525 405 356 336 327
1350.0 327 361 453 628 937 1439 2142 2769 2846 2276
1390.0 1539 1037 727 516 377 289 242 220 218 226
1430.0 239 263 290 325 456 714 940 893 587 312
1470.0 206 207 286 455 688 870 860 676 461 313
1510.0 221 154 109 85 72 69 65 56 53 54
1550.0 57 63 69 82 102 139 189 232 260 279
1590.0 338 459 629 821 947 942 859 803 866 1145
1630.0 1663 2178 2276 1836 1200 736 494 373 310 290
1670.0 293 311 346 407 505 637 797 970 1088 1058
1710.0 911 768 695 686 748 893 1134 1569 2480 4406
1750.0 7498 10000 9517 6535 3700 2158 1414 1015 777 621
1790.0 517 437 374 320 264 221 193 169 153 142
1830.0 133 123 110 99 98 112 119 112 108 105
1870.0 101 95 96 96 90 78 67 61 67 79
1910.0 94 102 95 81 82 98 118 137 151 154
1950.0 151 134 105 76 53 40 37 30 25 31
1990.0 33 38 42 35 29 27 18 11 6 8
2030.0 13 12 14 18 16 14 17 11 7 8
2070.0 2 1 4 9 15 14 15 13 7 11
2110.0 17 11 8 5 8 12 9 6 9 14
2150.0 15 16 17 17 16 17 16 11 10 12
2190.0 13 14 13 10 8 5 4 6 5 13
2230.0 23 24 26 26 19 13 12 12 10 11
2270.0 15 14 12 16 19 20 25 24 17 15
2310.0 16 13 13 14 15 14 22 24 22 19
2350.0 22 28 23 18 22 17 8 5 4 5
2390.0 10 12 14 14 14 17 17 13 12 11
2430.0 9 12 15 16 20 25 31 35 36 43
2470.0 41 39 38 39 34 26 17 11 9 12
2510.0 15 13 15 14 18 19 15 9 12 18
2550.0 17 16 7 2 3 11 16 19 27 27
2590.0 20 18 17 16 14 11 8 9 14 11
2630.0 13 12 4 6 9 10 11 8 12 12
2670.0 7 5 7 1 0 5 4 7 7 1
2710.0 2 12 10 3 4 4 6 10 11 15
2750.0 23 23 19 14 16 20 18 17 12 13
2790.0 8 3 7 18 24 19 18 25 33 37
2830.0 40 37 29 30 40 46 53 71 85 97
2870.0 113 111 98 98 108 128 158 179 202 207
2910.0 170 129 111 124 175 257 342 354 268 163
2950.0 111 113 150 203 223 197 150 119 99 89
2990.0 105 154 221 263 253 215 188 203 260 352
3030.0 440 488 479 426 376 352 377 464 612 795
3070.0 905 870 754 674 639 571 438 303 209 164
3110.0 135 108 91 86 72 51 43 43 39 36
3150.0 41 36 25 35 40 25 16 19 23 25
3190.0 19 9 14 15 5 9 18 28 30 26
3230.0 23 26 27 23 23 15 7 20 33 24
3270.0 19 16 15 15 2 1 6 14 22 12
3310.0 17 27 16 8 10 12 7 12 16 23
3350.0 35 35 20 28 33 16 17 23 31 32
3390.0 28 31 35 35 29 15 29 43 36 28
3430.0 22 32 40 42 47 41 44 47 54 77
3470.0 80 78 88 107 136 150 142 131 113 94
3510.0 83 76 68 74 73 69 56 46 48 50
3550.0 44 39 39 34 40 47 54 56 41 40
3590.0 44 43 55 50 36 37 37 48 49 46
3630.0 45 44 56 58 55 48 31 30 19 12
3670.0 20 26 29 39 46 42 38 45 57 61
3710.0 65 63 55 52 48 47 52 51 46 53
3750.0 65 66 58 51 49 49 42 42 53 56
3790.0 58 60 65 51 40 39 45 55 45 44
3830.0 55 54 50 53 51
##END=
