##TITLE=3-Bromobenzanthrone
##JCAMP-DX=4.24
##DATA TYPE=INFRARED SPECTRUM
##ORIGIN=NIST Mass Spectrometry Data Center
##OWNER=NIST Standard Reference Data Program
Collection (C) 2018 copyright by the U.S. Secretary of Commerce
on behalf of the United States of America. All rights reserved.
##CAS REGISTRY NO=81-96-9
##MOLFORM=C 17 H 9 Br O
##$NIST SOURCE=MSDC-IR
##SPECTROMETER/DATA SYSTEM=HP-GC/MS/IRD
##STATE=gas
##XUNITS=1/CM
##YUNITS=ABSORBANCE
##XFACTOR=1.0
##YFACTOR=0.000002300
##DELTAX=4.0
##FIRSTX=550.0
##LASTX=3846.0
##FIRSTY=0.000414
##MAXX=3846
##MINX=550
##MAXY=0.023
##MINY=0
##NPOINTS=825
##XYDATA=(X++(Y..Y))
550.0 180 218 173 172 164 111 83 49 55 98
590.0 119 173 169 147 152 131 154 168 206 198
630.0 107 40 37 74 106 227 384 384 285 303
670.0 540 875 965 725 643 954 1285 1161 739 397
710.0 186 101 85 91 113 139 241 432 668 803
750.0 654 461 470 778 1595 3035 4542 4689 3484 2402
790.0 1749 1160 598 297 201 177 222 325 385 433
830.0 563 793 881 643 370 194 107 84 62 57
870.0 77 93 108 152 219 272 282 242 165 92
910.0 61 56 53 77 110 204 400 684 822 652
950.0 348 164 108 58 26 17 13 32 47 63
990.0 88 88 101 153 190 220 319 465 723 1202
1030.0 2215 3560 3920 2834 1514 800 509 480 510 609
1070.0 926 1261 1177 768 584 652 616 451 341 282
1110.0 266 329 365 302 230 214 195 165 170 184
1150.0 204 234 252 255 287 331 372 457 551 586
1190.0 590 608 672 780 876 881 769 623 549 549
1230.0 568 574 588 651 746 799 856 1041 1452 1979
1270.0 2288 2195 1891 1766 1968 2423 2887 2921 2493 2332
1310.0 3038 3993 4057 3109 2015 1296 922 766 702 644
1350.0 543 446 421 490 671 977 1502 2197 2585 2217
1390.0 1426 846 570 445 365 287 235 207 177 154
1430.0 159 190 266 407 687 1091 1375 1406 1208 833
1470.0 510 435 499 510 437 394 460 562 594 498
1510.0 341 219 156 148 160 175 193 229 336 512
1550.0 760 1122 1681 2494 3118 3007 2299 1731 1626 1687
1590.0 1715 1701 1720 1774 1777 1662 1405 1066 790 626
1630.0 544 531 572 642 743 933 1242 1642 2353 4073
1670.0 7301 10000 9247 5687 2527 1248 769 556 455 422
1710.0 414 401 399 391 369 325 274 225 191 179
1750.0 188 196 184 155 137 126 111 110 100 84
1790.0 78 84 87 89 83 80 94 106 111 116
1830.0 122 123 115 105 116 155 216 281 306 274
1870.0 206 150 113 95 83 66 64 76 90 109
1910.0 139 162 148 117 97 97 119 133 134 134
1950.0 132 144 176 199 190 153 101 62 50 46
1990.0 44 39 31 28 27 25 22 24 30 25
2030.0 23 37 42 32 29 33 25 18 24 30
2070.0 27 23 19 18 20 22 29 26 26 30
2110.0 30 32 34 28 23 30 30 24 25 21
2150.0 23 23 20 21 27 28 27 27 30 28
2190.0 24 20 20 21 23 25 25 17 17 25
2230.0 25 26 27 21 32 42 34 33 36 38
2270.0 39 29 32 33 25 30 34 34 28 22
2310.0 28 40 38 32 29 30 39 36 34 41
2350.0 43 32 34 47 39 37 39 34 31 33
2390.0 39 36 33 31 38 39 35 32 29 23
2430.0 18 17 12 19 21 27 33 28 30 32
2470.0 26 26 35 40 35 38 38 36 35 21
2510.0 20 26 27 32 40 39 42 50 50 40
2550.0 31 26 19 20 32 41 40 32 32 39
2590.0 46 46 40 37 47 57 46 41 43 41
2630.0 36 28 20 23 25 22 24 22 15 22
2670.0 18 15 22 29 21 15 20 19 21 20
2710.0 15 19 17 23 35 24 15 15 12 12
2750.0 11 17 15 10 14 29 26 17 23 20
2790.0 11 15 17 10 2 0 13 17 19 21
2830.0 10 10 16 19 26 22 16 28 27 23
2870.0 25 28 38 43 40 40 41 38 45 44
2910.0 30 25 32 31 14 12 29 16 8 34
2950.0 47 38 37 41 39 36 35 35 32 42
2990.0 60 71 83 97 101 117 141 155 171 213
3030.0 276 356 421 457 459 459 499 600 768 987
3070.0 1228 1433 1495 1340 1084 864 685 554 443 353
3110.0 266 196 159 131 125 124 106 86 85 88
3150.0 72 60 65 62 34 21 27 29 30 25
3190.0 35 40 28 20 25 42 57 41 38 44
3230.0 23 24 36 33 38 38 27 45 71 63
3270.0 47 50 45 53 50 37 50 36 35 45
3310.0 52 67 75 94 110 129 146 154 144 112
3350.0 89 76 63 54 55 54 56 69 60 21
3390.0 14 35 49 57 46 40 51 43 42 33
3430.0 17 32 35 22 33 47 33 36 55 42
3470.0 61 75 54 43 40 41 51 41 37 41
3510.0 47 49 49 62 60 60 62 52 46 24
3550.0 22 37 55 59 51 50 66 70 75 71
3590.0 38 30 44 43 25 26 38 37 32 20
3630.0 19 32 41 35 37 41 25 27 56 71
3670.0 61 34 15 19 38 33 23 29 32 45
3710.0 53 35 30 44 49 45 51 53 54 58
3750.0 50 54 46 21 20 40 47 36 22 24
3790.0 38 36 28 42 42 37 33 24 39 52
3830.0 37 28 43 64 61
##END=
