##TITLE=.alpha.-Chloro-4'-fluoropropiophenone
##JCAMP-DX=4.24
##DATA TYPE=INFRARED SPECTRUM
##ORIGIN=EPA-IR VAPOR PHASE LIBRARY
##OWNER=SRD/NIST
Collection (C) 2018 copyright by the U.S. Secretary of Commerce
on behalf of the United States of America. All rights reserved.
##CAS REGISTRY NO=81112-09-6
##MOLFORM=C 9 H 8 Cl F O
##$NIST SOURCE=MSDC-IR
##STATE=gas
##XUNITS=1/CM
##YUNITS=ABSORBANCE
##XFACTOR=1.
##YFACTOR=0.001
##DELTAX=1.92898
##FIRSTX=549.8
##LASTX=4000.7
##FIRSTY=3.08
##MAXX=4000.7
##MINX=549.759
##MAXY=0.13451
##MINY=0.00002393
##NPOINTS=1790
##XYDATA=(X++(Y..Y))
549.759 3.08 3.11 3.27 3.46 3.35 3.49 4.23 5.17 6.12 7.07
569.049 8.27 9.25 10.03 10.56 11.05 12.02 12.89 13.63 14.42 14.93
588.339 15.29 15.79 16.21 16.51 16.66 16.91 17.45 18.26 19.07 19.74
607.628 20.18 20.08 19.73 18.92 17.65 16.1 14.39 12.84 11.45 10.39
626.918 9.47 8.5 7.82 7.29 6.7 6.11 5.64 5.24 4.95 4.45
646.208 3.79 3.45 3.21 3.09 3.11 2.96 2.87 2.88 2.86 2.88
665.498 2.73 2.76 2.9 2.94 2.9 2.86 2.83 2.84 2.93 3.02
684.787 2.97 2.91 2.9 2.94 2.97 2.94 3.01 3.03 3.12 3.27
704.077 3.43 3.6 3.75 3.99 4.37 4.86 5.3 5.77 6.27 6.88
723.367 7.5 7.75 7.86 7.92 7.72 7.28 6.71 5.99 5.24 4.81
742.657 4.57 4.27 4.1 4.09 4.32 4.81 5.47 6 6.59 7.5
761.947 8.31 8.91 9.29 9.09 8.36 7.61 6.72 5.78 4.91 4.17
781.236 3.64 3.14 2.82 2.64 2.49 2.62 2.89 3.23 3.72 4.14
800.526 4.61 5.43 6.35 7.13 7.85 8.59 9.03 8.96 8.85 8.97
819.816 9.27 9.94 11.22 13 15.14 17.29 19.6 22.38 25.34 28.06
839.106 30.37 32.24 34.13 35.82 36.36 35.16 31.72 27.39 23.55 19.95
858.395 16.02 12.45 9.88 7.97 6.35 5.24 4.64 4.27 3.97 3.75
877.685 3.61 3.5 3.31 3.1 2.94 2.69 2.37 2.12 2.07 2.03
896.975 1.92 1.91 2.05 1.86 1.82 2.04 2.14 2.24 2.28 2.36
916.265 2.54 2.81 2.98 3.42 4.05 4.48 5.18 6.05 7.28 8.83
935.555 10.65 13.04 15.93 19.28 23.04 27.12 31.25 34.52 36.48 37.04
954.844 35.87 33.45 29.97 25.59 21.09 17.25 14.42 12.41 10.86 9.77
974.134 8.98 8.4 7.98 7.77 7.79 8.13 8.69 9.06 9.61 10.61
993.424 11.44 12.27 13.38 14.25 14.92 15.39 15.5 15.49 15.27 14.3
1012.714 12.99 11.5 9.79 8.54 7.05 5.45 4.41 3.87 3.42 3.08
1032.003 2.94 2.83 2.83 2.75 2.87 3.11 2.94 3.11 3.52 3.65
1051.293 4.06 4.73 5.43 5.98 6.27 6.37 6.39 6.39 6.19 5.81
1070.583 5.47 5.11 4.7 4.37 4.35 4.41 4.74 4.94 5.24 5.77
1089.873 6.2 6.91 7.08 6.96 7.2 7.44 7.33 6.92 6.33 6.21
1109.163 5.91 5.19 4.46 3.68 3.47 3.43 3.11 3.05 3.12 3.12
1128.452 3.11 3.1 3.29 3.62 3.96 3.92 4.11 4.86 6.15 8.09
1147.742 10.88 16.48 26.49 40.09 51.66 55.89 57.31 57.75 55.98 49.26
1167.032 35.95 23.15 15.27 11.94 11.08 11.09 11.92 13.84 16.43 19.71
1186.322 23.94 28.74 33.7 38.1 41.76 44.22 45.04 44.75 43.21 40.25
1205.611 36.97 34.69 33.1 32.16 32.35 33.05 34.19 36.14 38.86 42.16
1224.901 46.74 53.09 61.67 73.07 87.22 102.7 117.49 128.79 134.39 134.51
1244.191 128.97 117.41 100.37 80.47 61.81 47.57 38.2 32.37 28.72 26.42
1263.481 25.04 24.19 23.4 22.48 21.48 20.03 18.53 16.91 15.01 13.46
1282.771 12.26 11.42 10.82 10.6 10.71 10.71 10.67 10.54 10.29 10.15
1302.060 9.99 9.77 9.68 9.69 9.76 10.11 10.81 11.66 12.6 13.93
1321.350 15.57 17.37 19.39 21.6 23.87 25.8 27.31 28.01 27.72 26.57
1340.640 24.78 22.56 19.92 17.13 14.56 12.55 10.97 9.68 8.71 7.94
1359.930 7.27 6.81 6.52 6.37 6.44 6.69 7.15 7.91 8.91 9.96
1379.219 10.72 11.02 11 10.75 10.26 9.35 8.19 7.31 6.97 7.18
1398.509 7.84 8.86 10.05 11.18 12.06 12.53 12.53 12.11 11.34 10.19
1417.799 8.81 7.59 6.85 6.36 6.03 5.88 5.86 5.88 6.06 6.46
1437.089 6.99 7.7 8.55 9.49 10.49 11.37 11.99 12.27 12.2 11.84
1456.378 11.16 10.2 9.24 8.28 7.33 6.48 5.85 5.45 5.14 4.85
1475.668 4.72 4.75 4.93 5.24 5.64 6.25 7.1 8.27 9.97 12.34
1494.958 15.61 19.91 25.21 31.25 37.28 42.12 44.87 45.31 43.66 40
1514.248 34.6 28.04 21.34 15.78 11.74 9.11 7.37 6.24 5.47 4.95
1533.538 4.65 4.47 4.41 4.44 4.52 4.7 4.87 5.02 5.19 5.34
1552.827 5.53 5.77 5.95 6.16 6.34 6.63 7.09 7.6 8.28 9.25
1572.117 10.58 12.26 14.29 17 20.48 24.71 29.89 36.18 43.42 51.7
1591.407 60.68 69.78 77.94 84 86.95 86.09 81.64 74.59 65.83 56.04
1610.697 46.52 38 30.82 25 20.41 16.86 13.97 11.61 9.78 8.3
1629.986 7.16 6.28 5.6 5.11 4.81 4.7 4.7 4.76 4.88 5.08
1649.276 5.29 5.45 5.63 5.82 5.99 6.16 6.27 6.47 6.75 6.99
1668.566 7.31 7.73 8.38 9.25 10.32 11.64 13.35 15.52 18.22 21.49
1687.856 25.18 29.31 33.94 39.1 45.04 51.79 59.08 66.74 73.39 78.29
1707.146 80.86 81.48 80.3 76.56 69.58 60.05 49.63 40.08 31.85 25.1
1726.435 19.83 15.75 12.71 10.55 8.9 7.72 6.83 6.14 5.6 5.14
1745.725 4.8 4.48 4.11 3.81 3.58 3.28 3 2.84 2.69 2.62
1765.015 2.63 2.55 2.51 2.57 2.58 2.5 2.34 2.24 2.1 1.87
1784.305 1.72 1.64 1.55 1.47 1.43 1.36 1.31 1.3 1.28 1.28
1803.594 1.26 1.19 1.17 1.18 1.08 1.05 1.08 1.1 1.11 1.05
1822.884 1.05 1.05 1.01 0.9841 0.9717 0.9305 0.9142 0.9218 0.9185 0.915
1842.174 0.8774 0.816 0.8108 0.8501 0.8615 0.8548 0.8564 0.8882 0.8938 0.9059
1861.464 0.9139 0.9023 0.9512 1.01 1.07 1.2 1.26 1.3 1.4 1.48
1880.754 1.53 1.59 1.61 1.61 1.62 1.58 1.55 1.59 1.59 1.6
1900.043 1.63 1.6 1.58 1.62 1.61 1.58 1.52 1.45 1.39 1.33
1919.333 1.35 1.36 1.32 1.33 1.32 1.25 1.19 1.15 1.07 0.9429
1938.623 0.9137 0.8947 0.8127 0.7398 0.7241 0.7002 0.6604 0.7132 0.7048 0.676
1957.913 0.7154 0.7338 0.7343 0.7565 0.8007 0.7843 0.7931 0.8093 0.7835 0.8007
1977.202 0.7561 0.6927 0.7467 0.833 0.89 0.8715 0.8553 0.8964 0.8723 0.8199
1996.492 0.7665 0.7066 0.6277 0.5125 0.4353 0.4847 0.4646 0.3456 0.357 0.4419
2015.782 0.4348 0.459 0.5649 0.5653 0.5709 0.5744 0.5801 0.6457 0.6374 0.5817
2035.072 0.5639 0.5596 0.5693 0.5974 0.5783 0.5842 0.6292 0.6547 0.7467 0.8458
2054.362 0.9183 0.9754 0.9603 0.9452 0.9529 0.9549 0.9977 1.06 1.06 0.962
2073.651 0.9032 0.8763 0.8278 0.7631 0.7131 0.6126 0.4802 0.4228 0.3838 0.3506
2092.941 0.3402 0.344 0.3145 0.2767 0.3073 0.3009 0.255 0.2794 0.3211 0.3075
2112.231 0.2808 0.2784 0.3041 0.2789 0.2715 0.2571 0.1935 0.2296 0.2595 0.201
2131.521 0.1501 0.2141 0.2259 0.1467 0.1534 0.1715 0.2035 0.2439 0.1847 0.1707
2150.810 0.1224 0.05603 0.1495 0.1696 0.132 0.1714 0.1961 0.1932 0.1827 0.2199
2170.100 0.2935 0.2549 0.1902 0.1829 0.1759 0.1467 0.1077 0.1234 0.1169 0.1264
2189.390 0.1471 0.214 0.2113 0.1608 0.2118 0.1942 0.1665 0.1724 0.1725 0.1685
2208.680 0.1305 0.1149 0.1913 0.2184 0.2122 0.1891 0.1456 0.1582 0.2269 0.287
2227.970 0.2506 0.2242 0.241 0.2312 0.2545 0.3317 0.3833 0.3079 0.2174 0.3004
2247.259 0.3453 0.3528 0.4212 0.4322 0.4142 0.4464 0.4751 0.4758 0.4968 0.5049
2266.549 0.5115 0.5041 0.4536 0.3863 0.3688 0.3782 0.3189 0.2297 0.1958 0.1821
2285.839 0.2114 0.2388 0.2348 0.2387 0.2111 0.2584 0.3185 0.3196 0.3429 0.2981
2305.129 0.2779 0.3496 0.3582 0.3529 0.3405 0.3747 0.4459 0.4704 0.461 0.4149
2324.418 0.3954 0.4192 0.5318 0.5483 0.4206 0.391 0.4066 0.435 0.4446 0.4468
2343.708 0.4277 0.3804 0.3514 0.3726 0.3669 0.3029 0.2766 0.286 0.3508 0.3618
2362.998 0.3531 0.3591 0.372 0.3867 0.3852 0.4231 0.4914 0.4742 0.4248 0.4881
2382.288 0.5702 0.6174 0.6223 0.6475 0.7611 0.8441 0.8472 0.9071 0.9994 1.04
2401.578 1.02 0.9854 0.9991 0.9654 0.8908 0.8613 0.8251 0.8426 0.8322 0.8759
2420.867 0.9588 0.9374 0.9042 0.9342 1.04 1.06 1.03 0.9751 0.989 0.9534
2440.157 0.8758 0.7776 0.7067 0.7481 0.7582 0.789 0.842 0.8394 0.8208 0.8232
2459.447 0.773 0.7319 0.7593 0.8908 0.9769 0.99 0.9939 1.03 1.08 1.12
2478.737 1.11 1.08 1.06 0.9565 0.8534 0.7791 0.7283 0.6559 0.5785 0.5651
2498.026 0.5144 0.4435 0.3688 0.3357 0.334 0.3153 0.3726 0.3953 0.3667 0.4354
2517.316 0.5085 0.4473 0.449 0.4548 0.4569 0.4892 0.445 0.4115 0.4685 0.4903
2536.606 0.4687 0.5519 0.5468 0.5075 0.5649 0.5535 0.5296 0.5362 0.5373 0.6296
2555.896 0.7159 0.8098 0.8864 0.8187 0.7887 0.8745 0.9409 1.01 1.08 1.1
2575.186 1.13 1.15 1.15 1.17 1.17 1.19 1.18 1.12 1.02 0.9727
2594.475 1.03 0.9128 0.7204 0.6537 0.6586 0.7158 0.6983 0.5532 0.4641 0.4386
2613.765 0.33 0.3132 0.3562 0.2974 0.3462 0.3136 0.1579 0.1776 0.2096 0.1915
2633.055 0.254 0.2988 0.2588 0.2557 0.2214 0.1018 0.08136 0.1658 0.251 0.294
2652.345 0.2368 0.1572 0.1543 0.2219 0.2304 0.2581 0.299 0.2373 0.2051 0.1949
2671.634 0.1891 0.2019 0.1413 0.1709 0.2576 0.2851 0.3315 0.2248 0.1216 0.1873
2690.924 0.2451 0.2138 0.1226 0.1349 0.2436 0.3104 0.3011 0.2939 0.3824 0.2645
2710.214 0.1587 0.2461 0.3044 0.295 0.2977 0.2643 0.2213 0.2108 0.2279 0.1925
2729.504 0.1799 0.2942 0.3194 0.3563 0.3687 0.3252 0.456 0.5858 0.5941 0.5461
2748.794 0.5002 0.5751 0.4754 0.3639 0.4005 0.3671 0.2403 0.1879 0.3345 0.3216
2768.083 0.2278 0.2308 0.1593 0.1866 0.2894 0.2964 0.2736 0.2855 0.3737 0.4152
2787.373 0.3403 0.3516 0.4569 0.4832 0.4715 0.463 0.4089 0.4144 0.4115 0.4074
2806.663 0.4694 0.5075 0.4987 0.454 0.3842 0.3889 0.4983 0.5006 0.4198 0.3774
2825.953 0.3307 0.3917 0.4493 0.3727 0.4193 0.5352 0.5558 0.4886 0.4529 0.4065
2845.242 0.3539 0.4652 0.6498 0.7447 0.757 0.7857 0.8167 0.8546 0.981 1.14
2864.532 1.17 1.23 1.33 1.5 1.74 1.77 1.81 1.92 2.04 2.14
2883.822 2.08 2.01 1.96 1.79 1.61 1.5 1.51 1.53 1.54 1.56
2903.112 1.56 1.49 1.38 1.38 1.44 1.47 1.58 1.65 1.65 1.78
2922.401 1.91 2.15 2.52 2.98 3.55 4.17 5.02 6.07 7 7.77
2941.691 8.3 8.51 8.33 7.87 7.24 6.42 5.7 5.29 4.99 4.75
2960.981 4.69 4.78 4.97 5.01 5.03 5.16 5.22 5.41 5.8 6.28
2980.271 6.99 7.95 8.94 9.87 10.59 10.86 10.86 10.83 10.59 9.84
2999.561 8.95 8.33 7.77 7.32 7.02 6.81 6.51 5.97 5.33 4.69
3018.850 4.05 3.34 2.81 2.43 2.1 1.9 1.67 1.51 1.5 1.44
3038.140 1.34 1.27 1.35 1.47 1.59 1.7 1.89 2.1 2.16 2.19
3057.430 2.33 2.56 2.67 2.71 2.87 2.97 3 3.13 3.27 3.47
3076.720 3.63 3.82 3.87 3.86 3.87 3.7 3.48 3.17 2.69 2.28
3096.009 1.94 1.73 1.61 1.55 1.59 1.6 1.53 1.46 1.52 1.56
3115.299 1.5 1.45 1.37 1.1 0.9323 0.8537 0.8285 0.7568 0.7175 0.751
3134.589 0.6175 0.5665 0.5946 0.4641 0.5429 0.606 0.4099 0.2752 0.4548 0.5694
3153.879 0.3366 0.2963 0.3871 0.4837 0.4566 0.4288 0.6104 0.5596 0.3716 0.4454
3173.169 0.3914 0.3057 0.5555 0.5969 0.494 0.5057 0.4947 0.5954 0.6699 0.6503
3192.458 0.6223 0.6026 0.5733 0.4839 0.3969 0.4151 0.5136 0.5227 0.4897 0.5129
3211.748 0.4855 0.4709 0.5476 0.6136 0.5155 0.433 0.479 0.537 0.5048 0.3026
3231.038 0.1912 0.187 0.1815 0.2331 0.2778 0.255 0.26 0.2881 0.2877 0.2595
3250.328 0.1525 0.226 0.3518 0.2861 0.2969 0.4492 0.3921 0.2647 0.2659 0.239
3269.617 0.1974 0.1288 0.2213 0.3293 0.4136 0.4314 0.3089 0.3077 0.3681 0.3431
3288.907 0.2919 0.35 0.4485 0.4391 0.3485 0.3312 0.3823 0.3876 0.3838 0.3733
3308.197 0.3512 0.3704 0.394 0.2645 0.224 0.3748 0.4995 0.49 0.3465 0.3187
3327.487 0.3049 0.2972 0.4172 0.3801 0.3197 0.3457 0.2426 0.2309 0.3302 0.3327
3346.777 0.293 0.2734 0.3792 0.6333 0.6401 0.5548 0.6047 0.5404 0.5908 0.6685
3366.066 0.5727 0.5669 0.7562 0.8263 0.6918 0.7159 0.7847 0.8602 1 1.13
3385.356 1.28 1.23 1.22 1.36 1.47 1.55 1.41 1.42 1.57 1.58
3404.646 1.48 1.3 1.2 1.03 0.8535 0.934 0.9278 0.8096 0.7915 0.77
3423.936 0.6319 0.5503 0.5918 0.5832 0.5492 0.4775 0.4079 0.4153 0.473 0.3936
3443.225 0.4396 0.4269 0.3383 0.4118 0.3965 0.3169 0.3205 0.4502 0.3869 0.1826
3462.515 0.1223 0.1115 0.2101 0.4047 0.3415 0.2314 0.3895 0.4326 0.4376 0.5027
3481.805 0.3963 0.375 0.4461 0.4205 0.4196 0.4819 0.377 0.2421 0.3158 0.2838
3501.095 0.2469 0.1971 0.1217 0.1731 0.2638 0.3436 0.3757 0.4462 0.2708 0.1645
3520.385 0.3164 0.2892 0.2623 0.3018 0.2659 0.3006 0.3937 0.495 0.426 0.2619
3539.674 0.2105 0.2762 0.276 0.1939 0.1993 0.256 0.3324 0.5517 0.4947 0.2479
3558.964 0.2551 0.3503 0.3289 0.2881 0.4902 0.5814 0.4477 0.3395 0.2593 0.2484
3578.254 0.2692 0.2178 0.282 0.3323 0.4338 0.3575 0.3498 0.5116 0.3763 0.3507
3597.544 0.4598 0.4459 0.3469 0.2662 0.2405 0.3014 0.2848 0.2838 0.3092 0.3204
3616.833 0.4164 0.4959 0.3247 0.2952 0.401 0.3251 0.3441 0.3165 0.3149 0.3703
3636.123 0.294 0.2272 0.2656 0.2909 0.3781 0.3437 0.2766 0.3563 0.3507 0.2794
3655.413 0.2184 0.3079 0.4672 0.3926 0.2126 0.2662 0.4258 0.4085 0.4389 0.4269
3674.703 0.2851 0.3531 0.4016 0.4444 0.5972 0.6119 0.5671 0.4357 0.3321 0.4536
3693.993 0.4624 0.2286 0.1172 0.2637 0.3806 0.3719 0.2904 0.3285 0.4394 0.5017
3713.282 0.5217 0.454 0.3625 0.2273 0.1894 0.2849 0.4031 0.3455 0.3285 0.4001
3732.572 0.3684 0.3206 0.3942 0.6272 0.5725 0.4195 0.4784 0.5954 0.4691 0.3455
3751.862 0.3436 0.352 0.3726 0.3883 0.4156 0.3466 0.3456 0.377 0.3209 0.3225
3771.152 0.4398 0.4721 0.2651 0.1244 0.2189 0.2457 0.2727 0.2229 0.1127 0.08727
3790.441 0.211 0.2228 0.2381 0.2837 0.2966 0.2826 0.265 0.3515 0.3854 0.2794
3809.731 0.3257 0.3866 0.3183 0.4391 0.4583 0.28 0.1649 0.2765 0.317 0.3051
3829.021 0.2745 0.2919 0.4661 0.4578 0.2091 0.02393 0.07455 0.1808 0.3471 0.3716
3848.311 0.1157 0.03923 0.04249 0.08256 0.2047 0.4034 0.4467 0.2724 0.2304 0.2742
3867.601 0.2399 0.1119 0.1906 0.3498 0.354 0.3556 0.4791 0.5082 0.4892 0.399
3886.890 0.349 0.4684 0.3206 0.2604 0.4071 0.4572 0.4562 0.4273 0.3502 0.3684
3906.180 0.3297 0.2829 0.3336 0.2803 0.3225 0.39 0.4814 0.47 0.58 0.4855
3925.470 0.2322 0.3218 0.2078 0.24 0.4019 0.4281 0.4506 0.4198 0.4355 0.285
3944.760 0.234 0.3677 0.3264 0.34 0.3556 0.3559 0.4231 0.4772 0.5409 0.5349
3964.049 0.5295 0.5712 0.4126 0.2586 0.2102 0.1627 0.297 0.3956 0.2938 0.2732
3983.339 0.4127 0.4382 0.5472 0.4894 0.2182 0.2657 0.3798 0.377 0.448 0.4257
##END=
