##TITLE=2,4-Difluorophenylacetic acid
##JCAMP-DX=4.24
##DATA TYPE=INFRARED SPECTRUM
##ORIGIN=EPA-IR VAPOR PHASE LIBRARY
##OWNER=SRD/NIST
Collection (C) 2018 copyright by the U.S. Secretary of Commerce
on behalf of the United States of America. All rights reserved.
##CAS REGISTRY NO=81228-09-3
##MOLFORM=C 8 H 6 F 2 O 2
##$NIST SOURCE=MSDC-IR
##STATE=gas
##XUNITS=1/CM
##YUNITS=ABSORBANCE
##XFACTOR=1.
##YFACTOR=0.001
##DELTAX=1.929
##FIRSTX=549.8
##LASTX=4000.8
##FIRSTY=3.4347
##MAXX=4000.75
##MINX=549.766
##MAXY=0.0128447
##MINY=0
##NPOINTS=1790
##XYDATA=(X++(Y..Y))
549.766 3.4347 3.4847 3.5947 3.6647 3.6147 3.4047 3.2847 3.1547 2.7247 2.3747
569.056 2.0947 1.7847 1.5247 1.3747 1.5747 1.6047 1.4047 1.4747 1.6347 1.6347
588.346 1.5247 1.5647 1.6147 1.5747 1.7147 1.8147 1.7047 1.7647 1.6647 1.7147
607.636 1.9147 2.1447 2.4047 2.4647 2.5247 2.5647 2.5647 2.5647 2.6147 2.6847
626.926 2.5647 2.5947 2.5647 2.3447 2.1547 2.0047 1.9247 1.7947 1.8347 1.8847
646.216 1.6547 1.3847 1.2947 1.1047 0.9054 0.8452 0.839 1.0069 1.0201 0.8986
665.506 0.9784 0.9752 0.8608 0.8698 0.8841 0.8322 0.7015 0.7007 0.6254 0.4911
684.796 0.5716 0.7121 0.708 0.6149 0.6259 0.5572 0.4075 0.3646 0.5532 0.635
704.086 0.5207 0.4311 0.4185 0.4552 0.4491 0.4895 0.4152 0.3658 0.387 0.3527
723.376 0.3689 0.3687 0.4945 0.6715 0.5701 0.4856 0.6096 0.6538 0.5343 0.5126
742.666 0.4236 0.1461 0.10122 0.1562 0.1773 0.09392 0.09602 0.1631 0.08272 0.07225
761.956 0.09004 0.040332 0 0.07955 0.1464 0.136 0.1576 0.2433 0.2206 0.2065
781.246 0.4373 0.6397 0.6948 0.7225 0.9184 1.0547 1.1147 1.2147 1.3047 1.2947
800.536 1.028 0.895 0.8219 0.7361 0.6486 0.5936 0.5024 0.4197 0.3926 0.3756
819.826 0.456 0.4386 0.4261 0.3721 0.3577 0.4688 0.6571 0.814 0.9146 1.1347
839.116 1.4147 1.6747 2.0147 2.3747 2.6747 3.0447 3.5847 3.9947 3.6047 2.9347
858.406 2.5847 2.2247 1.9247 1.6347 1.2847 0.9797 0.7802 0.6209 0.4684 0.3851
877.696 0.3585 0.3751 0.288 0.2334 0.2403 0.2942 0.3775 0.3634 0.3499 0.2672
896.986 0.1729 0.1876 0.276 0.3109 0.2287 0.2668 0.3064 0.3109 0.3896 0.4431
916.276 0.4523 0.4901 0.5781 0.5843 0.4575 0.3765 0.401 0.4784 0.4608 0.4947
935.566 0.5336 0.4865 0.543 0.5926 0.5192 0.4128 0.4788 0.5728 0.6135 0.7307
954.856 0.8046 0.8634 1.1447 1.5947 2.0847 2.6747 3.2947 3.6647 3.7547 3.7847
974.146 3.8047 3.7147 3.3747 2.7047 2.0147 1.5147 1.1147 0.8275 0.6499 0.5096
993.436 0.3995 0.3405 0.3765 0.3117 0.1774 0.1611 0.171 0.12954 0.10823 0.13062
1012.726 0.1258 0.12585 0.09538 0.08472 0.13249 0.1976 0.2228 0.2071 0.1794 0.2291
1032.016 0.2043 0.2155 0.3008 0.2319 0.2599 0.4073 0.4173 0.3155 0.2995 0.4101
1051.306 0.5538 0.5783 0.5735 0.659 0.7898 0.9253 1.0046 1.0167 1.0547 1.1547
1070.596 1.3147 1.3947 1.4647 1.6147 1.8247 2.1647 2.5447 2.8647 3.2247 3.6347
1089.886 4.0347 4.4847 4.9547 5.3947 5.9847 6.6847 7.3347 8.1047 8.9547 9.8347
1109.176 10.7347 11.5047 12.1347 12.5547 12.8247 12.8447 12.6447 12.2147 11.5347 10.8147
1128.467 10.2547 9.8547 9.7147 9.9247 10.0647 9.9847 9.7247 9.4047 8.9147 8.2547
1147.757 7.3247 6.0447 4.8547 4.0747 3.5047 3.1047 2.7947 2.5447 2.4547 2.4047
1167.047 2.3447 2.2947 2.1847 2.0547 2.0947 2.1047 2.0447 1.9647 1.8947 1.9247
1186.337 1.8747 1.8047 1.6947 1.6247 1.6247 1.6147 1.6547 1.7347 1.7147 1.6447
1205.627 1.5547 1.3947 1.3647 1.3447 1.3147 1.3547 1.3047 1.2847 1.3047 1.2847
1224.917 1.2647 1.1947 1.1847 1.1747 1.1947 1.2147 1.2047 1.1747 1.1547 1.2747
1244.207 1.3247 1.3947 1.4647 1.5047 1.6947 1.8247 1.9047 2.0047 2.0547 2.1547
1263.497 2.2347 2.3347 2.5647 2.7447 2.9147 3.1847 3.5447 3.8947 4.2247 4.5547
1282.787 4.7447 4.7847 4.7047 4.5047 4.1647 3.7147 3.3447 3.0147 2.6247 2.2447
1302.077 1.9647 1.7147 1.4447 1.2947 1.2047 1.0947 1.0031 0.9689 0.9315 0.9127
1321.367 0.8585 0.8459 0.8953 0.893 0.9294 0.978 1.0237 1.0647 1.0747 1.1147
1340.657 1.1547 1.2247 1.3147 1.3547 1.4247 1.5447 1.6447 1.6847 1.7247 1.7547
1359.947 1.7947 1.8947 1.9147 1.9347 1.9047 1.7947 1.7647 1.7347 1.6147 1.5047
1379.237 1.4147 1.2547 1.1547 1.0747 0.9723 0.9458 0.9028 0.8601 0.8535 0.8902
1398.527 0.9013 0.9228 0.9579 0.9732 0.9785 0.9805 1.0747 1.1547 1.1947 1.3147
1417.817 1.4247 1.5347 1.6747 1.8147 1.9747 2.0547 2.0847 2.0947 2.0547 1.9747
1437.107 1.9047 1.8047 1.6647 1.5547 1.4347 1.3247 1.2347 1.1847 1.1847 1.2147
1456.397 1.1847 1.1647 1.1847 1.1447 1.1447 1.1247 0.9986 0.9026 0.8232 0.7725
1475.687 0.7374 0.7395 0.7707 0.7921 0.8816 1.0347 1.2447 1.4947 1.8247 2.2447
1494.977 2.8847 3.8247 4.9647 6.2247 7.5247 8.5547 9.2747 9.6047 9.5347 9.1447
1514.267 8.3647 7.2747 5.8647 4.4047 3.1247 2.3047 1.8347 1.5147 1.2847 1.1247
1533.557 1.0187 0.9765 0.8662 0.7162 0.6414 0.6766 0.7058 0.6801 0.6366 0.5988
1552.847 0.5953 0.591 0.5353 0.4656 0.4959 0.5454 0.5369 0.5385 0.6067 0.6772
1572.137 0.745 0.824 0.8592 0.9916 1.1747 1.3147 1.5147 1.7447 1.9947 2.2747
1591.427 2.4947 2.7147 3.0247 3.3247 3.5247 3.7247 3.8847 4.0147 4.1447 4.1847
1610.717 4.1847 4.1947 4.1647 4.1047 4.0947 4.0547 3.9547 3.7447 3.4947 3.2947
1630.007 3.0347 2.7547 2.4247 2.1247 1.9447 1.7147 1.4647 1.2847 1.1047 1.0347
1649.297 0.9902 0.8525 0.7087 0.6338 0.5856 0.5302 0.5131 0.4705 0.425 0.3879
1668.587 0.3664 0.4048 0.3947 0.3759 0.3859 0.3725 0.3668 0.3234 0.2871 0.3572
1687.877 0.4204 0.4072 0.4374 0.5104 0.5218 0.5005 0.4737 0.5193 0.5959 0.6035
1707.167 0.6029 0.6173 0.6422 0.6479 0.6687 0.7032 0.7452 0.8245 0.8972 0.9435
1726.457 0.9973 1.1047 1.2447 1.3447 1.4347 1.5947 1.7547 1.9147 2.1247 2.3247
1745.747 2.5147 2.7547 3.0347 3.2947 3.6047 3.9347 4.2147 4.5647 5.0047 5.4547
1765.037 5.9147 6.3747 6.9447 7.5947 8.3047 9.0347 9.7347 10.3347 10.7947 11.0947
1784.327 11.2247 11.1647 10.8747 10.3147 9.5347 8.6447 7.8047 7.0147 6.2347 5.4947
1803.617 4.8547 4.2447 3.7447 3.3247 2.9347 2.5847 2.2547 1.9747 1.7947 1.6347
1822.907 1.4547 1.2847 1.1547 1.0306 0.9065 0.7773 0.6733 0.6134 0.547 0.5217
1842.197 0.5191 0.4784 0.4299 0.385 0.39 0.3783 0.3444 0.361 0.3522 0.3033
1861.487 0.2649 0.2677 0.2601 0.2787 0.3175 0.3313 0.3555 0.3535 0.3194 0.2872
1880.777 0.3003 0.3097 0.2565 0.2341 0.2024 0.1772 0.1825 0.2061 0.2052 0.1524
1900.067 0.11072 0.12066 0.1676 0.1592 0.1402 0.1447 0.1391 0.11453 0.12224 0.1627
1919.357 0.1557 0.0971 0.10687 0.12201 0.11002 0.13183 0.1395 0.1433 0.1502 0.13282
1938.647 0.1145 0.11117 0.12804 0.11696 0.143 0.1898 0.1743 0.2174 0.1898 0.11917
1957.937 0.07755 0.08032 0.1585 0.1674 0.1386 0.09091 0.06867 0.0896 0.12294 0.1558
1977.227 0.12372 0.10171 0.1591 0.1952 0.1521 0.12696 0.1509 0.1794 0.1851 0.1854
1996.517 0.1736 0.1781 0.1934 0.1716 0.1552 0.1379 0.11997 0.1511 0.2112 0.2021
2015.807 0.1464 0.11705 0.13247 0.1445 0.13055 0.1587 0.1544 0.12621 0.1388 0.1529
2035.097 0.1498 0.1275 0.09709 0.09254 0.09064 0.10207 0.13044 0.1141 0.1353 0.1788
2054.387 0.1734 0.1632 0.13212 0.08482 0.09454 0.11392 0.1273 0.11822 0.12637 0.1602
2073.677 0.1408 0.1052 0.08249 0.07277 0.07883 0.05554 0.043813 0.07474 0.09749 0.11712
2092.967 0.11929 0.12844 0.12526 0.11455 0.10567 0.10109 0.12585 0.10226 0.08529 0.10529
2112.257 0.11364 0.13098 0.1685 0.1812 0.144 0.1505 0.1863 0.165 0.12896 0.1634
2131.547 0.177 0.1699 0.192 0.1451 0.1139 0.1461 0.1629 0.1381 0.10796 0.0834
2150.837 0.09943 0.1446 0.1664 0.1791 0.1227 0.08883 0.10451 0.10776 0.11732 0.11732
2170.127 0.11981 0.1057 0.12082 0.11988 0.0971 0.10696 0.10318 0.08064 0.06658 0.10669
2189.417 0.12051 0.10588 0.1426 0.1827 0.1518 0.1595 0.2078 0.1968 0.174 0.1584
2208.707 0.1536 0.1602 0.10483 0.13169 0.1684 0.11841 0.1567 0.1836 0.2061 0.2192
2227.997 0.2072 0.1807 0.1867 0.2288 0.2317 0.2143 0.1878 0.1698 0.1729 0.2199
2247.287 0.2119 0.2209 0.2461 0.1921 0.1747 0.1883 0.1715 0.12424 0.1579 0.1659
2266.577 0.1379 0.1366 0.1655 0.1969 0.1224 0.1491 0.1718 0.12711 0.1502 0.1551
2285.868 0.1494 0.1551 0.1964 0.1593 0.1371 0.1877 0.1571 0.09209 0.10664 0.1465
2305.158 0.1717 0.1978 0.1806 0.1711 0.1612 0.1745 0.1691 0.1639 0.1953 0.2409
2324.448 0.2823 0.2353 0.1694 0.1447 0.1629 0.223 0.2295 0.1657 0.11712 0.15
2343.738 0.2205 0.2103 0.2027 0.235 0.2311 0.217 0.232 0.2446 0.1888 0.1698
2363.028 0.2294 0.2373 0.2305 0.2718 0.2975 0.2811 0.2645 0.286 0.2692 0.2328
2382.318 0.2493 0.1987 0.1602 0.2229 0.1975 0.1736 0.2061 0.1911 0.229 0.2702
2401.608 0.2463 0.2287 0.2222 0.2337 0.2055 0.1762 0.2438 0.292 0.28 0.2712
2420.898 0.2729 0.2742 0.2457 0.2395 0.3157 0.3267 0.224 0.1731 0.2164 0.236
2440.188 0.2563 0.2444 0.2218 0.2478 0.2407 0.213 0.1854 0.1832 0.1862 0.1817
2459.478 0.2168 0.2126 0.207 0.2204 0.1779 0.1586 0.1885 0.2252 0.2273 0.2462
2478.768 0.2545 0.2331 0.2683 0.2842 0.2364 0.2255 0.1951 0.10704 0.1306 0.1738
2498.058 0.1448 0.1692 0.1705 0.1771 0.1634 0.1747 0.1997 0.1985 0.2533 0.2689
2517.348 0.2484 0.2415 0.2318 0.2351 0.1674 0.1407 0.2285 0.2206 0.2344 0.2382
2536.638 0.2181 0.2357 0.21 0.2647 0.3123 0.271 0.2458 0.2626 0.2544 0.2066
2555.928 0.2149 0.2104 0.1936 0.2199 0.2333 0.2202 0.2474 0.3237 0.2738 0.2189
2575.218 0.2513 0.2032 0.1863 0.1829 0.1521 0.206 0.2195 0.1511 0.13411 0.1842
2594.508 0.2117 0.1799 0.2247 0.2406 0.176 0.2131 0.2609 0.2373 0.2476 0.2227
2613.798 0.1789 0.1941 0.213 0.2475 0.2643 0.2843 0.2651 0.2708 0.229 0.2093
2633.088 0.2579 0.2328 0.2315 0.2652 0.2565 0.1997 0.1858 0.2155 0.2881 0.2506
2652.378 0.1631 0.2055 0.2528 0.162 0.1647 0.2065 0.10742 0.138 0.2082 0.2047
2671.668 0.1864 0.1692 0.2107 0.2373 0.2154 0.2117 0.2124 0.2019 0.2739 0.3058
2690.958 0.2715 0.2887 0.242 0.1487 0.1805 0.2249 0.2174 0.195 0.12327 0.1562
2710.248 0.2313 0.2425 0.2699 0.2395 0.1692 0.2107 0.2449 0.2105 0.188 0.1711
2729.538 0.2176 0.2908 0.2749 0.2532 0.2852 0.3171 0.2743 0.1836 0.1369 0.12949
2748.828 0.11936 0.1457 0.1739 0.2361 0.2857 0.2229 0.2556 0.2539 0.2401 0.2589
2768.118 0.2 0.2174 0.2386 0.2914 0.2794 0.2446 0.2943 0.3451 0.3282 0.2853
2787.408 0.2157 0.1741 0.244 0.2157 0.1756 0.2615 0.3106 0.2291 0.1882 0.1646
2806.698 0.1634 0.2061 0.2334 0.2419 0.2214 0.2147 0.2717 0.3041 0.2736 0.2565
2825.988 0.2838 0.2299 0.1433 0.2617 0.3566 0.2694 0.2672 0.3469 0.3489 0.3035
2845.278 0.2706 0.2861 0.1722 0.1812 0.2936 0.2311 0.1912 0.2702 0.335 0.2704
2864.568 0.2159 0.2382 0.2869 0.2759 0.2798 0.2842 0.2765 0.2813 0.2771 0.3027
2883.858 0.2239 0.2479 0.3804 0.3146 0.2781 0.2989 0.2883 0.2997 0.298 0.3431
2903.148 0.3888 0.2853 0.1642 0.1778 0.2171 0.3061 0.3267 0.2615 0.3302 0.3552
2922.438 0.3605 0.4116 0.5008 0.5529 0.5367 0.5335 0.5665 0.6172 0.6432 0.6191
2941.728 0.5969 0.5852 0.5276 0.543 0.5275 0.4995 0.5514 0.5863 0.5919 0.4385
2961.018 0.3959 0.4623 0.4423 0.3979 0.3557 0.4358 0.4493 0.378 0.3468 0.3307
2980.308 0.2906 0.3193 0.4146 0.3904 0.3144 0.3141 0.3429 0.3554 0.2647 0.2307
2999.598 0.3074 0.203 0.1913 0.2819 0.3434 0.4521 0.4039 0.3227 0.3111 0.3261
3018.888 0.3056 0.2639 0.2464 0.3638 0.3879 0.3527 0.3155 0.2862 0.3527 0.3719
3038.178 0.4111 0.4365 0.4441 0.4214 0.4475 0.4841 0.4651 0.5147 0.4124 0.2969
3057.468 0.3819 0.3864 0.3241 0.4066 0.4605 0.3179 0.2655 0.3459 0.3723 0.4238
3076.758 0.4691 0.3755 0.3806 0.5169 0.6014 0.5868 0.4908 0.4901 0.4289 0.3398
3096.048 0.379 0.4294 0.2921 0.09884 0.1829 0.285 0.2706 0.2468 0.228 0.2756
3115.338 0.2315 0.2302 0.2839 0.2958 0.3627 0.3281 0.2259 0.1977 0.1882 0.195
3134.628 0.2852 0.2559 0.2549 0.226 0.1832 0.2316 0.2159 0.174 0.1541 0.2123
3153.918 0.229 0.261 0.3235 0.3558 0.3642 0.3623 0.3268 0.2476 0.2517 0.3323
3173.208 0.2817 0.1758 0.1354 0.2404 0.3454 0.2773 0.2117 0.1508 0.2098 0.3259
3192.498 0.218 0.12348 0.2056 0.2788 0.2365 0.1365 0.1757 0.2749 0.335 0.2415
3211.788 0.13016 0.10101 0.182 0.2764 0.1844 0.2513 0.3649 0.3107 0.3219 0.1898
3231.078 0.11713 0.2655 0.2985 0.222 0.09714 0.13073 0.2672 0.3077 0.3212 0.3258
3250.368 0.3027 0.2643 0.144 0.11797 0.2008 0.292 0.3569 0.3349 0.2758 0.195
3269.658 0.1357 0.1425 0.2735 0.3299 0.3102 0.3858 0.3181 0.2956 0.2577 0.2345
3288.948 0.2747 0.2755 0.3138 0.2298 0.3355 0.3216 0.2258 0.2975 0.3542 0.3915
3308.238 0.3874 0.2741 0.2879 0.3596 0.2181 0.1754 0.2884 0.3338 0.3064 0.2454
3327.528 0.1847 0.2228 0.223 0.2511 0.3753 0.4262 0.4205 0.3669 0.2595 0.2744
3346.818 0.2762 0.3247 0.3394 0.2979 0.2961 0.3208 0.3896 0.3174 0.2351 0.2258
3366.108 0.2959 0.3654 0.3383 0.3737 0.3664 0.2879 0.2604 0.2124 0.2587 0.3063
3385.398 0.2049 0.2418 0.3473 0.3109 0.2985 0.3071 0.3341 0.3732 0.2946 0.2394
3404.688 0.2776 0.4352 0.4933 0.4647 0.3267 0.2096 0.2834 0.2582 0.2719 0.3088
3423.978 0.4109 0.4529 0.3482 0.3199 0.266 0.142 0.09024 0.1985 0.2676 0.267
3443.269 0.3179 0.2439 0.2663 0.3989 0.3434 0.2741 0.22 0.1936 0.3163 0.2746
3462.559 0.2088 0.3238 0.3345 0.2586 0.2762 0.3748 0.3352 0.2685 0.3277 0.3653
3481.849 0.3672 0.3062 0.326 0.4674 0.5301 0.4865 0.4001 0.3066 0.3616 0.4145
3501.139 0.453 0.5167 0.4696 0.4328 0.4396 0.4452 0.4545 0.3871 0.3869 0.4274
3520.429 0.4264 0.5541 0.6037 0.5291 0.4243 0.4359 0.251 0.205 0.4686 0.515
3539.719 0.5189 0.5361 0.7171 0.8287 0.812 0.9214 1.0177 1.0847 1.1847 1.2447
3559.009 1.3347 1.7047 2.1347 2.6847 3.4947 4.3147 5.0247 5.4147 5.5247 5.3147
3578.299 4.9847 4.5747 3.9247 3.2247 2.6047 2.0447 1.5647 1.3647 1.1747 0.9635
3597.589 0.815 0.7229 0.6539 0.6672 0.5472 0.4967 0.5709 0.5237 0.4625 0.4136
3616.879 0.5152 0.5257 0.5255 0.7048 0.6672 0.4641 0.3903 0.4426 0.4213 0.357
3636.169 0.3553 0.3501 0.3988 0.3521 0.441 0.5508 0.5368 0.4545 0.356 0.3786
3655.459 0.3826 0.3382 0.2807 0.248 0.3562 0.416 0.3673 0.3348 0.3293 0.272
3674.749 0.1851 0.3435 0.4343 0.3945 0.3976 0.4101 0.4333 0.484 0.4371 0.3826
3694.039 0.4106 0.3508 0.3915 0.4862 0.412 0.3603 0.4447 0.4538 0.4327 0.5031
3713.329 0.5639 0.4203 0.3872 0.5167 0.5066 0.5069 0.3952 0.2812 0.2695 0.3179
3732.619 0.4864 0.5422 0.3894 0.3877 0.3831 0.4152 0.5216 0.4439 0.5186 0.5433
3751.909 0.4102 0.4458 0.5001 0.3361 0.3095 0.4857 0.4719 0.4184 0.507 0.4868
3771.199 0.4419 0.4636 0.472 0.4973 0.415 0.2693 0.2863 0.459 0.4879 0.4313
3790.489 0.4961 0.391 0.2886 0.3562 0.3545 0.4044 0.3931 0.4034 0.522 0.5693
3809.779 0.4903 0.5241 0.5041 0.393 0.4177 0.3836 0.3677 0.4562 0.5021 0.4682
3829.069 0.3552 0.3237 0.431 0.3761 0.4362 0.5341 0.5373 0.5696 0.5549 0.4357
3848.359 0.4204 0.4691 0.3691 0.298 0.3156 0.5226 0.5514 0.3853 0.3527 0.318
3867.649 0.3321 0.4345 0.4979 0.5716 0.5491 0.521 0.492 0.4657 0.468 0.435
3886.939 0.4817 0.5067 0.5181 0.5321 0.4124 0.3914 0.5095 0.4819 0.4644 0.4231
3906.229 0.4013 0.3556 0.3031 0.3521 0.4709 0.546 0.5076 0.5181 0.6268 0.4974
3925.519 0.3784 0.4856 0.4801 0.38 0.3928 0.5155 0.5607 0.5512 0.4339 0.4291
3944.809 0.5284 0.5893 0.53 0.3537 0.3696 0.5224 0.5372 0.5 0.5342 0.6267
3964.099 0.6385 0.5848 0.4722 0.4476 0.5766 0.5953 0.3842 0.301 0.4233 0.5303
3983.389 0.5896 0.5446 0.5439 0.5529 0.5424 0.4378 0.3327 0.3649 0.4706 0.6524
##END=
