##TITLE=4-Methyl-4-hepten-3-ol
##JCAMP-DX=4.24
##DATA TYPE=INFRARED SPECTRUM
##ORIGIN=NIST Mass Spectrometry Data Center
##OWNER=NIST Standard Reference Data Program
Collection (C) 2018 copyright by the U.S. Secretary of Commerce
on behalf of the United States of America. All rights reserved.
##CAS REGISTRY NO=81280-12-8
##MOLFORM=C 8 H 16 O
##$NIST SOURCE=MSDC-IR
##SPECTROMETER/DATA SYSTEM=HP-GC/MS/IRD
##STATE=gas
##XUNITS=1/CM
##YUNITS=ABSORBANCE
##XFACTOR=1.0
##YFACTOR=0.000001800
##DELTAX=4.0
##FIRSTX=550.0
##LASTX=3846.0
##FIRSTY=0.000364
##MAXX=3846
##MINX=550
##MAXY=0.018
##MINY=0
##NPOINTS=825
##XYDATA=(X++(Y..Y))
550.0 202 306 185 155 114 98 74 61 72 64
590.0 77 132 153 144 166 180 142 130 136 133
630.0 137 98 59 58 30 17 67 82 70 64
670.0 68 54 19 25 43 30 1 9 53 43
710.0 30 55 68 69 95 104 160 184 140 146
750.0 180 215 230 227 235 259 252 239 272 327
790.0 324 301 279 262 261 306 348 363 393 411
830.0 479 566 665 807 930 1063 1161 1179 1163 1120
870.0 1012 895 787 689 583 478 401 327 320 364
910.0 389 379 405 425 470 532 591 677 793 1003
950.0 1271 1524 1796 2038 2178 2257 2279 2299 2373 2434
990.0 2527 2615 2633 2603 2501 2289 2025 1781 1610 1563
1030.0 1569 1541 1527 1579 1586 1511 1447 1419 1365 1329
1070.0 1320 1345 1391 1462 1552 1589 1616 1645 1627 1504
1110.0 1312 1190 1096 961 856 745 637 551 493 407
1150.0 401 441 420 420 452 507 563 619 648 703
1190.0 757 764 786 828 878 952 1011 1058 1125 1209
1230.0 1240 1218 1174 1118 1051 1005 982 954 939 929
1270.0 931 943 966 1024 1096 1157 1195 1232 1265 1260
1310.0 1238 1200 1148 1124 1132 1161 1172 1174 1148 1085
1350.0 1063 1084 1119 1182 1272 1370 1483 1579 1628 1614
1390.0 1519 1387 1235 1077 933 828 761 719 706 728
1430.0 759 820 907 1008 1132 1251 1370 1466 1499 1451
1470.0 1350 1189 990 807 656 550 474 416 373 358
1510.0 331 293 273 256 232 208 205 221 222 196
1550.0 183 195 214 193 159 140 138 122 123 132
1590.0 123 126 111 102 106 102 102 97 93 102
1630.0 108 108 106 115 137 161 156 134 155 160
1670.0 144 131 113 109 99 83 83 91 97 104
1710.0 99 103 110 81 55 57 63 48 40 47
1750.0 45 30 27 28 26 33 39 26 22 27
1790.0 30 24 26 22 18 17 13 17 20 25
1830.0 24 16 5 3 12 12 6 17 28 19
1870.0 20 22 17 12 11 27 31 23 30 32
1910.0 35 40 33 23 30 27 21 26 30 27
1950.0 8 8 19 17 24 25 16 31 28 12
1990.0 9 15 19 19 39 41 22 18 14 10
2030.0 18 26 31 36 31 23 22 10 10 12
2070.0 14 22 33 30 20 19 21 20 3 1
2110.0 10 23 24 23 24 20 12 0 1 12
2150.0 24 33 27 24 15 3 1 10 20 25
2190.0 20 7 21 36 15 0 9 16 15 16
2230.0 10 23 23 12 16 21 27 19 13 16
2270.0 18 23 27 34 45 44 44 47 43 33
2310.0 31 36 35 30 39 45 42 45 46 36
2350.0 34 51 54 46 45 51 45 38 49 48
2390.0 41 39 41 52 49 56 71 73 70 59
2430.0 63 65 43 45 46 32 32 32 30 38
2470.0 41 42 37 28 38 44 47 48 33 38
2510.0 50 46 38 38 35 51 66 61 59 57
2550.0 52 72 96 102 104 99 93 90 89 81
2590.0 71 75 66 72 96 95 92 104 122 112
2630.0 102 91 89 87 80 94 117 118 106 121
2670.0 120 108 97 109 130 128 136 134 127 153
2710.0 161 172 191 204 219 235 243 261 301 313
2750.0 301 315 324 311 299 305 315 315 336 366
2790.0 377 400 431 449 479 537 586 624 709 819
2830.0 931 1074 1248 1482 1743 2015 2363 2762 3210 3680
2870.0 4136 4636 5102 5385 5411 5272 4955 4544 4238 4107
2910.0 4128 4320 4602 4977 5503 6124 6738 7207 7430 7401
2950.0 7251 7173 7448 8265 9325 10000 9924 9200 7877 6324
2990.0 5046 4088 3370 2812 2359 2029 1789 1596 1444 1315
3030.0 1178 1077 1026 933 833 800 771 724 662 596
3070.0 550 513 459 415 402 399 358 339 305 276
3110.0 271 265 250 220 237 237 208 211 215 199
3150.0 187 206 211 170 137 142 139 141 137 130
3190.0 135 129 119 93 105 101 67 34 24 32
3230.0 49 76 90 83 57 47 31 0 19 52
3270.0 36 13 20 35 33 42 41 34 42 52
3310.0 66 59 46 30 20 22 44 85 71 45
3350.0 35 25 48 87 87 70 49 29 33 67
3390.0 71 44 24 29 67 60 38 65 92 71
3430.0 40 29 22 44 43 32 43 48 47 60
3470.0 83 93 82 39 46 80 68 41 56 56
3510.0 42 44 35 32 60 63 42 35 44 55
3550.0 33 39 35 18 36 53 77 79 69 75
3590.0 39 17 59 98 98 102 117 140 202 313
3630.0 413 524 693 818 896 932 884 755 592 431
3670.0 280 196 139 112 133 124 93 89 76 76
3710.0 104 97 85 108 82 51 65 43 52 77
3750.0 82 71 72 86 87 64 46 51 50 82
3790.0 113 77 65 96 97 107 86 88 115 61
3830.0 30 64 40 52 96
##END=
