##TITLE=2-(4-Methylphenylthio)phenyl isothiocyanate
##JCAMP-DX=4.24
##DATA TYPE=INFRARED SPECTRUM
##ORIGIN=EPA-IR VAPOR PHASE LIBRARY
##OWNER=SRD/NIST
Collection (C) 2018 copyright by the U.S. Secretary of Commerce
on behalf of the United States of America. All rights reserved.
##CAS REGISTRY NO=81431-97-2
##MOLFORM=C 14 H 11 N S 2
##$NIST SOURCE=MSDC-IR
##STATE=gas
##XUNITS=1/CM
##YUNITS=ABSORBANCE
##XFACTOR=1.
##YFACTOR=0.001
##DELTAX=1.92898
##FIRSTX=549.8
##LASTX=4000.7
##FIRSTY=13.882
##MAXX=4000.7
##MINX=549.759
##MAXY=0.417272
##MINY=0
##NPOINTS=1790
##XYDATA=(X++(Y..Y))
549.759 13.882 13.822 13.402 13.192 13.212 12.972 12.632 11.972 11.322 10.692
569.049 10.182 9.622 9.192 9.172 8.752 8.332 8.102 7.742 7.632 7.432
588.339 6.972 6.722 6.482 6.032 5.762 5.622 5.352 5.162 4.862 4.492
607.628 4.222 4.072 3.982 3.812 3.582 3.422 3.482 3.622 3.812 3.812
626.918 3.762 3.722 3.552 3.512 3.432 3.242 3.052 3.022 3.262 3.692
646.208 4.142 4.472 4.992 5.922 6.972 8.062 8.792 8.852 8.722 8.082
665.498 7.062 5.852 4.802 4.242 3.832 3.412 3.222 3.472 3.532 3.522
684.787 3.692 4.012 4.552 5.082 5.782 6.462 7.062 7.812 8.532 9.192
704.077 9.822 10.752 11.872 13.172 14.832 16.512 18.152 19.612 20.672 21.262
723.367 21.322 21.242 21.242 20.942 20.942 21.352 22.502 25.172 29.842 37.172
742.657 47.492 59.882 72.282 82.512 87.242 82.672 69.822 55.082 41.002 28.192
761.947 18.912 13.362 10.222 8.572 7.722 7.372 7.322 7.352 7.522 7.852
781.236 8.352 9.072 9.942 11.192 12.862 14.922 17.692 21.262 25.362 29.972
800.526 34.612 38.072 39.812 39.612 37.052 32.592 27.532 22.612 17.782 13.692
819.816 10.962 9.232 7.912 6.862 6.122 5.552 5.132 4.792 4.342 3.902
839.106 3.722 3.532 3.432 3.242 3.122 3.252 3.402 3.532 3.322 3.192
858.395 3.232 3.202 2.932 2.782 2.772 2.452 2.322 2.302 2.062 2.022
877.685 2.192 2.262 2.382 2.592 2.842 3.022 3.142 3.522 3.882 4.182
896.975 4.442 4.732 5.222 5.622 5.902 6.372 6.912 7.372 7.722 7.982
916.265 8.702 9.762 10.862 12.192 13.842 15.852 18.402 21.522 24.962 28.832
935.555 33.052 36.912 39.702 41.212 40.972 39.122 35.962 31.962 27.782 23.682
954.844 20.062 16.992 14.492 12.402 10.612 9.412 8.572 7.592 6.822 6.222
974.134 5.672 5.482 5.222 4.882 4.592 4.362 4.132 3.882 3.742 3.742
993.424 3.732 3.882 4.202 4.272 4.452 5.132 6.292 7.672 9.882 13.202
1012.714 16.772 19.442 20.652 20.302 18.692 15.812 12.602 11.032 10.972 11.632
1032.003 12.302 12.542 11.832 10.482 9.302 7.922 6.712 5.892 5.532 5.712
1051.293 5.712 5.672 6.062 6.742 8.002 9.872 12.312 14.632 15.802 16.022
1070.583 15.232 12.702 9.782 8.012 6.982 6.322 6.522 7.432 8.272 8.982
1089.873 8.782 8.082 7.892 7.222 6.332 5.702 4.972 4.752 4.852 4.782
1109.163 4.752 4.912 5.012 5.142 5.072 4.772 4.822 4.872 4.802 5.092
1128.452 4.592 3.972 3.802 3.282 2.962 2.642 2.122 1.942 2.022 2.042
1147.742 2.062 2.242 2.432 2.362 2.242 2.212 2.402 2.542 2.552 2.442
1167.032 2.482 2.462 2.462 2.852 3.602 4.922 6.342 7.292 7.642 7.712
1186.322 7.192 5.762 4.242 3.622 3.542 3.492 3.872 4.712 5.182 5.742
1205.611 6.362 6.632 6.842 6.422 5.722 5.602 5.612 5.122 5.082 5.282
1224.901 5.282 5.222 5.322 5.142 4.782 4.562 4.582 4.862 4.832 4.722
1244.191 4.802 4.842 4.672 4.702 4.982 5.252 5.772 6.252 6.762 7.432
1263.481 8.112 8.802 9.552 10.432 10.912 10.952 11.032 10.632 9.942 9.302
1282.771 8.472 7.592 6.872 6.322 5.832 5.432 5.092 4.842 4.632 4.462
1302.060 4.372 4.212 3.922 3.592 3.292 2.942 2.682 2.562 2.472 2.342
1321.350 2.262 2.252 2.212 2.182 2.182 2.142 2.152 2.172 2.112 2.112
1340.640 2.132 2.152 2.152 2.232 2.272 2.242 2.262 2.282 2.332 2.412
1359.930 2.472 2.512 2.642 2.842 2.932 3.002 3.152 3.352 3.652 3.952
1379.219 4.272 4.622 4.992 5.372 5.582 5.912 6.362 6.802 7.372 7.952
1398.509 8.392 8.692 8.912 8.942 8.812 8.732 8.642 8.522 8.552 8.672
1417.799 8.902 9.352 10.052 10.872 11.982 13.422 15.372 17.862 20.682 23.262
1437.089 25.292 26.322 26.042 24.702 22.812 21.052 20.592 21.872 25.082 30.032
1456.378 36.622 44.992 53.602 61.022 65.812 67.312 65.242 59.932 52.192 43.912
1475.668 37.232 32.802 30.982 31.432 33.802 37.752 42.542 46.972 49.822 50.092
1494.958 47.432 42.342 35.852 29.012 23.222 18.902 15.502 13.042 11.282 9.772
1514.248 8.622 7.722 6.982 6.372 5.912 5.712 5.572 5.422 5.372 5.242
1533.538 5.192 5.422 5.492 5.532 5.942 6.342 6.822 7.522 8.262 9.252
1552.827 10.452 12.032 13.892 15.952 18.292 20.452 22.452 24.402 26.422 28.712
1572.117 31.262 33.992 36.662 38.492 38.652 36.922 33.542 28.892 23.852 19.322
1591.407 15.732 13.212 11.602 10.502 9.722 9.112 8.552 8.072 7.672 7.382
1610.697 7.142 6.872 6.562 6.352 6.182 5.902 5.632 5.512 5.412 5.342
1629.986 5.182 4.922 4.682 4.512 4.412 4.242 4.052 3.842 3.562 3.332
1649.276 3.272 3.022 2.762 2.832 2.792 2.712 2.692 2.622 2.612 2.582
1668.566 2.492 2.522 2.642 2.692 2.832 2.962 3.032 3.122 3.162 3.372
1687.856 3.572 3.582 3.592 3.532 3.372 3.272 3.122 3.032 3.072 3.092
1707.146 3.102 3.142 3.222 3.262 3.292 3.292 3.282 3.302 3.252 3.222
1726.435 3.132 2.942 2.842 2.742 2.652 2.712 2.742 2.712 2.772 2.832
1745.725 2.872 2.822 2.762 2.852 2.962 2.962 2.952 2.982 3.002 3.092
1765.015 3.162 3.262 3.462 3.622 3.772 4.002 4.212 4.422 4.532 4.562
1784.305 4.542 4.582 4.642 4.592 4.552 4.542 4.542 4.462 4.322 4.252
1803.594 4.152 4.032 3.912 3.852 3.882 3.982 4.052 4.092 4.212 4.292
1822.884 4.352 4.432 4.502 4.542 4.602 4.612 4.662 4.682 4.632 4.662
1842.174 4.682 4.742 4.922 5.092 5.252 5.422 5.682 5.982 6.192 6.412
1861.464 6.702 7.022 7.392 7.802 8.132 8.582 9.112 9.542 9.982 10.472
1880.754 10.862 11.162 11.392 11.512 11.492 11.472 11.512 11.542 11.622 11.812
1900.043 11.992 12.192 12.382 12.522 12.662 12.792 12.952 13.142 13.312 13.562
1919.333 13.952 14.402 14.862 15.622 16.572 17.532 18.672 19.932 21.242 22.552
1938.623 23.832 25.172 26.572 27.952 29.322 30.712 32.162 33.792 35.562 37.462
1957.913 39.622 42.042 44.622 47.402 50.352 53.502 56.852 60.432 64.202 68.152
1977.202 72.372 76.792 81.422 86.322 91.492 96.862 102.572 108.632 114.922 121.492
1996.492 128.282 135.332 142.572 150.032 157.702 165.562 173.752 182.172 191.022 200.342
2015.782 210.022 220.302 231.332 243.062 255.342 268.182 281.542 295.462 309.732 324.192
2035.072 338.722 353.032 366.802 379.502 391.002 400.952 408.902 414.392 417.272 417.202
2054.362 413.762 407.562 398.822 387.762 375.162 361.692 347.822 334.002 320.522 307.582
2073.651 295.552 284.762 275.252 266.812 259.512 253.392 248.332 244.272 241.012 238.432
2092.941 236.552 235.162 233.982 232.802 231.452 229.802 227.622 224.662 220.782 215.942
2112.231 210.212 203.512 195.852 187.552 178.822 169.872 160.802 151.832 143.092 134.582
2131.521 126.452 118.832 111.712 104.972 98.702 92.932 87.502 82.372 77.592 73.152
2150.810 69.042 65.282 61.822 58.702 55.822 53.262 51.022 49.082 47.462 46.012
2170.100 44.762 43.782 43.002 42.212 41.402 40.532 39.522 38.442 37.152 35.652
2189.390 33.912 32.102 30.382 28.692 27.072 25.572 24.272 23.262 22.402 21.592
2208.680 20.872 20.132 19.462 18.762 18.022 17.192 16.222 15.322 14.412 13.392
2227.970 12.422 11.462 10.592 9.812 9.022 8.362 7.822 7.272 6.702 6.272
2247.259 5.942 5.612 5.282 5.002 4.802 4.552 4.312 4.202 4.022 3.872
2266.549 3.782 3.652 3.522 3.452 3.482 3.512 3.432 3.372 3.442 3.512
2285.839 3.522 3.592 3.682 3.652 3.652 3.702 3.812 3.882 3.852 3.902
2305.129 3.892 3.752 3.712 3.652 3.572 3.492 3.422 3.412 3.322 3.192
2324.418 3.162 3.142 3.062 3.022 3.002 3.012 2.992 2.952 2.922 2.932
2343.708 2.932 2.892 2.822 2.702 2.672 2.612 2.512 2.462 2.402 2.372
2362.998 2.402 2.352 2.272 2.272 2.292 2.332 2.342 2.362 2.392 2.382
2382.288 2.372 2.412 2.462 2.552 2.662 2.722 2.732 2.742 2.782 2.812
2401.578 2.812 2.872 2.932 2.892 2.882 2.862 2.842 2.872 2.922 2.882
2420.867 2.842 2.832 2.792 2.812 2.742 2.672 2.742 2.792 2.812 2.892
2440.157 2.952 2.932 2.942 3.032 3.132 3.162 3.192 3.252 3.322 3.512
2459.447 3.642 3.662 3.742 3.842 3.892 3.962 4.122 4.192 4.242 4.312
2478.737 4.262 4.282 4.322 4.292 4.242 4.252 4.212 4.112 4.212 4.372
2498.026 4.502 4.562 4.552 4.612 4.732 4.832 4.912 5.022 5.092 5.082
2517.316 5.042 5.012 5.012 4.972 4.962 4.952 4.892 4.922 4.962 4.972
2536.606 5.002 5.092 5.232 5.252 5.272 5.322 5.362 5.432 5.462 5.452
2555.896 5.422 5.452 5.532 5.612 5.592 5.572 5.602 5.702 5.792 5.842
2575.186 5.812 5.732 5.752 5.862 5.842 5.682 5.572 5.472 5.342 5.222
2594.475 5.082 4.942 4.752 4.582 4.402 4.252 4.032 3.822 3.692 3.482
2613.765 3.272 3.092 2.922 2.742 2.602 2.482 2.322 2.232 2.132 1.972
2633.055 1.932 1.942 1.892 1.932 1.942 1.922 1.872 1.842 1.762 1.702
2652.345 1.792 1.772 1.752 1.772 1.782 1.832 1.812 1.772 1.762 1.802
2671.634 1.852 1.842 1.902 1.982 2.032 2.022 2.012 2.082 2.082 2.082
2690.924 2.112 2.162 2.232 2.292 2.352 2.452 2.562 2.592 2.672 2.782
2710.214 2.752 2.782 2.812 2.832 2.972 3.122 3.162 3.082 3.112 3.252
2729.504 3.272 3.312 3.392 3.442 3.592 3.712 3.902 4.022 3.932 3.852
2748.794 3.812 3.792 3.812 3.732 3.662 3.672 3.632 3.662 3.662 3.662
2768.083 3.802 3.792 3.712 3.732 3.692 3.672 3.692 3.632 3.512 3.372
2787.373 3.252 3.202 3.102 2.902 2.942 2.912 2.712 2.612 2.522 2.462
2806.663 2.402 2.342 2.312 2.282 2.272 2.212 2.212 2.312 2.402 2.402
2825.953 2.362 2.432 2.512 2.642 2.762 2.732 2.782 2.922 3.092 3.192
2845.242 3.242 3.412 3.582 3.922 4.392 4.702 4.922 5.342 6.022 6.642
2864.532 7.222 7.872 8.522 9.112 9.682 10.222 10.492 10.542 10.632 10.612
2883.822 10.502 10.272 9.962 9.682 9.392 9.082 8.812 8.682 8.562 8.402
2903.112 8.332 8.442 8.702 8.942 9.182 9.582 10.172 10.912 11.842 13.002
2922.401 14.302 15.902 17.782 19.632 21.322 22.702 23.352 23.002 21.812 19.902
2941.691 17.682 15.492 13.442 11.832 10.612 9.762 9.152 8.682 8.332 8.152
2960.981 7.962 7.832 7.912 7.952 7.962 7.972 8.012 8.242 8.532 8.612
2980.271 8.742 8.912 9.052 9.222 9.342 9.532 9.842 10.002 10.152 10.542
2999.561 10.942 11.232 11.672 12.162 12.722 13.402 14.062 14.862 15.912 17.352
3018.850 19.022 20.712 22.362 23.692 24.322 24.182 23.142 21.382 19.512 17.982
3038.140 16.992 16.332 16.002 15.692 15.382 15.242 15.362 15.782 16.352 17.332
3057.430 18.532 20.032 22.052 24.382 27.072 29.892 32.472 34.052 34.032 32.662
3076.720 30.122 26.662 22.882 19.402 16.622 14.472 12.402 10.462 9.102 8.052
3096.009 7.062 6.362 5.862 5.372 5.062 4.732 4.352 4.122 3.882 3.672
3115.299 3.602 3.492 3.512 3.522 3.312 3.202 3.082 2.962 2.792 2.432
3134.589 2.202 2.102 1.892 1.642 1.3734 1.1951 1.0814 0.9739 0.8934 0.7523
3153.879 0.708 0.8237 0.8464 0.7836 0.6999 0.6391 0.6893 0.5879 0.3909 0.44775
3173.169 0.52766 0.49057 0.51353 0.4093 0.3483 0.4042 0.4156 0.3814 0.288 0.3966
3192.458 0.44995 0.3353 0.3457 0.3962 0.3862 0.276 0.129 0.164 0.295 0.319
3211.748 0.3437 0.3458 0.229 0.19 0.297 0.267 0.198 0.148 0.101 0.122
3231.038 0.208 0.249 0.221 0.317 0.32 0.193 0.055 0.107 0.283 0.152
3250.328 0.03 0.184 0.274 0.259 0.104 0.117 0.308 0.233 0.156 0.218
3269.617 0.176 0.232 0.26 0.129 0.244 0.3432 0.273 0.265 0.211 0.264
3288.907 0.157 0 0.099 0.252 0.265 0.103 0.239 0.3359 0.151 0.155
3308.197 0.163 0.094 0.068 0.194 0.4185 0.401 0.225 0.156 0.213 0.209
3327.487 0.103 0.121 0.212 0.253 0.32 0.3419 0.248 0.25 0.243 0.232
3346.777 0.245 0.101 0.115 0.269 0.3499 0.364 0.298 0.18 0.183 0.268
3366.066 0.315 0.185 0.099 0.199 0.3436 0.248 0.113 0.264 0.3461 0.285
3385.356 0.302 0.251 0.251 0.194 0.175 0.318 0.307 0.253 0.196 0.212
3404.646 0.271 0.3557 0.239 0.17 0.171 0.202 0.206 0.222 0.228 0.13
3423.936 0.305 0.45893 0.324 0.267 0.31 0.324 0.312 0.272 0.278 0.267
3443.225 0.29 0.277 0.187 0.101 0.117 0.272 0.299 0.299 0.3602 0.304
3462.515 0.301 0.319 0.298 0.182 0.156 0.235 0.257 0.3356 0.3582 0.3587
3481.805 0.3901 0.46038 0.3648 0.271 0.264 0.181 0.221 0.3872 0.328 0.185
3501.095 0.192 0.188 0.303 0.3753 0.3679 0.42854 0.3472 0.156 0.191 0.263
3520.385 0.182 0.209 0.25 0.162 0.147 0.145 0.095 0.322 0.49194 0.327
3539.674 0.236 0.224 0.3585 0.42556 0.329 0.3505 0.3499 0.3386 0.3768 0.319
3558.964 0.281 0.219 0.225 0.317 0.185 0.119 0.211 0.299 0.3353 0.125
3578.254 0.096 0.3885 0.4191 0.298 0.196 0.244 0.266 0.123 0.079 0.193
3597.544 0.299 0.3322 0.329 0.284 0.267 0.223 0.232 0.182 0.2 0.226
3616.833 0.164 0.22 0.292 0.366 0.3682 0.237 0.062 0.063 0.086 0.206
3636.123 0.312 0.308 0.186 0.075 0.177 0.209 0.277 0.312 0.3644 0.3822
3655.413 0.3328 0.4056 0.48711 0.5385 0.5768 0.49898 0.44406 0.435351 0.3832 0.46939
3674.703 0.559 0.5042 0.49103 0.5765 0.5747 0.52784 0.42412 0.317 0.3841 0.3891
3693.993 0.3341 0.5586 0.668 0.5149 0.45835 0.3886 0.3721 0.49598 0.50481 0.48291
3713.282 0.591 0.5704 0.5338 0.6156 0.52667 0.44819 0.4271 0.3968 0.50929 0.5922
3732.572 0.47805 0.408 0.359 0.4029 0.5945 0.5574 0.47095 0.5583 0.51306 0.324
3751.862 0.3574 0.46418 0.42353 0.309 0.18 0.316 0.52064 0.5551 0.5428 0.50499
3771.152 0.579 0.5614 0.49969 0.46231 0.441714 0.5451 0.50666 0.50223 0.6316 0.6173
3790.441 0.555 0.6895 0.8366 0.8837 0.7748 0.7877 0.7914 0.6678 0.6359 0.5545
3809.731 0.49801 0.5487 0.6071 0.577 0.49844 0.403 0.3421 0.333 0.432514 0.6123
3829.021 0.7867 0.7915 0.6774 0.6145 0.6267 0.5791 0.52224 0.5422 0.599 0.5913
3848.311 0.52929 0.5674 0.5811 0.52073 0.5337 0.7044 0.7108 0.5404 0.594 0.7083
3867.601 0.7848 0.7974 0.8431 0.8082 0.6852 0.7435 0.796 0.7025 0.5985 0.53078
3886.890 0.6546 0.7081 0.6707 0.7357 0.7117 0.7972 0.776 0.7149 0.6664 0.6325
3906.180 0.7562 0.8159 0.7839 0.7602 0.796 0.8433 0.8789 0.9107 0.8979 0.8836
3925.470 0.8305 0.8511 0.932 0.8398 0.9398 0.9484 0.7516 0.8054 0.8982 0.8867
3944.760 0.8998 0.9309 0.9459 1.0343 1.2196 1.2461 1.139 1.2174 1.3486 1.4244
3964.049 1.2422 1.1437 1.2097 1.2913 1.358 1.2685 1.3453 1.452 1.472 1.421
3983.339 1.452 1.552 1.512 1.482 1.502 1.582 1.672 1.652 1.542 1.472
##END=
