##TITLE=4,5-Dibromothiophene-2-sulphonyl chloride
##JCAMP-DX=4.24
##DATA TYPE=INFRARED SPECTRUM
##ORIGIN=EPA-IR VAPOR PHASE LIBRARY
##OWNER=SRD/NIST
Collection (C) 2018 copyright by the U.S. Secretary of Commerce
on behalf of the United States of America. All rights reserved.
##CAS REGISTRY NO=81606-31-7
##MOLFORM=C 4 H Br 2 Cl O 2 S 2
##$NIST SOURCE=MSDC-IR
##STATE=gas
##XUNITS=1/CM
##YUNITS=ABSORBANCE
##XFACTOR=1.
##YFACTOR=0.001
##DELTAX=1.92898
##FIRSTX=549.8
##LASTX=4000.7
##FIRSTY=26.175
##MAXX=4000.7
##MINX=549.759
##MAXY=0.546695
##MINY=0
##NPOINTS=1790
##XYDATA=(X++(Y..Y))
549.759 26.175 33.515 44.765 63.515 90.285 122.895 157.755 190.385 205.065 191.345
569.049 165.835 137.205 113.345 102.455 102.905 111.315 125.395 143.965 165.245 192.225
588.339 233.495 293.725 370.135 450.785 516.615 546.695 526.875 460.195 364.625 263.195
607.628 174.765 110.755 71.215 48.405 35.055 27.235 22.055 18.415 15.535 13.135
626.918 11.675 9.945 8.075 6.975 6.415 6.155 5.945 5.495 5.415 5.375
646.208 5.555 5.905 6.275 6.965 7.615 7.815 7.415 6.815 6.005 5.425
665.498 5.055 4.865 5.235 5.745 5.965 6.805 8.225 10.015 12.445 16.015
684.787 21.105 27.545 35.255 44.505 54.715 64.505 72.465 76.175 74.375 67.275
704.077 55.795 41.595 27.935 18.325 13.135 10.385 8.195 6.565 5.735 4.795
723.367 4.015 3.585 3.565 3.565 3.295 2.815 2.525 2.825 2.885 3.195
742.657 3.615 3.415 3.495 4.295 4.655 4.745 4.655 4.575 4.635 4.035
761.947 3.535 3.145 2.675 2.365 2.035 1.865 1.735 1.305 0.865 0.8218
781.236 1.2538 1.635 1.945 1.955 1.865 2.225 2.255 2.475 2.795 3.175
800.526 3.655 3.855 4.575 5.645 7.145 9.405 12.215 15.905 21.015 26.855
819.816 32.265 36.515 38.445 37.255 33.545 27.605 20.075 13.605 9.435 7.445
839.106 7.255 8.525 10.825 13.365 16.055 18.545 20.285 21.015 19.675 16.205
858.395 12.635 9.765 7.175 5.255 4.055 3.365 2.995 2.685 2.535 2.385
877.685 2.445 2.805 3.035 3.135 3.365 3.295 2.935 2.795 2.795 2.465
896.975 2.395 2.805 2.705 2.435 2.755 3.185 3.035 2.715 2.875 2.945
916.265 2.475 2.295 2.765 3.245 2.955 2.645 3.195 3.385 3.195 3.005
935.555 2.415 2.105 2.155 2.295 2.815 3.225 3.075 2.935 3.155 3.365
954.844 3.435 3.705 3.915 3.985 4.115 4.185 4.555 4.965 5.225 6.135
974.134 7.285 8.615 10.475 13.305 16.755 20.915 26.765 33.695 40.745 46.895
993.424 51.015 51.645 48.375 42.315 35.665 30.345 29.245 33.145 41.765 54.605
1012.714 70.495 89.685 109.415 127.225 140.985 146.765 141.925 127.195 105.915 81.095
1032.003 57.355 38.985 27.005 19.945 15.715 12.745 10.415 9.735 9.785 8.915
1051.293 8.365 7.775 6.595 5.505 4.685 4.005 3.665 3.955 4.375 4.905
1070.583 4.975 4.705 3.725 3.955 4.855 4.705 4.555 4.395 5.005 5.215
1089.873 4.005 3.675 4.205 3.575 2.395 2.155 2.785 2.735 2.785 3.225
1109.163 3.475 3.565 3.765 4.295 4.305 5.155 6.655 7.795 9.065 10.105
1128.452 10.615 11.785 13.125 15.085 18.875 22.315 26.355 30.035 33.155 36.345
1147.742 38.065 38.765 39.675 42.005 45.245 51.285 60.355 71.695 86.605 104.215
1167.032 125.005 148.545 173.845 199.875 225.365 247.005 257.365 253.765 235.355 206.075
1186.322 174.835 148.775 130.505 122.095 123.915 129.355 132.135 132.225 126.635 113.965
1205.611 97.195 77.695 59.975 43.255 30.865 24.215 18.945 15.955 13.215 10.185
1224.901 8.535 8.235 7.895 7.485 7.455 7.585 8.035 8.455 8.705 8.745
1244.191 8.735 8.945 8.705 7.685 7.045 6.695 5.845 5.075 4.555 4.335
1263.481 4.595 4.815 4.905 4.965 4.855 5.155 5.465 5.615 5.955 6.265
1282.771 6.655 7.435 8.485 9.855 11.485 13.755 17.195 21.705 27.855 36.225
1302.060 46.715 58.705 70.935 81.175 86.655 85.695 78.105 64.945 48.895 34.465
1321.350 24.925 19.435 16.075 13.875 12.275 10.885 9.865 9.265 8.815 8.625
1340.640 8.705 8.995 9.325 9.825 10.545 11.655 13.385 15.765 18.815 22.825
1359.930 27.895 34.055 41.995 52.215 65.215 81.435 101.555 125.795 153.005 180.515
1379.219 203.845 217.915 219.555 208.625 187.955 163.385 142.515 131.555 132.665 144.265
1398.509 164.145 189.975 217.175 240.195 253.535 252.945 238.015 210.795 174.275 134.345
1417.799 98.065 69.215 49.055 36.205 28.275 23.275 19.835 17.065 14.675 12.445
1437.089 10.465 8.895 7.385 6.095 5.035 4.205 3.585 3.195 2.945 2.685
1456.378 2.565 2.545 2.425 2.455 2.495 2.395 2.395 2.435 2.555 2.675
1475.668 2.835 3.065 3.345 3.705 3.955 4.045 4.235 4.545 4.925 5.355
1494.958 5.975 6.795 7.415 7.915 8.135 7.795 7.115 6.205 5.165 4.165
1514.248 3.395 2.955 2.665 2.465 2.295 2.115 1.905 1.855 1.795 1.685
1533.538 1.525 1.375 1.1937 1.1574 1.2288 1.2303 1.1173 1.0365 1.1237 1.1642
1552.827 1.1508 1.0386 0.8655 0.9267 1.0746 1.0378 0.9867 0.9551 0.9822 1.0901
1572.117 1.0902 1.1159 1.2073 1.1573 1.2344 1.395 1.495 1.435 1.2809 1.315
1591.407 1.335 1.465 1.535 1.485 1.685 2.005 2.195 2.085 2.055 2.075
1610.697 1.955 1.725 1.695 1.795 1.585 1.455 1.555 1.345 1.0965 1.1156
1629.986 1.1498 1.1474 1.2145 1.305 1.1796 0.9916 0.9001 0.8085 0.6509 0.6359
1649.276 0.7095 0.6377 0.5826 0.4967 0.4144 0.5743 0.7789 0.7538 0.6586 0.6823
1668.566 0.8699 1.038 1.1312 1.2198 1.435 1.605 1.735 2.025 2.215 2.505
1687.856 2.745 3.015 3.505 3.845 4.195 4.535 4.615 4.595 4.475 4.265
1707.146 4.015 3.735 3.405 3.205 3.155 3.105 2.975 2.905 2.775 2.575
1726.435 2.465 2.145 1.855 1.685 1.425 1.0852 0.8747 0.8891 0.7812 0.6789
1745.725 0.662 0.6068 0.6412 0.6904 0.7106 0.6786 0.6261 0.5457 0.5738 0.6182
1765.015 0.5413 0.5686 0.6648 0.6391 0.5712 0.5435 0.4226 0.38044 0.427 0.5065
1784.305 0.588 0.5563 0.5586 0.527 0.4325 0.4902 0.6218 0.6509 0.6252 0.6312
1803.594 0.656 0.5648 0.5685 0.7528 0.8006 0.7808 0.7337 0.6437 0.6116 0.5832
1822.884 0.5645 0.5976 0.6517 0.7061 0.7329 0.8057 0.8173 0.8096 0.9174 1.0509
1842.174 1.253 1.2876 1.1917 1.1472 1.0673 1.0218 1.0047 0.8984 0.7486 0.6886
1861.464 0.7111 0.7204 0.6624 0.5964 0.6277 0.7604 0.7476 0.6536 0.6988 0.6808
1880.754 0.6086 0.5975 0.6655 0.6845 0.5438 0.4615 0.4147 0.3777 0.34722 0.34785
1900.043 0.38684 0.38149 0.4168 0.38802 0.33845 0.34092 0.33397 0.35973 0.4294 0.4498
1919.333 0.33198 0.188 0.173 0.2842 0.314825 0.2649 0.203 0.197 0.2881 0.40073
1938.623 0.38992 0.2914 0.36122 0.33976 0.2911 0.35241 0.4755 0.4977 0.5919 0.7232
1957.913 0.5885 0.5028 0.4984 0.5872 0.6163 0.5826 0.6336 0.7095 0.8299 0.8795
1977.202 0.8707 0.9098 0.8586 0.7355 0.7241 0.6332 0.5987 0.6851 0.6421 0.5439
1996.492 0.5102 0.5268 0.5347 0.5735 0.5442 0.4848 0.5564 0.5143 0.4373 0.4733
2015.782 0.5875 0.662 0.6944 0.7905 0.8169 0.7613 0.8458 0.9904 0.9581 0.9512
2035.072 1.0213 0.9674 0.9574 1.0631 1.0682 1.0567 1.0239 0.9968 0.9823 0.9575
2054.362 0.8339 0.7576 0.7623 0.7294 0.7381 0.7269 0.7109 0.6581 0.6582 0.6741
2073.651 0.6801 0.6753 0.6499 0.5744 0.442 0.4424 0.5367 0.6081 0.586 0.4346
2092.941 0.37985 0.4815 0.4694 0.35019 0.35384 0.308682 0.2648 0.32586 0.36571 0.312239
2112.231 0.36718 0.39803 0.2291 0.29647 0.39158 0.2527 0.2814 0.33698 0.35253 0.39675
2131.521 0.2517 0.2156 0.36537 0.4095 0.37755 0.37682 0.33063 0.34825 0.39388 0.32868
2150.810 0.37583 0.466 0.39094 0.4115 0.592 0.5664 0.4953 0.6647 0.6913 0.6304
2170.100 0.675 0.798 0.8564 0.8072 0.6711 0.6697 0.7921 0.8487 0.7925 0.7655
2189.390 0.9114 0.9319 0.9684 0.9969 0.8677 0.7174 0.6433 0.6691 0.7234 0.6345
2208.680 0.7162 0.7669 0.53 0.5169 0.5751 0.4676 0.4127 0.4059 0.4657 0.4833
2227.970 0.4621 0.4603 0.4728 0.34328 0.2864 0.4946 0.5458 0.4979 0.4799 0.439
2247.259 0.38542 0.312997 0.31992 0.37733 0.4303 0.4893 0.4059 0.32867 0.36786 0.39706
2266.549 0.449 0.4729 0.5379 0.633 0.6729 0.5553 0.584 0.6897 0.7268 0.7924
2285.839 0.7071 0.7143 0.6468 0.6405 0.6666 0.508 0.5171 0.6944 0.8516 0.9158
2305.129 0.8768 0.7873 0.7543 0.6888 0.629 0.7914 0.7839 0.7552 0.8066 0.7957
2324.418 0.7313 0.6782 0.8101 0.8018 0.7086 0.7903 0.9812 1.0015 0.9015 0.8508
2343.708 0.8719 1.0762 1.2475 1.2222 1.1455 1.1782 1.3002 1.2687 1.299 1.405
2362.998 1.355 1.465 1.515 1.455 1.495 1.555 1.535 1.605 1.665 1.675
2382.288 1.775 1.855 2.135 2.405 2.395 2.575 2.905 3.155 3.325 3.415
2401.578 3.575 3.565 3.565 3.395 3.095 2.815 2.465 2.165 1.855 1.555
2420.867 1.335 1.1303 0.9983 1.0981 1.0733 0.9392 0.9116 0.8449 0.7237 0.655
2440.157 0.5446 0.4846 0.5779 0.6143 0.6253 0.6236 0.5784 0.5813 0.6429 0.5641
2459.447 0.4782 0.5528 0.5335 0.4613 0.4157 0.3763 0.5029 0.6756 0.6719 0.5909
2478.737 0.6106 0.7051 0.6332 0.6335 0.5864 0.465 0.5961 0.734 0.7824 0.8133
2498.026 0.8527 0.8576 0.911 0.9715 0.9719 0.9587 0.9117 1.0222 1.121 1.169
2517.316 1.355 1.415 1.405 1.325 1.2908 1.365 1.415 1.425 1.2458 1.115
2536.606 1.0378 1.0253 1.0736 0.9758 1.0974 1.365 1.395 1.345 1.375 1.345
2555.896 1.2657 1.445 1.705 1.825 1.815 1.745 1.915 1.985 2.005 2.095
2575.186 2.135 2.155 2.035 1.935 1.845 1.755 1.565 1.475 1.405 1.2664
2594.475 1.236 1.1528 1.0559 1.0323 1.0997 1.0082 0.9276 0.9109 0.7851 0.9181
2613.765 1.0969 1.0227 0.8593 0.7911 0.7698 0.8447 0.9934 0.9992 0.8442 0.8646
2633.055 0.9586 0.8199 0.7619 0.9325 1.1229 1.1224 1.142 1.0324 0.8954 0.8687
2652.345 0.8238 0.8847 0.8092 0.7379 0.795 0.7811 0.7034 0.6216 0.635 0.6465
2671.634 0.5556 0.6634 0.6388 0.5513 0.6003 0.6905 0.9766 1.0803 1.0504 0.7895
2690.924 0.5654 0.671 0.7707 0.7935 0.6758 0.6928 0.5426 0.4657 0.6704 0.5236
2710.214 0.4308 0.5407 0.5622 0.405 0.31944 0.4262 0.4823 0.39716 0.19 0.2791
2729.504 0.4106 0.2535 0.17 0.29758 0.4448 0.4793 0.501 0.5037 0.503 0.4695
2748.794 0.501 0.5326 0.5098 0.4552 0.5012 0.5458 0.36101 0.32909 0.4385 0.33796
2768.083 0.2937 0.5625 0.6708 0.5533 0.4884 0.4969 0.6082 0.7347 0.7597 0.7888
2787.373 0.8306 0.728 0.7501 0.9034 0.867 0.8664 1.0454 1.0485 1.0116 1.0253
2806.663 1.0235 1.0396 0.914 0.7621 0.6923 0.6613 0.5269 0.4615 0.4389 0.35628
2825.953 0.36239 0.2891 0.4164 0.5933 0.4501 0.39901 0.4565 0.4832 0.33757 0.2278
2845.242 0.37807 0.35188 0.31856 0.4136 0.33584 0.126 0.2535 0.4196 0.36922 0.2564
2864.532 0.34161 0.516 0.5823 0.619 0.4627 0.36497 0.2835 0.204 0.306032 0.4393
2883.822 0.5016 0.4784 0.4315 0.4165 0.4072 0.37841 0.2826 0.36378 0.4588 0.4592
2903.112 0.4309 0.30251 0.121 0.132 0.181 0.246 0.307233 0.308281 0.39842 0.5157
2922.401 0.5959 0.5847 0.5628 0.5189 0.5339 0.523 0.54 0.6074 0.5419 0.4509
2941.691 0.37275 0.2706 0.37355 0.5456 0.4793 0.37689 0.4774 0.5304 0.4863 0.4397
2960.981 0.36977 0.5594 0.4875 0.2723 0.4762 0.4914 0.2916 0.277 0.172 0.162
2980.271 0.429 0.178 0.042 0.314715 0.4777 0.4483 0.36489 0.6222 0.5458 0.4494
2999.561 0.5939 0.29819 0.146 0.37013 0.5177 0.4273 0.4374 0.614 0.5912 0.4544
3018.850 0.32561 0.4424 0.6168 0.5397 0.39438 0.29637 0.2758 0.2484 0.29732 0.33712
3038.140 0.456 0.5417 0.5598 0.4435 0.38081 0.39876 0.37185 0.5158 0.4843 0.6196
3057.430 0.5912 0.4565 0.40202 0.4029 0.4961 0.4335 0.597 0.6501 0.6277 0.7854
3076.720 1.1366 1.2293 1.1545 1.2183 1.555 1.975 2.255 2.615 2.935 3.375
3096.009 4.095 5.145 6.545 8.555 10.605 11.945 12.255 11.815 10.705 8.465
3115.299 5.825 3.875 2.515 1.505 1.2421 1.131 0.9867 0.7897 0.6072 0.5865
3134.589 0.5115 0.4994 0.6426 0.7751 0.614 0.33811 0.2796 0.3622 0.38625 0.4244
3153.879 0.4518 0.4032 0.5025 0.5942 0.4625 0.29682 0.2118 0.311329 0.40099 0.314641
3173.169 0.18 0.2453 0.34394 0.35651 0.5802 0.6693 0.4805 0.558 0.4502 0.37575
3192.458 0.4166 0.4816 0.6272 0.5152 0.5502 0.4984 0.32765 0.2568 0.30056 0.5321
3211.748 0.6735 0.5556 0.4617 0.3177 0.314293 0.32753 0.4421 0.6204 0.5413 0.4803
3231.038 0.5993 0.5295 0.5115 0.5408 0.36956 0.5959 0.6776 0.4534 0.2315 0.2165
3250.328 0.309947 0.246 0.33494 0.4722 0.36851 0.32911 0.2135 0.2815 0.4809 0.32863
3269.617 0.165 0.085 0 0.04 0.2108 0.5122 0.4197 0.063 0.109 0.4665
3288.907 0.6766 0.3346 0.197 0.2908 0.5006 0.453 0.2229 0.2629 0.5738 0.4597
3308.197 0.2442 0.4267 0.2752 0.33948 0.4767 0.4939 0.4449 0.36897 0.314877 0.4346
3327.487 0.4884 0.5104 0.6182 0.473 0.2965 0.31584 0.2898 0.118 0.32399 0.5258
3346.777 0.4316 0.40476 0.36559 0.4341 0.36962 0.30174 0.4958 0.4987 0.32809 0.226
3366.066 0.2242 0.32889 0.36284 0.2819 0.171 0.108 0.2931 0.29611 0.4263 0.5036
3385.356 0.32341 0.35162 0.34153 0.32335 0.4832 0.5733 0.4266 0.178 0.168 0.33586
3404.646 0.204 0.092 0.2851 0.4544 0.33334 0.3165 0.39128 0.4869 0.304416 0.2283
3423.936 0.4649 0.5912 0.6286 0.5963 0.6233 0.6883 0.6449 0.4343 0.2949 0.199
3443.225 0.4098 0.434 0.5616 0.7751 0.7082 0.5473 0.5519 0.5473 0.37565 0.34825
3462.515 0.35434 0.36202 0.32033 0.33541 0.4443 0.4925 0.4259 0.5705 0.6922 0.7778
3481.805 0.8195 0.627 0.5648 0.5227 0.5662 0.5135 0.33141 0.4171 0.465 0.4879
3501.095 0.36009 0.131 0.2515 0.37394 0.2113 0.2501 0.36704 0.4236 0.4632 0.4692
3520.385 0.4092 0.37117 0.34115 0.31945 0.4664 0.5452 0.6504 0.8189 0.9159 0.9717
3539.674 0.8071 0.5695 0.5617 0.5126 0.6069 0.7852 0.4297 0.4069 0.5366 0.2717
3558.964 0.312424 0.5536 0.4411 0.33616 0.4732 0.2805 0.05 0.2293 0.4292 0.5048
3578.254 0.4452 0.4529 0.5901 0.4456 0.6184 0.7623 0.5818 0.5684 0.2749 0.2087
3597.544 0.314815 0.528 0.5866 0.4298 0.6224 0.6936 0.6563 0.6 0.5654 0.476
3616.833 0.5378 0.446 0.31892 0.5562 0.5956 0.5714 0.7024 0.7096 0.5585 0.39548
3636.123 0.32107 0.18 0.176 0.40287 0.4826 0.5462 0.406 0.37675 0.575 0.4454
3655.413 0.4374 0.3479 0.4546 0.8352 0.8009 0.5962 0.5668 0.773 0.7707 0.7072
3674.703 0.5306 0.31576 0.38725 0.4334 0.6207 0.6053 0.35137 0.33828 0.5532 0.4444
3693.993 0.39941 0.7314 0.5591 0.4152 0.4313 0.2694 0.2903 0.31909 0.2226 0.138
3713.282 0.284 0.4883 0.6692 0.6318 0.4524 0.5111 0.4535 0.5725 0.7013 0.38786
3732.572 0.109 0.38537 0.5673 0.2705 0.204 0.40041 0.5438 0.4758 0.35226 0.2304
3751.862 0.2134 0.4113 0.5864 0.5427 0.3682 0.34258 0.40465 0.35796 0.195 0.4965
3771.152 0.5322 0.2447 0.5313 0.8285 0.6975 0.7432 0.8177 0.5922 0.6382 0.7588
3790.441 0.776 0.5388 0.39884 0.36574 0.35098 0.35536 0.2917 0.166 0.36939 0.5149
3809.731 0.5107 0.5836 0.34468 0.18 0.089 0.2528 0.38609 0.2387 0.2117 0.36841
3829.021 0.4926 0.3284 0.183 0.38447 0.4733 0.40219 0.5016 0.678 0.4953 0.312032
3848.311 0.38417 0.40062 0.314716 0.104 0.36571 0.7028 0.4781 0.312315 0.40123 0.6206
3867.601 0.7465 0.6379 0.4567 0.32844 0.30203 0.11 0.089 0.186 0.174 0.4676
3886.890 0.555 0.4357 0.5335 0.509 0.4877 0.6885 0.8864 1.0012 0.8874 0.5535
3906.180 0.6062 0.6127 0.4633 0.6115 0.8357 0.8027 0.649 0.6892 0.8213 0.82
3925.470 0.7051 0.4231 0.7768 1.099 0.8309 0.8772 0.8769 0.9451 0.7874 0.7374
3944.760 0.5855 0.40411 0.869 0.968 0.6993 0.4804 0.6583 0.4474 0.041 0.181
3964.049 0.119 0.2275 0.4382 0.4857 0.4555 0.5388 0.4934 0.4069 0.6668 0.738
3983.339 0.6624 0.7478 0.8778 0.7211 0.525 0.4863 0.6018 0.5841 0.5379 0.6654
##END=
