##TITLE=4-Methyl-1-heptanol
##JCAMP-DX=4.24
##DATA TYPE=INFRARED SPECTRUM
##ORIGIN=NIST Mass Spectrometry Data Center
##OWNER=NIST Standard Reference Data Program
Collection (C) 2018 copyright by the U.S. Secretary of Commerce
on behalf of the United States of America. All rights reserved.
##CAS REGISTRY NO=817-91-4
##MOLFORM=C 8 H 18 O
##$NIST SOURCE=MSDC-IR
##SPECTROMETER/DATA SYSTEM=HP-GC/MS/IRD
##STATE=gas
##XUNITS=1/CM
##YUNITS=ABSORBANCE
##XFACTOR=1.0
##YFACTOR=0.000003600
##DELTAX=4.0
##FIRSTX=550.0
##LASTX=3846.0
##FIRSTY=0.000216
##MAXX=3846
##MINX=550
##MAXY=0.036
##MINY=0
##NPOINTS=825
##XYDATA=(X++(Y..Y))
550.0 60 66 51 36 51 47 35 41 36 36
590.0 40 41 45 39 40 40 37 42 35 25
630.0 21 13 16 23 20 14 23 35 46 52
670.0 44 29 20 29 52 65 62 59 55 53
710.0 63 65 70 87 109 125 138 149 159 156
750.0 146 139 124 112 106 106 103 92 82 82
790.0 90 85 92 96 98 111 112 119 121 132
830.0 137 140 152 157 164 170 187 203 222 242
870.0 259 274 288 320 363 398 426 449 454 460
910.0 453 437 416 405 414 424 432 441 460 470
950.0 457 454 454 446 462 506 559 627 708 804
990.0 917 1037 1155 1274 1392 1525 1677 1849 2028 2209
1030.0 2390 2564 2738 2896 3025 3079 3033 2882 2625 2313
1070.0 1982 1662 1381 1147 958 820 719 648 603 559
1110.0 525 495 470 449 432 416 406 405 420 445
1150.0 459 468 460 452 439 424 417 414 416 427
1190.0 426 434 451 455 454 469 486 491 491 499
1230.0 516 528 541 542 551 556 563 565 565 564
1270.0 562 558 551 544 529 519 507 497 494 487
1310.0 482 489 492 498 513 533 559 586 607 635
1350.0 669 706 757 842 950 1092 1264 1410 1494 1496
1390.0 1394 1205 994 810 660 561 501 465 450 450
1430.0 479 536 620 734 879 1046 1193 1297 1350 1337
1470.0 1265 1125 951 773 603 456 351 281 232 196
1510.0 172 157 138 121 114 105 94 84 77 79
1550.0 78 69 59 55 55 53 55 50 44 39
1590.0 41 46 42 39 41 42 39 33 29 29
1630.0 33 32 24 25 24 21 21 23 20 18
1670.0 21 23 20 15 15 14 11 12 13 15
1710.0 11 11 11 8 7 11 10 8 10 8
1750.0 9 9 7 6 6 2 0 4 6 9
1790.0 8 5 6 8 8 3 4 3 1 3
1830.0 5 2 2 3 0 0 0 2 6 7
1870.0 7 6 4 6 7 5 4 6 7 10
1910.0 11 9 5 6 10 12 15 15 12 13
1950.0 14 9 9 11 10 9 10 8 7 10
1990.0 10 9 9 8 10 12 13 17 19 21
2030.0 25 28 33 34 32 34 31 28 30 28
2070.0 24 22 23 20 17 17 15 15 12 13
2110.0 11 7 10 6 7 6 7 9 10 10
2150.0 10 10 13 16 18 17 15 16 15 13
2190.0 17 20 20 20 17 17 18 19 18 19
2230.0 17 13 17 20 21 18 15 17 20 18
2270.0 19 21 21 18 17 21 21 23 27 28
2310.0 28 31 32 34 36 34 35 36 35 32
2350.0 33 36 36 37 43 46 43 41 41 39
2390.0 36 37 39 36 36 41 40 37 38 39
2430.0 39 36 33 35 38 40 40 37 34 35
2470.0 37 36 34 33 37 39 40 39 40 42
2510.0 43 44 47 48 46 49 51 51 51 55
2550.0 60 63 62 66 66 67 74 77 78 84
2590.0 86 86 94 100 103 106 110 113 113 115
2630.0 121 123 126 131 132 133 140 148 152 156
2670.0 165 163 167 177 183 182 184 195 205 213
2710.0 224 237 250 265 283 297 308 320 335 343
2750.0 339 338 339 342 352 369 384 401 419 438
2790.0 470 502 532 570 605 649 698 762 847 939
2830.0 1052 1211 1436 1740 2125 2568 3034 3500 3973 4474
2870.0 5024 5576 5982 6144 6105 5945 5806 5849 6118 6562
2910.0 7109 7691 8272 8828 9336 9752 10000 9990 9720 9315
2950.0 8985 8936 9261 9734 9819 9126 7721 5936 4187 2884
2990.0 2070 1584 1280 1071 922 810 724 658 599 551
3030.0 507 462 424 386 353 329 308 289 277 262
3070.0 248 240 230 220 213 205 195 191 184 174
3110.0 169 162 156 152 142 135 131 127 126 122
3150.0 120 122 117 115 114 108 103 104 97 91
3190.0 94 88 81 71 67 63 54 44 40 38
3230.0 35 34 30 30 31 31 25 21 23 23
3270.0 21 23 26 23 21 17 13 20 21 16
3310.0 16 21 16 17 20 19 19 20 22 20
3350.0 15 17 21 23 26 23 23 23 16 18
3390.0 20 23 24 21 26 27 26 22 28 27
3430.0 21 22 26 28 28 27 25 25 23 26
3470.0 31 30 29 29 31 28 24 26 20 20
3510.0 24 27 22 19 21 22 17 14 11 13
3550.0 17 16 17 17 18 17 15 19 21 21
3590.0 22 34 42 37 44 48 48 61 76 99
3630.0 117 137 177 229 299 398 514 624 709 755
3670.0 743 673 567 442 325 236 178 136 108 96
3710.0 86 72 58 52 56 57 50 45 42 40
3750.0 43 37 26 26 29 29 30 31 37 35
3790.0 35 35 30 33 31 31 28 26 36 39
3830.0 42 47 46 50 54
##END=
