##TITLE=(+)-Noe's reagent,(+)-MBF-OH dimer
##JCAMP-DX=4.24
##DATA TYPE=INFRARED SPECTRUM
##ORIGIN=EPA-IR VAPOR PHASE LIBRARY
##OWNER=SRD/NIST
Collection (C) 2018 copyright by the U.S. Secretary of Commerce
on behalf of the United States of America. All rights reserved.
##CAS REGISTRY NO=81955-10-4
##MOLFORM=C 24 H 38 O 3
##$NIST SOURCE=MSDC-IR
##STATE=gas
##XUNITS=1/CM
##YUNITS=ABSORBANCE
##XFACTOR=1.
##YFACTOR=0.001
##DELTAX=1.92898
##FIRSTX=549.8
##LASTX=4000.7
##FIRSTY=2.826
##MAXX=4000.7
##MINX=549.759
##MAXY=0.110886
##MINY=0
##NPOINTS=1790
##XYDATA=(X++(Y..Y))
549.759 2.826 2.356 2.336 2.456 2.346 1.906 1.586 1.866 1.796 1.736
569.049 1.796 1.736 1.866 1.5553 1.153 1.2152 1.3912 1.796 2.216 1.816
588.339 1.586 1.3948 1.249 0.8454 0.491 0.7986 0.64005 0.289 0.164 0.59552
607.628 0.8575 0.7411 0.848 0.86 0.743 0.7228 0.715 1.0812 1.776 1.616
626.918 0.9187 0.60894 0.64274 0.58828 0.519 0.5214 0.3 0.274 0.579476 1.0066
646.208 1.1327 1.348 1.5152 1.357 1.1842 1.2184 1.114 1.1238 1.0055 0.7268
665.498 1.1789 1.385 1.2623 1.0281 1.0964 1.3205 1.3024 1.5276 1.5419 1.816
684.787 2.486 3.436 4.566 5.376 6.266 7.266 8.036 8.986 9.896 10.616
704.077 11.636 13.026 14.706 16.126 17.846 19.136 20.246 22.506 24.026 22.476
723.367 19.546 17.286 15.806 13.846 11.096 8.576 6.586 4.946 4.036 3.646
742.657 3.676 3.806 4.036 5.016 5.946 6.856 7.976 8.786 9.276 9.966
761.947 9.506 8.236 7.796 7.426 6.476 5.906 5.396 4.726 4.376 3.986
781.236 3.866 4.066 4.056 3.776 3.516 3.146 2.976 3.006 2.276 1.606
800.526 1.786 1.756 1.4456 1.3869 1.3234 1.5099 2.066 2.246 2.246 2.516
819.816 3.146 3.556 3.846 4.496 5.026 4.876 4.596 4.626 4.626 4.436
839.106 3.856 3.326 3.226 3.116 2.816 2.746 2.376 1.786 1.5143 1.4617
858.395 1.4853 1.4096 1.5723 1.2263 1.1183 1.4922 1.4692 1.666 2.356 2.986
877.685 3.146 3.486 3.946 4.146 4.556 4.516 4.056 3.956 3.916 3.516
896.975 2.946 2.456 2.106 1.936 1.756 1.906 2.036 2.196 2.446 2.466
916.265 2.496 2.466 2.836 3.216 3.356 3.616 3.576 3.386 3.586 3.806
935.555 4.056 4.486 4.566 4.916 5.206 5.196 5.796 6.296 6.466 6.616
954.844 7.016 7.866 8.616 9.706 11.526 13.336 15.336 17.446 19.836 22.606
974.134 24.316 26.096 27.656 28.126 27.926 26.476 24.576 22.006 18.926 16.126
993.424 13.946 12.116 10.686 9.626 9.016 9.216 9.656 10.326 10.976 11.586
1012.714 13.256 15.306 17.216 20.056 22.836 24.966 26.836 28.096 28.436 27.116
1032.003 25.046 22.576 19.426 16.476 13.346 10.996 9.266 8.406 8.736 8.546
1051.293 9.296 11.066 12.446 12.976 13.546 14.326 14.056 13.586 12.876 12.326
1070.583 11.596 10.956 10.216 9.766 9.796 9.716 10.236 10.846 11.696 11.256
1089.873 9.976 9.626 9.136 8.206 7.036 5.736 5.606 5.226 4.196 4.126
1109.163 3.686 3.506 4.266 4.626 5.166 5.866 6.926 8.276 9.896 12.386
1128.452 15.916 20.276 24.416 28.746 33.086 35.916 38.046 40.116 39.656 36.636
1147.742 33.346 29.416 24.766 20.006 15.246 11.056 8.716 7.276 5.486 4.246
1167.032 4.126 3.886 3.746 4.166 4.126 3.666 2.956 2.676 2.906 3.326
1186.322 3.006 2.636 2.566 2.266 2.856 3.346 2.966 2.366 2.786 3.446
1205.611 3.356 3.246 3.176 2.786 2.516 2.516 2.396 2.876 2.496 3.006
1224.901 2.986 2.566 3.106 2.266 1.846 1.966 2.156 2.726 2.826 2.676
1244.191 3.026 3.706 3.816 3.816 3.996 4.226 4.116 3.986 3.946 3.356
1263.481 3.486 3.896 3.676 3.876 3.816 3.306 3.396 3.606 3.536 3.526
1282.771 3.706 3.716 3.726 3.796 3.826 3.636 3.506 3.506 3.266 3.106
1302.060 3.026 2.736 2.556 2.576 2.366 2.216 2.106 1.826 1.716 1.756
1321.350 1.876 2.016 2.156 2.206 2.206 2.366 2.426 2.366 2.346 2.426
1340.640 2.416 2.406 2.586 2.926 3.296 3.516 3.936 4.436 4.916 5.556
1359.930 6.296 7.056 7.726 8.376 9.096 9.816 10.466 11.136 11.666 11.846
1379.219 12.046 12.156 11.946 11.826 11.726 11.326 10.876 10.816 10.256 8.936
1398.509 8.116 7.546 6.586 5.286 4.156 3.406 2.846 2.696 2.656 2.606
1417.799 2.686 2.796 2.926 3.016 3.156 3.386 3.736 4.156 4.566 5.086
1437.089 5.656 6.206 6.826 7.586 8.256 8.786 9.336 9.746 10.156 10.556
1456.378 10.826 11.126 11.416 11.626 11.946 12.276 12.606 13.016 13.376 13.676
1475.668 13.816 13.576 12.906 12.076 11.296 10.256 9.016 7.746 6.656 5.686
1494.958 4.856 4.306 3.796 3.316 2.856 2.556 2.286 2.126 2.086 1.996
1514.248 1.866 1.646 1.4977 1.596 1.646 1.4134 1.2654 1.2769 1.3929 1.3646
1533.538 1.2388 1.3731 1.3269 1.3746 1.454 1.2885 1.3374 1.3491 1.3271 1.4419
1552.827 1.5018 1.596 1.716 1.686 1.676 1.836 1.946 2.076 2.356 2.656
1572.117 2.976 3.316 3.726 4.446 5.096 5.926 7.036 7.986 9.256 10.686
1591.407 12.216 13.906 15.446 17.016 18.536 19.716 20.636 21.296 21.176 20.626
1610.697 20.086 19.096 17.496 15.266 12.926 10.966 9.126 7.226 5.636 4.286
1629.986 3.176 2.666 2.286 1.946 1.666 1.559 1.666 1.596 1.5196 1.4407
1649.276 1.3935 1.4032 1.2753 1.2199 1.1737 1.1576 1.2743 1.2716 1.1972 1.1805
1668.566 1.2402 1.2487 1.2892 1.3071 1.2168 1.1236 1.1493 1.1562 1.0908 1.0426
1687.856 1.0996 1.0756 1.0122 1.0628 1.0368 0.9754 0.9196 0.9973 0.979 0.9233
1707.146 0.9122 0.9063 0.8836 0.8492 0.9308 0.9091 0.8794 0.8572 0.8891 0.9884
1726.435 0.9199 0.7718 0.7641 0.8073 0.8463 0.9627 1.0032 1.0184 1.0153 0.9991
1745.725 0.9625 1.0733 1.1634 1.2996 1.4747 1.5397 1.686 1.926 2.236 2.416
1765.015 2.436 2.616 2.746 2.606 2.466 2.256 1.996 1.816 1.514 1.2175
1784.305 1.1065 1.0767 1.0059 0.7984 0.8044 0.9025 0.8763 0.8448 0.8414 0.7713
1803.594 0.6968 0.7363 0.7858 0.8108 0.8659 0.8929 0.8315 0.7194 0.64374 0.66279
1822.884 0.66473 0.706 0.8384 0.7585 0.64941 0.6989 0.7873 0.7887 0.7365 0.7874
1842.174 0.7698 0.7348 0.8453 0.9397 0.8767 0.8622 0.856 0.8141 0.7628 0.7672
1861.464 0.829 0.9522 0.8797 0.7698 0.8453 0.8188 0.7288 0.8024 0.8826 0.773
1880.754 0.78 0.8322 0.8609 0.8837 0.8773 0.8508 0.8281 0.8794 0.8372 0.6824
1900.043 0.63824 0.717 0.8737 0.9376 0.8157 0.8783 0.9743 0.8754 0.8057 0.7797
1919.333 0.7096 0.7314 0.8342 0.7939 0.7711 0.8195 0.8183 0.8358 0.9067 0.9522
1938.623 0.9125 0.8129 0.7816 0.9122 0.9851 0.8043 0.7226 0.7664 0.849 0.9184
1957.913 0.7919 0.8091 0.9178 0.8493 0.7714 0.7996 0.8395 0.8272 0.8233 0.9265
1977.202 0.9738 0.924 0.8952 0.9012 0.9708 0.9759 0.9862 0.9406 0.859 0.9616
1996.492 1.116 1.0901 1.0711 1.1018 1.0625 1.025 1.0561 1.1026 1.0581 1.0081
2015.782 1.0165 1.0489 1.0866 1.1389 1.0737 1.0597 1.146 1.1488 1.1542 1.1363
2035.072 1.1417 1.1745 1.089 1.0197 1.0731 1.1268 1.0628 1.0456 1.1064 0.9664
2054.362 0.8202 0.8907 0.966 1.0476 1.1449 1.1092 0.9995 0.9333 0.8455 0.8586
2073.651 0.982 0.9061 0.8872 0.9905 0.9982 0.9512 0.8634 0.8355 0.9207 0.9502
2092.941 0.8864 0.8865 0.8942 0.8093 0.8588 0.9954 1.0466 1.059 1.0378 1.0617
2112.231 0.9315 0.9561 1.087 1.0426 1.0615 0.9624 0.955 1.1069 1.0615 1.0919
2131.521 1.1101 1.0021 1.08 1.057 1.0397 1.0131 0.9695 0.9514 0.8659 0.9114
2150.810 0.9033 0.9844 0.9342 0.7909 0.8428 0.9212 1.0072 0.9565 0.8957 0.9666
2170.100 0.951 0.8317 0.7893 0.8313 0.9107 1.0267 0.9908 0.8464 0.841 0.7924
2189.390 0.8496 0.9726 0.936 0.8202 0.9004 1.0617 1.0841 1.0308 0.8954 0.8102
2208.680 0.7108 0.6888 0.8626 0.9066 0.8135 0.8369 0.8103 0.7138 0.62677 0.65129
2227.970 0.7287 0.7798 0.8289 0.8721 0.8655 0.7981 0.754 0.7249 0.7931 0.8739
2247.259 0.7986 0.8182 0.9193 0.8117 0.8427 0.9021 0.8076 0.8629 0.9247 0.8498
2266.549 0.9337 0.9608 0.8951 1.0443 1.0468 0.9804 1.0596 1.0695 1.0449 1.0776
2285.839 1.0821 0.9732 0.9053 1.0372 1.0232 0.9108 0.7978 0.7941 0.9393 0.9059
2305.129 0.8304 0.8622 0.7984 0.7222 0.7562 0.8181 0.8774 0.8803 0.8421 0.8321
2324.418 0.7962 0.7743 0.8532 0.7961 0.7346 0.906 0.7904 0.7876 0.9971 0.8393
2343.708 0.6788 0.555 0.553 0.65173 0.7557 0.7827 0.7946 0.7871 0.66062 0.59645
2362.998 0.7056 0.66446 0.65269 0.7577 0.6905 0.6955 0.7465 0.8505 0.9185 0.9055
2382.288 0.9451 0.827 0.7143 0.8366 0.9194 0.9214 0.8679 0.7919 0.9143 0.8987
2401.578 0.8076 0.8968 0.8596 0.883 0.8691 0.8125 0.8603 0.7748 0.7542 0.7108
2420.867 0.6914 0.7465 0.7332 0.7869 0.8444 0.7989 0.7614 0.729 0.66941 0.6946
2440.157 0.7466 0.9264 0.9275 0.8175 0.8272 0.6488 0.57725 0.7567 0.7724 0.7419
2459.447 0.7667 0.72 0.8474 0.8348 0.585343 0.5361 0.65932 0.8853 0.9683 0.9119
2478.737 0.8767 0.8182 0.8117 0.754 0.6802 0.7191 0.7515 0.8685 0.985 0.8996
2498.026 0.8165 0.8504 0.8237 0.7739 0.7898 0.867 0.8004 0.7812 0.8026 0.7368
2517.316 0.7701 0.7988 0.8176 0.8448 0.9205 0.847 0.7285 0.6911 0.6869 0.7959
2536.606 0.8785 0.8419 0.67346 0.7485 0.9219 0.8985 0.9216 0.8697 0.8713 0.8538
2555.896 0.65055 0.6825 0.899 0.8806 0.8807 0.992 1.0067 0.8619 0.7971 0.803
2575.186 0.7748 0.9509 1.119 1.0485 1.0347 1.0919 0.9479 0.9094 1.0694 1.0906
2594.475 0.9654 0.921 0.9184 0.9234 0.9711 1.057 0.9977 1.1277 1.2789 1.089
2613.765 1.0119 1.0389 0.9767 0.9282 1.0654 1.0686 0.9868 0.9373 0.8061 0.8442
2633.055 1.0323 1.1207 1.1425 1.069 1.0143 1.0171 0.9866 0.9335 0.9626 1.0716
2652.345 1.0392 1.0363 0.9754 0.9296 1.087 1.1902 1.2764 1.2699 1.1789 1.194
2671.634 1.2439 1.1129 1.1567 1.228 1.1713 1.0945 1.0371 1.1286 1.1049 0.9597
2690.924 1.0166 1.1138 0.9386 0.8926 1.0101 1.0082 0.9884 1.0899 1.1952 1.115
2710.214 1.2217 1.2762 1.1796 1.2893 1.3835 1.3865 1.4571 1.756 1.806 1.786
2729.504 1.926 1.956 2.096 2.196 2.136 2.096 2.036 1.866 1.716 1.5565
2748.794 1.3984 1.436 1.356 1.4397 1.5306 1.4304 1.3986 1.4764 1.5005 1.3289
2768.083 1.3082 1.5051 1.706 1.686 1.5552 1.616 1.806 1.806 1.676 1.756
2787.373 2.086 2.236 2.046 1.916 1.906 1.856 1.846 1.916 1.996 2.106
2806.663 2.116 2.106 2.086 2.306 2.436 2.306 2.386 2.526 2.786 2.986
2825.953 2.956 2.836 2.886 3.016 3.106 3.286 3.406 3.406 3.656 3.806
2845.242 3.866 4.046 4.296 4.736 5.146 5.586 6.206 6.966 7.906 9.236
2864.532 10.786 12.696 14.816 17.006 19.446 21.916 24.416 26.526 28.146 29.696
2883.822 30.946 31.836 32.216 32.146 31.746 31.106 30.426 29.756 29.196 28.686
2903.112 28.756 29.186 29.736 30.816 32.326 34.316 36.356 39.046 42.776 46.776
2922.401 51.136 56.216 62.366 69.336 76.776 84.396 91.596 98.456 104.536 108.796
2941.691 110.886 108.796 103.846 99.936 97.056 94.296 91.466 89.406 88.266 87.286
2960.981 85.736 83.306 80.526 77.556 73.836 69.566 64.946 59.816 55.116 51.706
2980.271 48.846 45.756 43.276 41.516 39.606 37.626 35.466 32.986 30.396 27.956
2999.561 25.216 21.866 18.656 15.946 13.296 11.136 9.456 7.756 6.466 5.686
3018.850 5.076 4.416 3.956 3.646 3.596 3.546 3.346 3.226 3.066 3.016
3038.140 2.946 2.836 2.916 2.886 2.716 2.626 2.556 2.636 2.756 2.786
3057.430 2.716 2.816 3.006 3.016 2.976 2.786 2.916 3.026 3.016 3.386
3076.720 3.586 3.736 3.946 4.296 4.976 5.846 6.776 7.546 8.406 9.446
3096.009 10.276 10.346 10.116 10.246 10.016 8.796 7.576 6.856 5.966 4.916
3115.299 3.916 3.086 2.706 2.526 2.206 2.096 2.106 2.106 2.106 2.006
3134.589 1.946 2.026 1.986 1.826 1.606 1.596 1.626 1.656 1.726 1.756
3153.879 1.796 1.906 1.986 1.926 1.746 1.656 1.786 1.756 1.686 1.726
3173.169 1.626 1.275 1.3716 1.836 1.816 1.666 1.716 1.5405 1.3422 1.3198
3192.458 1.4722 1.5435 1.4007 1.4391 1.527 1.4812 1.4127 1.3996 1.3832 1.3868
3211.748 1.4729 1.4118 1.5105 1.5523 1.2673 1.2239 1.1955 1.0805 0.9641 0.7345
3231.038 0.7409 0.9009 0.7445 0.63436 0.9693 1.0275 0.6987 0.60922 0.7023 0.59684
3250.328 0.60273 0.8083 0.7529 0.62142 0.7068 0.9101 0.7647 0.5183 0.367 0.462
3269.617 0.7175 0.7821 0.8166 0.8449 0.896 0.7495 0.6808 0.7562 0.8328 0.9098
3288.907 0.9378 0.986 0.9343 0.7018 0.462 0.8271 1.1111 0.7973 0.57288 0.5034
3308.197 0.7 0.8525 0.7001 0.7144 0.79 0.5998 0.469 0.471 0.61095 0.732
3327.487 0.60528 0.475 0.5516 0.61078 0.56615 0.64667 0.6788 0.5945 0.60583 0.578155
3346.777 0.60249 0.59856 0.5263 0.61481 0.8428 0.9774 0.60171 0.5235 0.4881 0.438
3366.066 0.61057 0.5331 0.8214 0.7741 0.457 0.361 0.288 0.516 0.7185 0.45
3385.356 0.436 0.7067 0.65018 0.61276 0.4865 0.6982 0.8261 0.5073 0.47 0.578007
3404.646 0.451 0.4959 0.5449 0.334 0.23 0.4 0.46 0.209 0.18 0.287
3423.936 0.431 0.348 0.271 0.471 0.5301 0.434 0.471 0.61626 0.391 0.343
3443.225 0.5137 0.478 0.4822 0.259 0.125 0.488 0.8273 0.8017 0.5112 0.4806
3462.515 0.59742 0.394 0.401 0.5311 0.277 0.338 0.5655 0.7774 1.1242 1.112
3481.805 0.933 0.7535 0.5562 0.45 0.4788 0.59928 0.7187 0.63037 0.61353 0.5308
3501.095 0.348 0.451 0.5519 0.389 0.334 0.5559 0.5103 0.60334 0.60621 0.262
3520.385 0.364 0.67001 0.61653 0.63489 0.8459 0.7272 0.58842 0.5056 0.362 0.374
3539.674 0.325 0.426 0.45 0.374 0.584807 0.67146 0.5656 0.307 0.214 0.188
3558.964 0.173 0.247 0.267 0.312 0.242 0.285 0.6971 0.7581 0.56974 0.6075
3578.254 0.5424 0.5168 0.6925 0.62985 0.5545 0.5629 0.595 0.58174 0.60106 0.59552
3597.544 0.472 0.282 0.344 0.584517 0.5175 0.5401 0.5023 0.457 0.465 0.467
3616.833 0.62467 0.5343 0.431 0.4907 0.432 0.401 0.385 0.378 0.7485 0.9055
3636.123 0.7121 0.58706 0.41 0.60795 0.7189 0.7546 0.5329 0.289 0.376 0.419
3655.413 0.576721 0.5376 0.7789 0.8624 0.4951 0.313 0.252 0.266 0.417 0.59621
3674.703 0.398 0.219 0.329 0.59001 0.7238 0.58878 0.5365 0.448 0.44 0.5115
3693.993 0.432 0.421 0.442 0.63575 0.59902 0.463 0.64955 0.5508 0.394 0.289
3713.282 0.35 0.461 0.372 0.5079 0.59269 0.4962 0.5367 0.338 0.34 0.61176
3732.572 0.5235 0.471 0.459 0.235 0 0.252 0.391 0.56972 0.8068 0.4794
3751.862 0.443 0.5279 0.5561 0.8449 0.8255 0.63783 0.6937 0.7529 0.5529 0.396
3771.152 0.7961 0.8563 0.6955 0.698 0.6232 0.871 0.8754 0.8464 0.76 0.5069
3790.441 0.763 0.8694 0.7892 0.7381 0.7175 0.7503 0.5306 0.424 0.432 0.461
3809.731 0.5749 0.62734 0.58803 0.5085 0.65344 0.8774 0.8181 0.4831 0.394 0.297
3829.021 0.468 0.6873 0.5381 0.5278 0.424 0.466 0.59296 0.7624 0.974 0.8722
3848.311 0.5458 0.6391 0.7938 0.5641 0.4903 0.437 0.57309 0.8526 0.7858 0.548
3867.601 0.67561 0.9804 0.8196 0.7455 0.7377 0.524 0.7975 1.0429 0.7319 0.5529
3886.890 0.575274 0.7278 0.9685 1.0366 0.8446 0.8096 0.6808 0.58221 0.7196 0.9583
3906.180 0.7483 0.448 0.8059 0.9519 0.9357 1.1046 1.1009 0.8662 0.8705 1.0386
3925.470 1.2188 1.1981 0.8269 0.6786 1.1178 1.2022 0.8409 0.965 1.2024 1.0578
3944.760 0.9214 0.8552 0.7752 0.7106 0.9627 1.1698 1.0423 0.9732 0.9845 0.8686
3964.049 0.6911 0.7112 0.7005 0.8391 0.8336 0.433 0.458 0.8376 0.8033 0.57417
3983.339 0.411 0.58704 0.60039 0.58889 0.63054 0.6794 0.8312 0.5207 0.421 0.544
##END=
