##TITLE=Benzanthrone
##JCAMP-DX=4.24
##DATA TYPE=INFRARED SPECTRUM
##ORIGIN=NIST Mass Spectrometry Data Center
##OWNER=NIST Standard Reference Data Program
Collection (C) 2018 copyright by the U.S. Secretary of Commerce
on behalf of the United States of America. All rights reserved.
##CAS REGISTRY NO=82-05-3
##MOLFORM=C 17 H 10 O
##$NIST SOURCE=MSDC-IR
##SPECTROMETER/DATA SYSTEM=HP-GC/MS/IRD
##STATE=gas
##XUNITS=1/CM
##YUNITS=ABSORBANCE
##XFACTOR=1.0
##YFACTOR=0.000002400
##DELTAX=4.0
##FIRSTX=550.0
##LASTX=3846.0
##FIRSTY=0.000266
##MAXX=3846
##MINX=550
##MAXY=0.024
##MINY=0
##NPOINTS=825
##XYDATA=(X++(Y..Y))
550.0 111 85 0 84 192 319 540 704 610 455
590.0 278 135 104 78 47 37 40 48 84 132
630.0 126 75 60 57 81 197 345 415 354 222
670.0 120 124 246 429 617 676 544 359 214 117
710.0 49 34 71 124 122 155 295 583 1095 1898
750.0 2585 2923 2598 2022 2234 3171 4866 5800 4431 2684
790.0 1495 780 500 339 215 144 126 92 97 182
830.0 396 628 899 933 628 360 195 149 203 393
870.0 665 824 784 573 343 201 129 100 90 88
910.0 100 129 139 130 178 328 684 1178 1419 1241
950.0 697 251 132 87 68 73 66 54 55 65
990.0 56 53 76 100 141 244 482 944 1348 1477
1030.0 1282 904 610 360 195 102 85 110 192 362
1070.0 505 504 362 206 149 122 91 98 109 91
1110.0 75 90 116 128 138 200 276 306 304 275
1150.0 271 360 487 554 538 455 352 311 342 387
1190.0 467 572 619 593 538 496 494 505 477 406
1230.0 347 344 370 423 493 592 808 1199 1844 2541
1270.0 2889 2846 2573 2512 3009 3938 4716 4724 3792 2520
1310.0 1709 1450 1421 1383 1262 1169 1300 1715 2327 2747
1350.0 2639 2062 1408 1096 1064 1196 1446 1694 1828 1715
1390.0 1355 900 523 327 244 205 212 244 291 347
1430.0 399 431 449 535 797 1180 1411 1334 1005 714
1470.0 601 584 600 585 508 432 430 542 674 710
1510.0 621 446 287 220 217 228 220 199 180 175
1550.0 191 242 327 457 683 1061 1516 1875 2008 1920
1590.0 1883 2049 2162 2035 1708 1358 1188 1180 1163 1044
1630.0 866 733 703 785 975 1309 1882 2862 4658 7330
1670.0 9496 10000 8519 5737 3475 2193 1447 1025 781 648
1710.0 584 556 526 469 398 329 293 266 232 207
1750.0 188 162 141 127 120 123 121 116 120 145
1790.0 189 212 206 185 149 130 130 135 146 159
1830.0 162 155 143 131 138 170 218 251 247 209
1870.0 152 105 92 92 91 99 106 118 140 167
1910.0 184 201 228 246 249 243 236 237 235 237
1950.0 242 233 217 201 176 142 99 60 45 38
1990.0 38 34 31 26 23 28 25 23 18 19
2030.0 24 21 29 28 23 33 35 36 39 39
2070.0 36 31 34 36 31 23 32 37 32 32
2110.0 30 31 36 40 46 47 46 43 39 32
2150.0 26 26 24 28 32 44 51 38 28 30
2190.0 35 38 30 23 30 32 35 36 32 34
2230.0 33 37 48 44 34 36 40 40 41 48
2270.0 52 50 48 44 45 52 52 47 42 36
2310.0 35 40 43 49 66 72 64 57 49 45
2350.0 38 41 51 60 63 56 50 44 46 49
2390.0 50 47 40 38 35 42 45 42 39 37
2430.0 36 26 22 23 28 36 34 40 37 28
2470.0 26 24 29 41 41 45 45 36 47 57
2510.0 51 57 62 59 48 44 50 52 54 52
2550.0 40 35 37 41 37 33 37 41 34 30
2590.0 33 36 42 42 47 54 60 66 52 36
2630.0 35 42 53 62 66 55 53 60 56 45
2670.0 47 51 43 36 33 35 47 49 39 34
2710.0 31 32 41 42 43 43 44 54 50 47
2750.0 52 53 54 43 47 58 50 47 33 25
2790.0 46 54 46 43 43 43 41 30 37 46
2830.0 46 49 46 39 42 60 64 58 54 53
2870.0 56 54 62 77 70 68 71 63 58 73
2910.0 76 78 82 76 79 86 89 98 108 111
2950.0 104 95 86 83 104 105 95 92 82 82
2990.0 92 119 160 185 210 245 291 325 370 440
3030.0 527 651 792 912 1046 1295 1710 2220 2681 2919
3070.0 2880 2606 2187 1776 1449 1196 1029 903 743 557
3110.0 398 282 209 180 156 152 154 137 134 135
3150.0 123 107 104 109 110 104 90 77 75 70
3190.0 63 57 48 48 46 48 44 32 39 51
3230.0 56 66 66 58 51 40 48 55 45 43
3270.0 57 69 60 60 65 77 82 75 72 78
3310.0 95 119 124 125 147 168 175 153 124 92
3350.0 76 96 89 67 66 65 55 38 26 44
3390.0 54 51 56 43 24 33 44 34 37 43
3430.0 35 33 44 62 77 62 45 34 31 30
3470.0 31 34 38 47 32 32 50 57 66 60
3510.0 41 42 54 59 51 61 66 59 51 43
3550.0 44 58 60 62 68 61 40 22 35 51
3590.0 50 58 53 58 79 68 72 60 43 63
3630.0 72 68 49 62 69 64 66 60 35 45
3670.0 56 54 73 82 70 72 85 76 66 69
3710.0 75 73 64 71 77 67 62 69 70 66
3750.0 56 39 27 50 60 34 29 37 38 32
3790.0 30 44 44 41 34 24 27 32 44 42
3830.0 51 57 54 57 50
##END=
