##TITLE=1-Methylaminoanthraquinone
##JCAMP-DX=4.24
##DATA TYPE=INFRARED SPECTRUM
##ORIGIN=EPA-IR VAPOR PHASE LIBRARY
##OWNER=SRD/NIST
Collection (C) 2018 copyright by the U.S. Secretary of Commerce
on behalf of the United States of America. All rights reserved.
##CAS REGISTRY NO=82-38-2
##MOLFORM=C 15 H 11 N O 2
##$NIST SOURCE=MSDC-IR
##STATE=gas
##XUNITS=1/CM
##YUNITS=ABSORBANCE
##XFACTOR=1.
##YFACTOR=0.001
##DELTAX=1.92934
##FIRSTX=549.9
##LASTX=3999.5
##FIRSTY=4.623
##MAXX=3999.53
##MINX=549.863
##MAXY=0.141713
##MINY=0
##NPOINTS=1789
##XYDATA=(X++(Y..Y))
549.863 4.623 4.223 3.813 3.553 3.433 3.333 3.173 3.163 3.133 3.103
569.156 3.223 3.303 3.413 3.593 3.643 3.723 4.013 4.313 4.543 4.663
588.450 4.743 4.793 4.723 4.573 4.423 4.393 4.293 4.223 4.233 4.193
607.743 4.203 4.163 4.113 4.063 4.083 4.113 4.023 3.973 3.963 3.863
627.037 3.843 3.823 3.773 3.683 3.563 3.513 3.443 3.443 3.513 3.553
646.330 3.713 4.083 4.593 5.303 6.323 7.603 8.783 9.503 9.773 9.593
665.624 8.853 7.673 6.353 5.253 4.443 3.813 3.373 3.123 3.023 3.043
684.917 3.083 3.173 3.413 3.673 4.083 4.793 6.083 8.223 11.293 14.823
704.210 18.533 22.483 28.643 33.253 29.073 23.213 20.103 16.853 13.593 10.983
723.504 9.573 9.283 9.803 10.623 11.423 12.043 12.063 11.253 10.123 8.953
742.797 7.723 6.583 5.663 4.883 4.313 3.933 3.633 3.503 3.453 3.463
762.091 3.633 3.913 4.273 4.793 5.373 5.843 6.313 6.573 6.233 5.663
781.384 5.313 5.123 5.143 5.623 6.423 7.413 8.453 9.583 10.773 11.093
800.678 9.753 7.943 6.673 5.613 4.543 3.723 3.293 3.073 3.043 3.203
819.971 3.433 3.713 4.053 4.403 4.823 5.193 5.113 4.733 4.483 4.323
839.264 4.163 4.113 4.283 4.673 5.383 6.403 7.633 8.863 9.883 10.443
858.558 10.373 9.643 8.373 6.783 5.203 3.913 3.013 2.443 2.113 1.963
877.851 1.863 1.753 1.723 1.753 1.773 1.733 1.6725 1.6418 1.6279 1.6446
897.145 1.663 1.7019 1.763 1.823 2.003 2.283 2.623 3.053 3.393 3.523
916.438 3.563 3.483 3.173 2.723 2.263 1.963 1.793 1.6436 1.5476 1.5407
935.732 1.5999 1.6539 1.6781 1.753 1.873 1.983 2.153 2.423 2.723 3.133
955.025 3.613 4.143 4.813 5.663 6.663 7.843 9.283 10.963 13.073 15.813
974.318 19.243 23.233 27.303 30.633 32.403 32.263 30.313 26.763 22.063 17.123
993.612 12.963 10.023 8.123 6.863 6.003 5.353 4.793 4.353 4.003 3.683
1012.905 3.443 3.243 3.083 2.993 2.923 2.853 2.843 2.883 2.923 2.943
1032.199 2.903 2.823 2.743 2.643 2.553 2.523 2.563 2.653 2.833 3.093
1051.492 3.383 3.773 4.333 5.123 6.253 7.753 9.613 11.623 13.173 13.853
1070.786 13.663 12.703 11.033 8.763 6.523 4.953 4.083 3.643 3.463 3.413
1090.079 3.423 3.463 3.513 3.473 3.333 3.193 3.053 2.943 2.903 2.913
1109.372 3.003 3.113 3.263 3.443 3.663 3.983 4.363 4.753 5.243 5.853
1128.666 6.443 6.983 7.483 7.943 8.383 8.843 9.383 10.123 11.123 12.383
1147.959 13.743 15.033 16.153 17.043 17.663 17.953 17.803 17.193 16.393 15.763
1167.253 15.583 16.243 18.023 20.603 22.913 24.083 23.943 22.453 19.643 15.943
1186.546 12.393 9.873 8.393 7.543 7.033 6.753 6.623 6.563 6.563 6.693
1205.840 6.923 7.223 7.603 8.083 8.663 9.353 10.193 11.283 12.633 14.303
1225.133 16.323 18.593 21.053 23.453 25.523 27.103 28.263 29.153 30.013 31.033
1244.426 32.533 34.893 38.003 41.643 45.753 50.553 56.663 64.883 75.953 90.153
1263.720 106.583 122.833 135.483 141.713 140.193 131.033 115.433 95.863 76.183 59.753
1283.013 47.713 39.393 33.793 30.363 28.933 29.383 31.503 34.983 39.513 44.683
1302.307 49.753 53.913 56.643 57.693 57.103 55.193 52.463 49.563 47.093 45.263
1321.600 43.923 42.863 41.893 40.943 39.973 38.913 37.743 36.573 35.333 33.943
1340.894 32.473 30.903 29.303 27.653 25.813 23.673 21.283 18.763 16.243 13.883
1360.187 11.783 10.093 8.943 8.123 7.483 7.003 6.573 6.183 5.883 5.743
1379.480 5.723 5.823 6.153 6.653 7.393 8.403 9.643 11.003 12.363 13.573
1398.774 14.373 14.713 14.563 13.933 12.923 11.653 10.293 9.023 7.973 7.183
1418.067 6.643 6.373 6.323 6.503 6.923 7.483 8.013 8.333 8.353 8.183
1437.361 7.873 7.373 6.683 6.063 5.633 5.373 5.273 5.243 5.233 5.243
1456.654 5.283 5.383 5.483 5.523 5.553 5.673 5.863 6.053 6.333 6.753
1475.948 7.233 7.743 8.173 8.483 8.753 8.933 9.043 9.293 9.863 10.823
1495.241 12.333 14.543 17.443 21.043 25.193 29.663 34.493 38.763 41.713 43.263
1514.534 43.333 42.103 39.673 36.303 32.363 28.783 25.353 22.193 19.283 16.793
1533.828 14.803 13.333 12.283 11.473 10.913 10.533 10.253 10.053 9.933 9.853
1553.121 9.963 10.323 10.873 11.773 13.113 14.723 16.833 19.553 22.913 26.983
1572.415 31.563 36.303 41.323 45.993 49.923 53.483 56.863 60.103 63.093 65.903
1591.708 68.163 69.353 68.683 65.543 60.223 53.573 46.303 38.943 32.153 26.553
1611.002 22.473 19.753 18.173 17.403 17.393 18.053 19.233 21.003 23.343 26.463
1630.295 30.513 35.663 41.703 48.633 55.263 60.573 63.993 64.953 63.003 58.403
1649.588 52.103 44.733 36.523 29.773 24.623 20.633 17.973 16.293 15.503 15.443
1668.882 16.243 18.023 20.953 25.263 31.133 37.543 43.673 47.683 48.963 48.223
1688.175 45.153 39.153 31.233 23.473 16.743 11.963 8.823 6.603 5.393 4.493
1707.469 3.883 3.453 3.233 3.053 2.953 2.913 2.883 2.843 2.803 2.763
1726.762 2.693 2.593 2.453 2.253 2.113 2.093 2.023 1.963 1.973 1.953
1746.056 1.903 1.853 1.793 1.723 1.743 1.743 1.813 1.893 1.963 2.113
1765.349 2.253 2.283 2.303 2.313 2.273 2.273 2.233 2.123 2.013 1.893
1784.642 1.753 1.6132 1.4873 1.3946 1.3106 1.2347 1.2141 1.151 1.1013 1.1136
1803.936 1.0842 1.0616 1.0311 0.996 0.9989 1.0037 0.9988 0.9889 0.9616 0.9249
1823.229 0.87 0.8185 0.78426 0.74497 0.7456 0.75901 0.7565 0.75035 0.77419 0.79923
1842.523 0.79683 0.8157 0.9102 0.9888 1.0836 1.1696 1.1948 1.2311 1.2611 1.265
1861.816 1.2469 1.2005 1.1423 1.1205 1.0985 1.0483 1.0126 0.9908 0.9506 0.9111
1881.110 0.8877 0.8698 0.8493 0.8048 0.76893 0.76657 0.76352 0.73919 0.70128 0.6462
1900.403 0.595 0.592 0.601 0.6081 0.581 0.573 0.6238 0.6778 0.685 0.6664
1919.696 0.704713 0.7711 0.8224 0.8575 0.9433 1.0783 1.2041 1.296 1.4045 1.5318
1938.990 1.605 1.6001 1.5693 1.5562 1.5356 1.4776 1.3868 1.3184 1.2617 1.159
1958.283 1.0999 1.0924 1.0249 0.9359 0.8802 0.8279 0.8388 0.9117 0.9685 0.9792
1977.577 0.9597 0.9406 0.8823 0.76591 0.6814 0.605 0.491 0.444 0.444 0.45
1996.870 0.434 0.401 0.399 0.388 0.378 0.369 0.358 0.367 0.362 0.371
2016.164 0.375 0.349 0.299 0.289 0.306 0.305 0.273 0.243 0.269 0.285
2035.457 0.29 0.263 0.271 0.323 0.352 0.369 0.375 0.369 0.402 0.441
2054.750 0.45 0.476 0.504 0.526 0.537 0.53 0.541 0.575 0.563 0.552
2074.044 0.556 0.548 0.514 0.455 0.436 0.419 0.395 0.358 0.339 0.34
2093.337 0.331 0.323 0.277 0.277 0.279 0.254 0.263 0.275 0.276 0.313
2112.631 0.328 0.316 0.334 0.321 0.321 0.364 0.379 0.382 0.396 0.393
2131.924 0.398 0.421 0.43 0.395 0.382 0.379 0.374 0.378 0.368 0.351
2151.218 0.335 0.315 0.333 0.349 0.346 0.368 0.348 0.342 0.362 0.381
2170.511 0.396 0.399 0.398 0.389 0.385 0.39 0.395 0.411 0.393 0.316
2189.804 0.276 0.285 0.304 0.274 0.23 0.214 0.213 0.229 0.236 0.228
2209.098 0.203 0.217 0.262 0.266 0.263 0.287 0.326 0.352 0.381 0.392
2228.391 0.383 0.402 0.414 0.43 0.452 0.461 0.478 0.482 0.483 0.498
2247.685 0.501 0.504 0.489 0.474 0.452 0.436 0.426 0.416 0.426 0.416
2266.978 0.388 0.347 0.313 0.301 0.314 0.315 0.295 0.297 0.313 0.303
2286.272 0.308 0.327 0.303 0.283 0.275 0.291 0.331 0.334 0.324 0.324
2305.565 0.335 0.354 0.349 0.333 0.37 0.383 0.369 0.378 0.391 0.403
2324.858 0.401 0.404 0.387 0.364 0.352 0.295 0.255 0.272 0.279 0.281
2344.152 0.286 0.27 0.271 0.265 0.241 0.226 0.214 0.211 0.214 0.228
2363.445 0.233 0.238 0.291 0.341 0.36 0.368 0.377 0.392 0.386 0.404
2382.739 0.432 0.413 0.393 0.379 0.354 0.355 0.337 0.335 0.356 0.345
2402.032 0.337 0.365 0.395 0.382 0.383 0.427 0.459 0.477 0.485 0.484
2421.326 0.47 0.489 0.502 0.485 0.495 0.482 0.446 0.432 0.432 0.425
2440.619 0.413 0.409 0.403 0.364 0.339 0.341 0.34 0.311 0.292 0.31
2459.912 0.301 0.26 0.247 0.278 0.307 0.303 0.304 0.292 0.275 0.308
2479.206 0.349 0.365 0.385 0.378 0.357 0.369 0.422 0.454 0.438 0.474
2498.499 0.506 0.463 0.454 0.46 0.449 0.448 0.4 0.354 0.389 0.419
2517.793 0.394 0.351 0.307 0.322 0.341 0.336 0.332 0.345 0.351 0.32
2537.086 0.332 0.344 0.361 0.378 0.389 0.413 0.392 0.398 0.417 0.418
2556.380 0.434 0.418 0.409 0.42 0.433 0.453 0.424 0.391 0.404 0.428
2575.673 0.396 0.394 0.436 0.433 0.412 0.446 0.46 0.42 0.403 0.425
2594.966 0.456 0.474 0.473 0.463 0.484 0.529 0.594 0.6254 0.6751 0.69751
2614.260 0.711381 0.75643 0.77239 0.77451 0.74634 0.72392 0.69394 0.6449 0.6118 0.569
2633.553 0.515 0.5 0.494 0.469 0.462 0.446 0.379 0.371 0.391 0.398
2652.847 0.415 0.42 0.386 0.344 0.379 0.409 0.396 0.402 0.421 0.432
2672.140 0.447 0.479 0.516 0.519 0.549 0.559 0.6 0.70045 0.73361 0.711651
2691.434 0.710497 0.77056 0.8146 0.79301 0.71348 0.6905 0.6925 0.6774 0.6626 0.6503
2710.727 0.654 0.651 0.6521 0.6347 0.58 0.553 0.571 0.582 0.565 0.577
2730.020 0.6171 0.6158 0.602 0.6178 0.6298 0.598 0.6302 0.6836 0.684 0.6757
2749.314 0.6552 0.6482 0.6332 0.631 0.6094 0.592 0.6375 0.6771 0.72731 0.78526
2768.607 0.79928 0.8078 0.8346 0.8361 0.8499 0.9092 0.9571 0.9959 1.0296 1.0285
2787.901 1.084 1.2204 1.3127 1.3808 1.5522 1.6791 1.733 1.793 1.883 2.013
2807.194 2.173 2.373 2.573 2.883 3.233 3.613 4.043 4.403 4.703 4.963
2826.488 5.063 5.193 5.353 5.433 5.573 5.843 6.193 6.443 6.523 6.443
2845.781 6.133 5.713 5.133 4.403 3.733 3.253 2.903 2.673 2.583 2.553
2865.074 2.593 2.733 2.923 3.143 3.463 3.803 4.213 4.693 5.103 5.433
2884.368 5.713 5.923 6.083 6.243 6.363 6.483 6.623 6.843 7.163 7.553
2903.661 7.973 8.533 9.153 9.753 10.353 10.833 11.093 11.143 10.983 10.603
2922.955 10.123 9.593 8.973 8.403 8.023 7.763 7.633 7.523 7.543 7.723
2942.248 7.923 8.093 8.273 8.333 8.183 7.883 7.503 7.083 6.433 5.803
2961.542 5.123 4.393 3.863 3.363 2.943 2.643 2.463 2.433 2.433 2.493
2980.835 2.673 2.803 3.023 3.453 3.843 4.133 4.373 4.463 4.423 4.243
3000.128 4.033 3.783 3.483 3.193 2.903 2.673 2.533 2.563 2.573 2.543
3019.422 2.513 2.393 2.273 2.253 2.263 2.323 2.433 2.463 2.623 2.723
3038.715 2.773 2.883 3.053 3.123 3.123 3.183 3.133 3.153 3.273 3.383
3058.009 3.463 3.633 3.953 4.443 5.143 6.103 7.503 9.263 11.143 12.903
3077.302 14.323 14.933 14.673 14.003 12.813 11.243 9.633 8.243 7.263 6.353
3096.596 5.443 4.593 3.833 3.143 2.443 1.993 1.723 1.4617 1.1776 0.9398
3115.889 0.78213 0.73498 0.78341 0.75776 0.591 0.462 0.506 0.451 0.441 0.469
3135.182 0.381 0.372 0.382 0.372 0.401 0.437 0.453 0.507 0.562 0.526
3154.476 0.489 0.508 0.579 0.561 0.529 0.586 0.479 0.299 0.309 0.308
3173.769 0.217 0.176 0.244 0.245 0.104 0.091 0.177 0.163 0.119 0.118
3193.063 0.12 0.096 0.063 0.001 0.03 0.119 0.141 0.182 0.202 0.286
3212.356 0.419 0.473 0.473 0.511 0.549 0.556 0.591 0.6758 0.6403 0.553
3231.650 0.56 0.596 0.6535 0.6518 0.6401 0.69398 0.79047 0.834 0.9678 1.0617
3250.943 1.0236 1.0227 1.1883 1.3664 1.4692 1.5475 1.6526 1.823 2.013 2.193
3270.236 2.393 2.533 2.633 2.873 3.133 3.323 3.453 3.683 3.973 4.183
3289.530 4.433 4.703 5.013 5.423 5.753 6.003 6.213 6.513 6.803 6.863
3308.823 6.833 6.843 6.813 6.743 6.623 6.403 6.173 5.973 5.763 5.573
3328.117 5.363 5.183 4.973 4.793 4.673 4.493 4.263 4.163 4.033 3.783
3347.410 3.663 3.523 3.343 3.183 2.983 2.773 2.543 2.303 2.043 1.853
3366.704 1.743 1.5935 1.3829 1.2561 1.2221 1.2044 1.1033 0.9865 0.9028 0.8642
3385.997 0.75865 0.74103 0.73059 0.6667 0.6673 0.589 0.583 0.558 0.459 0.476
3405.290 0.509 0.411 0.402 0.534 0.554 0.359 0.323 0.411 0.396 0.435
3424.584 0.374 0.308 0.34 0.366 0.4 0.301 0.261 0.376 0.29 0.247
3443.877 0.354 0.337 0.331 0.454 0.466 0.378 0.383 0.377 0.282 0.256
3463.171 0.272 0.313 0.307 0.272 0.229 0.187 0.213 0.21 0.172 0.173
3482.464 0.218 0.254 0.285 0.276 0.251 0.237 0.316 0.313 0.223 0.222
3501.758 0.219 0.189 0.115 0.189 0.313 0.213 0.149 0.179 0.152 0.179
3521.051 0.179 0.075 0.061 0.099 0.155 0.124 0.066 0.029 0.004 0.06
3540.344 0.094 0.123 0.091 0.091 0.137 0.132 0.087 0.018 0.08 0.093
3559.638 0.095 0.154 0.1 0.106 0.141 0.146 0.155 0.172 0.114 0.097
3578.931 0.128 0.142 0.157 0.162 0.197 0.2 0.162 0.121 0.126 0.167
3598.225 0.194 0.162 0.122 0.128 0.095 0.083 0.141 0.097 0.107 0.138
3617.518 0.082 0.092 0.1 0.135 0.206 0.176 0.079 0.133 0.216 0.139
3636.812 0.128 0.154 0.137 0.15 0.118 0.046 0 0.022 0.076 0.084
3656.105 0.092 0.128 0.229 0.174 0.12 0.164 0.149 0.101 0.026 0.052
3675.398 0.044 0.078 0.119 0.104 0.132 0.178 0.182 0.095 0.119 0.183
3694.692 0.223 0.23 0.212 0.161 0.124 0.194 0.221 0.195 0.163 0.163
3713.985 0.166 0.181 0.185 0.174 0.158 0.168 0.218 0.204 0.224 0.261
3733.279 0.229 0.21 0.216 0.2 0.141 0.082 0.063 0.08 0.076 0.096
3752.572 0.14 0.186 0.213 0.233 0.246 0.254 0.199 0.146 0.245 0.237
3771.866 0.133 0.117 0.168 0.23 0.179 0.143 0.207 0.227 0.242 0.26
3791.159 0.249 0.205 0.166 0.14 0.136 0.201 0.216 0.203 0.205 0.212
3810.452 0.208 0.214 0.211 0.203 0.217 0.19 0.124 0.134 0.165 0.182
3829.746 0.197 0.181 0.157 0.153 0.173 0.217 0.207 0.15 0.213 0.257
3849.039 0.214 0.192 0.131 0.093 0.177 0.243 0.216 0.206 0.163 0.163
3868.333 0.193 0.115 0.092 0.053 0.077 0.169 0.221 0.268 0.229 0.148
3887.626 0.144 0.169 0.22 0.227 0.212 0.228 0.197 0.217 0.231 0.196
3906.920 0.213 0.278 0.284 0.229 0.194 0.265 0.289 0.255 0.285 0.255
3926.213 0.276 0.32 0.293 0.255 0.267 0.298 0.263 0.228 0.238 0.25
3945.506 0.254 0.253 0.254 0.244 0.246 0.273 0.262 0.302 0.318 0.291
3964.800 0.296 0.274 0.318 0.375 0.339 0.27 0.278 0.384 0.377 0.302
3984.093 0.373 0.375 0.324 0.364 0.368 0.363 0.322 0.313 0.338
##END=
