##TITLE=1-Undecene
##JCAMP-DX=4.24
##DATA TYPE=INFRARED SPECTRUM
##ORIGIN=NIST Mass Spectrometry Data Center
##OWNER=NIST Standard Reference Data Program
Collection (C) 2018 copyright by the U.S. Secretary of Commerce
on behalf of the United States of America. All rights reserved.
##CAS REGISTRY NO=821-95-4
##MOLFORM=C 11 H 22
##$NIST SOURCE=MSDC-IR
##SPECTROMETER/DATA SYSTEM=HP-GC/MS/IRD
##STATE=gas
##XUNITS=1/CM
##YUNITS=ABSORBANCE
##XFACTOR=1.0
##YFACTOR=0.000002600
##DELTAX=4.0
##FIRSTX=550.0
##LASTX=3846.0
##FIRSTY=0.000333
##MAXX=3846
##MINX=550
##MAXY=0.026
##MINY=0
##NPOINTS=825
##XYDATA=(X++(Y..Y))
550.0 128 87 22 54 53 34 26 0 30 27
590.0 0 29 38 37 65 61 73 74 86 111
630.0 106 111 118 106 80 90 92 55 42 27
670.0 15 33 36 32 30 28 40 55 79 100
710.0 124 128 132 133 114 117 130 107 75 78
750.0 82 68 63 72 75 75 68 62 46 30
790.0 41 38 38 30 22 27 24 33 52 56
830.0 48 59 79 77 72 75 90 95 97 128
870.0 142 163 193 214 241 285 360 472 612 791
910.0 947 993 898 709 538 428 343 290 259 239
950.0 233 221 216 224 226 235 262 291 333 389
990.0 437 439 393 341 284 225 203 192 179 163
1030.0 138 124 118 117 119 111 96 98 95 86
1070.0 94 105 102 88 82 77 65 55 56 62
1110.0 65 64 62 60 53 44 47 40 41 54
1150.0 48 40 43 35 17 34 45 26 15 21
1190.0 30 35 40 41 49 48 39 37 41 46
1230.0 42 46 51 59 65 63 71 72 62 70
1270.0 85 87 95 107 116 131 143 151 158 161
1310.0 156 147 145 154 154 159 179 192 220 255
1350.0 267 261 245 225 214 198 192 206 215 198
1390.0 189 179 164 162 167 182 193 196 216 248
1430.0 278 321 399 500 593 675 715 746 760 709
1470.0 615 495 385 298 225 173 143 121 106 83
1510.0 58 51 49 50 51 52 51 49 43 39
1550.0 34 32 39 51 50 46 54 50 46 46
1590.0 49 63 64 75 88 98 120 145 178 223
1630.0 285 360 421 426 361 265 177 126 95 72
1670.0 57 48 34 25 27 24 18 14 16 17
1710.0 16 10 5 13 7 0 2 9 9 6
1750.0 3 4 5 3 0 5 16 16 14 13
1790.0 16 25 25 26 37 47 64 76 90 105
1830.0 110 100 84 60 44 40 34 27 23 21
1870.0 20 20 15 12 18 20 21 19 20 20
1910.0 15 10 11 16 16 16 20 17 10 15
1950.0 17 11 14 20 24 24 20 20 23 25
1990.0 16 13 18 16 16 21 18 14 20 22
2030.0 23 26 24 25 24 22 23 19 16 19
2070.0 17 15 21 20 18 20 19 12 2 8
2110.0 10 7 11 11 11 15 13 9 12 14
2150.0 16 13 17 21 13 9 10 10 8 8
2190.0 12 18 16 11 11 10 8 10 10 8
2230.0 8 3 5 10 8 10 8 8 12 12
2270.0 11 7 7 8 9 11 8 12 14 11
2310.0 1 0 8 7 11 11 11 24 22 16
2350.0 15 17 21 14 4 3 1 3 6 9
2390.0 10 5 10 15 13 10 9 12 15 15
2430.0 8 5 9 14 12 13 13 15 18 16
2470.0 9 7 11 15 14 14 16 21 24 17
2510.0 19 28 22 15 22 34 30 20 24 31
2550.0 32 33 27 33 37 37 40 41 40 35
2590.0 33 38 39 41 45 43 48 60 64 64
2630.0 68 69 74 81 80 81 82 80 92 98
2670.0 100 104 111 113 112 105 103 98 92 93
2710.0 88 92 102 103 105 116 129 130 123 123
2750.0 129 137 136 139 148 161 169 172 186 202
2790.0 225 248 279 302 327 366 402 441 495 569
2830.0 658 774 943 1182 1529 2007 2574 3119 3488 3576
2870.0 3411 3129 2853 2646 2496 2408 2430 2601 2931 3403
2910.0 4033 4876 5990 7346 8740 9756 10000 9393 8186 6753
2950.0 5440 4490 3960 3740 3621 3376 2928 2383 1910 1577
2990.0 1347 1182 1056 974 898 803 705 606 530 470
3030.0 421 384 363 349 338 331 341 360 388 424
3070.0 471 533 618 706 720 650 524 387 292 239
3110.0 202 169 156 155 146 130 114 103 103 98
3150.0 90 90 84 78 75 69 59 62 69 64
3190.0 58 53 58 58 56 53 44 42 51 41
3230.0 28 22 24 34 38 33 24 21 26 22
3270.0 20 26 32 34 37 42 43 44 36 34
3310.0 35 34 30 34 48 34 24 33 32 20
3350.0 25 24 16 13 17 23 31 36 29 19
3390.0 19 26 31 25 16 22 34 44 39 31
3430.0 29 20 21 16 17 11 17 30 29 28
3470.0 35 39 36 32 33 28 26 19 15 20
3510.0 16 18 21 10 0 9 18 19 15 17
3550.0 28 32 33 25 20 27 23 20 16 11
3590.0 27 37 23 28 32 28 28 34 36 23
3630.0 27 49 53 45 39 30 30 41 44 39
3670.0 37 40 51 54 45 41 43 55 64 49
3710.0 38 44 46 38 49 50 24 34 42 49
3750.0 54 42 53 56 48 56 58 53 56 59
3790.0 61 66 63 51 44 51 61 66 69 60
3830.0 56 54 47 38 48
##END=
