##TITLE=trans-1,2-Dichlorocyclohexane
##JCAMP-DX=4.24
##DATA TYPE=INFRARED SPECTRUM
##ORIGIN=NIST Mass Spectrometry Data Center
##OWNER=NIST Standard Reference Data Program
Collection (C) 2018 copyright by the U.S. Secretary of Commerce
on behalf of the United States of America. All rights reserved.
##CAS REGISTRY NO=822-86-6
##MOLFORM=C 6 H 10 Cl 2
##$NIST SOURCE=MSDC-IR
##SPECTROMETER/DATA SYSTEM=HP-GC/MS/IRD
##STATE=gas
##XUNITS=1/CM
##YUNITS=ABSORBANCE
##XFACTOR=1.0
##YFACTOR=0.000003000
##DELTAX=4.0
##FIRSTX=550.0
##LASTX=3846.0
##FIRSTY=0.000333
##MAXX=3846
##MINX=550
##MAXY=0.03
##MINY=0
##NPOINTS=825
##XYDATA=(X++(Y..Y))
550.0 111 81 70 68 55 57 12 23 50 62
590.0 111 142 239 443 761 1080 1285 1412 1380 1156
630.0 793 439 238 144 94 86 86 90 110 133
670.0 171 259 447 789 1264 1787 2262 2510 2371 1991
710.0 1362 723 407 358 462 692 987 1266 1497 1586
750.0 1433 1134 857 612 410 247 137 104 88 81
790.0 89 108 148 198 277 421 613 796 922 998
830.0 1028 983 886 797 726 675 623 535 475 429
870.0 380 316 227 183 177 213 348 562 788 964
910.0 1062 1031 890 664 452 322 218 139 102 90
950.0 78 76 86 127 218 359 517 630 698 781
990.0 826 841 895 931 888 768 624 436 269 198
1030.0 168 153 146 133 116 104 92 86 79 75
1070.0 81 69 54 44 33 34 37 41 58 67
1110.0 68 95 133 157 178 229 323 368 382 392
1150.0 348 274 174 108 95 92 90 103 143 218
1190.0 339 552 848 1183 1518 1730 1767 1610 1331 965
1230.0 586 347 234 198 205 260 325 391 465 522
1270.0 566 581 551 485 402 298 197 140 113 94
1310.0 94 119 150 193 240 303 379 442 487 496
1350.0 486 448 364 300 246 201 140 83 61 49
1390.0 47 46 52 67 85 118 164 229 338 481
1430.0 654 869 1181 1476 1611 1681 1724 1560 1280 1014
1470.0 756 530 346 215 137 103 84 69 63 56
1510.0 48 39 29 22 21 17 13 21 23 12
1550.0 10 16 20 19 20 14 12 18 13 13
1590.0 9 11 17 15 8 4 11 8 6 10
1630.0 13 14 6 0 4 7 2 3 6 8
1670.0 8 8 7 7 7 7 5 3 6 5
1710.0 2 4 10 11 17 21 19 15 13 16
1750.0 13 10 9 9 11 11 9 10 7 5
1790.0 11 8 5 10 7 6 7 7 9 7
1830.0 9 12 7 3 5 6 7 8 9 13
1870.0 14 9 9 9 8 7 14 21 17 9
1910.0 4 7 8 13 17 14 14 11 3 6
1950.0 13 9 6 10 13 7 5 10 12 13
1990.0 14 9 6 6 8 8 2 5 15 15
2030.0 8 3 5 14 18 10 11 14 12 15
2070.0 19 14 11 15 11 14 20 17 15 6
2110.0 8 14 16 16 14 15 14 16 18 21
2150.0 27 29 33 42 47 50 47 40 37 38
2190.0 33 23 17 18 22 21 17 23 23 13
2230.0 9 15 18 15 11 12 10 10 18 21
2270.0 24 27 23 19 14 13 15 15 13 10
2310.0 7 8 14 13 11 11 6 2 8 11
2350.0 12 13 21 27 23 25 33 36 37 34
2390.0 30 28 22 28 34 29 25 34 29 19
2430.0 13 11 11 11 16 23 19 16 22 22
2470.0 16 19 23 25 28 30 29 23 24 29
2510.0 22 13 6 7 14 16 9 5 11 12
2550.0 15 22 21 21 22 29 28 23 18 14
2590.0 10 9 19 30 21 19 29 31 40 43
2630.0 41 46 42 37 48 57 61 68 70 81
2670.0 86 82 73 68 61 55 53 41 36 40
2710.0 39 34 33 33 30 25 22 30 30 22
2750.0 23 23 25 35 46 47 51 60 69 80
2790.0 95 106 113 107 109 113 113 118 119 128
2830.0 145 171 208 264 358 502 733 1070 1470 1919
2870.0 2285 2349 2197 1885 1506 1155 896 771 743 794
2910.0 915 1085 1334 1702 2166 2840 3933 5342 6791 8484
2950.0 10000 9921 9044 7982 6295 4228 2711 1956 1468 1086
2990.0 817 626 435 288 169 106 78 64 56 54
3030.0 52 59 57 56 55 49 45 46 46 39
3070.0 37 36 42 40 31 39 43 38 37 40
3110.0 36 33 34 24 12 9 16 12 0 3
3150.0 13 13 9 6 6 17 27 24 18 10
3190.0 7 11 10 7 4 2 15 14 10 10
3230.0 3 4 11 19 17 17 23 19 12 12
3270.0 14 16 23 30 24 17 23 29 18 18
3310.0 24 24 33 38 34 31 31 27 22 24
3350.0 23 22 22 19 10 9 15 16 19 16
3390.0 6 8 18 15 21 31 20 16 13 18
3430.0 18 23 32 38 35 22 20 15 14 19
3470.0 30 33 31 34 28 28 28 22 19 20
3510.0 22 22 18 10 5 17 30 35 33 20
3550.0 29 18 16 33 25 22 25 25 38 34
3590.0 30 33 25 35 37 28 20 19 35 37
3630.0 33 43 42 34 44 40 32 42 35 37
3670.0 42 44 49 48 45 42 46 56 54 46
3710.0 39 34 35 38 38 39 46 48 45 35
3750.0 34 37 35 40 29 35 58 63 57 44
3790.0 41 44 51 57 49 47 53 57 53 39
3830.0 42 47 36 34 40
##END=
