##TITLE=2-Chlorocyclohexanone
##JCAMP-DX=4.24
##DATA TYPE=INFRARED SPECTRUM
##ORIGIN=EPA-IR VAPOR PHASE LIBRARY
##OWNER=SRD/NIST
Collection (C) 2018 copyright by the U.S. Secretary of Commerce
on behalf of the United States of America. All rights reserved.
##CAS REGISTRY NO=822-87-7
##MOLFORM=C 6 H 9 Cl O
##$NIST SOURCE=MSDC-IR
##STATE=gas
##XUNITS=1/CM
##YUNITS=ABSORBANCE
##XFACTOR=1.
##YFACTOR=0.001
##DELTAX=1.92898
##FIRSTX=549.8
##LASTX=4000.7
##FIRSTY=13.8343
##MAXX=4000.7
##MINX=549.759
##MAXY=0.180764
##MINY=0
##NPOINTS=1790
##XYDATA=(X++(Y..Y))
549.759 13.8343 11.9443 9.3543 6.9443 5.5143 4.1343 2.5343 1.9343 2.1543 2.1443
569.049 1.6943 1.5543 1.3343 0.9789 1.0379 1.3043 1.2943 0.9675 0.8686 1.1643
588.339 1.4343 1.2843 1.1543 0.944 0.9921 1.2943 1.3143 1.4343 1.6243 1.6043
607.628 1.6743 1.6543 1.5343 1.4843 1.5543 1.7143 1.5243 1.5043 1.6743 1.5043
626.918 1.3243 1.3143 1.4943 1.3543 1.2743 1.5043 1.3843 1.1843 1.4443 1.5643
646.208 1.3943 1.5943 1.7543 1.8443 1.9043 1.9943 2.3343 2.4443 2.6643 2.8943
665.498 2.9743 3.0743 3.0943 3.3743 3.8143 4.2843 4.6943 5.2943 6.3043 7.2243
684.787 8.5243 10.3143 11.9543 13.6343 15.4543 17.1543 18.6843 20.2643 22.0143 23.9543
704.077 25.1243 23.8643 20.8843 19.0643 18.5243 17.6543 15.9443 13.6143 11.3243 9.3443
723.367 7.5843 6.1343 5.1243 4.6843 4.3543 4.1243 4.1543 4.4943 4.8643 5.1543
742.657 5.4843 5.5743 5.7343 6.1243 6.1543 5.9943 5.6843 5.4343 5.3543 5.0043
761.947 4.5043 4.0643 3.8843 3.8343 3.8843 3.8043 3.9043 4.5443 5.2143 5.8943
781.236 6.8343 8.0943 9.2943 10.3643 11.4943 12.6843 13.6043 14.2043 14.7543 15.1943
800.526 15.5743 15.6843 15.3243 15.0243 14.9843 14.8143 14.7543 14.7143 14.6743 14.4643
819.816 14.4343 15.2643 17.1143 17.2243 15.1843 14.5543 15.0943 15.5243 15.1243 13.1043
839.106 10.7943 9.3743 8.1343 7.0443 6.0543 4.9243 4.1143 3.5543 2.8543 2.4043
858.395 2.2743 2.1243 1.8243 1.8143 1.8843 1.8143 1.9743 2.2143 2.4943 2.9543
877.685 3.3143 3.5143 3.9043 4.5443 5.1043 5.9543 7.2743 7.4043 6.6343 6.4143
896.975 6.6643 7.0543 7.6843 8.4843 9.4743 10.3843 11.0343 11.4843 11.5543 11.9943
916.265 13.6743 15.0343 13.7243 11.5543 10.9143 10.9343 10.4743 9.4543 8.2043 6.7743
935.555 5.4343 4.6843 4.1443 3.8043 3.6343 3.4943 3.4143 3.4443 3.7843 4.3743
954.844 4.9443 5.4443 6.1443 7.0443 7.7143 8.3543 9.1843 9.8443 10.2543 10.6143
974.134 10.8343 10.8343 10.8543 10.8943 10.3343 8.9543 7.5543 6.6143 6.1443 5.7043
993.424 4.8743 4.2043 3.8643 3.3943 3.2343 3.3343 3.3143 3.4443 3.7043 3.7243
1012.714 4.0543 4.3543 4.3543 4.6243 4.5843 4.4843 4.4743 4.3543 4.4743 4.6543
1032.003 4.5943 4.7743 4.8743 5.0843 5.6843 6.5543 7.7443 9.0643 10.4543 12.1543
1051.293 13.3943 14.4643 15.6643 16.7643 17.8143 17.9543 17.3943 17.0543 17.2943 16.5643
1070.583 14.7843 12.6743 10.6143 9.3243 8.3143 7.6643 7.4343 7.3143 7.1343 6.6543
1089.873 7.0243 7.9243 8.6043 9.6943 11.2243 12.8643 15.2843 18.0343 19.6543 21.3043
1109.163 23.1143 24.2743 25.9043 27.0543 26.8943 26.1743 24.7343 23.0443 22.2343 21.0543
1128.452 18.3843 15.7843 13.4443 10.7143 8.5643 6.9943 5.9043 5.1643 5.1543 4.9543
1147.742 4.3243 4.0343 3.5943 3.3343 3.4643 3.2843 2.9543 2.7343 2.6543 2.7543
1167.032 2.9543 3.0643 2.9743 3.4943 4.2243 4.4143 5.0143 6.5943 7.5543 8.3743
1186.322 9.6643 10.5143 11.3343 12.2343 13.0043 13.7943 14.6843 15.4643 16.3843 17.0043
1205.611 16.8943 17.5643 18.3643 19.2543 20.2143 21.1943 22.8343 24.4543 25.4743 26.1743
1224.901 26.6743 26.3943 26.0543 25.8443 25.0643 23.7943 23.0043 21.9543 20.2743 18.8743
1244.191 17.5443 16.4543 15.6643 14.7543 13.8543 13.2643 13.0843 13.1643 13.6543 14.5343
1263.481 14.9543 13.4843 11.1243 9.6543 9.3543 9.6243 9.4943 9.3443 9.3743 9.4143
1282.771 9.7243 10.1543 10.5343 11.3743 12.7743 14.2743 15.6443 16.3143 15.8843 15.5143
1302.060 15.9743 16.8043 17.2243 17.1943 16.8843 16.3443 15.8743 15.6843 15.5143 15.0743
1321.350 14.4643 14.0843 13.9543 13.7943 13.5443 13.1243 12.5943 12.2643 12.4643 12.7743
1340.640 12.3443 11.4143 10.7343 10.2943 9.6943 8.8143 7.7843 6.6743 5.6843 4.8743
1359.930 4.2343 3.7343 3.2443 2.8343 2.4843 2.2143 2.0643 2.0543 2.1343 2.1243
1379.219 2.0343 2.0343 2.0943 2.1643 2.2243 2.2243 2.2943 2.4043 2.5143 2.6743
1398.509 2.9243 3.1543 3.4543 3.9343 4.4843 5.1043 5.9843 7.1143 8.2743 9.7343
1417.799 11.6343 13.7243 15.8443 18.0043 20.0243 22.0043 24.2143 26.4743 28.0943 29.2443
1437.089 32.2543 36.5143 35.5343 30.9543 29.4143 29.5543 29.7043 30.1843 31.0143 30.7143
1456.378 27.9443 24.8043 22.9843 21.6143 20.3343 18.7243 16.5543 14.3543 12.5243 10.9143
1475.668 9.4443 8.0343 6.7543 5.5343 4.4343 3.6443 3.1343 2.7843 2.4943 2.2043
1494.958 2.0743 1.9743 1.8343 1.6843 1.5943 1.4743 1.4243 1.4443 1.3843 1.3843
1514.248 1.2843 1.2443 1.2543 1.2743 1.2343 1.1543 1.0843 0.9238 0.9164 0.9637
1533.538 0.9196 0.9558 0.9703 0.9014 0.835 0.7963 0.7742 0.7616 0.7672 0.7838
1552.827 0.7811 0.7411 0.7799 0.7621 0.7378 0.7232 0.789 0.8699 0.792 0.7794
1572.117 0.8327 0.9025 0.9302 0.9132 0.9589 0.9829 1.0124 1.011 1.0113 1.0943
1591.407 1.1143 1.0643 1.0092 1.0111 1.0643 1.1143 1.1843 1.0643 0.9939 1.0258
1610.697 1.0643 1.0943 1.0543 1.0095 0.9497 0.9291 0.9953 1.1943 1.3443 1.3743
1629.986 1.4043 1.4943 1.6943 1.9043 2.0243 2.2243 2.4643 2.5443 2.6243 2.8243
1649.276 3.0843 3.2743 3.3843 3.4143 3.4843 3.5843 3.6143 3.7043 3.8743 4.0043
1668.566 4.2043 4.3143 4.3643 4.6943 5.0343 5.3143 5.6543 6.0043 6.4743 6.9143
1687.856 7.4543 8.2043 9.0243 9.9943 11.2243 12.5243 13.9543 15.7443 17.8443 20.6143
1707.146 24.1443 28.3943 33.6543 40.2943 48.4743 58.1843 69.5943 82.0243 95.1743 108.714
1726.435 122.384 135.644 148.274 159.744 169.684 176.734 180.134 180.764 179.484 176.154
1745.725 170.164 161.234 149.924 137.414 125.024 113.254 101.744 91.3843 81.8943 72.9543
1765.015 64.5443 56.3943 48.7343 42.0243 36.1143 31.1043 26.7943 23.0343 19.8743 17.2043
1784.305 14.8443 12.8843 11.3443 10.0743 9.0143 8.1743 7.5543 6.9343 6.3543 5.8543
1803.594 5.3443 4.9243 4.6343 4.4143 4.0943 3.7743 3.5743 3.4143 3.3443 3.2343
1822.884 3.0643 2.9243 2.7943 2.6243 2.5343 2.4443 2.3143 2.2043 2.0743 2.0143
1842.174 1.9143 1.8043 1.7743 1.7243 1.6643 1.6043 1.4843 1.4143 1.3843 1.3543
1861.464 1.2843 1.2343 1.2343 1.2043 1.1243 1.1243 1.1243 1.0843 1.041 0.9781
1880.754 0.9626 0.9145 0.8976 0.9073 0.9577 0.9619 0.9313 0.9944 1.0543 1.019
1900.043 0.9021 0.8861 1.0306 1.0843 0.9795 0.9481 0.9683 0.9264 0.8915 0.8719
1919.333 0.8626 0.8871 0.8287 0.7915 0.8254 0.8365 0.8352 0.8233 0.8053 0.7822
1938.623 0.7906 0.8109 0.8112 0.7789 0.7375 0.7507 0.8004 0.7989 0.766 0.76
1957.913 0.7636 0.6932 0.6346 0.6469 0.6124 0.625 0.6282 0.5756 0.639 0.5938
1977.202 0.5456 0.5391 0.5095 0.6251 0.6105 0.5213 0.5877 0.6298 0.5804 0.58
1996.492 0.5864 0.5977 0.6218 0.5581 0.5387 0.605 0.5777 0.5802 0.6391 0.6371
2015.782 0.6429 0.5883 0.5004 0.5016 0.4779 0.4668 0.4887 0.5542 0.6002 0.5764
2035.072 0.5712 0.5189 0.4729 0.4949 0.5092 0.5036 0.5197 0.5544 0.5566 0.473
2054.362 0.3984 0.4352 0.4737 0.4446 0.3944 0.4476 0.502 0.4714 0.5143 0.5141
2073.651 0.4978 0.542 0.5403 0.429 0.3563 0.3862 0.4424 0.5303 0.5838 0.565
2092.941 0.4811 0.4406 0.4841 0.4872 0.4539 0.4623 0.4949 0.4911 0.4969 0.5963
2112.231 0.6602 0.594 0.5694 0.6401 0.6324 0.5629 0.5997 0.6359 0.6068 0.6621
2131.521 0.6616 0.6855 0.731 0.6902 0.6929 0.6219 0.4803 0.4803 0.5718 0.5935
2150.810 0.5441 0.488 0.542 0.5969 0.5903 0.6356 0.6616 0.7245 0.7561 0.7526
2170.100 0.8432 0.8977 0.9006 0.8603 0.8789 0.8766 0.7437 0.6893 0.7364 0.7227
2189.390 0.6531 0.6265 0.5761 0.5878 0.6208 0.5428 0.5244 0.5277 0.4484 0.4172
2208.680 0.4711 0.5311 0.4577 0.4375 0.4776 0.4217 0.4709 0.5383 0.5786 0.5699
2227.970 0.4703 0.5406 0.6134 0.511 0.4795 0.552 0.526 0.5027 0.6036 0.6454
2247.259 0.6156 0.6067 0.6796 0.6649 0.6994 0.7512 0.6834 0.6906 0.6733 0.6298
2266.549 0.6701 0.6594 0.6721 0.695 0.6834 0.6585 0.6396 0.606 0.5152 0.5544
2285.839 0.6121 0.5467 0.5107 0.5917 0.589 0.4831 0.4306 0.4671 0.51 0.4945
2305.129 0.4997 0.5285 0.5206 0.4962 0.4922 0.5339 0.5998 0.5688 0.6079 0.701
2324.418 0.6709 0.6348 0.6675 0.6546 0.5987 0.604 0.6645 0.7518 0.7551 0.7117
2343.708 0.6728 0.6249 0.5468 0.5371 0.6142 0.6888 0.6999 0.6914 0.8058 0.8954
2362.998 0.8735 0.8817 0.8286 0.7852 0.7693 0.709 0.6447 0.5958 0.6002 0.5644
2382.288 0.5678 0.5629 0.587 0.647 0.627 0.6436 0.6762 0.6414 0.5939 0.6359
2401.578 0.7096 0.791 0.7677 0.6523 0.7744 0.8248 0.7809 0.819 0.7504 0.6716
2420.867 0.6684 0.6463 0.5718 0.6451 0.6871 0.7004 0.6647 0.5937 0.6245 0.6009
2440.157 0.5513 0.6403 0.7181 0.6408 0.6202 0.5968 0.5059 0.3812 0.4402 0.5774
2459.447 0.5217 0.4692 0.5441 0.5594 0.4882 0.4274 0.387 0.37 0.3397 0.336
2478.737 0.344 0.4122 0.4989 0.5087 0.5305 0.5129 0.412 0.4351 0.5043 0.4228
2498.026 0.4379 0.5222 0.5813 0.5479 0.5577 0.595 0.5604 0.5908 0.571 0.5434
2517.316 0.5559 0.5772 0.6125 0.5833 0.5268 0.5225 0.4817 0.4405 0.4943 0.5258
2536.606 0.4985 0.4134 0.3129 0.3386 0.373 0.3932 0.318 0.2795 0.3319 0.3316
2555.896 0.4571 0.5814 0.526 0.4646 0.483 0.4492 0.4939 0.5221 0.502 0.5554
2575.186 0.5302 0.5144 0.5412 0.6093 0.6281 0.611 0.6362 0.6157 0.6191 0.6285
2594.475 0.5505 0.5526 0.5309 0.4895 0.4976 0.5133 0.6211 0.6894 0.6378 0.6284
2613.765 0.6207 0.5649 0.6469 0.6432 0.6145 0.6938 0.7895 0.7995 0.7363 0.6578
2633.055 0.6714 0.8066 0.8538 0.9324 0.9302 0.8599 0.9135 1.0072 1.0443 1.1443
2652.345 1.3143 1.4143 1.4343 1.4643 1.5343 1.5443 1.5643 1.6843 1.8443 1.9243
2671.634 1.8643 1.8043 1.8243 1.8243 1.7743 1.6243 1.5343 1.4043 1.2943 1.2443
2690.924 1.0743 0.9445 1.0169 0.9987 0.7985 0.7494 0.7691 0.7287 0.7814 0.789
2710.214 0.7354 0.6418 0.6269 0.6376 0.5559 0.6654 0.7195 0.6678 0.5743 0.5984
2729.504 0.7451 0.7823 0.8324 0.8926 0.9003 0.8532 0.7594 0.7183 0.6956 0.7171
2748.794 0.7277 0.7628 0.8438 0.8445 0.896 0.907 1.0436 1.1043 1.0258 1.1043
2768.083 1.2443 1.3143 1.4043 1.5843 1.5643 1.6243 1.7743 1.7443 1.8643 2.0343
2787.373 2.0743 2.2143 2.3543 2.3043 2.2743 2.4443 2.5243 2.4943 2.5843 2.5743
2806.663 2.5243 2.4643 2.5243 2.6743 2.7843 2.8943 2.8243 2.8243 2.9443 3.1943
2825.953 3.5343 3.9143 4.2543 4.6843 5.4643 6.3543 7.1943 7.9443 8.8643 9.7943
2845.242 10.7143 11.9143 13.1943 15.0143 16.9943 18.4343 19.8943 21.9443 24.9643 28.5243
2864.532 31.8743 34.9043 37.3043 39.2843 41.5543 43.6943 44.3243 43.5543 42.6043 41.3743
2883.822 39.8743 38.1043 35.8543 33.3643 30.9843 28.9643 27.4443 26.7643 26.6143 26.3243
2903.112 25.6643 25.3243 25.7043 26.5943 27.4643 27.9943 28.5843 29.4543 30.7543 32.6343
2922.401 34.9643 37.3943 40.5443 44.7643 50.3443 57.6343 66.3743 76.4943 88.2443 101.314
2941.691 114.374 125.334 133.064 141.064 156.434 176.854 178.074 156.944 140.714 134.864
2960.981 129.684 121.364 110.054 96.7243 83.2643 70.6443 59.8443 51.9043 46.5843 42.7043
2980.271 38.9943 35.5143 32.4943 29.7443 27.2643 25.1343 23.0143 20.1743 16.3643 13.1843
2999.561 11.2543 9.9243 8.8843 7.8043 6.7843 5.8743 5.0443 4.3043 3.7243 3.2743
3018.850 2.9943 2.7843 2.6043 2.4743 2.3643 2.2843 2.2543 2.1443 2.0943 2.1143
3038.140 1.9743 1.7943 1.6843 1.6443 1.6343 1.6543 1.5943 1.4043 1.4243 1.4843
3057.430 1.4243 1.5343 1.5343 1.4243 1.2443 1.1943 1.3243 1.2443 1.2343 1.2043
3076.720 1.0087 1.0026 1.1343 1.1943 1.1143 0.9933 0.9956 1.0229 0.9932 0.9536
3096.009 0.918 0.9418 0.7797 0.7925 0.8631 0.7029 0.6407 0.4956 0.5151 0.5574
3115.299 0.5001 0.5641 0.5892 0.5519 0.523 0.464 0.3995 0.4786 0.4517 0.3721
3134.589 0.4255 0.5303 0.6177 0.4685 0.2564 0.243 0.385 0.4187 0.2645 0.2227
3153.879 0.3059 0.3381 0.327 0.2952 0.2663 0.364 0.4639 0.4863 0.5784 0.6027
3173.169 0.5282 0.4927 0.3965 0.3621 0.4103 0.39 0.4038 0.4054 0.3915 0.412
3192.458 0.4032 0.3147 0.3771 0.474 0.4684 0.6143 0.6507 0.5028 0.4037 0.4894
3211.748 0.6334 0.5816 0.4259 0.3021 0.338 0.3599 0.269 0.2585 0.3312 0.3266
3231.038 0.4256 0.4293 0.161 0.09857 0.2352 0.4077 0.37 0.1901 0.307 0.3597
3250.328 0.2416 0.3453 0.5198 0.4406 0.3759 0.4173 0.4169 0.4384 0.432 0.3884
3269.617 0.2534 0.1558 0.1482 0.3539 0.5643 0.4354 0.4154 0.5408 0.3656 0.3593
3288.907 0.4719 0.4058 0.3457 0.3791 0.5221 0.4367 0.279 0.3562 0.4929 0.4736
3308.197 0.4746 0.4615 0.4012 0.3507 0.1675 0.07791 0.1751 0.233 0.1426 0.08892
3327.487 0.10909 0.2256 0.324 0.1891 0.2545 0.4522 0.4469 0.3598 0.3558 0.4344
3346.777 0.4822 0.457 0.2447 0.1769 0.2145 0.2473 0.3768 0.3189 0.2534 0.2571
3366.066 0.1872 0.256 0.2528 0.1954 0.4053 0.6603 0.6208 0.5264 0.5221 0.7021
3385.356 0.7453 0.6169 0.6967 0.6961 0.7066 0.7168 0.8042 0.8506 0.7676 0.6471
3404.646 0.6019 0.6247 0.6877 0.7234 0.7582 0.8262 0.7823 0.753 0.8131 1.0288
3423.936 1.0843 1.0843 1.2643 1.4643 1.6643 1.7543 1.9443 2.1943 2.3043 2.3443
3443.225 2.5743 2.9343 3.1243 3.2643 3.3743 3.5343 3.7243 3.7443 3.6743 3.7543
3462.515 3.7043 3.5443 3.3843 3.2143 3.0343 2.7743 2.6243 2.5443 2.4543 2.3743
3481.805 2.1543 1.9943 1.8643 1.6743 1.6743 1.6343 1.5443 1.4343 1.3543 1.2143
3501.095 1.2743 1.2143 1.0434 0.9589 0.8839 0.8978 0.7809 0.7884 0.7418 0.4681
3520.385 0.3798 0.5403 0.5795 0.535 0.4626 0.3005 0.3733 0.5045 0.5675 0.4955
3539.674 0.1917 0.218 0.3229 0.2003 0.3342 0.4558 0.4328 0.482 0.4308 0.2924
3558.964 0.2357 0.361 0.4907 0.3546 0.1943 0.3434 0.4874 0.4018 0.1585 0.13084
3578.254 0.12687 0.09744 0.14159 0.14218 0.1748 0.06084 0 0.0269 0.11481 0.1636
3597.544 0.1286 0.1492 0.050438 0.050605 0.225 0.2628 0.3531 0.3917 0.3126 0.2457
3616.833 0.2689 0.2574 0.1782 0.2297 0.3451 0.3343 0.2536 0.4183 0.4454 0.3819
3636.123 0.3526 0.3157 0.3699 0.3443 0.2264 0.2023 0.4181 0.5145 0.4354 0.3495
3655.413 0.267 0.3573 0.3314 0.2113 0.1854 0.07422 0.1721 0.3345 0.3203 0.1794
3674.703 0.1794 0.4201 0.357 0.2369 0.2435 0.2426 0.2498 0.3674 0.6036 0.5262
3693.993 0.3988 0.4921 0.4709 0.3696 0.2241 0.3403 0.3872 0.3328 0.3531 0.2981
3713.282 0.2795 0.263 0.4066 0.4117 0.2423 0.1611 0.08499 0.10386 0.2469 0.199
3732.572 0.2256 0.4183 0.4182 0.2505 0.1637 0.2115 0.12933 0.07788 0.3395 0.3836
3751.862 0.4465 0.629 0.6108 0.3944 0.2675 0.4409 0.5167 0.536 0.3487 0.224
3771.152 0.3123 0.1961 0.2145 0.2989 0.3158 0.4208 0.4636 0.4057 0.3073 0.3853
3790.441 0.3564 0.12504 0.12742 0.2123 0.2417 0.1805 0.3448 0.3755 0.2682 0.5253
3809.731 0.4748 0.4904 0.5234 0.4969 0.5966 0.538 0.2729 0.2654 0.4632 0.326
3829.021 0.1484 0.1676 0.2932 0.2618 0.3134 0.3917 0.4641 0.4617 0.4051 0.3969
3848.311 0.2351 0.2434 0.2361 0.3656 0.3903 0.3059 0.3386 0.3086 0.4269 0.3473
3867.601 0.3264 0.4303 0.4474 0.35 0.07885 0.07727 0.1566 0.353 0.6051 0.59
3886.890 0.3839 0.1932 0.2649 0.2276 0.164 0.1757 0.3266 0.3733 0.3025 0.4447
3906.180 0.4252 0.4032 0.5459 0.5353 0.5683 0.5772 0.5853 0.7136 0.7427 0.8426
3925.470 0.965 0.9376 0.9313 0.8526 0.7957 0.7892 0.6652 0.6419 0.7789 0.8985
3944.760 0.7194 0.6174 0.6226 0.5499 0.6021 0.713 0.8415 0.8568 0.8039 0.6986
3964.049 0.6982 0.7875 0.6711 0.4625 0.384 0.5872 0.6023 0.5387 0.5328 0.4285
3983.339 0.4854 0.4601 0.4661 0.6081 0.5452 0.527 0.5688 0.4225 0.5073 0.7066
##END=
