##TITLE=Bicyclo[3.2.1]-2-octene
##JCAMP-DX=4.24
##DATA TYPE=INFRARED SPECTRUM
##ORIGIN=NIST Mass Spectrometry Data Center
##OWNER=NIST Standard Reference Data Program
Collection (C) 2018 copyright by the U.S. Secretary of Commerce
on behalf of the United States of America. All rights reserved.
##CAS REGISTRY NO=823-02-9
##MOLFORM=C 8 H 12
##$NIST SOURCE=MSDC-IR
##SPECTROMETER/DATA SYSTEM=HP-GC/MS/IRD
##STATE=gas
##XUNITS=1/CM
##YUNITS=ABSORBANCE
##XFACTOR=1.0
##YFACTOR=0.000004400
##DELTAX=4.0
##FIRSTX=550.0
##LASTX=3846.0
##FIRSTY=0.000084
##MAXX=3846
##MINX=550
##MAXY=0.044
##MINY=0
##NPOINTS=825
##XYDATA=(X++(Y..Y))
550.0 19 23 4 15 35 25 27 31 26 37
590.0 38 44 51 52 62 75 67 64 73 74
630.0 52 38 55 60 69 111 167 255 385 530
670.0 629 743 1008 1147 984 826 763 650 509 409
710.0 356 340 351 383 466 562 544 454 409 371
750.0 294 218 161 112 94 92 97 109 112 115
790.0 120 126 119 111 105 88 83 86 81 70
830.0 76 67 57 62 69 84 111 159 232 259
870.0 246 290 322 272 220 209 192 171 184 179
910.0 143 145 148 133 124 106 90 83 81 77
950.0 76 78 69 66 68 60 57 52 39 37
990.0 39 37 46 63 69 94 139 169 183 201
1030.0 218 199 183 175 156 137 145 145 116 102
1070.0 93 75 56 44 30 24 23 15 19 32
1110.0 41 48 48 61 57 53 65 67 62 60
1150.0 70 88 96 95 108 113 112 145 151 111
1190.0 110 112 101 88 79 72 67 66 74 97
1230.0 98 92 99 108 99 75 64 60 50 45
1270.0 42 48 66 85 104 125 147 159 155 156
1310.0 154 126 92 72 58 48 45 42 40 44
1350.0 45 40 37 43 49 55 58 64 78 86
1390.0 78 75 79 82 87 98 117 153 211 280
1430.0 361 472 540 541 609 691 628 518 454 389
1470.0 319 247 186 140 109 85 62 44 33 27
1510.0 24 19 19 17 16 13 6 4 7 10
1550.0 9 12 12 15 17 17 22 21 21 22
1590.0 18 20 29 31 36 51 76 104 134 164
1630.0 188 207 220 208 183 161 132 100 76 58
1670.0 46 43 46 43 44 44 40 37 32 25
1710.0 22 17 13 17 16 9 1 6 16 17
1750.0 14 16 14 9 9 11 9 9 11 10
1790.0 12 12 10 7 11 12 6 6 8 9
1830.0 10 9 7 8 6 6 9 9 8 6
1870.0 7 10 14 16 15 14 14 15 15 17
1910.0 14 12 10 10 9 6 3 3 4 4
1950.0 2 2 3 1 0 4 2 2 6 7
1990.0 5 3 5 6 7 4 5 5 3 5
2030.0 6 5 0 2 2 0 1 5 10 10
2070.0 5 5 9 10 9 12 14 15 13 10
2110.0 13 15 12 10 11 10 9 10 16 17
2150.0 14 14 13 12 11 11 12 12 12 14
2190.0 11 6 10 13 12 11 17 21 16 14
2230.0 14 14 16 16 14 12 12 10 12 14
2270.0 10 10 11 12 12 11 10 11 16 16
2310.0 14 13 14 17 18 16 15 15 9 12
2350.0 17 15 13 8 9 12 11 12 9 6
2390.0 5 4 1 1 6 10 11 10 10 7
2430.0 9 9 5 7 11 9 7 8 9 7
2470.0 8 11 15 14 9 7 7 7 10 11
2510.0 14 17 15 11 13 13 10 9 16 16
2550.0 15 18 16 21 21 21 24 26 28 29
2590.0 28 29 30 30 31 33 30 34 39 39
2630.0 38 41 45 40 41 44 44 48 50 54
2670.0 59 60 58 57 56 54 51 46 40 37
2710.0 35 33 30 31 41 51 54 60 67 63
2750.0 59 67 74 75 75 72 72 78 80 87
2790.0 99 118 127 138 164 195 237 314 455 651
2830.0 846 987 1159 1368 1424 1510 1753 1985 2143 2357
2870.0 2782 3099 3115 3104 3265 3682 3563 3189 3290 3348
2910.0 3361 3534 3898 4499 5303 6296 7447 8593 9490 9936
2950.0 10000 9503 9064 8095 6022 4484 3446 2460 1654 1107
2990.0 778 594 496 464 516 680 970 1325 1604 1762
3030.0 2087 2304 1948 1652 1521 1199 825 552 400 324
3070.0 272 228 187 153 131 114 101 91 77 65
3110.0 56 43 33 25 24 25 20 20 24 25
3150.0 27 27 27 26 26 28 26 20 20 16
3190.0 13 12 7 14 25 27 32 38 37 32
3230.0 32 35 36 35 28 25 28 34 31 24
3270.0 23 29 31 22 22 24 26 30 29 25
3310.0 18 17 25 25 23 26 37 39 36 38
3350.0 30 28 33 38 36 24 22 28 30 25
3390.0 20 18 14 14 12 11 14 21 9 6
3430.0 19 11 12 19 17 15 8 6 7 7
3470.0 13 13 9 9 11 10 6 4 4 6
3510.0 6 7 11 1 1 15 23 19 19 14
3550.0 8 21 33 32 34 30 16 12 26 36
3590.0 25 13 14 19 17 13 22 25 16 15
3630.0 15 14 17 29 34 27 29 24 21 29
3670.0 36 34 25 28 34 28 25 22 26 30
3710.0 26 35 40 35 35 35 28 23 27 23
3750.0 25 29 34 29 19 30 38 36 35 33
3790.0 32 32 30 30 37 39 40 48 49 44
3830.0 49 49 39 31 33
##END=
