##TITLE=Cyclohexylethanone
##JCAMP-DX=4.24
##DATA TYPE=INFRARED SPECTRUM
##ORIGIN=NIST Mass Spectrometry Data Center
##OWNER=NIST Standard Reference Data Program
Collection (C) 2018 copyright by the U.S. Secretary of Commerce
on behalf of the United States of America. All rights reserved.
##CAS REGISTRY NO=823-76-7
##MOLFORM=C 8 H 14 O
##$NIST SOURCE=MSDC-IR
##SPECTROMETER/DATA SYSTEM=HP-GC/MS/IRD
##STATE=gas
##XUNITS=1/CM
##YUNITS=ABSORBANCE
##XFACTOR=1.0
##YFACTOR=0.000005600
##DELTAX=4.0
##FIRSTX=550.0
##LASTX=3846.0
##FIRSTY=0.000510
##MAXX=3846
##MINX=550
##MAXY=0.056
##MINY=0
##NPOINTS=825
##XYDATA=(X++(Y..Y))
550.0 91 116 149 174 200 215 221 223 217 226
590.0 275 331 350 348 336 293 213 135 92 62
630.0 55 63 63 70 84 83 82 70 45 18
670.0 13 22 16 10 14 9 0 4 7 8
710.0 6 12 15 8 5 11 12 11 13 16
750.0 18 15 19 24 23 18 13 19 16 11
790.0 19 21 19 17 22 33 35 45 66 73
830.0 74 76 82 88 88 95 114 129 141 152
870.0 167 188 209 221 220 209 187 169 153 140
910.0 128 124 126 127 133 143 158 188 233 285
950.0 347 401 420 413 382 328 271 231 206 195
990.0 187 183 180 174 168 168 172 182 195 209
1030.0 210 198 179 153 131 117 104 95 92 91
1070.0 97 106 112 118 124 128 135 148 172 197
1110.0 223 261 301 349 406 455 501 556 622 726
1150.0 872 1064 1270 1433 1529 1537 1444 1282 1116 970
1190.0 842 751 693 660 644 635 625 621 625 641
1230.0 667 691 691 659 591 494 392 312 263 243
1270.0 240 250 276 319 372 431 494 545 563 550
1310.0 522 488 462 454 463 502 569 681 871 1098
1350.0 1327 1519 1648 1670 1567 1364 1121 892 680 509
1390.0 408 352 324 321 324 334 344 350 383 435
1430.0 496 577 721 903 1044 1147 1174 1085 932 751
1470.0 563 409 319 252 195 158 140 121 109 80
1510.0 68 83 81 79 87 91 89 82 77 85
1550.0 90 85 74 88 101 96 92 90 90 87
1590.0 84 82 83 84 83 80 77 78 80 80
1630.0 82 75 79 90 92 96 109 145 182 225
1670.0 280 352 443 536 669 839 1037 1307 1701 2228
1710.0 2852 3470 4006 4354 4341 3931 3283 2572 1900 1357
1750.0 973 727 562 444 349 274 226 184 146 117
1790.0 93 79 71 58 57 57 52 47 45 41
1830.0 43 45 41 30 26 32 30 25 23 18
1870.0 16 22 22 21 20 20 21 23 25 23
1910.0 24 22 18 19 22 23 22 21 18 19
1950.0 23 21 21 21 17 18 20 19 20 19
1990.0 17 15 15 16 15 15 10 12 14 14
2030.0 14 15 14 13 13 13 14 11 8 8
2070.0 8 8 12 14 15 12 12 10 9 8
2110.0 11 15 17 15 15 14 13 15 16 15
2150.0 17 18 18 19 19 17 18 21 24 22
2190.0 23 24 25 23 21 20 19 19 17 18
2230.0 19 18 19 18 17 15 12 10 11 11
2270.0 8 6 7 8 10 8 6 8 7 6
2310.0 6 3 2 5 7 6 4 7 10 8
2350.0 6 5 4 3 0 2 4 6 12 12
2390.0 9 12 12 9 7 10 10 6 6 8
2430.0 5 0 1 3 6 5 5 6 10 11
2470.0 11 14 17 19 20 20 18 13 11 11
2510.0 13 15 17 16 16 17 16 18 20 18
2550.0 16 16 16 15 18 24 28 28 28 32
2590.0 36 38 40 39 35 38 43 46 49 48
2630.0 50 56 60 68 76 82 94 107 115 119
2670.0 120 117 109 100 89 83 77 72 69 66
2710.0 60 55 49 44 43 42 44 50 55 53
2750.0 58 61 62 67 71 77 89 96 108 122
2790.0 132 148 161 173 184 200 217 232 255 292
2830.0 343 416 544 754 1090 1584 2183 2741 3118 3238
2870.0 3108 2763 2300 1879 1594 1436 1394 1466 1653 1952
2910.0 2370 2937 3726 4837 6289 7920 9335 10000 9812 8943
2950.0 7426 5552 3798 2511 1690 1178 862 664 537 459
2990.0 409 381 366 361 361 350 332 309 278 244
3030.0 218 205 194 189 185 174 160 150 146 134
3070.0 125 120 115 109 107 104 96 88 83 78
3110.0 71 66 62 59 54 53 56 55 51 49
3150.0 53 54 49 45 45 47 43 39 33 29
3190.0 31 31 29 29 30 31 31 28 25 22
3230.0 19 23 27 25 21 19 18 17 18 14
3270.0 16 20 19 24 28 26 20 17 22 25
3310.0 21 19 20 17 12 11 19 25 22 19
3350.0 21 21 23 28 28 32 37 37 39 37
3390.0 43 49 50 60 69 77 84 92 100 105
3430.0 111 107 102 98 88 78 66 52 47 42
3470.0 38 37 35 30 35 38 34 30 18 15
3510.0 17 21 22 14 11 17 24 25 18 11
3550.0 19 28 24 17 1 7 23 21 17 3
3590.0 7 17 14 20 16 6 7 12 19 10
3630.0 6 23 29 25 13 13 22 24 31 29
3670.0 12 8 23 35 31 30 34 31 33 36
3710.0 28 26 31 26 22 22 13 23 25 17
3750.0 21 32 43 39 40 41 44 48 48 43
3790.0 43 44 41 40 40 37 32 32 37 39
3830.0 40 38 32 32 38
##END=
