##TITLE=2-Methoxyhydroquinone
##JCAMP-DX=4.24
##DATA TYPE=INFRARED SPECTRUM
##ORIGIN=NIST Mass Spectrometry Data Center
##OWNER=NIST Standard Reference Data Program
Collection (C) 2018 copyright by the U.S. Secretary of Commerce
on behalf of the United States of America. All rights reserved.
##CAS REGISTRY NO=824-46-4
##MOLFORM=C 7 H 8 O 3
##$NIST SOURCE=MSDC-IR
##SPECTROMETER/DATA SYSTEM=HP-GC/MS/IRD
##STATE=gas
##XUNITS=1/CM
##YUNITS=ABSORBANCE
##XFACTOR=1.0
##YFACTOR=0.000007800
##DELTAX=4.0
##FIRSTX=550.0
##LASTX=3846.0
##FIRSTY=0.001794
##MAXX=3846
##MINX=550
##MAXY=0.078
##MINY=0
##NPOINTS=825
##XYDATA=(X++(Y..Y))
550.0 230 375 328 363 356 336 290 233 198 203
590.0 223 256 298 355 400 391 360 317 247 180
630.0 128 89 59 33 20 13 5 2 2 0
670.0 1 9 13 20 30 37 46 47 67 107
710.0 154 205 236 255 266 240 200 176 166 172
750.0 191 216 256 318 403 548 788 1144 1615 2116
790.0 2480 2578 2439 2147 1750 1422 1284 1283 1274 1244
830.0 1234 1153 1003 859 724 582 457 361 300 266
870.0 226 180 155 147 146 149 159 178 210 245
910.0 277 321 402 541 773 1091 1417 1629 1682 1573
950.0 1298 919 584 392 306 273 267 277 292 308
990.0 326 354 405 485 608 792 1025 1284 1517 1699
1030.0 1802 1770 1622 1417 1195 948 721 574 502 464
1070.0 460 487 551 663 828 1077 1434 1861 2252 2487
1110.0 2524 2379 2112 1852 1824 2219 2999 3907 4730 5321
1150.0 5559 5363 4897 4418 4039 3777 3641 3624 3727 3964
1190.0 4261 4494 4619 4652 4609 4581 4734 5203 5959 6730
1230.0 7138 7065 6540 5531 4254 3183 2547 2248 2155 2215
1270.0 2416 2737 3124 3471 3694 3746 3595 3272 2845 2362
1310.0 1865 1417 1065 829 696 645 659 735 877 1084
1350.0 1347 1635 1903 2096 2155 2044 1803 1494 1139 812
1390.0 592 484 440 433 446 477 531 625 769 968
1430.0 1230 1528 1808 2003 2108 2164 2160 2140 2195 2244
1470.0 2197 2114 2065 2087 2313 2994 4244 5963 7758 9208
1510.0 10000 9774 8578 6746 4801 3101 1850 1121 743 542
1550.0 433 376 346 332 339 364 402 454 524 603
1590.0 686 781 886 1003 1121 1231 1318 1362 1325 1193
1630.0 1004 809 628 480 381 335 330 343 362 371
1670.0 370 356 335 310 300 299 288 263 228 187
1710.0 144 107 83 69 62 57 52 47 45 44
1750.0 45 46 45 44 42 38 29 23 19 16
1790.0 16 22 29 39 50 61 69 72 73 74
1830.0 73 70 69 68 68 66 63 61 56 51
1870.0 47 40 31 24 21 19 17 17 21 27
1910.0 30 33 35 35 32 27 21 21 20 18
1950.0 17 17 18 20 20 18 16 16 18 16
1990.0 15 15 17 20 24 29 32 35 38 41
2030.0 39 39 38 39 40 39 42 46 50 53
2070.0 57 58 57 54 47 40 29 20 13 8
2110.0 3 0 1 4 5 8 10 12 13 12
2150.0 10 12 12 12 14 13 14 14 11 9
2190.0 10 11 9 8 9 14 19 23 27 31
2230.0 30 28 23 18 15 9 5 2 1 1
2270.0 1 1 5 10 16 24 29 34 38 40
2310.0 40 38 38 37 36 34 34 36 35 32
2350.0 31 32 32 32 35 40 43 46 48 48
2390.0 49 50 51 50 52 55 57 59 60 60
2430.0 58 56 53 51 47 49 55 62 66 69
2470.0 69 70 70 69 69 66 61 57 54 49
2510.0 45 41 38 34 29 23 16 15 15 13
2550.0 16 16 17 19 19 19 18 18 17 15
2590.0 14 15 15 15 16 17 16 16 20 21
2630.0 19 18 18 21 26 24 23 20 16 13
2670.0 13 10 3 0 0 0 0 3 3 3
2710.0 3 8 11 10 12 17 18 18 20 24
2750.0 26 25 24 26 29 29 32 37 40 45
2790.0 54 64 76 89 104 118 133 145 162 192
2830.0 235 298 380 473 555 600 604 579 516 434
2870.0 365 325 307 302 307 320 336 356 382 411
2910.0 447 487 523 552 579 621 699 817 953 1065
2950.0 1136 1179 1162 1097 1010 878 740 641 566 517
2990.0 509 550 630 733 812 828 790 712 609 526
3030.0 503 531 570 591 581 545 484 422 372 331
3070.0 295 258 228 201 173 150 127 110 93 74
3110.0 68 69 64 54 51 46 45 43 39 34
3150.0 29 27 24 19 15 12 7 5 7 7
3190.0 5 5 8 13 13 10 13 14 12 7
3230.0 4 3 3 6 6 7 8 7 8 11
3270.0 11 15 20 21 21 22 20 16 14 12
3310.0 11 7 2 3 5 3 5 7 6 2
3350.0 0 5 6 7 10 14 16 19 20 22
3390.0 28 32 30 31 36 41 44 42 40 39
3430.0 35 34 39 39 35 34 35 37 37 36
3470.0 34 33 37 38 37 33 29 29 29 28
3510.0 31 32 28 29 32 35 43 47 50 59
3550.0 74 92 113 149 207 288 429 699 1148 1758
3590.0 2387 2864 3068 2930 2481 1850 1226 763 497 391
3630.0 382 439 595 895 1360 1878 2182 2199 1994 1630
3670.0 1068 535 256 135 84 58 37 25 22 16
3710.0 10 10 6 3 4 2 1 0 3 5
3750.0 7 9 11 17 16 12 9 9 15 18
3790.0 20 22 25 32 34 33 33 30 32 28
3830.0 28 37 34 34 41
##END=
