##TITLE=4-Ethyl-2,6,7-Trioxa-1-phosphabicyclo[2.2.1]octane
##JCAMP-DX=4.24
##DATA TYPE=INFRARED SPECTRUM
##ORIGIN=EPA-IR VAPOR PHASE LIBRARY
##OWNER=SRD/NIST
Collection (C) 2018 copyright by the U.S. Secretary of Commerce
on behalf of the United States of America. All rights reserved.
##CAS REGISTRY NO=824-11-3
##MOLFORM=C 6 H 11 O 3 P
##$NIST SOURCE=MSDC-IR
##STATE=gas
##XUNITS=1/CM
##YUNITS=ABSORBANCE
##XFACTOR=1.
##YFACTOR=0.001
##DELTAX=1.92898
##FIRSTX=549.8
##LASTX=4000.7
##FIRSTY=0.5664
##MAXX=4000.7
##MINX=549.759
##MAXY=0.1765
##MINY=0
##NPOINTS=1790
##XYDATA=(X++(Y..Y))
549.759 0.5664 0.21365 0.013 0.23404 0.119 0.1511 0.1634 0.017 0.028 0.29552
569.049 0.5626 0.6222 0.5632 0.4514 0.3366 0.5351 0.6577 0.4377 0.5027 0.338
588.339 0.4398 0.6431 0.5485 0.7166 0.793 0.75 0.5617 0.6448 0.8695 0.6658
607.628 0.5746 0.7174 0.7463 1.0288 1.1784 1.1569 1.75 2.33 2.87 3.81
626.918 5.13 6.81 9.12 11.35 12.95 14.29 15.38 16.85 17.25 16.21
646.208 15.94 15.55 13.53 10.49 7.7 5.45 3.85 2.84 2.29 2.26
665.498 2.02 1.77 1.74 1.65 1.59 1.62 1.44 1.36 1.46 1.46
684.787 1.61 1.87 1.98 2.09 2.39 2.76 3.1 3.69 4.63 5.74
704.077 7.15 9.24 12.18 16.47 22.72 31.07 42.05 56.05 72.83 91.42
723.367 110.36 129.44 148.5 165.75 176.5 174.25 157.96 137.25 119.2 100.97
742.657 80.66 60.58 43.99 32.55 26.02 23.37 23.08 23.33 22.88 22.47
761.947 22.53 22.28 20.69 18.88 18.18 17.73 16.79 15.49 14.31 13.34
781.236 12.38 11.36 10.46 9.41 8.46 7.74 6.95 5.98 5.01 4.4
800.526 4.03 3.55 3.16 3.1 2.82 2.44 2.27 2.32 2.29 2.3
819.816 2.58 2.44 2.48 3.05 3.42 3.96 4.97 6.3 7.63 9.12
839.106 10.7 12.03 13.23 14.13 14.78 15.02 14.71 13.83 12.88 11.88
858.395 10.1 8.06 6.44 4.92 3.63 2.93 2.56 2.23 2.05 1.81
877.685 1.71 1.67 1.39 1.33 1.32 1.42 1.51 1.58 1.62 1.6
896.975 1.51 1.36 1.61 1.76 1.65 1.72 1.91 2.1 2.28 2.44
916.265 2.79 3.17 3.5 4.06 4.65 5.35 6.2 7.41 9.2 11.32
935.555 13.86 16.9 20.36 24.24 28.23 31.86 35.23 38.29 41.43 44.3
954.844 46.48 48.23 49.61 50.43 50.72 50.81 50.47 50.12 49.7 48.47
974.134 46.24 43.42 40.08 36.57 33.17 29.71 26.43 23.06 19.72 16.83
993.424 14.34 12.21 10.36 8.91 7.72 6.77 6.04 5.62 5.43 5.08
1012.714 5 5.04 5.11 5.48 5.92 6.54 7.77 9.26 11 13.56
1032.003 16.88 21.15 26.46 33.01 40.88 50.34 61.57 74.27 87.93 101.26
1051.293 113.55 123.95 131.76 136.18 136.93 134.02 127.39 116.54 102.39 86.55
1070.583 70.38 56.04 43.96 34.07 26.06 19.87 15.51 12.47 10.46 8.79
1089.873 7.57 6.55 5.94 5.8 5.54 5.44 4.99 4.6 4.28 3.63
1109.163 3.61 3.72 4.05 4.44 4.15 4.18 4.2 4.65 5.35 5.78
1128.452 6.47 7 7.82 9.24 10.65 12.03 13.62 15.48 17.38 19.32
1147.742 20.53 21.56 22.6 23.26 23.8 23.65 23.3 22.28 20.72 19.11
1167.032 17.37 16.2 15.67 15.15 14.46 13.97 13.94 13.69 12.65 11.69
1186.322 10.96 9.95 8.93 7.65 6.45 5.68 4.61 3.64 2.69 1.79
1205.611 1.69 1.44 1.1618 1.23 0.9381 0.8018 1.0185 0.9797 0.9272 0.8342
1224.901 0.5973 0.5151 0.27772 0.23703 0.4704 0.31732 0.3426 0.5557 0.6792 0.7861
1244.191 0.6771 0.6749 0.5305 0.4634 0.6366 0.7735 1.0547 1.0923 1.0152 0.9292
1263.481 0.9131 1.0178 1.24 1.28 1.1565 1.38 1.55 1.56 1.56 1.53
1282.771 1.43 1.27 1.24 1.3 1.25 1.139 1.1021 1.0784 1.0756 1.0424
1302.060 1.0304 1.0904 1.0624 0.9807 1.0004 1.0739 1.1385 1.2123 1.29 1.36
1321.350 1.48 1.62 1.76 1.94 2.15 2.28 2.36 2.44 2.56 2.68
1340.640 2.72 2.73 2.64 2.54 2.42 2.25 2.07 1.91 1.7 1.51
1359.930 1.44 1.41 1.41 1.51 1.71 1.95 2.3 2.81 3.37 3.89
1379.219 4.44 4.9 5.28 5.61 5.76 5.71 5.64 5.57 5.11 4.5
1398.509 3.99 3.42 2.85 2.35 1.95 1.62 1.41 1.34 1.31 1.23
1417.799 1.1704 1.1733 1.2075 1.1982 1.25 1.41 1.53 1.7 1.91 2.11
1437.089 2.41 2.8 3.22 3.67 4.18 4.78 5.47 6.09 6.78 7.49
1456.378 8.09 8.64 9.04 9.31 9.5 9.53 9.32 8.93 8.55 8.16
1475.668 7.72 7.26 6.86 6.42 5.91 5.55 5.26 5 4.73 4.4
1494.958 4.04 3.72 3.39 3.02 2.71 2.38 1.99 1.64 1.45 1.34
1514.248 1.2018 1.1224 1.0907 1.0528 1.0182 1.0044 1.0387 1.0668 0.9267 0.8594
1533.538 0.8896 0.849 0.8569 0.8498 0.8047 0.8107 0.9116 0.9205 0.8018 0.772
1552.827 0.7992 0.7246 0.7003 0.8097 0.8133 0.7398 0.7142 0.6397 0.636 0.6201
1572.117 0.5426 0.5067 0.5398 0.5616 0.4971 0.5211 0.511 0.4313 0.4182 0.5212
1591.407 0.5285 0.4572 0.4675 0.4103 0.4124 0.4813 0.4292 0.395 0.3669 0.352
1610.697 0.4138 0.4336 0.4456 0.4267 0.4154 0.4165 0.4255 0.4397 0.4317 0.4297
1629.986 0.4453 0.4574 0.482 0.4826 0.4315 0.4079 0.3687 0.3397 0.3965 0.4168
1649.276 0.3691 0.4271 0.5097 0.4975 0.4727 0.4451 0.4033 0.4405 0.4697 0.5112
1668.566 0.6197 0.7053 0.7457 0.7005 0.6809 0.6849 0.7438 0.9173 1.0389 1.0459
1687.856 1.0823 1.1534 1.33 1.45 1.4 1.42 1.5 1.53 1.52 1.51
1707.146 1.45 1.33 1.22 1.1667 1.0874 1.0628 0.9739 0.8734 0.7926 0.7103
1726.435 0.7091 0.6967 0.6193 0.5817 0.5941 0.5316 0.5193 0.4944 0.4317 0.4721
1745.725 0.4893 0.4331 0.4123 0.3848 0.3726 0.3958 0.3837 0.3625 0.3513 0.29538
1765.015 0.31167 0.3593 0.3915 0.4558 0.4328 0.395 0.4326 0.5443 0.5915 0.5764
1784.305 0.5968 0.6379 0.717 0.739 0.7305 0.7423 0.7619 0.741 0.6747 0.655
1803.594 0.633 0.5939 0.6148 0.6711 0.7198 0.7103 0.7145 0.7255 0.7004 0.6684
1822.884 0.6664 0.6342 0.5407 0.5506 0.5669 0.5696 0.5593 0.4615 0.4101 0.3989
1842.174 0.3791 0.3749 0.3384 0.3531 0.3849 0.3505 0.3369 0.3599 0.30877 0.29894
1861.464 0.3916 0.4558 0.3819 0.3269 0.4341 0.4567 0.4631 0.5383 0.497 0.4978
1880.754 0.539 0.5821 0.633 0.6432 0.6745 0.7155 0.7667 0.8447 0.9191 0.9635
1900.043 0.9952 0.9967 1.0613 1.119 1.1221 1.1737 1.25 1.25 1.28 1.37
1919.333 1.41 1.45 1.53 1.59 1.59 1.55 1.54 1.55 1.54 1.53
1938.623 1.5 1.42 1.35 1.3 1.24 1.22 1.1218 0.9534 0.8854 0.8165
1957.913 0.7785 0.7492 0.7053 0.6842 0.6176 0.61 0.6226 0.6234 0.5919 0.5682
1977.202 0.5673 0.5261 0.501 0.4693 0.4746 0.5574 0.6126 0.561 0.5295 0.5434
1996.492 0.5389 0.6046 0.652 0.6406 0.6534 0.6895 0.7283 0.7337 0.7079 0.7159
2015.782 0.6986 0.6374 0.6628 0.7029 0.7595 0.7912 0.6975 0.6107 0.6327 0.6448
2035.072 0.63 0.5587 0.4612 0.4806 0.4937 0.4336 0.3664 0.30684 0.333 0.3795
2054.362 0.3328 0.3322 0.3977 0.4664 0.4542 0.3743 0.4003 0.4616 0.4558 0.4555
2073.651 0.4372 0.4529 0.4773 0.4581 0.4391 0.4127 0.4707 0.5017 0.5219 0.5808
2092.941 0.6047 0.6137 0.6279 0.6847 0.7479 0.7409 0.7419 0.8056 0.8581 0.8548
2112.231 0.8191 0.8298 0.8097 0.779 0.6907 0.6567 0.6881 0.6438 0.6421 0.6154
2131.521 0.5971 0.5651 0.5342 0.514 0.5101 0.4995 0.4521 0.425 0.3814 0.3604
2150.810 0.3423 0.382 0.4358 0.4285 0.4252 0.3986 0.3554 0.3455 0.3352 0.3651
2170.100 0.4191 0.4387 0.4717 0.4601 0.4567 0.4695 0.4219 0.4612 0.5046 0.477
2189.390 0.4394 0.4587 0.4827 0.4855 0.4807 0.474 0.4865 0.5016 0.4918 0.432
2208.680 0.3907 0.3557 0.3639 0.4219 0.4467 0.4397 0.4757 0.4259 0.3661 0.4061
2227.970 0.3679 0.3637 0.3977 0.4039 0.4123 0.3849 0.3735 0.3702 0.3902 0.3673
2247.259 0.3754 0.3963 0.3809 0.3597 0.327 0.28397 0.3656 0.4757 0.3339 0.25321
2266.549 0.331 0.372 0.3922 0.3333 0.3592 0.4156 0.31108 0.27073 0.29075 0.3218
2285.839 0.4318 0.426 0.3629 0.3818 0.4391 0.4641 0.4165 0.4006 0.403 0.3908
2305.129 0.3932 0.4244 0.4051 0.3763 0.4056 0.4304 0.4307 0.4333 0.5033 0.5011
2324.418 0.4658 0.4588 0.3883 0.4223 0.4708 0.4702 0.3807 0.3457 0.4428 0.4751
2343.708 0.4976 0.4585 0.4467 0.3929 0.3375 0.3832 0.3916 0.3957 0.3203 0.30974
2362.998 0.3868 0.3283 0.3568 0.3762 0.31338 0.3457 0.31073 0.3064 0.3422 0.3276
2382.288 0.3307 0.3585 0.371 0.3912 0.4396 0.3616 0.3743 0.436 0.334 0.28007
2401.578 0.3382 0.4096 0.4197 0.4477 0.435 0.3444 0.31804 0.3635 0.3843 0.4141
2420.867 0.4511 0.4505 0.444 0.4225 0.4102 0.4512 0.4429 0.4112 0.4065 0.3606
2440.157 0.3737 0.4421 0.4561 0.4616 0.4089 0.3638 0.4189 0.4265 0.4178 0.4123
2459.447 0.382 0.3574 0.3208 0.3252 0.3459 0.26824 0.26779 0.38 0.3547 0.2733
2478.737 0.28297 0.24121 0.1638 0.21333 0.28237 0.27762 0.321 0.26756 0.221115 0.31361
2498.026 0.3554 0.3898 0.3459 0.3243 0.332 0.27047 0.30422 0.3796 0.4305 0.4228
2517.316 0.3307 0.3904 0.4585 0.4024 0.3849 0.4563 0.4741 0.4553 0.4284 0.4598
2536.606 0.5199 0.5009 0.4542 0.4216 0.4496 0.52 0.5535 0.523 0.5419 0.4722
2555.896 0.4179 0.4444 0.4493 0.4806 0.478 0.4122 0.3972 0.4354 0.47 0.4187
2575.186 0.3761 0.3716 0.3874 0.3956 0.4354 0.4446 0.3657 0.3761 0.382 0.358
2594.475 0.3504 0.364 0.4107 0.447 0.4184 0.3938 0.466 0.5171 0.55 0.5461
2613.765 0.4841 0.4452 0.4778 0.5251 0.5744 0.6191 0.5799 0.5627 0.5441 0.5175
2633.055 0.5289 0.5642 0.5883 0.6605 0.6576 0.6701 0.7187 0.7195 0.7554 0.8851
2652.345 0.9275 0.9424 0.9952 1.1305 1.23 1.1616 1.24 1.39 1.46 1.42
2671.634 1.43 1.45 1.52 1.54 1.46 1.5 1.48 1.38 1.2069 1.1822
2690.924 1.2078 1.1381 1.134 1.1312 1.184 1.1886 1.1134 1.0655 1.0627 1.1158
2710.214 1.1603 1.1478 1.1537 1.145 1.0506 1.0287 1.1327 1.0913 1.013 0.993
2729.504 0.9443 0.9176 0.8712 0.8688 0.943 0.9169 0.9171 1.0041 1.0268 1.0849
2748.794 1.1248 1.1774 1.34 1.42 1.43 1.58 1.72 1.69 1.57 1.59
2768.083 1.64 1.66 1.68 1.66 1.66 1.68 1.71 1.83 1.81 1.77
2787.373 1.86 1.97 2.09 2.23 2.4 2.41 2.36 2.32 2.43 2.57
2806.663 2.51 2.52 2.58 2.58 2.67 2.71 2.67 2.67 2.65 2.64
2825.953 2.75 2.95 2.99 3.04 3.15 3.3 3.52 3.69 3.93 4.25
2845.242 4.56 4.94 5.58 6.23 7.02 8.06 9.15 10.35 11.81 13.57
2864.532 15.58 17.81 20.41 23.35 26.54 30.28 34.55 39.06 43.44 47.11
2883.822 49.49 50.47 50.65 49.95 47.88 45.09 42.14 38.69 34.9 31.22
2903.112 27.92 25.33 23.38 22.21 21.93 22.22 23.13 24.64 26.53 28.8
2922.401 31.37 34.5 37.98 41.41 44.9 48.31 51.31 53.81 55.7 56.75
2941.691 56.83 55.85 54.12 51.87 49.35 46.65 43.66 40.65 37.75 35.08
2960.981 32.76 30.88 29.67 29.07 29.07 29.58 30.12 30.51 30.72 30.66
2980.271 30.2 28.74 26.63 24.42 21.72 18.6 15.56 12.86 10.57 8.62
2999.561 7.1 6 5.21 4.5 3.99 3.74 3.5 3.31 3.03 2.77
3018.850 2.7 2.73 2.6 2.34 2.33 2.27 2.13 2.05 1.99 2.06
3038.140 2.06 1.91 1.74 1.73 1.82 1.9 1.82 1.71 1.72 1.64
3057.430 1.53 1.46 1.37 1.28 1.38 1.46 1.38 1.37 1.26 1.1204
3076.720 1.0775 1.0528 1.0255 0.9878 0.907 0.88 0.8575 0.7508 0.7204 0.7174
3096.009 0.7732 0.7917 0.7171 0.7825 0.7216 0.6514 0.6416 0.7815 0.9029 0.7467
3115.299 0.728 0.695 0.7171 0.7815 0.7672 0.8549 0.9035 0.8578 0.7891 0.8118
3134.589 0.7538 0.6175 0.7307 0.8739 0.765 0.6002 0.6537 0.7325 0.7297 0.7946
3153.879 0.8627 0.789 0.6949 0.8081 0.8924 0.8422 0.8116 0.7695 0.7688 0.7748
3173.169 0.7532 0.7617 0.8279 0.97 0.9356 0.7203 0.6431 0.6343 0.6679 0.6708
3192.458 0.6724 0.7824 0.6812 0.4723 0.6129 0.6942 0.5374 0.5506 0.5758 0.4785
3211.748 0.3281 0.3469 0.4773 0.4528 0.31442 0.3925 0.4863 0.4561 0.4353 0.4114
3231.038 0.4068 0.4871 0.4854 0.393 0.4395 0.4521 0.27551 0.323 0.5341 0.5419
3250.328 0.4898 0.3833 0.339 0.3871 0.4315 0.3783 0.4156 0.488 0.3722 0.27139
3269.617 0.31285 0.31892 0.31763 0.3676 0.4631 0.5594 0.4716 0.4202 0.4288 0.4014
3288.907 0.4971 0.5583 0.4278 0.31479 0.4137 0.5316 0.5601 0.3763 0.1311 0.1485
3308.197 0.29806 0.4545 0.5112 0.4093 0.3225 0.3524 0.4475 0.4699 0.4472 0.3287
3327.487 0.2012 0.25361 0.3423 0.3883 0.4942 0.5516 0.4859 0.4712 0.332 0.3421
3346.777 0.4409 0.336 0.24556 0.3516 0.5028 0.4318 0.31548 0.3234 0.21337 0.21393
3366.066 0.3602 0.28563 0.29056 0.3782 0.4232 0.3583 0.2903 0.3242 0.25655 0.213
3385.356 0.3838 0.4614 0.3944 0.3377 0.3511 0.3772 0.28754 0.3237 0.4438 0.4267
3404.646 0.30922 0.31088 0.3254 0.3289 0.4662 0.4766 0.3469 0.3772 0.3492 0.1565
3423.936 0.196 0.3388 0.3848 0.3362 0.21727 0.3573 0.492 0.29035 0.2039 0.22076
3443.225 0.23298 0.29528 0.1697 0.1356 0.1854 0.1883 0.28267 0.3611 0.3682 0.3258
3462.515 0.29635 0.27924 0.1889 0.1698 0.2058 0.25823 0.1681 0.035 0.095 0.1968
3481.805 0.2018 0.1751 0.23624 0.1852 0.115 0.1423 0.1909 0.24532 0.30004 0.2113
3501.095 0.2188 0.31259 0.31581 0.2659 0.219186 0.1724 0.094 0.1761 0.26701 0.102
3520.385 0.012 0.1773 0.2007 0.1469 0.103 0 0.1881 0.3843 0.25526 0.199
3539.674 0.2113 0.24293 0.1828 0.1568 0.3333 0.2979 0.153 0.109 0.25624 0.30816
3558.964 0.223211 0.29404 0.322 0.28803 0.23133 0.129 0.1453 0.30171 0.3701 0.2077
3578.254 0.022 0.21059 0.30171 0.2096 0.27987 0.3783 0.3705 0.3273 0.3403 0.25705
3597.544 0.1281 0.14 0.2015 0.223822 0.29093 0.24574 0.1788 0.2041 0.1662 0.1371
3616.833 0.3534 0.4632 0.3934 0.4004 0.362 0.437 0.3429 0.21058 0.23311 0.168
3636.123 0.223992 0.3124 0.29509 0.3401 0.25013 0.1816 0.27766 0.228647 0.219974 0.24529
3655.413 0.1626 0.1241 0.1711 0.1547 0.094 0.083 0.097 0.057 0.116 0.31322
3674.703 0.3251 0.25982 0.27151 0.096 0.056 0.2523 0.26906 0.221194 0.1677 0.21313
3693.993 0.26283 0.2097 0.26479 0.3407 0.25862 0.2004 0.25405 0.3218 0.3407 0.24768
3713.282 0.1904 0.3639 0.4619 0.4049 0.4076 0.3794 0.3697 0.1958 0.23422 0.345
3732.572 0.3551 0.4349 0.3343 0.30762 0.30911 0.1246 0.031 0.27556 0.3996 0.3386
3751.862 0.3556 0.4321 0.4452 0.3549 0.3913 0.5112 0.453 0.4201 0.4376 0.3437
3771.152 0.3235 0.26353 0.1738 0.1409 0.23079 0.4024 0.3957 0.3837 0.406 0.3737
3790.441 0.26505 0.1959 0.1 0.1239 0.26616 0.29216 0.28981 0.28255 0.371 0.3698
3809.731 0.24604 0.3833 0.3877 0.228029 0.3366 0.31226 0.3148 0.4004 0.4227 0.4022
3829.021 0.30376 0.3494 0.5132 0.546 0.6746 0.5953 0.5029 0.5242 0.3925 0.4965
3848.311 0.58 0.5893 0.6114 0.6135 0.588 0.5655 0.7271 0.8183 0.7382 0.6436
3867.601 0.5607 0.5434 0.4632 0.31614 0.357 0.4138 0.5095 0.5466 0.5747 0.6626
3886.890 0.6344 0.5468 0.491 0.5878 0.6558 0.4447 0.406 0.6092 0.7506 0.7497
3906.180 0.6288 0.683 0.6587 0.581 0.5306 0.5393 0.6197 0.6223 0.5976 0.5549
3925.470 0.5203 0.5131 0.597 0.7111 0.6695 0.5657 0.5227 0.5337 0.5257 0.5284
3944.760 0.5563 0.5874 0.4946 0.4606 0.458 0.4847 0.5321 0.4919 0.5407 0.5277
3964.049 0.4529 0.4428 0.4132 0.408 0.4767 0.495 0.4703 0.4311 0.5061 0.5586
3983.339 0.5841 0.5548 0.5654 0.6381 0.6979 0.7023 0.5162 0.6235 0.763 0.6866
##END=
