##TITLE=2,4-Dimethylbenzyl chloride
##JCAMP-DX=4.24
##DATA TYPE=INFRARED SPECTRUM
##ORIGIN=EPA-IR VAPOR PHASE LIBRARY
##OWNER=SRD/NIST
Collection (C) 2018 copyright by the U.S. Secretary of Commerce
on behalf of the United States of America. All rights reserved.
##CAS REGISTRY NO=824-55-5
##MOLFORM=C 9 H 11 Cl
##$NIST SOURCE=MSDC-IR
##STATE=gas
##XUNITS=1/CM
##YUNITS=ABSORBANCE
##XFACTOR=1.
##YFACTOR=0.001
##DELTAX=1.92934
##FIRSTX=549.9
##LASTX=3999.5
##FIRSTY=18.26
##MAXX=3999.53
##MINX=549.863
##MAXY=0.15501
##MINY=0
##NPOINTS=1789
##XYDATA=(X++(Y..Y))
549.863 18.26 17.84 16.97 15.63 14.07 12.03 10.07 8.71 7.47 6.55
569.156 5.85 5.29 4.9 4.39 4.05 3.97 3.89 3.87 3.85 3.87
588.450 3.94 4.04 4.15 4.32 4.49 4.54 4.73 4.9 5 5.15
607.743 5.29 5.4 5.46 5.46 5.43 5.43 5.46 5.55 5.61 5.74
627.037 5.96 6.26 6.71 7.17 7.74 8.5 9.43 10.62 12.13 14.19
646.330 16.9 20.31 24.52 29.85 36.68 45.24 55.15 65.86 77.55 90.46
665.624 103.58 115.94 126.6 134.44 138.78 138.74 134.6 127.38 117.64 106.06
684.917 94.26 83.36 73.18 63.3 54.05 45.88 38.76 32.51 27.42 24
704.210 22.49 23.07 25.8 30.49 36.16 41.28 44.91 48.26 52.05 55.73
723.504 60.46 65.23 69.16 74.26 81.36 89.17 95.78 100.33 102.42 100.45
742.797 95.22 89.28 82.14 74.18 67.95 65.21 66.69 72.16 80.17 88.24
762.091 94.35 98.25 100.54 98.69 91.18 82.03 72.16 61 50.6 42.31
781.384 36.28 32.29 29.78 28.27 27.68 27.96 28.91 30.55 32.97 36.09
800.678 39.95 44.53 49.62 54.86 60.02 64.93 69.11 71.64 71.61 68.65
819.971 63.09 56.56 50.25 44.12 38.01 32.2 26.96 22.34 18.37 15.13
839.264 12.64 10.8 9.51 8.69 8.22 8.04 8.09 8.47 9.09 9.9
858.558 10.97 12.13 13.33 14.57 15.89 17.45 19.15 20.14 19.17 16.96
877.851 15.33 14.18 13.01 11.77 10.59 9.53 8.68 8.14 7.81 7.59
897.145 7.49 7.45 7.39 7.31 7.17 6.97 6.77 6.64 6.58 6.64
916.438 6.85 7.16 7.56 8.15 9.05 10.24 11.78 13.72 15.86 17.9
935.732 19.44 20.18 20.29 20.03 19.39 18.28 16.44 13.89 11.31 9.28
955.025 7.91 7.04 6.48 6.13 5.91 5.7 5.58 5.53 5.47 5.44
974.318 5.44 5.46 5.55 5.63 5.66 5.75 5.88 6.01 6.23 6.45
993.612 6.69 7.01 7.39 7.83 8.3 8.74 9.19 9.61 9.94 10.18
1012.905 10.34 10.43 10.45 10.41 10.4 10.36 10.35 10.46 10.67 10.93
1032.199 11.28 11.62 11.91 12.11 12.24 12.33 12.27 12.09 11.79 11.43
1051.492 11 10.53 10.1 9.62 9.1 8.67 8.24 7.77 7.37 7.04
1070.786 6.73 6.45 6.23 6.03 5.82 5.75 5.74 5.75 5.93 6.13
1090.079 6.32 6.6 6.94 7.26 7.55 7.8 8.07 8.35 8.58 8.75
1109.372 8.83 8.85 8.74 8.6 8.47 8.33 8.14 7.92 7.7 7.48
1128.666 7.32 7.25 7.32 7.46 7.78 8.36 9.25 10.46 12.09 14.11
1147.959 16.21 18.19 19.63 20.51 20.94 20.79 20.08 19.03 17.73 16.15
1167.253 14.55 13.08 11.82 10.8 9.96 9.38 9.02 8.85 8.8 8.8
1186.546 8.84 8.98 9.22 9.49 9.72 9.94 10.29 10.7 11.11 11.49
1205.840 11.94 12.39 12.85 13.37 13.74 14.09 14.47 14.85 15.47 16.27
1225.133 17.27 18.81 20.81 23.23 26.19 29.41 32.72 36.06 39.35 42.78
1244.426 46.57 51.09 56.92 64.62 74.75 87.66 102.37 116.19 126.05 131.26
1263.720 133.37 131.69 125.43 116.37 103.48 87.07 71.12 58.43 49.31 42.9
1283.013 38.38 35.11 32.55 30.46 28.56 26.67 24.82 22.94 21.12 19.38
1302.307 17.73 16.23 14.95 13.79 12.72 11.81 11.1 10.62 10.25 9.99
1321.600 9.87 9.81 9.78 9.8 9.9 10 10.16 10.37 10.54 10.65
1340.894 10.74 10.81 10.86 10.91 10.99 11.08 11.12 11.17 11.33 11.56
1360.187 11.84 12.12 12.51 13.03 13.69 14.54 15.65 17.05 18.7 20.41
1379.480 21.96 23.09 23.78 24.35 24.86 24.93 24.4 23.47 22.52 21.79
1398.774 21.4 21.37 21.64 22.2 22.92 23.76 24.69 25.67 26.65 27.64
1418.067 28.63 29.64 30.63 31.62 32.69 33.91 35.29 36.84 38.64 40.67
1437.361 43.07 45.72 48.63 51.85 55.26 58.62 61.62 63.92 65.46 66.36
1456.654 66.73 66.23 64.55 62.07 59.13 56.05 53.23 50.85 48.87 47.16
1475.948 45.83 44.79 44.03 43.53 43.4 43.61 44.18 45.15 46.56 48.53
1495.241 51.31 54.9 58.69 61.97 64.17 64.95 64.56 63.34 61.07 57.53
1514.534 52.65 46.69 40.85 36.16 32.6 30.32 28.75 27.65 26.81 26.13
1533.828 25.62 25.15 24.66 24.22 23.89 23.59 23.37 23.29 23.24 23.22
1553.121 23.29 23.37 23.43 23.52 23.63 23.68 23.68 23.67 23.64 23.59
1572.415 23.54 23.48 23.39 23.31 23.21 23.09 23.01 23.01 23.08 23.31
1591.708 23.75 24.55 25.77 27.6 30.27 33.89 38.55 44.23 50.66 57.19
1611.002 62.89 66.86 68.38 67.57 65.02 60.87 54.96 47.58 39.25 30.83
1630.295 23.76 18.63 15.15 12.76 11.05 9.81 8.89 8.13 7.44 6.93
1649.588 6.53 6.2 5.89 5.65 5.47 5.32 5.17 5.05 4.97 4.88
1668.882 4.81 4.83 4.88 4.87 4.93 5.06 5.15 5.16 5.1 5.07
1688.175 5.03 4.98 4.88 4.73 4.57 4.45 4.33 4.27 4.23 4.14
1707.469 4.11 4.07 4.07 4.09 4.1 4.16 4.32 4.54 4.76 5.04
1726.762 5.41 5.78 6.15 6.53 6.87 7.14 7.33 7.44 7.53 7.64
1746.056 7.73 7.74 7.68 7.54 7.35 7.17 6.94 6.66 6.35 6
1765.349 5.62 5.22 4.82 4.48 4.22 4.02 3.89 3.78 3.68 3.6
1784.642 3.5 3.42 3.32 3.2433 3.2426 3.229 3.2132 3.2245 3.2475 3.2733
1803.936 3.36 3.51 3.67 3.83 3.96 4.05 4.1 4.1 4.06 3.98
1823.229 3.82 3.62 3.42 3.2286 3.0637 2.9671 2.8863 2.8195 2.8183 2.833
1842.523 2.8161 2.8515 2.9768 3.0669 3.1531 3.2621 3.33 3.39 3.51 3.64
1861.816 3.76 3.98 4.26 4.55 4.91 5.34 5.79 6.28 6.76 7.21
1881.110 7.58 7.86 8.04 8.06 7.98 7.81 7.56 7.3 6.94 6.53
1900.403 6.15 5.75 5.42 5.13 4.88 4.71 4.56 4.45 4.36 4.29
1919.696 4.23 4.17 4.18 4.19 4.09 3.95 3.83 3.69 3.53 3.2939
1938.990 3.0847 2.9094 2.6912 2.5055 2.35073 2.2202 2.112 2.025 1.999 1.978
1958.283 1.973 1.958 1.975 2.001 2.001 2.014 2.037 2.077 2.089 2.121
1977.577 2.132 2.133 2.149 2.124 2.055 2.021 2.029 1.986 1.951 1.935
1996.870 1.943 1.969 1.97 1.951 1.971 1.978 1.955 1.994 2.012 1.991
2016.164 1.994 1.988 1.929 1.879 1.872 1.844 1.777 1.734 1.738 1.707
2035.457 1.679 1.688 1.678 1.677 1.69 1.706 1.756 1.789 1.793 1.821
2054.750 1.85 1.825 1.798 1.767 1.711 1.668 1.63 1.588 1.579 1.595
2074.044 1.614 1.638 1.626 1.63 1.687 1.774 1.883 2.008 2.116 2.198
2093.337 2.2861 2.38176 2.4569 2.4513 2.41702 2.3774 2.2967 2.17 2.025 1.909
2112.631 1.792 1.697 1.605 1.54 1.535 1.521 1.505 1.482 1.504 1.529
2131.924 1.515 1.533 1.522 1.498 1.534 1.571 1.588 1.605 1.594 1.57
2151.218 1.574 1.583 1.576 1.574 1.575 1.543 1.545 1.537 1.502 1.49
2170.511 1.456 1.437 1.424 1.358 1.3 1.3 1.31 1.31 1.27 1.27
2189.804 1.28 1.28 1.27 1.27 1.27 1.26 1.25 1.25 1.27 1.26
2209.098 1.25 1.26 1.26 1.27 1.32 1.353 1.363 1.363 1.362 1.399
2228.391 1.448 1.436 1.418 1.416 1.426 1.454 1.456 1.463 1.478 1.489
2247.685 1.483 1.469 1.487 1.496 1.522 1.556 1.545 1.574 1.615 1.629
2266.978 1.653 1.665 1.696 1.738 1.771 1.792 1.827 1.834 1.807 1.831
2286.272 1.847 1.831 1.831 1.84 1.864 1.881 1.908 1.967 1.993 2.018
2305.565 2.082 2.173 2.284 2.38627 2.4842 2.5934 2.6936 2.7454 2.811 2.85
2324.858 2.8609 2.8849 2.846 2.772 2.6893 2.6481 2.5879 2.5192 2.4865 2.428
2344.152 2.38995 2.38596 2.32924 2.2838 2.2632 2.203 2.157 2.162 2.157 2.103
2363.445 2.087 2.105 2.103 2.093 2.076 2.074 2.095 2.102 2.107 2.12
2382.739 2.119 2.114 2.141 2.175 2.214 2.2907 2.35554 2.39868 2.4458 2.5023
2402.032 2.5609 2.5815 2.5857 2.6191 2.6146 2.6162 2.609 2.6124 2.5964 2.5166
2421.326 2.4623 2.41554 2.35439 2.2718 2.21 2.159 2.121 2.113 2.104 2.064
2440.619 2.059 2.1 2.089 2.065 2.113 2.155 2.154 2.165 2.163 2.138
2459.912 2.089 2.089 2.129 2.114 2.089 2.132 2.157 2.135 2.141 2.132
2479.206 2.109 2.085 2.074 2.082 2.059 2.042 2.064 2.032 1.985 2.011
2498.499 1.996 1.967 1.962 1.934 1.945 1.923 1.849 1.831 1.872 1.85
2517.793 1.792 1.775 1.714 1.651 1.651 1.674 1.649 1.636 1.704 1.763
2537.086 1.762 1.771 1.755 1.728 1.764 1.763 1.715 1.674 1.621 1.538
2556.380 1.469 1.434 1.396 1.358 1.332 1.32 1.32 1.3 1.31 1.31
2575.673 1.24 1.25 1.26 1.21 1.17 1.17 1.22 1.19 1.15 1.15
2594.966 1.14 1.18 1.23 1.22 1.19 1.21 1.29 1.345 1.394 1.43
2614.260 1.462 1.549 1.656 1.752 1.774 1.794 1.801 1.796 1.776 1.714
2633.553 1.665 1.62 1.57 1.509 1.461 1.43 1.437 1.419 1.419 1.496
2652.847 1.547 1.587 1.646 1.696 1.744 1.737 1.774 1.801 1.8 1.854
2672.140 1.827 1.785 1.815 1.873 1.94 1.989 2.049 2.094 2.17 2.3096
2691.434 2.38681 2.4954 2.6904 2.8276 2.9581 3.1853 3.43 3.6 3.82 4.09
2710.727 4.31 4.53 4.7 4.86 5 5.08 5.18 5.29 5.45 5.68
2730.020 5.98 6.39 6.87 7.36 7.83 8.22 8.42 8.46 8.51 8.34
2749.314 7.91 7.37 6.77 6.16 5.61 5.14 4.72 4.4 4.16 3.98
2768.607 3.84 3.76 3.7 3.65 3.64 3.67 3.75 3.86 3.96 4.07
2787.901 4.17 4.31 4.54 4.73 4.9 5.09 5.34 5.57 5.81 6.12
2807.194 6.47 6.8 7.1 7.43 7.75 8.13 8.68 9.12 9.53 10.08
2826.488 10.65 11.26 11.86 12.51 13.28 14.19 15.19 16.36 17.68 19.19
2845.781 20.89 22.79 24.95 27.43 30.24 33.36 36.85 40.78 45.1 49.63
2865.074 54.29 58.93 63.32 67.04 70.07 72.6 74.23 75.01 75.18 74.81
2884.368 73.98 72.97 71.98 71.16 70.39 69.72 69.33 69.2 69.46 70.07
2903.661 71.12 72.77 74.97 77.79 81.56 86.35 92.03 98.89 106.88 115.66
2922.955 124.72 133.59 141.76 148.44 152.97 155.01 154.61 151.85 147.04 140.51
2942.248 132.85 124.73 116.59 109.01 102.49 97.39 93.73 91.21 89.81 89.58
2961.542 90.25 91.49 93.34 95.6 98.24 101.43 104.82 108.03 110.78 112.06
2980.835 111.17 109.16 106.98 104.81 102.78 100.74 99.13 98.35 98.66 100.27
3000.128 103.01 106.63 111.07 116.4 122.06 127.59 132.65 136.71 139.42 140.32
3019.422 139.37 136.82 132.8 127.47 121.28 114.74 108.32 102.51 97.59 93.85
3038.715 91.34 89.55 88.21 87.19 85.95 84.53 82.93 80.93 78.7 76.27
3058.009 73.32 69.96 66.38 62.67 59.04 55.45 51.99 48.78 45.64 42.59
3077.302 39.68 36.79 34.03 31.49 29.03 26.78 24.73 22.79 21.09 19.59
3096.596 18.31 17.22 16.24 15.42 14.76 14.21 13.79 13.35 13.03 12.84
3115.889 12.63 12.4 12.12 11.85 11.41 10.77 10.16 9.61 8.97 8.27
3135.182 7.57 6.84 6.05 5.36 4.92 4.54 4.21 3.82 3.43 3.3085
3154.476 3.2214 3.0153 2.795 2.5053 2.2863 2.122 1.96 1.883 1.869 1.759
3173.769 1.47 1.33 1.31 1.21 1.14 1.05 0.95 0.85 0.82 0.79
3193.063 0.64 0.61 0.58 0.48 0.38 0.3 0.27 0.27 0.22 0.26
3212.356 0.32 0.24 0.22 0.32 0.33 0.25 0.22 0.33 0.31 0.18
3231.650 0.15 0.1 0.05 0.11 0.18 0.15 0.15 0.17 0.12 0.04
3250.943 0.03 0.14 0.17 0.18 0.22 0.15 0.17 0.3 0.17 0.05
3270.236 0.16 0.26 0.24 0.22 0.27 0.27 0.21 0.16 0.12 0.1
3289.530 0.15 0.12 0.15 0.3 0.39 0.33 0.31 0.29 0.24 0.23
3308.823 0.27 0.26 0.19 0.21 0.26 0.27 0.23 0.21 0.25 0.34
3328.117 0.34 0.23 0.17 0.19 0.22 0.15 0.05 0.09 0.16 0.17
3347.410 0.16 0.15 0.18 0.2 0.15 0.09 0 0.12 0.27 0.2
3366.704 0.13 0.16 0.12 0.09 0.12 0.16 0.28 0.34 0.33 0.29
3385.997 0.2 0.21 0.3 0.21 0.2 0.31 0.26 0.12 0.16 0.3
3405.290 0.39 0.34 0.23 0.31 0.33 0.43 0.47 0.42 0.38 0.35
3424.584 0.35 0.38 0.37 0.4 0.47 0.49 0.45 0.49 0.53 0.53
3443.877 0.6 0.63 0.57 0.44 0.49 0.69 0.71 0.52 0.38 0.36
3463.171 0.4 0.44 0.52 0.62 0.54 0.41 0.51 0.61 0.6 0.63
3482.464 0.69 0.63 0.57 0.52 0.41 0.41 0.43 0.47 0.43 0.36
3501.758 0.34 0.34 0.45 0.48 0.43 0.39 0.37 0.43 0.5 0.45
3521.051 0.42 0.41 0.38 0.35 0.39 0.38 0.42 0.51 0.4 0.43
3540.344 0.5 0.44 0.48 0.56 0.58 0.54 0.58 0.61 0.57 0.67
3559.638 0.75 0.72 0.64 0.64 0.76 0.8 0.76 0.7 0.63 0.65
3578.931 0.65 0.57 0.55 0.59 0.58 0.59 0.63 0.61 0.56 0.53
3598.225 0.54 0.57 0.54 0.54 0.55 0.53 0.6 0.59 0.49 0.46
3617.518 0.43 0.38 0.44 0.52 0.49 0.47 0.44 0.41 0.41 0.45
3636.812 0.56 0.48 0.39 0.53 0.64 0.58 0.57 0.61 0.62 0.58
3656.105 0.57 0.57 0.61 0.59 0.6 0.63 0.57 0.51 0.51 0.62
3675.398 0.65 0.59 0.61 0.64 0.63 0.69 0.74 0.8 0.74 0.69
3694.692 0.78 0.73 0.67 0.7 0.71 0.84 0.92 0.81 0.85 0.88
3713.985 0.91 1.01 1.03 1 1 1.04 1.17 1.25 1.18 1.18
3733.279 1.28 1.34 1.37 1.322 1.36 1.374 1.324 1.355 1.349 1.337
3752.572 1.322 1.384 1.369 1.32 1.336 1.28 1.28 1.3 1.23 1.23
3771.866 1.22 1.17 1.09 1.02 1.01 1 0.97 0.96 0.96 1
3791.159 1.01 0.95 0.91 0.84 0.87 0.92 0.9 0.94 0.94 0.9
3810.452 0.94 1 1.04 1.05 1.05 1.02 0.96 0.96 1.03 1.08
3829.746 1.09 1.15 1.1 1.04 1.1 1.18 1.21 1.23 1.21 1.2
3849.039 1.16 1.09 1.08 1.14 1.26 1.26 1.22 1.2 1.24 1.25
3868.333 1.27 1.29 1.337 1.356 1.329 1.406 1.44 1.324 1.345 1.411
3887.626 1.374 1.406 1.483 1.553 1.552 1.504 1.496 1.431 1.493 1.624
3906.920 1.574 1.545 1.583 1.604 1.586 1.545 1.543 1.548 1.609 1.659
3926.213 1.63 1.624 1.641 1.648 1.664 1.644 1.577 1.566 1.641 1.684
3945.506 1.703 1.672 1.664 1.727 1.758 1.793 1.816 1.833 1.872 2.001
3964.800 2.004 1.978 1.977 1.985 2.033 2.001 1.958 1.98 1.972 1.978
3984.093 2.015 1.94 1.866 1.836 1.777 1.727 1.711 1.558 1.5
##END=
