##TITLE=4-(Trifluoromethyl)thiophenol
##JCAMP-DX=4.24
##DATA TYPE=INFRARED SPECTRUM
##ORIGIN=EPA-IR VAPOR PHASE LIBRARY
##OWNER=SRD/NIST
Collection (C) 2018 copyright by the U.S. Secretary of Commerce
on behalf of the United States of America. All rights reserved.
##CAS REGISTRY NO=825-83-2
##MOLFORM=C 7 H 5 F 3 S
##$NIST SOURCE=MSDC-IR
##STATE=gas
##XUNITS=1/CM
##YUNITS=ABSORBANCE
##XFACTOR=1.
##YFACTOR=0.001
##DELTAX=1.92898
##FIRSTX=549.8
##LASTX=4000.7
##FIRSTY=2.2589
##MAXX=4000.7
##MINX=549.759
##MAXY=0.1852
##MINY=0
##NPOINTS=1790
##XYDATA=(X++(Y..Y))
549.759 2.2589 1.8177 1.4287 1.983 1.7947 2.2323 2.9 2.53 2.1076 1.5113
569.049 1.7787 2.6 3.21 3.99 3.71 3.57 4.15 4.35 4.53 4.01
588.339 3.38 3.89 4.28 3.86 4.56 4.68 3.92 3.62 3.3 2.69
607.628 2.0781 2.2272 2.2593 2.63 2.94 2.1092 2.139 2.38 1.8514 1.2234
626.918 0.896 1.33783 1.9856 2.1258 2.2058 2.81 2.34 1.34578 1.6844 1.9474
646.208 1.8223 1.9365 1.3771 1.31892 2.2767 2.58 2.1408 1.4807 1.062 1.33869
665.498 1.3042 0.946 0.936 0.809 1.18 1.39941 1.197 1.2494 1.251 1.4985
684.787 1.8876 2.1829 2.2544 2.47 2.9 3.06 3.3 4.43 5.16 4.83
704.077 4.87 5.04 5.2 4.65 3.84 3.66 3.01 2.46 3.03 3.58
723.367 3.11 2.87 3.13 3.06 2.79 2.84 3.13 2.86 2.0185 1.942
742.657 2.52 2.44 2.1385 2.64 3.19 2.4 2.0055 2.16 1.8079 1.8873
761.947 2.0662 2.52 2.89 3.4 3.81 3.59 3.97 4.39 4.72 4.84
781.236 5.02 5.34 5.14 4.86 5.06 5.38 5.25 5.57 6.27 6.34
800.526 6.28 7.35 8.28 8.6 9.04 9.86 11.34 11.94 12.79 12.87
819.816 11.86 13.47 14.13 14.24 14.65 14.53 14.24 13.69 12.97 11.9
839.106 11.59 10.59 9.78 9.05 8.19 7.05 5.53 4.82 4.26 4.05
858.395 4.02 3.64 3.45 3 2.84 2.89 2.34 2.2566 2.36 1.5035
877.685 1.2541 2.1313 1.8827 1.6955 2.3091 2.1433 1.8955 1.6349 1.6437 1.8373
896.975 2.46 3.21 3.24 2.6 2.1776 2.67 2.79 3.23 3.52 3.36
916.265 3.01 2.46 2.3184 2.3069 2.56 2.2344 1.8498 2.65 3.38 3.03
935.555 2.38 2.95 2.97 2.58 2.85 3.08 2.96 2.59 2.46 1.9472
954.844 1.5223 1.4376 1.38878 1.213 1.32332 1.9027 1.9348 1.7825 2.2282 2.1821
974.134 1.4571 1.7707 1.9986 1.7647 1.6551 1.6452 2.0238 2.21 2.3179 2.0886
993.424 2.2362 2.46 2.66 2.84 3.26 4.18 5.33 8.2 13.15 19.07
1012.714 22.15 21.27 20.84 22.14 21.43 17.79 13.04 8.83 5.71 4.78
1032.003 4.39 2.68 1.7639 1.9581 2.55 2.96 3.48 4.83 5.54 5.94
1051.293 7.75 11.24 16.51 22.21 29.84 37.42 43.69 48.05 49.27 49.17
1070.583 46.82 40.56 31.95 23.91 17.79 13.6 10.1 11.1 12.36 11.81
1089.873 13.35 17.4 22.72 28.78 36.21 42.53 47.41 50.53 52.35 54.15
1109.163 50.77 42.49 36.83 33.29 32.57 32.97 33.32 35.04 37.31 40.77
1128.452 45.62 50.07 54.2 60.28 68.05 75.56 81.9 88.6 95.61 101.83
1147.742 106.45 107.21 103.97 100.02 98.63 96.49 92.5 90.57 89.84 89.61
1167.032 89.37 87.57 85.36 81.12 73.65 64.41 57.19 52.36 47.65 43.29
1186.322 37.2 31.36 27.73 24.39 20.35 18.92 18.85 15.57 12.25 10.32
1205.611 10.23 10.73 11.3 11.41 11.64 11.38 9.67 10.25 9.54 8.58
1224.901 7.67 7.5 9.72 9.89 8.09 6.65 7.19 7.32 5.24 3.96
1244.191 4.92 5.88 5.68 5.48 5.23 4.93 5.24 5.97 6.82 7.51
1263.481 8.46 9.69 9.78 9.88 10.69 10.95 10.71 10.53 10.98 11.73
1282.771 11.74 11.08 10.79 11.22 11.41 11.68 12.43 13.21 14.4 16.21
1302.060 19.25 23.35 28.59 36.74 48.34 63.5 82.8 106.05 131.29 154.71
1321.350 173.07 183.8 185.2 177.87 162.79 140.37 112.94 84.83 61.26 45.75
1340.640 36.32 29.87 24.6 20.15 16.19 12.93 10.85 9.32 8.31 7.69
1359.930 7.22 6.78 6.26 5.8 5.58 5.31 5.29 5.34 5.34 5.59
1379.219 6.02 6.27 6.43 6.68 7.01 7.37 7.98 8.39 8.3 8.58
1398.509 9.07 9.56 9.72 9.63 9.34 8.93 8.79 8.5 8.02 7.49
1417.799 6.82 6.07 5.18 4.65 4.24 3.72 3.37 3.25 3.15 2.88
1437.089 2.77 2.58 2.4 2.2867 2.2332 2.0834 1.6909 1.6564 1.9449 1.9815
1456.378 1.8326 1.7541 1.7873 1.7363 1.7281 1.7423 1.6495 1.9257 2.0152 1.9875
1475.668 2.0037 2.0698 2.1521 2.1234 2.2432 2.39 2.61 3.05 3.73 4
1494.958 4.25 4.5 4.39 4.32 4.29 3.84 3.1 2.52 2.33 2.3057
1514.248 1.9379 1.7866 2.0788 1.9033 1.674 1.758 1.7294 1.7501 1.7805 1.8739
1533.538 1.8253 1.8674 1.9311 1.5406 1.5476 1.9797 2.0947 2.0117 2.1561 2.69
1552.827 2.85 3.05 3.53 3.71 3.96 4.08 4 4.16 4.43 4.61
1572.117 4.48 4.23 4.07 4.05 4.18 4.09 3.76 4.02 4.73 5.15
1591.407 5.77 6.94 8.13 9.86 12.39 14.86 17.57 20.74 23.6 25.33
1610.697 25.76 25.11 23.59 20.89 17.42 13.47 9.64 6.81 5.1 4.41
1629.986 3.88 3.61 3.52 3 2.72 2.97 3.23 3.12 3.12 3.18
1649.276 2.85 2.77 2.9 3.08 3.12 2.83 2.5 2.38 2.33 2.1527
1668.566 2.2741 2.4 2.0539 1.9149 2.1139 2.0599 2.0495 2.49 2.65 2.42
1687.856 2.1298 2.068 2.1941 2.38 2.44 2.1692 1.9715 1.9825 1.9955 1.9173
1707.146 1.8157 1.8318 1.6008 1.36318 1.587 1.6913 1.8746 1.7445 1.7335 1.8396
1726.435 1.8504 2.2245 2.2605 2.0114 2.0374 2.2213 2.2172 2.1891 2.3023 2.2067
1745.725 2.1301 2.2612 2.1453 2.2573 2.39 2.0439 1.9078 2.1383 2.1873 2.2774
1765.015 2.47 2.53 2.63 2.67 2.57 2.46 2.46 2.56 2.57 2.44
1784.305 2.56 2.56 2.39 2.46 2.4 2.2717 2.0685 1.8846 1.8522 1.896
1803.594 1.7982 1.755 1.9016 1.9515 1.8545 1.7028 1.7669 1.9457 2.0939 2.2391
1822.884 2.2016 2.207 2.297 2.1129 1.9946 2.0249 1.8618 1.7487 1.7536 1.6437
1842.174 1.5951 1.6417 1.9532 1.8148 1.4713 1.4465 1.5956 1.8358 1.509 1.36491
1861.464 1.6084 1.7227 1.6915 1.6229 1.6263 1.8862 2.0212 1.8832 2.0213 2.2925
1880.754 2.0575 1.8961 2.2418 2.33 2.39 2.64 2.62 2.47 2.59 2.7
1900.043 2.65 2.66 2.76 2.91 2.96 2.97 2.94 2.66 2.32 2.4
1919.333 2.47 2.2026 2.0206 2.1249 2.1902 2.1203 2.0329 1.8054 1.73 1.8448
1938.623 1.8671 2.0298 2.0371 1.8757 1.6778 1.4527 1.6482 1.782 1.7439 1.8921
1957.913 1.8392 1.6683 1.7393 1.7167 1.6555 1.6849 1.7275 1.7777 1.8616 1.7605
1977.202 1.4622 1.3933 1.4908 1.5325 1.6624 1.7049 1.6633 1.6235 1.5277 1.38117
1996.492 1.40738 1.6634 1.7792 1.7788 1.6266 1.5431 1.5326 1.38908 1.4754 1.5576
2015.782 1.4245 1.5509 1.9161 1.8566 1.5188 1.587 1.7106 1.4867 1.4826 1.526
2035.072 1.2543 1.091 1.4563 1.8159 1.5501 1.5142 1.734 1.5621 1.4293 1.4878
2054.362 1.35876 1.36708 1.5702 1.5981 1.5611 1.5016 1.5445 1.5963 1.40055 1.4711
2073.651 1.6128 1.4312 1.35379 1.4443 1.551 1.39313 1.187 1.2833 1.502 1.6978
2092.941 1.9401 2.057 1.9352 1.9722 1.8983 1.9583 2.2719 2.1503 1.9222 1.6504
2112.231 1.4911 1.6536 2.0289 1.9416 1.5567 1.5838 1.4732 1.4456 1.794 1.8672
2131.521 1.8033 1.7967 1.7014 1.6112 1.4529 1.31423 1.3079 1.289 1.214 1.2724
2150.810 1.4726 1.40949 1.38351 1.53 1.4971 1.5295 1.6249 1.8167 1.7748 1.5336
2170.100 1.685 1.6764 1.283 1.39307 1.6871 1.6524 1.54 1.5997 1.5862 1.5002
2189.390 1.5751 1.5705 1.7293 1.7792 1.6642 1.6982 1.5038 1.40009 1.4788 1.7008
2208.680 1.6133 1.3086 1.2223 1.3015 1.4393 1.4737 1.5762 1.4403 1.4982 1.6262
2227.970 1.5438 1.41677 1.4555 1.6918 1.7292 1.4952 1.4627 1.4504 1.2529 1.6
2247.259 1.7805 1.6252 1.6403 1.8067 1.9314 1.8281 1.8985 2.0213 1.8495 1.7498
2266.549 1.8261 1.9077 1.7994 1.8614 1.9497 1.7662 1.6038 1.9194 2.1805 2.0428
2285.839 2.0377 2.1233 2.0782 1.7664 1.897 2.2287 1.9217 1.6296 1.7443 1.9559
2305.129 1.8988 1.8409 2.0013 1.9893 1.8636 1.7264 1.7832 1.955 1.9676 1.6509
2324.418 1.6713 1.815 1.6912 1.4657 1.37974 1.7327 1.8076 1.7356 1.905 1.9485
2343.708 1.8932 1.7462 1.8221 1.8963 1.8396 1.8123 1.8506 1.7971 1.715 1.6301
2362.998 1.5583 1.7833 2.0324 1.9044 1.5716 1.5571 1.4658 1.4384 1.4245 1.39328
2382.288 1.5347 1.5615 1.5168 1.4406 1.4515 1.7937 1.8804 1.6604 1.781 1.7679
2401.578 1.6538 1.5744 1.6761 1.7319 1.8502 1.8499 1.6236 1.38194 1.2219 1.5733
2420.867 1.83 1.9336 1.9389 1.8542 1.7332 1.7585 1.8401 1.8352 1.31232 1.17
2440.157 1.5636 1.7276 2.0144 1.8327 1.36563 1.2895 1.2759 1.634 1.855 1.4478
2459.447 1.6654 1.722 1.747 2.1384 1.9877 1.7089 1.6382 1.849 1.6842 1.34791
2478.737 1.4322 1.7461 1.9122 1.8083 1.8081 1.8231 1.7959 1.6327 1.5475 1.5202
2498.026 1.5151 1.32065 1.218 1.40772 1.775 1.6228 1.2501 1.2969 1.34348 1.4851
2517.316 1.6089 1.8236 1.7396 1.7977 1.9616 1.5621 1.3073 1.2624 1.6832 1.8501
2536.606 1.34829 1.5221 1.7382 1.4893 1.8004 1.9338 1.4976 1.7288 1.8262 1.37463
2555.896 1.5028 1.7972 1.9318 2.2617 1.7103 1.6002 1.9371 1.7649 1.6166 1.3066
2575.186 1.40589 1.5658 1.447 1.4738 1.8259 1.7747 1.4273 1.5818 1.7168 1.8154
2594.475 2.1148 1.8476 1.5081 1.551 1.7135 2.1294 2.011 1.7852 1.6454 1.4701
2613.765 1.8964 1.7427 1.4473 1.699 1.653 1.6273 1.689 1.6345 1.7812 1.7342
2633.055 1.6765 1.5955 1.2559 1.5587 1.9181 1.7089 1.9043 1.9725 2.0544 2.1056
2652.345 1.8695 1.9406 1.8744 1.9638 1.8715 1.6355 0.997 0.999 1.5559 1.5561
2671.634 1.33607 1.6157 2.0966 1.9775 1.8328 1.9934 1.9258 1.41751 1.4834 1.6314
2690.924 1.40387 1.5255 1.81 1.6318 1.5467 1.2903 1.39662 1.7144 1.5525 1.36474
2710.214 1.191 0.785 0.76 1.2418 1.4256 1.38568 0.915 0.933 1.5952 1.4445
2729.504 1.178 1.113 1.142 1.4914 1.40755 1.4526 1.6326 1.37144 1.2879 1.40374
2748.794 1.3824 1.4938 1.7394 1.5019 1.091 1.39825 1.776 1.5151 1.5059 1.7562
2768.083 1.2486 0.973 1.2437 1.229 1.38728 1.31589 1.2623 1.34763 1.279 1.135
2787.373 1.132 1.5039 1.5345 1.6671 1.7809 1.6647 1.4436 1.31313 1.2463 1.181
2806.663 0.769 0.914 1.128 0.9 1.32861 1.7698 1.5004 1.33762 1.5752 1.772
2825.953 1.8085 1.6566 1.6989 1.541 1.21 1.115 1.35992 1.176 0.879 1.17
2845.242 1.5243 1.5426 1.7408 1.7762 1.7078 1.556 1.4605 1.4892 1.5977 1.7741
2864.532 1.7203 1.7044 1.5741 1.3185 1.174 1.2551 1.075 1.075 1.5599 1.7277
2883.822 1.5337 1.31871 1.5841 1.9517 1.6976 1.5803 1.5512 0.862 0.981 1.6256
2903.112 1.6101 1.6664 1.5764 1.5052 1.6624 1.8259 1.8747 1.9874 1.8331 2.0007
2922.401 2.2937 2.2736 2.1591 1.9413 2.0079 2.1717 2.58 2.0973 1.7255 2.3014
2941.691 2.2147 1.7863 1.848 1.7709 1.6592 1.921 2.0317 1.9973 1.4976 1.3619
2960.981 1.34876 1.2622 1.8494 1.7371 1.36389 1.2497 1.34266 1.4282 1.6219 1.9019
2980.271 1.2491 1.017 1.3029 0.989 0.764 1.101 1.34764 1.34646 1.38296 1.2983
2999.561 1.129 1.4596 1.8945 1.8045 1.6806 1.5892 1.782 1.8676 1.8693 2.0332
3018.850 1.9495 1.40761 1.013 0.932 1.108 1.078 1.125 1.624 1.9905 2.239
3038.140 2.38 2.98 3.59 3.44 2.53 2.1578 2.37 2.2507 2.58 2.65
3057.430 2.0311 2.55 3.32 2.84 1.9869 1.6515 1.7448 2.6 2.77 2.42
3076.720 2.5 2.41 2.69 2.84 3.01 3.07 2.88 3.04 3.56 3.09
3096.009 2.309 2.74 3.19 2.88 2.75 2.71 2.2705 2.2971 2.39 2.2461
3115.299 2.1251 2.2073 2.35 1.8338 1.4764 1.7736 1.6895 1.135 1.139 1.6482
3134.589 1.5343 1.32041 1.2612 1.199 1.6542 1.7722 1.6576 1.5899 1.158 1.209
3153.879 1.032 0.791 1.15 1.202 0.845 0.832 1.092 1.2908 1.5305 1.6334
3173.169 1.6804 1.5138 1.097 1.5744 1.7909 1.4621 1.34485 1.021 1.33963 1.78
3192.458 2.134 2.051 1.7356 1.8079 1.40042 0.716 0.761 1.4391 1.5102 0.981
3211.748 1.131 1.6178 1.8875 2.0038 1.784 1.4829 1.5419 1.39188 1.4993 1.9883
3231.038 1.8117 1.7225 1.8743 2.0029 1.9352 1.5661 1.35168 1.2351 1.3097 1.197
3250.328 1.35015 1.798 1.4876 1.2364 1.40667 1.4673 1.2811 1.027 1.5504 1.6011
3269.617 1.113 1.2499 1.6915 1.4537 0.891 0.901 1.065 0.862 1.01 1.6989
3288.907 1.6968 1.7836 1.5891 1.7595 1.7829 1 0.778 1.084 1.439 1.4513
3308.197 1.925 2.1447 2.0248 1.5174 1.33993 1.8302 1.7607 1.2848 0.963 1.146
3327.487 0.484 0.673 1.7063 2.0113 1.7863 1.089 1.2921 1.6499 0.755 1.046
3346.777 1.5061 1.207 1.6471 2.0447 2.0544 1.6938 0.832 0.593 1.5284 1.5245
3366.066 1.014 1.2963 1.2812 1.4509 1.182 0.511 1.6829 1.935 1.4636 1.9934
3385.356 2.38 2.0564 1.4153 1.34013 0.838 0.692 1.32551 1.9405 1.7949 1.706
3404.646 2.155 1.7431 1.192 0.599 0.519 1.39017 1.4272 1.194 1.5619 1.4267
3423.936 1.2878 1.5678 1.5078 1.2843 0.968 0.775 1.099 1.2511 1.36419 0.989
3443.225 0.903 1.8158 2.2257 2.1443 2.0363 1.5261 1.081 1.7101 2.7 2.1581
3462.515 1.557 1.5598 1.4586 1.624 2.1791 2.6 1.944 1.151 1.40297 1.8116
3481.805 1.3021 0.775 1.115 1.516 1.9558 2.55 2.1199 1.9244 2.5 2.36
3501.095 1.7175 1.134 1.2491 1.4827 1.6095 1.486 1.737 1.8885 1.2666 1.5277
3520.385 1.9304 1.7793 1.6059 1.7798 1.38891 1.067 1.6276 1.8587 1.2285 1.022
3539.674 0.845 0.613 1.262 1.5941 1.2713 1.075 1.145 1.5442 1.6855 1.6633
3558.964 1.985 1.7739 1.40326 0.926 0.402 0.773 1.4736 1.603 1.2395 1.062
3578.254 1.7064 2.62 2.42 1.36913 0.975 1.6203 1.5173 1.5793 1.5006 0.592
3597.544 1.206 1.2623 1.002 1.603 1.628 2.0062 1.5304 1.099 1.6515 1.6319
3616.833 1.7444 2.0348 2.0248 1.8693 1.601 1.5253 1.7015 1.8607 1.6624 1.4362
3636.123 1.6525 1.5507 2.1385 2.2252 1.5569 1.7731 1.8438 1.8184 1.8203 1.5977
3655.413 1.6145 1.7119 1.4518 1.153 1.265 0.862 0.422 1.05 1.3026 1.41773
3674.703 1.9222 1.695 1.35757 1.2478 0.997 1.5005 1.6563 1.5904 1.6351 1.192
3693.993 1.144 1.174 1.5761 1.5785 0.745 0.591 0.653 0.593 0.654 1.171
3713.282 1.41051 1.242 1.4459 1.4589 1.5368 1.581 1.463 1.6527 1.56 1.009
3732.572 1.09 1.8746 2.54 2.37 1.9695 1.9928 1.559 1.13 1.131 0.841
3751.862 1.8484 2.2633 1.7077 2.0403 2.0323 2.0314 2.4 1.9149 1.3976 1.6022
3771.152 1.6674 1.193 1.2872 1.5503 1.303 1.166 1.042 1.2673 1.727 1.7442
3790.441 1.5854 1.4516 1.07 1.3095 2.0763 2.0401 1.6822 1.6647 1.085 0.936
3809.731 1.2343 0.908 0.911 1.203 1.5079 2.0865 1.6003 1.2216 1.33809 1.3747
3829.021 1.9902 2.0303 1.2819 0.741 0.483 1.192 1.8013 1.086 0.481 1.2404
3848.311 1.4404 1.4262 1.6517 1.211 1.497 1.6357 1.8847 1.5847 1.40874 1.9619
3867.601 2.0997 1.8617 1.4392 1.6818 1.8492 1.7003 1.6972 1.071 0.413 0.337
3886.890 0.29 0.683 1.4881 1.139 0.634 1.2516 1.858 1.2881 0.92 1.8167
3906.180 1.6621 1.2385 1.2682 1.4829 1.6836 1.4574 1.9778 2.59 2.1336 2.097
3925.470 1.942 0.825 0.65 1.31558 1.6059 1.6109 1.802 2.1193 2.32 1.9513
3944.760 1.34803 1.046 0.356 0.634 1.2372 1.32822 1.9974 1.6687 1.35086 1.2339
3964.049 1.4298 1.8444 1.7122 1.5764 1.32594 1.2834 1.019 0.915 1.2424 1.4425
3983.339 1.4707 1.6853 1.5292 0.622 0.606 1.135 1.161 1.32109 0.601 0
##END=
