##TITLE=2-Methylbicyclo[2.2.1]-5-heptene-2-carboxylic acid
##JCAMP-DX=4.24
##DATA TYPE=INFRARED SPECTRUM
##ORIGIN=EPA-IR VAPOR PHASE LIBRARY
##OWNER=SRD/NIST
Collection (C) 2018 copyright by the U.S. Secretary of Commerce
on behalf of the United States of America. All rights reserved.
##CAS REGISTRY NO=825-03-6
##MOLFORM=C 9 H 12 O 2
##$NIST SOURCE=MSDC-IR
##STATE=gas
##XUNITS=1/CM
##YUNITS=ABSORBANCE
##XFACTOR=1.
##YFACTOR=0.001
##DELTAX=1.92898
##FIRSTX=549.8
##LASTX=4000.7
##FIRSTY=13.2224
##MAXX=4000.7
##MINX=549.759
##MAXY=0.111002
##MINY=0
##NPOINTS=1790
##XYDATA=(X++(Y..Y))
549.759 13.2224 13.4024 13.5424 13.6524 14.1324 14.9424 15.9324 16.7324 17.5124 18.1324
569.049 18.8324 19.7124 20.3824 21.3524 22.2624 22.9924 23.5224 23.3624 22.8924 22.6124
588.339 21.7824 20.5424 19.0424 17.2824 15.6324 14.1024 12.6324 11.1924 9.9224 8.7424
607.628 7.7424 6.9824 6.6424 6.3624 6.0524 5.7424 5.6024 5.7424 5.5824 5.5124
626.918 5.6724 5.8724 6.2624 6.8924 8.1524 9.8524 11.8924 14.4524 16.6324 17.9124
646.208 18.8624 20.3824 21.8624 21.1024 19.2624 18.3524 17.9724 18.5924 19.9424 15.7524
665.498 8.4824 5.5224 4.4924 3.7924 3.5524 3.4824 3.6224 3.6524 3.9124 4.4524
684.787 5.1224 5.8624 6.7624 8.1024 9.8224 11.7224 13.4624 15.1324 16.7024 18.1024
704.077 19.2124 19.9024 19.9324 19.6124 19.4924 19.3724 18.9524 18.0824 17.1824 16.5524
723.367 16.0924 15.7824 15.2424 13.8424 12.2224 11.1624 10.1224 8.8024 7.4424 6.2324
742.657 5.3324 4.7624 4.3224 4.1624 4.1524 4.3424 4.7424 5.1124 5.4424 5.7524
761.947 5.9924 6.1324 6.3824 6.5924 6.4824 6.4224 6.4524 6.1924 5.8724 5.4224
781.236 4.8924 4.5424 4.3124 4.0624 3.8324 3.5524 3.3724 3.4024 3.3424 3.3124
800.526 3.1524 3.0524 3.1924 3.3724 3.5024 3.8524 4.1224 4.1524 4.2424 4.3024
819.816 4.2024 4.0624 4.2824 4.2924 4.2024 4.4024 4.4624 4.4324 4.4924 4.4924
839.106 4.4924 4.4624 4.3324 4.2924 4.3424 4.3224 4.1024 3.8724 3.8024 3.7624
858.395 3.8124 3.7824 3.7124 3.7224 3.6324 3.4024 3.2724 3.1724 3.1424 3.2224
877.685 3.3324 3.4824 3.5424 3.8624 4.2024 4.4324 4.9224 5.4024 5.5924 5.3024
896.975 4.5524 4.2524 4.2824 4.3124 4.4424 4.6724 4.8524 4.7524 4.6324 4.5524
916.265 4.4424 4.3624 4.3724 4.3324 4.2724 4.1724 4.1224 4.2624 4.3024 4.4224
935.555 4.5524 4.6324 4.7624 4.6924 4.5424 4.3024 3.9324 3.6024 3.4624 3.3224
954.844 3.2224 3.1224 2.9924 2.9924 2.9324 2.9224 3.1224 3.1924 3.2824 3.3724
974.134 3.1924 3.0724 2.9524 2.7624 2.5024 2.2924 2.2424 2.1924 2.1724 2.1824
993.424 2.0324 1.9424 2.1324 2.3624 2.4124 2.4924 2.7724 3.0724 3.4524 3.8224
1012.714 4.0924 4.4724 5.0924 5.3624 5.4324 5.5824 5.4424 5.3324 5.2724 5.1624
1032.003 5.2724 5.5224 5.6524 5.7824 6.0824 6.3824 6.8624 7.6824 8.4124 9.3124
1051.293 10.4524 11.8324 13.5224 15.6324 17.9824 20.2824 23.0424 26.0224 29.3524 33.0424
1070.583 36.9324 40.8024 43.9724 46.6524 49.1524 51.6224 53.7524 55.1624 56.1724 56.9024
1089.873 57.5124 58.5024 58.6724 57.7924 57.3824 56.3124 53.8424 52.3324 51.5324 49.9024
1109.163 46.9924 43.5024 40.5424 38.3324 36.3024 34.6424 33.7024 32.8924 32.6024 32.5824
1128.452 32.7824 33.3824 33.7324 33.8824 33.9624 34.0324 33.8424 33.1424 32.3524 31.4024
1147.742 30.5524 29.8024 28.7124 27.4424 25.7624 24.1424 22.6424 20.7524 18.7424 17.1524
1167.032 15.8224 14.4024 13.3724 12.1124 11.0824 10.6324 9.9724 9.4824 8.9824 8.5524
1186.322 8.3624 7.7724 7.3024 7.6724 7.9924 7.6724 7.2824 7.3124 7.6924 7.8924
1205.611 7.8624 8.2324 8.5624 8.9424 8.9324 8.5824 8.5724 8.6924 8.7824 8.6424
1224.901 8.5224 8.3824 8.2524 7.9924 7.7224 7.4324 7.1024 7.0324 6.7824 6.4224
1244.191 6.3824 6.3324 6.3924 6.5224 6.5324 6.4924 6.3624 6.4124 6.6924 6.7724
1263.481 6.7524 6.8924 6.9824 6.9624 6.8824 6.7824 6.8124 6.8824 6.9124 6.9024
1282.771 6.9524 6.9724 7.0124 7.2424 7.4724 7.7124 8.0924 8.5124 8.9324 9.3724
1302.060 9.8224 10.3024 10.8024 11.2324 11.5824 11.8924 12.2324 12.5224 12.7424 12.9424
1321.350 13.2024 13.4524 13.6224 13.7024 13.7324 13.7724 13.8924 13.7324 12.9024 11.8724
1340.640 11.0524 10.3224 9.5524 8.7324 7.9524 7.2424 6.6224 6.1824 5.9424 5.8124
1359.930 5.6824 5.6424 5.7024 5.8424 6.0324 6.2224 6.3224 6.4724 6.6424 6.7624
1379.219 6.8924 6.8224 6.5424 6.1924 5.8024 5.3824 4.9324 4.4424 3.9724 3.5624
1398.509 3.2124 2.9724 2.7824 2.6024 2.4624 2.4324 2.4724 2.4424 2.4524 2.5024
1417.799 2.5224 2.5324 2.5524 2.5824 2.6524 2.7624 2.8724 2.9924 3.2024 3.5024
1437.089 3.8824 4.3524 4.9324 5.5224 6.0924 6.6924 7.3824 8.0424 8.5524 8.7924
1456.378 8.9324 9.1324 9.2724 9.2824 9.1124 8.7524 8.3724 7.9624 7.4424 6.8424
1475.668 6.1524 5.4524 4.8224 4.1924 3.6124 3.0724 2.5924 2.2424 1.9824 1.7824
1494.958 1.5924 1.4424 1.3424 1.3324 1.3024 1.1724 1.0819 1.0738 1.0874 1.056
1514.248 1.0147 1.0006 0.9848 0.9865 0.9895 1.0272 1.0497 1.032 1.0628 1.0567
1533.538 1.1024 1.1624 1.1224 1.1124 1.1424 1.1924 1.1524 1.1024 1.1424 1.1424
1552.827 1.1024 1.1124 1.1924 1.2424 1.3024 1.4324 1.5424 1.6624 1.7624 1.7524
1572.117 1.7624 1.8124 1.8224 1.8324 1.7924 1.7024 1.6224 1.4924 1.3824 1.3624
1591.407 1.3824 1.3724 1.3724 1.3924 1.4024 1.4624 1.5324 1.6124 1.7124 1.7724
1610.697 1.8724 1.9624 2.0324 2.1224 2.1924 2.2824 2.4124 2.4724 2.4924 2.5624
1629.986 2.5924 2.6524 2.7124 2.7224 2.6424 2.5924 2.5324 2.4224 2.3224 2.2024
1649.276 2.0624 1.9724 1.8624 1.7824 1.7024 1.6424 1.6024 1.5624 1.5324 1.5024
1668.566 1.4824 1.4924 1.5424 1.5524 1.6124 1.7124 1.7624 1.8424 1.9324 2.0124
1687.856 2.1624 2.3324 2.4824 2.7324 3.0524 3.3224 3.6624 4.1424 4.6924 5.3324
1707.146 6.0524 6.8524 7.7124 8.6024 9.5524 10.4524 11.3224 12.2224 13.0624 13.8024
1726.435 14.5624 15.4424 16.4724 17.7524 19.4224 21.6424 24.5624 28.4924 33.4724 39.6824
1745.725 47.0724 55.3824 64.1224 73.1124 81.8824 90.3224 98.6024 105.602 109.962 111.002
1765.015 109.032 104.682 98.0424 89.5624 79.4224 68.9424 58.7524 49.4024 41.3024 34.3924
1784.305 28.7624 24.2124 20.6224 17.8524 15.6924 13.9524 12.5724 11.3624 10.2724 9.2324
1803.594 8.3024 7.5124 6.7424 6.0824 5.5324 5.0124 4.5724 4.1924 3.8524 3.5124
1822.884 3.2124 2.9624 2.7224 2.5324 2.3324 2.1424 1.9624 1.7924 1.7024 1.5824
1842.174 1.4624 1.3824 1.2924 1.2524 1.2324 1.1824 1.1024 1.1024 1.0832 1.0663
1861.464 1.0701 1.0372 1.0486 0.9946 0.9128 0.9252 0.9577 0.9431 0.9505 0.9291
1880.754 0.8853 0.8976 0.8903 0.8699 0.876 0.8545 0.8242 0.8518 0.8367 0.7842
1900.043 0.7109 0.7054 0.7701 0.7932 0.7559 0.6738 0.6715 0.6789 0.6546 0.6556
1919.333 0.6748 0.6958 0.7064 0.6905 0.6772 0.7043 0.7537 0.8057 0.773 0.7529
1938.623 0.8077 0.8102 0.8105 0.7801 0.751 0.7183 0.7182 0.7022 0.6662 0.6757
1957.913 0.6167 0.5556 0.5698 0.5938 0.5951 0.5782 0.5717 0.5867 0.5637 0.4789
1977.202 0.5021 0.537 0.5046 0.5466 0.5749 0.5958 0.5882 0.5411 0.5273 0.5358
1996.492 0.5245 0.5109 0.4921 0.4783 0.4797 0.5412 0.5628 0.5064 0.5031 0.481
2015.782 0.474 0.5069 0.5549 0.5595 0.5177 0.5091 0.521 0.5264 0.5551 0.5323
2035.072 0.5198 0.5921 0.5573 0.5521 0.594 0.5983 0.6239 0.6165 0.6091 0.6174
2054.362 0.5935 0.5676 0.5342 0.5375 0.5951 0.6113 0.6126 0.6138 0.5849 0.6195
2073.651 0.6457 0.5958 0.5537 0.5327 0.5221 0.5431 0.5421 0.5013 0.5165 0.5163
2092.941 0.5127 0.5136 0.5341 0.5701 0.542 0.5363 0.531 0.5274 0.5405 0.5281
2112.231 0.5484 0.5516 0.5096 0.5539 0.5814 0.5682 0.6256 0.6763 0.6383 0.6156
2131.521 0.6183 0.599 0.6497 0.7184 0.7108 0.7005 0.7163 0.7194 0.7171 0.7115
2150.810 0.7302 0.7658 0.7771 0.8113 0.8047 0.7567 0.7982 0.8189 0.8093 0.8021
2170.100 0.8378 0.8687 0.8291 0.746 0.7065 0.7794 0.8121 0.8012 0.7451 0.7257
2189.390 0.8144 0.7948 0.746 0.7567 0.7512 0.7353 0.6991 0.6861 0.7275 0.78
2208.680 0.7873 0.7739 0.6891 0.7085 0.7722 0.7265 0.6897 0.6281 0.5982 0.6029
2227.970 0.6042 0.62 0.6455 0.6287 0.6354 0.6369 0.595 0.5744 0.5628 0.5238
2247.259 0.4879 0.4907 0.4892 0.4872 0.4795 0.471 0.4427 0.4055 0.3669 0.3586
2266.549 0.399 0.4378 0.4404 0.4617 0.449 0.4139 0.4218 0.4171 0.4325 0.4425
2285.839 0.4655 0.4523 0.4126 0.4325 0.4405 0.4302 0.5102 0.5362 0.4618 0.4129
2305.129 0.3835 0.3828 0.3698 0.377 0.4139 0.4308 0.3909 0.3685 0.3962 0.3997
2324.418 0.4178 0.4231 0.3628 0.3432 0.4025 0.424 0.4227 0.4683 0.4214 0.4012
2343.708 0.4685 0.5026 0.4928 0.4359 0.4791 0.5076 0.4785 0.4673 0.456 0.4302
2362.998 0.4279 0.4443 0.4706 0.4578 0.4407 0.4317 0.4117 0.4492 0.4535 0.4233
2382.288 0.4087 0.4693 0.5041 0.4546 0.452 0.4887 0.4979 0.5479 0.5793 0.5386
2401.578 0.5242 0.5378 0.5143 0.5107 0.4512 0.4594 0.5289 0.4737 0.4904 0.5499
2420.867 0.5609 0.542 0.446 0.4574 0.5458 0.5337 0.5565 0.5701 0.547 0.5599
2440.157 0.5485 0.5044 0.5014 0.476 0.3793 0.4167 0.5095 0.4695 0.4167 0.3831
2459.447 0.3774 0.4022 0.4119 0.4184 0.4357 0.4513 0.4153 0.4055 0.4508 0.3953
2478.737 0.3186 0.2827 0.3295 0.4021 0.4371 0.4628 0.3706 0.3419 0.4155 0.4375
2498.026 0.3795 0.2684 0.2244 0.291 0.3297 0.3072 0.3309 0.3866 0.3506 0.3243
2517.316 0.3048 0.2347 0.2701 0.2927 0.2179 0.262 0.3162 0.2852 0.2634 0.3451
2536.606 0.4222 0.379 0.3418 0.3002 0.289 0.3047 0.3416 0.342 0.2925 0.2727
2555.896 0.2599 0.2741 0.3271 0.3348 0.3467 0.2859 0.2102 0.2252 0.2778 0.3404
2575.186 0.2941 0.2913 0.3406 0.3197 0.3434 0.376 0.3646 0.3743 0.3992 0.4024
2594.475 0.3394 0.3015 0.2848 0.2418 0.236 0.2992 0.3382 0.3207 0.3039 0.3321
2613.765 0.3602 0.2951 0.255 0.2993 0.3474 0.3015 0.3351 0.3841 0.3272 0.2667
2633.055 0.2696 0.3702 0.3755 0.3399 0.315 0.2957 0.3135 0.3292 0.3029 0.2797
2652.345 0.3068 0.3197 0.3458 0.3043 0.2302 0.2537 0.2824 0.2508 0.2397 0.1999
2671.634 0.171 0.2357 0.2366 0.2526 0.3427 0.3187 0.3072 0.2926 0.2092 0.2719
2690.924 0.3446 0.2847 0.3318 0.3841 0.3333 0.2979 0.2534 0.2105 0.2432 0.3279
2710.214 0.3512 0.3481 0.3918 0.3444 0.3381 0.4248 0.4691 0.4423 0.404 0.3963
2729.504 0.4291 0.5113 0.533 0.5062 0.4878 0.5536 0.5084 0.4667 0.5045 0.534
2748.794 0.5264 0.4852 0.4878 0.5189 0.4845 0.4047 0.4468 0.4884 0.4725 0.4271
2768.083 0.3861 0.3412 0.3804 0.4334 0.4273 0.4692 0.432 0.4351 0.5053 0.457
2787.373 0.3948 0.4171 0.421 0.4005 0.4332 0.5218 0.5624 0.4882 0.4566 0.5333
2806.663 0.5568 0.5896 0.6897 0.7124 0.7171 0.7728 0.8612 0.9103 0.8833 0.9568
2825.953 1.0544 1.0924 1.1124 1.1224 1.2024 1.2324 1.2724 1.3824 1.4424 1.5124
2845.242 1.5824 1.6824 1.7324 1.7824 1.9124 2.0424 2.2624 2.4624 2.7324 3.1724
2864.532 3.7824 4.4824 5.3624 6.4324 7.6124 8.8424 10.1224 11.3824 12.5524 13.5624
2883.822 14.3924 14.9224 15.0324 14.7424 14.0624 13.2324 12.4124 11.5624 10.6124 9.7824
2903.112 9.1624 8.5224 8.1424 8.0724 8.1124 8.3624 8.3624 8.1624 8.3224 8.5924
2922.401 8.8824 9.4024 10.0024 10.6124 11.3824 12.2524 13.1624 14.1524 15.2024 16.2424
2941.691 17.4024 18.5524 19.7224 20.7924 21.6524 22.5124 23.2424 24.0424 25.0224 26.1124
2960.981 27.5824 29.6824 32.3824 35.7324 39.7424 44.3924 49.6624 54.8324 58.6324 61.1224
2980.271 63.5224 65.8324 65.6624 62.2424 58.1524 53.9824 48.7224 42.4424 35.9324 29.8624
2999.561 24.3624 19.5924 15.6824 12.5624 9.9824 7.9524 6.3824 5.1124 4.2924 3.6324
3018.850 3.0424 2.7324 2.5424 2.3424 2.1824 2.1324 2.0824 2.0024 1.9524 1.9324
3038.140 1.8924 1.9624 2.0624 2.1124 2.3524 2.6824 3.0024 3.5424 4.3124 5.2524
3057.430 6.3424 7.3224 8.1124 8.9824 9.9124 10.6224 10.9924 10.9224 10.7224 10.2524
3076.720 9.4924 8.7324 7.8624 6.8024 5.7324 4.8424 4.1724 3.5724 3.1224 2.8024
3096.009 2.6324 2.4624 2.1924 2.1024 1.9724 1.8924 1.8924 1.8724 1.8224 1.7624
3115.299 1.6824 1.6724 1.7024 1.6624 1.6824 1.6324 1.5424 1.5724 1.6524 1.6624
3134.589 1.6424 1.7224 1.7224 1.5524 1.6124 1.7524 1.7124 1.5724 1.3924 1.4024
3153.879 1.3124 1.1424 1.0591 0.9586 0.8544 0.7373 0.5924 0.5032 0.5358 0.5228
3173.169 0.4526 0.4011 0.384 0.3402 0.2153 0.3224 0.3574 0.3158 0.4457 0.4829
3192.458 0.4516 0.4115 0.4372 0.4704 0.4097 0.3792 0.3701 0.3752 0.3871 0.3508
3211.748 0.3729 0.3233 0.2878 0.3053 0.2247 0.252 0.2949 0.2326 0.2451 0.2259
3231.038 0.2075 0.2461 0.2728 0.415 0.4236 0.3571 0.3167 0.2258 0.3044 0.3357
3250.328 0.2711 0.2044 0.2684 0.4176 0.4553 0.3598 0.2991 0.354 0.2742 0.251
3269.617 0.2829 0.2675 0.2078 0.2712 0.428 0.4027 0.2224 0.212 0.2761 0.2807
3288.907 0.2922 0.2839 0.2658 0.15849 0.14632 0.17094 0.14763 0.16803 0.15172 0.12009
3308.197 0.16225 0.18465 0.16097 0.2178 0.3305 0.3419 0.1874 0.13808 0.17587 0.1402
3327.487 0.18105 0.15625 0.2336 0.2738 0.18843 0.17224 0.2012 0.255 0.2399 0.2914
3346.777 0.291 0.14089 0.17888 0.2631 0.2302 0.2059 0.2231 0.2423 0.2893 0.3725
3366.066 0.3224 0.3021 0.3384 0.3314 0.2802 0.1976 0.16501 0.2084 0.3114 0.2646
3385.356 0.14285 0.17692 0.2715 0.3327 0.2875 0.2701 0.3422 0.2751 0.3228 0.401
3404.646 0.3142 0.2763 0.2595 0.2167 0.207 0.1568 0.0652 0 0.041 0.13042
3423.936 0.16874 0.3124 0.2861 0.2947 0.3709 0.3051 0.2465 0.2447 0.3789 0.3582
3443.225 0.2973 0.2604 0.2685 0.405 0.4433 0.4882 0.5321 0.4408 0.3586 0.418
3462.515 0.5584 0.6445 0.5473 0.4408 0.5574 0.6008 0.5773 0.6386 0.6231 0.6596
3481.805 0.6766 0.6182 0.7411 0.9037 1.0191 0.9886 0.8974 0.9235 1.0149 1.0531
3501.095 1.0924 1.2424 1.3024 1.1924 1.1224 1.1624 1.1224 1.1524 1.1824 1.1724
3520.385 1.0326 0.9672 0.9866 0.93 0.9599 1.056 1.0256 1.0665 1.066 1.1224
3539.674 1.2924 1.3024 1.3924 1.6024 1.9824 2.5824 3.4224 4.8224 7.0624 10.1424
3558.964 14.1424 18.7224 23.3824 27.6324 31.2824 34.5724 36.9024 37.3624 36.9524 35.9924
3578.254 33.2324 29.3124 25.2924 21.0324 16.4524 12.2624 9.0724 6.7224 5.1424 4.1024
3597.544 3.3824 3.0224 2.6624 2.2124 1.9024 1.5824 1.2524 1.1324 1.0724 0.9888
3616.833 0.932 0.8439 0.724 0.7207 0.7462 0.6448 0.5764 0.4629 0.3931 0.418
3636.123 0.3791 0.3842 0.4173 0.3407 0.2519 0.2434 0.3412 0.4 0.2566 0.2603
3655.413 0.3862 0.3626 0.253 0.18484 0.2392 0.2453 0.1832 0.2262 0.2547 0.2584
3674.703 0.2433 0.2182 0.2158 0.2106 0.2048 0.222 0.2522 0.2937 0.4052 0.25
3693.993 0.059 0.17704 0.3153 0.3717 0.3465 0.3103 0.3675 0.3168 0.2946 0.3291
3713.282 0.2851 0.288 0.2658 0.3079 0.2919 0.2798 0.1867 0.1976 0.3052 0.2772
3732.572 0.2885 0.3271 0.3539 0.3526 0.4129 0.348 0.3699 0.4061 0.3481 0.3471
3751.862 0.434 0.4801 0.3926 0.3663 0.3837 0.4394 0.4175 0.2958 0.227 0.2213
3771.152 0.16317 0.17193 0.3374 0.3421 0.295 0.3843 0.3605 0.2737 0.2252 0.28
3790.441 0.3292 0.2205 0.3248 0.3806 0.2858 0.368 0.3548 0.2956 0.2368 0.2375
3809.731 0.2864 0.1963 0.3475 0.4749 0.3368 0.2291 0.14924 0.2503 0.3511 0.311
3829.021 0.3033 0.3268 0.3113 0.1935 0.2677 0.3454 0.2863 0.3927 0.3483 0.291
3848.311 0.3484 0.4346 0.4339 0.3279 0.3389 0.4635 0.4267 0.2734 0.3085 0.3477
3867.601 0.3522 0.4242 0.4946 0.5842 0.5732 0.5309 0.5195 0.5521 0.5799 0.6229
3886.890 0.6355 0.5476 0.5375 0.5306 0.5874 0.6113 0.5209 0.5857 0.7135 0.6468
3906.180 0.4062 0.2239 0.2493 0.3304 0.3859 0.3644 0.3385 0.2705 0.2274 0.279
3925.470 0.3151 0.2899 0.3134 0.3901 0.3626 0.3747 0.4259 0.3698 0.2688 0.2947
3944.760 0.3856 0.3217 0.2852 0.4157 0.5492 0.5661 0.5245 0.4357 0.4122 0.4722
3964.049 0.4576 0.4247 0.4377 0.4125 0.3743 0.3961 0.4448 0.4527 0.4778 0.5039
3983.339 0.3108 0.18686 0.3501 0.4483 0.4244 0.4514 0.5381 0.491 0.3219 0.3431
##END=
