##TITLE=2,2,6,6-Tetramethyl-4-piperidone
##JCAMP-DX=4.24
##DATA TYPE=INFRARED SPECTRUM
##ORIGIN=EPA-IR VAPOR PHASE LIBRARY
##OWNER=SRD/NIST
Collection (C) 2018 copyright by the U.S. Secretary of Commerce
on behalf of the United States of America. All rights reserved.
##CAS REGISTRY NO=826-36-8
##MOLFORM=C 9 H 17 N O
##$NIST SOURCE=MSDC-IR
##STATE=gas
##XUNITS=1/CM
##YUNITS=ABSORBANCE
##XFACTOR=1.
##YFACTOR=0.001
##DELTAX=1.92898
##FIRSTX=549.8
##LASTX=4000.7
##FIRSTY=6.14
##MAXX=4000.7
##MINX=549.759
##MAXY=0.12944
##MINY=0.00001356
##NPOINTS=1790
##XYDATA=(X++(Y..Y))
549.759 6.14 5.65 5.2 4.89 4.74 4.68 4.7 4.77 4.67 4.68
569.049 4.68 4.82 5.02 4.91 5.12 5.41 5.45 5.64 5.79 6.02
588.339 6.33 6.45 6.47 6.77 7.02 7.06 7.19 7.12 7.02 6.94
607.628 6.77 6.7 6.59 6.51 6.53 6.5 6.52 6.63 6.78 6.94
626.918 7.04 7.22 7.38 7.4 7.55 7.56 7.46 7.52 7.59 7.59
646.208 7.48 7.48 7.49 7.51 7.49 7.45 7.54 7.57 7.53 7.68
665.498 7.75 7.68 7.62 7.52 7.38 7.31 7.15 6.93 6.78 6.54
684.787 6.31 6.03 5.72 5.52 5.35 5.09 4.87 4.7 4.49 4.2
704.077 3.95 3.78 3.59 3.38 3.26 3.2 3.03 2.82 2.71 2.57
723.367 2.54 2.54 2.4 2.3 2.22 2.08 2.01 2.01 1.99 2.02
742.657 2.05 1.97 1.93 1.86 1.76 1.7 1.67 1.73 1.68 1.56
761.947 1.53 1.49 1.5 1.45 1.41 1.44 1.3 1.25 1.22 1.14
781.236 1.15 1.18 1.27 1.37 1.49 1.43 1.36 1.5 1.67 1.81
800.526 1.87 1.95 2.07 2.17 2.25 2.29 2.28 2.3 2.34 2.34
819.816 2.36 2.27 2.24 2.28 2.16 2.14 2.32 2.42 2.47 2.53
839.106 2.57 2.66 2.81 3.06 3.28 3.57 3.81 3.97 4.19 4.29
858.395 4.26 4.31 4.27 3.99 3.78 3.65 3.36 3.06 2.78 2.5
877.685 2.32 2.11 1.93 1.78 1.54 1.42 1.36 1.39 1.41 1.31
896.975 1.35 1.41 1.46 1.51 1.56 1.62 1.66 1.68 1.72 1.77
916.265 1.83 1.84 1.88 1.98 1.95 1.91 1.87 1.84 1.87 1.83
935.555 1.81 1.8 1.68 1.69 1.7 1.66 1.66 1.69 1.65 1.52
954.844 1.5 1.52 1.48 1.41 1.34 1.28 1.25 1.22 1.28 1.37
974.134 1.37 1.5 1.56 1.63 1.67 1.72 1.91 2.01 1.99 2.03
993.424 2.24 2.35 2.46 2.54 2.73 3.05 3.33 3.63 3.97 4.24
1012.714 4.49 4.76 4.9 5.13 5.16 4.96 4.83 4.56 4.13 3.65
1032.003 3.23 3 2.65 2.17 1.99 1.61 1.23 1.29 1.41 1.35
1051.293 1.22 1.27 1.18 1.12 1.24 1.21 1.01 0.8931 0.7684 0.8243
1070.583 0.8049 0.7122 0.8512 0.8274 0.6791 0.701 0.8414 0.9073 1.14 1.14
1089.873 0.9419 0.9809 1.13 1.32 1.44 1.28 1.24 1.44 1.43 1.75
1109.163 2.12 2.16 2.37 2.74 3.2 3.51 3.72 4.21 4.57 4.86
1128.452 5.42 5.87 6.4 6.77 7.07 7.59 8 8.38 8.69 9.15
1147.742 9.59 9.83 10.14 10.37 10.46 10.49 10.49 10.51 10.64 10.8
1167.032 10.95 11.08 11.3 11.64 11.83 12.12 12.62 13.05 13.41 13.67
1186.322 13.96 14.12 14.24 14.62 15.04 15.55 16.56 17.79 19.24 21.48
1205.611 24.34 27.34 30.68 34.14 37.45 40.55 43.35 45.68 47.16 48.11
1224.901 48.53 48.29 47.49 46.13 44.47 42.73 40.66 38.63 36.68 34.61
1244.191 32.62 31.02 29.78 28.68 27.97 27.66 27.45 27.48 27.7 27.92
1263.481 28.43 29.19 30.16 31.47 33.25 35.37 38.01 41.28 44.86 48.55
1282.771 52.14 55.45 58.21 60.15 60.78 59.94 57.77 54.5 50.3 45.24
1302.060 39.67 34.12 28.89 24.19 20.16 16.82 14.12 11.96 10.27 8.96
1321.350 7.93 7.16 6.62 6.21 5.88 5.69 5.53 5.45 5.43 5.4
1340.640 5.43 5.57 5.81 6.18 6.75 7.61 8.84 10.53 12.69 15.18
1359.930 17.78 20.15 22.46 25.75 31.54 38.11 40.11 38.77 39.02 40.48
1379.219 41.4 41.55 40.29 37.01 33.61 31.14 28.05 24.16 20.52 17.56
1398.509 15.49 14.27 13.81 13.96 14.54 15.39 16.38 17.31 18.1 18.72
1417.799 19.12 19.3 19.28 19.13 18.89 18.63 18.4 18.18 17.89 17.69
1437.089 17.69 17.83 18.03 18.15 18.31 18.61 18.98 19.33 19.51 19.49
1456.378 19.35 19.17 19 18.85 18.66 18.31 17.88 17.38 16.84 16.24
1475.668 15.58 14.82 13.96 13.07 12.2 11.27 10.33 9.4 8.5 7.64
1494.958 6.81 6.05 5.36 4.72 4.16 3.67 3.26 2.93 2.64 2.4
1514.248 2.21 2.03 1.88 1.81 1.76 1.64 1.57 1.54 1.48 1.46
1533.538 1.44 1.38 1.37 1.35 1.32 1.31 1.27 1.26 1.26 1.27
1552.827 1.28 1.24 1.23 1.24 1.2 1.16 1.14 1.16 1.16 1.19
1572.117 1.19 1.17 1.18 1.18 1.22 1.23 1.26 1.33 1.35 1.38
1591.407 1.43 1.49 1.54 1.53 1.54 1.6 1.64 1.65 1.69 1.74
1610.697 1.77 1.83 1.89 1.88 1.94 1.99 2.02 2.08 2.11 2.19
1629.986 2.25 2.3 2.39 2.45 2.52 2.6 2.67 2.79 2.93 3.03
1649.276 3.12 3.23 3.38 3.49 3.62 3.77 3.97 4.17 4.37 4.66
1668.566 4.98 5.25 5.56 5.95 6.38 6.84 7.44 8.08 8.84 9.66
1687.856 10.53 11.58 12.79 14.18 15.9 17.87 20.16 23.01 26.14 30
1707.146 34.57 39.9 46.1 53.21 61.28 70.15 79.71 88.88 97.49 105.13
1726.435 111.22 115.29 117.06 116.21 112.45 106.34 98.42 88.65 78.12 67.36
1745.725 57.06 47.71 39.82 33.39 28.3 24.42 21.32 18.87 16.87 15.18
1765.015 13.78 12.56 11.45 10.51 9.62 8.77 8.01 7.29 6.67 6.08
1784.305 5.5 5.02 4.6 4.23 3.9 3.56 3.31 3.09 2.9 2.73
1803.594 2.62 2.54 2.43 2.37 2.33 2.24 2.15 2.09 2.01 1.91
1822.884 1.83 1.73 1.62 1.53 1.43 1.36 1.28 1.21 1.14 1.11
1842.174 1.08 1.04 0.9718 0.9334 0.8628 0.8247 0.8019 0.7377 0.7284 0.7213
1861.464 0.7092 0.6712 0.6536 0.6608 0.6295 0.5809 0.5987 0.6065 0.5737 0.5743
1880.754 0.5766 0.5568 0.5457 0.5562 0.5504 0.5603 0.6048 0.5985 0.577 0.5837
1900.043 0.5595 0.5723 0.6162 0.6227 0.6252 0.6413 0.6482 0.6434 0.6341 0.631
1919.333 0.6203 0.6093 0.6084 0.6058 0.6081 0.5655 0.5172 0.4945 0.477 0.4607
1938.623 0.4628 0.4688 0.4637 0.4299 0.3729 0.36 0.3621 0.3502 0.3685 0.3743
1957.913 0.3481 0.3243 0.3353 0.3566 0.3432 0.3403 0.3701 0.3748 0.3297 0.3112
1977.202 0.3552 0.3735 0.3534 0.3382 0.3332 0.2815 0.264 0.2888 0.2766 0.2665
1996.492 0.2661 0.2599 0.2385 0.2448 0.2764 0.2822 0.2515 0.2454 0.2751 0.2828
2015.782 0.258 0.2288 0.2266 0.2701 0.273 0.2411 0.2525 0.28 0.3 0.3333
2035.072 0.3447 0.3354 0.3281 0.3159 0.3254 0.3407 0.3355 0.3302 0.3512 0.3532
2054.362 0.3176 0.3118 0.3319 0.3102 0.2983 0.35 0.3691 0.3336 0.3392 0.3653
2073.651 0.3851 0.4053 0.4151 0.3988 0.3698 0.3699 0.4115 0.4383 0.4305 0.4561
2092.941 0.4625 0.4762 0.5211 0.5207 0.521 0.5212 0.4942 0.4804 0.4914 0.4758
2112.231 0.4892 0.5095 0.5051 0.5175 0.5124 0.5085 0.5051 0.5264 0.5601 0.602
2131.521 0.5854 0.551 0.5575 0.5512 0.5734 0.6137 0.5996 0.5466 0.5494 0.5877
2150.810 0.5475 0.5212 0.5696 0.5975 0.5602 0.5204 0.5065 0.475 0.4813 0.4931
2170.100 0.4899 0.4404 0.4321 0.4421 0.3781 0.3553 0.3367 0.3312 0.3353 0.3442
2189.390 0.3516 0.2966 0.2691 0.3086 0.3496 0.3138 0.2619 0.229 0.2475 0.2845
2208.680 0.2638 0.2537 0.2406 0.2414 0.248 0.228 0.2394 0.2268 0.1888 0.2243
2227.970 0.2416 0.2196 0.2514 0.2597 0.2221 0.2434 0.2701 0.3033 0.3453 0.3173
2247.259 0.3212 0.3434 0.3342 0.3066 0.3099 0.3145 0.2936 0.3073 0.3093 0.3033
2266.549 0.3698 0.4088 0.4048 0.425 0.446 0.4283 0.4253 0.4664 0.449 0.4368
2285.839 0.4542 0.4659 0.4582 0.4518 0.4829 0.4759 0.4564 0.4616 0.4531 0.428
2305.129 0.3801 0.4048 0.4451 0.4028 0.3443 0.3742 0.392 0.3459 0.3306 0.3287
2324.418 0.3203 0.3168 0.3353 0.3337 0.3141 0.3364 0.357 0.3238 0.2986 0.3057
2343.708 0.3169 0.3383 0.3674 0.3978 0.386 0.3425 0.336 0.3576 0.3715 0.3786
2362.998 0.3894 0.3612 0.3394 0.3531 0.3429 0.3397 0.3236 0.2985 0.2757 0.2663
2382.288 0.312 0.3163 0.3007 0.3104 0.2782 0.2502 0.2759 0.264 0.2415 0.2425
2401.578 0.2551 0.2748 0.2876 0.2629 0.2661 0.3042 0.2765 0.2601 0.2727 0.2643
2420.867 0.2466 0.2559 0.2963 0.288 0.2688 0.2686 0.2558 0.2407 0.2781 0.2634
2440.157 0.2047 0.28 0.3145 0.2537 0.2243 0.2431 0.2908 0.3059 0.2812 0.2625
2459.447 0.2399 0.2086 0.2232 0.2671 0.2665 0.251 0.243 0.259 0.2577 0.2585
2478.737 0.2954 0.3164 0.3044 0.3144 0.2865 0.2631 0.2569 0.249 0.2447 0.2539
2498.026 0.3689 0.3407 0.265 0.2831 0.3171 0.3954 0.3899 0.3764 0.3981 0.3891
2517.316 0.3573 0.3261 0.3597 0.3826 0.3801 0.402 0.4121 0.412 0.419 0.4297
2536.606 0.4438 0.4194 0.4151 0.4407 0.4387 0.3809 0.3632 0.4541 0.5043 0.4981
2555.896 0.472 0.4554 0.4846 0.5003 0.4796 0.4623 0.5132 0.5196 0.4628 0.4848
2575.186 0.4862 0.49 0.5294 0.5306 0.5272 0.5201 0.4872 0.4746 0.4867 0.4531
2594.475 0.4271 0.4154 0.3935 0.3733 0.3668 0.425 0.4492 0.4397 0.4981 0.5337
2613.765 0.4773 0.4565 0.4736 0.4692 0.4356 0.4472 0.4884 0.4658 0.4606 0.4634
2633.055 0.4444 0.4482 0.4961 0.4961 0.4817 0.4978 0.532 0.5866 0.5989 0.6156
2652.345 0.6381 0.6103 0.5893 0.6231 0.6327 0.6185 0.6465 0.6401 0.642 0.6819
2671.634 0.7151 0.7522 0.7658 0.7464 0.7268 0.7365 0.7211 0.6979 0.7348 0.8117
2690.924 0.8366 0.8439 0.8865 0.9025 0.8757 0.8158 0.8651 0.945 1.01 1.14
2710.214 1.22 1.24 1.26 1.38 1.46 1.52 1.55 1.55 1.67 1.73
2729.504 1.68 1.67 1.65 1.53 1.46 1.4 1.32 1.27 1.24 1.26
2748.794 1.25 1.24 1.27 1.24 1.19 1.22 1.26 1.3 1.27 1.29
2768.083 1.33 1.28 1.26 1.24 1.26 1.31 1.32 1.33 1.36 1.4
2787.373 1.48 1.51 1.57 1.73 1.84 1.91 1.94 2.07 2.27 2.45
2806.663 2.61 2.76 2.94 3.12 3.34 3.54 3.73 3.95 4.16 4.37
2825.953 4.57 4.75 4.91 5 5.2 5.41 5.52 5.7 5.93 6.17
2845.242 6.44 6.79 7.24 7.79 8.44 9.28 10.31 11.42 12.7 14.15
2864.532 15.59 17.12 18.76 20.27 21.74 23.02 24.15 25.1 25.75 26.24
2883.822 26.61 26.82 26.97 27.18 27.4 27.85 28.54 29.31 30.36 31.69
2903.112 33.18 34.77 36.36 37.95 39.38 40.59 41.67 42.51 43.12 43.56
2922.401 43.96 44.41 44.91 45.52 46.04 46.56 47.02 47.31 47.46 47.51
2941.691 47.53 47.69 48.39 49.77 51.87 55.15 59.81 65.69 72.7 80.84
2960.981 90.01 99.8 109.7 118.43 124.55 128.09 129.44 128.02 123.78 117.4
2980.271 109.04 98.85 87.37 75.82 65.21 55.8 47.56 40.49 34.77 30.2
2999.561 26.48 23.49 21.04 18.8 16.75 14.88 13.09 11.47 9.98 8.61
3018.850 7.37 6.23 5.32 4.67 4.26 3.97 3.63 3.33 3.15 2.99
3038.140 2.84 2.74 2.62 2.52 2.42 2.31 2.21 2.17 2.14 2.04
3057.430 2.02 2.02 1.92 1.78 1.66 1.74 1.75 1.65 1.6 1.54
3076.720 1.56 1.6 1.56 1.49 1.52 1.52 1.48 1.51 1.58 1.53
3096.009 1.47 1.5 1.53 1.56 1.56 1.55 1.37 1.28 1.31 1.36
3115.299 1.43 1.41 1.34 1.27 1.32 1.36 1.38 1.33 1.38 1.38
3134.589 1.28 1.26 1.22 1.23 1.28 1.25 1.17 1.19 1.27 1.36
3153.879 1.35 1.29 1.28 1.24 1.27 1.25 1.21 1.25 1.24 1.24
3173.169 1.4 1.5 1.4 1.33 1.42 1.47 1.44 1.5 1.57 1.62
3192.458 1.66 1.69 1.71 1.76 1.83 1.82 1.75 1.7 1.66 1.72
3211.748 1.86 1.83 1.78 1.73 1.55 1.51 1.58 1.52 1.49 1.49
3231.038 1.42 1.37 1.28 1.24 1.31 1.32 1.18 1.07 1.11 0.9942
3250.328 0.9368 0.9903 0.9778 0.9478 0.9122 0.8662 0.853 0.8821 0.7781 0.8319
3269.617 0.8593 0.7908 0.877 0.9443 0.9339 0.8881 0.7113 0.5975 0.645 0.6395
3288.907 0.6713 0.6259 0.5388 0.5543 0.638 0.7039 0.6276 0.5316 0.5513 0.6017
3308.197 0.6475 0.6881 0.6345 0.6439 0.7251 0.6902 0.6876 0.7315 0.7874 0.838
3327.487 0.767 0.6973 0.7095 0.7556 0.7967 0.7837 0.8315 0.9022 0.9697 0.9607
3346.777 0.9043 0.9042 0.9175 0.985 0.9521 0.8542 0.7646 0.7721 0.8466 0.8513
3366.066 0.7756 0.7513 0.7632 0.7184 0.7171 0.7913 0.7405 0.6889 0.7232 0.6711
3385.356 0.6917 0.774 0.8306 0.9154 0.9213 0.9013 0.8637 0.9185 0.978 1.03
3404.646 1.06 1.06 1.09 1.07 1.14 1.19 1.3 1.42 1.42 1.53
3423.936 1.82 1.9 1.86 1.89 2.07 2.15 2.13 2.27 2.28 2.18
3443.225 2.1 2.05 1.99 1.98 2.01 1.86 1.67 1.5 1.48 1.59
3462.515 1.61 1.44 1.24 1.09 0.9423 0.9995 1.08 0.9981 0.831 0.7531
3481.805 0.6835 0.6339 0.68 0.6803 0.5814 0.5612 0.5696 0.5812 0.6477 0.6182
3501.095 0.5965 0.5852 0.4864 0.4093 0.5713 0.6406 0.5371 0.4266 0.2991 0.3429
3520.385 0.3919 0.2757 0.3042 0.3567 0.3 0.3041 0.2903 0.3042 0.3079 0.2748
3539.674 0.3181 0.3403 0.3647 0.3426 0.1991 0.1495 0.1515 0.1685 0.2041 0.1893
3558.964 0.09844 0.01372 0.09473 0.1786 0.08811 0.07114 0.1326 0.1577 0.2135 0.1512
3578.254 0.1202 0.2271 0.2793 0.2608 0.1659 0.2123 0.275 0.1921 0.1544 0.0862
3597.544 0.1268 0.2698 0.1966 0.2186 0.3661 0.3077 0.2528 0.1811 0.1915 0.2411
3616.833 0.205 0.0936 0.0932 0.1564 0.1438 0.1727 0.1042 0.08246 0.1559 0.1642
3636.123 0.1622 0.2245 0.1648 0.1292 0.2571 0.2981 0.2385 0.2892 0.3978 0.3895
3655.413 0.1717 0.08772 0.2192 0.1922 0.1068 0.1679 0.2021 0.07543 0.1907 0.3845
3674.703 0.3911 0.4312 0.2688 0.1968 0.2568 0.2423 0.2061 0.1714 0.1479 0.1499
3693.993 0.1541 0.1167 0.1736 0.2531 0.2033 0.1531 0.2203 0.1468 0.01356 0.1914
3713.282 0.4025 0.2486 0.1271 0.1242 0.1962 0.2527 0.2809 0.3395 0.283 0.2228
3732.572 0.2218 0.2167 0.1147 0.07609 0.1789 0.2625 0.3124 0.3254 0.3825 0.3986
3751.862 0.2309 0.144 0.2168 0.2571 0.2926 0.3266 0.3324 0.2562 0.1671 0.2265
3771.152 0.2679 0.2448 0.2342 0.2554 0.2579 0.2322 0.2332 0.1736 0.2274 0.2609
3790.441 0.2373 0.2214 0.2559 0.3291 0.3175 0.3407 0.4031 0.3574 0.3495 0.4212
3809.731 0.3934 0.3663 0.3754 0.4954 0.5157 0.4178 0.3497 0.2721 0.2788 0.3546
3829.021 0.3269 0.2924 0.4298 0.4864 0.396 0.3779 0.4295 0.3247 0.1968 0.2864
3848.311 0.2942 0.3103 0.4206 0.518 0.4723 0.4093 0.2867 0.2931 0.4992 0.4304
3867.601 0.3961 0.4786 0.4876 0.4089 0.3842 0.3687 0.3671 0.4434 0.4368 0.4427
3886.890 0.4143 0.4496 0.5262 0.451 0.4 0.4737 0.5272 0.4762 0.5138 0.5801
3906.180 0.4682 0.4611 0.4978 0.4632 0.5306 0.4469 0.3387 0.4084 0.4333 0.4345
3925.470 0.4024 0.3587 0.3751 0.4511 0.6454 0.5995 0.4532 0.4511 0.4095 0.4818
3944.760 0.5662 0.526 0.4122 0.4769 0.5658 0.4749 0.4723 0.534 0.4558 0.3661
3964.049 0.4152 0.4832 0.428 0.4838 0.5156 0.5336 0.6563 0.6215 0.5262 0.4486
3983.339 0.5697 0.5277 0.3649 0.4515 0.468 0.5391 0.5352 0.5208 0.5763 0.5561
##END=
