##TITLE=1-Benzosuberone
##JCAMP-DX=4.24
##DATA TYPE=INFRARED SPECTRUM
##ORIGIN=NIST Mass Spectrometry Data Center
##OWNER=NIST Standard Reference Data Program
Collection (C) 2018 copyright by the U.S. Secretary of Commerce
on behalf of the United States of America. All rights reserved.
##CAS REGISTRY NO=826-73-3
##MOLFORM=C 11 H 12 O
##$NIST SOURCE=MSDC-IR
##SPECTROMETER/DATA SYSTEM=HP-GC/MS/IRD
##STATE=gas
##XUNITS=1/CM
##YUNITS=ABSORBANCE
##XFACTOR=1.0
##YFACTOR=0.000015300
##DELTAX=4.0
##FIRSTX=550.0
##LASTX=3846.0
##FIRSTY=0.007283
##MAXX=3846
##MINX=550
##MAXY=0.153
##MINY=0
##NPOINTS=825
##XYDATA=(X++(Y..Y))
550.0 476 844 688 615 487 404 355 325 284 224
590.0 150 82 39 20 6 2 16 42 77 115
630.0 155 186 176 143 114 81 56 42 30 31
670.0 47 73 98 124 154 168 157 149 148 163
710.0 207 297 432 623 863 1096 1346 1525 1613 1776
750.0 2000 2262 2383 2276 1976 1502 1081 764 512 332
790.0 214 135 93 77 78 85 101 132 192 277
830.0 351 383 362 293 197 123 98 112 141 159
870.0 159 139 109 83 72 74 91 116 141 160
910.0 168 165 160 158 166 182 214 270 359 493
950.0 655 784 849 839 746 586 407 256 153 95
990.0 61 44 43 50 65 102 173 307 484 644
1030.0 727 720 632 486 361 293 268 261 259 270
1070.0 296 323 360 427 522 601 624 583 477 330
1110.0 200 129 100 95 100 107 121 141 173 217
1150.0 265 312 346 387 455 512 544 553 529 477
1190.0 435 430 453 505 598 727 857 946 992 1010
1230.0 1030 1142 1429 1853 2288 2661 2850 2758 2452 2114
1270.0 1854 1786 1950 2200 2410 2474 2313 1982 1628 1340
1310.0 1170 1108 1090 1056 974 869 797 765 740 701
1350.0 632 524 392 279 204 158 124 107 101 104
1390.0 114 132 167 224 307 403 491 567 628 688
1430.0 774 903 1095 1327 1537 1675 1715 1642 1438 1203
1470.0 1037 897 760 634 507 373 256 182 142 120
1510.0 106 99 94 89 85 81 79 81 85 87
1550.0 92 105 122 139 159 190 233 304 409 577
1590.0 802 1032 1179 1187 1062 843 606 436 358 340
1630.0 350 375 404 438 481 532 591 658 751 886
1670.0 1085 1429 2060 3177 5026 7287 9130 10000 9911 8365
1710.0 5758 3485 2026 1256 879 673 547 458 399 359
1750.0 329 300 273 249 222 192 166 144 125 112
1790.0 106 107 115 130 144 153 154 147 130 115
1830.0 102 97 95 92 83 73 60 47 37 30
1870.0 28 27 28 32 38 45 52 58 65 74
1910.0 86 101 117 131 137 131 116 101 94 97
1950.0 103 105 97 80 58 36 20 11 10 10
1990.0 9 9 8 9 9 11 9 8 7 6
2030.0 3 1 1 0 1 2 1 2 1 2
2070.0 1 3 3 2 2 1 3 5 7 8
2110.0 7 8 9 8 6 6 6 7 8 7
2150.0 7 8 7 8 8 7 7 8 7 6
2190.0 5 4 5 5 4 4 5 6 7 8
2230.0 11 12 15 17 18 19 21 19 18 19
2270.0 18 19 18 19 21 19 18 19 19 20
2310.0 25 30 36 37 35 30 23 17 17 18
2350.0 16 15 15 15 16 17 16 15 13 11
2390.0 9 9 10 9 8 9 8 9 8 6
2430.0 5 5 4 3 3 4 3 2 1 2
2470.0 4 4 5 7 6 6 7 8 7 7
2510.0 8 8 10 14 15 16 16 17 15 14
2550.0 16 13 9 9 8 6 6 6 5 5
2590.0 6 9 11 12 12 15 17 17 21 24
2630.0 26 31 32 33 36 40 45 51 59 69
2670.0 74 80 86 86 84 79 74 66 59 52
2710.0 48 44 39 36 37 38 37 38 38 38
2750.0 42 45 48 51 52 56 62 68 76 82
2790.0 91 100 111 120 133 150 165 178 191 206
2830.0 227 254 301 375 474 607 784 1026 1329 1641
2870.0 1867 1985 1969 1778 1541 1375 1296 1307 1384 1497
2910.0 1623 1755 1945 2271 2801 3612 4818 6205 7273 7787
2950.0 7512 6376 4806 3328 2313 1692 1269 976 766 595
2990.0 477 413 380 373 397 458 560 679 779 834
3030.0 834 782 706 655 656 723 851 1039 1293 1562
3070.0 1734 1734 1557 1248 877 568 399 312 250 196
3110.0 152 123 105 99 97 99 104 106 108 104
3150.0 89 76 66 55 45 40 35 32 31 29
3190.0 26 25 23 21 23 25 22 17 13 13
3230.0 12 12 13 10 11 13 10 9 10 9
3270.0 11 11 12 12 14 18 16 14 14 15
3310.0 14 17 15 14 17 21 25 26 31 36
3350.0 42 53 71 91 115 144 165 175 174 157
3390.0 130 101 77 62 53 44 37 32 29 28
3430.0 26 24 22 20 16 14 14 14 13 13
3470.0 12 10 12 13 13 14 14 15 16 12
3510.0 11 10 8 7 5 3 6 6 4 5
3550.0 4 4 3 2 5 4 3 7 11 9
3590.0 8 8 5 5 6 5 8 9 7 8
3630.0 9 11 14 11 10 8 8 10 11 9
3670.0 11 14 14 14 18 18 16 19 20 17
3710.0 15 14 15 15 14 12 10 8 12 14
3750.0 19 22 18 20 23 21 23 24 20 19
3790.0 22 20 21 21 22 25 24 24 26 27
3830.0 28 27 31 32 28
##END=
