##TITLE=8-Hydroxyquinaldine
##JCAMP-DX=4.24
##DATA TYPE=INFRARED SPECTRUM
##ORIGIN=NIST Mass Spectrometry Data Center
##OWNER=NIST Standard Reference Data Program
Collection (C) 2018 copyright by the U.S. Secretary of Commerce
on behalf of the United States of America. All rights reserved.
##CAS REGISTRY NO=826-81-3
##MOLFORM=C 10 H 9 N O
##$NIST SOURCE=MSDC-IR
##SPECTROMETER/DATA SYSTEM=HP-GC/MS/IRD
##STATE=gas
##XUNITS=1/CM
##YUNITS=ABSORBANCE
##XFACTOR=1.0
##YFACTOR=0.000003600
##DELTAX=4.0
##FIRSTX=550.0
##LASTX=3846.0
##FIRSTY=0.004205
##MAXX=3846
##MINX=550
##MAXY=0.036
##MINY=0
##NPOINTS=825
##XYDATA=(X++(Y..Y))
550.0 1168 1062 1090 1281 1559 2023 2733 3332 3622 3956
590.0 3900 3035 2191 1511 884 506 293 188 138 133
630.0 124 104 104 88 71 63 43 18 3 3
670.0 24 49 73 124 200 243 296 365 419 569
710.0 854 1179 1424 1700 1952 2173 2549 2863 3521 4358
750.0 3529 2322 1777 1116 627 416 424 590 849 1086
790.0 1492 1729 1336 1042 902 868 1095 1606 2103 3023
830.0 3978 3135 2201 1753 1093 667 527 529 508 462
870.0 394 295 209 169 158 167 189 195 196 196
910.0 176 157 133 115 125 130 123 117 133 159
950.0 189 207 221 244 269 265 252 273 289 297
990.0 339 404 455 470 455 409 345 307 282 259
1030.0 289 351 434 491 522 510 457 411 431 482
1070.0 538 643 822 1123 1543 1879 2069 2289 2388 2351
1110.0 2359 2381 2302 2074 1703 1282 974 808 700 574
1150.0 527 582 655 717 755 746 702 668 702 870
1190.0 1225 1727 2141 2376 2657 2854 2924 2931 2893 3010
1230.0 3157 3450 4202 5275 6851 8784 9942 10000 9844 9053
1270.0 7053 4982 3693 2818 1922 1223 867 735 792 1106
1310.0 1746 2676 3721 4525 4730 4382 3610 2592 1856 1675
1350.0 1917 2350 2744 2972 2981 2716 2347 2131 2065 2055
1390.0 2165 2376 2502 2515 2461 2256 2020 1967 2140 2522
1430.0 2984 3396 3788 4027 4007 4004 4253 4777 5611 6570
1470.0 7146 7130 6623 5682 4546 3849 4090 5314 6991 8136
1510.0 8400 8064 6642 4434 2787 1961 1584 1406 1315 1312
1550.0 1459 1836 2470 3265 3960 4290 4194 3782 3162 2656
1590.0 2565 2810 3130 3310 3195 2753 2112 1464 998 749
1630.0 614 506 404 331 277 229 195 172 159 142
1670.0 117 104 108 122 153 209 263 293 294 263
1710.0 210 152 111 96 103 123 153 201 254 273
1750.0 275 253 200 149 113 89 76 78 85 93
1790.0 100 101 99 103 112 123 144 169 195 204
1830.0 188 159 119 85 56 38 30 27 30 27
1870.0 20 19 25 30 45 85 142 212 279 312
1910.0 311 287 239 203 195 189 168 143 114 82
1950.0 59 38 29 25 22 26 27 28 31 34
1990.0 26 16 16 12 10 12 13 14 14 10
2030.0 7 10 5 5 13 17 17 15 17 20
2070.0 17 10 15 20 12 9 7 1 3 5
2110.0 5 3 7 15 17 13 10 6 6 8
2150.0 8 11 16 20 30 37 31 18 16 22
2190.0 19 23 23 22 19 15 14 14 18 17
2230.0 9 6 5 4 10 9 8 16 23 23
2270.0 23 24 29 31 32 39 42 41 41 43
2310.0 44 43 36 30 32 28 36 44 49 54
2350.0 54 52 44 46 46 35 35 35 28 33
2390.0 39 35 36 35 34 32 30 32 33 33
2430.0 29 31 32 28 25 28 36 39 29 25
2470.0 37 41 40 41 47 47 50 59 63 66
2510.0 64 67 68 59 52 42 34 30 22 16
2550.0 21 20 23 38 44 43 45 44 45 50
2590.0 52 54 59 59 55 52 52 46 46 50
2630.0 48 45 32 26 28 23 14 9 10 12
2670.0 15 20 19 21 11 4 3 10 12 8
2710.0 8 2 5 13 17 22 31 39 35 22
2750.0 9 10 13 7 1 6 10 8 13 14
2790.0 17 22 24 32 37 36 42 44 56 83
2830.0 98 117 149 176 211 259 301 330 357 373
2870.0 383 386 382 367 359 364 370 389 410 439
2910.0 494 571 699 901 1157 1381 1475 1438 1295 1078
2950.0 859 703 620 573 525 472 421 372 336 323
2990.0 331 354 396 453 515 597 690 762 832 917
3030.0 990 1060 1173 1395 1772 2332 2966 3435 3614 3454
3070.0 2966 2356 1814 1397 1099 883 705 557 455 399
3110.0 361 330 291 237 197 165 127 97 72 66
3150.0 66 49 37 39 53 60 58 48 55 77
3190.0 96 120 130 146 185 230 283 325 338 310
3230.0 267 221 172 131 111 104 81 53 46 42
3270.0 29 12 6 5 12 23 20 3 0 17
3310.0 19 27 25 7 21 25 18 8 11 15
3350.0 4 14 42 51 48 51 52 48 65 103
3390.0 128 145 167 209 266 358 504 723 1079 1640
3430.0 2514 3780 5226 6173 6285 5663 4494 3187 2199 1674
3470.0 1480 1432 1372 1251 1048 809 594 442 334 255
3510.0 203 171 145 118 101 88 74 53 46 46
3550.0 35 28 20 9 4 2 21 37 27 24
3590.0 30 28 29 29 33 42 49 62 57 37
3630.0 59 86 83 96 129 160 172 175 165 145
3670.0 122 85 56 60 49 44 43 19 14 13
3710.0 14 8 13 27 13 27 40 25 24 25
3750.0 31 39 34 38 35 35 52 53 49 45
3790.0 54 71 76 86 92 83 71 70 61 33
3830.0 15 35 55 44 51
##END=
