##TITLE=5-Amino-3-phenylpyrazole
##JCAMP-DX=4.24
##DATA TYPE=INFRARED SPECTRUM
##ORIGIN=EPA-IR VAPOR PHASE LIBRARY
##OWNER=SRD/NIST
Collection (C) 2018 copyright by the U.S. Secretary of Commerce
on behalf of the United States of America. All rights reserved.
##CAS REGISTRY NO=827-41-8
##MOLFORM=C 9 H 9 N 3
##$NIST SOURCE=MSDC-IR
##STATE=gas
##XUNITS=1/CM
##YUNITS=ABSORBANCE
##XFACTOR=1.
##YFACTOR=0.001
##DELTAX=1.92934
##FIRSTX=549.9
##LASTX=3999.5
##FIRSTY=3.688
##MAXX=3999.53
##MINX=549.863
##MAXY=0.028298
##MINY=0
##NPOINTS=1789
##XYDATA=(X++(Y..Y))
549.863 3.688 3.668 3.718 3.758 3.688 3.628 3.598 3.698 3.748 3.798
569.156 3.928 3.888 3.968 4.198 4.188 4.178 4.268 4.318 4.398 4.578
588.450 4.718 4.788 4.848 4.928 5.038 5.198 5.418 5.618 5.768 5.908
607.743 6.008 6.078 6.168 6.268 6.428 6.608 6.728 6.788 6.828 6.798
627.037 6.748 6.688 6.678 6.528 6.318 6.208 6.128 6.158 6.098 6.118
646.330 6.368 6.508 6.518 6.478 6.318 6.138 5.978 5.758 5.488 5.298
665.624 5.318 5.528 5.748 6.038 6.378 6.778 7.188 7.688 8.268 8.768
684.917 9.278 9.728 10.268 10.768 10.848 10.548 10.178 9.768 9.308 8.748
704.210 8.148 7.538 6.918 6.428 6.018 5.578 5.168 4.958 4.798 4.648
723.504 4.698 4.888 5.238 5.888 6.778 7.798 8.958 10.288 11.838 13.448
742.797 14.948 16.328 17.588 18.968 20.638 21.808 21.228 19.528 17.978 16.708
762.091 15.418 13.988 12.488 10.978 9.658 8.468 7.548 6.868 6.248 5.748
781.384 5.418 5.148 4.958 4.838 4.728 4.668 4.608 4.468 4.308 4.238
800.678 4.168 4.088 4.018 3.928 3.888 3.858 3.778 3.718 3.658 3.558
819.971 3.468 3.438 3.408 3.368 3.388 3.408 3.488 3.538 3.538 3.538
839.264 3.618 3.678 3.698 3.768 3.838 3.928 4.028 4.098 4.148 4.228
858.558 4.348 4.418 4.478 4.478 4.418 4.478 4.498 4.418 4.348 4.348
877.851 4.348 4.318 4.258 4.218 4.228 4.268 4.258 4.188 4.208 4.278
897.145 4.258 4.178 4.188 4.218 4.158 4.128 4.138 4.048 3.978 3.898
916.438 3.808 3.768 3.688 3.588 3.558 3.538 3.508 3.468 3.398 3.418
935.732 3.488 3.598 3.758 3.968 4.158 4.338 4.568 4.838 5.128 5.388
955.025 5.588 5.648 5.538 5.368 5.138 4.888 4.568 4.118 3.688 3.428
974.318 3.398 3.578 3.988 4.478 4.818 4.978 5.038 5.028 4.978 4.748
993.612 4.288 3.708 3.168 2.808 2.578 2.398 2.298 2.208 2.158 2.148
1012.905 2.148 2.198 2.308 2.438 2.558 2.728 2.898 2.968 2.948 2.878
1032.199 2.778 2.668 2.508 2.278 2.078 2.038 2.078 2.138 2.278 2.418
1051.492 2.588 2.778 2.988 3.188 3.298 3.388 3.448 3.458 3.478 3.468
1070.786 3.398 3.318 3.268 3.268 3.298 3.378 3.558 3.778 3.958 4.138
1090.079 4.308 4.458 4.588 4.598 4.528 4.438 4.278 4.048 3.728 3.418
1109.372 3.178 2.978 2.798 2.658 2.508 2.318 2.198 2.098 2.008 1.998
1128.666 1.988 1.848 1.758 1.698 1.608 1.618 1.568 1.518 1.538 1.578
1147.959 1.528 1.488 1.538 1.438 1.398 1.498 1.478 1.488 1.618 1.598
1167.253 1.548 1.608 1.698 1.718 1.708 1.748 1.638 1.538 1.478 1.3297
1186.546 1.3467 1.3113 1.2557 1.378 1.2463 1.1559 1.2228 1.2753 1.388 1.558
1205.840 1.568 1.578 1.628 1.498 1.1788 1.0281 0.9829 0.9177 1.078 1.1245
1225.133 1.1286 1.0141 0.9829 0.9881 0.9607 1.0822 1.0553 1.0615 1.0844 1.0866
1244.426 1.1786 1.2492 1.2782 1.1978 1.2697 1.3389 1.388 1.568 1.638 1.748
1263.720 1.958 2.078 2.138 2.208 2.188 2.228 2.348 2.388 2.488 2.648
1283.013 2.818 2.898 3.018 3.218 3.358 3.368 3.328 3.378 3.408 3.458
1302.307 3.448 3.278 3.078 2.898 2.698 2.428 2.098 1.818 1.598 1.458
1321.600 1.378 1.314 1.2702 1.1972 1.1488 1.1226 1.1015 1.0874 1.1037 1.1087
1340.894 1.0967 1.092 1.1131 1.1343 1.1109 1.1055 1.1315 1.1614 1.1684 1.1764
1360.187 1.2221 1.3103 1.388 1.398 1.408 1.468 1.528 1.598 1.708 1.858
1379.480 2.018 2.128 2.298 2.508 2.708 2.908 3.098 3.338 3.498 3.578
1398.774 3.588 3.458 3.328 3.228 3.058 2.898 2.788 2.708 2.678 2.678
1418.067 2.728 2.808 2.928 3.138 3.338 3.528 3.818 4.198 4.618 5.068
1437.361 5.578 6.078 6.468 6.758 7.068 7.358 7.608 7.848 8.098 8.388
1456.654 8.828 9.368 9.928 10.458 10.928 11.348 11.688 11.928 12.138 12.318
1475.948 12.428 12.418 12.388 12.388 12.428 12.648 13.048 13.688 14.668 16.098
1495.241 17.978 20.258 22.658 24.928 26.758 27.878 28.298 27.978 26.858 24.928
1514.534 22.408 19.488 16.468 13.778 11.408 9.478 7.878 6.618 5.738 5.148
1533.828 4.738 4.428 4.208 4.138 4.158 4.188 4.288 4.508 4.898 5.468
1553.121 6.138 6.998 8.158 9.608 11.218 12.898 14.608 16.188 17.548 18.558
1572.415 19.008 18.878 18.208 17.278 16.208 14.988 13.718 12.558 11.758 11.238
1591.708 10.988 10.888 10.858 11.068 11.558 12.298 13.238 14.298 15.388 16.468
1611.002 17.378 17.948 18.138 17.858 17.208 16.268 14.968 13.338 11.698 10.138
1630.295 8.698 7.468 6.428 5.538 4.778 4.198 3.798 3.438 3.108 2.858
1649.588 2.638 2.478 2.298 2.148 2.038 1.958 1.878 1.768 1.698 1.668
1668.882 1.578 1.458 1.448 1.468 1.438 1.348 1.3249 1.3039 1.2839 1.2896
1688.175 1.2322 1.2121 1.224 1.1775 1.1662 1.1911 1.1819 1.1981 1.219 1.1875
1707.469 1.1854 1.2362 1.2406 1.2327 1.26 1.2878 1.2777 1.2583 1.2638 1.2541
1726.762 1.2359 1.2186 1.2253 1.2017 1.1842 1.1338 1.0984 1.0948 1.0606 1.044
1746.056 1.026 1.0263 1.0089 0.9921 0.9818 0.9652 0.9382 0.8699 0.8403 0.8362
1765.349 0.8109 0.822 0.823 0.8085 0.8027 0.802 0.7991 0.8117 0.8231 0.8506
1784.642 0.8929 0.949 1.0107 1.0588 1.0632 1.0263 1.058 1.0759 1.0427 1.0094
1803.936 0.9425 0.8902 0.8687 0.8592 0.8721 0.8424 0.812 0.8234 0.8201 0.7594
1823.229 0.7064 0.7032 0.6973 0.6624 0.666 0.6637 0.6521 0.6538 0.6208 0.6378
1842.523 0.6323 0.6254 0.6846 0.7051 0.7093 0.7504 0.7799 0.8032 0.8022 0.7947
1861.816 0.8081 0.8245 0.8332 0.8641 0.8915 0.8951 0.9081 0.9037 0.9177 0.9616
1881.110 0.9789 0.9945 0.991 0.9408 0.9322 0.9111 0.83 0.7856 0.7493 0.7161
1900.403 0.6995 0.6579 0.6405 0.6546 0.6397 0.6197 0.6499 0.6636 0.6875 0.7173
1919.696 0.6884 0.7087 0.783 0.8166 0.8436 0.9034 0.9365 0.9525 0.9795 0.9817
1938.990 0.9906 0.984 0.9756 0.9792 0.9854 0.9961 1.0123 1.0448 1.0371 1.0127
1958.283 0.9855 0.9655 0.8797 0.7812 0.713 0.6389 0.6213 0.6022 0.5463 0.5121
1977.577 0.4906 0.4809 0.474 0.4675 0.4748 0.4854 0.4832 0.472 0.4829 0.4989
1996.870 0.4756 0.43633 0.451 0.4705 0.468 0.4637 0.4446 0.43772 0.4503 0.4576
2016.164 0.4684 0.4621 0.4636 0.4714 0.4864 0.5113 0.5116 0.4864 0.4602 0.4678
2035.457 0.4679 0.4596 0.4648 0.478 0.486 0.471 0.467 0.468 0.4742 0.4981
2054.750 0.5035 0.4868 0.487 0.4995 0.5038 0.5054 0.4681 0.468 0.5004 0.4802
2074.044 0.4481 0.44758 0.4702 0.46 0.4646 0.4619 0.42919 0.4613 0.473 0.43263
2093.337 0.43832 0.457 0.4702 0.4858 0.4727 0.4584 0.4584 0.4602 0.4737 0.4724
2112.631 0.4692 0.4787 0.502 0.5148 0.5 0.5071 0.5193 0.5188 0.5208 0.5189
2131.924 0.5232 0.5404 0.5558 0.511 0.4857 0.4958 0.5092 0.5364 0.5234 0.518
2151.218 0.4987 0.4936 0.5055 0.4822 0.4816 0.4717 0.4486 0.4523 0.468 0.4608
2170.511 0.43838 0.43244 0.4209 0.41835 0.41214 0.41685 0.4658 0.4844 0.4869 0.4672
2189.804 0.4654 0.486 0.4771 0.5054 0.5054 0.4434 0.42312 0.4618 0.4561 0.44374
2209.098 0.4579 0.4681 0.4902 0.478 0.4669 0.4772 0.43295 0.42276 0.4568 0.4736
2228.391 0.4758 0.4666 0.4721 0.4871 0.5056 0.5049 0.476 0.457 0.4546 0.4585
2247.685 0.494 0.5229 0.49 0.4772 0.5108 0.5025 0.4932 0.5018 0.5208 0.5225
2266.978 0.492 0.4952 0.5114 0.4972 0.4831 0.4934 0.5196 0.5079 0.4691 0.4749
2286.272 0.475 0.4639 0.4714 0.4671 0.47 0.4513 0.44189 0.4628 0.4643 0.4917
2305.565 0.4905 0.4999 0.5207 0.4957 0.5232 0.5392 0.5312 0.5522 0.53 0.5134
2324.858 0.505 0.5049 0.5097 0.4954 0.5089 0.5011 0.5001 0.5164 0.485 0.4587
2344.152 0.4736 0.5026 0.4979 0.4742 0.4713 0.4758 0.4705 0.4584 0.44746 0.43941
2363.445 0.4583 0.44699 0.44308 0.43695 0.41554 0.40684 0.40216 0.39988 0.37417 0.37912
2382.739 0.38202 0.351061 0.349753 0.34915 0.34026 0.3135 0.3275 0.36274 0.34389 0.335
2402.032 0.3044 0.2568 0.2752 0.3108 0.2801 0.2693 0.2934 0.2886 0.2993 0.3081
2421.326 0.2767 0.2822 0.2939 0.244 0.227 0.2594 0.2702 0.2813 0.266 0.2682
2440.619 0.2909 0.2482 0.2542 0.3004 0.3026 0.3115 0.2959 0.2957 0.3064 0.2931
2459.912 0.3182 0.2852 0.2601 0.3274 0.3428 0.3149 0.3151 0.3252 0.3153 0.2811
2479.206 0.2841 0.3189 0.3162 0.2956 0.3113 0.34024 0.34296 0.33961 0.3063 0.2751
2498.499 0.2964 0.2842 0.2779 0.2717 0.2755 0.2964 0.2776 0.238 0.248 0.3045
2517.793 0.3204 0.3077 0.2926 0.2939 0.2738 0.2753 0.3073 0.2994 0.2927 0.2969
2537.086 0.2649 0.2571 0.2756 0.2949 0.2945 0.3102 0.3177 0.2724 0.2521 0.2868
2556.380 0.2913 0.2999 0.3179 0.2955 0.311 0.3346 0.353425 0.3369 0.3016 0.2979
2575.673 0.2988 0.2873 0.2995 0.3169 0.3052 0.3209 0.3236 0.3208 0.3213 0.3095
2594.966 0.349211 0.347927 0.3246 0.3142 0.3147 0.3225 0.3223 0.3323 0.3025 0.295
2614.260 0.321 0.3088 0.3095 0.3335 0.3105 0.2891 0.3011 0.3343 0.3286 0.2966
2633.553 0.3053 0.34504 0.3234 0.2967 0.312 0.2679 0.2739 0.2855 0.2745 0.3037
2652.847 0.3146 0.2831 0.2518 0.2484 0.2844 0.2965 0.228 0.237 0.2802 0.2969
2672.140 0.33 0.2968 0.275 0.2722 0.242 0.2798 0.299 0.304 0.2973 0.229
2691.434 0.209 0.217 0.2666 0.2983 0.2633 0.233 0.206 0.226 0.2504 0.2507
2710.727 0.2773 0.3049 0.2932 0.2729 0.2569 0.278 0.2695 0.225 0.222 0.2846
2730.020 0.2599 0.192 0.21 0.192 0.206 0.212 0.207 0.225 0.203 0.209
2749.314 0.203 0.186 0.239 0.242 0.2486 0.2542 0.194 0.181 0.22 0.219
2768.607 0.213 0.208 0.226 0.2517 0.219 0.208 0.238 0.234 0.222 0.248
2787.901 0.2599 0.212 0.142 0.161 0.155 0.151 0.151 0.126 0.154 0.205
2807.194 0.24 0.224 0.183 0.141 0.14 0.14 0.155 0.222 0.163 0.083
2826.488 0.149 0.122 0.069 0.09 0.091 0.09 0.122 0.163 0.081 0
2845.781 0.051 0.144 0.109 0.04 0.083 0.133 0.152 0.214 0.2633 0.2777
2865.074 0.2936 0.2798 0.221 0.145 0.19 0.2613 0.3079 0.3292 0.231 0.207
2884.368 0.2711 0.18 0.158 0.2697 0.2638 0.204 0.227 0.222 0.165 0.16
2903.661 0.13 0.125 0.169 0.205 0.19 0.137 0.128 0.163 0.183 0.139
2922.955 0.08 0.171 0.2731 0.2519 0.244 0.3092 0.3205 0.2663 0.184 0.131
2942.248 0.155 0.159 0.167 0.2482 0.2876 0.246 0.2651 0.2797 0.228 0.219
2961.542 0.197 0.192 0.23 0.234 0.235 0.154 0.118 0.141 0.174 0.21
2980.835 0.188 0.15 0.199 0.2523 0.257 0.2616 0.2802 0.2763 0.3046 0.4135
3000.128 0.4662 0.5474 0.6805 0.7045 0.6884 0.7365 0.8386 0.9791 1.2001 1.388
3019.422 1.568 1.818 1.978 2.218 2.428 2.658 2.948 3.028 3.078 3.188
3038.715 3.288 3.448 3.578 3.668 3.708 3.718 3.798 3.938 4.168 4.328
3058.009 4.488 4.838 5.368 5.988 6.408 6.638 6.898 7.108 7.058 6.798
3077.302 6.548 6.178 5.668 5.118 4.728 4.288 3.788 3.528 3.278 2.958
3096.596 2.748 2.558 2.238 1.948 1.708 1.538 1.428 1.2967 1.1616 1.0822
3115.889 1.0286 0.9464 0.9716 0.8736 0.6654 0.5874 0.6094 0.5474 0.43503 0.36805
3135.182 0.336 0.36034 0.312 0.2693 0.2954 0.38587 0.357272 0.3094 0.3168 0.236
3154.476 0.192 0.207 0.241 0.183 0.193 0.2519 0.205 0.166 0.168 0.16
3173.769 0.054 0.122 0.16 0.128 0.185 0.209 0.205 0.192 0.11 0.007
3193.063 0.095 0.146 0.128 0.157 0.162 0.134 0.121 0.109 0.096 0.142
3212.356 0.104 0.099 0.242 0.189 0.14 0.199 0.2763 0.3233 0.165 0.128
3231.650 0.173 0.1 0.04 0.102 0.22 0.2626 0.189 0.15 0.175 0.224
3250.943 0.3248 0.232 0.219 0.3208 0.2854 0.2911 0.3319 0.3188 0.22 0.224
3270.236 0.219 0.158 0.33935 0.37273 0.241 0.179 0.225 0.2487 0.22 0.18
3289.530 0.127 0.2622 0.3154 0.2884 0.348843 0.306 0.2587 0.2926 0.216 0.196
3308.823 0.216 0.222 0.3198 0.3085 0.226 0.181 0.123 0.102 0.153 0.3134
3328.117 0.34056 0.242 0.212 0.263 0.2964 0.2846 0.192 0.142 0.3246 0.37059
3347.410 0.40448 0.42677 0.212 0.203 0.242 0.2504 0.3016 0.36869 0.453 0.4828
3366.704 0.5892 0.5018 0.44421 0.5614 0.713 0.7696 0.9247 1.2121 1.3146 1.528
3385.997 1.728 1.958 2.418 2.648 2.718 2.748 2.728 2.658 2.568 2.448
3405.290 2.118 1.728 1.388 1.1716 0.9749 0.9023 0.9591 0.8903 0.8684 0.9507
3424.584 0.942 0.8953 0.8498 0.8158 0.8741 0.8621 0.7823 0.8093 0.9507 1.0887
3443.877 1.1415 1.073 1.0462 1.1417 1.2082 1.3146 1.608 1.848 1.828 1.908
3463.171 2.228 2.418 2.558 2.908 3.388 3.778 4.208 4.608 4.888 5.318
3482.464 5.848 6.358 6.798 7.238 7.828 8.398 8.958 9.578 10.158 10.708
3501.758 11.128 11.308 11.288 11.048 10.708 10.178 9.498 8.818 8.048 7.218
3521.051 6.408 5.698 5.008 4.328 3.738 3.218 2.818 2.438 2.088 1.848
3540.344 1.698 1.508 1.2685 1.0906 1.0874 1.0377 0.9275 0.8642 0.8054 0.7759
3559.638 0.752 0.7344 0.6245 0.6057 0.7075 0.7001 0.6229 0.5654 0.5184 0.5042
3578.931 0.5089 0.468 0.39765 0.41562 0.40941 0.34311 0.43136 0.497 0.42713 0.38419
3598.225 0.37752 0.42087 0.4926 0.43779 0.40969 0.3258 0.2715 0.3181 0.3261 0.3958
3617.518 0.43022 0.38098 0.37601 0.37416 0.33 0.40516 0.3961 0.328 0.40844 0.40646
3636.812 0.2713 0.2689 0.357033 0.34343 0.232 0.2936 0.4114 0.353063 0.38006 0.38941
3656.105 0.3262 0.2795 0.3253 0.41904 0.349534 0.3123 0.3247 0.3366 0.36092 0.40427
3675.398 0.3181 0.241 0.3268 0.2812 0.231 0.235 0.2773 0.3696 0.40156 0.3362
3694.692 0.2943 0.34622 0.3722 0.3064 0.2925 0.3133 0.2551 0.2551 0.39271 0.453
3713.985 0.2826 0.195 0.271 0.328 0.35913 0.3849 0.41435 0.34559 0.301 0.348084
3733.279 0.41255 0.37639 0.2 0.152 0.2907 0.3138 0.282 0.2736 0.235 0.275
3752.572 0.3332 0.3329 0.2868 0.3173 0.2554 0.269 0.35843 0.308 0.3082 0.3317
3771.866 0.349058 0.37295 0.356813 0.2586 0.21 0.2642 0.243 0.187 0.221 0.2534
3791.159 0.2912 0.3225 0.2567 0.221 0.2509 0.2862 0.2633 0.214 0.2 0.176
3810.452 0.24 0.2492 0.205 0.183 0.261 0.238 0.165 0.244 0.199 0.181
3829.746 0.206 0.205 0.191 0.161 0.171 0.244 0.3082 0.2781 0.239 0.2705
3849.039 0.2701 0.3219 0.4177 0.42601 0.2933 0.237 0.232 0.228 0.3331 0.40076
3868.333 0.40967 0.3039 0.216 0.2528 0.281 0.2811 0.2533 0.23 0.2491 0.2572
3887.626 0.222 0.151 0.16 0.223 0.3048 0.308 0.2673 0.233 0.1 0.172
3906.920 0.3225 0.3212 0.3072 0.2616 0.2756 0.34239 0.353277 0.3367 0.2694 0.226
3926.213 0.2563 0.3345 0.352216 0.3183 0.3163 0.2891 0.34566 0.351853 0.3136 0.2651
3945.506 0.24 0.2905 0.3239 0.3183 0.3159 0.38456 0.38393 0.37453 0.3096 0.2673
3964.800 0.2969 0.232 0.208 0.18 0.256 0.37826 0.3106 0.237 0.2748 0.34382
3984.093 0.39108 0.356959 0.3065 0.3366 0.36757 0.43516 0.4522 0.347718 0.2995
##END=
