##TITLE=.alpha.-(Dimethylamino)phenylacetonitrile
##JCAMP-DX=4.24
##DATA TYPE=INFRARED SPECTRUM
##ORIGIN=EPA-IR VAPOR PHASE LIBRARY
##OWNER=SRD/NIST
Collection (C) 2018 copyright by the U.S. Secretary of Commerce
on behalf of the United States of America. All rights reserved.
##CAS REGISTRY NO=827-36-1
##MOLFORM=C 10 H 12 N 2
##$NIST SOURCE=MSDC-IR
##STATE=gas
##XUNITS=1/CM
##YUNITS=ABSORBANCE
##XFACTOR=1.
##YFACTOR=0.001
##DELTAX=1.92898
##FIRSTX=549.8
##LASTX=4000.7
##FIRSTY=0.5072
##MAXX=4000.7
##MINX=549.759
##MAXY=0.023612
##MINY=0
##NPOINTS=1790
##XYDATA=(X++(Y..Y))
549.759 0.5072 0.4422 0.8526 0.7804 0.7422 0.5049 0.01 0.223 0.203 0
569.049 0.323 0.4311 0.4503 0.286 0.383 0.9013 1.031 0.9522 0.8031 0.9979
588.339 1.2154 1.2539 1.4546 1.662 1.652 1.752 2.182 2.272 2.282 2.202
607.628 1.772 1.4088 1.3109 1.364 1.123 0.8351 0.78 0.8062 0.7849 0.7365
626.918 0.8938 0.9303 0.8999 1.0023 1.2158 1.3869 1.2403 1.4363 2.032 2.262
646.208 2.352 2.462 2.542 2.672 2.582 2.562 2.742 2.662 2.412 2.372
665.498 2.602 2.932 3.112 3.262 3.602 4.062 4.592 5.102 6.022 7.392
684.787 8.772 9.982 11.452 13.092 14.582 15.972 16.232 15.892 15.322 14.392
704.077 13.302 11.732 10.482 9.702 10.242 10.782 9.662 8.612 8.762 9.502
723.367 10.472 12.182 14.002 15.542 17.322 19.112 20.052 19.482 17.872 16.212
742.657 14.652 13.112 11.702 10.132 8.482 7.322 6.362 5.572 4.922 4.282
761.947 3.932 3.812 3.502 3.232 3.072 2.742 2.582 2.412 2.302 2.062
781.236 1.692 1.752 1.742 1.612 1.582 1.391 1.2458 1.3374 1.4253 1.2606
800.526 1.1808 1.3944 1.4554 1.3375 1.4519 1.662 1.702 1.732 1.922 2.252
819.816 2.392 2.652 2.962 3.272 3.652 3.842 4.212 4.322 4.082 4.072
839.106 4.012 3.892 3.832 3.852 4.052 4.162 4.112 4.312 4.562 4.622
858.395 4.472 4.192 3.922 3.552 3.022 2.772 2.712 2.412 2.042 1.842
877.685 1.922 1.872 1.912 1.912 1.692 1.852 2.012 2.112 2.432 2.842
896.975 3.432 3.852 4.072 4.782 5.502 6.352 7.182 7.932 8.672 9.022
916.265 9.502 9.662 9.362 8.972 8.332 7.482 6.672 5.802 4.832 4.002
935.555 3.442 3.082 2.872 2.612 2.632 2.682 2.532 2.432 2.472 2.392
954.844 2.242 2.212 2.262 2.082 2.062 2.292 2.162 1.942 1.732 1.792
974.134 1.962 1.902 1.862 1.922 2.172 2.322 2.352 2.602 2.832 2.892
993.424 2.942 3.072 3.402 3.852 4.282 4.832 5.502 6.342 7.292 8.452
1012.714 9.912 11.822 13.942 16.482 19.172 20.952 22.242 23.132 23.612 23.542
1032.003 22.842 21.882 20.182 18.182 17.002 16.002 14.742 13.542 12.252 11.052
1051.293 10.102 9.012 7.812 7.022 6.032 5.392 5.222 4.292 3.732 3.782
1070.583 3.532 3.282 2.972 2.632 2.462 2.462 2.132 2.372 2.762 2.472
1089.873 2.852 2.922 2.502 2.492 2.932 2.992 2.882 2.942 2.562 2.202
1109.163 2.052 2.352 2.492 2.022 1.912 2.302 2.082 1.712 1.912 1.822
1128.452 1.732 2.122 2.362 2.172 2.202 2.352 1.972 2.122 2.622 3.182
1147.742 3.412 3.402 4.212 4.442 4.472 4.892 5.292 5.762 6.092 6.352
1167.032 6.592 6.382 6.362 6.682 6.922 6.862 6.622 6.522 6.272 5.612
1186.322 5.312 5.252 4.962 4.692 4.332 3.922 3.442 3.312 2.892 2.462
1205.611 2.022 1.942 2.142 1.562 0.751 0.939 1.1173 0.7721 1.1401 1.1925
1224.901 0.878 1.0656 1.0628 1.3142 1.792 1.872 2.172 2.372 2.632 3.062
1244.191 3.252 3.612 4.252 4.632 5.212 5.952 6.392 7.082 7.612 8.022
1263.481 8.752 9.532 9.912 10.132 10.092 9.712 9.452 9.102 8.482 7.742
1282.771 6.862 6.042 5.472 5.082 4.832 4.642 4.542 4.502 4.462 4.442
1302.060 4.292 4.042 3.942 3.922 3.902 3.892 3.942 4.132 4.362 4.592
1321.350 4.992 5.432 5.742 6.022 6.222 6.262 6.182 5.942 5.532 5.072
1340.640 4.612 4.112 3.682 3.382 3.052 2.732 2.482 2.252 2.092 1.982
1359.930 1.962 1.912 1.842 1.802 1.802 1.862 1.862 1.852 1.892 1.912
1379.219 1.952 1.972 1.912 1.812 1.752 1.762 1.722 1.702 1.672 1.642
1398.509 1.642 1.582 1.662 1.812 1.932 2.022 2.092 2.222 2.272 2.262
1417.799 2.282 2.302 2.432 2.612 2.762 2.922 3.242 3.662 4.192 4.922
1437.089 5.912 6.992 8.132 9.402 10.642 11.672 12.402 12.842 13.032 13.172
1456.378 13.262 13.072 12.552 11.922 11.222 10.622 10.252 9.782 9.202 8.702
1475.668 8.312 7.912 7.602 7.402 7.362 7.502 7.722 7.942 8.162 8.202
1494.958 8.012 7.692 7.172 6.622 5.912 4.862 3.772 3.002 2.522 2.182
1514.248 1.882 1.702 1.672 1.562 1.4785 1.4868 1.4883 1.4936 1.4592 1.3572
1533.538 1.3294 1.3549 1.3086 1.1984 1.1575 1.2297 1.2383 1.1932 1.102 1.054
1552.827 1.1146 1.1289 1.0711 1.0216 1.0866 1.1877 1.2705 1.2932 1.3177 1.356
1572.117 1.3986 1.4957 1.592 1.672 1.792 1.892 1.952 2.012 2.092 2.132
1591.407 2.202 2.302 2.412 2.492 2.472 2.452 2.422 2.412 2.382 2.182
1610.697 1.952 1.782 1.722 1.662 1.612 1.542 1.4863 1.4724 1.4015 1.2766
1629.986 1.2149 1.1835 1.15 1.2238 1.2778 1.2843 1.3067 1.3256 1.278 1.3251
1649.276 1.4509 1.4499 1.407 1.4227 1.5127 1.572 1.5184 1.4005 1.3517 1.3875
1668.566 1.2918 1.226 1.2105 1.1126 1.1024 1.1778 1.0933 0.9933 1.0857 1.1048
1687.856 0.9919 1.0007 1.0712 1.0677 1.0586 1.0813 1.0073 1.0812 1.2655 1.312
1707.146 1.3255 1.3695 1.522 1.642 1.712 1.742 1.702 1.792 1.792 1.702
1726.435 1.732 1.692 1.672 1.632 1.4748 1.3719 1.2642 1.201 1.2451 1.3449
1745.725 1.3778 1.2453 1.1815 1.2538 1.3265 1.2714 1.2357 1.262 1.2722 1.2735
1765.015 1.2383 1.2097 1.195 1.1619 1.0595 1.0145 1.0014 1.0558 1.1058 1.108
1784.305 1.093 1.1253 1.2048 1.2178 1.3539 1.552 1.672 1.812 1.872 1.862
1803.594 1.922 1.892 1.812 1.662 1.562 1.532 1.4212 1.2605 1.1403 1.0826
1822.884 0.9446 0.8781 0.932 0.8622 0.8169 0.8805 0.8975 0.917 0.8642 0.8256
1842.174 0.8435 0.9179 0.9626 0.8873 0.9212 0.9828 0.9477 0.9225 0.9575 1.0337
1861.464 1.0836 1.1065 1.133 1.1898 1.2496 1.3142 1.3311 1.3818 1.4375 1.4953
1880.754 1.552 1.532 1.532 1.522 1.602 1.642 1.572 1.5204 1.5189 1.542
1900.043 1.532 1.4102 1.3297 1.2757 1.1295 1.0132 0.9809 0.9869 0.9349 0.897
1919.333 0.9011 0.8633 0.8332 0.8914 0.8685 0.9245 1.0413 1.0391 1.1025 1.2347
1938.623 1.3343 1.4177 1.5188 1.582 1.622 1.652 1.612 1.602 1.672 1.672
1957.913 1.572 1.4238 1.3448 1.3425 1.3003 1.2603 1.1718 1.0684 1.0177 0.873
1977.202 0.8091 0.802 0.7268 0.7246 0.7467 0.7719 0.7587 0.7097 0.7058 0.7565
1996.492 0.8169 0.83 0.8029 0.7908 0.762 0.7442 0.7109 0.6972 0.7304 0.6865
2015.782 0.6685 0.6983 0.7237 0.7589 0.7409 0.7332 0.7138 0.7146 0.718 0.6869
2035.072 0.6468 0.59799 0.6695 0.72 0.7283 0.7626 0.7442 0.7277 0.7106 0.686
2054.362 0.7791 0.8214 0.7645 0.681 0.6387 0.7253 0.7735 0.794 0.8028 0.7016
2073.651 0.6759 0.745 0.8239 0.7914 0.7471 0.7878 0.824 0.8747 0.8448 0.7851
2092.941 0.8012 0.8447 0.8013 0.7668 0.7668 0.7885 0.8475 0.8177 0.7994 0.8244
2112.231 0.7862 0.6864 0.6763 0.7585 0.6783 0.59743 0.6913 0.7663 0.7091 0.738
2131.521 0.7172 0.6295 0.6455 0.6419 0.6742 0.6912 0.60398 0.59525 0.6654 0.7047
2150.810 0.6321 0.61415 0.6969 0.6419 0.6775 0.7491 0.7264 0.7028 0.6569 0.6629
2170.100 0.6845 0.7193 0.7458 0.8255 0.8139 0.7276 0.7514 0.8082 0.8171 0.7668
2189.390 0.8277 0.8055 0.7933 0.8028 0.7474 0.7612 0.675 0.6326 0.7559 0.7895
2208.680 0.7591 0.7826 0.772 0.6959 0.6905 0.6989 0.7219 0.7319 0.6696 0.6797
2227.970 0.7014 0.6951 0.7003 0.7862 0.7813 0.6691 0.6615 0.6937 0.702 0.7095
2247.259 0.6938 0.671 0.6406 0.6642 0.7307 0.7176 0.6965 0.736 0.7711 0.7724
2266.549 0.7223 0.6774 0.7718 0.7911 0.8106 0.8061 0.7341 0.7005 0.7216 0.7804
2285.839 0.7863 0.7564 0.693 0.742 0.8107 0.8259 0.7812 0.6783 0.7004 0.7843
2305.129 0.7787 0.7434 0.7461 0.7945 0.801 0.7789 0.8583 0.8738 0.7669 0.7801
2324.418 0.8112 0.8274 0.8485 0.8843 0.885 0.7864 0.7456 0.7726 0.7768 0.7858
2343.708 0.7666 0.7538 0.8227 0.818 0.9061 0.9457 0.7947 0.7751 0.8455 0.8263
2362.998 0.7669 0.725 0.747 0.8091 0.7945 0.7092 0.6958 0.7219 0.8111 0.8505
2382.288 0.7752 0.7886 0.8646 0.8885 0.7921 0.7055 0.7625 0.7425 0.6409 0.61639
2401.578 0.6425 0.6432 0.6475 0.7661 0.8061 0.725 0.7291 0.7775 0.8361 0.8259
2420.867 0.7238 0.7171 0.7514 0.7677 0.7198 0.7185 0.6632 0.624 0.7352 0.7163
2440.157 0.7025 0.7377 0.7176 0.7501 0.746 0.7255 0.7061 0.6479 0.6794 0.7615
2459.447 0.7642 0.7698 0.6952 0.62024 0.7165 0.7045 0.691 0.7592 0.6971 0.6754
2478.737 0.752 0.779 0.7482 0.7386 0.7263 0.777 0.8738 0.9001 0.8677 0.8135
2498.026 0.8215 0.7821 0.8684 1.0285 0.9406 0.9626 0.9995 0.9468 1 0.9911
2517.316 0.864 0.9038 0.9565 0.8976 0.9127 0.881 0.8988 0.9192 0.8392 0.7848
2536.606 0.8371 0.9154 0.9322 0.9501 0.9721 0.8855 0.7969 0.8068 0.8404 0.8101
2555.896 0.8518 0.8936 0.9293 0.943 0.8945 0.9299 0.9529 0.9856 1.0228 1.0211
2575.186 1.0076 1.0084 1.0101 1.0528 1.0374 0.9658 0.9554 0.9962 1.0073 0.9837
2594.475 0.9685 1.0073 1.0286 0.9675 0.9664 0.9693 0.9321 0.9705 1.0335 0.9961
2613.765 1.1021 1.115 0.9736 1.0624 1.1077 1.0553 1.0611 1.0693 1.0476 1.1224
2633.055 1.0671 0.9915 1.0402 1.1024 1.1439 1.0603 0.9856 0.9692 1.0241 1.0665
2652.345 1.0606 1.0054 1.0403 1.12 1.1652 1.2034 1.1293 0.9961 0.9772 1.0044
2671.634 1.0496 1.1013 1.0327 1.0205 1.0843 1.1717 1.178 1.1934 1.1622 1.0709
2690.924 1.1059 1.1113 1.0978 1.1009 1.2534 1.367 1.4174 1.4376 1.4733 1.642
2710.214 1.662 1.622 1.732 1.752 1.722 1.902 1.962 1.932 1.992 2.072
2729.504 2.122 2.202 2.232 2.152 2.142 2.182 2.232 2.342 2.352 2.272
2748.794 2.292 2.442 2.592 2.682 2.842 2.972 3.092 3.272 3.602 3.882
2768.083 4.212 4.522 4.972 5.582 6.352 7.392 8.352 9.332 10.432 11.702
2787.373 13.132 14.432 15.702 16.862 17.892 18.662 18.952 18.812 18.192 17.142
2806.663 15.702 14.142 12.492 11.052 9.782 8.702 7.912 7.342 7.022 6.992
2825.953 7.352 7.902 8.702 9.652 10.742 11.902 12.852 13.572 13.942 14.012
2845.242 13.862 13.482 12.632 11.592 10.712 9.832 9.302 9.022 8.942 9.132
2864.532 9.402 9.802 10.242 10.692 11.172 11.642 12.032 12.232 12.222 12.032
2883.822 11.692 11.332 11.072 10.792 10.432 10.132 9.942 9.912 9.902 9.912
2903.112 9.912 9.992 10.192 10.182 10.052 9.882 9.602 9.252 8.892 8.572
2922.401 8.372 8.112 7.962 7.962 7.962 8.142 8.572 9.162 9.822 10.772
2941.691 11.892 13.212 14.682 16.072 17.422 18.592 19.492 19.952 19.942 19.682
2960.981 19.122 18.472 17.752 16.832 16.002 15.352 14.902 14.712 14.792 15.012
2980.271 15.182 15.512 15.872 15.972 15.792 15.292 14.682 13.802 12.602 11.402
2999.561 10.212 8.862 7.442 6.152 5.122 4.412 3.902 3.682 3.752 3.862
3018.850 3.892 4.142 4.552 4.932 5.452 5.892 6.262 6.772 7.352 7.762
3038.140 7.932 7.932 7.732 7.512 7.282 7.112 6.882 6.442 6.322 6.502
3057.430 6.822 7.292 8.012 9.082 10.102 11.152 12.122 12.512 12.592 12.492
3076.720 12.242 11.792 10.922 9.852 8.882 8.012 7.242 6.712 6.212 5.842
3096.009 5.632 5.262 4.872 4.502 4.132 3.742 3.372 3.232 3.132 2.862
3115.299 2.632 2.472 2.342 2.082 1.872 1.722 1.572 1.572 1.423 1.2862
3134.589 1.2876 1.2133 1.264 1.3347 1.2811 1.187 1.1792 1.273 1.1231 0.9586
3153.879 1.0816 1.1783 1.0362 1.0128 1.0958 1.015 1.0424 1.1706 1.2977 1.2622
3173.169 1.1283 1.0659 1.0614 1.0008 0.9774 1.0539 1.0609 1.1096 1.1132 0.9998
3192.458 0.9697 1.1197 1.1417 1.0943 1.2156 1.0895 1.0414 1.1761 0.9995 0.8869
3211.748 0.9707 0.9599 1.0008 1.0797 0.9574 0.8261 0.9004 0.832 0.7286 0.8764
3231.038 0.9222 0.8984 0.8938 0.9285 0.9885 1.0566 1.0028 0.9561 1.0343 1.0572
3250.328 0.9961 0.8395 0.8079 0.9084 1.0515 0.9909 0.885 0.8809 0.8823 0.9734
3269.617 0.9034 0.8 0.8876 0.9735 1.1213 1.1248 0.9058 0.9188 0.9966 1.0291
3288.907 0.9975 0.9048 0.9236 0.7857 0.6516 0.7525 0.758 0.7445 0.7966 0.7679
3308.197 0.7669 0.6846 0.5252 0.698 0.9457 0.9069 0.8363 0.764 0.7852 0.9582
3327.487 1.0091 0.9803 1.0139 0.9839 1.0122 0.9859 0.9814 1.0736 1.0435 0.9682
3346.777 0.8883 0.9243 1.0067 1.019 0.9691 0.8866 0.7916 0.7455 0.7917 0.8641
3366.066 0.8348 0.6887 0.6574 0.6637 0.527122 0.51484 0.61356 0.7275 0.7713 0.7259
3385.356 0.6591 0.499 0.4911 0.59632 0.61492 0.56636 0.60539 0.61046 0.58925 0.7428
3404.646 0.691 0.6452 0.682 0.61026 0.58857 0.60641 0.56382 0.60272 0.6236 0.55516
3423.936 0.55197 0.528745 0.60758 0.54528 0.4703 0.54218 0.51992 0.4471 0.417 0.418
3443.225 0.4874 0.6325 0.658 0.6564 0.54557 0.347 0.4632 0.4953 0.286 0.51934
3462.515 0.8596 0.7103 0.51665 0.4782 0.5082 0.6909 0.62028 0.4925 0.4936 0.4504
3481.805 0.419 0.4972 0.689 0.58411 0.371 0.58736 0.6628 0.4744 0.4831 0.54134
3501.095 0.6692 0.442 0.218 0.399 0.530387 0.4342 0.4745 0.4641 0.4629 0.6448
3520.385 0.54401 0.4477 0.523524 0.5098 0.54394 0.6386 0.54196 0.4593 0.528245 0.51609
3539.674 0.4973 0.6863 0.55487 0.266 0.231 0.316 0.394 0.4513 0.5148 0.525334
3558.964 0.416 0.4718 0.54649 0.327 0.378 0.5526 0.4579 0.5012 0.5046 0.351
3578.254 0.53205 0.54882 0.4475 0.399 0.164 0.245 0.6262 0.61722 0.4582 0.531164
3597.544 0.4595 0.37 0.4388 0.55366 0.6892 0.491 0.3 0.527136 0.54654 0.4971
3616.833 0.58108 0.4997 0.4814 0.56376 0.68 0.6607 0.56434 0.57257 0.4381 0.323
3636.123 0.275 0.373 0.57745 0.58976 0.525557 0.42 0.4427 0.55844 0.6288 0.8068
3655.413 0.7976 0.51987 0.358 0.4439 0.47 0.4617 0.4619 0.395 0.298 0.382
3674.703 0.6305 0.6637 0.6482 0.7637 0.7553 0.60775 0.55767 0.4579 0.525531 0.7049
3693.993 0.6597 0.61473 0.56709 0.5921 0.6367 0.62044 0.6352 0.55101 0.55745 0.60015
3713.282 0.57653 0.54312 0.6329 0.7713 0.6878 0.61372 0.58996 0.57137 0.61943 0.59025
3732.572 0.527838 0.6884 0.7471 0.7109 0.7011 0.522901 0.276 0.239 0.323 0.274
3751.862 0.262 0.372 0.4425 0.343 0.195 0.156 0.253 0.332 0.387 0.36
3771.152 0.324 0.391 0.321 0.325 0.408 0.409 0.4446 0.5023 0.49 0.34
3790.441 0.4454 0.6683 0.8173 0.61854 0.4261 0.4883 0.4807 0.57189 0.4227 0.365
3809.731 0.4998 0.523772 0.6594 0.819 0.61236 0.4416 0.4262 0.419 0.54075 0.6282
3829.021 0.7019 0.51963 0.378 0.54014 0.5078 0.5087 0.4786 0.329 0.4896 0.55137
3848.311 0.4498 0.396 0.4687 0.6672 0.54456 0.4781 0.53804 0.55905 0.59664 0.6025
3867.601 0.6357 0.59758 0.54891 0.6971 0.8308 0.7541 0.5008 0.28 0.431 0.6176
3886.890 0.6268 0.5803 0.527642 0.5019 0.525803 0.523723 0.418 0.385 0.4618 0.4688
3906.180 0.53842 0.57178 0.5113 0.55158 0.53424 0.6475 0.7902 0.8474 0.6295 0.329
3925.470 0.527868 0.7508 0.8782 0.9385 0.8012 0.7269 0.8466 0.9329 0.8951 0.8665
3944.760 0.6511 0.375 0.53211 0.6591 0.59577 0.6442 0.62132 0.5443 0.5057 0.4973
3964.049 0.5496 0.55779 0.4822 0.60536 0.7101 0.6253 0.59299 0.55819 0.7189 0.8223
3983.339 0.6614 0.60212 0.57813 0.6692 0.7055 0.7388 0.7514 0.57412 0.56003 0.59517
##END=
