##TITLE=4-(Trifluoromethoxy)phenol
##JCAMP-DX=4.24
##DATA TYPE=INFRARED SPECTRUM
##ORIGIN=EPA-IR VAPOR PHASE LIBRARY
##OWNER=SRD/NIST
Collection (C) 2018 copyright by the U.S. Secretary of Commerce
on behalf of the United States of America. All rights reserved.
##CAS REGISTRY NO=828-27-3
##MOLFORM=C 7 H 5 F 3 O 2
##$NIST SOURCE=MSDC-IR
##STATE=gas
##XUNITS=1/CM
##YUNITS=ABSORBANCE
##XFACTOR=1.
##YFACTOR=0.001
##DELTAX=1.92898
##FIRSTX=549.8
##LASTX=4000.7
##FIRSTY=4.077
##MAXX=4000.7
##MINX=549.759
##MAXY=0.378977
##MINY=0
##NPOINTS=1790
##XYDATA=(X++(Y..Y))
549.759 4.077 3.457 3.407 3.477 4.087 3.647 3.357 3.537 3.957 4.327
569.049 4.577 5.447 6.007 6.627 7.217 8.667 10.027 10.817 12.167 14.127
588.339 15.477 15.457 15.147 14.257 12.667 11.397 9.937 7.987 6.487 4.887
607.628 3.607 3.287 3.207 2.887 2.837 3.617 2.937 2.247 2.527 2.227
626.918 2.407 2.827 2.907 2.547 2.237 2.777 3.317 3.617 3.997 4.277
646.208 4.227 3.707 3.317 3.457 4.107 4.387 4.917 5.447 5.527 5.807
665.498 5.897 6.307 5.897 5.767 6.137 5.737 5.327 5.047 4.987 4.957
684.787 4.377 3.767 3.957 3.777 3.367 3.287 3.027 2.847 2.777 3.107
704.077 3.297 3.257 3.527 3.697 3.897 3.977 4.577 4.767 3.987 4.087
723.367 4.227 3.817 3.427 3.207 2.927 2.417 2.327 2.187 2.287 2.417
742.657 1.7509 2.107 2.687 2.167 2.587 3.167 3.107 2.847 3.037 3.817
761.947 4.357 5.397 6.917 8.287 10.727 13.127 14.707 16.087 16.477 17.137
781.236 17.047 15.407 13.407 11.447 9.547 7.977 6.787 6.277 6.537 6.477
800.526 6.477 6.927 7.677 8.487 9.507 10.337 11.577 13.497 14.737 16.107
819.816 18.857 20.667 22.607 23.967 23.467 24.137 25.037 25.607 25.657 24.927
839.106 23.457 21.697 19.847 18.177 17.097 15.227 13.297 11.647 9.837 8.717
858.395 7.937 7.437 6.457 5.457 4.997 4.807 4.727 4.767 4.617 4.027
877.685 3.567 3.227 3.277 3.347 3.057 2.827 3.017 3.177 3.287 2.997
896.975 2.497 2.557 2.867 3.317 3.617 3.747 4.017 4.197 4.787 5.857
916.265 6.707 7.117 7.337 7.587 7.767 7.927 7.557 7.047 6.767 6.107
935.555 5.777 5.557 5.457 5.517 4.877 4.487 4.327 3.857 3.877 3.937
954.844 3.417 3.277 3.427 3.277 3.227 3.247 3.267 3.007 2.807 2.677
974.134 2.787 2.807 2.377 2.517 2.717 2.847 3.167 3.027 2.737 2.867
993.424 3.457 3.827 3.657 3.907 4.087 4.287 5.047 5.877 6.587 7.117
1012.714 7.317 7.157 6.947 6.507 5.977 5.117 4.107 3.377 3.777 3.607
1032.003 3.087 3.067 2.417 2.467 3.307 4.237 3.967 3.587 3.827 3.777
1051.293 3.707 4.577 5.447 4.577 3.887 4.007 5.057 5.537 5.847 6.917
1070.583 6.467 6.927 7.487 8.317 9.747 11.087 13.017 13.997 14.737 16.617
1089.873 18.497 18.817 19.377 20.147 20.827 21.427 21.487 21.257 20.327 18.707
1109.163 18.397 17.897 16.607 16.647 15.757 15.927 17.637 18.197 17.837 19.087
1128.452 21.227 22.067 23.787 24.677 25.497 27.377 28.527 30.797 33.957 36.927
1147.742 40.787 45.057 49.847 56.907 66.897 78.197 91.657 111.147 136.247 166.027
1167.032 200.407 235.537 264.307 288.307 311.257 331.047 342.347 339.677 327.187 313.377
1186.322 300.487 285.577 270.047 253.727 237.427 226.657 222.267 220.317 220.817 224.657
1205.611 230.927 235.607 239.207 242.677 243.147 242.697 242.347 240.317 238.477 237.467
1224.901 231.967 225.007 221.427 218.037 215.337 215.337 217.557 221.507 230.627 245.897
1244.191 266.767 293.187 321.797 348.927 368.667 378.287 378.977 370.537 356.897 341.747
1263.481 326.547 315.397 310.997 313.827 320.667 327.017 327.397 317.467 296.547 268.587
1282.771 236.687 201.227 164.767 132.137 105.397 85.217 70.707 59.867 51.667 45.587
1302.060 41.367 38.377 35.977 34.007 32.517 31.287 30.487 29.637 28.677 27.887
1321.350 26.777 25.657 24.637 23.507 22.257 20.997 19.717 18.397 17.077 15.657
1340.640 14.427 13.327 12.197 11.287 10.247 9.197 8.467 7.687 6.947 6.367
1359.930 6.057 5.827 5.497 5.337 5.107 4.867 4.737 4.657 4.397 4.077
1379.219 4.037 4.067 4.007 3.777 3.617 3.847 3.947 3.807 3.817 3.827
1398.509 3.827 3.947 4.007 3.997 4.067 4.457 4.857 5.297 5.937 6.557
1417.799 7.117 7.717 8.507 9.097 9.847 10.857 11.907 13.207 14.627 16.027
1437.089 17.367 17.997 17.847 17.247 16.377 14.917 12.707 10.357 8.177 6.757
1456.378 5.877 5.347 5.167 4.937 4.887 5.027 4.977 4.977 5.387 5.717
1475.668 5.977 6.487 6.997 8.037 9.667 11.617 14.397 18.587 24.687 33.017
1494.958 44.107 58.427 75.647 94.257 111.797 125.727 134.547 137.927 135.387 126.817
1514.248 113.277 95.987 77.627 61.927 48.947 40.407 34.897 30.977 28.027 25.877
1533.538 23.897 21.887 19.877 17.807 16.057 14.127 12.337 11.137 9.917 8.687
1552.827 7.837 7.037 6.557 6.667 6.477 5.887 5.657 5.837 5.987 6.077
1572.117 6.207 6.047 5.977 6.427 6.787 6.747 6.757 6.837 6.807 7.087
1591.407 7.377 7.427 7.867 8.527 9.037 9.597 9.857 9.977 10.197 10.047
1610.697 9.827 9.207 8.407 8.157 7.817 7.357 7.147 6.897 6.477 6.027
1629.986 5.757 5.577 5.397 4.967 4.297 3.987 3.597 3.157 2.887 2.767
1649.276 2.737 2.667 2.517 2.217 2.067 1.987 1.7642 1.7209 1.917 1.8201
1668.566 1.6503 1.5872 1.5306 1.3772 1.3979 1.5782 1.5376 1.5517 1.6119 1.5957
1687.856 1.4873 1.4888 1.5062 1.4366 1.6153 1.7515 1.7652 1.6774 1.4502 1.4175
1707.146 1.6273 1.6488 1.4909 1.3337 1.3068 1.4268 1.3293 1.3898 1.5392 1.6899
1726.435 1.877 1.917 1.947 2.217 2.357 2.377 2.387 2.277 2.257 2.177
1745.725 1.937 1.7678 1.7692 1.7008 1.7482 1.8011 1.6801 1.6257 1.6478 1.7134
1765.015 1.6883 1.5281 1.5071 1.5259 1.3968 1.3648 1.4552 1.6163 1.6565 1.5862
1784.305 1.4864 1.4053 1.4359 1.4609 1.583 1.6596 1.6676 1.7477 1.6251 1.4868
1803.594 1.4999 1.4996 1.5845 1.5746 1.4955 1.5256 1.5309 1.4937 1.5042 1.538
1822.884 1.6103 1.6783 1.695 1.8672 2.147 2.197 2.067 2.037 2.247 2.427
1842.174 2.527 2.757 2.977 3.187 3.317 3.387 3.507 3.617 3.787 3.917
1861.464 3.867 3.977 4.167 4.097 3.957 3.887 3.817 3.667 3.557 3.427
1880.754 3.427 3.177 2.867 2.817 2.747 2.577 2.347 2.257 2.227 2.037
1900.043 1.8105 1.7214 1.7533 1.7323 1.587 1.4293 1.2885 1.2312 1.3055 1.2616
1919.333 1.0705 1.118 1.3299 1.335 1.4148 1.6069 1.6142 1.6308 1.5476 1.5714
1938.623 1.5378 1.3988 1.5293 1.3839 1.294 1.4843 1.5338 1.5824 1.5094 1.3113
1957.913 1.3274 1.5705 1.5993 1.536 1.6889 1.748 1.6128 1.5223 1.7005 1.917
1977.202 1.8381 1.897 1.907 1.8514 1.937 2.077 2.107 2.157 2.297 2.257
1996.492 2.227 2.167 2.137 1.967 1.8204 1.8381 1.752 1.6957 1.8325 1.917
2015.782 1.897 2.137 2.267 2.117 2.147 2.327 2.347 2.467 2.597 2.627
2035.072 2.777 2.967 3.037 3.137 3.317 3.137 3.127 3.237 3.277 3.327
2054.362 3.247 3.177 3.037 2.857 2.787 2.627 2.477 2.447 2.297 2.177
2073.651 2.127 2.067 2.027 2.087 2.077 2.067 2.167 2.067 1.947 2.017
2092.941 1.957 1.927 2.087 2.017 1.937 1.977 1.977 1.907 1.947 1.987
2112.231 1.937 1.8095 1.7443 1.6952 1.6781 1.7554 1.6999 1.917 1.957 1.849
2131.521 1.783 1.6869 1.7722 1.6699 1.6639 2.017 2.117 1.927 2.047 1.967
2150.810 1.7956 1.688 1.5928 1.7697 1.6892 1.6379 1.7051 1.6405 1.6303 1.529
2170.100 1.3666 1.6267 1.8618 1.927 1.8638 1.6133 1.6107 1.7523 1.7108 1.6433
2189.390 1.6418 1.4663 1.4292 1.438 1.447 1.4436 1.3493 1.509 1.4935 1.3119
2208.680 1.2704 1.2511 1.2089 1.1117 1.0933 0.94683 0.8053 0.8694 0.8527 0.90353
2227.970 0.91818 0.93579 0.92943 0.81 0.8046 0.95216 1.009 0.8548 1.0133 1.2007
2247.259 1.1504 1.1494 1.152 1.1845 1.3661 1.3422 1.2218 1.256 1.1954 1.0985
2266.549 1.1559 1.3222 1.3699 1.3602 1.2926 1.2081 1.0885 1.2339 1.2788 1.0701
2285.839 0.8158 0.886734 1.2024 1.3405 1.3098 1.272 1.1922 1.1542 1.2644 1.2378
2305.129 1.2571 1.327 1.275 1.3441 1.4148 1.4212 1.4926 1.4389 1.6176 1.7535
2324.418 1.7245 1.7183 1.729 1.8328 2.017 2.047 2.107 2.317 2.327 2.187
2343.708 2.297 2.387 2.347 2.267 2.117 2.117 2.127 1.997 2.027 2.157
2362.998 1.997 1.6895 1.7284 1.8481 1.8606 2.057 2.057 1.957 1.987 2.057
2382.288 1.997 2.007 2.147 2.307 2.507 2.487 2.487 2.727 2.587 2.347
2401.578 2.717 2.657 2.267 2.487 2.737 2.747 2.837 3.147 3.357 3.257
2420.867 3.247 3.507 3.777 3.857 3.957 4.197 4.077 3.977 3.917 3.667
2440.157 3.637 3.677 3.707 3.517 3.337 3.427 3.497 3.317 3.197 3.207
2459.447 3.077 3.077 3.127 3.017 2.977 2.817 2.687 2.767 2.737 2.677
2478.737 2.747 2.967 3.037 3.007 3.037 3.217 3.347 3.507 3.597 3.387
2498.026 3.367 3.407 3.317 3.157 3.017 3.167 3.137 2.787 2.757 3.057
2517.316 3.107 2.907 2.877 2.737 2.617 2.607 2.647 2.637 2.487 2.347
2536.606 2.157 2.047 2.027 2.177 2.207 2.027 1.7199 1.4652 1.8328 1.927
2555.896 1.5812 1.3696 1.2851 1.2074 1.2305 1.2803 1.4232 1.389 1.2459 1.3711
2575.186 1.2674 1.1698 1.4107 1.3844 1.0685 0.95164 0.979 1.0874 1.1769 1.096
2594.475 1.2523 1.3956 1.3904 1.5059 1.3278 1.1587 1.293 1.2668 1.1237 0.96837
2613.765 1.0401 1.0253 0.8037 0.8563 1.1587 1.2628 1.2022 1.1309 0.97367 0.9871
2633.055 0.9809 0.9903 0.93953 0.9857 1.1328 1.158 0.8465 1.0432 1.3104 1.1385
2652.345 1.204 1.209 1.2396 1.0931 1.2455 1.2591 0.95109 0.843 0.94871 1.0935
2671.634 1.0128 1.0888 1.0997 1.2449 1.1339 0.89205 1.0348 1.1418 1.094 0.9993
2690.924 1.1703 1.3599 1.1929 1.0253 1.0056 1.1974 1.0784 1.0046 1.1458 1.3973
2710.214 1.5888 1.1543 0.8223 0.666 0.764 0.8316 0.747 0.96952 1.0729 0.8415
2729.504 0.8557 0.91184 0.94194 1.0136 1.0744 1.0294 0.9291 0.96939 0.9843 0.9852
2748.794 0.91869 1.1835 1.3205 1.1625 1.0662 1.2058 1.087 0.94071 1.2245 1.2287
2768.083 1.1405 1.2347 1.3104 1.4379 1.5664 1.4257 1.3416 1.4709 1.434 1.4113
2787.373 1.2779 0.96119 0.92215 1.1372 1.1344 1.1542 1.0612 0.8061 0.93898 0.92165
2806.663 0.89649 1.296 1.269 1.1494 1.3017 1.2682 1.262 1.2799 0.9828 0.627
2825.953 0.536 0.517 0.826 1.084 0.9908 0.748 0.90928 1.0232 0.9451 1.0016
2845.242 1.1159 1.0158 0.7781 1.0935 1.02 0.755 1.1188 1.1952 1.0145 1.2214
2864.532 1.4489 1.4796 1.3927 1.1871 1.2502 1.3576 1.2158 1.2509 1.028 0.8271
2883.822 0.95602 0.90018 0.876021 1.0986 1.2485 1.1845 1.2655 1.2722 1.0862 0.97344
2903.112 1.0614 1.08 0.8305 0.91994 0.87073 0.597 0.8383 1.0666 1.0721 0.94318
2922.401 0.665 0.731 0.882715 1.0372 1.2484 1.1246 0.8465 0.8653 1.2196 1.1249
2941.691 0.9894 1.0225 0.8614 0.654 0.563 0.737 0.92417 0.93103 0.92882 0.86843
2960.981 0.88766 1.0692 0.87396 0.609 0.656 0.697 0.622 0.738 0.684 0.404
2980.271 0.601 0.72 0.92903 1.0084 1.0933 1.2292 0.92719 1.1745 1.2846 0.8133
2999.561 0.719 1.0862 1.2271 1.5348 1.7964 1.794 2.097 2.427 2.677 3.017
3018.850 3.397 3.687 4.107 4.317 4.547 5.057 5.277 5.777 6.107 6.247
3038.140 6.327 6.267 6.237 6.027 6.067 5.667 5.197 5.107 4.897 4.477
3057.430 4.317 3.987 3.507 3.317 3.147 3.057 2.817 2.577 2.507 2.117
3076.720 1.917 2.077 2.257 2.267 2.117 2.507 2.607 2.397 1.957 1.4682
3096.009 1.499 1.5221 1.5814 1.7194 1.6725 1.8568 2.047 2.017 1.7216 1.5898
3115.299 1.6653 1.2284 0.8436 1.1522 1.8152 1.927 1.5487 1.6867 1.3278 1.0853
3134.589 1.4075 1.0165 0.756 0.87529 0.97346 0.8499 0.721 0.73 0.713 0.642
3153.879 0.8492 0.8255 0.737 0.7926 0.90917 0.94932 0.88913 1.1167 0.7781 0.441
3173.169 0.616 0.374 0.379 0.521 0.526 0.784 0.64 0.696 1.0174 1.2011
3192.458 0.8397 0.764 0.982 0.441 0.368 0.8542 1.2966 1.0864 0.728 0.89332
3211.748 0.9953 0.602 0.539 0.436 0.386 1.0291 0.8077 0.4 0.526 0.599
3231.038 0.75 0.668 0.89288 0.91669 1.0426 1.4895 1.0546 0.8141 0.93636 0.87446
3250.328 0.93975 0.97484 0.738 0.645 0.624 1.0249 1.1927 0.661 0.545 0.7984
3269.617 1.3085 1.1462 0.708 0.422 0.26 0.34 0.389 0.716 0.9902 0.95096
3288.907 0.996 0.94465 0.592 0.583 0.758 0.529 0.665 1.0649 0.76 0.634
3308.197 0.521 0.554 0.559 0.35 0.8398 0.89091 0.72 1.0302 0.8597 0.608
3327.487 0.634 0.531 0.68 0.488 0.097 0.172 0.242 0.449 0.90283 1.4409
3346.777 1.4088 1.3506 1.4132 1.4156 2.157 1.746 1.0134 1.07 0.9833 1.188
3366.066 0.94357 0.434 0.48 1.0115 1.4139 1.4482 1.4038 1.2584 1.0997 1.2297
3385.356 1.0252 0.886984 1.1939 1.487 1.5271 1.3032 1.3511 1.2044 1.1692 1.1866
3404.646 1.0768 1.2731 1.2152 1.057 1.3448 1.272 1.2324 1.4933 1.4217 1.2386
3423.936 1.2577 1.217 1.0841 1.1255 1.1372 0.8584 0.757 1.233 0.94448 0.445
3443.225 0.515 0.254 0.054 0.537 0.90573 0.467 0.145 0.257 0.241 0.742
3462.515 0.92331 0.7849 0.579 0.38 0.7953 0.95934 0.89616 0.9654 1.0422 0.8189
3481.805 0.8288 1.1572 1.2642 0.96813 0.7812 0.658 0.572 0.647 0.619 0.68
3501.095 0.91536 0.808 0.64 0.43 0.186 0.403 0.504 0.734 0.582 0.547
3520.385 0.491 0.469 0.86974 1.1705 1.0021 0.271 0.048 0.119 0.213 0.606
3539.674 0.63 0.162 0.385 0.571 0.334 0.371 0.348 0.579 0.348 0.372
3558.964 0.9223 0.641 0.598 0.732 0.649 0.53 0.758 0.9798 0.7819 1.2782
3578.254 1.4659 0.95681 1.0207 1.0148 0.8298 1.0028 1.1591 0.94928 0.8637 1.0615
3597.544 0.90556 0.90621 1.1036 1.3278 1.7017 1.4109 1.2173 1.5713 1.2539 1.4428
3616.833 2.307 2.127 2.067 2.537 3.187 4.287 4.887 5.827 7.437 9.157
3636.123 11.357 14.477 18.727 23.857 29.807 36.857 43.237 47.617 50.547 50.497
3655.413 47.817 44.157 39.587 32.907 24.787 17.737 12.517 8.927 7.027 5.457
3674.703 4.037 3.937 3.237 2.257 1.897 1.3897 1.4254 1.0867 0.639 0.671
3693.993 0.8144 0.586 0.294 0.614 0.878121 0.9892 1.0665 0.9983 0.7938 0.8627
3713.282 1.2478 0.93346 0.659 0.96258 0.532 0.447 0.563 0.514 0.87372 0.94976
3732.572 1.093 0.617 0.231 0.544 0.604 0.679 0.556 0.188 0.163 0.7838
3751.862 0.96383 1.0116 1.094 0.622 0.6 0.596 0.451 0.94197 1.1118 0.697
3771.152 0.767 0.8191 0.603 0.527 0.315 0.691 0.96697 0.93408 0.9882 0.8386
3790.441 0.94403 1.3697 1.6133 1.6217 1.0708 0.732 1.6288 1.4838 0.714 0.586
3809.731 0.421 0.501 0.373 0.536 1.3331 1.597 1.0516 0.662 0.563 0.696
3829.021 0.95031 0.8103 0.86755 0.8609 0.96454 0.92513 0.426 0.208 0.569 0.987
3848.311 1.257 1.6219 1.897 1.8714 1.997 1.4587 0.594 0.541 0.9215 1.0798
3867.601 1.1286 1.337 1.0788 0.68 1.0507 1.7389 1.7336 1.2364 1.2293 1.3663
3886.890 1.0857 0.622 1.057 1.6773 1.2016 0.758 0.452 0.424 0.8207 1.1808
3906.180 0.8163 0.7952 1.0723 1.1202 1.2286 1.0068 1.1242 1.4113 1.2493 1.0534
3925.470 0.93015 0.9994 0.676 0.53 0.7893 0.654 0.89453 1.1952 1.0791 1.1196
3944.760 0.8086 0.588 0.96324 0.747 0.644 0.7991 0.437 0.413 0.642 0.8545
3964.049 1.3282 1.4232 1.3711 1.2286 0.7969 0.279 0.233 0.77 0.94304 0.749
3983.339 0.8157 0.93343 0.609 0.221 0.46 0.642 0.522 0.42 0 0.033
##END=
