##TITLE=1,4-Dimethoxy-2-fluorobenzene
##JCAMP-DX=4.24
##DATA TYPE=INFRARED SPECTRUM
##ORIGIN=EPA-IR VAPOR PHASE LIBRARY
##OWNER=SRD/NIST
Collection (C) 2018 copyright by the U.S. Secretary of Commerce
on behalf of the United States of America. All rights reserved.
##CAS REGISTRY NO=82830-49-7
##MOLFORM=C 8 H 9 F O 2
##$NIST SOURCE=MSDC-IR
##STATE=gas
##XUNITS=1/CM
##YUNITS=ABSORBANCE
##XFACTOR=1.
##YFACTOR=0.001
##DELTAX=1.92898
##FIRSTX=549.8
##LASTX=4000.7
##FIRSTY=2.307
##MAXX=4000.7
##MINX=549.759
##MAXY=0.379977
##MINY=0
##NPOINTS=1790
##XYDATA=(X++(Y..Y))
549.759 2.307 1.537 2.097 3.107 3.407 2.867 2.407 3.127 3.397 3.807
569.049 3.697 3.137 3.317 3.617 3.347 3.297 3.607 4.317 4.547 4.327
588.339 4.147 4.607 5.557 5.927 6.577 7.237 7.347 7.207 6.717 6.957
607.628 7.677 7.637 8.147 8.377 8.417 8.707 9.067 9.087 8.857 8.847
626.918 8.437 7.827 7.787 7.907 7.247 6.707 6.427 5.407 4.557 4.897
646.208 4.417 3.887 3.987 3.917 3.797 3.587 3.557 3.267 3.007 2.877
665.498 2.937 3.067 2.867 2.967 3.127 2.847 2.897 3.247 3.047 2.757
684.787 2.747 3.207 3.947 4.407 4.877 6.007 7.227 8.657 10.107 12.287
704.077 15.437 17.797 19.677 20.727 21.717 22.157 21.727 21.087 19.707 17.717
723.367 15.437 13.377 11.417 9.467 8.237 7.637 7.477 7.467 7.777 9.267
742.657 10.487 12.137 14.797 17.657 20.817 23.737 26.217 28.837 30.737 30.887
761.947 29.737 27.837 25.777 23.057 19.667 16.517 13.617 11.567 10.877 10.497
781.236 10.877 11.457 11.547 12.137 13.097 14.107 14.877 15.577 16.447 17.107
800.526 17.827 18.557 18.657 18.547 18.257 18.087 17.967 17.777 17.977 17.387
819.816 16.747 18.247 18.467 18.687 19.827 20.647 22.577 24.547 25.487 25.017
839.106 24.947 25.737 26.657 27.387 27.907 28.317 28.887 29.937 29.867 27.217
858.395 24.037 21.297 18.847 16.987 15.017 12.647 10.677 9.067 7.847 7.027
877.685 5.947 5.367 5.007 4.307 3.857 3.607 3.737 3.757 3.737 3.887
896.975 3.917 3.817 4.107 4.097 3.987 4.667 4.617 4.527 4.967 5.817
916.265 6.837 7.617 8.307 9.547 11.187 13.307 16.067 18.907 21.457 24.077
935.555 27.077 29.017 30.387 31.257 30.847 29.957 28.317 26.327 24.837 22.727
954.844 19.957 17.347 15.497 13.987 12.647 11.877 11.157 10.737 10.747 10.677
974.134 10.927 11.367 11.687 12.327 12.187 12.277 13.217 13.717 14.527 16.097
993.424 16.917 17.977 19.847 21.687 24.077 26.017 28.167 31.927 35.827 39.257
1012.714 43.007 46.447 49.897 54.137 58.787 63.367 68.597 74.637 81.497 88.627
1032.003 95.367 101.847 107.267 111.127 112.087 110.707 106.417 99.907 91.997 82.307
1051.293 72.207 61.837 52.887 44.497 35.957 29.307 25.027 21.397 18.237 16.647
1070.583 15.737 15.267 14.037 12.267 11.377 11.857 12.427 12.607 12.247 12.517
1089.873 13.887 15.237 16.637 16.807 18.887 22.697 25.627 26.617 29.327 32.977
1109.163 34.347 37.147 39.357 40.377 39.107 38.907 39.287 38.257 38.017 37.587
1128.452 38.557 39.617 39.927 41.337 44.737 50.127 58.997 69.727 81.077 93.697
1147.742 105.357 116.317 123.947 126.827 125.687 122.267 116.207 105.807 92.797 80.417
1167.032 70.377 62.827 57.947 54.787 53.767 54.297 55.937 56.527 57.717 60.347
1186.322 62.507 64.477 66.517 67.377 66.377 66.337 66.307 66.927 68.987 73.137
1205.611 78.447 83.427 92.457 102.657 112.297 121.777 130.297 140.667 145.207 147.167
1224.901 147.617 141.927 133.107 122.907 110.997 97.727 86.147 79.487 76.187 75.097
1244.191 78.097 85.267 96.557 110.257 124.807 141.527 157.737 169.447 178.967 184.407
1263.481 184.007 178.457 168.187 154.207 138.857 123.207 107.057 92.617 80.087 69.967
1282.771 62.267 56.177 51.487 47.917 44.667 42.207 40.217 38.317 37.107 35.957
1302.060 35.217 34.607 33.907 33.207 32.297 31.347 30.297 29.227 27.977 26.907
1321.350 25.847 24.467 23.017 21.347 19.667 18.107 16.637 15.227 13.987 12.907
1340.640 11.827 10.887 10.287 9.667 9.157 8.867 8.497 8.187 8.077 8.117
1359.930 7.887 7.457 7.197 7.247 7.347 7.227 7.127 7.117 7.077 7.067
1379.219 6.867 6.887 7.187 7.267 7.427 7.987 8.377 8.587 8.987 9.667
1398.509 10.437 11.127 12.377 13.777 14.957 16.457 18.357 20.527 22.677 24.747
1417.799 26.847 28.957 31.087 33.257 35.287 37.457 39.677 41.977 44.627 47.157
1437.089 50.057 53.107 55.697 57.527 58.517 59.187 59.807 59.617 58.737 57.927
1456.378 57.397 57.407 57.897 58.577 58.887 58.717 57.947 56.847 55.747 54.717
1475.668 53.737 52.487 51.317 50.567 51.037 53.357 57.747 64.287 73.947 86.747
1494.958 104.387 128.347 158.157 194.637 235.807 277.417 318.597 352.387 372.417 379.977
1514.248 374.737 357.237 327.997 289.027 240.177 193.127 149.607 114.837 89.597 71.627
1533.538 58.777 49.737 43.717 38.707 34.677 31.577 28.867 26.817 25.017 23.457
1552.827 22.737 21.647 21.057 20.827 20.437 20.817 21.257 21.637 22.577 23.947
1572.117 25.417 27.257 29.467 31.707 33.967 36.427 38.487 40.167 41.417 41.887
1591.407 41.777 41.057 39.917 37.817 35.067 32.727 30.157 27.697 25.957 24.867
1610.697 24.247 23.347 22.657 22.117 21.707 21.457 20.757 19.807 19.277 18.407
1629.986 16.777 15.537 14.357 13.257 12.487 11.537 11.007 10.507 9.857 9.217
1649.276 8.507 8.107 7.857 7.727 7.417 7.097 6.797 6.567 6.437 6.187
1668.566 5.877 5.677 5.527 5.097 4.977 5.007 4.767 4.517 4.457 4.537
1687.856 4.877 4.927 4.787 4.977 4.977 4.787 4.607 4.547 4.567 4.757
1707.146 4.927 4.937 4.787 4.577 4.527 4.077 3.987 4.197 3.847 3.647
1726.435 3.667 3.597 3.497 3.377 3.197 3.247 3.317 3.337 3.337 3.227
1745.725 3.147 2.867 2.667 2.807 2.837 2.867 2.957 2.827 2.717 2.857
1765.015 3.007 2.797 2.567 2.517 2.497 2.537 2.527 2.577 2.537 2.437
1784.305 2.427 2.497 2.467 2.447 2.497 2.557 2.527 2.477 2.697 2.797
1803.594 2.877 2.877 2.727 2.717 2.907 3.167 3.327 3.337 3.237 3.397
1822.884 3.567 3.517 3.497 3.467 3.507 3.467 3.407 3.647 3.847 3.667
1842.174 3.627 3.697 3.637 3.737 3.767 3.707 3.747 3.867 4.037 4.157
1861.464 4.267 4.287 4.117 4.097 4.077 4.077 4.007 3.637 3.367 3.197
1880.754 2.987 2.857 2.647 2.447 2.527 2.507 2.277 2.097 2.107 2.187
1900.043 2.137 2.207 2.257 2.137 2.137 2.137 2.127 2.157 2.057 2.117
1919.333 2.207 2.007 1.737 1.687 1.847 1.867 1.827 1.927 1.987 2.127
1938.623 2.177 2.017 1.967 1.987 2.117 2.157 2.177 2.277 2.367 2.267
1957.913 2.257 2.457 2.387 2.597 3.017 3.087 3.177 3.367 3.557 3.707
1977.202 3.607 3.567 3.517 3.457 3.547 3.717 3.797 3.777 3.857 4.007
1996.492 4.127 4.237 4.377 4.477 4.547 4.747 5.057 5.347 5.637 5.847
2015.782 5.897 5.947 6.087 6.147 6.307 6.387 6.087 5.917 5.847 5.687
2035.072 5.587 5.547 5.347 5.167 5.257 5.167 5.187 5.147 5.087 5.147
2054.362 5.157 5.057 5.077 5.177 5.047 4.847 4.737 4.777 4.577 4.447
2073.651 4.327 4.107 3.967 3.847 3.737 3.467 3.257 3.217 3.097 2.847
2092.941 2.627 2.557 2.377 2.267 2.107 1.897 1.757 1.677 1.707 1.677
2112.231 1.697 1.707 1.757 1.787 1.587 1.4756 1.537 1.607 1.667 1.4745
2131.521 1.487 1.627 1.667 1.697 1.647 1.577 1.717 2.047 2.107 2.107
2150.810 2.167 2.117 1.927 2.077 2.277 2.267 2.257 2.167 2.207 2.127
2170.100 2.097 2.357 2.367 2.237 2.417 2.327 2.097 2.187 2.407 2.757
2189.390 2.867 2.627 2.527 2.477 2.467 2.557 2.557 2.587 2.587 2.617
2208.680 2.697 2.597 2.507 2.607 2.717 2.457 2.097 2.197 2.367 2.217
2227.970 2.117 2.137 2.137 2.407 2.447 2.327 2.407 2.217 2.037 2.127
2247.259 2.177 2.307 2.497 2.337 2.327 2.497 2.447 2.447 2.657 2.897
2266.549 2.947 2.997 3.017 3.037 3.047 2.887 2.617 2.717 2.737 2.567
2285.839 2.517 2.367 2.307 2.287 2.227 2.147 1.857 1.887 2.207 2.287
2305.129 2.007 1.847 2.307 2.637 2.367 2.147 2.197 2.107 2.197 2.227
2324.418 2.247 2.247 2.127 2.327 2.447 2.487 2.507 2.367 2.127 2.067
2343.708 2.287 2.237 2.147 2.127 1.937 2.077 2.307 2.357 2.237 2.197
2362.998 2.467 2.467 2.417 2.337 2.147 2.097 2.017 2.017 2.137 2.267
2382.288 2.407 2.357 2.267 2.167 2.127 2.097 1.857 1.917 2.027 1.857
2401.578 1.767 1.667 1.947 2.327 2.067 1.987 2.107 2.127 2.267 2.167
2420.867 1.987 2.167 2.357 2.167 1.917 1.857 1.887 2.087 2.057 1.887
2440.157 2.037 2.397 2.497 2.277 2.007 1.867 2.097 2.277 2.297 2.197
2459.447 2.207 2.457 2.477 2.297 2.097 1.997 1.927 1.727 1.787 2.087
2478.737 2.157 1.917 1.877 1.957 1.937 1.967 2.207 2.127 1.987 2.107
2498.026 2.047 2.087 2.257 2.627 2.527 2.087 2.337 2.617 2.447 2.527
2517.316 2.767 2.877 2.607 2.657 2.787 2.587 2.757 2.927 2.677 2.537
2536.606 2.887 2.927 2.867 2.877 2.727 2.767 2.867 2.807 2.737 2.667
2555.896 2.817 2.987 2.847 2.757 2.667 2.747 2.837 2.737 2.977 2.897
2575.186 2.607 2.807 2.827 2.787 2.837 2.757 2.667 2.457 2.317 2.377
2594.475 2.487 2.477 2.357 2.477 2.547 2.607 2.867 2.737 2.437 2.447
2613.765 2.567 2.657 2.347 1.847 1.847 1.787 1.817 2.007 1.817 1.617
2633.055 1.3343 1.757 2.177 1.937 1.737 1.807 2.097 2.257 2.297 2.317
2652.345 2.227 1.747 1.667 2.207 2.327 2.177 2.127 1.907 1.867 1.637
2671.634 1.4609 1.807 1.947 2.217 2.187 1.897 1.717 1.857 2.037 1.727
2690.924 1.567 1.707 2.127 2.217 1.857 1.947 1.987 2.137 2.187 1.817
2710.214 1.707 1.897 1.907 1.727 1.747 1.827 2.047 2.207 2.227 2.017
2729.504 1.817 1.967 2.037 1.917 2.187 2.227 2.047 2.447 2.277 2.237
2748.794 2.747 2.757 2.427 2.227 2.277 2.257 2.527 3.107 3.147 2.807
2768.083 2.727 3.067 3.427 3.367 3.407 3.627 3.777 3.997 4.227 4.367
2787.373 4.527 4.807 4.977 4.877 5.187 5.367 5.567 6.177 6.307 6.577
2806.663 7.427 7.977 8.307 9.197 9.657 10.127 11.377 12.447 13.397 14.587
2825.953 16.237 18.257 20.907 24.057 27.577 31.227 34.717 37.687 39.447 40.517
2845.242 40.937 40.277 38.807 36.227 32.647 29.377 26.627 24.187 21.907 20.097
2864.532 19.317 18.727 18.237 18.107 18.097 17.667 17.217 17.547 18.017 18.217
2883.822 18.377 18.587 18.787 19.447 20.147 20.717 21.787 22.787 23.477 24.437
2903.112 25.917 27.277 29.027 30.827 31.637 32.627 34.077 35.017 35.857 37.067
2922.401 37.947 38.247 38.617 39.827 41.927 44.707 47.427 50.667 54.247 56.767
2941.691 59.047 61.027 61.697 61.717 61.457 60.227 58.297 56.437 54.397 52.277
2960.981 49.777 47.417 45.197 42.347 39.867 37.917 36.187 34.667 32.947 31.117
2980.271 30.157 29.507 28.737 28.337 28.527 29.707 30.927 32.477 35.097 38.397
2999.561 41.747 44.887 47.837 49.667 49.897 49.007 47.137 43.977 39.817 35.347
3018.850 30.967 26.427 22.127 18.877 17.057 15.507 14.027 12.857 12.217 11.877
3038.140 11.767 11.997 11.817 11.777 12.127 12.227 12.297 12.137 11.827 11.837
3057.430 12.247 12.437 12.167 12.057 11.767 11.437 11.187 10.887 10.767 10.337
3076.720 9.697 9.787 9.857 9.627 9.337 8.687 8.417 8.687 8.237 7.767
3096.009 7.557 6.897 6.537 6.337 6.197 5.907 5.717 5.207 4.517 4.817
3115.299 4.917 4.437 4.637 4.197 3.297 3.517 3.857 3.727 3.657 3.627
3134.589 3.377 3.097 2.507 2.467 2.757 2.887 2.867 2.677 2.397 2.137
3153.879 2.227 2.447 2.447 2.467 2.697 2.397 1.957 1.957 1.907 1.957
3173.169 2.037 1.497 1.647 1.927 2.007 2.027 1.587 1.4018 1.4564 1.4446
3192.458 1.607 1.4428 1.3664 1.927 1.737 2.047 2.217 1.1768 0.7956 1.0544
3211.748 1.1066 1.1154 1.4184 1.657 1.4215 1.2065 1.487 1.3161 0.8696 1.1892
3231.038 1.3609 1.1532 1.1775 1.477 1.1718 1.0547 1.2583 1.0932 1.2754 1.1268
3250.328 0.7425 0.6761 0.8743 0.9696 0.8311 0.855 0.5982 0.339 0.51589 0.745
3269.617 0.9287 1.1462 1.1978 0.5253 0.205 0.6853 1.4004 1.4453 0.9263 1.0128
3288.907 1.106 0.315 0.5928 1.2007 1.131 0.9086 0.7716 0.9276 1.0978 0.9061
3308.197 0.736 0.8599 0.8405 1.1563 0.8671 0.6061 0.7539 0.7906 1.0275 0.9739
3327.487 0.50859 0.5989 0.7587 0.929 0.864 0.7262 0.8225 0.8911 1.1693 0.9585
3346.777 0.937 1.3101 0.9357 0.6466 0.9225 0.8451 0.8087 0.9441 0.54747 0.356
3366.066 0.7656 0.9416 0.7377 0.56638 0.3883 0.50163 0.7774 0.7863 1.1307 1.1006
3385.356 0.9749 1.2511 1.0737 1.1653 1.1554 1.0926 1.272 1.0131 0.8648 1.0178
3404.646 0.8543 0.583 0.3775 0.47841 0.369 0.51166 0.9532 0.779 0.8444 0.9772
3423.936 0.8898 1.057 0.9588 0.5911 0.47382 0.6082 0.8611 1.0302 1.2131 1.0051
3443.225 0.9004 0.988 1.0001 0.8689 0.56397 0.6564 0.8555 1.037 1.3098 1.1639
3462.515 1.4298 1.787 1.667 1.4039 0.9483 1.0951 1.1412 0.9158 0.7017 0.7816
3481.805 1.0479 1.0385 1.05 1.0886 0.9938 0.769 0.8581 0.7126 0.9222 1.2337
3501.095 0.6859 0.7277 0.9767 0.5907 0.266 0.26 0.54563 0.94 1.1064 1.1167
3520.385 0.7843 0.7737 0.47192 0.4344 1.0426 1.0099 1.1315 0.9478 0.868 0.7601
3539.674 0.56518 0.55774 0.4506 0.5144 0.8229 1.0454 0.9349 0.9623 0.7184 0.6998
3558.964 0.8259 0.6352 0.7582 1.0638 1.3919 1.617 1.647 0.9219 0.4552 1.2473
3578.254 1.507 1.1895 0.7751 0.8098 1.0211 0.9794 1.1092 0.694 0.7983 0.6889
3597.544 0.22 0.7987 1.1503 0.9641 0.9719 1.05 0.9036 0.8758 0.985 0.6807
3616.833 0.4571 0.6971 1.0991 1.204 0.774 0.4475 0.321 0.53109 0.9354 0.9592
3636.123 0.7342 0.9541 1.2428 0.9261 0.467 0.55159 0.6458 0.193 0.55206 0.8268
3655.413 0.5342 0.8678 1.2217 0.9316 0.9638 1.0821 1.1004 0.7467 0.50019 1.047
3674.703 1.0541 0.7986 0.6853 0.5894 0.7721 0.7743 0.6063 0.7264 0.6787 0.4387
3693.993 0.51413 1.0766 1.0199 0.811 1.0992 1.3232 1.697 1.4708 0.5941 0.49261
3713.282 0.8879 0.8344 0.345 0.293 0.4187 0.6688 0.7776 0.356 0.6922 1.1003
3732.572 0.8658 0.9228 1.0609 0.32 0.166 0.6992 0.8165 0.53406 1.0245 1.547
3751.862 1.3059 1.3281 1.3762 1.3901 0.7521 0.5979 0.7012 1.0126 1.4383 1.2305
3771.152 1.0204 0.56926 0.476728 0.675 0.4991 0.6367 1.0698 0.9772 1.0794 1.1926
3790.441 0.9962 0.8754 0.8007 0.5374 1.034 1.4265 0.9485 0.9448 1.3079 1.3134
3809.731 1.0505 1.3867 1.2781 0.752 0.9555 1.1021 0.847 0.7413 0.8556 0.9148
3829.021 0.9735 1.1229 1.19 1.0939 0.8118 1.051 1.365 0.8712 0.7208 0.8881
3848.311 0.8088 0.52116 0 0.229 0.57681 0.56545 0.8989 0.9884 0.9963 1.0507
3867.601 1.1174 0.7825 0.6699 1.2507 1.2187 1.1972 0.9172 0.9621 1.487 1.607
3886.890 1.3449 0.9007 0.7877 1.0381 1.379 1.3477 0.7631 0.8578 1.1489 0.7353
3906.180 0.6441 0.7318 1.2577 1.3403 0.7831 0.196 0.4031 0.8029 0.6152 0.9527
3925.470 1.2199 1.3461 1.1888 1.2793 1.597 1.2714 1.4094 1.497 1.4758 1.617
3944.760 0.8386 0.369 0.8028 0.7521 0.6763 0.294 0.52391 1.1505 1.0873 1.3353
3964.049 1.517 1.4531 1.2628 1.2195 1.4182 1.3078 0.8734 1.497 1.527 1.1621
3983.339 1.3713 1.2668 1.3533 1.3449 0.8721 0.354 0.376 0.54785 0.9795 1.577
##END=
