##TITLE=3-Bromo-2,4,6-trimethylaniline
##JCAMP-DX=4.24
##DATA TYPE=INFRARED SPECTRUM
##ORIGIN=EPA-IR VAPOR PHASE LIBRARY
##OWNER=SRD/NIST
Collection (C) 2018 copyright by the U.S. Secretary of Commerce
on behalf of the United States of America. All rights reserved.
##CAS REGISTRY NO=82842-52-2
##MOLFORM=C 9 H 12 Br N
##$NIST SOURCE=MSDC-IR
##STATE=gas
##XUNITS=1/CM
##YUNITS=ABSORBANCE
##XFACTOR=1.
##YFACTOR=0.001
##DELTAX=1.929
##FIRSTX=549.8
##LASTX=4000.8
##FIRSTY=12.304
##MAXX=4000.75
##MINX=549.766
##MAXY=0.063604
##MINY=0
##NPOINTS=1790
##XYDATA=(X++(Y..Y))
549.766 12.304 11.954 11.704 11.294 11.154 11.094 10.864 10.984 11.344 11.314
569.056 11.354 11.274 11.104 11.084 11.064 11.174 10.954 10.624 10.544 10.764
588.346 10.884 10.824 10.584 10.664 10.994 11.174 11.334 11.324 11.414 11.544
607.636 11.844 12.144 12.254 12.524 12.634 12.694 12.894 13.034 13.224 13.474
626.926 13.464 13.714 13.974 13.994 14.334 14.684 14.924 15.104 15.194 15.134
646.216 15.284 15.544 15.694 15.754 15.764 15.814 15.884 16.104 16.244 16.344
665.506 16.384 16.404 16.554 16.674 16.974 17.054 16.824 16.814 16.754 16.694
684.796 16.584 16.274 16.084 15.914 15.624 15.484 15.304 15.064 14.824 14.744
704.086 14.734 14.544 14.464 14.404 14.454 14.674 14.924 15.134 15.454 15.764
723.376 15.894 15.924 15.944 15.824 15.604 15.364 14.934 14.444 13.984 13.544
742.666 13.214 12.944 12.724 12.524 12.334 12.094 11.784 11.744 11.814 11.684
761.956 11.614 11.624 11.644 11.814 11.834 12.094 12.404 12.494 12.774 13.234
781.246 13.884 14.494 14.904 15.264 15.364 15.194 14.684 13.734 12.614 11.524
800.536 10.364 9.144 8.234 7.634 7.094 6.724 6.794 6.794 6.494 6.404
819.826 6.464 6.394 6.284 6.254 6.264 6.264 6.164 6.264 6.414 6.404
839.116 6.484 6.814 7.314 7.894 8.754 9.974 11.424 12.834 14.204 15.644
858.406 17.154 18.834 20.074 18.914 16.274 14.514 13.224 11.874 10.444 9.094
877.696 8.064 7.344 6.774 6.444 6.384 6.314 6.334 6.384 6.464 6.594
896.986 6.654 6.814 6.924 6.974 7.124 7.194 7.164 7.374 7.674 7.754
916.276 7.734 7.624 7.504 7.374 7.104 6.924 6.734 6.514 6.614 6.804
935.566 6.944 7.174 7.534 7.994 8.464 8.984 9.614 10.354 11.284 12.424
954.856 13.744 15.234 17.194 19.784 23.214 27.674 33.174 39.364 45.644 51.034
974.146 54.554 55.754 54.754 51.604 46.374 39.284 31.134 23.544 18.034 14.834
993.436 13.254 12.684 12.824 13.484 14.404 15.544 16.844 18.044 19.004 19.684
1012.726 20.094 20.224 20.024 19.424 18.514 17.324 16.064 14.854 13.634 12.584
1032.016 11.554 10.484 9.524 8.684 7.974 7.504 7.094 6.654 6.284 6.014
1051.306 5.784 5.534 5.374 5.234 4.994 4.804 4.754 4.744 4.624 4.494
1070.596 4.374 4.334 4.324 4.294 4.114 4.014 4.004 3.934 3.904 3.904
1089.886 3.854 3.814 3.844 3.824 3.804 3.764 3.744 3.714 3.724 3.784
1109.176 3.784 3.744 3.814 3.864 3.814 3.804 3.824 3.904 4.034 4.124
1128.467 4.374 4.784 5.174 5.884 6.824 7.854 8.944 9.864 10.444 10.684
1147.757 10.734 10.544 10.104 9.124 7.964 6.914 6.054 5.384 4.944 4.674
1167.047 4.534 4.564 4.634 4.924 5.314 5.774 6.454 7.324 8.314 9.174
1186.337 9.824 10.284 10.514 10.494 10.224 9.924 9.354 8.514 7.614 6.824
1205.627 6.214 5.714 5.264 4.904 4.674 4.424 4.254 4.164 4.084 3.824
1224.917 3.644 3.704 3.754 3.874 4.134 4.414 4.954 5.554 6.254 7.294
1244.207 8.434 9.814 11.344 12.874 14.504 16.004 17.044 17.584 17.664 17.474
1263.497 17.084 16.324 15.294 14.204 13.144 12.334 11.854 11.504 11.234 11.094
1282.787 11.004 10.934 10.924 10.984 11.194 11.824 12.744 13.874 15.154 16.394
1302.077 17.274 17.604 17.504 16.954 15.924 14.544 12.864 11.024 9.374 8.024
1321.367 6.974 6.294 5.804 5.414 5.124 4.874 4.584 4.294 4.104 3.924
1340.657 3.784 3.614 3.494 3.484 3.524 3.524 3.524 3.574 3.654 3.744
1359.947 3.914 4.094 4.284 4.634 5.084 5.594 6.214 7.074 8.184 9.304
1379.237 10.254 11.014 11.624 12.114 12.494 12.564 12.284 11.974 11.714 11.474
1398.527 11.284 11.204 11.204 11.144 11.154 11.384 11.904 12.754 13.984 15.744
1417.817 18.074 21.144 24.844 29.114 34.094 39.374 44.764 49.894 54.524 58.224
1437.107 61.024 62.684 63.184 62.664 61.334 59.634 57.934 56.574 55.754 55.484
1456.397 55.804 56.894 58.464 60.234 61.894 63.174 63.604 63.024 61.294 58.474
1475.687 54.904 50.494 45.414 39.954 34.674 29.864 25.724 22.324 19.584 17.534
1494.977 15.884 14.394 13.314 12.454 11.704 11.114 10.574 10.114 9.764 9.444
1514.267 9.204 8.944 8.734 8.594 8.414 8.174 7.934 7.794 7.654 7.504
1533.557 7.334 7.184 7.084 6.994 6.944 6.874 6.824 6.834 6.794 6.784
1552.847 6.814 6.904 7.064 7.164 7.304 7.554 7.764 7.974 8.154 8.404
1572.137 8.774 9.104 9.384 9.664 10.014 10.464 10.944 11.414 11.924 12.554
1591.427 13.174 13.794 14.504 15.244 16.084 17.174 18.474 20.104 22.094 24.554
1610.717 27.484 30.944 34.684 38.854 43.094 46.794 49.854 51.884 52.744 52.404
1630.007 50.864 48.234 44.794 40.504 36.074 31.974 28.044 24.564 21.444 18.754
1649.297 16.604 14.844 13.094 11.634 10.424 9.404 8.564 7.774 7.064 6.484
1668.587 6.014 5.584 5.194 4.874 4.644 4.454 4.204 4.054 3.934 3.784
1687.877 3.714 3.654 3.544 3.444 3.364 3.364 3.464 3.534 3.574 3.634
1707.167 3.724 3.894 4.004 4.114 4.194 4.184 4.184 4.104 3.994 3.874
1726.457 3.674 3.444 3.214 2.964 2.734 2.684 2.624 2.514 2.444 2.414
1745.747 2.354 2.274 2.224 2.184 2.134 2.084 2.084 2.054 1.944 1.844
1765.037 1.794 1.744 1.754 1.714 1.6328 1.6038 1.5582 1.4459 1.4672 1.5093
1784.327 1.4415 1.4334 1.3814 1.3373 1.3679 1.3555 1.3067 1.2765 1.2787 1.304
1803.617 1.3054 1.3117 1.3427 1.3136 1.2738 1.2515 1.2157 1.187 1.2388 1.2379
1822.907 1.2121 1.2124 1.1966 1.231 1.2501 1.264 1.2186 1.1901 1.1983 1.1815
1842.197 1.2006 1.2319 1.263 1.2898 1.2448 1.2588 1.3376 1.2865 1.2408 1.3102
1861.487 1.3569 1.3425 1.3366 1.3014 1.277 1.3094 1.3213 1.3378 1.3521 1.4187
1880.777 1.5044 1.5287 1.5478 1.5722 1.6084 1.6429 1.6624 1.6465 1.5908 1.595
1900.067 1.58 1.5349 1.4651 1.3654 1.348 1.357 1.3141 1.2581 1.2208 1.1964
1919.357 1.2165 1.2406 1.2492 1.2143 1.172 1.1962 1.2097 1.1911 1.2214 1.1995
1938.647 1.1817 1.2262 1.2497 1.2456 1.2327 1.2316 1.2335 1.2489 1.2559 1.2569
1957.937 1.2389 1.2168 1.213 1.2032 1.1156 1.0814 1.1481 1.1989 1.2218 1.1897
1977.227 1.1633 1.1455 1.1262 1.1884 1.2079 1.1372 1.0699 1.0271 1.0703 1.1469
1996.517 1.1275 1.0486 1.0073 1.03 1.0176 0.9802 0.9999 1.03 1.0057 0.9653
2015.807 0.971 0.9541 0.933 0.9176 0.9788 1.0815 1.0736 1.0449 1.052 1.0154
2035.097 0.9906 1.0069 1.001 1.024 1.0481 1.0608 1.0448 1.035 1.0512 1.0441
2054.387 1.0303 1.0387 1.0631 1.0879 1.1097 1.0759 1.0113 0.9979 1.0529 1.0866
2073.677 1.0762 1.0788 1.1157 1.1082 1.0388 0.9874 0.9817 1.0171 1.0828 1.0999
2092.967 1.0365 1.052 1.0966 1.0123 0.9352 0.9857 0.972 0.8955 0.8921 0.8853
2112.257 0.827 0.8078 0.8417 0.831 0.8019 0.764 0.75198 0.8213 0.8485 0.7825
2131.547 0.7655 0.74237 0.73571 0.73564 0.76001 0.8087 0.833 0.8588 0.8343 0.8412
2150.837 0.8316 0.8145 0.804 0.8125 0.8571 0.8707 0.8605 0.8685 0.9133 0.9268
2170.127 0.9054 0.8921 0.9113 0.9048 0.9049 0.9465 0.9189 0.9051 0.9029 0.8409
2189.417 0.8199 0.8256 0.8482 0.9145 0.9571 0.9307 0.8521 0.8102 0.7871 0.73212
2208.707 0.74202 0.795 0.8301 0.8474 0.8627 0.8864 0.9216 0.9252 0.8859 0.8927
2227.997 0.9244 0.9032 0.8842 0.8678 0.8636 0.8845 0.8625 0.7962 0.76311 0.8217
2247.287 0.7915 0.74634 0.7666 0.75858 0.73756 0.7364 0.7674 0.71649 0.68577 0.68463
2266.577 0.69063 0.71637 0.73254 0.74038 0.70649 0.71204 0.73992 0.74944 0.74991 0.7693
2285.868 0.7581 0.7334 0.75427 0.8023 0.8624 0.8685 0.8234 0.74228 0.72876 0.7732
2305.158 0.7734 0.7759 0.73464 0.6911 0.69429 0.71078 0.72023 0.71633 0.75044 0.7684
2324.448 0.73092 0.68181 0.73692 0.7677 0.73416 0.69849 0.6757 0.70557 0.6808 0.70244
2343.738 0.7575 0.7841 0.822 0.8162 0.8022 0.7711 0.8309 0.8998 0.8553 0.8456
2363.028 0.8948 0.928 0.898 0.8541 0.8273 0.8608 0.945 0.9363 0.891 0.8995
2382.318 0.8754 0.8963 0.9742 0.9955 0.9415 0.9067 0.9902 1.0194 0.9614 1.0129
2401.608 1.0011 0.9234 0.9599 1.023 1.0577 1.0689 1.0384 1.0133 0.9928 0.9399
2420.898 0.9098 0.9246 0.9226 0.8991 0.914 0.9266 0.8711 0.8766 0.9137 0.9055
2440.188 0.891 0.9193 0.8953 0.8882 0.9075 0.9061 0.9468 0.916 0.8412 0.8406
2459.478 0.8266 0.8083 0.8642 0.9363 0.9925 0.9069 0.848 0.971 1.0127 0.9711
2478.768 1.0092 0.9987 0.9995 1.012 0.9986 0.971 0.9563 0.9732 0.9668 0.9088
2498.058 0.911 0.9876 0.9605 0.912 0.9002 0.8791 0.8844 0.8778 0.8734 0.9631
2517.348 0.9823 0.98 0.9752 0.9515 0.9485 0.9781 1.0309 0.9861 0.9939 1.0333
2536.638 1.0674 1.0159 0.964 1.0989 1.1681 1.1321 1.1054 1.1134 1.1372 1.1375
2555.928 1.1798 1.2186 1.275 1.2426 1.1808 1.1526 1.1119 1.0871 1.0927 1.0879
2575.218 1.0528 1.0524 1.0131 1.0374 1.0559 1.0026 0.9994 1.0768 1.0269 0.9133
2594.508 0.906 0.7855 0.72042 0.795 0.8566 0.9297 0.9513 0.9449 0.891 0.8207
2613.798 0.79 0.7946 0.8314 0.7749 0.7835 0.859 0.857 0.909 0.9116 0.8457
2633.088 0.76052 0.73974 0.8409 0.8784 0.8679 0.8963 0.9635 0.9272 0.8902 0.9449
2652.378 0.9763 0.9478 0.8318 0.8348 0.8719 0.8852 0.8969 0.8955 0.9939 1.035
2671.668 1.0175 1.0098 0.9833 1.0145 1.0749 1.0357 1.1055 1.2013 1.1639 1.1134
2690.958 1.094 1.1369 1.1633 1.1416 1.133 1.1722 1.1716 1.151 1.2038 1.2682
2710.248 1.3108 1.3243 1.4017 1.5172 1.4927 1.5614 1.6554 1.704 1.964 2.184
2729.538 2.264 2.434 2.734 3.044 3.414 3.754 3.944 4.024 4.074 4.134
2748.828 3.964 3.694 3.464 3.194 3.014 2.824 2.554 2.414 2.304 2.174
2768.118 2.074 2.064 2.134 2.064 2.044 2.104 2.114 2.164 2.214 2.164
2787.408 2.114 2.104 2.104 2.184 2.244 2.284 2.324 2.464 2.664 2.734
2806.698 2.804 3.044 3.184 3.284 3.394 3.584 4.004 4.204 4.284 4.554
2825.988 4.854 5.174 5.464 5.804 6.204 6.634 7.104 7.654 8.184 8.704
2845.278 9.424 10.274 11.214 12.184 13.234 14.674 16.344 18.134 20.074 22.204
2864.568 24.364 26.364 28.134 29.474 30.374 30.834 30.704 30.044 29.144 28.114
2883.858 26.824 25.614 24.664 23.824 23.234 23.074 23.324 23.804 24.564 25.724
2903.148 27.014 28.494 30.324 32.194 34.154 36.194 38.124 40.094 41.934 43.584
2922.438 45.384 47.194 48.914 50.394 51.534 52.164 52.124 51.354 50.034 48.334
2941.728 45.824 42.674 39.254 35.904 33.014 30.594 28.644 27.204 26.164 25.234
2961.018 24.564 24.104 23.764 23.634 23.874 24.424 24.974 25.454 25.724 25.704
2980.308 25.374 24.924 24.074 22.854 21.554 20.184 18.804 17.554 16.764 16.284
2999.598 16.074 16.194 16.504 17.174 17.994 18.854 19.624 20.104 20.444 20.424
3018.888 20.004 19.494 18.754 17.724 16.594 15.474 14.484 13.544 12.694 11.984
3038.178 11.344 10.754 10.094 9.434 9.024 8.674 8.244 7.794 7.494 7.214
3057.468 6.874 6.584 6.284 6.074 5.874 5.694 5.544 5.294 4.944 4.814
3076.758 4.674 4.454 4.344 4.254 4.154 4.024 3.844 3.704 3.604 3.524
3096.048 3.364 3.234 3.154 2.954 2.774 2.734 2.574 2.474 2.504 2.334
3115.338 2.194 2.184 2.094 1.874 1.814 1.914 1.914 1.764 1.674 1.714
3134.628 1.5552 1.4266 1.5455 1.4707 1.2881 1.2924 1.2491 1.2103 1.3069 1.2373
3153.918 1.1818 1.1881 1.0779 1.0784 1.1066 1.047 0.9879 0.9376 0.8988 0.9898
3173.208 0.9958 0.8817 0.9603 1.1545 1.1527 1.0086 0.9612 0.9021 0.9102 1.0147
3192.498 1.0272 1.0807 1.0227 0.8793 0.9962 1.0905 0.9917 0.9552 0.9889 0.9701
3211.788 1.0689 1.0854 0.9524 0.9581 0.9436 0.844 0.7642 0.74977 0.7697 0.8404
3231.078 0.8211 0.74276 0.69008 0.509 0.552 0.65581 0.6439 0.5974 0.6218 0.8326
3250.368 0.9038 0.773 0.70313 0.68077 0.563 0.545 0.518 0.5684 0.6186 0.5809
3269.658 0.58 0.519 0.495 0.6092 0.65918 0.568 0.556 0.6072 0.548 0.408
3288.948 0.334 0.295 0.308 0.381 0.448 0.406 0.329 0.3 0.218 0.074
3308.238 0.115 0.274 0.226 0.311 0.43 0.43 0.331 0.108 0.176 0.382
3327.528 0.44 0.338 0.284 0.258 0.125 0.193 0.227 0.129 0.138 0.243
3346.818 0.254 0.169 0.084 0.143 0.067 0.017 0.177 0.297 0.343 0.301
3366.108 0.381 0.45 0.398 0.359 0.478 0.436 0.443 0.544 0.5985 0.75147
3385.398 0.799 0.8799 1.0489 1.1595 1.265 1.5578 1.894 2.184 2.524 3.034
3404.688 3.734 4.354 4.984 5.624 6.294 6.754 6.694 6.814 6.814 6.384
3423.978 5.734 4.984 4.444 3.804 3.144 2.644 2.364 2.124 1.784 1.4752
3443.269 1.3097 1.2517 1.1988 1.2459 1.1811 1.1193 1.1877 1.2824 1.3539 1.4155
3462.559 1.6444 1.664 1.784 1.934 1.954 2.334 2.874 3.214 3.654 4.314
3481.849 5.094 5.894 6.774 7.824 8.814 9.834 10.674 11.234 11.464 11.444
3501.139 11.024 10.314 9.454 8.344 7.294 6.134 5.134 4.524 3.884 3.304
3520.429 2.844 2.414 2.054 1.764 1.6125 1.537 1.4451 1.3369 1.1415 1.0736
3539.719 1.0694 1.0108 0.9073 0.8088 0.8285 0.671987 0.509 0.541 0.56 0.517
3559.009 0.437 0.539 0.489 0.351 0.448 0.452 0.453 0.448 0.393 0.334
3578.299 0.303 0.251 0.217 0.117 0.137 0.384 0.442 0.408 0.349 0.263
3597.589 0.239 0.365 0.294 0.097 0.051 0.136 0.289 0.452 0.436 0.35
3616.879 0.351 0.196 0.149 0.161 0.154 0.158 0.075 0.054 0.068 0.11
3636.169 0.127 0.239 0.279 0.16 0.134 0.201 0.264 0.221 0.126 0.091
3655.459 0.102 0.069 0.057 0.135 0.189 0.139 0.076 0 0.043 0.09
3674.749 0.118 0.246 0.137 0.129 0.255 0.162 0.084 0.126 0.254 0.283
3694.039 0.123 0.078 0.156 0.262 0.288 0.202 0.162 0.226 0.195 0.035
3713.329 0.07 0.325 0.423 0.297 0.182 0.153 0.169 0.264 0.263 0.246
3732.619 0.335 0.426 0.452 0.376 0.241 0.052 0.059 0.058 0.047 0.113
3751.909 0.291 0.349 0.105 0.018 0.198 0.257 0.265 0.33 0.422 0.262
3771.199 0.213 0.357 0.318 0.306 0.446 0.437 0.265 0.277 0.212 0.276
3790.489 0.414 0.36 0.301 0.355 0.359 0.262 0.329 0.394 0.397 0.433
3809.779 0.558 0.609 0.5699 0.586 0.6256 0.5669 0.451 0.425 0.431 0.36
3829.069 0.322 0.396 0.501 0.492 0.392 0.52 0.5644 0.391 0.328 0.387
3848.359 0.372 0.347 0.43 0.352 0.422 0.5773 0.6332 0.541 0.354 0.314
3867.649 0.49 0.71261 0.6481 0.6285 0.670434 0.73609 0.76208 0.71907 0.73592 0.70557
3886.939 0.66118 0.6486 0.5977 0.6176 0.6152 0.623 0.70644 0.628 0.70093 0.6324
3906.229 0.643 0.8757 0.8874 0.9466 0.9482 0.8727 0.952 0.8613 0.69148 0.65975
3925.519 0.7933 0.9299 0.8198 0.9373 0.9603 0.8789 0.8995 0.9709 1.092 1.0795
3944.809 1.0369 0.9693 0.8247 0.73111 0.8126 0.9612 0.9431 0.7895 0.76302 0.8153
3964.099 0.8768 0.8175 0.8436 0.9287 0.8747 0.7923 0.9278 1.0002 0.7836 0.8133
3983.389 0.8949 0.8438 0.7934 0.7728 0.7925 0.8358 0.8685 0.816 0.67617 0.69642
##END=
