##TITLE=Salicylidene o-toluic hydrazone
##JCAMP-DX=4.24
##DATA TYPE=INFRARED SPECTRUM
##ORIGIN=EPA-IR VAPOR PHASE LIBRARY
##OWNER=SRD/NIST
Collection (C) 2018 copyright by the U.S. Secretary of Commerce
on behalf of the United States of America. All rights reserved.
##CAS REGISTRY NO=82859-72-1
##MOLFORM=C 15 H 14 N 2 O 2
##$NIST SOURCE=MSDC-IR
##STATE=gas
##XUNITS=1/CM
##YUNITS=ABSORBANCE
##XFACTOR=1.
##YFACTOR=0.001
##DELTAX=1.92898
##FIRSTX=549.8
##LASTX=4000.7
##FIRSTY=3.554
##MAXX=4000.7
##MINX=549.759
##MAXY=0.040864
##MINY=0
##NPOINTS=1790
##XYDATA=(X++(Y..Y))
549.759 3.554 3.514 3.624 3.964 4.244 4.274 4.264 4.264 3.974 3.874
569.049 3.814 3.564 3.394 3.584 3.744 3.634 3.754 4.054 4.384 4.574
588.339 5.064 5.074 4.714 4.464 4.074 3.874 3.564 3.174 3.034 2.874
607.628 2.804 2.784 2.764 2.714 2.674 2.804 2.914 2.864 2.834 2.934
626.918 2.984 2.874 3.034 3.534 3.534 3.364 3.594 3.874 3.824 3.924
646.208 4.134 4.194 4.114 4.034 4.074 4.164 4.264 4.484 4.824 4.754
665.498 4.614 4.484 4.364 4.504 4.644 4.724 4.844 4.874 4.894 4.854
684.787 4.624 4.384 4.114 3.864 3.834 3.644 3.294 3.224 3.074 2.954
704.077 2.964 2.944 3.164 3.404 3.424 3.574 3.854 4.164 4.844 5.654
723.367 6.604 7.924 9.264 10.364 10.794 10.804 10.904 11.054 11.244 11.594
742.657 12.344 13.464 14.754 15.804 15.884 14.754 13.194 11.484 9.844 8.204
761.947 6.884 6.184 5.654 5.354 5.324 5.174 5.134 5.024 4.534 4.064
781.236 3.754 3.504 3.384 3.174 3.104 3.104 3.054 3.074 2.714 2.334
800.526 2.204 2.244 2.304 2.184 1.944 2.044 2.134 1.954 2.064 2.004
819.816 1.984 2.054 1.804 1.564 1.484 1.524 1.424 1.274 1.234 1.244
839.106 1.1749 1.274 1.474 1.524 1.624 1.724 1.634 1.674 1.824 1.854
858.395 1.744 1.674 1.694 1.674 1.594 1.814 2.044 2.264 2.264 2.184
877.685 2.134 1.904 1.864 1.904 1.854 1.614 1.634 1.834 1.784 1.704
896.975 1.804 1.964 1.944 1.774 1.704 1.624 1.694 1.854 1.934 1.974
916.265 2.014 2.194 2.354 2.224 2.174 2.244 2.124 2.274 2.504 2.614
935.555 2.904 3.294 3.514 3.774 4.154 4.134 3.814 3.624 3.214 2.884
954.844 2.994 3.004 2.784 2.704 2.684 2.504 2.444 2.364 2.444 2.484
974.134 2.454 2.614 2.444 2.444 2.744 2.864 2.904 2.864 2.714 2.834
993.424 2.864 2.404 2.254 2.474 2.164 1.904 2.064 1.964 1.874 1.794
1012.714 1.604 1.544 1.514 1.524 1.704 2.124 2.444 2.834 3.054 3.284
1032.003 3.714 3.944 4.204 4.164 3.504 3.014 3.314 3.304 3.134 2.894
1051.293 2.614 2.714 2.714 2.644 2.724 2.474 2.424 2.644 2.544 2.864
1070.583 3.154 3.034 3.094 2.874 2.884 3.854 4.704 4.844 5.304 5.764
1089.873 6.064 6.614 7.124 8.134 8.854 8.684 9.084 10.024 10.334 10.714
1109.163 10.964 10.614 9.554 8.404 7.934 7.194 6.724 6.794 7.084 7.964
1128.452 9.034 10.254 11.804 13.504 14.854 15.994 17.014 17.324 17.034 16.264
1147.742 15.434 14.414 12.934 11.494 9.944 8.494 7.334 6.274 5.314 5.004
1167.032 5.034 4.804 4.694 4.654 4.544 4.704 4.944 5.154 5.574 6.034
1186.322 6.394 6.844 7.324 7.844 8.454 8.824 8.784 8.744 8.814 8.384
1205.611 7.704 7.314 7.214 7.634 8.374 8.534 8.764 8.864 9.324 10.454
1224.901 11.364 12.434 13.864 15.404 17.624 19.644 21.164 22.754 23.044 21.994
1244.191 20.144 17.664 15.254 13.244 11.744 10.764 10.164 10.234 10.754 11.514
1263.481 12.424 13.724 15.214 16.544 17.984 19.394 20.174 20.424 20.424 19.854
1282.771 18.804 17.524 16.444 15.584 14.954 14.984 15.714 17.214 19.084 20.924
1302.060 22.364 22.974 22.604 21.164 19.184 17.104 15.274 14.194 13.734 13.424
1321.350 12.974 12.294 11.314 10.284 9.504 9.074 9.054 9.264 9.524 9.774
1340.640 9.964 10.074 10.184 10.294 10.504 10.864 11.264 11.584 11.594 11.394
1359.930 10.924 10.094 9.264 8.574 8.014 7.594 7.334 7.214 7.154 7.154
1379.219 7.184 7.164 7.154 7.104 7.054 7.034 6.924 6.834 6.754 6.584
1398.509 6.474 6.434 6.264 6.014 5.824 5.584 5.284 5.004 4.814 4.724
1417.799 4.694 4.754 4.874 5.034 5.174 5.394 5.774 6.224 6.724 7.224
1437.089 7.784 8.374 8.874 9.384 9.924 10.264 10.434 10.604 10.784 10.954
1456.378 11.274 11.754 12.344 13.014 13.804 14.794 15.944 17.234 18.744 20.504
1475.668 22.104 23.394 24.124 24.154 23.734 22.884 21.764 20.684 19.624 18.424
1494.958 17.164 15.784 14.214 12.524 10.824 9.384 8.164 7.224 6.514 5.914
1514.248 5.454 5.094 4.734 4.384 4.184 4.014 3.714 3.484 3.334 3.134
1533.538 2.924 2.804 2.724 2.644 2.654 2.654 2.724 2.794 2.854 2.954
1552.827 2.944 3.044 3.234 3.424 3.774 4.184 4.664 5.354 6.064 6.584
1572.117 7.064 7.324 7.274 6.974 6.444 5.864 5.424 5.034 4.774 4.744
1591.407 4.914 5.294 5.794 6.424 7.184 8.094 9.024 10.024 11.044 12.154
1610.697 13.374 14.624 15.724 16.454 16.634 15.894 14.284 12.174 9.954 8.004
1629.986 6.584 5.594 4.814 4.174 3.744 3.394 3.124 2.984 2.894 2.854
1649.276 2.714 2.574 2.554 2.684 2.814 2.884 2.974 3.144 3.364 3.594
1668.566 3.824 4.004 4.144 4.394 4.724 4.964 5.104 5.244 5.484 5.814
1687.856 6.244 6.884 7.744 8.804 10.204 11.904 14.064 16.864 20.024 23.884
1707.146 28.294 32.924 37.124 39.934 40.864 39.624 35.924 30.814 25.644 21.634
1726.435 18.914 17.044 15.614 14.324 12.954 11.484 9.984 8.614 7.514 6.584
1745.725 5.844 5.284 4.814 4.324 3.914 3.574 3.264 3.044 2.864 2.714
1765.015 2.634 2.594 2.514 2.414 2.314 2.214 2.204 2.104 1.914 1.784
1784.305 1.764 1.674 1.604 1.574 1.484 1.414 1.434 1.494 1.444 1.444
1803.594 1.464 1.394 1.324 1.324 1.314 1.284 1.284 1.304 1.304 1.284
1822.884 1.204 1.1421 1.1084 1.0753 1.0959 1.1032 1.0825 1.1055 1.1439 1.0916
1842.174 1.0275 1.0633 1.1124 1.1025 1.0409 0.9945 0.9883 0.9457 0.8925 0.9311
1861.464 0.9004 0.8053 0.8335 0.8812 0.9174 0.9484 0.9576 0.9569 0.9878 1.0101
1880.754 1.0213 1.0437 1.0588 1.0425 1.0367 1.1273 1.1041 1.0236 1.0186 1.0307
1900.043 1.0784 1.1001 1.1247 1.0865 1.0673 1.0801 1.074 1.102 1.0878 1.1116
1919.333 1.1071 1.1287 1.1366 1.094 1.1751 1.244 1.314 1.384 1.384 1.354
1938.623 1.294 1.214 1.1152 0.9835 0.9233 0.9536 0.9971 0.9537 0.8497 0.8207
1957.913 0.8311 0.7895 0.7334 0.7175 0.7074 0.673 0.6159 0.6451 0.6271 0.5611
1977.202 0.5838 0.664 0.6907 0.6191 0.5898 0.5647 0.5768 0.5674 0.5476 0.5802
1996.492 0.6102 0.5899 0.5778 0.6091 0.6425 0.6845 0.6612 0.6113 0.5742 0.5388
2015.782 0.5565 0.5956 0.5656 0.6257 0.6687 0.5893 0.5947 0.5979 0.578 0.5982
2035.072 0.5914 0.564 0.5643 0.5901 0.5738 0.5811 0.5452 0.5528 0.6307 0.633
2054.362 0.6423 0.5893 0.5199 0.5563 0.5811 0.6114 0.6488 0.6586 0.6603 0.6054
2073.651 0.5148 0.514 0.5805 0.5563 0.5778 0.5874 0.5106 0.5109 0.5557 0.5502
2092.941 0.5634 0.5472 0.5809 0.6179 0.6005 0.5724 0.5399 0.5531 0.5362 0.5384
2112.231 0.5675 0.5972 0.5904 0.5307 0.4766 0.497 0.5106 0.5445 0.5918 0.5641
2131.521 0.5325 0.4806 0.4481 0.5367 0.632 0.6353 0.555 0.5296 0.5661 0.5415
2150.810 0.5236 0.4994 0.4386 0.5099 0.5363 0.508 0.5333 0.5026 0.5079 0.4933
2170.100 0.5018 0.5292 0.5514 0.5581 0.5476 0.5433 0.4983 0.5913 0.6486 0.5432
2189.390 0.511 0.5174 0.5409 0.5632 0.552 0.564 0.545 0.4786 0.481 0.5325
2208.680 0.5584 0.5454 0.5361 0.5234 0.5321 0.5139 0.5016 0.5598 0.5187 0.4635
2227.970 0.4861 0.5529 0.5654 0.5517 0.5345 0.4946 0.4635 0.4267 0.4464 0.4865
2247.259 0.4699 0.4492 0.4842 0.5761 0.6576 0.6976 0.659 0.594 0.5835 0.5623
2266.549 0.5877 0.5567 0.4738 0.5485 0.5686 0.5155 0.4828 0.4886 0.5085 0.5417
2285.839 0.5675 0.5114 0.4816 0.4713 0.4975 0.576 0.6085 0.5417 0.5074 0.5679
2305.129 0.5956 0.5242 0.4953 0.5168 0.5114 0.526 0.5495 0.6028 0.6035 0.5093
2324.418 0.544 0.5941 0.5992 0.5911 0.5804 0.5559 0.6023 0.6551 0.6328 0.6184
2343.708 0.6353 0.7148 0.6791 0.6004 0.6704 0.7381 0.6473 0.5723 0.5296 0.4924
2362.998 0.44 0.4846 0.5399 0.4841 0.5068 0.6057 0.6682 0.5823 0.4967 0.5429
2382.288 0.5649 0.5799 0.6771 0.7119 0.6693 0.6508 0.6927 0.6791 0.6019 0.6056
2401.578 0.6305 0.5914 0.5517 0.5957 0.6833 0.6882 0.6293 0.6343 0.6269 0.536
2420.867 0.5023 0.5149 0.5445 0.5663 0.5495 0.5501 0.6225 0.6679 0.5588 0.5185
2440.157 0.5848 0.4908 0.5246 0.6131 0.5512 0.521 0.5567 0.599 0.5322 0.5358
2459.447 0.5615 0.578 0.5338 0.4798 0.5362 0.5877 0.6305 0.6427 0.5813 0.5792
2478.737 0.5536 0.5274 0.6226 0.6384 0.6365 0.6623 0.6466 0.6515 0.6732 0.6688
2498.026 0.6554 0.6836 0.7103 0.6935 0.6979 0.7184 0.6767 0.639 0.6911 0.7334
2517.316 0.7163 0.6457 0.6647 0.7039 0.6029 0.6035 0.6705 0.676 0.6383 0.6899
2536.606 0.646 0.5683 0.6276 0.6987 0.679 0.6509 0.6619 0.6287 0.6743 0.7207
2555.896 0.7448 0.6817 0.6098 0.6563 0.6958 0.7332 0.7574 0.7968 0.879 0.8907
2575.186 0.8416 0.7366 0.7433 0.7762 0.8348 0.9121 0.8093 0.7377 0.683 0.6899
2594.475 0.7931 0.8556 0.7867 0.7492 0.7616 0.699 0.6735 0.6889 0.7209 0.7197
2613.765 0.7051 0.6892 0.6879 0.7053 0.8203 0.8668 0.8052 0.8208 0.7739 0.6528
2633.055 0.6459 0.6795 0.6634 0.7309 0.8268 0.7175 0.6866 0.7218 0.6852 0.653
2652.345 0.647 0.6477 0.6499 0.6219 0.6503 0.7429 0.6998 0.6368 0.6946 0.702
2671.634 0.6607 0.7787 0.8507 0.8135 0.7605 0.7426 0.7248 0.6456 0.6262 0.7096
2690.924 0.7221 0.724 0.7454 0.7509 0.7814 0.8002 0.8485 0.7844 0.7283 0.7698
2710.214 0.8214 0.8106 0.7656 0.8886 0.9912 0.8919 0.7979 0.8357 0.8538 0.9046
2729.504 0.9272 0.9074 0.876 0.8994 0.9155 0.9705 1.0389 0.9902 1.0559 1.0807
2748.794 0.984 0.975 1.0357 1.089 1.0481 1.0422 1.0701 1.0647 1.0326 1.0245
2768.083 1.0198 1.0572 1.0747 0.9771 0.8858 0.8345 0.917 0.9214 0.8924 0.876
2787.373 0.8007 0.8028 0.8956 0.9689 0.8886 0.9163 0.9521 0.8686 0.8956 0.8987
2806.663 0.8338 0.788 0.8268 0.8774 0.9265 0.9541 1.0461 1.0482 0.962 1.0631
2825.953 1.1101 1.0945 1.1196 1.1841 1.1914 1.1212 1.1095 1.214 1.334 1.384
2845.242 1.404 1.384 1.414 1.374 1.394 1.544 1.534 1.444 1.484 1.734
2864.532 1.844 1.744 1.844 2.004 2.124 2.364 2.514 2.494 2.504 2.594
2883.822 2.654 2.794 2.914 2.844 2.744 2.784 2.824 2.814 2.744 2.624
2903.112 2.504 2.374 2.464 2.454 2.374 2.454 2.544 2.634 2.654 2.654
2922.401 2.714 2.784 2.874 2.994 3.184 3.164 3.114 3.304 3.384 3.464
2941.691 3.434 3.204 3.154 3.254 3.244 3.154 3.104 3.104 3.204 3.204
2960.981 3.034 3.034 2.994 2.924 3.014 2.924 2.774 2.764 2.744 2.724
2980.271 2.734 2.664 2.564 2.504 2.374 2.474 2.574 2.494 2.524 2.574
2999.561 2.534 2.464 2.424 2.494 2.644 2.784 2.904 3.094 3.344 3.514
3018.850 3.744 4.014 4.184 4.514 4.784 4.884 4.904 4.864 4.854 4.794
3038.140 4.674 4.704 4.704 4.604 4.644 4.744 5.004 5.264 5.374 5.484
3057.430 5.554 5.714 6.114 6.554 7.164 7.804 8.394 8.854 8.984 8.764
3076.720 8.184 7.474 6.764 6.034 5.494 5.094 4.814 4.624 4.304 4.154
3096.009 4.014 3.894 3.884 3.744 3.584 3.444 3.354 3.244 3.184 3.054
3115.299 2.914 2.854 2.834 2.844 2.694 2.534 2.484 2.624 2.714 2.624
3134.589 2.704 2.594 2.334 2.414 2.574 2.634 2.664 2.634 2.704 2.794
3153.879 2.774 2.814 2.794 2.744 2.794 2.924 2.984 3.014 3.044 2.924
3173.169 2.764 2.794 2.874 2.894 2.914 3.084 3.224 3.194 3.124 3.044
3192.458 3.124 3.224 3.264 3.184 3.234 3.394 3.444 3.434 3.384 3.334
3211.748 3.354 3.474 3.454 3.464 3.494 3.534 3.574 3.664 3.794 3.754
3231.038 3.784 3.944 3.974 3.974 4.034 4.044 4.164 4.204 4.114 4.144
3250.328 4.204 4.304 4.404 4.374 4.354 4.404 4.444 4.354 4.304 4.384
3269.617 4.354 4.114 4.104 4.324 4.444 4.524 4.504 4.404 4.314 4.184
3288.907 4.084 4.174 4.354 4.284 4.204 4.244 4.134 4.074 4.114 4.114
3308.197 4.164 4.184 3.994 3.984 4.054 4.024 4.004 4.044 4.124 3.974
3327.487 3.954 4.124 4.244 4.274 4.284 4.384 4.364 4.234 4.214 4.114
3346.777 4.034 4.004 3.824 3.534 3.464 3.474 3.434 3.534 3.494 3.344
3366.066 3.284 3.294 3.194 3.184 3.264 3.124 2.984 2.894 2.894 2.904
3385.356 2.904 2.804 2.634 2.574 2.624 2.614 2.434 2.464 2.524 2.404
3404.646 2.364 2.414 2.454 2.424 2.314 2.354 2.404 2.304 2.264 2.294
3423.936 2.274 2.334 2.264 2.114 2.134 2.154 2.034 1.934 1.914 1.834
3443.225 1.884 1.914 1.904 2.014 2.234 2.384 2.344 2.304 2.344 2.464
3462.515 2.504 2.624 2.674 2.414 2.174 1.984 1.944 1.884 1.714 1.554
3481.805 1.474 1.544 1.454 1.274 1.234 1.0932 1.0573 1.114 1.0999 1.1156
3501.095 1.0959 0.9666 1.0171 1.0605 0.9879 1.084 1.0593 0.9429 0.946 0.9089
3520.385 0.823 0.9029 0.9786 0.908 0.8353 0.7422 0.8266 0.8769 0.706 0.7483
3539.674 0.8029 0.7386 0.7098 0.6305 0.4778 0.5437 0.7252 0.7285 0.6535 0.645
3558.964 0.6522 0.5899 0.6073 0.6703 0.6191 0.5771 0.6389 0.6793 0.6772 0.567
3578.254 0.5675 0.7811 0.8156 0.6682 0.4693 0.4302 0.5245 0.5942 0.5337 0.4181
3597.544 0.4964 0.5815 0.5346 0.4869 0.4143 0.28039 0.4857 0.709 0.675 0.5826
3616.833 0.5084 0.4235 0.4899 0.6325 0.5365 0.591 0.6068 0.5566 0.537 0.4794
3636.123 0.5271 0.4672 0.3795 0.4547 0.5312 0.5765 0.6748 0.5897 0.4957 0.5281
3655.413 0.5326 0.5497 0.5063 0.4056 0.3393 0.3183 0.26596 0.3027 0.3501 0.3189
3674.703 0.3593 0.4256 0.4088 0.3708 0.4207 0.3822 0.3839 0.4392 0.3505 0.3999
3693.993 0.4463 0.3465 0.411 0.5017 0.5455 0.4841 0.24508 0.2873 0.426 0.23551
3713.282 0 0.1173 0.3972 0.4807 0.4855 0.5434 0.4698 0.25545 0.22599 0.4405
3732.572 0.4033 0.21456 0.19765 0.3175 0.4163 0.33 0.3531 0.4932 0.4174 0.24958
3751.862 0.24318 0.3229 0.3106 0.3025 0.3969 0.3902 0.3304 0.3402 0.4329 0.3973
3771.152 0.3194 0.347 0.3209 0.3197 0.4281 0.3136 0.3177 0.5029 0.5656 0.56
3790.441 0.4511 0.4159 0.4321 0.3924 0.3299 0.3516 0.3984 0.3959 0.3893 0.3291
3809.731 0.27241 0.3276 0.4776 0.4208 0.25861 0.3497 0.3414 0.28231 0.3298 0.3433
3829.021 0.3245 0.25783 0.3328 0.5356 0.479 0.353 0.3468 0.3287 0.23626 0.3104
3848.311 0.4123 0.3679 0.3756 0.3252 0.27567 0.29348 0.4033 0.3982 0.4042 0.4964
3867.601 0.524 0.5047 0.3908 0.305 0.1576 0.108 0.21781 0.3469 0.4369 0.4592
3886.890 0.4882 0.4555 0.3546 0.4012 0.5131 0.4885 0.3616 0.2604 0.3497 0.3515
3906.180 0.25781 0.3122 0.422 0.2994 0.18421 0.3029 0.3337 0.27115 0.18785 0.1054
3925.470 0.086 0.24064 0.31 0.28967 0.38 0.18817 0.1001 0.3703 0.4836 0.3723
3944.760 0.3637 0.4303 0.327 0.3687 0.349 0.347 0.5107 0.4592 0.3497 0.4301
3964.049 0.4844 0.4314 0.5484 0.4662 0.3849 0.5422 0.5988 0.3779 0.22172 0.1366
3983.339 0.081 0.29123 0.3376 0.25681 0.3033 0.3105 0.26208 0.22301 0.1816 0.4125
##END=
