##TITLE=2,3,6-Trimethylnaphthalene
##JCAMP-DX=4.24
##DATA TYPE=INFRARED SPECTRUM
##ORIGIN=NIST Mass Spectrometry Data Center
##OWNER=NIST Standard Reference Data Program
Collection (C) 2018 copyright by the U.S. Secretary of Commerce
on behalf of the United States of America. All rights reserved.
##CAS REGISTRY NO=829-26-5
##MOLFORM=C 13 H 14
##$NIST SOURCE=MSDC-IR
##SPECTROMETER/DATA SYSTEM=HP-GC/MS/IRD
##STATE=gas
##XUNITS=1/CM
##YUNITS=ABSORBANCE
##XFACTOR=1.0
##YFACTOR=0.000002900
##DELTAX=4.0
##FIRSTX=550.0
##LASTX=3846.0
##FIRSTY=0.000403
##MAXX=3846
##MINX=550
##MAXY=0.029
##MINY=0
##NPOINTS=825
##XYDATA=(X++(Y..Y))
550.0 139 274 359 359 242 135 80 32 39 113
590.0 209 263 260 251 179 104 60 38 17 4
630.0 34 60 108 249 453 594 617 502 297 150
670.0 98 79 57 36 29 33 21 9 2 4
710.0 27 41 40 23 8 13 30 51 86 131
750.0 171 211 240 235 239 265 369 610 1014 1444
790.0 2025 2296 1828 1371 964 555 325 225 202 229
830.0 294 364 433 516 601 668 835 1254 1934 2698
870.0 3672 4621 4465 3839 3572 3066 2163 1503 1022 628
910.0 420 332 312 313 326 337 375 471 583 624
950.0 608 500 363 299 279 279 317 393 513 692
990.0 891 1103 1254 1242 1096 890 712 630 631 634
1030.0 597 543 479 406 345 288 248 223 177 149
1070.0 150 134 122 134 152 176 194 189 187 181
1110.0 168 150 148 166 192 217 270 382 535 700
1150.0 783 795 742 578 436 358 329 324 310 304
1190.0 290 260 240 245 273 318 386 525 699 779
1230.0 730 544 330 238 209 204 218 238 279 344
1270.0 423 459 456 417 333 276 250 235 233 240
1310.0 243 234 242 269 283 301 320 339 428 547
1350.0 665 785 866 898 939 973 955 938 912 800
1390.0 665 550 472 463 477 511 547 595 703 859
1430.0 1054 1292 1609 1969 2279 2571 2706 2609 2410 2100
1470.0 1731 1399 1198 1141 1290 1776 2505 3101 3250 2851
1510.0 2126 1484 1057 807 678 616 583 548 505 492
1550.0 491 479 471 500 539 580 656 751 855 935
1590.0 1001 1082 1217 1434 1679 1834 1835 1704 1466 1276
1630.0 1250 1290 1277 1133 857 558 358 289 259 237
1670.0 223 227 260 292 340 390 390 360 329 292
1710.0 247 188 158 180 210 255 338 444 491 454
1750.0 365 296 249 221 212 223 234 227 212 178
1790.0 133 117 110 90 90 84 80 91 105 116
1830.0 115 110 107 84 68 70 58 45 45 41
1870.0 50 76 93 125 173 231 290 328 324 282
1910.0 215 149 100 69 61 49 40 36 29 27
1950.0 31 29 21 15 13 13 23 30 25 18
1990.0 9 4 7 12 8 1 0 4 12 8
2030.0 7 11 16 13 15 21 18 12 15 22
2070.0 29 28 18 9 9 13 15 19 22 22
2110.0 25 26 22 17 17 19 17 15 15 21
2150.0 29 30 26 21 13 6 9 13 12 12
2190.0 14 17 15 17 20 16 22 28 24 19
2230.0 21 29 22 19 11 1 6 13 14 9
2270.0 10 16 15 18 26 26 29 37 37 37
2310.0 36 32 31 33 30 26 33 35 29 32
2350.0 37 39 40 39 47 50 46 52 52 49
2390.0 58 66 72 69 68 72 77 79 73 70
2430.0 70 65 64 71 73 74 83 76 74 84
2470.0 87 91 90 89 86 78 66 58 56 56
2510.0 58 55 48 50 45 39 41 41 47 59
2550.0 64 64 59 60 67 70 66 68 71 62
2590.0 61 73 79 72 67 65 70 76 76 73
2630.0 69 73 74 67 70 71 73 72 71 71
2670.0 74 80 89 94 100 105 99 105 123 132
2710.0 132 140 169 204 252 329 411 477 495 459
2750.0 394 339 317 308 307 304 296 291 279 283
2790.0 296 310 333 364 401 441 478 529 595 661
2830.0 742 840 963 1113 1303 1558 1898 2342 2886 3495
2870.0 4079 4494 4666 4614 4430 4238 4104 4044 4049 4151
2910.0 4415 4914 5763 7087 8676 9837 10000 9161 7758 6560
2950.0 5951 5596 5265 5062 5052 5236 5435 5485 5400 5094
2990.0 4653 4317 4211 4341 4687 5172 5652 5952 5902 5502
3030.0 4931 4420 4149 4201 4490 4782 4803 4466 3830 3056
3070.0 2376 1881 1558 1333 1174 1067 952 839 761 682
3110.0 617 554 507 471 441 412 378 352 322 297
3150.0 270 242 226 215 188 168 155 150 150 134
3190.0 119 116 106 95 104 111 103 94 105 107
3230.0 98 93 88 92 96 89 88 93 81 73
3270.0 74 76 83 71 69 81 76 70 79 71
3310.0 53 57 59 68 68 56 55 57 61 53
3350.0 53 54 53 53 51 55 59 53 42 54
3390.0 66 68 66 54 52 47 43 44 42 38
3430.0 59 68 56 66 69 60 57 51 46 48
3470.0 36 44 52 47 60 53 41 45 46 46
3510.0 45 51 47 24 13 38 48 31 33 20
3550.0 22 36 37 24 0 10 35 48 45 18
3590.0 2 11 30 34 24 16 19 21 30 14
3630.0 11 26 24 34 37 32 47 74 74 77
3670.0 85 61 51 59 58 52 52 40 31 37
3710.0 16 6 10 12 21 32 19 20 18 4
3750.0 20 36 51 58 58 58 65 52 51 63
3790.0 75 78 69 80 85 81 73 46 31 44
3830.0 53 40 50 74 74
##END=
