##TITLE=4-Aminoantipyrine
##JCAMP-DX=4.24
##DATA TYPE=INFRARED SPECTRUM
##ORIGIN=NIST Mass Spectrometry Data Center
##OWNER=NIST Standard Reference Data Program
Collection (C) 2018 copyright by the U.S. Secretary of Commerce
on behalf of the United States of America. All rights reserved.
##CAS REGISTRY NO=83-07-8
##MOLFORM=C 11 H 13 N 3 O
##$NIST SOURCE=MSDC-IR
##SPECTROMETER/DATA SYSTEM=HP-GC/MS/IRD
##STATE=gas
##XUNITS=1/CM
##YUNITS=ABSORBANCE
##XFACTOR=1.0
##YFACTOR=0.000004300
##DELTAX=4.0
##FIRSTX=550.0
##LASTX=3846.0
##FIRSTY=0.000727
##MAXX=3846
##MINX=550
##MAXY=0.043
##MINY=0
##NPOINTS=825
##XYDATA=(X++(Y..Y))
550.0 169 206 146 227 290 373 413 415 370 286
590.0 210 155 134 127 145 182 204 225 240 264
630.0 320 413 534 613 618 570 551 622 730 807
670.0 816 785 778 854 1026 1222 1308 1234 1052 827
710.0 652 552 493 464 470 505 587 758 979 1204
750.0 1373 1446 1386 1165 869 599 392 269 219 200
790.0 185 174 158 152 150 143 129 125 131 125
830.0 103 90 79 80 84 87 89 81 73 82
870.0 88 81 81 86 91 104 117 127 129 128
910.0 140 163 172 161 130 92 57 33 11 6
950.0 10 13 23 37 53 55 65 79 83 89
990.0 100 106 107 109 109 108 116 136 178 209
1030.0 200 163 113 86 74 70 72 78 98 116
1070.0 134 144 136 136 145 172 216 244 254 249
1110.0 246 270 328 413 490 526 539 546 584 678
1150.0 812 953 1103 1180 1176 1139 1046 913 743 533
1190.0 376 312 314 367 440 505 540 547 573 615
1230.0 661 706 748 807 931 1140 1441 1834 2253 2580
1270.0 2717 2636 2412 2138 1881 1689 1614 1652 1738 1789
1310.0 1757 1665 1582 1562 1617 1743 1856 1840 1650 1343
1350.0 1043 835 726 669 614 542 464 405 375 361
1390.0 357 358 359 376 428 508 601 692 767 811
1430.0 788 718 670 700 797 917 983 981 950 889
1470.0 834 805 828 972 1387 2183 2905 3015 2475 1530
1510.0 834 619 541 505 492 492 492 494 500 511
1550.0 518 509 497 491 501 546 639 810 1082 1477
1590.0 1948 2352 2499 2361 2044 1704 1427 1187 985 822
1630.0 702 627 594 597 615 646 696 774 870 1003
1670.0 1189 1404 1634 1838 2081 2480 3247 4643 6688 8777
1710.0 10000 9849 8265 5913 3877 2542 1764 1304 1017 809
1750.0 645 524 430 358 302 261 229 215 201 186
1790.0 169 149 134 122 115 104 93 84 74 65
1830.0 59 56 52 50 52 62 72 74 69 59
1870.0 50 50 50 42 30 27 28 30 28 28
1910.0 36 43 51 64 76 91 98 90 81 74
1950.0 70 61 43 28 20 13 13 20 26 25
1990.0 20 19 18 15 10 8 7 5 2 3
2030.0 2 3 2 1 0 0 1 4 5 8
2070.0 8 6 4 4 10 9 11 13 11 10
2110.0 12 12 10 9 7 6 10 11 12 10
2150.0 8 11 11 13 18 15 11 14 17 16
2190.0 17 20 16 16 18 19 22 22 23 19
2230.0 22 31 33 38 44 50 61 63 62 68
2270.0 74 75 77 73 66 59 52 40 36 36
2310.0 32 29 35 38 29 26 26 29 30 30
2350.0 29 30 29 27 29 30 30 29 25 23
2390.0 19 14 11 10 11 13 17 18 18 14
2430.0 16 17 18 23 15 15 18 17 17 15
2470.0 15 17 17 16 19 19 16 17 23 26
2510.0 23 20 13 14 20 21 23 20 14 17
2550.0 19 19 23 24 23 22 22 23 19 18
2590.0 27 30 29 30 23 22 25 23 24 30
2630.0 32 23 17 15 12 11 14 10 5 16
2670.0 19 19 19 16 20 22 22 22 18 21
2710.0 25 26 24 25 33 32 23 23 30 28
2750.0 28 36 44 49 48 47 57 68 83 96
2790.0 104 125 161 193 203 194 174 148 124 114
2830.0 117 125 134 144 161 180 206 242 292 365
2870.0 441 517 584 637 679 688 679 651 601 549
2910.0 524 534 581 673 772 820 782 664 525 417
2950.0 368 353 345 344 355 389 450 550 632 640
2990.0 586 489 410 403 441 470 455 409 357 348
3030.0 378 433 490 529 550 556 558 561 579 641
3070.0 715 766 750 645 523 419 359 329 300 255
3110.0 200 162 138 127 116 108 107 103 90 83
3150.0 86 83 85 85 77 77 81 85 91 91
3190.0 89 94 95 85 84 89 92 103 101 94
3230.0 92 83 76 78 77 69 66 63 63 58
3270.0 58 59 51 50 55 52 51 54 53 43
3310.0 46 51 53 54 47 55 59 56 65 88
3350.0 111 150 203 242 263 258 230 193 163 144
3390.0 133 132 133 143 154 155 143 135 138 130
3430.0 130 143 163 180 201 218 227 213 182 159
3470.0 136 115 101 91 82 75 69 62 59 61
3510.0 52 48 47 34 30 36 38 38 28 25
3550.0 33 28 23 26 24 26 34 23 7 7
3590.0 20 22 18 31 29 13 16 28 36 29
3630.0 19 20 21 27 26 21 23 23 28 25
3670.0 23 29 34 36 30 26 31 34 31 25
3710.0 17 9 9 15 14 20 26 24 16 10
3750.0 10 13 23 31 30 27 26 31 28 23
3790.0 24 28 25 16 12 17 13 10 15 18
3830.0 20 18 10 7 9
##END=
