##TITLE=4-Acetamidoantipyrene
##JCAMP-DX=4.24
##DATA TYPE=INFRARED SPECTRUM
##ORIGIN=NIST Mass Spectrometry Data Center
##OWNER=NIST Standard Reference Data Program
Collection (C) 2018 copyright by the U.S. Secretary of Commerce
on behalf of the United States of America. All rights reserved.
##CAS REGISTRY NO=83-15-8
##MOLFORM=C 13 H 15 N 3 O 2
##$NIST SOURCE=MSDC-IR
##SPECTROMETER/DATA SYSTEM=HP-GC/MS/IRD
##STATE=gas
##XUNITS=1/CM
##YUNITS=ABSORBANCE
##XFACTOR=1.0
##YFACTOR=0.000000900
##DELTAX=4.0
##FIRSTX=550.0
##LASTX=3846.0
##FIRSTY=0.000877
##MAXX=3846
##MINX=550
##MAXY=0.009
##MINY=0
##NPOINTS=825
##XYDATA=(X++(Y..Y))
550.0 974 1557 1131 891 635 626 622 653 713 655
590.0 664 624 583 539 478 500 540 508 496 432
630.0 312 346 523 666 743 741 606 506 460 345
670.0 264 289 347 450 592 717 770 634 492 420
710.0 341 336 384 450 572 760 979 1168 1200 1055
750.0 890 768 652 533 488 494 455 418 381 304
790.0 244 192 137 108 100 108 106 81 74 99
830.0 108 79 64 71 48 16 22 28 29 37
870.0 59 75 84 78 74 100 101 100 123 149
910.0 153 146 191 203 157 150 158 178 211 227
950.0 230 219 210 184 198 232 226 246 314 358
990.0 351 341 346 311 311 373 437 493 551 535
1030.0 449 379 364 402 394 358 370 369 379 404
1070.0 397 408 375 339 343 364 374 357 361 407
1110.0 431 425 431 483 539 599 637 656 637 587
1150.0 592 624 644 657 688 663 607 575 566 558
1190.0 534 519 545 579 603 663 792 953 1163 1442
1230.0 1851 2373 3011 3560 3797 3735 3599 3532 3446 3273
1270.0 3040 2814 2601 2430 2261 2083 1958 1882 1835 1739
1310.0 1585 1456 1344 1244 1217 1275 1432 1684 1993 2405
1350.0 2860 3119 3103 2953 2793 2627 2338 2009 1811 1897
1390.0 2205 2617 2891 2775 2365 1876 1533 1362 1284 1214
1430.0 1111 1057 1080 1145 1299 1520 1759 1857 1838 1814
1470.0 1862 1965 2048 2253 2753 3723 4745 5042 4470 3795
1510.0 3528 3366 3075 2714 2344 2037 1799 1601 1466 1350
1550.0 1203 1078 994 914 849 823 809 858 957 1099
1590.0 1312 1494 1512 1297 964 723 629 580 574 561
1630.0 568 585 632 705 800 945 1148 1399 1706 1975
1670.0 2152 2211 2210 2360 2818 3741 5266 7342 9241 10000
1710.0 9315 7751 6291 5565 5209 4686 3799 2772 1997 1505
1750.0 1176 957 808 674 587 521 472 473 455 430
1790.0 403 373 352 304 246 240 218 177 176 181
1830.0 183 169 164 183 170 162 152 151 167 156
1870.0 140 128 126 118 105 108 100 99 90 104
1910.0 102 102 117 111 120 143 144 143 146 132
1950.0 128 124 114 97 84 75 71 70 65 69
1990.0 75 69 68 64 69 82 81 74 64 57
2030.0 56 67 76 65 59 62 59 65 63 39
2070.0 28 54 69 68 69 53 36 46 56 53
2110.0 34 19 27 46 42 52 73 69 51 49
2150.0 56 65 55 40 42 49 50 53 52 39
2190.0 48 60 46 45 37 11 21 55 46 28
2230.0 32 37 31 26 42 43 44 54 51 31
2270.0 35 45 38 32 51 62 79 72 40 44
2310.0 58 63 72 84 91 89 63 48 73 68
2350.0 68 63 44 43 61 60 54 58 40 33
2390.0 34 18 20 27 24 41 37 48 69 67
2430.0 63 62 71 74 73 50 41 65 53 37
2470.0 46 38 39 45 34 29 40 60 81 65
2510.0 33 25 38 56 63 33 13 38 29 22
2550.0 50 38 36 56 37 7 0 23 56 88
2590.0 67 36 46 62 69 48 35 42 48 47
2630.0 55 52 37 60 54 28 47 67 64 47
2670.0 37 52 31 13 17 33 49 35 42 51
2710.0 52 51 66 63 44 22 33 58 54 70
2750.0 72 61 43 53 62 71 91 93 87 76
2790.0 116 145 140 115 118 166 181 171 178 138
2830.0 104 130 137 122 136 178 188 180 195 207
2870.0 202 251 312 356 416 450 501 543 529 512
2910.0 487 468 453 471 562 640 698 712 656 569
2950.0 454 377 340 346 341 308 341 397 443 493
2990.0 499 432 383 331 288 318 356 367 389 389
3030.0 385 401 407 432 473 472 415 438 509 540
3070.0 599 659 658 588 465 368 323 301 258 227
3110.0 185 145 136 100 93 91 82 111 116 92
3150.0 77 69 51 49 67 30 11 23 40 62
3190.0 70 84 87 91 91 97 94 65 71 97
3230.0 72 77 98 96 77 51 97 111 78 66
3270.0 55 62 64 71 64 60 79 87 59 39
3310.0 85 105 127 139 85 56 61 94 136 128
3350.0 150 202 217 213 211 205 233 311 326 323
3390.0 373 452 573 748 835 802 706 535 389 293
3430.0 228 232 226 201 152 119 125 138 122 114
3470.0 144 145 135 109 53 46 71 85 89 84
3510.0 70 98 107 46 62 94 53 43 69 85
3550.0 100 131 139 127 134 102 62 16 27 82
3590.0 68 93 99 71 85 93 131 138 115 82
3630.0 79 103 84 53 42 48 56 30 32 148
3670.0 156 108 102 56 53 53 43 68 73 64
3710.0 77 92 102 113 102 63 71 95 96 84
3750.0 83 70 65 96 67 86 125 81 109 135
3790.0 79 34 24 20 8 5 2 7 17 26
3830.0 43 35 52 55 63
##END=
