##TITLE=1-Indanone
##JCAMP-DX=4.24
##DATA TYPE=INFRARED SPECTRUM
##ORIGIN=NIST Mass Spectrometry Data Center
##OWNER=NIST Standard Reference Data Program
Collection (C) 2018 copyright by the U.S. Secretary of Commerce
on behalf of the United States of America. All rights reserved.
##CAS REGISTRY NO=83-33-0
##MOLFORM=C 9 H 8 O
##$NIST SOURCE=MSDC-IR
##SPECTROMETER/DATA SYSTEM=HP-GC/MS/IRD
##STATE=gas
##XUNITS=1/CM
##YUNITS=ABSORBANCE
##XFACTOR=1.0
##YFACTOR=0.000003700
##DELTAX=4.0
##FIRSTX=550.0
##LASTX=3846.0
##FIRSTY=0.001998
##MAXX=3846
##MINX=550
##MAXY=0.037
##MINY=0
##NPOINTS=825
##XYDATA=(X++(Y..Y))
550.0 540 482 438 437 363 276 194 152 98 39
590.0 29 22 0 1 8 13 35 52 60 73
630.0 80 72 65 49 39 45 68 98 117 116
670.0 111 98 85 79 66 55 57 51 46 40
710.0 44 51 72 116 192 342 624 996 1326 1624
750.0 2461 2986 2143 1487 1245 858 487 227 97 44
790.0 37 36 38 50 66 90 125 194 263 274
830.0 260 228 169 108 54 37 42 32 13 5
870.0 11 28 36 45 58 61 57 51 51 57
910.0 63 60 56 48 46 42 39 41 46 49
950.0 50 63 80 94 113 124 134 144 148 161
990.0 197 271 378 503 633 734 808 847 853 836
1030.0 775 685 597 473 330 216 155 144 140 150
1070.0 190 235 274 313 347 367 361 330 278 208
1110.0 140 93 73 57 55 69 97 159 227 268
1150.0 288 297 304 328 344 348 356 378 389 370
1190.0 394 454 487 476 439 391 311 256 287 399
1230.0 561 677 733 744 714 640 569 660 904 1157
1270.0 1365 1507 1543 1438 1242 1066 940 874 864 882
1310.0 891 871 822 747 649 521 401 334 299 265
1350.0 232 198 165 134 104 81 69 62 54 50
1390.0 49 53 65 93 144 189 216 230 237 237
1430.0 241 274 339 413 488 590 706 791 852 874
1470.0 819 677 514 374 260 183 139 126 121 113
1510.0 104 91 78 63 56 58 57 56 66 73
1550.0 80 87 96 117 150 196 252 326 421 528
1590.0 656 821 1011 1179 1277 1286 1214 1068 849 609
1630.0 428 315 234 179 149 130 125 128 133 148
1670.0 176 209 253 317 392 468 550 635 741 891
1710.0 1135 1569 2361 3698 5670 7812 9234 9811 10000 9265
1750.0 7087 4630 2904 1840 1193 801 557 406 316 262
1790.0 233 219 214 211 205 201 195 194 188 177
1830.0 165 151 141 133 130 127 121 119 114 102
1870.0 85 78 76 71 63 53 49 52 57 64
1910.0 72 82 93 104 105 101 91 80 72 70
1950.0 74 80 82 83 81 70 55 40 35 33
1990.0 27 27 28 29 29 28 32 33 34 35
2030.0 34 34 35 35 32 29 27 28 25 16
2070.0 12 14 12 12 9 8 11 15 13 17
2110.0 16 11 9 13 11 10 12 9 9 13
2150.0 10 10 11 9 10 11 10 9 10 14
2190.0 19 19 22 23 23 27 29 26 18 16
2230.0 21 19 18 20 25 24 22 27 25 26
2270.0 32 31 35 38 35 33 29 28 33 34
2310.0 32 28 24 24 21 18 15 18 23 19
2350.0 17 15 17 16 13 16 19 17 13 12
2390.0 13 13 12 13 17 18 12 12 17 20
2430.0 18 13 13 15 11 11 14 13 8 10
2470.0 12 12 15 15 13 10 8 11 11 5
2510.0 3 1 0 5 14 17 9 5 4 1
2550.0 7 11 12 7 10 13 8 8 14 17
2590.0 19 16 12 12 13 12 13 14 13 14
2630.0 15 21 23 25 23 16 18 21 22 24
2670.0 21 24 25 24 26 23 20 17 16 18
2710.0 16 11 13 21 25 24 22 20 23 28
2750.0 32 40 40 38 37 34 35 34 30 30
2790.0 31 30 31 34 43 50 59 68 66 66
2830.0 70 78 92 112 139 167 188 205 232 265
2870.0 285 290 289 273 255 226 191 166 156 166
2910.0 192 238 315 445 638 874 1072 1230 1332 1220
2950.0 1022 840 661 526 515 549 428 307 255 197
2990.0 149 106 89 87 101 134 180 240 310 394
3030.0 473 540 592 631 650 661 672 688 739 824
3070.0 893 909 881 826 735 604 451 312 222 158
3110.0 105 71 56 45 44 39 33 43 45 41
3150.0 36 30 26 31 32 27 24 30 34 25
3190.0 30 36 33 29 18 17 14 8 15 18
3230.0 14 13 9 7 13 9 7 13 12 6
3270.0 6 9 14 14 14 12 13 15 13 14
3310.0 13 14 11 12 14 6 20 24 16 11
3350.0 11 14 19 22 16 11 8 8 15 13
3390.0 10 20 24 23 24 29 31 30 36 41
3430.0 46 47 65 94 111 130 150 166 171 169
3470.0 159 131 98 71 57 53 50 52 43 34
3510.0 26 21 25 18 13 13 12 6 7 17
3550.0 18 20 12 5 7 7 12 8 6 17
3590.0 27 24 20 14 6 8 17 19 21 15
3630.0 14 20 10 13 15 16 23 13 5 3
3670.0 0 6 13 18 13 7 11 13 15 16
3710.0 18 20 21 27 28 15 8 16 20 14
3750.0 21 24 21 26 28 27 26 23 24 31
3790.0 33 26 23 22 19 21 22 27 30 21
3830.0 26 31 31 39 33
##END=
