##TITLE=2,4,6-Trihydroxybenzoic acid
##JCAMP-DX=4.24
##DATA TYPE=INFRARED SPECTRUM
##ORIGIN=EPA-IR VAPOR PHASE LIBRARY
##OWNER=SRD/NIST
Collection (C) 2018 copyright by the U.S. Secretary of Commerce
on behalf of the United States of America. All rights reserved.
##CAS REGISTRY NO=83-30-7
##MOLFORM=C7 H6 O5
##$NIST SOURCE=MSDC-IR
##STATE=gas
##XUNITS=1/CM
##YUNITS=ABSORBANCE
##XFACTOR=1.
##YFACTOR=0.001
##DELTAX=1.92898
##FIRSTX=549.8
##LASTX=4000.7
##FIRSTY=2.394
##MAXX=4000.7
##MINX=549.759
##MAXY=0.031594
##MINY=0
##NPOINTS=1790
##XYDATA=(X++(Y..Y))
549.759 2.394 2.374 2.424 2.574 2.524 2.244 2.114 1.984 2.004 2.004
569.049 1.684 1.504 1.464 1.2484 1.2043 1.263 1.2867 1.3583 1.3357 1.3158
588.339 1.3101 1.273 1.3797 1.4211 1.1856 1.1387 1.2843 1.3946 1.3906 1.3071
607.628 1.2773 1.2194 1.0872 1.1483 1.267 1.2022 1.1699 1.038 1.0068 1.0642
626.918 1.0129 0.9535 0.8847 0.8813 0.8606 0.8591 0.8443 0.9374 1.0028 1.1103
646.208 1.2401 1.3368 1.824 2.214 2.414 2.614 2.544 2.434 2.484 2.954
665.498 4.764 6.474 5.004 2.844 2.554 2.524 2.334 2.244 2.144 1.864
684.787 1.584 1.3174 0.9122 0.7254 0.7972 0.6109 0.455052 0.52562 0.5705 0.668
704.077 0.6256 0.5678 0.52202 0.52543 0.5851 0.6006 0.6634 0.52419 0.4307 0.46898
723.367 0.461723 0.354 0.3543 0.459597 0.53479 0.5795 0.4432 0.329 0.3647 0.4007
742.657 0.534 0.5712 0.4435 0.4318 0.47132 0.5645 0.6897 0.7623 0.7064 0.7695
761.947 0.8639 0.823 0.753 0.8687 1.0653 1.189 1.2978 1.3169 1.259 1.2682
781.236 1.3469 1.3549 1.4239 1.614 1.734 1.634 1.694 2.054 2.334 2.434
800.526 2.594 2.904 3.174 3.424 3.574 3.564 3.794 4.284 4.934 5.314
819.816 4.894 4.394 4.214 4.264 4.274 4.144 4.164 4.224 4.184 3.814
839.106 3.194 2.724 2.494 2.184 2.024 1.824 1.524 1.3964 1.363 1.3562
858.395 1.1395 0.9913 0.97 0.9587 1.0193 1.0513 1.0034 0.9152 0.8864 0.9574
877.685 1.0234 1.0507 1.2046 1.246 1.2179 1.2669 1.2739 1.2232 1.1802 1.1706
896.975 1.2267 1.2751 1.3702 1.3993 1.2917 1.2872 1.2666 1.1826 0.9963 0.9785
916.265 1.1171 1.1012 1.0402 1.0062 0.9215 0.9256 0.9658 0.9578 0.9471 0.9125
935.555 0.9458 0.895 0.8332 0.8645 0.8414 0.8747 0.8831 0.8514 0.8287 0.9217
954.844 1.1183 1.2257 1.1711 1.1398 1.2395 1.3377 1.514 1.724 1.934 2.304
974.134 2.904 3.594 4.294 5.084 6.034 7.104 8.064 8.794 9.374 9.744
993.424 10.184 10.854 11.454 11.494 10.834 10.034 9.404 8.954 8.404 7.534
1012.714 6.444 5.344 4.274 3.314 2.694 2.324 1.964 1.614 1.474 1.3722
1032.003 1.2106 1.124 1.0218 0.929 0.909 0.9588 0.9239 0.8437 0.7716 0.6774
1051.293 0.943 0.9419 0.8072 0.9522 1.1368 1.1713 0.9326 0.8285 0.9041 1.0751
1070.583 1.4152 1.554 1.454 1.4028 1.3479 1.514 1.634 1.594 1.844 2.224
1089.873 2.444 2.374 2.244 2.424 2.814 3.104 3.384 3.674 4.174 4.834
1109.163 5.224 5.834 6.984 8.314 9.854 11.594 13.414 15.184 16.774 18.354
1128.452 20.204 22.064 23.864 25.934 28.134 29.814 30.974 31.594 31.204 30.064
1147.742 28.564 27.224 25.944 24.364 22.674 20.484 17.564 14.264 11.044 8.414
1167.032 6.524 5.274 4.264 3.574 3.234 3.044 3.054 3.134 3.314 3.584
1186.322 4.274 5.154 5.904 6.894 8.124 9.334 10.144 11.004 12.194 13.304
1205.611 14.104 14.614 14.754 14.634 14.384 13.844 13.044 12.204 11.454 10.454
1224.901 9.304 8.204 7.174 6.284 5.414 4.494 3.694 3.074 2.774 2.614
1244.191 2.354 2.144 2.024 1.894 1.834 1.834 1.744 1.604 1.584 1.674
1263.481 1.724 1.694 1.684 1.934 2.094 2.264 2.454 2.594 2.784 2.964
1282.771 3.194 3.394 3.474 3.544 3.644 3.714 3.764 3.824 3.904 3.954
1302.060 3.974 3.994 3.954 3.894 3.824 3.704 3.624 3.604 3.544 3.474
1321.350 3.374 3.284 3.214 3.084 2.944 2.874 2.804 2.754 2.754 2.744
1340.640 2.734 2.784 2.784 2.724 2.714 2.704 2.644 2.474 2.254 2.094
1359.930 1.914 1.724 1.624 1.604 1.584 1.604 1.624 1.534 1.514 1.524
1379.219 1.504 1.514 1.524 1.534 1.534 1.564 1.594 1.614 1.624 1.624
1398.509 1.644 1.674 1.684 1.684 1.694 1.654 1.614 1.624 1.584 1.514
1417.799 1.4435 1.3951 1.4073 1.416 1.474 1.504 1.494 1.494 1.534 1.494
1437.089 1.4227 1.474 1.484 1.464 1.464 1.4474 1.484 1.534 1.594 1.664
1456.378 1.784 2.064 2.424 2.864 3.364 3.984 4.734 5.504 6.274 7.054
1475.668 7.814 8.554 9.114 9.554 9.894 10.074 10.074 9.964 9.754 9.374
1494.958 8.904 8.424 7.934 7.524 7.204 7.004 6.884 6.904 7.004 7.044
1514.248 7.004 6.884 6.744 6.604 6.514 6.324 5.824 5.134 4.434 3.754
1533.538 3.154 2.774 2.424 2.154 2.014 1.884 1.784 1.714 1.644 1.564
1552.827 1.534 1.544 1.584 1.594 1.634 1.704 1.804 1.894 2.014 2.194
1572.117 2.434 2.714 3.104 3.644 4.234 4.914 5.744 6.754 7.834 9.054
1591.407 10.404 11.784 13.194 14.574 15.834 16.954 17.964 18.844 19.584 20.144
1610.697 20.554 20.854 20.884 20.704 20.514 20.314 20.164 20.154 20.204 20.044
1629.986 19.574 18.864 17.884 16.734 15.564 14.304 12.834 11.304 9.854 8.564
1649.276 7.444 6.494 5.654 5.034 4.574 4.254 4.034 3.844 3.704 3.624
1668.566 3.624 3.554 3.474 3.404 3.314 3.224 3.034 2.824 2.624 2.394
1687.856 2.234 2.084 1.884 1.734 1.604 1.504 1.4369 1.3893 1.377 1.3238
1707.146 1.2622 1.2622 1.2611 1.2258 1.1826 1.2062 1.3448 1.4425 1.464 1.514
1726.435 1.594 1.644 1.644 1.664 1.694 1.734 1.704 1.744 1.804 1.724
1745.725 1.634 1.524 1.4279 1.3859 1.3044 1.2023 1.1277 1.0839 0.9919 0.9408
1765.015 0.9312 0.8576 0.8326 0.8108 0.7731 0.7889 0.7675 0.7189 0.6758 0.6409
1784.305 0.6214 0.6347 0.6004 0.54029 0.54245 0.5559 0.5798 0.5613 0.53322 0.5589
1803.594 0.5621 0.54849 0.5545 0.562 0.55281 0.5705 0.581 0.53168 0.51867 0.5573
1822.884 0.5849 0.5764 0.52744 0.50815 0.51914 0.50582 0.51726 0.53259 0.52741 0.50907
1842.174 0.455824 0.4262 0.49763 0.53832 0.51084 0.49898 0.460158 0.45279 0.4297 0.3923
1861.464 0.4225 0.4413 0.455932 0.4286 0.3961 0.4328 0.48663 0.4421 0.4284 0.46416
1880.754 0.4187 0.3991 0.3918 0.394 0.43 0.4407 0.453067 0.45437 0.4078 0.4053
1900.043 0.404 0.4225 0.461035 0.4408 0.4173 0.457668 0.4958 0.47219 0.45866 0.44651
1919.333 0.4089 0.3895 0.405 0.4379 0.4356 0.4309 0.44989 0.4344 0.3991 0.4147
1938.623 0.406 0.3565 0.3598 0.3816 0.3898 0.3608 0.3765 0.4074 0.4106 0.462492
1957.913 0.459918 0.4052 0.4003 0.3838 0.4163 0.455087 0.4471 0.46584 0.47892 0.47709
1977.202 0.44756 0.4217 0.4264 0.4168 0.4289 0.4416 0.463816 0.4908 0.4794 0.4948
1996.492 0.50474 0.48511 0.49035 0.51536 0.52272 0.50752 0.47803 0.458728 0.468 0.49054
2015.782 0.4525 0.4269 0.415 0.388 0.3885 0.3931 0.3801 0.331 0.3695 0.4273
2035.072 0.4045 0.375 0.367 0.3849 0.3636 0.3687 0.4018 0.4 0.37 0.358
2054.362 0.4063 0.368 0.342 0.387 0.3844 0.3774 0.3943 0.4072 0.3883 0.3545
2073.651 0.3803 0.4289 0.4149 0.4419 0.4303 0.4009 0.4168 0.4009 0.3938 0.3964
2092.941 0.3988 0.3776 0.3824 0.4067 0.409 0.47781 0.49092 0.460109 0.44735 0.458663
2112.231 0.50431 0.51831 0.52377 0.53595 0.5663 0.54013 0.52903 0.5674 0.5856 0.5996
2131.521 0.6226 0.6298 0.6454 0.6571 0.6616 0.664 0.6674 0.6499 0.6018 0.6108
2150.810 0.6282 0.6072 0.5912 0.5637 0.5706 0.5967 0.54475 0.49837 0.463214 0.460153
2170.100 0.45031 0.4248 0.457441 0.47731 0.46417 0.4423 0.458143 0.4913 0.49843 0.48616
2189.390 0.47079 0.49534 0.47312 0.4367 0.47251 0.47964 0.46926 0.48426 0.51094 0.52259
2208.680 0.51754 0.5565 0.5576 0.51805 0.52495 0.49574 0.49921 0.53898 0.50703 0.462151
2227.970 0.51864 0.5536 0.5245 0.49014 0.44448 0.436 0.47607 0.4903 0.457454 0.4057
2247.259 0.3814 0.4367 0.454001 0.455256 0.49072 0.48536 0.44797 0.4313 0.4436 0.47286
2266.549 0.47976 0.462139 0.50155 0.51124 0.49534 0.48011 0.457043 0.45457 0.4849 0.54755
2285.839 0.52842 0.52826 0.5916 0.5955 0.51084 0.53304 0.5621 0.4905 0.51634 0.52923
2305.129 0.49882 0.52854 0.5587 0.5571 0.51183 0.48427 0.5036 0.49984 0.49182 0.46899
2324.418 0.4471 0.463176 0.48264 0.50247 0.52411 0.53054 0.5805 0.6276 0.5681 0.569
2343.708 0.638 0.6237 0.5924 0.5986 0.6502 0.6751 0.7081 0.7266 0.6606 0.6844
2362.998 0.6657 0.6103 0.6275 0.6055 0.5772 0.5815 0.54041 0.49517 0.5058 0.50066
2382.288 0.45161 0.47057 0.50648 0.44527 0.4302 0.44805 0.46671 0.4376 0.459872 0.48115
2401.578 0.46699 0.4725 0.47466 0.50396 0.502 0.4737 0.46777 0.51174 0.50429 0.459373
2420.867 0.47918 0.50953 0.5969 0.6583 0.6061 0.5893 0.6217 0.5945 0.5551 0.6123
2440.157 0.6176 0.577 0.568 0.53403 0.5092 0.50776 0.53142 0.5723 0.6127 0.5638
2459.447 0.47159 0.4867 0.52754 0.54725 0.52476 0.50694 0.52998 0.5644 0.6369 0.6785
2478.737 0.643 0.6246 0.6799 0.7411 0.7452 0.7154 0.7722 0.812 0.7953 0.7594
2498.026 0.7632 0.8049 0.8377 0.8157 0.7265 0.6961 0.691 0.6875 0.6766 0.6522
2517.316 0.63 0.5882 0.54326 0.51675 0.49651 0.5239 0.50521 0.45022 0.4078 0.3983
2536.606 0.3682 0.348 0.3753 0.3796 0.337 0.3711 0.4187 0.4035 0.4062 0.4067
2555.896 0.3849 0.3556 0.3641 0.3745 0.415 0.44586 0.415 0.4299 0.4334 0.3965
2575.186 0.435 0.3948 0.3652 0.3651 0.319 0.325 0.338 0.3543 0.3711 0.3648
2594.475 0.3832 0.4132 0.4082 0.397 0.3708 0.3712 0.4155 0.3884 0.3784 0.4194
2613.765 0.4155 0.4242 0.379 0.4008 0.44464 0.3934 0.4269 0.4097 0.3788 0.3948
2633.055 0.4115 0.4771 0.453366 0.4142 0.4067 0.387 0.4345 0.46943 0.3881 0.3677
2652.345 0.4357 0.459026 0.4982 0.3864 0.285 0.3623 0.3733 0.3562 0.4081 0.454653
2671.634 0.4025 0.321 0.275 0.295 0.303 0.308 0.327 0.31 0.33 0.331
2690.924 0.287 0.298 0.312 0.329 0.315 0.263 0.241 0.192 0.177 0.213
2710.214 0.257 0.285 0.302 0.306 0.246 0.298 0.384 0.36 0.3661 0.34
2729.504 0.27 0.268 0.29 0.259 0.235 0.273 0.264 0.326 0.47113 0.48471
2748.794 0.4428 0.3896 0.3787 0.3708 0.318 0.329 0.326 0.294 0.305 0.312
2768.083 0.326 0.344 0.338 0.342 0.3859 0.327 0.265 0.318 0.347 0.352
2787.373 0.3704 0.3972 0.3877 0.4155 0.453941 0.4431 0.4719 0.46555 0.4339 0.4082
2806.663 0.3913 0.3902 0.318 0.33 0.37 0.4177 0.44627 0.345 0.3727 0.3907
2825.953 0.3602 0.4274 0.3884 0.3749 0.49157 0.54966 0.48675 0.49466 0.50822 0.460337
2845.242 0.4307 0.402 0.4253 0.453987 0.4383 0.424 0.4428 0.4239 0.3917 0.3773
2864.532 0.409 0.4214 0.4243 0.3612 0.3773 0.4278 0.3569 0.3966 0.4057 0.3641
2883.822 0.33 0.289 0.251 0.201 0.211 0.271 0.333 0.344 0.308 0.264
2903.112 0.272 0.251 0.229 0.276 0.291 0.339 0.397 0.382 0.341 0.337
2922.401 0.292 0.316 0.276 0.217 0.275 0.311 0.295 0.331 0.346 0.231
2941.691 0.242 0.349 0.351 0.304 0.26 0.142 0.151 0.341 0.48499 0.3969
2960.981 0.239 0.25 0.295 0.31 0.335 0.295 0.217 0.155 0.197 0.299
2980.271 0.24 0.178 0.239 0.27 0.331 0.3783 0.35 0.325 0.3824 0.4326
2999.561 0.334 0.268 0.348 0.3841 0.3755 0.3686 0.3826 0.3921 0.4364 0.54561
3018.850 0.5922 0.55266 0.4871 0.54416 0.6159 0.5885 0.5616 0.6142 0.726 0.7661
3038.140 0.7763 0.7954 0.8429 0.8491 0.7751 0.8921 1.0109 1.0065 0.9987 0.9199
3057.430 0.8089 0.8012 0.8432 0.8351 0.7893 0.7178 0.6365 0.5634 0.49303 0.460334
3076.720 0.439 0.463125 0.391 0.3811 0.4302 0.321 0.291 0.339 0.295 0.244
3096.009 0.316 0.321 0.222 0.163 0.201 0.244 0.258 0.309 0.336 0.301
3115.299 0.242 0.234 0.338 0.314 0.268 0.302 0.312 0.208 0.127 0.264
3134.589 0.294 0.227 0.333 0.316 0.263 0.327 0.3882 0.4246 0.316 0.2
3153.879 0.206 0.27 0.303 0.289 0.306 0.313 0.345 0.3549 0.245 0.199
3173.169 0.223 0.25 0.192 0.111 0.137 0.189 0.317 0.317 0.204 0.221
3192.458 0.234 0.234 0.272 0.312 0.286 0.235 0.27 0.311 0.27 0.222
3211.748 0.275 0.2 0.086 0.179 0.3548 0.354 0.303 0.3925 0.332 0.201
3231.038 0.131 0.119 0.229 0.289 0.238 0.214 0.284 0.3762 0.3975 0.3944
3250.328 0.454791 0.50031 0.3653 0.276 0.291 0.3 0.275 0.279 0.301 0.271
3269.617 0.28 0.301 0.3706 0.282 0.146 0.224 0.246 0.334 0.312 0.205
3288.907 0.175 0.234 0.29 0.283 0.313 0.248 0.272 0.348 0.3574 0.291
3308.197 0.245 0.338 0.3667 0.345 0.264 0.226 0.351 0.3985 0.4267 0.4204
3327.487 0.3904 0.3591 0.3728 0.4122 0.3884 0.3852 0.4377 0.46437 0.3939 0.3794
3346.777 0.48607 0.5742 0.6518 0.53165 0.4304 0.5605 0.4961 0.4656 0.54374 0.3778
3366.066 0.3591 0.4174 0.349 0.404 0.44689 0.51196 0.5069 0.4104 0.45526 0.5135
3385.356 0.4266 0.36 0.4022 0.3821 0.265 0.23 0.3601 0.454485 0.462767 0.454421
3404.646 0.4354 0.3874 0.3905 0.3955 0.49426 0.5345 0.4332 0.4274 0.48587 0.5658
3423.936 0.48968 0.3694 0.265 0.307 0.4006 0.3779 0.4054 0.4179 0.4247 0.4049
3443.225 0.3541 0.45045 0.48098 0.44905 0.3778 0.295 0.4349 0.3843 0.251 0.339
3462.515 0.4055 0.4115 0.3766 0.3565 0.378 0.306 0.23 0.254 0.275 0.258
3481.805 0.325 0.4124 0.396 0.4115 0.4364 0.313 0.232 0.297 0.303 0.391
3501.095 0.393 0.198 0.26 0.327 0.166 0.181 0.284 0.304 0.359 0.3928
3520.385 0.4057 0.3751 0.3595 0.3609 0.3744 0.399 0.4288 0.3662 0.3841 0.45209
3539.674 0.4295 0.3988 0.4264 0.3989 0.308 0.4012 0.3913 0.346 0.3746 0.307
3558.964 0.3734 0.3694 0.311 0.332 0.265 0.33 0.342 0.313 0.3625 0.352
3578.254 0.325 0.319 0.4199 0.463715 0.333 0.3586 0.305 0.264 0.3735 0.4374
3597.544 0.5789 0.5953 0.4522 0.3974 0.4251 0.47456 0.5666 0.6093 0.6412 0.6427
3616.833 0.7233 0.8344 0.9815 1.1932 1.3924 1.624 1.924 2.594 3.544 4.684
3636.123 5.954 7.534 9.484 11.524 13.514 14.984 15.794 16.224 16.264 16.094
3655.413 15.684 15.214 14.554 13.254 11.494 9.434 7.224 5.094 3.444 2.374
3674.703 1.644 1.3774 1.2027 0.76 0.47639 0.345 0.4409 0.5887 0.303 0.081
3693.993 0 0.122 0.332 0.353 0.3743 0.3541 0.333 0.205 0.098 0.202
3713.282 0.253 0.211 0.248 0.299 0.288 0.287 0.238 0.172 0.268 0.3863
3732.572 0.328 0.253 0.214 0.238 0.296 0.166 0.084 0.258 0.318 0.213
3751.862 0.171 0.205 0.211 0.14 0.085 0.076 0.145 0.147 0.137 0.111
3771.152 0.207 0.246 0.069 0.179 0.267 0.225 0.179 0.166 0.283 0.306
3790.441 0.319 0.3858 0.335 0.209 0.18 0.219 0.197 0.161 0.228 0.293
3809.731 0.302 0.266 0.266 0.175 0.13 0.165 0.175 0.232 0.143 0.144
3829.021 0.14 0.047 0.116 0.268 0.247 0.216 0.328 0.346 0.4287 0.53141
3848.311 0.459992 0.48074 0.50181 0.4064 0.303 0.321 0.255 0.266 0.33 0.242
3867.601 0.29 0.3817 0.293 0.225 0.329 0.314 0.33 0.4032 0.329 0.3736
3886.890 0.45239 0.429 0.3775 0.297 0.208 0.229 0.317 0.276 0.264 0.353
3906.180 0.377 0.407 0.4429 0.345 0.241 0.188 0.281 0.335 0.225 0.296
3925.470 0.331 0.267 0.4453 0.44614 0.299 0.329 0.228 0.149 0.237 0.325
3944.760 0.294 0.306 0.47675 0.6238 0.6355 0.51864 0.4361 0.3905 0.263 0.206
3964.049 0.3943 0.51127 0.51209 0.405 0.3815 0.4066 0.27 0.3695 0.4379 0.393
3983.339 0.4269 0.287 0.196 0.121 0.174 0.47709 0.50796 0.344 0.346 0.243
##END=
