##TITLE=2-Hydroxy-1,4-naphthoquinone
##JCAMP-DX=4.24
##DATA TYPE=INFRARED SPECTRUM
##ORIGIN=NIST Mass Spectrometry Data Center
##OWNER=NIST Standard Reference Data Program
Collection (C) 2018 copyright by the U.S. Secretary of Commerce
on behalf of the United States of America. All rights reserved.
##CAS REGISTRY NO=83-72-7
##MOLFORM=C 10 H 6 O 3
##$NIST SOURCE=MSDC-IR
##SPECTROMETER/DATA SYSTEM=HP-GC/MS/IRD
##STATE=gas
##XUNITS=1/CM
##YUNITS=ABSORBANCE
##XFACTOR=1.0
##YFACTOR=0.000002600
##DELTAX=4.0
##FIRSTX=550.0
##LASTX=3846.0
##FIRSTY=0.000473
##MAXX=3846
##MINX=550
##MAXY=0.026
##MINY=0
##NPOINTS=825
##XYDATA=(X++(Y..Y))
550.0 182 234 150 139 148 190 254 355 535 748
590.0 1002 1252 1392 1376 1149 831 545 310 178 126
630.0 88 54 68 167 307 430 503 524 496 526
670.0 540 431 297 158 77 53 67 93 168 322
710.0 585 918 1294 1796 1873 1425 1001 655 367 180
750.0 101 82 127 248 399 564 817 1019 873 653
790.0 572 508 438 383 299 178 110 62 25 43
830.0 44 14 6 0 28 81 138 233 379 527
870.0 725 854 689 480 341 212 137 114 109 83
910.0 79 105 106 98 99 105 108 96 100 118
950.0 140 180 244 318 425 656 1120 1712 2085 2154
990.0 1909 1274 660 373 232 183 178 163 160 165
1030.0 152 142 136 128 125 96 89 104 119 153
1070.0 201 256 285 282 279 271 281 302 313 316
1110.0 329 321 299 306 293 293 334 352 359 379
1150.0 422 454 451 426 366 291 244 254 314 443
1190.0 692 1158 2052 3489 4967 5685 5475 4380 2651 1291
1230.0 794 756 962 1361 1815 2139 2222 1994 1562 1222
1270.0 1130 1282 1678 2364 3243 4007 4386 4224 3590 2839
1310.0 2506 2930 3887 4822 5279 5025 4099 2890 1913 1314
1350.0 986 831 744 665 604 582 657 861 1233 1845
1390.0 2785 4014 5194 5831 5754 4957 3616 2336 1510 1026
1430.0 731 560 457 393 367 392 456 515 534 511
1470.0 421 313 243 189 149 119 100 94 94 94
1510.0 94 102 131 174 222 259 276 268 251 236
1550.0 217 205 218 246 273 323 396 471 588 769
1590.0 999 1216 1304 1257 1112 881 701 625 604 630
1630.0 705 850 1137 1592 2248 3012 3803 4616 5706 7238
1670.0 8947 10000 9902 8703 6273 3765 2194 1431 1069 848
1710.0 686 571 503 480 470 440 404 371 334 291
1750.0 242 197 154 124 104 101 109 103 86 78
1790.0 76 65 60 58 46 41 38 34 29 29
1830.0 30 31 38 46 56 57 64 76 85 82
1870.0 71 67 52 45 36 28 32 31 28 31
1910.0 31 35 41 41 39 42 44 41 48 55
1950.0 60 66 62 55 58 59 57 56 52 43
1990.0 34 29 26 26 27 29 23 17 19 17
2030.0 14 14 20 20 16 18 18 15 12 14
2070.0 15 10 4 4 10 6 1 6 6 11
2110.0 10 7 5 0 6 10 12 14 21 25
2150.0 17 12 4 11 22 19 22 26 21 20
2190.0 24 27 25 21 25 14 11 20 21 22
2230.0 13 15 18 19 17 19 13 5 14 28
2270.0 22 15 20 17 10 14 15 14 18 22
2310.0 29 34 32 41 43 29 24 24 18 23
2350.0 29 19 22 31 26 27 33 31 30 31
2390.0 26 35 36 27 31 36 38 40 32 33
2430.0 38 27 23 29 37 33 25 21 26 27
2470.0 23 31 27 25 33 34 30 28 29 26
2510.0 23 22 23 25 30 35 34 31 38 38
2550.0 26 13 13 17 18 18 12 13 18 24
2590.0 32 33 35 51 59 53 57 56 55 50
2630.0 37 36 42 45 40 41 42 34 39 51
2670.0 42 30 25 23 26 24 20 4 2 12
2710.0 13 14 13 11 8 17 22 18 10 7
2750.0 10 3 8 21 24 14 5 11 21 37
2790.0 46 30 27 34 27 21 21 25 24 27
2830.0 21 15 23 32 32 30 34 42 52 47
2870.0 31 41 68 71 62 63 57 43 41 47
2910.0 46 45 37 27 34 35 26 31 28 19
2950.0 14 17 20 12 23 29 21 22 9 9
2990.0 27 34 41 45 48 61 71 67 63 76
3030.0 94 104 104 112 140 153 145 153 186 239
3070.0 350 482 564 590 539 405 252 145 93 92
3110.0 96 89 92 82 66 70 74 74 91 87
3150.0 72 77 72 62 63 58 41 36 39 51
3190.0 39 18 22 33 36 27 16 17 24 32
3230.0 36 18 25 39 33 38 42 42 48 46
3270.0 36 30 36 38 40 50 61 73 84 88
3310.0 98 139 170 186 192 210 212 173 154 143
3350.0 118 100 93 92 81 64 59 67 81 91
3390.0 102 111 130 148 177 217 297 426 640 956
3430.0 1403 1837 2077 2125 1964 1607 1235 959 801 715
3470.0 652 585 483 362 261 195 139 111 102 83
3510.0 73 67 55 42 30 20 30 37 21 10
3550.0 6 18 26 19 6 0 13 34 29 12
3590.0 9 29 35 29 19 3 16 27 27 21
3630.0 23 12 8 16 12 6 5 22 42 34
3670.0 12 21 22 17 16 21 34 37 45 48
3710.0 32 34 48 43 34 50 52 60 69 78
3750.0 108 110 95 90 78 66 49 33 47 66
3790.0 74 60 46 36 27 16 20 34 22 15
3830.0 23 20 22 27 13
##END=
