##TITLE=1,5-Dibenzoylnaphthalene
##JCAMP-DX=4.24
##DATA TYPE=INFRARED SPECTRUM
##ORIGIN=EPA-IR VAPOR PHASE LIBRARY
##OWNER=SRD/NIST
Collection (C) 2018 copyright by the U.S. Secretary of Commerce
on behalf of the United States of America. All rights reserved.
##CAS REGISTRY NO=83-80-7
##MOLFORM=C 24 H 16 O 2
##$NIST SOURCE=MSDC-IR
##STATE=gas
##XUNITS=1/CM
##YUNITS=ABSORBANCE
##XFACTOR=1.
##YFACTOR=0.001
##DELTAX=3.85796
##FIRSTX=501.5
##LASTX=4000.7
##FIRSTY=0.497724
##MAXX=4000.7
##MINX=501.534
##MAXY=0.019675
##MINY=0
##NPOINTS=908
##XYDATA=(X++(Y..Y))
501.534 0.497724 0.4524 0.499927 0.59224 0.55504 0.4773 0.4041 0.4132 0.500806 0.6321
540.114 0.7052 0.5849 0.4223 0.4129 0.4735 0.499217 0.51909 0.54338 0.665 0.8794
578.693 0.9179 0.7805 0.7349 0.7074 0.6374 0.6509 0.7064 0.7681 0.8357 0.9863
617.273 1.3082 1.845 3.205 5.145 5.495 4.205 3.705 4.545 4.825 3.665
655.852 2.445 1.945 1.775 1.775 1.855 1.965 2.175 2.655 3.465 4.195
694.432 4.435 4.405 4.585 5.155 5.925 6.345 5.905 4.805 3.675 2.835
733.011 2.335 2.095 2.115 2.305 2.375 2.055 1.605 1.3273 1.2369 1.3234
771.591 1.615 2.265 3.595 5.875 7.965 7.865 5.705 3.595 2.315 1.575
810.170 1.191 0.9731 0.9006 0.9066 0.9182 0.915 0.9175 0.9012 0.8407 0.777
848.750 0.7235 0.6791 0.632 0.6345 0.6615 0.6378 0.6404 0.6792 0.7346 0.7935
887.330 0.9137 1.0927 1.3204 1.4861 1.525 1.545 1.535 1.525 1.4604 1.4361
925.909 1.4831 1.4725 1.4303 1.4101 1.4372 1.495 1.695 2.125 3.005 4.475
964.489 6.595 9.215 11.025 10.185 7.145 4.345 2.855 2.155 2.055 2.385
1003.068 2.205 1.4847 1.1121 1.0496 1.0918 1.2833 1.3808 1.2229 1.0453 0.966
1041.648 0.8815 0.8351 0.9619 1.186 1.4683 1.695 1.595 1.3347 1.135 1.0005
1080.227 0.9283 0.9622 0.8869 0.7533 0.7866 0.8252 0.9094 0.9742 0.9832 1.0515
1118.807 1.0019 0.8593 0.8314 0.8943 0.9909 1.0866 1.2244 1.4512 1.865 2.715
1157.387 3.955 4.635 3.895 2.855 3.065 4.465 5.125 3.835 2.545 2.635
1195.966 3.605 4.525 4.905 5.145 5.285 4.875 4.075 3.265 2.625 2.335
1234.546 2.365 2.655 3.135 3.625 4.135 4.955 6.355 8.635 12.165 16.635
1273.125 19.675 18.395 13.625 8.935 6.135 4.665 3.835 3.475 3.535 4.005
1311.705 4.545 4.305 3.245 2.315 1.875 1.665 1.475 1.2403 1.0234 0.8606
1350.284 0.7466 0.6815 0.652 0.63 0.6367 0.6761 0.7064 0.734 0.7425 0.7392
1388.864 0.7463 0.7762 0.8584 1.0206 1.2282 1.2881 1.1347 0.9559 0.859 0.843
1427.443 0.8792 0.9531 1.1022 1.4467 2.225 3.285 3.395 2.295 1.3485 1.0511
1466.023 0.9582 0.9055 0.8938 0.9275 0.9762 1.0573 1.1801 1.3665 1.665 2.105
1504.603 2.565 2.705 2.385 1.895 1.555 1.3387 1.1893 1.0841 1.0001 0.953
1543.182 0.9383 0.9335 0.9341 0.9412 0.9532 1.0249 1.1492 1.3734 1.695 1.995
1581.762 2.145 2.205 2.335 2.505 2.555 2.305 1.835 1.463 1.2902 1.2145
1620.341 1.1887 1.1923 1.23 1.3001 1.4282 1.595 1.765 1.965 2.205 2.605
1658.921 3.145 3.955 5.285 7.605 11.535 16.325 18.645 16.405 11.885 7.945
1697.500 5.425 4.005 3.185 2.595 2.085 1.685 1.4201 1.2341 1.0793 0.9428
1736.080 0.8365 0.7873 0.7545 0.7259 0.7027 0.6838 0.6718 0.6512 0.627 0.6222
1774.659 0.6057 0.55897 0.52838 0.52267 0.51142 0.53589 0.6057 0.6733 0.7519 0.818
1813.239 0.807 0.7194 0.6311 0.58507 0.53524 0.49026 0.4734 0.4483 0.4194 0.4147
1851.819 0.4182 0.4192 0.4326 0.447 0.4639 0.497682 0.53797 0.57293 0.6022 0.6097
1890.398 0.6163 0.643 0.6556 0.6483 0.6246 0.6065 0.6058 0.57996 0.54171 0.529
1928.978 0.54936 0.58775 0.6164 0.6224 0.6224 0.6356 0.6675 0.6721 0.6387 0.5988
1967.557 0.58194 0.56065 0.49058 0.4222 0.375 0.356 0.361 0.351 0.336 0.335
2006.137 0.339 0.343 0.341 0.346 0.336 0.32 0.311 0.314 0.318 0.319
2044.716 0.327 0.317 0.305 0.303 0.307 0.315 0.305 0.291 0.299 0.311
2083.296 0.307 0.311 0.307 0.3 0.308 0.299 0.284 0.282 0.291 0.287
2121.875 0.283 0.292 0.297 0.295 0.283 0.279 0.296 0.296 0.289 0.304
2160.455 0.312 0.298 0.288 0.286 0.289 0.293 0.288 0.29 0.291 0.286
2199.035 0.287 0.293 0.293 0.271 0.264 0.285 0.302 0.311 0.313 0.305
2237.614 0.297 0.283 0.278 0.29 0.297 0.293 0.296 0.297 0.289 0.299
2276.194 0.294 0.284 0.28 0.275 0.281 0.276 0.28 0.283 0.291 0.308
2314.773 0.339 0.355 0.338 0.324 0.325 0.333 0.339 0.336 0.319 0.318
2353.353 0.313 0.29 0.275 0.281 0.284 0.3 0.322 0.326 0.33 0.336
2391.932 0.339 0.336 0.314 0.291 0.298 0.302 0.292 0.293 0.277 0.267
2430.512 0.285 0.279 0.245 0.244 0.263 0.262 0.255 0.256 0.276 0.28
2469.092 0.281 0.28 0.263 0.267 0.29 0.277 0.249 0.248 0.248 0.255
2507.671 0.26 0.254 0.258 0.261 0.256 0.253 0.256 0.25 0.243 0.252
2546.251 0.256 0.259 0.263 0.25 0.235 0.237 0.247 0.268 0.269 0.271
2584.830 0.292 0.295 0.294 0.275 0.266 0.256 0.259 0.271 0.26 0.283
2623.410 0.299 0.283 0.269 0.254 0.252 0.249 0.252 0.243 0.219 0.221
2661.989 0.23 0.222 0.216 0.224 0.219 0.23 0.24 0.251 0.252 0.238
2700.569 0.238 0.241 0.235 0.229 0.256 0.256 0.236 0.224 0.211 0.205
2739.148 0.229 0.245 0.259 0.294 0.273 0.269 0.292 0.277 0.263 0.257
2777.728 0.251 0.243 0.239 0.239 0.237 0.24 0.247 0.254 0.233 0.227
2816.308 0.24 0.237 0.232 0.241 0.231 0.233 0.264 0.273 0.273 0.269
2854.887 0.273 0.282 0.269 0.27 0.286 0.279 0.266 0.249 0.26 0.255
2893.467 0.252 0.259 0.263 0.259 0.242 0.229 0.213 0.223 0.254 0.258
2932.046 0.256 0.283 0.315 0.293 0.259 0.279 0.281 0.298 0.3 0.279
2970.626 0.282 0.29 0.283 0.302 0.34 0.374 0.384 0.375 0.4285 0.4849
3009.205 0.52328 0.58968 0.7047 0.8785 1.0971 1.3756 1.635 1.805 1.895 1.935
3047.785 2.025 2.145 2.275 2.615 3.275 4.185 4.875 4.555 3.635 3.225
3086.364 3.235 2.985 2.425 1.865 1.4616 1.1019 0.8183 0.6461 0.52465 0.4482
3124.944 0.375 0.358 0.369 0.327 0.275 0.261 0.285 0.315 0.285 0.26
3163.524 0.257 0.221 0.203 0.197 0.214 0.211 0.211 0.213 0.207 0.17
3202.103 0.122 0.118 0.144 0.167 0.144 0.114 0.11 0.135 0.16 0.155
3240.683 0.147 0.158 0.143 0.124 0.122 0.139 0.154 0.154 0.137 0.117
3279.262 0.142 0.142 0.134 0.156 0.159 0.149 0.127 0.126 0.177 0.199
3317.842 0.19 0.183 0.194 0.246 0.275 0.287 0.32 0.35 0.34 0.297
3356.421 0.249 0.243 0.259 0.268 0.262 0.224 0.206 0.167 0.128 0.117
3395.001 0.093 0.093 0.111 0.118 0.123 0.09 0.058 0.077 0.081 0.069
3433.580 0.073 0.074 0.078 0.073 0.085 0.111 0.093 0.049 0.062 0.082
3472.160 0.093 0.1 0.086 0.1 0.079 0.039 0.049 0.055 0.052 0.054
3510.740 0.038 0.057 0.065 0.071 0.064 0.036 0.037 0.031 0.047 0.08
3549.319 0.058 0.039 0.047 0.05 0.074 0.091 0.076 0.044 0.066 0.112
3587.899 0.111 0.065 0.05 0.052 0.044 0.052 0.09 0.125 0.109 0.065
3626.478 0.056 0.044 0.061 0.064 0.058 0.069 0.032 0.026 0.031 0.053
3665.058 0.063 0.054 0.056 0.035 0.037 0.036 0.031 0.056 0.052 0.076
3703.637 0.111 0.092 0.059 0.065 0.088 0.097 0.079 0.092 0.094 0.09
3742.217 0.081 0.047 0.021 0.069 0.111 0.096 0.09 0.076 0.067 0.056
3780.797 0.06 0.111 0.117 0.09 0.083 0.068 0.056 0.028 0.041 0.099
3819.376 0.122 0.11 0.058 0.035 0.038 0.023 0.03 0.065 0.085 0.076
3857.956 0.071 0.029 0.002 0.006 0 0.04 0.091 0.082 0.048 0.035
3896.535 0.055 0.063 0.076 0.066 0.052 0.071 0.055 0.08 0.098 0.049
3935.115 0.051 0.055 0.041 0.009 0.003 0.035 0.036 0.039 0.032 0.037
3973.694 0.075 0.079 0.06 0.059 0.026 0 0.023 0.054
##END=
