##TITLE=2,4,6-Trimethoxybenzaldehyde
##JCAMP-DX=4.24
##DATA TYPE=INFRARED SPECTRUM
##ORIGIN=EPA-IR VAPOR PHASE LIBRARY
##OWNER=SRD/NIST
Collection (C) 2018 copyright by the U.S. Secretary of Commerce
on behalf of the United States of America. All rights reserved.
##CAS REGISTRY NO=830-79-5
##MOLFORM=C 10 H 12 O 4
##$NIST SOURCE=MSDC-IR
##STATE=gas
##XUNITS=1/CM
##YUNITS=ABSORBANCE
##XFACTOR=1.
##YFACTOR=0.001
##DELTAX=1.929
##FIRSTX=549.8
##LASTX=4000.8
##FIRSTY=3.35
##MAXX=4000.75
##MINX=549.766
##MAXY=0.01587
##MINY=0.00218
##NPOINTS=1790
##XYDATA=(X++(Y..Y))
549.766 3.35 3.4 3.38 3.45 3.38 3.41 3.37 3.41 3.56 3.43
569.056 3.3 3.28 3.39 3.44 3.43 3.34 3.3 3.31 3.28 3.39
588.346 3.4 3.36 3.15 3.02 3.02 2.93 2.88 2.8 2.71 2.67
607.636 2.55 2.51 2.42 2.35 2.41 2.55 2.54 2.53 2.54 2.46
626.926 2.54 2.66 2.72 2.67 2.63 2.64 2.7 2.8 2.71 2.69
646.216 2.75 2.71 2.72 2.7 2.67 2.74 2.61 2.49 2.52 2.63
665.506 2.62 2.47 2.45 2.53 2.46 2.41 2.45 2.43 2.43 2.39
684.796 2.37 2.35 2.33 2.34 2.3 2.38 2.44 2.4 2.43 2.41
704.086 2.4 2.44 2.46 2.41 2.36 2.39 2.4 2.4 2.39 2.29
723.376 2.25 2.35 2.44 2.46 2.44 2.51 2.54 2.49 2.49 2.44
742.666 2.44 2.48 2.37 2.21 2.2 2.19 2.22 2.29 2.3 2.28
761.956 2.28 2.3 2.34 2.34 2.39 2.5 2.55 2.58 2.57 2.58
781.246 2.58 2.61 2.68 2.77 2.89 2.97 3.04 3.07 3.08 3.13
800.536 3.13 3.11 3.2 3.19 3.23 3.31 3.23 3.26 3.28 3.26
819.826 3.34 3.44 3.46 3.36 3.24 3.23 3.18 3.1 3.08 3.06
839.116 3.01 2.94 2.85 2.79 2.75 2.7 2.69 2.59 2.47 2.43
858.406 2.49 2.48 2.34 2.32 2.3 2.23 2.3 2.33 2.3 2.21
877.696 2.18 2.27 2.36 2.35 2.28 2.33 2.39 2.36 2.33 2.35
896.986 2.32 2.32 2.36 2.33 2.37 2.42 2.36 2.36 2.44 2.44
916.276 2.44 2.42 2.43 2.48 2.45 2.5 2.52 2.56 2.61 2.64
935.566 2.69 2.68 2.76 2.89 2.93 3 3.09 3.02 2.95 2.91
954.856 2.82 2.8 2.72 2.64 2.61 2.58 2.56 2.53 2.49 2.49
974.146 2.49 2.46 2.47 2.47 2.44 2.49 2.53 2.53 2.51 2.49
993.436 2.48 2.48 2.48 2.49 2.5 2.54 2.55 2.55 2.55 2.55
1012.726 2.58 2.62 2.63 2.76 2.86 2.84 2.84 2.87 2.91 2.92
1032.016 2.97 3.04 3.15 3.23 3.28 3.36 3.42 3.55 3.65 3.68
1051.306 3.7 3.67 3.59 3.53 3.49 3.41 3.29 3.27 3.26 3.19
1070.596 3.17 3.2 3.3 3.37 3.35 3.4 3.51 3.6 3.74 3.95
1089.886 4.09 4.3 4.49 4.7 4.99 5.2 5.49 5.8 6.19 6.59
1109.176 6.92 7.33 7.77 8.18 8.58 8.92 9.15 9.31 9.48 9.64
1128.467 9.71 9.7 9.77 9.83 9.9 10.05 10.23 10.5 10.81 11.26
1147.757 11.71 11.98 12.09 11.96 11.69 11.21 10.44 9.66 8.86 8.05
1167.047 7.32 6.7 6.29 6.06 6 6 6 6.04 6.07 6.2
1186.337 6.39 6.51 6.81 7.18 7.58 8.1 8.76 9.59 10.26 10.87
1205.627 11.44 11.86 12.13 12.1 11.9 11.54 11.08 10.56 9.91 9.24
1224.917 8.51 7.79 7.18 6.45 5.82 5.28 4.77 4.38 4.07 3.82
1244.207 3.65 3.55 3.41 3.28 3.16 3.13 3.11 3.03 3.01 3.01
1263.497 3 2.96 2.9 2.9 2.88 2.85 2.88 2.89 2.9 2.93
1282.787 2.93 2.95 3 3.07 3.06 3.08 3.13 3.14 3.15 3.17
1302.077 3.18 3.13 3.1 3.15 3.25 3.34 3.45 3.58 3.8 4.03
1321.367 4.22 4.46 4.66 4.86 5 5.01 4.94 4.78 4.55 4.29
1340.657 4.03 3.78 3.54 3.34 3.21 3.09 2.99 2.93 2.84 2.81
1359.947 2.8 2.83 2.84 2.87 2.91 2.91 2.97 3.08 3.17 3.23
1379.237 3.3 3.45 3.65 3.81 4.04 4.42 4.82 5.27 5.78 6.25
1398.527 6.65 6.96 7.17 7.23 7.18 7.03 6.75 6.41 6.04 5.67
1417.817 5.37 5.14 4.94 4.79 4.67 4.55 4.49 4.47 4.43 4.41
1437.107 4.39 4.41 4.41 4.39 4.35 4.37 4.47 4.65 4.94 5.32
1456.397 5.75 6.17 6.53 6.74 6.81 6.68 6.45 6.21 5.97 5.62
1475.687 5.21 4.84 4.54 4.23 4 3.84 3.69 3.56 3.45 3.33
1494.977 3.24 3.18 3.12 3.07 3.05 3.13 3.15 3.06 3.04 3.07
1514.267 3.07 3.04 3.01 3.06 3.09 3.09 3.13 3.18 3.19 3.25
1533.557 3.38 3.4 3.41 3.55 3.67 3.74 3.8 3.96 4.16 4.36
1552.847 4.61 4.9 5.31 5.77 6.17 6.6 7.15 7.75 8.36 9.03
1572.137 9.67 10.25 10.86 11.34 11.73 12.09 12.39 12.68 12.98 13.35
1591.427 13.78 14.28 14.86 15.37 15.72 15.87 15.78 15.3 14.52 13.54
1610.717 12.36 11.09 9.89 8.73 7.67 6.8 6.12 5.58 5.15 4.84
1630.007 4.58 4.36 4.22 4.11 3.92 3.82 3.78 3.72 3.64 3.61
1649.297 3.52 3.53 3.55 3.46 3.43 3.39 3.42 3.47 3.46 3.45
1668.587 3.46 3.51 3.54 3.58 3.59 3.64 3.67 3.77 3.99 4.08
1687.877 4.25 4.56 4.98 5.58 6.42 7.5 8.9 10.49 11.76 12.77
1707.167 13.26 13.3 12.9 12.01 10.62 8.93 7.21 5.93 4.99 4.33
1726.457 3.94 3.67 3.5 3.4 3.3 3.16 3.12 3.07 3 2.97
1745.747 2.96 2.95 2.9 2.86 2.86 2.86 2.83 2.78 2.74 2.73
1765.037 2.73 2.72 2.66 2.66 2.67 2.62 2.62 2.58 2.55 2.57
1784.327 2.54 2.54 2.54 2.54 2.54 2.53 2.54 2.57 2.55 2.51
1803.617 2.5 2.52 2.51 2.5 2.52 2.53 2.51 2.49 2.48 2.46
1822.907 2.46 2.47 2.47 2.48 2.47 2.45 2.45 2.46 2.46 2.47
1842.197 2.51 2.48 2.48 2.46 2.44 2.44 2.4 2.41 2.41 2.42
1861.487 2.44 2.46 2.49 2.47 2.45 2.43 2.41 2.43 2.43 2.39
1880.777 2.43 2.48 2.44 2.43 2.46 2.45 2.43 2.42 2.42 2.41
1900.067 2.43 2.45 2.46 2.47 2.46 2.46 2.45 2.42 2.4 2.39
1919.357 2.39 2.38 2.42 2.41 2.41 2.45 2.44 2.44 2.48 2.49
1938.647 2.48 2.48 2.49 2.5 2.51 2.49 2.51 2.53 2.5 2.48
1957.937 2.45 2.48 2.55 2.55 2.5 2.5 2.54 2.57 2.56 2.54
1977.227 2.52 2.53 2.51 2.5 2.47 2.46 2.49 2.47 2.45 2.48
1996.517 2.48 2.48 2.47 2.44 2.45 2.43 2.42 2.45 2.47 2.46
2015.807 2.47 2.47 2.42 2.41 2.42 2.42 2.46 2.48 2.45 2.46
2035.097 2.45 2.42 2.44 2.44 2.44 2.47 2.46 2.43 2.43 2.46
2054.387 2.48 2.48 2.47 2.51 2.53 2.51 2.54 2.53 2.54 2.54
2073.677 2.54 2.56 2.56 2.56 2.54 2.53 2.52 2.54 2.59 2.62
2092.967 2.58 2.56 2.62 2.61 2.58 2.57 2.55 2.56 2.56 2.54
2112.257 2.52 2.51 2.51 2.53 2.51 2.52 2.55 2.54 2.55 2.56
2131.547 2.53 2.54 2.58 2.56 2.53 2.5 2.48 2.49 2.53 2.56
2150.837 2.56 2.58 2.58 2.57 2.56 2.52 2.51 2.52 2.56 2.58
2170.127 2.58 2.59 2.57 2.53 2.53 2.56 2.61 2.57 2.55 2.55
2189.417 2.51 2.53 2.52 2.47 2.48 2.46 2.44 2.49 2.48 2.48
2208.707 2.49 2.5 2.48 2.47 2.48 2.51 2.52 2.49 2.51 2.5
2227.997 2.52 2.55 2.52 2.54 2.55 2.53 2.53 2.54 2.56 2.57
2247.287 2.59 2.57 2.53 2.54 2.57 2.59 2.58 2.58 2.62 2.61
2266.577 2.57 2.56 2.56 2.55 2.58 2.59 2.55 2.51 2.54 2.57
2285.868 2.56 2.55 2.53 2.53 2.52 2.51 2.49 2.48 2.5 2.54
2305.158 2.56 2.56 2.55 2.54 2.49 2.47 2.47 2.46 2.48 2.52
2324.448 2.52 2.53 2.55 2.53 2.55 2.58 2.61 2.61 2.56 2.57
2343.738 2.56 2.54 2.54 2.54 2.56 2.56 2.59 2.6 2.61 2.6
2363.028 2.57 2.59 2.58 2.58 2.6 2.59 2.57 2.56 2.54 2.6
2382.318 2.61 2.57 2.58 2.56 2.55 2.57 2.57 2.55 2.57 2.57
2401.608 2.57 2.57 2.56 2.55 2.57 2.6 2.59 2.55 2.52 2.54
2420.898 2.56 2.54 2.52 2.54 2.55 2.53 2.55 2.54 2.57 2.55
2440.188 2.5 2.52 2.59 2.53 2.51 2.59 2.6 2.57 2.54 2.52
2459.478 2.51 2.53 2.53 2.56 2.6 2.56 2.55 2.58 2.61 2.59
2478.768 2.6 2.62 2.6 2.59 2.55 2.57 2.57 2.58 2.61 2.54
2498.058 2.56 2.59 2.56 2.52 2.51 2.54 2.56 2.57 2.61 2.64
2517.348 2.63 2.62 2.6 2.59 2.6 2.6 2.61 2.62 2.6 2.61
2536.638 2.63 2.63 2.62 2.61 2.63 2.6 2.58 2.58 2.58 2.59
2555.928 2.6 2.59 2.6 2.58 2.59 2.62 2.61 2.62 2.61 2.63
2575.218 2.59 2.57 2.61 2.64 2.64 2.65 2.62 2.58 2.6 2.58
2594.508 2.56 2.61 2.63 2.63 2.61 2.59 2.6 2.63 2.66 2.67
2613.798 2.7 2.69 2.69 2.7 2.66 2.63 2.65 2.66 2.65 2.6
2633.088 2.61 2.65 2.66 2.66 2.7 2.7 2.61 2.63 2.69 2.67
2652.378 2.66 2.68 2.65 2.64 2.69 2.66 2.63 2.65 2.67 2.67
2671.668 2.67 2.69 2.68 2.64 2.65 2.72 2.75 2.71 2.71 2.71
2690.958 2.68 2.68 2.68 2.72 2.72 2.7 2.74 2.71 2.73 2.74
2710.248 2.76 2.77 2.72 2.74 2.72 2.74 2.83 2.83 2.85 2.91
2729.538 2.86 2.84 2.9 2.93 2.93 2.92 2.94 2.96 2.99 3.01
2748.828 3 3.04 3.14 3.19 3.2 3.27 3.32 3.32 3.35 3.33
2768.118 3.39 3.41 3.38 3.4 3.37 3.32 3.26 3.23 3.2 3.19
2787.408 3.19 3.09 3.06 3.1 3.08 3.04 3.06 3.12 3.09 3.08
2806.698 3.09 3.08 3.14 3.18 3.19 3.16 3.15 3.19 3.25 3.32
2825.988 3.37 3.42 3.56 3.72 3.82 4.02 4.21 4.38 4.58 4.74
2845.278 4.87 4.92 4.98 5 4.95 4.92 4.88 4.8 4.68 4.62
2864.568 4.61 4.53 4.41 4.26 4.2 4.16 4.09 4.05 3.99 3.94
2883.858 3.85 3.8 3.77 3.74 3.79 3.79 3.75 3.74 3.82 3.81
2903.148 3.73 3.79 3.77 3.74 3.79 3.82 3.86 3.95 3.98 3.97
2922.438 4 4 4.05 4.12 4.23 4.46 4.65 4.83 5.02 5.23
2941.728 5.44 5.57 5.62 5.73 5.71 5.63 5.5 5.36 5.32 5.18
2961.018 5.08 4.98 4.89 4.85 4.75 4.55 4.42 4.35 4.18 4
2980.308 3.85 3.74 3.73 3.79 3.69 3.63 3.7 3.75 3.85 4.03
2999.598 4.05 4.13 4.39 4.57 4.7 4.75 4.78 4.83 4.75 4.5
3018.888 4.2 3.96 3.75 3.56 3.41 3.29 3.22 3.16 3.14 3.08
3038.178 3.02 3.01 2.94 2.9 2.94 2.97 2.91 2.8 2.77 2.84
3057.468 2.93 2.89 2.8 2.82 2.86 2.88 2.9 2.87 2.77 2.81
3076.758 2.87 2.89 2.89 2.88 2.92 2.92 2.9 2.79 2.78 2.88
3096.048 2.87 2.81 2.77 2.75 2.76 2.76 2.73 2.75 2.78 2.8
3115.338 2.87 2.86 2.83 2.87 2.85 2.79 2.74 2.72 2.69 2.7
3134.628 2.77 2.82 2.76 2.75 2.75 2.65 2.63 2.69 2.72 2.7
3153.918 2.69 2.69 2.71 2.71 2.72 2.84 2.83 2.76 2.73 2.74
3173.208 2.74 2.7 2.75 2.78 2.78 2.78 2.73 2.63 2.59 2.66
3192.498 2.75 2.79 2.75 2.67 2.62 2.65 2.66 2.71 2.76 2.65
3211.788 2.62 2.64 2.69 2.74 2.8 2.82 2.73 2.58 2.53 2.59
3231.078 2.58 2.58 2.6 2.69 2.79 2.77 2.64 2.54 2.6 2.68
3250.368 2.64 2.6 2.68 2.75 2.72 2.66 2.61 2.67 2.7 2.73
3269.658 2.75 2.75 2.68 2.66 2.63 2.58 2.59 2.59 2.63 2.61
3288.948 2.6 2.67 2.65 2.55 2.55 2.63 2.71 2.68 2.59 2.63
3308.238 2.73 2.75 2.64 2.6 2.67 2.64 2.62 2.65 2.73 2.76
3327.528 2.74 2.71 2.56 2.66 2.72 2.63 2.67 2.7 2.7 2.63
3346.818 2.55 2.61 2.67 2.73 2.73 2.67 2.64 2.57 2.54 2.6
3366.108 2.61 2.56 2.61 2.66 2.64 2.64 2.6 2.66 2.7 2.7
3385.398 2.73 2.64 2.7 2.75 2.74 2.77 2.75 2.78 2.75 2.7
3404.688 2.82 2.84 2.78 2.8 2.7 2.62 2.67 2.65 2.63 2.62
3423.978 2.62 2.57 2.67 2.7 2.57 2.61 2.69 2.69 2.66 2.63
3443.269 2.6 2.6 2.64 2.65 2.61 2.58 2.61 2.62 2.59 2.61
3462.559 2.64 2.67 2.66 2.67 2.68 2.68 2.7 2.74 2.68 2.61
3481.849 2.64 2.64 2.65 2.64 2.62 2.57 2.54 2.51 2.53 2.62
3501.139 2.66 2.69 2.74 2.7 2.6 2.6 2.66 2.65 2.61 2.66
3520.429 2.69 2.65 2.66 2.66 2.54 2.57 2.75 2.79 2.73 2.7
3539.719 2.71 2.65 2.57 2.53 2.53 2.55 2.57 2.64 2.61 2.54
3559.009 2.55 2.65 2.61 2.59 2.7 2.68 2.72 2.77 2.73 2.69
3578.299 2.66 2.58 2.64 2.76 2.75 2.58 2.55 2.68 2.71 2.72
3597.589 2.73 2.72 2.69 2.69 2.74 2.76 2.69 2.72 2.72 2.71
3616.879 2.69 2.63 2.68 2.64 2.61 2.7 2.67 2.65 2.67 2.67
3636.169 2.69 2.65 2.61 2.68 2.75 2.79 2.79 2.62 2.57 2.65
3655.459 2.73 2.74 2.61 2.66 2.74 2.65 2.75 2.85 2.8 2.74
3674.749 2.7 2.71 2.7 2.68 2.65 2.65 2.64 2.63 2.64 2.61
3694.039 2.65 2.74 2.69 2.63 2.62 2.67 2.77 2.8 2.86 2.87
3713.329 2.7 2.53 2.57 2.65 2.62 2.6 2.61 2.66 2.71 2.81
3732.619 2.89 2.83 2.8 2.71 2.7 2.77 2.75 2.81 2.77 2.71
3751.909 2.74 2.76 2.78 2.73 2.68 2.7 2.63 2.67 2.81 2.79
3771.199 2.72 2.69 2.7 2.65 2.67 2.7 2.71 2.79 2.75 2.77
3790.489 2.83 2.76 2.7 2.72 2.7 2.68 2.79 2.83 2.75 2.73
3809.779 2.7 2.65 2.7 2.78 2.74 2.7 2.71 2.72 2.71 2.73
3829.069 2.78 2.73 2.67 2.7 2.76 2.66 2.61 2.62 2.69 2.72
3848.359 2.67 2.72 2.74 2.84 2.74 2.64 2.7 2.62 2.67 2.77
3867.649 2.74 2.69 2.63 2.72 2.71 2.7 2.73 2.72 2.77 2.75
3886.939 2.78 2.84 2.84 2.73 2.71 2.69 2.63 2.72 2.79 2.75
3906.229 2.66 2.62 2.58 2.64 2.76 2.78 2.69 2.7 2.76 2.7
3925.519 2.74 2.82 2.85 2.82 2.75 2.72 2.64 2.68 2.74 2.71
3944.809 2.8 2.89 2.9 2.82 2.81 2.77 2.79 2.86 2.78 2.7
3964.099 2.73 2.7 2.66 2.77 2.92 2.85 2.75 2.68 2.69 2.8
3983.389 2.84 2.86 2.82 2.83 2.83 2.8 2.77 2.78 2.85 2.83
##END=
