##TITLE=Cyclododecanone
##JCAMP-DX=4.24
##DATA TYPE=INFRARED SPECTRUM
##ORIGIN=NIST Mass Spectrometry Data Center
##OWNER=NIST Standard Reference Data Program
Collection (C) 2018 copyright by the U.S. Secretary of Commerce
on behalf of the United States of America. All rights reserved.
##CAS REGISTRY NO=830-13-7
##MOLFORM=C 12 H 22 O
##$NIST SOURCE=MSDC-IR
##SPECTROMETER/DATA SYSTEM=HP-GC/MS/IRD
##STATE=gas
##XUNITS=1/CM
##YUNITS=ABSORBANCE
##XFACTOR=1.0
##YFACTOR=0.000006700
##DELTAX=4.0
##FIRSTX=550.0
##LASTX=3846.0
##FIRSTY=0.000583
##MAXX=3846
##MINX=550
##MAXY=0.067
##MINY=0
##NPOINTS=825
##XYDATA=(X++(Y..Y))
550.0 87 69 64 70 72 76 75 69 67 55
590.0 39 33 39 39 29 32 34 28 26 23
630.0 19 13 1 4 8 1 3 6 10 21
670.0 20 26 38 52 73 97 125 156 189 225
710.0 261 303 339 339 307 265 215 171 146 130
750.0 114 103 101 106 109 108 103 97 92 93
790.0 89 79 82 89 88 87 96 97 108 105
830.0 90 91 93 98 105 109 107 98 94 91
870.0 81 73 63 59 60 60 60 67 70 71
910.0 77 78 84 97 104 111 127 146 159 167
950.0 163 160 155 147 140 134 130 135 147 162
990.0 179 204 230 254 276 297 309 305 286 262
1030.0 241 231 227 224 224 222 226 242 272 314
1070.0 358 396 421 426 422 425 433 442 450 448
1110.0 432 413 391 369 343 313 283 257 244 248
1150.0 266 296 329 355 369 368 355 342 333 335
1190.0 345 356 366 367 357 345 338 336 345 363
1230.0 369 369 369 370 359 341 315 287 267 260
1270.0 266 280 300 320 340 349 344 328 303 284
1310.0 278 289 307 326 358 405 474 563 655 734
1350.0 791 804 770 694 582 462 356 272 219 192
1390.0 184 196 220 255 315 395 489 588 660 711
1430.0 765 831 921 1034 1139 1189 1191 1154 1116 1102
1470.0 1044 857 624 430 286 203 152 120 102 101
1510.0 94 79 73 64 54 47 43 42 42 41
1550.0 37 37 36 32 31 28 25 26 26 26
1590.0 28 29 26 27 29 31 35 39 42 48
1630.0 53 61 68 74 86 101 113 122 137 159
1670.0 187 216 245 285 329 383 491 677 997 1502
1710.0 2204 2967 3611 3738 3184 2341 1537 936 590 406
1750.0 308 245 202 174 158 146 127 115 107 94
1790.0 82 70 60 56 48 41 37 33 29 26
1830.0 23 20 20 24 23 17 14 15 14 14
1870.0 14 10 9 9 8 8 9 9 6 7
1910.0 5 4 4 3 4 3 1 2 3 2
1950.0 0 0 2 2 0 0 0 0 0 2
1990.0 4 5 5 3 3 4 4 6 5 6
2030.0 6 5 4 4 6 7 6 5 7 5
2070.0 5 5 5 6 7 7 5 5 7 5
2110.0 7 8 6 9 9 7 8 7 7 9
2150.0 9 8 8 11 9 7 8 8 6 6
2190.0 7 6 5 6 7 7 7 8 7 8
2230.0 6 5 6 8 7 8 8 6 7 7
2270.0 8 9 9 8 7 6 6 4 4 5
2310.0 6 5 3 3 0 0 0 0 0 2
2350.0 3 1 0 0 0 1 3 3 1 0
2390.0 0 1 1 0 0 4 7 4 2 2
2430.0 4 3 2 3 5 5 5 2 1 0
2470.0 2 4 4 4 3 3 4 6 7 11
2510.0 14 13 13 13 16 18 18 21 23 21
2550.0 18 17 17 18 17 18 19 19 21 22
2590.0 22 23 25 31 35 37 38 41 45 47
2630.0 49 55 61 68 74 80 87 95 102 111
2670.0 121 129 132 132 132 127 120 111 103 97
2710.0 90 87 83 81 80 81 82 85 87 89
2750.0 93 98 99 102 109 117 124 132 146 161
2790.0 176 190 208 229 254 283 314 349 386 427
2830.0 480 548 657 848 1187 1724 2369 2943 3331 3502
2870.0 3514 3447 3302 3079 2851 2720 2760 3042 3596 4376
2910.0 5288 6066 6718 7488 8392 9336 9981 10000 9418 8463
2950.0 7387 6398 5537 4667 3738 2884 2175 1631 1238 963
2990.0 775 638 540 463 399 349 302 264 233 204
3030.0 178 157 139 124 116 112 104 98 94 89
3070.0 84 80 76 71 70 64 58 58 56 53
3110.0 54 52 47 46 48 48 50 51 45 43
3150.0 45 45 44 42 39 42 42 39 35 35
3190.0 37 38 39 40 36 35 34 32 33 36
3230.0 35 35 32 28 25 24 24 23 20 21
3270.0 21 18 23 24 23 22 17 16 19 20
3310.0 18 16 16 19 16 15 17 17 20 20
3350.0 20 20 19 19 18 19 23 25 25 25
3390.0 27 29 36 44 47 57 73 79 81 81
3430.0 70 55 46 37 31 26 20 20 19 17
3470.0 14 14 15 13 8 6 7 12 15 11
3510.0 4 2 6 8 11 5 4 5 8 14
3550.0 9 4 0 3 15 12 6 8 9 18
3590.0 20 14 16 13 13 20 20 17 14 21
3630.0 19 13 13 14 19 22 19 15 11 10
3670.0 17 15 12 11 14 15 14 17 14 11
3710.0 14 12 10 18 22 19 20 18 18 20
3750.0 12 13 13 10 12 9 2 4 7 5
3790.0 1 2 9 10 9 9 12 15 11 7
3830.0 6 9 11 9 6
##END=
