##TITLE=Pentaflurobenzenesulfonyl chloride
##JCAMP-DX=4.24
##DATA TYPE=INFRARED SPECTRUM
##ORIGIN=EPA-IR VAPOR PHASE LIBRARY
##OWNER=SRD/NIST
Collection (C) 2018 copyright by the U.S. Secretary of Commerce
on behalf of the United States of America. All rights reserved.
##CAS REGISTRY NO=832-53-1
##MOLFORM=C 6 Cl F 5 O 2 S
##$NIST SOURCE=MSDC-IR
##STATE=gas
##XUNITS=1/CM
##YUNITS=ABSORBANCE
##XFACTOR=1.
##YFACTOR=0.001
##DELTAX=1.92898
##FIRSTX=549.8
##LASTX=4000.7
##FIRSTY=94.136
##MAXX=4000.7
##MINX=549.759
##MAXY=0.629816
##MINY=0
##NPOINTS=1790
##XYDATA=(X++(Y..Y))
549.759 94.136 115.866 144.686 166.536 163.136 159.926 169.576 184.216 204.466 229.686
569.049 253.636 265.576 261.366 238.886 202.686 161.976 121.996 92.486 81.446 89.416
588.339 110.586 133.476 150.096 157.946 154.546 141.466 119.346 91.636 66.426 47.546
607.628 34.556 25.906 20.356 17.026 14.996 13.976 13.766 14.026 14.456 14.926
626.918 15.776 16.976 18.606 20.746 23.736 27.596 32.286 37.776 43.576 49.356
646.208 55.286 60.306 62.486 61.426 57.186 50.056 41.326 32.266 24.106 17.446
665.498 12.546 9.276 6.856 5.226 4.286 3.496 3.006 2.636 2.326 2.096
684.787 1.886 1.826 1.686 1.516 1.4088 1.3727 1.516 1.606 1.566 1.566
704.077 1.4941 1.516 1.566 1.546 1.546 1.686 1.986 2.526 3.546 5.056
723.367 6.966 9.126 11.186 13.366 14.956 13.586 11.016 9.536 7.946 6.076
742.657 4.756 4.146 3.826 3.656 3.476 3.306 3.206 3.006 2.766 2.846
761.947 2.836 2.706 2.906 2.996 2.896 2.876 3.066 2.996 2.666 2.536
781.236 2.616 2.816 2.936 2.906 2.946 2.916 2.636 2.286 2.076 1.886
800.526 1.636 1.4699 1.4379 1.4929 1.576 1.646 1.516 1.4836 1.596 1.686
819.816 1.766 1.776 1.796 1.896 2.066 2.076 2.106 2.406 2.696 2.836
839.106 3.046 3.506 4.066 4.536 4.936 5.186 5.206 5.176 5.136 4.626
858.395 3.946 3.556 2.946 2.356 2.206 1.876 1.4721 1.2491 1.2104 1.0018
877.685 0.8174 0.9606 0.7765 0.6529 0.6872 0.57755 0.55547 0.6419 0.57202 0.52982
896.975 0.6532 0.7656 0.9001 0.8682 0.9621 1.1725 1.2186 1.2542 1.2781 1.2388
916.265 1.3458 1.3746 1.3958 1.626 1.726 1.756 1.916 2.066 2.156 2.216
935.555 2.416 2.626 2.736 2.966 3.326 3.726 4.146 4.586 5.036 5.576
954.844 6.186 6.856 7.566 8.276 8.926 9.506 10.126 10.866 11.626 12.626
974.134 13.886 15.706 18.386 22.546 29.096 38.756 52.906 72.556 97.376 125.696
993.424 153.716 175.976 188.366 190.776 184.936 168.976 142.846 113.456 87.536 68.136
1012.714 55.186 47.626 43.766 41.826 40.796 39.876 38.776 37.626 36.256 34.116
1032.003 31.206 27.846 24.436 21.046 17.836 14.776 12.236 10.356 9.046 8.466
1051.293 8.296 8.566 8.846 9.166 9.596 9.916 10.296 10.596 10.936 11.356
1070.583 11.786 12.166 12.416 12.936 13.816 14.626 15.896 18.466 22.026 27.236
1089.873 35.106 45.566 58.686 75.306 95.146 116.336 137.776 157.846 173.406 181.616
1109.163 181.396 172.656 155.566 133.236 109.116 84.976 63.906 48.286 37.976 31.856
1128.452 28.566 27.086 26.416 25.986 26.146 26.116 25.746 25.526 25.066 24.306
1147.742 23.846 23.836 24.276 25.216 26.696 28.406 30.036 31.976 33.456 33.666
1167.032 33.306 32.946 32.886 33.766 35.836 39.966 46.406 55.926 68.606 83.486
1186.322 101.376 121.766 143.666 166.296 186.836 201.606 208.856 203.506 182.116 154.106
1205.611 125.026 96.016 71.506 53.536 41.066 32.846 27.536 23.846 21.286 19.216
1224.901 17.616 16.276 15.006 13.956 12.986 12.336 12.226 12.276 12.326 12.636
1244.191 13.236 13.756 14.026 13.996 13.856 13.506 12.796 11.976 10.946 10.056
1263.481 9.416 8.896 8.366 8.086 8.286 8.576 8.946 9.476 10.196 11.076
1282.771 12.276 13.886 16.106 19.466 24.096 30.386 38.636 48.756 60.286 71.766
1302.060 81.356 87.246 87.986 83.116 73.236 59.846 45.306 31.956 21.336 14.066
1321.350 9.756 7.386 6.026 5.216 4.676 4.286 4.036 3.846 3.706 3.636
1340.640 3.646 3.596 3.566 3.526 3.466 3.456 3.506 3.566 3.666 3.856
1359.930 4.056 4.216 4.436 4.826 5.296 5.866 6.536 7.376 8.386 9.556
1379.219 10.986 12.706 14.746 17.136 20.076 23.486 27.396 31.956 37.166 42.736
1398.509 47.766 51.136 52.266 52.126 51.626 51.386 51.956 54.766 60.786 69.436
1417.799 77.836 82.846 82.766 79.456 73.596 63.156 49.836 38.636 31.206 27.036
1437.089 25.056 24.346 23.956 23.206 21.676 19.726 18.056 16.786 15.916 15.546
1456.378 15.826 16.676 17.966 19.966 22.716 26.286 30.926 36.776 44.016 52.836
1475.668 62.786 74.486 88.036 104.436 124.726 150.356 183.686 226.086 279.436 342.026
1494.958 410.546 482.836 548.146 598.266 626.406 629.816 609.666 572.696 523.566 467.796
1514.248 416.316 373.146 335.796 300.986 262.216 222.426 182.066 145.246 115.996 94.296
1533.538 78.046 65.056 55.336 47.306 40.756 35.616 31.496 28.026 25.156 22.616
1552.827 20.456 18.536 17.046 15.886 14.856 14.096 13.676 13.486 13.476 13.656
1572.117 13.796 13.956 14.296 14.656 15.086 15.606 16.156 16.746 17.416 17.956
1591.407 18.376 18.776 18.946 18.876 18.566 18.066 17.426 16.696 16.006 15.606
1610.697 15.856 16.846 18.446 20.826 23.986 27.906 32.546 37.836 43.636 49.586
1629.986 55.046 59.476 62.076 62.326 60.076 55.626 49.416 42.216 34.706 27.636
1649.276 21.736 17.376 13.956 11.386 9.706 8.406 7.336 6.606 6.056 5.606
1668.566 5.396 5.296 5.216 5.236 5.336 5.376 5.456 5.626 5.736 5.856
1687.856 5.986 6.116 6.346 6.586 6.876 7.156 7.276 7.156 6.766 6.266
1707.146 5.566 4.796 4.116 3.596 3.276 3.106 3.016 2.946 2.936 2.936
1726.435 2.836 2.696 2.676 2.706 2.706 2.716 2.846 2.956 3.086 3.276
1745.725 3.486 3.746 3.956 4.046 4.076 4.026 3.796 3.486 3.186 2.836
1765.015 2.486 2.276 2.126 1.996 1.856 1.716 1.706 1.676 1.656 1.676
1784.305 1.696 1.756 1.776 1.696 1.636 1.656 1.556 1.4489 1.3374 1.2158
1803.594 1.1019 0.9663 0.8878 0.8302 0.7639 0.7271 0.7119 0.6702 0.6017 0.6147
1822.884 0.6503 0.6556 0.6939 0.6796 0.6612 0.6881 0.6791 0.6131 0.6085 0.6311
1842.174 0.6777 0.7384 0.76 0.7853 0.8511 0.8968 0.9429 0.9953 1.0626 1.1402
1861.464 1.2221 1.2823 1.3159 1.3515 1.3409 1.3353 1.269 1.2295 1.1472 1.0865
1880.754 1.0647 0.9681 0.8848 0.8567 0.8427 0.8623 0.9289 0.9152 0.9379 1.0043
1900.043 1.0374 1.0165 0.9705 0.9358 0.8951 0.8854 0.8304 0.7735 0.774 0.7562
1919.333 0.7098 0.6714 0.6738 0.7372 0.738 0.6925 0.6861 0.6955 0.648 0.57528
1938.623 0.6261 0.6231 0.5146 0.52233 0.53965 0.55366 0.5306 0.505662 0.53357 0.55647
1957.913 0.5967 0.6164 0.6417 0.6637 0.7407 0.8079 0.7911 0.783 0.8617 0.9478
1977.202 0.947 0.9239 0.9553 0.9887 0.9984 1.0402 1.0909 1.1368 1.1979 1.2313
1996.492 1.2112 1.2887 1.3722 1.3927 1.4315 1.3827 1.281 1.1915 1.1511 1.1273
2015.782 1.0565 0.8986 0.7581 0.7011 0.57935 0.503444 0.51633 0.4718 0.49541 0.53556
2035.072 0.50947 0.54331 0.57848 0.58238 0.56213 0.59598 0.6599 0.7419 0.8542 0.9159
2054.362 1.0013 1.063 1.1485 1.2389 1.2593 1.3047 1.3962 1.4563 1.492 1.566
2073.651 1.586 1.586 1.556 1.4578 1.3736 1.3628 1.3449 1.2706 1.1721 1.0907
2092.941 1.0387 0.9804 0.9999 0.9293 0.8586 0.8317 0.7635 0.7309 0.7198 0.6997
2112.231 0.6243 0.57672 0.57137 0.53083 0.502329 0.52123 0.53128 0.54311 0.53932 0.51824
2131.521 0.4842 0.467 0.49299 0.54272 0.6181 0.6581 0.699 0.785 0.846 0.9531
2150.810 1.0674 1.1511 1.2425 1.2322 1.1152 0.9853 0.9338 0.8659 0.7617 0.7001
2170.100 0.6078 0.5412 0.56925 0.5539 0.52971 0.58781 0.6478 0.6389 0.6924 0.7673
2189.390 0.79 0.8295 0.8851 1.0069 1.0709 1.1117 1.2156 1.2961 1.3601 1.4232
2208.680 1.4805 1.4748 1.4348 1.4053 1.3692 1.3164 1.202 1.1395 1.0781 0.9784
2227.970 0.9077 0.875 0.8064 0.7018 0.6063 0.5558 0.59596 0.59425 0.53421 0.49323
2247.259 0.4808 0.54405 0.59506 0.54989 0.54638 0.6461 0.7277 0.7216 0.6907 0.6606
2266.549 0.6646 0.667 0.6689 0.6836 0.6473 0.6293 0.6178 0.56303 0.498058 0.4747
2285.839 0.53114 0.57596 0.55987 0.6091 0.711 0.7471 0.7902 0.8286 0.8546 0.8348
2305.129 0.8578 0.8354 0.8028 0.8644 0.8389 0.7611 0.7123 0.6558 0.58824 0.59442
2324.418 0.58757 0.56546 0.6054 0.6041 0.58091 0.6042 0.58507 0.6142 0.6822 0.7404
2343.708 0.7938 0.9091 1.0624 1.1037 1.1025 1.1281 1.1674 1.2317 1.3566 1.4386
2362.998 1.4864 1.516 1.556 1.636 1.636 1.556 1.536 1.586 1.606 1.616
2382.288 1.706 1.796 1.896 1.936 1.976 2.056 2.126 2.206 2.236 2.206
2401.578 2.106 1.966 1.826 1.706 1.656 1.616 1.496 1.3892 1.2596 1.1919
2420.867 1.1539 1.0866 1.0526 1.0114 1.0222 1.0436 1.0378 1.0287 1.0129 1.0138
2440.157 1.0605 1.1397 1.2135 1.272 1.3213 1.3835 1.526 1.586 1.676 1.886
2459.447 1.976 1.976 2.026 2.056 2.026 2.026 1.896 1.786 1.746 1.656
2478.737 1.616 1.586 1.626 1.716 1.706 1.706 1.726 1.836 1.946 1.986
2498.026 2.046 2.166 2.256 2.316 2.406 2.466 2.456 2.496 2.546 2.496
2517.316 2.436 2.426 2.356 2.246 2.166 2.206 2.236 2.196 2.276 2.316
2536.606 2.306 2.326 2.376 2.436 2.446 2.476 2.566 2.596 2.616 2.596
2555.896 2.656 2.696 2.636 2.596 2.456 2.266 2.106 1.946 1.796 1.656
2575.186 1.556 1.516 1.556 1.676 1.766 1.816 1.936 2.126 2.296 2.476
2594.475 2.616 2.816 3.166 3.526 3.896 4.226 4.466 4.596 4.696 4.696
2613.765 4.646 4.516 4.226 3.936 3.626 3.266 2.876 2.636 2.426 2.216
2633.055 2.016 1.866 1.726 1.546 1.536 1.576 1.4954 1.4575 1.536 1.566
2652.345 1.576 1.626 1.706 1.776 1.796 1.826 1.856 1.846 1.726 1.616
2671.634 1.656 1.656 1.546 1.4451 1.355 1.2 1.0608 0.9886 0.9006 0.7316
2690.924 0.6664 0.6587 0.6326 0.6271 0.5861 0.6521 0.7578 0.7229 0.6937 0.6846
2710.214 0.58335 0.57643 0.56717 0.53323 0.53603 0.54974 0.5965 0.6399 0.6972 0.7238
2729.504 0.7383 0.7552 0.8452 0.9091 0.9127 0.9049 0.9371 1.0533 1.154 1.1337
2748.794 1.0711 1.1442 1.1712 1.1618 1.0999 0.9256 0.8902 0.8878 0.8214 0.7793
2768.083 0.7433 0.6998 0.7689 0.8602 0.8424 0.7752 0.754 0.7818 0.8446 0.9085
2787.373 0.806 0.7619 0.8294 0.7619 0.7405 0.7537 0.7284 0.688 0.6066 0.54963
2806.663 0.53153 0.55412 0.5622 0.54419 0.51669 0.6133 0.6929 0.6776 0.637 0.55636
2825.953 0.6195 0.6838 0.7051 0.8694 0.816 0.6276 0.56746 0.49355 0.4523 0.4517
2845.242 0.4278 0.314 0.275 0.262 0.221 0.256 0.308 0.387 0.54032 0.59077
2864.532 0.4683 0.4657 0.498466 0.52365 0.6092 0.6487 0.638 0.645 0.6734 0.7504
2883.822 0.8833 0.9068 0.9421 1.0955 1.2479 1.3421 1.4094 1.4823 1.506 1.4752
2903.112 1.516 1.556 1.616 1.526 1.3877 1.4423 1.4019 1.2978 1.2184 1.1583
2922.401 1.1188 1.113 1.1341 1.041 1.0002 0.9925 1.0293 1.0177 0.8554 0.7495
2941.691 0.6763 0.7216 0.7816 0.6729 0.56791 0.53286 0.6139 0.6014 0.4116 0.367
2960.981 0.4604 0.53335 0.49453 0.4146 0.32 0.275 0.281 0.262 0.347 0.374
2980.271 0.198 0.172 0.282 0.323 0.345 0.362 0.351 0.4343 0.50834 0.4495
2999.561 0.53115 0.6777 0.6374 0.6116 0.6551 0.6825 0.774 0.868 0.8432 0.7839
3018.850 0.7993 0.9132 1.0032 0.9368 0.8516 0.9273 1.0075 0.9875 0.9987 0.8772
3038.140 0.864 0.9397 0.791 0.7212 0.7283 0.6619 0.6196 0.57837 0.56072 0.4468
3057.430 0.382 0.389 0.321 0.317 0.34 0.311 0.4372 0.4126 0.297 0.314
3076.720 0.251 0.32 0.4152 0.391 0.316 0.28 0.275 0.4192 0.4637 0.282
3096.009 0.335 0.4432 0.4197 0.4638 0.4807 0.5498 0.56302 0.49781 0.48853 0.55556
3115.299 0.717 0.6144 0.49295 0.6224 0.6795 0.6941 0.6634 0.6882 0.704 0.6968
3134.589 0.7016 0.59021 0.6279 0.6301 0.6322 0.6317 0.49081 0.4327 0.4327 0.4224
3153.879 0.4302 0.4829 0.4645 0.37 0.353 0.4236 0.4075 0.303 0.31 0.3
3173.169 0.164 0.2 0.288 0.306 0.303 0.135 0.113 0.209 0.31 0.361
3192.458 0.247 0.165 0.184 0.302 0.274 0.196 0.235 0.273 0.345 0.313
3211.748 0.333 0.4481 0.448 0.317 0.193 0.166 0.21 0.223 0.127 0.125
3231.038 0.249 0.305 0.323 0.373 0.318 0.34 0.4166 0.381 0.39 0.346
3250.328 0.333 0.4036 0.48793 0.59203 0.51725 0.4613 0.58864 0.6269 0.6054 0.5402
3269.617 0.56992 0.6614 0.597 0.53807 0.4238 0.341 0.231 0.247 0.321 0.265
3288.907 0.204 0.187 0.308 0.359 0.379 0.329 0.242 0.216 0.277 0.36
3308.197 0.29 0.29 0.263 0.141 0.184 0.205 0.212 0.209 0.209 0.296
3327.487 0.269 0.363 0.48815 0.4488 0.327 0.191 0.139 0.15 0.247 0.3964
3346.777 0.4387 0.367 0.277 0.267 0.303 0.362 0.314 0.214 0.298 0.284
3366.066 0.226 0.361 0.417 0.293 0.282 0.31 0.312 0.345 0.378 0.342
3385.356 0.321 0.322 0.26 0.301 0.377 0.297 0.325 0.326 0.295 0.348
3404.646 0.24 0.265 0.284 0.11 0.032 0.202 0.347 0.362 0.4337 0.324
3423.936 0.196 0.243 0.332 0.342 0.232 0.133 0.16 0.284 0.19 0.137
3443.225 0.212 0.203 0.332 0.4285 0.307 0.393 0.4246 0.226 0.318 0.367
3462.515 0.35 0.366 0.309 0.289 0.354 0.4494 0.4465 0.365 0.325 0.354
3481.805 0.245 0.332 0.4903 0.309 0.284 0.294 0.208 0.24 0.346 0.314
3501.095 0.339 0.334 0.272 0.271 0.128 0.157 0.265 0.242 0.175 0.241
3520.385 0.327 0.236 0.202 0.351 0.4071 0.4209 0.4321 0.3 0.183 0.212
3539.674 0.274 0.204 0.251 0.291 0.175 0.086 0.216 0.374 0.34 0.395
3558.964 0.269 0.134 0.209 0.254 0.276 0.245 0.242 0.305 0.4173 0.4645
3578.254 0.341 0.367 0.4052 0.339 0.363 0.4023 0.4132 0.277 0.231 0.363
3597.544 0.4849 0.482 0.4082 0.4204 0.408 0.4177 0.389 0.4022 0.4583 0.348
3616.833 0.334 0.393 0.378 0.301 0.324 0.4301 0.321 0.183 0.223 0.355
3636.123 0.332 0.267 0.321 0.346 0.251 0.149 0.215 0.297 0.309 0.265
3655.413 0.221 0.294 0.378 0.256 0.194 0.297 0.405 0.394 0.264 0.211
3674.703 0.217 0.358 0.3972 0.338 0.3968 0.339 0.305 0.35 0.304 0.36
3693.993 0.371 0.314 0.4411 0.53415 0.4186 0.298 0.27 0.247 0.21 0.268
3713.282 0.4193 0.4106 0.283 0.205 0.224 0.245 0.225 0.261 0.283 0.237
3732.572 0.214 0.239 0.258 0.349 0.4048 0.359 0.357 0.28 0.294 0.44
3751.862 0.3996 0.327 0.329 0.223 0.235 0.4327 0.4308 0.4529 0.5123 0.4259
3771.152 0.50854 0.4811 0.387 0.371 0.365 0.377 0.334 0.323 0.31 0.344
3790.441 0.289 0.252 0.268 0.3969 0.4814 0.318 0.218 0.247 0.252 0.194
3809.731 0.235 0.185 0.284 0.4427 0.4435 0.381 0.281 0.302 0.202 0.177
3829.021 0.256 0.32 0.271 0.296 0.366 0.231 0.293 0.379 0.3985 0.4056
3848.311 0.321 0.279 0.345 0.4189 0.264 0.246 0.381 0.314 0.28 0.231
3867.601 0.15 0.346 0.4353 0.4611 0.4813 0.4728 0.4448 0.211 0.317 0.50755
3886.890 0.51883 0.50994 0.4061 0.353 0.291 0.317 0.332 0.265 0.246 0.272
3906.180 0.294 0.202 0.332 0.4435 0.349 0.373 0.391 0.258 0.285 0.36
3925.470 0.314 0.363 0.277 0.248 0.32 0.122 0 0.109 0.209 0.278
3944.760 0.327 0.262 0.31 0.374 0.4037 0.386 0.322 0.382 0.51665 0.4767
3964.049 0.361 0.264 0.225 0.384 0.4607 0.49444 0.4321 0.376 0.4269 0.349
3983.339 0.304 0.4024 0.4593 0.298 0.366 0.5367 0.4677 0.53122 0.4557 0.4009
##END=
