##TITLE=1-Methylphenanthrene
##JCAMP-DX=4.24
##DATA TYPE=INFRARED SPECTRUM
##ORIGIN=NIST Mass Spectrometry Data Center
##OWNER=NIST Standard Reference Data Program
Collection (C) 2018 copyright by the U.S. Secretary of Commerce
on behalf of the United States of America. All rights reserved.
##CAS REGISTRY NO=832-69-9
##MOLFORM=C 15 H 12
##$NIST SOURCE=MSDC-IR
##SPECTROMETER/DATA SYSTEM=HP-GC/MS/IRD
##STATE=gas
##XUNITS=1/CM
##YUNITS=ABSORBANCE
##XFACTOR=1.0
##YFACTOR=0.000001500
##DELTAX=4.0
##FIRSTX=550.0
##LASTX=3846.0
##FIRSTY=0.000093
##MAXX=3846
##MINX=550
##MAXY=0.015
##MINY=0
##NPOINTS=825
##XYDATA=(X++(Y..Y))
550.0 62 141 242 278 248 195 244 519 684 627
590.0 481 188 25 16 0 48 82 73 84 122
630.0 135 133 160 162 158 202 264 287 254 207
670.0 189 174 175 199 249 241 254 338 497 613
710.0 614 583 645 858 1462 2786 4738 7122 10000 9895
750.0 7761 5847 3479 1928 1121 712 599 718 1107 1926
790.0 2925 4392 5649 5260 4600 4285 4155 3455 2403 1685
830.0 1043 635 436 390 421 514 636 786 865 882
870.0 994 1082 1059 915 655 424 268 191 179 150
910.0 124 136 148 170 214 244 256 275 301 293
950.0 261 252 268 239 179 170 209 235 238 232
990.0 230 237 234 223 199 169 163 226 381 632
1030.0 777 753 583 341 222 195 200 202 216 291
1070.0 370 449 540 546 480 390 269 182 127 115
1110.0 112 95 101 141 207 246 243 226 192 151
1150.0 136 126 128 150 172 193 208 243 305 365
1190.0 415 427 409 361 308 276 282 338 391 440
1230.0 492 524 574 601 546 428 326 291 290 298
1270.0 289 268 269 304 363 437 491 480 417 335
1310.0 247 186 161 136 126 140 137 120 132 160
1350.0 182 199 208 216 246 311 430 552 626 654
1390.0 580 421 309 277 281 330 433 538 625 686
1430.0 743 875 1114 1425 1759 2086 2366 2547 2560 2338
1470.0 1927 1459 1056 794 671 657 702 753 795 775
1510.0 739 770 819 830 772 667 550 436 366 342
1550.0 327 298 273 289 336 413 483 539 596 660
1590.0 794 945 1041 1033 931 734 524 385 304 275
1630.0 288 306 338 354 337 332 370 414 399 342
1670.0 291 301 361 392 377 352 290 247 261 288
1710.0 275 243 226 209 193 180 191 232 269 321
1750.0 387 437 476 508 524 538 515 431 339 275
1790.0 231 210 214 210 216 242 264 269 270 265
1830.0 254 243 250 270 296 299 255 185 128 110
1870.0 125 154 185 208 229 259 303 362 437 510
1910.0 557 593 593 542 491 450 435 418 374 289
1950.0 174 94 64 44 36 46 46 47 46 40
1990.0 40 40 36 30 21 20 24 20 24 30
2030.0 33 33 31 33 27 23 27 17 3 1
2070.0 8 10 4 6 12 24 29 20 18 21
2110.0 28 27 20 28 29 35 32 27 25 25
2150.0 29 20 8 10 16 14 8 16 10 2
2190.0 11 9 8 19 19 12 18 22 20 14
2230.0 12 17 14 18 25 22 22 29 23 24
2270.0 31 11 1 25 36 34 32 24 28 33
2310.0 31 47 62 76 75 67 57 40 31 42
2350.0 51 49 45 31 11 8 16 22 20 8
2390.0 8 16 19 17 20 28 36 40 46 44
2430.0 32 32 37 37 38 36 40 44 44 49
2470.0 45 46 60 62 55 59 62 57 57 60
2510.0 58 52 42 33 31 35 33 25 25 30
2550.0 28 24 35 42 36 42 48 52 36 32
2590.0 48 48 32 32 40 40 36 40 47 50
2630.0 54 53 35 33 31 24 38 47 50 58
2670.0 59 50 41 41 40 41 45 50 38 33
2710.0 41 48 53 59 71 87 104 119 134 149
2750.0 139 109 92 87 82 88 74 68 77 73
2790.0 74 74 85 102 105 113 139 159 165 174
2830.0 182 208 238 263 307 342 389 458 541 672
2870.0 821 956 1029 1035 1006 951 930 951 961 1011
2910.0 1082 1158 1280 1446 1650 1878 2043 2100 2063 1947
2950.0 1832 1778 1766 1724 1692 1714 1795 1840 1792 1664
2990.0 1476 1290 1177 1142 1173 1303 1539 1858 2255 2694
3030.0 3082 3383 3659 3962 4310 4697 5169 5634 5900 5878
3070.0 5532 5011 4568 4206 3782 3334 2922 2498 2066 1687
3110.0 1385 1093 839 662 536 440 379 331 285 251
3150.0 214 193 184 181 173 152 138 140 144 150
3190.0 144 131 124 121 131 106 69 84 91 56
3230.0 43 43 57 67 59 46 31 40 51 55
3270.0 55 47 49 48 43 31 34 61 41 19
3310.0 26 34 40 30 30 24 40 43 45 45
3350.0 3 11 52 47 27 32 46 44 33 37
3390.0 47 46 23 28 30 25 36 36 45 50
3430.0 36 36 47 56 73 82 68 43 31 31
3470.0 44 44 24 19 22 31 46 49 30 47
3510.0 67 49 35 41 45 43 61 56 26 16
3550.0 43 49 56 67 52 52 51 38 53 50
3590.0 38 37 53 76 63 52 48 50 71 55
3630.0 48 69 42 40 47 44 51 62 63 40
3670.0 41 51 49 70 70 53 59 60 62 51
3710.0 45 52 69 82 80 74 57 59 48 47
3750.0 58 77 98 83 64 45 59 86 88 85
3790.0 87 70 67 91 92 59 56 83 85 67
3830.0 81 92 79 84 87
##END=
