##TITLE=2-Phenylbenzoxazole
##JCAMP-DX=4.24
##DATA TYPE=INFRARED SPECTRUM
##ORIGIN=EPA-IR VAPOR PHASE LIBRARY
##OWNER=SRD/NIST
Collection (C) 2018 copyright by the U.S. Secretary of Commerce
on behalf of the United States of America. All rights reserved.
##CAS REGISTRY NO=833-50-1
##MOLFORM=C 13 H 9 N O
##$NIST SOURCE=MSDC-IR
##STATE=gas
##XUNITS=1/CM
##YUNITS=ABSORBANCE
##XFACTOR=1.
##YFACTOR=0.001
##DELTAX=1.92898
##FIRSTX=549.8
##LASTX=4000.7
##FIRSTY=1.548
##MAXX=4000.7
##MINX=549.759
##MAXY=0.167728
##MINY=0
##NPOINTS=1790
##XYDATA=(X++(Y..Y))
549.759 1.548 2.048 2.138 1.758 1.928 2.128 1.918 1.338 0.9299 0.7218
569.049 0.7271 0.6974 0.4765 0.1569 0.17199 0.4602 0.5385 0.4993 0.565 0.6396
588.339 0.6811 0.7151 0.6994 0.8506 1.0263 0.9639 0.9645 1.0561 0.9339 1.0034
607.628 1.378 1.928 2.598 2.938 3.238 3.888 4.608 4.858 4.238 3.868
626.918 4.198 4.028 3.208 2.488 2.048 1.818 1.758 1.728 1.798 2.118
646.208 2.228 2.438 2.808 3.048 3.498 4.198 4.618 5.188 6.058 7.138
665.498 8.438 9.748 11.578 14.218 17.368 20.818 24.758 28.998 33.428 37.718
684.787 41.518 46.898 51.268 50.278 48.188 47.248 46.378 45.278 45.338 46.258
704.077 43.258 38.218 34.948 32.238 29.258 26.318 23.868 22.128 21.538 22.938
723.367 27.118 34.548 45.278 59.248 75.018 91.068 105.628 119.098 137.348 165.838
742.657 167.728 139.108 124.548 116.618 103.648 87.608 71.358 58.058 48.018 39.438
761.947 30.948 25.368 22.078 19.468 17.578 16.028 15.068 14.598 13.378 11.738
781.236 10.858 10.438 10.368 10.658 11.078 11.848 13.058 14.848 17.708 22.168
800.526 28.368 36.008 43.518 47.668 47.428 44.698 39.898 31.808 21.738 13.738
819.816 9.328 7.508 6.638 6.318 6.648 7.148 7.758 8.168 8.318 8.458
839.106 8.578 8.468 8.158 7.768 7.398 6.958 6.138 5.258 4.588 3.998
858.395 3.318 2.678 2.478 2.448 2.258 2.198 2.298 2.608 2.998 3.378
877.685 3.768 4.308 4.838 5.288 5.708 6.018 6.198 6.278 6.438 6.448
896.975 6.248 6.148 6.438 6.868 7.358 8.248 9.518 11.188 13.218 15.598
916.265 17.988 19.608 20.158 19.918 19.848 19.348 17.248 14.588 12.308 10.208
935.555 8.308 6.688 5.338 4.378 3.628 3.208 3.238 3.118 3.058 3.318
954.844 3.418 3.478 3.538 3.338 3.168 3.068 2.798 2.798 2.978 3.048
974.134 3.178 3.418 3.768 4.188 4.668 5.218 5.928 6.828 8.088 9.828
993.424 12.038 14.438 16.078 16.608 16.938 16.868 16.278 15.838 16.288 18.138
1012.714 21.468 26.728 34.038 43.458 53.438 59.998 60.628 57.668 53.038 44.638
1032.003 33.028 22.918 17.768 17.108 19.488 24.528 31.898 41.348 51.908 60.868
1051.293 65.848 66.378 64.598 60.148 50.518 38.648 29.908 24.898 21.778 19.308
1070.583 16.458 13.858 11.378 8.668 6.268 4.668 3.688 3.468 3.568 3.488
1089.873 4.028 4.768 5.358 5.998 6.498 7.398 8.528 8.788 9.078 9.078
1109.163 8.278 7.868 7.718 6.678 5.198 4.058 3.208 2.578 2.268 2.148
1128.452 1.708 1.348 1.278 1.798 2.578 3.548 5.228 6.268 6.238 6.468
1147.742 6.648 5.888 4.768 4.118 4.258 4.608 5.308 6.658 8.148 9.908
1167.032 12.498 15.488 18.688 21.808 24.428 26.028 26.098 25.158 23.568 22.058
1186.322 21.078 21.168 23.248 26.938 30.658 32.678 32.818 31.748 28.678 23.608
1205.611 17.968 13.518 10.838 9.288 9.368 10.458 11.348 13.178 16.298 20.218
1224.901 26.028 34.118 45.398 60.778 79.568 100.778 121.478 138.648 149.828 153.088
1244.191 147.068 130.888 107.878 83.638 61.898 43.778 29.788 20.788 15.938 13.498
1263.481 12.568 12.438 12.928 13.428 13.638 14.118 14.728 15.298 16.038 16.798
1282.771 17.138 16.918 16.418 16.008 15.718 15.128 14.058 12.848 11.738 10.648
1302.060 9.578 8.768 8.338 8.298 8.578 9.068 9.518 9.848 10.098 10.218
1321.350 10.208 10.138 10.338 10.958 11.958 13.248 14.578 15.778 16.678 17.088
1340.640 17.128 16.988 16.648 16.118 15.388 14.358 13.188 12.138 11.328 10.428
1359.930 9.228 8.068 7.108 6.508 6.188 6.018 5.948 5.888 5.858 5.828
1379.219 5.718 5.518 5.208 4.868 4.508 4.158 3.918 3.838 3.898 4.098
1398.509 4.478 4.948 5.438 5.848 6.328 6.898 7.498 8.318 9.348 10.378
1417.799 11.158 11.498 11.468 11.098 10.718 10.428 10.458 11.188 12.838 15.808
1437.089 20.948 28.648 39.848 55.118 73.178 90.008 100.938 105.858 105.768 97.468
1456.378 80.078 62.328 49.308 37.668 29.008 24.848 24.028 24.948 27.028 29.918
1475.668 33.318 37.028 40.378 42.998 44.938 46.468 47.558 47.608 45.978 42.838
1494.958 38.698 33.608 27.338 20.588 14.978 10.958 8.258 6.608 5.608 5.018
1514.248 4.658 4.428 4.378 4.478 4.678 4.928 5.278 5.818 6.508 7.498
1533.538 8.818 10.478 12.768 16.108 20.648 26.558 34.148 43.228 52.848 61.978
1552.827 68.758 72.578 72.848 69.088 61.418 51.918 42.058 33.428 26.848 22.198
1572.117 19.298 17.778 17.108 16.958 17.218 17.588 17.688 17.348 16.708 15.918
1591.407 15.108 14.278 13.538 13.038 12.968 13.478 14.438 15.778 17.408 19.298
1610.697 21.458 23.728 25.788 27.508 28.548 28.758 28.138 26.648 24.328 21.258
1629.986 17.818 14.498 11.588 8.948 6.928 5.558 4.568 3.868 3.328 2.888
1649.276 2.618 2.578 2.668 3.008 3.508 4.058 4.548 4.958 5.128 5.018
1668.566 4.778 4.338 3.788 3.298 2.858 2.648 2.588 2.578 2.658 2.788
1687.856 3.028 3.268 3.358 3.418 3.448 3.508 3.448 3.128 2.818 2.488
1707.146 2.108 1.758 1.548 1.428 1.388 1.498 1.668 1.758 1.788 1.748
1726.435 1.788 1.748 1.648 1.598 1.508 1.548 1.638 1.708 1.838 1.958
1745.725 2.148 2.498 2.808 3.148 3.578 4.018 4.548 5.068 5.428 5.728
1765.015 5.908 5.918 5.828 5.638 5.308 4.938 4.468 3.928 3.468 3.048
1784.305 2.678 2.418 2.278 2.268 2.338 2.568 2.998 3.598 4.358 5.198
1803.594 5.978 6.528 6.708 6.498 6.018 5.328 4.488 3.668 3.068 2.628
1822.884 2.408 2.438 2.438 2.498 2.688 2.858 3.108 3.478 3.778 4.108
1842.174 4.398 4.558 4.658 4.548 4.278 3.918 3.558 3.148 2.708 2.428
1861.464 2.308 2.288 2.318 2.408 2.578 2.878 3.278 3.708 4.078 4.508
1880.754 5.048 5.478 5.808 6.018 6.138 6.198 6.198 6.168 6.038 5.898
1900.043 5.728 5.448 5.148 4.808 4.348 3.958 3.738 3.548 3.468 3.688
1919.333 4.148 4.738 5.438 6.058 6.398 6.288 5.798 5.228 4.618 3.928
1938.623 3.398 3.248 3.358 3.528 3.668 3.798 3.888 3.988 4.078 4.208
1957.913 4.328 4.348 4.348 4.298 4.088 3.738 3.318 2.828 2.328 1.908
1977.202 1.608 1.348 1.198 1.123 1.042 0.9787 0.942 0.9003 0.8441 0.8467
1996.492 0.8749 0.9065 0.8866 0.8218 0.7953 0.7891 0.7749 0.7322 0.6598 0.6275
2015.782 0.6 0.5382 0.5344 0.5541 0.5869 0.5569 0.5445 0.6117 0.6298 0.611
2035.072 0.624 0.6546 0.6785 0.6415 0.5684 0.5877 0.6277 0.6459 0.6389 0.6273
2054.362 0.6376 0.6824 0.7171 0.655 0.6491 0.7325 0.8047 0.7875 0.8588 0.9689
2073.651 0.8797 0.8965 0.9494 0.9159 0.9556 1.0487 1.1368 1.218 1.218 1.134
2092.941 1.1301 1.1402 1.0758 1.0206 0.9448 0.8758 0.892 0.9154 0.914 0.9043
2112.231 0.8919 0.838 0.8338 0.8714 0.8625 0.7679 0.6956 0.6734 0.6189 0.6342
2131.521 0.6616 0.6977 0.7541 0.7178 0.7132 0.7761 0.7862 0.7714 0.7533 0.7331
2150.810 0.7865 0.8755 0.9058 0.9004 0.9566 0.9979 1.0039 1.0412 1.0914 1.1291
2170.100 1.137 1.1085 1.0568 1.1088 1.1272 1.0383 1.0148 0.9819 0.8828 0.8065
2189.390 0.7408 0.6625 0.6493 0.6967 0.6753 0.6787 0.731 0.7789 0.812 0.743
2208.680 0.7256 0.7366 0.7643 0.7542 0.7177 0.7336 0.7234 0.72 0.7481 0.7185
2227.970 0.6933 0.7786 0.8076 0.7256 0.7056 0.8288 1.0008 1.1209 1.1308 1.218
2247.259 1.348 1.348 1.328 1.308 1.288 1.298 1.238 1.208 1.1527 1.0351
2266.549 0.959 0.9887 1.0239 0.9761 0.9458 0.9333 1.0072 1.0441 1.0197 1.0753
2285.839 1.1425 1.208 1.238 1.278 1.238 1.1389 1.1052 1.0547 1.0034 1.0257
2305.129 1.0265 1.0234 1.1039 1.198 1.308 1.368 1.458 1.568 1.598 1.658
2324.418 1.618 1.468 1.388 1.328 1.308 1.408 1.418 1.368 1.368 1.368
2343.708 1.388 1.348 1.358 1.378 1.268 1.208 1.238 1.248 1.238 1.288
2362.998 1.248 1.218 1.278 1.298 1.248 1.168 1.1457 1.15 1.178 1.228
2382.288 1.238 1.178 1.188 1.288 1.308 1.278 1.218 1.168 1.198 1.1426
2401.578 0.9832 0.9544 0.9573 0.9065 0.8362 0.8376 0.8982 0.8709 0.8167 0.7694
2420.867 0.7227 0.6985 0.7323 0.7388 0.7075 0.7078 0.7505 0.8009 0.8545 0.8436
2440.157 0.737 0.7379 0.7771 0.7639 0.7949 0.8848 0.9158 0.946 0.9892 1.0065
2459.447 1.0691 1.1106 1.1115 1.0956 1.145 1.198 1.268 1.338 1.318 1.388
2478.737 1.508 1.398 1.248 1.308 1.428 1.438 1.428 1.508 1.558 1.608
2498.026 1.658 1.718 1.648 1.568 1.578 1.458 1.368 1.338 1.258 1.1324
2517.316 1.0393 0.9934 0.9021 0.869 0.8829 0.8752 0.8667 0.8717 0.8928 0.878
2536.606 0.8852 0.8373 0.7162 0.6821 0.7601 0.7888 0.7754 0.8493 0.9112 0.8567
2555.896 0.8153 0.8731 0.9746 1.0058 1.0123 1.0097 1.0642 1.1268 1.1344 1.198
2575.186 1.238 1.288 1.298 1.308 1.328 1.348 1.338 1.288 1.308 1.438
2594.475 1.508 1.478 1.488 1.488 1.548 1.598 1.658 1.668 1.588 1.598
2613.765 1.718 1.808 1.698 1.708 1.848 1.888 1.948 1.948 1.878 1.798
2633.055 1.868 1.928 1.808 1.708 1.628 1.608 1.608 1.578 1.548 1.518
2652.345 1.458 1.348 1.358 1.368 1.278 1.168 1.1268 1.188 1.258 1.248
2671.634 1.278 1.198 1.0054 1.0304 1.0236 0.9302 0.8877 0.9046 0.9054 0.978
2690.924 1.109 1.0509 0.9445 0.8679 0.8834 0.9363 0.8653 0.782 0.7559 0.7124
2710.214 0.6684 0.6995 0.7287 0.6958 0.6775 0.7638 0.7836 0.7807 0.7668 0.7664
2729.504 0.7648 0.7307 0.8026 0.8725 0.8388 0.7481 0.8087 0.8952 0.9136 0.9062
2748.794 0.8723 0.902 0.9799 0.9839 1.0394 1.1393 1.198 1.268 1.298 1.278
2768.083 1.318 1.238 1.1096 1.1283 1.1177 1.097 1.1254 1.1436 1.1433 1.1474
2787.373 1.198 1.258 1.268 1.258 1.268 1.308 1.258 1.1542 1.178 1.248
2806.663 1.198 1.1325 1.1166 0.9906 0.9111 0.9665 0.965 0.8452 0.6797 0.7375
2825.953 0.8715 0.7966 0.7355 0.7388 0.7568 0.7269 0.7149 0.78 0.7692 0.7376
2845.242 0.7164 0.7733 0.8433 0.8195 0.8453 0.9208 0.9149 0.9451 0.976 0.8785
2864.532 0.8619 0.9479 1.0731 1.1215 1.0047 1.1251 1.198 1.0787 1.1347 1.288
2883.822 1.368 1.418 1.578 1.708 1.778 1.918 2.038 1.948 1.918 2.048
2903.112 2.018 1.938 1.838 1.718 1.608 1.488 1.408 1.438 1.588 1.598
2922.401 1.538 1.618 1.618 1.538 1.518 1.678 1.938 1.988 1.938 2.018
2941.691 1.998 1.958 2.018 1.978 1.958 2.008 1.988 1.948 1.958 1.968
2960.981 1.828 1.768 1.728 1.718 1.748 1.718 1.708 1.608 1.648 1.738
2980.271 1.628 1.468 1.468 1.628 1.768 1.968 2.148 2.238 2.348 2.478
2999.561 2.588 2.738 2.898 2.978 3.088 3.228 3.358 3.658 3.928 4.298
3018.850 4.768 5.388 6.188 6.938 7.868 9.038 10.498 11.838 13.118 14.518
3038.140 16.038 17.518 18.898 20.318 21.638 23.168 24.918 26.638 28.398 30.338
3057.430 32.628 35.188 37.988 41.248 44.768 48.298 51.548 54.148 55.978 56.368
3076.720 55.298 53.628 51.598 48.808 45.158 41.788 39.098 36.448 33.768 31.078
3096.009 28.138 25.008 21.948 19.058 16.388 14.028 11.988 10.178 8.788 7.738
3115.299 6.818 6.048 5.268 4.638 4.168 3.698 3.308 3.068 2.748 2.578
3134.589 2.628 2.548 2.418 2.318 2.288 2.258 2.168 2.078 1.958 1.928
3153.879 1.938 1.868 1.838 1.798 1.838 1.808 1.788 1.748 1.608 1.538
3173.169 1.348 1.228 1.188 1.1112 1.0544 1.0115 0.9612 0.8562 0.8438 0.8105
3192.458 0.8054 0.7958 0.7304 0.8039 0.712 0.5871 0.6109 0.5333 0.4545 0.4569
3211.748 0.5668 0.5093 0.4711 0.568 0.4684 0.5519 0.574 0.3758 0.23544 0.268
3231.038 0.4252 0.4747 0.3713 0.2827 0.2927 0.22896 0.2769 0.3315 0.23768 0.23791
3250.328 0.2997 0.35 0.3323 0.2595 0.3307 0.3218 0.2682 0.3097 0.24606 0.17507
3269.617 0.17874 0.21497 0.1149 0.1218 0.23477 0.3098 0.2775 0.1328 0.1227 0.1302
3288.907 0.1131 0.162894 0.25407 0.2611 0.22621 0.15609 0.0995 0.167307 0.1325 0.1383
3308.197 0.2917 0.18323 0.1215 0.0808 0 0.15255 0.19966 0.1164 0.2668 0.3669
3327.487 0.17458 0.25059 0.3822 0.3123 0.3208 0.3385 0.3048 0.23963 0.2229 0.19822
3346.777 0.21253 0.3212 0.349 0.3928 0.2737 0.18867 0.3136 0.2936 0.2658 0.3182
3366.066 0.3193 0.3371 0.3261 0.3487 0.3711 0.3071 0.2788 0.24824 0.1884 0.164377
3385.356 0.23853 0.3752 0.3591 0.3359 0.3703 0.3039 0.21914 0.2635 0.17954 0.031
3404.646 0.164608 0.23765 0.15011 0.0728 0.20804 0.23312 0.17611 0.20248 0.066 0.15166
3423.936 0.15315 0.0964 0.1872 0.1455 0.19997 0.2732 0.19471 0.1148 0.16981 0.19642
3443.225 0.25707 0.2706 0.1758 0.17393 0.21008 0.3339 0.3757 0.2741 0.21806 0.19914
3462.515 0.1416 0.17144 0.2655 0.24692 0.24169 0.20808 0.1974 0.3042 0.378 0.3236
3481.805 0.2903 0.23695 0.21886 0.23912 0.3089 0.4062 0.3561 0.2941 0.20172 0.1304
3501.095 0.18477 0.134 0.1145 0.2991 0.2244 0.158757 0.20811 0.1451 0.1134 0.1104
3520.385 0.1211 0.0868 0.063 0.16803 0.2915 0.23811 0.17322 0.24454 0.368 0.25245
3539.674 0.1187 0.2623 0.2965 0.20624 0.163654 0.0713 0.1471 0.23143 0.17844 0.1349
3558.964 0.19119 0.2943 0.3771 0.4566 0.379 0.2707 0.1179 0.1372 0.16994 0.17001
3578.254 0.3317 0.3099 0.20624 0.2592 0.3766 0.34 0.2921 0.2752 0.22605 0.2724
3597.544 0.3657 0.389 0.3753 0.3027 0.3202 0.4081 0.3582 0.3852 0.3799 0.4011
3616.833 0.486 0.49 0.4315 0.4526 0.5317 0.5828 0.5906 0.5346 0.5301 0.4784
3636.123 0.451 0.3596 0.25321 0.3395 0.534 0.6206 0.6485 0.7764 0.693 0.5256
3655.413 0.5787 0.6324 0.5895 0.639 0.6405 0.5 0.5347 0.5697 0.4481 0.4831
3674.703 0.5658 0.6423 0.6512 0.4868 0.4583 0.3964 0.309 0.4098 0.4915 0.5453
3693.993 0.3948 0.4031 0.4801 0.5368 0.5245 0.4233 0.5329 0.4941 0.5435 0.682
3713.282 0.5898 0.5582 0.5584 0.4792 0.5767 0.5394 0.4646 0.4398 0.3461 0.4168
3732.572 0.4714 0.3871 0.4279 0.5049 0.4754 0.4518 0.385 0.3254 0.4167 0.499
3751.862 0.5899 0.7222 0.6376 0.601 0.5422 0.4064 0.3598 0.4357 0.4663 0.4623
3771.152 0.4013 0.2648 0.2804 0.2652 0.2603 0.2262 0.3116 0.3793 0.17435 0.19221
3790.441 0.3061 0.3211 0.378 0.4138 0.4584 0.5419 0.5306 0.3506 0.3186 0.2757
3809.731 0.25222 0.3592 0.3297 0.263 0.21412 0.2897 0.3038 0.21273 0.2753 0.3146
3829.021 0.27 0.3044 0.3738 0.2978 0.20186 0.24235 0.22531 0.24506 0.17841 0.1036
3848.311 0.22873 0.279 0.3985 0.3779 0.14901 0.20601 0.3331 0.3229 0.4096 0.4003
3867.601 0.3522 0.3057 0.25036 0.24568 0.2651 0.4232 0.5396 0.4525 0.3803 0.4109
3886.890 0.2933 0.3077 0.5326 0.6237 0.5935 0.5169 0.4446 0.3465 0.3962 0.4113
3906.180 0.24687 0.2967 0.5187 0.5795 0.5292 0.4751 0.5444 0.7667 0.7445 0.735
3925.470 0.8467 0.7519 0.7115 0.7496 0.808 0.808 0.758 0.8169 0.7993 0.6982
3944.760 0.8717 0.9908 0.86 0.8693 0.9014 1.0208 1.0484 1.1232 1.228 1.0514
3964.049 0.9308 0.7687 0.7433 0.9293 0.9031 0.8596 0.8303 0.7569 0.7555 0.767
3983.339 0.6731 0.6588 0.7388 0.6858 0.6478 0.6192 0.5804 0.6842 0.7041 0.4712
##END=
