##TITLE=4-Nitrodiphenylamine
##JCAMP-DX=4.24
##DATA TYPE=INFRARED SPECTRUM
##ORIGIN=EPA-IR VAPOR PHASE LIBRARY
##OWNER=SRD/NIST
Collection (C) 2018 copyright by the U.S. Secretary of Commerce
on behalf of the United States of America. All rights reserved.
##CAS REGISTRY NO=836-30-6
##MOLFORM=C 12 H 10 N 2 O 2
##$NIST SOURCE=MSDC-IR
##STATE=gas
##XUNITS=1/CM
##YUNITS=ABSORBANCE
##XFACTOR=1.
##YFACTOR=0.001
##DELTAX=3.85796
##FIRSTX=551.7
##LASTX=4000.7
##FIRSTY=2.4095
##MAXX=4000.7
##MINX=551.688
##MAXY=0.120159
##MINY=0
##NPOINTS=895
##XYDATA=(X++(Y..Y))
551.688 2.4095 2.4395 2.3995 2.4495 2.6095 2.7495 2.9595 3.0595 3.0095 2.9095
590.268 2.7295 2.9095 3.2295 3.5995 3.9395 3.9695 3.8595 3.7595 3.7895 3.7995
628.847 3.9795 4.1195 4.1795 4.2695 4.2695 4.4595 4.8295 5.1395 5.5495 5.8895
667.427 6.2695 7.2495 8.5595 10.2095 12.0695 13.8795 15.4195 16.0895 15.4095 13.7395
706.006 11.7595 9.9495 8.8195 8.3295 8.3495 8.8395 9.8895 11.9295 15.3295 19.9095
744.586 24.4495 26.2495 23.6195 18.3795 13.2095 9.5595 7.3995 6.0595 5.0895 4.4795
783.165 4.0195 3.7095 3.4995 3.4195 3.5595 3.9495 4.4395 5.0095 5.8595 7.1295
821.745 8.8995 10.9995 13.3795 15.9795 18.6995 21.1395 22.0995 20.5795 16.9195 12.6895
860.324 9.8495 9.4595 11.1095 13.0995 12.9895 10.0895 6.3895 4.0095 3.0795 2.7095
898.904 2.5295 2.3895 2.2795 2.1195 1.9495 1.8795 1.8095 1.7895 1.7595 1.7595
937.484 1.7695 1.8595 1.9495 1.9695 1.9495 1.9095 1.9095 1.8595 1.8395 1.8795
976.063 1.8495 1.7495 1.6195 1.4995 1.5195 1.7295 1.9495 1.9295 1.8995 2.0995
1014.643 2.3395 2.6795 3.4495 4.0395 3.7995 2.8795 2.2195 2.0795 1.8795 1.8395
1053.222 2.0995 2.4995 2.8695 3.1795 3.5695 3.9295 4.3695 4.7895 4.9395 5.5295
1091.802 6.3895 7.5495 9.8695 13.8995 19.6795 24.6895 24.9795 19.4895 12.4495 7.4695
1130.381 4.6795 3.3995 2.9095 2.7095 2.5495 2.7295 2.9895 3.1795 3.7495 5.2195
1168.961 7.8695 11.4595 14.7495 15.7995 13.7895 10.2195 7.4595 6.0395 5.2095 5.0195
1207.540 5.4395 5.8195 6.2895 6.9095 7.4295 7.9695 9.1295 11.2195 14.1995 17.6295
1246.120 20.5795 21.5695 20.4195 18.6695 17.4595 17.2895 18.0595 19.6395 22.1295 25.6895
1284.699 30.7295 37.6295 46.5395 57.0795 67.1495 72.0695 69.6195 64.9495 66.0695 73.7995
1323.279 80.4695 81.3395 80.7695 85.9695 98.1595 110.909 116.04 108.37 88.7195 64.3495
1361.859 44.0695 31.6195 24.6895 20.1295 16.6895 14.1495 12.5995 12.0295 12.0595 11.9495
1400.438 11.1495 9.7095 8.2495 7.1295 6.3195 5.8195 5.6795 5.7995 6.1795 6.7895
1439.018 7.5295 8.3695 9.2395 9.9795 10.4695 11.0595 11.8295 12.8195 14.1695 16.4195
1477.597 20.1295 26.3495 36.4195 52.4095 74.9495 100.71 119.49 120.159 103.79 83.0095
1516.177 67.3395 59.6095 57.7695 58.8195 60.3495 60.4195 57.5895 51.4795 43.6495 35.8395
1554.756 29.8495 26.3095 25.3195 27.1795 32.7295 42.9595 59.4595 80.1195 100.299 113.02
1593.336 113.2 101.84 85.6995 70.4795 55.8495 41.1195 28.3295 19.6395 14.5695 11.5395
1631.915 9.7595 8.4395 7.3895 6.4495 5.5895 4.9195 4.3695 3.9895 3.6595 3.3795
1670.495 3.1195 2.8295 2.6495 2.4495 2.2395 2.1195 2.0095 1.9295 1.9295 1.9495
1709.075 1.9795 1.9895 1.9695 1.9695 1.9795 1.9795 1.9795 1.9895 2.0195 2.0795
1747.654 2.1695 2.3095 2.4595 2.5595 2.6195 2.6195 2.5895 2.5095 2.3895 2.2595
1786.234 2.1595 2.0195 1.8395 1.7295 1.6395 1.5595 1.4695 1.4295 1.4195 1.3895
1824.813 1.3695 1.3595 1.3495 1.3795 1.3795 1.3795 1.4195 1.4695 1.5295 1.5395
1863.393 1.5595 1.5995 1.6295 1.7395 1.8395 1.8995 1.9695 2.0295 2.1195 2.1895
1901.972 2.2195 2.1895 2.1195 2.0395 1.9095 1.7995 1.8195 1.8195 1.7795 1.7495
1940.552 1.6895 1.6895 1.7195 1.5795 1.4295 1.3095 1.1795 1.0597 1.0107 0.981
1979.131 0.9727 1.0605 1.0841 1.058 1.0511 0.997 0.9315 0.9156 0.9441 0.9502
2017.711 0.9475 0.9157 0.8718 0.8031 0.7644 0.7645 0.7406 0.7545 0.7745 0.761
2056.291 0.7657 0.7978 0.8158 0.8174 0.7869 0.7697 0.815 0.8337 0.8442 0.8908
2094.870 0.8999 0.9007 0.9099 0.9008 0.9123 0.9029 0.8581 0.827 0.7834 0.7561
2133.450 0.7266 0.739 0.7363 0.6839 0.6696 0.6546 0.6383 0.6262 0.6118 0.6141
2172.029 0.6036 0.5844 0.6027 0.6025 0.5638 0.5522 0.5566 0.5833 0.5763 0.5721
2210.609 0.605 0.6339 0.6763 0.6683 0.6702 0.6802 0.6136 0.5238 0.5133 0.5309
2249.188 0.5017 0.4797 0.4636 0.4384 0.4322 0.4392 0.5035 0.5234 0.5345 0.5591
2287.768 0.5318 0.5843 0.6474 0.6715 0.6787 0.6922 0.7425 0.7577 0.7786 0.7721
2326.347 0.7324 0.7251 0.7634 0.7943 0.7778 0.7754 0.7663 0.7796 0.784 0.7527
2364.927 0.7395 0.6899 0.6683 0.691 0.6932 0.6758 0.6258 0.6298 0.6843 0.7008
2403.507 0.6382 0.651 0.7254 0.7523 0.7853 0.8167 0.8415 0.8655 0.9724 1.0995
2442.086 1.2095 1.3695 1.4595 1.4995 1.5595 1.5995 1.5695 1.4495 1.3595 1.3495
2480.666 1.2695 1.2295 1.1995 1.1595 1.1095 1.1195 1.1795 1.2295 1.2695 1.3195
2519.245 1.3395 1.3795 1.4295 1.4795 1.5495 1.5995 1.6195 1.6295 1.5695 1.5295
2557.825 1.5695 1.6195 1.6295 1.6195 1.5195 1.3795 1.2795 1.2295 1.1295 1.041
2596.404 1.0051 0.9635 0.9725 0.9825 0.971 0.9607 0.9246 0.9151 0.9014 0.887
2634.984 0.91 0.8758 0.7744 0.7107 0.6743 0.6268 0.5973 0.5514 0.5053 0.5414
2673.563 0.5516 0.5306 0.5642 0.6 0.628 0.6869 0.7404 0.7532 0.784 0.7609
2712.143 0.7195 0.7493 0.8095 0.8093 0.7643 0.6917 0.6159 0.6466 0.6771 0.6703
2750.722 0.5988 0.592 0.5909 0.4979 0.4784 0.5067 0.58 0.5995 0.5653 0.5947
2789.302 0.6436 0.6785 0.6632 0.6633 0.6838 0.7318 0.7897 0.7375 0.7694 0.8959
2827.882 0.9633 1.0702 1.1695 1.1795 1.2195 1.2695 1.3195 1.3595 1.3795 1.4195
2866.461 1.4395 1.4695 1.4595 1.4195 1.4095 1.4195 1.3095 1.1895 1.1395 1.1495
2905.041 1.1495 1.1295 1.0813 1.0702 1.1295 1.1595 1.1995 1.2595 1.3695 1.4095
2943.620 1.3195 1.1995 1.1395 1.0995 0.9725 0.8674 0.7802 0.6772 0.6608 0.747
2982.200 0.8145 0.8616 0.8898 0.9748 1.0895 1.2395 1.4895 1.8695 2.3995 2.9995
3020.779 3.7595 4.6695 5.6995 6.8495 7.7995 8.2095 8.0895 7.7595 7.5495 7.5895
3059.359 7.8395 8.2295 8.6795 9.0795 9.3895 9.4395 9.0795 8.2695 7.1095 5.8695
3097.938 4.8495 4.0995 3.3995 2.7495 2.2495 1.7795 1.3295 1.0516 0.8569 0.7014
3136.518 0.6026 0.5155 0.4641 0.3983 0.3525 0.2895 0.2904 0.3496 0.3475 0.3022
3175.098 0.3265 0.3911 0.3901 0.4063 0.4501 0.5364 0.6617 0.6959 0.6224 0.6174
3213.677 0.5269 0.3814 0.3361 0.3054 0.2697 0.2268 0.2256 0.2072 0.14409 0.12346
3252.257 0.14086 0.14176 0.13844 0.14907 0.2028 0.2118 0.1788 0.11624 0.13613 0.1955
3290.836 0.16859 0.16047 0.16886 0.18563 0.2122 0.1901 0.14388 0.2625 0.3041 0.2041
3329.416 0.2312 0.2914 0.2738 0.2275 0.2174 0.2057 0.17981 0.17716 0.1926 0.281
3367.995 0.3172 0.2848 0.3268 0.4317 0.4898 0.5496 0.6488 0.796 0.9372 1.1095
3406.575 1.3195 1.5695 1.9895 2.6395 3.4195 4.2695 5.1695 5.9395 6.4795 6.6495
3445.154 6.4295 5.6995 4.7195 3.7695 2.8495 2.1195 1.6295 1.2195 0.8736 0.6854
3483.734 0.6085 0.5266 0.4859 0.5214 0.4557 0.3784 0.3499 0.3249 0.2869 0.2796
3522.314 0.3313 0.3015 0.2275 0.18586 0.2014 0.17873 0.14204 0.09225 0.0568 0.08014
3560.893 0.11333 0.11639 0.11438 0.17021 0.18159 0.17289 0.11011 0.10557 0.13954 0.098483
3599.473 0.12214 0.15361 0.1376 0.10135 0.0779 0.1562 0.16285 0.11346 0.13638 0.2097
3638.052 0.2538 0.1966 0.12464 0.209 0.3741 0.3245 0.259 0.1958 0.14278 0.1986
3676.632 0.2634 0.2458 0.16108 0.1162 0.17659 0.2695 0.2257 0.2363 0.2902 0.2036
3715.211 0.1176 0.1648 0.2335 0.19 0.13064 0.15786 0.18001 0.18657 0.16107 0.15733
3753.791 0.1963 0.15584 0.08797 0.0717 0.0635 0.10315 0.16969 0.18671 0.16259 0.14588
3792.370 0.10008 0.0729 0.061 0.0588 0.08069 0.07993 0.0752 0.1466 0.208 0.11529
3830.950 0.0717 0.0159 0 0.13225 0.1068 0.10445 0.10981 0.0741 0.15198 0.16043
3869.530 0.13659 0.139 0.10653 0.0233 0.0557 0.11666 0.096956 0.13283 0.15976 0.14171
3908.109 0.12572 0.15432 0.17218 0.1913 0.2114 0.1972 0.2293 0.2696 0.1712 0.12251
3946.689 0.16644 0.17964 0.1808 0.13979 0.1263 0.14513 0.15658 0.10304 0.14 0.1948
3985.268 0.2049 0.17266 0.215 0.2654 0.1998
##END=
