##TITLE=N-(4-Methoxybenzylidene)aniline
##JCAMP-DX=4.24
##DATA TYPE=INFRARED SPECTRUM
##ORIGIN=EPA-IR VAPOR PHASE LIBRARY
##OWNER=SRD/NIST
Collection (C) 2018 copyright by the U.S. Secretary of Commerce
on behalf of the United States of America. All rights reserved.
##CAS REGISTRY NO=836-41-9
##MOLFORM=C 14 H 13 N O
##$NIST SOURCE=MSDC-IR
##STATE=gas
##XUNITS=1/CM
##YUNITS=ABSORBANCE
##XFACTOR=1.
##YFACTOR=0.001
##DELTAX=1.92934
##FIRSTX=549.9
##LASTX=3999.5
##FIRSTY=18.79
##MAXX=3999.53
##MINX=549.863
##MAXY=0.255
##MINY=0
##NPOINTS=1789
##XYDATA=(X++(Y..Y))
549.863 18.79 16.82 14.89 13.37 11.97 10.44 9.38 8.54 7.72 7.23
569.156 6.88 6.43 5.83 5.43 5.28 5.11 5.05 4.85 4.48 4.3
588.450 4.1382 4.075 4.0794 3.9699 3.8361 3.7787 3.8567 4.1156 4.41 4.77
607.743 5.48 6.44 7.68 8.97 10.01 10.67 10.63 9.97 8.95 7.9
627.037 6.97 6.25 5.89 5.72 5.65 5.72 5.81 5.8 5.68 5.58
646.330 5.36 5.11 5 5.02 5.13 5.39 5.75 6.16 6.63 7.15
665.624 7.83 8.72 9.71 10.81 12.19 13.85 15.91 18.27 20.77 23.26
684.917 25.83 28.25 30.17 31.51 32.09 31.57 30.18 28.33 26.05 23.57
704.210 21.13 18.83 16.82 15.11 13.64 12.54 11.78 11.17 10.77 10.58
723.504 10.51 10.68 11.06 11.66 12.66 13.99 15.61 17.57 19.77 22.16
742.797 24.52 26.65 28.32 29.43 29.9 29.65 28.93 28.08 27.5 27.29
762.091 27.59 28.49 29.68 30.37 30.03 28.65 26.23 23.04 19.82 17.14
781.384 15.12 13.7 12.57 11.89 11.6 11.49 11.59 11.89 12.31 12.77
800.678 13.27 13.88 14.45 14.9 15.48 16.31 17.47 18.97 20.88 23.26
819.971 26.02 29.13 32.48 35.81 38.82 41.21 42.67 43.12 42.57 40.98
839.264 38.54 35.64 32.56 29.41 26.46 23.9 21.76 20.15 19.19 18.96
858.558 19.44 20.73 22.85 25.79 29.55 33.94 38.33 41.69 43.16 42.2
877.851 38.87 33.96 28.62 23.99 20.47 18.03 16.54 15.72 15.34 15.38
897.145 15.69 15.99 16.25 16.26 15.89 15.22 14.18 12.96 11.79 10.75
916.438 9.81 8.98 8.3 7.78 7.36 7.04 6.79 6.64 6.52 6.45
935.732 6.42 6.31 6.18 6.07 5.97 5.94 6 6.13 6.33 6.76
955.025 7.31 7.84 8.51 9.26 9.95 10.59 11.19 11.72 12.09 12.24
974.318 12.14 11.85 11.38 10.8 10.32 9.95 9.68 9.53 9.49 9.63
993.612 9.9 10.3 10.85 11.47 12.24 13.26 14.47 15.71 16.96 18.42
1012.905 20.26 22.57 25.72 29.89 34.77 39.51 43.63 47.16 50.1 52.53
1032.199 54.96 57.57 59.75 60.73 60.02 57.42 53.11 47.61 41.64 35.89
1051.492 30.84 26.71 23.55 21.18 19.38 17.98 16.89 15.98 15.16 14.48
1070.786 13.83 13.13 12.48 11.87 11.33 10.85 10.43 10.22 10.1 10.13
1090.079 10.4 10.71 11.24 12.06 12.96 13.99 15.05 15.93 16.44 16.38
1109.372 15.85 14.94 13.76 12.6 11.68 11.06 10.5 10.07 9.86 9.79
1128.666 9.89 10.13 10.56 11.17 11.88 12.88 14.26 16.03 18.42 21.72
1147.959 26.35 32.75 41.97 56.03 78.22 111.95 156.22 201.33 234.08 246.18
1167.253 232.56 195.7 149.81 109.49 82.2 68.35 64.02 64.94 68.54 73.04
1186.546 76.4 77.2 74.54 68.25 58.7 48.03 39.2 33.42 30.28 28.95
1205.840 28.73 29.23 30.35 31.82 33.67 35.7 37.96 40.7 44.01 48.23
1225.133 53.43 60.01 68.59 79.57 93.28 109.72 128.64 149.75 172.48 195.88
1244.426 218.34 237.4 250.26 255 250.51 237.28 217.87 195.07 170.87 146.71
1263.720 123.84 103.81 87.67 75.58 66.98 61.2 57.64 55.76 55.21 55.9
1283.013 57.63 60.09 63.28 66.88 70.55 74.13 77.52 81.04 84.63 87.14
1302.307 87.19 84.37 78.36 69.23 58.83 48.93 40.37 33.46 28.2 24.34
1321.600 21.43 19.2 17.49 16.18 15.19 14.4 13.85 13.51 13.33 13.28
1340.894 13.22 13.17 13.04 12.89 12.69 12.49 12.32 12.15 12.06 12.05
1360.187 12.16 12.35 12.53 12.65 12.71 12.65 12.45 12.01 11.43 10.92
1379.480 10.43 10.02 9.64 9.3 9.12 8.97 8.84 8.77 8.81 8.94
1398.774 9.15 9.52 10.15 11.15 12.55 14.51 17.3 21.03 25.43 29.78
1418.067 33.07 34.44 33.45 30.41 26.27 22.45 19.97 18.95 18.93 19.66
1437.361 21.12 23.29 25.95 28.41 29.92 30.32 29.83 28.55 27.12 26.45
1456.654 26.79 27.96 29.71 32.02 34.84 37.77 40.12 41.49 42.16 42.58
1475.948 43.13 44.88 48.32 52.74 56.38 57.64 56.41 53.51 49.91 47.87
1495.241 49.42 55.16 65.02 79.38 98.52 121.99 148.9 173.88 190.69 194.61
1514.534 183.32 159.15 127.73 96.06 68.83 50.3 38.21 30.49 25.56 22.38
1533.828 20.31 19.08 18.48 18.21 18.17 18.36 18.74 19.27 19.93 20.77
1553.121 21.85 23.32 25.31 28.14 31.81 36.61 43.32 52.13 63.44 77.54
1572.415 93.44 109.59 124.37 135.49 143.05 149.16 155.81 165.2 177.05 187.68
1591.708 193.01 191.97 186.18 178.95 173.58 171.11 169.85 166.93 160.04 148.28
1611.002 132.67 115.43 99.76 87.53 80.06 77.71 79.92 86.2 95.7 107.61
1630.295 119.82 129.42 133.18 129.4 118.56 102.69 85.15 69.76 57.82 49.05
1649.588 42.75 38.14 34.1 30.73 27.96 25.5 23.38 21.48 19.77 18.26
1668.882 16.86 15.57 14.42 13.38 12.34 11.49 10.82 10.29 9.88 9.46
1688.175 9.11 8.91 8.76 8.62 8.5 8.39 8.3 8.19 8.09 7.96
1707.469 7.88 7.76 7.66 7.63 7.56 7.53 7.45 7.42 7.44 7.4
1726.762 7.34 7.23 7.12 7.07 7 6.91 6.84 6.75 6.69 6.67
1746.056 6.62 6.57 6.54 6.53 6.54 6.64 6.76 6.85 6.95 7.06
1765.349 7.14 7.19 7.26 7.4 7.57 7.7 7.75 7.66 7.37 6.89
1784.642 6.35 5.85 5.44 5.18 5.06 5 4.96 4.93 4.95 4.98
1803.936 4.91 4.85 4.81 4.81 4.78 4.7 4.63 4.59 4.57 4.61
1823.229 4.69 4.75 4.77 4.82 4.9 4.98 5.03 5.07 5.18 5.25
1842.523 5.33 5.46 5.57 5.65 5.7 5.81 5.86 5.83 5.85 5.88
1861.816 5.92 5.98 6.01 6.05 6.08 6.12 6.19 6.22 6.25 6.23
1881.110 6.12 5.98 5.84 5.73 5.63 5.52 5.43 5.35 5.24 5.15
1900.403 5.1 5.08 5.1 5.15 5.23 5.29 5.39 5.52 5.65 5.85
1919.696 6.07 6.3 6.57 6.89 7.13 7.36 7.56 7.67 7.72 7.73
1938.990 7.68 7.6 7.46 7.23 6.89 6.38 5.72 5.03 4.42 3.9434
1958.283 3.6357 3.4785 3.4263 3.4027 3.3864 3.3945 3.4372 3.509 3.6055 3.6627
1977.577 3.7602 3.889 4.0008 4.1512 4.29 4.45 4.62 4.78 4.97 5.15
1996.870 5.32 5.5 5.57 5.63 5.75 5.81 5.86 5.96 6.07 6.25
2016.164 6.43 6.5 6.52 6.49 6.34 6.21 6.11 6.04 6.08 6.07
2035.457 6.05 6.08 6.11 6.18 6.23 6.28 6.37 6.46 6.54 6.62
2054.750 6.72 6.82 6.88 6.93 6.92 6.94 6.96 6.88 6.77 6.64
2074.044 6.49 6.3 6.05 5.75 5.39 5.07 4.81 4.55 4.29 4.0604
2093.337 3.8839 3.7408 3.5782 3.4258 3.30985 3.2343 3.135 3.053 2.984 2.955
2112.631 2.956 2.951 2.962 2.937 2.896 2.888 2.864 2.854 2.854 2.807
2131.924 2.763 2.716 2.655 2.598 2.523 2.474 2.454 2.402 2.353 2.33
2151.218 2.316 2.28 2.27 2.291 2.27 2.27 2.28 2.28 2.283 2.27
2170.511 2.28 2.286 2.27 2.25 2.24 2.23 2.19 2.16 2.19 2.19
2189.804 2.16 2.18 2.15 2.11 2.13 2.17 2.15 2.11 2.12 2.11
2209.098 2.11 2.16 2.19 2.13 2.11 2.17 2.18 2.2 2.2 2.16
2228.391 2.13 2.17 2.19 2.18 2.18 2.21 2.23 2.26 2.303 2.345
2247.685 2.403 2.434 2.487 2.54 2.638 2.739 2.848 2.916 2.927 3.004
2266.978 3.076 3.128 3.167 3.2013 3.2197 3.2224 3.2497 3.27628 3.2549 3.202
2286.272 3.151 3.045 2.933 2.885 2.856 2.797 2.746 2.743 2.759 2.807
2305.565 2.881 2.917 2.962 3.027 2.993 2.892 2.83 2.81 2.832 2.842
2324.858 2.834 2.856 2.898 2.945 2.932 2.912 2.929 2.901 2.88 2.844
2344.152 2.8 2.823 2.822 2.77 2.761 2.784 2.786 2.741 2.691 2.674
2363.445 2.633 2.622 2.634 2.674 2.72 2.785 2.842 2.867 2.856 2.829
2382.739 2.794 2.716 2.648 2.623 2.573 2.483 2.464 2.531 2.582 2.589
2402.032 2.628 2.722 2.809 2.845 2.905 2.978 3.037 3.094 3.172 3.2134
2421.326 3.1888 3.173 3.171 3.159 3.157 3.137 3.125 3.178 3.1927 3.152
2440.619 3.125 3.143 3.118 3.081 3.101 3.161 3.2394 3.27563 3.33992 3.3909
2459.912 3.4119 3.4707 3.4969 3.5085 3.5584 3.5794 3.592 3.5983 3.5827 3.5471
2479.206 3.5302 3.5544 3.5738 3.5666 3.5158 3.4822 3.4998 3.5331 3.5573 3.577
2498.499 3.5608 3.5439 3.5306 3.5214 3.5311 3.5416 3.5721 3.5956 3.571 3.5859
2517.793 3.6526 3.6845 3.7256 3.7657 3.7873 3.861 4.0058 4.1035 4.1908 4.34
2537.086 4.57 4.76 4.96 5.24 5.47 5.56 5.61 5.66 5.64 5.52
2556.380 5.29 5.06 4.83 4.56 4.2463 3.9851 3.8042 3.6279 3.47 3.35856
2575.673 3.32901 3.27782 3.2043 3.148 3.126 3.094 3.023 3.02 3.006 2.969
2594.966 2.921 2.885 2.897 2.896 2.827 2.785 2.796 2.771 2.71 2.636
2614.260 2.617 2.601 2.526 2.473 2.409 2.313 2.23 2.25 2.27 2.22
2633.553 2.13 2.08 2.1 2.12 2.12 2.08 2.04 1.97 1.88 1.79
2652.847 1.73 1.73 1.72 1.69 1.62 1.62 1.64 1.56 1.52 1.56
2672.140 1.54 1.51 1.53 1.55 1.53 1.53 1.63 1.67 1.64 1.6
2691.434 1.59 1.63 1.68 1.67 1.65 1.67 1.69 1.76 1.82 1.86
2710.727 1.94 2 2.03 2.11 2.2 2.25 2.21 2.18 2.18 2.26
2730.020 2.325 2.29 2.347 2.373 2.357 2.416 2.445 2.473 2.532 2.581
2749.314 2.642 2.66 2.719 2.88 2.962 2.938 2.999 3.077 3.115 3.124
2768.607 3.209 3.2481 3.2179 3.2217 3.165 3.128 3.151 3.27422 3.3968 3.4965
2787.901 3.5957 3.697 3.7171 3.7534 3.8698 4.0469 4.2388 4.34 4.46 4.74
2807.194 5.05 5.33 5.72 6.1 6.54 6.99 7.5 8.11 8.68 9.37
2826.488 10.29 11.35 12.5 13.94 15.77 18.06 20.99 24.7 29.16 33.51
2845.781 36.6 38.06 37.77 35.92 33.25 30.74 28.93 27.63 26.83 26.25
2865.074 25.75 25.43 25.01 24.6 24.34 23.93 23.34 22.73 22.05 21.24
2884.368 20.32 19.28 18.28 17.44 16.72 16.13 15.71 15.59 15.6 15.8
2903.661 16.24 16.87 17.59 18.34 19.09 19.65 20.06 20.3 20.34 20.29
2922.955 20.27 20.34 20.53 20.67 20.96 21.76 23.12 24.85 26.97 29.32
2942.248 31.34 32.78 33.64 33.76 33.08 32.06 31.05 30.21 29.52 28.63
2961.542 27.58 26.52 25.2 23.68 22.22 20.75 19.36 18.07 17 16.14
2980.835 15.45 15.17 15.04 15.14 15.52 16.18 17.14 18.27 19.87 21.96
3000.128 24.44 27.44 30.94 34.69 38.21 40.33 40.45 38.8 35.71 32.15
3019.422 29.1 27.31 26.88 27.36 28.55 30.39 32.45 34.06 34.92 34.65
3038.715 33.02 30.37 27.06 23.89 21.62 20.27 19.62 19.51 20.06 21.18
3058.009 22.89 25.48 29.27 34.31 40.49 47.18 52.8 55.67 55.6 53.18
3077.302 48.97 44.13 39.82 36.35 33.6 31.2 29.06 27.26 25.39 23.41
3096.596 21.38 19.4 17.44 15.48 13.71 12.13 10.67 9.23 8.13 7.25
3115.889 6.37 5.69 5.16 4.57 4.0957 3.8966 3.5847 3.2464 2.952 2.686
3135.182 2.484 2.292 2.19 2.11 2.08 2.15 2.14 2.12 2.13 2.05
3154.476 1.94 1.91 1.77 1.52 1.31 1.07 1.05 0.98 0.76 0.71
3173.769 0.7 0.73 0.82 0.75 0.65 0.75 0.86 0.91 0.86 0.86
3193.063 0.85 0.68 0.7 0.91 0.93 0.83 0.83 0.95 0.98 0.95
3212.356 1.02 1 0.88 0.83 0.92 0.94 0.94 1.01 1.07 1.07
3231.650 0.98 1.02 1.25 1.29 1.25 1.41 1.51 1.66 1.71 1.87
3250.943 2.1 1.9 1.87 1.88 1.67 1.44 1.48 1.44 1.1 0.89
3270.236 0.66 0.7 0.79 0.57 0.5 0.46 0.29 0.25 0.32 0.16
3289.530 0.01 0.09 0.21 0.17 0.22 0.25 0.09 0.13 0.25 0.14
3308.823 0.02 0.06 0.17 0.17 0.12 0.15 0.09 0.1 0.13 0.1
3328.117 0.18 0.16 0.07 0.03 0 0.13 0.2 0.19 0.25 0.14
3347.410 0.09 0.21 0.29 0.31 0.25 0.21 0.2 0.26 0.32 0.32
3366.704 0.37 0.33 0.22 0.21 0.25 0.32 0.34 0.34 0.45 0.38
3385.997 0.33 0.28 0.14 0.27 0.37 0.4 0.3 0.17 0.29 0.24
3405.290 0.11 0.28 0.41 0.33 0.34 0.35 0.36 0.51 0.5 0.42
3424.584 0.41 0.49 0.61 0.53 0.57 0.67 0.55 0.49 0.57 0.59
3443.877 0.51 0.49 0.49 0.58 0.61 0.6 0.7 0.76 0.71 0.63
3463.171 0.62 0.67 0.73 0.82 0.76 0.62 0.62 0.72 0.75 0.63
3482.464 0.58 0.65 0.73 0.71 0.79 0.91 0.76 0.7 0.72 0.78
3501.758 0.84 0.78 0.8 0.79 0.9 0.98 0.92 0.9 0.89 0.92
3521.051 0.93 0.99 0.93 0.86 1.05 1.14 1.03 1 1.04 1.01
3540.344 0.95 0.86 0.83 0.84 0.87 0.83 0.98 1.11 1.01 1.05
3559.638 1.07 1.07 1.04 0.97 0.99 1.05 1.04 1.05 1.07 1.02
3578.931 1 1.02 1.01 1 1.07 1.07 1.04 1.03 1.01 1.15
3598.225 1.19 1.15 1.1 1.11 1.15 1.12 1.15 1.16 1.24 1.26
3617.518 1.16 1.03 1.05 1.2 1.15 1.21 1.33 1.47 1.49 1.31
3636.812 1.16 1.2 1.27 1.33 1.37 1.39 1.48 1.44 1.42 1.43
3656.105 1.42 1.35 1.34 1.37 1.43 1.43 1.37 1.36 1.4 1.46
3675.398 1.48 1.38 1.35 1.45 1.52 1.56 1.58 1.53 1.52 1.63
3694.692 1.6 1.6 1.57 1.6 1.71 1.62 1.58 1.53 1.5 1.52
3713.985 1.52 1.49 1.43 1.45 1.43 1.35 1.41 1.44 1.41 1.4
3733.279 1.39 1.4 1.42 1.43 1.41 1.39 1.31 1.28 1.33 1.4
3752.572 1.43 1.42 1.38 1.44 1.42 1.26 1.31 1.48 1.53 1.45
3771.866 1.4 1.38 1.35 1.31 1.32 1.32 1.37 1.4 1.38 1.43
3791.159 1.43 1.4 1.46 1.52 1.5 1.49 1.5 1.52 1.46 1.4
3810.452 1.39 1.38 1.42 1.5 1.55 1.49 1.42 1.53 1.55 1.47
3829.746 1.47 1.45 1.42 1.43 1.42 1.38 1.41 1.41 1.37 1.36
3849.039 1.43 1.52 1.53 1.58 1.65 1.56 1.54 1.66 1.62 1.53
3868.333 1.59 1.71 1.69 1.59 1.53 1.56 1.59 1.73 1.79 1.8
3887.626 1.8 1.75 1.75 1.72 1.67 1.59 1.53 1.52 1.51 1.58
3906.920 1.52 1.42 1.47 1.43 1.39 1.47 1.48 1.56 1.51 1.4
3926.213 1.44 1.52 1.56 1.53 1.5 1.42 1.45 1.53 1.54 1.56
3945.506 1.55 1.54 1.57 1.59 1.6 1.52 1.48 1.54 1.62 1.64
3964.800 1.67 1.71 1.67 1.56 1.58 1.65 1.62 1.65 1.69 1.64
3984.093 1.62 1.71 1.73 1.74 1.62 1.5 1.56 1.55 1.57
##END=
