##TITLE=4-Benzyloxyphenylacetonitrile
##JCAMP-DX=4.24
##DATA TYPE=INFRARED SPECTRUM
##ORIGIN=EPA-IR VAPOR PHASE LIBRARY
##OWNER=SRD/NIST
Collection (C) 2018 copyright by the U.S. Secretary of Commerce
on behalf of the United States of America. All rights reserved.
##CAS REGISTRY NO=838-96-0
##MOLFORM=C 15 H 13 N O
##$NIST SOURCE=MSDC-IR
##STATE=gas
##XUNITS=1/CM
##YUNITS=ABSORBANCE
##XFACTOR=1.
##YFACTOR=0.001
##DELTAX=3.85796
##FIRSTX=551.7
##LASTX=4000.7
##FIRSTY=3.74
##MAXX=4000.7
##MINX=551.688
##MAXY=0.10291
##MINY=0.0006229
##NPOINTS=895
##XYDATA=(X++(Y..Y))
551.688 3.74 3.69 3.75 3.79 3.75 3.84 3.84 3.72 3.67 3.72
590.268 3.86 3.92 4.13 4.51 4.89 5.24 5.48 5.64 5.48 4.92
628.847 4.35 3.92 3.68 3.52 3.3 3.11 3.08 3.17 3.43 3.99
667.427 4.78 5.78 7.06 8.59 10.39 12.67 15.23 16.89 16.74 15.41
706.006 14.08 13.23 13.03 13.54 14.76 16.51 17.95 18.22 17.13 15.57
744.586 14.13 12.91 11.87 10.64 9.25 8.05 7.27 6.71 6.28 6.06
783.165 6.18 6.67 7.42 8.46 9.78 11.23 12.58 13.82 14.98 15.8
821.745 15.94 15.22 13.77 12.17 10.72 9.5 8.71 8.3 8.12 7.93
860.324 7.33 6.36 5.45 4.81 4.47 4.37 4.39 4.46 4.62 5.01
898.904 5.52 5.85 5.84 5.62 5.28 4.89 4.56 4.34 4.21 4.13
937.484 4.16 4.21 4.27 4.38 4.56 4.8 5.12 5.6 6.32 7.31
976.063 8.46 9.75 11.25 12.93 14.73 16.59 18.65 20.93 23.48 26.31
1014.643 29.14 31.33 31.86 29.72 25.55 21.3 17.88 14.64 11.58 9.25
1053.222 7.69 6.67 5.91 5.49 5.33 5.19 5.08 4.93 4.6 4.39
1091.802 4.4 4.6 4.93 5.21 5.43 5.52 5.5 5.36 4.99 4.41
1130.381 3.83 3.51 3.45 3.49 3.76 4.2 4.86 6.12 8.4 13.04
1168.961 21.54 31.55 35.91 30.87 21.63 15.4 13.63 14.55 17.42 22.22
1207.540 29.12 37.89 47.98 58.5 67.37 72.14 73.06 73.65 76.43 79.29
1246.120 77.2 68.59 57.51 48.15 41.23 36.33 33.21 31.39 30.19 28.84
1284.699 27.1 25.23 23.41 21.72 20.05 18.43 17.05 15.75 14.2 12.46
1323.279 11.03 10.24 9.8 9.25 8.42 7.57 6.97 6.72 6.76 7.11
1361.859 7.85 9.07 10.55 12.11 13.32 13.01 10.7 7.77 5.83 4.92
1400.438 4.57 4.58 4.83 5.3 5.99 7.16 9.28 11.25 11.16 9.34
1439.018 8.06 8.2 8.91 9.82 10.65 11.42 12.27 12.93 12.46 10.7
1477.597 9.19 9.09 10.36 13.27 18.47 27.58 43.25 67.16 94.45 102.91
1516.177 83.17 51.05 28.05 17.4 12.18 9.28 7.53 6.4 5.76 5.45
1554.756 5.39 5.52 5.78 6.22 6.93 7.98 9.39 10.87 11.95 12.37
1593.336 12.71 13.92 16.4 19.74 22.85 24.02 21.89 17.06 11.9 8.19
1631.915 6.14 4.93 4.21 3.73 3.37 3.07 2.79 2.61 2.44 2.29
1670.495 2.2 2.12 2.04 1.98 1.95 1.92 1.9 1.9 1.9 1.93
1709.075 1.99 2.03 2.07 2.11 2.19 2.29 2.39 2.52 2.63 2.74
1747.654 2.79 2.8 2.77 2.67 2.54 2.41 2.33 2.31 2.28 2.27
1786.234 2.33 2.5 2.73 2.87 2.78 2.54 2.31 2.16 2.07 2.02
1824.813 2.01 2.02 2.04 2.1 2.18 2.27 2.43 2.59 2.74 2.87
1863.393 2.97 2.99 2.98 2.98 2.97 2.95 2.89 2.78 2.65 2.53
1901.972 2.42 2.29 2.17 2.07 2.04 2.07 2.14 2.24 2.34 2.42
1940.552 2.51 2.57 2.64 2.7 2.71 2.6 2.38 2.17 2.05 2
1979.131 1.99 1.96 1.96 1.96 1.95 1.97 2 2.01 2.04 2.09
2017.711 2.09 2.08 2.08 2.08 2.05 2.01 1.98 1.93 1.89 1.86
2056.291 1.83 1.78 1.72 1.66 1.6 1.55 1.51 1.49 1.48 1.47
2094.870 1.47 1.46 1.42 1.37 1.31 1.26 1.22 1.18 1.13 1.09
2133.450 1.06 1.03 0.9907 0.9557 0.9379 0.9261 0.9035 0.8954 0.9027 0.8882
2172.029 0.8733 0.8768 0.8865 0.8973 0.9074 0.9078 0.9047 0.9074 0.9364 0.9512
2210.609 0.9527 0.9574 0.9839 1.04 1.07 1.11 1.19 1.28 1.39 1.56
2249.188 1.76 1.92 1.96 1.84 1.65 1.49 1.39 1.32 1.25 1.18
2287.768 1.15 1.14 1.13 1.14 1.15 1.17 1.21 1.26 1.3 1.28
2326.347 1.27 1.29 1.31 1.34 1.35 1.34 1.32 1.28 1.24 1.2
2364.927 1.18 1.17 1.14 1.11 1.09 1.09 1.08 1.1 1.13 1.16
2403.507 1.18 1.21 1.24 1.25 1.28 1.29 1.26 1.26 1.27 1.28
2442.086 1.32 1.36 1.36 1.36 1.38 1.4 1.43 1.46 1.46 1.42
2480.666 1.42 1.39 1.33 1.31 1.31 1.29 1.27 1.28 1.3 1.3
2519.245 1.33 1.36 1.37 1.39 1.4 1.4 1.39 1.38 1.38 1.38
2557.825 1.37 1.35 1.31 1.27 1.27 1.28 1.27 1.31 1.31 1.28
2596.404 1.28 1.25 1.2 1.17 1.14 1.09 1.06 1.05 1.02 0.9681
2634.984 0.9735 0.9452 0.8845 0.8648 0.8605 0.8471 0.8599 0.8739 0.8519 0.8531
2673.563 0.8855 0.909 0.907 0.9189 0.934 0.9571 0.9899 1.02 1.05 1.09
2712.143 1.13 1.16 1.21 1.24 1.26 1.3 1.28 1.25 1.21 1.18
2750.722 1.16 1.13 1.11 1.08 1.06 1.08 1.11 1.13 1.18 1.22
2789.302 1.25 1.32 1.37 1.4 1.48 1.54 1.63 1.79 1.95 2.08
2827.882 2.28 2.5 2.72 2.91 2.97 2.94 3 3.21 3.56 4.07
2866.461 4.66 5.31 6.07 6.81 7.39 7.68 7.63 7.32 6.93 6.64
2905.041 6.52 6.58 6.92 7.44 8.13 8.94 9.6 9.79 9.43 8.86
2943.620 8.45 8.31 8.29 8.09 7.47 6.53 5.67 4.96 4.35 3.94
2982.200 3.69 3.59 3.67 3.88 4.19 4.53 4.9 5.39 6.08 7.04
3020.779 8.36 10.22 12.7 15.58 18.02 18.76 17.18 14.38 12.1 11.01
3059.359 10.94 11.85 13.73 15.66 16.08 14.39 11.89 10.08 9.03 8.29
3097.938 7.57 6.82 6.12 5.49 4.81 4.13 3.49 2.85 2.39 2.08
3136.518 1.8 1.57 1.39 1.29 1.26 1.22 1.22 1.23 1.23 1.21
3175.098 1.2 1.18 1.11 1.1 1.1 1.07 1.04 1.02 1.01 0.9626
3213.677 0.924 0.9124 0.9249 0.8849 0.823 0.8279 0.7886 0.764 0.7764 0.7614
3252.257 0.7731 0.7584 0.7427 0.7859 0.8168 0.8222 0.7834 0.7187 0.7193 0.7597
3290.836 0.7568 0.7354 0.7543 0.7938 0.7697 0.7264 0.7204 0.7544 0.7354 0.678
3329.416 0.701 0.7533 0.7501 0.7313 0.726 0.6897 0.6821 0.6984 0.7075 0.676
3367.995 0.6229 0.6458 0.6586 0.6694 0.6959 0.6752 0.6901 0.6856 0.6392 0.6559
3406.575 0.6858 0.68 0.6542 0.6438 0.6743 0.7166 0.7668 0.7475 0.7222 0.749
3445.154 0.7999 0.8167 0.7924 0.7705 0.7684 0.7885 0.8027 0.8137 0.828 0.8498
3483.734 0.8827 0.8856 0.8267 0.7895 0.7966 0.7898 0.7361 0.6675 0.6879 0.7497
3522.314 0.7663 0.7505 0.7328 0.743 0.7455 0.7905 0.8044 0.7555 0.766 0.781
3560.893 0.7753 0.7322 0.7339 0.7459 0.7085 0.7124 0.7309 0.739 0.7271 0.7246
3599.473 0.7749 0.7924 0.7524 0.7622 0.759 0.7826 0.8264 0.8145 0.8169 0.8117
3638.052 0.846 0.9067 0.8988 0.8518 0.8262 0.8772 0.9388 1 1.02 0.949
3676.632 0.9415 0.962 0.948 0.9295 0.9611 0.9611 0.9059 0.8502 0.7797 0.7584
3715.211 0.7812 0.781 0.7778 0.7754 0.8197 0.8293 0.7467 0.7072 0.7304 0.7989
3753.791 0.8025 0.7669 0.754 0.73 0.6824 0.6485 0.682 0.7223 0.7543 0.801
3792.370 0.7887 0.733 0.7188 0.7174 0.731 0.7661 0.7911 0.7438 0.7908 0.8941
3830.950 0.9227 0.8663 0.7793 0.765 0.7595 0.8024 0.8289 0.8599 0.8994 0.945
3869.530 0.9506 0.904 0.9065 0.929 0.9184 0.887 0.8627 0.8427 0.8548 0.8838
3908.109 0.8995 0.8476 0.8544 0.9419 0.9594 0.9366 0.9341 0.8895 0.855 0.8525
3946.689 0.8305 0.8123 0.8035 0.8732 0.8958 0.8301 0.829 0.8441 0.7821 0.7911
3985.268 0.8427 0.8172 0.7854 0.7609 0.8163
##END=
