##TITLE=2-Amino-4-iodotoluene
##JCAMP-DX=4.24
##DATA TYPE=INFRARED SPECTRUM
##ORIGIN=EPA-IR VAPOR PHASE LIBRARY
##OWNER=SRD/NIST
Collection (C) 2018 copyright by the U.S. Secretary of Commerce
on behalf of the United States of America. All rights reserved.
##CAS REGISTRY NO=83863-33-6
##MOLFORM=C 7 H 8 I N
##$NIST SOURCE=MSDC-IR
##STATE=gas
##XUNITS=1/CM
##YUNITS=ABSORBANCE
##XFACTOR=1.
##YFACTOR=0.001
##DELTAX=1.92898
##FIRSTX=549.8
##LASTX=4000.7
##FIRSTY=14.684
##MAXX=4000.7
##MINX=549.759
##MAXY=0.138344
##MINY=0
##NPOINTS=1790
##XYDATA=(X++(Y..Y))
549.759 14.684 14.514 14.994 15.984 16.714 17.434 18.624 19.484 20.044 20.224
569.049 20.434 20.374 19.264 18.764 18.884 18.684 18.024 17.754 17.424 17.004
588.339 16.474 16.184 16.344 16.404 16.484 16.774 17.244 17.854 18.834 19.494
607.628 19.994 20.884 21.774 22.604 23.224 23.514 24.094 24.584 24.444 24.284
626.918 24.004 24.594 25.734 26.644 27.454 27.814 28.214 28.874 29.464 29.404
646.208 29.214 29.154 28.774 28.364 28.144 28.524 28.624 28.014 27.654 27.404
665.498 27.804 28.394 28.354 28.794 29.504 30.174 31.074 31.814 32.614 33.124
684.787 32.894 32.734 33.084 32.674 31.924 31.664 31.094 30.534 30.134 29.214
704.077 28.284 27.734 27.144 26.604 25.904 25.454 25.004 24.514 24.084 23.704
723.367 23.474 23.044 22.674 22.194 21.784 21.144 20.664 20.384 19.884 19.674
742.657 19.524 19.554 19.464 18.984 18.594 18.434 18.314 17.534 16.864 16.924
761.947 17.004 16.854 17.454 18.704 20.284 22.724 25.504 29.034 33.044 37.144
781.236 41.204 45.144 49.114 53.464 59.104 61.744 56.764 50.544 47.294 44.174
800.526 40.364 36.194 32.174 28.074 24.374 21.794 19.964 18.764 18.194 18.084
819.816 18.324 18.324 18.194 18.564 19.654 21.254 23.024 25.164 27.404 30.054
839.106 33.174 36.484 39.544 42.914 46.394 48.594 49.574 49.404 49.284 49.854
858.395 50.584 51.574 53.634 56.934 61.214 65.274 68.404 70.524 69.754 66.024
877.685 60.574 53.294 43.704 33.424 24.934 18.694 14.564 11.934 9.904 8.424
896.975 7.694 7.354 6.894 6.324 6.234 6.344 6.104 6.234 6.354 6.314
916.265 6.434 6.594 6.674 6.724 6.714 6.614 6.614 6.964 7.094 7.094
935.555 7.204 7.344 7.504 7.294 7.484 7.484 7.304 7.294 7.494 7.794
954.844 8.004 8.424 8.734 9.014 9.474 9.844 10.314 10.974 12.024 13.274
974.134 14.324 16.034 18.774 22.644 27.094 31.404 35.034 36.954 36.604 35.064
993.424 33.564 30.504 25.044 19.394 15.694 13.504 12.064 11.214 10.364 9.334
1012.714 8.394 8.004 8.074 7.714 7.034 6.924 7.024 6.884 6.484 6.114
1032.003 6.014 6.024 6.304 6.454 6.604 6.744 6.324 6.334 7.164 7.394
1051.293 7.714 8.394 8.184 8.334 8.284 7.804 7.344 6.574 5.954 5.534
1070.583 5.964 6.394 6.274 6.294 7.194 7.614 7.084 7.954 8.904 9.074
1089.873 8.924 8.704 9.124 9.824 9.194 8.334 8.044 7.644 7.324 6.854
1109.163 6.884 7.234 7.814 7.394 6.754 7.074 7.104 6.984 7.144 7.824
1128.452 7.484 7.614 8.144 7.404 7.604 8.124 8.784 8.824 8.534 9.134
1147.742 9.364 9.824 10.164 9.954 9.944 9.524 9.144 8.934 8.174 6.954
1167.032 6.014 5.974 6.204 6.704 7.264 7.944 8.704 10.124 11.804 13.774
1186.322 17.164 20.864 24.654 26.994 28.104 29.024 28.594 26.594 23.634 19.234
1205.611 14.754 11.764 9.784 8.634 7.934 8.084 8.784 9.214 9.394 10.244
1224.901 10.964 10.844 10.554 10.914 12.134 12.644 13.794 15.464 16.984 19.434
1244.191 22.024 24.354 27.154 29.974 32.074 34.414 36.554 37.384 37.494 37.084
1263.481 35.934 34.514 32.654 30.194 28.064 26.324 25.384 25.454 26.194 27.084
1282.771 27.774 27.904 26.894 25.494 23.424 20.144 16.134 12.534 10.114 8.194
1302.060 6.554 5.554 5.004 4.664 4.444 4.394 4.464 4.534 4.604 4.764
1321.350 4.864 4.824 4.864 4.824 4.664 4.534 4.424 4.244 3.934 3.854
1340.640 3.864 3.754 3.814 3.854 3.874 4.054 4.334 4.574 4.734 4.914
1359.930 5.054 5.284 5.644 6.114 6.684 7.584 8.824 10.274 12.164 14.144
1379.219 15.754 16.914 18.334 20.194 21.994 23.574 25.154 27.344 30.214 33.524
1398.509 36.914 39.944 42.344 43.894 44.744 44.984 44.664 43.404 40.854 37.464
1417.799 33.964 30.494 27.144 24.134 21.534 19.604 18.104 17.104 16.514 16.204
1437.089 16.244 16.404 16.754 17.224 17.854 18.754 19.754 20.814 21.794 22.584
1456.378 23.374 24.114 24.954 26.284 28.144 30.734 34.214 38.894 45.424 54.254
1475.668 65.654 79.444 94.604 109.514 122.014 131.154 136.564 138.344 135.904 127.874
1494.958 115.004 99.724 84.744 71.174 58.814 47.164 36.174 27.184 20.784 16.524
1514.248 13.804 12.114 10.944 10.094 9.684 9.534 9.314 9.254 9.464 9.664
1533.538 10.014 10.474 10.834 11.344 12.074 13.084 14.504 16.114 18.084 20.424
1552.827 23.034 25.944 29.274 33.014 36.864 40.804 44.914 49.254 53.484 57.324
1572.117 60.304 62.244 63.394 64.154 65.054 66.404 68.664 71.744 75.504 79.254
1591.407 82.234 84.084 84.064 82.124 78.964 75.184 71.744 69.514 69.064 70.934
1610.697 75.004 80.824 87.524 94.334 100.294 104.604 107.074 107.024 104.334 99.464
1629.986 92.814 84.584 75.554 66.464 57.584 49.554 42.754 36.964 32.004 27.894
1649.276 24.644 22.074 19.734 17.704 16.064 14.714 13.494 12.374 11.514 10.864
1668.566 10.304 9.714 9.204 9.014 8.724 8.414 8.254 7.994 7.904 7.864
1687.856 7.774 7.774 7.644 7.474 7.324 7.044 6.874 6.684 6.384 6.344
1707.146 6.374 6.274 6.264 6.244 6.144 6.004 5.834 5.804 5.634 5.294
1726.435 5.094 4.954 4.744 4.714 4.634 4.574 4.444 4.194 3.914 3.644
1745.725 3.564 3.434 3.234 3.124 3.074 2.904 2.724 2.664 2.684 2.704
1765.015 2.554 2.494 2.634 2.694 2.674 2.684 2.634 2.614 2.634 2.664
1784.305 2.664 2.764 2.734 2.654 2.654 2.624 2.584 2.494 2.574 2.664
1803.594 2.604 2.604 2.644 2.604 2.484 2.514 2.474 2.504 2.624 2.714
1822.884 2.774 2.774 2.814 2.754 2.824 2.854 2.884 3.064 3.124 3.224
1842.174 3.474 3.734 3.974 4.144 4.384 4.524 4.534 4.504 4.454 4.384
1861.464 4.164 3.994 3.664 3.374 3.044 2.684 2.564 2.474 2.324 2.144
1880.754 2.014 1.964 1.834 1.724 1.764 1.814 1.764 1.764 1.844 1.844
1900.043 1.854 1.834 1.724 1.654 1.674 1.704 1.654 1.644 1.624 1.584
1919.333 1.644 1.674 1.684 1.714 1.674 1.644 1.624 1.664 1.764 1.734
1938.623 1.664 1.634 1.594 1.624 1.744 1.824 1.874 1.934 1.794 1.774
1957.913 1.864 1.804 1.694 1.714 1.684 1.574 1.644 1.714 1.704 1.694
1977.202 1.654 1.684 1.644 1.594 1.554 1.434 1.474 1.574 1.614 1.614
1996.492 1.584 1.524 1.554 1.614 1.594 1.604 1.544 1.614 1.644 1.604
2015.782 1.604 1.544 1.574 1.584 1.504 1.494 1.494 1.544 1.674 1.574
2035.072 1.474 1.484 1.544 1.564 1.624 1.584 1.414 1.444 1.394 1.344
2054.362 1.404 1.344 1.354 1.374 1.3089 1.434 1.474 1.2947 1.2633 1.454
2073.651 1.514 1.454 1.374 1.384 1.424 1.364 1.3027 1.384 1.474 1.394
2092.941 1.3158 1.344 1.414 1.424 1.444 1.454 1.464 1.564 1.624 1.614
2112.231 1.614 1.664 1.674 1.654 1.624 1.554 1.624 1.734 1.714 1.694
2131.521 1.704 1.664 1.794 1.854 1.724 1.674 1.694 1.654 1.454 1.2537
2150.810 1.2642 1.2666 1.133 1.079 1.1852 1.1692 1.2109 1.2939 1.1792 0.9872
2170.100 1.0426 1.0517 0.9715 1.1241 1.0259 0.995 1.099 0.9257 0.8986 1.0701
2189.390 1.1198 1.1265 1.1089 1.1068 1.0949 1.1394 1.1191 1.0754 1.1207 1.1367
2208.680 1.1726 1.2251 1.238 1.1816 1.0459 1.0164 1.0581 1.0747 1.1992 1.364
2227.970 1.2961 1.1443 1.1661 1.2381 1.2366 1.2019 1.2647 1.2379 1.2263 1.2127
2247.259 1.1718 1.1879 1.1326 1.1362 1.1391 1.1264 1.1042 1.0052 1.0671 1.2283
2266.549 1.2939 1.1691 1.0488 1.1816 1.3106 1.2447 1.1307 1.1185 1.1217 1.0678
2285.839 1.1462 1.235 1.2843 1.2145 1.1258 1.2618 1.324 1.3226 1.279 1.2617
2305.129 1.2608 1.2267 1.1655 1.1995 1.364 1.464 1.484 1.444 1.404 1.364
2324.418 1.3064 1.2975 1.404 1.524 1.404 1.344 1.464 1.474 1.544 1.604
2343.708 1.534 1.514 1.514 1.424 1.364 1.384 1.354 1.3228 1.374 1.364
2362.998 1.2773 1.354 1.534 1.524 1.394 1.424 1.494 1.434 1.424 1.584
2382.288 1.494 1.195 1.2356 1.2438 1.1064 1.0134 0.9531 1.0211 1.1039 1.0707
2401.578 0.9875 0.9772 0.9856 1.0307 1.0158 0.9926 1.0474 1.003 1.0267 1.1353
2420.867 1.117 1.0684 1.1547 1.2559 1.3053 1.2906 1.2711 1.374 1.494 1.544
2440.157 1.494 1.494 1.414 1.434 1.524 1.594 1.614 1.484 1.434 1.574
2459.447 1.654 1.514 1.454 1.494 1.454 1.334 1.235 1.364 1.404 1.394
2478.737 1.334 1.344 1.504 1.474 1.474 1.484 1.514 1.464 1.394 1.374
2498.026 1.524 1.604 1.404 1.3153 1.3109 1.364 1.2571 1.2141 1.2547 1.3002
2517.316 1.424 1.484 1.374 1.384 1.464 1.494 1.534 1.534 1.554 1.634
2536.606 1.644 1.634 1.794 1.894 1.924 1.834 1.814 1.884 1.914 1.944
2555.896 1.854 1.724 1.654 1.654 1.624 1.594 1.704 1.734 1.714 1.804
2575.186 1.784 1.704 1.554 1.384 1.354 1.384 1.334 1.19 0.9597 0.9316
2594.475 0.922 0.7843 0.8224 0.8693 0.795 0.758 0.7057 0.7127 0.7218 0.5826
2613.765 0.5728 0.7677 0.8542 0.7647 0.7204 0.8059 0.8725 0.6746 0.5184 0.6519
2633.055 0.7476 0.6999 0.7183 0.7562 0.8154 0.8636 0.8214 0.8229 0.9574 0.9701
2652.345 0.9391 1.0576 1.1313 1.2837 1.424 1.484 1.374 1.318 1.424 1.464
2671.634 1.544 1.534 1.644 1.764 1.704 1.674 1.594 1.534 1.574 1.794
2690.924 1.794 1.534 1.454 1.564 1.514 1.424 1.354 1.404 1.554 1.554
2710.214 1.494 1.424 1.424 1.384 1.344 1.384 1.604 1.714 1.654 1.774
2729.504 1.954 2.104 2.224 2.424 2.734 2.894 3.014 3.174 3.164 3.004
2748.794 2.854 2.614 2.474 2.394 2.194 2.124 2.034 1.794 1.694 1.584
2768.083 1.504 1.614 1.584 1.554 1.774 1.904 1.974 1.894 1.734 1.734
2787.373 1.794 1.894 1.834 1.804 1.864 1.924 1.754 1.754 1.954 1.884
2806.663 1.924 2.184 2.434 2.374 2.294 2.344 2.394 2.574 2.644 2.754
2825.953 2.904 2.994 3.054 3.244 3.624 3.784 3.914 4.314 4.674 4.984
2845.242 5.394 6.054 7.034 7.794 8.614 9.674 10.884 12.384 13.894 15.334
2864.532 16.914 18.524 19.624 20.864 22.254 22.954 23.284 23.434 23.114 22.344
2883.822 21.534 20.584 19.434 18.624 18.224 17.834 17.654 17.854 18.224 18.614
2903.112 18.944 18.894 18.644 18.504 18.544 18.624 18.834 19.634 20.724 22.074
2922.401 23.854 25.834 27.964 29.954 31.524 32.384 32.294 31.604 30.274 28.324
2941.691 26.244 23.964 21.734 19.934 18.254 16.804 15.624 14.834 14.204 13.294
2960.981 12.794 12.704 12.564 12.594 12.914 13.574 14.344 15.054 15.564 16.074
2980.271 16.454 16.404 16.174 15.914 15.594 15.094 14.304 13.304 12.344 11.644
2999.561 11.104 10.574 10.594 11.134 11.544 12.134 13.084 14.094 15.494 17.124
3018.850 18.594 19.704 20.624 21.114 21.104 20.944 20.464 19.644 18.364 16.974
3038.140 15.864 15.094 14.514 13.744 13.014 12.574 12.074 11.304 10.444 9.694
3057.430 9.244 8.874 8.634 8.644 8.904 9.104 9.374 9.924 10.384 10.574
3076.720 10.654 10.834 10.784 10.564 10.224 9.884 9.394 8.664 7.964 7.004
3096.009 6.204 5.514 4.904 4.514 4.024 3.574 3.254 2.894 2.524 2.364
3115.299 2.254 1.944 1.754 1.924 2.034 1.854 1.384 1.2593 1.334 1.394
3134.589 1.394 1.2705 1.2404 1.2006 1.2006 1.0772 1.0408 1.1127 1.216 1.484
3153.879 1.494 1.214 1.0374 1.0702 1.1411 1.1749 1.324 1.3178 1.2956 1.334
3173.169 1.0729 1.0073 1.1695 1.1789 1.308 1.474 1.454 1.474 1.3069 1.1718
3192.458 1.384 1.684 1.774 1.644 1.554 1.454 1.324 1.594 1.634 1.474
3211.748 1.714 1.704 1.584 1.784 1.594 1.404 1.534 1.454 1.724 1.884
3231.038 1.634 1.604 1.644 1.764 1.884 1.824 1.634 1.474 1.3201 1.257
3250.328 1.434 1.324 1.1309 1.0925 1.0717 1.0783 0.9073 0.9674 1.2565 1.1427
3269.617 0.9431 0.745 0.4293 0.4667 0.6213 0.5676 0.5379 0.4535 0.5142 0.636
3288.907 0.3096 0.203 0.4287 0.2904 0.124 0.141 0.186 0.264 0.37726 0.40192
3308.197 0.331885 0.2979 0.2788 0.2588 0.41126 0.6966 0.8104 0.6276 0.39852 0.4973
3327.487 0.5274 0.41507 0.4476 0.4797 0.41224 0.41701 0.5384 0.6334 0.6912 0.52
3346.777 0.2936 0.2659 0.4995 0.5426 0.5153 0.6774 0.7507 0.7239 0.6823 0.7087
3366.066 0.7073 1.0327 1.364 1.275 1.2033 1.2013 1.2301 1.394 1.834 2.334
3385.356 2.654 2.954 3.574 4.354 5.364 6.434 7.414 8.794 10.314 11.754
3404.646 13.334 14.914 16.274 16.824 17.044 17.124 16.694 15.844 14.264 12.634
3423.936 11.144 9.704 8.364 6.994 5.824 4.964 4.484 3.744 2.884 2.634
3443.225 2.464 2.234 1.984 1.834 1.954 1.994 2.114 2.174 2.114 2.174
3462.515 2.324 2.704 3.084 3.324 3.474 3.714 4.394 5.194 5.854 6.854
3481.805 8.214 9.824 11.474 13.094 14.544 15.394 16.224 16.804 16.664 15.874
3501.095 14.874 13.834 12.734 11.684 10.254 8.904 7.814 6.894 6.034 5.034
3520.385 4.214 3.604 3.064 2.734 2.544 2.154 1.974 1.804 1.364 1.3072
3539.674 1.534 1.434 1.062 1.019 1.0706 0.959 0.9562 0.9247 0.7011 0.6849
3558.964 0.7301 0.5902 0.7455 0.6006 0.211 0.34479 0.39487 0.2524 0.5213 0.8021
3578.254 0.7622 0.6198 0.328118 0.34645 0.5259 0.5098 0.4603 0.3084 0.3065 0.2619
3597.544 0 0.076 0.174 0.213 0.328758 0.2376 0.193 0.083 0.069 0.4518
3616.833 0.6367 0.5663 0.4354 0.2541 0.011 0.197 0.6948 0.733 0.6056 0.4951
3636.123 0.5941 0.7582 0.696 0.5942 0.6563 0.5496 0.4615 0.51 0.5876 0.7017
3655.413 0.6738 0.4812 0.2545 0.207 0.2764 0.3025 0.2473 0.39115 0.38247 0.091
3674.703 0.202 0.2795 0.198 0.4496 0.4948 0.36912 0.4474 0.5686 0.7622 0.695
3693.993 0.5012 0.41003 0.2649 0.2928 0.38496 0.3086 0.4716 0.5784 0.6236 0.7018
3713.282 0.6456 0.6974 0.5566 0.4546 0.40421 0.4807 0.5353 0.7216 0.7756 0.4974
3732.572 0.38903 0.5393 0.8964 0.7169 0.4921 0.6378 0.6772 0.582 0.39905 0.526
3751.862 0.6429 0.539 0.7761 0.7817 0.7471 0.6775 0.4253 0.4255 0.41755 0.4476
3771.152 0.5457 0.5929 0.4583 0.47 0.5014 0.4301 0.41144 0.594 0.7941 0.6356
3790.441 0.5932 0.6116 0.5631 0.558 0.4789 0.455 0.5166 0.5314 0.6254 0.6531
3809.731 0.5729 0.4181 0.4405 0.467 0.3131 0.5514 0.6175 0.4102 0.649 0.6913
3829.021 0.35963 0.4928 0.6815 0.7449 0.7946 0.7689 0.8035 0.748 0.8222 0.8859
3848.311 0.8489 1.025 1.1111 0.9345 0.7671 1.0845 1.109 0.9691 1.2478 1.2127
3867.601 1.1126 1.3183 1.1967 1.0628 1.0066 0.871 0.8007 0.7978 0.9918 1.0349
3886.890 0.9421 0.6641 0.9775 1.1546 0.9066 1.0281 1.151 1.1648 1.1403 1.1782
3906.180 1.2302 1.2012 0.9429 0.9477 1.0482 0.895 0.8707 0.9104 1.1429 1.1408
3925.470 1.1182 1.3087 1.271 1.105 1.1626 1.364 1.2406 1.1196 1.1206 1.1307
3944.760 0.9792 0.9612 1.1037 1.0863 1.2375 1.394 1.2795 1.1638 1.2551 1.2589
3964.049 1.1391 1.374 1.2449 1.028 1.0434 1.0364 1.1825 1.0924 0.8956 0.8042
3983.339 0.6784 0.6338 0.8137 0.8403 0.7197 0.5348 0.6669 0.7 0.5419 0.8067
##END=
