##TITLE=2-Methyl-3-decanol
##JCAMP-DX=4.24
##DATA TYPE=INFRARED SPECTRUM
##ORIGIN=NIST Mass Spectrometry Data Center
##OWNER=NIST Standard Reference Data Program
Collection (C) 2018 copyright by the U.S. Secretary of Commerce
on behalf of the United States of America. All rights reserved.
##CAS REGISTRY NO=83909-79-9
##MOLFORM=C 11 H 24 O
##$NIST SOURCE=MSDC-IR
##SPECTROMETER/DATA SYSTEM=HP-GC/MS/IRD
##STATE=gas
##XUNITS=1/CM
##YUNITS=ABSORBANCE
##XFACTOR=1.0
##YFACTOR=0.000004600
##DELTAX=4.0
##FIRSTX=550.0
##LASTX=3846.0
##FIRSTY=0.000170
##MAXX=3846
##MINX=550
##MAXY=0.046
##MINY=0
##NPOINTS=825
##XYDATA=(X++(Y..Y))
550.0 37 40 39 30 34 17 10 22 16 43
590.0 50 44 56 54 52 51 54 55 48 39
630.0 23 20 16 11 14 11 17 32 33 27
670.0 39 46 45 52 49 53 59 69 82 100
710.0 113 121 144 152 137 130 120 111 109 110
750.0 108 107 97 89 97 103 100 107 107 105
790.0 107 99 96 105 126 127 132 133 145 149
830.0 145 147 137 136 135 140 143 147 158 164
870.0 178 197 215 232 237 243 248 243 242 245
910.0 243 246 256 267 281 299 316 339 375 416
950.0 466 523 590 673 766 861 958 1042 1096 1106
990.0 1065 999 930 869 822 797 785 788 801 814
1030.0 831 856 875 883 863 821 772 711 652 604
1070.0 565 543 526 514 511 517 530 540 544 545
1110.0 544 538 534 538 538 543 549 551 535 510
1150.0 484 470 467 474 481 479 463 440 423 403
1190.0 392 394 399 407 419 442 466 487 506 527
1230.0 538 548 556 557 550 543 540 533 521 506
1270.0 495 484 473 466 459 454 454 453 455 448
1310.0 433 418 402 390 386 395 414 444 476 514
1350.0 565 618 676 748 826 900 960 998 1026 1039
1390.0 1014 929 790 643 529 452 401 366 353 366
1430.0 397 446 517 606 715 842 974 1102 1194 1222
1470.0 1171 1044 856 661 500 386 307 255 215 184
1510.0 161 144 127 112 102 96 89 84 79 70
1550.0 64 58 54 49 47 47 49 45 46 46
1590.0 44 42 39 36 37 38 37 33 30 31
1630.0 33 33 32 35 35 31 29 26 23 22
1670.0 25 24 20 19 17 15 16 16 14 12
1710.0 12 12 11 8 6 6 6 4 4 8
1750.0 7 6 4 2 0 4 5 6 7 3
1790.0 2 2 3 5 5 3 0 0 2 1
1830.0 4 7 3 0 2 5 5 1 1 2
1870.0 2 3 4 4 7 8 7 8 5 5
1910.0 3 3 5 5 4 5 5 4 5 6
1950.0 5 5 7 7 5 3 4 5 7 6
1990.0 4 5 7 9 9 6 5 9 15 15
2030.0 14 13 13 13 11 10 9 9 8 6
2070.0 6 8 7 6 6 5 4 7 8 9
2110.0 9 7 11 11 9 6 7 6 5 6
2150.0 8 11 10 11 12 12 15 13 9 9
2190.0 8 8 11 15 14 11 14 13 12 14
2230.0 13 15 18 17 15 17 17 18 21 22
2270.0 19 18 19 18 19 19 19 22 23 22
2310.0 22 22 19 23 28 26 24 26 27 28
2350.0 30 27 26 28 30 27 24 28 31 31
2390.0 32 31 33 34 34 35 33 28 30 34
2430.0 32 29 29 33 30 29 30 29 29 31
2470.0 34 33 33 32 33 36 38 38 39 39
2510.0 41 43 42 42 44 48 49 50 52 55
2550.0 59 62 63 68 73 77 80 80 84 85
2590.0 88 91 96 106 110 109 113 116 119 124
2630.0 121 122 128 130 132 138 142 144 150 154
2670.0 158 162 165 168 168 170 165 165 170 172
2710.0 171 174 181 191 203 212 219 229 234 234
2750.0 233 231 231 238 251 257 267 279 293 313
2790.0 336 356 380 409 443 485 529 587 659 740
2830.0 839 971 1156 1417 1783 2276 2879 3489 3984 4271
2870.0 4360 4349 4317 4252 4128 3979 3902 3969 4200 4561
2910.0 5045 5681 6514 7552 8652 9551 10000 9887 9274 8376
2950.0 7503 6976 6981 7397 7695 7358 6318 4944 3705 2757
2990.0 2070 1598 1268 1036 863 735 636 556 499 448
3030.0 405 380 358 333 311 290 273 260 244 232
3070.0 224 214 205 195 193 191 182 173 168 161
3110.0 158 153 142 136 135 132 128 122 120 122
3150.0 119 116 116 116 112 113 113 104 98 98
3190.0 94 91 84 75 71 66 56 49 51 51
3230.0 44 39 38 37 37 33 28 29 29 22
3270.0 20 28 29 25 26 27 24 24 27 26
3310.0 24 25 21 18 17 18 13 12 18 16
3350.0 18 22 26 26 28 28 28 27 23 24
3390.0 22 21 24 26 30 29 27 29 28 26
3430.0 26 24 24 29 29 27 24 24 23 23
3470.0 23 20 16 15 20 19 21 24 22 16
3510.0 16 13 13 15 10 12 13 10 7 10
3550.0 13 12 10 12 17 15 13 20 24 19
3590.0 16 19 22 28 35 41 51 69 90 106
3630.0 130 158 189 237 287 336 373 391 369 318
3670.0 257 198 150 108 79 61 49 46 42 35
3710.0 26 20 27 30 28 27 26 26 25 26
3750.0 32 30 25 21 21 30 33 33 29 27
3790.0 28 26 31 33 40 37 32 33 39 42
3830.0 42 46 48 45 41
##END=
