##TITLE=N-(4-Acetylphenyl)-2,5-dimethylpyrrole
##JCAMP-DX=4.24
##DATA TYPE=INFRARED SPECTRUM
##ORIGIN=EPA-IR VAPOR PHASE LIBRARY
##OWNER=SRD/NIST
Collection (C) 2018 copyright by the U.S. Secretary of Commerce
on behalf of the United States of America. All rights reserved.
##CAS REGISTRY NO=83935-45-9
##MOLFORM=C 14 H 15 N O
##$NIST SOURCE=MSDC-IR
##STATE=gas
##XUNITS=1/CM
##YUNITS=ABSORBANCE
##XFACTOR=1.
##YFACTOR=0.001
##DELTAX=1.92898
##FIRSTX=549.8
##LASTX=4000.7
##FIRSTY=3.286
##MAXX=4000.7
##MINX=549.759
##MAXY=0.258626
##MINY=0
##NPOINTS=1790
##XYDATA=(X++(Y..Y))
549.759 3.286 3.606 3.816 3.996 4.426 4.886 4.986 4.376 4.026 4.416
569.049 4.056 4.226 5.006 5.546 6.586 7.606 10.346 13.166 15.506 19.226
588.339 23.506 27.766 31.626 34.356 34.626 33.136 31.086 27.896 24.236 20.976
607.628 17.716 15.246 13.926 13.786 14.776 16.796 20.106 25.236 30.386 33.726
626.918 35.316 35.026 32.866 28.476 23.226 18.656 15.296 12.656 10.526 9.216
646.208 8.286 7.046 6.316 5.906 5.506 5.416 5.366 5.266 5.426 5.856
665.498 6.206 7.076 7.566 7.676 7.296 6.756 6.346 4.966 3.866 3.586
684.787 3.296 3.006 2.926 3.236 3.526 3.906 4.686 5.576 6.146 6.696
704.077 7.516 8.086 8.776 8.876 8.506 8.506 7.836 7.056 6.366 5.466
723.367 5.226 5.346 5.606 5.716 5.906 7.066 8.516 10.256 12.966 16.896
742.657 22.436 29.936 39.966 51.906 64.546 76.496 87.446 96.866 96.956 88.006
761.947 77.186 64.826 51.516 38.656 27.956 19.966 14.266 10.496 8.056 6.826
781.236 6.176 5.436 4.996 5.286 5.836 5.846 5.886 5.996 6.036 5.936
800.526 5.486 5.556 5.936 5.876 6.156 6.496 6.966 8.366 9.766 11.296
819.816 13.156 14.696 16.196 18.446 20.676 22.876 25.196 27.646 30.926 34.866
839.106 39.466 44.096 47.216 48.836 49.006 47.166 43.066 37.126 30.116 23.416
858.395 18.206 13.846 10.416 8.366 7.296 6.956 6.616 6.086 6.016 6.006
877.685 5.896 5.706 5.296 5.306 5.686 5.656 5.616 5.776 6.026 6.096
896.975 6.026 5.576 5.236 5.146 4.766 4.716 4.236 4.106 4.306 4.146
916.265 4.136 4.316 4.666 5.116 5.396 5.546 6.066 6.776 7.536 8.576
935.555 10.066 11.916 14.656 18.356 22.856 28.416 34.776 40.726 45.046 46.936
954.844 46.756 44.026 38.576 32.646 27.556 23.386 19.946 17.576 15.846 14.246
974.134 13.696 13.256 12.336 12.056 12.096 12.056 12.786 15.386 20.216 27.216
993.424 35.286 41.536 44.636 44.296 41.526 36.006 28.036 21.306 18.106 17.726
1012.714 17.746 17.256 16.966 16.626 15.586 14.556 13.616 13.846 15.356 16.746
1032.003 17.516 17.106 16.036 14.756 12.796 10.616 8.716 8.236 8.396 7.556
1051.293 7.206 7.146 7.006 7.766 8.186 8.596 9.666 11.206 12.426 13.486
1070.583 15.246 15.876 16.336 16.286 14.646 12.976 11.136 9.016 7.466 7.116
1089.873 7.446 7.796 7.836 8.686 9.976 10.676 11.486 10.986 10.776 11.756
1109.163 11.676 11.046 10.506 8.976 7.976 7.676 6.726 6.376 5.766 4.926
1128.452 4.846 5.726 5.866 5.256 4.766 4.626 5.286 5.006 4.936 5.606
1147.742 5.816 5.676 5.806 6.386 6.356 6.976 7.766 8.496 10.316 11.996
1167.032 15.096 20.366 24.756 26.186 26.136 26.026 23.986 20.146 16.546 13.426
1186.322 11.166 10.536 10.566 11.006 11.666 11.786 12.046 13.256 14.096 14.416
1205.611 15.996 18.626 22.866 26.336 30.316 35.176 40.376 45.836 49.986 53.206
1224.901 54.826 57.166 59.746 62.436 66.546 71.766 79.226 88.536 99.656 114.576
1244.191 132.976 152.596 171.806 188.406 199.496 203.876 200.936 191.876 178.686 163.856
1263.481 149.426 135.836 123.286 112.156 101.446 91.146 81.886 73.356 66.536 61.506
1282.771 57.486 54.186 51.296 48.106 44.776 41.956 39.466 37.216 35.066 33.076
1302.060 31.836 31.176 30.566 30.906 32.946 36.606 42.056 48.976 56.616 63.546
1321.350 68.156 69.576 67.636 62.536 55.146 47.146 40.516 36.446 34.596 33.926
1340.640 34.096 35.066 36.716 39.136 42.606 47.336 53.526 61.386 70.096 78.186
1359.930 84.186 86.906 86.136 82.066 75.376 67.876 61.666 57.756 56.396 57.496
1379.219 60.576 65.506 72.166 80.576 91.706 106.306 124.346 145.856 170.476 195.576
1398.509 218.076 234.786 242.576 240.616 228.266 207.176 180.746 152.486 125.126 100.866
1417.799 81.426 66.546 56.016 48.826 43.716 40.166 37.666 36.106 35.126 34.216
1437.089 33.636 33.496 33.496 33.346 33.146 32.896 32.396 31.816 30.986 29.996
1456.378 28.936 27.726 26.506 25.366 24.126 22.766 21.676 20.846 20.316 19.956
1475.668 19.716 19.566 19.346 19.246 19.356 19.666 20.446 21.936 24.196 27.286
1494.958 31.476 37.286 44.946 54.166 64.476 74.816 83.726 90.076 93.116 92.816
1514.248 89.406 83.506 76.046 67.996 59.676 51.536 43.586 36.176 30.046 25.416
1533.538 22.256 20.326 19.066 18.436 18.076 17.656 17.246 16.836 16.656 16.806
1552.827 17.116 17.656 18.596 19.766 21.256 22.936 24.146 25.176 26.226 26.836
1572.117 27.186 27.346 27.626 28.206 29.426 31.566 34.756 39.196 45.616 54.926
1591.407 67.406 83.576 102.896 123.996 144.106 158.526 163.346 157.186 141.286 117.926
1610.697 91.086 66.376 48.196 36.576 29.936 26.406 24.036 22.346 21.356 20.916
1629.986 21.056 21.836 22.616 23.216 23.566 23.406 22.706 21.526 20.246 19.096
1649.276 18.376 18.026 17.866 18.006 18.366 18.586 19.066 19.946 20.656 21.526
1668.566 22.736 24.016 25.436 26.896 28.476 30.186 31.896 33.976 36.766 40.586
1687.856 46.246 54.546 66.746 83.896 108.296 140.196 176.986 215.486 244.546 258.626
1707.146 254.356 232.996 197.146 154.636 115.186 84.516 62.436 47.416 37.446 31.226
1726.435 27.516 25.046 23.386 22.036 20.756 19.436 17.966 16.556 15.016 13.576
1745.725 12.336 11.286 10.676 10.236 9.936 9.776 9.606 9.366 8.896 8.296
1765.015 7.666 6.996 6.586 6.306 5.986 5.606 5.386 5.156 4.856 4.756
1784.305 4.636 4.526 4.576 4.686 4.836 4.846 4.796 4.696 4.516 4.436
1803.594 4.296 4.026 3.876 3.876 3.756 3.596 3.586 3.606 3.476 3.386
1822.884 3.276 3.176 3.106 3.046 3.046 2.956 2.926 2.856 2.826 2.786
1842.174 2.756 2.776 2.746 2.686 2.666 2.676 2.656 2.646 2.626 2.686
1861.464 2.646 2.636 2.706 2.706 2.726 2.726 2.776 2.996 3.076 2.986
1880.754 3.056 3.206 3.276 3.376 3.486 3.556 3.806 3.946 3.856 3.956
1900.043 4.096 4.056 3.936 3.876 3.896 3.736 3.606 3.756 3.846 3.836
1919.333 3.826 3.766 3.666 3.496 3.386 3.316 3.216 3.016 2.886 2.866
1938.623 2.756 2.746 2.806 2.836 2.716 2.646 2.756 2.626 2.376 2.226
1957.913 2.096 1.946 1.846 1.786 1.766 1.646 1.486 1.456 1.516 1.526
1977.202 1.646 1.756 1.696 1.666 1.836 1.986 1.946 1.936 2.046 2.066
1996.492 2.076 2.146 2.186 2.286 2.316 2.216 2.256 2.466 2.356 2.146
2015.782 2.086 1.976 2.046 2.216 2.356 2.406 2.436 2.486 2.566 2.566
2035.072 2.416 2.236 2.056 1.866 1.736 1.666 1.526 1.486 1.456 1.3694
2054.362 1.376 1.546 1.656 1.616 1.596 1.536 1.506 1.456 1.486 1.586
2073.651 1.566 1.456 1.3539 1.3907 1.456 1.3743 1.3095 1.3987 1.2953 1.1812
2092.941 1.2574 1.2276 1.1027 1.0921 1.1479 1.0281 1.0163 1.0457 0.96 1.15
2112.231 1.2879 1.2851 1.2526 1.132 1.1392 1.2593 1.3153 1.2596 1.2704 1.3474
2131.521 1.3312 1.2285 1.1913 1.1754 1.2766 1.3568 1.288 1.1247 1.0446 1.1491
2150.810 1.2042 1.179 1.085 1.1368 1.1991 1.1056 1.1284 1.1568 1.2101 1.1665
2170.100 1.1094 1.0112 0.8209 0.9478 1.1081 1.0674 0.9484 0.9565 1.0695 1.0948
2189.390 1.0824 1.0715 1.0012 1.061 1.1669 1.0781 0.9634 1.0934 1.185 1.1031
2208.680 1.2034 1.1938 1.1056 1.2152 1.2578 1.2353 1.2582 1.2073 1.208 1.1916
2227.970 1.2039 1.2538 1.2683 1.3777 1.404 1.4096 1.2713 1.1903 1.2359 1.2055
2247.259 1.2602 1.3018 1.2636 1.3377 1.4133 1.3816 1.2521 1.2314 1.2891 1.3707
2266.549 1.526 1.4038 1.4058 1.576 1.706 1.656 1.596 1.686 1.776 1.936
2285.839 1.916 1.856 1.736 1.636 1.606 1.556 1.576 1.526 1.556 1.496
2305.129 1.456 1.566 1.736 1.816 1.566 1.3454 1.3808 1.486 1.616 1.626
2324.418 1.626 1.716 1.686 1.656 1.656 1.756 1.676 1.496 1.596 1.756
2343.708 1.936 2.006 2.086 2.196 2.276 2.376 2.226 2.186 2.296 2.216
2362.998 2.296 2.296 2.196 2.216 2.036 1.806 1.716 1.586 1.476 1.486
2382.288 1.426 1.436 1.436 1.317 1.3793 1.576 1.546 1.4258 1.2884 1.319
2401.578 1.506 1.456 1.4208 1.546 1.556 1.516 1.566 1.756 1.786 1.716
2420.867 1.756 1.746 1.776 1.836 1.836 1.756 1.786 1.806 1.686 1.626
2440.157 1.656 1.4111 1.1041 1.0805 1.024 1.0409 1.1705 1.1055 1.044 1.1365
2459.447 1.1103 1.1026 1.2007 1.1616 1.1842 1.2046 1.1951 1.3118 1.3355 1.2221
2478.737 1.2557 1.3568 1.526 1.586 1.506 1.566 1.436 1.496 1.766 1.756
2498.026 1.616 1.676 1.736 1.716 1.636 1.526 1.676 1.686 1.606 1.716
2517.316 1.946 1.936 1.946 2.026 1.946 1.986 2.066 2.176 2.166 2.346
2536.606 2.366 2.146 2.206 2.296 2.276 2.406 2.556 2.426 2.376 2.406
2555.896 2.476 2.426 2.256 2.206 2.266 2.186 2.056 2.006 1.936 1.906
2575.186 1.996 2.146 1.976 1.896 1.986 1.936 1.856 1.756 1.796 1.956
2594.475 2.126 2.196 2.236 2.226 2.146 2.096 2.146 2.366 2.576 2.456
2613.765 2.216 2.076 2.056 2.206 2.256 1.976 2.116 2.296 2.216 2.226
2633.055 2.286 2.416 2.466 2.646 2.666 2.616 2.746 2.896 3.036 3.056
2652.345 2.996 3.046 2.996 2.976 2.916 2.866 2.976 2.856 2.696 2.626
2671.634 2.566 2.436 2.316 2.306 2.416 2.296 2.186 2.236 2.116 2.066
2690.924 2.196 2.326 2.266 2.296 2.446 2.536 2.346 2.276 2.466 2.516
2710.214 2.576 2.786 2.796 2.766 2.876 2.806 2.786 2.846 2.846 3.006
2729.504 3.096 3.086 3.266 3.416 3.636 3.946 4.146 4.596 5.116 5.456
2748.794 5.716 5.886 5.826 5.586 5.096 4.456 4.046 3.806 3.546 3.266
2768.083 3.056 2.886 2.836 2.766 2.886 2.956 2.786 2.726 2.906 3.116
2787.373 3.196 3.316 3.496 3.546 3.466 3.536 3.556 3.706 3.876 3.786
2806.663 3.686 3.866 4.186 4.476 4.786 5.166 5.496 5.636 5.756 6.286
2825.953 6.706 6.946 7.446 7.976 8.316 8.746 9.406 9.796 9.976 10.266
2845.242 10.836 11.506 12.016 12.486 13.116 13.816 14.666 15.596 16.756 18.186
2864.532 19.346 20.376 21.676 22.686 23.306 24.006 24.506 24.506 24.556 24.536
2883.822 24.326 24.476 24.716 24.836 25.166 25.566 25.816 26.206 26.556 26.846
2903.112 27.016 27.096 27.296 27.866 28.826 30.316 32.586 35.496 39.396 43.696
2922.401 48.436 53.756 58.456 62.086 64.106 64.376 62.916 59.946 56.386 52.326
2941.691 48.376 45.236 42.306 39.426 36.686 33.836 31.116 28.426 26.206 24.616
2960.981 23.266 22.526 22.366 22.866 23.506 24.316 25.886 27.766 29.956 32.626
2980.271 35.446 37.906 39.206 39.156 38.026 35.906 32.576 28.976 25.656 22.656
2999.561 20.526 19.376 18.876 18.566 18.426 18.666 19.266 19.676 19.656 19.346
3018.850 18.696 17.646 16.336 15.246 14.446 13.826 13.656 13.646 13.716 14.316
3038.140 15.276 16.436 17.796 19.286 20.556 21.456 22.106 22.096 21.536 20.956
3057.430 20.196 19.446 18.736 17.996 17.496 17.016 16.776 16.916 16.706 16.366
3076.720 16.156 16.096 15.896 15.426 15.586 16.406 16.806 16.896 17.626 18.256
3096.009 18.746 19.516 20.426 21.626 22.746 24.036 25.226 25.286 24.596 23.306
3115.299 20.906 17.796 14.816 12.386 10.206 8.536 7.326 6.246 5.506 4.956
3134.589 4.396 4.066 3.786 3.346 3.136 3.066 2.946 2.736 2.546 2.576
3153.879 2.456 2.176 2.006 2.086 1.856 1.556 1.516 1.496 1.746 1.706
3173.169 1.3422 1.3286 1.2906 1.2076 1.1804 1.2932 1.3935 1.0579 0.9637 0.6929
3192.458 0.6205 0.988 1.0307 0.9898 0.9897 1.096 1.0589 0.878 0.9563 1.1039
3211.748 1.1917 1.0835 1.1539 1.2715 1.1624 0.9011 0.5794 0.6134 0.6864 0.49617
3231.038 0.326 0.5286 0.531 0.47871 0.6657 0.6885 0.7448 0.6129 0.6173 1.0115
3250.328 0.8245 0.6448 0.6938 0.6446 0.557 0.46987 0.6163 0.8033 1.0181 0.8663
3269.617 0.7495 0.7716 0.7405 0.794 0.5982 0.6534 0.9135 0.584 0.50826 0.7118
3288.907 0.7915 0.9985 0.7823 0.7247 0.7856 0.6516 0.7417 0.9204 0.8138 0.7238
3308.197 0.6648 0.46962 0.51505 0.844 0.8562 0.7677 0.8355 0.5586 0.4598 0.5278
3327.487 0.8128 0.8955 0.8161 0.9052 0.825 0.6597 0.6442 0.653 0.5941 0.7919
3346.777 0.9352 0.8435 0.6808 0.7139 0.8264 0.9904 1.1228 1.2133 1.1327 0.9473
3366.066 1.3015 1.536 1.586 1.806 1.826 1.906 2.196 2.466 2.926 3.376
3385.356 3.816 4.476 5.016 5.206 5.076 5.066 4.746 4.166 3.806 3.266
3404.646 2.906 2.506 2.086 1.856 1.616 1.736 1.546 1.226 1.1737 1.2003
3423.936 1.043 0.9126 1.0375 1.0218 0.8894 0.9675 0.9733 0.9705 1.1601 1.0475
3443.225 0.951 0.9494 0.7083 0.675 0.7233 0.5647 0.6172 0.768 0.5735 0.301
3462.515 0.321 0.19 0.5558 0.7582 0.49755 0.6177 0.7359 0.7019 0.6474 0.7086
3481.805 0.8007 0.631 0.256 0.3916 0.5956 0.5402 0.51898 0.49385 0.433406 0.3
3501.095 0.309 0.5409 0.5867 0.46316 0.434354 0.4079 0.44158 0.4855 0.6375 0.6812
3520.385 0.45121 0.51336 0.7888 0.6091 0.32 0.257 0.51594 0.8344 0.6645 0.5412
3539.674 0.5649 0.5788 0.49199 0.5411 0.8234 0.7707 0.7031 0.7492 0.6397 0.598
3558.964 0.6216 0.43699 0.301 0.3934 0.45494 0.4002 0.49222 0.5296 0.5628 0.7313
3578.254 0.5745 0.5541 0.6036 0.3401 0.46173 0.6558 0.7429 0.8714 0.7047 0.6967
3597.544 0.6099 0.4078 0.52152 0.5744 0.688 0.7894 0.6755 0.6354 0.4144 0.227
3616.833 0.189 0.155 0.3333 0.3766 0.3924 0.5393 0.9504 1.0255 0.5897 0.3591
3636.123 0.3491 0.44487 0.6676 0.8677 1.1476 0.8109 0.3377 0.6974 0.8236 0.7604
3655.413 0.9035 0.6947 0.23 0.136 0.281 0.5872 0.3656 0.293 0.47324 0.286
3674.703 0.44292 0.6313 0.7633 0.8402 0.8974 1.116 1.0077 0.6883 0.5927 0.653
3693.993 0.7713 0.7591 0.51346 0.49322 0.45349 0.431157 0.46243 0.286 0.3595 0.5363
3713.282 0.6582 0.7365 0.6719 0.5845 0.6515 0.51671 0.4981 0.6582 0.851 0.8317
3732.572 0.456 0.5602 0.6261 0.44592 0.3827 0.6316 0.6285 0.139 0 0.255
3751.862 0.427107 0.3303 0.5318 0.7534 0.6559 0.426323 0.4145 0.52576 0.5255 0.5487
3771.152 0.6453 0.6981 0.7017 0.7213 0.7099 0.8631 0.8891 0.9126 1.0186 1.0953
3790.441 0.9259 0.7044 0.74 0.7983 0.5728 0.44713 0.7775 0.7426 0.8818 0.9204
3809.731 0.8863 1.2296 1.3978 1.3168 1.2664 1.526 1.836 1.536 1.0169 0.9482
3829.021 0.8122 0.46768 0.44091 1.0157 1.1607 0.909 0.7969 0.6995 1.0181 1.2353
3848.311 0.9395 0.8086 1.0773 1.3167 1.0019 0.6859 0.8429 0.7905 0.6534 0.7055
3867.601 0.9673 1.1215 1.0326 1.1109 1.0663 1.0519 1.0412 0.8769 0.8078 0.7118
3886.890 0.7423 0.6979 0.5751 0.8011 0.9147 0.9581 0.9138 0.7188 0.8137 0.8732
3906.180 1.0592 1.1437 0.9066 0.78 0.8509 0.7818 0.6738 0.6572 0.746 0.8931
3925.470 0.7487 0.7347 0.7821 0.7507 0.6139 0.6165 0.8724 0.7684 0.6612 1.0525
3944.760 1.2007 1.0478 1.034 0.9858 1.0529 1.0087 0.9342 0.8246 0.6472 0.857
3964.049 1.1911 1.3738 1.2296 0.9651 0.9362 0.9497 0.7536 0.7131 0.7814 0.7677
3983.339 0.7926 0.6891 0.6092 0.8427 1.0011 0.9247 0.9434 1.025 0.8828 0.7723
##END=
