##TITLE=Anthraquinone
##JCAMP-DX=4.24
##DATA TYPE=INFRARED SPECTRUM
##ORIGIN=NIST Mass Spectrometry Data Center
##OWNER=NIST Standard Reference Data Program
Collection (C) 2018 copyright by the U.S. Secretary of Commerce
on behalf of the United States of America. All rights reserved.
##CAS REGISTRY NO=84-65-1
##MOLFORM=C 14 H 8 O 2
##$NIST SOURCE=MSDC-IR
##SPECTROMETER/DATA SYSTEM=HP-GC/MS/IRD
##STATE=gas
##XUNITS=1/CM
##YUNITS=ABSORBANCE
##XFACTOR=1.0
##YFACTOR=0.000001500
##DELTAX=4.0
##FIRSTX=550.0
##LASTX=3846.0
##FIRSTY=0.000386
##MAXX=3846
##MINX=550
##MAXY=0.015
##MINY=0
##NPOINTS=825
##XYDATA=(X++(Y..Y))
550.0 257 196 123 61 7 85 134 131 81 38
590.0 88 112 165 210 163 207 284 365 543 709
630.0 736 607 432 239 149 204 252 257 349 417
670.0 432 463 598 876 1595 2537 3853 4871 3854 2570
710.0 1663 878 584 500 460 399 350 298 261 258
750.0 256 235 229 234 235 255 276 270 274 326
790.0 449 674 950 1293 1403 1063 750 523 414 385
830.0 329 288 293 288 262 281 284 277 301 305
870.0 285 283 269 253 273 349 457 586 700 768
910.0 773 812 959 1160 1604 2467 3278 3478 2875 1686
950.0 814 534 454 424 421 413 396 368 315 279
990.0 265 258 264 293 316 302 280 250 217 224
1030.0 218 222 243 244 223 228 248 229 218 212
1070.0 218 242 235 226 237 254 260 252 236 245
1110.0 268 289 305 288 268 280 320 381 425 413
1150.0 435 538 697 829 789 644 499 370 351 387
1190.0 419 483 530 501 443 390 352 366 420 482
1230.0 558 630 670 651 580 580 729 1093 1789 2953
1270.0 4599 6290 7267 7134 6305 5802 6487 8109 9663 10000
1310.0 8896 7385 6280 5555 4592 2990 1484 770 529 426
1350.0 377 339 313 312 322 334 326 307 316 320
1390.0 331 324 305 289 276 275 256 234 234 246
1430.0 263 252 240 230 207 207 193 203 266 306
1470.0 318 322 310 284 252 213 202 211 216 213
1510.0 233 249 228 233 270 319 362 354 320 293
1550.0 289 316 361 472 599 679 760 917 1199 1617
1590.0 2033 2228 2133 1754 1248 878 674 563 504 461
1630.0 444 451 494 550 563 535 522 548 626 850
1670.0 1358 2424 4440 6809 8196 8366 6885 4271 2398 1498
1710.0 1123 959 864 810 757 691 582 463 365 279
1750.0 214 191 185 186 197 199 197 189 170 172
1790.0 173 173 182 182 186 187 169 158 147 137
1830.0 144 148 156 161 163 179 200 212 203 185
1870.0 192 202 198 194 178 160 152 142 130 124
1910.0 119 116 118 117 124 143 155 169 173 177
1950.0 202 220 240 251 240 232 229 236 232 198
1990.0 154 122 107 106 106 108 94 92 98 98
2030.0 96 81 80 84 94 98 87 82 92 95
2070.0 91 98 102 101 97 88 90 98 99 102
2110.0 92 80 78 78 83 81 71 80 91 94
2150.0 97 88 84 79 75 73 66 68 73 80
2190.0 85 92 87 77 71 71 72 71 69 64
2230.0 71 77 81 98 106 106 106 87 82 88
2270.0 83 75 64 66 70 66 63 65 67 68
2310.0 69 68 63 49 46 51 49 50 42 35
2350.0 29 20 18 18 30 44 52 50 44 45
2390.0 46 53 62 60 54 54 57 60 52 42
2430.0 36 46 54 42 38 38 40 56 59 53
2470.0 60 69 70 57 50 44 38 42 43 42
2510.0 43 46 33 16 25 34 30 30 30 30
2550.0 34 26 24 23 24 27 27 29 41 45
2590.0 42 44 42 51 62 51 50 70 82 100
2630.0 105 102 90 66 49 51 55 45 45 56
2670.0 49 50 53 59 73 70 51 48 52 58
2710.0 45 22 38 47 32 22 20 17 27 53
2750.0 49 41 53 77 82 65 62 59 47 47
2790.0 47 26 25 30 32 35 30 25 32 37
2830.0 32 39 32 21 47 51 41 60 75 76
2870.0 79 92 92 78 77 90 98 98 90 76
2910.0 65 63 50 32 20 20 36 47 40 30
2950.0 29 31 30 20 10 11 17 31 30 43
2990.0 46 49 69 88 96 121 147 143 140 137
3030.0 155 201 224 222 193 178 209 260 365 596
3070.0 999 1489 1740 1557 1068 539 244 151 109 92
3110.0 83 76 70 67 75 72 54 49 61 72
3150.0 73 81 106 103 83 81 81 66 61 58
3190.0 36 35 44 47 35 41 55 38 25 16
3230.0 21 50 43 31 34 38 49 48 45 48
3270.0 53 69 64 45 47 47 49 53 53 57
3310.0 59 46 42 46 57 57 63 86 95 135
3350.0 200 236 234 206 161 119 77 40 47 57
3390.0 62 57 44 32 28 22 33 47 54 57
3430.0 47 41 32 30 16 28 47 47 44 42
3470.0 54 44 18 25 43 37 41 55 44 38
3510.0 26 4 22 35 7 12 18 28 36 18
3550.0 40 65 48 32 28 37 46 30 29 32
3590.0 22 23 21 32 18 0 27 59 73 49
3630.0 32 35 46 48 29 30 39 35 41 34
3670.0 16 22 34 49 59 63 64 63 67 62
3710.0 35 41 63 49 46 43 24 29 28 42
3750.0 46 50 62 64 61 61 55 47 54 60
3790.0 79 83 55 39 52 56 33 38 65 70
3830.0 78 72 54 54 65
##END=
