##TITLE=Dihexyl phthalate
##JCAMP-DX=4.24
##DATA TYPE=INFRARED SPECTRUM
##ORIGIN=EPA-IR VAPOR PHASE LIBRARY
##OWNER=SRD/NIST
Collection (C) 2018 copyright by the U.S. Secretary of Commerce
on behalf of the United States of America. All rights reserved.
##CAS REGISTRY NO=84-75-3
##MOLFORM=C 20 H 30 O 4
##$NIST SOURCE=MSDC-IR
##STATE=gas
##XUNITS=1/CM
##YUNITS=ABSORBANCE
##XFACTOR=1.
##YFACTOR=0.001
##DELTAX=1.92898
##FIRSTX=549.8
##LASTX=4000.7
##FIRSTY=0.8199
##MAXX=4000.7
##MINX=549.759
##MAXY=0.194619
##MINY=0
##NPOINTS=1790
##XYDATA=(X++(Y..Y))
549.759 0.8199 0.9669 1.1552 1.309 1.709 2.029 1.839 1.549 1.449 1.289
569.049 1.289 1.1659 0.8693 1.0764 1.379 1.2238 0.9736 0.6063 0.4775 0.5584
588.339 0.29112 0.1679 0.2031 0.242321 0.4955 0.6434 0.6447 0.5509 0.2062 0.11
607.628 0.3839 0.3467 0.342 0.5797 0.58 0.4696 0.488 0.7039 0.7086 0.6221
626.918 0.5048 0.3885 0.5513 0.4668 0.5106 0.8832 1.087 1.309 1.469 1.849
646.208 2.639 3.329 3.819 3.809 3.209 2.689 2.259 1.619 1.519 1.519
665.498 1.409 1.449 1.579 1.799 1.799 1.849 2.269 2.609 3.009 3.469
684.787 3.909 4.699 5.709 6.999 8.079 8.949 9.869 10.379 10.439 10.189
704.077 9.939 9.819 9.409 9.299 9.749 10.119 10.559 11.269 11.999 12.829
723.367 13.819 14.669 15.689 16.909 18.209 19.569 20.899 22.209 23.439 24.279
742.657 24.209 23.489 22.209 20.539 18.799 16.839 14.919 13.669 12.819 11.769
761.947 11.019 10.589 10.229 9.849 9.359 9.019 8.869 8.609 8.289 8.069
781.236 8.159 8.059 7.969 7.809 7.119 6.689 6.289 5.829 5.399 4.899
800.526 4.609 4.539 4.429 4.489 4.259 3.979 4.099 4.169 4.189 4.149
819.816 4.189 3.839 3.829 4.219 3.979 3.809 3.879 3.709 3.639 3.819
839.106 3.749 3.709 3.779 3.719 3.699 3.819 3.869 3.669 3.439 3.539
858.395 3.619 3.529 3.529 3.419 3.479 3.509 3.279 3.319 3.609 3.659
877.685 3.699 3.809 3.789 3.849 3.939 4.219 4.449 4.599 4.849 4.889
896.975 5.219 5.449 5.569 5.949 6.199 6.389 6.559 6.739 6.709 6.499
916.265 6.479 6.629 6.629 6.629 6.469 6.419 6.289 5.809 5.729 5.809
935.555 5.859 5.879 5.839 5.979 6.329 6.739 6.989 7.299 7.639 7.849
954.844 8.249 8.599 8.779 8.699 8.689 8.929 9.239 9.479 9.459 9.469
974.134 9.279 9.139 9.019 8.889 8.859 8.589 8.419 8.499 8.549 8.469
993.424 8.549 8.219 7.919 8.089 7.989 7.549 7.399 7.269 7.179 7.299
1012.714 7.399 7.509 7.589 7.899 8.379 9.219 10.349 11.259 12.599 14.749
1032.003 17.159 20.009 23.289 25.949 26.909 27.109 26.499 25.319 24.729 24.839
1051.293 25.999 27.519 30.479 35.209 40.819 48.189 56.449 65.089 73.209 78.399
1070.583 80.109 77.539 71.129 63.329 54.699 46.389 39.659 34.599 30.959 27.799
1089.873 25.559 24.639 25.079 26.029 27.599 30.509 34.129 39.429 46.119 53.669
1109.163 62.889 73.929 85.849 97.839 108.289 115.189 118.739 118.889 116.169 111.689
1128.452 106.159 100.539 95.339 89.579 82.019 73.489 64.039 54.449 45.779 38.289
1147.742 32.579 27.629 23.519 20.629 18.549 16.779 15.379 14.609 13.949 13.099
1167.032 11.719 10.509 10.009 9.519 9.199 9.079 8.599 8.559 8.839 8.649
1186.322 8.759 9.109 9.469 9.739 10.029 10.549 10.709 10.829 11.479 12.189
1205.611 12.849 13.469 14.139 14.929 15.929 16.759 17.569 19.059 20.819 22.949
1224.901 25.389 28.229 31.279 35.069 40.059 45.649 51.659 58.679 66.639 74.419
1244.191 82.619 91.339 100.179 108.979 117.759 126.899 136.059 145.409 155.559 165.949
1263.481 176.189 185.509 191.679 194.619 194.599 192.429 189.139 185.499 182.049 177.769
1282.771 171.789 163.969 153.969 141.629 127.779 113.439 99.629 87.019 75.909 66.409
1302.060 58.249 51.309 45.579 40.879 36.889 33.459 30.579 28.219 26.169 24.409
1321.350 22.999 21.869 20.759 19.679 18.699 17.669 16.539 15.409 14.449 13.649
1340.640 12.939 12.359 11.839 11.399 11.019 10.719 10.509 10.309 10.119 10.019
1359.930 9.889 9.719 9.639 9.659 9.749 9.899 10.179 10.669 11.399 12.419
1379.219 13.609 14.689 15.609 15.989 15.619 14.689 13.469 12.179 10.849 9.649
1398.509 8.699 7.909 7.299 6.799 6.439 6.229 6.029 5.869 5.859 5.829
1417.799 5.819 5.919 6.069 6.229 6.489 6.889 7.349 7.939 8.679 9.419
1437.089 10.289 11.279 12.289 13.379 14.459 15.359 16.019 16.439 16.779 17.219
1456.378 17.799 18.569 19.289 19.819 20.099 20.169 19.949 19.309 18.299 17.029
1475.668 15.639 14.349 13.209 12.179 11.369 10.699 10.039 9.239 8.359 7.579
1494.958 6.879 6.229 5.789 5.479 5.179 4.929 4.639 4.399 4.329 4.209
1514.248 3.989 3.849 3.759 3.639 3.579 3.509 3.389 3.329 3.299 3.189
1533.538 3.129 3.079 3.019 2.969 2.909 2.849 2.899 3.009 2.929 2.939
1552.827 3.109 3.139 3.159 3.279 3.459 3.679 4.029 4.369 4.699 5.249
1572.117 6.039 6.909 7.599 7.939 7.799 7.389 6.799 6.049 5.469 5.289
1591.407 5.309 5.519 5.859 6.229 6.639 6.709 6.439 5.889 5.219 4.639
1610.697 4.139 3.799 3.659 3.589 3.459 3.389 3.419 3.379 3.359 3.279
1629.986 3.119 3.039 2.999 3.029 3.119 3.139 3.109 3.139 3.159 3.179
1649.276 3.269 3.379 3.389 3.379 3.479 3.599 3.669 3.779 3.919 3.999
1668.566 4.139 4.309 4.459 4.639 4.809 5.029 5.249 5.519 5.889 6.249
1687.856 6.609 7.039 7.549 8.169 8.959 9.809 10.609 11.499 12.369 13.359
1707.146 14.509 15.749 17.199 19.049 21.449 24.299 27.629 31.519 36.289 42.039
1726.435 48.959 57.339 67.779 80.549 97.449 117.389 138.449 160.599 178.909 190.489
1745.725 192.539 184.399 167.849 145.989 123.129 102.129 83.399 68.589 56.869 47.639
1765.015 40.319 34.399 29.559 25.769 22.389 19.609 17.369 15.419 13.849 12.529
1784.305 11.309 10.289 9.429 8.629 8.029 7.399 6.789 6.419 6.139 5.769
1803.594 5.449 5.189 4.899 4.709 4.549 4.449 4.399 4.249 4.099 3.999
1822.884 3.899 3.899 3.919 3.839 3.749 3.639 3.509 3.359 3.179 2.989
1842.174 2.789 2.639 2.579 2.479 2.459 2.479 2.419 2.439 2.469 2.399
1861.464 2.299 2.219 2.149 2.129 2.019 1.859 1.799 1.799 1.759 1.659
1880.754 1.569 1.629 1.669 1.629 1.579 1.579 1.549 1.499 1.499 1.559
1900.043 1.599 1.589 1.689 1.769 1.719 1.719 1.689 1.599 1.629 1.679
1919.333 1.659 1.659 1.749 1.929 2.099 2.289 2.419 2.499 2.539 2.489
1938.623 2.329 2.109 1.949 1.879 1.809 1.679 1.639 1.659 1.759 1.829
1957.913 1.869 2.039 2.169 2.109 2.089 1.939 1.749 1.609 1.409 1.289
1977.202 1.2171 1.139 1.0792 1.1148 1.0851 1.0705 1.0776 1.0719 1.0402 0.9912
1996.492 0.9959 1.0329 1.0937 1.0493 0.9899 0.9582 0.9739 0.9942 0.9344 1.0186
2015.782 1.0957 1.0391 0.9879 1.0219 1.1007 1.0825 1.0652 1.1175 1.0689 1.0492
2035.072 1.1568 1.1576 1.0852 1.0582 1.0723 1.1004 1.1606 1.231 1.167 1.108
2054.362 1.1646 1.1892 1.1451 1.161 1.1883 1.1621 1.2101 1.259 1.309 1.349
2073.651 1.309 1.2248 1.1902 1.2154 1.269 1.329 1.279 1.309 1.419 1.409
2092.941 1.339 1.329 1.399 1.379 1.319 1.269 1.269 1.299 1.299 1.249
2112.231 1.1969 1.2059 1.2093 1.2108 1.239 1.1803 1.1433 1.1525 1.0723 1.0124
2131.521 1.0099 1.0109 0.9747 0.9481 0.9222 0.9913 0.97 0.8863 0.8587 0.8494
2150.810 0.9027 0.935 0.8867 0.8302 0.8956 0.883 0.8684 0.9624 0.9783 0.8863
2170.100 0.8107 0.8098 0.8624 0.871 0.8232 0.7982 0.8854 0.9815 0.948 0.8906
2189.390 0.8936 0.9495 0.9302 0.851 0.8165 0.8259 0.8435 0.8757 0.9023 0.9017
2208.680 0.8967 0.8603 0.7989 0.7778 0.8388 0.885 0.8788 0.8471 0.8026 0.8636
2227.970 0.9106 0.8743 0.8092 0.8014 0.8531 0.9117 0.8767 0.8236 0.8759 0.8541
2247.259 0.7759 0.7943 0.8239 0.8729 0.9113 0.9101 0.8927 0.8285 0.7962 0.7351
2266.549 0.7926 0.8441 0.7626 0.6907 0.7215 0.7628 0.7007 0.6767 0.7821 0.8308
2285.839 0.7953 0.7532 0.7428 0.7939 0.7858 0.7761 0.8031 0.8147 0.8659 0.9173
2305.129 0.8193 0.8203 0.866 0.8062 0.7864 0.8251 0.8519 0.8422 0.9034 1.0211
2324.418 1.0993 1.1894 1.1989 1.0817 1.0543 1.0714 1.0344 1 1.0447 1.0238
2343.708 0.9805 1.0466 1.0419 0.9886 1.0191 1.0536 1.0041 0.9639 0.988 1.0032
2362.998 1.0161 1.0574 1.0198 0.9669 0.9454 0.9828 0.9981 0.9739 0.9605 0.9556
2382.288 0.945 0.9552 1.0068 1.0198 1.0164 0.9733 0.9124 0.9056 0.9453 0.9125
2401.578 0.8899 0.9662 0.9444 0.901 0.9483 0.8389 0.7969 0.8929 0.867 0.7921
2420.867 0.7889 0.7462 0.6965 0.7728 0.7377 0.6192 0.6528 0.69 0.6334 0.6172
2440.157 0.6586 0.6816 0.6666 0.6298 0.6441 0.6879 0.6359 0.5784 0.5145 0.4347
2459.447 0.4704 0.5397 0.6082 0.6386 0.549 0.5375 0.602 0.586 0.5391 0.4986
2478.737 0.5352 0.5161 0.5695 0.608 0.6471 0.7149 0.7278 0.7743 0.6457 0.5593
2498.026 0.5997 0.7084 0.7546 0.6594 0.6218 0.6611 0.7153 0.7843 0.7234 0.6614
2517.316 0.6571 0.6765 0.7516 0.7157 0.625 0.6636 0.8072 0.8477 0.763 0.7201
2536.606 0.7763 0.8416 0.8432 0.805 0.7912 0.7746 0.7857 0.8358 0.9016 0.8582
2555.896 0.8981 1.02 0.9973 0.9796 0.961 0.9459 0.9245 0.95 0.9594 0.8977
2575.186 0.899 0.9174 0.9272 0.921 0.9313 0.961 1.0189 1.0039 0.98 1.0305
2594.475 0.9507 0.8573 0.8655 0.9135 0.9822 1.0683 1.0615 1.0266 0.9685 0.903
2613.765 0.9453 0.9744 0.965 0.9218 0.9759 0.9647 0.9046 0.961 1.0404 1.111
2633.055 1.0605 0.9196 0.9685 1.1305 1.0735 1.0968 1.0871 1.0714 1.1593 1.1971
2652.345 1.279 1.309 1.339 1.319 1.289 1.319 1.399 1.409 1.289 1.269
2671.634 1.339 1.379 1.469 1.569 1.599 1.589 1.569 1.509 1.439 1.509
2690.924 1.649 1.529 1.389 1.479 1.489 1.469 1.529 1.489 1.499 1.579
2710.214 1.579 1.569 1.509 1.549 1.679 1.749 1.679 1.659 1.739 1.679
2729.504 1.639 1.809 2.019 1.999 1.989 2.189 2.189 2.099 2.209 2.319
2748.794 2.379 2.459 2.369 2.269 2.349 2.379 2.409 2.429 2.389 2.369
2768.083 2.419 2.499 2.509 2.539 2.579 2.559 2.529 2.529 2.639 2.799
2787.373 2.869 2.889 3.019 3.089 3.069 3.179 3.349 3.499 3.699 3.899
2806.663 4.089 4.309 4.499 4.669 4.829 5.059 5.359 5.679 5.999 6.319
2825.953 6.709 7.119 7.499 7.989 8.599 9.239 9.979 10.689 11.589 12.739
2845.242 14.009 15.729 17.829 20.009 22.599 25.579 28.639 31.679 34.399 36.799
2864.532 38.889 40.389 41.169 41.429 41.199 40.749 40.379 40.049 39.799 39.639
2883.822 39.269 38.409 37.319 36.299 35.579 35.329 35.589 36.319 37.519 39.089
2903.112 40.779 42.659 44.869 47.359 50.099 53.019 56.119 59.539 63.479 67.729
2922.401 72.309 77.349 82.709 87.879 92.689 96.769 99.589 101.309 101.709 100.939
2941.691 99.269 96.599 93.039 89.249 86.019 83.579 82.519 82.999 84.529 86.829
2960.981 89.419 91.599 92.849 92.539 90.109 85.329 78.199 69.659 60.899 52.929
2980.271 46.279 40.889 36.329 32.409 29.119 26.379 23.899 21.349 19.129 17.279
2999.561 15.629 14.229 13.029 12.079 11.079 10.159 9.499 8.909 8.209 7.639
3018.850 7.259 6.919 6.759 6.609 6.539 6.439 6.349 6.429 6.369 6.159
3038.140 5.919 5.679 5.509 5.359 5.229 5.179 5.129 4.989 5.009 5.229
3057.430 5.599 5.869 6.099 6.649 7.479 8.359 9.349 10.589 11.869 12.949
3076.720 13.359 13.049 12.059 10.609 8.789 7.049 5.799 4.859 4.189 3.819
3096.009 3.589 3.409 3.329 3.149 3.119 3.079 2.749 2.629 2.609 2.329
3115.299 2.049 1.899 1.939 1.899 1.689 1.539 1.479 1.599 1.669 1.729
3134.589 1.729 1.629 1.489 1.449 1.529 1.539 1.549 1.659 1.709 1.759
3153.879 1.639 1.549 1.469 1.409 1.359 1.239 1.349 1.249 1.0741 1.1208
3173.169 1.239 1.1638 1.0425 1.0444 0.9717 0.9531 0.99 0.9047 1.0724 1.1623
3192.458 1.0087 0.9696 0.8213 0.7246 0.7952 0.7285 0.7934 0.7241 0.5631 0.6923
3211.748 0.6869 0.6459 0.6504 0.6294 0.6453 0.7263 0.6438 0.5058 0.5737 0.4836
3231.038 0.4437 0.4388 0.3772 0.5598 0.5971 0.4512 0.5417 0.5857 0.5029 0.5407
3250.328 0.4668 0.4309 0.4847 0.4977 0.31576 0.097 0.239848 0.3985 0.33207 0.32521
3269.617 0.4822 0.6591 0.5536 0.29794 0.3522 0.4779 0.4083 0.32365 0.2781 0.3835
3288.907 0.4442 0.354 0.3911 0.3837 0.4075 0.5357 0.5301 0.5647 0.6131 0.4674
3308.197 0.4579 0.5497 0.5391 0.5419 0.4662 0.31029 0.25469 0.3693 0.5374 0.5598
3327.487 0.5156 0.3714 0.3926 0.6834 0.6775 0.4409 0.3264 0.3893 0.4834 0.4956
3346.777 0.4862 0.4241 0.505 0.4919 0.3927 0.4053 0.4175 0.32641 0.3747 0.5239
3366.066 0.5332 0.6694 0.5573 0.3851 0.3638 0.4331 0.5211 0.4148 0.3903 0.4138
3385.356 0.240016 0.1605 0.27704 0.33435 0.5308 0.566 0.4863 0.5004 0.4341 0.4417
3404.646 0.3491 0.2223 0.3841 0.5848 0.5779 0.4569 0.4622 0.4813 0.3598 0.4892
3423.936 0.4941 0.4742 0.6423 0.5064 0.5428 0.9018 0.8366 0.6752 0.6807 0.7357
3443.225 0.7889 0.7368 0.7361 0.766 0.8952 1.0286 1.1061 1.259 1.409 1.439
3462.515 1.369 1.499 1.769 1.829 1.689 1.559 1.549 1.459 1.419 1.539
3481.805 1.529 1.439 1.459 1.429 1.2046 1.0405 0.9562 0.879 0.9074 0.7682
3501.095 0.6828 0.7581 0.7078 0.7908 0.7442 0.6177 0.6132 0.4966 0.5178 0.5219
3520.385 0.33102 0.3499 0.31007 0.23681 0.4343 0.4151 0.29205 0.3528 0.5125 0.4234
3539.674 0.2234 0.239361 0.336 0.28893 0.30631 0.3739 0.28979 0.2316 0.31816 0.25996
3558.964 0.26442 0.3497 0.23197 0.247776 0.1662 0.026 0.086 0.14 0.131 0.248907
3578.254 0.28307 0.2032 0.2092 0.1751 0.054 0 0.122 0.203 0.2524 0.1721
3597.544 0.134 0.22975 0.3522 0.5311 0.25759 0.1934 0.4477 0.4252 0.3925 0.26469
3616.833 0.1931 0.3702 0.4066 0.4042 0.4383 0.3514 0.3679 0.2846 0.1748 0.3412
3636.123 0.4285 0.3551 0.3508 0.3651 0.4701 0.4371 0.25106 0.244493 0.32626 0.32035
3655.413 0.27711 0.29363 0.4634 0.4863 0.3646 0.4752 0.5368 0.4127 0.4905 0.4883
3674.703 0.4765 0.6216 0.5879 0.4261 0.3679 0.3492 0.30344 0.5237 0.5325 0.3818
3693.993 0.4557 0.3898 0.1937 0.26849 0.30225 0.28867 0.4561 0.3739 0.27607 0.3609
3713.282 0.24291 0.3709 0.6511 0.6209 0.5138 0.4386 0.392 0.3842 0.4283 0.4233
3732.572 0.30638 0.4216 0.6244 0.5664 0.5356 0.4752 0.25478 0.27255 0.4302 0.363
3751.862 0.32346 0.3901 0.4105 0.512 0.5455 0.4396 0.4006 0.5362 0.6843 0.5376
3771.152 0.32525 0.26655 0.248207 0.3846 0.4657 0.32006 0.33517 0.4619 0.4587 0.2094
3790.441 0.31185 0.4694 0.46 0.4964 0.4924 0.5267 0.436 0.4866 0.25643 0.1945
3809.731 0.3737 0.4474 0.565 0.4365 0.4618 0.6096 0.5383 0.4851 0.3716 0.1758
3829.021 0.4035 0.4684 0.32103 0.407 0.4396 0.468 0.5024 0.4178 0.382 0.3914
3848.311 0.3798 0.3907 0.3738 0.4702 0.5144 0.3727 0.4477 0.5252 0.3713 0.3475
3867.601 0.4071 0.5502 0.4844 0.33183 0.5174 0.5703 0.29768 0.3404 0.495 0.4211
3886.890 0.4854 0.4181 0.4646 0.6784 0.6905 0.6016 0.406 0.5216 0.4987 0.4382
3906.180 0.6447 0.7009 0.5766 0.4569 0.6335 0.5639 0.5425 0.5008 0.4546 0.5793
3925.470 0.5275 0.6084 0.5932 0.4333 0.32591 0.4381 0.6237 0.5254 0.5129 0.5537
3944.760 0.4052 0.4032 0.416 0.3945 0.5109 0.5909 0.4206 0.27416 0.2121 0.4249
3964.049 0.618 0.5884 0.4919 0.32723 0.32039 0.6309 0.8023 0.6398 0.6631 0.8193
3983.339 0.7854 0.8002 0.9506 0.7964 0.7665 0.8968 0.7065 0.4237 0.354 0.2277
##END=
