##TITLE=Phthalic acid didecyl ester
##JCAMP-DX=4.24
##DATA TYPE=INFRARED SPECTRUM
##ORIGIN=EPA-IR VAPOR PHASE LIBRARY
##OWNER=SRD/NIST
Collection (C) 2018 copyright by the U.S. Secretary of Commerce
on behalf of the United States of America. All rights reserved.
##CAS REGISTRY NO=84-77-5
##MOLFORM=C 28 H 46 O 4
##$NIST SOURCE=MSDC-IR
##STATE=gas
##XUNITS=1/CM
##YUNITS=ABSORBANCE
##XFACTOR=1.
##YFACTOR=0.001
##DELTAX=1.92898
##FIRSTX=549.8
##LASTX=4000.7
##FIRSTY=0.8225
##MAXX=4000.7
##MINX=549.759
##MAXY=0.055686
##MINY=0
##NPOINTS=1790
##XYDATA=(X++(Y..Y))
549.759 0.8225 0.9288 0.9633 0.9372 0.7406 0.9353 1.1647 1.1579 1.1415 1.1587
569.049 0.9166 0.753 0.9288 0.7602 0.7309 0.8663 0.7525 0.6938 0.7092 0.7087
588.339 0.6888 0.55789 0.4437 0.4205 0.4428 0.57876 0.55171 0.521127 0.59864 0.58911
607.628 0.523958 0.56129 0.57742 0.4528 0.4764 0.6507 0.4992 0.395 0.53686 0.52633
626.918 0.54715 0.59378 0.60154 0.58344 0.56134 0.60693 0.6364 0.6964 0.7542 0.8768
646.208 1.1775 1.3788 1.3716 1.3803 1.2857 1.0698 0.8967 0.8212 0.7576 0.6796
665.498 0.69 0.729 0.7209 0.7807 0.8618 0.8137 0.8742 1.0118 1.1366 1.2899
684.787 1.3971 1.586 1.876 2.136 2.446 2.706 2.966 3.246 3.366 3.336
704.077 3.216 3.046 2.956 2.976 3.006 3.086 3.186 3.286 3.436 3.656
723.367 3.866 4.136 4.646 5.116 5.446 5.936 6.516 6.956 7.306 7.526
742.657 7.506 7.256 6.916 6.376 5.816 5.316 4.856 4.456 4.046 3.776
761.947 3.616 3.436 3.356 3.326 3.176 3.106 3.116 3.066 3.026 2.996
781.236 2.976 2.946 2.866 2.686 2.536 2.446 2.296 2.196 2.066 1.926
800.526 1.836 1.806 1.826 1.826 1.786 1.676 1.636 1.646 1.606 1.586
819.816 1.536 1.5025 1.526 1.556 1.606 1.626 1.666 1.826 1.786 1.706
839.106 1.726 1.636 1.636 1.646 1.566 1.626 1.606 1.566 1.596 1.586
858.395 1.576 1.546 1.536 1.516 1.566 1.556 1.51 1.616 1.656 1.626
877.685 1.586 1.596 1.656 1.646 1.566 1.556 1.596 1.596 1.626 1.616
896.975 1.556 1.586 1.606 1.606 1.626 1.576 1.4718 1.566 1.666 1.626
916.265 1.726 1.846 1.866 1.866 1.926 1.996 2.066 2.106 2.186 2.326
935.555 2.376 2.486 2.616 2.786 3.026 3.176 3.286 3.526 3.776 3.896
954.844 4.036 4.146 4.216 4.286 4.306 4.226 4.076 3.956 3.946 3.966
974.134 3.896 3.786 3.656 3.536 3.416 3.346 3.246 3.186 3.066 2.866
993.424 2.856 2.836 2.816 2.806 2.696 2.656 2.746 2.836 2.836 2.866
1012.714 2.936 2.896 2.846 3.036 3.216 3.286 3.526 3.846 4.246 4.836
1032.003 5.506 6.366 7.416 8.376 8.966 8.896 8.386 7.906 7.786 8.056
1051.293 8.496 9.206 10.166 11.416 13.056 14.996 17.346 19.746 21.626 22.896
1070.583 23.226 22.296 20.356 18.006 15.526 13.106 11.246 9.876 8.836 8.166
1089.873 7.776 7.706 7.936 8.266 8.846 9.466 10.416 11.916 13.706 15.936
1109.163 18.856 22.206 25.616 29.386 32.706 34.976 36.086 35.936 35.066 33.646
1128.452 31.766 29.916 28.206 26.256 23.796 20.976 18.156 15.446 13.076 11.206
1147.742 9.596 8.356 7.586 6.976 6.326 5.886 5.586 5.286 5.056 4.706
1167.032 4.256 3.856 3.686 3.576 3.456 3.336 3.226 3.166 3.106 3.106
1186.322 2.976 2.986 3.126 3.276 3.436 3.496 3.556 3.706 3.956 4.196
1205.611 4.526 4.556 4.626 4.966 5.216 5.566 5.916 6.316 6.766 7.226
1224.901 7.836 8.646 9.726 10.936 12.326 14.096 16.046 18.036 20.126 22.346
1244.191 24.646 26.966 29.296 31.766 34.276 36.786 39.286 41.806 44.486 47.396
1263.481 50.476 53.066 54.756 55.616 55.686 55.146 54.356 53.506 52.566 51.446
1282.771 49.856 47.586 44.576 40.816 36.626 32.536 28.666 25.096 22.086 19.496
1302.060 17.246 15.366 13.806 12.496 11.376 10.356 9.506 8.826 8.196 7.696
1321.350 7.276 6.866 6.536 6.226 5.906 5.626 5.406 5.176 4.886 4.646
1340.640 4.606 4.666 4.636 4.586 4.566 4.566 4.556 4.546 4.596 4.646
1359.930 4.616 4.596 4.836 5.196 5.446 5.706 6.016 6.376 6.966 7.626
1379.219 8.296 8.886 9.156 9.016 8.386 7.686 6.946 6.016 5.106 4.436
1398.509 3.896 3.546 3.286 2.966 2.806 2.716 2.586 2.506 2.486 2.386
1417.799 2.176 2.196 2.486 2.536 2.636 2.816 2.946 3.136 3.416 3.506
1437.089 3.736 4.366 4.846 5.296 5.816 6.236 6.686 7.076 7.396 7.716
1456.378 7.916 8.546 9.256 9.606 9.716 9.726 9.596 9.136 8.346 7.576
1475.668 6.896 6.256 5.696 5.146 4.736 4.376 3.966 3.486 3.186 3.046
1494.958 2.716 2.406 2.276 2.146 2.056 1.836 1.4195 1.3431 1.4608 1.4976
1514.248 1.4936 1.3789 1.3981 1.2472 1.2069 1.3655 1.2784 1.3028 1.4023 1.3003
1533.538 1.2231 1.3212 1.2903 1.1281 1.0978 1.0599 1.0269 1.2061 1.1877 1.2029
1552.827 1.2265 1.1756 1.2347 1.053 1.1998 1.536 1.646 1.746 1.856 2.006
1572.117 2.256 2.466 2.586 2.756 2.776 2.616 2.406 2.236 2.106 1.986
1591.407 1.966 2.046 2.196 2.316 2.366 2.416 2.306 2.116 1.936 1.796
1610.697 1.686 1.606 1.4777 1.3202 1.3705 1.4634 1.4114 1.3726 1.3779 1.3759
1629.986 1.3884 1.3508 1.2653 1.2137 1.3195 1.3526 1.3569 1.3515 1.2083 1.17
1649.276 1.3159 1.2252 1.0008 1.2225 1.4545 1.5073 1.5015 1.4865 1.566 1.606
1668.566 1.596 1.616 1.726 1.696 1.746 1.846 1.836 1.876 1.896 2.116
1687.856 2.296 2.476 2.746 2.826 2.856 3.136 3.346 3.626 4.046 4.356
1707.146 4.756 5.156 5.626 6.136 6.716 7.456 8.556 9.916 11.396 13.196
1726.435 15.406 17.996 21.226 25.126 30.066 36.206 42.426 48.316 52.806 54.876
1745.725 54.146 50.736 45.306 38.906 32.716 26.996 22.056 18.336 15.266 12.906
1765.015 11.126 9.486 8.216 7.286 6.426 5.796 5.216 4.676 4.216 3.876
1784.305 3.476 3.236 3.056 2.736 2.486 2.406 2.296 2.156 1.976 1.796
1803.594 1.846 1.856 1.756 1.706 1.636 1.626 1.586 1.4543 1.453 1.4974
1822.884 1.4502 1.3539 1.3806 1.3901 1.3295 1.3435 1.319 1.2866 1.269 1.22
1842.174 1.0945 1.0142 1.0479 1.0166 1.0402 1.0739 1.0787 1.0726 1.0453 1.0411
1861.464 1.0093 0.9989 0.9749 0.8938 0.8447 0.8984 0.9255 0.8958 0.8812 0.8839
1880.754 0.8959 0.8887 0.8472 0.8476 0.8461 0.8744 0.8807 0.8341 0.8408 0.8611
1900.043 0.8588 0.8491 0.8682 0.9059 0.9213 0.9262 0.9146 0.8598 0.8251 0.7867
1919.333 0.8316 0.8812 0.8988 0.9906 1.0414 1.0537 1.0804 1.1016 1.1339 1.115
1938.623 1.0696 1.009 0.9194 0.9201 0.9127 0.8913 0.8818 0.8804 0.8672 0.8846
1957.913 0.9426 0.9691 1.0031 1.044 1.008 0.917 0.8698 0.8456 0.8387 0.8066
1977.202 0.7804 0.7837 0.7808 0.7383 0.7109 0.7018 0.6875 0.672 0.6697 0.7128
1996.492 0.7198 0.6926 0.6896 0.6851 0.6955 0.7203 0.6984 0.6886 0.6775 0.6812
2015.782 0.691 0.6931 0.7108 0.7083 0.7156 0.713 0.6933 0.6873 0.686 0.6877
2035.072 0.6899 0.7273 0.738 0.6865 0.6853 0.715 0.71 0.7121 0.7346 0.7424
2054.362 0.7423 0.775 0.8093 0.7992 0.7567 0.7448 0.7591 0.7673 0.8133 0.8115
2073.651 0.7736 0.7665 0.7975 0.8204 0.8263 0.8277 0.8189 0.8365 0.8447 0.8318
2092.941 0.8123 0.8016 0.8077 0.7838 0.7945 0.8361 0.7972 0.7856 0.7897 0.7951
2112.231 0.84 0.8347 0.83 0.8324 0.7978 0.7735 0.7524 0.7513 0.7437 0.7638
2131.521 0.7789 0.7524 0.731 0.7043 0.6721 0.6528 0.6899 0.7079 0.6924 0.6839
2150.810 0.6904 0.6897 0.6933 0.7037 0.6917 0.6744 0.6421 0.6489 0.6641 0.6352
2170.100 0.6389 0.6836 0.6878 0.678 0.6821 0.6985 0.7017 0.6733 0.6687 0.6498
2189.390 0.6599 0.6767 0.6818 0.6993 0.6895 0.6911 0.7276 0.7525 0.7134 0.6637
2208.680 0.6569 0.6514 0.6432 0.6452 0.6864 0.7217 0.7207 0.6963 0.682 0.6966
2227.970 0.6733 0.6632 0.6776 0.7144 0.7437 0.6966 0.6593 0.6717 0.7006 0.7291
2247.259 0.7049 0.6948 0.7067 0.6875 0.6633 0.656 0.6877 0.6849 0.6648 0.6841
2266.549 0.7104 0.6946 0.6721 0.6996 0.7011 0.6848 0.7012 0.7368 0.7315 0.705
2285.839 0.687 0.691 0.7013 0.6969 0.7038 0.7094 0.7145 0.7101 0.7146 0.7146
2305.129 0.6898 0.6708 0.6868 0.695 0.6783 0.671 0.7149 0.7298 0.7097 0.7472
2324.418 0.7714 0.7557 0.7585 0.7559 0.7133 0.6796 0.6999 0.6862 0.6489 0.6596
2343.708 0.6283 0.59501 0.57211 0.54724 0.57767 0.6336 0.6268 0.6343 0.6465 0.6234
2362.998 0.6178 0.59673 0.622 0.6477 0.6358 0.6437 0.702 0.7663 0.7728 0.7752
2382.288 0.7937 0.8054 0.781 0.7743 0.7751 0.7279 0.7407 0.7695 0.7705 0.7771
2401.578 0.8088 0.7807 0.7564 0.7596 0.7729 0.7839 0.7592 0.776 0.7413 0.6983
2420.867 0.7048 0.7274 0.7028 0.7123 0.6751 0.6322 0.6474 0.6355 0.6686 0.7083
2440.157 0.7001 0.663 0.6382 0.61122 0.6228 0.6348 0.6454 0.6177 0.58912 0.61416
2459.447 0.6399 0.6585 0.6239 0.636 0.6776 0.6458 0.6528 0.692 0.6699 0.6305
2478.737 0.6462 0.7024 0.6928 0.6571 0.6337 0.6671 0.6937 0.7037 0.75 0.7364
2498.026 0.6976 0.6858 0.6873 0.6761 0.6858 0.6952 0.6835 0.7041 0.7325 0.7633
2517.316 0.7905 0.7839 0.7459 0.7325 0.7528 0.7879 0.7967 0.7271 0.7353 0.8186
2536.606 0.8262 0.7876 0.7636 0.7569 0.7892 0.808 0.7648 0.7934 0.8348 0.8239
2555.896 0.8335 0.8161 0.8158 0.8427 0.8621 0.8834 0.9097 0.9065 0.8899 0.8816
2575.186 0.8509 0.8644 0.9461 0.9497 0.9259 0.9454 0.9635 0.987 0.9814 0.9774
2594.475 0.9732 0.9627 0.9632 0.9636 0.9444 0.9558 0.9842 0.9491 0.9487 0.9513
2613.765 0.9306 0.9618 0.9661 0.951 0.9211 0.927 0.9238 0.9053 0.9339 0.9787
2633.055 0.9761 0.934 0.9661 0.9938 0.9737 0.9446 0.9555 1.0098 0.9867 0.9246
2652.345 0.9072 0.9263 0.9688 1.0036 0.9993 0.9951 1.037 1.0512 1.0427 1.0237
2671.634 1.024 1.0517 1.0434 1.0011 0.9825 1.006 1.0436 1.0747 1.0652 1.0337
2690.924 1.0165 1.0154 1.0672 1.0877 1.0781 1.0774 1.1049 1.1556 1.1304 1.1171
2710.214 1.1482 1.1974 1.2205 1.263 1.2924 1.315 1.3396 1.3332 1.3404 1.3594
2729.504 1.3927 1.4051 1.4426 1.4908 1.5152 1.546 1.526 1.4816 1.4798 1.4432
2748.794 1.4272 1.4254 1.4538 1.4564 1.4279 1.4014 1.3602 1.4148 1.4539 1.4403
2768.083 1.4643 1.4643 1.4732 1.526 1.586 1.586 1.576 1.606 1.626 1.626
2787.373 1.606 1.626 1.706 1.776 1.776 1.826 1.926 1.986 2.046 2.086
2806.663 2.136 2.256 2.366 2.406 2.466 2.546 2.616 2.746 2.906 3.086
2825.953 3.216 3.316 3.476 3.666 3.886 4.166 4.516 4.836 5.286 5.866
2845.242 6.366 6.926 7.686 8.546 9.456 10.406 11.316 12.206 13.056 13.896
2864.532 14.606 15.286 16.146 17.086 17.936 18.856 19.846 20.706 21.316 21.606
2883.822 21.546 21.146 20.516 19.916 19.366 18.976 18.896 19.166 19.676 20.346
2903.112 21.176 22.226 23.416 24.736 25.956 27.146 28.436 29.646 30.756 31.686
2922.401 32.636 33.546 34.396 35.236 35.966 36.516 36.816 36.836 36.576 36.046
2941.691 35.226 34.296 33.346 32.636 32.546 33.186 34.636 36.916 40.016 43.546
2960.981 46.996 49.856 51.496 51.506 49.696 46.276 41.836 36.686 31.536 26.956
2980.271 23.116 19.946 17.236 15.076 13.236 11.636 10.246 9.076 8.096 7.276
2999.561 6.606 6.016 5.506 5.016 4.546 4.236 3.976 3.726 3.556 3.356
3018.850 3.146 3.026 2.996 2.916 2.796 2.746 2.726 2.676 2.636 2.616
3038.140 2.656 2.566 2.446 2.366 2.286 2.326 2.296 2.316 2.396 2.386
3057.430 2.366 2.416 2.546 2.716 2.896 3.126 3.366 3.676 4.086 4.386
3076.720 4.626 4.686 4.396 3.906 3.336 2.806 2.416 2.166 1.996 1.866
3096.009 1.716 1.646 1.676 1.716 1.736 1.626 1.5102 1.4532 1.4576 1.4329
3115.299 1.3498 1.2908 1.2708 1.2595 1.2344 1.2012 1.1861 1.1629 1.1402 1.1771
3134.589 1.1658 1.1439 1.1981 1.2614 1.2311 1.1944 1.2055 1.2314 1.3075 1.3262
3153.879 1.1981 1.1684 1.168 1.1366 1.2233 1.2077 1.1523 1.0978 1.03 1.0351
3173.169 1.1035 1.1662 1.1683 1.1416 1.1024 1.0148 0.9478 0.9728 0.9865 0.93
3192.458 0.9385 0.9628 0.9588 0.9908 0.9825 0.8988 0.8808 0.8458 0.7714 0.7816
3211.748 0.8103 0.7561 0.7453 0.7518 0.6798 0.6607 0.6597 0.6589 0.6803 0.7031
3231.038 0.7111 0.7697 0.723 0.6851 0.7771 0.7476 0.6917 0.6722 0.6909 0.6905
3250.328 0.6274 0.5845 0.6306 0.6661 0.57648 0.56201 0.58294 0.58764 0.62 0.60651
3269.617 0.58716 0.6792 0.758 0.6567 0.58855 0.57927 0.6299 0.6472 0.6299 0.6575
3288.907 0.6946 0.6596 0.4415 0.4262 0.57876 0.57604 0.59849 0.58086 0.4943 0.56345
3308.197 0.59114 0.5377 0.4942 0.55755 0.57315 0.60167 0.6687 0.56505 0.4717 0.5038
3327.487 0.59589 0.55655 0.515647 0.52858 0.519546 0.53324 0.523157 0.4582 0.4757 0.53808
3346.777 0.57279 0.55295 0.5006 0.4627 0.4985 0.5454 0.4766 0.4802 0.4821 0.433
3366.066 0.4639 0.53249 0.55825 0.60584 0.6635 0.6186 0.4946 0.522428 0.55128 0.53104
3385.356 0.53239 0.522634 0.57337 0.56615 0.52896 0.476 0.4496 0.4458 0.4559 0.4364
3404.646 0.407 0.4504 0.468 0.4826 0.4181 0.4551 0.547 0.5762 0.57629 0.4862
3423.936 0.4615 0.4461 0.4884 0.60385 0.6685 0.6394 0.4667 0.406 0.5724 0.60371
3443.225 0.55097 0.50838 0.4788 0.54869 0.6623 0.6591 0.6482 0.7481 0.7691 0.7996
3462.515 0.8182 0.828 0.9703 0.9773 0.8035 0.7991 0.806 0.7525 0.727 0.6684
3481.805 0.7559 0.8401 0.7087 0.6273 0.6196 0.5907 0.58473 0.53227 0.58777 0.6804
3501.095 0.624 0.57123 0.53801 0.50856 0.478 0.4 0.374 0.4256 0.445 0.403
3520.385 0.4253 0.395 0.266 0.286 0.386 0.391 0.4251 0.4198 0.375 0.4215
3539.674 0.414 0.4281 0.387 0.243 0.279 0.4217 0.4404 0.439 0.4709 0.4381
3558.964 0.367 0.367 0.4498 0.317 0.03 0.07 0.315 0.374 0.373 0.307
3578.254 0.294 0.395 0.4437 0.4392 0.269 0.079 0.169 0.314 0.275 0.269
3597.544 0.334 0.415 0.394 0.317 0.291 0.209 0.226 0.302 0.212 0.178
3616.833 0.225 0.217 0.264 0.361 0.357 0.232 0.004 0.122 0.362 0.385
3636.123 0.414 0.4 0.34 0.43 0.56052 0.4172 0.222 0.142 0.217 0.4502
3655.413 0.412 0.318 0.411 0.402 0.4431 0.51032 0.5052 0.342 0.305 0.394
3674.703 0.219 0.198 0.403 0.4713 0.429 0.38 0.315 0.238 0.279 0.396
3693.993 0.4335 0.38 0.352 0.254 0.27 0.392 0.4172 0.369 0.395 0.321
3713.282 0.26 0.41 0.403 0.298 0.295 0.232 0.106 0.135 0.343 0.387
3732.572 0.234 0.038 0.01 0.222 0.301 0.257 0.063 0.151 0.253 0.14
3751.862 0.161 0.318 0.4684 0.4863 0.52625 0.4922 0.385 0.328 0.381 0.404
3771.152 0.525703 0.55975 0.4979 0.4999 0.368 0.371 0.4431 0.408 0.4508 0.4869
3790.441 0.4926 0.58436 0.55022 0.329 0.321 0.386 0.393 0.5836 0.5008 0.4532
3809.731 0.4715 0.344 0.354 0.342 0.383 0.4738 0.4448 0.407 0.4326 0.397
3829.021 0.329 0.267 0.306 0.343 0.298 0.37 0.397 0.41 0.51209 0.51605
3848.311 0.5049 0.4995 0.195 0 0.299 0.433 0.397 0.414 0.382 0.319
3867.601 0.327 0.216 0.291 0.397 0.353 0.393 0.28 0.289 0.31 0.131
3886.890 0.212 0.335 0.267 0.385 0.515622 0.4869 0.406 0.348 0.268 0.203
3906.180 0.298 0.4706 0.55264 0.51222 0.4822 0.366 0.192 0.301 0.354 0.307
3925.470 0.4363 0.4884 0.4489 0.384 0.396 0.522241 0.54309 0.4423 0.358 0.346
3944.760 0.4746 0.4564 0.264 0.4333 0.6968 0.645 0.56135 0.4948 0.4291 0.4289
3964.049 0.5418 0.56483 0.4244 0.358 0.343 0.365 0.397 0.382 0.322 0.268
3983.339 0.352 0.4446 0.5035 0.4958 0.456 0.4973 0.52868 0.4856 0.55893 0.6179
##END=
