##TITLE=Naphthalene-2,6-dicarboxylic acid, dimethyl ester
##JCAMP-DX=4.24
##DATA TYPE=INFRARED SPECTRUM
##ORIGIN=NIST Mass Spectrometry Data Center
##OWNER=NIST Standard Reference Data Program
Collection (C) 2018 copyright by the U.S. Secretary of Commerce
on behalf of the United States of America. All rights reserved.
##CAS REGISTRY NO=840-65-3
##MOLFORM=C 14 H 12 O 4
##$NIST SOURCE=MSDC-IR
##SPECTROMETER/DATA SYSTEM=HP-GC/MS/IRD
##STATE=gas
##XUNITS=1/CM
##YUNITS=ABSORBANCE
##XFACTOR=1.0
##YFACTOR=0.000001900
##DELTAX=4.0
##FIRSTX=550.0
##LASTX=3846.0
##FIRSTY=0.001110
##MAXX=3846
##MINX=550
##MAXY=0.019
##MINY=0
##NPOINTS=825
##XYDATA=(X++(Y..Y))
550.0 584 308 179 197 155 161 223 207 168 178
590.0 181 169 156 142 119 80 58 78 92 94
630.0 112 135 152 142 171 150 90 76 64 27
670.0 51 93 102 109 61 43 66 66 33 50
710.0 102 73 40 82 96 79 101 149 138 164
750.0 248 341 558 868 1147 1349 1452 1454 1266 894
790.0 520 331 241 205 228 267 350 426 443 399
830.0 308 204 145 133 113 128 157 144 152 154
870.0 157 176 193 219 242 229 213 237 316 380
910.0 456 516 501 431 339 257 195 172 164 182
950.0 202 204 219 252 311 416 529 561 521 521
990.0 611 643 513 340 243 216 230 211 192 207
1030.0 216 198 208 233 217 238 275 300 363 460
1070.0 601 820 1141 1702 2483 3116 3169 2602 1896 1392
1110.0 1061 866 820 933 1356 2119 2639 2374 1721 1336
1150.0 1309 1490 1712 1944 2342 3264 4648 5467 4852 3539
1190.0 2638 2145 1763 1481 1372 1449 1596 1682 1662 1569
1230.0 1567 1730 2127 2931 4428 6787 9246 10000 8301 6303
1270.0 6060 6701 6948 6713 5790 4188 2741 1874 1384 1086
1310.0 883 740 649 614 632 775 1024 1160 993 725
1350.0 606 585 608 647 682 744 769 698 565 479
1390.0 423 390 393 408 412 389 360 357 380 459
1430.0 715 1310 1895 1757 1079 601 474 425 385 373
1470.0 374 370 334 315 321 319 321 336 328 324
1510.0 284 222 207 203 183 175 183 196 210 205
1550.0 195 202 225 217 198 199 201 221 216 207
1590.0 228 281 365 431 434 352 256 200 172 162
1630.0 168 187 193 189 214 247 251 228 214 208
1670.0 218 233 247 283 342 395 485 575 631 659
1710.0 675 751 901 1156 1662 2645 4486 7241 9579 9492
1750.0 7017 4234 2394 1377 886 693 613 575 574 550
1790.0 502 442 375 321 270 227 199 180 173 180
1830.0 175 153 139 132 122 110 93 90 106 114
1870.0 119 118 111 100 103 111 97 79 70 71
1910.0 85 110 127 128 126 136 120 104 98 84
1950.0 70 64 65 61 61 64 65 70 68 77
1990.0 87 82 71 49 52 62 58 61 63 58
2030.0 67 77 84 84 66 60 70 74 78 84
2070.0 89 98 97 87 78 75 75 70 74 61
2110.0 37 50 62 48 47 49 61 56 41 40
2150.0 46 47 37 28 26 39 47 36 34 38
2190.0 31 24 18 18 17 16 19 27 29 28
2230.0 21 18 17 6 2 11 20 23 18 21
2270.0 27 25 19 24 31 32 31 37 47 41
2310.0 41 45 55 59 62 77 58 50 56 53
2350.0 51 67 79 75 69 57 49 41 38 38
2390.0 40 46 39 33 40 46 46 36 33 35
2430.0 36 36 29 29 40 45 39 39 38 29
2470.0 29 42 31 25 37 43 38 27 20 15
2510.0 17 37 35 28 43 52 45 35 22 23
2550.0 29 33 34 44 36 24 34 43 49 36
2590.0 23 24 31 32 20 37 53 45 38 35
2630.0 43 43 37 38 41 45 45 45 37 44
2670.0 54 48 55 42 27 37 40 31 29 31
2710.0 42 49 56 54 50 51 45 33 28 28
2750.0 29 38 49 45 54 49 22 32 39 24
2790.0 39 45 31 38 48 55 61 60 70 83
2830.0 87 101 124 159 220 280 270 208 152 108
2870.0 82 83 95 114 138 161 189 210 227 238
2910.0 244 249 269 270 258 249 243 275 329 411
2950.0 583 934 1442 1699 1363 811 475 340 295 294
2990.0 312 320 325 332 330 319 297 292 305 304
3030.0 321 339 321 296 273 239 223 232 255 260
3070.0 265 284 304 289 229 191 166 155 118 107
3110.0 112 94 99 94 79 75 78 60 61 69
3150.0 86 87 67 70 82 97 90 80 84 75
3190.0 72 87 102 97 86 106 110 96 99 84
3230.0 59 74 104 91 76 76 71 68 50 51
3270.0 65 52 43 59 85 108 111 113 96 69
3310.0 75 80 85 102 91 71 60 63 72 69
3350.0 72 72 56 41 51 61 66 80 84 69
3390.0 71 74 58 53 69 81 67 56 47 54
3430.0 56 51 61 83 76 66 78 91 123 142
3470.0 142 148 148 149 127 96 81 89 79 70
3510.0 63 57 66 60 78 65 48 71 91 96
3550.0 74 70 72 70 93 97 100 93 74 93
3590.0 93 82 76 61 71 100 116 111 77 73
3630.0 105 87 46 50 87 117 95 63 21 30
3670.0 51 70 85 60 43 33 25 28 42 51
3710.0 68 75 76 63 49 61 84 90 100 85
3750.0 79 64 46 45 44 33 18 4 1 7
3790.0 28 33 38 22 0 12 19 20 27 34
3830.0 25 29 41 25 2
##END=
