##TITLE=2-Chloro-4-fluorobenzaldehyde
##JCAMP-DX=4.24
##DATA TYPE=INFRARED SPECTRUM
##ORIGIN=EPA-IR VAPOR PHASE LIBRARY
##OWNER=SRD/NIST
Collection (C) 2018 copyright by the U.S. Secretary of Commerce
on behalf of the United States of America. All rights reserved.
##CAS REGISTRY NO=84194-36-5
##MOLFORM=C 7 H 4 Cl F O
##$NIST SOURCE=MSDC-IR
##STATE=gas
##XUNITS=1/CM
##YUNITS=ABSORBANCE
##XFACTOR=1.
##YFACTOR=0.001
##DELTAX=1.92898
##FIRSTX=549.8
##LASTX=4000.7
##FIRSTY=1.2225
##MAXX=4000.7
##MINX=549.759
##MAXY=0.228763
##MINY=0
##NPOINTS=1790
##XYDATA=(X++(Y..Y))
549.759 1.2225 0.9071 1.2848 1.6349 1.5952 1.5949 0.77532 0.049 1.0189 2.043
569.049 1.3967 1.7471 2.363 2.773 3.573 3.683 4.263 4.403 3.873 5.063
588.339 5.453 5.993 6.763 7.113 7.903 8.103 8.813 9.933 11.023 13.083
607.628 15.463 16.473 16.803 16.893 17.393 18.633 19.103 18.263 16.363 14.683
626.918 12.823 10.523 8.713 6.903 5.663 4.763 4.163 3.753 4.043 3.863
646.208 3.193 4.043 3.793 2.643 2.523 3.043 3.243 2.993 3.143 3.253
665.498 3.383 4.063 4.293 4.023 4.113 4.473 6.103 7.363 8.243 8.823
684.787 7.993 7.563 7.813 8.493 8.703 7.243 5.693 4.683 3.993 3.413
704.077 2.183 1.6195 1.2341 0.733 0.6991 0.8984 1.2376 1.3427 0.7734 0.6649
723.367 0.9925 1.1227 1.251 1.3231 1.1764 1.4538 2.373 2.363 2.093 2.023
742.657 2.113 2.213 2.303 2.443 2.613 3.003 3.343 3.323 3.523 4.033
761.947 4.313 4.473 5.053 5.713 6.053 6.433 7.453 8.773 9.763 10.873
781.236 12.853 15.123 17.373 19.053 19.083 19.563 19.603 20.033 20.583 19.253
800.526 17.903 16.683 16.973 17.803 19.063 21.623 23.783 25.363 26.403 29.453
819.816 33.433 34.603 30.913 24.713 20.693 18.853 17.043 14.613 12.653 10.733
839.106 9.113 8.043 8.213 9.643 11.933 15.883 20.303 24.123 27.893 31.313
858.395 36.053 44.493 58.153 63.853 49.643 37.883 36.333 33.963 30.763 27.873
877.685 24.873 22.123 20.313 19.963 20.533 20.893 21.653 23.363 25.883 29.123
896.975 33.203 39.153 47.383 57.803 69.323 79.363 85.493 88.823 91.863 92.313
916.265 89.663 85.403 77.063 64.233 50.553 38.523 29.703 23.993 19.843 16.993
935.555 13.583 10.813 9.113 6.993 5.423 4.313 3.713 3.223 2.563 1.763
954.844 1.843 2.173 2.013 2.073 2.323 2.523 1.963 1.5662 1.3603 1.2674
974.134 1.5565 1.7295 2.063 2.253 1.903 1.514 1.3854 1.3522 1.6083 2.143
993.424 2.293 2.113 2.473 2.903 2.463 2.793 2.913 2.543 2.903 3.623
1012.714 4.163 4.613 5.173 5.693 6.633 7.943 9.893 12.053 14.883 18.773
1032.003 23.213 28.193 32.093 33.803 35.183 35.703 36.113 36.883 35.363 31.593
1051.293 25.803 20.093 15.213 11.613 9.993 8.033 6.253 5.283 4.533 3.533
1070.583 3.723 5.033 4.713 3.803 3.573 2.913 2.413 2.313 2.653 3.153
1089.873 4.053 4.693 4.413 4.233 4.863 4.373 3.333 3.963 4.663 4.733
1109.163 5.083 5.303 5.143 6.533 6.333 4.843 5.833 6.473 5.453 5.053
1128.452 5.323 6.253 5.503 4.053 3.883 3.313 3.093 2.723 3.383 4.493
1147.742 3.843 3.403 3.243 3.223 4.323 5.153 5.113 4.873 5.063 5.793
1167.032 7.973 8.423 7.713 7.823 7.883 8.273 8.133 7.843 8.693 8.753
1186.322 7.353 7.753 9.363 9.503 9.723 9.753 10.093 12.073 14.623 18.153
1205.611 22.883 30.593 40.283 53.053 70.443 91.093 115.783 142.133 167.173 187.073
1224.901 199.293 206.723 208.163 204.373 194.303 176.783 151.463 120.453 89.713 65.083
1244.191 50.283 42.323 39.203 38.833 38.633 39.783 40.413 39.553 39.973 40.223
1263.481 39.073 36.393 32.583 28.593 25.103 22.533 20.513 17.963 15.013 12.863
1282.771 11.593 11.313 10.573 9.963 10.093 9.693 8.663 8.233 7.953 7.533
1302.060 7.223 6.583 5.693 5.053 4.763 4.283 3.963 3.693 3.813 3.773
1321.350 3.493 3.513 3.363 3.333 3.233 3.133 3.063 3.013 3.043 3.113
1340.640 3.223 3.383 3.753 4.073 4.203 4.593 5.083 5.323 5.703 6.013
1359.930 6.653 7.643 8.723 10.323 12.653 15.863 20.093 25.323 31.173 36.863
1379.219 41.073 43.513 44.883 45.463 45.353 44.883 43.213 39.093 33.373 28.263
1398.509 24.913 22.763 21.303 20.243 18.813 17.273 16.063 14.473 13.083 11.663
1417.799 9.863 8.263 7.003 6.163 5.753 5.793 6.143 6.823 7.643 8.533
1437.089 9.753 10.673 11.253 12.083 12.723 13.053 13.143 13.073 12.793 12.363
1456.378 11.983 11.423 11.683 12.553 13.893 15.963 18.943 23.483 29.723 37.693
1475.668 46.813 56.563 65.063 70.623 72.863 73.113 71.343 66.693 60.693 53.693
1494.958 43.603 31.523 21.483 14.923 11.483 10.153 9.463 8.653 7.793 7.463
1514.248 7.543 7.693 7.623 7.943 8.603 8.943 9.563 9.973 10.143 10.673
1533.538 11.353 11.363 11.353 11.753 11.483 11.383 11.683 11.863 12.343 13.253
1552.827 14.373 15.863 18.213 21.183 24.883 29.073 33.683 39.453 45.653 52.503
1572.117 60.733 69.263 78.663 89.353 101.573 116.533 133.033 151.163 170.153 188.933
1591.407 206.403 219.743 227.293 228.763 222.693 208.693 188.573 163.753 135.393 106.143
1610.697 80.323 59.253 43.963 33.333 27.003 24.143 22.473 21.003 19.923 19.463
1629.986 19.193 19.053 18.743 18.513 18.253 17.583 16.793 16.143 15.763 15.333
1649.276 14.343 13.213 12.393 11.733 11.343 10.973 10.963 11.303 11.363 11.533
1668.566 12.163 13.163 14.213 15.303 16.833 18.563 20.293 22.433 25.473 28.783
1687.856 32.903 37.733 43.493 50.403 59.123 69.533 82.583 101.193 122.203 148.643
1707.146 176.643 199.693 211.713 212.303 207.253 203.953 203.553 195.943 170.503 134.383
1726.435 99.923 74.043 56.553 45.593 38.483 33.883 30.333 26.883 23.823 20.063
1745.725 15.843 12.183 9.583 7.993 6.793 6.033 5.833 5.403 4.943 4.873
1765.015 4.943 5.013 4.873 4.933 5.163 5.033 4.933 4.913 4.773 4.833
1784.305 4.993 4.873 4.863 4.973 4.883 5.073 5.193 4.933 4.753 4.523
1803.594 4.333 4.043 3.793 3.643 3.393 3.213 2.993 2.733 2.473 2.193
1822.884 2.133 2.173 1.983 1.923 2.103 2.283 2.163 1.933 2.023 2.243
1842.174 2.183 2.033 2.193 2.213 2.093 2.083 2.003 2.123 2.333 2.523
1861.464 2.473 2.173 2.193 2.163 2.083 2.193 2.133 2.203 2.403 2.493
1880.754 2.423 2.493 2.763 2.663 2.653 2.773 2.833 3.013 3.123 3.183
1900.043 3.363 3.653 3.673 3.663 3.623 3.683 3.723 3.453 3.353 3.243
1919.333 3.023 3.073 3.053 2.883 2.803 2.633 2.503 2.463 2.413 2.573
1938.623 2.763 2.893 3.163 3.433 3.443 3.283 3.393 3.313 3.183 3.393
1957.913 3.493 3.323 3.193 3.083 2.893 2.803 2.643 2.553 2.653 2.793
1977.202 2.773 2.543 2.293 1.983 1.933 1.913 1.843 1.803 1.7031 1.6247
1996.492 1.504 1.4901 1.4962 1.6199 1.843 1.6972 1.5898 1.843 1.803 1.674
2015.782 1.5687 1.3715 1.4355 1.5244 1.3902 1.5693 1.903 1.6242 1.3311 1.4595
2035.072 1.6568 1.783 1.783 1.687 1.803 1.943 1.773 1.7084 1.913 1.913
2054.362 1.7564 1.6741 1.6809 1.823 1.783 1.6187 1.6929 1.993 2.093 1.763
2073.651 1.773 2.003 2.053 1.963 1.7236 1.7171 1.7288 1.773 1.793 1.6029
2092.941 1.6119 1.783 1.6593 1.548 1.3549 1.4876 1.783 1.823 1.803 1.793
2112.231 1.853 1.6913 1.793 1.963 2.033 2.193 2.183 2.293 2.333 2.433
2131.521 2.543 2.643 2.823 2.813 2.893 3.043 3.103 2.943 2.513 2.293
2150.810 2.173 2.203 2.173 1.903 1.893 1.863 2.053 1.963 1.7345 2.053
2170.100 2.253 2.193 2.043 2.013 2.133 1.953 1.7084 1.741 1.7046 1.6396
2189.390 1.7247 1.7073 1.793 1.783 1.7173 1.813 1.813 1.863 1.813 1.6052
2208.680 1.5997 1.6196 1.6625 1.3835 1.2552 1.536 1.4634 1.2569 1.4011 1.6175
2227.970 1.5811 1.3348 1.3054 1.399 1.529 1.6316 1.5009 1.5656 1.6345 1.5757
2247.259 1.7559 1.763 1.629 1.7209 1.843 1.843 1.883 2.093 2.253 2.353
2266.549 2.313 2.423 2.473 2.243 1.933 2.043 2.213 2.013 1.933 2.143
2285.839 2.083 1.853 1.893 2.053 2.043 1.873 1.903 2.043 1.833 1.6851
2305.129 1.7405 1.6353 1.6882 1.803 1.953 1.863 1.943 2.033 2.023 2.093
2324.418 2.283 2.423 2.073 1.6694 1.6597 1.953 1.783 1.5972 1.728 1.5585
2343.708 1.386 1.6135 1.6211 1.6419 1.7241 1.75 1.7399 1.4868 1.7117 1.993
2362.998 1.913 1.843 1.853 1.6514 1.6141 1.7291 1.3667 1.2485 1.4076 1.4501
2382.288 1.5609 1.5507 1.5957 1.7352 1.6577 1.6251 1.863 1.933 1.4992 1.5251
2401.578 1.863 1.943 2.003 2.093 2.063 1.783 1.6889 1.883 1.7113 1.6211
2420.867 1.993 2.023 1.913 1.923 1.973 1.993 1.963 2.063 2.293 2.253
2440.157 2.283 2.353 2.193 2.263 2.483 2.633 2.423 2.533 2.873 2.653
2459.447 2.543 2.723 2.463 2.283 2.443 2.303 2.253 2.433 2.543 2.443
2478.737 2.433 2.423 2.453 2.473 2.353 2.253 2.193 2.453 2.813 2.883
2498.026 2.623 2.703 2.523 2.323 2.563 2.723 2.443 2.063 2.233 2.823
2517.316 2.733 2.543 2.523 2.183 2.203 2.213 2.473 2.423 2.363 2.573
2536.606 2.493 2.623 2.793 2.733 2.913 3.063 2.853 2.683 2.853 3.153
2555.896 2.903 2.773 2.923 2.933 3.303 3.303 2.783 2.423 2.113 2.413
2575.186 2.793 2.313 2.033 2.383 2.423 2.313 2.363 1.933 1.6444 1.793
2594.475 1.983 1.993 2.033 2.123 2.133 1.993 1.873 2.083 2.163 2.273
2613.765 2.363 2.233 2.133 2.003 1.943 2.233 2.283 1.903 2.063 2.363
2633.055 2.593 2.753 2.563 2.693 2.753 2.293 2.143 2.543 2.323 2.223
2652.345 2.723 3.033 2.983 2.843 2.963 3.393 3.633 3.183 2.993 3.423
2671.634 3.643 3.313 3.123 3.163 3.163 3.633 3.463 3.013 3.433 3.553
2690.924 3.583 3.913 4.183 4.133 4.163 4.333 4.473 4.683 5.193 5.833
2710.214 6.183 6.963 7.613 7.723 7.743 7.773 7.723 7.633 8.103 8.323
2729.504 8.293 8.493 8.303 7.893 7.713 7.943 8.303 8.843 9.553 10.243
2748.794 10.743 10.683 10.543 10.623 10.843 10.683 10.073 9.743 9.243 8.703
2768.083 8.253 7.553 7.503 7.413 6.423 6.023 5.863 5.963 5.993 5.503
2787.373 5.223 5.353 5.433 5.473 5.613 5.573 5.363 4.963 4.813 4.803
2806.663 4.683 4.693 5.033 5.113 4.923 5.093 5.273 4.853 4.523 4.413
2825.953 4.533 4.843 5.123 5.673 6.093 6.633 7.273 7.853 9.033 10.513
2845.242 12.063 13.633 15.593 18.593 22.133 25.833 29.273 32.243 34.903 36.763
2864.532 37.183 36.143 34.473 32.603 29.383 25.743 22.673 19.343 16.173 13.663
2883.822 11.453 9.273 7.923 7.333 6.683 5.933 5.223 4.853 4.443 3.893
2903.112 3.563 2.883 2.953 3.023 2.883 2.753 2.453 2.793 2.623 2.593
2922.401 2.553 2.273 2.693 3.193 3.513 3.283 2.833 2.883 2.803 2.793
2941.691 3.273 3.273 3.183 3.283 2.813 2.713 2.703 2.643 3.153 3.113
2960.981 2.823 3.163 2.683 1.6602 2.023 2.333 2.243 2.693 2.963 3.063
2980.271 2.583 2.263 2.293 2.143 2.293 2.403 2.573 2.793 2.993 3.063
2999.561 3.183 3.063 2.713 2.593 2.863 3.103 2.833 3.103 3.103 2.633
3018.850 2.633 2.663 2.243 1.983 1.773 1.5595 1.943 1.943 1.963 2.323
3038.140 2.213 1.933 2.113 2.543 2.023 1.5489 2.053 2.213 2.013 2.183
3057.430 2.393 2.013 1.893 2.283 2.663 2.643 2.773 2.823 2.613 3.363
3076.720 4.383 4.563 4.693 5.133 5.253 5.163 5.013 4.693 4.563 4.403
3096.009 4.173 3.833 3.503 3.573 3.263 2.963 2.863 2.773 2.613 2.873
3115.299 3.103 2.863 2.233 1.953 2.213 2.353 2.123 1.773 2.033 2.213
3134.589 2.403 1.983 1.813 2.043 1.4893 1.549 2.053 1.7018 1.823 2.293
3153.879 2.403 2.513 2.203 2.553 2.513 2.113 2.663 2.493 2.343 2.453
3173.169 2.423 1.913 1.399 1.823 1.953 1.7273 1.5375 1.307 0.9145 0.7206
3192.458 0.7225 1.0284 1.288 0.9751 0.453 0.443 1.1483 1.803 1.4607 1.1949
3211.748 1.1121 1.2526 1.763 1.5528 1.118 0.9717 1.02 1.0415 0.7494 0.83682
3231.038 1.3879 1.2695 1.2291 1.3315 1.3058 1.272 1.1931 1.52 1.7014 1.2963
3250.328 1.2778 1.6582 2.233 1.7493 0.78054 1.4833 2.053 1.742 1.7275 1.5437
3269.617 1.5218 1.3983 1.1743 1.7613 1.943 1.5447 1.813 1.6146 1.1043 1.3518
3288.907 1.773 1.963 1.7211 1.201 1.1685 1.6401 2.033 1.973 1.6776 1.983
3308.197 1.933 1.783 1.5139 1.2872 1.553 1.2201 0.8986 1.4189 1.689 1.4843
3327.487 1.37 1.1623 0.80074 0.768556 1.0985 1.3313 1.6043 1.7389 1.7581 1.2643
3346.777 0.9683 0.939 1.2084 1.6127 1.873 1.793 1.5912 1.6521 1.2781 1.2422
3366.066 1.3793 1.5682 1.803 1.873 1.883 1.7118 1.4895 2.003 2.533 2.543
3385.356 2.713 3.003 3.343 4.303 4.523 4.613 5.223 5.063 4.993 5.383
3404.646 5.793 5.563 4.743 4.233 4.533 4.023 3.423 3.473 3.213 3.103
3423.936 3.053 2.603 2.563 2.713 2.763 2.443 2.093 1.803 1.773 2.273
3443.225 2.093 2.343 2.873 2.403 1.5442 1.5516 1.5903 0.9876 1.0167 1.4348
3462.515 1.913 2.133 1.1037 0.48 1.1634 1.6078 2.083 2.213 1.1712 0.615
3481.805 0.65 0.663 0.78164 0.9757 1.0608 1.0726 1.655 1.793 1.2309 0.9895
3501.095 1.0434 0.9716 0.8987 1.2183 1.536 1.1801 0.8642 1.1776 1.5217 1.5597
3520.385 1.526 1.2976 0.9078 0.8724 0.9735 1.0323 1.3027 1.697 2.153 1.993
3539.674 1.6247 1.853 1.953 1.6421 1.0664 0.85556 1.4144 1.4652 0.9513 1.0891
3558.964 1.1283 0.7011 1.1029 1.0977 0.77795 1.1086 0.839 0.547 0.7008 0.83379
3578.254 0.488 0.7918 1.0865 0.635 0.612 0.7503 0.8631 0.7908 0.541 0.86087
3597.544 1.1215 1.2684 1.6028 1.7192 1.5493 1.3393 0.995 0.587 0.9603 1.1471
3616.833 1.1362 1.585 1.6127 1.4817 1.4074 1.6108 1.7526 1.3003 1.1683 1.3313
3636.123 1.0104 0.574 0.502 0.577 0.7264 0.538 0.9627 1.1858 1.1893 1.5617
3655.413 1.6778 1.6725 1.4571 1.983 1.7291 1.0805 1.0765 0.9919 1.2789 1.2842
3674.703 1.1705 1.1386 1.0961 0.9168 0.997 1.2019 0.9771 0.402 0.59 1.3861
3693.993 1.4075 1.2503 1.3024 1.2627 1.2694 1.2596 0.8976 0.425 0.086 0
3713.282 0.698 1.329 1.3004 1.5595 1.6602 1.339 1.2338 1.2473 1.387 1.2654
3732.572 1.1851 1.1013 0.83504 1.433 1.6539 1.663 1.6077 1.0953 1.0109 1.0482
3751.862 0.947 0.8612 0.541 0.314 0.9857 1.5798 1.2536 1.0453 1.2546 1.4191
3771.152 1.0887 0.770094 1.0982 1.3388 1.3835 1.5198 1.2406 1.6962 2.203 1.5383
3790.441 1.3664 1.078 0.678 0.9572 0.9538 0.451 0.38 0.919 1.4986 1.5567
3809.731 1.0828 0.7259 0.83854 0.84849 0.45 0.741 1.0592 1.0563 0.8988 1.0128
3829.021 1.3344 1.2832 1.1895 1.0106 0.82432 1.0638 1.3086 0.927 1.3807 1.913
3848.311 1.933 2.063 1.3943 0.8914 0.797 0.35 0.253 0.48 0.763263 1.2206
3867.601 1.3761 1.1547 0.655 0.553 0.8666 1.1914 1.863 1.843 1.476 1.943
3886.890 1.374 0.564 1.0388 1.1107 0.9548 1.0709 1.4505 1.4997 0.7247 0.78985
3906.180 1.131 0.82066 1.0934 1.2046 0.9928 1.2245 1.3681 0.9623 0.9536 1.1243
3925.470 1.3479 1.873 1.2138 0.626 0.9815 1.3607 1.1242 1.1326 1.423 1.883
3944.760 1.963 1.2397 1.2794 1.0609 1.0572 1.5297 1.4827 1.2921 1.3315 1.2553
3964.049 0.8829 0.8879 1.4353 1.2952 0.83028 0.6788 0.963 1.4016 1.2119 0.9662
3983.339 1.0816 1.2795 1.1727 1.5045 1.983 2.193 2.493 2.463 1.7162 1.4303
##END=
