##TITLE=(4S)-(-)-4-Isopropyl-1,3-oxazolidine-2-thione
##JCAMP-DX=4.24
##DATA TYPE=INFRARED SPECTRUM
##ORIGIN=EPA-IR VAPOR PHASE LIBRARY
##OWNER=SRD/NIST
Collection (C) 2018 copyright by the U.S. Secretary of Commerce
on behalf of the United States of America. All rights reserved.
##CAS REGISTRY NO=84272-19-5
##MOLFORM=C 6 H 11 N O S
##$NIST SOURCE=MSDC-IR
##STATE=gas
##XUNITS=1/CM
##YUNITS=ABSORBANCE
##XFACTOR=1.
##YFACTOR=0.001
##DELTAX=1.92898
##FIRSTX=549.8
##LASTX=4000.7
##FIRSTY=8.425
##MAXX=4000.7
##MINX=549.759
##MAXY=0.308865
##MINY=0
##NPOINTS=1790
##XYDATA=(X++(Y..Y))
549.759 8.425 8.195 8.225 8.245 8.435 8.525 8.465 8.295 7.815 7.645
569.049 7.495 6.965 6.165 5.685 5.575 5.605 5.535 5.155 4.915 5.045
588.339 4.925 4.585 4.605 4.775 4.505 4.205 4.165 4.115 3.885 3.515
607.628 3.275 3.335 3.235 2.905 2.855 2.545 2.455 2.655 2.755 2.465
626.918 2.235 2.255 2.075 2.245 2.125 1.995 2.125 2.145 2.195 2.145
646.208 2.145 2.185 2.145 1.915 2.085 2.355 2.145 1.975 1.975 1.995
665.498 1.945 1.835 1.885 1.915 1.905 2.225 2.235 2.065 2.125 2.135
684.787 1.995 1.925 2.075 2.105 1.925 1.895 1.925 1.885 1.895 1.885
704.077 1.855 2.005 2.035 1.965 2.145 2.115 1.775 1.645 1.765 1.915
723.367 2.085 2.015 1.695 1.625 1.585 1.715 2.065 1.785 1.615 1.755
742.657 1.825 2.005 2.135 1.995 1.875 2.125 2.315 2.485 2.565 2.575
761.947 2.695 2.775 2.945 2.995 3.105 3.305 3.455 3.405 3.355 3.525
781.236 3.465 3.795 4.165 4.165 3.985 3.755 3.875 3.825 3.755 3.955
800.526 3.695 3.335 3.355 3.395 3.155 2.925 3.045 2.965 3.015 3.295
819.816 3.195 3.135 3.175 3.305 3.475 3.465 3.395 3.335 3.315 3.475
839.106 3.795 3.805 3.645 3.795 3.815 3.655 3.735 3.775 3.665 3.755
858.395 4.055 4.025 4.075 4.035 3.705 3.845 4.125 3.995 3.935 4.075
877.685 4.045 4.085 4.355 4.515 4.805 5.225 5.605 6.025 6.575 7.335
896.975 7.905 8.745 9.755 10.465 11.095 11.845 12.325 12.625 13.315 13.605
916.265 13.435 13.735 13.805 13.495 13.175 12.745 12.285 11.745 11.125 10.665
935.555 10.255 9.855 9.685 9.365 9.055 9.135 9.385 9.705 9.925 10.345
954.844 11.235 12.235 13.635 15.265 16.935 19.095 21.505 23.915 26.425 28.755
974.134 30.955 33.075 34.975 36.715 38.315 39.245 39.965 40.605 40.435 40.235
993.424 40.105 39.585 38.635 37.475 36.405 34.765 32.755 30.675 28.635 26.785
1012.714 24.655 22.865 21.315 20.115 18.865 17.685 17.085 16.275 15.375 14.775
1032.003 14.405 14.535 14.975 15.035 15.035 15.115 15.285 15.775 16.645 17.915
1051.293 19.155 20.105 21.165 22.255 22.535 22.375 21.765 20.665 19.865 18.805
1070.583 17.525 15.875 14.195 13.085 11.415 10.415 10.805 10.445 9.465 9.115
1089.873 9.835 9.695 8.985 9.505 9.705 9.615 10.915 11.435 11.665 12.075
1109.163 12.195 12.875 13.495 13.875 13.925 14.265 14.575 15.025 15.535 15.685
1128.452 15.915 16.815 17.375 17.655 19.155 20.205 20.825 22.335 24.655 27.025
1147.742 29.615 33.175 36.705 40.885 45.775 50.785 56.425 62.295 68.445 74.075
1167.032 78.775 83.035 86.395 89.305 92.005 93.955 94.685 93.515 90.815 87.755
1186.322 84.255 80.025 76.255 71.745 66.075 61.085 56.325 51.925 47.525 44.075
1205.611 40.715 37.115 35.195 33.585 32.835 33.345 33.805 34.345 36.355 39.555
1224.901 43.325 48.535 54.965 61.935 69.875 78.145 85.495 90.995 95.085 97.425
1244.191 97.215 95.365 91.655 85.715 77.135 67.565 58.595 50.005 43.025 37.845
1263.481 33.785 30.915 29.125 28.345 28.385 29.295 30.935 33.295 36.145 38.865
1282.771 41.705 44.665 47.575 50.475 52.665 53.855 54.145 53.485 52.055 50.045
1302.060 47.715 45.405 43.265 41.325 39.885 38.975 38.705 39.285 40.485 42.015
1321.350 43.855 46.015 48.315 50.355 51.815 52.515 52.235 51.025 49.275 47.215
1340.640 44.795 42.135 39.385 36.655 34.095 31.905 30.135 28.805 27.705 26.675
1359.930 25.845 25.235 24.895 24.805 24.725 24.555 24.335 24.175 24.315 24.665
1379.219 25.105 25.475 25.815 26.115 26.515 26.935 27.075 26.995 26.545 25.775
1398.509 25.005 24.115 22.925 21.655 20.425 19.345 18.695 18.515 18.785 19.435
1417.799 20.525 22.195 24.245 26.755 30.005 33.885 38.665 44.545 51.865 60.785
1437.089 71.855 84.915 100.485 118.435 138.555 160.835 185.115 210.395 235.685 259.345
1456.378 280.185 296.565 306.155 308.865 304.365 293.325 276.805 255.625 230.465 202.455
1475.668 174.285 147.515 123.785 103.425 86.835 73.315 62.285 53.435 46.295 40.515
1494.958 35.825 31.775 28.335 25.455 23.025 21.045 19.235 17.665 16.435 15.245
1514.248 14.275 13.565 12.875 12.215 11.465 10.955 10.605 10.235 9.925 9.505
1533.538 9.065 8.785 8.625 8.425 8.085 7.695 7.335 7.015 6.625 6.275
1552.827 5.985 5.635 5.435 5.205 4.875 4.635 4.355 4.035 3.895 3.785
1572.117 3.605 3.505 3.455 3.355 3.205 3.065 2.965 2.845 2.755 2.695
1591.407 2.625 2.585 2.495 2.375 2.395 2.465 2.425 2.265 2.185 2.165
1610.697 2.185 2.195 2.105 2.105 2.085 1.925 1.815 1.545 1.205 0.9756
1629.986 0.712 0.4522 0.2572 0.2511 0.19199 0.14606 0.19863 0.2484 0.4486 0.7105
1649.276 0.9986 1.1524 1.0891 1.0499 1.0977 1.0643 1.0451 0.9918 0.8739 0.9106
1668.566 0.8835 0.7434 0.6247 0.4652 0.16775 0 0.068 0.1437 0.31 0.6656
1687.856 0.9665 1.205 1.425 1.535 1.515 1.485 1.555 1.675 1.655 1.635
1707.146 1.585 1.595 1.645 1.675 1.805 1.845 1.715 1.605 1.645 1.735
1726.435 1.855 1.835 1.875 1.955 1.995 2.025 2.015 2.095 2.195 2.215
1745.725 2.225 2.215 2.165 2.175 2.095 2.015 2.065 2.025 1.985 1.965
1765.015 1.895 1.845 1.825 1.815 1.725 1.625 1.605 1.555 1.545 1.525
1784.305 1.445 1.405 1.395 1.485 1.515 1.575 1.585 1.595 1.615 1.555
1803.594 1.575 1.585 1.595 1.595 1.565 1.595 1.605 1.535 1.505 1.525
1822.884 1.445 1.405 1.445 1.415 1.305 1.215 1.255 1.235 1.185 1.195
1842.174 1.185 1.175 1.1102 1.0577 1.0548 1.079 1.0427 1.0306 1.0905 1.0748
1861.464 1.0921 1.1474 1.185 1.295 1.335 1.285 1.295 1.305 1.315 1.365
1880.754 1.405 1.445 1.465 1.445 1.485 1.585 1.595 1.595 1.705 1.745
1900.043 1.775 1.855 1.865 1.885 1.925 1.985 2.025 2.035 2.025 2.025
1919.333 2.115 2.155 2.165 2.165 2.165 2.135 2.205 2.285 2.375 2.465
1938.623 2.545 2.645 2.695 2.745 2.765 2.875 3.065 3.165 3.285 3.495
1957.913 3.595 3.705 3.905 4.085 4.255 4.405 4.595 4.805 4.975 5.135
1977.202 5.305 5.525 5.765 6.035 6.245 6.455 6.715 7.005 7.355 7.695
1996.492 8.125 8.515 8.865 9.355 9.865 10.395 11.005 11.515 12.135 12.905
2015.782 13.665 14.465 15.265 16.125 17.025 17.875 18.695 19.535 20.405 21.285
2035.072 22.035 22.675 23.345 23.995 24.615 25.135 25.535 25.925 26.225 26.375
2054.362 26.365 26.265 26.115 25.795 25.355 24.705 23.875 23.095 22.195 21.175
2073.651 20.175 19.275 18.335 17.265 16.255 15.405 14.645 14.025 13.365 12.655
2092.941 12.115 11.735 11.435 10.995 10.585 10.425 10.275 10.095 9.905 9.695
2112.231 9.565 9.505 9.445 9.315 9.235 9.145 8.935 8.845 8.735 8.415
2131.521 8.135 7.855 7.635 7.385 7.105 6.915 6.635 6.335 6.105 5.885
2150.810 5.655 5.455 5.255 5.075 4.955 4.835 4.715 4.575 4.395 4.175
2170.100 4.015 4.045 3.905 3.685 3.635 3.595 3.435 3.255 3.125 3.145
2189.390 3.075 2.955 2.875 2.765 2.625 2.535 2.555 2.485 2.315 2.265
2208.680 2.125 1.985 2.015 1.915 1.875 1.845 1.775 1.685 1.585 1.555
2227.970 1.455 1.335 1.335 1.425 1.485 1.475 1.435 1.375 1.295 1.275
2247.259 1.185 1.0524 1.0968 1.1219 1.0545 1.1142 1.165 1.0792 1.037 1.0177
2266.549 0.9988 0.9589 0.9562 1.0312 1.0902 1.113 1.1366 1.185 1.0883 1.0391
2285.839 1.107 1.1497 1.155 1.1066 1.0549 1.0682 1.1037 1.1065 1.1109 1.1412
2305.129 1.0739 0.977 0.9433 0.8943 0.9365 1.0159 1.0408 1.016 0.9204 0.8946
2324.418 0.9848 1.0573 1.0516 1.0308 1.0883 1.067 1.0741 1.165 1.195 1.1478
2343.708 1.1019 1.245 1.355 1.355 1.375 1.435 1.425 1.345 1.305 1.245
2362.998 1.235 1.215 1.205 1.1001 1.053 1.1078 1.1323 1.0797 1.0203 0.9901
2382.288 0.9773 1.0472 1.1038 1.1154 0.9874 0.9062 0.9179 0.9974 0.9963 0.9825
2401.578 1.0867 1.0549 1.0389 1.148 1.175 1.1118 1.335 1.485 1.395 1.415
2420.867 1.465 1.445 1.385 1.345 1.415 1.435 1.365 1.285 1.1372 1.1545
2440.157 1.245 1.225 1.255 1.275 1.185 1.1308 1.0831 1.0008 0.9238 0.9199
2459.447 0.8951 0.8461 0.8921 0.8942 0.8418 0.8192 0.7632 0.8068 0.8046 0.7669
2478.737 0.8009 0.7769 0.7546 0.8107 0.8217 0.784 0.8419 0.8227 0.7227 0.7656
2498.026 0.7774 0.7903 0.8352 0.7645 0.8236 0.8263 0.8142 0.9083 0.9002 0.8518
2517.316 0.886 0.9145 0.8474 0.8548 0.9358 0.9853 0.9818 0.9595 1.0814 1.165
2536.606 1.185 1.1246 0.989 0.988 1.0484 1.0387 1.0224 1.0883 1.088 0.9421
2555.896 0.9175 0.9523 0.9351 0.9589 0.9239 0.8564 0.8917 0.9562 1.0399 1.094
2575.186 1.0041 0.9535 0.99 1.03 0.9379 0.8916 0.9198 0.9458 1.0242 1.0923
2594.475 1.0539 1.02 1.0315 1.0582 1.136 1.1539 1.1285 1.0718 1.1053 1.165
2613.765 1.205 1.245 1.215 1.175 1.265 1.325 1.245 1.255 1.275 1.325
2633.055 1.345 1.345 1.375 1.335 1.375 1.365 1.355 1.455 1.395 1.365
2652.345 1.435 1.445 1.535 1.565 1.495 1.515 1.515 1.515 1.425 1.395
2671.634 1.515 1.525 1.515 1.525 1.495 1.635 1.745 1.715 1.755 1.755
2690.924 1.695 1.715 1.755 1.735 1.725 1.765 1.875 1.865 1.775 1.785
2710.214 1.805 1.855 1.795 1.705 1.675 1.715 1.775 1.675 1.745 1.895
2729.504 1.795 1.835 1.945 1.935 2.075 2.165 2.175 2.335 2.515 2.565
2748.794 2.505 2.525 2.605 2.685 2.645 2.625 2.735 2.745 2.625 2.595
2768.083 2.505 2.385 2.485 2.415 2.355 2.365 2.285 2.195 2.025 1.945
2787.373 2.065 2.165 2.075 2.015 2.035 2.085 2.005 1.915 2.025 2.055
2806.663 2.135 2.175 2.225 2.275 2.375 2.505 2.455 2.495 2.545 2.725
2825.953 2.905 2.915 2.915 3.205 3.535 3.605 3.645 3.905 4.195 4.365
2845.242 4.715 5.175 5.665 6.135 6.615 7.085 7.515 8.165 8.975 9.745
2864.532 10.525 11.375 12.405 13.715 15.205 16.765 18.455 20.295 21.915 23.315
2883.822 24.655 26.085 27.485 28.625 29.635 30.705 31.615 32.395 33.495 34.645
2903.112 35.675 36.495 37.105 37.465 37.705 37.875 37.625 37.145 36.505 35.695
2922.401 35.195 34.565 33.735 33.205 32.765 32.155 31.675 31.535 31.395 31.265
2941.691 31.325 31.405 31.555 31.915 32.545 33.535 34.835 36.315 38.425 41.135
2960.981 44.325 48.235 53.075 58.775 64.325 68.615 70.835 71.015 70.375 68.625
2980.271 65.555 61.595 56.135 49.195 41.945 35.555 30.095 25.515 21.795 18.775
2999.561 16.195 14.095 12.455 11.065 9.775 8.645 7.645 6.785 6.245 5.685
3018.850 5.145 4.825 4.595 4.395 3.965 3.605 3.535 3.515 3.325 3.015
3038.140 2.955 2.705 2.585 2.645 2.515 2.395 2.335 2.225 2.095 2.095
3057.430 1.965 1.725 1.725 1.735 1.585 1.515 1.575 1.605 1.455 1.325
3076.720 1.355 1.445 1.465 1.425 1.295 1.155 1.175 1.245 1.365 1.495
3096.009 1.395 1.255 1.215 1.215 1.325 1.405 1.355 1.265 1.265 1.275
3115.299 1.175 1.175 1.195 1.275 1.305 1.1467 1.0489 1.1091 1.1155 1.0608
3134.589 1.1441 1.215 1.0308 1.0263 1.1264 1.0799 1.0569 1.0048 0.9412 0.8513
3153.879 0.8642 0.9842 1.0755 1.0074 1.0456 1.1088 1.1153 1.195 1.0575 0.9736
3173.169 1.0507 1.0771 1.1493 1.165 1.0656 0.8645 0.7706 0.8751 1.0606 1.185
3192.458 1.155 1.0551 1.1033 1.0327 0.8461 0.9249 0.8177 0.8099 0.8172 0.586
3211.748 0.5689 0.4797 0.4128 0.5071 0.6956 0.6879 0.5724 0.6296 0.5652 0.4191
3231.038 0.4114 0.5435 0.5956 0.5706 0.4592 0.2806 0.2861 0.4275 0.458 0.3659
3250.328 0.22057 0.21504 0.4284 0.4648 0.4596 0.4889 0.515 0.4494 0.2884 0.2697
3269.617 0.21802 0.1403 0.2325 0.3142 0.3449 0.3459 0.3389 0.20253 0.16918 0.2972
3288.907 0.2522 0.163133 0.17772 0.4172 0.436 0.3283 0.3657 0.3753 0.34 0.4602
3308.197 0.497 0.4929 0.4826 0.2562 0.1286 0.0831 0.051 0.14503 0.2884 0.3193
3327.487 0.4052 0.5746 0.5862 0.4666 0.3971 0.5695 0.6656 0.4065 0.3236 0.4308
3346.777 0.487 0.4264 0.3458 0.4005 0.5505 0.3638 0.14853 0.0719 0.1118 0.3875
3366.066 0.3659 0.3844 0.4235 0.4553 0.5496 0.3371 0.161133 0.2703 0.367 0.3881
3385.356 0.272 0.2732 0.3592 0.4362 0.5978 0.5154 0.361 0.4127 0.5419 0.474
3404.646 0.4414 0.6014 0.6088 0.5197 0.3367 0.3212 0.4069 0.406 0.5383 0.7102
3423.936 0.7634 0.8241 0.9925 0.8852 0.6849 0.7041 0.7447 0.7813 0.9138 1.0101
3443.225 1.0926 1.255 1.445 1.545 1.715 2.035 2.315 2.925 3.765 4.475
3462.515 5.345 6.515 7.925 9.495 11.155 12.805 14.945 17.275 19.415 21.485
3481.805 23.345 24.845 25.545 25.665 25.275 24.465 23.205 21.515 19.435 16.985
3501.095 14.555 12.105 9.895 8.105 6.475 5.065 3.995 3.315 2.765 2.305
3520.385 1.915 1.605 1.405 1.355 1.365 1.0878 0.9587 1.1107 1.1185 1.0145
3539.674 0.96 0.9883 0.9694 0.7799 0.7869 0.9001 0.9722 0.9874 0.8961 0.9133
3558.964 0.7568 0.6432 0.7809 0.7824 0.7298 0.7962 0.7464 0.6228 0.629 0.5814
3578.254 0.4986 0.5118 0.6651 0.7472 0.654 0.5354 0.509 0.3948 0.3561 0.4767
3597.544 0.5163 0.5237 0.314 0.17712 0.2752 0.461 0.607 0.532 0.5171 0.527
3616.833 0.4325 0.5568 0.6496 0.7528 0.7541 0.7594 0.9574 0.9919 1.033 1.0362
3636.123 0.8974 0.9815 1.1271 1.0902 1.195 1.155 1.0113 1.0096 0.923 0.9431
3655.413 1.1397 1.146 1.0208 0.9596 0.9633 1.1173 1.165 1.0067 0.9668 0.9992
3674.703 0.8922 0.7237 0.6388 0.4783 0.4315 0.571 0.6151 0.5359 0.5406 0.5513
3693.993 0.2879 0.3072 0.4631 0.3434 0.3081 0.339 0.3834 0.389 0.3471 0.2888
3713.282 0.2704 0.4217 0.4823 0.3397 0.3057 0.4775 0.5003 0.2766 0.2838 0.3835
3732.572 0.3789 0.4185 0.6192 0.69 0.4954 0.3951 0.5201 0.5583 0.3961 0.5347
3751.862 0.7129 0.5911 0.4796 0.403 0.3799 0.4066 0.2622 0.161531 0.3682 0.4514
3771.152 0.4803 0.5428 0.3794 0.2645 0.19079 0.2713 0.3794 0.3725 0.386 0.25172
3790.441 0.24315 0.3578 0.4653 0.5584 0.4037 0.4434 0.5519 0.5057 0.5587 0.6209
3809.731 0.5959 0.6326 0.6049 0.5689 0.6935 0.6012 0.4906 0.6411 0.738 0.5658
3829.021 0.4691 0.5223 0.509 0.607 0.6821 0.602 0.6345 0.6783 0.5686 0.4309
3848.311 0.4238 0.3495 0.367 0.5561 0.5521 0.4691 0.4771 0.5205 0.6841 0.6535
3867.601 0.6382 0.6622 0.5585 0.5479 0.585 0.7686 0.7882 0.6821 0.6509 0.6212
3886.890 0.4764 0.5822 0.8698 0.9081 0.8894 1.0031 0.9744 1.0583 0.8872 0.6628
3906.180 0.7711 0.8194 0.9306 0.9385 0.8642 0.7662 0.7954 0.7425 0.6311 0.7518
3925.470 0.913 0.941 0.8798 0.8278 0.8703 0.9503 0.9057 0.9661 0.8406 0.5338
3944.760 0.5346 0.8215 0.8542 0.7522 0.8962 0.9311 0.8976 0.882 1.0032 1.0639
3964.049 0.9605 0.824 0.8359 0.7904 0.8745 0.8253 0.5548 0.6761 0.8927 0.8712
3983.339 0.6727 0.5858 0.6366 0.7516 0.758 0.5318 0.6037 0.8312 0.7666 0.6769
##END=
