##TITLE=3,5-Difluorocinnamic acid
##JCAMP-DX=4.24
##DATA TYPE=INFRARED SPECTRUM
##ORIGIN=EPA-IR VAPOR PHASE LIBRARY
##OWNER=SRD/NIST
Collection (C) 2018 copyright by the U.S. Secretary of Commerce
on behalf of the United States of America. All rights reserved.
##CAS REGISTRY NO=84315-23-1
##MOLFORM=C 9 H 6 F 2 O 2
##$NIST SOURCE=MSDC-IR
##STATE=gas
##XUNITS=1/CM
##YUNITS=ABSORBANCE
##XFACTOR=1.
##YFACTOR=0.001
##DELTAX=1.92898
##FIRSTX=549.8
##LASTX=4000.7
##FIRSTY=3.852
##MAXX=4000.7
##MINX=549.759
##MAXY=0.050432
##MINY=0
##NPOINTS=1790
##XYDATA=(X++(Y..Y))
549.759 3.852 3.712 3.702 4.382 4.662 5.412 6.382 6.432 6.432 7.202
569.049 8.302 8.242 7.632 7.242 6.942 7.162 7.962 8.662 8.852 10.052
588.339 12.392 14.802 17.112 17.762 17.262 16.192 14.242 11.462 7.402 5.112
607.628 4.192 3.402 3.232 2.952 2.562 2.492 2.452 2.402 1.942 1.662
626.918 2.032 2.092 2.402 1.942 1.562 1.832 1.712 2.052 2.102 2.032
646.208 2.292 2.452 2.702 3.582 4.312 4.342 4.872 5.482 6.072 6.622
665.498 6.192 6.082 5.852 4.852 4.462 4.072 3.622 3.262 2.972 2.492
684.787 2.442 2.262 1.842 2.142 2.012 1.982 2.262 1.992 1.482 1.642
704.077 1.822 1.512 1.572 1.542 1.402 1.312 1.402 1.772 1.622 1.532
723.367 1.972 1.902 1.792 1.822 1.832 1.812 1.942 1.872 1.462 1.342
742.657 1.242 1.482 1.552 1.362 1.322 1.582 1.832 1.532 1.462 1.622
761.947 1.602 1.792 1.772 1.662 1.922 1.642 1.392 1.812 1.832 1.602
781.236 1.622 1.502 1.302 1.1264 1.312 1.412 1.392 1.342 1.1497 1.522
800.526 1.482 0.9182 0.8682 0.814 0.6991 0.8914 1.222 1.382 1.292 1.302
819.816 1.902 2.252 2.552 2.812 2.392 2.372 2.462 2.662 3.242 4.022
839.106 4.742 5.942 7.502 8.682 9.572 10.732 12.772 13.822 12.092 10.352
858.395 9.462 8.352 6.912 5.552 4.732 3.882 3.452 2.962 2.182 2.112
877.685 2.632 2.492 2.552 2.752 2.452 2.352 1.932 1.732 2.072 2.152
896.975 2.192 2.192 2.322 2.092 2.002 2.162 1.842 2.022 2.302 2.112
916.265 2.012 2.052 2.212 2.382 2.522 2.422 2.142 2.262 2.262 2.352
935.555 2.542 2.352 2.212 2.172 2.532 2.712 2.612 3.002 3.102 2.802
954.844 2.582 2.792 3.212 3.452 3.792 4.432 5.232 5.782 6.572 7.502
974.134 8.562 9.152 9.602 10.622 10.562 9.962 10.242 10.612 10.452 10.912
993.424 11.432 11.632 11.532 10.972 10.732 10.302 9.452 8.512 7.552 5.922
1012.714 4.652 4.002 3.582 3.382 2.872 2.642 2.002 1.492 1.882 1.612
1032.003 1.482 1.942 1.442 0.9438 1.502 1.852 1.412 1.742 1.872 1.1745
1051.293 1.1226 1.922 2.252 1.792 1.752 1.982 1.932 2.092 2.452 2.712
1070.583 2.572 2.512 3.362 3.942 3.592 3.772 4.262 5.012 6.612 6.542
1089.873 5.662 5.282 5.292 6.012 7.572 8.712 9.662 11.892 14.202 17.492
1109.163 22.432 26.842 32.312 38.142 42.512 46.242 49.742 50.432 46.582 40.522
1128.452 36.382 34.202 30.032 26.582 24.172 21.032 18.622 17.782 16.982 16.192
1147.742 15.912 16.982 18.362 18.522 18.192 18.132 17.922 16.632 15.892 14.762
1167.032 12.562 10.912 9.812 8.122 6.512 5.472 4.682 4.852 5.712 5.662
1186.322 4.082 3.342 3.602 4.152 4.242 3.882 5.022 5.322 4.012 3.882
1205.611 4.702 4.842 4.812 4.562 3.622 4.162 5.032 4.912 5.022 5.092
1224.901 4.672 4.612 5.892 6.562 5.842 5.672 6.552 6.682 6.812 7.282
1244.191 7.082 7.052 7.282 7.422 7.672 8.132 8.132 8.472 9.252 9.252
1263.481 8.982 8.862 8.862 8.592 8.512 8.742 8.832 8.792 8.652 8.582
1282.771 8.662 8.802 9.292 10.242 10.462 10.332 10.502 10.602 10.662 10.512
1302.060 10.172 10.102 10.112 9.932 9.762 9.502 9.702 10.002 10.322 11.062
1321.350 12.012 13.222 14.642 16.022 17.002 17.292 16.792 15.842 14.392 12.472
1340.640 10.572 8.882 7.622 6.962 6.672 6.432 6.012 5.902 6.032 5.952
1359.930 6.032 6.092 6.182 6.252 5.952 5.732 5.492 5.072 4.402 3.862
1379.219 3.582 3.332 2.942 2.632 2.572 2.472 2.482 2.562 2.492 2.442
1398.509 2.542 2.522 2.462 2.462 2.302 2.402 2.612 2.732 2.882 3.282
1417.799 3.992 4.642 5.242 5.992 7.062 8.162 9.082 9.872 10.352 10.442
1437.089 10.472 10.242 9.902 9.822 9.492 9.012 8.792 8.582 8.252 8.062
1456.378 7.722 7.422 7.242 6.742 6.152 5.712 5.462 5.152 4.942 4.862
1475.668 4.582 4.092 3.692 3.292 2.762 2.512 2.522 2.462 2.482 2.522
1494.958 2.492 2.752 2.932 2.902 2.762 2.472 2.372 2.562 2.752 2.962
1514.248 2.922 2.692 2.572 2.482 2.452 2.392 2.222 2.202 2.232 2.332
1533.538 2.442 2.362 2.082 1.882 1.982 2.182 2.372 2.372 2.482 2.622
1552.827 2.732 2.942 3.102 3.172 3.282 3.592 4.242 4.962 5.872 6.622
1572.117 7.452 8.512 9.712 11.242 12.972 14.462 15.672 16.852 17.882 18.752
1591.407 19.522 19.952 19.832 19.662 19.102 18.542 17.972 17.262 16.812 16.552
1610.697 16.512 16.652 16.842 17.242 17.872 17.992 17.482 16.522 15.132 13.672
1629.986 12.062 10.852 10.242 10.162 10.752 11.482 12.122 12.332 12.212 11.972
1649.276 11.362 10.092 8.512 7.342 6.062 4.892 4.142 3.622 3.222 2.842
1668.566 2.682 2.592 2.602 2.652 2.612 2.772 2.882 2.902 2.902 2.992
1687.856 3.032 2.932 2.782 2.722 2.642 2.612 2.632 2.652 2.842 2.942
1707.146 3.132 3.312 3.492 3.732 4.072 4.202 4.472 5.092 5.552 5.982
1726.435 6.502 7.042 7.642 8.312 9.132 10.072 11.152 12.792 14.872 17.472
1745.725 20.572 24.092 28.032 32.062 35.732 38.842 40.952 41.132 39.182 36.312
1765.015 33.062 29.022 24.172 19.282 15.302 12.552 10.742 9.672 9.082 8.732
1784.305 8.242 7.922 7.852 7.632 7.302 6.772 6.102 5.542 5.052 4.532
1803.594 3.962 3.592 3.302 2.972 2.772 2.592 2.362 2.302 2.372 2.352
1822.884 2.332 2.272 2.252 2.232 2.172 2.222 2.162 2.042 2.022 1.982
1842.174 1.932 1.962 2.052 2.002 1.812 1.822 1.792 1.612 1.492 1.442
1861.464 1.552 1.642 1.572 1.432 1.412 1.452 1.502 1.512 1.572 1.562
1880.754 1.322 1.392 1.612 1.512 1.322 1.292 1.222 1.1393 1.1322 1.071
1900.043 1.0677 1.192 1.302 1.312 1.272 1.182 1.202 1.202 1.1762 1.192
1919.333 1.1668 1.0617 1.0607 1.242 1.182 1.0472 1.212 1.312 1.382 1.352
1938.623 1.1526 1.1486 1.192 1.1372 1.0634 1.1438 1.272 1.322 1.1112 0.9372
1957.913 1.0545 1.1402 1.212 1.0852 1.0472 1.222 1.1672 1.0269 1.0614 1.1204
1977.202 1.0733 1.0377 1.0236 0.969 0.9944 0.9804 0.9896 0.964 0.8531 0.9471
1996.492 1.0539 1.0126 0.921 0.8778 0.9966 1.0176 1.0854 1.242 1.1625 0.8869
2015.782 0.8403 0.9498 1.0586 1.0663 0.9955 0.9927 1.1021 1.192 1.1081 0.9279
2035.072 0.7453 0.9448 1.1004 1.212 1.332 1.402 1.322 1.222 1.252 1.1815
2054.362 1.0936 0.9641 0.9528 1.0866 1.1373 1.075 1.192 1.352 1.1795 1.1017
2073.651 1.212 1.1574 0.9838 0.9841 1.075 1.0146 0.9666 0.9464 0.9809 1.0657
2092.941 1.0952 1.1268 1.1121 1.1475 1.1507 1.1703 1.342 1.262 1.1761 1.1443
2112.231 1.092 1.242 1.312 1.252 1.1078 0.9906 1.0807 1.1326 0.9386 0.9263
2131.521 0.9612 1.0351 1.1108 0.9614 0.968 0.9717 0.8897 0.8831 0.9679 0.9976
2150.810 1.0409 1.0049 0.8909 0.9175 0.9326 0.8696 0.8469 0.9083 0.9424 0.9341
2170.100 0.9733 0.9244 0.9271 0.9317 0.879 1.0402 0.9455 0.7847 0.8697 1.0387
2189.390 1.0118 0.8571 0.975 1.1492 1.0901 0.9943 0.8776 0.7951 0.9031 1.0112
2208.680 1.0317 0.9255 1.0235 1.222 0.9519 0.8637 1.1108 1.352 1.322 1.252
2227.970 1.402 1.1581 1.1297 1.1238 0.9942 0.9954 0.8864 0.9805 1.1201 1.1616
2247.259 1.222 1.212 0.9876 0.9483 1.1677 1.222 1.1519 1.0574 0.9408 0.8699
2266.549 0.9969 1.0897 1.0848 1.002 0.8645 0.9292 0.8564 0.8736 0.9606 0.9574
2285.839 0.884 0.8909 0.9944 1.0369 1.0587 1.025 1.1424 1.262 1.242 1.0844
2305.129 0.9947 1.0153 1.0616 1.1092 1.1717 1.332 1.372 1.1803 1.0343 0.9951
2324.418 1.1148 0.8815 0.7119 1.0756 1.1182 1.0546 1.1282 0.9946 0.8102 0.9187
2343.708 1.1239 1.272 1.292 1.1148 1.0287 0.9113 1.0031 1.1099 0.796 1.0514
2362.998 1.222 1.0028 0.8247 0.8281 1.1319 1.0636 0.8677 0.8907 0.8264 0.9662
2382.288 1.332 1.0627 0.895 1.0271 0.8815 0.8534 0.9902 1.0577 1.1417 1.1023
2401.578 1.0488 0.9858 1.0023 1.202 0.9214 0.6918 0.8165 0.8821 1.0062 1.0884
2420.867 1.1558 1.1757 0.9482 0.9319 1.0582 1.192 1.222 1.0109 1.0129 0.9226
2440.157 0.8355 1.0399 1.0983 1.342 1.502 1.382 1.272 1.1049 0.9107 0.7812
2459.447 0.9857 1.0571 1.0518 1.1753 1.1734 1.0862 0.9959 1.0553 1.0524 1.0212
2478.737 1.1006 1.232 1.242 1.0225 0.8273 0.6098 0.8088 0.9572 0.9471 0.9786
2498.026 0.9922 1.0827 1.0173 1.0778 1.1814 1.202 0.8706 0.8658 0.9765 0.83
2517.316 1.0455 1.212 1.0086 0.8916 0.9279 0.9989 0.9445 0.6424 0.5714 0.6633
2536.606 0.9582 1.068 0.7177 0.7024 0.9567 1.0269 1.0298 1.0662 1.0727 1.0648
2555.896 1.1514 1.242 1.262 1.182 1.0326 1.0917 1.1206 1.1454 1.1595 1.182
2575.186 1.272 1.0538 0.9686 1.1271 0.9792 0.8288 0.9257 0.8987 0.9454 1.0286
2594.475 1.1132 1.0763 0.8212 0.7135 0.8054 1.0153 1.1324 1.0751 0.8973 0.8815
2613.765 0.8726 0.7113 0.7689 0.8824 1.022 0.9545 0.8361 0.8084 1.0023 1.0699
2633.055 0.8246 1.0398 1.0642 0.9598 0.7539 0.7079 0.852 0.687 0.7467 0.9557
2652.345 0.9084 0.7431 0.9858 1.1418 0.9302 0.8552 0.8491 0.717 0.7353 0.9034
2671.634 0.885 0.9256 0.9418 0.7537 0.7128 0.7165 0.6099 0.7737 0.9538 0.734
2690.924 0.6499 0.7802 0.7851 0.8156 0.6463 0.7355 0.8925 0.7856 0.9279 0.7613
2710.214 0.7857 0.8499 0.8416 0.9938 0.8823 0.9893 1.382 1.1528 0.6139 0.5312
2729.504 0.6578 1.0534 1.322 1.0047 0.8388 0.9608 0.8353 1.0531 1.372 0.882
2748.794 0.5592 0.7615 0.848 0.8291 0.5908 0.6061 0.843 0.6725 0.6697 1.0757
2768.083 0.9918 0.7741 0.8823 0.8588 0.7013 0.587 0.4967 0.6453 0.8386 0.6444
2787.373 0.4805 0.6545 0.811 0.7224 0.7886 0.852 0.5479 0.5273 0.75 0.8034
2806.663 0.8301 0.8899 1.1665 1.232 1.232 1.192 0.9727 0.7911 0.715 0.8894
2825.953 0.9742 1.0701 0.8429 0.7172 0.8259 0.8882 0.9051 0.5241 0.6018 0.6414
2845.242 0.7138 0.8817 0.8085 0.8042 0.8225 0.7714 0.4091 0.4796 0.8509 0.83
2864.532 0.7471 0.7718 0.5954 0.6309 0.7576 0.7254 0.9486 1.1334 0.9325 0.7117
2883.822 0.7532 0.9409 1.1363 0.7988 0.833 1.029 0.9157 1.1384 0.8719 0.6942
2903.112 1.0292 0.8861 0.6736 0.804 0.6671 0.5485 0.5832 0.4607 0.5068 0.6649
2922.401 0.5738 0.5907 0.8568 1.04 0.7222 0.7209 1.0344 0.8386 0.6171 0.5853
2941.691 0.8013 0.9615 1.0929 0.9646 0.744 0.9775 1.192 0.8229 0.5792 0.7096
2960.981 0.8491 0.9432 0.9782 1.0781 0.8296 0.6571 0.7599 0.6259 0.424 0.5919
2980.271 0.7749 1.0361 0.9001 0.4563 0.6355 0.821 1.352 1.422 0.8736 0.788
2999.561 0.8417 1.1396 1.0183 0.8846 0.9614 1.0351 1.0028 0.648 0.542 0.3018
3018.850 0.3985 0.7224 0.7256 0.6888 1.0667 1.242 1.0337 0.8735 0.8397 1.0047
3038.140 0.8632 0.5913 0.5739 0.7133 0.7958 0.7965 0.7573 0.7631 0.9221 0.9425
3057.430 0.8013 0.858 0.9507 1.0791 1.0596 0.8662 0.9393 1.382 1.362 1.1147
3076.720 1.121 1.322 1.362 1.242 1.0822 0.8984 0.9254 1.1114 1.222 1.0055
3096.009 0.8427 1.302 1.242 0.6899 0.737 0.5128 0.4556 0.7272 0.5828 0.7236
3115.299 1.089 0.7823 0.24245 0.27438 0.4727 0.5123 0.3657 0.3058 0.3838 0.5477
3134.589 0.8934 0.6241 0.5511 0.643 0.397 0.6389 0.8558 0.7615 0.9142 0.9101
3153.879 0.8751 0.8421 0.717 0.6907 0.5654 0.5033 0.6072 0.779 0.6356 0.5139
3173.169 0.8965 1.1235 1.0548 0.8106 0.7253 0.9173 0.8512 0.756 1.0187 1.262
3192.458 1.392 1.242 0.4961 0.5897 0.742 0.4603 0.7888 0.9305 0.5752 0.3451
3211.748 0.5415 0.8175 0.5105 0.6634 1.1453 0.9511 0.7698 0.9753 1.352 1.402
3231.038 1.1797 0.799 0.6368 0.9252 1.0254 0.7293 0.4025 0.319 0.3391 0.3941
3250.328 0.6479 0.9249 0.9526 1.0817 1.1165 0.7739 1.0335 1.1062 0.8266 0.5945
3269.617 0.3153 0.7389 1.1655 1.182 1.392 1.342 0.9981 1.142 1.382 0.8884
3288.907 0.5558 0.6376 0.6099 0.7631 0.8469 0.9081 0.6112 0.6807 1.0361 0.8044
3308.197 0.8309 0.9905 1.1772 1.0312 0.987 1.432 1.392 1.0721 0.9218 0.7807
3327.487 0.7447 0.9105 0.5943 0.4112 0.6659 0.4288 0.22483 0.666 1.0915 0.9571
3346.777 0.6775 0.5166 0.6112 0.5659 0.8304 1.342 1.252 0.8864 0.6442 0.6401
3366.066 0.6362 0.6307 0.547 0.708 0.8964 0.973 0.6533 0.22275 0.5088 0.5865
3385.356 0.801 1.173 0.922 0.9892 1.322 1.1418 0.9112 0.7158 0.6774 1.1344
3404.646 1.192 0.8128 0.7649 0.6134 0.7198 0.7978 1.0353 1.212 1.069 0.6853
3423.936 0.3695 0.7469 1.0049 0.5683 0.1652 0.4579 0.7337 0.8667 0.7134 0.6862
3443.225 0.9278 1.1046 1.0748 0.6472 0.4992 1.0539 1.0627 0.7344 0.872 1.1251
3462.515 1.0393 0.9844 0.8873 0.8367 1.0241 1.1617 1.212 1.0566 0.9831 0.9514
3481.805 1.252 1.282 1.422 1.442 1.212 1.532 1.692 1.802 1.842 1.792
3501.095 1.692 1.812 2.162 1.752 1.222 1.1324 1.0294 1.0153 1.0022 0.8538
3520.385 0.9067 1.0899 1.202 1.292 1.0482 1.312 1.442 1.212 1.562 1.242
3539.674 1.0336 1.402 1.612 1.562 1.252 1.332 1.432 1.342 1.282 1.482
3558.964 1.452 1.412 1.572 2.012 3.072 3.702 5.002 7.762 10.762 14.082
3578.254 16.952 18.422 19.032 18.392 16.362 13.252 10.032 7.512 5.432 3.792
3597.544 2.692 2.012 1.722 1.302 1.342 1.752 1.962 1.492 0.9011 1.0645
3616.833 0.7215 0.5443 1.0049 1.0671 0.7939 1.202 0.9798 0.4557 0.4901 0.6024
3636.123 1.0339 0.7324 0.5972 1.252 1.292 0.7934 0.8644 1.342 1.442 1.0778
3655.413 0.561 0.7221 0.455 0.3701 1.1092 0.8529 0.5582 0.5355 0.6092 0.7797
3674.703 0.5612 0.6666 0.738 0.5317 1.0566 1.282 0.7506 0.8603 0.7726 0.8127
3693.993 0.9162 0.5649 0.6318 0.9918 0.9132 0.4537 0.1537 0.001 0.1091 0.4083
3713.282 0.607 0.8601 1.125 0.8151 0.9592 1.242 1.232 1.692 1.582 0.9227
3732.572 0.7588 1.0045 1.0421 1.252 1.562 1.312 0.4897 0 0.3582 0.4666
3751.862 0.3902 0.4995 0.4644 0.4864 0.9336 1.192 1.322 1.262 1.292 1.192
3771.152 0.8088 0.7098 0.7914 1.292 1.652 1.472 0.9231 0.4817 0.5114 0.8781
3790.441 0.8963 0.5757 0.4622 0.4226 0.23875 0.24666 0.404 0.5879 0.6366 0.7061
3809.731 0.7181 0.6947 0.6377 0.7447 1.1147 1.262 1.1309 0.786 0.4636 0.4545
3829.021 0.9336 0.9845 0.4983 0.2838 0.543 0.7856 0.7908 0.6246 0.8019 1.292
3848.311 1.312 1.1591 1.136 0.824 0.8384 0.8918 0.6513 0.5789 1.0477 1.312
3867.601 1.292 0.8961 0.7606 0.871 0.6497 0.5226 0.4804 0.5744 0.5777 0.8204
3886.890 0.663 0.6538 0.6015 0.6996 0.7161 0.5122 0.5553 0.4963 0.6361 1.0492
3906.180 1.402 1.382 0.8816 0.7889 0.9567 0.8411 1.312 1.322 0.5441 0.3642
3925.470 0.8785 1.192 1.1708 1.065 1.105 1.0275 0.8795 0.663 0.6216 1.0201
3944.760 0.8574 0.8327 1.372 1.562 1.222 1.0268 0.7477 0.24975 0.4152 0.6476
3964.049 0.9804 0.9912 0.6914 0.9196 1.0106 0.9154 0.587 0.4701 0.1978 1.0226
3983.339 1.462 0.7063 0.6973 1.072 1.202 0.6264 0.4906 0.9097 0.8452 0.4724
##END=
