##TITLE=4-Diethylaminophenyl isothiocyanate
##JCAMP-DX=4.24
##DATA TYPE=INFRARED SPECTRUM
##ORIGIN=EPA-IR VAPOR PHASE LIBRARY
##OWNER=SRD/NIST
Collection (C) 2018 copyright by the U.S. Secretary of Commerce
on behalf of the United States of America. All rights reserved.
##CAS REGISTRY NO=84381-54-4
##MOLFORM=C11 H14 N2 S
##$NIST SOURCE=MSDC-IR
##STATE=gas
##XUNITS=1/CM
##YUNITS=ABSORBANCE
##XFACTOR=1.
##YFACTOR=0.001
##DELTAX=1.92898
##FIRSTX=549.8
##LASTX=4000.7
##FIRSTY=22.899
##MAXX=4000.7
##MINX=549.759
##MAXY=0.423599
##MINY=0
##NPOINTS=1790
##XYDATA=(X++(Y..Y))
549.759 22.899 22.239 21.709 20.499 19.579 18.669 17.349 16.639 15.949 14.739
569.049 13.779 12.999 12.149 11.779 11.329 10.719 9.979 9.279 9.059 8.729
588.339 8.379 8.239 8.179 8.369 8.409 8.359 8.469 8.609 8.609 8.379
607.628 8.009 7.609 7.129 6.529 6.019 5.429 4.919 4.629 4.529 4.229
626.918 3.769 3.689 3.679 3.599 3.679 3.729 3.549 3.559 3.709 3.569
646.208 3.619 3.869 4.049 4.079 3.929 3.849 3.769 3.699 3.739 3.709
665.498 3.819 3.799 3.879 4.049 3.899 3.819 3.919 3.959 3.879 3.709
684.787 3.599 3.579 3.649 3.509 3.229 3.279 3.399 3.419 3.379 3.289
704.077 3.329 3.459 3.579 3.599 3.609 3.859 3.969 4.039 4.399 4.929
723.367 5.859 7.099 8.749 11.129 14.209 17.839 21.339 23.729 24.709 24.069
742.657 21.549 17.789 13.979 10.719 8.559 7.229 6.049 5.149 4.599 4.449
761.947 4.499 4.409 4.499 4.619 4.719 5.109 5.579 6.039 6.629 7.369
781.236 8.269 9.409 10.589 11.769 12.909 14.269 15.669 16.929 18.259 19.869
800.526 21.949 24.529 27.839 31.879 36.189 40.589 44.879 48.029 49.539 49.259
819.816 47.129 43.959 40.109 35.549 30.929 26.559 22.499 19.179 16.489 14.359
839.106 12.769 11.469 10.399 9.589 8.919 8.219 7.549 6.969 6.529 5.949
858.395 5.479 5.099 4.829 4.749 4.549 4.209 4.119 4.289 4.269 4.419
877.685 4.609 4.839 5.139 5.339 5.769 6.359 7.039 7.719 8.409 9.189
896.975 9.819 10.429 10.949 11.149 11.269 11.529 11.799 12.149 12.649 13.289
916.265 14.109 15.019 16.119 17.609 19.369 21.349 23.569 25.849 28.049 29.929
935.555 30.889 30.949 30.319 28.909 26.849 24.389 21.839 19.479 17.339 15.479
954.844 13.779 12.329 11.229 10.319 9.439 8.659 8.229 7.839 7.339 6.849
974.134 6.609 6.519 6.329 6.079 5.939 5.809 5.719 5.839 5.999 6.309
993.424 6.679 7.249 8.049 8.969 10.209 11.699 13.339 14.779 15.619 16.339
1012.714 16.799 16.469 15.779 15.049 14.259 13.299 12.229 11.409 10.809 10.329
1032.003 9.779 9.549 9.729 9.549 9.489 9.769 9.999 10.229 10.699 11.119
1051.293 11.529 11.849 12.569 13.559 14.469 15.699 16.959 18.429 20.199 21.759
1070.583 22.849 23.939 24.849 24.629 23.529 21.809 20.219 19.469 18.839 18.539
1089.873 18.589 18.749 18.979 19.009 18.779 18.479 18.269 18.129 17.399 16.609
1109.163 16.629 16.689 16.289 15.499 15.389 15.609 15.749 16.189 16.759 17.639
1128.452 18.909 20.459 22.719 26.129 30.259 35.459 41.599 47.869 53.679 58.359
1147.742 61.049 61.019 58.339 53.449 47.529 41.149 35.509 31.089 27.769 26.339
1167.032 26.119 26.789 28.829 32.139 36.509 41.609 47.119 51.199 52.999 53.439
1186.322 52.129 48.959 45.549 42.779 40.289 37.639 34.639 31.589 28.839 26.359
1205.611 24.129 22.469 20.489 18.989 18.489 18.309 18.229 17.929 18.149 19.159
1224.901 20.459 21.639 23.169 25.049 27.249 30.339 34.059 38.289 43.049 48.629
1244.191 55.289 62.969 72.009 82.419 93.919 105.839 116.969 126.159 132.499 134.769
1263.481 132.099 124.809 113.519 99.949 85.849 72.279 60.299 50.499 42.909 37.339
1282.771 33.209 29.849 27.349 25.549 24.189 23.259 22.589 22.079 21.809 21.779
1302.060 21.849 21.989 22.259 22.619 23.009 23.499 24.099 24.729 25.339 26.079
1321.350 27.029 28.189 29.639 31.389 33.359 35.729 38.539 41.659 45.139 48.879
1340.640 52.799 56.889 61.109 65.329 69.359 72.959 75.959 78.089 79.039 78.509
1359.930 76.469 73.089 68.729 64.119 59.979 57.169 56.519 58.449 62.479 67.229
1379.219 71.189 73.109 72.579 69.609 64.679 59.069 53.779 49.089 44.849 40.939
1398.509 37.269 33.769 30.509 27.459 24.849 22.619 20.779 19.489 18.589 17.929
1417.799 17.539 17.339 17.259 17.179 17.089 16.979 16.769 16.519 16.249 15.949
1437.089 15.839 15.829 15.929 16.249 16.709 17.399 18.269 19.219 20.199 21.149
1456.378 22.079 22.929 23.699 24.349 24.979 25.679 26.319 26.989 27.669 28.289
1475.668 28.919 29.609 30.519 31.919 34.009 37.189 41.969 48.919 58.999 73.119
1494.958 92.539 119.019 153.169 194.509 240.119 283.439 317.289 333.999 329.359 304.699
1514.248 265.309 219.049 174.619 138.579 110.819 90.739 75.709 64.249 55.629 49.079
1533.538 44.149 40.489 37.579 35.059 32.859 31.009 29.369 27.829 26.449 25.239
1552.827 24.309 23.569 22.989 22.519 22.179 21.919 21.659 21.419 21.229 21.109
1572.117 21.009 20.999 21.249 21.779 22.539 23.399 24.539 26.079 27.989 30.349
1591.407 33.209 36.709 40.729 45.099 49.689 54.079 57.559 59.469 59.319 56.999
1610.697 52.829 47.279 41.189 35.339 30.299 26.249 23.179 20.809 18.909 17.379
1629.986 16.069 14.949 13.879 13.009 12.269 11.529 10.749 10.009 9.399 8.779
1649.276 8.279 7.859 7.449 7.139 6.829 6.529 6.339 6.209 5.999 5.849
1668.566 5.749 5.539 5.349 5.279 5.189 5.059 4.969 4.869 4.719 4.599
1687.856 4.419 4.269 4.159 4.019 3.979 3.959 3.909 3.849 3.729 3.699
1707.146 3.799 3.819 3.789 3.739 3.769 3.839 3.899 4.019 4.099 4.109
1726.435 4.159 4.209 4.269 4.269 4.249 4.289 4.309 4.369 4.399 4.449
1745.725 4.519 4.509 4.509 4.529 4.519 4.499 4.429 4.329 4.249 4.209
1765.015 4.199 4.229 4.209 4.199 4.249 4.309 4.369 4.389 4.449 4.459
1784.305 4.459 4.529 4.559 4.549 4.579 4.619 4.609 4.559 4.589 4.669
1803.594 4.669 4.629 4.639 4.719 4.739 4.729 4.799 4.849 4.929 4.999
1822.884 5.009 5.109 5.249 5.459 5.649 5.859 6.079 6.319 6.629 6.929
1842.174 7.239 7.649 8.139 8.609 9.099 9.559 10.039 10.449 10.729 10.999
1861.464 11.159 11.219 11.199 11.059 10.919 10.769 10.599 10.489 10.349 10.219
1880.754 10.139 10.109 10.149 10.179 10.169 10.189 10.269 10.349 10.469 10.659
1900.043 10.809 10.929 11.229 11.569 11.849 12.259 12.699 13.079 13.579 14.199
1919.333 14.799 15.429 16.199 16.979 17.829 18.769 19.819 20.979 22.159 23.439
1938.623 24.909 26.449 28.039 29.679 31.319 33.129 35.129 37.159 39.259 41.589
1957.913 44.169 46.949 49.859 52.969 56.299 59.789 63.599 67.739 72.029 76.569
1977.202 81.339 86.269 91.539 96.979 102.609 108.469 114.559 120.929 127.459 134.399
1996.492 141.829 149.529 157.629 166.239 175.299 184.819 194.779 205.139 215.949 227.199
2015.782 238.849 250.769 263.009 275.339 287.629 299.789 311.569 322.999 333.999 344.389
2035.072 354.239 363.699 372.679 381.169 389.359 397.199 404.549 411.239 416.919 421.259
2054.362 423.599 423.419 419.889 412.349 400.619 384.979 365.989 344.619 322.519 301.679
2073.651 283.149 267.719 256.139 248.619 245.209 245.719 249.879 257.209 267.079 278.819
2092.941 291.649 304.609 316.509 326.229 332.569 334.989 332.799 325.649 314.109 298.969
2112.231 281.349 262.389 243.009 224.069 206.129 189.579 174.699 161.539 150.249 140.859
2131.521 133.199 127.209 122.659 119.409 117.089 115.509 114.569 113.859 113.059 111.929
2150.810 110.349 107.999 104.779 100.699 95.859 90.469 84.839 79.349 74.159 69.289
2170.100 65.029 61.489 58.549 56.249 54.499 53.099 52.149 51.469 50.819 50.149
2189.390 49.189 47.899 46.279 44.319 42.079 39.639 37.189 34.719 32.259 29.919
2208.680 27.789 25.719 23.809 22.109 20.509 19.019 17.649 16.429 15.339 14.339
2227.970 13.409 12.569 11.879 11.359 10.819 10.339 9.929 9.459 9.079 8.809
2247.259 8.479 8.129 7.909 7.659 7.319 7.079 6.929 6.709 6.419 6.169
2266.549 5.869 5.539 5.269 4.999 4.719 4.449 4.239 4.089 3.919 3.829
2285.839 3.779 3.699 3.649 3.629 3.589 3.579 3.539 3.439 3.399 3.459
2305.129 3.459 3.419 3.369 3.319 3.339 3.299 3.349 3.389 3.299 3.289
2324.418 3.349 3.359 3.369 3.339 3.239 3.329 3.409 3.379 3.409 3.459
2343.708 3.489 3.459 3.479 3.509 3.509 3.559 3.579 3.559 3.569 3.579
2362.998 3.609 3.579 3.579 3.579 3.619 3.689 3.689 3.729 3.839 3.939
2382.288 3.909 3.909 3.939 3.989 4.049 4.109 4.099 4.099 4.189 4.149
2401.578 4.059 4.059 4.029 4.019 3.989 3.979 3.969 3.929 3.969 3.949
2420.867 3.999 4.019 4.009 4.039 4.049 4.039 4.039 4.099 4.149 4.059
2440.157 4.009 3.999 3.929 3.839 3.749 3.709 3.689 3.649 3.639 3.609
2459.447 3.539 3.539 3.579 3.559 3.479 3.469 3.619 3.669 3.699 3.819
2478.737 3.889 3.939 4.009 4.059 4.189 4.399 4.589 4.709 4.809 4.909
2498.026 5.049 5.129 5.139 5.189 5.189 5.189 5.209 5.199 5.149 5.179
2517.316 5.189 5.139 5.199 5.279 5.339 5.409 5.469 5.509 5.529 5.589
2536.606 5.609 5.589 5.559 5.559 5.609 5.589 5.589 5.559 5.579 5.649
2555.896 5.679 5.749 5.789 5.869 5.919 5.939 5.999 6.069 6.169 6.249
2575.186 6.239 6.159 6.039 5.999 5.969 5.869 5.669 5.549 5.529 5.409
2594.475 5.309 5.249 5.189 5.129 5.139 5.189 5.219 5.179 5.159 5.239
2613.765 5.369 5.439 5.419 5.399 5.419 5.469 5.529 5.529 5.429 5.499
2633.055 5.619 5.649 5.649 5.679 5.769 5.809 5.859 5.939 6.109 6.199
2652.345 6.249 6.339 6.459 6.579 6.689 6.779 6.869 6.999 7.079 7.109
2671.634 7.179 7.269 7.289 7.209 7.139 7.059 7.019 6.889 6.679 6.609
2690.924 6.469 6.429 6.359 6.169 6.069 5.959 5.909 5.899 5.779 5.639
2710.214 5.629 5.649 5.589 5.469 5.379 5.359 5.399 5.389 5.379 5.489
2729.504 5.639 5.659 5.609 5.629 5.719 5.799 5.739 5.749 5.829 5.819
2748.794 5.849 5.919 6.049 6.149 6.139 6.309 6.469 6.519 6.689 6.829
2768.083 6.889 6.959 7.099 7.269 7.519 7.789 7.949 8.149 8.499 8.769
2787.373 8.999 9.319 9.649 9.919 10.239 10.649 11.039 11.539 12.159 12.649
2806.663 13.229 13.919 14.619 15.409 16.199 16.899 17.609 18.309 18.929 19.709
2825.953 20.449 20.989 21.359 21.669 22.029 22.329 22.529 22.679 22.879 23.009
2845.242 23.179 23.289 23.339 23.549 23.759 23.999 24.199 24.419 24.699 25.049
2864.532 25.749 26.609 27.549 28.769 30.169 31.699 33.479 35.209 36.669 37.799
2883.822 38.599 38.879 38.589 37.859 36.819 35.849 35.029 34.359 33.739 33.109
2903.112 32.699 32.449 32.389 32.349 32.169 32.259 32.449 32.739 33.299 33.949
2922.401 35.079 36.729 38.619 40.949 43.859 47.249 50.939 54.579 57.869 60.419
2941.691 61.659 61.409 59.859 57.229 54.009 50.649 47.869 46.029 45.199 45.489
2960.981 46.779 49.149 52.579 57.229 62.919 69.289 76.049 82.919 89.589 95.499
2980.271 99.709 101.029 98.549 92.539 83.729 73.079 62.229 52.419 44.209 37.689
2999.561 32.489 28.459 25.279 22.699 20.609 18.939 17.499 16.309 15.379 14.509
3018.850 13.699 13.089 12.789 12.349 11.919 11.889 11.809 11.759 11.989 12.429
3038.140 12.999 13.739 14.529 15.379 16.369 17.399 18.099 18.229 17.819 16.829
3057.430 15.479 13.969 12.319 10.789 9.759 9.219 8.919 8.709 8.729 8.939
3076.720 9.229 9.609 9.879 10.279 10.549 10.549 10.759 11.019 11.129 11.149
3096.009 11.199 11.179 11.099 10.999 10.719 10.209 9.769 9.309 8.659 8.099
3115.299 7.519 7.009 6.699 6.249 5.789 5.449 5.029 4.769 4.629 4.349
3134.589 4.069 3.739 3.479 3.189 2.909 2.849 2.739 2.659 2.519 2.309
3153.879 2.229 2.129 2.139 2.179 1.969 1.719 1.719 1.689 1.599 1.569
3173.169 1.449 1.3553 1.3316 1.2689 1.1351 1.1188 1.112 1.1197 1.0983 1.1065
3192.458 1.0488 0.9263 1.0447 1.0633 0.9417 0.936 1.1173 1.1365 1.0714 1.099
3211.748 1.0322 0.9889 0.9041 0.8726 0.8258 0.7267 0.7548 0.8486 0.7534 0.5687
3231.038 0.5527 0.48859 0.5475 0.5582 0.47619 0.52 0.46235 0.40273 0.3937 0.40248
3250.328 0.40094 0.525 0.50494 0.305 0.3155 0.3341 0.211 0.279 0.42196 0.47235
3269.617 0.5757 0.47567 0.182 0.11 0.153 0.088 0.105 0.291 0.3802 0.3734
3288.907 0.3842 0.3127 0.279 0.273 0.3687 0.3806 0.215 0.081 0.144 0.27
3308.197 0.294 0.252 0.3642 0.44327 0.3263 0.3187 0.221 0.093 0.054 0.153
3327.487 0.217 0.194 0.26 0.244 0.231 0.281 0.27 0.234 0.3125 0.3699
3346.777 0.3896 0.3621 0.3133 0.28 0.18 0.134 0.163 0.14 0.063 0.041
3366.066 0.144 0.165 0.155 0.095 0.102 0.248 0.283 0.228 0.267 0.295
3385.356 0.239 0.276 0.195 0.206 0.3123 0.3761 0.3514 0.271 0.269 0.266
3404.646 0.264 0.267 0.281 0.237 0.307 0.302 0.169 0.29 0.3137 0.211
3423.936 0.261 0.285 0.153 0.108 0.15 0.203 0.221 0.126 0.05 0.057
3443.225 0.126 0.234 0.264 0.088 0.155 0.254 0.268 0.274 0.085 0.087
3462.515 0.176 0.3091 0.4559 0.27 0.212 0.176 0.079 0.219 0.301 0.219
3481.805 0.147 0.202 0.164 0.197 0.289 0.223 0.154 0.246 0.3399 0.27
3501.095 0.204 0.213 0.209 0.08 0.011 0.126 0.273 0.252 0.155 0.116
3520.385 0.07 0.125 0.06 0.024 0.12 0.17 0.188 0.184 0.112 0.013
3539.674 0.192 0.242 0.129 0.153 0.164 0.265 0.302 0.123 0.099 0.232
3558.964 0.246 0.154 0.133 0.225 0.161 0.119 0.133 0.084 0.137 0.203
3578.254 0.126 0.028 0.021 0.15 0.116 0 0.068 0.11 0.139 0.129
3597.544 0.13 0.147 0.15 0.217 0.26 0.228 0.155 0.189 0.274 0.245
3616.833 0.181 0.286 0.3539 0.244 0.227 0.146 0.188 0.218 0.124 0.075
3636.123 0.025 0.056 0.19 0.3112 0.204 0.092 0.121 0.185 0.297 0.281
3655.413 0.264 0.273 0.268 0.247 0.123 0.088 0.221 0.3322 0.301 0.3413
3674.703 0.3231 0.247 0.3292 0.50114 0.48779 0.3641 0.3159 0.3673 0.3706 0.3762
3693.993 0.41912 0.43526 0.45534 0.48726 0.46986 0.3363 0.3178 0.272 0.3443 0.47394
3713.282 0.38 0.284 0.227 0.22 0.241 0.3348 0.50473 0.4784 0.3144 0.3412
3732.572 0.46518 0.46628 0.43259 0.408759 0.43999 0.5317 0.4326 0.3738 0.3911 0.3531
3751.862 0.3382 0.43644 0.5819 0.43372 0.241 0.294 0.3835 0.48153 0.5219 0.3893
3771.152 0.45193 0.48371 0.411051 0.40252 0.3837 0.44878 0.48422 0.5445 0.42679 0.327
3790.441 0.3272 0.408004 0.49884 0.45347 0.47057 0.5133 0.3794 0.285 0.45624 0.50639
3809.731 0.5229 0.49198 0.45397 0.493 0.47109 0.5461 0.5725 0.3895 0.3685 0.391
3829.021 0.44042 0.46733 0.416178 0.45444 0.5375 0.6808 0.6449 0.6094 0.6276 0.6668
3848.311 0.6641 0.601 0.5237 0.47253 0.5597 0.6459 0.5891 0.521 0.6463 0.6279
3867.601 0.6056 0.6735 0.43601 0.3628 0.5317 0.5665 0.558 0.6119 0.7122 0.6857
3886.890 0.6394 0.6504 0.7717 0.7708 0.6938 0.8247 0.8834 0.8638 0.8002 0.704
3906.180 0.7736 0.7381 0.7543 0.8388 0.9019 0.9679 0.9131 0.7911 0.761 0.9517
3925.470 1.0325 0.9679 0.9704 0.939 1.0398 1.1743 1.151 1.2125 1.2724 1.4061
3944.760 1.3766 1.3517 1.459 1.3514 1.2365 1.1994 1.2275 1.3116 1.419 1.439
3964.049 1.489 1.629 1.569 1.669 1.689 1.579 1.709 1.869 1.789 1.739
3983.339 1.759 1.669 1.689 1.619 1.759 1.919 1.929 2.069 2.249 2.299
##END=
