##TITLE=3-Heptadecanone
##JCAMP-DX=4.24
##DATA TYPE=INFRARED SPECTRUM
##ORIGIN=EPA-IR VAPOR PHASE LIBRARY
##OWNER=SRD/NIST
Collection (C) 2018 copyright by the U.S. Secretary of Commerce
on behalf of the United States of America. All rights reserved.
##CAS REGISTRY NO=84534-29-2
##MOLFORM=C 17 H 34 O
##$NIST SOURCE=MSDC-IR
##STATE=gas
##XUNITS=1/CM
##YUNITS=ABSORBANCE
##XFACTOR=1.
##YFACTOR=0.001
##DELTAX=1.92898
##FIRSTX=549.8
##LASTX=4000.7
##FIRSTY=2.22
##MAXX=4000.7
##MINX=549.759
##MAXY=0.58898
##MINY=0.00003267
##NPOINTS=1790
##XYDATA=(X++(Y..Y))
549.759 2.22 1.42 1.63 2.41 1.7 1.13 1.36 1.4 1.42 1.4
569.049 1.73 1.59 2.15 2.72 2.34 2.57 2.54 2.13 2.63 2.67
588.339 1.41 0.7542 0.9606 1.18 0.9077 0.9523 1.38 1.34 1.43 1.44
607.628 0.6497 0.9538 1.45 1.25 1.22 0.9466 1.35 1.26 1.07 1.69
626.918 2.03 1.59 1.14 1.13 1.44 1.71 1.56 1.39 1.39 1.33
646.208 1.07 1.52 1.8 1.5 1.12 0.8057 1.34 1.48 0.934 0.6127
665.498 0.2486 0.5433 0.8046 0.8936 1.06 1.28 1.8 2.14 2.39 2.48
684.787 1.93 1.99 2.83 2.87 2.96 3.64 3.81 4.1 4.51 4.75
704.077 5.59 6.11 6.62 7.36 8.1 8.61 8.8 9 9.04 9.31
723.367 9.52 9.06 8.36 7.97 7.7 7.58 7.71 7.3 6.69 6.72
742.657 6.6 6.19 5.92 5.82 5.98 5.87 5.7 6.09 5.94 5.5
761.947 5.25 5.11 5.33 5.42 5.04 5 5.23 4.93 4.71 4.54
781.236 4.49 4.61 4.56 4.25 4.41 4.8 4.32 4.28 4.85 4.49
800.526 4.19 4.39 4.35 4.72 4.94 4.59 4.18 4.07 4.43 4.51
819.816 4.28 4.39 4.24 4.11 4.2 4.07 4.17 4.35 4.7 4.62
839.106 4.17 4.49 4.43 4.05 4.27 3.88 3.37 3.48 3.7 3.96
858.395 3.62 3.89 4.3 4.09 4 4.16 4.35 4.19 4.25 4.14
877.685 3.79 3.72 4.09 4.18 4.28 4.47 4.2 4.2 4.43 4.58
896.975 4.64 4.78 4.57 4.21 4.29 4.17 4.13 4.51 5.26 5.82
916.265 6.09 6.05 5.7 5.7 6 6.52 7.3 7.93 8.28 8.58
935.555 8.99 9.15 9.52 10.08 10.24 10.6 11.21 11.65 11.96 11.88
954.844 11.42 11.48 11.56 11.37 11.44 11.38 10.79 10.28 9.49 9.09
974.134 9.69 9.67 9.12 9.24 9.09 8.2 7.84 8.37 8.7 8.17
993.424 7.99 8.2 8.51 9.11 8.78 7.82 8.43 9.35 9.85 10.25
1012.714 10.37 10.5 10.72 10.88 11.24 11.4 11.18 11.34 11.6 11.55
1032.003 11.48 11.28 10.58 10.75 11.59 12.13 12.45 11.66 10.24 10.18
1051.293 10.69 10.6 10.7 10.24 9.56 9.51 9.56 9.15 9.53 10.39
1070.583 9.83 9.28 10.27 9.67 9 10.17 10.2 10.97 11.17 11.39
1089.873 12.93 14.53 15.79 15.54 16.61 18.47 18.87 20.25 21.6 21.59
1109.163 23.67 24.53 22.52 22.91 23.78 22.81 21.63 20.19 19.41 20.25
1128.452 21.05 20.15 18.89 19.29 19.26 17.79 17.36 18.55 19.39 19.72
1147.742 18.97 17.94 17.6 17.95 18.53 18.56 18.22 17.74 17.44 17.35
1167.032 16.76 16.51 17.24 17.45 16.28 15.52 15.37 15.44 15.45 14.14
1186.322 14.39 14.44 13.59 13.39 12.61 12.21 12.41 12.26 11.93 13.09
1205.611 13.47 12.2 11.83 11.56 11.01 9.75 8.84 9.8 9.76 8.66
1224.901 9.21 10.43 9.99 10.43 11.17 10.59 9.79 9.15 9.49 10.37
1244.191 10.61 10.4 10.83 10.5 10.09 10.8 11.86 12.15 11.66 11.63
1263.481 11.84 12.23 12.28 12.59 12.82 12.31 12.04 12.28 12.54 12.66
1282.771 13.07 13.35 13.36 13.58 14.06 14.22 14.34 14.79 15.4 16.17
1302.060 16.76 17.18 17.46 18.18 18.7 18.77 19.13 19.6 20.23 20.63
1321.350 21.05 21.79 22.42 23.28 24.5 25.67 26.87 28.55 30.51 32.25
1340.640 34.11 36.1 37.82 39.29 40.66 41.43 41.64 41.36 40.61 39.62
1359.930 38.42 36.84 34.9 32.93 31.19 29.59 27.85 26.48 25.43 24.34
1379.219 23.68 23.28 22.63 21.65 20.39 19.06 17.97 17.03 16.19 15.72
1398.509 15.66 15.67 15.74 16.14 16.58 17.06 17.76 18.53 19.36 20.18
1417.799 20.8 21.2 21.73 22.15 22.3 22.63 23.18 23.99 24.76 25.71
1437.089 27.12 28.78 30.55 32.59 34.99 37.5 40.35 43.22 46.01 48.84
1456.378 51.61 53.86 55.21 55.43 54.19 51.77 48.37 43.88 38.65 33.69
1475.668 29.32 25.34 21.84 18.92 16.82 15.16 13.78 12.26 10.95 10.23
1494.958 9.59 8.82 8.17 7.63 7.09 6.59 6.2 6.04 5.87 5.56
1514.248 5.28 5.05 4.71 4.3 4.29 4.13 3.86 3.96 4.01 3.85
1533.538 3.63 3.5 3.22 3.29 3.39 3.19 3.2 2.99 2.78 2.83
1552.827 2.82 2.82 2.71 2.85 2.87 2.62 2.59 2.43 2.56 2.49
1572.117 2.35 2.73 2.65 2.49 2.64 2.33 2.11 2.4 2.43 2.28
1591.407 2.24 2.38 2.56 2.43 2.41 2.53 2.55 2.55 2.53 2.66
1610.697 2.81 2.78 2.7 2.59 2.66 2.74 2.8 2.93 3.03 3.02
1629.986 2.82 2.96 2.93 2.68 3 3.32 3.48 3.54 3.52 3.46
1649.276 3.64 3.86 3.97 4.1 4.3 4.5 4.62 4.77 5.19 5.67
1668.566 5.86 6.28 6.87 7.49 8.27 8.99 9.77 10.69 11.76 13.2
1687.856 14.63 16.14 18.1 20.21 22.59 25.53 28.75 32.32 36.3 41.2
1707.146 46.6 52.27 58.76 65.91 73.48 81.79 90.29 98.15 105.26 110.63
1726.435 113.23 112.63 108.57 101.67 92.41 82.41 72.53 63.04 54.89 47.44
1745.725 40.79 35.29 30.76 26.77 23.36 20.42 17.78 15.53 13.81 12.34
1765.015 10.87 9.71 8.67 7.68 6.83 6.21 5.7 5.15 4.75 4.61
1784.305 4.27 3.92 3.71 3.43 3.27 3.14 2.96 2.72 2.66 2.56
1803.594 2.45 2.37 2.13 2.19 2.15 2.12 2.13 2.02 1.98 1.86
1822.884 1.73 1.74 1.89 1.85 1.68 1.6 1.56 1.69 1.65 1.59
1842.174 1.57 1.5 1.78 1.79 1.69 1.66 1.56 1.42 1.42 1.37
1861.464 1.4 1.35 1.18 1.21 1.25 1.32 1.29 1.32 1.25 1.28
1880.754 1.36 1.25 1.2 1.12 1.18 1.41 1.5 1.36 1.2 1.32
1900.043 1.43 1.31 1.19 1.13 1.2 1.31 1.34 1.29 1.2 1.14
1919.333 1.1 1.14 1.16 1.24 1.21 1.07 1.1 1.18 1.13 1.25
1938.623 1.34 1.19 1.04 0.9685 1.19 1.13 1.11 1.26 1.15 1.19
1957.913 1.22 1.27 1.31 1.21 1.14 1.16 1.15 1.15 1.33 1.41
1977.202 1.37 1.49 1.57 1.51 1.39 1.17 1.1 1.22 1.41 1.49
1996.492 1.38 1.4 1.37 1.25 1.28 1.32 1.32 1.41 1.44 1.31
2015.782 1.31 1.47 1.49 1.54 1.7 1.84 1.79 1.74 1.83 1.9
2035.072 2.09 2.06 1.82 1.81 1.83 1.8 1.86 1.81 1.67 1.67
2054.362 1.68 1.67 1.73 1.6 1.53 1.67 1.68 1.59 1.62 1.58
2073.651 1.39 1.49 1.74 1.58 1.38 1.35 1.53 1.51 1.38 1.54
2092.941 1.44 1.2 1.24 1.28 1.41 1.55 1.46 1.45 1.44 1.47
2112.231 1.45 1.4 1.41 1.43 1.37 1.27 1.57 1.72 1.5 1.41
2131.521 1.39 1.48 1.66 1.53 1.49 1.49 1.45 1.53 1.52 1.61
2150.810 1.53 1.33 1.42 1.55 1.52 1.51 1.45 1.53 1.51 1.44
2170.100 1.44 1.41 1.42 1.46 1.53 1.62 1.65 1.47 1.42 1.57
2189.390 1.64 1.59 1.6 1.55 1.44 1.45 1.69 1.67 1.7 1.79
2208.680 1.52 1.39 1.52 1.46 1.3 1.29 1.36 1.36 1.38 1.43
2227.970 1.37 1.29 1.39 1.5 1.51 1.45 1.3 1.46 1.56 1.38
2247.259 1.38 1.4 1.43 1.28 1.17 1.38 1.58 1.53 1.4 1.47
2266.549 1.5 1.48 1.72 1.66 1.3 1.46 1.75 1.64 1.54 1.58
2285.839 1.43 1.43 1.63 1.62 1.55 1.8 1.73 1.45 1.62 1.69
2305.129 1.59 1.56 1.7 1.86 1.59 1.55 1.82 1.8 1.63 1.45
2324.418 1.59 1.58 1.52 1.62 1.65 1.75 1.78 1.76 1.87 1.93
2343.708 1.65 1.79 1.93 1.8 1.78 1.54 1.62 1.82 1.73 1.63
2362.998 1.63 1.51 1.52 1.71 1.88 1.98 1.91 1.62 1.65 1.88
2382.288 1.9 1.87 1.69 1.54 1.65 1.77 1.76 1.69 1.69 1.8
2401.578 1.75 1.69 1.79 1.9 1.8 1.72 1.86 1.91 1.76 1.56
2420.867 1.53 1.4 1.48 1.66 1.58 1.66 1.9 1.92 1.75 1.7
2440.157 1.78 1.7 1.83 2.02 1.65 1.44 1.61 1.71 1.65 1.78
2459.447 1.88 1.74 1.64 1.54 1.53 1.69 1.93 1.88 1.81 1.93
2478.737 2.05 1.99 1.77 1.7 1.55 1.6 1.9 1.79 1.58 1.64
2498.026 1.78 1.79 1.7 1.67 1.8 1.94 2.06 2.14 2.08 2.22
2517.316 2.21 2.32 2.73 2.71 2.56 2.76 2.68 2.6 2.61 2.55
2536.606 2.61 2.38 2.44 2.62 2.55 2.52 2.75 2.51 2.52 2.68
2555.896 2.41 2.57 2.55 2.45 2.54 2.81 2.77 2.6 2.8 2.79
2575.186 2.74 2.91 3.02 3.06 3.05 2.88 2.92 2.98 2.98 3.08
2594.475 3.17 3.19 3.36 3.57 3.56 3.59 3.65 3.75 3.77 4.07
2613.765 4.24 3.97 3.81 3.73 3.98 4.19 4.08 4.26 4.43 4.19
2633.055 3.95 4.12 4.34 4.63 4.81 4.76 4.85 5.01 5.26 5.21
2652.345 5.18 5.38 5.69 5.85 5.83 5.92 5.83 5.71 5.65 5.68
2671.634 5.83 6.08 6.33 6.47 6.47 6.26 6.31 6.69 6.81 6.73
2690.924 6.68 6.52 6.34 6.34 5.98 5.81 6.12 6.29 6.22 6.2
2710.214 6.22 5.88 5.59 5.67 5.9 5.99 6.1 6.36 6.73 6.65
2729.504 6.45 6.37 6.46 6.83 7.04 7.36 7.59 7.51 7.55 7.59
2748.794 7.58 7.66 7.8 7.82 7.8 7.96 8.33 8.38 8.39 8.32
2768.083 8.21 8.79 9.47 9.69 9.44 9.6 10.01 10.8 11.19 11.23
2787.373 11.92 12.32 12.57 13.08 13.65 14.39 15.27 15.93 16.6 16.91
2806.663 17.59 18.55 19.54 20.97 22.03 23 24.26 25.64 27.17 28.36
2825.953 29.31 31.14 33.07 35.25 38.13 40.92 44.21 48.42 54.04 61.21
2845.242 69.94 80.42 93.85 111.15 131.79 154.91 178.12 198.37 212.99 220.04
2864.532 218.53 210.67 198.82 185.1 171.69 159.46 149.45 142.2 137.39 133.06
2883.822 130.49 129.89 129.06 129.34 131.49 135.13 140.43 147.1 155.19 164.54
2903.112 175.32 188.36 202.99 218.66 235.59 254.58 276.9 303.2 334.56 371.66
2922.401 414.28 460.87 507.85 548.96 576.71 588.98 583.54 562.55 530.39 491.24
2941.691 449.85 408.17 368.87 332.89 300.7 272.49 248.09 228.23 212.87 201.17
2960.981 193.02 187.27 181.48 175.16 168.1 158.89 147.49 135.85 125.03 115.34
2980.271 107.45 100.31 92.85 85.82 79.1 72.33 65.94 60.18 55.24 50.75
2999.561 46.12 42.36 39.29 35.99 33.29 31.24 29.44 27.59 26.01 24.13
3018.850 22.79 21.7 19.79 19.03 18.24 16.99 16.52 15.64 14.67 14.78
3038.140 14.36 13.45 12.74 12.29 12.17 11.35 10.96 10.54 10 10.06
3057.430 9.79 8.94 8.83 8.68 8.2 8.36 8.37 7.46 6.74 7.08
3076.720 6.94 6.98 7.19 6.97 6.85 6.48 6.45 6.66 6.43 6.36
3096.009 6.25 5.84 5.55 5.44 5.18 4.9 5.18 4.89 4.36 4.91
3115.299 4.96 4.61 4.57 4.46 4.59 4.58 4.9 5.19 4.91 4.4
3134.589 4.32 4.5 4.42 4.22 3.86 3.91 3.71 3.49 3.71 3.85
3153.879 3.8 3.6 3.25 2.79 3.34 3.71 3.4 3.42 3.42 3.52
3173.169 3.18 3.06 3.58 3.6 3.63 3.56 3.3 2.98 3 3.3
3192.458 3.22 2.89 2.53 2.22 1.93 1.91 2.29 2.3 2.01 2.08
3211.748 2.21 2.8 2.81 2.06 2.34 2.7 2.29 2.18 1.99 1.34
3231.038 1.42 2.09 2.02 1.78 1.75 1.71 1.91 2.03 1.99 1.78
3250.328 1.44 1.54 1.67 1.55 1.79 1.98 1.67 1.51 1.39 1.28
3269.617 0.8749 0.7443 0.9152 1.18 1.55 1.12 0.9672 0.9972 1.05 1.28
3288.907 1.29 1.59 1.81 1.4 1.56 1.74 1.26 1.08 0.971 1.27
3308.197 1.3 1.12 1.26 1.31 1.35 1.35 0.9414 1.2 1.56 1.15
3327.487 1.33 1.58 1.47 0.9871 1.09 1.42 1.22 1.29 1.45 1.45
3346.777 1.33 1.42 1.57 1.52 1.57 1.55 1.48 1.46 1.24 1.24
3366.066 1.47 1.44 1.52 2.01 1.96 1.18 1.22 1.33 1.09 1.05
3385.356 1.41 1.81 1.75 1.85 1.73 1.45 1.61 1.6 1.25 1.31
3404.646 2.02 2.54 2.46 2.63 2.76 2.45 1.99 2.16 3.06 3.36
3423.936 3.28 3.27 3.21 2.78 2.53 3.3 3.69 3.67 3.41 2.98
3443.225 2.97 2.87 2.37 2.2 2.25 1.83 1.4 1.43 1.7 1.78
3462.515 1.95 1.72 1.48 1.53 1.67 1.98 1.9 1.27 0.8707 1.1
3481.805 0.8427 0.7269 0.5821 0.2459 1.1 1.63 1.42 1.07 0.9388 1.24
3501.095 1.56 1.07 0.8477 1.4 1.33 1.02 1.2 1.1 0.4668 0.4443
3520.385 0.6798 0.6534 0.5729 0.4538 0.08201 0.4282 1.2 0.8274 0.1914 0.5262
3539.674 1.09 1.1 1.23 1.25 0.5627 0.03267 0.2232 0.8366 0.9323 0.9676
3558.964 0.9606 0.9509 1.05 1.08 0.8732 0.7573 0.6849 0.618 0.8425 1.12
3578.254 1.41 1.35 1.35 1.41 1.2 1.02 1.1 1.1 1.09 1.13
3597.544 1.2 1.36 1.3 0.9724 0.945 1.37 1.8 1.56 1.94 2.17
3616.833 1.71 1.34 0.9214 1.39 2.37 2.34 1.43 1.26 1.25 1.16
3636.123 1.35 1.18 1.24 1.3 0.9836 0.7635 1.06 1.72 1.8 1.27
3655.413 1.3 1.7 1.44 1.6 1.54 1.26 1.48 0.8833 1.12 1.84
3674.703 1.4 1.29 1.47 1.51 1.87 1.89 1.67 1.64 1.46 1.31
3693.993 1.36 1.77 1.77 1.23 1.3 1.32 1.12 1.3 1.44 1.57
3713.282 1.55 1.45 1.25 0.9094 0.9586 1.51 1.66 1.56 1.34 1.55
3732.572 1.75 1.72 1.69 1.36 1.05 1.26 1.39 1.3 1.49 1.32
3751.862 1.19 1.34 1.79 1.55 1.14 1.28 1.42 1.58 1.26 0.5466
3771.152 0.8274 1.84 1.79 1.56 1.16 0.7266 1.5 1.88 1.61 1.49
3790.441 1.24 1.44 1.28 1.06 1.46 1.37 1.15 1.26 1.49 1.81
3809.731 1.58 1.45 1.55 1.46 1.59 1.37 1.25 1.18 1.32 1.8
3829.021 2.01 1.49 0.9573 1.12 1.11 1.37 1.64 1.86 1.96 1.43
3848.311 1.11 1.26 1.51 1.09 1.13 1.09 0.6051 0.84 1.61 2.11
3867.601 2.27 1.79 0.9958 1.21 1.5 1.28 1.43 1.77 1.64 1.26
3886.890 1.43 1.53 1.26 1.53 1.5 0.7012 0.9659 1.92 1.54 1.49
3906.180 1.76 1.83 2.25 2.04 1.77 1.73 1.95 1.71 1.44 2.05
3925.470 2.36 2.48 2.22 1.82 1.89 1.56 1.3 1.55 1.58 1.9
3944.760 1.9 1.71 2.04 2.39 2.32 2.11 1.75 2.11 2.46 1.9
3964.049 1.43 1.51 1.92 2.04 2.35 2.47 2.24 2.15 1.93 2.12
3983.339 2.26 2.36 2.6 2.39 2.2 2.2 1.96 1.7 2.53 2.97
##END=
