##TITLE=2,4-Dimethyl-3-pentanol acetate
##JCAMP-DX=4.24
##DATA TYPE=INFRARED SPECTRUM
##ORIGIN=NIST Mass Spectrometry Data Center
##OWNER=NIST Standard Reference Data Program
Collection (C) 2018 copyright by the U.S. Secretary of Commerce
on behalf of the United States of America. All rights reserved.
##CAS REGISTRY NO=84612-74-8
##MOLFORM=C 9 H 18 O 2
##$NIST SOURCE=MSDC-IR
##SPECTROMETER/DATA SYSTEM=HP-GC/MS/IRD
##STATE=gas
##XUNITS=1/CM
##YUNITS=ABSORBANCE
##XFACTOR=1.0
##YFACTOR=0.000005800
##DELTAX=4.0
##FIRSTX=550.0
##LASTX=3846.0
##FIRSTY=0.000203
##MAXX=3846
##MINX=550
##MAXY=0.058
##MINY=0
##NPOINTS=825
##XYDATA=(X++(Y..Y))
550.0 35 27 14 12 27 37 36 58 82 97
590.0 116 131 161 203 241 271 281 269 239 208
630.0 196 202 199 180 151 116 93 77 60 32
670.0 25 33 38 32 23 20 19 21 25 24
710.0 17 17 13 11 9 10 10 8 20 28
750.0 21 13 14 20 28 25 20 23 28 35
790.0 31 30 40 43 44 51 58 65 60 62
830.0 62 63 71 77 84 87 85 86 91 101
870.0 120 150 197 254 313 352 356 337 304 268
910.0 246 227 225 236 251 280 314 362 449 585
950.0 771 992 1222 1396 1471 1445 1341 1208 1119 1130
990.0 1222 1347 1484 1630 1784 1938 2052 2057 1912 1641
1030.0 1303 990 768 628 555 520 505 510 523 537
1070.0 563 594 620 658 699 744 792 805 773 706
1110.0 625 566 538 543 572 585 570 527 471 424
1150.0 399 394 394 395 405 432 467 502 543 590
1190.0 649 733 869 1084 1404 1878 2553 3494 4778 6409
1230.0 8147 9493 10000 9389 7730 5484 3465 2190 1492 1097
1270.0 857 700 588 511 457 419 388 366 357 351
1310.0 346 336 323 307 289 277 281 307 359 455
1350.0 611 849 1183 1576 1969 2287 2401 2251 1957 1648
1390.0 1381 1167 966 769 589 456 378 344 334 335
1430.0 347 363 382 416 467 531 612 705 805 886
1470.0 918 890 808 677 537 415 327 267 228 206
1510.0 197 189 180 172 166 160 148 137 136 136
1550.0 131 122 116 115 112 113 116 117 123 124
1590.0 124 127 129 128 126 119 112 107 105 102
1630.0 99 99 100 103 103 99 102 110 116 122
1670.0 129 142 162 182 211 249 286 323 366 408
1710.0 451 495 543 609 733 947 1334 1996 2967 4068
1750.0 5108 5820 5491 4363 3196 2101 1305 879 663 538
1790.0 458 402 373 356 343 325 302 277 248 219
1830.0 194 171 150 133 118 109 104 97 90 84
1870.0 80 75 69 67 65 62 66 69 70 68
1910.0 68 68 64 59 52 47 39 34 32 29
1950.0 27 24 24 28 28 27 27 25 23 19
1990.0 19 22 22 21 21 17 16 16 13 13
2030.0 14 12 9 10 11 9 11 13 14 15
2070.0 15 13 15 18 23 25 23 25 33 41
2110.0 44 47 54 58 56 54 50 45 40 34
2150.0 26 22 22 19 18 18 16 15 15 14
2190.0 14 15 15 16 16 17 19 17 14 12
2230.0 16 14 15 19 19 18 18 17 17 16
2270.0 14 13 13 13 8 11 15 13 12 12
2310.0 12 14 12 9 5 2 0 4 3 2
2350.0 4 8 3 0 0 5 9 14 14 13
2390.0 11 12 15 14 14 16 13 12 17 19
2430.0 17 16 17 22 27 25 28 32 35 32
2470.0 28 25 24 20 15 12 12 11 8 8
2510.0 8 8 9 10 12 10 7 7 9 9
2550.0 11 14 13 15 18 17 15 15 14 18
2590.0 22 25 27 28 27 26 28 29 28 28
2630.0 30 32 29 29 30 33 33 32 33 33
2670.0 32 31 34 37 35 37 36 37 39 40
2710.0 41 46 56 67 75 86 92 85 83 83
2750.0 76 71 74 75 76 80 78 80 82 84
2790.0 86 92 91 98 106 111 119 127 136 148
2830.0 155 163 177 189 208 236 272 314 374 475
2870.0 629 841 1077 1289 1420 1442 1389 1321 1303 1339
2910.0 1421 1520 1604 1681 1780 1931 2139 2365 2536 2585
2950.0 2571 2652 2991 3613 4389 5045 5193 4758 3949 2994
2990.0 2138 1499 1061 775 590 472 398 347 312 295
3030.0 281 262 251 238 218 204 193 185 174 162
3070.0 158 152 148 144 138 131 125 120 118 113
3110.0 108 108 104 100 95 87 84 86 86 84
3150.0 82 78 76 74 73 67 60 60 60 55
3190.0 62 65 59 57 55 49 45 41 43 41
3230.0 32 28 26 23 19 22 24 19 16 17
3270.0 20 20 21 19 18 19 20 21 21 21
3310.0 19 14 11 9 10 9 8 14 14 9
3350.0 10 10 16 18 12 14 13 12 14 14
3390.0 16 21 23 23 18 15 16 18 20 24
3430.0 18 16 22 23 23 23 22 27 35 41
3470.0 44 49 56 65 69 73 73 63 56 53
3510.0 45 35 25 22 26 25 16 21 28 24
3550.0 24 24 22 17 16 13 10 10 3 2
3590.0 7 11 12 10 6 4 6 8 8 6
3630.0 7 11 9 5 4 1 4 11 11 4
3670.0 2 4 9 11 8 8 10 2 0 0
3710.0 0 6 10 12 13 12 12 13 15 6
3750.0 1 6 16 18 14 13 18 25 19 12
3790.0 14 14 12 12 13 19 21 16 16 21
3830.0 20 15 16 22 22
##END=
