##TITLE=1-(-2-Pyridylazo)-2-naphthol
##JCAMP-DX=4.24
##DATA TYPE=INFRARED SPECTRUM
##ORIGIN=NIST Mass Spectrometry Data Center
##OWNER=NIST Standard Reference Data Program
Collection (C) 2018 copyright by the U.S. Secretary of Commerce
on behalf of the United States of America. All rights reserved.
##CAS REGISTRY NO=85-85-8
##MOLFORM=C 15 H 11 N 3 O
##$NIST SOURCE=MSDC-IR
##SPECTROMETER/DATA SYSTEM=HP-GC/MS/IRD
##STATE=gas
##XUNITS=1/CM
##YUNITS=ABSORBANCE
##XFACTOR=1.0
##YFACTOR=0.000002300
##DELTAX=4.0
##FIRSTX=550.0
##LASTX=3846.0
##FIRSTY=0.000299
##MAXX=3846
##MINX=550
##MAXY=0.023
##MINY=0
##NPOINTS=825
##XYDATA=(X++(Y..Y))
550.0 130 185 157 120 53 19 24 17 44 96
590.0 96 58 32 39 25 14 22 58 134 165
630.0 122 74 40 26 47 68 67 76 94 113
670.0 133 149 192 216 165 114 119 151 157 178
710.0 234 318 444 596 670 693 789 1016 1381 1869
750.0 2197 2023 1562 1193 1086 1110 1096 926 692 530
790.0 431 342 273 256 259 254 253 281 360 476
830.0 671 929 1196 1296 1149 1010 1018 1039 1001 898
870.0 760 594 404 245 140 95 83 84 66 36
910.0 28 36 37 12 16 15 7 43 72 79
950.0 79 81 102 106 117 165 224 328 539 839
990.0 943 693 344 160 94 51 40 71 123 122
1030.0 104 156 186 213 205 163 168 185 184 175
1070.0 224 287 399 599 747 782 739 703 693 646
1110.0 567 521 547 687 965 1342 1705 1929 1875 1567
1150.0 1315 1272 1270 1198 1198 1375 1719 2159 2708 3516
1190.0 4559 5590 6059 5543 4373 3376 3103 3427 3795 3748
1230.0 3229 2555 2072 1900 1989 2236 2441 2419 2143 1768
1270.0 1430 1214 1112 1088 1151 1290 1397 1321 1116 975
1310.0 921 862 773 698 631 581 541 490 443 418
1350.0 408 412 425 433 429 440 473 526 612 727
1390.0 891 1101 1343 1562 1713 1817 1939 2134 2467 3073
1430.0 4091 5187 5369 4214 2727 1968 1769 1671 1695 2010
1470.0 2508 2950 3287 3616 4141 5036 6418 8170 9666 10000
1510.0 8850 6889 5010 3581 2619 2014 1655 1458 1340 1294
1550.0 1330 1423 1564 1808 2233 2733 2965 2820 2635 2647
1590.0 2596 2217 1685 1329 1217 1242 1323 1477 1701 1951
1630.0 2076 1943 1561 1119 800 618 484 375 306 252
1670.0 215 198 189 179 169 161 165 170 164 159
1710.0 158 164 169 166 167 173 178 157 125 102
1750.0 89 72 68 77 69 62 62 52 52 48
1790.0 45 44 45 57 70 80 85 83 72 61
1830.0 65 74 78 89 90 83 68 53 44 39
1870.0 32 29 36 42 49 55 49 47 60 74
1910.0 88 97 97 84 69 70 72 75 83 81
1950.0 83 86 74 61 49 36 28 27 22 24
1990.0 34 36 36 21 19 20 15 18 15 11
2030.0 12 15 19 18 17 13 14 23 24 17
2070.0 8 7 10 12 15 14 12 13 18 18
2110.0 17 25 34 28 16 22 23 16 21 20
2150.0 11 11 22 24 23 32 31 27 24 27
2190.0 26 13 9 14 17 23 16 13 18 11
2230.0 18 20 11 10 13 11 6 12 11 11
2270.0 16 11 7 20 42 43 23 8 5 10
2310.0 14 24 28 27 23 25 27 33 31 31
2350.0 44 43 36 34 43 40 39 43 35 30
2390.0 36 42 31 26 26 21 14 16 23 30
2430.0 47 46 44 53 53 52 44 47 53 51
2470.0 46 39 41 40 39 42 38 40 48 46
2510.0 35 37 41 36 43 48 41 40 35 23
2550.0 25 27 26 20 22 30 38 34 36 37
2590.0 29 34 47 41 32 30 35 34 28 36
2630.0 47 48 49 49 33 25 30 44 50 53
2670.0 48 36 37 44 44 44 43 49 63 53
2710.0 41 50 44 28 19 16 23 32 48 55
2750.0 50 53 40 30 50 48 30 21 21 38
2790.0 46 35 25 18 20 28 14 0 7 24
2830.0 24 25 21 15 23 23 35 32 14 23
2870.0 38 22 20 28 25 10 9 42 39 26
2910.0 48 60 65 54 37 43 63 68 55 61
2950.0 78 93 83 67 64 72 94 109 119 118
2990.0 123 127 133 154 172 224 284 332 389 456
3030.0 516 575 641 710 749 752 776 844 940 1027
3070.0 1052 1012 941 838 670 502 395 345 306 262
3110.0 219 172 151 136 118 106 110 94 100 109
3150.0 97 83 94 113 96 100 109 100 89 96
3190.0 100 84 74 73 72 66 65 69 69 64
3230.0 48 46 51 51 52 57 57 44 39 40
3270.0 37 39 41 48 42 29 28 33 32 38
3310.0 35 27 22 7 6 18 42 39 10 25
3350.0 28 20 37 41 31 24 15 35 48 21
3390.0 5 35 67 44 29 26 18 43 37 16
3430.0 11 11 18 27 33 33 33 34 37 48
3470.0 44 36 18 19 36 24 25 34 42 30
3510.0 21 43 48 49 56 60 71 62 54 35
3550.0 25 23 27 48 49 43 38 35 38 38
3590.0 32 23 34 42 47 61 52 50 38 40
3630.0 48 32 42 65 80 54 33 39 29 27
3670.0 42 64 65 42 39 58 55 66 73 63
3710.0 44 22 39 52 45 54 61 46 47 76
3750.0 91 93 76 85 96 72 65 84 78 58
3790.0 57 60 46 52 46 63 104 89 72 78
3830.0 96 106 87 49 42
##END=
