##TITLE=Methyl 3-amino-4-methylthiophene-2-carboxylate
##JCAMP-DX=4.24
##DATA TYPE=INFRARED SPECTRUM
##ORIGIN=EPA-IR VAPOR PHASE LIBRARY
##OWNER=SRD/NIST
Collection (C) 2018 copyright by the U.S. Secretary of Commerce
on behalf of the United States of America. All rights reserved.
##CAS REGISTRY NO=85006-31-1
##MOLFORM=C 7 H 9 N O 2 S
##$NIST SOURCE=MSDC-IR
##STATE=gas
##XUNITS=1/CM
##YUNITS=ABSORBANCE
##XFACTOR=1.
##YFACTOR=0.001
##DELTAX=1.92934
##FIRSTX=549.9
##LASTX=3999.5
##FIRSTY=1.5187
##MAXX=3999.53
##MINX=549.863
##MAXY=0.020282
##MINY=0
##NPOINTS=1789
##XYDATA=(X++(Y..Y))
549.863 1.5187 1.5759 1.6222 1.3756 1.286 1.1887 1.1905 1.1663 1.1289 1.1452
569.156 0.94892 1.0112 0.9873 0.8008 0.742 0.712 0.87244 0.8365 0.8184 0.89737
588.450 0.96837 0.9398 0.7945 0.88639 0.97541 0.9991 1.1296 1.2041 1.1416 0.91841
607.743 0.8227 0.92014 0.9468 0.87875 0.8408 0.8437 0.8229 0.8405 0.778 0.768
627.037 0.779 0.704 0.724 0.752 0.741 0.76 0.7958 0.7831 0.753 0.693
646.330 0.7 0.8236 0.882388 0.8093 0.8212 0.90395 0.8044 0.762 0.8291 0.8451
665.624 0.89948 0.851 0.7855 0.887884 1.0004 0.91928 0.766 0.7887 0.8084 0.8407
684.917 0.93237 1.0314 1.0459 0.97894 0.9953 1.0401 1.0059 0.886542 0.8339 0.8386
704.210 0.8156 0.8559 0.9298 0.9044 0.92257 0.9277 0.885086 0.92784 0.91769 0.90144
723.504 0.98113 1.0293 1.0159 0.9865 0.91481 0.8649 0.90783 0.98058 0.9881 0.92664
742.797 0.92402 0.97303 1.0146 1.0913 1.0999 1.1379 1.178 1.1936 1.2401 1.2712
762.091 1.3638 1.5565 1.7673 1.922 2.112 2.322 2.612 2.902 3.162 3.322
781.384 3.442 3.592 3.722 3.672 3.332 2.872 2.632 2.422 2.102 1.882
800.678 1.7217 1.5508 1.3306 1.266 1.2314 1.0553 0.9947 1.0382 1.0365 1.0352
819.971 1.0596 1.0555 1.0267 0.9766 1.023 1.1632 1.1061 1.0463 1.1584 1.3079
839.264 1.2888 1.2549 1.2838 1.3382 1.3503 1.3059 1.3978 1.4585 1.5746 1.7294
858.558 1.825 1.8535 1.7357 1.7193 1.8673 1.902 1.8086 1.6873 1.5804 1.4353
877.851 1.1956 1.0911 1.0582 0.95776 0.889931 0.8422 0.763 0.7891 0.8554 0.8453
897.145 0.7909 0.77 0.7867 0.762 0.765 0.775 0.7904 0.756 0.722 0.734
916.438 0.7921 0.8385 0.782 0.746 0.769 0.792 0.8155 0.7862 0.8067 0.8274
935.732 0.829 0.769 0.677 0.731 0.721 0.673 0.69 0.654 0.626 0.641
955.025 0.649 0.621 0.645 0.729 0.743 0.744 0.7823 0.8433 0.87391 0.9203
974.318 0.98105 1.0375 1.068 1.0703 1.1474 1.1911 1.2237 1.2828 1.2398 1.2149
993.612 1.2538 1.2293 1.2077 1.1793 1.1141 1.0815 1.054 1.0581 1.0582 1.0111
1012.905 0.98012 0.9985 0.96563 0.9282 0.94814 0.91319 0.8653 0.889949 0.95981 0.95411
1032.199 0.93786 0.96628 1.0186 1.064 1.1074 1.2033 1.2833 1.3288 1.3901 1.5232
1051.492 1.6918 1.8591 2.092 2.392 2.682 2.912 3.222 3.552 3.772 3.842
1070.786 3.852 3.792 3.602 3.352 3.052 2.772 2.462 2.132 1.8746 1.727
1090.079 1.5505 1.4153 1.3932 1.4671 1.6678 1.731 1.8115 1.952 2.062 2.332
1109.372 2.692 3.112 3.662 4.242 4.842 5.532 6.252 6.912 7.602 8.142
1128.666 8.372 8.532 8.522 8.322 7.992 7.432 6.612 5.792 5.142 4.482
1147.959 3.782 3.312 2.922 2.612 2.422 2.332 2.122 1.8567 1.8078 1.7873
1167.253 1.874 1.972 1.942 1.8279 1.6881 1.7558 1.8709 2.052 2.222 2.202
1186.546 2.192 2.262 2.222 2.242 2.412 2.412 2.292 1.932 1.7323 1.8572
1205.840 1.8578 1.982 2.182 2.142 2.242 2.592 2.802 2.972 3.592 4.052
1225.133 4.452 5.112 5.492 5.692 5.662 5.712 5.492 4.902 4.362 3.822
1244.426 3.272 2.732 2.242 1.8488 1.5903 1.4716 1.4263 1.446 1.4278 1.5079
1263.720 1.7314 1.8037 1.8128 2.042 2.352 2.632 3.122 3.752 4.582 5.592
1283.013 6.652 8.012 9.712 11.572 13.472 15.342 17.192 18.712 19.722 20.282
1302.307 20.172 19.502 18.372 16.682 14.522 12.352 10.262 8.272 6.562 5.182
1321.600 4.132 3.332 2.802 2.462 2.142 1.8458 1.6361 1.5176 1.4257 1.4169
1340.894 1.362 1.2559 1.2036 1.1614 1.1151 1.0957 1.0814 1.0648 1.0552 1.0032
1360.187 1.0133 1.0765 1.0267 0.97253 0.9951 0.9913 0.9994 1.0711 1.1472 1.2221
1379.480 1.2989 1.289 1.2664 1.3174 1.3357 1.3142 1.2836 1.2625 1.1879 1.1249
1398.774 1.2085 1.3006 1.3696 1.4611 1.585 1.6999 1.7641 1.8341 1.972 2.082
1418.067 2.122 2.162 2.312 2.472 2.522 2.622 2.822 3.112 3.522 3.922
1437.361 4.332 4.742 5.072 5.352 5.562 5.702 5.722 5.632 5.592 5.712
1456.654 5.942 6.272 6.692 7.202 7.752 8.242 8.492 8.452 8.192 7.772
1475.948 7.212 6.492 5.622 4.702 3.872 3.152 2.582 2.222 2.012 1.8699
1495.241 1.7812 1.6413 1.5347 1.5187 1.4479 1.3911 1.395 1.3376 1.2726 1.2039
1514.534 1.1096 1.1418 1.1691 1.141 1.1514 1.186 1.2315 1.2571 1.2851 1.3346
1533.828 1.4567 1.6434 1.8378 2.052 2.282 2.532 2.822 3.162 3.462 3.652
1553.121 3.732 3.722 3.702 3.722 3.622 3.342 3.052 2.782 2.572 2.412
1572.415 2.292 2.242 2.242 2.302 2.292 2.302 2.392 2.562 2.742 2.962
1591.708 3.322 3.692 4.062 4.532 5.062 5.622 6.152 6.692 7.132 7.402
1611.002 7.502 7.492 7.402 7.162 6.752 6.192 5.592 4.942 4.302 3.722
1630.295 3.212 2.832 2.602 2.352 2.102 1.952 1.8026 1.7187 1.6287 1.5941
1649.588 1.5393 1.4964 1.55 1.5605 1.518 1.4967 1.5588 1.6207 1.6513 1.6961
1668.882 1.8242 1.982 2.162 2.352 2.642 3.092 3.572 4.192 5.062 6.062
1688.175 7.162 8.482 9.882 11.032 11.852 12.302 12.482 12.512 12.342 11.672
1707.469 10.482 9.022 7.592 6.472 5.702 5.252 4.942 4.732 4.592 4.402
1726.762 4.202 4.062 3.852 3.492 3.012 2.532 2.152 1.7879 1.5409 1.3976
1746.056 1.2351 1.174 1.1506 1.0665 0.9971 0.92201 0.92149 0.94761 0.97579 0.995
1765.349 0.9605 0.93337 0.89293 0.87435 0.90092 0.88087 0.8159 0.8194 0.883598 0.87261
1784.642 0.857 0.8664 0.8394 0.8321 0.8382 0.8365 0.8154 0.8282 0.8706 0.846
1803.936 0.859 0.89601 0.889733 0.862 0.8427 0.7932 0.765 0.7948 0.8111 0.8051
1823.229 0.8 0.8369 0.8475 0.8569 0.8219 0.7896 0.7877 0.743 0.747 0.754
1842.523 0.719 0.718 0.742 0.734 0.703 0.68 0.667 0.654 0.651 0.666
1861.816 0.667 0.663 0.667 0.627 0.579 0.591 0.611 0.621 0.623 0.632
1881.110 0.636 0.621 0.654 0.652 0.607 0.581 0.615 0.691 0.728 0.721
1900.403 0.672 0.663 0.687 0.696 0.674 0.675 0.676 0.639 0.664 0.661
1919.696 0.592 0.612 0.643 0.629 0.644 0.625 0.598 0.595 0.586 0.613
1938.990 0.658 0.651 0.621 0.628 0.618 0.614 0.638 0.654 0.672 0.663
1958.283 0.69 0.701 0.669 0.623 0.594 0.645 0.659 0.629 0.637 0.638
1977.577 0.674 0.684 0.648 0.637 0.7 0.737 0.673 0.641 0.672 0.698
1996.870 0.675 0.666 0.679 0.654 0.623 0.644 0.683 0.696 0.649 0.599
2016.164 0.632 0.664 0.691 0.715 0.698 0.671 0.688 0.721 0.696 0.698
2035.457 0.702 0.704 0.714 0.736 0.719 0.647 0.652 0.679 0.695 0.685
2054.750 0.719 0.75 0.711 0.696 0.717 0.737 0.678 0.623 0.679 0.721
2074.044 0.709 0.727 0.724 0.733 0.744 0.719 0.753 0.749 0.692 0.695
2093.337 0.695 0.694 0.708 0.706 0.698 0.701 0.689 0.697 0.722 0.719
2112.631 0.738 0.757 0.715 0.684 0.683 0.701 0.699 0.691 0.68 0.667
2131.924 0.689 0.699 0.728 0.749 0.734 0.699 0.67 0.684 0.705 0.726
2151.218 0.738 0.734 0.741 0.705 0.676 0.725 0.727 0.688 0.702 0.721
2170.511 0.737 0.743 0.729 0.737 0.757 0.741 0.703 0.743 0.778 0.708
2189.804 0.685 0.701 0.691 0.736 0.757 0.719 0.69 0.686 0.686 0.655
2209.098 0.617 0.63 0.666 0.679 0.684 0.709 0.719 0.702 0.697 0.731
2228.391 0.719 0.666 0.68 0.688 0.684 0.664 0.644 0.66 0.65 0.638
2247.685 0.715 0.732 0.705 0.707 0.708 0.696 0.679 0.7 0.712 0.722
2266.978 0.751 0.755 0.756 0.766 0.736 0.691 0.677 0.691 0.696 0.668
2286.272 0.638 0.664 0.728 0.735 0.698 0.671 0.674 0.719 0.719 0.702
2305.565 0.737 0.693 0.638 0.66 0.691 0.673 0.63 0.671 0.697 0.672
2324.858 0.688 0.736 0.708 0.687 0.711 0.684 0.668 0.65 0.663 0.692
2344.152 0.676 0.7 0.747 0.723 0.704 0.692 0.668 0.723 0.767 0.747
2363.445 0.707 0.681 0.669 0.682 0.689 0.688 0.707 0.761 0.743 0.664
2382.739 0.656 0.678 0.662 0.626 0.675 0.713 0.708 0.704 0.692 0.685
2402.032 0.692 0.704 0.692 0.685 0.629 0.585 0.611 0.648 0.66 0.698
2421.326 0.76 0.749 0.734 0.695 0.655 0.688 0.641 0.617 0.658 0.667
2440.619 0.674 0.635 0.643 0.646 0.655 0.712 0.683 0.644 0.649 0.661
2459.912 0.687 0.714 0.672 0.653 0.638 0.604 0.634 0.667 0.699 0.697
2479.206 0.649 0.617 0.655 0.675 0.65 0.638 0.683 0.702 0.696 0.693
2498.499 0.707 0.727 0.726 0.736 0.736 0.715 0.653 0.688 0.704 0.688
2517.793 0.718 0.724 0.713 0.707 0.756 0.72 0.656 0.656 0.697 0.774
2537.086 0.746 0.72 0.72 0.654 0.663 0.701 0.709 0.709 0.686 0.7
2556.380 0.711 0.669 0.704 0.741 0.715 0.71 0.68 0.689 0.763 0.72
2575.673 0.715 0.7894 0.745 0.657 0.66 0.723 0.701 0.663 0.708 0.72
2594.966 0.749 0.7843 0.732 0.72 0.739 0.713 0.641 0.658 0.679 0.686
2614.260 0.744 0.71 0.664 0.666 0.689 0.693 0.669 0.616 0.676 0.721
2633.553 0.689 0.654 0.648 0.715 0.719 0.75 0.74 0.694 0.637 0.614
2652.847 0.672 0.695 0.664 0.625 0.616 0.611 0.672 0.748 0.745 0.683
2672.140 0.66 0.746 0.771 0.733 0.74 0.724 0.719 0.71 0.656 0.638
2691.434 0.662 0.666 0.682 0.676 0.698 0.682 0.668 0.664 0.693 0.762
2710.727 0.732 0.651 0.639 0.733 0.761 0.749 0.7887 0.737 0.673 0.75
2730.020 0.7904 0.759 0.726 0.712 0.677 0.663 0.724 0.745 0.717 0.737
2749.314 0.76 0.732 0.698 0.737 0.779 0.753 0.757 0.7913 0.88032 0.8809
2768.607 0.794 0.738 0.682 0.672 0.712 0.73 0.739 0.765 0.776 0.687
2787.901 0.638 0.715 0.714 0.678 0.727 0.768 0.69 0.699 0.711 0.706
2807.194 0.713 0.705 0.753 0.764 0.743 0.8113 0.8477 0.8581 0.9331 0.97282
2826.488 0.9914 0.92492 0.93321 1.0161 1.02 1.0254 1.0712 1.1222 1.1731 1.1077
2845.781 1.1699 1.309 1.2873 1.2709 1.2891 1.278 1.3073 1.329 1.3249 1.3536
2865.074 1.3644 1.3594 1.4387 1.5129 1.4363 1.5337 1.5937 1.4854 1.4948 1.4463
2884.368 1.3762 1.4588 1.5103 1.4809 1.4732 1.4761 1.3857 1.3244 1.4613 1.6316
2903.661 1.6261 1.5439 1.5721 1.6107 1.6237 1.6196 1.677 1.7969 1.892 1.922
2922.955 1.912 1.952 1.932 1.952 2.002 2.102 2.212 2.182 2.162 2.152
2942.248 2.152 2.302 2.452 2.512 2.712 2.932 3.112 3.322 3.462 3.442
2961.542 3.372 3.202 2.992 2.872 2.572 2.282 2.082 1.8454 1.7892 1.7952
2980.835 1.7987 1.8256 1.8538 1.8183 1.666 1.6272 1.6415 1.5366 1.4251 1.3326
3000.128 1.3763 1.3403 1.2429 1.3852 1.4196 1.3724 1.2364 1.0853 1.1612 1.238
3019.422 1.1669 1.1141 1.0766 0.9965 1.0527 1.1108 1.143 1.0664 0.92458 1.0628
3038.715 1.0634 0.94238 0.93303 0.9408 0.889125 0.8136 0.87779 0.89918 0.87784 0.743
3058.009 0.592 0.711 0.87203 0.91553 0.90588 0.771 0.603 0.624 0.734 0.890462
3077.302 0.8528 0.8205 0.8481 0.776 0.772 0.73 0.762 0.778 0.627 0.599
3096.596 0.682 0.679 0.702 0.656 0.628 0.62 0.614 0.62 0.589 0.537
3115.889 0.478 0.644 0.64 0.518 0.502 0.45 0.496 0.549 0.549 0.616
3135.182 0.704 0.594 0.616 0.569 0.494 0.464 0.424 0.481 0.415 0.576
3154.476 0.554 0.31 0.373 0.543 0.513 0.431 0.452 0.44 0.531 0.558
3173.769 0.44 0.421 0.424 0.447 0.402 0.407 0.372 0.303 0.382 0.362
3193.063 0.243 0.185 0.239 0.241 0.223 0.266 0.216 0.201 0.335 0.38
3212.356 0.251 0.331 0.4 0.333 0.375 0.375 0.307 0.216 0.242 0.354
3231.650 0.364 0.369 0.48 0.432 0.329 0.32 0.381 0.474 0.432 0.288
3250.943 0.355 0.387 0.371 0.381 0.284 0.349 0.397 0.337 0.362 0.337
3270.236 0.128 0.12 0.275 0.382 0.4 0.282 0.306 0.413 0.314 0.239
3289.530 0.226 0.187 0.363 0.436 0.26 0.293 0.413 0.432 0.336 0.238
3308.823 0.281 0.222 0.033 0 0.319 0.4 0.208 0.255 0.279 0.171
3328.117 0.143 0.235 0.316 0.352 0.364 0.363 0.43 0.526 0.398 0.182
3347.410 0.299 0.526 0.372 0.43 0.68 0.562 0.595 0.7862 0.90968 1.1634
3366.704 1.2973 1.4832 1.7279 1.7602 1.8356 1.932 1.922 1.902 1.837 1.7049
3385.997 1.595 1.4116 1.1952 1.112 1.0608 0.8156 0.62 0.736 0.8377 0.706
3405.290 0.564 0.48 0.548 0.508 0.435 0.444 0.3 0.243 0.337 0.395
3424.584 0.38 0.202 0.234 0.414 0.413 0.295 0.097 0.122 0.28 0.258
3443.877 0.153 0.238 0.283 0.294 0.37 0.309 0.303 0.302 0.316 0.468
3463.171 0.418 0.423 0.454 0.4 0.549 0.701 0.755 0.76 0.8492 0.8357
3482.464 0.8149 0.8092 0.94112 1.2705 1.4024 1.4584 1.6551 1.8221 1.7151 1.5427
3501.758 1.5993 1.7177 1.7782 1.5754 1.3362 1.2909 1.151 1.0273 0.93091 0.762
3521.051 0.757 0.734 0.579 0.633 0.733 0.577 0.366 0.315 0.36 0.447
3540.344 0.488 0.409 0.358 0.386 0.307 0.303 0.396 0.338 0.324 0.399
3559.638 0.34 0.284 0.332 0.299 0.229 0.25 0.239 0.339 0.381 0.272
3578.931 0.29 0.303 0.302 0.452 0.474 0.362 0.349 0.399 0.469 0.43
3598.225 0.349 0.292 0.32 0.397 0.424 0.356 0.232 0.296 0.352 0.297
3617.518 0.396 0.428 0.458 0.508 0.416 0.389 0.475 0.503 0.465 0.421
3636.812 0.362 0.292 0.215 0.354 0.472 0.505 0.506 0.447 0.405 0.397
3656.105 0.404 0.397 0.443 0.377 0.271 0.351 0.403 0.403 0.372 0.355
3675.398 0.501 0.577 0.452 0.378 0.332 0.323 0.348 0.382 0.496 0.517
3694.692 0.436 0.401 0.478 0.492 0.488 0.439 0.54 0.607 0.433 0.386
3713.985 0.483 0.482 0.371 0.36 0.347 0.318 0.423 0.471 0.438 0.465
3733.279 0.433 0.439 0.367 0.422 0.531 0.532 0.551 0.536 0.487 0.458
3752.572 0.506 0.548 0.52 0.358 0.344 0.403 0.389 0.391 0.385 0.324
3771.866 0.344 0.391 0.381 0.428 0.484 0.473 0.455 0.452 0.461 0.493
3791.159 0.456 0.424 0.398 0.358 0.332 0.412 0.58 0.563 0.438 0.453
3810.452 0.391 0.339 0.402 0.464 0.506 0.499 0.436 0.399 0.495 0.529
3829.746 0.505 0.472 0.528 0.671 0.574 0.5 0.579 0.604 0.53 0.415
3849.039 0.421 0.435 0.529 0.554 0.47 0.488 0.57 0.55 0.506 0.52
3868.333 0.542 0.536 0.54 0.559 0.611 0.639 0.488 0.477 0.606 0.664
3887.626 0.629 0.722 0.697 0.522 0.482 0.475 0.593 0.66 0.558 0.457
3906.920 0.501 0.552 0.581 0.553 0.495 0.565 0.6 0.582 0.588 0.59
3926.213 0.552 0.562 0.59 0.539 0.509 0.498 0.516 0.562 0.629 0.695
3945.506 0.662 0.604 0.604 0.601 0.564 0.478 0.474 0.524 0.543 0.592
3964.800 0.573 0.466 0.392 0.47 0.591 0.511 0.483 0.515 0.448 0.464
3984.093 0.617 0.643 0.566 0.558 0.627 0.527 0.357 0.438 0.609
##END=
