##TITLE=4-Iodopentylbenzene
##JCAMP-DX=4.24
##DATA TYPE=INFRARED SPECTRUM
##ORIGIN=EPA-IR VAPOR PHASE LIBRARY
##OWNER=SRD/NIST
Collection (C) 2018 copyright by the U.S. Secretary of Commerce
on behalf of the United States of America. All rights reserved.
##CAS REGISTRY NO=85017-60-3
##MOLFORM=C 11 H 15 I
##$NIST SOURCE=MSDC-IR
##STATE=gas
##XUNITS=1/CM
##YUNITS=ABSORBANCE
##XFACTOR=1.
##YFACTOR=0.001
##DELTAX=1.92898
##FIRSTX=549.8
##LASTX=4000.7
##FIRSTY=0.974
##MAXX=4000.7
##MINX=549.759
##MAXY=0.101159
##MINY=0
##NPOINTS=1790
##XYDATA=(X++(Y..Y))
549.759 0.974 0.8139 0.8218 0.9722 0.7753 0.7671 0.5882 0.21524 0.21106 0.3788
569.049 0.6839 0.8093 0.8387 1.169 1.409 1.449 1.949 2.759 3.049 3.059
588.339 3.129 3.009 2.629 2.169 1.799 1.439 1.289 1.399 1.329 1.269
607.628 1.259 1.439 1.909 2.399 2.589 2.639 2.649 2.499 2.289 1.859
626.918 1.519 1.259 1.1019 0.9424 0.7305 0.7504 0.8282 0.7657 0.6352 0.574
646.208 0.5605 0.6622 0.7419 0.6803 0.6355 0.4595 0.3582 0.5439 0.7091 0.7435
665.498 0.87 1.0205 0.8442 0.6783 0.7568 0.7137 0.6821 0.763 0.7165 0.6197
684.787 0.5361 0.5356 0.7072 0.8164 0.853 0.9362 1.0777 1.359 1.659 1.909
704.077 2.139 2.289 2.259 2.079 1.989 2.169 2.149 1.869 1.929 2.039
723.367 1.939 2.039 2.159 2.239 2.429 2.529 2.519 2.609 2.579 2.709
742.657 3.059 3.289 3.419 3.799 4.139 4.389 4.919 5.549 5.929 5.959
761.947 6.169 6.469 6.639 6.849 7.139 7.569 8.059 8.809 9.609 10.229
781.236 11.079 11.859 12.569 13.299 13.849 14.049 14.029 14.059 13.889 13.669
800.526 13.399 13.029 12.669 12.269 12.049 12.179 12.459 12.709 12.969 13.189
819.816 13.299 13.379 13.259 12.759 12.149 11.459 10.509 9.439 8.249 7.179
839.106 6.569 5.919 5.309 4.869 4.369 3.979 3.629 3.499 3.299 3.069
858.395 2.799 2.389 2.369 2.359 2.109 1.869 1.789 1.769 1.739 1.759
877.685 1.789 1.819 1.629 1.659 1.779 1.679 1.649 1.609 1.489 1.359
896.975 1.309 1.349 1.319 1.399 1.469 1.289 1.199 1.199 1.149 1.199
916.265 1.062 0.9973 1.129 1.219 1.189 1.179 1.279 1.509 1.759 1.879
935.555 2.009 2.099 1.959 1.919 2.129 2.049 1.989 1.969 1.809 1.749
954.844 1.709 1.759 1.789 1.839 1.859 1.729 1.779 1.799 1.989 2.179
974.134 2.189 2.339 2.279 2.299 2.389 2.319 2.329 2.749 3.589 4.469
993.424 5.529 7.119 9.619 14.199 22.139 34.129 46.859 53.559 53.449 47.029
1012.714 32.859 18.469 10.229 6.069 4.429 3.779 3.109 2.809 2.389 1.989
1032.003 1.839 1.429 1.469 1.689 1.889 2.039 1.869 2.069 2.509 3.169
1051.293 3.989 5.229 7.399 10.379 13.259 15.259 16.209 15.119 11.849 8.199
1070.583 5.899 4.429 3.559 3.349 2.939 2.629 2.159 2.179 2.499 2.349
1089.873 2.199 2.429 2.529 2.469 2.459 2.519 2.909 3.129 3.399 3.609
1109.163 3.689 3.899 3.799 3.619 3.659 3.579 3.309 2.899 2.399 1.989
1128.452 2.019 2.039 1.519 0.9321 1.149 1.149 0.9541 1.169 1.169 0.9281
1147.742 0.7775 0.8504 0.9512 1.209 1.149 1.119 1.219 1.1106 1.339 1.469
1167.032 1.299 1.499 1.809 2.069 2.249 2.739 3.139 3.119 3.399 3.909
1186.322 4.399 5.069 5.769 6.249 6.549 6.629 6.499 5.849 5.109 4.389
1205.611 3.549 3.009 2.639 2.689 2.919 3.229 3.589 3.819 4.239 4.399
1224.901 4.319 4.119 3.639 2.999 2.429 1.999 1.739 1.759 1.709 1.459
1244.191 1.379 1.479 1.429 1.279 1.199 1.279 1.529 1.539 1.389 1.529
1263.481 1.599 1.369 1.279 1.369 1.469 1.389 1.399 1.519 1.779 1.929
1282.771 1.849 1.899 2.009 2.089 2.209 2.169 2.219 2.479 2.619 2.749
1302.060 2.769 2.719 2.819 2.849 2.839 2.769 2.669 2.729 2.779 2.839
1321.350 2.899 2.999 3.169 3.379 3.609 3.849 4.089 4.239 4.309 4.379
1340.640 4.439 4.559 4.649 4.609 4.509 4.419 4.349 4.239 4.139 4.129
1359.930 4.109 4.079 4.019 4.119 4.259 4.239 4.209 4.329 4.589 4.949
1379.219 5.459 5.959 6.449 6.859 7.169 7.389 7.519 7.659 7.809 7.879
1398.509 7.869 7.749 7.499 7.109 6.679 6.169 5.599 5.129 4.729 4.409
1417.799 4.209 4.039 3.959 3.969 4.069 4.219 4.429 4.689 4.959 5.399
1437.089 5.979 6.619 7.339 8.059 8.789 9.529 10.299 10.989 11.589 12.239
1456.378 12.819 13.369 13.949 14.429 14.839 15.389 16.109 17.119 18.609 20.939
1475.668 24.349 29.209 35.779 43.349 49.739 52.349 50.029 43.409 33.639 23.379
1494.958 15.709 11.139 8.379 6.599 5.469 4.669 3.989 3.499 3.179 2.879
1514.248 2.689 2.439 2.239 2.089 1.919 1.789 1.679 1.619 1.519 1.449
1533.538 1.429 1.329 1.269 1.209 1.169 1.129 1.0701 1.085 1.1035 1.0759
1552.827 1.0892 1.1166 1.1181 1.1092 1.0816 1.105 1.169 1.219 1.249 1.329
1572.117 1.389 1.509 1.609 1.669 1.779 2.069 2.289 2.329 2.409 2.369
1591.407 2.309 2.179 2.019 1.909 1.819 1.759 1.689 1.619 1.649 1.659
1610.697 1.629 1.619 1.579 1.509 1.479 1.469 1.499 1.529 1.439 1.439
1629.986 1.459 1.389 1.429 1.529 1.559 1.489 1.379 1.439 1.479 1.429
1649.276 1.409 1.329 1.219 1.189 1.189 1.0755 1.0241 1.0026 0.8945 0.8672
1668.566 0.8594 0.7811 0.7178 0.6956 0.6398 0.6428 0.6967 0.6593 0.6574 0.6389
1687.856 0.6108 0.6164 0.6138 0.554 0.482 0.5416 0.5134 0.445 0.4774 0.5042
1707.146 0.4786 0.4662 0.4559 0.4963 0.5257 0.4945 0.4779 0.4793 0.508 0.4897
1726.435 0.461 0.5041 0.5548 0.5678 0.5655 0.5694 0.6343 0.5959 0.5598 0.6044
1745.725 0.6678 0.7141 0.7111 0.7091 0.6869 0.7618 0.7978 0.7735 0.8393 0.9576
1765.015 1.0895 1.249 1.519 1.739 1.869 1.999 2.019 1.869 1.579 1.239
1784.305 0.9489 0.7344 0.6246 0.5857 0.5036 0.4424 0.4537 0.4618 0.4613 0.4783
1803.594 0.4494 0.3945 0.3361 0.315 0.398 0.4001 0.3703 0.3735 0.3271 0.3585
1822.884 0.4357 0.3774 0.36 0.4105 0.408 0.383 0.336 0.3248 0.3704 0.4058
1842.174 0.3987 0.4257 0.4185 0.4173 0.4943 0.5208 0.4956 0.4912 0.5234 0.5636
1861.464 0.6284 0.7102 0.7721 0.863 0.9414 0.9815 1.129 1.339 1.489 1.659
1880.754 1.809 1.969 2.099 2.199 2.339 2.409 2.369 2.309 2.179 1.959
1900.043 1.759 1.549 1.319 1.159 1.0546 0.9063 0.7613 0.6804 0.6757 0.6465
1919.333 0.5994 0.5771 0.5599 0.5252 0.4787 0.4495 0.4174 0.4236 0.4376 0.3767
1938.623 0.3399 0.3642 0.4215 0.4644 0.4735 0.4875 0.4409 0.3863 0.4103 0.3886
1957.913 0.3938 0.3914 0.336 0.3441 0.347 0.3737 0.3962 0.3077 0.2767 0.3333
1977.202 0.3323 0.3332 0.3478 0.372 0.3677 0.3004 0.3202 0.3595 0.3203 0.2571
1996.492 0.2679 0.334 0.3471 0.3678 0.3839 0.4031 0.4116 0.4351 0.4425 0.4228
2015.782 0.4222 0.425 0.4277 0.4299 0.3993 0.3924 0.4821 0.488 0.4386 0.4305
2035.072 0.4203 0.4137 0.4511 0.5099 0.497 0.4674 0.4016 0.3946 0.4471 0.4242
2054.362 0.4468 0.4963 0.4711 0.4843 0.4801 0.4895 0.6072 0.609 0.5828 0.5608
2073.651 0.475 0.4169 0.3967 0.3787 0.4089 0.3756 0.3165 0.2942 0.241 0.2763
2092.941 0.3474 0.3653 0.3844 0.4186 0.397 0.4038 0.419 0.41 0.4304 0.4172
2112.231 0.405 0.4163 0.4296 0.4658 0.4831 0.5076 0.5175 0.4396 0.4357 0.4808
2131.521 0.4782 0.4502 0.4176 0.4391 0.4812 0.4326 0.4076 0.4414 0.3322 0.2842
2150.810 0.3513 0.3778 0.4066 0.4078 0.4288 0.4444 0.4264 0.3928 0.3799 0.4098
2170.100 0.4449 0.4765 0.4594 0.3441 0.3558 0.4141 0.3702 0.4002 0.364 0.3387
2189.390 0.3619 0.3399 0.3549 0.312 0.2918 0.3713 0.4481 0.4295 0.3483 0.3685
2208.680 0.42 0.4216 0.3932 0.3729 0.344 0.3786 0.4087 0.3795 0.3958 0.4454
2227.970 0.4593 0.4579 0.4746 0.4505 0.4241 0.4563 0.5115 0.5372 0.5188 0.5067
2247.259 0.5422 0.5165 0.4512 0.4263 0.4784 0.5007 0.429 0.4041 0.4828 0.5852
2266.549 0.5845 0.563 0.5156 0.4918 0.5304 0.5396 0.5863 0.5916 0.6061 0.587
2285.839 0.5696 0.585 0.5957 0.6419 0.6262 0.6322 0.6812 0.7194 0.7271 0.726
2305.129 0.6946 0.6481 0.6199 0.5975 0.6118 0.5678 0.5505 0.5079 0.4629 0.4691
2324.418 0.4577 0.5253 0.4998 0.4697 0.4784 0.4005 0.3893 0.458 0.4827 0.4844
2343.708 0.4504 0.4229 0.4596 0.4889 0.4835 0.4449 0.4978 0.5021 0.4577 0.4897
2362.998 0.5417 0.5911 0.5436 0.4616 0.5138 0.6442 0.6954 0.7161 0.6635 0.6188
2382.288 0.6668 0.6534 0.6131 0.5594 0.5085 0.4877 0.4765 0.4939 0.4514 0.4505
2401.578 0.5227 0.5569 0.5046 0.5175 0.549 0.4832 0.4808 0.5156 0.5288 0.473
2420.867 0.5154 0.5712 0.5088 0.4938 0.4959 0.5144 0.5549 0.6089 0.532 0.4866
2440.157 0.4595 0.4551 0.4959 0.4308 0.4913 0.5977 0.582 0.4786 0.4362 0.4908
2459.447 0.4613 0.4657 0.5216 0.5038 0.5036 0.4909 0.5292 0.5527 0.5526 0.5037
2478.737 0.4481 0.5067 0.4789 0.4003 0.41 0.437 0.4684 0.4942 0.407 0.4029
2498.026 0.4619 0.4871 0.551 0.5232 0.4905 0.474 0.4139 0.4991 0.5904 0.5011
2517.316 0.4648 0.5343 0.5625 0.6 0.6119 0.6609 0.7324 0.7046 0.7162 0.7634
2536.606 0.8241 0.8962 0.8121 0.7551 0.7981 0.8161 0.8264 0.8042 0.8326 0.8141
2555.896 0.7513 0.7346 0.7335 0.792 0.8175 0.8431 0.8852 0.9331 0.9703 0.9109
2575.186 0.8788 0.8754 0.96 1.0637 1.0238 1.0165 1.0801 1.0589 1.0082 0.9676
2594.475 1.0154 1.0544 0.9774 0.9376 0.967 0.8998 0.8153 0.8192 0.8514 0.8401
2613.765 0.8116 0.8612 0.8866 0.8655 0.8613 0.8178 0.8175 0.931 0.9946 1.0035
2633.055 1.0486 1.1021 1.0684 1.0673 1.139 1.219 1.179 1.129 1.209 1.259
2652.345 1.259 1.209 1.189 1.309 1.359 1.219 1.179 1.209 1.229 1.269
2671.634 1.269 1.269 1.279 1.229 1.279 1.319 1.189 1.179 1.229 1.189
2690.924 1.209 1.199 1.139 1.119 1.129 1.1086 1.0977 1.1061 1.0813 1.108
2710.214 1.159 1.129 1.1133 1.149 1.139 1.139 1.159 1.159 1.219 1.259
2729.504 1.289 1.419 1.489 1.499 1.559 1.679 1.709 1.639 1.649 1.749
2748.794 1.709 1.659 1.699 1.659 1.639 1.649 1.629 1.609 1.679 1.759
2768.083 1.839 1.909 1.809 1.899 1.999 1.889 1.929 2.029 2.219 2.379
2787.373 2.359 2.389 2.569 2.689 2.709 2.809 2.909 2.989 3.119 3.209
2806.663 3.199 3.309 3.559 3.769 3.869 4.089 4.299 4.429 4.629 4.839
2825.953 5.089 5.389 5.659 6.059 6.599 7.049 7.499 8.179 9.039 9.969
2845.242 11.039 12.429 14.209 16.369 18.799 21.609 24.739 27.899 30.909 33.509
2864.532 35.579 36.989 37.449 37.189 36.499 35.419 34.349 33.339 32.619 32.039
2883.822 31.279 30.339 29.149 27.709 26.409 25.479 24.979 24.829 25.079 25.889
2903.112 26.999 28.289 29.969 32.119 34.489 37.219 40.549 44.509 48.989 54.229
2922.401 60.399 67.019 73.969 81.239 88.129 93.989 98.409 100.989 101.159 98.919
2941.691 94.609 88.539 81.309 73.589 66.549 60.649 56.239 53.529 52.389 52.449
2960.981 53.449 55.109 56.919 58.299 58.319 56.639 53.149 47.939 41.729 35.539
2980.271 30.169 25.749 22.179 19.289 17.019 15.259 13.789 12.599 11.699 10.889
2999.561 10.169 9.649 9.309 9.049 8.949 9.119 9.359 9.699 10.269 10.989
3018.850 11.779 12.729 13.589 14.079 14.099 13.529 12.679 11.909 11.289 10.649
3038.140 10.229 9.979 9.509 9.039 8.659 8.299 7.899 7.529 7.249 7.159
3057.430 7.259 7.289 7.319 7.279 7.429 7.559 7.539 7.689 7.979 8.309
3076.720 8.569 8.649 8.699 8.479 7.959 7.499 6.919 6.339 5.739 5.059
3096.009 4.349 3.809 3.329 2.779 2.609 2.459 2.259 2.119 1.879 1.749
3115.299 1.749 1.659 1.549 1.409 1.239 1.229 1.259 1.149 1.1004 1.129
3134.589 1.179 1.259 1.209 1.0691 1.0941 1.239 1.159 1.1021 1.119 1.129
3153.879 1.0662 0.9709 0.9417 0.9831 1.0025 1.0017 0.9258 0.8279 0.8657 0.9289
3173.169 0.9505 0.9826 0.9519 0.9158 0.874 0.8175 0.8224 0.807 0.7396 0.7041
3192.458 0.7516 0.7811 0.6846 0.7033 0.6905 0.6894 0.7885 0.8333 0.8343 0.7286
3211.748 0.8605 0.9193 0.684 0.551 0.5425 0.433 0.4127 0.5518 0.5074 0.3086
3231.038 0.4121 0.6271 0.6082 0.5379 0.4558 0.398 0.41 0.3763 0.3711 0.4032
3250.328 0.4107 0.3843 0.3026 0.3559 0.4123 0.4497 0.4501 0.4237 0.5387 0.5439
3269.617 0.3023 0.20889 0.2725 0.3351 0.4349 0.3893 0.3622 0.4262 0.3377 0.3276
3288.907 0.318 0.2783 0.2576 0.228 0.4633 0.4227 0.2503 0.2574 0.3288 0.4385
3308.197 0.2446 0.0944 0.33 0.4645 0.303 0.2501 0.16225 0.007 0.14507 0.2674
3327.487 0.2424 0.309 0.3041 0.3655 0.3952 0.4035 0.3791 0.19115 0.2584 0.3442
3346.777 0.3889 0.4131 0.2758 0.3382 0.3824 0.2602 0.17467 0.3008 0.3357 0.121731
3366.066 0.18225 0.3077 0.2808 0.20779 0.19351 0.16612 0.17911 0.2735 0.332 0.3317
3385.356 0.3024 0.3086 0.2515 0.3014 0.2989 0.17685 0.2878 0.2994 0.3222 0.4343
3404.646 0.3771 0.184 0.14153 0.2662 0.222 0.19059 0.2687 0.358 0.4013 0.3151
3423.936 0.2228 0.17513 0.18819 0.20517 0.231 0.3404 0.4232 0.4989 0.3232 0.13709
3443.225 0.2969 0.3954 0.3712 0.3828 0.3741 0.3229 0.2621 0.2867 0.3915 0.488
3462.515 0.4076 0.2869 0.3409 0.2914 0.2317 0.2577 0.18074 0.2295 0.2851 0.2978
3481.805 0.2525 0 0.0576 0.2484 0.2943 0.4081 0.4359 0.4005 0.3565 0.1675
3501.095 0.017 0.13604 0.2962 0.3246 0.20655 0.18457 0.1034 0.12078 0.2273 0.19941
3520.385 0.2573 0.2416 0.17029 0.2445 0.344 0.2691 0.17557 0.19714 0.3179 0.2557
3539.674 0.19696 0.2487 0.2747 0.2446 0.19949 0.18826 0.1096 0.0546 0.0757 0.2223
3558.964 0.2672 0.2248 0.2641 0.2988 0.19495 0.1132 0.29 0.2597 0.0892 0.12597
3578.254 0.17973 0.3018 0.2647 0.008 0.01 0.0485 0.0768 0.284 0.3407 0.362
3597.544 0.3352 0.3222 0.2541 0.21348 0.3365 0.2896 0.2344 0.3194 0.4052 0.3933
3616.833 0.468 0.3929 0.4048 0.5297 0.4013 0.3185 0.3556 0.3663 0.3498 0.2976
3636.123 0.2199 0.3016 0.4267 0.343 0.2211 0.3073 0.3473 0.3884 0.4008 0.3394
3655.413 0.4213 0.5185 0.4701 0.328 0.21644 0.2733 0.3335 0.2741 0.3029 0.3275
3674.703 0.398 0.3214 0.2854 0.4987 0.5159 0.5213 0.4947 0.19463 0.11326 0.3916
3693.993 0.5277 0.3795 0.2628 0.3666 0.4846 0.3834 0.2956 0.3956 0.5442 0.5874
3713.282 0.6201 0.6805 0.5204 0.3651 0.3708 0.4669 0.4855 0.3408 0.3426 0.4275
3732.572 0.3918 0.3845 0.4267 0.4655 0.2867 0.2664 0.4206 0.2398 0.2392 0.2791
3751.862 0.2353 0.2432 0.2366 0.4499 0.4738 0.3978 0.3775 0.2437 0.17274 0.2956
3771.152 0.2633 0.2557 0.3689 0.2771 0.3067 0.3254 0.28 0.3313 0.3894 0.3419
3790.441 0.2906 0.2811 0.2435 0.2241 0.20906 0.335 0.4958 0.4366 0.3361 0.3425
3809.731 0.3728 0.3426 0.335 0.2948 0.4006 0.4967 0.4011 0.3626 0.2964 0.4506
3829.021 0.4864 0.4309 0.5619 0.4911 0.3589 0.2904 0.2946 0.416 0.5095 0.4778
3848.311 0.4006 0.4356 0.4696 0.4529 0.5022 0.442 0.3971 0.4963 0.5744 0.4837
3867.601 0.4432 0.4286 0.2767 0.2419 0.375 0.3352 0.3096 0.4323 0.4063 0.3009
3886.890 0.2573 0.3207 0.3645 0.3217 0.2355 0.2709 0.2547 0.2966 0.3084 0.127423
3906.180 0.243 0.3945 0.3714 0.3041 0.15945 0.3648 0.4759 0.21853 0.15159 0.2347
3925.470 0.2392 0.2226 0.305 0.4037 0.3863 0.3964 0.4403 0.3991 0.384 0.4261
3944.760 0.5702 0.4904 0.3612 0.4655 0.3341 0.3507 0.5057 0.4003 0.3193 0.3066
3964.049 0.4231 0.4914 0.445 0.5021 0.4634 0.4548 0.5723 0.4525 0.3039 0.3909
3983.339 0.4366 0.3664 0.5025 0.4549 0.331 0.4681 0.66 0.5537 0.3431 0.3594
##END=
