##TITLE=2,5-Difluorophenylacetic acid
##JCAMP-DX=4.24
##DATA TYPE=INFRARED SPECTRUM
##ORIGIN=EPA-IR VAPOR PHASE LIBRARY
##OWNER=SRD/NIST
Collection (C) 2018 copyright by the U.S. Secretary of Commerce
on behalf of the United States of America. All rights reserved.
##CAS REGISTRY NO=85068-27-5
##MOLFORM=C 8 H 6 F 2 O 2
##$NIST SOURCE=MSDC-IR
##STATE=gas
##XUNITS=1/CM
##YUNITS=ABSORBANCE
##XFACTOR=1.
##YFACTOR=0.001
##DELTAX=1.92898
##FIRSTX=549.8
##LASTX=4000.7
##FIRSTY=19.018
##MAXX=4000.7
##MINX=549.759
##MAXY=0.207978
##MINY=0
##NPOINTS=1790
##XYDATA=(X++(Y..Y))
549.759 19.018 20.538 22.108 23.918 26.008 27.408 28.128 27.338 25.028 23.538
569.049 22.618 21.408 20.918 21.198 21.518 22.508 24.358 27.118 30.848 35.198
588.339 40.428 45.648 49.798 53.128 55.668 57.448 57.748 56.248 54.028 51.528
607.628 48.998 46.598 44.348 42.328 40.698 39.788 38.708 37.068 35.898 34.918
626.918 33.738 32.618 31.348 29.948 28.588 27.118 25.768 24.848 23.598 22.138
646.208 21.058 20.008 18.668 17.338 16.478 15.678 14.808 14.458 14.328 13.528
665.498 12.718 12.458 12.538 12.438 12.498 13.058 13.318 13.518 13.878 14.498
684.787 14.958 15.378 16.058 16.798 17.938 19.118 20.218 21.328 22.818 24.478
704.077 25.468 25.708 25.178 24.388 23.808 22.778 21.368 19.788 18.548 18.088
723.367 17.978 18.468 19.768 21.708 24.388 27.628 31.258 34.668 37.198 38.648
742.657 38.918 38.598 37.318 34.868 31.678 27.848 23.858 20.048 16.588 13.958
761.947 12.218 10.958 9.578 8.588 7.998 7.278 6.648 6.168 5.848 6.078
781.236 6.558 6.938 7.278 7.598 8.298 9.258 10.788 12.738 15.258 18.438
800.526 21.738 25.128 28.958 33.098 36.998 41.078 44.778 44.398 39.228 33.868
819.816 30.178 26.658 22.848 19.328 16.188 13.678 11.818 10.648 9.998 9.888
839.106 10.308 10.898 11.948 13.358 14.688 16.218 18.198 19.748 21.388 23.208
858.395 24.358 24.648 24.378 23.568 22.498 21.258 19.738 18.498 17.608 16.598
877.685 15.408 14.208 13.048 12.318 11.618 10.548 9.518 8.878 8.238 7.398
896.975 6.558 6.038 5.728 5.718 5.818 5.528 5.248 5.168 5.028 4.908
916.265 5.138 4.968 4.778 5.318 5.488 5.458 5.708 5.938 6.228 6.358
935.555 6.568 6.648 6.348 5.968 5.848 6.178 6.648 7.298 8.168 9.238
954.844 10.798 12.598 14.138 14.998 15.098 15.018 14.758 13.848 12.298 10.458
974.134 8.638 7.158 5.868 4.738 4.358 4.398 4.088 3.628 3.468 3.578
993.424 3.448 3.328 3.158 3.228 3.118 2.828 2.918 2.808 2.708 2.548
1012.714 2.808 3.248 2.858 2.548 3.048 3.208 3.028 3.328 3.668 3.878
1032.003 3.948 3.978 4.108 4.278 4.618 4.498 4.968 5.878 5.998 6.678
1051.293 7.368 7.278 7.908 8.538 8.888 9.918 11.308 12.238 12.948 14.418
1070.583 15.498 17.298 19.678 22.118 24.858 27.548 31.188 34.128 37.578 41.118
1089.873 44.628 49.448 54.418 59.938 66.898 74.698 83.918 94.718 105.168 116.108
1109.163 128.768 140.088 147.778 152.958 155.678 154.928 150.678 143.328 133.988 123.898
1128.452 113.818 105.068 98.088 91.518 87.168 84.168 80.038 75.918 71.868 68.738
1147.742 65.458 60.758 56.628 53.358 50.088 47.818 46.008 44.198 43.558 44.588
1167.032 46.468 49.138 52.458 56.468 61.768 66.908 71.398 75.468 78.398 80.168
1186.322 81.508 82.388 81.918 80.508 79.348 77.958 76.298 75.438 75.428 75.938
1205.611 79.098 82.888 86.628 91.208 94.778 96.968 97.898 97.428 95.088 92.458
1224.901 88.978 83.968 77.368 69.638 62.488 56.168 50.958 47.038 43.808 41.228
1244.191 39.078 37.058 34.768 32.618 30.808 28.868 26.978 25.218 23.688 22.218
1263.481 20.898 20.308 19.958 20.558 21.378 22.228 23.418 24.138 24.618 24.938
1282.771 25.208 25.108 24.448 23.628 22.828 21.848 21.018 20.388 19.838 19.508
1302.060 19.028 18.628 18.248 17.698 17.118 16.428 15.688 15.098 14.608 14.178
1321.350 13.978 13.878 13.848 14.048 14.388 14.888 15.458 16.048 16.798 17.678
1340.640 18.638 19.668 20.748 21.948 23.378 24.828 26.208 27.498 28.668 29.798
1359.930 30.948 31.738 32.138 32.328 32.288 31.798 30.918 29.758 28.288 26.588
1379.219 24.548 22.438 20.608 18.928 17.218 15.698 14.548 13.698 13.208 12.998
1398.509 12.848 12.828 12.978 13.298 13.758 14.408 15.378 16.598 17.938 19.658
1417.799 21.828 24.278 26.998 29.928 32.558 34.568 35.948 36.468 36.308 35.368
1437.089 33.358 30.498 27.078 23.638 20.528 18.008 16.038 14.618 13.698 13.108
1456.378 12.678 12.468 12.498 12.748 13.238 14.098 15.378 16.978 19.088 22.038
1475.668 25.998 30.938 37.118 45.058 54.968 67.198 82.258 100.688 122.958 147.638
1494.958 171.858 191.898 204.148 207.978 205.248 197.818 185.148 165.838 139.448 109.788
1514.248 83.148 62.418 47.438 36.968 29.558 24.148 20.158 17.128 14.678 12.698
1533.538 10.968 9.518 8.408 7.598 6.858 6.058 5.498 5.178 4.778 4.408
1552.827 4.118 3.968 4.008 4.068 4.068 3.898 3.848 4.008 4.218 4.468
1572.117 4.668 4.918 5.218 5.708 6.318 6.938 7.698 8.338 9.008 9.718
1591.407 10.288 10.678 10.868 10.928 10.928 10.638 10.238 9.758 9.178 9.008
1610.697 8.878 8.788 8.978 9.368 9.978 10.388 10.708 11.008 10.918 10.478
1629.986 9.868 9.078 8.018 7.138 6.248 5.328 4.758 4.298 3.868 3.588
1649.276 3.398 3.278 3.158 3.098 3.098 2.998 2.978 3.088 3.138 3.208
1668.566 3.358 3.518 3.558 3.478 3.568 3.708 3.818 3.938 4.038 4.248
1687.856 4.498 4.618 4.758 4.958 5.128 5.368 5.588 5.868 6.328 6.738
1707.146 7.038 7.408 7.888 8.498 9.218 9.938 10.828 11.708 12.718 13.988
1726.435 15.388 16.948 18.608 20.548 22.798 25.048 27.498 30.388 33.318 36.418
1745.725 40.058 44.018 48.178 52.598 57.418 62.458 67.608 73.248 79.328 85.948
1765.015 93.298 101.408 110.578 120.668 131.368 142.458 153.328 163.168 171.158 176.848
1784.305 179.978 180.168 176.828 169.118 157.228 143.248 128.928 114.928 101.988 90.058
1803.594 79.398 70.028 61.918 55.098 48.988 43.418 38.558 34.208 30.248 26.788
1822.884 23.618 20.748 18.438 16.448 14.668 13.198 11.928 10.948 10.088 9.368
1842.174 8.898 8.568 8.458 8.388 8.288 8.278 8.138 7.688 7.268 6.878
1861.464 6.398 5.908 5.348 4.798 4.338 3.948 3.668 3.478 3.328 3.118
1880.754 2.888 2.788 2.708 2.638 2.598 2.478 2.448 2.388 2.268 2.278
1900.043 2.248 2.128 1.968 1.808 1.858 1.868 1.658 1.638 1.728 1.758
1919.333 1.738 1.618 1.598 1.718 1.718 1.678 1.528 1.478 1.608 1.588
1938.623 1.598 1.618 1.648 1.618 1.598 1.578 1.548 1.598 1.598 1.658
1957.913 1.748 1.728 1.738 1.838 1.818 1.788 1.818 1.928 2.098 2.088
1977.202 2.068 2.148 2.178 2.088 2.058 2.178 2.338 2.368 2.338 2.318
1996.492 2.268 2.278 2.318 2.338 2.278 2.188 2.108 2.078 2.208 2.328
2015.782 2.318 2.278 2.268 2.288 2.298 2.108 1.958 1.878 1.758 1.778
2035.072 1.748 1.668 1.578 1.578 1.568 1.538 1.3967 1.3098 1.418 1.418
2054.362 1.3203 1.2746 1.1774 1.0964 1.1296 0.9957 0.8776 0.9331 1.0522 1.018
2073.651 0.9976 1.0341 1.0598 1.0727 1.0182 1.0175 0.9842 0.9205 0.8487 0.9126
2092.941 0.964 0.8578 0.8781 0.9571 0.91 0.9218 0.9766 0.9119 0.8716 0.8625
2112.231 0.7944 0.7895 0.9056 0.9459 0.876 0.8689 0.9004 0.9088 0.8591 0.8483
2131.521 0.9141 0.9136 0.9915 1.0374 0.9675 0.9856 1.0845 1.1238 1.1066 1.1097
2150.810 1.0681 1.0721 1.1422 0.9749 0.8974 0.9938 1.0493 1.1088 1.0793 1.0344
2170.100 1.139 1.133 1.0641 1.2859 1.4109 1.418 1.3375 1.2316 1.2191 1.2683
2189.390 1.3769 1.4154 1.4092 1.3319 1.391 1.458 1.428 1.428 1.365 1.448
2208.680 1.4036 1.3368 1.458 1.568 1.648 1.698 1.818 1.748 1.678 1.788
2227.970 1.768 1.728 1.718 1.618 1.538 1.548 1.558 1.498 1.508 1.418
2247.259 1.418 1.558 1.438 1.2229 1.2488 1.3946 1.3052 1.2648 1.2409 1.259
2266.549 1.3594 1.3305 1.3299 1.3463 1.3515 1.3574 1.448 1.438 1.3585 1.3539
2285.839 1.365 1.3808 1.478 1.578 1.478 1.3622 1.418 1.458 1.428 1.4051
2305.129 1.357 1.3117 1.3187 1.3176 1.3156 1.3386 1.374 1.3738 1.458 1.438
2324.418 1.2761 1.3776 1.498 1.3853 1.3244 1.478 1.478 1.428 1.448 1.3876
2343.708 1.3339 1.3505 1.3473 1.3369 1.2686 1.2694 1.3096 1.2658 1.2943 1.2526
2362.998 1.2141 1.319 1.2278 0.9943 1.0078 1.1354 1.1915 1.1888 1.3212 1.3837
2382.288 1.3169 1.2685 1.3213 1.3598 1.2357 1.2066 1.2017 1.1351 1.2172 1.3215
2401.578 1.2541 1.2176 1.2195 1.2387 1.3002 1.428 1.518 1.478 1.448 1.428
2420.867 1.4011 1.4107 1.458 1.458 1.498 1.578 1.538 1.458 1.3768 1.386
2440.157 1.558 1.558 1.528 1.588 1.568 1.638 1.768 1.828 1.778 1.718
2459.447 1.768 1.808 1.768 1.798 1.798 1.838 1.778 1.738 1.818 1.818
2478.737 1.788 1.728 1.698 1.678 1.678 1.658 1.528 1.478 1.3708 1.2725
2498.026 1.3366 1.2903 1.1512 1.1159 1.1195 1.0802 1.0466 1.0586 1.0808 1.0307
2517.316 1.0796 1.0895 1.0041 1.0508 0.967 0.9305 0.909 0.809 0.8919 0.9365
2536.606 1.0218 1.0634 0.9653 0.8249 0.7724 0.8281 0.8743 1.0045 0.8991 0.7606
2555.896 0.7937 0.8508 0.8719 0.764 0.8114 0.8907 0.8864 0.8024 0.6329 0.6379
2575.186 0.766 0.7809 0.824 0.8915 0.8636 0.7844 0.7608 0.8844 0.875 0.8151
2594.475 0.8321 0.8012 0.7332 0.6824 0.8069 0.8127 0.81 0.7947 0.6505 0.6078
2613.765 0.6016 0.5631 0.6812 0.7081 0.6673 0.7092 0.5774 0.5993 0.7785 0.7595
2633.055 0.6838 0.7835 0.685 0.711 0.7658 0.7159 0.8151 0.5214 0.45499 0.7245
2652.345 0.6751 0.5529 0.6658 0.7172 0.664 0.6629 0.6075 0.6296 0.7797 0.7563
2671.634 0.782 1.015 0.9946 0.9002 0.7354 0.7066 0.8427 0.8475 0.8547 0.7788
2690.924 0.6572 0.7176 0.7568 0.8162 0.8147 0.7437 0.8993 0.806 0.5523 0.47281
2710.214 0.6278 0.8728 0.9286 0.9565 0.873 0.7866 0.7382 0.7471 0.7866 0.7888
2729.504 0.9117 0.9528 0.9083 0.8519 0.7455 0.7396 0.8453 0.8453 0.7601 0.8365
2748.794 0.8513 0.779 0.638 0.6101 0.7379 0.6257 0.5933 0.5566 0.5246 0.5077
2768.083 0.5972 0.7108 0.6289 0.6044 0.7359 0.8466 0.7848 0.7135 0.5255 0.50887
2787.373 0.6807 0.7509 0.6952 0.5977 0.7012 0.826 0.7959 0.6187 0.46931 0.46592
2806.663 0.49782 0.41107 0.3221 0.4455 0.5649 0.6755 0.6929 0.51212 0.44735 0.6073
2825.953 0.7525 0.7017 0.6722 0.6854 0.7117 0.7326 0.7251 0.8574 0.8757 1.0656
2845.242 1.2598 1.0886 0.9143 0.8754 1.0067 1.1022 1.1491 1.0949 0.9792 0.9708
2864.532 0.8855 0.903 0.8789 0.795 0.922 1.0905 1.2238 1.2336 1.3185 1.3546
2883.822 1.3992 1.3837 1.3179 1.438 1.3871 1.488 1.578 1.448 1.448 1.428
2903.112 1.568 1.578 1.458 1.538 1.558 1.718 1.788 1.848 2.178 2.478
2922.401 2.638 2.758 2.908 2.998 3.348 3.858 4.148 4.228 4.488 4.928
2941.691 5.178 5.208 5.158 4.858 4.658 4.708 4.588 4.338 3.978 3.688
2960.981 3.468 3.138 2.998 2.938 2.668 2.508 2.308 2.158 2.118 1.988
2980.271 1.868 1.718 1.608 1.528 1.3414 1.2541 1.305 1.478 1.618 1.618
2999.561 1.508 1.538 1.638 1.568 1.3645 1.3829 1.698 1.668 1.4061 1.2725
3018.850 1.2616 1.3023 1.3475 1.2901 1.4164 1.518 1.3878 1.3147 1.4137 1.558
3038.140 1.518 1.528 1.768 1.948 1.858 2.068 2.218 2.378 2.498 2.458
3057.430 2.398 2.438 2.608 2.598 2.698 2.678 2.488 2.228 1.878 1.658
3076.720 1.878 1.978 1.938 2.178 2.188 1.878 1.768 1.958 2.188 2.178
3096.009 1.898 1.838 1.588 1.401 1.698 1.718 1.528 1.395 1.3444 1.183
3115.299 1.0235 1.0303 0.9985 0.8552 0.7653 0.9311 1.0104 0.9719 0.8242 0.7807
3134.589 1.0052 0.982 0.8391 0.7655 0.5744 0.7452 0.8555 0.6303 0.5272 0.6166
3153.879 0.636 0.6183 0.6161 0.6325 0.7989 0.8038 0.7033 0.5712 0.4794 0.5631
3173.169 0.5697 0.5372 0.654 0.6774 0.7561 0.8508 0.8063 0.5371 0.49738 0.6966
3192.458 0.7484 0.656 0.425766 0.307 0.3291 0.5477 0.6882 0.5749 0.3431 0.277
3211.748 0.356 0.4158 0.367 0.3794 0.4 0.3381 0.44645 0.49788 0.351 0.247
3231.038 0.42867 0.5034 0.45586 0.5631 0.7112 0.6145 0.6303 0.5932 0.31 0.3881
3250.328 0.43812 0.46249 0.47648 0.27 0.3273 0.5469 0.51286 0.3 0.3572 0.3859
3269.617 0.141 0.115 0.181 0.3706 0.5574 0.50755 0.3579 0.232 0.251 0.44888
3288.907 0.6018 0.5183 0.51561 0.6021 0.48936 0.5997 0.6027 0.50368 0.5374 0.4796
3308.197 0.3834 0.5541 0.6938 0.43365 0.46452 0.49713 0.3733 0.42857 0.6354 0.6216
3327.487 0.3732 0.3973 0.5595 0.51785 0.3574 0.43893 0.45557 0.3415 0.3938 0.3308
3346.777 0.3666 0.5341 0.3863 0.191 0.17 0.26 0.3299 0.285 0.308 0.3807
3366.066 0.4789 0.3976 0.3428 0.3493 0.3407 0.3653 0.3927 0.5283 0.51347 0.51736
3385.356 0.3434 0.126 0.3805 0.3596 0.178 0.183 0.224 0.239 0.063 0.117
3404.646 0.495 0.6431 0.6386 0.611 0.3713 0.3633 0.47009 0.4079 0.47193 0.6142
3423.936 0.5858 0.41054 0.44254 0.48202 0.43794 0.51086 0.3723 0.066 0.183 0.5597
3443.225 0.5828 0.44582 0.6316 0.7653 0.5246 0.46869 0.6324 0.6602 0.51538 0.544
3462.515 0.6854 0.6537 0.5809 0.6392 0.7598 0.664 0.5947 0.672 0.6088 0.46673
3481.805 0.49178 0.7131 0.817 0.772 0.8611 0.9842 1.0033 0.9855 1.1625 1.372
3501.095 1.428 1.528 1.3292 1.3115 1.428 1.428 1.648 1.908 1.998 1.968
3520.385 2.028 2.088 2.278 2.738 3.128 3.308 3.498 3.698 4.078 4.628
3539.674 5.138 5.648 6.238 6.928 7.648 8.578 9.608 11.038 12.728 14.888
3558.964 18.428 23.558 30.608 40.218 51.598 62.548 71.448 77.328 80.378 80.428
3578.254 77.218 70.988 60.948 48.798 37.328 27.968 21.028 16.018 12.688 10.618
3597.544 9.208 7.838 7.028 6.528 5.728 5.138 4.588 3.818 3.388 2.998
3616.833 2.488 2.358 2.258 2.178 2.128 1.968 1.848 1.588 1.3322 1.2706
3636.123 1.3041 1.3502 1.2727 1.1537 0.8786 1.099 1.2489 1.0251 1.2577 1.2367
3655.413 1 0.9768 0.8095 0.8021 0.7784 0.7225 0.7721 0.5184 0.5884 0.6634
3674.703 0.7929 0.8467 0.5583 0.47075 0.427069 0.46293 0.5326 0.50211 0.41009 0.5799
3693.993 0.6672 0.6564 0.5321 0.301 0.3591 0.3601 0.5255 0.5793 0.3427 0.5374
3713.282 0.6724 0.5643 0.6099 0.5961 0.6163 0.6443 0.6135 0.609 0.6302 0.6048
3732.572 0.6639 0.6024 0.47098 0.42832 0.49487 0.6772 0.565 0.5225 0.4855 0.5758
3751.862 0.7523 0.5745 0.5727 0.608 0.3274 0.17 0.212 0.102 0.148 0.5353
3771.152 0.7075 0.6944 0.6101 0.6809 0.7901 0.6936 0.5211 0.41212 0.5115 0.4824
3790.441 0.47552 0.5816 0.7882 1.011 0.9463 0.7336 0.7048 0.6492 0.5261 0.5292
3809.731 0.5882 0.863 1.0415 0.8132 0.7233 0.8015 0.8502 0.8474 0.7276 0.49604
3829.021 0.42042 0.307 0.297 0.6133 0.5827 0.45843 0.7855 0.7508 0.43511 0.3694
3848.311 0.3756 0.6093 0.8165 0.7726 0.5281 0.51196 0.6057 0.4458 0.5914 0.6209
3867.601 0.47305 0.6327 0.48507 0.5761 0.8988 0.5441 0.44569 0.7981 0.6559 0.5236
3886.890 0.6195 0.6009 0.531 0.46561 0.7105 0.6716 0.6708 0.7597 0.6278 0.6355
3906.180 0.5636 0.55 0.3571 0.44186 0.6092 0.7349 0.8479 0.6251 0.5578 0.4071
3925.470 0.3716 0.48239 0.639 0.6744 0.683 0.9424 0.7341 0.3314 0.221 0.275
3944.760 0.317 0.286 0.328 0.45798 0.675 0.5671 0.3537 0.7886 0.9123 0.6082
3964.049 0.6418 0.6959 0.6634 0.49653 0.5343 0.6347 0.45009 0.024 0 0.46502
3983.339 0.6893 0.589 0.47796 0.6426 0.7889 0.7421 0.9222 1.041 0.9085 0.9731
##END=
