##TITLE=2,5-Difluorobenzophenone
##JCAMP-DX=4.24
##DATA TYPE=INFRARED SPECTRUM
##ORIGIN=EPA-IR VAPOR PHASE LIBRARY
##OWNER=SRD/NIST
Collection (C) 2018 copyright by the U.S. Secretary of Commerce
on behalf of the United States of America. All rights reserved.
##CAS REGISTRY NO=85068-36-6
##MOLFORM=C 13 H 8 F 2 O
##$NIST SOURCE=MSDC-IR
##STATE=gas
##XUNITS=1/CM
##YUNITS=ABSORBANCE
##XFACTOR=1.
##YFACTOR=0.001
##DELTAX=1.92898
##FIRSTX=549.8
##LASTX=4000.7
##FIRSTY=3.957
##MAXX=4000.7
##MINX=549.759
##MAXY=0.228367
##MINY=0
##NPOINTS=1790
##XYDATA=(X++(Y..Y))
549.759 3.957 3.287 2.627 2.227 2.427 2.907 2.907 2.787 2.547 2.877
569.049 3.037 3.167 3.727 3.647 3.667 4.167 4.737 5.217 5.497 5.577
588.339 5.777 6.227 6.187 6.337 6.587 6.427 6.337 6.017 6.247 6.257
607.628 6.337 7.167 7.407 7.507 7.437 7.397 7.967 8.277 8.317 8.707
626.918 9.597 10.937 12.817 14.817 17.667 21.777 27.147 34.107 40.157 42.857
646.208 43.437 41.957 36.877 29.637 22.427 16.307 12.277 10.107 9.147 8.857
665.498 8.847 9.317 10.177 11.507 13.437 16.437 20.817 26.467 34.127 43.857
684.787 55.127 67.597 79.617 89.387 96.117 99.167 98.347 93.327 85.157 75.787
704.077 66.357 57.127 48.067 40.617 35.527 32.497 30.607 29.147 28.807 29.017
723.367 29.797 30.897 31.707 32.317 31.827 30.717 29.327 27.437 26.227 25.947
742.657 27.117 29.957 33.267 36.457 39.457 41.287 41.637 40.557 37.937 34.707
761.947 31.067 27.377 23.427 20.057 17.377 14.857 12.667 11.277 10.727 10.297
781.236 10.267 10.527 11.297 12.437 14.757 18.387 22.717 28.567 36.077 43.577
800.526 49.117 52.727 55.007 56.257 56.287 55.397 55.557 57.287 59.387 60.597
819.816 59.197 54.247 46.917 39.297 32.367 26.287 21.737 18.597 17.037 16.467
839.106 16.177 17.227 18.797 20.997 25.307 31.757 40.687 52.467 65.977 78.997
858.395 89.037 94.997 95.727 89.847 78.697 65.407 52.867 42.527 35.987 32.677
877.685 31.147 31.297 32.007 32.647 32.727 31.487 28.757 25.397 21.367 17.177
896.975 14.077 11.757 9.757 8.307 7.117 6.247 5.757 5.347 5.417 5.517
916.265 5.647 5.967 6.157 6.397 6.407 6.257 6.497 6.337 5.847 5.387
935.555 4.757 4.377 4.417 4.647 4.557 4.427 4.537 4.887 5.077 5.477
954.844 6.457 7.517 8.857 10.427 11.977 14.067 16.907 20.027 23.277 26.027
974.134 28.247 29.567 28.837 26.477 23.247 19.287 15.477 12.007 9.177 7.747
993.424 7.197 7.137 7.227 7.527 7.777 7.277 6.647 6.277 5.177 3.637
1012.714 3.107 3.827 4.087 4.687 5.797 6.487 7.207 7.977 7.707 6.567
1032.003 5.697 4.697 4.107 3.877 3.197 2.777 3.067 3.397 3.657 3.857
1051.293 3.767 3.767 4.267 4.497 4.707 5.187 5.287 5.567 6.357 6.607
1070.583 6.207 5.807 6.127 5.667 4.717 4.447 4.447 5.177 5.167 4.727
1089.873 5.037 5.187 5.697 6.327 6.587 7.527 7.657 7.647 7.737 7.227
1109.163 7.817 9.797 11.577 13.387 16.077 19.827 23.267 25.847 27.077 27.017
1128.452 26.477 23.617 20.307 17.417 13.617 10.767 9.357 8.347 7.897 7.137
1147.742 7.267 8.067 8.417 8.857 9.777 10.947 11.557 13.037 14.907 16.817
1167.032 19.687 23.837 29.417 35.457 41.897 49.747 57.597 63.217 68.577 74.047
1186.322 78.647 83.567 88.567 92.767 95.227 95.747 93.127 88.357 82.407 75.557
1205.611 69.567 63.987 58.957 55.507 53.797 53.627 54.317 55.387 57.617 60.807
1224.901 64.947 69.417 74.097 79.147 83.477 87.247 91.267 95.707 100.707 105.897
1244.191 110.717 114.137 114.547 111.877 106.907 100.057 93.227 88.797 88.717 94.157
1263.481 104.357 117.247 129.997 140.847 147.237 148.597 144.597 135.447 124.837 115.267
1282.771 108.967 107.077 108.407 111.767 115.187 117.577 117.957 114.677 107.797 98.417
1302.060 87.807 77.437 68.727 62.867 59.707 58.047 56.577 54.037 49.847 43.817
1321.350 36.177 28.507 22.407 18.207 15.567 13.817 12.647 11.777 10.817 9.987
1340.640 9.127 8.267 7.577 6.927 6.377 6.047 5.817 5.647 5.567 5.517
1359.930 5.547 5.657 6.037 6.567 6.987 7.357 7.687 7.957 8.197 8.287
1379.219 8.327 8.427 8.637 8.977 9.317 9.927 10.907 12.277 14.247 17.067
1398.509 20.937 26.457 34.547 46.057 61.567 80.647 101.407 120.537 134.247 140.167
1417.799 137.157 124.827 105.247 82.187 60.637 44.527 34.117 28.217 25.157 23.917
1437.089 23.967 25.667 29.517 35.397 42.577 48.947 52.487 53.507 52.437 49.247
1456.378 43.667 37.517 34.347 34.407 36.877 41.377 47.767 56.467 67.987 82.597
1475.668 100.167 120.937 144.127 168.867 192.547 212.057 224.517 228.367 223.357 209.987
1494.958 189.367 164.397 139.287 116.077 95.827 78.507 63.607 51.447 41.527 33.587
1514.248 27.617 23.027 19.497 16.897 14.917 13.457 12.437 11.637 10.987 10.487
1533.538 10.087 9.697 9.307 8.977 8.767 8.587 8.337 8.107 8.157 8.247
1552.827 8.387 8.567 8.737 9.157 9.697 10.277 11.047 12.037 13.247 14.807
1572.117 16.927 19.097 21.437 24.147 26.687 28.997 30.957 32.667 34.277 35.887
1591.407 37.367 38.657 39.447 39.047 37.667 35.447 32.047 28.057 24.127 20.917
1610.697 18.877 17.837 17.357 17.087 17.107 16.907 16.327 15.857 15.427 14.717
1629.986 14.077 13.797 13.497 13.257 13.207 13.267 13.457 13.617 13.827 14.137
1649.276 14.627 15.247 16.177 17.397 19.037 20.897 23.067 25.967 29.447 33.667
1668.566 38.967 45.527 53.587 63.497 75.737 89.727 105.227 120.807 135.717 148.767
1687.856 157.557 161.207 158.517 149.837 136.457 121.427 106.507 91.747 78.917 67.627
1707.146 58.087 50.157 43.617 37.967 33.207 29.087 25.637 22.907 20.737 18.977
1726.435 17.617 16.397 15.177 14.237 13.327 12.347 11.487 10.727 10.127 9.627
1745.725 9.227 8.797 8.507 8.307 8.137 7.857 7.547 7.457 7.417 7.337
1765.015 7.137 6.857 6.697 6.427 5.997 5.647 5.237 4.757 4.407 4.077
1784.305 3.907 3.827 3.697 3.737 3.817 3.917 4.127 4.347 4.617 4.987
1803.594 5.317 5.517 5.627 5.627 5.397 5.117 4.827 4.407 4.077 3.847
1822.884 3.667 3.417 3.127 2.877 2.807 2.687 2.477 2.447 2.427 2.417
1842.174 2.427 2.557 2.757 2.927 3.227 3.627 4.117 4.777 5.497 6.077
1861.464 6.507 6.877 6.987 6.557 5.977 5.337 4.467 3.577 2.957 2.667
1880.754 2.637 2.757 2.807 2.857 3.107 3.377 3.497 3.657 3.767 3.777
1900.043 3.737 3.727 3.767 3.827 3.857 3.817 3.667 3.437 3.187 2.947
1919.333 2.807 2.587 2.267 2.047 1.957 1.977 1.927 1.937 2.007 2.067
1938.623 2.257 2.317 2.607 2.987 3.247 3.457 3.707 3.987 4.097 4.117
1957.913 4.047 4.027 3.977 4.047 4.187 4.137 4.057 3.927 3.737 3.447
1977.202 3.077 2.827 2.667 2.517 2.427 2.437 2.457 2.387 2.357 2.417
1996.492 2.387 2.397 2.337 2.217 2.237 2.147 1.947 1.867 1.817 1.747
2015.782 1.657 1.577 1.527 1.507 1.487 1.387 1.307 1.427 1.517 1.477
2035.072 1.507 1.537 1.497 1.497 1.587 1.707 1.717 1.707 1.777 1.777
2054.362 1.797 1.837 1.857 1.797 1.787 1.787 1.687 1.667 1.587 1.487
2073.651 1.497 1.517 1.507 1.447 1.337 1.307 1.377 1.407 1.417 1.437
2092.941 1.527 1.527 1.517 1.537 1.537 1.447 1.427 1.457 1.337 1.297
2112.231 1.277 1.1076 0.9763 0.9679 0.8948 0.8924 0.9343 0.9226 0.9104 0.8406
2131.521 0.9357 0.9824 0.8148 0.6877 0.7229 0.8457 0.8773 0.7803 0.7226 0.7726
2150.810 0.7719 0.7761 0.8595 0.8003 0.7292 0.8328 0.8134 0.6895 0.6968 0.8009
2170.100 0.9593 1.1053 1.1305 1.0492 0.9088 0.8228 0.8816 0.8927 0.928 0.9792
2189.390 0.8729 0.838 0.8624 0.8812 0.8712 0.8908 0.9909 0.9869 0.966 1.008
2208.680 1.0524 1.1057 1.105 1.181 1.257 1.217 1.217 1.1632 1.0475 1.0552
2227.970 1.0432 0.9919 0.9954 0.8807 0.8815 0.9426 0.9721 0.9886 0.9386 0.9553
2247.259 0.9264 0.8217 0.8534 0.9905 1.0373 0.9773 0.8964 0.84 0.9658 1.0625
2266.549 1.0138 0.9734 0.8676 0.8602 1.0584 1.0863 0.9615 1.0334 1.0855 1.1335
2285.839 1.197 1.1064 0.9911 1.0577 1.1494 1.1406 1.0984 1.207 1.297 1.227
2305.129 1.247 1.1929 1.1685 1.297 1.357 1.437 1.577 1.747 1.887 1.847
2324.418 1.817 1.797 1.687 1.637 1.647 1.687 1.857 1.877 1.907 2.077
2343.708 2.087 1.977 1.937 1.997 2.037 2.127 2.047 1.857 1.757 1.697
2362.998 1.757 1.817 1.737 1.697 1.727 1.767 1.767 1.577 1.387 1.477
2382.288 1.537 1.397 1.287 1.357 1.397 1.287 1.1438 0.9905 1.0094 1.152
2401.578 1.1021 0.996 1.0115 0.9685 1.013 1.0696 1.1911 1.277 1.257 1.387
2420.867 1.417 1.377 1.457 1.427 1.337 1.437 1.547 1.547 1.537 1.577
2440.157 1.607 1.707 1.707 1.697 1.707 1.627 1.727 1.667 1.627 1.667
2459.447 1.727 1.827 1.727 1.637 1.687 1.757 1.647 1.677 1.757 1.727
2478.737 1.597 1.457 1.537 1.497 1.487 1.607 1.657 1.567 1.647 1.677
2498.026 1.547 1.437 1.417 1.417 1.317 1.367 1.357 1.477 1.517 1.287
2517.316 1.217 1.227 1.1919 1.101 1.1834 1.1652 0.9915 0.9967 1.0542 1.0888
2536.606 1.0325 0.9962 1.1266 1.207 1.0679 0.856 0.9113 1.0786 1.0065 0.9254
2555.896 1.0311 1.0142 0.9065 0.852 0.951 1.0545 0.955 0.9772 1.1214 1.207
2575.186 1.237 1.287 1.367 1.257 1.1439 1.1704 1.0991 1.1313 1.1247 1.197
2594.475 1.327 1.1538 1.0911 1.217 1.1777 1.1357 1.0406 0.9581 0.935 0.8606
2613.765 0.8994 0.925 0.8634 0.9114 0.9844 1.0248 1.014 0.8033 0.7456 0.6995
2633.055 0.6622 0.6894 0.6367 0.6742 0.7334 0.6901 0.5393 0.5025 0.4219 0.35
2652.345 0.524 0.651 0.6606 0.5817 0.508 0.6359 0.6888 0.6424 0.6296 0.6754
2671.634 0.7263 0.5722 0.6067 0.7223 0.6955 0.7252 0.8696 0.8915 0.9389 0.9966
2690.924 0.8735 0.827 0.8231 0.8519 0.7984 0.8267 0.9193 0.9414 1.0463 1.1006
2710.214 1.0916 1.197 1.227 1.1701 1.0899 1.1189 1.297 1.287 1.1801 1.227
2729.504 1.1824 1.1208 1.0541 1.1937 1.1781 0.876 0.757 0.7214 0.8123 0.8069
2748.794 0.7196 0.7644 0.8696 0.8034 0.6369 0.6444 0.648 0.6502 0.7218 0.8412
2768.083 0.9638 0.8968 0.8967 0.9149 0.7888 0.7592 0.7459 0.7696 0.8433 0.921
2787.373 0.906 0.7856 0.8242 0.6357 0.6252 0.8296 0.8423 0.7206 0.6316 0.5796
2806.663 0.5352 0.7198 0.7887 0.9267 1.0719 1.0448 1.1517 1.1192 1.0145 1.1498
2825.953 1.1718 1.165 1.0528 0.9511 1.1568 1.1803 1.0884 1.0761 1.0693 1.0812
2845.242 1.1781 1.1369 0.9436 1.0332 1.247 1.317 1.257 1.337 1.427 1.297
2864.532 1.257 1.497 1.637 1.457 1.627 1.707 1.627 1.677 1.577 1.537
2883.822 1.457 1.507 1.557 1.637 1.567 1.427 1.607 1.577 1.427 1.387
2903.112 1.297 1.1911 1.417 1.427 1.197 1.287 1.227 1.0845 0.9629 1.0117
2922.401 1.164 0.9413 0.7869 0.9189 0.8708 0.8205 0.9548 0.901 0.7464 0.8548
2941.691 0.8507 0.7691 0.9294 0.8612 0.7987 0.862 0.8416 0.7947 0.6778 0.7106
2960.981 0.8971 0.8553 0.852 1.063 1.1521 1.1441 1.0188 1.0237 1.1566 1.0746
2980.271 0.9498 1.0679 1.227 1.1831 1.166 1.247 1.307 1.527 1.507 1.307
2999.561 1.417 1.687 1.917 2.127 2.087 2.187 2.507 2.787 3.297 3.857
3018.850 4.397 4.817 5.687 6.767 7.787 8.967 9.897 10.797 11.667 12.197
3038.140 12.537 12.707 12.597 12.167 11.757 11.197 10.747 11.027 11.707 12.647
3057.430 13.997 15.637 17.617 20.087 22.997 26.217 29.257 31.427 32.497 32.197
3076.720 31.067 29.407 26.847 24.367 22.947 22.407 21.647 20.737 19.567 17.927
3096.009 16.117 14.177 12.177 10.597 9.287 8.097 7.197 6.127 5.027 4.297
3115.299 3.697 3.137 2.577 2.197 2.247 2.167 1.847 1.717 1.677 1.587
3134.589 1.487 1.447 1.597 1.357 1.1854 1.367 1.427 1.337 1.317 1.357
3153.879 1.507 1.677 1.527 1.237 1.327 1.477 1.297 1.1859 1.071 1.0324
3173.169 0.9694 0.9009 0.937 0.7584 0.6504 0.6765 0.645 0.7281 0.8611 0.8699
3192.458 0.6897 0.5604 0.5397 0.5383 0.5533 0.5244 0.41 0.4931 0.4122 0.3007
3211.748 0.29043 0.3232 0.4058 0.4187 0.5551 0.5647 0.7293 0.6678 0.5816 0.6874
3231.038 0.6244 0.4068 0.1852 0.200699 0.3433 0.436 0.5098 0.4447 0.3787 0.5497
3250.328 0.5556 0.61 0.5306 0.249 0.4121 0.6171 0.7637 0.7202 0.5525 0.7316
3269.617 0.6979 0.4575 0.4889 0.6964 0.8451 0.8066 0.7054 0.5945 0.6621 0.7368
3288.907 0.603 0.6124 0.7338 0.7323 0.7145 0.6817 0.8118 0.8896 0.8671 0.9101
3308.197 0.8463 0.6682 0.68 0.7219 0.7357 0.9315 1.0662 1.0693 1.1286 1.02
3327.487 0.9727 1.1062 1.166 1.267 1.317 1.287 1.507 1.797 2.057 2.207
3346.777 2.097 2.167 2.377 2.587 2.547 2.257 2.237 2.427 2.597 2.577
3366.066 2.257 2.177 2.067 2.067 2.087 1.927 1.957 1.857 1.727 1.647
3385.356 1.567 1.577 1.437 1.217 0.9075 0.873 1.0957 0.964 0.863 0.8687
3404.646 0.8194 0.8902 0.8407 0.8332 0.8156 0.6269 0.7282 0.7098 0.6515 0.7333
3423.936 0.7972 0.801 0.7041 0.6798 0.6056 0.5236 0.4281 0.5451 0.6713 0.6124
3443.225 0.5135 0.3852 0.3683 0.5638 0.7282 0.6848 0.5442 0.5287 0.6396 0.5605
3462.515 0.4704 0.4135 0.4242 0.4818 0.6072 0.7142 0.5529 0.4299 0.3557 0.4532
3481.805 0.4864 0.504 0.5544 0.5116 0.4686 0.3296 0.27679 0.3192 0.20772 0.1736
3501.095 0.4186 0.3977 0.4856 0.5208 0.4169 0.5052 0.4771 0.5274 0.5661 0.4474
3520.385 0.3249 0.23879 0.2108 0.199101 0.25491 0.3576 0.3385 0.28847 0.4955 0.5497
3539.674 0.454 0.533 0.5583 0.6253 0.5729 0.5301 0.5329 0.5483 0.5089 0.505
3558.964 0.6737 0.6478 0.5761 0.5103 0.5668 0.4735 0.4219 0.6726 0.5694 0.3766
3578.254 0.3294 0.29536 0.29466 0.22691 0.201195 0.3173 0.3949 0.23409 0.25314 0.4959
3597.544 0.3505 0.3699 0.3288 0.1073 0.3404 0.4088 0.341 0.4997 0.5451 0.4597
3616.833 0.3271 0.4036 0.5033 0.3876 0.5275 0.76 0.5911 0.3008 0.4123 0.5757
3636.123 0.5564 0.5131 0.5036 0.6415 0.7475 0.6177 0.4435 0.3976 0.4394 0.4213
3655.413 0.4344 0.5151 0.5094 0.4335 0.451 0.3835 0.4676 0.6297 0.6484 0.4332
3674.703 0.4582 0.6727 0.7244 0.8023 0.5819 0.5596 0.7154 0.839 0.6584 0.568
3693.993 0.6438 0.6897 0.7949 0.8299 0.9889 0.9346 0.8077 0.8363 0.7817 0.9215
3713.282 1.0501 0.9722 0.8038 0.6684 0.6035 0.4083 0.3804 0.4619 0.5137 0.6224
3732.572 0.6881 0.7209 0.6391 0.5723 0.6385 0.6241 0.7249 0.5866 0.4504 0.488
3751.862 0.5336 0.605 0.5165 0.5306 0.6336 0.8378 0.9225 0.8512 0.7069 0.7475
3771.152 0.8158 0.8485 0.8582 0.8277 0.8073 0.6783 0.6905 0.7288 0.7472 0.7573
3790.441 0.5929 0.4261 0.4869 0.5926 0.4932 0.4256 0.6152 0.432 0.3596 0.4872
3809.731 0.5122 0.5182 0.5016 0.4935 0.4901 0.5827 0.5433 0.499 0.3635 0.5534
3829.021 0.5905 0.4694 0.5891 0.5028 0.4799 0.6222 0.6817 0.5237 0.3616 0.376
3848.311 0.4443 0.3829 0.27929 0.26384 0.4282 0.5472 0.4494 0.3383 0.4594 0.5703
3867.601 0.5588 0.5167 0.3542 0.2749 0.27836 0.3568 0.4115 0.4292 0.6545 0.716
3886.890 0.6935 0.8748 0.8588 0.7396 0.5872 0.5239 0.5009 0.4217 0.494 0.4087
3906.180 0.4729 0.5164 0.5321 0.612 0.5113 0.4582 0.5022 0.587 0.7905 0.7572
3925.470 0.6535 0.7571 0.812 0.7053 0.3764 0.23209 0.448 0.6075 0.4878 0.6188
3944.760 0.7108 0.7049 0.6767 0.5606 0.4564 0.3861 0.5292 0.6382 0.5918 0.5866
3964.049 0.4858 0.3423 0.3775 0.3552 0.3668 0.3513 0.25358 0.4883 0.6034 0.5528
3983.339 0.4383 0.1361 0.3903 0.6013 0.169 0 0.4294 0.7727 0.5987 0.3851
##END=
