##TITLE=2,6-Difluoropropiophenone
##JCAMP-DX=4.24
##DATA TYPE=INFRARED SPECTRUM
##ORIGIN=EPA-IR VAPOR PHASE LIBRARY
##OWNER=SRD/NIST
Collection (C) 2018 copyright by the U.S. Secretary of Commerce
on behalf of the United States of America. All rights reserved.
##CAS REGISTRY NO=85068-31-1
##MOLFORM=C 9 H 8 F 2 O
##$NIST SOURCE=MSDC-IR
##STATE=gas
##XUNITS=1/CM
##YUNITS=ABSORBANCE
##XFACTOR=1.
##YFACTOR=0.001
##DELTAX=1.92898
##FIRSTX=549.8
##LASTX=4000.7
##FIRSTY=5.905
##MAXX=4000.7
##MINX=549.759
##MAXY=0.136775
##MINY=0
##NPOINTS=1790
##XYDATA=(X++(Y..Y))
549.759 5.905 5.205 4.865 4.405 5.305 5.855 5.365 6.005 7.285 8.655
569.049 9.315 10.445 11.445 11.865 12.415 12.225 11.475 10.725 9.845 8.315
588.339 6.715 5.085 3.985 3.625 3.505 3.275 2.775 2.255 1.745 1.695
607.628 1.595 1.305 1.495 1.915 1.535 0.909 1.0818 1.495 1.255 0.8273
626.918 1.128 1.565 1.355 1.0676 1.255 1.355 1.2024 1.385 1.515 1.845
646.208 1.935 1.575 1.235 1.0759 1.1956 1.465 1.425 1.0768 1.0687 1.275
665.498 1.415 1.255 1.295 1.525 1.715 1.475 1.405 1.985 2.225 2.235
684.787 2.315 2.615 3.135 3.325 3.275 3.695 4.035 4.855 6.155 7.035
704.077 8.445 9.675 10.665 11.705 12.985 14.405 15.985 17.175 16.955 15.695
723.367 14.285 13.215 12.485 11.985 11.195 10.515 10.405 10.015 9.345 9.055
742.657 9.115 9.115 8.525 7.845 7.565 7.135 6.835 6.955 7.255 7.845
761.947 8.425 9.495 10.945 12.795 15.715 19.055 22.295 25.175 28.375 31.925
781.236 35.315 38.885 41.825 44.135 44.645 41.515 36.235 31.815 28.665 24.925
800.526 21.085 17.365 13.735 11.165 9.395 7.845 6.415 5.615 5.155 4.535
819.816 4.185 4.275 4.285 4.085 3.715 3.315 2.705 2.575 2.765 2.705
839.106 2.395 1.935 1.865 2.285 2.395 2.065 1.825 1.415 1.625 1.995
858.395 1.735 1.695 1.755 1.745 1.635 1.635 1.525 1.345 1.635 1.315
877.685 1.0614 1.685 1.765 1.565 1.845 2.045 2.205 2.185 2.475 2.795
896.975 2.905 3.405 3.495 3.835 4.265 4.425 5.345 6.345 7.175 7.985
916.265 8.925 10.535 12.865 15.485 18.425 21.745 25.385 29.415 33.395 37.215
935.555 40.385 42.655 44.025 44.655 43.795 41.135 38.195 34.725 31.445 27.885
954.844 23.525 20.015 17.835 16.055 14.625 13.925 13.685 13.535 13.245 13.815
974.134 15.145 16.515 18.365 20.365 22.965 26.515 30.635 35.425 39.795 44.875
993.424 51.515 57.515 62.005 65.155 67.525 68.775 68.515 67.595 65.905 63.175
1012.714 58.805 53.275 48.395 43.715 39.095 35.465 32.215 28.515 25.165 22.725
1032.003 20.515 18.175 16.905 16.545 15.745 14.835 13.985 14.005 14.175 13.955
1051.293 14.025 14.545 15.835 16.465 16.455 17.335 17.615 17.945 19.165 19.925
1070.583 19.555 19.035 18.715 18.265 17.705 16.175 14.705 13.375 12.135 10.755
1089.873 10.425 10.075 8.675 6.455 4.835 5.345 5.905 5.835 4.485 2.855
1109.163 3.145 4.185 3.475 2.995 3.235 4.005 3.415 2.055 1.945 2.065
1128.452 2.645 3.295 3.405 3.125 2.825 2.485 2.475 2.485 2.955 3.395
1147.742 3.245 3.825 4.195 3.455 3.805 4.765 5.785 6.325 6.285 7.255
1167.032 8.495 9.045 9.015 9.405 10.495 11.555 12.145 12.685 13.705 15.385
1186.322 17.725 19.275 21.035 24.155 26.005 27.855 30.875 34.285 38.115 38.955
1205.611 39.015 39.635 39.855 40.505 40.495 41.065 41.625 42.535 44.535 46.855
1224.901 49.695 53.195 55.865 57.045 56.685 56.535 56.135 54.705 51.995 46.845
1244.191 40.465 34.455 28.925 24.645 22.265 20.635 20.085 20.325 20.915 22.665
1263.481 25.855 30.115 35.635 42.255 49.155 55.445 60.615 64.605 66.345 65.445
1282.771 62.575 57.265 50.125 42.025 33.615 26.275 20.845 17.235 14.605 12.695
1302.060 11.615 10.895 10.195 9.835 9.705 9.635 9.745 9.965 10.165 10.295
1321.350 10.565 10.895 11.235 11.635 12.245 13.085 13.815 14.705 15.795 16.825
1340.640 17.885 18.765 19.475 19.975 20.105 19.905 19.265 18.275 17.135 15.715
1359.930 14.215 12.785 11.445 10.365 9.425 8.735 8.455 8.455 8.565 8.585
1379.219 8.535 8.575 8.635 8.665 8.635 8.275 7.795 7.515 7.085 6.785
1398.509 6.805 6.835 6.975 7.355 7.755 8.135 8.695 9.255 9.835 10.465
1417.799 11.075 11.545 11.825 12.165 12.615 13.065 13.635 14.165 14.955 15.975
1437.089 17.045 18.495 20.525 23.115 26.765 31.955 39.075 47.965 59.185 72.565
1456.378 88.045 104.475 119.475 131.145 136.775 136.695 133.095 126.535 114.145 96.365
1475.668 77.555 59.975 45.635 34.515 26.435 20.795 16.925 14.385 12.705 11.525
1494.958 10.605 9.825 9.075 8.495 8.145 7.725 7.205 6.785 6.655 6.545
1514.248 6.615 6.815 6.755 6.835 7.265 7.525 7.855 8.605 9.385 9.895
1533.538 10.465 11.335 12.175 12.965 13.725 14.395 14.795 15.335 15.995 16.375
1552.827 16.835 17.315 17.715 18.465 19.305 20.005 21.005 22.085 23.035 24.395
1572.117 26.015 27.625 29.765 32.135 34.735 37.355 39.965 42.745 44.815 46.365
1591.407 47.565 48.335 48.895 49.205 49.165 49.935 52.215 56.155 61.945 69.745
1610.697 78.745 87.845 95.265 100.105 101.805 99.865 94.645 86.315 75.895 64.335
1629.986 52.295 40.545 30.225 22.235 17.035 13.695 11.465 10.275 9.585 8.975
1649.276 8.385 8.065 7.735 7.515 7.475 7.485 7.515 7.385 7.375 7.525
1668.566 7.615 7.935 8.405 8.735 9.425 10.335 10.965 11.625 12.795 14.175
1687.856 15.405 16.645 18.105 19.585 21.205 23.075 25.385 28.505 32.075 36.965
1707.146 43.175 50.555 59.025 68.655 79.155 89.805 100.405 109.715 117.025 121.025
1726.435 120.505 116.035 108.585 99.345 88.585 77.605 67.285 57.335 48.585 41.255
1745.725 35.345 30.395 26.195 22.785 19.815 17.155 14.985 13.115 11.515 10.275
1765.015 9.165 8.255 7.465 6.685 6.185 5.815 5.355 4.975 4.755 4.535
1784.305 4.175 3.915 3.815 3.685 3.495 3.385 3.235 3.045 3.015 3.015
1803.594 3.045 3.095 3.005 2.965 2.985 3.085 3.135 3.025 3.075 3.195
1822.884 3.195 3.215 3.295 3.295 3.315 3.225 3.035 2.975 2.945 2.705
1842.174 2.335 2.095 1.945 1.845 1.745 1.555 1.475 1.505 1.445 1.385
1861.464 1.445 1.455 1.485 1.475 1.465 1.495 1.395 1.305 1.345 1.535
1880.754 1.545 1.455 1.445 1.355 1.325 1.315 1.395 1.585 1.755 1.735
1900.043 1.775 2.155 2.445 2.685 3.015 3.365 3.715 3.975 4.195 4.105
1919.333 3.785 3.475 3.115 2.845 2.365 1.915 1.685 1.385 1.1991 1.245
1938.623 1.1417 1.0237 1.1015 1.0219 0.9119 0.9613 1.1363 1.1442 1.0758 1.0847
1957.913 1.1902 1.325 1.215 1.0917 1.225 1.255 1.285 1.375 1.325 1.245
1977.202 1.1525 1.1616 1.225 1.215 1.1061 1.1976 1.295 1.1816 1.0116 1.0872
1996.492 1.355 1.335 1.225 1.1906 1.225 1.225 1.146 1.1651 1.1471 1.0566
2015.782 1.0589 1.1038 1.0813 0.9313 0.8496 0.9461 0.9807 0.8961 0.87 0.9257
2035.072 0.9466 1.0148 0.8935 0.8321 0.8869 0.8654 0.9879 1.0544 1.0502 1.0878
2054.362 0.9496 0.8673 0.9367 0.8361 0.7692 0.9027 0.897 0.858 0.9077 0.9085
2073.651 0.8383 0.8032 0.8299 0.7984 0.8419 0.7892 0.7145 0.8047 0.8763 0.8834
2092.941 0.9678 0.9628 0.9491 0.8456 0.6499 0.706 0.6672 0.6912 0.8231 0.8284
2112.231 0.8805 0.8489 0.7988 0.7945 0.8926 0.969 0.9238 0.8389 0.7029 0.7268
2131.521 0.7579 0.7191 0.8229 0.9356 0.9494 0.8403 0.7868 0.7586 0.7736 0.799
2150.810 0.6863 0.6563 0.6845 0.6824 0.7868 0.8136 0.7643 0.8337 0.9045 0.9816
2170.100 0.8807 0.8145 0.862 0.775 0.7595 0.8191 0.8637 0.957 0.9123 0.928
2189.390 0.8586 0.7982 0.8624 0.7798 0.9237 1.0899 1.0937 0.957 0.8715 0.9455
2208.680 0.8649 0.8022 0.8049 1.0137 1.265 1.0835 1.0365 1.1554 1.245 1.355
2227.970 1.315 1.265 1.395 1.505 1.435 1.385 1.305 1.285 1.455 1.565
2247.259 1.385 1.245 1.325 1.225 1.1916 1.395 1.515 1.535 1.485 1.565
2266.549 1.745 1.845 1.855 1.925 1.975 1.915 1.865 1.905 1.965 1.815
2285.839 1.715 1.555 1.405 1.615 1.825 1.715 1.605 1.655 1.665 1.655
2305.129 1.455 1.255 1.375 1.515 1.505 1.505 1.415 1.245 1.305 1.315
2324.418 1.275 1.295 1.295 1.285 1.1385 1.0514 1.335 1.435 1.1015 1.0322
2343.708 1.0507 0.9643 1.0946 1.215 1.285 1.225 1.1306 1.1095 0.9947 0.9435
2362.998 1.0355 1.0325 1.1819 1.2045 1.0413 1.1582 1.0606 0.9024 0.8147 0.917
2382.288 1.0129 0.8486 0.9492 1.225 1.315 1.255 1.0964 0.9969 0.9502 0.8708
2401.578 0.85 0.8479 0.8206 0.8022 0.8141 0.9005 1.0041 0.788 0.7222 0.7987
2420.867 0.7877 0.86 0.9253 0.8101 0.6079 0.8838 1.1334 1.1453 1.163 1.1927
2440.157 1.245 1.265 1.285 1.255 1.205 1.255 1.1464 1.1311 1.275 1.1121
2459.447 1.265 1.565 1.505 1.365 1.305 1.285 1.235 1.1128 1.1349 1.365
2478.737 1.475 1.335 1.1472 1.1249 1.1602 1.245 1.1403 1.1685 1.395 1.395
2498.026 1.365 1.415 1.345 1.375 1.585 1.645 1.645 1.665 1.685 1.795
2517.316 1.785 1.775 1.825 1.645 1.505 1.475 1.305 1.1902 1.355 1.265
2536.606 1.225 1.215 1.0591 1.1547 1.125 1.0488 0.9922 0.9301 1.1446 1.1767
2555.896 0.9193 0.8074 0.5985 0.472 0.5872 0.8982 1.225 1.1712 1.0314 0.9237
2575.186 0.8563 0.8897 0.7994 0.6257 0.661 0.6641 0.6146 0.5666 0.6736 0.7353
2594.475 0.7077 0.5878 0.8486 1.265 0.8953 0.5503 0.571 0.7046 0.7671 0.6448
2613.765 0.6671 0.6852 0.5508 0.8636 0.9966 0.7375 0.7225 0.6661 0.7402 0.8254
2633.055 0.7087 0.7865 0.7176 0.5881 0.659 0.5588 0.5161 0.7443 0.8132 0.7665
2652.345 0.7942 0.6337 0.5337 0.5986 0.9082 1.0517 0.9133 0.9871 0.8431 0.7647
2671.634 0.8186 0.7313 0.6812 0.741 0.7027 0.8218 1.0222 0.9309 0.9308 0.8729
2690.924 0.8465 0.7347 0.6414 0.7186 0.8339 0.9571 0.9387 1.1062 1.235 1.325
2710.214 1.265 0.9485 0.8926 1.0056 1.1361 1.325 1.375 1.445 1.545 1.455
2729.504 1.385 1.725 2.175 2.125 1.975 2.185 2.305 2.315 2.425 2.465
2748.794 2.395 2.205 2.025 1.975 1.825 1.745 1.865 1.965 1.655 1.565
2768.083 1.585 1.335 1.445 1.485 1.335 1.435 1.435 1.355 1.545 1.625
2787.373 1.585 1.315 1.305 1.635 1.865 1.855 1.605 1.765 1.885 1.685
2806.663 1.855 1.755 1.565 1.695 1.785 1.785 1.695 1.985 2.285 2.335
2825.953 2.265 2.225 2.325 2.125 2.175 2.275 2.195 2.395 2.425 2.545
2845.242 2.915 2.855 2.765 2.655 2.645 2.985 3.075 2.845 2.865 3.355
2864.532 3.315 3.265 3.715 4.305 4.745 4.835 5.095 5.845 6.625 7.165
2883.822 7.835 8.595 9.385 9.935 10.615 11.255 11.715 11.925 11.785 11.785
2903.112 11.695 11.455 11.475 11.415 11.045 10.855 10.665 10.675 10.785 10.725
2922.401 10.745 10.835 10.805 11.035 11.345 11.285 11.705 12.605 13.435 14.595
2941.691 16.045 17.575 18.975 19.925 20.605 20.935 20.505 19.705 18.985 18.025
2960.981 16.905 15.725 14.845 14.455 14.235 14.375 15.305 16.775 18.365 19.795
2980.271 21.335 23.095 24.465 25.465 26.065 25.985 24.585 22.635 20.715 18.445
2999.561 16.535 14.975 12.955 10.955 9.845 9.145 8.475 7.985 7.645 7.235
3018.850 6.845 6.875 6.745 6.215 6.115 5.995 5.565 5.225 5.045 4.735
3038.140 4.585 4.525 4.315 4.235 3.985 3.705 3.285 3.345 3.245 2.805
3057.430 2.915 2.975 2.985 2.775 2.995 3.535 3.675 3.945 4.385 4.585
3076.720 4.785 5.265 5.385 5.315 5.425 5.235 5.285 5.295 4.815 4.465
3096.009 3.815 3.085 2.905 2.955 3.185 3.085 2.665 2.575 2.365 1.915
3115.299 1.985 2.225 2.045 1.935 1.885 1.715 1.445 1.365 1.315 1.435
3134.589 1.515 1.295 1.0364 1.0141 1.395 1.545 1.445 1.265 1.285 1.445
3153.879 1.645 1.535 1.585 1.465 1.0577 1.0065 1.215 1.235 1.0414 1.225
3173.169 1.315 1.265 1.1193 1.1879 1.009 0.7996 1.565 1.505 1.1511 1.435
3192.458 1.305 0.8395 0.6351 0.7128 0.8569 0.9659 1.0359 1.235 1.1978 0.9702
3211.748 0.6799 0.8225 1.0374 0.8759 0.9044 0.9599 1.2023 1.225 0.7179 0.6904
3231.038 0.9692 0.9378 0.5264 0.7147 1.0559 0.8067 0.6053 0.9146 1.2025 1.0396
3250.328 1.235 1.435 1.0811 0.6453 0.8636 0.9647 0.9308 0.6817 0.27245 0.543
3269.617 0.6342 0.6104 0.5914 0.3893 0.4773 0.7781 0.7716 0.8602 0.8176 0.5294
3288.907 0.5049 0.5655 0.3285 0.3996 0.6061 0.5655 0.786 0.9276 1.0225 0.9834
3308.197 0.6375 0.5325 0.8099 0.6862 0.3855 0.21959 0.20306 0.838 1.1229 1.0686
3327.487 0.9258 0.5974 0.3893 0.3108 0.4158 0.5913 0.5548 0.3524 0.619 1.0345
3346.777 1.455 1.335 0.7659 0.539 0.8819 1.1882 1.1137 1.0785 0.9344 0.4314
3366.066 0.3819 1.1402 1.275 0.7488 0.5438 0.9685 1.1281 1.073 1.1881 0.8287
3385.356 0.8065 0.9291 0.9931 1.1617 1.0273 1.215 1.285 1.1074 1.0355 1.265
3404.646 1.575 1.455 1.675 1.985 2.045 1.945 1.745 2.005 2.135 2.195
3423.936 2.585 2.545 2.655 3.125 2.945 2.665 2.495 2.135 2.065 2.015
3443.225 2.275 2.165 1.575 1.795 1.485 1.0524 1.1859 1.1416 1.1957 1.255
3462.515 1.285 1.0593 1.1822 1.405 1.1622 0.9162 0.9361 0.9328 0.7841 0.8706
3481.805 0.7981 0.9512 1.1304 1.0152 0.9512 1.097 1.375 1.0651 0.5686 0.4201
3501.095 0.5267 0.5562 0.6787 0.6845 0.6949 0.8763 0.8634 0.7486 0.6301 0.7905
3520.385 0.7072 0.5943 0.5551 0.486 0.27347 0.3359 0.4753 0.3065 0.24229 0.4717
3539.674 0.3203 0 0.4577 0.8895 0.97 0.6636 0.5085 0.6377 0.4926 0.091
3558.964 0.4417 0.7256 0.5836 1.0051 0.8803 0.5763 0.8098 0.8117 0.8954 0.8176
3578.254 0.7139 0.8852 0.9833 1.0032 0.7693 0.7584 0.9764 0.738 0.5607 0.7331
3597.544 0.5804 0.384 0.7522 0.8385 0.7906 1.0427 1.0252 0.8509 0.9198 0.8403
3616.833 0.4402 0.28654 0.3367 0.4985 0.5492 0.54 0.4651 0.3098 0.25621 0.5366
3636.123 0.9228 1.1602 0.9893 0.5801 0.4129 0.25284 0.5847 1.1158 1.0427 0.649
3655.413 0.3849 0.25792 0.1292 0.005 0.007 0.3884 0.6793 0.4647 0.4991 0.5113
3674.703 0.3808 0.3559 0.523 0.6461 0.5499 0.5874 0.5913 0.7957 0.9462 0.6133
3693.993 0.7657 1.365 1.365 1.0413 1.0006 1.0644 0.802 0.30254 0.3748 0.7236
3713.282 0.26877 0.29446 0.6958 0.6186 0.5583 0.4675 0.22898 0.3972 0.6253 0.7274
3732.572 0.6775 0.6159 0.6293 0.5632 0.7817 0.9244 0.9303 0.8455 0.6507 0.8563
3751.862 0.8538 0.7399 0.8866 1.0217 1.1754 1.2045 1.0441 0.6844 0.4961 1.1961
3771.152 1.1889 0.23356 0.4284 0.794 0.6628 0.211287 0.29937 0.7651 1.023 0.9808
3790.441 0.664 0.5278 0.7759 0.9703 0.6568 0.7738 1.1089 1.345 1.1366 0.7226
3809.731 0.4829 0.5292 0.9135 0.6768 0.7379 1.355 0.8948 0.7432 1.1088 0.9864
3829.021 0.967 0.8325 0.7767 0.5562 0.6919 0.9784 1.1867 0.8973 0.7251 1.285
3848.311 1.0427 0.7193 0.9428 1.0271 0.8613 0.6725 0.4998 0.4665 0.3229 0.5104
3867.601 0.9328 1.123 1.245 0.6439 0.5151 0.7804 0.5168 0.5168 0.9377 0.9849
3886.890 0.6179 0.6113 0.709 0.9812 1.215 1.1117 0.9921 0.8103 0.6493 0.9814
3906.180 0.9774 0.3795 0.6688 0.9038 0.8717 0.8867 0.9618 0.9412 0.7605 0.9498
3925.470 0.7047 0.30209 0.1348 0.8373 1.225 0.7798 0.4977 0.4511 0.7085 0.9584
3944.760 0.7375 0.5495 0.8466 0.6646 0.25496 0.8563 1.1953 0.7981 0.8292 1.225
3964.049 1.645 1.1283 0.4667 0.738 1.0011 1.1082 0.807 0.5587 0.8547 0.9586
3983.339 0.7682 0.7514 1.1684 1.178 0.7898 0.6549 0.5304 0.4591 0.5005 0.5839
##END=
