##TITLE=2,4-Difluoropropiophenone
##JCAMP-DX=4.24
##DATA TYPE=INFRARED SPECTRUM
##ORIGIN=EPA-IR VAPOR PHASE LIBRARY
##OWNER=SRD/NIST
Collection (C) 2018 copyright by the U.S. Secretary of Commerce
on behalf of the United States of America. All rights reserved.
##CAS REGISTRY NO=85068-30-0
##MOLFORM=C 9 H 8 F 2 O
##$NIST SOURCE=MSDC-IR
##STATE=gas
##XUNITS=1/CM
##YUNITS=ABSORBANCE
##XFACTOR=1.
##YFACTOR=0.001
##DELTAX=1.92934
##FIRSTX=549.9
##LASTX=3999.5
##FIRSTY=3.883
##MAXX=3999.53
##MINX=549.863
##MAXY=0.046283
##MINY=0
##NPOINTS=1789
##XYDATA=(X++(Y..Y))
549.863 3.883 3.813 3.833 3.743 3.573 3.383 3.283 3.233 3.243 3.203
569.156 3.143 3.183 3.183 3.243 3.333 3.243 3.163 3.153 3.003 2.903
588.450 2.923 3.003 3.143 3.283 3.363 3.383 3.383 3.353 3.433 3.503
607.743 3.363 3.133 2.973 2.993 3.153 3.183 3.003 2.803 2.533 2.293
627.037 2.173 2.033 1.853 1.593 1.437 1.3267 1.2693 1.2962 1.173 1.0987
646.330 1.0556 0.9656 0.9502 0.9795 1.0489 0.9658 0.8288 0.8462 0.8064 0.7773
665.624 0.7488 0.6813 0.6552 0.6517 0.7077 0.7187 0.7106 0.7126 0.6187 0.5613
684.917 0.5777 0.6054 0.6748 0.617 0.5513 0.5963 0.5805 0.5497 0.5657 0.52673
704.210 0.49176 0.53251 0.5542 0.52883 0.5408 0.5745 0.6173 0.6914 0.8495 1.0371
723.504 1.1616 1.3545 1.673 1.923 2.023 2.083 2.133 2.163 2.223 2.143
742.797 1.923 1.713 1.523 1.3225 1.2012 1.1124 1.0348 0.9833 0.9433 0.9858
762.091 0.9938 0.9992 1.0442 1.0157 0.9858 1.0188 1.1121 1.1776 1.2362 1.3444
781.384 1.453 1.623 1.823 2.023 2.223 2.533 2.873 3.073 3.313 3.573
800.678 3.783 3.853 3.833 3.793 3.763 3.753 3.703 3.633 3.543 3.443
819.971 3.373 3.283 3.133 2.983 2.833 2.783 2.813 3.003 3.473 4.213
839.264 5.263 6.503 7.873 9.293 10.593 12.003 14.033 16.743 17.053 14.293
858.558 12.213 11.013 9.643 8.183 6.653 5.233 4.023 3.033 2.283 1.793
877.851 1.493 1.2851 1.1305 1.0121 0.9477 0.9451 0.9278 0.9305 0.9147 0.8993
897.145 0.9641 1.0648 1.1403 1.1754 1.2196 1.3137 1.4261 1.513 1.623 1.733
916.438 1.893 2.123 2.363 2.633 2.883 3.203 3.593 3.943 4.303 4.683
935.732 4.973 5.213 5.423 5.573 5.603 5.603 5.553 5.503 5.523 5.573
955.025 5.823 6.443 7.553 9.413 12.213 15.783 19.273 21.653 22.693 22.933
974.318 22.623 21.583 19.403 15.793 11.613 8.153 5.863 4.423 3.613 3.123
993.612 2.793 2.653 2.613 2.653 2.783 2.983 3.253 3.543 3.833 4.063
1012.905 4.263 4.363 4.323 4.193 3.953 3.663 3.333 2.913 2.453 2.133
1032.199 1.903 1.703 1.563 1.473 1.4212 1.4285 1.4141 1.3814 1.453 1.533
1051.492 1.543 1.533 1.623 1.783 1.963 2.143 2.353 2.623 2.983 3.403
1070.786 3.853 4.333 4.723 5.153 5.633 6.063 6.483 6.913 7.473 8.253
1090.079 9.313 10.773 12.603 14.653 16.543 17.903 18.803 19.373 19.593 19.223
1109.372 18.033 16.113 14.013 12.153 10.433 8.903 7.783 7.053 6.693 6.773
1128.666 7.293 8.173 9.503 11.073 12.323 13.173 13.693 13.833 13.533 12.693
1147.959 11.343 9.483 7.653 6.263 5.063 4.223 3.723 3.373 3.213 3.083
1167.253 3.023 3.143 3.383 3.683 3.943 4.403 5.143 6.193 7.503 8.963
1186.546 10.843 13.153 15.403 17.323 19.103 20.563 21.403 21.733 21.193 19.683
1205.840 17.973 15.943 14.013 12.533 11.233 10.183 9.513 9.513 9.773 10.683
1225.133 12.203 13.933 16.283 18.813 21.013 23.013 24.503 25.523 25.923 25.563
1244.426 24.663 23.313 21.863 20.673 19.823 19.483 19.673 20.233 20.913 21.483
1263.720 21.683 21.533 21.083 20.283 19.223 17.883 16.243 14.633 13.333 12.263
1283.013 11.393 10.753 10.253 9.873 9.543 9.223 9.013 8.773 8.543 8.353
1302.307 8.193 7.993 7.733 7.513 7.283 6.973 6.673 6.413 6.193 5.943
1321.600 5.693 5.513 5.403 5.323 5.263 5.273 5.323 5.473 5.633 5.843
1340.894 6.113 6.413 6.693 6.913 7.063 7.193 7.273 7.193 6.983 6.783
1360.187 6.533 6.173 5.803 5.463 5.103 4.783 4.543 4.383 4.253 4.193
1379.480 4.183 4.133 4.093 4.073 4.063 4.073 4.073 4.083 4.143 4.273
1398.774 4.553 5.033 5.643 6.353 7.233 8.273 9.483 10.793 12.123 13.483
1418.067 14.723 15.783 16.503 16.833 16.753 16.293 15.463 14.363 13.023 11.463
1437.361 9.863 8.443 7.253 6.353 5.733 5.343 5.123 5.053 5.173 5.453
1456.654 5.883 6.493 7.133 7.693 8.093 8.363 8.493 8.483 8.353 8.113
1475.948 7.843 7.643 7.693 8.083 8.833 9.933 11.263 12.683 13.963 14.763
1495.241 14.983 14.733 14.083 13.043 11.553 9.713 7.743 6.073 4.873 3.963
1514.534 3.343 2.953 2.663 2.433 2.273 2.173 2.103 2.043 1.993 1.963
1533.828 1.953 1.983 2.023 2.043 2.113 2.213 2.373 2.573 2.773 2.993
1553.121 3.253 3.593 3.923 4.283 4.773 5.283 5.833 6.433 7.163 7.953
1572.415 8.823 9.793 10.893 12.113 13.463 14.953 16.523 18.253 20.103 22.143
1591.708 24.373 26.843 29.513 32.393 35.343 38.293 41.173 43.643 45.383 46.283
1611.002 46.153 44.923 42.813 39.893 36.443 32.743 28.833 25.073 21.693 18.673
1630.295 16.083 13.933 12.163 10.693 9.553 8.663 7.933 7.353 6.823 6.393
1649.588 6.093 5.803 5.473 5.273 5.173 5.083 4.963 4.903 4.873 4.853
1668.882 4.933 5.103 5.333 5.623 6.033 6.593 7.313 8.193 9.363 10.863
1688.175 12.643 14.733 17.263 20.073 23.133 26.083 28.603 30.613 31.683 32.033
1707.469 31.843 31.013 29.233 26.453 23.103 19.823 16.963 14.613 12.553 10.773
1726.762 9.273 8.033 7.043 6.233 5.573 5.033 4.573 4.133 3.733 3.413
1746.056 3.083 2.753 2.473 2.243 2.053 1.853 1.723 1.583 1.453 1.3695
1765.349 1.3235 1.2749 1.1967 1.1243 1.0755 1.0433 1.0105 0.9793 0.9468 0.8901
1784.642 0.8612 0.824 0.7912 0.7779 0.7279 0.6931 0.6874 0.6817 0.6454 0.6116
1803.936 0.6146 0.6247 0.6053 0.5673 0.5597 0.5575 0.51909 0.52354 0.52584 0.50411
1823.229 0.51703 0.53183 0.52228 0.5279 0.52937 0.52674 0.53019 0.52068 0.50406 0.46295
1842.523 0.45724 0.46348 0.49596 0.52031 0.49306 0.47783 0.49711 0.53353 0.54096 0.5492
1861.816 0.581 0.5724 0.5832 0.595 0.5785 0.5951 0.615 0.6281 0.6228 0.6325
1881.110 0.6159 0.5577 0.5499 0.53476 0.54154 0.5625 0.5235 0.49966 0.49021 0.4912
1900.403 0.50462 0.51926 0.53151 0.51035 0.52891 0.5495 0.54226 0.53218 0.5594 0.5659
1919.696 0.5046 0.48849 0.48455 0.45981 0.43859 0.449351 0.46103 0.4314 0.43651 0.46523
1938.990 0.43596 0.3895 0.4141 0.43453 0.3793 0.3783 0.3911 0.3623 0.3627 0.3519
1958.283 0.316 0.307 0.33 0.331 0.319 0.3456 0.3624 0.34 0.311 0.315
1977.577 0.319 0.336 0.3447 0.324 0.318 0.302 0.305 0.293 0.279 0.291
1996.870 0.306 0.3 0.32 0.327 0.315 0.295 0.264 0.249 0.271 0.293
2016.164 0.247 0.238 0.25 0.224 0.263 0.277 0.253 0.271 0.28 0.272
2035.457 0.249 0.251 0.253 0.274 0.314 0.296 0.244 0.261 0.285 0.271
2054.750 0.227 0.203 0.207 0.179 0.176 0.177 0.205 0.236 0.217 0.245
2074.044 0.282 0.262 0.279 0.286 0.268 0.245 0.208 0.203 0.201 0.189
2093.337 0.178 0.161 0.157 0.181 0.211 0.227 0.231 0.217 0.206 0.228
2112.631 0.237 0.236 0.246 0.257 0.26 0.246 0.237 0.232 0.217 0.215
2131.924 0.222 0.206 0.174 0.163 0.155 0.151 0.187 0.2 0.187 0.196
2151.218 0.214 0.206 0.184 0.183 0.173 0.155 0.156 0.162 0.164 0.158
2170.511 0.151 0.171 0.164 0.134 0.15 0.182 0.177 0.162 0.16 0.171
2189.804 0.18 0.192 0.207 0.206 0.195 0.194 0.218 0.245 0.233 0.205
2209.098 0.255 0.284 0.265 0.26 0.242 0.242 0.243 0.262 0.277 0.265
2228.391 0.245 0.24 0.255 0.279 0.303 0.288 0.276 0.286 0.273 0.269
2247.685 0.266 0.255 0.26 0.257 0.225 0.222 0.231 0.232 0.225 0.193
2266.978 0.197 0.216 0.231 0.245 0.252 0.224 0.21 0.248 0.263 0.237
2286.272 0.229 0.262 0.268 0.23 0.208 0.221 0.254 0.251 0.249 0.248
2305.565 0.236 0.26 0.281 0.283 0.277 0.297 0.334 0.3747 0.3958 0.3838
2324.858 0.3755 0.3859 0.4137 0.447665 0.49971 0.53412 0.50917 0.49228 0.51887 0.49744
2344.152 0.47182 0.47902 0.47466 0.451079 0.4081 0.379 0.3661 0.3786 0.3788 0.34
2363.445 0.306 0.311 0.345 0.338 0.3533 0.3813 0.3692 0.3846 0.3869 0.3987
2382.739 0.4131 0.4162 0.451064 0.452518 0.4169 0.3927 0.3735 0.3918 0.4081 0.3848
2402.032 0.3845 0.4088 0.3965 0.3783 0.3872 0.3846 0.3548 0.338 0.337 0.298
2421.326 0.294 0.319 0.336 0.325 0.291 0.319 0.337 0.335 0.321 0.306
2440.619 0.307 0.277 0.282 0.289 0.276 0.296 0.28 0.259 0.28 0.291
2459.912 0.269 0.261 0.278 0.262 0.239 0.223 0.228 0.242 0.208 0.18
2479.206 0.155 0.148 0.145 0.116 0.11 0.114 0.124 0.134 0.125 0.122
2498.499 0.146 0.162 0.132 0.125 0.124 0.147 0.187 0.148 0.143 0.188
2517.793 0.189 0.185 0.186 0.212 0.211 0.157 0.144 0.155 0.189 0.201
2537.086 0.205 0.222 0.198 0.16 0.174 0.226 0.244 0.19 0.175 0.252
2556.380 0.258 0.246 0.312 0.3473 0.3709 0.3819 0.3699 0.355 0.33 0.354
2575.673 0.3534 0.298 0.296 0.304 0.263 0.238 0.21 0.221 0.264 0.253
2594.966 0.229 0.183 0.165 0.15 0.141 0.14 0.116 0.135 0.14 0.147
2614.260 0.117 0.096 0.113 0.135 0.133 0.081 0.083 0.125 0.158 0.163
2633.553 0.116 0.087 0.12 0.104 0.088 0.09 0.082 0.086 0.083 0.082
2652.847 0.069 0.026 0 0.003 0.026 0.073 0.115 0.125 0.106 0.101
2672.140 0.098 0.094 0.094 0.095 0.117 0.119 0.103 0.067 0.1 0.184
2691.434 0.156 0.11 0.117 0.166 0.195 0.15 0.168 0.211 0.205 0.204
2710.727 0.183 0.177 0.176 0.196 0.222 0.183 0.164 0.179 0.192 0.227
2730.020 0.229 0.261 0.305 0.313 0.317 0.304 0.296 0.296 0.236 0.204
2749.314 0.209 0.237 0.271 0.239 0.227 0.207 0.207 0.261 0.297 0.297
2768.607 0.246 0.181 0.191 0.241 0.252 0.21 0.182 0.162 0.163 0.183
2787.901 0.256 0.293 0.248 0.256 0.278 0.245 0.273 0.328 0.306 0.266
2807.194 0.292 0.3504 0.305 0.241 0.257 0.328 0.354 0.3516 0.3864 0.47046
2826.488 0.45569 0.43792 0.43575 0.373 0.4112 0.45697 0.47329 0.48506 0.48616 0.50828
2845.781 0.50518 0.48008 0.5517 0.6071 0.6078 0.6419 0.6219 0.6249 0.722 0.7932
2865.074 0.8134 0.9048 1.0293 1.1054 1.1811 1.3371 1.533 1.723 1.873 2.063
2884.368 2.323 2.543 2.743 2.873 2.963 3.053 3.083 2.973 2.803 2.683
2903.661 2.653 2.563 2.553 2.563 2.563 2.623 2.773 2.953 3.043 3.073
2922.955 3.173 3.273 3.343 3.373 3.393 3.483 3.563 3.733 4.033 4.443
2942.248 4.983 5.633 6.203 6.513 6.653 6.653 6.473 6.143 5.683 5.103
2961.542 4.663 4.333 4.083 4.073 4.173 4.313 4.463 4.843 5.353 5.953
2980.835 6.493 6.913 7.313 7.543 7.573 7.523 7.413 7.003 6.323 5.573
3000.128 4.913 4.283 3.753 3.233 2.813 2.553 2.293 2.093 1.863 1.663
3019.422 1.513 1.4058 1.3012 1.1963 1.1398 1.0652 0.9548 0.9392 0.8934 0.7779
3038.715 0.7429 0.6559 0.6594 0.6833 0.6052 0.632 0.6608 0.6202 0.5926 0.6429
3058.009 0.681 0.6269 0.608 0.5566 0.52642 0.5431 0.48619 0.5347 0.6467 0.7251
3077.302 0.8294 0.9526 1.0107 0.9848 1.0394 1.0479 1.0456 1.1051 1.0594 1.047
3096.596 1.0528 0.938 0.8871 0.9028 0.8628 0.6909 0.5601 0.5926 0.53301 0.4291
3115.889 0.3496 0.21 0.181 0.253 0.257 0.22 0.21 0.235 0.236 0.193
3135.182 0.163 0.183 0.18 0.241 0.283 0.3 0.227 0.159 0.231 0.181
3154.476 0.122 0.13 0.196 0.288 0.3 0.214 0.13 0.09 0.146 0.23
3173.769 0.291 0.265 0.128 0.122 0.162 0.164 0.213 0.289 0.303 0.199
3193.063 0.216 0.248 0.132 0.195 0.3463 0.3607 0.319 0.256 0.224 0.178
3212.356 0.159 0.244 0.251 0.213 0.24 0.216 0.174 0.144 0.047 0.01
3231.650 0.089 0.157 0.136 0.135 0.049 0.01 0.167 0.184 0.159 0.239
3250.943 0.223 0.098 0.031 0.098 0.184 0.179 0.191 0.186 0.081 0.087
3270.236 0.191 0.192 0.218 0.219 0.224 0.247 0.289 0.247 0.137 0.199
3289.530 0.187 0.156 0.182 0.151 0.139 0.241 0.269 0.16 0.151 0.183
3308.823 0.213 0.215 0.192 0.17 0.202 0.246 0.199 0.285 0.314 0.241
3328.117 0.319 0.315 0.21 0.309 0.4 0.333 0.296 0.326 0.275 0.16
3347.410 0.299 0.3505 0.31 0.274 0.305 0.3699 0.339 0.3712 0.3932 0.429
3366.704 0.44079 0.50659 0.6316 0.5632 0.49409 0.5731 0.6185 0.6566 0.6669 0.7254
3385.997 0.8 0.8234 0.7593 0.7651 0.8201 0.7778 0.8575 0.8987 0.7323 0.6905
3405.290 0.687 0.6285 0.5878 0.52296 0.52704 0.53735 0.45478 0.45744 0.5869 0.53389
3424.584 0.3972 0.46467 0.53521 0.48241 0.4009 0.4085 0.5577 0.5923 0.49095 0.46505
3443.877 0.4182 0.3556 0.285 0.333 0.43996 0.3798 0.329 0.34 0.3671 0.34
3463.171 0.333 0.3878 0.423 0.288 0.126 0.244 0.3861 0.4322 0.4229 0.333
3482.464 0.325 0.3984 0.45843 0.3976 0.3546 0.4233 0.48077 0.49914 0.49869 0.428
3501.758 0.3997 0.448761 0.47931 0.444032 0.3698 0.3565 0.38 0.387 0.45608 0.446538
3521.051 0.3551 0.4299 0.49555 0.51806 0.5489 0.50752 0.3739 0.336 0.3701 0.351
3540.344 0.3491 0.4116 0.53443 0.46215 0.3592 0.49749 0.50012 0.3773 0.3478 0.323
3559.638 0.335 0.3931 0.449585 0.4274 0.3617 0.3671 0.3831 0.3783 0.3512 0.3937
3578.931 0.47499 0.51184 0.4617 0.3881 0.3819 0.3438 0.347 0.3922 0.45941 0.4249
3598.225 0.332 0.3981 0.5542 0.50152 0.43739 0.4301 0.3891 0.4195 0.4154 0.4082
3617.518 0.3804 0.4039 0.45761 0.444581 0.4237 0.4042 0.3858 0.46827 0.445317 0.323
3636.812 0.312 0.34 0.3912 0.46444 0.47173 0.447033 0.3451 0.3778 0.51916 0.47467
3656.105 0.43471 0.334 0.296 0.4223 0.46998 0.4253 0.4121 0.3956 0.334 0.3461
3675.398 0.3981 0.4221 0.43703 0.447743 0.3454 0.336 0.46254 0.4163 0.339 0.256
3694.692 0.313 0.4047 0.3656 0.3556 0.3658 0.3987 0.3857 0.3538 0.4009 0.43749
3713.985 0.395 0.343 0.325 0.423 0.49591 0.445424 0.3453 0.28 0.34 0.3888
3733.279 0.43739 0.49031 0.4155 0.3555 0.334 0.324 0.301 0.263 0.3806 0.3846
3752.572 0.316 0.43446 0.43744 0.363 0.4355 0.50195 0.45374 0.48722 0.50151 0.43451
3771.866 0.3736 0.4164 0.452904 0.4194 0.4164 0.4079 0.4174 0.47313 0.5356 0.45902
3791.159 0.3902 0.3837 0.342 0.316 0.3509 0.3705 0.3994 0.4217 0.3789 0.3516
3810.452 0.3936 0.4231 0.45626 0.43851 0.386 0.46086 0.46892 0.3678 0.3523 0.3849
3829.746 0.328 0.291 0.3474 0.4077 0.3773 0.3685 0.3825 0.3698 0.404 0.384
3849.039 0.311 0.244 0.17 0.242 0.3876 0.425 0.3941 0.4103 0.3861 0.3534
3868.333 0.4254 0.4141 0.3922 0.3603 0.287 0.255 0.328 0.43595 0.3828 0.314
3887.626 0.31 0.265 0.277 0.3999 0.3829 0.313 0.3712 0.3457 0.3455 0.336
3906.920 0.266 0.294 0.3435 0.3479 0.3434 0.3537 0.3478 0.317 0.3569 0.3567
3926.213 0.31 0.3563 0.342 0.3651 0.3976 0.3889 0.3927 0.3897 0.45536 0.46652
3945.506 0.3633 0.307 0.34 0.3672 0.314 0.317 0.37 0.34 0.314 0.258
3964.800 0.283 0.3439 0.34 0.319 0.3453 0.444566 0.45427 0.45301 0.43854 0.4034
3984.093 0.4058 0.3822 0.3546 0.3809 0.4097 0.4253 0.3959 0.329 0.3497
##END=
