##TITLE=3-Chloro-2-fluorotoluene
##JCAMP-DX=4.24
##DATA TYPE=INFRARED SPECTRUM
##ORIGIN=EPA-IR VAPOR PHASE LIBRARY
##OWNER=SRD/NIST
Collection (C) 2018 copyright by the U.S. Secretary of Commerce
on behalf of the United States of America. All rights reserved.
##CAS REGISTRY NO=85089-31-2
##MOLFORM=C 7 H 6 Cl F
##$NIST SOURCE=MSDC-IR
##STATE=gas
##XUNITS=1/CM
##YUNITS=ABSORBANCE
##XFACTOR=1.
##YFACTOR=0.001
##DELTAX=1.92898
##FIRSTX=549.8
##LASTX=4000.7
##FIRSTY=2.17
##MAXX=4000.7
##MINX=549.759
##MAXY=0.09514
##MINY=0
##NPOINTS=1790
##XYDATA=(X++(Y..Y))
549.759 2.17 1.8794 1.3023 0.997 1.5581 1.3299 0.633 0.443 0.613 0.354
569.049 0.264 0.598 0.149 0 0.785 1.07489 1.1679 1.6086 1.6 1.6977
588.339 1.7292 1.4476 1.667 1.3912 1.0126 1.3182 1.3273 1.15102 1.627 2.78
607.628 3.93 5.21 7.42 10.21 13.02 15.12 16.36 17.52 18.26 17.68
626.918 17.33 17.78 17.35 15.83 13.37 10.16 6.97 4.63 3.18 2.37
646.208 2.49 2.18 1.4491 1.5351 1.8823 1.4327 1.11917 1.4253 1.5098 1.2177
665.498 0.955 0.962 0.773 0.874 0.835 1.10517 1.3472 0.69 0.764 0.9762
684.787 0.914 1.4376 1.9862 2.13 2.7 3.47 4.56 5.9 7.22 8.41
704.077 9.2 10.24 11.29 13.79 18.89 24.27 22.85 15.96 12.51 12.6
723.367 12.73 11.68 10.43 9.15 7.68 6.81 6.05 5.39 5.26 5.9
742.657 7.69 9.89 12.71 15.81 18.89 22.73 26.14 29.37 33.01 37.5
761.947 44.84 55.65 64.58 57.32 41.81 34.7 32.8 31.66 29.26 25.63
781.236 21.44 17.76 14.33 11.07 9.06 7.71 7.27 7.12 6.92 7.38
800.526 7.89 7.92 8.68 9.67 10.37 11.05 11.78 13.5 14.65 14.74
819.816 14.79 15.38 15.27 13.96 14.06 13.97 13.37 12.39 10.84 9.72
839.106 8.72 7.99 6.89 5.92 5.54 5.29 5.58 6.36 8.04 10.95
858.395 14.88 20.59 27.15 33.06 37.53 39.76 40.71 42.46 42.29 39.66
877.685 38.9 38.06 32.67 24.06 16.06 10.24 6.17 4.13 3.61 3.21
896.975 2.99 2.67 2.2 2.11 1.9802 1.8796 2.0093 2.08 2.0175 2.22
916.265 2.28 2.4 2.58 2.42 2.59 2.92 2.83 2.61 2.42 2.32
935.555 2.78 2.83 2.34 2.51 2.74 2.8 2.65 2.68 3.01 2.84
954.844 3.15 3.89 3.96 3.67 3.54 3.53 3.83 4.25 4.82 4.83
974.134 4.68 5.13 5.13 5.16 5.13 5.08 5.27 5.17 5.02 5
993.424 5.24 5.45 5.5 5.5 5.68 6.19 6.13 5.8 4.9 4.23
1012.714 4.3 3.77 3.59 3.45 3.24 3.12 2.82 2.72 2.68 3.01
1032.003 3.16 2.7 2.21 2.41 3.29 3.86 4.18 4.49 4.98 6.4
1051.293 6.57 6.04 6.32 6.98 8.38 9.54 9.22 9.03 10.34 11.04
1070.583 11.29 11.36 10.96 11.46 11.9 11.97 11.76 10.5 9.84 10.49
1089.873 10.62 9.92 9.09 8.97 8.62 6.9 5.62 6 6.08 4.62
1109.163 3.97 3.38 3.07 3.26 2.52 2.6 2.61 2.33 2.0571 2.91
1128.452 2.98 2.15 2.79 3.28 4.36 5.87 7.27 8.45 8.95 9.08
1147.742 9.97 10.17 9.28 9.95 10.54 9.72 8.7 8.4 8.67 9.14
1167.032 9.61 9.94 10.96 13.01 13.79 12.58 11.93 11.45 10.6 10.19
1186.322 9.7 9.07 8.27 6.53 5.61 6.14 6.73 6.44 6.52 7.16
1205.611 8.38 10.31 12.36 14.59 15.83 17.8 22.44 26.19 27.94 30.72
1224.901 32.35 31.7 30.15 28.77 28.78 30.01 30.95 29.1 24.86 21.67
1244.191 19.67 18.33 18.06 18.11 18.96 21 24.51 27.84 30.65 33.25
1263.481 34.28 33.37 32.14 32.08 32.12 31.57 29.89 26.32 21.4 16.8
1282.771 13.61 11.27 9.29 7.94 7.14 6.75 6.21 5.87 5.84 5.41
1302.060 5.04 4.79 4.46 4.21 3.99 3.57 3.3 3.15 3.03 2.84
1321.350 2.67 2.54 2.28 2.23 2.21 2.1 2.14 2.14 1.9347 2.0178
1340.640 2.16 2.12 2.05 2.15 2.25 2.2 2.25 2.26 2.3 2.41
1359.930 2.35 2.44 2.65 2.86 2.96 2.96 3.11 3.28 3.56 3.86
1379.219 4.12 4.38 4.59 4.6 4.63 4.73 4.9 4.95 4.83 4.72
1398.509 4.57 4.49 4.39 4.34 4.37 4.53 4.85 5.37 6.19 7.08
1417.799 8.02 9.35 10.88 12.34 14 15.98 18.68 21.74 24.81 27.95
1437.089 31.21 34.63 38.66 43.09 47.62 52.2 56.73 60.92 65.43 70.47
1456.378 75.48 80.43 84.72 88.31 91.34 93.72 95.14 94.98 92.93 89.3
1475.668 84.89 80.51 76.17 71.03 64.47 56.6 48.46 41.32 34.96 29.69
1494.958 25.43 21.65 18.71 16.33 14.44 12.96 11.77 10.84 9.87 9.23
1514.248 8.78 8.27 8.06 8.12 8.01 7.82 7.94 7.97 7.85 7.74
1533.538 7.65 7.68 7.52 7.17 7.05 6.94 6.72 6.56 6.28 6.09
1552.827 6.22 6.34 6.39 6.38 6.44 6.59 6.92 7.07 7.32 7.43
1572.117 7.28 7.52 7.79 8.05 8.03 7.83 7.96 8.23 8 7.95
1591.407 8.38 9 9.66 9.95 10.24 10.54 10.76 11.03 10.99 10.62
1610.697 10.08 9.49 8.82 7.58 6.15 4.86 3.76 2.87 2.56 2.56
1629.986 2.58 2.72 2.76 2.76 2.72 3.02 3.34 3.49 3.68 3.98
1649.276 4.05 4.02 4.04 3.93 3.75 3.49 3.21 2.85 2.64 2.52
1668.566 2.34 2.09 2.0024 2.0444 1.882 1.7019 1.7603 1.8116 1.7199 1.7525
1687.856 1.6627 1.5674 1.531 1.5594 1.6342 1.4523 1.4588 1.5282 1.49 1.5972
1707.146 1.6716 1.6909 1.7457 1.6571 1.53 1.6263 1.7264 1.6285 1.5911 1.6445
1726.435 1.5354 1.4926 1.4591 1.3956 1.3869 1.3532 1.4078 1.4758 1.5792 1.5289
1745.725 1.3889 1.4314 1.4746 1.5178 1.5999 1.8065 2.07 2.17 2.39 2.65
1765.015 2.76 2.81 2.84 2.86 2.8 2.73 2.76 2.65 2.5 2.47
1784.305 2.26 1.9327 1.8257 1.7094 1.5344 1.54 1.5581 1.5053 1.3647 1.3624
1803.594 1.4709 1.5302 1.5316 1.5298 1.53 1.525 1.6071 1.6947 1.7024 1.7125
1822.884 1.905 2.16 2.27 2.38 2.61 2.87 3.09 3.34 3.49 3.54
1842.174 3.68 3.84 3.86 3.72 3.58 3.51 3.39 2.95 2.63 2.5
1861.464 2.14 1.9053 1.779 1.6964 1.6857 1.5959 1.4663 1.4105 1.4885 1.5619
1880.754 1.5018 1.5256 1.6721 1.7169 1.7283 1.8207 1.8968 1.9137 2.0258 2.17
1900.043 2.35 2.57 2.69 2.84 2.81 2.88 3.07 3.06 3.07 3.03
1919.333 3.06 3.12 2.98 2.72 2.53 2.28 2.13 2.0436 1.8274 1.624
1938.623 1.6962 1.6519 1.4222 1.3993 1.4617 1.3349 1.2488 1.3067 1.2596 1.2954
1957.913 1.3121 1.1932 1.219 1.2185 1.08217 1.2248 1.465 1.3999 1.302 1.2474
1977.202 1.2597 1.3565 1.4626 1.399 1.2254 1.3135 1.501 1.4261 1.3524 1.5472
1996.492 1.5758 1.5256 1.4751 1.4815 1.5846 1.585 1.5401 1.4853 1.4538 1.4436
2015.782 1.4284 1.3912 1.3846 1.4942 1.4666 1.3116 1.13132 1.221 1.4557 1.497
2035.072 1.4391 1.5316 1.567 1.3367 1.3912 1.4836 1.5362 1.4679 1.2648 1.3483
2054.362 1.631 1.6153 1.45 1.5595 1.71 1.6012 1.4468 1.4391 1.4426 1.4873
2073.651 1.4813 1.4929 1.462 1.4565 1.3913 1.3233 1.3938 1.4686 1.5446 1.4649
2092.941 1.3434 1.4788 1.6868 1.6679 1.5613 1.5283 1.5451 1.4487 1.4283 1.4277
2112.231 1.3135 1.3443 1.393 1.3059 1.15298 1.2795 1.3858 1.3856 1.3638 1.2292
2131.521 1.2879 1.2398 1.1659 1.14291 1.2288 1.3512 1.13395 1.1056 1.2241 1.09576
2150.810 1.12849 1.2057 1.14421 1.1979 1.23 1.14739 1.15326 1.05686 0.928 1.049
2170.100 1.09177 1.13373 1.1884 1.2583 1.3351 1.1736 1.08064 1.1727 1.2162 1.13059
2189.390 1.1306 1.2271 1.3218 1.3911 1.3253 1.2827 1.2234 1.1609 1.11653 1.048
2208.680 1.0418 1.2433 1.3486 1.2924 1.2791 1.2431 1.3146 1.3841 1.3678 1.212
2227.970 1.2051 1.2704 1.3742 1.456 1.3644 1.3877 1.3952 1.3978 1.4053 1.4087
2247.259 1.3854 1.4445 1.5818 1.7314 1.7853 1.6319 1.5727 1.6773 1.8122 1.8997
2266.549 1.9046 1.8122 1.7697 1.7619 1.8308 1.8792 1.7211 1.6509 1.6122 1.776
2285.839 1.7162 1.5163 1.6728 1.8335 1.8495 1.6991 1.714 1.7261 1.669 1.6795
2305.129 1.6873 1.6801 1.6222 1.5263 1.5386 1.536 1.3876 1.3198 1.3592 1.4049
2324.418 1.4694 1.5136 1.5688 1.5559 1.4458 1.4661 1.364 1.207 1.2551 1.4024
2343.708 1.5047 1.5556 1.6407 1.6646 1.641 1.5675 1.5333 1.4296 1.4682 1.6748
2362.998 1.5889 1.4794 1.4189 1.4016 1.5013 1.3967 1.4238 1.7006 1.5735 1.4632
2382.288 1.592 1.5673 1.5269 1.5069 1.5108 1.554 1.5935 1.6968 1.6843 1.5926
2401.578 1.8054 1.7487 1.493 1.4737 1.5003 1.5259 1.5569 1.6568 1.6119 1.7196
2420.867 1.8577 1.6287 1.6554 1.8985 1.734 1.652 1.8479 1.8277 1.6715 1.5561
2440.157 1.737 1.8619 1.9457 1.8474 1.7348 1.8396 1.8061 1.8444 1.977 1.9563
2459.447 1.7927 1.7453 1.805 1.9573 1.9301 1.7033 1.5312 1.693 1.5828 1.4608
2478.737 1.6383 1.4708 1.6044 1.6391 1.4801 1.8222 1.7895 1.6345 1.5654 1.5201
2498.026 1.6883 1.5999 1.5525 1.5487 1.5854 1.7249 1.7229 1.7768 1.8929 1.8699
2517.316 1.8034 1.7729 1.9156 2.0358 2.0021 2.0269 1.9395 1.8542 1.8458 1.9247
2536.606 1.98 2.08 2.0308 1.8445 1.9265 2.0523 1.9054 1.7015 1.9049 2.26
2555.896 2.32 2.22 2.15 2.0072 1.8225 1.8054 1.7761 1.7095 1.8061 1.9506
2575.186 1.7653 1.4679 1.479 1.6884 1.996 1.9999 1.8467 1.676 1.7287 1.7209
2594.475 1.5404 1.3324 1.2252 1.3937 1.351 1.3497 1.4272 1.3184 1.3497 1.3643
2613.765 1.5187 1.749 1.605 1.3528 1.2836 1.3149 1.2712 1.388 1.4558 1.3242
2633.055 1.2928 1.4612 1.3729 1.2772 1.4033 1.5441 1.5509 1.4602 1.5201 1.5982
2652.345 1.6032 1.5235 1.4874 1.3593 1.3164 1.4695 1.5109 1.349 1.2006 1.2069
2671.634 1.2002 1.2704 1.4595 1.477 1.3239 1.2217 1.15936 1.09341 1.261 1.4363
2690.924 1.4738 1.4011 1.08786 1.12928 1.3474 1.3203 1.3471 1.4548 1.4145 1.3627
2710.214 1.4405 1.4219 1.4388 1.4141 1.2863 1.4667 1.5303 1.6201 1.8456 1.7745
2729.504 1.6387 1.3698 1.4286 1.7473 1.735 1.6564 1.6185 1.804 2.11 2.3
2748.794 2.24 2.14 2.3 2.22 2.19 2.16 2.0305 2.09 1.9699 1.9047
2768.083 2.07 1.9694 1.7527 1.4676 1.2628 1.3423 1.4955 1.6333 1.5716 1.3224
2787.373 0.93 0.9889 1.12662 1.1972 1.3473 1.4226 1.4928 1.3243 1.5155 1.7549
2806.663 1.6602 1.7469 1.9449 2.021 1.94 1.6602 1.7123 1.5306 1.499 1.6966
2825.953 1.6497 1.9977 2.23 2.25 2.08 2.11 2.34 2.37 2.36 2.28
2845.242 2.42 2.83 3.42 3.79 3.89 3.74 3.84 4.69 5.53 5.84
2864.532 6.08 6.35 6.32 6.38 6.73 7.03 7.11 6.97 6.81 6.67
2883.822 6.55 6.71 6.36 5.96 5.79 5.63 5.76 5.69 5.8 6.06
2903.112 6.16 6.39 6.21 6.26 6.85 7.29 7.55 8.12 8.83 9.15
2922.401 9.6 10.54 11.84 13.25 14.43 15.67 16.59 17.18 17.9 18.25
2941.691 18.05 17.65 17.2 16.41 15.64 14.23 12.68 11.74 10.84 10.21
2960.981 9.38 8.77 8.86 8.7 8.4 8.64 8.83 8.45 8.26 8.44
2980.271 8.49 8.34 8.5 8.6 8.44 8.54 8.32 8.22 8.1 7.55
2999.561 7.36 7.18 6.79 6.51 6.18 6.13 5.97 5.57 5.59 5.75
3018.850 6.3 7.08 7.59 8.08 8.71 9.13 9.58 10.19 10.22 10.43
3038.140 10.93 10.93 10.75 10.89 10.93 10.56 10.36 10.42 10.62 10.96
3057.430 11.57 11.96 12.19 12.67 13.04 13.54 13.92 13.88 14.26 14.35
3076.720 14.02 13.74 13.58 13.36 12.84 12.15 10.9 9.88 9.05 8.42
3096.009 7.77 6.76 5.82 5.17 4.69 3.92 3.16 2.79 2.87 2.65
3115.299 2.54 2.29 1.9382 2.22 2.1 1.7604 1.6267 1.6596 1.7619 1.6819
3134.589 1.5837 1.5431 1.4903 1.7059 1.8535 1.4252 1.2358 1.3912 1.3345 0.9994
3153.879 1.1716 1.7336 1.8283 1.4836 1.2575 1.2419 1.2292 1.08223 0.9602 0.816
3173.169 1.0441 1.3545 1.1925 1.3143 1.5086 1.4511 1.2279 1.2702 1.6644 1.7955
3192.458 1.4551 1.227 1.11571 0.975 1.2424 1.6946 1.475 1.09891 1.0339 1.11678
3211.748 1.08939 1.15731 1.2847 1.3432 1.4973 1.5387 1.1781 0.836 0.9983 1.0217
3231.038 0.9715 1.13339 1.3962 1.3868 1.15681 0.816 0.873 1.3319 1.07602 0.894
3250.328 1.4711 1.5706 0.9627 1.0087 1.228 0.855 0.89 1.2116 1.2969 1.355
3269.617 1.4469 1.0353 0.9773 1.2697 0.897 0.908 1.2944 1.4081 1.3047 0.797
3288.907 0.598 1.14144 1.2943 1.035 1.3087 1.3693 1.2557 1.3054 1.2692 1.08379
3308.197 1.15582 1.3655 0.927 0.861 1.09943 1.2977 1.2671 1.0339 0.9694 0.881
3327.487 1.06194 1.2848 1.4117 1.3419 1.3652 1.2203 0.732 0.799 0.882 1.08059
3346.777 1.4333 1.3877 1.2237 1.13458 1.311 1.3689 1.3455 1.5692 1.3396 0.787
3366.066 0.857 1.05604 1.14143 1.2807 1.3746 1.3303 0.9 1.0056 1.4081 1.3648
3385.356 1.4441 1.2113 0.901 0.778 0.894 1.1746 1.11306 0.893 0.722 0.698
3404.646 0.907 1.13894 0.947 0.845 1.0412 1.0463 1.0487 0.864 0.5 0.591
3423.936 1.05796 1.246 1.299 1.372 1.2426 0.9664 0.597 0.476 0.792 1.3392
3443.225 1.2281 0.732 1.05575 1.3958 1.3698 1.3221 1.5664 1.5357 1.4413 1.3262
3462.515 0.991 1.2404 1.0465 1.06925 1.2063 0.522 0.787 0.841 0.503 0.896
3481.805 0.905 0.934 1.1988 1.2866 1.2466 1.223 0.881 0.879 1.11781 1.1748
3501.095 1.2998 1.1654 1.0349 0.933 1.0007 1.2503 1.12066 0.795 1.13142 1.5282
3520.385 1.4775 1.513 1.739 1.331 0.721 1.12206 1.5396 1.5571 1.3119 0.653
3539.674 0.419 0.772 1.0225 1.07328 1.08475 1.2339 1.3508 1.4097 1.246 1.2417
3558.964 1.4326 1.08817 0.78 1.0401 1.0301 1.2714 1.4323 1.509 1.735 1.2712
3578.254 0.912 1.2062 1.192 0.741 0.855 1.214 1.15257 0.858 0.892 0.925
3597.544 0.715 0.861 0.878 0.922 1.2443 1.2145 0.942 0.799 0.694 0.728
3616.833 1.0406 0.9967 0.858 1.128 1.2323 0.788 0.894 0.93 1.0097 1.4706
3636.123 0.929 0.462 0.884 1.1992 1.0076 1.2278 1.2833 0.794 0.716 1.07142
3655.413 1.11912 1.0108 1.2718 1.2367 1.11629 1.15187 0.953 1.11717 1.3512 1.2512
3674.703 1.3414 1.2189 1.4442 1.4295 1.188 1.12926 1.07179 1.10769 1.3639 1.5464
3693.993 1.2039 1.0402 1.07212 1.0408 1.08759 0.894 1.14719 1.4603 1.2603 1.2017
3713.282 1.1732 1.09892 0.828 1.14208 1.5385 1.5793 1.2382 0.9686 1.0473 0.935
3732.572 0.917 0.854 0.913 0.866 0.812 1.1692 1.4272 1.07731 0.459 0.886
3751.862 1.3714 1.2986 1.2465 1.2734 1.4382 1.4179 1.3242 1.1715 0.915 0.906
3771.152 1.2448 1.05805 0.939 1.2053 1.1885 0.699 0.427 0.51 0.509 0.68
3790.441 0.449 0.693 1.2397 1.1724 1.05541 1.0427 1.1946 1.0127 0.813 0.564
3809.731 0.809 1.2378 1.12603 1.08882 0.842 0.846 1.4061 1.4795 1.1736 1.3645
3829.021 1.2553 0.945 0.852 0.899 1.025 1.2859 1.5774 1.522 1.3475 1.2485
3848.311 1.4551 1.7523 1.8313 1.11316 0.781 1.1786 1.3031 1.7887 1.6134 0.807
3867.601 0.806 0.752 0.79 0.951 1.2792 1.598 1.503 1.4979 1.6755 1.4899
3886.890 1.6062 1.5073 1.0473 1.3097 1.6457 1.6664 1.3668 1.5393 1.561 1.365
3906.180 1.3879 1.4847 1.5955 1.5803 1.5251 1.5514 1.6878 1.3975 1.2967 1.5172
3925.470 1.2017 0.945 0.948 0.906 1.2076 1.3741 1.2909 0.9663 1.3199 1.8304
3944.760 1.3366 1.545 1.9773 1.8235 1.5256 1.6323 1.9151 1.8801 1.7576 2.13
3964.049 2.29 1.327 0.826 0.814 1.06909 1.4773 1.2558 0.919 1.2793 1.7043
3983.339 1.2354 1.1703 1.4283 1.2581 1.3704 1.2544 0.9857 1.1779 1.164 1.15736
##END=
