##TITLE=3,4-Difluorobenzamide
##JCAMP-DX=4.24
##DATA TYPE=INFRARED SPECTRUM
##ORIGIN=EPA-IR VAPOR PHASE LIBRARY
##OWNER=SRD/NIST
Collection (C) 2018 copyright by the U.S. Secretary of Commerce
on behalf of the United States of America. All rights reserved.
##CAS REGISTRY NO=85118-04-3
##MOLFORM=C 7 H 5 F 2 N O
##$NIST SOURCE=MSDC-IR
##STATE=gas
##XUNITS=1/CM
##YUNITS=ABSORBANCE
##XFACTOR=1.
##YFACTOR=0.001
##DELTAX=1.92898
##FIRSTX=549.8
##LASTX=4000.7
##FIRSTY=3.699
##MAXX=4000.7
##MINX=549.759
##MAXY=0.087649
##MINY=0
##NPOINTS=1790
##XYDATA=(X++(Y..Y))
549.759 3.699 4.079 4.059 3.889 4.319 4.239 4.409 5.319 6.469 7.009
569.049 7.669 7.149 6.739 7.939 8.439 8.209 8.419 8.839 8.429 8.199
588.339 8.899 8.959 8.749 9.079 8.979 8.799 8.969 8.619 7.599 6.999
607.628 6.819 6.269 5.879 5.579 4.719 4.279 4.319 4.439 4.449 4.089
626.918 4.159 4.109 3.969 4.079 3.889 3.939 4.029 4.239 4.389 4.099
646.208 3.999 4.369 4.609 4.479 4.289 4.129 4.199 4.369 4.399 4.009
665.498 3.979 4.149 4.329 4.519 4.419 4.409 4.599 4.699 5.089 5.329
684.787 4.949 4.889 5.419 5.969 5.989 6.269 6.829 7.249 7.649 7.459
704.077 7.229 7.069 6.899 6.789 6.159 5.739 5.879 5.639 5.569 5.929
723.367 5.879 5.959 6.539 7.299 7.649 8.209 8.879 9.559 10.209 10.989
742.657 12.469 14.129 15.439 16.599 17.659 18.629 19.469 19.649 19.609 19.039
761.947 18.749 18.999 19.549 20.299 20.679 21.049 21.309 21.059 20.929 20.529
781.236 19.309 17.809 16.219 14.059 11.919 10.629 9.259 8.089 7.669 7.299
800.526 6.839 6.909 7.509 7.249 6.829 7.059 7.239 7.559 8.269 8.919
819.816 9.289 9.589 9.589 9.219 8.959 8.929 9.039 9.039 8.389 7.509
839.106 6.969 7.159 6.949 6.069 5.609 5.769 5.809 5.629 5.879 5.999
858.395 5.959 6.319 6.829 7.379 7.779 7.919 8.129 8.669 8.849 8.609
877.685 8.559 8.589 8.509 8.689 8.549 8.109 8.149 7.819 7.629 7.509
896.975 7.609 8.149 8.109 7.959 7.899 7.609 7.859 8.149 8.509 8.969
916.265 9.129 9.699 10.529 11.189 11.309 11.229 10.789 10.359 10.359 9.749
935.555 8.829 7.469 6.069 5.869 5.239 4.209 4.129 4.089 3.609 3.289
954.844 3.439 3.099 2.779 3.169 3.359 3.329 3.039 3.139 3.289 3.299
974.134 3.109 2.919 3.109 3.049 2.879 3.059 3.119 2.809 2.899 2.659
993.424 2.499 2.849 2.599 2.489 2.699 2.529 2.839 3.109 3.089 3.309
1012.714 3.159 3.129 2.869 2.619 3.029 3.099 2.909 2.839 2.759 2.299
1032.003 1.879 1.899 2.489 2.529 2.159 1.969 1.3933 1.829 2.579 2.379
1051.293 2.129 2.389 2.569 2.519 2.979 3.599 3.669 3.009 3.299 4.419
1070.583 4.929 4.349 4.589 5.899 5.529 4.879 5.289 4.929 5.409 6.619
1089.873 6.839 6.699 6.659 7.099 6.989 7.109 7.589 8.209 8.599 8.759
1109.163 8.749 8.619 8.539 8.889 9.029 8.749 9.409 9.869 9.239 9.379
1128.452 8.839 7.059 5.849 4.959 4.839 4.559 4.049 3.189 2.229 3.129
1147.742 3.679 3.459 3.609 2.629 2.719 3.279 2.739 1.999 2.089 2.309
1167.032 2.579 3.349 3.349 3.689 3.709 2.969 3.309 4.149 4.499 4.499
1186.322 5.179 5.789 6.249 7.959 8.839 9.699 11.799 13.589 16.139 19.399
1205.611 21.909 23.119 22.959 22.719 22.649 23.019 22.659 20.439 17.879 15.149
1224.901 12.009 10.419 8.409 7.149 6.929 6.499 7.149 7.629 8.239 8.379
1244.191 7.879 7.659 7.749 7.749 7.829 8.049 8.479 9.309 9.699 10.509
1263.481 12.079 14.179 17.239 21.049 25.739 31.109 36.279 40.209 42.119 42.839
1282.771 43.049 41.989 39.299 35.679 30.989 25.579 21.519 18.689 16.799 15.529
1302.060 14.429 13.629 13.029 12.799 12.789 13.179 13.759 14.399 15.539 16.939
1321.350 18.639 20.819 23.509 27.059 31.549 36.759 42.819 49.279 55.659 61.649
1340.640 66.729 70.829 73.959 75.839 75.709 72.989 68.019 61.719 55.269 49.129
1359.930 42.779 36.019 28.799 22.379 17.569 14.139 11.989 10.519 9.469 8.879
1379.219 8.279 7.729 7.459 7.369 7.149 7.029 7.049 7.169 7.369 7.459
1398.509 7.809 8.359 8.999 9.839 10.949 12.249 13.669 15.389 17.359 19.559
1417.799 21.819 24.169 26.359 28.289 29.549 29.979 29.779 28.889 27.239 24.969
1437.089 22.089 18.949 15.469 12.239 9.629 7.739 6.509 5.599 4.739 4.169
1456.378 4.059 3.789 3.579 3.699 3.829 3.799 3.549 3.529 3.979 4.259
1475.668 4.389 4.459 4.569 5.029 5.429 5.869 6.489 7.169 7.959 8.819
1494.958 10.079 11.659 13.389 15.889 19.119 22.969 28.519 34.749 40.769 46.869
1514.248 51.789 54.959 56.379 56.039 53.939 50.449 45.009 38.249 31.269 24.889
1533.538 19.549 15.479 12.879 10.969 9.589 8.809 8.279 8.029 8.149 8.319
1552.827 8.449 8.789 9.409 10.209 10.849 11.429 12.099 13.009 14.179 15.759
1572.117 17.639 19.499 22.189 25.659 29.099 32.339 34.969 37.229 38.949 39.979
1591.407 40.359 40.399 39.889 38.599 36.899 35.419 34.149 33.209 32.569 31.989
1610.697 31.699 31.069 29.909 28.239 26.199 24.209 22.189 19.909 17.679 15.219
1629.986 12.669 10.679 9.319 8.099 7.099 6.489 6.069 5.859 5.609 5.409
1649.276 5.329 5.279 5.339 5.239 5.099 5.209 5.439 5.619 6.049 6.429
1668.566 6.599 6.959 7.579 8.249 8.839 9.469 10.289 11.259 12.159 12.899
1687.856 14.009 15.089 15.629 15.889 16.339 17.369 18.849 20.969 23.569 27.249
1707.146 32.149 38.429 46.349 56.059 67.059 77.409 84.879 87.129 85.689 85.169
1726.435 87.179 87.649 81.689 70.289 55.979 43.889 35.169 28.089 23.189 19.659
1745.725 17.199 15.689 14.889 14.259 13.999 13.909 13.799 13.469 12.729 11.799
1765.015 10.899 9.939 8.889 7.959 7.039 6.269 5.679 5.049 4.419 4.089
1784.305 3.849 3.529 3.479 3.379 3.369 3.289 2.979 2.829 2.709 2.619
1803.594 2.599 2.439 2.349 2.339 2.259 2.249 2.169 2.099 2.039 1.999
1822.884 1.839 1.849 2.039 2.009 2.029 2.019 1.899 1.7595 1.6987 1.7552
1842.174 1.839 1.889 1.849 1.7695 1.795 1.879 1.989 1.909 1.929 2.089
1861.464 2.079 1.959 1.819 1.949 2.059 1.959 1.849 1.7023 1.6049 1.6751
1880.754 1.6891 1.6881 1.6255 1.5636 1.5749 1.5268 1.6911 1.7893 1.7281 1.7676
1900.043 1.919 1.909 1.839 1.949 1.929 1.859 1.869 1.829 1.7714 1.829
1919.333 1.716 1.4872 1.4865 1.4189 1.453 1.6174 1.5334 1.4049 1.4276 1.4479
1938.623 1.3639 1.2798 1.2847 1.2428 1.1368 1.1753 1.1354 1.0794 1.2742 1.3977
1957.913 1.2385 1.0851 0.9966 1.0551 1.2065 1.1959 1.2426 1.1929 1.124 1.1953
1977.202 1.2585 1.2432 1.1524 1.1421 1.1842 1.2124 1.156 1.086 1.2975 1.353
1996.492 1.1849 1.2322 1.3715 1.3033 1.2037 1.3974 1.459 1.3305 1.333 1.4044
2015.782 1.4322 1.4181 1.3262 1.2709 1.3106 1.5028 1.5176 1.3195 1.2861 1.3065
2035.072 1.3233 1.275 1.2703 1.388 1.4665 1.5841 1.6094 1.5787 1.4194 1.4586
2054.362 1.7553 1.691 1.6422 1.7031 1.6732 1.6529 1.5401 1.4118 1.3988 1.3605
2073.651 1.1815 1.0694 1.0909 1.052 1.1682 1.1617 1.102 1.0822 1.0085 1.0858
2092.941 1.0672 0.81345 0.81315 0.9592 0.9399 0.9496 0.9678 1.0283 1.0016 0.9911
2112.231 1.0671 0.9631 0.9138 1.0401 1.0017 1.0781 1.0358 1.0265 1.2126 1.1155
2131.521 1.0916 1.1725 1.215 1.1937 1.1572 1.2266 1.2181 1.1023 1.1639 1.1662
2150.810 0.9702 1.0527 1.1925 1.2037 1.1101 0.938 0.9412 1.0563 1.1202 1.0562
2170.100 1.0062 1.0738 1.2675 1.362 1.192 1.0926 1.1033 0.9889 0.9018 1.0229
2189.390 1.0002 0.84598 0.9007 0.87342 0.7123 0.9072 1.0232 1.0121 0.9949 0.9535
2208.680 0.9875 0.9243 0.91 0.9623 1.0138 0.942 0.9014 0.8991 0.9817 0.9721
2227.970 0.928 1.0792 0.9896 0.89644 0.9431 0.9132 0.9331 0.9115 0.9404 1.029
2247.259 1.1021 1.094 0.9154 0.88419 0.9948 0.9801 1.1121 1.2366 1.0401 1.0482
2266.549 1.2623 1.0862 1.0225 1.2128 1.1866 1.1378 1.2331 1.2029 1.2417 1.4167
2285.839 1.4176 1.3221 1.3852 1.364 1.236 1.3534 1.2974 1.3138 1.3166 1.2461
2305.129 1.2898 1.2335 1.1732 1.0185 1.0053 1.1813 1.1445 1.0738 1.1142 1.3049
2324.418 1.4365 1.1553 0.97 0.9552 0.9312 0.9528 1.0033 0.889 0.749 0.79906
2343.708 0.88817 0.9632 0.9778 0.9736 1.0533 0.9696 0.81222 0.806908 0.88303 0.9367
2362.998 0.9045 1.0282 1.261 1.2223 1.0745 0.85809 0.7623 1.1081 1.1833 0.9958
2382.288 0.9988 1.1931 1.2591 1.0934 1.0569 0.9987 0.961 1.1616 1.1013 0.9566
2401.578 1.1037 1.1399 1.2206 1.2222 0.9292 0.84552 1.0407 1.2412 1.1527 1.0253
2420.867 1.0079 1.1705 1.1432 0.9807 1.0556 1.0858 1.0467 1.0247 1.0636 1.0133
2440.157 0.81836 0.88863 1.1301 0.82168 0.7488 0.86606 0.7162 0.89262 1.103 1.0724
2459.447 1.0666 1.1467 1.2 1.204 1.074 1.0808 1.1716 1.2061 1.1394 1.0188
2478.737 1.1256 1.119 0.9519 1.1737 1.2069 0.9485 0.9544 1.0014 1.156 1.0348
2498.026 0.84485 0.9189 0.9024 0.961 1.0028 1.0805 1.198 1.0691 1.0493 1.0969
2517.316 1.0091 1.0678 1.2432 1.1319 1.0672 1.216 1.2157 1.2705 1.2605 1.3533
2536.606 1.5059 1.3665 1.172 1.1969 1.3091 1.3585 1.2091 1.0654 1.1224 1.3113
2555.896 1.4119 1.2206 1.1504 0.9907 1.2364 1.6219 1.3478 1.1044 1.0899 0.9933
2575.186 0.82809 0.84731 1.082 1.1569 1.2143 1.2974 1.3829 1.2791 1.1052 1.1577
2594.475 1.0385 0.9825 1.1864 1.141 0.874 0.9295 1.0142 1.0451 1.0411 0.9253
2613.765 0.966 0.9552 1.1757 1.3219 1.004 0.86401 0.88189 0.88957 1.0445 1.2145
2633.055 1.1262 1.1655 1.3394 1.0037 0.8159 0.9992 1.0437 0.939 1.0017 1.0332
2652.345 0.9308 0.9947 0.87058 0.799658 0.9457 0.9335 0.747 0.86596 0.9115 0.7848
2671.634 0.642 0.64 0.9051 0.9447 0.9218 0.7878 0.86071 0.9587 0.7812 0.8884
2690.924 0.9595 0.9688 1.0991 0.82733 0.7602 0.9087 0.88446 0.9539 0.9646 0.7674
2710.214 0.6993 0.96 0.9618 0.9841 0.9609 0.7386 0.7533 0.7445 0.598 0.7579
2729.504 0.804913 0.641 0.473 0.513 0.665 0.534 0.529 0.633 0.7318 0.9117
2748.794 0.81239 0.671 0.808769 0.7756 0.536 0.559 0.623 0.692 0.79683 0.578
2768.083 0.581 0.7296 0.9772 1.2176 1.1064 1.0424 0.84982 0.7635 0.84316 0.85428
2787.373 1.009 1.053 0.85438 0.87696 1.1391 1.2426 1.2093 1.0542 1.2537 1.1989
2806.663 1.0201 1.2556 1.1915 1.1529 1.0984 0.9917 0.9124 0.88106 1.1537 0.9298
2825.953 0.392 0.384 0.647 0.7371 0.803443 1.0018 1.0152 0.88701 0.86509 0.9204
2845.242 0.9093 0.9104 0.642 0.419 0.475 0.7184 0.800708 0.587 0.7046 0.9408
2864.532 0.9769 0.7324 0.88389 1.3339 1.2479 0.88107 0.647 0.7716 0.802629 0.68
2883.822 0.635 0.7467 0.85297 0.79169 0.9503 1.1877 1.1467 0.9125 0.82241 0.84823
2903.112 0.9309 0.9769 0.9192 0.691 0.6 0.917 1.0066 0.727 0.545 0.542
2922.401 0.655 1.0021 0.9458 0.7675 1.0933 1.0484 0.85603 0.9033 0.9472 1.0199
2941.691 1.1402 1.0838 0.84036 0.7302 0.9044 0.9979 0.85234 0.84845 0.80993 0.79584
2960.981 1.1229 1.2464 1.1949 1.112 0.9328 1.0145 1.0184 0.9181 0.84801 0.7165
2980.271 0.695 0.676 0.85143 0.84229 0.527 0.651 0.83192 1.0865 1.2323 1.2418
2999.561 1.178 0.87453 0.85711 0.63 0.388 0.551 0.587 0.905 1.2265 0.9677
3018.850 0.982 1.2525 1.0013 0.799127 0.636 0.7406 1.1687 1.0533 0.9578 1.2066
3038.140 1.0638 1.0235 1.0728 1.0513 1.1363 1.479 1.849 1.547 1.4025 1.4746
3057.430 1.5417 1.879 2.219 2.129 1.949 2.059 2.199 2.339 2.829 2.659
3076.720 2.629 3.109 2.979 2.699 2.789 2.599 2.149 2.349 2.549 2.259
3096.009 1.7099 1.3506 1.3496 1.2355 0.9637 0.673 0.7342 1.2648 1.4763 1.1415
3115.299 0.974 1.2289 1.2802 0.9734 0.82902 1.0985 1.1727 0.7009 0.516 0.75
3134.589 0.87882 1.047 1.0896 0.7203 0.646 1.0035 0.7464 0.356 0.509 1.0769
3153.879 1.4309 1.2071 1.0522 0.9051 0.9857 1.3195 1.2277 0.86628 0.726 0.9183
3173.169 0.7119 0.7242 1.1435 0.88582 0.678 0.86294 0.9265 1.0014 1.3088 1.5006
3192.458 1.0837 0.79455 0.86059 1.1051 1.1106 1.0021 0.9112 0.84534 0.522 0.283
3211.748 1.0011 0.9682 0.645 0.9453 1.1347 1.2445 1.091 0.87988 1.0202 0.86748
3231.038 0.68 0.79648 0.7723 0.9221 1.1697 1.1833 1.1045 0.9356 0.83139 0.79771
3250.328 0.7928 0.82491 1.0183 1.0118 0.9765 1.0294 1.1106 1.0605 0.9571 0.9281
3269.617 1.1575 1.1554 0.763 0.9544 0.9639 0.85822 1.2899 1.2532 1.0305 1.3355
3288.907 1.1217 0.691 0.9023 1.2015 1.3634 1.4164 1.3316 1.1927 1.2225 1.4081
3308.197 1.3237 1.3762 1.3284 1.0784 0.9799 0.86795 0.7261 0.9477 1.2336 1.0817
3327.487 1.032 1.1636 1.2325 1.5367 1.5934 1.4796 1.295 0.916 0.7638 0.79453
3346.777 1.1602 1.2465 1.0929 1.2929 1.2894 1.0441 1.0677 1.1326 1.0144 1.0095
3366.066 1.1713 1.1475 1.1064 1.2602 1.214 1.0707 1.2802 1.2553 1.104 1.2698
3385.356 1.6702 1.7253 1.3651 1.2147 1.384 1.959 2.259 2.599 2.559 2.379
3404.646 2.779 3.209 3.649 3.999 4.249 5.099 6.239 6.649 7.219 8.319
3423.936 9.229 10.189 10.629 11.179 11.969 11.999 11.429 10.649 10.359 10.159
3443.225 9.339 8.069 6.859 5.549 4.719 4.219 3.479 2.989 2.809 2.589
3462.515 2.319 1.869 1.7944 2.359 2.139 1.7755 1.6597 1.4859 1.7778 1.909
3481.805 1.5744 1.5526 1.7094 1.4718 1.6606 1.7607 1.3772 1.7027 2.279 2.179
3501.095 1.919 2.059 1.785 1.7868 2.399 2.419 2.219 2.579 3.099 3.399
3520.385 3.589 3.629 3.829 4.129 4.289 4.729 5.379 5.879 6.099 6.339
3539.674 7.119 7.829 8.129 8.819 8.929 8.789 8.519 7.939 7.679 7.369
3558.964 6.849 5.959 5.169 4.949 4.449 3.319 2.699 2.169 1.939 2.159
3578.254 1.919 1.713 1.5905 1.2385 1.3605 1.3271 0.9366 0.7123 0.80999 1.2799
3597.544 1.2567 1.1556 1.0852 1.1542 1.3768 1.2898 1.2335 1.2422 1.329 1.0074
3616.833 0.678 0.81956 0.9127 0.88191 1.0156 0.9423 0.579 0.274 0.509 0.7236
3636.123 0.606 0.84239 1.1171 0.9735 0.82671 1.0434 1.1144 0.9798 1.0703 1.3302
3655.413 1.2922 1.0193 0.85907 0.9444 1.4054 1.4507 1.26 1.4753 1.5212 0.89048
3674.703 0.643 0.9912 1.1165 1.179 1.0394 0.9874 0.7874 0.315 0.326 0.7812
3693.993 1.1353 0.9224 0.83989 0.672 0 0.241 0.9249 1.0653 1.0318 0.644
3713.282 0.593 1.1976 1.3007 1.1967 0.88636 0.634 1.1038 0.9746 0.7046 0.931
3732.572 1.1185 1.1704 0.9908 1.0045 0.9661 0.443 0.188 0.554 0.9621 0.83291
3751.862 0.7278 0.624 0.465 0.9208 1.13 1.0206 1.0837 1.1949 1.0614 0.9531
3771.152 0.89085 1.3006 1.477 0.9423 0.84588 0.7586 0.957 1.2301 0.79254 0.9744
3790.441 1.3476 1.2418 1.2605 0.9179 0.672 0.686 0.544 0.8144 0.9639 0.596
3809.731 0.427 0.768 0.7889 0.61 0.88078 0.88156 0.512 0.376 0.644 0.85922
3829.021 0.59 0.567 1.2147 1.1934 0.7242 0.83521 1.1043 0.7816 0.9663 1.2943
3848.311 1.0323 1.0071 0.9963 0.9267 0.799446 0.9678 1.1057 0.88886 1.0484 1.0235
3867.601 0.87166 0.7206 0.396 0.326 0.426 0.476 0.7018 0.84966 0.86128 0.82822
3886.890 0.915 1.1708 1.2482 1.6364 1.3489 0.9007 1.1524 1.2189 1.2478 0.9758
3906.180 0.605 1.0905 1.1426 0.8837 1.1406 1.1416 1.1917 1.2732 1.2382 1.1493
3925.470 0.7104 0.89327 1.1714 1.003 0.87663 0.7223 0.86295 0.9328 0.804209 0.576
3944.760 0.7185 1.1088 1.1974 1.1844 0.7836 0.508 0.7823 0.9847 0.79033 0.8339
3964.049 1.3205 1.1834 0.9882 0.9705 0.656 0.89812 0.9477 0.506 0.674 0.9121
3983.339 0.9328 0.82663 0.505 0.301 0.396 0.635 1.0417 1.2336 0.87446 1.303
##END=
