##TITLE=2,5-Difluorobenzylbromide
##JCAMP-DX=4.24
##DATA TYPE=INFRARED SPECTRUM
##ORIGIN=EPA-IR VAPOR PHASE LIBRARY
##OWNER=SRD/NIST
Collection (C) 2018 copyright by the U.S. Secretary of Commerce
on behalf of the United States of America. All rights reserved.
##CAS REGISTRY NO=85117-99-3
##MOLFORM=C 7 H 5 Br F 2
##$NIST SOURCE=MSDC-IR
##STATE=gas
##XUNITS=1/CM
##YUNITS=ABSORBANCE
##XFACTOR=1.
##YFACTOR=0.001
##DELTAX=1.92898
##FIRSTX=549.8
##LASTX=4000.7
##FIRSTY=19.831
##MAXX=4000.7
##MINX=549.759
##MAXY=0.437971
##MINY=0
##NPOINTS=1790
##XYDATA=(X++(Y..Y))
549.759 19.831 16.831 14.541 12.801 10.841 9.911 9.081 8.351 9.061 10.501
569.049 11.861 13.601 15.621 18.481 20.731 22.401 24.571 26.571 27.001 26.211
588.339 25.321 23.161 21.461 20.111 17.141 14.381 12.401 10.991 10.801 10.501
607.628 9.581 9.331 8.731 8.091 8.021 7.671 7.381 7.411 8.011 8.621
626.918 9.751 11.691 13.831 15.841 17.201 18.821 20.191 20.351 20.021 19.211
646.208 17.471 15.071 13.421 12.101 10.751 10.251 9.621 8.561 8.281 8.391
665.498 8.291 8.241 8.451 8.591 8.731 8.821 8.591 8.371 8.151 7.701
684.787 7.631 7.741 7.241 7.021 7.561 7.661 7.591 8.321 9.391 10.631
704.077 12.551 15.571 19.741 25.191 31.771 39.631 48.921 59.381 71.821 85.751
723.367 97.791 104.031 103.761 99.491 93.111 85.121 74.311 61.241 49.291 39.741
742.657 31.741 25.961 22.171 19.271 17.471 16.851 16.931 17.811 19.491 21.581
761.947 24.031 26.721 28.671 29.591 30.631 31.461 31.071 29.691 27.731 25.511
781.236 23.341 20.771 18.251 16.871 16.731 17.551 18.761 20.991 24.691 29.841
800.526 36.441 44.241 53.301 62.801 72.641 82.571 91.261 94.511 90.181 80.461
819.816 68.871 58.721 49.831 41.191 32.541 25.371 20.101 16.721 15.211 14.681
839.106 14.321 14.421 15.191 15.571 15.911 16.451 17.131 18.571 20.531 23.011
858.395 26.401 30.251 35.181 41.071 46.861 52.961 58.951 62.931 63.061 60.981
877.685 57.631 52.651 46.251 38.981 31.851 25.601 20.651 17.041 14.911 12.791
896.975 11.551 10.671 9.191 8.201 7.651 7.501 6.811 6.131 5.801 5.281
916.265 5.061 4.711 4.631 4.851 4.561 4.501 4.901 4.931 4.791 4.291
935.555 4.171 4.611 4.701 5.211 6.121 7.381 9.571 12.441 16.061 20.531
954.844 23.711 24.651 24.461 24.301 23.811 22.041 18.711 14.151 9.841 6.951
974.134 5.481 4.341 3.911 3.221 2.371 2.771 3.221 3.181 2.791 2.331
993.424 2.061 2.251 2.351 2.131 2.301 2.021 1.921 1.981 1.1931 0.867
1012.714 1.4876 1.541 1.1288 1.681 1.841 0.9068 0.8142 1.3453 1.661 1.971
1032.003 1.881 1.561 1.3146 1.5093 1.861 2.191 2.101 1.771 1.641 1.4017
1051.293 1.3236 2.061 2.221 1.811 1.991 2.361 2.451 2.701 3.191 3.981
1070.583 4.621 5.651 7.581 8.431 9.231 10.551 11.011 11.461 11.601 11.911
1089.873 12.651 11.801 10.271 8.511 7.551 6.921 6.071 5.831 5.431 5.391
1109.163 6.271 7.061 6.951 5.961 6.451 8.621 9.261 9.711 11.321 13.521
1128.452 15.951 19.301 22.841 26.651 31.661 35.651 37.631 38.151 38.741 40.271
1147.742 39.851 36.781 32.701 29.181 26.671 24.171 22.761 22.721 23.061 24.971
1167.032 27.541 30.431 34.361 38.571 43.411 48.771 53.681 58.181 63.071 67.771
1186.322 73.491 81.721 91.201 100.361 109.081 117.701 125.361 131.161 136.191 139.631
1205.611 142.991 143.741 141.331 139.321 137.351 138.481 142.111 148.891 158.951 173.241
1224.901 189.361 200.621 208.041 209.101 203.011 193.131 177.511 154.331 128.411 106.021
1244.191 89.641 78.831 70.681 63.931 58.951 53.951 48.551 43.151 38.181 34.051
1263.481 30.971 29.871 31.071 34.041 38.001 41.981 45.241 47.451 48.621 48.391
1282.771 47.401 46.021 43.511 41.011 39.441 38.101 36.841 35.671 33.791 31.301
1302.060 28.201 24.371 19.951 15.661 12.451 10.121 8.371 7.051 5.981 5.081
1321.350 4.331 3.791 3.451 3.141 2.851 2.601 2.401 2.321 2.331 2.331
1340.640 2.361 2.361 2.321 2.311 2.411 2.601 2.711 2.841 2.971 3.211
1359.930 3.411 3.311 3.321 3.631 3.831 3.871 4.011 4.171 4.251 4.491
1379.219 4.941 5.161 5.381 5.821 6.181 6.611 7.161 7.691 8.171 8.701
1398.509 9.361 10.061 11.171 12.591 14.191 16.421 19.451 23.161 27.861 34.001
1417.799 41.741 50.951 60.471 69.241 76.031 80.011 81.551 81.221 77.691 69.691
1437.089 57.571 45.681 37.231 31.711 28.401 26.661 25.711 25.361 25.741 26.491
1456.378 27.571 29.011 30.441 32.091 34.131 36.761 40.211 44.441 49.841 56.941
1475.668 66.301 78.911 95.731 117.751 145.851 180.931 222.541 269.661 319.911 367.641
1494.958 406.591 431.281 437.971 430.471 412.621 382.991 338.031 282.421 226.831 178.191
1514.248 139.711 109.761 86.431 68.851 55.411 45.671 38.351 32.521 27.921 24.341
1533.538 21.381 19.051 17.171 15.121 13.351 11.861 10.351 9.221 8.411 7.511
1552.827 6.791 6.261 5.931 5.771 5.851 5.751 5.571 5.851 6.211 6.511
1572.117 7.171 8.141 9.241 10.201 11.241 12.931 14.801 16.611 18.701 20.851
1591.407 22.971 24.581 25.321 25.541 24.951 23.711 22.051 19.951 17.221 14.431
1610.697 12.401 11.061 10.551 10.451 10.631 11.411 12.011 12.131 12.121 11.891
1629.986 11.331 10.691 9.691 8.541 7.881 7.231 6.561 5.971 5.741 5.581
1649.276 5.111 5.011 4.901 4.661 4.691 4.311 3.901 3.841 3.461 3.281
1668.566 3.271 3.101 2.991 3.071 3.001 2.901 2.961 2.991 3.021 3.021
1687.856 2.931 2.771 2.661 2.581 2.721 2.611 2.371 2.431 2.481 2.541
1707.146 2.651 2.731 2.651 2.731 3.001 3.111 3.441 3.791 4.121 4.631
1726.435 5.111 5.731 6.571 7.171 7.751 8.301 8.691 8.891 8.611 8.051
1745.725 7.511 7.071 6.501 5.641 4.841 4.091 3.311 2.911 2.721 2.551
1765.015 2.311 2.271 2.201 2.051 1.921 1.941 2.071 2.061 2.021 2.011
1784.305 1.961 1.801 1.921 2.051 1.941 2.001 2.101 2.151 2.251 2.351
1803.594 2.281 2.361 2.631 2.471 2.191 2.131 2.061 2.001 2.001 1.981
1822.884 2.151 2.101 1.951 2.081 2.101 2.181 2.321 2.461 2.811 3.211
1842.174 3.591 4.321 5.141 6.041 7.141 8.231 9.441 10.351 10.771 10.801
1861.464 10.221 9.301 8.481 7.231 5.741 4.511 3.661 3.161 2.721 2.451
1880.754 2.221 2.061 1.941 1.791 1.711 1.681 1.551 1.4288 1.5158 1.4412
1900.043 1.3159 1.2391 1.2039 1.2197 1.0734 1.1358 1.2437 1.1908 1.2431 1.3468
1919.333 1.3201 1.1882 1.1805 1.269 1.2839 1.2647 1.3354 1.3682 1.4514 1.581
1938.623 1.521 1.4676 1.541 1.571 1.601 1.761 1.911 1.941 1.911 2.011
1957.913 2.041 1.961 2.081 2.181 2.231 2.281 2.301 2.421 2.501 2.441
1977.202 2.441 2.601 2.711 2.831 2.941 2.891 2.941 3.041 3.321 3.561
1996.492 3.531 3.751 3.901 4.101 4.151 3.991 4.011 4.061 4.101 3.961
2015.782 3.751 3.401 3.111 3.081 2.881 2.541 2.391 2.431 2.401 2.291
2035.072 2.161 2.021 2.101 1.981 1.901 1.901 1.821 1.801 1.621 1.541
2054.362 1.4865 1.3221 1.3166 1.3739 1.3074 1.3536 1.3405 1.212 1.1207 1.0814
2073.651 1.0783 1.1925 1.2022 1.0291 1.0984 1.3397 1.3809 1.4853 1.5074 1.4522
2092.941 1.541 1.651 1.621 1.641 1.681 1.541 1.621 1.571 1.2828 1.3137
2112.231 1.3604 1.3653 1.3026 1.1092 1.0218 1.1512 1.3183 1.2515 1.1853 1.1638
2131.521 1.318 1.1917 1.0594 1.1464 1.1994 1.2202 1.213 1.2682 1.1799 1.1905
2150.810 1.3489 1.3574 1.4148 1.4251 1.4451 1.591 1.581 1.531 1.5144 1.591
2170.100 1.701 1.631 1.4585 1.4449 1.531 1.591 1.4926 1.3148 1.4431 1.4765
2189.390 1.276 1.3226 1.4284 1.302 1.1288 1.2004 1.3192 1.3443 1.531 1.581
2208.680 1.4916 1.591 1.651 1.641 1.731 1.881 2.061 2.001 1.961 2.061
2227.970 2.021 2.011 1.791 1.681 1.681 1.661 1.761 1.711 1.4975 1.506
2247.259 1.761 1.771 1.721 1.771 1.981 2.101 2.131 2.331 2.271 2.231
2266.549 2.361 2.491 2.441 2.411 2.371 2.241 2.191 2.051 1.771 1.701
2285.839 1.701 1.741 1.781 1.761 1.791 1.801 1.701 1.671 1.771 1.741
2305.129 2.011 2.221 2.101 2.131 2.331 2.341 2.311 2.201 2.091 2.051
2324.418 1.911 1.831 1.951 1.971 1.901 1.881 1.731 1.661 1.751 1.851
2343.708 1.811 1.691 1.5086 1.601 1.841 1.801 1.661 1.671 1.761 1.4935
2362.998 1.2748 1.4079 1.691 1.781 1.661 1.661 1.671 1.721 1.751 1.641
2382.288 1.531 1.641 1.881 1.941 2.031 2.161 2.021 1.841 1.861 1.931
2401.578 2.141 2.221 2.091 2.181 2.221 2.231 2.291 2.401 2.731 2.571
2420.867 2.241 2.461 2.521 2.471 2.551 2.381 2.291 2.241 2.171 2.121
2440.157 2.241 2.561 2.611 2.501 2.461 2.481 2.461 2.591 2.651 2.691
2459.447 2.731 2.671 2.651 2.591 2.741 2.811 2.521 2.521 2.751 2.661
2478.737 2.661 2.811 2.541 2.411 2.651 2.391 2.201 2.381 2.471 2.441
2498.026 2.071 1.931 2.161 2.131 2.021 2.041 1.881 1.861 1.951 1.721
2517.316 1.521 1.561 1.531 1.4328 1.3659 1.4868 1.701 1.631 1.446 1.3813
2536.606 1.4875 1.5007 1.541 1.661 1.531 1.541 1.551 1.631 1.821 1.701
2555.896 1.4085 1.426 1.462 1.5076 1.4784 1.3515 1.4524 1.4527 1.3409 1.2743
2575.186 1.2957 1.4671 1.5062 1.4649 1.681 1.741 1.4891 1.1352 0.9976 0.9497
2594.475 1.0446 1.1363 1.0631 0.9816 0.8824 0.8963 0.9184 0.8238 0.61474 0.57444
2613.765 0.66 0.9076 1.0747 1.1482 1.3656 1.374 1.2177 1.2087 1.208 1.0984
2633.055 1.0928 1.259 1.5192 1.631 1.5039 1.741 1.731 1.521 1.4157 1.2718
2652.345 1.2547 1.3771 1.691 1.4896 1.2102 1.3486 1.4064 1.4466 1.4493 1.581
2671.634 1.601 1.3526 1.551 1.551 1.5197 1.721 1.661 1.3838 1.1534 1.2933
2690.924 1.3884 1.3402 1.357 1.2844 1.2504 1.2914 1.439 1.651 1.4025 1.1686
2710.214 1.581 1.621 1.3195 1.1627 1.0904 1.2714 1.2452 1.2397 1.4742 1.4522
2729.504 1.4069 1.551 1.731 1.711 1.4335 1.2543 1.3986 1.581 1.3136 1.2961
2748.794 1.4862 1.3118 1.0468 1.0415 1.3978 1.4803 1.29 1.1595 1.1953 1.2297
2768.083 1.2682 1.2361 1.2968 1.3288 1.1393 0.9774 1.0806 1.3901 1.0065 0.7803
2787.373 1.0076 1.0048 1.1367 1.0099 1.0177 1.1051 0.639 0.4223 0.54337 0.7607
2806.663 1.1093 1.0433 0.9289 0.9332 0.8506 0.6477 0.4298 0.6339 0.6574 0.6709
2825.953 0.5105 0.6328 0.8821 0.9196 0.9855 1.0893 1.2202 0.9947 0.8497 0.9846
2845.242 1.1818 1.2159 1.4979 1.631 1.4288 1.2845 1.4197 1.691 1.791 1.951
2864.532 2.411 2.451 2.271 2.281 2.321 2.541 2.631 2.471 2.331 2.291
2883.822 2.171 2.161 2.061 2.091 2.201 2.061 1.641 1.671 1.821 1.601
2903.112 1.681 1.901 1.871 1.691 1.681 1.691 1.771 1.761 1.871 2.211
2922.401 2.011 1.541 1.561 1.531 1.3326 1.4296 1.4493 1.4174 1.571 1.651
2941.691 1.601 1.581 1.771 2.021 1.891 1.751 2.001 2.321 2.511 2.611
2960.981 2.961 2.981 2.981 3.211 3.531 4.241 4.681 5.161 5.911 6.781
2980.271 8.091 9.351 10.131 10.761 11.471 12.051 11.921 11.101 9.841 8.631
2999.561 7.571 6.811 5.861 5.011 4.381 3.741 3.451 3.231 2.921 2.461
3018.850 2.531 2.381 1.931 1.871 2.101 1.961 1.921 2.091 2.071 2.171
3038.140 2.321 2.261 2.571 3.101 3.251 3.391 3.361 3.481 3.641 3.961
3057.430 4.151 4.051 3.931 3.871 4.011 4.101 3.851 3.381 3.581 3.791
3076.720 3.301 3.061 3.191 3.271 3.211 3.491 3.351 2.931 2.941 2.761
3096.009 2.481 2.301 2.281 2.231 2.151 2.051 1.911 1.821 1.791 1.771
3115.299 1.631 1.551 1.601 1.4793 1.4632 1.4489 1.3579 1.181 1.1085 1.0235
3134.589 0.8848 0.9963 1.1296 1.1683 1.1266 1.0719 0.9928 1.034 0.9436 0.8608
3153.879 0.8577 0.9689 0.7489 0.522799 0.6396 0.6401 0.6896 0.373 0.371 0.789
3173.169 0.7719 0.60077 0.406 0 0.374 0.8583 0.8339 0.9169 1.0295 1.0307
3192.458 0.8823 0.9472 1.1766 0.7537 0.54568 0.9538 0.8896 0.6289 0.6365 0.8027
3211.748 0.7602 0.6401 0.69 0.58481 0.4741 0.56768 0.377 0.399 0.4744 0.59002
3231.038 0.6324 0.4456 0.4702 0.522119 0.58491 0.6275 0.6231 0.7599 1.025 1.0449
3250.328 0.9954 1.0126 0.9243 1.0238 1.2295 0.8317 0.7503 0.7872 0.862 1.1085
3269.617 0.9308 0.9981 0.991 0.7805 0.56375 0.6669 0.61975 0.5045 0.6572 0.4912
3288.907 0.7507 1.1003 1.107 1.1316 1.0434 0.906 0.8296 0.9033 0.925 0.9513
3308.197 0.9676 0.57363 0.6596 1.1078 0.8996 1.0602 1.1889 1.0025 0.8822 0.7454
3327.487 1.0547 1.3812 1.1189 0.6798 0.4669 0.417 0.43 0.6325 0.6939 0.7916
3346.777 0.945 0.6878 0.7056 0.8047 0.8966 0.7836 0.59387 0.7425 0.524269 0.314
3366.066 0.4224 0.7207 0.8222 1.1538 1.2786 0.6566 0.6931 1.127 0.8146 0.61054
3385.356 0.9921 1.1763 0.8177 0.413 0.54763 0.4648 0.305 0.4382 0.8011 1.1168
3404.646 1.0571 0.9545 0.8675 1.0423 1.0404 0.892 0.9809 0.9583 1.1605 1.3249
3423.936 1.223 1.0599 0.8157 0.7819 0.978 0.9108 0.719 0.6702 0.51988 0.58739
3443.225 0.6507 0.7736 0.9858 1.0033 0.8423 0.8843 0.7621 0.7404 0.7409 0.4231
3462.515 0.8398 0.9925 0.8101 0.4643 0.335 0.8945 1.1342 1.0418 1.0068 1.1354
3481.805 0.8836 0.57443 0.6538 0.7073 0.7391 0.8393 0.9407 1.0392 1.088 0.9601
3501.095 1.157 0.9519 0.8468 1.0787 0.9477 0.7833 0.8078 1.0594 1.0182 0.629
3520.385 0.783 0.9804 0.7184 0.6724 0.4696 0.51479 0.7403 0.9529 1.1399 1.4238
3539.674 1.451 0.8754 0.9214 1.3864 1.1663 1.0255 1.2254 0.9954 0.524109 0.51969
3558.964 0.6927 0.8663 1.0592 0.6402 0.9747 1.561 1.1073 0.7157 0.7625 0.8892
3578.254 1.1771 0.9826 0.53586 0.7963 0.808 0.7648 0.8535 0.8266 0.8754 1.0225
3597.544 1.1162 0.929 0.9853 0.801 0.4725 0.4855 0.8939 1.2977 1.0144 0.7393
3616.833 0.57825 0.8878 1.551 1.4859 1.0228 0.9852 1.0816 1.009 0.8705 0.55805
3636.123 0.9016 1.342 0.922 0.8571 1.3166 1.2544 1.3064 1.3381 1.1186 1.1062
3655.413 0.7666 0.253 0.4581 1.1008 1.581 1.671 1.4233 1.0434 0.7421 0.9477
3674.703 1.039 1.0014 1.2641 1.2783 1.0923 1.2252 1.3539 1.085 0.61258 0.327
3693.993 0.59348 0.8176 0.6259 0.4767 0.4234 0.7488 1.1587 1.1442 0.9944 1.153
3713.282 1.0971 1.134 1.2872 1.1472 0.9063 0.6441 0.7619 0.8252 0.56572 0.5044
3732.572 0.981 1.344 1.1074 0.7939 0.8428 1.0198 0.7607 0.9678 0.8574 0.7214
3751.862 0.9747 0.8624 0.6539 0.6509 0.8059 0.4438 0.54228 0.8499 0.6902 0.693
3771.152 0.8722 1.0072 1.0483 0.9147 0.9105 0.8219 0.8534 1.0635 1.1157 1.2588
3790.441 1.3334 1.521 1.581 0.8549 0.654 1.1236 1.3594 1.3506 1.3523 1.4326
3809.731 1.3903 1.571 1.631 1.571 1.4005 1.3218 1.3776 1.2908 1.2502 1.2126
3829.021 1.531 1.3477 0.912 1.0934 0.9463 0.8398 0.8706 0.7024 0.9755 1.0926
3848.311 1.0501 1.4739 1.731 1.4645 1.1896 1.3314 1.621 1.731 1.4383 1.1042
3867.601 1.041 1.0574 1.1466 0.6908 0.54643 0.753 0.55994 0.814 1.0314 0.7876
3886.890 0.7166 0.9954 0.9398 0.382 0.57809 0.9192 0.8111 1.2012 1.1752 1.1474
3906.180 1.2689 1.1662 1.2748 1.2592 1.3644 1.2787 1.2811 1.3174 0.9514 1.046
3925.470 1.006 1.061 1.4942 1.2007 0.6814 1.1731 1.3697 1.1077 1.2373 1.1986
3944.760 1.1055 1.0731 0.7114 0.51999 0.625 0.9422 1.21 0.7598 0.6527 0.6721
3964.049 0.73 1.2209 1.0694 0.362 0.4624 1.0948 1.3518 1.1977 0.851 0.6222
3983.339 0.6794 1.147 1.0357 0.528739 0.60562 0.9247 1.0913 1.1606 0.9981 1.0142
##END=
