##TITLE=2,4-Difluorobenzamide
##JCAMP-DX=4.24
##DATA TYPE=INFRARED SPECTRUM
##ORIGIN=EPA-IR VAPOR PHASE LIBRARY
##OWNER=SRD/NIST
Collection (C) 2018 copyright by the U.S. Secretary of Commerce
on behalf of the United States of America. All rights reserved.
##CAS REGISTRY NO=85118-02-1
##MOLFORM=C 7 H 5 F 2 N O
##$NIST SOURCE=MSDC-IR
##STATE=gas
##XUNITS=1/CM
##YUNITS=ABSORBANCE
##XFACTOR=1.
##YFACTOR=0.001
##DELTAX=1.92898
##FIRSTX=549.8
##LASTX=4000.7
##FIRSTY=5.992
##MAXX=4000.7
##MINX=549.759
##MAXY=0.037362
##MINY=0
##NPOINTS=1790
##XYDATA=(X++(Y..Y))
549.759 5.992 6.412 6.502 6.722 7.122 6.492 5.142 4.272 4.082 3.222
569.049 2.972 3.022 2.492 2.492 2.742 2.552 2.102 1.7063 2.172 2.612
588.339 2.542 3.082 3.852 4.132 3.602 3.302 2.952 3.012 3.462 2.912
607.628 2.182 1.852 1.6947 1.7113 1.3447 0.7826 1.2242 1.7227 1.7071 1.832
626.918 1.6814 2.022 2.552 2.512 2.292 2.252 2.412 2.572 2.692 2.392
646.208 1.3231 0.8647 1.5822 1.942 1.972 1.962 1.7672 1.6354 2.342 2.452
665.498 1.952 1.972 1.872 2.192 2.772 2.862 3.012 2.812 2.382 2.192
684.787 2.352 2.692 2.682 2.352 2.512 2.932 2.342 2.212 2.302 2.172
704.077 2.462 2.262 1.922 1.7506 1.7651 2.022 2.272 2.462 2.802 2.762
723.367 2.942 3.322 3.132 3.082 3.282 3.512 3.052 3.452 3.902 3.292
742.657 3.472 3.372 2.822 2.922 3.072 3.212 3.472 3.412 3.522 4.302
761.947 4.682 4.252 3.912 3.732 3.672 3.612 3.372 3.342 3.182 2.892
781.236 2.432 2.082 2.202 1.892 2.092 2.602 2.292 2.322 2.682 2.602
800.526 2.762 2.772 2.182 2.182 2.342 2.452 3.252 2.982 1.6057 1.2935
819.816 2.142 3.502 3.742 3.942 4.052 3.972 3.962 3.832 4.792 5.682
839.106 5.892 6.262 7.202 7.892 7.902 8.672 10.982 12.252 10.482 8.902
858.395 8.342 7.542 6.702 6.192 5.832 5.182 4.482 3.552 3.192 3.002
877.685 2.442 2.182 2.342 2.312 2.232 2.162 2.132 2.242 1.962 1.942
896.975 1.902 1.7365 2.062 2.192 2.152 2.152 2.012 2.062 2.382 2.272
916.265 2.112 2.012 2.242 2.632 2.602 2.362 1.932 2.072 2.172 2.112
935.555 2.262 2.262 2.502 2.672 2.382 2.382 2.722 2.652 2.732 3.262
954.844 3.822 4.612 5.292 6.672 8.822 10.422 10.922 10.922 11.282 11.092
974.134 10.772 10.112 8.452 6.622 4.712 3.552 2.952 2.552 1.972 1.5374
993.424 1.5941 1.7966 2.012 1.7432 1.5888 1.527 1.902 1.822 1.3906 1.8011
1012.714 2.222 1.892 1.6624 1.812 1.3835 1.0937 2.012 1.8108 1.6436 1.892
1032.003 0.555 0 0.9138 1.1373 0.9545 1.5251 2.132 2.072 1.7614 1.5931
1051.293 1.872 2.012 1.5224 1.912 3.002 2.532 2.482 3.302 3.192 2.612
1070.583 1.3701 1.6918 3.512 4.732 5.292 6.252 6.452 6.372 7.532 8.042
1089.873 6.862 5.982 5.552 4.702 4.102 3.132 2.382 3.962 4.672 3.102
1109.163 1.912 2.412 4.082 3.472 3.482 5.172 6.552 7.842 8.092 7.542
1128.452 7.142 7.102 7.792 9.522 10.162 9.292 8.042 6.952 6.152 5.892
1147.742 5.462 5.282 4.672 3.622 3.452 3.302 3.132 2.832 2.982 3.012
1167.032 2.862 2.212 1.862 1.5179 0.756 1.7871 2.622 2.152 1.173 1.0663
1186.322 1.525 1.6428 2.122 3.072 3.602 2.542 2.532 5.082 5.502 4.542
1205.611 3.792 3.342 4.212 4.232 3.912 2.622 2.702 5.452 5.572 3.822
1224.901 4.152 5.062 4.882 4.892 5.242 5.622 5.642 5.562 5.472 5.192
1244.191 4.812 4.292 4.372 4.882 5.652 6.722 8.462 9.932 10.642 11.602
1263.481 12.142 12.452 12.802 12.822 12.452 12.082 11.222 9.732 8.752 7.772
1282.771 6.592 6.132 6.232 6.182 6.332 6.272 6.142 6.072 5.912 5.842
1302.060 6.012 6.392 6.172 5.712 5.592 5.502 5.392 5.182 5.112 5.042
1321.350 4.882 5.012 5.352 5.992 6.882 7.922 9.192 11.072 13.402 15.762
1340.640 18.292 20.512 22.232 23.272 23.422 22.952 21.852 20.262 18.002 15.232
1359.930 12.222 9.192 6.892 5.372 4.612 4.352 4.042 3.702 3.422 3.182
1379.219 3.072 3.112 3.182 3.172 3.122 3.092 3.172 3.282 3.262 3.322
1398.509 3.332 3.412 3.602 3.782 4.222 4.792 5.452 6.232 7.132 8.142
1417.799 9.192 10.272 11.402 12.462 13.072 13.362 13.432 13.232 12.732 11.892
1437.089 10.502 9.032 7.612 6.322 5.272 4.432 3.862 3.392 3.052 2.892
1456.378 2.872 3.152 3.272 3.132 3.162 3.262 3.262 3.342 3.472 3.612
1475.668 3.652 3.702 3.772 3.922 4.572 5.302 5.932 6.832 7.972 8.952
1494.958 9.522 9.762 9.902 9.782 9.402 8.882 7.962 6.632 5.282 4.302
1514.248 3.542 2.792 2.532 2.472 2.192 2.012 2.132 1.992 1.842 1.952
1533.538 1.862 2.002 2.022 1.822 2.152 2.282 2.052 2.232 2.582 2.582
1552.827 2.802 3.212 3.322 3.692 4.212 4.772 5.392 5.992 6.882 7.872
1572.117 9.072 10.432 12.002 13.962 15.632 17.412 19.312 20.842 22.142 23.242
1591.407 23.822 24.042 24.162 23.932 23.272 22.572 22.202 21.922 21.552 21.092
1610.697 20.352 19.452 18.682 17.842 16.702 15.612 14.362 12.982 11.832 10.282
1629.986 9.382 8.662 7.502 6.702 6.182 5.972 5.592 5.092 4.732 4.492
1649.276 4.632 4.512 4.192 4.382 4.482 4.412 4.392 4.402 4.492 4.732
1668.566 4.782 4.832 5.062 5.352 5.652 5.662 5.682 5.592 5.722 6.002
1687.856 6.352 6.862 7.192 7.682 8.722 10.312 12.352 14.952 17.862 21.512
1707.146 25.802 30.322 33.942 36.132 36.952 36.762 36.782 37.362 37.102 34.972
1726.435 30.702 25.662 21.022 16.922 13.502 11.092 9.272 7.952 6.982 6.342
1745.725 5.952 5.602 5.292 5.112 5.002 4.832 4.832 4.962 5.012 4.782
1765.015 4.222 3.732 3.612 3.352 2.832 2.632 2.462 2.232 2.162 2.162
1784.305 2.102 2.012 1.942 1.922 1.822 1.7183 1.766 1.7634 1.8039 2.022
1803.594 1.952 1.852 1.872 1.7494 1.6486 1.5511 1.5654 1.5908 1.5166 1.5106
1822.884 1.6791 1.7032 1.5506 1.558 1.5257 1.5616 1.5414 1.528 1.656 1.4024
1842.174 1.3273 1.4176 1.4498 1.4337 1.3474 1.392 1.3482 1.3321 1.4221 1.4151
1861.464 1.4376 1.4244 1.3326 1.2318 1.1821 1.4425 1.5171 1.3184 1.3821 1.4927
1880.754 1.4041 1.3377 1.3242 1.4062 1.5245 1.544 1.4305 1.2966 1.2364 1.3197
1900.043 1.2724 1.2371 1.4878 1.4023 1.189 1.2186 1.4552 1.5794 1.4006 1.3975
1919.333 1.4949 1.5109 1.4042 1.3452 1.3726 1.2794 1.4676 1.643 1.4786 1.3293
1938.623 1.3814 1.4152 1.2075 1.1846 1.3092 1.2784 1.1805 1.0615 0.9487 1.1233
1957.913 1.2996 1.2525 1.2167 1.1179 1.1253 1.2973 1.3438 1.347 1.2999 1.1397
1977.202 1.0826 1.0181 1.0554 1.1792 1.1025 0.9777 1.0096 0.9641 0.9483 1.111
1996.492 1.1682 1.2334 1.2033 1.1513 1.2103 1.0609 1.0528 1.0518 1.155 1.3785
2015.782 1.1937 1.1768 1.2414 1.3413 1.3816 1.3075 1.4125 1.3773 1.3489 1.2739
2035.072 1.166 1.1814 1.3831 1.3924 1.2808 1.2581 1.1447 1.2029 1.278 1.275
2054.362 1.245 1.4092 1.4248 1.3381 1.286 1.1226 1.1028 0.9664 0.9354 1.054
2073.651 1.227 1.3227 1.208 1.1325 1.1849 1.2515 1.1057 0.9922 0.9806 1.0833
2092.941 1.1864 1.0386 1.0662 1.1603 1.0436 1.0787 1.1775 1.0858 1.0839 1.136
2112.231 1.1973 1.1822 0.9519 1.0934 1.3082 1.1842 1.2006 1.2921 1.2524 1.1436
2131.521 1.2495 1.5571 1.4271 1.0804 1.1322 1.2399 1.1085 1.2084 1.2531 1.2393
2150.810 1.2167 1.0498 1.2219 1.3019 1.1422 1.1733 1.1775 1.0637 0.9988 0.9907
2170.100 0.9858 1.0257 0.9323 0.701 0.87074 1.0385 1.1181 1.1835 1.2021 1.3091
2189.390 1.2061 1.2999 1.4302 1.3399 1.2069 1.1932 1.3213 1.1901 1.1732 1.0011
2208.680 0.84359 1.0111 1.2093 1.3296 1.2425 1.0694 1.1001 1.2593 1.2102 1.1689
2227.970 1.228 1.3972 1.3985 1.1789 1.1166 1.0958 1.0546 1.1443 1.2608 1.0974
2247.259 0.87702 0.87379 0.9208 1.0581 1.0977 0.9878 0.9753 1.1304 1.1275 1.0255
2266.549 1.0696 1.1158 1.1505 1.2856 1.237 1.0555 1.0651 1.0663 0.9769 0.9668
2285.839 1.1113 1.078 0.9502 0.84266 0.89684 1.1351 1.0649 0.9448 0.9045 1.0118
2305.129 1.134 1.112 1.1918 1.4302 1.3987 1.1826 1.1269 1.0297 1.0628 1.1284
2324.418 1.0649 0.9992 1.0594 1.1202 0.9631 0.9034 0.83321 0.81057 1.2282 1.4582
2343.708 1.2704 1.1749 1.292 1.119 1.121 1.2835 1.2414 1.3612 1.4155 1.1443
2362.998 1.2082 1.443 1.2788 1.3451 1.1938 0.90239 0.9994 1.0188 0.978 1.0835
2382.288 0.9783 0.7851 0.7952 1.0374 1.1525 1.1816 1.3783 1.3301 1.2538 1.4144
2401.578 1.3286 1.0995 1.1566 1.154 1.0966 1.1218 1.1043 1.1644 1.3198 1.2613
2420.867 1.1539 1.2507 1.3792 1.4021 1.4641 1.4661 1.6258 1.601 1.3746 1.2109
2440.157 1.1189 1.2873 1.3182 1.3822 1.044 0.7936 0.83913 1.0968 1.3589 1.2275
2459.447 1.1281 1.1598 1.1923 1.2099 1.1767 1.2065 1.1249 1.0816 1.244 1.3203
2478.737 1.3292 1.2535 1.1628 1.0877 1.1886 1.208 1.0593 0.86943 1.0134 1.0336
2498.026 0.9391 1.1087 1.1143 0.9359 1.0448 1.0435 0.811272 1.0312 1.4835 1.6151
2517.316 1.2464 0.9764 1.0312 0.9721 0.9698 1.1583 1.1201 1.1962 1.2268 1.0821
2536.606 1.0604 0.9864 1.0482 1.0787 1.0149 1.0487 1.2139 1.281 1.2711 1.3522
2555.896 1.0742 1.0504 1.3208 1.1927 1.158 1.378 1.3628 1.1856 1.0059 0.89836
2575.186 1.1505 1.1968 1.284 1.5213 1.369 0.9909 0.88874 1.0624 1.0841 1.0016
2594.475 1.0627 1.1835 1.1846 1.1885 1.1305 0.9609 1.0785 1.174 1.2264 1.1574
2613.765 0.7985 0.85107 1.0798 1.2592 1.2983 1.3424 1.4724 1.3522 1.2816 1.0949
2633.055 0.9237 1.1702 1.2317 1.0693 0.86122 0.89856 1.1255 1.1037 1.11 1.2387
2652.345 1.2394 1.3654 1.5865 1.1675 0.89034 0.9451 0.89234 0.91003 0.7406 0.619
2671.634 0.9496 0.91111 0.81305 1.2648 1.2978 0.942 0.7488 0.9159 1.0794 1.2647
2690.924 1.2149 1.032 1.1627 1.1209 1.1855 1.1875 0.90161 0.87454 1.1932 1.3989
2710.214 1.3253 1.0929 0.9064 1.0142 1.0642 1.0568 1.1307 1.343 1.2035 1.005
2729.504 1.315 1.4888 1.4502 1.3088 1.0917 0.7153 0.87143 1.4169 1.057 0.82301
2748.794 1.1909 1.0329 0.7921 1.0613 1.1669 1.0611 1.0163 1.0204 0.9548 1.0279
2768.083 1.3252 1.0974 0.539 0.609 0.671 0.592 0.9656 1.0706 1.0233 1.0794
2787.373 1.2198 1.192 0.935 0.9737 0.9869 1.1087 1.2516 0.987 0.965 0.98
2806.663 1.0287 1.1402 1.0986 1.1425 1.1115 1.2212 1.4169 1.3156 1.0592 0.9352
2825.953 0.726 0.86126 1.2802 1.3954 1.1233 0.9455 1.0645 1.0346 1.1711 1.3964
2845.242 1.4678 1.2235 1.112 1.2325 1.2617 1.1159 0.82212 0.7467 0.9563 1.2666
2864.532 1.3012 0.924 0.597 0.677 0.90213 1.0268 1.0132 1.1383 1.0344 1.1394
2883.822 1.2234 1.1357 1.5213 1.5894 1.2119 1.0437 1.1228 1.212 1.1338 1.1592
2903.112 1.2059 1.1243 1.021 0.813452 0.80803 0.7728 0.652 0.69 0.9493 0.9518
2922.401 0.88533 0.9485 1.0289 1.1124 0.9851 1.1118 1.2647 1.0522 1.1298 1.5029
2941.691 1.4122 1.0397 1.0775 0.8026 0.634 1.3892 1.5164 1.2466 1.5106 1.5144
2960.981 1.2221 1.0351 1.0565 1.4196 1.3683 1.3468 1.6908 1.4272 0.9728 0.9388
2980.271 1.25 0.90174 0.7179 0.684 0.546 1.1556 1.3385 1.1424 1.4122 1.2732
2999.561 0.9901 1.1954 1.1653 1.0946 1.2221 1.1701 0.9773 1.2198 1.4923 1.4784
3018.850 1.4486 1.3749 1.345 1.1927 1.0641 1.2765 1.2656 1.06 0.9365 0.86001
3038.140 0.9151 1.0784 1.0209 0.87819 1.0266 1.3518 1.2719 1.0744 1.1109 1.2338
3057.430 1.4588 1.1357 0.643 0.9564 1.2533 1.196 1.2578 1.3726 1.2744 1.1877
3076.720 1.4274 1.4639 1.2903 1.3343 1.671 1.8091 1.942 1.832 1.7569 1.932
3096.009 1.7541 1.525 1.678 1.5462 1.2892 1.52 1.6204 1.5774 1.0718 0.8722
3115.299 0.9123 1.055 1.3596 1.1318 0.9764 1.1157 1.1601 1.1948 1.2018 1.1863
3134.589 1.1974 1.3147 1.147 0.85545 1.3613 1.3391 0.99 0.85544 0.87755 1.0182
3153.879 1.1494 1.4246 1.4294 1.5792 1.6734 1.2049 0.84598 0.63 0.83506 1.0166
3173.169 1.11 1.5518 1.1742 0.88816 1.1038 0.84177 0.61 0.7942 1.0399 1.1125
3192.458 0.92 1.1956 1.4945 1.082 0.694 1.343 1.5706 0.95 0.661 0.653
3211.748 1.0356 1.2574 1.2226 1.2569 1.132 0.9258 0.86219 0.7748 0.564 0.934
3231.038 1.3394 1.1938 1.2941 1.1815 1.2253 1.6844 1.4822 1.4646 1.254 0.684
3250.328 0.88739 0.84932 0.815433 1.0936 1.1442 0.89959 0.821236 1.3334 1.7199 1.1879
3269.617 0.88902 1.3272 0.9713 0.7911 0.7426 0.411 0.81067 1.2932 1.1408 1.3706
3288.907 1.5878 1.4466 1.4835 1.2572 1.0985 1.1251 1.1256 1.3125 1.5073 1.7216
3308.197 1.6448 1.8117 2.002 1.2052 1.1675 1.7648 2.032 1.6269 1.0403 0.7443
3327.487 0.9366 1.3168 0.9404 0.988 1.4978 1.4112 1.0119 0.85983 0.92 0.9438
3346.777 1.2775 1.2053 0.9381 1.2744 1.4868 1.0057 1.0052 1.5824 1.7038 1.4856
3366.066 1.322 1.1293 1.0528 1.1687 1.3937 1.5743 1.5531 1.4128 1.1218 0.9431
3385.356 1.134 1.5094 1.6629 1.5737 1.8107 2.142 2.052 1.952 1.992 2.192
3404.646 2.112 2.072 2.212 2.322 2.692 3.012 2.992 3.032 3.182 3.582
3423.936 4.102 4.232 3.832 3.712 4.442 4.542 4.442 5.242 5.522 5.322
3443.225 5.702 5.722 5.252 4.802 4.492 4.152 3.642 2.962 2.282 1.832
3462.515 2.062 1.952 1.6625 1.4203 0.597 0.657 0.9383 1.0752 1.2733 1.6091
3481.805 1.842 1.7846 1.2331 0.7574 1.4289 1.785 1.6404 1.7437 1.5724 1.394
3501.095 1.6427 1.5601 1.5147 2.172 2.262 1.7577 1.8008 1.7167 1.7994 2.202
3520.385 2.232 2.342 2.692 2.892 2.922 3.182 2.882 2.682 2.782 3.122
3539.674 3.522 3.442 3.112 3.102 3.632 3.792 4.012 4.222 4.582 5.252
3558.964 5.862 5.872 5.852 6.332 6.502 6.442 6.372 6.002 5.292 5.032
3578.254 4.362 3.262 2.822 2.362 2.252 2.162 2.022 1.872 1.2756 1.1462
3597.544 1.3104 1.5985 1.2428 0.9556 1.3533 1.2056 1.1421 1.3392 1.2106 0.83459
3616.833 1.0383 1.3749 1.3401 1.5146 1.2571 1.0303 1.2555 1.2779 1.1444 1.1706
3636.123 1.2648 1.3712 1.3969 1.4718 1.3708 1.4103 1.4104 1.1928 1.36 1.5076
3655.413 1.6169 1.4543 1.2987 1.2376 1.4866 1.962 2.072 2.192 1.7373 1.2138
3674.703 1.0879 1.2265 1.416 1.0706 0.7903 1.328 1.2386 0.82675 1.114 1.1494
3693.993 1.2933 1.5115 1.5142 1.65 1.811 1.5332 1.4433 1.7398 1.892 1.872
3713.282 1.6209 1.3381 1.0846 1.2369 1.4979 1.2178 1.1952 1.1785 1.4244 1.454
3732.572 1.3118 1.4191 1.3885 1.5432 1.3957 1.5064 1.2708 0.85541 1.1312 0.85645
3751.862 0.425 0.548 0.762 1.01 1.0181 1.1325 1.3927 1.4614 1.3875 1.1213
3771.152 0.9749 1.1125 1.2558 1.3626 1.3735 0.91031 0.90905 1.1102 0.83868 0.9164
3790.441 1.2051 1.5327 1.7035 1.2488 0.9782 0.8771 1.0205 1.0286 0.649 0.9985
3809.731 1.3137 1.4932 1.5497 0.89987 0.89963 1.706 1.6266 1.0438 0.7904 0.9677
3829.021 0.9148 0.306 0.86441 1.2885 1.3114 1.422 1.152 1.872 2.292 1.625
3848.311 1.2969 1.3364 1.1551 1.496 1.832 1.5308 1.441 1.1828 0.381 0.192
3867.601 0.7998 0.999 0.88264 0.9334 1.3617 1.5961 1.0117 1.0195 1.5563 1.4482
3886.890 1.2031 1.2332 1.2226 1.18 0.9546 1.0885 1.6048 1.892 1.6026 0.9004
3906.180 1.0361 1.188 1.1834 1.5052 1.4042 1.0047 0.587 0.579 0.9569 1.0484
3925.470 1.0403 1.0843 1.2355 0.8883 0.369 0.337 0.543 0.85359 1.0152 1.0034
3944.760 0.9297 1.0538 1.3236 1.5319 1.4213 1.3185 1.1811 0.9817 0.7704 1.1398
3964.049 1.2185 0.487 0.421 0.82316 0.819724 0.7718 0.9361 0.9254 1.1343 1.1982
3983.339 0.7354 0.643 1.0517 1.4473 1.2951 0.9971 1.1297 1.2838 1.2002 1.1456
##END=
