##TITLE=3,4-Difluorobenzyl alcohol
##JCAMP-DX=4.24
##DATA TYPE=INFRARED SPECTRUM
##ORIGIN=EPA-IR VAPOR PHASE LIBRARY
##OWNER=SRD/NIST
Collection (C) 2018 copyright by the U.S. Secretary of Commerce
on behalf of the United States of America. All rights reserved.
##CAS REGISTRY NO=85118-05-4
##MOLFORM=C 7 H 6 F 2 O
##$NIST SOURCE=MSDC-IR
##STATE=gas
##XUNITS=1/CM
##YUNITS=ABSORBANCE
##XFACTOR=1.
##YFACTOR=0.001
##DELTAX=1.92898
##FIRSTX=549.8
##LASTX=4000.7
##FIRSTY=5.29
##MAXX=4000.7
##MINX=549.759
##MAXY=0.16221
##MINY=0
##NPOINTS=1790
##XYDATA=(X++(Y..Y))
549.759 5.29 4.88 4.55 5.3 6.1 6.38 6.87 6.9 7.73 8.73
569.049 8.77 9.11 9.54 9.9 9.85 9.86 9.99 9.45 9.11 8.84
588.339 8.72 7.83 7.69 7.84 6.94 6.46 6.71 6.71 6.58 6.61
607.628 6.42 6.47 6.46 6.44 6.86 6.59 6.2 6.62 6.97 7.37
626.918 7.58 7.43 6.97 6.71 6.37 5.5 4.83 4.98 4.99 4.25
646.208 4.04 4.14 4.03 3.84 3.41 3.18 3.13 2.65 2.68 2.84
665.498 2.69 2.67 2.0382 2.36 3.26 2.99 2.92 2.77 2.1986 2.66
684.787 3.06 2.79 2.52 2.88 3.23 2.77 2.76 3.33 3.05 2.67
704.077 2.94 3.69 4.18 4.31 4.8 4.61 4.91 6.2 7.37 7.9
723.367 7.97 8.56 9.64 11.13 12.93 13.74 13.11 12.99 13.73 14.22
742.657 14.02 13.18 12.8 12.48 11.7 11.61 11.9 12.57 13.65 14.95
761.947 16.6 18.82 23.04 27.85 31.98 36.22 39.05 40.27 40.64 39.94
781.236 38.51 36.63 33.78 29.6 25.22 21.47 19.26 18.6 18.75 19.4
800.526 20.24 22.06 24.58 27.09 29.48 32.2 34.92 36.77 36.67 34.15
819.816 30.99 27.14 24.16 22.81 20.61 17.7 15.18 12.82 10.62 9.24
839.106 8.77 8.01 7.53 7.69 7.77 8.38 9.79 10.86 11.94 13.2
858.395 14.44 15.9 17.52 19.44 21.15 22.18 22.47 21.52 19.84 18.48
877.685 17.43 16.2 14.88 13.66 12.06 10.89 10.45 9.85 8.95 8.64
896.975 8.47 7.98 7.69 7.94 8.14 8.3 8.67 8.84 9.22 9.96
916.265 10.84 11.61 12.42 13.53 14.77 16.51 18.4 19.27 20.31 21.52
935.555 21.78 22.18 22.47 21.79 21.23 21.11 20.55 20.17 19.43 18.22
954.844 17.78 17.3 16.88 16.74 16.32 15.93 16 16.11 15.98 15.99
974.134 16.29 16.39 16.14 16.28 16.87 16.99 16.7 16.95 17.32 17.51
993.424 18.07 18.51 18.93 20.07 21.4 22.39 23.33 24.22 25.11 26.94
1012.714 29.11 30.86 31.62 32.69 35.09 36.96 38.31 39.55 40.78 42.54
1032.003 43.99 44.74 43.69 42.9 43.36 42.22 39.6 36.56 33.92 31.89
1051.293 29.56 27.78 26.46 25.39 23.64 21.38 20.73 19.31 17.84 17.11
1070.583 15.7 13.91 11.91 10.15 10.06 11.32 11.15 10.23 10.17 10.28
1089.873 9.97 10.36 10.39 10.6 12.59 14.58 17.59 22.62 26.16 29.13
1109.163 31.89 32.13 32.2 32.07 33.21 34.91 33.87 32.58 30.69 26.63
1128.452 23.56 22.57 23.44 22.4 21.32 21.84 20.35 19.62 19.39 18.77
1147.742 17.63 17.14 16.19 14.49 13.21 13.2 13.13 11.64 11.36 10.93
1167.032 10.27 11.22 10.75 10.01 10.47 10.34 11.06 11.9 12 12.27
1186.322 13.11 13.65 14.92 15.14 15.58 17.5 17.56 17.83 20.57 24.48
1205.611 27.49 29.68 32.54 35.71 38.11 39.04 40.18 41.96 41.13 39.36
1224.901 38.65 36.13 31.88 27.62 24.98 22.14 19.38 18.52 17.52 16.77
1244.191 16.07 15.42 15.16 15.91 17.27 18.87 20.54 22.81 25.78 27.96
1263.481 30.8 35.43 40.52 46.64 53.64 62.28 73.52 86.04 99.7 113.11
1282.771 125.19 135.05 141.42 143.97 142.81 138.82 131.29 120.09 105.3 88.22
1302.060 71.33 55.81 43.77 35.36 29.36 25.11 22.01 19.76 18.07 16.76
1321.350 15.56 14.85 14.33 13.71 13.2 12.8 12.62 12.55 12.25 11.97
1340.640 11.93 11.84 12.01 12.35 12.79 13.24 13.86 14.79 15.51 16.39
1359.930 17.6 18.88 20.18 21.27 22.12 23.07 24.05 24.73 25.23 25.32
1379.219 24.94 24.43 23.82 23.06 22.44 21.87 21.05 20.25 19.67 19.39
1398.509 19.12 18.98 19.1 19.35 19.87 20.45 21.36 22.5 23.88 25.88
1417.799 28.24 31.13 34.27 37.35 40.74 43.88 46.15 47.64 47.89 47.33
1437.089 46.74 45.43 43.08 39.77 35.61 30.94 26.62 23.31 20.64 18.89
1456.378 17.68 16.5 16.29 16.42 16.43 16.55 16.5 16.32 16.14 16.17
1475.668 16.08 15.85 15.58 15.18 15.02 15.79 17.09 18.66 20.79 23.52
1494.958 27.19 32 38.03 45.06 53.55 63.62 75.43 89 103.22 118.09
1514.248 132.89 146.32 156.51 161.95 162.21 157.65 149.28 138 124.42 108.76
1533.538 90.36 70.76 53.77 39.74 29.69 23.43 19.62 17.21 15.31 14.12
1552.827 13.67 13.31 13.06 13.02 12.99 13.18 13.64 14.02 14 13.94
1572.117 13.78 13.43 13.31 13.1 13.17 13.39 13.43 13.83 14.7 16.01
1591.407 17.59 19.27 21.55 24.39 26.92 29.46 31.84 33.71 35.1 35.74
1610.697 35.8 35.41 33.99 31.99 29.48 26.08 23.01 20.35 17.93 16
1629.986 13.98 12.36 10.91 9.26 7.88 6.84 5.94 5.29 4.76 4.26
1649.276 3.81 3.48 3.43 3.38 3.14 3.03 3.03 2.84 3.01 3.03
1668.566 2.71 2.49 2.4 2.44 2.33 2.2108 2.1926 2.1861 2.1526 2.1049
1687.856 2.1134 2.34 2.33 2.2681 2.35 2.1748 2.28 2.39 2.45 2.53
1707.146 2.59 2.61 2.71 2.86 2.79 2.9 3.1 3.2 3.2 3.33
1726.435 3.57 3.53 3.53 3.87 3.7 3.7 4.01 3.73 3.69 3.71
1745.725 3.44 3.39 3.33 3.19 3.24 3.18 2.86 2.71 2.45 2.2333
1765.015 2.32 2.2598 2.0211 2.0348 1.9685 1.9127 1.9886 1.9575 2.0969 2.1986
1784.305 2.1711 2.1206 2.0773 2.2251 2.42 2.53 2.5 2.48 2.6 2.68
1803.594 2.73 2.59 2.49 2.5 2.4 2.38 2.33 2.1958 2.095 2.0447
1822.884 2.0717 2.1408 2.0706 1.9903 2.0364 2.1357 2.1245 2.2493 2.36 2.29
1842.174 2.2589 2.1519 2.2041 2.33 2.52 2.74 2.93 3.14 3.04 2.97
1861.464 3.24 3.43 3.53 3.68 3.69 3.52 3.49 3.59 3.57 3.53
1880.754 3.32 3.28 3.24 2.93 2.69 2.67 2.83 2.64 2.35 2.3
1900.043 2.2372 2.1943 2.1879 2.1119 2.1062 2.2043 2.0434 1.8242 1.7897 1.6494
1919.333 1.6414 1.7101 1.8989 1.9877 1.9336 1.8455 1.7416 1.8593 2.0626 2.0385
1938.623 1.9217 1.9327 1.9001 1.7612 1.8332 1.7854 1.6093 1.6621 1.6965 1.9579
1957.913 2.0326 2.0247 2.0254 1.8376 1.8833 2.0332 1.9963 1.7297 1.6379 1.7905
1977.202 1.9921 2.0619 1.9564 2.0674 2.2509 2.38 2.37 2.31 2.46 2.51
1996.492 2.2237 2.0716 2.2113 2.28 2.1467 2.0668 2.1662 2.244 2.37 2.37
2015.782 2.2558 2.2552 2.28 2.31 2.32 2.37 2.42 2.53 2.53 2.47
2035.072 2.57 2.66 2.73 2.65 2.62 2.77 2.8 2.76 2.7 2.79
2054.362 3.03 3.11 3.15 3.23 3 2.92 2.91 2.88 2.99 3.04
2073.651 3.02 2.91 2.78 2.67 2.43 2.36 2.39 2.38 2.1385 2.0877
2092.941 2.27 2.36 2.4 2.31 2.1954 1.9999 1.8372 1.8502 2.0257 2.0382
2112.231 2.0505 1.9488 1.917 1.9764 1.8964 1.7063 1.5987 1.7819 1.7295 1.4852
2131.521 1.5064 1.5834 1.6349 1.6402 1.7901 1.9677 1.8506 1.7058 1.7319 1.9097
2150.810 2.0017 1.905 1.8186 1.7989 1.7541 1.6808 1.7656 1.9348 1.8681 1.7628
2170.100 1.786 1.9158 1.8214 1.5655 1.7369 2.0321 2.0267 1.9062 1.8825 1.9072
2189.390 2.018 1.8256 1.7186 1.9694 2.0183 1.995 1.904 1.8524 1.8884 1.7897
2208.680 1.6477 1.7185 1.738 1.8317 1.8921 1.9712 2.0065 1.8923 2.0326 2.0675
2227.970 1.8958 1.858 2.0566 2.0092 1.8622 1.9066 1.945 2.1287 2.28 2.1918
2247.259 2.092 2.0354 1.8975 1.792 1.8813 1.9495 2.0676 1.9891 1.8954 2.1615
2266.549 2.2621 2.1785 2.1137 1.9969 2.1246 2.2598 2.36 2.47 2.34 2.42
2285.839 2.6 2.73 2.65 2.48 2.67 2.86 2.76 2.69 2.63 2.59
2305.129 2.66 2.69 2.54 2.33 2.51 2.59 2.39 1.9207 1.7637 2.28
2324.418 2.44 2.34 2.39 2.5 2.68 2.75 2.73 2.67 2.49 2.47
2343.708 2.57 2.49 2.45 2.38 2.42 2.85 2.83 2.4 2.2645 2.2311
2362.998 2.1555 2.2299 2.2127 1.9797 2.0392 2.39 2.47 2.37 2.41 2.34
2382.288 2.34 2.2227 2.1672 2.1984 2.41 2.69 2.47 2.1176 2.167 2.39
2401.578 2.33 2.34 2.2542 2.2633 2.45 2.62 2.54 2.34 2.1567 2.28
2420.867 2.46 2.46 2.46 2.2373 2.29 2.37 2.49 2.58 2.32 2.2151
2440.157 2.262 2.0779 1.8292 1.9013 2.31 2.2675 1.9942 2.0623 2.0725 2.0128
2459.447 1.92 1.8274 1.9822 2.2413 2.0259 1.8822 2.1341 2.33 2.35 2.2629
2478.737 2.27 2.32 2.2571 2.1365 2.27 2.43 2.5 2.2665 2.123 2.2551
2498.026 2.1057 2.35 2.42 2.1458 2.39 2.58 2.47 2.32 2.0501 2.1018
2517.316 2.46 2.45 2.66 2.87 2.62 2.57 2.89 2.86 2.59 2.77
2536.606 2.74 2.63 2.79 2.75 2.66 2.89 2.81 2.84 2.95 2.83
2555.896 2.84 2.67 2.45 2.35 2.29 2.46 2.75 2.57 2.36 2.47
2575.186 2.75 2.75 2.36 2.19 2.3 2.7 2.97 2.98 2.92 2.86
2594.475 2.7 2.46 2.47 2.46 2.29 2.29 2.2348 2.2083 2.32 2.33
2613.765 2.33 2.2344 2.57 2.32 1.8757 2.0625 2.1476 2.44 2.36 2.1285
2633.055 2.1573 2.2136 2.1468 2.0512 2.183 2.1832 2.38 2.48 2.0637 2.0727
2652.345 2.1998 2.2169 2.1934 2.149 2.099 2.1732 2.0048 1.7816 1.8808 2.0685
2671.634 2.4 2.3 2.2487 2.32 2.27 2.38 2.3 2.2005 2.2584 2.037
2690.924 1.9424 2.1986 2.3 2.2657 2.1052 2.1035 2.1709 2.0386 2.0736 2.0941
2710.214 2.37 2.53 2.54 2.89 2.97 2.81 2.88 2.72 2.45 2.58
2729.504 2.6 2.61 2.81 2.88 3.03 2.95 2.73 2.89 2.8 2.56
2748.794 2.44 2.53 2.83 2.74 2.72 2.75 2.33 2.1875 2.38 2.53
2768.083 3.09 3.42 3.08 2.6 2.77 3.3 3.46 3.49 3.51 3.44
2787.373 3.33 3.46 3.51 3.36 3.37 3.58 3.47 3.35 3.34 3.36
2806.663 3.8 3.89 3.82 3.85 3.76 4 4.19 4.3 4.41 4.58
2825.953 4.85 4.91 5.35 5.76 5.58 5.44 5.85 6.11 6.47 7.22
2845.242 7.67 7.98 8.04 8.58 9.17 9.36 9.84 10.42 10.96 11.64
2864.532 12.12 12.32 13.02 14.01 14.91 15.86 16.72 17.41 17.87 18.41
2883.822 19.23 19.74 19.9 20.09 20.01 19.51 19.02 18.65 17.98 17.3
2903.112 16.75 16.82 16.62 15.91 16.06 16.11 15.68 15.41 15.31 15.65
2922.401 16.16 15.9 15.89 16.15 16.21 15.83 15.57 15.87 16.14 15.93
2941.691 15.54 15.41 14.76 14.15 13.95 13.61 13.41 13.31 12.8 11.77
2960.981 11.11 10.91 10.34 9.77 9.27 8.5 7.43 7.34 7.18 6.41
2980.271 6.13 5.79 5.21 4.94 4.9 4.55 3.98 3.88 4.04 3.96
2999.561 4.04 3.79 3.47 3.17 2.94 3.07 3.03 2.87 2.92 2.93
3018.850 2.91 3.01 3.17 3.46 3.93 4.13 4.03 4.22 4.69 5.1
3038.140 5.2 5.18 5.69 6.06 5.88 5.64 5.69 5.93 6.17 6.33
3057.430 6.23 6.12 6.27 6.4 6.14 6.46 6.45 5.9 6.18 6.04
3076.720 5.21 5.02 4.64 4.09 4.19 3.92 3.36 3.57 3.56 2.6
3096.009 2.169 2.34 2.4 2.31 2.0616 1.7403 1.669 1.7625 1.8845 1.7417
3115.299 1.4762 1.6167 1.6257 1.7756 2.0605 1.9864 1.6707 1.3935 1.2503 1.7282
3134.589 2.1767 1.8977 1.9737 1.7546 1.151 1.335 1.35136 1.29051 1.36616 1.108
3153.879 1.065 1.2451 1.4322 1.9469 1.995 1.7919 1.5671 1.2362 1.2927 1.17
3173.169 0.971 1.028 1.2082 1.4886 1.4683 1.33285 1.5051 1.3849 1.2463 1.4883
3192.458 1.5921 1.34381 1.2968 1.132 1.174 1.2388 1.163 1.09 1.30886 1.28409
3211.748 0.663 1.072 1.9411 1.4252 0.792 1.126 1.1962 1.134 1.025 1.156
3231.038 1.265 1.218 1.249 1.155 1.451 1.502 1.1787 1.028 0.976 0.952
3250.328 1.3993 1.5118 0.861 0.877 1.195 0.71 0.359 0.594 0.718 0.903
3269.617 0.929 1.28897 1.3972 1.29207 1.6994 1.7777 1.7072 1.5895 1.16 0.96
3288.907 1.2327 0.834 0.6 0.673 0.39 0.837 1.108 1.054 1.2502 1.1986
3308.197 0.838 0.772 0.66 0.571 0.81 0.869 1.091 1.162 0.781 0.887
3327.487 1.32709 0.784 1.046 2.0303 1.6928 1.1944 1.5685 1.8405 1.444 1.1804
3346.777 1.065 0.802 1.013 1.26085 1.125 1.105 1.26832 1.27514 0.952 0.983
3366.066 1.32679 1.1706 1.30798 1.6286 1.5886 1.5226 1.3724 1.113 1.053 1.146
3385.356 1.1907 1.04 1.28946 1.4403 1.27269 1.36607 0.888 1.2088 1.6631 1.4824
3404.646 1.6638 1.6157 1.5158 1.083 0.725 1.016 1.1836 1.3918 1.7459 1.6763
3423.936 1.066 0.979 1.4907 2.0116 1.8362 1.5898 1.3843 0.983 1.26806 1.32968
3443.225 1.1804 1.8514 2.1948 2.0428 1.6336 0.759 0.788 1.5865 2.2558 2.29
3462.515 1.5859 1.30437 2.0053 1.8809 1.2507 1.054 1.31478 1.5274 1.34015 1.6652
3481.805 1.7968 1.5811 1.4792 1.4611 1.5352 1.4374 1.141 0.587 0.592 0.915
3501.095 1.123 1.35948 1.7573 2.0643 2.0174 2.009 1.8362 1.7055 1.42 1.056
3520.385 0.94 0.851 0.92 1.5542 2.1574 1.688 1.022 1.3074 1.4555 0.985
3539.674 0.902 0.753 0.688 0.74 0.527 0.745 0.944 1.3753 1.5157 1.6696
3558.964 1.7946 1.6136 1.4221 1.123 0.963 0.805 0.942 1.091 1.4276 1.704
3578.254 1.6343 1.2274 1.2346 1.7593 1.5423 1.2423 0.988 0.977 1.8508 2.2427
3597.544 2.55 2.79 2.4 1.8949 1.8978 2.71 2.91 2.55 2.82 3.33
3616.833 2.99 3.51 4.44 4.45 4.27 4.13 4.32 5.09 6.15 6.86
3636.123 6.92 6.9 7.87 8.85 9.61 10.23 11.15 12.15 12.94 13.65
3655.413 13.54 13.57 13.75 13.24 13.28 13.64 13.39 12.8 11.8 10.79
3674.703 9.97 9.1 8.52 8 7 6.47 6.17 5.85 5.34 4.43
3693.993 4.29 4.68 4.72 4.3 3.71 3 2.42 2.45 2.76 2.69
3713.282 2.57 2.28 1.26963 1.32732 1.7907 1.129 1.1717 1.7519 1.4541 1.176
3732.572 1.1732 1.3777 1.30599 1.1976 1.169 1.36381 1.28799 0.802 1.6604 2.1273
3751.862 1.7509 1.853 1.7897 1.5785 1.7555 1.6082 1.3793 1.4936 1.6035 1.4307
3771.152 1.2203 1.1963 0.916 1.2574 1.4398 1.249 1.119 0.555 0.734 1.4584
3790.441 1.4281 1.30432 1.116 0.998 1.2842 1.065 0.667 0.584 0.921 1.35242
3809.731 1.4021 1.1835 1.5049 1.8226 1.714 2.033 2.0682 1.5701 1.5155 1.6008
3829.021 1.5699 1.30449 1.27079 1.8181 1.4823 1.653 1.7873 1.36701 1.3987 1.3511
3848.311 1.5935 1.2502 0.967 0.924 0.91 1.30237 1.8175 2.1028 1.6594 1.2255
3867.601 1.3791 1.6166 1.4717 1.31728 1.6854 1.6118 0.852 0.977 1.02 1.3751
3886.890 1.4804 1.26214 1.5038 1.4538 1.8021 1.8275 1.7959 1.9806 1.5141 1.31904
3906.180 1.5859 1.27089 1.33428 1.4665 1.162 1.28263 1.5348 1.36437 1.077 0.828
3925.470 0.793 1.1939 1.4758 1.1907 0.692 0.587 0.896 0.764 0.58 1.019
3944.760 1.26795 1.2429 1.1751 1.006 1.1829 1.239 0.685 0.27 0.503 0.955
3964.049 1.078 1.5937 1.5435 1.147 1.6698 1.2045 0 0.23 0.868 0.964
3983.339 0.971 1.31936 1.36286 1.024 0.966 0.7 0.58 0.531 0.993 1.5613
##END=
