##TITLE=Ethyl 3-chloro-4-methylcarbanilate
##JCAMP-DX=4.24
##DATA TYPE=INFRARED SPECTRUM
##ORIGIN=EPA-IR VAPOR PHASE LIBRARY
##OWNER=SRD/NIST
Collection (C) 2018 copyright by the U.S. Secretary of Commerce
on behalf of the United States of America. All rights reserved.
##CAS REGISTRY NO=85419-40-5
##MOLFORM=C 10 H 12 Cl N O 2
##$NIST SOURCE=MSDC-IR
##STATE=gas
##XUNITS=1/CM
##YUNITS=ABSORBANCE
##XFACTOR=1.
##YFACTOR=0.001
##DELTAX=1.92898
##FIRSTX=549.8
##LASTX=4000.7
##FIRSTY=11.323
##MAXX=4000.7
##MINX=549.759
##MAXY=0.376653
##MINY=0
##NPOINTS=1790
##XYDATA=(X++(Y..Y))
549.759 11.323 10.933 10.173 9.983 10.223 10.013 9.753 9.823 10.013 9.913
569.049 9.953 10.313 10.413 10.353 10.263 9.783 9.333 8.623 7.353 6.683
588.339 6.313 5.763 5.473 5.243 4.953 4.763 4.653 4.413 4.143 4.073
607.628 4.073 3.723 3.363 3.213 2.953 2.763 2.723 2.643 2.483 2.303
626.918 2.183 2.213 2.223 1.973 1.763 1.903 2.023 2.073 2.103 2.063
646.208 1.993 2.003 1.993 1.963 1.993 2.013 2.133 2.103 2.253 2.633
665.498 2.833 3.013 3.283 3.643 4.223 4.823 5.633 6.693 8.023 9.723
684.787 11.313 12.863 14.363 15.313 15.503 15.113 14.153 12.773 11.183 9.563
704.077 8.373 7.533 7.023 6.623 6.073 5.883 5.913 5.863 5.703 5.503
723.367 5.523 5.503 5.563 5.743 5.843 5.903 5.953 6.143 6.443 6.523
742.657 6.613 6.873 7.153 7.253 7.483 8.103 8.873 9.783 10.683 12.003
761.947 13.313 14.253 15.433 16.343 16.503 16.193 15.643 14.953 14.193 13.463
781.236 12.963 12.713 12.803 13.203 13.953 14.793 15.673 16.753 17.843 18.753
800.526 19.213 19.123 18.893 18.633 18.063 17.503 17.093 16.333 15.763 15.123
819.816 13.843 12.513 11.113 10.483 9.823 8.753 8.133 7.803 7.783 7.993
839.106 8.593 9.523 10.333 11.243 12.523 13.753 14.723 15.573 16.163 16.563
858.395 17.323 18.283 19.573 21.243 23.383 25.653 27.443 28.693 29.153 28.743
877.685 27.563 25.743 23.563 21.393 19.273 17.033 14.873 13.023 11.713 10.703
896.975 9.983 9.683 9.543 9.363 9.423 9.683 9.903 10.163 10.303 10.413
916.265 10.753 11.343 12.093 13.033 13.833 14.493 15.033 15.053 14.663 14.013
935.555 13.103 12.053 10.923 9.803 8.863 8.203 7.653 7.143 6.963 6.753
954.844 6.483 6.643 6.993 7.203 7.393 7.813 8.313 8.743 9.243 9.753
974.134 10.223 10.753 11.503 12.183 12.763 13.393 14.123 14.983 15.643 16.133
993.424 16.573 17.003 17.053 16.363 15.543 14.573 13.483 12.543 11.693 11.143
1012.714 10.743 10.513 10.443 10.613 10.743 10.943 11.363 12.123 13.493 14.993
1032.003 16.523 18.753 21.813 25.803 30.933 37.663 46.203 55.363 63.703 70.383
1051.293 75.563 79.693 82.383 83.883 86.073 90.063 95.203 99.973 102.903 103.573
1070.583 102.073 98.123 92.063 85.223 78.383 71.723 65.733 60.873 57.213 54.853
1089.873 54.043 54.163 54.403 54.553 53.983 52.063 49.333 45.463 40.513 35.603
1109.163 30.603 27.053 24.383 21.633 20.003 18.903 17.813 17.153 16.493 16.093
1128.452 16.003 16.213 16.513 16.503 16.653 17.153 17.893 18.823 20.203 22.143
1147.742 24.263 26.283 28.193 29.963 31.823 33.633 35.853 38.553 41.813 45.573
1167.032 49.833 55.323 62.313 70.533 80.493 93.093 108.553 127.973 152.553 183.493
1186.322 220.693 263.113 306.943 344.993 369.773 376.653 364.843 337.053 299.193 260.213
1205.611 229.673 209.653 195.683 183.113 168.813 150.643 129.723 109.183 91.483 78.303
1224.901 69.313 62.983 58.583 55.943 54.663 54.243 54.463 54.873 54.803 53.513
1244.191 51.053 47.583 43.273 39.203 36.213 34.683 34.633 36.063 38.653 41.933
1263.481 46.463 51.583 56.163 59.753 61.453 61.463 60.153 57.373 54.363 52.573
1282.771 52.303 53.363 55.753 59.123 62.723 66.143 68.873 70.693 71.993 73.013
1302.060 73.933 75.013 76.303 77.583 78.503 78.603 77.653 75.553 72.223 67.853
1321.350 62.643 56.853 50.953 45.273 40.063 35.573 31.813 28.683 26.153 24.103
1340.640 22.553 21.273 20.243 19.573 19.193 19.083 19.283 19.883 21.023 22.883
1359.930 25.413 28.453 31.753 35.373 39.703 44.913 50.883 57.673 64.953 71.553
1379.219 76.443 78.993 79.393 78.393 76.633 74.473 72.523 71.023 69.173 66.203
1398.509 62.263 57.593 52.483 47.093 41.903 37.373 33.593 30.403 27.823 25.803
1417.799 24.253 23.143 22.483 22.143 22.133 22.403 22.903 23.663 24.743 26.143
1437.089 27.823 29.703 31.813 34.193 36.603 38.833 40.913 42.633 43.923 44.873
1456.378 45.663 46.503 47.463 48.643 50.273 52.363 54.743 57.513 60.643 64.043
1475.668 67.743 71.823 76.223 81.013 86.173 92.103 99.403 108.683 121.033 136.783
1494.958 156.253 179.513 204.543 229.493 251.943 269.203 280.103 283.913 280.093 269.183
1514.248 252.653 232.083 209.273 186.493 163.863 143.923 126.143 110.523 96.933 85.123
1533.538 74.633 65.333 57.633 51.043 45.733 41.663 38.593 36.453 35.063 34.223
1552.827 33.883 34.163 34.893 35.863 37.333 39.153 41.413 44.233 47.533 51.383
1572.117 55.713 60.223 64.693 68.333 70.403 70.613 68.653 64.703 59.423 53.673
1591.407 48.403 44.333 41.963 41.403 42.453 45.113 49.303 54.643 60.493 65.773
1610.697 69.133 69.603 66.773 60.773 52.613 43.763 35.233 28.123 22.843 19.093
1629.986 16.403 14.483 13.093 11.993 11.093 10.373 9.843 9.403 9.023 8.753
1649.276 8.533 8.383 8.223 8.153 8.103 8.003 7.953 7.923 7.943 7.963
1668.566 7.933 7.923 7.953 8.013 8.073 8.123 8.213 8.383 8.563 8.763
1687.856 8.983 9.193 9.443 9.793 10.253 10.693 11.173 11.823 12.523 13.263
1707.146 14.023 14.843 15.723 16.643 17.533 18.523 19.643 20.913 22.663 24.853
1726.435 27.513 30.863 35.043 40.173 46.553 54.273 63.583 75.383 89.653 107.113
1745.725 127.283 148.703 169.233 187.893 203.113 213.893 219.593 219.423 213.523 203.763
1765.015 192.393 178.533 159.443 136.323 112.163 91.103 74.113 60.823 50.793 43.343
1784.305 37.833 33.513 29.833 26.463 23.453 20.843 18.653 16.813 15.373 14.273
1803.594 13.473 12.893 12.493 12.133 11.763 11.353 10.953 10.533 10.043 9.523
1822.884 9.013 8.513 7.993 7.553 7.213 6.853 6.523 6.253 6.043 5.843
1842.174 5.663 5.533 5.373 5.223 5.113 5.003 4.923 4.853 4.733 4.593
1861.464 4.503 4.383 4.263 4.113 3.973 3.863 3.733 3.673 3.633 3.563
1880.754 3.483 3.453 3.453 3.443 3.403 3.383 3.343 3.243 3.163 3.093
1900.043 3.043 2.933 2.793 2.753 2.723 2.683 2.643 2.653 2.603 2.613
1919.333 2.693 2.733 2.703 2.683 2.713 2.673 2.673 2.733 2.743 2.663
1938.623 2.573 2.513 2.443 2.413 2.383 2.353 2.363 2.353 2.333 2.283
1957.913 2.243 2.213 2.183 2.133 2.103 2.113 2.093 2.023 1.993 1.993
1977.202 1.993 1.973 1.913 1.853 1.813 1.773 1.733 1.703 1.663 1.623
1996.492 1.593 1.533 1.473 1.503 1.503 1.453 1.393 1.413 1.403 1.353
2015.782 1.373 1.363 1.363 1.353 1.323 1.303 1.273 1.283 1.303 1.293
2035.072 1.303 1.283 1.303 1.343 1.333 1.343 1.343 1.373 1.373 1.333
2054.362 1.383 1.453 1.413 1.413 1.523 1.543 1.523 1.523 1.563 1.643
2073.651 1.663 1.663 1.673 1.703 1.733 1.743 1.763 1.763 1.773 1.843
2092.941 1.913 1.913 1.903 1.923 1.893 1.843 1.783 1.763 1.743 1.703
2112.231 1.693 1.663 1.663 1.633 1.613 1.623 1.603 1.543 1.533 1.543
2131.521 1.513 1.473 1.433 1.433 1.413 1.403 1.423 1.453 1.463 1.493
2150.810 1.533 1.613 1.663 1.693 1.733 1.763 1.863 1.933 1.963 2.023
2170.100 2.103 2.173 2.243 2.343 2.393 2.423 2.503 2.503 2.553 2.593
2189.390 2.603 2.573 2.473 2.473 2.483 2.453 2.463 2.373 2.263 2.223
2208.680 2.193 2.133 2.093 2.073 1.973 1.893 1.903 1.873 1.843 1.893
2227.970 1.883 1.903 1.993 2.053 2.073 2.053 2.093 2.173 2.193 2.263
2247.259 2.363 2.453 2.563 2.703 2.893 3.113 3.313 3.563 3.863 4.193
2266.549 4.543 4.873 5.153 5.323 5.363 5.313 5.133 4.803 4.403 4.023
2285.839 3.673 3.273 2.893 2.643 2.413 2.243 2.133 1.963 1.853 1.783
2305.129 1.703 1.623 1.523 1.503 1.463 1.423 1.403 1.373 1.283 1.263
2324.418 1.363 1.343 1.263 1.233 1.233 1.243 1.243 1.233 1.213 1.233
2343.708 1.323 1.313 1.273 1.313 1.303 1.293 1.353 1.353 1.343 1.393
2362.998 1.443 1.443 1.413 1.413 1.433 1.433 1.393 1.403 1.463 1.483
2382.288 1.453 1.503 1.473 1.383 1.373 1.353 1.393 1.433 1.403 1.373
2401.578 1.363 1.343 1.353 1.383 1.353 1.303 1.333 1.403 1.403 1.383
2420.867 1.473 1.503 1.473 1.473 1.463 1.443 1.463 1.503 1.523 1.513
2440.157 1.493 1.473 1.483 1.473 1.393 1.383 1.353 1.253 1.253 1.253
2459.447 1.213 1.213 1.233 1.253 1.223 1.183 1.183 1.253 1.283 1.303
2478.737 1.313 1.363 1.393 1.333 1.353 1.363 1.313 1.323 1.373 1.383
2498.026 1.393 1.363 1.273 1.213 1.223 1.273 1.253 1.263 1.283 1.243
2517.316 1.203 1.203 1.273 1.303 1.243 1.293 1.363 1.323 1.333 1.293
2536.606 1.273 1.243 1.223 1.233 1.243 1.243 1.183 1.1069 1.0732 1.1358
2555.896 1.0906 1.0823 1.171 1.1515 1.1456 1.1583 1.1589 1.193 1.203 1.193
2575.186 1.203 1.1552 1.0987 1.0892 1.1331 1.183 1.1471 1.1465 1.1624 1.1396
2594.475 1.0981 1.0872 1.0242 0.9853 1.0458 1.093 1.0555 0.9699 1.0138 1.0268
2613.765 0.9908 1.0063 1.0161 0.9827 0.953 0.9018 0.8848 0.9586 1.005 0.9975
2633.055 0.9107 0.9011 0.9194 0.9081 0.9391 0.9317 0.9141 0.9265 0.9218 0.8752
2652.345 0.8777 0.8913 0.9433 1.0002 1.0649 1.127 1.0839 1.0516 1.0319 1.0622
2671.634 1.0912 1.0066 0.9675 0.9735 0.9798 1.0009 0.9996 1.0581 1.1109 1.1062
2690.924 1.0785 1.1171 1.1448 1.0595 1.0418 1.1729 1.283 1.263 1.243 1.233
2710.214 1.213 1.203 1.213 1.253 1.383 1.423 1.383 1.413 1.453 1.513
2729.504 1.523 1.443 1.433 1.473 1.513 1.583 1.683 1.823 1.943 2.043
2748.794 2.123 2.183 2.203 2.183 2.103 1.973 1.883 1.853 1.853 1.763
2768.083 1.793 1.833 1.813 1.843 1.803 1.723 1.583 1.483 1.493 1.543
2787.373 1.513 1.453 1.533 1.513 1.543 1.603 1.613 1.653 1.713 1.843
2806.663 1.863 1.883 1.973 2.033 2.143 2.283 2.293 2.283 2.363 2.403
2825.953 2.433 2.593 2.683 2.713 2.823 2.863 2.933 3.133 3.353 3.533
2845.242 3.743 3.943 4.143 4.343 4.623 4.963 5.233 5.623 6.073 6.573
2864.532 7.153 7.793 8.443 8.963 9.413 9.813 10.143 10.453 10.653 10.783
2883.822 10.963 11.053 10.923 10.663 10.533 10.543 10.563 10.723 11.013 11.293
2903.112 11.643 12.113 12.603 13.023 13.383 13.843 14.273 14.733 15.343 15.853
2922.401 16.463 17.483 18.763 20.323 22.363 24.633 26.923 29.133 30.963 32.113
2941.691 32.323 31.623 30.203 28.303 26.323 24.493 23.123 22.443 22.253 22.503
2960.981 23.153 24.123 25.243 26.253 27.363 28.543 29.763 31.323 33.273 35.633
2980.271 38.203 40.503 41.953 42.333 41.673 39.873 37.213 34.323 31.443 28.903
2999.561 26.893 24.983 23.173 21.723 20.393 19.063 17.863 16.783 15.713 14.763
3018.850 14.163 13.773 13.673 13.853 14.093 14.493 14.803 14.893 14.823 14.403
3038.140 13.823 13.203 12.553 11.973 11.453 10.933 10.433 10.043 9.583 9.113
3057.430 8.623 8.113 7.713 7.293 6.873 6.653 6.373 5.943 5.653 5.473
3076.720 5.343 5.243 4.983 4.763 4.653 4.563 4.513 4.443 4.443 4.413
3096.009 4.453 4.473 4.373 4.473 4.493 4.303 4.193 4.003 3.693 3.513
3115.299 3.293 3.123 2.953 2.703 2.593 2.543 2.363 2.183 2.123 2.043
3134.589 1.953 1.993 1.923 1.833 1.833 1.743 1.633 1.523 1.463 1.423
3153.879 1.353 1.323 1.273 1.223 1.223 1.243 1.223 1.253 1.203 1.1021
3173.169 1.1248 1.0708 1.0111 1.0702 0.9657 0.9005 0.9817 1.0086 0.9648 0.9252
3192.458 0.9789 0.9808 0.8454 0.8936 0.9861 0.8836 0.8617 0.9002 0.8842 0.8209
3211.748 0.7712 0.7729 0.8191 0.7733 0.6993 0.7258 0.7306 0.6882 0.7097 0.713
3231.038 0.6193 0.6235 0.656 0.6391 0.5874 0.4903 0.5008 0.5438 0.5382 0.4413
3250.328 0.4435 0.5099 0.4054 0.3471 0.4241 0.4364 0.4455 0.4625 0.4298 0.4398
3269.617 0.4721 0.4873 0.4323 0.4614 0.4745 0.4094 0.3864 0.3879 0.3801 0.3694
3288.907 0.3816 0.2947 0.3638 0.4456 0.3269 0.25449 0.304 0.23469 0.1351 0.1627
3308.197 0.25195 0.3093 0.3065 0.3082 0.3272 0.3095 0.2204 0.2881 0.4514 0.4992
3327.487 0.3384 0.1301 0.1163 0.25197 0.4023 0.4764 0.3727 0.3406 0.3526 0.18798
3346.777 0.19773 0.329 0.3044 0.25775 0.20735 0.281 0.4416 0.3892 0.3385 0.4334
3366.066 0.4191 0.4011 0.3531 0.3321 0.3905 0.4048 0.4643 0.5454 0.5452 0.5643
3385.356 0.5716 0.5188 0.5775 0.6517 0.6099 0.5764 0.6472 0.6504 0.5029 0.5589
3404.646 0.8627 0.9504 0.9108 1.0169 1.1079 0.9999 1.0945 1.423 1.623 1.763
3423.936 1.993 2.313 2.553 2.763 3.173 3.733 4.323 5.013 5.813 6.733
3443.225 7.633 8.653 9.853 11.243 12.673 14.223 16.023 17.703 19.383 20.873
3462.515 22.043 23.093 23.383 22.733 21.613 19.983 17.913 15.553 13.053 10.823
3481.805 8.903 7.313 6.213 5.403 4.713 4.163 3.913 3.733 3.373 3.103
3501.095 2.923 2.823 2.753 2.693 2.543 2.403 2.363 2.113 1.963 1.923
3520.385 1.733 1.503 1.313 1.213 1.1007 1.0286 1.011 0.9946 0.8898 0.7932
3539.674 0.6933 0.5989 0.5276 0.6015 0.615 0.5775 0.6318 0.5557 0.4797 0.4646
3558.964 0.4537 0.4744 0.5347 0.515 0.4619 0.4189 0.4265 0.4155 0.2757 0.2835
3578.254 0.4073 0.3584 0.26579 0.2878 0.3252 0.2587 0.18798 0.20958 0.21245 0.22032
3597.544 0.1449 0.036 0.1 0.1482 0.1558 0.20566 0.26096 0.1454 0.032 0.1573
3616.833 0.2164 0.0989 0.0798 0.21511 0.1464 0.007 0.20442 0.3218 0.1108 0.0983
3636.123 0.18742 0.138 0.1307 0.23174 0.2784 0.1557 0.172711 0.20919 0.175854 0.24996
3655.413 0.21977 0.20606 0.18926 0.0792 0.0983 0.1224 0.0794 0.124 0.26519 0.2969
3674.703 0.23001 0.178672 0.1209 0.0967 0.17076 0.24724 0.20668 0.17049 0.2395 0.173506
3693.993 0.22267 0.3297 0.3741 0.3571 0.2897 0.25042 0.1199 0.0949 0.182466 0.26598
3713.282 0.2744 0.25315 0.22422 0.19474 0.23161 0.2556 0.26179 0.18616 0.181672 0.331
3732.572 0.3712 0.2755 0.172893 0.16807 0.23287 0.19533 0.1233 0.1228 0.16572 0.24518
3751.862 0.1553 0.1262 0.1217 0.1266 0.1428 0.049 0 0.0776 0.17178 0.22277
3771.152 0.3708 0.2776 0.24336 0.5205 0.4882 0.3002 0.19118 0.2171 0.22197 0.16494
3790.441 0.2805 0.3852 0.4164 0.3769 0.3546 0.442 0.4666 0.3908 0.25546 0.20481
3809.731 0.27064 0.3261 0.3288 0.21359 0.22332 0.2979 0.322 0.3498 0.3018 0.2781
3829.021 0.2887 0.1364 0.1524 0.3078 0.279 0.19398 0.23122 0.2963 0.2947 0.25197
3848.311 0.21644 0.20094 0.174767 0.301 0.4456 0.3328 0.22249 0.3684 0.4122 0.4018
3867.601 0.3245 0.19427 0.24523 0.4059 0.4094 0.2795 0.22791 0.1591 0.2796 0.2909
3886.890 0.26592 0.3379 0.3366 0.3382 0.4171 0.4837 0.27042 0.0808 0.0953 0.25037
3906.180 0.21616 0.18405 0.22614 0.1567 0.1536 0.20417 0.173864 0.173099 0.3055 0.3485
3925.470 0.273 0.26022 0.2796 0.3107 0.3538 0.3851 0.4056 0.3408 0.3904 0.3905
3944.760 0.3833 0.3312 0.3396 0.4579 0.4497 0.4484 0.5187 0.5859 0.4931 0.4204
3964.049 0.4118 0.5543 0.5679 0.543 0.5869 0.5317 0.5108 0.3888 0.3626 0.3865
3983.339 0.5135 0.5502 0.4866 0.5018 0.4525 0.4622 0.4424 0.3847 0.3533 0.4058
##END=
