##TITLE=Methyl 4,4,4-trifluorocrotonate
##JCAMP-DX=4.24
##DATA TYPE=INFRARED SPECTRUM
##ORIGIN=EPA-IR VAPOR PHASE LIBRARY
##OWNER=SRD/NIST
Collection (C) 2018 copyright by the U.S. Secretary of Commerce
on behalf of the United States of America. All rights reserved.
##CAS REGISTRY NO=85694-31-1
##MOLFORM=C 5 H 5 F 3 O 2
##$NIST SOURCE=MSDC-IR
##STATE=gas
##XUNITS=1/CM
##YUNITS=ABSORBANCE
##XFACTOR=1.
##YFACTOR=0.001
##DELTAX=1.92898
##FIRSTX=549.8
##LASTX=4000.7
##FIRSTY=1.72
##MAXX=4000.7
##MINX=549.759
##MAXY=0.50633
##MINY=0
##NPOINTS=1790
##XYDATA=(X++(Y..Y))
549.759 1.72 0.497 0.7581 0.9703 1.1079 1.5375 2.53 2.99 2.56 2.89
569.049 2.96 2.69 2.84 2.62 2.71 2.55 1.97 2.41 2.25 1.86
588.339 1.96 2.36 2.49 1.5509 1.86 2.49 2.09 2.36 2.62 2.22
607.628 1.96 2.09 2.09 2.22 3.61 4.61 5.16 6.42 7.76 9.57
626.918 12.55 18.06 24.94 32.12 40.91 47.82 51.52 52.69 51.27 49.31
646.208 45.46 38.38 29.73 21.51 15.09 10.09 6.33 4.76 3.61 3.27
665.498 4.09 3.7 2.73 2.23 2.09 2 1.4537 1.1877 1.94 2.21
684.787 2.47 2.47 1.7 1.76 1.82 1.61 1.64 1.75 1.81 2.02
704.077 2.45 2.42 2.64 2.94 3.21 3.29 3.24 3.42 3.95 4.41
723.367 4.31 3.9 3.45 3.84 3.87 3.87 3.93 3.49 2.99 2.38
742.657 2.21 1.83 1.67 1.71 1.4152 1.62 1.95 2.41 2.42 2.59
761.947 2.4 2.02 2.05 1.61 1.84 2.48 2.52 2.13 2.09 1.74
781.236 1.5876 2.5 2.5 2.23 2.02 1.72 1.96 2.29 2.46 2.65
800.526 2.51 2.02 2.34 2.55 2.38 2.22 2.22 2.65 2.55 2.04
819.816 1.8 2.27 2.87 2.87 3.16 3.46 3.07 3 4.33 5.08
839.106 5.25 6.44 7.8 8.77 10.1 11.28 11.69 12.16 12.6 12.66
858.395 12.58 11.89 11.05 11.43 12.07 12.16 11.96 12.43 13.46 13.87
877.685 13.39 12.16 10.86 9.98 8.9 7.92 7.56 7.32 6.84 6.21
896.975 6.62 7.33 7.5 7.65 8.36 9.04 9.18 10.01 11.33 12.63
916.265 13.61 14.6 15.71 16.21 16.73 17.25 17.33 16.76 16.41 16.01
935.555 15.51 15.19 14.47 14.41 14.5 15.09 16.14 16.74 18.01 19.37
954.844 20.7 22.75 24.54 26.14 28.25 30.35 31.77 33.11 34.29 34.91
974.134 34.61 33.63 31.64 29.38 28.04 26.14 24.43 23.22 21.94 21.88
993.424 21.6 22.38 26.14 29.49 32.27 35.82 38.03 39.45 41.08 41.42
1012.714 41.18 39.82 37.59 34.68 32.16 32.24 33.98 35.96 37.78 38.54
1032.003 38.43 38.41 36.29 33.5 30.46 26.25 22.21 19.28 16.93 14.08
1051.293 12.5 11.75 11.34 11.57 11.57 11.21 11.74 12.11 11.66 11.37
1070.583 11.23 11.27 11.25 12.13 13.85 13.85 12.44 12.11 12.88 14.14
1089.873 13.52 11.93 11.74 12.83 13.16 12.09 13.03 14.31 16.07 17.13
1109.163 18.96 22.31 23.87 26.68 30.76 33.36 37.94 45.35 54.07 66.28
1128.452 82.02 103.46 130.11 164.41 207.76 255.38 306.4 357.17 407.69 454.57
1147.742 489.21 506.33 503.34 482.83 444.02 393.51 341.05 287.61 237.76 196.56
1167.032 164.46 140.28 122.05 108.35 97.88 90.5 84.93 81.33 80.42 78.66
1186.322 76.02 75.92 77.01 78.36 78.25 77.1 76.25 76.81 76.89 75.45
1205.611 74.53 72.04 70.1 68.95 69.08 67.05 65.69 65.18 62.12 63.11
1224.901 63.53 63.38 65.8 69.22 72.92 77.82 84.07 91.35 101.74 112.84
1244.191 124.35 138.01 154.64 173.83 192.84 211.19 226.43 235.98 240.84 243.24
1263.481 242.98 238.38 230.68 219.04 203.65 187.85 173.21 160.43 148.95 137.51
1282.771 126.66 117.37 111.76 109.68 111.44 118.34 131.66 154.44 187.96 232.27
1302.060 284.91 338.79 385.33 419.48 441.43 453.34 452.41 430.32 382.08 319.83
1321.350 260.86 211.13 168.59 131.13 99.32 74.48 56.59 44.41 36.42 30.8
1340.640 26.65 23.89 21.69 20.02 18.92 17.7 16.67 15.96 15.19 14.45
1359.930 13.86 13.4 13.02 12.54 12.08 11.97 11.94 11.74 11.51 11.25
1379.219 10.93 10.71 10.46 10.02 9.84 9.32 8.67 8.42 8.29 8.17
1398.509 8.2 8.09 8.08 8.29 8.24 8.18 8.22 8.35 8.67 8.86
1417.799 9.13 9.88 10.39 10.99 12.43 14.64 17.7 21.53 26.34 31.55
1437.089 35.91 38.63 39.69 39.69 38.53 35.45 30.28 24.38 19.19 15.53
1456.378 13.35 11.86 10.95 10.17 9.55 9.4 9.26 9.02 8.76 8.3
1475.668 7.87 7.72 7.37 6.98 7.05 7.13 6.85 6.55 6.45 6.44
1494.958 6.49 6.29 6.01 5.79 5.25 5.15 5.22 4.79 4.63 4.52
1514.248 4.45 4.54 4.55 4.58 4.72 4.53 4.35 4.59 4.93 5.05
1533.538 4.84 4.84 4.97 5.29 5.54 5.38 5.47 5.57 5.48 5.44
1552.827 5.39 5.43 5.42 5.37 5.27 5.28 5.23 5.2 5.19 4.89
1572.117 4.95 5.14 5.1 5.33 5.39 5.47 5.37 4.98 5.05 5.04
1591.407 5.2 5.42 5.19 4.88 4.76 4.65 4.33 4.22 4.25 4.15
1610.697 4.05 3.94 3.75 3.65 3.97 4.02 3.67 3.73 4.05 4.1
1629.986 4.18 4.53 4.94 5.49 5.86 6.22 7 7.37 7.51 8.3
1649.276 9.04 9.76 10.54 11.03 11.71 12.54 13.19 13.8 14.17 14.56
1668.566 14.79 14.53 14.22 13.69 12.83 11.95 11.09 10.26 9.38 8.6
1687.856 8.2 7.99 7.75 7.48 7.73 8.01 8.07 8.55 9.08 9.59
1707.146 10.25 11.19 12.18 13.25 14.56 16.31 18.87 21.26 23.93 27.29
1726.435 31.02 35.77 41.55 47.77 55.41 63.67 72.69 83.27 93.9 105.15
1745.725 116.43 127.32 136.85 144.77 149.96 151.99 151.45 148.47 142.97 134.94
1765.015 123.84 110.47 96.34 83.4 71.49 61.25 52.37 44.67 38.29 32.72
1784.305 27.81 23.65 20.33 17.51 14.88 12.75 11.07 9.58 8.34 7.41
1803.594 6.66 5.97 5.28 4.74 4.55 4.3 3.99 3.77 3.79 3.8
1822.884 3.51 3.39 3.64 3.85 3.89 3.71 3.63 3.75 3.71 3.84
1842.174 4.05 4.06 3.87 3.85 4.03 3.9 3.65 3.69 3.82 3.95
1861.464 3.95 3.99 4.08 3.86 3.78 3.83 3.75 3.7 3.72 3.6
1880.754 3.27 3.21 3.23 3.28 3.22 3.02 3.02 2.85 2.69 2.49
1900.043 2.46 2.59 2.37 2.13 2.09 1.96 1.91 2.04 2.19 2.01
1919.333 1.86 1.95 1.87 1.75 1.81 1.95 1.91 1.85 1.82 1.74
1938.623 1.81 2 2.01 1.93 1.88 1.81 1.65 1.64 1.75 1.7
1957.913 1.62 1.84 1.84 1.72 1.85 1.79 1.69 1.5858 1.5958 1.78
1977.202 1.8 1.87 1.93 1.79 1.87 1.89 2.01 2.15 2.2 2.22
1996.492 2.25 2.56 2.8 2.8 2.89 2.94 2.95 3.06 3.12 3.2
2015.782 3.03 2.77 2.75 2.99 3.18 3.17 3 2.74 2.89 3.16
2035.072 3.01 2.81 2.93 3.18 3.32 3.33 3.2 3.17 3.28 3.13
2054.362 3.06 3.03 3.01 3.07 3.01 2.96 2.69 2.37 2.33 2.38
2073.651 2.51 2.72 2.64 2.2 1.95 2.05 2.18 2.34 2.33 2.26
2092.941 2.48 2.67 2.81 2.75 2.69 2.78 3.02 3.23 3.06 3.05
2112.231 3.28 3.31 3.27 3.35 3.24 2.96 2.86 2.85 2.81 2.73
2131.521 2.46 2.57 2.62 2.35 2.32 2.34 2.4 2.47 2.41 2.31
2150.810 2.34 2.37 2.41 2.48 2.46 2.48 2.35 2.31 2.43 2.38
2170.100 2.23 2.18 2.12 2.08 2.29 2.27 2.04 2.02 1.96 1.86
2189.390 1.85 1.72 1.4283 1.4482 1.5681 1.65 1.64 1.4553 1.2985 1.4189
2208.680 1.5901 1.4059 1.5158 1.67 1.5507 1.5099 1.5146 1.4141 1.5345 1.68
2227.970 1.4365 1.35 1.84 1.78 1.4666 1.6086 1.71 1.77 1.64 1.5789
2247.259 1.67 1.5702 1.74 2 1.78 1.74 1.93 1.94 1.73 1.71
2266.549 1.77 1.77 1.77 1.69 1.74 1.99 2.19 2.18 2.33 2.42
2285.839 2.57 2.89 2.91 2.65 2.6 2.72 2.69 2.75 2.61 2.38
2305.129 2.51 2.41 2.4 2.17 1.95 2.02 1.98 2.01 2.09 2.28
2324.418 2.09 1.84 1.86 1.87 1.93 1.83 1.67 1.5221 1.5873 1.64
2343.708 1.68 1.5445 1.4023 1.62 1.85 1.83 1.69 1.5843 1.71 1.67
2362.998 1.2862 1.3532 1.3775 1.2679 1.4861 1.4081 1.1936 1.2369 1.1594 1.4038
2382.288 1.7 1.67 1.4364 1.67 1.78 1.2769 1.276 1.69 1.78 1.4907
2401.578 1.4717 1.4038 1.4103 1.63 1.71 1.64 1.5066 1.3721 1.1219 1.2782
2420.867 1.4624 1.5492 1.63 1.2934 1.2539 1.4171 1.3165 1.468 1.62 1.63
2440.157 1.66 2.05 1.9 1.501 1.5118 1.4657 1.5807 1.72 1.68 1.86
2459.447 1.88 1.8 1.8 1.82 1.83 1.5843 1.4808 1.5247 1.4489 1.3088
2478.737 1.3185 1.1623 1.0218 1.0387 1.0623 1.2001 1.5265 1.4835 1.4659 1.319
2498.026 1.3225 1.5482 1.2755 1.1812 1.4676 1.3803 1.2826 1.5844 1.5024 1.1971
2517.316 1.243 1.3664 1.2777 1.3063 1.2533 1.3897 1.6051 1.62 1.5333 1.4308
2536.606 1.4326 1.3597 1.3364 1.3281 1.5651 1.81 1.67 1.1382 1.1239 1.5404
2555.896 1.62 1.5981 1.4579 1.5598 1.1253 0.8803 1.2664 1.068 1.0719 1.1407
2575.186 0.8267 0.6983 0.9731 1.2144 1.1008 1.1779 1.1984 1.0801 1.1776 1.1837
2594.475 1.323 1.423 1.2675 1.4253 1.4139 1.2884 1.4968 1.72 1.67 1.3007
2613.765 1.1009 1.0264 1.1875 1.3075 1.4458 1.4211 1.1278 1.3023 1.2161 1.0877
2633.055 1.2747 1.1018 0.8309 0.67739 0.7101 0.9365 1.0951 1.1785 0.96 0.7376
2652.345 0.7742 0.8167 0.9401 0.8827 0.9281 1.151 1.1248 1.0565 0.8941 1.0239
2671.634 0.9777 0.70811 0.7979 0.9253 0.8679 0.9295 1.091 1.0178 1.0731 1.0894
2690.924 0.9162 0.8319 0.7498 0.484 0.407 0.70792 0.7837 0.7242 0.9306 1.1234
2710.214 1.0908 1.3226 1.2429 0.62876 0.67238 0.8092 0.5136 0.69225 0.9693 0.66081
2729.504 0.415 0.487 0.7568 0.8759 0.8971 0.9261 1.1247 1.1925 1.196 1.0077
2748.794 0.732 0.8377 1.1643 1.2659 1.0645 0.8154 0.63049 0.70975 0.588 0.7384
2768.083 1.1458 1.0328 0.7951 1.096 0.9362 0.9279 1.2835 1.2412 1.1177 0.9384
2787.373 0.9242 1.0389 0.8436 1.017 1.3774 1.2225 1.1844 1.0391 1.0008 1.282
2806.663 1.3155 1.1618 1.3978 1.3754 0.8756 0.8097 1.2127 1.3409 1.3427 1.6057
2825.953 1.78 1.76 2 2.4 2.53 2.69 3.06 3.04 3.07 3.44
2845.242 3.89 4.36 4.87 5.84 5.95 5.57 5.55 5.28 4.76 4.33
2864.532 3.72 3.13 3.34 3.26 2.83 2.57 2.49 2.51 2.43 2.71
2883.822 2.72 2.72 2.75 2.91 3.62 3.59 3.36 3.68 4.02 3.97
2903.112 4.12 4.74 4.89 5.06 5.63 5.47 5.02 5.08 4.94 4.7
2922.401 4.55 4.16 4.38 4.75 4.57 4.54 5.08 5.71 5.72 5.86
2941.691 6.36 7.18 7.68 8.68 10.64 13.22 16.45 19.74 23.64 27.25
2960.981 30.25 31.39 30.4 29.56 28.34 25.56 21.37 16.58 12.83 10.24
2980.271 8.27 7.41 7.34 6.89 6.57 6.8 6.68 6.45 6.95 7.45
2999.561 7.85 8.06 7.87 8.35 8.91 8.79 8.65 8.48 7.97 7.79
3018.850 8.11 7.74 7.49 8.03 7.65 7.35 7.37 7.2 7.2 6.94
3038.140 6.94 6.84 6.34 6.13 5.47 4.85 4.51 4.28 4.51 4.63
3057.430 4.67 4.42 4.25 4.15 3.96 4.22 4.61 4.44 4.48 4.47
3076.720 4.1 4.21 4.07 3.53 3.44 3.7 3.48 3.25 3.2 2.96
3096.009 2.9 2.72 2.43 2.66 2.86 2.92 3.2 3.08 2.36 1.581
3115.299 1.65 2.62 3.07 2.26 1.91 1.84 1.79 1.73 1.528 1.5606
3134.589 1.54 1.66 1.5152 1.2912 1.4562 2 2.11 1.68 1.64 1.6071
3153.879 1.4455 1.4287 1.3974 1.599 1.85 2.01 2.02 1.4918 1.2583 1.6053
3173.169 1.5012 1.3057 1.2974 1.1191 1.2053 1.1152 1.2303 0.8158 0.173 0.5695
3192.458 0.7269 0.8798 1.1257 1.1099 0.7573 0.971 1.324 1.0716 0.9213 1.1511
3211.748 1.49 1.95 1.74 1.1923 1.2531 0.9511 0.7968 1.1751 0.9525 0.5441
3231.038 0.5717 0.6746 1.1485 1.5214 1.4823 0.8524 0.109 0.9774 1.3822 0.8725
3250.328 0.9593 1.2495 1.2325 0.8099 0.7329 0.9648 1.2352 1.2625 0.64168 0.5444
3269.617 1.0365 0.9988 0.7751 0.8185 0.8445 0.8478 0.485 0.7195 1.0453 0.5509
3288.907 0.64787 0.9799 1.2539 1.1302 0.8294 0.8579 0.64659 0.8361 1.2852 0.9029
3308.197 0.62278 0.9942 1.2455 0.8643 0.381 0.6683 1.3996 1.1825 0.5214 0.5935
3327.487 0.68032 1.0801 1.5395 1.0618 0.9078 1.2626 1.0886 0.613242 0.5184 0.9412
3346.777 1.1468 0.9796 0.65511 0.5715 0.322 0 0.054 0.23 0.8852 1.1663
3366.066 1.3432 1.75 1.5804 1.65 1.4944 0.8524 0.68838 0.5868 0.7289 1.007
3385.356 1.0565 0.8737 0.343 0.495 0.882 1.0775 1.3133 1.0972 0.8186 0.7998
3404.646 1.2142 1.0381 0.8617 1.158 1.3977 1.2297 1.0454 1.1537 1.1667 1.6055
3423.936 1.65 1.5455 1.3032 1.0235 1.3219 1.1904 1.1009 1.3264 1.1371 0.762
3443.225 0.9199 1.524 1.0585 0.307 0.393 0.9149 1.74 1.3517 0.7935 1.2907
3462.515 1.369 1.4541 1.7 1.66 1.5336 1.4025 1.78 2.41 2.47 1.85
3481.805 1.63 2.21 2.84 2.88 2.59 2.62 3.04 3.19 3.17 3.55
3501.095 3.41 3.09 2.72 2.22 2.09 1.82 1.71 1.88 1.75 1.71
3520.385 1.76 1.64 1.73 1.4149 0.9706 1.3 1.3273 1.5174 1.95 1.4773
3539.674 1.1225 0.8254 0.8982 1.4912 0.9508 0.43 0.66224 1.0743 1.2013 0.9546
3558.964 0.8928 0.8962 1.69 1.85 1.63 1.481 0.9879 0.9241 0.5429 1.1205
3578.254 1.3612 1.1433 1.2973 0.65031 0.5201 0.7607 0.8192 1.1593 1.1929 1.1697
3597.544 1.307 1.526 1.86 1.3713 0.9966 1.1654 0.8792 0.7009 0.5164 0.7949
3616.833 1.2389 0.9732 1.1491 1.2606 1.2323 1.055 1.0408 1.2294 1.1663 1.5095
3636.123 0.9926 0.65365 0.975 1.3038 1.62 1.295 1.0802 1.0195 0.5293 0.408
3655.413 0.491 0.413 0.449 0.8908 1.1094 1.1458 1.4955 1.4042 0.8455 0.66137
3674.703 1.1524 1.75 1.73 1.1039 0.8919 0.7533 0.9731 1.63 1.43 1.2604
3693.993 0.853 0.485 1.0245 1.2784 0.9792 1.0539 1.2037 1.1645 0.9357 0.8425
3713.282 0.479 0.143 0.64341 1.0481 1.5122 1.4355 1.3138 1.5269 1.3257 1.1983
3732.572 1.403 0.9332 0.464 0.5572 0.6644 0.9215 1.0327 1.5138 1.74 1.517
3751.862 1.6015 1.4338 1.4528 1.5879 1.5127 1.5975 1.5227 1.2279 0.8674 1.2576
3771.152 1.5214 1.5702 1.67 1.0171 0.7382 0.70856 0.7571 1.1194 1.5272 1.64
3790.441 1.294 1.0733 0.67764 0.4 0.62622 0.9801 0.9514 1.4036 1.4196 0.63679
3809.731 0.474 0.8753 1.0667 0.9121 1.0999 1.323 1.4426 1.1042 0.7384 0.5289
3829.021 0.454 0.323 0.62183 1.1128 0.8072 0.8776 1.1662 0.7745 0.896 0.9444
3848.311 1.1804 1.4808 0.66854 0.8861 1.63 1.0691 0.431 0.575 0.8798 0.8251
3867.601 0.468 1.0038 1.5873 1.3345 0.938 1.2243 1.3419 0.9261 1.2514 1.3113
3886.890 1.5208 1.4589 0.7346 0.9931 1.2168 1.07 0.9907 1.0978 1.0658 0.9182
3906.180 0.9414 0.9814 1.3441 1.2679 0.8729 0.994 1.2822 0.827 1.1139 1.5234
3925.470 0.841 0.5745 0.7687 1.3243 1.5144 1.5528 1.3272 0.9053 0.919 0.7816
3944.760 0.63688 0.7132 1.035 1.3979 2.12 2.23 1.85 1.65 1.3246 1.4614
3964.049 1.4488 1.62 1.2902 0.65756 1.0591 1.6019 1.4491 1.2102 1.3771 1.1484
3983.339 1.2443 1.3963 0.8769 0.9527 0.9911 0.5204 0.9385 0.724 0.534 0.7808
##END=
