##TITLE=2-Chloro-4-fluorobenzenesulphonyl chloride
##JCAMP-DX=4.24
##DATA TYPE=INFRARED SPECTRUM
##ORIGIN=EPA-IR VAPOR PHASE LIBRARY
##OWNER=SRD/NIST
Collection (C) 2018 copyright by the U.S. Secretary of Commerce
on behalf of the United States of America. All rights reserved.
##CAS REGISTRY NO=85958-57-2
##MOLFORM=C 6 H 3 Cl 2 F O 2 S
##$NIST SOURCE=MSDC-IR
##STATE=gas
##XUNITS=1/CM
##YUNITS=ABSORBANCE
##XFACTOR=1.
##YFACTOR=0.001
##DELTAX=1.92898
##FIRSTX=549.8
##LASTX=4000.7
##FIRSTY=34.898
##MAXX=4000.7
##MINX=549.759
##MAXY=0.211468
##MINY=0
##NPOINTS=1790
##XYDATA=(X++(Y..Y))
549.759 34.898 39.818 48.678 61.848 78.228 95.728 113.548 129.908 142.028 147.628
569.049 137.518 116.528 97.778 80.298 62.858 49.178 41.668 40.118 44.458 52.658
588.339 63.708 76.298 89.278 101.618 114.038 115.478 98.198 80.808 67.818 53.348
607.628 39.778 27.908 19.518 15.078 12.248 11.548 11.248 10.438 10.588 11.228
626.918 11.368 12.088 13.698 15.228 16.868 19.968 25.248 32.648 42.078 53.268
646.208 65.998 79.038 89.718 96.248 98.488 95.218 86.448 74.158 59.888 44.598
665.498 31.488 22.298 16.168 12.158 9.398 7.838 7.038 6.578 6.728 7.218
684.787 8.238 9.968 11.268 12.548 13.778 14.118 14.228 13.858 13.398 12.218
704.077 10.198 8.208 6.318 4.828 3.758 3.288 3.308 3.408 3.048 2.678
723.367 2.568 2.818 3.328 3.578 3.458 3.158 2.968 2.648 2.798 2.938
742.657 2.648 2.968 3.658 3.418 3.108 3.048 2.998 3.308 3.368 3.588
761.947 3.538 3.388 3.548 3.558 3.268 3.058 3.348 3.218 2.708 2.458
781.236 2.248 1.548 1.4843 2.098 1.858 1.3786 1.738 2.348 2.398 2.718
800.526 3.158 4.038 5.698 7.118 9.408 12.428 14.978 17.358 19.638 21.978
819.816 22.408 18.778 14.498 14.188 13.588 10.658 8.248 6.398 4.738 3.898
839.106 4.028 3.518 3.368 4.068 4.378 4.928 6.468 8.568 11.538 15.908
858.395 20.878 26.188 31.748 37.538 44.258 50.198 49.058 41.408 35.628 31.418
877.685 26.408 21.398 16.968 13.788 12.258 12.308 12.968 14.238 16.518 19.258
896.975 22.668 27.218 33.138 41.388 52.118 64.508 77.668 88.488 94.548 96.228
916.265 92.358 83.928 72.248 56.158 39.788 27.538 19.638 14.728 11.748 9.948
935.555 8.818 8.138 7.658 7.078 6.128 5.498 4.988 4.548 4.048 3.608
954.844 3.558 2.938 2.368 2.158 2.018 2.248 2.148 2.018 2.128 2.048
974.134 2.068 2.048 1.778 1.888 2.068 2.038 2.188 1.608 1.528 1.808
993.424 1.5037 1.798 1.718 1.2011 1.2827 1.718 1.898 2.488 2.868 2.768
1012.714 2.948 3.798 4.898 5.818 7.488 10.398 14.208 18.788 23.598 27.298
1032.003 29.198 29.648 28.868 26.608 23.118 19.168 15.248 11.988 9.198 6.858
1051.293 5.538 4.778 3.618 3.328 3.818 3.838 3.238 2.538 2.558 2.528
1070.583 2.728 3.128 2.848 2.208 2.368 2.788 3.358 4.408 6.018 7.528
1089.873 8.978 10.328 11.878 13.608 14.658 13.978 14.588 15.038 12.998 11.218
1109.163 9.378 9.188 8.308 6.888 7.468 8.288 8.618 8.088 8.168 8.868
1128.452 10.108 10.968 10.628 11.338 10.548 9.138 9.188 8.418 8.398 8.618
1147.742 8.678 9.698 10.418 11.098 13.088 15.378 17.518 20.408 23.228 26.508
1167.032 30.918 36.858 45.048 55.998 69.058 84.108 103.688 126.588 150.548 175.138
1186.322 193.978 206.018 211.468 205.388 189.888 168.218 142.808 118.368 98.078 87.298
1205.611 87.358 95.308 107.758 119.278 126.678 127.828 123.218 112.638 94.508 73.238
1224.901 51.578 33.678 23.728 18.538 14.628 12.058 10.648 9.648 8.928 7.968
1244.191 8.048 8.238 8.608 9.618 10.858 13.018 16.338 20.528 24.398 28.988
1263.481 34.338 39.068 44.398 48.198 48.738 48.268 46.548 43.458 39.978 35.398
1282.771 30.168 25.808 22.878 19.928 16.918 14.478 13.048 12.288 11.238 10.358
1302.060 9.548 8.908 8.288 7.438 6.828 6.458 6.248 5.978 5.728 5.378
1321.350 4.878 4.668 4.598 4.498 4.618 4.738 4.808 4.968 4.928 4.998
1340.640 5.248 5.458 5.538 5.618 5.778 5.868 6.068 6.488 6.858 7.158
1359.930 7.488 7.698 7.898 8.438 9.328 10.288 11.508 13.028 14.578 16.418
1379.219 18.658 21.198 24.438 28.608 34.188 41.838 52.128 66.218 85.148 108.528
1398.509 135.358 163.668 188.338 204.618 209.248 203.588 190.608 170.118 141.038 108.118
1417.799 78.708 55.118 38.678 28.028 21.468 18.278 17.028 16.488 16.418 16.748
1437.089 17.218 17.778 18.558 19.478 20.748 22.858 26.208 30.768 36.648 43.128
1456.378 49.368 54.788 58.578 61.058 62.838 64.228 64.868 64.068 61.668 58.718
1475.668 55.238 50.248 43.688 35.178 25.908 18.108 12.528 9.278 7.488 6.388
1494.958 5.788 5.388 5.268 5.398 5.468 5.348 5.368 5.568 5.628 5.828
1514.248 6.308 6.558 6.778 7.128 7.198 7.398 7.828 7.988 8.028 8.198
1533.538 8.688 9.048 9.498 10.008 10.518 11.358 12.618 14.308 16.108 18.218
1552.827 20.878 24.448 28.478 33.328 39.908 47.468 56.468 67.068 78.928 91.828
1572.117 104.648 116.518 127.338 137.128 145.068 151.158 154.778 155.288 152.378 145.938
1591.407 135.958 122.378 106.438 88.998 72.038 57.288 45.888 38.478 33.718 30.338
1610.697 27.458 24.868 22.448 20.378 18.868 17.348 16.078 15.228 14.538 13.818
1629.986 13.298 12.788 12.178 11.408 10.738 10.128 9.328 8.498 7.708 7.118
1649.276 6.538 5.658 5.138 4.988 4.438 4.038 3.738 3.288 3.038 2.778
1668.566 2.538 2.388 2.128 2.018 2.318 2.348 2.158 2.348 2.398 2.518
1687.856 2.508 2.228 2.198 2.298 2.298 2.108 1.908 1.888 1.998 1.998
1707.146 1.908 1.858 2.048 2.198 2.198 2.168 2.338 2.478 2.558 2.808
1726.435 3.188 3.418 3.568 3.808 3.718 3.778 3.878 3.548 3.248 3.078
1745.725 2.998 2.948 2.818 2.878 2.988 2.958 2.978 2.978 2.998 3.188
1765.015 3.268 3.228 3.218 3.108 3.128 3.098 2.908 2.728 2.488 2.388
1784.305 2.318 2.088 1.948 1.818 1.688 1.708 1.738 1.668 1.588 1.588
1803.594 1.648 1.638 1.538 1.5028 1.588 1.598 1.509 1.538 1.578 1.608
1822.884 1.628 1.708 1.708 1.568 1.528 1.668 1.708 1.538 1.341 1.2743
1842.174 1.1414 1.0715 1.1492 1.154 1.1944 1.1578 1.1587 1.1833 1.1271 1.0812
1861.464 1.0407 1.1839 1.4093 1.2791 1.1939 1.309 1.3457 1.39 1.4042 1.4964
1880.754 1.558 1.578 1.758 1.908 2.028 2.128 2.178 2.388 2.678 2.918
1900.043 3.238 3.648 3.978 4.018 4.098 4.118 3.838 3.428 3.218 3.108
1919.333 2.768 2.428 2.168 1.978 1.928 2.018 1.988 1.918 1.858 1.968
1938.623 2.078 2.028 2.198 2.318 2.188 2.168 2.118 1.948 1.878 1.868
1957.913 1.778 1.598 1.568 1.618 1.5 1.3304 1.2659 1.2805 1.2988 1.2838
1977.202 1.2405 1.231 1.2148 1.1608 1.0629 1.0364 1.1641 1.2245 1.2024 1.1135
1996.492 0.9716 1.1552 1.4245 1.409 1.3363 1.3247 1.3988 1.2792 1.161 1.1632
2015.782 1.1909 1.3108 1.1929 1.1447 1.1794 1.2302 1.335 1.2497 1.1431 1.114
2035.072 1.2241 1.2111 1.1465 1.2077 1.2362 1.2817 1.3267 1.2782 1.1829 1.0731
2054.362 1.1266 1.2063 1.1832 1.2286 1.2091 1.1315 1.0981 1.1032 1.2371 1.3238
2073.651 1.1556 1.0795 1.1701 1.1388 1.1167 1.068 1.0872 1.2972 1.3506 1.306
2092.941 1.3163 1.243 1.2894 1.4965 1.4671 1.3514 1.4981 1.578 1.768 1.978
2112.231 2.098 2.308 2.298 2.368 2.568 2.698 2.708 2.808 2.938 3.008
2131.521 3.048 2.828 2.488 2.278 2.048 1.768 1.588 1.4132 1.3799 1.4897
2150.810 1.3695 1.262 1.3307 1.2059 1.2468 1.4307 1.3712 1.4218 1.4359 1.4041
2170.100 1.515 1.568 1.4753 1.5165 1.748 1.658 1.528 1.598 1.658 1.668
2189.390 1.728 1.738 1.688 1.538 1.2626 1.1535 1.3584 1.4388 1.415 1.3594
2208.680 1.2822 1.2949 1.3062 1.5018 1.3907 1.3157 1.5014 1.588 1.558 1.4306
2227.970 1.4425 1.3594 1.1812 1.253 1.3736 1.4015 1.3497 1.1345 1.0862 1.2556
2247.259 1.3499 1.2792 1.268 1.3859 1.4389 1.5113 1.47 1.3897 1.4702 1.578
2266.549 1.608 1.608 1.708 1.658 1.628 1.588 1.678 1.858 1.808 1.758
2285.839 1.638 1.588 1.4651 1.3777 1.4127 1.4592 1.4862 1.608 1.568 1.0942
2305.129 1.0322 1.3674 1.3798 1.2893 1.4325 1.5238 1.4619 1.498 1.3575 1.2069
2324.418 1.2324 1.2772 1.3434 1.213 1.1031 1.2089 1.1711 0.9746 0.9171 1.0189
2343.708 1.0486 1.0716 1.2033 1.3841 1.4832 1.3258 1.2961 1.4388 1.4944 1.4432
2362.998 1.3806 1.3865 1.358 1.548 1.908 1.998 1.828 1.798 1.868 1.818
2382.288 1.5132 1.2664 1.4239 1.4725 1.3654 1.3342 1.2215 1.2604 1.4489 1.538
2401.578 1.628 1.608 1.4563 1.2885 1.1928 1.3405 1.4076 1.4093 1.4782 1.608
2420.867 1.4513 1.2158 1.2928 1.1321 1.04 1.1862 1.2725 1.1993 1.0969 1.2144
2440.157 1.2861 1.2973 1.4088 1.4011 1.2668 1.3612 1.2742 1.1114 1.2604 1.326
2459.447 1.4157 1.5207 1.648 1.958 1.788 1.5051 1.958 2.258 2.218 2.378
2478.737 2.498 2.578 2.518 2.508 2.728 2.768 2.768 2.698 2.598 2.618
2498.026 2.448 2.408 2.488 2.418 2.288 2.258 2.218 1.908 1.708 1.598
2517.316 1.788 1.808 1.658 1.878 2.068 1.998 1.868 1.948 1.888 1.738
2536.606 1.818 2.058 2.218 2.308 2.678 2.888 2.778 2.828 2.908 3.118
2555.896 3.378 3.428 3.308 3.198 3.258 3.408 3.258 3.068 3.078 2.968
2575.186 3.098 2.978 2.708 2.918 2.858 2.538 2.118 2.038 2.228 1.998
2594.475 1.988 2.178 2.148 1.938 1.738 1.788 1.748 1.5052 1.3657 1.4583
2613.765 1.432 1.3744 1.306 1.1319 1.0777 1.0223 1.1091 1.2505 1.3365 1.578
2633.055 1.568 1.2855 1.1941 1.274 1.3339 1.3586 1.504 1.758 1.608 1.2881
2652.345 1.4298 1.5106 1.3415 1.5142 1.618 1.386 1.3275 1.477 1.339 1.22
2671.634 1.4061 1.578 1.608 1.4067 1.4942 1.5219 1.1916 1.0724 1.1062 1.3045
2690.924 1.558 1.628 1.4831 1.3326 1.2168 1.022 1.26 1.578 1.538 1.4945
2710.214 1.4539 1.4172 1.3592 1.2421 1.3206 1.373 1.3618 1.558 1.568 1.578
2729.504 1.4732 1.4818 1.4778 1.349 1.3996 1.4772 1.538 1.492 1.4659 1.5185
2748.794 1.608 1.628 1.658 1.628 1.3176 1.0788 1.3758 1.172 1.0805 1.2963
2768.083 1.1521 1.1811 1.578 1.558 1.3246 1.608 1.638 1.4854 1.421 1.578
2787.373 1.878 1.948 1.768 1.538 1.509 1.4202 1.2205 1.0052 0.8588 0.9579
2806.663 1.0594 0.9911 1.0261 1.2388 1.1727 1.0627 1.041 0.845 1.0044 1.1494
2825.953 0.8865 0.8816 0.9672 0.9749 0.9612 1.1073 1.2492 1.3844 1.4378 1.3732
2845.242 1.2804 1.0393 1.2962 1.4274 1.2896 1.2941 1.1773 0.9178 1.2534 1.598
2864.532 1.3401 1.0493 1.072 1.2269 1.1094 1.2059 1.3013 0.9569 0.8593 1.039
2883.822 1.014 0.8138 0.8995 1.1144 0.9415 0.6586 0.6711 0.8813 0.9792 0.8596
2903.112 0.753 1.0562 1.0377 0.7926 1.0913 1.3315 1.2583 1.08 0.9015 1.2523
2922.401 1.2392 1.179 1.2676 1.2985 1.728 1.688 1.186 0.8508 1.0018 1.108
2941.691 1.0828 1.0889 0.9536 1.07 1.2221 1.1212 1.1874 1.1841 1.4699 1.5261
2960.981 1.011 0.7091 0.9702 1.3785 1.3189 1.0197 0.9687 1.3037 1.295 1.415
2980.271 1.2766 0.7319 0.9712 1.2874 1.1215 0.9216 0.6553 0.451 0.58461 0.9785
2999.561 0.943 0.823 0.9098 1.0121 1.4011 1.4024 1.3397 1.2154 1.2031 1.3155
3018.850 1.3022 1.434 1.5047 1.528 1.798 2.098 1.978 1.848 1.778 1.5072
3038.140 1.4144 1.898 2.138 2.018 1.918 1.718 1.578 1.3339 1.2438 1.1274
3057.430 1.1019 1.3838 1.5101 1.2975 1.3559 1.648 1.738 1.698 1.628 1.668
3076.720 1.848 2.478 2.918 2.828 3.068 3.828 4.208 4.568 5.148 5.118
3096.009 5.528 5.978 5.758 6.048 6.378 6.168 5.588 4.718 3.938 3.648
3115.299 3.128 2.398 2.408 2.358 1.688 1.2428 1.3408 1.3464 1.1497 1.0379
3134.589 1.1826 1.2287 1.359 1.389 1.2773 1.1867 1.1666 1.4531 1.3733 1.3514
3153.879 1.558 1.4237 1.1321 1.1465 1.218 0.8969 0.9551 1.4001 1.588 1.798
3173.169 1.708 1.3767 1.4671 1.688 1.668 1.588 1.2806 0.8161 0.8665 1.1193
3192.458 1.0112 0.8601 0.9033 0.8016 0.534959 0.56928 0.7505 0.9035 0.9927 0.7608
3211.748 0.7196 0.9011 1.0366 1.0759 1.0454 1.1886 1.2168 1.2237 1.1517 0.9407
3231.038 1.0508 1.1057 1.3792 1.3514 0.9387 1.0618 1.2218 1.1047 0.9864 1.0535
3250.328 0.9409 0.59724 0.54036 0.4916 0.56616 0.9069 1.2032 1.4599 1.4182 1.1645
3269.617 1.1416 1.071 1.0225 0.9398 0.56302 0.54542 0.9826 0.9086 1.0631 1.2145
3288.907 0.7843 0.7643 0.7218 0.8078 0.8097 0.7787 0.9258 1.0586 0.9159 0.7296
3308.197 0.9282 0.9972 0.8859 0.862 0.9492 0.9104 0.988 0.957 0.829 0.9195
3327.487 0.9597 1.2437 0.9242 0.6866 0.8616 0.4336 0.55459 0.9303 0.6678 0.4383
3346.777 0.931 1.4622 1.548 1.618 1.1828 0.7302 0.8081 0.8811 0.6355 0.829
3366.066 1.1753 0.8984 0.7204 0.56797 0.4602 0.281 0.389 0.7939 0.8159 0.9149
3385.356 1.0371 1.1238 0.9806 0.9656 1.2323 1.4694 1.538 1.1583 0.9673 1.1153
3404.646 0.9495 0.7186 1.0248 1.3373 1.1223 0.7842 1.2007 1.628 1.1383 0.7787
3423.936 0.6509 0.6345 0.9724 1.1668 1.0548 1.0956 1.1668 0.9365 0.8641 0.6461
3443.225 1.0136 1.728 1.828 1.918 1.628 1.4292 1.4534 1.648 1.5192 0.818
3462.515 0.417 0.7182 1.0699 1.0938 1.0743 0.55557 0.684 1.4211 1.5233 1.319
3481.805 1.1109 1.2295 1.3098 1.2281 1.1232 0.7596 0.6768 0.7175 0.7295 0.8983
3501.095 1.2008 1.2896 1.2167 1.1181 1.0078 0.7712 0.8451 1.5273 1.4016 1.2502
3520.385 1.0338 0.9716 1.1771 1.047 1.0522 1.2568 1.4298 1.5178 1.618 1.3187
3539.674 1.0143 1.3014 1.479 1.0249 0.8998 0.875 0.8171 0.8969 0.9145 0.8547
3558.964 1.1261 1.3092 0.793 0.402 0.7389 0.8206 0.8742 1.1288 1.2225 1.2367
3578.254 1.2631 1.3464 0.9816 0.58579 0.713 1.1644 0.8651 0.62446 0.911 1.0311
3597.544 1.008 0.9055 0.8258 0.7079 0.9153 0.9305 0.9085 1.2768 1.1074 1.0743
3616.833 1.3118 1.4155 1.5224 1.0156 0.8717 1.0309 0.7619 1.0811 1.598 1.4293
3636.123 1.3479 1.2559 1.4133 1.628 1.1395 0.6962 0.732 0.7504 0.9982 0.9695
3655.413 1.1697 1.2539 0.9595 1.203 1.0774 1.0777 1.1778 1.0112 0.8379 0.9776
3674.703 1.1426 1.1215 0.647 0.144 0.6765 1.193 0.9575 1.0274 1.0782 0.9445
3693.993 1.0375 0.7783 0.8661 0.8559 0.8776 1.2522 0.7817 0.55941 0.55819 0.4919
3713.282 0.8425 0.8646 0.7924 0.8638 0.6891 0.6302 0.8611 1.0735 1.0177 1.2918
3732.572 1.1747 0.8701 1.1533 1.0938 1.4048 1.4295 1.1452 0.7846 0.258 0.58132
3751.862 0.632 0.9299 1.538 1.1423 0.6891 0.9116 1.0398 1.0807 1.2211 1.3303
3771.152 1.4999 1.4367 1.272 1.3571 0.9374 0.535747 0.9735 1.1184 0.9609 1.182
3790.441 1.5148 1.3398 1.0981 0.9655 1.0269 0.9709 0.9736 0.9813 0.822 1.0263
3809.731 1.1721 1.3991 0.9608 0.6907 1.3351 1.0107 0.6854 0.8222 0.6716 0.9004
3829.021 1.2381 1.4498 1.3746 1.1161 1.0496 1.588 1.628 0.9075 0.736 1.0195
3848.311 1.1227 1.0062 1.013 0.537368 0.385 0.9299 0.6931 0.355 0.4513 0.54228
3867.601 0.4737 0.294 0.7784 1.0866 0.9557 0.8346 0.9456 0.7417 0.4725 0.671
3886.890 0.55628 0 0.167 0.897 1.0737 0.9516 0.9476 0.9968 0.6525 0.7116
3906.180 0.6389 0.4877 1.1757 1.1738 0.9964 1.3983 1.0322 0.58143 0.6605 1.1908
3925.470 1.538 1.3101 1.1621 1.4602 1.708 1.3724 0.9987 0.7253 1.1654 1.658
3944.760 1.5069 1.3548 1.3356 1.2416 1.0982 0.8357 0.7316 0.9621 1.0987 1.0658
3964.049 0.9563 0.651 0.6684 0.9182 0.7485 0.8923 1.0998 0.6066 0.216 0.9294
3983.339 1.3544 0.7529 0.6784 1.0418 0.84 0.59087 0.7671 1.0301 1.1498 1.3328
##END=
