##TITLE=Phensuximide
##JCAMP-DX=4.24
##DATA TYPE=INFRARED SPECTRUM
##ORIGIN=NIST Mass Spectrometry Data Center
##OWNER=NIST Standard Reference Data Program
Collection (C) 2018 copyright by the U.S. Secretary of Commerce
on behalf of the United States of America. All rights reserved.
##CAS REGISTRY NO=86-34-0
##MOLFORM=C 11 H 11 N O 2
##$NIST SOURCE=MSDC-IR
##SPECTROMETER/DATA SYSTEM=HP-GC/MS/IRD
##STATE=gas
##XUNITS=1/CM
##YUNITS=ABSORBANCE
##XFACTOR=1.0
##YFACTOR=0.000004700
##DELTAX=4.0
##FIRSTX=550.0
##LASTX=3846.0
##FIRSTY=0.000005
##MAXX=3846
##MINX=550
##MAXY=0.047
##MINY=0
##NPOINTS=825
##XYDATA=(X++(Y..Y))
550.0 1 4 0 11 20 24 31 34 48 58
590.0 55 64 67 73 94 122 142 148 155 158
630.0 161 192 235 269 295 321 319 292 282 286
670.0 299 354 425 537 683 799 850 822 746 640
710.0 537 458 393 347 315 306 301 301 299 275
750.0 245 211 185 165 147 138 132 131 139 157
790.0 196 246 280 284 251 194 153 129 110 99
830.0 90 76 60 53 54 47 37 35 35 37
870.0 40 41 41 44 50 55 56 55 54 55
910.0 56 70 83 99 126 177 258 365 487 576
950.0 594 533 412 286 198 146 119 111 114 115
990.0 118 131 147 157 160 150 138 147 172 205
1030.0 249 282 304 345 399 449 469 441 382 330
1070.0 304 302 310 339 392 465 567 685 808 916
1110.0 966 939 837 686 547 466 462 515 583 640
1150.0 666 654 592 504 414 327 263 226 202 181
1190.0 153 129 111 102 108 116 125 139 156 158
1230.0 157 166 180 208 251 321 431 594 828 1133
1270.0 1452 1693 1763 1627 1335 1005 737 563 461 399
1310.0 365 347 340 346 360 383 412 447 488 531
1350.0 589 682 827 1039 1321 1639 1927 2091 2050 1808
1390.0 1458 1117 853 699 642 662 768 984 1276 1557
1430.0 1763 1800 1622 1324 994 710 526 407 330 277
1470.0 243 222 215 224 257 324 401 433 408 333
1510.0 249 198 174 162 151 144 141 137 129 125
1550.0 122 118 113 114 113 112 114 117 123 134
1590.0 150 170 190 200 186 163 139 116 106 104
1630.0 106 118 131 137 148 165 179 195 216 238
1670.0 268 308 361 431 537 670 842 1048 1286 1582
1710.0 1982 2598 3623 5177 7167 9031 10000 9660 8022 5830
1750.0 3949 2675 1876 1368 1041 832 707 656 687 793
1790.0 911 951 865 674 469 326 248 197 165 143
1830.0 124 115 115 117 117 119 119 115 114 109
1870.0 102 98 96 92 85 75 70 68 66 69
1910.0 71 72 71 70 71 72 74 73 73 73
1950.0 75 77 77 72 65 55 46 46 46 45
1990.0 41 39 37 33 33 32 31 32 32 33
2030.0 36 36 33 34 33 34 33 32 32 31
2070.0 32 35 38 37 37 38 37 37 36 34
2110.0 33 33 31 31 30 28 28 27 29 31
2150.0 29 30 30 28 29 28 27 24 24 25
2190.0 25 25 22 21 22 25 26 26 24 22
2230.0 22 19 21 20 19 15 17 22 20 19
2270.0 20 21 20 20 21 22 21 24 29 28
2310.0 28 32 36 39 40 40 38 36 34 33
2350.0 32 28 25 26 32 35 33 34 33 29
2390.0 29 27 23 23 24 27 27 25 28 29
2430.0 27 23 19 22 21 19 21 19 18 17
2470.0 22 18 17 21 19 20 21 23 22 20
2510.0 21 19 18 16 19 22 20 23 24 21
2550.0 19 19 15 18 22 18 16 20 20 20
2590.0 21 21 17 11 14 15 14 15 16 18
2630.0 18 20 23 26 27 25 28 24 20 18
2670.0 16 16 15 12 9 15 18 16 18 18
2710.0 16 14 11 10 13 12 13 13 13 14
2750.0 5 1 9 11 9 6 9 11 8 11
2790.0 13 14 14 15 17 16 17 19 19 19
2830.0 23 27 29 33 35 36 42 46 48 53
2870.0 54 57 62 65 77 93 104 121 139 155
2910.0 162 163 167 171 178 193 219 253 289 331
2950.0 374 385 371 339 299 262 230 205 188 174
2990.0 159 148 133 118 117 128 142 162 196 242
3030.0 297 353 384 369 325 281 250 248 290 363
3070.0 428 446 416 350 287 244 218 193 168 145
3110.0 125 102 78 59 44 33 24 22 22 23
3150.0 24 23 24 23 17 15 15 14 16 15
3190.0 13 11 12 10 9 8 3 3 1 3
3230.0 10 5 6 10 9 11 10 5 2 2
3270.0 3 7 9 9 8 7 8 9 10 9
3310.0 8 8 4 2 8 6 0 1 0 0
3350.0 6 5 4 8 9 7 6 7 11 15
3390.0 14 9 8 7 7 5 6 15 21 18
3430.0 18 20 17 18 21 22 26 35 42 42
3470.0 40 44 48 50 52 56 69 77 81 94
3510.0 99 94 83 68 52 43 32 24 22 17
3550.0 16 17 15 10 9 13 15 12 11 15
3590.0 13 9 11 12 10 6 10 12 9 2
3630.0 3 7 9 16 20 14 9 12 10 6
3670.0 7 11 12 14 16 19 18 12 13 16
3710.0 14 5 2 7 9 6 1 7 10 5
3750.0 1 2 6 6 7 7 11 15 11 8
3790.0 9 14 12 8 6 6 6 9 13 9
3830.0 11 19 17 12 18
##END=
