##TITLE=Ethotoin
##JCAMP-DX=4.24
##DATA TYPE=INFRARED SPECTRUM
##ORIGIN=NIST Mass Spectrometry Data Center
##OWNER=NIST Standard Reference Data Program
Collection (C) 2018 copyright by the U.S. Secretary of Commerce
on behalf of the United States of America. All rights reserved.
##CAS REGISTRY NO=86-35-1
##MOLFORM=C 11 H 12 N 2 O 2
##$NIST SOURCE=MSDC-IR
##SPECTROMETER/DATA SYSTEM=HP-GC/MS/IRD
##STATE=gas
##XUNITS=1/CM
##YUNITS=ABSORBANCE
##XFACTOR=1.0
##YFACTOR=0.000003000
##DELTAX=4.0
##FIRSTX=550.0
##LASTX=3846.0
##FIRSTY=0.000597
##MAXX=3846
##MINX=550
##MAXY=0.03
##MINY=0
##NPOINTS=825
##XYDATA=(X++(Y..Y))
550.0 199 129 110 128 89 55 48 49 67 84
590.0 117 154 175 151 112 94 75 74 90 112
630.0 138 144 124 110 93 84 95 112 141 166
670.0 184 225 276 334 414 500 576 608 597 549
710.0 474 421 391 375 360 348 356 379 392 403
750.0 423 423 401 363 322 285 244 206 170 150
790.0 141 154 172 200 270 340 390 400 342 258
830.0 181 128 93 81 76 62 52 48 36 31
870.0 26 19 15 17 22 14 8 10 13 8
910.0 3 15 20 26 29 31 50 94 143 173
950.0 175 148 102 58 48 48 45 55 80 115
990.0 153 186 203 191 163 128 97 80 90 112
1030.0 118 110 90 88 91 96 113 125 151 187
1070.0 219 260 307 355 378 353 321 319 342 385
1110.0 424 429 381 306 232 180 142 108 103 107
1150.0 118 150 199 254 295 313 297 267 245 234
1190.0 240 271 325 392 452 472 428 346 259 194
1230.0 159 148 162 186 214 243 247 249 254 281
1270.0 323 364 394 412 417 413 410 398 366 328
1310.0 310 297 310 361 430 524 640 793 970 1152
1350.0 1336 1457 1401 1187 920 752 776 937 1111 1191
1390.0 1161 1100 1165 1438 1886 2405 2752 2711 2280 1674
1430.0 1147 846 795 941 1174 1354 1339 1127 869 629
1470.0 454 326 248 210 202 227 254 255 225 169
1510.0 130 121 112 102 94 88 81 72 56 48
1550.0 54 59 71 91 105 106 92 81 87 100
1590.0 117 136 143 128 104 85 70 63 62 56
1630.0 55 57 54 61 72 82 90 99 108 123
1670.0 139 159 182 216 254 299 352 421 494 590
1710.0 715 879 1114 1461 2027 2985 4586 6793 8931 10000
1750.0 9342 7231 4760 2900 1818 1255 984 886 924 1122
1790.0 1523 2103 2620 2777 2470 1838 1201 759 481 316
1830.0 231 182 152 130 109 102 98 96 98 94
1870.0 87 86 85 78 75 72 64 63 60 44
1910.0 45 49 50 54 58 59 60 62 63 60
1950.0 57 53 50 51 47 38 31 29 24 14
1990.0 14 16 20 20 14 12 13 12 12 14
2030.0 16 14 11 9 9 5 7 11 10 10
2070.0 5 1 1 3 7 12 16 14 16 21
2110.0 21 16 13 14 19 14 10 7 5 9
2150.0 11 11 6 4 3 6 10 8 8 7
2190.0 6 7 11 12 11 10 5 8 13 13
2230.0 9 12 10 1 2 4 4 7 6 5
2270.0 10 12 8 6 2 0 6 10 8 8
2310.0 9 15 19 18 21 23 23 17 11 9
2350.0 12 19 20 16 15 7 6 4 0 8
2390.0 15 12 9 8 16 20 21 22 19 20
2430.0 17 14 16 19 21 21 13 11 16 11
2470.0 8 4 8 20 21 13 9 7 1 0
2510.0 3 10 11 15 12 9 13 14 11 10
2550.0 10 7 8 7 3 8 17 17 13 13
2590.0 9 5 6 8 10 10 6 16 22 19
2630.0 15 15 12 6 8 9 10 8 9 4
2670.0 5 12 9 11 10 2 3 5 5 9
2710.0 10 5 4 7 9 9 8 10 14 14
2750.0 15 17 18 16 20 21 12 5 4 12
2790.0 15 17 19 22 21 19 16 11 17 19
2830.0 16 19 26 27 26 31 40 43 47 54
2870.0 70 81 85 91 110 138 150 156 164 176
2910.0 184 189 173 152 148 154 185 229 276 332
2950.0 367 360 323 268 223 204 228 300 404 465
2990.0 438 348 258 205 166 131 111 109 117 142
3030.0 184 217 251 266 242 205 180 176 200 251
3070.0 310 341 320 265 210 171 151 137 120 113
3110.0 97 80 66 55 47 44 40 32 30 27
3150.0 25 22 24 39 43 37 31 22 21 27
3190.0 29 30 22 16 10 12 22 22 19 13
3230.0 11 15 14 12 14 5 3 13 14 13
3270.0 17 16 17 11 11 10 6 6 6 9
3310.0 15 18 16 15 13 13 8 6 14 11
3350.0 5 17 20 17 17 18 24 26 16 13
3390.0 25 23 21 32 29 18 27 39 29 25
3430.0 33 35 41 46 58 75 85 106 154 218
3470.0 297 386 463 506 482 407 311 231 174 135
3510.0 106 91 88 86 91 100 99 91 80 60
3550.0 48 40 43 41 25 29 39 39 37 34
3590.0 39 43 43 40 39 30 25 26 26 25
3630.0 23 28 34 35 27 20 31 43 37 32
3670.0 31 35 33 27 19 20 21 14 15 10
3710.0 1 0 12 24 16 12 23 33 24 19
3750.0 19 27 29 22 24 26 29 29 31 40
3790.0 43 33 19 25 32 32 33 28 31 40
3830.0 36 22 20 28 33
##END=
