##TITLE=Azinphos methyl
##JCAMP-DX=4.24
##DATA TYPE=INFRARED SPECTRUM
##ORIGIN=NIST Mass Spectrometry Data Center
##OWNER=NIST Standard Reference Data Program
Collection (C) 2018 copyright by the U.S. Secretary of Commerce
on behalf of the United States of America. All rights reserved.
##CAS REGISTRY NO=86-50-0
##MOLFORM=C 10 H 12 N 3 O 3 P S 2
##$NIST SOURCE=MSDC-IR
##SPECTROMETER/DATA SYSTEM=HP-GC/MS/IRD
##STATE=gas
##XUNITS=1/CM
##YUNITS=ABSORBANCE
##XFACTOR=1.0
##YFACTOR=0.000001700
##DELTAX=4.0
##FIRSTX=550.0
##LASTX=3846.0
##FIRSTY=0.001301
##MAXX=3846
##MINX=550
##MAXY=0.017
##MINY=0
##NPOINTS=825
##XYDATA=(X++(Y..Y))
550.0 765 638 462 428 501 474 383 365 393 454
590.0 474 517 546 555 588 676 744 775 757 703
630.0 787 910 1103 1498 2210 3357 4840 5855 5463 4097
670.0 2876 2126 1725 1529 1387 1270 1226 1223 1193 1155
710.0 1141 1102 1015 935 901 879 833 789 761 777
750.0 815 874 1053 1336 1827 2767 3751 3813 2967 2281
790.0 2115 2190 2440 2700 2921 3182 3451 3668 3776 3637
830.0 3232 2757 2328 2006 1778 1637 1552 1466 1344 1212
870.0 1109 1084 1120 1247 1556 2067 2455 2371 1927 1492
910.0 1267 1133 1047 990 925 911 936 927 897 898
950.0 966 1042 1094 1176 1299 1467 1635 1669 1593 1482
990.0 1458 1564 1759 2041 2428 2973 3756 4783 6095 7614
1030.0 9030 9946 10000 9120 7767 6543 5638 4933 4308 3659
1070.0 3055 2599 2217 1924 1667 1443 1350 1285 1198 1131
1110.0 1074 1007 881 781 744 646 587 564 573 591
1150.0 563 553 517 516 561 677 881 1034 1004 750
1190.0 477 324 200 96 33 22 47 42 44 58
1230.0 85 114 198 330 488 692 944 1227 1427 1469
1270.0 1399 1454 1840 2437 2743 2436 1837 1393 1164 1092
1310.0 1146 1296 1456 1472 1317 1086 940 888 805 699
1350.0 602 522 471 459 471 489 493 509 531 552
1390.0 563 576 629 697 744 784 815 804 785 778
1430.0 821 898 981 1071 1175 1319 1476 1699 1851 1757
1470.0 1481 1217 1055 1011 1057 1174 1339 1387 1222 1007
1510.0 880 810 772 757 746 746 728 684 686 698
1550.0 686 674 672 681 678 680 703 742 764 754
1590.0 734 738 734 734 764 793 759 660 569 531
1630.0 511 484 482 497 509 522 525 528 563 606
1670.0 655 692 715 776 915 1161 1539 2298 3714 5740
1710.0 7576 7805 6113 3895 2375 1578 1201 996 855 748
1750.0 669 608 550 498 459 417 388 374 381 373
1790.0 356 354 355 340 340 343 329 314 314 335
1830.0 347 341 351 374 379 369 370 372 374 376
1870.0 361 339 312 300 294 275 267 264 256 255
1910.0 256 254 254 266 278 281 281 289 291 287
1950.0 284 273 270 266 259 277 285 271 254 217
1990.0 207 223 226 220 232 239 236 232 226 233
2030.0 239 235 226 234 237 241 252 252 248 242
2070.0 230 219 215 210 205 201 193 195 197 189
2110.0 188 194 192 181 180 193 195 189 192 184
2150.0 182 183 179 173 165 165 160 161 165 177
2190.0 186 187 189 193 195 197 180 166 168 164
2230.0 170 194 207 189 172 177 182 177 173 183
2270.0 186 165 135 129 145 154 162 165 156 150
2310.0 156 170 161 145 142 138 143 151 148 133
2350.0 119 128 138 122 107 113 116 115 114 112
2390.0 102 91 94 99 96 95 93 82 81 85
2430.0 86 83 79 70 51 38 31 20 25 49
2470.0 54 60 55 46 63 83 71 59 64 73
2510.0 77 78 79 79 86 83 79 98 100 83
2550.0 85 82 91 96 88 101 94 79 89 96
2590.0 108 122 123 110 105 122 126 123 126 135
2630.0 132 125 140 137 128 133 124 101 101 124
2670.0 127 125 120 128 168 180 164 143 134 153
2710.0 163 165 171 170 170 171 178 180 164 151
2750.0 166 161 161 175 160 174 171 168 186 217
2790.0 242 240 226 228 236 254 270 259 258 274
2830.0 288 287 309 373 467 550 587 552 457 380
2870.0 348 324 321 322 311 330 347 363 382 376
2910.0 385 403 389 379 415 463 514 598 737 936
2950.0 1223 1542 1639 1386 1051 795 634 583 539 509
2990.0 522 539 542 533 544 553 577 611 608 579
3030.0 505 427 403 400 381 349 343 345 365 408
3070.0 443 520 602 614 565 477 405 355 322 308
3110.0 258 252 254 238 220 212 220 236 241 197
3150.0 185 224 219 200 209 187 170 172 160 165
3190.0 175 161 164 182 187 179 164 159 141 148
3230.0 169 165 167 168 154 161 160 149 153 144
3270.0 143 150 149 133 120 130 161 178 154 150
3310.0 156 163 140 97 84 106 130 146 137 106
3350.0 101 118 146 137 125 137 130 116 101 120
3390.0 142 138 155 146 145 168 167 158 152 111
3430.0 93 111 103 95 87 77 82 68 47 76
3470.0 99 90 32 20 53 51 71 87 82 61
3510.0 30 0 1 19 58 98 71 66 80 58
3550.0 75 84 50 52 86 83 35 20 67 109
3590.0 110 64 55 66 72 106 105 124 163 176
3630.0 181 164 124 78 53 75 92 88 90 54
3670.0 16 37 98 117 60 33 68 111 101 92
3710.0 100 133 174 161 155 173 157 118 110 115
3750.0 112 120 156 172 149 107 86 141 173 135
3790.0 104 95 96 99 104 128 147 153 183 162
3830.0 96 85 115 154 184
##END=
