##TITLE=3-(Trifluoromethoxy)benzoyl chloride
##JCAMP-DX=4.24
##DATA TYPE=INFRARED SPECTRUM
##ORIGIN=EPA-IR VAPOR PHASE LIBRARY
##OWNER=SRD/NIST
Collection (C) 2018 copyright by the U.S. Secretary of Commerce
on behalf of the United States of America. All rights reserved.
##CAS REGISTRY NO=86270-03-3
##MOLFORM=C 8 H 4 Cl F 3 O 2
##$NIST SOURCE=MSDC-IR
##STATE=gas
##XUNITS=1/CM
##YUNITS=ABSORBANCE
##XFACTOR=1.
##YFACTOR=0.001
##DELTAX=1.92898
##FIRSTX=549.8
##LASTX=4000.7
##FIRSTY=1.0771
##MAXX=4000.7
##MINX=549.759
##MAXY=0.634786
##MINY=0
##NPOINTS=1790
##XYDATA=(X++(Y..Y))
549.759 1.0771 1.786 2.206 2.556 2.816 3.156 3.136 3.066 2.756 2.096
569.049 2.016 2.476 3.356 3.656 3.676 2.806 1.946 2.586 2.636 1.896
588.339 2.086 2.126 2.406 3.006 2.356 2.416 2.636 2.156 2.776 3.546
607.628 3.906 4.286 4.996 5.646 6.906 8.286 9.556 11.896 14.456 17.986
626.918 22.256 25.136 26.266 27.106 27.076 24.536 21.036 18.166 15.736 14.626
646.208 14.416 14.376 15.226 16.596 18.156 19.446 21.246 24.646 29.266 35.246
665.498 42.496 51.426 61.726 71.036 77.976 81.526 81.376 78.216 73.296 67.906
684.787 63.976 62.396 62.296 63.076 64.966 67.526 66.566 61.276 55.046 49.086
704.077 43.536 38.676 34.766 31.786 29.776 28.116 26.076 24.086 21.996 19.706
723.367 17.966 16.636 15.096 13.526 11.956 10.836 9.986 8.866 8.526 8.216
742.657 7.516 7.596 7.746 7.366 7.566 8.056 8.616 9.266 9.746 10.526
761.947 11.376 12.306 13.646 15.166 16.626 18.886 22.266 26.896 33.156 40.696
781.236 49.786 59.936 70.246 79.736 87.296 92.346 94.926 95.056 92.806 89.626
800.526 86.376 83.266 80.686 78.956 77.216 75.746 74.446 72.736 70.556 67.586
819.816 64.576 60.946 55.846 50.086 43.896 37.456 31.306 26.006 21.816 18.516
839.106 16.246 14.686 13.396 12.216 11.366 11.036 10.836 10.596 10.736 10.966
858.395 11.416 12.376 13.746 15.286 17.236 20.006 22.916 26.476 30.796 35.866
877.685 41.736 48.406 55.206 61.926 69.436 76.106 81.286 84.516 85.386 83.646
896.975 79.506 73.746 66.216 58.296 51.056 44.326 38.336 33.326 28.886 25.186
916.265 21.866 18.496 16.096 14.016 12.416 11.816 10.816 9.566 8.946 8.406
935.555 7.856 7.776 7.496 7.186 7.076 6.936 7.096 6.886 6.616 6.656
954.844 7.546 9.136 9.806 10.396 11.356 13.116 14.906 16.666 19.346 21.666
974.134 23.596 25.196 26.096 27.276 28.626 29.836 31.736 34.866 38.186 40.256
993.424 40.636 40.656 39.896 37.316 33.816 29.756 26.786 24.236 20.116 15.546
1012.714 12.346 10.696 9.216 8.336 7.866 7.326 7.456 6.816 5.606 5.406
1032.003 6.286 5.686 4.896 5.086 4.906 5.346 5.946 6.096 6.496 6.866
1051.293 6.166 5.606 6.026 6.086 6.046 6.586 7.096 7.816 7.396 6.956
1070.583 7.386 7.426 7.856 8.186 8.376 9.056 9.556 10.756 11.436 10.256
1089.873 9.636 9.946 10.386 10.956 11.296 11.686 12.666 12.766 12.666 14.316
1109.163 16.106 16.436 17.276 18.766 19.876 21.266 22.626 24.826 28.246 32.296
1128.452 37.036 43.856 52.806 63.796 75.736 88.696 103.626 117.326 128.736 137.386
1147.742 140.866 140.166 136.296 128.336 118.956 111.796 107.956 106.836 108.156 112.336
1167.032 118.606 125.746 134.796 145.666 157.166 171.666 189.616 209.676 232.666 257.216
1186.322 281.936 306.556 325.176 338.216 348.046 352.486 354.626 356.256 361.266 373.316
1205.611 392.746 421.826 459.586 501.976 542.396 573.016 592.506 598.026 588.966 558.916
1224.901 510.966 460.046 411.116 367.266 333.306 311.656 301.636 298.466 300.326 306.076
1244.191 312.736 319.956 328.946 339.676 353.196 372.316 398.196 429.736 466.546 508.546
1263.481 551.806 588.576 617.766 634.786 631.236 612.956 577.026 524.206 461.526 396.356
1282.771 334.356 280.016 236.446 203.976 179.956 161.046 145.246 130.616 116.486 102.946
1302.060 90.156 78.666 68.696 60.356 53.766 48.666 44.656 41.466 38.766 36.416
1321.350 34.236 32.226 30.396 28.436 26.546 24.946 23.356 21.756 20.436 19.246
1340.640 18.066 16.906 15.866 14.846 13.736 12.846 12.076 11.416 10.866 10.216
1359.930 9.626 9.206 8.866 8.606 8.236 7.686 7.286 7.076 6.736 6.396
1379.219 6.306 6.136 5.906 5.906 6.016 6.186 6.386 6.436 6.446 6.636
1398.509 6.956 7.076 7.026 7.266 7.736 8.256 8.966 9.746 10.756 12.156
1417.799 13.766 15.836 18.446 21.846 26.406 31.936 38.076 44.226 49.616 53.026
1437.089 53.556 51.596 47.076 40.666 34.016 27.816 22.726 19.136 16.686 15.076
1456.378 14.196 13.716 13.646 13.876 14.426 15.396 16.846 18.926 21.786 25.546
1475.668 30.116 35.026 39.826 43.676 45.726 46.016 44.116 40.366 35.156 29.466
1494.958 24.336 19.966 16.526 14.016 12.196 10.856 10.006 9.256 8.656 8.366
1514.248 8.126 7.796 7.486 7.426 7.306 7.026 6.906 6.766 6.616 6.556
1533.538 6.386 6.126 6.036 6.176 6.296 6.186 6.156 6.206 6.236 6.536
1552.827 6.756 7.026 7.296 7.596 8.206 8.846 9.606 10.376 11.466 13.166
1572.117 15.276 17.866 20.936 24.396 28.226 31.706 34.516 36.506 37.196 36.946
1591.407 35.376 33.106 30.536 27.906 25.516 23.626 22.156 20.436 18.516 16.726
1610.697 14.976 13.236 12.216 11.026 9.666 8.956 8.286 7.676 7.186 6.646
1629.986 6.276 5.936 5.526 5.296 5.106 4.946 4.856 4.736 4.846 4.756
1649.276 4.426 4.506 4.666 4.566 4.546 4.386 4.156 4.316 4.386 4.376
1668.566 4.456 4.406 4.516 4.696 4.666 4.796 5.046 5.116 5.316 5.506
1687.856 5.546 5.866 6.256 6.456 6.806 7.146 7.536 8.016 8.226 8.416
1707.146 8.576 8.846 9.166 9.276 9.256 9.406 9.516 9.376 9.686 10.306
1726.435 11.056 11.986 13.046 14.066 15.556 16.936 18.216 19.846 21.366 23.406
1745.725 25.816 28.716 32.546 37.556 43.726 51.166 60.576 71.876 85.276 100.056
1765.015 115.076 129.456 142.556 153.116 161.186 166.256 168.166 167.066 163.066 157.746
1784.305 151.256 143.456 135.086 126.166 116.456 106.456 96.656 87.116 77.866 68.936
1803.594 60.846 53.636 47.276 41.816 37.346 33.576 30.536 28.086 25.886 23.766
1822.884 21.726 19.816 18.176 16.596 15.076 13.696 12.356 11.126 9.956 8.856
1842.174 8.116 7.496 6.996 6.716 6.346 6.006 5.846 5.686 5.386 5.296
1861.464 5.386 5.266 5.116 4.906 4.826 4.986 4.876 4.736 4.766 4.806
1880.754 4.886 5.026 5.136 5.176 5.166 5.186 5.206 5.186 5.076 4.856
1900.043 4.626 4.266 4.016 3.756 3.466 3.276 3.066 3.046 3.056 3.006
1919.333 3.036 3.046 3.036 3.046 3.086 3.156 3.276 3.316 3.286 3.406
1938.623 3.636 3.926 3.976 3.846 3.786 3.836 4.016 4.066 3.906 3.696
1957.913 3.376 3.246 3.046 2.596 2.346 2.216 2.106 1.996 1.986 1.956
1977.202 2.016 2.146 2.136 2.026 2.046 2.016 1.886 1.916 2.036 1.966
1996.492 2.006 2.196 2.156 2.176 2.446 2.516 2.386 2.366 2.356 2.446
2015.782 2.676 2.826 2.756 2.686 2.836 2.926 3.036 3.006 3.046 3.126
2035.072 2.996 2.966 3.016 3.056 3.036 2.966 2.906 2.966 2.986 2.946
2054.362 2.956 2.906 2.846 2.896 2.736 2.736 2.826 2.826 2.896 2.696
2073.651 2.626 2.776 2.826 2.806 2.806 2.946 3.066 3.026 2.896 2.906
2092.941 2.966 2.966 3.036 3.156 3.096 3.036 3.016 2.986 3.106 3.076
2112.231 3.056 3.256 3.206 3.096 3.076 2.986 3.066 3.166 3.046 2.916
2131.521 2.876 2.926 2.856 2.726 2.636 2.526 2.706 2.746 2.516 2.456
2150.810 2.476 2.366 2.276 2.346 2.336 2.386 2.376 2.216 2.076 2.006
2170.100 2.096 1.976 1.906 1.976 1.936 1.996 1.946 1.786 1.5223 1.3876
2189.390 1.5169 1.4865 1.4827 1.4632 1.3295 1.2662 1.2693 1.3547 1.4318 1.4131
2208.680 1.4014 1.3711 1.1737 1.2307 1.4914 1.435 1.2912 1.2952 1.4126 1.3671
2227.970 1.3293 1.4176 1.3262 1.1925 1.3425 1.2782 1.1197 1.3576 1.3548 1.2593
2247.259 1.3846 1.36 1.4134 1.5338 1.407 1.0343 0.9852 1.0999 1.0154 1.2344
2266.549 1.4463 1.3525 1.1717 1.1915 1.3697 1.4089 1.4871 1.746 1.696 1.5354
2285.839 1.696 1.6451 1.3948 1.4043 1.315 1.2262 1.2546 1.2399 1.3009 1.3281
2305.129 1.2421 1.2342 1.3236 1.2756 1.3929 1.5469 1.2788 1.0673 1.0453 1.0317
2324.418 1.1216 1.1121 1.1601 1.3027 1.4017 1.4919 1.5263 1.4048 1.3442 1.5185
2343.708 1.706 1.866 1.746 1.6158 1.766 1.706 1.5788 1.6195 1.746 1.686
2362.998 1.676 1.756 1.706 1.836 1.866 1.6016 1.5344 1.686 1.886 1.986
2382.288 1.896 1.876 2.076 2.116 2.176 2.256 2.116 2.256 2.396 2.196
2401.578 2.296 2.356 2.366 2.596 2.746 2.756 2.746 3.056 3.266 3.386
2420.867 3.526 3.496 3.676 3.996 4.076 4.086 4.126 4.306 4.506 4.456
2440.157 4.276 4.096 4.106 3.996 3.856 3.906 3.876 3.826 3.786 3.686
2459.447 3.726 3.896 3.876 3.836 3.856 3.756 3.826 3.886 3.736 3.796
2478.737 3.936 4.026 3.836 3.516 3.486 3.426 3.076 2.936 2.986 2.876
2498.026 2.696 2.526 2.596 2.476 2.356 2.526 2.306 2.086 2.216 2.296
2517.316 2.186 2.086 2.106 2.026 2.076 2.336 2.376 2.266 2.076 2.266
2536.606 2.656 2.566 2.316 2.386 2.596 2.446 2.196 2.236 2.216 2.166
2555.896 2.236 1.966 1.696 1.6073 1.4519 1.27 1.343 1.5343 1.676 1.736
2575.186 1.706 1.5538 1.3519 1.4917 1.5046 1.5119 1.4256 1.3297 1.388 1.4534
2594.475 1.5703 1.3116 1.0063 0.9692 1.2147 1.3667 1.2106 1.0137 1.1308 1.1854
2613.765 0.8939 0.919 1.0069 0.8862 0.9141 0.8598 0.821 1.0282 1.1725 1.225
2633.055 1.0936 0.9321 0.9322 0.8436 0.6959 0.8126 0.9648 0.9597 0.8667 0.653769
2652.345 0.5654 0.6161 0.74193 0.8855 0.7846 0.648182 0.9026 1.0267 0.8383 0.8096
2671.634 0.67152 0.648759 0.72295 0.7879 0.8318 0.8955 1.0314 0.8007 0.6349 0.69464
2690.924 0.499 0.39 0.66354 0.7646 0.5988 0.6145 0.8665 1.0305 0.7945 0.70956
2710.214 0.7467 0.525 0.438 0.6016 0.8794 0.7763 0.68001 0.64331 0.64057 1.0533
2729.504 1.188 1.0675 0.9448 0.9558 1.1906 1.4169 1.2589 1.0124 1.2444 1.2338
2748.794 1.1333 1.2177 1.0753 1.1175 1.2975 1.0436 0.65812 0.9244 0.9489 0.64479
2768.083 0.7986 1.0648 1.0181 0.8808 0.7886 0.468 0.5514 0.9537 0.914 0.72114
2787.373 0.74249 0.74167 0.471 0.316 0.472 0.442 0.459 0.5962 0.6222 0.505
2806.663 0.452 0.5766 0.6084 0.408 0.543 0.6262 0.5706 0.70788 0.7782 1.1754
2825.953 1.2081 0.7606 0.6621 0.8719 1.0598 1.1143 1.0211 0.9538 0.9504 0.9381
2845.242 1.2513 1.4155 1.4447 1.4984 0.9435 0.8282 1.1073 1.0269 1.1 1.1361
2864.532 0.9423 0.8822 1.0117 0.9279 0.824 1.0051 1.0788 1.0418 0.9015 0.73398
2883.822 0.9249 1.253 1.1315 0.905 0.9647 1.1893 0.9726 0.647604 0.5843 0.5767
2903.112 0.7819 0.8472 0.69145 0.483 0.52 0.72204 0.8345 0.9842 0.8634 0.402
2922.401 0.466 0.573 0.69969 0.8362 0.7769 1.0285 0.7862 0.466 0.28 0.5873
2941.691 0.941 0.72177 0.8235 0.9777 1.1145 1.2227 1.249 0.9856 0.68434 0.7869
2960.981 1.1992 1.4024 1.027 0.9775 1.3573 1.296 1.0651 0.8018 0.7807 0.9492
2980.271 0.8918 0.8278 1.2708 1.484 1.2168 1.0825 1.0094 0.9986 1.0706 1.1887
2999.561 0.9737 0.8118 0.7764 0.69684 0.71954 0.8904 0.819 0.544 0.8225 1.1999
3018.850 1.3272 1.4165 1.4725 1.4349 1.4579 1.4378 1.1113 1.1733 1.2956 1.2054
3038.140 1.157 1.2109 1.5444 1.866 1.896 1.666 1.656 1.6285 1.826 2.066
3057.430 2.156 2.396 2.216 1.856 2.036 2.386 2.836 3.646 4.456 4.946
3076.720 5.516 6.726 7.906 8.976 9.556 9.316 9.266 8.696 7.676 6.966
3096.009 6.156 5.476 4.506 3.516 3.106 2.706 2.116 2.096 2.116 1.826
3115.299 1.756 1.6269 1.3195 1.0799 0.9805 0.9657 0.8081 1.0004 1.1259 0.7588
3134.589 0.71315 0.7252 0.8206 0.8777 0.6335 0.67043 0.7613 0.9431 0.7767 0.517
3153.879 0.73401 0.8722 0.902 1.269 1.3342 0.9791 1.1254 1.1945 0.8983 0.7811
3173.169 0.63987 0.396 0.71458 1.1281 0.9372 0.51 0.505 0.64241 0.71802 0.8875
3192.458 0.9226 0.7569 0.7679 0.9499 0.9915 0.8762 0.617 0.7956 1.1515 0.9053
3211.748 0.7572 0.7393 0.532 0.5593 0.73428 0.7497 1.1523 1.1288 0.68357 0.9681
3231.038 1.1465 0.992 0.7784 0.7694 0.8955 0.7858 0.453 0.368 0.6274 0.452
3250.328 0.513 0.759 0.6203 0.73247 0.852 1.0644 0.8615 0.317 0.512 0.6641
3269.617 0.6192 0.9171 0.8518 0.419 0.154 0.075 0.423 0.8408 0.6075 0.471
3288.907 0.6282 0.72867 0.387 0.476 0.65703 0.393 0.831 0.66242 0.489 0.69664
3308.197 0.9072 1.144 0.527 0.202 0.402 0.383 0.44 0.6201 0.621 0.309
3327.487 0.259 0.167 0.211 0.5822 0.8521 0.7948 0.5667 0.6174 0.7509 0.6296
3346.777 0.5892 0.7623 0.6304 0.543 0.472 0.6222 0.65131 0.73225 1.0522 0.9245
3366.066 0.813 1.0024 0.8294 0.481 0.472 0.64218 0.9143 1.2703 1.2672 1.0864
3385.356 0.9376 0.64008 0.6239 0.7792 0.9258 1.1052 1.029 0.63771 0.498 0.43
3404.646 0.9494 1.2503 0.65895 0.451 0.471 0.8387 0.9048 0.765 0.8937 0.68356
3423.936 0.503 0.6092 0.5888 0.64428 1.2039 1.1945 0.6249 0.7593 1.1328 1.3149
3443.225 1.2007 0.473 0.491 1.0885 1.0075 0.9718 0.6033 0.515 0.66315 0.5617
3462.515 0.418 0.305 0.8231 1.0561 1.0361 0.756 0.7646 1.0889 1.0974 0.9598
3481.805 0.842 1.1262 1.1336 1.0155 0.7997 0.44 0.7825 0.8791 0.9517 1.2077
3501.095 1.0951 1.4407 1.646 1.676 2.096 2.296 2.076 1.936 2.076 2.376
3520.385 2.726 2.866 2.966 3.166 3.476 3.306 3.316 3.516 3.386 3.326
3539.674 3.226 3.306 2.926 2.596 2.606 2.386 2.196 1.986 2.066 1.976
3558.964 1.886 1.936 1.6131 1.4554 1.3884 1.5015 1.3754 1.2055 1.1034 0.9217
3578.254 1.1158 1.2768 0.8548 0.856 1.2151 1.1989 1.318 1.2259 1.3748 1.3042
3597.544 0.9934 0.9941 1.323 1.2555 0.9697 0.9557 1.0243 0.7892 0.323 0.68273
3616.833 1.0289 0.9256 0.72988 0.7238 0.9275 1.0934 1.2148 1.0466 0.8029 0.8694
3636.123 0.528 0.69831 0.7969 0.6037 0.6106 0.207 0.387 0.9423 0.9147 0.8107
3655.413 0.9687 0.7819 0.259 0.278 0.72632 0.71484 0.71068 0.652427 0.277 0.504
3674.703 0.9066 0.9442 0.9563 1.1996 1.3549 1.1177 0.9924 0.8838 0.8067 0.7523
3693.993 0.5957 0.9331 1.1744 0.491 0.383 0.69736 0.7695 0.7521 0.69997 0.9142
3713.282 1.2467 1.1263 0.896 1.2158 1.1968 0.7474 0.8756 1.44 1.2914 1.0284
3732.572 0.7651 0.5 0.65076 1.1112 1.2347 0.757 0.274 0.495 1.0731 1.0105
3751.862 1.177 1.3138 1.3348 1.1665 0.487 1.0126 1.5044 1.0203 1.2476 1.5912
3771.152 1.2076 1.0062 1.2415 1.0863 0.8873 0.7844 1.2689 1.3038 0.9048 0.7473
3790.441 0.6446 1.0591 1.1681 0.9672 0.7193 0.796 0.9122 1.1103 1.2029 0.8229
3809.731 0.8588 1.2655 1.061 0.7013 0.648518 0.477 0.135 0.33 0.537 0.218
3829.021 0.254 0.446 0.468 0.511 0.9998 0.9158 0.258 0.147 0 0.409
3848.311 0.73473 0.27 0.8186 1.3293 0.9174 0.838 1.3477 1.1331 0.7028 0.8471
3867.601 0.7581 0.513 0.73325 1.2032 1.0707 0.9987 0.7711 0.5511 0.49 0.6151
3886.890 1.1467 1.3251 1.0456 1.0657 1.3942 1.2129 0.8804 0.8851 0.9774 1.2224
3906.180 1.4893 1.1602 0.9168 0.8296 0.8744 0.9623 0.777 0.6741 1.0061 1.1019
3925.470 0.7648 0.74413 0.66458 0.537 0.337 0.394 0.419 0.238 0.475 0.9857
3944.760 0.8595 0.74437 0.884 0.70131 0.7508 0.9038 0.5726 0.249 0.8276 0.9841
3964.049 0.68714 0.70156 0.72347 1.0993 1.5073 1.515 1.2516 1.0755 0.8529 0.446
3983.339 0.511 1.0077 1.06 0.9023 0.71561 0.416 0.284 0.382 0.67318 0.89
##END=
