##TITLE=3-Ethoxy-4-methoxyphenethylamine
##JCAMP-DX=4.24
##DATA TYPE=INFRARED SPECTRUM
##ORIGIN=EPA-IR VAPOR PHASE LIBRARY
##OWNER=SRD/NIST
Collection (C) 2018 copyright by the U.S. Secretary of Commerce
on behalf of the United States of America. All rights reserved.
##CAS REGISTRY NO=86456-97-5
##MOLFORM=C 11 H 17 N O 2
##$NIST SOURCE=MSDC-IR
##STATE=gas
##XUNITS=1/CM
##YUNITS=ABSORBANCE
##XFACTOR=1.
##YFACTOR=0.001
##DELTAX=1.92898
##FIRSTX=549.8
##LASTX=4000.7
##FIRSTY=4.745
##MAXX=4000.7
##MINX=549.759
##MAXY=0.137805
##MINY=0
##NPOINTS=1790
##XYDATA=(X++(Y..Y))
549.759 4.745 4.845 4.645 4.385 4.275 4.285 4.625 4.835 4.965 4.655
569.049 4.605 4.655 4.495 4.475 4.465 4.645 4.865 5.115 5.165 5.255
588.339 5.255 5.325 5.615 5.655 5.605 5.695 5.735 5.875 5.985 5.795
607.628 5.685 5.805 5.935 6.005 6.155 6.225 6.395 6.675 7.005 7.455
626.918 7.655 7.755 7.945 8.075 8.185 8.375 8.295 8.015 7.895 7.935
646.208 7.635 7.215 6.945 6.725 6.495 6.195 6.185 6.225 6.095 6.025
665.498 6.095 6.245 6.405 6.465 6.555 6.565 6.695 6.905 7.055 7.305
684.787 7.445 7.675 7.895 8.065 8.425 8.975 9.405 9.615 9.885 10.165
704.077 10.315 10.455 10.675 10.955 11.275 11.465 11.845 12.435 12.975 13.715
723.367 14.385 15.105 15.975 16.835 17.805 18.805 19.715 20.565 21.295 22.065
742.657 22.945 23.925 24.945 26.025 27.165 28.235 29.105 29.985 31.125 32.095
761.947 32.735 33.335 34.005 34.405 34.595 34.825 34.985 35.015 34.875 34.635
781.236 34.365 34.065 33.715 33.255 32.875 32.405 31.775 31.185 30.665 30.305
800.526 29.805 29.155 28.315 27.325 26.435 25.615 24.855 23.795 22.585 21.455
819.816 20.115 18.635 17.205 15.785 14.475 13.235 12.355 11.715 10.965 10.415
839.106 10.145 9.995 9.845 9.885 9.955 10.175 10.305 10.115 9.925 10.025
858.395 10.335 10.515 10.545 10.405 10.325 10.325 10.255 10.355 10.585 10.665
877.685 10.655 10.685 10.835 10.875 10.995 11.095 11.005 10.655 10.285 9.965
896.975 9.535 9.235 8.835 8.385 7.995 7.535 7.275 7.145 6.825 6.515
916.265 6.365 6.225 6.075 5.995 5.895 5.925 5.995 6.055 6.235 6.365
935.555 6.395 6.385 6.445 6.645 6.805 6.995 7.295 7.615 7.955 8.275
954.844 8.545 8.785 9.085 9.455 9.805 10.085 10.415 10.635 10.765 10.885
974.134 10.935 11.115 11.085 11.225 11.435 11.515 11.715 12.015 12.675 13.505
993.424 14.285 15.185 16.295 17.555 18.925 20.495 22.255 24.465 27.175 30.335
1012.714 33.645 37.305 41.205 44.945 48.905 52.475 55.395 57.995 60.355 62.465
1032.003 64.595 66.495 67.785 68.395 67.845 66.105 63.915 60.925 56.975 52.715
1051.293 48.385 44.285 40.675 37.525 34.775 32.575 31.015 29.875 28.575 27.425
1070.583 26.435 25.505 24.495 22.955 21.815 20.995 20.495 20.225 19.945 19.915
1089.873 19.755 19.375 19.235 19.445 19.595 19.875 20.435 21.295 22.965 24.915
1109.163 27.325 30.335 33.395 36.725 40.065 43.385 46.915 50.235 52.565 54.225
1128.452 55.365 55.745 55.835 55.205 53.805 52.275 50.675 49.215 47.885 46.825
1147.742 45.815 44.685 43.485 42.375 41.185 39.875 37.995 35.735 33.635 31.475
1167.032 29.305 27.225 25.525 24.205 23.135 22.225 21.565 20.735 19.845 19.575
1186.322 19.265 18.665 18.055 17.655 17.645 17.625 18.315 19.715 21.485 23.755
1205.611 26.295 29.025 32.445 36.655 40.885 45.075 49.135 53.095 56.725 59.505
1224.901 61.625 63.225 63.965 63.715 62.895 62.075 61.295 60.445 59.715 59.785
1244.191 60.835 62.985 66.395 71.095 77.365 85.035 93.845 103.175 112.505 121.445
1263.481 128.955 134.375 137.585 137.805 134.905 129.725 122.605 114.175 105.135 95.875
1282.771 86.815 78.655 71.475 65.195 59.895 55.475 51.795 48.415 45.335 42.485
1302.060 39.755 37.125 34.535 32.145 29.865 27.765 25.955 24.325 22.985 21.875
1321.350 20.895 20.165 19.545 19.075 18.785 18.525 18.195 17.855 17.475 17.065
1340.640 16.605 16.145 15.695 15.335 15.195 15.135 15.085 15.105 15.125 15.115
1359.930 15.075 15.045 15.045 15.045 15.195 15.585 16.215 17.195 18.585 20.225
1379.219 22.145 24.135 25.945 27.415 28.375 28.815 28.595 27.775 26.405 24.655
1398.509 22.895 21.315 20.145 19.405 19.135 19.515 20.475 21.875 23.625 25.395
1417.799 26.895 27.985 28.555 28.515 27.955 27.105 26.095 25.325 25.185 25.785
1437.089 27.045 28.565 30.025 30.945 31.065 30.485 29.295 27.625 25.645 23.945
1456.378 22.905 22.465 22.615 23.085 23.735 24.515 25.295 25.985 26.645 27.255
1475.668 28.035 28.955 29.975 31.385 33.245 35.765 39.105 43.505 49.445 56.975
1494.958 66.395 77.795 90.475 103.575 115.795 125.615 131.695 133.015 129.275 120.825
1514.248 108.505 93.935 78.825 64.825 52.665 42.935 35.265 29.435 25.055 21.705
1533.538 19.155 17.185 15.695 14.435 13.435 12.735 12.215 11.845 11.555 11.425
1552.827 11.465 11.615 11.845 12.185 12.755 13.495 14.375 15.415 16.655 18.015
1572.117 19.305 20.505 21.555 22.145 22.325 22.095 21.515 20.675 19.675 18.705
1591.407 17.845 17.235 16.995 17.045 17.285 17.705 18.155 18.445 18.605 18.575
1610.697 18.235 17.775 17.225 16.465 15.665 14.945 14.175 13.455 12.735 11.965
1629.986 11.125 10.245 9.505 8.765 8.015 7.455 6.955 6.425 5.965 5.585
1649.276 5.275 4.915 4.595 4.425 4.215 3.945 3.825 3.725 3.525 3.395
1668.566 3.295 3.225 3.165 3.045 2.925 2.845 2.845 2.765 2.615 2.625
1687.856 2.665 2.605 2.545 2.565 2.615 2.645 2.635 2.655 2.635 2.595
1707.146 2.635 2.635 2.545 2.515 2.535 2.535 2.525 2.505 2.455 2.415
1726.435 2.425 2.445 2.475 2.485 2.495 2.485 2.385 2.385 2.415 2.405
1745.725 2.435 2.425 2.345 2.375 2.455 2.345 2.305 2.335 2.325 2.345
1765.015 2.325 2.305 2.305 2.295 2.305 2.255 2.245 2.255 2.205 2.185
1784.305 2.185 2.165 2.175 2.185 2.185 2.205 2.195 2.185 2.185 2.185
1803.594 2.205 2.265 2.235 2.155 2.175 2.245 2.275 2.255 2.295 2.285
1822.884 2.255 2.275 2.305 2.325 2.335 2.315 2.335 2.355 2.345 2.425
1842.174 2.485 2.505 2.495 2.485 2.505 2.535 2.605 2.685 2.755 2.755
1861.464 2.735 2.725 2.735 2.705 2.605 2.565 2.555 2.515 2.435 2.385
1880.754 2.345 2.305 2.295 2.275 2.235 2.225 2.195 2.185 2.185 2.165
1900.043 2.115 2.055 2.015 2.005 2.005 1.975 1.935 1.915 1.895 1.875
1919.333 1.865 1.805 1.755 1.745 1.795 1.775 1.775 1.765 1.685 1.635
1938.623 1.585 1.525 1.525 1.555 1.505 1.515 1.545 1.555 1.565 1.585
1957.913 1.595 1.605 1.595 1.625 1.645 1.695 1.745 1.745 1.785 1.825
1977.202 1.795 1.835 1.915 1.855 1.845 1.955 1.975 1.995 2.115 2.155
1996.492 2.195 2.255 2.255 2.345 2.395 2.415 2.535 2.615 2.695 2.825
2015.782 2.845 2.915 2.965 3.005 3.075 3.075 3.165 3.165 3.085 3.055
2035.072 3.025 2.975 2.895 2.755 2.665 2.565 2.445 2.355 2.265 2.215
2054.362 2.195 2.145 2.065 2.035 2.015 1.955 1.965 1.925 1.825 1.825
2073.651 1.805 1.745 1.705 1.665 1.645 1.575 1.465 1.405 1.325 1.285
2092.941 1.325 1.275 1.215 1.205 1.175 1.1564 1.1336 1.1025 1.1115 1.0714
2112.231 1.0409 1.0283 1.0246 1.1132 1.1338 1.1107 1.1037 1.1156 1.0293 1.0063
2131.521 1.0856 1.0443 1.0639 1.0754 1.0477 1.0554 1.0092 0.976 0.9587 0.9174
2150.810 0.9416 0.966 0.9461 0.9788 1.0102 1.0007 0.9366 0.9409 0.9831 0.9933
2170.100 0.9848 1.0308 1.0983 1.0596 0.9951 0.9648 0.9989 0.953 0.8641 0.8923
2189.390 0.9447 0.9425 0.9154 0.886 0.91 0.9308 0.8593 0.8898 0.9383 0.9044
2208.680 0.8944 0.8882 0.8897 0.8786 0.8609 0.8449 0.9097 0.9481 0.9282 0.9468
2227.970 0.984 1.0736 1.138 1.1252 1.1174 1.0839 1.1227 1.205 1.235 1.265
2247.259 1.305 1.385 1.445 1.425 1.395 1.425 1.425 1.415 1.505 1.485
2266.549 1.445 1.495 1.445 1.355 1.375 1.445 1.435 1.385 1.385 1.345
2285.839 1.325 1.315 1.265 1.225 1.225 1.195 1.1038 1.0436 0.9983 0.9736
2305.129 0.9612 0.9717 0.9735 0.9608 0.9358 0.911 0.8039 0.7138 0.8079 0.8454
2324.418 0.7768 0.7758 0.7595 0.7519 0.8086 0.7882 0.7261 0.7157 0.7265 0.7272
2343.708 0.7568 0.7728 0.8193 0.853 0.8994 1.0016 0.9863 0.8854 0.8342 0.8658
2362.998 0.9071 0.8849 0.867 0.9116 0.9961 1.0425 1.071 1.1045 1.0694 1.0243
2382.288 0.9886 0.9801 0.9676 0.9276 0.9049 0.9555 1.026 0.9833 0.9854 1.0355
2401.578 1.0393 1.0084 0.9865 1.0565 1.0939 1.1079 1.1265 1.1354 1.175 1.1461
2420.867 1.1011 1.1486 1.205 1.205 1.185 1.195 1.1376 1.1455 1.235 1.1706
2440.157 1.1049 1.1199 1.1297 1.1271 1.195 1.205 1.1194 1.0636 1.0561 1.0132
2459.447 1.0064 1.1183 1.0989 1.0238 1.0414 1.0557 1.1148 1.1022 1.0969 1.1554
2478.737 1.1559 1.1378 1.0948 1.1416 1.185 1.1162 1.0974 1.1365 1.1484 1.1224
2498.026 1.1174 1.195 1.235 1.245 1.275 1.325 1.395 1.365 1.375 1.435
2517.316 1.395 1.385 1.445 1.615 1.685 1.635 1.655 1.655 1.715 1.765
2536.606 1.785 1.855 1.875 1.835 1.835 1.925 1.955 2.055 2.075 1.995
2555.896 2.065 2.075 1.995 1.955 1.935 1.965 1.965 1.915 1.905 1.905
2575.186 1.835 1.725 1.695 1.715 1.715 1.635 1.625 1.645 1.595 1.545
2594.475 1.585 1.635 1.635 1.625 1.555 1.535 1.525 1.495 1.445 1.455
2613.765 1.485 1.505 1.545 1.495 1.505 1.515 1.485 1.445 1.455 1.515
2633.055 1.555 1.605 1.595 1.505 1.535 1.525 1.505 1.585 1.585 1.605
2652.345 1.575 1.515 1.535 1.565 1.575 1.635 1.665 1.665 1.695 1.775
2671.634 1.815 1.825 1.815 1.755 1.755 1.825 1.915 1.955 1.975 2.025
2690.924 2.045 2.075 2.115 2.115 2.175 2.215 2.205 2.225 2.245 2.295
2710.214 2.475 2.555 2.495 2.605 2.765 2.775 2.815 2.845 2.915 3.035
2729.504 3.065 3.095 3.265 3.365 3.365 3.405 3.455 3.505 3.505 3.555
2748.794 3.605 3.535 3.525 3.615 3.615 3.595 3.525 3.535 3.625 3.705
2768.083 3.815 3.835 3.845 3.925 4.035 4.105 4.175 4.265 4.305 4.405
2787.373 4.475 4.545 4.695 4.875 5.095 5.285 5.415 5.595 5.955 6.375
2806.663 6.715 7.095 7.575 8.035 8.605 9.285 9.965 10.675 11.525 12.655
2825.953 14.045 15.725 17.705 19.855 22.155 24.465 26.555 28.455 29.855 30.725
2845.242 31.415 31.665 31.695 31.715 31.685 31.725 31.765 31.685 31.475 31.205
2864.532 31.055 31.005 30.905 31.065 31.455 32.025 32.705 33.185 33.675 34.085
2883.822 34.265 34.435 34.575 34.455 34.495 34.765 35.145 35.845 36.915 38.395
2903.112 40.175 42.235 44.445 46.905 49.535 51.975 54.195 56.225 57.885 59.065
2922.401 60.155 61.295 62.555 64.315 66.635 69.525 72.555 75.665 78.235 79.465
2941.691 79.465 78.215 75.525 71.575 67.055 62.465 57.905 53.705 50.135 47.065
2960.981 44.455 42.455 41.085 40.275 39.915 39.945 40.355 41.105 42.015 42.975
2980.271 43.795 44.405 44.695 44.735 44.315 43.345 42.105 40.525 38.885 37.245
2999.561 35.485 33.665 31.695 29.655 27.425 25.095 22.975 21.005 19.275 17.895
3018.850 17.035 16.605 16.245 16.005 16.035 16.255 16.485 16.675 16.815 16.915
3038.140 16.965 16.965 16.825 16.535 16.105 15.465 14.895 14.345 13.785 13.175
3057.430 12.515 11.815 11.155 10.615 10.085 9.535 9.115 8.875 8.425 7.895
3076.720 7.475 7.035 6.665 6.135 5.765 5.575 5.225 5.035 4.945 4.715
3096.009 4.425 4.235 3.985 3.785 3.705 3.575 3.375 3.275 3.195 3.115
3115.299 3.015 2.815 2.705 2.615 2.595 2.525 2.295 2.195 2.125 1.985
3134.589 1.925 1.825 1.755 1.675 1.635 1.565 1.515 1.505 1.445 1.445
3153.879 1.425 1.355 1.325 1.235 1.235 1.1747 1.052 1.0979 1.0867 0.993
3173.169 1.0657 1.0741 0.9795 1.0148 1.0547 1.0807 1.0159 0.8903 0.7787 0.7304
3192.458 0.8502 0.9337 0.9643 0.9914 0.7651 0.6626 0.8337 0.9056 0.7971 0.7858
3211.748 0.7754 0.8078 0.8074 0.7581 0.7677 0.607 0.5794 0.6013 0.586 0.6682
3231.038 0.662 0.6975 0.6286 0.5909 0.7026 0.6353 0.5534 0.5728 0.5413 0.4324
3250.328 0.4161 0.4032 0.4625 0.5107 0.4682 0.5079 0.4699 0.4412 0.466 0.5018
3269.617 0.4932 0.3962 0.4347 0.4756 0.4866 0.5415 0.5376 0.5275 0.3386 0.276
3288.907 0.4279 0.527 0.4571 0.3998 0.5187 0.4314 0.4639 0.3453 0.094 0.25519
3308.197 0.3685 0.4216 0.3867 0.3579 0.4116 0.4433 0.5041 0.3945 0.4892 0.6024
3327.487 0.5647 0.5653 0.5152 0.5903 0.8394 0.9127 0.938 1.0314 1.0604 1.0829
3346.777 0.8866 0.8515 0.8814 0.6609 0.5764 0.6189 0.5396 0.4609 0.4306 0.3829
3366.066 0.3563 0.3834 0.439 0.4553 0.4916 0.3648 0.3086 0.3732 0.3863 0.4538
3385.356 0.5174 0.5127 0.3585 0.4084 0.4793 0.4712 0.5878 0.7091 0.6996 0.6343
3404.646 0.7468 0.8876 0.8576 0.7569 0.5959 0.559 0.6119 0.5567 0.5145 0.421
3423.936 0.4216 0.4968 0.4995 0.5644 0.584 0.4001 0.3597 0.4565 0.3829 0.3032
3443.225 0.3082 0.2905 0.3011 0.379 0.3289 0.183799 0.27307 0.3556 0.24946 0.25303
3462.515 0.26148 0.1558 0.1251 0.25497 0.25805 0.062 0.0952 0.3288 0.3912 0.3076
3481.805 0.26744 0.27308 0.23794 0.1355 0.1098 0.1403 0.1065 0.007 0.1352 0.25409
3501.095 0.2119 0.1318 0.1433 0.20979 0.063 0.013 0.1661 0.2889 0.2986 0.3183
3520.385 0.3833 0.3665 0.2839 0.2947 0.3144 0.3082 0.24151 0.17055 0.18633 0.2762
3539.674 0.2917 0.25235 0.21577 0.19719 0.2507 0.174697 0.1472 0.24826 0.3129 0.382
3558.964 0.3352 0.18797 0.22755 0.27024 0.23014 0.20379 0.22462 0.24712 0.24152 0.24175
3578.254 0.1611 0.1499 0.1539 0.1851 0.16688 0.1156 0.1255 0.19651 0.3361 0.3324
3597.544 0.27051 0.19904 0.23236 0.2801 0.19311 0.17089 0.2928 0.23013 0.1254 0.20504
3616.833 0.0895 0.16686 0.341 0.3666 0.3874 0.26929 0.23928 0.2901 0.2975 0.22542
3636.123 0.0796 0 0.065 0.1387 0.18685 0.19758 0.1246 0.20933 0.3426 0.358
3655.413 0.3095 0.27412 0.3415 0.3302 0.2885 0.3101 0.3045 0.23304 0.1138 0.1152
3674.703 0.1692 0.1575 0.26213 0.3507 0.3148 0.2435 0.1565 0.048 0.0992 0.3035
3693.993 0.3123 0.20807 0.2855 0.3562 0.3058 0.2238 0.1409 0.001 0.053 0.21941
3713.282 0.21533 0.3208 0.2866 0.1249 0.028 0.1119 0.2382 0.2931 0.4026 0.2948
3732.572 0.17187 0.307 0.412 0.4026 0.358 0.3605 0.5232 0.5167 0.3098 0.3998
3751.862 0.3561 0.1587 0.2251 0.25481 0.4181 0.4881 0.4807 0.5154 0.4435 0.4808
3771.152 0.3941 0.3497 0.458 0.4812 0.3715 0.23914 0.19955 0.1338 0.20206 0.27377
3790.441 0.2977 0.356 0.4694 0.5252 0.4725 0.4743 0.4694 0.355 0.3056 0.3876
3809.731 0.4409 0.5844 0.6429 0.5306 0.3964 0.268 0.3119 0.4218 0.4536 0.3221
3829.021 0.25268 0.3503 0.2781 0.3881 0.4098 0.174953 0.1155 0.1445 0.19329 0.3146
3848.311 0.4472 0.5548 0.3515 0.1606 0.4067 0.3637 0.151 0.18931 0.3387 0.3829
3867.601 0.3272 0.4052 0.356 0.22945 0.2968 0.407 0.5367 0.5657 0.4217 0.3091
3886.890 0.3055 0.3543 0.5 0.6115 0.4724 0.4983 0.5262 0.478 0.5209 0.4597
3906.180 0.5152 0.4317 0.2836 0.3251 0.3524 0.3462 0.3813 0.3925 0.3131 0.24279
3925.470 0.4312 0.543 0.2931 0.3239 0.5006 0.5091 0.5476 0.6562 0.6315 0.5294
3944.760 0.5091 0.3586 0.24902 0.4134 0.6195 0.6155 0.6344 0.6155 0.561 0.4908
3964.049 0.3309 0.4919 0.6337 0.5884 0.6663 0.7245 0.5183 0.4277 0.52 0.5581
3983.339 0.5718 0.5133 0.7448 0.8456 0.7264 0.803 0.7892 0.8518 0.7962 0.5945
##END=
