##TITLE=2-(Trimethylsilylethynyl)pyridine
##JCAMP-DX=4.24
##DATA TYPE=INFRARED SPECTRUM
##ORIGIN=EPA-IR VAPOR PHASE LIBRARY
##OWNER=SRD/NIST
Collection (C) 2018 copyright by the U.S. Secretary of Commerce
on behalf of the United States of America. All rights reserved.
##CAS REGISTRY NO=86521-05-3
##MOLFORM=C 10 H 13 N Si
##$NIST SOURCE=MSDC-IR
##STATE=gas
##XUNITS=1/CM
##YUNITS=ABSORBANCE
##XFACTOR=1.
##YFACTOR=0.001
##DELTAX=1.92898
##FIRSTX=549.8
##LASTX=4000.7
##FIRSTY=5.24
##MAXX=4000.7
##MINX=549.759
##MAXY=0.21659
##MINY=0
##NPOINTS=1790
##XYDATA=(X++(Y..Y))
549.759 5.24 6.12 5.07 5.27 6.35 4.28 3.72 4.52 4.53 4.71
569.049 5.34 5.28 4.71 4.2 4.51 4.84 4.05 3.92 3.54 3.08
588.339 3.22 4.57 4.9 4.44 5.19 6.06 6.11 5.99 6.21 5.71
607.628 4.3 3.82 4.44 4.25 3.83 3.18 3.74 4.69 4.65 5.31
626.918 5.5 4.88 5.19 5.25 5.28 6.11 6.95 8.68 10.81 12.93
646.208 15.12 17.08 19.05 19.97 19.17 17.5 16.22 15.2 14.54 13.82
665.498 12.66 12.24 12.67 13.09 13.14 12.53 12.25 12.45 11.89 11.77
684.787 12.83 13.83 14.82 15.91 16.09 17.12 18.35 19.44 20.18 19.97
704.077 20.09 20.53 20.74 20.36 20.51 21.12 20.86 20.43 20.51 21.09
723.367 21.32 20.96 20.9 21.08 21.62 22.21 22.83 22.95 22.77 23.28
742.657 23.67 24.49 25.98 27.51 29.14 31.24 33.88 36.87 39.49 42.69
761.947 46.47 49.19 51.54 53.59 54.29 54.84 55.62 56.16 54.46 49.78
781.236 45.23 41.56 38.89 35.96 33.05 30.96 28.17 25.6 24 23.02
800.526 23.04 23.12 23.55 24.28 25.11 26.31 27.76 30.64 33.43 35.33
819.816 39.09 44.36 49.17 52.14 55.26 61.35 68.48 76.42 86.45 98.01
839.106 109.95 121.9 133.06 142.96 151.48 157.66 161.19 162.52 162.87 161.82
858.395 161.12 162.92 168.33 178.45 191.98 205.52 214.47 216.59 212.25 201.06
877.685 182.66 159.72 136.9 116.77 100.78 88.84 78.86 70.9 64.71 59.29
896.975 54.49 49.22 44.91 41.72 38.51 35.25 31.69 29.15 27.05 24.66
916.265 22.49 20.81 19.33 18.22 17.48 16.45 15.7 14.67 13.67 13.26
935.555 12.38 11.41 10.67 9.66 9.56 9.22 8.04 7.46 6.74 5.98
954.844 5.75 5.57 4.8 4.86 5.21 5.23 5 4.75 4.79 4.75
974.134 5.53 6.5 6.27 5.64 6.25 6.95 6.36 6.04 5.76 4.96
993.424 5.04 5.13 4.93 4.78 3.98 3.61 3.52 3.2 2.94 2.3424
1012.714 1.8812 2.91 3.59 4.23 4.4 3.63 4.08 4.54 4.31 3.71
1032.003 4.23 4.87 5.6 6.57 7.88 7.84 6.95 7.53 7.72 7.53
1051.293 6.62 5.42 5.8 6.03 6.1 4.82 2.77 3.38 3.94 3.73
1070.583 4.12 5.12 4.82 3.31 2.65 3.32 3.88 3.58 3.04 2.68
1089.873 3.54 3.31 2.61 2.2271 0.52 0.35 0.39 1.60614 2.5467 1.64904
1109.163 2.3944 2.2371 1.168 0.957 1.6934 1.7625 2.4336 2.84 2.62 2.0788
1128.452 2.2223 3.27 4.78 6.17 6.58 7.92 9.69 11.16 11.24 10.53
1147.742 11.26 10.87 7.8 5.09 4.21 3.55 2.82 2.88 3.52 4.07
1167.032 4.23 4.56 4.74 5.4 5.78 5.06 5.19 5.56 5.01 5.49
1186.322 6.23 6.33 6.88 6.45 5.11 6.19 7.67 7.47 8.24 9.78
1205.611 9.99 10.16 13.81 17.94 18.88 19.87 22.16 23.31 24.09 25.08
1224.901 26 27.14 28.49 32.71 40.54 50.39 61.87 74.54 87.69 98.55
1244.191 103.53 104.24 102.38 96.2 86.13 77.17 70.73 66.19 63.61 61.53
1263.481 59.45 55.5 49.94 45.32 40.6 34.75 29.24 24.38 20.81 18.27
1282.771 15.88 14.66 14.11 12.98 12.38 12.08 11.39 10.68 9.94 9.72
1302.060 9.67 9.09 8.74 8.24 7.74 7.46 7.31 7.28 7.09 6.92
1321.350 6.75 6.49 5.97 5.47 4.97 4.57 4.42 4.33 4.08 3.74
1340.640 3.72 3.74 3.78 3.71 3.29 3.27 3.49 3.58 3.63 3.72
1359.930 3.93 3.83 3.65 3.75 3.93 4.07 4.17 4.19 4.35 4.46
1379.219 4.54 4.68 4.86 4.95 4.97 5.11 5.3 5.66 5.86 5.88
1398.509 6.07 6.75 7.45 8.05 8.93 9.99 11.04 12.57 15.45 19.89
1417.799 26.39 35.26 44.39 50.59 52.45 51.7 48.72 41.54 30.92 21.52
1437.089 15.53 12.9 12.15 12.44 14.02 16.91 21.77 29.18 40.39 55.31
1456.378 72.11 84.52 87.43 84.76 79.41 67.81 48.2 29.03 17.21 11.35
1475.668 8.7 7.03 5.97 5.26 4.4 4.04 3.87 3.56 3.46 3.37
1494.958 3.57 3.68 3.75 3.83 3.85 4.17 4.06 3.73 3.7 3.73
1514.248 3.61 3.44 3.52 3.8 3.88 3.83 4.13 4.29 4.39 4.7
1533.538 5.02 5.45 6.1 6.93 7.72 8.65 9.99 11.17 12.28 13.58
1552.827 15.27 17.31 19.31 22.14 25.44 28.48 32.34 37.51 43.14 48.73
1572.117 54.66 60.31 65.3 68.15 67.35 63.6 57.68 50.01 41.73 33.46
1591.407 26.47 21.61 17.47 13.49 10.27 8.38 7.15 6.23 5.54 5.17
1610.697 5.08 4.77 4.79 4.75 4.45 4.28 4.2 4.03 3.65 3.22
1629.986 3.07 3.15 3.06 2.94 2.77 2.6 2.5504 2.4802 2.76 2.73
1649.276 2.5456 2.93 3.17 3.11 3.26 3.28 3.19 3.12 3.08 3.12
1668.566 2.93 2.88 2.76 2.76 2.87 2.57 2.4616 2.407 2.2148 2.1861
1687.856 2.28 2.2757 2.1688 2.1963 2.1606 2.248 2.4932 2.3861 2.1777 2.0275
1707.146 2.0501 2.0911 1.933 1.884 1.8768 1.8871 2.0018 1.96 2.0051 2.2103
1726.435 2.2087 2.1838 2.3846 2.65 2.65 2.5259 2.6 2.63 2.5447 2.61
1745.725 2.71 2.76 2.97 3.03 2.64 2.57 2.89 3.03 2.99 2.87
1765.015 2.67 2.4882 2.531 2.81 2.5347 2.0812 1.9783 2.0771 2.0488 1.7474
1784.305 1.59681 1.61159 1.7365 1.7885 1.7318 1.5138 1.4971 1.60568 1.6897 1.8743
1803.594 1.9 1.8751 1.7714 1.8255 2.0697 1.9332 1.7499 1.8273 1.9657 1.9969
1822.884 2.1209 2.0614 2.002 2.2069 2.2858 2.2537 2.149 2.3138 2.4799 2.3116
1842.174 2.3181 2.4492 2.4211 2.3229 2.2744 2.4739 2.58 2.62 2.57 2.57
1861.464 2.87 3.29 3.38 2.9 2.57 2.4792 2.4638 2.2611 1.9728 1.9054
1880.754 1.7614 1.6988 1.6928 1.6791 1.63962 1.62217 1.7828 1.9276 2.0002 1.9889
1900.043 2.0508 2.1279 2.1537 2.4791 2.95 3.02 2.88 2.94 3.12 3
1919.333 2.78 2.62 2.57 2.5106 2.2691 2.3189 2.68 2.84 2.87 2.89
1938.623 2.85 2.92 2.93 2.96 3.24 3.43 3.27 3.2 3.16 3.1
1957.913 3.18 3.41 3.59 3.64 3.67 3.68 3.46 3.16 3.05 2.84
1977.202 2.4606 2.1609 1.9995 1.9497 1.979 1.7922 1.57344 1.7192 1.7952 1.63884
1996.492 1.62319 1.65879 1.55775 1.6896 1.9211 1.8088 1.841 1.8013 1.6916 1.7316
2015.782 1.7205 1.7739 1.6427 1.508 1.64064 1.7184 1.8267 1.8626 1.7047 1.58488
2035.072 1.6851 1.766 1.65209 1.725 1.8296 1.7492 1.7107 1.63083 1.6886 1.7183
2054.362 1.6906 1.8071 1.7017 1.8164 2.1037 2.1073 2.08 2.0622 2.163 2.2357
2073.651 2.3398 2.4328 2.222 2.0386 1.8921 1.7894 1.9309 1.9419 1.8315 2.0231
2092.941 2.0755 2.0404 1.8432 1.58066 1.9766 2.2242 2.1721 2.319 2.2207 2.3209
2112.231 2.5248 2.4156 2.4591 2.66 2.8 2.62 2.59 2.84 2.81 2.73
2131.521 2.8 2.99 3.37 3.66 3.88 4.36 4.7 5.28 6.23 7.15
2150.810 8.23 9.41 10.54 11.83 13.26 14.17 14.75 15.21 15.1 14.45
2170.100 13.31 11.7 9.99 8.17 6.39 4.69 3.42 2.61 2.1995 2.0221
2189.390 1.7805 1.7104 1.447 1.37 1.5597 1.448 1.335 1.387 1.57509 1.63956
2208.680 1.452 1.417 1.36 1.415 1.63047 1.4971 1.33 1.312 1.266 1.271
2227.970 1.131 1.18 1.441 1.343 1.117 1.167 1.315 1.273 1.076 0.867
2247.259 1.043 1.381 1.412 1.421 1.303 1.138 1.244 1.252 1.125 1.217
2266.549 1.167 0.97 1.164 1.315 1.329 1.387 1.487 1.58899 1.4926 1.59086
2285.839 1.7844 1.6726 1.4822 1.5398 1.7716 1.6763 1.5464 1.5375 1.5328 1.60587
2305.129 1.58423 1.364 1.214 1.149 1.051 1.063 1.069 1.049 1.195 1.426
2324.418 1.43 1.199 1.214 1.272 1.176 1.029 1.097 1.232 1.063 0.903
2343.708 0.978 1.242 1.039 0.831 0.949 1.181 1.166 0.928 1.219 1.311
2362.998 1.159 1.342 1.274 1.111 0.949 0.953 1.047 1.05 1.087 1.172
2382.288 1.153 0.985 0.832 0.693 0.849 1.023 0.928 1.307 1.4999 1.015
2401.578 0.714 0.844 1.113 0.995 1.21 1.58127 1.302 1.05 1.202 1.361
2420.867 1.305 1.359 1.368 1.228 1.15 1.098 1.053 1.33 1.62677 1.357
2440.157 1.331 1.5082 1.384 1.038 1.126 1.5069 1.5336 1.5103 1.185 1.197
2459.447 1.341 1.315 1.373 1.4807 1.55526 1.342 1.458 1.64489 1.7652 1.7421
2478.737 1.5791 1.284 1.13 1.117 1.307 1.477 1.44 1.57324 1.378 1.385
2498.026 1.135 1.065 1.434 1.195 1.192 1.55297 1.7605 1.8758 1.7287 1.57194
2517.316 1.384 1.319 1.61355 1.59698 1.174 1.139 1.169 1.188 1.085 0.862
2536.606 1.368 1.284 0.728 0.54 0.816 1.011 0.852 1.191 1.211 1.009
2555.896 0.798 0.71 1.145 1.009 1.047 1.297 1.065 1.089 1.004 0.718
2575.186 0.728 0.702 0.753 0.872 0.745 0.48 0.762 1.079 0.689 0.846
2594.475 1.216 0.935 0.86 0.868 0.787 0.9 0.51 0.38 0.792 0.871
2613.765 0.859 0.76 0.55 0.5 0.869 1.099 1.099 1.339 1.63468 1.4853
2633.055 1.383 1.218 0.715 0.959 1.115 0.812 1.128 1.384 1.324 1.62231
2652.345 1.65963 1.406 1.079 1.066 1.252 1.346 1.4897 0.907 0.604 0.774
2671.634 0.725 1.045 1.014 1.013 1.343 1.5152 1.6883 1.278 1.31 1.389
2690.924 1.084 1.219 1.013 0.842 1.17 1.368 1.119 0.976 0.993 1.111
2710.214 1.5105 1.48 1.201 1.037 0.805 0.899 0.951 0.82 0.894 1.265
2729.504 1.219 1.007 1.121 1.183 0.946 0.874 1.238 1.58978 1.6227 1.8225
2748.794 1.7109 1.4789 1.442 0.89 0.91 1.5263 1.58855 1.7176 2.0628 1.7792
2768.083 1.8651 1.7403 1.61744 2.1779 2.273 2.1329 2.57 2.72 2.2257 2.1522
2787.373 2.3512 2.3467 2.1828 2.58 2.78 2.67 2.97 3.44 3.56 3.38
2806.663 3.61 3.66 3.26 2.97 3.31 3.7 3.6 3.3 3.49 3.79
2825.953 3.68 3.63 3.38 3.52 3.44 3.12 3.25 3.38 3.55 3.55
2845.242 3.12 3.14 3.76 4 4.16 4.71 4.9 4.65 4.68 4.26
2864.532 4.27 4.63 4.79 5.11 5.11 4.87 4.79 5.16 5.81 6.33
2883.822 6.61 6.77 7.28 8.04 8.78 9.66 10.36 11.22 12.71 14.12
2903.112 15.12 16.19 16.26 15.92 15.76 14.56 13.05 12.23 11.13 10.13
2922.401 9.36 8.25 7.81 7.84 7.53 7.07 6.87 6.83 7.03 7.6
2941.691 8.32 8.83 10.03 11.63 13.68 16.87 20.19 24.12 29.37 35.66
2960.981 41.78 46.13 48.31 48.31 46.58 42.73 37.27 32.18 27.65 23.89
2980.271 21.08 18.72 16.8 15 13.28 11.8 10.85 10.34 9.86 9.34
2999.561 9.64 10.4 11.06 11.44 11.32 11.58 11.37 10.62 9.74 8.91
3018.850 8.3 7.63 7.09 6.74 6.7 6.41 6.55 7.08 7.23 7.49
3038.140 7.86 8.56 9.72 10.82 11.68 12.99 14.47 15.71 16.67 17.79
3057.430 19.28 20.98 22.12 23.28 24.53 24.89 25.52 25.71 25.06 24.04
3076.720 23.1 21.85 20.5 19.58 18.34 17.4 15.9 13.73 11.5 9.68
3096.009 8.7 7.75 7.32 6.73 6.08 5.91 5.83 5.79 5.24 5.23
3115.299 4.96 4.86 5.21 4.9 4.67 5.17 5.33 4.95 4.79 4.54
3134.589 3.97 3.1 3.64 3.88 3.43 3.41 3.02 2.59 2.72 2.58
3153.879 2.3005 2.4175 2.3441 2.2019 1.9737 2.0656 1.7907 1.64135 2.0594 1.7665
3173.169 1.63293 1.9048 1.8753 1.7852 1.68 1.9797 1.57993 0.86 1.28 1.433
3192.458 1.263 1.63262 2.0557 1.7863 1.58699 1.9332 1.60222 1.219 1.307 0.988
3211.748 0.957 1.234 1.229 1.42 1.231 0.913 0.887 0.821 0.88 0.947
3231.038 1.015 0.766 0.25 0.25 0.667 0.737 0.817 1.314 1.146 0.761
3250.328 0.872 1.129 1.4782 1.243 1.051 1.021 0.878 0.997 1.367 1.275
3269.617 1.143 1.44 1.7026 1.7339 1.319 1.094 1.397 1.55319 1.413 1.57784
3288.907 1.8464 2.1267 1.64816 1.049 1.286 1.024 1.09 1.75 1.8761 1.4819
3308.197 1.195 1.206 1.13 1 0.805 0.98 0.772 0.5 0.731 0.892
3327.487 1.324 1.7544 1.102 0.685 0.97 1.159 1.59562 1.433 1.353 1.052
3346.777 0.52 0.753 0.817 1.122 1.5295 1.9171 1.8803 1.5171 1.426 1.292
3366.066 1.384 1.112 1.159 1.7659 1.62403 1.132 1.252 1.216 0.791 0.945
3385.356 1.316 0.975 1.032 1.169 0.763 0.675 0.795 0.952 0.82 0.52
3404.646 0.958 1.425 1.7399 1.7724 1.402 0.943 1.197 1.159 0.49 1.33
3423.936 1.7292 1.356 1.095 1.215 0.956 0.53 0.985 1.426 1.277 1.042
3443.225 1.5381 1.61346 1.095 0.3 0.4 1.155 1.148 0.947 0.63 0.633
3462.515 0.5 0.5 1.072 0.696 0 0.719 1.153 0.877 0.677 0.741
3481.805 1.079 0.847 0.601 1.033 1.416 1.216 1.4734 2.0246 1.7991 1.281
3501.095 1.189 1.5907 1.354 0.789 0.881 1.365 1.8497 1.7608 1.7475 1.5482
3520.385 1.345 1.44 1.389 1.367 1.344 1.179 1.6388 1.383 0.34 0.732
3539.674 0.817 0.43 0.68 1.018 1.196 0.956 0.948 1.17 1.416 1.6403
3558.964 1.7968 1.5094 1.051 0.988 1.393 1.256 0.72 1.137 1.315 1.071
3578.254 0.963 1.415 1.6892 1.225 0.884 1.009 0.869 0.658 1.115 1.304
3597.544 1.6684 1.397 1.147 1.453 0.76 0.39 0.27 1.003 1.422 0.623
3616.833 1.23 1.6896 1.532 1.352 1.252 1.434 1.36 1.369 1.6734 1.451
3636.123 0.827 1.085 1.383 1.63686 1.8616 1.457 1.4863 1.57879 1.6615 1.62946
3655.413 1.56936 1.5216 1.339 1.59786 1.8311 1.8994 2.1508 2.1741 2.1972 2.3075
3674.703 2.3453 2.3675 2.1175 1.9902 1.8209 1.60222 1.408 1.7227 2.1263 2.2224
3693.993 2.1358 1.8159 1.57831 1.7169 2.2221 2.0174 1.6694 2.0144 2.4037 2.2159
3713.282 1.6852 2.0947 2.57 1.9304 1.456 2.1937 1.8547 1.426 1.544 1.414
3732.572 2.1521 2.416 1.897 1.292 1.377 1.7784 1.64745 1.362 1.8885 2.3842
3751.862 1.77 1.353 1.301 1.359 1.7107 2.0636 1.8341 1.8336 1.8909 1.9094
3771.152 1.8847 1.58782 1.63487 1.4918 1.4942 1.7531 2.2509 2.0411 1.164 1.082
3790.441 1.26 0.989 1.282 1.261 1.57313 1.7988 1.055 1.227 1.293 1.15
3809.731 1.6084 2.1286 2.1399 1.9485 1.5091 1.306 1.60822 1.60932 0.884 0.33
3829.021 0.53 0.979 1.6847 1.9432 1.409 0.906 0.769 0.644 0.651 0.808
3848.311 1.185 1.7317 1.8573 1.6227 1.6693 2.1164 1.8173 1.3 0.881 0.876
3867.601 1.037 0.63 1.013 1.5282 1.15 0.48 0.748 0.901 0.873 1.8582
3886.890 1.8437 1.315 1.062 0.888 1.313 1.4748 0.985 1.084 1.4788 0.55
3906.180 0.38 1.064 1.037 0.725 0.834 1.07 0.6 0.09 0.29 0.55
3925.470 0.44 0.708 1.085 0.92 1.094 1.428 0.967 1.067 1.329 1.209
3944.760 0.746 1.093 1.5647 1.387 1.321 0.752 0.961 1.039 1.098 1.305
3964.049 0.818 0.988 1.06 0.94 1.5222 1.373 0.856 0.729 0.4 0.769
3983.339 1.065 1.073 1.424 1.045 0.744 0.764 0.787 1.25 0.731 0.26
##END=
