##TITLE=p-Nitrophenyl nonyl ether
##JCAMP-DX=4.24
##DATA TYPE=INFRARED SPECTRUM
##ORIGIN=EPA-IR VAPOR PHASE LIBRARY
##OWNER=SRD/NIST
Collection (C) 2018 copyright by the U.S. Secretary of Commerce
on behalf of the United States of America. All rights reserved.
##CAS REGISTRY NO=86702-46-7
##MOLFORM=C 15 H 23 N O 3
##$NIST SOURCE=MSDC-IR
##STATE=gas
##XUNITS=1/CM
##YUNITS=ABSORBANCE
##XFACTOR=1.
##YFACTOR=0.001
##DELTAX=1.92898
##FIRSTX=549.8
##LASTX=4000.7
##FIRSTY=1.1386
##MAXX=4000.7
##MINX=549.759
##MAXY=0.240291
##MINY=0
##NPOINTS=1790
##XYDATA=(X++(Y..Y))
549.759 1.1386 0.9304 0.8414 0.9316 0.85 0.7723 1.1135 1.321 1.261 1.115
569.049 1.201 1.291 1.1377 1.0917 1.1449 1.391 1.471 1.531 1.271 1.1513
588.339 1.491 1.921 1.991 1.641 1.941 2.481 2.791 3.151 3.711 4.601
607.628 5.661 6.521 7.441 8.281 8.781 9.231 9.321 9.051 8.871 8.541
626.918 8.401 8.601 8.761 9.251 9.881 10.391 11.141 12.281 14.021 16.141
646.208 18.561 21.021 22.561 22.541 20.761 17.701 14.071 10.841 8.671 7.461
665.498 6.841 6.461 6.261 6.291 6.641 7.291 8.201 8.941 9.531 10.291
684.787 10.801 10.721 10.361 9.811 9.141 8.581 7.921 7.291 6.951 6.651
704.077 6.341 6.141 6.051 5.891 5.711 5.831 5.901 5.761 5.751 5.841
723.367 5.881 5.851 5.751 5.941 6.371 6.771 7.441 8.431 9.611 11.281
742.657 13.321 15.691 18.261 20.121 20.591 19.701 17.771 15.111 12.561 10.471
761.947 8.691 7.451 6.651 6.091 5.601 4.901 4.441 4.341 4.251 4.071
781.236 3.881 3.921 3.901 3.771 3.621 3.501 3.571 3.671 3.541 3.571
800.526 3.811 4.041 4.041 3.761 3.731 4.011 4.371 4.741 5.341 6.151
819.816 7.151 8.441 10.051 11.781 13.851 16.071 18.301 21.181 24.991 29.761
839.106 35.561 41.791 47.021 50.291 51.351 50.991 51.071 52.571 55.911 59.581
858.395 60.921 58.421 51.881 43.091 34.501 27.471 22.211 18.281 15.311 12.991
877.685 11.291 10.051 8.941 8.091 7.531 7.111 6.831 6.531 6.181 6.111
896.975 6.141 6.161 6.251 6.181 6.101 6.161 6.371 6.801 7.081 7.181
916.265 7.341 7.651 7.961 8.291 8.461 8.441 8.631 8.851 8.901 8.971
935.555 9.031 9.001 9.061 9.091 8.951 8.821 8.611 8.461 8.551 8.561
954.844 8.421 8.491 8.881 9.231 9.681 10.331 10.961 11.661 12.491 13.311
974.134 14.491 15.601 16.501 17.651 18.741 19.531 20.361 21.381 22.261 23.011
993.424 23.911 24.781 25.831 27.021 27.821 28.871 29.971 30.731 31.341 31.901
1012.714 32.991 34.041 34.901 35.981 36.591 36.641 36.561 36.481 36.061 35.411
1032.003 34.581 33.831 33.271 32.771 32.271 31.321 30.201 29.521 28.581 26.901
1051.293 25.571 24.161 22.631 21.321 20.011 19.131 18.661 18.151 17.501 16.871
1070.583 16.121 15.601 15.191 14.431 13.771 13.391 13.421 13.781 13.821 14.151
1089.873 15.001 16.111 17.361 18.811 20.741 23.671 27.571 33.091 40.121 47.691
1109.163 54.511 58.301 57.391 51.551 42.951 33.681 26.001 20.441 16.111 13.161
1128.452 11.251 9.741 8.501 7.961 7.701 7.111 6.961 7.181 7.261 7.741
1147.742 8.481 9.271 10.621 12.531 15.401 19.381 24.971 32.971 43.401 54.771
1167.032 63.421 66.621 63.491 55.211 44.951 36.201 30.031 25.831 22.891 20.891
1186.322 19.521 18.491 17.811 17.211 17.041 17.271 17.751 18.601 19.391 20.701
1205.611 22.951 25.431 27.781 30.671 33.701 36.791 40.481 44.251 48.731 53.671
1224.901 59.411 66.641 74.641 83.191 92.281 102.111 112.911 125.141 139.081 154.701
1244.191 171.791 189.711 207.671 223.711 234.981 239.541 235.751 222.591 201.051 174.941
1263.481 148.191 123.621 103.241 87.231 74.981 65.431 58.071 52.621 48.691 46.151
1282.771 45.231 46.231 48.681 52.891 58.401 63.461 66.411 65.971 62.321 56.871
1302.060 51.501 47.271 44.361 42.681 42.181 43.031 45.261 48.611 52.761 57.031
1321.350 60.631 63.091 64.641 66.161 68.901 74.061 82.371 94.391 110.651 131.381
1340.640 156.581 184.561 211.831 232.591 240.291 231.411 207.471 175.061 142.421 115.121
1359.930 94.351 78.961 67.621 59.241 52.761 47.681 43.491 39.941 36.991 34.591
1379.219 32.701 31.291 30.251 29.411 28.391 26.971 25.081 22.851 20.441 18.241
1398.509 16.391 14.831 13.731 12.861 12.251 11.931 11.661 11.561 11.651 11.781
1417.799 11.911 12.171 12.571 12.911 13.321 13.831 14.541 15.381 16.381 17.451
1437.089 18.501 19.611 20.671 21.771 23.051 24.381 25.911 27.621 29.481 31.451
1456.378 33.541 35.901 38.361 41.111 44.491 48.811 53.731 58.311 61.221 61.851
1475.668 60.081 56.861 53.771 52.141 53.401 58.161 67.011 80.171 97.551 117.211
1494.958 134.851 145.111 143.011 129.141 107.941 86.751 70.061 60.001 55.481 54.591
1514.248 56.351 60.211 65.961 73.181 82.721 93.601 106.011 119.301 132.071 142.471
1533.538 148.701 149.541 144.221 132.871 118.301 103.141 88.621 76.181 66.001 57.761
1552.827 51.331 45.781 41.551 38.041 35.141 33.201 31.951 31.341 31.521 32.681
1572.117 34.721 37.901 42.701 49.251 57.801 68.931 82.661 99.211 117.551 136.201
1591.407 152.581 163.501 166.121 159.431 145.501 128.081 111.171 97.681 88.011 80.611
1610.697 73.861 66.521 58.411 49.541 41.021 33.741 27.611 22.901 19.321 16.541
1629.986 14.311 12.551 11.181 10.121 9.341 8.731 8.191 7.761 7.341 6.991
1649.276 6.611 6.201 5.861 5.521 5.231 5.001 4.761 4.501 4.261 4.011
1668.566 3.701 3.451 3.291 3.121 2.971 2.871 2.701 2.591 2.561 2.571
1687.856 2.581 2.541 2.431 2.321 2.261 2.181 2.111 2.061 1.991 1.951
1707.146 1.971 1.941 1.931 1.901 1.841 1.771 1.781 1.871 1.871 1.891
1726.435 1.931 1.961 1.961 1.891 1.911 2.111 2.211 2.231 2.291 2.381
1745.725 2.531 2.671 2.771 2.881 3.131 3.361 3.451 3.541 3.581 3.491
1765.015 3.331 3.061 2.751 2.481 2.231 2.071 2.021 1.981 1.901 1.871
1784.305 1.831 1.831 1.851 1.821 1.831 1.821 1.811 1.771 1.671 1.621
1803.594 1.671 1.701 1.641 1.581 1.501 1.451 1.471 1.411 1.371 1.371
1822.884 1.291 1.231 1.241 1.181 1.136 1.15 1.1636 1.201 1.201 1.1724
1842.174 1.1081 1.1224 1.241 1.241 1.191 1.281 1.341 1.371 1.471 1.551
1861.464 1.571 1.631 1.721 1.791 1.821 1.881 1.941 2.051 2.181 2.291
1880.754 2.451 2.601 2.721 2.851 2.971 3.061 3.111 3.171 3.221 3.281
1900.043 3.321 3.351 3.351 3.321 3.231 3.091 3.051 2.981 2.821 2.641
1919.333 2.521 2.351 2.201 2.071 1.911 1.811 1.721 1.661 1.651 1.601
1938.623 1.581 1.571 1.521 1.531 1.551 1.581 1.621 1.671 1.691 1.691
1957.913 1.711 1.741 1.821 1.881 1.941 1.961 2.011 2.041 1.981 1.961
1977.202 1.931 1.881 1.851 1.821 1.761 1.731 1.771 1.771 1.751 1.811
1996.492 1.861 1.901 1.981 2.041 2.091 2.161 2.201 2.301 2.401 2.441
2015.782 2.491 2.491 2.381 2.381 2.431 2.381 2.441 2.481 2.431 2.451
2035.072 2.501 2.521 2.521 2.421 2.361 2.441 2.411 2.341 2.311 2.261
2054.362 2.251 2.211 2.131 2.051 2.011 1.981 1.941 1.871 1.791 1.751
2073.651 1.691 1.651 1.591 1.501 1.461 1.461 1.461 1.451 1.441 1.441
2092.941 1.461 1.501 1.461 1.491 1.541 1.501 1.481 1.541 1.631 1.701
2112.231 1.731 1.691 1.671 1.671 1.601 1.521 1.461 1.381 1.351 1.271
2131.521 1.1686 1.1247 1.0576 0.9875 0.9449 0.9036 0.8876 0.9023 0.8901 0.8991
2150.810 0.8969 0.8208 0.7948 0.8151 0.8259 0.846 0.826 0.7983 0.742 0.7108
2170.100 0.7417 0.7735 0.836 0.7824 0.717 0.7341 0.7474 0.7032 0.717 0.7634
2189.390 0.7807 0.8311 0.8707 0.9165 0.9279 0.9002 0.9007 0.9547 0.9542 0.9101
2208.680 0.9974 1.1094 1.0951 1.0673 1.0985 1.1008 1.0951 1.1543 1.181 1.191
2227.970 1.1657 1.0484 0.9756 0.9551 0.9169 0.8561 0.7817 0.8232 0.8411 0.8333
2247.259 0.9142 0.8514 0.7857 0.8464 0.9509 0.9811 0.9253 0.9573 0.9986 1.0229
2266.549 1.0703 1.0414 0.9962 1.0246 1.0593 1.1141 1.1522 1.181 1.221 1.1577
2285.839 1.1265 1.1345 1.1129 1.1103 1.0912 1.0293 1.0013 1.041 1.0668 1.0847
2305.129 1.0721 0.9582 0.9306 1.0019 1.0211 0.9956 0.9468 0.9598 0.9957 1.0015
2324.418 0.9813 0.984 1.021 1.0459 1.0928 1.1085 1.0977 1.1148 1.1175 1.1344
2343.708 1.1409 1.1369 1.241 1.291 1.181 1.1332 1.221 1.241 1.221 1.231
2362.998 1.211 1.201 1.281 1.341 1.371 1.431 1.441 1.481 1.531 1.491
2382.288 1.461 1.481 1.541 1.611 1.581 1.551 1.521 1.581 1.571 1.561
2401.578 1.711 1.731 1.631 1.631 1.681 1.631 1.591 1.591 1.551 1.621
2420.867 1.691 1.671 1.691 1.721 1.741 1.791 1.841 1.901 2.011 2.081
2440.157 2.161 2.281 2.421 2.601 2.791 2.981 3.091 3.151 3.281 3.381
2459.447 3.281 3.201 3.131 2.961 2.801 2.671 2.591 2.481 2.341 2.291
2478.737 2.341 2.291 2.241 2.281 2.331 2.321 2.321 2.361 2.351 2.431
2498.026 2.461 2.401 2.481 2.531 2.481 2.451 2.431 2.351 2.311 2.261
2517.316 2.171 2.151 2.121 2.101 2.121 2.131 2.201 2.321 2.351 2.351
2536.606 2.511 2.631 2.661 2.821 2.871 2.951 2.991 2.951 2.961 2.921
2555.896 2.951 2.931 2.901 2.911 2.951 2.981 2.931 2.921 2.931 3.041
2575.186 3.141 3.181 3.171 3.041 3.001 3.021 3.021 2.991 2.931 2.931
2594.475 2.901 2.861 2.871 2.951 2.971 2.871 2.931 3.001 3.011 3.041
2613.765 2.991 2.911 2.851 2.831 2.771 2.741 2.711 2.741 2.801 2.791
2633.055 2.811 2.821 2.741 2.781 2.831 2.791 2.791 2.791 2.771 2.771
2652.345 2.741 2.701 2.741 2.721 2.691 2.701 2.691 2.761 2.871 2.951
2671.634 2.991 2.951 2.891 3.011 3.051 2.911 2.961 3.051 3.071 3.111
2690.924 3.151 3.181 3.221 3.271 3.261 3.231 3.171 3.191 3.231 3.231
2710.214 3.261 3.231 3.161 3.091 3.061 3.081 3.181 3.251 3.221 3.241
2729.504 3.341 3.391 3.501 3.571 3.641 3.751 3.891 4.031 4.121 4.191
2748.794 4.191 4.171 4.161 4.211 4.211 4.121 4.151 4.231 4.191 4.191
2768.083 4.221 4.221 4.261 4.341 4.391 4.391 4.471 4.621 4.741 4.911
2787.373 5.041 5.111 5.301 5.441 5.591 5.831 6.011 6.151 6.311 6.501
2806.663 6.771 7.171 7.531 7.841 8.261 8.611 9.041 9.611 10.131 10.801
2825.953 11.441 12.091 13.001 13.941 14.931 16.101 17.491 19.081 21.061 23.541
2845.242 26.401 29.721 33.771 38.811 44.651 51.251 58.461 65.501 71.661 76.341
2864.532 79.021 79.661 78.611 76.491 73.791 70.951 68.591 66.681 65.051 63.731
2883.822 62.441 60.881 59.241 57.711 56.521 56.071 56.371 57.251 58.921 61.331
2903.112 64.371 68.191 72.751 78.051 84.131 91.181 99.081 107.931 118.071 129.341
2922.401 141.981 155.751 169.701 182.921 194.241 202.341 206.431 206.501 202.921 196.481
2941.691 187.891 177.851 166.901 155.631 144.561 134.051 124.681 116.911 110.741 106.141
2960.981 103.281 101.401 99.651 97.541 94.171 88.821 81.601 72.991 63.851 55.261
2980.271 47.761 41.371 36.041 31.641 27.921 24.801 22.201 19.921 18.011 16.561
2999.561 15.241 13.981 12.921 11.961 11.191 10.491 9.901 9.351 8.771 8.431
3018.850 8.001 7.531 7.201 6.921 6.681 6.461 6.161 5.851 5.631 5.531
3038.140 5.441 5.291 5.161 5.041 5.001 4.931 4.801 4.821 4.871 4.811
3057.430 4.801 4.801 4.781 4.811 4.971 5.061 5.141 5.281 5.461 5.741
3076.720 6.131 6.601 7.111 7.631 8.231 8.951 9.631 9.951 9.631 8.761
3096.009 7.531 6.181 5.011 4.071 3.411 3.041 2.911 2.741 2.581 2.531
3115.299 2.411 2.251 2.231 2.081 1.811 1.761 1.701 1.581 1.591 1.571
3134.589 1.471 1.511 1.551 1.581 1.581 1.411 1.361 1.381 1.281 1.281
3153.879 1.311 1.321 1.231 1.211 1.211 1.221 1.371 1.331 1.301 1.281
3173.169 1.1779 1.291 1.341 1.261 1.281 1.461 1.431 1.281 1.341 1.371
3192.458 1.381 1.401 1.451 1.481 1.431 1.461 1.551 1.541 1.551 1.541
3211.748 1.411 1.371 1.261 1.1435 1.191 1.1269 0.9764 0.8735 0.8526 0.7903
3231.038 0.6761 0.6837 0.6399 0.515 0.4996 0.5093 0.513 0.5467 0.4946 0.431
3250.328 0.4986 0.4071 0.3519 0.4964 0.4837 0.4589 0.4516 0.3488 0.27663 0.3319
3269.617 0.4396 0.4308 0.4022 0.4858 0.4888 0.4445 0.4498 0.3509 0.3319 0.3525
3288.907 0.4337 0.534 0.507 0.4918 0.4224 0.4089 0.3956 0.3272 0.3532 0.5077
3308.197 0.6222 0.4126 0.3582 0.3419 0.252 0.3874 0.3812 0.3122 0.332 0.4149
3327.487 0.4475 0.3342 0.187984 0.2896 0.3208 0.21771 0.3148 0.3486 0.3256 0.3913
3346.777 0.5258 0.4164 0.3466 0.4963 0.5363 0.546 0.4972 0.4204 0.4223 0.4427
3366.066 0.4178 0.4191 0.5391 0.5791 0.3832 0.3219 0.4211 0.4259 0.4841 0.419
3385.356 0.3501 0.3827 0.4074 0.4891 0.4238 0.25247 0.24435 0.319 0.313 0.19827
3404.646 0.2848 0.4397 0.3424 0.2814 0.2981 0.26936 0.3401 0.2959 0.3245 0.4083
3423.936 0.3967 0.4319 0.3818 0.3206 0.3309 0.4129 0.5467 0.5792 0.3566 0.25837
3443.225 0.3642 0.386 0.3081 0.21457 0.23685 0.2838 0.2882 0.2827 0.22816 0.1363
3462.515 0.1486 0.25413 0.3188 0.315 0.1532 0.039 0.048 0.0964 0.185578 0.1687
3481.805 0.1255 0.1632 0.19509 0.1921 0.1637 0.1911 0.26244 0.3117 0.20613 0.2853
3501.095 0.3058 0.0982 0.0991 0.1236 0.17109 0.26017 0.3204 0.3067 0.24499 0.25751
3520.385 0.2824 0.1549 0 0.169 0.27985 0.185582 0.1678 0.23041 0.312 0.3541
3539.674 0.3074 0.3 0.3439 0.2881 0.3458 0.45 0.3283 0.21912 0.27459 0.3215
3558.964 0.23377 0.23246 0.22965 0.036 0.039 0.1608 0.24902 0.3096 0.3914 0.4204
3578.254 0.3871 0.3706 0.25211 0.25456 0.26932 0.1679 0.17109 0.22575 0.3436 0.382
3597.544 0.3215 0.4105 0.4304 0.17847 0.009 0.1168 0.3511 0.3928 0.3159 0.4683
3616.833 0.5522 0.4338 0.4357 0.5501 0.5629 0.385 0.2894 0.4935 0.5393 0.4837
3636.123 0.5625 0.6251 0.654 0.5766 0.5621 0.4708 0.2958 0.2971 0.3744 0.3804
3655.413 0.3052 0.25718 0.3722 0.502 0.479 0.557 0.5596 0.4811 0.5972 0.6134
3674.703 0.4699 0.4752 0.6492 0.7262 0.6204 0.5553 0.5707 0.5705 0.6125 0.6345
3693.993 0.6394 0.6396 0.7063 0.7248 0.4763 0.4869 0.674 0.6002 0.5391 0.6624
3713.282 0.8221 0.8118 0.6557 0.7012 0.7055 0.618 0.6157 0.6218 0.663 0.6685
3732.572 0.6237 0.4845 0.4859 0.5758 0.5528 0.5275 0.3964 0.4697 0.6645 0.5883
3751.862 0.5565 0.6128 0.6013 0.5822 0.4716 0.4588 0.5474 0.5949 0.5497 0.4333
3771.152 0.5821 0.5771 0.4895 0.5097 0.5257 0.7312 0.7825 0.6822 0.6385 0.6592
3790.441 0.5967 0.5747 0.5423 0.3462 0.4132 0.5418 0.5761 0.6061 0.5419 0.4064
3809.731 0.4172 0.5254 0.6313 0.6955 0.6255 0.6369 0.6282 0.5284 0.4797 0.4306
3829.021 0.4022 0.5077 0.5349 0.5179 0.5784 0.6773 0.6755 0.5914 0.5394 0.6485
3848.311 0.7855 0.8872 0.9287 0.8238 0.778 0.729 0.7483 0.6253 0.5335 0.6081
3867.601 0.6921 0.6622 0.7139 0.7861 0.8031 0.7954 0.6619 0.753 0.8372 0.663
3886.890 0.6004 0.6418 0.6642 0.7442 0.7266 0.688 0.709 0.741 0.7882 0.9214
3906.180 0.9307 0.7706 0.7616 0.8112 0.7541 0.5552 0.5422 0.8222 0.8774 0.8954
3925.470 0.9578 0.98 0.9452 0.8243 0.776 0.8466 0.8335 0.802 0.8002 0.8474
3944.760 0.8288 0.6489 0.6761 0.7485 0.8753 0.8543 0.7925 0.8623 0.9634 0.8058
3964.049 0.6218 0.7718 0.8501 0.8342 0.7647 0.8212 0.8847 0.8404 0.8625 0.929
3983.339 0.9215 0.8739 0.7818 0.8808 1.0837 0.9842 0.9012 1.0478 1.0048 0.9474
##END=
