##TITLE=3,4-Diethyl-3-hexene
##JCAMP-DX=4.24
##DATA TYPE=INFRARED SPECTRUM
##ORIGIN=NIST Mass Spectrometry Data Center
##OWNER=NIST Standard Reference Data Program
Collection (C) 2018 copyright by the U.S. Secretary of Commerce
on behalf of the United States of America. All rights reserved.
##CAS REGISTRY NO=868-46-2
##MOLFORM=C 10 H 20
##$NIST SOURCE=MSDC-IR
##SPECTROMETER/DATA SYSTEM=HP-GC/MS/IRD
##STATE=gas
##XUNITS=1/CM
##YUNITS=ABSORBANCE
##XFACTOR=1.0
##YFACTOR=0.000003500
##DELTAX=4.0
##FIRSTX=550.0
##LASTX=3846.0
##FIRSTY=0.000682
##MAXX=3846
##MINX=550
##MAXY=0.035
##MINY=0
##NPOINTS=825
##XYDATA=(X++(Y..Y))
550.0 195 127 80 87 85 60 60 86 89 62
590.0 50 48 55 55 65 82 87 83 79 88
630.0 81 65 71 74 55 43 38 40 45 32
670.0 22 31 20 9 15 6 15 33 34 21
710.0 13 16 11 8 7 12 27 32 32 36
750.0 38 48 69 87 93 103 106 97 99 107
790.0 121 143 167 209 288 383 470 562 637 650
830.0 610 540 452 368 291 230 198 183 181 196
870.0 212 225 227 206 180 153 132 140 168 207
910.0 257 293 316 317 293 256 221 200 198 204
950.0 200 184 163 142 127 109 94 78 62 61
990.0 66 63 61 73 85 91 104 111 122 143
1030.0 148 153 158 150 142 141 138 141 143 135
1070.0 122 112 107 109 117 128 135 146 156 166
1110.0 166 158 136 104 97 94 80 70 67 68
1150.0 67 60 41 37 38 41 41 38 42 51
1190.0 56 50 51 56 56 57 53 42 39 54
1230.0 70 76 85 101 113 123 143 160 171 178
1270.0 177 173 164 164 171 171 183 203 216 224
1310.0 229 225 222 226 225 226 229 225 224 224
1350.0 223 233 263 312 386 497 616 731 788 743
1390.0 641 517 401 324 290 281 278 285 305 333
1430.0 372 432 513 630 789 983 1185 1360 1454 1443
1470.0 1310 1093 869 662 500 389 324 277 245 224
1510.0 211 202 192 181 168 159 149 140 137 134
1550.0 122 114 102 88 89 90 86 83 85 81
1590.0 76 78 76 74 74 75 76 78 83 80
1630.0 80 88 95 97 92 90 89 81 71 61
1670.0 54 44 38 36 32 34 34 30 29 28
1710.0 21 21 25 23 19 18 20 20 18 18
1750.0 17 13 12 12 11 12 12 13 16 19
1790.0 21 18 20 20 21 23 20 22 25 30
1830.0 34 36 37 37 41 45 48 47 39 32
1870.0 30 25 24 24 20 18 18 19 14 7
1910.0 9 9 5 4 4 1 0 2 5 5
1950.0 6 11 6 2 6 5 2 1 1 3
1990.0 4 4 3 2 3 6 6 6 10 10
2030.0 12 15 13 13 11 5 5 6 6 10
2070.0 9 9 13 14 13 12 12 8 5 9
2110.0 10 10 10 8 13 13 13 12 16 18
2150.0 12 10 8 12 15 10 6 7 11 13
2190.0 8 7 12 12 12 11 8 9 9 7
2230.0 13 13 10 6 9 14 12 6 6 11
2270.0 13 12 11 13 14 14 14 16 20 22
2310.0 19 15 18 20 18 16 16 23 27 29
2350.0 29 23 21 26 25 25 26 27 24 24
2390.0 28 27 31 37 35 34 31 31 28 24
2430.0 23 23 21 20 18 15 14 19 18 17
2470.0 19 20 21 21 24 19 17 16 11 15
2510.0 23 22 20 18 22 21 22 21 22 29
2550.0 32 35 37 36 37 43 51 48 40 37
2590.0 41 45 45 47 46 47 47 46 46 48
2630.0 50 51 54 59 63 66 66 69 72 72
2670.0 70 74 77 79 83 79 80 90 101 109
2710.0 116 126 141 155 168 185 208 224 229 224
2750.0 215 214 208 202 202 212 226 237 250 272
2790.0 292 306 321 341 358 376 399 437 482 539
2830.0 617 701 798 911 1055 1256 1543 1936 2419 2996
2870.0 3632 4209 4610 4825 4764 4514 4229 3963 3838 3880
2910.0 4077 4457 5040 5798 6651 7460 8006 8169 7958 7499
2950.0 7170 7301 7967 9021 9876 10000 9172 7597 5849 4340
2990.0 3290 2640 2246 1995 1808 1654 1518 1405 1302 1211
3030.0 1137 1068 1005 933 864 805 746 687 625 558
3070.0 498 450 406 367 340 316 297 288 275 257
3110.0 243 230 222 211 206 205 198 191 183 171
3150.0 160 155 147 134 127 120 115 108 94 86
3190.0 82 81 76 73 71 60 56 53 50 49
3230.0 42 34 32 34 35 40 39 29 26 21
3270.0 20 26 22 27 31 23 21 17 17 18
3310.0 13 19 20 17 17 15 11 7 6 8
3350.0 9 8 10 13 12 17 20 18 17 12
3390.0 7 10 12 17 20 18 15 6 7 14
3430.0 15 14 11 9 12 7 7 17 17 8
3470.0 12 22 21 18 21 24 17 11 17 19
3510.0 20 21 14 16 19 12 23 24 14 18
3550.0 22 21 21 18 17 21 24 22 17 19
3590.0 19 17 24 19 18 19 19 21 20 18
3630.0 24 30 21 18 26 28 24 25 17 17
3670.0 21 24 23 21 28 27 34 38 29 29
3710.0 28 31 39 34 28 39 40 28 27 24
3750.0 32 42 39 32 33 33 22 26 37 34
3790.0 31 33 35 33 31 31 32 32 28 33
3830.0 36 33 30 27 34
##END=
