##TITLE=3,3'-Bis(trifluoromethyl)diphenylmethane
##JCAMP-DX=4.24
##DATA TYPE=INFRARED SPECTRUM
##ORIGIN=EPA-IR VAPOR PHASE LIBRARY
##OWNER=SRD/NIST
Collection (C) 2018 copyright by the U.S. Secretary of Commerce
on behalf of the United States of America. All rights reserved.
##CAS REGISTRY NO=86845-35-4
##MOLFORM=C 15 H 10 F 6
##$NIST SOURCE=MSDC-IR
##STATE=gas
##XUNITS=1/CM
##YUNITS=ABSORBANCE
##XFACTOR=1.
##YFACTOR=0.001
##DELTAX=1.92934
##FIRSTX=549.9
##LASTX=3999.5
##FIRSTY=7.25
##MAXX=3999.53
##MINX=549.863
##MAXY=0.64275
##MINY=0
##NPOINTS=1789
##XYDATA=(X++(Y..Y))
549.863 7.25 9.03 11.13 12.87 13.77 13.78 12.91 11.58 10.31 9.28
569.156 8.63 8.07 7.58 7.29 7.18 7.28 7.29 7.21 7.14 6.91
588.450 6.56 6.33 6.11 5.71 5.33 5.11 4.82 4.44 4.13 3.85
607.743 3.77 3.59 3.42 3.44 3.38 3.32 3.3 3.29 3.3 3.32
627.037 3.33 3.43 3.57 3.77 3.92 4.11 4.54 5.18 6.1 7.59
646.330 9.74 12.53 15.89 20.25 27.26 37.64 47.44 52.3 51.94 44.48
665.624 32.49 23.6 19.61 18.27 17.88 17.73 17.51 17.36 17.11 16.98
684.917 17.54 19.01 21.97 27.06 34.74 45.11 57.63 70.62 81.33 86.73
704.210 85.27 77.62 66.03 53.3 41.48 31.57 23.81 18.17 14.17 11.37
723.504 9.48 8.34 7.7 7.26 7.17 7.38 7.77 8.54 9.69 11.35
742.797 13.93 17.38 20.78 22.88 23.26 21.9 19 15.74 13.29 11.77
762.091 10.8 10.2 10.02 10.19 10.74 11.77 13.2 15.06 17.47 20.51
781.384 24.42 29.25 34.81 40.73 46.27 50.65 53.27 53.82 52.15 48.52
800.678 43.47 37.6 31.45 25.61 20.58 16.46 13.2 10.69 8.9 7.55
819.971 6.46 5.7 5.24 4.84 4.6 4.58 4.49 4.4 4.44 4.53
839.264 4.62 4.74 4.95 5.17 5.53 5.99 6.44 6.97 7.44 7.89
858.558 8.38 8.87 9.31 9.91 10.62 11.48 12.41 13.06 13.51 13.94
877.851 14.48 15.32 16.72 18.87 21.89 25.9 30.64 35.56 39.78 42.27
897.145 42.41 40.59 37.53 34.38 32.6 32.4 32.91 33.16 32.59 31
916.438 28.37 25.22 22.17 19.5 17.49 16.1 15.18 14.74 14.67 14.74
935.732 14.78 14.62 14.18 13.51 12.63 11.6 10.49 9.42 8.49 7.65
955.025 6.98 6.44 6.01 5.7 5.47 5.35 5.28 5.24 5.28 5.38
974.318 5.52 5.66 5.76 5.8 5.84 5.89 5.93 6.02 6.14 6.29
993.612 6.57 6.92 7.26 7.61 7.92 8.09 8.05 7.85 7.55 7.19
1012.905 6.81 6.57 6.41 6.28 6.28 6.32 6.33 6.42 6.58 6.7
1032.199 6.85 7.14 7.54 8.01 8.58 9.31 10.23 11.32 12.63 14.29
1051.492 16.31 18.82 21.91 25.84 30.87 37.48 46.4 58.23 73.62 92.84
1070.786 115.32 138.95 159.51 172.54 175.53 167.3 150.21 131.01 115.66 106.36
1090.079 102.01 99.37 95.34 88.23 77.95 66.25 55.51 47.61 43.1 41.25
1109.372 41.32 42.73 45.26 49 54.02 60.87 70.07 82.33 98.63 120.16
1128.666 147.93 183.27 227.84 282.19 346.26 418.59 494.57 565.79 619.58 642.75
1147.959 627.68 578.77 510.08 438.78 377.82 333.7 308.99 303.64 315.79 342.08
1167.253 376.75 411.98 441.35 463.36 478.27 483.43 473.15 443.08 395.8 339.92
1186.546 286.49 243.29 211.24 187.71 169.24 153.19 138.24 123.54 108.68 94.31
1205.840 81.15 69.79 60.67 53.24 47.42 42.92 39.51 36.82 34.75 33.28
1225.133 31.76 30.36 29.22 28.37 28 27.66 27.33 27.15 27.24 27.57
1244.426 28.28 29.52 31.11 33.04 35.35 37.98 40.55 42.71 43.85 43.68
1263.720 42.56 40.75 38.83 37.1 35.75 35.06 35.03 35.6 36.73 38.55
1283.013 41.13 44.63 49.18 54.99 62.24 71.05 81.57 93.89 108.07 124.09
1302.307 141.83 161.38 182.75 205.95 231.24 258.53 288.08 321.41 360.48 406.56
1321.600 458.77 513.3 563.13 600.12 616.85 607.91 570.68 506.32 421.67 329.44
1340.894 243.75 174.53 124.19 90.08 67.51 52.47 42.22 34.98 29.74 25.78
1360.187 22.62 20.02 17.79 15.95 14.4 13.07 11.99 11.02 10.24 9.68
1379.480 9.19 8.81 8.54 8.34 8.21 8.22 8.37 8.64 9.09 9.68
1398.774 10.44 11.36 12.45 13.77 15.13 16.36 17.17 17.48 17.3 16.78
1418.067 16.24 15.99 16.24 17 18.3 20.14 22.53 25.49 29.22 33.87
1437.361 39.9 47.34 56.04 65.03 72.1 74.77 71.58 63.11 51.5 39.97
1456.654 30.32 23.23 18.5 15.31 13.12 11.63 10.63 9.98 9.64 9.49
1475.948 9.57 9.9 10.48 11.3 12.4 13.9 15.71 17.54 18.92 19.28
1495.241 18.39 16.42 13.9 11.46 9.4 7.76 6.51 5.6 4.9 4.34
1514.534 3.91 3.61 3.34 3.1091 2.9646 2.9281 2.8931 2.8008 2.7837 2.7924
1533.828 2.7943 2.8084 2.8745 2.9536 3.0025 3.0831 3.182 3.31 3.47 3.62
1553.121 3.8 4.03 4.16 4.32 4.49 4.62 4.73 4.85 5.02 5.19
1572.415 5.45 5.8 6.22 6.72 7.34 8.11 9.12 10.36 11.72 13.14
1591.708 14.43 15.25 15.38 14.75 13.61 12.33 11.25 10.5 10.19 10.19
1611.002 10.24 10.16 9.8 9.2 8.51 7.74 6.93 6.29 5.73 5.28
1630.295 4.96 4.71 4.54 4.44 4.4 4.35 4.35 4.37 4.42 4.43
1649.588 4.49 4.64 4.79 4.97 5.14 5.33 5.53 5.66 5.79 5.94
1668.882 6.05 6.09 6.08 6 5.8 5.52 5.18 4.77 4.36 4.06
1688.175 3.84 3.69 3.55 3.47 3.53 3.65 3.83 4.1 4.41 4.67
1707.469 4.92 5.15 5.28 5.35 5.31 5.17 4.97 4.77 4.57 4.36
1726.762 4.17 3.95 3.78 3.7 3.62 3.53 3.51 3.5 3.47 3.48
1746.056 3.56 3.67 3.75 3.84 3.9 3.96 4.06 4.14 4.18 4.21
1765.349 4.29 4.29 4.27 4.2 4.17 4.18 4.2 4.17 4.11 4.09
1784.642 4.04 4.01 4.03 4.02 4.01 4.04 4 3.99 3.98 3.9
1803.936 3.87 3.8 3.7 3.64 3.58 3.5 3.45 3.5 3.52 3.56
1823.229 3.63 3.7 3.8 3.88 3.93 3.96 3.96 3.9 3.79 3.68
1842.523 3.59 3.51 3.46 3.38 3.23 3.1283 3.0376 2.9655 2.8733 2.806
1861.816 2.7636 2.7179 2.6945 2.6746 2.7446 2.8749 3.074 3.31 3.6 4.05
1881.110 4.62 5.19 5.78 6.29 6.63 6.72 6.48 6 5.37 4.73
1900.403 4.17 3.69 3.3 3.0022 2.8286 2.7233 2.6636 2.605 2.5531 2.5465
1919.696 2.5334 2.5369 2.5461 2.5439 2.5902 2.6773 2.7985 2.9703 3.1707 3.41
1938.990 3.7 4.05 4.41 4.69 4.87 4.9 4.78 4.53 4.14 3.62
1958.283 3.1273 2.7139 2.3316 2.094 1.955 1.833 1.735 1.671 1.662 1.645
1977.577 1.622 1.605 1.607 1.614 1.625 1.593 1.56 1.564 1.53 1.533
1996.870 1.568 1.57 1.544 1.534 1.522 1.54 1.55 1.544 1.55 1.566
2016.164 1.571 1.587 1.613 1.631 1.617 1.647 1.686 1.678 1.67 1.648
2035.457 1.638 1.622 1.64 1.682 1.704 1.719 1.712 1.727 1.753 1.766
2054.750 1.835 1.888 1.927 1.985 2.036 2.112 2.1943 2.25164 2.29351 2.3659
2074.044 2.434 2.494 2.5354 2.4735 2.3692 2.25946 2.095 1.921 1.738 1.584
2093.337 1.496 1.415 1.336 1.302 1.289 1.253 1.21 1.18 1.17 1.16
2112.631 1.14 1.15 1.15 1.16 1.2 1.2 1.19 1.17 1.16 1.18
2131.924 1.17 1.18 1.2 1.19 1.19 1.21 1.241 1.258 1.274 1.283
2151.218 1.278 1.287 1.316 1.333 1.322 1.313 1.337 1.345 1.317 1.306
2170.511 1.323 1.327 1.331 1.382 1.437 1.474 1.499 1.508 1.52 1.528
2189.804 1.538 1.591 1.628 1.662 1.714 1.709 1.711 1.753 1.801 1.855
2209.098 1.891 1.957 2.057 2.103 2.1229 2.1631 2.2068 2.22355 2.2014 2.1325
2228.391 2.116 2.119 2.054 2.033 2.029 2.037 2.081 2.117 2.1234 2.1359
2247.685 2.21023 2.27106 2.30136 2.3659 2.396 2.4086 2.4694 2.4974 2.5631 2.6302
2266.978 2.6315 2.6764 2.7291 2.7396 2.7021 2.6741 2.6737 2.6752 2.628 2.54
2286.272 2.4564 2.3623 2.29003 2.24248 2.1985 2.1406 2.102 2.107 2.108 2.057
2305.565 2.054 2.095 2.093 2.101 2.098 2.096 2.112 2.1334 2.1213 2.097
2324.858 2.1298 2.1576 2.1711 2.2073 2.27889 2.31212 2.3448 2.418 2.4728 2.514
2344.152 2.5082 2.5142 2.5198 2.4475 2.3823 2.29141 2.2088 2.1291 2.017 1.955
2363.445 1.877 1.812 1.778 1.72 1.674 1.642 1.6 1.588 1.605 1.568
2382.739 1.51 1.485 1.456 1.468 1.464 1.423 1.358 1.322 1.31 1.294
2402.032 1.279 1.278 1.281 1.264 1.261 1.274 1.287 1.284 1.246 1.18
2421.326 1.13 1.14 1.1 1.03 1.01 1 0.99 0.94 0.91 0.95
2440.619 0.94 0.92 0.92 0.98 1.01 1.02 1.08 1.08 1.07 1.12
2459.912 1.14 1.19 1.223 1.229 1.274 1.33 1.358 1.415 1.45 1.413
2479.206 1.424 1.424 1.398 1.395 1.38 1.366 1.359 1.332 1.335 1.364
2498.499 1.396 1.388 1.393 1.429 1.395 1.349 1.329 1.264 1.18 1.1
2517.793 1.03 0.97 0.92 0.9 0.84 0.82 0.83 0.78 0.76 0.76
2537.086 0.77 0.75 0.71 0.65 0.63 0.62 0.63 0.65 0.63 0.68
2556.380 0.66 0.59 0.61 0.63 0.63 0.64 0.64 0.62 0.62 0.62
2575.673 0.66 0.69 0.68 0.67 0.69 0.71 0.74 0.78 0.81 0.8
2594.966 0.82 0.86 0.82 0.82 0.89 0.89 0.87 0.86 0.9 0.95
2614.260 0.94 0.88 0.91 0.97 0.98 0.95 0.95 1 1.02 1.04
2633.553 1.16 1.23 1.221 1.231 1.29 1.343 1.341 1.315 1.33 1.338
2652.847 1.256 1.223 1.247 1.18 1.07 0.99 0.88 0.77 0.67 0.58
2672.140 0.52 0.37 0.3 0.32 0.23 0.19 0.17 0.16 0.17 0.16
2691.434 0.12 0.07 0.06 0.05 0 0.04 0.13 0.17 0.18 0.14
2710.727 0.1 0.1 0.07 0.09 0.18 0.14 0.1 0.12 0.19 0.27
2730.020 0.25 0.29 0.28 0.2 0.24 0.36 0.43 0.41 0.36 0.35
2749.314 0.41 0.44 0.42 0.42 0.46 0.48 0.47 0.45 0.44 0.43
2768.607 0.48 0.49 0.48 0.53 0.57 0.47 0.35 0.37 0.38 0.36
2787.901 0.28 0.23 0.24 0.21 0.2 0.17 0.17 0.14 0.14 0.17
2807.194 0.14 0.15 0.17 0.18 0.16 0.16 0.24 0.27 0.23 0.27
2826.488 0.38 0.44 0.44 0.52 0.73 0.98 1.21 1.43 1.68 2.03
2845.781 2.4359 2.7473 3.0302 3.35 3.61 3.81 3.86 3.73 3.55 3.32
2865.074 3.0505 2.8664 2.7057 2.4441 2.1851 2.03 1.821 1.654 1.752 1.803
2884.368 1.786 1.76 1.728 1.886 2.006 2.084 2.3429 2.7118 3.1092 3.58
2903.661 4.06 4.73 5.58 6.53 7.62 8.77 9.97 11.2 12.29 13.24
2922.955 13.94 14.36 14.54 14.43 14.15 13.8 13.26 12.67 12 11.19
2942.248 10.35 9.53 8.67 7.87 7.16 6.35 5.69 5.09 4.48 3.94
2961.542 3.49 3.0823 2.6592 2.31628 2.08 1.936 1.772 1.633 1.48 1.262
2980.835 1.17 1.16 1.13 1.05 1 1 1.11 1.294 1.313 1.362
3000.128 1.486 1.711 1.982 2.3883 2.9215 3.46 4.1 4.68 5.39 6.15
3019.422 6.78 7.35 7.67 7.84 7.91 7.84 8 8.28 8.79 9.57
3038.715 10.55 11.82 13.04 14.13 15.1 15.58 15.74 15.74 15.44 14.99
3058.009 14.67 14.53 14.68 14.93 15.16 15.39 15.6 15.77 15.73 15.63
3077.302 15.59 15.38 14.97 14.32 13.54 12.59 11.39 10.13 8.81 7.55
3096.596 6.5 5.6 4.93 4.55 4.31 4.1 3.87 3.83 3.85 3.83
3115.889 3.76 3.5 3.0691 2.7757 2.5096 2.01 1.679 1.499 1.232 0.97
3135.182 0.76 0.65 0.61 0.52 0.33 0.28 0.29 0.32 0.31 0.22
3154.476 0.19 0.19 0.17 0.09 0.12 0.25 0.24 0.16 0.13 0.17
3173.769 0.17 0.22 0.29 0.29 0.34 0.37 0.33 0.32 0.48 0.55
3193.063 0.54 0.47 0.38 0.43 0.42 0.36 0.43 0.56 0.61 0.66
3212.356 0.7 0.71 0.74 0.67 0.65 0.68 0.62 0.56 0.55 0.62
3231.650 0.44 0.37 0.5 0.36 0.28 0.39 0.44 0.46 0.37 0.32
3250.943 0.49 0.59 0.54 0.51 0.51 0.57 0.58 0.51 0.49 0.54
3270.236 0.69 0.68 0.56 0.52 0.53 0.56 0.62 0.72 0.74 0.76
3289.530 0.61 0.47 0.49 0.51 0.63 0.71 0.7 0.77 0.92 0.95
3308.823 0.72 0.54 0.6 0.73 0.75 0.73 0.74 0.81 0.9 0.91
3328.117 0.84 0.79 0.86 0.93 0.81 0.81 1.01 1.05 0.99 1.02
3347.410 1.03 0.93 0.96 1.04 1.02 0.97 0.84 0.79 1.03 1.19
3366.704 1.11 1.09 1.15 1.2 1.284 1.22 1.05 1.03 1.15 1.352
3385.997 1.306 1.17 1.19 1.22 1.26 1.259 1.17 1.227 1.319 1.382
3405.290 1.301 1.16 1.17 1.278 1.365 1.335 1.17 1.08 1.17 1.222
3424.584 1.297 1.291 1.334 1.391 1.396 1.412 1.366 1.39 1.329 1.308
3443.877 1.381 1.276 1.359 1.438 1.378 1.377 1.406 1.449 1.479 1.386
3463.171 1.21 1.259 1.364 1.366 1.288 1.313 1.35 1.334 1.398 1.392
3482.464 1.423 1.336 1.313 1.41 1.326 1.454 1.661 1.65 1.544 1.408
3501.758 1.392 1.523 1.616 1.61 1.513 1.471 1.533 1.551 1.522 1.568
3521.051 1.537 1.484 1.499 1.493 1.513 1.508 1.564 1.542 1.453 1.455
3540.344 1.51 1.621 1.658 1.503 1.437 1.509 1.48 1.492 1.599 1.761
3559.638 1.718 1.646 1.768 1.771 1.543 1.389 1.407 1.444 1.523 1.53
3578.931 1.572 1.569 1.421 1.405 1.519 1.645 1.639 1.594 1.623 1.66
3598.225 1.742 1.77 1.731 1.756 1.748 1.632 1.687 1.791 1.687 1.558
3617.518 1.561 1.656 1.695 1.62 1.61 1.667 1.629 1.598 1.622 1.643
3636.812 1.705 1.747 1.643 1.596 1.654 1.586 1.539 1.594 1.613 1.672
3656.105 1.689 1.703 1.721 1.655 1.654 1.707 1.775 1.774 1.762 1.693
3675.398 1.554 1.603 1.727 1.691 1.748 1.86 1.836 1.793 1.884 1.882
3694.692 1.817 1.869 1.913 1.879 1.886 1.858 1.868 1.896 1.868 1.841
3713.985 1.781 1.769 1.791 1.763 1.785 1.874 1.794 1.659 1.633 1.688
3733.279 1.658 1.662 1.743 1.778 1.776 1.702 1.671 1.711 1.714 1.675
3752.572 1.674 1.647 1.611 1.617 1.578 1.611 1.678 1.705 1.743 1.754
3771.866 1.731 1.775 1.789 1.741 1.68 1.699 1.789 1.788 1.76 1.812
3791.159 1.777 1.655 1.684 1.734 1.689 1.586 1.591 1.585 1.522 1.606
3810.452 1.667 1.749 1.779 1.684 1.697 1.664 1.639 1.723 1.691 1.655
3829.746 1.574 1.432 1.405 1.551 1.597 1.537 1.531 1.543 1.541 1.525
3849.039 1.488 1.395 1.377 1.41 1.507 1.582 1.596 1.523 1.405 1.384
3868.333 1.462 1.565 1.568 1.538 1.528 1.502 1.429 1.318 1.381 1.487
3887.626 1.485 1.466 1.412 1.413 1.545 1.524 1.39 1.469 1.431 1.383
3906.920 1.476 1.438 1.357 1.357 1.443 1.457 1.471 1.482 1.483 1.561
3926.213 1.56 1.562 1.584 1.493 1.476 1.452 1.472 1.57 1.534 1.482
3945.506 1.46 1.464 1.421 1.481 1.544 1.486 1.475 1.542 1.587 1.533
3964.800 1.57 1.469 1.382 1.519 1.507 1.508 1.624 1.604 1.517 1.587
3984.093 1.571 1.388 1.388 1.441 1.412 1.472 1.465 1.345 1.269
##END=
