##TITLE=Allylidene
##JCAMP-DX=4.24
##DATA TYPE=INFRARED SPECTRUM
##ORIGIN=NIST Mass Spectrometry Data Center
##OWNER=NIST Standard Reference Data Program
Collection (C) 2018 copyright by the U.S. Secretary of Commerce
on behalf of the United States of America. All rights reserved.
##CAS REGISTRY NO=869-29-4
##MOLFORM=C 7 H 10 O 4
##$NIST SOURCE=MSDC-IR
##SPECTROMETER/DATA SYSTEM=HP-GC/MS/IRD
##STATE=gas
##XUNITS=1/CM
##YUNITS=ABSORBANCE
##XFACTOR=1.0
##YFACTOR=0.000004900
##DELTAX=4.0
##FIRSTX=550.0
##LASTX=3846.0
##FIRSTY=0.000676
##MAXX=3846
##MINX=550
##MAXY=0.049
##MINY=0
##NPOINTS=825
##XYDATA=(X++(Y..Y))
550.0 138 87 59 90 80 49 58 88 119 167
590.0 247 335 423 470 468 438 407 382 345 306
630.0 273 255 240 220 201 190 188 175 145 126
670.0 118 113 97 96 115 117 104 108 104 80
710.0 67 62 58 50 39 26 31 35 22 18
750.0 22 25 12 8 19 22 19 18 19 29
790.0 34 36 46 47 56 65 72 81 80 80
830.0 85 84 99 121 137 154 167 187 208 245
870.0 286 326 378 428 462 478 495 521 560 623
910.0 718 849 1012 1203 1438 1698 1990 2271 2490 2655
950.0 2813 2995 3251 3650 4180 4766 5301 5677 5836 5818
990.0 5735 5739 5880 6032 6039 5808 5338 4717 4111 3642
1030.0 3334 3156 3089 3081 3087 3085 3058 3002 2942 2893
1070.0 2858 2835 2793 2708 2564 2362 2127 1887 1675 1514
1110.0 1418 1384 1407 1467 1544 1613 1651 1628 1548 1436
1150.0 1322 1233 1218 1284 1435 1709 2150 2826 3828 5211
1190.0 6877 8509 9654 10000 9540 8524 7406 6638 6392 6532
1230.0 6785 6902 6726 6193 5375 4419 3494 2689 2026 1519
1270.0 1158 921 773 677 606 558 526 493 457 433
1310.0 411 397 393 400 415 433 455 493 558 664
1350.0 825 1056 1367 1787 2291 2753 3012 2957 2576 1985
1390.0 1403 988 756 648 615 632 670 708 735 747
1430.0 737 702 651 582 506 437 378 332 305 286
1470.0 266 253 245 240 235 227 223 221 216 210
1510.0 211 215 214 215 214 216 220 216 209 204
1550.0 201 199 195 192 191 188 182 175 168 165
1590.0 161 158 157 155 159 168 169 170 178 186
1630.0 190 195 205 213 223 236 240 233 226 217
1670.0 204 193 192 196 207 225 245 273 314 352
1710.0 389 436 500 584 686 805 930 1064 1218 1427
1750.0 1739 2213 2915 3904 5169 6603 7962 8987 9342 8633
1790.0 7182 5587 4101 2927 2154 1677 1372 1166 1012 896
1830.0 806 730 656 584 515 448 387 340 304 273
1870.0 256 247 240 229 219 207 191 169 151 136
1910.0 127 121 112 108 107 104 102 97 96 98
1950.0 92 87 88 86 84 84 87 86 85 85
1990.0 82 80 84 85 87 85 78 76 73 75
2030.0 74 69 67 69 75 78 80 81 79 79
2070.0 81 85 91 95 96 95 94 95 96 96
2110.0 96 95 93 87 80 74 71 67 64 63
2150.0 59 58 59 55 51 53 53 48 46 40
2190.0 37 40 39 38 38 39 41 40 39 36
2230.0 32 33 32 32 37 38 36 36 32 29
2270.0 33 36 33 33 34 30 30 33 33 26
2310.0 19 17 18 20 18 21 23 25 28 25
2350.0 27 31 28 27 29 30 26 26 31 30
2390.0 27 25 26 29 33 33 31 32 36 36
2430.0 33 31 31 28 27 24 24 25 23 19
2470.0 19 18 19 19 17 20 20 19 17 11
2510.0 10 7 10 17 17 14 11 19 20 18
2550.0 20 17 23 25 20 21 22 18 12 12
2590.0 17 26 28 22 19 22 21 16 15 18
2630.0 22 20 15 20 24 24 23 24 23 28
2670.0 27 31 37 32 32 36 37 34 29 31
2710.0 34 36 32 33 36 34 39 44 39 32
2750.0 34 34 39 44 40 36 38 41 42 46
2790.0 45 41 43 45 38 37 38 35 37 36
2830.0 37 40 42 44 47 46 46 51 50 52
2870.0 50 41 35 42 50 46 43 47 50 50
2910.0 51 51 50 58 67 78 103 133 161 188
2950.0 206 206 203 195 183 182 190 209 223 228
2990.0 236 255 269 274 275 272 262 245 235 234
3030.0 242 256 259 250 231 211 194 171 155 149
3070.0 147 150 159 167 187 221 261 293 299 290
3110.0 258 200 144 109 87 67 56 48 50 52
3150.0 48 46 43 36 31 29 29 28 28 28
3190.0 26 21 23 25 19 20 21 17 24 26
3230.0 21 18 18 23 27 24 16 11 12 10
3270.0 7 9 12 13 23 28 24 22 10 5
3310.0 5 8 13 13 13 16 18 19 17 8
3350.0 11 11 2 0 10 19 15 11 18 10
3390.0 11 20 12 14 14 5 1 3 4 13
3430.0 19 18 20 17 13 10 12 12 19 20
3470.0 16 12 11 20 26 27 30 37 53 61
3510.0 54 52 69 89 108 109 95 89 83 80
3550.0 79 73 71 66 59 48 39 41 45 38
3590.0 26 26 30 27 26 21 10 13 17 26
3630.0 24 14 12 17 11 5 11 19 18 15
3670.0 12 10 8 20 18 13 16 12 18 15
3710.0 5 14 19 16 22 23 16 16 17 12
3750.0 10 11 12 12 11 16 13 12 26 30
3790.0 23 14 5 1 9 23 24 14 23 20
3830.0 11 17 29 35 25
##END=
