##TITLE=4-Methyl-7-ethoxycoumarin
##JCAMP-DX=4.24
##DATA TYPE=INFRARED SPECTRUM
##ORIGIN=EPA-IR VAPOR PHASE LIBRARY
##OWNER=SRD/NIST
Collection (C) 2018 copyright by the U.S. Secretary of Commerce
on behalf of the United States of America. All rights reserved.
##CAS REGISTRY NO=87-05-8
##MOLFORM=C 12 H 12 O 3
##$NIST SOURCE=MSDC-IR
##STATE=gas
##XUNITS=1/CM
##YUNITS=ABSORBANCE
##XFACTOR=1.
##YFACTOR=0.001
##DELTAX=1.92898
##FIRSTX=549.8
##LASTX=4000.7
##FIRSTY=3.036
##MAXX=4000.7
##MINX=549.759
##MAXY=0.367926
##MINY=0
##NPOINTS=1790
##XYDATA=(X++(Y..Y))
549.759 3.036 3.106 3.096 2.766 2.716 2.746 2.426 2.576 2.876 3.096
569.049 3.426 3.906 4.356 4.396 4.306 4.136 3.596 3.016 2.536 1.866
588.339 1.696 1.406 0.8918 0.8885 0.7675 0.5438 0.5849 0.7065 0.6424 0.5051
607.628 0.3655 0.3682 0.481 0.5967 0.5426 0.6804 0.8453 0.9175 1.117 1.546
626.918 1.836 1.886 2.296 2.706 3.176 3.266 3.156 3.286 3.066 2.716
646.208 2.456 2.126 1.866 1.686 1.396 1.256 1.226 1.0428 1.047 0.9946
665.498 1.0189 1.0113 0.9148 1.0426 1.0608 1.2134 1.516 1.626 1.636 1.826
684.787 2.026 2.236 2.666 3.106 3.496 3.796 3.826 4.106 4.466 4.326
704.077 4.066 3.746 3.426 3.216 2.896 2.706 2.686 2.366 2.046 1.916
723.367 1.706 1.576 1.576 1.556 1.426 1.466 1.596 1.606 1.696 1.976
742.657 2.096 2.086 1.986 1.816 1.686 1.536 1.396 1.266 1.276 1.406
761.947 1.526 1.566 1.676 2.006 2.296 2.566 3.076 3.506 3.816 4.126
781.236 4.406 4.786 5.256 5.606 5.826 6.186 6.606 7.246 7.726 7.746
800.526 7.876 8.206 8.376 8.566 8.816 9.116 9.036 8.356 7.726 7.286
819.816 7.136 7.146 7.186 7.416 7.786 8.446 9.596 11.236 13.056 15.126
839.106 17.786 21.106 24.946 28.836 32.696 36.496 40.386 45.066 49.686 50.566
858.395 48.496 46.346 43.636 39.836 34.576 28.596 22.836 17.926 14.156 11.466
877.685 9.706 8.436 7.506 6.916 6.556 6.366 6.106 6.096 6.376 6.416
896.975 6.546 6.516 6.436 6.526 6.646 6.756 6.646 6.456 6.176 6.036
916.265 5.946 5.576 5.216 5.016 4.666 4.416 4.286 4.026 3.726 3.486
935.555 3.306 3.056 2.906 2.856 2.786 2.766 2.786 2.876 2.926 2.946
954.844 3.106 3.166 3.216 3.496 3.826 4.676 5.916 7.276 9.186 11.236
974.134 13.346 15.846 18.056 19.706 20.816 21.196 20.756 19.656 18.216 16.836
993.424 15.706 14.976 14.766 15.296 16.526 18.236 20.046 21.356 21.966 21.626
1012.714 20.636 18.986 17.206 15.806 15.156 15.366 16.176 17.406 18.756 19.806
1032.003 20.786 21.566 21.566 21.336 20.576 19.526 18.726 18.236 18.486 19.546
1051.293 21.776 25.556 30.826 38.066 46.506 54.246 60.086 62.806 61.676 57.576
1070.583 50.766 41.576 32.496 25.696 21.076 18.366 17.376 17.336 17.336 17.016
1089.873 17.206 17.316 16.876 16.486 16.196 15.686 15.386 15.816 16.866 18.316
1109.163 19.926 21.666 23.276 24.726 26.366 28.536 31.676 35.886 42.036 51.056
1128.452 61.976 73.946 85.906 96.576 106.256 115.056 121.426 124.366 125.746 125.756
1147.742 122.786 116.816 108.046 97.126 85.166 72.996 61.686 51.996 43.786 36.686
1167.032 31.086 26.886 23.806 21.716 20.366 20.066 20.846 22.706 26.136 30.886
1186.322 36.536 42.536 47.846 51.486 52.496 50.866 46.776 40.726 33.796 26.746
1205.611 20.936 17.266 15.406 14.466 14.356 14.836 14.696 14.366 14.106 13.306
1224.901 11.906 10.546 9.426 8.916 8.776 8.776 9.006 9.596 10.716 12.166
1244.191 14.206 17.296 21.396 26.836 33.656 41.616 50.356 58.876 66.326 72.286
1263.481 77.086 80.956 83.936 85.916 87.016 87.156 86.256 84.076 79.966 74.466
1282.771 68.856 64.276 61.206 59.106 57.216 54.986 52.086 48.446 43.926 39.096
1302.060 34.756 30.996 28.006 25.816 24.396 23.636 23.386 23.716 24.286 24.826
1321.350 25.306 25.666 25.916 26.066 26.166 26.106 25.846 25.346 24.636 23.746
1340.640 22.726 21.656 20.726 20.176 20.136 20.666 21.966 24.256 27.776 32.776
1359.930 39.096 46.196 52.956 57.956 60.516 60.526 58.306 54.466 50.566 48.846
1379.219 50.996 56.736 63.616 68.876 71.466 71.676 69.006 62.686 53.656 44.976
1398.509 38.246 33.016 29.016 25.686 22.976 21.036 19.816 19.216 19.066 19.276
1417.799 19.496 19.606 19.536 19.196 18.566 17.726 16.716 15.626 14.776 14.206
1437.089 13.886 13.686 13.616 13.636 13.576 13.396 13.056 12.556 12.116 11.586
1456.378 10.996 10.496 10.066 9.796 9.676 9.806 10.256 10.996 11.966 13.386
1475.668 15.016 16.386 17.246 17.566 17.456 17.016 16.356 15.956 16.056 16.736
1494.958 18.096 20.016 22.186 24.436 26.316 27.336 27.366 26.326 24.286 21.326
1514.248 17.886 14.466 11.486 9.366 7.936 7.136 6.696 6.526 6.586 6.886
1533.538 7.226 7.676 8.386 9.346 10.516 11.876 13.596 15.686 17.946 20.556
1552.827 23.126 25.576 27.446 28.676 29.326 29.226 28.536 27.506 26.486 25.646
1572.117 25.206 25.256 25.646 26.226 26.946 28.066 29.416 31.146 33.436 36.256
1591.407 39.846 44.346 49.746 56.526 64.996 75.516 88.356 103.376 119.906 137.306
1610.697 153.646 167.596 177.746 183.736 185.086 181.186 172.196 158.996 143.246 125.256
1629.986 106.196 87.576 70.806 56.156 44.456 35.526 28.516 23.416 19.536 16.726
1649.276 14.586 13.086 11.896 10.986 10.246 9.686 9.256 8.896 8.616 8.376
1668.566 8.196 7.956 7.796 7.696 7.596 7.546 7.536 7.486 7.436 7.526
1687.856 7.586 7.646 7.826 8.026 8.336 8.756 9.236 9.946 10.616 11.256
1707.146 11.996 12.866 13.656 14.346 15.096 16.026 17.006 17.786 18.536 19.316
1726.435 20.056 20.776 21.346 21.716 22.296 22.876 23.616 24.746 26.366 28.666
1745.725 31.846 36.356 42.546 50.996 62.296 77.196 97.616 123.646 156.996 198.116
1765.015 243.876 289.926 330.046 356.476 367.926 363.986 342.116 303.566 253.576 201.836
1784.305 155.956 118.386 90.036 69.046 53.626 42.146 33.926 27.756 23.056 19.416
1803.594 16.656 14.426 12.666 11.186 9.946 8.926 8.076 7.306 6.746 6.276
1822.884 5.916 5.676 5.486 5.286 5.196 5.106 5.066 5.126 5.166 5.136
1842.174 5.126 5.196 5.276 5.276 5.246 5.216 5.136 5.036 5.016 4.986
1861.464 4.906 4.786 4.676 4.586 4.466 4.326 4.196 3.996 3.856 3.686
1880.754 3.426 3.196 2.976 2.796 2.626 2.456 2.366 2.296 2.186 2.116
1900.043 2.176 2.216 2.146 2.106 2.136 2.126 2.066 2.066 2.036 2.056
1919.333 2.096 2.096 2.136 2.156 2.126 2.106 2.126 2.156 2.186 2.136
1938.623 2.116 2.076 2.076 2.066 1.956 1.916 1.916 1.826 1.726 1.736
1957.913 1.766 1.736 1.736 1.746 1.746 1.726 1.726 1.776 1.766 1.776
1977.202 1.836 1.866 1.926 1.976 1.976 2.016 2.056 2.056 2.146 2.136
1996.492 2.146 2.186 2.166 2.176 2.176 2.146 2.106 2.026 1.906 1.856
2015.782 1.826 1.816 1.736 1.656 1.626 1.566 1.506 1.536 1.536 1.496
2035.072 1.486 1.446 1.446 1.486 1.516 1.566 1.616 1.666 1.716 1.716
2054.362 1.706 1.696 1.686 1.746 1.736 1.686 1.666 1.596 1.546 1.546
2073.651 1.516 1.436 1.366 1.346 1.306 1.296 1.286 1.246 1.246 1.2183
2092.941 1.1211 1.0835 1.0763 1.0538 1.1315 1.1336 1.0413 1.071 1.1224 1.1067
2112.231 1.1497 1.1729 1.144 1.1677 1.1448 1.1604 1.236 1.226 1.2122 1.236
2131.521 1.246 1.256 1.266 1.286 1.266 1.2103 1.2118 1.2096 1.236 1.256
2150.810 1.1918 1.1421 1.1284 1.1088 1.0907 1.0436 0.9934 0.9621 0.9386 0.9171
2170.100 0.9201 0.9495 0.9848 0.9684 0.9857 1.0459 1.0598 1.0283 1.0103 1.0665
2189.390 1.0326 1.0414 1.0765 1.1022 1.1293 1.1194 1.1521 1.0934 1.0423 1.1135
2208.680 1.1341 1.0868 1.0374 1.0503 1.0991 1.143 1.1055 1.0688 1.1242 1.1267
2227.970 1.1477 1.1816 1.1129 1.0743 1.1004 1.0862 1.0979 1.1629 1.2104 1.226
2247.259 1.1907 1.1962 1.276 1.326 1.366 1.446 1.426 1.426 1.486 1.596
2266.549 1.726 1.636 1.606 1.766 1.816 1.786 1.926 2.086 2.176 2.156
2285.839 2.166 2.306 2.306 2.346 2.416 2.376 2.386 2.386 2.336 2.306
2305.129 2.286 2.216 2.086 2.006 1.916 1.936 1.976 1.896 1.886 1.876
2324.418 1.926 1.986 2.006 2.016 2.006 2.006 2.026 2.046 1.906 1.856
2343.708 1.936 1.986 1.946 1.856 1.796 1.726 1.616 1.536 1.536 1.596
2362.998 1.586 1.506 1.426 1.466 1.566 1.666 1.756 1.766 1.816 1.866
2382.288 1.876 1.976 2.046 2.126 2.246 2.196 2.166 2.096 2.056 2.146
2401.578 2.166 2.076 1.926 1.896 1.896 1.856 1.846 1.806 1.726 1.756
2420.867 1.806 1.726 1.716 1.746 1.746 1.726 1.686 1.676 1.666 1.676
2440.157 1.686 1.756 1.716 1.676 1.756 1.716 1.686 1.676 1.646 1.656
2459.447 1.686 1.746 1.676 1.626 1.736 1.766 1.696 1.606 1.556 1.586
2478.737 1.576 1.526 1.446 1.446 1.416 1.316 1.306 1.316 1.286 1.276
2498.026 1.2089 1.1459 1.1493 1.1192 1.0854 1.1718 1.256 1.266 1.276 1.2229
2517.316 1.256 1.366 1.376 1.286 1.2029 1.2 1.1884 1.2178 1.226 1.1679
2536.606 1.101 1.0913 1.1308 1.0866 1.0304 0.997 1.0422 1.117 1.1641 1.0985
2555.896 1.0398 1.1301 1.1339 1.1348 1.1709 1.189 1.296 1.376 1.346 1.276
2575.186 1.256 1.326 1.376 1.356 1.426 1.516 1.496 1.546 1.596 1.586
2594.475 1.606 1.616 1.656 1.716 1.786 1.806 1.776 1.776 1.676 1.626
2613.765 1.796 1.876 1.876 1.946 1.856 1.786 1.796 1.746 1.696 1.656
2633.055 1.706 1.736 1.756 1.706 1.656 1.626 1.516 1.466 1.416 1.396
2652.345 1.356 1.246 1.203 1.246 1.256 1.256 1.256 1.1669 1.0636 1.1304
2671.634 1.1105 1.0996 1.2126 1.145 1.0617 1.0309 0.9516 0.9568 0.9915 0.9624
2690.924 1.0144 1.0144 0.8802 0.9056 0.9428 0.9422 1.0256 0.9952 0.9882 1.1379
2710.214 1.1532 1.0241 1.0307 1.1128 1.1792 1.286 1.326 1.356 1.376 1.356
2729.504 1.376 1.496 1.556 1.596 1.736 1.776 1.796 1.976 2.016 1.896
2748.794 2.026 2.086 2.056 2.126 2.156 2.126 2.096 2.126 2.226 2.236
2768.083 2.146 2.176 2.166 2.096 2.176 2.226 2.086 1.986 1.936 1.896
2787.373 1.836 1.746 1.686 1.756 1.796 1.706 1.786 1.926 1.886 1.866
2806.663 1.926 1.986 2.006 2.036 2.056 2.116 2.376 2.496 2.406 2.446
2825.953 2.486 2.476 2.496 2.516 2.616 2.646 2.636 2.776 2.846 2.896
2845.242 2.876 2.926 3.056 3.206 3.376 3.476 3.596 3.946 4.276 4.546
2864.532 4.926 5.346 5.776 6.236 6.836 7.306 7.756 8.316 8.866 9.266
2883.822 9.636 9.996 10.316 10.606 10.666 10.716 10.826 10.926 10.966 10.826
2903.112 10.846 11.086 11.236 11.536 11.856 12.026 12.246 12.436 12.706 13.166
2922.401 13.696 14.446 15.236 16.066 17.106 17.906 18.536 19.136 19.576 19.826
2941.691 19.796 19.406 18.806 17.996 16.936 15.836 14.906 14.186 13.596 13.226
2960.981 13.136 13.386 13.836 14.256 14.586 14.906 15.386 16.226 17.476 19.086
2980.271 21.046 23.456 25.976 28.116 29.586 30.536 30.816 30.276 28.326 25.026
2999.561 21.696 18.556 15.606 13.276 11.306 9.696 8.596 7.596 6.886 6.316
3018.850 5.726 5.316 4.886 4.606 4.346 4.026 3.936 3.866 3.656 3.586
3038.140 3.666 3.596 3.496 3.716 3.776 3.786 4.096 4.366 4.506 4.766
3057.430 5.106 5.146 5.096 5.116 5.056 4.856 4.686 4.616 4.616 4.726
3076.720 4.846 5.006 5.186 5.286 5.236 5.106 4.996 4.766 4.376 4.136
3096.009 3.916 3.606 3.426 3.116 2.746 2.516 2.346 2.276 2.206 2.136
3115.299 2.016 1.996 2.016 1.926 1.836 1.746 1.646 1.536 1.566 1.576
3134.589 1.436 1.316 1.266 1.1272 1.0604 1.0955 1.0984 1.0263 1.0142 1.0685
3153.879 1.0381 0.9844 0.9734 1.0386 1.0593 1.1267 1.1776 1.1063 1.0444 0.9227
3173.169 0.8219 0.9249 0.9895 0.9064 0.7627 0.6964 0.7751 0.7588 0.8911 0.9413
3192.458 0.8294 0.8968 0.9152 0.8533 0.8185 0.7657 0.7026 0.7358 0.8082 0.8696
3211.748 0.7291 0.6966 0.8268 0.6679 0.6697 0.7784 0.8314 0.8929 0.9568 1.0192
3231.038 0.9168 0.8674 0.8602 0.9266 0.8814 0.8466 0.863 0.7966 0.7823 0.7028
3250.328 0.6855 0.803 0.8213 0.6992 0.5658 0.4909 0.4709 0.2614 0.3342 0.6413
3269.617 0.5811 0.4093 0.31204 0.25329 0.26043 0.2072 0.31734 0.4646 0.32115 0.32122
3288.907 0.3372 0.228552 0.3566 0.4935 0.4463 0.3408 0.23981 0.054 0 0.143
3308.197 0.1969 0.228278 0.3706 0.3467 0.3333 0.4568 0.4783 0.4847 0.5559 0.613
3327.487 0.5351 0.3595 0.26749 0.30856 0.3272 0.4735 0.5492 0.412 0.4935 0.6234
3346.777 0.4896 0.4331 0.4355 0.3917 0.4514 0.3769 0.21776 0.3829 0.4216 0.228565
3366.066 0.1396 0.24918 0.4406 0.4382 0.4048 0.5307 0.6201 0.5714 0.5388 0.6356
3385.356 0.7458 0.8215 0.7346 0.5864 0.5605 0.7095 0.6836 0.475 0.3907 0.5651
3404.646 0.6623 0.5492 0.5647 0.4936 0.5287 0.5795 0.5812 0.4978 0.3702 0.32095
3423.936 0.4211 0.5777 0.5184 0.4233 0.3987 0.3436 0.415 0.5548 0.5422 0.4929
3443.225 0.5829 0.7778 0.8121 0.607 0.4473 0.6096 0.6756 0.6074 0.7143 0.8516
3462.515 0.7161 0.5026 0.5111 0.4784 0.5231 0.6866 0.7682 0.8179 0.8663 0.9831
3481.805 0.9367 0.8932 0.9291 1.0365 1.2146 1.2217 1.2053 1.296 1.276 1.276
3501.095 1.436 1.546 1.646 1.656 1.686 1.836 2.026 2.206 2.386 2.776
3520.385 3.036 3.236 3.456 3.456 3.446 3.536 3.576 3.306 2.986 2.556
3539.674 2.206 2.136 2.006 1.796 1.676 1.606 1.546 1.376 1.2199 1.2142
3558.964 1.2166 1.0893 1.1084 1.1171 0.7787 0.6854 0.7837 0.9026 0.8833 0.7989
3578.254 0.6967 0.6614 0.5885 0.3794 0.4571 0.5583 0.4726 0.5216 0.4193 0.5136
3597.544 0.8211 0.7609 0.6029 0.4008 0.3307 0.3896 0.4256 0.3721 0.3309 0.29267
3616.833 0.24414 0.197 0.1533 0.3805 0.5903 0.5782 0.4328 0.28537 0.1815 0.2117
3636.123 0.29711 0.201 0.326 0.4833 0.5505 0.6103 0.4452 0.3899 0.5301 0.533
3655.413 0.4991 0.6088 0.545 0.3897 0.4948 0.3436 0.27289 0.4206 0.3672 0.3475
3674.703 0.3893 0.3948 0.3473 0.384 0.4396 0.5074 0.31601 0.1815 0.496 0.5885
3693.993 0.4116 0.3373 0.29485 0.4101 0.4103 0.3649 0.5332 0.5829 0.4586 0.3469
3713.282 0.4184 0.3771 0.4394 0.5245 0.5495 0.5196 0.3684 0.3713 0.4666 0.6669
3732.572 0.7995 0.5999 0.4744 0.5061 0.3538 0.3321 0.4104 0.4128 0.3549 0.3245
3751.862 0.4062 0.508 0.5324 0.4854 0.5281 0.5403 0.6436 0.7159 0.4065 0.4178
3771.152 0.573 0.4914 0.5306 0.5648 0.4849 0.25809 0.3699 0.5797 0.5739 0.6338
3790.441 0.5925 0.4377 0.3955 0.4078 0.3937 0.4335 0.4446 0.5304 0.4771 0.4087
3809.731 0.5317 0.6415 0.7176 0.5375 0.29407 0.2054 0.4534 0.6919 0.5044 0.3338
3829.021 0.3823 0.4059 0.3887 0.3868 0.28402 0.29899 0.4113 0.387 0.3633 0.3781
3848.311 0.3999 0.495 0.6226 0.8107 0.7211 0.5615 0.5717 0.5959 0.5269 0.425
3867.601 0.4219 0.41 0.5474 0.6544 0.6835 0.7102 0.567 0.4613 0.5539 0.6296
3886.890 0.5866 0.5065 0.5042 0.6228 0.5301 0.5161 0.579 0.4333 0.444 0.5421
3906.180 0.445 0.30339 0.27268 0.4372 0.575 0.4664 0.4277 0.4914 0.5067 0.5262
3925.470 0.4426 0.5423 0.6205 0.5093 0.4119 0.226361 0.29483 0.5373 0.5825 0.5982
3944.760 0.5917 0.6742 0.731 0.6281 0.6302 0.5255 0.387 0.4149 0.3908 0.526
3964.049 0.7857 0.5867 0.31366 0.3681 0.3961 0.1754 0.138 0.4527 0.6993 0.6774
3983.339 0.5184 0.484 0.6276 0.7041 0.6581 0.7252 0.7078 0.6513 0.5454 0.499
##END=
