##TITLE=4-tert-Butylphenyl salicylate
##JCAMP-DX=4.24
##DATA TYPE=INFRARED SPECTRUM
##ORIGIN=NIST Mass Spectrometry Data Center
##OWNER=NIST Standard Reference Data Program
Collection (C) 2018 copyright by the U.S. Secretary of Commerce
on behalf of the United States of America. All rights reserved.
##CAS REGISTRY NO=87-18-3
##MOLFORM=C 17 H 18 O 3
##$NIST SOURCE=MSDC-IR
##SPECTROMETER/DATA SYSTEM=HP-GC/MS/IRD
##STATE=gas
##XUNITS=1/CM
##YUNITS=ABSORBANCE
##XFACTOR=1.0
##YFACTOR=0.000001300
##DELTAX=4.0
##FIRSTX=550.0
##LASTX=3846.0
##FIRSTY=0.000456
##MAXX=3846
##MINX=550
##MAXY=0.013
##MINY=0
##NPOINTS=825
##XYDATA=(X++(Y..Y))
550.0 351 584 526 401 274 253 132 27 19 4
590.0 100 228 224 135 122 134 129 142 191 237
630.0 233 232 261 335 479 640 760 776 681 589
670.0 557 561 626 760 910 997 1047 1032 928 812
710.0 639 523 422 370 390 359 371 536 786 1106
750.0 1458 1629 1422 1046 722 484 330 276 312 354
790.0 427 551 660 791 860 814 791 764 766 708
830.0 590 560 513 469 470 427 422 404 411 478
870.0 533 564 581 545 439 318 257 245 195 167
910.0 164 184 179 175 194 213 219 214 203 216
950.0 239 200 158 133 121 147 168 172 209 220
990.0 227 287 350 452 700 1138 1613 1710 1329 983
1030.0 890 874 891 981 1242 1860 2925 4212 4679 3549
1070.0 1936 1064 772 602 573 636 711 910 1223 1500
1110.0 1620 1594 1565 1674 1914 1919 1541 1258 1389 1921
1150.0 3332 5132 5418 4811 5764 7865 8650 7175 5124 4164
1190.0 4281 5351 7327 9400 10000 8681 6891 5693 4819 3945
1230.0 3258 2930 2972 3459 4372 5111 4908 4142 3537 3137
1270.0 2807 2746 2979 3245 3632 4611 6278 7765 7766 6225
1310.0 4573 3720 3333 3023 2795 2470 1883 1322 1065 976
1350.0 975 1049 1139 1238 1367 1434 1421 1389 1359 1360
1390.0 1433 1525 1575 1508 1368 1208 1040 896 782 699
1430.0 652 615 596 624 686 805 955 1208 1569 1942
1470.0 2290 2616 2907 3023 2891 2602 2360 2441 3035 3877
1510.0 4184 3439 2252 1386 905 642 501 417 363 343
1550.0 354 364 399 477 609 792 1012 1268 1453 1465
1590.0 1376 1291 1272 1337 1486 1652 1724 1595 1254 878
1630.0 631 497 408 366 344 341 337 355 396 449
1670.0 544 646 786 995 1337 1836 2581 3570 4528 5003
1710.0 4684 3783 2745 1912 1318 907 657 528 455 422
1750.0 447 500 586 663 630 501 376 278 195 153
1790.0 127 122 124 120 138 138 121 102 82 76
1830.0 84 85 78 68 64 76 83 77 87 104
1870.0 102 103 112 112 109 105 95 89 88 77
1910.0 94 89 87 108 115 106 83 80 97 110
1950.0 98 86 75 77 75 60 58 50 47 45
1990.0 43 45 49 58 58 64 75 57 55 65
2030.0 60 59 59 52 50 60 64 58 56 58
2070.0 46 37 37 40 41 40 47 51 53 50
2110.0 54 54 44 55 71 53 32 34 33 23
2150.0 21 17 22 33 56 54 38 55 65 66
2190.0 47 27 23 18 11 7 16 22 26 34
2230.0 34 44 30 22 30 26 26 38 42 36
2270.0 34 23 25 34 33 31 38 46 30 28
2310.0 39 36 35 44 43 40 57 73 71 78
2350.0 77 65 72 88 87 77 66 62 62 52
2390.0 57 68 57 48 55 65 67 63 64 51
2430.0 41 51 49 47 47 56 52 42 51 48
2470.0 38 39 44 44 39 46 42 33 49 54
2510.0 53 50 41 51 53 37 55 67 60 47
2550.0 45 46 60 63 63 76 78 77 62 55
2590.0 57 58 72 86 65 59 75 77 72 77
2630.0 80 77 96 89 80 95 100 86 81 87
2670.0 72 66 81 90 100 94 93 96 99 101
2710.0 101 113 109 111 128 121 105 98 109 128
2750.0 120 124 156 166 142 125 120 142 156 141
2790.0 145 139 120 108 117 127 131 127 141 172
2830.0 179 184 201 213 233 269 298 369 472 567
2870.0 690 834 921 928 923 922 907 930 996 1084
2910.0 1181 1239 1230 1191 1152 1138 1161 1240 1329 1484
2950.0 1796 2266 2917 3736 4474 4663 4074 3034 2106 1486
2990.0 1073 803 627 525 466 419 385 395 418 436
3030.0 465 498 538 620 698 717 696 685 708 765
3070.0 786 771 712 653 604 571 573 553 491 443
3110.0 422 380 316 312 318 274 259 253 250 262
3150.0 255 248 274 275 278 306 315 307 315 330
3190.0 329 362 381 391 405 432 455 470 489 513
3230.0 601 667 713 775 835 863 900 1003 1079 1101
3270.0 1091 1055 1066 1088 1027 1004 1005 948 914 878
3310.0 847 816 755 719 716 702 666 651 670 661
3350.0 643 605 587 590 568 535 503 513 498 452
3390.0 419 415 415 376 348 343 324 250 246 286
3430.0 292 273 235 251 248 224 217 214 206 218
3470.0 207 221 279 328 376 449 499 472 416 372
3510.0 332 293 285 248 228 214 191 161 121 131
3550.0 129 86 81 85 94 160 210 202 176 142
3590.0 111 89 102 86 39 51 35 18 53 62
3630.0 66 92 163 249 393 484 434 398 297 138
3670.0 87 53 0 26 51 17 17 46 46 49
3710.0 21 4 15 16 16 37 13 7 7 7
3750.0 7 7 7 7 10 9 13 8 7 7
3790.0 5 30 51 24 21 13 4 30 46 51
3830.0 44 43 35 12 10
##END=
