##TITLE=1,7-Octadiyne
##JCAMP-DX=4.24
##DATA TYPE=INFRARED SPECTRUM
##ORIGIN=NIST Mass Spectrometry Data Center
##OWNER=NIST Standard Reference Data Program
Collection (C) 2018 copyright by the U.S. Secretary of Commerce
on behalf of the United States of America. All rights reserved.
##CAS REGISTRY NO=871-84-1
##MOLFORM=C 8 H 10
##$NIST SOURCE=MSDC-IR
##SPECTROMETER/DATA SYSTEM=HP-GC/MS/IRD
##STATE=gas
##XUNITS=1/CM
##YUNITS=ABSORBANCE
##XFACTOR=1.0
##YFACTOR=0.000005200
##DELTAX=4.0
##FIRSTX=550.0
##LASTX=3846.0
##FIRSTY=0.000520
##MAXX=3846
##MINX=550
##MAXY=0.052
##MINY=0
##NPOINTS=825
##XYDATA=(X++(Y..Y))
550.0 100 119 78 94 84 91 96 96 125 170
590.0 211 269 375 531 764 1148 1739 2543 3630 5251
630.0 7809 10000 9451 7238 5136 3428 2179 1363 875 577
670.0 395 284 225 173 130 105 93 82 58 47
710.0 34 33 51 53 50 69 71 55 50 46
750.0 42 38 32 32 25 17 20 20 18 20
790.0 20 17 12 12 9 10 12 9 14 18
830.0 14 9 4 7 6 3 3 2 0 2
870.0 11 12 13 23 34 44 50 54 60 65
910.0 59 58 47 36 36 40 40 41 38 27
950.0 29 36 39 40 38 36 32 31 36 36
990.0 28 22 23 30 29 29 27 29 36 31
1030.0 26 39 52 50 56 57 49 48 46 43
1070.0 32 27 27 26 24 16 13 18 15 13
1110.0 8 5 5 10 13 9 7 8 16 19
1150.0 16 10 7 10 13 14 17 24 28 37
1190.0 47 56 62 75 91 108 139 186 246 344
1230.0 513 780 1177 1647 2033 2180 2151 1964 1573 1108
1270.0 745 536 415 332 276 240 214 204 210 226
1310.0 261 316 375 420 436 431 413 372 314 273
1350.0 239 206 180 157 135 115 99 83 76 71
1390.0 65 65 66 70 83 105 129 162 223 321
1430.0 441 548 623 668 665 612 543 477 414 352
1470.0 291 236 187 149 122 99 79 66 60 57
1510.0 51 43 41 38 33 29 26 25 25 23
1550.0 20 21 27 25 20 15 12 17 14 13
1590.0 14 15 18 16 13 13 15 17 17 15
1630.0 11 8 8 9 10 10 7 5 7 9
1670.0 7 5 4 6 4 2 0 2 5 6
1710.0 6 4 3 4 4 5 6 4 4 8
1750.0 8 6 5 7 9 6 4 4 6 7
1790.0 7 6 8 8 9 7 5 5 5 2
1830.0 2 4 5 7 7 5 4 6 7 4
1870.0 3 6 12 14 11 10 7 4 7 7
1910.0 5 3 5 5 2 4 4 4 5 4
1950.0 5 4 4 5 7 6 5 9 6 3
1990.0 7 11 6 4 4 5 9 7 8 9
2030.0 12 14 12 12 17 19 19 18 22 27
2070.0 35 42 49 62 81 106 137 174 230 293
2110.0 353 402 421 405 355 282 203 132 84 62
2150.0 43 28 26 22 17 19 18 18 19 18
2190.0 15 9 10 14 14 11 11 14 11 11
2230.0 13 11 13 13 14 17 14 14 18 16
2270.0 10 10 13 7 6 12 11 9 11 10
2310.0 7 11 14 15 16 17 13 17 14 11
2350.0 10 9 10 10 13 11 10 17 17 9
2390.0 4 4 6 5 8 8 4 5 5 0
2430.0 3 8 10 9 11 12 11 10 7 8
2470.0 6 4 4 3 8 9 8 10 13 14
2510.0 11 11 12 12 13 10 10 10 6 3
2550.0 8 15 16 13 12 11 10 15 16 13
2590.0 12 14 21 28 25 26 24 23 34 43
2630.0 39 39 43 44 49 49 48 52 55 60
2670.0 64 63 56 60 76 91 94 82 66 51
2710.0 49 53 48 47 47 48 49 49 51 51
2750.0 51 49 47 54 61 61 55 56 59 59
2790.0 65 72 75 83 88 100 118 127 143 172
2830.0 197 229 282 354 434 520 608 690 764 818
2870.0 851 868 856 806 749 703 684 704 785 914
2910.0 1082 1285 1530 1810 2098 2383 2652 2890 3081 3212
2950.0 3236 3058 2725 2348 1894 1408 1010 721 519 379
2990.0 287 225 177 144 124 115 105 89 77 74
3030.0 66 52 51 54 56 51 45 38 34 31
3070.0 30 32 31 33 35 34 34 36 37 37
3110.0 33 37 37 35 37 36 34 39 40 33
3150.0 36 36 32 29 31 35 30 25 24 29
3190.0 33 33 38 42 45 54 51 41 46 47
3230.0 55 61 64 74 86 100 120 150 181 207
3270.0 251 319 411 500 585 700 888 1167 1444 1612
3310.0 1847 2293 2856 3350 3398 3297 3279 2552 1511 964
3350.0 709 535 420 347 280 218 173 138 108 88
3390.0 74 61 53 50 42 35 38 43 31 23
3430.0 27 30 29 24 15 13 18 26 24 16
3470.0 16 18 18 13 13 14 7 15 22 12
3510.0 9 20 31 22 15 22 15 11 13 12
3550.0 11 11 12 12 7 5 9 5 4 9
3590.0 9 5 8 2 0 10 17 19 21 12
3630.0 7 11 14 16 12 15 18 12 15 22
3670.0 20 19 19 24 31 25 13 20 21 18
3710.0 20 19 22 17 20 19 14 16 19 27
3750.0 23 16 19 24 18 16 28 32 30 26
3790.0 17 10 12 16 19 23 27 30 23 23
3830.0 33 32 32 27 23
##END=
