##TITLE=Butylformamide
##JCAMP-DX=4.24
##DATA TYPE=INFRARED SPECTRUM
##ORIGIN=NIST Mass Spectrometry Data Center
##OWNER=NIST Standard Reference Data Program
Collection (C) 2018 copyright by the U.S. Secretary of Commerce
on behalf of the United States of America. All rights reserved.
##CAS REGISTRY NO=871-71-6
##MOLFORM=C 5 H 11 N O
##$NIST SOURCE=MSDC-IR
##SPECTROMETER/DATA SYSTEM=HP-GC/MS/IRD
##STATE=gas
##XUNITS=1/CM
##YUNITS=ABSORBANCE
##XFACTOR=1.0
##YFACTOR=0.000000900
##DELTAX=4.0
##FIRSTX=550.0
##LASTX=3846.0
##FIRSTY=0.000141
##MAXX=3846
##MINX=550
##MAXY=0.009
##MINY=0
##NPOINTS=825
##XYDATA=(X++(Y..Y))
550.0 157 131 155 242 335 207 157 259 275 394
590.0 396 339 322 259 237 220 146 115 95 57
630.0 54 93 151 113 49 92 96 21 31 73
670.0 61 47 41 31 22 28 34 54 65 52
710.0 95 132 118 131 142 134 138 142 152 171
750.0 194 206 185 148 154 159 139 96 95 121
790.0 127 150 140 97 86 76 65 111 132 97
830.0 84 95 105 117 109 90 94 87 82 86
870.0 70 88 113 101 96 99 107 125 123 140
910.0 155 164 144 116 151 202 244 242 229 211
950.0 202 207 208 219 214 215 232 213 201 213
990.0 227 220 204 196 184 180 191 176 161 150
1030.0 137 148 108 88 123 136 130 137 146 140
1070.0 130 118 91 101 134 140 135 141 134 152
1110.0 182 189 227 218 214 233 231 268 324 379
1150.0 425 495 621 778 989 1292 1655 1917 2017 2009
1190.0 1930 1723 1416 1135 973 876 785 735 720 694
1230.0 664 667 658 635 619 610 605 629 652 664
1270.0 665 653 633 585 554 511 464 441 403 367
1310.0 333 287 264 239 212 202 195 196 218 235
1350.0 245 278 311 348 391 438 489 523 535 532
1390.0 528 490 469 452 422 394 385 428 488 556
1430.0 667 806 927 1045 1196 1325 1433 1564 1685 1837
1470.0 2003 2212 2431 2612 2732 2739 2606 2398 2097 1731
1510.0 1364 1050 819 631 491 404 330 279 240 215
1550.0 197 171 147 140 121 92 88 98 91 87
1590.0 80 83 92 97 103 111 117 119 120 112
1630.0 116 137 153 177 208 227 253 289 342 394
1670.0 459 568 687 818 968 1152 1420 1785 2272 2881
1710.0 3762 5129 6828 8321 9323 9928 10000 9232 7658 5595
1750.0 3693 2465 1714 1216 898 703 544 422 338 277
1790.0 245 218 187 148 133 133 121 105 95 95
1830.0 90 74 56 67 61 39 43 44 41 50
1870.0 50 50 54 57 55 42 38 44 44 50
1910.0 61 50 49 57 51 55 54 36 27 30
1950.0 32 42 43 25 15 9 11 32 41 27
1990.0 36 41 36 43 34 19 31 42 38 35
2030.0 43 38 30 27 41 55 43 17 12 31
2070.0 38 42 38 28 33 17 14 27 30 42
2110.0 30 35 50 53 54 52 39 34 31 29
2150.0 33 33 39 45 37 27 41 55 55 38
2190.0 31 38 42 46 36 47 56 44 40 36
2230.0 43 47 56 64 65 55 54 51 49 52
2270.0 63 71 59 63 64 54 49 51 49 57
2310.0 58 58 72 80 69 67 77 69 78 60
2350.0 44 64 64 53 71 67 43 38 40 31
2390.0 20 34 44 32 20 8 27 46 50 52
2430.0 58 50 38 46 50 46 38 41 55 54
2470.0 48 61 76 79 87 88 52 33 39 38
2510.0 42 43 52 49 37 48 46 34 46 55
2550.0 50 58 53 54 62 62 58 55 55 46
2590.0 35 28 47 62 65 79 68 64 84 96
2630.0 102 98 89 82 80 95 119 101 95 110
2670.0 122 128 122 156 161 132 138 171 169 164
2710.0 189 203 236 255 263 306 375 445 541 611
2750.0 630 637 589 519 432 375 365 334 299 276
2790.0 287 314 352 391 445 533 665 850 1064 1337
2830.0 1678 1953 2108 2194 2214 2114 1877 1673 1584 1516
2870.0 1507 1561 1617 1628 1605 1572 1539 1495 1468 1488
2910.0 1558 1674 1803 1973 2188 2415 2608 2761 2832 2836
2950.0 2802 2763 2729 2716 2669 2536 2376 2155 1843 1503
2990.0 1162 873 690 581 472 403 352 330 319 276
3030.0 237 218 203 183 178 200 194 158 152 166
3070.0 179 173 160 147 148 175 202 204 200 187
3110.0 145 138 143 129 111 108 120 114 130 160
3150.0 132 80 81 98 124 131 113 97 92 108
3190.0 83 81 109 97 103 71 67 81 56 41
3230.0 45 57 61 64 60 48 56 54 51 59
3270.0 77 67 51 79 98 79 80 56 66 76
3310.0 30 4 0 18 50 50 50 87 103 111
3350.0 93 76 73 78 103 132 104 64 84 110
3390.0 123 138 136 152 176 173 217 245 233 263
3430.0 302 334 374 393 393 436 437 405 445 453
3470.0 408 394 393 366 293 225 215 190 121 99
3510.0 132 125 95 108 99 77 87 108 111 116
3550.0 95 69 78 92 96 98 88 67 74 94
3590.0 114 99 66 72 78 57 55 105 147 128
3630.0 82 40 89 118 73 82 97 100 87 92
3670.0 102 98 79 71 76 23 23 63 77 65
3710.0 44 30 67 119 115 87 79 96 132 159
3750.0 135 91 88 102 92 101 92 55 61 113
3790.0 108 80 89 54 40 112 135 92 99 132
3830.0 124 101 75 93 131
##END=
