##TITLE=2-Ethylthiophene
##JCAMP-DX=4.24
##DATA TYPE=INFRARED SPECTRUM
##ORIGIN=NIST Mass Spectrometry Data Center
##OWNER=NIST Standard Reference Data Program
Collection (C) 2018 copyright by the U.S. Secretary of Commerce
on behalf of the United States of America. All rights reserved.
##CAS REGISTRY NO=872-55-9
##MOLFORM=C 6 H 8 S
##$NIST SOURCE=MSDC-IR
##SPECTROMETER/DATA SYSTEM=HP-GC/MS/IRD
##STATE=gas
##XUNITS=1/CM
##YUNITS=ABSORBANCE
##XFACTOR=1.0
##YFACTOR=0.000000600
##DELTAX=4.0
##FIRSTX=550.0
##LASTX=3846.0
##FIRSTY=0.000062
##MAXX=3846
##MINX=550
##MAXY=0.006
##MINY=0
##NPOINTS=825
##XYDATA=(X++(Y..Y))
550.0 103 46 103 137 99 109 163 29 40 122
590.0 163 148 16 34 84 81 108 110 80 40
630.0 11 43 151 278 310 456 641 884 1432 2226
670.0 3146 4060 4849 5862 8756 10000 7276 5609 4928 4069
710.0 3099 2063 1276 732 499 449 393 333 239 163
750.0 199 192 152 141 122 91 115 135 151 276
790.0 341 426 648 814 950 1153 1347 1665 1871 1740
830.0 1642 1740 1915 1981 1783 1477 1456 1456 1190 843
870.0 577 399 309 253 196 149 116 63 22 44
910.0 89 103 111 171 120 113 190 197 244 313
950.0 294 247 248 278 260 164 136 191 178 151
990.0 177 179 195 233 402 611 696 811 816 853
1030.0 914 828 702 579 500 437 433 439 386 392
1070.0 427 380 337 279 309 346 233 182 190 155
1110.0 133 121 159 175 116 119 161 177 238 275
1150.0 261 257 316 310 274 246 196 169 135 118
1190.0 88 80 97 117 217 341 425 534 660 795
1230.0 865 834 786 727 649 592 599 604 621 676
1270.0 670 653 668 658 665 691 709 718 732 797
1310.0 861 895 882 849 815 775 683 568 493 434
1350.0 391 360 412 547 689 775 808 822 809 761
1390.0 649 548 499 463 462 484 557 678 793 926
1430.0 1064 1189 1277 1338 1402 1422 1367 1269 1141 1024
1470.0 953 871 761 678 615 548 544 553 519 501
1510.0 499 481 460 433 391 337 283 252 251 258
1550.0 247 242 265 270 289 316 313 297 322 340
1590.0 294 225 177 156 150 154 162 180 192 219
1630.0 241 224 221 224 197 151 136 124 96 84
1670.0 96 107 117 120 114 145 192 181 182 217
1710.0 191 167 176 133 90 98 108 82 69 100
1750.0 144 161 186 220 256 287 284 275 271 222
1790.0 166 125 90 82 63 42 56 63 46 62
1830.0 83 67 39 62 58 36 71 111 78 59
1870.0 75 59 40 41 48 69 71 76 105 110
1910.0 107 109 87 70 70 86 90 78 72 74
1950.0 65 51 32 12 14 52 74 58 65 56
1990.0 58 55 43 70 60 20 41 76 53 53
2030.0 56 33 43 81 74 47 54 45 35 58
2070.0 90 91 44 19 37 61 68 83 96 102
2110.0 87 52 26 45 99 123 104 63 49 61
2150.0 78 65 60 78 65 61 74 93 84 34
2190.0 4 27 63 70 69 68 60 52 28 27
2230.0 9 14 56 77 84 56 32 52 65 73
2270.0 91 91 100 105 108 120 105 92 100 89
2310.0 86 89 107 106 111 123 118 106 101 91
2350.0 74 69 65 46 36 38 42 34 37 65
2390.0 73 86 95 71 50 53 85 112 106 90
2430.0 78 100 97 66 81 98 99 103 73 33
2470.0 57 66 57 59 60 78 74 72 102 88
2510.0 56 65 78 87 74 59 73 65 57 78
2550.0 84 73 103 111 70 57 61 93 76 74
2590.0 90 68 65 115 112 89 90 84 110 135
2630.0 133 94 64 62 51 71 86 102 85 117
2670.0 171 126 115 96 104 151 142 102 78 98
2710.0 143 144 131 127 125 127 141 146 153 188
2750.0 218 174 155 244 273 222 236 251 258 259
2790.0 254 262 254 247 253 278 319 393 444 432
2830.0 456 532 573 595 680 845 1016 1122 1229 1362
2870.0 1495 1689 1868 1987 2104 2190 2261 2299 2302 2325
2910.0 2314 2335 2402 2572 2845 3197 3503 3683 3817 3876
2950.0 3846 3806 3839 4147 4724 5156 5373 5393 5063 4558
2990.0 3669 2662 2006 1572 1320 1160 1006 863 759 652
3030.0 562 584 594 580 619 610 601 718 869 1027
3070.0 1144 1204 1300 1353 1313 1182 991 877 835 751
3110.0 679 582 501 546 479 368 314 199 123 173
3150.0 229 212 192 225 262 265 265 251 206 212
3190.0 244 260 231 203 213 159 98 152 156 104
3230.0 151 171 122 91 147 156 112 87 99 169
3270.0 121 119 123 51 107 136 90 93 116 117
3310.0 92 59 65 106 136 89 72 146 189 152
3350.0 134 162 177 157 62 70 104 57 85 143
3390.0 165 128 74 79 106 93 79 99 128 113
3430.0 95 88 83 71 70 112 103 86 121 124
3470.0 87 110 137 123 93 63 42 24 37 99
3510.0 122 146 137 114 109 67 84 142 105 6
3550.0 28 82 98 97 63 43 88 117 79 111
3590.0 148 92 162 192 136 141 141 151 161 178
3630.0 108 43 115 117 61 70 125 143 120 83
3670.0 34 56 54 0 66 162 162 97 50 46
3710.0 86 87 54 104 163 151 135 186 130 86
3750.0 168 147 117 153 160 88 51 145 193 175
3790.0 172 192 209 174 117 118 103 150 217 167
3830.0 165 179 179 141 190
##END=
