##TITLE=Isopropylcyclobutane
##JCAMP-DX=4.24
##DATA TYPE=INFRARED SPECTRUM
##ORIGIN=NIST Mass Spectrometry Data Center
##OWNER=NIST Standard Reference Data Program
Collection (C) 2018 copyright by the U.S. Secretary of Commerce
on behalf of the United States of America. All rights reserved.
##CAS REGISTRY NO=872-56-0
##MOLFORM=C 7 H 14
##$NIST SOURCE=MSDC-IR
##SPECTROMETER/DATA SYSTEM=HP-GC/MS/IRD
##STATE=gas
##XUNITS=1/CM
##YUNITS=ABSORBANCE
##XFACTOR=1.0
##YFACTOR=0.000002100
##DELTAX=4.0
##FIRSTX=550.0
##LASTX=3846.0
##FIRSTY=0.000202
##MAXX=3846
##MINX=550
##MAXY=0.021
##MINY=0
##NPOINTS=825
##XYDATA=(X++(Y..Y))
550.0 96 45 0 52 41 54 65 48 98 135
590.0 134 131 139 157 181 174 134 98 90 84
630.0 62 45 126 160 105 124 213 202 136 119
670.0 182 179 125 118 99 92 117 127 96 75
710.0 112 156 155 140 151 131 109 124 108 93
750.0 117 141 139 119 124 136 155 162 174 153
790.0 150 158 118 103 96 98 85 87 73 77
830.0 119 117 126 123 119 123 117 130 145 172
870.0 189 156 143 165 158 153 161 139 156 186
910.0 171 170 181 187 200 199 195 190 172 177
950.0 165 136 127 133 141 118 109 133 139 144
990.0 160 155 154 185 187 150 119 118 120 132
1030.0 132 149 130 121 140 146 147 122 116 116
1070.0 115 103 99 107 77 53 44 57 88 81
1110.0 82 101 118 126 157 179 156 194 189 160
1150.0 182 183 193 203 198 181 180 171 153 143
1190.0 155 172 162 135 131 163 183 182 193 202
1230.0 216 244 259 272 255 232 233 235 226 229
1270.0 252 271 296 329 365 381 388 374 327 298
1310.0 265 228 223 210 186 196 208 208 212 234
1350.0 272 336 413 471 508 542 630 702 685 648
1390.0 598 522 439 348 277 227 204 201 200 218
1430.0 259 319 387 442 506 578 623 661 711 732
1470.0 726 673 579 503 431 351 285 228 180 154
1510.0 140 111 101 102 96 104 107 94 85 86
1550.0 93 102 115 105 87 82 82 80 78 78
1590.0 78 70 78 79 77 82 74 67 67 73
1630.0 69 72 79 83 90 97 94 92 93 88
1670.0 94 91 75 77 90 89 88 88 80 66
1710.0 70 71 61 62 34 36 55 49 39 33
1750.0 45 53 56 59 55 50 59 70 56 50
1790.0 48 44 53 41 41 51 51 55 43 40
1830.0 50 50 54 49 41 50 48 47 54 54
1870.0 56 54 50 48 46 47 44 33 32 41
1910.0 41 44 53 41 36 47 44 47 39 30
1950.0 46 48 47 41 39 46 35 32 35 34
1990.0 26 24 31 37 33 26 29 36 36 37
2030.0 42 41 39 37 39 42 39 35 41 43
2070.0 40 49 48 45 47 37 33 31 31 38
2110.0 50 49 44 50 48 58 65 57 64 73
2150.0 71 70 62 53 60 53 41 50 53 59
2190.0 64 49 41 35 28 42 42 38 37 42
2230.0 42 24 18 22 22 26 22 11 15 22
2270.0 33 41 34 25 27 32 33 30 29 38
2310.0 39 28 29 30 27 20 35 51 55 51
2350.0 42 34 35 46 39 35 35 31 32 35
2390.0 40 45 40 33 36 48 42 22 26 34
2430.0 25 20 16 24 44 42 28 32 41 43
2470.0 40 39 33 34 41 41 43 44 50 54
2510.0 53 46 33 22 26 37 30 31 33 28
2550.0 39 40 39 39 40 55 58 49 60 61
2590.0 73 86 83 82 84 79 77 81 76 79
2630.0 88 86 91 94 85 73 87 90 76 79
2670.0 75 80 88 88 80 69 70 88 100 103
2710.0 106 96 117 138 130 132 140 128 123 146
2750.0 146 130 133 140 138 134 132 136 139 149
2790.0 154 161 181 190 229 247 241 269 301 344
2830.0 384 443 520 614 760 974 1241 1593 2056 2556
2870.0 3007 3359 3605 3771 3887 3918 3792 3604 3504 3442
2910.0 3406 3453 3585 3774 3992 4299 4691 5177 5793 6583
2950.0 7557 8664 9673 10000 9864 9539 9263 8443 6345 4614
2990.0 3548 2683 1989 1407 983 699 555 483 435 401
3030.0 385 361 335 336 361 360 321 295 304 302
3070.0 290 287 269 237 236 236 212 207 200 186
3110.0 177 153 130 129 141 165 166 139 136 144
3150.0 142 136 140 140 136 142 143 139 126 97
3190.0 98 109 94 86 91 92 87 86 91 80
3230.0 64 78 86 90 88 79 56 42 54 73
3270.0 83 66 53 64 62 50 63 71 74 70
3310.0 48 40 44 58 61 59 46 35 30 29
3350.0 39 31 35 61 65 61 77 77 56 45
3390.0 42 52 60 39 39 60 59 44 69 65
3430.0 45 65 54 32 19 33 23 15 46 58
3470.0 43 43 58 43 22 31 39 41 30 15
3510.0 27 18 22 56 32 28 49 49 45 49
3550.0 50 42 57 60 55 40 30 39 37 28
3590.0 14 38 71 50 42 59 74 66 35 27
3630.0 35 32 24 31 37 41 29 25 37 49
3670.0 36 42 50 61 72 74 63 27 36 54
3710.0 54 62 74 66 78 93 78 71 79 73
3750.0 55 61 57 38 49 57 38 26 37 50
3790.0 50 54 75 68 46 31 40 57 51 57
3830.0 71 88 79 50 42
##END=
