##TITLE=2-Pyridinealdoxime
##JCAMP-DX=4.24
##DATA TYPE=INFRARED SPECTRUM
##ORIGIN=EPA-IR VAPOR PHASE LIBRARY
##OWNER=SRD/NIST
Collection (C) 2018 copyright by the U.S. Secretary of Commerce
on behalf of the United States of America. All rights reserved.
##CAS REGISTRY NO=873-69-8
##MOLFORM=C 6 H 6 N 2 O
##$NIST SOURCE=MSDC-IR
##STATE=gas
##XUNITS=1/CM
##YUNITS=ABSORBANCE
##XFACTOR=1.
##YFACTOR=0.001
##DELTAX=1.92898
##FIRSTX=549.8
##LASTX=4000.7
##FIRSTY=1.29
##MAXX=4000.7
##MINX=549.759
##MAXY=0.03974
##MINY=0
##NPOINTS=1790
##XYDATA=(X++(Y..Y))
549.759 1.29 1.29 1.4 1.19 0.8099 1.0409 1.08 1.0778 1.0767 1.0011
569.049 1.0651 0.8657 0.8065 0.7638 0.854 1.105 1.0832 0.9786 0.9476 1.029
588.339 1.18 1.21 1.19 1.28 1.49 1.6 1.59 1.63 1.84 2.3
607.628 2.75 3.31 3.95 4.21 3.81 3.32 3.47 3.53 3.87 4.14
626.918 3.68 3.01 2.44 1.96 1.64 1.66 1.78 1.97 2.37 2.79
646.208 3.39 4.01 4.53 4.99 5.32 6.05 7.1 8.01 8.77 9.42
665.498 9.82 9.87 9.47 8.86 8.47 8.37 8.01 7.23 6.27 5.21
684.787 4.46 4.08 3.96 3.83 3.68 3.74 3.85 3.85 3.78 3.73
704.077 3.5 3.12 2.9 2.8 2.63 2.68 2.83 2.96 3.22 3.72
723.367 4.2 4.59 5.02 5.53 6.1 6.6 7.01 7.53 8.45 9.36
742.657 9.7 9.51 9.32 9.21 9.06 9.2 9.45 9.64 9.83 9.91
761.947 10.14 10.31 10.43 10.53 10.83 11.44 12.43 12.65 10.86 9.26
781.236 8.59 8.06 7.56 6.91 6.2 5.39 4.6 4.1 3.59 3.02
800.526 2.78 2.59 2.24 2 1.88 1.69 1.6 1.41 1.1151 1.077
819.816 1.1126 1.0459 0.8682 0.8398 0.9412 0.9768 1.0457 1.0349 1.0324 1.0399
839.106 0.9111 0.9499 1.0881 1.22 1.32 1.43 1.71 2.05 2.49 3.31
858.395 4.76 6.82 9.15 11.35 12.91 13.6 13.76 13.8 14.14 15.21
877.685 15.81 14.54 12.07 9.38 7.4 6.2 5.45 5.03 4.52 3.92
896.975 3.35 2.87 2.65 2.54 2.46 2.56 2.75 2.9 3.09 3.32
916.265 3.58 4.06 4.68 5.31 6.01 6.76 7.78 9.12 10.75 12.78
935.555 15.13 17.77 20.82 24.24 27.62 30.81 33.93 36.84 38.88 39.74
954.844 39.48 38.35 36.69 34.51 31.85 28.13 23.05 17.42 12.57 9.16
974.134 6.96 5.77 5.02 4.75 4.79 4.91 5.12 4.89 4.34 4.17
993.424 4.21 4.15 4.24 4.11 3.55 2.8 2.2 1.93 1.75 1.61
1012.714 1.65 1.61 1.51 1.52 1.56 1.56 1.37 1.3 1.61 1.69
1032.003 1.6 1.62 1.7 1.85 1.92 1.97 1.93 1.82 1.88 2.02
1051.293 2.06 2.1 1.96 1.75 1.65 1.51 1.36 1.23 1.31 1.23
1070.583 1.1006 1.2 1.2 1.24 1.52 2.17 2.64 2.59 2.69 2.95
1089.873 2.88 2.79 2.93 2.82 2.5 2.4 2.15 1.73 1.51 1.28
1109.163 1.18 1.15 1.0048 1.0006 0.8592 0.5131 0.611 0.9868 0.8085 0.6018
1128.452 0.7042 0.8682 1.17 1.43 1.52 1.79 2.23 2.38 2.24 2.34
1147.742 2.3 2.12 2.16 2.27 2.09 1.5 0.9641 0.6825 0.6981 0.6532
1167.032 0.3889 0.23175 0.2978 0.4695 0.541 0.3509 0.3041 0.3623 0.3931 0.3373
1186.322 0.2486 0.3189 0.3105 0.4575 0.4962 0.3989 0.4524 0.5019 0.5206 0.4584
1205.611 0.2886 0.3859 0.5384 0.5458 0.7955 0.6798 0.4729 0.7337 1.0864 1.29
1224.901 1.57 2.11 2.66 3.19 3.68 4.25 4.79 5.25 6.04 7.02
1244.191 8.09 9.34 10.71 12.16 13.72 15.43 17.19 18.64 19.15 18.84
1263.481 18.48 17.93 16.91 15.61 13.82 11.4 8.6 6.19 4.6 3.6
1282.771 3.23 3.11 3.04 2.94 2.71 2.58 2.48 2.36 2.34 2.22
1302.060 1.87 1.47 1.1359 0.8731 0.7463 0.696 0.6431 0.6119 0.6392 0.6417
1321.350 0.6173 0.6477 0.6371 0.5996 0.633 0.6512 0.661 0.6633 0.6512 0.6541
1340.640 0.6512 0.6698 0.687 0.6945 0.7025 0.7148 0.7002 0.7311 0.8128 0.8394
1359.930 0.9011 0.9816 1.0484 1.105 1.121 1.15 1.23 1.37 1.56 1.77
1379.219 2.08 2.5 2.94 3.42 3.94 4.4 4.73 4.93 5.03 5.08
1398.509 5.07 4.99 4.78 4.42 3.95 3.43 3.01 2.78 2.66 2.65
1417.799 2.81 3.17 3.71 4.43 5.27 6.06 6.67 7.01 7.21 7.36
1437.089 7.35 7.19 6.94 6.43 5.71 4.95 4.23 3.78 3.67 3.95
1456.378 4.69 5.75 7 8.4 9.71 10.78 11.44 11.66 11.55 11.24
1475.668 10.77 10.05 9.05 7.64 5.85 4.16 2.87 2.09 1.67 1.39
1494.958 1.28 1.24 1.19 1.1323 1.0724 1.0318 0.967 0.8853 0.8327 0.8067
1514.248 0.8084 0.7693 0.7467 0.8033 0.7662 0.702 0.7001 0.657 0.6117 0.646
1533.538 0.7523 0.8643 1.0076 1.17 1.29 1.46 1.68 1.89 2.18 2.52
1552.827 2.89 3.36 3.94 4.65 5.35 5.96 6.59 7.23 7.98 9.01
1572.117 10.14 11.15 11.93 12.25 12.15 11.96 11.76 11.51 11.17 10.56
1591.407 9.6 8.51 7.38 6.22 5.21 4.38 3.63 2.93 2.35 2.01
1610.697 1.81 1.61 1.51 1.51 1.46 1.39 1.28 1.19 1.18 1.1135
1629.986 0.9747 0.8996 0.8699 0.8334 0.8122 0.7381 0.6733 0.6679 0.6803 0.7051
1649.276 0.7055 0.6447 0.6188 0.6758 0.7058 0.6991 0.7092 0.7086 0.7121 0.6856
1668.566 0.6186 0.5709 0.5524 0.4887 0.4678 0.5124 0.4855 0.4868 0.5137 0.5346
1687.856 0.5631 0.5122 0.4665 0.5108 0.5524 0.5345 0.5234 0.4887 0.4828 0.5302
1707.146 0.5335 0.4946 0.4682 0.4584 0.4719 0.4688 0.4295 0.4396 0.4114 0.3793
1726.435 0.4076 0.4303 0.4551 0.4981 0.463 0.4059 0.3996 0.3755 0.3825 0.3887
1745.725 0.3556 0.3351 0.3445 0.3363 0.3253 0.3365 0.3483 0.3272 0.3654 0.407
1765.015 0.4013 0.438 0.4535 0.4706 0.464 0.4299 0.4425 0.4198 0.3585 0.3462
1784.305 0.3278 0.2727 0.2606 0.2849 0.3367 0.3306 0.2784 0.2765 0.3025 0.2867
1803.594 0.2743 0.2877 0.3085 0.323 0.3188 0.3548 0.3745 0.3675 0.4126 0.4495
1822.884 0.5033 0.5254 0.5113 0.5427 0.547 0.5813 0.5927 0.6311 0.6572 0.6527
1842.174 0.6974 0.7489 0.7608 0.7485 0.7586 0.7482 0.7926 0.8929 0.9232 0.9095
1861.464 0.9436 1.0012 1.0719 1.134 1.15 1.19 1.25 1.25 1.24 1.25
1880.754 1.28 1.27 1.25 1.24 1.16 1.1311 1.15 1.16 1.1257 1.1277
1900.043 1.1041 1.0345 1.07 1.0703 1.0588 1.0776 1.052 0.997 0.956 0.9706
1919.333 0.9087 0.7952 0.7408 0.7319 0.7214 0.7097 0.6875 0.6403 0.6517 0.6501
1938.623 0.638 0.6505 0.6596 0.6873 0.6694 0.6452 0.6512 0.6745 0.6941 0.6952
1957.913 0.6879 0.6718 0.6592 0.6693 0.6913 0.6418 0.5911 0.6365 0.6419 0.5824
1977.202 0.5762 0.575 0.4807 0.4519 0.4384 0.3607 0.3695 0.3397 0.3094 0.2738
1996.492 0.2505 0.2891 0.2574 0.2672 0.2363 0.1872 0.20282 0.2401 0.2672 0.2692
2015.782 0.2744 0.23532 0.2572 0.2642 0.22861 0.2479 0.2775 0.2685 0.2273 0.21889
2035.072 0.22914 0.2576 0.264 0.23294 0.2443 0.2833 0.286 0.29 0.2917 0.2717
2054.362 0.3 0.2704 0.22723 0.23437 0.2459 0.2872 0.2775 0.2739 0.2883 0.2922
2073.651 0.2989 0.3014 0.3301 0.2964 0.2602 0.2766 0.23998 0.246 0.2756 0.23668
2092.941 0.23282 0.2509 0.2601 0.2594 0.22943 0.21693 0.21528 0.20246 0.18672 0.20057
2112.231 0.22044 0.20391 0.21211 0.21488 0.19965 0.22322 0.22307 0.20721 0.22662 0.23042
2131.521 0.19655 0.16187 0.22337 0.2942 0.2569 0.19773 0.1702 0.18733 0.18302 0.1547
2150.810 0.18131 0.17817 0.18048 0.20676 0.21031 0.20194 0.21779 0.2451 0.2443 0.2444
2170.100 0.2444 0.2782 0.2931 0.2988 0.3396 0.329 0.2967 0.2863 0.2598 0.2601
2189.390 0.3132 0.3478 0.3124 0.2714 0.23882 0.20243 0.22812 0.23616 0.21114 0.23563
2208.680 0.2791 0.2651 0.23259 0.2456 0.2611 0.2979 0.3469 0.2856 0.23906 0.2597
2227.970 0.2847 0.3224 0.3111 0.3311 0.343 0.305 0.2925 0.2633 0.2782 0.2807
2247.259 0.20163 0.18878 0.23843 0.2848 0.3108 0.3093 0.2976 0.2833 0.23617 0.2386
2266.549 0.2861 0.279 0.2611 0.2651 0.3024 0.3179 0.3003 0.324 0.3357 0.3464
2285.839 0.3541 0.3662 0.3901 0.3973 0.4531 0.4877 0.4644 0.4432 0.4225 0.3921
2305.129 0.3761 0.3663 0.3591 0.3621 0.323 0.2524 0.21525 0.256 0.3428 0.3567
2324.418 0.3285 0.3547 0.3725 0.3431 0.3231 0.3386 0.3489 0.3864 0.4021 0.3866
2343.708 0.3533 0.3381 0.3606 0.3359 0.3178 0.383 0.4091 0.3977 0.3862 0.345
2362.998 0.3045 0.251 0.23915 0.2572 0.2646 0.23129 0.20001 0.19123 0.19012 0.18693
2382.288 0.1794 0.16322 0.19348 0.21788 0.21348 0.20082 0.17431 0.19905 0.21414 0.21878
2401.578 0.2332 0.2635 0.291 0.2429 0.2732 0.2736 0.18698 0.20696 0.2701 0.2471
2420.867 0.21514 0.23407 0.2419 0.2711 0.2971 0.2914 0.2609 0.2672 0.3247 0.307
2440.157 0.3057 0.3305 0.3064 0.2835 0.2918 0.3429 0.3856 0.4291 0.3959 0.3288
2459.447 0.2791 0.2569 0.3238 0.3589 0.3219 0.2873 0.2902 0.3177 0.3138 0.3425
2478.737 0.3385 0.2744 0.29 0.2896 0.23937 0.328 0.4134 0.4255 0.4397 0.4536
2498.026 0.4555 0.4575 0.4575 0.4301 0.3851 0.4048 0.4572 0.4351 0.3745 0.3438
2517.316 0.3641 0.3588 0.3321 0.3506 0.3465 0.3461 0.3917 0.3632 0.3546 0.3463
2536.606 0.3355 0.3427 0.262 0.22225 0.2853 0.317 0.3178 0.3135 0.3282 0.3117
2555.896 0.2643 0.2707 0.2491 0.23176 0.2564 0.2758 0.3182 0.337 0.3074 0.3123
2575.186 0.373 0.3868 0.3247 0.2841 0.2903 0.3316 0.3406 0.3723 0.371 0.3198
2594.475 0.3216 0.3224 0.2879 0.2783 0.2894 0.287 0.3325 0.322 0.317 0.3669
2613.765 0.3109 0.3033 0.3804 0.4062 0.3714 0.371 0.42 0.4211 0.4322 0.4543
2633.055 0.4806 0.5026 0.5317 0.5952 0.6381 0.6672 0.6468 0.5978 0.6206 0.6289
2652.345 0.5656 0.5319 0.569 0.5027 0.4402 0.4824 0.4313 0.3537 0.3388 0.2912
2671.634 0.23815 0.2658 0.277 0.3126 0.33 0.2654 0.2878 0.2834 0.2575 0.2981
2690.924 0.2802 0.2573 0.2989 0.2844 0.22356 0.21677 0.22976 0.3161 0.357 0.2902
2710.214 0.2523 0.2589 0.2692 0.21556 0.1241 0.13427 0.0843 0.0483 0.105 0.142051
2729.504 0.22285 0.22059 0.23711 0.2517 0.17795 0.17458 0.2409 0.2641 0.2439 0.2538
2748.794 0.20787 0.22785 0.2528 0.21747 0.2526 0.2863 0.3056 0.2533 0.146829 0.16473
2768.083 0.3163 0.4152 0.3652 0.2951 0.3352 0.3721 0.3569 0.2972 0.2748 0.3331
2787.373 0.375 0.3762 0.3266 0.3209 0.3708 0.3866 0.3008 0.2273 0.2659 0.2858
2806.663 0.2592 0.2563 0.3004 0.2907 0.2664 0.3058 0.308 0.22792 0.22158 0.2568
2825.953 0.22345 0.2602 0.282 0.282 0.3456 0.3732 0.338 0.3236 0.355 0.3539
2845.242 0.3211 0.3207 0.3736 0.3783 0.3202 0.3399 0.384 0.3487 0.3804 0.4274
2864.532 0.3947 0.2918 0.2777 0.3291 0.2973 0.4001 0.4229 0.2748 0.2677 0.3858
2883.822 0.3659 0.3074 0.3876 0.4829 0.458 0.3622 0.3908 0.3868 0.3609 0.3622
2903.112 0.3893 0.3781 0.3598 0.4127 0.3612 0.3587 0.394 0.3798 0.3801 0.4108
2922.401 0.4397 0.517 0.5133 0.4352 0.5693 0.7028 0.6351 0.6132 0.7482 0.8169
2941.691 0.7393 0.727 0.724 0.6198 0.5715 0.5303 0.5193 0.5305 0.4848 0.5194
2960.981 0.6076 0.6998 0.7971 0.8751 0.8776 0.8817 1.0135 1.1272 1.27 1.41
2980.271 1.47 1.56 1.76 1.89 1.85 1.97 2.01 1.98 2.04 1.99
2999.561 1.92 1.94 2.07 2.14 2.14 2.22 2.26 2.4 2.67 2.88
3018.850 2.99 3.09 3.18 3.21 3.33 3.38 3.31 3.32 3.26 3.12
3038.140 3.09 3.11 3.14 3.25 3.56 3.85 4.1 4.42 4.67 4.96
3057.430 5.33 5.56 5.96 6.57 7.13 7.58 7.74 7.65 7.44 7.21
3076.720 6.86 6.54 6.26 5.77 5.22 4.64 3.98 3.33 2.92 2.71
3096.009 2.58 2.43 2.2 1.85 1.58 1.41 1.29 1.2 1.0953 0.9748
3115.299 0.8646 0.8609 0.754 0.6682 0.7484 0.8377 0.8468 0.8393 0.8318 0.791
3134.589 0.6994 0.6801 0.7488 0.7608 0.731 0.7219 0.697 0.724 0.6118 0.4093
3153.879 0.4235 0.4076 0.3751 0.3362 0.2675 0.28 0.359 0.4479 0.4254 0.375
3173.169 0.3858 0.3696 0.3758 0.3644 0.3553 0.3734 0.3292 0.3606 0.3479 0.2557
3192.458 0.272 0.23202 0.16118 0.242 0.25 0.18638 0.23366 0.2992 0.3335 0.2714
3211.748 0.2811 0.3208 0.2563 0.20396 0.19933 0.2658 0.19304 0.1201 0.2696 0.3096
3231.038 0.2832 0.4442 0.4564 0.3982 0.4917 0.5563 0.5559 0.5051 0.3975 0.4163
3250.328 0.501 0.3728 0.3904 0.5286 0.4925 0.4506 0.3923 0.3681 0.3423 0.3324
3269.617 0.3149 0.2859 0.4082 0.3795 0.23886 0.22694 0.2878 0.3282 0.2707 0.2495
3288.907 0.23258 0.22082 0.18432 0.15465 0.20359 0.19367 0.20416 0.288 0.3801 0.3587
3308.197 0.23268 0.1244 0.15041 0.286 0.3796 0.3375 0.20329 0.20572 0.3605 0.362
3327.487 0.3614 0.3713 0.20425 0.20302 0.2892 0.2676 0.2427 0.2477 0.2611 0.16698
3346.777 0.0922 0.0566 0.16824 0.3151 0.22336 0.144979 0.0897 0.0658 0.0493 0.1281
3366.066 0.18501 0.17407 0.1644 0.16859 0.20358 0.1084 0.0829 0.1142 0.13545 0.18186
3385.356 0.13485 0.0911 0.1256 0.16731 0.2909 0.2853 0.1171 0.1009 0.16058 0.1219
3404.646 0.1033 0.1183 0.0605 0.0553 0.1222 0.16909 0.16997 0.2689 0.2782 0.20524
3423.936 0.2246 0.2862 0.2751 0.1894 0.15151 0.1528 0.2643 0.2588 0.23004 0.2908
3443.225 0.2881 0.21755 0.21937 0.2599 0.3193 0.3241 0.17711 0.1105 0.311 0.455
3462.515 0.3825 0.2881 0.2762 0.3389 0.3545 0.3421 0.2887 0.2911 0.3389 0.3178
3481.805 0.3498 0.3174 0.2615 0.3376 0.3939 0.4028 0.3279 0.3907 0.4623 0.3014
3501.095 0.2624 0.2851 0.17621 0.13309 0.139202 0.2723 0.3807 0.3681 0.4132 0.2889
3520.385 0.17715 0.18724 0.15881 0.20175 0.22423 0.22423 0.2646 0.3283 0.3517 0.3914
3539.674 0.376 0.2764 0.3727 0.4343 0.4187 0.5018 0.5805 0.5666 0.5603 0.6641
3558.964 0.6499 0.6877 0.7585 0.7696 0.7719 0.6334 0.5897 0.5715 0.5474 0.6323
3578.254 0.6344 0.5715 0.5848 0.6475 0.6046 0.6333 0.8688 0.9105 0.8001 0.9091
3597.544 1.0711 1.23 1.43 1.75 1.94 2.29 2.96 3.56 4.25 4.91
3616.833 5.71 6.83 8.15 9.57 11.36 13.52 16.18 19.33 22.72 26.61
3636.123 29.74 30.79 29.23 27.36 26.22 24.98 24.9 23.46 18.64 13.24
3655.413 8.86 5.78 3.88 2.83 2.12 1.71 1.51 1.31 1.16 0.8815
3674.703 0.6959 0.6685 0.6144 0.5795 0.5661 0.491 0.4666 0.6091 0.6792 0.5715
3693.993 0.5381 0.6695 0.7773 0.7175 0.6093 0.5673 0.6193 0.636 0.5812 0.7046
3713.282 0.7753 0.7047 0.6828 0.6474 0.7135 0.7326 0.6864 0.609 0.4925 0.3382
3732.572 0.4585 0.7356 0.5978 0.343 0.3556 0.4087 0.4958 0.5707 0.3834 0.4216
3751.862 0.4336 0.2307 0.269 0.2873 0.2987 0.2723 0.372 0.3963 0.2992 0.3952
3771.152 0.4017 0.2957 0.19531 0.3034 0.2668 0.18699 0.18063 0.1854 0.16613 0.18054
3790.441 0.3011 0.286 0.23287 0.2577 0.2885 0.4114 0.365 0.2836 0.2893 0.267
3809.731 0.2944 0.21558 0.2967 0.3025 0.1084 0.15148 0.308 0.2925 0.2925 0.2992
3829.021 0.3276 0.3524 0.19833 0.0899 0.1063 0.13297 0.245 0.3517 0.17837 0.18476
3848.311 0.21247 0.15313 0.3028 0.3048 0.3169 0.3874 0.21695 0.0538 0.22103 0.3579
3867.601 0.2666 0.19604 0.147623 0.1028 0.144292 0.23616 0.2422 0.2707 0.2873 0.145474
3886.890 0.0629 0 0.0457 0.17346 0.18684 0.18756 0.16075 0.2441 0.3099 0.2135
3906.180 0.2467 0.3797 0.4 0.3381 0.2915 0.2579 0.21347 0.15352 0.2902 0.4085
3925.470 0.4127 0.4295 0.3946 0.4124 0.5165 0.6201 0.4883 0.4177 0.409 0.3228
3944.760 0.2529 0.2761 0.3407 0.2446 0.17822 0.3041 0.4123 0.4449 0.4226 0.4048
3964.049 0.4521 0.4128 0.416 0.4846 0.3963 0.23488 0.3112 0.3496 0.3207 0.3734
3983.339 0.3915 0.4228 0.4102 0.435 0.536 0.4343 0.3317 0.3531 0.343 0.3856
##END=
