##TITLE=cis-Propenylbenzene
##JCAMP-DX=4.24
##DATA TYPE=INFRARED SPECTRUM
##ORIGIN=NIST Mass Spectrometry Data Center
##OWNER=NIST Standard Reference Data Program
Collection (C) 2018 copyright by the U.S. Secretary of Commerce
on behalf of the United States of America. All rights reserved.
##CAS REGISTRY NO=873-66-5
##MOLFORM=C 9 H 10
##$NIST SOURCE=MSDC-IR
##SPECTROMETER/DATA SYSTEM=HP-GC/MS/IRD
##STATE=gas
##XUNITS=1/CM
##YUNITS=ABSORBANCE
##XFACTOR=1.0
##YFACTOR=0.000001300
##DELTAX=4.0
##FIRSTX=550.0
##LASTX=3846.0
##FIRSTY=0.000260
##MAXX=3846
##MINX=550
##MAXY=0.013
##MINY=0
##NPOINTS=825
##XYDATA=(X++(Y..Y))
550.0 200 78 102 98 44 13 1 14 73 89
590.0 93 120 129 81 80 166 238 292 298 348
630.0 384 486 735 938 1098 1248 1334 1401 1504 1774
670.0 2193 2805 3715 4822 6027 7329 8813 9346 8625 7674
710.0 6567 5333 4197 3303 2729 2475 2486 2690 3097 3642
750.0 4276 4968 5585 5594 4841 4018 3360 2769 2314 2044
790.0 1893 1885 1982 2020 1930 1660 1309 1049 806 593
830.0 458 362 311 280 239 211 196 231 241 191
870.0 195 255 317 376 442 545 695 886 1117 1345
910.0 1511 1575 1561 1547 1441 1265 1108 961 759 525
950.0 375 291 235 234 240 210 194 182 150 150
990.0 165 187 200 206 255 324 476 716 890 942
1030.0 944 884 731 591 547 558 595 659 744 779
1070.0 806 818 790 717 607 525 428 313 256 204
1110.0 168 170 165 148 90 50 54 46 22 43
1150.0 97 102 81 79 107 130 117 121 150 151
1190.0 140 131 139 124 115 119 111 85 83 96
1230.0 113 163 184 186 187 171 158 147 106 93
1270.0 133 149 129 114 118 144 158 173 199 214
1310.0 232 259 274 284 310 317 313 338 379 421
1350.0 493 616 772 970 1128 1211 1214 1189 1077 971
1390.0 1006 1202 1477 1678 1738 1712 1620 1449 1308 1270
1430.0 1354 1522 1670 1703 1687 1664 1568 1407 1208 1060
1470.0 1007 1051 1237 1575 2010 2330 2400 2286 2055 1633
1510.0 1066 694 549 478 461 470 474 470 468 465
1550.0 448 437 457 476 496 528 586 681 802 975
1590.0 1203 1353 1370 1292 1135 904 664 501 433 422
1630.0 439 474 523 613 721 809 869 869 829 747
1670.0 638 539 451 378 315 273 263 276 292 310
1710.0 327 353 391 407 418 421 416 419 408 393
1750.0 371 334 316 291 269 273 283 309 355 396
1790.0 434 459 457 438 386 325 264 215 197 182
1830.0 154 136 128 138 156 168 192 233 272 313
1870.0 356 408 450 449 399 347 311 264 209 171
1910.0 179 200 232 283 339 389 431 466 500 526
1950.0 506 439 378 308 230 174 144 156 160 166
1990.0 183 185 169 153 134 107 88 64 54 50
2030.0 45 45 34 34 42 38 36 20 12 23
2070.0 21 15 16 7 1 8 5 6 11 14
2110.0 20 11 13 19 4 1 11 10 15 25
2150.0 35 26 15 17 23 21 7 9 12 7
2190.0 11 2 7 20 19 26 34 27 23 26
2230.0 21 17 18 31 48 52 51 53 51 48
2270.0 48 48 47 54 52 47 53 75 90 85
2310.0 93 92 94 110 104 96 102 108 97 80
2350.0 73 83 87 80 78 74 77 65 44 34
2390.0 35 48 44 37 38 28 29 44 35 23
2430.0 33 38 40 41 29 27 29 37 48 45
2470.0 32 10 2 19 32 25 23 38 44 40
2510.0 38 52 55 44 39 46 49 37 43 56
2550.0 53 43 32 36 53 43 52 58 55 59
2590.0 66 83 74 81 87 66 59 61 54 57
2630.0 62 43 32 40 40 37 41 46 55 46
2670.0 52 51 44 55 64 60 65 59 51 70
2710.0 92 112 119 127 141 143 151 162 164 169
2750.0 161 150 165 185 203 207 224 246 254 264
2790.0 260 272 298 320 345 360 365 359 369 394
2830.0 436 487 527 600 705 833 988 1147 1328 1501
2870.0 1617 1666 1719 1742 1703 1643 1618 1658 1751 1909
2910.0 2132 2430 2763 3051 3290 3421 3408 3319 3169 2988
2950.0 2824 2626 2408 2212 2105 2083 2148 2262 2342 2375
2990.0 2406 2461 2624 3028 3800 5028 6704 8374 9506 10000
3030.0 9883 9120 7757 6428 5631 5339 5545 6071 6511 6728
3070.0 6747 6523 5927 5069 4405 3984 3576 3076 2560 2105
3110.0 1700 1341 1049 834 659 520 444 418 401 374
3150.0 339 324 282 224 190 169 146 136 132 84
3190.0 97 116 117 115 97 96 92 105 100 79
3230.0 77 88 73 69 76 65 67 89 87 64
3270.0 70 77 94 108 91 89 87 73 51 49
3310.0 44 64 73 47 41 65 58 50 75 75
3350.0 86 86 67 42 11 0 16 45 62 54
3390.0 45 36 20 5 29 48 48 59 57 30
3430.0 32 54 52 42 50 61 32 17 25 29
3470.0 54 74 62 58 62 69 65 60 62 61
3510.0 67 94 98 77 66 74 71 59 63 60
3550.0 61 55 51 34 39 63 62 57 44 43
3590.0 49 54 51 51 76 83 103 113 108 120
3630.0 136 124 98 85 85 96 77 83 92 96
3670.0 136 142 119 95 95 99 92 106 124 124
3710.0 116 88 82 109 102 98 106 104 69 71
3750.0 101 80 72 67 89 98 68 68 79 90
3790.0 85 65 54 56 81 91 77 83 107 115
3830.0 87 76 88 86 89
##END=
