##TITLE=1,3-Dimethyl-4-ethylbenzene
##JCAMP-DX=4.24
##DATA TYPE=INFRARED SPECTRUM
##ORIGIN=NIST Mass Spectrometry Data Center
##OWNER=NIST Standard Reference Data Program
Collection (C) 2018 copyright by the U.S. Secretary of Commerce
on behalf of the United States of America. All rights reserved.
##CAS REGISTRY NO=874-41-9
##MOLFORM=C 10 H 14
##$NIST SOURCE=MSDC-IR
##SPECTROMETER/DATA SYSTEM=HP-GC/MS/IRD
##STATE=gas
##XUNITS=1/CM
##YUNITS=ABSORBANCE
##XFACTOR=1.0
##YFACTOR=0.000001100
##DELTAX=4.0
##FIRSTX=550.0
##LASTX=3846.0
##FIRSTY=0.000418
##MAXX=3846
##MINX=550
##MAXY=0.011
##MINY=0
##NPOINTS=825
##XYDATA=(X++(Y..Y))
550.0 380 493 625 764 718 553 419 323 283 148
590.0 12 60 82 109 100 71 77 97 49 34
630.0 41 58 94 75 69 83 64 78 31 22
670.0 99 156 131 38 111 202 199 155 146 153
710.0 122 125 124 95 121 191 196 156 164 189
750.0 176 167 168 208 259 267 313 381 465 665
790.0 895 1183 1625 2095 2519 3125 3426 2939 2456 1992
830.0 1381 939 675 516 415 392 388 434 514 616
870.0 710 658 502 373 330 265 198 224 241 259
910.0 290 284 307 308 299 278 265 309 324 309
950.0 346 403 460 497 523 488 455 443 414 393
990.0 393 414 441 486 509 514 496 471 462 460
1030.0 521 617 669 697 738 765 806 845 830 755
1070.0 645 500 386 317 247 216 223 225 234 219
1110.0 217 263 279 277 257 275 312 329 324 339
1150.0 378 376 364 362 352 312 256 206 186 189
1190.0 199 221 258 296 323 377 378 339 328 291
1230.0 270 267 272 277 277 293 280 265 270 274
1270.0 285 306 301 305 326 336 352 366 378 435
1310.0 526 578 614 639 628 580 502 450 461 466
1350.0 435 448 487 530 621 733 849 941 989 967
1390.0 882 776 707 739 796 855 913 946 1026 1139
1430.0 1251 1322 1430 1590 1727 1869 1946 2000 2068 2042
1470.0 1957 1836 1807 1882 2060 2390 2809 3191 3400 3250
1510.0 2898 2433 1875 1417 1133 989 895 765 685 687
1550.0 662 594 515 520 524 506 453 426 445 439
1590.0 472 538 616 724 849 965 997 945 840 674
1630.0 520 369 260 200 145 74 45 93 109 137
1670.0 125 127 143 93 86 144 91 22 49 103
1710.0 119 72 70 151 206 193 191 240 242 208
1750.0 181 171 143 115 107 80 63 71 72 74
1790.0 59 62 74 78 107 119 136 131 103 87
1830.0 99 98 91 69 57 92 121 128 147 168
1870.0 194 255 302 312 305 269 226 191 151 116
1910.0 104 94 78 81 77 76 87 88 72 73
1950.0 78 71 73 81 64 57 77 74 53 48
1990.0 42 45 66 71 73 82 74 80 72 59
2030.0 69 73 77 78 69 74 71 64 70 70
2070.0 59 52 66 69 56 49 48 53 66 51
2110.0 44 63 61 56 63 52 34 45 48 30
2150.0 27 43 51 48 53 60 50 42 49 41
2190.0 32 36 43 47 39 31 40 39 36 51
2230.0 47 32 42 59 67 64 63 54 69 71
2270.0 39 29 41 60 57 42 35 46 56 66
2310.0 52 42 39 24 12 16 24 25 25 19
2350.0 29 33 17 6 8 20 23 21 34 52
2390.0 60 62 62 62 51 43 62 77 75 75
2430.0 74 58 52 63 73 66 62 63 64 63
2470.0 41 51 64 52 40 48 70 72 66 73
2510.0 68 52 40 58 67 75 77 65 51 47
2550.0 53 46 48 17 6 17 44 59 62 55
2590.0 45 52 54 66 66 72 77 72 85 88
2630.0 76 91 107 90 79 89 81 77 84 74
2670.0 78 102 112 107 83 100 101 101 135 133
2710.0 142 173 197 208 240 298 348 390 427 434
2750.0 389 340 309 289 273 275 311 343 372 375
2790.0 377 400 425 451 483 510 564 623 674 739
2830.0 839 976 1111 1288 1506 1768 2118 2583 3154 3771
2870.0 4425 5098 5634 5919 5949 5778 5512 5275 5105 5086
2910.0 5276 5690 6289 7074 7923 8683 9207 9354 9120 8611
2950.0 8030 7647 7748 8471 9440 10000 9955 9316 8012 6579
2990.0 5671 5241 5264 5498 5704 5796 5724 5421 4980 4498
3030.0 4086 3796 3587 3433 3248 3002 2732 2449 2155 1926
3070.0 1738 1556 1393 1249 1117 988 884 807 752 720
3110.0 703 679 650 611 574 531 458 405 365 328
3150.0 317 299 269 256 254 210 184 215 228 230
3190.0 209 163 171 189 163 153 163 173 164 174
3230.0 157 146 160 170 154 109 92 96 106 110
3270.0 86 91 118 103 96 129 123 104 111 101
3310.0 118 119 85 73 89 83 61 61 70 73
3350.0 85 110 112 98 105 106 111 122 128 130
3390.0 102 82 96 101 87 82 99 98 86 108
3430.0 139 108 101 114 77 56 80 84 95 139
3470.0 124 86 73 59 65 70 87 92 75 75
3510.0 72 48 54 62 82 93 86 87 64 56
3550.0 52 75 80 75 54 80 98 56 40 18
3590.0 17 58 50 31 49 43 44 40 41 28
3630.0 21 71 103 72 34 14 9 23 70 79
3670.0 35 0 26 90 81 35 57 94 116 110
3710.0 76 100 96 58 60 66 43 46 48 33
3750.0 19 44 105 117 70 78 129 117 101 119
3790.0 161 153 118 93 80 112 98 75 110 137
3830.0 116 47 62 124 130
##END=
