##TITLE=1-Cyclopentyl-2-propen-1-ol
##JCAMP-DX=4.24
##DATA TYPE=INFRARED SPECTRUM
##ORIGIN=NIST Mass Spectrometry Data Center
##OWNER=NIST Standard Reference Data Program
Collection (C) 2018 copyright by the U.S. Secretary of Commerce
on behalf of the United States of America. All rights reserved.
##CAS REGISTRY NO=87453-54-1
##MOLFORM=C 8 H 14 O
##$NIST SOURCE=MSDC-IR
##SPECTROMETER/DATA SYSTEM=HP-GC/MS/IRD
##STATE=gas
##XUNITS=1/CM
##YUNITS=ABSORBANCE
##XFACTOR=1.0
##YFACTOR=0.000003000
##DELTAX=4.0
##FIRSTX=550.0
##LASTX=3846.0
##FIRSTY=0.001197
##MAXX=3846
##MINX=550
##MAXY=0.03
##MINY=0
##NPOINTS=825
##XYDATA=(X++(Y..Y))
550.0 399 211 77 86 100 93 96 126 130 126
590.0 104 100 116 127 129 131 135 119 121 131
630.0 95 102 117 82 84 88 86 99 99 120
670.0 147 170 187 177 191 203 189 163 138 140
710.0 133 126 114 102 88 81 83 73 63 70
750.0 89 87 71 65 73 94 90 72 44 29
790.0 42 44 38 28 24 31 54 60 48 65
830.0 80 88 109 123 120 146 174 171 179 194
870.0 217 257 320 397 488 586 699 830 985 1204
910.0 1523 1971 2424 2700 2747 2635 2318 1836 1436 1163
950.0 973 853 805 825 898 1038 1264 1558 1885 2194
990.0 2418 2553 2596 2549 2500 2497 2535 2590 2577 2473
1030.0 2303 2072 1791 1527 1322 1183 1089 1050 1058 1068
1070.0 1073 1073 1073 1062 1054 1052 1049 1061 1077 1101
1110.0 1130 1119 1101 1071 1011 939 855 762 697 655
1150.0 635 638 638 653 651 640 631 616 612 607
1190.0 607 621 650 686 714 763 823 872 901 926
1230.0 955 973 966 944 927 905 882 880 876 862
1270.0 847 840 842 834 815 811 806 799 796 791
1310.0 777 773 768 747 722 692 672 646 628 621
1350.0 621 628 635 632 627 605 575 535 494 474
1390.0 450 437 459 518 612 713 800 870 904 886
1430.0 839 776 711 672 650 644 629 604 562 496
1470.0 440 391 348 305 262 221 186 153 116 99
1510.0 87 73 62 55 49 38 30 27 28 23
1550.0 15 16 13 12 15 10 5 11 17 14
1590.0 20 30 32 31 34 48 60 67 89 122
1630.0 159 194 218 225 215 189 139 90 64 43
1670.0 30 17 13 15 2 0 11 16 19 20
1710.0 16 16 15 19 24 23 27 30 37 56
1750.0 76 95 109 121 134 139 140 132 116 94
1790.0 74 59 47 37 33 30 28 28 37 45
1830.0 65 100 134 166 197 213 213 195 166 128
1870.0 88 63 47 32 28 26 21 24 29 30
1910.0 23 23 27 27 24 21 26 24 22 24
1950.0 24 27 34 40 44 44 43 39 36 32
1990.0 30 33 28 25 32 36 30 29 34 36
2030.0 32 34 33 31 34 34 30 27 25 32
2070.0 37 34 31 26 26 29 27 30 29 30
2110.0 35 33 27 34 33 29 31 31 34 39
2150.0 40 39 41 45 48 45 44 44 42 44
2190.0 51 49 42 41 43 47 47 42 35 31
2230.0 36 41 37 39 40 38 38 38 40 40
2270.0 46 45 47 47 41 40 37 39 42 43
2310.0 45 48 46 45 52 58 59 54 54 56
2350.0 58 50 53 49 38 40 45 48 50 46
2390.0 41 42 41 44 48 42 37 41 42 35
2430.0 37 37 38 44 37 32 33 36 30 25
2470.0 28 29 36 41 43 37 31 32 32 34
2510.0 40 39 31 35 44 44 43 41 41 43
2550.0 42 38 43 52 54 58 60 60 76 81
2590.0 74 75 77 77 77 78 80 80 78 68
2630.0 68 71 69 73 73 74 79 72 61 62
2670.0 66 75 79 73 78 92 84 78 88 98
2710.0 102 94 86 88 99 112 117 111 105 103
2750.0 114 119 123 133 138 147 153 159 167 185
2790.0 216 234 244 272 303 332 377 431 499 586
2830.0 701 839 1000 1200 1427 1689 1995 2365 2840 3384
2870.0 3926 4352 4565 4582 4419 4116 3804 3586 3490 3512
2910.0 3604 3730 3890 4060 4238 4476 4825 5344 6094 7028
2950.0 8046 9000 9752 10000 9375 8179 6845 5497 4285 3323
2990.0 2639 2150 1803 1556 1373 1240 1134 1017 898 788
3030.0 687 595 521 465 428 397 389 415 463 525
3070.0 602 703 834 972 1050 1018 918 771 584 422
3110.0 300 217 167 138 113 108 106 107 99 84
3150.0 77 72 66 67 70 68 73 66 51 47
3190.0 53 62 59 53 61 67 57 50 53 57
3230.0 60 58 61 64 54 41 45 55 60 48
3270.0 36 27 25 40 45 37 41 45 46 55
3310.0 58 54 50 48 45 46 47 55 67 78
3350.0 76 66 58 56 70 67 66 74 75 77
3390.0 71 66 83 90 85 80 82 97 87 68
3430.0 70 79 85 83 83 93 98 96 93 92
3470.0 96 110 116 112 111 100 97 94 97 103
3510.0 104 111 114 112 98 90 96 108 129 114
3550.0 103 110 119 134 153 155 149 161 164 152
3590.0 145 147 142 143 152 170 201 234 272 343
3630.0 447 578 735 867 941 968 921 786 623 470
3670.0 348 270 221 195 171 161 147 125 121 127
3710.0 121 113 115 131 133 121 128 126 111 123
3750.0 131 118 117 120 126 137 140 132 131 123
3790.0 121 129 135 139 131 122 128 143 158 149
3830.0 142 156 147 141 155
##END=
