##TITLE=1,2,4-Triethylbenzene
##JCAMP-DX=4.24
##DATA TYPE=INFRARED SPECTRUM
##ORIGIN=NIST Mass Spectrometry Data Center
##OWNER=NIST Standard Reference Data Program
Collection (C) 2018 copyright by the U.S. Secretary of Commerce
on behalf of the United States of America. All rights reserved.
##CAS REGISTRY NO=877-44-1
##MOLFORM=C 12 H 18
##$NIST SOURCE=MSDC-IR
##SPECTROMETER/DATA SYSTEM=HP-GC/MS/IRD
##STATE=gas
##XUNITS=1/CM
##YUNITS=ABSORBANCE
##XFACTOR=1.0
##YFACTOR=0.000004500
##DELTAX=4.0
##FIRSTX=550.0
##LASTX=3846.0
##FIRSTY=0.000351
##MAXX=3846
##MINX=550
##MAXY=0.045
##MINY=0
##NPOINTS=825
##XYDATA=(X++(Y..Y))
550.0 78 84 96 78 49 48 42 25 28 25
590.0 22 28 26 54 69 69 76 75 100 100
630.0 84 68 53 43 25 15 22 17 6 0
670.0 8 28 34 32 24 18 30 48 51 51
710.0 43 48 57 55 40 37 37 32 46 55
750.0 58 61 53 63 77 91 116 130 159 193
790.0 212 246 292 356 458 616 815 995 1110 1124
830.0 973 732 517 340 221 156 130 125 145 205
870.0 303 428 552 664 688 556 389 256 144 81
910.0 58 42 31 34 36 32 32 45 63 77
950.0 93 126 163 190 205 193 167 142 119 95
990.0 81 78 73 74 76 73 81 95 117 140
1030.0 160 185 220 259 316 408 502 559 555 487
1070.0 386 283 195 143 116 103 95 86 82 88
1110.0 90 89 99 109 109 107 100 91 80 79
1150.0 107 128 142 159 152 128 104 76 61 57
1190.0 51 53 59 66 76 87 89 91 101 110
1230.0 115 126 139 141 138 137 135 134 134 130
1270.0 132 147 157 171 191 209 229 267 320 378
1310.0 457 543 608 628 590 503 399 313 250 213
1350.0 197 193 201 228 275 342 421 487 506 477
1390.0 423 366 334 344 374 422 474 518 539 544
1430.0 541 546 580 649 762 905 1039 1140 1198 1189
1470.0 1124 1040 968 962 1040 1173 1291 1314 1214 1006
1510.0 757 541 384 284 222 184 155 135 129 126
1550.0 124 126 132 150 162 168 172 164 152 144
1590.0 151 176 217 275 341 381 377 338 273 201
1630.0 156 132 123 114 101 94 81 75 70 59
1670.0 50 46 41 38 40 40 37 33 28 26
1710.0 28 28 22 22 23 27 30 34 45 58
1750.0 72 92 113 130 128 114 95 70 46 35
1790.0 26 20 21 16 20 19 19 22 21 28
1830.0 32 31 28 20 15 16 23 27 27 38
1870.0 57 79 99 116 122 112 87 59 38 26
1910.0 18 17 20 17 17 14 10 10 12 10
1950.0 8 8 7 6 3 1 0 2 3 3
1990.0 6 11 13 12 11 11 15 17 19 20
2030.0 20 19 16 15 14 14 12 9 8 6
2070.0 7 8 7 8 5 4 5 5 4 4
2110.0 5 3 2 4 2 2 3 4 5 4
2150.0 2 0 3 7 8 7 3 4 9 9
2190.0 5 0 0 4 4 6 7 6 4 5
2230.0 7 11 15 17 16 16 17 16 15 13
2270.0 12 16 19 18 11 9 14 16 17 16
2310.0 15 16 15 19 24 27 23 23 27 22
2350.0 20 22 21 16 14 12 14 15 13 10
2390.0 7 10 12 11 11 16 19 21 28 28
2430.0 26 23 29 31 24 19 17 13 16 14
2470.0 14 18 15 15 17 17 19 19 14 14
2510.0 20 22 21 22 21 20 20 21 19 20
2550.0 25 26 24 22 17 22 24 23 26 25
2590.0 20 22 27 34 38 37 42 50 54 60
2630.0 63 65 65 56 50 49 50 49 50 45
2670.0 42 44 46 47 51 56 58 62 65 70
2710.0 77 80 79 88 108 126 140 150 151 150
2750.0 149 146 150 162 176 186 199 209 219 230
2790.0 237 247 258 268 282 295 318 350 385 427
2830.0 480 544 617 691 782 911 1084 1317 1627 2014
2870.0 2467 2963 3446 3800 3909 3780 3515 3238 3043 2941
2910.0 2895 2905 3003 3248 3667 4267 4966 5534 5765 5653
2950.0 5353 5161 5498 6710 8513 9842 10000 8846 6736 4800
2990.0 3604 2953 2657 2535 2468 2391 2260 2075 1851 1618
3030.0 1426 1294 1227 1209 1191 1146 1073 970 854 751
3070.0 667 586 512 458 415 382 356 340 329 327
3110.0 325 317 300 286 274 260 246 234 220 207
3150.0 197 191 182 170 162 151 137 125 116 97
3190.0 81 78 74 65 61 55 55 57 53 45
3230.0 44 51 52 45 40 42 39 37 40 35
3270.0 33 37 31 31 37 33 33 27 21 26
3310.0 19 15 24 25 22 17 16 13 15 15
3350.0 11 19 21 14 14 16 16 16 14 16
3390.0 15 17 25 22 13 15 16 17 14 9
3430.0 13 18 20 18 15 12 15 18 13 18
3470.0 21 16 16 14 17 15 11 11 14 16
3510.0 17 19 17 16 15 14 12 10 13 12
3550.0 14 17 16 19 14 2 1 4 8 9
3590.0 13 20 24 18 11 10 8 9 14 17
3630.0 12 8 13 8 14 28 24 23 28 24
3670.0 18 17 23 23 18 23 27 27 27 28
3710.0 27 32 41 41 39 37 38 42 34 33
3750.0 36 30 31 30 28 36 32 28 33 31
3790.0 27 32 35 33 30 26 28 27 31 37
3830.0 35 32 34 30 26
##END=
