##TITLE=Diethyl carbamyl chloride
##JCAMP-DX=4.24
##DATA TYPE=INFRARED SPECTRUM
##ORIGIN=EPA-IR VAPOR PHASE LIBRARY
##OWNER=SRD/NIST
Collection (C) 2018 copyright by the U.S. Secretary of Commerce
on behalf of the United States of America. All rights reserved.
##CAS REGISTRY NO=88-10-8
##MOLFORM=C 5 H 10 Cl N O
##$NIST SOURCE=MSDC-IR
##STATE=gas
##XUNITS=1/CM
##YUNITS=ABSORBANCE
##XFACTOR=1.
##YFACTOR=0.001
##DELTAX=1.92898
##FIRSTX=549.8
##LASTX=4000.7
##FIRSTY=0.9102
##MAXX=4000.7
##MINX=549.759
##MAXY=0.473446
##MINY=0
##NPOINTS=1790
##XYDATA=(X++(Y..Y))
549.759 0.9102 0.9367 1.0683 1.319 1.466 1.3049 1.0694 0.9898 1.1716 1.3508
569.049 1.446 1.596 1.596 1.746 2.056 2.206 2.406 2.636 2.566 2.576
588.339 2.916 3.036 2.876 3.076 3.146 2.906 3.106 3.166 3.206 3.196
607.628 3.086 3.166 3.306 3.346 3.236 3.406 3.516 3.926 4.516 5.006
626.918 5.706 6.486 7.576 8.786 10.436 12.516 14.926 17.726 20.896 24.256
646.208 27.186 29.706 31.856 33.666 34.936 35.566 35.646 35.346 34.566 32.716
665.498 29.456 25.986 24.056 24.326 24.396 21.056 16.706 14.086 12.556 11.276
684.787 9.906 8.536 7.176 6.016 4.916 3.866 3.036 2.426 2.026 1.786
704.077 1.666 1.536 1.456 1.426 1.338 1.2345 1.315 1.396 1.476 1.506
723.367 1.426 1.3478 1.3394 1.2501 1.3207 1.476 1.526 1.706 1.956 2.216
742.657 2.336 2.296 2.316 2.456 2.656 2.886 3.036 3.226 3.456 3.536
761.947 3.586 3.896 4.356 5.086 5.676 6.186 6.846 7.696 8.766 9.546
781.236 9.946 10.276 10.756 10.976 10.996 10.956 10.616 10.036 9.646 9.336
800.526 8.856 8.416 8.106 8.026 8.186 8.516 9.046 9.796 10.946 12.206
819.816 13.986 16.546 19.606 23.386 28.146 33.856 40.096 46.566 52.896 58.756
839.106 63.726 67.736 70.756 72.426 72.316 70.606 67.406 62.556 56.286 49.066
858.395 41.296 33.736 27.256 22.076 18.076 14.926 12.526 10.836 9.636 8.626
877.685 7.696 7.086 6.546 6.066 5.756 5.346 5.006 4.626 4.426 4.266
896.975 3.906 3.726 3.666 3.596 3.386 3.206 3.286 3.356 3.316 3.326
916.265 3.446 3.636 3.826 4.106 4.516 5.156 5.906 6.526 7.096 7.686
935.555 8.206 8.576 8.926 9.246 9.106 8.846 8.666 8.196 7.736 7.006
954.844 6.266 5.676 5.056 4.696 4.526 4.446 4.436 4.446 4.596 4.836
974.134 5.016 5.246 5.346 5.496 5.946 6.566 7.176 7.776 8.406 8.906
993.424 9.596 10.406 11.066 11.486 11.586 11.856 12.046 11.966 11.826 11.466
1012.714 11.036 10.606 9.936 9.326 8.836 8.646 8.336 7.766 7.836 7.986
1032.003 8.166 8.546 9.046 9.686 10.336 11.206 12.226 13.286 14.586 16.306
1051.293 18.286 20.316 22.426 25.016 27.546 30.006 32.436 34.396 36.286 38.096
1070.583 39.936 41.456 43.216 45.226 47.306 50.256 53.756 57.606 61.616 66.166
1089.873 71.226 76.096 81.556 87.606 93.526 99.046 104.056 108.146 110.866 111.666
1109.163 110.946 109.236 106.236 102.546 97.366 90.376 82.616 74.296 64.846 54.846
1128.452 45.616 37.856 31.576 26.766 23.176 20.566 18.636 16.736 15.296 14.306
1147.742 13.396 12.616 12.046 11.696 11.266 11.036 10.926 10.816 10.716 10.616
1167.032 10.756 10.906 11.136 11.596 12.146 12.866 13.686 14.836 16.616 18.726
1186.322 21.146 24.176 28.126 32.766 38.296 44.626 51.396 58.896 66.386 73.086
1205.611 78.666 83.196 86.596 88.166 88.626 88.206 85.936 82.466 78.636 75.096
1224.901 72.236 70.426 70.786 73.836 79.326 86.586 94.446 101.806 107.896 112.106
1244.191 114.176 114.146 111.936 107.436 101.046 92.926 83.056 72.216 61.166 50.456
1263.481 41.046 33.196 26.976 22.316 18.996 16.416 14.536 13.556 12.926 12.426
1282.771 12.296 12.496 12.826 13.416 14.206 15.246 16.466 17.936 19.466 20.816
1302.060 22.146 23.236 23.916 24.316 24.396 24.156 23.656 22.826 21.736 20.526
1321.350 19.186 17.886 16.726 15.666 14.956 14.776 14.916 15.326 16.106 17.236
1340.640 18.586 20.066 21.856 23.916 26.246 28.876 31.776 34.826 37.976 41.076
1359.930 43.886 46.276 48.366 50.586 53.186 56.486 60.696 65.406 70.046 74.376
1379.219 78.406 82.376 86.276 89.926 92.986 95.096 95.836 94.826 92.056 87.756
1398.509 82.356 76.296 70.066 63.656 57.246 51.056 45.076 39.276 33.946 29.256
1417.799 25.436 22.386 20.076 18.396 17.156 16.346 15.816 15.536 15.586 15.876
1437.089 16.376 16.976 17.766 18.806 20.006 21.406 23.056 24.696 26.316 27.856
1456.378 29.276 30.756 32.226 33.546 34.546 34.986 34.666 33.796 32.676 31.316
1475.668 29.146 26.436 24.036 21.806 19.456 17.046 14.706 12.626 10.886 9.516
1494.958 8.516 7.706 7.066 6.606 6.226 5.986 5.806 5.496 5.256 5.076
1514.248 4.896 4.776 4.616 4.476 4.386 4.266 4.126 3.946 3.846 3.736
1533.538 3.596 3.546 3.506 3.446 3.356 3.246 3.236 3.156 2.976 2.896
1552.827 2.886 2.866 2.886 2.886 2.806 2.806 2.806 2.696 2.656 2.666
1572.117 2.606 2.526 2.486 2.546 2.676 2.566 2.476 2.516 2.496 2.456
1591.407 2.486 2.486 2.396 2.406 2.496 2.506 2.476 2.446 2.536 2.696
1610.697 2.696 2.756 2.906 3.026 3.066 3.136 3.206 3.226 3.276 3.346
1629.986 3.456 3.476 3.406 3.406 3.456 3.546 3.606 3.586 3.576 3.586
1649.276 3.716 3.936 4.086 4.156 4.386 4.676 4.936 5.286 5.716 6.136
1668.566 6.636 7.276 7.836 8.376 8.986 9.606 10.276 10.906 11.406 11.616
1687.856 11.726 11.826 11.916 12.036 12.216 12.346 12.546 12.846 13.196 13.706
1707.146 14.416 15.216 16.056 16.966 17.916 19.026 20.366 21.996 24.056 26.466
1726.435 29.406 33.316 38.466 45.296 54.906 67.726 84.546 107.606 137.086 174.146
1745.725 218.236 268.246 320.186 369.626 411.106 439.736 454.346 457.996 462.536 473.446
1765.015 466.906 430.706 380.056 323.786 260.616 199.556 147.126 106.016 76.256 55.686
1784.305 42.056 32.816 26.676 22.296 19.096 16.606 14.706 13.176 11.896 10.816
1803.594 9.936 9.266 8.736 8.186 7.696 7.396 7.166 7.016 7.036 7.076
1822.884 7.166 7.326 7.516 7.736 7.966 8.206 8.496 8.686 8.676 8.466
1842.174 8.026 7.436 6.866 6.366 5.896 5.396 4.946 4.516 4.056 3.656
1861.464 3.366 3.136 2.966 2.796 2.626 2.546 2.466 2.326 2.226 2.226
1880.754 2.216 2.236 2.226 2.206 2.206 2.216 2.256 2.286 2.266 2.176
1900.043 2.096 2.116 2.096 2.026 1.956 1.826 1.776 1.766 1.706 1.646
1919.333 1.636 1.656 1.606 1.556 1.556 1.526 1.546 1.586 1.586 1.596
1938.623 1.656 1.706 1.746 1.796 1.806 1.846 1.876 1.876 1.876 1.846
1957.913 1.786 1.766 1.726 1.646 1.566 1.556 1.546 1.456 1.3488 1.2524
1977.202 1.2022 1.1636 1.125 1.0981 1.0807 1.1071 1.0687 0.999 1.0448 1.0721
1996.492 1.0467 1.043 1.119 1.1717 1.1419 1.0646 1.0632 1.1086 1.0396 1.0484
2015.782 1.0947 1.1547 1.243 1.2787 1.266 1.2427 1.3424 1.386 1.3543 1.406
2035.072 1.446 1.476 1.466 1.456 1.456 1.426 1.406 1.376 1.406 1.386
2054.362 1.3304 1.3112 1.3214 1.275 1.1956 1.0831 1.0045 1.0069 0.9455 0.9349
2073.651 0.9489 0.9164 0.8694 0.8364 0.9095 0.9598 0.9341 0.9436 0.9413 0.9326
2092.941 0.9334 0.9398 0.9289 0.9058 0.8614 0.8775 0.882 0.859 0.8595 0.8388
2112.231 0.7867 0.7825 0.8287 0.7804 0.7496 0.7867 0.7695 0.697 0.6477 0.6607
2131.521 0.712 0.7076 0.7216 0.6952 0.6675 0.6959 0.7167 0.7568 0.7398 0.765
2150.810 0.8343 0.8297 0.7876 0.7951 0.8166 0.8461 0.867 0.9197 0.9511 0.8831
2170.100 0.8827 0.9396 0.9409 0.9227 0.9104 0.9125 0.9154 0.9121 0.9333 0.9681
2189.390 0.9631 0.9877 1.0399 0.9451 0.846 0.8629 0.8417 0.8938 0.9629 0.9789
2208.680 1.0279 1.0298 1.0039 1.0024 1.0113 1.0294 1.0787 1.1771 1.1927 1.1267
2227.970 1.0795 1.1207 1.1953 1.1813 1.1015 1.023 1.0356 1.0835 1.0846 0.9985
2247.259 0.8991 0.8759 0.8835 0.8456 0.7845 0.727 0.7624 0.7325 0.6533 0.6027
2266.549 0.592 0.5958 0.5931 0.6099 0.565 0.5726 0.6115 0.5936 0.4937 0.5197
2285.839 0.6356 0.682 0.668 0.6091 0.6107 0.6171 0.6762 0.7071 0.7504 0.83
2305.129 0.8447 0.9141 0.9615 0.9348 0.8739 0.9045 0.982 1.0635 1.1268 1.1727
2324.418 1.1571 1.0691 1.0516 1.0555 1.1549 1.1856 1.1012 1.1103 1.1528 1.0918
2343.708 1.0442 1.0326 1.0731 1.0685 1.0292 1.0973 1.1243 1.0801 1.0501 1.0854
2362.998 1.1344 1.1186 1.0857 1.0899 1.0842 1.0526 1.0172 0.9944 0.9597 0.9424
2382.288 0.9544 0.976 0.9836 0.975 0.9503 0.9471 1.0342 1.0724 1.0819 1.1225
2401.578 1.1106 1.1677 1.2146 1.2293 1.2299 1.2508 1.3131 1.2918 1.197 1.1361
2420.867 1.2083 1.2868 1.304 1.2531 1.1731 1.134 1.0942 1.0631 1.0811 1.0726
2440.157 1.0209 1.0462 1.0794 1.0196 0.9983 1.0796 1.115 1.1093 1.1632 1.2114
2459.447 1.2408 1.2247 1.2426 1.2031 1.1882 1.2224 1.1725 1.1571 1.1803 1.2293
2478.737 1.1312 1.1474 1.2812 1.2566 1.2783 1.2852 1.2536 1.2305 1.2585 1.3105
2498.026 1.2402 1.1967 1.0821 1.0532 1.1274 1.0545 0.9545 0.919 0.9443 0.9634
2517.316 1.0045 0.9825 0.9512 0.9397 0.9028 0.8762 0.8424 0.8586 0.8229 0.7921
2536.606 0.8197 0.8009 0.7746 0.6759 0.6524 0.6866 0.631 0.566 0.5833 0.6795
2555.896 0.692 0.6494 0.6052 0.6787 0.8256 0.7618 0.6718 0.6608 0.6675 0.67
2575.186 0.6472 0.7271 0.6938 0.6286 0.6078 0.6351 0.733 0.7012 0.7609 0.7823
2594.475 0.6939 0.7134 0.6924 0.7161 0.7791 0.7791 0.8234 0.7843 0.7463 0.7343
2613.765 0.7813 0.7728 0.7262 0.7723 0.7606 0.7671 0.7537 0.7405 0.7001 0.7121
2633.055 0.6963 0.5668 0.5347 0.615 0.6852 0.7123 0.7131 0.687 0.7069 0.7952
2652.345 0.7284 0.6005 0.674 0.7385 0.714 0.7085 0.6869 0.7532 0.8691 0.7907
2671.634 0.7883 0.902 0.8793 0.94 1.0085 1.0134 1.0027 1.1151 1.1687 1.1301
2690.924 1.1527 1.1719 1.206 1.1643 1.1699 1.1263 1.1009 1.183 1.1443 1.1032
2710.214 1.1399 1.1743 1.2102 1.1641 1.1051 1.1138 1.1173 1.1914 1.2155 1.179
2729.504 1.1918 1.2481 1.3417 1.3678 1.416 1.526 1.636 1.596 1.546 1.676
2748.794 1.806 1.776 1.786 1.896 1.946 2.006 1.986 1.986 2.046 2.106
2768.083 2.116 2.006 1.996 2.116 2.156 2.106 2.216 2.226 2.106 2.176
2787.373 2.256 2.416 2.526 2.576 2.626 2.656 2.756 2.836 2.896 2.916
2806.663 2.956 2.996 3.156 3.386 3.466 3.506 3.506 3.466 3.616 3.746
2825.953 3.806 3.866 3.936 4.096 4.156 4.276 4.456 4.626 4.876 4.956
2845.242 5.146 5.346 5.556 5.736 5.966 6.356 6.646 7.056 7.606 8.206
2864.532 8.866 9.726 10.786 11.856 13.096 14.536 16.016 17.296 18.606 19.926
2883.822 21.066 22.146 23.046 23.776 24.196 24.486 24.656 24.756 24.936 24.786
2903.112 24.536 24.466 24.416 24.166 23.896 23.846 23.866 23.936 24.056 24.396
2922.401 25.096 25.946 27.296 28.876 30.716 32.986 35.506 38.306 40.986 43.386
2941.691 45.566 47.456 48.696 49.136 49.016 48.506 47.846 46.896 45.626 44.426
2960.981 43.476 43.156 43.716 44.926 46.676 48.866 51.576 54.766 57.846 60.236
2980.271 62.226 64.186 65.946 67.106 67.066 65.706 62.936 59.626 56.486 53.126
2999.561 49.476 45.626 41.796 37.986 34.246 30.586 27.026 23.846 21.016 18.326
3018.850 15.976 14.126 12.336 11.006 10.066 8.996 8.156 7.486 7.036 6.686
3038.140 6.246 5.966 5.636 5.236 4.926 4.706 4.656 4.516 4.276 4.046
3057.430 3.826 3.796 3.876 3.866 3.706 3.546 3.376 3.176 3.086 3.066
3076.720 3.066 2.926 2.836 2.886 2.716 2.606 2.636 2.716 2.746 2.586
3096.009 2.526 2.516 2.446 2.366 2.416 2.396 2.276 2.266 2.206 2.116
3115.299 2.216 2.286 2.276 2.306 2.406 2.456 2.376 2.556 2.586 2.486
3134.589 2.476 2.436 2.466 2.396 2.376 2.406 2.516 2.536 2.426 2.536
3153.879 2.716 2.666 2.526 2.406 2.376 2.456 2.326 2.256 2.256 2.206
3173.169 2.186 2.106 1.936 1.876 1.796 1.576 1.606 1.586 1.426 1.426
3192.458 1.396 1.3383 1.2286 1.2231 1.258 1.0582 0.9257 1.0546 1.1536 1.1057
3211.748 1.0062 0.9138 0.8316 0.7648 0.7009 0.7267 0.7553 0.6408 0.6398 0.8297
3231.038 0.8421 0.6258 0.5108 0.6179 0.73 0.6949 0.5687 0.4834 0.4987 0.45
3250.328 0.5032 0.6457 0.763 0.7581 0.6493 0.5991 0.5789 0.4159 0.5822 0.7398
3269.617 0.597 0.6345 0.528 0.5296 0.6694 0.5736 0.5744 0.6916 0.6599 0.65
3288.907 0.5329 0.40138 0.4982 0.5523 0.42354 0.2894 0.3632 0.39358 0.325 0.3295
3308.197 0.379389 0.37461 0.3373 0.5185 0.5624 0.38926 0.39878 0.41641 0.4831 0.5632
3327.487 0.5259 0.43641 0.46407 0.4829 0.3528 0.3433 0.3209 0.37044 0.5467 0.6143
3346.777 0.6287 0.575 0.38934 0.3129 0.275 0.205 0.3348 0.4838 0.39852 0.3652
3366.066 0.42293 0.5206 0.6271 0.5482 0.6337 0.698 0.5827 0.46966 0.339 0.383249
3385.356 0.5794 0.43221 0.195 0.2816 0.356 0.36851 0.375522 0.46082 0.6001 0.5535
3404.646 0.377014 0.3658 0.42081 0.5149 0.44424 0.3343 0.46134 0.549 0.5883 0.5892
3423.936 0.5972 0.5525 0.45062 0.5487 0.6071 0.42118 0.218 0.39025 0.6238 0.5805
3443.225 0.6494 0.8005 0.7646 0.7411 0.81 0.7591 0.7526 0.8581 0.924 0.8767
3462.515 0.7547 0.7357 0.8913 0.938 0.8812 1.0863 1.3337 1.436 1.616 1.746
3481.805 1.886 1.926 2.186 2.546 2.716 3.026 3.276 3.476 3.626 3.666
3501.095 3.736 3.756 3.716 3.496 3.146 2.946 2.726 2.346 1.986 1.786
3520.385 1.606 1.3506 1.2599 1.2905 1.2261 1.0847 1.1019 1.1034 0.955 0.8768
3539.674 0.7953 0.6374 0.6177 0.9037 0.9513 0.6778 0.5116 0.5022 0.47554 0.501
3558.964 0.5353 0.36848 0.42067 0.44203 0.3541 0.45706 0.5572 0.5716 0.4978 0.43155
3578.254 0.3201 0.41158 0.5258 0.3384 0.3203 0.3512 0.3281 0.5677 0.6157 0.246
3597.544 0.2967 0.4798 0.3631 0.2975 0.232 0.3028 0.256 0.239 0.44965 0.4837
3616.833 0.40626 0.42987 0.42939 0.39676 0.376851 0.23 0.4355 0.44767 0.263 0.3644
3636.123 0.3155 0.2808 0.3163 0.242 0.181 0.27 0.2928 0.251 0.3194 0.40778
3655.413 0.4913 0.5584 0.43537 0.39851 0.4876 0.47247 0.37313 0.41427 0.37285 0.3058
3674.703 0.3074 0.269 0.40403 0.43706 0.3654 0.44381 0.5083 0.4989 0.521 0.42969
3693.993 0.39256 0.38851 0.39559 0.46428 0.3544 0.3474 0.2891 0.262 0.378388 0.45512
3713.282 0.41712 0.38832 0.5432 0.4953 0.47475 0.5704 0.41722 0.243 0.203 0.231
3732.572 0.40386 0.6221 0.7838 0.6461 0.3703 0.37261 0.44617 0.5514 0.6432 0.7159
3751.862 0.5218 0.2867 0.2842 0.46128 0.6866 0.6043 0.5166 0.45439 0.44371 0.4863
3771.152 0.38806 0.39654 0.45006 0.5032 0.5091 0.39128 0.3556 0.43758 0.45496 0.44268
3790.441 0.45753 0.45185 0.4985 0.43284 0.40022 0.42483 0.46715 0.4796 0.4713 0.4949
3809.731 0.5031 0.5322 0.41278 0.2951 0.3458 0.34 0.27 0.38778 0.41822 0.331
3829.021 0.2951 0.39716 0.39931 0.237 0.3385 0.40956 0.40392 0.3246 0.348 0.37055
3848.311 0.3318 0.41133 0.38282 0.45827 0.43616 0.3921 0.2947 0.38612 0.5453 0.41947
3867.601 0.3532 0.2958 0.219 0.393 0.5828 0.44653 0.3622 0.237 0.125 0.196
3886.890 0.2925 0.3017 0.3206 0.3617 0.40729 0.505 0.379178 0.337 0.40995 0.3348
3906.180 0.378052 0.206 0 0.274 0.4857 0.41471 0.43964 0.4889 0.42427 0.236
3925.470 0.193 0.47117 0.7204 0.5059 0.384635 0.37024 0.2971 0.3085 0.3296 0.5004
3944.760 0.43557 0.39295 0.37148 0.257 0.273 0.3879 0.5206 0.5543 0.5038 0.5878
3964.049 0.7588 0.6978 0.5856 0.4829 0.47121 0.5003 0.5951 0.6645 0.6263 0.5689
3983.339 0.5103 0.5287 0.5831 0.5921 0.42809 0.5079 0.7716 0.7304 0.6919 0.8488
##END=
