##TITLE=2,6-Di-t-butyl-4-(dimethylamino)methylphenol
##JCAMP-DX=4.24
##DATA TYPE=INFRARED SPECTRUM
##ORIGIN=EPA-IR VAPOR PHASE LIBRARY
##OWNER=SRD/NIST
Collection (C) 2018 copyright by the U.S. Secretary of Commerce
on behalf of the United States of America. All rights reserved.
##CAS REGISTRY NO=88-27-7
##MOLFORM=C 17 H 27 N O
##$NIST SOURCE=MSDC-IR
##STATE=gas
##XUNITS=1/CM
##YUNITS=ABSORBANCE
##XFACTOR=1.
##YFACTOR=0.001
##DELTAX=3.85796
##FIRSTX=551.7
##LASTX=4000.7
##FIRSTY=2.48
##MAXX=4000.7
##MINX=551.688
##MAXY=0.14988
##MINY=0.0004345
##NPOINTS=895
##XYDATA=(X++(Y..Y))
551.688 2.48 2.31 2.19 2.48 3.05 3.23 2.93 2.78 2.52 2.12
590.268 1.98 2.15 2.41 2.74 2.99 3.32 3.67 3.73 3.55 3.25
628.847 3.26 3.49 3.57 3.69 4.02 4.08 3.73 3.31 2.99 2.78
667.427 2.57 2.42 2.14 1.93 1.78 1.64 1.61 1.71 1.83 1.75
706.006 1.75 1.71 1.66 1.68 1.72 1.85 1.92 2.14 2.4 2.63
744.586 3.04 3.3 3.48 4 5.08 6.5 6.92 5.91 4.88 4.95
783.165 6.03 7.2 7.41 6.33 5.22 4.9 5 5.08 4.78 4.61
821.745 5.09 6.51 8.76 10.49 10.3 8.2 5.74 4.34 4.06 4.25
860.324 4.86 5.96 7.89 11.05 14.54 16.35 15.7 13.53 10.75 8.24
898.904 6.63 5.88 5.61 5.89 6.04 5.69 5.53 5.4 5.19 4.82
937.484 4.38 4.16 4.26 4.36 4.32 4.21 3.8 3.5 3.71 4.23
976.063 4.97 5.83 6.29 6.01 5.41 5.11 5.38 6.34 7.65 9.27
1014.643 11.4 14.08 16.85 19.9 22.76 23.79 22.53 19.99 17 13.84
1053.222 10.88 8.43 6.9 6.09 5.68 5.68 5.73 5.56 5.73 6.13
1091.802 7.04 8.12 8.66 8.83 9.51 11.51 14.13 15.93 15.6 13.68
1130.381 12.21 12.25 13.78 16.64 20.4 24.9 30.25 35.66 39 39.08
1168.961 36.9 33.38 29.93 27.51 26.26 26.2 26.59 27.08 28.17 29.85
1207.540 30.87 30.84 30.91 32.46 35.24 37.55 38.26 37.53 36.89 37.88
1246.120 38.9 37.38 33.34 28.48 24.24 20.64 17.45 14.75 12.95 12.05
1284.699 11.62 11.61 12.05 13.03 14.6 16.54 18.09 18.39 17.15 14.9
1323.279 12.7 11.37 11.03 11.34 12.26 14.03 17.16 22.26 28.92 35.17
1361.859 39.25 39.82 36.04 28.88 21.45 16.85 15.74 17.62 21.41 24.44
1400.438 24.23 21.33 18.66 18.46 20.98 26.31 34.1 43.5 52.39 56.99
1439.018 54.95 47.92 40 34.53 31.82 30.18 28.54 26.85 25.45 24.22
1477.597 23.23 22.03 19.85 16.48 12.7 9.63 7.56 6.22 5.29 4.59
1516.177 4.05 3.63 3.25 2.98 2.76 2.56 2.33 2.24 2.19 2.1
1554.756 2.05 2 2.01 2.11 2.23 2.42 2.71 2.93 3.01 2.94
1593.336 2.76 2.65 2.69 2.72 2.88 3.11 3.32 3.7 4.31 5.18
1631.915 6.12 7 7.74 8.1 7.74 6.67 5.15 3.82 2.85 2.31
1670.495 2.02 1.84 1.71 1.56 1.44 1.41 1.32 1.22 1.27 1.29
1709.075 1.24 1.18 1.16 1.18 1.24 1.25 1.24 1.2 1.16 1.21
1747.654 1.26 1.36 1.53 1.66 1.82 2.02 2.18 2.28 2.28 2.17
1786.234 1.94 1.75 1.65 1.51 1.39 1.3 1.2 1.13 1.09 1.12
1824.813 1.13 1.1 1.07 1.01 0.9185 0.9045 0.9238 0.8874 0.8694 0.8817
1863.393 0.9089 0.9006 0.8699 0.838 0.804 0.7777 0.7382 0.6967 0.6805 0.7121
1901.972 0.698 0.6702 0.6951 0.6973 0.6633 0.6566 0.6682 0.6604 0.6582 0.6499
1940.552 0.6219 0.5832 0.5643 0.5725 0.5764 0.5844 0.5883 0.5959 0.6092 0.622
1979.131 0.6259 0.6093 0.6109 0.6731 0.7559 0.7953 0.8158 0.8564 0.9093 0.9082
2017.711 0.8511 0.7747 0.704 0.6565 0.6171 0.5857 0.5638 0.576 0.6314 0.631
2056.291 0.6134 0.6231 0.6178 0.6444 0.678 0.7523 0.7669 0.7258 0.7435 0.7462
2094.870 0.7091 0.6584 0.6205 0.5775 0.6004 0.6067 0.5935 0.5387 0.4935 0.5022
2133.450 0.4762 0.4535 0.4345 0.4785 0.5116 0.5467 0.5564 0.5289 0.5488 0.5748
2172.029 0.5623 0.5723 0.6163 0.615 0.5715 0.5831 0.5945 0.5608 0.5477 0.5396
2210.609 0.5623 0.5599 0.5499 0.5553 0.5422 0.5958 0.6124 0.561 0.5567 0.5548
2249.188 0.5816 0.6 0.5772 0.5784 0.6044 0.6476 0.659 0.6349 0.6677 0.7271
2287.768 0.7257 0.773 0.8003 0.7506 0.7164 0.6856 0.6701 0.6485 0.6316 0.6627
2326.347 0.6771 0.6523 0.6489 0.6769 0.6705 0.6824 0.6961 0.644 0.6527 0.7126
2364.927 0.7621 0.7622 0.8481 0.9557 1.03 1.17 1.19 1.19 1.23 1.2
2403.507 1.16 1.13 1.14 1.17 1.15 1.12 1.11 1.12 1.15 1.15
2442.086 1.11 1.14 1.15 1.1 1.13 1.11 0.9838 0.9973 1.04 1.04
2480.666 1.13 1.23 1.27 1.28 1.35 1.35 1.31 1.34 1.3 1.29
2519.245 1.22 1.17 1.23 1.26 1.27 1.26 1.32 1.43 1.52 1.55
2557.825 1.54 1.61 1.62 1.51 1.48 1.45 1.45 1.48 1.5 1.56
2596.404 1.58 1.62 1.69 1.67 1.7 1.81 1.8 1.82 1.96 2.01
2634.984 2.04 2.12 2.17 2.31 2.42 2.44 2.48 2.6 2.76 2.91
2673.563 3.18 3.45 3.75 4.27 4.89 5.49 6 6.36 6.69 7.12
2712.143 7.61 8.21 8.91 9.51 10.09 10.71 11.31 12.15 13.42 15.07
2750.722 17.21 20.4 25.58 33.76 44.81 56.25 63.69 63.77 57.27 47.83
2789.302 39.11 33.03 29.64 28.25 28.34 29.69 32.53 36.17 38.53 37.4
2827.882 32.72 27.4 23.95 22.43 22.25 23.21 25.11 27.73 30.78 34.21
2866.461 38.29 43.22 48.52 53.08 55.98 56.69 55.82 54.65 54.22 55.16
2905.041 57.63 61.41 66.12 70.82 74.29 76.24 76.64 76.74 78.63 83.92
2943.620 93.29 105.2 116.94 126.58 134.7 143.07 149.88 149.35 136.28 111.87
2982.200 84.35 60.69 43.48 33.41 28.76 26.56 24.61 21.81 18.23 14.85
3020.779 12.31 10.5 9.23 8.35 7.68 7.14 6.84 6.67 6.56 6.55
3059.359 6.58 6.69 6.86 7.15 7.33 7.26 6.83 6.14 5.61 5.09
3097.938 4.51 4.11 3.76 3.42 3.21 3.08 2.96 2.9 2.89 2.89
3136.518 2.89 2.84 2.74 2.64 2.64 2.61 2.56 2.48 2.43 2.41
3175.098 2.39 2.37 2.31 2.32 2.33 2.2 2.11 2.12 2.04 1.96
3213.677 1.94 1.78 1.66 1.78 1.77 1.66 1.58 1.45 1.46 1.4
3252.257 1.31 1.35 1.35 1.33 1.37 1.42 1.51 1.51 1.4 1.44
3290.836 1.46 1.43 1.47 1.39 1.37 1.33 1.26 1.23 1.13 1.23
3329.416 1.21 1.04 0.9086 0.865 0.983 1.05 1.08 1.16 1.12 1.05
3367.995 1.01 0.9935 1.01 1.05 1.13 1.16 1.09 1 1.04 1.16
3406.575 1.19 1.15 1.18 1.25 1.21 1.18 1.24 1.28 1.11 0.9792
3445.154 1.08 1.07 0.9286 0.8757 0.976 0.9804 0.8851 0.7783 0.7486 0.7973
3483.734 0.9033 0.9317 0.8329 0.8167 0.8624 0.8782 0.8156 0.7984 0.8819 0.8335
3522.314 0.7882 0.7796 0.7622 0.8224 0.8172 0.813 0.9785 1.03 0.9358 0.8652
3560.893 0.9241 0.9895 1.01 1.08 1.18 1.21 1.22 1.34 1.44 1.54
3599.473 1.71 1.85 2.11 2.38 2.67 3.06 3.45 4.01 4.8 5.78
3638.052 7.38 9.83 13.34 18.69 26.13 35.26 43.83 48.13 46 38.81
3676.632 29.88 22.14 16.54 12.3 9.21 7.11 5.6 4.5 3.79 3.28
3715.211 2.89 2.6 2.39 2.16 1.88 1.75 1.59 1.54 1.5 1.39
3753.791 1.32 1.21 1.15 1.17 1.22 1.16 1.04 0.9765 1.07 1.24
3792.370 1.32 1.29 1.31 1.35 1.33 1.38 1.45 1.45 1.37 1.27
3830.950 1.17 1.24 1.25 1.28 1.28 1.3 1.39 1.36 1.34 1.3
3869.530 1.36 1.4 1.42 1.39 1.37 1.37 1.36 1.42 1.42 1.37
3908.109 1.33 1.34 1.35 1.31 1.2 1.08 1.13 1.16 1.2 1.27
3946.689 1.24 1.27 1.13 1.07 1.12 1.09 1.05 1.01 1.16 1.22
3985.268 1.32 1.33 1.18 1.27 1.35
##END=
