##TITLE=2-Nitroaniline
##JCAMP-DX=4.24
##DATA TYPE=INFRARED SPECTRUM
##ORIGIN=NIST Mass Spectrometry Data Center
##OWNER=NIST Standard Reference Data Program
Collection (C) 2018 copyright by the U.S. Secretary of Commerce
on behalf of the United States of America. All rights reserved.
##CAS REGISTRY NO=88-74-4
##MOLFORM=C 6 H 6 N 2 O 2
##$NIST SOURCE=MSDC-IR
##SPECTROMETER/DATA SYSTEM=HP-GC/MS/IRD
##STATE=gas
##XUNITS=1/CM
##YUNITS=ABSORBANCE
##XFACTOR=1.0
##YFACTOR=0.000003500
##DELTAX=4.0
##FIRSTX=550.0
##LASTX=3846.0
##FIRSTY=0.001943
##MAXX=3846
##MINX=550
##MAXY=0.035
##MINY=0
##NPOINTS=825
##XYDATA=(X++(Y..Y))
550.0 555 789 526 543 507 448 413 417 418 395
590.0 397 372 320 296 268 238 234 236 234 243
630.0 269 311 353 387 434 499 594 705 816 929
670.0 1018 1083 1110 1043 1051 1101 969 845 784 715
710.0 672 700 846 1167 1600 2033 2503 3367 3779 2917
750.0 2223 1920 1480 1103 865 798 783 658 553 509
790.0 474 453 448 480 537 583 616 613 585 542
830.0 504 482 478 501 526 596 765 1026 1285 1429
870.0 1444 1337 1123 774 439 264 195 170 147 129
910.0 118 114 95 84 77 75 81 84 86 85
950.0 77 58 43 38 33 26 12 7 11 13
990.0 15 28 51 66 86 136 190 233 256 259
1030.0 252 234 190 145 126 132 165 185 181 164
1070.0 145 116 60 39 53 93 162 240 315 354
1110.0 360 333 271 197 144 127 155 236 388 632
1150.0 937 1305 1610 1650 1533 1380 1053 624 309 155
1190.0 93 62 46 49 70 94 114 147 203 276
1230.0 385 555 821 1208 1752 2448 3158 3663 3841 3729
1270.0 3346 2719 2099 1813 1863 2016 2143 2187 2057 1721
1310.0 1357 1161 1207 1536 2200 3228 4570 6017 7110 7518
1350.0 7199 6215 4617 2766 1477 918 692 586 510 448
1390.0 396 347 313 296 274 256 248 244 261 321
1430.0 427 588 817 1051 1205 1289 1342 1293 1149 1067
1470.0 1135 1290 1416 1487 1564 1688 1938 2419 3278 4616
1510.0 6409 8329 9677 10000 9839 9189 7468 5339 3675 2631
1550.0 2072 1854 1850 2006 2274 2598 2843 2948 2964 2853
1590.0 2558 2303 2367 2809 3610 4746 6095 7363 8067 8035
1630.0 7559 6596 5059 3469 2292 1544 1073 778 598 484
1670.0 404 348 308 279 256 233 207 178 151 134
1710.0 124 115 110 104 98 91 77 63 53 40
1750.0 30 29 30 31 36 45 59 74 89 95
1790.0 95 96 86 73 71 61 55 50 39 21
1830.0 13 16 12 6 3 1 5 9 7 10
1870.0 13 20 29 34 45 56 66 80 94 106
1910.0 104 105 105 98 100 106 99 85 72 58
1950.0 35 12 2 3 2 0 1 6 6 5
1990.0 5 7 10 13 13 16 14 8 8 13
2030.0 10 9 14 14 14 7 6 9 8 9
2070.0 13 13 11 11 16 18 12 10 14 16
2110.0 22 25 22 25 26 27 27 28 35 37
2150.0 31 29 28 31 38 35 32 31 32 33
2190.0 33 37 36 31 37 45 41 32 36 37
2230.0 28 30 27 21 20 20 16 17 20 22
2270.0 21 20 22 27 29 28 25 23 29 38
2310.0 41 43 48 50 51 59 58 52 57 57
2350.0 55 56 61 68 69 67 66 58 53 53
2390.0 54 57 55 52 52 48 43 43 49 60
2430.0 60 65 72 84 91 85 75 66 67 62
2470.0 51 34 22 23 19 21 26 26 31 30
2510.0 26 16 17 15 8 13 19 26 26 29
2550.0 26 26 21 23 38 35 28 32 33 38
2590.0 46 50 47 47 52 56 57 57 56 60
2630.0 62 60 60 55 46 41 41 41 34 39
2670.0 48 56 61 62 62 69 69 54 48 49
2710.0 45 40 36 36 39 36 34 36 32 32
2750.0 33 34 43 51 68 78 89 97 91 87
2790.0 90 91 83 79 84 81 76 76 74 77
2830.0 86 90 93 97 97 106 118 132 144 134
2870.0 132 134 123 112 111 99 85 83 85 78
2910.0 71 78 78 87 90 80 80 82 85 87
2950.0 84 79 81 79 80 73 65 62 51 49
2990.0 50 56 65 74 82 94 114 132 157 204
3030.0 261 308 353 399 443 488 543 616 677 706
3070.0 713 720 704 663 603 543 478 370 251 155
3110.0 103 83 74 70 53 48 52 47 44 47
3150.0 48 41 45 50 44 40 45 44 48 51
3190.0 45 57 59 42 52 56 42 39 37 28
3230.0 29 36 37 36 32 29 40 39 23 33
3270.0 37 33 31 27 29 35 30 23 28 31
3310.0 24 26 30 21 27 36 36 33 40 51
3350.0 46 43 53 69 103 132 167 232 342 509
3390.0 749 1052 1410 1766 2008 2084 1964 1704 1346 959
3430.0 614 394 283 206 161 140 140 144 149 165
3470.0 177 195 238 291 337 395 483 583 699 858
3510.0 1023 1199 1375 1502 1561 1529 1404 1210 990 755
3550.0 556 409 294 204 143 107 83 70 70 69
3590.0 74 64 59 72 71 46 38 41 41 34
3630.0 31 36 33 41 42 39 41 24 17 29
3670.0 18 6 10 24 31 34 47 43 36 37
3710.0 37 35 20 16 26 24 18 30 42 34
3750.0 32 40 35 27 27 21 18 32 44 38
3790.0 35 31 36 49 45 46 47 42 44 35
3830.0 23 32 26 20 26
##END=
