##TITLE=1-Acetamidoadamantane
##JCAMP-DX=4.24
##DATA TYPE=INFRARED SPECTRUM
##ORIGIN=EPA-IR VAPOR PHASE LIBRARY
##OWNER=SRD/NIST
Collection (C) 2018 copyright by the U.S. Secretary of Commerce
on behalf of the United States of America. All rights reserved.
##CAS REGISTRY NO=880-52-4
##MOLFORM=C 12 H 19 N O
##$NIST SOURCE=MSDC-IR
##STATE=gas
##XUNITS=1/CM
##YUNITS=ABSORBANCE
##XFACTOR=1.
##YFACTOR=0.001
##DELTAX=1.92934
##FIRSTX=549.9
##LASTX=3999.5
##FIRSTY=12.16
##MAXX=3999.53
##MINX=549.863
##MAXY=0.31667
##MINY=0
##NPOINTS=1789
##XYDATA=(X++(Y..Y))
549.863 12.16 9.56 7.14 5.46 4.47 3.82 3.29 2.91 2.5792 2.1431
569.156 1.8655 1.7573 1.67084 1.62211 1.62652 1.66863 1.6275 1.5462 1.327 1.263
588.450 1.364 1.266 1.066 1.043 1.12 1.132 1.199 1.277 1.304 1.167
607.743 1.041 1.122 1.185 1.177 1.195 1.173 1.086 0.993 0.993 1.066
627.037 1.001 0.88 0.809 0.847 0.942 0.87 0.814 0.833 0.769 0.754
646.330 0.789 0.791 0.776 0.793 0.798 0.822 0.855 0.794 0.825 0.906
665.624 0.951 0.891 0.77 0.692 0.728 0.769 0.712 0.695 0.626 0.607
684.917 0.599 0.594 0.645 0.692 0.654 0.609 0.628 0.58 0.57 0.618
704.210 0.627 0.627 0.618 0.606 0.617 0.666 0.696 0.66 0.62 0.631
723.504 0.644 0.634 0.656 0.683 0.663 0.662 0.677 0.632 0.56 0.609
742.797 0.667 0.651 0.678 0.667 0.643 0.637 0.617 0.602 0.585 0.609
762.091 0.672 0.725 0.741 0.69 0.657 0.686 0.698 0.718 0.818 0.887
781.384 0.844 0.86 0.894 0.902 0.98 1.103 1.168 1.197 1.307 1.471
800.678 1.66703 1.9138 2.169 2.3806 2.6 2.77 2.9 3 2.99 2.98
819.971 3.01 3.06 3.25 3.37 3.45 3.58 3.75 4.03 4.26 4.48
839.264 4.74 5.08 5.43 5.75 6.05 6.29 6.47 6.63 6.74 6.69
858.558 6.55 6.39 6.17 5.94 5.65 5.33 5.09 4.78 4.42 4.15
877.851 3.92 3.63 3.26 2.97 2.71 2.4544 2.2945 2.1096 1.9399 1.8279
897.145 1.802 1.8771 1.9632 2.0478 2.1827 2.3457 2.4913 2.69 2.86 3.01
916.438 3.2 3.37 3.54 3.68 3.88 4.09 4.28 4.45 4.47 4.46
935.732 4.36 4.2 4.12 4.1 4.17 4.35 4.64 4.96 5.26 5.6
955.025 5.98 6.16 6.01 5.75 5.61 5.55 5.53 5.5 5.39 5.34
974.318 5.3 5.13 4.96 4.73 4.42 4.16 3.99 4.07 4.46 5
993.612 5.55 6.09 6.46 6.65 6.72 6.5 6.02 5.53 5.05 4.61
1012.905 4.23 3.86 3.57 3.4 3.27 3.17 3.19 3.27 3.29 3.32
1032.199 3.4 3.51 3.53 3.51 3.51 3.52 3.5 3.43 3.39 3.29
1051.492 3.19 3.16 3.11 3.03 2.92 2.8 2.72 2.61 2.5306 2.4996
1070.786 2.4617 2.4728 2.5003 2.61 2.8 3.11 3.76 4.78 6.31 8.52
1090.079 10.99 13.19 15.05 16.39 16.83 17.07 16.67 14.44 11.42 9.05
1109.372 7.64 6.89 6.33 5.81 5.54 5.79 6.55 7.68 9.07 10.44
1128.666 11.71 12.67 13.1 13.11 12.5 11.25 9.6 7.71 5.93 4.58
1147.959 3.7 3.05 2.5547 2.3141 2.2135 2.1457 2.1376 2.1074 2.028 2.002
1167.253 2.0185 1.9844 1.9544 1.9827 2.0599 2.211 2.3486 2.4355 2.65 2.97
1186.546 3.24 3.35 3.48 3.7 3.84 3.96 4.31 4.75 5.26 6.07
1205.840 6.96 7.94 9.1 10.42 12.1 13.99 16.1 18.47 21.03 23.78
1225.133 26.54 29.29 32.08 34.86 37.64 40.38 42.63 43.92 44.14 43.37
1244.426 41.6 38.83 35.18 30.84 26.35 22.41 19.47 17.73 17.35 18.3
1263.720 20.59 24.08 28.49 33.18 37.06 39.62 41.11 41.74 41.46 40.17
1283.013 37.62 34.38 31.6 29.93 28.92 27.8 26.3 24.22 21.68 19.4
1302.307 17.83 17.04 17.02 17.62 18.37 18.72 18.28 16.96 14.98 12.79
1321.600 10.89 9.47 8.61 8.28 8.33 8.72 9.49 10.6 12.04 13.62
1340.894 15.2 16.91 18.89 21.35 24.34 27.8 31.48 35.14 38.6 41.46
1360.187 43.17 43.44 42.1 39.18 35.31 31.26 27.49 24.03 20.9 18.24
1379.480 15.99 14.15 12.73 11.73 11.03 10.53 10.29 10.18 10.07 10
1398.774 9.91 9.79 9.65 9.54 9.41 9.25 9.12 9.05 9.13 9.29
1418.067 9.48 9.74 10.04 10.43 10.92 11.41 11.91 12.52 13.22 14.07
1437.361 15.19 16.54 18.25 20.42 23.07 26.06 29.38 32.75 36.07 39.08
1456.654 41.68 43.87 45.43 46.45 47.52 49.01 50.93 53.55 57.22 62.21
1475.948 68.2 75.05 82.36 89.91 97.21 103.84 109.36 113.35 115.53 116.08
1495.241 115.18 112.93 109.5 104.92 99.28 92.7 85.21 77.44 69.33 60.61
1514.534 51.84 43.36 35.88 29.86 24.97 21.41 18.77 16.79 15.29 14.16
1533.828 13.25 12.5 11.8 11.06 10.36 9.69 9.1 8.54 7.99 7.44
1553.121 6.94 6.44 5.97 5.58 5.25 5.02 4.86 4.74 4.59 4.48
1572.415 4.45 4.42 4.37 4.39 4.4 4.38 4.38 4.43 4.49 4.51
1591.708 4.54 4.59 4.62 4.62 4.56 4.49 4.48 4.41 4.34 4.31
1611.002 4.29 4.25 4.23 4.26 4.21 4.15 4.16 4.15 4.12 4.06
1630.295 4.06 4.11 4.22 4.36 4.55 4.74 4.92 5.14 5.35 5.56
1649.588 5.83 6.1 6.42 6.74 7.08 7.49 7.84 8.23 8.63 8.95
1668.882 9.31 9.69 10.16 10.73 11.44 12.33 13.47 14.82 16.72 19.21
1688.175 22.42 26.65 32.16 39.02 47.91 58.43 70.55 84.48 97.84 110.72
1707.469 121.11 127.95 130.41 128.26 121.48 110.42 96.21 81.25 66.38 52.95
1726.762 41.7 32.75 25.91 20.98 17.27 14.58 12.62 11.04 9.82 8.77
1746.056 7.96 7.36 6.87 6.44 6.1 5.83 5.64 5.53 5.44 5.39
1765.349 5.34 5.35 5.38 5.4 5.44 5.47 5.43 5.31 5.14 4.92
1784.642 4.66 4.34 4.04 3.75 3.45 3.18 2.95 2.77 2.62 2.5238
1803.936 2.4183 2.3327 2.3054 2.2717 2.2825 2.2754 2.2344 2.2422 2.2629 2.2645
1823.229 2.2679 2.2406 2.1952 2.1585 2.0889 2.0077 1.8821 1.7742 1.6936 1.57991
1842.523 1.5046 1.458 1.386 1.347 1.332 1.308 1.306 1.301 1.328 1.343
1861.816 1.324 1.311 1.301 1.244 1.198 1.187 1.169 1.147 1.114 1.1
1881.110 1.06 1.061 1.079 1.039 1.022 1.02 1.02 1.042 1.053 1.037
1900.403 1.051 1.073 1.097 1.131 1.148 1.14 1.129 1.117 1.127 1.158
1919.696 1.169 1.131 1.119 1.113 1.118 1.182 1.183 1.121 1.087 1.077
1938.990 1.083 1.073 1.044 1.013 0.962 0.971 0.971 0.953 0.961 0.942
1958.283 0.929 0.908 0.925 0.96 0.937 0.92 0.91 0.92 0.916 0.914
1977.577 0.89 0.845 0.869 0.917 0.928 0.907 0.915 0.958 0.97 0.969
1996.870 0.995 0.993 0.995 1.015 1.019 1.021 1.015 0.968 0.937 0.944
2016.164 0.924 0.939 0.967 0.966 0.998 1.035 1.075 1.1 1.077 1.053
2035.457 1.072 1.082 1.087 1.077 0.993 0.964 0.971 0.933 0.905 0.916
2054.750 0.946 0.926 0.892 0.9 0.91 0.89 0.886 0.892 0.911 0.94
2074.044 0.98 0.985 0.962 0.983 1.001 1.011 1.024 1.063 1.129 1.138
2093.337 1.092 1.077 1.058 1.012 0.985 0.994 1.011 0.992 0.971 0.959
2112.631 0.963 0.978 0.995 1.034 1.065 1.076 1.073 1.07 1.09 1.108
2131.924 1.097 1.08 1.051 1.026 1.04 1.084 1.096 1.042 1.005 0.963
2151.218 0.942 0.975 0.97 0.97 0.945 0.879 0.885 0.918 0.919 0.91
2170.511 0.894 0.918 0.9 0.858 0.862 0.814 0.793 0.811 0.815 0.811
2189.804 0.818 0.805 0.77 0.79 0.806 0.792 0.804 0.83 0.839 0.855
2209.098 0.866 0.881 0.918 0.957 0.968 0.985 1.011 1.009 1.02 1.031
2228.391 1.032 1.006 0.972 0.987 0.997 1.006 1.031 0.999 0.998 0.999
2247.685 0.996 1.014 1.019 1.015 0.991 1.007 0.991 0.945 0.921 0.924
2266.978 0.944 0.94 0.916 0.923 0.94 0.966 1.006 0.997 0.995 1.016
2286.272 1.027 1.098 1.142 1.152 1.187 1.176 1.184 1.181 1.162 1.183
2305.565 1.156 1.14 1.118 1.081 1.068 1.046 1.071 1.062 1.035 1.054
2324.858 1.067 1.091 1.089 1.083 1.061 1.029 1.001 0.988 1.023 1.01
2344.152 1.026 1.049 1.02 1.015 1.054 1.081 1.064 1.08 1.081 1.041
2363.445 1.048 1.066 1.101 1.152 1.163 1.185 1.209 1.225 1.251 1.255
2382.739 1.23 1.23 1.226 1.213 1.202 1.163 1.179 1.169 1.117 1.104
2402.032 1.069 1.07 1.09 1.055 1.016 1.017 0.98 0.99 1.053 1.076
2421.326 1.096 1.1 1.118 1.142 1.137 1.115 1.095 1.075 1.071 1.058
2440.619 1.01 0.945 0.96 1.004 1.001 1.014 1.002 0.997 1.066 1.085
2459.912 1.048 1.031 1.022 1.036 1.059 1.052 1.018 1.01 1.013 1.019
2479.206 1.013 1.021 1.02 0.934 0.931 0.966 0.92 0.909 0.946 0.962
2498.499 0.924 0.91 0.931 0.937 0.877 0.87 0.938 0.953 0.91 0.929
2517.793 1.01 1.077 1.077 1.05 1.128 1.165 1.147 1.144 1.141 1.147
2537.086 1.144 1.141 1.156 1.201 1.224 1.227 1.254 1.252 1.268 1.302
2556.380 1.309 1.285 1.265 1.3 1.334 1.342 1.362 1.351 1.382 1.457
2575.673 1.427 1.42 1.441 1.4 1.393 1.421 1.368 1.358 1.406 1.452
2594.966 1.4873 1.49 1.4861 1.448 1.436 1.467 1.518 1.4977 1.5262 1.63821
2614.260 1.64864 1.6905 1.7934 1.8708 1.988 2.0516 2.1296 2.2577 2.316 2.4101
2633.553 2.4847 2.5245 2.61 2.7 2.79 2.91 3 3.07 3.22 3.37
2652.847 3.45 3.59 3.76 3.89 4 4.04 4.05 4.03 3.97 3.94
2672.140 3.91 3.82 3.74 3.64 3.48 3.31 3.07 2.85 2.5786 2.2893
2691.434 2.0628 1.8371 1.6843 1.5972 1.479 1.432 1.438 1.438 1.431 1.4822
2710.727 1.5403 1.4961 1.481 1.5124 1.505 1.4813 1.5608 1.59112 1.57305 1.58892
2730.020 1.5657 1.58475 1.62794 1.64903 1.66869 1.7198 1.7375 1.702 1.7128 1.752
2749.314 1.7695 1.7683 1.8346 1.9105 1.9132 1.8803 1.8294 1.8128 1.8267 1.7936
2768.607 1.7597 1.7232 1.698 1.7598 1.8506 1.8833 1.8657 1.8753 1.997 2.1245
2787.901 2.2682 2.3546 2.4309 2.64 2.79 2.97 3.24 3.35 3.47 3.67
2807.194 3.83 4.1 4.33 4.58 4.89 5.18 5.5 5.85 6.21 6.62
2826.488 7.13 7.78 8.64 9.67 10.94 12.53 14.65 17.39 20.73 24.86
2845.781 29.93 35.92 42.55 49.62 56.64 62.65 67.17 69.94 70.63 69.56
2865.074 67 63.01 58.21 53.05 47.92 43.13 38.8 35.03 31.9 29.64
2884.368 28.23 27.78 28.58 30.99 35.5 42.44 52.26 65.72 83.29 105.08
2903.661 130.78 159.29 188.76 218.16 247.4 275.7 300.47 316.05 316.67 303.43
2922.955 283.1 256.53 224.69 191.32 156.12 123.53 99.13 82.74 71.64 63.63
2942.248 57.3 51.62 46.42 41.83 37.6 33.78 30.47 27.71 25.58 23.88
2961.542 22.47 21.18 19.88 18.54 17.11 15.58 14.1 12.61 11.2 9.96
2980.835 8.84 7.9 7.13 6.41 5.79 5.41 5.22 5.02 4.85 4.56
3000.128 4.31 4.17 4.05 3.9 3.79 3.77 3.8 3.83 3.75 3.65
3019.422 3.65 3.64 3.52 3.45 3.38 3.33 3.35 3.35 3.22 3.08
3038.715 2.97 2.85 2.92 3 2.96 2.88 2.74 2.69 2.5737 2.3871
3058.009 2.3757 2.3602 2.3187 2.2867 2.192 2.0429 2.0078 2.1381 2.1968 2.0873
3077.302 1.8874 1.8306 1.7701 1.63462 1.5542 1.4931 1.398 1.383 1.253 1.048
3096.596 0.958 0.908 0.898 0.844 0.802 0.757 0.742 0.682 0.658 0.681
3115.889 0.56 0.48 0.54 0.51 0.43 0.39 0.45 0.47 0.42 0.42
3135.182 0.45 0.42 0.41 0.35 0.32 0.34 0.36 0.35 0.33 0.29
3154.476 0.17 0.21 0.26 0.32 0.31 0.23 0.31 0.34 0.37 0.42
3173.769 0.34 0.24 0.41 0.53 0.52 0.53 0.49 0.49 0.53 0.6
3193.063 0.656 0.618 0.45 0.34 0.42 0.41 0.38 0.38 0.31 0.35
3212.356 0.4 0.36 0.32 0.4 0.4 0.26 0.35 0.33 0.32 0.48
3231.650 0.46 0.37 0.3 0.2 0.07 0.11 0.25 0.19 0.07 0
3250.943 0.09 0.28 0.24 0.04 0.05 0.15 0.18 0.25 0.19 0.09
3270.236 0.15 0.19 0.3 0.37 0.27 0.4 0.49 0.35 0.33 0.35
3289.530 0.35 0.44 0.5 0.43 0.38 0.29 0.31 0.51 0.54 0.57
3308.823 0.5 0.44 0.589 0.66 0.651 0.626 0.6 0.624 0.64 0.55
3328.117 0.41 0.35 0.28 0.28 0.37 0.42 0.48 0.44 0.33 0.38
3347.410 0.47 0.49 0.48 0.54 0.797 0.808 0.806 0.872 0.808 0.958
3366.704 1.119 1.256 1.426 1.5263 1.4841 1.464 1.473 1.42 1.408 1.506
3385.997 1.5669 1.485 1.455 1.61344 1.7729 1.7301 1.8136 2.0195 2.1703 2.2385
3405.290 2.2775 2.4253 2.59 2.5611 2.5014 2.5561 2.65 2.7 2.77 2.85
3424.584 3 3.22 3.49 3.83 4.15 4.6 4.93 5.19 5.55 5.89
3443.877 6.19 6.33 6.51 6.75 6.7 6.52 6.28 5.86 5.34 4.68
3463.171 3.98 3.41 2.8 2.2834 2.0038 1.5358 1.126 1.006 0.918 0.84
3482.464 0.74 0.624 0.656 0.692 0.629 0.5 0.46 0.5 0.45 0.51
3501.758 0.45 0.41 0.41 0.35 0.39 0.48 0.46 0.48 0.58 0.48
3521.051 0.44 0.47 0.41 0.36 0.37 0.37 0.38 0.49 0.52 0.5
3540.344 0.54 0.611 0.632 0.612 0.53 0.53 0.64 0.693 0.831 0.952
3559.638 0.842 0.775 0.803 0.687 0.58 0.54 0.621 0.689 0.654 0.627
3578.931 0.57 0.586 0.672 0.54 0.51 0.57 0.55 0.52 0.44 0.4
3598.225 0.43 0.45 0.41 0.39 0.47 0.51 0.615 0.664 0.5 0.46
3617.518 0.54 0.47 0.36 0.31 0.37 0.46 0.587 0.53 0.47 0.51
3636.812 0.42 0.4 0.49 0.599 0.58 0.53 0.48 0.47 0.47 0.44
3656.105 0.56 0.586 0.48 0.44 0.47 0.633 0.652 0.49 0.47 0.47
3675.398 0.41 0.42 0.56 0.587 0.55 0.55 0.61 0.676 0.707 0.72
3694.692 0.586 0.5 0.618 0.654 0.668 0.707 0.689 0.582 0.53 0.54
3713.985 0.55 0.663 0.701 0.754 0.769 0.803 0.881 0.757 0.68 0.735
3733.279 0.856 0.884 0.826 0.711 0.709 0.831 0.803 0.697 0.656 0.737
3752.572 0.692 0.69 0.686 0.57 0.56 0.56 0.669 0.783 0.733 0.661
3771.866 0.659 0.755 0.851 0.831 0.75 0.733 0.719 0.73 0.727 0.659
3791.159 0.655 0.733 0.854 0.874 0.861 0.832 0.773 0.804 0.824 0.814
3810.452 0.839 0.93 0.857 0.761 0.791 0.765 0.788 0.864 0.826 0.793
3829.746 0.863 0.855 0.912 0.922 0.963 1.027 0.977 0.979 0.959 0.911
3849.039 0.942 0.895 0.785 0.871 0.904 0.904 0.939 0.917 0.929 0.911
3868.333 0.834 0.884 0.933 0.897 0.886 0.941 1.008 1.054 1.099 1.059
3887.626 1.048 1.068 1.074 1.077 1.133 1.129 1.105 1.169 1.061 0.937
3906.920 1.017 1.061 1.087 1.127 1.089 1.069 1.042 0.972 0.891 0.88
3926.213 0.892 0.941 0.943 0.946 1.007 0.924 0.889 0.935 0.901 0.956
3945.506 1.01 0.978 0.977 0.973 0.991 1.051 1.101 1.117 1.114 1.097
3964.800 1.083 1.134 1.151 1.131 1.117 1.058 1.067 0.99 0.917 0.927
3984.093 0.978 1.048 0.999 1.006 0.954 0.975 1.117 1.075 1.031
##END=
