##TITLE=4-(4-n-Propylphenyl)benzoic acid
##JCAMP-DX=4.24
##DATA TYPE=INFRARED SPECTRUM
##ORIGIN=EPA-IR VAPOR PHASE LIBRARY
##OWNER=SRD/NIST
Collection (C) 2018 copyright by the U.S. Secretary of Commerce
on behalf of the United States of America. All rights reserved.
##CAS REGISTRY NO=88038-94-2
##MOLFORM=C 16 H 16 O 2
##$NIST SOURCE=MSDC-IR
##STATE=gas
##XUNITS=1/CM
##YUNITS=ABSORBANCE
##XFACTOR=1.
##YFACTOR=0.001
##DELTAX=1.92898
##FIRSTX=549.8
##LASTX=4000.7
##FIRSTY=3.1
##MAXX=4000.7
##MINX=549.759
##MAXY=0.06742
##MINY=0
##NPOINTS=1790
##XYDATA=(X++(Y..Y))
549.759 3.1 3.78 3.64 4.03 3.88 2.99 3.17 3.94 4.14 3.84
569.049 4.05 4.16 4.1 4.03 3.94 3.49 3.27 3.62 3.43 3.01
588.339 2.81 2.89 3.09 2.74 2.39 2.47 2.31 2.09 2.16 2.18
607.628 2.27 2.58 2.72 2.59 2.5 2.26 2.01 1.87 1.362 0.9265
626.918 0.8938 1.0086 1.2877 1.2864 1.3308 1.73 1.98 1.73 1.1646 1.2467
646.208 1.1664 1.0965 1.4963 1.5012 1.5449 1.76 2.3 2.67 3.07 3.73
665.498 4.3 4.99 5.48 5.27 4.59 4.27 4.23 4.15 3.96 3.9
684.787 3.95 3.91 3.6 3.1 2.96 3.2 3.21 3.32 3.88 4.09
704.077 3.99 4.17 4.04 3.74 3.74 3.57 3.24 3.08 3.07 2.85
723.367 2.71 2.63 2.46 2.53 2.31 2.1 2.04 2.07 2.3 2.2
742.657 2.31 2.63 2.71 2.8 2.99 3.18 3.68 4.04 4.55 5.29
761.947 5.92 6.7 7.49 7.96 8.33 8.81 8.91 8.61 7.97 7.09
781.236 6.31 5.73 5.22 4.73 4.13 3.45 3.26 3.3 3.09 3
800.526 3.25 3.3 3.01 3.28 3.69 3.5 3.08 3.25 3.38 3.01
819.816 2.96 3.19 3.37 3.24 3.47 3.66 3.26 3.31 3.49 3.4
839.106 3.52 3.36 3.32 3.02 2.81 3.07 3.01 2.86 2.68 2.49
858.395 2.69 2.76 2.17 1.84 1.9 1.9 1.78 1.5346 1.406 1.2343
877.685 1.1973 1.1463 0.9473 0.9393 0.982 0.8156 0.7001 0.66469 0.7423 1.1854
896.975 1.1684 0.7552 0.69064 0.9447 0.939 0.914 0.893 0.9075 1.1108 1.1427
916.265 0.9959 0.8712 1.0333 0.9122 0.59284 0.437 0.7271 1.1106 1.028 1.0722
935.555 0.9432 0.65856 0.499 0.495 0.7169 0.9909 1.2712 1.0634 0.814 0.8269
954.844 0.62498 0.5638 0.46 0.499 0.67766 0.8217 0.7727 0.5329 0.61301 0.8944
974.134 0.8918 0.7003 0.5392 0.67994 0.8334 0.7628 0.9399 0.8784 0.87 1.4517
993.424 1.72 1.62 1.92 2.57 3.09 3.96 4.92 5.23 5.17 4.75
1012.714 4.23 3.65 3.26 3.5 3.95 4.1 3.64 3.2 3.34 2.7
1032.003 1.89 2.15 2.39 2.07 1.81 2.32 2.75 2.39 2.6 3.09
1051.293 3.14 2.84 2.92 3.52 4.03 5.42 7.31 8.52 9.8 12.1
1070.583 14.76 18.28 22.7 26.48 29.43 30.56 28.54 25.43 21.18 16.3
1089.873 13.08 9.96 7.51 6.79 6.22 5.79 5.22 4.35 4.21 3.78
1109.163 3.68 3.31 3.02 3.77 3.47 3.27 4.04 3.85 2.87 2.66
1128.452 2.97 2.89 2.94 3.58 4.15 4.04 3.34 4.01 4.57 4.13
1147.742 4.24 4.01 4.11 5.05 5.73 5.88 6.93 8.85 10.78 13.27
1167.032 17.01 20.49 23.79 26.48 26.67 23.69 19.96 17.84 16.48 16.05
1186.322 15.01 13.66 12.27 11.12 10.28 8.89 7.92 7.03 6.26 5.39
1205.611 5.3 4.89 4 4.78 4.68 3.4 3.31 4.04 4.18 4.33
1224.901 4.29 3.9 4.01 3.78 3.83 4.13 4.23 3.88 3.65 4.02
1244.191 3.79 3.42 3.44 3.9 4.14 4.08 4.23 4.26 4.66 5.06
1263.481 5.23 5.62 5.7 5.62 5.81 6.1 6.2 6.01 6.15 6.52
1282.771 6.24 5.86 5.62 5.31 5.21 4.95 4.73 4.52 4.36 4.32
1302.060 4.3 4.4 4.46 4.48 4.57 4.68 4.77 4.79 4.88 5.03
1321.350 5.22 5.62 6.02 6.34 6.94 7.64 8.19 8.63 8.86 8.85
1340.640 8.62 8.21 7.69 7.17 6.96 6.98 7.18 7.67 8.4 9.38
1359.930 10.32 11.07 11.38 10.92 10 8.68 7.22 6.09 5.25 4.65
1379.219 4.2 3.96 3.77 3.64 3.6 3.59 3.66 3.71 3.85 4.03
1398.509 4.07 4.01 3.77 3.44 3.12 2.86 2.73 2.57 2.48 2.48
1417.799 2.46 2.44 2.33 2.16 1.98 1.84 1.66 1.531 1.5313 1.3998
1437.089 1.3533 1.4517 1.5327 1.5371 1.3982 1.436 1.61 1.68 1.78 1.76
1456.378 1.76 1.88 2.04 2.11 2.18 2.18 2.01 1.96 1.87 1.86
1475.668 1.94 1.96 2.13 2.42 2.57 2.76 3.02 3.33 3.63 3.92
1494.958 4.29 4.5 4.48 4.09 3.61 3.13 2.56 2.18 1.91 1.67
1514.248 1.5685 1.5742 1.67 1.76 1.91 2.02 1.96 1.83 1.83 1.79
1533.538 1.5242 1.4389 1.3958 1.3095 1.3293 1.2188 1.0369 1.0931 1.2663 1.4531
1552.827 1.61 1.5186 1.4481 1.5146 1.67 1.67 1.5441 1.596 1.68 1.5818
1572.117 1.5939 1.71 1.69 1.72 1.69 1.66 1.76 1.94 2.15 2.38
1591.407 2.7 3.07 3.54 4.25 5.2 6.46 7.85 9.41 10.7 11.29
1610.697 11.08 10.01 8.51 6.83 5.27 4.05 3.25 2.59 2.12 1.92
1629.986 1.68 1.5639 1.4741 1.3578 1.3304 1.2436 1.2246 1.2266 1.1362 1.0256
1649.276 1.0413 1.065 1.0699 1.0957 1.0209 0.9763 1.0567 1.2423 1.2914 1.2335
1668.566 1.1531 1.1107 1.1585 1.2379 1.2672 1.2429 1.2226 1.3135 1.4398 1.4561
1687.856 1.5009 1.74 1.84 1.77 1.89 2.06 2.1 2.06 2.15 2.25
1707.146 2.27 2.39 2.7 2.83 2.86 3.08 3.15 3.21 3.26 3.34
1726.435 3.59 3.82 4.08 4.53 5.16 5.86 6.77 8.22 10 12.16
1745.725 15.17 19.35 25.28 33.84 45.36 57.59 66.04 67.42 61.57 49.59
1765.015 36.02 25.85 19.24 14.71 11.45 9.1 7.41 6.08 5.22 4.77
1784.305 4.39 4.12 3.96 3.59 3.2 2.93 2.7 2.54 2.45 2.51
1803.594 2.48 2.42 2.37 2.27 2.15 2 1.93 1.83 1.67 1.5935
1822.884 1.5161 1.486 1.4183 1.309 1.2408 1.1647 1.1358 1.0843 0.9315 0.8203
1842.174 0.8551 0.9006 0.8709 0.8344 0.8415 0.8542 0.8478 0.9017 0.8989 0.7592
1861.464 0.715 0.8012 0.8222 0.7793 0.7382 0.7514 0.7908 0.7491 0.7465 0.7393
1880.754 0.7318 0.7906 0.7736 0.7577 0.7995 0.7234 0.75 0.8393 0.8497 0.9931
1900.043 1.0557 0.9785 0.9608 0.9614 0.9802 0.9923 0.9806 1.0167 1.0233 1.0243
1919.333 0.9912 0.9503 0.937 0.9124 0.9931 1.0292 1.0037 0.9812 0.9266 0.9171
1938.623 0.9434 0.939 0.9234 0.9561 0.8892 0.8099 0.69985 0.66689 0.7566 0.7109
1957.913 0.67036 0.61234 0.64814 0.742 0.7578 0.7163 0.62705 0.67053 0.68207 0.65164
1977.202 0.66995 0.59318 0.5615 0.5857 0.5893 0.63957 0.59836 0.489 0.5175 0.5606
1996.492 0.5421 0.5237 0.5436 0.496 0.49 0.5569 0.496 0.485 0.48 0.437
2015.782 0.5148 0.5588 0.5404 0.491 0.468 0.5139 0.5896 0.63281 0.5507 0.5723
2035.072 0.609677 0.5452 0.5688 0.59384 0.5 0.409 0.396 0.408 0.462 0.468
2054.362 0.494 0.477 0.439 0.402 0.415 0.456 0.394 0.476 0.5166 0.441
2073.651 0.464 0.497 0.405 0.342 0.413 0.45 0.45 0.445 0.5164 0.5362
2092.941 0.47 0.5518 0.6385 0.5583 0.5145 0.5506 0.5475 0.5836 0.65993 0.61813
2112.231 0.464 0.442 0.5245 0.5471 0.5069 0.436 0.443 0.5393 0.5513 0.499
2131.521 0.5387 0.64923 0.5573 0.423 0.5268 0.583 0.556 0.5319 0.606463 0.59335
2150.810 0.5323 0.64144 0.6189 0.59341 0.68845 0.64358 0.438 0.349 0.5115 0.58
2170.100 0.56 0.492 0.414 0.416 0.451 0.5143 0.5149 0.5178 0.395 0.318
2189.390 0.395 0.433 0.42 0.434 0.406 0.403 0.484 0.5004 0.387 0.369
2208.680 0.426 0.47 0.5887 0.5555 0.462 0.348 0.36 0.444 0.5155 0.5466
2227.970 0.482 0.427 0.398 0.364 0.412 0.5367 0.5329 0.5213 0.375 0.31
2247.259 0.313 0.345 0.462 0.5808 0.7176 0.599959 0.423 0.347 0.387 0.463
2266.549 0.463 0.473 0.5465 0.5423 0.377 0.375 0.384 0.357 0.462 0.5565
2285.839 0.5754 0.5098 0.449 0.5593 0.61828 0.5841 0.5708 0.5587 0.5487 0.508
2305.129 0.5287 0.5657 0.59297 0.60283 0.559 0.443 0.457 0.63327 0.64291 0.5593
2324.418 0.5171 0.5213 0.525 0.444 0.46 0.5716 0.69554 0.64533 0.5035 0.5814
2343.708 0.65523 0.7084 0.66819 0.5608 0.5595 0.479 0.375 0.434 0.462 0.434
2362.998 0.418 0.467 0.601024 0.5574 0.372 0.378 0.476 0.471 0.5418 0.5732
2382.288 0.5373 0.5391 0.67387 0.7277 0.5387 0.408 0.44 0.36 0.295 0.466
2401.578 0.5197 0.5038 0.47 0.375 0.292 0.378 0.476 0.5298 0.5471 0.499
2420.867 0.5727 0.48 0.353 0.487 0.568 0.472 0.472 0.5227 0.405 0.431
2440.157 0.494 0.437 0.484 0.499 0.488 0.472 0.5255 0.65835 0.66516 0.5165
2459.447 0.404 0.336 0.317 0.421 0.5269 0.5329 0.488 0.401 0.365 0.425
2478.737 0.434 0.411 0.338 0.366 0.443 0.414 0.376 0.319 0.333 0.423
2498.026 0.496 0.465 0.452 0.492 0.487 0.5057 0.472 0.44 0.5546 0.456
2517.316 0.254 0.379 0.468 0.402 0.483 0.496 0.355 0.324 0.409 0.467
2536.606 0.469 0.391 0.415 0.5483 0.5137 0.5476 0.600441 0.5415 0.5106 0.456
2555.896 0.387 0.378 0.429 0.485 0.59409 0.606408 0.5349 0.423 0.361 0.5154
2575.186 0.64597 0.63016 0.5771 0.5829 0.5244 0.5116 0.5503 0.5783 0.69763 0.563
2594.475 0.309 0.284 0.286 0.353 0.482 0.5016 0.62898 0.600876 0.5045 0.5504
2613.765 0.6246 0.67 0.61918 0.5896 0.39 0.269 0.403 0.604195 0.61457 0.471
2633.055 0.455 0.456 0.5188 0.66693 0.5563 0.402 0.423 0.354 0.487 0.5508
2652.345 0.39 0.302 0.217 0.378 0.453 0.4 0.5258 0.64463 0.5785 0.478
2671.634 0.501 0.488 0.464 0.5512 0.5403 0.388 0.403 0.5343 0.5754 0.5742
2690.924 0.498 0.600349 0.7622 0.62347 0.438 0.436 0.477 0.447 0.467 0.5622
2710.214 0.6362 0.5063 0.436 0.5226 0.5593 0.5066 0.607374 0.61141 0.5319 0.5531
2729.504 0.5201 0.571 0.5635 0.5857 0.59342 0.498 0.447 0.413 0.451 0.5717
2748.794 0.601832 0.434 0.49 0.609153 0.464 0.5055 0.600973 0.5722 0.447 0.427
2768.083 0.454 0.5339 0.63447 0.5351 0.64488 0.7325 0.64294 0.609985 0.67877 0.7842
2787.373 0.8098 0.7798 0.7182 0.64113 0.727 0.67143 0.600121 0.734 0.67384 0.68313
2806.663 0.7455 0.7752 0.7301 0.7671 0.7514 0.7008 0.7693 0.8659 0.7762 0.61916
2825.953 0.7595 1.0113 1.0882 0.9544 1.0381 1.1637 1.1751 1.1826 1.3544 1.4371
2845.242 1.2816 1.3368 1.5675 1.84 2.1 2.09 2.21 2.51 2.73 3.04
2864.532 3.07 3.05 3.29 3.51 3.68 3.92 4.25 4.6 4.94 5.15
2883.822 5.02 4.65 4.34 4 3.59 3.38 3.18 2.9 2.94 3.05
2903.112 2.88 2.93 3.19 3.31 3.66 3.89 3.96 4.38 4.88 5.26
2922.401 5.57 6.03 6.63 7.15 7.57 8.17 8.8 9.09 9.19 9.31
2941.691 9.2 8.66 8.25 7.72 6.94 6.37 6.04 6.08 6.21 6.34
2960.981 6.57 6.85 7.17 7.63 8.17 8.57 8.77 8.52 7.87 6.98
2980.271 5.96 4.94 4.34 3.96 3.59 3.22 2.99 2.82 2.46 2.29
2999.561 2.31 2.36 2.34 2.19 2.19 2.31 2.5 2.52 2.4 2.45
3018.850 2.71 3.35 4 4.52 4.92 5.29 5.38 4.93 4.29 3.74
3038.140 3.44 3.03 2.63 2.61 2.74 2.81 2.8 2.75 2.79 2.95
3057.430 2.83 2.74 2.76 2.69 2.64 2.61 2.54 2.49 2.33 2.34
3076.720 2.34 2.29 2.34 2.24 2.26 2.18 2.12 2.16 2.21 2.2
3096.009 1.97 1.81 1.66 1.4344 1.2973 1.3595 1.3381 1.3036 1.1439 0.9356
3115.299 0.8945 1.0569 1.1857 1.1786 1.0782 0.9404 0.9081 0.7152 0.7562 0.9811
3134.589 0.9703 0.8236 0.7154 0.7577 0.7391 0.68927 0.701 0.7048 0.5305 0.7188
3153.879 0.8938 0.67293 0.63961 0.5644 0.65691 0.67795 0.5943 0.466 0.393 0.465
3173.169 0.281 0.285 0.448 0.415 0.396 0.5042 0.492 0.375 0.274 0.231
3192.458 0.357 0.26 0.212 0.372 0.457 0.325 0.317 0.322 0.342 0.5568
3211.748 0.5415 0.62082 0.587 0.474 0.454 0.433 0.68024 0.67493 0.383 0.347
3231.038 0.355 0.353 0.43 0.355 0.324 0.292 0.329 0.336 0.25 0.399
3250.328 0.5737 0.5101 0.319 0.436 0.387 0.327 0.431 0.367 0.439 0.402
3269.617 0.289 0.378 0.397 0.412 0.372 0.345 0.5106 0.5516 0.5631 0.479
3288.907 0.392 0.343 0.472 0.5501 0.5 0.437 0.345 0.5299 0.415 0.308
3308.197 0.344 0.5675 0.63256 0.361 0.484 0.5717 0.377 0.402 0.61808 0.462
3327.487 0.449 0.65947 0.65853 0.63507 0.5013 0.5202 0.426 0.327 0.414 0.41
3346.777 0.427 0.5 0.379 0.323 0.469 0.5645 0.5671 0.511 0.584 0.452
3366.066 0.341 0.62123 0.68354 0.5875 0.5812 0.435 0.362 0.481 0.5794 0.65928
3385.356 0.64625 0.485 0.4 0.477 0.5004 0.63236 0.66311 0.600883 0.6161 0.5708
3404.646 0.527 0.359 0.411 0.424 0.386 0.5452 0.66355 0.603006 0.401 0.227
3423.936 0.206 0.221 0.291 0.383 0.411 0.5017 0.5207 0.337 0.218 0.369
3443.225 0.5475 0.65352 0.599537 0.5018 0.5081 0.603687 0.5841 0.338 0.168 0.026
3462.515 0.117 0.307 0.285 0.489 0.7022 0.7557 0.68188 0.59094 0.5 0.478
3481.805 0.7792 0.8818 0.7832 0.7854 0.729 0.7775 1.0166 0.9651 0.8521 0.9575
3501.095 0.92 0.7838 0.62941 0.5732 0.535 0.485 0.452 0.46 0.5333 0.63328
3520.385 0.8123 0.743 0.61818 0.606368 0.406 0.373 0.451 0.489 0.7309 0.851
3539.674 0.7582 0.63545 0.7682 0.9423 0.983 0.9584 0.69082 0.67494 0.7587 0.62597
3558.964 0.8468 1.0745 1.0194 1.4699 2.05 2.24 2.97 4.25 6.04 8.82
3578.254 12.9 17.68 21.38 22.26 20.01 15.34 10.05 5.85 3.06 1.92
3597.544 1.66 1.3701 1.1392 1.0856 1.0189 0.8384 0.69769 0.7504 0.8184 1.0064
3616.833 1.0447 0.7163 0.59636 0.7442 0.7394 0.62416 0.5423 0.409 0.46 0.68407
3636.123 0.7861 0.64086 0.5038 0.5261 0.68806 0.7062 0.7771 0.7851 0.438 0.435
3655.413 0.5771 0.425 0.5003 0.7237 0.7028 0.5599 0.388 0.459 0.609436 0.68026
3674.703 0.64141 0.474 0.267 0.286 0.5961 0.65097 0.5685 0.5855 0.426 0.334
3693.993 0.5548 0.709 0.5843 0.69905 0.7064 0.5347 0.64081 0.64057 0.289 0.242
3713.282 0.5565 0.5338 0.5155 0.471 0.374 0.607007 0.7444 0.5457 0.5762 0.7137
3732.572 0.59816 0.461 0.59204 0.7057 0.69106 0.525 0.337 0.256 0.102 0.201
3751.862 0.48 0.416 0.41 0.441 0.478 0.5226 0.486 0.609881 0.482 0.444
3771.152 0.493 0.61994 0.7608 0.63772 0.5682 0.64794 0.59833 0.475 0.298 0.352
3790.441 0.7833 0.7016 0.5484 0.7186 0.491 0.255 0.39 0.496 0.482 0.5105
3809.731 0.7722 0.8799 0.62966 0.28 0.152 0.311 0.5076 0.448 0.62694 0.69948
3829.021 0.422 0.51 0.66678 0.5682 0.461 0.445 0.384 0.456 0.5349 0.471
3848.311 0.402 0.399 0.192 0.17 0.379 0.343 0.282 0.295 0.242 0.269
3867.601 0.228 0 0.104 0.045 0.181 0.5406 0.408 0.242 0.326 0.479
3886.890 0.461 0.279 0.5822 0.8663 0.67178 0.7197 0.5166 0.283 0.376 0.5246
3906.180 0.68605 0.7034 0.64306 0.439 0.409 0.5083 0.5622 0.68187 0.5712 0.59437
3925.470 0.5708 0.461 0.5059 0.605602 0.59608 0.328 0.256 0.296 0.291 0.5064
3944.760 0.413 0.5597 0.7482 0.5371 0.63152 0.67116 0.64119 0.65809 0.5093 0.383
3964.049 0.432 0.5423 0.69552 0.69355 0.5521 0.354 0.374 0.5621 0.5258 0.405
3983.339 0.272 0.472 0.797 0.69419 0.5776 0.59024 0.492 0.7139 0.7126 0.5579
##END=
