##TITLE=6-Methoxy-m-toluenesulfonyl chloride
##JCAMP-DX=4.24
##DATA TYPE=INFRARED SPECTRUM
##ORIGIN=EPA-IR VAPOR PHASE LIBRARY
##OWNER=SRD/NIST
Collection (C) 2018 copyright by the U.S. Secretary of Commerce
on behalf of the United States of America. All rights reserved.
##CAS REGISTRY NO=88040-86-2
##MOLFORM=C 8 H 9 Cl O 3 S
##$NIST SOURCE=MSDC-IR
##STATE=gas
##XUNITS=1/CM
##YUNITS=ABSORBANCE
##XFACTOR=1.
##YFACTOR=0.001
##DELTAX=1.92898
##FIRSTX=549.8
##LASTX=4000.7
##FIRSTY=67.805
##MAXX=4000.7
##MINX=549.759
##MAXY=0.158105
##MINY=0
##NPOINTS=1790
##XYDATA=(X++(Y..Y))
549.759 67.805 65.085 61.495 57.535 53.835 49.935 46.585 43.795 41.975 40.875
569.049 40.495 41.315 42.945 46.105 51.875 60.095 70.985 85.345 103.065 122.585
588.339 140.215 152.475 158.105 156.995 146.625 127.875 107.035 86.465 66.725 49.625
607.628 37.005 28.375 22.435 18.265 15.175 12.915 11.045 9.715 8.695 7.875
626.918 7.125 6.495 6.055 5.545 5.215 4.715 4.175 3.955 3.655 3.285
646.208 3.125 2.935 2.805 2.755 2.705 2.785 2.855 2.935 2.945 3.135
665.498 3.425 3.635 4.135 4.855 5.735 7.105 9.345 12.785 17.165 21.985
684.787 26.235 29.075 30.835 30.825 28.485 25.335 21.005 15.365 10.395 7.225
704.077 5.555 4.795 4.695 4.725 4.915 5.225 5.575 6.115 6.575 6.845
723.367 6.875 6.635 6.235 5.955 5.805 5.565 5.135 4.765 4.575 4.545
742.657 4.405 4.105 3.995 3.655 3.195 2.885 2.635 2.325 1.945 1.755
761.947 1.755 1.745 1.605 1.405 1.375 1.525 1.615 1.595 1.755 1.875
781.236 1.945 2.005 2.105 2.545 3.115 3.625 4.125 4.935 5.965 7.335
800.526 9.195 11.335 13.635 16.115 18.685 20.975 22.255 22.715 22.325 20.935
819.816 19.175 17.005 14.565 12.345 10.315 8.505 7.035 5.915 5.075 4.305
839.106 3.615 3.075 2.765 2.905 2.865 2.535 2.485 2.425 2.415 2.595
858.395 2.765 3.055 3.525 4.145 5.155 6.265 7.495 9.085 10.775 12.165
877.685 13.065 13.525 13.505 12.935 11.795 10.425 8.965 7.555 6.355 5.435
896.975 4.795 4.155 3.665 3.295 2.975 2.695 2.515 2.255 2.095 2.005
916.265 1.735 1.585 1.595 1.465 1.315 1.365 1.525 1.515 1.515 1.595
935.555 1.615 1.815 1.955 1.855 1.835 2.025 2.255 2.335 2.425 2.465
954.844 2.505 2.605 2.655 2.975 3.265 3.355 3.695 4.005 4.075 4.285
974.134 4.545 4.805 5.265 5.685 6.145 6.495 6.745 7.415 8.075 8.745
993.424 9.305 9.885 10.705 11.925 13.415 14.945 16.765 18.845 21.035 23.565
1012.714 26.105 28.045 29.955 31.715 32.375 31.805 30.515 28.795 26.805 24.295
1032.003 21.735 19.025 16.305 14.115 12.585 11.195 10.345 10.145 10.215 10.765
1051.293 11.995 13.405 15.025 17.375 20.075 22.565 24.295 25.425 25.325 24.715
1070.583 23.395 20.485 17.185 14.065 11.325 9.075 7.435 6.765 5.825 4.735
1089.873 4.555 4.395 4.325 4.295 4.145 3.865 3.305 3.165 3.645 3.825
1109.163 3.835 4.145 4.115 4.305 4.655 4.865 4.985 5.265 6.115 6.985
1128.452 7.935 9.025 10.285 12.255 14.775 17.565 20.605 23.575 26.645 29.075
1147.742 30.375 31.065 31.375 31.395 31.315 31.215 31.995 34.205 37.965 43.965
1167.032 51.975 61.495 72.225 83.295 93.575 102.335 109.045 112.145 111.565 108.635
1186.322 104.105 98.195 90.755 82.265 72.385 62.065 51.915 42.395 34.605 28.415
1205.611 23.735 20.315 17.885 16.075 15.015 14.905 14.725 14.735 14.775 14.355
1224.901 14.345 14.285 14.225 14.585 15.205 15.995 17.365 19.365 21.365 23.775
1244.191 26.525 29.755 33.445 36.995 40.775 44.685 48.245 51.505 54.305 56.555
1263.481 58.745 61.195 64.335 68.355 73.505 79.915 86.925 93.515 98.645 101.055
1282.771 100.245 96.435 89.535 79.845 68.195 56.095 44.915 35.305 27.605 21.835
1302.060 17.615 14.625 12.435 10.755 9.565 8.615 7.795 7.185 6.745 6.375
1321.350 6.045 5.785 5.625 5.525 5.475 5.435 5.395 5.435 5.535 5.695
1340.640 5.815 5.995 6.155 6.285 6.515 6.805 7.125 7.445 7.905 8.455
1359.930 9.155 10.035 11.255 12.885 14.955 17.415 20.295 23.905 28.285 33.415
1379.219 39.325 45.845 52.695 59.575 66.415 73.015 79.135 84.665 89.565 93.575
1398.509 95.885 95.955 93.495 88.625 81.835 73.475 64.005 54.165 44.925 37.055
1417.799 30.855 26.205 23.035 20.965 19.645 19.045 18.995 19.275 19.915 20.855
1437.089 21.935 22.895 23.465 23.545 23.175 22.435 21.485 20.415 19.385 18.815
1456.378 18.805 19.395 20.385 21.415 22.345 23.195 23.995 24.845 25.855 27.145
1475.668 28.935 31.555 35.375 40.635 47.485 56.225 67.105 79.955 94.285 108.775
1494.958 121.385 130.265 133.965 131.995 124.845 113.125 97.105 78.955 61.335 45.935
1514.248 34.185 25.995 20.465 16.755 14.045 12.185 10.955 9.945 9.165 8.575
1533.538 8.075 7.765 7.585 7.385 7.205 7.155 7.225 7.405 7.785 8.125
1552.827 8.475 8.975 9.385 9.785 10.275 10.675 10.985 11.365 11.715 12.135
1572.117 12.555 12.875 13.245 13.405 13.415 13.245 12.835 12.405 12.005 11.765
1591.407 11.825 12.295 13.215 14.255 15.305 16.375 17.205 17.685 17.755 17.395
1610.697 16.645 15.535 14.115 12.445 10.715 9.215 7.995 6.855 5.885 5.195
1629.986 4.615 4.155 3.715 3.365 3.115 2.865 2.705 2.645 2.495 2.295
1649.276 2.225 2.145 2.025 1.895 1.825 1.745 1.585 1.495 1.445 1.415
1668.566 1.455 1.375 1.275 1.305 1.255 1.144 1.1282 1.1399 1.1346 1.0801
1687.856 1.109 1.1814 1.1184 1.0804 1.0868 1.1119 1.0973 1.0505 1.0824 1.1268
1707.146 1.1746 1.2253 1.235 1.2092 1.1876 1.2227 1.255 1.245 1.285 1.295
1726.435 1.265 1.335 1.405 1.445 1.465 1.425 1.495 1.575 1.695 1.815
1745.725 1.805 1.855 1.925 1.885 1.845 1.905 1.965 2.055 2.085 1.975
1765.015 1.985 2.045 2.015 2.015 2.045 2.015 1.995 1.985 1.945 1.905
1784.305 1.775 1.585 1.425 1.345 1.305 1.2093 1.1081 1.0538 1.0582 1.0963
1803.594 1.0861 1.0342 1.019 1.0165 1.0388 1.1011 1.1208 1.1278 1.1684 1.2014
1822.884 1.315 1.415 1.505 1.695 1.785 1.855 1.975 1.985 1.955 1.925
1842.174 1.855 1.685 1.505 1.415 1.2348 1.0526 0.9941 0.9805 0.9489 0.9091
1861.464 0.9075 0.8729 0.9057 1.0061 1.0455 1.0794 1.0612 1.0544 1.1414 1.2292
1880.754 1.365 1.545 1.685 1.735 1.855 2.005 2.015 2.015 1.985 1.915
1900.043 1.825 1.685 1.565 1.445 1.365 1.265 1.1319 1.0732 1.0289 1.0154
1919.333 0.9424 0.9283 0.9821 0.963 0.994 1.0186 1 1.0257 1.0415 1.0983
1938.623 1.1354 1.1185 1.1225 1.1418 1.1741 1.2008 1.2052 1.1887 1.1328 1.0766
1957.913 1.0729 1.045 1.0387 1.023 1.0463 1.0746 1.0904 1.181 1.1876 1.2171
1977.202 1.265 1.295 1.315 1.375 1.455 1.525 1.695 1.765 1.835 2.005
1996.492 2.135 2.185 2.245 2.325 2.345 2.425 2.495 2.545 2.585 2.625
2015.782 2.705 2.745 2.715 2.755 2.815 2.785 2.625 2.505 2.395 2.225
2035.072 2.115 2.025 1.955 1.795 1.665 1.635 1.545 1.485 1.475 1.445
2054.362 1.385 1.335 1.275 1.2317 1.1424 1.0965 1.0885 1.0454 1.0863 1.0614
2073.651 0.9321 0.9133 0.9693 0.9979 1.0335 1.0339 0.9369 0.8952 0.9712 0.961
2092.941 0.9193 1.0028 0.9737 0.8862 0.8233 0.7692 0.7665 0.7601 0.7456 0.7484
2112.231 0.687 0.6862 0.6931 0.7088 0.7433 0.6962 0.7668 0.8433 0.8388 0.7834
2131.521 0.7565 0.7894 0.8993 0.9384 0.868 0.7793 0.7521 0.7564 0.7287 0.7668
2150.810 0.7592 0.7326 0.7505 0.7609 0.73 0.6905 0.6696 0.6519 0.6922 0.7486
2170.100 0.6889 0.6205 0.5769 0.5505 0.5671 0.6149 0.6633 0.6571 0.5925 0.5528
2189.390 0.5322 0.5505 0.5751 0.537 0.5363 0.5797 0.6248 0.5796 0.56 0.6109
2208.680 0.6416 0.64 0.5958 0.5827 0.7133 0.8231 0.8156 0.8401 0.8715 0.8769
2227.970 0.9441 0.9647 0.9014 0.9431 1.0346 1.0298 1.0568 1.1006 1.1013 1.1129
2247.259 1.0481 0.9722 0.9287 0.8739 0.8616 0.8145 0.8478 0.8998 0.8988 0.8846
2266.549 0.8544 0.8655 0.8419 0.8473 0.8101 0.8018 0.9129 0.9372 0.8966 0.8815
2285.839 0.9115 0.9218 0.9155 0.989 0.9395 0.8532 0.8832 0.8867 0.8054 0.751
2305.129 0.845 0.8615 0.8173 0.8142 0.8303 0.8516 0.8433 0.8947 0.8737 0.8873
2324.418 0.9051 0.8937 0.9689 0.9793 0.9719 1.0595 1.1008 1.0651 1.036 1.048
2343.708 1.0973 1.1564 1.255 1.2267 1.1557 1.1796 1.1628 1.1049 1.0968 1.1179
2362.998 1.0426 0.9829 0.9489 0.8972 0.9386 0.9199 0.8704 0.8757 0.8095 0.7429
2382.288 0.759 0.7564 0.6863 0.6498 0.7132 0.6905 0.6067 0.5684 0.5533 0.6528
2401.578 0.6181 0.5031 0.5198 0.5545 0.5617 0.626 0.6303 0.537 0.5092 0.4785
2420.867 0.502 0.5913 0.5714 0.5869 0.6914 0.6823 0.6509 0.6641 0.6413 0.6381
2440.157 0.6161 0.6096 0.675 0.6924 0.6461 0.5936 0.6276 0.6631 0.685 0.7088
2459.447 0.6651 0.6455 0.6835 0.6836 0.6938 0.7398 0.7537 0.6908 0.6763 0.7118
2478.737 0.6637 0.711 0.7438 0.7323 0.7689 0.7418 0.814 0.8345 0.7745 0.8064
2498.026 0.8706 0.8629 0.8623 0.9316 0.9814 0.9922 0.9941 1.035 1.0599 1.0569
2517.316 1.0929 1.2097 1.2217 1.1993 1.2232 1.295 1.385 1.455 1.535 1.615
2536.606 1.605 1.605 1.745 1.775 1.845 2.005 2.035 1.985 2.045 2.105
2555.896 2.105 2.175 2.165 2.165 2.155 2.075 2.025 2.005 1.905 1.725
2575.186 1.625 1.555 1.375 1.265 1.1676 1.1243 1.1381 1.0779 1.0001 0.9431
2594.475 0.9538 1.0042 1.006 1.0276 1.0876 1.0682 1.0814 1.1027 0.9983 1.0087
2613.765 0.9585 0.8853 0.97 0.9953 0.9867 0.9371 0.9489 1.0048 0.9759 0.8996
2633.055 0.9538 1.0678 1.0659 1.003 0.9507 0.9239 0.8997 0.9136 0.8664 0.8572
2652.345 0.8664 0.8321 0.7445 0.7187 0.745 0.7087 0.6942 0.7346 0.7961 0.7695
2671.634 0.7418 0.7669 0.7817 0.7003 0.6574 0.6195 0.6004 0.6708 0.7088 0.7388
2690.924 0.6576 0.5723 0.5573 0.5134 0.5444 0.5388 0.5334 0.6264 0.619 0.555
2710.214 0.6199 0.666 0.6511 0.6562 0.7546 0.736 0.5696 0.67 0.7818 0.7051
2729.504 0.7992 0.9074 0.9543 1.033 1.0417 1.1313 1.2275 1.265 1.365 1.375
2748.794 1.425 1.515 1.525 1.645 1.645 1.625 1.595 1.545 1.565 1.425
2768.083 1.405 1.495 1.505 1.505 1.455 1.435 1.415 1.335 1.395 1.485
2787.373 1.465 1.515 1.575 1.565 1.515 1.465 1.445 1.465 1.575 1.665
2806.663 1.795 1.885 1.915 1.965 2.095 2.395 2.555 2.715 2.915 3.175
2825.953 3.445 3.515 3.835 4.305 4.925 5.595 6.455 7.455 8.545 9.805
2845.242 10.765 11.455 11.895 12.065 12.125 11.865 11.325 10.795 10.145 9.565
2864.532 9.205 9.025 9.035 9.055 9.075 9.165 9.265 9.385 9.465 9.465
2883.822 9.525 9.535 9.535 9.585 9.665 9.725 9.905 10.185 10.475 10.665
2903.112 10.865 11.235 11.545 11.725 11.815 12.065 12.345 12.645 13.075 13.555
2922.401 14.325 15.465 16.645 17.965 19.575 21.355 22.975 24.405 25.675 26.585
2941.691 27.215 27.455 27.305 26.835 26.185 25.385 24.365 23.035 21.625 20.155
2960.981 18.695 17.455 16.365 15.585 14.955 14.435 13.935 13.115 12.325 11.625
2980.271 10.945 10.395 9.805 9.305 9.035 8.815 8.715 8.895 8.945 8.895
2999.561 9.105 9.405 9.775 10.245 10.715 11.285 12.045 12.775 13.325 13.785
3018.850 14.255 14.425 14.385 14.135 13.825 13.675 13.485 13.495 13.445 13.265
3038.140 13.275 12.995 12.405 11.705 10.785 9.855 9.045 8.215 7.415 6.735
3057.430 6.235 5.995 5.875 5.855 5.995 6.195 6.255 6.285 6.385 6.405
3076.720 6.375 6.145 5.775 5.405 5.165 4.965 4.655 4.335 3.875 3.465
3096.009 3.295 3.135 2.925 2.695 2.475 2.445 2.325 2.045 1.925 1.975
3115.299 1.955 1.695 1.465 1.535 1.525 1.265 1.19 1.315 1.335 1.245
3134.589 1.2148 1.1921 1.113 0.9729 0.9674 0.9609 0.8109 0.7852 0.7756 0.8889
3153.879 0.9253 0.8514 0.8247 0.8226 0.8205 0.7754 0.8115 0.7995 0.8293 0.7757
3173.169 0.774 0.8023 0.7265 0.7214 0.6756 0.5478 0.5717 0.747 0.7179 0.5561
3192.458 0.5104 0.4969 0.6297 0.787 0.6034 0.4508 0.4893 0.5 0.5239 0.6547
3211.748 0.674 0.5202 0.4805 0.4722 0.5047 0.635 0.5112 0.465 0.5893 0.5357
3231.038 0.5117 0.434 0.25442 0.27048 0.4095 0.4826 0.3867 0.30779 0.3582 0.3696
3250.328 0.4661 0.599 0.6296 0.4498 0.3809 0.3766 0.23131 0.1813 0.28228 0.3737
3269.617 0.4539 0.5515 0.5887 0.5251 0.3738 0.3848 0.3499 0.28168 0.27456 0.1709
3288.907 0.2051 0.240459 0.234723 0.32598 0.3754 0.3255 0.173 0.126 0.26386 0.31174
3308.197 0.3619 0.4331 0.3826 0.3764 0.4221 0.4423 0.32406 0.240256 0.3455 0.27187
3327.487 0.17 0.2171 0.242376 0.241036 0.26004 0.32373 0.3364 0.3517 0.27718 0.1957
3346.777 0.30049 0.32352 0.239283 0.29877 0.4805 0.4405 0.3146 0.30214 0.29192 0.3435
3366.066 0.33198 0.30302 0.32514 0.3707 0.4066 0.3787 0.3559 0.4379 0.4552 0.4748
3385.356 0.5789 0.5371 0.3471 0.31296 0.4965 0.5019 0.3645 0.4649 0.5121 0.3685
3404.646 0.3792 0.3801 0.4008 0.4277 0.27391 0.1888 0.234465 0.1978 0.29192 0.3871
3423.936 0.25736 0.1634 0.29731 0.3976 0.1972 0.188 0.3988 0.5419 0.5722 0.4801
3443.225 0.369 0.26304 0.2035 0.25489 0.238833 0.31021 0.511 0.4247 0.404 0.4577
3462.515 0.372 0.30951 0.28908 0.3544 0.4538 0.4857 0.4477 0.4072 0.3373 0.3836
3481.805 0.382 0.2056 0.1755 0.243847 0.3734 0.4037 0.240758 0.2521 0.4088 0.3412
3501.095 0.27282 0.3982 0.3421 0.29459 0.3918 0.3789 0.26897 0.24803 0.33454 0.3849
3520.385 0.27554 0.1885 0.2672 0.2131 0.2082 0.31958 0.3618 0.3522 0.4048 0.3848
3539.674 0.32509 0.28417 0.25491 0.2233 0.1988 0.3486 0.3823 0.2807 0.25635 0.27857
3558.964 0.175 0.131 0.2083 0.22843 0.1825 0.234986 0.4378 0.4561 0.4649 0.4873
3578.254 0.3614 0.3565 0.31996 0.25556 0.27987 0.3424 0.3506 0.32644 0.3875 0.4417
3597.544 0.4903 0.383 0.135 0 0.1924 0.3391 0.338 0.406 0.3808 0.29506
3616.833 0.25337 0.1899 0.1574 0.1463 0.1565 0.27057 0.26589 0.127 0.25957 0.3817
3636.123 0.4124 0.5569 0.5036 0.1849 0.074 0.28453 0.377 0.4257 0.3601 0.384
3655.413 0.4051 0.3466 0.28214 0.239844 0.31158 0.24636 0.131 0.2094 0.25402 0.26946
3674.703 0.4357 0.4546 0.4188 0.28831 0.2088 0.2116 0.1424 0.1447 0.1558 0.1659
3693.993 0.2131 0.30919 0.242998 0.1583 0.25476 0.27832 0.3409 0.4454 0.29847 0.28162
3713.282 0.446 0.4707 0.4137 0.32802 0.3699 0.31627 0.3918 0.4466 0.29307 0.3609
3732.572 0.4387 0.4285 0.3449 0.338 0.4473 0.5644 0.5034 0.3605 0.476 0.5809
3751.862 0.33469 0.1992 0.3432 0.4779 0.5288 0.4635 0.4596 0.30809 0.26812 0.28468
3771.152 0.1975 0.2161 0.26629 0.3667 0.4343 0.4388 0.3974 0.4016 0.412 0.3938
3790.441 0.4154 0.4033 0.4123 0.459 0.4302 0.32655 0.26382 0.31518 0.27887 0.1506
3809.731 0.24986 0.3148 0.183 0.29943 0.3748 0.28033 0.30645 0.408 0.4107 0.3292
3829.021 0.25283 0.3557 0.3487 0.2161 0.30279 0.3738 0.32459 0.2179 0.2578 0.28626
3848.311 0.26954 0.3689 0.3941 0.4037 0.3896 0.3459 0.4303 0.4396 0.3844 0.6264
3867.601 0.7352 0.5414 0.3302 0.217 0.26836 0.3631 0.32684 0.2105 0.11 0.26605
3886.890 0.5533 0.454 0.28525 0.32621 0.4098 0.4271 0.4197 0.5133 0.4465 0.4374
3906.180 0.5075 0.3736 0.4602 0.6102 0.6052 0.6804 0.656 0.4947 0.5282 0.4134
3925.470 0.30276 0.3953 0.4294 0.417 0.43 0.5021 0.4888 0.3722 0.4876 0.6582
3944.760 0.6497 0.5289 0.5257 0.6928 0.6113 0.4561 0.4887 0.5237 0.4476 0.4839
3964.049 0.446 0.33211 0.3643 0.5132 0.489 0.3408 0.3466 0.4283 0.6382 0.5666
3983.339 0.5176 0.5119 0.4495 0.5888 0.5571 0.5944 0.521 0.4011 0.429 0.4938
##END=
