##TITLE=9-Hexadecyn-1-ol
##JCAMP-DX=4.24
##DATA TYPE=INFRARED SPECTRUM
##ORIGIN=EPA-IR VAPOR PHASE LIBRARY
##OWNER=SRD/NIST
Collection (C) 2018 copyright by the U.S. Secretary of Commerce
on behalf of the United States of America. All rights reserved.
##CAS REGISTRY NO=88109-73-3
##MOLFORM=C 16 H 30 O
##$NIST SOURCE=MSDC-IR
##STATE=gas
##XUNITS=1/CM
##YUNITS=ABSORBANCE
##XFACTOR=1.
##YFACTOR=0.001
##DELTAX=1.92898
##FIRSTX=549.8
##LASTX=4000.7
##FIRSTY=2.343
##MAXX=4000.7
##MINX=549.759
##MAXY=0.22722
##MINY=0
##NPOINTS=1790
##XYDATA=(X++(Y..Y))
549.759 2.343 2.4344 2.2925 2.0533 1.19 1.238 1.676 2.3815 1.753 1.615
569.049 3.1 3.0306 2.8799 3.18 3.15 2.8199 3.29 2.6556 2.2838 2.4408
588.339 2.17799 2.3454 2.289 1.796 1.924 2.4211 2.2386 1.915 1.484 1.193
607.628 1.741 2.7883 2.87 2.4476 2.4229 2.2774 2.2534 2.3309 1.557 1.131
626.918 1.273 1.801 2.3993 2.8203 2.7249 2.6737 2.9783 3.23 3.18 2.8319
646.208 2.8111 2.499 2.3902 2.4381 2.2806 2.10529 1.9909 2.7964 2.6796 2.10103
665.498 2.0817 2.3203 2.729 2.7175 2.713 2.5527 2.8831 3.0509 2.9106 2.8731
684.787 3.028 2.8509 2.8099 3.0375 2.5004 2.2684 2.8437 3.17 3.19 3.32
704.077 3.35 3.62 3.79 3.91 4.33 4.53 4.54 5.14 5.17 4.61
723.367 4.56 4.68 4.57 4.82 5.08 4.37 4.26 4.87 4.57 4.15
742.657 3.71 3.51 3.72 3.89 3.5 3.26 3.33 3.0406 2.9765 3.27
761.947 3.56 3.62 3.65 3.18 2.9975 3.33 3.54 3.38 3.12 3.0449
781.236 3.09 2.9697 2.5014 2.7614 3.0692 2.5152 2.4586 3.0333 3.53 3.47
800.526 3.18 3.13 3.22 3.72 4 3.55 3.73 4.15 3.78 2.5298
819.816 1.901 3.89 3.86 3.11 4.06 4.2 3.69 2.8504 3.08 4.12
839.106 4.66 4.44 4.6 4.63 4.1 3.63 3.59 4.54 4.48 3.51
858.395 4.14 4.28 3.68 3.58 3.4 3.69 4.07 4.01 3.83 4.1
877.685 4.65 4.62 4.31 4.47 4.56 4.36 4.44 4.62 4.37 4.55
896.975 4.6 4.4 4.27 4.23 4.3 4.42 5.22 5.87 5.79 5.98
916.265 6.21 5.47 5 5.34 5.68 5.61 5.47 5.72 6.25 6.31
935.555 6.38 6.34 6.08 6.22 6.22 6.63 6.75 6.44 6.25 6.08
954.844 6.7 7.11 6.96 6.52 6.65 6.86 6.8 7.28 7.68 7.56
974.134 7.28 7.46 7.72 7.71 7.42 7.74 8.58 8.94 9.01 9.1
993.424 9.18 10.23 10.74 10.9 11.47 11.97 12.36 12.48 12.81 13.69
1012.714 14.49 14.92 15.63 16.24 17.32 18.9 19.63 20.14 20.2 21.08
1032.003 22.83 23.04 24.18 25.79 26.19 25.69 24.91 25.12 25.06 23.54
1051.293 23.35 23.77 22.41 21.53 21.34 20.5 18.97 17.97 17.76 16.87
1070.583 15.12 14.3 14.33 13.46 13.03 12.24 11.61 11.49 10.8 11.07
1089.873 11.15 10.27 9.63 9.43 8.93 7.26 5.17 4.95 6.07 5.26
1109.163 4.84 5.49 4.84 4.47 4.33 4.83 4.71 4.12 4.13 3.34
1128.452 3.61 3.33 3.6 3.57 2.9349 3.44 3.69 4.26 3.87 3.86
1147.742 4.04 3.46 3.08 3.73 4.61 4.41 4.05 4.01 3.52 2.9477
1167.032 3.13 3.83 3.86 3.67 4.14 4.3 3.94 3.88 3.91 3.16
1186.322 3.42 3.65 3.37 3.18 1.765 2.0538 3.27 3.94 4.48 4.24
1205.611 4.66 3.33 1.743 2.17505 0.33 0 2.3233 3.11 2.2636 2.16137
1224.901 2.0572 2.2986 2.6767 3.23 4.68 5.95 5.7 4.57 5.46 5.84
1244.191 5.65 5.57 5.99 6.49 5.84 5.99 6.58 6.73 6.99 7.08
1263.481 7.02 7.6 7.75 7.35 7.52 7.72 8.18 8.26 7.87 7.71
1282.771 7.53 7.89 8.19 8.19 8.03 8.44 8.76 8.9 9.26 8.96
1302.060 8.89 9.52 9.89 10.09 10.37 10.44 10.42 10.91 11.55 11.99
1321.350 12.79 13.91 15.12 16.12 16.95 17.34 17.43 17.14 16.55 15.86
1340.640 15.02 14.51 14.41 14.55 14.54 14.59 14.38 13.8 13.42 13.08
1359.930 12.71 12.49 12.22 11.81 11.51 11.39 11.41 11.4 11.33 11.44
1379.219 11.57 11.55 11.62 11.58 11.23 10.94 10.59 10.18 9.73 9.01
1398.509 8.66 8.33 7.86 7.7 7.51 7.19 6.98 6.86 6.79 7.05
1417.799 7.15 7.12 7.47 7.74 8.05 8.7 9.74 11.06 12.57 14.09
1437.089 15.52 16.86 17.52 17.45 17.29 17.25 17.38 17.68 17.96 18.11
1456.378 18.45 18.86 18.96 18.43 17.57 16.97 15.92 14.69 13.64 12.49
1475.668 11.43 10.39 9.54 9 8.34 7.39 6.75 6.14 5.63 5.44
1494.958 5.03 4.75 4.84 4.56 4.28 4.23 4.22 4.01 3.76 3.8
1514.248 3.83 3.66 3.54 3.52 3.59 3.58 3.47 3.58 3.47 2.9999
1533.538 2.8792 2.8265 2.66 2.9808 3.15 3.09 3.12 2.8881 2.6522 2.7775
1552.827 2.8916 2.7592 2.5331 2.4237 2.5851 2.6841 2.6697 2.7522 2.8546 2.8547
1572.117 2.9151 2.5166 2.08522 2.4944 2.6031 2.5002 2.5054 2.2592 2.3756 2.6849
1591.407 2.5351 2.7408 2.9935 2.583 2.4354 2.623 2.759 2.6167 2.4021 2.2222
1610.697 2.198 2.2334 2.17602 2.2336 2.3163 2.2684 2.16223 2.2169 2.3908 2.4734
1629.986 2.4249 2.2893 2.194 2.0496 1.926 2.2501 2.2904 2.14553 2.17449 2.16736
1649.276 2.3542 2.3343 2.207 2.3548 2.3845 2.1971 2.09941 2.11782 1.954 2.1182
1668.566 2.495 2.4342 2.1893 2.0558 1.9831 2.07131 2.2037 2.3677 2.4926 2.3541
1687.856 2.2863 2.2509 2.1859 2.12597 2.1826 2.10127 1.729 1.701 2.09122 2.2347
1707.146 2.3677 2.2476 2.0589 2.13689 2.0188 2.0282 1.931 1.876 2.2223 2.4146
1726.435 2.2207 1.962 1.967 2.15837 2.15034 2.07441 2.15572 2.17039 1.941 1.842
1745.725 1.908 1.957 2.08583 2.2116 2.13405 1.881 1.9 2.14606 2.2038 1.959
1765.015 2.0472 2.2743 2.11429 1.953 2.0111 2.0677 1.96 1.9922 2.0487 2.003
1784.305 2.15746 2.2835 2.0142 1.841 1.9891 2.0582 1.9983 2.11369 2.1833 1.964
1803.594 1.965 2.16625 2.15407 2.07526 2.0488 2.10203 2.2289 2.3084 2.3279 2.2047
1822.884 1.9834 2.09188 2.3566 2.4326 2.2252 2.12727 2.14781 1.933 1.825 1.9953
1842.174 2.0532 2.11253 2.2976 2.2535 2.13252 2.1098 2.0512 2.07837 2.3018 2.3238
1861.464 2.2221 2.2084 2.1719 2.2823 2.3173 2.2823 2.384 2.5336 2.436 2.16686
1880.754 2.0641 1.9894 2.0498 2.14482 2.10964 2.033 1.968 2.09509 2.2305 2.2093
1900.043 2.2617 2.2705 2.2865 2.2479 2.2207 2.3497 2.2639 2.17684 2.2515 2.2094
1919.333 2.2262 2.16174 2.306 2.4731 2.3194 2.2283 2.16011 2.2403 2.4586 2.6348
1938.623 2.6044 2.4562 2.4167 2.4833 2.6087 2.6382 2.4944 2.2851 2.2012 2.2887
1957.913 2.3489 2.4882 2.3703 2.069 2.2123 2.5949 2.7334 2.5259 2.3463 2.4033
1977.202 2.5974 2.6417 2.4403 2.3236 2.4344 2.5771 2.6562 2.7234 2.6448 2.3382
1996.492 2.4501 2.6723 2.5709 2.4307 2.4466 2.7303 2.8048 2.758 2.8426 2.9219
2015.782 2.6645 2.5306 2.7195 2.8269 2.7992 2.6093 2.7389 2.8156 2.6783 2.6213
2035.072 2.7062 2.8883 2.8755 2.8075 2.7955 2.9445 2.8666 2.7879 2.8961 2.7521
2054.362 2.8106 3.11 3.09 2.9034 2.8498 2.8389 2.6758 2.6161 2.5235 2.4634
2073.651 2.7272 2.8784 2.8944 2.9346 2.9165 2.6926 2.5056 2.6183 2.7002 2.6501
2092.941 2.8051 2.7672 2.5922 2.602 2.6221 2.7088 2.7015 2.5644 2.5075 2.5698
2112.231 2.659 2.811 2.8585 2.6668 2.7127 2.7259 2.6426 2.5705 2.5947 2.689
2131.521 2.7341 2.7824 2.6122 2.5562 2.6463 2.6927 2.7152 2.7661 2.7255 2.6946
2150.810 2.6058 2.6372 2.7282 2.6727 2.7181 2.7621 2.7876 2.6425 2.4713 2.3945
2170.100 2.4984 2.6411 2.6735 2.7645 2.7778 2.8322 2.719 2.7881 2.9317 2.7906
2189.390 2.715 2.6608 2.7039 2.8088 2.8081 2.9638 3.09 2.8438 2.5903 2.5046
2208.680 2.5701 2.706 2.69 2.7134 2.7747 2.6303 2.6758 3.17 3.29 2.8041
2227.970 2.6981 2.7438 2.5755 2.6333 2.8573 2.733 2.525 2.4945 2.5529 2.6286
2247.259 2.3909 2.4627 2.9249 2.9078 2.5816 2.5384 2.702 2.729 2.6344 2.694
2266.549 2.7146 2.6079 2.8651 2.9975 2.6988 2.6998 2.8117 2.7598 2.6095 2.7342
2285.839 2.9255 2.7681 2.6948 2.8306 2.9035 2.8621 2.6889 2.3817 2.58 2.8476
2305.129 2.7981 2.7065 2.4856 2.3983 2.4436 2.641 2.8055 2.5946 2.4696 2.4393
2324.418 2.4978 2.7646 2.8113 2.7591 2.8342 2.9141 2.7527 2.6133 2.7021 2.7874
2343.708 2.908 3.12 2.9771 2.7306 2.9108 2.9841 2.8956 2.7596 2.8128 3.0142
2362.998 2.9827 3.0064 3.13 3.13 3.19 3.16 2.9758 2.6893 2.7903 2.8178
2382.288 2.6809 2.8369 2.8424 2.9172 2.9294 2.799 2.8628 2.859 2.7626 2.7143
2401.578 2.6327 2.6534 2.8514 3.0235 2.9131 3.0014 2.986 2.7403 2.909 3.15
2420.867 3.14 3.0291 2.9297 2.8131 2.7709 2.7464 2.7589 2.8575 2.9121 2.7484
2440.157 2.6742 2.6029 2.661 2.9765 2.721 2.5848 2.7147 2.5791 2.6349 2.7804
2459.447 2.8096 2.9748 2.983 2.8175 2.8009 2.9974 3.1 2.9842 2.9862 2.9698
2478.737 2.9686 3.0265 3.0478 3.08 2.9456 2.9384 3.0485 3.2 3.29 3.0501
2498.026 2.8259 2.901 3.0622 2.8885 3.0404 3.24 3.0157 3.0405 3.19 3.18
2517.316 3.09 2.8735 2.6906 2.8375 2.9274 3.11 3.19 3.23 3.1 2.7961
2536.606 3.0526 3.0444 3.0087 3.14 3.0788 3.1 3.15 3.18 3.27 3.67
2555.896 3.71 3.39 3.22 3.18 3.29 2.9476 2.7341 3.26 3.33 3.0792
2575.186 3.21 3.34 3.38 3.7 3.69 3.25 3.43 3.47 3.18 3.41
2594.475 3.57 3.49 3.55 3.52 3.49 3.67 3.82 3.65 3.51 3.8
2613.765 4.1 3.89 3.54 3.66 3.87 3.88 3.98 4.19 4.09 3.9
2633.055 4.21 4.27 4.05 4.17 4.36 4.24 4.1 4.2 4.27 4.41
2652.345 4.45 4.44 4.66 4.88 4.92 4.73 4.51 4.83 5.23 5.02
2671.634 5.16 5.22 4.95 5.05 5.02 5.11 5.07 4.87 4.93 5
2690.924 5.18 5.09 4.79 4.89 5.13 5.28 5.19 4.9 4.95 5.16
2710.214 5.01 4.66 4.62 5.03 5.52 5.59 5.51 5.49 5.39 5.57
2729.504 5.7 5.63 5.47 5.53 5.71 5.87 6.05 5.96 5.96 5.81
2748.794 5.7 5.98 5.8 6.07 6.53 6.42 6.6 6.63 6.47 6.36
2768.083 6.55 6.67 6.41 6.33 6.18 6.5 7 7.32 7.58 7.17
2787.373 7.16 7.77 8.03 8.12 8.39 8.77 8.74 8.63 9.04 9.88
2806.663 10.34 10.37 10.46 10.76 11.51 11.94 12.24 12.64 13 13.63
2825.953 13.98 14.54 15.76 17.02 18.1 19.21 21.04 23.36 26.19 29.16
2845.242 32.65 37.26 42.24 47.61 53.17 58.7 64.6 70.44 75.63 80.12
2864.532 82.87 83.34 82.05 79.67 75.96 72.24 69.43 66.34 63.48 61.87
2883.822 60.51 58.5 56.89 55.77 55.98 56.64 57.34 59.18 61.46 65.13
2903.112 69.82 75.05 81.19 87.16 93.28 99.67 106.72 114.65 123.34 133.25
2922.401 144.85 156.9 169.79 185.01 200.13 212.51 221.24 226.59 227.22 222.37
2941.691 211.23 195.42 177.3 158.03 139.7 123.36 109.63 98.72 90.31 84.29
2960.981 79.97 76.55 72.97 69.11 65.37 60.98 55.38 48.86 43.03 37.92
2980.271 33.13 29 26.04 23.87 22.02 20.29 18.73 17.04 15.25 14.45
2999.561 13.99 13 12.44 12.14 11.4 10.93 10.14 9.32 9.29 9.21
3018.850 9.05 8.63 8.15 7.96 7.62 7.35 7.1 6.99 6.85 6.54
3038.140 6.36 6.19 5.82 5.41 5.55 5.68 5.78 5.62 5.01 4.86
3057.430 4.92 5.25 5.23 4.73 4.71 4.81 4.77 4.69 4.86 4.8
3076.720 4.17 3.88 3.97 3.88 3.73 3.74 3.94 3.62 3.43 3.74
3096.009 3.67 3.61 3.61 3.48 3.61 3.86 3.75 3.57 3.44 3.32
3115.299 3.33 3.24 2.7315 2.7342 2.9386 2.9165 3.31 3.47 3.45 3.32
3134.589 2.8823 2.9015 2.6653 2.4321 3.0038 3.35 3.31 3.2 3.43 3.47
3153.879 3.0749 3.23 3.27 3.35 3.49 3.21 2.9779 3.1 3.57 3.71
3173.169 3.53 3.0589 3.17 3.31 3.19 3.44 3.55 3.46 3.48 3.53
3192.458 3.34 3.4 3.78 3.66 3.09 3.3 3.73 3.44 2.7786 2.6998
3211.748 2.6777 2.5099 2.2429 2.1806 2.7349 2.8993 3.0315 2.7743 2.4337 2.5326
3231.038 2.6363 2.6027 2.0617 2.0476 2.4649 2.5253 2.7215 2.7871 2.4413 2.5236
3250.328 3.0251 3.45 3.0048 2.14019 2.0549 2.4067 2.9845 2.9224 2.8192 2.4476
3269.617 2.5109 2.7275 2.4468 2.8739 3.0285 2.708 2.7998 2.6961 2.7427 2.9597
3288.907 2.8805 2.9878 3.0575 3.36 3.16 2.8817 2.97 3.11 2.8376 2.7467
3308.197 2.8676 2.6544 2.8727 2.9217 2.5467 2.4252 2.5765 2.6584 2.7179 2.6808
3327.487 2.564 2.5346 2.591 2.8762 3.28 3.2 2.8357 2.6921 2.8919 2.907
3346.777 2.4871 2.5542 2.7781 2.9362 3.26 2.835 2.4508 2.4943 2.3304 2.2882
3366.066 2.5912 3.0635 2.9903 2.6442 2.4335 2.5213 2.9694 2.9483 2.7464 2.9679
3385.356 3.33 3.0407 2.6961 2.7279 2.036 1.881 2.07718 1.882 2.4216 2.8983
3404.646 2.6713 2.4129 2.7834 2.8164 2.6604 2.8844 2.8153 2.3522 2.5724 3.37
3423.936 3.13 2.7878 2.9418 2.945 3.19 3.49 3.14 3.27 3.42 3.26
3443.225 3.39 3.22 2.8674 2.3077 2.2339 2.5348 2.7483 2.7352 2.6673 2.4995
3462.515 2.6863 3.23 2.7178 2.13065 2.5471 2.8235 2.8616 3.0113 2.7387 2.6298
3481.805 2.7929 2.6575 2.7196 3.36 3.25 3.0148 2.911 2.7204 2.6944 2.3928
3501.095 2.2277 2.5484 2.684 2.8421 2.7105 2.423 2.7122 2.3427 2.3244 2.6164
3520.385 2.6365 2.6324 2.5038 2.3852 2.4316 2.45 2.8267 2.9057 2.2006 2.2087
3539.674 2.5641 2.7563 2.912 2.6098 2.4987 2.4645 2.3508 2.6036 2.7456 2.6264
3558.964 2.5008 2.242 2.3678 2.3963 2.4259 2.8479 3.0215 3.23 3.0692 2.8473
3578.254 2.39 2.2371 2.4233 2.6857 2.694 2.6517 3.09 3.0148 3.14 3.27
3597.544 2.7015 2.4214 2.8384 3.13 2.8822 2.9188 3.28 3.14 2.9593 3.13
3616.833 3.12 3.28 3.29 3.42 4.19 4.12 3.86 4.19 4.37 4.51
3636.123 4.25 4.03 4.18 4.2 4.59 5.62 6.02 5.84 6.88 7.67
3655.413 7.6 8.11 8.48 8.55 8.88 8.72 8.62 8.65 8.32 7.98
3674.703 7.77 7.97 7.73 6.99 6.41 5.84 5.08 4.64 4.41 3.94
3693.993 3.68 3.87 3.75 3.55 4.08 3.93 3.61 3.76 3.54 3.57
3713.282 3.74 3.98 3.82 3.14 3.0671 3.53 3.57 3.3 3.33 3.15
3732.572 3.0512 3.41 3.26 2.4655 2.4186 2.9007 3.09 3.66 3.68 3.25
3751.862 3.17 3.3 3.33 2.8021 2.9146 3.11 2.783 2.6316 2.926 3.16
3771.152 2.8272 2.5825 2.7673 2.9925 2.7135 2.7984 2.7624 3.14 2.8205 2.4131
3790.441 3.0787 2.7839 2.9439 3.33 3.38 3.26 2.7346 3.37 3.74 3.3
3809.731 3.0379 2.8464 2.954 3.16 3.15 2.7918 2.8868 3.45 3.83 3.7
3829.021 3.32 2.8375 3.13 3.61 3.48 3.65 3.77 3.15 2.6881 2.821
3848.311 2.8758 3.12 3.67 3.69 3.16 3.29 3.38 3.22 3.15 3.16
3867.601 3.11 2.7314 2.5266 2.3791 2.3922 2.7034 3.19 3.24 3.3 2.9515
3886.890 2.4209 2.9502 3.23 3.13 3.58 3.47 2.9607 2.6437 2.9802 3.38
3906.180 3.0634 3.14 2.9321 2.7336 2.4803 2.4968 2.7486 2.9294 3.0636 3.32
3925.470 3.34 2.6951 2.8243 2.7377 3.0566 3.48 3.32 3.08 2.8243 2.6864
3944.760 2.1827 2.7395 3.31 2.7268 2.7081 2.9152 2.6249 2.8553 3.36 2.9792
3964.049 2.4799 2.624 3.0222 3.22 3.21 3.18 3.22 3.39 3.15 3.13
3983.339 3.26 3.51 3.98 3.73 3.62 3.9 3.95 3.51 2.845 2.7501
##END=
