##TITLE=2-(p-Chlorophenoxy)-2-methylpropionic acid
##JCAMP-DX=4.24
##DATA TYPE=INFRARED SPECTRUM
##ORIGIN=EPA-IR VAPOR PHASE LIBRARY
##OWNER=SRD/NIST
Collection (C) 2018 copyright by the U.S. Secretary of Commerce
on behalf of the United States of America. All rights reserved.
##CAS REGISTRY NO=882-09-7
##MOLFORM=C10 H11 Cl O3
##$NIST SOURCE=MSDC-IR
##STATE=gas
##XUNITS=1/CM
##YUNITS=ABSORBANCE
##XFACTOR=1.
##YFACTOR=0.001
##DELTAX=1.92898
##FIRSTX=549.8
##LASTX=4000.7
##FIRSTY=11.18
##MAXX=4000.7
##MINX=549.759
##MAXY=0.09593
##MINY=0
##NPOINTS=1790
##XYDATA=(X++(Y..Y))
549.759 11.18 11.59 11.97 12.06 12.19 12.49 12.72 13.09 13.34 13.31
569.049 13.61 14.3 14.97 15.81 16.55 16.74 17.33 17.65 17.12 16.64
588.339 15.9 14.89 13.77 12.48 11.09 10.37 9.92 9.25 8.76 8.29
607.628 8.11 7.85 7.57 7.3 7.03 6.71 6.19 6.04 5.94 5.75
626.918 5.79 6.19 6.64 6.85 6.92 7.09 7.46 7.58 7.9 8.23
646.208 8.41 9.04 9.6 10.22 10.85 11.35 11.97 12.36 12.49 12.42
665.498 11.87 11.21 10.13 8.92 8.04 7.14 6.27 5.53 5.21 4.83
684.787 4.42 4.32 4.2 4.08 4.01 3.94 4.14 4.49 4.7 5.19
704.077 6.06 6.85 7.65 8.64 9.55 10.4 10.74 10.59 10.06 9.38
723.367 8.86 8.22 7.75 7.27 6.8 6.36 5.8 5.4 5.03 4.55
742.657 4.13 3.94 3.69 3.25 3.31 3.56 3.62 3.78 4.18 4.65
761.947 5.2 5.64 5.8 5.96 5.9 5.64 5.43 5.17 4.64 4.19
781.236 4.04 3.91 3.71 3.6 3.68 3.82 3.88 3.86 4.01 4.37
800.526 4.59 4.68 4.87 5.21 5.49 5.84 6.61 7.53 8.34 9.16
819.816 10 11 11.93 12.67 13.27 13.69 14.09 14.41 14.49 14.45
839.106 14.41 13.92 12.98 12.04 11.19 10.07 8.9 7.87 6.87 6.06
858.395 5.32 4.6 4.21 3.98 3.71 3.7 3.96 4.21 4.37 4.55
877.685 4.75 5.3 6.11 6.74 7.18 7.41 7.51 7.71 7.67 7.22
896.975 6.71 5.95 5.16 4.49 3.91 3.66 3.44 3.34 3.3 3.12
916.265 3.22 3.43 3.49 3.75 4.13 4.39 4.74 5.22 5.49 5.75
935.555 6.04 6.2 6.44 6.88 7.49 8.08 8.69 9.27 10.02 11.15
954.844 12.12 12.85 13.35 13.53 13.23 12.73 11.87 10.51 9.41 8.35
974.134 7.25 6.35 5.66 4.92 4.57 4.2 3.62 3.45 3.33 3.37
993.424 3.51 3.51 3.4 3.68 4.49 5.79 7.84 10.79 12.78 13.38
1012.714 13.26 12.73 11 7.95 5.66 4.31 3.9 3.86 3.57 3.3
1032.003 3.22 3.34 3.52 3.56 3.67 4.02 4.03 3.9 4.39 4.75
1051.293 4.87 5.3 5.78 5.91 6.38 7.33 7.93 8.44 9.51 11.29
1070.583 13.02 14.82 16.89 19.6 23.49 28.03 33.08 38.84 45.64 52.57
1089.873 59.06 64.5 68.26 70.39 70.14 68.2 66.12 63.41 60.77 58.9
1109.163 57.08 55.7 54.88 53.95 52.87 51.25 49.07 46.91 44.35 41.91
1128.452 39.25 36.47 34.87 33.42 31.83 31.35 31.22 31.46 32.04 32.42
1147.742 33.75 35.89 38.32 40.88 43.91 47.04 49.99 52.38 53.41 53.4
1167.032 52.13 49.31 46.08 42.77 39.48 36.68 33.95 31.16 28.53 26.49
1186.322 24.98 23.78 22.82 22.34 21.9 21.69 21.93 22.07 22.55 23.45
1205.611 24.59 26.24 27.96 30.57 34.03 36.82 39.99 44.09 48.43 52.91
1224.901 57.44 62.06 65.86 67.93 68.34 66.3 61.49 54.79 47.01 39.7
1244.191 33.64 28.79 25.33 23.05 21.37 20.09 19.25 18.5 17.93 17.41
1263.481 16.82 16.29 15.81 15.2 14.61 14.2 14.06 13.84 13.15 12.65
1282.771 12.3 11.8 11.29 10.92 10.77 10.65 10.63 10.59 10.7 10.88
1302.060 10.98 11.11 11.34 11.7 12.04 12.38 12.79 13.17 13.6 14.07
1321.350 14.48 14.85 15.11 15.26 15.37 15.4 15.43 15.51 15.51 15.5
1340.640 15.47 15.37 15.3 15.27 15.18 15.07 14.97 14.83 14.68 14.52
1359.930 14.44 14.35 14.31 14.26 14.21 14.22 14.06 13.85 13.73 13.74
1379.219 14.04 14.65 15.53 16.51 17.32 17.79 17.61 16.75 15.47 13.81
1398.509 12.05 10.47 9.15 8.13 7.41 6.92 6.65 6.44 6.29 6.24
1417.799 6.23 6.26 6.27 6.3 6.28 6.25 6.34 6.38 6.36 6.44
1437.089 6.52 6.59 6.66 6.79 6.94 7.2 7.54 7.84 8.18 8.57
1456.378 9.17 9.81 10.49 11.37 12.39 13.59 15.02 16.94 19.58 23.34
1475.668 28.55 35.85 45.71 58.31 72.33 85.29 93.85 95.93 91.72 82.37
1494.958 68.43 52.03 37.99 28.09 21.8 17.68 14.62 12.36 10.8 9.75
1514.248 8.95 8.28 7.65 7.13 6.63 6.08 5.61 5.21 4.85 4.53
1533.538 4.25 4.03 3.78 3.59 3.44 3.27 3.24 3.2 3.11 2.99
1552.827 2.88 2.85 2.84 2.87 2.93 3.02 3.15 3.31 3.55 3.8
1572.117 4.1 4.52 5.12 5.81 6.49 7.21 7.88 8.5 9.05 9.35
1591.407 9.4 9.16 8.66 7.94 7.15 6.54 5.92 5.27 4.78 4.45
1610.697 4.2 3.89 3.58 3.28 3 2.77 2.58 2.46 2.37 2.33
1629.986 2.29 2.16 2.09 1.99 1.96 1.98 1.94 1.95 1.97 1.97
1649.276 1.96 1.87 1.87 1.94 1.86 1.77 1.69 1.72 1.75 1.68
1668.566 1.61 1.58 1.6 1.6 1.58 1.63 1.7 1.68 1.74 1.86
1687.856 1.89 1.93 2.03 2.21 2.37 2.5 2.62 2.78 2.91 3.08
1707.146 3.32 3.6 3.83 4.04 4.22 4.42 4.82 5.2 5.51 5.87
1726.435 6.31 6.77 7.23 7.86 8.61 9.5 10.45 11.51 12.79 14.27
1745.725 15.89 17.87 20.12 22.52 25.08 27.63 30.54 33.69 36.8 39.81
1765.015 42.62 45.2 47.14 48.17 48.38 47.86 46.79 45.46 44.11 42.85
1784.305 41.72 40.8 40.18 39.92 40.37 41.72 43.58 45.12 45.43 44.07
1803.594 41.14 36.63 30.7 24.46 19.14 15.27 12.49 10.46 8.99 7.78
1822.884 6.82 6.11 5.52 4.99 4.53 4.22 3.93 3.6 3.39 3.24
1842.174 3.1 2.98 2.9 2.81 2.79 2.73 2.65 2.6 2.52 2.47
1861.464 2.4 2.37 2.38 2.39 2.43 2.49 2.55 2.59 2.56 2.47
1880.754 2.43 2.39 2.24 2.11 2 1.94 1.84 1.7 1.56 1.44
1900.043 1.33 1.25 1.24 1.26 1.21 1.1555 1.079 1.0222 1.0428 1.0031
1919.333 0.9916 0.9677 0.8991 0.8655 0.8596 0.8487 0.8727 0.9238 0.9259 0.9572
1938.623 0.9814 0.9291 0.8228 0.8114 0.831 0.8036 0.8097 0.8194 0.8311 0.7859
1957.913 0.7711 0.8087 0.819 0.8396 0.8048 0.7833 0.7883 0.7502 0.7538 0.7563
1977.202 0.7262 0.7079 0.6999 0.711 0.6609 0.6498 0.7118 0.7045 0.7001 0.6954
1996.492 0.6471 0.6682 0.7643 0.8235 0.8568 0.8322 0.8588 0.9167 0.8808 0.8715
2015.782 0.9101 0.9186 0.8964 0.9314 0.9812 0.9565 0.9765 0.9805 0.9274 0.8835
2035.072 0.838 0.8574 0.848 0.837 0.8007 0.7631 0.768 0.7557 0.7593 0.7023
2054.362 0.6607 0.7122 0.7649 0.784 0.7516 0.7412 0.781 0.8312 0.7964 0.7723
2073.651 0.8101 0.7539 0.68 0.6262 0.7216 0.7353 0.6836 0.6727 0.6871 0.6389
2092.941 0.6323 0.7362 0.6463 0.5895 0.6311 0.7125 0.6753 0.667 0.6482 0.6325
2112.231 0.6595 0.6932 0.7307 0.7034 0.6225 0.5709 0.6091 0.57 0.5902 0.5631
2131.521 0.5267 0.5528 0.5477 0.5248 0.4823 0.4497 0.4552 0.4296 0.4297 0.4558
2150.810 0.4451 0.45 0.4444 0.4585 0.4594 0.4642 0.5061 0.5537 0.5791 0.577
2170.100 0.5968 0.6103 0.6005 0.6185 0.6312 0.6362 0.6528 0.6536 0.6773 0.682
2189.390 0.6561 0.5808 0.587 0.6224 0.5584 0.565 0.5552 0.5121 0.5423 0.5664
2208.680 0.5555 0.5384 0.5145 0.5087 0.5595 0.6126 0.5512 0.4877 0.587 0.5388
2227.970 0.4541 0.5369 0.5498 0.5329 0.5221 0.4856 0.4726 0.4791 0.5098 0.5243
2247.259 0.5067 0.5226 0.5725 0.6277 0.6696 0.6131 0.6202 0.658 0.6292 0.6116
2266.549 0.5817 0.5745 0.5402 0.5829 0.5822 0.5235 0.5183 0.5428 0.6428 0.6993
2285.839 0.6859 0.6494 0.6679 0.7102 0.6891 0.6612 0.6435 0.6858 0.6525 0.673
2305.129 0.7281 0.7037 0.75 0.7681 0.7997 0.824 0.81 0.7988 0.7852 0.7776
2324.418 0.8248 0.8409 0.8069 0.8479 0.8447 0.7547 0.7655 0.7918 0.7692 0.7273
2343.708 0.73 0.7571 0.6912 0.7333 0.7958 0.804 0.8405 0.9154 0.9305 0.8948
2362.998 0.9253 0.9628 0.9123 0.8598 0.9348 0.9485 0.9018 0.8193 0.7393 0.7608
2382.288 0.797 0.7585 0.7276 0.7727 0.779 0.7751 0.7714 0.7737 0.7563 0.7241
2401.578 0.7083 0.6905 0.7048 0.6874 0.6356 0.6585 0.7592 0.7475 0.6943 0.6928
2420.867 0.7128 0.7772 0.8817 0.887 0.852 0.9024 0.9055 0.8844 0.9185 0.9928
2440.157 1.0641 1.074 1.0037 0.9011 0.9242 0.9757 0.9232 0.9255 0.9198 0.8852
2459.447 0.8929 0.8157 0.7537 0.7345 0.739 0.7681 0.7027 0.7079 0.7091 0.731
2478.737 0.7532 0.6534 0.6356 0.6159 0.564 0.6323 0.6998 0.6453 0.6102 0.5903
2498.026 0.5759 0.5715 0.5488 0.5768 0.5901 0.5859 0.5674 0.5136 0.4554 0.454
2517.316 0.481 0.445 0.3997 0.3854 0.4229 0.386 0.3134 0.3068 0.25548 0.26166
2536.606 0.304 0.301 0.3519 0.3282 0.3134 0.4257 0.4136 0.3683 0.3267 0.3173
2555.896 0.3804 0.4137 0.4534 0.4315 0.4499 0.5186 0.4096 0.3522 0.4371 0.459
2575.186 0.4077 0.3835 0.4533 0.5016 0.5198 0.4912 0.4745 0.4209 0.3448 0.4
2594.475 0.3781 0.2889 0.2791 0.3105 0.3232 0.3243 0.3543 0.3251 0.24085 0.21558
2613.765 0.23223 0.27 0.2703 0.24885 0.20164 0.20152 0.21071 0.25528 0.3268 0.2956
2633.055 0.2883 0.24648 0.2753 0.2936 0.26319 0.25671 0.25356 0.2785 0.2743 0.2958
2652.345 0.301 0.2706 0.3338 0.3317 0.2878 0.3136 0.24542 0.23657 0.3066 0.2841
2671.634 0.25189 0.27 0.26338 0.25799 0.21343 0.21475 0.20988 0.1258 0.1517 0.18466
2690.924 0.25284 0.2705 0.19313 0.24157 0.3179 0.3456 0.2938 0.2752 0.3063 0.2966
2710.214 0.3065 0.3241 0.3332 0.2603 0.23609 0.3182 0.3413 0.2704 0.18117 0.2122
2729.504 0.2976 0.3503 0.314 0.19414 0.2819 0.4311 0.3993 0.3085 0.291 0.3253
2748.794 0.3205 0.2941 0.24215 0.21466 0.23642 0.2814 0.3094 0.3278 0.2714 0.25365
2768.083 0.25874 0.20955 0.2821 0.3427 0.3431 0.3207 0.29 0.3667 0.4635 0.3979
2787.373 0.3377 0.4491 0.4923 0.3495 0.3393 0.4728 0.5259 0.456 0.4327 0.5476
2806.663 0.5864 0.6327 0.6536 0.6259 0.7148 0.7327 0.6972 0.6799 0.5864 0.5783
2825.953 0.5608 0.5748 0.7476 0.6627 0.5815 0.6941 0.7225 0.7021 0.6753 0.6717
2845.242 0.7186 0.6802 0.7377 0.8672 0.8663 0.827 0.8752 1.1059 1.0843 1.0927
2864.532 1.25 1.33 1.47 1.61 1.82 1.93 1.86 1.88 2.01 2.1
2883.822 2.09 2.13 2.23 2.26 2.22 2.13 2.07 1.97 1.97 2.04
2903.112 2.02 2 2.02 2.06 2.08 2.14 2.18 2.15 2.14 2.25
2922.401 2.42 2.66 2.92 3.04 3.11 3.44 3.94 4.3 4.76 5.35
2941.691 5.91 6.43 6.77 6.99 7 6.74 6.45 6.02 5.4 4.86
2960.981 4.6 4.27 3.87 3.66 3.59 3.69 3.79 3.93 4.13 4.51
2980.271 5.08 5.9 6.87 7.9 9.07 10.55 12.03 13.39 14.62 15.23
2999.561 15.47 15.3 14.69 13.72 12.45 11.03 9.56 8.16 6.79 5.66
3018.850 4.74 4.01 3.43 3.04 2.82 2.55 2.44 2.47 2.45 2.38
3038.140 2.46 2.5 2.47 2.56 2.53 2.4 2.28 2.1 1.83 1.73
3057.430 1.69 1.58 1.49 1.53 1.64 1.6 1.53 1.59 1.7 1.75
3076.720 1.71 1.69 1.74 1.82 1.97 2.11 2.24 2.33 2.29 2.17
3096.009 2.25 2.39 2.34 2.12 1.95 1.95 1.8 1.54 1.44 1.35
3115.299 1.1033 0.9932 0.9571 0.9504 0.9211 0.7906 0.7151 0.6823 0.6847 0.7212
3134.589 0.6892 0.5516 0.5012 0.5521 0.5898 0.4195 0.304 0.3985 0.4572 0.5414
3153.879 0.5226 0.4484 0.5392 0.6496 0.5664 0.4939 0.5321 0.5284 0.5138 0.5216
3173.169 0.4794 0.492 0.5712 0.5179 0.4744 0.5798 0.6411 0.476 0.4131 0.3985
3192.458 0.3671 0.4406 0.4004 0.4313 0.4797 0.4036 0.4121 0.4621 0.4415 0.4448
3211.748 0.3546 0.2725 0.3404 0.4123 0.389 0.4314 0.4059 0.3357 0.4276 0.3494
3231.038 0.25195 0.3502 0.4524 0.4564 0.3809 0.3213 0.3095 0.3538 0.2922 0.1444
3250.328 0.3003 0.5414 0.5419 0.5076 0.476 0.4221 0.3421 0.4372 0.5305 0.4456
3269.617 0.4975 0.5606 0.538 0.4205 0.4042 0.445 0.411 0.3272 0.3107 0.3798
3288.907 0.4308 0.3513 0.3305 0.4048 0.3543 0.3119 0.2802 0.3402 0.3735 0.4281
3308.197 0.3715 0.26036 0.391 0.4539 0.4366 0.4919 0.5393 0.5177 0.3885 0.461
3327.487 0.4941 0.3357 0.354 0.4199 0.4373 0.4385 0.5507 0.6136 0.5177 0.4753
3346.777 0.4961 0.4754 0.3926 0.3683 0.3522 0.22662 0.2983 0.5033 0.457 0.4835
3366.066 0.4844 0.5338 0.4736 0.26808 0.3036 0.3933 0.4434 0.2912 0.2764 0.469
3385.356 0.552 0.4227 0.4706 0.4707 0.492 0.6274 0.6154 0.4679 0.4641 0.5747
3404.646 0.5079 0.5599 0.5483 0.3891 0.4003 0.5076 0.576 0.6431 0.6283 0.678
3423.936 0.6882 0.6845 0.7455 0.7925 0.8128 0.8811 0.9575 0.9373 0.9508 1.0504
3443.225 0.9972 1.0305 1.1132 1.1634 1.34 1.51 1.75 1.98 2.18 2.45
3462.515 2.67 3.13 3.59 4 4.47 4.81 5.36 5.89 6.11 6.26
3481.805 6.49 6.67 6.64 6.58 6.55 6.36 6.25 6.17 5.99 5.81
3501.095 5.49 5.11 4.8 4.64 4.54 4.35 4.07 4 4.05 3.86
3520.385 3.71 3.76 3.74 3.75 3.61 3.4 3.39 3.44 3.32 3.23
3539.674 3.15 3.24 3.45 3.52 3.89 4.32 4.76 5.56 6.67 8.2
3558.964 10.15 12.69 15.65 18.63 21.47 23.37 24.11 23.99 22.98 20.98
3578.254 18.01 14.74 11.78 9.28 7.29 5.87 4.71 3.8 3.13 2.5
3597.544 2.13 1.89 1.67 1.57 1.41 1.19 1.1455 1.1325 1.0408 0.8847
3616.833 0.7851 0.7221 0.6627 0.7762 0.9204 0.885 0.8381 0.9728 0.9339 0.9093
3636.123 0.8902 1.1334 1.55 1.65 1.85 2.24 2.46 2.4 2.46 2.37
3655.413 2.25 2.17 1.94 1.7 1.56 1.31 0.9381 0.7803 0.7006 0.5745
3674.703 0.5633 0.4161 0.3168 0.4381 0.5175 0.427 0.2896 0.21542 0.18499 0.2867
3693.993 0.3521 0.3473 0.2707 0.0999 0.051 0.013 0.035 0.18374 0.26769 0.3383
3713.282 0.3565 0.3698 0.331 0.4101 0.3737 0.3243 0.2889 0.062 0.1139 0.2789
3732.572 0.25891 0.3555 0.3807 0.26626 0.3191 0.3231 0.2489 0.3073 0.4234 0.3671
3751.862 0.4699 0.4204 0.26081 0.1567 0.1553 0.3151 0.3757 0.3042 0.0875 0.065
3771.152 0.178744 0.26123 0.26286 0.26912 0.347 0.4007 0.3395 0.25688 0.19091 0.18262
3790.441 0.21055 0.1417 0.19563 0.3407 0.2724 0.16049 0.24855 0.3776 0.4587 0.5232
3809.731 0.3297 0.2812 0.3236 0.2997 0.3521 0.26617 0.24536 0.3817 0.3797 0.21086
3829.021 0.17703 0.25711 0.2801 0.24484 0.24088 0.3267 0.308 0.2716 0.3699 0.26831
3848.311 0.22691 0.2757 0.24078 0.3302 0.3673 0.4856 0.6224 0.4855 0.4168 0.4101
3867.601 0.24084 0.20395 0.3227 0.26254 0.2736 0.5252 0.4128 0.1289 0.19599 0.356
3886.890 0.3893 0.3361 0.3542 0.3264 0.3797 0.4466 0.3308 0.2851 0.3528 0.367
3906.180 0.22764 0.16256 0.1177 0.1458 0.2966 0.4221 0.555 0.5275 0.4162 0.3276
3925.470 0.25515 0.19825 0.156 0.096 0 0.1251 0.3788 0.3908 0.2984 0.23649
3944.760 0.18233 0.2179 0.2991 0.3652 0.3349 0.25035 0.3 0.3333 0.23754 0.073
3964.049 0.026 0.1919 0.20908 0.20577 0.2806 0.144 0.1174 0.22577 0.169161 0.1208
3983.339 0.19728 0.18451 0.3007 0.5063 0.3775 0.2967 0.3517 0.4062 0.3515 0.3483
##END=
