##TITLE=Methyl.-beta.-hydroxynaphthoate
##JCAMP-DX=4.24
##DATA TYPE=INFRARED SPECTRUM
##ORIGIN=EPA-IR VAPOR PHASE LIBRARY
##OWNER=SRD/NIST
Collection (C) 2018 copyright by the U.S. Secretary of Commerce
on behalf of the United States of America. All rights reserved.
##CAS REGISTRY NO=883-99-8
##MOLFORM=C 12 H 10 O 3
##$NIST SOURCE=MSDC-IR
##STATE=gas
##XUNITS=1/CM
##YUNITS=ABSORBANCE
##XFACTOR=1.
##YFACTOR=0.001
##DELTAX=1.92898
##FIRSTX=549.8
##LASTX=4000.7
##FIRSTY=6.13
##MAXX=4000.7
##MINX=549.759
##MAXY=0.38621
##MINY=0.0004135
##NPOINTS=1790
##XYDATA=(X++(Y..Y))
549.759 6.13 6.14 6.14 6.12 6.01 5.82 5.63 5.47 5.42 5.44
569.049 5.42 5.08 4.91 4.94 5.1 5.59 6.12 6.85 7.72 8.53
588.339 9.6 10.78 11.89 12.79 13.33 13.44 13.25 12.76 11.96 11.19
607.628 10.67 10.53 10.74 11.19 12.2 13.9 16.21 17.66 17.77 17.87
626.918 18.3 18.24 16.52 14.55 13.8 13.7 13.75 14 14.41 14.89
646.208 15.53 16.32 17.05 17.81 18.56 19.16 19.91 20.6 21.12 21.66
665.498 22.24 22.83 23.21 23.27 22.92 22.09 21.06 19.83 18.29 16.58
684.787 14.9 13.28 11.78 10.43 9.22 8.13 7.23 6.65 6.4 6.31
704.077 6.29 6.56 7.01 7.5 8.01 8.67 9.47 10.33 11.44 13.04
723.367 15.56 19.6 25.57 34.05 44.64 55.69 64.96 72.19 80.7 92.31
742.657 90.25 71.24 56.3 46.48 37.21 28.76 21.15 15.14 10.99 8.6
761.947 7.26 6.91 7.36 8.34 9.98 12.47 15.77 19.46 22.99 26.44
781.236 29.65 32.39 34.24 35.12 35.41 34.19 30.78 27.01 23.83 20.62
800.526 17.44 14.75 12.74 11.21 10.09 9.48 8.99 8.48 8.12 7.7
819.816 7.35 7.2 7.28 7.67 8.2 8.78 9.52 10.49 11.89 12.97
839.106 12.35 11.06 10.37 9.8 9.05 8.28 7.69 7.57 8.2 9.54
858.395 12.07 15.66 19.72 23.8 27.66 32.01 39.49 44.15 37.46 29.68
877.685 26.15 22.4 18.12 14.02 10.78 8.68 7.76 7.78 8.56 9.78
896.975 11.42 13.15 14.95 17.17 19.94 22.14 22.53 22 21.04 19.62
916.265 18.75 17.75 15.48 12.65 10.34 8.76 7.74 7.16 6.93 7.06
935.555 7.52 8.34 9.55 11.11 12.92 14.93 17.38 19.91 20.93 20.58
954.844 20.29 19.82 18.71 16.98 14.85 12.56 10.57 8.93 7.44 6.37
974.134 5.69 5.05 4.6 4.45 4.37 4.3 4.37 4.53 4.64 4.79
993.424 5 5.29 5.41 5.55 5.9 6.17 6.57 7.12 7.7 8.15
1012.714 8.24 8.15 8.03 8.03 7.88 7.43 7.1 6.95 6.98 7.28
1032.003 7.69 8.17 8.79 9.57 10.48 11.66 13.02 14.52 16.72 19.72
1051.293 23.42 28.03 33.71 40.21 47.7 55.82 64.26 72.95 80.99 87.66
1070.583 92.32 94.59 93.85 90.32 84.69 76.58 66.78 56.88 47.91 40.48
1089.873 34.15 28.75 24.6 21.5 19.14 17.11 15.67 14.82 14.18 13.92
1109.163 13.96 14.41 15.07 16.1 17.75 19.95 23.08 27.53 33.62 41.47
1128.452 50.91 61.52 73.45 87.45 103.68 119.85 131.34 133.53 128.82 123.65
1147.742 116.79 101.72 79.84 60.77 48.44 41.45 38.34 38.23 40.64 44.97
1167.032 49.65 52.43 53.24 54.45 56.68 57.32 55.93 54.91 55.94 59.14
1186.322 64.13 71.38 81.52 94.01 107.97 123.49 141.64 164.18 191.76 224.24
1205.611 260.21 295.51 322.96 336.92 337.38 325.93 301.21 263.01 219.7 182.46
1224.901 154.37 131.65 111.53 94.11 79.81 68.58 59.88 53.09 47.74 43.6
1244.191 40.32 37.79 35.77 34.05 32.95 32.44 32.68 33.75 35.72 38.97
1263.481 43.77 50.47 59.59 71.75 87.19 105.9 127.75 152.08 177.5 201.7
1282.771 222.67 239.38 250.75 255 250.48 237.58 219.23 198.66 178.14 159.94
1302.060 146.26 138.83 138.96 147.48 164.15 187.47 214.39 240.33 260.92 273.27
1321.350 275.46 265.64 243.14 210.99 175.19 141.09 110.52 84.21 63.88 50.6
1340.640 43.25 39.55 37.69 36.53 35.29 33.72 31.9 29.98 28.09 26.44
1359.930 25.32 24.87 24.83 24.9 24.89 24.68 24.31 23.81 23.35 23.09
1379.219 23.03 23.18 23.75 24.88 26.54 28.63 31.39 35.07 39.74 45.06
1398.509 50.46 55.35 58.99 61.01 61.15 59.36 55.79 51.01 45.76 40.51
1417.799 35.9 32.11 29.54 28.35 28.62 30.59 34.97 42.58 54.27 69.76
1437.089 88.02 104.15 115.04 120.76 121.59 117.28 107.6 96.95 90.99 90.93
1456.378 94.07 97.19 97.29 93.22 86.12 77.52 67.2 55.18 43.72 34.58
1475.668 28.46 24.47 22.14 20.93 20.67 21.28 22.81 25.37 29.03 33.8
1494.958 39.78 46.71 53.85 60.76 67.37 73.66 79.57 83.82 85.14 83.72
1514.248 80.47 75.92 69.76 61.95 52.53 43.61 35.87 29.57 24.76 21.21
1533.538 18.68 16.9 15.76 15.02 14.49 14.09 13.86 13.76 13.83 14.07
1552.827 14.44 15.02 15.78 16.72 17.78 18.95 20.38 21.87 23.18 24.35
1572.117 25.23 25.65 25.54 24.89 23.83 22.41 20.97 19.66 18.55 17.75
1591.407 17.36 17.37 17.81 18.61 19.52 20.45 21.34 22.1 22.63 23.06
1610.697 23.49 24.05 24.92 26.28 28.17 30.65 33.91 37.84 42.26 47.15
1629.986 52.17 56.91 60.8 63.46 64.41 63.33 60.24 55.57 49.94 43.91
1649.276 38.24 33.6 29.93 27.36 26.04 25.58 25.83 26.52 27.61 29.04
1668.566 30.85 32.88 35.27 38.28 42.35 47.45 54.67 64.35 77.83 95.61
1687.856 116.95 143.5 175.36 212.11 255.47 302.51 342.36 373.24 386.21 383.7
1707.146 365.33 329.95 278.99 223.08 171.59 129.94 98.05 75.89 60.32 49.36
1726.435 41.73 36.42 32.87 30.69 29.46 28.93 29.19 30.25 31.83 33.85
1745.725 36.09 37.91 38.77 38.62 37.9 36.7 34.29 30.59 26.35 22.34
1765.015 18.99 16.31 14.2 12.61 11.4 10.47 9.79 9.27 8.86 8.46
1784.305 8.11 7.83 7.57 7.37 7.24 7.12 7.13 7.24 7.45 7.76
1803.594 8.01 8.13 8.06 7.87 7.59 7.14 6.62 6.11 5.64 5.27
1822.884 4.99 4.79 4.61 4.41 4.23 4.08 4.06 4.13 4.2 4.3
1842.174 4.42 4.58 4.72 4.79 4.83 4.78 4.62 4.43 4.2 3.92
1861.464 3.66 3.41 3.16 2.97 2.87 2.8 2.73 2.69 2.68 2.71
1880.754 2.79 2.86 2.98 3.18 3.41 3.63 3.88 4.12 4.3 4.45
1900.043 4.54 4.59 4.66 4.68 4.72 4.8 4.9 5 5.01 4.88
1919.333 4.64 4.39 4.14 3.92 3.72 3.61 3.71 4.03 4.42 4.72
1938.623 4.9 4.84 4.58 4.17 3.62 3.01 2.44 2.02 1.79 1.65
1957.913 1.54 1.47 1.4 1.35 1.29 1.27 1.31 1.34 1.37 1.44
1977.202 1.51 1.56 1.62 1.67 1.75 1.87 1.96 2.03 2.11 2.2
1996.492 2.31 2.4 2.5 2.61 2.73 2.89 3.01 3.09 3.2 3.29
2015.782 3.35 3.4 3.43 3.4 3.34 3.29 3.18 3.04 2.93 2.78
2035.072 2.63 2.59 2.56 2.52 2.5 2.53 2.56 2.52 2.48 2.44
2054.362 2.39 2.26 2.15 2.03 1.9 1.82 1.71 1.6 1.52 1.48
2073.651 1.46 1.44 1.43 1.4 1.37 1.4 1.48 1.52 1.49 1.49
2092.941 1.51 1.55 1.54 1.51 1.51 1.47 1.41 1.41 1.42 1.38
2112.231 1.35 1.31 1.32 1.36 1.38 1.4 1.43 1.47 1.48 1.45
2131.521 1.47 1.51 1.51 1.51 1.51 1.51 1.54 1.56 1.59 1.64
2150.810 1.69 1.71 1.77 1.83 1.82 1.84 1.89 1.88 1.87 1.85
2170.100 1.78 1.73 1.64 1.55 1.52 1.45 1.37 1.31 1.26 1.25
2189.390 1.21 1.16 1.13 1.12 1.14 1.1 1.05 1.03 1.04 1.01
2208.680 0.9287 0.9078 0.8965 0.8757 0.8648 0.8558 0.8337 0.8289 0.8446 0.86
2227.970 0.8813 0.9122 0.9099 0.9066 0.9255 0.9164 0.9227 0.9053 0.9133 0.8994
2247.259 0.8765 0.9128 0.9287 0.9358 0.9487 0.972 1.02 1.03 1 1.02
2266.549 1.07 1.11 1.19 1.26 1.32 1.37 1.39 1.42 1.45 1.46
2285.839 1.46 1.48 1.42 1.38 1.33 1.23 1.15 1.13 1.16 1.15
2305.129 1.09 1.04 0.9923 0.9687 0.969 0.9523 0.8962 0.8938 0.9422 0.9846
2324.418 0.9958 1.06 1.16 1.19 1.29 1.44 1.53 1.6 1.68 1.78
2343.708 1.85 1.84 1.86 1.92 1.9 1.91 1.91 1.89 1.92 1.95
2362.998 1.94 1.94 1.95 2 2.03 1.98 1.95 1.94 1.94 1.97
2382.288 1.93 1.95 1.94 1.9 1.9 1.92 1.93 1.92 1.9 1.8
2401.578 1.74 1.72 1.66 1.59 1.54 1.49 1.41 1.42 1.44 1.41
2420.867 1.4 1.35 1.32 1.33 1.37 1.4 1.35 1.36 1.35 1.31
2440.157 1.35 1.35 1.34 1.36 1.39 1.37 1.4 1.42 1.39 1.39
2459.447 1.33 1.28 1.31 1.33 1.34 1.36 1.39 1.44 1.43 1.46
2478.737 1.53 1.56 1.6 1.68 1.76 1.81 1.86 1.89 1.87 1.86
2498.026 1.86 1.84 1.84 1.84 1.88 1.87 1.84 1.91 1.93 1.91
2517.316 1.95 2 2.01 2.05 2.09 2.08 2.06 2.11 2.16 2.15
2536.606 2.16 2.18 2.23 2.21 2.16 2.16 2.09 2.04 1.98 1.86
2555.896 1.79 1.75 1.73 1.71 1.68 1.72 1.73 1.73 1.79 1.84
2575.186 1.86 1.88 1.94 2.02 2.09 2.19 2.28 2.35 2.41 2.48
2594.475 2.49 2.49 2.55 2.53 2.51 2.49 2.44 2.39 2.34 2.33
2613.765 2.3 2.29 2.24 2.15 2.15 2.1 2.05 2.05 2 1.94
2633.055 1.9 1.84 1.84 1.81 1.72 1.68 1.68 1.62 1.62 1.65
2652.345 1.67 1.67 1.69 1.73 1.74 1.73 1.73 1.82 1.87 1.9
2671.634 1.94 1.96 1.98 1.99 1.98 1.94 1.95 1.96 1.97 1.99
2690.924 1.98 1.96 1.93 1.95 1.97 1.99 2 2.08 2.14 2.17
2710.214 2.33 2.39 2.42 2.48 2.52 2.58 2.65 2.62 2.55 2.49
2729.504 2.38 2.29 2.28 2.15 2.05 1.99 1.94 1.97 1.98 2
2748.794 2 2.02 2.06 2.06 2.07 2.12 2.12 2.21 2.32 2.35
2768.083 2.4 2.45 2.53 2.6 2.59 2.59 2.64 2.68 2.71 2.72
2787.373 2.7 2.66 2.62 2.61 2.55 2.55 2.61 2.65 2.72 2.73
2806.663 2.75 2.78 2.8 2.85 2.89 2.88 2.87 2.88 2.91 2.98
2825.953 3.15 3.27 3.33 3.49 3.78 4.05 4.34 4.72 5.16 5.65
2845.242 6.14 6.7 7.18 7.58 7.89 8.07 8.08 7.9 7.59 7.15
2864.532 6.66 6.15 5.57 5.03 4.7 4.52 4.39 4.32 4.34 4.39
2883.822 4.42 4.61 4.89 5.14 5.52 5.94 6.31 6.65 6.92 7.22
2903.112 7.54 7.77 7.97 8.16 8.35 8.47 8.54 8.65 8.69 8.64
2922.401 8.53 8.37 8.22 8.15 8.03 8.01 8.2 8.45 8.75 9.28
2941.691 10.03 11.05 12.32 13.92 16.13 19.16 23.25 28.79 35.78 43.42
2960.981 49.55 52.46 52.58 50.57 46.45 39.73 31.7 24.77 19.91 16.81
2980.271 14.88 13.77 13.1 12.74 12.66 12.75 12.94 13.23 13.56 13.97
2999.561 14.49 15.07 15.66 16.24 16.73 16.93 17 16.98 16.94 16.78
3018.850 16.64 16.79 16.95 17.02 17.15 17.38 17.65 17.89 18.05 18.17
3038.140 18.34 18.6 19.01 19.76 20.91 22.72 25.38 28.7 32.5 36.45
3057.430 40.05 42.76 44.22 44.25 43.15 41.65 39.92 37.73 35.17 32.73
3076.720 30.5 28.41 26.42 24.37 22.27 20.2 18.16 16.14 14.32 12.73
3096.009 11.47 10.36 9.38 8.6 7.89 7.4 7.06 6.79 6.52 6.29
3115.299 6.12 5.9 5.77 5.75 5.7 5.62 5.57 5.57 5.5 5.4
3134.589 5.37 5.42 5.52 5.61 5.67 5.8 5.92 6.01 6.23 6.5
3153.879 6.7 6.89 7.03 7.29 7.58 7.8 8.08 8.34 8.53 8.7
3173.169 8.85 8.91 8.94 8.95 8.98 9.01 8.99 8.98 8.99 8.96
3192.458 8.91 8.91 8.92 8.78 8.71 8.82 8.8 8.68 8.66 8.66
3211.748 8.67 8.63 8.55 8.46 8.35 8.24 8.11 8.09 8.09 7.97
3231.038 7.88 7.97 8.09 8.14 8.17 8.29 8.53 8.85 9.17 9.37
3250.328 9.71 10.11 10.51 10.98 11.41 11.88 12.51 13.14 13.78 14.55
3269.617 15.42 16.25 17.14 18.17 19.21 20.33 21.5 22.83 24.38 26.07
3288.907 27.94 30.07 32.44 35.15 38.1 41.27 44.81 48.52 52.3 56.26
3308.197 60.23 63.97 67.44 70.45 72.92 74.92 76.39 77.18 77.4 77.25
3327.487 76.55 75.36 73.84 72.18 70.35 68.34 66.33 64.23 62.09 59.99
3346.777 57.96 55.97 53.98 52.09 50.34 48.68 47.18 45.78 44.39 43.22
3366.066 42.26 41.28 40.39 39.65 38.97 38.32 37.63 36.99 36.52 36.01
3385.356 35.33 34.76 34.31 33.75 33.26 32.69 32.03 31.39 30.64 29.82
3404.646 29.05 28.23 27.23 26.47 25.68 24.78 23.9 23.04 22.26 21.49
3423.936 20.9 20.2 19.42 18.79 18.14 17.54 17.13 16.7 16.21 15.89
3443.225 15.45 14.98 14.64 14.3 13.97 13.68 13.43 13.15 12.79 12.43
3462.515 12.21 11.91 11.5 11.2 11.03 10.83 10.58 10.41 10.27 10.17
3481.805 10.06 9.91 9.94 9.99 10.14 10.53 11.01 11.73 12.87 14.46
3501.095 16.26 18.08 19.82 21.39 22.56 23.22 23.36 22.75 21.66 20.44
3520.385 19.14 17.92 16.77 15.68 14.76 13.88 13.19 12.75 12.31 11.85
3539.674 11.3 10.77 10.17 9.5 8.9 8.31 7.77 7.27 6.75 6.42
3558.964 6.17 5.71 5.37 5.07 4.63 4.29 4.09 3.87 3.63 3.48
3578.254 3.33 3.14 3.06 3.02 2.92 2.93 2.84 2.74 2.73 2.75
3597.544 2.74 2.67 2.65 2.61 2.52 2.52 2.49 2.36 2.41 2.49
3616.833 2.43 2.46 2.42 2.33 2.39 2.38 2.32 2.23 2.22 2.29
3636.123 2.28 2.27 2.28 2.21 2.21 2.28 2.13 1.94 1.96 1.97
3655.413 1.99 1.94 1.83 1.83 1.82 1.79 1.77 1.81 1.78 1.69
3674.703 1.72 1.59 1.51 1.56 1.6 1.54 1.44 1.44 1.39 1.28
3693.993 1.22 1.24 1.11 1.01 1.02 0.9968 1 1.01 0.9395 0.8643
3713.282 0.8291 0.7168 0.6143 0.6518 0.7645 0.7364 0.6497 0.5969 0.6609 0.7029
3732.572 0.7028 0.6797 0.5435 0.5787 0.6282 0.546 0.5223 0.5264 0.6242 0.7311
3751.862 0.6888 0.6173 0.5522 0.5471 0.5692 0.6757 0.7 0.6753 0.5476 0.5128
3771.152 0.6368 0.5442 0.5741 0.6615 0.6427 0.6683 0.7117 0.662 0.5649 0.5288
3790.441 0.5301 0.5341 0.6429 0.6803 0.6103 0.611 0.6281 0.637 0.67 0.7714
3809.731 0.6854 0.5975 0.618 0.5296 0.4997 0.6504 0.6158 0.4759 0.5233 0.6523
3829.021 0.7231 0.6683 0.6563 0.7082 0.7037 0.6637 0.6705 0.5803 0.5189 0.4819
3848.311 0.4805 0.5892 0.5532 0.4274 0.4549 0.5167 0.4796 0.5761 0.6537 0.5513
3867.601 0.5339 0.5593 0.61 0.6852 0.532 0.4135 0.5186 0.5634 0.5316 0.5926
3886.890 0.633 0.6072 0.5761 0.5577 0.6153 0.6769 0.5922 0.6287 0.6066 0.561
3906.180 0.6658 0.7213 0.7376 0.6937 0.7232 0.764 0.8135 0.859 0.815 0.8672
3925.470 0.9729 0.9856 0.9837 1.07 0.9815 0.754 0.7579 0.8036 0.8555 0.8557
3944.760 0.8501 0.9249 1.05 0.9927 0.9405 1.05 1 1.05 1.09 1.09
3964.049 1.25 1.38 1.39 1.37 1.37 1.25 1.3 1.31 1.19 1.24
3983.339 1.21 1.06 1.09 1.09 0.9767 0.9677 0.9315 0.8343 0.7703 0.7939
##END=
