##TITLE=2,4,5-Trifluorobenzoyl chloride
##JCAMP-DX=4.24
##DATA TYPE=INFRARED SPECTRUM
##ORIGIN=EPA-IR VAPOR PHASE LIBRARY
##OWNER=SRD/NIST
Collection (C) 2018 copyright by the U.S. Secretary of Commerce
on behalf of the United States of America. All rights reserved.
##CAS REGISTRY NO=88419-56-1
##MOLFORM=C 7 H 2 Cl F 3 O
##$NIST SOURCE=MSDC-IR
##STATE=gas
##XUNITS=1/CM
##YUNITS=ABSORBANCE
##XFACTOR=1.
##YFACTOR=0.001
##DELTAX=1.92898
##FIRSTX=549.8
##LASTX=4000.7
##FIRSTY=29.024
##MAXX=4000.7
##MINX=549.759
##MAXY=0.220724
##MINY=0
##NPOINTS=1790
##XYDATA=(X++(Y..Y))
549.759 29.024 27.814 26.254 24.934 22.494 18.104 13.844 10.594 8.834 8.034
569.049 8.084 9.204 9.634 10.144 11.354 11.624 11.454 12.684 12.844 12.234
588.339 12.584 12.334 12.704 12.834 12.614 12.714 13.634 15.534 16.064 16.104
607.628 16.834 17.434 18.844 21.584 23.704 26.044 28.214 29.314 29.554 27.874
626.918 25.424 22.214 17.914 14.054 11.134 8.694 6.774 5.684 5.384 4.884
646.208 4.264 4.434 4.714 4.824 5.834 6.944 8.154 9.834 11.104 10.844
665.498 10.154 10.194 10.244 10.094 8.854 7.214 6.314 5.544 4.684 4.974
684.787 4.584 3.424 3.794 4.484 4.944 5.304 5.784 5.934 5.544 6.074
704.077 7.204 7.594 7.824 8.794 9.954 11.134 12.824 14.554 15.944 16.684
723.367 16.844 16.424 15.674 15.044 13.844 12.264 10.434 8.564 7.204 6.714
742.657 6.124 5.174 5.454 5.694 5.044 4.904 5.654 6.384 6.924 8.154
761.947 9.414 10.574 12.094 14.364 17.794 22.194 27.374 34.404 43.234 53.004
781.236 62.394 69.084 72.494 74.194 75.224 74.544 71.864 68.064 66.634 69.664
800.526 75.654 82.714 89.754 94.104 94.914 94.334 90.434 82.094 72.404 62.794
819.816 53.184 43.764 38.324 35.464 32.654 31.164 29.574 28.274 27.744 28.024
839.106 29.124 31.254 33.864 37.194 40.894 44.064 48.784 55.914 60.244 58.794
858.395 57.734 58.894 59.994 61.194 62.054 62.574 62.614 62.614 62.894 62.494
877.685 61.884 61.844 61.234 58.734 55.744 53.784 52.144 50.134 45.814 38.904
896.975 33.014 28.704 24.864 22.104 19.924 18.004 16.814 16.104 15.224 14.674
916.265 13.454 12.294 11.604 10.324 9.324 8.334 7.374 6.914 6.854 6.874
935.555 6.384 5.604 5.374 5.774 5.534 4.644 4.384 4.324 3.904 3.634
954.844 3.354 3.084 3.424 3.694 3.504 3.984 4.324 3.774 3.554 3.434
974.134 3.264 2.874 2.664 3.134 2.864 1.974 2.354 2.334 2.184 2.754
993.424 2.404 2.804 3.124 2.614 2.074 1.0029 1.3017 2.194 2.214 2.264
1012.714 2.234 2.304 2.344 2.254 1.5379 1.3576 1.5264 1.934 3.174 3.284
1032.003 2.914 2.194 1.4486 2.254 2.934 2.814 2.614 2.934 3.514 3.154
1051.293 2.684 2.824 3.324 3.694 3.964 4.754 4.424 4.414 4.864 4.794
1070.583 5.574 5.054 4.664 5.074 5.664 6.374 6.174 6.024 7.884 8.964
1089.873 9.094 10.874 12.774 15.794 19.214 22.274 26.464 31.484 38.494 48.564
1109.163 61.474 77.154 94.524 111.354 125.634 138.834 149.104 155.814 157.014 151.054
1128.452 141.494 127.504 111.674 97.684 83.714 70.164 59.914 51.304 46.274 46.064
1147.742 48.394 50.854 52.584 55.224 56.634 56.334 53.724 49.274 44.354 39.104
1167.032 33.494 27.044 21.754 17.784 14.264 11.244 9.404 8.074 7.934 8.624
1186.322 7.624 7.054 8.584 8.924 8.834 10.464 13.614 16.014 17.624 23.294
1205.611 28.894 31.864 37.474 43.604 48.564 54.154 59.254 62.504 61.754 58.054
1224.901 54.654 52.814 47.504 39.094 30.964 23.304 17.944 14.714 11.624 9.804
1244.191 9.684 9.834 10.134 9.324 8.934 9.114 8.964 9.184 9.944 10.544
1263.481 10.134 10.834 11.784 12.644 13.514 14.354 15.744 16.494 17.124 18.104
1282.771 18.134 18.394 18.484 17.664 17.194 16.514 15.524 15.024 14.374 13.904
1302.060 13.964 13.844 13.974 14.804 16.394 18.774 22.154 26.894 32.964 40.124
1321.350 48.324 57.254 66.944 76.934 86.114 93.704 99.074 101.574 100.514 95.864
1340.640 88.174 77.954 66.344 54.474 43.124 33.574 26.554 21.934 18.894 16.694
1359.930 15.134 13.904 12.804 11.824 11.044 10.214 9.194 8.364 7.854 7.394
1379.219 6.924 6.594 6.164 5.964 6.044 6.094 6.164 6.544 7.134 7.374
1398.509 7.974 9.124 10.314 11.964 14.214 17.604 22.154 27.824 35.134 43.904
1417.799 52.994 61.804 68.074 71.014 71.224 69.814 67.134 61.184 50.944 39.104
1437.089 28.314 20.624 15.824 12.924 11.034 10.234 10.084 10.254 10.464 10.264
1456.378 10.084 10.104 9.874 9.594 9.384 9.144 9.194 9.244 9.294 9.754
1475.668 10.214 10.814 11.804 12.964 14.184 15.774 18.084 21.464 25.744 31.054
1494.958 38.464 48.124 60.234 75.664 94.604 116.464 141.784 167.714 190.084 207.874
1514.248 218.774 220.724 213.974 200.124 178.314 153.334 125.854 99.344 77.104 60.024
1533.538 47.784 38.904 32.554 27.724 23.334 19.504 16.204 13.704 12.134 11.104
1552.827 10.894 11.054 11.054 11.104 11.674 12.434 13.324 14.354 14.834 15.324
1572.117 16.254 16.574 16.444 16.314 15.914 15.194 15.014 15.254 15.774 16.954
1591.407 18.774 21.734 26.054 32.524 40.794 50.114 60.474 71.214 81.044 89.074
1610.697 94.124 95.334 92.604 85.974 76.994 67.434 57.894 49.304 42.114 36.424
1629.986 31.764 27.674 24.194 20.924 18.324 16.254 14.684 13.654 12.764 12.154
1649.276 11.524 10.944 10.324 9.924 9.584 9.094 8.524 8.014 7.624 7.324
1668.566 7.164 7.004 6.764 6.684 6.804 6.854 6.694 6.704 6.634 6.584
1687.856 6.824 6.964 7.274 7.574 7.874 8.194 8.484 8.714 8.844 8.864
1707.146 9.024 9.334 9.474 9.714 9.934 10.064 10.254 10.514 11.104 11.814
1726.435 12.474 13.444 14.354 15.244 16.364 17.354 18.634 20.314 22.024 23.854
1745.725 26.014 28.784 32.304 36.364 40.494 44.654 48.844 52.164 54.694 57.034
1765.015 58.974 59.884 59.434 58.254 57.374 56.754 55.994 55.874 57.244 60.894
1784.305 67.464 77.514 91.644 108.934 126.034 137.624 141.384 142.064 143.094 139.764
1803.594 126.874 106.684 85.214 67.344 54.234 45.024 38.754 34.464 31.524 29.484
1822.884 27.694 25.844 23.884 21.514 18.844 16.494 14.484 12.694 10.904 9.384
1842.174 8.314 7.194 6.294 5.674 5.304 5.004 4.654 4.444 4.024 3.654
1861.464 3.594 3.604 3.554 3.504 3.304 3.094 3.274 3.254 3.124 3.254
1880.754 3.284 3.264 3.274 3.284 3.354 3.234 3.174 3.414 3.294 3.244
1900.043 3.234 2.814 2.764 2.764 2.634 2.644 2.604 2.544 2.414 2.404
1919.333 2.414 2.284 2.224 2.114 2.074 2.034 2.024 2.114 2.114 2.084
1938.623 2.054 2.144 2.134 1.844 1.894 2.224 2.344 2.394 2.514 2.574
1957.913 2.364 2.304 2.264 2.154 1.964 2.004 2.174 2.004 1.944 1.924
1977.202 1.974 2.104 2.104 2.214 2.174 2.194 2.304 2.274 2.374 2.424
1996.492 2.204 1.894 1.734 1.984 2.174 1.974 1.884 1.834 1.814 1.804
2015.782 1.6084 1.498 1.684 1.794 1.5771 1.6163 1.814 1.764 1.664 1.5888
2035.072 1.694 1.684 1.577 1.5532 1.5618 1.5957 1.714 1.664 1.4309 1.4141
2054.362 1.4624 1.5578 1.814 1.904 1.844 1.734 1.674 1.654 1.664 1.6193
2073.651 1.5684 1.5457 1.5687 1.664 1.5811 1.664 1.704 1.4501 1.2253 1.0024
2092.941 0.9633 0.9502 1.0914 1.3613 1.3589 1.3536 1.3418 1.2581 1.2507 1.3268
2112.231 1.3196 1.4436 1.4793 1.2969 1.1815 1.315 1.3618 1.3239 1.3235 1.2683
2131.521 1.3059 1.3694 1.5335 1.6181 1.5301 1.5527 1.5441 1.5186 1.664 1.674
2150.810 1.634 1.724 1.774 1.6159 1.5225 1.5209 1.5086 1.2889 1.2054 1.3785
2170.100 1.3398 1.3386 1.2767 1.2816 1.2304 1.1184 1.0845 1.0442 1.0418 0.9799
2189.390 1.1021 1.2156 1.1305 1.2882 1.4962 1.4547 1.2776 1.1088 1.2618 1.1786
2208.680 0.9946 1.1836 1.2802 1.3925 1.4321 1.4295 1.3917 1.4272 1.4723 1.744
2227.970 1.994 1.894 1.954 1.914 2.044 2.254 2.164 2.144 2.364 2.434
2247.259 2.164 2.084 2.374 2.434 2.184 2.024 1.824 1.5514 1.503 1.4847
2266.549 1.4327 1.2888 1.0558 1.1873 1.3209 1.4087 1.5188 1.4668 1.3347 1.3818
2285.839 1.694 1.714 1.644 1.3884 1.2944 1.634 1.6074 1.4992 1.684 1.664
2305.129 1.4827 1.4472 1.4718 1.5833 1.704 1.5004 1.4736 1.664 1.674 1.754
2324.418 1.774 2.024 1.864 1.704 1.754 1.724 1.984 1.964 2.184 2.284
2343.708 2.034 2.104 2.234 2.084 1.894 1.934 1.834 1.794 1.904 1.834
2362.998 1.864 1.964 2.174 2.404 2.324 2.224 2.214 2.144 2.044 1.904
2382.288 1.894 1.864 1.774 1.764 1.654 1.5104 1.397 1.5333 1.5964 1.3193
2401.578 1.1968 1.2393 1.0789 1.044 1.2982 1.1747 1.2175 1.478 1.4693 1.5492
2420.867 1.409 1.2486 1.4361 1.4526 1.3339 1.4129 1.714 1.654 1.6003 1.744
2440.157 1.6109 1.714 1.694 1.5285 1.724 1.694 1.5496 1.774 1.774 1.5296
2459.447 1.3913 1.5546 1.664 1.4926 1.4384 1.531 1.624 1.764 1.844 1.5537
2478.737 1.4935 1.654 1.4723 1.3634 1.4031 1.5345 1.6014 1.654 1.5777 1.4639
2498.026 1.4872 1.3869 1.3695 1.411 1.5126 1.5897 1.4488 1.2883 1.2053 1.1847
2517.316 1.328 1.4672 1.5738 1.6109 1.4737 1.4494 1.634 1.714 1.6206 1.5014
2536.606 1.5229 1.764 1.954 2.114 2.294 2.564 2.624 2.314 2.314 2.174
2555.896 2.124 2.234 2.184 2.194 2.134 2.124 2.114 1.844 1.5904 1.904
2575.186 2.004 1.734 1.794 2.034 1.924 1.804 1.834 1.934 1.844 1.5511
2594.475 1.5142 1.4809 1.2372 1.4357 1.744 1.844 1.814 1.734 1.884 1.884
2613.765 1.794 1.844 1.874 1.774 1.894 2.194 2.264 2.014 1.914 2.104
2633.055 2.204 2.044 1.974 1.994 2.064 2.134 1.834 1.944 2.264 2.164
2652.345 2.014 1.904 2.034 1.804 1.4644 1.764 1.884 1.5587 1.4303 1.704
2671.634 2.044 2.104 1.964 1.884 1.674 1.4902 1.4546 1.2869 1.2191 1.3045
2690.924 1.3714 1.2369 1.1511 1.4378 1.814 1.634 1.3504 1.3548 1.1717 1.2101
2710.214 1.5981 1.714 1.654 1.5924 1.4259 1.664 1.714 1.684 1.774 1.904
2729.504 2.164 1.784 1.5487 1.664 1.4929 1.634 1.814 1.654 1.624 1.624
2748.794 1.654 1.4318 1.6096 1.834 1.6168 1.4998 1.1717 0.9513 1.1423 1.3116
2768.083 1.276 1.155 0.9648 1.0106 1.2556 1.132 1.0976 1.4105 1.2223 1.2964
2787.373 1.4514 1.6002 1.744 1.581 1.4373 1.4687 1.3847 1.1242 1.231 1.4934
2806.663 1.714 1.4064 1.141 1.1493 1.0983 1.3109 1.5441 1.5699 1.015 0.9147
2825.953 1.461 1.3651 0.996 0.9789 1.216 1.2569 1.3431 1.4614 1.5598 1.5984
2845.242 1.5791 1.1559 0.6064 0.7721 1.0601 1.0896 0.9996 0.9061 1.06 1.3632
2864.532 1.3943 1.2977 1.214 1.1229 1.3385 1.5702 1.4925 1.2619 1.2285 1.1321
2883.822 1.1438 1.3341 1.4605 1.654 1.4601 1.1811 1.0775 1.0861 0.9135 1.1214
2903.112 1.3051 1.0649 1.2377 1.0895 0.9372 1.0765 1.061 0.9993 1.1645 1.1433
2922.401 1.108 1.4774 1.2331 1.0217 1.0543 1.2468 1.582 1.804 1.984 1.814
2941.691 1.4086 1.454 1.704 1.4476 1.3608 1.6167 1.583 1.3664 1.036 0.9348
2960.981 1.2656 1.5164 1.5503 1.3856 1.2876 1.0982 1.1665 1.314 1.0914 0.6665
2980.271 0.384 0.5989 1.1425 1.0453 0.7793 1.0621 1.2595 1.0346 0.8393 0.9287
2999.561 0.871 1.3469 1.5225 1.1251 1.0374 0.8516 0.9942 1.382 1.1859 0.8998
3018.850 0.9097 1.0748 1.1486 1.1726 1.654 1.4511 0.9673 0.869 1.0828 1.5164
3038.140 1.155 1.24 1.3888 1.1226 1.2104 1.0698 1.0676 1.704 1.884 1.5355
3057.430 1.824 1.984 1.634 1.634 1.954 2.574 3.814 4.144 4.264 4.984
3076.720 5.724 6.224 6.314 6.624 6.534 5.844 4.924 4.374 4.124 4.104
3096.009 3.904 3.514 3.384 3.104 2.764 2.434 2.194 1.934 1.734 1.804
3115.299 1.914 1.834 1.924 1.924 1.634 1.4389 1.5741 2.134 2.084 1.764
3134.589 1.5923 1.764 1.794 1.814 2.364 1.854 1.864 1.904 1.2907 1.684
3153.879 1.684 1.3162 1.3576 1.694 1.814 1.6026 1.2965 0.5707 0.71234 0.9848
3173.169 0.9335 1.0057 0.351 0.051 0.5813 1.3295 1.0737 1.0477 1.2415 0.8923
3192.458 0.72274 0.9343 1.3301 1.2351 1.1059 0.9098 0.8039 1.2537 1.644 1.1442
3211.748 0.7317 0.7943 0.8297 0.9889 0.8887 0.5269 0.5807 0.8323 0.8082 0.9593
3231.038 1.1541 1.2731 1.3295 1.1598 1.1567 1.2767 1.0966 0.7861 1.0618 1.407
3250.328 1.724 1.4108 1.1954 1.3818 1.0761 1.1914 1.1011 0.9226 0.9075 0.7569
3269.617 0.68292 0.7509 0.69747 0.7519 1.057 1.1726 1.1743 0.751 0.7315 0.5976
3288.907 0.247 0.8736 0.8604 0.519 0.8151 1.0018 0.8919 0.7476 0.396 0.293
3308.197 0.5575 0.5663 1.0464 1.0565 0.826 0.9568 0.7337 0.485 0.7735 1.0599
3327.487 0.8398 0.7638 1.0774 1.19 1.369 1.864 1.774 1.1596 0.8297 0.71767
3346.777 0.8702 0.64378 0.64968 0.9436 0.7538 1.0564 1.0827 1.2429 1.0109 0.71814
3366.066 1.3631 1.2618 0.9823 1.3543 1.0813 0.65758 1.0659 1.3685 1.5202 1.5101
3385.356 1.3833 1.5233 1.3594 1.5348 1.814 1.5714 0.7729 0.843 1.2976 0.64121
3404.646 0.6012 1.0191 0.67455 0.765 1.1643 1.0503 0.8464 0.928 1.5632 1.6015
3423.936 1.0322 1.0276 0.8154 0.7326 0.7326 0.5863 1.0779 1.294 1.0031 0.255
3443.225 0.173 0.466 0.59 1.0238 0.628894 0.37 1.1218 1.2885 0.972 0.8269
3462.515 0.9177 0.7899 0.368 0.5921 1.3967 2.094 1.654 1.5628 1.794 1.3731
3481.805 1.5474 1.5303 1.3167 1.4543 1.1948 1.1425 1.644 1.3932 0.8715 0.8924
3501.095 1.2483 1.3153 1.3693 1.5731 1.894 2.054 1.3205 1.073 1.419 1.302
3520.385 0.7318 1.0672 1.794 1.4644 1.6074 1.884 1.3342 1.075 1.3032 1.5587
3539.674 1.4782 1.2682 1.1583 1.3495 1.634 1.624 1.3932 1.864 2.194 1.674
3558.964 1.754 1.5617 1.5484 2.274 2.394 2.574 2.544 2.384 2.874 2.774
3578.254 2.254 2.244 2.594 2.604 2.544 2.414 1.914 1.5502 1.664 1.654
3597.544 1.634 1.894 2.024 1.914 1.984 1.834 1.429 0.9398 1.0443 1.3502
3616.833 0.519 0.8287 1.2358 0.8958 1.0069 1.1804 1.3485 1.3256 1.4466 1.3086
3636.123 1.0505 1.1906 1.1683 1.1998 1.644 1.0951 0.5418 0.8293 0.9684 0.9608
3655.413 0.9055 1.1294 1.1347 0.624838 0.346 0.5417 0.9579 1.2158 1.3407 0.9676
3674.703 0.8863 1.3129 1.2462 1.1968 1.1038 1.1101 0.809 0.521 0.955 1.0703
3693.993 0.7659 0.8607 1.263 1.1374 0.7925 1.191 1.5777 1.3291 0.7508 0.66572
3713.282 0.8599 0.623146 0.433 0.63861 0.8813 0.71249 0.489 1.0418 1.5029 1.4585
3732.572 1.305 0.9181 0.5737 0.67527 0.9782 0.8407 0.59 0.5957 0.9209 1.1074
3751.862 0.71639 1.0608 1.3529 1.2709 1.4459 1.0876 0.9941 1.2772 1.2876 0.7983
3771.152 0.5878 0.9052 0.71129 0.8833 1.154 1.1323 1.1712 1.0988 1.0446 1.0796
3790.441 1.0753 0.763 0.9368 1.3899 1.2668 0.8128 0.363 0.61759 0.9541 0.69012
3809.731 0.45 0.7662 1.048 0.8818 0.7874 0.486 0.68723 1.1172 1.0096 0.9069
3829.021 0.8091 1.1008 1.2881 0.7903 0.382 0.461 0.9128 0.7821 0.5982 1.0394
3848.311 0.8661 0.114 0.24 1.0613 1.061 0.8299 0.789 1.1624 1.3242 0.586
3867.601 0.067 0.7514 1.4923 1.2837 1.0639 1.1067 1.2005 1.2094 0.7887 0.9568
3886.890 1.3582 0.9762 0.8707 0.9463 0.791 1.0849 1.2981 0.8506 0.8417 0.65326
3906.180 0.309 0.7609 1.1907 1.1942 0.66465 0.71138 1.3746 1.1057 1.0072 1.0974
3925.470 0.7882 0.481 0.70341 1.3069 1.714 1.3346 1.252 1.0537 0.272 0.476
3944.760 0.7701 1.0278 0.8195 0 0.62787 1.5353 0.945 0.902 1.0194 0.9816
3964.049 1.255 0.9256 0.5855 0.8955 1.3135 1.4085 1.177 0.7496 1.0358 1.1328
3983.339 1.2009 0.9912 0.62261 1.0395 1.3333 1.1209 1.061 1.2794 0.9275 1.1378
##END=
