##TITLE=2-Chloro-4-fluorobenzamide
##JCAMP-DX=4.24
##DATA TYPE=INFRARED SPECTRUM
##ORIGIN=EPA-IR VAPOR PHASE LIBRARY
##OWNER=SRD/NIST
Collection (C) 2018 copyright by the U.S. Secretary of Commerce
on behalf of the United States of America. All rights reserved.
##CAS REGISTRY NO=88578-90-9
##MOLFORM=C 7 H 5 Cl F N O
##$NIST SOURCE=MSDC-IR
##STATE=gas
##XUNITS=1/CM
##YUNITS=ABSORBANCE
##XFACTOR=1.
##YFACTOR=0.001
##DELTAX=1.92898
##FIRSTX=549.8
##LASTX=4000.7
##FIRSTY=4.36
##MAXX=4000.7
##MINX=549.759
##MAXY=0.03773
##MINY=0
##NPOINTS=1790
##XYDATA=(X++(Y..Y))
549.759 4.36 4.38 3.74 3.3 4.84 5.84 6.27 6.48 6.53 6.47
569.049 6.13 5.7 5.59 5.78 5.35 5.46 5.83 4.97 4.4 4.34
588.339 4.3 3.97 3.79 3.57 3.19 2.84 2.2475 2.73 3 2.61
607.628 2.3116 1.5892 1.8269 2.62 2.54 2.3392 2.2767 2.1101 1.7508 2.0293
626.918 1.849 1.127 1.7165 1.8828 1.2541 1.026 1.422 1.3168 1.224 1.839
646.208 2.0307 2.41 2.38 2.71 2.52 2.0391 2.0743 2.0716 2.67 2.7
665.498 2.48 2.83 3.36 3.68 4.16 4.36 4.03 4.09 4.64 4.46
684.787 4.03 4.06 4.23 4.51 4.66 4.73 4.17 3.88 3.95 3.6
704.077 3.62 3.33 3.38 3.59 3.12 2.66 2.73 2.76 2.46 2.65
723.367 3.1 2.86 2.59 2.1434 1.8279 2.43 2.0365 1.9689 2.86 3.25
742.657 3.29 3.1 3.1 3.07 2.7 2.62 2.78 3.93 4.94 4.73
761.947 5.16 5.75 5.31 4.81 4.66 4.32 4.02 4.32 4.67 4.29
781.236 3.87 3.99 3.6 3.61 3.67 3 3.38 4.05 3.73 3.25
800.526 3.36 4.01 4.05 3.92 4.49 4.56 4.15 4.1 4.54 5.03
819.816 5.18 5.2 5.28 5.15 5.21 5.23 5.43 5.51 4.93 4.96
839.106 5.03 5.05 5.33 5.15 5.05 5.46 6.14 7.04 8.33 9.35
858.395 9.65 10.75 11.88 10.53 9.1 8.76 7.86 7.58 6.88 5.88
877.685 5.9 5.51 4.82 5.24 5.57 5.62 6.28 6.64 7.26 8.34
896.975 9.68 11.26 13.04 14.57 15.3 15.8 15.64 14.63 13.7 12.56
916.265 10.46 8.11 6.29 5.38 4.93 4.48 4.21 3.95 3.69 3.6
935.555 3.5 3.36 3.17 2.68 2.64 2.71 2.65 3.03 3.34 2.98
954.844 2.79 2.76 2.47 2.67 2.72 2.3106 2.58 2.67 2.44 3.03
974.134 3.22 2.42 2.2607 2.68 2.31 2.1798 2.0446 1.8243 2.1496 1.806
993.424 1.6635 2.3067 2.67 2.51 1.7032 1.6796 2.1897 1.9264 1.898 2.2653
1012.714 2.0543 2.1364 2.71 2.1465 2.3155 2.72 2.79 3.12 3.9 4.54
1032.003 4.61 4.35 3.62 3.65 4.98 5.94 5.83 4.87 3.2 2.82
1051.293 2.93 3.11 3.12 2.94 3.4 2.9 2.85 3.32 3.6 3.61
1070.583 3.22 2.83 3.01 3.46 2.36 2.56 2.51 2.1407 1.8824 1.6575
1089.873 2.98 5.12 5.78 4.17 4.05 4.16 2.89 2.9 3.16 3.6
1109.163 4.33 4.03 5.1 4.87 3.51 3.93 4.58 4.88 5.1 4.78
1128.452 5.67 5.91 4.85 4.89 4.55 3.86 4.06 4.44 4.24 3.61
1147.742 3.11 2.96 2.37 2.79 3.67 3.76 3.35 2.73 2.55 2.3073
1167.032 2.1093 2.43 3.04 2.63 1.5872 2.37 3.26 4.29 4.7 3.85
1186.322 4.13 3.29 2.79 4.07 4.96 4.64 5.62 6.43 7.83 9.25
1205.611 8.86 10.16 11.06 11.49 13.11 14.62 14.81 13.93 11.87 10.26
1224.901 9.03 7.91 6.7 5.27 4.48 4.12 3.66 3.03 3.24 4.46
1244.191 5.09 6.08 7.23 8.04 10 11.2 11.61 12.1 12.5 12.82
1263.481 12.47 11.59 10.93 10.18 8.94 8.2 7.66 7.33 7.34 7.19
1282.771 7.15 7.29 7.27 6.3 5.74 5.85 5.6 5.21 5.09 5.1
1302.060 5.22 5.24 4.91 4.8 5.17 5.33 5.4 5.97 6.27 6.51
1321.350 7.17 7.98 8.98 10.11 11.67 13.78 16.04 18.48 20.67 22.51
1340.640 24.04 24.86 24.87 24.15 22.48 20.06 17.5 14.86 12.37 10.42
1359.930 8.94 7.94 7.48 7.09 6.7 6.43 6.12 6.02 6.13 6.37
1379.219 6.86 7.34 7.84 8.55 9.23 9.88 10.68 11.16 11.28 11.23
1398.509 11.06 10.5 9.38 8.28 7.32 6.43 5.65 5 4.53 3.92
1417.799 3.41 3.01 2.64 2.68 2.68 2.48 2.51 2.66 2.79 2.82
1437.089 2.69 2.76 2.92 2.91 2.96 3.21 3.32 3.35 3.43 3.47
1456.378 3.5 3.51 3.64 3.74 3.78 3.92 4.25 4.67 5.29 6.14
1475.668 7.06 8.19 9.26 10.47 11.78 12.6 12.76 12.3 11.75 11.01
1494.958 9.86 8.32 6.61 5.34 4.41 3.55 2.91 2.56 2.3116 2.2129
1514.248 2.3307 2.39 2.3361 2.35 2.44 2.3297 2.3321 2.51 2.38 2.3391
1533.538 2.43 2.52 2.63 2.85 2.94 2.78 3.09 3.71 4.12 4.29
1552.827 4.33 4.7 5.21 5.43 6.12 7.33 8.39 9.48 10.89 12.73
1572.117 14.33 16.28 19.46 22.4 24.86 27 28.84 30.59 31.69 32.85
1591.407 33.71 33.47 32.55 31.25 29.87 28.28 26.2 23.89 21.3 18.39
1610.697 15.7 12.99 10.7 9.09 7.82 6.72 5.92 5.39 4.89 4.44
1629.986 4.2 4.14 3.89 3.95 3.92 3.78 3.69 3.87 3.94 3.62
1649.276 3.7 3.72 3.78 3.79 3.79 3.99 4.13 4.3 4.55 4.68
1668.566 4.76 4.92 5.34 5.87 6.23 6.8 7.4 7.83 8.54 9.1
1687.856 9.77 10.79 11.85 13.2 14.9 16.8 19.09 21.96 25.05 28.55
1707.146 31.65 34.28 35.74 36.36 37.2 37.73 36.85 34.71 31.75 28.62
1726.435 26.02 24.07 22.43 21.23 20.21 19.83 19.78 19.09 17.84 16.08
1745.725 14.17 12.74 11.54 10.07 8.72 7.49 6.38 5.66 4.98 4.37
1765.015 3.9 3.56 3.38 3.12 2.86 2.72 2.53 2.49 2.52 2.37
1784.305 2.34 2.312 2.1512 1.9388 1.891 1.9229 1.9455 1.7883 1.7292 1.9209
1803.594 1.8276 1.7876 1.8285 1.794 1.7928 1.7558 1.5778 1.4872 1.636 1.5395
1822.884 1.4663 1.6009 1.5984 1.7101 1.6428 1.5412 1.5068 1.5318 1.7271 1.5835
1842.174 1.35489 1.236 1.137 1.2763 1.41558 1.3492 1.34852 1.39568 1.36124 1.37409
1861.464 1.3293 1.2459 1.2409 1.134 1.09 1.207 1.2638 1.2496 1.183 1.145
1880.754 1.2506 1.35941 1.233 1.167 1.5199 1.6232 1.527 1.4615 1.36703 1.5119
1900.043 1.4622 1.3029 1.2977 1.4544 1.34816 1.164 1.38823 1.5379 1.4474 1.205
1919.333 1.066 1.263 1.40547 1.489 1.6247 1.43346 1.38355 1.4634 1.39066 1.37009
1938.623 1.2898 1.148 1.108 1.115 0.949 1.045 1.211 1.098 1.161 1.236
1957.913 1.2714 1.2724 1.197 1.119 1.048 1.047 1.03 1.091 1.2823 1.215
1977.202 1.005 1.11 1.208 1.142 1.189 1.156 1.158 1.077 0.996 1.063
1996.492 1.074 1.019 1.038 1.154 1.124 1.206 1.159 0.913 0.834 1.027
2015.782 1.074 1.007 1.107 1.09 1.131 1.167 1.073 1.019 1.002 1.176
2035.072 1.2785 1.091 0.91 0.93 1.035 1.2634 1.2847 1.127 1.129 1.124
2054.362 1.184 1.047 0.924 0.953 1.071 1.146 0.978 0.87 0.868 0.905
2073.651 0.956 0.951 1.023 1.026 0.931 1.048 1.14 1.197 1.218 1.044
2092.941 0.979 1.118 1.2551 1.169 1.042 1.007 1.044 1.117 1.066 1.083
2112.231 1.146 0.997 0.941 1.088 1.079 1.024 1.088 1.18 1.087 1.084
2131.521 1.064 0.886 1.07 1.082 1.04 1.02 0.824 0.73 0.887 1.099
2150.810 0.953 1.061 1.166 0.923 0.762 0.879 1.007 1.2904 1.3143 0.984
2170.100 0.855 0.838 0.963 0.938 0.971 1.202 1.127 0.896 0.912 0.99
2189.390 0.968 0.84 1.035 1.068 0.897 1.115 1.196 1.1 1.167 1.2799
2208.680 1.21 0.961 0.745 0.721 0.82 0.825 0.754 0.605 0.555 0.701
2227.970 0.75 0.73 0.764 0.783 0.701 0.755 0.863 0.86 0.852 1.086
2247.259 1.13 1.028 0.92 0.71 0.831 0.93 0.925 0.828 0.933 1.107
2266.549 1.04 1.011 1.124 1.209 1.09 0.877 0.785 0.907 0.889 0.931
2285.839 0.785 0.616 0.657 0.79 0.823 0.662 0.771 0.787 0.728 0.916
2305.129 1.034 0.786 0.683 1.023 1.121 0.646 0.55 0.923 0.941 0.858
2324.418 0.774 0.736 0.929 0.903 0.802 0.82 0.81 0.783 0.77 0.648
2343.708 0.632 0.811 0.926 0.825 0.643 0.709 0.944 1.112 0.87 0.57
2362.998 0.635 0.768 0.765 0.817 0.667 0.622 0.933 0.919 0.848 0.808
2382.288 0.702 0.626 0.589 0.477 0.636 0.938 0.955 1.072 1.134 0.935
2401.578 1.049 1.216 0.797 0.575 0.955 1.199 1.218 0.928 0.822 1.03
2420.867 1.043 1.019 0.726 0.813 0.865 0.668 0.783 0.799 0.721 0.91
2440.157 1.13 0.75 0.608 1.036 1.048 0.886 0.687 0.638 0.791 0.784
2459.447 0.788 0.971 0.961 0.824 1.083 1.148 1.037 1.08 0.987 1.001
2478.737 0.885 0.604 0.669 0.799 0.906 1.035 0.806 0.631 0.835 0.85
2498.026 0.941 1.022 0.969 1.027 0.928 0.825 0.806 0.839 0.861 0.617
2517.316 0.625 0.866 0.712 0.817 0.81 0.574 0.654 0.709 0.924 0.826
2536.606 0.811 1.203 1.2999 0.979 0.783 0.902 0.868 0.904 0.852 0.876
2555.896 1.09 1.011 0.719 0.562 0.556 0.656 0.939 1 0.794 0.778
2575.186 0.915 0.75 0.603 0.693 0.783 0.934 0.84 0.537 0.689 0.624
2594.475 0.348 0.643 0.605 0.33 0.53 0.669 0.825 0.997 0.77 0.734
2613.765 1.086 1.036 0.787 0.895 0.795 0.427 0.481 0.691 0.943 1.039
2633.055 0.636 0.445 0.404 0.706 1.11 1.002 0.704 0.629 0.472 0.33
2652.345 0.632 0.851 0.683 0.705 0.815 0.89 0.813 0.8 0.943 0.898
2671.634 0.868 0.724 0.713 0.807 0.966 1.014 0.656 0.524 0.841 1.147
2690.924 1.2581 0.889 0.482 0.655 0.843 0.746 0.728 0.996 0.866 0.28
2710.214 0.12 0.12 0.347 0.798 0.893 0.743 0.743 0.854 0.876 0.828
2729.504 1.03 1.024 0.765 0.75 0.897 1.123 0.751 0.531 0.895 0.845
2748.794 0.557 0.475 0.604 0.717 0.525 0.627 0.977 0.699 0.419 0.79
2768.083 0.932 0.805 0.829 0.59 0.523 0.662 0.563 0.578 0.825 0.761
2787.373 0.537 0.457 0.599 1.184 1.196 0.742 0.648 0.795 0.931 0.756
2806.663 0.34 0.495 0.826 0.79 0.731 0.845 0.992 0.832 0.828 0.693
2825.953 0.563 0.393 0.473 0.65 0.635 0.692 0.7 0.815 0.911 0.773
2845.242 0.537 0.561 0.649 0.812 0.86 0.806 0.778 0.899 0.917 0.452
2864.532 0.33 0.32 0.439 0.729 0.665 0.449 0.551 0.777 0.979 1.139
2883.822 0.914 0.761 0.715 0.641 0.407 0.2 0.31 0.709 0.915 1.023
2903.112 1.011 0.633 0.448 0.503 0.792 0.758 0.427 0.491 0.405 0.05
2922.401 0 0.481 1.049 1.042 0.653 0.534 0.759 1.005 1.071 0.807
2941.691 0.852 1.064 0.558 0.415 0.762 0.392 0.452 0.552 0.46 0.641
2960.981 0.32 0.413 0.811 0.851 0.671 0.538 0.722 0.8 0.706 0.647
2980.271 0.718 0.803 0.967 0.769 0.412 0.497 0.68 0.809 0.494 0.568
2999.561 0.769 0.532 0.438 0.395 0.508 0.889 0.891 0.794 0.683 0.367
3018.850 0.16 0.685 1.075 0.78 0.847 0.84 0.818 1.138 1.214 1.085
3038.140 1.067 0.599 0.545 0.687 0.602 0.76 0.579 0.952 1.022 0.532
3057.430 0.507 0.749 1.045 0.989 1.153 1.2887 0.839 0.777 0.946 0.972
3076.720 1.025 0.851 1.123 1.33412 1.39451 1.3177 0.885 0.702 1.045 0.875
3096.009 0.759 1.158 1.031 1.15 1.42152 1.009 0.825 1.034 1.116 1.40525
3115.299 0.974 0.468 0.32 0.5 0.937 1.129 1.025 0.59 0.563 0.816
3134.589 0.576 0.701 0.972 1.182 1.14 0.898 1.134 1.2605 1.207 0.881
3153.879 1.11 1.225 1.119 0.985 0.71 1.2619 1.163 0.625 0.969 0.931
3173.169 0.431 0.4 0.655 0.762 0.624 0.888 1.131 0.466 0.411 0.986
3192.458 0.732 0.457 0.872 0.84 0.622 0.66 0.584 0.427 0.7 1.3225
3211.748 1.067 0.738 0.573 0.818 0.932 0.891 1.203 0.764 0.597 1.021
3231.038 1.188 0.948 1.003 1.151 1.058 1.002 0.948 0.736 0.694 0.724
3250.328 0.726 0.849 1.3562 1.9815 1.3112 0.935 1.017 0.688 0.902 1.049
3269.617 1.056 0.889 0.687 1.065 1.213 0.551 0.67 0.936 0.723 0.69
3288.907 0.791 1.046 0.853 0.431 0.675 0.906 0.9 1.2409 1.41242 1.191
3308.197 1.174 1.34232 0.526 0.08 0.711 1.22 0.913 0.562 1.044 1.088
3327.487 1.008 1.2848 1.327 1.107 0.34 0.25 0.498 0.3 0.585 1.117
3346.777 1.065 0.765 0.915 0.391 0.517 1.5646 1.3017 1.37933 1.7169 1.5076
3366.066 1.7058 1.4485 1.43256 1.7253 1.4957 1.164 1.24 1.4973 1.37492 1.259
3385.356 1.5814 1.4596 1.228 1.8871 2.42 2.47 2.49 2.59 2.65 2.48
3404.646 2.47 3.03 2.98 3.23 3.42 3.21 3.06 3.03 3.72 4.47
3423.936 4.76 4.73 4.78 4.7 5.16 5.4 4.59 4.53 4.6 3.82
3443.225 3.38 3.07 2.86 2.61 2.0488 1.6947 1.6392 1.7037 1.7603 1.9623
3462.515 2.1369 1.43783 1.21 1.4847 1.4545 0.83 0.345 0.995 1.43263 1.7478
3481.805 1.7844 1.6545 1.6279 1.6661 1.6651 1.4482 1.5034 1.6524 1.9707 2.2725
3501.095 2.48 2.83 2.64 2.5 2.53 2.0797 2.194 2.46 2.47 2.64
3520.385 2.7 3.46 3.69 3.67 4.09 4.08 4.06 4.21 4.53 5.18
3539.674 5.36 5.39 5.84 6.38 7.04 7.44 7.91 7.7 7.49 7.17
3558.964 6.02 5.21 4.45 3.29 3.02 2.63 2.0677 1.9273 1.7742 1.9099
3578.254 1.6959 1.21 1.067 1.075 1.069 0.802 0.493 0.999 0.963 1.232
3597.544 1.9221 1.42757 1.09 0.897 0.714 0.737 0.576 0.735 1.155 0.905
3616.833 0.57 0.67 0.659 1.114 1.148 0.968 1.034 0.954 1.076 1.4901
3636.123 1.6379 1.34989 1.35544 1.218 1.054 1.184 1.33518 1.2645 0.877 0.578
3655.413 1.149 1.5553 1.2718 1.34783 1.2557 0.769 0.617 1.098 1.34234 0.835
3674.703 0.448 0.881 1.032 1.068 1.058 0.858 0.953 1.221 1.164 0.711
3693.993 1.006 1.43704 1.5256 1.5154 0.888 0.362 0.403 0.731 0.776 1.156
3713.282 1.36199 0.988 1.035 1.155 1.111 0.962 1.098 1.03 1.003 1.2612
3732.572 0.962 0.642 0.883 0.689 0.501 0.913 1.2993 1.2921 1.027 0.863
3751.862 1.196 1.41737 1.36157 1.081 1.016 1.247 0.947 0.86 1.4597 1.4461
3771.152 0.731 0.658 1.075 1.003 0.962 1.195 1.4861 1.6078 1.2664 0.829
3790.441 0.615 1.064 0.708 0.21 0.886 1.6492 1.34486 0.547 0.29 0.434
3809.731 0.27 0.426 1.109 1.168 0.812 0.733 1.043 1.007 0.714 1.232
3829.021 1.4889 1.095 0.977 0.778 0.735 0.998 0.997 0.623 0.485 1.179
3848.311 1.13 0.447 0.866 1.319 1.062 0.778 0.676 0.541 0.803 1.178
3867.601 1.119 0.667 0.766 1.234 0.951 0.665 0.729 1.223 1.231 0.699
3886.890 1.074 1.237 0.635 0.595 1.168 1.049 1.147 1.40524 1.105 1.065
3906.180 1.07 1.077 0.889 0.713 0.829 0.777 0.458 0.621 0.65 0.31
3925.470 0.516 1.024 1.42508 1.35513 1.035 0.785 0.799 0.977 1.082 1.228
3944.760 1.33482 0.838 0.51 0.75 1.5693 1.148 0.542 0.89 1.119 1.34593
3964.049 1.39729 1.215 0.963 0.933 0.714 0.786 1.3664 1.3008 1.048 1.6731
3983.339 1.9736 1.328 0.54 1.004 1.6485 1.064 0.693 1.2961 1.2865 0.69
##END=
