##TITLE=Terbutryn
##JCAMP-DX=4.24
##DATA TYPE=INFRARED SPECTRUM
##ORIGIN=NIST Mass Spectrometry Data Center
##OWNER=NIST Standard Reference Data Program
Collection (C) 2018 copyright by the U.S. Secretary of Commerce
on behalf of the United States of America. All rights reserved.
##CAS REGISTRY NO=886-50-0
##MOLFORM=C 10 H 19 N 5 S
##$NIST SOURCE=MSDC-IR
##SPECTROMETER/DATA SYSTEM=HP-GC/MS/IRD
##STATE=gas
##XUNITS=1/CM
##YUNITS=ABSORBANCE
##XFACTOR=1.0
##YFACTOR=0.000063200
##DELTAX=4.0
##FIRSTX=550.0
##LASTX=3846.0
##FIRSTY=0.010175
##MAXX=3846
##MINX=550
##MAXY=0.632
##MINY=0
##NPOINTS=825
##XYDATA=(X++(Y..Y))
550.0 161 113 76 65 53 46 43 39 36 34
590.0 33 30 28 26 23 20 18 16 14 14
630.0 12 11 9 7 5 2 3 7 14 22
670.0 24 18 11 7 5 7 11 16 21 25
710.0 25 24 21 18 16 16 14 11 8 6
750.0 6 8 13 22 31 38 40 39 37 36
790.0 41 55 84 144 236 336 348 254 153 86
830.0 61 54 55 60 71 85 105 130 152 167
870.0 172 173 181 193 206 216 221 226 232 237
910.0 233 214 186 163 152 153 164 181 203 221
950.0 230 235 243 260 282 300 314 329 346 359
990.0 354 325 280 231 190 162 145 134 129 129
1030.0 135 148 164 184 208 230 238 223 193 158
1070.0 133 120 115 112 110 103 96 93 93 96
1110.0 102 110 122 143 175 223 289 370 444 485
1150.0 479 435 376 321 290 283 301 345 406 477
1190.0 547 612 668 719 783 881 1033 1229 1424 1552
1230.0 1561 1443 1234 990 770 616 531 519 572 684
1270.0 826 936 961 896 797 732 734 793 871 917
1310.0 911 877 861 893 977 1101 1248 1396 1505 1513
1350.0 1404 1270 1256 1421 1689 1855 1810 1624 1427 1317
1390.0 1309 1397 1577 1762 1824 1732 1598 1504 1385 1200
1430.0 1033 973 1020 1139 1309 1505 1669 1741 1730 1725
1470.0 1815 2022 2311 2650 3005 3330 3537 3559 3412 3161
1510.0 2859 2566 2368 2380 2683 3323 4313 5592 7023 8362
1550.0 9415 10000 9934 9207 8076 6825 5618 4418 3309 2389
1590.0 1727 1292 1003 806 663 553 470 406 356 314
1630.0 280 251 226 205 188 175 163 151 140 132
1670.0 124 117 111 107 102 97 92 87 81 74
1710.0 69 64 59 54 51 48 45 43 40 37
1750.0 35 34 34 33 33 32 32 31 30 29
1790.0 29 26 27 26 27 28 29 30 32 34
1830.0 35 35 34 32 31 29 28 27 25 24
1870.0 23 22 21 19 21 19 18 19 18 16
1910.0 15 14 14 13 12 12 11 10 9 9
1950.0 8 7 6 4 3 4 3 2 3 4
1990.0 3 4 3 4 5 4 5 4 5 6
2030.0 5 6 5 6 5 4 3 2 3 2
2070.0 2 3 3 4 5 4 5 6 6 5
2110.0 6 5 6 6 5 4 4 3 3 2
2150.0 3 2 1 2 1 2 1 2 3 2
2190.0 3 2 2 3 2 3 1 3 4 4
2230.0 6 6 7 8 9 10 11 12 13 14
2270.0 15 16 17 16 17 15 14 13 12 13
2310.0 12 13 14 15 16 17 16 16 17 18
2350.0 19 20 21 23 22 23 22 21 20 19
2390.0 18 17 17 18 17 16 17 16 17 18
2430.0 17 18 19 20 22 23 24 25 26 27
2470.0 27 28 27 28 29 30 31 32 33 33
2510.0 32 30 28 26 24 23 21 20 19 18
2550.0 17 16 15 14 13 12 13 12 13 13
2590.0 12 13 12 11 11 10 10 9 9 10
2630.0 9 8 9 8 9 8 9 10 9 11
2670.0 10 11 12 13 15 14 15 16 17 18
2710.0 20 23 26 28 28 27 26 26 26 27
2750.0 28 28 29 31 31 32 33 34 35 35
2790.0 36 36 37 39 40 44 48 52 55 60
2830.0 67 74 81 89 98 109 123 141 167 200
2870.0 240 284 329 364 381 382 377 373 380 398
2910.0 427 465 510 570 653 780 932 1011 954 804
2950.0 671 620 654 772 940 1061 1094 1096 1036 870
2990.0 653 500 445 410 352 270 200 152 120 97
3030.0 81 71 62 54 49 45 42 39 37 36
3070.0 36 35 34 35 35 38 39 41 42 43
3110.0 42 41 40 39 36 35 31 28 26 24
3150.0 22 21 18 16 15 16 15 14 14 15
3190.0 14 14 13 12 13 11 10 9 9 8
3230.0 7 8 8 7 8 7 6 5 4 3
3270.0 3 2 1 0 1 0 1 0 1 0
3310.0 0 0 0 1 2 1 0 0 0 1
3350.0 2 3 3 4 3 3 4 4 6 7
3390.0 9 11 14 18 24 33 46 64 91 127
3430.0 172 229 289 347 387 408 414 407 380 327
3470.0 252 176 117 76 52 40 31 26 22 20
3510.0 17 14 12 10 9 9 7 7 6 6
3550.0 6 5 4 3 3 2 3 2 3 2
3590.0 3 2 2 3 2 3 2 3 2 3
3630.0 2 1 2 3 2 1 2 1 1 2
3670.0 1 2 3 2 3 2 3 3 2 1
3710.0 2 3 3 3 4 3 4 3 4 3
3750.0 4 3 4 3 4 3 4 3 3 4
3790.0 3 4 4 3 4 4 3 4 5 5
3830.0 5 6 5 4 5
##END=
