##TITLE=3,5-Bis(trifluoromethyl)phenylhydrazin
##JCAMP-DX=4.24
##DATA TYPE=INFRARED SPECTRUM
##ORIGIN=EPA-IR VAPOR PHASE LIBRARY
##OWNER=SRD/NIST
Collection (C) 2018 copyright by the U.S. Secretary of Commerce
on behalf of the United States of America. All rights reserved.
##CAS REGISTRY NO=886-35-1
##MOLFORM=C 8 H 6 F 6 N 2
##$NIST SOURCE=MSDC-IR
##STATE=gas
##XUNITS=1/CM
##YUNITS=ABSORBANCE
##XFACTOR=1.
##YFACTOR=0.001
##DELTAX=1.92898
##FIRSTX=549.8
##LASTX=4000.7
##FIRSTY=32.85
##MAXX=4000.7
##MINX=549.759
##MAXY=1.2131
##MINY=0
##NPOINTS=1790
##XYDATA=(X++(Y..Y))
549.759 32.85 31.45 30.05 29.37 28.51 27.32 25.98 25.11 24.51 23.2
569.049 21.97 21.42 20.8 20.25 20.09 19.94 19.54 19.45 19.28 19.26
588.339 19.56 19.76 20.35 20.87 21.58 22.97 24.67 26.4 27.47 28.19
607.628 29.19 29.98 30.04 29.98 29.7 29.03 28.33 27.36 26.84 26.21
626.918 25.64 25.4 24.19 23.18 22.73 22.7 23.13 23.46 23.38 23.49
646.208 24.11 25.2 26.42 27.49 28.98 30.54 32.42 34.44 36.33 38.21
665.498 40.46 43.22 46.77 52.29 62.28 82.67 117.52 157.46 178.87 188.26
684.787 189.64 176.28 153.42 118.81 91.81 82.84 84.63 91.73 100.29 104.1
704.077 98.22 88.72 81.8 75.5 69.23 64.34 61.29 59.98 60.06 61.42
723.367 62.64 62.65 60.85 57.03 52.2 46.44 39.43 32.15 26.33 22.43
742.657 19.97 18.98 18.45 18.33 18.63 19.08 19.98 21.04 21.74 22.17
761.947 22.78 23.2 23.72 24.39 25.09 25.59 25.75 26.38 27.06 27.57
781.236 28.6 29.63 30.08 30.97 32.24 33.76 35.16 36.58 38.48 40.42
800.526 42.27 44.57 47.33 50.07 53.23 56.84 60.69 64.18 67.47 70.48
819.816 72.66 74.28 75.89 78.07 80.6 83.53 87.49 92.36 97.95 103.57
839.106 107.57 109.38 109.32 107.43 103.32 97.65 91.91 87.19 83.97 82.3
858.395 83.64 87.78 94.37 104.22 116.76 130.35 142.59 152.75 159.41 159.21
877.685 149.53 131.56 111.46 94.04 79.17 67.27 58.36 52.14 48.73 46.63
896.975 45.29 44.22 42.49 40.21 38.09 36.49 35.04 33.58 32.53 32.12
916.265 31.98 31.92 31.94 31.77 31.84 32.21 32.03 31 30.27 29.39
935.555 27.65 25.92 24.61 23.33 21.7 20.61 19.49 18.22 16.84 15.44
954.844 14.5 13.73 13 12.17 11.72 11.56 11.45 11.15 11.63 12.28
974.134 12.23 12.56 13.25 13.81 14.4 15.26 16.64 18.62 20.96 23.88
993.424 26.65 28.18 28.72 28.66 27.31 24.75 21.37 17.9 15.25 13.42
1012.714 12.27 11.28 10.48 9.63 8.89 8.74 8.35 8.38 8.3 8.17
1032.003 8.35 8.56 8.53 8.28 8.15 8.1 8.52 9.09 9.66 9.49
1051.293 9.76 10.3 9.99 10.34 11.69 11.98 12.26 13.28 14.59 16.21
1070.583 16.51 16.49 17.88 20.76 24.05 27.01 31.03 37.52 45.62 54.11
1089.873 62.43 70.8 77.49 82.82 87.57 89.59 87.66 84.17 81.2 76.65
1109.163 72.8 69.82 68.33 69.77 71.45 73.53 77.81 84.92 94.74 109.59
1128.452 129.74 157.17 196.46 248.29 315.5 402.59 509.22 631.14 766.64 905.04
1147.742 1024.78 1106.1 1114.06 1043.35 923.71 785.36 638.15 498.71 391.1 328.44
1167.032 312.71 338.31 397.34 484.12 591.94 700.44 793.22 868.83 906.28 885.97
1186.322 821.46 730.94 627.08 515.13 401.74 300.76 225.31 176.85 148.17 130.37
1205.611 119.77 113.76 107.78 101.16 95.87 90.18 83.38 78.48 76.13 74.43
1224.901 73.32 74.45 75.87 77.19 79.46 82.8 84.96 86.33 88.02 89.19
1244.191 91.02 93.4 96.2 100.51 106.9 116.91 132.25 152.69 178.26 211.2
1263.481 253.56 310.42 392.38 510.88 675.11 871.26 1052.05 1173.12 1213.1 1185.6
1282.771 1103.74 948.78 706.08 450.44 271.38 176.11 128.28 100.57 82.41 69.3
1302.060 59.84 53.1 48.22 44.7 42.32 40.81 39.91 39.5 39.55 39.6
1321.350 39.18 38.61 37.67 36.34 35.01 33.68 32.67 32.03 31.84 32.25
1340.640 33 34.12 35.74 37.61 39.92 43.15 47.19 52.35 59.3 68.31
1359.930 79.75 94.31 112.65 135.28 163.57 198.38 239.68 286.25 335.49 382.29
1379.219 421.01 446.1 452.62 440.07 408.98 362.8 307.98 252.42 202.56 161.78
1398.509 131.13 108.92 93.49 83.07 76.47 72.8 71.22 71.28 72.45 73.97
1417.799 75.46 76.64 76.9 75.5 72.54 68.35 62.86 56.88 50.93 45.33
1437.089 40.9 37.55 35.21 34.4 35.25 37.71 41.96 48.35 57.33 68.41
1456.378 81.37 95.29 108.15 118.67 125.09 126.72 123.33 115.12 103.14 89.08
1475.668 75.16 62.83 52.8 44.92 39.01 34.75 31.96 30.44 29.96 30.31
1494.958 31.29 32.54 33.54 34.11 34 33.23 31.75 29.64 27.11 24.51
1514.248 22.2 20.06 18.3 17.15 16.31 15.65 15.05 14.72 14.56 14.24
1533.538 13.73 13.26 13.12 13.1 13.12 13.22 13.44 13.63 13.66 13.84
1552.827 14.09 14.25 14.33 14.35 14.4 14.71 15.12 15.47 16.12 17.06
1572.117 17.92 18.73 19.3 19.44 19.59 19.84 20.13 20.56 21.05 21.92
1591.407 23.3 25.36 28.05 31.61 36.11 41.56 48.35 56.75 66.68 77.88
1610.697 89.87 101.16 110.76 117.85 121.02 120.2 115.83 108.24 99.18 90.23
1629.986 81.86 74.69 69.05 64.71 61.15 57.69 54.25 50.82 47.11 43.2
1649.276 39.28 35.4 31.73 28.46 25.47 22.95 20.84 18.93 17.25 16.04
1668.566 14.83 13.73 12.94 12.06 11.28 10.67 10.26 9.76 9.22 9.12
1687.856 9.05 8.84 8.67 8.65 8.67 8.45 8.28 8.27 8.18 8.05
1707.146 7.75 7.57 7.58 7.63 7.78 7.83 7.87 7.97 8.11 8.36
1726.435 8.7 9.08 9.61 10.16 10.9 11.77 12.77 14.13 15.41 16.52
1745.725 17.61 18.37 18.62 18.38 17.67 16.72 15.46 14.01 12.66 11.46
1765.015 10.49 9.7 9.03 8.47 8.2 7.93 7.66 7.52 7.44 7.34
1784.305 7.16 7.1 7.07 6.94 6.86 6.7 6.56 6.36 5.99 5.66
1803.594 5.4 5.24 5.15 5.13 4.97 4.83 4.85 4.87 4.83 4.74
1822.884 4.63 4.54 4.36 4.13 3.96 3.87 3.82 3.76 3.54 3.3
1842.174 3.23 3.15 3.1 3.37 3.49 3.39 3.45 3.45 3.47 3.52
1861.464 3.51 3.52 3.54 3.55 3.53 3.51 3.61 3.75 3.76 3.73
1880.754 3.7 3.8 3.8 3.68 3.73 3.77 3.59 3.53 3.66 3.71
1900.043 3.73 3.74 3.77 3.73 3.75 3.83 3.76 3.73 3.78 3.77
1919.333 3.68 3.62 3.6 3.55 3.49 3.43 3.45 3.48 3.46 3.32
1938.623 3.31 3.47 3.52 3.42 3.41 3.34 3.08 2.87 2.94 2.94
1957.913 2.77 2.8 2.9 2.86 2.78 2.76 2.88 2.87 2.91 3.14
1977.202 3.32 3.45 3.52 3.71 3.9 3.94 3.93 4.05 4.11 4.09
1996.492 4.04 3.9 3.84 3.74 3.66 3.67 3.74 3.83 3.86 3.8
2015.782 3.68 3.61 3.5 3.4 3.38 3.29 3.15 2.99 2.94 2.87
2035.072 2.66 2.56 2.37 2.07 1.93 1.98 2.06 1.96 1.9 2.01
2054.362 2.01 2 2 1.95 1.92 1.93 1.94 1.89 2.02 2.18
2073.651 2.2 2.2 2.27 2.34 2.37 2.44 2.5 2.54 2.51 2.64
2092.941 2.67 2.61 2.69 2.82 2.91 2.93 2.99 3.03 3.02 3
2112.231 3.04 3.01 3.03 2.99 2.94 2.93 2.97 2.9 2.58 2.49
2131.521 2.44 2.46 2.5 2.28 2.05 2.07 2.19 2.13 2.13 2.1
2150.810 2.06 2.09 2.13 2.24 2.16 2.02 1.98 2.04 2.07 2.06
2170.100 2.16 2.25 2.23 2.12 2 2.02 2.18 2.14 2.16 2.2
2189.390 2.29 2.33 2.3 2.42 2.51 2.49 2.45 2.61 2.72 2.78
2208.680 2.92 3.07 3.23 3.27 3.29 3.28 3.29 3.39 3.65 3.81
2227.970 3.73 3.75 3.72 3.8 3.87 3.8 3.81 3.84 3.84 3.82
2247.259 3.76 3.61 3.45 3.54 3.61 3.62 3.71 3.78 4.03 4.27
2266.549 4.31 4.3 4.4 4.4 4.39 4.46 4.54 4.69 4.74 4.71
2285.839 4.68 4.64 4.48 4.38 4.32 4.11 3.9 3.77 3.58 3.35
2305.129 3.21 3.23 3.3 3.22 3.14 3.19 3.11 2.95 2.87 2.95
2324.418 3.27 3.36 3.1 3.09 3.23 3.19 3.19 3.22 3.2 3.19
2343.708 3.21 3.25 3.3 3.23 3.3 3.38 3.22 3.17 3 2.94
2362.998 3.07 2.98 2.87 2.9 2.85 2.72 2.65 2.67 2.64 2.62
2382.288 2.62 2.51 2.34 2.36 2.42 2.33 2.27 2.19 2.13 2.16
2401.578 2.07 2.01 2.14 2.23 2.22 2.24 2.31 2.34 2.39 2.44
2420.867 2.41 2.47 2.61 2.64 2.64 2.37 2.24 2.29 2.07 1.95
2440.157 1.84 1.7 1.79 1.86 1.88 1.91 1.9 1.92 1.88 1.84
2459.447 1.8 1.81 1.78 1.71 1.75 1.71 1.58 1.64 1.75 1.57
2478.737 1.46 1.43 1.37 1.34 1.44 1.53 1.56 1.74 1.8 1.91
2498.026 1.98 2.09 2.27 2.25 2.17 2.12 2.2 2.33 2.26 2.34
2517.316 2.38 2.14 2.09 2.04 1.98 2.07 1.87 1.78 1.87 1.91
2536.606 2.01 1.93 1.91 1.95 1.82 1.86 2.14 2.32 2.32 2.35
2555.896 2.37 2.43 2.61 2.66 2.61 2.57 2.66 2.71 2.52 2.34
2575.186 2.45 2.48 2.5 2.55 2.45 2.5 2.55 2.35 2.14 2.02
2594.475 1.93 1.92 1.84 1.66 1.59 1.74 1.71 1.61 1.62 1.49
2613.765 1.51 1.49 1.44 1.57 1.61 1.62 1.82 2.15 2.17 2.19
2633.055 2.41 2.38 2.35 2.44 2.59 2.7 2.68 2.7 2.67 2.63
2652.345 2.8 2.81 2.65 2.62 2.41 2.25 2.3 2.28 2.13 1.83
2671.634 1.55 1.5 1.4 1.42 1.48 1.17 1.0732 1.17 1.081 1.15
2690.924 1.1352 1.0347 1.18 1.27 1.26 1.2 1.0325 1.097 1.28 1.18
2710.214 1.15 1.1104 1.19 1.39 1.109 0.8886 0.9397 0.8326 0.8196 0.8714
2729.504 0.8881 0.9095 0.7258 0.7355 0.9222 0.8862 0.7044 0.752 0.7795 0.6525
2748.794 0.7652 0.9141 1.0424 1.0298 0.9687 0.9426 0.875 0.8135 0.8452 0.9304
2768.083 0.9316 0.9405 0.9642 1.0817 1.22 1.0731 0.9203 0.9607 0.9848 0.9231
2787.373 0.8531 0.9964 1.21 1.28 1.063 1.0364 1.34 1.41 1.27 1.26
2806.663 1.38 1.43 1.36 1.2 1.0579 1.103 1.1034 1.0166 1.0404 1.0217
2825.953 0.9871 1.0038 0.9415 0.8342 0.8773 0.9937 1.0325 1.0599 1.16 1.23
2845.242 1.14 1.0814 1.2 1.43 1.54 1.53 1.37 1.32 1.38 1.53
2864.532 1.75 1.66 1.71 1.76 1.64 1.69 1.72 1.76 1.83 1.99
2883.822 2.07 2.03 2.12 2.21 2.14 2.09 2.04 2.12 2.07 1.81
2903.112 1.83 2.05 2.22 2.11 1.97 2.17 2.25 2.16 2.12 2.27
2922.401 2.42 2.32 2.21 2.17 2.24 2 1.88 1.86 1.74 1.76
2941.691 1.64 1.61 1.49 1.36 1.36 1.22 1.15 1.18 1.14 1.0494
2960.981 0.9862 1.0488 1.1198 1.25 1.23 1.1339 1.17 1.24 1.42 1.43
2980.271 1.5 1.41 1.3 1.42 1.52 1.73 2.07 1.93 1.68 1.87
2999.561 1.99 1.83 1.73 1.74 1.72 1.66 1.71 1.84 1.68 1.64
3018.850 1.7 1.74 1.7 1.69 1.85 1.74 1.76 2.05 2.39 2.73
3038.140 2.85 3.16 3.79 4.38 5 5.4 5.8 6.24 6.35 6.34
3057.430 5.88 5.25 4.88 4.39 3.8 3.26 2.99 2.88 2.69 2.87
3076.720 2.86 2.75 3.12 3.43 3.55 3.59 3.7 3.68 3.7 3.64
3096.009 3.52 3.4 3.13 2.97 2.73 2.5 2.39 1.99 1.71 1.85
3115.299 1.8 1.38 1.34 1.55 1.39 1.3 1.23 1.28 1.28 1.0032
3134.589 0.7086 0.7365 0.8726 0.947 1.1226 1.1047 0.8186 0.8441 0.8895 0.8433
3153.879 0.7588 0.6565 0.7853 0.7975 0.7145 0.5498 0.5637 0.7637 0.7761 0.7945
3173.169 0.7608 0.82 0.9837 0.9104 0.8087 0.7106 0.8704 1.0854 1.0441 0.9325
3192.458 0.8769 1.0536 1.0631 1.0351 1.24 1.14 1.19 1.35 1.0708 1.0564
3211.748 1.19 1.0392 1.0264 1.22 1.52 1.54 1.29 1.32 1.24 1.23
3231.038 1.57 1.58 1.38 1.31 1.43 1.65 1.81 1.7 1.7 1.55
3250.328 1.52 1.76 1.56 1.31 1.35 1.41 1.37 1.42 1.47 1.46
3269.617 1.4 1.49 1.54 1.53 1.51 1.43 1.65 1.69 1.45 1.54
3288.907 1.79 1.98 2.24 2.21 2.19 2.36 2.55 2.61 2.84 3.08
3308.197 3.38 3.85 3.74 3.63 3.89 3.87 3.72 3.49 3.25 3.07
3327.487 2.85 2.93 2.46 2.11 2.18 1.73 1.6 1.75 1.86 2
3346.777 2.2 2.05 1.72 2.1 2.31 2.33 2.66 3.12 3.56 4.11
3366.066 4.94 5.7 6.72 8.1 9.64 11.47 13.14 14.41 15.57 16.03
3385.356 15.97 15.63 14.91 14.1 12.8 11.46 10.42 9.95 9.81 9.49
3404.646 9.53 9.66 9.87 10.36 10.74 11.2 11.76 12.75 13.97 15.36
3423.936 17.13 18.8 20.59 22.64 24.21 25.22 25.76 25.44 24.3 22.59
3443.225 20.46 17.94 15.32 12.98 10.82 9.05 7.83 6.68 5.69 5.03
3462.515 4.65 4.34 4.04 3.85 3.67 3.4 3.16 2.98 2.9 2.87
3481.805 2.64 2.39 2.58 2.53 2.21 2.16 2.08 1.9 1.85 1.83
3501.095 1.89 1.83 1.65 1.53 1.54 1.58 1.62 1.55 1.5 1.43
3520.385 1.2 1.48 1.78 1.78 1.8 1.73 1.6 1.56 1.47 1.39
3539.674 1.43 1.23 1.15 1.33 1.43 1.45 1.26 0.9584 0.7644 1.0844
3558.964 1.26 0.9759 1.1301 1.44 1.18 0.879 0.7645 0.765 0.8837 1.1077
3578.254 1.17 1.0871 0.9554 0.9673 1.25 1.27 1.22 0.9931 0.7512 0.7838
3597.544 0.8954 1.0486 1.0227 0.7509 0.9824 1.17 0.982 0.925 0.7695 0.7288
3616.833 0.7357 0.6652 0.7498 0.7494 0.6754 0.7169 0.8691 1.0011 0.9093 0.9374
3636.123 1.0541 1.0132 0.9354 0.8187 0.7819 0.8587 1.0498 1.0192 0.7721 0.7339
3655.413 0.91 1.0299 0.9342 0.9277 0.8228 0.7317 0.6486 0.5614 0.6884 0.799
3674.703 0.9263 0.6706 0.4039 0.5272 0.5446 0.3608 0.3514 0.6383 0.6527 0.5923
3693.993 0.6607 0.652 0.6824 0.7293 0.6433 0.6333 0.7114 0.5514 0.5117 0.6793
3713.282 0.7553 0.7084 0.5824 0.5117 0.577 0.7926 0.8489 0.7195 0.495 0.6091
3732.572 0.7314 0.6726 0.7469 0.726 0.7339 0.5931 0.8446 0.9657 0.6834 0.5427
3751.862 0.3471 0.2494 0.2454 0.5533 0.741 0.576 0.7544 0.8371 0.6183 0.6238
3771.152 0.6886 0.5525 0.6184 0.5342 0.3126 0.4671 0.4307 0.4538 0.7286 0.8681
3790.441 0.7982 0.5951 0.4948 0.5983 0.5627 0.347 0.3482 0.5348 0.5288 0.2673
3809.731 0.2738 0.4589 0.4409 0.3945 0.369 0.365 0.617 0.714 0.6356 0.6105
3829.021 0.6089 0.6318 0.3826 0.0906 0.2133 0.4056 0.3894 0.5399 0.8727 0.5916
3848.311 0.4862 0.6396 0.3819 0.5708 0.7329 0.6162 0.4846 0.4812 0.4607 0.6398
3867.601 0.8215 0.4407 0.0406 0 0.414 0.7135 0.5128 0.5268 0.7517 0.5295
3886.890 0.4695 0.5544 0.65 0.9076 0.6273 0.0697 0.0944 0.57 0.84 0.7722
3906.180 0.5647 0.4566 0.5002 0.4426 0.4272 0.653 0.6999 0.7191 0.8371 0.8372
3925.470 0.7992 0.7214 0.804 0.8965 0.5998 0.3079 0.22959 0.2618 0.5143 0.7904
3944.760 0.8051 0.5268 0.4684 0.5386 0.642 0.8381 0.5852 0.4443 0.6715 0.6758
3964.049 0.4582 0.16284 0.3834 0.6948 0.6149 0.4203 0.4705 0.6348 0.4587 0.3393
3983.339 0.3183 0.2405 0.3276 0.5586 0.6289 0.582 0.431 0.3227 0.4088 0.4886
##END=
