##TITLE=2-Acetyl-5-cyanothiophene
##JCAMP-DX=4.24
##DATA TYPE=INFRARED SPECTRUM
##ORIGIN=EPA-IR VAPOR PHASE LIBRARY
##OWNER=SRD/NIST
Collection (C) 2018 copyright by the U.S. Secretary of Commerce
on behalf of the United States of America. All rights reserved.
##CAS REGISTRY NO=88653-55-8
##MOLFORM=C 7 H 5 N O S
##$NIST SOURCE=MSDC-IR
##STATE=gas
##XUNITS=1/CM
##YUNITS=ABSORBANCE
##XFACTOR=1.
##YFACTOR=0.001
##DELTAX=1.92898
##FIRSTX=549.8
##LASTX=4000.7
##FIRSTY=2.678
##MAXX=4000.7
##MINX=549.759
##MAXY=0.026218
##MINY=0
##NPOINTS=1790
##XYDATA=(X++(Y..Y))
549.759 2.678 2.558 2.728 2.148 2.258 2.878 3.378 4.528 4.128 2.458
569.049 2.408 3.238 2.458 2.728 2.868 2.718 2.448 1.8437 2.158 2.168
588.339 2.908 3.618 3.678 3.168 2.728 3.328 3.798 3.828 3.258 2.468
607.628 3.088 3.978 4.608 5.308 4.668 3.708 4.248 4.888 4.828 4.088
626.918 4.418 5.148 4.738 4.518 3.778 3.338 3.178 3.168 2.368 1.6598
646.208 2.488 2.758 2.188 1.8201 1.988 2.638 2.768 1.8264 1.6852 2.228
665.498 2.148 1.8944 1.2787 1.4769 2.228 2.238 2.088 2.088 1.781 2.018
684.787 2.188 1.8643 1.4099 1.6685 2.488 2.078 1.3759 1.4489 1.928 2.508
704.077 2.298 1.938 2.118 1.6835 1.5164 1.5327 1.7075 1.6271 1.2412 1.1582
723.367 1.1491 2.098 2.528 2.088 1.4616 0.922025 1.8279 2.228 1.958 2.338
742.657 2.248 2.168 2.308 1.8075 1.1153 1.2156 1.968 2.088 1.4449 1.627
761.947 1.7036 1.5721 1.7037 1.7236 2.128 2.068 1.7772 1.918 2.378 2.448
781.236 2.368 2.478 2.638 2.628 2.438 2.608 3.498 4.028 4.298 4.928
800.526 5.268 6.098 7.108 7.408 6.898 6.368 6.298 5.978 5.868 6.538
819.816 7.128 6.218 5.428 5.928 5.618 4.508 3.648 3.518 3.638 3.628
839.106 3.108 2.738 2.558 2.038 1.948 1.6331 1.7783 2.288 1.978 1.978
858.395 2.238 2.218 1.928 1.716 1.5529 1.6059 1.7721 1.7906 1.6375 1.6239
877.685 2.418 2.548 1.938 1.8317 2.228 2.048 1.4148 1.0726 1.41 1.5877
896.975 1.23 0.97188 1.495 2.038 2.008 1.7271 1.5793 1.7209 1.8395 2.258
916.265 3.028 3.808 3.728 3.638 3.928 3.648 3.338 3.398 3.898 3.728
935.555 3.208 3.428 3.028 2.538 2.488 2.438 2.448 2.578 2.578 2.838
954.844 3.308 3.608 4.008 3.498 2.948 3.298 3.708 3.358 2.888 3.158
974.134 2.798 2.368 2.738 3.188 2.908 2.368 2.638 2.898 2.138 1.978
993.424 2.668 2.818 3.318 3.328 2.658 2.408 2.778 3.578 3.598 3.048
1012.714 2.558 1.998 2.638 3.478 2.748 2.288 2.668 4.298 4.078 3.338
1032.003 4.088 3.548 3.178 2.498 2.038 2.328 2.608 3.338 3.728 2.208
1051.293 1.2906 2.158 1.8714 1.7333 1.4488 1.0384 1.2871 1.8149 2.558 2.738
1070.583 2.488 0.91065 0.238 1.8966 2.138 1.01395 2.388 2.798 1.412 1.928
1089.873 2.418 1.928 1.2742 1.5753 2.198 1.1347 1.5263 3.068 2.588 3.498
1109.163 4.648 3.608 1.5979 0.317 1.8407 2.998 2.648 1.8123 2.208 2.838
1128.452 1.978 1.8504 1.5192 1.1361 1.0227 1.102 2.038 1.8347 0.692 1.1661
1147.742 2.208 2.898 2.938 2.988 2.758 3.478 3.428 1.3468 1.667 2.258
1167.032 2.488 2.898 2.018 1.8246 1.948 2.038 2.028 2.148 3.238 4.438
1186.322 4.788 3.108 1.4035 2.808 5.288 5.878 5.558 4.668 3.998 4.858
1205.611 7.028 8.578 7.658 6.408 5.938 7.558 10.408 11.798 12.828 14.208
1224.901 15.898 18.528 19.118 18.708 20.238 21.468 21.368 20.228 20.318 19.858
1244.191 19.058 20.428 21.918 22.658 23.778 24.718 25.048 25.198 24.188 22.668
1263.481 20.948 17.838 14.678 12.218 9.228 6.748 5.198 4.998 4.998 3.978
1282.771 3.068 2.668 2.918 2.868 3.068 3.188 2.508 2.558 2.478 2.228
1302.060 2.548 2.548 2.508 2.688 3.008 3.268 3.438 3.508 3.798 4.438
1321.350 4.958 5.248 5.448 5.618 5.448 5.058 4.908 4.678 4.578 4.498
1340.640 4.188 3.888 3.598 3.718 4.058 4.418 5.258 6.118 6.768 7.308
1359.930 7.798 8.338 8.468 8.498 8.578 8.258 7.658 7.038 6.198 5.528
1379.219 4.848 4.248 3.878 3.508 3.448 3.288 3.048 2.888 2.758 2.638
1398.509 2.738 2.818 2.808 2.828 2.698 2.808 3.208 3.208 3.298 3.708
1417.799 4.078 4.468 4.828 5.318 5.638 6.188 7.028 7.668 8.098 8.508
1437.089 8.598 8.628 8.638 8.068 7.438 6.768 5.818 4.948 4.298 3.748
1456.378 3.388 3.058 2.698 2.498 2.228 2.148 2.028 1.8507 1.928 1.928
1475.668 1.928 1.958 1.8788 1.8168 1.801 1.8018 1.6433 1.691 1.928 1.998
1494.958 2.288 2.498 2.648 2.778 3.028 3.418 3.598 3.758 4.228 4.548
1514.248 4.678 5.038 4.938 4.638 4.498 4.448 3.798 2.998 3.118 3.008
1533.538 2.628 2.398 2.158 2.068 2.008 1.958 1.8086 1.6402 1.6992 2.148
1552.827 2.558 2.428 1.928 1.891 1.998 2.088 2.038 1.978 2.078 1.4655
1572.117 1.4707 1.7184 1.2976 1.6017 2.268 2.348 2.098 2.148 2.248 2.038
1591.407 2.058 2.148 1.968 2.178 2.188 1.7557 1.918 1.968 1.885 1.968
1610.697 1.6729 1.7757 2.198 2.308 2.028 1.8076 1.8729 2.008 2.038 2.158
1629.986 2.348 2.528 2.728 2.718 2.718 2.848 2.848 2.728 2.878 3.228
1649.276 3.028 2.728 2.628 2.768 2.948 3.128 3.228 3.188 3.408 3.728
1668.566 4.028 4.308 4.648 5.048 5.658 6.668 7.908 9.128 10.788 12.618
1687.856 14.598 16.998 19.528 21.908 23.648 24.538 25.188 26.018 26.218 25.238
1707.146 23.138 20.618 18.068 15.528 12.868 10.608 8.768 7.188 5.898 4.988
1726.435 4.318 3.768 3.498 3.228 3.238 3.278 2.698 2.438 2.408 2.358
1745.725 2.338 2.368 2.718 2.888 2.688 2.558 2.648 2.658 2.498 2.418
1765.015 2.418 2.448 2.398 2.328 2.368 2.278 2.178 2.118 2.098 2.278
1784.305 2.218 2.118 2.118 2.098 2.208 2.078 1.9073 1.8914 1.928 1.8763
1803.594 1.8303 1.9052 1.8134 1.6147 1.6709 1.8656 1.928 2.048 2.068 1.8746
1822.884 1.8256 1.7071 1.4657 1.4463 1.4589 1.4862 1.5317 1.6841 1.8893 1.8676
1842.174 1.8339 1.958 1.918 1.7355 1.856 1.7834 1.7115 1.7891 1.7724 1.6194
1861.464 1.5348 1.6643 1.7102 1.6381 1.5796 1.811 1.8403 1.7297 1.7428 1.6473
1880.754 1.7959 1.8561 1.6274 1.8299 1.988 1.7263 1.7021 1.7131 1.5584 1.2524
1900.043 1.259 1.5231 1.5593 1.6369 1.7135 1.7009 1.717 1.5008 1.4895 1.5396
1919.333 1.4587 1.6268 1.5792 1.4982 1.3188 1.2241 1.4104 1.5684 1.4147 1.1601
1938.623 1.1769 1.287 1.4274 1.3804 1.3447 1.4508 1.3728 1.3555 1.4998 1.3674
1957.913 1.325 1.4466 1.3061 1.0615 1.1848 1.3396 1.1175 1.2039 1.3012 1.3496
1977.202 1.5558 1.5933 1.3744 1.351 1.3813 1.3486 1.4148 1.348 1.3867 1.5757
1996.492 1.5273 1.4037 1.4035 1.3716 1.4431 1.3417 1.2738 1.4345 1.5427 1.3807
2015.782 1.3118 1.2355 0.97706 1.1218 1.3069 1.4491 1.4537 1.2131 1.2767 1.476
2035.072 1.4216 1.3156 1.1811 1.0758 1.2599 1.3594 1.3162 1.3757 1.3839 1.245
2054.362 1.3744 1.4986 1.364 1.226 1.3671 1.4669 1.2038 1.0482 1.2358 1.4347
2073.651 1.4786 1.4615 1.4233 1.468 1.36 1.2674 1.3758 1.3178 1.198 1.4735
2092.941 1.5675 1.3075 1.3128 1.5907 1.6723 1.3803 1.1655 1.1563 1.2168 1.2729
2112.231 1.2838 1.339 1.5751 1.652 1.537 1.256 1.0523 1.2766 1.4586 1.4322
2131.521 1.4879 1.4989 1.5759 1.6018 1.5613 1.4831 1.5174 1.5702 1.4044 1.5346
2150.810 1.4415 1.2651 1.4988 1.5704 1.379 1.2922 1.0246 0.99847 1.4253 1.577
2170.100 1.0616 1.0365 1.417 1.4525 1.2573 1.00364 1.0983 1.2272 1.2479 1.1796
2189.390 1.1707 1.3431 1.5472 1.6074 1.3945 1.2525 1.4356 1.6163 1.4891 1.3791
2208.680 1.6456 1.988 2.058 2.178 2.838 3.078 3.098 3.298 3.548 3.878
2227.970 3.678 3.448 3.418 3.338 3.078 2.928 2.558 2.008 1.7896 1.6216
2247.259 1.4403 1.4352 1.4615 1.4565 1.3495 1.2135 1.2117 1.3532 1.2349 0.98471
2266.549 1.364 1.4272 1.2283 1.2398 1.213 1.3799 1.4357 1.4372 1.5823 1.6599
2285.839 1.8503 1.48 1.2326 1.68 1.7952 1.3074 1.287 1.592 1.4822 1.3441
2305.129 1.4658 1.4292 1.0251 1.2174 1.5557 1.6251 1.5679 1.4906 1.412 1.3017
2324.418 1.3995 1.1096 0.93103 1.3809 1.4822 1.2861 1.2823 1.277 1.2749 1.4808
2343.708 1.4727 1.4957 1.3877 1.1179 1.1778 1.441 1.41 1.2501 1.5101 1.4635
2362.998 1.3502 1.4071 1.2351 1.2836 1.5074 1.7518 1.6413 1.2902 0.97733 0.9009
2382.288 1.1771 1.1208 1.1457 1.1802 1.0341 1.1378 1.5027 1.5826 1.4575 1.2363
2401.578 1.1165 1.4494 1.599 1.5921 1.4364 1.2872 1.2434 1.3885 1.648 1.6249
2420.867 1.3136 1.2763 1.3234 1.1483 1.3153 1.7556 1.7781 1.483 1.3943 1.161
2440.157 1.01179 1.1367 1.2594 1.0411 0.8345 1.3541 1.5922 1.5413 1.5763 1.5386
2459.447 1.708 1.4763 1.1218 0.98563 1.3625 1.5455 1.3905 1.3127 1.456 1.5655
2478.737 1.1714 1.1332 1.442 1.5734 1.5159 1.4476 1.2751 1.2523 1.3986 1.5997
2498.026 1.5537 1.4145 1.2376 0.96806 1.1762 1.4897 1.5785 1.4822 1.1136 1.2179
2517.316 1.0644 0.72 0.9942 1.2685 1.5393 1.4722 1.3019 1.2287 1.01636 1.2186
2536.606 1.7729 1.5379 1.1914 1.2248 1.5162 1.5308 1.32 1.2455 1.1885 1.3
2555.896 1.1832 1.3488 1.2948 1.1292 1.482 1.5433 1.7682 1.8086 1.3099 1.3372
2575.186 1.4651 1.1938 1.1526 1.3654 1.2071 1.0225 0.9958 1.0469 1.1471 1.4522
2594.475 1.3178 1.1176 1.1677 0.91208 1.0375 1.3473 1.5246 1.2793 1.1531 1.4919
2613.765 1.5676 1.8035 1.4958 1.0785 1.285 1.3597 1.3375 1.2637 1.2223 1.3666
2633.055 1.5266 1.1436 0.905 0.826 1.118 1.4291 1.1118 1.2175 1.3515 1.4573
2652.345 1.1276 0.9051 1.0912 1.0229 1.1163 1.048 1.0462 0.91302 0.8675 1.2043
2671.634 1.4085 1.3414 1.2606 1.2806 1.1891 1.1881 1.6944 2.208 2.258 1.6968
2690.924 1.2269 1.1633 1.5601 1.8847 1.451 1.3188 1.1449 1.1137 1.3008 1.183
2710.214 1.3259 1.5863 1.4549 1.0398 0.96152 0.95566 1.223 1.3288 1.2301 1.4101
2729.504 1.275 1.2541 1.3456 1.258 0.96396 1.0274 1.2839 1.2865 1.5128 1.4005
2748.794 1.1942 0.95448 0.694 0.95618 1.102 0.925613 1.0867 1.2177 1.082 1.0889
2768.083 1.3082 1.5229 1.5442 1.7147 1.7786 1.2028 0.924519 0.9048 0.515 0.588
2787.373 0.99106 0.9071 0.8425 1.3952 1.4728 1.2844 1.2613 1.05 0.8408 0.8718
2806.663 1.4544 1.4396 1.2154 1.5423 1.5591 1.5608 1.7501 1.5844 1.2454 1.1201
2825.953 0.8702 0.706 1.0704 1.1761 1.0998 1.1625 1.0379 1.1544 1.1237 1.1864
2845.242 0.98236 0.8812 1.2052 1.0017 0.8737 1.3263 1.8253 1.978 1.626 1.5975
2864.532 1.7199 1.2963 1.3646 1.3158 0.801 1.0314 1.4353 1.4196 1.3252 1.208
2883.822 1.1655 1.2336 1.5046 1.5527 1.3648 1.2569 1.2512 1.2658 1.106 0.927635
2903.112 0.98909 1.2552 1.397 1.2913 1.0779 1.4851 1.5637 1.1098 1.4677 1.8208
2922.401 1.8333 1.5458 1.4714 1.4577 1.2783 0.9997 1.272 1.6137 1.4861 1.4813
2941.691 0.8482 0.59 0.711 1.01279 0.9849 1.2326 1.7484 1.6359 1.5753 1.2807
2960.981 1.4367 1.6825 1.7662 1.5527 1.2575 1.7948 2.048 1.7094 1.8273 2.328
2980.271 2.188 1.5029 1.5927 1.7899 1.5023 1.7691 1.9126 1.314 1.2334 1.4539
2999.561 1.4217 1.7356 1.5644 1.2595 1.5061 2.088 2.148 1.8739 2.128 1.8731
3018.850 1.5361 1.7263 1.8846 1.857 1.7169 1.5407 1.4824 1.1316 1.01369 1.2336
3038.140 1.1993 1.1729 1.2617 0.99234 1.1727 1.3647 1.2331 1.4479 1.3558 1.5423
3057.430 1.3066 0.8789 1.4247 1.7746 1.4588 1.5183 1.6784 1.3468 1.189 1.3432
3076.720 1.5463 1.407 1.1259 1.1677 1.248 1.7249 1.7858 1.6076 1.851 1.5948
3096.009 1.8603 1.575 0.93622 1.1847 1.4843 1.8385 1.3647 1.2148 1.4533 1.0231
3115.299 1.1896 1.2321 0.737 0.807 0.93723 0.739 0.595 0.96573 1.3184 1.527
3134.589 1.4054 0.98698 1.01256 1.2278 1.4264 0.97564 0.9626 1.0597 1.2529 1.7391
3153.879 1.7866 1.6464 1.3212 1.5722 1.3722 0.782 1.3111 1.4868 0.98958 1.0452
3173.169 1.0485 1.3417 1.5046 1.4274 1.2665 0.785 1.2624 1.7437 1.5903 1.5429
3192.458 1.3451 1.1616 1.1913 1.3655 1.9091 1.367 0.742 1.0188 1.2581 1.7339
3211.748 1.798 1.3481 0.919638 0.807 0.697 0.702 1.1031 1.3711 1.4819 1.4953
3231.038 1.1855 0.9841 1.3551 1.7642 1.8744 1.8998 1.5038 1.4446 1.2588 1.4334
3250.328 2.188 2.408 2.038 1.5372 1.6327 1.264 0.649 0.775 0.716 1.1662
3269.617 1.4993 1.608 2.028 1.434 1.2186 1.0898 0.741 0.97259 1.1537 0.94992
3288.907 0.773 1.0836 1.2706 1.0986 1.0465 1.7845 1.8319 1.1093 1.1801 1.1591
3308.197 1.0454 1.0217 0.8712 1.1369 1.6547 1.8509 1.6315 1.1977 1.1861 1.6033
3327.487 1.4607 1.1967 1.1684 0.997 0.8 0.668 0.8294 1.2911 1.369 1.3423
3346.777 0.8812 0.577 0.91524 0.99909 1.1249 1.3442 1.1993 1.5988 2.168 1.8519
3366.066 1.5119 1.5394 1.5458 1.6967 2.038 1.6612 1.2775 1.4472 1.8442 2.128
3385.356 2.438 2.378 2.038 1.8922 1.4989 1.0858 1.6161 1.958 1.6855 1.2356
3404.646 1.01263 1.5133 1.948 1.7408 0.8891 0.311 0.491 0.783 0.927794 1.228
3423.936 1.2578 1.4122 1.6088 1.3412 1.3902 1.5204 0.8303 0.768 1.8166 1.3902
3443.225 0.8 0.8347 0.9031 1.1715 0.727 0.408 0.8382 0.8286 0.603 0.9367
3462.515 0.8608 0.712 0.9052 0.94819 0.441 0 0.253 0.607 1.00334 1.1526
3481.805 0.534 0.231 0.579 0.421 0.415 1.0616 1.477 1.469 1.2827 1.4697
3501.095 1.988 1.3615 0.9422 1.2866 1.6094 1.4459 1.068 1.0191 0.784 1.0247
3520.385 2.128 2.208 1.428 1.2507 0.798 1.3814 1.9179 1.505 1.6023 1.7569
3539.674 1.7259 1.4801 0.97079 0.89 1.3717 1.2443 0.93922 1.6116 1.6284 0.778
3558.964 0.701 1.1782 1.1559 0.759 0.678 0.9056 0.757 1.0403 1.1593 0.926214
3578.254 0.9038 0.73 1.2982 0.9116 1.1866 1.8338 1.2693 0.519 0.49 1.1053
3597.544 1.2061 1.4375 1.3354 1.3672 1.2702 0.738 1.04 1.467 1.1268 1.1769
3616.833 1.2166 1.2232 1.1336 1.4815 2.138 1.5383 1.3024 1.5034 1.7642 1.4816
3636.123 0.622 0.99998 1.0821 0.562 0.549 0.733 1.555 1.2178 0.258 1.0266
3655.413 1.5524 1.1189 0.423 0.677 0.97873 1.0413 1.3659 1.5622 1.938 1.8906
3674.703 1.5287 1.1996 1.0819 1.0741 1.1356 1.1127 1.3568 1.272 0.788 0.576
3693.993 0.307 0.596 0.785 0.93112 1.6688 1.4715 1.4846 2.308 2.458 1.4902
3713.282 0.737 1.1767 1.3177 0.691 0.652 1.2404 1.5027 1.4784 1.8016 1.9155
3732.572 1.5301 1.5056 1.2248 0.8209 0.8795 1.01185 1.3602 1.5798 1.058 1.1771
3751.862 1.6535 1.3992 1.0892 1.5914 1.6775 0.93403 1.078 1.2788 1.2639 1.6038
3771.152 2.048 1.7055 1.3 1.3268 0.759 0.895 1.1768 1.045 0.794 1.4411
3790.441 1.5081 1.0678 1.628 1.4288 1.00879 1.2136 1.1683 0.923425 0.719 0.643
3809.731 1.2193 1.2927 1.0513 0.8202 0.8726 1.6222 1.6487 0.99481 0.9894 0.8282
3829.021 1.1188 1.3718 0.76 0.659 0.647 0.8639 2.208 2.448 1.8716 1.6254
3848.311 1.3298 1.5537 1.8492 1.3924 1.236 2.048 1.6869 1.2254 1.3231 1.3653
3867.601 1.5663 1.3087 1.1885 1.8706 1.8029 1.2794 1.1834 1.1807 1.5073 1.5148
3886.890 1.6811 0.99182 0.648 0.724 0.761 1.1374 1.1256 1.0761 0.99866 1.3012
3906.180 1.4609 1.4986 1.3822 1.563 1.6231 1.4046 1.5824 1.5658 1.61 1.4964
3925.470 1.1119 0.93117 1.0956 1.7407 1.5575 1.4496 1.938 2.028 1.2692 0.2
3944.760 0.046 0.619 0.8537 0.8605 0.682 1.1072 1.4445 1.00518 1.2541 1.545
3964.049 0.8603 0.58 1.0624 1.3317 1.3812 1.0394 1.3631 1.2128 1.3358 2.238
3983.339 2.128 2.028 1.6051 0.734 1.0499 1.3833 1.1357 0.564 0.606 0.91443
##END=
