##TITLE=3-Methyl-1-phenylpyrazolin-5-one
##JCAMP-DX=4.24
##DATA TYPE=INFRARED SPECTRUM
##ORIGIN=NIST Mass Spectrometry Data Center
##OWNER=NIST Standard Reference Data Program
Collection (C) 2018 copyright by the U.S. Secretary of Commerce
on behalf of the United States of America. All rights reserved.
##CAS REGISTRY NO=89-25-8
##MOLFORM=C 10 H 10 N 2 O
##$NIST SOURCE=MSDC-IR
##SPECTROMETER/DATA SYSTEM=HP-GC/MS/IRD
##STATE=gas
##XUNITS=1/CM
##YUNITS=ABSORBANCE
##XFACTOR=1.0
##YFACTOR=0.000001900
##DELTAX=4.0
##FIRSTX=550.0
##LASTX=3846.0
##FIRSTY=0.000215
##MAXX=3846
##MINX=550
##MAXY=0.019
##MINY=0
##NPOINTS=825
##XYDATA=(X++(Y..Y))
550.0 113 299 408 512 605 597 568 496 420 406
590.0 368 381 344 260 200 122 99 111 101 68
630.0 25 40 74 113 131 140 188 227 317 551
670.0 801 1002 1171 1233 1275 1217 980 770 595 463
710.0 344 277 273 273 324 419 583 885 1265 1606
750.0 1823 1737 1404 1042 752 581 519 533 552 512
790.0 378 269 211 158 144 106 77 97 93 51
830.0 56 62 48 69 77 75 65 86 125 174
870.0 217 252 311 370 418 450 499 539 523 460
910.0 354 261 210 166 133 141 162 190 224 266
950.0 284 292 272 205 159 165 180 204 242 303
990.0 348 341 321 276 240 230 217 237 296 386
1030.0 421 433 414 332 276 275 279 301 360 365
1070.0 347 367 460 608 771 897 963 1037 1080 1079
1110.0 1041 964 816 581 406 327 300 302 322 411
1150.0 520 597 724 834 891 949 982 1000 964 858
1190.0 702 498 351 292 257 207 187 195 191 188
1230.0 190 195 196 212 240 262 284 307 328 370
1270.0 435 514 643 831 1122 1586 2283 3205 4161 4802
1310.0 4836 4250 3279 2285 1597 1260 1175 1296 1658 2329
1350.0 3319 4306 4758 4458 3484 2256 1409 1099 1102 1180
1390.0 1224 1206 1108 966 829 641 446 341 314 336
1430.0 386 450 529 603 629 630 618 629 698 771
1470.0 797 792 836 1007 1548 2752 4320 5263 5114 3925
1510.0 2191 1089 702 527 434 395 362 333 308 294
1550.0 311 339 358 415 487 562 688 870 1149 1540
1590.0 1975 2334 2448 2284 1920 1494 1159 957 812 656
1630.0 518 400 319 293 291 275 257 261 250 252
1670.0 272 279 288 303 354 409 476 566 680 841
1710.0 1044 1341 1818 2554 3663 5205 7124 8938 9951 10000
1750.0 8986 6996 4872 3271 2248 1605 1209 957 760 601
1790.0 473 370 292 240 201 165 134 124 131 127
1830.0 121 118 121 115 108 126 150 160 170 179
1870.0 190 204 202 180 149 128 116 104 92 89
1910.0 96 90 83 94 113 142 155 143 136 131
1950.0 136 133 105 77 64 60 59 54 55 51
1990.0 42 37 37 39 36 30 40 43 41 43
2030.0 38 43 41 36 41 43 42 45 43 47
2070.0 54 61 59 43 36 40 45 39 25 37
2110.0 60 49 42 48 49 47 56 59 53 45
2150.0 45 42 46 51 56 64 64 66 61 49
2190.0 50 53 52 60 56 44 43 47 46 36
2230.0 31 36 41 38 46 53 41 44 58 60
2270.0 63 67 62 54 48 39 39 44 40 46
2310.0 56 51 43 32 30 35 52 62 50 52
2350.0 56 61 63 68 66 66 64 45 36 38
2390.0 35 39 33 38 40 36 39 29 31 44
2430.0 50 43 37 36 43 61 66 53 47 53
2470.0 45 45 52 45 44 47 40 33 33 35
2510.0 41 38 41 44 52 67 49 42 43 39
2550.0 40 47 58 56 53 48 52 60 43 31
2590.0 36 34 24 20 12 14 24 37 28 21
2630.0 24 20 29 35 9 0 29 43 48 60
2670.0 45 40 41 30 35 45 39 28 23 34
2710.0 46 26 29 41 37 37 31 34 24 22
2750.0 37 30 32 37 40 46 54 49 46 59
2790.0 72 69 48 53 65 66 54 33 28 50
2830.0 71 72 73 75 80 100 128 170 210 233
2870.0 229 212 189 139 114 127 130 121 111 136
2910.0 157 202 302 452 618 732 768 673 485 356
2950.0 321 330 357 361 300 263 237 181 142 173
2990.0 191 191 207 213 202 174 176 214 235 259
3030.0 312 376 431 510 591 664 735 770 791 859
3070.0 949 984 937 822 680 536 428 344 294 272
3110.0 244 226 167 104 104 114 90 79 82 85
3150.0 69 53 67 73 78 73 64 70 65 69
3190.0 74 76 66 60 63 53 46 62 46 31
3230.0 47 60 53 35 50 70 76 74 58 48
3270.0 34 32 46 51 49 63 82 69 49 54
3310.0 55 50 46 42 52 72 67 51 39 53
3350.0 48 39 54 43 46 54 73 88 61 48
3390.0 47 35 43 62 71 101 94 63 85 103
3430.0 90 79 85 98 116 131 140 162 190 200
3470.0 192 189 185 166 158 152 136 118 115 115
3510.0 117 111 82 69 79 92 83 74 68 59
3550.0 67 66 66 68 68 89 98 78 72 73
3590.0 74 81 103 133 118 77 54 49 77 83
3630.0 77 105 97 94 104 96 120 116 112 117
3670.0 116 87 80 105 95 65 73 92 68 56
3710.0 68 59 50 64 46 51 70 81 122 109
3750.0 88 119 116 94 95 74 76 99 89 87
3790.0 84 90 95 119 129 98 96 106 104 75
3830.0 70 87 102 86 78
##END=
