##TITLE=3-Nitro-4-metoxybenzoic acid
##JCAMP-DX=4.24
##DATA TYPE=INFRARED SPECTRUM
##ORIGIN=EPA-IR VAPOR PHASE LIBRARY
##OWNER=SRD/NIST
Collection (C) 2018 copyright by the U.S. Secretary of Commerce
on behalf of the United States of America. All rights reserved.
##CAS REGISTRY NO=89-41-8
##MOLFORM=C 8 H 7 N O 5
##$NIST SOURCE=MSDC-IR
##STATE=gas
##XUNITS=1/CM
##YUNITS=ABSORBANCE
##XFACTOR=1.
##YFACTOR=0.001
##DELTAX=1.92898
##FIRSTX=549.8
##LASTX=4000.7
##FIRSTY=3.33
##MAXX=4000.7
##MINX=549.759
##MAXY=0.05241
##MINY=0
##NPOINTS=1790
##XYDATA=(X++(Y..Y))
549.759 3.33 3.37 3.38 3.72 3.8 3.73 3.86 3.8 4.01 3.94
569.049 3.46 3.34 3.42 3.37 3.02 2.8 3.07 3.03 2.92 3.09
588.339 3.19 3.52 3.94 4.72 5.55 6.33 7.53 8.87 9.96 10.58
607.628 11.02 11.04 10.43 9.32 7.86 6.47 5.27 4.24 3.5 2.81
626.918 2.37 2.17 1.99 1.81 1.64 1.58 1.51 1.39 1.41 1.52
646.208 1.42 1.4 1.33 1.32 1.57 1.92 2.2 2.41 2.91 3.72
665.498 4.69 5.6 6.35 6.76 6.82 6.62 6.23 5.6 4.66 3.83
684.787 3.18 2.81 2.61 2.4 2.33 2.29 2.42 2.36 2.17 2.13
704.077 2.1 2.1 1.97 1.94 1.93 1.77 1.63 1.5 1.53 1.57
723.367 1.52 1.53 1.56 1.65 1.62 1.65 1.69 1.79 2 2.01
742.657 2.16 2.45 2.7 2.95 3.22 3.73 4.42 5.19 6 6.54
761.947 7.13 7.84 8.07 7.61 6.82 6.09 5.28 4.55 3.84 3.15
781.236 2.75 2.46 2.14 1.94 1.86 1.87 1.93 2.19 2.62 2.96
800.526 3.41 3.72 3.66 3.52 3.73 3.73 3.31 2.96 2.66 2.35
819.816 2.09 1.93 2.02 2.16 2.12 2 1.84 1.77 1.73 1.58
839.106 1.46 1.4 1.33 1.2203 1.1246 1.0502 0.9307 0.8972 0.9738 0.9147
858.395 0.7905 0.7517 0.6748 0.6267 0.6766 0.6704 0.6591 0.7461 0.7217 0.7153
877.685 0.6902 0.7845 0.8724 0.7816 0.7607 0.8893 1.0794 1.0718 1.1641 1.2798
896.975 1.44 1.64 1.74 1.94 2.15 2.23 2.32 2.47 2.4 2.21
916.265 2.2 2.02 1.77 1.79 1.64 1.42 1.31 1.2139 0.9958 0.8483
935.555 0.8765 0.8183 0.7548 0.6329 0.6261 0.8034 0.7462 0.6871 0.8375 0.8242
954.844 0.7518 0.8176 0.9029 1.0098 0.9322 0.9084 1.0957 1.0742 1.1393 1.2644
974.134 1.2078 1.39 1.51 1.4 1.44 1.5 1.58 1.83 2.01 2.16
993.424 2.42 2.53 2.72 3.18 3.56 3.73 4.16 4.68 5.21 5.81
1012.714 6.19 6.54 6.78 6.95 7.1 6.96 6.95 7 6.5 6.01
1032.003 5.73 5.18 4.62 4.3 4.03 3.57 3.17 2.98 2.9 2.75
1051.293 2.53 2.47 2.52 2.54 2.59 2.81 3.06 3.17 3.55 4.14
1070.583 4.65 5.38 6.27 7.21 8.31 9.6 11.37 13.56 15.78 18.22
1089.873 20.81 22.97 24.72 26.39 27.49 28.11 27.99 26.9 25.13 23.15
1109.163 20.96 18.43 15.68 12.82 10.47 8.53 7.27 6.37 5.6 5.23
1128.452 5.05 4.86 4.6 4.44 4.31 4.41 4.67 4.74 4.87 4.98
1147.742 5.09 5.34 5.5 5.54 5.65 5.76 5.94 6.31 6.65 7.13
1167.032 7.88 8.95 10.27 11.9 13.71 15.36 17.15 18.72 19.6 19.89
1186.322 19.52 18.78 17.49 15.7 13.63 11.69 9.97 8.41 7.29 6.57
1205.611 5.79 5.32 5.34 5.04 4.74 4.77 4.7 4.61 4.56 4.29
1224.901 4.2 4.3 4.27 4.29 4.47 4.65 4.86 4.92 5.06 5.54
1244.191 6.04 6.51 6.98 7.54 8.24 9.01 9.72 10.54 11.43 12.23
1263.481 13.2 14.34 15.61 17.04 18.61 20.25 21.92 23.38 24.49 25.1
1282.771 24.88 23.98 22.62 20.82 18.92 17.13 15.46 14.13 13.21 12.55
1302.060 12.07 11.62 11.25 10.99 10.79 10.59 10.46 10.39 10.38 10.41
1321.350 10.39 10.43 10.51 10.58 10.71 10.92 11.22 11.59 12.18 12.99
1340.640 13.92 15.06 16.38 17.75 19.19 20.55 21.64 22.32 22.55 22.34
1359.930 21.58 20.4 18.89 17.22 15.5 13.85 12.32 10.86 9.53 8.33
1379.219 7.26 6.34 5.54 4.89 4.34 3.94 3.66 3.42 3.28 3.24
1398.509 3.2 3.19 3.25 3.3 3.39 3.49 3.57 3.63 3.66 3.66
1417.799 3.62 3.54 3.37 3.19 2.99 2.81 2.7 2.58 2.51 2.54
1437.089 2.62 2.72 2.89 3.05 3.14 3.18 3.17 3.21 3.22 3.13
1456.378 3.11 3.16 3.24 3.39 3.51 3.57 3.57 3.51 3.43 3.37
1475.668 3.3 3.26 3.22 3.3 3.48 3.71 3.96 4.39 4.97 5.58
1494.958 6.24 6.94 7.59 8.16 8.55 8.73 8.74 8.59 8.37 8.12
1514.248 7.92 7.86 7.96 8.19 8.52 8.91 9.35 9.9 10.46 11.03
1533.538 11.7 12.43 13.33 14.54 15.97 17.49 19.09 20.64 21.97 23.11
1552.827 23.67 23.47 22.42 20.56 18.41 16.41 14.44 12.67 11.11 9.85
1572.117 8.93 8.26 7.8 7.48 7.23 7.03 6.9 6.87 6.88 6.97
1591.407 7.14 7.42 7.91 8.6 9.46 10.44 11.57 12.84 14.15 15.46
1610.697 16.66 17.71 18.41 18.63 18.45 17.76 16.58 15.04 13.33 11.5
1629.986 9.66 7.96 6.56 5.39 4.42 3.62 3.03 2.71 2.45 2.17
1649.276 1.96 1.84 1.71 1.6 1.55 1.44 1.37 1.39 1.33 1.256
1668.566 1.2235 1.197 1.1877 1.1681 1.128 1.1003 1.1191 1.1839 1.1931 1.1409
1687.856 1.1414 1.2012 1.2247 1.271 1.37 1.48 1.58 1.72 1.9 2.13
1707.146 2.31 2.51 2.73 2.91 2.96 2.95 2.94 2.91 2.83 2.76
1726.435 2.7 2.56 2.5 2.61 2.82 3.08 3.45 3.98 4.74 5.83
1745.725 7.36 9.64 12.96 17.73 24.09 31.83 40.25 47.1 51.06 52.41
1765.015 51.96 49.58 43.74 34.79 25.02 17.47 12.45 9.09 6.94 5.52
1784.305 4.59 3.97 3.54 3.21 2.97 2.76 2.63 2.55 2.46 2.43
1803.594 2.48 2.53 2.63 2.75 2.8 2.83 2.86 2.78 2.54 2.25
1822.884 2.04 1.83 1.61 1.38 1.2229 1.1 0.9646 0.8694 0.8502 0.8546
1842.174 0.8191 0.7914 0.7499 0.7093 0.6632 0.5975 0.6133 0.6464 0.6016 0.5806
1861.464 0.589 0.5369 0.5238 0.5293 0.5242 0.5757 0.6074 0.6329 0.6599 0.6846
1880.754 0.6949 0.6527 0.6508 0.6942 0.7013 0.6704 0.684 0.7314 0.7847 0.8222
1900.043 0.8176 0.8194 0.825 0.8484 0.8484 0.7929 0.7303 0.7214 0.6856 0.6342
1919.333 0.6667 0.6852 0.6576 0.6193 0.6231 0.6567 0.6175 0.5679 0.5695 0.5156
1938.623 0.5068 0.5668 0.5396 0.4721 0.4683 0.4712 0.4567 0.4974 0.4919 0.4428
1957.913 0.4472 0.4573 0.4451 0.4812 0.486 0.4651 0.4794 0.482 0.4747 0.4798
1977.202 0.4817 0.4747 0.505 0.5034 0.4981 0.5393 0.5275 0.4907 0.5321 0.5904
1996.492 0.5752 0.6077 0.6177 0.5798 0.6223 0.6144 0.5817 0.5703 0.5926 0.6134
2015.782 0.5841 0.5817 0.6306 0.6294 0.6408 0.6273 0.6008 0.6338 0.6237 0.6109
2035.072 0.5773 0.5379 0.5704 0.5626 0.5268 0.5553 0.5943 0.5665 0.551 0.6007
2054.362 0.5922 0.5684 0.5513 0.5299 0.5001 0.4927 0.5105 0.506 0.5213 0.5314
2073.651 0.5482 0.5815 0.5579 0.5368 0.5671 0.5913 0.5577 0.5789 0.6266 0.5777
2092.941 0.5243 0.5065 0.4931 0.4874 0.4543 0.4228 0.4692 0.4999 0.4579 0.4498
2112.231 0.4561 0.4148 0.39572 0.4127 0.4022 0.38387 0.35434 0.3401 0.3679 0.39011
2131.521 0.4013 0.36182 0.32235 0.35016 0.39462 0.39366 0.4109 0.421 0.38918 0.35889
2150.810 0.36212 0.39645 0.37695 0.36635 0.4236 0.4511 0.437 0.4205 0.39653 0.4214
2170.100 0.4239 0.4164 0.4263 0.38442 0.35304 0.37945 0.38917 0.38682 0.38811 0.36404
2189.390 0.34742 0.37915 0.39824 0.38467 0.38383 0.3693 0.38697 0.4335 0.4005 0.36328
2208.680 0.3745 0.36903 0.38819 0.4226 0.4501 0.4121 0.34771 0.35465 0.37246 0.35036
2227.970 0.36916 0.4254 0.4202 0.32417 0.31546 0.36527 0.33886 0.34625 0.374 0.36786
2247.259 0.36566 0.38793 0.37462 0.36724 0.36325 0.35174 0.37365 0.38174 0.39872 0.38033
2266.549 0.37119 0.4065 0.425 0.35353 0.306354 0.34545 0.35258 0.31878 0.300354 0.31237
2285.839 0.35719 0.38299 0.3398 0.39093 0.4263 0.37773 0.34294 0.32749 0.32435 0.33449
2305.129 0.33212 0.2757 0.29735 0.38839 0.38472 0.37755 0.38012 0.35665 0.32185 0.2866
2324.418 0.2799 0.31651 0.35334 0.36796 0.38499 0.36248 0.3585 0.35337 0.4169 0.4497
2343.708 0.38725 0.33326 0.308621 0.33669 0.32778 0.35751 0.4043 0.39746 0.4054 0.35366
2362.998 0.36053 0.4439 0.4416 0.33539 0.2653 0.32486 0.34598 0.31563 0.30107 0.3421
2382.288 0.3834 0.35524 0.3312 0.31696 0.300333 0.3134 0.35457 0.37476 0.35997 0.37339
2401.578 0.37201 0.35749 0.32445 0.32165 0.38764 0.37382 0.3506 0.37999 0.4044 0.4384
2420.867 0.4779 0.4201 0.4179 0.4297 0.39441 0.4634 0.4909 0.4596 0.4014 0.37515
2440.157 0.36654 0.36163 0.4072 0.4471 0.4238 0.4358 0.4216 0.37289 0.4175 0.4137
2459.447 0.3499 0.32637 0.4005 0.4245 0.39129 0.38247 0.36522 0.39939 0.36378 0.34093
2478.737 0.35713 0.32923 0.29257 0.284 0.308198 0.3548 0.4132 0.3783 0.36066 0.32726
2498.026 0.2471 0.2971 0.3615 0.35524 0.37436 0.39902 0.38854 0.36115 0.37083 0.3693
2517.316 0.4195 0.4347 0.35015 0.3675 0.39768 0.4289 0.4659 0.4658 0.4361 0.38926
2536.606 0.39705 0.4676 0.5111 0.4887 0.4662 0.4348 0.4691 0.5575 0.6015 0.5681
2555.896 0.5611 0.604 0.6027 0.6035 0.6038 0.5638 0.5229 0.5915 0.5757 0.5409
2575.186 0.6204 0.6039 0.5153 0.4751 0.5381 0.5641 0.4967 0.482 0.4416 0.4566
2594.475 0.5262 0.4679 0.4505 0.4426 0.427 0.4312 0.4541 0.4055 0.39915 0.4408
2613.765 0.4094 0.37434 0.36202 0.33678 0.31698 0.33499 0.31658 0.305337 0.36546 0.35006
2633.055 0.31181 0.31211 0.29509 0.32828 0.32559 0.32446 0.34629 0.37034 0.36303 0.3179
2652.345 0.2468 0.31159 0.35677 0.3341 0.300237 0.2665 0.29118 0.302321 0.37417 0.33638
2671.634 0.2767 0.32276 0.34981 0.38125 0.33665 0.2892 0.37508 0.414 0.383 0.38183
2690.924 0.34791 0.32165 0.37687 0.35215 0.3122 0.32668 0.29163 0.29887 0.35313 0.39192
2710.214 0.38524 0.35508 0.38386 0.37136 0.3663 0.38392 0.34895 0.34925 0.35974 0.4116
2729.504 0.38952 0.33173 0.33514 0.38861 0.4064 0.3528 0.306222 0.36207 0.4307 0.4237
2748.794 0.463 0.4439 0.39113 0.4107 0.4096 0.3927 0.4143 0.33433 0.33546 0.39606
2768.083 0.37267 0.34065 0.34229 0.39452 0.39551 0.37285 0.4218 0.4781 0.45 0.39277
2787.373 0.39887 0.39779 0.38727 0.43 0.4428 0.4817 0.4928 0.4866 0.4194 0.32387
2806.663 0.33789 0.4297 0.5403 0.5667 0.6229 0.6383 0.6131 0.5433 0.5315 0.6018
2825.953 0.6618 0.7067 0.6985 0.7551 0.7884 0.8546 0.8887 0.9724 1.1715 1.35
2845.242 1.58 1.77 1.83 1.95 2 1.99 2.08 1.99 1.77 1.6
2864.532 1.43 1.32 1.2626 1.1575 1.0677 1.1131 1.0685 0.9316 0.9392 0.9915
2883.822 0.9656 1.0133 1.1182 1.0739 1.1127 1.139 1.1776 1.33 1.42 1.46
2903.112 1.57 1.65 1.58 1.51 1.53 1.64 1.67 1.6 1.52 1.53
2922.401 1.58 1.58 1.62 1.71 1.75 1.75 1.83 1.89 2 2.24
2941.691 2.42 2.58 2.78 2.95 3.1 3.19 3.1 3 2.96 2.91
2960.981 2.9 2.66 2.33 2.27 2.34 2.32 2.37 2.35 2.34 2.26
2980.271 2.08 1.95 1.86 1.77 1.53 1.48 1.49 1.37 1.2719 1.2492
2999.561 1.2095 1.1111 1.118 1.1687 1.2479 1.2843 1.2906 1.34 1.41 1.61
3018.850 1.76 1.87 1.92 1.86 1.79 1.82 1.77 1.46 1.1801 1.0601
3038.140 0.9079 0.7591 0.697 0.6274 0.5855 0.6283 0.6317 0.5673 0.6013 0.6837
3057.430 0.6241 0.549 0.5311 0.5757 0.6012 0.5855 0.6856 0.7161 0.7307 0.9497
3076.720 1.0407 1.0701 1.2187 1.1728 1.1369 1.2315 1.1947 1.0927 1.1082 1.1625
3096.009 1.0807 0.9858 0.8209 0.6152 0.6225 0.6617 0.5917 0.5053 0.4655 0.4555
3115.299 0.5088 0.5238 0.4522 0.36024 0.31067 0.304585 0.33792 0.38414 0.32776 0.2643
3134.589 0.35844 0.4729 0.4625 0.37522 0.34238 0.2809 0.2357 0.299893 0.29706 0.2252
3153.879 0.29399 0.493 0.5232 0.4043 0.2759 0.2032 0.2635 0.308086 0.255 0.300918
3173.169 0.34645 0.33492 0.245 0.175 0.2307 0.29605 0.2452 0.29663 0.2891 0.176
3192.458 0.2616 0.2272 0.198 0.2355 0.2801 0.3139 0.197 0.154 0.2332 0.2529
3211.748 0.2342 0.2302 0.2751 0.2649 0.2062 0.15 0.124 0.2051 0.2605 0.159
3231.038 0.143 0.289 0.4071 0.36944 0.305154 0.33088 0.305936 0.2897 0.2809 0.284
3250.328 0.34338 0.305675 0.165 0.103 0.2435 0.2694 0.18 0.169 0.19 0.31966
3269.617 0.2872 0.149 0.148 0.161 0.108 0.148 0.104 0.096 0.242 0.199
3288.907 0.2271 0.2653 0.2133 0.2105 0.148 0.141 0.153 0.122 0.2277 0.34965
3308.197 0.305558 0.2495 0.29661 0.35884 0.32948 0.307828 0.33065 0.33202 0.198 0.18
3327.487 0.301493 0.189 0.11 0.2183 0.2667 0.32931 0.29004 0.2155 0.2249 0.2538
3346.777 0.32207 0.29243 0.2569 0.2231 0.189 0.178 0.2208 0.2109 0.2656 0.25
3366.066 0.2286 0.2828 0.31901 0.32078 0.154 0.162 0.2731 0.156 0.06 0.155
3385.356 0.223 0.29653 0.2171 0.126 0.2167 0.175 0.188 0.35211 0.4022 0.32477
3404.646 0.2545 0.2039 0.2551 0.2541 0.2218 0.2398 0.17 0.189 0.2539 0.168
3423.936 0.105 0.128 0.183 0.2831 0.31019 0.2264 0.171 0.2249 0.2047 0.184
3443.225 0.2748 0.2398 0.2128 0.34126 0.37884 0.4014 0.4029 0.4834 0.4877 0.2812
3462.515 0.185 0.32453 0.4388 0.35902 0.2463 0.2559 0.2293 0.155 0.2873 0.32079
3481.805 0.299454 0.2508 0.2148 0.32483 0.4674 0.4284 0.2486 0.4008 0.5359 0.38791
3501.095 0.5183 0.6202 0.6192 0.714 0.6996 0.6537 0.6374 0.5709 0.5242 0.5419
3520.385 0.5878 0.4961 0.4415 0.5717 0.4822 0.33054 0.4446 0.5415 0.4959 0.4284
3539.674 0.4912 0.5588 0.5277 0.5036 0.402 0.4053 0.6019 0.7063 0.6389 0.7064
3558.964 0.6802 0.7407 1.1322 1.48 1.88 2.5 3.51 5.18 7.54 10.7
3578.254 14.11 16.82 18.28 18.61 18.02 16.44 13.82 10.35 6.71 3.96
3597.544 2.47 1.56 0.9581 0.875 0.8582 0.5698 0.4768 0.4991 0.4537 0.4722
3616.833 0.4736 0.3505 0.2638 0.37178 0.4508 0.452 0.4221 0.34086 0.4151 0.4009
3636.123 0.179 0.2634 0.36403 0.29 0.34516 0.4468 0.3399 0.2822 0.36757 0.4077
3655.413 0.32204 0.2402 0.2686 0.2213 0.2457 0.36454 0.38791 0.36036 0.39489 0.38078
3674.703 0.3211 0.2765 0.2756 0.143 0.026 0.129 0.263 0.37433 0.33148 0.2025
3693.993 0.31506 0.35665 0.2883 0.324 0.309462 0.244 0.178 0.171 0.2048 0.35818
3713.282 0.5761 0.5364 0.38007 0.35554 0.4179 0.36767 0.35561 0.4314 0.4002 0.4646
3732.572 0.4535 0.2524 0.2371 0.34054 0.33278 0.2401 0.2152 0.29772 0.33744 0.2963
3751.862 0.2316 0.29842 0.2597 0.165 0.179 0.128 0.149 0.164 0.16 0.2027
3771.152 0.151 0.161 0.31 0.33529 0.079 0 0.179 0.32723 0.31762 0.174
3790.441 0.111 0.2153 0.2861 0.175 0.196 0.2046 0.2328 0.38653 0.34766 0.38784
3809.731 0.5576 0.5235 0.4534 0.38769 0.185 0.162 0.254 0.2405 0.2211 0.14
3829.021 0.151 0.2136 0.2675 0.31535 0.165 0.141 0.2216 0.2132 0.2024 0.155
3848.311 0.31507 0.35933 0.4235 0.4714 0.39663 0.39406 0.300935 0.2502 0.169 0.2239
3867.601 0.34674 0.307048 0.2646 0.29453 0.29512 0.2755 0.2292 0.2861 0.2501 0.2249
3886.890 0.32935 0.2125 0.2253 0.36972 0.2851 0.34671 0.4256 0.302508 0.174 0.2055
3906.180 0.2601 0.2509 0.4149 0.4247 0.2648 0.245 0.36117 0.38454 0.309163 0.2814
3925.470 0.2455 0.179 0.309084 0.35226 0.2313 0.2359 0.2122 0.283 0.2371 0.2111
3944.760 0.29839 0.37946 0.31175 0.31781 0.33129 0.189 0.34713 0.4703 0.32084 0.2657
3964.049 0.4095 0.308873 0.181 0.191 0.31868 0.38028 0.2556 0.29284 0.37066 0.33429
3983.339 0.37779 0.416 0.402 0.2353 0.107 0.211 0.099 0.066 0.2781 0.34344
##END=
