##TITLE=Mentyl salicylate
##JCAMP-DX=4.24
##DATA TYPE=INFRARED SPECTRUM
##ORIGIN=EPA-IR VAPOR PHASE LIBRARY
##OWNER=SRD/NIST
Collection (C) 2018 copyright by the U.S. Secretary of Commerce
on behalf of the United States of America. All rights reserved.
##CAS REGISTRY NO=89-46-3
##MOLFORM=C 17 H 24 O 3
##$NIST SOURCE=MSDC-IR
##STATE=gas
##XUNITS=1/CM
##YUNITS=ABSORBANCE
##XFACTOR=1.
##YFACTOR=0.001
##DELTAX=1.92898
##FIRSTX=549.8
##LASTX=4000.7
##FIRSTY=6.3
##MAXX=4000.7
##MINX=549.759
##MAXY=0.26207
##MINY=0.0001547
##NPOINTS=1790
##XYDATA=(X++(Y..Y))
549.759 6.3 7.05 8.03 8.86 9.38 9.22 8.31 7.33 6.38 5.43
569.049 4.97 4.95 5.26 5.83 6.35 6.74 6.98 7.01 6.8 6.6
588.339 6.48 6.54 6.88 7.3 7.57 7.55 7.2 6.7 6.21 5.71
607.628 5.43 5.36 5.29 5.27 5.21 5.05 4.84 4.7 4.61 4.48
626.918 4.41 4.3 4.23 4.25 4.18 4.23 4.21 4.3 4.62 4.91
646.208 5.27 5.9 6.67 7.47 8.62 10.12 12.1 14.41 16.77 18.9
665.498 20.25 20.57 20.11 19.31 18.22 17.34 16.8 16.33 16.01 16.03
684.787 16.48 17.48 19.08 21.19 24.12 27.89 31.81 35.16 37.3 37.76
704.077 36.77 34.49 31.51 28.98 27.04 25.42 24.07 22.97 21.84 20.73
723.367 19.65 18.45 17.25 16.1 15.16 14.49 13.97 13.9 14.77 17.19
742.657 21.7 29.21 40.19 53.29 65.65 73.17 73.66 67.6 55.63 41.34
761.947 29.4 21.28 16.49 13.96 12.7 11.89 11.11 10.15 9.33 8.54
781.236 7.67 6.91 6.28 5.89 5.89 6.13 6.54 7.19 7.8 8.17
800.526 8.35 8.37 8.26 8.11 8.32 8.82 9.19 9.45 9.39 9.02
819.816 8.67 8.27 7.88 7.56 7.24 7.01 6.87 6.89 7.12 7.84
839.106 8.72 9.39 9.92 10.14 10 9.7 9.64 9.9 10.67 12.12
858.395 13.63 14.5 14.59 13.9 12.37 10.51 8.91 7.57 6.66 6.26
877.685 6.29 6.54 6.74 7.03 7.48 7.77 7.82 7.7 7.34 6.85
896.975 6.52 6.35 6.29 6.55 7.09 7.8 8.83 10.05 11.23 12.16
916.265 12.61 12.69 12.6 12.3 12.08 12.31 12.95 13.73 14.59 15.51
935.555 16.31 17.2 18.34 19.66 21.35 23.56 26.18 29.17 32.59 36.11
954.844 39.33 41.92 43.33 43.36 41.9 39.26 36.26 33.58 31.67 30.81
974.134 30.66 30.33 29.22 27.18 24.36 21.1 17.91 15.46 13.74 12.64
993.424 12.18 12.07 12.25 12.63 13.05 13.46 13.65 13.44 13.08 12.83
1012.714 12.6 12.58 13.27 14.7 16.96 20.05 23.98 28.46 32.57 35.76
1032.003 37.25 36.53 34.05 30.34 26.59 23.19 20.03 17.62 16.17 15.68
1051.293 15.99 16.9 18.17 19.45 20.79 22.3 24.1 26.62 30.17 34.61
1070.583 40.52 48.36 57.81 69.2 82.38 96.28 108.26 115.26 115.56 108.35
1089.873 95.24 79.29 64.28 52.62 44.68 39.83 36.87 35.74 35.96 36.6
1109.163 36.92 36.77 36.26 35.6 35.71 36.86 39.45 43.96 50.32 58.44
1128.452 68.26 79.32 90 97.02 97.59 91.46 80.31 67.12 56.89 54.69
1147.742 63.55 85.71 122.33 163.22 190.62 197.09 182.93 149.51 108.42 78.7
1167.032 65.81 63.02 64.81 68.17 71.02 72.17 71.2 67.92 63.3 58.55
1186.322 54.55 52.04 51.4 52.68 55.94 61.17 69.1 80.16 94.44 112.45
1205.611 133.29 154.38 171.83 181.88 182.05 172.45 155.83 136.9 120.61 109.08
1224.901 102.27 98.94 97.66 97.87 99.16 101.34 104.88 110.34 118.17 129.31
1244.191 143.69 158.74 170.22 173.84 167.79 153.01 133.02 113.28 97.55 86.84
1263.481 80.23 76.19 73.54 71.67 70.81 71.3 73.46 77.07 81.29 85.36
1282.771 89.07 93.3 99.73 110.47 127.63 152.05 182.19 214.61 243.41 261.13
1302.060 262.07 245.48 215.77 180.92 150.01 128.81 117.35 112.13 109.32 106.43
1321.350 102.46 97.62 92.87 89.16 86.84 85.35 83.87 81.9 79.28 76.23
1340.640 73.2 70.47 68.11 66.15 64.48 62.83 61.24 59.85 58.59 57.43
1359.930 56.47 55.8 55.42 55.41 55.83 56.67 57.68 58.39 58.25 57.33
1379.219 56.21 55.33 55 55.34 56.09 56.82 57.03 56.43 54.98 52.87
1398.509 50.54 48.41 46.73 45.45 44.38 43.48 42.62 41.66 40.54 39.26
1417.799 37.81 36.11 34.22 32.18 30.11 28.06 26.15 24.56 23.35 22.54
1437.089 22.17 22.32 23 24.25 26.18 28.76 31.97 35.67 39.74 44.02
1456.378 48.32 52.55 56.44 59.9 62.72 64.86 66.6 68.33 70.37 73.15
1475.668 76.85 81.34 85.84 89.2 90.08 87.14 79.76 69.14 57.66 47.41
1494.958 39.51 34.29 31.41 30.02 29.14 28 26.2 23.7 20.84 17.96
1514.248 15.47 13.51 12.09 11.12 10.41 9.85 9.39 9.03 8.73 8.46
1533.538 8.28 8.18 8.09 8.06 8.07 8.08 8.22 8.47 8.75 9.1
1552.827 9.55 10.07 10.67 11.35 12.17 13.18 14.37 15.82 17.7 20.15
1572.117 23.26 26.87 30.82 34.59 37.62 39.46 39.75 38.79 37.21 35.6
1591.407 34.43 33.75 33.54 33.79 34.66 36.65 40.17 45.41 51.94 58.76
1610.697 64.34 67.47 67.44 63.72 56.99 48.68 40.11 32.27 26.05 21.71
1629.986 18.93 17.28 16.42 16.07 16.16 16.66 17.37 18.28 19.54 21.07
1649.276 22.76 24.62 26.77 29.2 31.91 35.05 38.78 43.35 48.96 55.82
1668.566 64.53 75.66 89.51 106.32 126.05 146.56 165.79 180.48 187.32 184.55
1687.856 172.09 152.3 129.16 106.42 86.05 69.38 56.81 46.86 39.57 33.8
1707.146 29.2 25.44 22.4 19.94 18.04 16.61 15.63 15.03 14.86 15.06
1726.435 15.74 16.93 18.55 20.44 22.45 24.21 25.22 25.15 23.96 21.93
1745.725 19.36 16.65 14.2 12.12 10.56 9.38 8.49 7.8 7.22 6.74
1765.015 6.33 5.9 5.5 5.14 4.78 4.48 4.22 3.98 3.76 3.61
1784.305 3.51 3.4 3.33 3.31 3.28 3.33 3.49 3.72 4.02 4.39
1803.594 4.78 5.05 5.12 4.93 4.55 4.07 3.56 3.15 2.86 2.7
1822.884 2.61 2.6 2.62 2.63 2.68 2.68 2.54 2.41 2.29 2.06
1842.174 1.91 1.81 1.69 1.64 1.63 1.61 1.64 1.65 1.62 1.6
1861.464 1.58 1.58 1.57 1.52 1.52 1.56 1.53 1.53 1.58 1.61
1880.754 1.64 1.65 1.68 1.78 1.88 1.98 2.08 2.15 2.17 2.12
1900.043 2.06 2.01 1.99 2.04 2.18 2.37 2.64 3.01 3.42 3.78
1919.333 4.07 4.17 4.03 3.65 3.18 2.74 2.44 2.34 2.33 2.39
1938.623 2.55 2.79 3.04 3.24 3.27 3.12 2.78 2.35 1.95 1.6
1957.913 1.34 1.19 1.16 1.13 1.11 1.12 1.13 1.13 1.15 1.15
1977.202 1.13 1.13 1.1 1.06 1.02 0.9942 0.9937 1.04 1.04 1.01
1996.492 1.04 1.07 1.08 1.11 1.08 1.06 1.06 1.06 1.07 1.08
2015.782 1.08 1.05 1.02 1.01 0.9896 0.9843 0.9992 0.9847 0.971 0.9844
2035.072 1.02 1.01 1.04 1.07 1.06 1.07 1.08 1.12 1.13 1.12
2054.362 1.12 1.13 1.16 1.16 1.16 1.18 1.14 1.09 1.08 1.04
2073.651 0.984 0.9548 0.9479 0.9674 0.9659 0.9385 0.9169 0.9372 0.9559 0.9762
2092.941 1.01 1.05 1.09 1.14 1.15 1.18 1.18 1.18 1.21 1.21
2112.231 1.25 1.26 1.18 1.15 1.15 1.13 1.12 1.11 1.14 1.18
2131.521 1.17 1.15 1.17 1.2 1.19 1.22 1.29 1.28 1.26 1.28
2150.810 1.27 1.26 1.27 1.32 1.32 1.31 1.35 1.38 1.36 1.33
2170.100 1.28 1.24 1.2 1.16 1.14 1.15 1.16 1.14 1.15 1.13
2189.390 1.09 1.1 1.13 1.13 1.09 1.09 1.08 1.06 1.08 1.13
2208.680 1.16 1.15 1.17 1.17 1.17 1.18 1.2 1.2 1.21 1.23
2227.970 1.19 1.22 1.31 1.33 1.33 1.36 1.39 1.43 1.44 1.4
2247.259 1.3 1.2 1.18 1.17 1.11 1.06 1.03 1.09 1.18 1.22
2266.549 1.23 1.27 1.29 1.3 1.33 1.37 1.41 1.39 1.39 1.43
2285.839 1.43 1.38 1.37 1.4 1.39 1.34 1.3 1.31 1.29 1.27
2305.129 1.27 1.24 1.27 1.3 1.28 1.3 1.33 1.32 1.26 1.26
2324.418 1.32 1.34 1.35 1.41 1.45 1.44 1.43 1.42 1.41 1.45
2343.708 1.47 1.49 1.52 1.52 1.47 1.47 1.52 1.55 1.55 1.56
2362.998 1.57 1.59 1.64 1.67 1.71 1.73 1.73 1.83 1.91 1.96
2382.288 1.98 1.98 2 1.98 1.98 1.92 1.87 1.83 1.76 1.75
2401.578 1.72 1.7 1.73 1.78 1.8 1.79 1.79 1.85 1.9 1.94
2420.867 2 2.03 2.02 2.04 2.07 2.08 2.05 2.02 2.03 1.99
2440.157 1.95 1.93 1.89 1.91 1.89 1.83 1.82 1.86 1.89 1.88
2459.447 1.91 1.93 1.92 1.95 1.9 1.85 1.81 1.78 1.77 1.77
2478.737 1.8 1.81 1.8 1.84 1.86 1.87 1.89 1.91 1.9 1.87
2498.026 1.87 1.88 1.86 1.8 1.82 1.83 1.79 1.78 1.81 1.78
2517.316 1.84 1.9 1.91 1.91 1.85 1.88 1.97 1.99 2.03 2.14
2536.606 2.19 2.15 2.17 2.27 2.29 2.36 2.4 2.42 2.44 2.37
2555.896 2.35 2.32 2.3 2.33 2.3 2.31 2.39 2.45 2.43 2.4
2575.186 2.48 2.51 2.49 2.53 2.58 2.65 2.7 2.74 2.79 2.81
2594.475 2.85 2.96 3.04 3.13 3.2 3.26 3.32 3.4 3.56 3.66
2613.765 3.7 3.77 3.82 3.87 3.88 3.91 3.91 3.85 3.7 3.66
2633.055 3.71 3.73 3.76 3.68 3.55 3.5 3.54 3.55 3.51 3.53
2652.345 3.54 3.54 3.52 3.46 3.45 3.45 3.43 3.44 3.41 3.42
2671.634 3.41 3.4 3.42 3.5 3.61 3.67 3.73 3.76 3.89 4
2690.924 3.99 4.05 4.18 4.24 4.26 4.32 4.25 4.17 4.2 4.23
2710.214 4.27 4.4 4.43 4.38 4.39 4.44 4.61 4.77 4.91 5.11
2729.504 5.25 5.38 5.53 5.6 5.67 5.79 5.74 5.67 5.7 5.61
2748.794 5.53 5.5 5.44 5.45 5.47 5.43 5.46 5.5 5.51 5.53
2768.083 5.58 5.58 5.55 5.64 5.67 5.6 5.61 5.61 5.63 5.71
2787.373 5.82 5.92 6.01 6.2 6.33 6.44 6.54 6.57 6.7 6.88
2806.663 7.02 7.16 7.34 7.45 7.57 7.75 7.95 8.19 8.37 8.58
2825.953 8.86 9.12 9.42 9.75 10.1 10.5 10.96 11.6 12.46 13.54
2845.242 15.07 17.31 20.44 24.54 29.47 34.48 38.85 42.01 43.77 44.63
2864.532 45.39 46.98 49.88 54.15 59.61 65.7 71.26 75.13 76.76 76.07
2883.822 73.33 69.07 64.07 59.21 55.07 51.81 49.75 48.88 48.85 49.59
2903.112 51 52.92 55.28 58.28 62.05 66.61 71.92 77.97 84.62 91.72
2922.401 99.47 108.3 118.25 128.28 136.39 141.01 141.27 137.33 131.13 125.06
2941.691 120.49 116.97 113.83 110.68 107.57 105.79 107.14 112.97 123.7 138.76
2960.981 156.08 172.2 181.79 180.69 169 148.97 123.89 99.34 79.66 65.01
2980.271 54.27 46.16 39.71 34.55 30.26 26.67 23.91 21.73 19.84 18.35
2999.561 17.15 16.15 15.29 14.62 14.14 13.7 13.31 13.1 12.93 12.68
3018.850 12.48 12.34 12.3 12.27 12.16 12.13 12.07 11.99 11.96 11.87
3038.140 11.87 11.98 12.26 12.7 13.2 13.81 14.67 15.57 16.33 17.06
3057.430 17.76 18.42 19.06 19.77 20.56 21.45 22.29 22.9 23.03 22.81
3076.720 22.2 21.12 20.04 18.95 17.99 17.45 17.29 17.27 17.06 16.71
3096.009 16.05 15.05 14.08 13.12 12.38 11.75 11.19 10.83 10.47 10.17
3115.299 9.96 9.81 9.66 9.59 9.53 9.47 9.59 9.74 9.81 9.94
3134.589 10.1 10.2 10.3 10.52 10.81 11.01 11.19 11.57 11.91 12.18
3153.879 12.4 12.66 13.06 13.47 13.81 14.15 14.6 14.97 15.36 15.59
3173.169 15.76 16.14 16.44 16.71 17.07 17.53 18.13 18.72 19.2 19.76
3192.458 20.36 20.95 21.67 22.37 23.04 23.82 24.64 25.44 26.27 27.08
3211.748 27.95 28.8 29.57 30.33 31.05 31.79 32.37 32.85 33.26 33.7
3231.038 34.18 34.31 34.41 34.52 34.42 34.37 34.31 33.99 33.73 33.48
3250.328 33.04 32.55 31.98 31.46 30.83 30.04 29.45 28.99 28.43 27.91
3269.617 27.46 27.01 26.68 26.39 26.17 25.86 25.57 25.33 25.18 24.93
3288.907 24.59 24.37 24.11 23.89 23.47 23.12 22.87 22.5 22.26 21.96
3308.197 21.52 21.26 21.15 20.87 20.58 20.4 20.12 19.85 19.6 19.26
3327.487 18.94 18.85 18.63 18.18 17.8 17.56 17.36 17.08 16.87 16.62
3346.777 16.28 16.05 15.86 15.66 15.43 15.21 15.15 15.08 14.89 14.76
3366.066 14.61 14.38 14.18 13.9 13.64 13.48 13.24 12.88 12.65 12.38
3385.356 12.06 11.86 11.53 11.25 11.09 10.86 10.58 10.38 10.17 10.02
3404.646 9.92 9.79 9.67 9.49 9.4 9.33 9.13 9.05 9.07 9.1
3423.936 9.11 9.19 9.31 9.46 9.63 9.91 10.41 10.95 11.48 12.11
3443.225 12.96 13.98 14.91 15.86 16.81 17.42 17.85 17.82 17.47 17.16
3462.515 16.53 15.68 14.84 14.07 13.35 12.53 11.81 11.27 10.78 10.42
3481.805 10.05 9.75 9.35 9 8.87 8.56 8.26 8 7.7 7.51
3501.095 7.26 6.89 6.59 6.27 5.94 5.75 5.64 5.45 5.14 4.96
3520.385 4.76 4.45 4.25 4.06 3.97 3.93 3.76 3.57 3.45 3.4
3539.674 3.28 3.17 3.16 3.08 2.95 2.74 2.61 2.58 2.48 2.42
3558.964 2.46 2.35 2.23 2.23 2.1 2.03 2.02 1.9 1.84 1.83
3578.254 1.84 1.7 1.56 1.49 1.43 1.44 1.5 1.42 1.33 1.41
3597.544 1.31 1.18 1.18 1.16 1.16 1.1 1.08 0.9961 0.9563 1.04
3616.833 0.9574 0.7624 0.7222 0.9064 0.9301 0.835 0.8545 0.8705 0.7987 0.7698
3636.123 0.7265 0.642 0.6367 0.6866 0.5946 0.5083 0.5754 0.6049 0.669 0.611
3655.413 0.5413 0.5859 0.5674 0.6313 0.6623 0.5892 0.5294 0.3121 0.177 0.2929
3674.703 0.3478 0.3477 0.3182 0.3123 0.3774 0.405 0.2678 0.1548 0.2288 0.2385
3693.993 0.2559 0.3584 0.4091 0.3046 0.1856 0.1547 0.2517 0.3914 0.3644 0.3447
3713.282 0.3288 0.2878 0.2579 0.1787 0.186 0.3393 0.3682 0.3696 0.4507 0.4076
3732.572 0.4569 0.4681 0.4242 0.3688 0.288 0.4626 0.5309 0.4375 0.35 0.2506
3751.862 0.2328 0.2695 0.2251 0.2581 0.3347 0.3108 0.2846 0.2705 0.2832 0.283
3771.152 0.3175 0.2169 0.1999 0.254 0.2426 0.2921 0.3162 0.2473 0.3655 0.4136
3790.441 0.2668 0.309 0.2098 0.1557 0.3384 0.3633 0.2887 0.3145 0.3308 0.3813
3809.731 0.3821 0.3201 0.4582 0.5114 0.328 0.3271 0.3739 0.2842 0.3095 0.3871
3829.021 0.3955 0.3921 0.4738 0.4028 0.3213 0.4284 0.4892 0.4525 0.3503 0.3077
3848.311 0.3739 0.4979 0.4543 0.3771 0.3418 0.3694 0.3844 0.3154 0.4039 0.4242
3867.601 0.362 0.367 0.3992 0.4833 0.5905 0.5947 0.4497 0.3946 0.4765 0.5375
3886.890 0.4021 0.3663 0.5702 0.5675 0.4516 0.4728 0.4817 0.393 0.479 0.5635
3906.180 0.5281 0.6026 0.6209 0.5709 0.6118 0.6185 0.5378 0.4648 0.4602 0.5523
3925.470 0.5829 0.6279 0.7383 0.7032 0.6422 0.5945 0.56 0.5391 0.52 0.5772
3944.760 0.5989 0.4606 0.4802 0.591 0.4509 0.3761 0.4976 0.5773 0.4948 0.4615
3964.049 0.5802 0.6214 0.6782 0.671 0.6164 0.5544 0.5163 0.4559 0.3704 0.4395
3983.339 0.4402 0.3545 0.3085 0.3709 0.3903 0.4303 0.4701 0.3617 0.3442 0.4533
##END=
