##TITLE=2,5-Dimethylnitrobenzene
##JCAMP-DX=4.24
##DATA TYPE=INFRARED SPECTRUM
##ORIGIN=EPA-IR VAPOR PHASE LIBRARY
##OWNER=SRD/NIST
Collection (C) 2018 copyright by the U.S. Secretary of Commerce
on behalf of the United States of America. All rights reserved.
##CAS REGISTRY NO=89-58-7
##MOLFORM=C 8 H 9 N O 2
##$NIST SOURCE=MSDC-IR
##STATE=gas
##XUNITS=1/CM
##YUNITS=ABSORBANCE
##XFACTOR=1.
##YFACTOR=0.001
##DELTAX=1.92898
##FIRSTX=549.8
##LASTX=4000.7
##FIRSTY=2.355
##MAXX=4000.7
##MINX=549.759
##MAXY=0.406945
##MINY=0
##NPOINTS=1790
##XYDATA=(X++(Y..Y))
549.759 2.355 2.545 2.895 2.915 3.185 3.355 3.655 4.005 4.185 4.535
569.049 4.735 5.045 5.465 5.485 5.335 5.475 5.455 5.275 5.285 5.255
588.339 4.745 4.165 3.765 3.245 2.945 2.675 2.295 2.115 1.875 1.585
607.628 1.535 1.535 1.295 1.0905 1.022 0.9638 0.8079 0.8758 0.8987 0.604
626.918 0.5499 0.7248 0.5766 0.2984 0.27116 0.3503 0.355 0.3301 0.3317 0.199187
646.208 0.3175 0.4234 0.5089 0.7281 1.1735 1.545 1.565 1.895 2.375 3.235
665.498 4.695 6.685 9.395 12.555 15.635 18.185 20.005 21.055 21.325 20.965
684.787 20.575 19.455 16.795 13.125 9.595 6.855 5.055 3.995 3.365 3.075
704.077 3.005 2.895 2.965 3.245 3.385 3.575 3.855 4.225 4.815 5.515
723.367 6.115 7.005 8.005 8.935 10.045 11.145 12.145 13.235 14.275 15.005
742.657 15.135 14.965 14.805 14.775 14.995 15.095 15.025 15.095 15.185 15.395
761.947 15.725 16.225 16.975 17.105 16.585 15.985 15.405 14.995 14.635 14.395
781.236 14.295 14.485 14.885 15.755 17.835 21.035 26.195 34.795 48.005 66.215
800.526 87.335 106.365 118.495 125.955 135.035 140.865 144.865 150.115 138.545 108.455
819.816 80.295 61.285 48.105 38.015 29.805 23.025 17.515 13.485 10.525 8.445
839.106 6.965 5.955 5.385 4.855 4.475 4.345 4.145 4.025 4.025 3.995
858.395 4.135 4.585 5.115 5.865 6.825 7.925 9.115 10.275 11.445 12.865
877.685 14.445 16.075 17.405 17.825 17.055 15.475 13.995 12.755 11.795 11.115
896.975 10.565 10.395 10.265 10.625 11.385 11.955 12.555 12.765 12.805 12.855
916.265 12.585 12.225 11.455 10.115 8.535 7.125 6.085 5.105 4.355 3.975
935.555 3.725 3.465 3.235 3.025 3.035 3.235 3.345 3.465 3.675 3.655
954.844 3.695 3.745 3.445 3.135 3.185 3.405 3.325 3.055 3.065 3.165
974.134 3.105 3.055 3.045 2.975 3.065 3.155 3.275 3.485 3.645 3.645
993.424 3.665 3.755 3.755 3.685 3.805 3.865 3.715 3.615 3.525 3.645
1012.714 3.745 3.925 4.105 4.205 4.055 4.075 4.525 4.805 5.155 5.395
1032.003 5.715 6.295 6.765 7.085 7.545 7.955 8.105 8.325 8.275 8.255
1051.293 8.285 8.315 8.315 8.495 8.655 8.265 8.125 8.255 8.485 8.715
1070.583 8.845 9.085 9.195 9.405 9.675 9.185 8.565 8.115 7.925 7.185
1089.873 6.165 5.905 5.695 5.035 4.625 4.445 4.175 4.295 4.185 3.935
1109.163 4.085 4.515 4.525 4.355 4.315 4.295 4.215 4.275 4.315 4.175
1128.452 4.415 4.755 5.065 5.715 6.605 7.835 9.525 11.705 14.135 16.635
1147.742 18.825 19.865 19.495 18.805 19.215 20.005 19.655 17.875 15.315 13.035
1167.032 11.105 9.485 8.235 7.465 7.085 6.585 6.455 6.485 6.235 6.255
1186.322 6.335 6.175 6.185 6.655 7.225 7.575 8.255 8.695 8.835 9.335
1205.611 9.765 9.885 9.805 9.845 9.625 9.185 8.675 8.125 7.715 7.345
1224.901 7.065 6.745 6.535 6.295 6.535 6.855 6.865 6.905 7.055 7.485
1244.191 7.855 8.045 8.365 8.795 9.225 10.055 10.815 11.575 12.775 13.805
1263.481 14.925 16.255 17.675 19.485 20.955 22.285 23.905 25.365 26.875 28.235
1282.771 28.915 28.845 28.545 28.425 28.265 27.845 27.155 26.245 25.405 24.925
1302.060 24.665 24.765 25.355 26.305 27.565 29.055 30.785 32.755 34.875 37.385
1321.350 40.335 43.635 47.355 51.685 56.815 62.835 69.945 78.445 88.615 100.655
1340.640 114.585 130.175 146.785 163.575 179.595 193.995 205.985 214.905 220.075 220.895
1359.930 216.855 207.995 195.275 179.625 162.275 145.165 129.495 115.645 103.765 93.965
1379.219 86.155 80.065 75.115 70.675 66.305 62.165 58.885 56.195 53.075 49.355
1398.509 45.345 41.475 38.185 35.445 33.115 31.105 29.345 27.805 26.525 25.425
1417.799 24.595 23.935 23.525 23.465 23.575 23.845 24.425 25.175 26.035 27.105
1437.089 28.285 29.545 30.875 32.285 33.775 35.295 36.705 37.985 39.125 39.855
1456.378 40.345 40.785 41.075 41.175 41.035 40.735 40.335 39.895 39.605 39.545
1475.668 39.835 40.715 42.155 44.215 47.045 50.495 54.535 59.305 64.675 70.465
1494.958 76.585 82.895 89.245 95.525 101.695 107.805 113.795 120.145 127.375 135.685
1514.248 145.285 156.715 170.555 186.965 206.485 228.745 253.775 281.105 309.645 337.685
1533.538 363.255 384.375 398.905 406.345 406.945 400.975 388.645 370.435 346.915 319.705
1552.827 291.995 265.975 243.575 224.705 208.985 196.055 184.625 174.135 163.925 153.485
1572.117 142.765 131.765 120.365 108.895 97.675 86.715 76.455 66.935 58.265 50.765
1591.407 44.305 38.735 34.105 30.315 27.155 24.575 22.495 20.835 19.665 18.745
1610.697 18.005 17.535 17.215 16.945 16.705 16.495 16.215 15.735 15.125 14.435
1629.986 13.615 12.755 11.855 10.815 9.845 8.995 8.225 7.615 7.105 6.675
1649.276 6.335 6.105 5.985 5.695 5.425 5.325 5.215 5.085 4.955 4.865
1668.566 4.665 4.435 4.355 4.205 4.045 3.965 3.905 3.875 3.795 3.665
1687.856 3.575 3.485 3.385 3.295 3.215 3.145 3.045 2.885 2.765 2.715
1707.146 2.645 2.585 2.555 2.445 2.405 2.435 2.475 2.545 2.605 2.735
1726.435 2.865 2.905 3.035 3.225 3.385 3.595 3.795 4.065 4.425 4.805
1745.725 5.235 5.775 6.325 6.835 7.315 7.715 8.045 8.275 8.335 8.245
1765.015 7.935 7.525 6.955 6.315 5.655 4.985 4.325 3.675 3.235 2.905
1784.305 2.625 2.375 2.145 2.025 1.925 1.835 1.785 1.725 1.645 1.655
1803.594 1.685 1.655 1.615 1.585 1.615 1.635 1.715 1.885 2.015 2.155
1822.884 2.285 2.485 2.745 2.945 3.105 3.195 3.285 3.335 3.315 3.285
1842.174 3.245 3.165 3.035 2.905 2.755 2.615 2.415 2.245 2.195 2.135
1861.464 2.045 1.945 1.855 1.775 1.735 1.715 1.665 1.615 1.605 1.645
1880.754 1.685 1.735 1.875 2.045 2.215 2.455 2.755 3.155 3.605 3.965
1900.043 4.225 4.485 4.645 4.715 4.635 4.455 4.245 4.015 3.645 3.185
1919.333 2.795 2.455 2.165 1.965 1.825 1.705 1.595 1.525 1.465 1.425
1938.623 1.405 1.395 1.375 1.325 1.265 1.255 1.215 1.1792 1.1935 1.215
1957.913 1.1492 1.1426 1.235 1.1477 1.0762 1.1017 1.0364 1.0113 1.0254 0.9887
1977.202 0.9967 1.065 1.1379 1.1431 1.1257 1.1602 1.165 1.1138 1.1393 1.1239
1996.492 1.0824 1.1044 1.0549 1.0017 0.9496 0.9306 0.8944 0.8154 0.7842 0.7397
2015.782 0.7671 0.7518 0.6802 0.66 0.6569 0.6882 0.6706 0.6439 0.6726 0.6205
2035.072 0.5672 0.5964 0.5999 0.5531 0.5195 0.537 0.5986 0.6222 0.6062 0.6469
2054.362 0.6394 0.6142 0.6141 0.6242 0.6748 0.689 0.6793 0.6971 0.7636 0.8126
2073.651 0.7899 0.8036 0.8292 0.7782 0.6815 0.6062 0.6561 0.7212 0.6756 0.6581
2092.941 0.6363 0.6411 0.6842 0.6802 0.6567 0.5605 0.5628 0.6505 0.6535 0.661
2112.231 0.6132 0.6224 0.6663 0.6216 0.6514 0.6442 0.6253 0.6536 0.6817 0.7113
2131.521 0.685 0.664 0.6948 0.7027 0.6788 0.6663 0.7281 0.7725 0.7647 0.7706
2150.810 0.7933 0.7938 0.7895 0.7831 0.7914 0.7706 0.7002 0.7014 0.7283 0.6834
2170.100 0.6567 0.6857 0.6416 0.5896 0.5846 0.5222 0.4816 0.5674 0.7001 0.7289
2189.390 0.6367 0.6175 0.6809 0.7019 0.7331 0.7684 0.7626 0.7013 0.6524 0.6405
2208.680 0.6152 0.5685 0.533 0.5348 0.5166 0.5789 0.5961 0.5155 0.4936 0.5031
2227.970 0.4806 0.4474 0.4537 0.4403 0.424 0.464 0.5621 0.5738 0.5464 0.5673
2247.259 0.5189 0.4867 0.5645 0.6155 0.6003 0.6016 0.6543 0.7207 0.7339 0.7595
2266.549 0.7738 0.8282 0.8473 0.8104 0.8502 0.8689 0.8771 0.8628 0.8829 0.9887
2285.839 1.0585 1.1058 1.0978 1.1324 1.1939 1.275 1.355 1.365 1.415 1.495
2305.129 1.515 1.485 1.505 1.545 1.505 1.435 1.425 1.355 1.295 1.275
2324.418 1.335 1.375 1.335 1.345 1.415 1.495 1.535 1.555 1.595 1.715
2343.708 1.765 1.785 1.815 1.815 1.785 1.755 1.835 1.825 1.725 1.705
2362.998 1.675 1.605 1.625 1.665 1.645 1.585 1.505 1.465 1.505 1.515
2382.288 1.425 1.295 1.325 1.385 1.385 1.395 1.395 1.475 1.545 1.555
2401.578 1.645 1.765 1.825 1.855 1.855 1.825 1.885 2.025 2.105 2.105
2420.867 2.165 2.235 2.265 2.275 2.275 2.215 2.155 2.185 2.135 2.105
2440.157 2.155 2.195 2.065 1.985 1.995 1.975 1.945 1.815 1.675 1.625
2459.447 1.655 1.695 1.655 1.585 1.585 1.525 1.475 1.435 1.375 1.395
2478.737 1.435 1.465 1.485 1.435 1.265 1.195 1.255 1.235 1.1352 1.0023
2498.026 0.9721 1.017 0.9666 0.9402 0.9677 0.9435 0.8713 0.8338 0.8179 0.8141
2517.316 0.8768 0.8439 0.7579 0.8017 0.8318 0.8326 0.7829 0.7175 0.7488 0.7898
2536.606 0.8258 0.8534 0.9021 1.0016 1.0633 1.0471 1.0234 0.9893 0.9655 1.0279
2555.896 1.1885 1.275 1.255 1.235 1.315 1.425 1.405 1.375 1.485 1.605
2575.186 1.585 1.565 1.615 1.665 1.655 1.765 1.925 1.935 1.935 2.005
2594.475 2.075 2.125 2.155 2.165 2.185 2.205 2.175 2.095 2.135 2.195
2613.765 2.105 2.045 1.985 2.005 2.005 1.925 1.915 1.995 2.005 1.935
2633.055 1.945 1.925 1.935 1.985 1.945 1.925 2.015 2.065 1.955 1.875
2652.345 1.825 1.845 1.865 1.895 1.885 1.825 1.825 1.785 1.755 1.755
2671.634 1.775 1.785 1.735 1.715 1.815 1.895 1.855 1.835 1.905 1.915
2690.924 1.985 2.035 2.075 2.175 2.245 2.275 2.265 2.235 2.235 2.225
2710.214 2.185 2.175 2.145 2.145 2.155 2.165 2.185 2.145 2.175 2.205
2729.504 2.305 2.465 2.575 2.705 2.935 3.195 3.445 3.695 3.865 4.095
2748.794 4.325 4.445 4.545 4.555 4.405 4.195 4.095 3.985 3.845 3.645
2768.083 3.455 3.315 3.095 2.995 2.895 2.755 2.745 2.835 2.935 2.905
2787.373 2.795 2.915 3.075 3.085 3.165 3.255 3.285 3.375 3.495 3.595
2806.663 3.755 3.945 4.145 4.345 4.555 4.765 4.965 5.235 5.505 5.785
2825.953 6.065 6.425 6.795 7.155 7.645 8.105 8.535 8.985 9.565 10.255
2845.242 10.735 11.275 12.145 13.055 13.935 15.005 16.265 17.635 19.205 20.785
2864.532 22.525 24.395 26.195 27.915 29.395 30.635 31.735 32.555 33.105 33.425
2883.822 33.495 33.245 32.785 32.315 31.845 31.295 30.785 30.265 29.625 29.125
2903.112 28.845 28.725 28.655 28.795 29.135 29.765 30.845 32.205 34.235 36.815
2922.401 39.895 43.745 48.315 53.215 58.055 62.595 66.615 69.725 71.735 72.685
2941.691 72.115 70.125 66.995 63.015 58.625 53.965 49.225 44.535 40.245 36.655
2960.981 33.825 31.655 30.105 29.225 28.745 28.635 29.055 29.665 30.475 31.555
2980.271 32.855 34.135 35.175 35.885 36.185 36.335 36.165 35.885 35.495 34.835
2999.561 34.015 33.055 32.235 31.535 31.065 30.655 30.265 30.195 30.185 30.275
3018.850 30.545 31.085 31.925 32.975 34.105 35.045 35.685 35.945 35.915 35.695
3038.140 35.185 34.565 33.855 33.015 32.115 31.405 31.245 31.665 32.505 33.585
3057.430 34.625 35.495 35.755 35.325 34.565 33.395 31.815 29.825 27.445 24.815
3076.720 22.025 19.555 17.395 15.405 13.845 12.435 11.135 10.005 8.965 8.105
3096.009 7.475 6.985 6.455 6.015 5.755 5.345 4.965 4.725 4.535 4.385
3115.299 4.295 4.235 3.985 3.765 3.705 3.515 3.255 3.135 3.095 2.985
3134.589 2.715 2.535 2.445 2.325 2.225 2.145 1.915 1.685 1.685 1.655
3153.879 1.695 1.645 1.525 1.465 1.275 1.1927 1.285 1.295 1.265 1.215
3173.169 1.235 1.275 1.245 1.385 1.405 1.235 1.1462 1.186 1.1668 1.0829
3192.458 1.1488 1.1065 1.012 1.0064 0.9489 0.9154 0.9206 0.9272 0.885 0.8098
3211.748 0.8301 0.8402 0.8209 0.8596 0.7823 0.6615 0.7005 0.7365 0.7057 0.6714
3231.038 0.6404 0.7625 0.8643 0.7336 0.6281 0.6363 0.6223 0.6026 0.6301 0.5756
3250.328 0.606 0.7111 0.6423 0.5748 0.6603 0.6893 0.5723 0.4924 0.4543 0.5369
3269.617 0.576 0.4781 0.4836 0.4551 0.4122 0.4427 0.4866 0.4916 0.4919 0.432
3288.907 0.3525 0.3619 0.301 0.3372 0.3533 0.2979 0.3121 0.3387 0.4095 0.3669
3308.197 0.3305 0.3162 0.24531 0.3257 0.391 0.3841 0.25189 0.3155 0.539 0.4898
3327.487 0.3579 0.3083 0.3141 0.309 0.4195 0.4488 0.4154 0.4681 0.4628 0.4633
3346.777 0.4947 0.5295 0.4223 0.25066 0.28975 0.2485 0.3001 0.4311 0.3931 0.28664
3366.066 0.18513 0.3193 0.3652 0.26679 0.1666 0.21874 0.24122 0.301 0.4914 0.4219
3385.356 0.3054 0.36 0.3644 0.29232 0.3175 0.3957 0.3265 0.3281 0.5048 0.5792
3404.646 0.5417 0.4723 0.51 0.4456 0.3391 0.3335 0.3772 0.3248 0.26841 0.4717
3423.936 0.6142 0.6122 0.6106 0.6454 0.5407 0.4208 0.28399 0.1076 0.202815 0.4051
3443.225 0.4014 0.3233 0.3613 0.4196 0.3864 0.3047 0.2977 0.3359 0.4595 0.5052
3462.515 0.3348 0.22237 0.18922 0.0994 0.103 0.0954 0.176 0.25158 0.3143 0.4551
3481.805 0.4127 0.3349 0.3971 0.4367 0.2219 0.097 0.1446 0.18632 0.1688 0.19276
3501.095 0.2996 0.2955 0.354 0.3934 0.25701 0.198227 0.1893 0.1334 0.1843 0.29482
3520.385 0.3027 0.2552 0.1344 0.1028 0.1776 0.1753 0.183 0.1825 0.22805 0.21467
3539.674 0.1329 0.22135 0.27621 0.23061 0.1497 0.08 0.22121 0.24459 0.1585 0.203794
3558.964 0.23593 0.26013 0.204 0.21866 0.28571 0.3246 0.4064 0.4991 0.5315 0.5977
3578.254 0.7807 0.6709 0.6493 0.6986 0.6337 0.6897 0.5391 0.413 0.4125 0.3283
3597.544 0.25601 0.1801 0.1418 0.1774 0.195821 0.22168 0.23768 0.194784 0.091 0.148
3616.833 0.24947 0.28624 0.18784 0.1453 0.194676 0.1779 0.199311 0.201027 0.22425 0.21917
3636.123 0.075 0 0.1175 0.21571 0.2279 0.22078 0.196395 0.28531 0.4097 0.3043
3655.413 0.1937 0.1818 0.29359 0.354 0.3623 0.3141 0.20972 0.22857 0.27415 0.28991
3674.703 0.28275 0.2994 0.314 0.24078 0.112 0.23181 0.3516 0.28397 0.3646 0.4768
3693.993 0.391 0.3534 0.5092 0.5878 0.4818 0.4149 0.5705 0.7639 0.7416 0.7509
3713.282 0.8498 0.7427 0.5366 0.5221 0.6554 0.6353 0.6189 0.669 0.5839 0.4508
3732.572 0.4596 0.467 0.4138 0.3418 0.3346 0.3696 0.4567 0.5506 0.5371 0.3832
3751.862 0.3625 0.5162 0.411 0.26225 0.21862 0.29302 0.3798 0.4642 0.4761 0.3662
3771.152 0.3531 0.3774 0.3339 0.3493 0.2976 0.23892 0.4857 0.6284 0.5725 0.4399
3790.441 0.4028 0.4561 0.4001 0.3533 0.23354 0.1832 0.3164 0.286 0.184 0.23246
3809.731 0.28433 0.396 0.3665 0.27406 0.3437 0.433 0.4049 0.27123 0.22552 0.29092
3829.021 0.3444 0.5073 0.4771 0.469 0.6555 0.5855 0.4716 0.496 0.4184 0.3943
3848.311 0.5253 0.5149 0.4595 0.4145 0.4721 0.4163 0.4358 0.6281 0.634 0.5332
3867.601 0.5138 0.5223 0.4301 0.452 0.5726 0.4698 0.4264 0.5824 0.6127 0.5783
3886.890 0.4866 0.443 0.5072 0.5458 0.5189 0.4751 0.4653 0.4843 0.5169 0.433
3906.180 0.3521 0.4914 0.5403 0.5466 0.6348 0.6279 0.6376 0.6961 0.7398 0.6285
3925.470 0.6792 0.7667 0.6889 0.7624 0.8792 0.7848 0.7209 0.9108 0.869 0.6909
3944.760 0.7328 0.8797 0.9409 0.8725 0.8211 0.8537 0.9831 1.0387 0.9044 0.7482
3964.049 0.8206 0.8873 0.7422 0.7222 0.8525 0.8721 0.7767 0.8189 0.9236 0.9231
3983.339 0.8886 0.8547 0.9014 0.8974 0.822 0.8819 0.9372 0.8436 0.8049 0.6851
##END=
