##TITLE=Isopulegol
##JCAMP-DX=4.24
##DATA TYPE=INFRARED SPECTRUM
##ORIGIN=NIST Mass Spectrometry Data Center
##OWNER=NIST Standard Reference Data Program
Collection (C) 2018 copyright by the U.S. Secretary of Commerce
on behalf of the United States of America. All rights reserved.
##CAS REGISTRY NO=89-79-2
##MOLFORM=C 10 H 18 O
##$NIST SOURCE=MSDC-IR
##SPECTROMETER/DATA SYSTEM=HP-GC/MS/IRD
##STATE=gas
##XUNITS=1/CM
##YUNITS=ABSORBANCE
##XFACTOR=1.0
##YFACTOR=0.000003000
##DELTAX=4.0
##FIRSTX=550.0
##LASTX=3846.0
##FIRSTY=0.001389
##MAXX=3846
##MINX=550
##MAXY=0.03
##MINY=0
##NPOINTS=825
##XYDATA=(X++(Y..Y))
550.0 463 414 326 196 122 109 94 136 135 103
590.0 106 94 90 68 31 32 39 22 33 49
630.0 49 66 58 9 8 28 40 31 22 18
670.0 34 36 35 38 31 53 37 33 55 54
710.0 42 25 18 27 34 23 16 17 10 0
750.0 22 56 59 38 32 33 22 21 17 25
790.0 30 1 18 54 63 65 69 92 128 165
830.0 244 356 484 577 616 612 525 409 344 339
870.0 386 510 722 1014 1367 1688 1856 1831 1635 1318
910.0 991 765 649 613 616 606 557 486 387 310
950.0 273 260 259 269 288 314 357 412 496 609
990.0 729 838 919 1005 1092 1188 1355 1582 1801 1947
1030.0 2020 2012 2003 2051 2109 2119 2015 1780 1474 1180
1070.0 996 942 976 1067 1173 1263 1288 1220 1102 945
1110.0 810 764 741 707 673 616 519 436 377 345
1150.0 327 323 330 335 325 310 302 319 325 316
1190.0 327 347 377 424 475 529 588 642 688 701
1230.0 705 720 726 745 773 793 808 827 865 909
1270.0 991 1078 1152 1179 1141 1042 916 801 703 634
1310.0 584 551 544 558 577 603 645 695 736 787
1350.0 828 856 897 961 1079 1248 1413 1519 1518 1406
1390.0 1215 1011 839 713 616 551 517 506 527 571
1430.0 649 788 970 1208 1453 1645 1760 1709 1542 1302
1470.0 1015 759 563 411 309 245 206 179 158 145
1510.0 133 118 108 112 107 101 99 87 80 79
1550.0 76 82 101 109 106 107 113 121 125 134
1590.0 140 143 151 164 190 228 266 321 403 507
1630.0 650 811 952 1013 939 769 555 368 245 165
1670.0 116 90 76 80 80 64 58 55 50 40
1710.0 26 27 27 21 24 30 32 31 35 34
1750.0 33 33 29 36 54 64 66 75 88 107
1790.0 131 147 149 142 128 108 83 63 47 35
1830.0 25 16 19 21 20 18 19 22 25 22
1870.0 21 19 11 13 17 16 15 15 17 15
1910.0 15 11 3 4 10 14 12 9 8 13
1950.0 14 15 24 23 15 14 20 20 13 11
1990.0 14 12 10 10 8 9 10 14 14 7
2030.0 13 16 17 19 17 17 21 21 17 18
2070.0 16 22 26 17 18 18 15 17 14 13
2110.0 12 13 8 7 16 15 14 26 24 12
2150.0 14 15 13 15 9 5 17 22 21 23
2190.0 19 21 25 24 20 17 16 20 23 24
2230.0 22 17 16 9 2 8 14 22 25 25
2270.0 27 25 21 18 22 29 27 25 27 31
2310.0 38 41 32 30 31 38 48 45 41 39
2350.0 40 43 47 46 38 45 57 51 46 46
2390.0 47 49 41 37 43 38 27 29 33 43
2430.0 55 53 52 54 52 57 54 48 43 37
2470.0 42 43 43 43 40 43 52 52 48 46
2510.0 45 48 48 45 51 58 53 42 52 52
2550.0 41 45 53 63 60 67 88 91 84 83
2590.0 88 95 93 92 93 97 104 107 119 124
2630.0 120 129 125 123 135 139 136 129 119 107
2670.0 121 133 125 124 135 140 135 127 117 122
2710.0 146 158 161 170 181 190 202 209 203 193
2750.0 184 187 187 185 197 205 220 226 233 254
2790.0 271 291 313 334 368 386 404 437 478 545
2830.0 619 728 936 1273 1730 2252 2767 3196 3516 3771
2870.0 4080 4369 4447 4360 4142 3810 3521 3383 3422 3703
2910.0 4273 5177 6427 7893 9202 9993 10000 9139 7797 6473
2950.0 5549 5252 5415 5303 4785 4163 3400 2677 2145 1723
2990.0 1363 1103 901 727 613 540 479 430 402 380
3030.0 347 334 323 306 319 352 401 447 524 696
3070.0 939 1190 1346 1322 1152 866 568 380 280 234
3110.0 206 184 176 165 154 148 134 139 139 117
3150.0 102 104 101 98 96 86 74 63 64 62
3190.0 71 75 75 69 54 52 50 50 46 41
3230.0 42 46 38 34 40 51 42 31 36 36
3270.0 23 16 23 21 4 14 24 21 26 32
3310.0 35 22 23 26 37 45 47 34 18 26
3350.0 43 41 33 37 40 37 30 34 39 38
3390.0 37 23 26 31 28 15 2 6 31 46
3430.0 29 41 41 28 33 37 33 20 17 23
3470.0 20 21 32 30 26 25 10 5 15 14
3510.0 16 21 29 40 41 27 26 37 37 21
3550.0 17 26 31 43 55 60 77 88 97 138
3590.0 178 260 373 455 530 593 624 629 611 560
3630.0 511 466 409 356 314 276 221 173 136 100
3670.0 70 56 57 59 52 36 31 32 28 30
3710.0 45 45 30 22 14 2 3 8 6 2
3750.0 1 8 31 28 16 27 33 28 30 29
3790.0 24 20 27 23 20 35 46 38 26 49
3830.0 51 19 25 36 19
##END=
