##TITLE=(2,4-Dimethylphenyl)ethanone
##JCAMP-DX=4.24
##DATA TYPE=INFRARED SPECTRUM
##ORIGIN=NIST Mass Spectrometry Data Center
##OWNER=NIST Standard Reference Data Program
Collection (C) 2018 copyright by the U.S. Secretary of Commerce
on behalf of the United States of America. All rights reserved.
##CAS REGISTRY NO=89-74-7
##MOLFORM=C 10 H 12 O
##$NIST SOURCE=MSDC-IR
##SPECTROMETER/DATA SYSTEM=HP-GC/MS/IRD
##STATE=gas
##XUNITS=1/CM
##YUNITS=ABSORBANCE
##XFACTOR=1.0
##YFACTOR=0.000002300
##DELTAX=4.0
##FIRSTX=550.0
##LASTX=3846.0
##FIRSTY=0.001766
##MAXX=3846
##MINX=550
##MAXY=0.023
##MINY=0
##NPOINTS=825
##XYDATA=(X++(Y..Y))
550.0 768 446 197 209 255 379 570 770 929 1032
590.0 1033 943 807 603 401 298 238 172 101 88
630.0 104 97 118 134 112 150 230 337 504 651
670.0 708 683 555 355 205 129 71 50 38 26
710.0 19 5 38 62 61 75 59 21 20 22
750.0 24 25 19 13 11 19 38 65 118 222
790.0 408 704 1071 1455 1937 2221 1931 1518 1150 786
830.0 488 268 158 115 101 97 97 114 167 220
870.0 267 300 270 219 200 195 193 212 280 345
910.0 383 404 390 317 248 227 239 303 444 656
950.0 927 1231 1443 1516 1434 1194 891 649 517 465
990.0 438 427 430 439 457 483 481 469 479 483
1030.0 501 519 552 630 719 786 815 797 737 630
1070.0 501 375 292 238 195 175 177 190 189 188
1110.0 201 228 270 300 374 493 606 726 804 798
1150.0 724 620 505 406 361 338 323 330 358 380
1190.0 431 516 625 762 934 1205 1613 2166 2807 3380
1230.0 3825 4219 4590 4955 5301 5446 5121 4298 3285 2473
1270.0 2046 2012 2206 2379 2369 2105 1619 1103 731 538
1310.0 453 430 453 510 594 695 822 1018 1298 1711
1350.0 2225 2617 2761 2666 2290 1770 1403 1234 1160 1115
1390.0 1077 1031 961 915 908 923 960 1016 1095 1162
1430.0 1223 1298 1370 1419 1445 1440 1406 1325 1197 1081
1470.0 997 940 879 840 845 855 833 794 745 694
1510.0 630 594 596 604 609 631 668 694 732 771
1550.0 829 917 1018 1083 1094 1070 993 896 859 901
1590.0 1044 1327 1744 2237 2651 2853 2772 2410 1876 1356
1630.0 985 766 655 615 635 707 803 911 1061 1257
1670.0 1503 1819 2289 3023 4236 6026 8052 9484 10000 9488
1710.0 7734 5531 3844 2830 2238 1838 1532 1266 1022 836
1750.0 692 551 436 355 293 256 218 181 164 146
1790.0 133 120 114 125 119 109 109 110 103 98
1830.0 95 83 68 65 67 60 65 82 91 97
1870.0 103 122 147 162 175 178 169 164 155 143
1910.0 124 123 125 114 106 93 78 77 71 67
1950.0 66 60 59 52 39 39 39 34 32 28
1990.0 27 27 29 33 33 35 37 39 43 44
2030.0 33 27 25 28 30 24 20 16 14 17
2070.0 18 17 16 16 20 20 19 10 8 13
2110.0 16 21 25 26 18 8 14 14 17 21
2150.0 25 29 26 15 9 17 18 17 15 6
2190.0 10 23 27 29 31 26 16 10 12 10
2230.0 8 5 4 7 14 23 20 24 27 25
2270.0 27 28 35 41 35 33 43 55 59 57
2310.0 50 52 57 56 52 52 52 42 34 31
2350.0 40 50 52 44 34 32 31 27 30 31
2390.0 33 29 30 44 52 39 29 41 34 29
2430.0 30 15 17 24 31 42 38 31 25 29
2470.0 31 24 24 32 29 29 34 30 36 41
2510.0 30 20 18 23 22 29 31 21 30 39
2550.0 33 33 26 24 27 19 16 12 12 23
2590.0 27 23 26 28 21 20 22 22 23 26
2630.0 15 10 19 18 6 6 22 28 24 25
2670.0 28 41 33 27 36 39 25 15 20 17
2710.0 18 29 37 48 67 88 105 115 133 137
2750.0 126 126 106 80 67 55 52 54 57 63
2790.0 74 69 72 91 108 123 137 155 176 191
2830.0 212 245 280 328 394 461 537 635 743 842
2870.0 921 977 1013 1014 1001 1003 996 1002 1042 1101
2910.0 1197 1341 1560 1862 2206 2499 2647 2625 2455 2190
2950.0 1885 1624 1454 1362 1331 1362 1441 1516 1548 1549
2990.0 1580 1615 1704 1823 1955 2063 2165 2212 2152 2037
3030.0 1881 1703 1570 1476 1374 1269 1158 1061 993 937
3070.0 872 810 746 671 603 545 499 474 459 444
3110.0 418 392 356 300 250 213 181 147 130 121
3150.0 107 91 77 73 78 60 41 57 50 23
3190.0 34 38 32 53 47 41 45 47 49 22
3230.0 11 19 19 14 18 31 32 13 12 23
3270.0 30 16 10 35 45 35 31 26 7 11
3310.0 32 22 15 20 31 38 38 32 30 55
3350.0 74 78 79 95 112 113 123 137 160 179
3390.0 171 148 148 130 86 63 63 55 39 22
3430.0 9 40 45 30 36 41 29 24 34 20
3470.0 14 33 32 29 40 27 19 15 20 28
3510.0 1 0 31 41 26 21 19 11 19 22
3550.0 19 33 33 27 28 27 29 30 21 10
3590.0 10 28 23 20 35 33 27 32 26 17
3630.0 16 7 17 20 4 11 22 27 18 23
3670.0 45 39 31 29 34 23 15 22 30 26
3710.0 21 15 12 43 55 53 46 25 34 63
3750.0 48 28 24 29 40 27 21 21 15 4
3790.0 1 7 11 7 7 15 33 49 36 13
3830.0 15 38 33 18 17
##END=
