##TITLE=2-Amino-4-chlorobenzoic acid
##JCAMP-DX=4.24
##DATA TYPE=INFRARED SPECTRUM
##ORIGIN=NIST Mass Spectrometry Data Center
##OWNER=NIST Standard Reference Data Program
Collection (C) 2018 copyright by the U.S. Secretary of Commerce
on behalf of the United States of America. All rights reserved.
##CAS REGISTRY NO=89-77-0
##MOLFORM=C 7 H 6 Cl N O 2
##$NIST SOURCE=MSDC-IR
##SPECTROMETER/DATA SYSTEM=HP-GC/MS/IRD
##STATE=gas
##XUNITS=1/CM
##YUNITS=ABSORBANCE
##XFACTOR=1.0
##YFACTOR=0.000001900
##DELTAX=4.0
##FIRSTX=550.0
##LASTX=3846.0
##FIRSTY=0.002495
##MAXX=3846
##MINX=550
##MAXY=0.019
##MINY=0
##NPOINTS=825
##XYDATA=(X++(Y..Y))
550.0 1313 2220 1988 2014 1767 1506 1229 996 754 538
590.0 442 408 354 316 317 342 372 372 406 425
630.0 408 426 432 452 440 387 370 384 411 485
670.0 620 822 1074 1350 1554 1568 1451 1238 956 758
710.0 607 473 412 372 398 575 803 986 1032 996
750.0 872 818 1004 1294 1640 1774 1510 1218 953 678
790.0 471 331 288 278 275 268 253 243 257 313
830.0 412 544 696 870 951 843 710 612 482 394
870.0 362 338 335 366 406 466 555 675 859 1180
910.0 1653 2057 2127 1843 1236 628 323 221 164 135
950.0 118 100 91 81 54 35 29 36 47 66
990.0 87 93 113 136 140 169 237 290 333 403
1030.0 469 536 692 923 1211 1540 1879 2238 2687 3371
1070.0 4313 5365 6233 6555 6174 5182 3912 2791 1998 1493
1110.0 1198 1025 900 848 847 853 891 986 1171 1482
1150.0 1788 2063 2494 3226 4333 5573 6255 6101 5141 3610
1190.0 2288 1553 1170 944 792 704 666 670 745 870
1230.0 1051 1265 1498 1710 1821 1799 1623 1335 1021 746
1270.0 544 409 328 303 292 297 324 383 500 652
1310.0 801 944 1040 1046 967 828 700 660 735 918
1350.0 1194 1484 1658 1673 1549 1319 1122 999 879 734
1390.0 586 462 371 363 431 555 716 907 1086 1192
1430.0 1220 1143 976 760 538 374 274 228 242 309
1470.0 447 651 890 1098 1173 1083 887 643 429 301
1510.0 252 244 247 265 310 371 472 630 890 1285
1550.0 1764 2154 2317 2214 1963 1798 1912 2287 2794 3347
1590.0 3874 4376 4928 5491 6063 6646 7068 7081 6522 5479
1630.0 4199 2919 1920 1302 938 727 612 553 515 486
1670.0 479 483 513 584 661 756 913 1182 1597 2168
1710.0 3009 4282 6208 8381 9766 10000 8874 6660 4707 3603
1750.0 2980 2539 2098 1545 1023 659 457 350 297 288
1790.0 287 310 320 288 246 203 154 117 96 74
1830.0 55 45 43 38 32 31 25 26 26 18
1870.0 22 34 42 55 75 93 108 120 123 111
1910.0 113 112 90 70 61 46 31 23 15 9
1950.0 17 26 22 12 2 8 14 10 16 11
1990.0 7 10 6 3 1 7 10 17 10 0
2030.0 10 12 13 13 4 7 13 7 11 22
2070.0 28 21 17 35 41 35 36 40 44 43
2110.0 43 41 40 37 31 34 46 54 56 45
2150.0 35 26 31 44 49 47 40 38 38 38
2190.0 35 30 35 37 41 44 27 26 37 40
2230.0 36 32 32 24 18 26 32 31 28 33
2270.0 28 31 33 34 46 48 54 57 57 60
2310.0 57 58 62 58 71 79 75 83 86 84
2350.0 83 80 69 61 55 49 56 56 47 44
2390.0 45 46 50 53 43 44 61 55 49 47
2430.0 46 46 39 34 43 47 41 40 51 49
2470.0 51 52 44 51 47 38 38 34 28 27
2510.0 39 43 42 55 58 46 42 40 32 43
2550.0 48 47 53 45 39 43 41 41 42 45
2590.0 44 41 39 47 51 42 31 39 49 33
2630.0 42 55 47 55 63 55 55 65 68 64
2670.0 66 57 52 66 61 56 55 51 54 49
2710.0 43 47 50 59 71 78 76 67 69 78
2750.0 78 80 79 84 76 57 64 83 82 51
2790.0 45 49 46 54 53 57 61 66 73 67
2830.0 65 53 54 57 57 52 35 51 76 70
2870.0 50 59 71 67 74 83 71 67 64 65
2910.0 61 47 43 48 49 44 36 41 46 31
2950.0 29 33 34 35 38 34 22 32 39 38
2990.0 43 46 33 28 44 48 55 70 68 71
3030.0 71 78 91 110 134 124 105 100 104 111
3070.0 107 106 94 100 123 124 127 118 107 96
3110.0 82 71 60 48 37 43 72 73 71 76
3150.0 65 75 98 97 94 88 82 83 78 72
3190.0 64 59 51 37 61 83 72 64 41 32
3230.0 46 47 58 65 59 53 51 60 69 84
3270.0 81 66 78 97 103 103 109 115 112 124
3310.0 136 141 152 157 172 171 163 174 206 235
3350.0 242 260 283 346 481 686 1025 1447 1808 1969
3390.0 1903 1643 1285 970 691 482 362 296 285 308
3430.0 323 314 321 331 298 245 228 220 204 206
3470.0 208 211 230 261 287 337 409 492 616 760
3510.0 908 1048 1186 1207 1112 946 767 623 509 434
3550.0 354 311 351 455 721 1187 1918 2942 3683 3678
3590.0 3096 2016 938 399 222 166 142 118 91 76
3630.0 82 89 100 94 91 92 72 72 72 80
3670.0 88 79 84 73 55 71 73 71 71 58
3710.0 58 71 70 59 58 58 57 69 86 42
3750.0 27 57 54 80 67 51 65 37 57 82
3790.0 67 64 74 66 47 44 62 85 81 66
3830.0 69 81 57 44 57
##END=
