##TITLE=2,4-Dimethyl-1-nitrobenzene
##JCAMP-DX=4.24
##DATA TYPE=INFRARED SPECTRUM
##ORIGIN=EPA-IR VAPOR PHASE LIBRARY
##OWNER=SRD/NIST
Collection (C) 2018 copyright by the U.S. Secretary of Commerce
on behalf of the United States of America. All rights reserved.
##CAS REGISTRY NO=89-87-2
##MOLFORM=C 8 H 9 N O 2
##$NIST SOURCE=MSDC-IR
##STATE=gas
##XUNITS=1/CM
##YUNITS=ABSORBANCE
##XFACTOR=1.
##YFACTOR=0.001
##DELTAX=3.85796
##FIRSTX=501.5
##LASTX=4000.7
##FIRSTY=0.184
##MAXX=4000.7
##MINX=501.534
##MAXY=0.116005
##MINY=0
##NPOINTS=908
##XYDATA=(X++(Y..Y))
501.534 0.184 0.084 0.098 0.081 0 0.069 0.111 0.152 0.228 0.2746
540.114 0.3008 0.3125 0.35709 0.37833 0.4492 0.578 0.6936 0.8752 1.0644 1.3092
578.693 1.485 1.515 1.675 2.045 2.865 4.315 5.635 6.255 6.285 5.425
617.273 3.635 2.175 1.565 1.2817 1.1373 1.0642 0.9746 0.865 0.8287 0.8671
655.852 0.8548 0.8122 0.8233 0.9031 1.1088 1.415 1.805 2.365 3.045 3.305
694.432 3.005 2.625 2.285 1.945 1.835 2.155 2.655 3.165 3.745 4.465
733.011 5.135 6.145 7.415 9.165 10.555 9.255 7.365 6.075 4.645 3.525
771.591 2.745 2.385 2.315 2.295 2.275 2.405 2.695 3.365 4.615 6.725
810.170 9.745 13.585 18.635 26.905 37.355 43.045 42.975 40.175 33.725 22.225
848.750 11.465 6.335 4.505 4.105 4.195 4.675 5.035 4.405 3.585 2.995
887.330 2.375 1.885 1.535 1.395 1.355 1.415 1.735 2.295 3.225 4.415
925.909 5.275 5.585 5.425 4.625 3.345 2.405 2.015 1.865 1.725 1.535
964.489 1.405 1.3139 1.2851 1.3155 1.2532 1.2199 1.2538 1.2677 1.3233 1.415
1003.068 1.505 1.605 1.715 1.825 1.875 1.915 2.005 2.225 2.505 2.835
1041.648 2.985 2.935 2.805 2.655 2.505 2.335 2.265 2.245 2.225 2.275
1080.227 2.255 2.135 2.005 1.855 1.675 1.495 1.395 1.395 1.535 1.655
1118.807 1.705 1.825 1.985 2.065 2.145 2.395 2.995 3.905 4.515 4.585
1157.387 4.585 4.205 3.315 2.605 2.325 2.235 2.125 2.005 1.945 2.015
1195.966 2.145 2.285 2.515 2.825 3.135 3.375 3.695 4.345 5.325 6.495
1234.546 7.415 7.825 7.715 6.915 5.725 4.815 4.465 4.585 4.905 5.265
1273.125 5.585 5.985 6.535 7.185 7.985 8.935 9.855 10.685 11.325 11.545
1311.705 11.415 11.295 11.545 12.605 15.185 20.285 29.425 44.385 65.255 87.595
1350.284 103.965 109.285 101.885 81.085 54.825 35.215 24.625 19.895 18.105 17.075
1388.864 15.915 14.785 13.255 11.415 9.955 9.045 8.695 8.865 9.455 10.295
1427.443 11.295 12.335 13.235 13.965 14.485 14.735 14.525 13.985 13.425 12.985
1466.023 12.805 13.185 14.435 16.675 19.525 22.435 25.075 27.375 29.485 31.965
1504.603 35.645 41.355 49.245 59.835 73.325 88.945 103.625 113.385 116.005 112.565
1543.182 102.625 88.035 73.745 62.765 54.765 48.835 44.035 39.865 36.585 34.255
1581.762 32.885 32.035 31.195 30.255 29.135 27.835 27.025 26.805 25.965 23.785
1620.341 20.345 16.005 11.615 8.315 6.255 5.095 4.465 3.995 3.585 3.195
1658.921 2.835 2.495 2.235 1.985 1.815 1.755 1.775 1.835 1.895 1.915
1697.500 1.875 1.745 1.575 1.405 1.2482 1.1639 1.1754 1.2251 1.317 1.435
1736.080 1.525 1.545 1.525 1.465 1.365 1.2988 1.3308 1.425 1.545 1.625
1774.659 1.605 1.495 1.3001 1.0938 0.9271 0.8387 0.8124 0.7921 0.7886 0.8242
1813.239 0.8957 0.9653 0.9892 0.9645 0.9184 0.8563 0.7489 0.6484 0.6125 0.6039
1851.819 0.6104 0.6221 0.626 0.6566 0.7002 0.7466 0.8257 0.9326 1.0585 1.2139
1890.398 1.405 1.595 1.695 1.735 1.695 1.575 1.405 1.1978 1.0089 0.874
1928.978 0.7692 0.6935 0.6582 0.6483 0.6457 0.6576 0.6572 0.6452 0.6325 0.6083
1967.557 0.5606 0.5144 0.4829 0.4769 0.4828 0.4704 0.4789 0.5004 0.5171 0.5133
2006.137 0.4844 0.4522 0.44223 0.42716 0.39022 0.36301 0.348368 0.348883 0.33681 0.3136
2044.716 0.3156 0.3026 0.2973 0.3039 0.2912 0.2902 0.2996 0.3159 0.33815 0.35553
2083.296 0.37295 0.40424 0.42161 0.42689 0.44488 0.4573 0.4604 0.4622 0.4492 0.43179
2121.875 0.42443 0.39689 0.36695 0.36033 0.37138 0.37676 0.38741 0.4298 0.4595 0.4781
2160.455 0.5085 0.5218 0.5004 0.474 0.4459 0.42046 0.40404 0.37541 0.345553 0.34337
2199.035 0.34316 0.350752 0.36508 0.36341 0.36154 0.38246 0.42156 0.4553 0.4699 0.4676
2237.614 0.4741 0.4644 0.4661 0.4787 0.4587 0.43281 0.41672 0.40325 0.38268 0.3584
2276.194 0.347796 0.36426 0.40544 0.43652 0.4674 0.5149 0.5613 0.6223 0.697 0.7439
2314.773 0.7487 0.7224 0.6813 0.6374 0.5956 0.5975 0.61 0.6055 0.6523 0.6997
2353.353 0.7107 0.742 0.7517 0.7526 0.7658 0.7632 0.7627 0.7637 0.7728 0.7846
2391.932 0.8023 0.8173 0.8326 0.8772 0.9098 0.946 1.0142 1.0665 1.1051 1.1554
2430.512 1.174 1.1509 1.0762 0.9876 0.8976 0.8087 0.779 0.7303 0.6636 0.6352
2469.092 0.611 0.57 0.5476 0.549 0.551 0.5496 0.5309 0.5257 0.535 0.5426
2507.671 0.553 0.609 0.6646 0.6808 0.6976 0.7238 0.703 0.6671 0.6635 0.6608
2546.251 0.6544 0.6392 0.6523 0.6402 0.6118 0.6106 0.584 0.5482 0.5415 0.5366
2584.830 0.5311 0.5371 0.5371 0.544 0.5829 0.6074 0.6285 0.6617 0.7076 0.7239
2623.410 0.7232 0.7373 0.7159 0.6499 0.6215 0.6367 0.6273 0.6407 0.6633 0.6822
2661.989 0.7111 0.7545 0.8052 0.8358 0.8699 0.9143 0.9727 1.036 1.089 1.1297
2700.569 1.1093 1.0498 1.0053 0.9479 0.8746 0.8544 0.8484 0.8703 0.9861 1.1435
2739.148 1.3026 1.475 1.625 1.675 1.615 1.505 1.375 1.2452 1.1385 1.0785
2777.728 1.0448 1.0212 1.0457 1.0805 1.1201 1.1786 1.2397 1.3373 1.435 1.525
2816.308 1.655 1.855 2.075 2.305 2.555 2.825 3.165 3.565 3.985 4.495
2854.887 5.215 6.125 7.165 8.225 9.125 9.735 9.985 9.905 9.555 9.125
2893.467 8.805 8.645 8.665 8.755 8.975 9.495 10.415 11.945 14.055 16.445
2932.046 18.695 20.265 20.745 19.955 18.285 16.255 14.085 12.135 10.675 9.815
2970.626 9.495 9.605 10.035 10.655 11.165 11.335 11.295 11.105 10.755 10.355
3009.205 10.155 10.185 10.475 10.995 11.555 11.985 12.315 12.545 12.525 12.395
3047.785 12.135 11.585 10.835 9.735 8.315 7.055 6.095 5.385 4.795 4.205
3086.364 3.655 3.115 2.655 2.325 2.085 1.905 1.745 1.635 1.515 1.405
3124.944 1.3178 1.1922 1.0957 1.0532 1.0066 0.9144 0.8471 0.8012 0.774 0.7624
3163.524 0.7399 0.718 0.6657 0.645 0.643 0.6301 0.6293 0.5905 0.5366 0.523
3202.103 0.5469 0.5669 0.5537 0.5276 0.5367 0.5096 0.4457 0.44327 0.4521 0.39857
3240.683 0.33751 0.36576 0.36943 0.36286 0.349545 0.36617 0.41256 0.39188 0.35707 0.3399
3279.262 0.333 0.34298 0.35577 0.36359 0.37464 0.38134 0.3758 0.3255 0.3054 0.302
3317.842 0.2803 0.2904 0.2932 0.2929 0.2868 0.274 0.3125 0.3324 0.2927 0.2606
3356.421 0.2943 0.2891 0.2505 0.2757 0.312 0.3189 0.3106 0.3136 0.2946 0.3117
3395.001 0.3133 0.3015 0.3073 0.3212 0.363 0.33645 0.2574 0.2495 0.3007 0.3124
3433.580 0.3141 0.3261 0.2963 0.2979 0.2643 0.2687 0.3054 0.2896 0.3226 0.2957
3472.160 0.3146 0.3269 0.2739 0.2935 0.323 0.345871 0.37384 0.3207 0.2493 0.2832
3510.740 0.3097 0.2857 0.3141 0.3311 0.3334 0.308 0.2597 0.217 0.222 0.3076
3549.319 0.33626 0.3192 0.3131 0.2886 0.2697 0.2465 0.241 0.2664 0.2765 0.2574
3587.899 0.2532 0.2978 0.3308 0.3326 0.314 0.27 0.238 0.2546 0.3016 0.3112
3626.478 0.2948 0.3006 0.33689 0.352893 0.348427 0.3143 0.2704 0.2973 0.3317 0.3057
3665.058 0.312 0.34871 0.33504 0.294 0.2814 0.3333 0.34079 0.2814 0.2745 0.292
3703.637 0.2873 0.302 0.3089 0.33908 0.35622 0.3191 0.3084 0.324 0.3099 0.3063
3742.217 0.2919 0.2631 0.3082 0.3749 0.36008 0.33931 0.350331 0.354079 0.32 0.2961
3780.797 0.34945 0.39843 0.39283 0.38363 0.41418 0.39814 0.36449 0.38511 0.39005 0.3942
3819.376 0.38202 0.348163 0.35901 0.36621 0.3762 0.39477 0.37043 0.36707 0.35626 0.3282
3857.956 0.35518 0.3386 0.3001 0.33971 0.40121 0.44302 0.41443 0.3223 0.3268 0.42447
3896.535 0.44283 0.37506 0.39329 0.4381 0.4739 0.466 0.39175 0.40964 0.44325 0.4598
3935.115 0.4635 0.38049 0.37612 0.4321 0.4852 0.5253 0.4974 0.4948 0.5608 0.5994
3973.694 0.6345 0.6641 0.6476 0.6509 0.6246 0.5823 0.5223 0.5307
##END=
