##TITLE=Pulegone
##JCAMP-DX=4.24
##DATA TYPE=INFRARED SPECTRUM
##ORIGIN=NIST Mass Spectrometry Data Center
##OWNER=NIST Standard Reference Data Program
Collection (C) 2018 copyright by the U.S. Secretary of Commerce
on behalf of the United States of America. All rights reserved.
##CAS REGISTRY NO=89-82-7
##MOLFORM=C 10 H 16 O
##$NIST SOURCE=MSDC-IR
##SPECTROMETER/DATA SYSTEM=HP-GC/MS/IRD
##STATE=gas
##XUNITS=1/CM
##YUNITS=ABSORBANCE
##XFACTOR=1.0
##YFACTOR=0.000001800
##DELTAX=4.0
##FIRSTX=550.0
##LASTX=3846.0
##FIRSTY=0.000149
##MAXX=3846
##MINX=550
##MAXY=0.018
##MINY=0
##NPOINTS=825
##XYDATA=(X++(Y..Y))
550.0 83 73 61 73 84 65 59 19 13 44
590.0 68 101 100 98 117 110 126 169 236 321
630.0 433 599 728 803 879 855 734 579 456 400
670.0 366 382 388 331 263 225 229 234 216 197
710.0 172 156 135 125 103 69 64 82 72 47
750.0 49 56 55 64 74 81 80 82 95 90
790.0 70 59 44 30 28 25 28 30 35 38
830.0 48 65 77 105 124 129 150 185 232 289
870.0 346 384 391 361 319 281 258 247 240 238
910.0 261 259 261 275 311 347 343 349 336 311
950.0 289 264 255 261 257 248 280 317 357 418
990.0 474 568 671 759 864 962 1070 1141 1133 1063
1030.0 947 800 634 511 462 431 422 463 513 586
1070.0 694 809 930 1054 1174 1260 1311 1370 1416 1449
1110.0 1535 1680 1841 1976 2023 1993 1863 1623 1367 1101
1150.0 892 789 745 702 691 717 767 861 1035 1281
1190.0 1638 2112 2524 2733 2705 2426 1974 1542 1248 1068
1230.0 929 805 741 711 714 762 853 1012 1279 1679
1270.0 2217 2830 3299 3454 3247 2703 1957 1328 977 831
1310.0 773 776 822 875 923 955 971 961 923 902
1350.0 899 926 997 1139 1322 1539 1756 1919 1957 1822
1390.0 1550 1247 1041 942 931 993 1099 1204 1283 1354
1430.0 1409 1473 1590 1732 1858 1933 1941 1889 1791 1629
1470.0 1420 1192 1010 877 764 691 645 618 586 568
1510.0 572 573 571 582 597 611 633 669 707 738
1550.0 786 824 868 954 1030 1108 1214 1317 1413 1522
1590.0 1654 1802 1966 2180 2432 2714 2982 3186 3271 3183
1630.0 2920 2535 2116 1745 1471 1315 1267 1299 1409 1605
1670.0 1924 2412 3205 4391 6038 7774 9039 9516 9119 7766
1710.0 5807 4035 2770 1984 1512 1183 959 797 655 544
1750.0 460 393 338 296 261 230 205 189 170 159
1790.0 140 124 121 103 87 84 83 72 65 68
1830.0 66 59 56 61 58 54 51 51 55 58
1870.0 54 48 57 65 60 58 57 46 40 46
1910.0 59 65 59 52 50 47 53 46 36 40
1950.0 35 34 39 30 27 33 31 24 27 36
1990.0 38 36 25 19 24 30 36 36 20 12
2030.0 22 26 17 21 26 21 24 29 22 14
2070.0 13 20 19 5 0 7 11 11 20 24
2110.0 15 20 31 33 25 24 23 10 15 21
2150.0 20 24 18 14 14 7 11 26 21 10
2190.0 19 28 32 38 33 26 30 39 53 55
2230.0 48 48 48 38 36 34 27 39 38 23
2270.0 22 39 51 42 36 40 35 25 19 12
2310.0 19 26 31 29 31 35 29 35 34 18
2350.0 20 22 13 23 31 23 25 37 37 31
2390.0 32 42 45 47 46 48 54 51 47 49
2430.0 56 48 38 38 45 48 37 26 48 66
2470.0 65 60 56 58 49 43 49 55 63 57
2510.0 52 58 64 63 69 56 48 61 72 75
2550.0 75 76 78 74 63 69 79 88 91 89
2590.0 86 84 84 85 98 104 112 107 95 107
2630.0 117 116 120 126 136 149 148 149 143 130
2670.0 136 130 124 130 137 155 151 138 157 176
2710.0 171 163 194 234 258 284 308 324 339 342
2750.0 335 310 287 277 275 277 283 300 321 334
2790.0 358 392 415 457 507 550 614 695 778 872
2830.0 994 1158 1390 1703 2088 2506 2911 3269 3563 3815
2870.0 4077 4370 4635 4799 4846 4765 4660 4739 5070 5637
2910.0 6421 7340 8322 9212 9851 10000 9571 8759 7767 6879
2950.0 6499 6768 7551 8136 7775 6888 5694 4323 3223 2489
2990.0 2038 1765 1602 1510 1445 1396 1356 1302 1238 1176
3030.0 1102 1011 934 869 791 714 650 621 587 534
3070.0 495 470 454 424 374 333 299 289 282 271
3110.0 264 240 217 219 225 220 218 207 196 192
3150.0 186 169 159 148 145 149 147 142 144 149
3190.0 144 150 149 119 117 129 122 111 88 101
3230.0 102 108 103 82 84 82 88 92 87 89
3270.0 87 85 84 84 96 98 94 88 83 94
3310.0 96 82 72 92 127 139 145 136 115 112
3350.0 112 135 158 151 163 186 201 209 188 180
3390.0 192 186 162 148 131 121 109 79 65 88
3430.0 103 74 64 68 71 89 80 67 82 70
3470.0 72 57 29 41 44 49 62 50 26 21
3510.0 25 42 57 58 63 66 70 47 33 49
3550.0 61 66 54 39 32 37 52 40 29 52
3590.0 58 41 28 31 55 55 45 46 36 14
3630.0 15 37 51 59 50 42 60 76 55 42
3670.0 33 40 48 36 38 35 31 40 50 59
3710.0 54 33 54 77 53 47 56 71 67 51
3750.0 48 49 55 45 34 41 45 69 71 78
3790.0 91 78 61 78 97 88 100 99 88 91
3830.0 100 101 95 67 57
##END=
