##TITLE=o-Chloroethylbenzene
##JCAMP-DX=4.24
##DATA TYPE=INFRARED SPECTRUM
##ORIGIN=NIST Mass Spectrometry Data Center
##OWNER=NIST Standard Reference Data Program
Collection (C) 2018 copyright by the U.S. Secretary of Commerce
on behalf of the United States of America. All rights reserved.
##CAS REGISTRY NO=89-96-3
##MOLFORM=C 8 H 9 Cl
##$NIST SOURCE=MSDC-IR
##SPECTROMETER/DATA SYSTEM=HP-GC/MS/IRD
##STATE=gas
##XUNITS=1/CM
##YUNITS=ABSORBANCE
##XFACTOR=1.0
##YFACTOR=0.000002500
##DELTAX=4.0
##FIRSTX=550.0
##LASTX=3846.0
##FIRSTY=0.001828
##MAXX=3846
##MINX=550
##MAXY=0.025
##MINY=0
##NPOINTS=825
##XYDATA=(X++(Y..Y))
550.0 731 1003 1419 1945 2099 1943 1567 962 551 376
590.0 275 182 115 86 59 25 0 15 91 169
630.0 249 380 537 748 1001 1361 1919 2625 3326 3889
670.0 4367 4764 5003 5428 6270 7344 8412 8754 8455 8134
710.0 8045 8585 9490 10000 9711 8642 7208 6269 5886 5615
750.0 5276 4843 4246 3423 2521 1783 1264 913 690 550
790.0 497 491 472 505 555 622 704 757 790 693
830.0 581 488 390 332 276 228 185 155 160 184
870.0 215 271 345 418 471 516 550 554 590 656
910.0 745 843 900 910 897 831 745 690 655 592
950.0 535 462 380 314 247 216 182 148 149 170
990.0 204 256 326 403 503 586 639 832 1263 1724
1030.0 1880 1773 1466 917 502 370 375 446 548 642
1070.0 681 678 637 552 449 355 283 241 199 166
1110.0 155 140 130 129 146 180 198 198 195 198
1150.0 185 141 120 119 111 118 149 190 235 290
1190.0 345 390 397 371 312 255 246 260 291 379
1230.0 523 719 1002 1368 1659 1740 1634 1306 930 739
1270.0 702 788 978 1262 1621 1957 2179 2263 2191 2008
1310.0 1820 1730 1772 1900 2019 2002 1816 1514 1129 791
1350.0 569 418 329 291 263 250 245 236 230 239
1390.0 232 240 254 249 274 309 382 525 657 831
1430.0 1098 1493 1995 2443 2788 2932 2874 2647 2244 1791
1470.0 1443 1194 991 1016 1465 2295 3061 3291 3089 2473
1510.0 1433 715 515 449 367 312 300 346 355 278
1550.0 248 313 429 407 376 427 494 528 541 656
1590.0 850 1088 1345 1507 1465 1245 957 630 381 263
1630.0 211 235 215 183 197 249 258 165 145 155
1670.0 162 153 114 155 160 82 137 212 178 120
1710.0 109 177 221 170 163 225 276 237 196 215
1750.0 244 211 174 167 177 210 215 224 292 385
1790.0 501 563 543 491 375 271 210 180 166 160
1830.0 155 147 160 203 225 229 256 288 313 343
1870.0 351 339 336 313 281 233 184 149 127 122
1910.0 123 141 185 231 277 341 407 436 466 499
1950.0 504 477 417 329 226 132 75 57 52 40
1990.0 38 44 38 34 35 35 40 44 40 44
2030.0 47 44 47 54 53 43 39 37 38 30
2070.0 20 19 22 24 21 18 16 21 27 27
2110.0 27 35 31 26 15 2 12 18 13 14
2150.0 19 17 14 9 18 27 22 23 27 29
2190.0 27 24 39 48 52 46 44 49 42 31
2230.0 30 32 22 23 29 33 33 34 36 28
2270.0 25 23 19 27 33 33 33 30 27 44
2310.0 70 89 108 103 93 87 80 75 75 77
2350.0 78 74 62 58 52 41 38 40 30 25
2390.0 29 28 30 28 27 35 37 25 28 36
2430.0 37 36 32 33 37 35 36 40 26 24
2470.0 34 21 5 2 7 13 14 13 10 2
2510.0 7 20 18 18 20 20 21 14 15 26
2550.0 26 22 19 13 11 17 21 23 31 34
2590.0 37 47 50 48 53 50 46 50 49 46
2630.0 52 59 60 63 68 69 61 50 37 43
2670.0 47 36 41 53 59 58 60 62 57 49
2710.0 37 22 16 20 28 37 45 47 46 39
2750.0 35 32 36 52 64 81 102 132 149 161
2790.0 163 155 154 144 132 131 144 175 208 238
2830.0 290 359 437 530 623 708 783 841 912 1003
2870.0 1118 1223 1296 1308 1274 1238 1259 1360 1528 1733
2910.0 1899 1978 1987 1929 1843 1819 1900 2096 2382 2714
2950.0 3072 3444 3877 4267 4413 4305 3918 3298 2707 2330
2990.0 2293 2575 2888 3079 3166 3157 3161 3437 4051 4951
3030.0 5873 6428 6482 5991 5034 4110 3627 3669 4232 5111
3070.0 5763 5936 5667 4866 3965 3370 2987 2664 2333 1976
3110.0 1637 1335 1038 754 515 362 267 208 178 158
3150.0 146 142 142 132 127 136 121 100 82 65
3190.0 64 57 38 33 44 41 36 32 36 57
3230.0 52 30 35 35 24 21 21 26 18 15
3270.0 22 15 14 12 13 14 15 27 34 30
3310.0 35 42 26 23 32 34 27 33 36 41
3350.0 39 16 0 10 15 2 18 37 34 32
3390.0 33 34 34 38 32 24 33 40 30 30
3430.0 28 36 43 34 39 29 19 21 22 31
3470.0 34 19 13 17 9 0 14 35 44 41
3510.0 20 11 25 41 61 41 28 27 24 49
3550.0 56 57 53 67 91 67 27 11 39 81
3590.0 56 36 40 35 58 75 68 71 47 80
3630.0 113 59 56 87 137 151 106 86 73 92
3670.0 133 149 106 56 83 101 52 38 50 66
3710.0 97 86 54 73 77 82 127 112 145 183
3750.0 154 91 43 38 53 68 36 28 42 43
3790.0 41 53 76 89 68 39 61 108 111 75
3830.0 63 93 106 73 40
##END=
