##TITLE=2-(1-Naphthyl)-5-phenyl-1,3,4-oxadiazole
##JCAMP-DX=4.24
##DATA TYPE=INFRARED SPECTRUM
##ORIGIN=EPA-IR VAPOR PHASE LIBRARY
##OWNER=SRD/NIST
Collection (C) 2018 copyright by the U.S. Secretary of Commerce
on behalf of the United States of America. All rights reserved.
##CAS REGISTRY NO=897-18-7
##MOLFORM=C 18 H 12 N 2 O
##$NIST SOURCE=MSDC-IR
##STATE=gas
##XUNITS=1/CM
##YUNITS=ABSORBANCE
##XFACTOR=1.
##YFACTOR=0.001
##DELTAX=1.92898
##FIRSTX=549.8
##LASTX=4000.7
##FIRSTY=1.566
##MAXX=4000.7
##MINX=549.759
##MAXY=0.015966
##MINY=0
##NPOINTS=1790
##XYDATA=(X++(Y..Y))
549.759 1.566 0.8674 0.8611 1.0346 0.9771 1.2386 1.626 1.966 1.446 1.1548
569.049 2.226 2.856 1.816 0.6459 0.8064 0.9432 0.8564 0.7232 0.944 1.516
588.339 1.0093 0.5825 0.865 0.9999 0.9698 0.7939 1.0102 1.1647 1.3421 1.686
607.628 1.666 1.416 1.2087 1.396 1.576 1.3212 1.1387 1.366 1.636 1.376
626.918 1.0363 0.7429 0.687 0.9201 0.7472 0.7629 0.9258 1.0892 1.2477 1.3101
646.208 1.406 1.706 1.616 1.906 2.536 2.596 2.766 2.896 2.936 2.876
665.498 2.476 2.296 2.466 2.666 2.926 3.416 3.776 3.806 4.206 5.296
684.787 6.626 7.686 8.396 9.136 9.726 9.946 9.726 8.176 6.656 6.426
704.077 6.056 5.186 4.446 3.436 3.496 3.846 3.386 3.286 3.266 3.576
723.367 3.566 2.866 2.476 2.426 2.716 3.556 3.956 3.646 4.056 4.416
742.657 3.746 3.396 3.466 3.346 3.336 3.696 4.156 4.326 5.326 6.976
761.947 8.746 11.146 13.346 14.896 15.966 15.936 14.356 11.906 9.466 7.746
781.236 6.346 5.006 4.186 3.976 4.196 4.926 5.816 6.956 7.836 8.116
800.526 8.346 7.776 6.826 6.056 5.226 4.176 3.396 3.336 3.196 2.776
819.816 2.646 2.306 1.926 1.876 1.906 2.036 1.956 1.496 1.566 1.706
839.106 1.3035 1.3086 1.476 1.3315 1.0108 1.0482 1.0583 1.1457 1.506 1.386
858.395 1.0769 1.476 1.996 1.786 1.496 1.376 1.416 1.746 1.896 1.536
877.685 1.1782 1.0019 1.0296 1.2274 1.3334 1.3009 1.476 1.386 1.2251 1.446
896.975 1.406 0.7869 0.5124 0.9764 1.0031 0.9761 1.0344 0.9027 0.7958 0.9513
916.265 1.2015 1.2931 1.576 1.646 1.576 1.2417 0.8806 0.9218 1.2499 1.846
935.555 1.846 1.816 2.126 2.046 2.036 2.466 2.926 3.076 2.626 2.536
954.844 2.826 2.996 3.156 3.356 3.496 3.346 3.216 3.146 3.356 3.766
974.134 4.206 4.256 4.146 4.296 4.266 3.656 3.176 3.186 3.276 3.466
993.424 3.106 3.216 3.956 4.126 4.466 5.386 6.626 7.166 7.076 7.156
1012.714 7.026 6.526 5.856 5.836 5.906 5.716 5.556 4.676 4.356 3.996
1032.003 3.306 3.126 2.406 1.996 2.546 2.906 1.806 1.3362 1.866 2.126
1051.293 2.966 3.806 4.246 4.826 5.576 5.866 5.636 6.276 7.516 7.286
1070.583 6.426 5.866 5.446 5.066 4.476 4.656 5.476 5.336 4.656 4.916
1089.873 5.336 4.476 3.256 2.566 2.106 2.476 2.396 1.2746 2.116 2.946
1109.163 1.476 0.8606 1.576 1.666 2.376 2.666 1.926 2.266 1.756 1.836
1128.452 2.596 2.606 3.326 4.066 4.016 3.546 2.516 1.936 2.186 1.936
1147.742 2.056 2.116 1.356 1.806 2.796 2.496 1.436 1.616 2.386 2.096
1167.032 2.066 2.506 3.096 3.056 2.546 2.986 3.496 3.566 4.126 4.136
1186.322 3.626 3.756 3.706 3.866 4.376 4.386 4.126 4.326 4.376 3.936
1205.611 4.676 4.326 2.766 3.046 4.006 4.116 3.616 3.146 1.946 1.1001
1224.901 2.176 2.546 1.356 2.436 3.896 3.546 3.446 3.276 3.896 4.716
1244.191 5.676 6.746 6.806 6.866 6.106 4.556 3.456 2.916 2.516 2.256
1263.481 2.186 2.566 2.946 2.796 2.676 2.736 2.746 2.416 2.146 2.226
1282.771 2.376 2.606 2.336 1.796 1.546 1.2945 1.3073 1.3406 1.2332 1.356
1302.060 1.406 1.2896 1.3389 1.536 1.656 1.566 1.546 1.566 1.536 1.556
1321.350 1.546 1.536 1.636 1.796 1.926 2.196 2.256 2.296 2.416 2.306
1340.640 2.016 1.886 1.946 1.856 1.796 1.856 1.916 1.876 1.816 1.906
1359.930 2.096 2.186 2.246 2.146 2.116 2.086 2.046 2.026 1.856 1.926
1379.219 2.076 2.216 2.246 2.356 2.776 3.096 3.336 3.636 3.886 4.066
1398.509 4.236 4.176 3.886 3.596 3.216 2.806 2.526 2.236 2.036 2.016
1417.799 1.966 2.066 2.186 2.196 2.096 2.016 2.066 2.166 2.126 2.316
1437.089 2.666 2.886 3.356 3.936 4.576 5.086 5.336 5.276 4.836 4.276
1456.378 3.666 3.086 2.766 2.796 2.996 3.016 3.176 3.396 3.576 3.736
1475.668 3.766 3.856 4.116 4.496 5.116 5.776 6.586 7.226 7.146 6.696
1494.958 5.876 4.866 4.216 3.906 3.806 3.986 4.016 3.866 3.966 4.086
1514.248 4.146 4.216 4.286 4.446 4.476 4.826 5.646 6.896 8.346 9.656
1533.538 11.036 12.076 12.186 11.566 10.826 10.266 9.996 10.046 10.076 9.866
1552.827 9.536 8.696 7.446 6.266 5.116 4.206 3.806 3.616 3.336 2.826
1572.117 2.646 2.906 3.076 3.256 3.216 3.186 3.246 3.226 3.066 2.946
1591.407 2.676 2.226 2.066 1.856 1.756 1.756 1.726 1.626 1.606 1.586
1610.697 1.676 1.856 1.776 1.826 1.756 1.526 1.506 1.486 1.3048 1.1367
1629.986 1.113 1.2149 1.25 1.366 1.3132 1.1327 1.246 1.2639 1.1056 1.0964
1649.276 1.1677 0.9392 1.0818 1.3056 1.1818 1.2311 1.2058 1.244 1.3277 1.2669
1668.566 1.2606 1.1533 1.128 1.276 1.2588 1.1403 1.1642 1.1911 1.1638 1.303
1687.856 1.3415 1.386 1.466 1.3418 1.3356 1.406 1.526 1.636 1.556 1.556
1707.146 1.526 1.516 1.556 1.566 1.516 1.436 1.426 1.3364 1.335 1.3063
1726.435 1.1935 1.2074 1.2291 1.1746 1.1903 1.2152 1.2323 1.2125 1.2068 1.256
1745.725 1.297 1.2151 1.0862 1.1362 1.2693 1.3131 1.2505 1.2756 1.396 1.386
1765.015 1.366 1.366 1.356 1.2671 1.1974 1.2733 1.2402 1.2833 1.2845 1.1102
1784.305 1.0293 1.0695 1.1092 1.0489 0.9934 1.0999 1.2104 1.3094 1.416 1.496
1803.594 1.556 1.546 1.666 1.566 1.366 1.376 1.556 1.616 1.556 1.576
1822.884 1.516 1.476 1.506 1.436 1.386 1.476 1.426 1.2586 1.2716 1.3175
1842.174 1.224 1.2146 1.2435 1.2791 1.2347 1.1432 1.1491 1.1954 1.1212 1.1723
1861.464 1.2235 1.1395 1.1882 1.304 1.3243 1.2136 1.2333 1.366 1.315 1.3295
1880.754 1.334 1.2835 1.3443 1.1976 1.1898 1.3167 1.446 1.446 1.386 1.366
1900.043 1.3225 1.356 1.2884 1.305 1.2746 1.179 1.2974 1.376 1.426 1.496
1919.333 1.466 1.536 1.516 1.446 1.466 1.476 1.576 1.636 1.586 1.646
1938.623 1.736 1.676 1.556 1.586 1.526 1.3202 1.446 1.496 1.426 1.446
1957.913 1.406 1.406 1.426 1.356 1.396 1.376 1.1864 1.1587 1.1226 0.9538
1977.202 0.8686 0.9278 0.8666 0.7382 0.8291 0.9706 1.0044 0.9592 1.0106 0.885
1996.492 0.7007 0.798 0.8895 0.8021 0.9005 0.9838 0.8214 0.8023 0.9208 0.7998
2015.782 0.6544 0.7453 0.7617 0.8389 0.8616 0.8002 0.9076 1.0071 0.9549 0.9037
2035.072 0.8441 0.8741 0.849 0.7462 0.9412 1.0701 0.9061 0.8326 0.758 0.8028
2054.362 1.008 0.898 0.7109 0.8 0.9387 0.9546 0.8604 0.695 0.6959 0.8213
2073.651 0.8559 0.8379 0.8433 0.8779 0.9846 1.028 0.9052 0.8008 0.7827 0.8865
2092.941 1.0503 1.0493 0.9395 0.8855 0.923 0.8699 0.8081 0.8509 0.772 0.8494
2112.231 0.8341 0.6465 0.647 0.6526 0.6666 0.711 0.8071 0.7847 0.663 0.6005
2131.521 0.5921 0.6679 0.8318 0.8613 0.8991 0.9234 0.7781 0.6558 0.7015 0.7626
2150.810 0.7885 0.8516 0.7546 0.5918 0.5875 0.6579 0.5537 0.41319 0.5385 0.6985
2170.100 0.6895 0.613 0.7038 0.7574 0.6311 0.6107 0.6526 0.7589 0.7668 0.6619
2189.390 0.541 0.5684 0.6353 0.5825 0.7589 0.8861 0.8982 0.8793 0.7399 0.6951
2208.680 0.6636 0.6569 0.6748 0.7567 0.8514 0.871 0.8832 0.7111 0.5421 0.6845
2227.970 0.7543 0.6879 0.6206 0.6506 0.7489 0.7367 0.6952 0.7399 0.8578 0.967
2247.259 0.9681 0.9444 0.8645 0.7193 0.7891 0.8375 0.9096 0.8894 0.6789 0.7175
2266.549 0.8276 0.7193 0.6016 0.7025 0.7831 0.6962 0.7873 0.8126 0.6681 0.669
2285.839 0.7146 0.6735 0.8437 0.8356 0.6466 0.6946 0.7461 0.651 0.7221 0.9055
2305.129 0.8699 0.8171 0.5844 0.5578 0.7008 0.7007 0.7257 0.8085 0.6454 0.6049
2324.418 0.6072 0.4781 0.5227 0.5436 0.6738 0.669 0.4891 0.5697 0.7916 0.8539
2343.708 0.85 0.8054 0.6896 0.5677 0.6558 0.7233 0.7116 0.608 0.35834 0.5017
2362.998 0.777 0.6704 0.5848 0.5835 0.7508 0.8461 0.6411 0.6309 0.7637 0.9466
2382.288 0.8592 0.666 0.7629 0.7139 0.5896 0.6604 0.5652 0.5365 0.688 0.689
2401.578 0.8093 0.9461 0.8775 0.7629 0.7947 0.8977 0.8806 0.8364 0.7179 0.6349
2420.867 0.7663 0.833 0.5863 0.7697 0.9466 0.717 0.7848 0.7725 0.6619 0.6283
2440.157 0.5445 0.5065 0.6085 0.6779 0.5892 0.6557 0.6814 0.44316 0.37307 0.5067
2459.447 0.7178 0.8479 0.6749 0.6638 0.6737 0.6876 0.8446 0.8007 0.6658 0.592
2478.737 0.6009 0.6162 0.639 0.5925 0.462 0.43468 0.5324 0.7109 0.8125 0.7617
2498.026 0.6744 0.6091 0.5982 0.6892 0.8885 0.8535 0.7904 0.6906 0.625 0.8063
2517.316 0.7127 0.6909 0.8504 0.7891 0.8455 1.0518 0.9414 0.6801 0.7389 0.8488
2536.606 0.6857 0.5668 0.7803 0.9759 0.9387 0.7065 0.4918 0.565 0.6463 0.733
2555.896 0.8249 0.7925 0.7572 0.6403 0.7048 0.816 0.7846 0.9625 0.9439 0.7638
2575.186 0.7696 0.8013 0.7538 0.6901 0.5884 0.5392 0.42251 0.42282 0.6113 0.6952
2594.475 0.7325 0.7031 0.6252 0.5173 0.585 0.477 0.5206 0.7417 0.6836 0.7607
2613.765 0.8516 0.8363 0.9022 0.8803 0.7838 0.9108 1.0413 0.792 0.7362 0.8009
2633.055 0.6243 0.6606 0.8488 0.611 0.4554 0.5594 0.6309 0.8241 0.9542 0.8996
2652.345 0.7916 0.8631 0.7638 0.7899 0.9144 0.7588 0.6065 0.7441 0.8385 0.5805
2671.634 0.4859 0.6432 0.8103 0.7897 0.475 0.225 0.4491 0.8154 0.5404 0.231
2690.924 0.6211 0.9116 0.7293 0.6514 0.7514 0.7379 0.6039 0.5923 0.7687 0.713
2710.214 0.4978 0.6094 0.6694 0.563 0.543 0.5296 0.6117 0.7326 0.762 0.5356
2729.504 0.585 0.7993 0.7333 0.752 0.677 0.3589 0.3052 0.4898 0.6696 0.6045
2748.794 0.6721 0.8096 0.8474 0.8707 0.5888 0.41513 0.6376 0.7466 0.5952 0.5084
2768.083 0.37093 0.2957 0.42252 0.7237 0.5805 0.33974 0.6439 0.7552 0.5074 0.629
2787.373 0.7323 0.64 0.6537 0.6148 0.43457 0.5268 0.7967 0.6489 0.3008 0.144
2806.663 0.201 0.2757 0.4799 0.5994 0.6091 0.6117 0.6697 0.743 0.39197 0.4424
2825.953 0.7078 0.4696 0.5205 0.5765 0.40362 0.44539 0.5628 0.6108 0.43893 0.35788
2845.242 0.44269 0.6191 0.7205 0.4991 0.39877 0.5926 0.6534 0.5601 0.6391 0.45
2864.532 0.137 0.4719 0.6538 0.3237 0.2524 0.5591 0.8607 0.4966 0.44426 0.69
2883.822 0.7136 0.6684 0.38947 0.4426 0.6816 0.8653 0.8369 0.7041 0.5132 0.4983
2903.112 0.5426 0.41581 0.42015 0.5546 0.5628 0.5316 0.6621 0.6117 0.7033 0.7606
2922.401 0.6302 0.5371 0.5165 0.39155 0.5721 0.8944 0.9583 0.7079 0.485 0.5759
2941.691 0.6954 0.6028 0.5701 0.707 0.6119 0.6214 0.8328 1.0081 0.973 0.828
2960.981 0.5659 0.4564 0.7944 0.955 0.9596 0.8104 0.5767 0.6485 0.8377 1.0082
2980.271 0.8788 0.7244 0.772 1.0772 1.0115 0.5729 0.7584 1.2554 1.556 1.806
2999.561 1.1966 0.8109 1.2013 1.1542 1.3294 1.416 1.2389 1.446 1.516 1.656
3018.850 1.836 1.666 1.666 1.736 1.736 2.066 2.146 2.056 2.236 2.246
3038.140 2.276 2.776 3.206 3.306 3.576 4.196 5.036 5.806 6.806 7.986
3057.430 8.796 9.636 10.126 9.846 9.256 8.446 8.376 8.376 7.966 7.676
3076.720 7.076 6.686 6.086 5.066 4.666 4.526 4.556 4.616 4.396 4.486
3096.009 4.166 3.726 3.606 3.516 3.186 2.586 2.446 2.416 2.306 2.016
3115.299 1.736 1.526 1.2987 1.3407 1.3005 1.142 1.1622 1.0128 0.6153 0.6089
3134.589 0.7962 0.5497 0.39106 0.7087 0.7944 0.7202 0.611 0.8135 0.6457 0.2543
3153.879 0.6816 0.7723 0.6833 0.8803 1.0094 0.9062 0.8414 0.6811 0.36156 0.223
3173.169 0.495 0.7807 0.8116 1.065 1.084 0.6094 0.3368 0.4601 0.5935 0.4828
3192.458 0.5124 0.836 1.0739 0.944 0.42009 0.23 0.41658 0.4495 0.4519 0.2822
3211.748 0.34521 0.8625 0.9871 0.7349 0.5624 0.6477 0.9807 1.1115 0.7678 0.6305
3231.038 0.6565 0.5003 0.2945 0.4516 0.489 0.574 0.8041 0.6159 0.6101 0.42213
3250.328 0.482 0.8432 1.0365 0.8876 0.56 0.8149 0.6614 0.5279 0.9115 0.7287
3269.617 0.36118 0.5322 0.8838 0.7954 0.6755 0.5647 0.543 0.7133 0.8246 0.8529
3288.907 0.6283 0.4642 0.40312 0.4461 0.42723 0.739 0.9638 0.4651 0.3126 0.43767
3308.197 0.285 0.3302 0.5434 0.5667 0.6007 0.7756 0.773 0.5283 0.6546 0.7817
3327.487 0.8651 1.0344 0.7005 0.53 0.664 0.5954 0.33892 0.3247 0.35845 0.5922
3346.777 0.8471 0.5078 0.7697 0.96 0.6526 0.6429 0.3201 0.351415 0.741 0.7586
3366.066 0.9826 1.0939 0.8527 0.4661 0.43178 0.42732 0.34318 0.5946 0.7554 0.9718
3385.356 0.8246 0.38531 0.4752 0.6973 0.8692 0.8509 0.5981 0.5556 0.6844 0.8672
3404.646 1.0485 1.0624 0.8496 0.8074 0.9955 0.9644 0.6886 0.7004 0.6944 0.8097
3423.936 0.8582 0.5681 0.4793 0.541 0.6517 0.6098 0.6512 0.6552 0.7242 0.6852
3443.225 0.5121 0.7292 0.7615 0.9483 1.1154 0.9406 0.9116 0.4891 0.3086 0.4952
3462.515 0.38863 0.5245 0.8439 0.7701 0.5958 0.4739 0.6041 0.7598 0.38418 0.218
3481.805 0.2635 0.33894 0.4846 0.525 0.5515 0.8553 1.0024 0.6684 0.6149 0.6772
3501.095 0.5737 0.4735 0.2643 0.38298 0.9114 0.7547 0.5709 0.7931 0.4599 0.347145
3520.385 0.6337 0.7477 0.7486 0.8029 0.808 0.6223 0.5816 0.6297 0.5391 0.493
3539.674 0.5804 0.33686 0.3161 0.43044 0.4841 0.7376 0.8846 0.9 0.7375 0.403
3558.964 0.33846 0.5517 0.8009 1.1107 0.9177 0.5284 0.4577 0.349906 0.5867 0.8443
3578.254 0.7391 0.9205 0.9465 0.9802 1.0135 1.0277 0.9683 0.8183 0.9082 0.8534
3597.544 0.7951 0.7968 0.794 1.0513 1.2723 1.0652 0.9415 0.9099 0.7437 0.918
3616.833 1.356 1.436 1.0435 0.7691 0.9052 0.6721 0.6659 1.0631 1.0126 0.6482
3636.123 0.42181 0.4698 0.5869 0.8128 0.8174 0.8896 0.9833 0.7696 0.6575 0.7372
3655.413 0.6333 0.6072 0.9913 0.9846 0.742 0.9722 0.9509 0.5358 0.7792 0.8616
3674.703 0.8053 1.1412 1.0082 1.1649 1.332 1.1769 1.0113 1.1228 1.1508 0.6698
3693.993 0.9387 1.396 1.0312 0.9452 0.8469 0.7616 1.1859 0.9157 0.8191 1.0107
3713.282 1.0296 1.0053 0.6664 0.5399 0.7148 0.9814 1.2003 1.0232 0.5325 0.41855
3732.572 0.5341 0.38744 0.145 0.8658 1.3443 1.2303 1.3323 1.0157 0.8993 0.608
3751.862 0.6539 0.8202 0.185 0.163 1.0606 1.0227 0.5696 0.7933 0.6734 0.42082
3771.152 1.0342 1.2529 0.897 0.9029 1.2498 1.1727 0.7751 0.8504 1.0671 1.526
3790.441 1.2863 0.9922 1.0476 0.886 0.6293 0.4567 0.5986 0.9067 0.933 0.6724
3809.731 0.4489 0.5139 0.7528 0.4817 0.5729 0.9062 0.9215 0.6536 0.4526 0.6431
3829.021 0.7312 0.8853 0.9266 0.7461 0.7331 0.903 0.8805 0.8735 0.7283 0.6358
3848.311 0.6648 0.7387 0.8079 0.9104 1.03 0.9917 1.3104 1.0603 0.7552 0.9444
3867.601 1.0316 0.8939 0.5423 0.714 0.8977 0.5836 0.8866 1.0169 0.836 0.8647
3886.890 0.5765 0.6087 0.9633 0.9461 0.9711 1.0861 1.0121 1.1515 1.2707 0.9429
3906.180 0.4664 0.39832 0.6309 0.7566 0.9091 0.9246 0.8331 0.9708 0.9413 0.9388
3925.470 1.0092 1.0373 0.7499 0.5386 0.6536 0.2932 0 0.5816 1.1152 0.9178
3944.760 0.5042 0.39819 0.4532 0.7141 0.8771 0.817 0.5311 0.3211 0.5298 0.5177
3964.049 0.6309 0.8834 1.0877 1.1369 1.0344 0.8385 0.331 0.361 0.5337 0.498
3983.339 0.2864 0.4835 1.0047 0.9461 0.7667 0.7394 0.5458 0.234 0.34074 0.6521
##END=
