##TITLE=6-Amino-3-bromo-2,4-dimethylpyridine
##JCAMP-DX=4.24
##DATA TYPE=INFRARED SPECTRUM
##ORIGIN=EPA-IR VAPOR PHASE LIBRARY
##OWNER=SRD/NIST
Collection (C) 2018 copyright by the U.S. Secretary of Commerce
on behalf of the United States of America. All rights reserved.
##CAS REGISTRY NO=89856-44-0
##MOLFORM=C 7 H 9 Br N 2
##$NIST SOURCE=MSDC-IR
##STATE=gas
##XUNITS=1/CM
##YUNITS=ABSORBANCE
##XFACTOR=1.
##YFACTOR=0.001
##DELTAX=1.92898
##FIRSTX=549.8
##LASTX=4000.7
##FIRSTY=6.817
##MAXX=4000.7
##MINX=549.759
##MAXY=0.083387
##MINY=0
##NPOINTS=1790
##XYDATA=(X++(Y..Y))
549.759 6.817 6.637 5.727 4.547 4.947 4.907 5.297 6.127 6.557 6.417
569.049 6.487 7.797 8.547 9.377 9.807 9.327 10.307 11.817 12.047 11.757
588.339 11.907 12.587 12.517 12.257 12.647 12.837 12.597 12.107 11.527 10.757
607.628 10.317 9.847 9.087 8.807 8.537 8.517 7.767 6.857 7.377 7.617
626.918 7.047 6.647 6.007 5.347 4.917 4.507 4.397 3.667 3.137 3.787
646.208 4.097 4.127 4.217 4.297 4.117 3.757 3.747 3.737 3.897 4.287
665.498 4.317 4.007 3.657 3.697 3.837 3.917 4.277 4.887 5.387 5.537
684.787 5.747 6.067 6.137 6.477 6.997 7.247 7.497 8.077 8.777 8.997
704.077 8.867 8.687 8.677 8.867 9.007 9.117 9.097 8.687 8.777 8.687
723.367 8.327 8.537 8.027 8.057 8.577 8.267 7.757 7.477 7.577 7.307
742.657 7.007 7.047 6.817 6.347 6.097 5.947 6.117 6.027 5.547 5.467
761.947 5.577 5.847 5.957 5.567 5.947 6.347 6.247 5.947 5.927 6.347
781.236 6.277 5.947 6.057 6.237 6.387 7.047 7.037 6.027 5.577 6.197
800.526 6.117 6.257 6.507 5.997 5.997 6.067 5.937 6.057 6.487 7.767
819.816 9.147 8.647 8.577 9.697 10.537 11.707 12.537 12.997 12.697 11.507
839.106 10.727 10.077 9.027 8.037 7.617 6.867 6.167 5.857 5.207 4.487
858.395 4.227 4.287 4.217 3.817 3.417 3.277 3.397 3.217 2.577 2.587
877.685 2.707 2.837 2.657 2.377 2.397 2.937 3.357 2.917 2.827 3.167
896.975 3.267 3.067 2.727 2.957 3.327 3.317 3.617 3.827 3.947 3.707
916.265 3.877 4.077 4.137 4.997 5.537 5.827 6.307 6.227 6.077 6.197
935.555 6.237 6.217 6.167 6.177 5.677 5.237 4.747 3.927 3.707 3.727
954.844 3.497 3.397 3.677 3.437 3.137 2.967 2.667 2.957 3.097 2.947
974.134 2.517 2.617 2.947 2.637 2.287 2.227 2.087 2.167 2.637 2.437
993.424 2.457 2.917 3.017 2.907 3.097 4.067 4.827 5.327 6.107 7.357
1012.714 9.297 11.007 11.957 13.357 15.397 16.227 16.207 16.917 16.957 15.517
1032.003 13.717 12.007 11.047 10.237 8.997 7.827 7.077 6.237 5.117 4.817
1051.293 4.637 3.507 2.967 3.167 3.487 3.907 3.217 2.657 4.247 5.467
1070.583 4.387 2.667 1.957 2.047 2.157 2.587 3.497 3.997 3.737 4.117
1089.873 3.687 2.337 3.457 4.457 3.747 3.417 2.477 1.977 3.547 4.077
1109.163 2.717 2.397 2.957 2.747 2.517 2.837 2.507 3.007 2.967 1.3076
1128.452 1.717 2.457 2.847 3.497 2.897 3.327 3.037 1.937 2.017 1.827
1147.742 1.557 1.847 1.697 1.3437 1.557 1.967 1.937 1.4078 1.907 2.087
1167.032 1.3246 1.687 2.937 2.627 1.887 2.327 2.647 3.187 3.417 3.207
1186.322 3.487 3.957 5.247 7.257 10.577 13.127 15.557 18.067 17.587 17.407
1205.611 16.677 15.867 15.097 12.577 9.117 5.987 5.727 4.177 3.267 4.367
1224.901 3.657 4.047 4.527 4.117 3.807 4.227 5.047 5.347 5.847 5.897
1244.191 5.877 5.737 5.387 4.817 4.237 4.427 4.297 3.417 2.877 3.077
1263.481 3.507 3.347 3.087 2.997 2.437 2.197 2.567 2.737 2.357 2.367
1282.771 2.747 2.557 2.617 2.737 2.657 2.577 2.547 2.467 2.307 2.137
1302.060 2.147 2.127 2.187 2.497 2.427 2.237 2.237 2.597 2.837 2.817
1321.350 2.937 3.227 3.517 3.617 4.037 4.737 5.577 6.717 7.977 9.207
1340.640 10.297 11.137 11.757 12.037 12.107 12.037 11.497 10.547 9.397 8.427
1359.930 7.847 7.637 7.507 7.627 8.517 9.737 11.287 12.857 13.747 14.187
1379.219 14.717 15.427 16.287 16.777 16.967 17.747 19.867 23.407 28.017 33.507
1398.509 39.447 45.027 49.627 53.497 56.147 57.077 56.067 52.787 47.607 41.667
1417.799 36.007 30.907 26.767 23.397 20.807 19.177 18.197 17.767 17.937 18.477
1437.089 19.337 20.297 21.707 23.477 24.917 26.477 28.127 29.747 31.037 31.737
1456.378 31.717 31.067 29.837 27.817 25.427 22.787 20.247 17.727 15.347 13.487
1475.668 12.207 11.037 10.257 9.477 8.817 8.437 7.997 7.717 7.427 7.187
1494.958 7.087 6.987 7.087 7.047 6.947 7.067 7.097 7.357 7.697 7.837
1514.248 7.967 8.157 8.607 9.237 10.037 11.117 12.297 13.517 14.727 16.057
1533.538 17.757 19.407 20.817 22.387 23.857 24.867 25.577 26.417 27.217 27.687
1552.827 27.847 28.037 28.277 28.177 27.577 27.087 26.847 26.377 25.837 25.437
1572.117 25.787 26.367 26.647 27.777 29.617 31.657 34.197 37.217 40.627 44.637
1591.407 49.307 54.727 60.287 65.797 71.087 75.867 79.817 82.497 83.387 82.347
1610.697 79.477 75.037 69.477 62.857 55.687 48.737 42.047 36.047 31.277 27.287
1629.986 23.917 20.907 18.447 16.407 14.427 12.717 11.317 10.327 9.497 8.667
1649.276 8.117 7.827 7.307 6.657 6.207 5.887 5.447 5.167 4.757 4.497
1668.566 4.617 4.287 3.857 3.797 3.607 3.407 3.337 3.207 3.137 2.897
1687.856 2.637 2.587 2.507 2.367 2.327 2.397 2.377 2.277 2.217 1.967
1707.146 1.907 2.067 2.067 2.047 1.937 1.967 2.007 1.917 1.977 1.907
1726.435 1.877 1.947 1.867 1.707 1.637 1.647 1.527 1.517 1.687 1.787
1745.725 1.647 1.507 1.517 1.517 1.497 1.547 1.447 1.2493 1.3073 1.3678
1765.015 1.437 1.587 1.507 1.4065 1.427 1.3964 1.3307 1.2274 1.2756 1.3484
1784.305 1.325 1.2051 1.2775 1.417 1.487 1.427 1.2746 1.2621 1.2574 1.2592
1803.594 1.198 1.2551 1.3205 1.1851 1.1949 1.2811 1.1425 1.0971 1.2773 1.2245
1822.884 1.0688 1.1454 1.1719 1.1263 1.1401 1.2304 1.2939 1.3003 1.2692 1.0794
1842.174 0.9717 0.9689 1.0262 1.174 1.126 0.9529 0.8508 0.8231 0.9422 0.9783
1861.464 0.8224 0.8505 0.9949 0.9034 0.991 1.1557 1.11 1.0046 0.9842 1.1985
1880.754 1.2026 1.0176 0.9302 0.9232 1.0226 0.9989 1.1057 1.2548 1.1479 1.1639
1900.043 1.1007 1.0115 1.0819 1.1953 1.2415 1.2423 1.2275 1.219 1.2796 1.3075
1919.333 1.2964 1.2563 1.2457 1.3282 1.2113 1.1457 1.256 1.2873 1.2806 1.3357
1938.623 1.3496 1.1783 1.2688 1.3894 1.3647 1.3323 1.2861 1.1781 1.2689 1.3549
1957.913 1.1712 1.1689 1.1561 1.217 1.2539 1.1877 1.2535 1.2512 1.3291 1.4074
1977.202 1.447 1.437 1.3086 1.3144 1.2656 1.1518 1.173 1.1861 1.1306 1.0108
1996.492 1.0168 1.0082 0.9838 1.0997 1.0794 1.1063 1.1728 1.2584 1.2346 1.1443
2015.782 1.0948 1.0566 0.9803 1.0819 1.2904 1.1804 1.083 1.0928 1.0189 1.011
2035.072 1.0797 1.0935 1.1422 1.1078 0.9443 1.0052 1.0612 1.0206 1.1144 1.2156
2054.362 1.2399 1.1253 1.017 1.0563 0.8591 0.7715 0.9395 0.9875 1.0639 1.0147
2073.651 0.9403 0.7377 0.7599 1.0048 1.1045 1.146 1.1144 1.1686 1.2146 1.1462
2092.941 1.0926 1.0239 1.0223 0.962 0.858 0.8486 1.0014 1.087 0.9005 0.8653
2112.231 0.9314 1.0439 1.1239 1.1082 1.1949 1.3014 1.2379 1.189 1.185 1.2365
2131.521 1.3038 1.2071 1.0694 1.0044 1.042 1.0729 0.9995 1.0959 1.1081 1.0376
2150.810 1.0386 0.9075 0.9089 0.9666 0.9759 1.0643 1.0605 1.0455 1.1641 1.1065
2170.100 1.0237 1.0675 1.1158 1.0583 1.0439 1.0063 0.8705 0.9627 1.06 0.9118
2189.390 0.9743 1.1948 1.1804 1.0788 1.049 1.0288 0.9007 0.9361 1.0195 0.9922
2208.680 1.1322 1.3005 1.2549 0.9837 0.885 1.1254 1.2968 1.2883 1.2424 1.2205
2227.970 1.1566 1.1186 1.0734 1.0739 1.0989 0.9925 1.0215 1.123 1.0801 0.9786
2247.259 1.0648 1.1682 1.0533 1.0252 0.9942 1.0001 0.9817 0.9425 0.8778 0.7864
2266.549 0.9026 1.034 0.9229 0.8923 0.8846 0.7505 0.8739 0.9674 0.8873 0.8523
2285.839 0.9501 1.0103 1.0151 1.04 1.0759 0.9833 0.9183 1.0188 0.9566 0.6539
2305.129 0.7158 1.0488 1.0245 0.9961 1.1364 1.2428 1.0539 0.8753 0.8235 0.9684
2324.418 1.0941 1.024 1.017 1.0023 1.0262 1.2173 1.2465 1.1888 1.2998 1.0594
2343.708 1.0431 1.1668 1.3442 1.3312 1.0132 1.0629 1.0154 1.0534 1.1426 1.0857
2362.998 1.0253 0.9793 1.1601 1.1044 0.8764 0.898 0.885 0.8801 1.1228 1.0572
2382.288 0.7575 0.8772 0.9907 0.954 0.9962 1.0566 1.2168 1.3212 1.2424 0.9941
2401.578 0.6963 0.737 0.7507 0.9314 1.113 1.0176 0.8739 0.7452 0.8818 0.8246
2420.867 0.7593 0.9051 0.9844 1.0262 1.1501 1.1508 1.1867 1.2256 1.1266 1.1425
2440.157 1.1062 0.8799 0.883 0.9484 0.922 1.0238 1.0285 0.8947 0.7165 0.8893
2459.447 1.0878 0.8995 0.8518 0.9617 0.9034 0.9527 1.07 1.1385 1.0544 1.0063
2478.737 1.0338 1.084 1.0287 0.8691 0.8005 0.7107 0.8746 1.0217 0.8201 0.6687
2498.026 0.8012 1.0378 1.0357 0.7604 0.7834 0.9315 0.8256 0.7198 0.7316 0.729
2517.316 0.9768 0.9925 0.6613 0.5339 0.7131 0.806 0.7493 0.8611 0.861 0.7286
2536.606 0.7715 0.8936 1.0243 0.9243 0.6061 0.7734 0.9586 0.9147 0.9903 1.0049
2555.896 0.7905 0.7728 0.8025 0.7571 0.9124 0.9644 0.9845 0.9876 0.9917 1.0289
2575.186 0.9561 0.9031 0.7316 0.7167 1.0052 1.022 0.9129 0.8972 0.9686 0.7877
2594.475 0.48521 0.6326 0.7484 0.7642 0.9975 1.1103 1.07 1.2032 1.3085 1.1063
2613.765 0.8235 0.7571 0.9097 0.8829 0.7718 0.8205 0.9614 0.9453 0.8593 0.9527
2633.055 0.9688 0.9191 1.0943 1.167 0.9475 1.0411 1.1786 1.2346 1.166 1.1999
2652.345 1.3259 1.0772 0.98 0.9998 1.0025 1.0441 1.0806 0.8796 0.8755 1.1137
2671.634 0.9321 1.0243 1.205 1.0651 0.7848 0.7171 0.9309 0.9603 1.0079 1.0599
2690.924 1.0685 1.0324 1.0538 1.0533 1.0374 1.1187 1.0904 1.0422 0.9906 1.0925
2710.214 1.1603 0.8725 0.8126 0.8446 0.9975 0.9705 0.79 0.8908 0.706 0.6427
2729.504 0.8642 1.182 1.3125 1.2088 1.337 1.427 1.1933 0.8789 0.8632 1.0014
2748.794 1.0562 1.1057 1.0065 1.0128 1.0585 0.9732 0.8696 0.7692 1.1064 1.467
2768.083 1.3462 1.2161 1.0638 1.0282 1.1078 1.0398 0.9439 1.098 1.1652 1.0374
2787.373 1.1164 1.1482 1.3061 1.597 1.617 1.1245 0.6685 0.9843 1.115 0.9283
2806.663 1.0954 1.2472 1.487 1.737 1.3078 1.0968 1.0898 1.0258 1.2031 1.2712
2825.953 1.557 1.517 1.3978 1.437 1.477 1.687 1.557 1.747 2.007 1.847
2845.242 2.077 2.297 2.307 2.457 2.637 2.737 2.757 2.367 2.267 2.707
2864.532 2.797 2.737 2.707 2.627 2.547 2.567 2.337 2.297 2.477 2.357
2883.822 2.327 2.267 2.357 2.577 2.327 2.127 2.137 2.207 2.277 2.387
2903.112 2.557 2.517 2.637 2.977 3.057 2.987 3.337 4.147 4.597 4.747
2922.401 5.367 6.027 6.827 7.557 8.127 8.837 9.477 9.597 9.507 9.487
2941.691 9.277 8.847 8.077 7.367 6.827 6.367 6.157 6.007 5.597 5.547
2960.981 5.617 5.487 5.687 6.157 6.397 6.207 5.897 5.567 5.677 6.167
2980.271 6.107 6.157 6.107 5.857 5.817 5.727 5.867 5.997 5.957 5.807
2999.561 5.277 5.017 5.017 4.827 4.947 4.707 4.397 4.317 4.127 4.167
3018.850 4.517 4.827 4.707 4.317 4.547 4.827 5.017 5.407 5.347 5.627
3038.140 5.897 6.187 6.327 5.997 5.897 5.567 5.297 5.287 5.157 4.687
3057.430 3.767 3.317 3.097 2.817 2.477 2.177 2.237 2.137 2.027 2.207
3076.720 2.217 1.907 1.787 1.897 1.837 1.477 1.2845 1.3544 1.517 1.497
3096.009 1.727 1.817 1.437 1.487 1.537 1.4114 1.477 1.607 1.607 1.457
3115.299 1.487 1.417 1.1866 1.3071 1.437 1.1258 1.1 1.0718 1.2294 1.727
3134.589 1.707 1.3299 1.1431 1.3758 1.437 1.2748 1.1029 1.447 1.587 1.447
3153.879 1.677 1.607 1.667 1.3891 1.2393 1.447 1.3841 1.427 1.339 1.3365
3173.169 1.427 1.2954 1.727 1.647 0.9701 1.0482 1.1192 1.2094 1.1899 0.9629
3192.458 0.9862 1.1903 1.2661 0.9201 0.7673 0.8507 1.0803 1.1571 0.7422 0.6743
3211.748 0.9126 0.7052 0.47196 0.51136 0.604 0.422628 0.386 0.6648 0.8321 0.835
3231.038 0.8328 0.6881 0.5049 0.8845 0.8155 0.9972 0.8478 0.3795 0.5426 0.7664
3250.328 0.8173 0.48412 0.5716 0.5843 0.6114 0.7474 0.5681 0.47368 0.5225 0.41432
3269.617 0.288 0.3278 0.5795 1.0141 0.9504 0.9495 0.7653 0.232 0 0.3782
3288.907 0.9507 0.9349 0.49251 0.8002 1.2786 0.8467 0.49627 1.0545 1.427 1.2013
3308.197 0.7923 0.3956 0.46015 0.9505 1.1977 0.7758 0.5657 0.8101 1.0715 0.9474
3327.487 0.7293 0.7162 0.6875 0.5856 0.775 0.908 0.6404 0.5506 0.7898 0.9566
3346.777 0.964 0.9064 0.8906 1.2077 1.0792 0.7005 0.7455 0.6745 0.631 0.8684
3366.066 0.7541 0.6258 0.9175 0.8749 0.5473 0.5741 0.8597 0.6904 0.9043 1.477
3385.356 1.587 1.687 1.847 1.927 2.217 2.787 3.357 4.257 4.727 4.867
3404.646 6.087 7.777 8.957 9.737 10.687 11.317 11.327 11.087 10.877 10.237
3423.936 8.967 8.147 8.017 7.757 7.417 6.697 6.217 5.927 4.997 4.407
3443.225 4.007 3.467 2.617 1.917 1.827 1.507 1.417 1.527 1.2826 1.2316
3462.515 1.092 0.8232 0.8841 1.1549 1.477 1.477 1.0303 0.9514 1.1575 1.437
3481.805 1.467 1.427 1.637 1.927 2.347 2.357 2.437 2.897 3.257 3.457
3501.095 3.747 4.187 4.587 4.857 5.407 5.987 5.897 5.837 6.537 6.347
3520.385 5.687 5.747 5.227 4.567 3.997 3.627 3.787 3.887 3.737 3.457
3539.674 3.397 3.497 3.457 3.207 2.587 2.657 2.657 1.827 1.2001 1.0965
3558.964 1.1903 1.0421 1.2118 1.0436 0.6254 0.8388 1.0509 0.8115 0.5922 0.7234
3578.254 0.6425 0.43372 0.647 0.9673 1.0072 0.8518 0.7475 0.7229 0.7157 0.5857
3597.544 0.41271 0.241 0.289 0.5809 0.6761 0.50102 0.47498 0.5971 0.6674 0.44265
3616.833 0.29 0.51268 0.3628 0.3921 0.5686 0.7313 0.8208 0.6524 0.45708 0.3224
3636.123 0.23 0.162 0.182 0.299 0.8977 1.2198 0.8062 0.835 0.7508 0.46533
3655.413 0.5701 0.8097 0.7253 0.6733 0.6163 0.294 0.301 0.17 0.183 0.536
3674.703 0.6273 0.5263 0.49376 0.6606 0.44527 0.296 0.9453 0.7391 0.4213 0.46645
3693.993 0.184 0.132 0.237 0.311 0.174 0.5231 0.9635 1.1155 0.8197 0.5442
3713.282 0.599 0.3553 0.18 0.174 0.7108 0.8684 0.192 0.067 0.293 0.3739
3732.572 0.686 0.9904 1.2838 0.7998 0.3371 0.248 0.091 0.402 0.5702 0.7479
3751.862 0.7351 0.6175 1.0181 1.0485 0.5062 0.379 0.371 0.5969 0.49491 0.6868
3771.152 1.1299 0.7729 0.5532 0.7531 1.1794 0.9431 0.4033 0.7036 1.1965 1.0427
3790.441 0.9042 0.7811 0.9465 0.7111 0.3384 0.8309 0.8807 0.7377 1.124 1.2608
3809.731 0.9133 0.8004 0.9739 1.1932 0.949 0.7849 0.8441 0.9119 0.5376 0.8825
3829.021 1.2132 0.7951 0.9093 0.9631 0.5659 0.229 0.9771 1.2627 1.0802 1.1745
3848.311 0.9869 0.5256 0.291 0.296 0.5971 0.6446 0.49569 0.6157 0.6766 0.9531
3867.601 0.9134 0.8902 0.6348 0.235 0.4673 0.7667 0.6503 0.6259 0.654 0.43444
3886.890 0.5535 0.842 0.9364 0.846 0.5402 0.49281 1.2392 1.2288 0.7021 0.41409
3906.180 0.43393 1.0644 1.2068 1.1566 1.131 0.5585 0.5921 0.8778 0.691 0.7336
3925.470 0.5741 0.6271 0.632 0.6292 0.7158 0.6642 0.7942 0.6754 0.5193 1.0526
3944.760 1.2578 0.7425 0.5817 0.5349 0.50606 0.8016 1.0102 1.0853 1.1322 0.5388
3964.049 0.45364 0.9393 0.6159 0.5513 0.6042 0.5803 0.5306 0.231 0.421687 0.5252
3983.339 0.8299 0.9543 0.77 0.77 0.8337 0.8267 0.9881 1.3309 1.447 1.3274
##END=
