##TITLE=N,N'-Dimethyl-5-pyrrolidinone-3-carboxamide
##JCAMP-DX=4.24
##DATA TYPE=INFRARED SPECTRUM
##ORIGIN=EPA-IR VAPOR PHASE LIBRARY
##OWNER=SRD/NIST
Collection (C) 2018 copyright by the U.S. Secretary of Commerce
on behalf of the United States of America. All rights reserved.
##CAS REGISTRY NO=89851-99-0
##MOLFORM=C 7 H 12 N 2 O 2
##$NIST SOURCE=MSDC-IR
##STATE=gas
##XUNITS=1/CM
##YUNITS=ABSORBANCE
##XFACTOR=1.
##YFACTOR=0.001
##DELTAX=1.92898
##FIRSTX=549.8
##LASTX=4000.7
##FIRSTY=0.7322
##MAXX=4000.7
##MINX=549.759
##MAXY=0.042222
##MINY=0
##NPOINTS=1790
##XYDATA=(X++(Y..Y))
549.759 0.7322 0.9721 1.0951 0.8734 0.8033 0.7023 0.4969 0.32379 0.3897 0.6256
569.049 0.646 0.8313 0.8914 0.7267 0.7167 0.5585 0.6753 0.8214 0.5822 0.38062
588.339 0.4598 0.6123 0.35929 0.31995 0.7205 0.7818 0.7067 0.8244 0.8629 0.7713
607.628 0.8198 0.7479 0.6508 0.5813 0.4356 0.4873 0.4755 0.5341 0.5637 0.40325
626.918 0.41551 0.6213 0.6456 0.5579 0.4783 0.35978 0.39959 0.4709 0.5435 0.5755
646.208 0.6916 0.6399 0.4649 0.6122 0.673 0.632 0.65 0.6256 0.6409 0.5557
665.498 0.4963 0.5714 0.6088 0.6825 0.779 0.7884 0.6012 0.554 0.792 0.9377
684.787 0.8154 0.77 0.8373 0.821 0.8258 0.8941 0.8978 0.9678 1.082 0.9947
704.077 0.932 1.0595 1.1249 1.0377 0.9372 0.8651 0.8756 0.8549 0.8808 0.8508
723.367 0.6185 0.6095 0.729 0.6654 0.6419 0.7641 0.8091 0.7445 0.6605 0.6299
742.657 0.6894 0.6429 0.5247 0.5212 0.5413 0.5472 0.56 0.6961 0.7476 0.6705
761.947 0.63 0.5668 0.4927 0.471 0.4888 0.596 0.6995 0.6028 0.528 0.5911
781.236 0.7127 0.7046 0.6799 0.6562 0.5812 0.564 0.5882 0.6506 0.6808 0.7695
800.526 0.6834 0.6116 0.8003 0.8871 0.8356 0.9 0.8917 0.8381 0.9944 0.9542
819.816 0.8334 0.8351 0.9281 0.9319 0.7373 0.6479 0.6871 0.7492 0.7334 0.7425
839.106 0.7603 0.7896 0.8514 0.8039 0.7814 0.7704 0.8322 0.9471 0.922 0.914
858.395 0.845 0.6231 0.5462 0.6549 0.85 0.9031 0.7862 0.7415 0.7955 0.7919
877.685 0.775 0.7974 0.7814 0.7444 0.663 0.6967 0.7614 0.8572 0.944 0.9036
896.975 0.8177 0.701 0.6193 0.6711 0.7747 0.8333 0.8788 0.8387 0.7236 0.6301
916.265 0.7423 0.7745 0.6982 0.7697 0.8145 0.8059 0.8002 0.8196 0.8263 0.6909
935.555 0.684 0.7686 0.7837 0.7684 0.7204 0.6846 0.6877 0.8006 0.8769 1.003
954.844 1.0132 0.8512 0.7369 0.7189 0.7768 0.7896 0.7556 0.8358 0.9062 0.8604
974.134 0.819 0.8566 0.9382 1.0449 1.2942 1.432 1.592 1.602 1.502 1.602
993.424 1.582 1.532 1.432 1.2514 1.2407 1.2692 1.3177 1.1769 1.0501 1.0774
1012.714 0.8678 0.8205 1.0244 0.9472 0.7227 0.8125 0.9466 0.9795 0.8049 0.7548
1032.003 0.811 0.7232 0.7607 0.7998 0.9647 1.1169 1.1568 1.0721 0.9385 0.9466
1051.293 0.9834 1.1282 1.332 1.1165 0.873 0.7589 0.6835 0.956 1.1959 0.8303
1070.583 0.8877 1.1763 1.2272 1.2118 1.1079 1.322 1.225 1.2993 1.237 1.1075
1089.873 1.1406 1.1646 1.2654 1.1556 0.9907 1.2277 1.482 1.422 1.432 1.402
1109.163 1.392 1.452 1.562 1.542 1.2702 1.316 1.652 1.632 1.532 1.382
1128.452 1.1807 1.2777 1.402 1.462 1.662 1.422 1.2007 1.512 1.602 1.342
1147.742 1.0949 1.0912 1.2016 1.452 1.552 1.502 1.3138 1.246 1.582 1.722
1167.032 1.662 1.672 1.952 2.202 2.412 2.592 2.692 3.132 3.472 3.802
1186.322 4.102 4.232 4.702 5.022 5.092 5.242 5.532 5.632 5.532 5.672
1205.611 5.622 5.402 5.122 4.962 4.812 4.762 4.852 4.932 5.002 4.882
1224.901 4.882 4.882 4.802 4.722 4.392 4.252 4.412 4.512 4.652 4.872
1244.191 5.042 5.202 5.392 5.552 5.812 6.182 6.452 6.522 6.672 6.922
1263.481 7.232 7.312 7.212 7.222 7.242 7.162 7.132 7.112 6.802 6.662
1282.771 6.642 6.422 6.302 6.222 5.902 5.532 5.242 4.842 4.492 4.212
1302.060 3.842 3.522 3.252 3.022 2.832 2.582 2.402 2.302 2.162 2.052
1321.350 1.942 1.842 1.832 1.712 1.612 1.602 1.552 1.522 1.502 1.442
1340.640 1.462 1.482 1.442 1.482 1.512 1.502 1.522 1.542 1.552 1.582
1359.930 1.652 1.712 1.742 1.792 1.872 1.992 2.092 2.192 2.352 2.512
1379.219 2.752 3.002 3.262 3.612 3.992 4.412 4.832 5.222 5.532 5.822
1398.509 6.072 6.242 6.352 6.322 6.262 6.242 6.192 6.062 6.032 6.072
1417.799 6.032 6.122 6.282 6.342 6.322 6.262 6.182 6.002 5.722 5.432
1437.089 5.072 4.762 4.502 4.272 4.082 3.902 3.842 3.802 3.772 3.762
1456.378 3.772 3.902 4.102 4.262 4.472 4.772 5.092 5.452 5.802 6.272
1475.668 6.762 7.342 7.982 8.602 9.302 9.972 10.562 11.102 11.512 11.712
1494.958 11.822 11.792 11.512 11.102 10.662 10.112 9.422 8.822 8.362 7.852
1514.248 7.332 6.912 6.512 6.122 5.732 5.432 5.192 4.932 4.612 4.302
1533.538 4.082 3.932 3.712 3.502 3.362 3.232 3.082 2.922 2.752 2.632
1552.827 2.602 2.442 2.352 2.332 2.192 2.072 1.992 1.922 1.832 1.722
1572.117 1.642 1.602 1.542 1.472 1.442 1.432 1.412 1.3093 1.2098 1.2253
1591.407 1.2194 1.1559 1.1049 1.0804 1.0353 1.0033 1.019 1.0108 0.9558 0.9128
1610.697 0.9396 0.9141 0.87 0.8577 0.9128 0.9654 0.9178 0.9006 0.951 0.9412
1629.986 0.9738 1.0045 0.9945 1.0067 1.0403 1.0764 1.0955 1.1287 1.1626 1.2488
1649.276 1.2794 1.2419 1.3205 1.352 1.422 1.572 1.732 1.892 1.982 2.142
1668.566 2.362 2.592 2.902 3.232 3.592 3.972 4.382 4.902 5.512 6.092
1687.856 6.712 7.412 8.262 9.142 10.112 11.242 12.402 13.632 14.682 15.852
1707.146 17.122 18.442 19.792 21.172 22.512 23.862 25.562 27.652 30.142 33.102
1726.435 36.322 39.202 41.242 42.222 42.212 41.542 40.142 37.482 33.452 28.232
1745.725 22.902 18.222 14.442 11.442 9.142 7.432 6.142 5.102 4.242 3.652
1765.015 3.222 2.852 2.522 2.282 2.092 1.912 1.752 1.592 1.472 1.392
1784.305 1.2435 1.1539 1.084 0.9738 0.9343 0.914 0.8852 0.8374 0.7852 0.7546
1803.594 0.7398 0.6972 0.6384 0.6453 0.6275 0.5753 0.6029 0.6079 0.5894 0.5746
1822.884 0.5713 0.5981 0.5848 0.5452 0.5431 0.5439 0.506 0.505 0.5314 0.5468
1842.174 0.5517 0.5457 0.5213 0.4531 0.4259 0.4779 0.4844 0.4725 0.5111 0.4828
1861.464 0.436 0.444 0.41522 0.41695 0.4395 0.41052 0.39975 0.4294 0.4451 0.40883
1880.754 0.37815 0.4257 0.4321 0.39141 0.41377 0.4301 0.40259 0.39539 0.4244 0.4374
1900.043 0.4387 0.40249 0.41051 0.4466 0.4301 0.41492 0.4234 0.4445 0.4387 0.39902
1919.333 0.41334 0.4282 0.38834 0.37641 0.40967 0.39168 0.3517 0.40068 0.41943 0.4356
1938.623 0.40993 0.3906 0.39 0.39071 0.40153 0.38235 0.37387 0.35352 0.35757 0.329217
1957.913 0.3099 0.33586 0.3115 0.33425 0.39236 0.37372 0.36879 0.40494 0.40877 0.39801
1977.202 0.36803 0.34268 0.39675 0.4141 0.38772 0.37904 0.39805 0.42143 0.4234 0.40821
1996.492 0.37049 0.35313 0.330338 0.326481 0.33786 0.3757 0.3983 0.37786 0.39095 0.38148
2015.782 0.33259 0.331919 0.37109 0.37406 0.35975 0.40144 0.40107 0.385 0.40021 0.41024
2035.072 0.4346 0.4485 0.41702 0.36598 0.38678 0.38263 0.37265 0.38181 0.40191 0.4248
2054.362 0.38527 0.36827 0.38808 0.35932 0.35876 0.36512 0.35267 0.3974 0.37977 0.34311
2073.651 0.3355 0.35056 0.39234 0.4323 0.4612 0.40826 0.33208 0.322587 0.38284 0.37942
2092.941 0.35467 0.35918 0.36207 0.38459 0.40156 0.39737 0.4369 0.4587 0.40497 0.38684
2112.231 0.38306 0.38311 0.38275 0.37689 0.35335 0.33934 0.35633 0.38367 0.39491 0.3738
2131.521 0.36345 0.38886 0.37669 0.41522 0.37855 0.31706 0.36704 0.37363 0.37916 0.36682
2150.810 0.36988 0.38006 0.38251 0.39617 0.4274 0.40783 0.41575 0.4344 0.35348 0.31439
2170.100 0.37102 0.38233 0.35962 0.37617 0.40442 0.4227 0.42144 0.39698 0.36418 0.36039
2189.390 0.39569 0.4224 0.4706 0.487 0.4401 0.39567 0.37915 0.41983 0.4305 0.4423
2208.680 0.41119 0.36684 0.39507 0.42168 0.41 0.35833 0.34876 0.40408 0.41833 0.36907
2227.970 0.34984 0.34173 0.2899 0.328571 0.38553 0.33925 0.3072 0.37278 0.4261 0.4291
2247.259 0.38891 0.33524 0.34919 0.34473 0.321411 0.34711 0.35557 0.36345 0.3732 0.31302
2266.549 0.325662 0.4426 0.4637 0.39049 0.325267 0.33749 0.33405 0.321795 0.3406 0.37962
2285.839 0.41299 0.37165 0.323573 0.2925 0.35426 0.35271 0.2929 0.31939 0.2958 0.2336
2305.129 0.2753 0.31983 0.2872 0.31245 0.31876 0.3074 0.2972 0.2945 0.31533 0.2981
2324.418 0.2583 0.2619 0.328242 0.34299 0.34927 0.36687 0.40409 0.38827 0.34107 0.3018
2343.708 0.2687 0.3006 0.3017 0.2985 0.34499 0.38058 0.36446 0.35847 0.37669 0.36944
2362.998 0.35299 0.34623 0.303 0.31906 0.36114 0.305 0.2827 0.31916 0.35522 0.31367
2382.288 0.34044 0.42191 0.4001 0.37551 0.3712 0.40257 0.41481 0.36312 0.34243 0.41188
2401.578 0.4804 0.4321 0.3662 0.35705 0.38074 0.39425 0.37105 0.36733 0.39339 0.37039
2420.867 0.3106 0.31247 0.330265 0.327151 0.35782 0.35662 0.31738 0.3553 0.36737 0.35638
2440.157 0.38431 0.38401 0.4232 0.41682 0.37289 0.39113 0.40634 0.40146 0.4257 0.4428
2459.447 0.39042 0.36177 0.39465 0.4439 0.37181 0.2997 0.33431 0.36196 0.37294 0.35742
2478.737 0.39635 0.4347 0.4646 0.4265 0.39645 0.4289 0.40717 0.36642 0.39116 0.425
2498.026 0.36951 0.39066 0.36925 0.33754 0.36361 0.38303 0.33652 0.325241 0.37864 0.3341
2517.316 0.2906 0.34381 0.38377 0.37263 0.37761 0.326961 0.2746 0.3074 0.34083 0.38551
2536.606 0.4745 0.4481 0.35249 0.37431 0.41824 0.3945 0.40311 0.36624 0.37678 0.40025
2555.896 0.3619 0.4037 0.4205 0.36284 0.34887 0.3986 0.41916 0.3884 0.36017 0.36687
2575.186 0.36472 0.35937 0.35729 0.32077 0.3024 0.31962 0.34047 0.34573 0.33182 0.2934
2594.475 0.3635 0.4392 0.38822 0.38949 0.38921 0.3815 0.37307 0.35947 0.37965 0.41381
2613.765 0.4423 0.39866 0.37876 0.4337 0.38111 0.3337 0.32203 0.34994 0.40278 0.35885
2633.055 0.36841 0.35286 0.3337 0.328559 0.3003 0.32456 0.35422 0.36079 0.34864 0.34459
2652.345 0.33521 0.321978 0.38818 0.38999 0.34223 0.34093 0.38011 0.4225 0.3538 0.3069
2671.634 0.2978 0.326681 0.483 0.5114 0.39236 0.37297 0.39361 0.39946 0.4427 0.4776
2690.924 0.424 0.35827 0.36107 0.40868 0.4331 0.4828 0.4835 0.4279 0.4632 0.5412
2710.214 0.5354 0.41555 0.40058 0.41993 0.38175 0.3621 0.31827 0.35581 0.41547 0.40172
2729.504 0.38322 0.36887 0.36425 0.38579 0.36435 0.35091 0.41109 0.4513 0.4234 0.4552
2748.794 0.5456 0.5519 0.5195 0.5141 0.5399 0.5215 0.5042 0.5341 0.5138 0.5113
2768.083 0.5431 0.5039 0.4969 0.5568 0.5974 0.615 0.6045 0.612 0.6762 0.7019
2787.373 0.7559 0.7835 0.7716 0.8059 0.8258 0.8316 0.8184 0.8662 0.9961 1.0267
2806.663 0.9862 1.0129 1.024 1.1252 1.1977 1.1612 1.1719 1.2836 1.3181 1.352
2825.953 1.442 1.482 1.472 1.392 1.412 1.462 1.542 1.672 1.702 1.742
2845.242 1.872 1.982 2.062 2.152 2.292 2.452 2.582 2.642 2.772 2.862
2864.532 2.952 3.162 3.262 3.322 3.422 3.522 3.602 3.622 3.682 3.712
2883.822 3.722 3.872 3.992 4.022 4.052 4.142 4.142 4.152 4.222 4.232
2903.112 4.282 4.432 4.492 4.402 4.412 4.602 4.782 5.072 5.282 5.302
2922.401 5.422 5.572 5.842 6.132 6.322 6.432 6.542 6.652 6.592 6.572
2941.691 6.522 6.442 6.332 6.132 5.912 5.652 5.352 5.172 5.002 4.602
2960.981 4.272 3.932 3.592 3.442 3.282 3.062 2.872 2.712 2.552 2.462
2980.271 2.402 2.312 2.302 2.242 2.052 1.952 1.952 1.882 1.832 1.772
2999.561 1.662 1.552 1.372 1.2236 1.2696 1.332 1.2917 1.2714 1.2337 1.0979
3018.850 0.9538 0.8685 0.8588 0.9007 0.9193 0.9303 0.8412 0.7724 0.8061 0.8083
3038.140 0.7512 0.7684 0.9089 0.914 0.8543 0.8679 0.9301 0.9763 0.9882 0.9718
3057.430 0.9141 0.8762 0.7872 0.7566 0.7541 0.8014 0.7872 0.7014 0.668 0.5728
3076.720 0.6193 0.6836 0.6604 0.61 0.6079 0.5955 0.6374 0.6696 0.5659 0.5723
3096.009 0.5786 0.5528 0.5648 0.5676 0.5143 0.3893 0.40819 0.41855 0.40354 0.4966
3115.299 0.5011 0.4974 0.47 0.4354 0.4986 0.4647 0.36361 0.457 0.4608 0.40706
3134.589 0.40965 0.31986 0.38471 0.4424 0.3089 0.2368 0.264 0.326173 0.40007 0.34087
3153.879 0.33314 0.35296 0.2535 0.213 0.2508 0.31398 0.2969 0.326484 0.34829 0.2399
3173.169 0.2236 0.2644 0.2594 0.2801 0.36987 0.4399 0.36295 0.2652 0.3098 0.37398
3192.458 0.2598 0.2634 0.434 0.39222 0.2671 0.2642 0.2559 0.31507 0.4345 0.4372
3211.748 0.39256 0.2551 0.2933 0.39088 0.3733 0.41751 0.37804 0.31501 0.2676 0.33526
3231.038 0.4424 0.41293 0.41226 0.42087 0.31784 0.2262 0.213 0.3005 0.37265 0.2553
3250.328 0.2572 0.33771 0.209 0.2289 0.34447 0.33781 0.33923 0.34436 0.33277 0.36266
3269.617 0.4254 0.36932 0.3074 0.2915 0.2624 0.2758 0.324741 0.2413 0.196 0.2865
3288.907 0.2378 0.221 0.31686 0.3055 0.2485 0.211 0.2436 0.35347 0.2855 0.2233
3308.197 0.2957 0.31541 0.330334 0.35983 0.40032 0.2861 0.2586 0.35533 0.2914 0.2946
3327.487 0.2825 0.21 0.2393 0.2609 0.214 0.106 0.172 0.2826 0.2308 0.2917
3346.777 0.2932 0.286 0.2623 0.191 0.2601 0.311 0.3068 0.2735 0.37496 0.4654
3366.066 0.36658 0.3181 0.40101 0.2943 0.2917 0.3742 0.3164 0.2844 0.197 0.2403
3385.356 0.4628 0.5782 0.5047 0.38612 0.41504 0.4967 0.41686 0.33836 0.2716 0.33936
3404.646 0.4628 0.5101 0.5489 0.5879 0.5394 0.4939 0.4892 0.4707 0.5646 0.6131
3423.936 0.6568 0.6519 0.487 0.4843 0.6204 0.607 0.5677 0.6942 0.7829 0.7574
3443.225 0.7871 0.8522 0.9021 0.991 1.0737 1.0946 1.1212 1.2076 1.1952 1.2257
3462.515 1.3034 1.2904 1.2995 1.342 1.362 1.3015 1.362 1.512 1.462 1.362
3481.805 1.402 1.392 1.372 1.342 1.3098 1.2186 1 1.038 1.1666 0.9841
3501.095 0.7646 0.7789 0.709 0.5896 0.6131 0.6505 0.6138 0.4786 0.4666 0.486
3520.385 0.4385 0.447 0.42116 0.33427 0.276 0.31313 0.3851 0.2901 0.311 0.36478
3539.674 0.2589 0.165 0.16 0.2519 0.2653 0.215 0.161 0.211 0.2321 0.173
3558.964 0.16 0.187 0.2591 0.255 0.213 0.187 0.2294 0.33306 0.2992 0.2951
3578.254 0.33882 0.325807 0.35962 0.38076 0.34302 0.2708 0.33256 0.4151 0.38906 0.3003
3597.544 0.205 0.21 0.204 0.231 0.194 0.159 0.2829 0.211 0.101 0.069
3616.833 0.058 0.177 0.173 0.2931 0.488 0.446 0.37968 0.31 0.194 0.141
3636.123 0.134 0.2275 0.39369 0.2774 0.107 0.216 0.2717 0.36136 0.4094 0.34295
3655.413 0.35908 0.2824 0.2441 0.206 0.2282 0.2612 0.2235 0.2479 0.3105 0.2677
3674.703 0.2528 0.41868 0.39551 0.326252 0.36695 0.40538 0.33337 0.179 0.19 0.3066
3693.993 0.2835 0.198 0.2837 0.2818 0.193 0.142 0.142 0.134 0.134 0.31415
3713.282 0.4339 0.329938 0.205 0.2 0.2271 0.2376 0.2659 0.266 0.217 0.34276
3732.572 0.4034 0.161 0.16 0.2993 0.2859 0.194 0.171 0.189 0.146 0.194
3751.862 0.2878 0.31311 0.2365 0.173 0.186 0.2622 0.2955 0.259 0.183 0.192
3771.152 0.2632 0.215 0.186 0.189 0.213 0.114 0 0.064 0.155 0.2
3790.441 0.2233 0.2658 0.31694 0.224 0.206 0.307 0.247 0.154 0.192 0.2471
3809.731 0.216 0.213 0.2737 0.181 0.106 0.132 0.15 0.2433 0.2676 0.215
3829.021 0.179 0.116 0.106 0.214 0.2476 0.35433 0.327009 0.33911 0.37847 0.3052
3848.311 0.35493 0.205 0.174 0.2779 0.2625 0.178 0.202 0.36354 0.4228 0.449
3867.601 0.325325 0.196 0.2279 0.2583 0.2707 0.2594 0.2584 0.37467 0.33216 0.2397
3886.890 0.34949 0.4261 0.3102 0.288 0.3465 0.2562 0.179 0.066 0.036 0.083
3906.180 0.2221 0.31603 0.33077 0.2701 0.2845 0.2975 0.104 0.101 0.127 0.207
3925.470 0.2833 0.288 0.34638 0.323349 0.2688 0.2606 0.2269 0.31555 0.31558 0.204
3944.760 0.2912 0.3356 0.31737 0.3399 0.35465 0.2779 0.2862 0.2893 0.37311 0.456
3964.049 0.2236 0.093 0.188 0.198 0.144 0.175 0.182 0.151 0.118 0.166
3983.339 0.161 0.091 0.117 0.171 0.191 0.187 0.221 0.2299 0.192 0.254
##END=
