##TITLE=2-Hydroxybenzylalcohol
##JCAMP-DX=4.24
##DATA TYPE=INFRARED SPECTRUM
##ORIGIN=NIST Mass Spectrometry Data Center
##OWNER=NIST Standard Reference Data Program
Collection (C) 2018 copyright by the U.S. Secretary of Commerce
on behalf of the United States of America. All rights reserved.
##CAS REGISTRY NO=90-01-7
##MOLFORM=C 7 H 8 O 2
##$NIST SOURCE=MSDC-IR
##SPECTROMETER/DATA SYSTEM=HP-GC/MS/IRD
##STATE=gas
##XUNITS=1/CM
##YUNITS=ABSORBANCE
##XFACTOR=1.0
##YFACTOR=0.000003100
##DELTAX=4.0
##FIRSTX=550.0
##LASTX=3846.0
##FIRSTY=0.002790
##MAXX=3846
##MINX=550
##MAXY=0.031
##MINY=0
##NPOINTS=825
##XYDATA=(X++(Y..Y))
550.0 900 1370 998 1030 951 876 775 693 654 643
590.0 637 696 810 937 1066 1154 1188 1157 1041 881
630.0 717 573 465 393 337 288 241 188 151 138
670.0 111 78 69 73 71 101 159 244 354 509
710.0 676 868 1157 1509 1940 2712 3716 4655 5752 7858
750.0 8887 7112 5482 4548 3385 2204 1287 725 437 261
790.0 114 59 36 21 16 27 62 118 224 378
830.0 531 686 855 1008 1123 1174 1148 1064 945 813
870.0 656 473 318 222 164 149 151 161 219 294
910.0 395 541 731 886 1079 1288 1307 1301 1392 1519
950.0 1667 1846 2020 2153 2266 2406 2643 3059 3715 4588
990.0 5483 6176 6559 6550 6188 5543 4772 4112 3623 3296
1030.0 3030 2763 2492 2170 1833 1549 1312 1100 949 854
1070.0 828 871 961 1122 1348 1554 1671 1707 1686 1575
1110.0 1370 1153 1009 959 981 1093 1314 1644 2022 2313
1150.0 2533 2946 3367 3598 3762 3962 4178 4297 4305 4291
1190.0 4332 4440 4608 4842 5178 5639 6238 6992 7881 8815
1230.0 9598 10000 9973 9596 8847 7708 6420 5274 4382 3729
1270.0 3206 2775 2494 2366 2313 2275 2240 2215 2209 2257
1310.0 2346 2412 2409 2396 2407 2334 2223 2235 2365 2619
1350.0 2950 3271 3561 3783 3881 3871 3740 3488 3185 2875
1390.0 2549 2239 1937 1645 1399 1182 1019 924 824 765
1430.0 794 915 1112 1396 1834 2343 2877 3429 3934 4356
1470.0 4712 5163 5714 6184 6343 6262 6157 5792 4918 3873
1510.0 2947 2180 1535 1025 670 487 402 389 412 427
1550.0 484 613 816 1028 1330 1815 2401 3034 3530 3841
1590.0 4024 4070 3832 3431 3115 2900 2667 2346 1957 1529
1630.0 1090 711 408 230 167 175 205 222 296 391
1670.0 467 515 534 543 489 362 269 226 175 115
1710.0 82 88 86 39 13 32 42 10 0 19
1750.0 47 47 55 81 107 133 134 131 134 127
1790.0 125 112 96 95 71 65 62 45 34 28
1830.0 10 0 2 20 25 9 9 19 21 30
1870.0 45 57 84 121 159 188 191 192 183 156
1910.0 130 125 142 160 177 178 164 140 109 69
1950.0 38 22 12 14 20 23 27 36 47 59
1990.0 61 51 43 41 39 40 37 36 31 30
2030.0 35 38 37 34 27 26 22 21 25 37
2070.0 43 41 41 45 52 56 50 48 50 43
2110.0 33 29 24 22 19 15 13 14 16 15
2150.0 18 21 16 13 15 20 21 16 20 27
2190.0 23 18 16 19 24 33 36 40 45 47
2230.0 50 53 54 52 57 61 52 51 55 51
2270.0 46 46 48 52 56 55 62 72 78 90
2310.0 95 102 114 116 124 129 124 122 114 98
2350.0 97 101 99 92 86 78 69 61 57 58
2390.0 59 62 69 71 66 66 75 77 78 77
2430.0 78 82 84 86 89 96 108 116 117 121
2470.0 130 129 131 135 130 132 136 130 120 115
2510.0 110 102 96 92 92 88 78 66 59 60
2550.0 57 55 60 50 47 55 58 61 57 57
2590.0 58 60 58 50 46 43 43 45 44 33
2630.0 27 28 22 25 34 32 29 29 35 44
2670.0 45 43 49 54 55 63 69 70 76 96
2710.0 104 102 104 106 110 110 107 110 109 102
2750.0 105 105 100 108 115 119 128 132 141 144
2790.0 148 165 177 189 205 217 232 258 289 321
2830.0 362 409 457 506 574 655 746 859 996 1152
2870.0 1339 1540 1752 1942 2056 2077 2016 1897 1743 1593
2910.0 1474 1416 1428 1502 1621 1758 1876 1960 2022 2042
2950.0 1968 1838 1657 1438 1229 1034 863 714 589 516
2990.0 454 428 432 452 524 658 838 1047 1292 1550
3030.0 1793 1961 2048 2115 2140 2103 2054 2035 2069 2113
3070.0 2113 2076 1997 1845 1655 1416 1175 972 795 646
3110.0 509 386 296 225 169 126 90 61 45 40
3150.0 29 32 38 30 34 39 40 39 27 24
3190.0 34 28 23 23 17 23 31 45 58 61
3230.0 68 81 81 79 84 83 75 75 88 100
3270.0 99 99 100 95 91 89 77 72 70 71
3310.0 47 46 57 50 56 62 83 91 88 106
3350.0 114 113 125 135 146 153 150 163 188 212
3390.0 245 285 344 404 443 496 573 648 725 771
3430.0 812 859 895 937 967 981 991 1019 1085 1161
3470.0 1258 1410 1674 2089 2662 3390 4196 5002 5700 6150
3510.0 6304 6170 5793 5290 4705 4123 3633 3211 2867 2593
3550.0 2320 2080 1868 1704 1567 1391 1224 1113 1038 989
3590.0 930 868 830 800 818 849 888 996 1168 1440
3630.0 1808 2237 2856 3400 3658 3614 3408 3201 2709 2065
3670.0 1524 1114 820 610 488 403 318 264 213 166
3710.0 162 153 116 109 114 101 100 82 77 89
3750.0 71 36 7 0 0 0 0 0 0 0
3790.0 0 0 0 0 0 0 0 0 0 0
3830.0 0 0 2 0 0
##END=
