##TITLE=Xanthone
##JCAMP-DX=4.24
##DATA TYPE=INFRARED SPECTRUM
##ORIGIN=NIST Mass Spectrometry Data Center
##OWNER=NIST Standard Reference Data Program
Collection (C) 2018 copyright by the U.S. Secretary of Commerce
on behalf of the United States of America. All rights reserved.
##CAS REGISTRY NO=90-47-1
##MOLFORM=C 13 H 8 O 2
##$NIST SOURCE=MSDC-IR
##SPECTROMETER/DATA SYSTEM=HP-GC/MS/IRD
##STATE=gas
##XUNITS=1/CM
##YUNITS=ABSORBANCE
##XFACTOR=1.0
##YFACTOR=0.000003800
##DELTAX=4.0
##FIRSTX=550.0
##LASTX=3846.0
##FIRSTY=0.000087
##MAXX=3846
##MINX=550
##MAXY=0.038
##MINY=0
##NPOINTS=825
##XYDATA=(X++(Y..Y))
550.0 23 46 22 4 6 19 60 73 80 117
590.0 114 90 55 2 0 17 44 164 495 827
630.0 963 843 462 242 254 338 507 695 853 1106
670.0 1074 743 484 266 134 80 66 80 106 126
710.0 134 157 155 142 145 182 331 727 1480 2513
750.0 3746 4985 4728 3364 2277 1312 672 412 336 325
790.0 349 387 379 302 209 151 116 92 88 81
830.0 94 139 172 180 163 128 107 106 146 217
870.0 343 529 649 637 488 288 179 174 194 217
910.0 260 293 343 532 1079 1663 1819 1562 874 321
950.0 189 170 159 117 81 50 23 17 23 43
990.0 55 51 32 22 35 45 55 121 252 341
1030.0 340 250 112 34 19 25 39 45 60 70
1070.0 90 108 136 216 382 665 990 1153 1081 885
1110.0 659 536 499 457 441 526 766 1220 1423 1439
1150.0 1363 882 475 285 233 270 314 325 331 320
1190.0 298 327 442 728 1255 1801 2151 2250 2142 2175
1230.0 2373 2413 2164 1741 1321 1077 929 770 614 513
1270.0 489 517 531 506 457 396 401 508 743 1113
1310.0 1550 2077 2752 3638 4925 6826 8819 9455 8237 5391
1350.0 2352 921 570 444 393 383 424 503 580 605
1390.0 565 461 347 267 225 218 243 315 419 500
1430.0 567 696 1023 1718 2986 5001 7407 9449 10000 9062
1470.0 8074 7790 7421 6011 3781 1996 1194 835 612 480
1510.0 408 377 346 315 314 354 406 458 500 535
1550.0 575 630 730 888 1045 1155 1197 1195 1227 1342
1590.0 1564 2080 3160 4738 6114 6647 6047 4611 3290 2384
1630.0 1718 1226 897 742 720 788 927 1143 1458 1903
1670.0 2547 3594 5297 7381 8828 9028 8069 5671 3084 1568
1710.0 866 599 487 401 317 250 207 191 191 193
1750.0 197 191 171 155 143 133 127 115 95 76
1790.0 61 65 82 111 148 169 187 191 172 157
1830.0 156 160 164 161 149 134 119 105 90 72
1870.0 59 54 50 41 35 37 43 56 74 95
1910.0 110 112 112 130 165 190 196 177 146 125
1950.0 130 148 150 133 106 73 54 52 61 71
1990.0 72 67 53 39 31 24 22 24 30 38
2030.0 40 41 45 49 48 46 47 58 75 97
2070.0 118 127 119 103 85 66 56 50 45 35
2110.0 30 29 26 20 15 16 17 18 19 23
2150.0 32 38 37 31 31 40 41 36 31 27
2190.0 19 17 15 9 7 7 9 6 4 10
2230.0 8 11 18 20 23 26 28 28 29 35
2270.0 38 35 30 25 30 39 48 50 43 41
2310.0 42 42 40 43 45 43 47 52 57 67
2350.0 69 64 64 60 55 48 37 30 30 30
2390.0 28 25 20 22 30 38 45 50 65 79
2430.0 86 95 93 88 89 90 94 92 90 81
2470.0 72 62 53 48 43 43 42 36 33 32
2510.0 30 23 17 16 15 18 20 28 35 38
2550.0 48 54 44 39 33 20 18 24 18 16
2590.0 18 18 19 25 26 25 28 25 20 25
2630.0 29 23 22 23 21 22 25 24 15 14
2670.0 7 0 2 3 9 12 19 23 25 27
2710.0 23 16 10 4 2 0 1 7 10 9
2750.0 10 15 19 26 32 31 36 38 44 49
2790.0 46 45 46 45 40 35 23 15 22 33
2830.0 35 18 6 12 14 8 9 12 14 17
2870.0 24 31 26 24 30 28 23 20 27 32
2910.0 29 28 35 36 26 32 44 42 29 21
2950.0 16 17 10 3 6 4 4 4 7 13
2990.0 8 18 45 58 71 91 118 152 184 214
3030.0 247 291 329 349 353 351 361 395 457 578
3070.0 800 1083 1318 1403 1286 1034 757 525 351 218
3110.0 138 88 58 45 38 40 46 44 41 40
3150.0 43 52 60 64 61 42 26 26 26 26
3190.0 32 28 14 16 20 22 21 23 21 23
3230.0 19 5 4 6 8 11 15 21 17 14
3270.0 22 31 27 21 17 15 19 28 26 26
3310.0 22 7 13 28 37 40 48 59 69 84
3350.0 95 99 99 97 93 81 66 53 52 50
3390.0 45 38 23 24 22 15 11 14 14 18
3430.0 13 8 14 14 14 17 25 23 13 14
3470.0 5 1 19 23 14 17 15 11 2 17
3510.0 36 30 13 0 11 5 5 23 20 18
3550.0 26 23 29 25 6 12 18 13 18 17
3590.0 19 27 27 28 31 27 16 6 7 4
3630.0 5 15 17 26 26 25 33 33 39 34
3670.0 26 31 29 35 36 31 25 22 27 19
3710.0 10 17 22 20 22 21 12 19 28 40
3750.0 47 41 34 30 32 33 35 35 29 20
3790.0 19 19 24 30 23 16 13 9 13 20
3830.0 20 14 10 17 25
##END=
