##TITLE=3,5-Dibromosalicylaldehyde
##JCAMP-DX=4.24
##DATA TYPE=INFRARED SPECTRUM
##ORIGIN=EPA-IR VAPOR PHASE LIBRARY
##OWNER=SRD/NIST
Collection (C) 2018 copyright by the U.S. Secretary of Commerce
on behalf of the United States of America. All rights reserved.
##CAS REGISTRY NO=90-59-5
##MOLFORM=C 7 H 4 Br 2 O 2
##$NIST SOURCE=MSDC-IR
##STATE=gas
##XUNITS=1/CM
##YUNITS=ABSORBANCE
##XFACTOR=1.
##YFACTOR=0.001
##DELTAX=3.85796
##FIRSTX=501.5
##LASTX=4000.7
##FIRSTY=8.91
##MAXX=4000.7
##MINX=501.534
##MAXY=0.1336
##MINY=0.000005335
##NPOINTS=908
##XYDATA=(X++(Y..Y))
501.534 8.91 7.26 4.63 3 2.14 1.63 1.38 1.57 1.9 2.21
540.114 2.71 3.26 3.7 4.36 4.84 4.37 3.71 3.03 2.55 2.55
578.693 2.54 2.53 2.64 2.74 2.71 2.57 2.41 2.28 2.23 2.18
617.273 2.09 2.1 2.21 2.37 2.65 3.07 3.43 3.77 4.2 5.08
655.852 6.7 8.77 10.9 12.7 14.37 17.61 24.88 33.38 36.63 31.92
694.432 23.24 19.43 22.73 29.49 34.46 34.42 29.28 22.9 19.61 18.49
733.011 18.7 19.04 16.67 12.24 8 4.99 3.35 2.57 2.17 1.81
771.591 1.56 1.47 1.37 1.3 1.28 1.15 1.04 0.9546 0.9189 1.03
810.170 1.22 1.47 1.97 2.63 3.2 3.3 2.89 2.27 1.66 1.38
848.750 1.53 2.14 3.45 5.76 8.65 11 10.46 7.41 4.75 3.28
887.330 3.05 3.37 3.57 3.33 3.13 3.82 5.62 7.51 7.79 6.1
925.909 3.39 1.61 1.01 0.7434 0.5821 0.499 0.4977 0.4974 0.5112 0.4998
964.489 0.528 0.618 0.672 0.7503 0.8008 0.8273 0.918 1 0.9984 1.02
1003.068 1.16 1.21 1.12 0.9758 0.9071 0.8633 0.7952 0.7595 0.7989 0.8438
1041.648 0.8448 0.892 0.8293 0.8115 0.8779 0.94 1.04 1.18 1.35 1.53
1080.227 1.79 1.98 2.18 2.4 2.48 2.73 3.19 3.9 4.76 5.58
1118.807 6.33 7.13 8.27 10.3 13.99 19.6 26.48 33.37 38.66 41.23
1157.387 40.33 35.83 28.39 20.03 14.14 12.17 13.63 18.43 26.64 35.5
1195.966 39.81 37.85 30.63 22.48 16.95 13.36 11.07 9.8 9.12 8.59
1234.546 8.3 8.51 9.42 11.17 13.37 15.65 18.08 21.52 27.85 38.56
1273.125 52.82 65.21 67.54 55.79 35.71 18.35 9.74 7.48 7.5 8.62
1311.705 10.67 13.15 15.32 16.53 16.51 15.52 13.94 12.59 12.4 13.47
1350.284 15.13 16.69 17.89 18.69 18.6 16.9 13.85 10.91 9.71 10.72
1388.864 13.11 15.96 19.35 23.81 29.8 36.75 43.4 48.48 50.54 48.88
1427.443 44.8 41.05 40.27 42.78 46.1 47.1 43.54 35.93 26.68 18.59
1466.023 13.04 9.77 7.83 6.68 5.92 5.3 4.67 4.03 3.44 2.95
1504.603 2.61 2.37 2.28 2.28 2.31 2.32 2.24 2.12 2.07 2.11
1543.182 2.27 2.51 2.77 3.01 3.18 3.21 3.22 3.36 3.62 4.04
1581.762 4.64 5.51 6.67 7.96 9.08 9.55 9.1 7.9 6.42 5.26
1620.341 4.74 4.71 4.89 5.15 5.65 6.49 7.53 8.7 9.97 11.92
1658.921 15.61 23.11 38.11 66.62 106.36 133.6 128.58 91.02 48.8 26.02
1697.500 17.75 15.57 15.57 15.36 13.96 11.56 9.47 8.29 7.71 7.38
1736.080 6.97 6.26 5.31 4.37 3.64 3.17 2.9 2.7 2.49 2.34
1774.659 2.27 2.27 2.2 1.97 1.63 1.26 0.957 0.7905 0.7385 0.7085
1813.239 0.709 0.7603 0.879 1.09 1.38 1.69 1.82 1.66 1.29 0.8918
1851.819 0.665 0.5909 0.5722 0.5914 0.6128 0.6337 0.6486 0.6431 0.6517 0.6437
1890.398 0.6259 0.574 0.4931 0.436 0.3695 0.3124 0.2877 0.2838 0.3029 0.323
1928.978 0.3384 0.347 0.3579 0.3774 0.374 0.3537 0.3356 0.3251 0.3526 0.383
1967.557 0.3736 0.3369 0.2968 0.2704 0.254 0.2661 0.2782 0.2727 0.2486 0.2185
2006.137 0.1911 0.1497 0.1226 0.1281 0.1279 0.1306 0.1302 0.1145 0.1192 0.1524
2044.716 0.1673 0.1656 0.203 0.2599 0.3153 0.3563 0.3809 0.3985 0.3892 0.3722
2083.296 0.3633 0.3665 0.3695 0.394 0.4796 0.5642 0.6024 0.5849 0.5282 0.448
2121.875 0.3526 0.2945 0.2712 0.2382 0.206 0.1651 0.1364 0.1039 0.08829 0.1193
2160.455 0.1075 0.08409 0.1116 0.1426 0.1479 0.163 0.1885 0.2185 0.2348 0.2274
2199.035 0.2327 0.214 0.169 0.109 0.09182 0.1135 0.1213 0.1172 0.1182 0.1551
2237.614 0.1825 0.1753 0.1986 0.2028 0.2158 0.2468 0.256 0.2817 0.2919 0.2922
2276.194 0.2806 0.2918 0.3008 0.2923 0.2859 0.2864 0.2514 0.243 0.2867 0.2975
2314.773 0.2672 0.2461 0.2373 0.2399 0.2457 0.2558 0.2521 0.2297 0.234 0.2243
2353.353 0.2362 0.2279 0.2156 0.2152 0.2363 0.2503 0.2486 0.2719 0.2738 0.312
2391.932 0.3603 0.3392 0.3187 0.3393 0.356 0.3716 0.3803 0.3877 0.4095 0.4431
2430.512 0.4382 0.4073 0.3906 0.392 0.3864 0.3845 0.4135 0.4372 0.4559 0.4866
2469.092 0.5532 0.6004 0.6083 0.621 0.6228 0.6092 0.6019 0.607 0.6022 0.5992
2507.671 0.5925 0.5639 0.5515 0.5385 0.5714 0.6005 0.6462 0.7297 0.8379 0.978
2546.251 1.1 1.24 1.34 1.35 1.32 1.28 1.2 1.11 1.02 0.9948
2584.830 0.9764 0.9523 0.9475 0.9477 0.9386 0.9314 0.9245 0.905 0.8684 0.8397
2623.410 0.8334 0.8042 0.8105 0.8501 0.8648 0.8798 0.9358 0.9569 0.9244 0.9579
2661.989 1 1.05 1.17 1.29 1.37 1.42 1.49 1.53 1.6 1.66
2700.569 1.71 1.82 1.99 2.25 2.62 3.1 3.71 4.37 4.86 4.99
2739.148 4.73 4.32 3.92 3.65 3.49 3.34 3.19 3.01 2.88 2.8
2777.728 2.73 2.72 2.79 2.9 3 3.12 3.32 3.57 3.78 4.06
2816.308 4.55 5.29 6.49 8.41 11.52 16.28 22.25 26.48 25.98 20.72
2854.887 13.54 8.36 6.02 5.14 4.69 4.25 3.72 3.15 2.73 2.45
2893.467 2.22 2.02 1.84 1.7 1.61 1.58 1.55 1.48 1.48 1.52
2932.046 1.55 1.62 1.67 1.75 1.82 1.85 1.86 1.87 1.92 1.94
2970.626 1.96 2 2.04 2.07 2.1 2.15 2.21 2.28 2.32 2.32
3009.205 2.31 2.25 2.16 2.12 2.13 2.18 2.23 2.28 2.39 2.52
3047.785 2.58 2.6 2.71 2.81 2.89 2.98 3.18 3.48 3.74 3.98
3086.364 4.13 4.26 4.39 4.53 4.75 4.92 5.07 5.18 5.3 5.44
3124.944 5.63 5.8 5.9 6.03 6.17 6.32 6.43 6.59 6.82 7.03
3163.524 7.18 7.34 7.49 7.72 7.97 8.09 8.13 8.19 8.19 8.04
3202.103 7.88 7.75 7.59 7.38 7.16 6.98 6.79 6.63 6.51 6.36
3240.683 6.24 6.22 6.28 6.4 6.46 6.55 6.69 6.78 6.83 6.86
3279.262 6.9 6.91 6.82 6.68 6.55 6.38 6.14 5.93 5.77 5.59
3317.842 5.46 5.35 5.28 5.22 5.36 5.65 5.91 6.13 6.07 5.72
3356.421 5.31 4.89 4.54 4.32 4.2 4.03 3.87 3.79 3.67 3.62
3395.001 3.55 3.44 3.37 3.29 3.17 3.07 2.97 2.86 2.78 2.69
3433.580 2.6 2.51 2.47 2.44 2.36 2.26 2.23 2.24 2.24 2.18
3472.160 2.08 2.1 2.07 1.95 1.86 1.82 1.77 1.72 1.69 1.62
3510.740 1.59 1.59 1.57 1.65 1.89 2.41 3.59 4.95 5.56 5.12
3549.319 3.95 2.92 2.12 1.53 1.19 1 0.9031 0.846 0.7739 0.6773
3587.899 0.5838 0.5727 0.563 0.5196 0.4989 0.4116 0.4031 0.429 0.3488 0.3247
3626.478 0.4031 0.4189 0.4131 0.4002 0.357 0.3247 0.2924 0.2657 0.2505 0.222
3665.058 0.2296 0.2352 0.1848 0.238 0.2949 0.2225 0.186 0.1595 0.1219 0.1756
3703.637 0.1858 0.1601 0.1619 0.1297 0.1418 0.2006 0.2043 0.2068 0.2318 0.2203
3742.217 0.1584 0.1349 0.177 0.1862 0.1793 0.1361 0.1454 0.1709 0.1399 0.1341
3780.797 0.1499 0.133 0.06785 0.08858 0.1394 0.1432 0.128 0.07686 0.04273 0.02013
3819.376 0.005335 0.03893 0.03077 0.05933 0.06953 0.04376 0.08767 0.1436 0.1165 0.1006
3857.956 0.1099 0.09364 0.06733 0.08901 0.1709 0.169 0.1634 0.1671 0.1845 0.2236
3896.535 0.1827 0.1077 0.1391 0.1633 0.1126 0.06312 0.08561 0.117 0.1207 0.07612
3935.115 0.04663 0.063 0.05101 0.0859 0.1451 0.2318 0.1957 0.1311 0.152 0.1417
3973.694 0.2073 0.2805 0.2645 0.2252 0.2478 0.3024 0.3512 0.3021
##END=
