##TITLE=N,N-Diethyl-4-methyl-1-piperazinecarboxamide
##JCAMP-DX=4.24
##DATA TYPE=INFRARED SPECTRUM
##ORIGIN=EPA-IR VAPOR PHASE LIBRARY
##OWNER=SRD/NIST
Collection (C) 2018 copyright by the U.S. Secretary of Commerce
on behalf of the United States of America. All rights reserved.
##CAS REGISTRY NO=90-89-1
##MOLFORM=C 10 H 21 N 3 O
##$NIST SOURCE=MSDC-IR
##STATE=gas
##XUNITS=1/CM
##YUNITS=ABSORBANCE
##XFACTOR=1.
##YFACTOR=0.001
##DELTAX=1.92898
##FIRSTX=549.8
##LASTX=4000.7
##FIRSTY=4.92
##MAXX=4000.7
##MINX=549.759
##MAXY=0.34357
##MINY=0.0002649
##NPOINTS=1790
##XYDATA=(X++(Y..Y))
549.759 4.92 4.86 5.05 5.35 5.47 5.86 6.44 7.02 7.52 7.49
569.049 7.28 7.56 7.73 7.49 6.83 6.5 6.28 5.78 5.65 5.52
588.339 5.38 5.21 4.79 4.53 4.32 3.95 3.48 3.21 3.1 2.78
607.628 2.36 2.04 2.06 1.96 1.76 1.9 1.79 1.88 2.22 2.23
626.918 2.25 2.51 2.8 2.88 2.85 3.09 3.33 3.29 3.09 2.87
646.208 2.71 2.55 2.28 1.98 1.75 1.53 1.46 1.37 1.15 1.02
665.498 1 0.9653 1.1 1.18 0.9878 0.9004 1.06 1.14 1.04 1.09
684.787 1.18 0.9726 0.9589 1.15 0.9883 1 1.12 1.16 1.34 1.37
704.077 1.38 1.42 1.46 1.4 1.34 1.42 1.4 1.45 1.59 1.68
723.367 1.82 1.67 1.76 2.12 2.05 1.98 1.97 1.95 2.08 2.28
742.657 2.54 2.49 2.52 2.9 3.18 3.38 3.64 4.17 4.96 5.71
761.947 6.64 8.07 9.75 11.62 13.83 16.28 18.54 20.6 22.39 23.75
781.236 24.57 25.1 25.98 26.85 27.62 28.52 29.13 29.4 28.82 27.28
800.526 25.15 22.34 19.11 15.67 12.56 10.17 8.41 7.15 6.06 5.43
819.816 4.68 4.06 4.04 3.89 3.45 3.03 2.9 2.73 2.68 2.76
839.106 2.72 2.83 3.03 3.15 3.2 3.26 3.47 3.69 3.9 3.91
858.395 3.73 3.47 3.17 3 2.76 2.46 2.44 2.35 2.27 2.22
877.685 2.16 2.07 1.98 1.86 1.84 1.96 1.89 1.98 2.06 2.03
896.975 2.06 2.2 2.32 2.38 2.6 2.64 2.56 2.72 3.01 3.29
916.265 3.37 3.52 4 4.49 5.04 5.46 6.08 6.92 7.38 7.84
935.555 8.26 8.48 8.83 8.97 9.05 9.3 9.58 10 10.5 11.26
954.844 12.43 13.88 15.44 17.02 18.48 19.85 21.03 21.57 21.67 21.59
974.134 21.21 20.7 20.15 19.43 19.48 20.52 22.65 26.36 31.86 39.78
993.424 50.12 61.85 73.23 83.48 91.55 96.32 96.61 91.83 83.04 72.14
1012.714 60.97 49.99 40.34 33.25 28.15 24.47 22.27 20.86 20.06 19.42
1032.003 18.9 19.02 19.48 20.41 21.95 24.42 27.31 30.4 33.79 37.26
1051.293 40.69 43.49 45.83 47.39 48.37 49.26 49.44 49.68 50.16 50.34
1070.583 50.15 49.53 48.79 47.69 46.64 46.46 46.35 46.52 46.76 46.05
1089.873 45.63 45.52 45.3 44.84 43.93 43.26 42.47 41.66 40.4 38.88
1109.163 37.98 37.46 37.3 37.21 37.72 39.2 41.91 45.47 50.14 56.35
1128.452 63.74 72.21 81.77 91.53 100.01 106.81 111.13 112.59 111.03 106.76
1147.742 100.14 92.36 85.06 77.81 71.36 66.36 62.56 60.1 59.28 59.79
1167.032 61.76 65.49 70.6 76.71 83.41 89.7 94.45 97.27 97.52 94.86
1186.322 89.47 82.69 75.86 69.6 64.82 61.88 60.62 60.44 61.02 61.94
1205.611 62.57 63.19 63.31 63.44 64.12 64.78 65.98 68.27 72.26 77.31
1224.901 83.78 92.19 101.34 110.68 119.94 128.29 135.38 142.42 149.96 158.63
1244.191 169.76 183.58 198.92 213.54 224.61 229.84 228.05 219.09 203.22 182.04
1263.481 159.15 136.96 117.57 102.05 90.83 83.9 80.86 81.63 86.33 94.76
1282.771 105.8 118.32 130.19 139.24 144.22 144.46 139.95 131.49 120.76 109.36
1302.060 98.39 88.59 80.35 73.82 68.85 65.07 62.4 60.87 60.32 60.48
1321.350 61.16 62.08 63.06 64.09 65.13 66.1 67.01 67.98 69.17 70.76
1340.640 72.93 75.6 78.93 83.02 87.71 93.06 98.82 104.73 110.56 116.11
1359.930 120.82 123.9 125.04 124.63 123.7 123.05 123.28 124.82 127.89 132.29
1379.219 137.21 141.4 144.12 145.45 146.19 147.24 149.56 154.22 161.75 171.56
1398.509 182.57 193.48 202.39 208.08 209.59 206.81 199.8 189.18 176.18 161.87
1417.799 147.46 133.45 120.88 109.86 100.29 92.39 85.82 80.64 76.73 74.1
1437.089 72.82 73.02 75.01 78.91 84.37 90.89 97.84 104.2 109.49 113.15
1456.378 114.93 114.9 113.35 110.9 108.26 105.85 103.78 101.94 99.9 97.15
1475.668 93.39 88.29 81.97 74.53 66.49 58.56 51.16 44.73 39.4 35.24
1494.958 31.95 29.18 27.12 25.5 24.11 22.93 21.9 21.01 20.16 19.42
1514.248 18.8 18.18 17.65 17.18 16.66 16.15 15.79 15.44 15.05 14.71
1533.538 14.43 14.18 13.96 13.71 13.52 13.4 13.38 13.34 13.32 13.35
1552.827 13.36 13.39 13.4 13.31 13.24 13.3 13.38 13.36 13.32 13.29
1572.117 13.3 13.4 13.46 13.49 13.54 13.56 13.68 13.78 13.84 13.98
1591.407 14.16 14.41 14.77 15.17 15.6 16.09 16.7 17.34 18.04 18.88
1610.697 19.73 20.59 21.53 22.58 23.79 24.98 26.19 27.45 28.64 29.93
1629.986 31.19 32.31 33.52 34.9 36.4 38.15 40.41 43.29 47.25 52.49
1649.276 59.29 67.99 80.05 94.96 112.76 134.63 159.63 188.15 218.74 249.84
1668.566 280.33 308.16 329.26 341.4 343.57 335.95 318.01 292.47 259.69 223.06
1687.856 187.58 153.78 124.56 101.05 82.1 67.52 57.35 49.22 43.59 39.25
1707.146 36.05 33.48 31.47 29.88 28.56 27.43 26.52 25.66 24.86 24.08
1726.435 23.31 22.53 21.68 20.76 19.77 18.74 17.76 16.66 15.52 14.42
1745.725 13.46 12.54 11.59 10.71 10.01 9.39 8.81 8.34 7.98 7.58
1765.015 7.24 7.03 6.79 6.55 6.32 6.09 5.97 5.77 5.54 5.36
1784.305 5.19 5.08 4.89 4.67 4.55 4.4 4.22 4.1 3.97 3.81
1803.594 3.72 3.62 3.5 3.39 3.33 3.28 3.22 3.16 3.08 3.04
1822.884 3.02 2.96 2.93 2.89 2.86 2.84 2.84 2.83 2.82 2.76
1842.174 2.73 2.74 2.71 2.65 2.61 2.57 2.58 2.6 2.58 2.56
1861.464 2.55 2.56 2.55 2.51 2.5 2.52 2.49 2.43 2.43 2.49
1880.754 2.48 2.44 2.37 2.36 2.38 2.42 2.43 2.41 2.44 2.5
1900.043 2.52 2.58 2.67 2.64 2.66 2.78 2.86 2.89 2.91 2.97
1919.333 3.01 3.05 3.09 3.09 3.02 2.94 2.88 2.83 2.74 2.65
1938.623 2.57 2.53 2.45 2.4 2.42 2.35 2.37 2.44 2.38 2.3
1957.913 2.23 2.22 2.24 2.24 2.29 2.28 2.26 2.2 2.18 2.23
1977.202 2.21 2.23 2.24 2.15 2.12 2.11 2.15 2.19 2.17 2.14
1996.492 2.17 2.23 2.25 2.27 2.29 2.25 2.19 2.15 2.13 2.13
2015.782 2.11 2.11 2.06 2.02 2 1.95 1.94 1.98 1.99 1.96
2035.072 1.98 1.97 1.92 1.97 1.99 1.97 2.01 2.03 2.11 2.16
2054.362 2.16 2.21 2.25 2.29 2.33 2.37 2.41 2.35 2.26 2.25
2073.651 2.21 2.14 2.06 2.03 2.04 2.06 2.12 2.17 2.21 2.23
2092.941 2.24 2.3 2.36 2.31 2.27 2.29 2.31 2.34 2.33 2.34
2112.231 2.32 2.23 2.23 2.25 2.2 2.15 2.07 2.04 2.06 2.05
2131.521 2.01 1.98 2.01 2.01 1.99 1.98 1.94 1.9 1.91 1.95
2150.810 1.94 1.92 1.91 1.86 1.85 1.87 1.79 1.76 1.72 1.69
2170.100 1.71 1.69 1.63 1.6 1.58 1.55 1.57 1.56 1.52 1.52
2189.390 1.51 1.53 1.57 1.52 1.46 1.55 1.61 1.59 1.6 1.64
2208.680 1.63 1.66 1.7 1.66 1.64 1.65 1.64 1.6 1.63 1.68
2227.970 1.66 1.63 1.68 1.75 1.77 1.73 1.69 1.69 1.71 1.7
2247.259 1.69 1.74 1.7 1.65 1.64 1.64 1.67 1.73 1.82 1.88
2266.549 1.92 1.88 1.87 1.92 1.98 2.01 2.04 2.06 2.03 2.02
2285.839 2.09 2.11 2.07 2.07 2.05 2.07 2.21 2.22 2.2 2.25
2305.129 2.2 2.18 2.23 2.32 2.34 2.32 2.33 2.29 2.28 2.28
2324.418 2.27 2.25 2.2 2.12 2.03 2.01 2.01 2 1.94 1.94
2343.708 1.98 2.01 2.03 2.02 2.05 2.01 2.02 2.06 2.15 2.22
2362.998 2.23 2.25 2.28 2.31 2.37 2.38 2.33 2.42 2.53 2.51
2382.288 2.46 2.47 2.48 2.47 2.45 2.39 2.37 2.33 2.31 2.31
2401.578 2.29 2.31 2.39 2.35 2.27 2.28 2.32 2.34 2.33 2.32
2420.867 2.33 2.39 2.44 2.43 2.47 2.49 2.43 2.43 2.43 2.4
2440.157 2.37 2.31 2.29 2.34 2.31 2.21 2.25 2.23 2.19 2.14
2459.447 2.09 2.09 2.06 2.15 2.14 2.12 2.18 2.13 2.11 2.15
2478.737 2.24 2.4 2.43 2.34 2.36 2.39 2.39 2.42 2.45 2.46
2498.026 2.47 2.51 2.67 2.75 2.73 2.8 2.85 2.9 2.88 2.85
2517.316 2.84 2.76 2.81 2.9 2.85 2.72 2.68 2.75 2.78 2.76
2536.606 2.78 2.82 2.87 2.93 2.84 2.78 2.9 2.94 2.96 3.08
2555.896 3.11 3.1 3.16 3.16 3.1 3 2.93 2.87 2.75 2.71
2575.186 2.69 2.66 2.71 2.74 2.69 2.63 2.68 2.79 2.74 2.72
2594.475 2.78 2.85 2.92 2.9 2.98 3.05 3.08 3.21 3.26 3.36
2613.765 3.53 3.62 3.69 3.76 3.81 3.87 4.06 4.24 4.38 4.57
2633.055 4.72 4.84 5.06 5.33 5.47 5.62 5.87 6.09 6.26 6.51
2652.345 6.86 7.2 7.58 8.1 8.58 9.01 9.56 10.2 10.87 11.45
2671.634 12.27 13.08 13.61 14.22 14.84 15.37 15.67 15.94 16.2 16.44
2690.924 16.54 16.51 16.48 16.36 16.31 16.21 16.11 15.96 15.81 15.8
2710.214 15.8 15.83 16.07 16.44 16.87 17.33 17.86 18.42 19.08 19.91
2729.504 20.86 21.93 23.01 24.22 25.57 26.92 28.21 29.42 30.34 31.03
2748.794 31.53 31.91 32.38 32.97 33.78 34.93 36.55 38.84 42.14 46.18
2768.083 50.61 54.96 58.84 62.4 65.81 69.37 73.36 78.25 84.55 92.19
2787.373 100.92 109.88 117.75 123.6 126.77 126.66 123.15 116.68 108.15 98.75
2806.663 89.41 80.72 72.91 66.19 60.7 56.09 52.24 49.01 46.39 44.44
2825.953 43.03 42.38 42.56 43.37 44.96 47.65 51.3 55.83 61.21 67.03
2845.242 72.95 78.71 83.96 88.34 91.59 93.68 94.7 95.17 95.51 95.73
2864.532 95.77 95.81 95.78 95.83 96.25 96.69 97.46 98.39 99.14 99.65
2883.822 99.67 99.22 98.33 97.08 95.78 94.65 93.8 93.39 93.61 94.58
2903.112 96 97.7 99.98 102.76 105.7 108.81 112.03 115.53 119.34 123.34
2922.401 127.67 132.73 138.73 145.82 154.2 163.79 174.37 185.54 196.74 207.03
2941.691 215.28 218.99 215.65 205.75 191.01 172.85 152.96 132.59 114.49 102.36
2960.981 97.49 98.85 104.6 113.27 123.4 133.39 141.84 147.39 149.16 147.11
2980.271 141.91 134.81 126.91 118.98 111.46 104.6 98.14 91.78 85.28 78.63
2999.561 71.76 64.53 57.42 50.81 44.75 39.33 34.74 30.86 27.53 24.68
3018.850 22.33 20.35 18.63 17.28 16.08 15.02 14.25 13.54 12.74 12.19
3038.140 11.67 11.1 10.61 10.08 9.73 9.43 9.14 8.86 8.52 8.36
3057.430 8.14 7.9 7.79 7.64 7.5 7.25 6.95 6.81 6.8 6.75
3076.720 6.61 6.52 6.47 6.32 6.15 6.01 5.82 5.65 5.58 5.51
3096.009 5.39 5.36 5.37 5.28 5.18 5.14 5.08 4.86 4.7 4.71
3115.299 4.64 4.52 4.5 4.4 4.31 4.21 4.16 4.1 4.05 4.09
3134.589 4.04 3.93 3.79 3.71 3.57 3.55 3.56 3.46 3.44 3.34
3153.879 3.25 3.21 3.13 3.05 3.05 3.06 3.1 2.97 2.78 2.68
3173.169 2.66 2.75 2.7 2.68 2.62 2.49 2.45 2.37 2.31 2.18
3192.458 2.18 2.2 2.14 2.06 2.05 2.15 2.08 1.96 1.95 1.89
3211.748 1.88 1.78 1.69 1.68 1.57 1.42 1.3 1.38 1.44 1.37
3231.038 1.35 1.29 1.21 1.29 1.32 1.23 1.18 1.18 1.16 1.16
3250.328 1.1 1.08 1.14 1.05 1.01 0.9719 1.03 1.08 1.07 1.07
3269.617 1.06 1.18 1.2 1.14 1.14 1.17 1.19 1.22 1.31 1.32
3288.907 1.24 1.3 1.43 1.45 1.47 1.54 1.51 1.43 1.53 1.59
3308.197 1.66 1.77 1.84 1.95 2.07 2.24 2.44 2.57 2.56 2.54
3327.487 2.7 2.86 2.95 3.04 3.01 2.96 2.86 2.8 2.82 2.77
3346.777 2.58 2.33 2.1 1.9 1.76 1.73 1.61 1.35 1.17 1.07
3366.066 1.24 1.37 1.25 1.25 1.2 1.07 0.945 0.9054 0.922 0.9503
3385.356 0.9758 0.9575 0.9667 0.9176 0.7897 0.7384 0.7455 0.8501 0.8521 0.651
3404.646 0.648 0.6887 0.6522 0.6131 0.667 0.6438 0.6605 0.7626 0.5839 0.6097
3423.936 0.7287 0.6847 0.7509 0.7124 0.5292 0.46 0.4605 0.472 0.4761 0.5184
3443.225 0.5175 0.5093 0.6544 0.7108 0.5482 0.5551 0.6077 0.4473 0.4192 0.4318
3462.515 0.5027 0.6357 0.6219 0.5084 0.393 0.4903 0.644 0.7023 0.665 0.4884
3481.805 0.3771 0.376 0.4467 0.5126 0.4647 0.4229 0.3939 0.3975 0.6228 0.6775
3501.095 0.5486 0.4744 0.271 0.2881 0.3254 0.3632 0.425 0.3652 0.4488 0.3752
3520.385 0.3189 0.4301 0.4553 0.4612 0.4502 0.4406 0.4525 0.4955 0.5623 0.5385
3539.674 0.5475 0.4798 0.3364 0.3963 0.4502 0.3955 0.4273 0.5046 0.4299 0.3749
3558.964 0.5174 0.5045 0.4649 0.6226 0.5702 0.468 0.503 0.5208 0.4401 0.3011
3578.254 0.2736 0.3372 0.4382 0.5622 0.637 0.5912 0.5305 0.3963 0.3023 0.4841
3597.544 0.5111 0.4315 0.4517 0.509 0.4743 0.5252 0.6531 0.6009 0.5669 0.4716
3616.833 0.3905 0.3029 0.4785 0.6141 0.5138 0.4159 0.3374 0.3592 0.3585 0.4101
3636.123 0.5063 0.5023 0.3635 0.3317 0.3953 0.5069 0.44 0.3561 0.4404 0.5796
3655.413 0.5865 0.6061 0.6299 0.3983 0.3895 0.4619 0.454 0.442 0.3186 0.2903
3674.703 0.2649 0.3579 0.4905 0.5257 0.5482 0.4144 0.3265 0.3691 0.4039 0.3717
3693.993 0.394 0.4894 0.484 0.3263 0.34 0.4621 0.5382 0.5665 0.5383 0.515
3713.282 0.6045 0.6098 0.5977 0.5973 0.5608 0.5067 0.4891 0.6144 0.5781 0.4822
3732.572 0.5645 0.6455 0.5737 0.6641 0.7211 0.6152 0.5507 0.5643 0.5955 0.6144
3751.862 0.6295 0.6936 0.6161 0.5375 0.5715 0.5517 0.6696 0.6723 0.4635 0.3836
3771.152 0.5273 0.5535 0.6408 0.6615 0.5623 0.654 0.6746 0.5767 0.4709 0.4625
3790.441 0.4168 0.5037 0.6392 0.5481 0.5844 0.6834 0.5941 0.5206 0.5701 0.4802
3809.731 0.4129 0.4472 0.5205 0.6142 0.5205 0.4461 0.4804 0.5387 0.5845 0.6373
3829.021 0.5956 0.5372 0.6799 0.7161 0.5641 0.6387 0.8439 0.9256 0.8177 0.604
3848.311 0.502 0.6342 0.6735 0.808 0.8785 0.807 0.7149 0.5802 0.6347 0.7093
3867.601 0.6594 0.6446 0.7804 0.7457 0.8675 0.9001 0.7158 0.6554 0.6443 0.7789
3886.890 0.814 0.7777 0.8072 0.8037 0.7286 0.8404 0.9816 0.9111 0.926 0.9786
3906.180 1.11 1.1 0.9917 0.9398 1.03 1.02 0.9731 1.06 1.02 1.09
3925.470 1.05 1.06 1.07 1.17 1.4 1.36 1.4 1.51 1.49 1.37
3944.760 1.32 1.46 1.54 1.51 1.37 1.32 1.41 1.46 1.42 1.47
3964.049 1.45 1.35 1.33 1.38 1.43 1.4 1.36 1.4 1.35 1.27
3983.339 1.44 1.51 1.52 1.65 1.65 1.57 1.63 1.66 1.6 1.54
##END=
