##TITLE=3,3,3-Triphenylpropionic acid
##JCAMP-DX=4.24
##DATA TYPE=INFRARED SPECTRUM
##ORIGIN=EPA-IR VAPOR PHASE LIBRARY
##OWNER=SRD/NIST
Collection (C) 2018 copyright by the U.S. Secretary of Commerce
on behalf of the United States of America. All rights reserved.
##CAS REGISTRY NO=900-91-4
##MOLFORM=C 21 H 18 O 2
##$NIST SOURCE=MSDC-IR
##STATE=gas
##XUNITS=1/CM
##YUNITS=ABSORBANCE
##XFACTOR=1.
##YFACTOR=0.001
##DELTAX=1.92898
##FIRSTX=549.8
##LASTX=4000.7
##FIRSTY=1.343
##MAXX=4000.7
##MINX=549.759
##MAXY=0.021703
##MINY=0
##NPOINTS=1790
##XYDATA=(X++(Y..Y))
549.759 1.343 1.0675 0.9796 1.1446 1.0554 1.293 1.543 1.583 1.473 1.923
569.049 2.013 1.963 2.293 2.563 2.983 3.073 3.243 4.043 4.513 4.623
588.339 5.233 5.883 6.413 7.173 8.693 10.833 13.453 16.783 19.633 21.433
607.628 21.703 19.833 17.123 14.463 11.563 9.203 7.583 6.473 5.783 4.923
626.918 4.213 3.813 3.453 3.333 3.253 2.953 2.783 2.763 2.613 2.423
646.208 2.383 2.393 2.303 2.173 2.063 1.933 2.033 2.213 2.103 2.223
665.498 2.593 2.713 2.893 3.173 3.693 4.263 4.753 5.113 5.533 6.343
684.787 7.243 8.293 9.663 11.463 13.723 16.273 18.493 19.913 20.283 19.433
704.077 17.613 15.263 12.673 10.503 8.693 7.083 6.013 5.313 4.823 4.233
723.367 3.743 3.543 3.243 2.933 2.913 3.013 3.133 3.343 3.693 4.383
742.657 5.013 5.383 5.783 5.993 6.163 6.003 5.593 5.143 4.643 4.193
761.947 3.623 3.263 3.213 3.083 2.803 2.663 2.503 2.393 2.213 1.863
781.236 1.673 1.633 1.433 1.223 1.0615 0.8649 0.9298 1.243 1.563 1.303
800.526 0.8884 0.9913 1.022 0.9425 0.9386 1.1167 1.0842 1.283 1.463 1.533
819.816 1.643 1.463 1.703 1.473 1.1388 1.273 1.203 1.1521 1.433 1.503
839.106 1.373 1.353 1.283 1.243 1.1966 1.0876 1.1374 1.0788 1.0287 0.9256
858.395 0.8501 0.746 0.6139 0.5494 0.565 0.7505 0.7319 0.7519 0.6676 0.7505
877.685 0.9418 0.8067 0.8173 0.9395 0.822 0.7573 0.7647 0.793 0.9986 1.263
896.975 1.243 1.0103 1.0281 1.1482 1.243 1.383 1.523 1.603 1.583 1.573
916.265 1.453 1.263 1.203 1.243 1.353 1.433 1.253 1.0512 1.123 1.213
935.555 1.0127 0.8427 0.9252 0.9073 0.9422 0.9674 0.9426 1.1088 1.223 1.0899
954.844 0.9513 1.0382 1.0496 1.0765 1.133 1.283 1.363 1.313 1.343 1.333
974.134 1.293 1.383 1.533 1.683 1.793 1.933 1.923 1.883 1.973 1.983
993.424 2.003 2.173 2.223 2.323 2.553 2.413 2.233 2.143 2.203 2.143
1012.714 1.853 1.693 1.783 2.003 2.093 2.283 2.523 2.823 3.073 3.243
1032.003 3.743 4.223 4.563 4.693 4.283 3.763 3.053 2.543 2.273 2.013
1051.293 2.003 1.763 1.733 1.973 1.943 2.053 2.293 2.763 2.893 2.923
1070.583 3.583 4.073 4.533 4.943 5.123 5.703 6.873 7.543 7.753 7.773
1089.873 7.643 8.163 9.123 9.953 10.993 12.363 13.533 14.743 16.423 17.793
1109.163 18.913 20.123 20.643 20.283 19.693 18.773 17.853 16.503 14.623 12.853
1128.452 11.663 10.943 10.293 9.673 8.773 7.873 6.853 6.363 6.253 5.723
1147.742 5.123 4.843 4.693 4.803 4.973 4.783 4.393 4.333 4.543 4.363
1167.032 4.453 4.823 4.853 5.183 5.373 5.423 5.753 5.613 5.343 5.493
1186.322 5.573 5.623 6.003 5.643 5.193 5.083 4.753 4.323 4.073 3.723
1205.611 3.283 3.003 2.533 2.413 2.283 1.793 1.823 2.323 1.973 1.503
1224.901 1.753 2.063 2.073 1.813 1.753 1.883 1.613 1.803 2.123 1.923
1244.191 1.923 1.873 1.723 1.803 1.883 1.833 1.843 2.013 2.113 2.023
1263.481 1.973 2.093 2.223 2.173 2.233 2.243 2.083 1.893 1.873 1.923
1282.771 1.923 1.893 1.933 1.843 1.743 1.743 1.783 1.823 1.813 1.893
1302.060 2.033 2.133 2.183 2.233 2.223 2.133 2.163 2.203 2.183 2.163
1321.350 2.183 2.183 2.133 2.183 2.253 2.293 2.323 2.373 2.433 2.543
1340.640 2.643 2.713 2.843 3.073 3.263 3.443 3.723 4.003 4.313 4.603
1359.930 4.903 5.253 5.503 5.653 5.733 5.783 5.603 5.253 4.883 4.423
1379.219 3.953 3.513 3.063 2.743 2.453 2.133 1.923 1.813 1.723 1.593
1398.509 1.493 1.383 1.353 1.353 1.373 1.413 1.443 1.463 1.513 1.633
1417.799 1.793 2.013 2.213 2.443 2.763 3.043 3.253 3.453 3.743 4.043
1437.089 4.313 4.563 4.903 5.223 5.403 5.363 4.963 4.413 3.763 3.203
1456.378 2.833 2.443 2.153 1.983 1.923 1.873 1.853 1.913 1.943 2.073
1475.668 2.243 2.473 2.823 3.253 3.763 4.443 5.293 6.183 7.053 7.793
1494.958 8.253 8.263 7.863 7.103 6.013 4.923 3.873 3.033 2.423 1.883
1514.248 1.503 1.283 1.1346 1.0711 0.9706 0.8277 0.8173 0.8896 0.8533 0.7786
1533.538 0.8257 0.8594 0.8333 0.8465 0.876 0.8667 0.8583 0.8319 0.8861 0.8546
1552.827 0.7536 0.8042 0.8505 0.761 0.691 0.7748 0.8986 0.9356 0.9147 0.8993
1572.117 0.9503 1.1358 1.323 1.453 1.653 1.853 1.993 2.193 2.423 2.783
1591.407 3.133 3.383 3.613 3.733 3.693 3.513 3.233 2.823 2.423 2.063
1610.697 1.733 1.513 1.223 0.9101 0.8028 0.8291 0.7525 0.6563 0.6416 0.6106
1629.986 0.5958 0.5576 0.4927 0.5029 0.5364 0.4398 0.4254 0.5083 0.5461 0.5772
1649.276 0.5939 0.6197 0.6704 0.6805 0.6852 0.7371 0.7726 0.7994 0.8501 0.8871
1668.566 0.8644 0.8808 0.8673 0.8125 0.7924 0.7817 0.8015 0.8321 0.879 0.8929
1687.856 0.9457 0.9933 1.0177 1.0132 1.0093 1.0904 1.1211 1.1086 1.1583 1.273
1707.146 1.323 1.393 1.553 1.653 1.813 1.993 2.033 2.213 2.443 2.583
1726.435 2.753 2.973 3.223 3.483 3.843 4.213 4.583 5.013 5.493 6.083
1745.725 6.863 7.723 8.613 9.553 10.513 11.553 12.563 13.483 14.453 15.403
1765.015 16.243 17.083 17.983 18.923 19.853 20.573 20.913 20.623 19.593 17.963
1784.305 16.103 14.243 12.493 11.053 9.893 9.003 8.273 7.523 6.873 6.263
1803.594 5.673 5.113 4.553 4.113 3.703 3.303 2.983 2.693 2.453 2.263
1822.884 2.063 1.853 1.693 1.543 1.423 1.303 1.1826 1.1198 1.0838 1.0561
1842.174 1.0356 0.984 0.9853 1.0103 0.956 0.8795 0.7942 0.7768 0.8606 0.9221
1861.464 0.9468 0.9445 0.9421 0.9807 1.0119 1.0786 1.0993 1.1535 1.233 1.263
1880.754 1.243 1.253 1.253 1.191 1.1289 1.056 1.0337 1.0174 0.9394 0.8444
1900.043 0.8139 0.7431 0.7551 0.75 0.7003 0.7082 0.6195 0.5751 0.6204 0.6557
1919.333 0.6475 0.6149 0.6651 0.67 0.7412 0.831 0.8522 0.8649 0.9021 1.0236
1938.623 1.1458 1.283 1.383 1.433 1.423 1.433 1.403 1.363 1.283 1.223
1957.913 1.233 1.0602 0.912 0.8469 0.7332 0.7334 0.7114 0.6213 0.6017 0.5306
1977.202 0.4711 0.4879 0.4612 0.4332 0.4621 0.4821 0.454 0.4683 0.5147 0.4647
1996.492 0.4615 0.445 0.3851 0.4213 0.3985 0.3818 0.3877 0.4279 0.4328 0.3797
2015.782 0.3824 0.3887 0.3627 0.3227 0.3517 0.4154 0.4556 0.4665 0.3873 0.3094
2035.072 0.28662 0.28277 0.27817 0.26167 0.28834 0.341 0.3342 0.3315 0.3262 0.3334
2054.362 0.4284 0.4003 0.3606 0.4002 0.4185 0.3812 0.3252 0.3361 0.3708 0.352
2073.651 0.339 0.3793 0.3581 0.2951 0.3005 0.3224 0.3318 0.329 0.3117 0.347
2092.941 0.3146 0.3225 0.3812 0.4176 0.368 0.26357 0.30062 0.3225 0.3411 0.3607
2112.231 0.3548 0.4162 0.4591 0.4712 0.4276 0.4286 0.4982 0.5391 0.5227 0.458
2131.521 0.4225 0.3922 0.4172 0.4529 0.4271 0.3646 0.28422 0.3181 0.3743 0.3709
2150.810 0.3592 0.3635 0.3993 0.4106 0.4255 0.4533 0.3984 0.3116 0.29286 0.3862
2170.100 0.3626 0.26377 0.3247 0.3662 0.3682 0.3278 0.3224 0.4438 0.4618 0.4217
2189.390 0.4085 0.3958 0.3576 0.3348 0.3781 0.4007 0.3968 0.3647 0.3541 0.3715
2208.680 0.3583 0.3684 0.3528 0.24491 0.212925 0.28741 0.355 0.3492 0.3911 0.3848
2227.970 0.3459 0.4201 0.3996 0.3282 0.3819 0.3765 0.30064 0.333 0.4223 0.434
2247.259 0.3464 0.26665 0.339 0.4123 0.3747 0.357 0.3974 0.3698 0.30243 0.27887
2266.549 0.26482 0.3727 0.4315 0.411 0.3867 0.3809 0.3972 0.3441 0.3118 0.3781
2285.839 0.4269 0.4763 0.4803 0.3403 0.3495 0.448 0.391 0.3954 0.3933 0.3622
2305.129 0.3704 0.3775 0.3614 0.3345 0.4713 0.5723 0.6082 0.5835 0.4282 0.34
2324.418 0.336 0.3028 0.28897 0.3251 0.3525 0.3221 0.3195 0.339 0.3274 0.3724
2343.708 0.4327 0.3885 0.3661 0.4032 0.3853 0.4043 0.4504 0.4338 0.3846 0.3656
2362.998 0.4064 0.3857 0.3765 0.4173 0.4312 0.3987 0.3175 0.2267 0.26119 0.4058
2382.288 0.3627 0.26548 0.26083 0.2675 0.28471 0.3112 0.3445 0.403 0.378 0.3648
2401.578 0.4524 0.46 0.3805 0.3614 0.3474 0.233 0.25756 0.3185 0.338 0.3732
2420.867 0.3363 0.29231 0.26963 0.3377 0.3866 0.3056 0.3161 0.4083 0.4329 0.4066
2440.157 0.3582 0.4045 0.3857 0.3311 0.3527 0.3308 0.27425 0.298 0.3931 0.3808
2459.447 0.3161 0.29012 0.26938 0.29874 0.336 0.3645 0.3512 0.29526 0.2904 0.3197
2478.737 0.29799 0.27541 0.26689 0.22627 0.25282 0.26605 0.3165 0.28724 0.2367 0.27599
2498.026 0.24505 0.28341 0.22703 0.21363 0.3264 0.3437 0.3578 0.3096 0.24698 0.3545
2517.316 0.4193 0.3465 0.3521 0.28235 0.189 0.29536 0.3842 0.3946 0.3837 0.3284
2536.606 0.3342 0.3341 0.3393 0.3232 0.30282 0.3097 0.3196 0.3346 0.3484 0.3757
2555.896 0.3353 0.3218 0.3374 0.316 0.26048 0.22455 0.2698 0.3506 0.3957 0.3899
2575.186 0.4252 0.496 0.4878 0.4064 0.3697 0.3828 0.4099 0.374 0.3075 0.3416
2594.475 0.3684 0.3067 0.4003 0.4112 0.3238 0.4172 0.3845 0.3436 0.384 0.4116
2613.765 0.3602 0.30045 0.3212 0.3226 0.3034 0.3078 0.3902 0.3837 0.3426 0.3878
2633.055 0.3476 0.24915 0.2818 0.29936 0.3133 0.3886 0.4442 0.3942 0.3288 0.3197
2652.345 0.24229 0.27744 0.3655 0.4025 0.3943 0.3463 0.3186 0.27177 0.26422 0.3509
2671.634 0.3223 0.210578 0.23039 0.349 0.3486 0.3393 0.3556 0.22867 0.25406 0.32
2690.924 0.2843 0.3092 0.3194 0.24614 0.1712 0.2509 0.4397 0.4272 0.3728 0.28641
2710.214 0.28526 0.337 0.2805 0.29975 0.3411 0.3981 0.3708 0.3491 0.3607 0.4558
2729.504 0.493 0.3152 0.28852 0.3695 0.3756 0.4318 0.3621 0.28447 0.3289 0.4418
2748.794 0.4547 0.3209 0.3183 0.3702 0.3704 0.3797 0.3412 0.3718 0.4761 0.442
2768.083 0.4616 0.4963 0.3884 0.4083 0.3753 0.3141 0.4028 0.4546 0.5055 0.465
2787.373 0.4499 0.4203 0.29794 0.3366 0.30061 0.23334 0.3202 0.4001 0.3911 0.3504
2806.663 0.3893 0.3863 0.3206 0.3067 0.2756 0.22759 0.3325 0.404 0.4151 0.4686
2825.953 0.3806 0.3631 0.3581 0.25263 0.26983 0.36 0.4145 0.3788 0.3661 0.4425
2845.242 0.3992 0.4004 0.4471 0.4555 0.4541 0.3979 0.3812 0.4087 0.5307 0.6485
2864.532 0.6155 0.5326 0.409 0.3867 0.4849 0.5352 0.5809 0.5752 0.5773 0.5442
2883.822 0.4905 0.534 0.5302 0.4059 0.4749 0.5659 0.5205 0.5735 0.5795 0.5134
2903.112 0.5223 0.4907 0.5164 0.5486 0.4866 0.5987 0.739 0.7359 0.7588 0.8841
2922.401 0.8371 0.6765 0.7359 0.8077 0.8223 0.8939 0.9425 1.0342 1.213 1.273
2941.691 1.223 1.243 1.243 1.1949 1.167 1.1721 1.1609 1.0368 0.9279 1.0081
2960.981 1.0708 0.9524 0.8709 1.0413 1.0982 1.0103 1.0874 1.111 1.1191 1.1797
2980.271 1.1865 1.243 1.1765 1.124 1.1773 1.1613 1.1898 1.1523 1.233 1.293
2999.561 1.263 1.383 1.443 1.533 1.673 1.783 1.843 2.113 2.473 2.803
3018.850 3.153 3.473 3.903 4.353 4.743 5.163 5.593 5.953 6.223 6.353
3038.140 6.473 6.433 6.123 5.713 5.363 5.213 5.283 5.593 6.093 6.803
3057.430 7.863 9.133 10.473 12.023 13.433 14.133 14.223 13.543 12.093 10.313
3076.720 8.643 7.383 6.463 5.953 5.693 5.653 5.743 5.653 5.403 5.243
3096.009 4.983 4.443 3.883 3.543 3.343 2.953 2.593 2.413 2.253 1.973
3115.299 1.723 1.533 1.383 1.303 1.1873 0.9633 0.8554 0.8255 0.7288 0.713
3134.589 0.7857 0.8331 0.8138 0.7261 0.6018 0.7092 0.8027 0.6949 0.6707 0.6711
3153.879 0.6469 0.631 0.6977 0.5969 0.5658 0.7167 0.6086 0.5116 0.5515 0.5427
3173.169 0.4908 0.409 0.3528 0.3386 0.3887 0.4765 0.3076 0.28351 0.3594 0.4072
3192.458 0.4252 0.3168 0.3622 0.4196 0.29664 0.3114 0.3127 0.25804 0.29236 0.19641
3211.748 0.1251 0.1526 0.23732 0.305 0.3468 0.24985 0.102 0.22565 0.346 0.23261
3231.038 0.1196 0.1756 0.28022 0.28471 0.30059 0.22038 0.19575 0.3626 0.3288 0.23057
3250.328 0.26059 0.36 0.4158 0.3186 0.29626 0.27205 0.1637 0.1292 0.29619 0.3268
3269.617 0.1779 0.058 0.086 0.1521 0.1667 0.28732 0.3239 0.202396 0.1348 0.2286
3288.907 0.24653 0.3457 0.4091 0.325 0.29448 0.3501 0.29308 0.3127 0.3487 0.208085
3308.197 0.1858 0.20037 0.26266 0.29879 0.206676 0.1522 0.1454 0.025 0.093 0.1135
3327.487 0.1382 0.210498 0.1776 0.27739 0.1607 0.083 0.069 0.1227 0.24819 0.208563
3346.777 0.21417 0.088 0 0.1697 0.3125 0.3038 0.1893 0.1899 0.20006 0.22864
3366.066 0.23214 0.26657 0.4008 0.3075 0.28634 0.4383 0.3631 0.27903 0.3989 0.3127
3385.356 0.27741 0.3875 0.33 0.25865 0.29075 0.3443 0.3283 0.1814 0.071 0.1833
3404.646 0.28716 0.27679 0.29776 0.3457 0.29903 0.3452 0.4365 0.4577 0.4204 0.3727
3423.936 0.3468 0.27667 0.1797 0.1774 0.29915 0.203024 0.1479 0.24549 0.1661 0.1449
3443.225 0.1851 0.22541 0.2403 0.20939 0.3114 0.3546 0.3524 0.4661 0.3588 0.2779
3462.515 0.3509 0.30161 0.23091 0.22274 0.29204 0.28443 0.24288 0.1119 0.24968 0.4553
3481.805 0.467 0.4255 0.342 0.4428 0.5023 0.4107 0.3981 0.5198 0.6076 0.5741
3501.095 0.5446 0.6068 0.6672 0.8657 1.0636 1.0183 1.0194 1.1573 1.213 1.223
3520.385 1.178 1.1144 1.0976 1.0974 0.9602 1.0063 1.1104 0.879 0.7698 0.7783
3539.674 0.8452 0.8659 0.809 0.9401 1.046 1.153 1.343 1.553 1.893 2.563
3558.964 3.673 5.223 7.353 9.713 11.923 13.543 13.673 12.343 10.163 7.493
3578.254 5.033 3.313 2.263 1.693 1.383 1.213 1.0879 0.9167 0.8343 0.8164
3597.544 0.7891 0.8407 0.7745 0.5677 0.4055 0.4519 0.4985 0.4006 0.3752 0.4135
3616.833 0.4486 0.4251 0.29107 0.30116 0.27642 0.2951 0.29071 0.3179 0.3823 0.3123
3636.123 0.3113 0.3256 0.3146 0.25976 0.2946 0.23872 0.22195 0.3838 0.3106 0.1491
3655.413 0.212375 0.3577 0.2966 0.2245 0.37 0.3652 0.23872 0.26837 0.294 0.3129
3674.703 0.4335 0.25522 0.1619 0.28207 0.3726 0.4179 0.3545 0.3042 0.26731 0.23847
3693.993 0.25932 0.24578 0.22722 0.29306 0.3491 0.3182 0.24772 0.29495 0.3635 0.28692
3713.282 0.26185 0.3862 0.4007 0.3776 0.3893 0.383 0.4528 0.3931 0.23621 0.3124
3732.572 0.4511 0.5188 0.28289 0.021 0.203494 0.3109 0.19971 0.24926 0.27877 0.22471
3751.862 0.22963 0.29573 0.2766 0.27178 0.3616 0.3441 0.28738 0.25775 0.21707 0.26318
3771.152 0.3032 0.3099 0.29519 0.207304 0.1552 0.20082 0.27515 0.26434 0.1862 0.25841
3790.441 0.2421 0.1718 0.29045 0.3621 0.3879 0.21433 0.101 0.3083 0.29919 0.22257
3809.731 0.3381 0.4385 0.3459 0.1755 0.22083 0.28144 0.29945 0.26303 0.207472 0.1706
3829.021 0.21384 0.3554 0.27819 0.1535 0.24646 0.26587 0.1549 0.1385 0.1803 0.205457
3848.311 0.26187 0.28112 0.3305 0.4865 0.4928 0.1523 0.093 0.24849 0.1102 0.1074
3867.601 0.20079 0.139 0.23028 0.1844 0.006 0.069 0.1664 0.27128 0.21599 0.3951
3886.890 0.4399 0.27257 0.29805 0.3482 0.3479 0.24886 0.1603 0.1207 0.1506 0.29524
3906.180 0.4569 0.3549 0.19945 0.1104 0.1547 0.27616 0.3102 0.4291 0.3213 0.1342
3925.470 0.1301 0.1379 0.1338 0.23717 0.4004 0.3891 0.366 0.29786 0.24985 0.21372
3944.760 0.23896 0.3473 0.3202 0.27521 0.25403 0.3148 0.3068 0.26822 0.21792 0.1219
3964.049 0.056 0.1813 0.28357 0.1769 0.1274 0.209331 0.4388 0.4339 0.3218 0.24718
3983.339 0.19605 0.3411 0.211741 0.1915 0.4053 0.3913 0.3186 0.3093 0.3518 0.23845
##END=
