##TITLE=4-Hydroxy-3-methyl-2-butanone
##JCAMP-DX=4.24
##DATA TYPE=INFRARED SPECTRUM
##ORIGIN=EPA-IR VAPOR PHASE LIBRARY
##OWNER=SRD/NIST
Collection (C) 2018 copyright by the U.S. Secretary of Commerce
on behalf of the United States of America. All rights reserved.
##CAS REGISTRY NO=9006-26-2
##MOLFORM=C5 H10 O2
##$NIST SOURCE=MSDC-IR
##STATE=gas
##XUNITS=1/CM
##YUNITS=ABSORBANCE
##XFACTOR=1.
##YFACTOR=0.001
##DELTAX=3.85796
##FIRSTX=501.5
##LASTX=4000.7
##FIRSTY=2.6
##MAXX=4000.7
##MINX=501.534
##MAXY=0.02927
##MINY=0.00008387
##NPOINTS=908
##XYDATA=(X++(Y..Y))
501.534 2.6 2.69 2.61 2.41 2.35 2.22 1.99 1.89 1.75 1.45
540.114 1.37 1.42 1.35 1.39 1.45 1.4 1.33 1.37 1.43 1.45
578.693 1.48 1.66 1.88 1.94 1.93 1.86 1.82 1.74 1.58 1.37
617.273 1.08 0.9291 0.8483 0.744 0.6535 0.5774 0.599 0.6038 0.5224 0.5275
655.852 0.6061 0.6663 0.622 0.5815 0.6424 0.6211 0.5441 0.4988 0.4361 0.4459
694.432 0.5024 0.5375 0.5641 0.5736 0.5981 0.6366 0.6386 0.5819 0.5769 0.6221
733.011 0.6095 0.5508 0.4335 0.3664 0.3685 0.4026 0.4179 0.3668 0.3577 0.3977
771.591 0.4094 0.3725 0.3501 0.4191 0.4419 0.3588 0.3348 0.3291 0.3238 0.3835
810.170 0.4242 0.3715 0.3228 0.3538 0.3917 0.4091 0.441 0.5057 0.5635 0.6265
848.750 0.6832 0.7566 0.8662 0.9304 0.994 1.02 1.08 1.19 1.21 1.26
887.330 1.38 1.49 1.59 1.64 1.74 1.92 2.14 2.31 2.55 2.77
925.909 2.99 3.32 3.69 4.06 4.42 4.7 4.96 5.2 5.32 5.4
964.489 5.48 5.49 5.52 5.62 5.71 5.74 5.8 5.9 6.09 6.42
1003.068 6.94 7.81 8.9 10.4 12.18 13.85 15.42 16.56 17.29 17.61
1041.648 17.3 16.51 15.33 14.12 13.08 12.29 11.48 10.33 9.11 7.99
1080.227 6.99 6.27 5.78 5.48 5.31 5.32 5.43 5.44 5.51 5.58
1118.807 5.42 5.13 4.97 4.91 4.89 5.08 5.49 6.18 7.12 8.19
1157.387 9.3 10.14 10.59 10.69 10.34 9.78 9.03 8.02 7.11 6.46
1195.966 6.08 6.01 6.04 6.13 6.2 6.17 6.13 6.04 5.81 5.53
1234.546 5.22 4.76 4.45 4.22 3.99 3.83 3.67 3.55 3.44 3.39
1273.125 3.39 3.41 3.47 3.56 3.6 3.63 3.66 3.71 3.79 3.93
1311.705 4.08 4.26 4.53 4.9 5.35 5.87 6.55 7.49 8.7 10.13
1350.284 11.59 12.89 13.96 14.55 14.55 14.07 13.13 11.84 10.55 9.5
1388.864 8.75 8.22 7.77 7.29 6.77 6.24 5.73 5.27 4.87 4.6
1427.443 4.43 4.35 4.36 4.5 4.72 5.02 5.32 5.6 5.84 5.93
1466.023 5.8 5.47 5 4.48 3.91 3.31 2.75 2.27 1.91 1.68
1504.603 1.52 1.39 1.31 1.25 1.2 1.18 1.15 1.13 1.12 1.08
1543.182 1.05 1.04 1.02 0.9918 0.9733 0.9417 0.9191 0.8876 0.8382 0.8142
1581.762 0.8083 0.7847 0.7543 0.7576 0.7527 0.7333 0.7069 0.6924 0.7072 0.7263
1620.341 0.7543 0.7756 0.7843 0.8101 0.864 0.9029 0.9611 1.06 1.18 1.34
1658.921 1.52 1.78 2.13 2.56 3.06 3.69 4.5 5.55 6.85 8.56
1697.500 10.82 13.64 16.88 20.2 23.2 25.72 27.87 29.27 28.89 26.4
1736.080 22.82 19.15 15.42 11.83 8.67 6.23 4.52 3.37 2.57 1.99
1774.659 1.56 1.24 1 0.8247 0.6955 0.5893 0.5068 0.4467 0.4034 0.3668
1813.239 0.3283 0.3199 0.3074 0.2813 0.2661 0.254 0.2488 0.2513 0.2317 0.2078
1851.819 0.2065 0.2131 0.2114 0.1998 0.1839 0.1962 0.2247 0.222 0.2262 0.2385
1890.398 0.2345 0.2373 0.237 0.2403 0.2429 0.2322 0.2322 0.2317 0.2195 0.204
1928.978 0.2034 0.2116 0.2133 0.2114 0.2125 0.2353 0.2272 0.2009 0.2084 0.2097
1967.557 0.2126 0.2069 0.1967 0.2006 0.1974 0.214 0.2389 0.2195 0.1997 0.2223
2006.137 0.2223 0.2092 0.2054 0.2167 0.2401 0.2498 0.26 0.2691 0.2849 0.2658
2044.716 0.2582 0.2767 0.2849 0.2969 0.3028 0.3035 0.2921 0.2775 0.2772 0.2894
2083.296 0.2909 0.2795 0.2551 0.2273 0.2071 0.2073 0.2055 0.1927 0.1964 0.2028
2121.875 0.1803 0.1602 0.1562 0.1463 0.1412 0.1495 0.1423 0.1105 0.1122 0.122
2160.455 0.1198 0.1255 0.1137 0.09948 0.1147 0.1148 0.1036 0.1035 0.08387 0.09376
2199.035 0.1073 0.123 0.1217 0.1038 0.1115 0.1174 0.1211 0.1387 0.134 0.1043
2237.614 0.1268 0.1523 0.1411 0.1296 0.1357 0.1573 0.1512 0.1468 0.1709 0.1715
2276.194 0.1477 0.1438 0.1614 0.1856 0.1871 0.1815 0.1929 0.1933 0.1884 0.1866
2314.773 0.1815 0.1766 0.1847 0.2025 0.2042 0.1946 0.1884 0.1874 0.1758 0.1425
2353.353 0.1421 0.1747 0.1786 0.1899 0.2054 0.1893 0.1819 0.2006 0.2146 0.2142
2391.932 0.2093 0.1969 0.2064 0.2278 0.2321 0.2287 0.2337 0.2364 0.232 0.2248
2430.512 0.2257 0.2155 0.2053 0.2102 0.2014 0.196 0.1782 0.1944 0.2143 0.195
2469.092 0.1951 0.1985 0.2112 0.2265 0.2213 0.1958 0.1855 0.1968 0.2009 0.2033
2507.671 0.1965 0.188 0.1758 0.1645 0.172 0.1791 0.1862 0.2065 0.2045 0.1824
2546.251 0.1895 0.2094 0.1982 0.2 0.2082 0.1963 0.1939 0.1745 0.1701 0.1713
2584.830 0.1636 0.1782 0.1956 0.2035 0.1811 0.178 0.1952 0.1834 0.1768 0.1877
2623.410 0.1924 0.2018 0.2009 0.202 0.2143 0.2055 0.2478 0.2698 0.2612 0.2601
2661.989 0.242 0.2727 0.3013 0.3282 0.349 0.3455 0.3722 0.3877 0.4089 0.4416
2700.569 0.4673 0.4936 0.5184 0.5352 0.5489 0.5834 0.6227 0.6495 0.6546 0.686
2739.148 0.7096 0.709 0.7336 0.769 0.7641 0.772 0.8163 0.831 0.8438 0.8987
2777.728 0.9446 0.958 0.9905 1.04 1.07 1.09 1.13 1.16 1.24 1.32
2816.308 1.39 1.46 1.55 1.7 1.87 2.05 2.2 2.4 2.65 2.95
2854.887 3.32 3.84 4.6 5.5 6.56 7.69 8.79 9.73 10.42 10.79
2893.467 10.81 10.62 10.35 10.1 9.98 10.01 10.29 10.85 11.51 12.18
2932.046 12.82 13.36 13.71 13.77 13.55 13.19 12.79 12.51 12.39 12.48
2970.626 12.7 12.79 12.66 12.09 11.14 9.91 8.47 6.98 5.64 4.6
3009.205 3.83 3.29 2.86 2.48 2.21 1.96 1.69 1.51 1.43 1.31
3047.785 1.27 1.28 1.25 1.18 1.14 1.12 1.1 1.1 1.08 1.03
3086.364 0.9563 0.912 0.9186 0.8952 0.8615 0.8203 0.746 0.7046 0.698 0.6744
3124.944 0.6322 0.6227 0.5744 0.5292 0.5079 0.5 0.4779 0.4344 0.4627 0.4263
3163.524 0.4074 0.4315 0.383 0.3595 0.3794 0.3662 0.3305 0.3609 0.3647 0.3099
3202.103 0.235 0.2022 0.2081 0.1923 0.2222 0.25 0.1812 0.1378 0.1668 0.2136
3240.683 0.2642 0.2594 0.2096 0.2411 0.266 0.2077 0.1615 0.1425 0.1249 0.1592
3279.262 0.2048 0.1779 0.1775 0.1888 0.194 0.1987 0.2155 0.1818 0.1522 0.1898
3317.842 0.1673 0.1164 0.08408 0.127 0.1959 0.1914 0.2059 0.2181 0.2095 0.2334
3356.421 0.252 0.2522 0.2568 0.2621 0.2829 0.3039 0.3123 0.3367 0.37 0.3691
3395.001 0.4046 0.4635 0.5306 0.5805 0.5994 0.6667 0.718 0.7871 0.871 0.8624
3433.580 0.8468 0.8505 0.8034 0.7712 0.7674 0.7106 0.6332 0.611 0.5862 0.5908
3472.160 0.6131 0.5769 0.4837 0.4298 0.4248 0.44 0.4411 0.4639 0.5019 0.4238
3510.740 0.3924 0.4274 0.4297 0.4454 0.4957 0.5457 0.548 0.5833 0.6564 0.7469
3549.319 0.841 0.8768 0.8778 0.9291 1.07 1.26 1.38 1.53 1.76 1.97
3587.899 2.15 2.28 2.32 2.33 2.4 2.43 2.45 2.47 2.49 2.48
3626.478 2.48 2.46 2.46 2.49 2.52 2.58 2.72 3 3.3 3.55
3665.058 3.67 3.66 3.56 3.32 2.94 2.47 1.98 1.53 1.19 0.9631
3703.637 0.8187 0.658 0.5425 0.4889 0.4287 0.4753 0.4713 0.347 0.3191 0.406
3742.217 0.4456 0.4554 0.4814 0.4823 0.4883 0.4555 0.4371 0.4061 0.3981 0.3541
3780.797 0.2737 0.2692 0.3094 0.3252 0.3267 0.3437 0.3236 0.2527 0.2506 0.2824
3819.376 0.2847 0.3225 0.3499 0.3754 0.3201 0.2475 0.2899 0.3411 0.3273 0.3517
3857.956 0.3936 0.3796 0.3522 0.3101 0.3053 0.2551 0.2821 0.347 0.3373 0.3686
3896.535 0.3606 0.3606 0.3656 0.3845 0.3804 0.3546 0.3448 0.3482 0.3148 0.2327
3935.115 0.2444 0.2966 0.2754 0.254 0.2591 0.2719 0.2687 0.2623 0.2657 0.2547
3973.694 0.2305 0.2177 0.2075 0.2356 0.3031 0.3016 0.24 0.223
##END=
