##TITLE=3,5-Difluorobenzylamine
##JCAMP-DX=4.24
##DATA TYPE=INFRARED SPECTRUM
##ORIGIN=EPA-IR VAPOR PHASE LIBRARY
##OWNER=SRD/NIST
Collection (C) 2018 copyright by the U.S. Secretary of Commerce
on behalf of the United States of America. All rights reserved.
##CAS REGISTRY NO=90390-27-5
##MOLFORM=C 7 H 7 F 2 N
##$NIST SOURCE=MSDC-IR
##STATE=gas
##XUNITS=1/CM
##YUNITS=ABSORBANCE
##XFACTOR=1.
##YFACTOR=0.001
##DELTAX=1.92898
##FIRSTX=549.8
##LASTX=4000.7
##FIRSTY=8.09
##MAXX=4000.7
##MINX=549.759
##MAXY=0.09291
##MINY=0
##NPOINTS=1790
##XYDATA=(X++(Y..Y))
549.759 8.09 7.99 7.38 7.2 7.32 6.71 6.42 6.38 6.06 5.58
569.049 4.01 3.8 4.48 3.74 3.8 4.81 4.83 4.04 4.31 5.49
588.339 4.77 4.2 4.79 4.67 4.54 5.01 5.02 5.04 5.63 5.5
607.628 5.28 5.55 6.06 5.9 6.17 7.28 7.85 7.83 8.16 8.82
626.918 9.23 9.32 9.21 9.44 9.05 9.18 9.55 9.25 8.9 8.97
646.208 9.02 9.18 9.71 9.62 9.52 9.5 10.22 11.28 11.7 11.88
665.498 12.47 12.97 13.48 14.62 15.76 16.25 16.37 16.87 17.68 17.28
684.787 16.49 16.91 16.62 16.11 15.72 15.38 14.86 13.93 13.12 12.79
704.077 12.44 11.93 11.83 11.55 11.42 11.89 12.02 11.94 12.31 12.51
723.367 12.95 13.17 13.43 14.17 14.61 14.9 15.35 15.97 16.62 16.79
742.657 16.88 17.4 18.03 18.78 19.31 19.9 20.25 20.22 20.95 21.8
761.947 22.25 22.63 23.5 23.92 24.28 24.99 24.61 24.22 23.94 23.68
781.236 23.14 22.24 22.08 21.87 21.47 20.28 19.03 18.96 18.57 17.75
800.526 17.27 16.77 15.77 14.79 14.75 14.5 13.58 13.47 14.15 14.72
819.816 15.23 14.28 12.98 13.71 14.54 15.12 16.93 19.61 22.24 24.97
839.106 28.44 31.98 35.65 40.52 46.11 49.71 49.51 45.98 41.53 37.68
858.395 34.89 31.64 28.41 25.94 22.1 18.89 16.9 14.82 13.27 11.99
877.685 10.82 10.04 9.46 8.87 8.52 8.47 8.22 7.96 7.58 7.27
896.975 7.14 6.77 6.35 6.67 7.02 6.54 6.29 6.75 7.48 7.73
916.265 7.72 8.2 8.49 8.63 9.65 10.17 10.71 11.81 12.07 12.66
935.555 13.67 14.4 14.94 15.35 15.97 16.37 16.36 16.89 17.41 17.24
954.844 17.22 17.43 17.73 18.13 18.23 18.25 18.29 18.42 19.04 20.14
974.134 21.33 22.96 24.24 25.28 26.31 27.5 29.37 30.5 30.7 30.16
993.424 28.89 27.8 27.3 25.85 22.85 20.19 18.51 16.55 14.05 11.75
1012.714 9.8 9.13 8.27 6.24 5.65 5.05 4.03 4 4.35 3.75
1032.003 3.83 4.32 3.96 4.31 4.06 3.73 3.82 3.88 4.58 4.99
1051.293 4.74 5.17 6.62 7.49 6.05 4.74 5.29 5.5 5.27 4.97
1070.583 4.24 4.37 4.97 5.48 5.22 4.21 4.92 5.38 4.62 4.37
1089.873 5.44 5.62 5.75 7.32 9.72 11.29 13.64 18.17 22.74 30.55
1109.163 41.32 51.88 65.47 78.18 82.13 81.12 77.28 78.95 85.93 84.97
1128.452 74.42 60.41 47.32 34.41 24.62 17.83 12.68 9.69 7.48 6.34
1147.742 6.01 6.01 4.66 3.4 3.65 3.24 3.22 3.06 2.5 2.93
1167.032 2.84 2.61 2.7 2.58 3.01 3.21 2.56 2.36 2.62 3.13
1186.322 2.59 1.694 1.82 1.4117 1.4766 2.01 2.05 2.48 1.256 0.88235
1205.611 2.22 1.94 1.83 2.39 2.1 1.504 2.11 3.43 2.62 1.83
1224.901 2.71 3.16 3.09 2.7 3.11 3.35 2.96 3.22 2.98 1.95
1244.191 2.3 3.36 3.35 3.21 2.9 3.1 3.45 2.74 2.76 4.08
1263.481 4.33 3.62 3.83 4.1 4.56 5.13 5.05 5.12 5.44 5.54
1282.771 5.93 5.96 5.89 6.7 7.42 8.47 9.9 11.74 14.2 16.75
1302.060 19.67 23.35 27.63 32.44 37.17 41.17 44.94 48.18 50.15 50.81
1321.350 50.18 48.21 45.26 41.41 36.94 32.34 27.91 24.17 21.17 18.82
1340.640 17.16 16.01 15.19 14.49 13.98 13.76 13.41 13.1 13.09 13.15
1359.930 13.36 13.65 13.73 13.87 14.28 14.71 15.23 15.66 15.51 15.23
1379.219 15.17 14.9 14.39 13.92 13.2 12.09 11.05 10.13 9.39 8.92
1398.509 8.42 7.96 7.8 7.88 7.71 7.8 8.4 8.94 9.82 11.01
1417.799 12.4 14.16 16.43 19.23 22.36 25.25 28.03 30.83 33.01 34.69
1437.089 36.53 38.16 39.61 41.12 42.46 43.77 45.16 46.37 47.9 49.31
1456.378 50.21 50.86 51.1 50.9 50.13 48.29 45.35 41.72 37.72 33.27
1475.668 29.27 25.87 22.88 19.96 17.63 15.91 14.37 12.81 11.54 10.74
1494.958 10.23 9.86 9.89 9.9 9.67 9.58 9.6 9.6 9.56 9.48
1514.248 9.21 8.95 8.92 8.97 8.69 8.23 7.89 7.62 7.2 6.89
1533.538 7.04 7.13 6.98 7.03 7.52 7.49 7.34 7.51 7.87 8.25
1552.827 8.26 8.42 8.9 9.58 10.39 11.38 12.83 14.5 16.92 20.04
1572.117 23.24 26.89 31.36 36.52 41.73 47.4 52.98 58.35 63.35 67.94
1591.407 71.69 74.3 76.16 77.48 77.83 77.63 76.87 75.92 75.39 76
1610.697 77.77 80.66 84.26 87.85 91.05 92.91 92.56 90.58 87.35 82.08
1629.986 75.47 68.47 60.88 51.91 44.02 37.74 32.13 27.54 24.02 21.16
1649.276 18.45 16.83 15.11 13.63 12.66 11.47 10.77 10.5 9.9 9.45
1668.566 9.39 8.98 8.58 8.53 8.26 7.9 7.77 7.7 7.29 6.78
1687.856 6.44 6.07 5.72 5.36 4.87 4.52 4.4 4.26 4.02 3.59
1707.146 3.48 3.65 3.64 3.41 3.34 3.32 3.21 3.17 3.07 3.13
1726.435 3.06 2.78 2.67 2.72 2.79 2.77 2.68 2.71 2.61 2.37
1745.725 2.34 2.36 2.27 2.29 2.4 2.31 2.05 1.98 2.05 1.98
1765.015 1.9 1.86 1.7681 1.7715 1.7249 1.7114 1.6398 1.5231 1.5317 1.5592
1784.305 1.6532 1.5804 1.5175 1.5597 1.6761 1.6688 1.4578 1.4599 1.5496 1.4694
1803.594 1.4212 1.4157 1.4968 1.5166 1.3766 1.3122 1.4056 1.6072 1.673 1.5792
1822.884 1.4353 1.4717 1.6644 1.6892 1.5419 1.4081 1.2621 1.2486 1.3306 1.4299
1842.174 1.4355 1.3205 1.387 1.4834 1.4128 1.428 1.4441 1.3959 1.396 1.3387
1861.464 1.2931 1.3834 1.381 1.2847 1.3513 1.4478 1.3419 1.2387 1.3236 1.3539
1880.754 1.2597 1.1983 1.1819 1.1171 1.226 1.3061 1.2897 1.2685 1.2375 1.2856
1900.043 1.2501 1.3482 1.381 1.2313 1.0859 1.1987 1.2792 1.0949 1.1574 1.4053
1919.333 1.4653 1.1942 1.042 1.1067 1.0193 1.0878 1.219 1.1236 1.2753 1.3908
1938.623 1.2842 1.2162 1.1077 1.1301 1.2972 1.2402 1.1172 1.2 1.0468 0.9863
1957.913 1.083 1.114 1.3219 1.2889 1.2571 1.4442 1.4889 1.5426 1.4496 1.3341
1977.202 1.3381 1.273 1.3549 1.2868 1.2274 1.188 1.0212 0.9925 1.1684 1.1881
1996.492 1.0517 1.144 1.0765 1.016 1.0526 1.1645 1.2521 1.2374 1.1772 0.9428
2015.782 1.0119 1.182 1.336 1.2504 1.0351 1.1035 1.1478 1.1584 1.02 1.047
2035.072 1.077 1.1472 1.3428 1.2641 1.1226 1.0686 1.061 1.1744 1.355 1.3293
2054.362 1.1836 1.128 1.2332 1.3185 1.3207 1.406 1.4174 1.3294 1.4333 1.5491
2073.651 1.528 1.3833 1.3278 1.5076 1.3719 1.2553 1.5651 1.6677 1.5661 1.6701
2092.941 1.5694 1.7071 1.86 1.6601 1.7568 1.7549 1.5762 1.577 1.4984 1.5681
2112.231 1.7559 1.6545 1.6006 1.603 1.5127 1.3678 1.3407 1.6074 1.5515 1.2816
2131.521 1.3821 1.4906 1.4696 1.3499 1.2818 1.3202 1.3555 1.355 1.1992 1.1479
2150.810 1.169 1.1766 1.07 1.0344 1.337 1.2919 1.1854 1.2534 1.2975 1.3121
2170.100 1.104 1.1421 1.2495 1.2261 1.2685 1.1972 1.0718 0.9304 1.0324 1.0341
2189.390 1.109 1.113 0.9999 1.0874 1.1231 1.1816 1.2263 1.0404 0.9168 1.0768
2208.680 1.3207 1.4227 1.1401 0.9675 0.90059 1.1459 1.2227 1.1324 1.3111 1.3371
2227.970 1.2367 1.3223 1.3269 1.081 1.1352 1.3532 1.4395 1.3313 1.4274 1.586
2247.259 1.4556 1.4593 1.5288 1.5851 1.6567 1.6731 1.5471 1.383 1.432 1.3785
2266.549 1.2115 1.3062 1.3979 1.34 1.3494 1.5723 1.7684 1.6021 1.3471 1.3373
2285.839 1.2231 1.0107 1.1111 1.1489 1.0873 1.0523 1.1179 1.2402 1.2861 1.3424
2305.129 1.3484 1.1891 1.2478 1.3609 1.487 1.3666 1.1706 1.197 1.1447 1.284
2324.418 1.0787 0.9589 1.1885 1.2334 1.2049 1.2557 1.2329 1.1783 1.2754 1.277
2343.708 1.3705 1.3404 1.1398 1.0738 1.0035 1.2482 1.2983 1.0715 0.9554 0.9653
2362.998 1.2413 1.4182 1.2841 1.1014 1.087 1.1748 1.1806 1.0545 1.1129 1.1984
2382.288 1.1767 1.1488 0.9599 1.0074 1.2528 1.2432 1.1532 1.256 1.5207 1.5903
2401.578 1.6121 1.6191 1.6186 1.5149 1.4957 1.6683 1.5493 1.4353 1.7273 1.84
2420.867 1.82 1.92 2 2.06 1.92 1.7531 1.83 2.21 2.41 2.15
2440.157 1.87 1.82 1.751 1.7069 1.5626 1.3912 1.544 1.6074 1.4845 1.5561
2459.447 1.4612 1.0396 1.0117 1.1274 1.093 0.87085 0.83176 0.9929 0.9771 1.0226
2478.737 1.0613 1.0349 0.9913 1.1489 1.1445 0.9885 0.9405 0.80299 0.685 0.563
2498.026 0.7507 1.0099 0.9996 1.0307 0.993 0.9611 0.9944 0.986 0.9747 0.9334
2517.316 1.024 1.3358 1.3549 0.9278 0.87195 1.027 0.84527 0.7559 0.972 1.1496
2536.606 1.0198 0.9941 1.1987 1.2321 1.2699 1.2285 1.0775 1.1402 1.2153 1.2748
2555.896 1.1592 0.89571 0.83037 1.1058 1.3481 1.2027 1.2994 1.4486 1.3181 1.3764
2575.186 1.4214 1.4629 1.2544 1.269 1.6823 1.807 1.91 1.6207 1.216 1.1249
2594.475 1.3734 1.6611 1.6318 1.5017 1.0666 1.138 1.4072 1.1102 1.1437 1.3856
2613.765 1.2152 1.3326 1.5371 1.2336 1.0903 1.1784 1.0733 1.0222 1.1401 1.2782
2633.055 1.2844 1.1558 1.2518 1.2236 1.123 1.1717 1.286 1.2501 0.9379 1.0185
2652.345 1.1844 1.3174 1.1722 0.84482 1.2121 1.3168 1.071 1.141 1.2007 1.2694
2671.634 1.368 1.3842 1.308 1.103 1.2771 1.3537 1.2694 1.4678 1.5746 1.622
2690.924 1.5889 1.3523 1.1791 1.1176 1.0764 1.403 1.5073 1.3574 1.3964 1.4464
2710.214 1.5654 1.6201 1.5704 1.77 1.91 1.6609 1.5395 1.753 1.93 1.93
2729.504 2.06 2.11 1.92 1.89 1.96 1.91 1.6848 1.8074 2 1.87
2748.794 1.91 2.17 2.49 2.29 1.8028 1.7591 1.92 1.7097 2.02 2.51
2768.083 2.44 2.06 2.03 2.47 2.56 2.6 2.48 2.03 1.99 2.02
2787.373 1.83 1.93 2.33 2.52 2.19 2.14 2.34 2.32 2.59 3.19
2806.663 3.1 3.07 3.42 3.51 3.28 3.17 3.53 3.71 3.94 4.04
2825.953 4.31 4.77 5.09 5.13 5.02 5.2 5.47 5.88 5.88 5.63
2845.242 6.14 6.54 6.81 7.09 7.17 7.7 8.16 8.54 9.01 9.51
2864.532 9.47 9.39 9.6 10.15 10.44 9.93 9.61 9.3 9.26 9.2
2883.822 8.75 8.69 9.09 9.23 9.22 9.37 9.24 9.37 9.71 9.8
2903.112 9.72 9.74 9.88 9.98 9.87 9.92 9.79 8.98 8.84 9.12
2922.401 9.04 8.76 8.52 8.49 8.57 8.37 8.32 8.48 8.33 7.97
2941.691 8.01 8.25 7.9 7.56 7.69 7.65 7.35 7.09 6.66 6.38
2960.981 6.38 5.92 5.58 5.32 4.82 4.75 4.35 3.83 3.66 3.58
2980.271 3.26 2.83 2.48 2.27 2.15 1.93 1.81 1.9 2.2 2.07
2999.561 1.7006 1.398 0.9474 0.84525 1.3628 1.4461 1.2876 1.5303 1.5085 1.4315
3018.850 1.3395 1.2966 1.4763 1.186 1.2236 1.4619 1.4216 1.4122 1.2885 1.2569
3038.140 1.3429 1.4102 1.5291 1.74 1.5054 1.0913 1.3035 1.81 2.05 2
3057.430 1.96 2.29 2.63 2.98 3.22 3.02 2.48 1.99 2.27 2.61
3076.720 2.35 2.25 2.27 2.36 2.24 2.27 2.65 2.5 2.16 2
3096.009 2.01 1.6802 1.4642 1.6843 1.7122 1.5673 1.4983 1.4435 1.2475 1.0598
3115.299 0.9786 0.9783 1.178 1.4802 1.4846 1.1784 0.9491 0.89095 0.87755 0.8251
3134.589 0.810015 1.1803 1.6094 1.5296 1.4324 1.1052 0.531 0.659 1.1322 1.0826
3153.879 0.709 0.633 0.87448 0.7368 0.185 0.405 0.7464 0.86338 1.2411 1.1613
3173.169 0.9258 0.9125 1.0811 1.2913 1.1673 0.83003 0.633 0.9109 1.2575 1.3101
3192.458 1.1675 0.86734 0.594 0.562 0.598 0.8073 0.692 0.638 0.7114 0.86207
3211.748 0.9377 0.80695 0.9651 0.89428 0.9985 1.3627 1.2709 1.0842 1.1297 1.1117
3231.038 1.0337 0.7782 0.59 0.7332 0.9102 0.675 0.809406 1.3612 1.605 1.588
3250.328 1.3263 1.085 0.514 0.675 1.1876 1.1472 1.0949 1.1329 1.0698 1.0836
3269.617 1.1777 1.1325 1.028 0.9372 1.109 1.0708 1.1641 1.0124 0.529 0.352
3288.907 0.509 0.612 0.499 0.686 0.87765 0.7175 0.484 0.9216 1.5341 1.2531
3308.197 0.9512 0.7361 0.464 0.314 0.605 0.619 0.80495 1.2448 0.90031 1.0461
3327.487 1.3078 1.1873 1.0819 1.1288 0.937 0.9718 1.1952 0.7909 1.1172 1.89
3346.777 1.99 1.7218 1.7202 1.86 1.6774 1.4402 1.1998 1.2978 1.4611 1.0766
3366.066 1.2028 1.7105 1.5265 1.0799 0.7885 0.9271 1.3533 1.3604 1.4888 1.7968
3385.356 1.95 1.7555 1.4488 1.3447 1.1202 1.0301 1.2401 1.1995 1.1711 1.5941
3404.646 1.6512 1.5245 1.0144 1.0464 1.3166 1.0946 1.1438 1.3282 1.472 1.5831
3423.936 1.88 1.3112 1.0072 1.4597 1.5177 1.1894 1.197 1.3328 1.1994 1.308
3443.225 1.1645 0.921 1.1829 1.5669 1.5089 1.1829 0.7145 0.652 0.90176 0.697
3462.515 0.629 1.0818 1.1596 0.9996 1.1577 1.0207 0.9668 1.2568 1.3419 1.1238
3481.805 1.0766 1.314 1.3799 0.9703 0.8735 0.80647 0.88535 0.9516 0.617 0.682
3501.095 0.664 0.87731 1.0921 0.84659 0.82234 0.67 0.355 0.592 0.673 0.567
3520.385 0.231 0.419 0.7872 0.83281 0.602 0.627 1.0471 1.0646 1.2182 0.993
3539.674 1.0029 1.2717 0.86428 0.636 0.9548 1.0283 1.18 1.0876 1.2349 1.4028
3558.964 1.0851 0.983 0.654 0.702 1.3368 1.1026 0.441 0.658 0.7267 0.405
3578.254 0.176 0.338 0.9281 0.88897 0.669 0.89867 1.0298 0.83057 0.542 1.1567
3597.544 1.4229 0.86982 0.90663 0.85088 0.9877 1.0457 0.315 0.223 1.0946 1.3844
3616.833 0.82473 1.0472 1.0331 0.683 1.0715 1.2806 1.0704 0.577 0.678 0.394
3636.123 0.17 0.7276 0.716 0.679 0.613 0.374 0.35 0.49 0.681 0.691
3655.413 1.268 1.5303 0.9735 0.922 0.9839 0.9363 0.9948 0.9497 0.9421 1.0508
3674.703 0.814314 0.9222 1.3606 1.3924 1.4576 1.1235 0.574 0.583 0.7352 1.126
3693.993 1.2999 0.82434 0.608 0.9996 0.9247 0.472 0.7124 1.1904 1.2601 1.0954
3713.282 0.9977 0.461 0.241 0.583 1.1558 1.6562 1.4571 1.5332 1.226 1.0259
3732.572 1.1475 1.2607 1.5403 1.0169 0.83902 0.87794 0.83757 1.2527 1.3022 1.3609
3751.862 1.5367 1.0698 0.53 0.511 0.7159 0.88912 1.205 1.4735 1.0741 0.697
3771.152 0.68 0.80426 1.4129 1.2822 0.539 0.121 0.80887 1.4576 0.85952 0.9507
3790.441 1.493 1.2203 0.84112 0.7614 0.7701 0.7623 1.003 1.295 0.9739 0.266
3809.731 0.166 0.379 0.345 0.548 0.232 0.33 1.0449 0.90065 1.1552 1.1893
3829.021 0.259 0.115 0.549 0.709 1.406 1.3739 1.1155 0.810949 0.463 0.7504
3848.311 0.90312 1.0017 0.9439 0.477 0 0.201 0.384 0.7477 1.4462 1.2722
3867.601 0.8666 1.0363 1.1111 0.7651 0.477 0.7596 1.1803 1.1597 0.581 0.787
3886.890 1.0077 0.7224 0.7916 0.89512 0.9738 0.638 0.366 0.218 0.065 0.468
3906.180 0.7919 0.535 0.425 0.7903 0.83959 0.9522 1.0749 1.2097 1.4199 1.2028
3925.470 1.0809 0.89826 0.7128 0.685 0.474 0.9694 1.4847 1.2412 1.0597 0.784
3944.760 0.574 0.671 1.0325 0.9457 0.704 0.9107 0.639 0.471 0.9192 1.2341
3964.049 1.0789 0.88573 1.0646 1.0008 1.2524 1.4611 1.5837 1.84 0.9975 0.466
3983.339 0.83769 1.0388 1.1247 1.2904 1.1646 1.0886 1.0377 0.646 1.0607 1.2959
##END=
