##TITLE=Diphenylmethanol
##JCAMP-DX=4.24
##DATA TYPE=INFRARED SPECTRUM
##ORIGIN=NIST Mass Spectrometry Data Center
##OWNER=NIST Standard Reference Data Program
Collection (C) 2018 copyright by the U.S. Secretary of Commerce
on behalf of the United States of America. All rights reserved.
##CAS REGISTRY NO=91-01-0
##MOLFORM=C 13 H 12 O
##$NIST SOURCE=MSDC-IR
##SPECTROMETER/DATA SYSTEM=HP-GC/MS/IRD
##STATE=gas
##XUNITS=1/CM
##YUNITS=ABSORBANCE
##XFACTOR=1.0
##YFACTOR=0.000000900
##DELTAX=4.0
##FIRSTX=550.0
##LASTX=3846.0
##FIRSTY=0.000975
##MAXX=3846
##MINX=550
##MAXY=0.009
##MINY=0
##NPOINTS=825
##XYDATA=(X++(Y..Y))
550.0 1083 634 286 167 30 74 116 171 356 704
590.0 1536 2649 3207 3075 2257 1358 1014 925 822 674
630.0 567 564 644 891 1236 1499 1611 1601 1587 1668
670.0 1915 2263 2856 3846 5333 7306 9193 10000 9416 7818
710.0 6019 4636 3848 3635 3965 4543 4984 5073 4871 4620
750.0 4465 4384 4170 3664 2898 2030 1392 1028 798 621
790.0 511 426 355 343 333 333 343 309 312 376
830.0 428 535 672 768 832 832 734 584 454 370
870.0 324 271 242 302 326 371 417 446 508 574
910.0 643 634 569 480 393 367 353 329 332 336
950.0 347 372 409 472 523 581 671 798 957 1170
990.0 1509 2002 2684 3564 4619 5711 6553 6984 7020 6639
1030.0 5923 5066 4088 3141 2369 1811 1425 1169 1033 974
1070.0 933 937 929 837 734 664 621 559 517 496
1110.0 454 399 354 350 380 416 445 487 603 772
1150.0 969 1262 1630 2091 2638 3209 3682 3912 3750 3262
1190.0 2641 2069 1677 1481 1407 1353 1320 1298 1231 1162
1230.0 1109 1056 986 934 953 989 1075 1204 1346 1475
1270.0 1604 1708 1790 1849 1893 1950 2005 2057 2086 2090
1310.0 2082 2086 2087 2068 2038 2008 1957 1931 1995 2085
1350.0 2143 2168 2137 2039 1873 1668 1460 1245 1061 902
1390.0 771 668 607 568 530 518 519 553 642 750
1430.0 892 1111 1414 1795 2159 2417 2438 2150 1739 1347
1470.0 1076 962 1059 1366 1920 2509 2720 2415 1700 960
1510.0 532 380 297 256 288 306 276 261 268 252
1550.0 230 216 217 254 275 281 305 390 524 694
1590.0 886 1063 1160 1100 925 698 446 278 192 150
1630.0 131 99 97 99 105 100 120 151 148 145
1670.0 148 159 174 162 129 109 83 75 79 76
1710.0 64 65 75 94 115 120 140 171 199 218
1750.0 224 231 217 198 171 173 194 213 253 296
1790.0 393 528 593 571 490 367 249 204 188 162
1830.0 136 106 78 67 94 132 143 162 200 253
1870.0 309 352 381 406 437 452 420 333 256 213
1910.0 193 180 168 195 256 317 390 477 538 559
1950.0 554 549 506 404 281 172 102 85 100 108
1990.0 97 78 76 77 78 81 72 66 78 83
2030.0 76 79 93 95 97 78 71 75 74 66
2070.0 65 66 52 63 69 55 58 72 65 32
2110.0 26 44 51 51 50 44 40 36 37 47
2150.0 45 34 37 43 47 52 50 51 59 56
2190.0 59 55 53 50 60 78 53 49 46 28
2230.0 33 36 34 28 45 62 73 76 63 63
2270.0 53 43 58 54 47 56 60 60 62 79
2310.0 102 136 134 112 112 118 123 107 93 80
2350.0 84 93 78 96 104 75 80 75 62 65
2390.0 53 50 55 66 62 60 67 70 77 80
2430.0 72 67 78 63 62 56 51 64 61 43
2470.0 57 74 69 61 51 44 37 39 51 59
2510.0 63 55 49 57 80 84 64 78 89 70
2550.0 76 86 76 69 92 95 80 101 118 104
2590.0 105 119 89 76 103 127 126 100 87 97
2630.0 90 111 142 117 78 85 107 95 87 103
2670.0 84 73 91 90 78 71 74 75 88 94
2710.0 92 97 94 94 89 92 105 94 112 142
2750.0 140 122 92 107 127 125 122 137 155 149
2790.0 156 161 158 143 139 163 168 155 183 233
2830.0 266 297 325 345 391 473 553 668 794 980
2870.0 1197 1392 1587 1717 1768 1727 1576 1382 1201 982
2910.0 830 701 565 483 414 327 269 269 252 214
2950.0 222 224 215 232 223 179 178 229 267 322
2990.0 373 433 498 640 864 1135 1530 2068 2770 3599
3030.0 4416 4877 4829 4436 3952 3621 3622 4065 4967 6070
3070.0 6765 6704 5929 4827 3994 3500 3056 2598 2153 1765
3110.0 1409 1087 800 585 451 337 274 247 210 190
3150.0 197 184 168 200 194 153 155 149 121 124
3190.0 132 76 63 61 39 27 30 32 59 71
3230.0 50 52 32 50 103 120 102 91 77 67
3270.0 79 52 27 52 39 40 50 34 69 84
3310.0 61 53 68 78 69 68 65 76 96 80
3350.0 54 55 40 33 87 76 41 84 108 99
3390.0 94 96 66 59 100 105 120 137 118 91
3430.0 77 92 67 52 60 66 68 60 47 25
3470.0 43 64 65 58 29 31 78 71 35 25
3510.0 29 31 47 72 55 49 91 73 10 31
3550.0 43 0 3 10 1 32 60 64 52 58
3590.0 97 107 89 83 109 182 214 211 308 488
3630.0 779 1200 1708 2110 2188 1965 1552 1093 663 412
3670.0 332 273 230 185 146 89 84 78 12 23
3710.0 65 116 121 75 76 117 125 107 77 61
3750.0 50 45 1 2 42 71 62 37 51 47
3790.0 58 61 49 77 66 56 48 41 58 61
3830.0 26 32 80 82 86
##END=
