##TITLE=Quinoxaline
##JCAMP-DX=4.24
##DATA TYPE=INFRARED SPECTRUM
##ORIGIN=EPA-IR VAPOR PHASE LIBRARY
##OWNER=SRD/NIST
Collection (C) 2018 copyright by the U.S. Secretary of Commerce
on behalf of the United States of America. All rights reserved.
##CAS REGISTRY NO=91-19-0
##MOLFORM=C 8 H 6 N 2
##$NIST SOURCE=MSDC-IR
##STATE=gas
##XUNITS=1/CM
##YUNITS=ABSORBANCE
##XFACTOR=1.
##YFACTOR=0.001
##DELTAX=1.92898
##FIRSTX=549.8
##LASTX=4000.7
##FIRSTY=0.6641
##MAXX=4000.7
##MINX=549.759
##MAXY=0.106258
##MINY=0
##NPOINTS=1790
##XYDATA=(X++(Y..Y))
549.759 0.6641 0.5412 0.4104 0.3859 0.6674 0.7849 0.9864 1.278 1.398 1.508
569.049 1.208 0.8359 1.035 1.1754 1.0585 0.9506 0.909 0.8581 0.9958 1.798
588.339 2.638 3.028 3.608 4.188 4.568 5.008 5.028 4.528 4.068 4.538
607.628 5.088 4.688 3.618 2.498 1.868 1.538 1.1375 0.9141 1.113 1.0298
626.918 0.953 1.1316 0.9283 0.7711 0.8164 0.6991 0.7327 0.6656 0.6227 0.7139
646.208 0.6619 0.6071 0.3826 0.3827 0.7731 0.983 0.8451 0.7871 0.7732 0.7428
665.498 0.6849 0.7241 0.7698 0.7399 0.7484 0.5975 0.5318 0.6194 0.6715 0.7352
684.787 0.7537 0.9305 1.1119 1.0018 0.8923 0.9228 0.8836 0.8344 0.9381 1.0259
704.077 0.9931 0.9371 0.9628 1.0735 1.228 1.258 1.218 1.508 1.938 2.308
723.367 2.888 3.838 5.368 7.658 10.398 13.938 18.358 23.098 27.788 32.258
742.657 36.488 40.358 44.198 50.378 62.768 86.828 106.258 81.628 50.648 45.638
761.947 44.268 41.378 37.258 32.168 26.818 21.468 16.678 12.518 9.158 6.618
781.236 4.678 3.668 2.998 2.378 1.938 1.788 1.618 1.568 1.628 1.358
800.526 1.288 1.418 1.368 1.0663 0.9332 0.9544 0.9717 1.1451 1.278 1.298
819.816 1.518 1.668 1.688 1.958 2.088 2.278 2.488 2.488 2.768 3.508
839.106 4.658 6.118 7.508 9.118 10.948 13.088 15.538 17.768 19.328 20.648
858.395 22.878 27.288 34.058 42.138 42.018 29.568 21.968 21.288 20.188 18.918
877.685 17.318 15.378 12.998 10.378 7.908 6.128 4.408 3.118 2.428 1.928
896.975 1.498 1.218 1.0624 0.7931 0.6536 0.8186 1.0329 0.9167 0.7065 0.8768
916.265 1.1398 1.448 1.718 2.128 2.808 3.538 4.548 5.818 7.198 8.918
935.555 10.918 13.198 15.518 17.708 19.368 19.718 19.608 19.158 18.268 18.638
954.844 20.468 21.458 20.208 17.228 13.898 11.398 9.388 7.808 6.428 5.308
974.134 4.448 3.598 2.848 2.058 1.598 1.508 1.358 1.158 1.129 1.308
993.424 1.608 1.938 2.218 2.858 3.988 6.078 9.848 15.498 22.808 29.988
1012.714 34.838 36.038 34.848 37.538 40.798 34.388 32.178 37.418 36.228 28.488
1032.003 19.118 11.648 6.798 4.248 3.338 2.968 2.358 1.988 1.788 1.328
1051.293 1.1209 1.208 0.8355 0.7987 0.7885 0.5922 0.7525 0.9282 0.8773 0.8606
1070.583 0.8461 0.4895 0.5441 0.7922 1.0461 1.388 1.568 1.968 2.268 2.948
1089.873 3.628 3.318 3.108 3.338 3.708 4.208 4.388 4.308 4.528 5.218
1109.163 5.838 6.638 7.538 8.268 9.128 9.858 10.398 10.728 10.528 9.848
1128.452 9.488 9.578 9.768 9.368 8.458 7.388 6.178 4.888 3.848 3.268
1147.742 2.838 2.468 2.088 1.618 1.1355 0.7048 0.5388 0.6549 0.5487 0.3017
1167.032 0.4762 0.8641 1.0056 0.8351 0.5764 0.7232 1.198 1.858 1.998 1.838
1186.322 2.318 2.708 3.108 3.358 3.368 3.908 4.098 4.388 4.928 4.868
1205.611 4.428 4.278 4.018 3.678 3.698 3.278 3.168 3.128 2.508 2.128
1224.901 2.108 1.758 1.618 1.598 1.358 1.378 1.508 1.488 1.318 1.0215
1244.191 0.9923 1.198 1.088 1.208 1.0428 0.7536 0.9182 1.1264 1.198 0.9344
1263.481 1.018 1.1815 1.182 1.288 1.338 1.418 1.408 1.368 1.488 1.718
1282.771 1.848 1.798 1.718 1.528 1.518 1.738 1.748 1.538 1.328 1.1548
1302.060 0.946 0.7239 0.6301 0.6813 0.6882 0.7109 0.7596 0.8146 0.9072 1.0328
1321.350 1.218 1.528 1.938 2.568 3.358 4.228 5.178 6.048 6.738 7.338
1340.640 7.898 8.468 9.068 9.758 10.708 11.778 13.048 14.418 15.618 16.488
1359.930 16.978 17.258 17.518 17.378 16.538 15.908 15.318 14.538 13.288 10.908
1379.219 8.188 5.838 4.218 3.268 2.778 2.568 2.508 2.428 2.318 2.218
1398.509 2.268 2.478 2.748 3.058 3.328 3.508 3.518 3.468 3.628 3.698
1417.799 3.468 3.448 3.508 3.268 2.848 2.598 2.528 2.578 2.778 2.948
1437.089 3.028 3.158 3.288 3.368 3.448 3.488 3.638 3.718 3.638 3.508
1456.378 3.438 3.368 3.338 3.508 3.848 4.208 4.638 5.288 6.248 7.518
1475.668 9.168 11.528 14.618 18.378 22.548 26.278 28.788 30.088 30.458 30.618
1494.958 30.938 29.978 27.588 26.098 24.108 19.718 13.918 8.838 5.488 3.488
1514.248 2.518 1.998 1.738 1.578 1.418 1.378 1.338 1.278 1.288 1.368
1533.538 1.438 1.488 1.528 1.578 1.608 1.578 1.628 1.698 1.848 2.078
1552.827 2.458 2.898 3.308 3.898 4.388 4.718 4.958 4.948 4.918 4.828
1572.117 4.628 4.318 3.908 3.498 2.918 2.218 1.708 1.318 1.0639 1.0713
1591.407 1.1064 1.1241 1.208 1.318 1.368 1.518 1.738 1.908 2.108 2.328
1610.697 2.568 2.768 2.968 3.258 3.448 3.438 3.378 3.228 2.988 2.808
1629.986 2.728 2.688 2.498 2.208 1.948 1.648 1.308 1.1759 1.1147 0.9312
1649.276 0.9179 0.9404 0.9398 0.9771 0.9751 0.9824 0.9076 0.8315 0.8168 0.8117
1668.566 0.7826 0.714 0.6886 0.6768 0.6721 0.6681 0.6652 0.5848 0.5941 0.6874
1687.856 0.7775 0.9262 1.0344 1.1497 1.388 1.628 1.858 2.158 2.308 2.508
1707.146 2.648 2.698 2.798 2.868 2.968 2.958 2.918 2.858 2.688 2.458
1726.435 2.238 2.148 2.078 2.008 1.908 1.818 1.838 1.808 1.648 1.568
1745.725 1.598 1.558 1.498 1.508 1.568 1.668 1.688 1.708 1.778 1.798
1765.015 1.768 1.758 1.788 1.778 1.678 1.578 1.448 1.408 1.388 1.278
1784.305 1.1107 0.945 0.8848 0.8591 0.8256 0.8636 0.9204 0.9632 1.068 1.228
1803.594 1.398 1.538 1.618 1.818 2.088 2.338 2.598 2.778 2.868 2.938
1822.884 3.048 3.098 3.028 3.028 3.028 2.998 3.008 2.898 2.718 2.588
1842.174 2.518 2.488 2.398 2.228 2.138 2.038 1.828 1.678 1.578 1.498
1861.464 1.298 1.1045 0.9202 0.7073 0.6031 0.5142 0.53 0.5216 0.4489 0.4053
1880.754 0.3866 0.3926 0.3849 0.4748 0.5298 0.5429 0.6737 0.7431 0.8481 1.0194
1900.043 1.1181 1.258 1.488 1.708 1.908 2.228 2.698 3.128 3.628 4.148
1919.333 4.578 5.068 5.478 5.718 5.848 5.788 5.628 5.518 5.308 4.948
1938.623 4.678 4.438 4.038 3.588 3.258 3.098 2.968 2.828 2.768 2.748
1957.913 2.638 2.468 2.268 2.058 1.968 1.838 1.538 1.268 1.0105 0.8202
1977.202 0.7625 0.683 0.6333 0.6186 0.6148 0.6056 0.5697 0.5925 0.5977 0.5454
1996.492 0.53 0.5839 0.6058 0.6043 0.6581 0.7017 0.7571 0.8445 0.9326 1.0765
2015.782 1.1749 1.278 1.358 1.408 1.398 1.378 1.448 1.408 1.428 1.418
2035.072 1.248 1.0847 0.9628 0.9062 0.8822 0.8388 0.7659 0.6799 0.5871 0.5388
2054.362 0.5116 0.4792 0.4432 0.4471 0.4649 0.468 0.5169 0.5073 0.4539 0.4302
2073.651 0.478 0.5234 0.491 0.4587 0.4271 0.4524 0.5386 0.5531 0.563 0.5581
2092.941 0.5328 0.4591 0.4812 0.5307 0.5269 0.5288 0.4766 0.4654 0.4976 0.538
2112.231 0.6125 0.6236 0.5484 0.5516 0.611 0.6382 0.6327 0.6129 0.6126 0.6117
2131.521 0.5656 0.5853 0.6041 0.5677 0.541 0.5566 0.5164 0.4806 0.5117 0.5125
2150.810 0.5474 0.5847 0.5253 0.5281 0.5299 0.4164 0.3514 0.3988 0.4322 0.3971
2170.100 0.3694 0.3504 0.336 0.3446 0.4322 0.4215 0.364 0.3276 0.26024 0.28303
2189.390 0.309 0.3159 0.3277 0.3337 0.3913 0.4015 0.3673 0.3195 0.324 0.4129
2208.680 0.4127 0.4231 0.4515 0.4282 0.4614 0.4959 0.5212 0.4855 0.4912 0.5694
2227.970 0.5638 0.5905 0.5614 0.4989 0.4657 0.4779 0.4807 0.5052 0.6101 0.6429
2247.259 0.6262 0.5923 0.661 0.7207 0.7307 0.7093 0.6487 0.6481 0.6391 0.6068
2266.549 0.6083 0.6384 0.6424 0.6035 0.5668 0.541 0.5816 0.6397 0.6312 0.6366
2285.839 0.651 0.6184 0.5298 0.5849 0.7118 0.7066 0.7641 0.7884 0.8354 0.9133
2305.129 0.9535 0.9361 0.8548 0.9338 1.087 1.0906 1.0106 1.014 0.9721 0.9122
2324.418 0.9464 0.9458 0.8921 0.8862 0.8778 0.8397 0.7555 0.7243 0.6376 0.5237
2343.708 0.526 0.5502 0.5428 0.5617 0.5789 0.4928 0.4154 0.4078 0.3823 0.3506
2362.998 0.4011 0.3454 0.3028 0.3776 0.4057 0.4058 0.442 0.4774 0.4736 0.4666
2382.288 0.5082 0.475 0.3985 0.4444 0.5311 0.5033 0.4499 0.5322 0.5772 0.5552
2401.578 0.5083 0.4535 0.4873 0.4504 0.3911 0.4194 0.4073 0.4444 0.5163 0.5087
2420.867 0.4672 0.4447 0.3386 0.3072 0.4309 0.4304 0.3993 0.4639 0.4603 0.5211
2440.157 0.5383 0.4847 0.5045 0.5241 0.6035 0.5914 0.5297 0.5178 0.537 0.565
2459.447 0.5122 0.4723 0.4616 0.4134 0.3491 0.3502 0.3762 0.3839 0.3968 0.4469
2478.737 0.4865 0.537 0.5774 0.5578 0.5417 0.5239 0.5365 0.5198 0.4298 0.4544
2498.026 0.5524 0.5404 0.5495 0.5251 0.4688 0.5195 0.5676 0.4984 0.4169 0.4215
2517.316 0.5079 0.4871 0.4154 0.4232 0.406 0.4747 0.5562 0.5937 0.5824 0.5936
2536.606 0.606 0.5961 0.5856 0.5882 0.5835 0.4829 0.499 0.521 0.4533 0.4623
2555.896 0.5628 0.6302 0.5928 0.5596 0.6303 0.604 0.5255 0.5307 0.458 0.4501
2575.186 0.5581 0.5195 0.462 0.5384 0.4646 0.3762 0.4949 0.4914 0.4264 0.3887
2594.475 0.3667 0.3658 0.3832 0.4111 0.3873 0.413 0.4646 0.4962 0.5456 0.5759
2613.765 0.4938 0.4515 0.4289 0.445 0.4815 0.4331 0.3585 0.3439 0.402 0.3919
2633.055 0.3505 0.3211 0.3014 0.3149 0.21945 0.23947 0.3584 0.3302 0.3768 0.4168
2652.345 0.3614 0.4643 0.4263 0.24482 0.2989 0.3421 0.28315 0.25901 0.3077 0.27462
2671.634 0.23395 0.3478 0.3499 0.3177 0.2987 0.26332 0.3236 0.2961 0.249 0.2912
2690.924 0.3092 0.2984 0.21097 0.20506 0.26156 0.3399 0.4024 0.3537 0.3539 0.4477
2710.214 0.4814 0.4584 0.3862 0.3752 0.4149 0.3972 0.4383 0.4106 0.3428 0.3106
2729.504 0.3507 0.3685 0.4558 0.4707 0.4414 0.4786 0.4159 0.3803 0.3512 0.28638
2748.794 0.25413 0.3011 0.3643 0.3127 0.25826 0.3365 0.3184 0.3035 0.3093 0.26683
2768.083 0.2932 0.3341 0.3817 0.3795 0.3955 0.392 0.4093 0.3489 0.3151 0.4798
2787.373 0.4138 0.26659 0.25546 0.2923 0.27552 0.27819 0.2935 0.3055 0.2964 0.20878
2806.663 0.1742 0.21424 0.26554 0.2897 0.2906 0.2948 0.23904 0.18593 0.21425 0.2923
2825.953 0.3827 0.3696 0.4237 0.4249 0.3369 0.3666 0.471 0.4573 0.4504 0.5627
2845.242 0.5246 0.4999 0.5415 0.5176 0.5037 0.4702 0.528 0.5867 0.5421 0.4437
2864.532 0.4062 0.5102 0.5898 0.5583 0.5533 0.6162 0.6067 0.5713 0.5675 0.6165
2883.822 0.6778 0.7923 0.7516 0.6553 0.8432 0.9242 1.021 1.1859 1.198 1.238
2903.112 1.328 1.358 1.408 1.528 1.528 1.528 1.578 1.558 1.548 1.488
2922.401 1.498 1.678 1.878 2.008 2.088 2.138 2.238 2.328 2.468 2.598
2941.691 2.558 2.498 2.338 2.118 2.038 1.908 1.778 1.778 1.668 1.648
2960.981 1.658 1.668 1.758 1.788 1.828 1.938 2.108 2.248 2.378 2.448
2980.271 2.488 2.578 2.588 2.668 2.778 2.848 2.878 2.978 3.368 3.818
2999.561 4.328 4.958 5.728 6.558 7.518 8.628 9.838 11.228 12.688 14.328
3018.850 16.158 18.278 20.548 22.708 24.768 26.598 28.108 29.278 30.158 31.008
3038.140 31.898 32.388 32.428 32.048 31.048 29.528 27.938 26.528 25.278 24.458
3057.430 24.368 24.618 24.898 25.458 26.158 26.928 27.918 28.778 29.128 29.178
3076.720 29.018 28.938 29.208 29.068 27.768 25.498 22.978 20.628 18.538 16.798
3096.009 15.118 13.398 11.878 10.288 8.708 7.368 6.158 5.108 4.298 3.728
3115.299 3.278 2.898 2.498 2.168 1.988 1.778 1.668 1.518 1.218 1.0734
3134.589 0.9605 0.9146 0.8836 0.8286 0.8053 0.7592 0.6337 0.4405 0.4646 0.6253
3153.879 0.7078 0.6629 0.5458 0.6136 0.639 0.5704 0.5602 0.4119 0.4101 0.4981
3173.169 0.4995 0.5616 0.6121 0.6258 0.5104 0.4791 0.5029 0.4885 0.4148 0.27567
3192.458 0.27489 0.3386 0.4036 0.3444 0.26867 0.2763 0.3388 0.531 0.4991 0.3474
3211.748 0.4227 0.5473 0.5144 0.3078 0.3809 0.4148 0.3411 0.3528 0.388 0.4569
3231.038 0.4869 0.4596 0.3942 0.3832 0.3511 0.4189 0.3342 0.1296 0.1403 0.298
3250.328 0.3961 0.3439 0.25758 0.2905 0.25187 0.18428 0.27253 0.321 0.3266 0.3157
3269.617 0.1599 0.1392 0.19957 0.089 0.0984 0.121 0.0927 0.1482 0.27126 0.2903
3288.907 0.24758 0.24824 0.3159 0.4156 0.4166 0.3881 0.3541 0.25106 0.1562 0.2912
3308.197 0.2005 0.093 0.1743 0.1487 0.1724 0.20548 0.26341 0.21888 0.27121 0.3407
3327.487 0.24599 0.28741 0.26181 0.191808 0.27922 0.3845 0.4414 0.3372 0.22962 0.19834
3346.777 0.188621 0.21369 0.25643 0.27206 0.1331 0.19976 0.26631 0.1652 0.24487 0.2276
3366.066 0.1747 0.153 0.1309 0.1113 0.02 0.1583 0.3566 0.3182 0.25395 0.3351
3385.356 0.3706 0.1654 0.1522 0.26414 0.3745 0.3972 0.3154 0.2889 0.27546 0.26417
3404.646 0.1216 0.18553 0.2986 0.22817 0.206 0.26479 0.3898 0.3691 0.3602 0.4114
3423.936 0.3022 0.2867 0.3593 0.3065 0.27286 0.2937 0.17843 0.25531 0.3608 0.28139
3443.225 0.27614 0.24431 0.27064 0.3595 0.401 0.28421 0.1203 0.1283 0.27216 0.3965
3462.515 0.3837 0.27264 0.25886 0.28014 0.1198 0.035 0.2088 0.3951 0.4158 0.4214
3481.805 0.4212 0.4002 0.3947 0.3337 0.1766 0.1605 0.22332 0.18346 0.21757 0.2885
3501.095 0.20521 0.1713 0.1386 0.1244 0.098 0.042 0.087 0.033 0.052 0.1403
3520.385 0.28316 0.25793 0.20412 0.20432 0.17807 0.20795 0.22088 0.2923 0.2963 0.24208
3539.674 0.21242 0.28673 0.3669 0.28208 0.1229 0.1594 0.2939 0.28228 0.3199 0.4138
3558.964 0.4057 0.348 0.23214 0.20095 0.3325 0.3846 0.28233 0.22224 0.3943 0.4276
3578.254 0.27103 0.27124 0.3444 0.3976 0.4296 0.3926 0.28457 0.1776 0.3035 0.5718
3597.544 0.557 0.4969 0.3761 0.3195 0.4607 0.3917 0.3915 0.3866 0.3314 0.18002
3616.833 0.1681 0.3958 0.3938 0.3308 0.3543 0.3866 0.4208 0.4494 0.3429 0.27762
3636.123 0.23589 0.23249 0.25112 0.3958 0.4251 0.21788 0.24122 0.27748 0.1676 0.2508
3655.413 0.3722 0.3384 0.3057 0.19771 0.1406 0.339 0.4349 0.361 0.2937 0.25607
3674.703 0.20106 0.056 0.1774 0.357 0.368 0.4053 0.4992 0.4824 0.3096 0.2901
3693.993 0.4417 0.5152 0.4382 0.3268 0.3218 0.3193 0.2983 0.27579 0.18772 0.21322
3713.282 0.2932 0.3339 0.28528 0.1713 0.1256 0.1389 0.1612 0.1717 0.22481 0.148
3732.572 0.086 0.19918 0.1573 0.196659 0.25747 0.23377 0.1322 0.044 0.051 0.042
3751.862 0.1414 0.23588 0.3895 0.2883 0.1594 0.1288 0.1388 0.1837 0.0984 0.0987
3771.152 0.1696 0.21209 0.1422 0.1343 0.23262 0.3372 0.26566 0.1723 0.1734 0.1037
3790.441 0.20973 0.3873 0.149 0 0.1539 0.3821 0.3112 0.24956 0.3803 0.2495
3809.731 0.25969 0.26341 0.27813 0.3041 0.3372 0.313 0.1091 0.001 0.190795 0.4001
3829.021 0.3035 0.27177 0.4725 0.5903 0.5221 0.4353 0.4105 0.5315 0.6335 0.5839
3848.311 0.3841 0.365 0.5484 0.5124 0.5168 0.4954 0.465 0.5136 0.486 0.366
3867.601 0.33 0.3926 0.4078 0.3946 0.5235 0.5624 0.7381 0.8562 0.6615 0.7417
3886.890 0.757 0.7297 0.6732 0.7421 0.8355 0.7186 0.8548 0.857 0.6551 0.7085
3906.180 0.7458 0.6951 0.5745 0.5868 0.6952 0.5618 0.5844 0.6275 0.5881 0.6684
3925.470 0.6306 0.4569 0.4119 0.4749 0.5117 0.4845 0.2628 0.1517 0.19869 0.23415
3944.760 0.3531 0.465 0.395 0.22078 0.1816 0.25931 0.3474 0.4384 0.6032 0.6034
3964.049 0.6206 0.6451 0.4316 0.3695 0.5017 0.5225 0.4384 0.4019 0.5929 0.7877
3983.339 0.7902 0.8291 0.9115 0.9075 0.8218 0.7922 0.9183 0.9332 0.8049 0.6183
##END=
