##TITLE=N,N-Di(2-hydroxyethyl)-m-toluidine
##JCAMP-DX=4.24
##DATA TYPE=INFRARED SPECTRUM
##ORIGIN=EPA-IR VAPOR PHASE LIBRARY
##OWNER=SRD/NIST
Collection (C) 2018 copyright by the U.S. Secretary of Commerce
on behalf of the United States of America. All rights reserved.
##CAS REGISTRY NO=91-99-6
##MOLFORM=C 11 H 17 N O 2
##$NIST SOURCE=MSDC-IR
##STATE=gas
##XUNITS=1/CM
##YUNITS=ABSORBANCE
##XFACTOR=1.
##YFACTOR=0.001
##DELTAX=3.85796
##FIRSTX=501.5
##LASTX=4000.7
##FIRSTY=1.0068
##MAXX=4000.7
##MINX=501.534
##MAXY=0.014568
##MINY=0
##NPOINTS=908
##XYDATA=(X++(Y..Y))
501.534 1.0068 1.0206 1.0535 1.2579 1.2601 1.1852 1.2071 1.1468 1.1477 1.1013
540.114 1.0114 1.1115 1.0394 0.9086 0.9304 0.8877 0.8124 0.7852 0.7731 0.7389
578.693 0.7889 0.7944 0.7275 0.685 0.7477 0.7905 0.7854 0.8314 0.7762 0.7139
617.273 0.6889 0.6621 0.6621 0.6562 0.6037 0.559 0.5026 0.5067 0.4926 0.5498
655.852 0.6035 0.5706 0.6712 0.7352 0.7568 0.8973 1.2226 1.668 2.138 2.688
694.432 3.118 3.148 2.948 2.618 2.268 2.008 1.718 1.408 1.1896 1.0778
733.011 1.0078 1.0491 1.171 1.2845 1.568 2.128 2.868 3.738 4.468 4.658
771.591 4.258 3.598 2.978 2.598 2.388 2.328 2.388 2.398 2.218 1.888
810.170 1.668 1.608 1.558 1.558 1.678 1.858 2.118 2.348 2.478 2.528
848.750 2.508 2.498 2.428 2.338 2.298 2.238 2.148 2.048 1.938 1.908
887.330 1.918 1.978 2.128 2.198 2.208 2.208 2.268 2.348 2.448 2.538
925.909 2.538 2.488 2.458 2.418 2.338 2.298 2.318 2.358 2.408 2.478
964.489 2.608 2.688 2.798 3.048 3.308 3.558 3.998 4.638 5.388 6.258
1003.068 7.168 8.158 9.068 9.738 10.118 10.398 10.728 11.068 11.398 11.618
1041.648 11.518 10.958 10.238 9.748 9.658 9.788 9.908 9.738 9.068 8.138
1080.227 7.078 6.028 5.408 4.948 4.548 4.228 4.028 3.978 3.988 4.008
1118.807 4.088 4.328 4.558 4.898 5.268 5.588 5.848 5.958 6.008 6.048
1157.387 6.208 6.478 6.768 7.038 7.148 6.908 6.268 5.478 4.718 4.168
1195.966 3.798 3.688 3.708 3.738 3.778 3.808 3.898 3.978 4.088 4.218
1234.546 4.368 4.568 4.828 4.978 4.958 4.888 4.838 4.758 4.658 4.548
1273.125 4.368 4.278 4.248 4.178 4.048 3.988 3.938 3.888 3.908 3.998
1311.705 4.148 4.358 4.628 4.938 5.308 5.738 6.198 6.708 7.268 7.788
1350.284 8.138 8.238 8.048 7.658 7.168 6.618 6.098 5.688 5.378 5.088
1388.864 4.828 4.588 4.268 3.898 3.528 3.188 2.948 2.808 2.768 2.848
1427.443 3.058 3.388 3.748 4.108 4.368 4.458 4.398 4.298 4.248 4.278
1466.023 4.378 4.578 4.908 5.488 6.498 7.938 9.338 10.048 9.668 8.358
1504.603 6.798 5.488 4.638 4.108 3.708 3.408 3.168 2.988 2.888 2.768
1543.182 2.618 2.508 2.498 2.588 2.788 3.168 3.778 4.618 5.718 6.948
1581.762 8.038 8.958 10.048 11.608 13.428 14.568 14.068 11.868 8.848 6.138
1620.341 4.268 3.078 2.278 1.758 1.408 1.163 0.9719 0.8412 0.7623 0.671
1658.921 0.6004 0.593 0.591 0.5482 0.514 0.484 0.4779 0.4845 0.4781 0.5015
1697.500 0.5247 0.5155 0.4914 0.4802 0.4758 0.45452 0.42576 0.41334 0.42263 0.40147
1736.080 0.40212 0.4167 0.41659 0.4268 0.42084 0.38738 0.360582 0.36816 0.35475 0.34898
1774.659 0.34993 0.358036 0.37981 0.38032 0.37505 0.363353 0.364712 0.38661 0.38094 0.38136
1813.239 0.40969 0.39738 0.38586 0.38175 0.363228 0.360542 0.360015 0.3441 0.3357 0.3369
1851.819 0.3276 0.3334 0.358454 0.3452 0.3222 0.3079 0.3283 0.3461 0.3458 0.359698
1890.398 0.367643 0.39101 0.41741 0.44412 0.4805 0.5181 0.5161 0.4822 0.44963 0.43918
1928.978 0.41289 0.38628 0.37024 0.332 0.2962 0.2909 0.2802 0.253 0.237 0.243
1967.557 0.258 0.235 0.22 0.232 0.246 0.254 0.245 0.225 0.217 0.221
2006.137 0.235 0.234 0.232 0.237 0.253 0.2727 0.2623 0.257 0.2691 0.2823
2044.716 0.2821 0.2726 0.2986 0.3139 0.2904 0.2966 0.2975 0.3001 0.2949 0.2837
2083.296 0.2759 0.2657 0.2732 0.2609 0.243 0.24 0.222 0.218 0.238 0.237
2121.875 0.23 0.213 0.208 0.21 0.191 0.205 0.217 0.214 0.201 0.183
2160.455 0.187 0.203 0.224 0.233 0.234 0.245 0.235 0.226 0.254 0.256
2199.035 0.243 0.228 0.216 0.216 0.2 0.175 0.178 0.209 0.222 0.222
2237.614 0.214 0.216 0.201 0.184 0.196 0.22 0.238 0.23 0.224 0.24
2276.194 0.249 0.219 0.219 0.248 0.241 0.234 0.236 0.221 0.217 0.235
2314.773 0.223 0.229 0.2645 0.245 0.241 0.2776 0.2783 0.2616 0.2667 0.2637
2353.353 0.2634 0.2827 0.3012 0.2962 0.2799 0.2699 0.2833 0.2986 0.2756 0.256
2391.932 0.2584 0.257 0.2716 0.2866 0.2792 0.3134 0.3175 0.3013 0.3069 0.3199
2430.512 0.3241 0.3062 0.2991 0.2851 0.2629 0.2652 0.2936 0.2992 0.3092 0.2957
2469.092 0.2722 0.295 0.319 0.2996 0.2772 0.2743 0.2784 0.2842 0.3024 0.3245
2507.671 0.3252 0.327 0.3016 0.2648 0.253 0.258 0.2818 0.3171 0.3179 0.3094
2546.251 0.3257 0.3407 0.3355 0.3437 0.37649 0.35646 0.3271 0.35129 0.3304 0.3045
2584.830 0.2951 0.285 0.2956 0.3019 0.3249 0.3337 0.3408 0.3287 0.3212 0.3478
2623.410 0.3306 0.3228 0.34821 0.360146 0.38078 0.40157 0.39071 0.41509 0.45686 0.4631
2661.989 0.4836 0.5092 0.5168 0.5289 0.5492 0.5677 0.592 0.625 0.6562 0.6761
2700.569 0.6873 0.7132 0.7346 0.7538 0.7916 0.7854 0.8259 0.8645 0.8686 0.8901
2739.148 0.9181 0.9485 0.9572 0.9776 0.9985 0.9772 0.9387 0.9484 1.0035 1.0655
2777.728 1.1292 1.1953 1.2312 1.2875 1.418 1.568 1.708 1.888 2.108 2.378
2816.308 2.638 2.928 3.278 3.598 3.908 4.198 4.408 4.588 4.738 4.948
2854.887 5.238 5.568 5.998 6.628 7.348 8.078 8.768 9.248 9.448 9.308
2893.467 8.938 8.508 8.088 7.828 7.858 8.138 8.668 9.478 10.348 10.968
2932.046 11.188 11.068 10.758 10.398 10.068 9.828 9.578 9.208 8.648 8.008
2970.626 7.278 6.408 5.558 4.778 4.088 3.568 3.168 2.808 2.548 2.398
3009.205 2.318 2.328 2.448 2.658 2.888 3.118 3.308 3.448 3.568 3.768
3047.785 4.018 4.108 3.978 3.618 3.158 2.778 2.478 2.178 1.958 1.828
3086.364 1.728 1.648 1.518 1.358 1.1852 1.0359 0.893 0.7953 0.6928 0.572
3124.944 0.43428 0.3235 0.2675 0.233 0.2646 0.253 0.189 0.185 0.19 0.148
3163.524 0.181 0.211 0.212 0.217 0.201 0.158 0.109 0.118 0.156 0.133
3202.103 0.122 0.13 0.089 0.115 0.159 0.124 0.111 0.108 0.042 0.019
3240.683 0.04 0.08 0.12 0.05 0 0.019 0.03 0.09 0.105 0.084
3279.262 0.102 0.168 0.218 0.204 0.18 0.131 0.118 0.157 0.142 0.122
3317.842 0.116 0.101 0.125 0.154 0.136 0.125 0.177 0.174 0.129 0.157
3356.421 0.152 0.073 0.071 0.1 0.11 0.134 0.224 0.2631 0.237 0.246
3395.001 0.23 0.247 0.2871 0.2751 0.2879 0.3187 0.2956 0.2876 0.2973 0.251
3433.580 0.2589 0.2912 0.3109 0.3263 0.27 0.2581 0.3147 0.3426 0.3194 0.2968
3472.160 0.3267 0.3208 0.2927 0.339 0.38124 0.41973 0.39257 0.38374 0.44953 0.4912
3510.740 0.5194 0.5437 0.6021 0.6178 0.6529 0.7601 0.8215 0.9039 0.9903 1.0586
3549.319 1.0832 1.13 1.2232 1.2824 1.2809 1.2291 1.2666 1.3192 1.3322 1.3337
3587.899 1.2598 1.2149 1.194 1.1716 1.1645 1.1627 1.1951 1.224 1.2901 1.3484
3626.478 1.3022 1.282 1.263 1.1762 1.1442 1.2251 1.378 1.548 1.848 2.148
3665.058 2.298 2.308 2.228 2.008 1.638 1.3018 1.017 0.8073 0.6896 0.6363
3703.637 0.5588 0.45449 0.36474 0.359353 0.38445 0.36831 0.331 0.301 0.3157 0.251
3742.217 0.241 0.249 0.202 0.216 0.2596 0.2782 0.261 0.232 0.166 0.142
3780.797 0.196 0.195 0.16 0.158 0.1 0.108 0.165 0.151 0.163 0.192
3819.376 0.113 0.1 0.137 0.104 0.152 0.158 0.135 0.09 0.067 0.137
3857.956 0.16 0.186 0.171 0.083 0.06 0.124 0.161 0.136 0.094 0.112
3896.535 0.168 0.163 0.064 0.012 0.085 0.102 0.101 0.094 0.113 0.134
3935.115 0.126 0.138 0.145 0.133 0.158 0.163 0.065 0.04 0.025 0.037
3973.694 0.105 0.155 0.128 0.088 0.057 0.021 0.01 0.037
##END=
