##TITLE=3-Chloro-4-fluorobenzenesulphonyl chloride
##JCAMP-DX=4.24
##DATA TYPE=INFRARED SPECTRUM
##ORIGIN=EPA-IR VAPOR PHASE LIBRARY
##OWNER=SRD/NIST
Collection (C) 2018 copyright by the U.S. Secretary of Commerce
on behalf of the United States of America. All rights reserved.
##CAS REGISTRY NO=91170-93-3
##MOLFORM=C 6 H 3 Cl 2 F O 2 S
##$NIST SOURCE=MSDC-IR
##STATE=gas
##XUNITS=1/CM
##YUNITS=ABSORBANCE
##XFACTOR=1.
##YFACTOR=0.001
##DELTAX=1.92934
##FIRSTX=549.9
##LASTX=3999.5
##FIRSTY=152.88
##MAXX=3999.53
##MINX=549.863
##MAXY=0.28617
##MINY=0
##NPOINTS=1789
##XYDATA=(X++(Y..Y))
549.863 152.88 112.72 86.23 67.72 53.4 42.41 34.43 28.98 25.2 22.64
569.156 21.49 21 20.95 21.69 22.85 24.36 26.63 29.78 34.09 40.61
588.450 50.57 65.24 85.71 112.2 143.86 177.27 206.54 226.66 236.57 224.73
607.743 193.1 158.22 121.82 88.11 61.89 42.76 29.83 21.98 17.77 15.82
627.037 15.01 14.64 14.42 14.03 13.49 12.91 12.7 13.2 14.87 18.88
646.330 26.83 40.8 61.98 87.73 109.14 119.96 123.14 117.95 105 81.87
665.624 52.94 31.38 19.62 13.84 10.75 8.88 7.62 6.95 6.39 5.95
684.917 5.71 5.58 5.61 5.9 6.53 7.49 8.94 10.72 12.58 14.4
704.210 16.13 17.38 17.23 16.47 16.11 16.01 16.13 16.46 16.87 17.13
723.504 17.02 16.48 15.44 13.92 12.18 10.41 8.87 7.63 6.68 6.09
742.797 5.72 5.46 5.39 5.39 5.39 5.2 5.01 4.95 4.85 4.69
762.091 4.41 4.22 4.03 3.77 3.59 3.42 3.26 3.23 3.19 3.04
781.384 2.9211 2.8646 2.915 3.0169 3.17 3.34 3.48 3.65 3.84 4.12
800.678 4.63 5.38 6.44 8.18 10.85 14.53 19.04 24.14 29.42 34.56
819.971 39.38 42.55 40.99 35.57 30.41 25.61 20.63 16.15 12.72 10.62
839.264 9.86 10.31 11.83 14.5 18.43 23.53 29.36 35.12 39.57 41.83
858.558 41.93 40.22 36.64 31.17 24.94 19.61 16.01 14.04 13.18 12.99
877.851 13.22 13.75 14.48 15.28 16.1 16.8 17.12 16.84 15.8 14.06
897.145 12.06 10.15 8.38 6.86 5.61 4.71 4.13 3.71 3.5 3.38
916.438 3.26 3.14 3.05 2.9903 2.8967 2.8126 2.7434 2.6689 2.6531 2.6545
935.732 2.6933 2.7894 2.8859 3.03 3.14 3.3 3.48 3.54 3.48 3.34
955.025 3.23 3.07 2.9507 2.9367 2.8564 2.7304 2.6807 2.6336 2.5217 2.4478
974.318 2.3612 2.2707 2.2149 2.2059 2.1942 2.2064 2.2351 2.1802 2.1568 2.1461
993.612 2.1217 2.1751 2.1843 2.1516 2.2083 2.2507 2.1792 2.1576 2.2403 2.2549
1012.905 2.2629 2.2706 2.3274 2.4504 2.5633 2.6792 2.8647 3.07 3.26 3.55
1032.199 3.85 4.16 4.53 4.98 5.55 6.33 7.5 9.11 11.28 14.34
1051.492 18.3 23.11 28.28 32.8 35.71 36.62 36.07 34.14 30.46 25.52
1070.786 20.71 17.01 14.59 13.34 13.1 13.86 15.58 18.27 21.99 26.64
1090.079 31.96 37.38 42.01 45.23 46.37 45.22 41.89 36.74 30.69 24.55
1109.372 19.3 15.42 12.73 11.08 10.2 10.02 10.55 11.66 13.42 15.85
1128.666 18.8 22.03 25.62 29.44 33.06 35.97 37.51 37.88 37.28 35.66
1147.959 33.16 30.16 27.38 25.18 23.6 22.9 22.89 23.55 25.23 28.35
1167.253 33.61 41.63 53.31 70.03 93.11 123.47 160.84 202.44 241.95 271.68
1186.546 286.17 283.26 263.68 231.73 193.55 157.69 130.81 112.08 98.28 87.79
1205.840 78.72 69.69 60.25 50.4 41.17 33.04 25.88 20.53 17.19 15.23
1225.133 14.44 14.76 16.21 18.81 22.28 26.39 31.23 36.3 41.02 44.52
1244.426 46.15 46.18 45.22 44.15 43.64 44.39 47.37 53.27 61.97 73.03
1263.720 86.33 100.9 114.02 122.33 123.92 119 108.42 92.59 72.47 52.47
1283.013 37.57 28.49 23.27 20.01 17.7 15.81 14.16 12.71 11.58 10.7
1302.307 9.91 9.47 9.19 8.93 8.78 8.68 8.46 8.17 7.89 7.47
1321.600 7.05 6.81 6.64 6.52 6.49 6.54 6.58 6.62 6.61 6.62
1340.894 6.68 6.75 6.85 7.08 7.46 7.88 8.38 9.02 9.76 10.66
1360.187 11.63 12.39 13.56 15.46 17.86 20.67 23.75 27.14 30.94 34.99
1379.480 39.11 43.14 47.89 54.19 63.07 75.32 91.68 112.85 139.5 169.91
1398.774 200.55 225.56 237.57 236.49 226.99 209.98 181.08 143.26 106.57 76.96
1418.067 55.27 39.86 30.11 24.14 20.42 18.1 16.38 14.87 13.55 12.55
1437.361 11.78 11.17 10.8 10.62 10.53 10.6 10.81 11.12 11.62 12.42
1456.654 13.71 15.4 17.77 21.34 26.61 34.11 44.26 57.72 74.84 94.93
1475.948 114.92 132.34 143.45 147.06 143.01 132.1 115.67 96.7 78.84 65.36
1495.241 56.24 50.27 46.08 42.18 38.06 33.78 29.24 24.92 21.05 17.66
1514.534 15 13.01 11.59 10.57 9.64 8.89 8.28 7.76 7.34 7
1533.828 6.8 6.66 6.63 6.69 6.88 7.18 7.61 8.19 8.93 9.83
1553.121 10.86 11.94 12.97 14.13 15.37 16.63 18.19 20.16 22.72 26.04
1572.415 29.91 34.16 38.66 42.61 45.35 46.59 45.92 43.23 38.82 33.32
1591.708 27.55 22.18 17.68 14.15 11.4 9.32 7.74 6.53 5.66 5.09
1611.002 4.71 4.41 4.27 4.2 4.12 4.09 4.06 4.05 4.02 4
1630.295 4.01 4.11 4.31 4.47 4.59 4.7 4.75 4.67 4.51 4.23
1649.588 3.92 3.63 3.34 2.9682 2.6812 2.4912 2.3577 2.2803 2.2122 2.1252
1668.882 2.02699 2.02952 2.0076 1.9859 1.9693 1.894 1.887 1.892 1.876 1.817
1688.175 1.775 1.771 1.721 1.694 1.74 1.801 1.855 1.895 2.0032 2.1309
1707.469 2.2201 2.3247 2.4336 2.489 2.5019 2.5265 2.5024 2.4821 2.4295 2.3034
1726.762 2.1549 2.149 2.2166 2.1897 2.1788 2.1495 2.1943 2.2774 2.3068 2.4195
1746.056 2.5384 2.6965 2.9479 3.19 3.49 3.79 4.15 4.58 4.96 5.33
1765.349 5.6 5.69 5.67 5.59 5.44 5.21 4.88 4.57 4.32 4.11
1784.642 3.85 3.54 3.3 3.07 2.8096 2.5833 2.4422 2.3698 2.3121 2.2475
1803.936 2.201 2.1487 2.11776 2.07515 2.03769 2.0037 1.9962 1.9934 1.9428 1.899
1823.229 1.863 1.861 1.871 1.873 1.904 1.9202 1.919 1.897 1.85 1.833
1842.523 1.842 1.836 1.81 1.78 1.739 1.713 1.675 1.682 1.681 1.653
1861.816 1.66 1.682 1.703 1.704 1.766 1.864 1.9597 2.03142 2.09997 2.2657
1881.110 2.5427 2.8593 3.18 3.52 3.86 4.13 4.32 4.41 4.38 4.24
1900.403 3.96 3.65 3.32 2.9587 2.6517 2.4184 2.2626 2.1742 2.1384 2.1155
1919.696 2.0962 2.07756 2.01037 1.9629 1.9584 1.9 1.823 1.765 1.753 1.742
1938.990 1.703 1.717 1.759 1.755 1.744 1.76 1.774 1.799 1.81 1.794
1958.283 1.775 1.811 1.804 1.758 1.776 1.796 1.766 1.73 1.765 1.818
1977.577 1.834 1.884 1.9627 2.02198 2.10284 2.1832 2.2582 2.3282 2.3376 2.3152
1996.870 2.2747 2.1863 2.10927 2.04737 1.989 1.906 1.816 1.775 1.729 1.664
2016.164 1.612 1.565 1.542 1.505 1.451 1.45 1.466 1.475 1.473 1.48
2035.457 1.489 1.527 1.544 1.548 1.59 1.596 1.582 1.564 1.544 1.565
2054.750 1.528 1.467 1.465 1.434 1.382 1.363 1.368 1.34 1.319 1.331
2074.044 1.3 1.27 1.311 1.332 1.326 1.308 1.283 1.307 1.357 1.378
2093.337 1.398 1.399 1.413 1.432 1.423 1.41 1.439 1.486 1.496 1.538
2112.631 1.591 1.612 1.659 1.763 1.823 1.865 1.9348 1.9682 1.9926 2.009
2131.924 1.982 1.9253 1.848 1.752 1.687 1.611 1.551 1.531 1.497 1.462
2151.218 1.447 1.448 1.439 1.424 1.423 1.414 1.384 1.357 1.358 1.374
2170.511 1.371 1.367 1.408 1.45 1.463 1.477 1.507 1.57 1.61 1.666
2189.804 1.78 1.852 1.9293 2.04231 2.08385 2.08394 2.125 2.1249 2.06436 1.9982
2209.098 1.904 1.818 1.756 1.677 1.611 1.565 1.54 1.54 1.524 1.519
2228.391 1.512 1.479 1.5 1.542 1.581 1.605 1.628 1.66 1.675 1.691
2247.685 1.69 1.678 1.658 1.624 1.612 1.608 1.575 1.601 1.668 1.719
2266.978 1.763 1.796 1.85 1.898 1.9658 2.0312 2.05175 2.07971 2.11572 2.1356
2286.272 2.07664 2.01635 1.9888 1.9404 1.902 1.879 1.847 1.789 1.731 1.712
2305.565 1.735 1.725 1.685 1.67 1.667 1.667 1.651 1.674 1.72 1.74
2324.858 1.778 1.801 1.819 1.799 1.73 1.706 1.72 1.72 1.708 1.648
2344.152 1.604 1.612 1.574 1.539 1.553 1.562 1.595 1.661 1.666 1.684
2363.445 1.765 1.824 1.843 1.843 1.832 1.792 1.748 1.691 1.622 1.575
2382.739 1.485 1.422 1.404 1.355 1.36 1.387 1.339 1.314 1.336 1.31
2402.032 1.324 1.352 1.362 1.395 1.448 1.509 1.552 1.56 1.57 1.653
2421.326 1.733 1.793 1.852 1.9274 2.02092 2.09988 2.197 2.2654 2.3104 2.3694
2440.619 2.3769 2.3398 2.3005 2.2116 2.127 2.0822 1.974 1.836 1.703 1.635
2459.912 1.585 1.511 1.521 1.514 1.501 1.493 1.478 1.455 1.446 1.466
2479.206 1.477 1.503 1.51 1.538 1.546 1.543 1.611 1.666 1.69 1.72
2498.499 1.774 1.837 1.858 1.892 1.9675 2.02681 2.09976 2.2183 2.2592 2.2848
2517.793 2.3513 2.3666 2.3829 2.4291 2.489 2.5423 2.5773 2.5953 2.6252 2.6353
2537.086 2.6242 2.6443 2.6488 2.6064 2.5542 2.6073 2.6601 2.6767 2.7508 2.7987
2556.380 2.9059 3.09 3.27 3.46 3.66 3.87 4.04 4.23 4.4 4.48
2575.673 4.48 4.43 4.31 4.13 3.89 3.63 3.36 3.05 2.7246 2.4468
2594.966 2.2225 2.074 1.9629 1.845 1.746 1.649 1.573 1.517 1.471 1.405
2614.260 1.29 1.241 1.206 1.195 1.209 1.167 1.15 1.143 1.145 1.137
2633.553 1.132 1.12 1.082 1.113 1.135 1.133 1.109 1.067 1.058 1.106
2652.847 1.154 1.134 1.143 1.188 1.183 1.151 1.176 1.257 1.29 1.287
2672.140 1.313 1.307 1.294 1.284 1.256 1.207 1.127 1.109 1.078 1.059
2691.434 1.09 1.059 1.01 1.01 1.022 1.01 0.97 0.96 0.97 1.01
2710.727 1.028 0.98 0.98 1.035 1.117 1.166 1.134 1.112 1.117 1.082
2730.020 1.101 1.136 1.102 1.127 1.138 1.128 1.179 1.283 1.268 1.266
2749.314 1.348 1.308 1.267 1.272 1.295 1.289 1.21 1.143 1.14 1.192
2768.607 1.216 1.135 1.096 1.121 1.049 0.95 0.88 0.89 0.93 0.9
2787.901 0.88 0.84 0.83 0.84 0.81 0.75 0.75 0.74 0.73 0.71
2807.194 0.67 0.61 0.6 0.72 0.72 0.64 0.62 0.59 0.54 0.59
2826.488 0.68 0.69 0.7 0.72 0.74 0.69 0.66 0.7 0.73 0.69
2845.781 0.67 0.69 0.67 0.75 0.83 0.78 0.79 0.75 0.67 0.64
2865.074 0.66 0.7 0.7 0.69 0.58 0.49 0.45 0.45 0.4 0.36
2884.368 0.47 0.52 0.53 0.48 0.41 0.37 0.32 0.34 0.3 0.25
2903.661 0.21 0.16 0.15 0.16 0.15 0.12 0.15 0.18 0.15 0.13
2922.955 0.11 0.13 0.16 0.14 0.15 0.13 0.15 0.26 0.39 0.41
2942.248 0.34 0.38 0.43 0.4 0.51 0.57 0.57 0.66 0.66 0.65
2961.542 0.62 0.51 0.45 0.43 0.41 0.33 0.35 0.4 0.39 0.36
2980.835 0.33 0.35 0.3 0.29 0.31 0.24 0.15 0.13 0.08 0.15
3000.128 0.27 0.14 0 0.07 0.16 0.18 0.22 0.25 0.27 0.31
3019.422 0.36 0.32 0.25 0.3 0.37 0.39 0.4 0.48 0.56 0.62
3038.715 0.7 0.78 0.86 0.86 0.82 0.82 0.73 0.75 0.87 0.83
3058.009 0.72 0.83 1.075 1.225 1.525 1.905 2.2619 2.8081 3.59 4.54
3077.302 5.44 6.19 7.06 7.65 7.84 7.94 7.67 7.13 6.5 5.89
3096.596 5.25 4.69 4.23 3.78 3.31 2.8014 2.4012 2.04769 1.678 1.519
3115.889 1.367 1.086 0.95 0.8 0.66 0.57 0.46 0.41 0.35 0.36
3135.182 0.36 0.3 0.33 0.36 0.47 0.51 0.4 0.34 0.32 0.36
3154.476 0.42 0.42 0.39 0.43 0.47 0.46 0.63 0.67 0.58 0.54
3173.769 0.52 0.54 0.57 0.56 0.43 0.32 0.28 0.22 0.18 0.05
3193.063 0.06 0.2 0.2 0.16 0.22 0.2 0.06 0.09 0.15 0.29
3212.356 0.41 0.37 0.4 0.39 0.32 0.28 0.36 0.35 0.26 0.28
3231.650 0.33 0.35 0.34 0.35 0.4 0.31 0.33 0.31 0.21 0.28
3250.943 0.34 0.3 0.28 0.34 0.34 0.28 0.27 0.31 0.28 0.21
3270.236 0.24 0.37 0.32 0.27 0.33 0.22 0.14 0.34 0.42 0.41
3289.530 0.48 0.38 0.27 0.37 0.53 0.57 0.44 0.4 0.49 0.46
3308.823 0.38 0.35 0.5 0.58 0.54 0.37 0.35 0.5 0.62 0.69
3328.117 0.53 0.48 0.58 0.61 0.64 0.54 0.43 0.35 0.4 0.62
3347.410 0.61 0.54 0.59 0.64 0.61 0.6 0.63 0.7 0.61 0.6
3366.704 0.81 0.8 0.68 0.66 0.65 0.63 0.63 0.65 0.85 0.89
3385.997 0.71 0.62 0.63 0.72 0.7 0.65 0.77 0.71 0.69 0.79
3405.290 0.8 0.86 0.78 0.71 0.8 0.82 0.76 0.71 0.74 0.77
3424.584 0.79 0.95 0.94 0.9 0.99 0.92 0.8 0.73 0.74 0.78
3443.877 0.85 0.94 1.047 1 1.01 0.96 0.84 0.83 0.87 0.97
3463.171 1.02 1.01 0.92 0.83 0.92 1.081 1.056 1.025 1.067 1.043
3482.464 0.99 0.94 1.02 1.062 1.069 1.064 0.98 0.96 0.96 0.97
3501.758 1.035 1.105 1.058 1.112 1.258 1.145 1.026 1.044 1.107 1.155
3521.051 1.053 1 1 1.048 1.162 1.147 1.085 1.118 1.077 1.096
3540.344 1.12 1.076 1.123 1.21 1.18 1.096 1.19 1.293 1.213 1.164
3559.638 1.11 1.055 1.063 1.162 1.226 1.136 1.155 1.297 1.292 1.219
3578.931 1.234 1.264 1.323 1.303 1.236 1.265 1.213 1.186 1.205 1.169
3598.225 1.245 1.275 1.269 1.305 1.33 1.28 1.303 1.284 1.226 1.212
3617.518 1.152 1.234 1.3 1.35 1.347 1.276 1.218 1.229 1.286 1.265
3636.812 1.248 1.284 1.315 1.295 1.288 1.29 1.344 1.328 1.292 1.283
3656.105 1.315 1.322 1.337 1.381 1.322 1.406 1.5 1.402 1.281 1.264
3675.398 1.326 1.265 1.296 1.414 1.341 1.217 1.193 1.231 1.299 1.388
3694.692 1.436 1.38 1.348 1.434 1.421 1.381 1.445 1.409 1.36 1.417
3713.985 1.42 1.48 1.526 1.466 1.369 1.331 1.34 1.339 1.385 1.363
3733.279 1.369 1.457 1.522 1.617 1.601 1.63 1.585 1.465 1.557 1.581
3752.572 1.446 1.39 1.373 1.34 1.383 1.467 1.489 1.44 1.435 1.453
3771.866 1.428 1.345 1.357 1.427 1.449 1.395 1.267 1.291 1.439 1.477
3791.159 1.448 1.412 1.369 1.39 1.365 1.36 1.393 1.336 1.361 1.406
3810.452 1.385 1.428 1.468 1.407 1.349 1.378 1.378 1.324 1.369 1.455
3829.746 1.384 1.254 1.272 1.348 1.333 1.248 1.318 1.403 1.381 1.341
3849.039 1.31 1.247 1.221 1.301 1.28 1.241 1.193 1.202 1.246 1.242
3868.333 1.271 1.306 1.289 1.279 1.354 1.331 1.293 1.293 1.23 1.227
3887.626 1.337 1.35 1.352 1.377 1.39 1.385 1.279 1.314 1.431 1.337
3906.920 1.32 1.4 1.307 1.282 1.426 1.46 1.413 1.398 1.36 1.426
3926.213 1.423 1.393 1.428 1.431 1.537 1.576 1.506 1.462 1.516 1.525
3945.506 1.546 1.578 1.49 1.425 1.472 1.552 1.493 1.433 1.465 1.498
3964.800 1.406 1.343 1.356 1.366 1.381 1.426 1.455 1.388 1.261 1.194
3984.093 1.22 1.228 1.219 1.26 1.276 1.337 1.353 1.208 1.167
##END=
