##TITLE=p-Tetradecylaniline
##JCAMP-DX=4.24
##DATA TYPE=INFRARED SPECTRUM
##ORIGIN=EPA-IR VAPOR PHASE LIBRARY
##OWNER=SRD/NIST
Collection (C) 2018 copyright by the U.S. Secretary of Commerce
on behalf of the United States of America. All rights reserved.
##CAS REGISTRY NO=91323-12-5
##MOLFORM=C 20 H 35 N
##$NIST SOURCE=MSDC-IR
##STATE=gas
##XUNITS=1/CM
##YUNITS=ABSORBANCE
##XFACTOR=1.
##YFACTOR=0.001
##DELTAX=1.92898
##FIRSTX=549.8
##LASTX=4000.7
##FIRSTY=7.726
##MAXX=4000.7
##MINX=549.759
##MAXY=0.237786
##MINY=0
##NPOINTS=1790
##XYDATA=(X++(Y..Y))
549.759 7.726 7.636 7.476 6.886 6.466 5.856 5.316 5.316 5.256 4.886
569.049 4.656 4.606 4.606 4.476 4.356 4.336 4.056 3.976 4.226 4.436
588.339 4.376 4.176 4.046 3.826 3.786 3.886 3.986 4.056 4.236 4.246
607.628 4.166 4.416 4.666 4.606 4.516 4.926 5.396 5.676 5.936 6.606
626.918 7.066 7.436 8.186 8.726 9.516 10.666 11.786 13.016 14.476 15.736
646.208 16.776 17.966 18.906 19.096 18.756 18.076 17.226 16.546 15.666 14.786
665.498 14.076 13.436 12.766 11.986 11.626 11.456 11.266 10.926 10.676 10.546
684.787 10.256 10.036 9.726 9.426 9.226 8.926 8.686 8.546 8.566 8.596
704.077 8.586 8.496 8.316 8.356 8.386 8.456 8.386 8.226 8.126 7.966
723.367 7.866 7.776 7.566 7.436 7.296 7.106 6.986 6.956 6.856 6.516
742.657 6.456 6.396 6.256 6.136 6.046 6.226 6.316 6.366 6.346 6.326
761.947 6.466 6.506 6.496 6.606 6.866 7.056 7.026 7.086 7.156 7.246
781.236 7.696 8.136 8.436 8.786 9.206 9.616 10.056 10.616 11.276 11.976
800.526 12.636 13.406 13.956 14.466 15.176 15.836 16.196 16.346 16.266 16.006
819.816 15.626 14.866 14.036 13.016 12.066 11.296 10.596 9.876 9.156 8.736
839.106 8.326 7.896 7.536 7.046 6.776 6.366 5.726 5.586 5.396 5.006
858.395 4.716 4.366 3.956 3.816 3.836 3.776 3.666 3.456 3.336 3.276
877.685 3.196 3.176 3.086 3.006 3.076 2.956 2.766 2.676 2.566 2.546
896.975 2.556 2.476 2.356 2.366 2.366 2.216 2.246 2.296 2.276 2.326
916.265 2.176 2.136 2.156 2.056 2.106 2.106 2.226 2.406 2.426 2.326
935.555 2.326 2.176 2.046 2.106 2.116 2.156 2.286 2.216 2.046 2.106
954.844 2.076 2.036 2.076 2.036 2.116 2.346 2.366 2.276 2.216 2.186
974.134 2.196 2.206 2.316 2.436 2.436 2.416 2.376 2.436 2.276 2.266
993.424 2.296 2.076 2.026 2.036 2.096 1.996 1.996 2.206 2.216 2.146
1012.714 2.196 2.426 2.756 2.626 2.496 2.586 2.496 2.126 2.206 2.736
1032.003 2.806 2.606 2.666 2.716 2.806 2.966 2.746 2.626 2.606 2.846
1051.293 3.166 3.386 3.436 3.396 3.636 3.936 4.186 4.206 4.216 4.046
1070.583 3.856 4.206 4.366 4.486 4.646 4.656 4.536 4.326 4.226 3.806
1089.873 3.476 3.566 3.616 3.506 3.776 3.636 3.196 3.516 3.776 3.256
1109.163 3.086 3.816 3.806 3.676 4.206 4.066 3.936 4.396 4.496 4.586
1128.452 4.786 4.466 3.856 3.646 3.326 2.776 2.106 2.126 2.446 2.416
1147.742 2.436 2.156 2.046 2.366 2.236 1.996 2.116 2.066 2.246 2.646
1167.032 2.986 3.536 4.276 5.196 6.576 7.926 9.166 9.586 8.596 6.776
1186.322 5.136 3.996 3.326 2.866 2.396 2.396 2.306 1.916 1.726 1.796
1205.611 1.776 1.876 1.966 2.016 2.486 2.846 2.296 2.126 2.356 2.716
1224.901 3.026 3.166 3.526 3.696 3.706 4.036 4.876 5.236 5.686 6.676
1244.191 7.396 8.116 9.296 10.836 12.656 14.796 17.456 20.706 24.096 27.576
1263.481 31.226 34.136 35.706 35.546 33.476 30.136 26.146 22.106 18.546 15.486
1282.771 13.066 11.296 9.826 8.596 7.736 7.256 6.956 6.766 6.586 6.506
1302.060 6.426 6.286 6.156 6.036 5.996 5.846 5.606 5.476 5.416 5.326
1321.350 5.276 5.276 5.256 5.316 5.416 5.546 5.796 6.136 6.506 6.816
1340.640 7.096 7.346 7.636 7.956 8.136 8.216 8.206 8.046 7.816 7.496
1359.930 7.126 6.836 6.616 6.346 6.036 5.706 5.386 5.036 4.786 4.596
1379.219 4.426 4.346 4.246 4.096 3.886 3.646 3.436 3.276 3.126 2.996
1398.509 2.926 2.876 2.926 3.036 3.086 3.076 3.116 3.226 3.336 3.486
1417.799 3.626 3.786 4.056 4.286 4.456 4.656 4.966 5.396 5.916 6.546
1437.089 7.216 8.056 9.086 10.176 11.356 12.446 13.446 14.376 15.236 15.996
1456.378 16.686 17.236 17.506 17.476 16.986 16.146 15.116 13.866 12.406 11.036
1475.668 9.916 8.896 8.096 7.526 7.116 6.866 6.826 7.036 7.436 8.046
1494.958 8.986 10.336 12.216 14.806 18.306 22.976 29.256 36.816 45.026 52.956
1514.248 58.206 58.946 54.516 46.226 35.996 27.236 20.506 15.716 12.436 10.066
1533.538 8.356 7.136 6.236 5.506 4.926 4.436 3.956 3.656 3.526 3.366
1552.827 3.176 3.046 3.016 3.056 3.026 3.046 3.096 3.136 3.186 3.276
1572.117 3.436 3.596 3.796 4.036 4.256 4.456 4.716 5.096 5.446 5.676
1591.407 6.036 6.506 6.956 7.586 8.256 9.086 10.026 11.066 12.416 14.126
1610.697 16.116 18.466 21.156 24.046 26.966 29.866 32.506 34.476 35.406 34.986
1629.986 33.186 30.166 26.346 22.266 18.446 15.096 12.306 10.176 8.486 7.166
1649.276 6.216 5.526 4.916 4.356 3.946 3.616 3.376 3.186 2.976 2.846
1668.566 2.706 2.556 2.366 2.286 2.206 2.086 2.056 1.976 1.936 1.956
1687.856 1.946 1.866 1.746 1.766 1.836 1.846 1.856 1.856 1.826 1.806
1707.146 1.816 1.796 1.776 1.786 1.736 1.636 1.526 1.466 1.476 1.446
1726.435 1.366 1.356 1.386 1.406 1.396 1.336 1.376 1.436 1.466 1.536
1745.725 1.546 1.466 1.426 1.436 1.356 1.246 1.176 1.126 1.066 0.9642
1765.015 0.9197 0.8991 0.822 0.7979 0.7639 0.7668 0.8252 0.7903 0.763 0.7616
1784.305 0.7186 0.7177 0.7699 0.7647 0.7332 0.7358 0.7786 0.8215 0.7536 0.7335
1803.594 0.7466 0.6984 0.7217 0.7516 0.7456 0.7399 0.7601 0.7556 0.7472 0.8341
1822.884 0.8691 0.8488 0.8638 0.943 0.9963 0.9604 0.9455 0.965 1.066 1.106
1842.174 1.126 1.196 1.236 1.306 1.396 1.466 1.606 1.696 1.736 1.836
1861.464 1.916 2.026 2.136 2.126 2.036 1.956 1.846 1.716 1.616 1.486
1880.754 1.336 1.226 1.176 1.086 1.056 1.0081 0.9304 0.9427 0.9092 0.8636
1900.043 0.8397 0.8365 0.8296 0.7671 0.7915 0.8757 0.9131 0.9381 0.9063 0.9145
1919.333 0.985 0.9838 0.98 0.9381 0.8665 0.8581 0.8671 0.8382 0.8056 0.8286
1938.623 0.8168 0.7987 0.7502 0.6689 0.696 0.7083 0.7233 0.7889 0.7841 0.7589
1957.913 0.7389 0.6728 0.6499 0.697 0.6979 0.6647 0.6735 0.6852 0.6706 0.6466
1977.202 0.6418 0.635 0.6114 0.5372 0.5594 0.6525 0.6621 0.6826 0.6382 0.6312
1996.492 0.6377 0.6697 0.7522 0.73 0.7093 0.706 0.7242 0.7226 0.7846 0.8921
2015.782 0.8777 0.879 0.9559 0.9709 0.9547 0.9923 0.9712 0.9037 0.9041 0.8833
2035.072 0.8698 0.8752 0.8556 0.8523 0.8689 0.8623 0.8646 0.9044 0.9319 0.945
2054.362 0.908 0.8734 0.8962 0.9092 0.8958 0.8828 0.9115 0.9253 0.8777 0.8735
2073.651 0.8809 0.8815 0.8567 0.8497 0.8527 0.7614 0.6921 0.7659 0.8048 0.7836
2092.941 0.7718 0.7639 0.7837 0.7529 0.7104 0.7311 0.7476 0.6948 0.7123 0.7522
2112.231 0.74 0.668 0.5956 0.6283 0.6302 0.6138 0.5777 0.5085 0.5412 0.6355
2131.521 0.6203 0.5146 0.5009 0.5764 0.6311 0.618 0.5887 0.5983 0.6044 0.6073
2150.810 0.632 0.6142 0.6407 0.6147 0.5851 0.6614 0.6818 0.6707 0.6376 0.6525
2170.100 0.6605 0.6097 0.6099 0.6401 0.5939 0.5664 0.6377 0.6753 0.6396 0.5596
2189.390 0.5427 0.6329 0.6429 0.623 0.581 0.5239 0.5711 0.5531 0.5026 0.5307
2208.680 0.5199 0.4809 0.4612 0.4461 0.4801 0.5243 0.5307 0.5192 0.5061 0.5163
2227.970 0.5547 0.5675 0.5957 0.6041 0.593 0.5655 0.57 0.6285 0.6196 0.5666
2247.259 0.5577 0.6289 0.6158 0.6017 0.6361 0.6254 0.6265 0.6382 0.6603 0.6376
2266.549 0.5957 0.6084 0.6634 0.7642 0.8279 0.8291 0.7824 0.6887 0.7002 0.7841
2285.839 0.7704 0.7384 0.7979 0.8406 0.8334 0.7781 0.6885 0.7143 0.7775 0.7942
2305.129 0.7799 0.7765 0.7859 0.7787 0.722 0.6606 0.6937 0.7189 0.71 0.6905
2324.418 0.7212 0.7735 0.7917 0.7625 0.7742 0.8255 0.7853 0.7733 0.7245 0.7091
2343.708 0.7267 0.6844 0.7235 0.7056 0.6466 0.6986 0.7655 0.7379 0.6762 0.6593
2362.998 0.6707 0.6486 0.6457 0.6434 0.6222 0.6825 0.6682 0.628 0.6456 0.6131
2382.288 0.5948 0.586 0.6122 0.6064 0.547 0.5439 0.5594 0.563 0.6098 0.642
2401.578 0.6302 0.6513 0.6149 0.5362 0.5477 0.552 0.5296 0.5612 0.5739 0.5779
2420.867 0.5705 0.5377 0.5171 0.5365 0.5783 0.621 0.6876 0.6644 0.6203 0.6261
2440.157 0.5768 0.5439 0.5911 0.6271 0.6449 0.7018 0.686 0.5829 0.6344 0.6668
2459.447 0.6083 0.65 0.6923 0.7305 0.7047 0.635 0.5854 0.5876 0.5987 0.5776
2478.737 0.5152 0.5007 0.5681 0.5951 0.6646 0.6726 0.6361 0.6286 0.6555 0.6529
2498.026 0.5878 0.5854 0.6303 0.6444 0.6278 0.6847 0.7959 0.8794 0.9273 0.9157
2517.316 0.8859 0.9044 0.9429 0.9615 0.9966 1.066 1.086 1.116 1.186 1.136
2536.606 1.106 1.036 0.972 1.076 1.066 1.056 1.066 1.0209 1.046 1.026
2555.896 0.9412 1.0111 1.036 1.0057 1.0161 1.0173 1.046 1.0259 1.026 1.036
2575.186 1.066 1.156 1.186 1.196 1.256 1.226 1.236 1.316 1.346 1.306
2594.475 1.286 1.306 1.346 1.426 1.386 1.356 1.446 1.456 1.406 1.386
2613.765 1.476 1.516 1.586 1.646 1.686 1.686 1.716 1.786 1.676 1.656
2633.055 1.736 1.776 1.816 1.846 1.816 1.906 1.966 1.816 1.806 1.906
2652.345 1.956 2.026 2.046 2.046 2.096 2.186 2.246 2.306 2.336 2.326
2671.634 2.326 2.286 2.336 2.536 2.566 2.486 2.396 2.356 2.346 2.376
2690.924 2.486 2.416 2.286 2.276 2.226 2.126 2.076 2.136 2.206 2.206
2710.214 2.176 2.136 2.226 2.256 2.166 2.116 2.146 2.186 2.146 2.186
2729.504 2.286 2.306 2.276 2.226 2.226 2.286 2.416 2.526 2.486 2.546
2748.794 2.646 2.586 2.616 2.726 2.736 2.746 2.766 2.736 2.836 2.976
2768.083 3.016 3.026 3.076 3.156 3.236 3.326 3.526 3.726 3.776 3.826
2787.373 3.996 4.186 4.316 4.526 4.706 4.806 5.076 5.276 5.416 5.646
2806.663 5.866 6.156 6.476 6.846 7.176 7.516 8.036 8.556 9.006 9.506
2825.953 10.116 10.796 11.626 12.406 13.276 14.536 16.036 17.816 20.076 22.986
2845.242 26.656 31.396 37.356 44.686 53.436 63.156 72.976 81.486 87.096 88.786
2864.532 86.786 81.996 75.616 68.706 62.096 56.416 51.846 48.296 45.766 43.976
2883.822 42.576 41.516 40.766 40.446 40.836 41.996 43.816 46.396 49.626 53.716
2903.112 58.576 63.996 69.956 76.336 83.456 91.646 100.946 111.716 124.826 140.566
2922.401 158.796 179.306 200.286 219.006 232.386 237.786 234.806 224.056 207.256 187.126
2941.691 165.676 144.436 124.576 107.376 92.996 80.996 71.756 64.876 59.836 56.636
2960.981 54.706 53.266 51.906 50.286 47.926 44.616 40.406 35.936 31.726 27.886
2980.271 24.766 22.356 20.426 18.906 17.766 16.996 16.626 16.496 16.456 16.706
2999.561 17.056 17.276 17.556 17.636 17.486 17.326 17.066 16.936 17.036 17.206
3018.850 17.556 18.146 18.936 19.566 20.076 20.426 20.406 19.846 18.566 16.926
3038.140 15.186 13.456 12.186 11.346 10.676 10.226 9.896 9.556 9.196 8.966
3057.430 8.606 8.136 7.786 7.456 6.886 6.336 6.106 5.786 5.416 5.126
3076.720 4.916 4.676 4.446 4.226 4.076 4.026 3.876 3.856 3.846 3.776
3096.009 3.746 3.566 3.356 3.296 3.266 3.126 2.866 2.676 2.586 2.476
3115.299 2.416 2.366 2.246 2.176 2.116 2.006 1.976 1.916 1.826 1.816
3134.589 1.786 1.656 1.656 1.656 1.556 1.426 1.406 1.456 1.426 1.456
3153.879 1.346 1.216 1.226 1.226 1.146 1.076 1.126 1.186 1.046 0.9877
3173.169 1.0219 1.076 1.012 0.916 0.9425 0.9738 0.8188 0.6497 0.6671 0.7417
3192.458 0.8051 0.8463 0.9624 1.0033 1.066 1.096 1.066 1.046 1.096 1.076
3211.748 0.9721 0.9745 0.8966 0.8283 0.8209 0.9148 1.0179 1.0038 0.9737 0.8486
3231.038 0.8436 0.9044 0.7943 0.6815 0.677 0.7395 0.7595 0.7106 0.6741 0.6162
3250.328 0.5717 0.5677 0.5446 0.5398 0.4901 0.5354 0.6542 0.6105 0.5361 0.6394
3269.617 0.5953 0.4939 0.4841 0.3891 0.3169 0.3052 0.3215 0.3006 0.2747 0.323
3288.907 0.3156 0.1483 0.2103 0.4029 0.3898 0.3164 0.2163 0.0953 0.11284 0.1586
3308.197 0.2669 0.3662 0.3241 0.3864 0.3506 0.2222 0.2551 0.2393 0.2517 0.2973
3327.487 0.3005 0.2692 0.1154 0.1657 0.179 0.2044 0.3022 0.3042 0.3947 0.3299
3346.777 0.34 0.3897 0.3879 0.4321 0.4077 0.3616 0.3447 0.4415 0.5119 0.4802
3366.066 0.6448 0.7695 0.578 0.545 0.7015 0.6366 0.6203 0.8704 0.9619 1.046
3385.356 1.356 1.566 1.676 1.966 2.226 2.566 3.106 3.516 3.856 4.036
3404.646 3.936 3.886 3.906 3.766 3.506 3.206 2.756 2.226 1.826 1.506
3423.936 1.236 1.146 1.216 1.146 0.9643 0.8749 0.879 0.8298 0.7497 0.6964
3443.225 0.7181 0.8143 0.8739 0.8575 0.8775 0.9287 0.8945 0.8913 1.0165 1.156
3462.515 1.176 1.316 1.456 1.586 1.726 1.816 2.016 2.246 2.356 2.466
3481.805 2.576 2.506 2.486 2.526 2.396 2.256 2.276 2.286 2.266 2.116
3501.095 1.746 1.556 1.446 1.356 1.286 1.106 0.9505 0.9057 0.7514 0.6829
3520.385 0.7763 0.686 0.6428 0.5347 0.4611 0.3932 0.2124 0.10882 0 0.076
3539.674 0.2379 0.3043 0.222 0.1534 0.153 0.1715 0.2421 0.2446 0.3053 0.3409
3558.964 0.2056 0.12244 0.12193 0.03928 0.029484 0.2588 0.3527 0.1586 0.0127 0.029119
3578.254 0.1737 0.1954 0.07219 0.2119 0.4049 0.2623 0.1691 0.2828 0.2657 0.286
3597.544 0.2903 0.2883 0.2475 0.2512 0.3978 0.4859 0.4711 0.4266 0.4429 0.3621
3616.833 0.2917 0.3095 0.431 0.3942 0.3201 0.3367 0.3701 0.4279 0.4943 0.5304
3636.123 0.4271 0.411 0.3958 0.4288 0.5968 0.5168 0.4937 0.4341 0.3898 0.5875
3655.413 0.6205 0.6496 0.689 0.5719 0.4757 0.4582 0.3999 0.3918 0.3638 0.3793
3674.703 0.479 0.4588 0.3775 0.4206 0.6045 0.616 0.4877 0.434 0.2858 0.2317
3693.993 0.3213 0.4141 0.4394 0.3114 0.2194 0.3013 0.2777 0.2834 0.2935 0.1928
3713.282 0.257 0.2579 0.3065 0.4495 0.4436 0.384 0.4131 0.3208 0.3445 0.5131
3732.572 0.3744 0.3695 0.4474 0.2576 0.2444 0.4351 0.4423 0.3295 0.2225 0.2097
3751.862 0.3101 0.2396 0.24 0.3629 0.3921 0.3833 0.342 0.4544 0.4374 0.3472
3771.152 0.3945 0.4277 0.4228 0.3009 0.3225 0.3296 0.2357 0.2947 0.3474 0.4142
3790.441 0.4553 0.3354 0.3532 0.3259 0.2945 0.3007 0.3412 0.5693 0.5132 0.2462
3809.731 0.3596 0.5914 0.5844 0.4888 0.4433 0.4043 0.2596 0.2653 0.4184 0.4575
3829.021 0.4041 0.4832 0.5523 0.4184 0.464 0.5922 0.5177 0.4574 0.5201 0.6311
3848.311 0.5646 0.5506 0.489 0.5117 0.6325 0.5883 0.6072 0.7245 0.8596 0.8995
3867.601 0.9109 0.8864 0.7715 0.6832 0.7632 0.6642 0.5806 0.595 0.53 0.5484
3886.890 0.5604 0.538 0.6087 0.6935 0.6336 0.4641 0.363 0.5784 0.6958 0.5623
3906.180 0.5837 0.6035 0.5393 0.5398 0.6101 0.6018 0.5751 0.5415 0.4374 0.3815
3925.470 0.4417 0.4317 0.5666 0.6129 0.5069 0.5471 0.4288 0.4268 0.5623 0.6548
3944.760 0.7077 0.6657 0.7479 0.8223 0.7532 0.6824 0.6093 0.5314 0.6091 0.6826
3964.049 0.5152 0.5313 0.682 0.7023 0.6647 0.5601 0.4012 0.4259 0.6016 0.6078
3983.339 0.5388 0.5801 0.6956 0.7643 0.7237 0.7069 0.6395 0.6028 0.5825 0.4551
##END=
