##TITLE=Methyl 4-chloro-3-methylbenzoate
##JCAMP-DX=4.24
##DATA TYPE=INFRARED SPECTRUM
##ORIGIN=EPA-IR VAPOR PHASE LIBRARY
##OWNER=SRD/NIST
Collection (C) 2018 copyright by the U.S. Secretary of Commerce
on behalf of the United States of America. All rights reserved.
##CAS REGISTRY NO=91367-05-4
##MOLFORM=C 9 H 9 Cl O 2
##$NIST SOURCE=MSDC-IR
##STATE=gas
##XUNITS=1/CM
##YUNITS=ABSORBANCE
##XFACTOR=1.
##YFACTOR=0.001
##DELTAX=1.92934
##FIRSTX=549.9
##LASTX=3999.5
##FIRSTY=2.5031
##MAXX=3999.53
##MINX=549.863
##MAXY=0.1872
##MINY=0
##NPOINTS=1789
##XYDATA=(X++(Y..Y))
549.863 2.5031 2.7471 3.1767 3.73 4.53 5.72 7.18 8.44 9.45 10.21
569.156 10.64 10.5 9.67 8.7 7.37 6.04 5.07 4.17 3.49 3.1304
588.450 2.8734 2.5536 2.25655 2 1.746 1.592 1.496 1.476 1.514 1.506
607.743 1.417 1.366 1.413 1.45 1.499 1.621 1.733 1.679 1.678 1.697
627.037 1.627 1.564 1.456 1.507 1.572 1.485 1.49 1.433 1.4 1.412
646.330 1.369 1.388 1.402 1.333 1.256 1.269 1.28 1.297 1.346 1.324
665.624 1.299 1.328 1.375 1.467 1.533 1.556 1.638 1.918 2.1801 2.508
684.917 3.1131 3.89 4.83 5.91 6.69 7.02 7.01 6.84 6.37 5.34
704.210 4.19 3.3 2.7502 2.4198 2.1912 2.084 1.995 1.888 1.927 1.965
723.504 1.955 1.97 2.062 2.1971 2.3519 2.4833 2.624 2.9755 3.46 4.14
742.797 5.13 6.36 8.03 10.32 13.13 16.32 19.6 22.68 25.77 29.84
762.091 35.45 37.39 33.07 29.02 26.89 24.69 22.2 19.64 17.52 15.93
781.384 14.74 13.59 12.39 11.21 10.09 8.89 7.35 5.73 4.56 3.89
800.678 3.49 3.25 3.2046 3.1921 3.2088 3.34 3.54 3.84 4.35 4.97
819.971 5.7 6.58 7.49 8.47 9.41 10.14 10.5 10.45 10.25 9.72
839.264 8.77 7.81 6.96 6.14 5.38 4.74 4.27 3.96 3.83 3.82
858.558 3.91 4.08 4.36 4.77 5.14 5.45 5.89 6.43 6.98 7.55
877.851 7.92 8.05 8.17 8.29 8.5 8.82 9.07 9.23 9.45 9.72
897.145 9.9 10.04 9.94 9.51 8.99 8.46 7.74 6.9 6.08 5.32
916.438 4.69 4.11 3.6 3.176 2.8814 2.6761 2.5071 2.3677 2.23722 2.1649
935.732 2.1245 2.106 2.2043 2.26 2.23532 2.30921 2.3703 2.4623 2.6233 2.6856
955.025 2.8013 3.0002 3.1689 3.36 3.6 3.87 4.24 4.73 5.21 5.74
974.318 6.34 6.91 7.47 8.03 8.46 8.78 9.07 9.35 9.66 10.06
993.612 10.61 11.4 12.48 13.69 14.94 16.02 16.74 16.97 16.73 16.11
1012.905 15.18 14.03 12.85 11.98 11.53 11.41 11.82 12.71 13.98 15.76
1032.199 18.13 21.19 24.89 29.03 33.52 38.24 42.91 47.21 51 53.91
1051.492 55.49 55.66 54.51 51.98 48.21 43.7 38.96 34.51 30.64 27.45
1070.786 25.1 23.54 22.76 22.7 23.29 24.49 26.23 28.74 32.05 36.28
1090.079 41.5 47.63 54.78 62.73 71.2 79.97 88.49 96.14 102.26 106.03
1109.372 106.92 104.92 100.16 93.16 84.61 75.35 66.21 57.83 50.74 44.82
1128.666 39.68 34.88 30.67 26.96 23.65 20.79 18.2 16.19 14.63 13.28
1147.959 12.32 11.71 11.2 11.05 10.97 10.85 10.98 11.19 11.48 11.95
1167.253 12.54 13.32 14.53 16.33 18.91 22.62 27.7 34.15 41.79 50.32
1186.546 59.4 68.51 77.4 85.24 90.75 93.37 92.21 87.7 81.21 72.63
1205.840 62.33 51.68 41.68 33.5 27.36 22.97 19.83 17.98 17.37 17.08
1225.133 17.4 18.68 20.68 23.64 28.05 34.47 43.39 55.24 70.15 88.42
1244.426 109.92 132.1 151.11 164.13 172.34 178.15 179.64 171.43 154.35 137.31
1263.720 124.84 113.24 98 81.44 69.52 63.69 62.04 63.77 69.02 77.92
1283.013 90.7 107.07 125.24 142.63 156.8 165.92 168.44 163.58 151.77 134.37
1302.307 114.26 94.6 77.54 63.61 52.56 43.9 37.04 31.57 26.87 22.74
1321.600 19.3 16.49 14.33 12.77 11.6 10.67 9.87 9.25 8.82 8.46
1340.894 8.17 7.89 7.74 7.67 7.6 7.53 7.47 7.4 7.33 7.29
1360.187 7.21 7.15 7.11 7.08 7.16 7.36 7.6 7.98 8.52 9.17
1379.480 9.93 10.78 11.6 12.41 13.22 13.92 14.69 15.58 16.52 17.48
1398.774 18.41 18.98 19.1 18.97 18.56 17.86 16.8 15.47 14.29 13.44
1418.067 13.05 13.01 13.27 14.18 16.01 19.04 23.63 29.84 37.12 43.69
1437.361 47.99 50.01 50.27 48.21 42.9 35.54 29.11 25 22.55 21.09
1456.654 20.2 19.58 19.2 19.17 19.57 20.24 21.1 22.09 23.03 23.73
1475.948 24.07 23.92 23.12 21.8 20.02 17.95 15.79 13.65 11.68 10.11
1495.241 8.93 8.05 7.45 7.02 6.68 6.47 6.31 6.09 5.94 5.88
1514.534 5.91 5.95 5.93 5.99 6.03 5.96 5.95 5.97 5.91 5.85
1533.828 5.8 5.72 5.73 5.77 5.68 5.69 5.82 5.97 6.22 6.54
1553.121 6.97 7.5 8.17 9 9.83 10.75 11.84 13 14.23 15.4
1572.415 16.36 17.18 17.73 17.89 17.84 17.69 17.47 17.33 17.32 17.52
1591.708 17.98 18.71 19.65 20.56 21.39 22.03 22.14 21.6 20.57 19.04
1611.002 17.05 14.87 12.83 10.96 9.37 8.19 7.26 6.54 6.04 5.61
1630.295 5.25 5.03 4.91 4.74 4.53 4.45 4.5 4.59 4.69 4.73
1649.588 4.87 5.17 5.39 5.46 5.6 5.79 5.93 6.08 6.2 6.23
1668.882 6.23 6.15 6.02 5.97 5.95 5.98 5.99 6.13 6.45 6.71
1688.175 7.04 7.61 8.36 9.19 10.08 10.92 11.63 12.16 12.54 12.8
1707.469 12.95 13.1 13.42 13.98 14.91 16.51 18.79 21.91 26.41 32.6
1726.762 40.9 51.8 65.83 83.25 105.02 129.18 152.76 172.26 183.34 187.19
1746.056 187.2 182.73 168.44 143.32 115.1 90.35 70.46 55.33 43.52 34.42
1765.349 27.74 22.95 19.47 17.04 15.39 14.33 13.7 13.36 13.18 13.13
1784.642 13.12 13.09 12.99 12.64 11.99 11.18 10.31 9.44 8.56 7.72
1803.936 6.94 6.32 5.84 5.4 5.02 4.72 4.48 4.23 3.97 3.73
1823.229 3.54 3.34 3.148 3.0002 2.8716 2.7062 2.6074 2.539 2.5117 2.5651
1842.523 2.6051 2.5865 2.5708 2.5978 2.6244 2.7061 2.7437 2.7521 2.7499 2.7647
1861.816 2.8231 2.8778 2.9485 3.0582 3.1073 3.1075 3.1338 3.1439 3.1158 3.0815
1881.110 3.0559 3.0117 3.0651 3.1069 3.0756 3.1392 3.1874 3.24 3.35 3.4
1900.403 3.39 3.38 3.42 3.42 3.4 3.34 3.23 3.1486 3.0281 2.9481
1919.696 2.8331 2.7288 2.7137 2.6081 2.484 2.405 2.3358 2.26538 2.24763 2.24893
1938.990 2.24303 2.22983 2.26948 2.3338 2.30581 2.30912 2.3569 2.3594 2.3755 2.3889
1958.283 2.4228 2.4409 2.4211 2.4136 2.4429 2.5312 2.6101 2.6128 2.6557 2.7291
1977.577 2.7394 2.8187 2.8729 2.8832 2.9078 2.8657 2.8486 2.8167 2.7396 2.6669
1996.870 2.5813 2.5034 2.432 2.3623 2.3142 2.25492 2.2055 2.1757 2.1357 2.109
2016.164 2.071 2.049 2.036 2.026 1.992 2.007 2.073 2.043 2.029 2.058
2035.457 2.047 2.086 2.1535 2.1214 2.087 2.119 2.105 2.043 2.069 2.1227
2054.750 2.1245 2.1487 2.1872 2.1947 2.22584 2.30172 2.3743 2.4392 2.5181 2.605
2074.044 2.6645 2.7108 2.7849 2.8338 2.8442 2.8125 2.7554 2.7194 2.6704 2.6052
2093.337 2.5191 2.46 2.4326 2.3511 2.30157 2.27805 2.22131 2.1723 2.114 2.102
2112.631 2.104 2.098 2.099 2.1259 2.1565 2.155 2.1872 2.24402 2.26283 2.21308
2131.924 2.1767 2.1371 2.097 2.1306 2.095 1.985 1.924 1.887 1.852 1.897
2151.218 1.935 1.928 1.931 1.944 1.981 2.013 2.015 2.043 2.042 1.975
2170.511 1.983 1.959 1.948 1.984 2.003 1.999 1.944 1.9 1.894 1.907
2189.804 1.89 1.857 1.848 1.86 1.846 1.802 1.782 1.756 1.681 1.647
2209.098 1.652 1.644 1.615 1.596 1.579 1.585 1.607 1.595 1.582 1.564
2228.391 1.525 1.509 1.555 1.612 1.577 1.523 1.554 1.588 1.608 1.618
2247.685 1.625 1.62 1.578 1.566 1.587 1.6 1.624 1.67 1.646 1.619
2266.978 1.639 1.678 1.699 1.68 1.679 1.706 1.735 1.722 1.7 1.72
2286.272 1.731 1.721 1.737 1.766 1.8 1.799 1.766 1.754 1.721 1.668
2305.565 1.708 1.736 1.705 1.738 1.73 1.731 1.727 1.721 1.753 1.748
2324.858 1.73 1.715 1.736 1.717 1.709 1.728 1.716 1.733 1.74 1.737
2344.152 1.746 1.71 1.673 1.698 1.724 1.741 1.773 1.818 1.813 1.805
2363.445 1.846 1.883 1.864 1.846 1.824 1.824 1.804 1.78 1.783 1.763
2382.739 1.791 1.773 1.742 1.767 1.747 1.741 1.766 1.772 1.794 1.796
2402.032 1.771 1.757 1.791 1.788 1.764 1.782 1.778 1.753 1.744 1.735
2421.326 1.718 1.663 1.688 1.735 1.695 1.684 1.715 1.718 1.71 1.706
2440.619 1.653 1.662 1.725 1.73 1.699 1.681 1.709 1.699 1.669 1.657
2459.912 1.663 1.686 1.657 1.633 1.66 1.693 1.684 1.664 1.679 1.718
2479.206 1.713 1.702 1.734 1.769 1.786 1.748 1.748 1.789 1.777 1.713
2498.499 1.681 1.693 1.679 1.668 1.666 1.68 1.638 1.614 1.668 1.691
2517.793 1.729 1.768 1.745 1.752 1.801 1.829 1.815 1.818 1.888 1.891
2537.086 1.934 2.008 2.028 2.074 2.081 2.114 2.1626 2.161 2.1815 2.1554
2556.380 2.1684 2.2457 2.24288 2.22881 2.2308 2.1948 2.1957 2.23368 2.24428 2.22979
2575.673 2.2352 2.25631 2.1944 2.1226 2.053 2.002 1.987 1.975 1.96 1.909
2594.966 1.857 1.847 1.805 1.768 1.748 1.746 1.689 1.639 1.656 1.611
2614.260 1.602 1.621 1.593 1.601 1.596 1.615 1.669 1.671 1.665 1.692
2633.553 1.702 1.66 1.666 1.684 1.666 1.673 1.683 1.732 1.763 1.724
2652.847 1.681 1.655 1.678 1.708 1.722 1.691 1.657 1.631 1.604 1.533
2672.140 1.499 1.555 1.575 1.568 1.516 1.461 1.504 1.546 1.509 1.456
2691.434 1.433 1.444 1.441 1.4 1.417 1.42 1.416 1.413 1.428 1.484
2710.727 1.477 1.457 1.444 1.406 1.391 1.429 1.44 1.404 1.455 1.534
2730.020 1.533 1.557 1.514 1.49 1.598 1.627 1.63 1.666 1.673 1.69
2749.314 1.731 1.785 1.801 1.731 1.616 1.566 1.543 1.535 1.532 1.454
2768.607 1.423 1.475 1.513 1.495 1.497 1.546 1.516 1.476 1.493 1.526
2787.901 1.54 1.491 1.502 1.51 1.487 1.562 1.622 1.577 1.596 1.689
2807.194 1.705 1.718 1.818 1.859 1.913 2.025 2.1549 2.3429 2.4894 2.6018
2826.488 2.7174 2.8763 3.0697 3.36 3.65 3.93 4.37 4.87 5.36 5.96
2845.781 6.64 7.22 7.61 7.88 8 7.9 7.56 7.01 6.49 6.14
2865.074 5.86 5.75 5.71 5.63 5.69 5.66 5.74 5.97 6.04 6.05
2884.368 6.05 6.16 6.37 6.55 6.67 6.9 7.16 7.41 7.65 7.85
2903.661 8.06 8.28 8.47 8.73 9.07 9.38 9.71 9.96 10.24 10.62
2922.955 11 11.44 11.99 12.59 13.25 13.88 14.53 15.12 15.48 15.95
2942.248 16.53 17.1 17.93 19.21 21.32 24.59 28.92 33.54 37.35 39.72
2961.542 40.27 39.32 36.93 32.89 27.57 22.29 18.21 15.34 13.61 12.6
2980.835 12.09 11.92 11.9 12.06 12.15 12.28 12.45 12.5 12.48 12.41
3000.128 12.3 12.05 11.66 11.2 10.73 10.14 9.67 9.31 9.06 8.84
3019.422 8.64 8.58 8.55 8.47 8.49 8.43 8.29 8.25 8.02 7.71
3038.715 7.45 7.1 6.83 6.48 6.2 5.95 5.49 5.33 5.25 5.09
3058.009 5.15 5.06 4.83 4.76 4.82 4.79 4.55 4.38 4.37 4.37
3077.302 4.37 4.41 4.46 4.43 4.45 4.58 4.57 4.44 4.44 4.39
3096.596 4.11 3.96 3.78 3.5 3.25 3.0932 2.9152 2.632 2.5507 2.4179
3115.889 2.1887 2.1554 2.024 1.908 1.779 1.68 1.608 1.486 1.61 1.611
3135.182 1.54 1.523 1.427 1.271 1.18 1.2 1.12 1.17 1.26 1.13
3154.476 1.1 1.251 1.2 1.09 1.13 1.09 0.92 0.87 0.9 0.93
3173.769 0.8 0.75 0.78 0.73 0.72 0.71 0.71 0.61 0.53 0.52
3193.063 0.6 0.67 0.53 0.49 0.54 0.47 0.47 0.47 0.41 0.33
3212.356 0.32 0.3 0.3 0.34 0.41 0.39 0.29 0.27 0.26 0.26
3231.650 0.3 0.29 0.26 0.15 0.19 0.25 0.2 0.26 0.29 0.36
3250.943 0.49 0.44 0.3 0.26 0.26 0.19 0.02 0 0.16 0.29
3270.236 0.21 0.03 0.11 0.34 0.24 0.23 0.28 0.2 0.2 0.12
3289.530 0.09 0.21 0.22 0.18 0.17 0.04 0.1 0.22 0.25 0.38
3308.823 0.29 0.24 0.33 0.36 0.46 0.56 0.45 0.32 0.32 0.32
3328.117 0.34 0.34 0.38 0.51 0.5 0.37 0.3 0.33 0.4 0.33
3347.410 0.34 0.39 0.34 0.4 0.41 0.24 0.06 0.1 0.33 0.37
3366.704 0.33 0.42 0.33 0.21 0.26 0.35 0.35 0.33 0.24 0.16
3385.997 0.26 0.3 0.29 0.34 0.33 0.37 0.34 0.32 0.25 0.16
3405.290 0.29 0.34 0.31 0.42 0.53 0.49 0.46 0.31 0.24 0.33
3424.584 0.36 0.48 0.49 0.35 0.31 0.4 0.5 0.66 0.64 0.5
3443.877 0.55 0.66 0.7 0.67 0.82 1.06 1.16 1.17 1.369 1.54
3463.171 1.702 1.861 1.861 1.994 2.062 1.991 2.04 1.959 1.699 1.497
3482.464 1.42 1.278 1.02 0.83 0.87 0.9 0.88 0.88 0.85 0.83
3501.758 0.77 0.7 0.59 0.6 0.8 0.78 0.7 0.64 0.63 0.63
3521.051 0.64 0.77 0.7 0.64 0.56 0.49 0.52 0.59 0.57 0.54
3540.344 0.56 0.53 0.56 0.5 0.5 0.56 0.58 0.66 0.73 0.63
3559.638 0.56 0.67 0.72 0.62 0.6 0.77 0.75 0.71 0.7 0.62
3578.931 0.67 0.66 0.64 0.65 0.61 0.62 0.67 0.64 0.68 0.74
3598.225 0.7 0.77 0.85 0.8 0.64 0.58 0.72 0.65 0.65 0.78
3617.518 0.72 0.63 0.63 0.74 0.8 0.79 0.69 0.66 0.74 0.83
3636.812 0.75 0.62 0.7 0.8 0.79 0.78 0.76 0.81 0.9 0.82
3656.105 0.85 0.83 0.73 0.7 0.66 0.79 0.83 0.8 0.83 0.88
3675.398 0.83 0.82 0.88 0.95 0.9 0.8 0.8 0.79 0.76 0.76
3694.692 0.85 0.92 0.89 0.82 0.87 0.94 0.82 0.71 0.78 0.92
3713.985 0.93 0.82 0.85 0.94 0.93 0.98 0.95 0.83 0.87 0.98
3733.279 0.94 0.94 1.02 1.01 1.06 1.04 1.01 1 0.96 1.03
3752.572 1.1 1.09 1.02 1 1.05 1.14 1.21 1.04 0.93 0.99
3771.866 1.05 1.02 1.01 1.08 1.13 1.08 1.07 1.09 0.97 0.95
3791.159 1.09 1.1 1 0.93 0.92 0.9 0.9 1.03 1.05 1.04
3810.452 1.06 0.97 0.96 0.99 0.99 1.09 1.1 1.06 1.13 1.18
3829.746 1.14 1.15 1.15 1.15 1.11 1.08 1.09 1.07 1.07 1.15
3849.039 1.14 0.97 1.05 1.16 1.12 1.1 1.05 1.11 1.249 1.224
3868.333 1.19 1.221 1.21 1.253 1.16 0.99 0.99 1.04 1.08 1.17
3887.626 1.17 1.14 1.1 1.11 1.13 1.13 1.16 1.11 1.12 1.14
3906.920 1.1 1.13 1.15 1.11 1.14 1.257 1.14 0.97 1.04 1.18
3926.213 1.275 1.29 1.28 1.323 1.365 1.294 1.267 1.23 1.272 1.427
3945.506 1.456 1.381 1.334 1.375 1.33 1.333 1.444 1.493 1.479 1.478
3964.800 1.496 1.508 1.458 1.382 1.409 1.39 1.4 1.533 1.506 1.421
3984.093 1.375 1.344 1.295 1.257 1.31 1.365 1.287 1.276 1.339
##END=
