##TITLE=(4R,5S)-(+)-4-Methyl-5-phenyl-1,3-oxazolidine-2-thione
##JCAMP-DX=4.24
##DATA TYPE=INFRARED SPECTRUM
##ORIGIN=EPA-IR VAPOR PHASE LIBRARY
##OWNER=SRD/NIST
Collection (C) 2018 copyright by the U.S. Secretary of Commerce
on behalf of the United States of America. All rights reserved.
##CAS REGISTRY NO=91794-28-4
##MOLFORM=C 10 H 11 N O S
##$NIST SOURCE=MSDC-IR
##STATE=gas
##XUNITS=1/CM
##YUNITS=ABSORBANCE
##XFACTOR=1.
##YFACTOR=0.001
##DELTAX=1.92898
##FIRSTX=549.8
##LASTX=4000.7
##FIRSTY=7.662
##MAXX=4000.7
##MINX=549.759
##MAXY=0.149032
##MINY=0
##NPOINTS=1790
##XYDATA=(X++(Y..Y))
549.759 7.662 8.342 8.322 7.972 7.842 7.812 7.912 7.692 7.362 7.472
569.049 7.682 7.452 7.122 7.062 7.242 7.182 6.892 6.642 6.592 6.472
588.339 6.382 6.172 5.842 5.752 5.442 4.962 4.652 4.412 4.342 4.392
607.628 4.302 4.092 4.002 4.062 3.852 3.502 3.552 3.622 3.622 3.592
626.918 3.372 3.302 3.312 3.232 3.222 3.162 2.982 2.692 2.662 2.762
646.208 2.742 2.822 3.152 3.392 3.522 3.712 3.862 3.952 4.122 4.362
665.498 4.472 4.662 4.862 4.962 5.202 5.432 5.742 6.372 7.342 8.652
684.787 10.142 11.932 14.152 16.652 19.092 21.442 23.312 24.322 24.402 23.452
704.077 21.802 19.762 17.672 15.522 13.662 12.402 11.532 10.972 10.772 10.732
723.367 10.822 11.132 11.402 11.652 12.112 12.542 12.982 13.632 14.112 14.522
742.657 14.862 15.082 15.172 14.732 14.002 13.262 12.092 10.822 9.612 8.312
761.947 7.182 6.302 5.372 4.602 4.082 3.562 3.412 3.392 3.052 2.932
781.236 3.112 2.972 2.832 2.862 2.882 2.922 2.962 2.962 2.992 3.002
800.526 2.722 2.742 3.082 3.152 3.182 3.382 3.542 3.352 3.232 3.482
819.816 3.622 3.632 3.582 3.482 3.432 3.472 3.492 3.492 3.412 3.232
839.106 3.142 3.092 3.132 3.112 3.062 3.042 2.892 2.912 2.982 3.002
858.395 3.152 3.232 3.212 3.422 3.502 3.402 3.432 3.492 3.632 3.662
877.685 3.752 3.782 3.692 3.692 3.822 4.072 4.052 3.892 4.062 4.472
896.975 4.912 5.202 5.542 6.152 6.882 7.692 8.462 9.022 9.572 10.072
916.265 10.382 10.492 10.502 10.292 9.962 9.592 8.972 8.542 8.432 8.592
935.555 8.882 9.342 10.232 11.292 12.402 13.632 14.822 15.902 16.842 17.522
954.844 18.162 18.662 18.832 19.262 20.022 20.692 21.702 23.242 24.712 26.332
974.134 28.202 29.822 30.792 31.092 31.052 30.222 28.422 26.282 23.882 21.242
993.424 18.892 16.732 14.912 13.642 12.462 11.502 10.932 10.552 9.952 9.562
1012.714 9.542 9.412 9.492 10.022 10.572 11.022 11.682 11.962 12.042 12.322
1032.003 12.602 12.742 12.712 12.932 13.622 14.462 15.492 16.722 17.642 18.012
1051.293 18.012 17.952 17.672 17.092 16.372 15.842 15.422 15.042 15.462 16.642
1070.583 18.082 19.352 21.082 23.242 25.182 26.922 29.092 31.432 32.832 33.252
1089.873 33.042 32.702 31.862 30.182 27.872 25.312 22.752 20.572 19.172 18.222
1109.163 17.372 16.802 16.292 15.762 15.062 14.232 13.662 13.432 13.132 12.702
1128.452 12.502 12.632 12.652 12.942 13.662 14.682 16.162 17.572 19.282 21.492
1147.742 23.992 26.982 30.282 34.612 39.862 45.912 52.942 59.822 66.732 73.492
1167.032 79.262 83.722 86.542 87.142 85.722 82.532 78.162 73.622 69.252 64.162
1186.322 58.692 53.222 47.632 43.022 39.202 35.422 31.862 29.552 27.802 26.572
1205.611 26.042 25.472 25.402 25.392 25.332 25.202 24.972 25.452 26.322 27.092
1224.901 28.382 30.352 32.582 34.802 37.472 40.412 42.852 44.762 46.842 48.422
1244.191 48.792 48.332 47.062 45.052 42.512 39.772 37.152 35.062 33.742 33.132
1263.481 33.882 35.772 38.402 41.942 45.842 49.892 53.462 56.142 57.512 57.172
1282.771 55.462 52.062 47.522 42.402 37.112 32.362 28.302 25.052 22.632 21.042
1302.060 20.092 19.612 19.602 19.852 20.402 21.312 22.702 24.382 26.252 28.392
1321.350 30.752 33.262 35.752 38.122 40.162 41.572 42.312 42.232 41.212 39.302
1340.640 36.692 33.732 30.432 27.112 24.122 21.482 19.262 17.492 16.012 14.722
1359.930 13.702 12.922 12.352 11.932 11.682 11.612 11.592 11.722 12.002 12.352
1379.219 12.792 13.192 13.512 13.702 13.732 13.462 12.862 12.102 11.342 10.602
1398.509 9.932 9.402 9.032 8.852 8.892 9.092 9.472 9.932 10.492 11.272
1417.799 12.192 13.352 14.882 16.662 18.892 21.722 25.302 29.692 35.142 41.462
1437.089 49.182 57.812 66.852 75.772 83.682 90.292 96.122 101.552 106.562 111.352
1456.378 116.912 124.092 132.162 140.052 146.072 149.032 147.802 142.182 132.392 119.162
1475.668 103.882 87.582 72.372 59.262 48.762 40.752 34.802 30.512 27.502 25.272
1494.958 23.462 21.692 19.892 18.112 16.282 14.412 12.572 10.912 9.582 8.522
1514.248 7.692 7.082 6.602 6.112 5.712 5.472 5.292 5.182 5.032 4.832
1533.538 4.742 4.702 4.602 4.402 4.212 4.112 3.992 3.862 3.772 3.742
1552.827 3.712 3.602 3.452 3.222 3.162 3.202 3.182 3.112 3.032 2.922
1572.117 2.862 2.862 2.752 2.702 2.662 2.612 2.672 2.752 2.782 2.852
1591.407 2.942 2.912 3.002 3.182 3.202 3.242 3.342 3.312 3.242 3.142
1610.697 2.922 2.682 2.372 2.132 2.052 1.892 1.862 1.812 1.722 1.652
1629.986 1.582 1.552 1.522 1.512 1.512 1.482 1.512 1.482 1.342 1.412
1649.276 1.522 1.452 1.452 1.622 1.682 1.702 1.752 1.772 1.782 1.802
1668.566 1.782 1.732 1.682 1.602 1.582 1.552 1.452 1.412 1.442 1.472
1687.856 1.482 1.482 1.482 1.422 1.372 1.362 1.352 1.422 1.482 1.452
1707.146 1.452 1.432 1.382 1.432 1.442 1.332 1.362 1.432 1.502 1.482
1726.435 1.422 1.402 1.362 1.342 1.332 1.452 1.562 1.572 1.522 1.552
1745.725 1.632 1.592 1.532 1.502 1.512 1.462 1.402 1.462 1.452 1.372
1765.015 1.362 1.382 1.372 1.412 1.442 1.432 1.442 1.512 1.552 1.552
1784.305 1.512 1.572 1.722 1.782 1.922 2.072 2.222 2.392 2.502 2.572
1803.594 2.622 2.572 2.452 2.302 2.062 1.852 1.722 1.622 1.572 1.532
1822.884 1.482 1.412 1.352 1.322 1.352 1.362 1.282 1.252 1.302 1.282
1842.174 1.222 1.232 1.312 1.372 1.372 1.412 1.452 1.462 1.512 1.552
1861.464 1.622 1.712 1.792 1.882 1.982 2.072 2.122 2.232 2.302 2.292
1880.754 2.292 2.282 2.352 2.342 2.302 2.372 2.372 2.282 2.262 2.292
1900.043 2.252 2.212 2.212 2.122 2.082 2.112 2.132 2.212 2.372 2.462
1919.333 2.492 2.522 2.602 2.832 2.962 3.132 3.372 3.572 3.842 4.092
1938.623 4.352 4.662 5.022 5.302 5.492 5.712 5.912 6.042 6.172 6.352
1957.913 6.542 6.742 6.942 7.222 7.432 7.602 7.902 8.182 8.462 8.772
1977.202 9.092 9.482 9.892 10.322 10.862 11.482 12.112 12.762 13.502 14.252
1996.492 15.082 15.982 16.922 17.912 18.972 20.102 21.192 22.262 23.392 24.542
2015.782 25.672 26.822 28.022 29.112 30.192 31.272 32.342 33.372 34.362 35.332
2035.072 36.162 36.932 37.672 38.282 38.702 38.902 38.972 38.792 38.502 38.122
2054.362 37.482 36.682 35.882 34.972 33.932 32.912 31.772 30.582 29.432 28.322
2073.651 27.272 26.182 25.162 24.272 23.382 22.522 21.732 20.992 20.332 19.682
2092.941 19.062 18.512 18.032 17.562 17.122 16.722 16.412 16.142 15.762 15.432
2112.231 15.142 14.882 14.592 14.282 13.952 13.572 13.182 12.852 12.542 12.162
2131.521 11.812 11.502 11.102 10.772 10.372 9.982 9.712 9.372 8.962 8.622
2150.810 8.332 7.952 7.542 7.212 6.872 6.542 6.262 5.982 5.712 5.402
2170.100 5.212 5.062 4.792 4.542 4.382 4.252 4.122 3.992 3.902 3.812
2189.390 3.712 3.602 3.542 3.512 3.422 3.342 3.252 3.132 3.032 2.942
2208.680 2.872 2.852 2.812 2.742 2.682 2.632 2.602 2.482 2.352 2.322
2227.970 2.312 2.282 2.212 2.062 2.022 2.032 2.002 1.942 1.852 1.852
2247.259 1.782 1.672 1.692 1.692 1.562 1.482 1.512 1.542 1.512 1.422
2266.549 1.432 1.412 1.332 1.312 1.312 1.312 1.312 1.252 1.192 1.182
2285.839 1.152 1.162 1.152 1.142 1.1238 1.0549 0.974 0.9415 0.9796 0.9948
2305.129 1.021 1.0163 0.9917 1.0257 1.0701 1.0886 1.0932 1.0914 1.1023 1.142
2324.418 1.1051 1.0375 1.0333 0.9771 0.9928 1.0348 1.0269 1.0256 0.9695 0.9427
2343.708 1.0307 1.0279 0.8982 0.886 0.9138 0.9287 0.907 0.8591 0.8372 0.8055
2362.998 0.7873 0.803 0.8552 0.8839 0.8646 0.8038 0.7963 0.8465 0.82 0.8499
2382.288 0.92 0.8393 0.7968 0.8572 0.857 0.8047 0.8511 0.9019 0.9345 0.9533
2401.578 0.9056 0.9152 0.9514 1.03 1.132 1.1127 1.0852 1.0118 0.965 0.9991
2420.867 0.9818 0.9641 0.9 0.8401 0.8188 0.8279 0.8173 0.729 0.6796 0.7277
2440.157 0.733 0.6602 0.6587 0.6936 0.6917 0.6593 0.5874 0.5654 0.5899 0.6935
2459.447 0.7463 0.7126 0.6656 0.607 0.6451 0.7292 0.7603 0.7432 0.745 0.781
2478.737 0.7795 0.7963 0.7826 0.7552 0.7703 0.736 0.7305 0.7314 0.7173 0.6963
2498.026 0.72 0.6911 0.7508 0.8276 0.7357 0.7137 0.6957 0.7018 0.7535 0.7342
2517.316 0.7444 0.7695 0.7446 0.7735 0.8326 0.8284 0.7181 0.7193 0.7026 0.6325
2536.606 0.7447 0.7795 0.7404 0.7307 0.7588 0.7927 0.7659 0.7896 0.8183 0.7408
2555.896 0.7117 0.776 0.8326 0.7855 0.7487 0.774 0.7263 0.8096 0.8727 0.7506
2575.186 0.8018 0.8469 0.7883 0.841 0.8439 0.8481 0.815 0.8386 0.8962 0.804
2594.475 0.779 0.8559 0.8716 0.867 0.8941 0.8638 0.8838 0.9232 0.8682 0.8029
2613.765 0.6862 0.7128 0.8303 0.7686 0.7128 0.7407 0.8306 0.9102 0.9322 0.9395
2633.055 0.8735 0.8006 0.8864 0.9118 0.8112 0.8038 0.8837 0.9185 0.8485 0.8334
2652.345 0.9166 0.9369 0.9484 0.9631 0.9797 0.9938 1.0107 1.046 0.9743 0.8892
2671.634 0.9042 0.9244 1.0092 1.1103 1.0684 1.0473 1.1155 1.1048 1.084 1.132
2690.924 1.172 1.172 1.212 1.192 1.222 1.232 1.0857 1.1023 1.192 1.212
2710.214 1.172 1.172 1.242 1.262 1.202 1.172 1.162 1.1091 1.0259 1.0061
2729.504 1.0821 1.0706 0.967 0.9691 1.0054 1.0315 1.0224 1.0118 1.0034 0.9979
2748.794 1.0333 1.0494 1.0776 1.04 1.0075 1.0089 1.015 0.9671 0.9368 1.0121
2768.083 1.0489 1.0844 1.059 1.0258 1.0023 1.0032 1.0361 0.9157 0.9278 1.048
2787.373 0.9988 0.982 1.0554 1.1111 1.1101 1.1182 1.142 1.028 0.9435 0.9893
2806.663 1.0418 1.0778 1.132 1.162 1.162 1.142 1.0258 0.9813 1.0461 1.0916
2825.953 1.0763 1.0787 1.162 1.232 1.252 1.232 1.222 1.242 1.302 1.402
2845.242 1.402 1.492 1.602 1.582 1.592 1.582 1.722 2.012 2.192 2.332
2864.532 2.612 2.932 3.342 3.952 4.522 5.112 5.762 6.412 7.142 7.792
2883.822 8.332 8.762 9.012 9.142 9.162 9.092 9.042 8.982 8.882 8.752
2903.112 8.642 8.652 8.632 8.572 8.562 8.472 8.392 8.462 8.592 8.742
2922.401 8.962 9.372 9.892 10.442 11.122 11.812 12.572 13.352 13.952 14.322
2941.691 14.532 14.312 13.732 13.112 12.212 11.112 10.172 9.312 8.692 8.312
2960.981 8.042 8.082 8.452 9.032 10.022 11.622 13.352 14.672 15.622 16.222
2980.271 16.542 16.632 16.222 15.322 14.122 13.072 12.192 11.412 10.592 9.522
2999.561 8.392 7.342 6.502 5.712 5.012 4.632 4.382 4.242 4.382 4.532
3018.850 4.742 5.202 5.922 6.742 7.562 8.352 9.092 9.682 10.012 10.002
3038.140 9.792 9.392 8.742 8.032 7.332 6.702 6.222 5.942 5.762 5.722
3057.430 5.932 6.482 7.292 8.202 9.472 10.862 12.012 12.902 13.392 13.322
3076.720 12.852 12.112 11.052 9.752 8.422 7.492 6.952 6.512 6.222 5.992
3096.009 5.542 5.032 4.502 4.032 3.692 3.372 3.032 2.782 2.582 2.342
3115.299 2.112 1.982 1.862 1.662 1.452 1.242 1.0043 0.8612 0.7999 0.7659
3134.589 0.7139 0.6618 0.5683 0.551 0.5908 0.5798 0.5946 0.5181 0.437 0.4949
3153.879 0.5257 0.4712 0.5248 0.6123 0.624 0.4819 0.3679 0.4862 0.5344 0.594
3173.169 0.5633 0.4161 0.3076 0.1849 0.3306 0.49 0.4902 0.5458 0.5474 0.3835
3192.458 0.3251 0.395 0.3912 0.4498 0.5155 0.3915 0.2569 0.2772 0.312 0.3397
3211.748 0.3398 0.3463 0.32 0.2583 0.19405 0.17953 0.2512 0.3257 0.3612 0.2455
3231.038 0.18348 0.19978 0.21585 0.1663 0.18424 0.2638 0.21759 0.12328 0.0824 0.0889
3250.328 0.12605 0.1579 0.18614 0.1456 0.17557 0.2464 0.19779 0.135283 0.0791 0.14218
3269.617 0.13042 0.053 0.15568 0.2494 0.134049 0.0549 0.14793 0.1216 0.03 0.0892
3288.907 0.1527 0.18039 0.140797 0.12216 0.097 0.0688 0.16687 0.2897 0.3041 0.22214
3308.197 0.084 0.1058 0.21599 0.22254 0.20865 0.140859 0.0991 0.12378 0.14924 0.0912
3327.487 0.133967 0.15916 0.0902 0.14542 0.22717 0.2871 0.2104 0.14312 0.12818 0.1813
3346.777 0.21038 0.2424 0.2623 0.20773 0.140712 0.01 0.0401 0.095 0.022 0.0483
3366.066 0.0661 0.135479 0.283 0.2712 0.2941 0.3195 0.15128 0.16762 0.3455 0.4595
3385.356 0.4758 0.3483 0.2714 0.21529 0.22182 0.246 0.2782 0.3759 0.3414 0.2396
3404.646 0.3771 0.5223 0.5139 0.486 0.4292 0.4234 0.4181 0.4873 0.4928 0.3543
3423.936 0.5023 0.591 0.5629 0.5665 0.5406 0.6623 0.6991 0.7702 0.8827 1.0322
3443.225 1.232 1.342 1.502 1.882 2.192 2.572 3.372 4.242 5.202 6.412
3462.515 8.012 10.072 12.252 14.472 16.662 18.282 19.312 19.692 19.302 18.292
3481.805 16.552 14.352 12.102 9.912 7.982 6.292 4.922 3.872 2.982 2.362
3501.095 1.892 1.562 1.342 1.202 1.029 0.8782 0.884 0.8742 0.7998 0.6209
3520.385 0.527 0.5248 0.516 0.5594 0.5755 0.5257 0.481 0.4906 0.4489 0.3526
3539.674 0.2401 0.2551 0.3934 0.4526 0.3751 0.3592 0.4347 0.4648 0.5076 0.4854
3558.964 0.5201 0.5873 0.5977 0.5273 0.4461 0.4245 0.4423 0.4738 0.4077 0.405
3578.254 0.4028 0.4713 0.4927 0.4178 0.3568 0.2897 0.2753 0.385 0.3266 0.277
3597.544 0.4275 0.2973 0.2604 0.4382 0.4113 0.3003 0.3956 0.5522 0.4662 0.4048
3616.833 0.3755 0.4081 0.5937 0.7316 0.8666 1.0145 1.172 1.262 1.482 1.652
3636.123 1.832 1.972 1.952 2.192 2.502 2.642 2.742 2.662 2.542 2.442
3655.413 2.212 1.862 1.502 1.232 0.9994 0.8066 0.6984 0.5787 0.4593 0.4817
3674.703 0.5838 0.5853 0.3213 0.22637 0.4287 0.391 0.3053 0.3394 0.2839 0.2761
3693.993 0.2775 0.2902 0.3655 0.3879 0.3861 0.2838 0.1693 0.2347 0.3332 0.3258
3713.282 0.2996 0.3268 0.3098 0.15557 0 0.016 0.1189 0.21151 0.2343 0.3012
3732.572 0.2785 0.1971 0.2245 0.131691 0.14874 0.2731 0.17402 0.17592 0.2395 0.18664
3751.862 0.2891 0.3722 0.2791 0.2364 0.2611 0.21871 0.1189 0.17239 0.20826 0.19567
3771.152 0.2677 0.18856 0.1109 0.20624 0.2577 0.2582 0.3246 0.2834 0.3445 0.3514
3790.441 0.18802 0.19652 0.20312 0.20882 0.2837 0.20257 0.22189 0.21895 0.17435 0.1553
3809.731 0.16507 0.2895 0.2678 0.2872 0.19183 0.0917 0.21884 0.2928 0.141199 0.19304
3829.021 0.3036 0.2949 0.3195 0.3184 0.3851 0.3262 0.3342 0.395 0.3439 0.242
3848.311 0.17769 0.3015 0.3183 0.2708 0.3784 0.294 0.15 0.0658 0.15426 0.20663
3867.601 0.19101 0.16728 0.0963 0.15018 0.2419 0.3308 0.426 0.3617 0.2883 0.3354
3886.890 0.3536 0.3101 0.2911 0.3501 0.287 0.2412 0.20231 0.2666 0.3046 0.3414
3906.180 0.4745 0.5477 0.566 0.4365 0.3142 0.2594 0.2814 0.4624 0.5036 0.385
3925.470 0.4067 0.436 0.4354 0.4709 0.4988 0.3932 0.3506 0.5284 0.4586 0.4202
3944.760 0.5937 0.611 0.5964 0.5835 0.6122 0.5923 0.4649 0.4871 0.4631 0.5686
3964.049 0.7134 0.5872 0.5029 0.5496 0.5151 0.4054 0.4575 0.5033 0.476 0.354
3983.339 0.3881 0.4888 0.5009 0.4821 0.4868 0.5542 0.4853 0.3994 0.3903 0.4107
##END=
