##TITLE=3-Chloro-3-methylpentane
##JCAMP-DX=4.24
##DATA TYPE=INFRARED SPECTRUM
##ORIGIN=NIST Mass Spectrometry Data Center
##OWNER=NIST Standard Reference Data Program
Collection (C) 2018 copyright by the U.S. Secretary of Commerce
on behalf of the United States of America. All rights reserved.
##CAS REGISTRY NO=918-84-3
##MOLFORM=C 6 H 13 Cl
##$NIST SOURCE=MSDC-IR
##SPECTROMETER/DATA SYSTEM=HP-GC/MS/IRD
##STATE=gas
##XUNITS=1/CM
##YUNITS=ABSORBANCE
##XFACTOR=1.0
##YFACTOR=0.000002400
##DELTAX=4.0
##FIRSTX=550.0
##LASTX=3846.0
##FIRSTY=0.001889
##MAXX=3846
##MINX=550
##MAXY=0.024
##MINY=0
##NPOINTS=825
##XYDATA=(X++(Y..Y))
550.0 787 925 934 858 733 614 477 346 287 335
590.0 436 503 541 620 714 683 596 504 353 233
630.0 147 93 94 88 84 95 72 36 26 35
670.0 32 13 9 6 19 47 44 28 41 58
710.0 78 104 102 113 149 194 255 321 363 409
750.0 439 471 479 453 448 457 467 461 461 464
790.0 485 546 639 791 1021 1254 1472 1661 1763 1717
830.0 1552 1309 1021 752 515 354 270 226 193 182
870.0 189 208 238 246 242 251 250 206 164 134
910.0 107 86 71 67 72 85 91 108 153 209
950.0 265 342 441 502 551 590 577 534 502 496
990.0 517 571 645 707 739 726 653 559 466 374
1030.0 326 301 285 281 285 314 338 378 412 420
1070.0 419 403 380 342 322 338 389 461 568 732
1110.0 941 1171 1368 1547 1669 1699 1684 1635 1548 1484
1150.0 1422 1327 1230 1089 911 759 654 572 508 467
1190.0 421 377 341 293 255 240 215 187 161 130
1230.0 135 127 114 133 146 151 168 195 240 299
1270.0 356 413 483 546 586 602 603 580 535 503
1310.0 471 441 417 396 397 412 410 417 435 443
1350.0 455 490 565 699 904 1149 1417 1734 1943 1952
1390.0 1805 1522 1205 874 595 429 361 363 413 502
1430.0 634 807 1054 1360 1652 1943 2188 2303 2328 2220
1470.0 1964 1651 1338 1041 782 576 443 346 286 248
1510.0 215 197 183 168 161 163 160 161 167 161
1550.0 152 158 163 156 161 167 156 148 140 133
1590.0 120 107 98 97 98 92 88 85 80 76
1630.0 75 76 80 85 88 90 81 75 72 63
1670.0 56 40 44 54 50 46 42 41 43 36
1710.0 34 35 34 29 26 28 28 27 27 18
1750.0 11 25 29 25 29 29 33 32 29 30
1790.0 29 29 29 28 35 29 26 34 29 26
1830.0 26 17 18 25 22 21 23 21 19 15
1870.0 20 27 21 19 16 12 14 18 19 19
1910.0 19 18 14 17 22 25 26 24 18 20
1950.0 25 24 23 24 19 14 16 19 16 18
1990.0 19 11 13 17 12 8 5 7 13 13
2030.0 4 0 8 6 7 16 17 11 5 5
2070.0 19 18 12 10 10 17 13 20 23 19
2110.0 21 20 21 16 16 14 12 19 18 19
2150.0 25 27 22 12 16 25 25 22 24 20
2190.0 17 25 28 21 18 24 23 15 16 23
2230.0 24 17 7 12 20 19 10 7 11 16
2270.0 18 14 15 24 22 14 9 14 18 20
2310.0 17 17 21 20 15 23 23 28 32 35
2350.0 45 50 53 41 35 38 31 29 40 48
2390.0 43 43 49 38 26 27 25 25 33 39
2430.0 41 47 51 42 39 47 42 36 37 34
2470.0 28 24 23 22 21 21 26 39 31 24
2510.0 30 29 25 34 38 33 33 39 36 37
2550.0 42 42 37 36 39 39 41 42 41 38
2590.0 44 49 47 48 69 79 76 86 82 72
2630.0 76 78 84 80 71 79 86 76 82 89
2670.0 96 103 105 102 86 71 64 69 72 83
2710.0 98 106 111 120 126 136 152 169 186 192
2750.0 212 230 229 222 215 216 213 210 212 225
2790.0 236 253 273 294 312 334 360 390 416 444
2830.0 507 601 717 852 1010 1171 1325 1475 1600 1723
2870.0 1903 2166 2534 2945 3332 3696 3968 4090 4150 4163
2910.0 4170 4242 4412 4728 5169 5651 6203 6808 7114 7102
2950.0 6991 6775 6689 6890 7342 8001 9067 10000 9935 9493
2990.0 8631 7114 5673 4329 3145 2315 1675 1199 911 752
3030.0 652 586 541 504 463 439 435 423 416 416
3070.0 421 428 431 433 427 423 403 389 371 332
3110.0 309 285 263 240 211 198 184 172 180 181
3150.0 187 187 180 180 172 154 162 184 180 173
3190.0 158 151 161 143 130 134 125 116 115 101
3230.0 107 117 108 95 90 96 96 90 76 65
3270.0 70 77 61 51 57 72 75 64 47 40
3310.0 50 53 56 58 60 58 50 46 56 57
3350.0 44 47 35 14 12 28 39 36 44 51
3390.0 51 57 43 24 25 24 31 28 43 53
3430.0 32 21 22 30 36 48 49 36 20 28
3470.0 42 42 38 16 5 19 16 17 44 49
3510.0 37 29 27 14 16 39 38 32 35 41
3550.0 47 39 23 19 30 37 23 15 24 26
3590.0 36 41 34 33 32 28 32 32 41 35
3630.0 35 47 35 31 29 41 45 35 42 42
3670.0 32 16 23 26 18 16 25 49 50 21
3710.0 16 40 37 22 28 25 11 26 51 48
3750.0 48 48 44 43 38 42 55 52 42 30
3790.0 35 37 27 33 48 63 49 24 26 21
3830.0 16 22 28 30 34
##END=
