##TITLE=N,N-Bis(2-hydroxyethyl)-m-chloroaniline
##JCAMP-DX=4.24
##DATA TYPE=INFRARED SPECTRUM
##ORIGIN=EPA-IR VAPOR PHASE LIBRARY
##OWNER=SRD/NIST
Collection (C) 2018 copyright by the U.S. Secretary of Commerce
on behalf of the United States of America. All rights reserved.
##CAS REGISTRY NO=92-00-2
##MOLFORM=C 10 H 14 Cl N O 2
##$NIST SOURCE=MSDC-IR
##STATE=gas
##XUNITS=1/CM
##YUNITS=ABSORBANCE
##XFACTOR=1.
##YFACTOR=0.001
##DELTAX=1.92898
##FIRSTX=549.8
##LASTX=4000.7
##FIRSTY=3.57
##MAXX=4000.7
##MINX=549.759
##MAXY=0.12814
##MINY=0.0003359
##NPOINTS=1790
##XYDATA=(X++(Y..Y))
549.759 3.57 3.58 3.42 3.23 3.5 3.46 3.39 3.86 3.84 3.44
569.049 3.45 3.67 3.64 3.67 3.67 3.72 3.86 3.85 3.78 3.9
588.339 4.01 3.89 3.81 3.91 3.91 3.67 3.47 3.55 3.62 3.33
607.628 3.23 3.33 3.24 2.95 2.77 2.72 2.57 2.6 2.71 2.77
626.918 2.6 2.5 2.55 2.48 2.58 2.62 2.61 2.56 2.4 2.44
646.208 2.57 2.67 2.85 2.92 3.17 3.53 3.83 4.34 4.71 5.12
665.498 5.8 6.62 7.47 8.6 9.88 11.03 12.29 13.66 14.96 15.87
684.787 16.3 16.01 15.11 13.94 12.76 11.68 10.57 9.71 8.88 8.05
704.077 7.39 6.64 5.98 5.34 4.79 4.5 4.03 3.48 3.29 3.08
723.367 3.06 3.2 3.11 3.11 3.29 3.4 3.63 4.04 4.47 5.14
742.657 5.86 6.56 7.91 9.71 11.75 14.56 17.66 20.9 24.42 27.15
761.947 28.56 28.47 27.21 25.37 23.03 20.49 18.1 16.07 14.31 13.01
781.236 12.04 11.45 10.94 10.53 10.19 9.99 9.93 9.59 9.05 8.67
800.526 8.44 8.16 7.97 7.59 6.97 6.59 6.48 6.42 6.2 6.15
819.816 6.49 6.85 7.31 7.89 8.44 9.19 10.1 10.94 11.88 12.66
839.106 13.38 14.15 14.6 15 15.27 15.05 14.89 14.54 13.98 13.62
858.395 13.05 12.27 11.67 11.01 10.41 9.93 9.43 9.14 8.87 8.68
877.685 8.67 8.8 8.77 8.76 9.08 9.42 9.86 10.41 11.04 11.63
896.975 12.22 13 13.89 14.58 15.09 15.54 15.84 16.07 16.19 16.19
916.265 16.06 15.97 15.84 15.38 14.8 14.43 14.06 13.72 13.44 12.94
935.555 12.54 12.36 12.11 11.83 11.66 11.44 11.34 11.31 11.28 11.4
954.844 11.57 11.8 12.24 12.78 13.32 13.92 14.65 15.47 16.37 17.24
974.134 18.43 19.74 21.21 23.46 26.14 29.77 34.2 38.46 42.36 45.57
993.424 47.61 48.16 47.61 46.41 44.69 43.04 41.61 40.26 39 37.98
1012.714 37.17 36.57 36.37 36.38 36.85 37.96 39.32 41.2 43.59 46.06
1032.003 48.61 51.33 53.79 55.91 57.2 57.39 56.8 55.54 53.91 52.19
1051.293 50.14 48.58 47.91 47.62 47.82 48.25 49.1 49.52 49.18 48.35
1070.583 47.17 45.41 43.1 40.63 38.2 35.87 34.11 32.9 31.82 31.27
1089.873 31.76 32.49 33.66 35.26 36.46 36.9 36.36 34.84 32.52 29.67
1109.163 26.55 23.72 20.95 18.6 16.85 15.58 14.82 14.39 13.93 13.54
1128.452 13.43 13.52 13.38 13.42 13.83 14.16 14.33 14.81 15.58 15.95
1147.742 16.24 16.85 17.59 18.21 18.96 19.51 20 20.82 21.47 21.98
1167.032 22.64 23.01 23.2 23.54 23.79 24.06 23.9 23.83 24.18 24.21
1186.322 24.4 24.81 25.31 25.96 26.52 26.97 27.3 27.78 28.03 27.92
1205.611 27.72 27.45 27.17 26.5 25.96 25.37 24.7 24.41 24.11 23.5
1224.901 22.77 22.41 22.14 22 21.94 21.71 21.5 21.28 21.21 21.13
1244.191 20.71 20.45 20.37 20.17 19.89 19.62 19.52 19.43 19.25 18.99
1263.481 18.78 18.65 18.47 18.2 18 17.77 17.51 17.44 17.36 17.28
1282.771 17.28 17.22 17.05 16.94 16.9 16.9 16.92 16.88 16.9 17
1302.060 17.12 17.28 17.46 17.79 18.19 18.57 19.01 19.43 19.93 20.49
1321.350 21.07 21.66 22.33 23.09 23.9 24.82 25.84 26.93 28.11 29.37
1340.640 30.71 32.1 33.51 34.95 36.24 37.31 38.16 38.71 39 38.88
1359.930 38.36 37.54 36.42 35.09 33.57 31.98 30.42 28.85 27.47 26.24
1379.219 25.09 24.11 23.31 22.54 21.8 21.27 20.71 20.05 19.4 18.69
1398.509 17.97 17.25 16.49 15.77 15.16 14.59 14.12 13.8 13.57 13.32
1417.799 13.16 13.19 13.36 13.62 13.98 14.36 14.77 15.16 15.5 15.78
1437.089 16.11 16.44 16.82 17.29 17.86 18.54 19.27 20.05 20.8 21.55
1456.378 22.41 23.48 24.81 26.45 28.56 31.29 34.57 38.44 43.05 48.65
1475.668 54.65 61.05 67.32 73.13 77.73 80.41 80.64 78.24 73.36 66.59
1494.958 58.42 49.57 41.3 34.1 28.25 23.72 20.11 17.38 15.46 14.05
1514.248 13.03 12.2 11.6 11.26 11.01 10.83 10.75 10.8 10.95 11.11
1533.538 11.28 11.56 11.9 12.3 12.81 13.48 14.38 15.56 16.98 18.79
1552.827 20.94 23.59 26.46 29.6 32.84 35.51 37.69 39.29 40.35 41.1
1572.117 41.95 43.52 46.82 52.34 60.25 70.95 83.78 97.94 111.47 122.25
1591.407 128.14 127.82 121.19 109.32 93.87 77.04 61.14 47.82 37.73 30.48
1610.697 25.34 21.51 18.58 16.07 13.94 12.29 10.83 9.6 8.65 7.81
1629.986 7.09 6.49 5.93 5.47 5.17 4.89 4.62 4.48 4.33 4.14
1649.276 4.04 3.96 3.84 3.76 3.79 3.8 3.7 3.63 3.53 3.48
1668.566 3.38 3.23 3.11 2.96 2.85 2.76 2.65 2.61 2.56 2.47
1687.856 2.34 2.27 2.25 2.2 2.16 2.14 2.09 2.07 2.11 2.14
1707.146 2.13 2.08 2.11 2.15 2.08 2.02 1.94 1.85 1.81 1.77
1726.435 1.69 1.63 1.6 1.53 1.49 1.57 1.54 1.5 1.58 1.66
1745.725 1.68 1.71 1.8 1.84 1.91 2.03 2.13 2.17 2.21 2.31
1765.015 2.44 2.45 2.42 2.38 2.34 2.34 2.24 2.12 2.04 1.93
1784.305 1.8 1.75 1.74 1.74 1.75 1.76 1.78 1.78 1.78 1.79
1803.594 1.82 1.83 1.82 1.91 1.93 1.93 1.97 2 2.09 2.19
1822.884 2.27 2.36 2.47 2.5 2.45 2.39 2.31 2.17 2.06 1.88
1842.174 1.69 1.59 1.44 1.31 1.22 1.18 1.18 1.18 1.16 1.14
1861.464 1.11 1.04 1.03 1.04 1.05 1.05 1.05 1.09 1.1 1.12
1880.754 1.13 1.12 1.16 1.26 1.33 1.38 1.45 1.54 1.7 1.86
1900.043 1.98 2.09 2.17 2.24 2.27 2.22 2.12 2.01 1.89 1.77
1919.333 1.67 1.58 1.52 1.46 1.41 1.35 1.3 1.23 1.14 1.08
1938.623 1.09 1.08 1.03 1 0.9896 0.9465 0.962 1.02 0.9829 0.9198
1957.913 0.8998 0.9101 0.9105 0.9466 0.9416 0.8859 0.901 0.9202 0.9259 0.8965
1977.202 0.8994 0.8983 0.8427 0.8363 0.7957 0.7999 0.8604 0.8474 0.8577 0.8792
1996.492 0.8622 0.8537 0.8493 0.8424 0.8603 0.8576 0.8775 0.8611 0.8293 0.8741
2015.782 0.8845 0.857 0.8246 0.8488 0.8681 0.823 0.8318 0.8663 0.8843 0.9429
2035.072 0.9539 0.9101 0.9183 0.9158 0.8922 0.9344 0.9336 0.9415 1.02 1.07
2054.362 1.1 1.12 1.1 1.07 1.04 1.04 1.09 1.13 1.13 1.09
2073.651 1.04 1.01 0.9997 1.02 1.01 0.9894 0.9371 0.8806 0.8695 0.9152
2092.941 0.9432 0.9592 0.9562 0.9334 0.9321 0.894 0.8869 0.9101 0.8557 0.8547
2112.231 0.9171 0.8863 0.9103 0.9127 0.8749 0.8917 0.8793 0.8839 0.8474 0.86
2131.521 0.8991 0.8082 0.8174 0.8871 0.8598 0.8479 0.8333 0.8075 0.8275 0.866
2150.810 0.829 0.8164 0.861 0.8806 0.8505 0.8259 0.8318 0.8092 0.7953 0.809
2170.100 0.7938 0.7246 0.6963 0.7401 0.7663 0.7096 0.7016 0.7657 0.7571 0.7128
2189.390 0.7539 0.7876 0.6942 0.6765 0.6775 0.6735 0.7233 0.7175 0.6751 0.6835
2208.680 0.6806 0.6302 0.6448 0.7107 0.711 0.6578 0.6984 0.6774 0.666 0.7055
2227.970 0.7252 0.7679 0.7314 0.7092 0.7484 0.7131 0.7025 0.7757 0.8368 0.8176
2247.259 0.806 0.8619 0.8185 0.7804 0.8823 0.9364 0.8856 0.8892 0.8617 0.8506
2266.549 0.903 0.8925 0.8649 0.8491 0.8204 0.7876 0.7562 0.7434 0.7928 0.8013
2285.839 0.7755 0.8495 0.8557 0.8055 0.8402 0.8388 0.8438 0.8466 0.768 0.7408
2305.129 0.7339 0.7229 0.7467 0.7652 0.7487 0.685 0.7076 0.7067 0.6791 0.7103
2324.418 0.6812 0.6934 0.7519 0.7798 0.7296 0.7747 0.829 0.8414 0.8938 0.8486
2343.708 0.8473 0.9196 0.9382 0.8839 0.9 0.9108 0.9021 0.8961 0.9391 0.951
2362.998 0.9196 0.9526 0.8817 0.8595 0.9184 0.8811 0.8779 0.9632 1.02 1.03
2382.288 0.9945 0.997 1.01 0.9841 1 0.9951 1.04 1.05 0.9646 0.995
2401.578 1.02 1.02 0.9624 1.02 1.16 1.14 1.09 1.12 1.16 1.13
2420.867 1.08 1.06 1.06 1.06 1.1 1.13 1.11 1.12 1.12 1.12
2440.157 1.11 1.14 1.19 1.19 1.19 1.17 1.14 1.15 1.15 1.11
2459.447 1.09 1.13 1.2 1.18 1.08 1.06 1.09 1.08 1.13 1.16
2478.737 1.14 1.11 1.13 1.18 1.13 1.08 1.1 1.15 1.12 1.09
2498.026 1.08 1.08 1.12 1.13 1.11 1.14 1.15 1.1 1.13 1.19
2517.316 1.18 1.16 1.16 1.17 1.17 1.1 1.1 1.13 1.15 1.18
2536.606 1.18 1.22 1.24 1.28 1.36 1.38 1.33 1.27 1.29 1.32
2555.896 1.22 1.21 1.25 1.25 1.28 1.28 1.22 1.27 1.32 1.28
2575.186 1.26 1.27 1.26 1.26 1.3 1.31 1.36 1.32 1.29 1.28
2594.475 1.26 1.27 1.26 1.28 1.32 1.31 1.25 1.21 1.26 1.27
2613.765 1.23 1.29 1.4 1.34 1.26 1.26 1.29 1.31 1.31 1.39
2633.055 1.44 1.45 1.44 1.45 1.53 1.51 1.44 1.45 1.55 1.62
2652.345 1.65 1.69 1.65 1.64 1.71 1.72 1.76 1.89 1.88 1.86
2671.634 1.9 1.98 2.1 2.21 2.32 2.29 2.24 2.37 2.43 2.5
2690.924 2.51 2.52 2.65 2.68 2.69 2.82 2.86 2.76 2.73 2.86
2710.214 2.88 2.83 2.92 2.94 2.9 2.95 2.97 2.95 2.97 3
2729.504 2.99 3.06 3.11 3.11 3.11 3.07 3.02 3.06 3.14 3.15
2748.794 3.19 3.27 3.29 3.32 3.35 3.4 3.34 3.4 3.5 3.47
2768.083 3.53 3.61 3.78 3.85 3.86 3.97 4.06 4.16 4.33 4.4
2787.373 4.48 4.66 4.85 5.02 5.16 5.34 5.61 5.85 6.15 6.52
2806.663 6.77 7.03 7.32 7.71 8.16 8.62 9.21 9.84 10.36 10.83
2825.953 11.42 12.13 12.8 13.37 13.99 14.59 15.16 15.7 16.12 16.56
2845.242 17.02 17.46 17.87 18.29 18.76 19.3 19.88 20.45 21.14 21.86
2864.532 22.65 23.67 24.82 26.11 27.52 28.99 30.52 32.1 33.49 34.67
2883.822 35.63 36.19 36.38 36.33 35.79 34.85 33.91 32.82 31.62 30.57
2903.112 29.65 28.93 28.36 28.08 28.19 28.32 28.64 29.22 29.9 30.84
2922.401 31.87 32.81 33.67 34.45 35.16 35.83 36.35 36.89 37.18 37.26
2941.691 37.46 37.45 37.41 37.33 37.18 37.13 36.79 36.31 35.88 35.27
2960.981 34.48 33.54 32.62 31.51 30.09 28.67 27.18 25.54 23.88 22.21
2980.271 20.39 18.6 16.89 15.27 13.75 12.37 11.16 10.07 9.16 8.29
2999.561 7.48 6.85 6.43 6.09 5.75 5.42 5.25 5.11 4.95 4.94
3018.850 4.85 4.82 4.96 4.99 4.96 4.96 4.97 4.97 5.12 5.19
3038.140 5.04 4.95 4.78 4.6 4.5 4.4 4.31 4.23 4.25 4.24
3057.430 4.26 4.31 4.39 4.44 4.53 4.86 5.12 5.33 5.68 6.09
3076.720 6.55 6.93 7.19 7.37 7.47 7.4 7.22 6.94 6.56 6.26
3096.009 5.78 5.23 4.79 4.29 3.84 3.48 3.1 2.67 2.35 2.1
3115.299 1.79 1.53 1.43 1.32 1.18 1.08 1 0.9016 0.844 0.8129
3134.589 0.764 0.7316 0.6893 0.6808 0.7565 0.7109 0.5709 0.6357 0.6673 0.6811
3153.879 0.6575 0.6451 0.7402 0.741 0.6861 0.5987 0.5908 0.5819 0.5909 0.6299
3173.169 0.5823 0.5645 0.5717 0.5959 0.7356 0.8307 0.6955 0.6141 0.6786 0.6632
3192.458 0.6691 0.6762 0.6273 0.6086 0.6507 0.6466 0.6929 0.7503 0.6092 0.487
3211.748 0.5289 0.5222 0.4809 0.4979 0.4735 0.4605 0.5311 0.5198 0.4909 0.522
3231.038 0.6099 0.5796 0.512 0.5722 0.5692 0.5431 0.4769 0.5078 0.4031 0.4053
3250.328 0.4851 0.4614 0.4522 0.5025 0.508 0.3697 0.3992 0.3765 0.3683 0.3524
3269.617 0.3702 0.4815 0.4001 0.3359 0.4204 0.4651 0.4121 0.4552 0.5403 0.5242
3288.907 0.5223 0.4809 0.4071 0.4328 0.5603 0.5258 0.4746 0.5 0.4725 0.4985
3308.197 0.5052 0.4255 0.4734 0.6103 0.6256 0.5992 0.5225 0.5222 0.6268 0.6713
3327.487 0.662 0.6998 0.7083 0.7054 0.7079 0.5954 0.6041 0.7426 0.7062 0.6106
3346.777 0.5886 0.6755 0.7634 0.7272 0.7192 0.7089 0.7922 0.8622 0.8121 0.8319
3366.066 0.876 0.981 0.92 0.8366 0.8879 0.9316 0.9243 0.8425 0.9156 0.9316
3385.356 0.8629 0.9447 0.9618 0.9472 0.9547 0.9673 1.01 0.9674 0.9189 0.9227
3404.646 0.9387 0.9446 0.8969 0.9459 1.1 1.2 1.24 1.26 1.25 1.2
3423.936 1.21 1.33 1.31 1.26 1.33 1.41 1.35 1.31 1.27 1.17
3443.225 1.16 1.28 1.38 1.34 1.35 1.39 1.41 1.52 1.63 1.54
3462.515 1.46 1.52 1.54 1.61 1.65 1.64 1.68 1.67 1.61 1.66
3481.805 1.76 1.75 1.79 1.8 1.79 1.91 1.99 1.96 1.86 1.82
3501.095 1.9 1.99 2.17 2.29 2.21 2.18 2.29 2.48 2.58 2.59
3520.385 2.62 2.63 2.87 3.1 3.21 3.53 3.84 4.07 4.22 4.44
3539.674 4.75 4.96 5.12 5.21 5.37 5.66 5.79 5.89 5.97 5.94
3558.964 6.02 6.04 6.1 6.22 6.25 6.3 6.32 6.4 6.5 6.4
3578.254 6.35 6.33 6.32 6.34 6.2 6.02 5.78 5.66 5.7 5.62
3597.544 5.43 5.35 5.33 5.23 5.17 5.23 5.23 5.17 5.17 5.16
3616.833 5.19 5.31 5.35 5.39 5.43 5.44 5.47 5.46 5.54 5.65
3636.123 5.65 5.82 6.1 6.32 6.49 6.71 7.11 7.65 8.43 9.35
3655.413 10.23 11.23 12.35 13.29 14.07 14.78 14.99 15.02 14.81 14.14
3674.703 13.29 12.34 11.4 10.25 9.09 8 6.96 6.22 5.51 4.88
3693.993 4.54 4.13 3.72 3.39 3.2 3.06 2.86 2.64 2.49 2.42
3713.282 2.28 2.13 2.1 1.97 2 2.11 1.98 1.89 1.82 1.78
3732.572 1.71 1.63 1.52 1.57 1.54 1.42 1.36 1.21 1.19 1.27
3751.862 1.31 1.26 1.3 1.38 1.27 1.16 1.11 1.18 1.18 1.07
3771.152 1.08 1.08 1.09 1.01 0.9494 0.9789 0.9342 0.9697 0.9728 0.8672
3790.441 0.9316 1.06 0.9813 0.9957 0.9656 0.917 0.9494 0.8654 0.8423 0.8266
3809.731 0.8125 0.8331 0.8254 0.8708 0.9769 0.9703 0.8818 0.8657 0.8972 0.9224
3829.021 0.9084 0.8958 0.9503 1.11 1.08 1.08 1.07 0.8835 0.9423 0.9981
3848.311 1 0.9213 0.9092 0.9435 0.9237 1.12 1.15 0.91 0.7828 0.8239
3867.601 0.8989 0.9009 0.9536 1.09 1.08 0.9268 0.8866 0.9119 0.8793 0.8749
3886.890 0.9048 1.01 1.13 1.11 0.977 0.9031 0.9015 0.8516 0.9127 0.9459
3906.180 0.859 0.9594 0.9456 0.8687 0.8079 0.7814 0.8263 0.8922 0.9827 0.9674
3925.470 0.8732 0.81 0.8044 0.7056 0.6492 0.7633 0.7542 0.7284 0.7285 0.7015
3944.760 0.641 0.6599 0.7148 0.628 0.7882 0.8838 0.708 0.6768 0.7409 0.653
3964.049 0.5956 0.7358 0.7566 0.6216 0.607 0.602 0.5671 0.5996 0.7178 0.6957
3983.339 0.6313 0.6513 0.6034 0.539 0.5602 0.7073 0.834 0.7885 0.655 0.7025
##END=
