##TITLE=6-Chloroquinaldine
##JCAMP-DX=4.24
##DATA TYPE=INFRARED SPECTRUM
##ORIGIN=EPA-IR VAPOR PHASE LIBRARY
##OWNER=SRD/NIST
Collection (C) 2018 copyright by the U.S. Secretary of Commerce
on behalf of the United States of America. All rights reserved.
##CAS REGISTRY NO=92-46-6
##MOLFORM=C 10 H 8 Cl N
##$NIST SOURCE=MSDC-IR
##STATE=gas
##XUNITS=1/CM
##YUNITS=ABSORBANCE
##XFACTOR=1.
##YFACTOR=0.001
##DELTAX=1.92898
##FIRSTX=549.8
##LASTX=4000.7
##FIRSTY=11.816
##MAXX=4000.7
##MINX=549.759
##MAXY=0.083276
##MINY=0
##NPOINTS=1790
##XYDATA=(X++(Y..Y))
549.759 11.816 10.106 7.286 4.716 3.176 1.956 1.336 0.811 0.517 0.5458
569.049 0.5137 0.6135 0.4468 0.136 0.034 0.1306 0.20764 0.26931 0.1625 0.18871
588.339 0.28456 0.082 0.006 0 0.031 0.014 0.043 0.24657 0.5049 0.606
607.628 0.4316 0.4057 0.5394 0.6355 0.6441 0.7199 0.8128 0.9857 1.406 1.726
626.918 2.046 2.526 3.146 3.966 4.656 5.036 4.996 4.886 5.156 5.396
646.208 5.646 5.666 4.896 3.916 3.346 3.016 2.756 2.266 1.846 1.646
665.498 1.416 1.1639 0.9291 0.7418 0.7306 0.7618 0.6178 0.505 0.5868 0.5216
684.787 0.5051 0.5945 0.7898 0.8872 0.7997 0.9286 1.0187 0.9246 0.9187 0.9949
704.077 0.9208 0.9671 1.0526 1.0863 1.386 1.646 1.846 2.366 3.296 4.686
723.367 6.776 9.346 11.406 12.266 12.106 11.726 11.366 9.856 6.986 4.246
742.657 2.546 1.766 1.426 1.1568 0.9941 1.0612 0.9746 0.7577 0.8347 1.0921
761.947 1.1828 1.1503 1.206 1.286 1.356 1.476 1.766 2.356 3.016 3.826
781.236 5.046 6.656 8.596 10.806 13.046 15.606 18.936 23.036 27.616 32.496
800.526 36.766 39.416 40.116 39.156 37.626 35.286 32.066 29.366 28.166 28.536
819.816 30.046 31.996 34.166 36.926 40.546 45.346 48.566 45.846 40.046 35.716
839.106 32.256 28.436 24.276 20.166 16.386 13.236 11.006 9.626 9.206 9.706
858.395 10.816 12.336 14.026 15.976 17.786 19.406 21.996 25.796 27.216 24.296
877.685 21.286 19.806 18.676 17.746 16.816 16.776 18.116 20.296 22.326 23.266
896.975 23.516 23.426 22.636 20.306 16.296 12.216 9.056 6.726 4.966 3.756
916.265 3.156 2.816 2.586 2.446 2.406 2.386 2.276 2.386 2.656 2.826
935.555 3.046 3.786 5.236 7.506 10.356 13.056 14.356 14.416 14.366 14.386
954.844 13.146 10.096 7.036 5.056 4.116 3.766 3.616 3.306 3.006 3.036
974.134 2.996 2.896 2.836 2.906 2.826 2.736 2.876 2.836 2.686 2.686
993.424 2.756 2.966 3.386 3.566 3.836 4.256 4.466 4.516 4.586 4.556
1012.714 4.436 4.196 3.836 3.456 3.356 3.206 2.986 2.916 2.866 2.786
1032.003 2.836 2.886 2.956 2.926 2.846 3.066 3.316 3.486 3.956 4.706
1051.293 5.666 7.106 9.146 12.096 15.926 20.756 26.016 30.676 34.206 35.906
1070.583 36.126 35.826 34.306 30.506 25.536 21.116 18.056 16.036 13.746 11.566
1089.873 9.556 8.136 7.146 6.246 5.946 5.566 5.396 5.226 5.696 6.976
1109.163 7.856 8.686 8.866 8.126 7.866 8.436 8.316 6.896 5.466 4.686
1128.452 4.246 3.786 3.636 3.516 3.226 3.116 2.806 2.566 2.476 2.426
1147.742 2.426 2.246 2.376 2.766 3.156 3.506 3.816 4.326 5.046 5.856
1167.032 6.946 8.346 10.146 12.486 14.396 15.586 16.406 17.036 17.576 17.406
1186.322 16.046 14.426 13.026 11.726 11.366 11.086 10.446 9.846 9.336 9.236
1205.611 9.386 9.816 11.096 12.806 14.206 15.366 15.596 15.116 14.916 14.026
1224.901 11.906 9.536 7.406 5.906 5.226 4.806 4.616 4.706 4.716 4.676
1244.191 4.376 3.896 3.516 3.136 2.896 2.726 2.636 2.626 2.566 2.536
1263.481 2.286 2.176 2.246 2.256 2.446 2.586 2.876 3.346 3.846 4.766
1282.771 6.266 8.166 10.736 13.846 17.546 21.656 25.566 29.026 31.426 32.576
1302.060 32.946 32.566 31.376 29.366 26.816 24.166 21.856 20.126 18.866 17.736
1321.350 16.666 15.896 15.346 14.716 14.136 13.576 12.766 11.486 9.886 8.566
1340.640 7.696 7.266 7.056 6.936 6.936 7.056 7.496 8.286 9.266 10.276
1359.930 11.156 11.906 12.676 13.406 13.926 14.426 15.146 15.956 16.596 17.016
1379.219 17.256 16.956 15.846 14.176 12.356 10.756 9.436 8.266 7.286 6.566
1398.509 6.016 5.606 5.356 5.256 5.246 5.246 5.246 5.296 5.306 5.296
1417.799 5.366 5.406 5.416 5.496 5.616 5.766 6.046 6.336 6.546 6.696
1437.089 6.746 6.756 6.786 6.836 7.006 7.236 7.496 7.906 8.616 9.446
1456.378 10.256 11.196 12.136 13.066 14.016 14.896 15.936 17.606 20.126 23.826
1475.668 28.956 35.846 44.116 52.676 59.986 64.826 66.956 66.756 64.286 59.396
1494.958 52.276 44.416 37.926 33.276 29.836 26.806 23.906 21.296 18.996 16.946
1514.248 15.156 13.696 12.676 12.056 11.626 11.356 11.206 11.146 11.096 11.246
1533.538 11.596 11.976 12.516 13.246 14.166 15.276 16.596 17.996 19.326 20.516
1552.827 21.416 21.896 21.806 21.016 19.506 17.676 15.686 13.776 12.196 10.986
1572.117 10.266 10.096 10.586 11.846 14.046 17.426 22.146 28.246 35.646 44.306
1591.407 53.796 63.286 71.946 78.626 82.496 83.276 81.056 76.106 68.666 59.496
1610.697 49.896 40.846 32.886 25.826 19.926 15.436 12.126 9.806 8.096 6.766
1629.986 5.846 5.196 4.556 3.996 3.566 3.286 3.116 2.976 2.886 2.846
1649.276 2.776 2.746 2.736 2.666 2.636 2.646 2.606 2.566 2.576 2.556
1668.566 2.446 2.286 2.206 2.076 1.986 2.006 1.906 1.776 1.846 1.926
1687.856 1.876 1.836 1.866 1.876 1.926 2.026 2.086 2.076 2.086 2.156
1707.146 2.196 2.276 2.386 2.426 2.546 2.676 2.806 2.906 2.976 3.006
1726.435 3.026 3.056 3.026 3.096 3.226 3.296 3.356 3.376 3.366 3.346
1745.725 3.316 3.346 3.426 3.436 3.386 3.316 3.196 3.106 3.036 2.886
1765.015 2.646 2.476 2.276 2.076 1.946 1.906 2.006 2.116 2.276 2.436
1784.305 2.506 2.536 2.526 2.426 2.256 2.026 1.806 1.586 1.376 1.306
1803.594 1.256 1.1285 1.0387 1.0205 0.9639 0.9376 0.9537 0.9503 0.9457 0.9788
1822.884 0.9724 1.0202 1.0886 1.1594 1.206 1.1938 1.296 1.396 1.426 1.466
1842.174 1.476 1.476 1.426 1.346 1.216 1.064 0.9835 0.9336 0.871 0.7865
1861.464 0.7483 0.7437 0.6898 0.6529 0.6826 0.6999 0.6725 0.6656 0.6703 0.6958
1880.754 0.7539 0.7482 0.7081 0.7977 0.9031 0.9513 1.0207 1.1442 1.316 1.486
1900.043 1.686 1.916 2.196 2.536 2.816 3.096 3.426 3.646 3.826 4.006
1919.333 4.086 4.056 3.966 3.766 3.476 3.136 2.776 2.456 2.186 1.986
1938.623 1.736 1.516 1.356 1.175 1.0725 0.9873 0.8853 0.8127 0.7864 0.6455
1957.913 0.5514 0.6194 0.5759 0.479 0.4721 0.4849 0.4693 0.45 0.4303 0.4271
1977.202 0.4237 0.4762 0.5439 0.5017 0.399 0.3654 0.3935 0.4276 0.4562 0.496
1996.492 0.4667 0.4619 0.5328 0.5364 0.5528 0.5935 0.6538 0.6585 0.6827 0.7374
2015.782 0.7467 0.8296 0.8382 0.793 0.8213 0.8472 0.848 0.8255 0.7656 0.7623
2035.072 0.7648 0.6943 0.6733 0.6686 0.6812 0.6629 0.5607 0.5537 0.614 0.6104
2054.362 0.6176 0.6268 0.6276 0.6558 0.6292 0.5585 0.585 0.6377 0.6011 0.5927
2073.651 0.6004 0.5857 0.5628 0.568 0.5935 0.5444 0.5287 0.5643 0.4986 0.4892
2092.941 0.5686 0.5961 0.5886 0.6331 0.7385 0.7601 0.7715 0.8278 0.8585 0.8575
2112.231 0.8474 0.8057 0.7517 0.6921 0.6811 0.6894 0.685 0.7222 0.6898 0.6787
2131.521 0.6767 0.658 0.692 0.6999 0.6883 0.6928 0.6533 0.6728 0.7698 0.7047
2150.810 0.616 0.5911 0.6535 0.7139 0.6437 0.6324 0.6481 0.6508 0.6362 0.6138
2170.100 0.6104 0.6149 0.6175 0.6027 0.5575 0.5349 0.4929 0.4601 0.4407 0.4642
2189.390 0.4779 0.4545 0.5267 0.4397 0.3769 0.4435 0.3982 0.3859 0.472 0.4756
2208.680 0.4442 0.4479 0.4689 0.5474 0.6043 0.5906 0.5112 0.4138 0.405 0.3877
2227.970 0.468 0.5511 0.481 0.4533 0.518 0.6075 0.5888 0.5747 0.6603 0.7196
2247.259 0.7458 0.81 0.869 0.9255 0.9927 1.0586 1.0943 1.1085 1.1513 1.1684
2266.549 1.1718 1.1743 1.118 1.0576 1.0202 0.9923 0.9283 0.8576 0.7991 0.713
2285.839 0.659 0.68 0.6497 0.5782 0.5248 0.4822 0.5452 0.5536 0.5025 0.5255
2305.129 0.5651 0.6032 0.6797 0.6883 0.5948 0.6529 0.7086 0.7122 0.7651 0.7909
2324.418 0.8224 0.8684 0.8585 0.8681 0.8935 0.9093 0.9401 0.9162 0.8832 0.876
2343.708 0.796 0.7575 0.8269 0.7705 0.7504 0.8048 0.8111 0.7922 0.7508 0.8
2362.998 0.8747 0.8813 0.8413 0.8554 0.9228 0.8656 0.7982 0.753 0.7364 0.7257
2382.288 0.6863 0.6994 0.6843 0.6152 0.5871 0.5865 0.5713 0.6318 0.6403 0.5898
2401.578 0.5773 0.5776 0.6599 0.7808 0.7613 0.7123 0.7196 0.7242 0.7854 0.8243
2420.867 0.7835 0.7856 0.8271 0.8824 0.9089 0.9226 0.9709 1.0065 1.0234 1.0334
2440.157 1.0466 1.0178 0.9507 0.8541 0.8555 0.8859 0.9047 0.9018 0.8294 0.7407
2459.447 0.7609 0.8388 0.8155 0.8342 0.8456 0.8188 0.8208 0.8238 0.8221 0.7566
2478.737 0.7214 0.7761 0.8264 0.8475 0.8402 0.8006 0.7929 0.8945 0.9257 0.8795
2498.026 0.8902 0.8998 0.8602 0.8006 0.738 0.6795 0.6409 0.6255 0.6533 0.6733
2517.316 0.653 0.6163 0.6427 0.6747 0.6547 0.6464 0.6949 0.7228 0.7621 0.8727
2536.606 0.9752 1.0284 1.0392 1.033 0.9797 1.0124 1.0168 0.9696 1.0474 1.0343
2555.896 0.9478 0.9439 0.8874 0.7875 0.7677 0.7655 0.8009 0.848 0.8655 0.8964
2575.186 0.8679 0.8485 0.8337 0.8502 0.8713 0.9189 1.0244 1.0142 1.0021 0.9956
2594.475 1.0451 1.0961 1.0283 0.9722 0.9499 0.9256 0.8773 0.8505 0.8293 0.7519
2613.765 0.7155 0.7519 0.7285 0.6683 0.6146 0.5987 0.6365 0.6553 0.6814 0.6279
2633.055 0.5427 0.5244 0.5413 0.5709 0.5372 0.539 0.5218 0.4402 0.4312 0.4911
2652.345 0.485 0.4179 0.4349 0.4629 0.4536 0.4576 0.491 0.5261 0.544 0.5539
2671.634 0.5684 0.6763 0.6603 0.6055 0.6815 0.6938 0.7165 0.7622 0.7354 0.6429
2690.924 0.6439 0.7032 0.6508 0.7316 0.8142 0.7955 0.7915 0.7327 0.7021 0.7181
2710.214 0.7407 0.8358 0.8129 0.7345 0.7444 0.7812 0.888 0.9935 1.0323 1.0171
2729.504 1.0357 1.0837 1.0942 1.0986 1.085 1.0685 0.9698 0.8729 0.8455 0.8287
2748.794 0.8858 0.8329 0.7748 0.6992 0.6567 0.6946 0.611 0.6149 0.667 0.6041
2768.083 0.6127 0.6424 0.6171 0.5631 0.6053 0.6814 0.6908 0.7118 0.7263 0.7007
2787.373 0.6432 0.6698 0.7481 0.7931 0.8395 0.8479 0.8645 0.8952 0.8483 0.9234
2806.663 0.9476 0.919 1.0609 1.0645 1.0225 1.0658 1.1795 1.296 1.356 1.416
2825.953 1.456 1.476 1.566 1.696 1.806 1.906 2.066 2.236 2.416 2.536
2845.242 2.686 2.946 3.126 3.266 3.426 3.616 3.876 4.216 4.456 4.686
2864.532 4.916 4.956 4.936 4.996 4.936 4.736 4.566 4.366 4.286 4.236
2883.822 4.116 4.116 4.106 4.036 4.026 4.086 4.156 4.196 4.236 4.386
2903.112 4.596 4.626 4.916 5.376 5.776 6.226 6.816 7.686 8.786 10.156
2922.401 11.826 13.736 15.746 17.656 19.076 19.816 19.976 19.496 18.406 16.796
2941.691 14.846 12.876 11.196 9.886 8.926 8.346 7.886 7.556 7.166 6.866
2960.981 6.736 6.516 6.126 5.696 5.316 4.976 4.726 4.436 4.136 3.896
2980.271 3.686 3.566 3.466 3.346 3.336 3.316 3.456 3.666 3.606 3.626
2999.561 3.866 4.126 4.336 4.526 4.706 5.016 5.356 5.706 6.086 6.366
3018.850 6.746 7.186 7.696 8.236 8.786 9.366 9.926 10.316 10.536 10.696
3038.140 10.856 11.106 11.496 12.176 12.976 13.986 15.316 16.816 18.386 19.746
3057.430 20.786 21.326 21.476 21.446 21.226 20.596 19.526 18.166 16.716 15.426
3076.720 14.356 13.376 12.386 11.506 10.526 9.516 8.556 7.596 6.706 5.866
3096.009 5.126 4.526 3.956 3.476 3.156 2.806 2.536 2.286 2.006 1.786
3115.299 1.636 1.546 1.466 1.436 1.356 1.246 1.1161 1.0478 0.9707 0.8815
3134.589 0.8676 0.8593 0.857 0.799 0.8047 0.7928 0.7483 0.7383 0.7557 0.7357
3153.879 0.6853 0.7182 0.7615 0.7937 0.7205 0.662 0.659 0.5983 0.6148 0.6929
3173.169 0.7389 0.6575 0.6431 0.7377 0.6951 0.5157 0.4783 0.6006 0.6608 0.567
3192.458 0.5168 0.5731 0.6091 0.6705 0.7126 0.6341 0.6036 0.6379 0.6232 0.6097
3211.748 0.5956 0.6304 0.5547 0.5315 0.6634 0.7489 0.6455 0.53 0.5225 0.585
3231.038 0.5214 0.4173 0.5122 0.5514 0.5394 0.5279 0.4163 0.29162 0.205359 0.1553
3250.328 0.27915 0.3336 0.3216 0.3611 0.4234 0.3633 0.20959 0.3028 0.3769 0.3187
3269.617 0.22324 0.24376 0.3851 0.3796 0.26453 0.28603 0.4182 0.3681 0.3047 0.347
3288.907 0.3261 0.25859 0.27806 0.3179 0.3601 0.3859 0.3846 0.4639 0.4889 0.3971
3308.197 0.3556 0.28146 0.25669 0.3369 0.29489 0.21897 0.25118 0.27584 0.25919 0.22747
3327.487 0.195699 0.21712 0.2965 0.3775 0.28858 0.3141 0.3195 0.1827 0.1446 0.22458
3346.777 0.28168 0.24507 0.4215 0.4851 0.393 0.3247 0.19008 0.25488 0.3126 0.2806
3366.066 0.27572 0.19076 0.1476 0.28124 0.3201 0.25356 0.26698 0.4082 0.5013 0.4698
3385.356 0.45 0.3658 0.3203 0.3166 0.3426 0.3298 0.3074 0.3522 0.3449 0.3317
3404.646 0.3572 0.27739 0.29595 0.3886 0.337 0.3093 0.200893 0.1301 0.1625 0.1377
3423.936 0.1223 0.23422 0.28003 0.2332 0.1214 0.1117 0.1719 0.0994 0.1792 0.26962
3443.225 0.26576 0.28802 0.3051 0.27659 0.22113 0.28239 0.26268 0.1448 0.21187 0.18781
3462.515 0.1085 0.1048 0.1586 0.2545 0.29578 0.24486 0.24815 0.3679 0.3996 0.3473
3481.805 0.3155 0.3351 0.27248 0.2684 0.3228 0.21505 0.1547 0.23141 0.25745 0.24605
3501.095 0.27102 0.28252 0.3231 0.25424 0.24555 0.3055 0.21353 0.28344 0.3852 0.23518
3520.385 0.195937 0.22365 0.076 0.252 0.3796 0.24564 0.20168 0.276 0.3299 0.26854
3539.674 0.27899 0.197528 0.1602 0.1703 0.2321 0.26444 0.18683 0.3119 0.3508 0.201239
3558.964 0.24721 0.27064 0.1235 0.079 0.061 0.1608 0.21122 0.1852 0.24502 0.2912
3578.254 0.28208 0.1773 0.21793 0.2805 0.24578 0.2705 0.309 0.25693 0.1813 0.24242
3597.544 0.3678 0.3512 0.23595 0.26312 0.3062 0.3612 0.3748 0.1724 0.1434 0.28595
3616.833 0.27419 0.23389 0.1847 0.1302 0.093 0.1389 0.20669 0.1692 0.21467 0.3169
3636.123 0.3444 0.27942 0.25917 0.26046 0.25227 0.204755 0.23379 0.3657 0.3881 0.3564
3655.413 0.3142 0.29142 0.3271 0.29397 0.24673 0.2509 0.18931 0.3288 0.453 0.429
3674.703 0.4068 0.367 0.381 0.3946 0.3485 0.4108 0.4245 0.2986 0.3643 0.3827
3693.993 0.23062 0.24885 0.3332 0.3382 0.4052 0.3145 0.25758 0.323 0.3081 0.394
3713.282 0.5513 0.473 0.4133 0.4315 0.3913 0.3492 0.3123 0.2965 0.3629 0.4342
3732.572 0.37 0.3129 0.25198 0.1844 0.3046 0.3722 0.3421 0.4667 0.4983 0.385
3751.862 0.3898 0.3691 0.3536 0.3199 0.19005 0.1436 0.1192 0.19217 0.26346 0.21421
3771.152 0.21273 0.3104 0.28661 0.3226 0.4552 0.4373 0.4361 0.4327 0.318 0.27475
3790.441 0.25698 0.24849 0.3057 0.27856 0.3182 0.4554 0.4745 0.3085 0.3311 0.3788
3809.731 0.3348 0.199072 0.093 0.3214 0.3931 0.3646 0.3807 0.28168 0.3348 0.4076
3829.021 0.3973 0.4031 0.3576 0.3776 0.27472 0.29477 0.3373 0.2597 0.3262 0.4465
3848.311 0.5105 0.4802 0.5977 0.6223 0.4773 0.5106 0.5296 0.4536 0.28355 0.1512
3867.601 0.1936 0.3492 0.4848 0.4851 0.3454 0.24172 0.3392 0.3635 0.4071 0.4455
3886.890 0.25567 0.202935 0.3512 0.4031 0.3932 0.4023 0.3155 0.27875 0.28048 0.25888
3906.180 0.2157 0.18732 0.27446 0.28255 0.26222 0.352 0.3481 0.27782 0.3623 0.3912
3925.470 0.4045 0.3666 0.26682 0.4695 0.5705 0.4393 0.4824 0.5738 0.5521 0.6332
3944.760 0.676 0.6632 0.6874 0.6623 0.6575 0.7727 0.7989 0.8269 0.9112 0.818
3964.049 0.7983 0.7366 0.777 0.7841 0.6957 0.8269 0.8727 0.871 0.9017 0.8286
3983.339 0.8115 0.8648 0.9807 0.9451 0.7603 0.6468 0.6588 0.8493 0.8607 0.7236
##END=
