##TITLE=3,6-Diaminoacridine
##JCAMP-DX=4.24
##DATA TYPE=INFRARED SPECTRUM
##ORIGIN=EPA-IR VAPOR PHASE LIBRARY
##OWNER=SRD/NIST
Collection (C) 2018 copyright by the U.S. Secretary of Commerce
on behalf of the United States of America. All rights reserved.
##CAS REGISTRY NO=92-62-6
##MOLFORM=C 13 H 11 N 3
##$NIST SOURCE=MSDC-IR
##STATE=gas
##XUNITS=1/CM
##YUNITS=ABSORBANCE
##XFACTOR=1.
##YFACTOR=0.001
##DELTAX=3.85796
##FIRSTX=501.5
##LASTX=4000.7
##FIRSTY=0.4134
##MAXX=4000.7
##MINX=501.534
##MAXY=0.007838
##MINY=0
##NPOINTS=908
##XYDATA=(X++(Y..Y))
501.534 0.4134 0.55962 0.9448 1.0733 0.8577 0.8649 0.9352 0.9239 0.884 0.8811
540.114 1.006 1.1632 1.104 0.9109 0.8257 0.8572 0.9535 1.1333 1.0148 0.9022
578.693 1.0194 1.0434 1.1162 1.1118 1.1854 1.1817 1.0382 0.976 0.8194 0.807
617.273 0.9474 0.9143 0.9974 1.1459 1.1383 1.269 1.4329 1.528 1.488 1.4636
655.852 1.508 1.488 1.4081 1.3262 1.2626 1.1237 1.0833 1.1356 1.2245 1.2224
694.432 1.1811 1.1479 1.056 0.9981 1.0016 1.044 1.0336 1.051 1.1146 1.0351
733.011 0.9784 0.9534 0.8469 0.8452 0.9087 0.9549 1.0388 1.1055 1.1187 1.1472
771.591 1.1356 1.0617 1.0126 1.0566 1.0591 1.0341 1.0401 1.0958 1.0531 0.9312
810.170 0.8775 0.7758 0.8062 0.8616 0.8217 0.8213 0.8981 0.9088 0.9684 1.1367
848.750 1.1879 1.2402 1.1935 1.0483 0.9779 0.8702 0.7924 0.7675 0.8251 0.8304
887.330 0.7869 0.826 0.9291 1.0795 0.9952 0.8547 0.7972 0.7299 0.7227 0.7264
925.909 0.7147 0.6657 0.6821 0.714 0.6938 0.6961 0.6406 0.54769 0.56106 0.5987
964.489 0.6293 0.713 0.7211 0.6932 0.637 0.5737 0.6159 0.6071 0.5767 0.5703
1003.068 0.53995 0.52116 0.5667 0.55552 0.50377 0.5859 0.5863 0.5224 0.4393 0.4068
1041.648 0.45837 0.48812 0.3973 0.3998 0.50807 0.3923 0.308 0.356 0.3 0.4219
1080.227 0.55322 0.476353 0.467223 0.3901 0.254 0.278 0.367 0.53733 0.7211 0.758
1118.807 0.7875 0.7576 0.6993 0.6406 0.708 0.6314 0.53637 0.7695 0.9585 1.1396
1157.387 1.1715 1.0028 0.948 1.0794 1.1409 1.1028 1.2172 1.3354 1.3958 1.3925
1195.966 1.638 2.018 2.378 2.698 2.558 2.118 1.838 1.768 1.708 1.728
1234.546 1.878 2.258 2.768 2.998 2.808 2.298 1.888 1.618 1.2879 1.1601
1273.125 1.0329 0.9426 0.9311 0.9364 0.8844 0.7756 0.7424 0.761 0.7957 0.824
1311.705 0.8589 0.8985 0.8998 0.8566 0.8417 0.7931 0.7222 0.6994 0.6943 0.7353
1350.284 0.7915 0.8094 0.785 0.7902 0.842 0.9616 1.1276 1.2614 1.3003 1.2445
1388.864 1.1348 1.0072 0.9605 1.0103 1.0913 1.1297 1.1202 1.0677 0.933 0.8342
1427.443 0.777 0.7588 0.7659 0.8411 1.0236 1.2966 1.798 2.378 2.718 2.568
1466.023 2.048 1.558 1.2744 1.1696 1.1461 1.1192 1.0847 1.0713 1.0396 1.0182
1504.603 1.0595 1.1584 1.3434 1.488 1.4578 1.2755 1.0738 0.9662 0.9385 0.9344
1543.182 0.9762 0.9866 0.9925 0.9888 1.0041 1.0645 1.0715 1.0386 1.0179 1.0865
1581.762 1.2325 1.3836 1.518 1.678 1.908 2.298 2.898 3.788 4.898 6.108
1620.341 7.198 7.838 7.778 7.108 6.088 5.028 4.048 3.118 2.368 1.798
1658.921 1.4646 1.235 1.0441 0.9703 0.9197 0.8532 0.8507 0.8405 0.8309 0.8222
1697.500 0.7979 0.7721 0.7542 0.7308 0.7193 0.6838 0.6635 0.6516 0.5971 0.5686
1736.080 0.5699 0.55057 0.5067 0.475933 0.4474 0.4356 0.4422 0.4144 0.3824 0.3916
1774.659 0.388 0.3928 0.4072 0.4009 0.3949 0.4306 0.4403 0.4157 0.4396 0.4185
1813.239 0.408 0.4509 0.4445 0.4234 0.4269 0.4439 0.46121 0.46895 0.4503 0.45992
1851.819 0.469406 0.439 0.4374 0.46459 0.4573 0.4537 0.48236 0.475409 0.467168 0.503
1890.398 0.50645 0.47976 0.46386 0.4489 0.4387 0.4444 0.4471 0.4346 0.4168 0.4099
1928.978 0.4236 0.4209 0.4181 0.4024 0.4066 0.4377 0.4288 0.3942 0.3829 0.3859
1967.557 0.3956 0.4073 0.4184 0.4338 0.4284 0.4192 0.4188 0.4039 0.4047 0.4116
2006.137 0.3861 0.3783 0.3751 0.356 0.342 0.351 0.362 0.3694 0.3771 0.3733
2044.716 0.3714 0.344 0.341 0.362 0.353 0.364 0.3879 0.3833 0.356 0.343
2083.296 0.346 0.329 0.342 0.352 0.335 0.345 0.342 0.329 0.354 0.3706
2121.875 0.383 0.3785 0.356 0.355 0.33 0.314 0.315 0.31 0.32 0.329
2160.455 0.357 0.366 0.363 0.355 0.339 0.331 0.333 0.361 0.3723 0.355
2199.035 0.329 0.301 0.309 0.325 0.306 0.297 0.262 0.274 0.325 0.296
2237.614 0.267 0.281 0.28 0.275 0.309 0.34 0.341 0.338 0.351 0.3704
2276.194 0.3749 0.357 0.332 0.321 0.315 0.301 0.307 0.345 0.348 0.341
2314.773 0.345 0.347 0.316 0.279 0.307 0.32 0.325 0.324 0.334 0.343
2353.353 0.328 0.301 0.277 0.304 0.314 0.312 0.332 0.34 0.319 0.277
2391.932 0.254 0.254 0.282 0.302 0.295 0.295 0.285 0.296 0.288 0.239
2430.512 0.239 0.261 0.263 0.248 0.239 0.249 0.266 0.254 0.244 0.249
2469.092 0.243 0.27 0.293 0.287 0.269 0.247 0.237 0.257 0.256 0.239
2507.671 0.242 0.229 0.213 0.218 0.231 0.228 0.244 0.277 0.253 0.23
2546.251 0.246 0.255 0.232 0.218 0.237 0.226 0.223 0.237 0.257 0.275
2584.830 0.237 0.236 0.256 0.222 0.214 0.212 0.206 0.202 0.203 0.232
2623.410 0.241 0.22 0.228 0.258 0.249 0.239 0.248 0.251 0.224 0.227
2661.989 0.252 0.241 0.177 0.195 0.247 0.254 0.279 0.235 0.208 0.243
2700.569 0.249 0.196 0.171 0.209 0.192 0.187 0.195 0.168 0.186 0.206
2739.148 0.207 0.237 0.242 0.238 0.251 0.205 0.19 0.218 0.163 0.145
2777.728 0.193 0.161 0.162 0.226 0.255 0.248 0.236 0.209 0.178 0.173
2816.308 0.131 0.152 0.216 0.215 0.195 0.182 0.151 0.152 0.189 0.188
2854.887 0.175 0.171 0.176 0.203 0.234 0.251 0.273 0.233 0.216 0.242
2893.467 0.222 0.188 0.195 0.205 0.189 0.198 0.261 0.247 0.177 0.146
2932.046 0.141 0.213 0.24 0.184 0.157 0.16 0.139 0.129 0.119 0.116
2970.626 0.193 0.195 0.206 0.298 0.328 0.282 0.269 0.3 0.272 0.263
3009.205 0.35 0.4228 0.473863 0.5867 0.6455 0.6621 0.7052 0.7221 0.8235 0.9864
3047.785 1.0719 1.0992 0.9797 0.7132 0.54477 0.50291 0.4556 0.4495 0.4189 0.356
3086.364 0.3917 0.3965 0.32 0.257 0.19 0.172 0.188 0.224 0.235 0.175
3124.944 0.178 0.215 0.195 0.219 0.22 0.212 0.238 0.204 0.135 0.132
3163.524 0.203 0.198 0.166 0.193 0.21 0.229 0.29 0.309 0.219 0.196
3202.103 0.289 0.279 0.247 0.234 0.231 0.23 0.212 0.182 0.149 0.197
3240.683 0.215 0.193 0.272 0.27 0.175 0.226 0.21 0.185 0.233 0.236
3279.262 0.212 0.209 0.211 0.153 0.156 0.241 0.275 0.232 0.218 0.259
3317.842 0.281 0.312 0.331 0.315 0.317 0.309 0.312 0.3695 0.361 0.354
3356.421 0.4443 0.416 0.4119 0.4382 0.358 0.381 0.47874 0.467625 0.4531 0.48038
3395.001 0.52505 0.55975 0.6785 0.8569 0.8638 0.794 0.6833 0.5745 0.48784 0.3783
3433.580 0.277 0.318 0.326 0.224 0.25 0.247 0.249 0.328 0.3778 0.301
3472.160 0.285 0.353 0.336 0.332 0.3895 0.4505 0.4391 0.3793 0.346 0.332
3510.740 0.331 0.328 0.261 0.211 0.205 0.272 0.272 0.206 0.16 0.153
3549.319 0.165 0.14 0.158 0.219 0.211 0.222 0.21 0.118 0.178 0.288
3587.899 0.248 0.184 0.22 0.232 0.178 0.147 0.18 0.251 0.226 0.186
3626.478 0.22 0.232 0.23 0.234 0.267 0.285 0.273 0.277 0.286 0.287
3665.058 0.266 0.226 0.195 0.179 0.146 0.144 0.202 0.228 0.218 0.15
3703.637 0.096 0.109 0.115 0.125 0.134 0.081 0.065 0.072 0.069 0.119
3742.217 0.131 0.094 0.094 0.122 0.144 0.139 0.107 0.155 0.168 0.118
3780.797 0.124 0.142 0.21 0.192 0.15 0.149 0.112 0.165 0.162 0.131
3819.376 0.155 0.094 0.102 0.178 0.151 0.09 0.147 0.21 0.143 0.114
3857.956 0.235 0.172 0.045 0.056 0.168 0.314 0.278 0.226 0.16 0.132
3896.535 0.12 0.106 0.078 0.053 0.164 0.163 0.117 0.133 0.111 0.114
3935.115 0.132 0.157 0.144 0.061 0.063 0.064 0.095 0.09 0 0.009
3973.694 0.086 0.127 0.089 0.155 0.177 0.115 0.152 0.156
##END=
