##TITLE=Naphthol-as-bg
##JCAMP-DX=4.24
##DATA TYPE=INFRARED SPECTRUM
##ORIGIN=EPA-IR VAPOR PHASE LIBRARY
##OWNER=SRD/NIST
Collection (C) 2018 copyright by the U.S. Secretary of Commerce
on behalf of the United States of America. All rights reserved.
##CAS REGISTRY NO=92-73-9
##MOLFORM=C 19 H 17 N O 4
##$NIST SOURCE=MSDC-IR
##STATE=gas
##XUNITS=1/CM
##YUNITS=ABSORBANCE
##XFACTOR=1.
##YFACTOR=0.001
##DELTAX=1.92898
##FIRSTX=549.8
##LASTX=4000.7
##FIRSTY=0.3741
##MAXX=4000.7
##MINX=549.759
##MAXY=0.020256
##MINY=0
##NPOINTS=1790
##XYDATA=(X++(Y..Y))
549.759 0.3741 0.5724 0.691 0.5769 0.26231 0.4427 0.5015 0.1976 0.4965 0.8412
569.049 0.8941 0.8634 0.7227 0.8279 0.7906 0.675 0.5997 0.7053 0.8447 0.9623
588.339 0.9119 0.7439 0.9312 0.997 0.8104 0.9213 1.246 1.276 1.296 1.326
607.628 1.386 1.416 1.266 1.1283 1.097 1.0072 1.0538 1.2171 1.2155 1.286
626.918 1.426 1.286 0.9245 0.9242 0.9284 0.7163 0.804 1.0686 1.0875 0.9947
646.208 0.976 0.8634 0.8429 0.817 0.5546 0.5955 0.7396 0.7261 0.8324 0.8449
665.498 0.7857 0.6962 0.7121 0.7812 0.7803 0.6872 0.5986 0.6815 0.837 0.9565
684.787 0.9564 0.8497 1.0643 1.2041 1.0504 1.1858 1.336 1.376 1.376 1.436
704.077 1.626 1.716 1.746 1.736 1.726 1.726 1.616 1.556 1.566 1.466
723.367 1.436 1.506 1.626 1.746 1.876 2.206 2.916 3.586 4.046 4.436
742.657 4.176 3.426 2.606 1.986 1.636 1.286 1.0556 1.0753 1.0142 0.9424
761.947 0.9834 1.0656 1.236 1.406 1.626 1.796 1.966 2.096 1.996 1.906
781.236 1.796 1.636 1.546 1.386 1.296 1.276 1.276 1.296 1.286 1.346
800.526 1.466 1.446 1.386 1.436 1.336 1.1741 1.1112 1.0327 0.8796 0.6797
819.816 0.7456 0.8255 0.6958 0.6097 0.6343 0.6479 0.5649 0.6282 0.7581 0.7301
839.106 0.6942 0.7924 0.8667 0.8536 0.7958 0.7178 0.7533 0.985 1.1307 1.1368
858.395 1.1835 1.366 1.586 1.636 1.976 2.316 2.546 2.786 2.696 2.416
877.685 2.086 2.006 2.216 2.326 2.246 1.986 1.806 1.606 1.286 1.0647
896.975 0.8485 0.8776 0.8442 0.7207 0.6685 0.6176 0.6664 0.6483 0.5738 0.6671
916.265 0.825 0.8706 0.8377 0.6536 0.3932 0.2235 0.3884 0.5259 0.4742 0.5017
935.555 0.5792 0.6247 0.5046 0.6222 0.8464 0.8852 0.9891 0.9435 0.8617 0.9293
954.844 0.9094 0.8747 0.9644 1.0091 0.9827 0.9958 0.8693 0.7203 0.7573 0.7124
974.134 0.7187 0.7253 0.7283 0.7831 0.6611 0.6399 0.7457 0.8448 0.8468 0.9173
993.424 1.0553 1.1174 1.0828 1.1113 1.1909 1.1099 1.256 1.356 1.386 1.546
1012.714 1.636 1.686 1.716 1.996 2.166 2.136 2.216 2.426 2.626 2.616
1032.003 2.596 2.786 3.236 3.686 3.726 3.866 4.096 4.176 4.036 3.676
1051.293 3.446 3.226 2.996 2.516 2.176 1.896 1.476 1.1649 0.8215 0.8457
1070.583 0.9402 0.7234 0.7963 0.8144 0.676 0.5111 0.31876 0.7404 1.0074 1.0806
1089.873 1.0088 0.8382 0.9172 1.1504 1.0883 0.7664 0.778 0.7008 0.6934 1.0074
1109.163 1.1201 1.0029 1.007 1.0712 1.111 1.316 1.396 1.094 1.1315 1.386
1128.452 1.476 1.636 2.066 2.496 2.706 3.066 3.736 4.126 3.996 3.716
1147.742 3.206 2.456 2.016 1.996 2.046 2.166 2.366 2.696 2.886 2.986
1167.032 3.366 3.606 3.596 3.496 3.476 3.586 3.616 3.326 3.186 3.136
1186.322 3.216 3.336 3.386 3.586 3.696 3.936 4.436 5.116 5.796 6.416
1205.611 7.436 8.766 9.966 11.356 12.566 13.786 15.096 15.756 15.606 14.396
1224.901 12.516 10.546 8.796 7.146 5.916 5.056 4.396 4.056 3.776 3.666
1244.191 3.436 3.216 3.116 3.016 2.996 2.896 2.766 2.666 2.516 2.466
1263.481 2.516 2.546 2.816 3.216 3.576 3.866 4.276 4.896 5.396 5.766
1282.771 6.156 6.186 5.976 5.786 5.646 5.586 5.546 5.516 5.636 5.946
1302.060 6.226 6.446 6.706 6.966 7.006 6.856 6.656 6.336 5.936 5.486
1321.350 5.016 4.576 4.146 3.786 3.496 3.216 3.006 2.836 2.676 2.606
1340.640 2.586 2.546 2.436 2.306 2.166 2.026 1.906 1.856 1.796 1.716
1359.930 1.676 1.616 1.566 1.526 1.476 1.436 1.386 1.386 1.446 1.426
1379.219 1.406 1.446 1.436 1.476 1.526 1.546 1.626 1.686 1.746 1.816
1398.509 1.876 1.956 2.076 2.176 2.246 2.366 2.506 2.686 2.886 3.066
1417.799 3.316 3.576 3.796 4.046 4.256 4.376 4.386 4.346 4.246 4.106
1437.089 3.966 3.896 3.926 4.056 4.296 4.656 5.166 5.676 6.016 6.206
1456.378 6.186 6.006 5.796 5.686 5.786 5.986 6.256 6.586 6.876 7.136
1475.668 7.326 7.546 7.716 7.816 7.856 7.806 7.716 7.606 7.406 7.266
1494.958 7.246 7.306 7.446 7.706 7.986 8.346 8.886 9.496 10.166 10.966
1514.248 11.936 12.926 13.946 15.086 16.446 17.736 18.916 19.826 20.256 20.016
1533.538 19.116 17.646 15.766 13.566 11.496 9.686 8.146 6.936 5.946 5.166
1552.827 4.586 4.156 3.806 3.456 3.216 3.086 2.956 2.906 2.926 2.946
1572.117 2.926 2.936 2.936 2.956 3.016 3.196 3.546 3.936 4.376 4.876
1591.407 5.586 6.176 6.386 6.336 6.026 5.486 4.876 4.306 3.806 3.446
1610.697 3.156 2.896 2.736 2.676 2.636 2.556 2.486 2.476 2.466 2.446
1629.986 2.406 2.306 2.226 2.206 2.186 2.166 2.106 2.106 2.156 2.186
1649.276 2.266 2.376 2.536 2.716 2.976 3.356 3.726 4.196 4.736 5.266
1668.566 5.956 6.776 7.446 7.856 8.056 7.956 7.486 6.796 5.996 5.136
1687.856 4.346 3.636 3.096 2.696 2.346 2.056 1.836 1.616 1.496 1.366
1707.146 1.306 1.306 1.266 1.1719 1.1216 1.1457 1.1267 1.0078 0.9357 0.9405
1726.435 0.9178 0.8276 0.8092 0.8313 0.7711 0.7622 0.7336 0.7047 0.6836 0.6561
1745.725 0.6183 0.5826 0.557 0.4998 0.4899 0.5298 0.5303 0.5384 0.5456 0.5325
1765.015 0.5307 0.5246 0.528 0.5439 0.5678 0.5073 0.4721 0.4823 0.4485 0.4423
1784.305 0.429 0.3923 0.4044 0.4528 0.4201 0.407 0.4391 0.4342 0.5078 0.5339
1803.594 0.5266 0.5741 0.523 0.4544 0.4942 0.5024 0.4596 0.4749 0.4901 0.4752
1822.884 0.4614 0.4605 0.4593 0.4346 0.4279 0.4566 0.4467 0.4499 0.4638 0.4664
1842.174 0.4754 0.4455 0.3848 0.387 0.4416 0.393 0.351 0.3806 0.379 0.3748
1861.464 0.3824 0.379 0.3566 0.3279 0.33427 0.3963 0.4146 0.412 0.4108 0.4281
1880.754 0.4106 0.3888 0.3845 0.3737 0.3915 0.399 0.4114 0.3825 0.3822 0.4218
1900.043 0.3663 0.33557 0.4075 0.4389 0.4396 0.4327 0.3846 0.3825 0.4112 0.3778
1919.333 0.3806 0.4219 0.3571 0.31717 0.3533 0.31661 0.3514 0.4109 0.3804 0.3923
1938.623 0.4491 0.4476 0.4279 0.4007 0.366 0.3507 0.3588 0.3763 0.3774 0.3834
1957.913 0.3568 0.3462 0.3513 0.3621 0.4146 0.4219 0.371 0.32782 0.33427 0.3672
1977.202 0.3794 0.3534 0.3442 0.3834 0.4066 0.3974 0.4192 0.404 0.3418 0.32858
1996.492 0.32889 0.3482 0.3717 0.4074 0.4429 0.423 0.4151 0.4121 0.3978 0.4113
2015.782 0.3825 0.3532 0.3622 0.3916 0.4073 0.3793 0.3657 0.3616 0.3834 0.33592
2035.072 0.26321 0.27188 0.33 0.3816 0.3894 0.3726 0.3749 0.4077 0.4127 0.3979
2054.362 0.33265 0.30714 0.31832 0.3632 0.3877 0.3466 0.32577 0.30929 0.35 0.36
2073.651 0.3447 0.2999 0.28976 0.31047 0.28065 0.31935 0.3681 0.3558 0.32821 0.31254
2092.941 0.30729 0.31375 0.31983 0.27899 0.2648 0.30823 0.28532 0.2613 0.25487 0.32163
2112.231 0.3826 0.31607 0.31332 0.32851 0.31751 0.3405 0.31984 0.33278 0.3572 0.31328
2131.521 0.29076 0.31293 0.348 0.3364 0.3372 0.30753 0.27018 0.27568 0.26156 0.27459
2150.810 0.31652 0.3509 0.33136 0.31788 0.33425 0.3763 0.4323 0.4104 0.4076 0.388
2170.100 0.3413 0.33167 0.33181 0.3491 0.33597 0.30186 0.29661 0.29149 0.2621 0.25607
2189.390 0.26889 0.28765 0.30483 0.30761 0.30738 0.32675 0.31206 0.32831 0.3515 0.31534
2208.680 0.30344 0.28144 0.31006 0.31495 0.31317 0.31963 0.30774 0.31892 0.30644 0.32342
2227.970 0.32293 0.28821 0.31979 0.32599 0.26809 0.30772 0.27643 0.2068 0.23194 0.28285
2247.259 0.31935 0.3561 0.339 0.26302 0.2785 0.30406 0.31963 0.3494 0.3852 0.3795
2266.549 0.31203 0.238271 0.24691 0.29824 0.3097 0.3415 0.346 0.31954 0.25496 0.27396
2285.839 0.32678 0.3362 0.3519 0.32497 0.31345 0.28437 0.33456 0.3439 0.32267 0.3679
2305.129 0.3795 0.371 0.3472 0.3726 0.3778 0.32665 0.32224 0.3467 0.33245 0.30905
2324.418 0.33154 0.3504 0.31735 0.3396 0.3867 0.3995 0.4107 0.4184 0.3992 0.3499
2343.708 0.3431 0.3619 0.33501 0.3552 0.3614 0.3485 0.3464 0.28882 0.30097 0.3599
2362.998 0.3875 0.3871 0.35 0.32965 0.32368 0.33237 0.32824 0.33286 0.3375 0.32574
2382.288 0.3595 0.36 0.32624 0.3286 0.3539 0.3995 0.3678 0.3618 0.4082 0.3465
2401.578 0.31332 0.31721 0.27949 0.31573 0.395 0.3985 0.33328 0.3365 0.3691 0.3559
2420.867 0.3744 0.32666 0.30614 0.31033 0.33284 0.3534 0.3853 0.409 0.3739 0.4478
2440.157 0.4456 0.3725 0.30907 0.3333 0.3953 0.3881 0.3817 0.3853 0.4194 0.4205
2459.447 0.3954 0.32 0.27704 0.32227 0.3547 0.3427 0.3714 0.4293 0.4354 0.3801
2478.737 0.3997 0.4138 0.3652 0.4088 0.4441 0.4118 0.4611 0.5028 0.4357 0.4184
2498.026 0.3483 0.33012 0.4153 0.3687 0.31571 0.3932 0.3825 0.309 0.30809 0.3369
2517.316 0.3755 0.3996 0.4175 0.3613 0.3952 0.394 0.26413 0.28473 0.3499 0.3907
2536.606 0.4049 0.4316 0.4532 0.4439 0.4814 0.4371 0.33433 0.26457 0.33149 0.3837
2555.896 0.3765 0.4463 0.4695 0.4258 0.3835 0.3599 0.3885 0.396 0.3535 0.3934
2575.186 0.4468 0.3949 0.3398 0.3848 0.4342 0.4224 0.4011 0.3997 0.4621 0.5127
2594.475 0.4813 0.4345 0.3989 0.3789 0.4024 0.3833 0.3663 0.3965 0.3551 0.4267
2613.765 0.5161 0.4668 0.3918 0.32608 0.3562 0.3899 0.3373 0.31683 0.3737 0.3648
2633.055 0.33489 0.4314 0.5117 0.4692 0.4529 0.4907 0.4757 0.44 0.4067 0.42
2652.345 0.4935 0.5388 0.5364 0.5815 0.5167 0.4306 0.4025 0.33525 0.3641 0.4644
2671.634 0.4587 0.33032 0.31955 0.3693 0.404 0.4681 0.4714 0.3787 0.3895 0.4016
2690.924 0.3716 0.3879 0.3588 0.4771 0.5711 0.461 0.432 0.5229 0.4867 0.4445
2710.214 0.3828 0.3636 0.4772 0.4443 0.4312 0.4212 0.3549 0.3936 0.442 0.4262
2729.504 0.4206 0.4797 0.4955 0.4778 0.4887 0.5412 0.5045 0.4181 0.4133 0.4476
2748.794 0.5559 0.5818 0.516 0.4921 0.5398 0.4881 0.3464 0.3632 0.4163 0.4025
2768.083 0.4873 0.5494 0.5259 0.5226 0.5435 0.5606 0.4917 0.4504 0.5749 0.6186
2787.373 0.5436 0.5982 0.6505 0.6346 0.5789 0.6161 0.658 0.6703 0.7501 0.6764
2806.663 0.5669 0.6017 0.6058 0.6316 0.6972 0.753 0.8021 0.8289 0.8167 0.7992
2825.953 0.9276 1.0174 1.0284 1.0862 1.1257 1.1441 1.276 1.446 1.556 1.646
2845.242 1.706 1.696 1.676 1.566 1.376 1.2025 1.1319 1.0497 1.0367 0.9355
2864.532 0.8659 1.0484 1.1121 1.0653 1.0048 0.9706 0.972 0.9662 1.0603 1.1256
2883.822 1.1104 1.0257 0.9978 1.0062 1.028 1.1133 1.0995 1.1203 1.1679 1.1681
2903.112 1.1261 1.1686 1.2145 1.276 1.416 1.516 1.446 1.386 1.416 1.356
2922.401 1.436 1.556 1.536 1.466 1.506 1.586 1.596 1.646 1.796 1.916
2941.691 1.996 2.206 2.426 2.516 2.506 2.446 2.366 2.376 2.456 2.366
2960.981 2.156 2.036 1.856 1.716 1.676 1.626 1.546 1.466 1.496 1.496
2980.271 1.436 1.366 1.266 1.336 1.386 1.396 1.376 1.436 1.636 1.816
2999.561 1.946 2.046 2.236 2.436 2.456 2.486 2.416 2.106 1.826 1.686
3018.850 1.646 1.556 1.466 1.376 1.286 1.266 1.316 1.436 1.526 1.536
3038.140 1.536 1.606 1.616 1.546 1.516 1.636 1.796 1.916 1.996 2.056
3057.430 2.196 2.446 2.566 2.536 2.516 2.426 2.286 2.186 2.166 2.216
3076.720 2.086 2.026 2.046 1.996 1.996 1.906 1.936 1.876 1.686 1.756
3096.009 1.856 1.846 1.746 1.676 1.586 1.456 1.476 1.576 1.616 1.536
3115.299 1.476 1.486 1.476 1.476 1.506 1.526 1.506 1.466 1.566 1.656
3134.589 1.626 1.686 1.736 1.726 1.736 1.666 1.646 1.726 1.616 1.606
3153.879 1.676 1.656 1.636 1.576 1.536 1.676 1.716 1.696 1.666 1.676
3173.169 1.726 1.566 1.616 1.726 1.606 1.566 1.556 1.446 1.456 1.636
3192.458 1.686 1.676 1.616 1.526 1.576 1.496 1.406 1.496 1.546 1.456
3211.748 1.526 1.546 1.446 1.446 1.396 1.446 1.526 1.556 1.576 1.546
3231.038 1.456 1.396 1.346 1.406 1.456 1.496 1.556 1.656 1.576 1.396
3250.328 1.426 1.476 1.486 1.466 1.426 1.366 1.416 1.526 1.566 1.456
3269.617 1.466 1.496 1.456 1.516 1.416 1.256 1.316 1.346 1.326 1.406
3288.907 1.346 1.316 1.376 1.306 1.236 1.236 1.326 1.356 1.356 1.426
3308.197 1.386 1.1899 1.2144 1.406 1.2301 1.1428 1.2277 1.306 1.336 1.346
3327.487 1.306 1.2224 1.256 1.286 1.336 1.306 1.2265 1.256 1.276 1.266
3346.777 1.1985 1.004 1.0466 1.1566 1.1247 1.2137 1.2345 1.1395 1.1508 1.2328
3366.066 1.2039 1.1118 1.0926 1.1005 1.154 1.1906 1.0818 0.9888 1.0014 1.003
3385.356 0.9386 0.9271 0.9894 1.038 1.0249 1.0406 0.9737 0.9444 1.0289 1.0276
3404.646 1.039 1.0418 1.0009 0.9877 1.0991 1.1832 1.0936 0.9941 1.079 1.066
3423.936 0.9786 1.1111 1.256 1.0817 1.114 1.286 1.376 1.596 1.736 1.906
3443.225 2.026 1.946 1.976 2.056 2.006 1.816 1.426 1.215 1.1898 1.032
3462.515 0.8464 0.817 0.8255 0.8285 0.7831 0.7174 0.8136 0.7692 0.6222 0.5759
3481.805 0.5876 0.7122 0.7573 0.7069 0.6772 0.6 0.5365 0.6234 0.6363 0.5743
3501.095 0.5825 0.4879 0.4306 0.4787 0.533 0.533 0.4321 0.4229 0.5343 0.4463
3520.385 0.2858 0.31747 0.4176 0.4935 0.4525 0.4299 0.5546 0.5675 0.4651 0.5282
3539.674 0.5652 0.5982 0.5541 0.4285 0.4556 0.4406 0.30371 0.28838 0.31384 0.27061
3558.964 0.23003 0.25972 0.3444 0.32341 0.3481 0.3924 0.4862 0.543 0.4178 0.4519
3578.254 0.62 0.5508 0.441 0.4624 0.5537 0.5547 0.5828 0.4614 0.27148 0.2099
3597.544 0.136 0.245915 0.4163 0.4825 0.4756 0.4655 0.3462 0.2832 0.3462 0.4016
3616.833 0.31086 0.235966 0.27303 0.3657 0.3107 0.28418 0.3765 0.4709 0.5001 0.3752
3636.123 0.3771 0.3718 0.4011 0.374 0.31897 0.3564 0.5077 0.4785 0.33213 0.4624
3655.413 0.4495 0.3715 0.30689 0.27362 0.451 0.5045 0.4732 0.4974 0.4528 0.4078
3674.703 0.374 0.4156 0.4151 0.4177 0.3562 0.3643 0.4095 0.25928 0.1939 0.1767
3693.993 0.193 0.242462 0.27729 0.29782 0.3462 0.28212 0.2799 0.3423 0.385 0.508
3713.282 0.5636 0.4545 0.4235 0.4321 0.30308 0.1776 0.1893 0.31104 0.2226 0.25457
3732.572 0.4254 0.3548 0.26948 0.27085 0.27371 0.35 0.31833 0.33014 0.32423 0.1994
3751.862 0.1808 0.2082 0.239428 0.30263 0.4763 0.5325 0.4139 0.3686 0.3674 0.28279
3771.152 0.29707 0.30548 0.30094 0.3607 0.33445 0.405 0.4379 0.24601 0.1656 0.23059
3790.441 0.240422 0.25806 0.2127 0.1703 0.26336 0.4031 0.3899 0.3768 0.3543 0.372
3809.731 0.4942 0.4742 0.504 0.4068 0.24626 0.1438 0.128 0.26099 0.33344 0.241449
3829.021 0.2171 0.29477 0.2724 0.27982 0.33494 0.27587 0.1907 0.211 0.1616 0.1636
3848.311 0.30878 0.4571 0.5658 0.589 0.5582 0.4792 0.496 0.3931 0.008 0
3867.601 0.30764 0.27349 0.2006 0.32372 0.32022 0.3483 0.4086 0.25716 0.25561 0.31322
3886.890 0.1958 0.1815 0.26516 0.404 0.33469 0.134 0.074 0.189 0.3856 0.5226
3906.180 0.4127 0.32517 0.25757 0.1493 0.242236 0.32125 0.29616 0.27915 0.4179 0.4791
3925.470 0.496 0.6081 0.6209 0.5808 0.4544 0.3913 0.3906 0.4079 0.434 0.4288
3944.760 0.534 0.7489 0.7617 0.4756 0.27019 0.2087 0.26611 0.4465 0.4304 0.4271
3964.049 0.3386 0.32585 0.49 0.4201 0.3499 0.2251 0.1733 0.26345 0.4063 0.4295
3983.339 0.29676 0.3736 0.5741 0.555 0.4437 0.3932 0.3621 0.26598 0.1444 0.052
##END=
