##TITLE=2,5-Diphenyloxazole
##JCAMP-DX=4.24
##DATA TYPE=INFRARED SPECTRUM
##ORIGIN=NIST Mass Spectrometry Data Center
##OWNER=NIST Standard Reference Data Program
Collection (C) 2018 copyright by the U.S. Secretary of Commerce
on behalf of the United States of America. All rights reserved.
##CAS REGISTRY NO=92-71-7
##MOLFORM=C 15 H 11 N O
##$NIST SOURCE=MSDC-IR
##SPECTROMETER/DATA SYSTEM=HP-GC/MS/IRD
##STATE=gas
##XUNITS=1/CM
##YUNITS=ABSORBANCE
##XFACTOR=1.0
##YFACTOR=0.000001500
##DELTAX=4.0
##FIRSTX=550.0
##LASTX=3846.0
##FIRSTY=0.000278
##MAXX=3846
##MINX=550
##MAXY=0.015
##MINY=0
##NPOINTS=825
##XYDATA=(X++(Y..Y))
550.0 185 250 188 201 200 125 126 179 103 85
590.0 109 73 44 15 43 93 83 101 141 144
630.0 201 266 331 389 438 600 857 1178 1512 1850
670.0 2334 3055 4138 5444 6904 7684 7702 8454 9661 10000
710.0 9468 8462 6760 4831 3169 2156 1697 1586 1755 2235
750.0 3023 3918 4522 4532 4296 4105 3684 2916 2130 1431
790.0 978 736 579 492 497 524 623 959 1428 1839
830.0 2043 1900 1480 998 642 422 348 309 265 256
870.0 252 253 314 403 461 458 389 382 441 507
910.0 584 633 665 698 757 817 916 1147 1589 2364
950.0 3003 3061 2562 1706 1000 627 452 383 383 429
990.0 468 508 576 601 672 841 1150 1816 2801 3400
1030.0 2888 1734 1009 948 1226 1746 2392 2992 3211 2924
1070.0 2290 1569 1044 789 747 865 1057 1116 1017 926
1110.0 1072 1602 2602 4033 5256 5465 4630 3358 2189 1340
1150.0 832 630 553 485 481 593 792 912 800 558
1190.0 355 251 215 192 194 209 203 229 331 416
1230.0 482 545 526 441 349 282 252 258 284 341
1270.0 437 535 563 539 501 469 465 456 435 440
1310.0 484 568 669 760 841 952 1118 1370 1569 1407
1350.0 949 569 389 324 331 361 375 373 345 283
1390.0 243 218 205 234 281 336 400 493 595 650
1430.0 690 800 1168 1896 2585 2635 2042 1477 1409 1697
1470.0 2279 3264 4528 5701 6541 6773 5950 4103 2223 1128
1510.0 717 621 587 636 785 994 1307 1796 2458 2988
1550.0 2973 2420 1739 1365 1310 1374 1427 1480 1711 2042
1590.0 2072 1664 1188 1009 1096 1240 1233 1007 721 534
1630.0 449 411 434 506 601 701 774 826 790 694
1670.0 584 448 335 247 214 240 214 148 121 118
1710.0 120 110 111 157 204 221 236 268 266 248
1750.0 228 230 220 192 181 175 202 214 210 256
1790.0 333 415 467 484 472 419 363 300 238 195
1830.0 179 190 186 156 140 138 160 207 247 272
1870.0 295 347 418 494 531 500 437 381 323 247
1910.0 182 156 169 203 243 302 387 480 541 563
1950.0 586 610 604 535 409 264 164 114 75 68
1990.0 55 52 51 40 43 39 38 39 34 31
2030.0 29 31 31 26 34 55 77 74 66 69
2070.0 65 52 44 38 29 28 32 32 34 31
2110.0 5 0 6 23 35 24 10 17 29 31
2150.0 27 37 51 47 60 70 69 72 82 88
2190.0 72 64 75 65 37 31 40 44 38 35
2230.0 33 45 47 40 45 52 50 54 52 44
2270.0 54 71 82 78 70 72 74 86 94 91
2310.0 110 148 154 130 108 105 113 119 120 98
2350.0 86 103 97 79 58 52 64 68 67 65
2390.0 64 68 70 85 94 101 111 95 82 83
2430.0 70 60 52 35 22 21 15 21 33 22
2470.0 25 40 49 41 28 32 41 41 47 67
2510.0 81 71 66 53 44 35 33 63 69 71
2550.0 81 94 102 92 91 83 72 74 74 84
2590.0 89 112 148 162 177 183 167 146 139 119
2630.0 111 110 100 100 98 102 105 111 119 157
2670.0 177 175 178 146 124 122 101 75 65 54
2710.0 59 64 68 69 69 67 80 111 100 67
2750.0 70 86 84 82 84 92 108 91 70 52
2790.0 59 55 51 83 98 88 103 138 162 178
2830.0 173 153 137 138 150 134 124 130 134 138
2870.0 150 152 161 171 151 154 157 139 133 134
2910.0 136 141 131 118 120 130 136 135 140 169
2950.0 167 147 142 133 153 165 178 216 208 217
2990.0 244 281 350 430 506 602 726 897 1105 1338
3030.0 1626 1935 2240 2506 2684 2805 2954 3268 3875 4800
3070.0 5879 6499 6035 4880 3955 3389 2910 2410 1925 1564
3110.0 1306 1102 959 931 1008 1077 1019 859 695 589
3150.0 518 424 347 273 241 225 187 169 144 115
3190.0 123 133 137 120 101 98 95 106 106 84
3230.0 78 80 60 61 52 31 35 58 72 73
3270.0 95 122 79 32 50 70 73 54 38 42
3310.0 38 39 57 67 98 87 53 56 51 64
3350.0 68 41 13 14 22 69 113 95 87 94
3390.0 78 88 78 52 46 62 84 68 62 60
3430.0 43 40 64 63 43 53 63 48 65 91
3470.0 80 73 47 60 110 94 67 44 33 47
3510.0 34 13 37 67 66 71 75 80 55 37
3550.0 54 53 35 37 21 30 79 80 72 52
3590.0 53 83 105 94 80 69 32 39 57 47
3630.0 40 70 101 75 60 90 100 93 79 80
3670.0 88 77 79 94 92 77 98 73 67 108
3710.0 94 83 71 50 68 102 92 134 132 82
3750.0 80 78 89 113 140 97 71 73 60 90
3790.0 104 81 45 45 82 85 81 97 94 63
3830.0 54 60 57 71 66
##END=
