##TITLE=Thianthrene
##JCAMP-DX=4.24
##DATA TYPE=INFRARED SPECTRUM
##ORIGIN=NIST Mass Spectrometry Data Center
##OWNER=NIST Standard Reference Data Program
Collection (C) 2018 copyright by the U.S. Secretary of Commerce
on behalf of the United States of America. All rights reserved.
##CAS REGISTRY NO=92-85-3
##MOLFORM=C 12 H 8 S 2
##$NIST SOURCE=MSDC-IR
##SPECTROMETER/DATA SYSTEM=HP-GC/MS/IRD
##STATE=gas
##XUNITS=1/CM
##YUNITS=ABSORBANCE
##XFACTOR=1.0
##YFACTOR=0.000002400
##DELTAX=4.0
##FIRSTX=550.0
##LASTX=3846.0
##FIRSTY=0.000523
##MAXX=3846
##MINX=550
##MAXY=0.024
##MINY=0
##NPOINTS=825
##XYDATA=(X++(Y..Y))
550.0 218 203 153 112 84 67 51 30 44 73
590.0 17 0 61 93 87 73 84 102 91 89
630.0 116 134 118 138 204 286 466 734 932 937
670.0 713 419 263 215 210 230 232 203 202 225
710.0 268 305 360 493 860 1744 3754 6551 9188 10000
750.0 7521 4467 2377 1018 458 266 186 134 120 150
790.0 174 156 132 96 69 56 85 131 138 132
830.0 109 94 101 143 166 158 138 101 58 43
870.0 50 49 55 70 79 79 85 88 70 59
910.0 63 65 73 88 114 158 204 189 146 129
950.0 125 113 99 97 116 137 156 170 173 154
990.0 125 114 110 112 119 151 258 486 760 890
1030.0 835 591 342 241 230 238 226 209 191 165
1070.0 141 129 141 196 293 501 953 1591 2039 2017
1110.0 1505 827 419 250 198 193 197 217 233 233
1150.0 242 228 205 173 129 95 65 57 55 46
1190.0 48 49 41 29 20 36 55 76 85 85
1230.0 116 162 250 395 632 915 1033 982 774 477
1270.0 294 196 129 94 78 62 49 36 35 36
1310.0 26 19 28 44 56 65 64 53 49 60
1350.0 99 149 177 164 135 110 100 113 146 170
1390.0 189 233 287 349 417 492 630 901 1391 2063
1430.0 2880 4138 5597 6360 6083 4684 2955 1765 1060 687
1470.0 523 428 369 352 343 322 283 227 173 122
1510.0 94 89 87 92 107 116 117 128 190 328
1550.0 516 674 701 592 412 293 265 259 263 269
1590.0 288 316 319 278 207 131 79 46 31 28
1630.0 23 17 20 24 21 15 12 41 78 116
1670.0 169 223 243 201 142 100 70 59 83 117
1710.0 128 110 74 49 36 21 10 19 28 25
1750.0 22 31 45 51 64 91 134 186 231 251
1790.0 235 197 138 97 92 107 144 183 191 165
1830.0 122 68 30 21 24 41 66 90 125 163
1870.0 177 153 116 100 114 148 210 262 283 266
1910.0 216 156 118 123 158 218 276 290 255 182
1950.0 106 56 33 23 24 28 27 27 27 28
1990.0 30 35 31 26 30 35 27 16 17 20
2030.0 19 13 7 12 15 12 11 12 7 8
2070.0 11 13 15 13 12 14 13 15 23 26
2110.0 22 18 17 16 10 4 5 9 7 7
2150.0 9 11 18 22 20 14 16 24 16 13
2190.0 12 4 10 20 16 10 13 13 11 9
2230.0 11 15 11 11 17 20 24 25 24 32
2270.0 36 43 51 47 45 44 43 38 37 38
2310.0 38 46 57 54 40 20 16 9 7 15
2350.0 22 22 12 6 0 2 11 17 20 19
2390.0 19 24 24 22 24 29 36 40 38 39
2430.0 42 46 41 30 28 25 20 16 10 11
2470.0 20 18 10 10 19 27 23 22 30 37
2510.0 35 32 33 38 48 57 67 79 94 97
2550.0 85 76 62 48 40 41 40 31 33 40
2590.0 41 37 32 32 40 52 52 45 43 37
2630.0 33 23 18 22 18 17 13 11 15 23
2670.0 22 22 22 18 22 31 30 26 25 21
2710.0 18 23 19 16 14 11 13 9 10 15
2750.0 13 8 8 5 8 7 7 8 0 8
2790.0 10 8 7 13 22 19 21 28 27 23
2830.0 27 30 22 20 18 17 20 25 29 20
2870.0 15 14 8 17 24 19 16 10 8 14
2910.0 6 5 22 21 14 14 16 23 26 28
2950.0 35 43 56 68 72 82 100 126 150 184
2990.0 205 199 205 194 165 155 144 132 131 139
3030.0 148 163 205 288 438 720 1242 2059 3087 3855
3070.0 3903 3188 2127 1270 756 461 315 239 217 230
3110.0 256 284 326 357 347 300 224 161 122 86
3150.0 66 60 48 38 36 29 20 13 17 25
3190.0 25 22 24 22 13 16 25 28 23 22
3230.0 33 33 27 30 24 15 14 14 16 24
3270.0 17 13 10 8 22 27 16 14 16 21
3310.0 23 12 2 0 3 11 15 21 26 24
3350.0 17 6 9 24 30 28 23 21 27 23
3390.0 17 24 14 5 19 22 12 10 10 19
3430.0 21 22 16 13 16 10 17 23 28 36
3470.0 26 19 21 18 27 37 27 16 11 4
3510.0 4 15 23 15 7 12 13 8 2 14
3550.0 23 26 21 15 18 14 21 24 19 15
3590.0 6 10 18 22 15 10 12 18 30 14
3630.0 3 13 25 38 14 2 29 35 29 32
3670.0 18 22 29 22 18 25 27 29 39 36
3710.0 39 45 41 31 32 44 50 62 52 31
3750.0 25 28 37 44 41 27 40 56 48 54
3790.0 64 63 62 61 77 93 83 71 64 55
3830.0 47 38 31 23 38
##END=
