##TITLE=Xanthene
##JCAMP-DX=4.24
##DATA TYPE=INFRARED SPECTRUM
##ORIGIN=NIST Mass Spectrometry Data Center
##OWNER=NIST Standard Reference Data Program
Collection (C) 2018 copyright by the U.S. Secretary of Commerce
on behalf of the United States of America. All rights reserved.
##CAS REGISTRY NO=92-83-1
##MOLFORM=C 13 H 10 O
##$NIST SOURCE=MSDC-IR
##SPECTROMETER/DATA SYSTEM=HP-GC/MS/IRD
##STATE=gas
##XUNITS=1/CM
##YUNITS=ABSORBANCE
##XFACTOR=1.0
##YFACTOR=0.000003500
##DELTAX=4.0
##FIRSTX=550.0
##LASTX=3846.0
##FIRSTY=0.000525
##MAXX=3846
##MINX=550
##MAXY=0.035
##MINY=0
##NPOINTS=825
##XYDATA=(X++(Y..Y))
550.0 150 51 20 57 44 14 0 9 20 45
590.0 76 101 106 94 110 137 156 141 88 67
630.0 63 55 54 46 19 8 20 41 56 62
670.0 76 98 108 123 166 227 289 360 423 468
710.0 494 481 446 424 458 623 982 1546 2218 2971
750.0 3564 3428 2730 1998 1335 837 539 384 342 357
790.0 368 362 331 247 164 115 98 100 115 131
830.0 132 138 145 158 171 177 190 205 227 251
870.0 290 380 531 788 1129 1318 1249 959 541 258
910.0 162 131 119 122 114 103 99 95 95 111
950.0 127 141 156 157 142 122 106 94 85 85
990.0 94 96 86 80 82 88 97 130 214 316
1030.0 357 321 240 146 93 80 84 87 99 106
1070.0 111 137 191 318 492 616 642 551 414 357
1110.0 393 436 433 410 341 259 217 187 179 187
1150.0 202 229 267 301 341 405 515 671 893 1155
1190.0 1301 1249 1042 759 595 609 740 978 1282 1537
1230.0 1654 1770 2193 3242 5106 7482 9390 10000 9005 6840
1270.0 4602 2950 2011 1643 1576 1606 1569 1361 994 636
1310.0 423 322 268 250 269 324 367 367 315 221
1350.0 149 130 136 154 171 183 204 236 270 283
1390.0 274 247 228 224 213 200 192 200 228 271
1430.0 344 471 720 1180 1895 2857 3788 4226 4071 3643
1470.0 3594 4398 5217 5225 4390 3046 2067 1680 1439 1130
1510.0 799 572 467 421 381 345 307 281 279 288
1550.0 307 345 406 523 763 1165 1577 1739 1588 1191
1590.0 800 682 713 729 662 523 385 297 249 213
1630.0 181 146 120 101 89 75 70 79 92 106
1670.0 113 117 119 116 112 104 92 81 69 58
1710.0 52 44 41 38 32 27 28 33 43 57
1750.0 67 78 91 99 102 104 105 104 102 100
1790.0 87 79 85 86 89 93 89 83 75 56
1830.0 46 49 57 70 77 86 87 77 60 50
1870.0 54 67 86 108 122 131 128 116 99 80
1910.0 69 69 87 119 153 158 134 99 65 40
1950.0 28 28 34 29 26 36 45 57 66 71
1990.0 75 75 71 63 52 46 45 39 32 28
2030.0 24 22 17 17 21 25 29 27 26 27
2070.0 27 28 32 32 34 32 30 31 34 40
2110.0 52 61 69 66 57 53 50 42 28 20
2150.0 15 10 6 9 8 6 7 9 10 9
2190.0 12 18 18 20 28 27 22 20 14 9
2230.0 5 0 3 4 3 5 6 5 1 4
2270.0 10 15 15 16 19 21 20 26 33 34
2310.0 34 31 29 23 18 19 16 13 17 21
2350.0 26 30 31 30 31 37 45 42 40 41
2390.0 38 35 33 35 33 35 37 34 38 48
2430.0 51 60 75 88 94 97 95 91 91 90
2470.0 91 96 93 82 73 64 52 47 52 51
2510.0 42 38 33 29 28 28 29 29 31 43
2550.0 50 51 52 53 56 59 61 60 65 73
2590.0 69 57 46 41 36 30 27 27 29 31
2630.0 32 30 24 22 30 35 33 30 27 30
2670.0 29 25 25 27 27 26 29 32 32 31
2710.0 32 27 25 27 26 30 36 40 35 35
2750.0 38 39 40 42 47 49 52 55 53 58
2790.0 66 64 67 74 80 85 95 111 136 165
2830.0 205 253 281 289 278 254 227 210 213 228
2870.0 249 266 279 293 302 304 310 315 312 315
2910.0 323 315 296 276 262 252 239 231 218 201
2950.0 179 152 128 111 92 84 84 77 71 72
2990.0 80 81 87 106 140 194 267 359 479 603
3030.0 683 754 811 845 877 889 859 808 792 865
3070.0 1003 1130 1195 1180 1065 867 644 439 290 205
3110.0 156 124 107 95 86 83 75 63 52 48
3150.0 48 43 39 45 50 45 39 45 51 43
3190.0 34 35 35 32 36 35 27 23 20 19
3230.0 23 29 32 28 24 20 18 20 9 10
3270.0 19 12 13 18 22 28 30 23 17 22
3310.0 30 27 20 25 24 17 19 16 14 20
3350.0 20 11 10 16 16 16 24 20 19 17
3390.0 7 8 19 22 10 10 12 8 18 21
3430.0 17 19 21 23 13 7 10 10 12 11
3470.0 12 20 18 10 7 10 16 13 5 3
3510.0 10 8 7 6 4 6 5 7 6 8
3550.0 12 11 15 15 12 9 0 4 16 12
3590.0 6 11 16 14 12 17 22 14 12 3
3630.0 3 22 18 12 16 12 13 21 20 23
3670.0 26 20 15 19 24 19 21 23 17 16
3710.0 12 15 20 12 7 17 26 26 19 12
3750.0 13 22 30 27 24 23 27 28 34 32
3790.0 22 11 14 32 35 24 27 33 25 21
3830.0 23 21 26 28 31
##END=
