##TITLE=Benzidine
##JCAMP-DX=4.24
##DATA TYPE=INFRARED SPECTRUM
##ORIGIN=NIST Mass Spectrometry Data Center
##OWNER=NIST Standard Reference Data Program
Collection (C) 2018 copyright by the U.S. Secretary of Commerce
on behalf of the United States of America. All rights reserved.
##CAS REGISTRY NO=92-87-5
##MOLFORM=C 12 H 12 N 2
##$NIST SOURCE=MSDC-IR
##SPECTROMETER/DATA SYSTEM=HP-GC/MS/IRD
##STATE=gas
##XUNITS=1/CM
##YUNITS=ABSORBANCE
##XFACTOR=1.0
##YFACTOR=0.000004700
##DELTAX=4.0
##FIRSTX=550.0
##LASTX=3846.0
##FIRSTY=0.002740
##MAXX=3846
##MINX=550
##MAXY=0.047
##MINY=0
##NPOINTS=825
##XYDATA=(X++(Y..Y))
550.0 583 458 367 359 340 335 327 325 348 382
590.0 400 420 450 465 477 503 553 612 699 827
630.0 982 1202 1503 1882 2285 2585 2666 2541 2298 2037
670.0 1832 1686 1581 1500 1434 1366 1282 1192 1066 939
710.0 840 761 701 652 619 585 560 544 522 509
750.0 502 499 511 534 568 613 668 736 817 933
790.0 1105 1343 1638 1980 2313 2538 2570 2385 2061 1699
830.0 1366 1094 883 715 590 500 428 369 324 290
870.0 267 242 236 235 222 202 175 145 116 104
910.0 96 94 93 90 90 92 90 93 98 109
950.0 114 103 99 102 101 106 119 132 132 126
990.0 124 152 206 240 239 203 167 158 156 159
1030.0 161 169 177 202 239 264 286 306 321 339
1070.0 361 367 364 358 342 328 321 313 299 290
1110.0 295 311 342 378 393 366 325 264 197 152
1150.0 117 116 154 224 365 757 1403 1740 1496 821
1190.0 281 113 63 47 49 56 66 85 108 141
1230.0 193 280 402 600 909 1386 2132 3301 4766 5795
1270.0 5712 4535 2983 1806 1090 685 470 329 216 140
1310.0 103 86 81 84 84 83 83 78 76 72
1350.0 66 58 43 27 19 13 8 5 2 0
1390.0 9 15 23 39 48 56 61 65 86 105
1430.0 119 140 182 251 333 411 463 504 545 556
1470.0 526 512 602 874 1509 2978 5832 9057 10000 7815
1510.0 4155 1692 896 636 513 448 395 354 329 317
1550.0 304 285 282 304 337 370 414 493 607 759
1590.0 941 1126 1308 1536 1893 2511 3496 4777 5834 6014
1630.0 5134 3671 2360 1554 1117 862 697 586 496 420
1670.0 364 320 292 262 250 246 233 221 213 206
1710.0 197 177 155 147 133 115 111 128 146 157
1750.0 152 137 112 92 75 63 61 59 57 59
1790.0 60 63 68 66 68 65 59 64 66 67
1830.0 74 85 100 105 113 132 155 181 207 229
1870.0 246 247 229 201 171 148 127 113 110 114
1910.0 123 133 132 131 129 121 109 98 93 91
1950.0 87 86 87 87 86 86 90 89 85 81
1990.0 79 82 84 92 100 104 106 108 105 100
2030.0 101 102 109 118 123 125 127 131 136 135
2070.0 131 130 126 123 126 125 121 122 120 118
2110.0 114 110 106 98 98 97 96 94 93 97
2150.0 99 94 93 92 93 93 92 92 94 91
2190.0 92 91 87 86 84 90 93 92 96 95
2230.0 92 89 90 94 101 109 114 115 112 115
2270.0 120 121 121 120 118 117 119 120 121 118
2310.0 116 117 122 125 124 125 127 125 122 117
2350.0 112 107 105 105 104 100 102 102 99 99
2390.0 98 98 99 100 100 102 106 103 106 113
2430.0 111 112 114 114 118 122 121 117 109 102
2470.0 98 94 92 91 89 92 97 96 99 102
2510.0 104 111 117 123 132 137 143 147 148 143
2550.0 137 129 116 109 110 108 108 110 110 108
2590.0 110 114 117 118 122 122 120 118 113 107
2630.0 109 116 118 111 110 108 105 109 109 110
2670.0 109 112 110 106 109 112 115 116 109 104
2710.0 98 96 104 101 95 98 105 104 101 106
2750.0 104 101 107 114 108 102 102 107 109 106
2790.0 102 102 101 102 94 94 99 104 105 102
2830.0 107 112 120 122 121 121 127 131 130 128
2870.0 132 142 145 152 160 160 165 167 153 138
2910.0 141 138 131 127 120 124 128 131 136 142
2950.0 147 154 164 172 184 207 236 268 329 420
2990.0 532 639 709 743 786 863 977 1171 1538 2074
3030.0 2495 2473 1987 1370 1011 914 916 923 889 815
3070.0 724 641 579 544 513 481 450 408 365 329
3110.0 292 255 240 232 211 204 199 190 185 173
3150.0 156 143 138 130 127 130 124 120 125 129
3190.0 130 137 143 155 168 173 174 174 169 174
3230.0 180 180 178 168 161 150 143 138 129 126
3270.0 119 113 110 101 106 112 107 106 104 105
3310.0 102 107 110 106 107 107 110 112 117 120
3350.0 130 135 135 145 157 172 186 211 249 296
3390.0 374 480 602 711 773 800 766 667 494 328
3430.0 252 225 202 187 187 199 204 219 245 272
3470.0 303 335 374 406 427 445 445 429 393 343
3510.0 298 257 206 173 159 148 136 130 129 113
3550.0 110 122 112 99 90 98 110 110 112 105
3590.0 101 99 92 96 95 89 95 97 101 95
3630.0 93 112 121 113 102 99 107 117 118 113
3670.0 105 105 110 109 109 112 119 121 120 111
3710.0 101 106 115 109 101 103 97 106 104 85
3750.0 92 104 108 110 106 105 105 104 103 103
3790.0 104 105 104 105 112 117 107 106 117 123
3830.0 122 118 124 133 136
##END=
