##TITLE=4,4'-Dibromobiphenyl
##JCAMP-DX=4.24
##DATA TYPE=INFRARED SPECTRUM
##ORIGIN=NIST Mass Spectrometry Data Center
##OWNER=NIST Standard Reference Data Program
Collection (C) 2018 copyright by the U.S. Secretary of Commerce
on behalf of the United States of America. All rights reserved.
##CAS REGISTRY NO=92-86-4
##MOLFORM=C 12 H 8 Br 2
##$NIST SOURCE=MSDC-IR
##SPECTROMETER/DATA SYSTEM=HP-GC/MS/IRD
##STATE=gas
##XUNITS=1/CM
##YUNITS=ABSORBANCE
##XFACTOR=1.0
##YFACTOR=0.000001900
##DELTAX=4.0
##FIRSTX=550.0
##LASTX=3846.0
##FIRSTY=0.000650
##MAXX=3846
##MINX=550
##MAXY=0.019
##MINY=0
##NPOINTS=825
##XYDATA=(X++(Y..Y))
550.0 342 267 179 126 95 141 142 111 97 67
590.0 87 80 60 65 47 35 64 79 74 97
630.0 132 168 181 162 163 178 182 239 314 675
670.0 1842 2595 1640 553 300 265 205 164 184 227
710.0 252 258 241 216 198 180 167 147 179 256
750.0 330 410 430 412 421 401 356 357 429 631
790.0 1002 1644 2695 3988 5223 5803 5338 4295 3129 2184
830.0 1619 1313 1138 966 797 624 451 328 263 247
870.0 257 229 165 120 109 131 154 180 170 145
910.0 136 106 90 83 85 112 121 123 115 90
950.0 93 151 191 171 155 180 232 300 392 600
990.0 1151 2545 6238 10000 8317 4809 4164 3397 1708 774
1030.0 582 620 692 722 707 713 852 1131 1814 3624
1070.0 6049 7150 6928 5575 2996 1212 750 659 628 584
1110.0 534 457 374 307 269 228 189 175 162 156
1150.0 142 168 201 193 167 162 169 157 142 104
1190.0 77 61 59 73 104 165 270 383 405 307
1230.0 201 133 84 46 33 36 24 19 20 15
1270.0 10 8 0 3 26 50 55 57 67 74
1310.0 97 119 141 153 152 175 215 262 280 290
1350.0 307 308 313 348 405 501 628 755 824 800
1390.0 692 568 452 349 294 251 228 229 215 230
1430.0 308 452 644 864 1087 1258 1528 2149 3502 5736
1470.0 7444 7701 7913 8072 6681 4192 2105 1031 629 486
1510.0 387 300 257 229 215 215 228 238 238 218
1550.0 196 197 211 192 172 208 314 530 878 1171
1590.0 1044 590 267 177 166 169 197 244 272 294
1630.0 315 305 267 242 238 244 253 246 217 185
1670.0 150 111 91 91 74 54 63 71 69 53
1710.0 43 62 74 55 53 83 101 87 96 133
1750.0 170 184 178 189 259 342 350 280 170 90
1790.0 77 78 60 49 35 37 40 36 32 35
1830.0 40 34 32 42 50 49 49 62 77 93
1870.0 105 134 195 265 337 406 440 417 360 289
1910.0 215 150 110 78 48 36 33 41 44 39
1950.0 38 39 36 33 30 22 21 16 16 23
1990.0 24 16 6 0 8 11 13 20 19 27
2030.0 30 23 23 14 3 12 18 9 15 28
2070.0 19 15 18 21 30 28 26 28 26 20
2110.0 22 16 10 16 12 5 2 14 20 14
2150.0 9 10 14 14 14 10 6 9 11 14
2190.0 5 0 14 22 18 23 30 13 12 15
2230.0 16 22 16 18 23 20 29 36 36 42
2270.0 54 50 48 64 67 63 60 71 76 70
2310.0 67 69 64 53 58 62 54 42 38 41
2350.0 44 56 67 67 71 61 53 57 44 23
2390.0 21 17 15 17 24 35 24 6 0 5
2430.0 18 22 18 21 26 17 16 22 19 22
2470.0 29 30 24 19 16 21 29 26 27 33
2510.0 48 57 47 43 36 33 40 46 53 44
2550.0 41 57 65 70 78 71 64 56 58 59
2590.0 67 79 84 73 48 37 32 29 20 16
2630.0 33 34 30 23 16 33 47 53 58 72
2670.0 51 23 27 28 18 12 16 9 20 33
2710.0 28 29 29 23 20 22 20 17 26 24
2750.0 19 20 30 38 37 26 19 26 26 33
2790.0 49 46 41 52 49 54 53 53 62 45
2830.0 50 57 37 37 37 26 24 33 38 38
2870.0 40 37 44 28 17 40 45 38 45 34
2910.0 13 23 29 23 29 36 39 33 33 48
2950.0 63 62 54 41 37 45 53 62 69 71
2990.0 77 81 84 96 126 159 207 280 383 544
3030.0 758 916 903 757 632 590 569 557 560 567
3070.0 598 652 745 847 913 919 852 726 546 370
3110.0 250 166 115 91 98 96 88 87 73 59
3150.0 49 46 45 50 50 33 26 38 31 16
3190.0 27 42 40 36 29 18 12 5 1 0
3230.0 13 24 22 23 23 12 13 34 27 10
3270.0 11 10 21 13 6 22 22 23 7 6
3310.0 27 27 17 12 29 40 48 48 32 38
3350.0 46 38 50 60 41 24 21 12 13 31
3390.0 29 13 9 13 16 18 19 9 0 10
3430.0 8 11 19 17 21 19 10 8 12 19
3470.0 17 17 24 27 24 18 16 30 38 24
3510.0 6 17 33 36 27 22 49 51 48 45
3550.0 11 6 18 28 41 47 24 22 34 46
3590.0 51 49 50 39 55 76 71 35 28 65
3630.0 58 29 14 22 52 43 29 39 30 34
3670.0 53 48 22 24 44 38 30 44 58 71
3710.0 78 64 40 73 100 56 68 80 57 56
3750.0 43 42 39 35 34 15 15 32 33 28
3790.0 26 28 49 56 41 22 23 37 40 35
3830.0 35 49 68 68 42
##END=
