##TITLE=2,3,4-Trimethylhexane
##JCAMP-DX=4.24
##DATA TYPE=INFRARED SPECTRUM
##ORIGIN=NIST Mass Spectrometry Data Center
##OWNER=NIST Standard Reference Data Program
Collection (C) 2018 copyright by the U.S. Secretary of Commerce
on behalf of the United States of America. All rights reserved.
##CAS REGISTRY NO=921-47-1
##MOLFORM=C 9 H 20
##$NIST SOURCE=MSDC-IR
##SPECTROMETER/DATA SYSTEM=HP-GC/MS/IRD
##STATE=gas
##XUNITS=1/CM
##YUNITS=ABSORBANCE
##XFACTOR=1.0
##YFACTOR=0.000000700
##DELTAX=4.0
##FIRSTX=550.0
##LASTX=3846.0
##FIRSTY=0.000167
##MAXX=3846
##MINX=550
##MAXY=0.007
##MINY=0
##NPOINTS=825
##XYDATA=(X++(Y..Y))
550.0 239 178 121 132 119 73 127 149 84 89
590.0 146 102 102 132 157 168 143 166 172 146
630.0 178 95 0 72 77 73 142 161 172 152
670.0 65 113 137 108 165 171 96 54 63 107
710.0 138 171 235 204 155 152 162 165 157 134
750.0 132 167 164 128 144 157 176 213 136 110
790.0 169 163 140 152 125 122 115 106 100 142
830.0 137 75 133 166 132 112 152 207 200 189
870.0 213 178 160 198 163 126 135 162 192 172
910.0 157 196 219 182 180 203 201 174 175 228
950.0 261 247 237 218 180 227 278 302 332 340
990.0 332 332 342 346 337 312 296 313 335 344
1030.0 310 269 313 290 245 266 255 259 272 241
1070.0 235 238 226 206 186 213 262 297 353 407
1110.0 440 466 452 448 408 339 278 247 220 180
1150.0 156 140 146 150 177 181 156 121 123 141
1190.0 125 114 114 120 107 110 119 136 161 123
1230.0 96 88 120 168 163 182 193 169 175 170
1270.0 154 173 191 206 209 183 193 204 189 203
1310.0 215 218 214 214 254 255 243 261 279 311
1350.0 359 395 474 610 779 985 1175 1324 1438 1447
1390.0 1326 1116 856 635 479 361 305 301 304 294
1430.0 291 359 457 528 664 839 992 1145 1258 1306
1470.0 1265 1141 958 770 608 469 356 307 278 215
1510.0 198 205 175 140 131 139 148 123 87 100
1550.0 130 119 66 64 75 67 71 92 105 104
1590.0 93 76 107 129 112 108 83 56 64 80
1630.0 88 70 71 100 116 78 64 86 83 91
1670.0 84 66 71 80 90 84 53 41 40 37
1710.0 38 52 63 53 44 47 45 37 62 79
1750.0 70 50 39 44 59 65 57 58 47 50
1790.0 53 58 73 72 64 55 51 72 90 77
1830.0 67 63 55 59 74 68 47 29 34 41
1870.0 35 54 66 40 35 38 25 38 61 43
1910.0 37 54 43 56 54 36 41 46 61 63
1950.0 46 26 20 31 30 15 27 37 18 36
1990.0 48 43 36 19 21 45 42 35 46 40
2030.0 40 47 47 55 64 59 48 40 27 20
2070.0 41 36 22 32 28 22 26 24 20 21
2110.0 30 32 37 36 35 48 54 58 53 55
2150.0 42 36 30 29 30 26 43 37 20 27
2190.0 42 33 22 31 40 39 27 30 28 8
2230.0 5 14 20 43 33 7 15 34 42 20
2270.0 10 25 27 37 42 52 47 51 67 66
2310.0 74 68 68 66 44 26 29 40 46 46
2350.0 38 31 33 27 28 33 36 40 42 67
2390.0 95 86 67 74 70 60 76 77 86 104
2430.0 90 76 66 53 52 74 75 71 68 60
2470.0 55 59 61 47 31 48 57 60 80 99
2510.0 102 88 78 68 50 52 57 75 74 77
2550.0 91 87 97 111 117 114 105 126 138 119
2590.0 132 129 132 150 156 149 147 158 154 151
2630.0 136 135 136 144 161 163 151 154 163 147
2670.0 127 135 153 144 120 152 185 163 184 208
2710.0 194 193 211 224 224 248 264 251 238 238
2750.0 217 216 238 242 238 238 251 247 258 273
2790.0 260 273 294 319 337 339 381 424 462 494
2830.0 540 605 677 754 834 964 1175 1475 1834 2259
2870.0 2801 3396 3939 4323 4499 4457 4228 3900 3650 3548
2910.0 3628 3799 4017 4316 4630 4903 5160 5345 5509 5775
2950.0 6220 6974 8079 9201 9895 10000 9412 8193 6658 5163
2990.0 3858 2817 2070 1578 1238 1035 885 754 652 578
3030.0 566 521 447 418 431 410 349 334 361 320
3070.0 287 304 284 274 282 308 297 275 264 252
3110.0 255 243 261 282 245 248 279 246 205 196
3150.0 186 187 189 182 189 209 206 184 166 169
3190.0 177 124 138 171 133 132 112 80 129 132
3230.0 93 83 54 80 112 103 104 94 73 116
3270.0 156 133 114 103 117 110 113 104 63 96
3310.0 132 109 56 54 53 69 97 96 96 83
3350.0 37 22 38 34 50 92 78 35 66 80
3390.0 37 46 42 30 54 56 65 86 78 69
3430.0 67 55 71 79 77 68 51 90 91 29
3470.0 25 39 34 43 65 94 82 51 50 30
3510.0 28 67 50 47 65 74 58 44 103 120
3550.0 92 96 68 54 84 65 70 77 49 47
3590.0 62 69 65 75 76 77 100 91 87 82
3630.0 77 73 45 45 42 21 26 7 6 20
3670.0 48 62 48 49 55 42 67 95 79 74
3710.0 78 89 93 78 33 26 29 21 47 40
3750.0 41 70 81 71 49 31 30 50 50 46
3790.0 96 98 88 72 61 85 67 47 31 54
3830.0 132 112 89 103 95
##END=
