##TITLE=4-Phenoxyphenylacetonitrile
##JCAMP-DX=4.24
##DATA TYPE=INFRARED SPECTRUM
##ORIGIN=EPA-IR VAPOR PHASE LIBRARY
##OWNER=SRD/NIST
Collection (C) 2018 copyright by the U.S. Secretary of Commerce
on behalf of the United States of America. All rights reserved.
##CAS REGISTRY NO=92163-15-0
##MOLFORM=C 14 H 11 N O
##$NIST SOURCE=MSDC-IR
##STATE=gas
##XUNITS=1/CM
##YUNITS=ABSORBANCE
##XFACTOR=1.
##YFACTOR=0.001
##DELTAX=1.929
##FIRSTX=549.8
##LASTX=4000.8
##FIRSTY=1.3667
##MAXX=4000.75
##MINX=549.766
##MAXY=0.248304
##MINY=0
##NPOINTS=1790
##XYDATA=(X++(Y..Y))
549.766 1.3667 1.4331 1.3532 1.524 1.634 1.584 1.474 1.3338 1.2253 1.2912
569.056 1.574 1.464 1.534 1.794 1.754 1.594 1.4265 1.3755 1.2309 1.1066
588.346 1.2585 1.4198 1.3641 1.2657 1.3481 1.4263 1.4145 1.4331 1.3927 1.3445
607.636 1.3846 1.494 1.3426 1.2222 1.304 1.3541 1.3568 1.2403 1.1742 1.3004
626.926 1.3696 1.3216 1.2207 1.1912 1.3659 1.3255 1.2248 1.454 1.704 1.674
646.216 1.614 1.614 1.714 1.774 1.804 1.854 1.974 2.184 2.304 2.544
665.506 2.714 3.054 3.664 4.294 4.744 5.344 6.424 7.624 8.874 10.354
684.796 12.074 13.584 14.874 15.594 15.544 15.014 13.954 12.424 10.794 9.434
704.086 8.204 7.074 6.214 5.594 5.104 4.694 4.484 4.384 4.434 4.624
723.376 4.964 5.604 6.374 7.074 7.974 9.154 10.164 11.074 11.854 12.484
742.666 12.854 12.934 12.834 12.774 12.754 12.614 12.424 12.344 12.314 12.124
761.956 11.974 12.074 11.974 11.764 11.674 11.504 11.214 10.854 10.434 9.984
781.246 9.514 9.024 8.524 8.244 8.064 7.684 7.404 7.504 7.544 7.534
800.536 7.714 8.034 8.344 8.554 8.834 9.424 10.104 10.464 10.624 10.974
819.826 11.494 11.774 12.114 12.334 12.494 12.664 12.734 12.734 12.574 12.144
839.116 11.654 11.124 10.464 9.804 9.234 8.744 8.274 8.214 8.474 8.924
858.406 10.074 12.294 16.124 21.764 28.054 32.554 33.644 31.964 28.154 22.074
877.696 15.474 10.744 7.984 6.424 5.574 5.034 4.694 4.564 4.604 4.604
896.986 4.624 4.804 4.904 4.874 4.794 4.654 4.514 4.234 3.854 3.574
916.276 3.344 3.114 2.764 2.494 2.324 2.054 1.964 1.904 1.754 1.684
935.566 1.574 1.544 1.584 1.564 1.534 1.534 1.544 1.4191 1.2637 1.2084
954.856 1.1786 1.2436 1.2657 1.1733 1.1914 1.2495 1.2309 1.3057 1.4288 1.4407
974.146 1.4414 1.464 1.494 1.514 1.514 1.4324 1.3593 1.3335 1.3315 1.3758
993.436 1.3424 1.2985 1.4115 1.604 1.864 2.174 2.604 3.294 4.444 5.994
1012.726 7.304 8.074 8.764 9.314 8.774 7.384 6.234 5.194 3.984 2.784
1032.016 1.874 1.3924 1.2337 1.1462 0.9932 0.903 0.8843 0.8856 0.9775 1.1876
1051.306 1.3772 1.564 1.814 2.124 2.364 2.674 3.024 3.254 3.404 3.454
1070.596 3.394 3.274 3.134 2.944 2.744 2.674 2.484 2.274 2.254 2.274
1089.886 2.324 2.464 2.674 2.934 3.144 3.324 3.594 3.674 3.634 3.674
1109.176 3.694 3.644 3.594 3.414 3.184 2.974 2.754 2.674 2.564 2.454
1128.467 2.444 2.444 2.544 2.774 2.964 3.184 3.454 3.774 4.144 4.594
1147.757 5.144 5.734 6.474 7.474 8.764 10.434 12.474 15.084 18.674 22.454
1167.047 24.824 25.384 24.924 23.244 19.704 15.774 13.314 12.474 12.504 12.904
1186.337 13.454 14.034 14.664 15.154 15.624 16.164 16.704 17.204 17.604 18.164
1205.627 18.824 19.664 20.914 22.584 24.874 27.824 31.324 35.454 40.394 46.214
1224.917 53.214 61.664 71.884 85.034 102.074 123.494 149.544 179.164 209.144 234.144
1244.207 248.304 247.804 232.104 204.304 169.384 133.384 102.214 78.814 62.744 51.994
1263.497 44.554 39.164 35.094 31.894 29.134 26.664 24.554 22.664 20.994 19.604
1282.787 18.364 17.264 16.374 15.574 14.804 14.234 13.744 13.174 12.564 12.004
1302.077 11.514 11.014 10.524 10.104 9.794 9.624 9.494 9.374 9.234 9.104
1321.367 9.054 8.964 8.774 8.534 8.264 7.954 7.664 7.354 6.974 6.564
1340.657 6.134 5.744 5.324 4.874 4.534 4.274 3.994 3.764 3.574 3.414
1359.947 3.294 3.114 2.994 2.914 2.764 2.714 2.704 2.634 2.574 2.564
1379.237 2.614 2.554 2.544 2.594 2.584 2.634 2.674 2.664 2.684 2.794
1398.527 2.934 2.984 3.134 3.374 3.614 3.944 4.274 4.654 5.044 5.494
1417.817 6.004 6.764 7.934 9.334 10.614 11.254 11.224 10.794 9.764 8.264
1437.107 7.014 6.444 6.284 6.374 6.584 6.814 7.144 7.564 8.014 8.604
1456.397 9.324 10.144 11.144 12.214 13.244 14.424 15.724 17.104 18.914 21.494
1475.687 25.414 31.514 40.474 53.684 71.644 92.924 113.094 125.364 127.264 121.294
1494.977 108.504 90.994 77.594 73.784 78.124 85.344 91.064 92.214 87.964 78.394
1514.267 65.144 51.124 39.334 30.934 24.744 20.554 17.364 14.854 12.954 11.404
1533.557 10.104 9.154 8.394 7.664 7.164 6.894 6.624 6.464 6.484 6.504
1552.847 6.594 6.804 7.004 7.214 7.874 8.684 9.604 10.764 12.184 14.004
1572.137 16.324 19.104 22.434 26.364 30.524 34.834 39.124 43.244 46.744 49.254
1591.427 50.244 49.344 46.504 42.024 36.604 30.964 25.754 21.434 18.074 15.514
1610.717 13.534 11.894 10.434 9.044 7.844 6.794 5.844 5.144 4.654 4.304
1630.007 4.064 3.834 3.644 3.514 3.424 3.334 3.254 3.104 2.914 2.844
1649.297 2.714 2.404 2.184 2.214 2.214 2.044 1.864 1.774 1.724 1.654
1668.587 1.494 1.4074 1.4298 1.3632 1.2959 1.3073 1.3086 1.2766 1.2164 1.2387
1687.877 1.2986 1.2892 1.2907 1.3181 1.3005 1.2927 1.2495 1.2855 1.4095 1.454
1707.167 1.484 1.594 1.614 1.574 1.564 1.554 1.624 1.674 1.744 1.794
1726.457 1.754 1.714 1.694 1.604 1.534 1.614 1.604 1.554 1.554 1.554
1745.747 1.534 1.534 1.584 1.584 1.684 1.864 2.024 2.044 2.094 2.324
1765.037 2.424 2.444 2.504 2.404 2.274 2.174 2.044 1.904 1.694 1.544
1784.327 1.4437 1.3058 1.1783 1.1294 1.0144 0.8881 0.8745 0.8398 0.8018 0.8087
1803.617 0.8062 0.7531 0.71 0.7332 0.7779 0.7613 0.7743 0.7926 0.7964 0.8039
1822.907 0.8286 0.8896 0.8976 0.9133 0.9704 1.0697 1.1812 1.2513 1.2841 1.3128
1842.197 1.3684 1.4156 1.504 1.584 1.684 1.774 1.814 1.864 1.924 1.944
1861.487 1.944 1.974 1.994 2.064 2.104 2.134 2.184 2.124 2.094 2.094
1880.777 2.064 2.074 2.064 1.994 2.024 2.084 2.084 2.064 2.044 2.054
1900.067 2.024 2.004 2.074 2.064 2.014 1.924 1.914 1.954 1.924 1.954
1919.357 1.984 2.024 2.044 2.064 2.094 2.134 2.144 2.104 2.084 2.074
1938.647 2.084 2.074 1.994 1.984 2.014 1.984 1.944 1.864 1.724 1.634
1957.937 1.564 1.484 1.484 1.464 1.454 1.534 1.544 1.574 1.614 1.674
1977.227 1.734 1.784 1.864 1.884 1.804 1.784 1.784 1.764 1.744 1.694
1996.517 1.594 1.4354 1.368 1.4069 1.454 1.425 1.3921 1.4285 1.464 1.454
2015.807 1.4271 1.474 1.564 1.604 1.674 1.774 1.814 1.864 1.954 1.954
2035.097 1.894 1.854 1.774 1.704 1.694 1.664 1.604 1.564 1.534 1.494
2054.387 1.474 1.494 1.544 1.594 1.604 1.644 1.684 1.704 1.704 1.734
2073.677 1.684 1.584 1.504 1.4079 1.311 1.2081 1.1555 1.1465 1.1184 1.0647
2092.967 1.0508 1.0459 0.968 0.9404 0.9504 0.8707 0.8443 0.8727 0.8477 0.8355
2112.257 0.8213 0.7462 0.6899 0.6796 0.7031 0.6757 0.6275 0.6479 0.6462 0.5836
2131.547 0.53472 0.54019 0.5546 0.5233 0.50772 0.53546 0.5522 0.50398 0.44001 0.49773
2150.837 0.5564 0.53732 0.49776 0.53327 0.52006 0.4632 0.50886 0.51788 0.51245 0.52816
2170.127 0.5864 0.5939 0.5573 0.54381 0.49235 0.49038 0.53535 0.5508 0.51934 0.46445
2189.417 0.4864 0.5458 0.50595 0.48913 0.53948 0.53918 0.48688 0.44128 0.453092 0.5349
2208.707 0.5752 0.5593 0.5847 0.5616 0.5775 0.665 0.6766 0.678 0.7119 0.7569
2227.997 0.792 0.8121 0.8673 0.8526 0.8237 0.8849 0.9201 0.9977 1.1152 1.2084
2247.287 1.3048 1.3693 1.4242 1.494 1.524 1.554 1.554 1.4267 1.2955 1.2133
2266.577 1.156 1.0904 1.0683 1.0766 0.9996 0.9454 0.9481 0.9009 0.8124 0.7761
2285.868 0.7675 0.8146 0.8361 0.8212 0.7797 0.7411 0.7697 0.8104 0.8307 0.8611
2305.158 0.9943 1.0458 1.0557 1.0343 1.0049 1.0062 0.989 0.9925 1.003 1.096
2324.448 1.1812 1.1361 1.0977 1.1091 1.1155 1.1648 1.1356 1.0975 1.0938 1.0708
2343.738 1.0875 1.0398 1.0115 1.0278 1.0268 1.0059 0.9725 0.9526 1.0233 1.0452
2363.028 0.9357 1.0104 1.0888 1.0683 1.0902 1.1279 1.2034 1.27 1.3133 1.3368
2382.318 1.2495 1.2397 1.3291 1.3456 1.411 1.524 1.624 1.664 1.764 1.854
2401.608 1.944 2.124 2.204 2.244 2.314 2.314 2.254 2.134 2.094 2.044
2420.898 2.054 1.994 1.864 1.944 2.034 2.084 2.174 2.234 2.304 2.394
2440.188 2.424 2.334 2.214 2.164 2.094 1.964 1.844 1.784 1.684 1.594
2459.478 1.564 1.484 1.444 1.4273 1.4264 1.3458 1.3409 1.454 1.4298 1.3565
2478.768 1.3203 1.3351 1.3192 1.3118 1.2705 1.1517 1.0791 1.0025 0.8975 0.8848
2498.058 0.8988 0.9116 0.8965 0.8922 0.9074 0.9039 0.9195 0.9347 0.8954 0.9276
2517.348 0.9421 0.886 0.8618 0.8749 0.8838 0.8493 0.8384 0.8287 0.8516 0.8111
2536.638 0.7986 0.9006 0.9554 0.9536 0.9688 1.0075 1.0158 1.013 1.0481 1.1024
2555.928 1.0623 1.093 1.2206 1.1889 1.0673 1.0235 1.0425 1.0357 1.039 1.0656
2575.218 1.1143 1.1122 1.0742 1.1006 1.0364 0.9403 0.8948 0.9235 0.96 0.9016
2594.508 0.8828 0.9413 0.9325 0.8918 0.8745 0.8567 0.8691 0.8286 0.7453 0.7446
2613.798 0.7617 0.8129 0.8897 0.8194 0.7647 0.7825 0.7614 0.7207 0.6741 0.6608
2633.088 0.667 0.6923 0.7316 0.7145 0.7333 0.7249 0.6567 0.6222 0.6478 0.6548
2652.378 0.6186 0.663 0.6795 0.6487 0.6591 0.6463 0.5828 0.52958 0.52442 0.5691
2671.668 0.68 0.6833 0.6579 0.6787 0.6498 0.6057 0.6133 0.6941 0.7524 0.7917
2690.958 0.7334 0.6891 0.7054 0.7375 0.774 0.7395 0.6956 0.6784 0.6683 0.6197
2710.248 0.605 0.6537 0.6784 0.6677 0.6461 0.6486 0.6695 0.7529 0.8547 0.8653
2729.538 0.8781 0.8531 0.8401 0.8231 0.7504 0.8123 0.78 0.8077 0.8831 0.8779
2748.828 0.8584 0.8338 0.8575 0.7759 0.765 0.7818 0.7619 0.7339 0.6962 0.6345
2768.118 0.6647 0.7663 0.6996 0.615 0.6312 0.6347 0.6497 0.6799 0.6997 0.7501
2787.408 0.718 0.6905 0.6539 0.6395 0.6701 0.6282 0.6345 0.7014 0.7665 0.7541
2806.698 0.7457 0.7776 0.8075 0.8219 0.7938 0.8124 0.8932 0.9525 0.9791 0.9471
2825.988 0.9336 1.0316 1.128 1.2223 1.2637 1.2884 1.324 1.3807 1.2738 1.1024
2845.278 1.1722 1.1752 1.127 1.0897 0.9768 0.9726 0.9628 0.8978 0.8703 0.8738
2864.568 0.9274 0.9053 0.8613 0.8164 0.7709 0.7868 0.7766 0.7791 0.7621 0.8035
2883.858 0.8497 0.7606 0.7575 0.8601 0.8994 0.8097 0.8345 0.9109 0.9803 1.0916
2903.148 1.139 1.2337 1.3255 1.444 1.534 1.564 1.774 2.084 2.394 2.694
2922.438 2.984 3.224 3.464 3.644 3.734 3.724 3.524 3.224 2.844 2.494
2941.728 2.374 2.184 1.884 1.784 1.654 1.544 1.474 1.341 1.364 1.3477
2961.018 1.2084 1.1132 1.1122 1.1498 1.0316 1.1035 1.1629 1.0625 1.0806 1.0066
2980.308 0.9865 1.1055 1.2762 1.355 1.355 1.524 1.664 1.804 2.144 2.424
2999.598 2.554 2.704 2.864 3.014 3.294 3.584 3.654 3.734 4.084 4.434
3018.888 4.794 5.084 5.484 6.074 6.644 7.424 8.494 9.694 10.944 12.254
3038.178 13.414 14.174 14.544 14.374 13.724 12.844 11.704 10.624 9.824 9.384
3057.468 9.004 8.734 8.574 8.634 8.944 9.214 9.674 10.454 11.274 12.024
3076.758 12.704 13.034 12.884 12.344 11.574 10.694 9.844 9.014 8.234 7.694
3096.048 7.284 6.974 6.574 6.044 5.584 5.084 4.664 4.294 3.694 3.144
3115.338 2.774 2.564 2.254 1.894 1.734 1.544 1.454 1.3185 1.0924 1.0167
3134.628 0.9755 0.8797 0.8528 0.8959 0.863 0.6828 0.6248 0.7284 0.7474 0.6624
3153.918 0.54348 0.5753 0.7443 0.7313 0.5832 0.6084 0.6536 0.5511 0.5972 0.6767
3173.208 0.7091 0.739 0.6434 0.6213 0.6196 0.5832 0.6119 0.6951 0.7191 0.6507
3192.498 0.5827 0.48114 0.52967 0.7591 0.7629 0.5453 0.43689 0.4606 0.49975 0.450659
3211.788 0.45526 0.465 0.3963 0.338 0.3763 0.4006 0.426 0.45459 0.226 0.18
3231.078 0.302 0.299 0.248 0.28 0.242 0.101 0.228 0.3849 0.298 0.262
3250.368 0.253 0.248 0.3493 0.341 0.298 0.324 0.209 0.206 0.289 0.224
3269.658 0.206 0.256 0.273 0.228 0.256 0.293 0.114 0.049 0.195 0.215
3288.948 0.135 0.156 0.154 0.207 0.244 0.163 0.254 0.218 0.315 0.3496
3308.238 0.166 0.14 0.195 0.189 0.219 0.276 0.277 0.309 0.257 0.184
3327.528 0.209 0.183 0.165 0.163 0.116 0.13 0.23 0.3466 0.158 0.044
3346.818 0.113 0.195 0.249 0.247 0.245 0.191 0.179 0.308 0.3832 0.3574
3366.108 0.247 0.182 0.222 0.153 0.027 0 0.056 0.124 0.178 0.172
3385.398 0.129 0.088 0.098 0.116 0.093 0.149 0.151 0.093 0.211 0.296
3404.688 0.148 0.2 0.26 0.08 0.155 0.155 0.07 0.115 0.194 0.232
3423.978 0.179 0.214 0.315 0.246 0.201 0.031 0.012 0.09 0.097 0.149
3443.269 0.013 0.158 0.309 0.284 0.219 0.113 0.259 0.3976 0.281 0.3
3462.559 0.28 0.104 0.039 0.109 0.192 0.105 0.053 0.167 0.266 0.322
3481.849 0.321 0.21 0.195 0.255 0.219 0.252 0.308 0.17 0.074 0.211
3501.139 0.26 0.142 0.122 0.175 0.208 0.173 0.194 0.155 0.017 0.137
3520.429 0.295 0.256 0.204 0.112 0.112 0.235 0.179 0.142 0.272 0.344
3539.719 0.219 0.18 0.368 0.312 0.183 0.238 0.17 0.158 0.119 0.032
3559.009 0.096 0.142 0.292 0.342 0.142 0.117 0.314 0.3884 0.305 0.278
3578.299 0.206 0.216 0.309 0.226 0.172 0.252 0.229 0.155 0.212 0.3848
3597.589 0.4234 0.3576 0.254 0.127 0.205 0.199 0.062 0.05 0.154 0.249
3616.879 0.279 0.217 0.193 0.208 0.215 0.3511 0.311 0.288 0.3888 0.3681
3636.169 0.4315 0.4177 0.229 0.235 0.318 0.281 0.298 0.226 0.243 0.297
3655.459 0.26 0.3587 0.43 0.3886 0.43978 0.5498 0.4743 0.334 0.324 0.4102
3674.749 0.43681 0.337 0.43679 0.5884 0.5418 0.52524 0.52961 0.47991 0.4155 0.4236
3694.039 0.46409 0.5931 0.6597 0.3994 0.336 0.49606 0.47229 0.4098 0.4231 0.344
3713.329 0.29 0.319 0.294 0.302 0.3755 0.4331 0.4193 0.36 0.261 0.227
3732.619 0.209 0.165 0.231 0.286 0.237 0.125 0.018 0.189 0.327 0.198
3751.909 0.211 0.4167 0.43 0.448683 0.48755 0.4266 0.307 0.239 0.311 0.342
3771.199 0.3523 0.371 0.282 0.276 0.316 0.3655 0.4132 0.45497 0.51633 0.47696
3790.489 0.50926 0.49691 0.4178 0.251 0.288 0.4183 0.3964 0.47853 0.5939 0.52809
3809.779 0.48176 0.45769 0.267 0.261 0.3481 0.45402 0.43443 0.3722 0.3618 0.3995
3829.069 0.424 0.289 0.285 0.247 0.31 0.445838 0.4104 0.3717 0.45878 0.447918
3848.359 0.450562 0.53419 0.4379 0.43598 0.6089 0.6794 0.45943 0.264 0.296 0.294
3867.649 0.266 0.339 0.4103 0.47115 0.5617 0.5786 0.5656 0.49837 0.4147 0.51983
3886.939 0.5578 0.4055 0.452725 0.53973 0.6062 0.6846 0.5942 0.5459 0.6218 0.5907
3906.229 0.53807 0.7055 0.823 0.6872 0.6046 0.549 0.50866 0.5677 0.6037 0.53584
3925.519 0.4144 0.3941 0.4246 0.49927 0.48834 0.50886 0.53295 0.51068 0.45577 0.4273
3944.809 0.47269 0.45609 0.3511 0.3464 0.3676 0.291 0.3651 0.46402 0.5382 0.6332
3964.099 0.6064 0.47553 0.54014 0.7119 0.55 0.45581 0.5778 0.52249 0.50066 0.5517
3983.389 0.444387 0.427 0.5737 0.5903 0.49488 0.3652 0.235 0.27 0.4104 0.452796
##END=
