##TITLE=Z-Styrenesulphonylacetic acid
##JCAMP-DX=4.24
##DATA TYPE=INFRARED SPECTRUM
##ORIGIN=EPA-IR VAPOR PHASE LIBRARY
##OWNER=SRD/NIST
Collection (C) 2018 copyright by the U.S. Secretary of Commerce
on behalf of the United States of America. All rights reserved.
##CAS REGISTRY NO=92207-24-4
##MOLFORM=C 10 H 10 O 4 S
##$NIST SOURCE=MSDC-IR
##STATE=gas
##XUNITS=1/CM
##YUNITS=ABSORBANCE
##XFACTOR=1.
##YFACTOR=0.001
##DELTAX=1.92898
##FIRSTX=549.8
##LASTX=4000.7
##FIRSTY=9.311
##MAXX=4000.7
##MINX=549.759
##MAXY=0.110281
##MINY=0
##NPOINTS=1790
##XYDATA=(X++(Y..Y))
549.759 9.311 8.861 6.961 4.861 4.561 3.871 3.661 4.171 3.281 2.861
569.049 2.701 2.191 1.981 1.3853 1.3038 1.6681 1.8667 2.201 1.9595 1.6349
588.339 2.091 2.301 2.071 1.3911 1.4415 2.631 3.671 4.711 5.691 6.971
607.628 9.231 10.541 11.021 11.951 12.651 13.331 13.291 12.101 11.501 11.841
626.918 11.951 11.751 11.531 10.561 9.101 8.381 8.011 7.061 5.821 5.041
646.208 4.501 4.401 4.691 4.781 4.651 5.011 5.271 5.141 5.791 6.271
665.498 6.521 7.131 7.931 9.041 10.401 11.591 12.621 13.901 15.191 16.531
684.787 18.221 19.221 20.581 22.631 23.691 24.411 25.501 26.471 27.251 28.051
704.077 28.261 27.911 26.961 25.541 23.441 20.441 17.651 15.091 13.301 12.521
723.367 11.581 10.631 10.291 10.021 10.131 10.111 10.581 12.151 13.011 13.881
742.657 15.151 16.291 17.811 20.131 22.021 23.981 27.581 30.861 33.141 36.021
761.947 39.711 43.961 47.901 51.251 54.611 57.281 58.991 59.981 59.981 58.631
781.236 55.781 51.781 47.351 41.781 36.021 30.731 25.651 21.271 17.691 15.361
800.526 13.111 10.891 9.161 8.481 7.731 6.551 6.511 6.751 6.181 6.031
819.816 6.711 6.921 7.081 6.821 6.031 5.991 5.921 6.091 6.011 5.681
839.106 5.891 6.131 6.121 6.151 6.361 6.051 5.681 5.621 5.501 5.331
858.395 5.751 5.621 5.111 4.841 4.421 3.951 3.691 4.151 4.551 4.071
877.685 3.491 3.771 3.891 3.671 3.651 3.511 3.591 3.631 3.531 3.261
896.975 2.801 2.741 2.881 3.321 3.651 3.651 4.031 4.571 4.921 4.891
916.265 5.211 5.531 5.511 5.581 5.861 5.831 5.761 5.661 5.231 5.441
935.555 6.101 6.521 7.351 8.651 10.041 12.151 15.131 18.531 21.831 25.171
954.844 27.931 29.721 29.931 28.481 26.931 24.481 20.861 17.091 13.301 9.891
974.134 7.641 6.581 5.951 5.501 4.931 4.331 4.221 4.061 3.381 2.891
993.424 3.381 3.621 3.151 3.401 3.181 2.681 2.351 1.9422 2.291 2.511
1012.714 2.161 1.6014 1.3619 1.8398 3.351 4.911 5.341 5.731 5.391 4.621
1032.003 4.421 4.431 3.961 3.061 2.031 1.4968 2.671 2.611 1.8369 2.111
1051.293 1.9362 2.251 2.761 2.391 2.621 3.071 3.231 2.751 2.401 3.501
1070.583 3.961 3.541 3.251 3.331 3.841 4.271 3.771 3.681 3.781 2.351
1089.873 2.341 4.211 3.731 3.471 5.121 4.751 3.721 4.231 5.181 4.711
1109.163 5.581 8.421 9.881 9.621 10.011 12.761 16.531 20.441 23.671 28.381
1128.452 36.001 43.811 53.431 62.361 68.751 73.361 76.181 79.091 78.271 75.781
1147.742 73.811 69.151 65.451 62.781 59.791 57.571 54.831 50.681 45.441 40.651
1167.032 35.371 30.181 26.061 22.291 18.741 15.351 13.801 12.551 9.921 8.221
1186.322 7.931 7.971 7.861 7.351 5.711 3.941 4.561 6.311 6.201 5.291
1205.611 5.371 4.871 3.761 4.271 4.981 4.251 4.321 5.161 5.781 5.691
1224.901 5.251 5.041 4.301 4.701 5.051 4.681 4.171 3.551 4.011 4.351
1244.191 3.931 3.941 3.651 3.251 3.701 4.111 3.961 3.641 3.411 3.381
1263.481 3.721 3.761 3.731 3.911 3.951 3.931 3.531 3.891 4.631 5.051
1282.771 5.571 5.721 5.791 6.391 7.471 8.281 8.971 10.181 11.591 13.041
1302.060 14.761 16.951 19.421 22.421 26.221 30.171 34.441 39.011 43.691 48.931
1321.350 54.431 60.381 66.981 73.931 81.391 88.921 95.641 101.351 106.231 109.421
1340.640 110.281 108.021 102.701 95.501 87.551 79.341 70.901 62.751 55.541 49.301
1359.930 43.591 38.611 34.151 29.991 26.351 22.891 19.431 16.361 13.661 11.431
1379.219 9.821 8.551 7.541 6.831 6.151 5.461 4.951 4.811 4.591 4.341
1398.509 4.241 4.051 4.121 4.081 3.881 3.981 4.071 3.951 3.951 4.041
1417.799 4.051 4.271 4.431 4.401 4.501 4.491 4.501 4.431 4.361 4.631
1437.089 4.961 5.371 5.621 5.701 5.841 5.801 5.751 5.711 5.341 4.941
1456.378 4.661 4.181 3.861 3.611 3.281 3.331 3.301 3.191 3.361 3.361
1475.668 3.451 3.771 4.181 4.851 5.651 6.721 7.951 8.981 9.541 9.561
1494.958 9.451 9.051 8.131 6.931 5.561 4.491 3.831 3.301 2.891 2.641
1514.248 2.491 2.341 2.271 2.271 2.101 2.191 2.431 2.241 2.221 2.451
1533.538 2.431 2.251 2.341 2.651 2.871 2.951 2.861 2.881 2.981 2.931
1552.827 2.891 2.791 3.291 3.911 4.041 4.221 4.401 4.801 5.371 5.861
1572.117 6.171 6.761 7.051 7.241 7.821 8.201 8.551 8.831 9.341 10.211
1591.407 10.911 11.881 13.121 14.231 15.171 16.081 16.791 17.781 19.041 19.681
1610.697 20.481 21.381 21.831 21.651 20.631 19.241 17.161 14.341 11.721 9.661
1629.986 7.981 6.401 5.441 4.891 4.351 4.001 3.751 3.701 3.751 3.751
1649.276 3.601 3.451 3.391 3.231 3.111 3.251 3.231 3.091 3.131 3.151
1668.566 2.971 2.881 2.761 2.741 2.601 2.281 2.081 2.161 2.151 1.822
1687.856 1.8149 1.833 1.7333 1.8347 1.8299 1.7914 2.061 1.8252 1.6117 1.7817
1707.146 1.7726 1.8908 1.83 1.635 1.7064 1.6828 1.5251 1.6495 1.8275 1.8206
1726.435 1.707 1.7486 1.7948 1.7706 2.001 2.021 1.991 1.961 1.9159 1.9592
1745.725 2.041 1.9512 1.8108 1.6964 1.6743 1.81 1.8638 1.9072 2.031 1.8398
1765.015 1.6538 1.8391 1.8957 1.9288 1.9127 1.8616 1.936 1.8958 1.8016 1.9494
1784.305 1.971 1.8797 1.925 2.001 1.9358 2.081 2.291 2.221 2.111 2.021
1803.594 2.091 2.161 2.161 2.111 2.101 2.051 1.9123 1.7921 1.7449 1.6073
1822.884 1.5406 1.5403 1.5951 1.6509 1.4655 1.304 1.2134 1.2297 1.3017 1.2181
1842.174 1.2349 1.3885 1.2665 1.1736 1.3204 1.3919 1.298 1.299 1.3769 1.3378
1861.464 1.3204 1.4212 1.485 1.5055 1.4992 1.5268 1.5085 1.4389 1.4853 1.6428
1880.754 1.8027 1.9185 2.071 2.081 2.071 2.081 2.081 2.221 2.371 2.191
1900.043 2.121 2.151 2.051 2.101 2.091 1.971 1.9076 1.981 1.8985 1.7924
1919.333 1.8222 1.7987 1.8452 1.8994 1.6677 1.5807 1.7926 1.9352 1.9206 1.8353
1938.623 1.7649 1.8127 2.101 2.371 2.271 2.191 2.331 2.331 2.301 2.271
1957.913 2.081 2.071 2.151 2.221 2.241 2.091 2.021 1.8094 1.5736 1.4251
1977.202 1.3412 1.2906 1.1912 1.1147 1.1769 1.3434 1.2906 1.2091 1.1733 1.2394
1996.492 1.2674 1.2305 1.2208 0.965774 0.9109 1.0712 1.1058 1.2169 1.2585 1.205
2015.782 1.1642 1.0824 1.1119 1.3074 1.2268 0.9039 1.04829 1.1709 1.01062 1.04442
2035.072 1.0719 1.0689 1.02477 1.0361 1.1359 1.3194 1.3308 1.3166 1.3679 1.1661
2054.362 1.2472 1.2361 1.03127 0.96441 0.98023 1.1256 1.1055 1.2144 1.2683 1.1638
2073.651 1.1921 1.1435 1.2117 1.3388 1.2494 1.1529 1.0559 0.9128 0.99523 1.0635
2092.941 0.99425 0.98739 1.1471 1.2954 1.3176 1.1026 0.9349 1.03843 0.95437 0.809
2112.231 0.86 0.98367 1.0671 0.9376 1.00176 1.154 1.0923 1.2318 1.266 1.0735
2131.521 0.8924 0.9173 0.9207 0.853 0.806 1.03888 1.0984 0.9382 0.849 0.9265
2150.810 1.0719 0.8967 0.819 0.713 0.849 1.03947 1.00676 0.961015 1.03349 1.1083
2170.100 0.9396 0.8645 0.95933 0.9422 0.8811 0.8656 0.9443 1.0019 0.968585 0.97695
2189.390 0.969951 0.98223 1.01408 0.9907 1.01144 1.05018 0.9354 1.03108 1.0128 0.799
2208.680 0.8707 1.04742 1.1588 1.1262 1.05295 1.03561 0.98967 1.068 1.0623 0.95251
2227.970 0.843 0.852 1.1272 1.063 0.99448 1.00127 0.8785 0.84 0.95361 0.960786
2247.259 0.96161 1.1687 1.0934 1.04221 1.3047 1.3937 1.3498 1.5141 1.5857 1.4278
2266.549 1.4173 1.4964 1.346 1.2521 1.4089 1.592 1.7418 1.5874 1.5374 1.5531
2285.839 1.5365 1.6239 1.5546 1.6137 1.7675 1.6092 1.4255 1.3317 1.2368 1.4753
2305.129 1.5029 1.3804 1.5644 1.6063 1.4621 1.5565 1.8343 1.9506 1.8983 1.7699
2324.418 1.5523 1.3408 1.3129 1.3292 1.2766 1.5616 1.6158 1.4334 1.386 1.3955
2343.708 1.4872 1.3478 1.2641 1.3433 1.2464 1.3322 1.4592 1.2926 1.2112 1.2196
2362.998 1.3143 1.0818 0.9065 1.1951 1.3547 1.2388 1.298 1.3673 1.1478 1.0907
2382.288 1.1433 1.02797 1.1157 1.414 1.2446 1.0615 0.8841 0.663 0.773 0.9052
2401.578 0.99549 0.8 0.584 0.711 0.829 0.9115 0.9081 0.98351 0.95249 0.9463
2420.867 0.845 0.86 1.0781 1.01254 0.966832 0.78 0.83 1.2981 1.3612 1.2649
2440.157 1.1384 1.0964 1.3083 1.371 1.4875 1.5137 1.4917 1.4824 1.3621 1.2919
2459.447 1.32 1.317 1.5063 1.78 1.9027 1.9564 2.001 1.8808 1.6143 1.5956
2478.737 1.7894 1.735 1.574 1.4829 1.531 1.6279 1.5821 1.4954 1.4014 1.3912
2498.026 1.2153 1.2076 1.2089 1.2101 1.2544 1.3183 1.3934 1.141 1.00842 0.98193
2517.316 1.03619 1.1347 1.3006 1.3334 1.2723 0.967319 0.824 0.8878 0.8897 0.82
2536.606 0.9162 1.007 0.675 0.8979 1.2464 1.1986 1.0753 1.03692 1.1304 1.0675
2555.896 1.0649 1.2632 1.0884 0.707 0.747 0.99914 1.2224 0.99927 0.759 0.935
2575.186 1.1986 0.8613 0.69 1.0997 1.1139 0.9499 0.85 0.8716 1.00536 1.0387
2594.475 1.1372 1.3015 1.02748 0.969063 1.15 1.1365 0.91 0.844 0.9095 1.00801
2613.765 0.98316 0.8745 0.9431 0.97693 0.99927 0.969794 0.9504 1.029 1.1387 1.2594
2633.055 1.3191 0.9203 0.749 1.0817 0.9553 0.733 0.66 0.848 0.960948 0.856
2652.345 0.9393 0.874 0.61 0.9309 1.2879 1.0918 0.832 0.749 0.842 0.9012
2671.634 0.97762 1.2089 0.963773 0.784 0.9359 0.9573 1.1478 0.9408 1.00254 1.1942
2690.924 0.97775 0.796 0.717 1.0997 1.3384 0.9498 0.589 0.826 0.98053 0.8637
2710.214 1.01443 0.712 0.358 0.71 1.1292 1.1873 1.1534 1.2266 1.1285 1.00384
2729.504 1.1344 0.9055 0.9008 1.02947 0.754 0.8906 1.2022 0.95205 0.9063 1.2127
2748.794 0.867 0.809 1.2189 1.2789 1.2625 1.2292 1.3394 1.4235 1.4292 1.4704
2768.083 1.4251 1.3555 1.1555 0.968882 0.9789 0.965847 0.81 0.825 1.131 1.4186
2787.373 1.3767 1.1371 1.2438 1.2585 0.9052 0.775 0.8989 0.757 0.607 0.6
2806.663 0.766 1.2933 1.1788 0.826 0.8897 1.025 1.2201 1.2459 0.98049 0.585
2825.953 0.416 0.779 1.3498 1.3775 1.1904 0.9023 0.541 0.722 0.98394 0.9262
2845.242 0.9249 1.2057 1.0614 0.9492 1.2694 1.1112 0.99976 0.853 0.518 0.546
2864.532 0.482 0.764 1.1507 1.02892 1.1081 1.3165 1.4051 1.1014 0.962267 1.1243
2883.822 0.8964 0.834 0.9408 1.1854 1.2827 1.2172 1.5432 1.3633 1.3453 1.2086
2903.112 0.9962 1.2995 1.0961 1.0621 1.3777 1.4974 1.4534 1.6296 1.8433 2.071
2922.401 2.041 1.7176 1.8778 1.8683 2.011 2.321 2.061 1.8815 2.161 2.061
2941.691 2.191 2.411 2.301 2.191 1.991 1.8099 1.6341 1.7982 1.7124 1.5461
2960.981 1.6932 1.6027 1.3087 1.3539 1.452 1.2043 1.2535 1.8693 1.817 1.3727
2980.271 1.2768 1.5068 2.021 2.291 2.471 2.681 2.931 3.141 3.101 3.131
2999.561 3.331 3.761 4.331 4.651 5.061 5.471 5.941 6.591 7.281 7.991
3018.850 8.111 8.651 9.281 9.081 9.291 9.861 9.731 9.761 9.991 9.671
3038.140 9.181 8.601 7.991 7.471 7.381 7.031 6.981 7.601 7.491 8.281
3057.430 10.121 11.621 13.041 14.211 15.491 17.261 18.471 18.391 17.821 17.321
3076.720 16.561 15.111 13.701 12.131 10.571 9.351 8.751 8.601 8.141 7.451
3096.009 6.871 6.591 6.241 5.531 4.611 4.391 4.361 3.791 3.371 2.921
3115.299 2.541 2.881 2.921 2.261 1.9046 2.001 2.171 1.7875 1.2903 1.6981
3134.589 1.878 1.8429 1.6629 1.1069 1.01788 1.5803 2.061 1.7878 1.725 1.833
3153.879 1.8189 1.6378 1.4284 1.2282 1.0402 1.4942 1.6444 0.97608 0.832 1.1051
3173.169 1.2925 1.1402 1.0896 1.2747 1.1532 1.1734 1.1572 1.3362 1.4295 1.5866
3192.458 1.7562 1.3481 1.0927 1.123 1.04168 0.99607 1.21 1.4231 1.3333 1.2956
3211.748 1.0908 0.97432 1.3059 1.4247 1.4554 1.01892 0.9021 1.3063 1.1714 1.04128
3231.038 0.633 0.237 0.191 0.302 0.9223 1.2412 0.866 1.00289 0.943 0.264
3250.328 0.34 0.693 0.515 0.354 0.499 0.771 1.1539 1.3615 1.1496 0.97691
3269.617 1.1293 1.2204 1.0912 1.0897 1.1126 1.1095 1.1336 0.8876 0.672 0.8789
3288.907 0.792 0.787 0.8644 0.565 0.8747 1.1882 1.1642 0.97885 0.604 0.442
3308.197 0.6 0.582 0.859 1.2383 1.0828 1.1472 1.1222 0.606 0.28 0.326
3327.487 0.246 0.306 0.292 0.504 0.77 0.714 1.00753 1.284 1.2189 0.694
3346.777 0.134 0.564 1.3823 1.2949 0.568 0.319 1.0543 1.3406 0.752 0.562
3366.066 0.8714 1.2029 1.4239 1.2611 1.04194 0.659 0.352 0.9045 1.185 1.00964
3385.356 1.1348 1.02592 0.541 0.8739 1.3042 0.579 0.348 1.1056 1.2967 1.4324
3404.646 1.4645 0.762 0.697 0.839 0.759 0.764 0.735 0.697 0.655 0.387
3423.936 0.277 0.9252 1.0728 0.9099 0.781 0.782 1.2202 1.7074 1.6399 0.627
3443.225 0.18 0.625 0.655 0.528 0.543 0.491 0.725 0.817 0.563 0.782
3462.515 0.816 0.606 0.9064 1.00184 0.554 0.096 0.629 0.9411 0.284 0.275
3481.805 0.493 0.513 0.968512 1.3545 1.1025 0.97171 1.1115 1.2208 1.1189 0.707
3501.095 0.836 1.3635 1.2411 0.633 0.36 0.834 0.8886 0.823 0.784 0.597
3520.385 0.65 0.8707 0.8658 0.557 0.547 0.321 0.106 0.646 1.3523 1.4747
3539.674 0.834 0.424 1.03091 1.4129 0.8872 0.142 0.361 1.2481 0.9723 0.451
3558.964 0.496 0.709 0.784 0.731 1.0057 0.8721 0.8726 1.01794 0.774 0.85
3578.254 0.826 0.805 0.786 0.251 0 0.456 1.2863 1.3408 1.0946 0.9073
3597.544 0.859 0.9128 0.715 0.774 1.2376 1.532 0.844 0.625 0.95435 0.9118
3616.833 0.67 0.9323 0.9073 0.623 1.3102 1.081 0.041 0.039 0.066 0.177
3636.123 0.98948 0.8969 0.322 0.964715 1.4822 0.771 0.197 0.746 0.8792 0.659
3655.413 0.834 0.707 0.894 0.777 0.571 1.2631 1.409 1.2837 1.1164 0.433
3674.703 0.46 0.805 1.00603 0.8988 0.9417 1.0686 1.1047 0.85 0.359 0.479
3693.993 0.819 0.789 0.56 1.2269 1.3401 0.565 0.526 0.673 0.839 0.623
3713.282 0.087 0.533 0.768 0.9184 1.1161 0.742 0.326 0.276 0.241 0.34
3732.572 0.411 0.415 1.05649 1.1534 0.848 0.721 0.391 0.781 1.1266 0.776
3751.862 0.99429 1.01996 0.9229 1.0832 0.961129 0.453 0.291 0.554 0.8641 0.8775
3771.152 0.707 0.642 0.848 0.8938 0.725 0.8681 1.1616 1.1643 1.3788 1.5255
3790.441 1.3696 0.99659 0.8925 1.00852 1.05508 1.2359 1.075 1.05065 0.8999 0.586
3809.731 0.318 0.617 1.433 1.1487 0.681 0.8698 0.729 0.597 0.535 0.785
3829.021 0.9213 0.764 0.508 0.241 0.404 0.534 0.465 0.466 0.648 0.637
3848.311 0.701 0.438 0.186 0.502 0.321 0.585 0.792 0.381 0.311 0.249
3867.601 0.523 0.781 0.799 0.8996 0.816 0.9236 1.1297 0.771 0.46 0.575
3886.890 0.618 0.423 0.56 0.8642 1.3167 1.2339 0.9328 1.2333 1.1824 1.06034
3906.180 1.1517 1.4347 1.01554 0.594 0.441 0.733 1.1298 0.95566 1.0452 0.74
3925.470 0.625 1.02316 1.1012 1.03073 0.788 1.1689 1.7712 0.98072 0.544 0.423
3944.760 0.589 1.1715 1.3009 1.3743 1.1277 0.9066 0.575 0.589 0.569 0.9281
3964.049 1.00869 0.743 1.04022 0.98251 0.62 0.562 0.462 0.492 0.967736 0.97828
3983.339 0.667 0.255 0.646 0.65 0.073 0.374 0.473 0.8841 0.8715 0.398
##END=
