##TITLE=2-Methyl-3-octanone
##JCAMP-DX=4.24
##DATA TYPE=INFRARED SPECTRUM
##ORIGIN=NIST Mass Spectrometry Data Center
##OWNER=NIST Standard Reference Data Program
Collection (C) 2018 copyright by the U.S. Secretary of Commerce
on behalf of the United States of America. All rights reserved.
##CAS REGISTRY NO=923-28-4
##MOLFORM=C 9 H 18 O
##$NIST SOURCE=MSDC-IR
##SPECTROMETER/DATA SYSTEM=HP-GC/MS/IRD
##STATE=gas
##XUNITS=1/CM
##YUNITS=ABSORBANCE
##XFACTOR=1.0
##YFACTOR=0.000001100
##DELTAX=4.0
##FIRSTX=550.0
##LASTX=3846.0
##FIRSTY=0.000437
##MAXX=3846
##MINX=550
##MAXY=0.011
##MINY=0
##NPOINTS=825
##XYDATA=(X++(Y..Y))
550.0 397 245 99 56 78 152 196 144 154 206
590.0 138 169 209 209 256 264 232 167 139 124
630.0 85 28 0 0 26 78 109 193 295 370
670.0 506 689 891 1119 1364 1581 1604 1457 1369 1351
710.0 1361 1408 1524 1695 1899 2290 2393 1957 1672 1455
750.0 1136 857 628 437 292 198 172 175 179 170
790.0 215 218 167 189 199 191 182 177 145 116
830.0 126 119 108 123 120 133 149 123 100 106
870.0 121 139 152 144 156 196 235 251 260 282
910.0 325 371 420 513 641 769 957 1211 1441 1650
950.0 1827 1946 2145 2132 1857 1678 1538 1320 1109 980
990.0 963 1007 1048 1126 1217 1258 1253 1237 1211 1176
1030.0 1165 1238 1364 1452 1480 1428 1342 1229 1104 1006
1070.0 948 915 884 851 835 878 931 971 997 1008
1110.0 1012 1011 1014 987 919 863 793 735 686 612
1150.0 528 469 448 412 388 411 466 500 492 502
1190.0 550 579 570 575 592 592 574 528 501 483
1230.0 462 450 432 405 383 350 322 342 367 389
1270.0 414 438 470 513 554 586 608 640 647 632
1310.0 612 605 629 651 702 802 917 1045 1136 1199
1350.0 1264 1303 1312 1322 1312 1296 1321 1403 1498 1520
1390.0 1437 1271 1045 906 845 815 830 875 919 978
1430.0 1071 1170 1290 1410 1541 1700 1864 2027 2166 2223
1470.0 2162 1967 1716 1508 1410 1382 1284 1163 1022 751
1510.0 490 363 309 265 236 222 201 195 194 177
1550.0 158 165 177 179 194 217 236 273 346 424
1590.0 491 554 555 509 436 350 274 239 222 205
1630.0 211 233 247 252 280 322 344 359 393 440
1670.0 482 507 558 653 801 983 1243 1628 2163 2848
1710.0 3689 4575 5306 5698 5607 5011 4077 3049 2154 1508
1750.0 1097 831 642 520 449 388 331 306 296 283
1790.0 263 235 212 191 160 133 119 106 85 79
1830.0 86 91 93 108 109 110 133 138 134 131
1870.0 139 134 115 112 120 107 71 48 56 62
1910.0 60 72 85 99 121 136 142 154 162 155
1950.0 147 130 109 79 39 21 28 29 28 40
1990.0 44 40 41 47 38 29 25 24 21 18
2030.0 17 19 24 16 16 10 10 24 14 15
2070.0 21 13 15 15 10 11 3 0 2 6
2110.0 13 10 7 9 20 23 17 15 16 13
2150.0 1 6 18 25 26 22 17 21 33 31
2190.0 23 17 12 7 10 24 23 9 5 10
2230.0 19 24 27 27 27 25 19 18 27 37
2270.0 36 24 23 24 13 16 25 23 20 20
2310.0 31 39 42 45 37 27 25 30 37 37
2350.0 34 38 43 43 32 26 35 41 39 33
2390.0 27 25 29 16 20 41 38 28 35 37
2430.0 26 17 17 15 16 26 28 33 35 21
2470.0 19 19 26 37 26 13 4 0 6 12
2510.0 4 7 6 1 9 14 16 12 12 24
2550.0 29 27 26 28 37 35 34 35 31 40
2590.0 35 34 46 49 48 49 43 37 36 31
2630.0 40 50 61 76 74 60 54 52 55 59
2670.0 53 67 74 75 89 79 73 76 80 73
2710.0 63 82 99 105 124 166 205 223 233 234
2750.0 224 212 190 172 178 205 221 234 259 274
2790.0 289 320 351 370 400 450 513 565 616 684
2830.0 766 861 980 1153 1400 1724 2152 2650 3165 3659
2870.0 4076 4414 4680 4807 4833 4821 4767 4760 4850 5058
2910.0 5393 5881 6576 7371 8082 8681 9118 9235 9114 8874
2950.0 8580 8417 8541 9024 9670 10000 9703 8762 7309 5763
2990.0 4469 3513 2881 2466 2219 2148 2204 2342 2552 2720
3030.0 2763 2728 2574 2249 1902 1721 1702 1828 2029 2158
3070.0 2209 2190 2029 1748 1508 1394 1252 1081 910 754
3110.0 637 520 410 327 281 261 245 231 213 198
3150.0 196 193 187 174 171 164 135 133 147 125
3190.0 101 100 98 82 72 71 62 70 78 55
3230.0 34 38 48 24 9 20 24 25 19 16
3270.0 32 24 17 20 18 24 21 34 35 14
3310.0 16 22 24 39 32 14 7 0 5 1
3350.0 6 38 43 40 44 38 30 34 30 39
3390.0 55 64 76 77 80 95 107 111 119 126
3430.0 103 104 114 96 109 86 48 56 71 64
3470.0 56 45 21 25 44 58 56 43 23 22
3510.0 37 37 33 41 60 63 56 45 56 68
3550.0 77 79 54 47 47 34 40 61 61 42
3590.0 34 53 51 52 58 52 84 116 107 90
3630.0 79 66 75 92 86 91 93 65 50 52
3670.0 72 90 85 86 87 90 94 97 89 69
3710.0 59 69 78 87 97 82 78 98 80 68
3750.0 80 85 96 96 108 111 100 98 102 111
3790.0 120 117 122 110 81 68 69 87 86 79
3830.0 101 122 107 95 87
##END=
