##TITLE=1,5-Hexadien-3-ol
##JCAMP-DX=4.24
##DATA TYPE=INFRARED SPECTRUM
##ORIGIN=EPA-IR VAPOR PHASE LIBRARY
##OWNER=SRD/NIST
Collection (C) 2018 copyright by the U.S. Secretary of Commerce
on behalf of the United States of America. All rights reserved.
##CAS REGISTRY NO=924-41-4
##MOLFORM=C 6 H 10 O
##$NIST SOURCE=MSDC-IR
##STATE=gas
##XUNITS=1/CM
##YUNITS=ABSORBANCE
##XFACTOR=1.
##YFACTOR=0.001
##DELTAX=3.85796
##FIRSTX=501.5
##LASTX=4000.7
##FIRSTY=1.14
##MAXX=4000.7
##MINX=501.534
##MAXY=0.02253
##MINY=0.00009332
##NPOINTS=908
##XYDATA=(X++(Y..Y))
501.534 1.14 1.03 1.03 1.12 1.2 1.33 1.34 1.32 1.39 1.27
540.114 1.27 1.4 1.36 1.4 1.44 1.38 1.31 1.24 1.26 1.24
578.693 1.22 1.26 1.27 1.31 1.41 1.55 1.62 1.67 1.79 1.88
617.273 2.02 2.25 2.37 2.45 2.47 2.5 2.62 2.73 2.75 2.84
655.852 3.02 3.12 3.27 3.47 3.52 3.54 3.49 3.34 3.14 2.93
694.432 2.7 2.47 2.23 2.01 1.83 1.68 1.61 1.58 1.53 1.55
733.011 1.62 1.69 1.75 1.73 1.64 1.55 1.48 1.33 1.17 1.1
771.591 1.06 1.04 1.01 0.9785 0.9554 0.9597 1.02 1.05 1.1 1.17
810.170 1.23 1.35 1.48 1.71 1.94 2.07 2.27 2.61 2.93 3.19
848.750 3.47 3.76 3.92 4.03 4.14 4.22 4.33 4.46 4.6 4.84
887.330 5.25 5.96 7.08 8.66 10.79 13.39 16.2 19.12 21.44 22.53
925.909 22.51 21.38 19.35 16.79 14.11 11.77 10.02 8.9 8.35 8.41
964.489 9.01 10.03 11.6 13.6 15.56 17.37 18.93 20.06 20.62 20.51
1003.068 19.88 19.06 18.35 17.84 17.54 17.38 17.09 16.7 16.17 15.43
1041.648 14.43 13.33 12.35 11.28 10.25 9.42 8.64 8.08 7.68 7.27
1080.227 7.04 6.84 6.58 6.34 6.23 6.3 6.35 6.4 6.53 6.68
1118.807 6.74 6.7 6.59 6.42 6.11 5.66 5.21 4.82 4.4 4.03
1157.387 3.74 3.53 3.32 3.15 3.18 3.27 3.42 3.62 3.88 4.17
1195.966 4.48 4.83 5.11 5.31 5.53 5.69 5.71 5.77 5.84 5.76
1234.546 5.65 5.66 5.69 5.77 5.85 5.79 5.78 5.84 5.76 5.67
1273.125 5.57 5.46 5.34 5.23 5.11 4.97 4.89 4.84 4.81 4.82
1311.705 4.85 4.89 4.98 5.1 5.24 5.37 5.48 5.56 5.63 5.68
1350.284 5.69 5.64 5.56 5.42 5.25 5.05 4.83 4.57 4.33 4.16
1388.864 4.06 4.06 4.24 4.63 5.17 5.82 6.48 7.08 7.52 7.75
1427.443 7.7 7.42 6.96 6.3 5.5 4.64 3.82 3.11 2.52 2.07
1466.023 1.72 1.47 1.29 1.19 1.11 1.03 0.9611 0.9043 0.8638 0.8285
1504.603 0.7772 0.7343 0.7182 0.7113 0.7015 0.672 0.6476 0.6595 0.6496 0.6372
1543.182 0.6526 0.6774 0.6726 0.6369 0.6426 0.6619 0.6488 0.6639 0.674 0.6852
1581.762 0.7016 0.7104 0.7691 0.8439 0.9081 0.965 1.09 1.24 1.43 1.75
1620.341 2.23 2.84 3.6 4.35 4.95 5.29 5.31 5.04 4.51 3.62
1658.921 2.64 1.81 1.28 1.01 0.8246 0.6752 0.5723 0.5218 0.4868 0.4349
1697.500 0.384 0.3664 0.3583 0.3629 0.3598 0.3183 0.3236 0.3308 0.3076 0.2733
1736.080 0.252 0.2524 0.2459 0.2272 0.2191 0.2215 0.2206 0.2341 0.2244 0.2442
1774.659 0.2714 0.2652 0.2723 0.2796 0.2893 0.3102 0.3321 0.3591 0.3941 0.4607
1813.239 0.5825 0.7219 0.9145 1.15 1.41 1.69 1.93 2.12 2.25 2.27
1851.819 2.17 2 1.77 1.52 1.24 0.9896 0.7895 0.6516 0.571 0.5014
1890.398 0.445 0.4038 0.3733 0.3522 0.3532 0.3601 0.3473 0.3369 0.3397 0.331
1928.978 0.3044 0.3005 0.3047 0.2907 0.2692 0.2838 0.3223 0.3422 0.363 0.3904
1967.557 0.4201 0.4374 0.4416 0.4389 0.4166 0.395 0.3872 0.3554 0.3146 0.2868
2006.137 0.276 0.2653 0.2551 0.2513 0.2432 0.2377 0.2279 0.218 0.2214 0.2359
2044.716 0.2368 0.2236 0.2059 0.2097 0.2008 0.1819 0.1821 0.1892 0.1832 0.1774
2083.296 0.1766 0.179 0.1815 0.1752 0.1818 0.1698 0.1618 0.1709 0.1645 0.1577
2121.875 0.1551 0.1575 0.1708 0.1738 0.1572 0.1568 0.1552 0.1267 0.135 0.1428
2160.455 0.1264 0.1192 0.1253 0.1283 0.1269 0.1255 0.132 0.1316 0.1074 0.117
2199.035 0.1181 0.09332 0.1051 0.1262 0.1568 0.181 0.1745 0.1719 0.1763 0.1692
2237.614 0.1621 0.1525 0.1585 0.171 0.1587 0.1663 0.1776 0.1738 0.1732 0.1978
2276.194 0.209 0.1767 0.1636 0.1635 0.1548 0.1593 0.1762 0.1832 0.1877 0.1884
2314.773 0.1738 0.1761 0.1769 0.1392 0.119 0.1431 0.1668 0.1777 0.1902 0.1838
2353.353 0.1476 0.1464 0.1765 0.1812 0.1763 0.1631 0.1513 0.1705 0.1777 0.1608
2391.932 0.1582 0.1662 0.1909 0.207 0.2019 0.1785 0.1597 0.1703 0.1806 0.1813
2430.512 0.1907 0.1903 0.1829 0.1789 0.1588 0.1569 0.1832 0.2095 0.2329 0.2163
2469.092 0.1851 0.2026 0.208 0.1947 0.1667 0.1576 0.1772 0.1961 0.2021 0.2073
2507.671 0.2063 0.1924 0.1876 0.1838 0.1932 0.2108 0.2064 0.2079 0.2207 0.2219
2546.251 0.2418 0.246 0.2272 0.2425 0.2603 0.2708 0.2483 0.2343 0.2759 0.2864
2584.830 0.257 0.2356 0.2346 0.2299 0.254 0.2773 0.2779 0.2794 0.2643 0.2544
2623.410 0.2817 0.2915 0.2912 0.2954 0.2963 0.2985 0.2873 0.3166 0.327 0.3144
2661.989 0.3132 0.3118 0.3472 0.3668 0.354 0.3685 0.3754 0.3404 0.348 0.3742
2700.569 0.3387 0.3241 0.3625 0.3854 0.371 0.3652 0.3519 0.3177 0.3538 0.3998
2739.148 0.4149 0.4151 0.3971 0.4135 0.4247 0.4343 0.4541 0.4753 0.4599 0.4555
2777.728 0.4868 0.5093 0.5491 0.586 0.6248 0.6564 0.6847 0.7436 0.8327 0.9382
2816.308 1.1 1.34 1.57 1.84 2.16 2.49 2.88 3.3 3.77 4.26
2854.887 4.7 5.14 5.57 5.9 6.16 6.37 6.56 6.64 6.69 6.8
2893.467 7.01 7.32 7.73 8.23 8.75 9.28 9.72 9.97 10.02 9.88
2932.046 9.62 9.21 8.58 7.79 7.01 6.26 5.59 5.05 4.78 4.81
2970.626 5.09 5.6 6.22 6.79 7.29 7.65 7.84 7.89 7.79 7.53
3009.205 7.2 6.8 6.35 5.88 5.31 4.71 4.13 3.61 3.26 3.14
3047.785 3.16 3.32 3.6 4.07 4.78 5.67 6.8 8.22 9.74 10.8
3086.364 11.34 11.14 10.2 8.99 7.26 5.31 3.78 2.68 1.94 1.48
3124.944 1.16 0.9636 0.8288 0.7247 0.6644 0.5911 0.5448 0.5016 0.4597 0.4616
3163.524 0.4517 0.3944 0.3467 0.3009 0.2637 0.2633 0.2692 0.2479 0.1834 0.1574
3202.103 0.1806 0.1969 0.245 0.2491 0.213 0.1787 0.1427 0.133 0.1575 0.1591
3240.683 0.1487 0.1492 0.145 0.1722 0.1826 0.2069 0.2319 0.2159 0.2267 0.2247
3279.262 0.1629 0.1298 0.1661 0.1613 0.1574 0.2005 0.2025 0.1947 0.183 0.1803
3317.842 0.1759 0.1443 0.1486 0.1989 0.1777 0.1616 0.2073 0.2111 0.2354 0.2454
3356.421 0.2289 0.225 0.2325 0.252 0.2597 0.2413 0.2212 0.2551 0.2565 0.2555
3395.001 0.2919 0.2917 0.3138 0.3004 0.2496 0.2747 0.2757 0.2598 0.3016 0.3144
3433.580 0.2728 0.2183 0.203 0.2392 0.2797 0.3051 0.2969 0.2823 0.2844 0.2742
3472.160 0.294 0.3198 0.2844 0.2856 0.2882 0.304 0.3409 0.2972 0.2691 0.2798
3510.740 0.3062 0.3033 0.2167 0.2168 0.2754 0.2841 0.3097 0.2994 0.2885 0.3476
3549.319 0.3719 0.3282 0.3092 0.3234 0.3441 0.3514 0.3606 0.3843 0.4667 0.5867
3587.899 0.6912 0.8579 1.03 1.21 1.49 1.73 1.96 2.21 2.43 2.68
3626.478 2.96 3.29 3.79 4.31 4.57 4.64 4.58 4.36 3.98 3.36
3665.058 2.63 2.01 1.55 1.16 0.8879 0.6855 0.5472 0.4956 0.4568 0.4599
3703.637 0.4587 0.4011 0.3542 0.3358 0.3377 0.303 0.2521 0.2775 0.2587 0.2533
3742.217 0.2949 0.289 0.253 0.222 0.223 0.191 0.1877 0.2029 0.2033 0.1963
3780.797 0.1791 0.2022 0.2188 0.2086 0.1588 0.1424 0.1664 0.1913 0.2124 0.2239
3819.376 0.2342 0.2522 0.2501 0.2604 0.2972 0.2638 0.2719 0.3064 0.2823 0.2909
3857.956 0.2865 0.2734 0.2971 0.3024 0.3168 0.308 0.2942 0.2798 0.2485 0.2712
3896.535 0.293 0.2782 0.2808 0.2513 0.2456 0.2916 0.3051 0.2556 0.2131 0.2436
3935.115 0.203 0.1084 0.1139 0.1473 0.1902 0.231 0.2521 0.2328 0.1877 0.2108
3973.694 0.1784 0.1272 0.1241 0.1182 0.141 0.1901 0.2216 0.209
##END=
