##TITLE=3-Nonanone
##JCAMP-DX=4.24
##DATA TYPE=INFRARED SPECTRUM
##ORIGIN=NIST Mass Spectrometry Data Center
##OWNER=NIST Standard Reference Data Program
Collection (C) 2018 copyright by the U.S. Secretary of Commerce
on behalf of the United States of America. All rights reserved.
##CAS REGISTRY NO=925-78-0
##MOLFORM=C 9 H 18 O
##$NIST SOURCE=MSDC-IR
##SPECTROMETER/DATA SYSTEM=HP-GC/MS/IRD
##STATE=gas
##XUNITS=1/CM
##YUNITS=ABSORBANCE
##XFACTOR=1.0
##YFACTOR=0.000002300
##DELTAX=4.0
##FIRSTX=550.0
##LASTX=3846.0
##FIRSTY=0.000320
##MAXX=3846
##MINX=550
##MAXY=0.023
##MINY=0
##NPOINTS=825
##XYDATA=(X++(Y..Y))
550.0 139 64 32 29 30 72 82 49 51 51
590.0 32 8 20 18 36 47 62 86 71 57
630.0 52 63 72 53 14 12 44 53 52 46
670.0 26 7 0 31 57 61 72 88 91 117
710.0 142 158 191 189 201 233 244 222 184 161
750.0 181 192 171 154 136 118 131 153 158 146
790.0 130 148 180 189 206 200 198 171 152 163
830.0 165 175 173 185 209 198 190 200 206 201
870.0 196 197 196 196 209 227 230 229 218 215
910.0 219 223 236 259 310 348 395 480 562 628
950.0 689 703 678 645 607 587 569 530 484 459
990.0 452 428 401 400 411 432 463 494 529 577
1030.0 610 632 653 667 674 656 617 592 561 530
1070.0 527 509 521 571 627 728 868 1013 1126 1206
1110.0 1251 1251 1228 1228 1231 1216 1192 1170 1151 1161
1150.0 1150 1123 1089 1028 943 852 786 741 715 714
1190.0 727 737 737 723 683 639 583 527 495 466
1230.0 445 437 428 433 446 455 473 495 513 526
1270.0 543 556 561 551 543 543 554 573 612 656
1310.0 708 777 851 940 1036 1140 1254 1372 1502 1609
1350.0 1664 1666 1623 1533 1413 1290 1204 1151 1094 1025
1390.0 934 850 803 803 833 882 951 1006 1043 1079
1430.0 1091 1101 1138 1202 1294 1411 1539 1652 1712 1654
1470.0 1493 1265 1019 812 643 510 424 367 323 281
1510.0 248 229 206 184 174 168 160 146 133 127
1550.0 120 110 107 112 104 96 92 95 111 111
1590.0 94 91 100 106 102 111 122 121 118 117
1630.0 126 129 133 149 164 178 193 211 240 284
1670.0 333 396 490 601 742 916 1147 1468 1914 2473
1710.0 3170 3979 4832 5548 5914 5806 5212 4331 3377 2513
1750.0 1827 1326 991 752 578 456 367 294 246 216
1790.0 188 164 141 118 107 99 89 82 70 62
1830.0 63 58 54 58 61 57 49 44 47 50
1870.0 47 42 32 27 29 27 25 29 39 34
1910.0 22 26 27 28 31 28 28 21 18 25
1950.0 30 33 30 21 20 21 22 23 21 24
1990.0 19 15 14 13 16 15 19 27 33 27
2030.0 21 24 26 22 18 23 26 20 13 13
2070.0 24 24 24 27 17 18 17 17 20 17
2110.0 19 13 9 13 17 16 21 29 26 22
2150.0 21 20 20 18 10 15 24 22 21 21
2190.0 9 10 17 16 22 17 7 11 15 9
2230.0 8 12 14 8 10 11 12 17 17 8
2270.0 7 10 10 14 13 14 14 14 23 27
2310.0 21 16 25 31 28 27 36 39 27 23
2350.0 25 20 15 22 32 25 22 26 20 13
2390.0 12 16 17 14 21 26 19 12 9 7
2430.0 5 7 8 10 11 19 17 9 15 16
2470.0 16 16 12 10 5 5 10 12 9 6
2510.0 9 14 14 9 3 11 20 11 8 7
2550.0 13 21 25 22 23 25 20 21 25 22
2590.0 33 34 23 22 18 18 29 37 36 36
2630.0 47 48 48 52 60 64 64 76 85 93
2670.0 98 99 94 94 90 98 112 109 109 109
2710.0 107 105 111 117 122 135 149 158 166 170
2750.0 182 192 187 192 196 198 213 235 257 272
2790.0 289 318 361 403 453 507 551 603 677 762
2830.0 836 940 1096 1304 1593 1972 2436 2931 3384 3733
2870.0 3937 4060 4157 4214 4245 4271 4328 4479 4744 5130
2910.0 5640 6274 7017 7845 8654 9320 9794 10000 9913 9537
2950.0 8981 8422 7999 7796 7670 7326 6722 5902 5009 4200
2990.0 3499 2853 2308 1899 1575 1316 1127 974 853 750
3030.0 654 584 524 468 416 373 344 318 283 267
3070.0 260 239 226 222 214 201 193 184 184 175
3110.0 165 161 149 145 149 138 132 116 96 100
3150.0 98 102 107 98 102 100 85 80 66 54
3190.0 57 62 64 57 54 50 32 38 45 33
3230.0 22 25 23 19 26 26 16 16 11 5
3270.0 19 38 32 25 25 18 4 6 20 16
3310.0 9 17 16 6 10 28 40 36 19 25
3350.0 38 28 31 31 21 21 40 38 27 29
3390.0 33 42 38 53 74 81 89 91 103 112
3430.0 107 119 126 126 116 90 81 72 62 58
3470.0 56 54 60 49 31 36 42 33 24 22
3510.0 10 3 9 21 32 33 10 12 27 19
3550.0 23 16 17 28 22 14 11 21 37 28
3590.0 4 16 24 21 22 9 17 20 11 17
3630.0 32 38 36 33 36 53 53 53 51 43
3670.0 42 39 28 34 40 24 20 28 22 16
3710.0 44 60 47 33 33 34 44 53 39 35
3750.0 40 34 27 22 24 30 31 39 41 54
3790.0 47 24 24 25 26 21 15 29 56 63
3830.0 48 55 62 64 75
##END=
