##TITLE=6-Undecanone
##JCAMP-DX=4.24
##DATA TYPE=INFRARED SPECTRUM
##ORIGIN=NIST Mass Spectrometry Data Center
##OWNER=NIST Standard Reference Data Program
Collection (C) 2018 copyright by the U.S. Secretary of Commerce
on behalf of the United States of America. All rights reserved.
##CAS REGISTRY NO=927-49-1
##MOLFORM=C 11 H 22 O
##$NIST SOURCE=MSDC-IR
##SPECTROMETER/DATA SYSTEM=HP-GC/MS/IRD
##STATE=gas
##XUNITS=1/CM
##YUNITS=ABSORBANCE
##XFACTOR=1.0
##YFACTOR=0.000003700
##DELTAX=4.0
##FIRSTX=550.0
##LASTX=3846.0
##FIRSTY=0.000659
##MAXX=3846
##MINX=550
##MAXY=0.037
##MINY=0
##NPOINTS=825
##XYDATA=(X++(Y..Y))
550.0 178 108 56 67 40 20 28 16 8 27
590.0 17 11 24 16 4 14 41 59 57 53
630.0 51 51 54 49 39 24 9 24 46 37
670.0 24 23 15 1 8 27 44 62 79 103
710.0 128 156 182 207 242 270 281 269 251 230
750.0 207 180 158 145 128 114 98 86 66 50
790.0 50 52 39 34 33 23 27 27 20 20
830.0 33 42 45 49 62 76 75 72 69 66
870.0 66 71 74 71 81 102 109 108 118 133
910.0 149 164 184 194 213 223 218 211 207 216
950.0 230 242 245 249 257 261 255 250 261 262
990.0 259 267 282 300 318 338 351 356 371 399
1030.0 436 491 577 694 809 886 909 869 790 693
1070.0 607 544 494 454 419 402 396 398 424 463
1110.0 517 598 691 783 879 947 976 980 952 914
1150.0 874 814 741 656 574 508 462 433 433 449
1190.0 474 518 570 612 644 671 678 669 646 625
1230.0 602 585 585 572 538 498 471 455 467 493
1270.0 526 557 583 611 647 683 713 732 742 738
1310.0 731 724 720 735 782 856 951 1066 1170 1248
1350.0 1315 1366 1389 1364 1287 1160 1036 950 886 824
1390.0 748 671 638 639 676 737 788 818 829 830
1430.0 838 862 910 976 1064 1165 1266 1348 1372 1317
1470.0 1187 991 793 621 484 391 317 260 221 193
1510.0 174 154 134 118 114 106 87 75 74 70
1550.0 68 62 50 49 50 47 47 51 55 59
1590.0 57 57 53 56 58 60 60 57 59 68
1630.0 77 80 88 97 108 114 124 153 182 211
1670.0 250 297 362 425 513 634 789 1031 1404 1935
1710.0 2642 3470 4288 4849 4930 4479 3603 2625 1806 1223
1750.0 859 631 484 378 302 250 210 178 153 132
1790.0 112 93 81 73 63 54 50 51 49 39
1830.0 32 32 33 30 24 23 24 24 23 17
1870.0 14 17 21 19 14 14 14 12 12 6
1910.0 11 15 10 7 5 5 5 6 6 3
1950.0 2 3 5 4 5 5 7 6 5 5
1990.0 4 4 1 4 8 11 17 15 11 10
2030.0 14 18 17 16 15 17 12 10 13 12
2070.0 9 10 12 9 9 9 8 9 10 10
2110.0 9 10 8 6 10 10 9 13 17 20
2150.0 17 14 15 17 20 19 14 15 17 18
2190.0 17 12 12 15 17 12 13 15 13 16
2230.0 20 15 9 11 9 9 14 11 11 11
2270.0 10 13 16 13 7 6 7 8 12 14
2310.0 15 13 13 11 7 6 5 12 15 18
2350.0 16 9 6 5 10 12 10 9 10 13
2390.0 15 16 19 20 19 18 19 17 12 13
2430.0 12 13 20 19 11 6 8 13 10 5
2470.0 5 7 7 8 11 13 10 9 7 2
2510.0 2 8 8 10 12 17 16 17 21 21
2550.0 20 18 23 27 30 31 32 37 36 34
2590.0 38 36 31 34 40 44 48 52 53 58
2630.0 60 61 67 71 78 84 90 97 98 104
2670.0 114 110 115 120 117 114 114 117 113 112
2710.0 110 110 115 126 143 153 161 171 182 186
2750.0 189 200 199 196 209 220 229 246 264 285
2790.0 318 354 391 432 472 514 560 613 678 752
2830.0 845 967 1116 1311 1587 1949 2404 2926 3446 3895
2870.0 4211 4397 4527 4596 4588 4508 4429 4457 4601 4869
2910.0 5272 5811 6507 7348 8260 9100 9714 10000 9915 9543
2950.0 9083 8768 8712 8861 8904 8403 7233 5682 4234 3163
2990.0 2430 1915 1556 1295 1092 934 809 720 643 575
3030.0 521 476 433 393 366 344 312 288 270 255
3070.0 245 234 227 210 200 190 179 170 163 158
3110.0 147 141 136 129 129 124 107 107 110 103
3150.0 96 91 91 97 100 94 90 86 76 75
3190.0 68 59 62 60 49 48 47 47 49 43
3230.0 26 20 24 28 28 30 30 22 24 31
3270.0 25 19 20 24 24 21 16 16 15 10
3310.0 16 20 19 17 14 19 24 23 16 12
3350.0 20 18 11 20 36 42 38 29 34 41
3390.0 38 38 46 48 51 65 72 78 88 99
3430.0 98 94 90 87 77 61 53 46 33 23
3470.0 21 22 24 21 24 25 19 16 19 11
3510.0 5 7 12 12 9 11 14 16 10 10
3550.0 9 0 4 15 16 22 19 13 12 15
3590.0 20 18 23 33 31 17 21 26 18 12
3630.0 9 11 24 32 26 18 20 32 33 27
3670.0 25 29 35 37 33 30 30 43 48 30
3710.0 19 31 43 47 43 31 24 32 30 21
3750.0 31 30 24 28 37 46 43 44 42 34
3790.0 35 40 38 37 33 29 34 31 27 28
3830.0 38 42 31 32 37
##END=
