##TITLE=2,6-Dimethyl-1,3,6-heptatriene
##JCAMP-DX=4.24
##DATA TYPE=INFRARED SPECTRUM
##ORIGIN=NIST Mass Spectrometry Data Center
##OWNER=NIST Standard Reference Data Program
Collection (C) 2018 copyright by the U.S. Secretary of Commerce
on behalf of the United States of America. All rights reserved.
##CAS REGISTRY NO=928-67-6
##MOLFORM=C 9 H 14
##$NIST SOURCE=MSDC-IR
##SPECTROMETER/DATA SYSTEM=HP-GC/MS/IRD
##STATE=gas
##XUNITS=1/CM
##YUNITS=ABSORBANCE
##XFACTOR=1.0
##YFACTOR=0.000000700
##DELTAX=4.0
##FIRSTX=550.0
##LASTX=3846.0
##FIRSTY=0.000205
##MAXX=3846
##MINX=550
##MAXY=0.007
##MINY=0
##NPOINTS=825
##XYDATA=(X++(Y..Y))
550.0 293 422 429 467 305 311 557 662 636 545
590.0 476 402 328 239 127 133 219 64 16 146
630.0 171 118 52 0 7 23 15 55 79 86
670.0 154 190 227 302 243 147 156 146 141 199
710.0 223 168 172 163 186 254 165 107 149 127
750.0 121 153 193 231 224 307 351 309 273 260
790.0 351 496 543 512 505 510 593 645 628 692
830.0 765 893 1001 1111 1320 1466 1656 2010 2482 3115
870.0 3940 5056 6450 8044 9430 10000 9621 8478 6780 5012
910.0 3753 2905 2367 2011 1825 1731 1754 1955 2331 2850
950.0 3480 4311 5043 5400 5344 4885 4112 3293 2533 1916
990.0 1515 1273 1121 1044 1132 1270 1243 1222 1189 1035
1030.0 869 716 650 563 521 483 372 350 389 341
1070.0 373 379 276 236 233 249 214 215 279 305
1110.0 285 253 225 185 214 241 163 132 166 195
1150.0 193 204 224 257 334 359 332 344 368 351
1190.0 349 329 307 371 500 684 844 941 995 1007
1230.0 998 910 810 790 812 850 928 998 1180 1371
1270.0 1453 1448 1384 1262 1088 1007 1003 1001 1029 1095
1310.0 1060 956 897 862 787 726 716 755 794 828
1350.0 910 1035 1193 1419 1759 2225 2676 2935 2963 2739
1390.0 2272 1857 1576 1411 1375 1445 1605 1834 2089 2421
1430.0 2743 2995 3214 3384 3490 3567 3570 3396 3027 2564
1470.0 2087 1625 1261 1029 873 769 692 641 586 538
1510.0 487 465 462 463 457 420 443 505 490 456
1550.0 485 534 621 700 714 746 854 929 1004 1177
1590.0 1387 1630 1855 2094 2279 2348 2371 2333 2274 2368
1630.0 2589 2875 3122 3278 3305 3173 2814 2316 1836 1437
1670.0 1094 850 680 580 503 416 391 380 338 324
1710.0 296 293 301 266 243 252 292 314 333 390
1750.0 470 535 619 752 901 1061 1195 1283 1278 1220
1790.0 1098 947 814 693 577 504 459 417 370 346
1830.0 318 266 232 213 175 173 171 157 131 122
1870.0 139 141 142 118 96 84 75 77 104 112
1910.0 107 95 78 67 57 63 36 47 71 74
1950.0 64 61 72 35 14 67 74 37 39 43
1990.0 52 68 50 36 27 27 26 39 63 82
2030.0 88 63 51 64 56 48 48 26 23 51
2070.0 71 54 41 45 41 55 70 74 48 44
2110.0 50 72 94 62 63 68 69 91 68 61
2150.0 42 5 18 24 19 35 64 72 74 76
2190.0 78 66 59 55 60 75 65 71 73 36
2230.0 37 49 56 50 41 34 27 24 13 15
2270.0 56 71 51 55 23 1 42 40 28 15
2310.0 12 55 93 110 107 112 128 120 104 95
2350.0 87 107 116 116 144 134 99 103 98 68
2390.0 40 53 79 86 79 74 89 70 37 58
2430.0 80 70 82 96 94 106 117 112 116 76
2470.0 86 81 60 67 96 97 75 79 77 75
2510.0 63 79 91 95 117 118 114 83 72 73
2550.0 42 40 36 58 100 103 114 85 95 128
2590.0 140 136 91 95 118 112 95 104 116 107
2630.0 116 120 133 132 130 152 144 146 147 118
2670.0 143 154 130 165 176 158 183 177 188 220
2710.0 232 275 270 276 322 342 350 350 369 352
2750.0 315 289 292 307 291 333 379 421 418 407
2790.0 494 542 554 619 696 808 930 1107 1318 1487
2830.0 1660 1838 2001 2125 2255 2392 2492 2622 2777 2919
2870.0 3093 3380 3704 4027 4420 4783 5117 5425 5754 6077
2910.0 6347 6661 6938 7162 7290 7259 7103 6916 6741 6521
2950.0 6318 6089 5833 5794 6179 7025 8033 8628 8774 8421
2990.0 7475 6399 5573 4861 4260 3936 3783 3737 3762 3782
3030.0 3709 3493 3207 2873 2543 2339 2270 2358 2619 3005
3070.0 3615 4413 5320 6092 6185 5663 4784 3459 2250 1591
3110.0 1216 934 794 702 632 580 507 440 349 321
3150.0 355 412 404 365 375 323 239 239 246 227
3190.0 181 206 259 200 142 167 173 150 175 154
3230.0 133 140 102 101 156 171 112 102 136 98
3270.0 69 107 135 133 104 52 3 59 182 197
3310.0 163 126 121 88 129 156 143 135 161 177
3350.0 158 166 165 156 108 105 120 112 96 108
3390.0 105 126 172 172 177 197 211 138 124 117
3430.0 127 174 223 243 209 122 82 62 67 119
3470.0 109 69 19 89 155 145 187 187 126 89
3510.0 44 80 83 108 162 103 122 99 60 78
3550.0 59 74 83 60 73 117 104 96 96 105
3590.0 143 163 107 95 137 143 124 77 66 124
3630.0 65 13 103 133 180 154 47 2 48 128
3670.0 124 52 3 62 91 62 53 73 52 60
3710.0 81 41 3 11 43 66 167 169 191 223
3750.0 127 72 114 95 49 90 127 145 103 89
3790.0 130 147 219 216 130 88 87 69 51 61
3830.0 77 178 200 170 188
##END=
