##TITLE=5-Hexyn-1-ol
##JCAMP-DX=4.24
##DATA TYPE=INFRARED SPECTRUM
##ORIGIN=NIST Mass Spectrometry Data Center
##OWNER=NIST Standard Reference Data Program
Collection (C) 2018 copyright by the U.S. Secretary of Commerce
on behalf of the United States of America. All rights reserved.
##CAS REGISTRY NO=928-90-5
##MOLFORM=C 6 H 10 O
##$NIST SOURCE=MSDC-IR
##SPECTROMETER/DATA SYSTEM=HP-GC/MS/IRD
##STATE=gas
##XUNITS=1/CM
##YUNITS=ABSORBANCE
##XFACTOR=1.0
##YFACTOR=0.000002400
##DELTAX=4.0
##FIRSTX=550.0
##LASTX=3846.0
##FIRSTY=0.001116
##MAXX=3846
##MINX=550
##MAXY=0.024
##MINY=0
##NPOINTS=825
##XYDATA=(X++(Y..Y))
550.0 465 326 222 223 198 183 205 217 227 211
590.0 240 335 455 626 894 1326 1949 2778 3971 5693
630.0 8175 10000 9182 7097 5125 3432 2207 1415 907 592
670.0 403 276 194 145 105 56 54 61 35 29
710.0 15 12 32 38 43 28 21 29 56 72
750.0 49 42 51 51 37 34 35 30 45 55
790.0 48 45 47 65 63 55 55 53 65 68
830.0 79 89 103 127 137 144 153 158 151 151
870.0 159 154 154 157 166 195 227 254 289 337
910.0 402 466 525 583 637 684 733 765 784 817
950.0 839 858 891 925 957 998 1062 1133 1197 1252
990.0 1287 1315 1342 1367 1430 1561 1752 2024 2359 2713
1030.0 3024 3273 3463 3591 3631 3658 3695 3701 3654 3504
1070.0 3252 2903 2485 2052 1675 1360 1098 895 746 635
1110.0 571 522 487 480 490 504 501 505 523 523
1150.0 519 521 529 524 518 535 551 549 566 588
1190.0 616 645 668 690 718 749 795 869 976 1117
1230.0 1335 1653 2050 2450 2694 2748 2715 2547 2189 1745
1270.0 1375 1144 1019 944 897 869 837 829 832 830
1310.0 840 858 885 909 916 921 922 917 894 869
1350.0 849 832 824 821 834 865 903 939 965 987
1390.0 967 919 858 788 711 650 616 618 652 711
1430.0 807 900 963 999 1006 968 890 807 724 662
1470.0 608 550 493 439 382 314 256 205 166 137
1510.0 111 93 88 82 71 60 53 52 44 37
1550.0 32 28 31 36 28 20 18 16 14 13
1590.0 13 8 0 0 1 5 10 7 3 2
1630.0 1 6 5 4 6 6 4 3 7 13
1670.0 13 6 4 9 18 16 9 12 13 12
1710.0 14 16 16 14 18 20 18 12 10 14
1750.0 14 18 18 9 10 19 28 24 20 19
1790.0 20 19 20 17 16 18 16 20 23 24
1830.0 18 16 13 12 18 21 24 22 20 19
1870.0 18 24 23 19 25 29 26 24 23 28
1910.0 23 16 21 26 21 20 23 25 25 19
1950.0 18 20 18 20 26 24 20 24 27 30
1990.0 34 34 31 31 35 38 34 35 43 44
2030.0 46 52 47 45 49 53 53 52 52 50
2070.0 51 62 68 80 107 129 157 203 260 313
2110.0 364 403 423 407 349 292 224 150 95 67
2150.0 53 44 38 33 28 27 25 25 26 26
2190.0 27 29 20 15 16 17 18 21 27 23
2230.0 16 20 21 18 18 19 23 22 22 24
2270.0 29 27 24 23 19 17 18 21 22 21
2310.0 17 18 19 18 19 20 16 16 24 25
2350.0 19 19 27 30 31 25 29 42 41 34
2390.0 32 30 31 35 31 27 31 31 34 31
2430.0 27 24 26 31 29 27 20 20 19 17
2470.0 18 22 21 19 19 17 17 22 30 29
2510.0 19 19 21 22 23 22 19 19 23 26
2550.0 24 22 20 16 12 23 31 28 29 35
2590.0 34 26 27 31 39 49 45 37 45 51
2630.0 53 58 68 82 93 96 98 114 119 115
2670.0 127 130 126 136 151 165 173 172 164 156
2710.0 158 161 164 174 185 189 198 215 223 228
2750.0 244 250 254 264 269 282 288 294 309 327
2790.0 339 346 359 383 408 428 459 503 565 641
2830.0 730 837 967 1147 1366 1580 1823 2090 2377 2669
2870.0 2941 3182 3351 3442 3470 3464 3451 3456 3532 3721
2910.0 4003 4364 4795 5289 5809 6295 6708 7034 7219 7190
2950.0 6926 6411 5719 4961 4152 3362 2645 2041 1563 1206
2990.0 935 722 581 480 406 347 307 266 234 211
3030.0 190 170 156 138 121 113 110 89 77 91
3070.0 80 59 68 70 68 59 53 51 47 38
3110.0 31 35 36 31 25 27 34 32 35 37
3150.0 24 18 28 30 19 20 23 21 26 28
3190.0 13 11 18 26 36 35 33 39 36 37
3230.0 49 48 53 71 83 95 115 138 165 202
3270.0 250 317 411 491 557 690 918 1203 1449 1588
3310.0 1851 2400 2979 3270 3148 3011 3099 2617 1652 1030
3350.0 738 566 441 349 275 203 162 129 106 105
3390.0 97 76 67 82 90 87 86 70 57 62
3430.0 74 80 80 73 70 85 84 86 93 87
3470.0 79 81 83 76 70 75 88 87 74 56
3510.0 61 79 80 67 55 51 61 64 67 76
3550.0 61 64 73 72 91 107 111 112 115 119
3590.0 122 133 154 180 203 219 247 267 269 293
3630.0 334 357 412 474 554 672 792 923 1051 1140
3670.0 1151 1087 981 841 677 510 383 294 237 193
3710.0 159 143 144 128 108 117 113 92 87 80
3750.0 86 86 81 91 90 87 78 81 94 88
3790.0 85 78 69 73 73 84 99 99 89 82
3830.0 78 90 98 88 90
##END=
