##TITLE=trans-3-Hexen-1-ol
##JCAMP-DX=4.24
##DATA TYPE=INFRARED SPECTRUM
##ORIGIN=NIST Mass Spectrometry Data Center
##OWNER=NIST Standard Reference Data Program
Collection (C) 2018 copyright by the U.S. Secretary of Commerce
on behalf of the United States of America. All rights reserved.
##CAS REGISTRY NO=928-97-2
##MOLFORM=C 6 H 12 O
##$NIST SOURCE=MSDC-IR
##SPECTROMETER/DATA SYSTEM=HP-GC/MS/IRD
##STATE=gas
##XUNITS=1/CM
##YUNITS=ABSORBANCE
##XFACTOR=1.0
##YFACTOR=0.000000600
##DELTAX=4.0
##FIRSTX=550.0
##LASTX=3846.0
##FIRSTY=0.000205
##MAXX=3846
##MINX=550
##MAXY=0.006
##MINY=0
##NPOINTS=825
##XYDATA=(X++(Y..Y))
550.0 342 254 140 199 211 151 143 130 175 290
590.0 110 24 147 131 93 48 42 179 277 171
630.0 58 90 61 45 117 128 95 57 69 116
670.0 155 135 66 79 90 41 78 105 43 40
710.0 62 71 102 88 89 93 10 26 108 165
750.0 169 179 177 141 176 175 143 206 270 233
790.0 215 248 209 207 237 280 343 324 461 481
830.0 336 350 414 488 521 552 605 631 673 717
870.0 710 722 726 750 785 822 865 853 845 838
910.0 793 773 850 899 917 1013 1154 1388 1671 1975
950.0 2390 2793 3125 3392 3593 3721 3629 3392 3242 3054
990.0 2842 2730 2689 2764 2920 3094 3412 3866 4380 5110
1030.0 6050 6852 7420 7751 7674 7158 6385 5618 4956 4330
1070.0 3741 3276 2828 2389 2053 1809 1577 1394 1284 1160
1110.0 1027 960 903 870 846 842 855 839 842 866
1150.0 861 854 915 966 999 990 988 1064 1084 1035
1190.0 1058 1058 1002 1016 990 941 900 911 909 825
1230.0 783 781 796 765 774 815 808 805 823 881
1270.0 929 959 1002 1072 1115 1164 1180 1182 1196 1178
1310.0 1146 1098 1067 1083 1133 1165 1176 1236 1225 1175
1350.0 1190 1216 1270 1361 1437 1540 1688 1811 1903 1927
1390.0 1871 1792 1646 1454 1292 1250 1214 1193 1217 1250
1430.0 1281 1287 1299 1297 1287 1280 1297 1331 1284 1212
1470.0 1148 1079 959 818 706 600 497 418 353 349
1510.0 328 266 224 193 171 163 169 196 204 151
1550.0 119 112 123 128 121 109 98 89 74 79
1590.0 91 106 147 154 119 118 126 124 124 128
1630.0 105 137 163 152 188 215 176 133 126 133
1670.0 117 113 156 203 199 194 264 388 469 480
1710.0 494 494 428 339 262 246 268 264 283 314
1750.0 308 268 229 231 246 265 268 228 203 223
1790.0 222 177 160 145 131 109 95 88 75 80
1830.0 74 65 75 86 89 77 57 62 62 63
1870.0 50 37 63 56 54 49 49 41 13 43
1910.0 35 40 70 55 41 27 9 14 44 44
1950.0 21 9 0 14 38 36 23 12 12 12
1990.0 28 56 48 36 49 46 28 35 54 69
2030.0 80 97 94 80 67 69 95 85 73 88
2070.0 72 68 76 74 49 36 43 38 26 40
2110.0 49 31 36 51 24 11 18 14 29 48
2150.0 58 55 53 61 63 67 54 38 55 61
2190.0 48 50 39 25 19 11 20 42 57 72
2230.0 63 39 28 30 30 13 24 37 22 8
2270.0 14 15 31 61 44 39 49 40 31 48
2310.0 49 27 44 76 60 63 71 35 50 73
2350.0 78 78 65 85 108 95 74 59 51 29
2390.0 26 45 41 34 36 48 59 48 41 38
2430.0 28 55 57 33 26 13 42 44 35 59
2470.0 34 22 30 22 20 23 26 30 34 31
2510.0 30 47 43 36 47 46 36 41 51 43
2550.0 44 37 3 18 54 43 34 44 34 36
2590.0 75 78 53 52 54 63 90 88 29 2
2630.0 35 65 77 74 73 86 90 101 121 110
2670.0 113 115 124 167 153 137 148 189 202 193
2710.0 257 307 319 330 337 361 371 394 408 422
2750.0 459 463 435 437 486 478 478 525 552 557
2790.0 555 595 651 678 721 812 901 997 1108 1247
2830.0 1434 1666 1914 2196 2539 2876 3252 3710 4136 4531
2870.0 5001 5499 5917 6174 6319 6526 6658 6725 6884 7106
2910.0 7387 7670 7979 8321 8573 8800 9028 9108 9018 8861
2950.0 8719 8623 8694 9113 9762 10000 9629 8988 7942 6481
2990.0 5183 4314 3735 3280 2923 2631 2403 2244 2114 1969
3030.0 1814 1639 1495 1356 1177 1005 878 753 673 612
3070.0 538 469 433 418 415 399 361 343 254 226
3110.0 246 225 228 224 227 172 102 128 184 184
3150.0 140 129 135 160 160 122 117 100 113 127
3190.0 90 63 125 143 84 98 101 56 42 46
3230.0 20 53 40 16 45 23 25 69 65 87
3270.0 98 69 55 35 30 18 20 38 24 18
3310.0 87 106 101 97 32 84 80 52 38 13
3350.0 23 53 118 105 42 22 57 112 113 88
3390.0 82 96 110 92 102 127 116 127 131 132
3430.0 151 130 140 124 71 74 105 117 108 100
3470.0 130 140 101 112 144 140 137 195 206 154
3510.0 149 164 169 146 120 151 173 141 126 106
3550.0 134 214 210 168 197 195 158 170 205 214
3590.0 241 301 337 376 418 513 613 668 734 803
3630.0 787 690 668 726 811 916 1082 1195 1265 1374
3670.0 1334 1165 1034 865 693 594 472 363 340 324
3710.0 300 311 272 185 182 217 206 196 281 270
3750.0 185 231 232 174 195 213 241 167 100 149
3790.0 160 123 137 176 171 179 179 194 199 160
3830.0 139 157 157 146 165
##END=
