##TITLE=2-Chloroethyl thiocyanate
##JCAMP-DX=4.24
##DATA TYPE=INFRARED SPECTRUM
##ORIGIN=EPA-IR VAPOR PHASE LIBRARY
##OWNER=SRD/NIST
Collection (C) 2018 copyright by the U.S. Secretary of Commerce
on behalf of the United States of America. All rights reserved.
##CAS REGISTRY NO=928-57-4
##MOLFORM=C 3 H 4 Cl N S
##$NIST SOURCE=MSDC-IR
##STATE=gas
##XUNITS=1/CM
##YUNITS=ABSORBANCE
##XFACTOR=1.
##YFACTOR=0.001
##DELTAX=1.92934
##FIRSTX=549.9
##LASTX=3999.5
##FIRSTY=1.148
##MAXX=3999.53
##MINX=549.863
##MAXY=0.048194
##MINY=0
##NPOINTS=1789
##XYDATA=(X++(Y..Y))
549.863 1.148 1.0794 1.1213 1.3356 1.415 1.2332 1.0825 0.9433 0.9446 1.0274
569.156 1.1986 1.2088 1.1535 1.1714 1.1728 1.3137 1.4034 1.486 1.5028 1.529
588.450 1.6269 1.7582 1.954 2.014 2.094 2.244 2.394 2.644 2.764 2.824
607.743 3.044 3.134 3.234 3.464 3.524 3.604 3.714 3.754 3.864 4.084
627.037 4.184 4.254 4.364 4.554 4.694 4.694 4.804 5.014 5.204 5.494
646.330 5.904 6.484 7.104 7.774 8.534 9.404 10.434 11.534 12.634 13.694
665.624 14.694 15.694 16.944 18.344 19.834 21.444 23.214 25.204 27.374 29.724
684.917 32.424 35.464 38.644 41.924 44.974 47.194 48.194 47.954 46.564 44.444
704.210 41.804 38.604 34.674 29.704 23.804 17.604 12.484 9.144 7.144 6.124
723.504 5.714 5.604 5.674 5.974 6.514 7.224 8.204 9.404 10.874 12.634
742.797 14.584 16.684 18.754 20.644 22.304 23.624 24.454 24.924 24.944 24.474
762.091 23.314 21.334 19.034 16.574 14.144 12.064 10.374 8.924 7.804 7.074
781.384 6.464 6.014 5.664 5.324 4.964 4.614 4.264 3.914 3.714 3.514
800.678 3.294 3.234 3.214 3.124 3.044 3.024 3.054 3.064 3.064 3.044
819.971 3.064 3.154 3.154 3.174 3.184 3.234 3.344 3.354 3.394 3.474
839.264 3.594 3.774 4.034 4.304 4.494 4.824 5.454 6.334 7.584 9.154
858.558 10.964 13.024 14.974 16.574 17.644 17.964 17.604 17.044 16.714 16.544
877.851 16.034 15.034 13.724 12.224 10.534 8.904 7.624 6.604 5.744 5.084
897.145 4.774 4.624 4.434 4.434 4.524 4.524 4.714 4.924 5.044 5.254
916.438 5.544 5.844 6.144 6.404 6.594 6.724 6.814 6.864 6.724 6.494
935.732 6.254 6.054 5.894 5.614 5.254 4.814 4.464 4.174 3.794 3.534
955.025 3.314 3.014 2.804 2.654 2.524 2.424 2.384 2.294 2.264 2.274
974.318 2.254 2.254 2.234 2.214 2.214 2.204 2.194 2.174 2.184 2.224
993.612 2.264 2.324 2.334 2.374 2.504 2.664 2.824 3.024 3.234 3.444
1012.905 3.604 3.714 3.844 4.064 4.244 4.384 4.564 4.704 4.834 4.854
1032.199 4.774 4.654 4.444 4.244 4.114 3.904 3.644 3.344 2.904 2.414
1051.492 1.984 1.7045 1.5538 1.441 1.3408 1.2539 1.1402 1.0846 1.0938 1.0092
1070.786 0.9623 1.0129 0.9862 0.92112 0.87626 0.84311 0.81965 0.81981 0.90831 0.9838
1090.079 0.9691 0.9544 0.9829 1.0116 1.1254 1.2681 1.3378 1.3503 1.3793 1.5379
1109.372 1.6949 1.864 2.124 2.344 2.584 2.894 3.224 3.474 3.654 3.754
1128.666 3.834 4.004 4.034 4.044 4.064 3.894 3.794 3.634 3.334 3.154
1147.959 3.004 2.844 2.734 2.574 2.394 2.214 2.124 2.254 2.124 1.984
1167.253 1.984 1.934 1.844 1.7658 1.7398 1.8043 1.914 1.864 1.964 2.104
1186.546 2.304 2.474 2.694 2.844 3.214 4.004 4.684 5.414 6.604 8.444
1205.840 10.404 13.174 16.844 20.584 24.464 27.344 28.434 28.754 29.334 29.034
1225.133 28.184 27.714 25.914 22.244 17.744 13.694 10.694 8.774 7.644 7.014
1244.426 6.804 6.874 7.064 7.494 8.134 8.924 10.004 11.454 13.214 15.274
1263.720 17.694 20.444 23.524 26.634 29.564 32.134 34.004 35.274 35.864 35.994
1283.013 35.824 35.184 34.254 32.824 31.404 30.134 28.354 25.894 23.224 20.914
1302.307 19.214 18.104 17.194 16.304 15.384 14.214 12.874 11.564 10.414 9.414
1321.600 8.494 7.694 7.014 6.374 5.774 5.254 4.844 4.504 4.144 3.854
1340.894 3.554 3.294 3.154 2.984 2.804 2.624 2.454 2.374 2.274 2.234
1360.187 2.204 2.124 2.134 2.134 2.074 2.074 2.054 2.044 2.044 2.094
1379.480 2.134 2.174 2.324 2.474 2.604 2.764 3.084 3.524 3.984 4.444
1398.774 4.944 5.534 6.214 6.934 7.684 8.454 9.184 9.894 10.614 11.234
1418.067 11.804 12.334 12.804 13.304 13.734 14.094 14.494 14.894 15.104 15.214
1437.361 15.214 15.044 14.794 14.454 14.084 13.784 13.544 13.254 12.714 12.034
1456.654 11.004 9.644 8.544 7.654 6.774 5.954 5.244 4.614 4.074 3.554
1475.948 3.054 2.574 2.294 2.064 1.8053 1.6573 1.5332 1.478 1.4592 1.4108
1495.241 1.4027 1.4005 1.3357 1.2872 1.2985 1.2851 1.2986 1.2387 1.206 1.2292
1514.534 1.2705 1.2471 1.2343 1.2583 1.1816 1.1853 1.1553 1.0563 1.051 1.0538
1533.828 1.02 0.9955 0.9349 0.91163 0.9217 0.87914 0.823665 0.772 0.708 0.636
1553.121 0.648 0.692 0.655 0.67 0.651 0.576 0.592 0.611 0.61 0.589
1572.415 0.573 0.524 0.526 0.56 0.521 0.536 0.568 0.583 0.562 0.478
1591.708 0.444 0.487 0.487 0.445 0.416 0.443 0.435 0.434 0.468 0.43
1611.002 0.378 0.35 0.347 0.33 0.303 0.33 0.366 0.425 0.406 0.332
1630.295 0.301 0.319 0.312 0.312 0.388 0.446 0.459 0.43 0.44 0.384
1649.588 0.368 0.429 0.417 0.343 0.322 0.321 0.356 0.454 0.463 0.407
1668.882 0.399 0.467 0.508 0.504 0.458 0.424 0.482 0.454 0.439 0.485
1688.175 0.468 0.498 0.468 0.445 0.473 0.453 0.418 0.426 0.428 0.43
1707.469 0.471 0.458 0.391 0.353 0.371 0.37 0.361 0.391 0.398 0.38
1726.762 0.404 0.423 0.385 0.34 0.333 0.331 0.358 0.39 0.39 0.386
1746.056 0.394 0.405 0.402 0.439 0.413 0.366 0.383 0.431 0.481 0.464
1765.349 0.446 0.472 0.458 0.399 0.392 0.428 0.416 0.41 0.393 0.359
1784.642 0.358 0.363 0.389 0.401 0.381 0.406 0.444 0.423 0.345 0.33
1803.936 0.358 0.391 0.382 0.352 0.355 0.341 0.38 0.402 0.373 0.335
1823.229 0.34 0.369 0.389 0.431 0.404 0.348 0.34 0.334 0.331 0.37
1842.523 0.41 0.388 0.369 0.386 0.401 0.402 0.377 0.336 0.358 0.391
1861.816 0.428 0.458 0.417 0.405 0.455 0.476 0.449 0.391 0.389 0.404
1881.110 0.431 0.421 0.389 0.448 0.46 0.445 0.441 0.461 0.488 0.483
1900.403 0.451 0.452 0.498 0.508 0.495 0.514 0.512 0.499 0.49 0.465
1919.696 0.48 0.536 0.532 0.491 0.523 0.524 0.506 0.523 0.484 0.42
1938.990 0.4 0.418 0.447 0.438 0.406 0.419 0.449 0.411 0.424 0.49
1958.283 0.46 0.451 0.51 0.549 0.548 0.529 0.494 0.519 0.537 0.547
1977.577 0.549 0.511 0.531 0.551 0.594 0.636 0.631 0.629 0.687 0.7308
1996.870 0.7313 0.7478 0.7626 0.7353 0.7325 0.7576 0.7871 0.8077 0.7611 0.7595
2016.164 0.7635 0.718 0.692 0.7313 0.7584 0.7529 0.691 0.68 0.736 0.715
2035.457 0.671 0.615 0.591 0.574 0.564 0.567 0.552 0.524 0.494 0.528
2054.750 0.571 0.539 0.528 0.578 0.606 0.631 0.624 0.606 0.63 0.646
2074.044 0.684 0.701 0.7261 0.7502 0.707 0.709 0.7393 0.7808 0.7661 0.72
2093.337 0.7484 0.8048 0.8419 0.86777 0.90083 0.9404 0.9519 0.9609 0.9909 1.023
2112.631 1.0621 1.128 1.1914 1.2454 1.3079 1.3845 1.5096 1.6426 1.7563 1.894
2131.924 2.104 2.374 2.714 3.124 3.674 4.344 5.134 6.094 7.324 8.754
2151.218 10.354 12.114 13.854 15.414 16.694 17.514 17.884 17.914 17.704 17.394
2170.511 16.914 16.114 14.724 12.604 10.044 7.634 5.744 4.424 3.574 2.994
2189.804 2.514 2.164 1.914 1.6611 1.4836 1.3269 1.193 1.1668 1.1456 1.0795
2209.098 1.0123 0.9677 0.9543 0.9433 0.90282 0.89735 0.90163 0.830004 0.7638 0.7695
2228.391 0.81767 0.7812 0.728 0.704 0.669 0.651 0.669 0.7 0.671 0.662
2247.685 0.672 0.652 0.645 0.636 0.649 0.646 0.622 0.618 0.645 0.701
2266.978 0.69 0.695 0.7541 0.7567 0.7437 0.7279 0.7717 0.776 0.7486 0.8126
2286.272 0.84108 0.85954 0.85687 0.8129 0.7836 0.7817 0.829787 0.8552 0.84463 0.8621
2305.565 0.85114 0.8461 0.8396 0.85488 0.84897 0.8131 0.8126 0.8132 0.85252 0.88349
2324.858 0.86336 0.7925 0.8085 0.823464 0.8002 0.805 0.82215 0.803 0.7511 0.722
2344.152 0.664 0.68 0.707 0.691 0.708 0.648 0.631 0.719 0.723 0.7562
2363.445 0.8084 0.82222 0.789 0.7698 0.816 0.828356 0.84693 0.89965 0.89289 0.91417
2382.739 0.9559 0.92171 0.9442 0.9294 0.9651 1.0167 0.9732 0.9665 0.9568 0.9474
2402.032 0.9927 1.0186 0.9787 0.9629 0.9461 0.89781 0.91417 0.936 0.92379 0.91781
2421.326 0.92308 0.9488 0.9443 0.9355 0.9347 0.9537 0.9949 1.0114 0.9777 0.9344
2440.619 0.9263 0.92124 0.9252 0.9137 0.89398 0.8817 0.827306 0.797 0.81442 0.84605
2459.912 0.87204 0.7749 0.695 0.693 0.649 0.635 0.663 0.671 0.585 0.589
2479.206 0.678 0.688 0.708 0.708 0.658 0.625 0.674 0.704 0.664 0.665
2498.499 0.687 0.684 0.687 0.715 0.706 0.667 0.7 0.742 0.691 0.716
2517.793 0.7763 0.7372 0.7425 0.795 0.824155 0.85818 0.87543 0.90692 0.9727 1.0048
2537.086 1.0244 1.0975 1.196 1.1971 1.1728 1.2237 1.2388 1.2737 1.2372 1.1561
2556.380 1.1281 1.0773 1.0156 0.9447 0.86465 0.81703 0.8101 0.7903 0.7497 0.719
2575.673 0.723 0.682 0.636 0.622 0.613 0.585 0.535 0.547 0.544 0.558
2594.966 0.597 0.628 0.595 0.625 0.7276 0.7686 0.7851 0.7612 0.7616 0.7402
2614.260 0.7457 0.7984 0.84151 0.829633 0.7739 0.7448 0.704 0.679 0.669 0.659
2633.553 0.671 0.675 0.616 0.636 0.687 0.662 0.642 0.666 0.708 0.677
2652.847 0.685 0.662 0.65 0.664 0.606 0.581 0.664 0.71 0.705 0.66
2672.140 0.633 0.689 0.66 0.592 0.621 0.648 0.634 0.719 0.7283 0.643
2691.434 0.609 0.634 0.645 0.61 0.587 0.619 0.598 0.557 0.633 0.647
2710.727 0.622 0.677 0.7449 0.7314 0.7411 0.7669 0.7726 0.83823 0.84166 0.81521
2730.020 0.7954 0.7795 0.7985 0.81 0.88809 0.9458 0.9911 1.0867 1.0574 0.9686
2749.314 0.9739 1.0186 1.0385 1.0129 0.9282 0.9437 0.9459 0.7751 0.719 0.708
2768.607 0.642 0.663 0.708 0.67 0.618 0.573 0.553 0.568 0.551 0.649
2787.901 0.7884 0.7487 0.632 0.64 0.696 0.7347 0.85515 0.9772 1.0551 1.0239
2807.194 1.0287 1.1814 1.2785 1.3137 1.3726 1.5092 1.4845 1.4801 1.695 1.7319
2826.488 1.7682 1.854 1.974 2.064 2.144 2.314 2.324 2.274 2.334 2.434
2845.781 2.584 2.744 2.774 2.904 2.904 2.854 3.004 3.044 3.084 3.164
2865.074 3.094 3.044 3.134 3.104 3.074 3.114 3.134 3.234 3.224 3.084
2884.368 3.054 2.944 2.884 2.794 2.684 2.644 2.504 2.354 2.164 2.054
2903.661 2.014 1.974 1.964 2.004 2.084 2.184 2.334 2.494 2.734 3.134
2922.955 3.464 3.854 4.364 4.744 5.284 5.834 6.404 7.074 7.724 8.534
2942.248 9.434 10.144 10.744 11.414 12.214 12.954 13.344 13.694 14.124 14.524
2961.542 14.694 14.814 14.974 14.854 14.874 14.874 14.614 14.174 13.644 13.154
2980.835 12.584 11.984 11.324 10.574 9.824 9.014 8.264 7.524 6.854 6.274
3000.128 5.924 5.594 5.154 4.754 4.364 4.074 3.824 3.494 3.164 3.034
3019.422 2.984 2.794 2.554 2.444 2.294 2.044 1.904 1.834 1.5406 1.4212
3038.715 1.5591 1.4066 1.2784 1.1946 1.2088 1.2806 1.0775 1.095 1.1707 0.9511
3058.009 0.9414 0.9322 0.90095 0.90801 0.832364 0.711 0.632 0.675 0.586 0.523
3077.302 0.606 0.768 0.84692 0.7394 0.578 0.332 0.3 0.528 0.591 0.588
3096.596 0.654 0.586 0.533 0.564 0.483 0.344 0.396 0.491 0.489 0.338
3115.889 0.33 0.437 0.418 0.394 0.334 0.35 0.388 0.3 0.294 0.418
3135.182 0.352 0.273 0.382 0.377 0.337 0.371 0.351 0.332 0.274 0.206
3154.476 0.196 0.288 0.339 0.323 0.301 0.307 0.187 0.085 0.137 0.158
3173.769 0.292 0.288 0.224 0.226 0.218 0.145 0.206 0.268 0.226 0.263
3193.063 0.364 0.462 0.301 0.228 0.188 0.202 0.243 0.283 0.209 0.207
3212.356 0.277 0.252 0.288 0.251 0.317 0.33 0.346 0.35 0.297 0.258
3231.650 0.296 0.248 0.133 0.095 0.107 0.226 0.335 0.46 0.337 0.289
3250.943 0.412 0.358 0.396 0.476 0.422 0.366 0.48 0.532 0.396 0.22
3270.236 0.18 0.233 0.099 0.08 0.316 0.396 0.311 0.354 0.294 0.144
3289.530 0.087 0.126 0.132 0.171 0.179 0.209 0.214 0.18 0.313 0.253
3308.823 0.154 0.087 0.099 0.235 0.238 0.345 0.319 0.131 0.038 0.003
3328.117 0.129 0.195 0.177 0.127 0.134 0.274 0.284 0.207 0.084 0.135
3347.410 0.319 0.247 0.163 0.421 0.513 0.416 0.504 0.494 0.427 0.403
3366.704 0.24 0.241 0.402 0.333 0.362 0.369 0.345 0.421 0.367 0.35
3385.997 0.427 0.328 0.242 0.242 0.288 0.335 0.29 0.38 0.43 0.355
3405.290 0.371 0.443 0.497 0.506 0.459 0.229 0.227 0.269 0.424 0.516
3424.584 0.334 0.402 0.407 0.353 0.485 0.51 0.409 0.349 0.249 0.237
3443.877 0.266 0.243 0.436 0.572 0.376 0.246 0.307 0.318 0.356 0.488
3463.171 0.51 0.502 0.406 0.286 0.332 0.416 0.448 0.387 0.28 0.152
3482.464 0.205 0.266 0.3 0.327 0.41 0.443 0.391 0.436 0.274 0.084
3501.758 0 0.093 0.31 0.443 0.41 0.334 0.288 0.134 0.065 0.094
3521.051 0.233 0.451 0.469 0.473 0.456 0.307 0.273 0.333 0.293 0.224
3540.344 0.337 0.483 0.372 0.34 0.307 0.248 0.322 0.426 0.418 0.476
3559.638 0.508 0.389 0.363 0.449 0.501 0.504 0.478 0.466 0.484 0.36
3578.931 0.362 0.471 0.506 0.496 0.427 0.491 0.572 0.549 0.554 0.559
3598.225 0.459 0.438 0.457 0.444 0.505 0.471 0.384 0.405 0.513 0.7364
3617.518 0.716 0.515 0.455 0.55 0.692 0.485 0.335 0.462 0.489 0.479
3636.812 0.572 0.588 0.57 0.645 0.63 0.546 0.58 0.576 0.539 0.634
3656.105 0.573 0.573 0.685 0.547 0.524 0.643 0.638 0.566 0.487 0.492
3675.398 0.557 0.588 0.576 0.574 0.584 0.607 0.608 0.587 0.617 0.59
3694.692 0.543 0.607 0.613 0.618 0.63 0.484 0.49 0.548 0.688 0.7457
3713.985 0.695 0.716 0.633 0.586 0.686 0.7307 0.624 0.633 0.7379 0.717
3733.279 0.7454 0.831981 0.7531 0.6 0.558 0.591 0.507 0.567 0.697 0.7359
3752.572 0.7621 0.7618 0.667 0.525 0.606 0.7626 0.8023 0.717 0.68 0.662
3771.866 0.655 0.657 0.638 0.707 0.7464 0.646 0.573 0.652 0.666 0.622
3791.159 0.56 0.519 0.55 0.641 0.678 0.653 0.558 0.601 0.659 0.669
3810.452 0.722 0.696 0.689 0.604 0.566 0.622 0.708 0.647 0.551 0.625
3829.746 0.672 0.698 0.7406 0.7405 0.705 0.614 0.626 0.633 0.59 0.621
3849.039 0.7271 0.712 0.667 0.679 0.645 0.667 0.501 0.309 0.346 0.416
3868.333 0.614 0.673 0.622 0.667 0.608 0.57 0.594 0.56 0.559 0.672
3887.626 0.7757 0.7327 0.628 0.511 0.416 0.529 0.642 0.622 0.574 0.669
3906.920 0.733 0.641 0.655 0.716 0.631 0.7 0.7695 0.7339 0.827537 0.759
3926.213 0.692 0.7423 0.826717 0.81606 0.674 0.689 0.681 0.674 0.7856 0.8007
3945.506 0.81463 0.7261 0.624 0.7407 0.7706 0.7376 0.8008 0.8065 0.7626 0.7487
3964.800 0.709 0.697 0.686 0.716 0.718 0.65 0.702 0.709 0.654 0.7962
3984.093 0.88848 0.8098 0.85501 0.86577 0.83351 0.8088 0.7688 0.795 0.7947
##END=
