##TITLE=5-Pentadecanone
##JCAMP-DX=4.24
##DATA TYPE=INFRARED SPECTRUM
##ORIGIN=EPA-IR VAPOR PHASE LIBRARY
##OWNER=SRD/NIST
Collection (C) 2018 copyright by the U.S. Secretary of Commerce
on behalf of the United States of America. All rights reserved.
##CAS REGISTRY NO=92862-23-2
##MOLFORM=C 15 H 30 O
##$NIST SOURCE=MSDC-IR
##STATE=gas
##XUNITS=1/CM
##YUNITS=ABSORBANCE
##XFACTOR=1.
##YFACTOR=0.001
##DELTAX=1.92898
##FIRSTX=549.8
##LASTX=4000.7
##FIRSTY=3.73
##MAXX=4000.7
##MINX=549.759
##MAXY=0.76469
##MINY=0.0002866
##NPOINTS=1790
##XYDATA=(X++(Y..Y))
549.759 3.73 3.38 3.91 3.82 3.38 3.22 3.28 2.84 2.78 2.62
569.049 2.12 2.68 2.42 1.94 2.42 2.94 3.26 2.82 2.53 2.65
588.339 2.67 2.52 2.49 2.38 1.9 1.83 2.26 2.83 2.71 2.47
607.628 2.86 3 3.33 3.48 3.54 3.72 3.1 3.14 3.61 3.55
626.918 3.32 3.61 4.03 3.94 3.88 3.95 3.73 3.47 3.89 3.92
646.208 3.2 3.16 3.04 2.78 2.78 2.58 2.54 2.75 2.89 2.79
665.498 2.4 2.11 2.2 2.35 3.01 3.14 2.83 2.86 3.02 3.08
684.787 3.39 3.94 4.07 4.16 4.36 4.67 5.04 5.78 6.55 6.98
704.077 7.82 9.17 10.34 11.31 11.91 12.45 13.2 13.62 13.88 14.51
723.367 14.82 14.54 14.52 14.82 14.86 14.61 14.26 14.27 14.21 13.78
742.657 13.63 13.32 12.82 12.99 12.91 12.1 12.11 11.81 11.04 10.77
761.947 10.68 10.72 10.48 10.35 9.87 9.22 9.1 8.92 8.62 8.47
781.236 8.23 8.05 7.45 6.67 6.4 6 5.73 5.5 5.19 5.15
800.526 5.18 5.04 4.89 5.04 5.01 4.52 4.53 4.52 4.15 4.17
819.816 4.61 4.7 4.59 4.88 4.73 4.57 4.55 4.5 4.53 4.55
839.106 4.75 4.76 4.32 4.01 4.42 4.66 4.7 4.79 4.62 4.73
858.395 4.86 5.04 5.21 5.19 5.25 5.25 5.37 5.69 5.79 5.95
877.685 6.09 5.91 5.78 5.92 6.35 6.31 6 5.83 6.18 6.52
896.975 6.29 6.34 6.37 6.35 6.53 6.43 6.4 6.58 6.55 6.4
916.265 6.29 6.48 6.76 6.93 7.01 7.02 7.31 7.33 7.39 7.8
935.555 8.02 7.81 7.36 7.33 7.76 8.03 8.13 8.37 8.21 8.43
954.844 9.1 9.32 9.79 9.86 9.87 10.21 10.24 10.44 10.8 11.08
974.134 11.15 10.98 10.98 11.13 11.37 11.7 11.73 11.81 11.59 11.76
993.424 12.09 12.15 12.31 12.79 13.58 14.02 14.06 14.82 15.52 15.71
1012.714 16.75 18.39 20.45 21.87 23.17 25.38 27.84 29.35 30.44 32.14
1032.003 33.45 34.21 35.03 34.76 34.26 33.32 32.49 32.1 30.49 29.35
1051.293 28.62 28.62 28.79 28.73 27.95 27.42 28.02 28.5 28.86 28.99
1070.583 29.08 29.32 29.05 28.36 27.64 26.15 25.09 24.8 24.33 24.22
1089.873 23.64 22.91 23.01 22.92 22.2 21.16 20.64 21.82 23.18 23.76
1109.163 24.73 26.58 28.36 28.99 30.96 33.5 35.78 37.51 39.24 40.98
1128.452 40.67 40.41 40.49 40.76 40.76 39.63 38.47 36.97 35.59 35.08
1147.742 34.65 33.57 32.07 31 30.01 29.64 30.11 29.8 29.17 28.44
1167.032 28.02 27.38 27.16 26.78 26.11 26.35 26.2 25.68 25.47 25.25
1186.322 24.74 24.26 24.12 23.62 22.4 22.52 23.31 23.5 23.73 24.03
1205.611 23.58 23.78 24.8 24.75 25.33 25.8 25.22 24.78 24.66 25.05
1224.901 25.97 26.6 25.82 25.55 26.06 26.81 27.12 26.95 26.96 27.19
1244.191 27.4 27.29 27.14 27.18 27.3 27.76 28.33 28.74 28.83 28.55
1263.481 28.27 27.68 27.38 27.31 27.01 26.93 27.03 27.24 27.53 27.76
1282.771 28.28 29.12 29.6 29.93 30.37 30.59 30.96 31.63 32.36 33.03
1302.060 33.47 33.65 33.88 34.27 34.47 34.62 34.86 35.04 35.51 36.09
1321.350 36.67 37.52 38.66 40.04 41.54 43.18 45.15 47.45 49.94 52.56
1340.640 55.34 58.06 60.75 63.42 65.78 67.71 69.3 70.58 71.24 70.91
1359.930 69.78 68.19 65.98 63.12 59.68 55.93 52.28 48.87 46 43.92
1379.219 42.62 41.76 40.7 39.36 37.56 35.31 33.19 31.4 29.98 29.03
1398.509 28.46 28.42 28.82 29.47 30.59 31.9 33.26 34.63 35.88 36.97
1417.799 37.6 37.92 38.19 38.3 38.41 38.69 39.14 39.83 40.9 42.36
1437.089 44.2 46.3 48.85 51.95 55.22 58.71 62.61 66.74 70.81 74.6
1456.378 77.7 79.71 80.44 79.86 77.94 74.81 70.54 65.33 59.47 53.15
1475.668 46.89 41.11 35.88 31.44 27.92 24.83 22.11 19.86 17.94 16.38
1494.958 15.28 14.16 12.95 12.09 11.42 10.76 10.22 9.62 8.98 8.56
1514.248 8.32 7.88 7.33 7.01 6.75 6.3 6.04 6.01 5.93 5.88
1533.538 5.62 5.33 5.2 5.04 4.93 4.87 4.85 4.7 4.5 4.46
1552.827 4.42 4.43 4.47 4.3 4.16 4.04 4.01 4.21 4.16 3.94
1572.117 3.91 3.77 3.58 3.6 3.73 3.89 3.99 3.93 3.7 3.68
1591.407 3.65 3.57 3.62 3.61 3.67 3.73 3.84 3.79 3.78 4.05
1610.697 4.06 3.86 3.85 3.96 4.06 4.07 4.14 4.29 4.29 4.4
1629.986 4.48 4.52 4.51 4.56 4.92 5.09 5.17 5.31 5.5 5.74
1649.276 5.96 6.19 6.43 6.73 6.99 7.36 7.85 8.35 8.94 9.54
1668.566 10.09 10.93 11.98 12.97 14.15 15.43 16.7 18.15 19.72 21.59
1687.856 23.7 26.06 29.05 32.53 36.74 41.92 47.96 55.44 64.28 74.61
1707.146 86.79 100.75 116.48 133.76 151.95 170.3 187.87 202.62 212.69 216.71
1726.435 213.48 203.22 186.68 165.86 143.32 121.5 101.63 84.38 70.05 58.38
1745.725 49.2 41.78 35.69 30.73 26.73 23.4 20.72 18.51 16.49 14.81
1765.015 13.46 12.26 11.12 10.13 9.34 8.68 8.11 7.63 7.19 6.67
1784.305 6.19 5.89 5.54 5.16 4.98 4.71 4.37 4.19 4.12 3.91
1803.594 3.72 3.6 3.49 3.41 3.3 3.18 2.96 2.92 2.9 2.75
1822.884 2.72 2.6 2.38 2.29 2.31 2.28 2.24 2.2 2.22 2.34
1842.174 2.35 2.1 1.99 2.13 2.19 2.02 1.91 1.95 1.96 1.78
1861.464 1.69 1.72 1.72 1.75 1.64 1.53 1.59 1.54 1.51 1.54
1880.754 1.42 1.39 1.38 1.47 1.48 1.44 1.52 1.51 1.55 1.48
1900.043 1.43 1.52 1.43 1.28 1.24 1.22 1.19 1.23 1.27 1.27
1919.333 1.22 1.22 1.3 1.38 1.35 1.28 1.29 1.18 1.15 1.12
1938.623 1.1 1.21 1.2 1.08 1.02 0.9761 1.03 1.19 1.18 1.14
1957.913 1.13 1.12 1.05 0.9858 1.05 1.17 1.19 1.29 1.35 1.28
1977.202 1.35 1.41 1.38 1.32 1.24 1.25 1.29 1.2 1.14 1.24
1996.492 1.24 1.26 1.31 1.26 1.54 1.69 1.56 1.48 1.46 1.52
2015.782 1.51 1.52 1.66 1.72 1.77 1.95 2 1.85 1.85 1.95
2035.072 1.99 2.04 2.03 2.04 2.09 2.11 2.03 2.01 1.95 1.82
2054.362 1.93 1.92 1.77 1.82 1.76 1.7 1.77 1.8 1.85 1.8
2073.651 1.61 1.59 1.67 1.7 1.7 1.66 1.56 1.55 1.48 1.43
2092.941 1.46 1.5 1.61 1.51 1.45 1.56 1.59 1.62 1.72 1.73
2112.231 1.6 1.52 1.54 1.61 1.59 1.5 1.4 1.36 1.43 1.57
2131.521 1.62 1.73 1.7 1.65 1.76 1.74 1.75 1.78 1.83 1.81
2150.810 1.82 1.89 1.81 1.88 1.92 1.81 1.75 1.67 1.67 1.67
2170.100 1.71 1.8 1.81 1.92 1.99 1.79 1.76 1.92 1.86 1.73
2189.390 1.79 1.84 1.86 1.84 1.81 1.79 1.68 1.77 1.86 1.81
2208.680 1.77 1.78 1.78 1.7 1.62 1.68 1.62 1.82 2.01 1.82
2227.970 1.82 1.75 1.66 1.72 1.55 1.47 1.53 1.64 1.72 1.56
2247.259 1.57 1.67 1.68 1.74 1.73 1.71 1.69 1.77 1.89 1.7
2266.549 1.68 1.78 1.59 1.53 1.74 1.71 1.52 1.56 1.63 1.69
2285.839 1.76 1.73 1.75 1.81 1.76 1.69 1.66 1.62 1.62 1.74
2305.129 1.68 1.63 1.8 1.77 1.73 1.79 1.85 1.86 1.84 1.84
2324.418 1.75 1.76 1.72 1.77 1.91 1.97 1.99 1.94 1.86 1.88
2343.708 1.96 1.86 1.88 1.9 1.87 1.86 1.85 1.83 1.9 2.04
2362.998 2.04 2.02 1.91 1.82 1.9 1.99 1.97 1.84 1.79 1.85
2382.288 1.66 1.67 1.93 1.92 1.89 1.87 1.84 1.93 1.97 1.88
2401.578 1.91 1.94 1.94 1.92 1.85 1.84 2 2.04 1.9 1.96
2420.867 2.01 2 1.9 1.79 1.74 1.76 1.75 1.64 1.67 1.66
2440.157 1.66 1.71 1.66 1.67 1.69 1.65 1.64 1.57 1.52 1.44
2459.447 1.51 1.59 1.62 1.7 1.65 1.56 1.6 1.7 1.67 1.64
2478.737 1.63 1.71 1.82 1.84 1.71 1.66 1.88 1.97 1.79 1.79
2498.026 1.81 1.79 1.89 1.87 1.91 2.13 2.16 2.01 1.87 1.96
2517.316 2.08 2.12 2.37 2.4 2.28 2.27 2.48 2.73 2.57 2.49
2536.606 2.6 2.62 2.66 2.66 2.66 2.75 2.88 2.9 2.9 2.97
2555.896 2.86 2.86 2.94 2.95 3.05 3.08 3.19 3.33 3.33 3.27
2575.186 3.23 3.39 3.47 3.47 3.61 3.75 3.76 3.86 3.88 3.84
2594.475 3.81 3.81 3.99 4.19 4.15 4.22 4.3 4.11 4.22 4.43
2613.765 4.55 4.73 4.97 5.01 5.02 5.19 5.18 5.07 5.35 5.62
2633.055 5.59 5.47 5.61 5.99 6.21 6.37 6.46 6.44 6.6 6.72
2652.345 6.85 7.16 7.27 7.35 7.64 7.75 7.79 7.93 8.25 8.5
2671.634 8.47 8.53 8.67 8.77 8.76 8.83 8.92 8.9 8.8 8.65
2690.924 8.64 8.67 8.62 8.38 8.26 8.26 8.21 8.11 8.2 8.51
2710.214 8.43 8.19 8.25 8.35 8.25 8.17 8.53 8.82 8.74 8.84
2729.504 9.1 9.4 9.81 10.01 10.04 10.48 11.03 11.17 11.3 11.4
2748.794 11.6 11.63 11.54 11.64 11.68 11.72 11.96 12.26 12.43 12.55
2768.083 12.75 13.05 13.29 13.62 13.96 14.55 15.17 15.7 16.2 16.95
2787.373 17.72 18.25 19.01 19.88 20.72 21.89 22.95 23.9 25.01 26.05
2806.663 27.23 28.49 29.98 31.47 32.76 34.34 36.07 37.89 39.98 41.99
2825.953 43.99 46.58 49.55 52.77 56.51 60.74 65.99 72.37 79.68 88.61
2845.242 99.61 113.14 129.72 149.53 172.92 199.15 226.35 251.49 271.94 285.9
2864.532 292.81 293.88 289.73 281.88 272.72 263.44 255.41 249.94 246.16 243.43
2883.822 240.93 237.69 234.1 231.04 229.51 230.22 233.48 238.82 246.67 256.75
2903.112 268.89 283.8 300.66 319.67 341.6 366.65 395.06 427.83 466.05 509.45
2922.401 558.05 609.45 659.9 705.68 740.51 760.48 764.69 753.8 731.34 700.77
2941.691 663.87 623.31 582.03 542.24 506.88 476.91 452.75 435.25 423.95 418.41
2960.981 416.52 415.59 413.35 406.86 392.92 369.97 338.68 302.17 264.31 228.8
2980.271 198.09 172.12 150.19 132.14 117.21 104.57 93.97 84.94 77.22 70.45
2999.561 64.46 59.18 54.61 50.81 47.24 44.06 41.45 38.87 36.56 34.62
3018.850 32.81 31.01 29.61 28.35 27.15 26.03 24.88 23.91 22.87 22.06
3038.140 21.1 20.19 19.47 18.7 18.19 17.46 16.72 16.05 15.57 15.22
3057.430 14.59 13.9 13.41 13.15 12.92 12.65 12.25 11.75 11.38 11.2
3076.720 11.05 11.19 10.94 10.37 10.21 10.13 9.9 9.87 9.63 9.3
3096.009 9.27 9 8.67 8.39 8.22 7.99 7.83 7.94 7.8 7.48
3115.299 7.42 7.33 7.02 6.68 6.62 6.67 6.43 6.25 6.14 5.96
3134.589 5.78 5.89 6.2 6.04 5.66 5.37 5.29 5.42 5.67 5.72
3153.879 5.57 5.31 4.8 4.68 4.82 4.81 4.95 5 4.84 4.62
3173.169 4.55 4.53 4.53 4.41 4.48 4.43 4.02 4.05 4.08 4
3192.458 3.99 3.95 3.94 3.98 3.61 3.44 3.72 3.66 3.59 3.43
3211.748 3.12 3.01 2.84 2.78 2.62 2.47 2.57 2.37 2.18 2.18
3231.038 2.28 2.15 1.92 1.98 2.01 2.03 1.96 1.61 1.64 1.93
3250.328 1.68 1.36 1.57 1.41 1.21 1.3 1.25 1.15 1.16 1.12
3269.617 1.16 1.3 1.31 1.33 1.3 1.54 1.51 1.37 1.44 1.17
3288.907 1.03 1.17 1.18 1.21 1.24 1.41 1.42 1.32 1.4 1.37
3308.197 1.35 1.34 1.43 1.52 1.49 1.41 1.48 1.68 1.23 1.11
3327.487 1.44 1.25 1.24 1.33 1.38 1.41 1.26 1.25 1.31 1.45
3346.777 1.5 1.33 1.34 1.46 1.55 1.58 1.56 1.56 1.65 1.62
3366.066 1.56 1.79 1.81 1.57 1.67 1.77 1.69 1.57 1.49 1.68
3385.356 2.01 1.86 1.74 2.06 2.03 1.83 1.76 1.91 2.26 2.48
3404.646 2.6 2.65 2.89 3.21 3.21 3.22 3.41 3.54 3.75 4.09
3423.936 4.38 4.54 4.64 4.47 4.36 4.61 4.41 3.97 3.84 3.43
3443.225 3.12 3.02 2.78 2.63 2.59 2.45 2.17 1.97 1.65 1.43
3462.515 1.49 1.25 0.912 1.15 1.17 0.9523 0.8488 0.9363 1.15 0.9632
3481.805 0.886 0.8314 0.7719 0.7342 0.6005 0.6993 0.6027 0.5024 0.3831 0.497
3501.095 0.848 0.7403 0.5253 0.6051 0.4836 0.3554 0.5679 0.6956 0.611 0.4691
3520.385 0.5594 0.6492 0.5354 0.509 0.6263 0.7082 0.5637 0.3939 0.5552 0.7613
3539.674 0.8726 0.6575 0.4329 0.6524 0.6443 0.2866 0.6224 1.01 0.807 0.6675
3558.964 0.743 0.6526 0.5665 0.8578 0.8903 0.6136 0.3964 0.5877 0.7922 0.5219
3578.254 0.4561 0.6055 0.659 0.8171 1.02 1.13 0.8007 0.7952 0.8292 0.7516
3597.544 0.9199 0.9742 1.09 0.8969 0.852 0.9945 1.11 1.18 1.04 1.04
3616.833 1.29 1.38 1.15 1.24 1.42 1.37 1.55 1.82 1.8 1.52
3636.123 1.25 1.48 1.62 1.56 1.65 1.55 1.59 1.62 1.43 1.43
3655.413 1.48 1.56 1.71 1.63 1.48 1.45 1.48 1.37 1.37 1.53
3674.703 1.44 1.41 1.5 1.57 1.64 1.76 1.76 1.49 1.37 1.55
3693.993 1.58 1.19 0.9896 1.19 1.24 1.43 1.53 1.33 1.47 1.45
3713.282 1.51 1.72 1.57 1.5 1.39 1.22 1.53 1.78 1.46 1.24
3732.572 1.39 1.34 1.15 1.17 1.3 1.37 1.57 1.61 1.54 1.59
3751.862 1.68 1.47 1.31 1.57 1.68 1.8 1.79 1.62 1.37 1.52
3771.152 1.77 1.62 1.5 1.35 1.25 1.41 1.39 1.43 1.67 1.85
3790.441 1.9 1.91 2.1 2.01 1.91 2.04 2.1 1.94 1.78 1.85
3809.731 1.74 1.55 1.88 2.04 1.86 1.8 1.67 1.55 1.74 1.81
3829.021 1.76 1.95 1.94 2.01 1.93 1.77 1.81 1.49 1.31 1.52
3848.311 1.56 1.45 1.53 1.75 1.74 1.59 1.66 1.73 2.04 2.1
3867.601 1.75 1.74 1.78 1.98 1.76 1.32 1.51 1.82 1.85 1.77
3886.890 1.76 1.91 1.91 1.51 1.59 1.62 1.56 1.83 1.68 1.56
3906.180 1.85 1.91 1.96 2.16 1.82 1.64 1.9 1.98 1.85 1.88
3925.470 1.85 1.84 1.9 1.97 2.01 1.68 1.88 1.97 1.9 2.13
3944.760 2.06 2.06 2.2 2.14 2.11 1.99 2.01 2.4 2.29 2.01
3964.049 2.25 2.56 2.74 2.7 2.5 2.61 2.62 2.26 2.27 2.67
3983.339 2.93 2.83 2.79 2.83 2.75 2.87 2.7 2.36 2.62 3.01
##END=
