##TITLE=1,4-Decadiyne
##JCAMP-DX=4.24
##DATA TYPE=INFRARED SPECTRUM
##ORIGIN=EPA-IR VAPOR PHASE LIBRARY
##OWNER=SRD/NIST
Collection (C) 2018 copyright by the U.S. Secretary of Commerce
on behalf of the United States of America. All rights reserved.
##CAS REGISTRY NO=929-53-3
##MOLFORM=C 10 H 14
##$NIST SOURCE=MSDC-IR
##STATE=gas
##XUNITS=1/CM
##YUNITS=ABSORBANCE
##XFACTOR=1.
##YFACTOR=0.001
##DELTAX=1.92898
##FIRSTX=549.8
##LASTX=4000.7
##FIRSTY=4.2055
##MAXX=4000.7
##MINX=549.759
##MAXY=0.09386
##MINY=0
##NPOINTS=1790
##XYDATA=(X++(Y..Y))
549.759 4.2055 4.73 4.82 5.09 5.12 4.2069 4.1653 4.53 4.9 5.21
569.049 4.62 4.84 5.71 5.97 5.89 5.69 5.48 5.4 4.89 4.3687
588.339 4.31 5.21 6.14 6.7 6.26 5.16 5.35 6 7.14 8.33
607.628 8.79 9.21 10.43 11.75 13.72 16.45 17.23 18.98 21.92 23.82
626.918 26.04 29.58 34.2 39.04 44.64 51.65 59.54 66.72 70.28 68.08
646.208 61.61 54.35 46.73 39.05 32.43 26.54 21.4 17.39 14.61 12.52
665.498 10.75 9.66 8.93 8.03 7.1 6.13 5.69 5.51 5.38 5.34
684.787 5.62 5.56 5.21 5.39 5.49 5.84 6.07 6.2 6.23 6.28
704.077 6.34 6.61 6.75 6.28 6.17 6.38 6.75 7.11 6.85 6.08
723.367 5.59 5.85 6.77 6.76 6.05 5.65 5.47 5.75 6 5.64
742.657 5.32 5.1 4.92 5.36 5.33 4.6 4.3335 4.155 4.3617 4.62
761.947 4.41 4.58 4.96 4.73 4.53 4.6 4.55 4.45 4.59 4.9
781.236 4.81 4.79 4.5 4.2487 3.9534 3.9905 4.76 4.87 4.48 4.0712
800.526 3.9069 3.8461 3.5964 3.263 3.727 4.0524 3.9279 4.2276 5.04 5.67
819.816 5.66 5.49 4.2655 3.9025 3.9075 3.5652 3.7139 3.5614 3.5054 3.6926
839.106 4.1952 4.58 4.44 4.2728 4.2558 3.9054 4.0965 4.43 4.3551 4.42
858.395 4.46 4.3686 4.123 3.9863 3.7416 3.9156 4.2042 3.8676 3.9997 4.47
877.685 4.3623 4.3836 4.51 4.3039 4.62 4.83 4.69 4.89 4.98 4.84
896.975 4.98 5.23 5.24 5.15 5.28 5.47 5.72 6.15 5.95 6.04
916.265 6.48 6.14 6.08 5.97 5.61 5.38 5.49 5.7 5.87 5.67
935.555 5.36 5.05 4.82 4.73 4.44 4.64 4.62 4.84 4.81 4.59
954.844 4.71 4.62 4.47 4.52 4.75 4.78 4.55 4.2954 4.4 4.48
974.134 4.47 4.51 4.43 3.996 4.016 4.48 4.41 4.64 4.87 4.77
993.424 4.44 4.1328 3.9046 4.0648 4.42 4.49 4.1457 3.9786 4.2066 4.0096
1012.714 4.49 4.92 4.2847 3.96 3.187 2.722 3.8136 4.6 3.8841 3.8568
1032.003 3.8657 3.3277 4.0976 4.68 3.815 3.8152 4.0389 3.44467 4.0342 4.39
1051.293 4.61 4.48 3.6987 4.1141 4.79 3.7542 3.219 3.7312 3.9161 3.8882
1070.583 3.772 3.03 3.6992 5.25 4.77 2.978 2.23 2.64 3.048 3.9596
1089.873 3.111 2.01 2.955 2.909 2.628 3.8951 3.8921 2.923 3.3464 2.795
1109.163 2.931 3.7505 2.2 2.3 2.629 1.95 1.94 2.599 2.15 0
1128.452 0.21 1.19 1.94 2.538 2.13 2.36 2.626 2.08 1.82 1.68
1147.742 2.759 3.9561 3.3043 2.762 3.283 2.987 2.34 2.876 3.3466 2.787
1167.032 3.3573 4.4 4.1467 4.43 4.1815 3.39042 3.6712 5.31 5.47 3.7513
1186.322 3.053 4.46 5.17 4.4 4.2418 4.1889 4.094 4.2492 4.0207 4.0937
1205.611 4.62 5.03 6.07 4.86 4.3837 6.25 8.15 8.8 7.87 6.16
1224.901 5.24 6.27 7.34 6.71 6.42 6.38 6.43 7.11 8.26 9.72
1244.191 10.44 11.72 12.96 13.85 15.22 16.81 18.03 18.5 17.91 17.7
1263.481 18.14 18.27 17.25 15.78 14.58 13.58 12.73 11.72 11.04 10.58
1282.771 10.19 10.2 10.29 10.38 10.73 11.09 11.64 12.83 14.24 15.9
1302.060 18.38 22.11 26.15 28.45 28.98 28.48 27.67 26.99 25.35 22.11
1321.350 18.7 16.43 15.38 14.88 14.53 14.21 13.66 13.03 12.29 11.43
1340.640 10.82 10.25 9.49 9.06 8.91 8.59 8.2 8.01 7.92 7.92
1359.930 7.75 7.48 7.36 7.15 7.02 7.02 6.93 6.94 6.95 6.83
1379.219 6.94 6.84 6.83 7.14 7.06 6.78 6.66 6.69 6.43 6.22
1398.509 6.38 6.47 6.56 6.54 6.55 6.74 6.81 7.02 7.39 7.52
1417.799 7.7 8.13 8.59 8.77 8.8 9.36 9.99 10.31 10.75 11.19
1437.089 11.56 11.67 11.93 12.25 12.12 12.01 11.87 11.78 11.78 11.96
1456.378 11.96 11.65 11.8 11.99 11.67 11.24 10.84 10.3 9.88 9.41
1475.668 8.95 8.52 7.99 7.36 6.57 6 5.78 5.56 5.54 5.37
1494.958 5.12 4.94 4.76 4.78 4.66 4.62 4.74 4.74 4.77 4.74
1514.248 4.48 4.41 4.4 4.51 4.58 4.1578 3.992 4.1349 4.2592 4.1431
1533.538 3.9543 4.0253 4.1518 4.0001 3.7968 3.8568 3.9379 3.9523 3.7971 3.7557
1552.827 3.9331 3.9908 3.9755 3.8479 3.6823 3.8531 3.9556 4.031 4.0993 3.8822
1572.117 3.6941 3.46369 3.529 3.5192 3.5399 3.839 3.7679 3.8075 3.996 3.7842
1591.407 3.255 3.034 3.257 3.45208 3.5191 3.4439 3.255 3.4995 3.5831 3.4955
1610.697 3.5092 3.44233 3.3035 3.38779 3.42916 3.175 3.5012 3.6141 3.5134 3.6148
1629.986 3.7169 3.5732 3.5512 3.6773 3.3364 3.386 3.5077 3.42184 3.5892 3.644
1649.276 3.5271 3.5432 3.5243 3.46626 3.44093 3.3156 3.44566 3.5269 3.6119 3.8142
1668.566 3.5592 3.266 3.3366 3.46702 3.4526 3.265 3.19 3.5455 3.7224 3.47635
1687.856 3.38781 3.40886 3.498 3.5451 3.40993 3.2989 3.41347 3.46828 3.23 3.219
1707.146 3.48443 3.47451 3.3181 3.3123 3.4298 3.5563 3.41959 3.367 3.40036 3.275
1726.435 3.158 3.199 3.374 3.47928 3.223 3.272 3.3307 3.072 3.162 3.189
1745.725 3.127 3.3299 3.39944 3.248 3.108 3.045 3.082 3.065 3.156 3.227
1765.015 3.3125 3.153 3.124 3.43448 3.40418 3.41934 3.286 3.154 3.218 3.198
1784.305 3.265 3.3695 3.38282 3.207 3.058 3.13 3.238 3.352 3.261 3.015
1803.594 3.14 3.204 3.276 3.48832 3.42043 3.3447 3.3367 3.3289 3.319 3.369
1822.884 3.45721 3.44456 3.47345 3.41433 3.42981 3.5545 3.47423 3.47438 3.6261 3.599
1842.174 3.6006 3.5079 3.3692 3.3199 3.3514 3.5014 3.5512 3.5527 3.44002 3.5181
1861.464 3.476 3.3589 3.38929 3.3615 3.3444 3.3811 3.47535 3.42851 3.282 3.184
1880.754 3.153 3.198 3.226 3.2912 3.5172 3.43367 3.3408 3.44102 3.41273 3.4935
1900.043 3.3465 3.151 3.286 3.3616 3.39571 3.3533 3.175 3.131 3.3195 3.5004
1919.333 3.5316 3.4941 3.4209 3.287 3.132 3.159 3.3318 3.5842 3.6125 3.46002
1938.623 3.44456 3.509 3.48616 3.38907 3.39001 3.278 3.108 3.159 3.3292 3.3689
1957.913 3.4219 3.491 3.4686 3.5433 3.6324 3.562 3.5372 3.5979 3.4921 3.374
1977.202 3.3486 3.3409 3.3594 3.3525 3.3753 3.43251 3.5476 3.5495 3.5348 3.45129
1996.492 3.3249 3.48141 3.5392 3.45767 3.6046 3.6842 3.5135 3.5668 3.6604 3.592
2015.782 3.6274 3.6511 3.5151 3.3714 3.42344 3.6952 3.8134 3.7705 3.7623 3.7683
2035.072 3.7316 3.7008 3.7009 3.4984 3.38065 3.4997 3.5056 3.43446 3.46596 3.5169
2054.362 3.6168 3.48668 3.39329 3.317 3.253 3.5118 3.5614 3.39492 3.43856 3.5099
2073.651 3.4864 3.5865 3.543 3.40313 3.5644 3.7722 3.8966 3.8119 3.8056 3.8312
2092.941 3.8381 3.917 3.8289 4.0553 4.2859 4.2987 4.2673 4.3825 4.47 4.58
2112.231 4.56 4.53 4.89 5.21 5.32 5.47 5.7 5.54 5.36 5.26
2131.521 5.19 5.03 5 4.85 4.4 4.2176 4.1158 4.1606 4.12 3.9401
2150.810 3.7633 3.8433 3.7904 3.5609 3.496 3.6441 3.7568 3.5487 3.58 3.7914
2170.100 3.7549 3.6492 3.8373 3.8734 3.8323 3.9853 3.9194 3.7964 3.6955 3.7106
2189.390 3.5961 3.47944 3.5628 3.5402 3.5989 3.6647 3.7591 3.7023 3.72 3.8678
2208.680 3.9221 3.8544 3.8311 3.8626 3.9558 4.1631 4.3125 4.41 4.2669 4.1082
2227.970 3.9196 3.9871 4.2953 4.343 4.1389 4.0498 4.0919 3.766 3.7994 4.1803
2247.259 4.278 4.0564 3.8448 3.9698 3.8554 3.8292 4.0167 4.0056 3.8676 3.838
2266.549 3.9436 3.8829 3.9626 4.0227 4.0674 4.1452 4.2375 4.311 4.2026 4.3712
2285.839 4.3386 4.0838 4.1628 4.3683 4.45 4.3823 4.3158 4.3485 4.2251 4.0066
2305.129 4.0355 3.7144 3.6096 3.9355 3.9798 3.9805 3.858 3.89 4.0852 4.0845
2324.418 4.017 3.8891 3.9476 4.1944 4.0186 3.7169 3.6803 3.8696 4.1459 3.9472
2343.708 3.7553 3.8449 3.855 3.7878 3.7795 3.6741 3.4954 3.59 3.5649 3.5317
2362.998 3.6735 3.6359 3.777 4.0186 4.0417 4.0191 3.8699 3.8842 3.7033 3.6687
2382.288 3.743 3.7013 3.8254 3.5981 3.6072 3.7323 3.4963 3.229 3.44186 3.6814
2401.578 3.5424 3.5282 3.7454 3.7843 3.613 3.7651 3.9408 3.8181 3.6627 3.6476
2420.867 3.6047 3.644 3.6321 3.5368 3.7885 3.8977 3.6401 3.7962 4.0791 3.888
2440.157 3.7895 3.8395 3.8307 3.9382 3.8449 3.6779 3.7929 3.8931 3.8712 3.8239
2459.447 3.8347 3.8489 3.7486 3.7054 3.8894 3.9886 3.8707 3.6306 3.6424 3.6447
2478.737 3.5012 3.6516 3.8359 3.7032 3.5177 3.262 3.38401 3.7835 3.7088 3.6069
2498.026 3.8373 3.7866 3.5787 3.9026 3.9142 3.5632 3.48902 3.4 3.494 3.6296
2517.316 3.5745 3.8543 3.9153 3.7344 3.8065 3.8542 3.8165 3.8221 3.9812 4.0079
2536.606 3.7501 3.7572 3.8403 3.9668 4.167 3.9705 3.8923 4.1521 4.0037 3.8661
2555.896 3.8625 3.6831 3.6924 3.7514 3.9148 4.177 4.0341 3.7504 4.0591 4.3637
2575.186 4.0212 3.8331 3.7432 3.6715 3.7954 3.9037 3.8837 3.9269 3.9061 3.8686
2594.475 3.9672 3.8804 3.9726 3.9358 3.7618 3.7356 3.914 4.1612 3.8872 3.7279
2613.765 3.7801 3.7879 4.1293 4.0322 3.8216 4.0778 4.109 4.0841 4.43 4.57
2633.055 4.5 4.74 4.71 4.4 4.1451 4.1359 4.3835 4.52 4.53 4.47
2652.345 4.3387 4.3873 4.6 4.9 5.19 5.05 4.61 4.39 4.3598 4.48
2671.634 4.65 4.63 4.85 5.07 5.14 5.23 5.02 4.91 5.14 4.94
2690.924 4.76 4.81 4.67 4.49 4.46 4.3813 4.49 4.68 4.56 4.343
2710.214 4.56 4.73 4.67 4.49 4.2889 4.53 4.58 4.57 4.76 4.69
2729.504 4.87 4.95 5.05 5.2 4.98 5.36 5.3 4.65 4.54 4.68
2748.794 4.67 4.79 4.89 4.77 4.68 4.84 4.84 4.77 4.95 5.23
2768.083 5.54 5.5 5.32 5.09 4.99 5 5.06 5.17 5.31 5.31
2787.373 5.45 5.61 5.82 5.99 5.77 5.62 5.44 5.63 5.96 6.11
2806.663 6.34 6.68 6.87 6.63 6.83 7.19 7.53 7.95 8.49 9.15
2825.953 9.21 9.34 9.66 9.84 10.39 11.17 11.97 12.65 13.52 14.64
2845.242 15.74 17.14 18.45 19.41 21.08 22.67 24.1 26.55 28.44 29.86
2864.532 31.62 32.94 33.86 34.37 34.68 34.84 34.5 34.37 33.87 33.16
2883.822 32.57 32.11 31.83 31.43 30.61 29.83 29.85 30.12 30.97 32.11
2903.112 33.24 34.84 37.24 40.33 43.14 45.97 49.01 51.9 54.86 58.32
2922.401 62.06 65.88 69.94 74.17 78.82 83.47 87.29 90.46 92.95 93.86
2941.691 92.68 89.83 86.12 81.27 76.08 71.22 66.71 63.2 61.07 60.14
2960.981 59.46 58.83 58.62 57.93 56.35 53.74 50.1 46.31 41.98 37.11
2980.271 32.63 28.61 24.96 21.87 19.53 18.02 16.38 14.81 14.06 13.18
2999.561 12.49 11.9 11 10.32 9.79 9.7 9.5 9.22 9.01 8.64
3018.850 8.46 8.24 7.95 7.63 7.22 7.12 6.89 6.45 6.47 6.6
3038.140 6.44 6.26 6.44 6.3 5.72 5.27 5.5 5.69 5.51 5.65
3057.430 5.53 5.55 5.66 5.57 5.63 5.32 5.23 5.16 4.85 4.56
3076.720 4.52 5.1 4.92 4.43 4.72 4.84 4.66 4.95 4.91 4.7
3096.009 4.64 4.5 4.6 4.58 4.56 4.66 4.43 4.2093 4.2034 4.2023
3115.299 4.2725 4.4 4.3825 4.41 4.45 4.3591 4.73 5.04 4.48 3.9628
3134.589 4.44 4.88 4.93 4.278 4.0117 4.3631 4.46 4.69 4.1063 3.4695
3153.879 3.7261 3.8535 3.5135 3.6854 3.7836 3.246 3.282 3.6633 3.7662 3.99
3173.169 4.057 3.8881 3.9232 3.9323 4.1901 4.0933 3.9611 4.361 4.2652 3.8005
3192.458 3.3261 3.4921 4.284 4.0703 3.5146 3.7206 4.1406 4.1803 3.9262 3.6249
3211.748 3.7726 4.2105 4.0706 3.9875 4.2381 4.2963 4.0266 3.6046 3.48293 3.8444
3231.038 4.313 4.52 4.52 4.3407 4.1541 3.9243 3.8828 4.1901 4.68 4.56
3250.328 3.9103 3.6188 3.9303 4.5 4.55 4.46 4.72 4.49 4.61 5.13
3269.617 4.59 4.73 5.17 5.04 5.02 5.55 6.51 7.14 7.92 8.59
3288.907 8.92 8.94 9.28 10.23 10.61 11 12.14 13.26 14.76 16.33
3308.197 17.01 17.31 18.47 19.72 20.49 21.35 21.88 23.94 27.08 29.23
3327.487 29.65 28.74 28.32 28.93 28.33 25.08 20.64 17.27 15.35 13.5
3346.777 12.08 10.83 9.63 8.12 7.1 6.69 6.21 5.93 5.47 5.27
3366.066 5.2 5.26 5.13 4.68 4.93 4.86 4.368 4.3664 4.1064 3.6571
3385.356 3.5272 3.7414 3.8771 4.1897 4.1281 3.9186 3.5337 3.3423 3.6962 4.1877
3404.646 3.9713 3.255 3.5473 4.1511 4.1879 3.9094 3.965 3.6306 3.3132 3.6961
3423.936 3.7906 3.38288 3.074 3.109 3.116 3.42173 3.3223 3.009 3.193 3.45944
3443.225 3.39552 3.228 3.3509 3.3701 3.076 2.769 3.175 3.6181 3.6179 3.8425
3462.515 4.2053 3.5521 2.906 3.168 3.2972 3.3562 3.47782 3.244 3.272 3.45393
3481.805 3.679 3.8155 3.5297 3.844 3.7429 3.46758 3.3918 2.96 3.024 2.732
3501.095 2.532 3.41197 3.44928 2.89 2.857 2.955 3.116 3.45599 3.8289 3.5697
3520.385 3.3318 3.3286 3.205 3.007 3.3112 3.5179 3.193 3.221 3.189 2.938
3539.674 3.1 2.96 3.3632 3.5623 3.076 3.39749 3.6514 3.40035 3.38091 3.637
3558.964 3.5677 3.6612 2.798 2.802 3.069 2.632 3.45584 3.41122 3.48333 3.9892
3578.254 3.577 3.139 2.843 3.167 3.3123 2.824 2.907 2.951 2.753 2.992
3597.544 3.42024 3.6381 3.41159 3.45364 3.7815 3.7625 3.44451 3.3426 3.7116 3.6992
3616.833 3.2945 3.43917 3.7582 3.6457 3.41251 2.991 3.2902 3.7881 3.8241 4.1104
3636.123 3.7491 3.215 2.947 2.931 3.3276 3.5574 3.6715 3.6464 3.5846 3.6405
3655.413 3.46215 3.4617 3.867 4.0462 3.792 3.533 3.47151 3.059 2.869 2.903
3674.703 3.082 3.43315 3.171 3.3168 3.5046 3.5421 3.8821 3.6752 3.327 3.5436
3693.993 3.7353 3.6843 3.8847 4.0385 3.8511 3.6296 3.6781 3.47152 3.42703 3.6981
3713.282 4.1748 4.1092 3.7252 3.5187 3.251 3.215 3.3277 3.45444 3.288 3.5088
3732.572 3.335 3.239 3.42565 3.47843 3.3161 2.676 2.17 2.27 2.749 2.709
3751.862 3.165 3.9314 3.7969 3.5183 3.48917 3.614 3.4888 3.558 4.086 3.5273
3771.152 3.278 3.9645 3.702 3.051 3.026 2.825 2.58 3.134 3.3573 3.286
3790.441 3.3214 3.41584 3.281 3.165 3.359 3.007 3.221 3.8045 3.9411 3.5587
3809.731 3.034 3.027 3.3463 3.6137 3.5913 3.263 3.084 2.947 3.24 3.9552
3829.021 3.9712 3.2979 3.007 3.174 3.8377 4.1081 3.5002 3.7661 3.9731 3.6817
3848.311 3.6933 3.7775 3.951 3.689 3.43907 3.44771 3.236 3.5114 3.6646 3.8146
3867.601 4.0041 3.6733 3.3715 3.5381 3.6509 3.276 3.217 3.4748 3.7169 3.6746
3886.890 3.075 3.04 3.45351 3.6847 3.5685 3.017 3.209 3.8937 3.6767 3.3481
3906.180 3.44774 3.3209 3.3139 3.5658 3.3723 3.5704 4.0132 4.0286 4.149 4.0803
3925.470 4.2053 4.105 3.6472 3.5951 3.44077 3.6191 4.1922 4.3262 4.48 4.1451
3944.760 3.7167 4.1807 4.037 3.6301 4.053 3.7158 3.145 3.6773 4.2983 4.2799
3964.049 4.0299 3.5853 3.43206 4.0077 4.47 4.0551 4.0418 3.9839 4.334 4.67
3983.339 3.8898 3.44997 3.5445 3.7448 3.6184 3.3735 3.38734 3.44241 3.5593 3.6151
##END=
