##TITLE=N,N-Diethyl-p-phenylenediamine
##JCAMP-DX=4.24
##DATA TYPE=INFRARED SPECTRUM
##ORIGIN=EPA-IR VAPOR PHASE LIBRARY
##OWNER=SRD/NIST
Collection (C) 2018 copyright by the U.S. Secretary of Commerce
on behalf of the United States of America. All rights reserved.
##CAS REGISTRY NO=93-05-0
##MOLFORM=C 10 H 16 N 2
##$NIST SOURCE=MSDC-IR
##STATE=gas
##XUNITS=1/CM
##YUNITS=ABSORBANCE
##XFACTOR=1.
##YFACTOR=0.001
##DELTAX=3.85796
##FIRSTX=501.5
##LASTX=4000.7
##FIRSTY=5.3716
##MAXX=4000.7
##MINX=501.534
##MAXY=0.0610216
##MINY=0
##NPOINTS=908
##XYDATA=(X++(Y..Y))
501.534 5.3716 5.1716 5.0916 5.0516 4.8316 4.6616 4.6016 4.7016 4.8416 4.9416
540.114 5.1016 5.2016 5.3116 5.3116 5.1516 4.8916 4.5216 4.2616 3.9516 3.5916
578.693 3.3416 3.1416 3.0116 3.0616 3.2216 3.2116 3.2016 3.3416 3.4616 3.5316
617.273 3.6916 3.9716 4.3416 4.8516 5.5716 6.4316 7.2816 8.4016 9.5416 10.1316
655.852 10.1716 9.7716 9.1516 8.5016 7.8216 7.1216 6.3616 5.7016 5.2416 4.8916
694.432 4.6916 4.7016 4.7416 4.7016 4.6016 4.4916 4.4216 4.3016 4.2316 4.1016
733.011 3.9116 3.7116 3.4816 3.2516 3.0816 3.0116 3.0216 3.0716 3.1816 3.4216
771.591 3.8016 4.3616 5.1016 5.9516 6.7816 7.3116 7.6816 8.1216 8.7316 9.3916
810.170 9.9716 10.2316 9.9316 9.2516 8.2416 6.9916 5.8316 4.7716 3.8816 3.2616
848.750 2.8316 2.4916 2.2616 2.0916 1.9416 1.8016 1.7116 1.7316 1.7616 1.7516
887.330 1.8016 1.8916 1.9016 1.8516 1.7716 1.6316 1.5316 1.5416 1.5116 1.4016
925.909 1.3716 1.3616 1.2916 1.2716 1.2716 1.2516 1.3116 1.3116 1.2716 1.3316
964.489 1.3916 1.4516 1.5316 1.5816 1.6716 1.8116 2.0116 2.2316 2.5316 2.8416
1003.068 3.2216 3.6716 3.9516 4.1216 4.1916 4.1416 4.1516 4.0616 3.8316 3.8316
1041.648 3.8016 3.8616 4.1216 4.4016 4.7516 5.1216 5.4616 5.7416 5.9016 5.9416
1080.227 5.9016 5.9116 5.9116 5.8216 5.7616 5.6816 5.3616 5.1016 4.9916 4.9916
1118.807 5.0316 5.0316 5.2116 5.5016 5.9716 6.5816 6.9316 6.9516 6.6316 6.0516
1157.387 5.5816 5.5716 5.9516 6.6416 7.4416 8.1716 8.7616 8.9216 8.6816 8.0016
1195.966 7.0616 6.2116 5.5416 5.0416 4.7316 4.6716 4.8916 5.4116 6.4516 8.3216
1234.546 10.9916 14.2716 17.7316 20.4916 22.4116 23.6016 23.9716 23.4916 21.7916 18.7716
1273.125 14.9816 11.3216 8.5216 6.7916 5.7816 5.2016 4.8616 4.6316 4.5316 4.5016
1311.705 4.5016 4.5616 4.7716 5.0916 5.5016 6.0416 6.6316 7.1716 7.6116 7.9516
1350.284 8.2416 8.4316 8.5616 8.6316 8.8616 9.4316 10.1916 10.7716 10.7916 10.0616
1388.864 8.6716 7.0416 5.5916 4.4916 3.7116 3.2316 2.9316 2.7616 2.6916 2.6816
1427.443 2.7416 2.8516 3.0316 3.2916 3.6216 3.9816 4.3016 4.6016 4.8416 5.0416
1466.023 5.2416 5.4216 5.6116 5.8416 6.2316 7.0716 8.7616 11.9316 17.7516 27.5216
1504.603 40.9116 54.2916 61.0216 58.5716 47.7016 32.6716 20.3016 13.0716 9.2316 7.0116
1543.182 5.5816 4.6716 4.0516 3.6216 3.3316 3.1416 3.0716 3.0316 3.0316 3.1316
1581.762 3.2316 3.3416 3.5116 3.8216 4.3216 5.1016 6.2516 7.6216 9.0416 10.2416
1620.341 10.8716 10.7816 9.9516 8.5116 6.8016 5.2416 4.0616 3.2616 2.7616 2.4516
1658.921 2.2316 2.0116 1.7616 1.5216 1.3216 1.1816 1.0916 1.0338 0.9992 0.9849
1697.500 0.9576 0.9297 0.9169 0.9182 0.8907 0.8579 0.8489 0.8111 0.7948 0.7677
1736.080 0.726 0.7269 0.7153 0.6706 0.6445 0.6335 0.6206 0.5905 0.5786 0.5764
1774.659 0.5637 0.5592 0.5598 0.5588 0.5584 0.5755 0.5887 0.6387 0.7003 0.7374
1813.239 0.7985 0.868 0.9065 0.9281 0.9588 0.9786 0.9767 0.9553 0.9445 0.9441
1851.819 0.9113 0.8844 0.8605 0.8282 0.7887 0.7509 0.7246 0.6915 0.6509 0.6329
1890.398 0.6317 0.6221 0.6449 0.6651 0.6644 0.6953 0.7333 0.7443 0.7352 0.6929
1928.978 0.6666 0.6634 0.6205 0.5521 0.5047 0.4719 0.447 0.4248 0.4109 0.397
1967.557 0.3955 0.4044 0.4013 0.4089 0.408 0.4006 0.3829 0.387 0.3896 0.372
2006.137 0.3825 0.4083 0.4252 0.4143 0.409 0.4132 0.4004 0.4036 0.4062 0.4125
2044.716 0.4304 0.4331 0.4486 0.4621 0.4566 0.4468 0.4414 0.428 0.4188 0.4282
2083.296 0.415 0.3831 0.369 0.3596 0.342 0.3291 0.331 0.3154 0.2887 0.2789
2121.875 0.2701 0.2701 0.2652 0.2747 0.2683 0.2532 0.2448 0.2369 0.2565 0.2536
2160.455 0.2615 0.2609 0.2426 0.2455 0.2646 0.2595 0.2603 0.2873 0.276 0.2636
2199.035 0.2528 0.2467 0.2362 0.2286 0.2361 0.2434 0.264 0.2545 0.2319 0.2483
2237.614 0.264 0.2798 0.293 0.2815 0.2842 0.3187 0.3557 0.3739 0.3893 0.4311
2276.194 0.4612 0.4339 0.4149 0.4059 0.3808 0.3936 0.4071 0.3869 0.365 0.3279
2314.773 0.3104 0.3108 0.3018 0.2778 0.2604 0.247 0.243 0.2587 0.2578 0.2579
2353.353 0.2369 0.2114 0.2 0.2183 0.235 0.2213 0.2182 0.2378 0.2462 0.2522
2391.932 0.2774 0.2826 0.28 0.2843 0.2837 0.296 0.2893 0.281 0.2974 0.3046
2430.512 0.31 0.2963 0.2761 0.2821 0.2951 0.2936 0.3091 0.2998 0.274 0.2523
2469.092 0.2373 0.2707 0.2824 0.2843 0.2876 0.2887 0.328 0.3469 0.3532 0.3416
2507.671 0.342 0.3807 0.3992 0.389 0.3912 0.4002 0.4052 0.4154 0.4064 0.37
2546.251 0.3895 0.4117 0.3943 0.4115 0.4078 0.4036 0.4167 0.4473 0.4716 0.481
2584.830 0.5058 0.4917 0.4956 0.5441 0.5668 0.5506 0.5438 0.5615 0.5639 0.5393
2623.410 0.5399 0.5612 0.57 0.5833 0.5997 0.6315 0.6455 0.6435 0.6745 0.7067
2661.989 0.747 0.809 0.8236 0.8505 0.8956 0.948 1.0141 1.049 1.0916 1.1216
2700.569 1.1216 1.1516 1.2116 1.2516 1.2816 1.3116 1.3316 1.3516 1.3916 1.4616
2739.148 1.5016 1.5116 1.5616 1.6716 1.7716 1.8316 1.9116 2.0216 2.1616 2.2816
2777.728 2.4216 2.6416 2.9216 3.2816 3.7316 4.3416 5.1516 6.0316 6.9016 7.7316
2816.308 8.4016 8.8316 8.9816 8.8116 8.4016 7.8616 7.3416 6.9116 6.5616 6.3016
2854.887 6.1616 6.2116 6.4716 6.9416 7.6016 8.3316 8.9716 9.2816 9.2416 8.9216
2893.467 8.5516 8.3116 8.2716 8.3816 8.6116 9.0316 9.6416 10.4716 11.6716 13.1616
2932.046 14.7616 16.0216 16.4716 16.0516 14.9516 13.7216 13.1316 13.5716 15.1516 17.6416
2970.626 20.5316 23.1716 24.3916 23.3616 20.4216 16.4616 12.6516 10.0116 8.4916 7.6216
3009.205 7.1116 6.8916 6.9516 7.3116 8.0216 8.7616 9.1116 8.8216 7.8116 6.3716
3047.785 5.0616 4.1616 3.7116 3.5016 3.3816 3.3116 3.1516 2.9816 2.8616 2.7216
3086.364 2.6016 2.5616 2.5516 2.4716 2.3116 2.1316 1.9416 1.7316 1.5516 1.3716
3124.944 1.2216 1.0916 0.9598 0.8997 0.8115 0.7161 0.6696 0.6288 0.5604 0.4808
3163.524 0.4774 0.4117 0.3186 0.3066 0.3113 0.3283 0.3507 0.3453 0.3059 0.329
3202.103 0.4044 0.4058 0.3491 0.314 0.321 0.3562 0.3619 0.3131 0.3079 0.322
3240.683 0.3003 0.3009 0.2889 0.27 0.2513 0.2283 0.2492 0.2565 0.2424 0.2013
3279.262 0.2069 0.2203 0.17036 0.189 0.2276 0.1959 0.15732 0.13128 0.11875 0.1735
3317.842 0.1883 0.12131 0.09286 0.11579 0.06517 0.0192 0.0031 0 0.08082 0.11965
3356.421 0.09793 0.16125 0.2227 0.2373 0.2771 0.3752 0.4647 0.5872 0.7675 0.973
3395.001 1.1616 1.3716 1.4816 1.3616 1.1516 0.9292 0.7986 0.6677 0.5319 0.5085
3433.580 0.478 0.4499 0.457 0.4983 0.5644 0.6067 0.6836 0.7811 0.8817 0.9578
3472.160 0.9836 1.0501 1.0916 1.1116 1.1416 1.0553 0.8907 0.7544 0.6735 0.5639
3510.740 0.4642 0.3963 0.3179 0.2722 0.2691 0.2637 0.2646 0.2423 0.16457 0.09608
3549.319 0.11727 0.15222 0.12107 0.11744 0.11561 0.08502 0.0723775 0.12727 0.16892 0.1491
3587.899 0.11203 0.08365 0.09444 0.09706 0.08609 0.12479 0.14949 0.14942 0.15322 0.13892
3626.478 0.13723 0.11661 0.11846 0.1718 0.2292 0.1926 0.13234 0.14244 0.1676 0.14782
3665.058 0.15103 0.15885 0.13819 0.15494 0.15923 0.1857 0.2029 0.1865 0.2073 0.2143
3703.637 0.1907 0.216 0.1994 0.17108 0.14741 0.14032 0.15968 0.1738 0.15599 0.13075
3742.217 0.15534 0.15047 0.16735 0.1849 0.16792 0.16431 0.15979 0.1866 0.1971 0.13969
3780.797 0.13465 0.2012 0.2234 0.2144 0.16597 0.08995 0.14358 0.2347 0.16664 0.08534
3819.376 0.07057 0.1051 0.1154 0.073441 0.12591 0.1876 0.16531 0.13708 0.15238 0.2013
3857.956 0.2411 0.2404 0.2051 0.184 0.2182 0.2583 0.2517 0.2496 0.2532 0.2431
3896.535 0.2879 0.3014 0.2762 0.3099 0.353 0.3233 0.3296 0.3404 0.2817 0.2473
3935.115 0.2408 0.2382 0.19 0.2733 0.3688 0.3565 0.312 0.3056 0.3181 0.3269
3973.694 0.3266 0.3159 0.3215 0.3588 0.3745 0.363 0.3741 0.344
##END=
