##TITLE=2-Phenylpropionaldehyde
##JCAMP-DX=4.24
##DATA TYPE=INFRARED SPECTRUM
##ORIGIN=EPA-IR VAPOR PHASE LIBRARY
##OWNER=SRD/NIST
Collection (C) 2018 copyright by the U.S. Secretary of Commerce
on behalf of the United States of America. All rights reserved.
##CAS REGISTRY NO=93-53-8
##MOLFORM=C 9 H 10 O
##$NIST SOURCE=MSDC-IR
##STATE=gas
##XUNITS=1/CM
##YUNITS=ABSORBANCE
##XFACTOR=1.
##YFACTOR=0.001
##DELTAX=1.92898
##FIRSTX=549.8
##LASTX=4000.7
##FIRSTY=3.24
##MAXX=4000.7
##MINX=549.759
##MAXY=0.08908
##MINY=0.0001353
##NPOINTS=1790
##XYDATA=(X++(Y..Y))
549.759 3.24 2.68 2.18 2.25 2.34 2.34 1.96 1.56 1.75 1.43
569.049 1 1.2 1.48 1.32 1.01 0.9572 1.17 1.36 1.22 0.9261
588.339 0.9208 1.21 1.04 0.8749 0.9828 1.15 1.14 0.8163 0.9257 1.16
607.628 1.01 0.9947 1.26 1.31 1.19 1.32 1.34 1.23 1.26 1.22
626.918 1.22 1.38 1.52 1.43 1.41 1.59 1.68 1.88 2.11 2.23
646.208 2.48 2.56 2.64 2.88 3.2 3.46 4 4.34 4.53 4.75
665.498 4.87 5.04 5.52 6.22 6.89 7.63 8.61 9.97 11.65 13.89
684.787 16.28 18.75 21.35 23.7 25.85 27.72 29.39 29.74 28.43 26.85
704.077 25.06 22.93 20.67 18.37 16.16 14.17 12.39 10.88 9.68 8.9
723.367 8.35 7.94 7.66 7.48 7.28 7.56 7.96 8.23 8.81 9.42
742.657 10.13 10.89 11.69 12.25 12.97 13.51 13.61 13.5 12.92 12.01
761.947 11.09 10.07 8.97 8.02 7.1 6.33 5.39 4.48 4 3.68
781.236 3.4 2.84 2.37 2.22 2.16 1.99 1.66 1.64 1.63 1.34
800.526 1.22 1.11 1.25 1.41 1.22 1.24 1.29 1.2 1.2 1.32
819.816 1.38 1.23 1.25 1.47 1.56 1.81 2.09 2.06 2.19 2.73
839.106 3.19 3.51 4 4.51 4.84 5.19 5.6 6.09 6.51 6.83
858.395 7.24 7.44 7.45 7.5 7.7 7.68 7.58 7.67 7.78 7.95
877.685 8.05 8.1 8 7.97 7.95 8.04 8.13 7.88 7.49 7.16
896.975 6.81 6.76 6.68 6.34 6 5.61 5.41 5.13 4.71 4.43
916.265 4.26 3.95 3.71 3.39 2.99 2.85 2.69 2.48 2.38 2.49
935.555 2.27 1.88 1.71 1.58 1.69 1.71 1.46 1.44 1.42 1.3
954.844 1.48 1.5 1.2 1.04 1.17 1.27 1.32 1.4 1.49 1.45
974.134 1.27 1.15 1.21 1.49 1.55 1.57 1.77 1.94 2.11 2.16
993.424 2.26 2.57 2.73 3.01 3.55 3.96 4.71 6 7.28 8.4
1012.714 9.88 11.3 11.97 12.55 13.12 13.05 12.59 11.92 10.73 9.28
1032.003 7.83 6.5 5.41 4.67 4.27 4.32 4.44 4.06 3.86 3.86
1051.293 3.66 4.21 4.81 5.04 5.57 5.64 5.48 5.6 5.74 5.61
1070.583 5.26 4.86 4.34 4.33 4.37 3.7 3.09 2.81 2.74 2.96
1089.873 2.88 2.5 2.67 2.72 2.75 2.99 3.15 3.22 3.7 3.88
1109.163 3.46 3.6 3.65 4 4.08 3.62 3.5 3.49 3.24 2.97
1128.452 2.61 2.87 2.92 2.74 2.68 2.17 2.07 1.96 1.95 2.07
1147.742 1.7 1.57 1.47 1.3 1.37 0.8961 0.8552 1.05 0.8105 0.7853
1167.032 1.06 0.9796 0.6737 0.6759 0.9643 1.09 1.01 1.2 1.26 1.02
1186.322 1.27 1.44 1.02 1.14 1.47 1.29 1.11 0.8883 0.5504 0.7591
1205.611 1.3 1.19 1.16 1.18 0.9208 0.9267 1.03 1.1 1.19 1.4
1224.901 1.2 1.03 1.13 0.9099 0.883 1.3 1.37 1.18 1.24 1.26
1244.191 1.22 1.07 0.9589 0.9984 1.03 0.9887 0.9316 0.9425 0.7639 0.7247
1263.481 1.03 1.07 1 1.16 1.4 1.64 1.74 1.81 1.97 2.08
1282.771 1.93 1.82 2.05 2.23 2.27 2.44 2.48 2.4 2.39 2.32
1302.060 2.27 2.25 2.18 2.11 2.06 2.01 2 1.93 1.85 1.83
1321.350 1.93 1.93 1.87 1.88 1.82 1.84 1.88 1.83 1.8 1.79
1340.640 1.74 1.71 1.69 1.63 1.56 1.56 1.59 1.61 1.62 1.73
1359.930 1.9 2.02 2.21 2.43 2.66 3 3.34 3.65 4.05 4.44
1379.219 4.8 5.15 5.35 5.51 5.61 5.66 5.61 5.38 5.08 4.79
1398.509 4.45 4.05 3.66 3.31 2.98 2.75 2.62 2.49 2.37 2.37
1417.799 2.34 2.38 2.53 2.65 2.78 2.94 3.23 3.62 4 4.46
1437.089 5.08 5.76 6.51 7.27 8.01 8.78 9.41 9.9 10.26 10.4
1456.378 10.42 10.3 9.96 9.42 8.83 8.23 7.56 7.01 6.56 6.24
1475.668 6.23 6.55 7.12 7.86 8.82 9.85 10.72 11.41 11.89 12.07
1494.958 12.02 11.83 11.31 10.35 9.2 7.94 6.69 5.58 4.59 3.83
1514.248 3.31 2.87 2.45 2.19 2.04 1.84 1.75 1.7 1.62 1.54
1533.538 1.46 1.43 1.39 1.32 1.36 1.31 1.14 1.1 1.11 1.12
1552.827 1.05 1.02 1.08 1.13 1.16 1.19 1.33 1.49 1.6 1.71
1572.117 1.83 1.99 2.3 2.6 2.89 3.29 3.66 4.15 4.78 5.43
1591.407 6.09 6.68 7.15 7.51 7.64 7.54 7.23 6.75 6.28 5.69
1610.697 4.91 4.17 3.51 2.92 2.43 2.06 1.89 1.76 1.66 1.58
1629.986 1.53 1.55 1.57 1.59 1.62 1.63 1.72 1.82 1.95 2.02
1649.276 2.04 2.18 2.3 2.45 2.65 2.78 2.87 3 3.19 3.37
1668.566 3.47 3.53 3.66 3.87 4.13 4.4 4.63 4.94 5.29 5.67
1687.856 6.07 6.49 6.97 7.5 8.11 8.79 9.51 10.38 11.38 12.5
1707.146 13.66 14.86 16.31 17.85 19.66 21.94 24.6 27.76 31.6 36.26
1726.435 41.83 48.23 55.34 62.61 69.67 76.31 81.96 86.15 88.6 89.08
1745.725 87.51 83.86 77.96 70.38 62.04 53.15 44.08 35.73 28.92 23.83
1765.015 20.09 17.38 15.27 13.66 12.42 11.42 10.69 10.02 9.4 8.93
1784.305 8.59 8.35 8.07 7.68 7.35 7.07 6.76 6.41 6.01 5.62
1803.594 5.26 4.81 4.3 3.9 3.56 3.25 2.98 2.73 2.51 2.3
1822.884 2.18 2.06 1.92 1.73 1.61 1.63 1.55 1.5 1.54 1.47
1842.174 1.45 1.51 1.56 1.6 1.63 1.69 1.76 1.83 1.93 1.99
1861.464 2 2.08 2.19 2.18 2.15 2.19 2.19 2.17 2.15 2.09
1880.754 2.02 1.94 1.84 1.73 1.68 1.61 1.42 1.29 1.2 1.1
1900.043 1.02 0.9443 0.8644 0.8403 0.9147 0.9276 0.9168 0.9859 1.03 1.04
1919.333 1.11 1.25 1.31 1.33 1.46 1.62 1.69 1.81 1.95 2
1938.623 2.07 2.15 2.22 2.29 2.3 2.26 2.17 2.18 2.21 2.08
1957.913 1.91 1.78 1.66 1.57 1.44 1.24 1.14 1.05 0.9056 0.8345
1977.202 0.8264 0.8272 0.8134 0.772 0.7227 0.6782 0.6665 0.6587 0.6292 0.6183
1996.492 0.6514 0.6734 0.6765 0.6805 0.6926 0.6949 0.6453 0.6247 0.6104 0.5515
2015.782 0.5612 0.6147 0.5939 0.5751 0.5675 0.4992 0.4246 0.4234 0.4267 0.3953
2035.072 0.4438 0.4706 0.4522 0.4905 0.4394 0.3635 0.4408 0.4546 0.3714 0.4022
2054.362 0.4483 0.4156 0.399 0.3968 0.3572 0.3483 0.3394 0.2793 0.2837 0.3709
2073.651 0.4091 0.3887 0.3652 0.3355 0.3197 0.3567 0.3298 0.26 0.3278 0.327
2092.941 0.2696 0.2827 0.2894 0.3036 0.3455 0.3985 0.3469 0.3327 0.3773 0.3367
2112.231 0.3184 0.3531 0.3798 0.3316 0.3162 0.3866 0.4029 0.359 0.2982 0.3208
2131.521 0.4026 0.3905 0.3455 0.3891 0.4177 0.3952 0.3989 0.4232 0.4468 0.434
2150.810 0.3649 0.3179 0.3317 0.3488 0.3742 0.38 0.3703 0.3481 0.3601 0.4472
2170.100 0.4441 0.3554 0.3746 0.4526 0.4765 0.4147 0.3575 0.3447 0.3686 0.3821
2189.390 0.4012 0.4053 0.3917 0.4577 0.4656 0.35 0.3178 0.3609 0.3298 0.3593
2208.680 0.3721 0.336 0.3804 0.4581 0.4197 0.3621 0.3765 0.3662 0.3862 0.3507
2227.970 0.3539 0.4265 0.3466 0.3408 0.4237 0.4426 0.4819 0.4625 0.4284 0.4362
2247.259 0.3874 0.3676 0.4399 0.3992 0.3553 0.3765 0.3115 0.3212 0.3666 0.3431
2266.549 0.3709 0.4708 0.4575 0.3807 0.3868 0.4134 0.4241 0.393 0.3804 0.4396
2285.839 0.4905 0.4192 0.3515 0.3541 0.3656 0.3594 0.3821 0.4391 0.4653 0.5032
2305.129 0.5374 0.6408 0.7299 0.6337 0.5726 0.6038 0.6522 0.6891 0.6584 0.6193
2324.418 0.6406 0.6087 0.5629 0.5302 0.536 0.5652 0.5812 0.5824 0.5575 0.543
2343.708 0.4787 0.5495 0.5893 0.5895 0.583 0.5734 0.6201 0.6382 0.6391 0.5782
2362.998 0.5324 0.5234 0.528 0.5435 0.5332 0.5857 0.5725 0.4122 0.3407 0.4261
2382.288 0.4889 0.4936 0.552 0.481 0.3811 0.4598 0.459 0.3693 0.3464 0.3774
2401.578 0.4388 0.4555 0.4504 0.447 0.433 0.3948 0.3577 0.3559 0.3352 0.3658
2420.867 0.4173 0.4268 0.4651 0.4656 0.4339 0.4545 0.4526 0.4277 0.4672 0.5303
2440.157 0.5047 0.3851 0.3942 0.4775 0.477 0.4426 0.4234 0.4292 0.4601 0.4878
2459.447 0.465 0.4091 0.4195 0.4642 0.4597 0.4446 0.428 0.4927 0.4561 0.3685
2478.737 0.4295 0.4379 0.3803 0.4014 0.4378 0.4491 0.4626 0.4943 0.5079 0.5553
2498.026 0.5518 0.4854 0.513 0.5031 0.4493 0.4348 0.4272 0.4174 0.4673 0.5007
2517.316 0.5308 0.5351 0.4812 0.4337 0.4622 0.4898 0.4795 0.5266 0.5342 0.4578
2536.606 0.4509 0.4904 0.4484 0.4777 0.5586 0.5804 0.5457 0.5261 0.5693 0.6238
2555.896 0.6598 0.6789 0.6251 0.5843 0.626 0.6759 0.7582 0.8076 0.8023 0.8127
2575.186 0.8655 0.904 0.8393 0.8104 0.8253 0.864 0.9432 1.01 1.09 1.11
2594.475 1.05 1.02 1.05 1.07 1.09 1.09 1.08 1.15 1.22 1.24
2613.765 1.31 1.39 1.4 1.51 1.54 1.52 1.65 1.72 1.88 2.08
2633.055 2.15 2.25 2.34 2.45 2.6 2.75 3.02 3.14 3.13 3.26
2652.345 3.43 3.57 3.77 3.96 4.09 4.22 4.43 4.66 4.86 5.15
2671.634 5.38 5.65 5.98 6.35 6.85 7.29 7.71 8.27 9.02 9.74
2690.924 10.41 11.19 11.94 12.66 13.37 14.02 14.67 15.27 15.69 16.03
2710.214 16.12 15.98 15.78 15.48 15.03 14.4 13.67 12.95 12.3 11.66
2729.504 11.12 10.59 10.02 9.63 9.3 8.96 8.71 8.4 8.16 8.05
2748.794 7.97 7.83 7.74 7.67 7.57 7.56 7.66 7.73 7.73 7.6
2768.083 7.57 7.64 7.67 7.81 7.91 8.12 8.32 8.55 9.09 9.73
2787.373 10.38 11.04 11.89 12.9 13.86 14.91 15.84 16.61 17.19 17.59
2806.663 17.77 17.64 17.2 16.46 15.65 14.63 13.54 12.53 11.46 10.53
2825.953 9.71 8.94 8.24 7.55 7.06 6.7 6.31 6.03 5.86 5.67
2845.242 5.56 5.55 5.52 5.47 5.55 5.66 5.63 5.78 5.99 6.25
2864.532 6.53 6.91 7.35 7.81 8.38 8.98 9.66 10.31 10.77 11.14
2883.822 11.4 11.47 11.52 11.44 11.08 10.6 10.17 9.64 9.14 8.76
2903.112 8.35 7.91 7.67 7.4 7.1 7.06 7.03 6.98 6.99 7.03
2922.401 7.16 7.45 7.79 8.15 8.62 9.06 9.48 10.04 10.39 10.77
2941.691 11.13 11.2 11.11 10.88 10.58 10.21 9.74 9.32 8.98 8.73
2960.981 8.77 9.15 9.57 10.23 11.36 12.73 14.25 15.85 17.7 19.68
2980.271 21.27 22.14 22.25 21.87 21.17 20.04 18.59 16.99 15.14 12.92
2999.561 10.88 9.4 8.24 7.36 6.83 6.72 6.84 7.11 7.58 8.28
3018.850 9.15 10.1 11.24 12.36 13.49 14.6 15.48 16.16 16.48 16.61
3038.140 16.38 15.91 15.3 14.45 13.43 12.32 11.45 10.85 10.71 10.91
3057.430 11.37 12.22 13.47 14.91 16.15 17.28 18.21 18.74 18.91 18.84
3076.720 18.57 18.08 17.3 16.22 14.97 13.55 12.36 11.47 10.9 10.43
3096.009 9.65 8.95 8.39 7.81 7.25 6.62 5.96 5.52 5.03 4.55
3115.299 4.12 3.54 3.14 2.84 2.56 2.33 2.03 1.85 1.77 1.63
3134.589 1.55 1.37 1.32 1.38 1.29 1.25 1.22 1.1 1.05 1.05
3153.879 1.03 1.11 1.1 1.06 1.15 1.09 1.05 1.08 1.02 0.9063
3173.169 0.8512 0.8486 0.9018 0.9124 0.8541 0.7528 0.624 0.6924 0.7662 0.8335
3192.458 0.7972 0.6731 0.6729 0.6356 0.66 0.6591 0.6689 0.616 0.6285 0.7423
3211.748 0.6642 0.6179 0.5003 0.3894 0.4191 0.4495 0.482 0.4025 0.4036 0.3887
3231.038 0.3464 0.4145 0.4193 0.4236 0.4347 0.4036 0.3504 0.4114 0.4789 0.2956
3250.328 0.2357 0.3439 0.32 0.4179 0.5242 0.5215 0.4691 0.5327 0.3982 0.3797
3269.617 0.4294 0.3392 0.463 0.4407 0.3732 0.338 0.2593 0.307 0.3625 0.3778
3288.907 0.5453 0.5486 0.4814 0.5209 0.4224 0.4304 0.5253 0.5735 0.6215 0.4608
3308.197 0.3249 0.3533 0.2145 0.2655 0.3175 0.2451 0.3154 0.4359 0.5606 0.5237
3327.487 0.5809 0.5283 0.2636 0.2484 0.4417 0.3971 0.4741 0.4933 0.3702 0.4209
3346.777 0.3259 0.3414 0.4364 0.3842 0.4605 0.4013 0.3164 0.4105 0.3544 0.3552
3366.066 0.3893 0.4129 0.4956 0.5159 0.3524 0.2786 0.4769 0.5455 0.4392 0.4224
3385.356 0.5209 0.4938 0.4518 0.5048 0.4898 0.4919 0.469 0.4639 0.6233 0.7036
3404.646 0.6416 0.6463 0.5959 0.5625 0.6912 0.6283 0.7054 0.8867 0.8046 0.698
3423.936 0.7251 0.818 0.8026 0.9769 1.07 1.1 1.22 1.27 1.3 1.36
3443.225 1.43 1.46 1.74 1.98 1.97 1.96 2.08 2.17 2.15 2.07
3462.515 1.96 1.87 1.83 1.76 1.8 1.74 1.48 1.37 1.27 1.07
3481.805 1.02 1.06 1.08 1.04 1.07 0.9506 0.8722 0.9299 0.819 0.7746
3501.095 0.7704 0.6673 0.6533 0.6682 0.586 0.5492 0.4685 0.4591 0.5548 0.6639
3520.385 0.5253 0.3995 0.4507 0.5632 0.5142 0.4217 0.481 0.4127 0.3864 0.455
3539.674 0.4914 0.4395 0.4402 0.4015 0.4007 0.4465 0.3238 0.2729 0.2836 0.3524
3558.964 0.3298 0.393 0.5182 0.466 0.3909 0.4196 0.5609 0.5568 0.5647 0.511
3578.254 0.4116 0.4781 0.5794 0.5091 0.4186 0.4607 0.3274 0.2361 0.335 0.507
3597.544 0.5664 0.4073 0.2949 0.2603 0.2694 0.3425 0.3796 0.3743 0.3479 0.2838
3616.833 0.3476 0.473 0.3802 0.3262 0.5165 0.5466 0.4627 0.3735 0.341 0.5241
3636.123 0.5954 0.4643 0.379 0.4371 0.5089 0.4964 0.548 0.5901 0.4814 0.4388
3655.413 0.4952 0.5802 0.4788 0.3608 0.5627 0.7048 0.6694 0.496 0.4231 0.5783
3674.703 0.5962 0.5795 0.4375 0.3896 0.5089 0.4972 0.3686 0.3187 0.301 0.1353
3693.993 0.2502 0.4285 0.3755 0.4263 0.4703 0.3539 0.3904 0.4135 0.392 0.3692
3713.282 0.3371 0.4436 0.5284 0.6187 0.5819 0.4254 0.3461 0.4145 0.5714 0.5804
3732.572 0.4237 0.3007 0.3454 0.3657 0.317 0.4032 0.6549 0.7213 0.5308 0.3174
3751.862 0.3288 0.2956 0.3512 0.467 0.2774 0.3088 0.3902 0.3766 0.4492 0.544
3771.152 0.4936 0.5486 0.5578 0.3417 0.3144 0.3528 0.3822 0.3652 0.3543 0.474
3790.441 0.4953 0.4584 0.5266 0.4847 0.4587 0.4197 0.4328 0.6699 0.6308 0.4973
3809.731 0.5016 0.4682 0.6115 0.5495 0.4605 0.6033 0.5501 0.4372 0.4191 0.4011
3829.021 0.3338 0.3692 0.3908 0.3732 0.5343 0.6228 0.6261 0.6309 0.5427 0.4144
3848.311 0.3969 0.4704 0.5462 0.5671 0.4362 0.3927 0.4254 0.3626 0.3395 0.4059
3867.601 0.4428 0.4246 0.4622 0.4624 0.4915 0.4816 0.464 0.4214 0.4192 0.4352
3886.890 0.4109 0.4739 0.4113 0.4889 0.611 0.565 0.4679 0.4995 0.5338 0.456
3906.180 0.4103 0.5095 0.5308 0.4487 0.4036 0.2647 0.3547 0.463 0.4398 0.5449
3925.470 0.4721 0.4082 0.5799 0.5971 0.4231 0.2706 0.3224 0.599 0.696 0.5876
3944.760 0.4945 0.4236 0.3424 0.3991 0.5014 0.5761 0.6321 0.5348 0.4179 0.3484
3964.049 0.4645 0.5636 0.3767 0.4176 0.6113 0.3925 0.2551 0.284 0.2486 0.3335
3983.339 0.4164 0.4226 0.6307 0.6425 0.5597 0.6371 0.6258 0.674 0.6638 0.5397
##END=
