##TITLE=Silvex acid
##JCAMP-DX=4.24
##DATA TYPE=INFRARED SPECTRUM
##ORIGIN=NIST Mass Spectrometry Data Center
##OWNER=NIST Standard Reference Data Program
Collection (C) 2018 copyright by the U.S. Secretary of Commerce
on behalf of the United States of America. All rights reserved.
##CAS REGISTRY NO=93-72-1
##MOLFORM=C 9 H 7 Cl 3 O 3
##$NIST SOURCE=MSDC-IR
##SPECTROMETER/DATA SYSTEM=HP-GC/MS/IRD
##STATE=gas
##XUNITS=1/CM
##YUNITS=ABSORBANCE
##XFACTOR=1.0
##YFACTOR=0.000001000
##DELTAX=4.0
##FIRSTX=550.0
##LASTX=3846.0
##FIRSTY=0.001546
##MAXX=3846
##MINX=550
##MAXY=0.01
##MINY=0
##NPOINTS=825
##XYDATA=(X++(Y..Y))
550.0 1546 1123 860 1086 1262 1352 1377 1428 1489 1465
590.0 1454 1387 1265 1255 1263 1233 1225 1175 1019 933
630.0 845 706 576 426 373 365 271 249 334 464
670.0 682 1053 1546 1613 1194 691 349 214 144 126
710.0 148 155 209 435 591 700 886 1048 1198 1399
750.0 1570 1610 1524 1314 1044 834 646 503 404 294
790.0 254 196 148 189 190 203 214 194 189 148
830.0 185 179 133 147 170 158 129 159 252 457
870.0 777 1130 1293 1196 1001 851 762 608 388 222
910.0 146 57 9 16 16 23 41 63 101 220
950.0 414 606 700 740 646 448 289 188 117 122
990.0 203 220 208 284 427 572 781 1047 1269 1463
1030.0 1714 2011 2077 2038 2002 1934 2051 2276 2746 3505
1070.0 4634 6325 8143 9379 9789 9473 8782 7915 6865 5770
1110.0 4941 4457 4451 4794 5114 5120 4754 4079 3436 2900
1150.0 2558 2417 2347 2333 2253 2181 2110 1966 1768 1557
1190.0 1385 1266 1165 1078 1068 1111 1243 1489 1907 2501
1230.0 3259 3977 4393 4418 4042 3473 2937 2644 2476 2350
1270.0 2256 2137 2015 1814 1614 1486 1406 1378 1426 1525
1310.0 1695 1946 2231 2529 2788 2916 2957 3067 3394 3915
1350.0 4345 4242 3600 2819 2262 1962 1817 1814 1836 1730
1390.0 1490 1221 1004 848 764 730 714 726 789 916
1430.0 1125 1470 2062 3014 4400 6213 8134 9625 10000 9153
1470.0 7791 6612 5667 4631 3508 2500 1795 1367 1107 898
1510.0 693 534 437 376 335 312 315 324 346 347
1550.0 316 326 384 413 478 616 788 990 1118 1052
1590.0 800 545 348 204 130 115 92 75 87 106
1630.0 104 95 94 81 75 81 80 77 71 73
1670.0 72 74 70 75 107 101 115 150 173 204
1710.0 239 282 332 413 505 616 757 895 1067 1277
1750.0 1539 1840 2178 2630 3278 4191 5180 5833 5944 5753
1790.0 5807 6142 6422 6334 5703 4617 3385 2413 1769 1349
1830.0 1057 850 687 562 476 407 349 302 249 192
1870.0 160 135 109 100 83 73 58 47 46 46
1910.0 57 37 40 59 58 53 26 17 34 36
1950.0 22 20 39 46 39 38 40 50 58 52
1990.0 56 46 33 45 50 51 39 29 27 39
2030.0 41 28 27 29 29 33 36 41 32 35
2070.0 37 16 19 21 5 0 18 21 26 47
2110.0 44 33 35 9 10 29 33 54 69 74
2150.0 62 46 58 76 81 67 45 53 71 73
2190.0 69 67 61 60 54 69 61 61 77 68
2230.0 68 53 51 63 46 47 62 46 46 34
2270.0 37 65 83 88 70 65 57 46 78 100
2310.0 96 126 139 126 147 150 136 134 124 125
2350.0 138 156 174 197 187 157 149 128 86 63
2390.0 68 71 71 78 58 55 82 80 72 55
2430.0 64 57 34 27 52 49 53 48 38 71
2470.0 79 60 93 118 96 93 86 95 96 81
2510.0 77 80 79 61 56 64 70 56 44 56
2550.0 65 65 53 58 55 49 58 49 39 61
2590.0 82 101 66 19 30 51 75 76 68 55
2630.0 30 35 30 7 50 86 41 37 52 39
2670.0 39 70 105 71 32 39 53 61 70 90
2710.0 78 48 62 84 84 65 57 74 80 66
2750.0 80 85 72 72 53 68 94 115 117 83
2790.0 85 100 88 84 86 89 94 90 86 66
2830.0 68 89 92 93 98 68 7 33 96 127
2870.0 109 85 81 120 191 247 255 242 250 235
2910.0 210 216 237 287 337 358 419 463 535 626
2950.0 654 592 447 321 299 304 291 288 325 391
2990.0 487 661 805 916 880 653 468 350 281 221
3030.0 195 177 139 138 114 97 114 114 125 137
3070.0 115 122 172 202 202 188 168 142 81 55
3110.0 58 108 137 112 121 96 81 90 89 84
3150.0 97 109 105 107 92 47 40 35 41 55
3190.0 71 85 71 50 32 12 45 113 143 113
3230.0 77 56 48 71 83 81 95 83 82 92
3270.0 75 70 66 78 73 72 103 117 62 9
3310.0 52 97 66 67 125 118 99 125 114 61
3350.0 53 119 132 88 88 92 74 103 122 94
3390.0 63 88 115 77 54 124 125 87 125 172
3430.0 129 117 135 122 126 118 121 149 159 191
3470.0 233 220 263 289 310 335 350 412 531 716
3510.0 888 1003 1065 1045 1028 959 860 784 774 793
3550.0 838 1049 1329 1915 2918 3838 3863 2924 1849 1125
3590.0 734 548 493 439 337 275 228 203 205 197
3630.0 162 176 244 232 169 172 199 180 186 234
3670.0 199 145 168 156 135 133 127 176 226 225
3710.0 182 175 182 132 161 185 177 203 239 234
3750.0 145 162 202 165 199 150 94 144 154 146
3790.0 173 205 168 154 170 193 187 149 175 205
3830.0 240 195 179 192 142
##END=
