##TITLE=Oleic diethanolamide
##JCAMP-DX=4.24
##DATA TYPE=INFRARED SPECTRUM
##ORIGIN=EPA-IR VAPOR PHASE LIBRARY
##OWNER=SRD/NIST
Collection (C) 2018 copyright by the U.S. Secretary of Commerce
on behalf of the United States of America. All rights reserved.
##CAS REGISTRY NO=93-83-4
##MOLFORM=C 22 H 43 N O 3
##$NIST SOURCE=MSDC-IR
##STATE=gas
##XUNITS=1/CM
##YUNITS=ABSORBANCE
##XFACTOR=1.
##YFACTOR=0.001
##DELTAX=1.92898
##FIRSTX=549.8
##LASTX=4000.7
##FIRSTY=0.5456
##MAXX=4000.7
##MINX=549.759
##MAXY=0.011464
##MINY=0
##NPOINTS=1790
##XYDATA=(X++(Y..Y))
549.759 0.5456 0.092 0 0.48086 0.8907 0.7422 0.7633 1.0252 0.7372 0.6818
569.049 0.311 0.238 0.9302 0.7701 0.3676 0.373 0.47826 0.6359 0.8419 0.5189
588.339 0.165 0.127 0.161 0.28 0.46174 0.5487 0.6158 0.3524 0.026 0.182
607.628 0.3974 0.5074 0.5304 0.5544 0.47898 0.217 0.29 0.46685 0.5458 0.6558
626.918 0.585 0.365 0.3932 0.648 0.5436 0.3654 0.3718 0.42992 0.309 0.064
646.208 0.023 0.4321 0.48624 0.191 0.077 0.281 0.50659 0.3719 0.5188 0.6148
665.498 0.4126 0.3357 0.3288 0.45053 0.49081 0.305 0.285 0.5169 0.47582 0.219
684.787 0.3527 0.5155 0.5872 0.578 0.6695 0.8121 0.893 0.8935 0.7096 0.6663
704.077 0.8161 0.7947 0.5024 0.48629 0.7572 0.872 0.9036 0.9734 0.853 0.7767
723.367 0.8115 0.7382 0.6164 0.7118 0.8285 0.9689 1.035 0.5505 0.3884 0.5334
742.657 0.5899 0.7898 0.8636 0.7438 0.6453 0.6399 0.554 0.48209 0.5373 0.6458
761.947 0.5756 0.5185 0.569 0.6141 0.5341 0.5976 0.6609 0.46306 0.5625 0.739
781.236 0.5917 0.294 0.071 0.195 0.5628 0.6331 0.49137 0.42596 0.6205 0.5932
800.526 0.269 0.3329 0.421361 0.44701 0.5517 0.47269 0.3566 0.3997 0.46193 0.5229
819.816 0.7483 0.6681 0.3691 0.422025 0.3981 0.3978 0.47366 0.5531 0.6298 0.5518
839.106 0.43023 0.44679 0.6821 0.6286 0.5753 0.7295 0.6324 0.5654 0.5856 0.5822
858.395 0.5272 0.3534 0.3862 0.48834 0.47095 0.46004 0.43174 0.373 0.34 0.306
877.685 0.3491 0.43061 0.5316 0.7103 0.633 0.5747 0.5538 0.5432 0.5177 0.3298
896.975 0.374 0.416111 0.43073 0.47658 0.6095 0.5627 0.44179 0.5692 0.5807 0.44475
916.265 0.44656 0.6173 0.7164 0.6118 0.51129 0.6409 0.5991 0.43107 0.47879 0.5816
935.555 0.7132 0.7357 0.7406 0.7194 0.7004 0.7112 0.5486 0.6645 0.882 0.7464
954.844 0.7874 0.9379 0.843 0.7676 0.8182 0.8659 0.9102 0.9034 0.8757 0.854
974.134 0.8144 0.5928 0.44544 0.6841 0.7165 0.7744 0.7434 0.5377 0.6213 0.7621
993.424 0.808 0.7587 0.7591 0.8414 0.8543 0.8251 0.7049 0.6943 0.9211 0.9878
1012.714 1.0056 1.1575 1.2173 1.342 1.293 0.9706 1.2332 1.3951 1.2607 1.464
1032.003 1.474 1.444 1.3029 1.0286 1.2108 1.312 1.1911 0.9719 0.6303 0.6473
1051.293 1.0307 1.3088 1.0482 0.955 0.968 0.6159 0.6066 0.7421 0.7903 0.7668
1070.583 1.1102 1.4019 0.9719 0.8279 1.0363 1.1577 1.2519 1.105 0.7608 0.51227
1089.873 0.676 0.8945 0.964 1.0562 1.1814 1.2453 1.2722 1.4007 1.484 1.674
1109.163 1.714 1.874 2.444 2.754 2.714 3.064 3.184 2.824 2.424 2.304
1128.452 2.134 1.874 1.904 1.814 1.464 1.025 0.6193 0.8381 1.0927 0.6142
1147.742 0.45321 0.7815 0.8166 0.51395 0.48812 0.6434 0.686 0.6658 0.5704 0.44615
1167.032 0.413828 0.44054 0.3636 0.47553 0.5198 0.40907 0.48468 0.3268 0.46285 0.758
1186.322 0.6945 0.7698 0.9967 0.8662 0.8117 0.9464 0.8728 0.9746 0.9971 1.1494
1205.611 1.4022 1.544 1.3699 1.3275 1.774 1.754 1.544 1.684 1.794 1.954
1224.901 2.034 1.914 1.884 1.674 1.634 1.744 1.714 1.614 1.3071 1.376
1244.191 1.4059 1.1947 1.1478 1.1364 1.0838 1.0594 1.0954 1.1809 1.3015 1.3249
1263.481 1.3386 1.2933 1.1783 1.3567 1.594 1.584 1.424 1.184 1.2634 1.2913
1282.771 1.0725 0.8306 0.7937 0.8203 0.876 0.966 0.9707 0.9654 0.9087 0.8615
1302.060 0.8505 0.8605 0.838 0.8601 0.8504 0.7905 0.734 0.692 0.7389 0.74
1321.350 0.6885 0.6889 0.6663 0.6856 0.76 0.7313 0.6934 0.701 0.7995 0.8766
1340.640 0.8415 0.9109 1.0003 1.0454 1.0594 1.0994 1.2132 1.2452 1.2508 1.2867
1359.930 1.3318 1.3046 1.2414 1.2461 1.2193 1.1672 1.1869 1.2197 1.2247 1.2445
1379.219 1.3075 1.3642 1.3889 1.454 1.514 1.644 1.804 1.844 1.934 2.134
1398.509 2.384 2.644 2.844 3.024 3.164 3.284 3.444 3.544 3.494 3.374
1417.799 3.294 3.184 2.884 2.594 2.424 2.284 2.184 1.994 1.834 1.824
1437.089 1.834 1.834 1.864 1.884 1.904 1.974 2.064 2.124 2.154 2.234
1456.378 2.324 2.274 2.234 2.214 2.124 1.974 1.804 1.684 1.564 1.424
1475.668 1.2518 1.1005 1.0257 1.008 0.9966 0.9768 0.9368 0.8482 0.8236 0.8104
1494.958 0.8625 0.909 0.821 0.7512 0.6851 0.6664 0.7334 0.6993 0.6311 0.6392
1514.248 0.721 0.7362 0.6587 0.654 0.6653 0.6615 0.613 0.5649 0.5554 0.5493
1533.538 0.5854 0.6347 0.6068 0.6292 0.654 0.602 0.6129 0.5982 0.5771 0.6185
1552.827 0.6436 0.659 0.6029 0.5449 0.5469 0.601 0.5716 0.51113 0.6115 0.5877
1572.117 0.4039 0.3234 0.414003 0.47061 0.50393 0.5208 0.47583 0.49559 0.5893 0.605
1591.407 0.5297 0.48313 0.46687 0.47902 0.5604 0.5906 0.5488 0.5712 0.5361 0.501
1610.697 0.5562 0.5958 0.7088 0.7706 0.6021 0.47476 0.5321 0.5791 0.586 0.6503
1629.986 0.6998 0.679 0.6694 0.7117 0.6544 0.6895 0.8566 0.9416 1.0466 1.1265
1649.276 1.1186 1.1975 1.3415 1.414 1.554 1.814 2.144 2.504 2.934 3.464
1668.566 4.074 4.854 5.564 6.134 6.594 6.834 6.814 6.554 6.054 5.374
1687.856 4.574 3.784 3.104 2.534 2.204 1.934 1.634 1.3941 1.1441 0.9128
1707.146 0.8677 0.8489 0.7344 0.7115 0.8189 0.8447 0.714 0.6247 0.6147 0.6095
1726.435 0.5946 0.6049 0.5881 0.5887 0.6405 0.577 0.5704 0.543 0.46473 0.50634
1745.725 0.5944 0.6418 0.6279 0.5938 0.49714 0.46109 0.48475 0.4822 0.5407 0.5475
1765.015 0.5069 0.5409 0.49927 0.48368 0.50871 0.4037 0.3981 0.49006 0.538 0.5333
1784.305 0.47082 0.47266 0.43752 0.3884 0.4015 0.3807 0.3905 0.419673 0.43608 0.4364
1803.594 0.4379 0.45645 0.48197 0.46629 0.403 0.3524 0.3767 0.42853 0.44982 0.44652
1822.884 0.45012 0.4486 0.44041 0.46532 0.42402 0.3453 0.3214 0.3241 0.3758 0.422439
1842.174 0.421839 0.48478 0.49046 0.41256 0.417968 0.46157 0.48087 0.50526 0.47917 0.45027
1861.464 0.46785 0.47644 0.42748 0.45564 0.49569 0.421595 0.3215 0.31 0.3465 0.3941
1880.754 0.45352 0.44339 0.45653 0.46092 0.45449 0.46126 0.45795 0.48295 0.5158 0.5158
1900.043 0.49382 0.44089 0.3966 0.41239 0.48131 0.46172 0.3966 0.3677 0.295 0.3336
1919.333 0.3566 0.3538 0.44317 0.5263 0.5311 0.4885 0.45842 0.43063 0.45252 0.42596
1938.623 0.3933 0.43076 0.47079 0.45968 0.47558 0.48261 0.50897 0.5236 0.47921 0.50777
1957.913 0.5182 0.45911 0.45203 0.51348 0.5296 0.47046 0.47242 0.488 0.48467 0.5089
1977.202 0.4551 0.3972 0.42593 0.49834 0.5463 0.49251 0.4424 0.46882 0.5133 0.50626
1996.492 0.44745 0.423817 0.423035 0.3957 0.3639 0.48134 0.5143 0.44462 0.5043 0.5325
2015.782 0.42477 0.3843 0.44961 0.42714 0.40974 0.44497 0.43234 0.45782 0.46223 0.46218
2035.072 0.48699 0.48099 0.50975 0.50234 0.51012 0.47719 0.418763 0.44407 0.45305 0.459
2054.362 0.46435 0.48563 0.47795 0.420615 0.44389 0.48248 0.459 0.43952 0.47526 0.47981
2073.651 0.4398 0.47158 0.5785 0.5659 0.5022 0.46207 0.375 0.362 0.4351 0.51225
2092.941 0.46482 0.44657 0.49369 0.43323 0.42594 0.43791 0.43781 0.45826 0.45415 0.47176
2112.231 0.49879 0.5548 0.585 0.5432 0.4923 0.5419 0.5686 0.47464 0.44843 0.4433
2131.521 0.413452 0.5266 0.5763 0.50427 0.50014 0.5241 0.5252 0.47554 0.47818 0.5325
2150.810 0.5463 0.5328 0.48482 0.416541 0.48285 0.5149 0.50407 0.5293 0.5464 0.5953
2170.100 0.5905 0.6281 0.5882 0.45771 0.45112 0.50548 0.49291 0.50299 0.50047 0.48831
2189.390 0.5253 0.47747 0.45654 0.5144 0.5438 0.5205 0.5448 0.5745 0.5303 0.5414
2208.680 0.5553 0.50965 0.5173 0.5605 0.5977 0.5714 0.5513 0.5562 0.50009 0.46694
2227.970 0.46346 0.55 0.5514 0.46657 0.48662 0.49219 0.5352 0.5799 0.5436 0.527
2247.259 0.5162 0.5437 0.5321 0.50797 0.5303 0.45683 0.46355 0.49791 0.45923 0.5338
2266.549 0.6173 0.6219 0.5391 0.5593 0.572 0.50401 0.49412 0.45994 0.5242 0.5981
2285.839 0.5681 0.5495 0.5226 0.51034 0.51108 0.48345 0.5571 0.6029 0.6405 0.6808
2305.129 0.6121 0.5996 0.5676 0.5452 0.49519 0.49414 0.6168 0.5996 0.5429 0.49679
2324.418 0.50375 0.5463 0.5214 0.50278 0.5248 0.5906 0.5811 0.5238 0.5421 0.527
2343.708 0.49716 0.5289 0.5547 0.5824 0.6572 0.5826 0.546 0.5961 0.5856 0.5715
2362.998 0.5459 0.5498 0.5508 0.5717 0.5776 0.5334 0.50141 0.5159 0.5765 0.6144
2382.288 0.5531 0.5374 0.6223 0.6149 0.6112 0.6185 0.5532 0.5389 0.5144 0.46238
2401.578 0.5257 0.5751 0.5788 0.5905 0.5627 0.5726 0.5859 0.5196 0.47466 0.51361
2420.867 0.5362 0.5497 0.5598 0.5978 0.6452 0.6061 0.48149 0.5688 0.6503 0.5825
2440.157 0.5764 0.50984 0.46841 0.50329 0.50739 0.5426 0.6316 0.6409 0.6254 0.6236
2459.447 0.5692 0.5666 0.5452 0.48542 0.4996 0.565 0.5882 0.541 0.5614 0.5589
2478.737 0.5215 0.5993 0.5951 0.5614 0.624 0.642 0.5971 0.5422 0.565 0.5658
2498.026 0.5367 0.5235 0.5167 0.5823 0.5563 0.45368 0.47209 0.515 0.5959 0.7007
2517.316 0.6669 0.5673 0.5655 0.5906 0.5959 0.614 0.6553 0.6316 0.6008 0.6223
2536.606 0.51199 0.5643 0.613 0.5353 0.6319 0.6433 0.6157 0.6611 0.7051 0.6652
2555.896 0.5532 0.637 0.7154 0.6696 0.5946 0.6041 0.5291 0.5637 0.6127 0.47705
2575.186 0.5921 0.6155 0.5386 0.50246 0.5606 0.6277 0.656 0.6508 0.5908 0.6705
2594.475 0.696 0.6051 0.50559 0.5208 0.6504 0.7023 0.7217 0.693 0.6376 0.6753
2613.765 0.7222 0.6871 0.6876 0.6659 0.6427 0.6773 0.6659 0.6114 0.6375 0.634
2633.055 0.6252 0.6848 0.7012 0.7487 0.7019 0.6062 0.6058 0.6161 0.6138 0.6963
2652.345 0.6884 0.6957 0.778 0.6656 0.6084 0.7064 0.6887 0.6116 0.6385 0.7044
2671.634 0.6565 0.698 0.7989 0.7884 0.8041 0.8372 0.8464 0.8357 0.8072 0.7734
2690.924 0.663 0.6168 0.6498 0.6677 0.762 0.835 0.8237 0.8351 0.9146 0.9533
2710.214 0.9163 0.8711 0.8887 1.0164 1.0077 0.8852 0.8589 0.7466 0.7416 0.7129
2729.504 0.673 0.7778 0.7917 0.784 0.8195 0.7881 0.8036 0.867 0.8379 0.8574
2748.794 0.8806 0.8767 0.8224 0.761 0.8088 0.8562 0.8799 0.7953 0.7501 0.859
2768.083 0.8541 0.8664 0.9099 0.8791 0.8712 0.8263 0.7954 0.8607 0.9079 0.9235
2787.373 1.0295 1.0418 0.9761 0.9144 0.8959 0.8968 0.8551 1.0262 1.0582 0.8912
2806.663 0.961 1.0044 0.991 1.0879 1.1071 1.0378 1.0317 1.1558 1.3094 1.2636
2825.953 1.2901 1.3375 1.424 1.664 1.704 1.744 1.844 1.904 2.144 2.464
2845.242 2.734 3.034 3.464 3.814 4.264 4.964 5.494 5.984 6.274 6.354
2864.532 6.414 6.094 5.624 5.294 4.974 4.644 4.424 4.214 4.064 3.984
2883.822 3.884 3.794 3.784 3.734 3.684 3.834 3.984 3.964 4.134 4.464
2903.112 4.664 4.814 5.054 5.404 5.674 5.914 6.324 6.964 7.514 7.984
2922.401 8.594 9.274 10.044 10.854 11.434 11.464 11.194 10.754 10.294 9.714
2941.691 8.824 8.094 7.434 6.764 6.264 5.864 5.554 5.244 4.984 4.934
2960.981 4.954 5.054 5.284 5.464 5.594 5.564 5.394 5.194 4.724 4.134
2980.271 3.554 2.994 2.564 2.304 2.214 2.254 2.284 2.124 2.094 2.084
2999.561 2.164 2.254 2.164 2.304 2.444 2.384 2.364 2.314 2.234 2.214
3018.850 2.004 1.764 1.584 1.3458 1.1787 1.1559 1.1489 0.9384 0.8866 0.9829
3038.140 0.9126 1.0557 1.0359 0.8349 0.8391 0.8822 0.9452 0.9125 0.7645 0.6863
3057.430 0.7426 0.8849 0.9399 0.8688 0.7647 0.7814 0.9369 0.8154 0.7248 0.82
3076.720 0.7908 0.795 0.8087 0.8183 0.889 0.8093 0.6526 0.771 0.8817 0.8108
3096.009 0.7292 0.7203 0.8221 0.8605 0.7664 0.753 0.7442 0.7913 1.0514 1.0221
3115.299 0.8047 0.7435 0.6626 0.6033 0.6675 0.7513 0.8292 0.865 0.7944 0.723
3134.589 0.7609 0.862 0.8777 0.7503 0.6337 0.5787 0.48337 0.5888 0.7524 0.768
3153.879 0.7666 0.683 0.7258 0.6308 0.5559 0.6884 0.6889 0.6422 0.6724 0.6908
3173.169 0.784 0.787 0.6742 0.6243 0.6147 0.7056 0.6983 0.6722 0.5326 0.41278
3192.458 0.5403 0.7449 0.8692 0.8553 0.6818 0.5683 0.632 0.7033 0.697 0.6863
3211.748 0.7459 0.7687 0.7613 0.7602 0.7365 0.7985 0.8529 0.8293 0.8724 0.8671
3231.038 0.8283 0.7661 0.6423 0.7647 0.8655 0.8313 0.8582 0.6863 0.6041 0.7163
3250.328 0.7352 0.562 0.558 0.7044 0.7755 0.9517 0.897 0.6748 0.8029 0.6629
3269.617 0.46856 0.7115 0.7508 0.6769 0.6747 0.5975 0.5215 0.48413 0.6902 0.7547
3288.907 0.8023 0.8418 0.7053 0.7039 0.6017 0.7113 0.8013 0.8079 0.7874 0.8667
3308.197 0.8552 0.6112 0.6399 0.7784 0.8007 0.9262 1.0929 0.988 0.8138 0.5928
3327.487 0.5814 0.6753 0.6664 0.7096 0.7677 0.8853 0.7449 0.8031 0.8953 0.8051
3346.777 0.9121 0.9772 0.8604 0.6701 0.5554 0.5685 0.6395 0.5935 0.46858 0.5199
3366.066 0.6906 0.7303 0.6783 0.6544 0.6029 0.6293 0.7187 0.7676 0.7529 0.6476
3385.356 0.828 0.9892 0.8539 0.7547 0.881 0.923 0.8206 0.7043 0.5595 0.6095
3404.646 0.7371 0.7431 0.7752 0.8417 0.6953 0.6772 0.7204 0.7509 0.8817 0.6981
3423.936 0.5593 0.46056 0.43534 0.5725 0.6221 0.5796 0.521 0.58 0.5971 0.6427
3443.225 0.6369 0.6782 0.755 0.7044 0.7049 0.7133 0.7238 0.6247 0.554 0.50328
3462.515 0.49351 0.5989 0.6711 0.5972 0.5523 0.7593 0.775 0.6979 0.7485 0.8805
3481.805 0.7419 0.7001 0.6664 0.6635 0.7533 0.5863 0.571 0.7483 0.7457 0.6317
3501.095 0.6492 0.5989 0.6021 0.5604 0.6855 0.9113 0.8388 0.8463 0.8449 0.6964
3520.385 0.6306 0.6974 0.6839 0.793 0.9332 0.8145 0.8591 0.845 0.6666 0.7033
3539.674 0.7156 0.5168 0.5578 0.75 0.684 0.50672 0.46777 0.3779 0.3869 0.6231
3558.964 0.8436 0.7545 0.6736 0.7518 0.8304 0.6689 0.6258 0.6663 0.50857 0.6351
3578.254 0.7744 0.7465 0.6681 0.6798 0.6322 0.6857 0.7091 0.6141 0.6161 0.7447
3597.544 0.7623 0.7295 0.7375 0.6386 0.7981 0.7384 0.791 1.0292 1.038 0.8173
3616.833 0.6543 0.725 0.761 0.8692 0.8116 0.7137 0.7392 0.9125 0.8277 0.7094
3636.123 0.655 0.6555 0.7483 0.7194 0.9392 0.9384 0.7989 0.9085 1.0305 0.9821
3655.413 0.9013 0.8406 0.6493 0.692 0.8878 0.7921 0.5724 0.6555 0.7668 0.7209
3674.703 0.7273 0.6902 0.7176 0.6801 0.6804 0.7683 0.6319 0.8566 0.7324 0.5653
3693.993 0.7595 0.6913 0.7782 0.8379 0.7909 0.7353 0.7316 0.7835 0.8183 0.7796
3713.282 0.8333 0.791 0.562 0.5604 0.8018 0.962 0.8919 0.8386 0.9845 0.9976
3732.572 0.9432 0.9965 0.8641 0.7812 0.7645 0.8514 1.051 0.9496 0.6829 0.6427
3751.862 0.8415 0.9623 1.0134 0.7283 0.6461 0.8732 0.9478 0.863 0.7484 0.9376
3771.152 0.9443 0.6134 0.5625 0.7279 0.7151 0.5965 0.5659 0.7921 0.6913 0.5795
3790.441 0.7072 0.6705 0.7588 0.7452 0.5315 0.7676 0.9319 0.6262 0.6785 0.8192
3809.731 0.7632 0.6517 0.7722 1.0548 1.0309 0.9593 0.8263 0.6795 0.6123 0.4934
3829.021 0.6531 0.9141 0.9598 0.8738 0.808 0.8638 0.838 0.7915 0.6972 0.6258
3848.311 0.7323 0.8242 0.7506 0.8453 0.9196 0.7454 0.8653 0.9968 0.938 0.9745
3867.601 0.9831 0.9564 0.8356 0.7173 0.7578 0.9688 1.0066 0.9117 0.9698 0.7111
3886.890 0.6572 0.7469 0.7859 0.7996 0.7956 1.1065 1.0482 0.9198 0.934 0.8525
3906.180 0.9388 0.9928 0.8674 0.5995 0.626 0.7291 0.5868 0.664 0.709 0.5317
3925.470 0.417521 0.5618 0.6481 0.7399 0.8477 0.6464 0.6333 0.7729 0.7367 0.6399
3944.760 0.5637 0.7519 0.813 0.6959 0.7288 0.6574 0.48095 0.5702 0.6584 0.5141
3964.049 0.5159 0.5369 0.5233 0.6289 0.6805 0.6773 0.8434 0.9022 0.5781 0.49629
3983.339 0.6746 0.648 0.6619 0.7416 0.8871 1.0964 1.0002 0.7708 0.837 0.9118
##END=
