##TITLE=.alpha.-Methylbenzyl ether
##JCAMP-DX=4.24
##DATA TYPE=INFRARED SPECTRUM
##ORIGIN=NIST Mass Spectrometry Data Center
##OWNER=NIST Standard Reference Data Program
Collection (C) 2018 copyright by the U.S. Secretary of Commerce
on behalf of the United States of America. All rights reserved.
##CAS REGISTRY NO=93-96-9
##MOLFORM=C 16 H 18 O
##$NIST SOURCE=MSDC-IR
##SPECTROMETER/DATA SYSTEM=HP-GC/MS/IRD
##STATE=gas
##XUNITS=1/CM
##YUNITS=ABSORBANCE
##XFACTOR=1.0
##YFACTOR=0.000002300
##DELTAX=4.0
##FIRSTX=550.0
##LASTX=3846.0
##FIRSTY=0.001711
##MAXX=3846
##MINX=550
##MAXY=0.023
##MINY=0
##NPOINTS=825
##XYDATA=(X++(Y..Y))
550.0 744 794 374 313 206 113 26 43 104 120
590.0 80 43 62 110 142 242 331 375 415 490
630.0 680 769 620 386 249 262 299 335 400 464
670.0 499 531 615 841 1437 2794 4830 6288 5971 4229
710.0 2495 1512 1062 870 767 769 805 825 927 1189
750.0 1797 2745 3537 3498 2587 1524 848 520 353 304
790.0 282 242 235 217 158 129 133 114 103 85
830.0 104 140 139 142 166 210 257 261 232 203
870.0 166 144 123 107 103 122 149 188 274 354
910.0 395 366 302 299 345 434 585 815 1069 1260
950.0 1280 1067 746 483 356 311 321 330 344 387
990.0 436 522 604 652 726 904 1182 1646 2217 2678
1030.0 2745 2380 1850 1402 1237 1261 1427 1802 2369 3141
1070.0 4118 5297 6757 8332 9593 10000 9273 7722 6017 4675
1110.0 3737 3080 2566 2118 1779 1469 1202 1000 811 625
1150.0 517 438 364 356 355 417 512 548 535 523
1190.0 702 1104 1593 1911 1816 1399 988 688 484 352
1230.0 258 220 208 197 210 220 249 325 440 613
1270.0 818 1019 1146 1206 1273 1406 1541 1569 1475 1320
1310.0 1215 1214 1276 1272 1143 979 887 902 1019 1191
1350.0 1349 1434 1392 1374 1592 1946 2096 1859 1377 909
1390.0 586 392 293 251 231 234 238 241 261 277
1430.0 327 433 618 919 1316 1633 1677 1398 988 630
1470.0 427 364 425 597 904 1181 1180 875 510 278
1510.0 177 148 132 117 120 127 134 149 124 86
1550.0 61 44 46 46 56 75 91 111 147 222
1590.0 311 384 443 439 361 234 133 85 68 44
1630.0 31 40 38 42 46 45 62 86 97 118
1670.0 130 116 86 49 25 14 0 11 26 19
1710.0 12 19 13 20 42 46 55 77 100 103
1750.0 93 77 50 34 48 60 59 65 77 107
1790.0 161 223 283 295 264 210 161 129 103 78
1830.0 58 41 32 42 57 72 98 127 169 206
1870.0 233 247 256 270 252 213 166 143 133 116
1910.0 105 95 115 145 170 209 264 331 364 350
1950.0 323 299 276 213 139 95 69 59 56 50
1990.0 45 38 28 27 22 18 27 26 22 22
2030.0 21 19 20 26 18 13 11 13 18 16
2070.0 18 12 21 35 21 21 25 23 25 28
2110.0 34 23 20 19 26 37 33 35 25 25
2150.0 27 21 39 50 42 37 41 38 31 28
2190.0 28 35 48 54 35 26 35 36 34 41
2230.0 30 36 41 35 40 27 27 29 25 24
2270.0 23 26 29 26 29 38 43 43 37 43
2310.0 57 62 67 69 46 27 26 37 47 27
2350.0 12 14 14 17 21 21 11 12 27 42
2390.0 48 48 41 32 46 40 24 29 30 31
2430.0 30 35 38 36 27 31 50 45 31 34
2470.0 31 46 47 43 42 41 48 51 44 41
2510.0 34 37 46 29 17 40 50 46 41 36
2550.0 38 46 60 62 55 48 51 72 85 80
2590.0 72 78 81 78 100 108 101 116 118 95
2630.0 88 93 83 81 87 82 87 94 88 82
2670.0 75 76 82 91 79 74 80 69 61 75
2710.0 89 74 73 101 98 91 89 90 86 72
2750.0 74 85 82 90 95 102 100 82 87 117
2790.0 137 149 170 193 215 238 264 270 261 260
2830.0 278 318 327 347 395 440 506 582 715 903
2870.0 1102 1311 1495 1685 1847 1907 1827 1611 1363 1134
2910.0 947 851 832 911 1145 1522 1877 1981 1756 1342
2950.0 959 756 718 812 1084 1660 2762 4667 6288 6161
2990.0 4386 2441 1414 1054 974 985 1084 1363 1849 2395
3030.0 2779 2838 2564 2184 1898 1732 1737 1981 2465 3074
3070.0 3478 3397 2937 2459 2133 1818 1483 1183 949 794
3110.0 663 533 413 317 254 228 221 166 128 122
3150.0 124 131 133 148 155 148 136 110 107 125
3190.0 112 96 73 72 64 48 80 102 88 76
3230.0 66 36 23 36 61 69 46 41 53 57
3270.0 60 34 30 40 17 37 63 37 17 23
3310.0 25 32 51 55 53 59 53 32 47 39
3350.0 23 59 82 69 62 61 43 28 33 39
3390.0 46 51 61 68 48 48 29 25 38 34
3430.0 36 45 48 38 44 41 36 21 31 57
3470.0 43 34 54 50 37 58 65 48 46 40
3510.0 23 24 55 63 40 32 48 64 66 75
3550.0 91 78 74 72 39 25 37 48 50 53
3590.0 52 83 103 78 73 88 59 39 90 116
3630.0 88 94 92 49 19 39 88 85 68 67
3670.0 61 56 71 90 67 56 81 81 88 81
3710.0 72 85 87 89 81 69 53 34 55 87
3750.0 76 67 70 61 44 51 91 93 80 99
3790.0 100 107 91 84 112 98 71 79 111 121
3830.0 124 109 74 89 81
##END=
