##TITLE=N-Methylmaleimide
##JCAMP-DX=4.24
##DATA TYPE=INFRARED SPECTRUM
##ORIGIN=EPA-IR VAPOR PHASE LIBRARY
##OWNER=SRD/NIST
Collection (C) 2018 copyright by the U.S. Secretary of Commerce
on behalf of the United States of America. All rights reserved.
##CAS REGISTRY NO=930-88-1
##MOLFORM=C 5 H 5 N O 2
##$NIST SOURCE=MSDC-IR
##STATE=gas
##XUNITS=1/CM
##YUNITS=ABSORBANCE
##XFACTOR=1.
##YFACTOR=0.001
##DELTAX=1.92898
##FIRSTX=549.8
##LASTX=4000.7
##FIRSTY=2.901
##MAXX=4000.7
##MINX=549.759
##MAXY=0.051381
##MINY=0
##NPOINTS=1790
##XYDATA=(X++(Y..Y))
549.759 2.901 3.211 3.281 3.331 3.571 4.081 4.651 5.151 6.051 7.411
569.049 8.521 9.951 11.951 13.951 16.061 18.081 19.751 20.761 21.121 20.901
588.339 20.231 19.361 18.351 17.641 17.211 16.771 16.281 15.761 15.121 14.451
607.628 13.821 13.271 12.851 12.221 11.651 11.271 10.731 10.261 9.951 9.571
626.918 9.051 8.491 8.171 7.871 7.421 7.171 6.901 6.441 5.921 5.521
646.208 5.341 5.251 5.001 4.771 4.641 4.461 4.371 4.331 4.261 4.091
665.498 3.861 3.741 3.711 3.771 3.761 3.831 4.071 4.211 4.421 4.811
684.787 5.241 5.701 6.241 6.691 7.221 7.561 7.601 7.531 7.181 6.881
704.077 6.551 6.041 5.601 5.211 5.011 4.851 4.561 4.381 4.361 4.331
723.367 4.191 4.111 4.111 4.041 3.851 3.591 3.611 3.711 3.621 3.531
742.657 3.441 3.431 3.511 3.511 3.501 3.541 3.711 3.931 4.061 4.121
761.947 4.221 4.361 4.241 4.061 3.951 3.731 3.521 3.411 3.281 3.021
781.236 2.901 2.811 2.671 2.601 2.431 2.311 2.281 2.211 2.191 2.141
800.526 2.121 2.231 2.411 2.571 2.511 2.671 2.901 2.851 2.831 2.791
819.816 2.701 2.621 2.531 2.341 2.351 2.371 2.411 2.531 2.491 2.591
839.106 2.621 2.541 2.671 2.681 2.601 2.631 2.691 2.501 2.261 2.251
858.395 2.321 2.291 2.211 2.281 2.271 2.261 2.291 2.161 2.101 2.261
877.685 2.251 2.121 2.021 2.051 2.101 2.111 2.241 2.231 2.221 2.281
896.975 2.251 2.201 2.251 2.261 2.271 2.311 2.231 2.221 2.221 2.291
916.265 2.331 2.241 2.331 2.441 2.431 2.441 2.451 2.461 2.541 2.581
935.555 2.571 2.701 2.861 2.921 2.861 2.881 2.981 2.951 2.911 2.931
954.844 2.911 2.761 2.571 2.491 2.401 2.231 2.151 2.171 2.221 2.191
974.134 2.121 1.981 1.861 1.801 1.761 1.721 1.631 1.561 1.611 1.541
993.424 1.531 1.701 1.721 1.691 1.701 1.611 1.581 1.581 1.561 1.571
1012.714 1.651 1.681 1.641 1.701 1.791 1.761 1.881 1.931 1.801 1.841
1032.003 1.911 1.771 1.591 1.711 1.851 1.941 2.211 2.501 2.651 2.861
1051.293 3.231 3.441 3.651 4.051 4.391 4.711 5.191 5.731 6.251 6.841
1070.583 7.511 8.301 9.241 10.181 11.051 12.001 13.161 14.361 15.411 16.821
1089.873 18.571 20.471 22.671 25.061 27.651 30.581 33.831 37.371 40.561 43.461
1109.163 46.241 47.841 48.351 47.841 46.261 43.601 40.231 37.131 34.091 30.911
1128.452 28.161 26.071 24.301 22.631 21.261 20.091 18.791 17.501 16.431 15.341
1147.742 14.211 13.301 12.561 11.911 11.381 10.871 10.401 9.961 9.621 9.311
1167.032 8.761 8.401 8.251 7.871 7.591 7.351 6.991 6.931 6.951 6.831
1186.322 6.811 7.011 7.161 7.271 7.421 7.741 8.101 8.011 8.231 8.631
1205.611 8.981 9.371 9.541 9.471 9.271 9.321 9.281 9.081 8.821 8.521
1224.901 8.271 8.031 7.651 7.511 7.331 7.021 6.911 6.901 7.141 7.051
1244.191 6.821 6.851 6.861 6.821 6.621 6.571 6.811 6.961 6.911 6.781
1263.481 6.781 6.911 6.941 6.741 6.711 6.611 6.321 5.981 5.791 5.741
1282.771 5.561 5.501 5.551 5.621 5.561 5.491 5.541 5.601 5.611 5.591
1302.060 5.521 5.411 5.301 5.271 5.201 5.121 5.121 5.081 5.091 5.191
1321.350 5.321 5.441 5.561 5.711 5.911 6.111 6.401 6.651 6.921 7.221
1340.640 7.491 7.811 8.191 8.581 8.881 9.141 9.351 9.501 9.551 9.531
1359.930 9.431 9.261 9.011 8.701 8.291 7.891 7.521 7.061 6.611 6.171
1379.219 5.701 5.291 4.901 4.541 4.231 3.951 3.741 3.521 3.341 3.201
1398.509 3.051 2.971 2.931 2.871 2.881 2.901 2.951 3.011 3.051 3.071
1417.799 3.131 3.231 3.321 3.371 3.471 3.591 3.641 3.721 3.791 3.841
1437.089 3.841 3.871 3.911 3.881 3.801 3.711 3.601 3.421 3.261 3.081
1456.378 2.811 2.551 2.341 2.191 2.031 1.871 1.811 1.771 1.741 1.771
1475.668 1.871 2.001 2.171 2.461 2.731 2.961 3.201 3.331 3.371 3.311
1494.958 3.141 2.911 2.621 2.291 2.051 1.861 1.671 1.571 1.521 1.481
1514.248 1.501 1.491 1.471 1.391 1.3046 1.2496 1.1431 1.0639 1.0203 0.9859
1533.538 0.951 0.975 0.981 0.9041 0.9294 0.9645 0.9174 0.8847 0.9115 0.9373
1552.827 0.892 0.8947 0.9228 0.9567 1.0193 1.0466 1.0889 1.2073 1.2873 1.3029
1572.117 1.421 1.571 1.721 1.801 1.891 2.041 2.181 2.321 2.391 2.461
1591.407 2.511 2.521 2.541 2.601 2.771 3.001 3.281 3.621 3.871 3.951
1610.697 3.851 3.591 3.181 2.661 2.091 1.611 1.21 0.9568 0.8367 0.8056
1629.986 0.8516 0.8948 0.8978 0.8833 0.9043 0.9545 0.9823 1.0146 1.0651 1.0848
1649.276 1.1228 1.1634 1.2086 1.2091 1.1702 1.2485 1.361 1.381 1.391 1.431
1668.566 1.481 1.531 1.571 1.611 1.611 1.611 1.631 1.681 1.751 1.871
1687.856 2.021 2.121 2.321 2.591 2.791 3.031 3.261 3.471 3.751 3.971
1707.146 4.231 4.571 4.821 5.081 5.371 5.621 5.961 6.441 6.911 7.401
1726.435 8.001 8.751 9.591 10.481 11.481 12.491 13.451 14.411 15.351 16.341
1745.725 17.431 18.731 20.161 21.691 23.371 25.151 27.021 29.001 31.081 33.291
1765.015 35.681 38.231 40.951 43.631 46.231 48.511 50.231 51.211 51.381 50.791
1784.305 49.411 47.441 45.151 42.661 40.101 37.581 35.031 32.441 29.801 27.091
1803.594 24.461 21.831 19.291 16.941 14.811 12.881 11.201 9.741 8.491 7.431
1822.884 6.521 5.751 5.141 4.581 4.091 3.731 3.421 3.151 2.901 2.671
1842.174 2.491 2.321 2.161 2.031 1.951 1.871 1.811 1.741 1.681 1.621
1861.464 1.591 1.581 1.531 1.471 1.441 1.411 1.391 1.391 1.351 1.3037
1880.754 1.2809 1.232 1.2227 1.2605 1.2691 1.2179 1.1953 1.1793 1.1771 1.2015
1900.043 1.1675 1.0863 1.0353 1.0615 1.0481 1.0147 1.0592 1.0543 1.0135 1.0198
1919.333 0.9798 0.9801 1.0414 1.022 1.0202 1.0412 1.0408 1.0692 1.0593 1.0671
1938.623 1.1075 1.1118 1.0798 1.0463 1.0286 1.0029 0.9685 0.9403 0.9862 0.9828
1957.913 0.9436 0.9241 0.8904 0.8649 0.8695 0.9044 0.9311 0.9365 0.9699 0.9873
1977.202 0.9505 0.9622 0.9396 0.9344 0.9437 0.873 0.862 0.8884 0.8871 0.9025
1996.492 0.939 0.9141 0.9022 0.8992 0.8869 0.8962 0.8827 0.8574 0.8493 0.8592
2015.782 0.8247 0.7952 0.7883 0.811 0.8181 0.7877 0.7668 0.7448 0.7214 0.7314
2035.072 0.747 0.7281 0.7672 0.7803 0.7405 0.7329 0.7223 0.7238 0.7199 0.7215
2054.362 0.7446 0.7283 0.7269 0.7245 0.6854 0.7108 0.7374 0.7067 0.726 0.7258
2073.651 0.6829 0.7097 0.7167 0.6944 0.679 0.6469 0.6991 0.7286 0.7043 0.7183
2092.941 0.7071 0.6986 0.6881 0.6829 0.7067 0.7113 0.7216 0.7054 0.7178 0.8137
2112.231 0.8748 0.8697 0.8477 0.9011 0.9354 0.9561 0.9708 0.9699 1.0056 0.9656
2131.521 0.9104 0.8695 0.7984 0.7706 0.7475 0.7355 0.7516 0.7128 0.713 0.7011
2150.810 0.649 0.6762 0.7282 0.7034 0.6704 0.6967 0.7212 0.7042 0.6795 0.6354
2170.100 0.6607 0.7442 0.7004 0.6556 0.6586 0.6773 0.7331 0.7535 0.7331 0.7219
2189.390 0.7477 0.7585 0.7303 0.7347 0.7631 0.7802 0.758 0.7423 0.7577 0.7705
2208.680 0.7813 0.7944 0.8426 0.8573 0.8505 0.8328 0.7865 0.7865 0.7685 0.7754
2227.970 0.8439 0.8744 0.8261 0.8044 0.7977 0.7605 0.7567 0.723 0.7209 0.7432
2247.259 0.7503 0.7462 0.7437 0.7555 0.75 0.7243 0.6892 0.7426 0.7463 0.6963
2266.549 0.7318 0.7182 0.6595 0.6689 0.6698 0.6794 0.7164 0.716 0.7072 0.7401
2285.839 0.7581 0.7533 0.7603 0.7743 0.7263 0.6356 0.689 0.7141 0.6895 0.668
2305.129 0.6464 0.651 0.6957 0.7551 0.7691 0.7215 0.6216 0.6295 0.6932 0.7237
2324.418 0.7071 0.6362 0.6186 0.6528 0.7088 0.7537 0.7682 0.712 0.6697 0.7011
2343.708 0.7323 0.7663 0.7633 0.7307 0.7359 0.7121 0.727 0.7836 0.7448 0.7417
2362.998 0.7473 0.739 0.7555 0.7411 0.7099 0.7411 0.7378 0.707 0.7608 0.7562
2382.288 0.7296 0.7604 0.7517 0.7409 0.7365 0.6937 0.6425 0.6495 0.7092 0.6998
2401.578 0.6662 0.7143 0.771 0.782 0.7295 0.6927 0.7118 0.6679 0.6092 0.6424
2420.867 0.6735 0.6935 0.7144 0.6693 0.6725 0.6726 0.6299 0.6518 0.6822 0.702
2440.157 0.6729 0.6917 0.7592 0.7484 0.6961 0.6873 0.742 0.7729 0.7467 0.7162
2459.447 0.725 0.7416 0.7629 0.7599 0.758 0.7303 0.6635 0.5833 0.6071 0.6914
2478.737 0.6517 0.6236 0.6865 0.725 0.6789 0.6594 0.6809 0.6639 0.6569 0.6835
2498.026 0.7296 0.7627 0.7163 0.6803 0.6468 0.6131 0.6993 0.7418 0.6956 0.6511
2517.316 0.623 0.6535 0.6443 0.6229 0.6574 0.708 0.7172 0.6601 0.6687 0.6545
2536.606 0.5808 0.6339 0.6684 0.5705 0.5331 0.5768 0.6392 0.6494 0.6734 0.6773
2555.896 0.6845 0.6962 0.6519 0.5892 0.6021 0.7128 0.7434 0.6904 0.6429 0.6397
2575.186 0.6513 0.6593 0.7346 0.7686 0.6783 0.6438 0.6558 0.6196 0.5872 0.5902
2594.475 0.6686 0.6683 0.596 0.6542 0.6436 0.5966 0.6189 0.658 0.6995 0.6932
2613.765 0.6161 0.6003 0.6558 0.5979 0.5484 0.5976 0.6939 0.6914 0.6138 0.6339
2633.055 0.6457 0.6446 0.6393 0.6406 0.6626 0.6954 0.6832 0.679 0.6752 0.5847
2652.345 0.5671 0.5952 0.6186 0.6632 0.6081 0.5576 0.6457 0.6792 0.5946 0.5961
2671.634 0.6332 0.6463 0.6366 0.645 0.6867 0.5789 0.5037 0.5818 0.5791 0.5976
2690.924 0.6414 0.6513 0.6642 0.6558 0.6286 0.6039 0.6189 0.6095 0.6304 0.621
2710.214 0.6387 0.656 0.6273 0.6272 0.6377 0.6021 0.5792 0.5999 0.5687 0.5854
2729.504 0.6234 0.6427 0.6937 0.6915 0.5827 0.5459 0.563 0.5805 0.5825 0.5573
2748.794 0.561 0.5929 0.5978 0.5068 0.5076 0.5584 0.5352 0.5511 0.535 0.5305
2768.083 0.5459 0.5288 0.5621 0.5443 0.4891 0.4952 0.5975 0.6759 0.649 0.6569
2787.373 0.6946 0.6113 0.5543 0.629 0.6638 0.6303 0.6254 0.7166 0.7923 0.7214
2806.663 0.6406 0.5903 0.5917 0.6524 0.7345 0.7734 0.7333 0.7253 0.7319 0.7242
2825.953 0.7466 0.7409 0.6454 0.6226 0.7007 0.7877 0.7768 0.7264 0.7529 0.8004
2845.242 0.8234 0.8319 0.8318 0.8297 0.7817 0.8013 0.8541 0.8913 0.939 0.9089
2864.532 0.8954 0.8791 0.8172 0.824 0.8751 0.8116 0.7747 0.7945 0.8167 0.9169
2883.822 0.9426 0.9072 0.8955 0.9416 1.0345 1.0466 1.0348 1.0683 1.139 1.1581
2903.112 1.1573 1.1488 1.2588 1.3129 1.371 1.481 1.541 1.711 1.841 2.001
2922.401 2.091 2.121 2.251 2.331 2.351 2.451 2.511 2.571 2.621 2.581
2941.691 2.541 2.451 2.481 2.411 2.271 2.401 2.351 2.171 2.131 2.091
2960.981 2.051 2.071 2.031 2.061 2.121 1.991 1.941 1.961 2.011 2.071
2980.271 2.031 1.891 1.791 1.811 1.791 1.791 1.841 1.831 1.751 1.691
2999.561 1.671 1.671 1.581 1.541 1.601 1.651 1.711 1.741 1.751 1.841
3018.850 1.971 2.171 2.291 2.341 2.611 2.861 2.981 3.141 3.301 3.401
3038.140 3.471 3.431 3.301 3.191 3.061 2.911 2.821 2.821 2.901 2.951
3057.430 3.021 3.011 3.131 3.301 3.261 3.221 3.121 3.021 3.041 2.921
3076.720 2.661 2.371 2.101 1.881 1.711 1.581 1.571 1.481 1.2853 1.253
3096.009 1.2428 1.25 1.2576 1.2555 1.3261 1.341 1.1887 1.1361 1.1956 1.1626
3115.299 1.1388 1.0032 0.906 0.819 0.728 0.7853 0.7297 0.6636 0.7229 0.7414
3134.589 0.6769 0.603 0.6068 0.6474 0.6718 0.6662 0.7057 0.7192 0.6692 0.6563
3153.879 0.6455 0.5926 0.5932 0.633 0.5579 0.6163 0.6622 0.6129 0.5723 0.6175
3173.169 0.6566 0.5732 0.6106 0.624 0.5337 0.46 0.4939 0.627 0.6435 0.5137
3192.458 0.555 0.6556 0.5166 0.39276 0.4551 0.5469 0.556 0.4828 0.4829 0.4794
3211.748 0.4447 0.4934 0.5345 0.4857 0.4773 0.5322 0.543 0.5362 0.4782 0.464
3231.038 0.5239 0.5923 0.5371 0.4709 0.42297 0.37569 0.507 0.6102 0.4841 0.39667
3250.328 0.4752 0.4473 0.464 0.4857 0.40194 0.330078 0.39469 0.5117 0.4888 0.4676
3269.617 0.44 0.39893 0.4673 0.4602 0.4383 0.4378 0.41143 0.4783 0.564 0.5174
3288.907 0.42248 0.401 0.35435 0.3065 0.2418 0.36955 0.5306 0.4863 0.37752 0.2604
3308.197 0.38839 0.5004 0.4726 0.5042 0.37556 0.33544 0.42451 0.39015 0.34135 0.282
3327.487 0.333374 0.4986 0.5601 0.4257 0.3631 0.36962 0.242 0.2733 0.39702 0.333111
3346.777 0.211 0.2383 0.3139 0.41269 0.4576 0.331468 0.2971 0.38109 0.330982 0.289
3366.066 0.2767 0.2863 0.37111 0.39144 0.38184 0.39513 0.4701 0.39958 0.2819 0.339987
3385.356 0.336727 0.32527 0.3098 0.183 0.2572 0.40886 0.4379 0.4439 0.4324 0.195
3404.646 0.033 0.191 0.3023 0.3184 0.32359 0.34757 0.468 0.486 0.2335 0.23
3423.936 0.38558 0.3164 0.163 0.2742 0.36159 0.16 0.173 0.2975 0.2867 0.2379
3443.225 0.32197 0.35985 0.2868 0.2832 0.2672 0.3195 0.39362 0.32641 0.2817 0.298
3462.515 0.3164 0.4525 0.4741 0.37873 0.38325 0.37995 0.3179 0.32135 0.41867 0.4754
3481.805 0.5257 0.5742 0.501 0.484 0.5615 0.5019 0.4458 0.41708 0.35665 0.4707
3501.095 0.5806 0.5187 0.5491 0.6148 0.7012 0.7424 0.7067 0.7884 0.875 0.9258
3520.385 0.8564 0.7868 0.9021 1.0383 1.115 1.1223 1.2123 1.3265 1.411 1.491
3539.674 1.661 1.981 2.161 2.341 2.731 3.141 3.501 3.871 4.371 5.171
3558.964 6.101 7.221 9.061 11.601 14.901 18.651 21.781 23.721 24.361 23.921
3578.254 22.441 19.371 15.421 11.961 9.231 7.201 5.751 4.751 4.041 3.351
3597.544 2.781 2.331 1.901 1.711 1.511 1.206 1.0145 0.9956 0.9343 0.8634
3616.833 0.9419 0.795 0.5838 0.6134 0.5751 0.5903 0.5435 0.42091 0.4642 0.37308
3636.123 0.34669 0.32915 0.2648 0.2991 0.2989 0.38614 0.4525 0.39867 0.3113 0.205
3655.413 0.14 0.155 0.227 0.268 0.2961 0.2866 0.22 0.2849 0.2962 0.171
3674.703 0.164 0.152 0.173 0.2425 0.3095 0.34416 0.3166 0.35187 0.3095 0.186
3693.993 0.179 0.2658 0.2756 0.2403 0.2413 0.2476 0.2911 0.2821 0.2331 0.245
3713.282 0.2981 0.35688 0.3137 0.2901 0.3009 0.202 0.219 0.2671 0.35506 0.37733
3732.572 0.2462 0.2595 0.256 0.3067 0.3078 0.183 0.2474 0.207 0.099 0.179
3751.862 0.212 0.172 0.2527 0.3124 0.08 0.085 0.2562 0.2508 0.23 0.187
3771.152 0.17 0.164 0.019 0 0.093 0.065 0.17 0.228 0.2578 0.221
3790.441 0.162 0.2406 0.224 0.2789 0.39244 0.3049 0.2547 0.301 0.38441 0.4692
3809.731 0.38359 0.2712 0.2932 0.305 0.217 0.2386 0.333037 0.339747 0.2463 0.2415
3829.021 0.2847 0.2 0.2344 0.194 0.094 0.078 0.045 0.2856 0.39165 0.214
3848.311 0.173 0.155 0.228 0.2576 0.178 0.193 0.224 0.2735 0.2919 0.337149
3867.601 0.307 0.285 0.2916 0.219 0.217 0.218 0.2796 0.330071 0.2714 0.172
3886.890 0.062 0.165 0.39384 0.32709 0.32144 0.2699 0.16 0.39659 0.42095 0.187
3906.180 0.176 0.193 0.185 0.3124 0.37257 0.32671 0.3001 0.31 0.36106 0.39215
3925.470 0.3006 0.3193 0.2485 0.2344 0.277 0.2353 0.2479 0.214 0.182 0.186
3944.760 0.2373 0.2775 0.194 0.203 0.3048 0.2337 0.221 0.2723 0.2699 0.2993
3964.049 0.3638 0.2741 0.204 0.2389 0.2319 0.32145 0.2449 0.2669 0.2819 0.221
3983.339 0.40398 0.41444 0.35506 0.4654 0.4668 0.41752 0.4516 0.4316 0.5604 0.4934
##END=
