##TITLE=1-Methoxycyclohexene
##JCAMP-DX=4.24
##DATA TYPE=INFRARED SPECTRUM
##ORIGIN=NIST Mass Spectrometry Data Center
##OWNER=NIST Standard Reference Data Program
Collection (C) 2018 copyright by the U.S. Secretary of Commerce
on behalf of the United States of America. All rights reserved.
##CAS REGISTRY NO=931-57-7
##MOLFORM=C 7 H 12 O
##$NIST SOURCE=MSDC-IR
##SPECTROMETER/DATA SYSTEM=HP-GC/MS/IRD
##STATE=gas
##XUNITS=1/CM
##YUNITS=ABSORBANCE
##XFACTOR=1.0
##YFACTOR=0.000002000
##DELTAX=4.0
##FIRSTX=550.0
##LASTX=3846.0
##FIRSTY=0.000096
##MAXX=3846
##MINX=550
##MAXY=0.02
##MINY=0
##NPOINTS=825
##XYDATA=(X++(Y..Y))
550.0 48 50 67 56 51 41 29 32 44 72
590.0 99 100 79 73 81 91 133 160 220 302
630.0 334 323 333 332 284 203 122 100 100 86
670.0 82 59 19 31 30 1 17 29 40 74
710.0 80 68 71 69 68 89 99 92 92 136
750.0 200 286 416 557 686 824 932 1009 1042 939
790.0 772 663 579 485 407 390 382 351 335 366
830.0 384 351 343 356 354 355 346 323 307 267
870.0 213 171 141 122 110 113 126 146 175 210
910.0 242 262 280 293 303 329 381 446 507 569
950.0 596 571 569 562 499 417 349 299 268 240
990.0 213 224 261 304 373 477 620 790 944 1049
1030.0 1096 1096 1061 983 875 757 677 620 568 531
1070.0 499 475 463 435 401 399 398 369 343 337
1110.0 334 375 445 557 742 968 1232 1607 2056 2614
1150.0 3263 3684 3862 4002 4082 3931 3544 3131 2931 2957
1190.0 3126 3450 4073 4953 5716 6084 6052 5630 4791 3564
1230.0 2361 1589 1172 966 877 851 882 951 987 983
1270.0 953 892 778 622 495 434 397 364 352 349
1310.0 359 383 423 508 635 774 884 952 973 980
1350.0 953 934 1012 1188 1428 1630 1709 1671 1513 1259
1390.0 911 589 417 355 340 346 350 363 406 473
1430.0 558 668 812 959 1106 1219 1224 1210 1155 1051
1470.0 945 820 706 578 448 341 256 193 154 131
1510.0 115 102 96 99 100 104 104 109 123 132
1550.0 133 138 148 152 154 146 134 129 124 122
1590.0 136 149 154 151 150 159 169 184 205 239
1630.0 296 381 519 730 1042 1490 2058 2606 2987 3120
1670.0 3063 2848 2359 1674 1049 670 451 315 244 192
1710.0 147 118 103 96 86 82 82 76 76 64
1750.0 48 50 58 55 49 55 55 53 56 58
1790.0 55 57 66 70 71 52 42 51 53 60
1830.0 67 67 70 75 79 76 72 69 59 44
1870.0 37 39 35 33 33 32 31 38 37 32
1910.0 35 41 52 49 40 56 62 54 48 45
1950.0 46 42 44 46 48 56 61 63 60 68
1990.0 71 64 55 54 57 45 40 49 50 46
2030.0 51 58 61 62 67 75 74 69 71 74
2070.0 66 58 57 57 57 56 40 36 45 37
2110.0 40 48 42 35 43 32 30 38 34 41
2150.0 48 51 52 49 60 66 59 57 52 50
2190.0 52 50 46 42 44 43 41 38 38 47
2230.0 54 54 48 41 35 34 32 31 24 17
2270.0 14 12 17 28 33 29 30 34 28 27
2310.0 20 12 10 1 0 2 10 5 2 10
2350.0 19 13 6 6 12 29 33 30 23 13
2390.0 21 32 35 35 36 40 40 41 44 42
2430.0 29 17 27 30 15 12 10 8 16 14
2470.0 11 26 27 13 10 14 5 4 16 12
2510.0 5 5 0 6 12 3 6 24 21 6
2550.0 7 8 11 21 22 18 22 23 18 20
2590.0 26 29 33 33 34 43 41 31 30 51
2630.0 61 62 73 73 77 98 103 105 114 115
2670.0 116 117 104 82 75 71 60 52 50 45
2710.0 44 53 72 71 46 48 69 79 80 74
2750.0 74 86 95 95 109 127 144 162 194 212
2790.0 229 255 288 328 375 432 495 595 771 1023
2830.0 1360 1754 2172 2673 3123 3338 3397 3462 3457 3253
2870.0 2960 2696 2488 2343 2298 2408 2604 2789 3056 3473
2910.0 3930 4422 5018 5757 6651 7713 8812 9821 10000 9138
2950.0 8163 7025 5458 3780 2521 1759 1316 1086 1024 1084
2990.0 1249 1432 1511 1500 1436 1300 1100 861 679 579
3030.0 522 485 469 469 453 457 504 546 560 579
3070.0 577 529 466 383 291 230 187 152 144 135
3110.0 131 135 117 96 91 80 96 102 86 87
3150.0 70 50 49 54 77 77 69 60 55 54
3190.0 59 50 42 58 79 67 43 42 33 40
3230.0 42 39 45 47 47 43 41 50 56 51
3270.0 30 16 23 22 13 15 19 33 33 16
3310.0 22 31 28 17 19 28 43 47 37 28
3350.0 25 31 31 23 14 7 10 12 4 12
3390.0 37 39 45 48 45 55 62 45 21 22
3430.0 23 7 12 22 9 21 33 26 32 43
3470.0 36 29 43 52 50 28 11 30 54 50
3510.0 30 25 33 32 27 25 5 0 4 26
3550.0 25 9 34 46 43 40 21 21 47 57
3590.0 63 64 51 40 30 30 33 45 45 25
3630.0 32 46 58 59 39 52 62 54 49 42
3670.0 42 45 57 61 44 26 32 48 49 47
3710.0 64 60 40 38 29 14 37 61 39 28
3750.0 32 29 26 27 36 41 40 43 35 31
3790.0 48 44 20 9 34 47 26 19 35 33
3830.0 34 33 31 45 58
##END=
