##TITLE=cis-Cyclooctene
##JCAMP-DX=4.24
##DATA TYPE=INFRARED SPECTRUM
##ORIGIN=NIST Mass Spectrometry Data Center
##OWNER=NIST Standard Reference Data Program
Collection (C) 2018 copyright by the U.S. Secretary of Commerce
on behalf of the United States of America. All rights reserved.
##CAS REGISTRY NO=931-87-3
##MOLFORM=C 8 H 14
##$NIST SOURCE=MSDC-IR
##SPECTROMETER/DATA SYSTEM=HP-GC/MS/IRD
##STATE=gas
##XUNITS=1/CM
##YUNITS=ABSORBANCE
##XFACTOR=1.0
##YFACTOR=0.000004500
##DELTAX=4.0
##FIRSTX=550.0
##LASTX=3846.0
##FIRSTY=0.000216
##MAXX=3846
##MINX=550
##MAXY=0.045
##MINY=0
##NPOINTS=825
##XYDATA=(X++(Y..Y))
550.0 48 40 28 57 69 67 90 75 58 60
590.0 55 40 26 28 19 13 21 8 4 16
630.0 18 20 20 24 38 63 73 76 93 109
670.0 135 172 203 237 314 383 424 466 460 416
710.0 370 306 248 214 223 293 433 616 770 903
750.0 1023 1016 933 814 609 397 250 162 109 88
790.0 90 80 72 79 87 86 88 86 77 69
830.0 50 35 29 27 27 24 24 41 59 68
870.0 91 117 142 157 169 196 175 116 85 71
910.0 49 30 14 8 3 4 16 14 13 17
950.0 22 44 60 75 92 105 111 121 124 103
990.0 86 72 51 33 27 34 42 40 40 41
1030.0 39 38 30 30 28 29 32 36 43 50
1070.0 54 52 47 42 37 35 35 38 41 46
1110.0 47 45 48 52 52 47 37 32 31 30
1150.0 26 17 25 28 25 29 44 56 43 29
1190.0 20 20 21 18 25 25 23 31 40 44
1230.0 56 73 86 103 114 116 119 126 129 124
1270.0 117 116 108 96 75 56 44 33 23 21
1310.0 28 33 34 36 43 51 63 83 106 127
1350.0 146 157 151 136 123 101 78 58 41 31
1390.0 29 34 38 49 66 77 95 125 167 230
1430.0 317 436 568 701 805 903 987 997 939 927
1470.0 906 747 571 476 402 305 210 150 112 80
1510.0 63 54 41 33 28 33 31 18 15 18
1550.0 19 15 3 9 14 15 18 19 21 24
1590.0 27 25 22 24 27 27 28 33 38 45
1630.0 59 71 91 113 128 136 138 139 128 110
1670.0 89 66 45 34 32 37 39 41 49 56
1710.0 65 62 54 53 46 33 20 13 14 13
1750.0 10 9 10 10 10 7 5 10 11 10
1790.0 11 8 8 6 8 10 13 11 6 5
1830.0 8 11 10 9 10 8 7 9 12 12
1870.0 9 7 5 8 8 7 10 7 5 9
1910.0 11 15 16 15 14 14 15 16 15 12
1950.0 12 13 10 10 8 6 5 3 5 3
1990.0 1 0 1 2 2 1 0 2 0 2
2030.0 3 3 2 2 5 5 4 2 2 4
2070.0 4 5 7 9 10 9 8 8 9 7
2110.0 4 7 9 8 5 5 6 9 13 9
2150.0 5 9 12 10 8 8 5 5 8 8
2190.0 5 1 1 6 6 10 11 10 10 11
2230.0 10 9 13 16 14 11 8 8 10 11
2270.0 10 11 14 17 15 12 13 14 14 17
2310.0 16 15 18 16 13 11 13 12 8 10
2350.0 11 12 11 6 8 12 13 12 12 14
2390.0 17 18 16 15 17 20 16 17 19 18
2430.0 22 22 18 18 21 22 20 17 19 18
2470.0 19 23 20 17 15 15 16 18 18 18
2510.0 20 22 20 21 23 25 26 26 23 24
2550.0 26 30 36 35 35 39 38 33 35 35
2590.0 34 39 44 46 47 51 57 61 62 62
2630.0 66 71 75 79 85 90 98 113 123 135
2670.0 150 166 184 195 200 195 185 168 146 130
2710.0 117 108 99 89 86 94 99 96 98 104
2750.0 107 109 114 124 130 134 143 153 162 166
2790.0 180 191 199 207 219 233 253 283 321 384
2830.0 473 597 798 1106 1512 1940 2351 2712 2847 2864
2870.0 2843 2639 2390 2220 2161 2245 2471 2841 3379 4085
2910.0 5044 6244 7562 8815 9625 9979 10000 9617 8583 7087
2950.0 5586 4195 2997 2187 1706 1389 1154 978 858 772
2990.0 710 707 786 962 1208 1446 1608 1779 1927 1664
3030.0 1294 1069 781 511 341 255 219 203 193 187
3070.0 180 162 138 120 107 100 93 90 87 82
3110.0 74 66 65 60 52 49 42 36 42 43
3150.0 43 50 49 46 49 46 41 49 49 47
3190.0 49 47 49 51 48 50 49 45 42 43
3230.0 42 38 35 34 34 34 34 33 36 35
3270.0 31 38 40 35 33 36 34 27 27 25
3310.0 25 23 22 26 29 22 22 28 28 32
3350.0 32 31 36 36 31 25 27 33 31 22
3390.0 20 21 23 28 32 29 27 26 22 19
3430.0 15 17 20 19 19 16 15 18 18 19
3470.0 15 17 22 19 22 21 23 27 19 18
3510.0 25 21 11 15 19 16 25 19 14 7
3550.0 3 12 14 16 18 13 13 19 18 15
3590.0 18 22 23 22 23 28 26 20 26 25
3630.0 14 12 18 22 15 12 16 24 23 22
3670.0 28 21 21 23 18 18 27 29 20 18
3710.0 23 29 33 29 31 33 31 26 28 31
3750.0 26 24 29 35 32 34 40 36 33 34
3790.0 32 26 24 27 31 36 36 31 32 33
3830.0 30 27 30 31 30
##END=
