##TITLE=1-Cyclohexenyl ethanone
##JCAMP-DX=4.24
##DATA TYPE=INFRARED SPECTRUM
##ORIGIN=NIST Mass Spectrometry Data Center
##OWNER=NIST Standard Reference Data Program
Collection (C) 2018 copyright by the U.S. Secretary of Commerce
on behalf of the United States of America. All rights reserved.
##CAS REGISTRY NO=932-66-1
##MOLFORM=C 8 H 12 O
##$NIST SOURCE=MSDC-IR
##SPECTROMETER/DATA SYSTEM=HP-GC/MS/IRD
##STATE=gas
##XUNITS=1/CM
##YUNITS=ABSORBANCE
##XFACTOR=1.0
##YFACTOR=0.000002100
##DELTAX=4.0
##FIRSTX=550.0
##LASTX=3846.0
##FIRSTY=0.000305
##MAXX=3846
##MINX=550
##MAXY=0.021
##MINY=0
##NPOINTS=825
##XYDATA=(X++(Y..Y))
550.0 145 108 90 77 91 135 225 291 388 529
590.0 610 716 798 937 1166 1350 1437 1404 1260 995
630.0 661 372 218 147 92 83 81 59 48 59
670.0 48 21 11 7 32 44 24 24 34 37
710.0 15 10 37 60 57 50 64 75 86 105
750.0 106 73 69 83 84 100 121 156 200 258
790.0 334 372 355 303 269 245 224 208 244 302
830.0 366 451 492 502 488 438 377 288 220 189
870.0 187 225 283 359 479 604 695 764 799 767
910.0 694 634 596 556 513 492 464 412 374 380
950.0 409 470 574 691 770 793 755 657 540 441
990.0 367 322 303 291 293 311 330 362 401 411
1030.0 389 370 339 309 300 314 354 437 514 551
1070.0 597 638 637 582 497 441 377 301 243 197
1110.0 175 197 228 259 290 333 399 442 450 427
1150.0 389 381 375 368 385 409 437 481 488 512
1190.0 577 639 764 973 1343 1967 2905 4156 5532 6733
1230.0 7462 7554 6908 5601 4025 2711 1937 1631 1692 1857
1270.0 1942 1920 1777 1481 1096 795 624 540 497 468
1310.0 455 436 411 437 518 647 845 1088 1362 1633
1350.0 1850 1977 2046 2088 2124 2189 2260 2295 2234 2045
1390.0 1719 1338 997 792 718 705 748 841 985 1184
1430.0 1392 1557 1629 1621 1571 1480 1349 1138 948 810
1470.0 688 552 443 383 342 302 277 257 248 250
1510.0 244 237 228 217 208 210 222 231 226 224
1550.0 227 240 249 231 222 222 227 228 235 256
1590.0 276 319 351 394 475 604 829 1122 1449 1811
1630.0 2166 2445 2517 2380 2157 1910 1683 1627 1913 2573
1670.0 3686 5318 7245 8770 9526 9883 9737 8468 6467 4681
1710.0 3421 2516 1778 1242 948 787 705 661 623 548
1750.0 457 379 311 249 197 168 153 140 125 118
1790.0 108 98 99 99 94 89 85 77 79 86
1830.0 88 89 99 114 119 116 113 108 93 76
1870.0 70 67 59 51 52 49 51 60 59 55
1910.0 60 56 53 53 47 43 42 38 33 35
1950.0 32 32 40 43 41 42 45 43 34 27
1990.0 25 23 15 14 27 22 12 24 25 24
2030.0 19 15 13 9 13 12 7 3 10 15
2070.0 18 16 6 4 1 7 18 20 15 8
2110.0 9 11 5 9 18 27 24 15 14 7
2150.0 0 1 4 5 10 19 20 23 29 32
2190.0 32 28 21 26 30 27 26 26 24 20
2230.0 29 40 36 28 24 25 26 30 35 39
2270.0 41 35 27 25 15 9 12 19 23 23
2310.0 34 32 22 35 39 36 41 40 25 17
2350.0 22 31 40 42 39 33 28 32 26 17
2390.0 22 18 17 29 34 32 28 25 25 21
2430.0 29 34 21 24 27 18 21 20 23 30
2470.0 25 24 21 26 30 30 25 20 23 26
2510.0 28 27 26 24 25 29 24 22 23 22
2550.0 17 19 21 23 36 43 47 46 51 49
2590.0 49 51 48 44 38 42 49 55 55 52
2630.0 61 75 86 93 94 111 128 144 153 156
2670.0 157 152 156 148 133 123 116 112 102 85
2710.0 77 76 67 71 82 87 85 81 81 87
2750.0 91 96 111 126 134 132 140 161 177 190
2790.0 212 231 239 252 284 318 357 429 525 665
2830.0 863 1100 1335 1524 1689 1842 2001 2229 2527 2800
2870.0 2984 3010 2921 2794 2659 2550 2482 2484 2587 2831
2910.0 3259 3792 4332 4995 5840 6811 7971 9137 9933 10000
2950.0 9329 8122 6412 4348 2673 1741 1290 1070 930 858
2990.0 809 791 823 862 887 885 878 860 818 767
3030.0 756 801 865 919 941 911 852 750 630 511
3070.0 408 336 290 277 262 245 242 230 222 204
3110.0 189 191 184 163 146 131 120 119 109 109
3150.0 100 83 72 72 76 75 74 58 67 84
3190.0 73 72 77 76 80 87 75 68 68 66
3230.0 68 72 68 69 69 65 63 49 49 66
3270.0 86 93 75 68 73 67 77 99 91 75
3310.0 67 65 81 89 95 102 118 153 187 203
3350.0 221 242 231 212 198 182 166 148 137 131
3390.0 129 123 119 119 94 85 99 65 41 47
3430.0 55 59 59 34 13 41 60 53 41 55
3470.0 60 45 39 39 53 58 50 53 48 37
3510.0 38 40 46 48 51 56 56 49 38 37
3550.0 36 35 38 42 37 20 30 42 34 17
3590.0 10 16 25 42 43 37 48 40 28 42
3630.0 47 45 38 35 44 52 48 52 50 43
3670.0 69 93 80 56 63 76 65 59 60 61
3710.0 65 61 63 58 46 51 46 41 59 73
3750.0 61 46 59 71 66 65 70 73 77 74
3790.0 79 82 87 91 80 72 71 68 58 72
3830.0 90 70 69 77 72
##END=
