##TITLE=6-Azathymine
##JCAMP-DX=4.24
##DATA TYPE=INFRARED SPECTRUM
##ORIGIN=NIST Mass Spectrometry Data Center
##OWNER=NIST Standard Reference Data Program
Collection (C) 2018 copyright by the U.S. Secretary of Commerce
on behalf of the United States of America. All rights reserved.
##CAS REGISTRY NO=932-53-6
##MOLFORM=C 4 H 5 N 3 O 2
##$NIST SOURCE=MSDC-IR
##SPECTROMETER/DATA SYSTEM=HP-GC/MS/IRD
##STATE=gas
##XUNITS=1/CM
##YUNITS=ABSORBANCE
##XFACTOR=1.0
##YFACTOR=0.000006200
##DELTAX=4.0
##FIRSTX=550.0
##LASTX=3846.0
##FIRSTY=0.002350
##MAXX=3846
##MINX=550
##MAXY=0.062
##MINY=0
##NPOINTS=825
##XYDATA=(X++(Y..Y))
550.0 379 728 699 760 787 807 750 664 582 495
590.0 415 337 278 213 165 152 157 174 193 229
630.0 311 424 563 736 916 1088 1265 1441 1479 1298
670.0 1110 1038 975 883 797 700 596 499 409 323
710.0 245 183 157 172 213 270 328 423 635 689
750.0 573 552 555 609 652 541 433 397 355 296
790.0 235 194 164 127 97 78 62 44 32 28
830.0 22 15 14 10 5 5 4 5 5 1
870.0 1 13 22 22 24 21 19 21 23 20
910.0 19 25 33 51 76 113 156 190 217 235
950.0 239 235 226 217 210 211 216 226 242 264
990.0 297 346 397 421 414 382 333 248 153 96
1030.0 65 47 33 23 27 29 31 34 35 44
1070.0 51 57 82 116 143 177 218 263 315 364
1110.0 402 438 466 474 475 482 478 475 475 468
1150.0 446 415 388 366 359 377 421 510 681 945
1190.0 1271 1572 1743 1785 1699 1455 1036 576 320 234
1230.0 206 206 230 273 341 432 563 714 844 915
1270.0 926 933 910 799 636 504 422 352 283 229
1310.0 194 173 161 155 152 156 163 175 198 233
1350.0 275 312 347 406 503 640 788 868 916 961
1390.0 978 922 828 792 779 769 777 774 750 746
1430.0 789 856 904 901 855 771 639 478 340 244
1470.0 188 160 158 160 157 150 141 126 105 87
1510.0 80 84 90 96 101 104 105 101 96 92
1550.0 88 82 78 79 83 84 87 96 105 120
1590.0 138 161 195 233 262 272 273 271 262 232
1630.0 202 189 190 201 219 238 265 298 331 369
1670.0 408 450 507 580 674 781 913 1081 1315 1654
1710.0 2181 2981 4129 5540 7018 8293 9100 9388 9272 8982
1750.0 8720 8793 9302 9837 10000 9679 8760 7231 5261 3563
1790.0 2652 2307 2198 2130 2033 1889 1692 1442 1167 914
1830.0 704 537 412 324 267 234 212 198 190 186
1870.0 184 180 180 176 172 165 157 144 132 121
1910.0 110 100 90 81 77 75 75 73 73 73
1950.0 68 60 52 45 40 35 30 26 23 21
1990.0 19 20 19 17 17 17 18 19 18 16
2030.0 13 15 14 15 16 19 21 23 24 25
2070.0 25 23 21 15 12 10 5 5 5 5
2110.0 6 6 5 7 6 5 3 5 5 2
2150.0 2 3 3 3 1 1 3 2 0 0
2190.0 1 2 3 6 6 5 5 6 8 9
2230.0 6 7 6 5 6 7 6 4 4 5
2270.0 0 0 4 5 6 5 1 1 2 3
2310.0 3 2 0 0 0 0 0 1 4 3
2350.0 2 4 8 5 5 7 8 7 6 6
2390.0 7 7 9 10 11 11 12 13 13 12
2430.0 12 13 12 12 13 9 9 9 7 7
2470.0 9 7 7 6 6 9 8 10 13 14
2510.0 11 13 17 21 26 28 27 26 27 28
2550.0 25 23 20 15 17 14 11 10 8 5
2590.0 3 0 2 1 0 1 2 2 0 1
2630.0 6 7 10 15 14 14 17 17 17 12
2670.0 14 19 17 15 16 15 16 18 19 21
2710.0 27 26 23 25 25 26 25 25 25 21
2750.0 18 20 17 15 16 17 17 16 14 13
2790.0 16 19 21 21 22 20 25 33 33 31
2830.0 33 36 36 36 39 41 43 43 46 53
2870.0 54 51 57 60 52 50 49 44 43 43
2910.0 40 41 44 51 65 89 115 130 132 128
2950.0 124 106 81 72 70 77 92 92 78 68
2990.0 60 59 58 52 56 59 58 53 53 53
3030.0 40 29 24 23 24 26 23 24 28 29
3070.0 34 40 44 47 42 39 39 40 41 43
3110.0 39 36 38 37 37 38 37 35 30 28
3150.0 28 29 33 36 36 34 33 33 36 34
3190.0 36 42 44 40 34 35 36 36 35 28
3230.0 23 26 25 23 23 25 24 22 19 17
3270.0 18 18 21 23 19 20 21 25 30 26
3310.0 17 17 25 22 24 27 29 33 30 32
3350.0 32 35 36 34 38 43 43 44 52 65
3390.0 83 109 154 222 324 470 664 884 1078 1182
3430.0 1174 1118 1046 890 686 560 561 662 841 1091
3470.0 1359 1573 1664 1610 1484 1307 1011 677 431 283
3510.0 201 162 145 129 120 115 106 90 74 65
3550.0 59 51 48 45 38 28 24 23 18 16
3590.0 19 21 22 21 18 18 19 18 14 9
3630.0 18 20 13 8 11 14 11 7 7 11
3670.0 8 2 4 4 4 0 2 8 11 12
3710.0 11 3 0 2 6 2 0 0 4 7
3750.0 6 2 5 9 11 8 8 11 12 12
3790.0 7 2 1 6 10 4 4 4 1 3
3830.0 0 2 8 10 9
##END=
