##TITLE=2,2,4,4-Tetramethyl-1,3-cyclobutanedione
##JCAMP-DX=4.24
##DATA TYPE=INFRARED SPECTRUM
##ORIGIN=NIST Mass Spectrometry Data Center
##OWNER=NIST Standard Reference Data Program
Collection (C) 2018 copyright by the U.S. Secretary of Commerce
on behalf of the United States of America. All rights reserved.
##CAS REGISTRY NO=933-52-8
##MOLFORM=C 8 H 12 O 2
##$NIST SOURCE=MSDC-IR
##SPECTROMETER/DATA SYSTEM=HP-GC/MS/IRD
##STATE=gas
##XUNITS=1/CM
##YUNITS=ABSORBANCE
##XFACTOR=1.0
##YFACTOR=0.000003100
##DELTAX=4.0
##FIRSTX=550.0
##LASTX=3846.0
##FIRSTY=0.000087
##MAXX=3846
##MINX=550
##MAXY=0.031
##MINY=0
##NPOINTS=825
##XYDATA=(X++(Y..Y))
550.0 28 29 7 14 51 62 45 8 1 22
590.0 54 69 64 45 49 55 38 45 51 41
630.0 74 93 66 46 43 56 64 55 61 82
670.0 77 54 35 46 62 53 48 63 71 65
710.0 57 47 36 38 55 60 69 103 111 129
750.0 167 199 221 222 201 172 152 123 100 92
790.0 81 66 70 95 127 151 176 173 149 143
830.0 135 119 96 79 83 83 74 84 88 91
870.0 94 88 93 100 97 92 92 95 115 123
910.0 113 108 110 108 110 103 99 108 120 131
950.0 140 161 198 234 266 299 334 379 424 467
990.0 513 559 605 649 690 730 800 914 1083 1307
1030.0 1575 1861 2080 2187 2131 1894 1568 1190 839 594
1070.0 444 341 270 222 192 181 168 155 149 142
1110.0 139 130 111 100 103 106 107 112 123 136
1150.0 139 143 161 185 206 225 245 258 251 232
1190.0 212 184 148 127 141 154 152 165 191 218
1230.0 265 330 423 584 837 1174 1540 1860 2046 2021
1270.0 1796 1451 1045 695 476 344 274 231 200 174
1310.0 148 131 126 119 109 106 112 112 117 136
1350.0 172 227 281 341 452 497 499 530 535 502
1390.0 438 373 296 233 215 210 208 213 221 236
1430.0 270 329 418 538 692 876 989 1026 1063 979
1470.0 804 658 496 342 241 174 137 121 109 102
1510.0 100 94 86 82 76 71 67 68 72 68
1550.0 64 67 69 67 70 72 77 83 83 85
1590.0 85 96 110 116 115 114 117 118 119 124
1630.0 124 120 121 125 133 140 143 149 162 179
1670.0 205 239 270 313 370 440 533 638 754 878
1710.0 1005 1140 1272 1418 1627 1977 2583 3551 4915 6545
1750.0 8150 9418 10000 9581 8255 6411 4445 2795 1693 1090
1790.0 761 564 442 354 287 236 201 178 162 153
1830.0 144 138 132 126 127 119 111 119 119 119
1870.0 125 131 135 137 144 152 158 171 181 186
1910.0 193 190 175 164 150 136 128 116 108 101
1950.0 91 85 76 67 61 58 53 44 39 41
1990.0 38 33 35 34 32 31 33 34 33 32
2030.0 28 30 28 25 22 19 18 22 21 18
2070.0 16 14 17 19 17 15 12 16 18 21
2110.0 24 22 20 26 29 28 29 32 29 29
2150.0 31 33 34 35 34 26 26 29 22 19
2190.0 17 13 17 20 15 12 11 9 11 14
2230.0 9 9 14 13 5 1 2 4 7 11
2270.0 10 8 8 10 10 12 14 14 15 10
2310.0 14 20 23 25 21 22 24 24 26 27
2350.0 25 18 20 25 25 26 31 33 36 38
2390.0 35 35 30 29 26 18 15 18 20 21
2430.0 17 14 13 15 11 8 6 4 4 7
2470.0 7 4 5 6 3 3 1 2 6 12
2510.0 11 9 13 8 3 5 2 2 7 8
2550.0 5 6 6 8 13 16 14 6 3 8
2590.0 12 10 10 17 17 13 19 23 22 22
2630.0 17 18 19 12 8 13 16 13 9 5
2670.0 6 12 11 6 3 3 6 6 5 4
2710.0 7 11 17 26 26 22 27 31 22 17
2750.0 25 30 26 25 28 24 27 32 31 32
2790.0 42 55 60 65 72 79 85 87 96 103
2830.0 104 108 115 125 143 177 230 319 462 624
2870.0 771 904 966 916 826 725 630 567 531 537
2910.0 578 643 764 945 1153 1334 1517 1573 1396 1212
2950.0 1097 1055 1257 1721 2293 2878 3201 3133 2728 2069
2990.0 1407 884 541 343 238 184 160 139 112 92
3030.0 90 98 90 82 79 78 77 75 76 76
3070.0 69 69 78 81 72 70 74 86 87 82
3110.0 87 82 80 88 86 82 87 94 93 89
3150.0 82 81 82 76 70 67 60 41 29 21
3190.0 22 19 5 14 25 26 24 23 21 18
3230.0 28 33 26 19 31 31 16 17 20 21
3270.0 23 16 6 12 24 31 17 1 10 15
3310.0 18 17 13 19 23 22 12 7 7 4
3350.0 12 11 6 10 19 28 26 16 12 19
3390.0 14 10 8 5 9 16 20 15 9 5
3430.0 13 25 15 7 11 18 17 12 14 23
3470.0 29 22 17 28 33 34 35 43 48 55
3510.0 64 53 47 52 55 52 54 65 70 66
3550.0 67 80 89 88 93 100 97 96 109 120
3590.0 117 115 119 109 94 84 63 49 55 55
3630.0 55 47 28 18 19 22 28 29 15 6
3670.0 11 11 7 13 19 15 10 3 8 16
3710.0 17 10 2 0 13 25 27 23 19 32
3750.0 27 17 17 17 13 11 17 15 16 24
3790.0 25 21 18 22 18 11 21 24 25 29
3830.0 27 31 27 28 31
##END=
