##TITLE=4,5-Dichloro-2-methylpyridazin-3-one
##JCAMP-DX=4.24
##DATA TYPE=INFRARED SPECTRUM
##ORIGIN=EPA-IR VAPOR PHASE LIBRARY
##OWNER=SRD/NIST
Collection (C) 2018 copyright by the U.S. Secretary of Commerce
on behalf of the United States of America. All rights reserved.
##CAS REGISTRY NO=933-76-6
##MOLFORM=C 5 H 4 Cl 2 N 2 O
##$NIST SOURCE=MSDC-IR
##STATE=gas
##XUNITS=1/CM
##YUNITS=ABSORBANCE
##XFACTOR=1.
##YFACTOR=0.001
##DELTAX=1.92898
##FIRSTX=549.8
##LASTX=4000.7
##FIRSTY=19.269
##MAXX=4000.7
##MINX=549.759
##MAXY=1.09569
##MINY=0
##NPOINTS=1790
##XYDATA=(X++(Y..Y))
549.759 19.269 17.279 13.499 9.249 6.219 4.149 3.169 2.229 1.919 1.579
569.049 1.489 1.2964 1.0565 1.3033 1.509 1.419 1.429 2.099 2.319 2.309
588.339 2.619 2.669 2.709 3.049 3.419 4.039 5.249 6.189 7.179 8.469
607.628 9.919 11.699 13.699 16.009 18.769 22.489 26.899 32.489 39.269 46.119
626.918 48.119 44.029 38.969 36.049 34.929 31.679 25.589 19.179 14.199 10.989
646.208 9.379 8.069 6.669 5.499 4.619 4.029 3.499 3.239 3.139 2.849
665.498 2.579 2.389 2.149 2.159 2.619 2.989 3.099 3.239 3.619 4.309
684.787 4.729 5.449 6.909 8.869 11.749 15.429 20.229 27.069 35.589 45.279
704.077 54.559 61.539 65.339 65.699 64.689 64.409 63.429 59.209 51.809 43.199
723.367 35.419 29.509 25.579 23.249 22.019 21.819 21.729 21.549 21.219 20.779
742.657 21.289 24.179 30.799 33.309 26.029 19.669 18.229 17.289 15.819 13.769
761.947 11.379 8.799 6.549 5.289 4.589 3.979 3.869 3.839 3.459 3.169
781.236 3.029 2.849 2.629 2.459 2.629 2.869 2.739 2.269 2.399 2.779
800.526 2.929 2.899 2.759 2.939 3.339 3.849 4.199 4.709 5.409 5.549
819.816 5.859 6.569 6.329 6.749 7.819 8.159 8.569 9.389 10.449 11.779
839.106 14.159 17.619 22.099 27.899 35.289 44.569 55.959 69.739 86.239 105.359
858.395 128.409 157.579 192.519 219.929 236.569 252.109 259.109 253.579 241.389 228.879
877.685 213.919 187.859 149.229 107.139 71.699 46.799 30.799 20.699 14.639 10.949
896.975 8.649 7.459 6.619 5.939 5.819 5.829 5.489 5.259 5.619 5.949
916.265 6.029 6.369 7.109 8.159 9.749 11.659 14.459 19.039 25.409 34.659
935.555 48.029 66.259 89.289 115.289 141.219 163.639 180.489 191.399 196.279 195.119
954.844 186.599 170.179 145.919 116.289 86.879 62.579 45.569 35.529 30.109 25.859
974.134 22.459 20.399 18.779 17.669 17.719 18.319 19.499 21.709 24.669 28.359
993.424 33.279 39.699 47.269 56.439 67.979 80.839 94.199 109.029 123.729 136.879
1012.714 147.809 155.579 159.639 160.279 157.339 150.199 139.749 126.939 112.439 97.689
1032.003 84.409 72.039 61.259 52.789 45.649 39.439 34.289 29.979 26.469 24.059
1051.293 22.259 19.929 17.349 15.269 13.949 12.839 11.719 10.939 10.099 9.899
1070.583 10.089 10.019 9.879 9.399 8.279 7.889 8.179 7.919 7.819 8.489
1089.873 8.689 8.439 8.009 8.409 8.969 9.579 10.429 10.659 11.619 13.289
1109.163 15.979 18.309 21.469 26.859 32.749 38.159 44.479 51.649 57.859 63.399
1128.452 67.579 69.599 70.449 70.699 69.769 67.619 64.279 60.369 56.169 51.549
1147.742 47.289 43.649 40.069 36.569 32.899 27.809 23.279 19.689 15.539 13.249
1167.032 12.489 11.169 10.479 10.779 10.799 10.479 11.179 12.969 14.799 15.949
1186.322 17.759 20.489 24.019 28.209 32.859 37.859 43.019 50.679 59.419 68.839
1205.611 79.709 91.709 104.309 115.259 122.839 127.919 131.359 131.449 128.399 122.439
1224.901 113.329 101.089 87.199 73.939 63.009 56.869 55.979 60.019 68.059 78.769
1244.191 92.409 107.149 120.529 130.489 136.639 138.959 137.169 131.669 122.459 109.399
1263.481 93.719 77.449 62.479 51.349 43.759 38.649 36.079 35.249 36.169 38.909
1282.771 42.899 47.909 53.389 58.529 62.749 65.439 66.459 65.969 63.719 59.799
1302.060 54.449 47.789 40.229 32.659 26.279 21.769 18.879 16.989 15.789 15.049
1321.350 14.649 14.419 14.289 14.309 14.219 14.329 14.669 15.019 15.539 16.299
1340.640 17.419 18.839 20.319 21.799 23.299 24.559 25.529 26.459 27.669 29.099
1359.930 30.539 31.639 32.239 32.189 31.539 30.809 30.079 29.229 28.039 26.129
1379.219 23.569 20.889 18.489 16.649 15.379 14.429 13.759 13.269 12.999 13.029
1398.509 13.109 13.499 14.059 14.589 15.169 15.809 16.349 16.589 16.649 16.559
1417.799 16.259 15.749 15.049 14.299 13.869 13.709 13.649 13.739 13.939 14.159
1437.089 14.449 14.679 14.739 14.769 14.859 14.769 14.669 14.719 14.829 15.049
1456.378 15.239 15.449 15.889 16.389 16.859 17.339 17.669 17.889 18.219 18.609
1475.668 18.899 19.249 19.829 20.639 21.459 22.569 23.979 25.019 25.519 25.579
1494.958 25.429 25.259 24.939 24.069 22.769 21.199 19.479 17.929 16.759 15.929
1514.248 15.209 14.549 14.079 13.809 13.629 13.439 13.429 13.719 14.179 14.709
1533.538 15.529 16.599 17.739 19.119 20.389 21.509 22.659 23.639 24.879 26.299
1552.827 27.909 30.209 33.299 37.959 44.799 53.939 66.849 83.959 105.229 130.719
1572.117 158.189 184.319 207.139 223.909 232.449 232.349 224.549 209.639 187.429 158.809
1591.407 126.549 95.299 69.429 50.769 39.059 32.279 28.249 25.669 24.129 22.899
1610.697 21.549 20.529 19.989 19.769 19.889 20.229 20.979 22.019 23.269 24.449
1629.986 25.709 27.439 29.399 31.229 33.079 34.929 37.059 39.479 42.079 44.689
1649.276 47.319 50.019 53.059 56.319 60.409 65.619 72.299 80.449 90.429 103.129
1668.566 119.449 139.909 165.129 195.839 234.359 279.999 336.999 406.199 492.499 598.449
1687.856 714.619 838.029 951.709 1037.47 1082.8 1095.69 1081.5 1057.32 1016.58 929.039
1707.146 790.289 626.159 471.059 347.019 256.219 192.909 149.009 119.799 100.059 86.379
1726.435 76.809 70.149 65.229 61.509 58.759 56.369 54.389 52.469 50.269 47.809
1745.725 45.079 41.849 38.239 34.439 30.479 26.449 22.459 18.999 16.189 13.929
1765.015 12.399 11.449 10.829 10.449 10.269 10.199 10.499 10.809 10.999 11.319
1784.305 11.609 11.929 12.259 12.189 11.829 11.129 10.149 9.319 8.549 7.749
1803.594 7.009 6.179 5.469 4.939 4.589 4.339 4.019 3.849 3.789 3.759
1822.884 3.899 4.099 4.099 4.119 4.269 4.279 4.329 4.349 4.409 4.449
1842.174 4.369 4.289 4.219 4.149 4.019 3.909 3.989 4.039 4.069 4.079
1861.464 4.139 4.269 4.419 4.819 5.069 5.149 5.529 5.859 6.089 6.389
1880.754 6.679 6.889 6.869 6.799 6.839 6.819 6.639 6.339 6.049 5.669
1900.043 5.259 4.859 4.399 4.099 3.899 3.669 3.399 3.159 2.959 2.839
1919.333 2.839 2.849 2.789 2.799 2.789 2.709 2.709 2.749 2.729 2.609
1938.623 2.409 2.369 2.389 2.239 2.159 2.259 2.259 2.129 2.099 2.129
1957.913 2.129 2.059 1.959 1.969 1.959 1.879 1.809 1.779 1.749 1.719
1977.202 1.789 1.809 1.839 2.009 2.059 2.009 2.049 2.099 2.099 2.179
1996.492 2.389 2.479 2.449 2.389 2.449 2.539 2.539 2.619 2.559 2.549
2015.782 2.619 2.579 2.649 2.729 2.749 2.819 2.859 2.889 2.969 3.019
2035.072 3.099 3.129 2.989 3.029 3.029 2.959 2.949 2.769 2.579 2.579
2054.362 2.699 2.729 2.679 2.609 2.519 2.499 2.639 2.749 2.839 2.869
2073.651 2.839 2.979 3.059 3.029 3.079 3.039 3.049 2.989 2.859 2.909
2092.941 2.759 2.729 2.789 2.639 2.519 2.599 2.599 2.519 2.669 2.759
2112.231 2.839 2.889 2.969 3.189 3.369 3.379 3.449 3.579 3.569 3.619
2131.521 3.609 3.559 3.549 3.479 3.529 3.579 3.559 3.629 3.579 3.629
2150.810 3.849 3.949 3.919 3.859 3.829 3.829 3.759 3.689 3.579 3.369
2170.100 3.309 3.059 2.679 2.489 2.329 2.249 2.049 1.799 1.669 1.629
2189.390 1.589 1.569 1.599 1.539 1.659 1.749 1.719 1.849 1.959 1.989
2208.680 2.009 2.029 2.169 2.319 2.159 2.089 2.069 1.989 2.079 2.119
2227.970 2.049 2.119 2.299 2.499 2.589 2.619 2.749 2.909 3.149 3.289
2247.259 3.409 3.759 3.929 3.979 4.209 4.369 4.519 4.619 4.679 4.779
2266.549 4.719 4.659 4.639 4.559 4.369 4.279 4.279 4.169 4.179 4.169
2285.839 4.059 3.979 4.019 4.099 4.199 4.169 4.179 4.319 4.419 4.639
2305.129 4.809 4.879 5.049 5.179 5.189 5.319 5.459 5.379 5.189 5.109
2324.418 5.029 4.789 4.619 4.429 4.229 4.049 3.869 3.749 3.649 3.589
2343.708 3.559 3.489 3.509 3.569 3.549 3.479 3.409 3.309 3.189 3.079
2362.998 3.079 3.139 2.949 2.889 3.049 3.079 3.109 3.059 2.989 3.039
2382.288 3.069 2.999 2.939 2.869 2.759 2.789 2.949 3.109 3.039 3.009
2401.578 3.099 3.159 3.289 3.489 3.679 3.949 4.169 4.299 4.439 4.579
2420.867 4.839 5.059 5.109 5.239 5.329 5.259 5.219 5.059 4.679 4.399
2440.157 4.259 3.999 3.789 3.599 3.299 3.199 3.079 2.809 2.639 2.459
2459.447 2.449 2.329 2.139 2.149 2.209 2.199 2.219 2.279 2.269 2.229
2478.737 2.199 2.379 2.559 2.649 2.709 2.789 2.889 3.189 3.469 3.579
2498.026 3.709 3.879 4.099 4.249 4.449 4.539 4.519 4.549 4.649 4.719
2517.316 4.689 4.709 4.689 4.649 4.519 4.269 4.269 4.389 4.279 4.149
2536.606 4.189 4.149 4.219 4.259 4.069 3.999 4.029 3.899 3.809 3.789
2555.896 3.659 3.599 3.529 3.359 3.189 3.219 3.279 3.299 3.379 3.389
2575.186 3.389 3.159 3.149 3.489 3.589 3.569 3.629 3.629 3.599 3.459
2594.475 3.499 3.539 3.419 3.299 3.189 3.159 3.019 2.899 2.829 2.889
2613.765 3.009 3.089 3.219 3.349 3.439 3.519 3.629 3.769 3.939 3.969
2633.055 3.969 4.099 4.219 4.189 4.129 4.159 4.119 4.049 4.009 3.889
2652.345 3.659 3.419 3.299 2.999 2.669 2.399 2.209 2.079 1.749 1.479
2671.634 1.439 1.479 1.479 1.389 1.449 1.379 1.2675 1.2824 0.984 0.9557
2690.924 1.1741 1.2066 1.258 1.3053 1.2836 1.3213 1.349 1.429 1.539 1.709
2710.214 1.799 1.759 1.749 1.729 1.759 1.829 1.759 1.689 1.699 1.799
2729.504 1.679 1.609 1.749 1.809 1.939 1.779 1.739 1.829 1.919 1.989
2748.794 2.049 2.119 2.179 2.339 2.409 2.419 2.529 2.599 2.499 2.319
2768.083 2.319 2.539 2.899 3.059 3.009 3.059 3.229 3.519 3.589 3.709
2787.373 4.089 4.439 4.589 4.609 4.869 5.089 5.259 5.379 5.309 5.299
2806.663 5.389 5.399 5.259 5.139 4.959 4.809 4.719 4.479 4.049 3.899
2825.953 3.969 3.919 3.759 3.649 3.689 3.819 3.879 3.739 3.649 3.769
2845.242 3.909 4.029 4.119 4.179 4.369 4.599 4.869 5.179 5.409 5.729
2864.532 5.869 6.129 6.599 6.799 7.129 7.519 7.729 8.109 8.579 8.789
2883.822 8.969 9.149 9.559 9.979 10.349 10.749 11.059 11.449 11.819 12.379
2903.112 13.019 13.469 13.869 14.249 14.939 15.649 15.979 16.249 16.479 16.859
2922.401 17.229 17.229 16.949 16.969 17.209 17.469 18.019 18.769 19.949 21.379
2941.691 23.069 25.669 28.709 32.279 36.939 42.229 47.609 52.679 56.999 59.809
2960.981 60.779 60.159 58.269 55.099 50.409 44.469 38.259 32.499 27.559 23.689
2980.271 20.979 19.059 17.879 17.129 16.439 15.869 15.409 15.149 14.849 14.489
2999.561 13.909 13.109 12.149 11.319 10.609 9.799 8.989 8.199 7.639 7.119
3018.850 6.539 6.169 5.819 5.539 5.429 5.119 4.829 4.869 4.899 4.689
3038.140 4.609 4.759 4.849 4.699 4.589 4.429 4.369 4.479 4.539 4.559
3057.430 4.539 4.299 4.229 4.309 4.239 4.159 4.189 4.189 4.069 3.839
3076.720 3.689 3.859 3.919 3.829 3.859 3.889 3.839 4.059 4.089 3.979
3096.009 4.149 4.099 3.989 4.099 4.029 3.919 3.869 3.659 3.509 3.299
3115.299 3.129 3.089 2.879 2.899 2.669 2.479 2.559 2.389 2.019 1.989
3134.589 1.989 1.829 1.839 1.849 1.889 1.879 1.699 1.629 1.839 1.909
3153.879 1.729 1.339 1.349 1.559 1.379 1.399 1.579 1.439 1.419 1.3237
3173.169 1.025 0.9532 1.0161 1.0799 1.0762 0.9392 0.9449 1.0899 1.1552 1.126
3192.458 1.2083 1.2798 1.2338 1.2435 1.1279 1.1837 1.1879 1.1125 1.0869 0.9337
3211.748 0.9846 1.027 1.0346 1.1719 1.2344 1.0671 0.8659 0.8338 0.7492 0.661
3231.038 0.9893 0.9032 0.5369 0.6968 0.8158 0.7149 0.6127 0.6661 0.7885 0.6994
3250.328 0.6119 0.8764 0.9615 0.8818 0.9625 0.9483 0.9072 0.8722 0.7539 0.6784
3269.617 0.7688 0.9566 1.0825 1.1243 1.1542 1.2187 1.1897 0.9765 0.9917 1.0724
3288.907 1.0413 1.1355 1.1097 0.9006 0.9004 1.1419 1.2295 1.2044 1.3334 1.1287
3308.197 0.8819 1.0454 1.1246 1.1028 1.2028 1.2701 1.2845 1.639 1.899 1.669
3327.487 1.579 1.879 2.069 2.119 2.179 2.309 2.569 2.849 3.229 3.429
3346.777 3.699 4.039 4.469 4.969 5.269 5.949 6.609 7.229 8.029 8.779
3366.066 9.249 9.779 10.439 10.939 11.299 11.419 11.429 11.139 10.859 10.379
3385.356 9.599 8.849 8.089 7.449 6.499 5.689 4.989 4.219 3.549 3.009
3404.646 2.729 2.489 2.209 1.919 1.969 1.919 1.839 1.629 1.2791 1.1907
3423.936 1.419 1.629 1.639 1.449 1.0101 0.9433 0.9999 0.9164 0.7566 0.7485
3443.225 0.7483 0.7113 0.7111 0.6979 0.6411 0.7735 0.9122 0.6602 0.5242 0.5081
3462.515 0.42354 0.5232 0.6446 0.5464 0.5248 0.5221 0.35236 0.156 0.178 0.291
3481.805 0.38558 0.5133 0.338338 0.226 0.4927 0.745 0.6253 0.5621 0.7568 0.7533
3501.095 0.2859 0.238 0.5671 0.4679 0.39332 0.414 0.4896 0.43693 0.35728 0.2648
3520.385 0.2444 0.3047 0.2947 0.37804 0.5641 0.37637 0.143 0.3275 0.4711 0.4503
3539.674 0.3046 0.146 0.204 0.36995 0.37575 0.459 0.4491 0.6104 0.6635 0.6288
3558.964 0.8691 0.7079 0.42615 0.4485 0.7616 0.7067 0.494 0.5719 0.42626 0.37852
3578.254 0.3259 0.33786 0.40151 0.2599 0.39907 0.4466 0.2423 0.344314 0.5447 0.4454
3597.544 0.344865 0.4326 0.5214 0.5834 0.62 0.5256 0.42518 0.41223 0.4991 0.4581
3616.833 0.4538 0.677 0.5258 0.3111 0.35625 0.33704 0.4881 0.5489 0.4558 0.614
3636.123 0.5733 0.38168 0.5231 0.8063 0.4609 0.109 0.03 0.138 0.5708 0.6485
3655.413 0.6156 0.4645 0.4898 0.6307 0.37434 0.35027 0.5372 0.4021 0.2983 0.3626
3674.703 0.4648 0.5197 0.39503 0.32915 0.37088 0.6309 0.7947 0.7389 0.772 0.6953
3693.993 0.5207 0.41835 0.3675 0.35308 0.2464 0 0.183 0.5475 0.7396 0.9933
3713.282 0.7325 0.5318 0.558 0.443 0.4991 0.5635 0.4533 0.34939 0.3165 0.41998
3732.572 0.531 0.4284 0.36962 0.2755 0.2833 0.40736 0.488 0.5461 0.5837 0.669
3751.862 0.4478 0.284 0.37016 0.4925 0.5996 0.564 0.37674 0.3249 0.156 0.121
3771.152 0.4608 0.766 0.7282 0.4686 0.3893 0.42476 0.41377 0.2417 0.21 0.3212
3790.441 0.36238 0.344887 0.2427 0.205 0.147 0.4632 0.8168 0.7333 0.7799 0.7906
3809.731 0.6798 0.3015 0.038 0.3075 0.37969 0.2554 0.36738 0.37394 0.283 0.234
3829.021 0.107 0.2878 0.5137 0.229 0.091 0.3087 0.41698 0.5804 0.4765 0.292
3848.311 0.2916 0.173 0.173 0.41089 0.4592 0.458 0.4586 0.3171 0.38491 0.5333
3867.601 0.4919 0.37233 0.2391 0.217 0.216 0.315 0.36306 0.197 0.3669 0.41503
3886.890 0.2707 0.40618 0.4456 0.35047 0.42717 0.3574 0.3179 0.40523 0.41977 0.42505
3906.180 0.5099 0.5842 0.5327 0.4534 0.4956 0.5044 0.4834 0.5406 0.4667 0.35797
3925.470 0.43414 0.41843 0.216 0.37487 0.4488 0.3155 0.39153 0.3578 0.38329 0.441
3944.760 0.235 0.43242 0.7196 0.4895 0.3045 0.4496 0.5915 0.40599 0.33029 0.4648
3964.049 0.37887 0.2789 0.2542 0.173 0.292 0.2918 0.43777 0.693 0.3964 0.015
3983.339 0.145 0.492 0.6773 0.6058 0.346733 0.4885 0.2838 0.189 0.5479 0.6219
##END=
