##TITLE=1,2-Dimethyl-3-ethylbenzene
##JCAMP-DX=4.24
##DATA TYPE=INFRARED SPECTRUM
##ORIGIN=NIST Mass Spectrometry Data Center
##OWNER=NIST Standard Reference Data Program
Collection (C) 2018 copyright by the U.S. Secretary of Commerce
on behalf of the United States of America. All rights reserved.
##CAS REGISTRY NO=933-98-2
##MOLFORM=C 10 H 14
##$NIST SOURCE=MSDC-IR
##SPECTROMETER/DATA SYSTEM=HP-GC/MS/IRD
##STATE=gas
##XUNITS=1/CM
##YUNITS=ABSORBANCE
##XFACTOR=1.0
##YFACTOR=0.000001300
##DELTAX=4.0
##FIRSTX=550.0
##LASTX=3846.0
##FIRSTY=0.000563
##MAXX=3846
##MINX=550
##MAXY=0.013
##MINY=0
##NPOINTS=825
##XYDATA=(X++(Y..Y))
550.0 433 368 292 238 177 165 283 302 201 159
590.0 151 128 80 36 80 84 79 112 78 90
630.0 97 107 116 74 96 108 152 145 82 70
670.0 25 25 66 103 112 159 204 276 545 830
710.0 1140 1427 1759 1945 1621 1349 1196 971 870 933
750.0 1123 1344 1608 1973 2376 2917 3316 2986 2433 2035
790.0 1568 1160 892 653 494 412 354 289 44 9
830.0 105 45 45 83 101 106 110 109 117 97
870.0 75 67 46 41 44 46 48 18 22 35
910.0 5 4 11 4 31 38 54 114 143 179
950.0 284 386 430 429 427 391 343 321 318 348
990.0 368 363 356 344 339 330 325 291 323 394
1030.0 400 413 430 445 489 564 593 601 578 500
1070.0 429 356 304 315 391 479 574 644 613 559
1110.0 485 345 216 166 124 77 68 61 76 90
1150.0 101 97 71 91 119 115 100 82 82 87
1190.0 117 132 118 104 104 107 124 132 138 166
1230.0 183 200 229 232 224 188 167 158 140 110
1270.0 128 169 165 136 132 159 192 239 290 330
1310.0 367 412 470 493 460 441 422 369 326 313
1350.0 303 324 364 392 470 585 703 816 888 880
1390.0 841 779 668 580 512 491 515 543 624 752
1430.0 924 1158 1475 1862 2255 2620 2930 3213 3428 3511
1470.0 3464 3265 2961 2529 2021 1556 1199 945 786 669
1510.0 572 531 502 473 438 410 411 420 418 417
1550.0 426 456 487 529 592 656 746 866 966 1033
1590.0 1007 913 758 600 488 387 309 279 240 205
1630.0 194 186 183 176 177 191 193 209 231 231
1670.0 216 198 176 145 105 93 101 110 90 74
1710.0 77 64 63 74 82 83 83 86 79 64
1750.0 56 72 82 78 93 137 174 186 178 144
1790.0 98 67 57 45 44 50 54 67 79 84
1830.0 102 134 168 198 217 217 200 148 85 48
1870.0 39 48 50 49 55 67 91 138 192 221
1910.0 254 268 255 231 178 129 92 63 45 40
1950.0 31 18 19 21 23 18 10 19 31 31
1990.0 19 12 18 18 24 22 19 25 21 27
2030.0 43 55 46 27 18 27 24 16 18 18
2070.0 16 2 15 26 10 0 0 9 31 34
2110.0 14 10 22 22 6 2 9 21 31 21
2150.0 13 19 17 6 9 29 35 25 6 1
2190.0 10 22 16 19 26 20 24 20 18 25
2230.0 23 18 28 38 33 39 35 34 36 33
2270.0 30 18 14 8 11 25 13 0 3 5
2310.0 8 21 44 55 62 64 72 76 70 56
2350.0 42 53 63 58 53 43 41 48 58 62
2390.0 50 52 53 59 67 54 62 71 75 76
2430.0 71 65 65 54 51 61 59 58 70 68
2470.0 58 70 70 72 78 76 65 52 50 54
2510.0 59 63 65 68 67 73 69 66 64 71
2550.0 80 92 82 60 66 67 56 58 74 71
2590.0 64 69 62 58 65 78 87 88 113 117
2630.0 103 118 120 98 91 90 75 79 100 93
2670.0 81 87 101 109 109 112 105 104 138 173
2710.0 183 186 199 226 247 274 313 339 361 350
2750.0 317 295 275 274 312 330 325 368 372 354
2790.0 375 398 395 417 452 471 503 564 611 664
2830.0 755 858 967 1101 1281 1503 1774 2110 2511 2980
2870.0 3544 4159 4714 5133 5344 5324 5166 4957 4813 4773
2910.0 4854 5080 5427 5871 6396 6950 7477 7924 8148 8096
2950.0 7922 7749 7829 8433 9352 10000 9960 9345 8045 6266
2990.0 4826 3892 3361 3132 3155 3343 3564 3785 3949 3995
3030.0 3916 3768 3618 3514 3479 3523 3626 3762 3843 3782
3070.0 3569 3177 2704 2241 1757 1373 1098 895 747 621
3110.0 539 488 473 480 450 449 427 376 363 372
3150.0 365 329 326 329 309 293 281 271 231 196
3190.0 201 194 158 133 137 134 126 94 74 77
3230.0 57 71 92 83 93 88 48 45 74 73
3270.0 73 78 79 96 86 61 72 71 55 57
3310.0 69 73 57 62 91 103 91 69 53 62
3350.0 66 37 32 60 83 76 62 65 49 40
3390.0 61 79 68 67 66 75 64 46 49 44
3430.0 33 34 50 72 64 82 76 46 69 74
3470.0 67 59 50 61 79 61 40 36 35 32
3510.0 41 56 82 44 30 70 54 46 49 57
3550.0 52 43 69 76 36 28 47 42 40 22
3590.0 47 75 46 44 54 57 32 8 1 1
3630.0 29 26 33 69 61 55 53 44 49 37
3670.0 41 33 36 75 82 74 73 69 103 130
3710.0 90 71 78 74 62 73 60 39 58 63
3750.0 58 42 18 53 105 104 66 34 25 63
3790.0 86 54 61 65 53 85 83 44 74 108
3830.0 118 100 95 134 114
##END=
