##TITLE=1,2-Dimethyl-4-ethylbenzene
##JCAMP-DX=4.24
##DATA TYPE=INFRARED SPECTRUM
##ORIGIN=NIST Mass Spectrometry Data Center
##OWNER=NIST Standard Reference Data Program
Collection (C) 2018 copyright by the U.S. Secretary of Commerce
on behalf of the United States of America. All rights reserved.
##CAS REGISTRY NO=934-80-5
##MOLFORM=C 10 H 14
##$NIST SOURCE=MSDC-IR
##SPECTROMETER/DATA SYSTEM=HP-GC/MS/IRD
##STATE=gas
##XUNITS=1/CM
##YUNITS=ABSORBANCE
##XFACTOR=1.0
##YFACTOR=0.000001500
##DELTAX=4.0
##FIRSTX=550.0
##LASTX=3846.0
##FIRSTY=0.000348
##MAXX=3846
##MINX=550
##MAXY=0.015
##MINY=0
##NPOINTS=825
##XYDATA=(X++(Y..Y))
550.0 232 216 182 242 299 318 343 375 348 364
590.0 367 337 299 231 172 125 110 129 145 83
630.0 59 55 69 62 0 33 48 46 36 21
670.0 13 52 111 111 108 128 183 219 267 346
710.0 413 400 374 341 302 255 259 254 220 191
750.0 189 216 220 220 221 256 306 298 369 479
790.0 571 859 1170 1519 1978 2367 2521 2328 1973 1557
830.0 1149 794 536 367 255 246 295 348 452 595
870.0 739 943 1018 858 706 609 516 448 446 419
910.0 321 219 150 110 87 130 153 143 152 155
950.0 177 218 292 351 381 415 476 521 500 491
990.0 519 568 620 663 704 691 633 591 532 496
1030.0 444 375 358 332 328 361 403 432 388 340
1070.0 312 233 183 168 132 109 107 132 170 156
1110.0 176 281 371 391 362 346 347 320 295 309
1150.0 337 322 284 266 227 187 179 142 101 106
1190.0 109 146 194 229 257 255 247 204 139 135
1230.0 141 141 139 149 145 139 148 147 159 153
1270.0 148 155 178 207 250 294 313 344 389 454
1310.0 551 673 774 790 746 663 593 578 473 360
1350.0 334 340 412 515 508 545 668 744 802 861
1390.0 844 806 756 696 721 769 878 1047 1095 1108
1430.0 1207 1404 1590 1736 1988 2243 2526 2610 2473 2342
1470.0 2184 2001 1755 1632 1762 2118 2618 3116 3369 3433
1510.0 3089 2339 1697 1279 979 811 738 761 754 651
1550.0 596 633 733 637 546 577 592 597 556 554
1590.0 553 543 577 635 698 769 814 800 703 573
1630.0 453 396 311 246 255 314 330 192 139 160
1670.0 191 193 182 238 244 159 189 266 227 164
1710.0 140 214 257 167 153 264 364 357 366 410
1750.0 444 382 316 265 243 237 167 118 132 125
1790.0 152 155 123 128 97 98 114 105 108 137
1830.0 138 109 86 125 146 114 106 128 162 226
1870.0 270 265 266 254 242 222 173 128 94 88
1910.0 85 72 77 74 61 57 49 46 53 43
1950.0 29 29 46 54 52 46 39 25 25 43
1990.0 53 35 15 18 25 20 41 62 40 25
2030.0 32 34 28 28 25 28 29 21 10 9
2070.0 23 25 20 27 29 22 26 29 24 28
2110.0 35 32 30 30 35 44 47 49 42 41
2150.0 27 23 33 32 30 26 12 14 24 20
2190.0 26 37 26 9 18 22 15 17 25 31
2230.0 39 36 20 27 40 38 34 31 45 47
2270.0 35 33 34 32 38 58 62 59 62 55
2310.0 56 78 100 108 111 115 111 105 93 77
2350.0 79 99 115 131 130 122 107 86 78 72
2390.0 59 42 43 45 46 59 68 66 71 59
2430.0 50 47 46 61 73 73 74 49 33 43
2470.0 43 48 47 57 74 71 64 56 42 48
2510.0 55 59 65 57 70 73 56 54 47 37
2550.0 45 57 60 57 52 50 58 62 68 71
2590.0 64 77 83 78 65 45 54 92 109 98
2630.0 91 84 81 91 78 68 72 78 95 98
2670.0 66 72 94 107 107 104 127 126 122 152
2710.0 157 139 149 189 234 269 300 346 370 360
2750.0 325 297 306 309 323 346 348 355 358 390
2790.0 401 382 402 448 475 509 565 611 682 789
2830.0 896 995 1126 1299 1517 1819 2187 2651 3216 3829
2870.0 4398 4841 5151 5308 5276 5122 4972 4871 4842 4888
2910.0 5041 5338 5841 6615 7627 8603 9319 9630 9400 8778
2950.0 8076 7543 7512 8274 9405 10000 9851 9134 7681 6070
2990.0 5100 4689 4637 4757 4919 4983 4871 4582 4145 3683
3030.0 3297 3043 2913 2844 2795 2715 2569 2332 2071 1843
3070.0 1610 1426 1265 1143 1016 869 783 726 671 622
3110.0 597 592 580 548 515 466 405 371 342 324
3150.0 323 305 272 256 249 239 225 198 183 168
3190.0 163 156 135 113 119 136 136 147 126 100
3230.0 91 81 103 110 120 116 80 64 69 89
3270.0 73 49 50 46 55 72 79 76 46 45
3310.0 57 56 48 45 61 53 60 56 64 88
3350.0 55 45 67 60 39 24 35 42 40 34
3390.0 50 74 65 48 44 44 35 40 53 45
3430.0 53 64 65 66 62 42 12 11 25 42
3470.0 37 28 39 69 67 29 6 32 59 72
3510.0 31 17 33 74 108 65 43 36 55 89
3550.0 63 45 58 81 157 116 30 19 35 109
3590.0 140 121 81 25 90 156 126 109 73 115
3630.0 136 55 31 42 107 144 99 61 28 68
3670.0 131 141 113 65 98 113 63 78 97 118
3710.0 182 152 126 198 185 184 248 196 194 236
3750.0 212 161 116 93 75 68 42 67 79 31
3790.0 15 27 72 102 85 66 55 80 86 49
3830.0 50 101 121 99 64
##END=
