##TITLE=3-Methoxycatechol
##JCAMP-DX=4.24
##DATA TYPE=INFRARED SPECTRUM
##ORIGIN=NIST Mass Spectrometry Data Center
##OWNER=NIST Standard Reference Data Program
Collection (C) 2018 copyright by the U.S. Secretary of Commerce
on behalf of the United States of America. All rights reserved.
##CAS REGISTRY NO=934-00-9
##MOLFORM=C 7 H 8 O 3
##$NIST SOURCE=MSDC-IR
##SPECTROMETER/DATA SYSTEM=HP-GC/MS/IRD
##STATE=gas
##XUNITS=1/CM
##YUNITS=ABSORBANCE
##XFACTOR=1.0
##YFACTOR=0.000002800
##DELTAX=4.0
##FIRSTX=550.0
##LASTX=3846.0
##FIRSTY=0.000683
##MAXX=3846
##MINX=550
##MAXY=0.028
##MINY=0
##NPOINTS=825
##XYDATA=(X++(Y..Y))
550.0 244 258 139 226 272 399 557 647 639 607
590.0 551 404 258 161 98 53 61 95 97 88
630.0 75 64 61 76 88 76 72 93 113 111
670.0 162 223 279 395 594 887 1261 1544 1739 2081
710.0 2602 2451 1803 1471 1187 870 627 492 460 506
750.0 616 781 1005 1214 1286 1240 1119 906 676 503
790.0 356 250 201 184 181 215 292 374 430 473
830.0 479 440 371 281 188 118 68 52 41 20
870.0 9 16 11 16 43 56 62 84 122 159
910.0 196 284 392 545 754 959 1107 1162 1105 976
950.0 760 543 382 273 226 207 201 185 169 176
990.0 178 184 192 206 229 257 293 342 426 522
1030.0 649 835 1073 1395 1794 2260 2757 3207 3583 3912
1070.0 4164 4337 4497 4686 4838 4880 4695 4243 3619 2885
1110.0 2081 1416 1037 863 789 787 812 880 1014 1218
1150.0 1481 1756 2129 2647 3260 3832 4308 4762 5261 5906
1190.0 6849 8079 9224 9923 10000 9382 8171 6707 5414 4623
1230.0 4529 5075 5902 6458 6505 6111 5348 4243 3400 3399
1270.0 4041 4921 5668 6031 6033 5690 4887 3832 2916 2278
1310.0 1868 1613 1481 1463 1568 1821 2222 2788 3512 4392
1350.0 5136 5290 4916 4207 3243 2043 1059 615 447 372
1390.0 324 288 268 253 243 241 247 260 283 336
1430.0 435 582 770 967 1120 1276 1456 1630 1824 2084
1470.0 2471 3050 3767 4556 5280 5836 6304 6559 6414 5991
1510.0 5380 4492 3444 2507 1805 1332 1029 856 783 771
1550.0 797 851 898 910 911 897 887 887 931 1035
1590.0 1209 1442 1753 2149 2612 3105 3554 3870 3958 3762
1630.0 3321 2732 2079 1453 976 706 577 507 450 412
1670.0 396 371 351 357 358 347 332 298 261 234
1710.0 207 173 143 119 105 86 72 61 53 44
1750.0 39 41 46 46 52 56 59 78 88 85
1790.0 84 79 72 69 51 36 29 18 13 5
1830.0 0 7 11 11 15 21 27 49 75 99
1870.0 118 129 126 124 112 91 76 60 47 42
1910.0 36 32 33 26 16 22 31 34 34 35
1950.0 39 41 35 23 25 32 34 40 47 50
1990.0 56 58 59 54 50 58 57 58 60 55
2030.0 54 53 49 48 39 30 31 31 24 20
2070.0 19 22 21 19 20 13 12 9 7 12
2110.0 15 22 19 8 11 16 18 29 35 35
2150.0 34 39 43 47 57 60 64 70 76 78
2190.0 83 82 78 75 75 75 69 68 65 56
2230.0 47 35 28 24 14 13 12 8 11 15
2270.0 18 19 21 25 24 25 35 38 34 35
2310.0 41 42 42 52 52 42 37 34 30 33
2350.0 34 21 17 24 29 28 35 38 37 45
2390.0 46 52 55 55 60 57 61 68 69 66
2430.0 65 68 71 73 62 51 42 43 46 43
2470.0 40 49 61 67 74 75 70 67 67 58
2510.0 49 51 61 65 67 78 78 66 59 57
2550.0 55 51 43 41 43 40 29 17 11 15
2590.0 9 11 12 11 13 10 17 26 20 9
2630.0 8 7 18 32 31 19 7 10 22 24
2670.0 27 33 32 35 39 45 51 51 54 53
2710.0 42 34 28 26 23 19 18 13 13 13
2750.0 8 11 21 21 15 14 24 33 38 47
2790.0 51 53 69 85 93 114 131 147 174 217
2830.0 279 387 536 682 786 841 823 738 612 475
2870.0 372 326 323 314 303 316 342 383 441 502
2910.0 582 660 719 748 740 759 838 978 1158 1331
2950.0 1460 1521 1510 1421 1292 1123 950 831 743 696
2990.0 692 730 811 923 988 973 916 802 633 483
3030.0 401 361 365 389 418 464 521 588 679 755
3070.0 797 797 754 695 590 466 370 291 229 203
3110.0 185 153 129 115 95 76 57 41 36 30
3150.0 31 39 41 32 25 30 27 30 45 55
3190.0 59 54 48 41 33 34 39 51 57 61
3230.0 61 57 53 55 52 49 51 51 48 52
3270.0 60 63 70 69 69 79 77 82 83 68
3310.0 59 47 37 23 28 41 31 34 34 19
3350.0 19 24 28 45 46 32 34 39 37 39
3390.0 42 43 43 27 22 31 30 33 33 10
3430.0 9 23 29 36 38 29 35 51 49 49
3470.0 62 70 63 51 53 56 51 55 62 57
3510.0 62 75 80 87 78 80 112 128 140 181
3550.0 226 255 317 447 626 931 1440 2217 3318 4687
3590.0 6092 7249 7826 7478 6552 5358 3798 2298 1291 754
3630.0 486 354 289 265 266 288 326 326 310 286
3670.0 240 194 142 108 92 66 61 72 70 53
3710.0 39 39 42 48 50 42 49 62 56 48
3750.0 45 43 42 60 58 40 49 53 61 77
3790.0 58 35 32 36 37 47 61 53 48 52
3830.0 51 41 37 51 65
##END=
