##TITLE=2,6-Diethylpyridine
##JCAMP-DX=4.24
##DATA TYPE=INFRARED SPECTRUM
##ORIGIN=NIST Mass Spectrometry Data Center
##OWNER=NIST Standard Reference Data Program
Collection (C) 2018 copyright by the U.S. Secretary of Commerce
on behalf of the United States of America. All rights reserved.
##CAS REGISTRY NO=935-28-4
##MOLFORM=C 9 H 13 N
##$NIST SOURCE=MSDC-IR
##SPECTROMETER/DATA SYSTEM=HP-GC/MS/IRD
##STATE=gas
##XUNITS=1/CM
##YUNITS=ABSORBANCE
##XFACTOR=1.0
##YFACTOR=0.000002700
##DELTAX=4.0
##FIRSTX=550.0
##LASTX=3846.0
##FIRSTY=0.000481
##MAXX=3846
##MINX=550
##MAXY=0.027
##MINY=0
##NPOINTS=825
##XYDATA=(X++(Y..Y))
550.0 178 124 121 98 68 59 18 3 38 52
590.0 51 66 46 31 29 17 7 2 15 18
630.0 2 12 41 37 21 6 15 65 80 80
670.0 85 72 74 92 90 127 153 140 127 129
710.0 156 165 176 263 436 674 980 1321 1695 1946
750.0 1958 1792 1556 1334 1135 964 877 879 915 988
790.0 1051 1113 1221 1323 1401 1451 1435 1345 1197 1022
830.0 835 656 513 404 328 286 281 324 391 458
870.0 526 544 501 409 301 226 168 123 95 73
910.0 71 78 71 65 64 68 71 71 79 93
950.0 104 111 104 114 143 171 232 331 460 590
990.0 632 642 641 556 445 374 342 331 354 406
1030.0 460 516 565 590 626 682 729 777 813 814
1070.0 773 696 604 524 484 477 468 449 420 391
1110.0 351 281 237 220 216 231 260 319 485 698
1150.0 821 855 803 667 463 327 309 325 351 430
1190.0 565 752 946 1065 1089 1044 926 805 719 658
1230.0 633 634 632 628 617 607 606 594 571 565
1270.0 557 541 503 453 408 373 348 335 339 363
1310.0 389 415 430 425 404 368 327 294 271 260
1350.0 265 282 306 346 394 446 509 549 563 571
1390.0 570 588 641 706 802 908 1018 1175 1373 1609
1430.0 1931 2366 2972 3813 4812 5696 6258 6476 6263 5480
1470.0 4447 3466 2574 1801 1291 1019 861 761 685 638
1510.0 605 577 570 574 587 608 639 699 793 925
1550.0 1150 1501 2077 3003 4340 6123 7981 9484 10000 9101
1590.0 7080 5063 3629 2555 1743 1191 855 651 524 436
1630.0 377 341 309 280 257 239 221 195 175 165
1670.0 162 158 150 148 139 129 124 122 124 117
1710.0 107 106 105 100 97 93 88 85 86 89
1750.0 96 104 118 141 158 166 166 155 137 116
1790.0 91 70 62 57 59 59 54 51 51 53
1830.0 54 55 59 70 96 135 171 189 193 183
1870.0 157 118 86 74 67 54 47 45 47 53
1910.0 51 56 63 68 73 85 107 136 167 185
1950.0 191 183 169 142 100 78 63 49 52 50
1990.0 47 50 42 35 41 44 46 51 51 45
2030.0 47 53 50 43 41 44 45 41 36 36
2070.0 38 30 25 29 27 28 31 33 35 30
2110.0 30 32 36 32 33 36 36 42 41 46
2150.0 49 44 43 44 46 46 44 37 40 43
2190.0 46 52 47 45 48 50 50 46 47 50
2230.0 44 43 46 37 37 44 49 57 59 58
2270.0 62 63 65 68 67 68 64 60 67 71
2310.0 71 74 75 72 58 48 48 46 45 41
2350.0 36 38 33 29 32 30 36 36 25 19
2390.0 15 15 18 21 26 30 34 40 43 52
2430.0 57 49 46 48 43 30 21 21 30 27
2470.0 20 18 10 1 8 14 21 32 30 26
2510.0 24 21 20 26 26 24 28 36 39 29
2550.0 30 35 34 37 32 33 40 36 37 41
2590.0 37 32 31 25 24 32 40 41 49 59
2630.0 59 65 73 83 92 94 102 106 101 87
2670.0 81 78 75 77 75 73 78 86 91 91
2710.0 93 95 97 108 117 126 133 138 146 149
2750.0 143 136 146 159 166 175 188 198 222 238
2790.0 244 263 290 314 331 344 366 400 446 502
2830.0 570 633 693 777 877 1002 1161 1362 1577 1796
2870.0 2040 2323 2663 3002 3266 3439 3503 3469 3387 3320
2910.0 3297 3323 3422 3634 3997 4547 5279 6005 6463 6613
2950.0 6538 6329 6219 6506 7232 8001 8454 8453 7825 6634
2990.0 5279 4072 3193 2650 2316 2073 1863 1694 1532 1375
3030.0 1224 1095 1027 1035 1154 1416 1821 2288 2660 2856
3070.0 2864 2590 2072 1498 1025 708 522 438 395 352
3110.0 332 321 300 294 290 286 295 301 304 319
3150.0 325 313 280 254 241 219 191 169 148 131
3190.0 115 107 100 97 95 92 100 88 65 54
3230.0 57 58 46 39 42 41 44 38 24 18
3270.0 22 23 19 24 19 19 29 22 21 31
3310.0 25 25 16 17 23 32 36 21 12 11
3350.0 15 15 9 5 14 30 35 35 23 18
3390.0 20 10 22 33 29 32 34 25 17 19
3430.0 24 18 4 0 11 13 4 10 19 10
3470.0 2 10 15 9 3 2 9 14 14 34
3510.0 40 21 27 24 23 19 26 32 21 33
3550.0 33 26 21 16 22 18 16 23 26 28
3590.0 32 39 42 37 37 28 29 45 41 34
3630.0 37 38 24 18 28 47 34 27 43 41
3670.0 25 25 25 30 47 41 35 38 36 49
3710.0 53 46 49 51 52 37 41 51 44 45
3750.0 39 46 60 61 55 46 46 52 45 41
3790.0 43 32 20 23 33 34 32 25 19 37
3830.0 53 60 64 49 35
##END=
