##TITLE=1-Cyclohexyl-1-pentanol
##JCAMP-DX=4.24
##DATA TYPE=INFRARED SPECTRUM
##ORIGIN=NIST Mass Spectrometry Data Center
##OWNER=NIST Standard Reference Data Program
Collection (C) 2018 copyright by the U.S. Secretary of Commerce
on behalf of the United States of America. All rights reserved.
##CAS REGISTRY NO=93548-33-5
##MOLFORM=C 11 H 22 O
##$NIST SOURCE=MSDC-IR
##SPECTROMETER/DATA SYSTEM=HP-GC/MS/IRD
##STATE=gas
##XUNITS=1/CM
##YUNITS=ABSORBANCE
##XFACTOR=1.0
##YFACTOR=0.000007300
##DELTAX=4.0
##FIRSTX=550.0
##LASTX=3846.0
##FIRSTY=0.000504
##MAXX=3846
##MINX=550
##MAXY=0.073
##MINY=0
##NPOINTS=825
##XYDATA=(X++(Y..Y))
550.0 69 33 6 2 5 13 5 6 20 27
590.0 25 21 19 27 25 22 26 28 18 11
630.0 18 21 17 19 22 22 21 18 22 29
670.0 30 27 22 20 11 10 11 6 7 10
710.0 12 14 19 29 39 50 57 59 58 55
750.0 53 49 45 40 41 51 59 61 64 64
790.0 58 59 58 49 46 49 51 45 46 50
830.0 60 74 83 86 88 90 99 112 125 138
870.0 146 158 178 212 253 284 290 270 234 191
910.0 160 138 126 117 113 117 117 119 128 148
950.0 169 191 216 240 268 309 360 413 459 496
990.0 522 544 568 587 601 615 621 618 613 597
1030.0 574 549 525 503 488 484 481 479 483 476
1070.0 457 439 421 405 392 384 381 385 392 404
1110.0 417 424 419 404 382 351 317 295 280 265
1150.0 251 234 218 214 222 230 244 259 271 282
1190.0 292 303 312 316 320 321 323 329 333 343
1230.0 353 362 372 383 396 404 417 430 441 440
1270.0 419 385 348 325 315 311 315 317 313 302
1310.0 287 272 259 252 257 267 283 303 327 347
1350.0 357 360 358 355 367 393 427 462 485 477
1390.0 442 391 346 303 269 245 223 205 200 205
1430.0 232 282 370 513 681 827 894 851 740 606
1470.0 481 370 280 211 162 130 109 95 82 71
1510.0 65 58 52 49 45 40 36 32 29 27
1550.0 23 23 21 20 23 19 19 18 19 17
1590.0 14 13 14 15 17 15 10 10 9 7
1630.0 8 6 7 9 7 6 5 8 7 6
1670.0 5 5 5 3 1 5 7 5 3 5
1710.0 5 2 1 3 5 5 5 3 4 4
1750.0 6 5 3 4 5 4 3 5 6 7
1790.0 4 4 5 5 4 1 2 5 5 6
1830.0 6 3 3 5 5 7 9 7 6 8
1870.0 5 3 3 4 5 4 5 5 4 2
1910.0 1 2 4 6 5 4 5 4 3 4
1950.0 3 4 3 2 1 2 3 3 2 3
1990.0 3 2 2 4 3 3 0 2 5 4
2030.0 6 7 6 6 5 4 3 4 3 4
2070.0 3 3 2 1 3 4 3 2 1 1
2110.0 0 2 2 4 4 2 3 5 8 7
2150.0 4 3 4 6 9 9 7 6 9 9
2190.0 8 9 10 9 7 7 9 10 10 9
2230.0 9 12 12 9 8 7 5 4 5 4
2270.0 4 6 6 5 4 4 5 4 4 6
2310.0 5 2 0 2 4 4 5 9 10 9
2350.0 11 10 11 11 10 8 9 12 13 14
2390.0 14 15 16 15 16 15 14 14 11 14
2430.0 16 15 14 11 11 10 7 5 6 8
2470.0 10 11 12 14 15 16 18 18 16 16
2510.0 15 15 19 20 20 23 22 21 22 21
2550.0 21 21 25 29 34 37 38 39 39 46
2590.0 52 57 58 58 59 61 64 67 68 71
2630.0 75 76 80 86 94 103 112 124 133 139
2670.0 140 137 129 123 117 110 105 103 104 103
2710.0 104 104 101 101 103 103 106 109 115 120
2750.0 120 119 123 130 135 140 152 166 181 196
2790.0 212 231 249 266 286 305 334 372 417 470
2830.0 541 641 797 1036 1407 1951 2667 3409 3895 3976
2870.0 3687 3231 2830 2521 2292 2152 2116 2225 2477 2866
2910.0 3388 4080 5000 6209 7664 9089 10000 9953 8888 7191
2950.0 5442 4146 3425 3101 2903 2607 2161 1631 1170 862
2990.0 669 542 453 385 339 302 271 245 223 200
3030.0 183 169 152 139 127 117 108 99 94 90
3070.0 86 80 77 72 69 68 63 59 58 54
3110.0 54 54 50 48 47 46 47 48 47 46
3150.0 45 41 43 40 35 33 30 28 28 24
3190.0 21 24 26 25 21 14 11 13 13 11
3230.0 10 7 9 14 12 8 10 10 7 3
3270.0 3 5 3 4 5 6 9 6 2 6
3310.0 8 6 3 4 6 8 9 10 11 9
3350.0 8 12 10 11 12 12 14 12 14 16
3390.0 12 14 16 19 19 15 16 20 19 26
3430.0 31 24 16 17 15 17 16 15 15 21
3470.0 19 12 13 13 10 10 10 11 14 10
3510.0 9 8 8 7 9 7 8 11 13 13
3550.0 14 14 11 7 10 10 9 11 10 9
3590.0 11 13 15 22 23 26 35 43 51 62
3630.0 80 102 127 160 198 233 257 266 252 211
3670.0 159 114 80 57 45 37 30 26 27 26
3710.0 21 21 24 25 22 17 14 17 20 19
3750.0 20 18 18 18 16 17 22 23 24 26
3790.0 27 27 25 23 21 21 24 25 25 29
3830.0 31 27 26 28 27
##END=
