##TITLE=Salicylhydrazide
##JCAMP-DX=4.24
##DATA TYPE=INFRARED SPECTRUM
##ORIGIN=EPA-IR VAPOR PHASE LIBRARY
##OWNER=SRD/NIST
Collection (C) 2018 copyright by the U.S. Secretary of Commerce
on behalf of the United States of America. All rights reserved.
##CAS REGISTRY NO=936-02-7
##MOLFORM=C 7 H 8 N 2 O 2
##$NIST SOURCE=MSDC-IR
##STATE=gas
##XUNITS=1/CM
##YUNITS=ABSORBANCE
##XFACTOR=1.
##YFACTOR=0.001
##DELTAX=1.92898
##FIRSTX=549.8
##LASTX=4000.7
##FIRSTY=5.272
##MAXX=4000.7
##MINX=549.759
##MAXY=0.044272
##MINY=0
##NPOINTS=1790
##XYDATA=(X++(Y..Y))
549.759 5.272 5.282 5.242 4.552 4.362 4.502 4.542 4.512 4.282 4.112
569.049 3.752 3.632 3.692 3.622 3.342 3.192 3.222 3.332 3.352 3.312
588.339 3.582 3.862 3.902 3.522 3.372 3.572 3.542 3.452 3.622 3.622
607.628 3.482 3.692 3.782 3.842 3.772 3.532 3.382 3.222 3.482 3.782
626.918 3.502 3.462 3.732 3.672 3.752 3.692 3.382 3.282 3.512 3.552
646.208 3.762 4.012 3.902 4.182 4.662 5.042 5.652 6.482 6.612 6.872
665.498 7.642 8.092 8.442 8.642 8.602 8.252 8.112 8.062 7.832 7.732
684.787 7.712 8.012 8.162 8.322 8.582 8.872 9.482 10.012 9.982 9.732
704.077 9.622 9.482 9.152 8.752 8.462 8.102 7.922 8.112 8.462 8.502
723.367 8.672 9.532 10.592 11.662 13.062 14.672 16.642 18.432 20.062 22.182
742.657 24.662 27.702 30.592 30.932 28.662 25.992 24.002 22.192 20.152 18.022
761.947 15.782 13.712 11.772 10.252 8.852 7.522 6.782 6.332 5.742 5.332
781.236 5.242 5.152 4.852 4.662 4.682 4.742 4.742 4.902 4.982 4.982
800.526 5.062 5.132 5.422 5.522 5.852 6.352 6.662 7.042 7.602 8.022
819.816 8.082 8.042 8.082 8.232 8.192 7.952 7.632 7.022 6.562 6.372
839.106 6.072 5.762 5.762 5.672 5.542 5.512 5.542 5.812 6.062 5.952
858.395 5.592 5.532 5.422 5.382 5.352 5.012 4.862 4.672 4.562 4.502
877.685 4.262 4.172 4.272 4.192 4.072 4.162 4.262 4.492 4.772 4.682
896.975 4.762 5.102 5.522 6.042 6.652 7.402 8.202 9.272 10.352 11.772
916.265 13.442 15.412 17.522 19.242 21.182 23.092 24.652 26.012 26.902 27.082
935.555 26.742 25.902 24.272 22.322 20.342 17.892 15.422 13.182 11.182 9.542
954.844 7.972 6.872 6.212 5.472 4.742 4.442 4.222 3.942 3.772 3.442
974.134 3.542 3.582 3.152 2.982 2.762 2.632 2.762 2.652 2.572 2.552
993.424 2.382 2.252 2.282 2.362 2.072 2.072 2.402 2.272 2.142 2.412
1012.714 2.642 2.892 3.252 3.412 3.532 3.522 3.972 4.532 4.712 4.992
1032.003 4.972 4.672 4.472 4.712 5.072 4.712 3.712 3.162 3.072 2.482
1051.293 1.862 1.922 1.892 2.062 2.372 2.462 2.732 2.582 2.652 3.102
1070.583 3.082 3.172 2.982 2.722 2.672 2.372 2.702 2.942 2.492 2.672
1089.873 2.682 2.042 2.482 2.392 2.132 2.552 2.382 2.222 2.172 2.412
1109.163 2.822 2.732 2.472 2.792 2.752 2.592 2.742 2.922 3.242 3.502
1128.452 3.732 4.182 4.582 4.632 4.922 5.632 6.682 7.612 8.692 9.702
1147.742 10.162 10.052 9.772 9.772 9.682 9.612 9.122 7.902 6.702 6.002
1167.032 5.482 5.182 5.452 5.622 5.802 5.982 5.982 6.312 6.412 6.562
1186.322 6.912 7.192 7.502 7.752 8.282 9.152 10.132 11.322 12.602 14.112
1205.611 15.972 18.242 20.802 22.712 23.952 25.712 26.942 27.392 28.262 28.282
1224.901 27.362 26.222 24.432 22.622 20.912 19.212 17.932 17.202 16.812 17.072
1244.191 17.852 19.102 20.272 21.362 22.812 23.952 24.592 24.902 24.692 24.142
1263.481 23.432 22.412 21.132 19.412 17.602 16.112 14.962 14.102 13.662 13.502
1282.771 13.672 14.392 15.572 16.952 18.882 21.492 24.312 27.242 30.052 32.202
1302.060 33.702 34.712 34.982 34.502 33.262 31.242 28.572 25.462 22.352 19.642
1321.350 17.602 16.192 15.132 14.422 13.852 13.422 13.142 12.992 12.962 12.992
1340.640 13.122 13.382 13.662 13.972 14.412 14.782 15.062 15.262 15.242 15.072
1359.930 14.832 14.462 13.992 13.482 12.852 12.212 11.672 11.152 10.732 10.372
1379.219 10.052 9.802 9.582 9.362 9.202 9.162 9.132 9.042 8.902 8.812
1398.509 8.762 8.642 8.492 8.372 8.362 8.362 8.332 8.372 8.452 8.522
1417.799 8.732 9.082 9.412 9.872 10.492 11.292 12.342 13.632 15.222 17.052
1437.089 19.142 21.442 23.832 26.222 28.472 30.362 31.792 32.742 33.172 33.112
1456.378 32.492 31.362 30.002 28.582 27.372 26.562 26.272 26.372 26.942 27.972
1475.668 29.342 30.992 32.842 34.742 36.492 38.092 39.512 40.762 41.872 42.742
1494.958 43.332 43.542 43.202 42.272 40.882 39.392 37.902 36.412 34.692 32.612
1514.248 30.352 27.962 25.482 23.132 20.872 18.712 16.792 15.122 13.592 12.312
1533.538 11.242 10.292 9.622 9.052 8.622 8.372 8.022 7.652 7.412 7.302
1552.827 7.192 7.042 7.022 7.102 7.162 7.332 7.622 8.072 8.682 9.382
1572.117 10.122 10.872 11.682 12.492 13.282 14.052 14.872 15.822 16.942 18.132
1591.407 19.402 20.822 22.332 24.182 26.262 28.222 29.952 31.202 31.932 32.202
1610.697 32.132 31.922 31.442 30.642 29.622 28.632 28.002 27.822 28.042 28.662
1629.986 29.402 30.062 30.572 30.912 31.172 31.382 31.772 32.152 32.452 32.772
1649.276 33.312 34.252 35.562 37.142 38.932 40.822 42.462 43.702 44.272 44.252
1668.566 43.452 41.982 40.052 37.622 34.542 31.232 27.642 24.202 21.052 18.152
1687.856 15.752 13.622 11.782 10.322 9.162 8.212 7.432 6.692 6.152 5.842
1707.146 5.502 5.212 5.022 4.742 4.502 4.262 4.002 3.802 3.562 3.372
1726.435 3.222 3.022 2.832 2.622 2.492 2.382 2.202 2.112 2.102 2.012
1745.725 1.972 1.952 1.882 1.822 1.752 1.752 1.772 1.832 1.832 1.782
1765.015 1.752 1.782 1.782 1.772 1.872 1.962 1.992 1.992 1.952 2.002
1784.305 2.022 1.982 1.942 1.902 1.842 1.772 1.642 1.462 1.432 1.382
1803.594 1.312 1.322 1.302 1.322 1.382 1.412 1.422 1.432 1.422 1.412
1822.884 1.452 1.452 1.482 1.442 1.372 1.372 1.322 1.232 1.192 1.172
1842.174 1.1541 1.1444 1.1514 1.182 1.192 1.172 1.202 1.192 1.1175 1.1085
1861.464 1.1542 1.1567 1.1474 1.1063 0.9967 0.9729 0.9789 0.9197 0.8422 0.851
1880.754 0.8722 0.8239 0.8595 0.9107 0.9434 0.9513 0.954 1.004 1.0389 1.0683
1900.043 1.1417 1.172 1.161 1.1188 1.0991 1.0661 1.045 1.0034 0.9384 0.9323
1919.333 0.8879 0.8863 0.9479 1.0095 0.9743 0.9587 1.1169 1.262 1.362 1.372
1938.623 1.352 1.422 1.452 1.392 1.282 1.222 1.1298 1.0119 0.8747 0.8032
1957.913 0.7309 0.614 0.5808 0.6147 0.6268 0.6135 0.5824 0.5005 0.4974 0.5721
1977.202 0.6028 0.5415 0.5031 0.5592 0.5683 0.5552 0.5644 0.5493 0.5526 0.5733
1996.492 0.5532 0.5469 0.5453 0.5519 0.5861 0.574 0.5302 0.5484 0.5689 0.5041
2015.782 0.4799 0.444 0.4336 0.4886 0.4714 0.4781 0.491 0.414 0.4586 0.5356
2035.072 0.468 0.409 0.4391 0.4843 0.4733 0.4043 0.4373 0.4925 0.4506 0.5318
2054.362 0.5547 0.4913 0.4361 0.3454 0.3814 0.4354 0.3785 0.4025 0.5257 0.519
2073.651 0.5521 0.5792 0.5413 0.5296 0.4764 0.4391 0.4405 0.5125 0.4403 0.4106
2092.941 0.5441 0.5158 0.4728 0.4685 0.4594 0.4695 0.4914 0.4407 0.3424 0.4128
2112.231 0.4797 0.4655 0.4816 0.5241 0.545 0.5256 0.4752 0.4793 0.5501 0.5403
2131.521 0.5133 0.5021 0.5217 0.4976 0.4547 0.4281 0.3561 0.4333 0.4979 0.4542
2150.810 0.4477 0.4857 0.456 0.372 0.4001 0.4776 0.4919 0.4046 0.3935 0.4657
2170.100 0.4536 0.3814 0.3686 0.3488 0.3358 0.3743 0.3739 0.38 0.3123 0.3383
2189.390 0.4046 0.3735 0.4057 0.4323 0.4088 0.4203 0.3614 0.2782 0.3767 0.4925
2208.680 0.4306 0.3629 0.3742 0.3902 0.4194 0.3911 0.3984 0.4479 0.3726 0.356
2227.970 0.4607 0.5074 0.4649 0.4668 0.4656 0.3871 0.3315 0.3969 0.415 0.3791
2247.259 0.4236 0.4439 0.4534 0.4765 0.4913 0.4455 0.4546 0.5579 0.5249 0.452
2266.549 0.4896 0.585 0.6031 0.5535 0.6256 0.621 0.595 0.6146 0.5626 0.5586
2285.839 0.5936 0.5501 0.5274 0.5737 0.5297 0.5374 0.571 0.4653 0.4197 0.5326
2305.129 0.5773 0.5576 0.5737 0.5382 0.5811 0.627 0.6017 0.5576 0.5572 0.5914
2324.418 0.5837 0.599 0.6173 0.5831 0.6316 0.6951 0.6298 0.6359 0.6535 0.599
2343.708 0.5916 0.6283 0.6035 0.5176 0.5301 0.5427 0.5198 0.6037 0.6063 0.5824
2362.998 0.5848 0.4469 0.418 0.5173 0.5533 0.6002 0.6188 0.5847 0.5325 0.5117
2382.288 0.4801 0.4911 0.5784 0.6441 0.6804 0.6926 0.7043 0.6268 0.5884 0.6251
2401.578 0.5657 0.5459 0.6025 0.5834 0.6046 0.5992 0.5293 0.5349 0.5292 0.6052
2420.867 0.6886 0.7302 0.6297 0.51 0.5702 0.6271 0.6587 0.6283 0.6282 0.6143
2440.157 0.629 0.606 0.556 0.622 0.6708 0.7273 0.709 0.6258 0.6302 0.6917
2459.447 0.7457 0.8013 0.7888 0.7666 0.7698 0.6843 0.6398 0.7499 0.7227 0.6311
2478.737 0.7087 0.7612 0.7604 0.7418 0.7447 0.8017 0.8436 0.8546 0.9097 0.9153
2498.026 0.9401 0.9076 0.9454 1.0128 0.9418 0.8908 0.8388 0.8511 0.879 0.941
2517.316 0.9652 0.9156 0.9145 0.9725 0.9889 1.0215 1.0819 0.984 0.9415 1.0289
2536.606 1.0627 1.0079 0.979 0.9885 0.9619 0.988 1.0504 1.0628 1.0806 1.1603
2555.896 1.17 1.232 1.252 1.192 1.242 1.292 1.242 1.1713 1.1647 1.242
2575.186 1.272 1.202 1.182 1.1687 1.1202 1.1279 1.252 1.192 1.1027 1.1428
2594.475 1.123 1.1641 1.202 1.212 1.163 1.172 1.242 1.212 1.272 1.272
2613.765 1.1589 1.212 1.282 1.312 1.342 1.352 1.322 1.282 1.282 1.292
2633.055 1.282 1.302 1.322 1.402 1.462 1.382 1.302 1.332 1.342 1.272
2652.345 1.232 1.232 1.1547 1.182 1.212 1.147 1.0656 1.0516 1.1643 1.1487
2671.634 1.182 1.182 1.0997 1.222 1.332 1.332 1.272 1.262 1.252 1.182
2690.924 1.282 1.472 1.512 1.492 1.502 1.462 1.552 1.622 1.632 1.552
2710.214 1.472 1.592 1.622 1.572 1.512 1.572 1.642 1.652 1.652 1.672
2729.504 1.652 1.672 1.742 1.682 1.722 1.912 1.922 1.872 2.002 2.022
2748.794 1.882 1.872 1.962 1.942 1.932 2.022 1.962 1.832 1.872 2.062
2768.083 2.062 1.862 1.902 2.022 1.902 1.842 1.882 1.882 1.992 2.012
2787.373 1.962 1.942 1.922 2.012 1.962 1.762 1.812 1.912 1.882 1.932
2806.663 1.972 1.952 1.932 1.862 1.892 1.942 1.992 1.952 1.982 2.012
2825.953 2.022 2.072 2.032 1.972 1.962 2.012 1.932 1.932 2.032 2.102
2845.242 2.122 2.112 2.112 2.092 2.072 1.982 1.942 1.982 1.982 1.992
2864.532 2.102 2.132 2.232 2.232 2.182 2.212 2.222 2.252 2.202 2.112
2883.822 2.132 2.322 2.382 2.292 2.312 2.352 2.342 2.362 2.352 2.362
2903.112 2.392 2.402 2.512 2.542 2.442 2.472 2.472 2.512 2.692 2.772
2922.401 2.702 2.602 2.542 2.542 2.632 2.642 2.572 2.692 2.872 2.742
2941.691 2.632 2.752 2.772 2.772 2.812 2.852 2.842 2.812 2.822 2.832
2960.981 2.962 3.062 3.002 3.002 3.102 3.262 3.272 3.132 3.122 3.292
2980.271 3.542 3.572 3.632 3.682 3.642 3.662 3.742 3.832 3.962 4.142
2999.561 4.202 4.132 4.232 4.482 4.652 4.762 4.872 4.982 5.012 5.132
3018.850 5.342 5.522 5.752 6.062 6.182 6.292 6.622 7.052 7.302 7.452
3038.140 7.722 7.982 8.262 8.562 8.812 9.232 9.602 9.882 10.192 10.532
3057.430 11.042 11.342 11.602 11.982 12.332 12.732 12.912 12.822 12.762 12.832
3076.720 12.722 12.482 12.342 12.092 11.632 11.112 10.822 10.672 10.482 10.042
3096.009 9.742 9.742 9.442 9.242 9.172 8.912 8.722 8.682 8.652 8.582
3115.299 8.352 8.182 8.202 8.092 8.042 7.882 7.802 7.922 7.932 7.892
3134.589 7.902 7.822 7.742 7.862 7.812 7.672 7.722 7.862 7.892 7.812
3153.879 7.772 7.762 7.792 7.782 7.702 7.732 7.762 7.822 7.882 7.802
3173.169 7.672 7.712 7.892 7.982 7.912 7.842 7.882 7.942 7.822 7.742
3192.458 7.842 7.892 7.992 7.902 7.752 7.832 7.812 7.822 7.832 7.742
3211.748 7.852 7.762 7.512 7.452 7.512 7.462 7.312 7.242 7.112 7.102
3231.038 6.972 6.872 7.102 7.152 6.992 6.952 7.122 7.112 6.902 6.862
3250.328 6.902 6.762 6.752 6.932 6.992 6.782 6.682 6.802 6.882 6.912
3269.617 6.732 6.642 6.682 6.662 6.672 6.572 6.582 6.632 6.542 6.592
3288.907 6.602 6.462 6.412 6.452 6.352 6.292 6.262 6.312 6.302 6.102
3308.197 6.092 6.092 5.952 6.042 6.042 5.862 5.762 5.782 5.862 5.782
3327.487 5.672 5.662 5.662 5.622 5.602 5.622 5.572 5.542 5.642 5.642
3346.777 5.562 5.492 5.602 5.642 5.432 5.392 5.312 5.212 5.062 5.012
3366.066 5.042 4.912 4.582 4.512 4.582 4.412 4.472 4.462 4.342 4.262
3385.356 4.142 4.142 4.182 4.132 4.062 4.172 4.212 4.092 3.962 3.852
3404.646 3.892 3.852 3.762 3.812 3.722 3.732 3.862 3.842 3.842 3.782
3423.936 3.642 3.662 3.822 3.882 3.742 3.732 3.872 3.912 3.842 3.822
3443.225 3.872 3.852 3.682 3.682 3.882 4.102 4.412 4.682 4.962 5.282
3462.515 5.582 5.952 6.632 7.312 7.872 8.352 8.922 9.602 10.122 10.532
3481.805 10.762 10.792 10.652 10.512 10.312 9.922 9.282 8.482 7.752 6.942
3501.095 6.212 5.612 4.852 4.322 3.962 3.492 3.042 2.802 2.752 2.572
3520.385 2.442 2.422 2.452 2.372 2.222 2.142 2.042 1.982 1.922 1.832
3539.674 1.602 1.482 1.342 1.242 1.252 1.302 1.292 1.1013 1.1562 1.212
3558.964 1.0561 1.0882 1.172 1.242 1.192 0.9448 0.8179 0.866 0.9767 1.0727
3578.254 1.0501 1.0427 1.0907 0.988 0.8902 0.7936 0.7055 0.8226 0.9193 0.8048
3597.544 0.7379 0.7562 0.7141 0.6818 0.5453 0.5111 0.6672 0.6954 0.5949 0.5693
3616.833 0.5633 0.4137 0.5672 0.8124 0.8035 0.7309 0.6197 0.538 0.6303 0.8056
3636.123 0.8693 0.7944 0.7242 0.8743 0.9016 0.7872 0.6825 0.6272 0.6223 0.7244
3655.413 0.7985 0.6367 0.4184 0.3488 0.5459 0.7581 0.6482 0.3419 0.4077 0.4144
3674.703 0.25924 0.5396 0.713 0.4722 0.3983 0.4479 0.3442 0.38 0.4929 0.4029
3693.993 0.3897 0.2952 0.19213 0.4208 0.4043 0.180019 0.285 0.3117 0.1183 0.17867
3713.282 0.4447 0.429 0.2999 0.3195 0.19076 0.1587 0.1746 0.2652 0.3667 0.3293
3732.572 0.4822 0.444 0.2986 0.3206 0.303 0.3784 0.4107 0.3732 0.2803 0.178745
3751.862 0.20262 0.1295 0.2743 0.3355 0.1081 0.178762 0.3754 0.3814 0.19468 0.1552
3771.152 0.3267 0.4708 0.5155 0.51 0.3601 0.3246 0.3205 0.3198 0.4275 0.24403
3790.441 0.20718 0.3961 0.3513 0.3239 0.4422 0.42 0.3641 0.4633 0.4312 0.3777
3809.731 0.4451 0.5056 0.4168 0.1964 0.174418 0.3045 0.4236 0.26931 0.1068 0.23019
3829.021 0.4224 0.3857 0.3049 0.3981 0.3186 0.3066 0.4337 0.3431 0.3705 0.4472
3848.311 0.25832 0.1321 0.2753 0.2569 0.20716 0.2047 0.1667 0.3196 0.3405 0.24358
3867.601 0.3629 0.4729 0.553 0.5185 0.4024 0.416 0.3674 0.2935 0.3148 0.3736
3886.890 0.335 0.4244 0.4576 0.21667 0.21734 0.4199 0.4988 0.3536 0.3289 0.4381
3906.180 0.4751 0.4163 0.3564 0.23264 0.1176 0.21246 0.24032 0.1033 0.1161 0.3144
3925.470 0.19955 0.21873 0.4407 0.3089 0.20869 0.176493 0.1434 0.3927 0.3873 0.23978
3944.760 0.23563 0.1102 0.188 0.3369 0.4366 0.5301 0.3373 0.173098 0.25094 0.3827
3964.049 0.293 0.20467 0.24334 0.2915 0.23598 0.3067 0.306 0.302 0.4173 0.2775
3983.339 0.1522 0.1256 0 0.24432 0.3857 0.1126 0.1559 0.3725 0.452 0.3834
##END=
