##TITLE=o-Allyloxytoluene
##JCAMP-DX=4.24
##DATA TYPE=INFRARED SPECTRUM
##ORIGIN=EPA-IR VAPOR PHASE LIBRARY
##OWNER=SRD/NIST
Collection (C) 2018 copyright by the U.S. Secretary of Commerce
on behalf of the United States of America. All rights reserved.
##CAS REGISTRY NO=936-72-1
##MOLFORM=C 10 H 12 O
##$NIST SOURCE=MSDC-IR
##STATE=gas
##XUNITS=1/CM
##YUNITS=ABSORBANCE
##XFACTOR=1.
##YFACTOR=0.001
##DELTAX=1.92898
##FIRSTX=549.8
##LASTX=4000.7
##FIRSTY=1.528
##MAXX=4000.7
##MINX=549.759
##MAXY=0.063218
##MINY=0
##NPOINTS=1790
##XYDATA=(X++(Y..Y))
549.759 1.528 1.448 1.2668 1.408 1.448 1.388 1.428 1.538 1.698 1.538
569.049 1.368 1.548 1.558 1.478 1.448 1.478 1.598 1.658 1.598 1.398
588.339 1.468 1.548 1.428 1.388 1.2766 1.418 1.508 1.448 1.428 1.368
607.628 1.508 1.418 1.1366 1.2142 1.398 1.488 1.508 1.378 1.418 1.508
626.918 1.518 1.378 1.408 1.718 1.698 1.468 1.478 1.678 1.638 1.438
646.208 1.468 1.458 1.448 1.368 1.348 1.428 1.348 1.2574 1.318 1.308
665.498 1.0734 1.0366 0.9829 1.0769 1.338 1.308 1.378 1.368 1.2059 1.2624
684.787 1.458 1.598 1.688 1.728 1.638 1.978 2.638 3.078 3.318 3.718
704.077 4.498 5.138 5.768 6.708 7.518 7.738 7.578 7.528 7.498 7.458
723.367 7.738 8.178 8.548 9.078 10.078 11.398 12.908 14.568 16.188 18.078
742.657 19.958 21.568 23.048 23.478 22.548 21.338 19.918 18.138 16.508 14.808
761.947 12.948 11.128 9.408 8.168 7.198 6.008 4.838 4.098 3.578 3.088
781.236 2.658 2.238 1.818 1.718 1.878 1.818 1.528 1.318 1.2769 1.2141
800.526 1.368 1.518 1.598 1.678 1.718 1.898 1.968 1.998 2.108 2.058
819.816 2.138 2.338 2.538 2.818 2.818 2.738 3.048 3.318 3.368 3.528
839.106 3.568 3.518 3.608 3.398 2.978 2.858 2.688 2.218 1.998 2.078
858.395 2.138 2.118 2.148 2.088 1.868 1.838 1.938 1.948 1.908 1.858
877.685 2.038 2.038 2.188 2.508 2.668 2.708 2.678 2.948 3.178 3.228
896.975 3.568 4.088 4.408 4.698 4.868 5.368 6.138 6.918 7.828 8.988
916.265 10.268 11.508 12.508 13.328 14.098 14.488 14.458 14.028 13.248 12.158
935.555 11.198 10.228 9.228 8.488 7.838 7.148 6.688 6.488 6.268 6.188
954.844 6.008 6.078 6.268 6.178 6.288 6.618 6.888 7.278 7.748 8.118
974.134 8.768 9.538 10.158 10.888 11.788 12.748 13.858 15.088 16.218 17.408
993.424 18.748 19.838 20.738 21.458 21.958 22.558 23.078 23.348 23.518 23.498
1012.714 23.278 23.368 23.208 22.708 22.498 22.278 21.608 20.858 20.368 19.818
1032.003 19.138 18.488 18.168 17.998 17.918 17.698 17.058 16.508 15.828 14.678
1051.293 13.558 12.478 10.948 9.238 7.918 6.708 5.848 5.318 4.778 4.288
1070.583 4.078 3.988 3.818 3.838 3.868 3.978 3.858 3.568 3.938 4.538
1089.873 4.238 3.978 4.178 4.278 4.528 5.428 6.678 7.958 9.148 10.428
1109.163 12.698 15.388 17.818 20.068 22.088 22.828 22.868 22.798 21.958 20.138
1128.452 17.868 15.638 13.508 11.518 9.698 8.718 7.928 6.898 6.058 5.628
1147.742 5.288 5.138 5.358 5.448 5.128 4.758 4.698 4.878 5.218 5.318
1167.032 5.558 6.238 7.238 8.468 9.848 11.608 13.268 15.198 17.378 18.998
1186.322 20.178 20.878 21.108 20.258 19.078 18.258 17.158 15.638 13.928 13.358
1205.611 13.788 14.878 16.828 19.578 23.478 27.968 32.458 36.968 41.418 45.808
1224.901 49.828 53.398 56.678 59.408 61.568 63.098 63.218 62.068 60.078 56.948
1244.191 53.038 48.498 42.868 36.608 30.688 25.808 22.068 19.478 17.828 16.668
1263.481 15.658 14.848 14.008 13.278 12.728 12.118 11.918 11.818 11.628 11.658
1282.771 11.768 11.898 11.998 11.988 12.028 12.028 11.808 11.438 11.048 10.658
1302.060 10.178 9.678 9.198 8.618 7.958 7.268 6.608 5.948 5.388 4.968
1321.350 4.558 4.198 3.878 3.578 3.388 3.278 3.188 3.168 3.138 3.098
1340.640 3.148 3.268 3.438 3.618 3.888 4.218 4.528 4.918 5.238 5.438
1359.930 5.628 5.808 5.918 5.918 5.838 5.678 5.448 5.348 5.258 5.108
1379.219 4.978 4.818 4.638 4.518 4.418 4.208 3.938 3.778 3.668 3.608
1398.509 3.658 3.758 3.928 4.248 4.608 5.068 5.628 6.308 7.058 7.908
1417.799 8.748 9.368 9.778 10.038 10.178 10.288 10.448 10.558 10.578 10.638
1437.089 10.858 11.278 11.998 12.848 13.608 14.288 14.888 15.418 15.868 16.098
1456.378 16.138 16.058 15.808 15.368 14.878 14.548 14.348 14.238 14.518 15.218
1475.668 16.448 18.458 21.228 24.718 28.568 32.378 35.698 38.108 39.488 39.748
1494.958 39.058 37.308 34.458 30.668 26.368 22.208 18.328 15.248 12.878 10.928
1514.248 9.438 8.178 7.108 6.278 5.638 5.148 4.668 4.278 4.048 3.818
1533.538 3.558 3.448 3.398 3.318 3.198 3.108 3.048 3.048 3.098 3.118
1552.827 3.078 3.038 3.088 3.178 3.258 3.388 3.688 4.038 4.508 5.178
1572.117 5.868 6.698 7.648 8.628 9.718 10.808 11.788 12.608 13.258 13.888
1591.407 14.368 14.678 14.738 14.498 14.098 13.448 12.478 11.428 10.348 9.128
1610.697 7.838 6.658 5.568 4.578 3.788 3.328 2.998 2.718 2.568 2.498
1629.986 2.488 2.528 2.678 2.848 2.878 2.998 3.098 3.128 3.168 3.198
1649.276 3.178 3.078 2.978 2.808 2.578 2.368 2.188 2.088 1.978 1.858
1668.566 1.818 1.768 1.738 1.668 1.618 1.598 1.498 1.538 1.538 1.398
1687.856 1.328 1.2462 1.2074 1.2232 1.2186 1.1888 1.1124 1.0519 1.0691 1.0181
1707.146 0.9443 0.9634 1.0238 1.0154 0.9663 1.0224 1.0498 0.9662 0.9581 0.9333
1726.435 0.8501 0.8222 0.8318 0.8284 0.868 0.8987 0.8314 0.9121 1.0079 1.0485
1745.725 1.166 1.2466 1.2176 1.2074 1.2209 1.2557 1.338 1.348 1.318 1.2452
1765.015 1.186 1.1699 1.1245 1.1033 1.0713 1.0865 1.0813 1.0349 0.979 0.9968
1784.305 1.0463 1.0354 1.0802 1.0791 1.0466 1.069 1.1168 1.1017 1.0834 1.0783
1803.594 1.0832 1.0835 1.0994 1.0844 0.9847 0.9321 0.9407 0.9259 0.9397 1.0135
1822.884 1.0377 1.017 1.0591 1.1261 1.1383 1.1792 1.2329 1.243 1.2757 1.378
1842.174 1.518 1.628 1.748 1.868 1.928 1.958 1.998 2.018 2.008 1.968
1861.464 1.918 1.908 1.878 1.818 1.788 1.808 1.828 1.858 1.888 1.888
1880.754 1.868 1.868 1.778 1.698 1.648 1.568 1.488 1.338 1.2467 1.241
1900.043 1.2179 1.1482 1.1568 1.1907 1.1713 1.1755 1.2443 1.348 1.448 1.468
1919.333 1.498 1.508 1.418 1.408 1.428 1.398 1.2944 1.2304 1.1612 1.0699
1938.623 1.0259 0.9511 0.9272 0.9367 0.9307 0.9473 0.9791 0.9507 0.932 1.0041
1957.913 1.0091 0.9389 0.9673 1.013 1.0087 1.0263 1.0229 1.009 0.9972 0.9949
1977.202 1.0034 1.0206 1.0466 0.9713 0.9121 0.9506 0.9955 1.0658 1.0624 1.0194
1996.492 1.0608 1.0992 1.1027 1.0921 1.0591 1.09 1.1593 1.1301 1.0696 1.0621
2015.782 1.0248 0.9564 0.9137 0.8929 0.9542 1.0087 0.9948 1.0056 1.0187 1.0085
2035.072 1.0199 1.0356 0.9976 0.9621 0.9537 1.0042 1.0782 1.0181 0.9488 0.9668
2054.362 0.9992 1.0091 0.9729 0.9106 0.9167 0.9439 0.9456 1.0334 1.0456 1.0145
2073.651 1.0046 1.0009 1.0181 0.9845 0.9437 0.8618 0.7864 0.7697 0.7529 0.7605
2092.941 0.7206 0.669 0.6359 0.5775 0.6002 0.5892 0.5448 0.5327 0.5377 0.5412
2112.231 0.5533 0.5684 0.5998 0.6668 0.6952 0.6679 0.5964 0.5496 0.563 0.5606
2131.521 0.5487 0.5777 0.6044 0.5993 0.5921 0.5773 0.5131 0.4341 0.4715 0.4825
2150.810 0.5106 0.5804 0.5382 0.4777 0.4397 0.4547 0.439 0.464 0.4828 0.39114
2170.100 0.3689 0.38976 0.37732 0.4167 0.5103 0.5215 0.5214 0.5114 0.4907 0.5288
2189.390 0.5314 0.5307 0.5066 0.5012 0.5665 0.5885 0.5293 0.5398 0.5076 0.4192
2208.680 0.4345 0.5163 0.5684 0.5667 0.5671 0.6093 0.6009 0.534 0.5694 0.6077
2227.970 0.5825 0.5498 0.5538 0.578 0.5681 0.608 0.5786 0.5312 0.5848 0.6087
2247.259 0.5917 0.5521 0.5496 0.4976 0.5348 0.5942 0.544 0.5007 0.4984 0.5387
2266.549 0.5675 0.5735 0.5429 0.5709 0.6434 0.6528 0.608 0.5242 0.4491 0.4358
2285.839 0.4702 0.4921 0.4714 0.5239 0.5365 0.4627 0.4477 0.4796 0.5031 0.4785
2305.129 0.4558 0.4718 0.5162 0.5433 0.5592 0.5973 0.6151 0.653 0.637 0.6125
2324.418 0.6262 0.6529 0.6297 0.6104 0.5748 0.579 0.6261 0.5793 0.5304 0.5622
2343.708 0.6261 0.5729 0.5442 0.5779 0.5516 0.5241 0.4769 0.447 0.5287 0.5759
2362.998 0.5692 0.5198 0.4631 0.5063 0.4593 0.4283 0.4648 0.38415 0.412 0.5067
2382.288 0.5449 0.5654 0.4765 0.4582 0.5699 0.6284 0.6053 0.5663 0.5919 0.6153
2401.578 0.5973 0.6412 0.6777 0.6356 0.6778 0.7107 0.6664 0.7422 0.8471 0.8208
2420.867 0.7561 0.7362 0.6244 0.5916 0.7086 0.7676 0.8162 0.8468 0.8386 0.807
2440.157 0.7793 0.8049 0.8152 0.789 0.7432 0.714 0.7103 0.7486 0.8047 0.8223
2459.447 0.8197 0.8225 0.7915 0.7341 0.7641 0.7816 0.8275 0.8548 0.8741 0.8588
2478.737 0.7594 0.7526 0.7535 0.7373 0.7405 0.708 0.6246 0.5752 0.5398 0.5157
2498.026 0.5635 0.4707 0.37323 0.4394 0.4642 0.5094 0.556 0.5528 0.6122 0.57
2517.316 0.5418 0.6228 0.5715 0.4931 0.5753 0.6486 0.6941 0.6884 0.6398 0.6919
2536.606 0.7069 0.6522 0.6491 0.6488 0.6337 0.6634 0.6289 0.6178 0.6766 0.6132
2555.896 0.5586 0.6585 0.779 0.7469 0.6619 0.6957 0.7647 0.7906 0.7495 0.7026
2575.186 0.6256 0.5834 0.6623 0.6972 0.7407 0.7436 0.692 0.7168 0.7309 0.6394
2594.475 0.5846 0.6053 0.5772 0.5671 0.6016 0.6131 0.6076 0.6262 0.5959 0.4389
2613.765 0.37825 0.38818 0.335 0.38874 0.4621 0.4572 0.34907 0.3554 0.424 0.4103
2633.055 0.33591 0.30535 0.32759 0.2721 0.30281 0.36914 0.38849 0.3768 0.36325 0.34546
2652.345 0.33977 0.37829 0.35464 0.39652 0.4472 0.4505 0.5344 0.577 0.4982 0.4547
2671.634 0.4468 0.39525 0.38794 0.37008 0.4423 0.5103 0.4925 0.425 0.37772 0.428
2690.924 0.4504 0.4862 0.5415 0.5798 0.592 0.6237 0.719 0.7831 0.7283 0.6643
2710.214 0.6618 0.7005 0.6525 0.6343 0.6883 0.7161 0.8051 0.8808 0.8671 0.8251
2729.504 0.8087 0.8199 0.8861 0.9655 1.0815 1.1554 1.1431 1.0305 0.8945 0.8272
2748.794 0.828 0.8098 0.8504 0.8673 0.7822 0.7392 0.6808 0.7073 0.7277 0.6077
2768.083 0.5741 0.6189 0.7188 0.7935 0.7787 0.7596 0.8044 0.8879 0.8253 0.9149
2787.373 0.9623 0.8812 0.9819 1.0159 0.9885 1.001 0.9776 1.0129 1.1095 1.181
2806.663 1.2304 1.328 1.338 1.3066 1.478 1.628 1.668 1.678 1.748 1.738
2825.953 1.848 2.058 2.208 2.358 2.488 2.608 2.718 2.958 3.138 3.358
2845.242 3.698 4.018 4.308 4.588 4.958 5.338 5.918 6.508 6.948 7.448
2864.532 8.018 8.458 8.738 9.018 9.228 9.478 9.638 9.808 9.868 9.758
2883.822 9.738 9.688 9.588 9.358 9.128 9.048 8.948 8.918 9.028 9.038
2903.112 9.128 9.228 9.318 9.488 9.808 10.218 10.538 10.878 11.298 11.758
2922.401 12.198 12.658 13.098 13.538 13.928 14.198 14.258 14.188 14.118 13.958
2941.691 13.678 13.178 12.698 12.328 11.908 11.408 10.938 10.558 10.138 9.728
2960.981 9.318 8.938 8.688 8.518 8.368 8.098 7.868 7.788 7.828 7.878
2980.271 7.918 7.978 7.918 7.758 7.758 7.748 7.518 7.248 7.098 6.908
2999.561 6.658 6.618 6.558 6.428 6.628 7.128 7.638 8.098 8.708 9.628
3018.850 10.588 11.308 11.988 12.628 12.988 13.168 13.148 12.918 12.618 12.188
3038.140 11.508 10.858 10.268 9.678 9.458 9.308 9.078 9.078 9.388 9.708
3057.430 10.028 10.438 10.808 11.328 11.828 12.248 12.758 13.248 13.578 13.858
3076.720 13.988 13.818 13.568 13.248 12.928 12.458 11.828 11.148 10.428 9.648
3096.009 9.018 8.528 7.988 7.288 6.458 5.698 5.188 4.768 4.278 3.918
3115.299 3.438 2.948 2.508 2.158 1.958 1.928 1.828 1.628 1.468 1.1854
3134.589 1.1126 1.0892 1.0189 1.0791 1.0494 0.9643 0.8823 0.8299 0.8241 0.7919
3153.879 0.7138 0.6361 0.6562 0.6685 0.7409 0.795 0.7863 0.775 0.7544 0.5948
3173.169 0.5048 0.6544 0.6666 0.5543 0.5908 0.6441 0.6016 0.6014 0.656 0.6583
3192.458 0.4872 0.4677 0.5158 0.4736 0.37376 0.38589 0.5487 0.524 0.4231 0.283
3211.748 0.118 0.192 0.3035 0.252 0.2844 0.315638 0.25 0.2647 0.161 0.141
3231.038 0.241 0.32053 0.39597 0.36849 0.29 0.2341 0.2575 0.182 0.087 0.158
3250.328 0.2281 0.231 0.2781 0.161 0.028 0.2171 0.2549 0.159 0.107 0.17
3269.617 0.30336 0.201 0.204 0.257 0.2729 0.312646 0.2337 0.2501 0.2161 0.2953
3288.907 0.34284 0.2185 0.19 0.209 0.2607 0.2687 0.35527 0.30608 0.2719 0.30497
3308.197 0.2592 0.215 0.194 0.133 0.181 0.2873 0.32681 0.316571 0.2295 0.191
3327.487 0.194 0.12 0.106 0.2884 0.38819 0.2827 0.2451 0.2195 0.2493 0.229
3346.777 0.087 0.2532 0.312426 0.2384 0.205 0.055 0.166 0.3895 0.32346 0.2742
3366.066 0.2283 0.217 0.195 0.146 0.2941 0.32287 0.2324 0.2513 0.2368 0.29959
3385.356 0.34063 0.2462 0.2185 0.171 0.168 0.2812 0.204 0.068 0.142 0.115
3404.646 0.15 0.2524 0.32574 0.37632 0.2106 0.2146 0.34309 0.2253 0.2155 0.2882
3423.936 0.4084 0.4526 0.313739 0.183 0.066 0.073 0.2327 0.38806 0.4241 0.2861
3443.225 0.2154 0.2696 0.2357 0.153 0.146 0.223 0.2947 0.32291 0.35907 0.2713
3462.515 0.208 0.2906 0.309674 0.2611 0.195 0.203 0.2748 0.206 0.095 0.108
3481.805 0.105 0.196 0.152 0.113 0.2414 0.37081 0.3802 0.34337 0.36557 0.2806
3501.095 0.2881 0.2673 0.123 0.198 0.30122 0.35732 0.315999 0.2151 0.165 0.2524
3520.385 0.37778 0.29822 0.30135 0.3062 0.2796 0.36358 0.4174 0.39081 0.2835 0.199
3539.674 0.2266 0.194 0.138 0.118 0.2424 0.2268 0.174 0.191 0.145 0.2711
3558.964 0.2276 0.2597 0.315621 0.2138 0.2499 0.2566 0.133 0.2221 0.39357 0.38661
3578.254 0.36462 0.40301 0.4482 0.39791 0.317569 0.30001 0.34602 0.2367 0.2219 0.35147
3597.544 0.32592 0.3033 0.31601 0.294 0.207 0.146 0.2945 0.32658 0.205 0.2711
3616.833 0.4709 0.4169 0.2432 0.35229 0.39776 0.2401 0.155 0.194 0.2905 0.3352
3636.123 0.2838 0.36408 0.35263 0.29886 0.3363 0.33683 0.310681 0.314428 0.2313 0.2176
3655.413 0.33514 0.3383 0.2863 0.175 0.103 0.2493 0.4391 0.431 0.4084 0.37796
3674.703 0.2422 0.2528 0.3968 0.30209 0.2386 0.2845 0.34254 0.37164 0.2539 0.2157
3693.993 0.2621 0.30181 0.2873 0.2846 0.196 0.091 0.077 0.101 0.138 0.226
3713.282 0.4215 0.38132 0.2674 0.2339 0.189 0.310318 0.33683 0.32096 0.2878 0.166
3732.572 0.113 0.142 0.085 0.061 0.138 0.205 0.2666 0.36156 0.4193 0.3894
3751.862 0.33352 0.312027 0.38654 0.2118 0.094 0.077 0.096 0.2978 0.2947 0.19
3771.152 0.186 0.2195 0.2242 0.2223 0.2788 0.2141 0.165 0.132 0.12 0.37509
3790.441 0.4348 0.4355 0.4636 0.381 0.33911 0.273 0.203 0.149 0.2609 0.312737
3809.731 0.308339 0.31986 0.3501 0.309293 0.2393 0.29 0.33721 0.3554 0.4568 0.552
3829.021 0.4503 0.4238 0.32847 0.108 0.029 0.114 0.2917 0.37283 0.2951 0.219
3848.311 0.2582 0.4443 0.4809 0.38462 0.35979 0.155 0 0.103 0.2901 0.4135
3867.601 0.4879 0.4689 0.30176 0.33513 0.4889 0.4214 0.32007 0.2184 0.35105 0.5489
3886.890 0.425 0.38943 0.5444 0.4436 0.2394 0.34211 0.40778 0.4333 0.517 0.4304
3906.180 0.3424 0.39912 0.5487 0.4739 0.38255 0.4491 0.310812 0.198 0.2259 0.284
3925.470 0.31554 0.2254 0.2579 0.2677 0.31017 0.4313 0.4762 0.4992 0.4137 0.39644
3944.760 0.313492 0.3448 0.4733 0.38879 0.33853 0.4446 0.4497 0.35968 0.311086 0.2351
3964.049 0.143 0.14 0.165 0.091 0.2192 0.40679 0.5445 0.6512 0.56 0.4158
3983.339 0.2368 0.33297 0.4766 0.4474 0.4679 0.36083 0.2553 0.33675 0.4122 0.292
##END=
