##TITLE=3-Acetoxybenzofuran
##JCAMP-DX=4.24
##DATA TYPE=INFRARED SPECTRUM
##ORIGIN=EPA-IR VAPOR PHASE LIBRARY
##OWNER=SRD/NIST
Collection (C) 2018 copyright by the U.S. Secretary of Commerce
on behalf of the United States of America. All rights reserved.
##CAS REGISTRY NO=93680-80-9
##MOLFORM=C 10 H 8 O 3
##$NIST SOURCE=MSDC-IR
##STATE=gas
##XUNITS=1/CM
##YUNITS=ABSORBANCE
##XFACTOR=1.
##YFACTOR=0.001
##DELTAX=1.92898
##FIRSTX=549.8
##LASTX=4000.7
##FIRSTY=9.048
##MAXX=4000.7
##MINX=549.759
##MAXY=0.277528
##MINY=0
##NPOINTS=1790
##XYDATA=(X++(Y..Y))
549.759 9.048 7.668 6.738 7.368 7.498 7.338 7.648 7.798 8.088 8.198
569.049 7.378 6.578 5.898 5.138 5.088 4.818 4.608 4.848 5.688 6.388
588.339 6.178 5.458 5.938 6.958 6.988 6.478 6.008 5.968 5.638 5.358
607.628 5.168 4.318 3.828 3.988 4.028 3.838 3.528 3.738 3.918 3.718
626.918 3.628 3.998 3.738 3.248 3.878 4.538 5.208 6.038 6.978 7.438
646.208 7.378 7.458 7.308 7.308 6.918 5.718 4.638 3.738 2.878 2.448
665.498 2.188 2.008 2.458 2.608 2.328 2.208 2.078 2.068 2.138 2.178
684.787 2.058 2.298 2.418 2.668 2.218 1.968 2.278 2.308 2.358 2.298
704.077 2.898 3.358 3.448 3.758 4.228 4.588 5.518 7.438 9.548 12.448
723.367 17.098 23.198 30.638 39.778 49.658 59.848 70.448 81.928 96.168 109.938
742.657 107.248 88.938 75.348 66.958 57.828 48.228 38.078 29.438 23.378 18.878
761.947 15.728 13.828 12.668 11.828 11.698 12.108 12.558 13.048 13.728 14.658
781.236 15.548 15.938 15.118 14.118 13.778 12.948 11.578 10.638 9.638 8.668
800.526 7.608 6.538 6.048 5.398 4.738 4.488 4.468 4.428 4.118 3.428
819.816 2.958 3.588 3.968 4.088 4.408 4.828 5.178 5.218 5.648 6.598
839.106 7.888 9.538 11.538 13.598 15.838 18.048 19.418 19.828 19.608 19.428
858.395 19.868 19.658 18.538 16.468 14.818 14.258 14.388 15.568 17.308 19.078
877.685 21.648 24.698 27.428 29.838 31.058 31.548 31.238 29.358 26.458 23.458
896.975 20.258 16.528 13.298 10.988 9.098 7.748 6.818 5.958 5.548 5.438
916.265 5.188 4.978 4.918 4.878 4.808 4.598 4.328 4.648 4.848 4.158
935.555 3.528 3.028 2.978 3.338 3.308 3.258 3.158 2.848 2.828 3.108
954.844 3.248 3.768 4.438 4.888 4.778 4.828 4.888 4.928 5.168 5.398
974.134 6.008 6.918 7.768 8.048 7.968 7.998 8.758 9.898 10.958 11.768
993.424 12.608 14.268 16.188 19.128 22.208 24.348 25.428 25.928 25.918 24.268
1012.714 22.678 19.948 16.388 13.758 11.058 9.188 8.398 7.448 7.068 7.258
1032.003 7.398 7.348 7.118 6.748 6.848 7.338 7.428 7.868 8.778 9.078
1051.293 8.978 8.938 9.688 11.298 12.288 12.748 13.578 15.578 18.518 21.038
1070.583 23.818 27.018 29.938 33.788 38.188 43.578 48.078 51.298 56.108 61.958
1089.873 68.358 76.198 84.658 91.138 94.408 95.388 95.188 90.868 83.058 74.048
1109.163 65.198 60.538 59.578 59.828 61.258 64.008 66.568 68.378 68.358 64.198
1128.452 56.198 49.958 44.388 36.368 28.458 23.338 21.058 20.838 21.038 20.338
1147.742 21.078 22.978 24.678 27.238 31.478 35.548 39.298 43.718 48.938 54.848
1167.032 62.128 71.638 84.688 101.238 121.758 148.038 178.398 209.768 237.818 257.908
1186.322 270.878 277.468 277.528 270.598 259.378 250.088 243.858 238.498 237.858 242.908
1205.611 248.488 254.348 257.448 257.948 251.068 239.978 227.728 211.988 197.258 178.208
1224.901 156.228 134.218 111.848 92.658 76.738 63.628 54.158 47.428 41.608 36.468
1244.191 32.908 29.588 26.208 23.518 21.748 20.758 20.198 19.528 19.188 18.928
1263.481 18.868 20.108 21.998 23.348 24.928 26.928 27.758 28.038 27.938 27.178
1282.771 26.578 25.648 23.188 19.828 16.798 14.378 12.248 10.678 9.708 9.028
1302.060 8.578 8.488 8.518 8.968 9.598 10.028 10.328 10.778 11.428 12.108
1321.350 12.858 13.308 13.908 14.788 15.768 17.118 18.768 21.048 23.818 26.768
1340.640 29.798 32.758 35.738 38.998 42.938 47.248 51.598 55.888 59.968 63.688
1359.930 66.428 67.928 68.558 68.148 66.348 63.198 58.898 54.558 50.678 46.878
1379.219 42.618 37.848 32.808 27.888 23.318 19.478 16.588 14.478 12.958 11.668
1398.509 10.748 9.958 9.398 9.008 8.658 8.678 8.638 8.608 8.818 8.928
1417.799 9.078 9.278 9.428 9.838 10.408 10.938 11.718 12.888 14.138 15.698
1437.089 17.998 20.798 24.448 29.238 34.868 40.708 45.728 48.818 49.438 48.458
1456.378 46.898 44.128 39.198 32.038 24.528 18.628 14.898 12.638 11.178 10.278
1475.668 9.658 9.068 8.688 8.328 8.118 7.958 7.608 7.298 6.878 6.668
1494.958 6.558 6.498 6.578 6.628 6.638 6.638 6.628 6.508 6.258 6.228
1514.248 6.478 6.698 6.838 6.948 7.248 7.528 7.558 7.688 8.008 8.158
1533.538 8.378 8.608 8.738 9.118 9.568 9.998 10.138 10.148 10.648 11.258
1552.827 11.858 12.498 13.028 13.608 14.318 15.528 17.248 19.428 22.088 25.138
1572.117 28.628 31.598 33.408 34.208 34.088 32.718 30.198 26.918 23.338 20.058
1591.407 17.508 15.688 14.558 13.898 13.718 13.848 13.758 13.788 14.088 14.458
1610.697 14.878 15.208 15.378 15.428 15.108 14.388 13.548 12.758 11.608 10.258
1629.986 9.098 8.038 7.438 6.978 6.188 5.778 5.698 5.578 5.428 5.248
1649.276 5.208 5.278 5.288 5.488 5.828 5.808 5.798 5.978 6.288 6.398
1668.566 6.368 6.458 6.308 5.858 5.538 5.428 5.298 5.198 5.028 4.838
1687.856 4.868 4.928 4.768 4.738 4.748 4.558 4.618 4.838 4.818 4.898
1707.146 5.178 5.608 5.938 6.038 6.308 6.708 7.218 7.808 8.208 8.678
1726.435 9.078 9.408 10.238 11.188 12.108 13.008 14.068 15.288 16.608 18.308
1745.725 20.218 22.098 24.018 26.178 28.458 30.818 33.458 36.228 39.178 42.358
1765.015 45.628 49.008 52.628 56.398 60.558 65.378 70.908 77.638 85.548 93.848
1784.305 102.068 109.138 114.078 117.078 118.558 118.518 116.118 110.478 102.058 92.488
1803.594 83.248 74.648 66.928 59.868 53.028 46.738 41.078 35.858 31.278 27.448
1822.884 24.078 21.268 18.918 16.868 14.958 13.308 11.818 10.648 9.718 8.848
1842.174 8.238 7.568 7.028 6.798 6.608 6.358 6.158 5.958 5.668 5.548
1861.464 5.348 5.048 4.968 4.948 4.878 4.738 4.798 5.008 5.118 5.258
1880.754 5.288 5.248 5.498 5.718 5.568 5.358 5.378 5.238 4.968 4.728
1900.043 4.408 4.128 3.968 3.908 3.798 3.808 3.958 4.038 4.298 4.568
1919.333 4.758 4.708 4.718 4.858 4.868 4.848 4.568 4.248 3.928 3.538
1938.623 3.448 3.348 3.108 2.918 2.868 2.818 2.888 2.918 2.738 2.848
1957.913 3.018 3.078 2.978 2.758 2.808 2.838 2.838 2.848 2.748 2.758
1977.202 2.668 2.588 2.538 2.558 2.558 2.368 2.448 2.468 2.338 2.418
1996.492 2.398 2.388 2.358 2.398 2.538 2.478 2.418 2.308 2.348 2.478
2015.782 2.558 2.638 2.568 2.498 2.458 2.368 2.288 2.278 2.268 2.338
2035.072 2.298 2.318 2.448 2.328 2.148 2.118 2.138 2.288 2.298 2.328
2054.362 2.488 2.488 2.528 2.568 2.698 2.708 2.708 2.818 2.958 3.218
2073.651 3.238 3.168 3.258 3.468 3.498 3.348 3.438 3.548 3.528 3.658
2092.941 3.678 3.498 3.478 3.368 3.308 3.268 3.128 3.148 3.058 2.918
2112.231 2.848 2.778 2.678 2.518 2.408 2.608 2.528 2.198 2.388 2.448
2131.521 2.168 2.058 2.148 2.228 2.118 2.088 2.108 1.898 1.698 1.648
2150.810 1.738 1.768 1.748 1.698 1.748 2.018 1.918 1.748 1.798 1.828
2170.100 1.928 1.928 1.778 1.738 1.858 2.098 2.128 1.918 1.778 1.818
2189.390 1.888 1.818 1.788 1.668 1.738 1.918 1.768 1.708 1.808 1.738
2208.680 1.688 1.718 1.6272 1.4745 1.4718 1.638 1.6003 1.648 1.738 1.5462
2227.970 1.5759 1.648 1.5663 1.6093 1.898 1.868 1.758 1.988 1.878 1.708
2247.259 1.808 1.838 1.918 2.078 2.118 2.078 1.978 1.938 1.888 1.848
2266.549 2.008 2.158 2.068 1.938 1.938 1.908 1.848 1.768 1.678 1.658
2285.839 1.403 1.4416 1.638 1.4988 1.3869 1.3861 1.6012 1.798 1.718 1.648
2305.129 1.6156 1.628 1.868 1.808 1.5609 1.581 1.4966 1.4636 1.4175 1.4655
2324.418 1.5545 1.5562 1.788 1.648 1.4432 1.4393 1.326 1.4319 1.4408 1.4336
2343.708 1.6085 1.708 1.858 1.938 1.978 2.068 1.918 1.878 1.878 1.808
2362.998 1.898 2.038 2.078 2.148 2.298 2.238 2.198 2.148 2.058 2.098
2382.288 2.118 2.008 1.858 1.738 1.678 1.748 1.738 1.4711 1.5233 1.698
2401.578 1.658 1.668 1.818 1.818 1.818 1.828 1.818 1.878 1.988 2.058
2420.867 1.968 1.948 2.038 2.048 2.018 1.948 1.868 1.988 2.018 1.848
2440.157 1.948 2.118 2.208 2.248 2.268 2.228 2.078 2.028 2.168 2.288
2459.447 2.418 2.388 2.208 2.198 2.198 2.218 2.068 1.928 1.838 1.938
2478.737 1.988 1.838 1.928 1.978 1.748 1.3477 1.2735 1.4914 1.4386 1.3079
2498.026 1.5625 1.868 1.708 1.5563 1.4802 1.4751 1.5858 1.648 1.6211 1.4077
2517.316 1.3981 1.3322 1.2736 1.425 1.4665 1.565 1.6058 1.658 1.5554 1.4258
2536.606 1.4315 1.2141 1.2484 1.5632 1.778 1.738 1.3901 1.3783 1.5851 1.4043
2555.896 1.2018 1.1692 1.2425 1.4382 1.5433 1.4013 1.3429 1.3414 1.214 1.2331
2575.186 1.3197 1.4067 1.5523 1.4486 1.0755 1.0264 1.1351 1.1994 1.3745 1.293
2594.475 1.0894 1.102 1.3125 1.4242 1.4421 1.4528 1.4332 1.2166 1.155 1.2251
2613.765 1.0352 1.0756 0.9088 0.8438 1.1719 1.1517 0.9823 1.0523 1.3272 1.5047
2633.055 1.4551 1.2851 1.3628 1.668 1.4999 1.1786 1.2926 1.6197 1.678 1.4585
2652.345 1.238 1.3217 1.5326 1.3994 1.403 1.5758 1.798 1.958 1.948 1.978
2671.634 2.068 2.138 2.108 2.028 2.048 2.138 2.048 1.838 1.778 1.848
2690.924 1.828 2.038 2.018 1.908 1.968 1.888 1.818 1.698 1.6164 1.6142
2710.214 1.788 1.948 1.828 1.738 1.668 1.668 1.5715 1.2998 1.4144 1.648
2729.504 1.4221 1.2317 1.2549 1.1039 1.2427 1.4384 1.3393 1.2976 1.5261 1.5624
2748.794 1.3441 1.4126 1.3041 1.4449 1.5878 1.4403 1.4549 1.4513 1.561 1.3532
2768.083 1.1967 1.4694 1.4157 1.3636 1.4852 1.4452 1.3801 1.1507 1.1771 1.3392
2787.373 1.2039 0.9573 1.1101 1.2869 1.4533 1.5492 1.4313 1.1289 1.0031 1.451
2806.663 1.62 1.4981 1.2885 1.2948 1.4747 1.3591 1.162 1.0391 0.9939 1.1875
2825.953 1.2345 1.1021 1.1547 1.0085 0.9819 1.3473 1.2892 1.271 1.516 1.3553
2845.242 1.3031 1.1422 1.0283 1.6225 1.678 1.4111 1.708 1.738 1.3631 1.3254
2864.532 1.648 1.4921 1.2657 1.2441 0.9777 1.3597 1.648 1.4199 1.3452 1.2725
2883.822 1.3029 1.3497 1.3947 1.3721 1.0867 1.0279 1.1579 1.1532 1.3679 1.5633
2903.112 1.5438 1.3921 1.4739 1.4642 1.4803 1.718 1.594 1.4555 1.6014 1.5325
2922.401 1.5229 1.788 1.648 1.556 1.638 1.928 2.108 2.188 2.318 2.398
2941.691 2.818 2.968 3.018 3.218 3.318 3.658 3.728 3.518 3.658 3.438
2960.981 2.908 2.828 2.828 2.698 2.628 2.618 2.538 2.248 2.168 2.238
2980.271 2.128 2.278 2.298 1.878 2.008 2.188 1.808 1.838 2.288 2.268
2999.561 2.048 2.088 2.078 2.028 1.978 1.908 2.168 2.398 2.448 2.718
3018.850 2.868 3.078 3.368 3.578 4.168 4.818 5.308 5.808 6.418 6.908
3038.140 7.178 8.008 8.798 9.078 9.468 10.148 10.768 11.238 12.008 12.928
3057.430 13.698 14.338 14.878 15.538 15.988 16.418 16.848 16.988 17.208 16.868
3076.720 16.198 15.608 15.478 15.628 15.138 14.448 14.048 13.658 12.838 12.078
3096.009 11.798 11.088 10.078 8.698 7.168 6.028 4.888 3.908 3.588 3.638
3115.299 3.058 2.418 2.388 1.948 1.4122 1.898 1.988 1.4953 1.5579 1.838
3134.589 1.6213 1.4735 1.698 1.998 2.108 2.038 1.948 2.098 1.918 1.688
3153.879 1.998 1.708 1.2679 1.4875 1.5744 1.4202 1.5571 1.878 1.848 1.638
3173.169 2.178 2.788 2.748 2.448 2.478 2.898 3.178 3.098 3.338 3.608
3192.458 3.448 3.698 4.038 3.408 3.328 3.308 2.898 2.528 2.148 2.208
3211.748 1.898 1.648 1.611 1.4823 1.4555 1.3911 1.3619 1.326 1.2097 1.0588
3231.038 0.9915 0.9602 0.7788 0.8427 0.9675 1.0291 1.0962 1.2108 1.0153 0.65038
3250.328 0.67622 1.009 1.2484 0.9804 0.9479 1.2212 1.2132 1.1055 1.2105 1.3571
3269.617 1.2262 1.4012 1.3309 0.648 0.7898 1.1016 1.0895 1.1543 0.9703 0.7617
3288.907 0.47 0.401 0.66381 0.9361 1.0328 1.293 1.1885 0.68573 1.0605 1.2675
3308.197 0.5683 0.7593 1.2823 1.2273 0.8296 0.71392 0.8083 0.8955 0.8315 0.6112
3327.487 0.9669 1.3124 1.4593 1.5819 1.2943 1.0766 1.3339 1.2036 0.64435 0.68768
3346.777 0.9437 1.0989 1.4004 1.3801 1.1613 0.7554 0.627186 0.629055 0.72491 0.981
3366.066 1.0194 0.7559 0.8001 1.0013 0.965 0.67516 0.46 0.66978 0.8287 0.64742
3385.356 1.0264 0.8741 0.5867 0.7937 0.7769 0.67253 0.5979 0.973 0.8309 0.5569
3404.646 0.66166 0.875 1.2722 1.4444 1.1102 1.1949 1.3534 1.4418 1.2709 0.8666
3423.936 1.0621 0.9743 0.5447 0.285 0.519 0.9917 0.71445 0.188 0.341 0.8017
3443.225 1.0899 1.1403 0.7907 0.72315 1.0738 1.1914 1.1877 1.0306 0.8077 0.275
3462.515 0 0.5445 1.0491 0.8486 0.504 0.8935 1.0757 0.894 0.8095 0.63808
3481.805 0.523 0.7465 1.0939 1.1174 0.846 0.8288 0.928 1.1327 1.6106 1.4875
3501.095 1.3855 1.509 1.2209 1.3211 1.1667 0.629982 0.8724 1.2218 1.0417 1.4408
3520.385 2.288 2.288 1.988 1.938 1.918 2.058 1.848 1.4337 1.5406 1.808
3539.674 1.998 2.048 1.868 1.978 1.898 1.5804 1.778 2.288 2.268 1.778
3558.964 1.658 1.878 1.708 1.768 2.008 1.878 2.018 2.368 2.158 1.868
3578.254 1.5239 1.5697 1.968 2.078 1.978 1.718 1.718 1.638 1.6139 1.6034
3597.544 1.708 1.718 1.4622 1.3197 1.4315 1.4805 1.0878 0.8161 1.2142 1.405
3616.833 0.8901 0.9911 1.658 1.5045 1.1665 1.1266 1.2315 1.2353 1.3019 1.3645
3636.123 1.0448 0.7424 0.476 0.9873 1.4315 1.1873 0.8589 0.66029 0.8314 1.0946
3655.413 0.933 0.70528 0.71703 0.281 0.405 0.8787 1.01 1.0606 1.2438 1.0975
3674.703 0.5382 0.6028 1.1511 1.0122 0.195 0.081 0.66227 0.9125 0.7641 0.7662
3693.993 0.9306 0.8847 1.1153 1.3487 1.4071 1.1441 0.8422 0.71736 0.66869 1.1392
3713.282 1.165 1.0125 0.88 0.9278 0.9859 1.0241 1.2074 1.1258 1.2979 1.3118
3732.572 1.1551 1.4106 1.668 1.3002 0.731 1.2904 1.2795 0.7941 0.931 0.65781
3751.862 0.7714 1.0616 0.8221 0.849 1.4019 1.908 1.3742 0.7546 1.16 1.1854
3771.152 1.2253 1.1516 1.1011 1.3434 1.1412 1.066 1.1046 0.8574 0.9591 1.0411
3790.441 0.7807 0.5743 0.331 0.496 0.222 0.045 0.37 0.67398 0.8993 0.526
3809.731 0.6761 1.1589 0.9528 1.0669 1.5042 1.2564 0.9587 0.8551 0.7823 0.9426
3829.021 0.7837 0.5991 0.8753 0.9989 0.9139 1.0227 1.223 0.9642 0.472 0.6017
3848.311 0.9255 0.5666 0.64672 0.992 0.432 0.28 0.7374 0.9562 1.0628 1.1931
3867.601 1.1428 1.1866 1.2817 0.9568 0.64811 0.7333 1.0558 1.1843 1.088 1.0366
3886.890 1.0762 1.1695 1.3411 1.5514 1.1646 0.298 0.428 0.9874 0.9412 0.9434
3906.180 0.9966 0.9795 0.65875 0.496 1.0264 1.3811 1.2662 0.9585 1.0015 1.658
3925.470 1.5104 1.1564 1.4513 1.4454 1.242 0.9203 0.9114 1.0272 1.0533 1.3274
3944.760 1.1119 0.7361 0.7807 1.1691 1.234 1.1324 1.259 0.9892 0.9046 1.0873
3964.049 0.909 0.8666 1.2713 1.054 0.616 0.71701 0.70453 0.519 1.0209 1.5428
3983.339 1.0579 0.8813 1.2222 0.917 0.68862 0.7792 0.8436 1.1402 1.1037 0.7999
##END=
