##TITLE=m-Chloroperoxybenzoic acid
##JCAMP-DX=4.24
##DATA TYPE=INFRARED SPECTRUM
##ORIGIN=EPA-IR VAPOR PHASE LIBRARY
##OWNER=SRD/NIST
Collection (C) 2018 copyright by the U.S. Secretary of Commerce
on behalf of the United States of America. All rights reserved.
##CAS REGISTRY NO=937-14-4
##MOLFORM=C 7 H 5 Cl O 3
##$NIST SOURCE=MSDC-IR
##STATE=gas
##XUNITS=1/CM
##YUNITS=ABSORBANCE
##XFACTOR=1.
##YFACTOR=0.001
##DELTAX=1.929
##FIRSTX=549.8
##LASTX=4000.8
##FIRSTY=6.494
##MAXX=4000.75
##MINX=549.766
##MAXY=0.076484
##MINY=0
##NPOINTS=1790
##XYDATA=(X++(Y..Y))
549.766 6.494 6.624 6.304 6.234 6.604 7.064 7.404 7.584 7.994 8.744
569.056 9.374 9.914 10.394 11.034 11.754 12.394 12.754 12.304 11.584 10.774
588.346 9.964 9.144 8.194 7.154 6.164 5.494 4.844 4.114 3.594 3.324
607.636 2.964 2.734 2.634 2.724 2.934 3.344 4.164 5.694 8.084 10.734
626.926 12.394 13.114 13.554 12.864 12.424 12.074 11.024 9.224 6.724 4.494
646.216 2.984 2.304 1.874 1.574 1.354 1.2874 1.334 1.374 1.434 1.784
665.506 2.044 2.214 2.764 3.524 4.404 5.524 6.944 8.904 11.254 13.344
684.796 14.334 14.454 14.854 15.074 14.544 13.284 11.004 8.254 5.714 3.724
704.086 2.674 2.044 1.504 1.334 1.2965 1.1739 1.2247 1.514 1.694 1.864
723.376 2.054 2.514 3.214 3.874 4.804 6.124 7.634 9.254 10.944 12.414
742.666 13.714 14.974 16.874 19.934 22.274 20.364 16.334 14.274 13.114 11.834
761.956 10.434 8.954 7.414 6.084 5.044 4.164 3.514 3.084 2.864 2.724
781.246 2.584 2.414 2.324 2.204 2.054 2.034 2.074 2.104 2.114 2.104
800.536 2.144 2.254 2.384 2.504 2.674 2.814 3.084 3.604 3.944 4.374
819.826 4.794 5.114 5.414 5.574 5.704 5.564 5.154 4.684 4.204 3.574
839.116 2.974 2.464 1.814 1.434 1.334 1.0699 0.8746 0.8182 0.7274 0.6863
858.406 0.6128 0.6131 0.6682 0.6773 0.6598 0.56 0.6232 0.772 0.7712 0.7891
877.696 0.8408 0.8689 0.9352 0.9853 1.1717 1.364 1.394 1.464 1.654 1.814
896.986 1.994 2.174 2.254 2.134 1.954 1.884 1.784 1.674 1.634 1.554
916.276 1.2918 1.2028 1.1635 0.9604 0.8749 0.8357 0.7718 0.7727 0.7403 0.7728
935.566 0.7582 0.7176 0.8391 0.8871 0.8568 0.8257 0.8406 0.7985 0.8037 0.7954
954.856 0.8008 0.7783 0.6467 0.592 0.6194 0.6665 0.604 0.5784 0.5826 0.5458
974.146 0.604 0.648 0.5743 0.5589 0.6432 0.7092 0.7253 0.725 0.8015 0.9076
993.436 0.9284 0.9921 1.0476 1.0053 0.997 1.0269 1.0695 1.1262 1.1433 1.1098
1012.726 1.1425 1.2054 1.2246 1.2702 1.334 1.394 1.454 1.494 1.534 1.654
1032.016 1.824 1.974 2.144 2.354 2.664 3.114 3.624 4.184 4.964 5.864
1051.306 6.824 8.104 9.574 10.844 11.864 12.824 13.684 14.394 15.134 15.894
1070.596 16.444 16.574 16.254 15.954 15.984 16.214 16.484 16.704 16.874 16.974
1089.886 17.034 16.944 16.764 16.514 16.324 16.204 16.044 15.914 15.914 16.154
1109.176 16.524 16.684 16.524 15.984 15.114 14.394 13.854 13.254 12.404 11.254
1128.467 9.954 8.804 7.984 7.314 6.774 6.504 6.374 6.394 6.524 6.744
1147.757 7.124 7.594 8.104 8.764 9.454 10.224 11.094 12.024 13.324 14.964
1167.047 16.794 19.094 22.254 26.414 31.444 36.674 40.844 43.174 43.894 43.854
1186.337 43.324 41.434 37.694 31.964 25.054 18.764 14.154 11.144 9.074 7.674
1205.627 6.594 5.694 5.064 4.714 4.494 4.354 4.284 4.264 4.274 4.314
1224.917 4.344 4.354 4.464 4.614 4.714 4.644 4.584 4.514 4.354 4.374
1244.207 4.484 4.564 4.684 4.804 4.964 5.134 5.214 5.294 5.344 5.314
1263.497 5.194 5.014 4.914 4.824 4.594 4.374 4.274 4.094 4.024 4.154
1282.787 4.344 4.634 4.984 5.494 6.024 6.594 7.254 7.834 8.354 8.874
1302.077 9.374 9.944 10.564 11.174 11.764 12.464 13.174 13.594 13.674 13.624
1321.367 13.394 13.024 12.444 11.504 10.424 9.344 8.384 7.694 7.264 6.964
1340.657 6.954 7.134 7.534 8.244 9.184 10.324 11.464 12.374 12.984 13.224
1359.947 13.134 12.834 12.304 11.444 10.204 8.704 7.304 6.194 5.384 4.824
1379.237 4.414 4.054 3.794 3.624 3.424 3.234 3.034 2.894 2.814 2.754
1398.527 2.714 2.694 2.764 2.904 3.174 3.574 4.134 4.824 5.554 6.364
1417.817 7.274 8.214 9.044 9.614 9.714 9.554 9.224 8.694 7.854 6.754
1437.107 5.424 4.114 3.064 2.324 1.924 1.754 1.684 1.694 1.774 1.864
1456.397 1.974 2.184 2.404 2.614 2.854 3.154 3.504 3.804 4.044 4.184
1475.687 4.254 4.304 4.264 4.124 3.814 3.434 3.074 2.744 2.374 2.044
1494.977 1.844 1.644 1.444 1.324 1.2069 1.1148 1.051 0.9653 0.9128 0.8496
1514.267 0.782 0.7709 0.7781 0.7887 0.7806 0.7272 0.7314 0.7546 0.7303 0.7295
1533.557 0.783 0.8966 1.0385 1.1353 1.2059 1.364 1.554 1.784 2.074 2.384
1552.847 2.744 3.204 3.644 4.104 4.554 4.984 5.374 5.684 5.974 6.184
1572.137 6.324 6.414 6.404 6.324 6.184 5.964 5.734 5.434 5.064 4.624
1591.427 4.184 3.794 3.394 3.064 2.854 2.664 2.524 2.344 2.184 2.084
1610.717 1.934 1.744 1.604 1.424 1.2989 1.1862 1.0832 1.0114 0.8978 0.8607
1630.007 0.8786 0.8539 0.82 0.8188 0.7869 0.738 0.73 0.7035 0.6842 0.7132
1649.297 0.785 0.8753 0.8809 0.859 0.8799 0.8763 0.9317 0.9655 0.9338 0.9801
1668.587 1.0369 1.0701 1.0536 0.9812 0.9124 0.9089 0.9422 0.9608 0.9677 0.9806
1687.877 1.0446 1.1209 1.2123 1.394 1.594 1.764 2.054 2.344 2.614 2.924
1707.167 3.254 3.664 4.134 4.564 4.804 4.784 4.644 4.514 4.464 4.454
1726.457 4.424 4.414 4.374 4.374 4.604 5.094 5.924 7.134 8.674 10.914
1745.747 14.014 18.314 24.184 32.064 41.794 52.674 63.564 71.574 75.304 76.014
1765.037 76.214 76.484 74.634 67.704 54.704 40.104 27.944 19.504 14.094 10.464
1784.327 8.004 6.254 5.084 4.424 4.074 3.794 3.664 3.634 3.694 3.834
1803.617 3.974 4.104 4.284 4.434 4.614 4.794 4.804 4.634 4.294 3.764
1822.907 3.334 2.994 2.604 2.244 1.884 1.584 1.374 1.2231 1.07 0.9253
1842.197 0.8496 0.8292 0.7952 0.771 0.7546 0.7471 0.7294 0.6732 0.6873 0.7125
1861.487 0.7414 0.7729 0.7742 0.7594 0.7503 0.8016 0.8316 0.8309 0.8541 0.8879
1880.777 0.9466 1.0054 1.0026 1.0041 1.027 1.0488 1.0728 1.0576 1.019 0.9626
1900.067 0.9326 0.9409 0.9111 0.8857 0.8707 0.8735 0.9062 0.9252 0.9385 0.9326
1919.357 0.9388 0.9187 0.8764 0.8754 0.8362 0.7951 0.7607 0.7322 0.7299 0.7303
1938.647 0.7623 0.7925 0.8021 0.7862 0.8019 0.8343 0.806 0.7641 0.7551 0.7099
1957.937 0.6522 0.6344 0.6044 0.588 0.5657 0.5247 0.5131 0.5096 0.4869 0.4501
1977.227 0.4368 0.4492 0.4659 0.5023 0.5324 0.4996 0.4739 0.4609 0.4752 0.5404
1996.517 0.5583 0.5434 0.5808 0.5661 0.5376 0.5398 0.5194 0.5407 0.5301 0.4919
2015.807 0.4844 0.4542 0.4523 0.4736 0.4454 0.39549 0.34815 0.30925 0.322259 0.36353
2035.097 0.37539 0.34194 0.2956 0.2886 0.2966 0.30451 0.35731 0.37997 0.38655 0.4283
2054.387 0.4436 0.40318 0.37617 0.40497 0.4189 0.36983 0.38587 0.40804 0.36467 0.3634
2073.677 0.36219 0.34036 0.34284 0.36593 0.35174 0.30878 0.316216 0.38309 0.39748 0.36632
2092.967 0.32628 0.31008 0.37053 0.37787 0.33299 0.32416 0.3314 0.37662 0.34859 0.316624
2112.257 0.33255 0.33081 0.30601 0.30827 0.37556 0.4332 0.4514 0.4412 0.4422 0.4723
2131.547 0.5045 0.4792 0.4217 0.41357 0.4288 0.4528 0.4999 0.5365 0.5463 0.5117
2150.837 0.4512 0.4267 0.4555 0.4403 0.3996 0.4026 0.40357 0.4392 0.4417 0.35295
2170.127 0.38309 0.4529 0.4447 0.4262 0.4484 0.5023 0.4951 0.5379 0.5173 0.4619
2189.417 0.4756 0.4659 0.4716 0.4643 0.4868 0.4894 0.4246 0.40453 0.40014 0.38231
2208.707 0.37818 0.34068 0.35745 0.37181 0.33937 0.35259 0.36622 0.34207 0.3014 0.2804
2227.997 0.30482 0.2976 0.3012 0.3404 0.38369 0.36875 0.320508 0.34431 0.37357 0.36986
2247.287 0.39833 0.40326 0.36267 0.37397 0.36929 0.36517 0.32598 0.2837 0.34581 0.40858
2266.577 0.40336 0.37629 0.4185 0.4308 0.39388 0.38147 0.38181 0.40648 0.40891 0.38516
2285.868 0.3601 0.34441 0.35658 0.38004 0.34556 0.33824 0.37725 0.37039 0.3698 0.36282
2305.158 0.33985 0.36731 0.37359 0.33885 0.33641 0.37055 0.41255 0.4173 0.4332 0.4529
2324.448 0.3872 0.39757 0.4458 0.38155 0.38349 0.40354 0.39715 0.39032 0.4186 0.4702
2343.738 0.4354 0.4301 0.4968 0.4646 0.4284 0.5014 0.5 0.5019 0.5438 0.5392
2363.028 0.5039 0.4754 0.4809 0.5065 0.4874 0.4333 0.4144 0.40375 0.4287 0.4431
2382.318 0.4216 0.41044 0.4454 0.4884 0.436 0.40899 0.4682 0.4618 0.4181 0.4457
2401.608 0.4751 0.4432 0.4203 0.4393 0.4512 0.4345 0.4533 0.4572 0.4409 0.4819
2420.898 0.4964 0.4348 0.4357 0.4721 0.4616 0.4912 0.4948 0.4464 0.4383 0.4197
2440.188 0.40039 0.40851 0.4261 0.4373 0.4273 0.41139 0.40493 0.40689 0.39095 0.41076
2459.478 0.4193 0.38679 0.37965 0.4219 0.4417 0.38897 0.34326 0.38177 0.37996 0.36287
2478.768 0.32403 0.2753 0.30854 0.34181 0.36323 0.34801 0.3077 0.316009 0.34681 0.35729
2498.058 0.35625 0.35385 0.37554 0.39323 0.39849 0.37086 0.33023 0.36311 0.37529 0.33699
2517.348 0.36019 0.39051 0.40113 0.36027 0.314701 0.35907 0.38378 0.38106 0.35416 0.37652
2536.638 0.4442 0.4544 0.40198 0.35676 0.33546 0.35101 0.39762 0.36085 0.2987 0.33316
2555.928 0.36032 0.34519 0.33631 0.33278 0.32688 0.30611 0.320264 0.34641 0.3715 0.37707
2575.218 0.36402 0.35759 0.39427 0.38325 0.321915 0.33388 0.3358 0.30679 0.3654 0.38895
2594.508 0.38658 0.3824 0.34443 0.37098 0.321762 0.2459 0.2804 0.316597 0.315266 0.2993
2613.798 0.322397 0.279 0.192 0.211 0.30963 0.38901 0.32858 0.2882 0.2645 0.2154
2633.088 0.192 0.2443 0.35226 0.33528 0.2731 0.2667 0.31146 0.34969 0.33802 0.2974
2652.378 0.2623 0.2933 0.302 0.2549 0.194 0.211 0.2942 0.32428 0.31035 0.2752
2671.668 0.2577 0.2756 0.3011 0.30915 0.319968 0.3262 0.2218 0.173 0.2506 0.2763
2690.958 0.2444 0.2588 0.2674 0.2494 0.2631 0.2662 0.320676 0.30696 0.2247 0.2214
2710.248 0.2332 0.2801 0.2758 0.2321 0.2726 0.2928 0.2869 0.2616 0.2459 0.2381
2729.538 0.2385 0.196 0.197 0.2458 0.2688 0.2727 0.2254 0.2367 0.2373 0.2152
2748.828 0.266 0.314616 0.33654 0.30548 0.295 0.34526 0.36578 0.34507 0.33715 0.3254
2768.118 0.2915 0.31126 0.3026 0.315891 0.36703 0.3814 0.3483 0.38344 0.4429 0.40491
2787.408 0.38389 0.34895 0.2832 0.2636 0.2446 0.2491 0.2879 0.2855 0.3483 0.36105
2806.698 0.2751 0.2662 0.224 0.145 0.2494 0.31111 0.2577 0.2757 0.323667 0.39672
2825.988 0.36625 0.32591 0.2974 0.186 0.188 0.313901 0.34513 0.2737 0.2858 0.2623
2845.278 0.2444 0.2397 0.2789 0.34722 0.3048 0.38027 0.4263 0.320805 0.2736 0.2887
2864.568 0.2596 0.3005 0.40793 0.36607 0.2766 0.2806 0.34868 0.4301 0.41168 0.322537
2883.858 0.4287 0.4631 0.273 0.2274 0.2882 0.316664 0.36685 0.32694 0.2559 0.2967
2903.148 0.2959 0.2562 0.286 0.25 0.2448 0.2773 0.2719 0.3011 0.31271 0.37255
2922.438 0.3646 0.314604 0.2722 0.2415 0.2708 0.245 0.2298 0.3038 0.34204 0.36813
2941.728 0.3103 0.2367 0.254 0.34303 0.40078 0.2916 0.2893 0.2989 0.2362 0.2602
2961.018 0.2769 0.208 0.174 0.2172 0.199 0.241 0.31818 0.2528 0.2726 0.2429
2980.308 0.206 0.34274 0.40188 0.36124 0.315549 0.31029 0.34751 0.35484 0.34126 0.34327
2999.598 0.2856 0.313041 0.36342 0.39237 0.4921 0.428 0.35636 0.4158 0.33119 0.33161
3018.888 0.4263 0.4749 0.5248 0.4452 0.4397 0.578 0.5987 0.5597 0.5282 0.5566
3038.178 0.5232 0.4632 0.49 0.4748 0.4626 0.4872 0.5053 0.4402 0.5509 0.6346
3057.468 0.6109 0.6588 0.7368 0.9168 1.0508 1.2344 1.494 1.674 1.904 2.214
3076.758 2.304 2.234 2.254 2.304 2.294 2.084 1.934 1.844 1.554 1.2177
3096.048 1.0481 0.9106 0.7095 0.6301 0.7109 0.6886 0.528 0.4546 0.38843 0.2372
3115.338 0.2182 0.30545 0.33447 0.36526 0.37721 0.33809 0.2577 0.2376 0.2809 0.283
3134.628 0.296 0.30685 0.2328 0.189 0.182 0.176 0.2181 0.211 0.2594 0.2519
3153.918 0.2177 0.2469 0.2 0.2186 0.2369 0.2375 0.2724 0.2616 0.2848 0.2647
3173.208 0.132 0.174 0.4178 0.4527 0.2406 0.2325 0.2677 0.206 0.171 0.2167
3192.498 0.2706 0.2392 0.2324 0.078 0 0.083 0.152 0.204 0.2236 0.113
3211.788 0.052 0.133 0.212 0.2531 0.128 0.075 0.169 0.181 0.092 0.059
3231.078 0.13 0.093 0.162 0.171 0.154 0.184 0.088 0.2574 0.2579 0.145
3250.368 0.2405 0.136 0.071 0.16 0.165 0.15 0.121 0.115 0.177 0.183
3269.658 0.142 0.206 0.37119 0.4158 0.243 0.217 0.3006 0.321138 0.30708 0.116
3288.948 0.088 0.141 0.097 0.142 0.194 0.2702 0.317831 0.313502 0.323418 0.33708
3308.238 0.316056 0.179 0.151 0.18 0.197 0.2493 0.061 0.129 0.2292 0.133
3327.528 0.2723 0.32865 0.3032 0.36671 0.30584 0.2795 0.2525 0.168 0.32829 0.4653
3346.818 0.35967 0.176 0.2227 0.32853 0.36425 0.39064 0.2624 0.136 0.113 0.144
3366.108 0.174 0.214 0.2785 0.2687 0.178 0.108 0.075 0.166 0.3034 0.2516
3385.398 0.2204 0.323651 0.33592 0.2708 0.138 0.101 0.169 0.126 0.165 0.2919
3404.688 0.36549 0.4177 0.4275 0.38796 0.3039 0.30963 0.2958 0.2389 0.189 0.213
3423.978 0.2839 0.322929 0.39075 0.36618 0.2875 0.321383 0.36625 0.4204 0.40504 0.2968
3443.269 0.2888 0.229 0.15 0.2339 0.38354 0.31108 0.157 0.2329 0.323742 0.35179
3462.559 0.34188 0.315586 0.38663 0.38283 0.36275 0.4085 0.37598 0.36396 0.4517 0.4203
3481.849 0.36537 0.33367 0.2551 0.39666 0.6271 0.6333 0.5865 0.5538 0.5971 0.6395
3501.139 0.6738 0.8126 0.9163 0.9299 0.9496 0.9191 0.8033 0.7723 0.7988 0.7464
3520.429 0.6206 0.607 0.5827 0.5 0.5636 0.5145 0.4621 0.4838 0.4361 0.4741
3539.719 0.4522 0.2985 0.320587 0.565 0.6225 0.7003 0.8677 0.9841 1.2333 1.484
3559.009 1.734 2.254 3.064 4.124 5.564 7.674 10.414 13.834 17.794 21.624
3578.299 24.594 26.014 25.924 25.134 24.014 22.124 19.254 15.514 11.264 7.274
3597.589 4.464 2.864 2.004 1.514 1.1687 0.9838 0.7173 0.596 0.6217 0.5383
3616.879 0.544 0.5705 0.5105 0.4697 0.4187 0.4778 0.4976 0.40769 0.37772 0.2755
3636.169 0.206 0.2825 0.32886 0.2469 0.199 0.2555 0.2736 0.35575 0.38414 0.2695
3655.459 0.2827 0.40293 0.38685 0.2711 0.2661 0.30923 0.320262 0.3112 0.2942 0.32217
3674.749 0.2818 0.187 0.33123 0.37367 0.2396 0.2644 0.34548 0.3025 0.203 0.2756
3694.039 0.36183 0.33866 0.323103 0.2922 0.164 0.2274 0.322893 0.2766 0.30528 0.16
3713.329 0.181 0.35384 0.33002 0.34683 0.39791 0.37156 0.2855 0.2924 0.39328 0.4292
3732.619 0.5031 0.4597 0.32508 0.2871 0.2853 0.35197 0.4601 0.4509 0.4615 0.4479
3751.909 0.37272 0.33843 0.185 0.147 0.2477 0.32869 0.39903 0.4538 0.4672 0.318848
3771.199 0.2265 0.37639 0.5153 0.37663 0.2697 0.2687 0.21 0.2176 0.107 0.087
3790.489 0.2226 0.204 0.168 0.18 0.2795 0.39542 0.35033 0.2721 0.2657 0.2692
3809.779 0.2691 0.318425 0.191 0.085 0.175 0.181 0.2177 0.37743 0.34388 0.095
3829.069 0.005 0.124 0.186 0.2846 0.289 0.2636 0.2638 0.2 0.2796 0.322285
3848.359 0.33339 0.2584 0.2626 0.33258 0.323564 0.2474 0.148 0.2189 0.39166 0.3851
3867.649 0.36734 0.3026 0.187 0.2456 0.322913 0.3896 0.319974 0.2242 0.32852 0.4179
3886.939 0.36758 0.3029 0.252 0.2526 0.3018 0.4922 0.4826 0.35133 0.2638 0.2775
3906.229 0.323924 0.192 0.111 0.034 0.081 0.2738 0.37854 0.36286 0.272 0.164
3925.519 0.056 0.088 0.2195 0.2891 0.2904 0.3033 0.2747 0.197 0.187 0.2357
3944.809 0.37424 0.317294 0.241 0.2527 0.273 0.2365 0.2378 0.35008 0.38884 0.313931
3964.099 0.2956 0.2827 0.2269 0.35628 0.2844 0.211 0.2953 0.36533 0.33486 0.313204
3983.389 0.317898 0.31143 0.40272 0.34947 0.158 0.149 0.179 0.2694 0.33413 0.2713
##END=
