##TITLE=4-Chlorophenyl chlorothionoformate
##JCAMP-DX=4.24
##DATA TYPE=INFRARED SPECTRUM
##ORIGIN=EPA-IR VAPOR PHASE LIBRARY
##OWNER=SRD/NIST
Collection (C) 2018 copyright by the U.S. Secretary of Commerce
on behalf of the United States of America. All rights reserved.
##CAS REGISTRY NO=937-64-4
##MOLFORM=C 7 H 4 Cl 2 O S
##$NIST SOURCE=MSDC-IR
##STATE=gas
##XUNITS=1/CM
##YUNITS=ABSORBANCE
##XFACTOR=1.
##YFACTOR=0.001
##DELTAX=1.92934
##FIRSTX=549.9
##LASTX=3999.5
##FIRSTY=3.2602
##MAXX=3999.53
##MINX=549.863
##MAXY=0.21738
##MINY=0
##NPOINTS=1789
##XYDATA=(X++(Y..Y))
549.863 3.2602 3.1671 3.2595 3.2021 3.06907 3.0147 2.9935 3.09407 3.09767 3.10915
569.156 3.11113 3.2053 3.3084 3.3484 3.4074 3.4288 3.5375 3.7387 4.07 4.2
588.450 4.11 4.21 4.41 4.48 4.53 4.59 4.53 4.4 4.35 4.41
607.743 4.34 4.16 4.0337 3.8762 3.6744 3.5592 3.4868 3.3923 3.3047 3.1952
627.037 3.1807 3.1739 3.1742 3.3622 3.5059 3.5013 3.6137 3.9187 4.2 4.56
646.330 5.09 5.77 6.52 7.14 7.48 7.66 7.65 7.46 7.18 6.87
665.624 6.83 6.89 6.69 6.43 6.07 5.61 5.14 4.73 4.29 3.8434
684.917 3.6205 3.5096 3.4403 3.2957 3.11745 3.07111 3.0268 3.05726 3.17 3.2356
704.210 3.3566 3.5863 3.919 4.41 4.9 5.3 5.52 5.47 5.29 4.91
723.504 4.36 3.7239 3.1899 2.909 2.761 2.723 2.722 2.663 2.568 2.59
742.797 2.707 2.737 2.654 2.652 2.729 2.75 2.759 2.78 2.808 2.823
762.091 2.872 2.869 2.893 3.0156 3.11095 3.1929 3.3125 3.4232 3.5831 3.7336
781.384 3.8689 4.2 4.68 5.33 6.15 7.21 8.46 9.71 10.89 11.91
800.678 12.62 12.91 12.83 12.42 11.89 11.43 11.31 11.69 12.48 13.75
819.971 15.54 17.65 19.76 21.89 23.84 25.38 26.18 25.99 25.19 23.83
839.264 21.56 18.61 15.61 12.98 10.78 8.89 7.46 6.47 5.79 5.27
858.558 4.9 4.72 4.57 4.45 4.33 4.26 4.29 4.21 4.08 3.9706
877.851 3.8797 3.7716 3.6386 3.592 3.5126 3.4123 3.3998 3.3883 3.3456 3.3484
897.145 3.3281 3.2874 3.2563 3.2495 3.2258 3.1938 3.1781 3.1985 3.297 3.3642
916.438 3.5114 3.7307 3.8791 3.9913 4.15 4.39 4.61 4.77 4.99 5.29
935.732 5.61 5.97 6.4 6.84 7.32 7.88 8.42 8.91 9.36 9.72
955.025 10.09 10.45 10.7 11 11.38 11.81 12.36 13.12 14 14.99
974.318 16.15 17.45 19.01 20.95 23.33 26.36 30.1 34.51 39.69 45.64
993.612 52.54 60.66 70.24 81.46 94.32 108.66 123.99 139.43 153.24 162.54
1012.905 165.55 163.99 159.92 153.13 143.53 133.57 125.17 116.84 106.62 93.92
1032.199 79.24 63.91 49.36 36.74 26.85 20.04 15.86 13.26 11.62 10.52
1051.492 9.81 9.34 9.04 8.89 8.84 8.82 8.89 9 9.2 9.59
1070.786 10.13 10.97 12.35 14.59 17.96 22.55 28.13 34.01 39.14 42.67
1090.079 44.15 43.44 40.68 36.55 32.21 28.73 26.52 25.41 24.78 24.12
1109.372 23.3 22.2 20.82 19.33 17.67 16 14.43 12.92 11.68 10.71
1128.666 10.08 9.78 9.74 9.85 10.11 10.55 11.1 11.86 12.98 14.78
1147.959 17.65 22.02 28.31 36.1 43.32 47.63 48.66 47.8 45.02 39
1167.253 31.86 27.39 26.59 28.72 33.22 39.98 48.54 57.96 67.3 75.59
1186.546 81.79 84.88 84.13 79.6 72.15 63.3 54.56 47.02 41.56 38.77
1205.840 38.67 40.91 44.94 50.15 56.09 62.55 69.59 77.47 86.43 96.78
1225.133 108.97 123.3 139.61 156.99 174.28 190.25 203.47 212.75 217.38 216.85
1244.426 211.28 201.3 187.75 171.48 153.59 135.39 117.62 100.66 85.24 72.02
1263.720 61.01 51.95 44.42 38.11 32.93 28.83 25.64 23.21 21.41 20.1
1283.013 19.17 18.51 17.93 17.39 16.85 16.25 15.63 14.95 14.22 13.51
1302.307 12.75 11.95 11.23 10.53 9.83 9.16 8.55 8.02 7.5 7.12
1321.600 6.78 6.44 6.19 5.98 5.79 5.56 5.32 5.08 4.84 4.71
1340.894 4.56 4.35 4.18 4.0414 3.9405 3.8029 3.6495 3.5804 3.5986 3.5871
1360.187 3.585 3.6475 3.6974 3.7591 3.8622 3.9096 3.9934 4.0276 4.0115 4.07
1379.480 4.12 4.2 4.28 4.38 4.5 4.59 4.72 4.88 4.95 4.94
1398.774 4.98 4.99 4.92 4.77 4.63 4.51 4.32 4.17 4.14 4.18
1418.067 4.33 4.66 5.15 5.66 6.23 6.78 7.05 7.01 6.77 6.34
1437.361 5.73 5.12 4.61 4.34 4.17 4.16 4.3 4.44 4.7 5.05
1456.654 5.45 5.84 6.34 7.09 8.23 9.93 12.37 16.07 21.91 30.59
1475.948 42.33 57.69 74.79 90.55 100.35 102.43 97.66 87.11 70.69 52.17
1495.241 36.13 24.78 18.06 14.12 11.83 10.43 9.36 8.47 7.7 7.03
1514.534 6.48 6.01 5.65 5.36 5.07 4.83 4.64 4.47 4.32 4.16
1533.828 3.9849 3.8421 3.7795 3.7542 3.6098 3.4286 3.2923 3.2022 3.1563 3.10081
1553.121 3.06524 3.0045 2.933 2.892 2.881 2.852 2.783 2.763 2.759 2.831
1572.415 2.946 2.9929 3.06425 3.2201 3.3663 3.4794 3.5928 3.7119 3.7968 3.861
1591.708 3.8422 3.8153 3.7571 3.6479 3.5423 3.4247 3.3612 3.2969 3.2661 3.2602
1611.002 3.2515 3.2337 3.2286 3.2658 3.3099 3.3546 3.4403 3.5169 3.6317 3.8006
1630.295 3.9755 4.11 4.16 4.25 4.31 4.22 4.06 3.9521 3.8804 3.718
1649.588 3.5796 3.4494 3.3108 3.2226 3.1972 3.2304 3.2247 3.2386 3.2543 3.2106
1668.882 3.1534 3.12474 3.12388 3.13025 3.1585 3.08795 2.9962 3.0192 2.9834 2.912
1688.175 2.892 2.849 2.713 2.606 2.605 2.687 2.691 2.561 2.491 2.527
1707.469 2.523 2.458 2.489 2.566 2.639 2.678 2.691 2.733 2.8 2.85
1726.762 2.894 2.915 2.9525 3.05284 3.10399 3.12605 3.2439 3.3837 3.519 3.7001
1746.056 3.8552 3.92 3.9122 3.8707 3.7186 3.4954 3.2883 3.04389 2.881 2.762
1765.349 2.637 2.583 2.509 2.45 2.445 2.468 2.459 2.428 2.402 2.396
1784.642 2.407 2.372 2.381 2.391 2.4 2.456 2.48 2.509 2.518 2.498
1803.936 2.549 2.593 2.592 2.654 2.717 2.744 2.733 2.677 2.706 2.746
1823.229 2.711 2.709 2.704 2.687 2.682 2.708 2.743 2.726 2.719 2.776
1842.523 2.792 2.79 2.833 2.862 2.865 2.868 2.905 2.9773 3.08707 3.2014
1861.816 3.3214 3.4841 3.6546 3.9029 4.17 4.47 4.67 4.79 4.94 4.94
1881.110 4.84 4.73 4.6 4.41 4.21 4.07 3.9031 3.6924 3.5919 3.4469
1900.403 3.356 3.3338 3.2337 3.14301 3.0494 2.9747 2.905 2.795 2.71 2.683
1919.696 2.611 2.579 2.591 2.535 2.484 2.488 2.455 2.453 2.526 2.526
1938.990 2.552 2.658 2.712 2.735 2.795 2.883 2.949 2.9837 2.9973 2.9974
1958.283 3.0141 3.0323 2.991 2.939 2.92 2.912 2.86 2.771 2.742 2.763
1977.577 2.773 2.798 2.847 2.859 2.832 2.833 2.865 2.859 2.838 2.807
1996.870 2.792 2.765 2.679 2.642 2.661 2.63 2.629 2.662 2.693 2.774
2016.164 2.84 2.847 2.851 2.919 3.06055 3.1696 3.2204 3.2734 3.3904 3.5106
2035.457 3.6162 3.7191 3.7996 3.8655 3.9155 3.9566 3.9311 3.9216 3.8569 3.7097
2054.750 3.624 3.5642 3.4952 3.4451 3.5365 3.7791 4.0133 4.21 4.33 4.34
2074.044 4.25 4.05 3.8094 3.5176 3.1984 2.885 2.592 2.378 2.254 2.168
2093.337 2.074 2.059 2.073 2.06 2.02 1.98 1.97 1.96 1.95 1.94
2112.631 1.95 1.94 1.93 1.92 1.93 1.92 1.88 1.85 1.85 1.91
2131.924 1.92 1.89 1.92 1.9 1.88 1.89 1.88 1.92 1.9 1.88
2151.218 1.92 1.95 1.95 1.93 1.94 1.98 2 2.04 2.059 2.072
2170.511 2.108 2.139 2.142 2.133 2.156 2.175 2.187 2.194 2.243 2.283
2189.804 2.284 2.308 2.327 2.353 2.375 2.403 2.444 2.454 2.52 2.606
2209.098 2.643 2.687 2.785 2.891 2.949 3.04839 3.1564 3.2372 3.3129 3.388
2228.391 3.5025 3.6252 3.7122 3.7875 3.8727 3.9652 4.07 4.19 4.31 4.4
2247.685 4.43 4.44 4.46 4.44 4.41 4.34 4.23 4.15 4.006 3.843
2266.978 3.6999 3.5324 3.3797 3.2617 3.1578 3.0303 2.921 2.855 2.753 2.606
2286.272 2.549 2.541 2.502 2.431 2.353 2.354 2.385 2.348 2.32 2.324
2305.565 2.306 2.266 2.266 2.265 2.282 2.346 2.368 2.359 2.335 2.28
2324.858 2.248 2.227 2.181 2.208 2.221 2.198 2.249 2.287 2.307 2.365
2344.152 2.359 2.306 2.253 2.231 2.223 2.182 2.154 2.118 2.111 2.156
2363.445 2.163 2.139 2.198 2.272 2.262 2.243 2.273 2.308 2.276 2.214
2382.739 2.125 2.088 2.089 2.058 2.05 2.02 2 1.98 1.94 1.97
2402.032 1.97 1.93 1.94 1.95 1.95 1.95 1.96 1.95 1.92 1.92
2421.326 1.93 1.95 1.98 1.98 1.96 1.92 1.95 1.98 1.97 2.054
2440.619 2.088 2.104 2.141 2.156 2.184 2.203 2.236 2.329 2.396 2.437
2459.912 2.455 2.471 2.515 2.552 2.56 2.551 2.551 2.484 2.393 2.301
2479.206 2.177 2.114 2.102 2.058 1.99 1.96 1.97 1.98 1.89 1.85
2498.499 1.82 1.75 1.74 1.74 1.68 1.67 1.7 1.65 1.6 1.57
2517.793 1.6 1.64 1.6 1.57 1.56 1.55 1.57 1.52 1.48 1.48
2537.086 1.48 1.48 1.5 1.51 1.52 1.57 1.55 1.5 1.52 1.49
2556.380 1.53 1.59 1.61 1.61 1.59 1.56 1.5 1.48 1.5 1.47
2575.673 1.45 1.44 1.38 1.37 1.38 1.38 1.4 1.4 1.38 1.42
2594.966 1.41 1.36 1.35 1.39 1.39 1.36 1.33 1.33 1.3 1.25
2614.260 1.28 1.3 1.32 1.28 1.25 1.29 1.25 1.2 1.18 1.22
2633.553 1.25 1.29 1.33 1.26 1.23 1.29 1.25 1.19 1.22 1.19
2652.847 1.16 1.15 1.13 1.12 1.19 1.22 1.2 1.24 1.27 1.26
2672.140 1.26 1.3 1.25 1.18 1.2 1.21 1.21 1.24 1.2 1.2
2691.434 1.22 1.19 1.16 1.16 1.11 1.12 1.15 1.1 1.06 1.07
2710.727 1.06 1.07 1.05 1.03 1.06 1.06 1.08 1.09 1.07 1.01
2730.020 1.01 1.03 1.03 1 0.96 0.98 0.91 0.89 1.02 1.08
2749.314 0.95 0.85 0.92 0.94 0.96 0.98 0.97 0.98 1.01 0.98
2768.607 0.86 0.86 0.96 0.91 0.88 0.87 0.91 0.93 0.9 0.92
2787.901 0.87 0.8 0.81 0.81 0.73 0.82 0.95 0.92 0.79 0.77
2807.194 0.8 0.8 0.74 0.73 0.74 0.69 0.73 0.74 0.69 0.74
2826.488 0.82 0.82 0.74 0.79 0.9 0.92 0.88 0.92 0.98 0.93
2845.781 0.86 0.82 0.74 0.68 0.71 0.77 0.74 0.66 0.68 0.69
2865.074 0.63 0.57 0.63 0.6 0.48 0.46 0.52 0.48 0.46 0.45
2884.368 0.44 0.49 0.54 0.57 0.65 0.55 0.37 0.41 0.48 0.43
2903.661 0.36 0.43 0.53 0.47 0.33 0.26 0.32 0.32 0.3 0.24
2922.955 0.2 0.2 0.18 0.22 0.2 0.2 0.22 0.17 0.13 0.1
2942.248 0.17 0.28 0.15 0.03 0.18 0.27 0.18 0.09 0.08 0.06
2961.542 0 0.05 0.05 0.08 0.08 0.03 0.03 0.06 0.11 0.08
2980.835 0.04 0.04 0.15 0.23 0.21 0.29 0.31 0.18 0.12 0.29
3000.128 0.33 0.21 0.12 0.01 0.04 0.13 0.11 0.11 0.2 0.22
3019.422 0.23 0.33 0.38 0.31 0.46 0.55 0.43 0.46 0.6 0.7
3038.715 0.72 0.72 0.79 0.84 0.84 0.79 0.67 0.55 0.57 0.64
3058.009 0.59 0.47 0.52 0.6 0.55 0.61 0.66 0.53 0.55 0.63
3077.302 0.72 0.86 0.81 0.88 1.01 1.06 1.14 1.16 1.26 1.27
3096.596 1.3 1.38 1.32 1.1 0.94 0.79 0.66 0.63 0.52 0.55
3115.889 0.49 0.4 0.26 0.24 0.39 0.34 0.17 0.06 0.14 0.29
3135.182 0.3 0.16 0.15 0.1 0.13 0.14 0.11 0.22 0.2 0.11
3154.476 0.13 0.23 0.17 0.13 0.28 0.2 0.03 0.19 0.28 0.2
3173.769 0.2 0.24 0.26 0.31 0.24 0.13 0.21 0.26 0.16 0.21
3193.063 0.33 0.29 0.25 0.13 0.01 0 0 0.12 0.17 0.23
3212.356 0.38 0.33 0.26 0.37 0.36 0.26 0.35 0.32 0.08 0.09
3231.650 0.28 0.35 0.41 0.45 0.4 0.29 0.29 0.37 0.42 0.61
3250.943 0.61 0.42 0.27 0.35 0.5 0.34 0.19 0.28 0.42 0.49
3270.236 0.39 0.24 0.34 0.51 0.4 0.28 0.42 0.6 0.53 0.33
3289.530 0.43 0.38 0.35 0.49 0.46 0.39 0.45 0.52 0.48 0.5
3308.823 0.58 0.68 0.78 0.64 0.47 0.55 0.53 0.43 0.56 0.57
3328.117 0.49 0.65 0.69 0.61 0.58 0.57 0.66 0.81 0.77 0.72
3347.410 0.64 0.54 0.64 0.84 0.88 0.67 0.64 0.66 0.65 0.71
3366.704 0.52 0.58 0.7 0.65 0.64 0.63 0.87 1.04 0.9 0.74
3385.997 0.76 0.8 0.69 0.7 0.73 0.83 0.88 0.78 0.78 0.65
3405.290 0.72 0.96 0.91 0.79 0.89 0.97 0.88 0.98 1.16 1.04
3424.584 0.95 1.07 1.03 0.82 0.83 0.89 0.93 0.99 0.97 1.1
3443.877 1.1 0.95 0.9 0.94 1.03 1.02 1.01 1.11 1.12 1.16
3463.171 1.1 1.1 1.11 1.1 1.18 1.11 1.02 0.98 1.08 0.99
3482.464 0.92 0.99 0.93 1.06 1.24 1.18 1.14 1.12 0.99 0.93
3501.758 1.14 1.28 1.27 1.32 1.2 1.07 1.1 1.11 1.09 1.17
3521.051 1.19 1.15 1.22 1.24 1.32 1.43 1.4 1.35 1.24 1.24
3540.344 1.32 1.39 1.47 1.38 1.27 1.41 1.44 1.34 1.32 1.1
3559.638 1.19 1.42 1.33 1.27 1.3 1.3 1.4 1.42 1.37 1.35
3578.931 1.34 1.39 1.32 1.35 1.41 1.39 1.31 1.29 1.37 1.42
3598.225 1.42 1.42 1.34 1.19 1.28 1.44 1.47 1.42 1.43 1.52
3617.518 1.6 1.64 1.6 1.58 1.5 1.57 1.5 1.43 1.51 1.57
3636.812 1.56 1.57 1.6 1.44 1.49 1.58 1.65 1.7 1.57 1.6
3656.105 1.66 1.68 1.68 1.61 1.66 1.7 1.57 1.52 1.53 1.53
3675.398 1.61 1.64 1.71 1.7 1.52 1.52 1.53 1.47 1.48 1.49
3694.692 1.54 1.6 1.6 1.6 1.48 1.32 1.28 1.37 1.47 1.53
3713.985 1.55 1.55 1.62 1.64 1.61 1.68 1.74 1.76 1.7 1.63
3733.279 1.66 1.66 1.53 1.47 1.59 1.57 1.52 1.56 1.57 1.47
3752.572 1.38 1.44 1.57 1.56 1.51 1.56 1.54 1.54 1.66 1.62
3771.866 1.56 1.6 1.59 1.61 1.59 1.49 1.49 1.46 1.46 1.56
3791.159 1.55 1.54 1.46 1.37 1.47 1.53 1.46 1.48 1.49 1.48
3810.452 1.52 1.56 1.48 1.48 1.48 1.49 1.43 1.42 1.55 1.48
3829.746 1.46 1.57 1.47 1.42 1.5 1.49 1.43 1.44 1.52 1.55
3849.039 1.6 1.59 1.53 1.49 1.49 1.6 1.51 1.48 1.57 1.62
3868.333 1.68 1.59 1.52 1.46 1.4 1.45 1.5 1.5 1.57 1.63
3887.626 1.67 1.66 1.56 1.5 1.53 1.58 1.58 1.63 1.62 1.56
3906.920 1.51 1.47 1.44 1.44 1.53 1.52 1.49 1.51 1.56 1.58
3926.213 1.54 1.48 1.45 1.43 1.47 1.51 1.55 1.6 1.63 1.54
3945.506 1.43 1.47 1.43 1.46 1.54 1.46 1.43 1.4 1.34 1.36
3964.800 1.42 1.46 1.5 1.49 1.4 1.4 1.43 1.41 1.42 1.51
3984.093 1.48 1.44 1.5 1.52 1.51 1.39 1.35 1.41 1.46
##END=
