##TITLE=O-4-Methylphenyl chlorothioformate
##JCAMP-DX=4.24
##DATA TYPE=INFRARED SPECTRUM
##ORIGIN=EPA-IR VAPOR PHASE LIBRARY
##OWNER=SRD/NIST
Collection (C) 2018 copyright by the U.S. Secretary of Commerce
on behalf of the United States of America. All rights reserved.
##CAS REGISTRY NO=937-63-3
##MOLFORM=C 8 H 7 Cl O S
##$NIST SOURCE=MSDC-IR
##STATE=gas
##XUNITS=1/CM
##YUNITS=ABSORBANCE
##XFACTOR=1.
##YFACTOR=0.001
##DELTAX=1.92898
##FIRSTX=549.8
##LASTX=4000.7
##FIRSTY=3.165
##MAXX=4000.7
##MINX=549.759
##MAXY=0.381305
##MINY=0
##NPOINTS=1790
##XYDATA=(X++(Y..Y))
549.759 3.165 2.745 2.435 2.135 2.175 2.195 2.035 2.185 2.085 2.095
569.049 2.355 2.335 2.465 2.705 2.635 2.705 2.985 2.785 2.885 3.245
588.339 3.585 3.805 3.985 4.205 4.295 4.505 4.625 4.525 4.485 4.515
607.628 4.485 4.355 4.075 3.735 3.465 3.105 2.815 2.535 2.355 2.435
626.918 2.265 2.075 2.105 2.175 2.335 2.375 2.435 2.715 3.015 3.435
646.208 3.835 4.425 5.295 6.295 7.565 8.795 9.745 10.345 10.655 10.655
665.498 10.115 9.095 8.215 7.535 6.965 6.475 6.025 5.625 5.175 4.555
684.787 3.965 3.625 3.315 3.145 3.235 3.215 3.275 3.535 3.865 4.545
704.077 5.415 6.595 7.675 8.175 8.385 8.475 8.445 7.745 6.515 5.675
723.367 5.295 5.805 7.085 8.535 9.795 10.675 11.165 11.065 10.715 9.665
742.657 7.715 5.805 4.495 3.485 3.035 2.935 2.785 2.615 2.545 2.495
761.947 2.515 2.585 2.435 2.485 2.685 2.775 2.735 2.655 2.755 2.905
781.236 2.975 3.235 3.255 3.365 3.805 3.975 4.055 4.595 5.495 6.485
800.526 7.905 9.655 11.885 14.655 17.845 21.615 25.515 29.255 32.305 34.385
819.816 35.375 35.285 34.535 32.605 29.355 25.395 21.305 17.605 14.605 12.265
839.106 10.135 8.485 7.425 6.625 6.035 5.645 5.245 4.895 4.575 4.275
858.395 4.185 3.935 3.675 3.605 3.295 3.085 3.095 2.895 2.835 2.885
877.685 2.875 2.925 2.825 2.975 3.305 3.375 3.345 3.355 3.635 3.825
896.975 3.845 3.985 4.065 4.005 3.835 3.635 3.565 3.685 3.655 3.515
916.265 3.445 3.475 3.295 3.205 3.415 3.585 3.735 3.935 4.215 4.365
935.555 4.725 5.115 5.355 5.795 6.275 6.525 6.835 7.325 7.745 8.195
954.844 8.725 9.275 10.055 11.005 12.145 13.725 15.315 16.955 18.545 20.105
974.134 22.035 24.105 26.455 29.155 32.435 36.735 42.015 48.385 56.465 66.405
993.424 77.905 91.035 106.115 123.545 142.785 163.655 186.025 208.775 231.105 251.375
1012.714 267.895 277.875 278.635 271.085 256.595 236.745 212.705 185.565 158.245 132.655
1032.003 110.015 91.335 75.495 61.565 49.945 40.535 33.335 27.775 23.525 20.785
1051.293 18.805 17.575 16.645 16.165 16.645 16.815 16.655 17.085 16.995 16.345
1070.583 15.835 15.315 14.625 13.725 12.855 12.215 11.815 11.535 11.145 10.785
1089.873 10.855 11.055 11.355 11.855 12.175 12.595 13.865 15.075 15.145 15.285
1109.163 15.065 13.825 12.795 11.495 10.265 9.675 8.995 8.515 8.475 8.475
1128.452 8.515 8.645 8.995 9.775 10.775 12.255 14.155 16.745 20.635 26.365
1147.742 35.365 48.175 64.955 83.815 99.985 109.515 113.185 113.415 108.235 95.005
1167.032 75.075 56.095 45.005 42.535 47.245 57.865 73.095 91.735 111.385 129.515
1186.322 144.095 153.265 155.655 150.645 138.625 121.865 104.115 87.995 75.135 66.685
1205.611 62.545 61.575 63.115 66.385 71.465 78.285 86.135 95.285 105.175 115.225
1224.901 125.945 138.675 153.785 171.215 191.815 216.245 243.785 272.185 300.235 326.815
1244.191 349.835 367.705 378.715 381.305 375.375 361.875 341.435 313.835 280.255 244.635
1263.481 210.065 177.595 148.165 123.485 104.145 88.895 76.435 65.955 57.205 50.005
1282.771 43.895 38.655 34.315 30.765 28.025 25.895 24.385 23.295 22.455 21.795
1302.060 21.195 20.645 20.035 19.325 18.585 17.855 17.025 16.195 15.425 14.605
1321.350 13.765 13.045 12.365 11.675 11.025 10.375 9.705 9.045 8.395 7.905
1340.640 7.495 7.045 6.665 6.245 5.865 5.515 5.245 5.095 4.925 4.795
1359.930 4.735 4.655 4.525 4.425 4.445 4.485 4.485 4.545 4.635 4.725
1379.219 4.945 5.235 5.495 5.635 5.665 5.635 5.515 5.285 5.065 4.975
1398.509 5.005 5.145 5.315 5.575 5.915 6.295 6.675 7.005 7.215 7.275
1417.799 7.235 7.085 6.895 6.645 6.425 6.175 5.925 5.775 5.655 5.555
1437.089 5.425 5.275 5.145 5.075 4.955 4.835 4.785 4.695 4.715 4.835
1456.378 4.885 4.925 5.065 5.215 5.445 5.675 5.805 5.975 6.215 6.485
1475.668 6.835 7.385 8.205 9.385 11.125 13.575 17.065 22.145 29.345 39.135
1494.958 52.055 68.295 86.035 102.135 112.445 114.685 110.265 101.475 88.315 69.785
1514.248 48.795 31.415 20.605 14.975 11.965 10.155 8.895 7.975 7.195 6.555
1533.538 5.955 5.345 4.935 4.595 4.295 3.975 3.735 3.585 3.525 3.455
1552.827 3.345 3.235 3.145 3.065 3.065 3.145 3.175 3.165 3.055 2.975
1572.117 2.975 2.975 2.955 2.975 3.165 3.475 3.705 4.035 4.515 4.915
1591.407 5.245 5.665 6.055 6.395 6.705 6.895 6.915 6.745 6.495 6.105
1610.697 5.685 5.265 4.815 4.535 4.405 4.255 4.175 4.245 4.305 4.385
1629.986 4.475 4.495 4.445 4.325 4.125 3.915 3.615 3.295 3.055 2.775
1649.276 2.485 2.365 2.245 2.105 2.025 1.985 1.915 1.845 1.885 1.985
1668.566 2.025 2.045 2.065 2.025 2.005 1.915 1.835 1.845 1.865 1.795
1687.856 1.695 1.635 1.605 1.605 1.555 1.405 1.335 1.355 1.355 1.265
1707.146 1.185 1.155 1.1285 1.145 1.175 1.225 1.255 1.315 1.405 1.415
1726.435 1.515 1.635 1.655 1.695 1.805 1.945 2.075 2.165 2.225 2.345
1745.725 2.475 2.515 2.555 2.605 2.605 2.685 2.755 2.805 2.825 2.775
1765.015 2.705 2.495 2.225 1.975 1.665 1.405 1.265 1.175 1.043 0.9018
1784.305 0.8448 0.7989 0.8109 0.793 0.7371 0.7322 0.7075 0.7591 0.7864 0.7311
1803.594 0.7698 0.8017 0.8073 0.9022 0.8953 0.8919 0.9393 0.9011 1 1.0938
1822.884 1.0573 1.0394 1.0364 1.039 1.0141 1.031 1.0543 1.0799 1.1181 1.175
1842.174 1.205 1.255 1.315 1.295 1.355 1.495 1.565 1.635 1.805 1.965
1861.464 2.135 2.465 2.845 3.195 3.595 3.935 4.245 4.595 4.865 5.045
1880.754 5.095 5.005 4.815 4.645 4.515 4.335 4.085 3.875 3.685 3.525
1900.043 3.365 3.195 3.045 2.935 2.805 2.715 2.675 2.595 2.535 2.475
1919.333 2.465 2.435 2.355 2.255 2.125 2.015 1.905 1.755 1.645 1.595
1938.623 1.515 1.405 1.365 1.435 1.455 1.435 1.465 1.475 1.485 1.525
1957.913 1.615 1.705 1.755 1.785 1.845 1.915 2.015 2.065 2.095 2.195
1977.202 2.275 2.395 2.485 2.475 2.485 2.525 2.515 2.505 2.465 2.325
1996.492 2.175 2.085 2.005 1.855 1.755 1.715 1.625 1.545 1.485 1.425
2015.782 1.355 1.325 1.335 1.325 1.315 1.315 1.295 1.245 1.165 1.0797
2035.072 0.9997 0.9662 0.9962 0.9261 0.8641 0.8775 0.8736 0.8252 0.8026 0.8282
2054.362 0.8346 0.8394 0.8432 0.9216 0.9762 0.9592 0.9648 1.0375 1.105 1.1371
2073.651 1.1137 1.0344 1.0059 1.0109 0.9758 0.9612 0.9392 0.87 0.8042 0.7255
2092.941 0.7215 0.7325 0.7011 0.669 0.6668 0.6293 0.5865 0.6002 0.6076 0.579
2112.231 0.5784 0.5945 0.5589 0.482 0.491 0.5767 0.5609 0.4762 0.4803 0.5301
2131.521 0.4895 0.5028 0.4773 0.394 0.4062 0.3901 0.4358 0.4709 0.3922 0.4081
2150.810 0.4514 0.446 0.4683 0.478 0.4862 0.503 0.5397 0.6211 0.6606 0.6402
2170.100 0.6769 0.7039 0.6657 0.7151 0.8028 0.7925 0.8186 0.8398 0.8465 0.8504
2189.390 0.8851 0.9434 0.9824 1.0675 1.0904 1.195 1.335 1.355 1.435 1.545
2208.680 1.595 1.675 1.845 2.015 2.085 2.155 2.265 2.345 2.515 2.705
2227.970 2.815 2.985 3.135 3.265 3.425 3.595 3.745 3.895 4.145 4.295
2247.259 4.355 4.545 4.775 4.905 4.905 4.955 4.995 4.955 4.845 4.705
2266.549 4.545 4.425 4.195 3.845 3.655 3.385 3.055 2.855 2.615 2.365
2285.839 2.215 2.085 1.885 1.785 1.705 1.585 1.575 1.515 1.425 1.435
2305.129 1.475 1.535 1.515 1.525 1.615 1.545 1.515 1.555 1.515 1.465
2324.418 1.435 1.415 1.385 1.355 1.405 1.355 1.315 1.415 1.415 1.425
2343.708 1.445 1.425 1.375 1.305 1.185 1.0977 1.0422 0.9905 0.9577 0.9582
2362.998 0.9241 0.8395 0.7945 0.7875 0.796 0.7505 0.7453 0.7851 0.7624 0.7415
2382.288 0.7576 0.7815 0.7946 0.8425 0.8257 0.7876 0.8194 0.7838 0.8272 0.8733
2401.578 0.8642 0.9034 0.8799 0.8687 0.9152 0.9633 0.9935 0.9787 0.9628 0.9594
2420.867 0.9698 0.9617 0.9416 0.9759 1.0453 1.082 1.0582 1.0804 1.1025 1.0713
2440.157 1.0259 1.0552 1.1336 1.175 1.235 1.275 1.295 1.335 1.405 1.475
2459.447 1.565 1.585 1.565 1.755 1.895 1.885 1.875 2.035 2.115 2.055
2478.737 2.155 2.205 2.165 2.095 2.025 2.025 2.015 1.895 1.725 1.625
2498.026 1.535 1.405 1.305 1.265 1.195 1.1039 0.9925 0.8948 0.9429 1.0037
2517.316 0.9251 0.8335 0.8184 0.7918 0.7492 0.7237 0.7019 0.6035 0.5855 0.6752
2536.606 0.6308 0.5473 0.5553 0.54 0.5348 0.575 0.5397 0.4764 0.4227 0.435
2555.896 0.4417 0.4307 0.5115 0.5771 0.5488 0.544 0.5168 0.5277 0.5225 0.521
2575.186 0.6626 0.6947 0.5876 0.5408 0.5916 0.67 0.6532 0.607 0.6658 0.6643
2594.475 0.5862 0.5448 0.514 0.4658 0.468 0.5488 0.5224 0.4202 0.4302 0.3766
2613.765 0.281 0.2958 0.4139 0.4631 0.3699 0.3103 0.2852 0.2636 0.2584 0.3249
2633.055 0.343 0.3629 0.3501 0.2966 0.3108 0.17867 0.14135 0.2627 0.2635 0.21321
2652.345 0.2462 0.2957 0.3324 0.3677 0.3573 0.3196 0.3268 0.3019 0.21827 0.2518
2671.634 0.3141 0.3127 0.2855 0.3004 0.3359 0.2562 0.19217 0.23449 0.2578 0.3161
2690.924 0.3249 0.23824 0.305 0.3772 0.3278 0.3334 0.3995 0.4606 0.4374 0.424
2710.214 0.4852 0.4702 0.4398 0.4519 0.4649 0.3763 0.3216 0.4397 0.5009 0.4544
2729.504 0.4674 0.5024 0.5767 0.6824 0.6594 0.6903 0.77 0.8562 1.0061 1.1304
2748.794 1.195 1.0978 1.0438 0.9528 0.7768 0.6672 0.633 0.6455 0.5805 0.5801
2768.083 0.5671 0.4722 0.5109 0.492 0.4545 0.4267 0.4481 0.5108 0.4634 0.4283
2787.373 0.4713 0.5198 0.5198 0.4693 0.494 0.5743 0.6331 0.705 0.7481 0.7558
2806.663 0.7172 0.6704 0.6974 0.8436 0.832 0.7812 0.8782 0.9525 0.9509 0.952
2825.953 0.9475 0.9906 1.0535 1.1206 1.165 1.235 1.455 1.585 1.655 1.795
2845.242 1.945 2.125 2.375 2.665 2.915 3.135 3.425 3.815 4.235 4.675
2864.532 5.215 5.755 6.325 6.905 7.545 8.295 8.725 8.985 9.195 9.095
2883.822 8.895 8.705 8.465 8.025 7.615 7.425 7.205 6.975 6.835 6.805
2903.112 6.735 6.805 7.035 7.305 7.545 7.755 8.115 8.755 9.565 10.365
2922.401 11.255 12.335 13.675 15.065 16.375 17.555 18.455 18.815 18.655 18.025
2941.691 16.965 15.575 13.815 12.035 10.555 9.205 8.075 7.315 6.695 6.135
2960.981 5.745 5.495 5.295 5.125 5.015 5.015 4.845 4.745 4.915 4.945
2980.271 4.875 4.955 5.225 5.585 5.995 6.435 6.715 6.955 7.345 7.745
2999.561 7.995 8.205 8.285 8.285 8.395 8.485 8.555 8.605 8.635 8.775
3018.850 8.905 9.035 9.425 9.955 10.645 11.745 13.125 14.665 16.325 17.795
3038.140 18.875 19.585 19.715 19.285 18.355 17.045 15.505 13.995 12.675 11.475
3057.430 10.385 9.505 8.715 7.905 7.375 6.915 6.305 5.935 5.515 5.215
3076.720 5.065 4.765 4.535 4.285 4.105 3.975 3.755 3.505 3.305 3.325
3096.009 3.485 3.425 3.385 3.445 3.495 3.545 3.445 3.365 3.395 3.365
3115.299 3.255 3.165 2.955 2.605 2.435 2.265 1.955 1.695 1.545 1.305
3134.589 1.0956 1.0333 0.9106 0.8199 0.7802 0.6866 0.6387 0.648 0.557 0.423
3153.879 0.4327 0.4016 0.3144 0.3249 0.3594 0.5056 0.5106 0.457 0.4513 0.3931
3173.169 0.4971 0.6403 0.5835 0.5434 0.5024 0.4225 0.4159 0.3568 0.3208 0.4514
3192.458 0.522 0.4137 0.3667 0.3841 0.3016 0.20525 0.2533 0.3497 0.3923 0.3506
3211.748 0.22402 0.1346 0.18476 0.2168 0.21135 0.23883 0.23965 0.20173 0.20985 0.3072
3231.038 0.3625 0.434 0.4847 0.4254 0.23867 0.18724 0.129 0.0692 0.23244 0.3302
3250.328 0.2797 0.22338 0.21448 0.21842 0.20703 0.22221 0.3335 0.322 0.2725 0.3302
3269.617 0.3374 0.3074 0.3065 0.3135 0.22649 0.16269 0.23014 0.2686 0.3155 0.3056
3288.907 0.23879 0.21088 0.19241 0.16901 0.24078 0.2955 0.2454 0.20382 0.2513 0.4214
3308.197 0.4094 0.2754 0.3629 0.3486 0.3451 0.3489 0.20741 0.152604 0.22815 0.2648
3327.487 0.18364 0.2908 0.3373 0.21618 0.1318 0.0978 0.1247 0.20418 0.145127 0.22678
3346.777 0.2813 0.17075 0.0517 0.023 0.1168 0 0.1343 0.3467 0.3433 0.4322
3366.066 0.4274 0.3451 0.3475 0.4096 0.3884 0.2467 0.2688 0.28 0.2837 0.3069
3385.356 0.3251 0.2508 0.16605 0.146778 0.14241 0.3073 0.21751 0.2038 0.3513 0.2806
3404.646 0.1268 0.1127 0.102 0.0937 0.1052 0.1197 0.17849 0.15789 0.2572 0.3255
3423.936 0.2793 0.15939 0.1267 0.0569 0.014 0.1314 0.2484 0.3355 0.2852 0.14288
3443.225 0.2337 0.2829 0.17265 0.15539 0.13861 0.17531 0.3463 0.3694 0.2839 0.328
3462.515 0.3534 0.3004 0.22775 0.22784 0.3 0.3776 0.2513 0.1065 0.2467 0.3179
3481.805 0.3797 0.4827 0.4341 0.3946 0.341 0.2908 0.3556 0.3908 0.3702 0.3502
3501.095 0.2384 0.147182 0.23374 0.2811 0.0942 0.1148 0.251 0.20437 0.2888 0.3028
3520.385 0.24166 0.2706 0.1333 0.13579 0.1188 0.0596 0.19512 0.1305 0.0616 0.1117
3539.674 0.19335 0.20863 0.24031 0.18948 0.1211 0.20634 0.23391 0.3433 0.294 0.21341
3558.964 0.2497 0.21668 0.2472 0.324 0.22698 0.16037 0.0872 0.0754 0.15548 0.1228
3578.254 0.22006 0.2835 0.19476 0.1689 0.20299 0.21177 0.19264 0.102 0.029 0.0577
3597.544 0.1151 0.22212 0.2741 0.3121 0.3399 0.3341 0.3743 0.4427 0.4361 0.4434
3616.833 0.5124 0.4647 0.4255 0.3881 0.24412 0.17588 0.21322 0.2607 0.19943 0.3059
3636.123 0.3789 0.2699 0.2921 0.3549 0.4105 0.3641 0.2763 0.3466 0.399 0.2972
3655.413 0.3619 0.4104 0.4203 0.5531 0.5117 0.4136 0.4493 0.321 0.15723 0.2706
3674.703 0.2861 0.21457 0.3513 0.3323 0.2867 0.4622 0.6121 0.4989 0.4263 0.5334
3693.993 0.5224 0.45 0.2501 0.22692 0.24117 0.20119 0.2975 0.394 0.413 0.2635
3713.282 0.22586 0.3801 0.3309 0.2919 0.3699 0.3394 0.3434 0.3409 0.4651 0.4829
3732.572 0.3213 0.3207 0.4449 0.4464 0.4373 0.4028 0.3258 0.4268 0.3621 0.349
3751.862 0.317 0.21406 0.2973 0.4152 0.4389 0.4063 0.3622 0.332 0.3851 0.4577
3771.152 0.5325 0.3901 0.3972 0.3627 0.21847 0.2997 0.3553 0.2552 0.3111 0.3339
3790.441 0.3465 0.4627 0.2829 0.22098 0.3569 0.3209 0.2619 0.3106 0.2462 0.303
3809.731 0.287 0.3342 0.4555 0.2623 0.22919 0.4303 0.4848 0.405 0.3984 0.17923
3829.021 0.177 0.3548 0.42 0.5033 0.3803 0.3286 0.364 0.4556 0.4565 0.39
3848.311 0.3072 0.23555 0.365 0.3299 0.2554 0.2958 0.2479 0.19714 0.2628 0.4475
3867.601 0.5018 0.4021 0.3489 0.4513 0.5319 0.5362 0.3313 0.20105 0.4012 0.3712
3886.890 0.22933 0.3821 0.4987 0.4034 0.3963 0.3797 0.41 0.3825 0.3668 0.5295
3906.180 0.534 0.5158 0.5114 0.6402 0.6193 0.4547 0.4386 0.4072 0.4571 0.5272
3925.470 0.4458 0.3466 0.3469 0.4139 0.4641 0.4299 0.3948 0.402 0.4827 0.4531
3944.760 0.2814 0.22333 0.2602 0.4364 0.5161 0.3465 0.23877 0.3055 0.5755 0.5994
3964.049 0.4164 0.3471 0.3183 0.27 0.2261 0.22507 0.3483 0.5207 0.5668 0.4083
3983.339 0.2969 0.4661 0.5452 0.4042 0.23295 0.1012 0.0568 0.15647 0.4884 0.488
##END=
