##TITLE=p-Chloro-methylphenyl acetic acid
##JCAMP-DX=4.24
##DATA TYPE=INFRARED SPECTRUM
##ORIGIN=NIST Mass Spectrometry Data Center
##OWNER=NIST Standard Reference Data Program
Collection (C) 2018 copyright by the U.S. Secretary of Commerce
on behalf of the United States of America. All rights reserved.
##CAS REGISTRY NO=938-95-4
##MOLFORM=C 9 H 9 Cl O 2
##$NIST SOURCE=MSDC-IR
##SPECTROMETER/DATA SYSTEM=HP-GC/MS/IRD
##STATE=gas
##XUNITS=1/CM
##YUNITS=ABSORBANCE
##XFACTOR=1.0
##YFACTOR=0.000002700
##DELTAX=4.0
##FIRSTX=550.0
##LASTX=3846.0
##FIRSTY=0.002427
##MAXX=3846
##MINX=550
##MAXY=0.027
##MINY=0
##NPOINTS=825
##XYDATA=(X++(Y..Y))
550.0 899 1760 1766 1915 1920 1898 1829 1719 1585 1454
590.0 1363 1341 1366 1408 1484 1509 1512 1487 1388 1287
630.0 1262 1261 1261 1200 1018 782 575 425 313 241
670.0 201 180 161 172 171 162 185 223 276 345
710.0 408 475 501 510 542 584 679 870 1154 1403
750.0 1488 1368 1079 772 575 475 415 374 377 386
790.0 403 448 526 573 603 654 727 839 953 1052
830.0 1110 1102 1019 889 743 600 466 340 247 173
870.0 111 91 77 46 30 32 26 17 23 32
910.0 9 1 7 11 22 23 24 24 30 34
950.0 36 47 67 104 133 164 204 273 377 458
990.0 534 596 645 733 960 1532 2007 2048 1713 1136
1030.0 885 937 1092 1272 1461 1662 1872 2122 2360 2589
1070.0 2744 2836 2975 3305 4065 5150 5930 5970 5285 4417
1110.0 4000 4041 4363 4813 5211 5395 5227 4757 4166 3596
1150.0 3135 2816 2575 2370 2127 1839 1553 1319 1155 1014
1190.0 904 827 757 668 581 517 470 446 443 419
1230.0 370 339 330 333 352 370 382 388 381 379
1270.0 382 387 423 452 480 513 545 570 583 605
1310.0 616 619 622 621 628 649 682 713 746 790
1350.0 838 877 904 905 873 839 807 792 789 768
1390.0 726 672 634 625 634 640 616 548 462 389
1430.0 342 324 333 377 445 536 658 785 870 906
1470.0 925 1002 1266 1852 2795 3716 3944 3323 2174 1156
1510.0 626 407 285 214 169 145 127 119 113 108
1550.0 102 102 117 125 135 147 151 161 173 193
1590.0 232 278 295 276 238 191 155 132 127 134
1630.0 134 140 144 148 157 156 148 142 125 108
1670.0 118 126 120 117 127 139 153 180 220 257
1710.0 306 382 482 626 822 1082 1389 1717 2072 2501
1750.0 3062 3808 4848 6326 8090 9545 10000 9149 7374 5603
1790.0 4342 3492 2893 2364 1864 1410 1042 772 578 448
1830.0 356 295 257 220 194 171 148 135 129 131
1870.0 138 145 163 187 199 196 193 178 149 119
1910.0 96 79 68 55 45 50 56 53 48 39
1950.0 25 25 28 30 36 34 28 27 24 23
1990.0 21 10 8 10 8 5 4 11 7 6
2030.0 0 1 11 8 6 12 15 18 14 5
2070.0 1 1 5 8 7 2 4 5 8 9
2110.0 10 17 18 23 25 20 12 13 17 17
2150.0 11 13 17 13 16 19 20 26 27 26
2190.0 27 32 34 31 29 33 30 29 30 27
2230.0 32 29 31 39 34 26 23 27 27 23
2270.0 23 30 37 42 46 49 51 56 63 62
2310.0 66 76 74 71 79 77 68 71 71 64
2350.0 65 81 89 92 99 98 75 54 47 37
2390.0 36 35 25 29 36 22 15 23 26 26
2430.0 34 39 38 34 28 29 24 24 21 24
2470.0 35 39 35 27 19 12 18 23 17 8
2510.0 5 19 24 23 19 20 27 28 23 20
2550.0 29 15 11 22 27 34 28 22 28 34
2590.0 34 31 35 38 34 31 23 24 20 13
2630.0 24 27 24 22 21 20 12 7 6 14
2670.0 20 19 19 9 2 16 23 24 21 20
2710.0 21 22 28 24 22 30 29 23 7 6
2750.0 20 26 24 26 36 30 23 29 30 35
2790.0 39 30 19 29 33 25 37 61 64 59
2830.0 60 54 64 78 67 58 64 83 97 107
2870.0 125 166 218 264 315 347 354 347 322 302
2910.0 298 313 333 345 379 444 526 624 725 801
2950.0 813 741 609 494 438 459 574 817 1193 1562
2990.0 1736 1615 1273 899 615 444 348 302 290 320
3030.0 364 378 391 377 344 316 280 253 233 208
3070.0 209 222 233 266 320 334 309 284 263 228
3110.0 182 146 116 83 54 62 59 34 34 41
3150.0 47 47 44 45 55 58 54 53 50 57
3190.0 46 31 42 52 52 41 38 46 43 38
3230.0 34 34 32 25 40 41 39 47 45 41
3270.0 33 31 44 50 46 39 41 25 10 7
3310.0 23 19 2 28 38 34 23 23 24 33
3350.0 26 19 40 46 37 34 36 38 36 22
3390.0 17 27 28 23 37 36 24 35 32 21
3430.0 14 11 24 31 33 30 35 33 34 43
3470.0 46 46 46 63 88 93 91 89 96 112
3510.0 106 115 132 133 173 206 220 250 282 352
3550.0 468 672 1078 1826 2914 3831 4028 3436 2315 1352
3590.0 807 502 333 251 206 161 126 122 96 81
3630.0 79 51 45 58 65 46 30 42 48 40
3670.0 35 46 64 63 61 65 72 59 40 33
3710.0 28 26 39 54 49 44 44 23 39 54
3750.0 32 27 41 66 70 52 33 37 39 44
3790.0 47 45 39 26 36 70 79 66 37 31
3830.0 63 54 39 55 56
##END=
