##TITLE=2',5'-Dihydroxypropiophenone
##JCAMP-DX=4.24
##DATA TYPE=INFRARED SPECTRUM
##ORIGIN=EPA-IR VAPOR PHASE LIBRARY
##OWNER=SRD/NIST
Collection (C) 2018 copyright by the U.S. Secretary of Commerce
on behalf of the United States of America. All rights reserved.
##CAS REGISTRY NO=938-46-5
##MOLFORM=C 9 H 10 O 3
##$NIST SOURCE=MSDC-IR
##STATE=gas
##XUNITS=1/CM
##YUNITS=ABSORBANCE
##XFACTOR=1.
##YFACTOR=0.001
##DELTAX=3.85796
##FIRSTX=501.5
##LASTX=4000.7
##FIRSTY=3.7
##MAXX=4000.7
##MINX=501.534
##MAXY=0.12605
##MINY=0.0004946
##NPOINTS=908
##XYDATA=(X++(Y..Y))
501.534 3.7 4.33 5.28 6.21 6.97 7.36 7.35 6.97 6.69 6.57
540.114 6.52 6.33 5.75 5.19 4.83 4.57 4.54 4.51 4.51 4.76
578.693 5.1 5.28 5.42 5.65 5.74 5.62 5.69 6.1 6.56 7.16
617.273 7.72 7.78 7.55 7.02 6.37 5.85 5.4 5.1 4.98 5.03
655.852 5.2 5.54 6.13 6.97 7.84 8.58 9.18 9.62 9.81 9.79
694.432 9.85 10.02 10.26 10.65 11.24 11.99 12.68 13.27 13.75 14.16
733.011 14.4 14.42 14.36 14.16 13.75 13.16 12.56 12.16 12.14 12.79
771.591 14.51 17.58 21.71 25.64 27.49 26.45 23.07 18.16 13.75 11.76
810.170 12.1 14.02 17.14 20.46 22.34 22.92 21.72 18.19 14.63 11.75
848.750 9.28 7.77 7.16 7.16 7.64 8.09 8.22 9.07 11.6 16.11
887.330 21.02 23.92 23.88 20.43 14.48 9.16 6.08 4.58 3.84 3.49
925.909 3.36 3.33 3.44 3.74 4.26 5.09 6.35 7.91 9.45 10.83
964.489 12.02 12.97 13.24 12.51 11.32 9.73 8.03 7.41 8.09 9.54
1003.068 10.82 11.21 10.56 8.85 6.68 4.96 3.95 3.39 3.11 3.08
1041.648 3.19 3.47 3.79 4.2 4.67 4.99 5.28 5.52 5.78 6.32
1080.227 6.93 7.33 7.54 7.54 7.61 7.64 7.72 7.93 8.19 8.59
1118.807 9.36 10.51 12.07 13.99 16.04 18.55 21.98 27.55 36.58 50.77
1157.387 71.04 93.86 112.84 124.42 126.05 116.62 101.91 87.94 76.52 68.25
1195.966 62.22 56.83 50.71 43.5 36.69 31.59 28.4 26.84 26.61 27.46
1234.546 29.22 31.82 35.11 38.9 43.02 46.88 50.13 53.18 56.79 62.21
1273.125 69.42 75.92 79.16 77.98 71.3 60.79 50.26 41.55 34.9 30.21
1311.705 27.05 24.91 23.65 23.31 24.12 26.09 28.64 31.06 32.68 33.3
1350.284 33.15 32.61 31.95 31.01 29.5 27.52 25.53 24 23.05 22.38
1388.864 21.71 20.92 20.28 20.3 20.88 21.78 22.88 24.15 25.52 26.82
1427.443 27.97 28.83 29.25 29.28 29.05 28.77 28.86 29.8 32.12 36.17
1466.023 42.83 52.55 65.6 79.94 91.59 97.3 95.84 86.77 71.63 55.48
1504.603 41.86 30.79 23.15 18.07 14.83 12.65 11.17 10.11 9.41 8.93
1543.182 8.59 8.4 8.46 8.78 9.42 10.43 11.91 14.08 16.81 20.05
1581.762 23.08 25.27 26.17 25.47 23.59 21.44 19.74 19.17 20.03 21.93
1620.341 24.2 26.39 28.47 30.66 33.9 39.44 48.11 60.11 72.48 81.59
1658.921 82.98 75.94 62.05 45.46 31.5 22.07 16.3 12.62 10.28 8.75
1697.500 7.65 6.86 6.3 5.88 5.56 5.31 5.04 4.83 4.62 4.36
1736.080 4.06 3.76 3.44 3.17 2.96 2.8 2.67 2.57 2.49 2.44
1774.659 2.37 2.26 2.13 2.01 1.9 1.79 1.68 1.6 1.53 1.44
1813.239 1.34 1.27 1.21 1.14 1.08 1.04 1.03 1.07 1.13 1.2
1851.819 1.3 1.42 1.52 1.57 1.59 1.57 1.53 1.58 1.69 1.82
1890.398 1.96 2.02 1.95 1.77 1.56 1.34 1.17 1.07 0.9841 0.9285
1928.978 0.921 0.8994 0.8874 0.8947 0.928 0.9609 0.9709 0.9875 0.9743 0.93
1967.557 0.8952 0.8714 0.8497 0.837 0.8354 0.8376 0.8299 0.8127 0.8134 0.8168
2006.137 0.8112 0.7951 0.8017 0.8058 0.8017 0.844 0.9083 0.9838 1.06 1.14
2044.716 1.2 1.22 1.23 1.22 1.17 1.11 1.05 0.9923 0.9507 0.907
2083.296 0.8646 0.8588 0.8357 0.7812 0.7375 0.7224 0.6976 0.6496 0.6213 0.6168
2121.875 0.6182 0.6245 0.6317 0.6432 0.6599 0.6701 0.6757 0.6864 0.684 0.6909
2160.455 0.684 0.6472 0.6184 0.6048 0.605 0.5927 0.573 0.558 0.5373 0.5111
2199.035 0.4946 0.4948 0.5006 0.5039 0.5036 0.5219 0.5435 0.5579 0.6012 0.648
2237.614 0.6798 0.7161 0.7336 0.7449 0.749 0.7461 0.7427 0.7495 0.7541 0.7562
2276.194 0.7727 0.7864 0.7681 0.7454 0.761 0.7641 0.7723 0.7706 0.7786 0.8119
2314.773 0.8312 0.8767 0.922 0.9544 0.9718 0.9931 1.04 1.08 1.13 1.2
2353.353 1.28 1.34 1.4 1.47 1.47 1.47 1.51 1.5 1.43 1.4
2391.932 1.37 1.33 1.26 1.23 1.24 1.23 1.24 1.26 1.27 1.28
2430.512 1.29 1.31 1.37 1.4 1.44 1.51 1.51 1.5 1.5 1.47
2469.092 1.41 1.39 1.39 1.38 1.35 1.32 1.3 1.28 1.28 1.29
2507.671 1.29 1.31 1.34 1.38 1.42 1.43 1.5 1.58 1.6 1.6
2546.251 1.58 1.59 1.6 1.58 1.61 1.61 1.58 1.61 1.65 1.63
2584.830 1.65 1.7 1.75 1.78 1.81 1.85 1.89 1.88 1.84 1.84
2623.410 1.85 1.86 1.88 1.86 1.87 1.9 1.98 2.04 2.08 2.12
2661.989 2.14 2.17 2.19 2.17 2.16 2.17 2.16 2.15 2.15 2.17
2700.569 2.18 2.19 2.22 2.23 2.25 2.3 2.32 2.34 2.4 2.5
2739.148 2.59 2.7 2.78 2.79 2.79 2.79 2.76 2.7 2.68 2.67
2777.728 2.67 2.65 2.62 2.63 2.64 2.68 2.73 2.76 2.82 2.9
2816.308 2.99 3.06 3.16 3.26 3.34 3.41 3.48 3.53 3.55 3.6
2854.887 3.7 3.84 4.06 4.34 4.76 5.36 6.09 6.98 7.89 8.55
2893.467 8.85 8.84 8.63 8.46 8.66 9.24 9.96 10.65 11.05 11.14
2932.046 11.12 11.34 12.27 14.12 15.96 16.75 16.43 14.97 12.87 11.55
2970.626 11.59 12.91 15.33 18.32 20.53 21.3 20.65 18.01 14.71 12.28
3009.205 10.7 9.88 9.62 9.67 9.95 10.38 10.87 11.37 11.79 12.06
3047.785 12.16 12.12 11.93 11.69 11.54 11.52 11.62 11.63 11.39 10.95
3086.364 10.39 9.94 9.68 9.54 9.48 9.51 9.59 9.69 9.8 9.9
3124.944 9.94 9.93 9.89 9.85 9.84 9.76 9.65 9.64 9.6 9.51
3163.524 9.48 9.48 9.44 9.4 9.37 9.33 9.34 9.37 9.3 9.23
3202.103 9.22 9.21 9.16 9.07 9.04 9 8.88 8.85 8.82 8.69
3240.683 8.57 8.5 8.44 8.42 8.4 8.38 8.42 8.44 8.43 8.39
3279.262 8.38 8.38 8.3 8.23 8.14 8.06 7.97 7.87 7.78 7.64
3317.842 7.46 7.26 7.05 6.88 6.72 6.52 6.38 6.28 6.13 5.96
3356.421 5.82 5.7 5.57 5.46 5.32 5.15 5.02 4.94 4.91 4.88
3395.001 4.86 4.9 4.84 4.74 4.63 4.59 4.56 4.46 4.36 4.26
3433.580 4.17 4.08 4.02 3.97 3.88 3.74 3.59 3.53 3.47 3.38
3472.160 3.27 3.17 3.1 3 2.89 2.8 2.69 2.6 2.53 2.47
3510.740 2.35 2.19 2.12 2.08 1.97 1.88 1.86 1.78 1.69 1.68
3549.319 1.64 1.58 1.6 1.6 1.54 1.46 1.4 1.35 1.32 1.34
3587.899 1.42 1.47 1.46 1.52 1.62 1.67 1.76 1.9 2.21 2.57
3626.478 3.12 4.05 5.49 7.8 11.59 17.15 24.66 31.12 32.62 30.15
3665.058 24 14.84 7.41 3.77 2.28 1.64 1.33 1.09 0.9952 0.9967
3703.637 0.9373 0.8861 0.8393 0.7791 0.7767 0.7447 0.7463 0.7586 0.7795 0.7586
3742.217 0.7016 0.6949 0.6958 0.6946 0.7482 0.7783 0.7616 0.7846 0.8557 0.8991
3780.797 0.8574 0.8383 0.9231 0.9327 0.8766 0.9366 0.9793 1.03 1.03 0.9913
3819.376 0.977 0.9774 0.9681 0.8719 0.8778 0.956 0.9807 0.9997 1.04 1.1
3857.956 1.11 1.06 1.08 1.08 0.9466 0.8513 0.8266 0.7703 0.7694 0.8344
3896.535 0.8729 0.9386 0.9523 0.8812 0.8624 0.8252 0.6942 0.6551 0.6723 0.6069
3935.115 0.5655 0.5731 0.5764 0.5561 0.5768 0.5984 0.6004 0.6201 0.6088 0.6283
3973.694 0.6552 0.6516 0.6905 0.6773 0.6949 0.7409 0.6431 0.5814
##END=
