##TITLE=2,4,6-Trimethylbenzoyl chloride
##JCAMP-DX=4.24
##DATA TYPE=INFRARED SPECTRUM
##ORIGIN=EPA-IR VAPOR PHASE LIBRARY
##OWNER=SRD/NIST
Collection (C) 2018 copyright by the U.S. Secretary of Commerce
on behalf of the United States of America. All rights reserved.
##CAS REGISTRY NO=938-18-1
##MOLFORM=C 10 H 11 Cl O
##$NIST SOURCE=MSDC-IR
##STATE=gas
##XUNITS=1/CM
##YUNITS=ABSORBANCE
##XFACTOR=1.
##YFACTOR=0.001
##DELTAX=1.929
##FIRSTX=549.8
##LASTX=4000.8
##FIRSTY=20.647
##MAXX=4000.75
##MINX=549.766
##MAXY=0.166817
##MINY=0
##NPOINTS=1790
##XYDATA=(X++(Y..Y))
549.766 20.647 18.667 16.337 13.697 11.177 8.877 7.147 5.697 4.727 4.197
569.056 3.607 3.177 3.037 2.887 2.647 2.597 2.607 2.647 2.777 3.007
588.346 3.517 4.417 5.577 7.087 9.467 12.617 16.687 22.257 28.727 35.177
607.636 41.077 46.427 50.647 51.117 47.157 41.647 35.357 28.417 21.847 16.137
626.926 11.927 8.987 6.837 5.477 4.737 4.097 3.617 3.467 3.417 3.317
646.216 3.137 3.127 2.957 2.867 3.087 2.987 2.917 2.917 2.847 2.917
665.506 3.097 3.377 3.527 3.557 3.627 3.667 3.787 3.767 3.747 3.787
684.796 3.747 3.717 3.607 3.527 3.467 3.587 3.697 3.757 4.117 4.577
704.086 5.017 5.517 5.977 6.377 6.587 6.647 6.647 6.507 6.327 6.037
723.376 5.987 6.237 6.387 6.547 6.697 6.817 6.647 6.467 6.167 5.567
742.666 4.957 4.417 4.027 3.697 3.487 3.327 3.207 3.217 3.287 3.347
761.956 3.467 3.647 3.937 4.197 4.597 5.027 5.457 6.147 6.967 7.807
781.246 8.867 10.287 12.097 14.287 16.997 20.017 23.157 26.667 30.357 34.127
800.536 38.167 42.817 48.517 55.407 63.737 73.827 85.747 99.727 115.097 130.267
819.826 143.757 153.987 159.347 159.337 153.707 143.057 128.767 112.177 95.097 79.127
839.116 65.557 55.047 47.637 42.587 39.047 36.557 34.077 30.977 28.447 26.507
858.406 24.257 21.897 19.747 17.867 16.287 14.967 13.847 12.837 11.897 10.877
877.696 9.947 9.287 8.697 8.117 7.517 6.977 6.517 6.077 5.637 5.267
896.986 4.987 4.717 4.517 4.417 4.387 4.307 4.287 4.367 4.417 4.417
916.276 4.317 4.177 4.157 4.027 3.957 3.997 3.917 3.977 4.177 4.377
935.566 4.697 5.137 5.667 6.427 7.277 8.027 8.697 9.297 9.697 9.767
954.856 9.577 9.137 8.427 7.617 6.847 6.087 5.357 4.847 4.467 4.177
974.146 3.997 3.827 3.657 3.547 3.547 3.497 3.417 3.367 3.407 3.447
993.436 3.507 3.637 3.707 3.857 4.087 4.137 4.237 4.357 4.377 4.427
1012.726 4.407 4.417 4.397 4.277 4.157 4.147 4.217 4.287 4.337 4.327
1032.016 4.357 4.477 4.597 4.607 4.517 4.457 4.417 4.247 4.027 3.897
1051.306 3.827 3.727 3.727 3.627 3.457 3.357 3.297 3.217 3.087 2.997
1070.596 2.897 2.777 2.717 2.547 2.417 2.427 2.477 2.457 2.397 2.517
1089.886 2.617 2.527 2.567 2.767 2.877 2.937 3.047 3.177 3.387 3.747
1109.176 4.087 4.357 4.667 5.037 5.537 6.227 7.107 8.277 9.837 11.847
1128.467 14.337 17.337 20.657 23.757 26.127 27.747 28.437 27.667 25.627 22.827
1147.757 19.377 15.467 11.967 9.547 7.677 6.217 5.337 4.717 4.167 3.737
1167.047 3.397 3.077 2.837 2.737 2.807 2.907 3.087 3.507 4.157 5.077
1186.337 6.427 8.267 10.747 14.117 18.277 22.657 26.597 29.817 31.927 32.587
1205.627 31.517 28.857 25.127 20.427 15.597 11.697 8.907 6.887 5.517 4.547
1224.917 3.837 3.487 3.257 3.017 2.887 2.787 2.707 2.687 2.657 2.637
1244.207 2.537 2.447 2.357 2.317 2.337 2.327 2.397 2.407 2.397 2.477
1263.497 2.547 2.687 2.847 2.867 2.987 3.187 3.307 3.367 3.557 3.827
1282.787 3.937 4.137 4.437 4.727 4.947 5.007 4.977 4.827 4.547 4.207
1302.077 3.837 3.447 3.057 2.757 2.567 2.437 2.407 2.397 2.357 2.417
1321.367 2.497 2.497 2.537 2.577 2.567 2.657 2.707 2.687 2.777 2.837
1340.657 2.857 3.007 3.117 3.147 3.227 3.357 3.527 3.637 3.727 3.867
1359.947 4.007 4.127 4.277 4.497 4.667 4.897 5.207 5.487 5.897 6.417
1379.237 7.017 7.597 8.067 8.357 8.477 8.517 8.397 7.997 7.477 6.967
1398.527 6.517 6.277 6.197 6.167 6.307 6.607 6.977 7.447 8.007 8.667
1417.817 9.377 10.067 10.727 11.327 11.827 12.197 12.507 12.717 12.807 12.807
1437.107 12.767 12.727 12.667 12.657 12.577 12.537 12.597 12.647 12.657 12.627
1456.397 12.587 12.567 12.507 12.387 12.247 12.067 11.877 11.677 11.457 11.167
1475.687 10.897 10.687 10.467 10.197 9.937 9.697 9.397 9.007 8.677 8.457
1494.977 8.187 7.927 7.747 7.587 7.457 7.367 7.277 7.217 7.227 7.227
1514.267 7.267 7.357 7.467 7.567 7.727 7.847 7.927 8.027 8.087 8.147
1533.557 8.237 8.277 8.257 8.247 8.257 8.247 8.237 8.297 8.347 8.407
1552.847 8.497 8.617 8.837 9.087 9.307 9.567 9.877 10.147 10.417 10.677
1572.137 10.847 11.007 11.157 11.197 11.147 11.177 11.157 11.187 11.377 11.827
1591.427 12.667 13.957 15.837 18.207 20.977 24.017 26.827 28.937 30.027 29.877
1610.717 28.547 26.157 23.087 19.367 15.427 11.937 9.077 6.997 5.627 4.777
1630.007 4.227 3.897 3.737 3.627 3.437 3.347 3.277 3.227 3.197 3.167
1649.297 3.157 3.107 2.977 2.877 2.797 2.717 2.687 2.567 2.497 2.447
1668.587 2.417 2.437 2.387 2.357 2.307 2.207 2.127 2.107 2.097 2.057
1687.877 2.057 2.087 2.067 2.087 2.147 2.167 2.267 2.347 2.407 2.527
1707.167 2.727 2.957 3.257 3.487 3.777 4.127 4.477 4.857 5.167 5.397
1726.457 5.627 5.877 6.117 6.317 6.487 6.727 6.937 7.207 7.647 8.207
1745.747 8.847 9.587 10.387 11.287 12.217 13.077 13.947 14.717 15.407 16.077
1765.037 16.737 17.457 18.367 19.527 21.167 23.197 25.967 29.797 35.097 42.157
1784.327 51.287 62.857 76.537 92.007 108.977 126.257 142.057 155.737 164.907 166.817
1803.617 159.547 144.777 126.427 107.867 89.887 72.817 57.167 43.587 32.867 25.067
1822.907 19.847 16.507 14.447 13.237 12.357 11.607 10.987 10.317 9.557 8.717
1842.197 7.767 6.917 6.217 5.657 5.277 5.067 4.977 4.987 5.077 5.187
1861.487 5.277 5.257 5.167 4.917 4.567 4.217 3.827 3.407 2.997 2.657
1880.777 2.367 2.137 1.947 1.777 1.657 1.5722 1.5399 1.4937 1.4061 1.3512
1900.067 1.33 1.274 1.2267 1.2392 1.2703 1.252 1.215 1.2363 1.2522 1.2725
1919.357 1.3306 1.3452 1.3299 1.3652 1.4153 1.3901 1.3363 1.3238 1.3429 1.3718
1938.647 1.3933 1.3876 1.3758 1.3905 1.4514 1.4969 1.5478 1.637 1.677 1.667
1957.937 1.667 1.677 1.677 1.627 1.5572 1.4565 1.395 1.3196 1.2652 1.2428
1977.227 1.1566 1.1464 1.1394 1.0823 1.1083 1.1064 1.0862 1.064 1.0078 1.0064
1996.517 0.999 0.9491 0.9206 0.8805 0.8818 0.9094 0.893 0.8614 0.8519 0.883
2015.807 0.9313 0.9458 0.9387 0.9358 0.9571 0.9567 0.917 0.904 0.8446 0.816
2035.097 0.8496 0.8098 0.7197 0.67276 0.63034 0.5811 0.60854 0.59526 0.5641 0.5804
2054.387 0.5832 0.5667 0.5392 0.5147 0.5169 0.5025 0.5442 0.5848 0.5485 0.5378
2073.677 0.5399 0.5637 0.5744 0.534 0.5262 0.5648 0.5713 0.5791 0.5385 0.5109
2092.967 0.5407 0.5292 0.5081 0.5232 0.5478 0.48 0.433 0.463 0.48 0.465
2112.257 0.468 0.478 0.451 0.42 0.435 0.481 0.486 0.421 0.457 0.5059
2131.547 0.487 0.5188 0.5426 0.5125 0.5185 0.5431 0.5134 0.5281 0.492 0.454
2150.837 0.5094 0.534 0.5142 0.471 0.463 0.481 0.5236 0.5548 0.5617 0.58
2170.127 0.5671 0.5623 0.5689 0.5373 0.574 0.603411 0.59674 0.62396 0.61041 0.5324
2189.417 0.487 0.5241 0.5367 0.494 0.4998 0.5328 0.532 0.5424 0.59105 0.62685
2208.707 0.5604 0.5562 0.6115 0.62266 0.61154 0.59131 0.59534 0.5781 0.5423 0.5826
2227.997 0.5727 0.5481 0.59241 0.581 0.5647 0.5453 0.5349 0.5657 0.5542 0.5232
2247.287 0.5046 0.5464 0.62819 0.66079 0.63986 0.59375 0.581 0.59461 0.6187 0.63938
2266.577 0.62717 0.61793 0.63507 0.64829 0.66015 0.63987 0.5148 0.485 0.5229 0.467
2285.868 0.475 0.493 0.488 0.468 0.446 0.363 0.366 0.447 0.473 0.485
2305.158 0.45 0.448 0.481 0.5022 0.5212 0.5818 0.603252 0.601205 0.62492 0.6328
2324.448 0.68357 0.7879 0.8168 0.7655 0.8027 0.8744 0.9137 0.9195 0.9196 0.9454
2343.738 0.9354 0.8661 0.809 0.75 0.7304 0.7162 0.64455 0.605538 0.5912 0.5757
2363.028 0.5634 0.5235 0.487 0.5039 0.4981 0.522 0.5728 0.5719 0.58828 0.6346
2382.318 0.61054 0.5676 0.5859 0.62972 0.66671 0.737 0.8009 0.7713 0.7875 0.8686
2401.608 0.8748 0.8674 0.867 0.8729 0.9088 0.9219 0.9244 0.921 0.9013 0.8599
2420.898 0.8322 0.8243 0.7754 0.66758 0.61417 0.67328 0.709 0.7152 0.7646 0.764
2440.188 0.64559 0.59091 0.5751 0.5797 0.60655 0.58773 0.5575 0.5813 0.62191 0.63012
2459.478 0.6411 0.62778 0.63066 0.598398 0.5751 0.62026 0.63274 0.59228 0.5611 0.61076
2478.768 0.602029 0.5334 0.494 0.489 0.5107 0.5216 0.5368 0.5491 0.582 0.571
2498.058 0.487 0.458 0.5054 0.476 0.493 0.5152 0.488 0.483 0.415 0.412
2517.348 0.44 0.485 0.5493 0.5161 0.447 0.453 0.456 0.455 0.5124 0.499
2536.638 0.487 0.432 0.39 0.403 0.408 0.485 0.495 0.428 0.38 0.387
2555.928 0.386 0.397 0.404 0.381 0.347 0.383 0.403 0.33 0.331 0.368
2575.218 0.405 0.446 0.459 0.489 0.468 0.411 0.407 0.418 0.424 0.447
2594.508 0.479 0.5066 0.485 0.402 0.475 0.5184 0.496 0.493 0.5173 0.597211
2613.798 0.5652 0.5794 0.6392 0.65098 0.67118 0.7103 0.7602 0.8195 0.7632 0.68578
2633.088 0.68134 0.6986 0.7285 0.738 0.7471 0.66625 0.604656 0.604987 0.66241 0.7022
2652.378 0.5776 0.456 0.469 0.5123 0.5452 0.5321 0.5226 0.58862 0.64385 0.6993
2671.668 0.7174 0.6993 0.7362 0.7385 0.7 0.68716 0.64994 0.5756 0.5528 0.5675
2690.958 0.5411 0.5408 0.5342 0.5041 0.483 0.495 0.438 0.422 0.451 0.47
2710.248 0.5769 0.62388 0.603964 0.5379 0.487 0.5626 0.7568 0.8533 0.8867 0.905
2729.538 0.9043 0.9934 1.0499 1.1416 1.2756 1.3934 1.5577 1.717 1.817 1.787
2748.828 1.737 1.857 1.917 1.737 1.5645 1.4309 1.2526 1.1999 1.2131 1.1362
2768.118 0.9844 0.9178 0.9109 0.8658 0.8706 0.859 0.7985 0.793 0.8277 0.8552
2787.408 0.9003 0.8947 0.8484 0.9254 1.0096 1.0477 1.1335 1.1962 1.2731 1.2669
2806.698 1.3523 1.4799 1.499 1.5506 1.4846 1.4599 1.5937 1.657 1.667 1.707
2825.988 1.847 1.997 2.047 2.137 2.287 2.417 2.627 2.867 3.047 3.287
2845.278 3.607 3.917 4.347 4.787 5.247 5.857 6.507 7.217 8.017 8.807
2864.568 9.557 10.377 11.107 11.637 12.027 12.317 12.417 12.287 11.997 11.657
2883.858 11.277 11.017 10.837 10.547 10.357 10.247 10.217 10.307 10.467 10.727
2903.148 10.947 11.237 11.767 12.287 12.867 13.657 14.677 15.957 17.397 19.127
2922.438 21.007 22.917 24.777 26.387 27.727 28.757 29.197 29.127 28.617 27.677
2941.728 26.327 24.757 23.107 21.297 19.577 18.057 16.777 15.727 14.847 14.117
2961.018 13.677 13.387 13.157 13.067 12.987 13.067 13.207 13.467 13.757 14.037
2980.308 14.357 14.567 14.827 15.027 15.147 15.377 15.617 15.677 15.687 15.697
2999.598 15.697 15.717 15.667 15.537 15.567 15.697 15.867 16.067 16.207 16.467
3018.888 16.607 16.787 17.057 17.237 17.367 17.277 17.197 17.047 16.747 16.467
3038.178 16.077 15.587 15.037 14.417 13.727 12.977 12.177 11.287 10.377 9.547
3057.468 8.747 7.977 7.317 6.757 6.287 5.827 5.507 5.247 4.877 4.507
3076.758 4.247 4.147 4.107 3.907 3.587 3.467 3.317 3.097 2.867 2.697
3096.048 2.547 2.327 2.167 2.017 1.947 1.927 1.877 1.687 1.5826 1.5467
3115.338 1.421 1.3157 1.2207 1.2228 1.1881 1.1613 1.1597 1.0257 0.9773 1.0018
3134.628 1.0332 0.9223 0.8927 0.9047 0.7915 0.8342 0.8678 0.7417 0.5821 0.5868
3153.918 0.602986 0.494 0.405 0.401 0.5537 0.6148 0.5587 0.5571 0.5324 0.476
3173.208 0.417 0.398 0.452 0.483 0.402 0.325 0.296 0.293 0.369 0.361
3192.498 0.273 0.315 0.397 0.381 0.353 0.399 0.278 0.19 0.238 0.229
3211.788 0.266 0.325 0.372 0.302 0.298 0.293 0.236 0.328 0.391 0.338
3231.078 0.223 0.189 0.309 0.398 0.403 0.409 0.357 0.299 0.259 0.229
3250.368 0.225 0.258 0.232 0.191 0.285 0.338 0.311 0.206 0.203 0.268
3269.658 0.21 0.28 0.217 0.059 0.236 0.311 0.231 0.266 0.18 0.101
3288.948 0.125 0.047 0 0.152 0.274 0.169 0.155 0.291 0.321 0.372
3308.238 0.32 0.218 0.23 0.224 0.22 0.235 0.292 0.289 0.218 0.109
3327.528 0.135 0.322 0.34 0.23 0.149 0.182 0.213 0.191 0.222 0.337
3346.818 0.328 0.212 0.115 0.103 0.218 0.261 0.231 0.301 0.49 0.38
3366.108 0.198 0.243 0.256 0.283 0.274 0.29 0.296 0.212 0.181 0.188
3385.398 0.203 0.122 0.17 0.322 0.218 0.12 0.289 0.301 0.165 0.151
3404.688 0.186 0.272 0.359 0.337 0.236 0.181 0.195 0.231 0.217 0.128
3423.978 0.11 0.184 0.26 0.293 0.208 0.173 0.139 0.141 0.156 0.215
3443.269 0.307 0.384 0.329 0.216 0.297 0.297 0.328 0.365 0.395 0.423
3462.559 0.385 0.403 0.405 0.423 0.352 0.292 0.38 0.316 0.351 0.335
3481.849 0.222 0.336 0.441 0.397 0.377 0.344 0.396 0.523 0.482 0.399
3501.139 0.296 0.326 0.439 0.364 0.357 0.495 0.481 0.494 0.5289 0.5067
3520.429 0.481 0.485 0.48 0.5259 0.5581 0.62481 0.64387 0.5798 0.5829 0.5896
3539.719 0.61813 0.68325 0.839 0.8186 0.69116 0.7901 1.018 1.2024 1.3057 1.4013
3559.009 1.5231 1.697 1.937 1.987 2.057 2.167 2.207 2.267 2.237 2.177
3578.299 2.127 2.077 1.977 2.027 1.847 1.5196 1.4814 1.4006 1.2716 1.2235
3597.589 1.1775 1.0506 0.8935 0.8274 0.7499 0.62524 0.485 0.5088 0.64359 0.559
3616.879 0.404 0.496 0.5294 0.427 0.424 0.346 0.193 0.26 0.36 0.385
3636.169 0.441 0.459 0.407 0.39 0.412 0.291 0.265 0.356 0.301 0.245
3655.459 0.258 0.249 0.372 0.382 0.279 0.236 0.2 0.18 0.122 0.116
3674.749 0.163 0.291 0.218 0.113 0.147 0.115 0.179 0.142 0.149 0.336
3694.039 0.249 0.158 0.211 0.244 0.285 0.261 0.165 0.143 0.17 0.137
3713.329 0.177 0.18 0.032 0.078 0.163 0.069 0.061 0.062 0.06 0.144
3732.619 0.178 0.178 0.246 0.321 0.385 0.326 0.298 0.306 0.243 0.297
3751.909 0.333 0.199 0.149 0.157 0.069 0.168 0.213 0.181 0.204 0.137
3771.199 0.142 0.202 0.31 0.286 0.241 0.384 0.37 0.261 0.287 0.301
3790.489 0.322 0.265 0.179 0.307 0.289 0.213 0.248 0.323 0.301 0.225
3809.779 0.28 0.265 0.215 0.232 0.222 0.241 0.301 0.208 0.2 0.175
3829.069 0.168 0.24 0.245 0.336 0.467 0.431 0.256 0.225 0.236 0.267
3848.359 0.343 0.276 0.339 0.487 0.401 0.295 0.3 0.376 0.429 0.495
3867.649 0.496 0.318 0.319 0.381 0.169 0.125 0.32 0.385 0.336 0.446
3886.939 0.455 0.32 0.339 0.491 0.5259 0.408 0.342 0.287 0.326 0.361
3906.229 0.265 0.325 0.395 0.39 0.493 0.5828 0.537 0.465 0.464 0.488
3925.519 0.5017 0.59434 0.5788 0.346 0.202 0.298 0.495 0.5665 0.5036 0.378
3944.809 0.361 0.488 0.59658 0.604421 0.60952 0.65578 0.59432 0.5785 0.5511 0.456
3964.099 0.5253 0.61503 0.5428 0.61166 0.66043 0.479 0.383 0.404 0.472 0.5147
3983.389 0.5789 0.60838 0.452 0.344 0.385 0.387 0.4972 0.48 0.42 0.4982
##END=
