##TITLE=3,4-Dimethyl-3-cyclohexenylmethanal
##JCAMP-DX=4.24
##DATA TYPE=INFRARED SPECTRUM
##ORIGIN=NIST Mass Spectrometry Data Center
##OWNER=NIST Standard Reference Data Program
Collection (C) 2018 copyright by the U.S. Secretary of Commerce
on behalf of the United States of America. All rights reserved.
##CAS REGISTRY NO=93861-86-0
##MOLFORM=C 9 H 14 O
##$NIST SOURCE=MSDC-IR
##SPECTROMETER/DATA SYSTEM=HP-GC/MS/IRD
##STATE=gas
##XUNITS=1/CM
##YUNITS=ABSORBANCE
##XFACTOR=1.0
##YFACTOR=0.000002300
##DELTAX=4.0
##FIRSTX=550.0
##LASTX=3846.0
##FIRSTY=0.000205
##MAXX=3846
##MINX=550
##MAXY=0.023
##MINY=0
##NPOINTS=825
##XYDATA=(X++(Y..Y))
550.0 89 28 3 32 36 28 41 69 71 66
590.0 36 0 16 54 77 100 100 104 128 128
630.0 132 164 179 180 191 192 194 204 220 222
670.0 196 178 173 155 160 189 222 233 248 272
710.0 261 251 233 199 178 182 162 145 139 118
750.0 130 153 158 169 168 184 229 260 304 372
790.0 407 413 390 384 349 305 274 239 210 194
830.0 173 153 157 165 159 156 176 181 168 157
870.0 144 152 163 169 183 201 211 232 276 345
910.0 407 456 518 534 524 512 477 450 435 421
950.0 390 356 334 340 339 332 361 396 403 391
990.0 394 410 415 441 494 532 576 609 618 626
1030.0 614 600 555 502 472 425 395 372 346 334
1070.0 337 353 365 386 426 430 417 428 420 417
1110.0 435 445 475 519 561 605 651 662 630 559
1150.0 469 405 353 297 261 252 227 189 180 188
1190.0 191 189 189 203 233 260 288 316 339 353
1230.0 351 339 318 296 280 272 258 255 267 279
1270.0 297 312 323 325 325 317 304 295 288 277
1310.0 279 288 286 297 325 357 384 414 436 463
1350.0 490 511 526 537 566 603 669 769 880 951
1390.0 952 897 776 626 497 434 426 452 514 620
1430.0 757 932 1108 1226 1288 1305 1259 1128 964 795
1470.0 644 510 417 350 297 262 248 243 237 232
1510.0 232 239 248 256 256 262 277 281 278 266
1550.0 260 258 242 236 229 204 187 179 167 159
1590.0 149 133 127 130 127 129 134 134 137 136
1630.0 140 153 167 180 193 214 242 269 311 361
1670.0 420 486 561 647 744 859 974 1100 1244 1414
1710.0 1654 2004 2556 3443 4830 6724 8620 9790 10000 9214
1750.0 7286 4954 3268 2311 1761 1430 1216 1058 936 821
1790.0 704 602 511 425 359 311 269 233 207 187
1830.0 170 151 138 130 114 103 101 93 87 85
1870.0 78 76 76 71 67 64 63 59 60 61
1910.0 53 56 51 49 56 56 51 44 43 51
1950.0 49 46 43 36 33 35 39 37 30 30
1990.0 28 31 30 30 27 26 34 32 28 28
2030.0 29 27 26 29 31 29 28 28 29 28
2070.0 30 31 25 24 33 32 20 19 24 25
2110.0 24 24 19 20 23 25 24 18 12 13
2150.0 14 16 21 16 10 14 22 20 15 14
2190.0 15 10 8 8 6 9 10 14 17 11
2230.0 11 11 6 10 5 0 12 17 19 22
2270.0 24 18 17 18 14 15 19 21 19 26
2310.0 22 16 20 18 15 15 18 21 25 32
2350.0 36 34 35 39 40 35 32 30 28 30
2390.0 31 27 29 30 29 28 37 47 36 32
2430.0 39 36 39 44 45 47 44 46 51 54
2470.0 64 71 68 57 58 62 66 66 66 72
2510.0 76 79 78 81 78 73 84 88 83 87
2550.0 88 82 89 94 93 108 113 115 119 129
2590.0 141 151 169 193 216 237 253 272 304 339
2630.0 372 405 445 495 549 619 699 787 881 987
2670.0 1113 1281 1491 1762 2088 2432 2756 2963 2991 2880
2710.0 2659 2373 2102 1860 1663 1532 1442 1364 1302 1246
2750.0 1186 1143 1104 1073 1054 1066 1107 1180 1303 1481
2790.0 1694 1933 2119 2204 2191 2096 1965 1895 1968 2214
2830.0 2629 3162 3715 4126 4354 4485 4543 4623 4820 5074
2870.0 5328 5569 5753 5900 6002 6043 6089 6240 6547 6984
2910.0 7487 7999 8501 8850 8902 8668 8096 7204 6128 5061
2950.0 4105 3281 2627 2135 1776 1526 1392 1373 1425 1550
2990.0 1703 1821 1892 1885 1815 1701 1587 1472 1375 1293
3030.0 1216 1146 1059 964 860 761 660 571 502 435
3070.0 384 360 332 288 268 254 236 222 202 189
3110.0 180 172 182 184 186 177 143 138 128 125
3150.0 137 110 104 115 107 105 99 88 73 74
3190.0 81 80 86 82 72 63 60 56 49 56
3230.0 71 56 55 61 52 43 35 38 40 46
3270.0 56 54 45 45 63 60 46 34 32 47
3310.0 44 37 30 38 57 60 49 38 32 39
3350.0 33 35 43 47 46 50 59 60 56 57
3390.0 67 57 53 69 73 78 84 84 92 103
3430.0 114 118 127 138 144 177 209 208 199 190
3470.0 177 158 138 128 112 96 86 87 90 81
3510.0 67 60 61 49 49 49 49 41 29 33
3550.0 40 44 44 35 34 43 34 25 26 33
3590.0 34 37 46 38 32 41 39 35 38 40
3630.0 43 38 43 37 26 32 27 24 7 1
3670.0 18 31 33 32 48 42 28 49 65 52
3710.0 43 42 31 45 53 45 52 51 46 53
3750.0 71 59 70 78 66 55 40 56 64 56
3790.0 51 52 43 39 42 56 70 63 66 56
3830.0 60 82 74 76 74
##END=
