##TITLE=4-Phenylpyridine
##JCAMP-DX=4.24
##DATA TYPE=INFRARED SPECTRUM
##ORIGIN=NIST Mass Spectrometry Data Center
##OWNER=NIST Standard Reference Data Program
Collection (C) 2018 copyright by the U.S. Secretary of Commerce
on behalf of the United States of America. All rights reserved.
##CAS REGISTRY NO=939-23-1
##MOLFORM=C 11 H 9 N
##$NIST SOURCE=MSDC-IR
##SPECTROMETER/DATA SYSTEM=HP-GC/MS/IRD
##STATE=gas
##XUNITS=1/CM
##YUNITS=ABSORBANCE
##XFACTOR=1.0
##YFACTOR=0.000001100
##DELTAX=4.0
##FIRSTX=550.0
##LASTX=3846.0
##FIRSTY=0.001401
##MAXX=3846
##MINX=550
##MAXY=0.011
##MINY=0
##NPOINTS=825
##XYDATA=(X++(Y..Y))
550.0 1274 1424 1111 1061 834 847 732 492 431 416
590.0 455 796 1698 2919 3506 3600 2845 1404 641 433
630.0 379 273 214 262 284 319 395 545 711 873
670.0 1155 1560 2027 2580 3182 3817 4290 4324 3981 3404
710.0 2720 2197 1942 1936 2198 2617 3358 4415 5075 5511
750.0 5945 6316 6449 5542 4367 3381 2355 1504 1012 779
790.0 630 602 630 772 1130 1593 2070 2546 2864 2757
830.0 2353 1913 1369 920 681 489 383 301 242 247
870.0 188 148 126 73 57 48 42 72 116 197
910.0 256 244 225 192 92 23 11 4 7 4
950.0 9 37 74 59 33 59 137 291 582 844
990.0 979 1046 922 655 456 359 319 294 264 233
1030.0 304 466 646 708 639 589 511 536 639 837
1070.0 994 916 783 577 377 286 189 145 136 147
1110.0 168 140 125 105 64 79 90 49 82 75
1150.0 45 55 40 40 81 150 186 212 231 226
1190.0 224 211 225 276 389 559 736 792 724 615
1230.0 432 299 259 208 165 146 116 122 119 99
1270.0 104 125 130 128 159 206 231 240 276 305
1310.0 316 342 358 346 317 276 245 240 234 214
1350.0 187 198 225 232 275 364 482 594 742 940
1390.0 1185 1465 1781 2024 2072 2020 1833 1478 1125 850
1430.0 681 565 518 532 549 552 548 599 730 1033
1470.0 1598 2442 3151 3249 2875 2157 1441 1187 1126 1030
1510.0 926 841 862 1011 1217 1454 1712 1997 2257 2448
1550.0 2530 2528 2440 2316 2395 2867 3883 5502 7478 9206
1590.0 10000 9601 8443 7079 5716 4481 3219 1912 1049 655
1630.0 481 406 347 319 316 309 343 359 352 386
1670.0 422 422 420 409 378 362 330 286 260 251
1710.0 249 225 205 215 220 215 224 271 295 261
1750.0 218 210 210 199 193 208 232 268 288 318
1790.0 360 402 406 366 321 261 227 227 225 214
1830.0 211 194 179 180 169 160 160 164 172 219
1870.0 264 284 329 374 385 378 363 324 263 249
1910.0 290 343 398 455 507 544 569 566 527 516
1950.0 523 496 445 368 271 180 109 88 103 84
1990.0 61 64 62 57 44 25 49 88 73 40
2030.0 41 49 35 41 49 38 28 41 68 62
2070.0 61 57 30 19 35 31 37 37 7 3
2110.0 22 35 38 19 5 35 18 12 39 40
2150.0 42 37 33 52 62 35 30 40 47 38
2190.0 40 61 60 50 40 38 52 47 28 33
2230.0 34 30 37 32 52 68 49 34 21 19
2270.0 41 64 66 78 96 86 80 80 86 76
2310.0 73 94 90 77 72 78 96 104 64 49
2350.0 57 56 61 77 79 79 98 107 87 50
2390.0 71 123 120 120 130 120 125 138 144 135
2430.0 146 145 99 69 35 33 37 31 43 51
2470.0 37 25 21 6 0 19 34 33 30 26
2510.0 31 35 30 17 9 16 31 42 39 23
2550.0 43 45 21 16 15 12 21 32 44 64
2590.0 87 78 59 71 94 78 73 92 93 80
2630.0 94 112 87 75 78 69 52 56 58 11
2670.0 3 39 61 50 48 46 22 29 43 28
2710.0 30 29 9 12 48 70 75 76 94 66
2750.0 24 41 37 38 46 42 40 30 26 27
2790.0 41 47 47 64 54 61 84 68 60 64
2830.0 56 77 94 77 90 87 87 107 157 185
2870.0 167 185 197 212 227 197 177 178 198 224
2910.0 204 158 149 188 209 212 215 234 278 336
2950.0 370 434 511 521 542 632 734 789 860 923
2990.0 926 980 1016 1067 1271 1561 1967 2586 3387 4191
3030.0 4788 5026 4823 4409 4042 3799 3925 4449 5357 6295
3070.0 6798 6786 6224 5313 4408 3597 2952 2410 1955 1569
3110.0 1250 979 724 560 442 345 281 245 260 270
3150.0 258 213 191 193 171 129 127 172 178 147
3190.0 126 93 69 63 108 124 112 106 70 55
3230.0 76 75 41 34 49 78 89 46 24 40
3270.0 67 66 77 118 64 41 50 55 70 85
3310.0 136 135 100 76 114 144 156 137 49 75
3350.0 109 85 90 63 59 63 91 94 88 104
3390.0 80 56 74 99 108 126 111 83 104 134
3430.0 99 64 75 82 87 77 81 85 97 103
3470.0 116 128 143 141 101 102 88 9 68 172
3510.0 138 106 101 66 57 101 175 164 110 76
3550.0 64 126 127 88 104 109 96 63 79 121
3590.0 134 133 130 157 146 124 122 133 159 159
3630.0 157 161 164 173 158 157 193 158 134 169
3670.0 201 182 127 138 177 192 196 190 184 172
3710.0 126 123 141 162 156 131 150 198 204 165
3750.0 132 122 158 174 149 134 151 124 110 102
3790.0 78 101 144 151 150 167 181 150 132 201
3830.0 198 137 135 184 215
##END=
