##TITLE=Benzocaine
##JCAMP-DX=4.24
##DATA TYPE=INFRARED SPECTRUM
##ORIGIN=NIST Mass Spectrometry Data Center
##OWNER=NIST Standard Reference Data Program
Collection (C) 2018 copyright by the U.S. Secretary of Commerce
on behalf of the United States of America. All rights reserved.
##CAS REGISTRY NO=94-09-7
##MOLFORM=C 9 H 11 N O 2
##$NIST SOURCE=MSDC-IR
##SPECTROMETER/DATA SYSTEM=HP-GC/MS/IRD
##STATE=gas
##XUNITS=1/CM
##YUNITS=ABSORBANCE
##XFACTOR=1.0
##YFACTOR=0.000011100
##DELTAX=4.0
##FIRSTX=550.0
##LASTX=3846.0
##FIRSTY=0.002098
##MAXX=3846
##MINX=550
##MAXY=0.111
##MINY=0
##NPOINTS=825
##XYDATA=(X++(Y..Y))
550.0 189 133 94 109 127 147 162 183 197 204
590.0 202 203 224 279 378 480 530 494 383 256
630.0 176 159 170 179 200 234 272 336 421 507
670.0 578 618 625 606 581 559 539 516 484 450
710.0 409 358 315 276 235 201 186 186 203 236
750.0 293 374 474 577 662 704 672 588 486 389
790.0 306 252 213 182 162 157 165 192 233 294
830.0 366 435 495 492 439 377 301 231 176 136
870.0 114 101 88 71 56 47 34 27 19 9
910.0 6 5 2 0 4 7 12 22 31 41
950.0 50 61 70 79 81 79 76 72 67 68
990.0 77 89 111 146 209 289 362 401 386 326
1030.0 260 215 192 193 216 250 285 319 358 408
1070.0 481 583 717 903 1182 1624 2315 3282 4243 4701
1110.0 4398 3378 2181 1401 1017 802 656 546 470 429
1150.0 424 466 599 997 1966 2980 3299 2957 1917 952
1190.0 577 434 368 336 335 360 390 422 457 500
1230.0 557 636 753 941 1264 1834 2831 4474 6750 8964
1270.0 10000 9217 6782 3983 2211 1454 1147 1003 910 835
1310.0 759 660 554 442 330 254 205 175 164 169
1350.0 186 227 313 459 572 582 502 352 243 211
1390.0 204 204 201 194 186 182 188 206 239 282
1430.0 320 338 323 287 249 228 226 234 253 275
1470.0 286 278 252 216 189 182 200 257 368 538
1510.0 709 772 703 527 334 216 165 138 126 128
1550.0 136 151 174 205 243 293 352 419 488 578
1590.0 716 938 1249 1574 1843 2063 2315 2650 2934 2982
1630.0 2686 2095 1458 964 635 455 353 290 254 234
1670.0 226 228 240 257 282 308 344 389 461 582
1710.0 787 1123 1657 2419 3344 4072 4316 4109 3305 2240
1750.0 1421 879 543 350 246 189 153 127 112 101
1790.0 90 81 73 63 53 46 41 36 31 28
1830.0 24 20 19 17 17 18 18 18 20 25
1870.0 28 31 35 42 52 62 69 73 74 71
1910.0 67 61 52 45 39 33 29 27 28 29
1950.0 31 31 32 32 29 27 26 26 24 21
1990.0 19 18 18 17 15 14 19 22 26 26
2030.0 27 26 22 20 19 18 18 16 15 13
2070.0 13 13 10 9 10 12 13 15 18 22
2110.0 24 25 27 28 28 25 18 12 9 6
2150.0 4 1 1 2 2 1 0 0 1 3
2190.0 3 3 2 1 1 2 3 4 3 2
2230.0 2 0 0 1 2 1 2 3 4 6
2270.0 6 6 7 7 9 10 9 9 9 9
2310.0 9 6 5 4 4 2 1 3 4 5
2350.0 6 8 11 12 14 16 17 16 14 13
2390.0 11 11 12 14 12 10 9 8 11 13
2430.0 12 11 10 10 10 8 7 7 6 5
2470.0 4 2 1 2 1 0 0 0 1 1
2510.0 0 2 6 8 9 10 11 10 12 13
2550.0 10 8 11 13 15 17 18 20 19 18
2590.0 17 17 21 22 23 24 26 26 27 27
2630.0 26 27 25 24 22 19 16 11 6 3
2670.0 3 2 2 4 2 0 0 1 2 1
2710.0 0 2 2 4 6 7 8 8 9 10
2750.0 9 10 12 14 16 19 23 21 20 19
2790.0 18 17 17 18 18 19 22 26 29 31
2830.0 31 34 35 39 44 48 54 60 68 80
2870.0 94 112 135 159 177 183 185 192 205 216
2910.0 225 231 229 228 239 267 318 377 419 430
2950.0 415 388 380 401 438 489 570 671 751 770
2990.0 720 626 538 478 436 399 361 325 297 287
3030.0 293 319 353 367 342 285 220 176 163 164
3070.0 167 161 143 120 100 91 89 85 81 74
3110.0 68 63 59 52 47 43 38 32 27 26
3150.0 23 22 23 26 26 22 22 20 16 18
3190.0 21 24 30 37 40 42 41 38 35 34
3230.0 31 26 23 20 15 14 13 9 7 8
3270.0 7 5 4 3 3 4 3 3 4 5
3310.0 5 5 5 7 7 8 10 11 13 14
3350.0 13 13 15 18 20 23 25 30 36 47
3390.0 64 86 112 145 196 251 292 314 316 307
3430.0 294 265 220 168 118 88 74 66 60 55
3470.0 54 59 64 74 85 97 111 120 126 127
3510.0 125 117 113 107 93 82 65 50 35 22
3550.0 18 14 8 5 4 3 3 5 3 3
3590.0 3 0 0 3 4 2 0 0 0 0
3630.0 1 2 1 5 3 2 5 6 3 1
3670.0 1 4 7 7 4 4 3 3 7 5
3710.0 2 4 4 7 6 3 6 7 7 8
3750.0 11 10 9 7 6 7 7 8 11 10
3790.0 7 8 11 10 8 10 12 10 9 13
3830.0 17 22 28 30 35
##END=
