##TITLE=2,4-D Acid
##JCAMP-DX=4.24
##DATA TYPE=INFRARED SPECTRUM
##ORIGIN=NIST Mass Spectrometry Data Center
##OWNER=NIST Standard Reference Data Program
Collection (C) 2018 copyright by the U.S. Secretary of Commerce
on behalf of the United States of America. All rights reserved.
##CAS REGISTRY NO=94-75-7
##MOLFORM=C 8 H 6 Cl 2 O 3
##$NIST SOURCE=MSDC-IR
##SPECTROMETER/DATA SYSTEM=HP-GC/MS/IRD
##STATE=gas
##XUNITS=1/CM
##YUNITS=ABSORBANCE
##XFACTOR=1.0
##YFACTOR=0.000002100
##DELTAX=4.0
##FIRSTX=550.0
##LASTX=3846.0
##FIRSTY=0.001130
##MAXX=3846
##MINX=550
##MAXY=0.021
##MINY=0
##NPOINTS=825
##XYDATA=(X++(Y..Y))
550.0 538 943 897 1087 1236 1397 1485 1424 1328 1304
590.0 1313 1300 1295 1360 1449 1497 1453 1323 1191 1084
630.0 1049 1051 1096 1261 1446 1522 1423 1232 1068 915
670.0 755 623 527 459 441 432 443 463 499 635
710.0 797 922 1058 1135 1184 1210 1186 1170 1179 1238
750.0 1341 1302 1102 837 591 422 344 310 307 360
790.0 476 663 866 961 975 948 900 865 841 849
830.0 904 1015 1154 1242 1171 991 870 829 910 1063
870.0 1142 1009 743 513 332 208 130 85 67 48
910.0 31 32 35 26 30 35 23 18 17 35
950.0 59 54 51 66 97 124 129 129 171 231
990.0 279 350 408 474 575 679 803 983 1150 1378
1030.0 1659 1957 2216 2398 2562 2671 2849 3208 3788 4415
1070.0 4846 4968 4814 4504 4126 3821 3904 4437 4976 5041
1110.0 4597 4057 3814 3877 3976 3885 3570 3173 2876 2744
1150.0 2653 2536 2463 2393 2257 2083 1918 1771 1629 1542
1190.0 1498 1477 1499 1569 1694 1869 2141 2517 2900 3254
1230.0 3485 3572 3585 3637 3792 3945 3954 3842 3681 3535
1270.0 3486 3557 3695 3752 3596 3212 2711 2208 1788 1529
1310.0 1426 1409 1446 1545 1674 1812 1908 1898 1833 1750
1350.0 1669 1613 1584 1540 1512 1469 1417 1400 1415 1404
1390.0 1353 1235 1064 905 773 694 672 707 846 1048
1430.0 1248 1413 1565 1708 1768 1762 1787 2064 2785 4157
1470.0 6264 8648 10000 9454 7463 5260 3716 2681 1940 1390
1510.0 963 705 527 384 289 239 208 179 151 153
1550.0 171 201 246 314 406 497 572 599 598 564
1590.0 471 357 239 139 79 35 8 5 4 3
1630.0 4 2 2 16 17 0 9 28 25 29
1670.0 35 44 57 65 79 106 129 139 163 192
1710.0 225 261 312 385 476 570 671 800 944 1085
1750.0 1255 1475 1729 2030 2395 2953 3848 4841 5504 5599
1790.0 5350 5346 5839 6513 6885 6611 5763 4608 3452 2567
1830.0 1967 1553 1248 1005 801 654 542 437 354 295
1870.0 248 213 187 167 140 114 100 71 56 51
1910.0 43 45 39 31 24 26 38 36 35 44
1950.0 39 36 36 29 25 21 26 29 23 17
1990.0 24 35 30 28 34 41 34 20 30 37
2030.0 33 32 27 23 16 20 26 34 32 26
2070.0 29 32 40 43 34 32 34 31 39 52
2110.0 60 52 49 46 42 38 47 43 29 34
2150.0 31 34 35 38 50 48 48 44 34 33
2190.0 38 41 30 20 23 24 27 34 48 56
2230.0 49 40 34 28 28 26 10 23 34 34
2270.0 34 21 18 24 39 52 58 61 61 66
2310.0 78 76 82 93 89 86 78 59 49 59
2350.0 67 58 61 70 64 63 58 34 27 35
2390.0 30 31 38 35 33 34 30 30 32 45
2430.0 40 6 12 18 26 20 22 33 28 29
2470.0 32 50 55 43 34 40 50 58 68 68
2510.0 55 47 57 65 68 75 66 55 55 67
2550.0 56 41 43 50 53 43 35 32 41 42
2590.0 39 30 13 21 34 33 36 36 30 25
2630.0 20 23 33 48 41 19 10 17 24 28
2670.0 25 26 41 21 27 50 48 44 36 36
2710.0 37 35 36 34 43 61 51 33 26 18
2750.0 21 51 64 32 33 71 74 63 55 57
2790.0 61 62 70 67 76 101 85 66 79 84
2830.0 84 89 85 81 94 119 124 140 167 170
2870.0 159 144 160 164 141 120 132 147 159 164
2910.0 206 282 336 385 426 479 545 587 602 592
2950.0 562 516 453 414 363 331 311 279 260 200
2990.0 174 168 129 126 127 127 122 121 126 133
3030.0 108 91 91 75 88 104 93 115 141 155
3070.0 200 210 199 172 137 134 130 96 85 85
3110.0 75 75 72 60 58 54 55 62 47 46
3150.0 47 44 47 50 68 67 49 46 37 17
3190.0 34 73 84 57 33 54 90 78 64 52
3230.0 42 58 54 62 66 37 27 27 52 46
3270.0 38 23 27 50 36 55 50 17 46 77
3310.0 58 54 89 98 62 66 55 41 70 88
3350.0 85 54 54 58 42 44 45 48 51 67
3390.0 74 78 65 70 88 80 76 80 90 84
3430.0 85 72 68 117 156 145 131 147 179 169
3470.0 162 177 158 164 200 234 285 357 491 636
3510.0 770 938 1083 1187 1204 1152 1029 871 757 698
3550.0 697 758 910 1224 1803 2610 3283 3301 2649 1777
3590.0 1106 728 525 411 326 276 260 222 242 223
3630.0 164 167 125 101 92 90 106 89 95 116
3670.0 91 65 49 68 114 115 99 108 117 127
3710.0 110 94 90 76 65 82 69 71 86 100
3750.0 108 51 73 86 73 69 48 33 37 68
3790.0 87 66 69 91 117 120 91 87 85 77
3830.0 75 56 70 72 39
##END=
