##TITLE=2,5-Diethoxyaniline
##JCAMP-DX=4.24
##DATA TYPE=INFRARED SPECTRUM
##ORIGIN=EPA-IR VAPOR PHASE LIBRARY
##OWNER=SRD/NIST
Collection (C) 2018 copyright by the U.S. Secretary of Commerce
on behalf of the United States of America. All rights reserved.
##CAS REGISTRY NO=94-85-9
##MOLFORM=C 10 H 15 N O 2
##$NIST SOURCE=MSDC-IR
##STATE=gas
##XUNITS=1/CM
##YUNITS=ABSORBANCE
##XFACTOR=1.
##YFACTOR=0.001
##DELTAX=1.92898
##FIRSTX=549.8
##LASTX=4000.7
##FIRSTY=11.0042
##MAXX=4000.7
##MINX=549.759
##MAXY=0.275814
##MINY=0
##NPOINTS=1790
##XYDATA=(X++(Y..Y))
549.759 11.0042 10.8142 10.9242 11.3242 11.1642 11.0142 10.8742 10.9442 10.8642 10.6542
569.049 10.8342 11.0942 11.3242 11.4042 11.2842 11.2042 11.1942 11.2642 10.9242 10.1042
588.339 10.1542 10.0342 9.8942 10.3742 10.4242 9.9542 9.7142 9.9342 10.4142 10.7042
607.628 10.5942 10.8342 11.0042 11.0942 11.4742 11.5842 11.7942 12.5142 12.9942 13.2042
626.918 13.2942 13.2242 12.9742 12.7542 12.5942 12.8242 12.5842 12.5142 12.7642 12.3442
646.208 12.0842 11.8342 11.7142 11.7942 11.9842 11.8242 11.7342 11.6442 11.2542 11.1542
665.498 11.0542 11.2042 11.2042 10.8442 10.8742 11.2542 11.4542 11.2742 11.4242 11.5542
684.787 11.3242 11.6642 12.1242 12.1742 12.0542 12.2142 12.7342 12.9942 12.8642 13.0942
704.077 13.7542 13.9442 14.3042 14.4542 14.4242 15.0142 15.2742 15.2942 15.5942 15.6042
723.367 15.6442 15.9642 16.1742 16.0542 15.9042 15.9442 15.9642 16.0142 15.7742 15.3542
742.657 15.3142 15.3042 15.2942 15.3542 15.2842 15.2842 15.3142 15.3042 15.1242 15.1342
761.947 15.3542 15.7542 16.2942 16.9442 18.0142 18.8442 18.8842 19.2342 19.6942 20.0042
781.236 20.0142 19.8342 19.6542 19.2242 18.6642 18.0942 17.6042 17.0542 16.7942 16.0242
800.526 15.1742 14.7142 14.1742 14.0342 13.8242 13.5742 13.8142 14.5142 14.8242 14.5442
819.816 14.5842 14.7242 14.9242 15.2742 15.5842 16.1142 17.0442 17.8242 18.2842 18.7742
839.106 19.2142 19.3042 19.5342 19.5542 18.8342 17.9342 16.9542 16.1842 15.3342 14.2942
858.395 13.4542 12.9842 12.5842 12.1042 12.0342 11.8042 11.3942 11.4842 11.7142 11.9142
877.685 11.9142 11.9842 12.3642 12.3742 12.6942 13.6642 13.9642 14.2742 15.1942 15.8942
896.975 16.5542 17.3142 17.9742 18.6642 19.2342 19.4342 19.2042 18.7542 18.3042 17.6042
916.265 16.7442 16.0742 15.1942 14.2842 13.6442 12.7742 11.7442 10.9942 10.6242 10.1042
935.555 9.8442 9.5042 8.6342 8.3042 8.3242 8.1942 8.0942 8.1542 8.5342 8.9242
954.844 9.1942 10.0642 11.1642 12.2142 13.2042 14.0842 15.1942 16.1742 16.6642 16.3442
974.134 15.9942 15.6342 14.3742 12.9942 11.5442 10.4842 10.0642 9.3342 8.9742 9.0142
993.424 8.9742 8.9742 9.3742 9.7442 10.2642 11.4142 12.4342 13.8442 14.8842 15.4342
1012.714 17.0642 19.3242 21.1042 23.2242 25.7842 28.4442 31.9342 36.2842 40.9442 45.3342
1032.003 50.5242 57.1542 63.5542 69.5442 74.9242 79.0242 81.8842 82.4542 81.4142 78.8842
1051.293 74.8842 69.5542 63.1242 56.9542 50.6142 44.7742 40.5242 36.2242 33.2542 32.5842
1070.583 30.5242 28.7142 28.9142 28.7042 28.5042 29.3042 30.2142 30.7142 32.0542 34.2142
1089.873 35.0242 35.5542 35.6442 34.5942 33.6542 32.6342 31.9342 31.0642 29.7342 28.5442
1109.163 28.2742 29.0242 29.8142 30.1742 29.3642 28.0442 26.6842 25.5742 25.2042 24.3542
1128.452 23.3242 22.6042 22.3242 22.9342 23.8842 24.6642 25.2042 25.6742 26.1042 26.5342
1147.742 27.0442 27.5742 28.4442 29.6442 31.6542 33.9442 36.0642 38.1642 40.2242 43.3342
1167.032 46.4642 50.3442 55.5742 61.8042 68.6342 74.8742 80.5442 84.9142 89.0242 90.9642
1186.322 91.8342 93.4542 95.5542 99.3442 104.884 114.684 129.804 149.984 172.914 196.914
1205.611 222.564 244.224 261.514 274.374 275.814 268.034 251.724 228.044 200.694 170.304
1224.901 141.344 116.524 95.5542 78.9842 65.9042 55.3542 47.2542 40.3042 34.9942 31.2442
1244.191 27.9542 25.0542 22.6642 21.2242 20.0642 18.2742 16.9642 16.9342 16.6642 16.2742
1263.481 16.2542 16.2642 16.3842 17.1142 17.7542 18.3342 19.3342 20.5642 21.7442 22.8042
1282.771 23.8542 24.9942 25.9042 26.8842 27.4542 27.6442 27.9042 27.5442 26.9142 26.3442
1302.060 25.7342 25.0542 24.2942 23.3842 22.5742 21.6742 20.6242 19.6142 18.4542 17.2342
1321.350 16.1642 14.9942 13.8042 12.8742 12.0142 11.1342 10.4442 9.9942 9.5842 9.0742
1340.640 8.7342 8.5542 8.3442 8.2842 8.3442 8.4942 8.6842 8.9142 9.2842 9.6542
1359.930 10.1042 10.6142 11.1542 11.7242 12.3042 12.8342 13.5042 14.4442 15.7842 17.6642
1379.219 20.0942 23.0342 26.4042 29.9842 33.3442 36.1442 38.0342 38.7042 37.8742 35.8042
1398.509 32.7642 28.9342 25.1342 21.4742 18.2542 15.8942 14.1742 13.1042 12.4242 11.9342
1417.799 11.7642 11.8442 12.0742 12.4442 12.8142 13.4042 14.2442 15.0642 16.1042 17.2842
1437.089 18.2142 18.9042 19.5742 20.0042 20.1642 20.2042 20.2042 20.2242 20.1242 20.0642
1456.378 20.1842 20.2542 20.5542 21.1242 21.9842 23.2942 24.8742 26.9642 29.9242 33.7342
1475.668 38.0942 42.6742 46.7342 49.6442 51.4742 53.0542 54.6542 56.4542 59.6642 65.7442
1494.958 75.6142 89.5242 106.634 126.444 147.464 166.964 183.314 193.894 196.304 190.354
1514.248 176.874 157.274 133.714 109.774 87.0942 68.7442 54.5642 44.0142 36.3642 30.9342
1533.538 26.9842 24.0742 21.7342 19.7142 18.1642 16.9842 16.1042 15.3442 14.8242 14.4642
1552.827 14.0242 13.6342 13.4942 13.5042 13.2342 13.0742 13.2642 13.3742 13.5042 13.9342
1572.117 14.4142 14.9442 15.7542 16.7442 17.7142 18.7442 20.1242 21.8442 23.5642 25.5042
1591.407 27.8242 30.3042 33.1342 36.2442 39.5742 42.9442 46.4742 50.3542 54.4642 58.5042
1610.697 62.2042 65.4142 67.9642 69.6742 70.2342 69.8042 67.8342 64.4742 60.3642 55.5242
1629.986 50.3342 45.0242 39.7942 34.8242 30.1742 26.1942 23.0242 20.4442 18.1342 16.0442
1649.276 14.4142 13.1542 11.8842 10.7342 9.8942 9.2042 8.5642 8.1442 7.6842 7.1242
1668.566 6.6942 6.4842 6.2442 6.0242 5.8842 5.6442 5.4742 5.4042 5.2142 5.0342
1687.856 4.8442 4.5542 4.5042 4.4642 4.2342 4.0442 3.8642 3.7642 3.6642 3.6642
1707.146 3.6742 3.5142 3.3742 3.2642 3.2042 3.1442 2.9842 2.9742 2.9742 2.8842
1726.435 2.8942 2.7542 2.7542 2.8842 2.7142 2.6142 2.5942 2.5742 2.6242 2.5842
1745.725 2.5042 2.5542 2.6042 2.5742 2.6542 2.7442 2.6242 2.5642 2.6042 2.6142
1765.015 2.6142 2.6042 2.6142 2.6242 2.6042 2.5842 2.5942 2.7042 2.7642 2.6942
1784.305 2.6842 2.7242 2.7242 2.7642 2.8242 2.9042 2.8642 2.7842 2.8342 2.8342
1803.594 2.8842 2.9242 2.7342 2.6542 2.7242 2.6542 2.5142 2.5442 2.6742 2.6142
1822.884 2.5042 2.5542 2.6142 2.6542 2.6042 2.4842 2.4042 2.3142 2.3442 2.3742
1842.174 2.3242 2.3742 2.2742 2.1842 2.2242 2.2442 2.2542 2.2842 2.2342 2.0842
1861.464 2.2042 2.2842 2.2042 2.2942 2.3442 2.3042 2.2842 2.2342 2.3242 2.5042
1880.754 2.5442 2.6042 2.6242 2.5642 2.6642 2.7542 2.8942 2.9042 2.8842 2.9742
1900.043 3.0042 2.9742 3.1342 3.2842 3.2342 3.3142 3.3942 3.3942 3.4542 3.5742
1919.333 3.5542 3.4742 3.3842 3.2842 3.1542 3.1042 3.1642 3.1142 3.0342 2.9042
1938.623 2.8742 2.9242 2.8942 2.7042 2.6642 2.6842 2.5742 2.6042 2.6042 2.5442
1957.913 2.5442 2.5742 2.6742 2.6642 2.6942 2.6842 2.6042 2.5342 2.4142 2.4742
1977.202 2.5442 2.5642 2.5342 2.5142 2.5042 2.4342 2.4042 2.3942 2.4142 2.4242
1996.492 2.3842 2.3642 2.2942 2.2842 2.3942 2.3542 2.2442 2.3242 2.3442 2.2842
2015.782 2.2542 2.2342 2.2042 2.1042 2.0242 2.0042 1.9742 1.9742 1.9742 2.0642
2035.072 2.0942 1.9442 1.9242 1.9042 1.9142 1.9142 1.8242 1.8942 2.0042 1.9342
2054.362 1.8442 1.8342 1.8742 1.9442 2.0042 1.9342 1.7842 1.6742 1.7242 1.7542
2073.651 1.7042 1.6742 1.6942 1.6842 1.7042 1.7542 1.8042 1.8142 1.7242 1.5742
2092.941 1.5442 1.5642 1.4942 1.4642 1.5342 1.4742 1.4142 1.5542 1.5242 1.3442
2112.231 1.4242 1.4542 1.4242 1.5042 1.3842 1.3442 1.4342 1.4542 1.5042 1.4542
2131.521 1.4042 1.3742 1.4042 1.5042 1.5042 1.4942 1.4342 1.4042 1.4542 1.4542
2150.810 1.4742 1.5942 1.6742 1.6642 1.5042 1.4042 1.4342 1.4342 1.4442 1.4142
2170.100 1.4242 1.5142 1.5842 1.5342 1.4242 1.4442 1.3942 1.3642 1.4042 1.3942
2189.390 1.4242 1.4742 1.4842 1.4242 1.4342 1.3842 1.2842 1.3042 1.3042 1.2742
2208.680 1.3342 1.3542 1.2842 1.2642 1.2842 1.2142 1.2342 1.2642 1.3242 1.3342
2227.970 1.2342 1.2442 1.2342 1.1942 1.2742 1.3742 1.3142 1.2242 1.2942 1.4242
2247.259 1.3042 1.3442 1.5242 1.5642 1.5842 1.5142 1.5642 1.6742 1.7542 1.7842
2266.549 1.7642 1.7542 1.8142 1.7542 1.5442 1.5542 1.7042 1.7242 1.6342 1.6042
2285.839 1.5942 1.5342 1.4742 1.4642 1.5042 1.3842 1.3842 1.3742 1.4142 1.5642
2305.129 1.4642 1.5142 1.5442 1.5042 1.4742 1.4542 1.5242 1.5242 1.5442 1.6142
2324.418 1.6342 1.6242 1.5642 1.5142 1.4542 1.4742 1.4642 1.3742 1.3642 1.3742
2343.708 1.3742 1.4442 1.6142 1.6242 1.4242 1.3842 1.4142 1.3342 1.3142 1.2942
2362.998 1.3042 1.3342 1.3642 1.3842 1.2742 1.2042 1.2042 1.2442 1.4042 1.4742
2382.288 1.3342 1.2742 1.2942 1.3442 1.4042 1.4342 1.5142 1.5042 1.5742 1.4742
2401.578 1.3842 1.5742 1.6642 1.6142 1.6642 1.7242 1.6542 1.6442 1.5942 1.5542
2420.867 1.5242 1.6142 1.7642 1.7642 1.6442 1.5042 1.4442 1.4742 1.5642 1.5142
2440.157 1.4342 1.4242 1.5342 1.6142 1.6142 1.5842 1.5142 1.5342 1.5842 1.6542
2459.447 1.7042 1.7042 1.7542 1.7342 1.6942 1.7842 1.8342 1.9142 2.0142 2.0742
2478.737 1.9442 1.8242 1.8742 1.8442 1.8342 1.7842 1.6542 1.5942 1.6242 1.6342
2498.026 1.5642 1.5242 1.4942 1.5242 1.6542 1.7442 1.7342 1.6342 1.6342 1.6942
2517.316 1.5942 1.3942 1.4142 1.3742 1.2742 1.3142 1.4142 1.4742 1.4742 1.4242
2536.606 1.3142 1.2142 1.2142 1.2842 1.2242 1.1642 1.1542 1.1542 1.1442 1.1342
2555.896 1.2142 1.2042 1.1942 1.3242 1.2642 1.2242 1.2942 1.3042 1.2542 1.2142
2575.186 1.2942 1.2942 1.2242 1.2042 1.2142 1.1742 1.1242 1.2642 1.5242 1.4642
2594.475 1.2142 1.2442 1.3142 1.2242 1.3242 1.4542 1.4842 1.3842 1.1842 1.3942
2613.765 1.8142 1.7842 1.5542 1.6342 1.6942 1.4342 1.3142 1.5142 1.5442 1.4742
2633.055 1.5242 1.5242 1.4742 1.3542 1.2942 1.2842 1.2942 1.3342 1.3342 1.3442
2652.345 1.2142 1.2242 1.2242 1.1642 1.1842 1.2242 1.2342 1.0942 1.1142 1.1342
2671.634 1.2342 1.4642 1.5342 1.4342 1.2542 1.1242 1.2942 1.4442 1.4342 1.4642
2690.924 1.5042 1.5642 1.4542 1.4742 1.6242 1.5942 1.6642 1.7942 1.7442 1.7042
2710.214 1.8442 2.1242 2.2542 2.2342 2.1942 2.3942 2.6942 2.6742 2.6942 2.6842
2729.504 2.6442 2.7842 2.9042 2.8942 2.8542 2.9042 2.8642 2.8242 2.8842 2.7342
2748.794 2.6242 2.8042 2.9142 2.8742 2.7342 2.6842 2.7842 2.9642 2.9942 2.9742
2768.083 2.9242 2.8242 2.8542 2.9942 3.0342 3.0242 3.0142 3.0642 3.2142 3.3042
2787.373 3.2342 3.2142 3.3042 3.2842 3.2842 3.4142 3.5842 3.4842 3.6542 3.9842
2806.663 3.9342 3.9742 4.1342 4.1542 4.3042 4.4542 4.4842 4.6042 4.8242 4.9942
2825.953 5.1442 5.2942 5.3342 5.5542 5.9142 6.1142 6.2842 6.7342 7.1742 7.4342
2845.242 7.8042 8.1742 8.4642 8.7542 9.2642 10.0342 10.9342 11.7542 12.6142 13.7542
2864.532 14.9442 16.1142 17.5742 19.1542 20.7442 22.4642 24.3742 26.2542 27.7742 28.9942
2883.822 29.9842 30.7542 31.2042 31.4942 31.6642 31.8042 31.9042 32.0142 32.2542 32.5142
2903.112 32.7442 32.6942 32.8242 32.9042 32.6342 32.3942 31.9742 31.4842 30.7842 29.9442
2922.401 29.4942 29.4642 29.7642 30.3342 31.6642 33.7342 35.9342 38.0642 39.8042 41.0442
2941.691 41.5742 41.1342 40.1642 38.3542 36.2042 34.4342 32.7842 31.6742 31.0242 30.8142
2960.981 31.2042 32.1142 33.3442 34.7642 36.5342 38.7642 41.6042 44.9242 48.2242 51.2542
2980.271 53.6242 55.2042 55.9542 55.8642 54.6442 51.8442 48.1142 43.8142 38.9442 34.5542
2999.561 30.3342 26.5342 23.5742 20.8142 18.4642 16.6642 15.3142 14.0842 12.9342 12.3142
3018.850 11.9242 11.4342 11.0642 10.7442 10.8042 11.1542 11.4842 12.0642 12.4142 12.8342
3038.140 13.4442 13.6542 13.6942 13.4642 13.3442 12.8342 11.9842 11.2442 10.5542 9.8842
3057.430 9.1842 8.9142 8.7642 8.2342 7.8242 7.8142 7.7842 7.4942 7.1442 7.0242
3076.720 6.9842 6.7642 6.7242 6.6242 6.3542 6.2342 6.0742 5.7242 5.5442 5.2542
3096.009 4.9042 4.9642 4.6742 4.2742 4.2742 4.1942 3.8242 3.6242 3.5742 3.4542
3115.299 3.0542 2.8942 3.1742 2.9942 2.6142 2.4642 2.2942 2.2242 2.2142 2.0942
3134.589 1.7542 1.7042 2.0942 1.9542 1.7142 2.0042 2.0942 2.0542 1.8442 1.5542
3153.879 1.5542 1.6242 1.6542 1.6442 1.8142 1.6742 1.3942 1.4142 1.4342 1.5342
3173.169 1.6742 1.6442 1.6042 1.6442 1.5842 1.4542 1.3142 1.4642 1.7442 1.6242
3192.458 1.6142 1.6942 1.6042 1.4042 1.2342 1.3042 1.3342 1.2042 1.3042 1.3542
3211.748 1.2242 1.2742 1.1742 0.992 0.8993 1.0344 1.1342 0.8746 0.6771 0.7684
3231.038 0.8424 0.6876 0.804 0.9269 0.7235 0.7792 0.8773 0.699 0.7195 0.8006
3250.328 0.6607 0.5211 0.5696 0.5998 0.5686 0.5681 0.6142 0.5997 0.5643 0.4428
3269.617 0.4711 0.6192 0.6679 0.5934 0.4868 0.6277 0.6203 0.6164 0.7488 0.6347
3288.907 0.4283 0.3557 0.3404 0.2258 0.1772 0.2257 0.3838 0.4432 0.2664 0.215
3308.197 0.3117 0.3922 0.4494 0.6305 0.7193 0.4782 0.2331 0.1687 0.3783 0.5529
3327.487 0.4367 0.5669 0.5878 0.3314 0.3655 0.4484 0.1761 0.09391 0.4962 0.5993
3346.777 0.5884 0.6222 0.6869 0.7067 0.6843 0.7024 0.6848 0.7113 0.518 0.5621
3366.066 0.8039 0.8213 0.8383 1.1242 1.4342 1.4642 1.6342 1.7442 1.7142 2.0042
3385.356 2.4942 2.9142 3.5142 4.3842 5.1542 5.8742 6.6942 7.8942 9.1942 9.9542
3404.646 10.2742 10.4542 10.2242 9.6442 8.8542 7.7642 6.3542 5.1142 4.2342 3.7042
3423.936 3.1642 2.7442 2.3642 1.8842 1.8042 1.7342 1.4842 1.5742 1.5742 1.3442
3443.225 1.3042 1.1742 1.1342 1.2742 1.2542 1.2142 1.3742 1.5942 1.8142 2.0942
3462.515 2.1842 2.0642 2.1042 2.3842 2.8542 3.4342 3.8342 4.2542 4.7742 5.2942
3481.805 5.7942 6.3442 7.2542 7.9642 8.7242 9.6942 10.3942 10.8942 11.2942 11.1442
3501.095 10.5342 9.8642 9.3442 8.4642 7.4742 6.9042 5.9542 4.9842 4.3342 3.9642
3520.385 3.4442 2.8542 2.5442 2.2642 1.8142 1.3342 1.3642 1.5842 1.6142 1.4742
3539.674 1.0642 0.7911 0.7139 0.6991 0.7768 0.7573 0.8857 1.0378 0.7621 0.6407
3558.964 0.5977 0.4569 0.4437 0.3389 0.2506 0.3279 0.4893 0.6971 0.7629 0.6996
3578.254 0.5296 0.3845 0.4372 0.5626 0.8033 0.7742 0.6024 0.5933 0.6616 0.5345
3597.544 0.1498 0.2043 0.4683 0.3083 0.2637 0.2277 0.3522 0.5265 0.1755 0.06986
3616.833 0.3352 0.6166 0.764 0.703 0.555 0.4877 0.6853 0.6225 0.4516 0.3767
3636.123 0.3294 0.6112 0.5477 0.2996 0.5539 0.6833 0.5449 0.4948 0.5209 0.4914
3655.413 0.3015 0.2249 0.2778 0.3206 0.3522 0.3751 0.4492 0.4799 0.5084 0.4399
3674.703 0.5441 0.5075 0.298 0.3524 0.4773 0.6262 0.4909 0.203 0.2775 0.4496
3693.993 0.5915 0.4967 0 0.13091 0.5478 0.6108 0.5723 0.3975 0.3745 0.3699
3713.282 0.5898 0.6568 0.5915 0.7422 0.6683 0.7515 0.8464 0.7502 0.7274 0.7083
3732.572 0.8154 0.7156 0.5534 0.7416 0.8496 0.9331 0.8265 0.6404 0.4509 0.5387
3751.862 0.661 0.5737 0.7653 0.6338 0.1706 0.3557 0.533 0.4825 0.6155 0.6098
3771.152 0.4796 0.5717 0.9129 1.0147 0.8267 0.5138 0.403 0.5199 0.5622 0.5814
3790.441 0.5677 0.607 0.7818 0.826 0.634 0.523 0.4787 0.4087 0.4006 0.5002
3809.731 0.621 0.6234 0.3494 0.3927 0.5542 0.3627 0.4294 0.5129 0.5706 0.3977
3829.021 0.3683 0.5692 0.4985 0.6017 0.6776 0.6281 0.4595 0.3674 0.3766 0.3565
3848.311 0.6 0.8553 0.7126 0.5008 0.7413 0.6368 0.4413 0.4802 0.6947 0.7401
3867.601 0.5111 0.5337 0.6019 0.3603 0.2294 0.5281 0.7507 0.5681 0.1829 0.1909
3886.890 0.4775 0.6192 0.6181 0.6327 0.7643 0.8789 0.8662 0.9975 0.9888 0.8267
3906.180 0.6125 0.4784 0.6049 0.7157 0.5792 0.6181 0.8836 0.8505 0.5613 0.4527
3925.470 0.6217 0.7742 0.6876 0.605 0.8667 0.9458 0.7064 0.5834 0.7634 1.0842
3944.760 1.2542 1.1242 1.2442 1.2742 1.0942 0.9892 0.6585 0.7946 1.0183 0.9685
3964.049 0.7982 0.788 1.0742 0.8717 0.6898 0.7339 0.7394 1.1342 1.2342 0.9172
3983.339 0.7416 0.6964 0.8347 0.8623 0.8108 0.8867 1.0375 1.0942 1.1742 1.3742
##END=
