##TITLE=.beta.-Phenylethyltrichlorosilane
##JCAMP-DX=4.24
##DATA TYPE=INFRARED SPECTRUM
##ORIGIN=EPA-IR VAPOR PHASE LIBRARY
##OWNER=SRD/NIST
Collection (C) 2018 copyright by the U.S. Secretary of Commerce
on behalf of the United States of America. All rights reserved.
##CAS REGISTRY NO=940-41-0
##MOLFORM=C 8 H 9 Cl 3 Si
##$NIST SOURCE=MSDC-IR
##STATE=gas
##XUNITS=1/CM
##YUNITS=ABSORBANCE
##XFACTOR=1.
##YFACTOR=0.001
##DELTAX=1.92898
##FIRSTX=549.8
##LASTX=4000.7
##FIRSTY=45.381
##MAXX=4000.7
##MINX=549.759
##MAXY=0.051581
##MINY=0
##NPOINTS=1790
##XYDATA=(X++(Y..Y))
549.759 45.381 42.061 37.651 34.811 33.921 35.291 38.711 42.911 46.891 50.121
569.049 51.581 51.051 48.591 43.991 38.331 32.121 25.811 19.951 14.811 10.711
588.339 7.281 4.891 3.601 2.831 2.391 2.051 1.821 1.4011 1.0918 0.9613
607.628 0.9972 1.0852 0.9786 0.7626 0.6659 0.7586 0.7297 0.7901 0.9042 0.9075
626.918 0.9083 1.0367 1.0824 0.999 0.869 1.0098 1.3163 1.2342 1.2038 1.2437
646.208 1.4369 1.5008 1.3841 1.611 1.691 1.851 1.961 1.941 2.291 2.491
665.498 2.731 3.031 3.311 3.711 4.241 4.751 5.161 5.701 6.311 7.041
684.787 7.511 7.611 7.481 7.071 6.401 5.861 5.401 4.901 4.711 4.861
704.077 5.451 6.571 8.181 9.971 11.521 12.611 13.241 13.251 12.511 11.221
723.367 9.851 8.211 6.181 4.701 3.941 3.731 3.861 4.031 4.301 4.621
742.657 4.991 5.161 4.961 4.661 4.191 3.741 3.341 2.951 2.611 2.151
761.947 1.941 1.791 1.671 1.651 1.4538 1.3832 1.2496 1.2129 1.2174 1.1293
781.236 0.89 0.7706 0.8348 0.8171 0.6819 0.4802 0.6472 0.843 0.847 0.7645
800.526 0.6789 0.6399 0.5007 0.4752 0.51779 0.53613 0.4826 0.355 0.4991 0.6496
819.816 0.7022 0.7223 0.6971 0.5467 0.4392 0.54082 0.61596 0.53461 0.54912 0.56921
839.106 0.394 0.4627 0.6884 0.6838 0.593 0.51655 0.5785 0.7546 0.7776 0.6393
858.395 0.6548 0.61989 0.413 0.4553 0.4701 0.396 0.4651 0.6213 0.6402 0.366
877.685 0.4362 0.6833 0.6643 0.6934 0.520921 0.53299 0.6842 0.58668 0.53677 0.7131
896.975 0.769 0.668 0.659 0.53996 0.4353 0.4738 0.57786 0.58911 0.51109 0.4316
916.265 0.371 0.307 0.4338 0.51666 0.4562 0.406 0.385 0.5129 0.524513 0.5053
935.555 0.5043 0.461 0.522497 0.59693 0.626 0.6245 0.57945 0.6224 0.657 0.56213
954.844 0.529301 0.60879 0.7726 0.6735 0.55963 0.6903 0.6748 0.6083 0.7217 0.7903
974.134 0.7073 0.7144 0.6571 0.7309 0.878 0.8157 0.7472 0.6598 0.6789 0.7879
993.424 0.7508 0.7052 0.831 0.9678 0.9901 0.9948 1.0521 0.9442 0.8235 0.7329
1012.714 0.57268 0.61819 0.56774 0.6454 0.7257 0.6829 0.9458 0.9508 0.7017 0.7943
1032.003 0.9946 1.1073 1.0351 0.7179 0.54012 0.4302 0.409 0.53859 0.6154 0.6593
1051.293 0.6406 0.55072 0.6228 0.7161 0.723 0.7114 0.7223 0.665 0.54371 0.6412
1070.583 0.8725 0.9103 0.7751 0.7631 0.6932 0.53209 0.57992 1.0484 1.2444 1.1013
1089.873 1.366 2.201 2.971 3.701 5.041 6.441 7.481 8.481 9.431 9.961
1109.163 9.741 8.941 7.851 6.391 4.721 3.291 2.321 1.901 1.961 1.951
1128.452 1.761 1.891 2.021 2.131 2.501 2.681 2.601 2.421 2.291 2.041
1147.742 1.601 1.3649 1.0425 0.9211 1.0583 0.8935 0.8056 0.8438 0.6427 0.57664
1167.032 0.7865 0.8962 0.6569 0.4606 0.53599 0.61993 0.7987 0.9336 1.204 1.2166
1186.322 0.9218 0.961 1.2936 1.44 1.4225 1.2445 0.8741 0.55273 0.409 0.4314
1205.611 0.6583 0.7125 0.59214 0.9107 0.9175 0.6387 0.7381 0.7711 0.4268 0.37
1224.901 0.51443 0.6254 0.7985 0.7636 0.58402 0.6463 0.8202 1.0162 1.2505 1.0986
1244.191 0.875 1.0531 1.3917 1.4351 1.4463 1.761 2.001 2.101 2.291 2.411
1263.481 2.581 2.691 2.861 3.231 3.611 3.981 4.461 5.181 6.171 7.661
1282.771 9.621 12.111 15.021 18.221 21.481 24.681 27.331 29.071 29.551 28.031
1302.060 25.061 21.601 17.851 13.981 10.441 7.481 5.231 3.681 2.631 1.981
1321.350 1.591 1.3595 1.2449 1.1173 0.9932 0.97 1.0059 0.9576 0.8497 0.8228
1340.640 0.8228 0.7844 0.8064 0.7701 0.67 0.7166 0.7606 0.7486 0.7306 0.7407
1359.930 0.7911 0.814 0.8159 0.8067 0.8322 0.8555 0.8636 0.8622 0.8376 0.8061
1379.219 0.7765 0.7109 0.6993 0.7292 0.7134 0.6655 0.6349 0.6573 0.714 0.6951
1398.509 0.6698 0.6928 0.6897 0.742 0.7765 0.802 0.8847 0.9666 1.0352 1.0597
1417.799 1.1391 1.2885 1.4259 1.601 1.771 2.031 2.371 2.661 2.961 3.261
1437.089 3.461 3.711 3.911 3.881 3.601 3.191 2.831 2.481 2.131 1.851
1456.378 1.611 1.3636 1.1648 1.034 0.9611 0.8824 0.7734 0.7244 0.7067 0.708
1475.668 0.7697 0.826 0.8686 0.9391 0.9666 0.9778 1.0038 1.008 0.9909 0.8786
1494.958 0.7753 0.6998 0.60423 0.57711 0.5374 0.4746 0.4989 0.521906 0.4811 0.4781
1514.248 0.5021 0.4984 0.52272 0.55867 0.58969 0.6316 0.59282 0.55211 0.54657 0.521522
1533.538 0.494 0.484 0.527142 0.525716 0.4976 0.4904 0.4655 0.4403 0.4554 0.5064
1552.827 0.5349 0.5398 0.57055 0.583 0.53794 0.53165 0.57027 0.58888 0.6481 0.6257
1572.117 0.58747 0.6399 0.7753 0.9456 1.0009 1.0134 1.1228 1.1945 1.1519 1.133
1591.407 1.0499 0.9881 0.9238 0.8599 0.8341 0.7715 0.6544 0.6257 0.6823 0.6236
1610.697 0.57194 0.6109 0.59492 0.6184 0.6559 0.6388 0.61169 0.53977 0.51971 0.60645
1629.986 0.59878 0.54463 0.55561 0.59357 0.59968 0.61416 0.60332 0.4849 0.56936 0.6395
1649.276 0.57172 0.59064 0.6574 0.6745 0.6694 0.6538 0.7179 0.8532 0.915 0.8747
1668.566 0.8105 0.901 0.9597 0.8939 0.8471 0.7701 0.7296 0.7104 0.6362 0.6165
1687.856 0.59987 0.57062 0.6321 0.6555 0.6254 0.6318 0.6883 0.7401 0.7058 0.7236
1707.146 0.7543 0.7637 0.7229 0.6758 0.6719 0.6919 0.718 0.719 0.7266 0.7218
1726.435 0.766 0.7485 0.6851 0.6923 0.6678 0.6321 0.61886 0.6615 0.6439 0.56901
1745.725 0.6247 0.6767 0.6643 0.6444 0.6696 0.6995 0.6685 0.6552 0.7032 0.7362
1765.015 0.7581 0.7462 0.7094 0.7118 0.7144 0.7338 0.7366 0.7127 0.7066 0.6451
1784.305 0.60977 0.7162 0.7922 0.7655 0.7678 0.8294 0.8687 0.8647 0.9285 0.9956
1803.594 1.038 1.0786 1.1212 1.1449 1.0923 1.0801 1.02 1.0043 1.0331 0.9832
1822.884 0.9688 0.8684 0.8153 0.8771 0.8127 0.7464 0.7699 0.7847 0.7572 0.7032
1842.174 0.6528 0.637 0.6305 0.6398 0.68 0.6862 0.6862 0.6702 0.6571 0.6653
1861.464 0.6673 0.655 0.6652 0.7263 0.7439 0.7424 0.6841 0.6944 0.7522 0.7872
1880.754 0.7733 0.7071 0.7214 0.7688 0.825 0.8519 0.802 0.8257 0.8848 0.9087
1900.043 0.9563 0.9093 0.9107 0.9481 0.923 0.9292 0.9085 0.8945 0.8853 0.8351
1919.333 0.7477 0.6491 0.6926 0.7293 0.6345 0.58124 0.56354 0.54281 0.57076 0.6457
1938.623 0.6514 0.59546 0.60468 0.6473 0.6809 0.6915 0.6946 0.7201 0.7207 0.7508
1957.913 0.8183 0.827 0.8532 0.8421 0.8276 0.9015 0.8666 0.8277 0.878 0.8811
1977.202 0.8633 0.859 0.7897 0.6483 0.60162 0.6427 0.61593 0.55036 0.56298 0.60831
1996.492 0.57992 0.524327 0.57742 0.54973 0.4726 0.51543 0.54757 0.55115 0.56162 0.54357
2015.782 0.51751 0.5104 0.4742 0.4807 0.4924 0.4783 0.4877 0.51361 0.4863 0.4715
2035.072 0.4891 0.4682 0.51671 0.54085 0.53854 0.523725 0.4927 0.53883 0.56899 0.53339
2054.362 0.4959 0.527108 0.509 0.4984 0.54636 0.57228 0.60878 0.6281 0.56851 0.484
2073.651 0.51493 0.526211 0.4971 0.4765 0.4957 0.59966 0.58789 0.51847 0.5022 0.526398
2092.941 0.59459 0.56913 0.56547 0.60828 0.6294 0.5962 0.56155 0.58859 0.55199 0.4605
2112.231 0.458 0.53421 0.53571 0.5218 0.522756 0.55107 0.60616 0.6413 0.6526 0.61303
2131.521 0.59153 0.57868 0.60907 0.6173 0.57379 0.61283 0.61252 0.61024 0.58843 0.57322
2150.810 0.6338 0.6459 0.60777 0.58609 0.57285 0.56102 0.58939 0.6629 0.6248 0.60824
2170.100 0.6847 0.6428 0.5809 0.6271 0.62048 0.55657 0.526551 0.55368 0.59963 0.61413
2189.390 0.5921 0.5209 0.53729 0.6254 0.6517 0.6518 0.7071 0.7069 0.7085 0.6999
2208.680 0.6749 0.7078 0.7329 0.7552 0.6792 0.685 0.7273 0.6996 0.7156 0.7022
2227.970 0.6768 0.6537 0.6667 0.6829 0.7022 0.6853 0.6216 0.655 0.7341 0.7258
2247.259 0.6762 0.714 0.7266 0.7019 0.6453 0.61651 0.7201 0.7191 0.6605 0.66
2266.549 0.678 0.6483 0.7202 0.748 0.6564 0.655 0.653 0.61031 0.57812 0.60398
2285.839 0.6366 0.6977 0.689 0.61514 0.6658 0.7214 0.6879 0.7333 0.7672 0.6876
2305.129 0.6897 0.6873 0.6668 0.7108 0.7458 0.7611 0.7621 0.8004 0.7765 0.7886
2324.418 0.8006 0.7733 0.7685 0.7682 0.7868 0.7135 0.6866 0.7088 0.716 0.7203
2343.708 0.7042 0.7298 0.7632 0.7544 0.7447 0.7816 0.803 0.7219 0.6628 0.6989
2362.998 0.7013 0.7088 0.7033 0.671 0.698 0.7726 0.7388 0.6752 0.6485 0.6606
2382.288 0.6819 0.7212 0.7872 0.7549 0.6948 0.6811 0.6667 0.61986 0.6224 0.6636
2401.578 0.7809 0.7292 0.6892 0.7121 0.6472 0.6804 0.7255 0.6928 0.59825 0.55518
2420.867 0.55441 0.57851 0.60761 0.61278 0.6114 0.60268 0.60065 0.58109 0.58307 0.6301
2440.157 0.6832 0.6695 0.631 0.61427 0.6484 0.6981 0.6311 0.61203 0.6607 0.6696
2459.447 0.6969 0.7108 0.7191 0.6852 0.6905 0.7618 0.7466 0.7798 0.7754 0.6708
2478.737 0.60862 0.6291 0.6253 0.6774 0.7065 0.6957 0.7466 0.7224 0.6917 0.655
2498.026 0.6828 0.7265 0.6314 0.54468 0.6344 0.6672 0.6977 0.7349 0.6907 0.6631
2517.316 0.6599 0.7064 0.7378 0.6785 0.55223 0.5805 0.6315 0.60759 0.6806 0.7414
2536.606 0.6549 0.6994 0.7916 0.7676 0.8673 0.908 0.8407 0.8305 0.8574 0.8315
2555.896 0.7706 0.7536 0.7359 0.7511 0.7803 0.7537 0.7235 0.7603 0.8098 0.8071
2575.186 0.7911 0.7215 0.7514 0.9273 0.9728 0.9529 0.9187 0.9614 0.9583 0.9064
2594.475 0.911 0.9048 0.8296 0.7523 0.7734 0.7355 0.7732 0.8206 0.8042 0.8523
2613.765 0.7953 0.7014 0.7858 0.8581 0.7932 0.8021 0.8299 0.8328 0.7546 0.738
2633.055 0.7529 0.7396 0.7224 0.7709 0.8266 0.6989 0.6997 0.7522 0.6975 0.6229
2652.345 0.6748 0.6861 0.7217 0.7453 0.688 0.6861 0.6744 0.683 0.7113 0.7951
2671.634 0.7603 0.6524 0.6997 0.8026 0.8497 0.8215 0.8209 0.7486 0.676 0.7418
2690.924 0.7459 0.8105 0.8817 0.9485 1.0298 0.9898 0.9184 0.8503 0.7941 0.8141
2710.214 0.8539 0.7623 0.7672 0.7997 0.7758 0.7233 0.6523 0.6685 0.7208 0.7157
2729.504 0.6415 0.7211 0.7732 0.7449 0.8069 0.7997 0.7511 0.7857 0.7542 0.6487
2748.794 0.6766 0.7936 0.6965 0.6271 0.7406 0.7869 0.7587 0.8127 0.8323 0.7284
2768.083 0.6673 0.6888 0.774 0.8524 0.8564 0.7885 0.8119 0.7959 0.7718 0.739
2787.373 0.6652 0.725 0.7946 0.7709 0.7197 0.7096 0.6917 0.7463 0.7932 0.7395
2806.663 0.61912 0.56631 0.6654 0.6352 0.6516 0.8182 0.9033 0.847 0.889 0.8813
2825.953 0.7866 0.8194 0.773 0.7449 0.7513 0.7869 0.8191 0.7915 0.8489 0.9241
2845.242 0.8516 0.8021 0.8515 0.7664 0.6291 0.6694 0.6556 0.6482 0.6903 0.57604
2864.532 0.58356 0.7094 0.7699 0.7966 0.7664 0.7749 0.7993 0.7131 0.60491 0.7108
2883.822 0.7672 0.7838 0.8505 0.762 0.711 0.7679 0.7986 0.75 0.7366 0.7497
2903.112 0.7639 0.7617 0.8466 1.0642 1.0619 0.8736 0.8252 0.8592 0.876 0.8367
2922.401 0.7737 0.6718 0.7067 0.7479 0.7114 0.7861 0.8279 0.7764 0.7843 0.8672
2941.691 0.7926 0.6964 0.59778 0.56375 0.6981 0.7171 0.6622 0.6797 0.5418 0.6597
2960.981 0.8952 0.903 0.8897 0.8287 0.7599 0.792 0.8871 0.8522 0.7294 0.6669
2980.271 0.7808 0.778 0.6924 0.6921 0.7606 0.8414 0.9198 0.8868 0.7084 0.7559
2999.561 0.9314 0.9174 0.9142 0.8488 0.838 0.9004 0.8768 1.0131 0.9939 0.7975
3018.850 0.9349 1.0579 1.0645 1.158 1.0517 0.9953 0.993 0.9551 1.0411 1.0888
3038.140 1.1498 1.1815 1.112 1.1201 1.1277 1.1869 1.3145 1.4604 1.541 1.661
3057.430 1.891 2.181 2.531 2.801 3.191 3.611 3.851 4.001 4.071 4.001
3076.720 3.971 3.821 3.551 3.341 2.981 2.591 2.361 2.311 2.261 2.121
3096.009 1.971 1.791 1.621 1.531 1.3637 1.2055 1.1518 1.1151 1.0114 0.9339
3115.299 0.9311 0.8582 0.8971 0.9279 0.7822 0.7392 0.7669 0.6446 0.765 0.8491
3134.589 0.7058 0.7046 0.7077 0.7134 0.7216 0.58936 0.57424 0.7063 0.6763 0.7254
3153.879 0.7915 0.7752 0.6252 0.6381 0.6988 0.6943 0.7729 0.7419 0.6592 0.51932
3173.169 0.61263 0.59947 0.54984 0.6447 0.60735 0.6989 0.7408 0.6682 0.57262 0.527802
3192.458 0.53481 0.57513 0.7027 0.7694 0.6856 0.7019 0.7734 0.6663 0.55866 0.51336
3211.748 0.5457 0.55184 0.59084 0.529034 0.4583 0.55758 0.59697 0.58163 0.55988 0.4879
3231.038 0.4734 0.523207 0.53546 0.55253 0.6547 0.6784 0.693 0.7159 0.525405 0.412
3250.328 0.383 0.315 0.295 0.283 0.4801 0.6012 0.5058 0.5048 0.61775 0.59555
3269.617 0.51335 0.56035 0.5488 0.51897 0.51189 0.51297 0.4736 0.4524 0.4349 0.4636
3288.907 0.58482 0.60182 0.4499 0.42 0.59369 0.55865 0.413 0.51429 0.6691 0.7298
3308.197 0.59585 0.4252 0.479 0.4681 0.416 0.57242 0.6897 0.54118 0.4944 0.4286
3327.487 0.312 0.379 0.392 0.41 0.385 0.29 0.284 0.4345 0.5385 0.4696
3346.777 0.4295 0.55781 0.4649 0.223 0.364 0.53541 0.4605 0.51844 0.54172 0.4732
3366.066 0.5093 0.54725 0.51656 0.51389 0.6218 0.6261 0.529416 0.5009 0.57631 0.5077
3385.356 0.4871 0.498 0.4575 0.414 0.388 0.338 0.4253 0.55858 0.5083 0.287
3404.646 0.19 0.4545 0.57753 0.51149 0.55969 0.6532 0.524295 0.478 0.4562 0.236
3423.936 0.288 0.4469 0.316 0.249 0.322 0.358 0.4947 0.522759 0.322 0.267
3443.225 0.316 0.413 0.54833 0.53179 0.4312 0.4455 0.4475 0.444 0.51214 0.4565
3462.515 0.391 0.361 0.266 0.181 0.254 0.382 0.283 0.25 0.402 0.4287
3481.805 0.4737 0.4957 0.336 0.295 0.342 0.358 0.4737 0.38 0.25 0.304
3501.095 0.401 0.4798 0.4447 0.424 0.399 0.333 0.268 0.248 0.247 0.328
3520.385 0.358 0.32 0.367 0.283 0.385 0.411 0.42 0.404 0.205 0.245
3539.674 0.195 0.242 0.358 0.32 0.3 0.382 0.433 0.298 0.267 0.347
3558.964 0.4529 0.365 0.154 0.263 0.334 0.235 0.372 0.4375 0.396 0.312
3578.254 0.249 0.403 0.353 0.275 0.279 0.321 0.301 0.386 0.4373 0.231
3597.544 0.243 0.31 0.322 0.297 0.27 0.274 0.305 0.395 0.4418 0.391
3616.833 0.26 0.17 0.191 0.221 0.292 0.276 0.292 0.279 0.114 0.266
3636.123 0.347 0.327 0.355 0.255 0.199 0.188 0.276 0.308 0.368 0.4709
3655.413 0.4389 0.352 0.233 0.138 0.155 0.395 0.6294 0.4409 0.298 0.528923
3674.703 0.5339 0.379 0.5015 0.4583 0.4637 0.51936 0.281 0.279 0.374 0.4419
3693.993 0.293 0.222 0.392 0.4786 0.55698 0.626 0.58749 0.244 0.238 0.4466
3713.282 0.37 0.198 0.216 0.27 0.322 0.4776 0.378 0.4248 0.51203 0.4962
3732.572 0.275 0.137 0.233 0.291 0.362 0.401 0.353 0.346 0.334 0.365
3751.862 0.349 0.322 0.4743 0.4738 0.285 0.222 0.346 0.364 0.4318 0.355
3771.152 0.269 0.179 0.213 0.335 0.297 0.4258 0.59902 0.53481 0.42 0.4283
3790.441 0.53975 0.5109 0.32 0.382 0.53947 0.4533 0.267 0.203 0.261 0.4304
3809.731 0.358 0.251 0.223 0.239 0.255 0.147 0.176 0.028 0.005 0.106
3829.021 0.226 0.317 0.052 0.124 0.368 0.267 0.197 0.194 0.121 0.173
3848.311 0.157 0.092 0.37 0.51836 0.357 0.358 0.204 0 0.175 0.253
3867.601 0.101 0.064 0.154 0.257 0.188 0.146 0.295 0.4268 0.4567 0.333
3886.890 0.269 0.331 0.403 0.412 0.4976 0.56557 0.39 0.34 0.276 0.133
3906.180 0.134 0.392 0.4746 0.241 0.29 0.391 0.355 0.332 0.392 0.307
3925.470 0.207 0.362 0.522754 0.368 0.373 0.304 0.128 0.353 0.54131 0.363
3944.760 0.05 0.164 0.4421 0.413 0.408 0.45 0.166 0.09 0.277 0.344
3964.049 0.4414 0.21 0.033 0.164 0.133 0.121 0.271 0.5012 0.5505 0.4406
3983.339 0.225 0.175 0.242 0.314 0.4427 0.4617 0.53452 0.4341 0.277 0.249
##END=
