##TITLE=2-Fluoro-6-methoxybenzonitrile
##JCAMP-DX=4.24
##DATA TYPE=INFRARED SPECTRUM
##ORIGIN=EPA-IR VAPOR PHASE LIBRARY
##OWNER=SRD/NIST
Collection (C) 2018 copyright by the U.S. Secretary of Commerce
on behalf of the United States of America. All rights reserved.
##CAS REGISTRY NO=94088-46-7
##MOLFORM=C 8 H 6 F N O
##$NIST SOURCE=MSDC-IR
##STATE=gas
##XUNITS=1/CM
##YUNITS=ABSORBANCE
##XFACTOR=1.
##YFACTOR=0.001
##DELTAX=1.92898
##FIRSTX=549.8
##LASTX=4000.7
##FIRSTY=2.425
##MAXX=4000.7
##MINX=549.759
##MAXY=0.134475
##MINY=0
##NPOINTS=1790
##XYDATA=(X++(Y..Y))
549.759 2.425 2.595 1.805 0.9363 1.0622 1.2546 0.9775 0.4477 0.7124 1.0018
569.049 1.1207 1.117 0.9292 1.1305 1.1931 0.9649 0.7126 0.4112 0.56321 1.1532
588.339 1.0802 0.6589 0.7756 1.3774 1.4462 1.3189 1.4061 1.705 2.065 2.115
607.628 2.215 2.285 2.305 2.185 2.135 1.945 1.925 2.015 1.945 1.895
626.918 1.705 1.905 2.095 2.105 1.875 1.905 2.265 2.475 2.775 2.675
646.208 2.725 2.925 2.815 2.785 2.845 3.345 3.975 4.265 4.325 4.425
665.498 4.865 4.955 4.635 4.645 4.755 4.685 4.655 4.565 4.285 4.145
684.787 4.125 3.765 3.485 3.005 2.575 2.655 2.815 2.965 3.255 4.045
704.077 5.325 6.655 8.275 10.105 11.615 12.955 14.595 17.475 21.155 24.185
723.367 23.295 20.045 18.245 16.825 15.275 13.665 11.905 10.185 8.275 7.045
742.657 6.425 5.415 4.695 4.735 4.405 3.995 4.075 4.525 4.785 4.965
761.947 5.945 7.465 9.435 11.395 13.165 15.305 17.855 20.245 23.165 27.675
781.236 33.155 35.915 33.495 31.005 29.815 28.865 27.435 24.625 21.275 17.615
800.526 14.705 12.515 10.545 8.625 6.775 5.495 4.645 4.165 3.655 3.055
819.816 2.645 2.485 2.605 2.385 2.095 1.575 1.2386 1.249 1.565 1.765
839.106 1.4707 1.2442 1.0923 1.2507 1.835 1.885 1.595 1.4714 1.2247 1.3666
858.395 1.3889 1.0679 1.126 1.3381 1.555 1.3344 1.3185 1.835 1.905 1.865
877.685 2.015 1.885 1.715 1.705 1.825 1.735 1.735 1.925 1.635 1.4675
896.975 1.675 1.925 1.965 1.955 2.185 2.225 2.035 1.945 1.925 1.665
916.265 1.605 1.775 2.305 2.625 2.245 2.625 2.905 3.155 3.975 4.725
935.555 5.225 5.955 7.105 7.915 8.475 9.295 9.865 10.205 10.715 10.895
954.844 10.605 10.065 9.555 8.995 8.645 7.955 7.615 7.585 7.085 6.825
974.134 6.415 5.945 5.375 5.275 5.525 4.855 4.235 4.195 4.215 4.215
993.424 3.715 3.345 3.475 3.575 3.515 3.585 4.015 3.875 3.965 4.625
1012.714 4.845 4.945 5.515 6.215 6.385 6.415 7.425 8.475 8.935 9.465
1032.003 10.725 13.005 14.805 16.055 17.835 20.075 22.615 25.175 27.875 30.665
1051.293 32.805 34.895 38.255 41.135 43.105 44.935 46.485 47.705 48.275 49.555
1070.583 50.605 50.945 52.315 54.275 56.135 59.275 63.585 69.065 75.685 83.535
1089.873 91.225 98.195 103.285 104.935 104.935 102.745 97.685 90.705 80.335 66.575
1109.163 52.785 39.515 27.245 18.425 13.815 10.715 8.025 7.135 6.815 6.725
1128.452 6.395 5.705 4.935 3.505 3.575 4.555 5.035 4.415 2.855 2.335
1147.742 3.845 4.225 3.315 3.495 3.595 3.685 3.725 3.275 3.015 2.775
1167.032 3.055 3.585 3.365 3.375 3.545 3.705 3.885 4.185 4.635 4.335
1186.322 4.605 4.895 4.345 3.425 2.565 2.605 2.625 2.735 3.025 2.625
1205.611 2.005 2.505 3.985 5.145 4.555 4.985 5.855 5.945 7.335 7.805
1224.901 8.645 10.665 12.765 15.275 19.335 25.075 31.615 39.915 50.505 62.125
1244.191 73.265 83.035 90.245 93.835 94.975 94.545 91.275 85.135 76.515 67.555
1263.481 57.075 44.575 33.955 26.635 22.285 20.025 19.915 20.945 22.255 23.855
1282.771 26.165 29.275 32.305 35.765 39.535 43.405 46.995 49.655 51.485 52.325
1302.060 51.965 50.425 48.095 45.025 41.335 37.175 32.635 28.135 23.995 20.435
1321.350 17.675 15.495 13.745 12.335 11.285 10.485 9.675 9.105 8.655 8.015
1340.640 7.365 6.775 6.325 5.935 5.405 4.925 4.595 4.415 4.245 4.055
1359.930 3.975 3.745 3.705 3.755 3.765 3.975 4.025 3.955 4.125 4.375
1379.219 4.505 4.715 4.875 4.915 4.965 4.925 4.905 4.915 4.875 5.005
1398.509 5.105 5.065 5.035 5.095 5.235 5.395 5.705 6.195 6.655 7.165
1417.799 7.905 8.935 10.345 12.165 14.485 17.335 20.835 24.925 29.195 33.105
1437.089 36.185 38.175 39.415 40.415 40.805 40.665 40.715 40.405 39.585 39.315
1456.378 41.135 45.355 51.555 59.845 69.595 80.305 91.795 103.955 115.415 124.665
1475.668 131.165 134.475 133.395 127.945 118.885 106.725 92.715 78.295 64.535 52.025
1494.958 40.815 31.435 24.335 19.215 15.875 13.945 12.875 12.015 11.215 10.735
1514.248 10.325 10.015 9.755 9.345 9.025 9.105 9.155 8.985 9.115 9.485
1533.538 9.865 10.365 11.055 11.735 12.495 13.515 14.725 16.215 18.055 19.985
1552.827 22.005 24.325 26.775 29.275 32.015 34.865 37.725 40.735 43.535 46.075
1572.117 48.495 50.735 52.775 54.275 55.135 55.585 55.415 54.715 53.915 53.345
1591.407 53.075 53.075 53.785 55.515 58.625 63.155 68.365 73.275 76.675 77.315
1610.697 75.495 71.915 67.155 61.675 55.355 48.045 40.035 31.875 24.585 18.945
1629.986 14.675 11.855 10.085 8.695 7.735 7.085 6.495 5.845 5.235 4.865
1649.276 4.525 4.345 4.105 3.805 3.545 3.265 3.185 3.175 3.085 3.055
1668.566 3.135 3.075 2.855 2.825 2.905 2.845 2.675 2.535 2.545 2.575
1687.856 2.555 2.495 2.365 2.335 2.355 2.265 2.235 2.275 2.255 2.395
1707.146 2.455 2.245 2.175 2.285 2.135 2.005 1.915 1.865 1.925 1.875
1726.435 1.885 1.885 1.895 1.995 2.025 1.885 1.855 1.865 1.855 2.065
1745.725 2.055 1.905 1.855 1.785 1.845 1.795 1.585 1.615 1.685 1.585
1765.015 1.545 1.545 1.515 1.525 1.525 1.485 1.4239 1.4066 1.4134 1.4073
1784.305 1.3101 1.1691 1.0965 1.1336 1.297 1.3287 1.2232 1.1669 1.3753 1.495
1803.594 1.4426 1.495 1.595 1.715 1.735 1.745 1.865 1.835 1.645 1.745
1822.884 1.875 1.785 1.725 1.705 1.735 1.715 1.635 1.595 1.605 1.535
1842.174 1.4568 1.3954 1.3582 1.3797 1.4012 1.456 1.405 1.3036 1.2425 1.2253
1861.464 1.2971 1.3392 1.2312 1.1963 1.2051 1.2723 1.4325 1.505 1.555 1.545
1880.754 1.625 1.735 1.795 1.835 1.875 1.945 1.975 2.035 2.085 2.135
1900.043 2.205 2.295 2.335 2.445 2.745 2.925 3.055 3.235 3.235 3.225
1919.333 3.295 3.335 3.195 2.985 2.745 2.645 2.505 2.155 1.935 1.805
1938.623 1.655 1.525 1.469 1.3834 1.1392 1.0375 1.1309 1.1362 1.1566 1.2345
1957.913 1.1649 1.1532 1.2027 1.2549 1.3467 1.2952 1.2244 1.2528 1.3003 1.3263
1977.202 1.3504 1.3582 1.344 1.3898 1.3782 1.2751 1.3059 1.3763 1.36 1.3772
1996.492 1.3707 1.3412 1.3361 1.3159 1.3275 1.2783 1.2178 1.2674 1.2978 1.3138
2015.782 1.356 1.4184 1.495 1.505 1.555 1.545 1.4133 1.4552 1.605 1.685
2035.072 1.715 1.795 1.815 1.755 1.745 1.705 1.595 1.555 1.495 1.3335
2054.362 1.1864 1.1914 1.1281 1.0248 1.0303 0.939 0.9601 1.069 1.0572 1.1054
2073.651 1.108 1.0714 1.0445 1.0901 1.0846 1.1507 1.2218 1.1714 1.2268 1.2929
2092.941 1.2183 1.0539 1.0553 1.1235 1.1186 1.1981 1.2837 1.1547 1.043 1.0405
2112.231 1.0167 0.9468 0.9699 0.9884 1.0368 1.189 1.148 1.1757 1.2317 1.0671
2131.521 1.1122 1.1483 1.1345 1.1099 1.1617 1.2401 1.2163 1.1362 1.0883 1.2885
2150.810 1.282 1.2105 1.1599 1.1772 1.2245 1.2847 1.3159 1.2404 1.2125 1.16
2170.100 1.2332 1.2398 1.1209 1.1428 1.2983 1.3766 1.3857 1.4524 1.4703 1.3733
2189.390 1.4725 1.645 1.705 1.565 1.4071 1.3949 1.398 1.565 1.525 1.4379
2208.680 1.555 1.615 1.545 1.635 1.905 2.165 2.575 3.055 3.615 4.235
2227.970 4.865 5.525 6.145 6.705 7.005 7.225 7.325 7.375 7.315 6.885
2247.259 6.415 5.885 5.295 4.655 4.065 3.665 3.245 2.955 2.785 2.475
2266.549 2.295 2.205 2.075 1.975 1.775 1.675 1.695 1.695 1.565 1.4357
2285.839 1.4594 1.3821 1.2456 1.134 1.0499 1.0668 1.0964 1.0633 1.0306 1.0101
2305.129 0.8991 0.8502 0.931 0.944 0.9171 0.9479 1.0014 0.9052 0.9303 0.9785
2324.418 0.9512 1.0215 1.0048 0.9676 0.946 0.9886 1.1941 1.1844 1.1964 1.3171
2343.708 1.182 1.1251 1.0505 1.0665 1.0527 1.0799 1.3248 1.2966 1.1634 1.1812
2362.998 1.0894 1.0455 1.0942 1.153 1.2742 1.1752 1.0834 1.1081 1.1385 1.1884
2382.288 1.2035 1.1477 1.1726 1.2364 1.1421 1.1179 1.1725 1.2411 1.2608 1.2645
2401.578 1.2474 1.2921 1.3999 1.3444 1.2297 1.328 1.4222 1.515 1.505 1.4368
2420.867 1.4238 1.4433 1.525 1.4277 1.4051 1.485 1.505 1.3365 1.1893 1.181
2440.157 1.0705 1.0718 1.1311 1.1323 1.0148 0.8991 0.7852 0.8646 0.9632 0.86
2459.447 0.8873 0.8813 0.8782 0.983 1.0616 1.0183 0.9495 0.9721 0.8984 0.7462
2478.737 0.7594 0.7088 0.7058 0.8599 0.9471 0.7902 0.7184 0.7862 0.9011 0.9776
2498.026 0.9026 0.981 1.1586 1.1265 0.9849 0.9694 1.1041 1.1698 1.2118 1.2047
2517.316 1.1977 1.4205 1.525 1.535 1.515 1.695 1.935 2.035 2.145 2.175
2536.606 2.125 2.105 2.275 2.355 2.335 2.435 2.415 2.365 2.415 2.335
2555.896 2.165 2.005 2.035 2.085 2.075 2.045 1.885 1.555 1.3078 1.3699
2575.186 1.475 1.545 1.525 1.545 1.535 1.525 1.495 1.575 1.555 1.286
2594.475 1.2777 1.3697 1.4514 1.3827 1.295 1.2819 1.1805 1.2605 1.202 1.1947
2613.765 1.331 1.4471 1.4304 1.1542 1.1116 1.1027 1.1722 1.3128 1.1838 1.1819
2633.055 1.3088 1.2382 1.0813 1.1495 1.1499 1.2174 1.2784 1.2363 1.2011 1.201
2652.345 1.3456 1.1931 1.0987 1.1697 1.1941 1.1782 1.1876 1.0893 0.9825 1.1453
2671.634 1.273 1.2412 1.2568 1.2451 1.204 1.2861 1.2996 1.2955 1.3078 1.0986
2690.924 1.0659 1.1304 1.022 1.0192 1.0481 1.1086 1.1661 1.1653 1.1532 1.1869
2710.214 1.1826 1.1039 1.0731 1.2093 1.2848 1.37 1.3721 1.2491 1.0335 1.0292
2729.504 1.1642 1.2193 1.4622 1.605 1.575 1.605 1.4494 1.2223 1.3094 1.515
2748.794 1.545 1.485 1.555 1.625 1.585 1.545 1.605 1.655 1.735 1.675
2768.083 1.555 1.665 1.825 1.735 1.815 2.055 1.845 1.685 1.695 1.625
2787.373 1.735 1.865 1.835 1.765 1.645 1.675 1.805 1.655 1.655 1.645
2806.663 1.665 1.705 1.705 1.815 1.885 2.115 2.165 2.225 2.365 2.615
2825.953 2.875 2.995 3.395 3.785 4.115 4.595 5.245 6.125 7.245 8.215
2845.242 8.755 9.365 9.975 10.575 10.795 10.465 10.305 9.935 9.275 8.585
2864.532 7.625 6.635 5.985 5.735 5.505 5.105 4.985 5.385 5.545 5.315
2883.822 5.375 5.625 5.725 5.925 6.205 6.035 6.215 6.575 6.635 6.925
2903.112 7.175 7.305 7.345 7.115 6.795 6.775 6.945 6.895 7.075 7.235
2922.401 7.245 7.415 7.575 7.895 8.075 8.705 9.805 11.055 12.525 14.005
2941.691 15.325 16.625 17.775 18.345 18.565 18.615 18.485 18.365 18.015 17.405
2960.981 16.685 15.665 14.765 14.195 14.145 14.675 14.455 13.635 12.875 11.805
2980.271 10.765 10.195 9.815 9.165 8.395 7.745 7.655 7.515 7.105 7.075
2999.561 7.045 7.195 7.495 7.725 7.975 8.545 9.335 10.025 10.765 11.095
3018.850 11.075 11.005 11.005 10.855 10.475 10.095 9.425 8.515 7.655 6.775
3038.140 6.065 5.595 5.195 4.935 4.685 4.655 4.415 4.085 3.915 3.715
3057.430 3.915 3.975 3.835 3.885 3.875 3.755 3.855 4.195 4.065 3.945
3076.720 4.245 4.505 4.635 4.505 4.365 4.225 4.335 4.605 4.445 4.305
3096.009 4.415 4.215 3.815 3.555 3.295 3.265 3.245 2.895 2.705 2.525
3115.299 2.125 1.925 1.985 1.965 1.765 1.535 1.3811 1.575 1.715 1.615
3134.589 1.3092 1.0915 1.4308 1.3286 1.3211 1.4183 1.0048 0.9395 1.1104 1.1248
3153.879 1.0765 1.2161 1.3107 1.0927 0.8799 0.8602 0.8689 1.05 1.1814 1.0909
3173.169 1.0032 0.8975 0.8738 0.8781 1.1195 1.0985 0.983 0.9754 0.9917 1.013
3192.458 0.715 0.9116 1.0008 0.9707 0.902 0.8269 1.1687 1.0746 0.8113 0.9536
3211.748 1.0982 0.9522 0.7078 0.6539 0.7012 0.6159 0.64 0.7591 0.6237 0.6759
3231.038 0.8487 0.7801 0.6892 0.5704 0.6757 0.793 1.056 1.0073 0.47185 0.4542
3250.328 0.6422 0.6634 0.5876 0.5843 0.6196 0.49541 0.577 0.5866 0.235 0.245
3269.617 0.4134 0.4195 0.306 0.254 0.26 0.51224 0.56882 0.364 0.4112 0.312
3288.907 0.255 0.287 0.4407 0.54521 0.5983 0.5968 0.4565 0.53112 0.4343 0.4631
3308.197 0.53101 0.248 0.286 0.55414 0.49932 0.53019 0.5972 0.56873 0.7177 0.7062
3327.487 0.6827 0.6599 0.7966 0.53369 0.206 0.291 0.347 0.4659 0.52035 0.4157
3346.777 0.53044 0.6351 0.49232 0.51478 0.283 0.218 0.4383 0.4533 0.4378 0.49509
3366.066 0.55355 0.3992 0.306 0.4501 0.5868 0.56075 0.47135 0.7794 0.9566 0.6273
3385.356 0.484477 0.323 0.326 0.276 0.4177 0.9199 0.8703 0.7475 0.6542 0.6453
3404.646 0.7543 0.6793 0.51435 0.5667 0.7996 0.6618 0.6015 0.6888 0.6181 0.7835
3423.936 1.1107 1.0261 0.7945 0.8751 0.9278 0.7115 0.35 0.4214 0.6878 0.617
3443.225 0.56438 0.476117 0.5801 0.6257 0.3828 0.50128 0.6711 0.7237 0.6618 0.4016
3462.515 0.298 0.5882 0.5849 0.196 0.114 0.3885 0.51479 0.259 0.3905 0.6942
3481.805 0.6038 0.5139 0.374 0.366 0.54741 0.7601 0.7121 0.49458 0.56936 0.4419
3501.095 0.55947 0.7188 0.56472 0.50877 0.6117 0.6733 0.7056 0.7898 0.6895 0.51452
3520.385 0.305 0.375 0.422 0.284 0.3965 0.46536 0.337 0.246 0.6145 0.7954
3539.674 0.289 0.163 0.4294 0.6437 0.50115 0.352 0.229 0.218 0.4064 0.55757
3558.964 0.458 0.50206 0.7484 0.5913 0.4069 0.174 0 0.323 0.56493 0.6883
3578.254 0.6728 0.47434 0.48695 0.4399 0.4304 0.49247 0.4323 0.272 0.268 0.295
3597.544 0.4332 0.54207 0.51381 0.639 0.6129 0.48624 0.46826 0.56898 0.6431 0.53815
3616.833 0.4601 0.158 0.269 0.4881 0.49718 0.8294 0.8014 0.55285 0.4214 0.31
3636.123 0.347 0.4591 0.344 0.3811 0.7206 0.8355 0.8509 0.6619 0.53269 0.6398
3655.413 0.50154 0.48817 0.52565 0.49512 0.56173 0.3832 0.4429 0.8714 0.6256 0.49481
3674.703 0.50364 0.292 0.4104 0.4458 0.4026 0.363 0.354 0.6241 0.6433 0.4229
3693.993 0.34 0.267 0.4384 0.6747 0.7047 0.7507 0.7843 0.6352 0.55945 0.4309
3713.282 0.3888 0.50608 0.6281 0.8003 0.8337 0.53636 0.3926 0.477725 0.4447 0.317
3732.572 0.264 0.297 0.374 0.4457 0.323 0.139 0.268 0.3963 0.47303 0.372
3751.862 0.291 0.4207 0.4198 0.4356 0.49034 0.4495 0.262 0.46691 0.6455 0.475636
3771.152 0.437 0.168 0.242 0.6728 0.56375 0.387 0.46903 0.4199 0.338 0.315
3790.441 0.4623 0.479948 0.331 0.4749 0.6964 0.56578 0.53688 0.6345 0.6939 0.6399
3809.731 0.4124 0.5847 0.5936 0.6476 0.721 0.6678 0.7118 0.7758 0.6662 0.6622
3829.021 0.6706 0.7429 0.8235 0.55599 0.656 0.8204 0.6787 0.7028 0.8781 0.7529
3848.311 0.5936 0.5703 0.619 0.7335 0.668 0.6443 0.8835 1.1271 0.8844 0.6932
3867.601 0.732 0.55229 0.5125 0.5753 0.7055 0.8777 0.8317 0.7095 0.9741 1.188
3886.890 0.9241 0.48716 0.57443 0.7335 0.5835 0.86 0.9404 0.4223 0.273 0.4034
3906.180 0.26 0.6572 1.0193 0.5361 0.5062 0.9731 0.9642 0.8143 0.5918 0.336
3925.470 0.4024 0.48503 0.474495 0.52892 0.7649 0.8394 0.4189 0.317 0.272 0.265
3944.760 0.327 0.354 0.6617 0.6046 0.3855 0.23 0.56019 0.7528 0.6395 0.9124
3964.049 0.908 0.6568 0.54155 0.50804 0.4519 0.6217 0.7347 0.54416 0.355 0.244
3983.339 0.3783 0.365 0.4012 0.7174 0.7253 0.7191 0.6069 0.57304 0.7391 0.7557
##END=
