##TITLE=3-Chloro-2-fluorobenzonitrile
##JCAMP-DX=4.24
##DATA TYPE=INFRARED SPECTRUM
##ORIGIN=EPA-IR VAPOR PHASE LIBRARY
##OWNER=SRD/NIST
Collection (C) 2018 copyright by the U.S. Secretary of Commerce
on behalf of the United States of America. All rights reserved.
##CAS REGISTRY NO=94087-40-8
##MOLFORM=C 7 H 3 Cl F N
##$NIST SOURCE=MSDC-IR
##STATE=gas
##XUNITS=1/CM
##YUNITS=ABSORBANCE
##XFACTOR=1.
##YFACTOR=0.001
##DELTAX=1.92898
##FIRSTX=549.8
##LASTX=4000.7
##FIRSTY=1.1339
##MAXX=4000.7
##MINX=549.759
##MAXY=0.103277
##MINY=0
##NPOINTS=1790
##XYDATA=(X++(Y..Y))
549.759 1.1339 0.6328 0.216 0.6983 1.232 1.587 1.747 1.897 2.417 3.437
569.049 4.477 4.597 4.147 4.447 4.217 3.527 3.497 3.497 2.947 2.647
588.339 2.957 2.897 2.257 1.817 1.897 2.397 2.507 2.197 2.647 2.737
607.628 2.097 1.787 1.287 1.867 3.027 3.867 5.547 7.207 8.177 8.527
626.918 8.797 9.247 9.117 8.437 8.197 7.387 6.327 5.387 3.987 2.827
646.208 2.517 2.757 2.427 1.847 2.247 2.407 2.087 1.927 2.137 2.187
665.498 1.577 1.3043 1.607 1.737 1.597 1.3462 1.1129 1.777 2.197 1.837
684.787 1.727 1.637 1.667 1.967 1.997 2.047 2.417 2.987 3.827 4.777
704.077 5.957 7.757 9.447 11.117 13.117 14.687 16.327 18.957 22.957 25.517
723.367 25.877 24.467 20.707 17.187 15.337 13.817 12.187 10.667 8.937 7.367
742.657 5.597 4.337 3.967 3.557 3.177 3.027 3.137 3.527 4.267 5.067
761.947 6.547 8.327 10.917 13.797 16.407 19.757 23.037 26.297 30.397 36.427
781.236 45.707 47.467 35.137 26.917 26.127 25.227 23.497 20.517 17.117 13.497
800.526 11.227 9.437 7.707 6.987 6.537 5.877 5.747 6.687 6.507 6.227
819.816 8.917 12.077 13.237 14.067 13.737 13.207 14.367 15.887 16.297 15.147
839.106 13.277 11.487 10.987 12.107 14.567 18.477 24.117 29.907 34.307 36.787
858.395 37.677 37.937 37.537 36.617 34.777 30.617 24.537 17.837 12.617 10.157
877.685 8.827 7.847 7.597 7.237 6.527 5.847 4.587 3.807 3.637 3.097
896.975 2.637 2.647 2.857 2.797 2.757 2.577 1.927 1.617 1.4643 1.261
916.265 1.3494 1.567 1.667 1.4876 1.4778 1.4342 1.727 1.777 1.5014 1.3076
935.555 1.083 1.647 2.077 1.827 2.007 1.937 2.047 2.527 3.007 3.507
954.844 3.357 3.617 3.837 3.897 4.087 4.037 3.757 3.807 3.687 3.067
974.134 2.747 2.707 2.477 2.367 2.377 2.087 2.197 2.377 2.477 2.307
993.424 1.737 1.2435 1.557 1.727 1.49 1.897 2.417 2.587 2.247 1.867
1012.714 2.017 1.887 1.637 1.747 2.017 1.737 1.0998 1.358 1.917 2.927
1032.003 3.127 2.637 2.417 2.727 3.317 3.237 3.117 3.727 5.167 5.977
1051.293 6.077 5.967 5.807 6.607 6.957 7.357 7.937 7.497 7.347 7.127
1070.583 6.997 6.437 6.337 7.157 6.127 4.807 5.747 5.837 5.397 4.507
1089.873 3.757 4.497 3.787 2.877 3.267 2.717 1.1075 0.8429 1.3518 2.297
1109.163 2.627 1.282 0.7234 0.5754 1.1792 2.337 2.437 3.187 4.027 3.097
1128.452 2.427 2.747 3.107 4.917 5.907 6.287 8.687 11.277 14.357 16.937
1147.742 18.497 19.127 19.107 18.097 15.957 15.727 14.817 11.697 8.817 7.217
1167.032 6.117 5.897 5.757 6.137 6.917 7.047 7.407 7.307 7.427 7.657
1186.322 7.557 6.907 6.487 5.517 4.717 4.347 4.637 4.577 3.877 3.717
1205.611 3.607 3.367 2.927 3.677 4.207 4.167 2.827 3.467 5.457 5.757
1224.901 5.977 6.707 7.587 8.527 9.237 9.597 10.907 12.247 14.027 16.487
1244.191 19.787 23.487 27.197 31.717 35.587 37.947 38.597 38.357 37.657 38.057
1263.481 38.697 35.627 30.167 23.947 17.827 13.327 10.237 8.087 6.207 4.557
1282.771 3.907 3.037 2.377 2.007 1.647 1.747 1.637 1.3869 1.787 2.207
1302.060 2.157 2.337 2.567 2.737 2.757 2.747 2.687 2.567 2.747 2.657
1321.350 2.397 2.397 2.327 2.137 1.877 1.597 1.4609 1.4658 1.5118 1.509
1340.640 1.5081 1.4802 1.4149 1.4322 1.4448 1.4539 1.587 1.587 1.472 1.4221
1359.930 1.4712 1.677 1.717 1.847 1.927 1.807 1.687 1.737 1.817 1.817
1379.219 1.897 1.847 1.807 1.867 1.717 1.527 1.5061 1.577 1.697 1.717
1398.509 1.857 2.107 2.117 2.157 2.137 2.117 2.357 2.587 2.717 2.827
1417.799 3.047 3.327 3.597 4.047 4.737 5.727 6.997 8.537 10.547 13.107
1437.089 16.287 20.217 25.367 31.597 38.807 47.117 56.387 65.157 72.457 77.407
1456.378 80.997 85.427 92.057 99.737 103.277 100.377 93.907 87.427 82.757 78.537
1475.668 73.227 66.757 59.147 50.127 40.357 31.547 24.557 19.287 15.577 12.707
1494.958 10.427 8.967 8.087 7.427 6.757 6.087 5.547 4.907 4.587 4.117
1514.248 3.597 3.277 2.957 2.867 2.597 2.537 2.527 2.517 2.507 2.547
1533.538 2.657 2.567 2.527 2.497 2.697 2.877 3.147 3.557 3.687 4.127
1552.827 4.837 5.337 5.967 6.777 7.567 8.407 9.257 9.657 9.577 9.547
1572.117 9.647 8.987 8.137 7.777 6.977 6.337 5.817 5.067 4.837 5.267
1591.407 5.867 6.247 6.567 6.887 7.347 7.587 7.187 6.917 6.987 6.497
1610.697 5.797 5.207 4.337 3.947 3.887 3.387 2.837 2.537 2.267 2.037
1629.986 1.847 1.857 1.987 1.717 1.5005 1.547 1.4169 1.2911 1.4393 1.657
1649.276 1.627 1.398 1.4564 1.627 1.657 1.557 1.4917 1.567 1.737 1.717
1668.566 1.767 2.037 2.307 2.557 2.737 3.137 3.497 3.607 3.727 3.937
1687.856 3.987 3.797 3.547 3.267 2.867 2.547 2.207 1.767 1.537 1.5156
1707.146 1.4643 1.4948 1.4224 1.2288 1.2061 0.9681 0.9292 1.165 1.2764 1.3118
1726.435 1.3477 1.3705 1.4927 1.547 1.2656 1.3384 1.4657 1.4237 1.3321 1.2313
1745.725 1.2638 1.2429 1.2762 1.2749 1.196 1.1363 1.0883 1.0882 1.0413 0.9684
1765.015 1.0216 1.0937 1.1075 1.1879 1.1859 1.1711 1.2232 1.1597 1.1585 1.1553
1784.305 1.1918 1.1934 1.1754 1.3282 1.3607 1.4897 1.657 1.687 1.917 2.147
1803.594 2.297 2.407 2.577 2.687 2.567 2.377 2.257 2.347 2.177 2.087
1822.884 1.977 1.667 1.667 1.657 1.4435 1.3859 1.3922 1.3884 1.597 1.627
1842.174 1.2925 1.1782 1.3292 1.3344 1.4845 1.747 2.047 2.087 2.167 2.507
1861.464 2.727 2.957 3.307 3.717 3.807 3.747 3.717 3.707 3.397 2.987
1880.754 2.757 2.417 2.177 2.087 1.887 1.657 1.557 1.537 1.527 1.727
1900.043 1.817 1.597 1.4937 1.527 1.5066 1.4972 1.637 1.737 1.857 1.847
1919.333 2.007 2.307 2.417 2.477 2.487 2.627 2.747 2.667 2.607 2.577
1938.623 2.337 2.117 1.927 1.617 1.3506 1.3999 1.3641 1.3392 1.3078 1.1982
1957.913 1.1845 1.111 1.1133 1.0481 0.9871 0.958 0.9802 1.086 1.1724 1.1297
1977.202 1.1577 1.2279 1.2936 1.2212 1.0987 1.1746 1.3176 1.3967 1.3713 1.2117
1996.492 1.2002 1.2134 1.0938 1.0551 1.0028 0.9703 1.0919 1.2155 1.1485 1.2725
2015.782 1.429 1.3164 1.2067 1.2876 1.3853 1.2872 1.3275 1.3771 1.2734 1.2931
2035.072 1.2145 1.0962 1.0675 1.0662 1.0494 1.1368 1.3127 1.2761 1.1639 1.1503
2054.362 1.3241 1.4458 1.3107 1.2081 1.1391 1.17 1.277 1.276 1.3011 1.3941
2073.651 1.2839 1.2544 1.3332 1.3343 1.3147 1.3475 1.4732 1.3837 1.1613 1.1698
2092.941 1.3853 1.3277 1.3252 1.2723 1.095 1.1962 1.1878 1.0992 1.156 1.2209
2112.231 1.1778 1.2664 1.3551 1.213 1.126 1.184 1.2831 1.2753 1.1273 1.0314
2131.521 1.1172 1.2206 1.1821 1.1472 1.1302 1.3389 1.3898 1.1161 0.9919 1.0302
2150.810 1.1502 1.1316 0.9944 0.99 1.091 1.1297 1.0667 1.1181 1.1368 1.0838
2170.100 1.0502 1.0626 1.0492 1.0073 1.0726 1.0762 1.036 1.1471 1.3052 1.2492
2189.390 1.2071 1.0486 1.0963 1.2426 1.2256 1.1619 1.0366 0.8744 0.9785 1.1568
2208.680 1.1176 1.0096 0.962 1.0858 1.2161 1.3623 1.5074 1.617 1.747 1.927
2227.970 2.137 2.307 2.647 3.227 3.557 3.637 3.777 3.777 3.797 4.037
2247.259 3.747 3.407 3.167 2.527 1.987 1.597 1.3759 1.3271 1.2275 1.1831
2266.549 1.2472 1.2997 1.1902 1.0525 1.1056 1.1453 1.2284 1.4587 1.4945 1.4429
2285.839 1.637 1.727 1.647 1.677 1.627 1.647 1.747 1.767 1.607 1.537
2305.129 1.547 1.4693 1.448 1.577 1.577 1.3577 1.3216 1.2936 1.1869 1.2309
2324.418 1.3379 1.3486 1.3469 1.1504 1.2126 1.2012 1.1534 1.2238 1.1077 1.2035
2343.708 1.1495 1.0776 1.1767 1.2937 1.3117 1.0942 0.9791 1.0635 1.1714 1.2849
2362.998 1.1837 1.2325 1.2865 1.2379 1.162 1.0822 1.1926 1.3672 1.4833 1.3496
2382.288 1.2395 1.0643 1.0378 1.1426 1.0358 1.17 1.4066 1.3765 1.4224 1.3929
2401.578 1.2856 1.1029 1.0094 1.1704 1.1963 1.1483 1.1603 1.4201 1.607 1.527
2420.867 1.527 1.577 1.4287 1.4509 1.647 1.717 1.597 1.1901 0.9167 0.951
2440.157 1.1695 1.2392 1.2778 1.2369 1.1047 1.0568 1.0542 1.1577 1.1628 1.1405
2459.447 1.3417 1.3406 1.2414 1.1403 0.9831 0.9771 1.0298 1.0584 1.0182 1.1509
2478.737 1.25 1.2888 1.4495 1.4323 1.5007 1.517 1.0683 0.882 1.2615 1.727
2498.026 1.687 1.39 1.3594 1.537 1.677 1.757 1.657 1.757 1.897 1.637
2517.316 1.3482 1.4235 1.577 1.547 1.4647 1.4621 1.517 1.3193 1.3927 1.617
2536.606 1.4931 1.3534 1.3762 1.3623 1.2 1.3705 1.587 1.4694 1.617 1.727
2555.896 1.597 1.4704 1.2308 1.1421 1.2298 1.3997 1.3881 1.2203 1.513 1.4855
2575.186 1.2008 1.3644 1.2315 1.0838 1.2109 1.1203 0.9821 0.9617 1.136 1.0892
2594.475 0.9136 0.979 1.0589 1.2358 1.1723 0.9634 1.1325 1.3446 1.2501 1.0408
2613.765 1.0579 1.2607 1.1927 0.6924 0.703 1.1138 1.2132 1.1398 1.112 1.0211
2633.055 1.0155 1.0628 0.901 0.9362 1.0572 1.2251 1.3445 1.2989 1.2188 1.1749
2652.345 0.9624 0.9978 1.3865 1.3893 1.1245 1.0263 0.985 0.8003 0.9014 0.9239
2671.634 0.7749 0.851 0.8548 0.8172 0.8369 1.0496 1.3384 1.4776 1.2053 0.9265
2690.924 0.8615 0.931 1.1691 1.2075 1.105 1.1465 1.151 1.1693 1.557 1.757
2710.214 1.607 1.3302 1.1711 1.211 1.3966 1.567 1.1127 0.807 1.1544 1.0912
2729.504 1.1792 1.3376 1.109 1.2678 1.4919 1.3375 1.185 1.0095 0.9246 1.0587
2748.794 1.5075 1.647 1.3313 1.2927 1.2332 1.173 1.2654 1.0351 0.821 0.9334
2768.083 0.8749 0.8882 1.2367 1.409 1.3352 1.2457 1.3827 1.4565 0.9745 0.9021
2787.373 1.1086 1.1267 1.1371 1.3196 1.3534 1.0478 0.9652 1.2912 1.2335 1.0319
2806.663 1.0812 1.2006 1.2781 1.2645 1.1609 1.01 1.1121 1.0984 0.8507 0.9123
2825.953 1.0292 1.0243 1.2417 1.119 1.1652 1.547 1.607 1.1382 0.8904 0.7262
2845.242 0.928 1.2593 1.2123 1.2183 1.1027 1.0489 0.9273 0.8532 0.9091 1.2225
2864.532 1.1876 0.9486 1.2188 1.2222 1.276 1.4993 1.3074 1.1575 1.3002 1.3154
2883.822 1.097 1.1876 1.0917 0.7925 0.7734 1.0463 1.0662 0.7963 1.1813 1.2028
2903.112 1.0645 0.9924 0.7496 0.8359 0.8048 0.938 1.2136 1.3156 1.201 1.4807
2922.401 1.577 1.527 1.4563 1.2797 1.2575 0.9943 0.996 1.0765 0.8776 0.8201
2941.691 1.0833 1.1456 0.9754 0.7126 0.7478 1.0311 1.0795 0.8543 0.4351 0.393
2960.981 0.57498 0.4365 0.4464 0.8199 0.8691 0.8834 0.9524 1.0022 0.8469 0.9713
2980.271 1.1673 0.729 0.401 0.285 0.219 0.6945 0.7082 0.314 0.520986 0.7808
2999.561 0.8773 0.8369 0.53633 0.526211 0.9411 0.8962 0.935 1.0485 1.1815 1.377
3018.850 1.2373 0.9529 1.0262 1.456 1.527 1.577 1.3155 1.3014 1.421 1.4498
3038.140 1.527 1.537 1.647 1.517 1.4074 1.3991 1.4924 1.527 1.4908 1.1293
3057.430 1.0139 1.2089 1.1877 1.2656 1.3592 1.597 1.787 1.547 1.727 2.057
3076.720 2.307 2.777 3.167 3.257 3.477 3.747 4.107 3.997 3.637 3.867
3096.009 4.067 3.977 3.727 3.147 2.407 1.567 1.0298 1.2938 1.617 1.5103
3115.299 1.2796 1.1221 1.0103 0.7755 0.8674 1.1044 0.9765 0.9335 0.8174 1.1337
3134.589 1.308 1.3175 1.4519 1.1618 0.9171 0.747 0.9374 0.9745 0.7614 1.0444
3153.879 1.2859 1.1163 0.8282 0.58461 0.7699 0.8677 0.51228 0.58577 0.9234 0.7721
3173.169 0.7669 0.8578 1.0484 1.1277 0.9449 0.9774 0.9795 1.2606 1.3677 0.9373
3192.458 0.6797 0.7879 1.0201 1.1989 1.3816 1.4383 0.9867 0.6312 0.49 0.164
3211.748 0.4182 0.9512 1.0864 1.2045 1.0009 0.5868 0.6515 0.8549 0.7229 0.8323
3231.038 0.4734 0.048 0.524767 1.144 1.4702 1.3434 1.2368 1.0918 0.8522 0.9415
3250.328 1.527 1.677 1.0309 0.8377 0.8601 0.9855 1.3655 1.4372 1.2265 1.1111
3269.617 1.2266 1.1963 1.2631 0.9078 0.55245 0.7281 0.51348 0.271 0.326 0.51095
3288.907 0.6646 0.824 0.8195 1.0702 1.2063 0.9962 1.0669 1.0982 1.1323 1.248
3308.197 1.0775 0.6367 0.6528 0.7356 0.9044 1.2478 1.1733 1.0438 0.978 0.772
3327.487 0.8001 1.0493 0.6916 0.52952 0.57255 0.6248 1.0659 0.6435 0.184 0.6564
3346.777 0.8845 0.8863 1.014 1.0287 1.0281 0.9921 1.1311 1.0917 0.9383 0.7786
3366.066 0.8996 0.8731 0.799 0.9468 0.8656 1.0687 1.1998 1.2009 1.0536 0.7571
3385.356 0.6953 0.7033 0.7656 0.9189 1.0572 1.0505 1.0824 0.8626 0.53788 0.7176
3404.646 0.9702 1.3049 1.4047 1.1573 0.9475 0.7534 0.8325 0.7864 0.777 1.1462
3423.936 1.0413 0.8656 1.0602 0.9314 0.8043 1.1414 1.1967 0.7848 0.59487 0.59313
3443.225 0.55056 0.9014 1.458 1.4193 0.8094 0.55226 0.8722 0.9503 0.8227 0.855
3462.515 0.8217 0.8985 1.077 1.1786 0.8345 0.6442 0.8739 1.0559 1.4218 1.3619
3481.805 1.1499 1.119 1.0191 1.0384 0.9801 1.0184 0.8775 0.409 0.6491 0.9547
3501.095 0.9481 0.7465 0.489 0.9926 1.3481 1.2045 0.8743 0.765 0.9842 1.036
3520.385 0.8486 0.9083 1.0387 1.1381 1.0078 0.9692 1.3075 0.9949 0.963 1.068
3539.674 0.5932 0.54069 1.1463 1.0757 0.9165 1.1388 1.059 0.8182 0.54152 0.6501
3558.964 0.7523 0.6186 0.7458 0.9887 0.7993 0.8737 0.833 0.8183 0.7065 0.9363
3578.254 1.3867 1.2758 1.1948 0.9923 0.9455 0.9288 0.9746 0.9209 0.8915 1.0522
3597.544 0.9781 0.9218 0.6954 0.4294 0.7751 1.2853 1.4459 1.587 1.1705 0.6284
3616.833 0.7519 1.2495 1.4445 1.1658 1.0404 0.9852 0.9013 0.61114 0.247 0.59344
3636.123 1.1222 1.1555 1.2528 0.9854 0.56876 0.7709 0.9849 0.79 0.53056 0.8304
3655.413 0.938 0.6603 1.0675 1.255 1.04 0.9911 1.0955 1.0558 0.8298 0.8455
3674.703 1.0144 0.913 0.871 0.7606 0.4205 0.7972 0.9554 0.9572 1.1254 1.1736
3693.993 0.934 0.7128 1.0002 1.1437 1.1501 0.838 0.872 1.0107 0.6482 0.8845
3713.282 1.2462 0.9805 1.0185 1.1793 1.1187 1.0023 1.0159 1.0673 1.0008 1.1876
3732.572 1.557 1.3047 1.0318 1.022 1.1386 1.1605 0.9534 0.8366 0.7856 1.0635
3751.862 1.3223 1.0463 0.58967 0.6468 0.9854 1.0666 1.1036 1.2488 1.2478 1.216
3771.152 1.0711 1.0177 0.9356 1.1325 1.2483 1.1766 1.4669 1.2959 0.832 0.8587
3790.441 1.0569 1.1196 0.741 0.5076 0.9653 1.1433 0.7109 0.61458 0.6214 0.7499
3809.731 1.3184 1.2106 0.8512 0.60506 0.8602 1.226 1.1831 0.9504 0.61277 0.7525
3829.021 0.7104 0.248 0.066 0.7482 1.3165 1.2824 1.0742 0.8318 0.7228 0.5055
3848.311 0.4624 0.356 0.6834 1.2631 1.038 0.7536 0.4804 0.409 0.9837 0.9973
3867.601 0.7879 1.188 0.9913 0.675 1.02 1.0111 0.8904 0.8492 0.7482 0.4449
3886.890 0.61648 0.8832 0.59683 0.6628 1.0534 1.1495 1.3655 1.3555 0.8661 0.55616
3906.180 0.55666 1.0566 1.4167 1.3325 1.0842 1.2032 1.637 1.707 1.3969 1.657
3925.470 1.637 1.0979 0.942 1.0322 1.103 1.163 1.0955 0.831 1.1184 1.4941
3944.760 1.2443 1.31 1.2178 1.2471 1.1527 0.9065 1.1492 0.8254 0.6696 0.8924
3964.049 0.7143 0.8219 1.0541 0.993 0.8302 0.8729 1.2262 1.1302 0.9574 0.8499
3983.339 0.58025 0.402 1.0603 1.2111 0.371 0 0.61626 1.3315 1.3474 0.8499
##END=
