##TITLE=1,2,3,4-Tetrahydrocarbazole
##JCAMP-DX=4.24
##DATA TYPE=INFRARED SPECTRUM
##ORIGIN=NIST Mass Spectrometry Data Center
##OWNER=NIST Standard Reference Data Program
Collection (C) 2018 copyright by the U.S. Secretary of Commerce
on behalf of the United States of America. All rights reserved.
##CAS REGISTRY NO=942-01-8
##MOLFORM=C 12 H 13 N
##$NIST SOURCE=MSDC-IR
##SPECTROMETER/DATA SYSTEM=HP-GC/MS/IRD
##STATE=gas
##XUNITS=1/CM
##YUNITS=ABSORBANCE
##XFACTOR=1.0
##YFACTOR=0.000003000
##DELTAX=4.0
##FIRSTX=550.0
##LASTX=3846.0
##FIRSTY=0.000528
##MAXX=3846
##MINX=550
##MAXY=0.03
##MINY=0
##NPOINTS=825
##XYDATA=(X++(Y..Y))
550.0 176 100 95 163 199 224 229 193 161 141
590.0 148 165 173 156 135 154 221 304 396 506
630.0 589 549 420 326 285 260 240 247 300 339
670.0 354 380 385 391 408 419 432 454 488 556
710.0 714 1028 1641 2630 3657 4892 6312 5750 4442 3620
750.0 2623 1935 1564 1378 1264 1166 1091 1019 927 832
790.0 770 699 627 578 533 498 467 447 429 384
830.0 336 294 254 229 224 249 267 269 248 200
870.0 155 125 106 99 104 121 146 169 195 214
910.0 213 215 218 185 152 132 105 90 101 121
950.0 127 123 110 76 59 68 78 99 132 163
990.0 193 229 279 370 471 505 473 358 213 118
1030.0 69 40 27 34 33 35 53 65 62 50
1070.0 33 27 20 7 10 12 10 25 48 72
1110.0 88 103 132 181 277 448 694 954 1187 1351
1150.0 1361 1219 957 651 440 322 242 205 191 192
1190.0 209 237 280 309 297 293 356 529 869 1278
1230.0 1512 1515 1275 884 637 547 517 525 536 589
1270.0 701 802 858 894 895 987 1233 1461 1598 1627
1310.0 1591 1702 1879 1902 1706 1370 1116 1041 1015 965
1350.0 857 738 711 740 737 654 514 367 267 214
1390.0 195 210 239 283 335 394 476 607 803 1045
1430.0 1277 1461 1635 1845 2137 2580 3216 3948 4309 4102
1470.0 3323 2183 1324 916 692 528 393 274 181 119
1510.0 85 69 59 50 51 62 69 72 74 91
1550.0 115 147 189 245 288 294 285 255 220 206
1590.0 215 224 232 231 226 235 273 311 319 301
1630.0 253 195 175 195 223 223 199 156 102 72
1670.0 64 63 53 36 25 23 25 33 44 51
1710.0 47 33 19 19 23 36 61 95 126 149
1750.0 154 147 131 102 75 61 58 68 86 100
1790.0 99 82 56 31 22 28 36 50 70 88
1830.0 104 108 97 81 65 69 91 122 156 173
1870.0 171 155 118 76 52 51 71 116 171 198
1910.0 188 151 90 41 18 15 20 18 14 11
1950.0 13 16 19 16 13 16 16 19 20 21
1990.0 20 15 9 6 6 10 11 8 9 9
2030.0 9 10 10 11 12 13 16 13 12 12
2070.0 10 7 7 10 12 11 18 19 18 17
2110.0 14 11 13 16 17 15 17 16 17 20
2150.0 19 17 16 16 17 15 13 9 7 11
2190.0 11 7 6 9 13 13 15 17 12 11
2230.0 13 11 12 15 15 20 25 28 30 34
2270.0 35 36 39 40 43 44 42 41 39 37
2310.0 37 33 21 14 13 12 15 20 22 26
2350.0 24 17 5 0 4 11 19 28 34 42
2390.0 46 51 51 45 40 37 37 35 31 30
2430.0 32 35 37 35 42 48 57 64 67 64
2470.0 59 63 66 62 59 55 49 48 51 55
2510.0 61 63 65 66 63 56 51 55 58 51
2550.0 56 64 62 64 65 65 69 77 78 81
2590.0 88 95 96 97 102 103 99 98 103 108
2630.0 108 107 119 135 153 165 188 213 218 220
2670.0 211 199 188 182 174 164 153 138 123 113
2710.0 118 120 118 122 120 109 99 94 90 84
2750.0 89 98 108 117 132 162 189 215 233 251
2790.0 268 282 295 306 319 342 379 420 475 566
2830.0 715 982 1431 2088 2842 3467 3853 4067 4002 3631
2870.0 3125 2580 2153 1985 2038 2226 2510 2778 2985 3220
2910.0 3528 3962 4534 5183 5934 6800 7720 8887 10000 9952
2950.0 8627 6248 3478 1695 956 635 469 384 330 294
2990.0 277 274 303 356 431 528 642 748 848 942
3030.0 1011 1057 1103 1158 1227 1365 1671 2147 2578 2723
3070.0 2534 2050 1500 1133 929 764 606 460 345 255
3110.0 191 154 132 116 109 103 95 93 95 82
3150.0 72 69 62 59 56 55 58 62 69 71
3190.0 73 78 83 92 98 96 91 89 78 69
3230.0 54 42 39 36 32 31 34 23 17 19
3270.0 13 7 11 11 4 4 4 11 16 10
3310.0 9 8 12 8 2 0 1 10 11 11
3350.0 11 13 15 20 14 13 15 14 18 17
3390.0 17 13 16 35 42 41 43 43 42 58
3430.0 73 74 74 91 117 136 166 218 288 376
3470.0 497 658 868 1124 1401 1643 1810 1850 1741 1506
3510.0 1185 862 590 393 281 218 172 153 134 115
3550.0 97 81 74 62 53 52 39 33 35 36
3590.0 32 32 39 33 20 17 18 16 15 11
3630.0 11 14 7 15 20 11 14 22 26 21
3670.0 19 19 19 17 14 16 17 14 9 19
3710.0 20 15 16 17 20 21 20 31 25 22
3750.0 25 21 33 34 22 21 20 17 23 27
3790.0 25 27 31 31 28 34 31 30 31 31
3830.0 34 33 37 42 46
##END=
