##TITLE=N-(2-Phenylethyl)aminoacetaldehyde diethyl acetal
##JCAMP-DX=4.24
##DATA TYPE=INFRARED SPECTRUM
##ORIGIN=EPA-IR VAPOR PHASE LIBRARY
##OWNER=SRD/NIST
Collection (C) 2018 copyright by the U.S. Secretary of Commerce
on behalf of the United States of America. All rights reserved.
##CAS REGISTRY NO=94508-09-5
##MOLFORM=C 14 H 23 N O 2
##$NIST SOURCE=MSDC-IR
##STATE=gas
##XUNITS=1/CM
##YUNITS=ABSORBANCE
##XFACTOR=1.
##YFACTOR=0.001
##DELTAX=1.92898
##FIRSTX=549.8
##LASTX=4000.7
##FIRSTY=8.21
##MAXX=4000.7
##MINX=549.759
##MAXY=0.2373
##MINY=0.0004272
##NPOINTS=1790
##XYDATA=(X++(Y..Y))
549.759 8.21 9.4 9.94 9.75 9.89 10.12 10.29 10.85 11.55 11.76
569.049 11.61 11.67 11.94 11.64 12.14 12.57 12.13 11.59 10.98 10.78
588.339 10.91 11.33 10.98 10.22 10.13 9.96 9.59 9.5 9.71 9.56
607.628 9.27 8.82 8.6 8.63 8.29 8.35 8.57 8.62 8.75 8.58
626.918 8.54 8.95 9.29 9.82 9.98 9.94 10.38 10.73 10.9 11.28
646.208 11.54 11.85 12.26 12.71 13.52 14.29 14.72 15.13 15.82 16.71
665.498 17.3 18.06 19.74 21.24 22.74 24.26 25.61 27.94 30.7 33
684.787 35.95 40.09 45.43 52.34 59.91 66.33 69.25 68.62 65.66 60.91
704.077 55.28 50.03 46.05 42.96 40.66 39 37.9 37.23 36.23 35.61
723.367 35.88 36.17 36.54 37.33 38.66 40.57 43.06 45.36 47.7 49.43
742.657 49.43 48.2 45.74 41.95 37.75 34.27 30.97 28.1 26.39 24.94
761.947 23.56 22.2 21.33 20.43 19.27 18.56 18.12 17.1 15.99 15.33
781.236 14.57 13.95 13.77 13.69 13.06 12.48 12.47 12.28 12 11.88
800.526 11.79 11.66 11.55 11.99 11.9 11.04 11.11 11.51 11.5 11.4
819.816 11.51 11.41 10.94 11.2 11.51 11.73 12.29 12.66 13.34 14.02
839.106 14.09 14.31 14.96 15.38 15.68 15.9 16 16.03 15.74 15.15
858.395 14.26 13.17 12.76 12.29 11.6 11.57 11.28 10.93 10.63 10.47
877.685 10.87 11.23 11.06 11.48 12.11 12.45 12.95 13.41 13.62 13.79
896.975 14.36 15.05 15.63 15.98 16.48 17.13 17.53 17.83 18.32 18.52
916.265 18.23 18.33 18.37 18.27 18.54 18.64 18.07 17.7 17.96 17.75
935.555 17.46 17.07 16.79 16.99 17.19 17.19 16.86 16.85 17.25 17.56
954.844 18.15 18.71 18.81 19.07 19.43 19.9 20.64 21.75 22.78 23.65
974.134 24.53 25.69 27.24 29.13 30.93 32.93 35.49 38.23 41.07 43.71
993.424 46.65 49.87 52.88 55.81 58.24 60.45 62.6 64.33 65.93 66.88
1012.714 68.09 69.5 70.42 71.39 72.55 73.89 75.87 78.72 81.72 84.54
1032.003 86.79 89.45 92.57 95.44 100.47 107.62 116.23 126.91 138.06 151.08
1051.293 165.09 177.91 190.22 201.63 212.12 219.99 225.1 228.44 228.8 226.35
1070.583 220.66 213.24 205.91 198.32 192.1 183.97 175.92 170.34 164.97 161.83
1089.873 160.23 156.96 154.15 154.41 153.51 151.76 150.49 150.68 151.83 155.23
1109.163 160.24 166.07 173.29 181.53 192.76 203.26 213 222.19 230.26 236.02
1128.452 237.3 237.05 232.7 225.03 215.89 204.97 191.88 177.85 164.14 150.5
1147.742 139.15 127.34 116.74 109.1 101.74 95.01 88.76 84.26 79.98 75.32
1167.032 72.1 69.15 65.62 62.64 60.23 56.93 54.35 52.14 49.69 46.41
1186.322 43.44 41.71 40.48 39.9 38.53 36.81 35.69 35.01 33.53 31.19
1205.611 30.13 28.87 27.05 27.09 27.29 26.45 25.79 25.44 25.58 25.59
1224.901 24.49 23.43 23.75 23.66 23.61 23.87 22.76 22.04 22.29 22.36
1244.191 21.68 21.22 20.97 20.45 20.58 20.91 20.68 20.44 20.07 20.23
1263.481 20.25 20.27 21.2 21.65 21.62 21.7 22.21 22.41 22.65 23.44
1282.771 23.67 23.74 24.49 25.38 25.88 26.29 26.99 27.68 28.38 28.88
1302.060 29.04 29.08 29.01 28.82 28.37 27.8 27.42 27.09 26.62 26.12
1321.350 26.01 26.09 26.29 26.83 27.56 28.78 30.32 32.3 34.62 36.95
1340.640 39.14 41.07 42.59 43.55 43.93 43.58 42.63 41.4 40.36 39.7
1359.930 39.35 39.55 40.52 42.31 44.88 48.06 51.53 54.51 56.67 57.64
1379.219 56.87 54.64 51.47 48.09 44.92 41.8 38.88 36.26 33.73 31.33
1398.509 29.17 27.3 25.86 24.61 23.52 22.61 21.71 20.92 20.16 19.73
1417.799 19.62 19.44 19.41 19.78 20.37 21.28 22.59 24.18 26.12 28.23
1437.089 30.36 32.57 34.88 37.18 39.43 41.84 44.32 46.71 49.23 51.79
1456.378 54.27 56.57 58.44 59.55 59.4 58.18 55.75 52.59 49.26 45.65
1475.668 42.27 39.06 36.2 33.79 32.04 31.12 30.9 31.71 33.36 35.14
1494.958 36.09 35.18 32.75 28.85 23.78 18.98 15.29 12.83 11.15 9.97
1514.248 9.07 8.32 7.71 7.37 7.13 6.76 6.58 6.49 6.34 6.35
1533.538 6.14 5.76 5.41 5.33 5.51 5.23 4.97 4.95 4.76 4.55
1552.827 4.41 4.3 4.3 4.4 4.48 4.56 4.66 4.71 4.85 5.03
1572.117 5.14 5.41 5.83 6.2 6.48 7.07 7.69 8.19 8.93 9.65
1591.407 10.2 10.97 11.92 12.85 13.69 14.3 14.43 14.05 13.12 11.67
1610.697 10.05 8.26 6.83 5.82 5.03 4.63 4.45 4.1 3.88 3.92
1629.986 3.7 3.63 3.61 3.39 3.31 3.46 3.55 3.6 3.62 3.44
1649.276 3.43 3.46 3.49 3.43 3.29 3.44 3.44 3.27 3.3 3.36
1668.566 3.39 3.4 3.41 3.44 3.43 3.36 3.16 3.06 3.04 2.9
1687.856 2.79 2.68 2.64 2.58 2.58 2.63 2.62 2.64 2.63 2.7
1707.146 2.74 2.74 2.86 2.85 2.87 2.93 2.91 2.98 3.02 2.98
1726.435 3.07 3.06 3.05 3.19 3.13 3.19 3.26 3.19 3.13 3.05
1745.725 3.1 3 2.92 2.94 2.8 2.7 2.78 2.77 2.77 2.78
1765.015 2.72 2.72 2.72 2.9 3.1 3.2 3.22 3.33 3.6 3.84
1784.305 4.05 4.31 4.64 4.93 5.15 5.36 5.46 5.24 4.86 4.46
1803.594 4.18 3.93 3.74 3.64 3.44 3.28 3.17 2.99 2.93 2.95
1822.884 2.89 2.77 2.68 2.75 2.97 3.01 2.8 2.8 3.02 3.23
1842.174 3.23 3.24 3.37 3.52 3.69 3.76 3.87 3.93 4.04 4.32
1861.464 4.37 4.44 4.67 4.72 4.78 4.78 4.81 4.87 4.74 4.62
1880.754 4.57 4.48 4.32 4.19 3.98 3.81 3.79 3.81 3.82 3.71
1900.043 3.66 3.63 3.66 3.74 3.84 3.99 4.02 4.18 4.29 4.36
1919.333 4.51 4.7 5 5.17 5.33 5.71 5.96 6.07 6.13 6.25
1938.623 6.33 6.4 6.42 6.34 6.42 6.42 6.31 6.14 5.85 5.49
1957.913 5.08 4.7 4.47 4.32 4.15 4.01 3.86 3.73 3.76 3.67
1977.202 3.65 3.76 3.64 3.58 3.5 3.46 3.35 3.14 3.1 3.15
1996.492 3.05 2.87 2.78 2.75 2.67 2.6 2.58 2.56 2.47 2.36
2015.782 2.45 2.55 2.51 2.38 2.36 2.33 2.27 2.29 2.3 2.16
2035.072 2.02 2.01 2.13 2.14 1.92 1.89 2.01 2.14 2.09 2.02
2054.362 2.07 2.06 2.14 2.17 2.05 2 1.91 1.93 2.08 1.96
2073.651 1.88 2 2.1 2.15 2.19 2.22 2.13 2.19 2.23 2.16
2092.941 2.19 2.18 2.12 2.15 2.13 2.18 2.16 2.11 2.13 2.02
2112.231 2.05 2.11 2.09 2.11 2.11 2.1 2.17 2.25 2.11 2.04
2131.521 2.12 2.18 2.21 2.28 2.35 2.28 2.28 2.34 2.28 2.28
2150.810 2.43 2.44 2.45 2.47 2.32 2.26 2.26 2.27 2.46 2.57
2170.100 2.42 2.31 2.27 2.24 2.27 2.24 2.18 2.25 2.29 2.27
2189.390 2.34 2.28 2.16 2.21 2.17 2.18 2.21 2.24 2.28 2.22
2208.680 2.23 2.1 2 2.01 2.12 2.13 2.13 2.08 1.84 1.74
2227.970 1.73 1.79 1.92 1.94 1.89 1.9 1.89 1.9 1.77 1.76
2247.259 1.93 1.93 1.95 1.98 2.02 2.06 2.06 2.11 2.15 2.21
2266.549 2.17 2.07 1.92 1.88 1.98 2.05 2.06 2.08 2.06 1.96
2285.839 1.87 1.85 1.88 1.79 1.78 1.76 1.71 1.75 1.69 1.77
2305.129 1.9 1.95 2.06 2.08 1.98 1.98 1.98 1.82 1.69 1.61
2324.418 1.76 1.77 1.71 1.78 1.75 1.67 1.56 1.66 1.79 1.66
2343.708 1.5 1.55 1.64 1.8 1.89 1.93 1.75 1.64 1.78 1.73
2362.998 1.58 1.47 1.55 1.59 1.57 1.62 1.56 1.47 1.54 1.62
2382.288 1.69 1.73 1.67 1.68 1.68 1.7 1.66 1.82 1.83 1.65
2401.578 1.76 1.73 1.67 1.66 1.76 1.79 1.76 1.7 1.65 1.77
2420.867 1.82 1.92 1.99 2 1.89 1.75 1.79 1.79 1.77 1.75
2440.157 1.72 1.78 1.82 1.81 1.77 1.71 1.68 1.56 1.54 1.61
2459.447 1.55 1.48 1.5 1.56 1.69 1.69 1.67 1.72 1.61 1.48
2478.737 1.42 1.49 1.55 1.48 1.5 1.49 1.42 1.51 1.57 1.68
2498.026 1.79 1.75 1.67 1.63 1.72 1.67 1.58 1.45 1.45 1.63
2517.316 1.67 1.74 1.78 1.73 1.66 1.62 1.65 1.66 1.67 1.69
2536.606 1.57 1.72 1.8 1.6 1.64 1.77 1.72 1.66 1.91 2.18
2555.896 2.08 1.98 2.13 2.19 2.21 2.45 2.49 2.43 2.37 2.4
2575.186 2.54 2.64 2.86 2.99 2.9 2.93 3.07 3.22 3.47 3.45
2594.475 3.32 3.49 3.71 3.84 3.89 3.91 4.14 4.26 4.27 4.32
2613.765 4.31 4.54 4.75 4.71 4.81 4.94 5.16 5.55 5.64 5.41
2633.055 5.34 5.63 5.82 5.92 5.97 5.9 5.9 5.87 5.94 6.07
2652.345 6.02 6.04 6.14 6.07 6.12 6.24 6.22 6.26 6.26 6.43
2671.634 6.51 6.5 6.74 6.93 6.95 6.92 6.9 7.14 7.42 7.54
2690.924 7.71 7.68 7.66 7.93 8.07 8.13 8.28 8.41 8.69 8.94
2710.214 8.94 9.08 9.3 9.4 9.47 9.48 9.58 9.69 9.85 10.04
2729.504 10.18 10.32 10.5 10.75 10.96 11.24 11.34 11.5 11.83 11.99
2748.794 12.34 12.7 12.92 13.3 13.6 13.8 14.15 14.5 14.77 15.04
2768.083 15.44 15.89 16.2 16.55 17.22 17.9 18.16 18.85 19.77 20.57
2787.373 21.61 22.44 23.39 24.47 25.51 26.77 28.27 29.98 31.79 33.79
2806.663 35.89 37.83 39.88 42.14 44.51 47.07 49.45 51.6 53.5 55.43
2825.953 57.17 58.67 60.14 61.57 62.93 64.06 65.33 66.77 68.22 69.41
2845.242 70.49 71.83 73.22 74.31 75.31 76.72 78.34 79.94 81.69 83.37
2864.532 85.17 87.17 89.23 91.36 93.58 96.45 99 100.95 102.64 104.1
2883.822 105.34 105.87 106.55 107.22 107.78 108.57 109.34 110.06 111.13 112.56
2903.112 113.9 115.6 117.73 120.09 122.5 124.66 127 129.38 131.13 132.47
2922.401 133.84 135.17 136.46 138.17 140.19 142.59 145.15 146.84 147.9 147.72
2941.691 145.91 142.18 136.7 130.18 122.69 115.18 108.2 101.98 96.83 92.27
2960.981 88.78 86.94 86.3 87.23 89.64 93.87 100.1 107.3 114.8 121.64
2980.271 126.28 127.79 124.36 115.6 104.25 91.87 79.46 68.7 60.13 53.42
2999.561 48.54 45.04 42.19 40.23 38.76 37.28 36.38 36.34 36.58 37.22
3018.850 38.85 41.11 43.67 46.46 49.48 52.45 54.43 54.92 53.71 50.63
3038.140 46.23 41.49 37.08 33.36 30.66 28.53 27.24 27.06 27.28 28.06
3057.430 29.54 31.7 34.44 38.06 41.97 45.12 46.79 46.32 44.13 40.43
3076.720 36.27 32.86 30.3 28.37 26.85 25.6 24.36 22.9 21.23 19.56
3096.009 17.99 16.57 15.46 14.58 13.66 12.82 12.15 11.39 10.66 9.47
3115.299 8.31 7.59 6.7 6.09 5.87 5.35 4.82 4.29 3.87 3.86
3134.589 3.94 3.78 3.64 3.42 3 3.09 3.2 3.15 2.92 3.1
3153.879 3.38 3.19 2.98 2.99 3.17 3.04 2.87 2.86 3.05 2.89
3173.169 2.42 2.56 2.7 2.46 2.17 2.27 2.56 2.45 2.08 1.94
3192.458 2.18 2.36 2.43 2.3 2.01 2 2.13 2.14 2.08 2.06
3211.748 2.17 1.95 1.82 1.99 1.92 1.76 1.66 1.49 1.48 1.58
3231.038 1.37 1.45 1.6 1.65 1.73 1.62 1.34 1.3 1.59 1.61
3250.328 1.49 1.47 1.18 1.11 1.35 1.26 1.06 1.05 1.17 1.13
3269.617 1.21 1.37 1.32 1.26 1.19 1.22 1.09 1.02 1.03 1.03
3288.907 1.18 1.27 1.1 0.8755 0.9099 0.8561 0.8233 1.08 1.11 0.9438
3308.197 1.09 1.31 1.24 1.05 1.13 1.18 1.26 1.49 1.52 1.41
3327.487 1.2 1.21 1.52 1.68 1.74 2.09 2.45 2.43 2.52 2.94
3346.777 3.13 3.15 3.22 3.15 3.15 3.36 3.42 3.19 3.12 2.96
3366.066 2.96 3 2.83 2.66 2.51 2.6 2.36 1.96 2.16 2.33
3385.356 2.19 2.11 2 1.98 1.99 2.34 2.44 1.96 1.68 1.64
3404.646 1.77 1.81 1.62 1.55 1.5 1.3 1.15 1.08 0.9583 1.2
3423.936 1.4 1.34 1.39 1.39 1.26 1.26 1.47 1.36 1.1 1.11
3443.225 1.38 1.38 1.06 1 1.12 1.02 0.9082 0.8357 0.7641 0.7517
3462.515 0.8684 1.12 1.17 0.9082 0.7589 0.7486 0.7051 0.9888 1.02 0.9198
3481.805 1.05 0.8495 0.7194 0.7101 0.692 0.7169 0.9732 0.9891 0.7871 0.9395
3501.095 0.8473 0.7558 0.9092 0.8044 0.7555 0.802 0.7197 0.8121 0.6739 0.6232
3520.385 0.7468 0.6576 0.7847 0.8886 0.8334 0.8163 0.7338 0.8882 1.28 1.22
3539.674 0.8362 0.6571 0.6614 0.6333 0.6687 0.7103 0.7723 0.9006 0.7138 0.5502
3558.964 0.8459 0.7893 0.5468 0.4401 0.433 0.7045 0.7571 0.7306 0.8443 1.03
3578.254 0.7527 0.4272 0.4772 0.6659 0.8055 0.8311 0.823 0.4899 0.5045 0.6254
3597.544 0.5823 0.9754 0.8304 0.5201 0.7079 0.6863 0.6251 0.5138 0.6583 0.8439
3616.833 0.9529 0.9936 0.8513 0.8664 1.1 1.26 0.9645 0.736 0.6646 0.6502
3636.123 0.8743 1.06 0.8949 0.8299 1.09 1.04 0.8715 0.9886 1.09 1.12
3655.413 1.05 1.02 1.11 1.02 0.9529 1.03 0.8933 0.9925 1.33 1.19
3674.703 1.19 1.19 1.15 1.14 0.8986 1.18 1.64 1.48 1.07 1.14
3693.993 1.31 1.16 1.15 1.24 1.05 0.9105 1.03 1.13 0.8372 0.817
3713.282 1.18 1.26 1.13 1.09 0.9674 0.9423 1.21 1.25 0.9627 0.8808
3732.572 1.2 1.26 1.21 1.14 1.14 1.19 1.39 1.46 1.21 1.03
3751.862 0.7796 0.8381 1.28 1.29 1.05 0.8909 0.865 1 0.8828 0.8135
3771.152 1.01 0.9489 0.7544 0.8072 1.1 0.9927 0.6538 0.7599 0.9078 1.05
3790.441 1.04 0.7824 0.9356 1.34 1.25 1.05 1.15 1.25 1.31 1.23
3809.731 0.9371 0.9393 1.1 1.34 1.27 1 1.16 1.04 0.9203 1.06
3829.021 1.11 1.23 1.15 0.9509 0.893 1.13 1.09 0.838 0.9356 1.1
3848.311 1.3 1.28 0.9142 0.9265 1.11 1.26 1.55 1.68 1.51 1.16
3867.601 1.14 1.49 1.59 1.41 1.28 0.9875 0.7443 0.7798 1.01 1.23
3886.890 1.08 1.22 1.49 1.23 1.01 0.8899 1.09 1.46 1.4 1.26
3906.180 1.16 1.06 1.2 1.29 1.29 1.45 1.53 1.24 1 1.2
3925.470 1.54 1.65 1.57 1.48 1.47 1.35 1.43 1.79 1.77 1.7
3944.760 1.75 1.67 1.61 1.65 1.65 1.53 1.52 1.72 1.8 2.13
3964.049 2.07 1.45 1.5 1.63 1.48 1.43 1.71 1.9 1.84 2.08
3983.339 2.1 1.91 1.62 1.81 2.21 2.18 2.23 2.14 2.34 2.35
##END=
