##TITLE=Ethyl trans-2-phenylcyclopropanecarboxylate
##JCAMP-DX=4.24
##DATA TYPE=INFRARED SPECTRUM
##ORIGIN=EPA-IR VAPOR PHASE LIBRARY
##OWNER=SRD/NIST
Collection (C) 2018 copyright by the U.S. Secretary of Commerce
on behalf of the United States of America. All rights reserved.
##CAS REGISTRY NO=946-39-4
##MOLFORM=C 12 H 14 O 2
##$NIST SOURCE=MSDC-IR
##STATE=gas
##XUNITS=1/CM
##YUNITS=ABSORBANCE
##XFACTOR=1.
##YFACTOR=0.001
##DELTAX=1.92934
##FIRSTX=549.9
##LASTX=3999.5
##FIRSTY=8.85
##MAXX=3999.53
##MINX=549.863
##MAXY=0.74324
##MINY=0
##NPOINTS=1789
##XYDATA=(X++(Y..Y))
549.863 8.85 9.44 10.17 11.34 12.44 13.26 13.75 13.77 13.41 12.71
569.156 11.45 9.99 8.81 7.85 7.17 6.58 6.04 5.63 5.21 4.9303
588.450 4.6813 4.5561 4.4326 4.2505 4.0838 3.9544 4.01901 3.9866 3.9249 3.9594
607.743 3.846 3.815 3.9227 3.928 3.9218 3.9729 4.02625 4.09538 4.2953 4.5268
627.037 4.732 5.1 5.53 5.8 6.03 6.29 6.43 6.46 6.5 6.39
646.330 6.41 6.65 6.82 7.18 7.74 8.46 9.22 10.28 11.7 13.15
665.624 14.89 17.16 19.8 22.57 25.77 29.31 33.08 37.24 41.64 46.14
684.917 51 56.02 61.04 65.75 69.44 71.44 71.24 68.9 65.03 60.31
704.210 55.24 50.3 45.55 41.02 37.05 33.6 30.7 28.43 26.66 25.4
723.504 24.66 24.41 24.69 25.53 27.01 29.13 31.89 35.34 39.29 43.74
742.797 48.59 53.53 58.29 62.13 64.28 64.31 62.23 58.56 53.97 48.98
762.091 44.13 39.91 36.18 33.15 30.86 29.09 27.9 26.95 26.08 25.26
781.384 24.22 23.07 21.83 20.4 18.94 17.44 16.11 14.98 14.03 13.22
800.678 12.53 12.14 11.83 11.49 11.23 10.99 10.87 10.96 11.12 11.27
819.971 11.54 11.81 12.14 12.69 13.43 14.29 15.22 16.32 17.64 19.21
839.264 21.16 23.38 25.9 28.75 31.81 35.11 38.37 41.25 43.33 44.26
858.558 43.86 42.14 39.46 36.15 32.66 29.44 26.88 25.06 23.64 22.57
877.851 21.75 20.99 20.2 19.49 18.85 18.21 17.73 17.38 17.13 16.84
897.145 16.71 16.74 16.72 16.72 16.77 16.94 17.21 17.57 18.07 18.7
916.438 19.51 20.49 21.67 23.19 25.06 27.19 29.45 31.72 33.8 35.58
935.732 37.06 38.09 38.48 38.12 37.13 35.7 33.65 30.96 27.94 24.86
955.025 22.13 19.87 18.03 16.66 15.64 14.82 14.18 13.73 13.36 13.1
974.318 13.01 12.98 13.1 13.33 13.65 14.13 14.72 15.41 16.26 17.24
993.612 18.37 19.62 20.95 22.45 24.37 26.92 30.17 34.32 39.57 45.74
1012.905 51.9 57.05 60.5 62.14 61.95 60.26 57.96 56.25 56.35 58.74
1032.199 63.32 69.58 77.08 85.19 92.97 99.4 103.56 105.22 104.41 101.36
1051.492 96.53 90.82 85.27 80.41 76.13 72.25 68.98 66.52 64.92 64.32
1070.786 64.75 66.12 68.2 70.6 72.57 73.48 73.31 72.19 70.26 67.93
1090.079 65.91 64.67 64.27 64.46 64.84 65.2 65.59 66.24 67.77 70.78
1109.372 75.14 79.92 83.76 85.57 85.15 82.52 77.88 71.94 66.22 62.23
1128.666 60.34 60.35 61.87 64.62 68.54 73.79 80.45 88.86 99.4 112.35
1147.959 128.44 148.18 172.09 201.58 237.79 281.73 334.13 394.53 462.05 532.98
1167.253 601.65 662.94 710.27 738.07 743.24 724.77 685.18 629.46 562.97 492.21
1186.546 421.67 355.3 296.22 245.81 204.91 172.77 148.38 130 115.69 105.38
1205.840 98.45 94.14 92.46 93.26 95.9 99.76 103.71 105.81 105.39 102.99
1225.133 98.4 92.16 85.98 81.21 78.94 79.25 81.7 86.27 93.07 102.46
1244.426 114.73 128.99 144.9 161.67 177.09 189.16 195.99 196.53 190.66 178.8
1263.720 162.39 143.53 124.54 107.46 93.01 81.5 72.79 66.33 61.84 58.92
1283.013 57.33 56.88 57.45 58.81 60.76 63.29 66.41 70.03 73.86 77.94
1302.307 82.43 87.46 93.22 99.85 107.33 115.64 124.57 133.55 141.78 148.48
1321.600 152.95 154.82 154.01 150.72 145.44 138.69 130.92 122.31 112.81 102.41
1340.894 91.28 80.15 69.59 60.11 52.24 46.09 41.59 38.67 37.1 36.75
1360.187 37.61 39.68 42.48 45.13 47.31 49.18 50.79 51.9 52.75 54.39
1379.480 57.55 62.08 67.83 74.2 80.65 86.97 93.02 98.91 104.91 111.3
1398.774 118.55 126.62 134.53 141.1 144.76 144.35 139.42 130.21 117.6 103.15
1418.067 88.77 75.7 65.42 57.88 52.76 49.85 48.88 49.57 51.71 55.03
1437.361 59.09 63.17 66.75 69.54 71.34 72.26 72.48 72.24 71.86 71.36
1456.654 70.66 69.74 68.52 67.08 65.43 63.57 61.57 59.25 56.52 53.43
1475.948 50.12 46.65 43.41 40.44 38.12 36.67 36.05 36.28 37.36 39.14
1495.241 41.14 42.67 43.03 41.89 39.45 35.9 31.19 26.23 22.1 18.88
1514.534 16.6 15.07 14.02 13.38 12.95 12.59 12.33 12.17 12.03 11.84
1533.828 11.73 11.6 11.42 11.21 11.06 10.95 10.8 10.68 10.57 10.45
1553.121 10.41 10.39 10.43 10.5 10.62 10.82 10.99 11.12 11.22 11.41
1572.415 11.71 12.03 12.49 13.07 13.81 14.77 15.91 17.32 18.99 20.92
1591.708 23.16 25.71 28.58 31.74 34.99 37.91 39.84 40.2 38.78 35.7
1611.002 31.54 26.71 21.89 17.75 14.81 12.89 11.63 10.84 10.27 9.91
1630.295 9.74 9.63 9.5 9.42 9.48 9.58 9.68 9.86 10.06 10.26
1649.588 10.58 10.87 11.09 11.27 11.43 11.6 11.69 11.81 11.98 12.14
1668.882 12.4 12.62 12.89 13.2 13.49 13.91 14.43 14.98 15.71 16.59
1688.175 17.6 18.83 20.21 21.75 23.46 25.32 27.29 29.33 31.25 33.31
1707.469 35.41 37.59 40.06 42.91 46.38 50.88 56.82 64.6 75.32 89.94
1726.762 109.59 135.17 167.51 206.41 253.78 306.2 359.91 412.49 454.28 479.69
1746.056 484.7 468.38 432.23 381.24 324.48 268.28 216.28 172.78 136.95 108.45
1765.349 86.95 70.91 59.26 51.2 45.37 41.24 38.22 35.89 33.89 32.11
1784.642 30.62 29.28 28.08 26.92 25.78 24.66 23.48 22.32 21.13 19.95
1803.936 18.9 17.96 17.08 16.29 15.54 14.78 14.08 13.44 12.78 12.12
1823.229 11.57 11.05 10.59 10.19 9.82 9.48 9.16 8.92 8.73 8.54
1842.523 8.38 8.35 8.36 8.3 8.33 8.45 8.56 8.7 8.84 8.95
1861.816 9.08 9.24 9.39 9.56 9.76 9.95 10.06 10.15 10.21 10.13
1881.110 9.95 9.73 9.46 9.12 8.88 8.73 8.52 8.32 8.16 7.99
1900.403 7.87 7.77 7.66 7.58 7.48 7.42 7.44 7.47 7.46 7.52
1919.696 7.69 7.81 7.91 8.04 8.13 8.21 8.37 8.52 8.64 8.76
1938.990 8.88 9.02 9.13 9.25 9.42 9.55 9.55 9.45 9.13 8.64
1958.283 8.06 7.44 6.81 6.24 5.83 5.57 5.44 5.36 5.28 5.27
1977.577 5.26 5.26 5.26 5.3 5.3 5.26 5.27 5.28 5.27 5.29
1996.870 5.28 5.33 5.4 5.44 5.54 5.65 5.76 5.9 6.04 6.16
2016.164 6.31 6.45 6.62 6.75 6.89 6.98 7.06 7.1 7.05 7
2035.457 6.94 6.84 6.7 6.54 6.34 6.14 5.95 5.75 5.57 5.45
2054.750 5.33 5.2 5.09 5.05 5.03 5.01 4.9744 5.03 5.13 5.17
2074.044 5.21 5.29 5.39 5.52 5.68 5.81 5.93 6.06 6.14 6.16
2093.337 6.12 6.04 5.94 5.83 5.7 5.56 5.38 5.22 5.12 4.9683
2112.631 4.823 4.7244 4.6429 4.5709 4.4785 4.3802 4.3294 4.2958 4.1966 4.08943
2131.924 4.00664 3.914 3.841 3.767 3.679 3.605 3.585 3.592 3.582 3.549
2151.218 3.517 3.556 3.591 3.561 3.489 3.493 3.522 3.538 3.55 3.529
2170.511 3.574 3.671 3.704 3.743 3.798 3.814 3.877 3.9726 3.9748 3.9707
2189.804 4.03431 4.05448 4.02278 4.008 4.04085 4.01748 3.9716 3.9321 3.89 3.843
2209.098 3.743 3.659 3.634 3.561 3.482 3.475 3.453 3.392 3.365 3.372
2228.391 3.351 3.325 3.341 3.304 3.287 3.339 3.375 3.42 3.414 3.419
2247.685 3.43 3.431 3.502 3.512 3.463 3.48 3.49 3.46 3.452 3.496
2266.978 3.484 3.461 3.416 3.376 3.372 3.38 3.383 3.299 3.218 3.189
2286.272 3.19 3.19 3.184 3.196 3.226 3.253 3.291 3.352 3.393 3.488
2305.565 3.597 3.684 3.877 4.0605 4.1505 4.2143 4.2637 4.2845 4.2633 4.2505
2324.858 4.3058 4.41 4.5057 4.5912 4.7169 4.8685 4.9686 5.04 5.09 5.14
2344.152 5.16 5.13 5.09 5.04 4.9477 4.815 4.6948 4.5877 4.5131 4.4203
2363.445 4.3211 4.256 4.1976 4.09867 3.9287 3.859 3.842 3.774 3.652 3.543
2382.739 3.515 3.464 3.362 3.255 3.237 3.237 3.225 3.193 3.097 3.055
2402.032 3.08 3.069 3.042 3.047 3.052 3.032 3.018 3.048 3.056 3.02
2421.326 3.038 3.143 3.232 3.236 3.285 3.346 3.399 3.427 3.463 3.521
2440.619 3.527 3.513 3.517 3.542 3.552 3.602 3.654 3.646 3.634 3.664
2459.912 3.673 3.624 3.519 3.471 3.466 3.393 3.304 3.251 3.257 3.204
2479.206 3.134 3.086 3.074 3.041 2.99 2.96 2.95 2.96 2.96 2.94
2498.499 2.9 2.87 2.84 2.85 2.87 2.8 2.71 2.63 2.57 2.61
2517.793 2.6 2.54 2.53 2.55 2.47 2.42 2.44 2.44 2.47 2.49
2537.086 2.54 2.57 2.52 2.51 2.52 2.58 2.64 2.64 2.59 2.58
2556.380 2.62 2.59 2.56 2.52 2.5 2.55 2.59 2.6 2.57 2.55
2575.673 2.56 2.59 2.63 2.65 2.61 2.62 2.65 2.68 2.72 2.75
2594.966 2.79 2.86 2.89 2.9 2.89 2.86 2.81 2.78 2.71 2.66
2614.260 2.67 2.59 2.53 2.54 2.49 2.41 2.35 2.32 2.23 2.14
2633.553 2.23 2.27 2.18 2.07 2.05 2.07 2.03 1.98 1.95 1.99
2652.847 2.01 1.94 1.9 1.9 1.86 1.84 1.88 1.89 1.8 1.77
2672.140 1.85 1.88 1.88 1.89 1.86 1.84 1.86 1.86 1.86 1.9
2691.434 1.91 1.84 1.85 1.84 1.75 1.66 1.68 1.69 1.65 1.71
2710.727 1.71 1.76 1.76 1.78 1.89 1.9 1.96 1.98 2 2.05
2730.020 1.98 2.02 2.14 2.19 2.15 2.08 2.16 2.17 2.12 2.14
2749.314 2.13 2.22 2.24 2.2 2.36 2.56 2.65 2.68 2.69 2.74
2768.607 2.79 2.85 2.84 2.88 2.9 2.91 3.004 3.008 2.95 2.9
2787.901 2.94 3.025 3.001 2.99 3 2.99 3.074 3.156 3.163 3.107
2807.194 3.168 3.305 3.378 3.399 3.51 3.682 3.802 3.9275 4.00695 4.089
2826.488 4.2459 4.2803 4.2419 4.3062 4.4656 4.6059 4.7034 4.8461 4.9372 5.1
2845.781 5.24 5.37 5.58 5.81 6.14 6.51 6.81 7.1 7.49 7.89
2865.074 8.37 8.97 9.7 10.47 11.27 12.27 13.33 14.46 15.56 16.53
2884.368 17.4 17.92 18.27 18.43 18.44 18.61 18.79 19.01 19.67 20.58
2903.661 21.44 22.34 23.29 24.23 25.11 25.76 26.06 26.18 26.21 26.2
2922.955 26.19 26.37 27 28.14 29.8 31.98 34.77 38 41.43 44.66
2942.248 47.01 48.29 48.55 47.76 46.24 44.27 42.41 41.41 41.26 41.93
2961.542 43.39 45.43 47.89 50.58 53.55 57.05 61.32 66.66 73.17 80.74
2980.835 88.29 94.1 97.23 97.33 94.59 89.24 82.14 74.94 68.89 64.25
3000.128 60.67 58 55.97 54.5 53.67 53.29 53.4 54.12 55.21 56.49
3019.422 57.85 59.32 60.93 62.54 64.4 66.33 68.09 69.58 70.34 69.99
3038.715 68.43 65.67 61.91 57.67 53.4 49.5 46.47 44.5 43.57 43.82
3058.009 45.47 48.63 53.21 59.17 65.66 71.1 74 73.93 71.17 66.15
3077.302 59.42 52.11 45.94 41.91 39.74 38.74 38.45 38.4 38 36.99
3096.596 35.33 32.95 30.23 27.29 24.32 21.69 19.42 17.48 15.72 14.15
3115.889 12.65 11.08 9.67 8.48 7.33 6.09 5.12 4.625 4.2066 3.9604
3135.182 3.743 3.611 3.509 3.236 3.18 3.035 2.88 2.84 2.81 2.78
3154.476 2.76 2.71 2.65 2.49 2.35 2.3 2.21 1.91 1.64 1.61
3173.769 1.55 1.38 1.36 1.33 1.35 1.34 1.07 0.97 1.09 1.18
3193.063 1.18 1.08 0.91 0.86 0.77 0.73 0.76 0.9 0.91 0.9
3212.356 0.88 0.64 0.48 0.47 0.52 0.48 0.45 0.4 0.28 0.24
3231.650 0.28 0.24 0.29 0.42 0.29 0.3 0.41 0.38 0.28 0.11
3250.943 0.06 0.15 0.06 0 0.14 0.13 0.12 0.02 0.06 0.27
3270.236 0.18 0.06 0.01 0.05 0.09 0.07 0.09 0.11 0.24 0.14
3289.530 0.06 0.19 0.17 0.01 0.02 0.25 0.29 0.12 0.13 0.32
3308.823 0.24 0.17 0.29 0.25 0.22 0.38 0.37 0.31 0.37 0.47
3328.117 0.39 0.31 0.19 0.1 0.33 0.64 0.63 0.41 0.39 0.43
3347.410 0.52 0.42 0.4 0.53 0.52 0.44 0.38 0.51 0.68 0.63
3366.704 0.58 0.66 0.55 0.57 0.67 0.7 0.63 0.67 0.84 0.85
3385.997 0.81 0.7 0.58 0.6 0.6 0.67 0.8 0.87 0.88 0.84
3405.290 0.83 0.74 0.79 0.99 1.05 0.93 0.84 0.94 1.09 1.21
3424.584 1.23 1.18 1.17 1.21 1.31 1.29 1.28 1.49 1.62 1.63
3443.877 1.66 1.85 2.02 2.1 2.32 2.48 2.8 3.141 3.348 3.722
3463.171 4.02985 4.19 4.3686 4.4616 4.5355 4.5701 4.5243 4.3474 3.9892 3.63
3482.464 3.328 3.124 2.79 2.5 2.43 2.36 2.18 1.85 1.69 1.7
3501.758 1.62 1.51 1.47 1.48 1.62 1.69 1.56 1.39 1.31 1.36
3521.051 1.33 1.21 1.22 1.3 1.41 1.44 1.33 1.23 1.15 1.09
3540.344 1.13 1.24 1.27 1.24 1.22 1.3 1.34 1.29 1.24 1.38
3559.638 1.49 1.41 1.36 1.29 1.3 1.35 1.43 1.4 1.31 1.37
3578.931 1.43 1.33 1.35 1.41 1.35 1.31 1.32 1.44 1.52 1.64
3598.225 1.71 1.61 1.52 1.49 1.45 1.5 1.48 1.41 1.47 1.48
3617.518 1.5 1.53 1.58 1.65 1.59 1.49 1.49 1.65 1.75 1.75
3636.812 1.78 1.81 1.79 1.73 1.71 1.77 1.73 1.75 1.84 1.74
3656.105 1.73 1.85 1.91 1.8 1.77 1.89 1.86 1.8 1.78 1.8
3675.398 1.89 1.88 1.81 1.82 1.77 1.72 1.71 1.75 1.75 1.7
3694.692 1.79 1.76 1.71 1.63 1.67 1.76 1.83 1.88 1.88 1.9
3713.985 1.86 1.84 1.83 1.81 1.8 1.82 1.83 1.82 1.87 1.87
3733.279 1.84 1.88 1.83 1.84 1.86 1.89 1.99 1.99 1.91 1.88
3752.572 1.88 1.95 2.07 2.05 2.06 2.03 1.98 2.01 2.08 2.11
3771.866 2.08 2.11 2.2 2.21 2.13 2.01 1.98 2 2.06 2.19
3791.159 2.17 2.21 2.24 2.11 2.02 2.03 2.03 2.04 2.15 2.16
3810.452 2.08 2.01 2.02 2.05 2.11 2.16 2.14 2.2 2.28 2.23
3829.746 2.11 2.01 2.03 2.08 2.04 2.04 2.05 2.07 2.03 1.98
3849.039 2.07 2.05 2.02 2.06 1.99 1.99 1.96 1.9 2.02 2.09
3868.333 2.08 2.12 2.06 1.99 2.03 1.94 1.93 2.11 2.08 2.08
3887.626 2.16 2.04 2.05 2.16 2.17 2.11 2.02 2.01 2.01 2.12
3906.920 2.16 2.16 2.17 2.16 2.19 2.22 2.22 2.24 2.19 2.09
3926.213 2.12 2.12 2.06 2.07 2.09 2.18 2.27 2.22 2.19 2.18
3945.506 2.18 2.32 2.41 2.24 2.13 2.21 2.18 2.14 2.13 2.15
3964.800 2.27 2.35 2.34 2.33 2.27 2.27 2.29 2.3 2.4 2.37
3984.093 2.33 2.41 2.59 2.65 2.57 2.63 2.57 2.5 2.57
##END=
