##TITLE=Phosfolan
##JCAMP-DX=4.24
##DATA TYPE=INFRARED SPECTRUM
##ORIGIN=NIST Mass Spectrometry Data Center
##OWNER=NIST Standard Reference Data Program
Collection (C) 2018 copyright by the U.S. Secretary of Commerce
on behalf of the United States of America. All rights reserved.
##CAS REGISTRY NO=947-02-4
##MOLFORM=C 7 H 14 N O 3 P S 2
##$NIST SOURCE=MSDC-IR
##SPECTROMETER/DATA SYSTEM=HP-GC/MS/IRD
##STATE=gas
##XUNITS=1/CM
##YUNITS=ABSORBANCE
##XFACTOR=1.0
##YFACTOR=0.000041900
##DELTAX=4.0
##FIRSTX=550.0
##LASTX=3846.0
##FIRSTY=0.040434
##MAXX=3846
##MINX=550
##MAXY=0.419
##MINY=0
##NPOINTS=825
##XYDATA=(X++(Y..Y))
550.0 965 820 735 715 699 684 661 626 574 492
590.0 383 271 179 112 71 46 31 20 12 9
630.0 5 3 3 2 0 0 2 5 11 18
670.0 30 53 81 100 104 95 86 86 95 109
710.0 127 158 204 268 349 435 508 560 580 565
750.0 518 452 381 327 298 296 321 378 467 580
790.0 701 805 875 905 900 876 851 854 913 1044
830.0 1276 1606 1977 2315 2648 3108 3681 4050 3861 3127
870.0 2212 1485 1059 870 832 899 1050 1282 1575 1880
910.0 2093 2116 1964 1776 1707 1835 2160 2625 3131 3551
950.0 3823 3963 3960 3792 3470 3066 2646 2229 1840 1520
990.0 1294 1169 1139 1193 1338 1583 1961 2506 3248 4194
1030.0 5286 6398 7329 7886 8008 7788 7443 7123 6812 6371
1070.0 5675 4769 3855 3134 2689 2489 2427 2356 2170 1880
1110.0 1583 1359 1201 1089 1012 964 942 951 993 1056
1150.0 1074 1023 927 841 788 744 694 637 567 492
1190.0 415 346 296 263 243 232 231 236 245 262
1230.0 291 338 416 543 739 1008 1326 1636 1896 2070
1270.0 2212 2419 2706 2926 2865 2483 1947 1480 1138 882
1310.0 692 547 434 348 285 242 213 194 185 183
1350.0 188 200 221 254 293 329 348 358 393 470
1390.0 571 639 625 531 416 334 296 286 301 337
1430.0 368 369 334 289 255 230 212 201 198 196
1470.0 199 203 212 219 219 212 207 204 203 204
1510.0 207 215 226 243 267 300 344 405 486 594
1550.0 743 950 1234 1619 2145 2895 3951 5420 7221 8967
1590.0 10000 9898 8851 7465 6203 5196 4388 3679 3040 2476
1630.0 2001 1622 1328 1111 948 826 736 671 629 603
1670.0 594 596 605 610 607 597 585 581 582 582
1710.0 579 568 549 527 502 477 458 448 441 432
1750.0 413 387 352 313 280 255 237 226 221 219
1790.0 224 235 248 264 279 293 300 299 287 264
1830.0 233 199 170 148 133 123 114 108 102 97
1870.0 91 85 78 71 64 58 54 49 44 38
1910.0 33 29 25 22 21 19 17 14 13 10
1950.0 10 9 7 5 4 4 3 4 5 4
1990.0 5 4 5 6 5 6 6 5 3 2
2030.0 2 1 1 0 1 0 0 0 0 1
2070.0 2 2 3 4 6 8 10 12 13 12
2110.0 13 14 15 16 17 18 17 18 20 20
2150.0 22 24 28 31 35 39 40 40 37 33
2190.0 27 22 17 12 9 7 6 5 4 4
2230.0 2 3 2 2 3 4 5 7 9 10
2270.0 9 8 8 7 5 5 4 3 1 0
2310.0 0 1 2 3 3 4 5 4 5 4
2350.0 3 3 2 1 2 1 2 2 3 5
2390.0 4 4 5 5 7 9 12 14 17 21
2430.0 25 29 33 36 39 40 39 38 35 33
2470.0 30 27 25 23 22 21 21 20 19 16
2510.0 14 13 11 8 6 5 4 5 4 3
2550.0 4 5 3 3 2 2 1 2 1 1
2590.0 2 1 0 1 0 0 0 0 0 0
2630.0 0 0 0 0 0 0 0 0 0 1
2670.0 0 0 1 2 3 4 5 5 6 7
2710.0 9 12 14 18 22 25 26 25 26 25
2750.0 26 28 30 31 33 37 41 43 42 40
2790.0 39 37 38 40 44 48 53 59 66 73
2830.0 86 102 124 157 190 211 215 208 207 223
2870.0 259 305 343 362 367 369 383 420 478 545
2910.0 612 664 702 760 906 1225 1665 1952 1884 1534
2950.0 1174 972 904 937 1040 1180 1360 1571 1736 1746
2990.0 1599 1381 1161 959 786 651 546 456 377 311
3030.0 257 215 181 153 131 114 100 88 78 68
3070.0 62 56 53 50 48 47 45 43 43 44
3110.0 45 46 48 49 53 57 61 68 77 85
3150.0 92 97 99 98 94 87 80 72 65 60
3190.0 57 54 52 50 48 44 41 38 36 35
3230.0 34 31 29 27 25 23 21 19 18 17
3270.0 16 17 16 15 14 13 11 9 10 11
3310.0 10 11 9 8 9 9 8 7 8 7
3350.0 6 6 7 6 5 6 5 6 5 5
3390.0 6 7 6 6 7 6 6 8 9 10
3430.0 12 12 11 9 8 6 6 7 6 5
3470.0 5 4 2 2 3 3 4 2 2 3
3510.0 2 3 3 2 2 3 4 3 2 4
3550.0 4 3 2 2 2 3 1 0 1 1
3590.0 1 2 1 3 4 3 3 4 6 5
3630.0 4 3 4 5 4 5 4 5 7 6
3670.0 5 4 5 5 4 5 7 6 7 6
3710.0 5 6 7 7 6 7 8 7 7 6
3750.0 9 8 9 8 9 10 12 12 12 10
3790.0 8 9 8 8 9 8 9 9 8 9
3830.0 9 9 10 9 10
##END=
