##TITLE=1,2,4-Triisopropylbenzene
##JCAMP-DX=4.24
##DATA TYPE=INFRARED SPECTRUM
##ORIGIN=NIST Mass Spectrometry Data Center
##OWNER=NIST Standard Reference Data Program
Collection (C) 2018 copyright by the U.S. Secretary of Commerce
on behalf of the United States of America. All rights reserved.
##CAS REGISTRY NO=948-32-3
##MOLFORM=C 15 H 24
##$NIST SOURCE=MSDC-IR
##SPECTROMETER/DATA SYSTEM=HP-GC/MS/IRD
##STATE=gas
##XUNITS=1/CM
##YUNITS=ABSORBANCE
##XFACTOR=1.0
##YFACTOR=0.000002300
##DELTAX=4.0
##FIRSTX=550.0
##LASTX=3846.0
##FIRSTY=0.001003
##MAXX=3846
##MINX=550
##MAXY=0.023
##MINY=0
##NPOINTS=825
##XYDATA=(X++(Y..Y))
550.0 436 425 388 336 292 236 156 110 69 29
590.0 45 78 61 60 66 45 9 25 58 70
630.0 50 12 11 4 9 0 28 69 71 77
670.0 62 23 21 55 59 40 55 84 90 79
710.0 94 114 110 110 90 62 64 62 56 52
750.0 62 71 45 21 50 73 83 94 86 77
790.0 68 94 116 98 98 92 75 109 141 153
830.0 165 179 228 270 314 354 380 401 404 428
870.0 517 702 1058 1608 2191 2636 2697 2312 1712 1131
910.0 735 514 391 324 285 256 242 244 234 217
950.0 217 212 211 205 203 220 245 259 257 251
990.0 249 241 236 228 218 207 194 186 187 182
1030.0 164 159 165 154 149 133 130 127 111 140
1070.0 160 171 196 224 241 247 255 268 291 321
1110.0 358 396 419 466 547 665 813 954 1042 1021
1150.0 906 736 546 393 300 234 206 207 215 241
1190.0 265 265 278 298 308 321 346 374 398 425
1230.0 441 436 404 359 316 285 270 265 265 263
1270.0 257 232 219 219 201 193 206 205 210 232
1310.0 247 270 298 318 342 367 403 459 518 584
1350.0 647 709 811 1005 1294 1615 1884 1982 1908 1712
1390.0 1450 1195 988 836 741 695 690 740 832 982
1430.0 1197 1445 1689 1880 2017 2088 2095 2001 1800 1534
1470.0 1244 989 774 615 524 456 400 374 362 355
1510.0 338 324 323 327 322 318 315 316 317 318
1550.0 322 327 321 296 293 287 289 294 291 300
1590.0 313 333 364 399 429 472 562 695 879 1098
1630.0 1268 1336 1264 1046 766 540 370 258 206 179
1670.0 161 149 136 132 125 110 105 98 84 80
1710.0 80 77 77 73 67 68 74 69 70 69
1750.0 68 68 66 70 77 93 109 131 159 175
1790.0 191 189 176 149 110 88 75 65 63 54
1830.0 38 37 44 38 36 36 35 35 36 37
1870.0 31 25 25 28 35 36 33 31 35 38
1910.0 36 39 33 27 33 31 30 29 34 34
1950.0 30 28 19 20 21 15 17 17 17 15
1990.0 12 17 20 17 12 15 19 17 15 12
2030.0 6 12 21 19 17 24 23 16 17 25
2070.0 20 17 21 25 27 24 16 10 16 23
2110.0 16 11 15 26 26 28 29 23 12 16
2150.0 25 23 13 7 10 17 13 3 3 1
2190.0 0 4 6 6 3 7 14 19 17 16
2230.0 15 20 25 16 15 19 15 16 18 16
2270.0 17 20 19 17 16 27 31 21 22 36
2310.0 37 31 33 42 44 37 40 43 38 42
2350.0 44 50 52 56 54 51 52 42 35 37
2390.0 40 38 35 43 47 46 45 42 44 43
2430.0 47 50 46 51 52 47 44 46 44 54
2470.0 68 75 73 67 68 64 61 71 70 57
2510.0 53 64 65 63 68 63 63 62 60 61
2550.0 63 67 70 71 71 67 70 73 75 81
2590.0 81 90 95 88 83 85 92 84 77 86
2630.0 91 97 109 115 117 130 134 129 142 155
2670.0 153 162 178 189 196 204 206 204 205 219
2710.0 229 231 250 287 314 329 339 331 321 315
2750.0 311 297 297 301 298 309 312 333 355 375
2790.0 407 441 495 553 621 700 814 990 1231 1571
2830.0 2044 2651 3296 3811 4111 4263 4380 4576 4929 5377
2870.0 5808 6153 6410 6635 6824 6981 7193 7475 7783 8119
2910.0 8498 8945 9413 9804 10000 9914 9482 8701 7718 6742
2950.0 5945 5473 5364 5518 5757 5910 5813 5443 4897 4313
2990.0 3855 3555 3306 3038 2759 2519 2318 2141 1976 1832
3030.0 1694 1539 1394 1269 1138 1015 916 842 793 756
3070.0 765 822 925 1088 1287 1444 1461 1311 1055 763
3110.0 534 421 360 301 273 252 225 221 220 207
3150.0 199 181 169 169 161 160 167 161 135 130
3190.0 137 125 123 128 126 127 126 103 84 81
3230.0 92 92 83 92 87 83 82 78 76 68
3270.0 69 65 51 46 63 73 76 68 64 61
3310.0 49 54 49 41 56 64 51 48 52 59
3350.0 55 49 45 52 60 59 59 47 40 42
3390.0 38 29 17 11 38 47 35 47 52 39
3430.0 28 34 32 35 32 15 14 27 21 18
3470.0 28 28 19 17 29 34 34 36 38 36
3510.0 30 16 7 12 19 31 28 21 19 20
3550.0 23 28 26 14 29 32 21 19 20 24
3590.0 24 19 19 28 31 24 22 22 16 20
3630.0 12 4 10 14 31 30 26 13 3 12
3670.0 23 26 25 20 14 11 6 20 19 13
3710.0 22 29 25 16 18 33 33 16 22 36
3750.0 36 33 31 25 21 20 33 31 11 28
3790.0 44 36 22 31 47 51 65 55 31 40
3830.0 50 46 34 32 39
##END=
