##TITLE=Benzotriazole
##JCAMP-DX=4.24
##DATA TYPE=INFRARED SPECTRUM
##ORIGIN=NIST Mass Spectrometry Data Center
##OWNER=NIST Standard Reference Data Program
Collection (C) 2018 copyright by the U.S. Secretary of Commerce
on behalf of the United States of America. All rights reserved.
##CAS REGISTRY NO=95-14-7
##MOLFORM=C 6 H 5 N 3
##$NIST SOURCE=MSDC-IR
##SPECTROMETER/DATA SYSTEM=HP-GC/MS/IRD
##STATE=gas
##XUNITS=1/CM
##YUNITS=ABSORBANCE
##XFACTOR=1.0
##YFACTOR=0.000001300
##DELTAX=4.0
##FIRSTX=550.0
##LASTX=3846.0
##FIRSTY=0.001114
##MAXX=3846
##MINX=550
##MAXY=0.013
##MINY=0
##NPOINTS=825
##XYDATA=(X++(Y..Y))
550.0 857 808 803 916 1194 1445 1136 875 822 687
590.0 626 611 602 625 677 886 1013 849 709 640
630.0 583 512 480 437 405 499 734 1066 1369 1692
670.0 2155 2637 3377 3235 2380 2195 2122 1701 1245 1104
710.0 1090 1281 1805 2666 3558 4359 5145 7637 10000 8342
750.0 6183 5565 4910 4206 3448 2504 1890 1562 1239 884
790.0 492 260 222 189 129 103 95 114 131 128
830.0 107 132 206 262 277 304 389 475 607 835
870.0 1064 1295 1520 1636 1707 1780 1824 1859 1969 2161
910.0 2291 2401 2477 2406 2339 2152 1686 1187 842 600
950.0 501 524 528 531 566 661 811 941 1108 1387
990.0 1856 2381 2622 2778 2790 2426 2130 1726 1135 683
1030.0 406 287 174 90 61 26 45 53 44 48
1070.0 75 107 123 207 311 372 433 515 627 813
1110.0 1016 1072 1187 1322 1334 1289 1287 1301 1301 1235
1150.0 1164 1161 1173 1207 1221 1356 1562 1658 1754 1934
1190.0 2122 2279 2415 2748 3156 3165 2986 3028 2974 2442
1230.0 1872 1598 1524 1526 1586 1575 1486 1454 1395 1130
1270.0 825 690 737 990 1396 1813 2034 2079 2162 2200
1310.0 1882 1364 989 726 505 384 318 247 177 133
1350.0 129 149 194 298 427 545 619 652 686 731
1390.0 731 638 542 468 400 322 212 126 86 94
1430.0 115 171 297 463 638 727 771 736 655 561
1470.0 368 222 177 192 256 300 294 284 278 232
1510.0 145 80 57 34 9 1 6 9 27 61
1550.0 91 126 163 197 253 320 368 370 379 431
1590.0 452 447 473 522 599 694 771 782 736 628
1630.0 468 294 146 76 58 87 117 141 191 234
1670.0 258 264 282 294 251 184 164 163 141 115
1710.0 101 111 123 114 107 110 115 110 103 95
1750.0 99 123 155 187 228 261 254 237 233 216
1790.0 193 198 202 211 202 194 196 178 148 108
1830.0 71 53 52 61 75 78 77 86 107 129
1870.0 137 149 166 183 208 223 241 260 271 280
1910.0 271 245 225 232 246 250 248 248 231 193
1950.0 154 110 61 38 37 44 36 33 42 48
1990.0 43 37 31 37 41 30 20 34 41 36
2030.0 28 24 34 38 43 50 42 41 46 31
2070.0 34 41 40 42 47 47 49 48 30 29
2110.0 43 59 70 75 81 76 68 73 74 79
2150.0 93 82 59 57 58 50 55 60 64 69
2190.0 66 64 68 88 106 98 100 87 81 88
2230.0 77 73 67 64 82 92 82 83 98 102
2270.0 92 111 136 132 141 155 156 160 156 154
2310.0 136 128 126 119 118 108 104 117 126 129
2350.0 135 147 151 159 177 189 164 156 166 154
2390.0 145 131 114 104 107 103 118 148 136 131
2430.0 128 117 121 133 116 109 121 121 124 123
2470.0 125 134 131 124 141 174 183 174 184 197
2510.0 181 167 167 140 118 115 110 102 93 98
2550.0 106 117 111 93 99 102 106 105 118 130
2590.0 129 139 152 150 149 148 159 179 187 176
2630.0 143 100 96 89 74 69 66 67 69 84
2670.0 89 90 75 79 74 35 30 41 49 62
2710.0 71 70 70 72 60 55 63 70 74 76
2750.0 90 92 81 88 89 98 84 46 56 84
2790.0 68 60 64 60 50 48 72 82 78 81
2830.0 68 50 53 85 103 92 79 76 95 112
2870.0 104 98 113 112 120 141 121 109 123 117
2910.0 99 65 40 52 75 78 91 104 108 103
2950.0 101 104 119 127 102 106 141 156 154 150
2990.0 159 175 151 121 116 140 177 184 238 299
3030.0 380 483 614 780 953 1165 1357 1575 1843 2075
3070.0 2168 2137 2076 1950 1756 1516 1241 1040 938 865
3110.0 668 483 358 257 210 181 157 147 110 89
3150.0 96 111 89 80 112 111 95 84 81 63
3190.0 82 92 52 44 39 68 117 99 89 108
3230.0 71 59 94 100 70 57 96 106 69 53
3270.0 77 91 97 119 83 67 101 96 84 108
3310.0 121 126 116 114 101 78 82 76 85 109
3350.0 82 70 109 115 90 88 76 76 108 100
3390.0 88 81 76 67 66 88 90 103 151 205
3430.0 208 220 269 346 458 600 874 1214 1673 2324
3470.0 3203 4458 5869 6700 7123 7418 7905 8616 8186 6891
3510.0 5837 5724 5432 3998 2397 1401 873 530 320 217
3550.0 136 71 53 89 117 123 90 71 72 99
3590.0 118 91 70 92 109 86 71 72 58 61
3630.0 51 36 52 68 61 40 46 77 46 34
3670.0 68 56 80 96 78 74 78 53 16 17
3710.0 58 61 49 28 9 22 74 84 74 75
3750.0 66 51 21 19 15 2 3 15 24 52
3790.0 98 96 71 58 70 113 101 44 30 40
3830.0 10 0 15 40 41
##END=
