##TITLE=Bicyclo[2.2.1]-5-heptene-2-carbonitrile
##JCAMP-DX=4.24
##DATA TYPE=INFRARED SPECTRUM
##ORIGIN=EPA-IR VAPOR PHASE LIBRARY
##OWNER=SRD/NIST
Collection (C) 2018 copyright by the U.S. Secretary of Commerce
on behalf of the United States of America. All rights reserved.
##CAS REGISTRY NO=95-11-4
##MOLFORM=C 8 H 9 N
##$NIST SOURCE=MSDC-IR
##STATE=gas
##XUNITS=1/CM
##YUNITS=ABSORBANCE
##XFACTOR=1.
##YFACTOR=0.001
##DELTAX=1.92898
##FIRSTX=549.8
##LASTX=4000.7
##FIRSTY=0.3937
##MAXX=4000.7
##MINX=549.759
##MAXY=0.03268
##MINY=0
##NPOINTS=1790
##XYDATA=(X++(Y..Y))
549.759 0.3937 0.33979 0.3754 0.5309 0.4896 0.4445 0.4815 0.5189 0.3876 0.4382
569.049 0.3534 0.31176 0.32293 0.27568 0.5908 0.713 0.3795 0.32472 0.2672 0.048
588.339 0.26392 0.54 0.6951 0.7607 0.4177 0.3957 0.5119 0.239228 0.3273 0.6214
607.628 0.46 0.241244 0.2135 0.4003 0.3528 0.1743 0.3984 0.3944 0.27692 0.33911
626.918 0.27471 0.09 0.131 0.30785 0.5358 0.4896 0.3539 0.3765 0.4226 0.4106
646.208 0.4383 0.6996 0.86 0.8373 0.7655 0.8603 0.9818 1.1315 1.36 1.1156
665.498 0.7979 0.8497 0.8564 0.8481 0.7265 0.6434 0.7507 0.8197 0.83 0.8353
684.787 1.036 1.25 1.34 1.47 1.6 1.66 1.93 2.42 3.1 3.79
704.077 4.66 5.98 7.58 9.29 10.83 11.88 12.39 12.51 14.39 17.28
723.367 15.7 13.11 13.35 13.82 13.17 11.48 9.43 7.4 5.87 4.82
742.657 4.07 3.58 2.99 2.49 2.45 2.51 2.39 2.04 1.85 1.76
761.947 1.71 1.78 1.45 1.1523 1.1831 1.1584 1.1292 0.9654 0.9646 0.9286
781.236 0.8687 0.8321 0.7737 0.9145 0.9867 0.9567 0.8996 0.8471 0.8611 1.0085
800.526 0.935 0.8954 1.1981 1.37 1.57 1.93 2.16 2.45 2.5 2.54
819.816 2.96 3.28 3.39 3.24 3.43 3.91 3.88 3.42 2.88 2.48
839.106 2.24 1.93 1.57 1.47 1.41 1.2073 1.0268 0.8254 0.5908 0.5289
858.395 0.5187 0.4659 0.491 0.42 0.5152 0.7438 0.7176 0.6146 0.4948 0.5327
877.685 0.4938 0.4291 0.4871 0.604 0.8044 0.9939 1.1494 1.178 1.1869 1.42
896.975 1.57 1.88 2.26 2.43 2.63 2.55 2.49 2.78 2.98 2.93
916.265 2.94 2.75 2.43 2.17 1.94 1.62 1.28 1.2165 1.1795 1.0558
935.555 0.8539 0.7497 0.709 0.7235 0.9405 0.9207 0.8824 0.9294 0.8704 0.8715
954.844 0.849 0.8989 1.1367 1.0686 0.8611 0.7161 0.5911 0.6583 0.7406 0.7507
974.134 0.6359 0.6967 0.776 0.7439 0.7676 0.6496 0.5069 0.6185 0.6627 0.6398
993.424 0.6059 0.3704 0.4488 0.7106 0.6084 0.6606 0.7352 0.5641 0.6631 0.8228
1012.714 0.9041 0.9847 1.0789 1.25 1.28 1.2374 1.2175 1.1844 1.28 1.38
1032.003 1.42 1.56 1.49 1.0702 0.8402 0.9533 1.0151 1.0267 0.8333 0.6416
1051.293 0.8404 0.8446 0.9519 0.938 0.6434 0.6959 0.6265 0.6952 0.788 0.4625
1070.583 0.28157 0.246961 0.5117 0.6425 0.5412 0.7517 0.8992 0.9612 0.9153 1.1067
1089.873 1.1598 0.8121 0.8048 0.7963 0.8669 1.0036 1.25 1.36 1.5 1.67
1109.163 1.41 1.26 1.25 1.24 1.25 1.33 1.2152 1.2009 1.39 1.3
1128.452 1.28 1.3 1.61 1.94 1.67 1.45 1.59 1.52 1.41 1.41
1147.742 1.186 1.106 0.9149 0.9566 1.117 0.8004 0.4834 0.3991 0.6644 0.8745
1167.032 0.5574 0.6056 0.7352 0.4148 0.31155 0.4742 0.5838 0.5293 0.4252 0.4218
1186.322 0.4782 0.4582 0.3734 0.4424 0.6593 0.4237 0.2026 0.3593 0.1908 0
1205.611 0.241892 0.249941 0.4984 0.7207 0.608 0.9134 1.1116 0.8662 0.7242 0.9246
1224.901 1.1952 1.28 1.37 1.46 1.32 1.2384 1.2021 1.24 1.1513 1.1341
1244.191 1.2126 1.1491 1.2352 1.37 1.31 1.48 1.63 1.36 1.29 1.41
1263.481 1.47 1.3 1.29 1.28 1.1472 1.25 1.1643 1.0332 0.9366 0.8849
1282.771 0.8424 0.7705 0.7371 0.6979 0.6753 0.7156 0.7792 0.7469 0.7435 0.8696
1302.060 0.9763 0.97 1.0204 1.1536 1.2372 1.3 1.45 1.6 1.81 2.02
1321.350 2.17 2.45 2.82 3.21 3.61 3.87 4.08 4.32 4.52 4.79
1340.640 5.05 4.82 4.24 3.93 3.75 3.45 3.06 2.6 2.07 1.62
1359.930 1.32 1.0692 0.8504 0.7174 0.6342 0.5426 0.4747 0.4203 0.4066 0.4353
1379.219 0.4479 0.442 0.4703 0.4446 0.4225 0.473 0.4961 0.4914 0.4462 0.4269
1398.509 0.4981 0.52 0.4839 0.5066 0.5452 0.5676 0.53 0.5067 0.5658 0.6293
1417.799 0.6437 0.6682 0.7445 0.7945 0.8194 0.92 1.0037 1.0814 1.234 1.4
1437.089 1.6 1.8 1.98 2.15 2.32 2.48 2.62 2.75 2.82 2.8
1456.378 2.75 2.65 2.51 2.35 2.15 1.94 1.77 1.64 1.49 1.3
1475.668 1.1237 1.0136 0.8925 0.7903 0.7466 0.6704 0.5544 0.5059 0.5436 0.4881
1494.958 0.4616 0.4626 0.4708 0.4549 0.3754 0.3654 0.4103 0.4263 0.4207 0.4339
1514.248 0.4112 0.4046 0.3717 0.28671 0.29347 0.31282 0.3293 0.3715 0.3891 0.31964
1533.538 0.27606 0.31619 0.29143 0.27115 0.33314 0.386 0.3673 0.3683 0.4095 0.3877
1552.827 0.4072 0.5062 0.5579 0.561 0.5768 0.5934 0.5997 0.6419 0.7096 0.6848
1572.117 0.6763 0.6944 0.6502 0.6445 0.6576 0.5889 0.5815 0.6343 0.5823 0.5454
1591.407 0.5439 0.5103 0.4887 0.5079 0.4661 0.4088 0.4359 0.5095 0.5449 0.5439
1610.697 0.6019 0.6589 0.735 0.7774 0.7853 0.9045 1.036 1.0905 1.1582 1.2179
1629.986 1.2327 1.2143 1.24 1.31 1.26 1.1787 1.111 1.0472 1.0229 0.9656
1649.276 0.8927 0.8153 0.7073 0.6565 0.6515 0.5941 0.5547 0.5774 0.5441 0.4635
1668.566 0.4329 0.4572 0.4912 0.4738 0.3895 0.3484 0.3645 0.3574 0.3417 0.3536
1687.856 0.31534 0.33414 0.3849 0.33426 0.29047 0.32371 0.3779 0.4022 0.3649 0.33786
1707.146 0.346 0.3472 0.353 0.31692 0.30217 0.3652 0.4055 0.3998 0.4582 0.4608
1726.435 0.398 0.4068 0.4271 0.4112 0.4049 0.4222 0.4259 0.3997 0.443 0.456
1745.725 0.3799 0.383 0.3883 0.3645 0.3774 0.3989 0.33725 0.26352 0.25668 0.29423
1765.015 0.31576 0.3447 0.3665 0.3891 0.3984 0.3606 0.3675 0.3838 0.3499 0.3404
1784.305 0.4081 0.4267 0.4066 0.402 0.3738 0.3717 0.3597 0.28776 0.31112 0.3923
1803.594 0.4239 0.4202 0.4018 0.3831 0.3976 0.4418 0.4458 0.4563 0.476 0.4767
1822.884 0.5096 0.5164 0.4753 0.4218 0.4272 0.4588 0.4638 0.468 0.4213 0.377
1842.174 0.3806 0.3954 0.3819 0.3454 0.32526 0.3619 0.4386 0.4529 0.3885 0.3674
1861.464 0.391 0.4042 0.3999 0.3569 0.33762 0.31359 0.31467 0.3645 0.3956 0.4134
1880.754 0.3837 0.3612 0.3797 0.3791 0.3719 0.3679 0.374 0.3791 0.3886 0.382
1900.043 0.3658 0.3688 0.407 0.4304 0.3907 0.3559 0.3043 0.32867 0.4067 0.38
1919.333 0.3743 0.4075 0.4175 0.3995 0.3724 0.4112 0.3687 0.33716 0.4084 0.4622
1938.623 0.4715 0.4138 0.3911 0.4411 0.4494 0.3946 0.3485 0.33484 0.31543 0.30227
1957.913 0.30415 0.32929 0.3514 0.3403 0.3423 0.3216 0.3651 0.4154 0.3663 0.3806
1977.202 0.38 0.3226 0.32835 0.3622 0.3981 0.3943 0.3866 0.3625 0.3746 0.4171
1996.492 0.3884 0.3891 0.4073 0.3734 0.3703 0.3817 0.3526 0.3278 0.32299 0.3548
2015.782 0.354 0.31539 0.27805 0.29497 0.33198 0.3554 0.3915 0.371 0.3569 0.4502
2035.072 0.4878 0.441 0.4603 0.4859 0.4766 0.503 0.4918 0.4834 0.5074 0.4973
2054.362 0.5296 0.5618 0.5088 0.4525 0.4813 0.4939 0.4802 0.4574 0.4649 0.4252
2073.651 0.403 0.4408 0.4556 0.5057 0.5412 0.5291 0.5103 0.5324 0.5275 0.4803
2092.941 0.4563 0.4801 0.4997 0.472 0.4612 0.4785 0.4654 0.4531 0.4586 0.4764
2112.231 0.4697 0.4285 0.3843 0.3663 0.4159 0.418 0.3829 0.3677 0.3686 0.3752
2131.521 0.3582 0.33036 0.32203 0.358 0.3781 0.3731 0.381 0.4047 0.4267 0.459
2150.810 0.4385 0.4349 0.5052 0.5587 0.5514 0.526 0.5247 0.4781 0.4792 0.502
2170.100 0.4801 0.5075 0.55 0.5447 0.5106 0.4955 0.5133 0.5374 0.5296 0.5409
2189.390 0.5738 0.5675 0.6129 0.6412 0.6062 0.5634 0.544 0.6231 0.6308 0.5724
2208.680 0.6117 0.6803 0.6943 0.7132 0.796 0.8801 0.933 1.0234 1.1589 1.32
2227.970 1.47 1.64 1.86 2.05 2.18 2.22 2.27 2.34 2.33 2.29
2247.259 2.23 2.13 2 1.79 1.54 1.32 1.0664 0.8463 0.7359 0.6215
2266.549 0.5738 0.5447 0.4639 0.5079 0.5536 0.5529 0.5272 0.4812 0.4754 0.4695
2285.839 0.4795 0.5217 0.4858 0.444 0.4813 0.4622 0.4698 0.5246 0.4722 0.4426
2305.129 0.4136 0.3681 0.4072 0.4871 0.5157 0.5427 0.5908 0.5474 0.4949 0.4976
2324.418 0.4704 0.4373 0.4541 0.4668 0.4721 0.4561 0.4674 0.4481 0.3853 0.3968
2343.708 0.4135 0.3975 0.4269 0.4825 0.5113 0.4825 0.4427 0.4888 0.4913 0.4245
2362.998 0.4298 0.4531 0.4443 0.4329 0.4027 0.4201 0.4745 0.4416 0.357 0.3599
2382.288 0.365 0.3936 0.3875 0.3416 0.3554 0.3539 0.405 0.4101 0.3707 0.3818
2401.578 0.32828 0.31138 0.3905 0.4024 0.3458 0.32304 0.3414 0.3561 0.384 0.4329
2420.867 0.4377 0.404 0.4028 0.4026 0.4341 0.3718 0.25447 0.3055 0.3761 0.3823
2440.157 0.397 0.4287 0.4465 0.4142 0.3997 0.4019 0.3604 0.3409 0.30775 0.33169
2459.447 0.4018 0.3621 0.3421 0.3451 0.31148 0.29244 0.30316 0.32784 0.3429 0.31767
2478.737 0.3444 0.3738 0.31259 0.33933 0.4009 0.4611 0.4714 0.4061 0.3504 0.31361
2498.026 0.33602 0.29903 0.28829 0.3423 0.3706 0.4228 0.4582 0.381 0.3692 0.4311
2517.316 0.3479 0.3436 0.3872 0.33403 0.29557 0.32261 0.3955 0.4319 0.4079 0.372
2536.606 0.4367 0.4831 0.4087 0.387 0.407 0.3752 0.3524 0.3847 0.3682 0.32317
2555.896 0.32481 0.27752 0.31546 0.3321 0.27769 0.244334 0.213 0.27542 0.25644 0.23105
2575.186 0.23759 0.198 0.23551 0.29223 0.26187 0.25476 0.26184 0.3579 0.4198 0.3481
2594.475 0.29272 0.28747 0.3627 0.4371 0.4889 0.4136 0.31159 0.248252 0.1983 0.23566
2613.765 0.30535 0.4063 0.408 0.3821 0.371 0.30166 0.3543 0.33555 0.26412 0.29105
2633.055 0.23008 0.1998 0.27737 0.28574 0.26211 0.26343 0.249884 0.27869 0.3525 0.33915
2652.345 0.25528 0.2232 0.26573 0.3575 0.3981 0.3187 0.25664 0.3444 0.4299 0.4021
2671.634 0.3911 0.3779 0.3074 0.32401 0.32465 0.30959 0.32856 0.31138 0.33885 0.377
2690.924 0.29723 0.27352 0.3594 0.3433 0.28016 0.26944 0.23303 0.2019 0.29736 0.3858
2710.214 0.29919 0.2225 0.30229 0.3286 0.32041 0.3434 0.30129 0.3173 0.3751 0.365
2729.504 0.371 0.32818 0.3653 0.4209 0.3436 0.3236 0.33513 0.30707 0.26886 0.30241
2748.794 0.3548 0.3466 0.30446 0.29452 0.25174 0.27234 0.30048 0.31464 0.3819 0.33643
2768.083 0.371 0.4132 0.3799 0.3254 0.3869 0.3738 0.3415 0.4306 0.3773 0.3037
2787.373 0.32893 0.3483 0.3611 0.3503 0.31236 0.3438 0.33904 0.3445 0.3587 0.3614
2806.663 0.3431 0.27848 0.25181 0.25785 0.248317 0.246104 0.3181 0.382 0.4171 0.4827
2825.953 0.5035 0.5489 0.5003 0.4847 0.5956 0.621 0.5943 0.6304 0.7002 0.6949
2845.242 0.8075 0.8429 0.87 1.0062 1.0706 1.28 1.58 1.83 2.21 2.55
2864.532 2.91 3.44 3.86 4.39 5.02 5.44 5.82 6.21 6.58 6.85
2883.822 6.88 6.79 6.56 6.28 6.01 5.65 5.39 4.98 4.49 4.17
2903.112 3.88 3.69 3.58 3.5 3.42 3.5 3.61 3.68 3.89 4.19
2922.401 4.55 4.98 5.43 5.86 6.26 6.87 7.58 8.4 9.28 9.87
2941.691 10.48 11.32 12.06 12.58 12.96 13.3 13.51 13.66 13.76 13.82
2960.981 14.11 14.45 14.81 15.52 16.61 17.84 19.37 21.13 23.1 25.48
2980.271 28.11 29.94 30.37 30.6 31.4 32.68 32.51 29.59 27.1 25.85
2999.561 23.45 20.18 16.93 13.82 11.1 8.82 6.98 5.4 4.11 3.2
3018.850 2.42 1.89 1.64 1.34 1.0587 0.9047 0.7753 0.8095 0.8295 0.7439
3038.140 0.7126 0.7913 0.8635 0.8141 0.9143 1.0062 1.0325 1.2152 1.43 1.68
3057.430 1.94 2.18 2.43 2.7 2.93 3.12 3.4 3.71 3.95 3.92
3076.720 3.69 3.58 3.47 3.26 3.08 2.9 2.61 2.26 1.96 1.77
3096.009 1.53 1.2049 1.1573 1.0705 0.8803 0.8052 0.7902 0.7506 0.6335 0.572
3115.299 0.5877 0.6339 0.5933 0.5583 0.6646 0.6799 0.5705 0.5537 0.5897 0.6124
3134.589 0.7 0.7689 0.749 0.7422 0.8325 0.8248 0.7774 0.8098 0.6603 0.6247
3153.879 0.643 0.5011 0.4834 0.4413 0.4559 0.4785 0.3953 0.371 0.3556 0.3603
3173.169 0.4114 0.3476 0.248483 0.3019 0.392 0.4214 0.29655 0.089 0.11 0.23529
3192.458 0.25417 0.31438 0.25832 0.1965 0.27473 0.32119 0.33322 0.32073 0.30127 0.32431
3211.748 0.3719 0.3849 0.4515 0.4706 0.4175 0.478 0.3913 0.3983 0.4093 0.4034
3231.038 0.4231 0.1988 0.2168 0.3492 0.3413 0.33594 0.3553 0.406 0.4797 0.4975
3250.328 0.4199 0.426 0.3632 0.33765 0.4168 0.4451 0.3938 0.30287 0.25426 0.26453
3269.617 0.3942 0.3672 0.3722 0.4855 0.4641 0.382 0.3961 0.4388 0.4174 0.3994
3288.907 0.3523 0.28183 0.29863 0.33956 0.28977 0.31681 0.3816 0.33217 0.28277 0.32048
3308.197 0.3673 0.3786 0.38 0.244818 0.2211 0.3613 0.33134 0.29635 0.2091 0.2186
3327.487 0.33065 0.30637 0.3438 0.3518 0.3613 0.2059 0.11 0.23433 0.27295 0.30834
3346.777 0.30235 0.29003 0.31997 0.32692 0.3519 0.30917 0.3444 0.4345 0.4551 0.5672
3366.066 0.5291 0.3614 0.4144 0.4106 0.3575 0.3163 0.2204 0.2597 0.3656 0.3482
3385.356 0.2947 0.2222 0.246634 0.3678 0.31002 0.240091 0.27502 0.3497 0.4382 0.4613
3404.646 0.3759 0.29624 0.23999 0.32018 0.3776 0.31431 0.275 0.26306 0.1893 0.1671
3423.936 0.1823 0.173 0.2235 0.2218 0.27919 0.33779 0.29564 0.3432 0.4218 0.3998
3443.225 0.399 0.3608 0.4297 0.459 0.408 0.3871 0.3561 0.4616 0.4035 0.29388
3462.515 0.28565 0.31306 0.3496 0.31231 0.3095 0.2925 0.1864 0.1748 0.2006 0.25464
3481.805 0.3609 0.33351 0.3552 0.4251 0.4022 0.3676 0.3695 0.391 0.29266 0.217
3501.095 0.26585 0.25977 0.23183 0.3498 0.3694 0.4354 0.4924 0.3602 0.33101 0.3627
3520.385 0.3193 0.3581 0.4029 0.31297 0.247115 0.2019 0.189 0.30665 0.3541 0.29136
3539.674 0.4642 0.3923 0.13 0.1522 0.195 0.2064 0.31805 0.3945 0.2271 0.213
3558.964 0.28312 0.26017 0.29272 0.368 0.454 0.4259 0.3688 0.3859 0.3891 0.3565
3578.254 0.3407 0.26729 0.2176 0.1939 0.1701 0.2063 0.2221 0.25207 0.30567 0.2273
3597.544 0.09 0.066 0.1998 0.29848 0.3907 0.4399 0.3955 0.3633 0.3551 0.3695
3616.833 0.3932 0.4134 0.28191 0.27342 0.2255 0.23394 0.26945 0.1819 0.1904 0.25096
3636.123 0.3945 0.3682 0.25454 0.30582 0.30116 0.27221 0.3592 0.4286 0.4423 0.4223
3655.413 0.5147 0.4146 0.24916 0.32743 0.4092 0.3433 0.30858 0.26572 0.241686 0.25286
3674.703 0.23932 0.33931 0.4179 0.3792 0.31335 0.2711 0.3836 0.30959 0.126 0.23892
3693.993 0.28455 0.188 0.106 0.1441 0.2246 0.30097 0.3602 0.32621 0.33889 0.29057
3713.282 0.1751 0.33965 0.3841 0.33779 0.43 0.4343 0.4054 0.33659 0.3682 0.3606
3732.572 0.345 0.3869 0.4104 0.4944 0.4565 0.3765 0.4477 0.3916 0.32839 0.404
3751.862 0.4095 0.4424 0.5624 0.4958 0.31932 0.26706 0.25726 0.361 0.26695 0.104
3771.152 0.3409 0.489 0.5002 0.4702 0.4699 0.5117 0.4256 0.3811 0.3984 0.5744
3790.441 0.6815 0.6107 0.4585 0.33535 0.3545 0.4226 0.4393 0.29215 0.31959 0.4334
3809.731 0.32863 0.347 0.5154 0.5297 0.4454 0.5509 0.5888 0.3657 0.25534 0.3413
3829.021 0.3744 0.27283 0.3876 0.4567 0.3674 0.42 0.31296 0.26786 0.3474 0.30802
3848.311 0.4043 0.5574 0.4671 0.30896 0.4024 0.4143 0.29363 0.4296 0.5837 0.6625
3867.601 0.6292 0.4755 0.3901 0.4196 0.4958 0.5048 0.4213 0.3578 0.3729 0.432
3886.890 0.4009 0.4419 0.4926 0.522 0.6466 0.6048 0.5861 0.5547 0.5369 0.5822
3906.180 0.4285 0.30475 0.32834 0.33403 0.4226 0.4953 0.4257 0.5463 0.5394 0.3734
3925.470 0.4385 0.4409 0.4204 0.5187 0.5142 0.5561 0.6832 0.6562 0.5755 0.6554
3944.760 0.531 0.4168 0.4324 0.4264 0.4824 0.4703 0.5584 0.4839 0.3944 0.4597
3964.049 0.3657 0.28926 0.3616 0.5288 0.5851 0.4648 0.3873 0.3469 0.249611 0.25267
3983.339 0.3803 0.3902 0.32582 0.1549 0.189 0.377 0.32525 0.1797 0.2273 0.26232
##END=
