##TITLE=3-Chloro-2,5-dimethylpyrazine
##JCAMP-DX=4.24
##DATA TYPE=INFRARED SPECTRUM
##ORIGIN=NIST Mass Spectrometry Data Center
##OWNER=NIST Standard Reference Data Program
Collection (C) 2018 copyright by the U.S. Secretary of Commerce
on behalf of the United States of America. All rights reserved.
##CAS REGISTRY NO=95-89-6
##MOLFORM=C 6 H 7 Cl N 2
##$NIST SOURCE=MSDC-IR
##SPECTROMETER/DATA SYSTEM=HP-GC/MS/IRD
##STATE=gas
##XUNITS=1/CM
##YUNITS=ABSORBANCE
##XFACTOR=1.0
##YFACTOR=0.000003300
##DELTAX=4.0
##FIRSTX=550.0
##LASTX=3846.0
##FIRSTY=0.000079
##MAXX=3846
##MINX=550
##MAXY=0.033
##MINY=0
##NPOINTS=825
##XYDATA=(X++(Y..Y))
550.0 24 17 27 103 133 162 202 154 115 88
590.0 57 62 59 19 3 15 14 6 4 14
630.0 11 7 23 33 48 59 64 84 99 106
670.0 122 135 127 105 69 43 23 0 4 14
710.0 15 13 11 35 77 153 237 335 432 483
750.0 504 473 369 265 185 116 83 69 56 57
790.0 60 61 70 78 85 73 84 103 121 137
830.0 134 156 192 211 217 213 207 210 201 192
870.0 210 250 324 455 658 965 1377 1628 1623 1624
910.0 1580 1379 1157 1003 906 847 849 949 1184 1595
950.0 2120 2637 3019 3151 3003 2600 2056 1518 1117 887
990.0 765 690 651 641 627 588 564 569 593 611
1030.0 633 675 763 858 962 1165 1484 1994 2769 3857
1070.0 5253 6884 8526 9656 10000 9688 8642 6866 5026 3635
1110.0 2598 1812 1261 925 753 670 652 687 752 851
1150.0 996 1170 1307 1337 1247 1054 779 509 346 291
1190.0 312 374 458 522 546 548 534 500 509 630
1230.0 862 1179 1480 1610 1620 1568 1356 1042 823 715
1270.0 661 642 622 634 751 1038 1608 2577 3932 5346
1310.0 6437 7098 7375 7250 6716 6075 5565 5102 4507 3781
1350.0 3116 2606 2236 1962 1773 1703 1736 1761 1781 1772
1390.0 1629 1395 1199 1088 1049 1066 1152 1337 1669 2224
1430.0 3133 4489 6161 7611 8377 8340 7552 6073 4289 2840
1470.0 2021 1613 1406 1290 1229 1224 1262 1323 1393 1449
1510.0 1493 1515 1492 1436 1339 1228 1139 1085 1087 1159
1550.0 1284 1417 1486 1460 1343 1142 894 660 484 377
1590.0 320 280 253 235 225 215 209 203 192 182
1630.0 172 157 154 150 139 133 130 125 118 108
1670.0 88 73 63 51 34 26 26 23 18 13
1710.0 16 18 18 25 34 34 39 46 51 54
1750.0 57 67 77 88 97 114 136 163 179 184
1790.0 188 170 134 97 70 53 39 31 34 30
1830.0 24 23 24 23 18 11 7 7 8 12
1870.0 22 24 24 25 27 29 21 19 21 21
1910.0 21 23 23 27 28 25 29 29 27 30
1950.0 33 34 36 41 42 48 62 73 83 95
1990.0 103 104 94 77 63 48 40 35 25 19
2030.0 17 15 11 12 19 18 18 13 9 8
2070.0 8 10 10 6 2 3 7 11 18 23
2110.0 29 47 59 72 78 75 68 50 33 22
2150.0 16 10 4 2 3 1 0 2 8 7
2190.0 6 10 6 8 17 14 6 0 3 6
2230.0 8 16 15 12 12 8 5 7 9 11
2270.0 13 15 23 32 35 38 46 53 61 70
2310.0 78 82 73 76 91 87 76 71 70 62
2350.0 53 46 46 48 43 44 47 41 35 43
2390.0 51 48 45 48 60 62 45 38 38 34
2430.0 38 34 28 33 40 44 53 62 65 63
2470.0 61 57 53 47 44 40 25 20 23 16
2510.0 12 17 24 33 34 25 24 24 29 28
2550.0 23 27 23 19 23 28 28 28 31 32
2590.0 38 46 44 44 52 61 64 63 61 56
2630.0 50 44 43 49 47 37 34 32 32 22
2670.0 17 24 21 23 30 30 32 40 52 65
2710.0 69 66 68 70 78 87 93 100 95 94
2750.0 93 84 76 59 47 44 53 57 61 67
2790.0 68 80 86 90 97 112 136 159 178 194
2830.0 204 215 240 264 287 322 370 422 461 493
2870.0 507 508 495 470 461 448 438 449 470 513
2910.0 579 664 792 999 1286 1606 1870 2005 2006 1868
2950.0 1603 1303 1079 950 914 932 937 937 939 961
2990.0 971 980 1005 1011 972 921 897 881 871 920
3030.0 1056 1248 1451 1608 1678 1649 1516 1295 1036 830
3070.0 699 590 498 437 376 322 283 246 219 205
3110.0 182 164 147 147 151 140 121 117 114 88
3150.0 69 67 67 59 51 50 46 38 39 32
3190.0 27 25 22 26 37 37 33 24 15 25
3230.0 28 22 26 34 36 27 22 31 29 24
3270.0 19 24 36 28 26 37 24 14 25 20
3310.0 22 23 28 35 31 29 21 9 9 17
3350.0 18 18 20 8 7 23 23 17 25 21
3390.0 17 17 13 19 20 28 30 28 28 23
3430.0 24 33 34 28 26 35 31 25 21 26
3470.0 39 36 25 16 28 35 21 21 29 34
3510.0 27 24 35 34 27 22 31 28 19 23
3550.0 19 9 0 18 23 12 14 10 7 4
3590.0 7 9 14 24 26 23 9 0 19 15
3630.0 0 11 17 24 25 17 6 3 8 11
3670.0 18 13 14 21 18 27 36 27 21 17
3710.0 3 2 21 23 24 13 0 17 29 25
3750.0 16 22 19 20 27 23 21 17 25 19
3790.0 18 22 17 22 23 26 38 36 29 15
3830.0 20 31 42 39 36
##END=
