##TITLE=5-Chloro-2-hydroxyaniline
##JCAMP-DX=4.24
##DATA TYPE=INFRARED SPECTRUM
##ORIGIN=NIST Mass Spectrometry Data Center
##OWNER=NIST Standard Reference Data Program
Collection (C) 2018 copyright by the U.S. Secretary of Commerce
on behalf of the United States of America. All rights reserved.
##CAS REGISTRY NO=95-85-2
##MOLFORM=C 6 H 6 Cl N O
##$NIST SOURCE=MSDC-IR
##SPECTROMETER/DATA SYSTEM=HP-GC/MS/IRD
##STATE=gas
##XUNITS=1/CM
##YUNITS=ABSORBANCE
##XFACTOR=1.0
##YFACTOR=0.000014000
##DELTAX=4.0
##FIRSTX=550.0
##LASTX=3846.0
##FIRSTY=0.008106
##MAXX=3846
##MINX=550
##MAXY=0.14
##MINY=0
##NPOINTS=825
##XYDATA=(X++(Y..Y))
550.0 579 879 703 836 902 988 1055 1090 1078 980
590.0 850 748 676 628 606 600 601 615 643 686
630.0 751 848 982 1180 1482 1821 2052 2140 2106 1913
670.0 1632 1416 1301 1241 1189 1134 1086 1052 1027 1007
710.0 998 994 1000 1017 1028 1037 1043 1038 1024 1008
750.0 1004 1043 1163 1376 1629 1870 2088 2218 2298 2359
790.0 2215 2015 1883 1712 1492 1273 1082 914 803 761
830.0 790 889 1028 1197 1401 1495 1386 1206 1020 830
870.0 667 549 487 483 537 657 855 1121 1345 1413
910.0 1326 1109 763 420 218 140 102 79 65 55
950.0 48 47 48 46 41 35 27 21 14 11
990.0 14 17 25 33 35 41 52 55 59 73
1030.0 86 101 117 126 134 142 148 169 206 258
1070.0 337 474 688 1002 1379 1668 1795 1825 1761 1661
1110.0 1762 2162 2684 3070 3219 3165 2933 2679 2717 3195
1150.0 3997 4832 5344 5336 4847 4014 3093 2420 2074 1939
1190.0 1909 1941 2021 2146 2307 2488 2683 2871 3016 3102
1230.0 3137 3145 3088 2904 2672 2443 2179 2017 2082 2303
1270.0 2548 2664 2582 2354 2027 1642 1310 1100 965 888
1310.0 920 1058 1215 1303 1290 1196 1041 861 722 640
1350.0 581 527 476 431 390 353 324 296 271 253
1390.0 241 245 268 321 417 565 762 978 1147 1221
1430.0 1193 1082 907 720 588 537 558 648 794 1007
1470.0 1297 1706 2260 3015 4056 5421 7050 8725 9911 10000
1510.0 8966 7182 4951 2819 1478 898 648 528 470 447
1550.0 451 473 510 544 575 609 652 712 795 914
1590.0 1075 1282 1547 1882 2293 2767 3264 3673 3872 3830
1630.0 3569 3073 2417 1774 1252 885 638 477 377 312
1670.0 275 254 245 244 241 235 221 207 188 167
1710.0 150 135 123 112 106 104 101 97 92 85
1750.0 77 64 52 41 36 36 35 39 47 57
1790.0 67 75 79 82 81 76 67 59 52 48
1830.0 46 47 48 51 52 48 40 34 26 18
1870.0 11 7 5 3 6 8 7 8 8 5
1910.0 1 1 3 6 6 6 8 6 4 2
1950.0 0 0 2 3 4 4 5 6 8 9
1990.0 8 8 9 12 14 15 18 18 19 21
2030.0 24 31 35 38 41 39 33 27 22 16
2070.0 12 11 10 9 10 9 10 9 8 8
2110.0 9 9 11 12 12 14 16 16 17 20
2150.0 19 20 21 22 23 22 22 24 25 27
2190.0 29 28 25 24 22 18 15 14 14 15
2230.0 17 18 19 22 25 29 33 37 42 46
2270.0 50 53 53 48 40 33 27 22 20 20
2310.0 22 23 23 22 23 23 25 29 31 33
2350.0 38 42 47 52 57 59 58 57 58 56
2390.0 56 59 60 60 60 58 53 51 47 44
2430.0 44 47 46 46 48 48 49 49 48 48
2470.0 47 46 47 46 44 43 42 40 37 36
2510.0 36 37 37 38 41 42 41 40 38 38
2550.0 37 37 36 33 31 30 29 29 30 30
2590.0 31 33 34 37 40 41 40 38 36 36
2630.0 34 31 30 28 28 29 30 31 32 32
2670.0 31 32 32 30 29 29 30 29 29 30
2710.0 32 33 32 32 31 27 23 22 21 20
2750.0 21 21 18 18 17 19 19 19 18 16
2790.0 13 11 11 10 9 7 6 7 8 9
2830.0 11 12 14 16 17 20 24 25 28 33
2870.0 34 33 33 31 29 28 24 25 24 23
2910.0 23 21 19 18 16 14 15 15 14 14
2950.0 12 8 7 7 8 13 15 18 23 29
2990.0 37 50 66 81 98 123 153 189 240 294
3030.0 338 365 375 360 329 298 279 265 248 233
3070.0 213 186 172 167 163 156 144 123 105 89
3110.0 76 64 53 43 34 26 18 14 13 12
3150.0 13 15 17 22 25 29 34 35 40 48
3190.0 54 58 61 64 65 69 68 61 56 52
3230.0 44 39 33 29 27 25 22 19 19 18
3270.0 15 16 13 12 15 15 14 14 15 16
3310.0 16 19 23 23 24 29 36 46 62 78
3350.0 93 111 130 149 171 201 234 271 313 358
3390.0 412 475 555 657 762 833 867 866 804 700
3430.0 595 505 419 352 310 284 271 269 271 278
3470.0 293 314 348 396 462 553 663 764 844 907
3510.0 943 944 920 879 826 760 688 613 545 491
3550.0 447 410 381 361 354 349 345 344 344 344
3590.0 338 332 320 307 293 278 264 255 253 260
3630.0 280 327 420 589 878 1336 1842 2089 2049 1938
3670.0 1586 994 550 331 219 158 121 102 88 74
3710.0 68 63 59 55 51 51 49 43 39 35
3750.0 32 29 27 29 28 29 28 25 22 23
3790.0 22 23 24 22 19 21 22 25 28 27
3830.0 26 27 28 29 29
##END=
