##TITLE=Methidathion
##JCAMP-DX=4.24
##DATA TYPE=INFRARED SPECTRUM
##ORIGIN=NIST Mass Spectrometry Data Center
##OWNER=NIST Standard Reference Data Program
Collection (C) 2018 copyright by the U.S. Secretary of Commerce
on behalf of the United States of America. All rights reserved.
##CAS REGISTRY NO=950-37-8
##MOLFORM=C 6 H 11 N 2 O 4 P S 3
##$NIST SOURCE=MSDC-IR
##SPECTROMETER/DATA SYSTEM=HP-GC/MS/IRD
##STATE=gas
##XUNITS=1/CM
##YUNITS=ABSORBANCE
##XFACTOR=1.0
##YFACTOR=0.000006200
##DELTAX=4.0
##FIRSTX=550.0
##LASTX=3846.0
##FIRSTY=0.002058
##MAXX=3846
##MINX=550
##MAXY=0.062
##MINY=0
##NPOINTS=825
##XYDATA=(X++(Y..Y))
550.0 332 238 197 302 443 627 817 1013 1322 1835
590.0 2480 2954 2915 2344 1604 1050 744 622 643 764
630.0 953 1134 1322 1761 2708 4215 5871 6717 6037 4325
670.0 2728 1756 1265 1028 908 827 735 621 510 412
710.0 336 292 265 255 277 323 358 333 283 258
750.0 269 309 360 429 487 537 620 751 954 1239
790.0 1594 2014 2441 2802 3130 3463 3797 4065 4116 3879
830.0 3354 2677 2032 1518 1130 829 597 427 299 214
870.0 167 125 85 69 70 74 74 72 61 44
910.0 21 2 3 9 18 36 66 109 164 226
950.0 282 338 384 444 539 684 920 1244 1587 1820
990.0 1840 1706 1601 1696 2040 2646 3543 4753 6242 7845
1030.0 9226 10000 9920 9186 8224 7358 6613 5806 4868 3876
1070.0 3018 2378 1911 1567 1340 1186 1079 999 933 898
1110.0 857 806 754 702 658 621 609 608 626 658
1150.0 695 722 753 818 904 1022 1138 1209 1224 1173
1190.0 1093 1049 1046 1073 1162 1304 1507 1810 2251 2878
1230.0 3705 4733 5875 6857 7348 7159 6473 5739 5349 5431
1270.0 5896 6517 6921 6767 6069 5179 4431 3914 3576 3318
1310.0 3063 2802 2599 2491 2407 2230 1915 1521 1167 908
1350.0 743 636 556 488 431 381 338 312 299 296
1390.0 311 343 397 478 567 642 673 652 597 556
1430.0 583 719 916 1026 982 887 839 843 858 821
1470.0 716 579 463 376 313 270 234 210 195 182
1510.0 174 172 173 179 188 203 225 256 290 348
1550.0 431 533 646 790 1016 1405 2069 3222 5101 7678
1590.0 9883 9910 7304 4006 1972 1129 759 586 494 440
1630.0 403 375 348 315 283 257 246 248 264 290
1670.0 329 392 480 591 734 924 1190 1565 2101 2826
1710.0 3790 5009 6481 8031 9208 9465 8522 6756 4863 3328
1750.0 2262 1552 1078 760 545 405 318 255 207 177
1790.0 157 143 136 129 133 134 138 144 152 156
1830.0 164 174 184 191 198 203 208 205 196 187
1870.0 175 167 154 141 125 112 107 101 101 97
1910.0 97 102 103 107 111 110 105 97 88 74
1950.0 60 50 41 37 34 31 28 29 30 30
1990.0 31 30 34 35 34 39 47 57 66 81
2030.0 102 118 135 145 148 145 137 130 130 152
2070.0 175 170 137 92 53 28 17 11 7 7
2110.0 8 9 6 2 6 7 1 5 10 13
2150.0 20 24 28 36 42 46 51 58 65 74
2190.0 82 81 81 88 98 107 115 122 125 123
2230.0 121 123 114 91 68 53 36 26 26 23
2270.0 15 11 11 8 5 4 3 4 3 1
2310.0 4 7 10 9 9 11 8 12 15 8
2350.0 11 24 26 25 23 17 11 9 3 0
2390.0 0 0 0 0 3 2 1 8 8 5
2430.0 6 7 11 13 12 13 12 11 12 11
2470.0 4 3 8 9 10 6 2 5 5 3
2510.0 4 6 8 3 3 8 9 13 12 8
2550.0 13 15 10 7 6 11 8 7 7 8
2590.0 11 13 19 20 16 14 10 10 9 9
2630.0 11 14 17 15 16 20 15 10 13 11
2670.0 7 10 10 11 11 8 5 6 10 12
2710.0 13 17 18 16 13 7 4 3 3 2
2750.0 3 4 3 3 8 14 19 20 19 21
2790.0 28 34 38 45 55 66 85 110 132 160
2830.0 194 234 300 406 563 736 803 720 561 422
2870.0 343 303 284 283 288 304 332 366 397 432
2910.0 454 462 466 475 497 549 649 815 1089 1517
2950.0 2118 2692 2838 2415 1738 1195 891 746 690 682
2990.0 710 757 795 793 767 751 735 724 713 696
3030.0 681 650 585 498 415 347 296 265 239 221
3070.0 215 211 203 190 181 167 155 147 136 120
3110.0 112 106 99 99 95 81 77 72 60 55
3150.0 56 53 47 52 52 54 44 37 32 20
3190.0 18 19 13 9 6 10 13 6 6 7
3230.0 13 20 15 12 11 9 12 14 6 2
3270.0 2 7 13 6 1 9 6 4 5 5
3310.0 13 13 15 22 22 16 8 7 8 7
3350.0 6 9 15 22 23 21 21 24 30 31
3390.0 28 28 27 31 40 59 66 69 80 93
3430.0 102 111 114 111 105 94 87 83 75 64
3470.0 56 54 53 45 37 36 33 28 24 19
3510.0 13 17 26 26 23 24 17 19 19 22
3550.0 30 22 16 24 27 23 23 24 27 30
3590.0 28 23 23 29 32 28 29 26 24 26
3630.0 19 17 21 17 15 23 21 17 20 18
3670.0 16 12 19 28 24 17 13 6 12 25
3710.0 21 16 19 21 14 17 14 11 18 19
3750.0 21 25 21 18 13 10 16 16 17 25
3790.0 25 19 17 18 20 23 19 18 16 10
3830.0 18 26 21 17 14
##END=
