##TITLE=N-(5-Bromopentyl)phthalimide
##JCAMP-DX=4.24
##DATA TYPE=INFRARED SPECTRUM
##ORIGIN=EPA-IR VAPOR PHASE LIBRARY
##OWNER=SRD/NIST
Collection (C) 2018 copyright by the U.S. Secretary of Commerce
on behalf of the United States of America. All rights reserved.
##CAS REGISTRY NO=954-81-4
##MOLFORM=C 13 H 14 Br N O 2
##$NIST SOURCE=MSDC-IR
##STATE=gas
##XUNITS=1/CM
##YUNITS=ABSORBANCE
##XFACTOR=1.
##YFACTOR=0.001
##DELTAX=1.92898
##FIRSTX=549.8
##LASTX=4000.7
##FIRSTY=9.069
##MAXX=4000.7
##MINX=549.759
##MAXY=0.535039
##MINY=0
##NPOINTS=1790
##XYDATA=(X++(Y..Y))
549.759 9.069 8.429 7.909 7.359 6.679 6.289 6.329 6.329 6.319 6.289
569.049 6.309 6.489 6.569 6.089 5.149 4.629 4.149 3.609 3.069 2.669
588.339 2.739 2.759 2.739 2.909 3.179 3.369 3.569 3.859 3.989 4.269
607.628 4.459 4.619 5.419 6.359 7.039 7.509 7.569 6.919 5.979 5.189
626.918 4.559 4.059 3.729 3.649 3.889 4.289 4.759 5.399 5.969 6.579
646.208 7.189 7.679 8.109 8.199 7.929 7.499 6.969 6.149 5.269 4.589
665.498 4.019 3.529 3.109 2.769 2.669 2.799 2.999 3.159 3.319 3.749
684.787 4.609 5.619 6.869 8.349 9.589 10.799 12.129 13.689 15.979 19.209
704.077 23.769 30.459 40.179 54.299 73.379 93.449 107.559 111.029 102.209 83.859
723.367 63.949 48.429 37.449 29.889 24.799 21.469 19.329 17.619 16.229 15.029
742.657 13.999 13.019 11.799 10.719 9.829 8.949 8.209 7.549 6.969 6.449
761.947 6.179 6.069 5.809 5.559 5.539 5.419 5.389 5.469 5.779 6.139
781.236 6.489 7.199 7.869 8.089 7.759 6.989 5.959 4.949 4.149 3.499
800.526 3.159 3.089 2.959 2.839 2.869 2.799 2.619 2.729 2.819 2.799
819.816 2.819 3.089 3.189 2.969 2.859 2.939 3.019 3.049 3.019 2.849
839.106 2.879 2.979 3.139 3.189 3.299 3.599 3.929 4.339 4.689 5.159
858.395 5.759 6.489 7.289 7.939 8.569 9.149 9.439 9.619 9.879 9.809
877.685 9.609 9.409 9.139 9.049 8.879 8.499 8.219 8.179 8.129 7.909
896.975 7.809 7.729 7.769 8.099 8.269 8.609 9.129 9.619 10.249 10.679
916.265 10.999 11.359 11.789 12.179 12.589 12.939 12.969 13.039 13.129 13.059
935.555 13.229 13.479 13.519 13.379 13.249 13.189 12.979 12.729 12.579 12.379
954.844 11.899 11.509 11.189 10.639 10.129 9.839 9.559 9.179 9.059 9.019
974.134 8.739 8.549 8.549 8.279 8.029 8.089 8.019 7.979 8.169 8.219
993.424 8.519 9.039 9.449 10.129 11.009 11.849 12.709 13.689 14.579 15.619
1012.714 17.029 18.429 20.039 22.129 24.689 27.419 30.079 32.499 34.429 35.829
1032.003 36.729 36.989 36.129 34.929 33.409 31.469 29.559 27.409 25.249 23.589
1051.293 21.979 20.419 19.249 18.459 17.779 17.389 17.269 16.819 16.629 16.839
1070.583 16.619 16.349 16.219 16.499 16.769 16.829 17.489 17.629 17.529 17.709
1089.873 17.599 17.189 16.639 15.979 15.679 15.669 15.469 15.399 15.209 14.859
1109.163 14.349 13.389 12.209 11.259 10.679 10.029 9.529 9.029 8.279 7.519
1128.452 6.839 6.559 6.449 6.259 6.159 5.859 5.709 5.889 5.639 5.589
1147.742 6.179 6.879 7.979 9.369 10.279 10.329 10.369 10.309 10.109 10.559
1167.032 11.519 12.709 13.849 14.939 16.149 17.289 18.199 19.229 20.389 21.149
1186.322 21.099 20.229 18.999 17.689 16.529 15.489 15.299 15.629 15.759 16.439
1205.611 16.889 17.009 17.209 17.369 16.719 15.579 14.799 13.939 13.139 12.739
1224.901 12.999 13.429 13.579 13.929 14.819 16.009 16.979 17.979 19.029 19.819
1244.191 20.439 20.789 20.949 20.889 20.859 20.859 20.799 20.719 20.609 20.349
1263.481 20.119 19.809 19.199 18.389 17.489 16.889 16.589 16.539 16.849 17.409
1282.771 18.169 19.199 20.359 21.579 22.819 23.989 25.059 25.959 26.729 27.389
1302.060 28.039 28.829 29.679 30.609 31.769 33.189 34.859 36.829 39.059 41.529
1321.350 44.019 46.319 48.299 49.929 51.479 53.259 55.499 58.349 62.029 66.669
1340.640 72.399 79.109 86.919 95.999 106.129 116.829 127.719 138.339 148.239 157.259
1359.930 164.969 170.739 173.869 173.989 170.779 164.229 155.019 143.929 132.299 121.999
1379.219 114.879 112.529 115.779 124.039 135.309 146.489 153.569 153.889 146.729 133.729
1398.509 117.839 102.189 88.859 77.689 68.209 59.819 52.199 45.499 39.909 35.199
1417.799 31.459 28.679 26.779 25.579 25.129 25.449 26.559 28.499 31.429 35.179
1437.089 39.679 44.309 48.059 50.159 50.209 48.239 44.759 40.749 37.049 34.209
1456.378 32.079 30.529 29.439 28.649 28.209 27.769 26.939 25.369 22.829 19.589
1475.668 16.289 13.319 11.029 9.369 8.189 7.399 6.789 6.279 5.959 5.689
1494.958 5.379 5.119 4.989 4.819 4.659 4.529 4.429 4.399 4.399 4.389
1514.248 4.379 4.429 4.529 4.589 4.509 4.449 4.399 4.309 4.209 4.119
1533.538 4.029 3.999 3.999 3.909 3.819 3.809 3.799 3.809 3.849 3.929
1552.827 3.939 3.919 4.029 4.069 4.089 4.209 4.239 4.289 4.379 4.519
1572.117 4.689 4.779 4.909 5.029 5.119 5.289 5.529 5.879 6.319 6.709
1591.407 6.959 7.139 7.319 7.449 7.669 7.979 8.359 8.869 9.379 9.809
1610.697 10.029 9.999 9.739 9.159 8.399 7.559 6.719 6.039 5.529 5.069
1629.986 4.719 4.469 4.329 4.169 4.049 4.049 4.059 4.029 3.969 3.999
1649.276 4.089 4.189 4.289 4.479 4.699 4.839 4.989 5.259 5.619 5.979
1668.566 6.389 6.849 7.269 7.749 8.389 9.049 9.899 10.869 12.019 13.459
1687.856 15.139 17.189 19.719 22.539 25.959 29.999 34.289 39.139 44.139 49.689
1707.146 56.099 63.699 73.219 85.709 102.699 126.019 158.379 200.589 254.699 319.679
1726.435 390.769 458.599 510.929 535.039 525.639 486.069 422.029 343.379 268.039 204.299
1745.725 155.529 120.389 95.779 78.139 65.359 56.049 48.999 43.929 40.499 38.389
1765.015 37.509 37.689 38.989 41.379 44.969 49.899 56.119 63.209 69.999 74.609
1784.305 74.969 70.469 61.899 51.179 40.769 32.279 26.049 21.539 18.219 15.709
1803.594 13.909 12.469 11.329 10.379 9.499 8.769 8.179 7.719 7.319 6.979
1822.884 6.719 6.509 6.419 6.359 6.319 6.309 6.299 6.289 6.239 6.109
1842.174 5.959 5.709 5.389 5.019 4.659 4.349 4.139 3.989 3.859 3.829
1861.464 3.859 3.909 3.999 4.079 4.089 4.119 4.089 3.979 3.789 3.569
1880.754 3.399 3.229 3.129 3.039 2.969 2.969 2.979 3.009 3.009 2.999
1900.043 3.059 3.089 3.169 3.269 3.299 3.329 3.299 3.199 3.079 2.939
1919.333 2.839 2.779 2.739 2.739 2.809 2.979 3.119 3.259 3.429 3.499
1938.623 3.529 3.499 3.329 3.059 2.779 2.499 2.309 2.119 1.959 1.969
1957.913 2.039 2.119 2.229 2.449 2.689 2.859 2.959 2.939 2.799 2.549
1977.202 2.199 1.919 1.749 1.559 1.429 1.359 1.289 1.209 1.1853 1.219
1996.492 1.239 1.239 1.229 1.1843 1.175 1.209 1.1916 1.1369 1.1032 1.1153
2015.782 1.1137 1.0854 1.0759 1.0636 1.0129 0.9877 0.9965 1.0164 1.0242 1.0577
2035.072 1.1289 1.1502 1.1372 1.1082 1.1131 1.1372 1.1398 1.1945 1.191 1.1338
2054.362 1.1583 1.239 1.219 1.1119 1.1032 1.0262 0.9851 1.0515 1.0697 1.0255
2073.651 0.998 1.0311 1.0411 1.0659 1.0451 1.0588 1.0528 1.0213 1.0672 1.0215
2092.941 1.0208 1.0498 1.0094 0.9663 0.9064 0.8704 0.9199 0.9522 0.9492 0.9569
2112.231 0.9413 0.9287 0.9498 0.9255 0.9029 0.9329 0.9197 0.9153 0.9532 0.9623
2131.521 0.9875 1.0282 1.017 1.0185 1.0288 1.0532 1.0755 1.0485 1.0848 1.0766
2150.810 1.0495 1.077 1.0714 1.0818 1.0361 1.0346 1.1122 1.0357 0.9719 0.9962
2170.100 0.959 0.9737 1.0259 1.0034 0.9548 0.9365 0.9477 0.9708 0.9785 0.9815
2189.390 0.9324 0.9164 0.9302 0.8459 0.848 0.8912 0.8648 0.8575 0.8643 0.843
2208.680 0.7759 0.7441 0.7296 0.8 0.8595 0.8653 0.8851 0.8595 0.8575 0.8531
2227.970 0.8316 0.854 0.9079 0.9128 0.9698 1.0774 1.0764 1.1183 1.1971 1.279
2247.259 1.339 1.319 1.339 1.329 1.249 1.249 1.259 1.1716 1.1341 1.1432
2266.549 1.1365 1.109 1.0931 1.1613 1.103 1.0537 1.0834 1.0467 1.0317 1.0761
2285.839 1.1404 1.1858 1.195 1.1812 1.1973 1.1774 1.1932 1.1853 1.154 1.209
2305.129 1.279 1.309 1.309 1.329 1.419 1.589 1.639 1.609 1.629 1.589
2324.418 1.509 1.459 1.449 1.509 1.499 1.479 1.489 1.449 1.349 1.299
2343.708 1.319 1.289 1.239 1.239 1.259 1.259 1.319 1.249 1.0795 1.1135
2362.998 1.1572 1.1393 1.1766 1.1679 1.1435 1.1527 1.269 1.289 1.1819 1.199
2382.288 1.269 1.249 1.199 1.1508 1.1122 1.1707 1.219 1.1838 1.1417 1.1843
2401.578 1.229 1.229 1.199 1.209 1.229 1.1672 1.209 1.319 1.359 1.419
2420.867 1.429 1.369 1.349 1.369 1.389 1.389 1.379 1.419 1.449 1.439
2440.157 1.459 1.439 1.329 1.269 1.279 1.289 1.299 1.289 1.259 1.199
2459.447 1.219 1.209 1.095 1.1123 1.1659 1.1487 1.1085 1.1412 1.1577 1.116
2478.737 1.0981 1.0782 1.0409 1.0715 1.1069 1.0608 1.0031 0.9751 0.9666 0.9317
2498.026 0.9367 0.9096 0.8878 0.9139 0.9436 0.9447 0.8926 0.8531 0.7772 0.6927
2517.316 0.7154 0.7542 0.7219 0.6786 0.6652 0.6945 0.7179 0.6944 0.6678 0.6831
2536.606 0.7158 0.6726 0.6566 0.7242 0.7823 0.7658 0.6808 0.5633 0.5678 0.6015
2555.896 0.6103 0.6324 0.5857 0.6066 0.6432 0.6048 0.5483 0.5879 0.599 0.5595
2575.186 0.5708 0.5696 0.5884 0.5364 0.5221 0.5878 0.5752 0.5372 0.5223 0.5097
2594.475 0.468 0.4539 0.5184 0.5635 0.5008 0.5211 0.6748 0.7458 0.6709 0.6199
2613.765 0.6824 0.7285 0.8232 0.9194 0.9493 0.9511 0.9265 0.8996 0.9462 1.0193
2633.055 1.0611 1.0652 1.0765 1.1703 1.1622 1.1104 1.1491 1.1386 1.0861 1.1003
2652.345 1.1038 1.0673 1.0022 1.0505 1.1071 1.1731 1.199 1.1308 1.1187 1.0788
2671.634 1.1249 1.249 1.309 1.349 1.439 1.489 1.439 1.449 1.529 1.529
2690.924 1.559 1.619 1.649 1.689 1.719 1.679 1.599 1.519 1.469 1.429
2710.214 1.339 1.259 1.1918 1.1571 1.0922 1.0743 1.0934 1.0958 1.0958 1.0872
2729.504 1.0933 1.07 1.0743 1.0535 1.0131 1.0372 1.0819 1.0736 1.0305 1.1289
2748.794 1.219 1.133 1.0834 1.1222 1.1866 1.1876 1.219 1.279 1.319 1.389
2768.083 1.459 1.469 1.499 1.659 1.689 1.709 1.849 1.979 2.029 1.939
2787.373 1.889 1.849 1.849 1.789 1.769 1.819 1.859 1.919 1.919 1.909
2806.663 1.969 2.029 2.059 2.149 2.249 2.259 2.329 2.399 2.529 2.739
2825.953 2.909 3.099 3.339 3.539 3.739 4.049 4.389 4.779 5.309 5.899
2845.242 6.429 7.069 7.719 8.159 8.759 9.449 10.109 11.069 12.249 13.619
2864.532 15.139 16.539 17.669 18.449 18.719 18.439 17.829 17.019 16.019 15.109
2883.822 14.319 13.559 13.039 12.799 12.809 12.899 13.149 13.589 14.009 14.369
2903.112 14.749 15.109 15.429 15.869 16.469 17.269 18.259 19.489 21.119 22.949
2922.401 24.979 27.249 29.539 31.879 34.319 36.739 39.299 42.289 45.629 49.409
2941.691 53.469 57.099 59.759 60.989 60.429 57.909 53.839 48.729 43.319 38.529
2960.981 34.659 31.779 29.939 28.839 28.289 27.709 26.689 25.239 23.439 21.579
2980.271 19.499 17.379 15.339 13.379 11.619 10.079 8.829 7.899 7.189 6.699
2999.561 6.479 6.389 6.539 6.939 7.539 8.169 8.679 9.039 8.919 8.319
3018.850 7.389 6.239 5.259 4.539 4.009 3.749 3.699 3.599 3.619 3.779
3038.140 3.949 4.229 4.439 4.589 4.899 5.299 5.639 5.979 6.539 7.139
3057.430 7.819 8.599 9.209 9.469 9.429 8.969 8.449 8.199 8.229 8.709
3076.720 9.369 10.249 11.309 12.209 13.039 13.649 13.679 12.869 11.489 9.799
3096.009 7.899 6.229 4.959 4.069 3.409 2.799 2.239 1.819 1.589 1.329
3115.299 0.996 0.8722 0.8351 0.783 0.7557 0.7028 0.5888 0.5764 0.524 0.4442
3134.589 0.5021 0.5069 0.5229 0.5593 0.5059 0.3912 0.2182 0.1844 0.3462 0.4144
3153.879 0.3597 0.4227 0.4375 0.4332 0.4816 0.4822 0.5689 0.6433 0.623 0.5615
3173.169 0.5639 0.3295 0.158 0.27449 0.399 0.4615 0.4665 0.4895 0.4716 0.4463
3192.458 0.4047 0.4313 0.5154 0.5115 0.5677 0.6512 0.6262 0.6831 0.7269 0.7656
3211.748 0.8024 0.7915 0.7603 0.6927 0.6356 0.6488 0.5462 0.4922 0.5997 0.5704
3231.038 0.4516 0.3763 0.4507 0.449 0.26687 0.19611 0.3007 0.22433 0.1144 0.1457
3250.328 0.27527 0.4067 0.329 0.3551 0.3518 0.2739 0.3098 0.3625 0.205354 0.208472
3269.617 0.3786 0.3336 0.21073 0.21041 0.3053 0.187 0.19304 0.25935 0.2228 0.23584
3288.907 0.1601 0.1651 0.23659 0.17 0.1379 0.204535 0.22462 0.23789 0.28178 0.29225
3308.197 0.29217 0.24612 0.2884 0.25657 0.1868 0.1732 0.1486 0.23583 0.1692 0.069
3327.487 0.1369 0.20957 0.19355 0.1789 0.1059 0.1421 0.2632 0.25116 0.28653 0.3159
3346.777 0.3825 0.3713 0.23751 0.201829 0.1798 0.1525 0.1274 0.137 0.21521 0.1271
3366.066 0.064 0.1672 0.1694 0.157 0.25258 0.208568 0.1007 0.1546 0.22654 0.21749
3385.356 0.21479 0.25921 0.3177 0.3999 0.3317 0.3459 0.4005 0.4023 0.5427 0.4752
3404.646 0.4508 0.3679 0.27615 0.4532 0.4579 0.4315 0.5329 0.4717 0.3374 0.4045
3423.936 0.4742 0.5276 0.7338 0.7692 0.6435 0.6069 0.6557 0.7585 0.8165 0.8538
3443.225 0.9256 1.1433 1.299 1.269 1.439 1.659 1.649 1.759 1.829 1.799
3462.515 1.849 1.789 1.829 1.949 1.809 1.809 2.119 2.309 2.499 2.729
3481.805 2.849 3.069 3.449 3.829 4.249 4.629 4.949 5.359 5.679 5.729
3501.095 5.479 5.049 4.669 4.289 3.849 3.349 2.769 2.329 1.949 1.639
3520.385 1.459 1.389 1.209 1.0823 1.0896 0.9889 0.8527 0.8329 0.8169 0.7842
3539.674 0.8096 0.8374 0.8103 0.7483 0.739 0.652 0.6561 0.751 0.8228 0.7953
3558.964 0.7145 0.6437 0.5949 0.5579 0.5481 0.5268 0.5062 0.6393 0.5627 0.4701
3578.254 0.5387 0.411 0.4333 0.5611 0.4948 0.4114 0.3455 0.3699 0.4548 0.5076
3597.544 0.5336 0.476 0.28238 0.3407 0.3988 0.23551 0.22535 0.29675 0.3498 0.25448
3616.833 0.201764 0.3267 0.4851 0.4567 0.3667 0.2591 0.1528 0.19271 0.26474 0.24935
3636.123 0.344 0.4731 0.3561 0.3333 0.4055 0.3832 0.28155 0.19703 0.205213 0.3137
3655.413 0.392 0.3242 0.25449 0.3379 0.3733 0.29244 0.200886 0.079 0.1233 0.086
3674.703 0 0.1295 0.22386 0.25283 0.25401 0.28743 0.24801 0.1635 0.28598 0.3325
3693.993 0.25687 0.28039 0.3156 0.3291 0.3307 0.3493 0.3611 0.28799 0.24292 0.23377
3713.282 0.1561 0.1591 0.22002 0.2106 0.2638 0.26163 0.2999 0.3617 0.3476 0.3666
3732.572 0.3546 0.4106 0.3913 0.3323 0.4504 0.4277 0.29196 0.311 0.3858 0.3498
3751.862 0.26177 0.3918 0.4465 0.27097 0.21811 0.29652 0.3169 0.4178 0.3833 0.29868
3771.152 0.3184 0.27412 0.4084 0.5072 0.3976 0.4723 0.5001 0.4447 0.4269 0.3594
3790.441 0.3922 0.5614 0.5714 0.4283 0.4063 0.3018 0.3397 0.4438 0.3319 0.3089
3809.731 0.3451 0.3196 0.25613 0.156 0.1197 0.1168 0.203313 0.1884 0.092 0.1612
3829.021 0.1116 0.083 0.2103 0.3354 0.374 0.27206 0.201512 0.326 0.28242 0.29409
3848.311 0.3711 0.3074 0.19285 0.028 0.1236 0.3346 0.4273 0.4421 0.3139 0.1583
3867.601 0.25635 0.3755 0.28891 0.26341 0.3324 0.3007 0.27611 0.19295 0.1736 0.29319
3886.890 0.3217 0.2691 0.29714 0.26172 0.22041 0.318 0.27093 0.24727 0.23006 0.2588
3906.180 0.3442 0.3032 0.3865 0.4015 0.319 0.3665 0.4312 0.3861 0.3516 0.3919
3925.470 0.3089 0.22923 0.3469 0.3667 0.3152 0.3398 0.3008 0.21677 0.3248 0.4159
3944.760 0.515 0.5779 0.4759 0.4114 0.3486 0.29769 0.3973 0.5443 0.5745 0.5253
3964.049 0.3382 0.3638 0.5309 0.6335 0.6426 0.5292 0.5112 0.578 0.5988 0.4774
3983.339 0.3923 0.3911 0.3838 0.4541 0.4202 0.29095 0.2283 0.24953 0.27138 0.3127
##END=
