##TITLE=Diphenamid
##JCAMP-DX=4.24
##DATA TYPE=INFRARED SPECTRUM
##ORIGIN=NIST Mass Spectrometry Data Center
##OWNER=NIST Standard Reference Data Program
Collection (C) 2018 copyright by the U.S. Secretary of Commerce
on behalf of the United States of America. All rights reserved.
##CAS REGISTRY NO=957-51-7
##MOLFORM=C 16 H 17 N O
##$NIST SOURCE=MSDC-IR
##SPECTROMETER/DATA SYSTEM=HP-GC/MS/IRD
##STATE=gas
##XUNITS=1/CM
##YUNITS=ABSORBANCE
##XFACTOR=1.0
##YFACTOR=0.000006000
##DELTAX=4.0
##FIRSTX=550.0
##LASTX=3846.0
##FIRSTY=0.001050
##MAXX=3846
##MINX=550
##MAXY=0.06
##MINY=0
##NPOINTS=825
##XYDATA=(X++(Y..Y))
550.0 175 198 289 381 333 220 102 45 30 15
590.0 17 38 53 73 159 328 527 774 1057 1190
630.0 1051 721 419 286 255 232 212 234 303 415
670.0 544 662 796 1028 1468 2138 2805 3083 2858 2367
710.0 1939 1693 1484 1278 1149 1178 1402 1725 1908 1763
750.0 1341 864 514 318 206 139 109 98 80 56
790.0 48 36 20 18 16 21 12 0 6 16
830.0 19 23 25 27 38 42 37 38 32 36
870.0 61 77 83 79 53 25 17 22 32 59
910.0 84 95 72 41 38 34 32 38 50 55
950.0 78 109 155 209 218 187 144 110 84 81
990.0 99 118 143 168 174 162 161 207 312 530
1030.0 750 779 654 505 452 454 454 451 473 526
1070.0 601 687 738 767 822 936 1092 1301 1587 1932
1110.0 2326 2692 2939 2983 2805 2481 2114 1764 1482 1263
1150.0 1071 929 838 754 668 609 580 585 600 611
1190.0 590 533 476 425 385 354 333 324 339 363
1230.0 400 446 502 581 678 798 956 1102 1183 1169
1270.0 1077 947 817 708 620 551 498 453 426 424
1310.0 431 455 487 519 554 598 656 728 810 916
1350.0 1056 1238 1477 1794 2216 2747 3350 3927 4304 4316
1390.0 3943 3337 2721 2238 1904 1662 1440 1235 1065 954
1430.0 908 942 1080 1351 1715 2045 2183 2099 1921 1757
1470.0 1647 1579 1549 1592 1773 2125 2416 2339 1869 1307
1510.0 949 790 710 659 622 595 573 549 524 504
1550.0 486 466 455 454 459 481 514 573 654 742
1590.0 837 938 990 939 782 594 455 387 372 392
1630.0 445 533 654 786 941 1144 1431 1844 2460 3452
1670.0 5088 7365 9539 10000 8190 5510 3350 2122 1495 1132
1710.0 885 701 556 447 366 304 265 244 235 228
1750.0 213 194 179 170 165 164 171 180 187 203
1790.0 216 217 212 196 174 150 128 109 97 87
1830.0 78 70 61 53 50 53 57 61 70 87
1870.0 106 121 125 123 125 123 115 94 73 58
1910.0 56 63 71 82 101 123 151 169 175 180
1950.0 178 162 133 96 62 45 35 25 22 23
1990.0 22 20 20 16 13 13 14 15 14 16
2030.0 15 15 15 12 11 12 9 5 7 9
2070.0 9 10 11 10 11 12 12 12 14 13
2110.0 14 14 9 5 5 5 3 5 3 0
2150.0 1 6 6 5 8 11 8 7 8 9
2190.0 10 9 12 16 13 12 14 16 18 17
2230.0 21 18 12 9 9 5 4 7 6 3
2270.0 3 2 3 2 0 2 7 9 7 13
2310.0 24 27 24 24 22 16 15 15 16 18
2350.0 18 15 15 17 15 12 10 9 11 11
2390.0 9 8 10 11 7 11 14 10 10 10
2430.0 10 8 11 12 11 12 10 8 6 7
2470.0 8 11 11 12 15 14 14 18 20 20
2510.0 22 22 22 25 27 25 20 24 23 18
2550.0 15 14 19 23 27 25 25 29 34 33
2590.0 32 29 32 38 34 28 27 27 29 30
2630.0 33 34 30 29 28 28 26 26 24 23
2670.0 28 25 23 21 26 27 25 27 29 32
2710.0 35 39 42 42 42 45 54 59 58 61
2750.0 66 72 82 88 97 106 116 130 146 164
2790.0 184 208 235 268 304 337 362 381 401 425
2830.0 446 461 474 491 519 563 625 695 762 819
2870.0 867 911 944 982 1029 1078 1128 1193 1271 1346
2910.0 1426 1526 1635 1755 1881 1979 2036 2038 1979 1848
2950.0 1660 1456 1264 1098 961 857 774 708 653 613
2990.0 591 594 628 684 750 834 961 1176 1484 1818
3030.0 2033 2004 1783 1533 1370 1332 1416 1638 2038 2504
3070.0 2725 2503 1982 1517 1287 1172 1024 846 686 568
3110.0 478 382 285 215 172 145 124 110 97 88
3150.0 84 90 93 90 82 66 56 49 46 45
3190.0 41 36 29 30 27 21 20 15 18 21
3230.0 25 23 20 19 19 22 25 15 12 23
3270.0 22 23 32 34 28 23 18 12 15 24
3310.0 33 34 35 45 47 51 63 78 90 94
3350.0 87 70 60 56 47 37 33 27 24 22
3390.0 21 21 21 15 12 11 9 20 24 18
3430.0 23 30 21 13 17 21 21 27 24 19
3470.0 15 1 5 12 10 15 15 13 19 23
3510.0 23 21 13 6 13 16 17 18 13 11
3550.0 18 14 14 14 13 18 23 23 15 12
3590.0 19 27 28 21 22 27 25 22 29 38
3630.0 37 33 28 34 43 39 33 30 32 32
3670.0 21 23 34 33 27 22 18 17 26 32
3710.0 30 33 32 29 26 15 16 32 31 28
3750.0 35 42 29 17 26 27 27 27 26 27
3790.0 26 30 29 25 21 18 28 29 29 29
3830.0 31 33 24 25 23
##END=
