##TITLE=2,6-Difluorobutyrophenone
##JCAMP-DX=4.24
##DATA TYPE=INFRARED SPECTRUM
##ORIGIN=EPA-IR VAPOR PHASE LIBRARY
##OWNER=SRD/NIST
Collection (C) 2018 copyright by the U.S. Secretary of Commerce
on behalf of the United States of America. All rights reserved.
##CAS REGISTRY NO=95727-77-8
##MOLFORM=C 10 H 10 F 2 O
##$NIST SOURCE=MSDC-IR
##STATE=gas
##XUNITS=1/CM
##YUNITS=ABSORBANCE
##XFACTOR=1.
##YFACTOR=0.001
##DELTAX=1.92898
##FIRSTX=549.8
##LASTX=4000.7
##FIRSTY=8.781
##MAXX=4000.7
##MINX=549.759
##MAXY=0.216631
##MINY=0
##NPOINTS=1790
##XYDATA=(X++(Y..Y))
549.759 8.781 7.551 7.001 6.521 6.181 6.241 6.291 6.731 7.941 9.681
569.049 11.871 13.731 15.731 17.881 19.661 20.601 20.831 20.421 18.621 16.781
588.339 14.801 12.641 10.791 8.671 7.361 6.541 5.461 4.721 4.211 3.941
607.628 3.881 3.381 3.181 3.081 2.591 2.461 2.201 2.101 2.061 2.031
626.918 2.121 2.291 2.461 2.601 2.911 2.891 2.891 3.011 2.961 2.851
646.208 2.881 2.971 2.761 2.641 2.731 2.581 2.571 2.741 2.811 3.101
665.498 3.281 3.191 3.181 3.281 3.171 3.121 3.221 3.251 3.701 4.071
684.787 4.191 4.691 5.101 5.361 5.711 6.121 7.031 8.201 9.381 10.741
704.077 12.271 14.061 16.341 18.571 20.491 22.491 24.251 25.301 25.411 24.731
723.367 23.581 22.471 21.671 20.961 20.151 19.081 17.881 16.931 15.971 14.861
742.657 14.191 13.391 12.341 11.511 10.911 10.581 10.191 9.941 10.091 10.471
761.947 11.071 12.121 13.971 16.791 20.781 26.481 33.401 41.131 49.101 57.421
781.236 66.621 76.661 83.911 81.601 73.331 66.191 59.641 52.251 44.351 37.041
800.526 30.791 25.981 22.751 20.621 19.001 17.991 17.201 16.601 16.121 15.541
819.816 15.121 14.561 13.991 13.421 12.811 11.721 10.751 10.111 8.881 7.851
839.106 7.221 6.651 6.351 6.131 5.881 5.831 5.781 5.681 5.831 5.701
858.395 5.571 5.731 5.751 5.641 5.401 5.201 5.151 5.291 5.571 5.881
877.685 6.321 6.841 7.451 8.341 9.361 10.601 11.601 12.301 12.611 12.521
896.975 12.051 11.291 10.211 9.151 8.141 7.211 6.301 5.341 4.991 4.551
916.265 4.211 4.391 4.291 4.181 4.151 4.051 4.151 4.231 4.411 4.671
935.555 4.891 5.351 5.681 6.201 6.911 7.531 8.111 8.901 10.231 11.501
954.844 12.971 14.551 16.451 18.451 20.311 22.901 26.101 29.761 34.181 39.241
974.134 45.091 51.321 57.521 64.291 71.061 77.371 83.841 89.901 95.331 100.621
993.424 105.041 108.811 112.591 115.971 118.081 119.771 120.361 119.321 117.241 113.591
1012.714 108.511 102.101 94.311 85.291 75.671 66.131 56.961 48.331 41.251 35.771
1032.003 31.441 28.061 25.471 23.701 22.521 21.521 20.731 19.811 18.691 17.771
1051.293 16.981 16.531 15.811 14.801 14.071 14.061 14.101 13.961 14.071 13.961
1070.583 14.001 14.471 14.511 14.231 14.181 14.101 13.861 13.721 13.181 12.711
1089.873 12.441 11.751 11.211 10.881 10.701 10.271 10.121 10.361 10.191 9.511
1109.163 8.541 8.211 8.251 7.391 6.701 5.881 5.131 5.201 4.861 4.581
1128.452 4.891 4.921 4.441 4.311 4.651 4.351 3.871 3.921 4.481 4.811
1147.742 5.071 5.601 5.891 6.401 7.361 8.361 9.301 10.411 11.731 12.951
1167.032 14.421 15.701 16.641 17.661 19.031 20.951 22.471 24.741 27.761 31.071
1186.322 35.171 40.001 45.151 50.131 54.481 58.201 60.971 62.061 62.041 60.221
1205.611 58.031 55.241 52.351 49.621 47.421 47.031 47.211 48.441 50.171 53.221
1224.901 58.271 64.561 71.561 78.451 83.801 87.011 87.981 87.241 85.631 81.931
1244.191 75.741 67.941 60.161 54.061 49.421 45.751 43.321 42.261 42.401 43.761
1263.481 47.101 52.571 60.161 70.101 81.681 93.671 104.331 111.941 115.771 115.711
1282.771 110.991 102.131 90.711 78.111 66.291 56.891 50.031 45.161 41.431 38.211
1302.060 35.541 32.961 30.071 27.201 24.511 22.021 19.791 18.071 16.741 15.671
1321.350 15.021 14.631 14.301 14.151 14.301 14.521 14.851 15.391 16.061 17.011
1340.640 18.271 19.611 21.161 22.871 24.681 26.461 27.951 29.161 29.971 30.221
1359.930 29.911 28.991 27.661 26.111 24.511 22.921 21.371 20.121 19.061 18.141
1379.219 17.421 16.791 16.281 15.901 15.451 15.061 14.681 14.261 14.011 13.891
1398.509 13.851 13.971 14.261 14.761 15.401 16.081 16.681 17.101 17.371 17.311
1417.799 17.231 17.291 17.431 17.671 18.241 19.011 19.871 20.911 22.151 23.781
1437.089 25.781 28.221 31.391 35.611 41.421 49.141 59.641 73.401 90.921 111.971
1456.378 136.151 162.051 186.151 205.371 215.781 216.631 209.711 194.771 170.261 139.871
1475.668 110.381 84.911 64.911 49.891 39.221 31.921 26.781 23.191 20.581 18.441
1494.958 16.771 15.491 14.391 13.381 12.631 11.951 11.341 10.891 10.551 10.261
1514.248 10.061 10.041 10.131 10.361 10.691 11.051 11.571 12.241 12.961 13.811
1533.538 14.821 15.941 17.021 18.061 19.241 20.141 20.931 21.771 22.461 23.141
1552.827 23.881 24.621 25.701 27.191 28.881 30.761 32.861 35.121 37.511 40.101
1572.117 42.821 45.781 49.121 52.781 56.541 60.381 64.231 67.591 70.041 71.751
1591.407 72.591 72.571 71.661 70.411 69.791 70.521 73.681 80.371 90.791 104.761
1610.697 121.011 137.761 152.461 162.891 167.231 164.221 154.341 138.911 119.521 98.001
1629.986 76.531 57.131 42.021 31.621 24.981 20.671 17.741 15.821 14.371 13.211
1649.276 12.371 11.901 11.481 11.231 11.121 11.091 11.101 11.091 11.241 11.511
1668.566 11.921 12.401 13.081 13.941 14.891 15.941 17.221 18.701 20.271 22.141
1687.856 24.291 26.541 29.321 32.751 36.631 41.141 46.371 52.701 60.031 68.881
1707.146 79.291 91.481 105.201 119.981 135.211 150.251 164.411 175.771 182.561 183.721
1726.435 179.411 170.441 157.181 140.941 122.771 104.931 88.791 74.231 61.921 51.701
1745.725 43.391 36.831 31.521 27.131 23.601 20.611 18.101 16.071 14.451 13.151
1765.015 12.061 11.091 10.321 9.661 8.981 8.331 7.691 7.191 6.791 6.461
1784.305 6.091 5.721 5.441 5.161 4.941 4.791 4.601 4.451 4.361 4.311
1803.594 4.261 4.131 4.011 3.931 3.871 3.871 3.941 3.981 4.051 4.211
1822.884 4.341 4.431 4.561 4.611 4.611 4.611 4.451 4.151 3.761 3.381
1842.174 3.051 2.701 2.431 2.271 2.131 2.031 1.971 1.901 1.861 1.801
1861.464 1.781 1.811 1.791 1.751 1.771 1.831 1.821 1.781 1.721 1.621
1880.754 1.521 1.551 1.571 1.581 1.541 1.531 1.591 1.621 1.681 1.841
1900.043 2.131 2.511 3.001 3.701 4.371 5.041 5.701 6.191 6.441 6.311
1919.333 5.931 5.371 4.631 3.811 3.021 2.361 1.881 1.561 1.371 1.311
1938.623 1.321 1.2466 1.2097 1.1916 1.2171 1.2585 1.1956 1.1737 1.2485 1.301
1957.913 1.331 1.291 1.311 1.421 1.411 1.461 1.471 1.471 1.531 1.531
1977.202 1.541 1.591 1.611 1.561 1.591 1.551 1.481 1.541 1.521 1.501
1996.492 1.621 1.631 1.551 1.501 1.581 1.601 1.511 1.401 1.391 1.471
2015.782 1.481 1.431 1.331 1.331 1.341 1.291 1.2573 1.2545 1.281 1.2373
2035.072 1.2137 1.214 1.2136 1.281 1.261 1.2009 1.1382 1.0892 1.1505 1.1474
2054.362 1.1106 1.1177 1.0866 1.0365 0.9968 0.9794 1.0033 0.9691 0.903 0.9361
2073.651 0.9804 0.9599 0.98 1.0099 0.9127 0.889 0.9646 0.9892 0.9584 0.8555
2092.941 0.8196 0.8751 0.8473 0.7615 0.793 0.8924 0.9189 0.8814 0.7688 0.7608
2112.231 0.8045 0.8217 0.8157 0.8066 0.8636 0.8519 0.7972 0.8681 0.9515 0.9231
2131.521 0.9235 0.8966 0.8803 0.867 0.9578 1.0311 0.8804 0.7732 0.7966 0.7817
2150.810 0.8245 0.9249 0.9754 0.9599 0.9498 0.9456 0.9852 1.0581 1.016 0.9686
2170.100 0.9766 0.9557 0.8604 0.8373 0.9327 0.9954 1.0121 1.0521 1.0358 1.0244
2189.390 1.0608 1.1003 1.092 1.0411 0.9899 1.0154 1.1045 1.1729 1.2051 1.1668
2208.680 1.2046 1.2118 1.1448 1.1832 1.2334 1.2041 1.179 1.261 1.311 1.2506
2227.970 1.271 1.371 1.401 1.391 1.421 1.461 1.511 1.531 1.651 1.731
2247.259 1.731 1.711 1.721 1.901 2.041 1.991 1.961 2.071 2.061 2.111
2266.549 2.201 2.221 2.301 2.391 2.511 2.511 2.491 2.411 2.331 2.351
2285.839 2.421 2.371 2.251 2.231 2.181 2.111 2.211 2.231 2.181 2.251
2305.129 2.101 1.931 1.931 1.831 1.781 1.651 1.501 1.451 1.351 1.401
2324.418 1.431 1.361 1.301 1.2404 1.2484 1.331 1.391 1.281 1.2568 1.451
2343.708 1.551 1.471 1.381 1.371 1.391 1.411 1.411 1.391 1.441 1.491
2362.998 1.401 1.281 1.341 1.361 1.381 1.371 1.311 1.301 1.331 1.401
2382.288 1.421 1.371 1.311 1.301 1.2564 1.163 1.1134 1.0531 0.9848 1.0074
2401.578 0.9532 1.0165 1.0742 0.9868 0.9429 0.9373 0.9978 1.0613 1.0452 1.0275
2420.867 1.0374 1.0389 1.1149 1.1369 1.0709 1.1501 1.311 1.2419 1.2197 1.301
2440.157 1.2564 1.2129 1.1712 1.1567 1.2427 1.341 1.331 1.235 1.341 1.561
2459.447 1.671 1.671 1.651 1.651 1.621 1.701 1.701 1.631 1.651 1.621
2478.737 1.591 1.531 1.441 1.461 1.531 1.471 1.461 1.481 1.451 1.521
2498.026 1.661 1.751 1.771 1.801 1.861 1.971 2.071 2.121 2.151 2.161
2517.316 2.071 1.971 1.991 1.971 1.901 1.771 1.701 1.651 1.601 1.571
2536.606 1.491 1.391 1.321 1.291 1.1866 1.1545 1.1707 1.1829 1.1588 1.0507
2555.896 1.0902 1.1462 1.1182 1.0612 1.0252 0.9766 0.957 0.9877 0.9406 0.8918
2575.186 0.8869 0.8794 0.7911 0.6859 0.6469 0.6791 0.6573 0.689 0.7649 0.7537
2594.475 0.7738 0.8555 0.8705 0.8881 0.8761 0.8674 0.9125 0.8387 0.8333 0.9717
2613.765 1.1093 1.0941 0.9744 0.9485 0.8986 0.8775 0.9022 0.8392 0.8157 0.7399
2633.055 0.7093 0.7568 0.8686 0.8982 0.8804 0.957 0.8981 0.798 0.8469 0.8995
2652.345 0.8857 0.8686 0.8624 0.9189 0.9244 0.9238 0.9617 1.0363 1.04 1.0041
2671.634 1.0798 1.121 1.1252 1.1011 1.1501 1.291 1.311 1.2501 1.259 1.2396
2690.924 1.281 1.401 1.321 1.281 1.331 1.401 1.421 1.461 1.491 1.381
2710.214 1.361 1.451 1.551 1.681 1.731 1.771 1.891 2.011 2.141 2.221
2729.504 2.261 2.331 2.461 2.731 2.971 3.001 3.091 3.271 3.361 3.341
2748.794 3.331 3.371 3.241 3.051 2.971 2.891 2.761 2.591 2.471 2.421
2768.083 2.381 2.371 2.391 2.341 2.321 2.261 2.271 2.431 2.441 2.471
2787.373 2.581 2.551 2.441 2.491 2.631 2.861 3.051 3.081 3.111 3.031
2806.663 3.201 3.391 3.401 3.451 3.561 3.721 3.741 3.711 3.741 3.951
2825.953 4.081 4.031 4.031 4.221 4.491 4.701 4.861 5.091 5.421 5.751
2845.242 5.961 6.211 6.591 7.121 7.531 7.821 8.441 9.161 9.871 10.711
2864.532 11.811 13.251 14.861 16.651 18.661 20.921 23.471 26.081 28.761 31.091
2883.822 32.741 33.831 34.551 34.631 34.101 33.221 32.041 30.851 29.751 28.811
2903.112 28.071 27.561 27.281 27.351 27.601 27.791 28.161 28.601 29.021 29.521
2922.401 30.301 31.401 32.811 34.621 36.721 39.111 41.831 44.691 47.501 50.091
2941.691 52.181 53.721 54.501 54.471 53.991 53.281 52.601 52.451 53.181 54.881
2960.981 57.611 61.281 65.831 70.571 74.691 77.841 79.511 79.291 77.061 73.131
2980.271 67.821 61.431 54.681 48.311 42.631 37.661 33.251 29.431 26.151 23.341
2999.561 20.871 18.741 17.061 15.541 14.201 13.201 12.221 11.271 10.651 10.071
3018.850 9.611 9.321 8.811 8.371 8.181 7.901 7.591 7.361 7.131 6.821
3038.140 6.381 5.981 5.721 5.471 5.231 4.941 4.771 4.641 4.461 4.391
3057.430 4.311 4.321 4.371 4.751 5.061 5.171 5.411 5.881 6.231 6.621
3076.720 7.321 7.941 8.311 8.371 8.321 8.061 7.791 7.441 7.011 6.521
3096.009 5.931 5.451 5.021 4.701 4.311 3.861 3.491 3.151 2.971 2.771
3115.299 2.491 2.321 2.161 2.101 2.121 2.011 2.051 2.081 2.051 2.011
3134.589 1.821 1.831 1.971 1.801 1.561 1.661 1.661 1.541 1.751 1.861
3153.879 1.741 1.841 1.871 1.661 1.561 1.671 1.641 1.621 1.591 1.521
3173.169 1.491 1.431 1.381 1.341 1.441 1.481 1.441 1.321 1.281 1.311
3192.458 1.261 1.2106 1.0877 0.944 0.9027 1.0576 1.1376 1.0507 1.0056 0.8661
3211.748 0.8839 1.0444 0.8536 0.7563 0.8277 0.716 0.6343 0.6747 0.7397 0.8497
3231.038 0.8536 0.6489 0.5376 0.6164 0.6541 0.5119 0.5197 0.5885 0.436 0.3686
3250.328 0.4087 0.4677 0.4664 0.3899 0.29599 0.32694 0.34988 0.315 0.4453 0.4453
3269.617 0.35815 0.30869 0.3422 0.4255 0.416 0.4437 0.33865 0.270975 0.3661 0.414
3288.907 0.5224 0.4626 0.33279 0.1678 0.2342 0.4099 0.3084 0.2737 0.2162 0.2492
3308.197 0.3772 0.4267 0.5076 0.4006 0.268543 0.31483 0.28172 0.3518 0.4354 0.4845
3327.487 0.4531 0.25868 0.3965 0.6618 0.4877 0.4259 0.5443 0.5351 0.5921 0.7208
3346.777 0.713 0.6495 0.6297 0.6456 0.5586 0.3666 0.4039 0.446 0.3986 0.4875
3366.066 0.6398 0.7631 0.7282 0.5774 0.6142 0.6629 0.6041 0.7418 0.9031 0.9111
3385.356 0.9242 0.9629 1.0566 1.1308 1.1443 1.189 1.301 1.311 1.531 1.821
3404.646 1.831 1.871 1.991 2.181 2.321 2.381 2.601 2.771 2.911 3.091
3423.936 3.131 3.191 3.141 2.871 2.811 2.931 2.861 2.691 2.391 2.141
3443.225 2.051 1.821 1.701 1.581 1.271 1.2246 1.291 1.1779 0.9848 0.867
3462.515 0.6798 0.5218 0.6335 0.6826 0.4718 0.32402 0.4114 0.5925 0.522 0.4209
3481.805 0.4334 0.5316 0.6148 0.6073 0.4982 0.4807 0.5654 0.6111 0.4519 0.3955
3501.095 0.5253 0.5121 0.5332 0.4138 0.269532 0.465 0.4214 0.2091 0.3897 0.4078
3520.385 0.28522 0.2145 0.29875 0.2725 0.145 0 0.139 0.4383 0.4498 0.4226
3539.674 0.33967 0.2326 0.1713 0.2416 0.3822 0.4025 0.32941 0.25665 0.218 0.2077
3558.964 0.185 0.159 0.106 0.115 0.1858 0.2292 0.29332 0.264895 0.2085 0.30111
3578.254 0.3699 0.1922 0.2495 0.3865 0.4207 0.4716 0.27818 0.1924 0.31728 0.30229
3597.544 0.364 0.5473 0.33724 0.32491 0.5577 0.4807 0.3872 0.2364 0.1779 0.32458
3616.833 0.4349 0.3733 0.30349 0.2442 0.2334 0.270545 0.2404 0.25274 0.32863 0.3938
3636.123 0.29612 0.1733 0.1 0.159 0.2258 0.1953 0.1709 0.104 0.076 0.157
3655.413 0.2304 0.1696 0.1778 0.195 0.2142 0.29222 0.1802 0.1868 0.3905 0.4397
3674.703 0.4682 0.4349 0.4067 0.4887 0.415 0.4013 0.4194 0.368 0.28259 0.25724
3693.993 0.1962 0.078 0.028 0.053 0.17 0.261324 0.4426 0.30565 0.042 0.1
3713.282 0.126 0.2138 0.30693 0.2201 0.078 0.1737 0.361 0.3804 0.378 0.4049
3732.572 0.4033 0.476 0.4812 0.3739 0.30911 0.4281 0.4616 0.1859 0.2401 0.3951
3751.862 0.457 0.4802 0.4113 0.4482 0.4962 0.4267 0.34429 0.29821 0.31935 0.36044
3771.152 0.28004 0.2486 0.1915 0.2321 0.4492 0.4862 0.35311 0.4433 0.5879 0.5351
3790.441 0.5206 0.4611 0.35567 0.3817 0.4385 0.5047 0.5067 0.5454 0.5834 0.6628
3809.731 0.6553 0.3819 0.3334 0.4128 0.496 0.6263 0.7278 0.7166 0.7151 0.7
3829.021 0.4447 0.4577 0.5157 0.5001 0.6536 0.7347 0.7877 0.8019 0.6564 0.6407
3848.311 0.7255 0.693 0.6736 0.579 0.4597 0.4624 0.4918 0.58 0.5714 0.6154
3867.601 0.6705 0.5256 0.6308 0.7987 0.5857 0.4622 0.5462 0.479 0.4454 0.34987
3886.890 0.4264 0.4153 0.3714 0.35773 0.28393 0.35721 0.4478 0.4197 0.29039 0.2432
3906.180 0.2965 0.5691 0.6251 0.6662 0.5337 0.32176 0.3669 0.33499 0.33886 0.30634
3925.470 0.3669 0.4393 0.4423 0.32156 0.267724 0.31942 0.3932 0.5093 0.4669 0.4622
3944.760 0.4761 0.4344 0.3992 0.3854 0.5705 0.6651 0.5599 0.6135 0.6723 0.6253
3964.049 0.7645 0.6574 0.6667 0.7041 0.5159 0.4791 0.4601 0.521 0.6001 0.5739
3983.339 0.4807 0.6806 0.8388 0.6778 0.546 0.5947 0.6848 0.8225 0.6724 0.5159
##END=
