##TITLE=Salicylaldehyde azine
##JCAMP-DX=4.24
##DATA TYPE=INFRARED SPECTRUM
##ORIGIN=EPA-IR VAPOR PHASE LIBRARY
##OWNER=SRD/NIST
Collection (C) 2018 copyright by the U.S. Secretary of Commerce
on behalf of the United States of America. All rights reserved.
##CAS REGISTRY NO=959-36-4
##MOLFORM=C 14 H 12 N 2 O 2
##$NIST SOURCE=MSDC-IR
##STATE=gas
##XUNITS=1/CM
##YUNITS=ABSORBANCE
##XFACTOR=1.
##YFACTOR=0.001
##DELTAX=1.92898
##FIRSTX=549.8
##LASTX=4000.7
##FIRSTY=2.159
##MAXX=4000.7
##MINX=549.759
##MAXY=0.123399
##MINY=0
##NPOINTS=1790
##XYDATA=(X++(Y..Y))
549.759 2.159 1.969 2.209 2.709 3.259 3.549 3.569 3.439 3.389 2.949
569.049 2.729 2.619 2.439 2.589 2.489 2.099 1.939 2.069 1.979 1.869
588.339 1.879 2.009 2.139 2.119 2.239 2.569 2.599 2.609 2.779 2.739
607.628 2.719 2.979 3.109 3.089 3.169 3.209 3.209 3.299 3.299 3.039
626.918 3.109 3.289 3.329 3.289 3.319 3.489 3.379 3.299 3.629 3.999
646.208 4.139 4.349 4.469 4.319 4.199 4.119 4.019 4.169 4.379 4.659
665.498 5.119 5.309 5.819 6.889 8.509 11.159 14.379 16.939 18.339 18.349
684.787 16.659 14.259 12.569 11.759 11.479 11.619 11.599 11.559 11.479 11.109
704.077 10.509 9.829 9.199 8.459 7.719 7.029 6.479 5.949 5.489 5.209
723.367 5.169 5.279 5.499 5.879 6.459 7.209 8.269 9.649 11.719 14.699
742.657 18.079 21.589 24.679 27.339 29.859 30.099 27.059 23.619 20.549 16.989
761.947 13.379 10.499 8.369 6.969 6.269 6.069 6.049 6.119 6.449 7.159
781.236 7.649 7.689 7.499 7.019 6.399 5.439 4.479 3.519 2.869 2.339
800.526 1.849 1.719 1.509 1.2662 1.2139 1.3259 1.399 1.379 1.469 1.499
819.816 1.439 1.2349 1.228 1.459 1.2667 0.9588 1.0333 1.2677 1.2827 1.1482
839.106 1.2776 1.469 1.449 1.549 1.719 1.829 2.009 2.309 2.289 2.039
858.395 2.029 1.869 1.699 1.629 1.469 1.439 1.549 1.639 1.719 1.799
877.685 1.859 1.879 2.069 2.419 2.869 3.719 5.319 7.849 11.529 15.649
896.975 18.029 18.229 16.179 12.189 8.289 5.619 4.049 2.959 2.199 1.869
916.265 1.589 1.459 1.379 1.1832 1.1821 1.2786 1.2043 1.3281 1.529 1.579
935.555 1.789 1.979 1.989 1.969 2.089 2.159 1.989 1.829 2.019 2.439
954.844 2.779 3.259 3.989 4.449 4.689 4.969 4.869 4.139 3.419 3.089
974.134 2.589 2.199 1.919 1.599 1.529 1.529 1.569 1.389 1.2811 1.3064
993.424 1.439 1.679 1.669 1.539 1.409 1.3226 1.399 1.529 1.539 1.739
1012.714 2.169 2.409 2.529 2.479 2.299 2.449 2.699 3.139 3.509 3.769
1032.003 3.919 3.819 3.579 2.759 1.929 1.679 1.689 1.589 1.2692 1.1436
1051.293 1.1716 1.0538 0.9157 1.1421 1.449 1.369 1.539 1.619 1.2254 0.8026
1070.583 0.7535 1.0068 1.2847 1.469 1.369 1.479 1.529 1.2384 1.389 1.629
1089.873 1.869 2.029 2.159 2.209 2.309 2.559 2.939 3.129 3.339 3.509
1109.163 3.849 5.059 6.239 7.279 7.759 7.229 6.289 5.029 3.579 2.969
1128.452 2.729 2.459 2.669 2.849 3.059 3.839 4.739 5.979 8.569 12.599
1147.742 17.739 21.129 21.439 20.229 16.429 11.389 8.289 6.559 5.249 4.759
1167.032 4.519 4.539 4.729 4.999 5.439 6.039 7.109 8.369 9.989 11.679
1186.322 13.129 14.409 14.879 14.869 14.679 14.169 13.619 12.819 12.039 11.509
1205.611 10.989 10.319 10.089 9.899 9.459 8.699 7.799 7.359 6.959 6.369
1224.901 6.249 6.609 6.919 7.489 7.999 8.199 8.159 7.909 7.699 7.709
1244.191 7.699 7.659 8.059 8.609 9.569 10.859 11.969 13.329 15.069 16.989
1263.481 19.119 21.429 23.819 26.229 28.189 29.459 29.539 28.479 26.559 23.599
1282.771 20.289 17.189 14.569 12.539 10.999 9.969 9.239 8.859 8.679 8.489
1302.060 8.319 8.209 8.119 8.139 8.319 8.509 8.489 8.249 7.769 7.069
1321.350 6.439 5.989 5.749 5.649 5.659 5.649 5.579 5.429 5.219 5.009
1340.640 4.719 4.389 4.129 3.949 3.749 3.599 3.519 3.439 3.449 3.419
1359.930 3.379 3.399 3.479 3.619 3.689 3.769 3.899 3.999 4.169 4.369
1379.219 4.539 4.769 5.009 5.159 5.339 5.579 5.899 6.239 6.539 6.819
1398.509 7.069 7.359 7.609 7.829 8.009 8.129 8.209 8.119 7.949 7.749
1417.799 7.369 6.869 6.479 6.129 5.799 5.589 5.439 5.309 5.239 5.119
1437.089 5.069 5.129 5.189 5.239 5.349 5.579 5.779 6.029 6.509 7.059
1456.378 7.719 8.659 9.759 11.009 12.399 13.889 15.259 16.519 17.559 18.479
1475.668 19.289 19.909 20.429 20.939 21.289 21.379 20.929 19.999 18.709 17.069
1494.958 15.029 12.879 10.969 9.329 8.069 7.119 6.389 5.839 5.459 5.179
1514.248 4.949 4.659 4.409 4.229 3.999 3.769 3.529 3.309 3.149 2.959
1533.538 2.849 2.869 2.919 3.049 3.179 3.409 3.709 3.979 4.269 4.699
1552.827 5.239 5.849 6.529 7.419 8.559 9.939 11.919 14.269 16.979 20.119
1572.117 23.079 25.379 26.619 26.509 24.839 21.879 18.609 15.539 13.069 11.509
1591.407 10.649 10.289 10.489 11.179 12.209 13.809 15.999 18.639 21.729 25.779
1610.697 30.929 37.789 46.869 59.459 75.369 92.769 109.629 121.379 123.399 113.339
1629.986 93.869 69.979 47.889 30.939 20.559 14.669 10.949 8.749 7.119 5.889
1649.276 5.059 4.509 4.019 3.609 3.419 3.289 3.079 2.879 2.749 2.679
1668.566 2.659 2.699 2.749 2.759 2.789 2.899 3.019 3.189 3.229 3.079
1687.856 2.889 2.729 2.679 2.659 2.529 2.469 2.469 2.389 2.409 2.519
1707.146 2.559 2.469 2.349 2.229 1.989 1.799 1.709 1.549 1.409 1.298
1726.435 1.2291 1.1846 1.0937 1.1062 1.0965 1.1126 1.143 1.0994 1.0748 1.0349
1745.725 1.0962 1.1804 1.1342 1.0588 1.1185 1.1289 1.1043 1.1636 1.1737 1.1747
1765.015 1.079 1.0401 1.1696 1.2579 1.2927 1.3275 1.439 1.599 1.729 1.819
1784.305 1.829 1.809 1.739 1.679 1.569 1.409 1.359 1.3324 1.2387 1.2044
1803.594 1.2609 1.2984 1.3008 1.2842 1.3321 1.369 1.369 1.469 1.609 1.679
1822.884 1.689 1.669 1.629 1.499 1.369 1.2904 1.1683 1.128 1.1252 1.0828
1842.174 1.0967 1.1137 1.1156 1.1454 1.2529 1.3514 1.369 1.389 1.419 1.439
1861.464 1.509 1.549 1.519 1.469 1.3537 1.273 1.2069 1.1255 1.0734 1.0781
1880.754 1.0525 1.012 1.0948 1.1234 1.0693 1.1437 1.2623 1.369 1.479 1.549
1900.043 1.659 1.749 1.749 1.689 1.609 1.509 1.429 1.263 1.1823 1.1896
1919.333 1.1588 1.231 1.379 1.549 1.749 2.059 2.439 2.749 3.019 3.319
1938.623 3.489 3.339 2.919 2.409 1.949 1.579 1.291 1.1311 0.9939 0.927
1957.913 0.9174 0.9076 0.8788 0.8344 0.8622 0.8667 0.8504 0.8494 0.8697 0.9041
1977.202 0.8365 0.8039 0.8415 0.7859 0.782 0.8201 0.7749 0.7465 0.7281 0.7131
1996.492 0.7011 0.7377 0.7812 0.7338 0.6975 0.688 0.7224 0.7493 0.75 0.7163
2015.782 0.6967 0.7201 0.7349 0.7361 0.6717 0.6986 0.8014 0.7818 0.7428 0.7976
2035.072 0.8083 0.7627 0.7371 0.76 0.7697 0.7913 0.7961 0.778 0.8069 0.8498
2054.362 0.8816 0.882 0.8638 0.8341 0.8167 0.8469 0.8468 0.7842 0.7455 0.7869
2073.651 0.845 0.7874 0.6897 0.6876 0.6757 0.6932 0.7202 0.6893 0.7241 0.7245
2092.941 0.7409 0.7507 0.7091 0.7121 0.7962 0.8241 0.7518 0.738 0.8146 0.8262
2112.231 0.7555 0.7574 0.7364 0.7273 0.7522 0.7361 0.7132 0.6882 0.6927 0.7197
2131.521 0.7301 0.7101 0.6905 0.692 0.6687 0.6562 0.7065 0.7259 0.7128 0.7275
2150.810 0.6696 0.5998 0.667 0.7721 0.7801 0.7682 0.7906 0.772 0.7457 0.7899
2170.100 0.8103 0.7561 0.7005 0.7472 0.8214 0.8404 0.8668 0.8246 0.793 0.823
2189.390 0.8173 0.7826 0.7105 0.6446 0.7307 0.7237 0.6411 0.6657 0.6778 0.7467
2208.680 0.7566 0.7557 0.8095 0.7816 0.7504 0.7665 0.7745 0.7736 0.7626 0.7867
2227.970 0.8103 0.7698 0.7035 0.6597 0.707 0.7569 0.7931 0.831 0.8483 0.8397
2247.259 0.8888 0.9144 0.8223 0.827 0.8851 0.8864 0.9039 0.9562 1.0135 1.0083
2266.549 0.9718 1.0391 1.0677 1.0373 1.0263 1.0117 0.9635 0.9031 0.8515 0.8291
2285.839 0.8251 0.8159 0.7699 0.7272 0.7696 0.8323 0.9006 0.954 0.9678 0.9753
2305.129 1.0148 1.0004 0.9477 0.9555 0.9773 0.9696 0.9465 0.896 0.9294 1.0142
2324.418 1.0269 1.0122 1.0047 1.0762 1.1315 1.0813 1.1038 1.1541 1.1424 1.1207
2343.708 1.1264 1.1788 1.2423 1.2079 1.1652 1.1534 1.1083 1.0892 1.0616 1.023
2362.998 0.9976 0.9649 0.9499 0.9505 1.0146 1.1094 1.1231 1.1508 1.2141 1.2245
2382.288 1.2222 1.2469 1.2702 1.2601 1.231 1.2659 1.2438 1.2433 1.2459 1.25
2401.578 1.2984 1.2752 1.2685 1.2401 1.2299 1.2163 1.2248 1.2467 1.1776 1.164
2420.867 1.1733 1.156 1.145 1.0496 1.0139 1.0559 1.0746 1.0985 1.0801 1.0699
2440.157 1.1041 1.0741 1.045 1.1234 1.1251 1.0488 1.0501 1.0688 1.0652 1.1398
2459.447 1.1738 1.1404 1.1808 1.167 1.1417 1.1863 1.2404 1.2508 1.1837 1.1404
2478.737 1.1762 1.2071 1.2264 1.2412 1.2681 1.3155 1.3002 1.304 1.3245 1.369
2498.026 1.439 1.469 1.519 1.529 1.609 1.719 1.769 1.759 1.719 1.729
2517.316 1.659 1.589 1.559 1.419 1.369 1.419 1.399 1.419 1.469 1.449
2536.606 1.449 1.499 1.549 1.559 1.619 1.669 1.669 1.599 1.609 1.689
2555.896 1.689 1.649 1.649 1.729 1.799 1.819 1.779 1.709 1.699 1.849
2575.186 1.949 1.899 1.949 1.999 1.999 2.049 2.079 2.079 2.059 2.039
2594.475 2.119 2.159 2.129 2.089 2.069 2.129 2.129 2.079 2.109 2.199
2613.765 2.319 2.429 2.499 2.469 2.429 2.429 2.479 2.499 2.459 2.489
2633.055 2.529 2.509 2.499 2.449 2.359 2.369 2.369 2.279 2.209 2.329
2652.345 2.449 2.409 2.379 2.449 2.399 2.449 2.519 2.439 2.449 2.539
2671.634 2.519 2.419 2.529 2.639 2.649 2.669 2.679 2.699 2.659 2.589
2690.924 2.539 2.509 2.449 2.449 2.569 2.609 2.519 2.519 2.639 2.699
2710.214 2.689 2.659 2.639 2.699 2.729 2.809 2.879 2.899 2.859 2.839
2729.504 2.909 2.899 2.899 3.019 3.079 3.069 3.109 3.119 3.039 3.019
2748.794 3.089 3.149 3.179 3.259 3.309 3.379 3.489 3.579 3.539 3.399
2768.083 3.429 3.579 3.579 3.469 3.439 3.449 3.469 3.489 3.409 3.409
2787.373 3.439 3.369 3.359 3.289 3.299 3.329 3.309 3.349 3.289 3.229
2806.663 3.209 3.289 3.349 3.239 3.199 3.359 3.379 3.259 3.339 3.489
2825.953 3.499 3.439 3.429 3.439 3.479 3.509 3.539 3.719 3.729 3.699
2845.242 3.789 3.879 3.919 3.969 4.089 4.129 4.119 4.199 4.409 4.469
2864.532 4.329 4.289 4.379 4.499 4.519 4.529 4.549 4.539 4.509 4.519
2883.822 4.529 4.579 4.599 4.559 4.559 4.579 4.619 4.639 4.599 4.659
2903.112 4.689 4.719 4.849 4.929 4.979 4.979 5.079 5.209 5.169 5.199
2922.401 5.319 5.409 5.589 5.719 5.919 6.089 6.329 6.679 6.949 7.149
2941.691 7.179 7.259 7.439 7.509 7.479 7.449 7.439 7.259 7.119 7.019
2960.981 6.809 6.629 6.489 6.389 6.349 6.239 6.169 6.189 6.109 5.949
2980.271 6.009 6.159 6.269 6.429 6.569 6.809 7.069 7.289 7.439 7.739
2999.561 8.069 8.139 8.319 8.449 8.449 8.509 8.449 8.319 8.259 8.349
3018.850 8.439 8.519 8.729 8.859 8.949 8.959 8.939 9.149 9.349 9.559
3038.140 9.759 9.859 10.059 10.329 10.749 11.219 11.679 12.139 12.549 12.929
3057.430 13.199 13.349 13.519 13.919 14.769 15.889 16.899 17.739 18.059 17.539
3076.720 16.579 15.059 13.499 12.599 12.059 11.809 11.789 11.659 11.369 11.309
3096.009 11.319 11.179 10.909 10.729 10.679 10.619 10.619 10.439 10.169 10.039
3115.299 9.959 9.889 9.879 9.709 9.509 9.399 9.259 9.279 9.489 9.659
3134.589 9.669 9.609 9.759 9.889 9.959 10.039 10.059 10.179 10.309 10.269
3153.879 10.289 10.409 10.509 10.589 10.619 10.719 10.879 10.969 11.009 11.099
3173.169 11.099 11.059 10.979 10.959 10.849 10.739 10.849 10.869 10.909 10.959
3192.458 10.919 10.739 10.739 10.839 10.789 10.819 11.019 11.239 11.229 11.189
3211.748 11.209 11.249 11.389 11.459 11.489 11.419 11.359 11.389 11.509 11.599
3231.038 11.469 11.439 11.439 11.179 11.199 11.349 11.259 11.309 11.419 11.259
3250.328 11.119 11.159 11.139 11.099 10.939 10.779 10.879 10.899 10.729 10.689
3269.617 10.709 10.689 10.479 10.409 10.419 10.299 10.169 10.009 9.979 9.979
3288.907 9.859 9.779 9.739 9.509 9.469 9.579 9.519 9.449 9.329 9.189
3308.197 8.999 8.849 8.869 8.779 8.659 8.649 8.589 8.309 8.169 8.289
3327.487 8.149 8.029 7.929 7.659 7.629 7.639 7.489 7.359 7.309 7.259
3346.777 7.149 6.899 6.719 6.549 6.359 6.269 6.229 6.189 6.099 5.969
3366.066 5.929 5.819 5.689 5.719 5.689 5.669 5.499 5.269 5.169 5.029
3385.356 4.969 4.879 4.669 4.679 4.629 4.569 4.429 4.229 4.239 4.209
3404.646 4.159 4.149 3.939 3.869 3.889 3.659 3.449 3.409 3.389 3.289
3423.936 3.329 3.239 3.059 3.039 3.019 2.969 2.939 2.879 2.689 2.589
3443.225 2.589 2.549 2.489 2.509 2.449 2.389 2.439 2.399 2.299 2.269
3462.515 2.369 2.409 2.349 2.049 1.829 1.949 1.959 1.869 1.889 1.919
3481.805 1.869 1.909 1.839 1.729 1.639 1.629 1.709 1.629 1.479 1.3242
3501.095 1.216 1.2072 1.2848 1.3451 1.2966 1.3366 1.449 1.29 1.1152 1.0253
3520.385 1.0522 1.1279 1.0976 1.0811 1.12 1.1225 1.0874 1.1193 1.0583 0.958
3539.674 1.0016 1.0703 1.0419 0.8982 0.8333 0.9525 0.9798 0.9612 1.0341 1.0067
3558.964 0.995 0.9488 0.642 0.5549 0.7382 0.683 0.6448 0.6648 0.6654 0.6281
3578.254 0.5746 0.5686 0.5152 0.5595 0.6016 0.5837 0.6881 0.68 0.5841 0.5439
3597.544 0.5392 0.5787 0.5814 0.6074 0.6361 0.5986 0.4816 0.4819 0.4942 0.4987
3616.833 0.5305 0.5397 0.5447 0.481 0.4542 0.538 0.6408 0.5373 0.5127 0.6819
3636.123 0.7383 0.6231 0.6467 0.7179 0.7033 0.7043 0.7573 0.8651 0.8565 0.8763
3655.413 0.8617 0.772 0.6388 0.662 0.6278 0.5522 0.589 0.5566 0.45104 0.43318
3674.703 0.5484 0.57 0.499 0.43247 0.39944 0.3417 0.359492 0.40766 0.4635 0.42649
3693.993 0.3466 0.3356 0.3487 0.39785 0.41693 0.39601 0.186 0.058 0.075 0.254
3713.282 0.4765 0.4873 0.43303 0.35139 0.38409 0.40942 0.38084 0.221 0.219 0.366566
3732.572 0.39079 0.3354 0.239 0.3478 0.416 0.3194 0.217 0.202 0.22 0.249
3751.862 0.3196 0.258 0.2846 0.3179 0.3443 0.5103 0.38143 0.2676 0.218 0.222
3771.152 0.34 0.41574 0.247 0.182 0.37529 0.41296 0.4807 0.42363 0.288 0.38649
3790.441 0.42896 0.3427 0.43873 0.38804 0.326 0.3363 0.2985 0.40053 0.3281 0.3227
3809.731 0.38772 0.3365 0.39359 0.36213 0.38914 0.3285 0.35227 0.5247 0.5014 0.38316
3829.021 0.3397 0.43796 0.35002 0.222 0.103 0.15 0.4799 0.529 0.43549 0.4615
3848.311 0.40075 0.40848 0.4918 0.3207 0.2995 0.2777 0.205 0.3174 0.37275 0.37691
3867.601 0.4617 0.41036 0.37401 0.5489 0.5441 0.5734 0.5149 0.40241 0.368339 0.098
3886.890 0 0.126 0.129 0.183 0.3325 0.3948 0.3313 0.368716 0.43594 0.367122
3906.180 0.3196 0.4962 0.6282 0.4733 0.45856 0.5233 0.5275 0.44843 0.42226 0.4994
3925.470 0.44455 0.4442 0.45803 0.44369 0.41034 0.43003 0.5579 0.5073 0.3556 0.3339
3944.760 0.4623 0.6151 0.5159 0.40558 0.5854 0.6842 0.5317 0.5862 0.7011 0.6238
3964.049 0.6753 0.6852 0.44795 0.3362 0.43808 0.5727 0.6533 0.4877 0.40548 0.4726
3983.339 0.4631 0.37994 0.3455 0.40998 0.4673 0.38639 0.361286 0.571 0.5021 0.4729
##END=
