##TITLE=Endosulfan
##JCAMP-DX=4.24
##DATA TYPE=INFRARED SPECTRUM
##ORIGIN=NIST Mass Spectrometry Data Center
##OWNER=NIST Standard Reference Data Program
Collection (C) 2018 copyright by the U.S. Secretary of Commerce
on behalf of the United States of America. All rights reserved.
##CAS REGISTRY NO=959-98-8
##MOLFORM=C 9 H 6 Cl 6 O 3 S
##$NIST SOURCE=MSDC-IR
##SPECTROMETER/DATA SYSTEM=HP-GC/MS/IRD
##STATE=gas
##XUNITS=1/CM
##YUNITS=ABSORBANCE
##XFACTOR=1.0
##YFACTOR=0.000002900
##DELTAX=4.0
##FIRSTX=550.0
##LASTX=3846.0
##FIRSTY=0.001035
##MAXX=3846
##MINX=550
##MAXY=0.029
##MINY=0
##NPOINTS=825
##XYDATA=(X++(Y..Y))
550.0 357 180 22 22 61 184 431 919 1401 1382
590.0 914 436 192 187 303 463 792 1249 1447 1136
630.0 677 474 494 598 719 837 1079 1756 3139 4832
670.0 5737 5025 3347 2165 1887 1975 1873 1395 825 483
710.0 380 419 519 586 668 891 1438 2695 5174 8474
750.0 10000 7759 4113 2078 1495 1360 1498 1850 2281 2504
790.0 2183 1442 818 514 401 319 241 219 196 199
830.0 247 306 400 577 893 1378 2003 2491 2430 1875
870.0 1363 1155 1070 958 798 681 632 619 707 908
910.0 1149 1260 1156 963 808 738 712 727 790 919
950.0 1096 1290 1442 1559 1794 2343 3453 5414 7966 9818
990.0 9550 7455 5781 6212 7747 7931 6189 4129 2732 1941
1030.0 1545 1363 1320 1424 1676 1933 2107 2187 2238 2380
1070.0 2442 2257 1937 1684 1650 1868 2125 2099 1687 1133
1110.0 732 491 386 355 324 332 344 377 469 627
1150.0 822 1066 1402 1733 1786 1446 935 556 378 357
1190.0 479 843 1380 2274 4391 6872 6420 3313 1055 378
1230.0 275 298 362 424 558 774 948 1131 1496 1819
1270.0 1697 1243 787 478 302 214 173 149 139 117
1310.0 88 80 84 97 126 149 165 179 183 167
1350.0 159 178 196 198 192 180 175 188 197 157
1390.0 101 75 64 57 48 55 67 71 78 75
1430.0 74 83 87 91 96 115 156 214 247 227
1470.0 213 252 356 473 456 318 201 135 103 86
1510.0 74 68 62 56 55 62 69 69 68 75
1550.0 88 93 90 100 136 177 194 225 299 431
1590.0 692 1141 1633 1809 1433 813 381 195 129 107
1630.0 87 69 57 46 46 44 47 50 49 54
1670.0 49 40 37 42 48 42 31 29 29 26
1710.0 23 21 19 23 28 29 28 26 28 25
1750.0 19 25 21 20 24 30 34 28 27 29
1790.0 34 31 24 22 21 23 29 30 27 32
1830.0 40 44 43 38 35 37 36 36 43 40
1870.0 34 35 41 46 53 67 71 74 80 68
1910.0 66 65 58 46 49 53 47 51 58 57
1950.0 55 56 60 67 72 71 66 69 65 57
1990.0 51 49 54 47 39 42 36 31 34 38
2030.0 46 52 39 36 46 39 31 36 37 40
2070.0 45 38 28 26 32 31 28 24 25 29
2110.0 24 23 22 26 40 43 42 43 38 39
2150.0 33 20 19 25 27 28 30 34 40 43
2190.0 41 41 39 35 35 32 25 32 37 36
2230.0 34 37 43 43 42 35 35 45 47 35
2270.0 31 33 32 29 32 37 36 27 21 19
2310.0 22 35 45 36 26 27 39 36 32 39
2350.0 37 37 41 44 46 42 40 47 54 46
2390.0 35 40 53 71 92 98 73 41 39 39
2430.0 40 38 36 40 38 38 32 33 46 52
2470.0 50 46 49 49 36 37 40 33 32 34
2510.0 34 35 23 13 16 17 18 18 18 32
2550.0 36 41 48 41 31 34 32 30 26 18
2590.0 24 37 38 29 25 37 33 21 21 28
2630.0 30 35 34 30 32 23 20 34 40 30
2670.0 32 32 32 23 25 27 28 33 29 29
2710.0 30 20 28 42 40 39 41 36 39 47
2750.0 46 49 44 44 50 51 52 46 46 52
2790.0 56 49 43 47 53 56 61 66 55 52
2830.0 65 70 75 87 82 70 84 90 87 81
2870.0 78 80 78 87 92 99 120 169 236 292
2910.0 305 260 204 163 139 148 173 224 285 329
2950.0 334 310 301 330 390 436 481 533 598 674
2990.0 648 477 277 147 104 80 52 38 39 54
3030.0 51 42 45 45 28 22 31 34 31 26
3070.0 32 41 34 20 19 29 30 37 37 27
3110.0 44 32 29 40 29 48 73 80 80 67
3150.0 47 35 41 39 20 12 33 33 37 48
3190.0 44 46 43 40 37 32 35 47 46 42
3230.0 52 54 52 47 59 63 54 44 45 49
3270.0 43 33 34 41 28 33 45 52 40 36
3310.0 56 40 33 50 52 52 46 31 27 20
3350.0 15 18 27 34 34 35 20 12 14 26
3390.0 33 30 32 28 40 53 48 35 21 30
3430.0 41 35 31 28 24 17 2 3 30 46
3470.0 37 16 20 42 49 31 13 11 21 25
3510.0 11 11 22 35 41 30 32 21 16 24
3550.0 24 36 42 35 18 4 27 47 49 54
3590.0 58 40 5 0 27 30 17 10 27 40
3630.0 42 35 16 21 30 33 41 36 31 48
3670.0 43 32 34 26 26 32 52 60 44 29
3710.0 41 57 50 41 51 53 39 24 38 41
3750.0 24 17 12 23 28 23 11 19 24 46
3790.0 67 37 13 21 28 42 49 52 74 78
3830.0 61 38 20 18 39
##END=
