##TITLE=4,4'-Methylenebis(2-t-butyl-6-methylphenol
##JCAMP-DX=4.24
##DATA TYPE=INFRARED SPECTRUM
##ORIGIN=EPA-IR VAPOR PHASE LIBRARY
##OWNER=SRD/NIST
Collection (C) 2018 copyright by the U.S. Secretary of Commerce
on behalf of the United States of America. All rights reserved.
##CAS REGISTRY NO=96-65-1
##MOLFORM=C 23 H 32 O 2
##$NIST SOURCE=MSDC-IR
##STATE=gas
##XUNITS=1/CM
##YUNITS=ABSORBANCE
##XFACTOR=1.
##YFACTOR=0.001
##DELTAX=1.92898
##FIRSTX=549.8
##LASTX=4000.7
##FIRSTY=2.8
##MAXX=4000.7
##MINX=549.759
##MAXY=0.09122
##MINY=0.0003492
##NPOINTS=1790
##XYDATA=(X++(Y..Y))
549.759 2.8 2.88 2.66 2.81 2.85 2.71 2.81 2.68 2.42 2.54
569.049 2.38 2 1.86 2.31 2.77 2.54 2.53 2.5 2.38 2.75
588.339 2.93 3.17 3.41 3.55 3.67 3.89 4.24 4.62 5.02 4.86
607.628 4.64 4.38 3.71 3.01 2.75 2.47 2.08 1.76 1.39 1.32
626.918 1.35 1.32 1.27 1.24 1.19 1.37 1.6 1.42 1.32 1.34
646.208 1.14 1.16 1.32 1.32 1.48 1.48 1.41 1.67 2.05 2.28
665.498 2.4 2.67 3.2 3.71 3.83 3.95 4.41 4.58 4.36 4.05
684.787 3.61 3.1 2.64 2.43 2.19 1.79 1.61 1.46 1.22 1.28
704.077 1.34 1.18 1.1 1.14 0.9911 0.8189 0.9491 1.13 1.03 0.9763
723.367 1.14 1.34 1.47 1.42 1.45 1.63 1.98 2.28 2.9 4.02
742.657 4.78 5.63 6.63 7.18 7.28 6.7 5.67 4.91 4.21 3.47
761.947 3.26 3.39 3.66 4.21 4.83 5.46 6.19 6.85 7.43 7.78
781.236 8.01 8.55 9.15 9.73 9.93 9.42 8.3 6.66 5.11 3.98
800.526 3.16 2.79 2.46 2.08 1.89 1.72 1.68 1.66 1.6 1.7
819.816 1.74 1.61 1.66 1.78 1.99 2.57 2.65 2.55 3.12 3.65
839.106 4.14 4.7 5.3 6.07 6.85 7.47 7.89 8.31 8.6 8.76
858.395 8.7 8.39 8.11 7.86 7.6 7.42 7.25 7.24 7.37 7.54
877.685 7.64 7.42 6.95 6.68 6.41 6.07 5.93 5.75 5.53 5.36
896.975 5.11 4.85 4.54 4.41 4.3 3.95 3.71 3.66 3.6 3.39
916.265 3.25 3.09 3.05 3.14 3.24 3.25 3.35 3.55 3.65 3.81
935.555 3.87 4.13 4.55 4.75 4.9 4.78 4.78 4.85 4.51 4.21
954.844 4.14 3.97 3.84 3.99 3.9 3.63 3.65 3.7 3.69 3.73
974.134 3.57 3.52 3.53 3.34 3.1 2.74 2.8 2.93 3.02 3.3
993.424 3.31 3.43 3.81 4.17 4.64 5.15 5.47 5.71 5.81 5.71
1012.714 5.63 5.46 5.04 4.62 4.41 4.35 4.42 4.3 4.15 4
1032.003 3.54 2.95 2.53 2.45 2.18 2.21 2.41 2.19 1.78 1.59
1051.293 1.34 1.51 1.91 1.82 1.72 1.68 1.51 1.19 1.23 1.61
1070.583 1.54 1.49 1.53 1.31 1.51 1.78 1.9 2.07 1.91 1.8
1089.873 2.25 2.26 2.44 3.02 3.01 2.98 3.57 3.94 4.07 4.57
1109.163 5.56 6.1 6.47 7.62 8.38 9.35 11.3 12.97 14.43 16.37
1128.452 18.31 19.92 20.97 20.92 20.53 19.99 19.26 18.49 17.5 16.87
1147.742 16.94 17.28 18.04 20.06 22.56 25.13 28.7 32.47 36.57 41.22
1167.032 45.56 49.89 53.55 55.89 56.28 55.05 52.52 48.76 44.98 41.71
1186.322 39.02 36.87 35.21 33.87 32.93 31.94 31.14 30.69 30.74 31.26
1205.611 31.91 33.83 36.7 39.8 43 45.78 48.03 48.79 47.21 44.46
1224.901 41.56 38.74 36.01 32.72 29.67 27.1 24.78 23.04 21.98 21.25
1244.191 20.48 19.85 19.01 17.99 17.08 16.55 16.23 16.04 15.91 16.18
1263.481 16.66 16.6 16.64 16.95 17 16.7 16.2 15.48 14.79 14.38
1282.771 14 13.66 13.55 13.75 14.01 14.24 14.8 15.61 16.24 16.9
1302.060 17.59 18.04 18.37 18.59 18.66 18.58 18.31 17.72 16.85 15.72
1321.350 14.19 12.55 10.96 9.4 8.14 7.16 6.29 5.69 5.29 4.98
1340.640 4.8 4.71 4.71 4.8 5.04 5.43 6 6.79 7.78 9.16
1359.930 10.91 13 15.16 16.7 17.23 16.67 15.27 13.62 12.28 11.39
1379.219 10.91 10.77 10.82 10.89 10.98 11.35 12.16 13.32 14.51 15.23
1398.509 15.07 14.15 12.93 11.79 11.24 11.31 11.79 12.83 14.4 16.44
1417.799 19.05 22.15 25.51 29.13 32.87 36.41 39.77 42.82 45.65 48.16
1437.089 49.86 50.24 49.13 46.74 43.46 39.82 36.37 33.55 31.43 29.93
1456.378 28.95 28.44 28.42 28.74 29.35 30.38 31.67 33.24 35.02 36.83
1475.668 38.46 39.72 40.19 39.58 37.62 34.34 30.14 25.69 21.46 17.82
1494.958 14.8 12.38 10.52 9.05 7.9 7 6.26 5.63 5.17 4.75
1514.248 4.35 4.1 3.86 3.63 3.49 3.38 3.27 3.2 3.12 3.01
1533.538 2.93 2.88 2.77 2.63 2.61 2.65 2.67 2.67 2.66 2.62
1552.827 2.65 2.68 2.64 2.54 2.56 2.61 2.57 2.52 2.5 2.59
1572.117 2.68 2.65 2.67 2.71 2.78 2.88 2.94 3.04 3.27 3.55
1591.407 3.83 4.02 4.24 4.54 4.66 4.71 4.67 4.46 4.1 3.68
1610.697 3.34 2.92 2.54 2.28 2.13 2.03 1.94 1.87 1.93 2.02
1629.986 1.96 1.92 1.84 1.69 1.57 1.43 1.37 1.41 1.33 1.26
1649.276 1.33 1.29 1.15 1.18 1.18 1.11 1.14 1.16 1.13 1.13
1668.566 1.14 1.1 1.09 1.07 1 0.9814 1.06 1.13 1.12 1.07
1687.856 1.04 1.01 1.02 0.9688 0.9409 0.9518 0.875 0.8709 0.9245 0.9974
1707.146 1.05 1.03 1.11 1.22 1.29 1.34 1.41 1.52 1.66 1.75
1726.435 1.78 1.88 1.96 1.99 2.06 2.11 2.05 2 1.96 1.88
1745.725 1.86 1.88 1.84 1.84 1.86 1.88 1.92 1.93 1.97 1.94
1765.015 1.85 1.87 1.85 1.73 1.69 1.65 1.58 1.51 1.38 1.35
1784.305 1.32 1.24 1.16 1.05 0.9749 0.9546 0.9785 0.9407 0.8722 0.9002
1803.594 0.8891 0.8892 0.8649 0.769 0.7534 0.7678 0.7768 0.7666 0.7506 0.7619
1822.884 0.74 0.7321 0.7191 0.7579 0.7237 0.6754 0.7265 0.7069 0.7202 0.7164
1842.174 0.6454 0.6003 0.5694 0.6108 0.6383 0.6074 0.6019 0.5621 0.5548 0.5523
1861.464 0.5206 0.522 0.5109 0.5043 0.5158 0.5261 0.5485 0.5271 0.5212 0.5596
1880.754 0.5513 0.5313 0.5411 0.539 0.5518 0.6064 0.6431 0.6429 0.6546 0.6958
1900.043 0.702 0.7123 0.6911 0.7111 0.7676 0.7962 0.8378 0.7864 0.7129 0.7196
1919.333 0.7076 0.6791 0.713 0.7399 0.6895 0.6115 0.5878 0.6224 0.6282 0.6318
1938.623 0.6789 0.6625 0.6312 0.6085 0.6127 0.6581 0.6674 0.6768 0.7099 0.7524
1957.913 0.7499 0.69 0.672 0.7008 0.7158 0.6632 0.6182 0.6372 0.592 0.5835
1977.202 0.6293 0.6749 0.6787 0.6189 0.6886 0.6999 0.6127 0.629 0.6722 0.7122
1996.492 0.7216 0.6844 0.6656 0.6622 0.6482 0.6302 0.5914 0.5906 0.664 0.6727
2015.782 0.6267 0.5856 0.5871 0.6222 0.6168 0.5957 0.5437 0.5457 0.5891 0.5479
2035.072 0.4917 0.4943 0.5032 0.5035 0.4586 0.4765 0.5287 0.518 0.5114 0.4509
2054.362 0.4401 0.4598 0.44 0.4333 0.4693 0.519 0.4795 0.4903 0.5058 0.4851
2073.651 0.5139 0.5129 0.4967 0.4386 0.3711 0.3882 0.4165 0.4453 0.4784 0.452
2092.941 0.4287 0.5139 0.5221 0.3879 0.3957 0.4302 0.421 0.4757 0.5008 0.4873
2112.231 0.4861 0.5101 0.5363 0.4669 0.4525 0.5197 0.5138 0.5522 0.5545 0.4699
2131.521 0.5031 0.5422 0.5235 0.5446 0.5877 0.5444 0.4779 0.4931 0.5178 0.5707
2150.810 0.62 0.6216 0.6261 0.601 0.5589 0.5443 0.5178 0.5637 0.5767 0.5678
2170.100 0.5175 0.4682 0.5013 0.4586 0.4696 0.4227 0.3993 0.4279 0.4126 0.4862
2189.390 0.5037 0.5152 0.4953 0.4218 0.402 0.4255 0.4478 0.3717 0.3492 0.4264
2208.680 0.4697 0.4714 0.4884 0.5087 0.5038 0.54 0.6086 0.555 0.4924 0.5587
2227.970 0.5665 0.5086 0.5369 0.5506 0.5033 0.4436 0.3772 0.3658 0.4551 0.5066
2247.259 0.468 0.4657 0.4363 0.4342 0.4484 0.4889 0.6152 0.6402 0.5786 0.5337
2266.549 0.5135 0.5596 0.6006 0.6173 0.5899 0.5391 0.5454 0.5909 0.6004 0.6106
2285.839 0.6284 0.5798 0.5184 0.5777 0.578 0.5351 0.5863 0.5528 0.4933 0.5918
2305.129 0.6183 0.5548 0.5321 0.5566 0.624 0.6145 0.5984 0.5711 0.5295 0.5536
2324.418 0.6099 0.5983 0.6078 0.5938 0.5759 0.572 0.5442 0.593 0.6763 0.7277
2343.708 0.7584 0.7693 0.7613 0.8396 0.9206 0.8316 0.776 0.7806 0.7331 0.6866
2362.998 0.7202 0.7267 0.7231 0.7526 0.7703 0.8184 0.8194 0.8276 0.8906 0.9403
2382.288 0.919 0.9056 0.945 0.9846 0.9703 0.9652 0.9568 0.9573 0.979 0.9836
2401.578 0.9121 0.8499 0.8544 0.8938 0.9387 0.9376 0.9369 0.9893 0.9998 0.954
2420.867 0.9095 0.8754 0.8858 0.8954 0.9435 0.9518 0.9042 0.8268 0.8198 0.8665
2440.157 0.8688 0.8592 0.89 0.9401 0.9145 0.8494 0.8907 0.8556 0.8408 0.8682
2459.447 0.8422 0.8798 0.8686 0.8983 0.8659 0.8064 0.8224 0.7818 0.8173 0.877
2478.737 0.8226 0.8108 0.7931 0.8213 0.7923 0.7341 0.7422 0.6985 0.6909 0.6927
2498.026 0.6655 0.6878 0.7334 0.7308 0.7368 0.7613 0.7914 0.7981 0.7678 0.7009
2517.316 0.6927 0.6319 0.614 0.6641 0.7139 0.7616 0.7014 0.7487 0.7437 0.6937
2536.606 0.6953 0.6781 0.7367 0.7792 0.78 0.7711 0.7613 0.8602 0.9209 0.8127
2555.896 0.8107 0.8476 0.8427 0.894 0.9005 0.8768 0.9309 0.9233 0.9599 0.9774
2575.186 0.8619 0.7582 0.6684 0.8074 0.8471 0.7242 0.7723 0.7745 0.7821 0.871
2594.475 0.8355 0.8058 0.8757 0.9111 0.9213 0.9257 0.9071 0.8991 0.892 0.8666
2613.765 0.8388 0.8485 0.8868 0.904 0.9193 0.9282 0.9586 0.8912 0.9194 0.9878
2633.055 0.9083 0.8704 0.9222 0.964 0.9411 0.8964 0.8575 0.9106 0.9271 1.01
2652.345 1.1 1.11 1.14 1.06 0.9758 1.03 1.05 1.08 1.09 0.9984
2671.634 0.977 1.02 0.9836 0.9823 1.06 1.07 1.11 1.12 1.06 1.12
2690.924 1.15 1.13 1.16 1.24 1.22 1.21 1.37 1.46 1.51 1.52
2710.214 1.57 1.69 1.76 1.78 1.84 1.96 1.97 2 2.08 2.07
2729.504 1.97 1.96 2.12 2.19 2.17 2.27 2.37 2.37 2.38 2.33
2748.794 2.33 2.27 2.2 2.19 2.14 2.05 1.98 1.89 1.88 1.81
2768.083 1.73 1.75 1.73 1.86 1.98 1.96 2.05 2.17 2.14 2.2
2787.373 2.3 2.38 2.39 2.39 2.49 2.52 2.49 2.41 2.52 2.68
2806.663 2.69 2.86 2.94 2.96 3.12 3.35 3.54 3.69 3.93 4.18
2825.953 4.4 4.67 5.05 5.37 5.74 6.33 6.97 7.67 8.44 9.15
2845.242 9.9 10.65 11.48 12.49 13.51 14.62 15.81 17.17 18.82 20.58
2864.532 22.51 24.51 26.51 28.53 30.45 32.32 33.82 34.67 35.06 35.02
2883.822 34.52 33.62 32.71 32.09 31.57 31.45 31.8 32.39 33.46 35.05
2903.112 36.9 38.93 41.1 43.59 46.21 48.49 50.48 52.01 53.15 53.8
2922.401 54 53.98 53.57 52.8 51.77 50.46 49.13 48.13 47.38 47.12
2941.691 47.47 48.34 50.05 52.53 55.75 59.79 64.43 69.4 74.18 78.72
2960.981 82.88 86.61 89.73 91.22 90.37 86.75 80.51 72.43 63.4 54.38
2980.271 46.3 39.45 33.84 29.55 26.18 23.79 22.09 20.87 20.46 20.54
2999.561 20.88 21.36 21.85 22.08 21.68 20.75 19.38 17.7 16.09 14.63
3018.850 13.3 12.26 11.39 10.66 10.14 9.61 9.14 8.87 8.65 8.47
3038.140 8.3 8.14 7.96 7.78 7.57 7.37 7.26 7.06 6.75 6.59
3057.430 6.54 6.44 6.29 6.18 5.96 5.65 5.45 5.29 5.21 5.06
3076.720 4.85 4.75 4.45 4.11 4.06 3.99 3.85 3.62 3.38 3.22
3096.009 2.95 2.87 2.94 2.74 2.5 2.45 2.4 2.32 2.26 2.13
3115.299 2.02 1.9 1.9 2.03 1.99 2.02 1.91 1.71 1.79 1.92
3134.589 1.9 1.65 1.6 1.63 1.54 1.56 1.59 1.58 1.52 1.6
3153.879 1.68 1.54 1.6 1.76 1.74 1.58 1.41 1.51 1.56 1.51
3173.169 1.49 1.48 1.33 1.25 1.34 1.47 1.42 1.33 1.4 1.45
3192.458 1.46 1.35 1.29 1.28 1.27 1.34 1.37 1.31 1.2 1.12
3211.748 1.22 1.28 1.22 1.19 1.12 1.01 0.9829 1.09 1.17 1.01
3231.038 0.9946 1.14 0.994 0.855 0.9086 0.9608 1 0.9592 0.8514 0.8452
3250.328 0.9478 0.8805 0.9537 1.16 1.2 1.12 0.9473 0.8301 0.8664 1.1
3269.617 1.13 0.9206 0.9131 0.9933 1.02 1.01 0.9232 0.8837 0.949 1
3288.907 1.06 1.05 0.9888 0.9776 0.9306 0.9697 0.9557 0.9737 0.9065 0.9044
3308.197 1.03 0.9801 0.8536 0.9145 0.997 0.9911 0.9518 0.8542 0.8865 0.7683
3327.487 0.7454 0.8441 0.8103 0.7705 0.7797 0.8131 0.8357 0.789 0.8278 0.7949
3346.777 0.7595 0.9237 0.878 0.7936 0.7803 0.8402 0.9118 0.8583 0.8538 0.7911
3366.066 0.8192 0.9824 1.07 0.9954 0.9452 1.04 0.8957 0.8961 1.07 1
3385.356 0.857 0.9027 0.9789 1.07 1.15 1.06 0.9495 0.9578 1.08 0.9719
3404.646 0.899 0.9751 1.02 1.12 1.15 1.15 1.01 0.9107 1.12 1.21
3423.936 1.06 1.06 1.12 1.04 0.88 0.9173 1.04 1.06 1.04 0.9957
3443.225 0.9745 0.8984 0.8597 0.8494 0.8823 0.8677 0.7488 0.7543 0.7949 0.8385
3462.515 0.837 0.77 0.8221 0.8447 0.7615 0.7548 0.8041 0.7096 0.706 0.7631
3481.805 0.703 0.6637 0.7362 0.7312 0.7165 0.8461 0.8601 0.6922 0.6209 0.6108
3501.095 0.5953 0.6338 0.6829 0.6928 0.7139 0.7654 0.6599 0.4824 0.351 0.497
3520.385 0.701 0.8504 0.9213 0.7699 0.6425 0.6356 0.6622 0.7219 0.8064 0.7684
3539.674 0.5941 0.6207 0.7196 0.6634 0.7173 0.6971 0.6203 0.5906 0.6613 0.6045
3558.964 0.6424 0.726 0.7021 0.8832 0.9306 0.7063 0.5681 0.7072 0.8718 1.05
3578.254 1.15 1.03 0.9937 0.993 1.03 1.11 1.13 1.25 1.44 1.38
3597.544 1.41 1.61 1.62 1.58 1.67 1.88 2.29 2.48 2.59 2.96
3616.833 3.33 3.93 4.4 5.01 5.92 6.86 8.39 10.21 12.01 14.34
3636.123 17.13 20.49 24.28 28.26 31.83 33.95 34.03 31.79 28.21 24.54
3655.413 21.08 18.48 17.09 16.71 17.06 17.6 18.35 19.16 19.62 19.53
3674.703 18.84 17.58 16.06 14.43 12.87 11.46 10.05 8.78 7.8 6.89
3693.993 6.04 5.39 4.67 3.91 3.47 3.26 2.97 2.6 2.26 2.11
3713.282 1.92 1.69 1.63 1.52 1.35 1.32 1.36 1.31 1.3 1.16
3732.572 1.16 1.15 1.14 1.27 1.16 1.05 0.9466 0.9858 1.15 1.09
3751.862 0.9488 0.9078 0.8916 0.8717 0.9054 0.7249 0.7248 0.9568 0.9329 0.7966
3771.152 0.7192 0.7745 0.9237 0.7926 0.8123 1.01 0.8231 0.8596 0.9432 0.7429
3790.441 0.6815 0.815 0.9103 0.8969 0.7982 0.7473 0.7622 0.8533 0.8559 0.8302
3809.731 0.8356 0.9103 0.9213 0.8286 0.9269 0.9611 0.9857 0.9336 0.8446 0.8873
3829.021 0.9488 0.9876 0.996 0.9193 0.9229 0.8086 0.7986 0.9183 0.9393 1.07
3848.311 1.07 0.8846 0.7805 1.05 1.21 1.04 1.1 1.19 1.07 1.05
3867.601 1.06 1.09 1.15 1.19 1.2 1.13 1.09 1.05 0.9391 1.05
3886.890 1.17 1.11 1.08 0.9733 0.9783 1.08 1.1 1.23 1.36 1.25
3906.180 1.12 1.11 1.14 1.07 0.9162 0.9949 1.03 0.8631 0.8762 0.8589
3925.470 0.8997 0.9271 0.823 0.7958 0.7452 0.8086 0.8192 0.7439 0.7415 0.7797
3944.760 0.8823 0.8914 0.7327 0.5543 0.543 0.5748 0.6715 0.8439 0.9995 1.01
3964.049 0.6991 0.6601 0.738 0.6689 0.7799 0.6863 0.6854 0.8486 0.7496 0.7099
3983.339 0.7795 0.8517 1.04 0.8887 0.6816 0.6878 0.7392 0.8368 0.7357 0.8187
##END=
