##TITLE=Mepivacaine
##JCAMP-DX=4.24
##DATA TYPE=INFRARED SPECTRUM
##ORIGIN=NIST Mass Spectrometry Data Center
##OWNER=NIST Standard Reference Data Program
Collection (C) 2018 copyright by the U.S. Secretary of Commerce
on behalf of the United States of America. All rights reserved.
##CAS REGISTRY NO=96-88-8
##MOLFORM=C 15 H 22 N 2 O
##$NIST SOURCE=MSDC-IR
##SPECTROMETER/DATA SYSTEM=HP-GC/MS/IRD
##STATE=gas
##XUNITS=1/CM
##YUNITS=ABSORBANCE
##XFACTOR=1.0
##YFACTOR=0.000001000
##DELTAX=4.0
##FIRSTX=550.0
##LASTX=3846.0
##FIRSTY=0.000350
##MAXX=3846
##MINX=550
##MAXY=0.01
##MINY=0
##NPOINTS=825
##XYDATA=(X++(Y..Y))
550.0 350 193 135 248 349 321 233 121 238 347
590.0 304 248 188 165 123 186 264 315 314 358
630.0 496 569 533 424 310 192 159 120 37 34
670.0 112 134 47 0 46 47 20 102 193 235
710.0 232 168 132 84 73 70 36 21 66 251
750.0 551 971 1568 2096 2060 1512 928 597 485 310
790.0 163 139 84 10 8 63 58 99 187 254
830.0 322 338 267 162 128 99 55 45 63 106
870.0 167 212 244 267 239 175 103 35 41 68
910.0 96 138 122 100 86 93 137 218 296 296
950.0 271 246 191 141 124 125 132 169 236 315
990.0 379 407 405 353 303 282 319 443 641 934
1030.0 1200 1251 1072 820 666 582 530 478 419 381
1070.0 396 468 577 708 828 935 1076 1195 1298 1469
1110.0 1622 1621 1449 1203 1047 999 1014 1071 1140 1110
1150.0 1022 955 878 787 654 565 544 551 586 685
1190.0 798 885 960 1084 1357 1628 1680 1541 1306 1040
1230.0 823 687 628 579 605 710 834 1055 1304 1551
1270.0 1802 1894 1763 1498 1235 1064 975 932 876 794
1310.0 724 683 694 738 734 654 590 583 547 519
1350.0 554 578 607 644 744 916 1034 994 872 759
1390.0 704 695 719 767 838 934 1070 1280 1526 1792
1430.0 2094 2478 3007 3653 4375 5143 5803 6319 6799 7383
1470.0 8169 9078 9842 10000 9335 7941 6266 4856 3858 3150
1510.0 2623 2226 1903 1655 1458 1305 1160 1028 898 785
1550.0 716 655 580 543 509 473 466 479 499 505
1590.0 508 499 454 402 358 326 311 295 287 299
1630.0 302 309 316 334 355 348 345 362 405 471
1670.0 525 586 688 814 1010 1324 1820 2556 3600 4875
1710.0 6110 6745 6416 5307 3928 2703 1830 1284 930 697
1750.0 557 463 407 381 355 323 277 219 168 133
1790.0 118 123 139 127 113 106 100 87 83 90
1830.0 103 126 131 126 107 96 102 82 70 71
1870.0 62 67 68 60 52 47 57 67 87 98
1910.0 108 138 148 128 120 109 83 65 50 41
1950.0 31 23 25 27 29 36 30 30 50 48
1990.0 45 33 5 19 34 42 47 41 32 27
2030.0 27 27 52 56 43 40 44 45 50 51
2070.0 35 24 23 28 31 20 12 22 40 37
2110.0 50 59 54 58 37 31 30 29 43 51
2150.0 53 51 51 53 45 41 27 18 22 19
2190.0 16 31 33 28 41 38 26 19 40 46
2230.0 15 31 37 2 20 47 51 52 59 56
2270.0 49 73 90 78 71 81 76 60 55 57
2310.0 51 49 52 46 33 50 57 46 52 40
2350.0 27 49 56 40 38 38 32 30 36 39
2390.0 42 45 35 41 53 49 46 48 45 47
2430.0 52 41 41 44 38 38 39 53 54 45
2470.0 46 60 73 64 57 55 47 37 30 40
2510.0 51 58 76 64 45 53 67 81 87 91
2550.0 88 64 41 49 63 65 75 97 109 108
2590.0 99 105 120 112 91 88 99 113 133 132
2630.0 124 154 171 174 189 208 213 213 227 233
2670.0 233 243 250 238 253 297 317 328 364 411
2710.0 465 526 571 588 566 518 466 434 412 411
2750.0 418 425 471 539 619 717 849 991 1167 1405
2790.0 1734 2210 2660 2771 2457 2000 1688 1547 1553 1670
2830.0 1764 1686 1486 1355 1381 1571 1949 2407 2799 2999
2870.0 2940 2655 2295 2064 1931 1889 1920 1947 1977 2103
2910.0 2285 2518 2880 3430 4119 4855 5653 6820 8300 9028
2950.0 8217 6445 4855 3753 2978 2468 2173 1985 1800 1654
2990.0 1538 1382 1217 1023 857 770 786 827 866 904
3030.0 903 930 994 1058 1160 1236 1244 1247 1218 1147
3070.0 1054 939 813 673 556 462 355 292 270 253
3110.0 204 153 149 149 124 101 90 92 82 81
3150.0 110 125 112 99 101 100 106 91 67 61
3190.0 37 28 56 93 105 78 70 87 87 108
3230.0 96 70 79 82 82 91 99 108 127 134
3270.0 110 127 157 151 165 184 196 211 211 207
3310.0 238 295 365 426 487 508 497 509 549 548
3350.0 573 630 639 641 656 723 892 1156 1396 1450
3390.0 1291 999 725 550 447 379 299 205 185 192
3430.0 198 193 186 181 167 153 121 74 50 62
3470.0 68 72 58 45 44 43 49 52 34 16
3510.0 34 21 10 14 11 39 37 39 60 24
3550.0 4 44 59 50 37 30 34 32 40 63
3590.0 48 22 37 37 8 26 37 7 17 24
3630.0 10 32 28 11 23 25 16 41 37 45
3670.0 61 40 50 46 26 34 38 22 30 47
3710.0 51 70 69 33 51 55 24 58 75 42
3750.0 39 37 21 56 60 33 34 44 40 39
3790.0 57 99 103 72 56 47 49 88 102 66
3830.0 47 59 66 58 53
##END=
