##TITLE=p-Bromophenyl octyl ether
##JCAMP-DX=4.24
##DATA TYPE=INFRARED SPECTRUM
##ORIGIN=EPA-IR VAPOR PHASE LIBRARY
##OWNER=SRD/NIST
Collection (C) 2018 copyright by the U.S. Secretary of Commerce
on behalf of the United States of America. All rights reserved.
##CAS REGISTRY NO=96693-05-9
##MOLFORM=C 14 H 21 Br O
##$NIST SOURCE=MSDC-IR
##STATE=gas
##XUNITS=1/CM
##YUNITS=ABSORBANCE
##XFACTOR=1.
##YFACTOR=0.001
##DELTAX=1.92898
##FIRSTX=549.8
##LASTX=4000.7
##FIRSTY=0.8512
##MAXX=4000.7
##MINX=549.759
##MAXY=0.083199
##MINY=0
##NPOINTS=1790
##XYDATA=(X++(Y..Y))
549.759 0.8512 0.5811 0.27409 0.4654 0.356 0.3886 0.5718 0.6341 0.6954 0.6417
569.049 0.3985 0.19473 0.1077 0.4217 0.7519 0.6434 0.6998 1.1813 1.399 1.489
588.339 1.789 1.959 2.359 2.809 3.119 3.469 3.739 3.799 3.679 3.639
607.628 3.369 3.169 3.369 3.319 3.229 3.419 3.419 3.439 3.709 3.999
626.918 4.419 4.969 5.509 6.089 6.559 6.919 7.119 6.739 6.089 5.319
646.208 4.389 3.519 2.599 1.919 1.569 1.319 1.1613 1.1053 0.918 0.7883
665.498 0.8036 0.6329 0.4942 0.4535 0.4919 0.6018 0.6922 0.6392 0.6449 0.7584
684.787 0.8225 0.815 0.8431 0.8905 0.9643 1.0387 1.0525 1.0377 1.0557 1.1448
704.077 1.1301 1.1697 1.349 1.459 1.489 1.559 1.619 1.669 1.769 1.729
723.367 1.619 1.669 1.479 1.339 1.469 1.499 1.349 1.319 1.329 1.329
742.657 1.369 1.219 1.0969 1.0537 1.0111 1.1493 1.1039 1.0831 1.1096 1.0727
761.947 1.289 1.219 1.1575 1.389 1.379 1.339 1.519 1.619 1.639 1.699
781.236 1.769 1.959 2.029 2.219 2.629 2.899 3.269 3.829 4.129 4.229
800.526 4.409 4.609 4.859 5.389 6.269 7.319 8.389 10.029 12.179 14.189
819.816 15.579 16.079 15.789 14.769 13.249 11.579 9.849 8.229 7.029 6.159
839.106 5.469 4.949 4.469 4.049 3.579 3.019 2.779 2.659 2.259 1.849
858.395 1.589 1.509 1.459 1.469 1.469 1.239 1.1601 1.1633 1.1065 1.0653
877.685 1.0666 1.1423 1.1254 1.1253 1.1558 1.1609 1.309 1.309 1.359 1.389
896.975 1.309 1.459 1.609 1.659 1.619 1.649 1.779 1.869 1.759 1.509
916.265 1.529 1.649 1.669 1.719 1.699 1.709 1.799 1.839 1.839 1.879
935.555 1.939 1.719 1.829 2.049 2.049 2.009 1.949 2.249 2.419 2.519
954.844 2.879 3.169 3.359 3.589 3.899 4.179 4.309 4.569 4.739 4.709
974.134 4.939 5.179 5.389 5.729 6.029 6.519 7.029 7.259 7.709 8.249
993.424 8.779 9.639 11.009 12.889 15.159 17.079 17.759 17.149 15.309 13.059
1012.714 11.559 11.089 10.939 10.969 11.229 11.549 12.119 12.759 13.069 13.249
1032.003 13.519 13.789 13.849 13.569 13.259 12.669 12.209 12.009 11.419 10.919
1051.293 10.639 10.089 9.769 9.499 9.069 9.369 10.259 11.179 12.449 14.439
1070.583 16.559 17.609 16.949 14.779 12.059 9.409 7.459 6.309 5.659 5.119
1089.873 4.489 4.179 4.209 4.429 4.299 3.979 3.929 3.599 3.309 3.389
1109.163 3.239 3.379 3.599 2.779 2.419 2.899 2.519 2.199 2.619 2.839
1128.452 2.729 2.309 2.269 2.229 1.939 2.129 2.139 2.059 2.019 2.019
1147.742 2.239 2.529 2.549 2.699 3.439 4.329 5.719 8.049 11.559 16.009
1167.032 19.559 20.579 18.699 14.959 11.129 8.179 6.649 5.959 5.609 5.629
1186.322 5.959 6.049 6.279 6.969 7.669 8.559 9.229 10.159 11.499 12.549
1205.611 13.989 15.579 17.129 19.199 21.439 24.299 28.139 32.479 37.299 42.589
1224.901 48.169 53.759 58.979 64.309 69.329 73.289 76.109 76.949 74.759 69.519
1244.191 61.849 52.979 44.719 37.919 32.669 29.229 26.809 25.159 24.189 23.609
1263.481 23.559 23.929 24.499 25.219 26.359 27.349 27.789 27.709 26.899 25.419
1282.771 23.379 21.159 19.139 17.349 15.849 14.729 13.809 13.039 12.419 11.809
1302.060 11.139 10.419 9.679 8.939 8.239 7.589 6.929 6.349 5.979 5.619
1321.350 5.269 4.979 4.729 4.489 4.259 4.149 3.989 3.849 3.779 3.649
1340.640 3.629 3.659 3.599 3.539 3.579 3.689 3.719 3.699 3.709 3.649
1359.930 3.569 3.499 3.479 3.589 3.689 3.779 4.029 4.409 4.899 5.409
1379.219 6.019 6.719 7.309 7.629 7.619 7.209 6.499 5.729 5.049 4.519
1398.509 4.099 3.709 3.429 3.269 3.159 3.069 3.029 3.059 3.099 3.139
1417.799 3.289 3.469 3.649 3.799 3.999 4.219 4.439 4.639 4.919 5.199
1437.089 5.519 5.839 6.169 6.609 6.999 7.429 8.029 8.729 9.499 10.209
1456.378 11.049 12.179 13.549 15.239 17.509 20.779 24.999 29.739 34.079 37.369
1475.668 39.319 41.109 44.139 49.929 59.199 70.509 80.099 83.199 77.549 64.639
1494.958 48.639 34.199 24.149 17.629 13.519 10.919 9.019 7.699 6.779 6.119
1514.248 5.629 5.139 4.749 4.429 4.009 3.629 3.349 3.019 2.729 2.569
1533.538 2.389 2.299 2.259 2.169 2.159 2.169 2.189 2.219 2.229 2.369
1552.827 2.499 2.589 2.789 3.049 3.379 3.719 4.199 4.869 5.679 6.629
1572.117 7.809 9.029 10.209 11.249 12.049 12.609 13.079 13.569 13.759 13.619
1591.407 12.939 11.809 10.539 9.179 7.899 6.689 5.589 4.649 3.919 3.359
1610.697 2.939 2.689 2.559 2.399 2.169 1.969 1.869 1.839 1.699 1.589
1629.986 1.489 1.429 1.419 1.409 1.349 1.289 1.249 1.1895 1.1616 1.061
1649.276 0.9921 1.0082 0.9799 0.8641 0.8262 0.8362 0.7833 0.7187 0.7158 0.7736
1668.566 0.7732 0.7531 0.7455 0.685 0.5618 0.5259 0.5663 0.5848 0.6517 0.7076
1687.856 0.6562 0.6119 0.6328 0.613 0.5781 0.5925 0.6027 0.6153 0.6253 0.6201
1707.146 0.613 0.617 0.6377 0.6412 0.6655 0.6965 0.6726 0.7376 0.8014 0.7893
1726.435 0.8057 0.7889 0.7878 0.8118 0.8401 0.903 0.9197 0.9785 1.007 0.9385
1745.725 0.8716 0.8193 0.7086 0.633 0.6888 0.6524 0.568 0.56 0.5223 0.4618
1765.015 0.4768 0.4645 0.5102 0.5606 0.5565 0.5233 0.4828 0.4761 0.4493 0.4106
1784.305 0.4245 0.4882 0.4987 0.4899 0.5089 0.5096 0.5122 0.5559 0.5238 0.4971
1803.594 0.532 0.5511 0.5432 0.5783 0.5943 0.578 0.5196 0.4672 0.5124 0.5677
1822.884 0.5799 0.5996 0.6346 0.6526 0.6361 0.6067 0.6969 0.7844 0.7847 0.7859
1842.174 0.8385 0.8871 0.8939 0.8962 0.8943 0.9034 0.9577 1.0717 1.1203 1.1294
1861.464 1.1956 1.269 1.339 1.369 1.329 1.289 1.229 1.121 1.0804 1.0477
1880.754 0.9593 0.9119 0.9409 0.9439 0.8938 0.8569 0.8261 0.7833 0.715 0.6426
1900.043 0.6076 0.5776 0.5721 0.5798 0.532 0.5253 0.5471 0.5012 0.4323 0.4271
1919.333 0.4625 0.4394 0.4476 0.4862 0.4844 0.4948 0.5201 0.498 0.4634 0.411
1938.623 0.3942 0.4511 0.4949 0.5132 0.514 0.5142 0.4688 0.4307 0.4207 0.4305
1957.913 0.4395 0.4506 0.481 0.4772 0.4589 0.5084 0.5303 0.5151 0.5446 0.5524
1977.202 0.5683 0.5845 0.5913 0.6038 0.6296 0.6186 0.6486 0.6567 0.6367 0.6825
1996.492 0.7393 0.7409 0.7349 0.7524 0.7125 0.7438 0.8233 0.8538 0.8585 0.8648
2015.782 0.8796 0.8985 0.8954 0.9008 0.8678 0.8517 0.9218 0.9289 0.9425 0.963
2035.072 0.9438 0.9684 0.9721 1.0297 1.021 0.911 0.8964 0.8915 0.9092 0.9142
2054.362 0.8846 0.873 0.8669 0.8678 0.8523 0.8531 0.8909 0.9312 0.9027 0.8663
2073.651 0.8392 0.7755 0.7987 0.7891 0.6938 0.6857 0.7043 0.6326 0.5748 0.5542
2092.941 0.5796 0.5872 0.5272 0.5032 0.4927 0.4872 0.4862 0.4661 0.4506 0.4331
2112.231 0.4463 0.4416 0.3819 0.3569 0.3444 0.3483 0.4023 0.4217 0.3355 0.3298
2131.521 0.3661 0.316 0.3003 0.3178 0.27597 0.2994 0.3677 0.3202 0.28 0.27436
2150.810 0.27272 0.26641 0.27669 0.3104 0.3267 0.3316 0.2737 0.208809 0.1788 0.208917
2170.100 0.28741 0.3092 0.26378 0.22593 0.22725 0.208076 0.27473 0.3338 0.2894 0.27688
2189.390 0.27858 0.24338 0.24039 0.26516 0.3024 0.3672 0.3409 0.26666 0.27686 0.27569
2208.680 0.27266 0.3232 0.3657 0.3955 0.3219 0.3174 0.346 0.29803 0.28476 0.3119
2227.970 0.27802 0.26646 0.323 0.29041 0.29533 0.3328 0.29508 0.3219 0.3664 0.3484
2247.259 0.3892 0.3796 0.318 0.3244 0.3821 0.3833 0.3617 0.3874 0.4192 0.3873
2266.549 0.3767 0.4653 0.5021 0.4816 0.4846 0.5127 0.4774 0.4297 0.4952 0.5228
2285.839 0.4956 0.4298 0.4558 0.5694 0.5638 0.4834 0.413 0.3735 0.4245 0.4862
2305.129 0.4675 0.4251 0.3677 0.3409 0.3337 0.3711 0.3761 0.3396 0.351 0.4032
2324.418 0.4398 0.4234 0.4046 0.3748 0.3971 0.4462 0.3922 0.4736 0.5279 0.4115
2343.708 0.389 0.4167 0.4186 0.3856 0.3851 0.4678 0.4799 0.4468 0.4436 0.4336
2362.998 0.4615 0.4965 0.5182 0.4846 0.4507 0.4692 0.4676 0.486 0.4959 0.529
2382.288 0.5491 0.566 0.621 0.6024 0.5754 0.5906 0.5951 0.6055 0.6526 0.6697
2401.578 0.6313 0.6118 0.6226 0.6209 0.6376 0.617 0.6088 0.5919 0.5943 0.6354
2420.867 0.5939 0.5569 0.5582 0.578 0.5755 0.4924 0.4958 0.5833 0.5438 0.5356
2440.157 0.5976 0.6634 0.6069 0.5387 0.6744 0.7107 0.6804 0.7101 0.6574 0.5731
2459.447 0.5576 0.579 0.6118 0.6612 0.6838 0.6598 0.6304 0.5741 0.5764 0.6602
2478.737 0.6963 0.641 0.6317 0.6831 0.6299 0.6817 0.8338 0.7865 0.6988 0.7253
2498.026 0.7264 0.7409 0.7187 0.7367 0.7766 0.7674 0.8136 0.8025 0.8565 0.8462
2517.316 0.7665 0.8235 0.86 0.8275 0.841 0.7817 0.679 0.6735 0.6479 0.6429
2536.606 0.6332 0.6794 0.7308 0.7259 0.6372 0.563 0.5895 0.5779 0.5636 0.5827
2555.896 0.5667 0.5627 0.5867 0.5665 0.6234 0.6596 0.617 0.6149 0.5808 0.6426
2575.186 0.6835 0.5736 0.5351 0.5074 0.4874 0.5242 0.5363 0.4988 0.5004 0.5681
2594.475 0.5954 0.5521 0.5715 0.6491 0.6214 0.619 0.6308 0.6099 0.5908 0.5707
2613.765 0.5429 0.5335 0.5974 0.591 0.5101 0.4866 0.5571 0.5542 0.5418 0.6666
2633.055 0.759 0.7161 0.6305 0.652 0.7055 0.6736 0.6463 0.6378 0.6213 0.6398
2652.345 0.7268 0.8196 0.8455 0.8478 0.8809 0.8069 0.7958 0.8397 0.8049 0.8885
2671.634 0.9978 1.004 0.9499 0.8738 0.8694 0.9576 0.9944 0.9523 0.9369 0.9196
2690.924 0.8531 0.9338 1.021 0.9568 0.9197 0.955 0.9986 1.0126 0.998 0.9666
2710.214 0.9528 0.9817 0.9462 0.926 0.985 1.043 1.0413 1.0134 1.1434 1.249
2729.504 1.1359 1.1567 1.309 1.269 1.239 1.279 1.319 1.379 1.429 1.529
2748.794 1.499 1.469 1.559 1.579 1.449 1.429 1.489 1.509 1.549 1.459
2768.083 1.409 1.409 1.329 1.359 1.439 1.469 1.559 1.659 1.739 1.839
2787.373 1.899 1.939 1.949 2.009 2.129 2.119 2.159 2.329 2.359 2.419
2806.663 2.619 2.659 2.739 2.909 3.079 3.249 3.389 3.579 3.719 3.789
2825.953 3.979 4.229 4.499 4.769 5.109 5.529 6.019 6.599 7.199 8.039
2845.242 9.079 10.209 11.629 13.219 15.079 17.279 19.529 21.659 23.509 25.119
2864.532 26.149 26.579 26.669 26.339 25.699 25.029 24.449 23.929 23.549 23.279
2883.822 22.909 22.339 21.759 21.219 20.739 20.519 20.459 20.629 21.149 21.929
2903.112 23.079 24.569 26.229 28.199 30.459 32.869 35.359 38.039 41.009 44.289
2922.401 47.909 51.679 55.639 59.559 62.989 65.719 67.249 67.439 66.589 65.019
2941.691 62.719 59.839 56.739 53.419 50.109 46.939 44.129 41.909 40.179 38.999
2960.981 38.389 37.809 37.089 36.259 34.859 32.689 29.729 26.199 22.709 19.529
2980.271 16.739 14.419 12.569 11.049 9.819 8.799 7.879 7.069 6.379 5.909
2999.561 5.549 5.129 4.819 4.519 4.139 3.859 3.599 3.349 3.289 3.299
3018.850 3.209 3.119 3.149 3.159 3.089 3.109 3.189 3.209 3.179 3.279
3038.140 3.439 3.429 3.469 3.429 3.109 2.839 2.649 2.469 2.349 2.349
3057.430 2.409 2.369 2.269 2.259 2.399 2.439 2.449 2.679 2.839 2.899
3076.720 2.879 2.939 3.039 3.019 3.029 2.999 3.009 3.079 3.209 3.349
3096.009 3.249 3.069 2.909 2.679 2.389 2.149 1.889 1.599 1.319 1.239
3115.299 1.1209 0.9208 0.8897 0.8764 0.8155 0.8171 0.868 0.8292 0.8116 0.7073
3134.589 0.5897 0.5533 0.579 0.7189 0.801 0.7023 0.5458 0.555 0.6481 0.6166
3153.879 0.6781 0.6422 0.5017 0.5092 0.4571 0.4289 0.4739 0.4486 0.4924 0.5495
3173.169 0.4935 0.5274 0.5782 0.6053 0.6911 0.6388 0.516 0.4645 0.4356 0.4356
3192.458 0.4043 0.3944 0.3651 0.3435 0.339 0.3295 0.3524 0.3617 0.28005 0.26992
3211.748 0.28234 0.26122 0.24783 0.23636 0.21848 0.25771 0.3403 0.3275 0.28665 0.179
3231.038 0.1788 0.2581 0.27303 0.19716 0.1573 0.205262 0.1553 0.163 0.29513 0.3649
3250.328 0.25389 0.207192 0.3132 0.3166 0.3331 0.3972 0.3672 0.3471 0.3331 0.28291
3269.617 0.1704 0.082 0.169 0.22558 0.20955 0.1558 0.1264 0.2091 0.118 0.1322
3288.907 0.23098 0.1444 0.092 0.088 0.19482 0.1395 0.074 0.1866 0.202614 0.27088
3308.197 0.3217 0.3119 0.3777 0.3908 0.29648 0.3124 0.3325 0.22361 0.1879 0.22999
3327.487 0.29475 0.1333 0.016 0.1336 0.203777 0.18936 0.1416 0.1587 0.25176 0.334
3346.777 0.21381 0.2398 0.4176 0.24064 0.198032 0.23393 0.1193 0.1559 0.19783 0.29178
3366.066 0.3241 0.0996 0.1253 0.26233 0.1752 0.1165 0.1602 0.22484 0.3306 0.3356
3385.356 0.21622 0.1634 0.1243 0.1272 0.1619 0.1853 0.1626 0.22291 0.22434 0.26219
3404.646 0.3457 0.2199 0.1389 0.1779 0.1382 0.1083 0.1529 0.24709 0.3917 0.3516
3423.936 0.26872 0.27449 0.28883 0.331 0.3224 0.25466 0.25204 0.3105 0.22977 0.163
3443.225 0.200615 0.21795 0.23227 0.22727 0.27398 0.3286 0.22866 0.1827 0.19519 0.204294
3462.515 0.25649 0.3538 0.4935 0.4113 0.24389 0.2256 0.27321 0.28004 0.3196 0.3039
3481.805 0.1424 0.1131 0.1598 0.24091 0.27658 0.28042 0.1824 0.09 0.3022 0.3642
3501.095 0.1844 0.1308 0.202243 0.24572 0.1946 0.1697 0.1333 0.055 0.1576 0.1863
3520.385 0.081 0.014 0.021 0.1589 0.2398 0.21948 0.089 0.1249 0.29452 0.26031
3539.674 0.1386 0.052 0.1525 0.23104 0.19667 0.1114 0.15 0.304 0.28648 0.1635
3558.964 0.22868 0.3107 0.26052 0.19176 0.1613 0.1164 0.018 0 0.1387 0.333
3578.254 0.27822 0.1012 0.087 0.168 0.27691 0.29471 0.21931 0.22057 0.3069 0.3338
3597.544 0.2795 0.2519 0.3089 0.3113 0.26295 0.19288 0.1376 0.29538 0.3334 0.3769
3616.833 0.28036 0.09 0.118 0.1336 0.28828 0.3276 0.29459 0.3536 0.3155 0.29025
3636.123 0.26693 0.23573 0.2328 0.25752 0.25771 0.2968 0.3004 0.21105 0.2764 0.3934
3655.413 0.3558 0.26152 0.26975 0.4005 0.423 0.3767 0.3475 0.4188 0.4835 0.5427
3674.703 0.4947 0.3461 0.3981 0.5162 0.531 0.4325 0.4879 0.5371 0.4873 0.3993
3693.993 0.3865 0.4412 0.3888 0.3152 0.25225 0.26721 0.324 0.28748 0.3392 0.3906
3713.282 0.3486 0.29423 0.3315 0.4151 0.4166 0.3926 0.3255 0.3137 0.3023 0.3494
3732.572 0.4291 0.3514 0.1124 0.1054 0.23308 0.29148 0.433 0.4722 0.4211 0.4466
3751.862 0.4714 0.3871 0.3837 0.4864 0.4463 0.3746 0.3543 0.26277 0.28593 0.3232
3771.152 0.3283 0.3088 0.3154 0.399 0.4382 0.4338 0.3762 0.3972 0.3657 0.3558
3790.441 0.4181 0.3969 0.5284 0.5953 0.6258 0.6921 0.5166 0.3615 0.3503 0.3623
3809.731 0.25021 0.3243 0.3936 0.3289 0.3957 0.419 0.4715 0.4952 0.3791 0.3085
3829.021 0.4467 0.5484 0.3922 0.3197 0.3628 0.22302 0.27464 0.3841 0.387 0.4107
3848.311 0.3131 0.4031 0.5108 0.3305 0.29259 0.4983 0.5714 0.5847 0.4916 0.3177
3867.601 0.4406 0.4359 0.26975 0.3287 0.4603 0.4129 0.3526 0.427 0.6019 0.6779
3886.890 0.4885 0.431 0.5037 0.4623 0.3813 0.3666 0.3084 0.21919 0.3221 0.4135
3906.180 0.5291 0.5899 0.6079 0.5905 0.4952 0.4673 0.4388 0.4834 0.5976 0.6207
3925.470 0.4782 0.4764 0.4409 0.3047 0.3651 0.4776 0.4453 0.25974 0.1872 0.3388
3944.760 0.3602 0.3109 0.4129 0.4332 0.4144 0.4132 0.3901 0.25773 0.3019 0.47
3964.049 0.461 0.4647 0.4099 0.462 0.4584 0.4549 0.6364 0.6294 0.5061 0.3819
3983.339 0.3378 0.4452 0.5018 0.4048 0.28371 0.3217 0.4384 0.4559 0.4663 0.3754
##END=
