##TITLE=3-Amino-5-(2-furyl)pyrazole
##JCAMP-DX=4.24
##DATA TYPE=INFRARED SPECTRUM
##ORIGIN=EPA-IR VAPOR PHASE LIBRARY
##OWNER=SRD/NIST
Collection (C) 2018 copyright by the U.S. Secretary of Commerce
on behalf of the United States of America. All rights reserved.
##CAS REGISTRY NO=96799-02-9
##MOLFORM=C 7 H 7 N 3 O
##$NIST SOURCE=MSDC-IR
##STATE=gas
##XUNITS=1/CM
##YUNITS=ABSORBANCE
##XFACTOR=1.
##YFACTOR=0.001
##DELTAX=1.92898
##FIRSTX=549.8
##LASTX=4000.7
##FIRSTY=5.45
##MAXX=4000.7
##MINX=549.759
##MAXY=0.0339
##MINY=0
##NPOINTS=1790
##XYDATA=(X++(Y..Y))
549.759 5.45 5.15 3.7985 3.4904 5.01 5.78 6.92 7.34 5.1 5.03
569.049 6.02 5.4 4.93 5.93 6.75 7.3 7.28 8.09 10.29 9.84
588.339 9.24 10.15 9.95 8.91 8.36 9.09 9.59 9.39 9.69 9.37
607.628 9.45 10.02 10.05 9.53 10.37 11.4 10.32 10.01 10.02 10.21
626.918 10.56 10.48 10.33 9.89 9.71 10.02 9.47 8.86 8.83 8.8
646.208 8.67 8.61 9.05 9.11 8.43 7.93 8.1 7.76 7.33 8.02
665.498 8.5 7.77 7.77 8.14 8.66 9.79 10.33 10.7 11.15 12.07
684.787 12.48 12.4 11.84 11.17 11.22 11.12 10.57 10.31 10.49 10.37
704.077 9.67 9.49 9.75 10.22 11.32 12.52 13.67 14.51 15.48 16.4
723.367 17.19 18.92 21.44 22.73 22.59 21.54 19.28 18 17.28 16.63
742.657 16.49 15.57 14.54 14.41 14.42 14.62 15.25 16.16 17.34 18.2
761.947 19.44 20.73 21.18 20.87 20.2 20.22 20.31 19.97 19.34 18.54
781.236 17.45 16.24 15.15 14.09 13.93 13.59 12.62 12.24 12.16 11.33
800.526 10.84 10.8 9.73 8.98 9.05 8.41 7.84 7.99 7.61 7.1
819.816 6.73 6.53 7.24 7.84 7.4 7.39 7.31 6.87 7.19 7.36
839.106 7.25 7.17 7.03 7.53 7.47 6.66 6.99 7.54 7.19 6.79
858.395 6.82 6.81 7.16 6.87 6.69 7.09 7.05 7.64 8.14 8.47
877.685 8.82 9.38 10.74 12.15 13.4 14.07 14.08 13.74 12.71 11.57
896.975 11.06 10.69 9.79 8.91 8.07 7.43 6.76 6.33 6.76 6.54
916.265 6.42 7.09 7.08 6.64 7.25 8.23 8.05 7.4 7.61 7.87
935.555 7.44 7.42 7.89 8.24 8.14 7.43 6.65 6.9 7.5 7.23
954.844 7.34 7.54 7.56 8.32 8.58 9.2 10.42 10.95 11.45 11.86
974.134 12.63 13.6 13.89 14.15 14.48 13.54 12.39 11.81 11.66 11.9
993.424 11.4 9.87 9.32 9.95 10.14 10.36 11.08 12.29 12.27 12.18
1012.714 11.93 11.49 12.3 11.73 10.5 10.32 9.8 8.39 7.47 7.02
1032.003 6.36 6.93 6.51 4.87 4.56 4.38 4.94 5.94 5.28 5.09
1051.293 6.09 5.39 5.27 6.21 6.63 6.97 6.85 6.76 7.46 7.69
1070.583 7.83 7.49 6.79 7.96 8.13 7.2 7.05 8.08 7.39 5.96
1089.873 7.55 7.41 6.91 8.37 8.3 7.58 7.35 6.68 6.86 8.16
1109.163 7.05 4.14 2.302 2.477 2.849 2.891 3.979 3.8022 3.9241 2.841
1128.452 1.95 2.655 1.38 0.64 1.77 3.2812 3.7867 3.7541 3.8595 4.65
1147.742 6.51 7.38 8.01 8.49 8.21 7.98 7.31 7.2 7.78 6.78
1167.032 5.49 4.53 3.5332 4.22 4.24 4.15 4.75 3.7026 2.369 3.11606
1186.322 3.16856 2.62 3.5634 4.87 5.21 4.78 4.0198 3.4037 3.579 3.6253
1205.611 4.67 6.78 6.72 6.21 7.73 7.85 8.01 8.09 7.47 6.7
1224.901 5.38 4.99 4.53 3.2829 2.807 4.26 3.3821 2.604 3.1973 3.08534
1244.191 4.0408 3.7717 2.591 1.6 1.28 1.61 1.45 2.365 2.388 1.14
1263.481 1.17 1.68 1.7 1.88 2.13 2.35 3.3092 3.8205 3.8909 4.55
1282.771 4.64 4.11 4.63 5.26 5.15 4.59 3.8315 3.776 3.4282 3.054
1302.060 3.14432 2.84 2.652 2.504 2.185 2.137 2.107 2.08 2.109 2.207
1321.350 2.546 2.555 2.182 2.2 2.409 2.296 2.356 2.379 2.216 2.251
1340.640 2.247 2.272 2.247 2.116 2.176 2.432 2.718 2.577 2.49 2.665
1359.930 3.09315 3.539 3.4839 3.4784 3.8312 4.11 4.0498 4.15 4.51 4.63
1379.219 4.85 5.14 5.41 5.51 5.43 5.61 5.76 5.85 5.72 5.64
1398.509 5.61 5.52 5.66 5.79 5.89 6.02 6.38 6.65 6.69 6.78
1417.799 7.22 7.77 8.35 8.98 9.56 9.8 10.06 10.72 11.16 11.33
1437.089 11.43 11.58 11.51 11.01 10.59 10.41 10.46 10.44 10.29 10.24
1456.378 10.31 10.64 11.41 12.32 13.01 13.78 14.67 15.75 17.16 18.92
1475.668 20.56 22.13 23.38 24.07 24.17 24 23.69 22.87 21.87 21.32
1494.958 20.98 21.31 22.76 24.95 27.98 31.11 32.93 33.9 33.87 32.4
1514.248 30.8 28.59 25.24 21.57 17.64 15.02 13.55 13.04 13.63 14.75
1533.538 16.19 17.93 19.65 21 22.62 24.76 26.76 28.56 30.27 30.99
1552.827 30.5 29.43 28.29 26.71 24.86 23.12 20.8 18.29 16.37 15.55
1572.117 14.96 14.48 14.35 14.34 14.64 14.56 14.09 13.62 13.04 12.58
1591.407 12.37 12.57 13.05 13.51 14.4 15.77 17.31 19.13 20.92 22.83
1610.697 24.42 25.39 25.99 26.21 26.23 24.99 22.93 21.3 19.63 18.08
1629.986 16.23 14.04 12.26 11.01 10.15 9.13 7.98 7.24 6.34 5.56
1649.276 5.3 4.75 4.36 4.0372 3.6912 3.7978 3.7584 3.3226 3.12242 3.0425
1668.566 2.634 2.255 2.404 2.72 2.583 2.181 2.05 2.05 2.201 2.204
1687.856 2.05 2.237 2.378 2.638 2.763 2.825 3.1905 3.4831 3.3279 3.2181
1707.146 3.5386 3.506 3.4495 3.5203 3.4229 3.0627 2.477 2.435 2.468 2.262
1726.435 2.141 2 1.92 1.81 1.34 1.52 1.71 1.59 1.65 1.7
1745.725 1.71 1.78 1.88 1.64 1.61 1.6 1.61 1.8 1.67 1.68
1765.015 2.01 1.89 1.61 1.61 1.49 1.63 1.79 1.87 1.75 1.52
1784.305 1.68 1.87 1.65 1.49 1.6 1.67 1.56 1.4 1.39 1.41
1803.594 1.64 1.95 1.99 1.79 1.74 1.61 1.59 1.76 1.57 1.47
1822.884 1.54 1.47 1.41 1.63 1.78 1.72 1.65 1.62 1.59 1.55
1842.174 1.7 1.69 1.64 1.72 1.64 1.58 1.53 1.48 1.78 1.91
1861.464 1.61 1.39 1.55 1.75 1.72 1.87 1.88 1.69 1.54 1.47
1880.754 1.54 1.71 1.66 1.57 1.49 1.47 1.78 1.8 1.68 1.73
1900.043 1.57 1.57 1.78 1.71 1.41 1.35 1.46 1.51 1.41 1.45
1919.333 1.54 1.63 1.63 1.49 1.68 1.58 1.28 1.27 1.46 1.68
1938.623 1.62 1.39 1.25 1.37 1.57 1.63 1.6 1.46 1.4 1.58
1957.913 1.58 1.46 1.38 1.48 1.6 1.7 1.63 1.4 1.57 1.72
1977.202 1.62 1.75 1.72 1.51 1.43 1.55 1.72 1.51 1.36 1.52
1996.492 1.5 1.52 1.68 1.44 1.25 1.3 1.44 1.74 1.76 1.63
2015.782 1.46 1.36 1.61 1.53 1.5 1.59 1.58 1.53 1.43 1.34
2035.072 1.4 1.45 1.31 1.37 1.51 1.56 1.61 1.82 1.78 1.39
2054.362 1.27 1.5 1.73 1.73 1.7 1.69 1.83 1.89 1.56 1.34
2073.651 1.55 1.63 1.75 1.89 1.79 1.54 1.45 1.68 1.5 1.4
2092.941 1.76 1.7 1.56 1.57 1.67 1.79 1.6 1.56 1.68 1.69
2112.231 1.46 1.39 1.53 1.61 1.61 1.59 1.35 1.39 1.7 1.76
2131.521 1.74 1.66 1.59 1.63 1.7 1.6 1.62 1.62 1.49 1.4
2150.810 1.67 1.91 1.84 1.87 1.79 1.67 1.62 1.47 1.55 1.65
2170.100 1.6 1.67 1.49 1.65 1.97 1.71 1.8 1.99 1.68 1.32
2189.390 1.18 1.6 1.95 1.91 1.87 1.7 1.75 1.56 1.5 1.53
2208.680 1.47 1.35 1.2 1.49 1.64 1.49 1.52 1.83 1.77 1.61
2227.970 1.69 1.47 1.32 1.46 1.39 1.42 1.58 1.53 1.48 1.27
2247.259 1.24 1.29 1.32 1.36 1.3 1.45 1.54 1.27 1.27 1.57
2266.549 1.78 2.04 1.9 1.56 1.14 1.01 1.39 1.57 1.73 1.9
2285.839 1.62 1.49 1.57 1.72 1.81 1.73 1.72 1.4 1.25 1.49
2305.129 1.51 1.57 1.64 1.55 1.89 1.95 1.6 1.41 1.26 1.65
2324.418 1.77 1.43 1.3 1.57 1.84 1.64 1.57 1.73 1.99 1.89
2343.708 1.58 1.54 1.54 1.53 1.22 1.15 1.42 1.53 1.61 1.65
2362.998 1.6 1.48 1.48 1.61 1.56 1.67 1.62 1.54 1.66 1.61
2382.288 1.77 1.67 1.6 1.65 1.53 1.54 1.36 1.37 1.56 1.42
2401.578 1.46 1.48 1.1 1.13 1.2 1.09 1.29 1.26 1.37 1.25
2420.867 1.09 1.39 1.45 1.39 1.53 1.6 1.67 1.87 2.03 1.87
2440.157 1.62 1.76 1.93 1.92 1.7 1.49 1.38 1.18 1.34 1.46
2459.447 1.29 1.2 1.4 1.57 1.87 1.81 1.43 1.37 1.03 0.95
2478.737 1.2 1.39 1.36 1.44 1.66 1.63 1.59 1.48 1.43 1.82
2498.026 1.67 0.98 1.17 1.28 1.39 1.5 1.28 1.27 1.47 1.81
2517.316 1.86 1.79 1.61 1.74 1.53 1.37 1.47 1.49 1.62 1.56
2536.606 1.45 1.16 1.06 1.25 1.23 0.99 1.25 1.53 1.39 1.5
2555.896 1.78 1.72 1.78 1.89 1.61 1.68 1.44 1.2 1.51 1.85
2575.186 1.93 1.9 1.78 1.69 1.72 1.41 1.25 1.55 1.86 1.73
2594.475 1.42 1.48 1.64 1.54 1.64 1.82 1.49 1.29 1.35 1.6
2613.765 1.68 1.79 1.78 1.49 1.76 1.87 1.62 1.44 1.6 1.71
2633.055 1.59 1.47 1.2 0.88 1.13 1.53 1.56 1.78 1.72 1.44
2652.345 1.49 1.65 1.45 1.49 1.8 1.52 1.41 1.27 1.04 1.19
2671.634 1.74 1.8 1.26 1.56 1.89 1.63 1.62 1.78 1.56 1.55
2690.924 1.73 1.53 1.46 1.77 1.48 1.39 1.69 1.4 1.43 1.31
2710.214 1.11 1.17 1.21 1.45 1.48 1.07 0.91 1.17 1.38 1.6
2729.504 1.75 1.55 1.42 1.78 1.99 1.68 1.53 1.56 1.26 1.25
2748.794 1.4 1.34 1.6 1.51 1.42 1.6 1.45 1.3 1.33 1.31
2768.083 1.18 1.18 1.15 1.23 1.38 1.67 1.55 1.25 1.45 1.66
2787.373 1.41 1.25 1.45 1.46 1.56 1.72 1.68 1.54 1.56 1.27
2806.663 1.06 1.24 1.36 1.49 1.7 1.58 1.29 1.33 1.47 1.4
2825.953 1.43 1.73 1.81 1.35 1.05 1.35 1.48 1.15 0.93 1.33
2845.242 1.74 1.71 1.29 1.17 1.39 1.38 1.43 1.44 1.49 1.84
2864.532 1.65 1.4 1.46 0.97 1.26 2.02 1.51 0.95 1.28 1.55
2883.822 1.51 1.68 1.74 1.58 1.53 1.35 1.1 1.06 1.01 0.97
2903.112 1.05 1.45 1.44 1 1.13 1.02 1.14 1.48 1.35 0.99
2922.401 1.18 1.29 1.01 1.18 1.1 0.98 1.2 1.19 1.12 1.35
2941.691 1.27 1.1 1.2 1.38 1.37 1.12 1.02 1 0.76 0.82
2960.981 1.15 0.53 0.23 0.51 0.43 1.03 2 2.127 1.99 1.82
2980.271 1.27 1.43 1.49 1.04 0.62 0.44 0.86 1.15 1.26 1.36
2999.561 1.28 1.12 1.15 1.31 1.21 1.01 0.88 1.07 1.67 1.79
3018.850 1.38 0.94 1.24 1.33 1.3 1.63 1.43 1.48 1.97 1.75
3038.140 1.29 1.31 1.47 1.53 1.18 1.2 1.43 1.08 0.97 0.67
3057.430 0.84 1.51 1.29 0.85 1.14 1.18 0.58 0.6 0.76 1.21
3076.720 1.46 1.38 1.25 0.79 0.46 0.63 1.27 1.4 1.5 1.75
3096.009 1.7 1.53 1.11 0.76 1.12 1.36 1.27 1.25 1.31 1.37
3115.299 2.06 2.71 2.91 3.3894 3.5478 3.4296 3.4094 3.14735 2.6 2.635
3134.589 2.753 2.07 1.7 1.84 1.38 1.41 1.5 0.91 0.68 1.36
3153.879 2.421 1.94 1.27 1.32 1.33 1.4 1.24 1.56 1.53 1.25
3173.169 1.38 1.85 1.64 0.85 0.94 1.14 1.27 1.31 1.08 1.1
3192.458 0.86 1.18 1.46 1 1.09 1.15 1.16 1.32 1.41 1.37
3211.748 0.91 0.67 0.86 1.24 1.53 1.61 1.74 1.23 0.95 1.46
3231.038 1.63 1.6 1.36 1.15 1.12 0.79 0.73 1.5 1.54 1.19
3250.328 1.7 1.75 1.67 1.95 1.85 1.12 1.05 1.75 2.129 1.43
3269.617 1.66 2.32 1.63 1.64 1.96 1.51 1.53 1.97 2.195 2.356
3288.907 2.134 1.69 1.18 1.27 1.74 1.16 0.74 1.41 2.06 1.67
3308.197 0.78 1.14 1.67 1.51 1.2 1.72 1.69 1.18 1.64 1.39
3327.487 1.17 1.13 0.81 1.02 1.33 1.23 1.22 1.09 1.06 0.86
3346.777 0.81 1.46 1.09 0.67 0.75 0.67 1.17 1.17 1 0.86
3366.066 0.82 1.42 1.51 1.33 1.17 1.44 1.91 2.273 2.599 2.704
3385.356 3.0126 3.7238 4.41 4.68 4.7 5.04 5.01 4.8 5.56 5.59
3404.646 4.97 4.55 3.9141 3.4049 2.305 2.06 2.522 2.838 2.457 2.107
3423.936 2.323 1.88 1.21 1 1.36 1.74 1.79 1.02 0.93 1.06
3443.225 0.87 1.29 2.199 2.702 2.585 2.803 3.2624 3.5694 3.527 3.666
3462.515 3.9726 4.36 4.88 4.99 5.79 6.59 6.33 6.85 7.66 8.16
3481.805 9.36 10.16 10.78 11.61 12.05 12.93 14.26 15.26 15.94 16.96
3501.095 18.26 19.05 19.48 19.89 20.62 20.17 19.46 19.22 18.09 16.81
3520.385 15.8 15.04 13.62 12 10.33 8.38 7.26 6.05 5.24 5.35
3539.674 4.39 3.10756 3.061 3.3111 2.193 1.45 1.65 1.9 1.77 2.03
3558.964 2.404 1.68 1.18 0.9 1.15 1.39 0.79 0.79 1 1.06
3578.254 1.09 1.25 1.62 1.71 1.32 1.15 1.46 1.3 1.43 1.78
3597.544 1.74 1.24 1.03 1.02 0.93 0.92 0.58 1.02 1.29 0.99
3616.833 1.04 0.98 1.3 1.54 1.55 0.79 0.58 1.21 1.42 1.62
3636.123 1.41 1.48 1.69 1.58 1.69 1.55 1.42 1.27 0.62 0.64
3655.413 0.92 1.26 1.65 1.57 0.87 0.92 1.5 1.83 1.86 1.17
3674.703 0.75 0.56 1.08 0.94 0.4 1.3 1.55 1.1 1.22 1.27
3693.993 1.49 1.08 0.68 1.44 1.04 0.39 0.37 0.81 1.35 1.12
3713.282 1.12 1.27 2.06 1.99 1.2 0.76 0.47 0.86 1.05 0.79
3732.572 0.34 0.57 0.31 0.04 0.72 1.32 1.72 1.3 0.5 0.44
3751.862 0.81 1.37 1.62 1.23 0.47 0.73 1.41 1.43 0.65 0
3771.152 1.1 1.83 2.05 1.87 0.85 0.68 0.95 0.31 0.42 1.15
3790.441 1.32 1.5 1.01 0.22 0.26 0.92 1.31 1.43 0.86 0.34
3809.731 0.87 1.26 1.46 1.46 1.8 2.293 2.04 1.84 1.41 1.51
3829.021 1.67 0.43 0.01 0.64 0.91 0.97 0.84 1.05 1.49 1.32
3848.311 1.49 1.51 1.52 1.84 1.07 0.68 1.3 1.42 1.23 1.1
3867.601 1.11 1.41 1.16 1.05 1.1 1.87 2.166 1.26 0.7 0.65
3886.890 0.97 0.83 0.44 0.01 0.17 0.42 0.89 1.92 1.47 0.91
3906.180 1.44 1.39 0.99 1.12 1.14 0.82 0.8 0.65 0.85 1.23
3925.470 0.8 0.66 0.43 0.21 1.02 1.15 0.63 0.93 1.19 0.73
3944.760 0.22 0.73 1.3 0.53 0.35 0.47 0.47 0.98 1.52 1.25
3964.049 0.86 0.51 0.55 1.23 1.61 1.9 1.86 1.53 1.52 0.92
3983.339 0.27 0.64 1.11 1.87 1.92 1.82 2.201 2.212 2.02 2.604
##END=
