##TITLE=5-Amino-3-(2-thienyl)pyrazole
##JCAMP-DX=4.24
##DATA TYPE=INFRARED SPECTRUM
##ORIGIN=EPA-IR VAPOR PHASE LIBRARY
##OWNER=SRD/NIST
Collection (C) 2018 copyright by the U.S. Secretary of Commerce
on behalf of the United States of America. All rights reserved.
##CAS REGISTRY NO=96799-03-0
##MOLFORM=C 7 H 7 N 3 S
##$NIST SOURCE=MSDC-IR
##STATE=gas
##XUNITS=1/CM
##YUNITS=ABSORBANCE
##XFACTOR=1.
##YFACTOR=0.001
##DELTAX=1.92898
##FIRSTX=549.8
##LASTX=4000.7
##FIRSTY=5.447
##MAXX=4000.7
##MINX=549.759
##MAXY=0.042967
##MINY=0
##NPOINTS=1790
##XYDATA=(X++(Y..Y))
549.759 5.447 5.617 6.007 6.397 6.117 5.827 6.557 7.307 7.367 7.247
569.049 7.537 8.027 7.977 8.317 8.757 8.267 7.727 8.067 8.307 8.157
588.339 8.037 7.917 8.357 8.817 9.037 9.307 9.687 9.747 9.617 10.077
607.628 10.627 10.547 10.677 11.417 11.887 12.047 11.997 12.007 12.137 12.227
626.918 11.887 11.467 11.387 10.857 10.267 10.267 9.717 9.357 9.817 9.937
646.208 9.597 9.387 9.487 9.677 10.117 10.397 10.387 10.547 11.017 12.027
665.498 13.047 13.727 14.697 15.697 16.767 18.647 20.717 22.647 24.937 26.777
684.787 28.287 30.107 32.447 35.887 38.957 37.207 32.727 30.127 28.567 26.557
704.077 23.927 21.207 18.747 16.387 14.297 12.827 11.337 9.967 8.927 8.307
723.367 8.127 7.787 7.537 7.567 7.267 7.057 7.017 7.487 7.987 7.997
742.657 8.167 9.037 9.787 10.187 11.527 12.577 13.407 14.847 16.157 17.337
761.947 18.317 19.247 20.087 20.247 19.677 18.667 17.637 16.657 16.117 14.867
781.236 13.597 13.067 12.507 11.407 10.557 10.247 9.787 9.547 8.897 8.567
800.526 8.677 8.637 8.497 8.867 9.187 9.037 9.157 9.667 10.007 10.567
819.816 11.087 11.177 11.597 11.937 11.937 11.917 11.947 12.107 12.467 13.127
839.106 14.207 15.337 16.167 16.617 16.557 16.197 16.157 16.137 15.277 13.757
858.395 12.297 10.947 10.017 9.607 8.977 8.387 8.017 7.717 7.417 7.377
877.685 7.437 7.247 7.157 7.007 7.017 6.987 6.817 6.977 7.147 7.277
896.975 7.327 7.237 7.247 7.447 7.577 7.867 8.537 9.387 10.087 10.317
916.265 10.407 10.597 10.477 10.097 9.537 8.877 8.257 7.217 6.347 5.907
935.555 5.487 5.327 5.287 4.927 4.537 4.497 4.547 4.677 4.527 4.407
954.844 4.377 4.267 4.067 3.907 4.057 4.507 4.757 5.067 5.867 6.667
974.134 7.747 9.287 10.247 10.237 10.247 10.307 9.777 9.297 8.447 6.787
993.424 5.617 4.917 4.557 4.447 4.197 3.967 3.927 4.077 4.077 3.587
1012.714 3.207 3.217 3.557 3.307 3.007 3.507 3.817 3.697 3.137 3.387
1032.003 3.827 3.787 3.987 4.387 4.787 5.057 5.137 4.987 5.247 5.487
1051.293 5.057 5.027 4.977 4.197 4.237 4.567 4.047 3.897 4.247 4.167
1070.583 4.187 4.427 4.457 5.017 5.477 5.597 6.387 6.897 6.827 6.467
1089.873 5.977 6.247 6.837 6.677 6.317 6.147 5.847 5.997 5.527 4.317
1109.163 3.697 3.297 3.347 3.647 3.657 3.597 3.597 3.357 3.207 3.307
1128.452 3.307 2.747 2.327 2.527 2.877 3.257 3.267 3.107 2.967 2.397
1147.742 2.757 3.057 2.777 2.917 2.837 2.677 2.957 2.907 2.907 3.087
1167.032 2.957 2.837 2.347 2.307 2.677 2.767 2.277 2.487 3.177 3.237
1186.322 2.647 2.217 2.697 2.747 2.527 3.117 3.337 2.637 2.187 2.347
1205.611 2.787 2.567 2.827 4.167 5.577 6.717 7.927 8.997 10.267 10.837
1224.901 9.607 8.467 7.847 7.227 6.737 5.637 4.557 3.327 2.647 2.657
1244.191 2.517 2.557 2.267 1.877 1.867 2.187 2.447 2.447 2.337 2.177
1263.481 2.187 2.727 3.167 3.437 3.757 3.947 4.367 4.787 4.937 5.037
1282.771 5.177 5.377 5.567 5.597 5.367 5.047 4.707 4.257 3.707 3.207
1302.060 2.847 2.657 2.457 2.277 2.327 2.297 2.277 2.157 1.997 2.047
1321.350 2.067 2.047 2.147 2.347 2.347 2.367 2.297 2.267 2.367 2.377
1340.640 2.477 2.527 2.607 2.757 2.737 2.737 2.767 2.727 2.697 2.657
1359.930 2.637 2.697 2.777 2.907 3.087 3.477 4.017 4.627 5.287 5.887
1379.219 6.497 7.027 7.407 7.707 7.987 8.067 7.947 7.827 7.607 7.477
1398.509 7.517 7.577 7.667 7.647 7.667 7.847 8.027 8.257 8.507 8.827
1417.799 9.297 9.617 9.777 9.807 9.657 9.487 9.217 8.897 8.697 8.447
1437.089 8.137 8.047 8.137 8.317 8.707 9.207 9.897 10.827 11.717 12.617
1456.378 13.517 14.447 15.247 15.787 16.287 16.827 17.347 18.077 19.127 20.547
1475.668 22.347 24.427 26.637 28.497 29.807 30.697 30.477 29.107 27.107 24.687
1494.958 21.887 18.817 16.217 14.297 13.347 13.537 14.727 16.747 19.687 23.467
1514.248 27.697 32.167 36.227 39.457 41.897 42.967 42.607 41.147 38.277 34.127
1533.538 29.367 24.847 21.057 17.687 14.807 12.667 11.087 9.887 9.267 8.777
1552.827 8.357 8.127 7.927 7.897 8.007 8.277 8.757 9.337 10.367 12.007
1572.117 14.127 16.357 18.237 20.307 22.437 23.907 25.047 25.947 26.187 25.977
1591.407 25.637 25.267 25.177 25.637 26.187 26.867 28.107 29.847 31.977 34.337
1610.697 36.357 37.827 38.577 38.337 37.127 34.977 32.007 28.397 24.667 21.287
1629.986 18.317 15.727 13.467 11.457 9.887 8.707 7.827 7.157 6.457 5.807
1649.276 5.297 4.817 4.327 4.087 3.927 3.637 3.317 3.137 3.027 2.787
1668.566 2.577 2.377 2.277 2.297 2.187 2.187 2.227 2.107 2.097 2.057
1687.856 1.977 1.997 2.007 2.007 2.017 2.007 1.967 1.927 2.067 2.157
1707.146 2.137 2.167 2.197 2.157 2.177 2.237 2.157 2.187 2.287 2.407
1726.435 2.537 2.427 2.267 2.197 2.077 1.837 1.657 1.517 1.437 1.437
1745.725 1.3969 1.335 1.3721 1.3698 1.3468 1.3658 1.437 1.507 1.467 1.477
1765.015 1.627 1.707 1.637 1.697 1.837 2.037 2.117 2.087 2.177 2.277
1784.305 2.297 2.227 2.107 2.007 1.857 1.717 1.617 1.417 1.2958 1.2557
1803.594 1.2191 1.1918 1.1631 1.1473 1.1135 1.0737 1.1244 1.1329 1.043 1.0616
1822.884 1.1991 1.2297 1.0645 1.027 1.1839 1.1226 1.0637 1.1582 1.1509 1.1717
1842.174 1.2269 1.2002 1.0958 1.0636 1.0649 1.0593 1.0728 1.0666 1.1182 1.2295
1861.464 1.1493 1.0491 1.1643 1.1772 1.1476 1.0885 1.0151 1.1055 1.273 1.3014
1880.754 1.206 1.2047 1.1828 1.1439 1.1075 1.0668 1.0138 0.9963 0.9821 0.9511
1900.043 0.9657 0.9275 0.958 0.9573 0.8904 0.8628 0.9335 0.9673 0.9934 1.0235
1919.333 0.9715 0.8508 0.7996 0.9183 0.9177 0.7928 0.8181 0.8381 0.8567 0.9249
1938.623 0.9107 0.8838 0.7737 0.7184 0.8422 0.8424 0.774 0.7575 0.77 0.8576
1957.913 0.8825 0.8118 0.7814 0.8247 0.8725 0.9302 0.9537 0.9007 0.8181 0.7713
1977.202 0.7089 0.7924 0.9062 0.878 0.8113 0.7898 0.7831 0.8279 0.8132 0.757
1996.492 0.7483 0.706 0.7582 0.7758 0.8212 0.8618 0.7926 0.8251 0.8692 0.866
2015.782 0.8091 0.8043 0.8763 0.8669 0.8736 0.9487 0.9428 0.8861 0.8115 0.8326
2035.072 0.8912 0.882 0.8942 0.8617 0.8181 0.7827 0.8477 0.9137 0.9458 1.0068
2054.362 0.9826 0.9461 0.9251 0.8545 0.8321 0.9193 0.9433 0.9114 0.963 1.0224
2073.651 1.0826 1.1196 0.9855 0.8369 0.9045 1.0097 1.0461 1.0416 1.0785 1.0084
2092.941 0.9393 1.0025 1.0107 0.9443 0.885 1.0152 1.1329 1.1378 1.1137 1.0497
2112.231 0.9604 0.9287 0.9883 0.9892 0.9698 1.0161 1.0603 1.0134 0.9549 1.0409
2131.521 1.0678 0.9991 1.0199 1.0038 1.0259 1.0744 1.1208 1.1332 1.1302 1.1985
2150.810 1.1578 1.0175 1.0166 1.1578 1.2249 1.2141 1.1959 1.2379 1.1961 1.1567
2170.100 1.1598 1.1755 1.2065 1.1469 1.1061 1.142 1.094 1.0724 1.1235 1.1766
2189.390 1.2098 1.0802 1.0494 1.1001 1.165 1.1138 1.0305 1.1105 1.1699 1.1287
2208.680 1.0476 1.0191 1.0599 1.1081 1.0398 1.0277 1.0554 0.9319 0.9697 1.1304
2227.970 1.0634 0.9421 1.0224 1.0774 1.0536 1.1267 1.1396 1.1347 1.093 1.0252
2247.259 1.095 1.1893 1.2041 1.19 1.1528 1.1528 1.1441 1.112 1.0242 1.0404
2266.549 1.1542 1.1214 1.0295 0.9775 1.0083 0.9411 0.9436 0.9668 0.9984 1.044
2285.839 1.0011 0.9945 0.9559 0.9302 0.9051 0.8985 0.9012 0.9614 1.0755 1.1001
2305.129 1.0648 1.0511 1.0261 1.0205 1.0076 1.1629 1.1928 1.0203 1.0367 1.1105
2324.418 1.0178 0.8774 0.819 0.8185 0.8942 0.9125 1.0248 1.0928 1.063 1.0838
2343.708 1.0387 0.9558 0.9599 0.8961 0.8479 0.912 0.916 0.868 0.8375 0.8621
2362.998 0.84 0.8466 0.9076 0.9876 1.0183 0.9291 0.8584 0.8314 0.8971 0.9033
2382.288 0.7855 0.7907 0.7816 0.8298 0.9732 1.0105 0.8974 0.7693 0.7195 0.6957
2401.578 0.7446 0.7703 0.8652 0.9422 0.8445 0.7776 0.7949 0.8198 0.8798 0.8801
2420.867 0.8167 0.8072 0.8392 0.8715 0.7589 0.7627 0.8543 0.8209 0.8138 0.8584
2440.157 0.786 0.735 0.7108 0.774 0.8916 0.8778 0.8528 0.908 0.9817 0.9813
2459.447 1.0591 1.0684 1.0506 1.0235 0.882 0.8839 0.9039 0.8647 0.9591 0.92
2478.737 0.8373 0.9276 0.94 0.9848 1.0728 0.9562 0.839 0.8439 0.9262 0.9656
2498.026 1.0235 1.0056 0.8761 0.9002 0.9512 0.9399 0.9642 0.9522 0.8712 0.9308
2517.316 0.9081 0.8192 0.8399 0.8144 0.7869 0.7688 0.7838 0.7746 0.7718 0.7844
2536.606 0.805 0.8652 0.8698 0.8124 0.8331 0.9277 0.9446 0.9469 0.9389 0.9007
2555.896 0.8866 0.8891 0.9539 0.865 0.6313 0.7737 0.9721 0.963 1.0365 1.0898
2575.186 1.1025 1.0247 0.929 0.8438 0.9073 1.0701 0.9116 0.8772 1.0361 0.8888
2594.475 0.736 0.7865 0.9359 0.9664 0.9642 0.9438 0.9356 0.9128 0.8761 0.961
2613.765 0.8973 0.7986 0.8229 0.8922 0.8417 0.7478 0.7725 0.907 1.0142 0.9066
2633.055 0.8735 0.9014 0.8544 0.9353 0.9323 0.8791 0.7829 0.7478 0.9196 0.9666
2652.345 0.884 0.8819 0.8889 0.8375 0.7944 0.8176 0.8891 0.9038 0.8617 0.9666
2671.634 1.0979 1.0542 0.9254 0.8233 0.823 0.9282 1.0195 1.1056 1.0378 0.8362
2690.924 0.8957 1.0136 1.0538 1.0189 0.8406 0.7936 0.9598 0.9549 0.8247 0.8546
2710.214 0.7984 0.854 0.9271 0.8596 0.8483 0.6898 0.727 0.9505 0.9506 0.7948
2729.504 0.7496 0.7948 0.8425 0.8807 0.7933 0.8654 1.0387 0.943 0.8195 0.8144
2748.794 0.8694 0.8705 0.8796 0.8315 0.7544 0.7936 0.7415 0.8071 0.7967 0.8093
2768.083 0.8704 0.8314 0.7247 0.9205 1.0234 0.8036 0.8293 0.9634 0.8904 0.7433
2787.373 0.9109 0.9901 0.919 0.8402 0.7837 0.8935 0.8613 0.7725 0.8075 0.8409
2806.663 0.8624 1.0009 1.0362 1.0332 1.143 1.0741 0.9477 0.7554 0.6754 0.6877
2825.953 0.7069 0.7987 0.9067 0.8204 0.7716 0.8531 0.8169 0.8224 0.8386 0.7464
2845.242 0.8338 1.0096 1.0531 0.9837 0.8317 0.7332 0.6607 0.7018 0.8112 0.8053
2864.532 0.924 0.9067 0.7298 0.7721 0.9486 1.0543 0.961 0.9919 1.1436 1.1346
2883.822 0.9724 0.9976 1.0718 1.0487 0.9588 0.6117 0.5576 0.6883 0.6725 0.7537
2903.112 0.8411 0.9286 0.7876 0.7585 0.8233 0.8578 0.8905 0.8271 0.6354 0.5498
2922.401 0.7968 0.8644 0.6818 0.6495 0.6857 0.5223 0.48947 0.5648 0.7758 0.9173
2941.691 0.8157 0.8294 0.8828 0.8259 0.7644 0.7958 0.7732 0.7584 0.7653 0.755
2960.981 0.7394 0.7236 0.7175 0.7385 0.7942 0.8177 0.8136 0.8024 0.7788 0.8291
2980.271 0.7986 0.684 0.6638 0.7364 0.7859 0.8301 0.8847 0.6535 0.6298 0.7142
2999.561 0.658 0.8158 0.8986 0.7235 0.6965 0.7058 0.6971 0.8033 0.7228 0.6033
3018.850 0.5918 0.7184 0.6775 0.7145 0.7841 0.7753 0.9054 0.9804 0.9721 0.8206
3038.140 0.7862 0.8955 0.7507 0.7093 0.9695 0.9425 1.0277 1.2205 1.2349 1.399
3057.430 1.342 1.1642 1.2891 1.467 1.867 2.407 2.647 2.847 3.217 3.507
3076.720 3.877 4.317 4.627 4.737 4.837 4.637 4.077 3.597 3.247 2.937
3096.009 2.587 2.367 2.117 1.907 1.837 1.797 1.767 1.647 1.527 1.467
3115.299 1.547 1.437 1.0879 1.07 1.21 1.2999 1.0877 1.1251 1.4016 1.2562
3134.589 1.0797 0.9516 0.9292 0.9939 0.7231 0.5394 0.6895 0.6126 0.5606 0.5731
3153.879 0.6764 0.8781 0.765 0.6964 0.7579 0.667 0.6427 0.7487 0.8897 0.8836
3173.169 0.7693 0.7181 0.7054 0.5693 0.354 0.5949 0.7087 0.5616 0.5928 0.6565
3192.458 0.6012 0.5285 0.598 0.6197 0.7004 0.9233 0.8026 0.7601 0.8103 0.577
3211.748 0.7354 0.703 0.5272 0.7484 0.8247 0.8115 0.7828 0.6127 0.5154 0.6058
3231.038 0.7586 0.7651 0.9779 1.1449 1.0636 1.0247 0.9327 0.8118 0.76 0.8128
3250.328 0.853 0.9014 0.7775 0.6589 0.6632 0.8233 0.7937 0.5672 0.6558 0.8576
3269.617 0.8816 0.6825 0.7259 0.7923 0.7151 0.7077 0.6885 0.6255 0.6268 0.7593
3288.907 0.7907 0.7787 0.7142 0.7511 0.7644 0.7336 0.7453 0.5961 0.627 0.46701
3308.197 0.49799 0.8126 0.7452 0.5625 0.5399 0.6031 0.50078 0.5545 0.618 0.6217
3327.487 0.7627 0.7479 0.6265 0.8151 0.9069 0.6841 0.5298 0.5755 0.771 0.8776
3346.777 0.8543 0.8702 0.9123 1.0124 0.9902 0.9307 0.8367 0.6123 0.7651 0.6968
3366.066 0.7982 1.1925 1.2687 1.2351 1.3273 1.537 1.677 1.977 2.527 2.987
3385.356 3.227 3.607 4.137 4.727 5.207 5.497 5.617 5.647 5.457 5.197
3404.646 4.787 4.087 3.387 2.827 2.407 2.097 1.947 1.837 1.687 1.577
3423.936 1.737 1.877 1.637 1.557 1.717 1.787 1.667 1.687 1.907 2.007
3443.225 2.117 2.177 2.257 2.247 2.267 2.607 3.087 3.487 3.777 4.137
3462.515 4.617 5.097 5.757 6.577 7.297 8.137 9.037 9.847 10.937 12.067
3481.805 13.137 14.277 15.127 16.127 17.467 18.407 19.317 20.357 20.897 21.377
3501.095 21.477 21.107 20.707 19.957 18.867 17.447 15.817 14.347 12.867 11.487
3520.385 10.287 9.007 7.827 6.767 6.047 5.357 4.397 3.767 3.587 3.227
3539.674 2.767 2.447 2.217 1.907 1.807 1.557 1.1669 1.0833 1.0758 1.0826
3558.964 1.2256 1.1987 1.0029 0.7164 0.522 0.7749 0.9053 0.7005 0.6524 0.9535
3578.254 1.1103 1.0269 0.8397 0.6553 0.42144 0.45672 0.6124 0.7098 0.7115 0.7789
3597.544 0.8801 0.638 0.6117 0.7838 0.6064 0.415591 0.386 0.3902 0.46095 0.5754
3616.833 0.3865 0.3968 0.50556 0.5465 0.5804 0.3502 0.42992 0.47811 0.394 0.40273
3636.123 0.3908 0.4357 0.25 0.23 0.3599 0.3577 0.42941 0.3868 0.327 0.43521
3655.413 0.46874 0.3636 0.408442 0.138 0 0.41945 0.41979 0.262 0.3542 0.134
3674.703 0.087 0.3161 0.3125 0.416972 0.5371 0.3643 0.3644 0.3926 0.3735 0.50384
3693.993 0.6282 0.5494 0.31 0.3079 0.43103 0.49148 0.43746 0.40512 0.305 0.214
3713.282 0.243 0.237 0.44852 0.6413 0.48401 0.232 0.264 0.281 0.189 0.286
3732.572 0.47611 0.5175 0.3414 0.276 0.261 0.231 0.126 0.301 0.5694 0.44007
3751.862 0.42 0.411386 0.45077 0.6234 0.43585 0.3159 0.40158 0.4692 0.46122 0.42507
3771.152 0.44929 0.47144 0.5139 0.5171 0.3259 0.3 0.3863 0.3261 0.415962 0.5713
3790.441 0.5862 0.5875 0.48999 0.208 0.157 0.306 0.286 0.168 0.42852 0.5186
3809.731 0.40229 0.4276 0.295 0.266 0.43756 0.39702 0.42798 0.5273 0.50538 0.5286
3829.021 0.5305 0.49555 0.552 0.6471 0.43369 0.40343 0.4053 0.3791 0.5364 0.3216
3848.311 0.22 0.49119 0.6277 0.5243 0.307 0.40234 0.5554 0.3401 0.3792 0.44603
3867.601 0.3554 0.41963 0.3901 0.305 0.3619 0.3333 0.194 0.032 0.037 0.3089
3886.890 0.5741 0.46143 0.286 0.5418 0.6048 0.5473 0.7313 0.5998 0.26 0.278
3906.180 0.3375 0.3506 0.5748 0.5919 0.414783 0.46772 0.45437 0.294 0.205 0.264
3925.470 0.225 0.256 0.383 0.3382 0.3563 0.3416 0.48979 0.7175 0.7852 0.7389
3944.760 0.47172 0.42721 0.5978 0.5669 0.5299 0.5512 0.5693 0.5568 0.6083 0.5668
3964.049 0.281 0.3837 0.6052 0.47056 0.413305 0.5262 0.77 0.6784 0.46881 0.647
3983.339 0.4551 0.284 0.49517 0.7001 0.7309 0.525 0.50639 0.5871 0.6274 0.5955
##END=
