##TITLE=N'-Diethyl-3-amino-4-methoxybenzenesulfonamide
##JCAMP-DX=4.24
##DATA TYPE=INFRARED SPECTRUM
##ORIGIN=EPA-IR VAPOR PHASE LIBRARY
##OWNER=SRD/NIST
Collection (C) 2018 copyright by the U.S. Secretary of Commerce
on behalf of the United States of America. All rights reserved.
##CAS REGISTRY NO=97-35-8
##MOLFORM=C 11 H 18 N 2 O 3 S
##$NIST SOURCE=MSDC-IR
##STATE=gas
##XUNITS=1/CM
##YUNITS=ABSORBANCE
##XFACTOR=1.
##YFACTOR=0.001
##DELTAX=3.85796
##FIRSTX=501.5
##LASTX=4000.7
##FIRSTY=7.32
##MAXX=4000.7
##MINX=501.534
##MAXY=0.0849
##MINY=0.0001649
##NPOINTS=908
##XYDATA=(X++(Y..Y))
501.534 7.32 8.37 9.73 10.91 11.69 11.81 11.12 10.13 9.17 8.44
540.114 8.07 8.22 8.96 10.48 12.65 14.79 15.99 16.37 17.41 20.61
578.693 26.54 33.03 34.93 29.84 21.47 14.7 11.22 9.95 9.46 8.99
617.273 8.32 7.67 7.25 7.12 7.29 7.85 8.74 9.83 10.78 11.02
655.852 10.5 9.68 9.12 9.07 9.45 10.33 11.83 14.39 18.71 26.04
694.432 37.63 50.5 56.45 50.3 36.26 23.75 16.55 12.78 10.6 9.09
733.011 7.93 7.31 7.3 7.87 9.06 10.43 11.3 11.11 10.11 9.31
771.591 9.41 10.64 12.82 15.34 16.92 16.73 15.19 13.24 11.48 9.79
810.170 8.18 6.71 5.49 4.69 4.09 3.71 3.53 3.39 3.33 3.34
848.750 3.49 3.72 4.02 4.53 4.98 5.27 5.4 5.28 5.09 5.03
887.330 5.12 5.52 6.24 7.24 8.45 9.71 11.17 13.23 16.32 20.06
925.909 22.98 23.39 20.83 16.68 12.57 9.46 7.48 6.27 5.5 4.98
964.489 4.72 4.72 4.77 4.94 5.27 5.69 6.33 7.25 8.56 10.53
1003.068 13.42 17.36 22.05 26.21 28.45 28.21 25.82 22.24 18.51 15.35
1041.648 13.02 11.65 11.21 11.59 12.8 14.72 16.99 18.98 20 19.66
1080.227 18.27 16.66 15.48 15.02 14.82 14.18 12.86 11 9.47 8.69
1118.807 8.49 8.76 9.59 11.47 14.95 21.22 31.58 46.54 64.81 80.7
1157.387 84.9 73.5 53.76 37.14 28.04 24.77 24.8 26.64 29.24 31.1
1195.966 30.74 27.96 24.05 21.01 20.19 22.05 26.49 32.41 36.93 36.75
1234.546 31.45 23.9 17.75 14.25 12.85 13.05 14.88 18.98 25.88 35.38
1273.125 44.28 47.15 41.63 31.41 22.61 17.31 14.46 12.74 11.45 10.56
1311.705 10.15 10.35 11.24 12.77 14.9 17.74 21.28 25.28 29.14 32.45
1350.284 35.6 39.19 42.65 44.19 42.22 36.83 29.86 23.8 19.96 17.52
1388.864 14.96 12.08 9.73 8.57 8.38 8.84 9.85 11.18 12.52 13.26
1427.443 12.95 11.73 10.38 9.86 10.45 11.3 11.61 11.43 11.56 12.51
1466.023 13.93 14.98 15.14 14.72 14.64 15.74 18.74 24.34 32.82 42
1504.603 46.43 42.43 32.28 21.8 14.75 10.72 8.35 6.78 5.66 4.86
1543.182 4.31 4.07 4.04 4.17 4.48 5 5.73 6.8 8.2 9.89
1581.762 11.56 12.86 13.44 13.49 13.73 14.82 16.91 19.65 22 22.69
1620.341 21.13 17.84 14.02 10.77 8.27 6.45 5.2 4.29 3.64 3.13
1658.921 2.73 2.43 2.19 2.02 1.86 1.68 1.54 1.44 1.39 1.39
1697.500 1.36 1.36 1.42 1.48 1.47 1.43 1.46 1.47 1.42 1.37
1736.080 1.35 1.3 1.25 1.18 1.1 1.03 0.9689 0.896 0.8378 0.8455
1774.659 0.8465 0.8243 0.8153 0.8223 0.8307 0.8315 0.8103 0.7761 0.7819 0.7928
1813.239 0.8003 0.8368 0.893 0.9338 0.9914 1.04 1.09 1.11 1.09 1.05
1851.819 1.01 0.9562 0.8911 0.8476 0.8059 0.7855 0.7727 0.7417 0.7185 0.6979
1890.398 0.6711 0.6488 0.6496 0.659 0.6634 0.6359 0.598 0.5896 0.5863 0.5791
1928.978 0.5869 0.6043 0.6241 0.6167 0.5945 0.5987 0.6028 0.6125 0.6539 0.7032
1967.557 0.7609 0.8326 0.8956 0.9494 0.9955 1.01 0.9777 0.9198 0.8861 0.8517
2006.137 0.819 0.8354 0.8602 0.8851 0.9149 0.9503 0.9667 0.9733 0.9766 0.9515
2044.716 0.9191 0.8819 0.8527 0.8233 0.8032 0.7689 0.7201 0.6927 0.6832 0.6749
2083.296 0.6463 0.6237 0.6222 0.6166 0.5859 0.5739 0.5808 0.5646 0.5471 0.5312
2121.875 0.5125 0.5026 0.4895 0.4673 0.4536 0.4589 0.4533 0.4584 0.453 0.4204
2160.455 0.4195 0.4229 0.4417 0.4541 0.4448 0.4322 0.423 0.4344 0.4425 0.4423
2199.035 0.4398 0.4482 0.4337 0.4269 0.4493 0.477 0.499 0.521 0.5508 0.5475
2237.614 0.5672 0.6063 0.6246 0.6515 0.6904 0.712 0.6922 0.6443 0.5921 0.5327
2276.194 0.4812 0.4545 0.4321 0.433 0.459 0.4585 0.464 0.4766 0.4625 0.4562
2314.773 0.4493 0.4346 0.4134 0.3984 0.4214 0.4267 0.412 0.4346 0.4518 0.4436
2353.353 0.44 0.4413 0.4045 0.369 0.3696 0.3741 0.3688 0.3625 0.3577 0.3426
2391.932 0.3395 0.3494 0.3713 0.3842 0.3721 0.3684 0.3919 0.3999 0.4103 0.4136
2430.512 0.4074 0.4145 0.4235 0.4387 0.4365 0.4457 0.4596 0.4699 0.4726 0.47
2469.092 0.4592 0.4742 0.5105 0.56 0.6159 0.6185 0.6254 0.6524 0.6872 0.7007
2507.671 0.7201 0.7365 0.7326 0.7282 0.7119 0.7105 0.7141 0.7284 0.7616 0.7957
2546.251 0.8269 0.8454 0.8661 0.8628 0.7784 0.696 0.6434 0.5577 0.5133 0.4858
2584.830 0.4677 0.4877 0.4711 0.4537 0.483 0.5285 0.5694 0.5885 0.5815 0.5884
2623.410 0.6116 0.6335 0.665 0.6984 0.7121 0.693 0.6858 0.7209 0.7269 0.7343
2661.989 0.7273 0.6863 0.6744 0.6916 0.6901 0.6651 0.6848 0.7102 0.6802 0.6643
2700.569 0.6921 0.7089 0.6964 0.6867 0.6995 0.7422 0.7704 0.8069 0.8745 0.8986
2739.148 0.892 0.8981 0.8834 0.8516 0.8634 0.8811 0.8634 0.8673 0.8848 0.8616
2777.728 0.8736 0.9449 0.9998 1.04 1.11 1.19 1.3 1.45 1.63 1.8
2816.308 1.98 2.22 2.54 2.89 3.33 4.06 5.21 6.62 7.65 7.79
2854.887 7.24 6.67 6.51 6.82 7.5 8.4 9.46 10.42 10.95 10.94
2893.467 10.59 10.19 10 10.18 10.61 11.22 11.9 12.58 13.34 14.45
2932.046 16.25 18.79 21.51 23.26 23.21 21.49 19.16 17.36 16.53 16.67
2970.626 17.51 18.57 19.17 18.88 17.73 16.19 14.76 13.64 12.78 12.21
3009.205 11.48 10.01 7.92 5.94 4.63 3.92 3.52 3.3 3.17 3.05
3047.785 2.96 2.9 2.9 2.99 3.13 3.15 3.03 2.8 2.57 2.45
3086.364 2.32 2.17 2.02 1.83 1.66 1.52 1.34 1.19 1.1 1.03
3124.944 0.9496 0.9076 0.8831 0.8391 0.8092 0.7727 0.7675 0.8007 0.779 0.7753
3163.524 0.7988 0.8263 0.8525 0.8683 0.8504 0.8364 0.8358 0.7974 0.7737 0.7511
3202.103 0.7118 0.6445 0.5871 0.5374 0.4872 0.4464 0.4043 0.4116 0.386 0.3514
3240.683 0.3401 0.3 0.2589 0.2376 0.2565 0.3097 0.3061 0.2406 0.2102 0.2136
3279.262 0.2543 0.284 0.2604 0.2046 0.175 0.2028 0.258 0.2734 0.2285 0.2025
3317.842 0.2238 0.2403 0.235 0.2091 0.1962 0.202 0.2352 0.2522 0.2708 0.2867
3356.421 0.3107 0.3252 0.345 0.3905 0.4558 0.5307 0.6354 0.7917 0.9735 1.31
3395.001 1.78 2.39 3.23 4.41 5.76 6.64 6.34 4.97 3.37 2.14
3433.580 1.44 1.1 0.9287 0.7682 0.6651 0.6201 0.5986 0.6164 0.7482 0.8676
3472.160 0.9663 1.11 1.34 1.66 1.96 2.42 3.07 3.85 4.71 5.35
3510.740 5.4 4.75 3.6 2.47 1.67 1.19 0.9255 0.6944 0.5569 0.5033
3549.319 0.422 0.3915 0.3874 0.3791 0.3432 0.2724 0.2507 0.2896 0.2523 0.1976
3587.899 0.2404 0.1864 0.1649 0.2365 0.2167 0.2028 0.2051 0.2201 0.2056 0.2476
3626.478 0.2487 0.2326 0.294 0.3116 0.3208 0.2908 0.2788 0.2997 0.2489 0.2252
3665.058 0.2324 0.2255 0.2526 0.2962 0.3 0.2575 0.2291 0.2349 0.2685 0.2461
3703.637 0.2324 0.2342 0.2247 0.2705 0.2848 0.2752 0.2679 0.2632 0.268 0.2723
3742.217 0.29 0.3133 0.3115 0.3154 0.3508 0.3483 0.3214 0.2955 0.312 0.3297
3780.797 0.3033 0.2539 0.2876 0.3468 0.3618 0.3582 0.3512 0.3425 0.316 0.3496
3819.376 0.3564 0.3478 0.3332 0.3044 0.3197 0.3377 0.2871 0.2645 0.3308 0.3505
3857.956 0.3089 0.3652 0.3878 0.3767 0.3654 0.3427 0.3721 0.4075 0.3781 0.3564
3896.535 0.3709 0.3468 0.3743 0.4012 0.3545 0.2842 0.2579 0.359 0.4067 0.3473
3935.115 0.3507 0.3599 0.379 0.3964 0.4091 0.3969 0.4394 0.4738 0.4397 0.461
3973.694 0.5445 0.5406 0.4571 0.4718 0.473 0.4857 0.5745 0.6054
##END=
