##TITLE=Carvyl propionate
##JCAMP-DX=4.24
##DATA TYPE=INFRARED SPECTRUM
##ORIGIN=NIST Mass Spectrometry Data Center
##OWNER=NIST Standard Reference Data Program
Collection (C) 2018 copyright by the U.S. Secretary of Commerce
on behalf of the United States of America. All rights reserved.
##CAS REGISTRY NO=97-45-0
##MOLFORM=C 13 H 20 O 2
##$NIST SOURCE=MSDC-IR
##SPECTROMETER/DATA SYSTEM=HP-GC/MS/IRD
##STATE=gas
##XUNITS=1/CM
##YUNITS=ABSORBANCE
##XFACTOR=1.0
##YFACTOR=0.000011900
##DELTAX=4.0
##FIRSTX=550.0
##LASTX=3846.0
##FIRSTY=0.002202
##MAXX=3846
##MINX=550
##MAXY=0.119
##MINY=0
##NPOINTS=825
##XYDATA=(X++(Y..Y))
550.0 185 287 181 146 114 101 89 85 86 85
590.0 85 86 84 81 84 88 83 70 60 47
630.0 35 28 19 16 17 17 12 5 3 10
670.0 13 13 13 7 5 6 8 11 10 10
710.0 11 10 9 9 12 17 22 24 31 37
750.0 41 50 63 74 84 94 99 104 112 123
790.0 151 201 274 376 483 528 481 397 335 300
830.0 287 292 305 328 342 342 337 335 347 381
870.0 452 576 769 1057 1434 1773 1868 1655 1267 941
910.0 807 858 1073 1384 1603 1556 1307 1061 947 970
950.0 1063 1157 1235 1297 1306 1236 1129 1088 1168 1344
990.0 1592 1912 2293 2678 2995 3215 3320 3247 2980 2575
1030.0 2151 1838 1711 1751 1882 2048 2232 2424 2615 2757
1070.0 2813 2823 2789 2653 2391 2069 1775 1557 1418 1336
1110.0 1280 1249 1249 1270 1310 1372 1471 1612 1803 2064
1150.0 2405 2818 3343 4062 5091 6501 8125 9470 10000 9557
1190.0 8536 7524 6779 6213 5693 5151 4585 4045 3580 3221
1230.0 2970 2807 2704 2633 2571 2517 2473 2443 2430 2434
1270.0 2431 2367 2201 1955 1687 1439 1234 1086 1009 1001
1310.0 1060 1196 1405 1645 1836 1912 1887 1821 1774 1776
1350.0 1817 1857 1865 1826 1758 1690 1649 1612 1517 1334
1390.0 1100 892 757 695 670 668 684 721 786 896
1430.0 1057 1246 1408 1510 1570 1647 1742 1795 1768 1633
1470.0 1397 1093 806 607 485 410 356 314 278 252
1510.0 228 211 200 189 178 168 157 149 142 137
1550.0 133 132 132 133 136 141 149 157 165 175
1590.0 185 199 211 226 245 268 296 331 372 433
1630.0 524 655 811 936 959 856 674 506 395 337
1670.0 309 297 297 313 342 387 455 548 666 791
1710.0 901 995 1094 1248 1534 2077 3085 4704 6814 8811
1750.0 9601 8575 6465 4393 2944 2116 1657 1384 1200 1059
1790.0 928 787 647 519 415 335 271 226 191 162
1830.0 143 129 120 110 100 92 85 79 72 67
1870.0 64 60 59 58 56 54 55 54 51 48
1910.0 45 45 44 43 42 40 40 39 36 35
1950.0 38 37 37 38 39 37 33 30 29 30
1990.0 28 28 30 31 32 32 34 34 33 32
2030.0 33 32 31 32 34 38 38 38 39 38
2070.0 35 29 26 25 25 22 20 20 18 16
2110.0 15 15 13 16 13 9 8 7 8 7
2150.0 5 3 3 4 4 3 2 4 5 7
2190.0 9 10 9 10 9 10 10 8 10 13
2230.0 13 13 14 16 19 18 17 16 17 16
2270.0 14 11 13 12 12 10 9 8 9 11
2310.0 12 14 16 19 21 21 22 24 26 26
2350.0 27 29 27 24 20 18 15 13 13 14
2390.0 14 15 16 17 17 15 14 13 11 10
2430.0 9 8 7 9 9 10 13 12 13 13
2470.0 12 14 13 11 12 12 9 7 4 3
2510.0 6 8 9 8 6 8 10 12 14 11
2550.0 11 14 13 12 10 11 14 15 16 17
2590.0 17 18 19 18 19 23 25 25 30 34
2630.0 37 35 34 36 33 32 30 29 28 31
2670.0 32 33 34 34 36 38 39 42 46 50
2710.0 51 53 59 68 80 93 104 113 120 119
2750.0 112 106 98 94 93 95 101 104 109 115
2790.0 123 134 147 167 191 216 244 276 312 355
2830.0 410 484 605 794 1033 1252 1381 1442 1503 1580
2870.0 1639 1656 1659 1695 1810 2009 2230 2405 2488 2504
2910.0 2543 2733 3187 3801 4253 4313 4031 3657 3415 3395
2950.0 3511 3588 3507 3327 3239 3372 3676 3916 3929 3653
2990.0 3175 2667 2249 1962 1781 1652 1516 1350 1166 997
3030.0 866 780 736 709 684 648 608 573 557 578
3070.0 661 795 914 971 972 910 782 588 391 280
3110.0 230 202 180 159 142 127 113 102 92 87
3150.0 81 72 65 60 57 54 49 46 45 44
3190.0 37 35 33 30 25 21 21 20 22 21
3230.0 18 14 12 9 12 14 10 9 12 10
3270.0 8 12 12 11 11 13 11 11 10 6
3310.0 5 5 9 13 11 7 5 6 4 1
3350.0 0 3 2 5 8 6 6 9 8 5
3390.0 5 8 11 15 13 15 11 6 10 17
3430.0 20 20 17 17 27 33 35 39 46 55
3470.0 70 83 92 98 94 85 75 63 51 45
3510.0 43 35 29 29 27 23 21 18 14 13
3550.0 11 11 12 16 18 15 17 21 23 19
3590.0 13 12 14 17 14 10 9 11 8 10
3630.0 12 9 13 10 2 6 8 9 13 12
3670.0 8 8 10 13 16 14 11 10 6 5
3710.0 11 14 14 16 13 11 9 12 9 9
3750.0 12 14 16 18 19 17 18 17 18 19
3790.0 16 14 20 21 20 16 13 21 21 16
3830.0 18 20 19 17 14
##END=
