##TITLE=5-Benzoylpentanoic acid
##JCAMP-DX=4.24
##DATA TYPE=INFRARED SPECTRUM
##ORIGIN=EPA-IR VAPOR PHASE LIBRARY
##OWNER=SRD/NIST
Collection (C) 2018 copyright by the U.S. Secretary of Commerce
on behalf of the United States of America. All rights reserved.
##CAS REGISTRY NO=97547-93-8
##MOLFORM=C 12 H 14 O 3
##$NIST SOURCE=MSDC-IR
##STATE=gas
##XUNITS=1/CM
##YUNITS=ABSORBANCE
##XFACTOR=1.
##YFACTOR=0.001
##DELTAX=1.92898
##FIRSTX=549.8
##LASTX=4000.7
##FIRSTY=41.157
##MAXX=4000.7
##MINX=549.759
##MAXY=0.291507
##MINY=0
##NPOINTS=1790
##XYDATA=(X++(Y..Y))
549.759 41.157 43.017 44.307 44.807 45.717 46.587 47.737 48.727 48.687 49.157
569.049 49.287 49.437 49.727 49.277 49.517 49.887 50.417 51.047 51.547 52.397
588.339 53.097 53.927 54.897 56.167 56.857 57.167 57.727 58.257 58.317 57.747
607.628 57.237 56.407 55.497 54.197 52.767 51.897 50.507 49.407 48.707 47.727
626.918 46.917 46.247 45.487 44.537 43.507 42.127 40.837 39.987 39.007 38.587
646.208 38.797 39.037 39.567 39.677 39.367 39.077 38.977 38.827 38.297 38.127
665.498 38.557 39.087 39.467 40.637 42.647 45.227 48.767 53.077 58.467 64.437
684.787 70.807 77.617 83.177 86.047 85.677 82.957 78.297 72.857 66.927 60.857
704.077 55.827 51.437 47.897 45.347 43.277 41.787 40.957 40.477 40.207 40.417
723.367 41.167 41.747 42.607 43.617 44.417 45.257 46.297 46.777 46.897 47.117
742.657 47.207 47.107 46.577 45.577 43.987 42.237 40.127 37.937 35.777 33.627
761.947 31.647 29.587 28.367 27.337 26.197 25.517 25.037 24.347 23.717 22.907
781.236 21.857 20.727 19.347 18.357 16.947 15.677 14.767 13.757 13.067 12.617
800.526 12.467 12.147 11.277 10.547 9.957 9.347 9.187 8.717 8.567 8.847
819.816 8.457 7.997 7.757 7.577 7.567 7.847 8.207 8.167 8.037 8.377
839.106 8.997 9.327 9.357 9.517 10.007 10.437 10.777 11.197 11.457 11.447
858.395 11.317 11.077 10.687 10.607 10.887 10.887 10.447 10.147 10.077 9.827
877.685 9.737 10.107 10.227 10.297 10.367 10.297 10.557 10.427 10.607 10.817
896.975 10.647 10.977 11.357 11.487 11.457 11.527 12.007 12.437 12.497 12.897
916.265 13.497 13.967 14.467 14.887 15.137 15.367 15.687 15.677 15.527 15.407
935.555 15.687 16.297 16.377 16.647 17.377 18.197 19.547 21.127 22.717 24.527
954.844 26.527 28.537 30.377 31.757 32.697 33.597 34.017 33.977 33.867 33.657
974.134 33.587 33.667 33.847 34.287 34.747 35.537 37.027 38.117 38.857 39.857
993.424 41.617 44.027 46.407 48.307 48.637 48.417 48.077 46.137 42.827 40.057
1012.714 38.777 37.357 36.747 37.007 37.557 38.387 38.607 38.687 38.687 38.797
1032.003 38.937 39.327 39.807 40.467 41.117 41.437 42.487 43.967 44.797 45.707
1051.293 47.077 47.787 48.127 49.277 51.127 51.727 52.067 54.317 56.447 57.747
1070.583 59.527 61.307 62.327 63.017 64.097 65.927 66.927 67.597 69.607 70.997
1089.873 72.937 76.347 80.227 83.977 89.247 96.307 104.277 113.467 122.137 132.147
1109.163 144.297 156.917 171.087 184.637 194.837 202.387 205.657 203.847 197.967 188.877
1128.452 177.417 165.717 153.017 142.357 133.407 124.087 117.327 110.657 104.557 99.667
1147.742 95.247 92.747 90.907 88.667 86.647 85.737 84.607 82.897 82.257 82.557
1167.032 83.147 83.977 85.617 88.617 93.627 99.247 103.417 104.097 101.277 97.707
1186.322 92.237 85.677 81.627 80.937 81.307 83.037 84.757 86.077 88.037 89.077
1205.611 91.957 95.317 98.127 100.357 102.267 104.257 104.827 105.447 106.187 104.927
1224.901 101.947 98.177 94.897 91.737 89.027 87.157 84.297 82.777 82.317 81.497
1244.191 81.217 80.447 79.627 79.017 79.167 79.757 80.527 82.187 83.647 84.817
1263.481 86.397 87.277 87.517 87.407 86.237 84.067 81.837 79.827 77.727 75.267
1282.771 72.837 70.557 67.997 65.557 62.577 59.837 57.697 55.557 53.457 51.447
1302.060 49.777 48.547 47.757 47.487 47.687 48.087 48.517 48.767 48.727 48.587
1321.350 48.357 47.917 47.577 47.347 47.207 47.257 47.587 48.317 49.277 50.417
1340.640 51.817 53.667 55.777 57.917 60.367 62.857 65.027 66.757 68.147 69.157
1359.930 69.567 69.547 69.377 68.817 67.827 66.807 65.517 64.067 62.627 61.097
1379.219 59.417 57.587 55.557 53.237 50.617 47.817 44.967 42.137 39.367 36.797
1398.509 34.427 32.577 31.247 30.187 29.467 29.027 29.027 29.257 29.517 29.567
1417.799 29.737 30.147 30.317 30.517 30.767 30.997 31.557 32.227 33.177 34.437
1437.089 36.507 39.357 43.107 47.857 52.397 55.487 56.747 56.197 53.737 49.467
1456.378 44.187 39.697 36.267 33.047 29.807 26.707 24.067 21.627 19.287 17.177
1475.668 15.497 13.947 12.577 11.627 10.927 10.217 9.657 9.147 8.737 8.497
1494.958 8.257 7.897 7.597 7.277 6.987 6.797 6.677 6.527 6.397 6.357
1514.248 6.207 6.107 6.147 6.097 6.167 6.257 6.297 6.527 6.617 6.597
1533.538 6.527 6.597 6.737 6.597 6.727 6.777 6.597 6.597 6.617 6.677
1552.827 6.657 6.587 6.727 6.957 7.257 7.867 8.787 9.557 10.297 11.367
1572.117 12.777 14.267 15.577 16.667 17.547 18.197 18.607 18.987 19.077 19.407
1591.407 20.097 20.837 21.577 22.057 22.187 21.597 20.237 18.267 16.187 14.417
1610.697 13.037 11.987 11.017 10.087 9.537 9.107 8.507 8.067 7.907 7.807
1629.986 7.627 7.557 7.717 7.827 7.997 8.207 8.607 9.117 9.547 10.167
1649.276 10.967 11.647 12.477 13.587 14.727 15.827 16.977 18.067 19.457 21.187
1668.566 23.227 25.517 28.467 31.997 36.587 42.377 50.067 59.567 71.987 87.807
1687.856 105.727 126.157 147.767 168.557 188.197 204.877 214.897 218.397 214.697 204.207
1707.146 187.877 166.727 142.857 119.857 99.947 83.957 71.627 63.147 57.667 54.467
1726.435 52.867 52.717 53.907 55.907 58.867 62.687 67.107 72.467 78.547 85.207
1745.725 92.387 100.127 108.547 117.847 127.587 137.857 149.677 162.567 176.957 192.937
1765.015 209.967 227.697 246.047 262.877 277.427 287.677 291.507 288.947 279.907 265.157
1784.305 246.397 226.107 206.327 187.517 170.477 155.407 142.037 129.687 118.197 107.227
1803.594 97.047 87.267 77.847 68.957 60.557 52.947 46.257 40.257 35.197 30.997
1822.884 27.377 24.137 21.477 19.267 17.277 15.757 14.297 12.867 11.787 10.857
1842.174 10.057 9.497 8.957 8.427 7.967 7.497 7.207 6.987 6.707 6.427
1861.464 6.307 6.197 5.967 5.887 5.877 5.807 5.747 5.717 5.837 5.907
1880.754 5.987 6.157 6.117 6.207 6.307 6.267 6.307 6.327 6.427 6.467
1900.043 6.437 6.337 6.157 5.967 5.727 5.547 5.427 5.237 5.017 4.937
1919.333 4.697 4.427 4.357 4.247 4.117 4.017 3.897 3.877 3.967 4.097
1938.623 4.197 4.337 4.657 4.917 5.217 5.557 5.847 5.917 5.967 5.997
1957.913 5.957 5.957 5.977 6.027 5.917 5.757 5.617 5.267 4.877 4.537
1977.202 4.197 3.737 3.437 3.437 3.217 2.947 2.927 2.797 2.727 2.657
1996.492 2.567 2.617 2.617 2.567 2.427 2.317 2.327 2.297 2.237 2.277
2015.782 2.137 1.987 2.027 2.117 2.167 2.207 2.087 2.017 2.087 1.997
2035.072 1.937 1.817 1.777 1.867 1.897 1.887 1.807 1.767 1.807 1.847
2054.362 1.827 1.817 1.867 1.807 1.697 1.667 1.697 1.677 1.627 1.577
2073.651 1.657 1.657 1.607 1.587 1.577 1.517 1.477 1.507 1.457 1.487
2092.941 1.507 1.497 1.537 1.577 1.557 1.527 1.527 1.527 1.517 1.497
2112.231 1.527 1.567 1.607 1.677 1.717 1.607 1.607 1.677 1.737 1.767
2131.521 1.737 1.697 1.697 1.827 1.787 1.837 1.807 1.717 1.797 1.777
2150.810 1.747 1.817 1.867 1.887 1.897 1.867 1.907 1.977 2.027 2.037
2170.100 2.007 2.007 2.017 2.057 1.987 1.957 2.057 2.017 1.977 1.957
2189.390 1.907 1.987 1.967 1.937 2.017 1.997 1.907 1.977 1.957 1.947
2208.680 2.057 2.087 2.007 2.027 2.127 2.147 2.117 2.157 2.297 2.417
2227.970 2.407 2.327 2.197 2.207 2.287 2.287 2.277 2.257 2.247 2.267
2247.259 2.297 2.227 2.167 2.227 2.237 2.187 2.277 2.147 2.027 2.067
2266.549 2.087 2.147 2.077 2.057 2.097 2.177 2.177 2.167 2.117 2.087
2285.839 2.147 2.097 2.027 1.987 1.967 1.927 1.877 2.087 2.177 1.997
2305.129 2.057 2.067 2.067 2.377 2.497 2.537 2.747 2.837 2.887 2.867
2324.418 2.757 2.627 2.547 2.537 2.507 2.427 2.377 2.537 2.667 2.487
2343.708 2.357 2.297 2.177 2.127 2.197 2.147 2.197 2.187 2.067 2.067
2362.998 2.047 1.967 1.997 1.987 1.887 1.837 1.777 1.917 2.027 2.077
2382.288 2.047 1.917 1.927 1.917 1.827 1.977 1.997 1.867 1.967 2.007
2401.578 2.007 2.017 2.067 1.947 1.957 2.077 1.967 1.927 1.897 1.877
2420.867 1.967 2.107 2.017 2.037 2.047 1.917 1.837 1.737 1.697 1.817
2440.157 1.837 1.787 1.907 1.817 1.757 1.867 1.937 1.897 1.777 1.667
2459.447 1.607 1.627 1.607 1.517 1.567 1.657 1.617 1.507 1.497 1.627
2478.737 1.577 1.427 1.427 1.517 1.587 1.647 1.647 1.487 1.437 1.597
2498.026 1.437 1.297 1.447 1.377 1.387 1.507 1.467 1.487 1.537 1.547
2517.316 1.437 1.327 1.447 1.577 1.567 1.337 1.1909 1.367 1.437 1.377
2536.606 1.357 1.337 1.2321 1.2056 1.327 1.467 1.397 1.297 1.307 1.307
2555.896 1.387 1.317 1.297 1.377 1.407 1.357 1.2743 1.287 1.377 1.517
2575.186 1.537 1.577 1.787 1.727 1.517 1.527 1.457 1.417 1.467 1.607
2594.475 1.717 1.737 1.767 1.657 1.557 1.617 1.647 1.477 1.457 1.527
2613.765 1.497 1.547 1.647 1.617 1.547 1.477 1.437 1.527 1.387 1.457
2633.055 1.667 1.497 1.447 1.567 1.537 1.557 1.497 1.507 1.597 1.447
2652.345 1.437 1.447 1.537 1.537 1.607 1.647 1.427 1.507 1.597 1.667
2671.634 1.887 1.977 1.757 1.567 1.797 1.907 1.817 1.877 1.997 2.087
2690.924 1.997 1.917 2.047 2.097 2.077 2.107 2.097 2.107 2.007 1.867
2710.214 1.757 1.807 1.887 1.837 1.837 1.887 1.857 1.897 1.917 1.797
2729.504 1.767 1.827 1.977 2.007 1.977 1.987 1.967 1.967 1.887 1.777
2748.794 1.997 2.217 2.167 2.197 2.227 2.357 2.227 1.957 2.177 2.477
2768.083 2.537 2.557 2.647 2.707 2.607 2.437 2.487 2.637 2.457 2.617
2787.373 2.987 3.027 3.057 3.027 3.137 3.217 3.317 3.477 3.637 3.727
2806.663 3.847 4.127 4.127 4.227 4.637 4.947 5.187 5.187 5.227 5.407
2825.953 5.427 5.467 5.677 6.177 6.257 6.187 6.437 6.867 7.487 8.077
2845.242 8.507 8.817 9.517 10.467 11.227 12.137 13.297 14.677 16.377 17.927
2864.532 19.197 20.717 22.677 24.157 25.027 26.067 26.817 27.267 27.207 26.827
2883.822 26.387 25.937 25.627 25.397 25.607 25.717 26.147 27.107 27.997 29.087
2903.112 30.237 31.337 32.257 33.047 34.157 35.367 36.667 38.237 40.027 42.297
2922.401 44.787 47.277 49.837 51.987 53.917 56.217 58.407 60.327 62.347 64.277
2941.691 66.287 68.367 69.867 70.817 72.077 73.057 73.307 72.967 72.067 71.107
2960.981 69.547 67.377 65.117 62.177 58.747 55.157 51.207 46.927 42.507 38.637
2980.271 35.117 31.537 28.387 25.817 23.247 21.007 19.257 17.307 15.767 14.777
2999.561 13.637 12.707 12.057 11.667 11.447 10.977 10.747 10.827 11.067 11.367
3018.850 11.817 12.697 13.537 14.297 15.227 16.387 17.377 18.197 19.237 20.207
3038.140 20.707 20.997 20.807 20.447 20.157 19.807 19.537 19.757 20.937 22.637
3057.430 24.467 26.417 29.057 31.987 35.277 38.817 42.367 44.817 44.977 43.347
3076.720 40.447 36.737 33.207 31.357 30.467 29.977 29.577 28.737 27.047 24.907
3096.009 22.667 20.487 18.417 16.337 14.777 13.307 11.727 10.257 8.827 7.707
3115.299 6.567 5.247 4.667 4.367 3.927 3.497 3.227 2.957 2.627 2.577
3134.589 2.427 2.287 2.037 1.847 2.237 2.477 2.217 2.197 2.477 2.337
3153.879 2.377 2.567 2.297 2.327 2.287 2.017 1.827 1.927 2.037 1.747
3173.169 1.627 1.467 1.297 1.397 1.447 1.2457 1.0657 1.1709 1.1467 1.1669
3192.458 1.1929 1.1354 1.2693 1.1699 1.1646 0.9992 0.7316 0.5204 0.674 1.0155
3211.748 0.9007 0.8939 0.8372 0.9609 1.0228 0.604 0.7901 0.7947 0.4962 0.5225
3231.038 0.397 0.3825 0.5335 0.698 0.784 0.6806 0.6098 0.5804 0.5411 0.6202
3250.328 0.7152 0.6783 0.6248 0.5575 0.5531 0.5232 0.2424 0.4178 0.5445 0.5494
3269.617 0.6964 0.4484 0.3997 0.4669 0.4073 0.2453 0.4955 0.7814 0.6372 0.863
3288.907 1.146 0.9083 0.5511 0.4752 0.5816 0.8279 0.7038 0.5695 0.6781 0.6971
3308.197 0.5637 0.2318 0.13 0.4853 0.8488 0.9432 0.9599 0.8194 0.8007 0.9368
3327.487 0.8549 0.8343 0.9206 0.8158 0.719 0.5621 0.5393 0.6974 1.0228 1.1085
3346.777 0.922 1.317 1.707 1.577 1.507 2.037 2.307 1.917 1.947 2.247
3366.066 2.407 2.647 2.677 2.857 3.237 3.217 3.527 3.877 3.697 3.567
3385.356 3.627 3.717 3.737 3.467 3.297 3.227 3.057 2.987 2.957 2.717
3404.646 1.997 1.697 1.847 1.637 1.457 1.477 1.347 1.387 1.477 1.367
3423.936 1.1657 1.1393 1.317 1.327 0.9646 0.7119 1.0066 1.357 1.297 1.347
3443.225 1.357 1.1671 1.1953 1.145 1.1135 0.8456 0.8122 1.1487 1.0115 0.9515
3462.515 1.347 1.507 1.2576 1.1645 1.307 1.407 1.437 1.277 1.427 1.707
3481.805 1.637 1.577 1.617 1.687 2.217 2.517 2.227 2.377 2.467 2.097
3501.095 2.277 2.447 2.497 3.007 3.377 3.407 3.397 3.377 3.777 4.287
3520.385 4.047 3.947 4.237 4.627 4.837 4.857 5.057 5.267 5.637 6.227
3539.674 6.857 7.727 8.447 9.417 10.587 11.827 13.367 15.517 18.527 21.907
3558.964 26.357 32.267 40.207 51.287 66.257 84.557 103.297 117.217 122.767 120.347
3578.254 110.947 94.277 73.227 54.987 41.687 32.347 25.827 20.557 16.317 13.557
3597.544 11.747 10.137 8.767 7.537 6.437 5.727 5.057 4.467 4.047 3.677
3616.833 3.507 3.427 3.077 2.457 2.497 2.537 2.277 2.437 2.697 2.487
3636.123 2.047 1.787 2.017 1.977 1.917 2.157 1.737 1.427 1.527 1.837
3655.413 1.657 1.1824 1.1946 1.2704 1.252 1.2193 1.1841 0.9193 0.8436 1.0853
3674.703 0.9322 0.9582 1.057 1.0186 1.084 1.147 1.0036 0.7327 0.8519 0.8338
3693.993 0.8737 0.8361 0.7247 0.8671 0.8964 0.9803 1.1236 1.0047 0.9924 1.1581
3713.282 1.0492 1.0176 0.9556 0.664 0.7912 0.9164 0.536 0.7669 0.9889 0.7779
3732.572 0.9074 0.4431 0.144 0.6888 0.7021 0.2608 0.286755 0.6715 0.6299 0.046
3751.862 0 0.4953 0.6936 0.6089 0.4194 0.36027 0.4074 0.6001 0.8054 0.7257
3771.152 0.5529 0.7038 0.8242 1.0145 1.1083 0.8614 0.7021 0.473 0.4226 0.6854
3790.441 0.8128 0.7877 0.7062 0.6245 0.9009 0.894 0.7711 0.6763 0.5804 0.6948
3809.731 0.5164 0.4358 0.2598 0.2545 0.5489 0.5475 0.478 0.5193 0.4722 0.5689
3829.021 0.6584 0.29558 0.132 0.4962 0.7208 0.66 0.5572 0.7105 0.645 0.521
3848.311 0.8026 0.692 0.7377 0.7241 0.36247 0.16 0.2442 0.5113 0.7434 0.7618
3867.601 0.5051 0.2164 0.2115 0.4455 0.5504 0.6782 0.7639 0.37154 0.2571 0.5285
3886.890 0.5311 0.280996 0.002 0.37293 0.761 0.6007 0.5128 0.582 0.4568 0.504
3906.180 0.7276 0.8383 0.9915 1.1473 0.8754 0.7858 0.9223 0.5702 0.4729 0.5453
3925.470 0.5831 0.7145 0.3827 0.2266 0.5713 0.5185 0.281197 0.277704 0.4041 0.5628
3944.760 0.482 0.4867 0.6481 0.667 0.4376 0.4365 0.505 0.6886 1.0152 1.177
3964.049 0.9923 0.5212 0.4735 0.3983 0.4823 1.0036 1.1984 1.1411 0.7183 0.31219
3983.339 0.5337 0.6442 0.8636 1.0877 1.1066 1.2131 1.2448 1.0134 0.8744 1.0647
##END=
