##TITLE=p-Tritylphenol
##JCAMP-DX=4.24
##DATA TYPE=INFRARED SPECTRUM
##ORIGIN=EPA-IR VAPOR PHASE LIBRARY
##OWNER=SRD/NIST
Collection (C) 2018 copyright by the U.S. Secretary of Commerce
on behalf of the United States of America. All rights reserved.
##CAS REGISTRY NO=978-86-9
##MOLFORM=C 25 H 20 O
##$NIST SOURCE=MSDC-IR
##STATE=gas
##XUNITS=1/CM
##YUNITS=ABSORBANCE
##XFACTOR=1.
##YFACTOR=0.001
##DELTAX=1.92898
##FIRSTX=549.8
##LASTX=4000.7
##FIRSTY=0.9591
##MAXX=4000.7
##MINX=549.759
##MAXY=0.0321263
##MINY=0
##NPOINTS=1790
##XYDATA=(X++(Y..Y))
549.759 0.9591 0.7358 0.7453 0.7957 0.7404 0.7842 0.9851 1.0403 1.3063 1.3263
569.049 1.2363 1.5863 2.0163 2.7963 3.9863 5.2463 6.4163 7.1863 6.8763 5.6963
588.339 4.3463 2.9163 1.9563 1.5263 1.1463 1.0159 1.0058 0.893 0.8322 0.7717
607.628 0.7956 0.8727 1.0013 1.2263 1.4863 1.7663 1.9263 2.2663 2.9263 3.9163
626.918 5.4763 7.0763 7.6163 6.9563 5.1863 3.3163 2.2163 1.7763 1.5963 1.5163
646.208 1.5063 1.3563 1.2263 1.0963 1.052 1.037 1.0361 1.0702 1.1963 1.2363
665.498 1.2663 1.5263 1.8363 1.9963 2.1263 2.2963 2.5663 2.8363 2.9763 3.1863
684.787 3.4563 3.9363 4.6663 5.9063 8.0663 11.3763 15.4463 19.3863 22.2363 22.6663
704.077 20.7763 17.6263 14.0763 10.9563 8.5663 6.6963 5.3163 4.5263 4.1663 4.0463
723.367 3.9963 3.8163 3.4563 3.2163 3.1763 3.4163 4.1063 5.1663 6.5463 7.7963
742.657 8.6363 8.8263 8.4063 8.0463 7.6863 7.2963 6.8763 6.1763 5.5663 5.0863
761.947 4.5663 4.1063 3.4963 2.7663 2.1663 1.6563 1.3063 1.1963 1.3163 1.2863
781.236 1.1563 1.1463 1.0576 1.0391 1.1063 1.1663 1.2663 1.3963 1.6463 2.1763
800.526 2.5363 2.8563 3.2363 3.6163 4.0563 4.3563 4.8463 5.4863 6.1263 6.6663
819.816 6.9963 7.4163 7.8563 8.0463 7.5263 6.4563 5.3463 4.2763 3.2863 2.5663
839.106 2.2163 1.9963 1.7763 1.6163 1.5463 1.3263 1.1163 1.0312 0.9076 0.9318
858.395 0.9074 0.9007 0.821 0.7789 0.9158 0.9666 0.9506 0.9099 0.8918 0.8977
877.685 0.9569 0.9401 1.028 1.1663 1.2963 1.5063 1.7063 1.7063 1.5963 1.5263
896.975 1.3163 1.0483 0.8437 0.7253 0.6454 0.5503 0.5882 0.6398 0.6091 0.545
916.265 0.4479 0.439 0.4937 0.4432 0.5034 0.5728 0.4793 0.3515 0.3433 0.3754
935.555 0.382 0.3682 0.394 0.5341 0.57 0.5003 0.4224 0.5064 0.5998 0.5593
954.844 0.4924 0.3837 0.3834 0.4244 0.4199 0.4625 0.4922 0.5597 0.5935 0.5342
974.134 0.4289 0.4526 0.5549 0.5338 0.5212 0.5973 0.6688 0.6907 0.7856 0.7533
993.424 0.621 0.7567 1.1063 1.2063 1.2363 1.4063 1.4063 1.3763 1.4063 1.4763
1012.714 1.4463 1.4563 1.3963 1.3163 1.5063 1.4363 1.5963 2.1363 2.4263 2.8963
1032.003 3.5463 3.9463 4.1363 3.6563 2.8763 2.3763 1.6963 1.1763 1.0497 0.8667
1051.293 0.6312 0.6604 0.782 1.0217 1.0729 0.8413 0.7216 0.8052 0.8779 0.8368
1070.583 0.9211 1.1163 1.5063 1.4363 1.3563 1.6063 1.7363 1.5763 1.3163 1.3863
1089.873 1.1863 1.2763 1.6063 1.5863 1.7163 2.0263 2.2763 2.3263 2.4463 2.6763
1109.163 2.7163 2.5363 2.5863 2.2763 1.8463 1.7963 1.5663 1.8263 2.1263 2.2263
1128.452 2.5563 2.9563 3.0863 3.0963 3.1563 2.9063 2.9063 2.7763 2.7063 2.8163
1147.742 2.8863 3.3663 3.6263 3.8263 4.5363 5.3263 6.4763 8.0663 9.9463 12.5763
1167.032 16.1763 20.5663 25.2563 29.6263 32.0463 32.1263 30.0263 25.5963 20.5663 16.2263
1186.322 13.0163 11.0263 9.6563 8.4063 7.3963 6.4863 5.8763 5.3063 4.5463 3.9763
1205.611 3.3863 3.1063 3.2163 2.9963 2.6163 2.4363 2.5363 2.6863 2.3763 2.1863
1224.901 2.3263 2.3063 2.1863 2.3063 2.3363 2.3763 2.4863 2.6363 2.8763 3.1763
1244.191 3.6163 4.1763 5.0063 6.1563 7.8163 9.8063 11.6863 13.3163 14.3763 14.4663
1263.481 13.6863 12.0463 9.8663 7.6663 5.7163 4.3363 3.3363 2.6763 2.3863 2.3763
1282.771 2.3163 1.9863 1.6563 1.4063 1.2763 1.1563 1.0318 1.0202 1.0659 0.9788
1302.060 0.9196 0.9228 0.9153 0.9382 1.0028 1.0238 1.0601 1.2263 1.3863 1.5763
1321.350 1.8763 2.2163 2.6263 3.0863 3.4863 3.6963 3.6663 3.4863 3.1663 2.7563
1340.640 2.3463 2.0063 1.8063 1.6563 1.5363 1.4263 1.3363 1.2863 1.2163 1.1763
1359.930 1.1463 1.1363 1.1363 1.0614 0.9841 0.9526 0.8993 0.8658 0.8821 0.8978
1379.219 0.8907 0.8938 0.9018 0.8626 0.8453 0.884 0.8811 0.8346 0.8106 0.8404
1398.509 0.886 0.8957 0.9296 0.9646 1 1.069 1.2063 1.3963 1.6663 2.0063
1417.799 2.3963 2.8563 3.2063 3.3863 3.3563 3.1763 2.9263 2.7763 2.7363 2.9163
1437.089 3.3763 3.9663 4.5563 5.0763 5.2763 5.0463 4.4963 3.8163 3.1563 2.6963
1456.378 2.4463 2.3763 2.3463 2.3263 2.4263 2.5163 2.5863 2.7563 2.9363 3.1263
1475.668 3.4763 3.9263 4.4263 5.1963 6.2363 7.5463 9.1463 10.8463 12.2863 13.1563
1494.958 13.4263 13.2963 13.3563 14.1963 16.1763 19.0263 21.9863 23.7463 23.2063 20.3063
1514.248 15.9763 11.3963 7.6663 5.3663 3.9863 3.1963 2.7463 2.4463 2.2263 2.0963
1533.538 2.0263 1.9763 1.9163 1.8663 1.7963 1.7663 1.7763 1.7563 1.7963 1.7963
1552.827 1.7563 1.6963 1.6963 1.7063 1.6563 1.6263 1.5663 1.5563 1.6763 1.8663
1572.117 2.0463 2.2463 2.4963 2.7363 3.0363 3.4663 4.0163 4.5963 5.3063 6.2163
1591.407 7.1263 7.9263 8.4463 8.6263 8.5563 8.3463 8.0663 7.7663 7.5563 7.2863
1610.697 7.0563 6.7763 6.3463 5.7063 4.8463 3.9763 3.0963 2.3763 1.8663 1.4763
1629.986 1.2663 1.1463 1.0723 1.0184 0.9237 0.8408 0.8378 0.8305 0.7663 0.758
1649.276 0.753 0.72 0.735 0.7209 0.7077 0.7229 0.6606 0.6279 0.5863 0.5247
1668.566 0.5345 0.5452 0.5358 0.5983 0.6454 0.595 0.5819 0.6348 0.6417 0.5808
1687.856 0.5845 0.5836 0.5551 0.5771 0.566 0.5184 0.5366 0.521 0.4729 0.479
1707.146 0.4856 0.4621 0.4368 0.4657 0.5008 0.4654 0.4463 0.4327 0.3847 0.3914
1726.435 0.4211 0.4434 0.4496 0.4565 0.4772 0.4911 0.5163 0.4985 0.4914 0.492
1745.725 0.5121 0.5288 0.5449 0.5716 0.5775 0.6262 0.6835 0.7186 0.728 0.7776
1765.015 0.792 0.7762 0.83 0.8376 0.834 0.8447 0.8611 0.8466 0.7777 0.6602
1784.305 0.5856 0.5897 0.5746 0.5787 0.6263 0.6477 0.7037 0.8005 0.9178 1.0846
1803.594 1.2263 1.3963 1.4563 1.4163 1.3863 1.2963 1.1563 1.0509 0.9487 0.8759
1822.884 0.7657 0.6634 0.6719 0.6355 0.543 0.5267 0.5661 0.5777 0.5723 0.5764
1842.174 0.5534 0.5084 0.5125 0.5557 0.5995 0.6304 0.6243 0.6361 0.6894 0.7509
1861.464 0.7573 0.7178 0.7216 0.7588 0.7462 0.7318 0.7296 0.7317 0.7456 0.7585
1880.754 0.7306 0.6921 0.71 0.7475 0.7922 0.8518 0.9011 0.946 0.9848 0.994
1900.043 1.0057 1.0283 1.0104 0.9301 0.8846 0.8669 0.8289 0.772 0.6968 0.6414
1919.333 0.6251 0.5836 0.5385 0.5382 0.5318 0.5219 0.5662 0.6445 0.732 0.864
1938.623 0.9643 1.0343 1.1363 1.2263 1.2963 1.3363 1.2963 1.2463 1.1663 1.1063
1957.913 1.0497 0.9308 0.8126 0.7653 0.71 0.5927 0.4979 0.4218 0.3904 0.4068
1977.202 0.4215 0.4447 0.4036 0.3653 0.3773 0.394 0.3858 0.3774 0.3485 0.3687
1996.492 0.3721 0.3216 0.3462 0.3995 0.351 0.2794 0.2977 0.314 0.3158 0.3084
2015.782 0.2906 0.2947 0.3082 0.2748 0.2972 0.3149 0.2971 0.2871 0.2823 0.2626
2035.072 0.1921 0.2275 0.2782 0.2401 0.2529 0.2799 0.3004 0.2901 0.2611 0.3056
2054.362 0.2947 0.2766 0.3399 0.3623 0.3684 0.3823 0.3688 0.3689 0.4033 0.4256
2073.651 0.3952 0.4071 0.4533 0.3886 0.3314 0.346 0.3343 0.3513 0.3739 0.3396
2092.941 0.3103 0.3028 0.2745 0.2505 0.2647 0.2742 0.2218 0.14851 0.15093 0.2007
2112.231 0.2139 0.2282 0.2003 0.17262 0.2034 0.18516 0.17013 0.2209 0.2092 0.19
2131.521 0.2023 0.17264 0.17672 0.2 0.2307 0.2621 0.2268 0.1918 0.2146 0.2089
2150.810 0.2121 0.2434 0.2274 0.188 0.1914 0.2108 0.2391 0.2517 0.2522 0.2416
2170.100 0.1959 0.2237 0.2517 0.2335 0.222 0.1921 0.198 0.2425 0.2607 0.2293
2189.390 0.2193 0.2496 0.2506 0.2403 0.2017 0.205 0.2757 0.2911 0.2531 0.2417
2208.680 0.2232 0.203 0.2318 0.238 0.203 0.1995 0.1955 0.1864 0.2108 0.23
2227.970 0.2599 0.2191 0.15969 0.2206 0.2438 0.15295 0.18379 0.2436 0.1922 0.2247
2247.259 0.2681 0.2687 0.2697 0.2364 0.2281 0.2503 0.2667 0.2846 0.2828 0.2238
2266.549 0.1953 0.2099 0.2001 0.2142 0.2708 0.2994 0.2921 0.2977 0.2679 0.2767
2285.839 0.2791 0.2404 0.2762 0.2786 0.2308 0.2624 0.314 0.2872 0.2416 0.272
2305.129 0.2983 0.3057 0.3396 0.3793 0.423 0.4702 0.4865 0.4368 0.4312 0.4349
2324.418 0.3708 0.2866 0.2802 0.3541 0.3489 0.3295 0.355 0.3469 0.3961 0.449
2343.708 0.4031 0.3729 0.3929 0.4127 0.4396 0.4528 0.3895 0.3254 0.3219 0.3116
2362.998 0.3285 0.3379 0.294 0.3255 0.3285 0.2754 0.3354 0.3681 0.3428 0.3271
2382.288 0.3328 0.3219 0.2798 0.3102 0.3432 0.3081 0.2946 0.3182 0.3479 0.3779
2401.578 0.3309 0.2976 0.3152 0.3383 0.3249 0.3238 0.3678 0.3645 0.4296 0.4825
2420.867 0.5149 0.5792 0.6028 0.6475 0.6232 0.6183 0.6416 0.61 0.5973 0.5273
2440.157 0.4727 0.4701 0.4723 0.4703 0.3948 0.3484 0.3471 0.3447 0.3547 0.3453
2459.447 0.3604 0.2972 0.2207 0.2151 0.2577 0.3047 0.3143 0.3333 0.3132 0.2687
2478.737 0.2699 0.2945 0.2636 0.2109 0.2154 0.2545 0.2498 0.2044 0.2104 0.2413
2498.026 0.289 0.3244 0.2957 0.2919 0.2672 0.2883 0.3786 0.362 0.3428 0.3523
2517.316 0.3256 0.3044 0.339 0.3571 0.2959 0.3005 0.339 0.2931 0.2389 0.2469
2536.606 0.2351 0.2436 0.2872 0.2855 0.2765 0.2356 0.2557 0.2581 0.2089 0.2166
2555.896 0.2389 0.2595 0.2243 0.239 0.2514 0.2614 0.3129 0.3209 0.2969 0.2562
2575.186 0.2631 0.2433 0.2395 0.2537 0.1991 0.1987 0.2267 0.2758 0.348 0.3175
2594.475 0.2725 0.2911 0.3264 0.348 0.3228 0.3382 0.3034 0.1955 0.1878 0.2406
2613.765 0.2353 0.2253 0.2371 0.2271 0.2308 0.2466 0.2569 0.2361 0.2374 0.2373
2633.055 0.2211 0.17573 0.2385 0.2893 0.2403 0.2205 0.1888 0.2063 0.244 0.2715
2652.345 0.2401 0.1956 0.2252 0.2695 0.2495 0.219 0.1979 0.194 0.2029 0.17508
2671.634 0.14327 0.13735 0.17327 0.17151 0.2116 0.261 0.2666 0.2762 0.1961 0.1767
2690.924 0.2387 0.2144 0.1926 0.2127 0.2019 0.1942 0.216 0.2424 0.2768 0.2906
2710.214 0.268 0.2421 0.2067 0.17773 0.2205 0.2397 0.2493 0.2734 0.2663 0.2473
2729.504 0.259 0.3245 0.3369 0.2528 0.14811 0.1894 0.2562 0.2601 0.2489 0.2121
2748.794 0.2295 0.3336 0.357 0.2524 0.1975 0.2551 0.2614 0.2552 0.2899 0.3308
2768.083 0.3361 0.3136 0.2714 0.217 0.1874 0.2288 0.235 0.197 0.2038 0.2362
2787.373 0.3089 0.2741 0.2256 0.2341 0.2504 0.2659 0.2528 0.2297 0.2574 0.2588
2806.663 0.2637 0.2725 0.2753 0.2656 0.17846 0.2195 0.2869 0.2524 0.2889 0.3495
2825.953 0.3378 0.3045 0.3261 0.3189 0.3006 0.3204 0.346 0.2973 0.2688 0.3102
2845.242 0.3128 0.3131 0.3064 0.3265 0.3113 0.2966 0.3274 0.317 0.3544 0.3336
2864.532 0.2774 0.2839 0.269 0.3419 0.3758 0.2992 0.3544 0.3708 0.32 0.2808
2883.822 0.2782 0.3876 0.3811 0.3703 0.4161 0.4366 0.3826 0.3141 0.2669 0.2531
2903.112 0.3344 0.356 0.3755 0.3791 0.3484 0.3465 0.3707 0.3609 0.3689 0.4249
2922.401 0.4416 0.4383 0.3315 0.3215 0.4045 0.3716 0.3627 0.3834 0.3801 0.3488
2941.691 0.3667 0.342 0.3083 0.3863 0.3795 0.3186 0.3243 0.3453 0.3343 0.3142
2960.981 0.3525 0.377 0.3532 0.3501 0.3911 0.3965 0.4093 0.5241 0.5792 0.5494
2980.271 0.5305 0.5421 0.6168 0.7194 0.7971 0.827 0.8777 0.9914 1.1463 1.3363
2999.561 1.5363 1.7463 1.9163 2.1363 2.3863 2.6463 2.8963 3.1663 3.4263 3.8363
3018.850 4.3863 4.9263 5.5063 6.0963 6.6763 7.3263 8.0563 8.6063 8.7963 8.5863
3038.140 7.9763 7.0663 6.1663 5.5163 5.1463 4.9963 5.2463 5.8263 6.7263 8.0163
3057.430 9.5763 11.3463 13.0863 14.6063 15.6263 15.9563 15.4663 14.2163 12.2663 10.1063
3076.720 8.2463 6.8963 6.2563 6.0563 6.1463 6.3463 6.4463 6.3863 6.0463 5.4563
3096.009 4.8263 4.1763 3.5963 3.1663 2.7663 2.5463 2.3663 1.9863 1.6563 1.4863
3115.299 1.3163 1.1663 1.0332 0.9754 0.9162 0.8354 0.7162 0.6516 0.6488 0.5545
3134.589 0.5067 0.4734 0.4863 0.5508 0.6 0.6007 0.6232 0.6189 0.6279 0.6715
3153.879 0.6731 0.6263 0.579 0.5493 0.5055 0.5065 0.454 0.3611 0.2982 0.3056
3173.169 0.3023 0.3381 0.3475 0.308 0.3921 0.4446 0.4086 0.3923 0.413 0.328
3192.458 0.2533 0.307 0.3505 0.3069 0.2202 0.2047 0.192 0.17217 0.14924 0.0755
3211.748 0.14672 0.2294 0.2045 0.2548 0.2156 0.13886 0.17977 0.2069 0.14422 0.17349
3231.038 0.2628 0.14911 0.10248 0.15829 0.10329 0.07977 0.12261 0.12572 0.11812 0.11305
3250.328 0.14863 0.15725 0.1906 0.17259 0.13898 0.2248 0.1905 0.17332 0.2507 0.235
3269.617 0.12856 0.11531 0.12181 0.11188 0.17154 0.1922 0.1938 0.18254 0.17875 0.17714
3288.907 0.17233 0.2467 0.1956 0.15603 0.15538 0.0623 0.0467 0.12846 0.16484 0.2052
3308.197 0.2744 0.1941 0.156 0.2114 0.15196 0.0616 0.088915 0.0671 0.0473 0.09185
3327.487 0.07692 0.2222 0.2866 0.2519 0.3159 0.2707 0.2033 0.204 0.16944 0.1983
3346.777 0.3067 0.2859 0.282 0.2928 0.2691 0.255 0.2531 0.3338 0.3337 0.2791
3366.066 0.2803 0.2908 0.3006 0.2377 0.1894 0.2099 0.2382 0.2548 0.2855 0.2211
3385.356 0.10569 0.18604 0.2726 0.33 0.3354 0.2878 0.192 0.16572 0.1024 0.10618
3404.646 0.1883 0.16989 0.2184 0.2246 0.16359 0.14039 0.14396 0.16296 0.2184 0.2615
3423.936 0.2158 0.13311 0.17583 0.2087 0.2848 0.2853 0.2218 0.222 0.2189 0.2038
3443.225 0.13637 0.12874 0.17537 0.12468 0.14431 0.13785 0.11516 0.16968 0.089862 0.17162
3462.515 0.3339 0.2623 0.17197 0.15916 0.2232 0.2538 0.1973 0.2129 0.2287 0.14563
3481.805 0.1329 0.1653 0.17277 0.17888 0.07799 0.08469 0.15894 0.14626 0.12288 0.11597
3501.095 0.093863 0.13924 0.2018 0.12975 0.15364 0.2688 0.2801 0.18595 0.14819 0.13933
3520.385 0.07845 0.1074 0.13866 0.088405 0.10422 0.12908 0.17651 0.16107 0.0535 0.0544
3539.674 0.11822 0.17456 0.15398 0.087544 0.11037 0.17844 0.2159 0.2247 0.17774 0.14053
3558.964 0.21 0.231 0.2439 0.2546 0.17508 0.0708 0.0725 0.0641 0.0634 0.17666
3578.254 0.229 0.2484 0.2676 0.3028 0.2889 0.16276 0.093998 0.15665 0.12822 0.12554
3597.544 0.2675 0.2815 0.16694 0.2073 0.326 0.3494 0.3114 0.2797 0.2897 0.2589
3616.833 0.2505 0.2926 0.4753 0.6536 0.6898 0.7772 0.9016 1.1063 1.3263 1.6163
3636.123 2.0663 2.7763 3.7963 5.4963 7.8263 10.4263 13.0263 14.4763 14.0563 11.9363
3655.413 8.8163 5.7763 3.3763 1.8563 1.1363 0.787 0.6593 0.6274 0.5967 0.5602
3674.703 0.4235 0.3593 0.4081 0.4938 0.4527 0.3373 0.397 0.4654 0.383 0.3258
3693.993 0.356 0.2935 0.2613 0.2774 0.3011 0.3558 0.2914 0.2639 0.268 0.2582
3713.282 0.3215 0.3737 0.3584 0.2694 0.228 0.2443 0.2535 0.2264 0.1909 0.1874
3732.572 0.15612 0.11988 0.1901 0.2155 0.2487 0.3782 0.4037 0.3069 0.2331 0.193
3751.862 0.18409 0.12187 0.16853 0.17017 0.13788 0.2128 0.217 0.18525 0.2404 0.2614
3771.152 0.10463 0.088214 0.0518 0.07896 0.15377 0.07914 0.11183 0.11289 0.033 0.14119
3790.441 0.16825 0.2009 0.2268 0.17114 0.11392 0.0749 0.16011 0.2448 0.2381 0.1984
3809.731 0.2221 0.10944 0 0.09383 0.1848 0.1508 0.15276 0.13665 0.0728 0.13366
3829.021 0.276 0.2733 0.15064 0.1327 0.1974 0.2898 0.3298 0.3002 0.3188 0.2791
3848.311 0.2576 0.3225 0.2855 0.2822 0.2658 0.1726 0.2042 0.2175 0.1911 0.18082
3867.601 0.1966 0.2875 0.2353 0.13945 0.085932 0.0987 0.15946 0.2049 0.2663 0.2961
3886.890 0.272 0.235 0.1946 0.14331 0.07868 0.14213 0.2975 0.2548 0.1923 0.2425
3906.180 0.2784 0.265 0.2948 0.2995 0.2285 0.2503 0.2709 0.1876 0.17852 0.1544
3925.470 0.087529 0.10881 0.1406 0.18584 0.2669 0.2311 0.2501 0.2135 0.14516 0.1612
3944.760 0.16276 0.2415 0.2636 0.2189 0.2387 0.2518 0.2581 0.2704 0.2175 0.2469
3964.049 0.2662 0.1881 0.2667 0.3094 0.2085 0.1946 0.16449 0.0665 0.09632 0.2074
3983.339 0.199 0.18125 0.1913 0.18352 0.18554 0.16218 0.11768 0.09991 0.13219 0.27
##END=
