##TITLE=Furfurylalcohol
##JCAMP-DX=4.24
##DATA TYPE=INFRARED SPECTRUM
##ORIGIN=NIST Mass Spectrometry Data Center
##OWNER=NIST Standard Reference Data Program
Collection (C) 2018 copyright by the U.S. Secretary of Commerce
on behalf of the United States of America. All rights reserved.
##CAS REGISTRY NO=98-00-0
##MOLFORM=C 5 H 6 O 2
##$NIST SOURCE=MSDC-IR
##SPECTROMETER/DATA SYSTEM=HP-GC/MS/IRD
##STATE=gas
##XUNITS=1/CM
##YUNITS=ABSORBANCE
##XFACTOR=1.0
##YFACTOR=0.000000800
##DELTAX=4.0
##FIRSTX=550.0
##LASTX=3846.0
##FIRSTY=0.000421
##MAXX=3846
##MINX=550
##MAXY=0.008
##MINY=0
##NPOINTS=825
##XYDATA=(X++(Y..Y))
550.0 526 213 5 137 216 330 486 503 492 548
590.0 629 935 1051 909 830 785 723 645 633 557
630.0 425 407 362 293 314 225 164 104 89 208
670.0 184 201 225 209 219 368 655 959 1394 1905
710.0 2623 3437 4251 5143 6206 7020 7325 7442 6734 5527
750.0 4729 4001 3247 2535 1934 1432 1045 907 943 1029
790.0 1173 1347 1576 1806 1804 1541 1300 1133 943 756
830.0 617 492 381 265 191 208 241 281 372 514
870.0 683 892 1068 1207 1416 1688 2000 2180 2231 2228
910.0 2209 2295 2395 2412 2283 2142 2010 1842 1699 1640
950.0 1586 1550 1611 1675 1779 1986 2288 2639 3133 3811
990.0 4672 5677 6764 7847 8822 9582 9981 10000 9630 8883
1030.0 7822 6632 5610 4724 3955 3368 2905 2579 2302 2073
1070.0 1907 1728 1526 1349 1184 1022 834 685 592 522
1110.0 507 505 569 702 982 1436 2111 2892 3375 3600
1150.0 3789 3864 3804 3440 2761 2213 1928 1780 1685 1641
1190.0 1665 1698 1766 1902 1995 2037 2060 2055 2031 1941
1230.0 1813 1672 1532 1367 1256 1221 1162 1139 1062 990
1270.0 976 911 894 877 827 818 803 794 787 773
1310.0 777 815 830 824 843 851 903 1007 1112 1271
1350.0 1504 1790 2112 2494 2837 3053 3181 3282 3284 3205
1390.0 3075 2816 2525 2273 2026 1763 1497 1267 1074 905
1430.0 762 696 681 704 746 766 840 881 882 910
1470.0 908 925 927 921 970 1054 1135 1163 1140 1152
1510.0 1183 1181 1085 972 883 801 728 705 686 600
1550.0 565 589 582 559 555 561 604 656 660 685
1590.0 713 728 713 669 618 549 502 454 355 267
1630.0 216 194 184 196 229 270 277 251 240 215
1670.0 232 245 192 184 204 192 254 349 423 488
1710.0 494 494 491 458 365 243 171 141 103 50
1750.0 54 56 37 37 32 33 31 15 9 6
1790.0 21 49 55 63 70 87 95 87 93 81
1830.0 68 55 36 30 19 11 4 20 25 0
1870.0 7 0 3 10 9 28 26 21 16 17
1910.0 12 20 33 22 22 23 18 9 25 39
1950.0 39 38 56 70 79 77 54 45 68 84
1990.0 101 118 124 113 97 127 155 163 161 158
2030.0 166 161 149 145 115 104 111 111 116 127
2070.0 132 110 120 159 162 153 167 150 127 124
2110.0 129 124 89 72 67 57 75 81 55 65
2150.0 74 64 69 83 86 91 98 80 71 80
2190.0 88 83 96 103 91 99 94 89 113 123
2230.0 123 121 126 133 96 71 83 90 97 101
2270.0 103 82 90 131 133 118 117 107 90 96
2310.0 112 118 122 111 98 123 148 127 110 109
2350.0 121 132 137 146 133 144 162 168 142 111
2390.0 114 119 127 129 138 131 114 142 151 122
2430.0 122 124 102 118 148 132 109 102 127 126
2470.0 95 100 101 104 102 103 90 80 108 99
2510.0 79 92 92 87 93 80 59 68 67 58
2550.0 95 102 97 98 89 118 123 110 112 103
2590.0 66 68 110 103 88 102 109 103 90 110
2630.0 132 107 128 129 142 180 149 153 183 198
2670.0 166 145 146 132 122 115 124 134 154 161
2710.0 151 153 161 161 170 152 135 158 156 156
2750.0 178 166 163 180 179 194 200 195 202 219
2790.0 238 241 239 242 288 356 376 366 412 484
2830.0 517 541 603 682 772 882 976 1075 1206 1349
2870.0 1513 1683 1781 1839 1874 1833 1763 1717 1668 1606
2910.0 1572 1593 1641 1716 1819 1986 2116 2173 2168 2118
2950.0 2026 1919 1779 1619 1466 1308 1180 1015 880 783
2990.0 666 588 493 411 340 279 234 208 183 166
3030.0 151 127 138 122 105 133 139 105 104 105
3070.0 78 65 85 78 99 133 138 159 168 207
3110.0 322 371 405 443 431 421 380 308 289 302
3150.0 263 243 231 225 217 198 182 131 88 71
3190.0 92 103 101 100 105 123 115 80 86 88
3230.0 82 84 61 72 73 65 124 126 88 94
3270.0 102 116 132 136 150 161 174 113 69 126
3310.0 151 112 64 101 178 203 142 118 111 65
3350.0 91 138 151 169 184 167 161 145 164 189
3390.0 175 178 165 137 140 205 162 103 143 193
3430.0 250 231 214 228 237 254 241 198 186 194
3470.0 224 228 201 212 231 221 157 152 233 244
3510.0 214 178 147 207 237 244 258 220 217 210
3550.0 202 223 248 300 342 288 229 249 313 358
3590.0 340 335 356 369 397 426 483 516 574 718
3630.0 869 972 1097 1283 1473 1672 1741 1696 1621 1519
3670.0 1397 1229 998 852 759 658 591 534 454 403
3710.0 365 335 335 322 328 309 288 247 237 277
3750.0 278 226 199 210 277 265 210 213 266 266
3790.0 256 293 283 244 230 237 248 229 216 218
3830.0 193 212 261 285 245
##END=
