##TITLE=m-Trifluoromethylphenol
##JCAMP-DX=4.24
##DATA TYPE=INFRARED SPECTRUM
##ORIGIN=EPA-IR VAPOR PHASE LIBRARY
##OWNER=SRD/NIST
Collection (C) 2018 copyright by the U.S. Secretary of Commerce
on behalf of the United States of America. All rights reserved.
##CAS REGISTRY NO=98-17-9
##MOLFORM=C 7 H 5 F 3 O
##$NIST SOURCE=MSDC-IR
##STATE=gas
##XUNITS=1/CM
##YUNITS=ABSORBANCE
##XFACTOR=1.
##YFACTOR=0.001
##DELTAX=1.92898
##FIRSTX=549.8
##LASTX=4000.7
##FIRSTY=1.277
##MAXX=4000.7
##MINX=549.759
##MAXY=0.289437
##MINY=0
##NPOINTS=1790
##XYDATA=(X++(Y..Y))
549.759 1.277 1.327 1.427 1.337 1.207 0.6419 0.4771 0.9907 1.387 1.447
569.049 1.357 1.517 1.487 1.447 1.877 2.207 2.437 2.837 3.117 3.287
588.339 3.407 3.147 2.947 2.957 2.607 2.347 2.217 2.077 2.237 1.907
607.628 1.507 1.537 1.357 1.277 1.297 1.167 1.137 1.397 1.647 1.987
626.918 2.257 2.077 2.067 2.247 2.437 2.687 2.887 2.967 2.827 3.407
646.208 4.767 6.587 9.187 11.667 12.907 12.857 13.017 12.917 11.957 11.947
665.498 11.417 9.327 7.107 5.817 5.447 5.877 7.217 8.767 10.547 12.537
684.787 14.387 16.187 17.597 18.997 22.557 29.937 32.867 26.667 20.867 18.567
704.077 17.337 16.147 14.197 11.867 9.827 7.817 6.057 5.077 4.037 3.057
723.367 2.657 2.317 2.157 2.317 2.757 3.397 4.557 6.917 10.337 13.657
742.657 15.557 15.947 17.237 18.007 16.977 17.507 17.167 13.907 10.237 7.727
761.947 6.827 7.257 8.397 9.857 11.517 13.367 15.717 18.007 20.197 22.817
781.236 25.287 26.567 26.667 26.817 26.917 25.867 22.957 19.767 17.407 15.137
800.526 13.247 11.257 9.317 7.697 6.237 5.077 4.137 3.487 2.807 2.197
819.816 1.987 1.977 1.787 1.697 1.917 2.087 2.047 2.137 2.557 2.977
839.106 3.457 3.957 4.737 5.487 6.207 7.077 7.707 8.727 9.977 11.337
858.395 12.637 13.507 13.867 13.707 13.927 14.507 15.467 16.967 18.737 20.777
877.685 23.837 28.307 34.327 41.557 49.277 56.377 61.557 65.297 67.727 68.577
896.975 67.517 64.487 59.197 51.717 42.847 34.027 26.557 20.817 16.607 13.447
916.265 10.887 8.747 7.137 6.227 5.577 4.677 4.077 3.577 3.237 3.257
935.555 2.987 2.737 2.827 2.717 2.597 2.707 2.607 2.637 3.007 2.947
954.844 2.787 2.797 2.687 2.757 2.777 2.887 3.037 3.027 3.107 3.217
974.134 3.297 3.047 2.927 3.297 3.247 2.917 2.947 3.277 3.897 4.837
993.424 5.967 6.857 7.177 7.437 7.667 7.507 7.997 8.107 7.237 6.327
1012.714 5.267 4.607 4.437 4.297 3.797 3.107 3.187 3.537 3.137 2.897
1032.003 2.807 3.007 3.507 4.027 4.867 5.987 7.237 9.077 11.937 15.577
1051.293 20.527 25.937 31.367 36.427 40.427 44.067 46.907 48.417 49.227 48.417
1070.583 44.637 39.507 35.897 35.397 36.957 39.457 41.987 43.087 42.877 41.997
1089.873 40.707 38.757 35.797 30.977 25.807 22.437 19.837 18.067 17.137 17.277
1109.163 18.657 20.037 21.497 23.507 26.487 30.247 34.277 40.267 48.207 56.987
1128.452 67.867 80.657 95.507 113.147 133.007 154.657 178.477 204.967 233.287 258.757
1147.742 274.767 276.927 265.787 251.477 239.127 225.717 212.227 201.697 196.437 197.847
1167.032 205.617 216.767 227.707 236.907 241.137 237.087 225.617 211.497 199.797 189.767
1186.322 177.677 161.677 143.757 126.537 111.497 99.847 89.597 78.707 67.237 56.617
1205.611 48.387 42.477 37.817 33.867 30.977 29.627 28.917 28.127 28.887 30.837
1224.901 32.957 36.457 40.397 44.517 49.127 53.357 56.957 59.257 59.557 58.217
1244.191 56.037 52.847 48.547 44.057 38.757 33.037 27.877 23.867 21.127 19.407
1263.481 18.277 17.347 16.897 16.577 16.367 16.337 16.337 16.497 17.127 18.247
1282.771 19.507 20.867 23.107 26.117 29.637 34.067 39.717 46.547 54.247 62.477
1302.060 70.867 78.827 86.307 94.237 102.927 111.847 120.607 128.767 137.267 149.347
1321.350 167.137 190.227 216.807 243.197 265.247 280.827 289.217 289.437 280.457 261.727
1340.640 233.037 195.747 154.477 114.907 80.357 53.447 35.487 24.937 18.927 15.207
1359.930 12.677 10.737 9.127 7.947 7.037 6.257 5.767 5.467 5.117 4.917
1379.219 4.837 4.727 4.667 4.607 4.527 4.527 4.557 4.637 4.927 5.367
1398.509 5.897 6.387 6.827 7.337 7.977 8.697 9.537 10.317 10.917 11.477
1417.799 11.947 12.197 12.297 12.447 12.737 13.077 13.347 13.727 14.407 15.397
1437.089 16.977 19.167 22.047 25.727 30.277 35.807 42.227 48.777 54.667 58.727
1456.378 60.687 61.437 61.867 61.997 61.237 58.527 52.867 45.657 39.477 35.357
1475.668 32.967 31.347 29.927 28.227 26.167 23.977 21.867 20.007 18.147 16.477
1494.958 15.367 14.617 13.947 13.057 11.847 10.557 9.177 7.857 6.947 6.267
1514.248 5.677 5.247 4.967 4.687 4.507 4.337 4.217 4.177 4.047 3.877
1533.538 3.887 3.877 3.787 3.677 3.577 3.387 3.157 3.077 3.117 3.177
1552.827 3.257 3.337 3.477 3.787 3.957 4.177 4.597 5.067 5.627 6.297
1572.117 7.167 8.267 9.707 11.327 13.127 15.207 17.417 19.897 22.337 24.617
1591.407 26.677 28.637 30.237 31.327 32.187 32.577 32.587 32.487 31.997 30.997
1610.697 29.727 28.197 26.567 24.837 22.887 20.897 19.047 17.167 15.337 13.757
1629.986 12.427 11.317 10.257 9.227 8.327 7.587 6.807 6.207 5.817 5.447
1649.276 5.107 4.917 4.667 4.397 4.247 4.067 3.917 3.767 3.597 3.427
1668.566 3.247 3.057 2.847 2.787 2.717 2.647 2.587 2.517 2.547 2.407
1687.856 2.267 2.317 2.317 2.217 2.137 1.977 1.927 1.947 1.927 1.947
1707.146 1.917 1.887 1.867 1.887 1.967 1.927 1.897 1.917 1.767 1.637
1726.435 1.647 1.597 1.537 1.587 1.627 1.597 1.657 1.787 1.827 1.817
1745.725 1.937 2.037 2.137 2.277 2.417 2.567 2.707 2.827 2.817 2.737
1765.015 2.677 2.627 2.487 2.417 2.327 2.197 2.057 1.827 1.717 1.617
1784.305 1.527 1.457 1.347 1.257 1.197 1.157 1.11 1.0416 1.0341 1.0902
1803.594 1.0767 0.9905 0.9899 0.9325 0.9394 0.9635 0.9113 0.8685 0.8785 1.0624
1822.884 1.0976 1.0459 1.0918 1.1241 1.197 1.357 1.487 1.507 1.577 1.607
1842.174 1.577 1.597 1.507 1.417 1.427 1.477 1.507 1.487 1.547 1.617
1861.464 1.537 1.427 1.437 1.417 1.317 1.207 1.137 1.0174 0.9097 0.8891
1880.754 0.8549 0.8606 0.9513 0.978 0.9098 0.883 0.99 1.0807 1.0862 1.0602
1900.043 1.0932 1.187 1.167 1.187 1.297 1.317 1.297 1.397 1.527 1.607
1919.333 1.667 1.727 1.797 1.897 1.927 1.897 1.817 1.807 1.777 1.607
1938.623 1.487 1.427 1.367 1.207 1.0478 0.9173 0.7721 0.6336 0.6056 0.5764
1957.913 0.5109 0.5472 0.5617 0.5748 0.5296 0.4428 0.4153 0.4163 0.4047 0.3834
1977.202 0.4179 0.4255 0.4178 0.4942 0.536 0.5758 0.5945 0.5996 0.6012 0.5327
1996.492 0.4345 0.3454 0.3102 0.3206 0.3567 0.3666 0.3428 0.3091 0.3242 0.2588
2015.782 0.21925 0.2868 0.3044 0.3671 0.4201 0.436 0.4323 0.398 0.4699 0.5441
2035.072 0.5704 0.655 0.7154 0.6753 0.6189 0.6688 0.717 0.683 0.7034 0.7466
2054.362 0.7552 0.8214 0.8587 0.9451 1.083 1.0991 1.157 1.257 1.247 1.327
2073.651 1.377 1.397 1.417 1.437 1.457 1.407 1.347 1.247 1.1311 1.0072
2092.941 0.8845 0.7415 0.7037 0.6725 0.6595 0.7124 0.6649 0.5775 0.5865 0.6395
2112.231 0.652 0.7252 0.7791 0.8277 0.9252 1.0268 1.137 1.167 1.267 1.407
2131.521 1.377 1.317 1.357 1.287 1.137 1.0787 1.0036 0.9586 0.8413 0.7388
2150.810 0.6813 0.6029 0.5764 0.5282 0.4828 0.4144 0.4522 0.4901 0.4621 0.4725
2170.100 0.4191 0.3991 0.3908 0.3455 0.3833 0.4277 0.3755 0.3808 0.4397 0.4467
2189.390 0.5144 0.585 0.5749 0.5872 0.5577 0.5466 0.6425 0.7022 0.7167 0.7124
2208.680 0.7324 0.6939 0.7134 0.7344 0.6945 0.7353 0.7834 0.883 0.9313 0.8651
2227.970 0.8584 0.8976 0.9257 0.9445 1.0316 1.107 0.9962 0.8979 0.8904 0.8764
2247.259 0.8592 0.8263 0.8695 0.9123 0.9816 1.0233 0.9863 0.9901 0.9771 0.9462
2266.549 0.9133 1.0257 1.0502 1.0183 1.0891 1.087 1.1026 1.0327 0.9178 0.8868
2285.839 0.9019 0.9444 0.9055 0.8317 0.8961 0.9495 0.8249 0.821 0.8981 0.8631
2305.129 0.8839 0.9687 1.0599 1.0796 1.0423 1.1368 1.187 1.257 1.387 1.377
2324.418 1.367 1.377 1.427 1.507 1.477 1.467 1.527 1.537 1.557 1.497
2343.708 1.397 1.447 1.427 1.377 1.427 1.387 1.337 1.387 1.387 1.347
2362.998 1.297 1.177 1.07 1.0299 1.0602 1.1168 1.0624 1.0591 1.0926 1.026
2382.288 1.0623 1.147 1.197 1.227 1.277 1.277 1.297 1.327 1.387 1.457
2401.578 1.427 1.467 1.447 1.407 1.367 1.357 1.357 1.277 1.317 1.317
2420.867 1.217 1.227 1.247 1.227 1.157 1.177 1.157 0.9667 0.8912 0.8693
2440.157 0.7679 0.7294 0.6324 0.5611 0.5537 0.6483 0.6904 0.6776 0.743 0.7535
2459.447 0.8353 0.8985 0.9046 0.9305 0.9608 1.1036 1.197 1.217 1.277 1.267
2478.737 1.337 1.387 1.327 1.247 1.237 1.247 1.217 1.167 1.187 1.227
2498.026 1.227 1.237 1.197 1.0515 0.9915 1.0402 1.1011 1.0592 0.9897 0.9254
2517.316 0.8587 0.8421 0.857 0.8069 0.7249 0.6685 0.5851 0.5549 0.4953 0.4716
2536.606 0.5391 0.5889 0.577 0.5813 0.6539 0.6634 0.649 0.6149 0.5719 0.596
2555.896 0.5945 0.5659 0.5843 0.5442 0.4655 0.4868 0.5414 0.4791 0.4538 0.4851
2575.186 0.4524 0.4185 0.334 0.2925 0.3611 0.3463 0.3244 0.2943 0.2416 0.3052
2594.475 0.3516 0.4215 0.3962 0.3428 0.4296 0.4141 0.434 0.5179 0.4624 0.4055
2613.765 0.4702 0.577 0.6405 0.5929 0.6129 0.6442 0.628 0.6415 0.6349 0.663
2633.055 0.6967 0.7039 0.6283 0.6762 0.789 0.7753 0.8402 0.9414 0.8874 0.8526
2652.345 0.8139 0.8413 0.9114 0.7954 0.7926 0.8586 0.8931 0.9466 0.854 0.6878
2671.634 0.6108 0.6353 0.6452 0.5776 0.3609 0.3426 0.4117 0.3387 0.3676 0.333
2690.924 0.2881 0.20301 0.22204 0.2453 0.13964 0.2635 0.3078 0.2465 0.258 0.20476
2710.214 0.22162 0.23676 0.12971 0.0986 0.0474 0.0775 0.17644 0.126 0.142684 0.121
2729.504 0.0851 0.18332 0.16776 0.16356 0.18629 0.13567 0.16603 0.2812 0.2552 0.12885
2748.794 0.16178 0.21875 0.2849 0.3026 0.2498 0.1723 0.0544 0.096 0.2499 0.3177
2768.083 0.3041 0.2483 0.2712 0.4247 0.3772 0.3448 0.4479 0.4202 0.3839 0.4117
2787.373 0.4598 0.3789 0.294 0.3302 0.4504 0.4894 0.368 0.2807 0.3398 0.465
2806.663 0.3765 0.2496 0.22276 0.18771 0.144793 0.17454 0.2441 0.15616 0.15854 0.2451
2825.953 0.2671 0.2509 0.2603 0.2802 0.2932 0.16033 0 0.0621 0.1125 0.1249
2845.242 0.19756 0.20722 0.20301 0.2808 0.3091 0.2908 0.3012 0.3245 0.3397 0.22769
2864.532 0.0824 0.1222 0.17645 0.20961 0.21998 0.22472 0.2433 0.21502 0.1182 0.0667
2883.822 0.0849 0.14981 0.17685 0.0979 0.0786 0.0995 0.18128 0.23238 0.2306 0.20986
2903.112 0.3432 0.2999 0.17142 0.2373 0.3146 0.3433 0.3336 0.39 0.3588 0.4549
2922.401 0.5748 0.5561 0.4921 0.455 0.5649 0.6918 0.7634 0.6624 0.5833 0.6108
2941.691 0.5167 0.4887 0.5608 0.5559 0.5764 0.6035 0.6813 0.7574 0.5332 0.4138
2960.981 0.4526 0.5073 0.5442 0.4203 0.5046 0.5534 0.4888 0.5449 0.4789 0.381
2980.271 0.4139 0.5027 0.5849 0.5649 0.5023 0.4548 0.4071 0.4804 0.6105 0.7072
2999.561 0.7011 0.6758 0.7326 0.9121 0.9736 0.8652 0.9953 1.387 1.807 2.087
3018.850 2.447 2.887 3.247 3.747 4.137 4.407 4.617 4.787 4.967 4.917
3038.140 4.827 4.707 4.547 4.367 4.317 4.397 4.427 4.587 4.827 4.937
3057.430 5.117 5.387 5.667 5.877 5.967 5.937 5.887 5.897 5.937 5.777
3076.720 5.487 5.347 5.097 4.827 4.757 4.647 4.587 4.357 3.907 3.597
3096.009 3.267 2.937 2.707 2.547 2.437 2.307 2.187 2.007 1.787 1.597
3115.299 1.527 1.427 1.297 1.167 1.1286 1.0837 0.9033 0.9404 0.9131 0.687
3134.589 0.7355 0.7252 0.5397 0.4635 0.2585 0.1267 0.20196 0.20814 0.087 0.17787
3153.879 0.0999 0.024 0.142619 0.1159 0.18402 0.1023 0.1232 0.2575 0.22116 0.2812
3173.169 0.3492 0.2424 0.18413 0.2487 0.21177 0.22113 0.19276 0.0965 0.0649 0.082
3192.458 0.17221 0.2558 0.3254 0.308 0.15803 0.1312 0.22202 0.3377 0.3726 0.242
3211.748 0.2416 0.2909 0.2651 0.316 0.3351 0.2455 0.19011 0.18062 0.19937 0.21084
3231.038 0.16436 0.19706 0.256 0.20545 0.0828 0.15202 0.21438 0.1333 0.15191 0.21824
3250.328 0.2811 0.3372 0.2836 0.1026 0.0892 0.18901 0.2732 0.3354 0.299 0.254
3269.617 0.2826 0.3843 0.3237 0.0861 0.13242 0.23467 0.15027 0.22999 0.2504 0.21046
3288.907 0.19094 0.15986 0.0911 0.0647 0.15199 0.1237 0.2652 0.4216 0.2984 0.22728
3308.197 0.3372 0.23502 0.2723 0.4098 0.3412 0.331 0.4657 0.541 0.434 0.3542
3327.487 0.3239 0.5411 0.6383 0.6772 0.6469 0.7195 0.9637 0.9902 1.1345 0.9168
3346.777 0.6382 0.9513 1.1196 0.8768 0.7266 0.6888 0.8098 0.9842 0.8102 0.6626
3366.066 0.8853 0.9842 1.0276 1.0329 0.8836 0.8675 0.917 0.8312 0.7912 0.7357
3385.356 0.5126 0.4969 0.6171 0.6277 0.5893 0.6107 0.6146 0.6423 0.578 0.3445
3404.646 0.2853 0.5287 0.5475 0.4337 0.529 0.6345 0.6412 0.6468 0.667 0.7159
3423.936 0.7612 0.613 0.5488 0.6828 0.7114 0.5679 0.5795 0.6477 0.6967 0.7306
3443.225 0.5451 0.3877 0.5855 0.7479 0.4904 0.2952 0.3409 0.4827 0.6186 0.4416
3462.515 0.3984 0.4469 0.3954 0.5769 0.6769 0.561 0.5773 0.4374 0.3861 0.4782
3481.805 0.305 0.4049 0.5634 0.4897 0.2933 0.2708 0.4374 0.5294 0.4872 0.4384
3501.095 0.4981 0.4138 0.2057 0.19589 0.3585 0.3043 0.1941 0.20133 0.17431 0.21566
3520.385 0.3838 0.4982 0.3374 0.2855 0.3732 0.4267 0.4257 0.3619 0.3798 0.2412
3539.674 0.20474 0.4081 0.4025 0.4478 0.5108 0.3088 0.32 0.5042 0.6314 0.4846
3558.964 0.21267 0.2658 0.2985 0.18118 0.3268 0.5166 0.5628 0.6163 0.6438 0.608
3578.254 0.4961 0.4231 0.4542 0.4855 0.4498 0.4096 0.554 0.7831 0.7453 0.707
3597.544 0.6738 0.7083 0.8158 0.8577 0.8899 1.0774 1.347 1.397 1.487 1.877
3616.833 2.337 2.767 3.277 4.107 5.337 6.817 8.647 10.707 13.397 16.937
3636.123 21.227 26.497 32.447 39.147 45.777 50.947 53.967 54.447 53.377 52.397
3655.413 50.277 46.157 40.917 33.257 24.647 17.437 12.157 8.807 6.497 4.927
3674.703 3.857 2.927 2.157 1.797 1.517 1.257 1.187 1.0632 1.0863 1.0089
3693.993 0.7404 0.4908 0.4277 0.4959 0.5389 0.6659 0.696 0.5471 0.4206 0.2905
3713.282 0.2696 0.4292 0.5059 0.415 0.4726 0.6041 0.6846 0.6281 0.4139 0.5301
3732.572 0.5715 0.5365 0.6859 0.651 0.4911 0.4889 0.6063 0.4473 0.3478 0.432
3751.862 0.5147 0.5494 0.4631 0.5894 0.5214 0.5046 0.6447 0.5726 0.5145 0.5293
3771.152 0.5143 0.3691 0.3426 0.4385 0.5305 0.586 0.4574 0.2213 0.2997 0.3672
3790.441 0.3036 0.5329 0.6409 0.4193 0.3378 0.3265 0.3848 0.4969 0.4323 0.4518
3809.731 0.5483 0.5448 0.6212 0.8429 0.8931 0.7944 0.767 0.8326 0.8474 0.8456
3829.021 0.7567 0.6377 0.6447 0.7205 0.7441 0.655 0.6615 0.6626 0.4584 0.4485
3848.311 0.7853 0.9613 0.9247 0.9759 0.9398 0.8622 0.7005 0.7413 0.8394 0.8438
3867.601 0.9757 0.9703 0.7771 0.7474 0.7725 0.5344 0.574 0.7201 0.7863 0.8098
3886.890 0.9146 0.8024 0.6578 0.6794 0.5621 0.4752 0.6233 0.6383 0.5425 0.6299
3906.180 0.664 0.6731 0.7839 0.7819 0.6569 0.7305 0.7539 0.6898 0.6798 0.7973
3925.470 0.9276 0.8668 0.8297 0.8163 0.8545 0.8612 0.6135 0.6567 0.7882 0.6327
3944.760 0.5915 0.8405 0.8429 0.7565 0.7872 0.6684 0.8616 1.0248 0.9674 0.9804
3964.049 0.9517 1.0269 1.1149 0.8924 0.727 0.7131 0.5412 0.415 0.3951 0.4214
3983.339 0.3369 0.14869 0.1173 0.23488 0.2772 0.3598 0.4424 0.3635 0.3928 0.4945
##END=
