##TITLE=m-Aminobenzenesulfonamide
##JCAMP-DX=4.24
##DATA TYPE=INFRARED SPECTRUM
##ORIGIN=NIST Mass Spectrometry Data Center
##OWNER=NIST Standard Reference Data Program
Collection (C) 2018 copyright by the U.S. Secretary of Commerce
on behalf of the United States of America. All rights reserved.
##CAS REGISTRY NO=98-18-0
##MOLFORM=C 6 H 8 N 2 O 2 S
##$NIST SOURCE=MSDC-IR
##SPECTROMETER/DATA SYSTEM=HP-GC/MS/IRD
##STATE=gas
##XUNITS=1/CM
##YUNITS=ABSORBANCE
##XFACTOR=1.0
##YFACTOR=0.000000800
##DELTAX=4.0
##FIRSTX=550.0
##LASTX=3846.0
##FIRSTY=0.000942
##MAXX=3846
##MINX=550
##MAXY=0.008
##MINY=0
##NPOINTS=825
##XYDATA=(X++(Y..Y))
550.0 1178 1883 1680 2160 2685 3477 4574 5728 6605 6933
590.0 6597 5837 4852 3935 3180 2625 2230 1992 1876 1863
630.0 1865 1916 2025 2174 2391 2553 2672 2723 2691 2723
670.0 2862 3100 3515 3975 4217 4293 4159 3756 3164 2630
710.0 2230 2018 1941 1808 1718 1690 1602 1546 1571 1570
750.0 1574 1654 1760 1917 2211 2592 2912 2986 2840 2601
790.0 2293 2047 1906 1807 1819 1933 2012 2233 2634 2943
830.0 3332 3729 3906 3834 3504 3020 2501 2074 1800 1576
870.0 1408 1283 1214 1211 1168 1215 1406 1603 1716 1715
910.0 1557 1276 1008 796 666 558 490 420 332 323
950.0 314 297 306 270 245 258 247 256 277 301
990.0 322 329 292 212 160 96 64 46 50 64
1030.0 107 114 76 95 85 18 90 183 221 309
1070.0 382 497 651 796 906 880 797 720 614 546
1110.0 555 567 558 575 570 519 527 644 879 1237
1150.0 1814 2764 4205 6132 8215 9681 10000 9008 7053 4943
1190.0 3294 2177 1435 983 740 591 463 363 344 327
1230.0 309 306 313 401 619 876 1219 1719 2305 2765
1270.0 2879 2660 2177 1665 1354 1314 1522 1879 2160 2282
1310.0 2215 1933 1599 1387 1281 1274 1300 1359 1567 1882
1350.0 2298 2860 3571 4444 5624 6943 8008 8473 8206 7236
1390.0 5750 4204 2922 2033 1450 1094 870 740 717 766
1430.0 852 993 1237 1541 1771 1910 1902 1806 1677 1573
1470.0 1574 1752 2111 2428 2477 2288 1902 1356 910 646
1510.0 547 570 611 707 873 1041 1190 1351 1538 1740
1550.0 1876 1871 1739 1596 1454 1323 1268 1321 1519 1785
1590.0 2126 2459 2730 2911 3065 3279 3697 4355 4958 5138
1630.0 4844 4036 2934 2003 1365 933 667 534 420 334
1670.0 255 204 179 133 134 155 126 101 115 135
1710.0 148 122 91 109 131 113 79 98 116 95
1750.0 72 73 77 67 43 29 35 42 23 18
1790.0 7 5 16 8 8 20 36 22 22 27
1830.0 34 60 87 73 48 56 56 32 24 11
1870.0 0 12 17 19 22 22 29 36 49 68
1910.0 86 114 127 124 111 95 86 65 43 47
1950.0 65 73 60 44 44 51 64 56 44 53
1990.0 55 56 42 9 14 34 42 42 31 9
2030.0 18 50 66 67 45 16 32 48 44 65
2070.0 74 59 55 45 45 48 29 20 25 36
2110.0 51 54 59 52 38 40 49 46 50 75
2150.0 63 43 41 34 42 41 34 47 56 67
2190.0 60 37 42 57 53 41 41 54 42 30
2230.0 51 45 59 79 72 61 54 54 58 55
2270.0 56 43 38 54 60 55 44 34 28 29
2310.0 39 57 55 56 78 86 81 66 61 77
2350.0 105 116 91 72 47 31 33 44 60 71
2390.0 71 80 85 84 90 76 70 77 51 30
2430.0 34 29 55 62 72 83 69 69 58 46
2470.0 58 63 60 61 88 97 74 53 53 81
2510.0 90 90 84 107 124 106 103 101 125 143
2550.0 130 138 122 100 107 108 110 97 74 81
2590.0 101 94 109 110 85 83 94 97 92 91
2630.0 95 102 110 109 108 92 81 88 91 100
2670.0 104 107 122 122 109 98 79 67 74 68
2710.0 58 55 87 117 79 58 70 61 70 101
2750.0 109 80 76 94 69 51 31 28 45 56
2790.0 52 24 26 62 81 85 89 71 25 6
2830.0 32 81 93 73 76 64 77 92 77 87
2870.0 91 95 107 85 57 97 131 100 107 107
2910.0 100 120 115 101 105 80 68 76 86 111
2950.0 114 117 124 101 93 97 98 106 109 88
2990.0 94 110 129 169 209 250 318 407 456 484
3030.0 487 480 491 511 572 623 683 785 861 800
3070.0 698 653 611 531 422 380 348 305 283 257
3110.0 195 153 131 59 93 138 104 102 110 95
3150.0 66 52 61 84 95 85 69 86 125 139
3190.0 106 88 113 125 157 214 237 200 181 202
3230.0 208 212 230 218 200 186 185 177 160 152
3270.0 130 139 129 127 112 110 133 144 118 86
3310.0 141 170 135 124 171 199 242 318 400 498
3350.0 627 805 1021 1298 1535 1633 1639 1498 1295 1099
3390.0 921 820 777 786 867 943 990 1038 1013 948
3430.0 898 767 631 596 588 635 754 903 1031 1087
3470.0 1157 1247 1269 1230 1179 1138 1050 975 944 902
3510.0 824 709 567 417 330 304 230 175 152 140
3550.0 183 168 131 124 58 25 69 83 78 76
3590.0 80 84 56 113 121 71 87 105 108 75
3630.0 51 89 92 77 121 120 72 63 96 77
3670.0 35 24 20 46 81 83 115 128 87 108
3710.0 150 149 135 95 75 103 63 28 74 45
3750.0 23 41 64 42 34 131 158 125 112 131
3790.0 144 94 80 89 60 70 70 42 62 82
3830.0 100 72 52 87 94
##END=
