##TITLE=1-tert-Butyl-3,4,5-trimethylbenzene
##JCAMP-DX=4.24
##DATA TYPE=INFRARED SPECTRUM
##ORIGIN=NIST Mass Spectrometry Data Center
##OWNER=NIST Standard Reference Data Program
Collection (C) 2018 copyright by the U.S. Secretary of Commerce
on behalf of the United States of America. All rights reserved.
##CAS REGISTRY NO=98-23-7
##MOLFORM=C 13 H 20
##$NIST SOURCE=MSDC-IR
##SPECTROMETER/DATA SYSTEM=HP-GC/MS/IRD
##STATE=gas
##XUNITS=1/CM
##YUNITS=ABSORBANCE
##XFACTOR=1.0
##YFACTOR=0.000003600
##DELTAX=4.0
##FIRSTX=550.0
##LASTX=3846.0
##FIRSTY=0.000508
##MAXX=3846
##MINX=550
##MAXY=0.036
##MINY=0
##NPOINTS=825
##XYDATA=(X++(Y..Y))
550.0 141 110 78 58 37 38 40 25 28 14
590.0 13 22 26 26 50 94 115 153 199 178
630.0 131 106 68 38 30 30 33 33 29 5
670.0 9 23 17 28 36 33 49 96 172 262
710.0 374 467 411 298 212 138 87 50 33 33
750.0 42 39 35 31 31 34 28 33 32 34
790.0 54 64 61 64 62 66 51 27 30 41
830.0 57 57 70 100 164 287 444 631 852 958
870.0 814 602 412 255 164 129 116 96 97 117
910.0 131 174 268 362 419 425 373 278 199 148
950.0 122 109 105 113 128 152 185 232 289 355
990.0 429 504 531 499 431 354 292 245 217 188
1030.0 157 136 128 116 107 110 111 118 128 142
1070.0 167 184 191 186 166 144 123 111 107 109
1110.0 126 149 154 142 120 101 88 88 97 98
1150.0 101 106 118 142 176 227 303 407 531 667
1190.0 810 913 926 812 606 423 329 319 402 559
1230.0 698 741 657 475 304 217 191 174 164 174
1270.0 194 238 308 397 527 678 794 813 714 534
1310.0 362 257 208 190 195 211 230 266 319 402
1350.0 523 678 864 1038 1150 1148 1043 912 810 784
1390.0 836 899 923 882 780 688 646 616 592 591
1430.0 624 699 812 950 1109 1258 1378 1461 1513 1568
1470.0 1653 1843 2099 2265 2264 2050 1675 1287 969 726
1510.0 558 464 413 384 369 364 365 376 385 400
1550.0 429 461 512 566 622 694 760 803 807 784
1590.0 746 725 737 773 784 732 623 475 336 237
1630.0 176 151 129 110 103 100 93 90 87 83
1670.0 81 77 71 71 68 64 69 69 66 63
1710.0 66 79 97 121 146 171 188 188 184 173
1750.0 152 128 105 83 64 56 50 49 51 48
1790.0 48 49 41 40 37 32 36 33 29 31
1830.0 33 31 27 28 27 25 30 31 29 29
1870.0 32 34 36 38 43 50 49 43 40 38
1910.0 34 34 35 38 35 29 25 26 23 21
1950.0 22 20 20 23 21 20 22 23 24 21
1990.0 19 19 18 15 15 17 18 16 14 16
2030.0 16 14 14 14 11 13 15 14 16 15
2070.0 6 5 9 13 15 15 17 14 10 12
2110.0 13 11 11 11 11 9 8 13 16 17
2150.0 16 13 12 14 19 21 21 21 20 16
2190.0 11 15 17 10 7 10 8 8 12 8
2230.0 4 3 4 0 0 4 4 8 10 8
2270.0 9 15 19 21 20 15 14 14 11 11
2310.0 11 8 6 6 4 3 2 4 3 3
2350.0 5 7 8 9 12 15 15 20 21 26
2390.0 31 31 31 26 23 25 25 23 24 22
2430.0 15 17 23 24 19 21 20 18 19 23
2470.0 25 24 24 27 29 27 20 16 14 12
2510.0 11 11 14 16 18 15 12 13 16 21
2550.0 27 32 33 27 25 25 25 25 23 21
2590.0 20 18 18 19 17 17 20 23 25 22
2630.0 26 32 32 31 35 45 47 48 51 50
2670.0 52 53 52 57 60 59 65 73 72 75
2710.0 88 104 119 138 157 177 198 213 214 197
2750.0 168 153 148 152 158 156 166 173 179 195
2790.0 204 208 224 245 269 294 318 344 376 417
2830.0 466 525 600 702 839 1035 1309 1669 2126 2646
2870.0 3136 3471 3601 3550 3409 3276 3253 3356 3565 3869
2910.0 4213 4538 4844 5129 5371 5538 5606 5606 5673 5998
2950.0 6688 7675 8745 9630 10000 9582 8400 6742 5066 3754
2990.0 2830 2203 1791 1534 1386 1295 1243 1224 1223 1240
3030.0 1267 1287 1297 1314 1335 1346 1326 1268 1174 1045
3070.0 907 775 652 557 484 424 373 333 306 277
3110.0 251 233 215 196 184 175 160 149 141 130
3150.0 116 117 122 117 114 111 113 116 114 108
3190.0 101 108 106 97 96 102 99 93 93 83
3230.0 72 70 69 63 58 52 51 55 50 50
3270.0 52 51 52 46 38 33 37 34 31 26
3310.0 23 24 29 28 22 23 22 14 11 16
3350.0 16 11 16 21 23 22 23 34 32 28
3390.0 26 26 28 26 22 15 15 16 16 18
3430.0 16 18 19 15 19 20 16 13 8 11
3470.0 13 15 12 10 10 8 10 11 14 18
3510.0 17 10 9 10 13 18 14 15 15 7
3550.0 13 8 7 15 8 4 9 7 10 16
3590.0 17 19 14 11 15 15 11 13 18 18
3630.0 16 15 22 9 0 8 8 6 3 5
3670.0 8 14 16 12 7 3 1 1 0 4
3710.0 10 11 14 9 6 16 18 11 11 17
3750.0 17 14 11 9 11 17 14 12 13 10
3790.0 2 0 3 11 16 11 10 19 27 18
3830.0 16 16 18 24 23
##END=
