##TITLE=2-Iodophenyl isothiocyanate
##JCAMP-DX=4.24
##DATA TYPE=INFRARED SPECTRUM
##ORIGIN=EPA-IR VAPOR PHASE LIBRARY
##OWNER=SRD/NIST
Collection (C) 2018 copyright by the U.S. Secretary of Commerce
on behalf of the United States of America. All rights reserved.
##CAS REGISTRY NO=98041-44-2
##MOLFORM=C 7 H 4 I N S
##$NIST SOURCE=MSDC-IR
##STATE=gas
##XUNITS=1/CM
##YUNITS=ABSORBANCE
##XFACTOR=1.
##YFACTOR=0.001
##DELTAX=1.92898
##FIRSTX=549.8
##LASTX=4000.7
##FIRSTY=18.457
##MAXX=4000.7
##MINX=549.759
##MAXY=0.613217
##MINY=0
##NPOINTS=1790
##XYDATA=(X++(Y..Y))
549.759 18.457 18.277 18.337 18.517 18.947 19.257 19.557 20.167 20.667 20.187
569.049 19.287 18.537 17.437 16.337 15.197 13.807 12.847 12.177 11.387 10.267
588.339 9.307 8.647 7.947 7.227 6.777 6.537 6.047 5.577 5.457 5.417
607.628 5.147 4.937 4.787 4.657 4.627 4.307 4.117 4.247 4.257 4.347
626.918 4.707 5.707 7.107 8.817 11.187 13.327 14.397 15.097 15.927 15.777
646.208 14.227 11.807 9.417 7.537 6.247 5.477 5.007 4.897 4.837 4.607
665.498 4.457 4.607 5.147 5.757 6.267 7.007 7.817 8.647 9.327 10.167
684.787 11.077 11.857 13.107 14.747 16.847 19.567 22.747 25.797 28.087 29.977
704.077 31.367 31.707 30.467 27.997 24.907 21.267 17.637 14.517 11.887 9.797
723.367 8.277 7.467 7.577 9.007 11.687 16.617 24.867 36.997 52.067 67.617
742.657 81.007 94.827 115.787 141.927 133.597 92.367 71.067 62.677 48.937 33.377
761.947 20.237 11.987 7.367 5.067 3.797 3.077 2.637 2.327 2.257 2.397
781.236 2.607 2.937 3.547 4.347 4.937 5.267 5.367 5.267 5.027 4.707
800.526 4.047 3.427 3.007 2.607 2.377 2.327 2.147 1.997 1.947 2.157
819.816 2.417 2.597 2.647 2.547 2.597 2.557 2.367 2.137 2.177 2.067
839.106 1.757 1.767 2.007 2.277 2.507 2.607 2.807 3.327 3.727 3.367
858.395 2.797 2.657 2.527 2.387 2.277 2.077 1.907 1.837 1.777 1.797
877.685 1.887 1.807 1.967 2.187 2.347 2.567 2.757 3.217 3.617 4.047
896.975 4.367 4.697 5.297 5.897 6.387 6.737 7.127 7.687 8.387 9.047
916.265 9.677 10.457 11.477 12.777 14.607 16.917 19.957 23.847 28.407 33.757
935.555 39.967 46.647 52.697 56.477 57.537 56.927 54.607 50.017 43.867 37.367
954.844 30.967 25.437 20.997 17.497 14.777 12.807 11.517 10.137 8.987 8.337
974.134 7.717 7.137 6.517 5.967 5.667 5.407 5.167 4.907 4.697 4.747
993.424 4.837 4.927 5.357 6.017 7.067 8.657 11.007 14.157 18.127 23.067
1012.714 28.017 31.977 34.417 35.097 34.517 33.297 30.597 26.227 21.467 17.687
1032.003 15.577 14.867 14.757 14.637 14.527 14.707 14.737 13.937 12.397 10.557
1051.293 9.567 8.597 6.857 5.047 3.787 2.867 2.087 1.897 1.787 1.4399
1070.583 1.2963 1.3783 1.2878 1.2156 0.9606 0.7204 0.7409 0.7421 0.9003 1.1226
1089.873 1.4497 1.2674 1.0511 1.4172 1.547 1.587 1.627 1.3141 1.1906 1.0721
1109.163 0.9995 1.1902 1.1061 0.724 0.5525 1.0587 1.4643 1.2041 1.1994 1.537
1128.452 1.507 1.537 1.777 1.867 1.797 1.797 1.4712 1.3988 1.2211 0.7282
1147.742 0.56102 0.5821 0.8144 0.7183 0.717 0.7344 0.7776 1.0806 1.1087 0.7217
1167.032 0.53002 0.50707 0.5022 0.7468 0.8805 0.7958 0.8323 0.9844 0.913 0.6297
1186.322 0.361 0.381 0.6908 0.8101 0.9208 0.9322 0.9859 0.9879 1.0587 1.1906
1205.611 1.0001 1.2146 1.1261 0.995 1.2422 1.1129 0.881 1.0479 1.2994 1.1373
1224.901 0.8318 1.0262 1.837 1.957 1.967 2.317 2.467 2.817 2.987 3.107
1244.191 3.137 3.137 3.397 3.587 3.567 3.677 4.167 4.447 4.817 5.407
1263.481 5.807 6.237 6.837 7.587 8.247 8.697 9.117 9.427 9.587 9.427
1282.771 9.027 8.457 7.637 6.817 6.077 5.287 4.397 3.437 2.687 2.247
1302.060 1.957 1.787 1.627 1.557 1.487 1.3852 1.3398 1.3337 1.3972 1.402
1321.350 1.3081 1.2346 1.2259 1.2019 1.1371 1.1116 1.1363 1.0726 0.9777 0.9936
1340.640 1.0118 1.0236 1.0329 1.0277 1.0495 1.0911 1.2006 1.2947 1.3849 1.547
1359.930 1.737 2.037 2.367 2.607 2.777 2.917 2.987 2.927 2.827 2.637
1379.219 2.437 2.267 2.167 2.167 2.287 2.547 2.807 3.167 3.557 3.757
1398.509 3.867 3.937 3.927 3.807 3.617 3.477 3.427 3.587 3.957 4.457
1417.799 5.237 6.407 8.087 10.447 13.587 17.387 21.337 24.517 26.317 26.917
1437.089 26.577 25.427 23.517 20.977 18.897 18.627 20.847 25.467 32.747 42.697
1456.378 55.257 69.427 82.527 92.497 97.747 98.137 93.687 84.707 71.867 56.177
1475.668 40.647 28.057 19.727 15.137 13.057 12.337 12.207 12.137 11.917 11.567
1494.958 10.977 10.027 8.867 7.647 6.557 5.647 4.827 4.297 3.987 3.637
1514.248 3.377 3.247 3.217 3.157 3.087 3.127 3.207 3.287 3.427 3.577
1533.538 3.777 4.057 4.347 4.607 4.997 5.477 5.997 6.777 7.707 8.737
1552.827 10.007 11.557 13.347 15.447 17.897 20.887 24.857 29.957 36.117 42.827
1572.117 49.237 54.407 57.497 58.017 56.007 51.447 44.797 36.827 28.677 21.417
1591.407 15.837 12.097 9.827 8.407 7.357 6.657 6.087 5.497 4.957 4.467
1610.697 3.977 3.537 3.177 2.937 2.757 2.607 2.607 2.607 2.537 2.467
1629.986 2.397 2.407 2.447 2.357 2.337 2.337 2.367 2.427 2.457 2.527
1649.276 2.497 2.527 2.627 2.627 2.657 2.717 2.777 2.887 3.037 3.177
1668.566 3.407 3.587 3.777 4.077 4.417 4.777 5.077 5.337 5.527 5.587
1687.856 5.517 5.297 5.087 4.787 4.447 4.147 3.957 3.907 3.847 3.847
1707.146 3.817 3.727 3.617 3.507 3.367 3.237 3.117 2.897 2.717 2.647
1726.435 2.557 2.477 2.477 2.437 2.417 2.407 2.407 2.427 2.397 2.347
1745.725 2.277 2.207 2.187 2.147 2.117 2.147 2.097 2.047 2.067 2.067
1765.015 2.077 2.167 2.297 2.427 2.507 2.697 2.947 3.257 3.657 4.037
1784.305 4.437 4.777 4.997 5.187 5.227 5.087 4.957 4.887 4.757 4.577
1803.594 4.537 4.617 4.717 4.867 5.087 5.297 5.537 5.847 6.137 6.277
1822.884 6.387 6.487 6.427 6.427 6.357 6.177 6.087 6.017 6.007 6.057
1842.174 6.157 6.307 6.457 6.657 6.907 7.167 7.437 7.687 7.937 8.237
1861.464 8.667 9.177 9.687 10.357 11.097 11.837 12.597 13.257 13.747 14.077
1880.754 14.287 14.357 14.297 14.107 13.887 13.777 13.817 13.987 14.337 14.857
1900.043 15.517 16.277 17.067 17.877 18.607 19.147 19.517 19.837 20.107 20.357
1919.333 20.777 21.377 22.217 23.477 24.997 26.757 28.877 31.227 33.747 36.437
1938.623 39.257 42.087 44.877 47.617 50.287 52.957 55.687 58.547 61.637 65.057
1957.913 68.917 73.247 77.947 83.057 88.587 94.487 100.687 107.167 113.937 120.987
1977.202 128.237 135.727 143.387 151.187 159.247 167.487 175.927 184.667 193.837 203.407
1996.492 213.357 224.007 235.497 247.697 260.717 274.417 288.577 303.087 317.737 332.657
2015.782 348.087 363.817 379.827 396.427 413.847 432.247 451.477 471.607 492.767 514.547
2035.072 536.767 558.697 578.597 595.227 607.277 613.217 611.847 602.387 586.697 569.217
2054.362 552.957 538.927 527.917 520.317 515.847 513.867 513.857 514.907 516.207 517.347
2073.651 517.377 515.617 511.977 506.197 498.107 487.327 473.607 456.997 437.537 415.587
2092.941 391.677 366.417 340.927 316.077 292.537 270.997 251.687 234.807 220.477 208.587
2112.231 199.067 191.827 186.617 183.227 181.247 180.377 180.167 180.117 179.947 179.097
2131.521 177.177 174.167 169.657 163.637 156.297 147.747 138.327 128.337 117.997 107.597
2150.810 97.537 88.167 79.607 72.047 65.477 59.887 55.367 51.697 48.837 46.677
2170.100 45.057 43.897 43.167 42.747 42.607 42.707 42.927 43.207 43.437 43.427
2189.390 43.087 42.277 41.157 39.737 37.897 35.907 34.047 32.387 30.947 29.867
2208.680 29.077 28.367 27.747 27.237 26.677 26.017 25.327 24.477 23.347 22.117
2227.970 20.767 19.367 17.957 16.527 15.267 14.047 12.827 11.747 10.857 10.127
2247.259 9.537 9.067 8.617 8.117 7.667 7.297 7.067 6.877 6.627 6.447
2266.549 6.417 6.387 6.277 6.267 6.297 6.297 6.367 6.467 6.497 6.507
2285.839 6.547 6.597 6.547 6.457 6.387 6.247 6.077 5.907 5.747 5.577
2305.129 5.387 5.267 5.187 5.117 5.117 5.127 5.117 5.137 5.127 4.987
2324.418 4.777 4.637 4.397 4.107 3.967 3.757 3.497 3.287 3.087 2.917
2343.708 2.837 2.787 2.707 2.617 2.577 2.567 2.527 2.487 2.507 2.477
2362.998 2.447 2.437 2.387 2.437 2.437 2.377 2.427 2.467 2.447 2.447
2382.288 2.427 2.337 2.307 2.417 2.397 2.347 2.407 2.497 2.507 2.577
2401.578 2.747 2.827 2.837 2.807 2.797 2.777 2.787 2.777 2.797 2.797
2420.867 2.797 2.837 2.867 2.897 2.977 3.107 3.217 3.367 3.547 3.637
2440.157 3.777 3.997 4.207 4.347 4.507 4.677 4.747 4.787 4.927 5.007
2459.447 5.047 5.087 5.087 5.117 5.137 5.157 5.227 5.327 5.417 5.527
2478.737 5.607 5.747 5.937 6.097 6.297 6.477 6.587 6.657 6.697 6.597
2498.026 6.477 6.477 6.567 6.687 6.867 7.017 7.147 7.297 7.407 7.497
2517.316 7.657 7.677 7.697 7.817 7.927 8.127 8.227 8.147 8.147 8.187
2536.606 8.247 8.327 8.407 8.467 8.507 8.577 8.537 8.487 8.567 8.627
2555.896 8.647 8.697 8.697 8.647 8.727 8.837 8.937 9.107 9.307 9.547
2575.186 9.747 9.897 9.997 10.037 10.027 9.927 9.727 9.397 8.957 8.417
2594.475 7.737 7.027 6.377 5.747 5.147 4.697 4.317 3.907 3.657 3.517
2613.765 3.317 3.127 2.977 2.797 2.677 2.597 2.527 2.437 2.247 2.117
2633.055 2.057 2.027 1.997 2.007 1.947 1.887 1.887 1.837 1.807 1.907
2652.345 1.867 1.677 1.617 1.657 1.747 1.767 1.687 1.627 1.667 1.757
2671.634 1.757 1.787 2.027 2.117 2.077 2.097 2.107 2.127 2.137 2.177
2690.924 2.257 2.267 2.267 2.397 2.487 2.557 2.677 2.747 2.817 2.947
2710.214 3.047 3.187 3.317 3.417 3.677 3.887 4.007 4.257 4.457 4.587
2729.504 4.777 4.957 5.057 5.177 5.377 5.527 5.637 5.817 5.997 6.217
2748.794 6.467 6.537 6.687 6.867 6.947 7.067 7.097 7.017 6.957 6.897
2768.083 6.627 6.157 5.727 5.437 5.187 4.887 4.587 4.257 4.037 3.817
2787.373 3.417 3.207 3.067 2.897 2.797 2.677 2.567 2.487 2.437 2.427
2806.663 2.437 2.367 2.237 2.147 2.047 1.927 1.887 1.797 1.657 1.567
2825.953 1.497 1.3833 1.2933 1.2936 1.2522 1.1896 1.1299 1.0572 1.0297 1.0299
2845.242 0.9759 0.9237 0.8954 0.8795 0.8537 0.8179 0.7838 0.8808 0.8815 0.8099
2864.532 0.8883 0.8738 0.8619 0.9182 0.8995 0.8071 0.8473 0.8578 0.7672 0.8606
2883.822 0.8647 0.838 0.8941 1.0058 0.9945 0.9437 1.0539 1.0669 1.0693 1.059
2903.112 1.0417 1.0659 1.1609 1.2778 1.2872 1.2367 1.2913 1.3135 1.2728 1.324
2922.401 1.4668 1.547 1.497 1.507 1.497 1.507 1.577 1.597 1.687 1.797
2941.691 1.827 1.767 1.807 1.897 1.957 1.927 1.897 1.977 1.997 2.117
2960.981 2.187 2.187 2.357 2.547 2.577 2.567 2.717 2.827 2.897 3.027
2980.271 3.087 3.177 3.267 3.407 3.477 3.497 3.627 3.667 3.687 3.677
2999.561 3.677 3.737 3.837 4.017 4.177 4.207 4.307 4.377 4.307 4.307
3018.850 4.267 4.197 4.137 4.037 3.837 3.487 3.247 3.177 3.067 2.997
3038.140 2.987 2.817 2.687 2.727 2.927 3.277 3.727 4.417 5.397 6.687
3057.430 8.367 10.427 12.767 15.247 17.697 20.067 22.227 23.657 24.037 23.327
3076.720 21.927 20.427 18.697 16.337 13.697 11.277 9.257 7.677 6.417 5.247
3096.009 4.177 3.307 2.697 2.427 2.357 2.307 2.277 2.267 2.297 2.327
3115.299 2.417 2.517 2.357 2.267 2.407 2.507 2.517 2.427 2.217 2.047
3134.589 1.887 1.677 1.4352 1.255 1.2459 1.1133 0.8481 0.7793 0.8767 0.9376
3153.879 0.8378 0.6831 0.5813 0.53814 0.55805 0.4516 0.365 0.411 0.47131 0.46804
3173.169 0.4202 0.4322 0.344 0.27 0.334 0.332 0.223 0.103 0.195 0.292
3192.458 0.153 0.178 0.239 0.25 0.354 0.324 0.299 0.33 0.307 0.185
3211.748 0.101 0.154 0.224 0.254 0.14 0.047 0.045 0.054 0.008 0.026
3231.038 0.094 0.131 0.182 0.046 0.003 0.231 0.319 0.247 0.283 0.273
3250.328 0.057 0.076 0.2 0.017 0 0.199 0.202 0.138 0.16 0.274
3269.617 0.32 0.234 0.227 0.282 0.271 0.185 0.087 0.118 0.204 0.254
3288.907 0.324 0.198 0.122 0.184 0.119 0.188 0.294 0.219 0.139 0.14
3308.197 0.211 0.173 0.173 0.36 0.3796 0.376 0.355 0.32 0.317 0.253
3327.487 0.276 0.261 0.253 0.213 0.223 0.326 0.324 0.248 0.146 0.139
3346.777 0.224 0.315 0.264 0.269 0.332 0.332 0.216 0.274 0.369 0.321
3366.066 0.312 0.324 0.4097 0.35 0.311 0.292 0.267 0.347 0.4281 0.36
3385.356 0.32 0.426 0.375 0.33 0.297 0.246 0.35 0.331 0.292 0.259
3404.646 0.18 0.177 0.192 0.197 0.223 0.196 0.119 0.139 0.25 0.291
3423.936 0.314 0.359 0.36 0.269 0.181 0.247 0.097 0.091 0.3943 0.4048
3443.225 0.304 0.4126 0.4181 0.4407 0.4142 0.371 0.4026 0.4188 0.48287 0.4351
3462.515 0.3815 0.351 0.352 0.25 0.313 0.4912 0.373 0.3967 0.47334 0.4027
3481.805 0.4939 0.56676 0.54001 0.50595 0.459 0.3965 0.333 0.254 0.289 0.4436
3501.095 0.484893 0.4548 0.480171 0.452 0.4226 0.338 0.336 0.47084 0.52922 0.48892
3520.385 0.4211 0.4281 0.52292 0.50463 0.4268 0.53372 0.55461 0.479668 0.4127 0.4301
3539.674 0.4592 0.357 0.282 0.26 0.287 0.3877 0.4561 0.47495 0.3952 0.34
3558.964 0.376 0.3881 0.4245 0.4033 0.3 0.292 0.291 0.26 0.299 0.354
3578.254 0.4086 0.482849 0.56885 0.6186 0.4978 0.4425 0.50682 0.52126 0.52008 0.49047
3597.544 0.4182 0.3883 0.4066 0.341 0.274 0.284 0.311 0.305 0.299 0.267
3616.833 0.293 0.359 0.4477 0.362 0.262 0.4658 0.55873 0.4289 0.374 0.4366
3636.123 0.322 0.3801 0.56537 0.53978 0.51644 0.53131 0.5328 0.478999 0.51501 0.5772
3655.413 0.56019 0.6149 0.6484 0.57673 0.5898 0.6406 0.6287 0.57621 0.50403 0.51502
3674.703 0.5949 0.6276 0.54891 0.4323 0.3804 0.4258 0.5231 0.7036 0.681 0.6007
3693.993 0.5846 0.5867 0.5858 0.51147 0.5994 0.6589 0.6382 0.6848 0.9102 1.0168
3713.282 0.9044 0.8227 0.8545 0.9306 0.8454 0.7863 0.7597 0.7453 0.7832 0.8153
3732.572 0.8533 0.8912 0.7816 0.6542 0.6904 0.6149 0.7628 0.848 0.6847 0.6069
3751.862 0.5891 0.6827 0.7511 0.8391 0.797 0.7263 0.831 0.872 0.8576 0.8857
3771.152 0.9305 0.9408 0.9469 0.8858 0.7439 0.7209 0.7569 0.841 0.8292 0.7392
3790.441 0.8561 0.9115 0.9137 0.9727 0.863 0.7443 0.7549 0.6873 0.7701 0.853
3809.731 0.7491 0.8545 0.992 0.8746 0.8795 0.9719 0.8376 0.7342 0.6946 0.6652
3829.021 0.691 0.7386 0.6134 0.5806 0.7467 0.8612 0.731 0.6137 0.7524 0.8091
3848.311 0.7283 0.6167 0.7111 0.755 0.8078 0.8851 0.9172 0.9128 0.8884 0.9536
3867.601 0.9147 0.8994 1.0353 1.0042 0.8314 0.9805 1.0531 0.9294 1.0415 1.1473
3886.890 1.0878 1.0906 1.0594 0.9806 1.0925 1.2193 1.1609 1.1252 1.154 1.1514
3906.180 1.1246 1.0554 1.0606 1.0394 0.9689 0.9574 1.0495 1.2037 1.2986 1.3879
3925.470 1.487 1.4627 1.2975 1.2995 1.4564 1.4298 1.4172 1.507 1.577 1.707
3944.760 1.677 1.527 1.527 1.707 1.807 1.727 1.727 1.817 1.787 1.687
3964.049 1.617 1.747 1.887 1.907 1.867 1.767 1.907 2.107 2.137 2.047
3983.339 2.067 2.127 2.137 2.177 2.207 2.287 2.427 2.367 2.397 2.537
##END=
