##TITLE=4,4'-Dimethyldibenzylamine
##JCAMP-DX=4.24
##DATA TYPE=INFRARED SPECTRUM
##ORIGIN=EPA-IR VAPOR PHASE LIBRARY
##OWNER=SRD/NIST
Collection (C) 2018 copyright by the U.S. Secretary of Commerce
on behalf of the United States of America. All rights reserved.
##CAS REGISTRY NO=98180-43-9
##MOLFORM=C 16 H 19 N
##$NIST SOURCE=MSDC-IR
##STATE=gas
##XUNITS=1/CM
##YUNITS=ABSORBANCE
##XFACTOR=1.
##YFACTOR=0.001
##DELTAX=1.92898
##FIRSTX=549.8
##LASTX=4000.7
##FIRSTY=64.94
##MAXX=4000.7
##MINX=549.759
##MAXY=0.516
##MINY=0.0009263
##NPOINTS=1790
##XYDATA=(X++(Y..Y))
549.759 64.94 62.74 61.17 60.09 59.88 60.11 60.77 61.93 63.73 65.5
569.049 66.9 68.42 69.68 70.45 71.2 70.93 68.61 65.15 60.59 55.57
588.339 51.04 47.03 43.79 41.58 40.22 39.03 38.42 38.28 38.28 38.64
607.628 39.03 39.74 40.49 41.17 42.18 43.23 44.46 45.81 47.28 49
626.918 50.76 52.67 54.89 57.18 59.52 61.8 63.76 65.45 66.74 67.86
646.208 68.67 69.57 70.82 72.37 73.93 75.58 77.27 78.54 79.55 80.53
665.498 81.4 82.12 82.46 82.72 82.65 82.16 81.96 81.47 80.27 78.89
684.787 77.32 75.34 73.17 70.68 68.52 66.82 65.25 64.45 64.58 64.97
704.077 65.32 65.51 65.45 65.25 64.99 64.84 64.85 64.61 64.31 64.42
723.367 64.97 66.06 67.85 70.52 73.92 77.89 82.4 87.13 91.8 96.33
742.657 100.87 105.5 110.32 114.86 118.94 122.53 125.56 128.15 129.88 130.92
761.947 131.18 131 130.93 130.66 130.7 131.59 133.59 136.78 141.04 146.89
781.236 154.31 163.08 173.92 187.38 203.68 223.92 248.11 274.96 302.92 331.04
800.526 356.93 377.64 391.02 396.13 392.5 377.9 351.78 316.32 276.18 236.96
819.816 202.27 174.57 154.82 142.12 135.83 134.49 135.81 137.84 137.94 135.15
839.106 129.55 121.45 112 102.34 92.87 83.58 75.35 68.27 62.26 57.38
858.395 53.28 49.93 46.89 44.28 42.25 40.48 38.79 37.26 35.61 33.83
877.685 32.48 31.73 30.81 29.76 29.22 28.76 28.22 27.7 27.63 28.03
896.975 28.27 28.66 29.22 29.95 30.77 31.63 32.35 32.82 33.37 33.75
916.265 34.06 34.58 35.26 36.1 37.51 39.64 42.73 46.39 49.71 52.14
935.555 53.73 54.31 53.43 52.14 50.99 49.53 48.28 47.31 46.46 46.23
954.844 46.11 45.98 45.88 45.7 45.24 44.34 43.61 42.82 41.81 40.73
974.134 39.86 39.13 38.66 38.52 38.21 38.14 38.41 38.72 38.82 38.82
993.424 38.99 38.97 38.89 39.11 39.28 39.7 41.26 44.16 49.05 57.61
1012.714 73.08 98.61 127.29 143.78 146.26 139.22 117.43 88.57 68.95 59.77
1032.003 55.59 54.2 53.82 53.64 54.21 55.07 55.85 56 55.49 54.87
1051.293 53.98 53.31 52.89 52.07 51.55 51.59 52.1 52.74 54.03 55.94
1070.583 58.01 60.42 63.42 67.33 71.85 77.19 84.16 92.4 101.56 112.72
1089.873 126.17 141.73 159.12 178.62 200.53 223.88 247.71 271.88 293.81 309.47
1109.163 317.37 316.36 306.43 288.18 264.51 238.97 213.77 189.58 166.67 146.37
1128.452 129.21 114.99 103.27 93.98 85.84 78.59 72.32 66.56 61.37 57.14
1147.742 53.29 49.73 46.97 45.33 44.32 43.5 43.31 44.01 45.6 48.23
1167.032 52.61 60.29 73.91 92.52 112.47 130.46 140.35 137.47 126.53 111.46
1186.322 95.17 85.82 85.19 88.27 92.43 96.09 97.37 95.53 90.47 83.36
1205.611 76.71 71.15 66.15 62.46 59.39 57.52 56.52 55.52 54.89 54.42
1224.901 54.13 54.16 54.62 55.33 56.56 57.08 55.99 53.95 51.78 49.9
1244.191 47.75 45.7 44.27 42.76 41.6 41 40.53 40.2 40.26 40.76
1263.481 41.06 41.48 42.06 43.07 44.53 46.04 47.65 49.11 50.68 52.34
1282.771 54.17 56.46 58.87 61.63 64.93 68.94 73.74 79.07 85.07 91.42
1302.060 97.63 102.93 106.11 106.45 104.59 101.32 97.88 95.93 95.82 97.49
1321.350 100.76 105.19 110.51 116.28 122.1 127.55 132.23 135.87 138.32 139.73
1340.640 140.46 141.06 141.74 142.83 144.64 147.11 149.83 151.87 151.91 148.78
1359.930 142.16 132.5 121.11 109.79 99.9 92.12 86.31 82 78.92 76.77
1379.219 75.2 73.81 72.3 70.54 68.33 66.1 64.25 63.02 62.63 63.16
1398.509 64.55 66.9 70.14 74.12 78.88 84.16 89.75 95.35 100.56 105
1417.799 108.64 111.67 113.92 115.75 117.76 120.29 123.98 129.23 136.84 147.01
1437.089 160.68 177.48 196.95 218.45 240.06 259.35 273.99 281.53 280.69 272.08
1456.378 256.93 238.72 220.22 201.76 184.49 168.69 154.47 141.25 129.16 118.3
1475.668 109.32 102.16 97.08 93.63 91.67 91.05 91.94 94.46 99.07 105.8
1494.958 115.06 127.56 143.57 164.01 189.77 221.05 259.42 302.68 343.59 373.7
1514.248 382.54 366.17 326.85 271.97 210.5 159.91 122.89 97.87 81.05 69.57
1533.538 61.58 55.75 51.56 48.25 45.4 42.97 40.93 39.22 37.72 36.29
1552.827 35.18 34.37 33.78 33.26 33.11 33.32 33.55 33.93 34.58 35.39
1572.117 36.13 36.42 36.29 35.88 35.16 34.32 33.69 33.48 33.51 33.57
1591.407 34.02 34.78 35.83 37.33 38.96 40.79 42.98 45.32 47.71 50.26
1610.697 52.62 54.58 55.92 56.44 56.27 55.56 54.5 53.41 52.64 52.29
1629.986 52.6 53.57 55.17 57.5 60.74 65.01 70.67 78.08 87.08 96.65
1649.276 104.32 107.13 103.31 93.36 78.87 62.88 49.39 39.47 32.79 28.17
1668.566 24.72 22.09 20.07 18.35 16.92 15.71 14.73 13.92 13.15 12.53
1687.856 11.96 11.47 11.07 10.64 10.27 10.02 9.78 9.57 9.48 9.35
1707.146 9.28 9.32 9.38 9.36 9.29 9.33 9.57 9.85 10.1 10.36
1726.435 10.67 10.91 11.26 11.77 12.26 12.77 13.17 13.51 13.94 14.31
1745.725 14.6 14.89 15.2 15.49 15.76 15.95 16.09 16.32 16.64 16.96
1765.015 17.35 17.73 18.42 19.39 20.57 21.99 23.83 26.12 28.61 31.16
1784.305 33.33 34.75 34.97 33.71 31.29 28.2 24.73 21.34 18.43 16.13
1803.594 14.38 13 11.92 11.06 10.37 9.84 9.5 9.19 8.93 8.78
1822.884 8.68 8.64 8.63 8.63 8.72 8.9 9.11 9.37 9.7 10.05
1842.174 10.43 10.92 11.39 11.86 12.38 12.95 13.59 14.23 14.98 15.83
1861.464 16.74 17.77 18.86 19.99 21.34 22.71 24.04 25.51 27.01 28.53
1880.754 30.11 31.82 33.5 34.97 36.14 36.86 37.01 36.52 35.42 33.76
1900.043 31.64 29.3 26.85 24.48 22.36 20.44 18.82 17.36 16.09 15.01
1919.333 14.11 13.24 12.44 11.78 11.2 10.69 10.15 9.67 9.31 9.03
1938.623 8.8 8.54 8.29 8.1 7.99 7.95 7.89 7.83 7.73 7.53
1957.913 7.47 7.38 7.24 7.17 7.04 6.89 6.81 6.72 6.65 6.59
1977.202 6.51 6.44 6.36 6.26 6.14 6.04 5.94 5.78 5.67 5.65
1996.492 5.55 5.46 5.53 5.57 5.55 5.57 5.62 5.63 5.53 5.45
2015.782 5.32 5.2 5.1 4.96 4.9 4.86 4.85 4.76 4.74 4.76
2035.072 4.7 4.73 4.67 4.62 4.58 4.49 4.46 4.42 4.27 4.25
2054.362 4.32 4.32 4.32 4.31 4.37 4.46 4.45 4.51 4.66 4.74
2073.651 4.83 4.88 4.81 4.76 4.8 4.85 4.85 4.79 4.76 4.79
2092.941 4.69 4.61 4.55 4.49 4.53 4.51 4.48 4.49 4.47 4.43
2112.231 4.43 4.41 4.41 4.41 4.56 4.66 4.64 4.75 4.83 4.85
2131.521 4.9 5.01 5.08 5.13 5.1 5.1 5.23 5.26 5.25 5.28
2150.810 5.24 5.19 5.12 5.1 5.04 4.97 4.91 4.82 4.83 4.81
2170.100 4.79 4.83 4.82 4.8 4.82 4.8 4.74 4.66 4.58 4.64
2189.390 4.7 4.74 4.75 4.65 4.63 4.68 4.69 4.71 4.74 4.76
2208.680 4.83 4.78 4.81 4.87 4.74 4.72 4.69 4.65 4.58 4.51
2227.970 4.53 4.45 4.36 4.38 4.44 4.35 4.32 4.35 4.36 4.35
2247.259 4.27 4.33 4.29 4.14 4.17 4.16 4.09 4.15 4.28 4.35
2266.549 4.38 4.46 4.49 4.6 4.81 4.97 5.07 5.29 5.57 5.81
2285.839 6.09 6.42 6.87 7.28 7.55 7.79 7.97 8.06 8.01 7.92
2305.129 7.71 7.39 7.15 6.9 6.69 6.55 6.36 6.19 6.2 6.23
2324.418 6.08 6.02 6.03 5.96 5.95 5.88 5.8 5.78 5.79 5.76
2343.708 5.67 5.6 5.51 5.48 5.54 5.6 5.62 5.65 5.65 5.7
2362.998 5.72 5.68 5.69 5.64 5.57 5.56 5.54 5.59 5.69 5.72
2382.288 5.68 5.6 5.64 5.68 5.72 5.73 5.74 5.78 5.8 5.82
2401.578 5.91 6.03 6.11 6.12 6.1 6.18 6.26 6.29 6.31 6.32
2420.867 6.24 6.17 6.17 6.24 6.19 6.1 6.17 6.18 6.12 6.04
2440.157 6 5.98 5.91 5.85 5.78 5.7 5.66 5.63 5.63 5.62
2459.447 5.57 5.54 5.57 5.56 5.48 5.47 5.4 5.38 5.54 5.68
2478.737 5.61 5.45 5.4 5.45 5.48 5.47 5.47 5.5 5.47 5.45
2498.026 5.53 5.53 5.55 5.6 5.65 5.77 5.8 5.81 5.9 6.05
2517.316 6.1 6.05 6.11 6.26 6.27 6.11 6.08 6.1 6.08 6.15
2536.606 6.16 6.03 5.96 6.06 6.15 6.23 6.3 6.35 6.48 6.52
2555.896 6.57 6.76 6.97 7.14 7.39 7.72 8.01 8.39 8.74 9.09
2575.186 9.49 9.91 10.43 10.94 11.31 11.51 11.7 11.75 11.66 11.69
2594.475 11.64 11.41 11.25 11.13 10.87 10.55 10.39 10.24 10.09 10.09
2613.765 10.15 10.3 10.47 10.64 10.83 10.94 11.16 11.47 11.57 11.7
2633.055 11.89 11.97 11.98 11.98 12 11.96 11.96 12.14 12.39 12.62
2652.345 12.66 12.72 13.01 13.33 13.63 13.8 13.95 14.27 14.63 15.07
2671.634 15.47 15.82 16.22 16.7 17.26 17.8 18.29 18.83 19.3 19.76
2690.924 20.37 20.84 21.37 21.89 22.29 22.76 23.15 23.59 24.13 24.54
2710.214 24.95 25.47 26.12 26.93 27.6 28.35 29.35 30.44 31.62 33.05
2729.504 34.86 37.06 39.62 42.42 45.29 47.77 49.56 50.38 50.06 48.9
2748.794 47.34 46.03 45.18 44.87 45.02 45.47 46.35 47.62 49.13 50.98
2768.083 53.2 55.5 57.91 60.65 63.7 66.92 70.45 74.4 78.71 83.45
2787.373 88.77 94.59 100.92 107.87 115.33 123.3 131.8 141.03 151.33 162.16
2806.663 173.61 185.64 197.94 210.33 222.29 233.59 243.94 252.54 259.04 263.8
2825.953 266.33 266.73 265.29 261.84 257.21 252.2 246.53 240.58 234.85 229.51
2845.242 224.73 220.5 217.29 215.24 214.41 215.02 217.56 221.9 227.76 235.33
2864.532 244.7 255.79 267.87 280.03 291.64 301.66 308.96 313.18 314.18 312.35
2883.822 308.74 303.99 299.12 294.39 289.55 285.25 281.64 278.73 276.73 275.42
2903.112 275.66 277.75 281.89 288.88 299.2 313.2 330.84 352.08 376.24 402.68
2922.401 430.15 457.04 481.88 502.39 514.79 516 504.21 479.3 443.99 402.17
2941.691 358.19 316.3 279.17 247.91 222.01 200.5 183.11 169.08 157.5 148.14
2960.981 141.05 135.59 131.77 129.46 128.49 129.21 131.32 134.78 139.46 145.13
2980.271 151.92 159.15 166.65 174.85 183.36 192.13 201.49 211.47 222.04 233.24
2999.561 245.07 257.33 270.14 283.79 298.32 314.04 331.68 352.51 377.29 405.76
3018.850 436.19 463.77 482.71 487.92 476.38 449.74 412.8 373.35 339.72 315.14
3038.140 299.67 291.36 287.9 287.61 288.51 289.58 288.94 285.17 277.8 266.39
3057.430 251.81 235.3 217.84 200.77 185.28 171.2 158.41 147.55 138.3 130.22
3076.720 123.46 117.67 112.77 108.64 104.71 100.97 97.47 93.97 89.99 85.6
3096.009 80.88 75.7 70.44 65.15 59.96 55.16 50.79 46.9 43.51 40.59
3115.299 38.08 36.11 34.64 33.36 32.41 31.63 30.94 30.2 29.26 28.2
3134.589 26.88 25.44 23.53 21.18 18.85 16.66 14.63 12.94 11.52 10.49
3153.879 9.71 8.81 8.15 7.7 7.3 6.95 6.58 6.24 5.97 5.75
3173.169 5.53 5.4 5.35 5.26 5.08 4.86 4.77 4.79 4.64 4.35
3192.458 4.33 4.33 4.18 4.06 3.98 3.89 3.81 3.95 4.02 3.86
3211.748 3.79 3.9 3.9 3.7 3.67 3.72 3.64 3.63 3.7 3.65
3231.038 3.51 3.34 3.31 3.24 3.1 3.12 3.22 3.22 3.14 3.14
3250.328 3.14 3.12 3.15 3.18 3.22 3.26 3.26 3.28 3.38 3.36
3269.617 3.34 3.43 3.55 3.65 3.81 3.9 3.87 3.92 3.96 3.96
3288.907 3.96 3.95 3.87 3.75 3.7 3.53 3.27 3.15 3.13 3.34
3308.197 3.33 3.09 3.09 3.17 3.19 3.26 3.23 3.09 3.01 3.05
3327.487 3.21 3.31 3.27 3.34 3.5 3.53 3.69 3.87 3.91 4.02
3346.777 4.01 3.98 4.13 4.26 4.27 4.4 4.43 4.37 4.36 4.58
3366.066 4.82 4.79 4.78 4.83 4.83 4.62 4.45 4.33 4.37 4.34
3385.356 4.06 3.92 3.95 3.92 3.79 3.61 3.47 3.57 3.5 3.36
3404.646 3.27 3.05 2.83 2.76 2.68 2.73 2.87 2.8 2.77 2.84
3423.936 2.74 2.67 2.75 2.81 2.88 2.68 2.52 2.6 2.5 2.31
3443.225 2.27 2.11 1.89 1.95 1.86 1.62 1.6 1.58 1.41 1.4
3462.515 1.32 1.32 1.46 1.47 1.39 1.36 1.46 1.43 1.45 1.39
3481.805 1.26 1.28 1.21 1.21 1.24 1.2 1.27 1.37 1.29 1.25
3501.095 1.13 1.04 1.18 1.11 1.03 1.14 1.17 1.12 1.28 1.25
3520.385 0.9263 1.01 1.32 1.37 1.24 1.21 1.24 1.2 1.27 1.32
3539.674 1.23 1.26 1.1 0.9676 1.09 1.25 1.12 0.9355 1.12 1.32
3558.964 1.32 1.36 1.42 1.18 1.1 1.18 1.26 1.28 1.26 1.35
3578.254 1.37 1.38 1.36 1.31 1.29 1.25 1.29 1.31 1.33 1.36
3597.544 1.47 1.56 1.54 1.62 1.63 1.47 1.48 1.69 1.61 1.58
3616.833 1.73 1.83 1.81 1.77 1.73 1.73 1.78 1.94 2.09 2.12
3636.123 2.16 2.2 2.33 2.52 2.5 2.64 2.97 2.88 2.86 3.13
3655.413 3.38 3.72 4.01 4.17 4.22 4.2 4.01 3.98 3.99 3.8
3674.703 3.78 3.68 3.52 3.46 3.27 3.14 3.13 3.14 3.02 2.97
3693.993 3.01 2.89 2.61 2.42 2.45 2.53 2.61 2.53 2.33 2.21
3713.282 2.09 2.08 2.18 2.15 2.11 2.11 2.03 2.11 2.23 2.25
3732.572 2.34 2.28 2.18 2.28 2.24 2.11 2.24 2.27 2.25 2.25
3751.862 2.25 2.36 2.61 2.71 2.68 2.69 2.67 2.58 2.64 2.79
3771.152 2.79 2.86 3.04 3.03 2.89 2.96 3.01 2.83 2.88 2.98
3790.441 3.05 3.11 3.12 3.2 3.14 3 3.01 3.17 3.34 3.24
3809.731 3.13 3.26 3.26 3.39 3.57 3.49 3.44 3.57 3.69 3.79
3829.021 3.86 3.75 3.51 3.58 3.82 3.92 3.99 4.01 4.07 4.05
3848.311 4.09 4.12 4.06 4.08 4.16 4.17 4.12 4.07 4.08 4.29
3867.601 4.27 4.12 4.14 4.16 4.28 4.34 4.11 4.04 4.19 4.25
3886.890 4.11 4.17 4.19 4.08 4.14 4.27 4.35 4.27 4.22 4.35
3906.180 4.31 4.16 4.13 4.3 4.55 4.34 4.17 4.31 4.32 4.26
3925.470 4.44 4.48 4.48 4.49 4.19 4.13 4.18 4.12 3.93 3.93
3944.760 3.88 3.72 3.72 3.88 3.97 3.85 3.99 3.89 3.68 3.77
3964.049 3.82 3.74 3.62 3.73 3.91 3.95 3.82 3.76 3.76 3.6
3983.339 3.53 3.67 3.75 3.79 3.84 3.87 3.78 3.7 3.72 3.76
##END=
