##TITLE=Benzophenone azine
##JCAMP-DX=4.24
##DATA TYPE=INFRARED SPECTRUM
##ORIGIN=EPA-IR VAPOR PHASE LIBRARY
##OWNER=SRD/NIST
Collection (C) 2018 copyright by the U.S. Secretary of Commerce
on behalf of the United States of America. All rights reserved.
##CAS REGISTRY NO=983-79-9
##MOLFORM=C 26 H 20 N 2
##$NIST SOURCE=MSDC-IR
##STATE=gas
##XUNITS=1/CM
##YUNITS=ABSORBANCE
##XFACTOR=1.
##YFACTOR=0.001
##DELTAX=1.92898
##FIRSTX=549.8
##LASTX=4000.7
##FIRSTY=1.0495
##MAXX=4000.7
##MINX=549.759
##MAXY=0.040826
##MINY=0
##NPOINTS=1790
##XYDATA=(X++(Y..Y))
549.759 1.0495 1.0982 1.364 1.686 1.5453 1.3686 1.347 1.38 1.5607 1.916
569.049 2.506 2.926 3.396 4.036 4.096 3.716 3.216 2.506 1.766 1.4054
588.339 1.4157 1.2 0.9281 1.0636 1.2772 1.3939 1.3049 1.3884 1.4514 1.4688
607.628 1.666 1.846 2.146 2.276 2.036 1.896 1.846 1.806 1.726 1.736
626.918 1.696 1.686 2.036 2.126 2.356 2.856 3.126 3.456 3.966 4.516
646.208 5.106 5.786 6.456 7.206 7.726 8.296 8.796 9.006 9.196 9.346
665.498 9.836 10.846 12.076 13.316 14.436 15.166 15.856 16.536 17.176 18.446
684.787 20.416 23.196 27.216 32.166 36.906 40.026 40.826 38.796 33.936 27.456
704.077 21.466 17.036 13.776 11.396 9.676 8.286 7.396 7.126 6.846 6.576
723.367 6.156 5.406 4.626 4.046 3.646 3.306 3.266 3.296 3.236 3.236
742.657 3.416 3.686 3.776 4.016 4.466 5.076 5.856 6.616 7.716 9.376
761.947 11.276 13.516 15.736 17.396 18.066 17.196 14.816 11.986 9.326 7.206
781.236 5.706 4.586 4.026 3.676 3.466 3.256 2.876 2.536 2.356 2.306
800.526 2.216 2.066 1.876 1.706 1.5467 1.686 1.866 1.676 1.4987 1.4092
819.816 1.3898 1.4141 1.4199 1.4999 1.457 1.3049 1.1871 1.2447 1.283 1.2654
839.106 1.2873 1.2367 1.25 1.24 1.116 1.2865 1.5023 1.404 1.2802 1.2813
858.395 1.3652 1.3993 1.4611 1.542 1.5047 1.3947 1.3822 1.4323 1.4089 1.3741
877.685 1.4109 1.3908 1.425 1.465 1.5327 1.6023 1.5792 1.656 1.676 1.716
896.975 1.966 2.226 2.606 3.226 3.896 4.546 4.856 4.566 3.846 3.116
916.265 2.766 2.426 2.236 2.186 2.006 2.086 2.216 2.206 2.266 2.426
935.555 2.416 2.546 2.836 3.376 4.036 4.566 5.556 6.796 7.966 9.076
954.844 9.596 9.606 9.276 8.506 7.336 6.206 5.446 4.906 4.646 4.466
974.134 4.256 3.996 3.736 3.626 3.486 3.196 2.946 2.726 2.476 2.426
993.424 2.586 2.546 2.396 2.466 2.486 2.426 2.236 1.826 1.5949 1.493
1012.714 1.5909 1.756 1.786 1.896 2.256 2.766 3.916 5.076 5.526 5.776
1032.003 5.276 4.196 2.886 1.966 1.4817 1.1422 1.088 1.1938 1.0057 0.7697
1051.293 1.1177 1.3852 1.3642 1.696 1.806 1.746 2.036 2.176 2.366 2.596
1070.583 2.856 2.846 2.436 2.076 1.826 1.4284 1.2938 1.3581 1.0244 0.7934
1089.873 0.7371 0.7263 0.9713 1.2962 1.3018 1.2019 1.4952 1.2893 1.0435 0.9515
1109.163 0.24 0 0.047 0.569 1.09 0.647 0.68222 0.967 0.9207 0.7811
1128.452 0.8762 1.1425 1.2009 1.1764 0.8481 0.8363 0.9501 1.0138 1.1589 1.0638
1147.742 1.0348 1.3297 1.766 1.946 1.866 1.796 1.6117 1.3648 1.4516 1.5801
1167.032 1.6106 1.876 2.476 3.036 3.816 4.726 5.386 5.736 5.446 4.536
1186.322 3.506 2.856 2.406 2.096 1.926 1.656 1.726 1.636 1.2409 1.2202
1205.611 1.3344 1.756 1.4769 1.0552 1.007 0.9762 1.2357 1.5277 1.646 1.736
1224.901 1.936 1.666 1.746 1.986 1.986 2.236 2.316 2.326 2.336 2.156
1244.191 2.216 2.206 2.056 1.976 1.976 2.036 2.096 2.236 2.146 2.226
1263.481 2.656 2.836 2.946 3.106 3.386 3.906 4.356 4.976 5.576 6.126
1282.771 6.946 7.736 8.586 9.526 10.256 10.996 11.616 11.916 12.116 12.096
1302.060 11.766 11.426 11.226 11.296 11.766 12.686 13.736 14.566 15.016 14.836
1321.350 13.936 12.506 10.826 9.306 8.016 6.996 6.176 5.356 4.606 3.966
1340.640 3.426 3.036 2.736 2.506 2.336 2.156 2.006 1.956 1.916 1.826
1359.930 1.786 1.766 1.746 1.686 1.706 1.726 1.736 1.746 1.726 1.706
1379.219 1.696 1.646 1.5698 1.5199 1.445 1.3843 1.3787 1.4244 1.4278 1.376
1398.509 1.3531 1.3241 1.3238 1.3522 1.3921 1.4419 1.4649 1.4994 1.5679 1.626
1417.799 1.696 1.846 1.936 2.076 2.256 2.406 2.616 2.816 3.136 3.646
1437.089 4.326 5.236 6.366 7.416 7.906 7.576 6.566 5.286 4.166 3.416
1456.378 3.016 2.836 2.666 2.516 2.456 2.316 2.226 2.196 2.236 2.316
1475.668 2.506 2.786 3.146 3.706 4.476 5.506 6.676 7.636 8.126 7.946
1494.958 7.116 5.826 4.466 3.376 2.676 2.236 1.936 1.796 1.726 1.706
1514.248 1.736 1.786 1.836 1.886 1.956 2.046 2.156 2.266 2.416 2.516
1533.538 2.616 2.836 3.036 3.166 3.286 3.476 3.756 4.126 4.576 5.186
1552.827 5.916 6.746 7.646 8.596 9.246 9.626 9.906 9.916 9.676 9.186
1572.117 8.666 8.226 7.886 7.696 7.696 7.826 8.066 8.436 8.786 8.846
1591.407 8.516 7.976 7.296 6.576 5.906 5.246 4.716 4.296 3.906 3.616
1610.697 3.356 3.076 2.886 2.826 2.666 2.506 2.386 2.226 2.086 1.906
1629.986 1.776 1.686 1.636 1.6059 1.5263 1.4798 1.4499 1.4777 1.5056 1.5014
1649.276 1.454 1.4421 1.5343 1.5009 1.4813 1.5342 1.5494 1.5419 1.5337 1.5649
1668.566 1.5696 1.5911 1.616 1.676 1.706 1.686 1.766 1.816 1.756 1.766
1687.856 1.816 1.746 1.6036 1.5256 1.4306 1.3401 1.2833 1.213 1.1754 1.146
1707.146 1.1251 1.1761 1.1607 1.114 1.1518 1.1398 1.1244 1.1834 1.1823 1.149
1726.435 1.1597 1.2179 1.252 1.2872 1.3363 1.323 1.3383 1.3714 1.4315 1.4775
1745.725 1.521 1.5708 1.636 1.626 1.5191 1.502 1.5252 1.4775 1.4179 1.3921
1765.015 1.3325 1.3612 1.4698 1.4771 1.4405 1.4166 1.3756 1.3437 1.368 1.4004
1784.305 1.47 1.5855 1.706 1.896 2.116 2.296 2.536 2.736 2.856 2.896
1803.594 2.846 2.736 2.516 2.266 2.056 1.876 1.776 1.706 1.5913 1.4956
1822.884 1.4305 1.3602 1.2802 1.2873 1.2898 1.2308 1.2079 1.2071 1.2239 1.1855
1842.174 1.1586 1.1371 1.1285 1.0981 1.0866 1.1868 1.2062 1.2202 1.328 1.4299
1861.464 1.4541 1.4695 1.5476 1.676 1.736 1.746 1.826 1.896 1.936 1.976
1880.754 2.056 2.126 2.146 2.166 2.236 2.226 2.096 2.046 1.976 1.896
1900.043 1.786 1.656 1.551 1.4271 1.3838 1.3593 1.3133 1.2952 1.2951 1.3005
1919.333 1.2776 1.2787 1.3492 1.4429 1.5566 1.616 1.686 1.826 1.996 2.226
1938.623 2.366 2.506 2.666 2.736 2.716 2.696 2.636 2.566 2.566 2.546
1957.913 2.516 2.436 2.266 1.976 1.696 1.4756 1.2599 1.1471 1.0627 0.9852
1977.202 1.0314 1.055 1.0287 0.9892 0.9258 0.9103 0.8816 0.9116 0.9053 0.8454
1996.492 0.8453 0.8456 0.8458 0.849 0.8327 0.8077 0.8476 0.8802 0.8668 0.8221
2015.782 0.8469 0.8684 0.85 0.8334 0.8415 0.8628 0.83 0.8016 0.8156 0.8058
2035.072 0.775 0.7878 0.8176 0.8141 0.8011 0.8091 0.8079 0.7978 0.8474 0.8884
2054.362 0.8568 0.866 0.8809 0.852 0.8537 0.8754 0.8221 0.7936 0.8003 0.7743
2073.651 0.7744 0.7866 0.7924 0.7887 0.786 0.784 0.784 0.8 0.7773 0.7591
2092.941 0.7582 0.7505 0.7538 0.70796 0.68572 0.7227 0.7804 0.8032 0.739 0.70518
2112.231 0.7655 0.7825 0.7697 0.7793 0.7548 0.7509 0.7893 0.8127 0.7837 0.7543
2131.521 0.7281 0.7393 0.797 0.8177 0.8113 0.7791 0.7751 0.8302 0.8332 0.7819
2150.810 0.7818 0.7571 0.7256 0.7564 0.7691 0.7958 0.7751 0.7835 0.8265 0.8482
2170.100 0.8592 0.8025 0.8303 0.8551 0.8188 0.8104 0.8182 0.8016 0.7884 0.8282
2189.390 0.804 0.8205 0.8762 0.8229 0.8129 0.8474 0.8046 0.7463 0.7497 0.724
2208.680 0.7647 0.8553 0.8449 0.8347 0.81 0.7339 0.7215 0.8202 0.8971 0.8437
2227.970 0.8363 0.8628 0.8346 0.8203 0.8095 0.8342 0.8307 0.8203 0.8119 0.8157
2247.259 0.846 0.8564 0.8881 0.9453 0.9429 0.8762 0.8456 0.8823 0.8977 0.8795
2266.549 0.8744 0.9189 0.923 0.8492 0.8012 0.8218 0.8429 0.9222 0.9524 0.9046
2285.839 0.8701 0.7787 0.7299 0.7553 0.7945 0.807 0.8242 0.8645 0.9125 0.9087
2305.129 0.9343 0.9916 1.015 1.0451 1.2213 1.275 1.1623 1.1553 1.0993 1.0705
2324.418 0.9847 0.8698 0.92 0.9668 0.9758 1.0172 1.0858 1.1405 1.1122 1.0424
2343.708 1.0048 0.9863 0.9603 0.9033 0.8932 0.9016 0.919 0.9866 0.9827 0.8837
2362.998 0.8689 0.916 0.8668 0.8303 0.7971 0.787 0.838 0.8269 0.7232 0.67991
2382.288 0.70016 0.6874 0.69145 0.70188 0.7487 0.76 0.7589 0.812 0.7721 0.7326
2401.578 0.7642 0.7757 0.7904 0.8413 0.8088 0.7873 0.8792 0.8633 0.7872 0.8168
2420.867 0.8364 0.8247 0.7653 0.7413 0.8368 0.887 0.8221 0.7703 0.8006 0.8
2440.157 0.7859 0.7508 0.7787 0.8151 0.8699 0.9038 0.8949 0.8861 0.8358 0.8246
2459.447 0.7873 0.766 0.7903 0.7904 0.8122 0.8508 0.8476 0.8005 0.764 0.8281
2478.737 0.8815 0.8492 0.7962 0.7503 0.7885 0.8533 0.8495 0.8247 0.8232 0.8271
2498.026 0.7841 0.8014 0.8672 0.9061 0.8125 0.7563 0.8094 0.8019 0.7799 0.8447
2517.316 0.9437 0.9385 0.8964 0.8608 0.8489 0.8643 0.8448 0.8406 0.8089 0.7475
2536.606 0.8239 0.8988 0.884 0.9359 1.0222 0.9792 0.8305 0.8257 0.9224 0.884
2555.896 0.8301 0.8218 0.8092 0.8269 0.8248 0.8126 0.8678 0.8646 0.8205 0.8503
2575.186 0.8413 0.7951 0.8279 0.909 0.9034 0.8599 0.8789 0.9197 0.8498 0.8131
2594.475 0.8425 0.8317 0.9345 1.0669 1.005 0.8974 0.8626 0.8172 0.8713 0.8237
2613.765 0.7477 0.7816 0.8734 0.8657 0.7957 0.8719 0.9146 0.8738 0.8194 0.8525
2633.055 0.8234 0.7986 0.8418 0.8481 0.7854 0.7733 0.8376 0.8438 0.8655 0.8007
2652.345 0.7653 0.8044 0.8351 0.8417 0.8032 0.8129 0.8305 0.8246 0.7233 0.6319
2671.634 0.67374 0.7168 0.7229 0.7735 0.754 0.65513 0.6036 0.63629 0.67386 0.7276
2690.924 0.71067 0.6854 0.67691 0.5911 0.63881 0.7445 0.8106 0.7768 0.7652 0.7842
2710.214 0.733 0.7236 0.8133 0.8559 0.8339 0.8391 0.8008 0.8963 0.9439 0.8676
2729.504 0.8414 0.7921 0.862 0.9153 0.8329 0.8046 0.8795 0.9557 0.912 0.8611
2748.794 0.8229 0.8081 0.8698 0.8744 0.9118 0.8814 0.7985 0.7994 0.8393 0.8484
2768.083 0.8308 0.8851 0.9067 0.8771 0.8897 0.867 0.8366 0.835 0.8014 0.7631
2787.373 0.7023 0.7414 0.7761 0.7641 0.7593 0.7293 0.69694 0.70267 0.8102 0.8265
2806.663 0.8048 0.7643 0.7745 0.8029 0.7905 0.8276 0.8063 0.816 0.7734 0.7584
2825.953 0.8145 0.8079 0.837 0.8169 0.8334 0.8594 0.8426 0.8694 0.9185 0.9426
2845.242 0.89 0.9051 0.9226 0.8828 0.9161 0.9982 1.0372 1.0098 1.0267 1.1018
2864.532 1.0606 1.0293 1.1227 1.1225 1.1333 1.1754 1.1833 1.2083 1.239 1.2228
2883.822 1.2178 1.2014 1.1606 1.1475 1.0123 0.9939 1.0472 0.9869 0.9152 0.9178
2903.112 1.0359 1.047 1.0262 1.1012 1.0887 1.0508 1.0901 1.0478 0.9908 1.0602
2922.401 1.0816 1.0643 1.0025 1.0806 1.1841 1.1486 1.1362 1.1629 1.159 1.0313
2941.691 1.0062 0.9415 0.9003 0.9727 0.9805 1.0066 0.9448 0.9279 1.0525 1.0855
2960.981 1.0935 1.1209 1.1231 1.1501 1.1432 1.1795 1.2341 1.2688 1.3278 1.3569
2980.271 1.4177 1.4446 1.4765 1.4503 1.4789 1.616 1.656 1.646 1.5991 1.646
2999.561 1.776 2.006 2.186 2.286 2.586 2.886 3.146 3.536 3.976 4.516
3018.850 5.106 5.816 6.566 7.326 8.136 8.806 9.406 9.866 10.056 10.026
3038.140 9.846 9.486 8.936 8.496 8.306 8.356 8.746 9.536 10.726 12.366
3057.430 14.386 16.946 20.076 23.386 26.486 28.406 28.326 26.156 22.336 18.316
3076.720 15.356 13.856 13.446 13.296 13.196 12.896 12.076 10.986 10.006 9.016
3096.009 8.006 7.326 6.806 6.426 6.146 5.686 5.166 4.636 4.046 3.536
3115.299 3.126 2.776 2.406 2.136 2.076 1.926 1.746 1.666 1.706 1.726
3134.589 1.646 1.5402 1.4381 1.4678 1.466 1.4983 1.5281 1.4184 1.3495 1.352
3153.879 1.3394 1.3897 1.3734 1.2234 1.161 1.1772 1.2335 1.124 0.9667 0.9696
3173.169 1.0197 1.0428 0.9898 0.9351 0.8606 0.8957 1.015 0.9549 0.8912 0.8982
3192.458 0.8416 0.7583 0.68736 0.69687 0.7464 0.7197 0.66507 0.66412 0.7777 0.8703
3211.748 0.7893 0.7535 0.65386 0.64904 0.8339 0.7675 0.734 0.7891 0.7167 0.7382
3231.038 0.786 0.7542 0.7213 0.67624 0.67724 0.7527 0.7618 0.7898 0.7416 0.60846
3250.328 0.63593 0.65752 0.5853 0.61149 0.603 0.5313 0.616352 0.5989 0.615217 0.70721
3269.617 0.7298 0.7433 0.736 0.70276 0.8489 0.8859 0.7208 0.7507 0.7768 0.75
3288.907 0.722 0.7249 0.7496 0.7533 0.5801 0.618016 0.7345 0.7314 0.70001 0.68632
3308.197 0.7983 0.71463 0.69705 0.7797 0.763 0.67313 0.5733 0.60987 0.7371 0.8103
3327.487 0.7426 0.5686 0.5321 0.6482 0.7376 0.71466 0.69487 0.69774 0.5649 0.514
3346.777 0.5942 0.66605 0.8239 0.9194 0.7677 0.6369 0.66871 0.6011 0.5618 0.616668
3366.066 0.63619 0.67946 0.69062 0.70961 0.71213 0.7678 0.8319 0.7779 0.8564 0.826
3385.356 0.70446 0.7611 0.7236 0.69673 0.64272 0.6598 0.65136 0.61094 0.67734 0.5963
3404.646 0.61274 0.69946 0.6446 0.64697 0.7161 0.65003 0.5817 0.63386 0.65687 0.5475
3423.936 0.5545 0.5219 0.487 0.5307 0.5479 0.7254 0.7724 0.63381 0.6034 0.5777
3443.225 0.5673 0.61295 0.62985 0.5965 0.5653 0.616787 0.5767 0.68524 0.7762 0.67748
3462.515 0.64861 0.5881 0.498 0.5636 0.69464 0.71066 0.618042 0.546 0.5795 0.64461
3481.805 0.67349 0.65577 0.7249 0.8355 0.7769 0.68659 0.62946 0.68614 0.81 0.7901
3501.095 0.7765 0.68707 0.63219 0.5907 0.5686 0.70107 0.8238 0.7799 0.66936 0.64057
3520.385 0.623788 0.64312 0.5865 0.497 0.5207 0.445 0.352 0.5919 0.68757 0.491
3539.674 0.5387 0.624198 0.6055 0.6016 0.6754 0.71577 0.7769 0.7975 0.67355 0.64289
3558.964 0.68815 0.60725 0.65021 0.71166 0.6616 0.70932 0.70335 0.620314 0.64241 0.787
3578.254 0.78 0.7572 0.7744 0.66815 0.66386 0.7865 0.7206 0.5702 0.5936 0.5959
3597.544 0.473 0.5454 0.62574 0.63564 0.63475 0.5773 0.615987 0.6565 0.65679 0.623415
3616.833 0.60892 0.5859 0.617398 0.71002 0.71378 0.6058 0.5369 0.5917 0.625004 0.5741
3636.123 0.5706 0.61224 0.65903 0.7937 0.845 0.7561 0.68092 0.69645 0.64233 0.68609
3655.413 0.8043 0.7656 0.69499 0.63871 0.5831 0.65714 0.7566 0.7398 0.70466 0.63719
3674.703 0.622091 0.557 0.496 0.6402 0.67284 0.61098 0.5836 0.64253 0.7184 0.66808
3693.993 0.7935 0.7548 0.70983 0.8123 0.65163 0.5873 0.66224 0.7168 0.7334 0.68183
3713.282 0.6731 0.67516 0.61444 0.66894 0.69559 0.64578 0.7354 0.65214 0.6855 0.7841
3732.572 0.603 0.6041 0.70426 0.63379 0.5615 0.61645 0.71158 0.7382 0.6422 0.61241
3751.862 0.63366 0.66492 0.69748 0.71062 0.65448 0.66283 0.7789 0.7478 0.63658 0.6048
3771.152 0.7264 0.7554 0.71553 0.7265 0.7399 0.70706 0.5992 0.5843 0.63976 0.65473
3790.441 0.6819 0.69743 0.622432 0.5698 0.5709 0.5254 0.69121 0.801 0.66883 0.592
3809.731 0.65147 0.594 0.5889 0.6466 0.64733 0.63626 0.5521 0.5537 0.5406 0.5357
3829.021 0.484 0.5213 0.65633 0.66847 0.515 0.403 0.458 0.517 0.70184 0.7337
3848.311 0.618092 0.67347 0.5725 0.615552 0.66529 0.464 0.475 0.60706 0.60765 0.5958
3867.601 0.573 0.5259 0.5298 0.489 0.5257 0.6142 0.64 0.5751 0.5217 0.5695
3886.890 0.64275 0.7347 0.65964 0.5657 0.64314 0.7235 0.8933 0.7514 0.6374 0.71597
3906.180 0.68282 0.7637 0.7496 0.7601 0.7181 0.64026 0.70303 0.7353 0.64655 0.5813
3925.470 0.5634 0.493 0.5991 0.68988 0.5167 0.5713 0.66913 0.64288 0.68203 0.7029
3944.760 0.5689 0.5594 0.70025 0.7491 0.68541 0.499 0.43 0.5954 0.6728 0.5432
3964.049 0.574 0.67128 0.5878 0.5416 0.5931 0.509 0.445 0.61869 0.8263 0.7617
3983.339 0.61479 0.636 0.68146 0.66697 0.65023 0.7304 0.8913 0.98 0.8529 0.8855
##END=
