##TITLE=2-Trifluoromethylcinnamic acid
##JCAMP-DX=4.24
##DATA TYPE=INFRARED SPECTRUM
##ORIGIN=EPA-IR VAPOR PHASE LIBRARY
##OWNER=SRD/NIST
Collection (C) 2018 copyright by the U.S. Secretary of Commerce
on behalf of the United States of America. All rights reserved.
##CAS REGISTRY NO=98386-81-3
##MOLFORM=C 10 H 7 F 3 O 2
##$NIST SOURCE=MSDC-IR
##STATE=gas
##XUNITS=1/CM
##YUNITS=ABSORBANCE
##XFACTOR=1.
##YFACTOR=0.001
##DELTAX=1.92898
##FIRSTX=549.8
##LASTX=4000.7
##FIRSTY=15.57
##MAXX=4000.7
##MINX=549.759
##MAXY=0.1449
##MINY=0
##NPOINTS=1790
##XYDATA=(X++(Y..Y))
549.759 15.57 15.66 16.26 17.44 18.41 18.79 18.88 19.16 20.18 21.67
569.049 23.27 25.21 26.49 26.78 26.2 24.71 22.81 20.23 17.52 15.46
588.339 13.89 12.84 11.88 10.97 9.93 8.98 8.1 7.06 6.19 5.51
607.628 4.91 4.43 3.97 3.47 3.08 2.91 2.68 2.57 2.7 2.83
626.918 2.95 3.11 3.69 4.3 4.8 5.74 6.85 7.61 7.77 7.66
646.208 7.37 7.22 6.99 6.06 5.73 6.01 6.75 8.31 9.77 10.76
665.498 11.78 12.76 13 12.16 10.88 9.5 8.12 6.78 5.46 4.53
684.787 3.96 3.65 3.32 3.06 3.06 3.1 3.39 3.44 3.16 3.2
704.077 3.3 3.4 3.51 3.33 3.17 3.01 3.17 3.22 2.93 2.96
723.367 2.93 2.85 2.87 2.77 2.7 2.91 3.22 3.38 3.53 4.11
742.657 4.76 5.6 7.55 10.5 13.88 17.49 21.23 25.42 29.4 31.92
761.947 32.32 29.62 24.94 20.56 16.74 13.24 10.07 7.61 6.03 4.92
781.236 4.14 3.38 2.83 2.61 2.56 2.52 2.38 2.37 2.38 2.26
800.526 1.82 1.66 1.75 1.54 1.49 1.71 1.91 1.87 1.68 1.63
819.816 1.75 2.14 1.91 1.55 1.79 1.89 1.78 1.91 2.1 1.96
839.106 1.87 1.87 1.95 1.85 1.9 2.15 2.18 2.01 1.79 2.12
858.395 2.35 2.45 2.85 2.93 3.09 3.74 4 4.23 4.56 4.83
877.685 5.16 5.11 4.81 4.48 4.32 4.1 3.71 3.58 3.64 3.37
896.975 3.36 3.51 3.64 3.6 3.43 3.62 3.63 3.27 2.99 2.96
916.265 3.02 2.91 2.67 2.69 2.91 2.77 2.6 2.82 2.89 3.05
935.555 3.29 3.54 3.83 3.96 4.1 4.22 4.3 4.61 5.11 5.34
954.844 5.39 5.64 6.11 6.51 6.67 6.68 7.12 8.26 9.2 10.09
974.134 11.04 11.52 11.85 11.84 11.32 10.69 9.83 9.12 8.43 7.37
993.424 6.35 5.46 4.65 4.05 3.93 3.64 3.76 3.68 3.3 3.11
1012.714 2.85 3.45 3.99 4.47 5.21 6.32 7.99 9.82 12.76 16.61
1032.003 20.73 24.62 26.42 27.02 27.69 27.23 24.43 20.71 17.21 15.06
1051.293 14.76 15.24 16.83 18.37 18.97 19.34 19.29 18.14 15.85 13.03
1070.583 10.88 9.44 8.73 8.07 7.29 7.62 8.53 9.4 10.11 11.22
1089.873 12.37 13.7 15.49 17.91 22.22 26.16 30.04 35.94 43.24 52.75
1109.163 63.41 74.06 85.99 97.39 104.69 106.74 105.4 102.13 96.87 90.59
1128.452 84.64 82.41 84.98 91.37 100.45 110.83 122.15 132.32 140.88 144.9
1147.742 142.92 137.14 128.81 119.91 111.03 102.76 96.44 92.48 90.63 91.21
1167.032 94.52 98.94 102.11 102 97.87 90.4 79.65 67.48 54.72 43.1
1186.322 33.64 26.67 22 18.49 15.85 13.91 12.96 11.89 11.16 11.27
1205.611 10.59 9.97 9.68 8.93 8.85 8.35 7.7 7.45 7.17 7.28
1224.901 7.49 7.24 7.38 8.07 8.38 8.6 9.05 9 9.11 9.7
1244.191 10.02 10.23 11.33 12.72 13.76 14.66 15.48 16.82 18.28 19.63
1263.481 20.96 22.17 23.26 24.19 25.2 26.39 27.47 28.86 30.13 30.72
1282.771 31.18 31.22 31.29 31.2 31.04 31.25 31.97 33.77 36.8 41.52
1302.060 48.45 57.65 68.99 81.53 93.27 102.31 107.16 107.42 103.15 94.34
1321.350 81.45 66.36 51.97 40.24 31.55 25.5 21.58 19.09 17.49 16.63
1340.640 16.33 16.47 17.03 18.05 19.47 21.3 23.49 25.75 27.77 29.39
1359.930 30.09 29.83 28.6 26.28 23.29 19.98 16.74 13.77 11.28 9.44
1379.219 8.01 6.95 6.25 5.61 5.03 4.69 4.39 4.05 3.78 3.5
1398.509 3.3 3.16 3.08 2.99 2.86 2.82 2.8 2.71 2.59 2.51
1417.799 2.56 2.59 2.61 2.74 2.82 2.72 2.79 2.94 3.02 3.16
1437.089 3.25 3.4 3.65 3.91 4.21 4.58 4.82 4.97 4.98 4.92
1456.378 4.78 4.44 3.97 3.65 3.48 3.31 3.35 3.57 3.79 4.17
1475.668 4.82 5.52 6.29 7.33 8.35 9.15 9.79 10.08 9.76 8.96
1494.958 7.85 6.56 5.24 4.06 3.32 2.77 2.39 2.25 2.08 1.95
1514.248 2.01 2 1.84 1.73 1.75 1.73 1.74 1.76 1.62 1.49
1533.538 1.4 1.36 1.38 1.43 1.47 1.46 1.47 1.48 1.46 1.55
1552.827 1.74 1.92 2.16 2.46 2.7 3.15 3.76 4.37 4.92 5.56
1572.117 6.28 6.63 6.65 6.51 6.1 5.52 4.84 4.04 3.44 3.1
1591.407 3.02 3.07 3.07 3.3 3.63 3.67 3.77 3.87 3.77 3.77
1610.697 3.82 3.96 4.05 4.1 4.3 4.53 4.86 5.43 6.26 7.22
1629.986 8.4 9.86 11.36 13.01 14.77 16.38 17.63 18.27 17.99 16.98
1649.276 15.4 13.09 10.47 8.23 6.54 5.38 4.63 4.06 3.68 3.41
1668.566 3.24 3.14 2.95 2.95 3.04 2.95 2.94 3.03 3.14 3.32
1687.856 3.51 3.66 3.76 3.84 4.03 4.25 4.3 4.35 4.66 5.16
1707.146 5.64 6.2 6.78 7.32 8.01 8.72 9.45 10.23 11.1 12.25
1726.435 13.63 15.15 16.86 18.89 21.4 24.32 27.78 32.25 37.75 44.56
1745.725 52.61 61.78 71.48 80.89 89.26 95.75 99.51 99.56 95.24 87.73
1765.015 79.18 70.25 60.85 51.99 44.37 38.57 34.35 31.17 28.48 26.16
1784.305 24.1 21.87 19.76 17.83 15.97 14.38 13.01 11.74 10.6 9.72
1803.594 8.91 8.22 7.71 7.21 6.78 6.3 5.89 5.66 5.42 5.09
1822.884 4.79 4.46 4.16 3.99 3.8 3.52 3.4 3.24 2.98 2.88
1842.174 2.82 2.69 2.55 2.46 2.35 2.27 2.23 2.14 2.03 1.86
1861.464 1.81 1.78 1.63 1.56 1.61 1.62 1.48 1.48 1.54 1.57
1880.754 1.59 1.51 1.47 1.47 1.46 1.51 1.57 1.58 1.63 1.69
1900.043 1.6 1.58 1.6 1.57 1.52 1.44 1.37 1.33 1.2948 1.2627
1919.333 1.2439 1.37 1.44 1.54 1.68 1.72 1.85 1.93 1.93 1.95
1938.623 1.91 1.88 1.78 1.54 1.45 1.42 1.48 1.57 1.49 1.36
1957.913 1.4 1.54 1.61 1.59 1.5 1.49 1.47 1.34 1.249 1.1346
1977.202 1.0234 0.9233 0.8476 0.8393 0.8128 0.8263 0.8361 0.7734 0.7199 0.7633
1996.492 0.742 0.728 0.8262 0.876 0.8244 0.825 0.8294 0.7406 0.6767 0.7654
2015.782 0.8609 0.8447 0.8348 0.7969 0.8252 0.8612 0.8425 0.8417 0.8592 0.8542
2035.072 0.8696 0.893 0.9253 0.9848 0.972 0.9129 0.9669 1.0137 0.9939 1.0755
2054.362 1.0371 0.9698 1.0436 1.0854 1.1212 1.1632 1.1367 1.0339 1.0074 1.0367
2073.651 0.9805 0.9599 0.9563 0.8274 0.8538 0.8967 0.773 0.6861 0.6773 0.8205
2092.941 0.8591 0.6803 0.6634 0.6981 0.7272 0.7277 0.6393 0.6366 0.6901 0.6452
2112.231 0.5996 0.6435 0.689 0.6872 0.6544 0.6846 0.7232 0.6447 0.5417 0.584
2131.521 0.5676 0.5258 0.5769 0.5593 0.5522 0.606 0.6389 0.616 0.5586 0.6025
2150.810 0.5431 0.4893 0.5066 0.4884 0.5409 0.6355 0.7036 0.7269 0.6948 0.6608
2170.100 0.6588 0.6098 0.6295 0.7665 0.7564 0.6423 0.7251 0.8004 0.8635 0.8569
2189.390 0.8126 0.7887 0.7627 0.8292 0.9012 1.0073 1.0859 0.9832 0.8627 0.8401
2208.680 0.8605 0.939 0.9347 0.9687 0.9927 0.9663 1.064 1.1106 1.0948 1.0874
2227.970 1.0837 1.1927 1.2047 1.0225 0.9942 1.0337 0.9868 0.9691 1.0726 1.0739
2247.259 0.956 0.9276 0.9052 0.9544 0.995 1.0305 0.9496 0.9239 1.0626 1.0679
2266.549 1.0488 0.9628 0.9065 0.9315 0.947 0.855 0.8496 0.991 0.9801 0.9236
2285.839 0.8216 0.8354 1.0025 1.0843 0.977 0.9163 0.936 0.9018 0.854 0.855
2305.129 0.8862 0.8444 0.8533 0.844 0.8497 0.8749 0.9361 0.9594 0.9018 0.8792
2324.418 0.9045 0.9599 0.9845 0.9312 0.8493 0.9707 1.104 1.1192 1.0402 0.9573
2343.708 0.9295 0.8935 0.976 0.979 0.9 0.9256 0.8352 0.6913 0.6409 0.6871
2362.998 0.8183 0.8399 0.7618 0.8291 0.835 0.7357 0.7881 0.8007 0.6859 0.5872
2382.288 0.5425 0.6188 0.758 0.7254 0.6287 0.6257 0.5866 0.5416 0.552 0.5667
2401.578 0.6463 0.719 0.7617 0.6805 0.6762 0.6548 0.5955 0.6468 0.6642 0.7354
2420.867 0.7064 0.6645 0.6078 0.4926 0.627 0.7518 0.6884 0.7095 0.6647 0.5744
2440.157 0.6626 0.7935 0.757 0.648 0.6531 0.6856 0.7001 0.7688 0.7348 0.7487
2459.447 0.8467 0.8262 0.7443 0.7722 0.8962 0.8415 0.6898 0.6259 0.6717 0.72
2478.737 0.7205 0.7557 0.7948 0.8564 0.8173 0.772 0.8574 0.9286 0.892 0.792
2498.026 0.7177 0.6799 0.6382 0.7071 0.8098 0.678 0.5908 0.6911 0.6539 0.566
2517.316 0.5672 0.5429 0.612 0.615 0.5803 0.5217 0.4331 0.5313 0.6578 0.7164
2536.606 0.6714 0.6475 0.6957 0.6499 0.5317 0.5252 0.6883 0.6956 0.7426 0.7627
2555.896 0.5558 0.5592 0.6579 0.6731 0.6548 0.6437 0.6595 0.6696 0.7105 0.733
2575.186 0.7119 0.7166 0.6797 0.6591 0.7083 0.7119 0.7362 0.7809 0.6987 0.6256
2594.475 0.6599 0.7668 0.7831 0.725 0.7649 0.7028 0.6426 0.7327 0.7926 0.8008
2613.765 0.7894 0.7591 0.6575 0.5777 0.6747 0.7609 0.7117 0.6832 0.7219 0.521
2633.055 0.4956 0.6192 0.6138 0.6533 0.5098 0.37232 0.4035 0.5321 0.6769 0.7596
2652.345 0.709 0.5749 0.5183 0.5486 0.5324 0.36724 0.4178 0.6672 0.6654 0.5778
2671.634 0.5764 0.5955 0.5554 0.4793 0.6078 0.6832 0.5843 0.5891 0.5517 0.696
2690.924 0.8718 0.7208 0.6107 0.6077 0.5155 0.5274 0.6954 0.7393 0.5784 0.4966
2710.214 0.5365 0.6783 0.6124 0.5006 0.6959 0.7058 0.5426 0.4524 0.4845 0.6227
2729.504 0.6453 0.5963 0.5761 0.6095 0.6641 0.581 0.5214 0.5032 0.4913 0.5034
2748.794 0.468 0.5482 0.6506 0.5989 0.503 0.504 0.6392 0.6395 0.6899 0.7713
2768.083 0.6168 0.5614 0.7072 0.7842 0.7099 0.6906 0.6344 0.5931 0.6178 0.5829
2787.373 0.631 0.7003 0.6719 0.6404 0.6893 0.5794 0.5729 0.6446 0.5918 0.6641
2806.663 0.6302 0.5019 0.6222 0.6053 0.4883 0.4774 0.4938 0.5981 0.5274 0.4603
2825.953 0.5565 0.6378 0.6495 0.692 0.543 0.37085 0.34771 0.39979 0.5442 0.52
2845.242 0.4776 0.5442 0.4743 0.4042 0.596 0.7525 0.7102 0.7614 0.8051 0.7623
2864.532 0.9022 0.8652 0.5562 0.5647 0.6955 0.6981 0.7961 0.6884 0.6355 0.7828
2883.822 0.8403 0.791 0.7072 0.737 0.8042 0.9022 0.8824 0.9004 1.0341 1.043
2903.112 1.0336 1.0083 0.8342 0.7682 0.9352 0.9001 0.8791 0.9833 1.0274 1.0091
2922.401 0.9959 0.9047 0.7549 0.7247 0.6606 0.6361 0.546 0.4437 0.6393 0.7073
2941.691 0.7264 0.8209 0.7685 0.6919 0.6287 0.6843 0.5913 0.5976 0.6357 0.5682
2960.981 0.6267 0.7779 0.8482 0.8198 0.6701 0.5729 0.6057 0.6704 0.8018 0.8914
2980.271 0.763 0.6891 0.714 0.8066 0.771 0.615 0.8271 1.0102 1.053 1.2175
2999.561 1.31 1.138 1.2077 1.3 1.31 1.2658 1.0493 0.9535 1.0227 1.2194
3018.850 1.2246 1.1555 1.1482 1.0804 1.0134 1.1252 1.253 1.34 1.74 1.96
3038.140 1.96 2.15 2.3 2.3 2.22 2.26 2.36 2.34 2.49 2.64
3057.430 2.73 2.79 2.98 3.3 3.66 4.04 4.49 5.13 5.78 6.11
3076.720 6.33 6.57 6.42 6.1 5.94 5.58 4.85 3.87 3.21 2.73
3096.009 2.14 1.74 1.62 1.59 1.48 1.57 1.66 1.69 1.7 1.52
3115.299 1.52 1.48 1.37 1.2376 1.0543 0.9987 0.9368 0.9957 0.8603 0.742
3134.589 0.9118 1.1972 1.2064 0.9244 0.7468 0.6564 0.7433 0.8359 0.698 0.8083
3153.879 0.9243 0.8208 0.743 0.6933 0.5814 0.5434 0.6721 0.6964 0.74 0.6665
3173.169 0.4976 0.538 0.6091 0.6244 0.626 0.6281 0.6897 0.823 0.6597 0.673
3192.458 0.7638 0.5464 0.4035 0.4142 0.5258 0.5397 0.6423 0.5532 0.6719 0.7208
3211.748 0.4603 0.4056 0.5459 0.6765 0.5684 0.4982 0.2279 0.138 0.39382 0.4302
3231.038 0.4065 0.499 0.5332 0.5363 0.4824 0.3556 0.5303 0.6005 0.4891 0.4372
3250.328 0.36262 0.36842 0.4405 0.5876 0.6375 0.7228 0.7203 0.5665 0.5477 0.7116
3269.617 0.771 0.5767 0.4982 0.4581 0.4988 0.5451 0.4358 0.4091 0.37463 0.36938
3288.907 0.38545 0.2566 0.2529 0.2165 0.2688 0.5184 0.5957 0.5995 0.6676 0.4943
3308.197 0.36113 0.36603 0.3651 0.5395 0.6246 0.4924 0.4829 0.5744 0.4467 0.35342
3327.487 0.5236 0.6352 0.4262 0.2413 0.107 0.4418 0.6442 0.5166 0.7824 0.7904
3346.777 0.4891 0.4145 0.37661 0.38162 0.39872 0.38061 0.5282 0.5381 0.4338 0.5244
3366.066 0.536 0.4741 0.5694 0.7015 0.7684 0.7407 0.6443 0.5054 0.4449 0.5111
3385.356 0.6652 0.6943 0.6381 0.519 0.418 0.4893 0.5795 0.8229 0.7458 0.6784
3404.646 0.7075 0.5586 0.5495 0.6607 0.6931 0.4494 0.36479 0.37613 0.5006 0.6196
3423.936 0.6229 0.783 0.8546 0.6785 0.5136 0.5826 0.6871 0.7173 0.8995 0.8607
3443.225 0.522 0.4558 0.6245 0.7533 0.5907 0.5233 0.7231 0.736 0.8033 0.8153
3462.515 0.585 0.626 0.8611 0.9396 0.9102 0.7696 0.767 0.892 0.854 0.8944
3481.805 0.8782 0.7991 0.9032 0.895 0.9497 1.1938 1.2274 1.2507 1.2604 1.37
3501.095 1.48 1.51 1.54 1.45 1.3 1.2952 1.2287 1.0916 1.2949 1.37
3520.385 1.1473 1.0153 0.9469 0.7871 0.7412 0.9012 1.0477 1.0358 0.9981 1.0138
3539.674 1.0633 0.9212 0.8285 0.9994 1.0196 1.0207 1.2267 1.2769 1.47 1.81
3558.964 2.17 2.61 2.97 3.89 5.44 7.79 11.31 16.52 23.69 31.45
3578.254 38.22 43.01 45.28 44.7 40.82 33.89 26.27 19.7 13.77 9.03
3597.544 6 4.22 3.1 2.35 1.95 1.72 1.67 1.5 1.38 1.1569
3616.833 0.8521 0.8668 1.095 1.0337 0.8651 0.9487 1.0212 1.0089 0.8375 0.7267
3636.123 0.6194 0.7555 0.885 0.8198 0.8041 0.842 0.945 0.8031 0.6688 0.7925
3655.413 0.8391 0.7701 0.8801 0.9149 0.891 0.7266 0.6422 0.6875 0.5747 0.6378
3674.703 0.5427 0.4106 0.4351 0.4761 0.4969 0.5461 0.7275 0.6962 0.716 0.6663
3693.993 0.5069 0.6319 0.6096 0.4358 0.536 0.5171 0.5971 0.7343 0.6063 0.3906
3713.282 0.2681 0.37524 0.5551 0.4488 0.32541 0.4745 0.4795 0.4817 0.4598 0.5189
3732.572 0.6052 0.6041 0.5914 0.653 0.6698 0.688 0.6437 0.5486 0.6079 0.4868
3751.862 0.2664 0.32727 0.479 0.7527 0.578 0.2019 0.2195 0.2891 0.155 0
3771.152 0.15 0.2494 0.5984 0.6769 0.4567 0.413 0.4635 0.5341 0.4707 0.4962
3790.441 0.4519 0.3858 0.22 0.186 0.4197 0.37289 0.32836 0.35941 0.37314 0.38897
3809.731 0.5266 0.6089 0.37551 0.2291 0.3556 0.5243 0.5551 0.5162 0.38209 0.4049
3829.021 0.4285 0.31406 0.2339 0.4517 0.8841 0.8748 0.6902 0.6076 0.5072 0.5176
3848.311 0.4263 0.3577 0.5104 0.4905 0.5795 0.5347 0.45 0.4371 0.35549 0.4061
3867.601 0.32188 0.2222 0.31569 0.5501 0.539 0.5304 0.616 0.5587 0.5807 0.6035
3886.890 0.4827 0.4483 0.6023 0.4935 0.36151 0.37941 0.38296 0.4832 0.5987 0.6807
3906.180 0.556 0.5044 0.6991 0.6674 0.5762 0.6204 0.5686 0.5839 0.7782 0.841
3925.470 0.7215 0.7073 0.819 0.5712 0.5099 0.6142 0.4336 0.36723 0.32935 0.4013
3944.760 0.5655 0.6934 0.5256 0.39607 0.4088 0.5351 0.6238 0.5369 0.4311 0.33533
3964.049 0.4626 0.5231 0.2712 0.199 0.199 0.32837 0.5332 0.4245 0.36784 0.4615
3983.339 0.6367 0.8203 0.7328 0.503 0.5672 0.5604 0.5301 0.7978 0.9083 0.67
##END=
