##TITLE=3-Nitroaniline
##JCAMP-DX=4.24
##DATA TYPE=INFRARED SPECTRUM
##ORIGIN=NIST Mass Spectrometry Data Center
##OWNER=NIST Standard Reference Data Program
Collection (C) 2018 copyright by the U.S. Secretary of Commerce
on behalf of the United States of America. All rights reserved.
##CAS REGISTRY NO=99-09-2
##MOLFORM=C 6 H 6 N 2 O 2
##$NIST SOURCE=MSDC-IR
##SPECTROMETER/DATA SYSTEM=HP-GC/MS/IRD
##STATE=gas
##XUNITS=1/CM
##YUNITS=ABSORBANCE
##XFACTOR=1.0
##YFACTOR=0.000002800
##DELTAX=4.0
##FIRSTX=550.0
##LASTX=3846.0
##FIRSTY=0.001120
##MAXX=3846
##MINX=550
##MAXY=0.028
##MINY=0
##NPOINTS=825
##XYDATA=(X++(Y..Y))
550.0 400 290 201 197 181 175 175 175 173 168
590.0 176 170 149 148 149 164 169 189 230 256
630.0 283 371 521 680 854 1076 1291 1465 1655 1922
670.0 2179 2244 2182 2100 1932 1668 1393 1202 1097 1061
710.0 1088 1204 1357 1500 1756 2153 2114 1700 1447 1211
750.0 945 727 602 576 601 661 763 876 1003 1173
790.0 1259 1270 1373 1687 2116 2308 2247 2038 1620 988
830.0 495 311 266 269 308 370 449 541 651 732
870.0 728 667 601 526 449 376 297 236 196 168
910.0 162 177 195 187 175 173 149 124 111 106
950.0 103 91 86 90 87 85 88 89 97 121
990.0 150 160 147 141 113 59 30 27 24 20
1030.0 22 21 27 45 72 108 135 158 179 202
1070.0 208 217 239 268 314 354 384 423 461 471
1110.0 443 410 368 310 242 189 166 143 103 72
1150.0 56 50 42 39 31 17 2 0 2 2
1190.0 10 12 19 29 28 31 38 44 55 70
1230.0 84 119 175 255 390 591 856 1143 1318 1361
1270.0 1349 1247 1036 868 829 901 1064 1303 1592 1861
1310.0 2050 2152 2165 2058 1880 1788 1886 2211 2860 3958
1350.0 5247 6177 6504 6284 5231 3486 2003 1160 709 475
1390.0 356 294 261 240 222 204 185 172 172 172
1430.0 182 197 218 255 295 351 429 514 611 718
1470.0 860 1057 1273 1456 1571 1617 1565 1407 1258 1213
1510.0 1313 1605 2170 3109 4482 6234 8065 9437 10000 9937
1550.0 9368 8043 6306 4973 4170 3569 3119 2871 2652 2343
1590.0 2026 1747 1499 1351 1391 1602 1970 2507 3144 3658
1630.0 3860 3742 3340 2668 1897 1269 878 666 557 493
1670.0 452 432 417 396 362 329 291 244 207 184
1710.0 163 144 137 141 142 141 147 146 141 139
1750.0 134 129 122 116 105 85 73 64 56 44
1790.0 39 39 34 34 42 41 36 36 39 48
1830.0 56 62 68 78 86 82 76 72 62 53
1870.0 43 31 25 22 17 20 29 33 38 50
1910.0 69 89 102 118 122 118 110 95 76 62
1950.0 54 47 43 36 32 35 36 35 32 36
1990.0 40 43 38 39 42 42 41 42 40 39
2030.0 37 36 36 31 31 39 40 37 39 39
2070.0 39 37 32 30 27 28 29 25 22 26
2110.0 27 24 26 23 20 23 26 26 29 32
2150.0 32 33 34 35 35 33 29 30 31 29
2190.0 26 24 26 24 22 21 21 16 12 12
2230.0 15 16 17 21 24 24 22 21 24 27
2270.0 29 34 33 35 38 39 38 36 33 30
2310.0 27 25 28 32 35 43 45 40 42 43
2350.0 44 45 48 48 42 42 50 51 47 42
2390.0 40 43 47 49 46 46 45 40 40 39
2430.0 38 39 44 41 40 42 42 40 33 28
2470.0 28 29 28 25 20 22 22 21 20 22
2510.0 25 22 20 23 23 27 32 30 29 33
2550.0 35 38 36 37 51 50 40 37 42 43
2590.0 38 33 38 47 49 55 61 63 68 77
2630.0 79 75 73 70 62 64 63 55 60 63
2670.0 62 61 58 61 62 62 66 64 59 57
2710.0 54 54 49 51 52 47 43 44 41 39
2750.0 39 34 33 33 30 26 30 32 33 37
2790.0 30 32 43 45 44 46 49 45 50 58
2830.0 55 60 70 83 91 87 88 93 92 97
2870.0 104 115 128 140 149 153 151 146 137 129
2910.0 118 113 111 106 92 85 91 90 84 76
2950.0 68 58 56 60 58 53 58 55 52 60
2990.0 61 63 75 82 89 104 122 149 196 259
3030.0 312 357 384 383 365 333 309 311 350 419
3070.0 484 502 485 444 370 280 222 191 172 162
3110.0 144 116 83 60 48 48 44 35 30 28
3150.0 27 25 24 31 32 28 29 34 38 45
3190.0 52 55 65 70 71 86 99 104 112 108
3230.0 101 85 79 82 69 53 46 50 48 37
3270.0 36 44 42 34 31 32 33 26 21 22
3310.0 27 30 33 35 27 28 27 25 25 26
3350.0 30 40 42 45 56 64 79 96 111 147
3390.0 185 227 298 382 466 554 612 658 691 705
3430.0 652 563 473 372 265 194 149 119 111 114
3470.0 134 155 182 225 266 302 333 367 386 385
3510.0 390 387 381 356 318 275 218 152 107 83
3550.0 63 45 41 38 35 32 28 32 35 40
3590.0 45 40 36 33 36 39 36 41 44 47
3630.0 42 33 29 32 37 34 36 42 39 35
3670.0 35 32 37 44 43 35 28 25 30 37
3710.0 44 45 47 52 50 46 39 39 50 57
3750.0 50 44 46 45 46 48 52 54 52 50
3790.0 46 55 60 56 64 55 39 48 51 45
3830.0 54 68 72 78 90
##END=
