##TITLE=l-Carveol
##JCAMP-DX=4.24
##DATA TYPE=INFRARED SPECTRUM
##ORIGIN=NIST Mass Spectrometry Data Center
##OWNER=NIST Standard Reference Data Program
Collection (C) 2018 copyright by the U.S. Secretary of Commerce
on behalf of the United States of America. All rights reserved.
##CAS REGISTRY NO=99-48-9
##MOLFORM=C 10 H 16 O
##$NIST SOURCE=MSDC-IR
##SPECTROMETER/DATA SYSTEM=HP-GC/MS/IRD
##STATE=gas
##XUNITS=1/CM
##YUNITS=ABSORBANCE
##XFACTOR=1.0
##YFACTOR=0.000001900
##DELTAX=4.0
##FIRSTX=550.0
##LASTX=3846.0
##FIRSTY=0.001265
##MAXX=3846
##MINX=550
##MAXY=0.019
##MINY=0
##NPOINTS=825
##XYDATA=(X++(Y..Y))
550.0 666 454 203 202 206 214 187 148 186 255
590.0 292 318 379 406 376 352 273 177 162 131
630.0 122 172 193 166 155 167 145 89 64 75
670.0 29 27 79 74 87 93 27 0 59 109
710.0 106 87 98 103 114 158 197 231 272 278
750.0 254 208 200 189 149 159 186 192 195 269
790.0 394 558 773 973 1166 1237 1118 980 847 734
830.0 687 662 682 757 819 847 840 819 809 853
870.0 1017 1346 1866 2567 3346 3918 4174 4091 3706 3253
910.0 2844 2529 2208 1833 1514 1281 1116 1047 1045 1060
950.0 1146 1220 1273 1334 1351 1376 1396 1378 1402 1502
990.0 1655 1850 2077 2307 2554 2888 3393 4160 5148 6217
1030.0 7168 7775 7845 7365 6485 5409 4367 3513 2868 2423
1070.0 2140 1952 1782 1612 1423 1232 1113 1045 969 916
1110.0 872 797 732 714 679 682 719 762 826 912
1150.0 1025 1124 1203 1263 1285 1255 1213 1155 1087 1056
1190.0 1072 1179 1337 1500 1652 1760 1817 1864 1877 1829
1230.0 1785 1758 1689 1592 1517 1489 1473 1442 1439 1423
1270.0 1370 1342 1328 1319 1308 1283 1233 1192 1181 1175
1310.0 1182 1225 1294 1360 1426 1473 1500 1533 1546 1583
1350.0 1654 1785 1976 2250 2596 2985 3300 3410 3284 2938
1390.0 2478 2032 1682 1419 1262 1173 1158 1227 1335 1493
1430.0 1736 2039 2323 2586 2814 2929 2953 2769 2396 1952
1470.0 1525 1181 920 735 610 525 467 429 396 401
1510.0 386 359 361 341 304 270 261 277 292 279
1550.0 270 293 312 299 285 285 301 319 334 364
1590.0 382 401 423 454 497 540 598 685 819 1006
1630.0 1259 1571 1866 2048 2032 1805 1419 1009 705 514
1670.0 385 298 240 213 188 150 159 170 134 117
1710.0 116 127 134 109 97 110 107 84 69 71
1750.0 88 71 65 83 90 118 149 171 217 261
1790.0 285 289 266 233 182 131 104 78 53 48
1830.0 41 38 31 28 30 24 27 25 23 29
1870.0 26 14 12 17 17 31 36 27 23 21
1910.0 14 7 11 12 14 15 22 23 28 24
1950.0 12 21 22 14 14 13 14 11 12 4
1990.0 2 10 17 17 24 19 2 4 8 17
2030.0 18 24 31 26 17 13 17 20 14 10
2070.0 32 36 32 39 33 22 19 24 16 19
2110.0 33 36 37 32 31 32 21 15 8 2
2150.0 6 7 4 14 19 5 5 16 19 13
2190.0 20 29 22 21 44 49 24 4 2 8
2230.0 19 19 21 22 24 29 26 23 8 11
2270.0 14 9 9 9 15 17 19 16 13 15
2310.0 23 39 31 34 38 19 16 31 45 31
2350.0 27 43 39 24 20 27 31 37 48 55
2390.0 50 55 64 60 53 55 67 51 48 58
2430.0 49 48 44 42 52 46 42 51 59 67
2470.0 66 63 60 56 61 64 67 70 70 63
2510.0 67 74 63 52 46 64 80 78 73 71
2550.0 82 86 91 95 91 101 110 114 111 108
2590.0 117 102 97 122 134 138 130 116 117 132
2630.0 136 128 130 129 129 132 133 145 152 157
2670.0 135 129 151 166 162 157 163 152 158 170
2710.0 187 209 225 251 281 307 322 342 346 330
2750.0 315 301 304 294 304 316 329 358 384 430
2790.0 466 496 546 591 664 761 875 1023 1220 1479
2830.0 1799 2238 2832 3519 4199 4806 5292 5589 5670 5552
2870.0 5298 5034 4837 4779 4919 5184 5460 5712 5977 6294
2910.0 6795 7674 8781 9633 10000 9870 9262 8499 7973 7707
2950.0 7440 7047 6529 6047 5825 5946 6079 5944 5599 4970
2990.0 4186 3584 3193 2930 2754 2588 2479 2393 2262 2134
3030.0 1992 1815 1633 1458 1317 1204 1139 1126 1196 1382
3070.0 1661 1939 2163 2334 2331 2086 1746 1372 941 625
3110.0 464 385 328 302 268 225 207 190 171 153
3150.0 143 123 99 104 118 124 103 78 75 71
3190.0 76 86 59 46 51 50 33 25 53 46
3230.0 33 49 66 66 31 29 39 28 33 33
3270.0 31 42 54 49 29 21 28 50 52 29
3310.0 12 19 26 23 31 34 36 48 46 33
3350.0 14 12 20 33 54 50 25 6 11 14
3390.0 3 12 49 48 27 16 31 40 26 38
3430.0 43 45 52 50 48 58 74 79 58 66
3470.0 65 45 55 47 20 17 27 57 55 34
3510.0 46 36 26 59 52 21 10 2 26 43
3550.0 33 42 59 73 87 72 77 116 166 283
3590.0 372 377 360 344 352 355 353 412 515 618
3630.0 663 676 727 806 924 1034 1076 1047 913 715
3670.0 521 375 246 147 131 108 66 69 66 57
3710.0 84 75 56 61 43 25 53 50 44 43
3750.0 34 50 48 44 65 80 67 50 41 45
3790.0 39 27 31 7 13 30 39 60 62 55
3830.0 41 52 85 81 63
##END=
