##TITLE=Methyl 4-hydroxybenzoate
##JCAMP-DX=4.24
##DATA TYPE=INFRARED SPECTRUM
##ORIGIN=NIST Mass Spectrometry Data Center
##OWNER=NIST Standard Reference Data Program
Collection (C) 2018 copyright by the U.S. Secretary of Commerce
on behalf of the United States of America. All rights reserved.
##CAS REGISTRY NO=99-76-3
##MOLFORM=C 8 H 8 O 3
##$NIST SOURCE=MSDC-IR
##SPECTROMETER/DATA SYSTEM=HP-GC/MS/IRD
##STATE=gas
##XUNITS=1/CM
##YUNITS=ABSORBANCE
##XFACTOR=1.0
##YFACTOR=0.000023300
##DELTAX=4.0
##FIRSTX=550.0
##LASTX=3846.0
##FIRSTY=0.001608
##MAXX=3846
##MINX=550
##MAXY=0.233
##MINY=0
##NPOINTS=825
##XYDATA=(X++(Y..Y))
550.0 69 88 56 67 65 62 54 46 43 47
590.0 59 81 123 200 333 503 590 575 473 284
630.0 148 105 90 82 67 50 37 32 34 47
670.0 71 106 149 197 239 240 215 183 145 104
710.0 66 42 23 8 0 4 14 36 78 144
750.0 242 371 512 659 810 839 729 619 508 393
790.0 300 245 218 199 189 187 184 194 232 313
830.0 451 642 802 897 925 783 573 425 299 194
870.0 120 73 45 30 25 21 18 17 16 14
910.0 13 12 19 27 39 47 52 53 53 57
950.0 68 89 118 150 175 186 183 163 133 106
990.0 85 75 75 99 165 224 233 223 174 111
1030.0 88 88 97 105 120 140 168 208 263 341
1070.0 455 632 903 1282 1727 2187 2642 3005 3197 3236
1110.0 3109 2809 2418 2002 1609 1308 1119 1052 1118 1335
1150.0 1810 2787 4288 5406 5567 5079 3882 2895 2933 3362
1190.0 3521 3282 2625 1801 1212 928 809 764 766 803
1230.0 870 983 1168 1477 2037 3015 4508 6375 8214 9572
1270.0 10000 9362 8046 6386 4682 3273 2339 1828 1560 1387
1310.0 1237 1106 1032 990 908 800 674 526 389 296
1350.0 249 228 216 201 183 166 146 133 127 127
1390.0 136 157 187 230 284 347 414 498 623 827
1430.0 1149 1460 1577 1478 1131 700 460 363 312 275
1470.0 245 220 198 185 188 213 281 436 713 1064
1510.0 1284 1267 1072 699 363 219 170 151 143 142
1550.0 155 180 223 277 343 436 560 730 943 1208
1590.0 1487 1760 2029 2268 2413 2404 2198 1801 1342 955
1630.0 673 496 383 304 254 228 211 196 186 177
1670.0 172 177 189 211 239 264 285 306 337 389
1710.0 477 643 934 1386 2072 3068 4350 5373 5692 5608
1750.0 4815 3340 2085 1300 814 524 357 267 217 192
1790.0 183 179 174 157 133 110 88 69 56 48
1830.0 41 36 31 27 23 22 22 24 28 36
1870.0 45 56 66 76 84 91 96 100 101 101
1910.0 100 98 96 92 85 79 72 66 59 50
1950.0 42 34 29 25 22 20 19 18 18 18
1990.0 20 22 23 27 29 27 25 25 27 29
2030.0 31 34 36 38 43 50 59 66 72 76
2070.0 76 75 72 67 62 61 60 60 59 56
2110.0 49 41 34 28 24 19 14 10 7 4
2150.0 3 2 3 2 1 1 0 1 1 0
2190.0 0 1 2 2 1 3 3 5 6 8
2230.0 10 11 12 14 16 15 16 17 16 17
2270.0 17 16 17 16 16 15 15 16 16 15
2310.0 16 16 17 17 17 18 17 15 15 16
2350.0 17 17 18 18 19 19 20 22 22 23
2390.0 24 25 27 29 31 35 37 42 47 49
2430.0 50 51 51 50 52 51 48 42 33 25
2470.0 20 17 15 16 17 16 15 17 20 23
2510.0 27 32 36 40 39 35 29 25 22 19
2550.0 18 17 15 14 14 13 14 17 19 20
2590.0 22 21 20 19 19 18 17 18 17 16
2630.0 15 14 13 12 14 16 17 17 15 11
2670.0 9 6 7 6 5 4 5 4 5 4
2710.0 3 2 3 2 0 1 2 2 3 2
2750.0 4 7 9 12 14 16 16 15 15 14
2790.0 13 13 12 13 13 14 18 21 27 35
2830.0 46 64 93 133 167 180 170 136 97 77
2870.0 71 72 76 83 94 108 122 138 151 163
2910.0 177 191 196 194 189 185 189 213 265 361
2950.0 533 771 934 950 848 621 391 270 228 223
2990.0 235 257 284 308 323 337 344 345 340 336
3030.0 339 352 356 339 309 266 216 177 158 163
3070.0 181 199 211 208 185 156 127 107 95 87
3110.0 79 72 65 58 49 41 35 30 28 25
3150.0 22 19 18 19 18 17 18 19 18 18
3190.0 19 17 15 13 10 10 9 8 6 7
3230.0 6 5 4 5 4 3 2 1 1 0
3270.0 0 1 1 0 2 4 6 8 10 12
3310.0 15 19 20 19 20 20 21 22 22 23
3350.0 23 23 22 20 20 20 17 15 11 10
3390.0 11 12 12 11 10 11 11 9 10 10
3430.0 11 15 18 19 25 35 43 50 53 55
3470.0 55 53 47 40 33 28 26 22 18 16
3510.0 13 12 11 10 10 9 10 10 7 8
3550.0 8 9 10 12 13 11 13 14 16 21
3590.0 23 24 27 32 37 48 65 89 131 211
3630.0 374 665 1123 1648 1918 1827 1516 970 470 241
3670.0 140 88 55 37 29 26 22 21 23 21
3710.0 20 18 14 13 14 13 13 14 12 12
3750.0 10 12 11 8 9 8 7 7 8 8
3790.0 9 11 12 13 12 9 9 12 12 10
3830.0 11 13 13 12 15
##END=
