##TITLE=.alpha.-Terpine
##JCAMP-DX=4.24
##DATA TYPE=INFRARED SPECTRUM
##ORIGIN=NIST Mass Spectrometry Data Center
##OWNER=NIST Standard Reference Data Program
Collection (C) 2018 copyright by the U.S. Secretary of Commerce
on behalf of the United States of America. All rights reserved.
##CAS REGISTRY NO=99-86-5
##MOLFORM=C 10 H 16
##$NIST SOURCE=MSDC-IR
##SPECTROMETER/DATA SYSTEM=HP-GC/MS/IRD
##STATE=gas
##XUNITS=1/CM
##YUNITS=ABSORBANCE
##XFACTOR=1.0
##YFACTOR=0.000003400
##DELTAX=4.0
##FIRSTX=550.0
##LASTX=3846.0
##FIRSTY=0.000772
##MAXX=3846
##MINX=550
##MAXY=0.034
##MINY=0
##NPOINTS=825
##XYDATA=(X++(Y..Y))
550.0 227 198 191 258 295 319 332 276 220 212
590.0 183 129 90 39 12 27 30 27 18 21
630.0 6 3 19 28 21 12 29 55 95 135
670.0 168 198 194 163 146 116 77 36 19 28
710.0 24 21 27 16 23 36 13 12 44 47
750.0 47 65 82 81 76 59 45 59 69 75
790.0 111 166 235 384 644 978 1354 1717 2017 2002
830.0 1684 1324 953 621 377 244 182 175 181 181
870.0 185 186 175 147 117 99 87 82 71 57
910.0 58 53 53 63 82 87 78 58 50 57
950.0 56 54 65 66 66 78 81 81 96 104
990.0 103 102 110 125 153 197 238 270 288 283
1030.0 270 262 287 339 380 414 431 431 391 332
1070.0 311 310 292 281 277 265 240 207 176 145
1110.0 130 129 116 103 103 106 109 125 160 212
1150.0 287 360 396 418 417 376 326 298 282 276
1190.0 280 292 308 313 308 300 272 265 291 309
1230.0 322 324 314 288 253 217 198 201 212 249
1270.0 308 403 512 588 637 621 560 521 492 484
1310.0 505 543 584 596 574 522 441 363 326 341
1350.0 405 516 665 822 944 998 1006 988 934 848
1390.0 751 629 511 428 402 419 463 548 663 783
1430.0 891 971 1044 1108 1164 1208 1236 1270 1279 1215
1470.0 1092 939 770 589 438 331 263 214 181 159
1510.0 148 136 118 105 96 91 89 78 75 83
1550.0 83 76 72 72 70 72 70 79 90 105
1590.0 119 127 132 133 141 141 131 127 132 141
1630.0 164 203 270 367 474 569 610 585 490 350
1670.0 219 135 102 81 68 64 55 51 49 41
1710.0 39 37 35 39 46 55 62 77 93 111
1750.0 127 134 133 125 107 87 70 53 41 39
1790.0 36 29 28 30 28 23 28 31 27 23
1830.0 20 22 22 18 16 17 20 23 20 16
1870.0 19 22 17 13 12 16 20 16 10 18
1910.0 14 4 7 10 8 11 17 19 18 12
1950.0 16 22 20 21 24 20 18 17 17 19
1990.0 15 10 10 11 10 10 6 9 12 12
2030.0 13 11 8 11 11 4 4 10 10 7
2070.0 9 9 2 0 1 7 13 8 7 4
2110.0 0 1 5 14 18 20 18 15 16 19
2150.0 9 2 6 9 7 4 4 10 14 11
2190.0 8 15 18 13 5 8 11 10 15 19
2230.0 18 13 15 18 23 23 18 19 19 15
2270.0 13 14 14 10 9 2 1 6 4 4
2310.0 10 11 13 11 7 12 8 1 7 13
2350.0 18 19 12 10 14 23 30 34 36 37
2390.0 41 42 37 34 32 32 28 19 16 18
2430.0 20 27 32 32 32 32 35 45 48 46
2470.0 42 41 38 35 31 24 26 25 24 28
2510.0 32 35 34 28 25 29 31 36 37 32
2550.0 33 41 50 56 59 62 71 76 76 80
2590.0 80 79 79 73 76 80 83 80 75 75
2630.0 76 72 68 69 72 75 73 78 91 99
2670.0 101 103 108 111 106 110 121 118 117 129
2710.0 142 164 194 229 261 285 299 306 293 277
2750.0 265 252 248 251 258 265 276 307 349 402
2790.0 460 534 619 732 887 1095 1375 1742 2144 2482
2830.0 2666 2655 2503 2318 2223 2317 2659 3193 3823 4464
2870.0 5045 5446 5591 5492 5203 4829 4442 4148 4058 4254
2910.0 4791 5591 6486 7306 7826 7982 7827 7366 6805 6377
2950.0 6252 6695 7823 9149 10000 9981 8909 7037 5105 3632
2990.0 2688 2157 1871 1733 1676 1627 1593 1617 1694 1832
3030.0 2016 2154 2207 2167 2025 1805 1550 1307 1081 877
3070.0 712 583 484 417 367 334 308 291 279 260
3110.0 242 227 208 188 173 171 166 164 156 137
3150.0 132 135 133 133 137 135 130 130 121 116
3190.0 114 100 102 106 108 103 85 63 56 51
3230.0 46 48 46 47 53 60 55 38 36 40
3270.0 34 36 36 37 43 40 28 32 35 27
3310.0 33 26 28 42 30 14 18 25 30 25
3350.0 17 16 15 12 19 31 33 33 36 40
3390.0 35 23 23 18 10 19 24 27 25 27
3430.0 20 13 21 19 30 27 24 25 17 10
3470.0 20 24 26 21 15 13 17 27 21 6
3510.0 5 5 11 17 13 26 27 13 10 17
3550.0 14 19 23 20 25 21 14 7 9 18
3590.0 9 17 21 12 12 12 12 8 14 16
3630.0 9 15 21 26 20 19 20 12 11 3
3670.0 6 19 16 10 5 0 5 10 1 2
3710.0 5 22 44 29 11 7 0 5 19 17
3750.0 23 33 18 10 29 26 9 15 22 26
3790.0 29 23 33 43 39 25 20 21 32 38
3830.0 29 40 50 40 38
##END=
