##TITLE=4-Nitrophenacyl bromide
##JCAMP-DX=4.24
##DATA TYPE=INFRARED SPECTRUM
##ORIGIN=EPA-IR VAPOR PHASE LIBRARY
##OWNER=SRD/NIST
Collection (C) 2018 copyright by the U.S. Secretary of Commerce
on behalf of the United States of America. All rights reserved.
##CAS REGISTRY NO=99-81-0
##MOLFORM=C 8 H 6 Br N O 3
##$NIST SOURCE=MSDC-IR
##STATE=gas
##XUNITS=1/CM
##YUNITS=ABSORBANCE
##XFACTOR=1.
##YFACTOR=0.001
##DELTAX=1.92898
##FIRSTX=549.8
##LASTX=4000.7
##FIRSTY=3.899
##MAXX=4000.7
##MINX=549.759
##MAXY=0.085449
##MINY=0
##NPOINTS=1790
##XYDATA=(X++(Y..Y))
549.759 3.899 3.569 3.369 2.889 2.619 2.249 1.619 1.649 1.769 1.629
569.049 1.3398 1.3596 1.639 1.599 1.629 1.659 1.549 1.649 1.949 1.989
588.339 2.019 1.929 1.869 2.219 2.329 2.419 2.859 3.139 3.389 3.909
607.628 4.269 4.839 5.489 6.409 8.199 10.299 12.359 13.829 14.329 13.949
626.918 12.959 11.459 9.549 8.139 7.489 6.969 6.439 5.979 5.849 5.739
646.208 5.819 5.779 5.719 5.849 5.709 5.559 5.189 4.809 4.519 4.369
665.498 4.319 4.329 4.849 5.159 5.049 5.259 5.559 5.579 5.479 5.309
684.787 4.989 4.889 4.929 4.939 4.879 4.699 4.769 4.929 4.959 5.219
704.077 5.749 6.319 7.039 8.019 9.059 10.279 11.479 12.249 12.639 12.549
723.367 12.029 11.519 10.999 10.869 11.239 12.199 13.839 15.829 17.749 18.589
742.657 18.309 16.949 14.449 11.609 9.129 7.429 6.169 5.239 4.739 4.459
761.947 4.239 3.829 3.649 3.739 3.729 3.409 3.259 3.049 2.789 2.599
781.236 2.449 2.389 2.259 2.179 2.139 2.209 2.389 2.519 2.549 2.599
800.526 2.729 3.059 3.459 3.329 3.059 2.959 2.959 3.029 3.039 3.169
819.816 3.389 3.709 3.749 4.149 4.649 4.859 5.519 6.269 7.059 8.069
839.106 9.409 11.329 14.169 18.229 24.119 31.249 37.499 41.189 42.149 40.699
858.395 36.319 29.549 23.289 18.739 15.239 12.619 10.489 8.529 6.799 5.519
877.685 4.499 3.959 3.609 3.209 3.099 2.989 2.929 2.749 2.489 2.419
896.975 2.299 2.139 1.969 1.679 1.579 1.549 1.3077 1.166 1.1639 1.1639
916.265 1.1667 1.389 1.2108 0.9855 1.0884 1.1721 1.1271 0.8748 0.824 0.9365
935.555 1.0155 0.9888 0.9908 0.9677 0.9991 1.1005 1.0235 1.0254 1.1759 1.2748
954.844 1.399 1.439 1.489 1.729 1.979 2.009 2.079 2.259 2.569 3.109
974.134 3.449 3.759 4.249 4.919 5.759 6.489 7.249 7.909 8.449 9.129
993.424 9.699 10.209 10.929 12.289 14.349 17.119 20.929 24.949 27.909 28.919
1012.714 27.689 24.729 20.569 15.929 12.169 10.129 9.139 7.689 5.949 4.489
1032.003 3.569 3.279 2.659 2.069 2.109 2.119 1.779 1.639 1.609 1.569
1051.293 1.619 1.569 1.669 1.829 1.348 1.0502 1.0692 1.17 1.459 1.2945
1070.583 1.093 1.1582 1.539 1.919 2.259 2.309 1.999 1.959 1.909 1.929
1089.873 2.219 2.379 2.439 2.609 3.269 3.929 4.089 4.189 4.129 4.509
1109.163 5.219 5.219 5.199 5.409 5.379 4.849 4.359 4.649 4.879 4.689
1128.452 4.109 3.419 3.139 2.819 2.819 2.699 2.169 2.309 2.549 2.589
1147.742 2.629 2.569 2.499 2.659 2.699 2.709 2.879 3.109 3.379 3.999
1167.032 4.769 5.599 6.539 7.089 8.329 9.779 10.939 12.459 13.509 13.669
1186.322 13.309 13.019 12.689 12.299 12.159 11.779 11.569 11.699 12.119 12.409
1205.611 12.399 11.859 10.589 9.769 9.019 8.819 9.269 9.479 9.689 10.379
1224.901 11.549 12.679 13.249 13.309 13.349 13.609 13.909 14.629 15.709 16.979
1244.191 18.849 21.099 23.589 26.679 30.249 34.309 39.169 44.499 50.499 56.959
1263.481 63.329 68.429 71.079 70.709 67.189 61.109 53.309 45.119 37.749 31.859
1282.771 27.389 24.079 21.739 20.229 19.439 19.139 19.029 18.989 18.659 18.049
1302.060 17.359 16.609 15.889 15.179 14.539 14.109 13.779 13.369 12.979 12.769
1321.350 12.739 13.019 13.879 15.449 17.869 21.299 25.799 31.439 38.379 46.449
1340.640 54.979 63.069 69.669 73.669 74.389 71.759 66.109 58.559 50.499 42.869
1359.930 36.249 30.729 26.189 22.539 19.579 17.039 14.979 13.339 12.069 11.209
1379.219 10.629 10.349 10.259 10.249 10.409 10.629 10.769 10.939 11.029 10.929
1398.509 10.699 10.429 10.119 9.829 9.669 9.619 9.559 9.579 9.719 9.909
1417.799 10.229 10.909 12.149 13.769 15.169 15.709 15.179 13.899 12.179 10.099
1437.089 8.019 6.449 5.339 4.429 3.829 3.489 3.229 3.079 2.989 2.919
1456.378 2.899 2.889 2.849 2.839 2.989 3.119 3.209 3.389 3.629 3.859
1475.668 4.099 4.399 4.749 5.179 5.649 6.129 6.579 6.989 7.399 7.889
1494.958 8.279 8.579 8.959 9.399 9.859 10.379 11.019 11.829 12.749 13.749
1514.248 14.899 16.089 17.509 19.229 21.289 23.789 26.949 30.889 35.899 42.139
1533.538 49.449 57.719 66.349 74.579 81.139 84.959 85.449 82.689 77.139 68.879
1552.827 58.959 48.959 40.259 33.019 27.539 23.789 21.149 19.389 18.229 17.369
1572.117 16.569 15.969 15.599 15.369 15.319 15.469 15.899 16.699 17.659 18.919
1591.407 20.409 22.049 23.639 24.919 25.899 26.439 26.369 25.459 23.899 21.919
1610.697 19.619 17.169 14.779 12.569 10.649 9.059 7.759 6.889 6.229 5.739
1629.986 5.419 5.079 4.869 4.679 4.479 4.309 4.159 3.999 3.849 3.799
1649.276 3.799 3.709 3.609 3.689 3.719 3.669 3.769 3.979 4.159 4.309
1668.566 4.489 4.779 5.159 5.499 5.919 6.489 7.259 8.209 9.379 10.979
1687.856 13.119 15.979 19.899 24.879 31.299 38.919 47.229 55.799 62.349 66.589
1707.146 68.369 67.519 63.509 56.769 48.779 40.999 34.049 28.269 23.669 20.019
1726.435 17.129 14.869 12.979 11.309 9.749 8.439 7.309 6.249 5.419 4.699
1745.725 4.119 3.729 3.449 3.129 2.819 2.679 2.539 2.389 2.279 2.189
1765.015 2.089 1.999 1.969 1.969 1.949 1.969 2.039 2.099 2.149 2.129
1784.305 2.099 2.149 2.149 2.099 2.179 2.229 2.229 2.279 2.289 2.229
1803.594 2.149 2.019 1.869 1.789 1.649 1.469 1.3571 1.3213 1.3305 1.3259
1822.884 1.3182 1.3164 1.3244 1.251 1.2025 1.2383 1.2139 1.1394 1.1101 1.122
1842.174 1.1083 1.0799 1.0862 1.0784 1.0759 1.0795 1.0776 1.0484 0.9954 1.0127
1861.464 0.9923 0.9643 1.0024 0.9657 0.9562 0.9748 0.9486 0.9112 0.8919 0.9382
1880.754 0.9968 0.9925 0.947 0.9917 1.057 1.0067 0.9877 1.0368 1.0901 1.1009
1900.043 1.0876 1.1016 1.1456 1.166 1.1751 1.2782 1.379 1.449 1.459 1.419
1919.333 1.479 1.529 1.499 1.429 1.3279 1.2685 1.273 1.2791 1.2566 1.2248
1938.623 1.1935 1.2532 1.1931 1.1397 1.1332 1.0551 1.0627 1.0751 1.0262 0.985
1957.913 0.9872 0.9199 0.8545 0.816 0.7701 0.7673 0.7504 0.7703 0.7369 0.6635
1977.202 0.6487 0.6569 0.6975 0.7021 0.6711 0.6493 0.6419 0.6012 0.6109 0.6916
1996.492 0.6752 0.6487 0.7223 0.7301 0.721 0.7131 0.6556 0.6674 0.6735 0.6377
2015.782 0.6213 0.6462 0.6531 0.6574 0.6765 0.6064 0.591 0.651 0.6567 0.5982
2035.072 0.5154 0.4776 0.4859 0.5124 0.5082 0.4939 0.4866 0.46197 0.4899 0.47021
2054.362 0.3495 0.3021 0.37712 0.40083 0.40909 0.46122 0.4852 0.471 0.43705 0.46179
2073.651 0.5179 0.5114 0.4858 0.4971 0.46387 0.42114 0.4761 0.5352 0.5121 0.5052
2092.941 0.5039 0.54 0.5261 0.46856 0.47646 0.5153 0.5076 0.45061 0.47671 0.4864
2112.231 0.523 0.5452 0.4938 0.4864 0.41874 0.44196 0.5208 0.5142 0.5383 0.5098
2131.521 0.46722 0.504 0.5229 0.46308 0.42124 0.42038 0.44531 0.5305 0.5861 0.5314
2150.810 0.46411 0.4724 0.45256 0.40473 0.40225 0.42867 0.45878 0.45673 0.46383 0.4942
2170.100 0.5203 0.5007 0.4932 0.5282 0.5012 0.42666 0.381343 0.41998 0.38168 0.3386
2189.390 0.43915 0.46521 0.39887 0.44426 0.5546 0.5173 0.4798 0.5267 0.5551 0.5963
2208.680 0.6185 0.569 0.5401 0.6199 0.67 0.6644 0.6867 0.7571 0.7576 0.7195
2227.970 0.6654 0.5602 0.522 0.5305 0.5404 0.5354 0.5555 0.5466 0.5237 0.5338
2247.259 0.495 0.44894 0.44084 0.44714 0.4954 0.5642 0.547 0.5374 0.5609 0.5148
2266.549 0.4821 0.5284 0.607 0.6035 0.5941 0.6241 0.6515 0.679 0.6814 0.7795
2285.839 0.8493 0.82 0.7924 0.8113 0.8491 0.7706 0.671 0.6701 0.6299 0.5766
2305.129 0.5708 0.5997 0.6069 0.6025 0.6183 0.5778 0.4938 0.5245 0.6234 0.5602
2324.418 0.4999 0.4839 0.4962 0.47157 0.42228 0.44188 0.4531 0.45993 0.43713 0.3642
2343.708 0.41438 0.4992 0.5093 0.4999 0.4731 0.4941 0.4897 0.4905 0.4845 0.40295
2362.998 0.44069 0.528 0.5616 0.5395 0.46374 0.5019 0.6273 0.6824 0.6622 0.7008
2382.288 0.7334 0.7501 0.8075 0.8613 0.8191 0.755 0.7525 0.7436 0.7699 0.7613
2401.578 0.7643 0.7911 0.8021 0.7466 0.6385 0.6088 0.579 0.5479 0.5921 0.6126
2420.867 0.6269 0.6326 0.5792 0.607 0.6294 0.6104 0.5649 0.6358 0.7491 0.7649
2440.157 0.7694 0.7824 0.8264 0.8122 0.845 0.8417 0.8085 0.8613 0.8973 0.8154
2459.447 0.7296 0.7266 0.6429 0.5922 0.5806 0.5461 0.544 0.5828 0.6728 0.6447
2478.737 0.6069 0.6042 0.502 0.43379 0.46477 0.54 0.5686 0.5512 0.5403 0.5618
2498.026 0.5156 0.45127 0.5081 0.5153 0.45464 0.45616 0.44797 0.45962 0.4838 0.43198
2517.316 0.41257 0.45498 0.40987 0.286 0.3477 0.46072 0.46353 0.5284 0.5261 0.46487
2536.606 0.41869 0.47533 0.5678 0.47772 0.44359 0.40817 0.3509 0.3413 0.3433 0.3643
2555.896 0.43688 0.4803 0.42826 0.381847 0.36935 0.3942 0.40609 0.40807 0.383735 0.44445
2575.186 0.5401 0.5186 0.44725 0.42162 0.42864 0.4987 0.5488 0.4922 0.5322 0.5664
2594.475 0.46502 0.45318 0.4724 0.5347 0.6445 0.5597 0.5094 0.5433 0.5503 0.535
2613.765 0.5491 0.5814 0.5259 0.5363 0.5381 0.5575 0.5372 0.5042 0.6209 0.6141
2633.055 0.5869 0.6239 0.5282 0.43563 0.4883 0.45562 0.47859 0.5631 0.5309 0.5253
2652.345 0.5128 0.45191 0.5199 0.6166 0.5948 0.6573 0.6837 0.742 0.6888 0.6582
2671.634 0.7947 0.8068 0.8268 0.8683 0.9261 0.9881 1.0442 1.066 1.0882 1.0807
2690.924 1.0544 1.0404 1.0058 1.0634 1.0748 1.0733 1.0569 1.038 1.0901 1.0952
2710.214 1.0514 0.9687 0.9189 0.8374 0.7442 0.8255 0.9391 0.8009 0.596 0.5762
2729.504 0.6187 0.658 0.6846 0.6737 0.5444 0.4981 0.5862 0.5662 0.5412 0.47715
2748.794 0.44254 0.5175 0.5066 0.5175 0.5578 0.5696 0.44001 0.40273 0.5031 0.5041
2768.083 0.5029 0.41381 0.45164 0.5544 0.5989 0.6453 0.6154 0.5764 0.5964 0.5414
2787.373 0.5091 0.5494 0.5752 0.6057 0.6484 0.5972 0.4851 0.5416 0.5583 0.5507
2806.663 0.6144 0.5983 0.592 0.672 0.7113 0.6386 0.6612 0.7849 0.828 0.7835
2825.953 0.7104 0.7958 0.8716 0.8009 0.7835 0.9121 1.0356 1.0749 1.0381 1.0338
2845.242 1.1136 1.1606 1.1095 1.1568 1.282 1.2823 1.2315 1.3504 1.479 1.409
2864.532 1.449 1.619 1.739 1.809 1.839 1.849 1.959 2.009 1.999 1.999
2883.822 1.899 1.789 1.779 1.819 1.749 1.559 1.469 1.479 1.409 1.2557
2903.112 1.1328 1.0432 1.0482 1.0653 1.0161 1.0663 0.9797 0.9141 1.0057 1.0102
2922.401 1.034 1.0834 1.1885 1.2584 1.1986 1.1504 1.2915 1.399 1.419 1.539
2941.691 1.689 1.829 2.009 2.169 2.249 2.319 2.329 2.369 2.299 2.159
2960.981 2.079 1.959 1.949 1.969 2.029 2.059 2.139 2.479 2.779 2.929
2980.271 2.939 2.859 2.759 2.479 2.089 1.789 1.519 1.2795 1.1241 0.9664
2999.561 0.897 0.9154 0.8875 0.904 0.7292 0.6239 0.7261 0.7354 0.6581 0.6442
3018.850 0.6558 0.5977 0.5773 0.5901 0.5895 0.6084 0.6713 0.8627 0.9421 0.9594
3038.140 0.9237 0.8424 0.9864 1.0891 1.1528 1.0842 0.9295 0.9769 1.156 1.2299
3057.430 1.309 1.362 1.429 1.529 1.609 1.929 2.209 2.409 2.459 2.459
3076.720 2.479 2.459 2.329 2.039 1.869 1.759 1.609 1.529 1.559 1.419
3096.009 1.2911 1.1323 0.9411 0.9617 0.9979 0.9478 0.8581 0.9648 1.0352 0.9899
3115.299 0.791 0.6106 0.5768 0.6138 0.6831 0.5667 0.43174 0.5202 0.42295 0.253
3134.589 0.38937 0.42773 0.39136 0.5326 0.6477 0.5548 0.408 0.3674 0.43618 0.42726
3153.879 0.3644 0.3665 0.4887 0.47719 0.41866 0.4623 0.44367 0.3549 0.2992 0.39092
3173.169 0.3246 0.3348 0.41865 0.3605 0.379837 0.4973 0.4856 0.253 0.209 0.3333
3192.458 0.382935 0.40381 0.3635 0.38966 0.37526 0.40659 0.5112 0.44869 0.3318 0.2954
3211.748 0.3479 0.2795 0.204 0.177 0.193 0.2831 0.267 0.242 0.2963 0.2795
3231.038 0.205 0.213 0.3253 0.3554 0.3202 0.3467 0.261 0.154 0.229 0.19
3250.328 0.096 0.217 0.259 0.2 0.267 0.3009 0.3002 0.3135 0.268 0.3113
3269.617 0.361 0.3281 0.213 0.166 0.37727 0.5161 0.2895 0.167 0.168 0.026
3288.907 0.049 0.231 0.3655 0.4783 0.388558 0.46 0.47516 0.24 0.239 0.264
3308.197 0.2855 0.39845 0.386221 0.2974 0.40285 0.3561 0.37472 0.3626 0.274 0.2907
3327.487 0.3366 0.47022 0.5265 0.43131 0.42214 0.46659 0.4889 0.5153 0.386467 0.26
3346.777 0.205 0.3607 0.41189 0.267 0.40996 0.6052 0.4855 0.39505 0.39023 0.3511
3366.066 0.4599 0.5288 0.5589 0.6352 0.8624 0.9259 0.8495 1.0877 1.2846 1.1697
3385.356 1.1121 1.2386 1.3413 1.429 1.519 1.529 1.519 1.529 1.439 1.389
3404.646 1.1674 1.0386 1.1966 1.041 0.6511 0.5582 0.6207 0.6025 0.6511 0.7001
3423.936 0.7144 0.6606 0.6346 0.5772 0.5476 0.6163 0.5619 0.517 0.5414 0.6365
3443.225 0.8197 0.7985 0.4845 0.3643 0.42976 0.47244 0.3559 0.336 0.3289 0.39686
3462.515 0.45032 0.379265 0.42227 0.3037 0.201 0.244 0.5065 0.5825 0.47142 0.35
3481.805 0.242 0.279 0.40919 0.388367 0.3509 0.3531 0.204 0.081 0.085 0.127
3501.095 0.112 0.184 0.312 0.2833 0.227 0.274 0.25 0.276 0.42958 0.4983
3520.385 0.378744 0.3394 0.3467 0.287 0.40185 0.5892 0.5669 0.42162 0.37568 0.3485
3539.674 0.45163 0.43607 0.3374 0.4515 0.44644 0.39865 0.40463 0.40295 0.40037 0.4921
3558.964 0.5216 0.4001 0.259 0.184 0.3601 0.46996 0.5215 0.6682 0.5348 0.44186
3578.254 0.4423 0.3669 0.172 0.233 0.3502 0.3308 0.45337 0.43184 0.41524 0.43899
3597.544 0.243 0.163 0.3613 0.3938 0.3466 0.41262 0.2971 0.3066 0.6264 0.5916
3616.833 0.364 0.268 0.262 0.263 0.40199 0.44239 0.2854 0.2994 0.3287 0.3196
3636.123 0.40979 0.45368 0.45128 0.46407 0.5163 0.5116 0.3381 0.3403 0.45756 0.3654
3655.413 0.222 0.256 0.2967 0.221 0.165 0.3564 0.487 0.312 0.194 0.181
3674.703 0.241 0.3167 0.380966 0.39073 0.3629 0.37559 0.278 0.252 0.3133 0.40945
3693.993 0.3647 0.23 0.251 0.3015 0.43292 0.523 0.46204 0.4835 0.3684 0.165
3713.282 0.256 0.44325 0.6124 0.5975 0.39634 0.43177 0.44745 0.4277 0.3558 0.42234
3732.572 0.531 0.4955 0.42569 0.41043 0.483 0.382221 0.5107 0.6566 0.5803 0.43137
3751.862 0.40051 0.43171 0.47432 0.3392 0.202 0.4014 0.39584 0.206 0.132 0.3552
3771.152 0.45457 0.2876 0.13 0.167 0.4674 0.43344 0.3008 0.40448 0.5084 0.5988
3790.441 0.5711 0.3185 0.3017 0.3448 0.3424 0.42359 0.3557 0.277 0.263 0.281
3809.731 0.173 0.181 0.3227 0.21 0.164 0.42275 0.5672 0.507 0.46771 0.3006
3829.021 0.241 0.3672 0.272 0.157 0.3516 0.4997 0.3425 0.271 0.269 0.269
3848.311 0.3657 0.4012 0.3622 0.3667 0.3045 0.244 0.3229 0.196 0.149 0.3445
3867.601 0.39016 0.386899 0.3458 0.384003 0.3493 0.3437 0.39108 0.3357 0.3645 0.39979
3886.890 0.4854 0.4639 0.251 0.192 0.3167 0.382023 0.27 0.312 0.41704 0.40785
3906.180 0.3176 0.144 0.231 0.255 0.265 0.2883 0.278 0.21 0.189 0.266
3925.470 0.2934 0.278 0.179 0.25 0.40698 0.3428 0.2877 0.41231 0.5506 0.47678
3944.760 0.246 0.252 0.145 0.069 0.383966 0.46804 0.381053 0.43924 0.44856 0.4893
3964.049 0.43674 0.18 0.115 0.243 0.144 0 0.108 0.174 0.2842 0.3766
3983.339 0.3434 0.167 0.063 0.2922 0.3315 0.3044 0.279 0.217 0.37184 0.5138
##END=
