##TITLE=.alpha.-Phellandrene
##JCAMP-DX=4.24
##DATA TYPE=INFRARED SPECTRUM
##ORIGIN=NIST Mass Spectrometry Data Center
##OWNER=NIST Standard Reference Data Program
Collection (C) 2018 copyright by the U.S. Secretary of Commerce
on behalf of the United States of America. All rights reserved.
##CAS REGISTRY NO=99-83-2
##MOLFORM=C 10 H 16
##$NIST SOURCE=MSDC-IR
##SPECTROMETER/DATA SYSTEM=HP-GC/MS/IRD
##STATE=gas
##XUNITS=1/CM
##YUNITS=ABSORBANCE
##XFACTOR=1.0
##YFACTOR=0.000001500
##DELTAX=4.0
##FIRSTX=550.0
##LASTX=3846.0
##FIRSTY=0.000612
##MAXX=3846
##MINX=550
##MAXY=0.015
##MINY=0
##NPOINTS=825
##XYDATA=(X++(Y..Y))
550.0 408 398 271 317 336 433 468 475 449 376
590.0 293 249 211 154 113 77 54 74 81 61
630.0 96 97 72 94 161 177 146 140 177 225
670.0 226 226 257 262 233 256 332 415 513 569
710.0 624 716 863 1043 1198 1262 1245 1180 1072 889
750.0 732 583 471 444 440 485 573 680 853 1045
790.0 1205 1259 1136 914 704 531 342 172 94 105
830.0 92 76 73 60 53 57 60 42 45 60
870.0 39 6 15 43 41 40 63 88 97 111
910.0 175 258 315 376 433 450 429 411 405 389
950.0 370 348 304 243 193 159 107 71 91 125
990.0 141 145 154 166 179 156 142 152 157 157
1030.0 144 149 162 121 103 125 134 165 170 193
1070.0 225 267 294 284 314 341 340 335 324 289
1110.0 241 197 202 265 310 371 441 473 503 581
1150.0 669 749 875 984 1025 994 872 703 587 511
1190.0 470 459 456 464 488 495 473 452 427 397
1230.0 360 314 282 279 267 271 275 253 251 258
1270.0 248 231 231 251 279 298 309 331 340 349
1310.0 366 388 415 429 428 413 407 408 430 456
1350.0 504 595 701 832 982 1143 1305 1454 1547 1532
1390.0 1439 1261 1010 752 574 492 462 465 512 587
1430.0 679 776 877 982 1079 1175 1275 1394 1463 1437
1470.0 1342 1189 968 752 579 424 308 237 192 171
1510.0 145 128 132 139 125 108 106 112 114 106
1550.0 107 116 134 140 142 158 176 195 216 235
1590.0 237 239 242 213 170 153 153 144 121 110
1630.0 110 129 167 203 270 353 406 415 406 377
1670.0 334 287 249 240 212 187 186 189 183 156
1710.0 143 137 130 130 130 139 138 130 119 99
1750.0 90 92 89 78 67 72 73 55 43 45
1790.0 43 41 48 43 44 56 51 45 51 48
1830.0 36 33 41 48 47 51 54 58 64 58
1870.0 51 60 63 54 60 62 54 54 50 53
1910.0 44 43 41 22 26 23 8 9 15 23
1950.0 23 19 27 29 17 17 23 17 18 23
1990.0 10 19 25 14 9 10 8 10 14 3
2030.0 4 9 10 24 32 25 24 15 5 3
2070.0 15 18 18 25 19 24 30 21 22 16
2110.0 12 8 9 26 16 0 3 13 18 16
2150.0 5 13 19 10 3 3 5 16 22 18
2190.0 23 22 21 23 8 11 22 23 30 30
2230.0 22 10 2 10 23 24 31 29 7 10
2270.0 18 24 27 22 27 35 27 25 39 46
2310.0 41 28 24 29 27 44 65 70 65 50
2350.0 39 49 63 60 43 44 49 49 47 29
2390.0 41 50 40 39 33 22 33 38 24 40
2430.0 50 51 59 45 37 51 54 37 37 55
2470.0 47 34 39 51 63 50 41 43 54 58
2510.0 62 52 36 45 43 47 48 43 57 55
2550.0 69 77 73 69 57 55 65 73 73 69
2590.0 65 64 75 81 75 71 80 84 102 112
2630.0 90 94 108 110 97 92 96 97 99 101
2670.0 100 87 79 85 76 65 72 86 92 96
2710.0 103 102 125 141 156 186 205 238 264 263
2750.0 244 229 230 232 222 222 233 257 312 355
2790.0 408 486 609 792 1029 1306 1586 1871 2072 2163
2830.0 2200 2191 2137 2062 1987 2013 2165 2436 2923 3588
2870.0 4363 5130 5747 6131 6204 5997 5628 5155 4701 4374
2910.0 4237 4336 4751 5331 5828 6246 6544 6622 6643 6765
2950.0 7073 7749 8778 9688 10000 9623 8472 6810 5210 3870
2990.0 2827 2138 1778 1648 1711 1988 2383 2847 3326 3715
3030.0 3854 3749 3415 2903 2340 1805 1362 1037 832 725
3070.0 655 591 552 518 470 431 417 375 312 285
3110.0 257 228 204 191 216 218 190 191 199 192
3150.0 197 189 180 175 175 173 176 165 141 160
3190.0 157 117 136 155 133 112 89 82 70 40
3230.0 58 68 35 35 41 50 49 38 45 62
3270.0 61 25 36 79 89 86 38 11 33 37
3310.0 32 28 54 63 41 50 68 57 25 11
3350.0 20 26 28 37 44 60 83 75 66 63
3390.0 34 38 69 72 50 45 38 27 41 67
3430.0 71 58 20 7 61 69 56 73 43 39
3470.0 64 59 72 91 91 95 105 100 93 101
3510.0 94 97 104 73 48 59 91 90 94 101
3550.0 101 84 74 72 75 104 114 104 112 131
3590.0 130 139 166 132 92 100 81 89 111 86
3630.0 99 99 89 90 74 72 83 70 71 82
3670.0 106 86 76 90 52 42 80 109 106 95
3710.0 106 106 106 89 98 138 141 135 101 91
3750.0 118 86 63 85 108 95 79 70 89 117
3790.0 116 99 101 134 136 119 128 146 135 110
3830.0 83 114 143 111 103
##END=
