##TITLE=3,4,4,-Trimethyl-1-pentyn-3-ol
##JCAMP-DX=4.24
##DATA TYPE=INFRARED SPECTRUM
##ORIGIN=NIST Mass Spectrometry Data Center
##OWNER=NIST Standard Reference Data Program
Collection (C) 2018 copyright by the U.S. Secretary of Commerce
on behalf of the United States of America. All rights reserved.
##CAS REGISTRY NO=993-53-3
##MOLFORM=C 8 H 14 O
##$NIST SOURCE=MSDC-IR
##SPECTROMETER/DATA SYSTEM=HP-GC/MS/IRD
##STATE=gas
##XUNITS=1/CM
##YUNITS=ABSORBANCE
##XFACTOR=1.0
##YFACTOR=0.000002100
##DELTAX=4.0
##FIRSTX=550.0
##LASTX=3846.0
##FIRSTY=0.001157
##MAXX=3846
##MINX=550
##MAXY=0.021
##MINY=0
##NPOINTS=825
##XYDATA=(X++(Y..Y))
550.0 551 670 797 920 937 881 793 657 562 455
590.0 375 349 302 363 524 857 1354 2020 2701 3882
630.0 4960 5130 5604 5595 4823 4631 4523 3434 2488 1874
670.0 1269 764 441 282 209 133 103 96 71 63
710.0 69 53 51 51 43 55 51 22 0 18
750.0 50 71 74 85 94 82 62 49 56 89
790.0 120 139 190 238 225 194 190 178 136 118
830.0 111 99 96 93 93 126 149 155 209 273
870.0 354 484 646 797 963 1134 1263 1394 1554 1741
910.0 1916 2110 2288 2301 2095 1804 1486 1141 840 606
950.0 442 358 324 292 273 296 338 390 471 604
990.0 770 951 1126 1277 1354 1285 1135 1002 875 755
1030.0 674 654 685 745 832 959 1169 1420 1692 1988
1070.0 2285 2588 2906 3204 3457 3676 3863 4007 4090 4093
1110.0 4011 3814 3554 3279 3019 2833 2716 2621 2566 2512
1150.0 2381 2231 2042 1829 1655 1485 1354 1280 1222 1166
1190.0 1147 1160 1177 1200 1237 1270 1286 1278 1258 1247
1230.0 1266 1317 1455 1694 1971 2228 2292 2168 2082 1948
1270.0 1701 1521 1464 1465 1468 1531 1696 1896 2046 2193
1310.0 2355 2435 2408 2296 2123 1909 1686 1496 1354 1274
1350.0 1318 1534 1900 2335 2822 3255 3470 3350 2917 2489
1390.0 2077 1698 1465 1282 1103 944 761 586 490 469
1430.0 495 547 623 718 822 933 1063 1191 1253 1311
1470.0 1390 1391 1336 1264 1142 976 808 633 472 352
1510.0 259 210 185 162 142 128 127 127 111 94
1550.0 89 89 85 74 70 67 62 48 38 38
1590.0 35 29 28 32 36 32 31 33 29 32
1630.0 38 53 46 33 30 43 44 29 27 26
1670.0 22 25 22 20 16 8 11 17 17 9
1710.0 1 14 22 11 9 10 17 20 7 1
1750.0 9 15 9 6 11 19 18 11 12 9
1790.0 6 8 7 3 0 7 11 11 6 4
1830.0 11 15 19 26 23 17 9 2 0 8
1870.0 12 4 12 19 18 18 14 6 7 7
1910.0 3 5 7 13 13 11 13 14 13 15
1950.0 17 17 18 12 6 2 7 14 13 10
1990.0 10 12 19 24 23 25 30 26 28 30
2030.0 28 36 35 23 12 8 3 3 5 6
2070.0 9 4 6 10 10 15 14 19 30 30
2110.0 28 22 22 24 18 7 7 22 21 4
2150.0 5 18 19 9 10 20 17 19 25 18
2190.0 14 21 20 12 3 6 12 18 25 22
2230.0 18 20 22 23 23 25 29 29 27 28
2270.0 23 27 31 33 34 36 38 34 36 39
2310.0 34 24 31 31 24 25 23 35 41 36
2350.0 34 44 56 53 48 56 58 53 45 46
2390.0 46 45 52 49 49 53 48 47 50 49
2430.0 40 44 46 39 33 34 46 42 34 40
2470.0 52 51 37 42 43 32 30 31 29 27
2510.0 29 31 37 45 32 20 37 50 44 30
2550.0 25 34 44 54 61 61 51 54 59 60
2590.0 71 73 73 78 79 79 77 76 67 54
2630.0 53 60 58 46 46 52 65 73 83 98
2670.0 105 98 89 103 110 103 110 109 99 105
2710.0 114 109 117 129 137 157 152 150 147 137
2750.0 131 129 144 141 130 133 142 146 155 166
2790.0 183 200 195 203 237 255 250 271 305 327
2830.0 335 354 388 415 444 502 594 701 901 1185
2870.0 1515 1897 2267 2558 2716 2749 2715 2679 2675 2711
2910.0 2811 2941 3044 3150 3258 3374 3540 3775 4097 4539
2950.0 5117 5828 6692 7706 8790 9645 10000 9928 9337 8261
2990.0 7010 5740 4596 3709 2980 2277 1683 1255 931 706
3030.0 553 455 404 369 335 310 297 280 267 244
3070.0 208 182 169 177 183 172 152 144 148 144
3110.0 144 145 154 147 154 164 158 153 136 136
3150.0 154 152 145 151 169 178 177 183 172 168
3190.0 161 158 168 150 138 154 166 161 149 150
3230.0 142 148 168 153 138 152 168 195 224 235
3270.0 275 347 427 537 675 868 1090 1284 1602 1967
3310.0 2498 3104 3277 3713 3631 2950 2555 1736 942 568
3350.0 398 290 214 184 154 117 107 93 78 88
3390.0 98 81 80 82 72 67 75 66 46 43
3430.0 57 67 55 52 70 68 50 54 71 82
3470.0 77 69 66 61 71 76 58 53 64 75
3510.0 68 77 82 59 48 50 37 7 20 29
3550.0 5 4 20 35 37 33 26 20 23 47
3590.0 53 41 52 68 78 97 120 181 278 435
3630.0 668 954 1184 1424 1656 1463 1163 967 659 393
3670.0 248 154 90 72 79 80 52 27 27 22
3710.0 24 21 22 24 31 56 56 34 46 60
3750.0 43 23 33 38 48 40 40 60 58 47
3790.0 46 55 66 82 79 61 56 87 84 39
3830.0 35 49 49 50 37
##END=
