##TITLE=5-Methyl-1-hepten-4-ol
##JCAMP-DX=4.24
##DATA TYPE=INFRARED SPECTRUM
##ORIGIN=NIST Mass Spectrometry Data Center
##OWNER=NIST Standard Reference Data Program
Collection (C) 2018 copyright by the U.S. Secretary of Commerce
on behalf of the United States of America. All rights reserved.
##CAS REGISTRY NO=99328-46-8
##MOLFORM=C 8 H 16 O
##$NIST SOURCE=MSDC-IR
##SPECTROMETER/DATA SYSTEM=HP-GC/MS/IRD
##STATE=gas
##XUNITS=1/CM
##YUNITS=ABSORBANCE
##XFACTOR=1.0
##YFACTOR=0.000002800
##DELTAX=4.0
##FIRSTX=550.0
##LASTX=3846.0
##FIRSTY=0.000140
##MAXX=3846
##MINX=550
##MAXY=0.028
##MINY=0
##NPOINTS=825
##XYDATA=(X++(Y..Y))
550.0 50 10 2 17 7 28 47 37 35 56
590.0 111 147 179 223 266 292 311 321 337 347
630.0 350 343 334 338 308 273 265 234 194 165
670.0 126 104 106 112 109 94 103 111 101 90
710.0 75 62 55 49 43 51 53 67 79 78
750.0 90 93 112 149 175 195 233 256 254 247
790.0 224 197 197 191 189 195 188 198 214 230
830.0 276 342 421 502 596 686 758 802 812 794
870.0 761 709 665 656 683 767 914 1138 1465 1869
910.0 2278 2598 2708 2591 2285 1915 1588 1369 1249 1211
950.0 1252 1324 1422 1543 1670 1832 2046 2324 2668 3027
990.0 3345 3575 3688 3668 3567 3411 3235 3081 2919 2773
1030.0 2625 2470 2319 2168 2020 1875 1732 1593 1463 1356
1070.0 1276 1213 1159 1136 1125 1110 1103 1105 1120 1117
1110.0 1119 1131 1137 1151 1157 1160 1162 1141 1104 1049
1150.0 990 930 864 815 778 743 705 694 707 744
1190.0 794 863 934 1001 1072 1138 1179 1209 1227 1233
1230.0 1228 1215 1199 1191 1183 1182 1186 1194 1191 1177
1270.0 1159 1136 1103 1064 1029 990 961 931 894 862
1310.0 837 818 801 794 794 791 789 803 843 895
1350.0 952 1029 1115 1220 1369 1535 1707 1871 1995 2020
1390.0 1922 1729 1480 1253 1081 970 912 894 915 962
1430.0 1024 1092 1167 1253 1328 1417 1515 1601 1656 1640
1470.0 1523 1314 1090 863 661 503 397 326 272 224
1510.0 196 184 164 149 149 150 144 128 117 120
1550.0 122 111 100 109 119 118 108 102 104 108
1590.0 117 122 128 142 171 204 245 315 432 604
1630.0 817 1007 1108 1099 980 746 467 293 199 147
1670.0 113 92 78 56 48 51 41 29 28 30
1710.0 26 13 8 15 19 11 6 12 17 12
1750.0 7 8 10 10 8 6 6 11 14 19
1790.0 19 20 27 29 40 60 85 110 146 194
1830.0 236 267 276 255 218 184 144 107 82 58
1870.0 45 38 28 28 27 24 25 24 21 23
1910.0 24 22 9 8 9 8 8 7 8 10
1950.0 10 12 14 16 18 24 29 30 29 26
1990.0 24 21 18 13 14 10 6 6 7 9
2030.0 12 9 7 5 2 8 8 6 7 8
2070.0 6 7 9 10 9 10 8 5 3 4
2110.0 6 5 8 12 6 1 5 8 13 17
2150.0 12 9 11 8 4 8 10 5 9 13
2190.0 10 6 6 9 13 13 11 10 17 22
2230.0 17 13 10 12 17 17 17 19 20 15
2270.0 15 22 28 26 23 23 26 26 18 14
2310.0 22 30 30 31 34 40 44 52 55 46
2350.0 40 48 59 63 58 52 49 45 38 34
2390.0 37 42 43 42 43 40 39 42 40 39
2430.0 41 41 38 34 39 38 37 34 29 31
2470.0 30 25 27 34 34 29 29 37 41 40
2510.0 38 36 35 42 45 48 49 50 50 57
2550.0 64 68 73 81 81 83 90 94 101 108
2590.0 110 113 118 119 124 124 122 127 128 130
2630.0 133 135 139 139 142 145 143 149 157 163
2670.0 171 174 181 189 198 198 198 204 212 216
2710.0 219 225 233 247 263 273 281 291 301 306
2750.0 304 300 300 307 309 313 322 330 339 359
2790.0 388 418 435 454 487 531 584 643 722 812
2830.0 910 1025 1175 1350 1550 1802 2119 2508 2960 3493
2870.0 4087 4712 5319 5783 6023 6045 5884 5640 5444 5409
2910.0 5522 5737 6037 6374 6702 6998 7224 7329 7281 7135
2950.0 7019 7138 7673 8561 9491 10000 9819 8951 7562 6028
2990.0 4668 3620 2885 2383 2045 1798 1579 1377 1205 1051
3030.0 938 851 791 759 751 766 791 835 901 1005
3070.0 1172 1405 1682 1872 1892 1749 1467 1079 745 543
3110.0 418 359 333 304 282 271 252 231 224 222
3150.0 213 201 193 182 173 168 153 145 139 118
3190.0 104 101 99 90 81 73 65 52 50 41
3230.0 34 37 33 24 24 24 28 41 40 38
3270.0 33 28 28 31 29 21 21 31 30 21
3310.0 22 25 17 17 20 17 19 14 11 19
3350.0 20 20 15 8 6 11 18 17 16 23
3390.0 27 24 20 23 24 25 28 28 28 25
3430.0 15 14 13 16 26 31 20 22 27 25
3470.0 23 17 14 16 3 3 15 14 10 13
3510.0 18 14 14 15 10 8 20 18 14 23
3550.0 33 31 25 26 20 24 47 63 68 69
3590.0 89 126 170 223 302 406 509 588 644 671
3630.0 665 656 669 702 720 724 716 674 597 496
3670.0 382 287 213 163 117 79 66 54 50 38
3710.0 24 29 22 13 6 0 0 0 0 0
3750.0 0 0 0 0 0 0 0 0 0 0
3790.0 0 0 0 0 0 0 1 0 0 0
3830.0 0 0 0 8 15
##END=
