##TITLE=1-(2,4-Dimethylphenyl)ethanol
##JCAMP-DX=4.24
##DATA TYPE=INFRARED SPECTRUM
##ORIGIN=NIST Mass Spectrometry Data Center
##OWNER=NIST Standard Reference Data Program
Collection (C) 2018 copyright by the U.S. Secretary of Commerce
on behalf of the United States of America. All rights reserved.
##CAS REGISTRY NO=99500-87-5
##MOLFORM=C 10 H 14 O
##$NIST SOURCE=MSDC-IR
##SPECTROMETER/DATA SYSTEM=HP-GC/MS/IRD
##STATE=gas
##XUNITS=1/CM
##YUNITS=ABSORBANCE
##XFACTOR=1.0
##YFACTOR=0.000001100
##DELTAX=4.0
##FIRSTX=550.0
##LASTX=3846.0
##FIRSTY=0.000716
##MAXX=3846
##MINX=550
##MAXY=0.011
##MINY=0
##NPOINTS=825
##XYDATA=(X++(Y..Y))
550.0 651 588 593 832 1181 1362 1342 1163 953 799
590.0 546 340 258 261 271 211 149 62 19 26
630.0 92 118 7 30 83 54 34 31 44 43
670.0 35 92 99 82 101 71 139 261 292 290
710.0 357 388 350 310 352 421 398 407 424 419
750.0 366 254 211 252 275 260 237 226 283 391
790.0 520 732 1119 1737 2560 3487 4413 4925 4276 3174
830.0 2305 1584 989 623 560 570 591 751 1012 1332
870.0 1713 2039 2395 2806 3051 2966 2602 2133 1674 1303
910.0 1092 1077 1146 1289 1436 1496 1440 1249 1034 890
950.0 832 847 915 907 931 1062 1216 1390 1649 2049
990.0 2507 2950 3338 3601 3638 3384 2957 2535 2219 2042
1030.0 2019 2091 2260 2549 2956 3526 4233 5086 6035 6953
1070.0 7759 8204 8046 7337 6294 5114 4006 3103 2482 2161
1110.0 2016 2049 2159 2166 2081 1982 1834 1609 1372 1228
1150.0 1167 1163 1217 1300 1370 1431 1454 1478 1520 1493
1190.0 1480 1466 1433 1463 1510 1522 1584 1662 1766 1978
1230.0 2257 2564 2883 3202 3532 3780 3842 3745 3512 3147
1270.0 2806 2622 2563 2524 2489 2372 2162 1941 1781 1667
1310.0 1605 1640 1711 1816 1976 2123 2322 2581 2861 3145
1350.0 3415 3587 3662 3708 3776 3957 4145 4127 3904 3535
1390.0 3048 2561 2203 2018 1956 1924 1913 1967 1996 1998
1430.0 2047 2130 2233 2314 2435 2534 2621 2617 2493 2357
1470.0 2184 2060 2020 2072 2288 2618 2932 3102 3064 2856
1510.0 2477 2053 1757 1542 1368 1242 1135 1082 1034 934
1550.0 860 836 872 863 820 797 793 792 774 756
1590.0 763 875 1071 1361 1713 2003 2115 1991 1699 1310
1630.0 935 681 525 414 338 297 256 207 157 128
1670.0 146 165 166 198 203 178 203 227 201 156
1710.0 114 120 167 172 166 222 307 304 265 265
1750.0 269 254 219 193 190 171 158 145 155 134
1790.0 101 121 103 84 94 95 113 160 176 160
1830.0 129 93 63 70 99 99 93 116 144 172
1870.0 194 198 230 272 302 325 331 319 286 254
1910.0 221 199 182 163 139 111 89 90 98 88
1950.0 80 97 101 87 103 103 74 61 76 77
1990.0 68 61 75 81 43 15 7 1 8 24
2030.0 29 25 33 50 56 44 33 39 55 60
2070.0 63 73 66 47 51 68 69 64 57 39
2110.0 47 60 53 52 45 28 13 21 14 15
2150.0 35 40 41 44 43 48 48 45 49 41
2190.0 31 33 48 51 37 7 0 19 36 38
2230.0 13 16 34 54 76 68 47 51 76 70
2270.0 63 83 83 56 53 75 84 86 89 87
2310.0 81 98 105 93 82 69 81 89 84 70
2350.0 83 118 146 136 109 91 57 67 105 109
2390.0 98 97 111 126 107 99 117 120 120 126
2430.0 124 118 118 116 105 111 118 124 133 131
2470.0 136 146 146 134 134 144 150 154 151 145
2510.0 140 129 116 132 135 119 106 101 106 138
2550.0 134 104 93 94 105 118 125 115 134 137
2590.0 126 132 158 161 162 177 171 176 198 202
2630.0 182 167 178 178 146 139 151 156 194 227
2670.0 192 175 203 211 208 215 227 238 272 260
2710.0 221 257 296 304 331 375 435 486 508 523
2750.0 490 419 412 382 344 361 391 403 423 439
2790.0 417 471 505 510 547 633 711 733 762 840
2830.0 920 1005 1117 1255 1454 1698 2007 2441 2940 3534
2870.0 4104 4516 4821 4977 5029 5085 5163 5297 5465 5653
2910.0 5927 6426 7141 8042 8995 9667 9883 9544 8715 7656
2950.0 6659 5997 5752 5905 6458 7456 8668 9625 10000 9656
2990.0 8702 7434 6434 5978 5872 5903 5936 5849 5628 5281
3030.0 4874 4470 4066 3726 3415 3097 2795 2531 2306 2141
3070.0 2008 1843 1669 1484 1346 1264 1130 1011 948 877
3110.0 831 776 719 662 585 526 475 433 385 327
3150.0 299 309 269 231 250 228 208 211 202 217
3190.0 217 180 149 145 159 203 238 192 115 108
3230.0 140 150 147 120 61 45 30 32 69 77
3270.0 75 100 104 76 78 61 42 44 57 61
3310.0 81 119 121 88 64 66 74 59 82 103
3350.0 71 73 105 91 49 57 106 112 90 101
3390.0 103 97 81 82 110 97 105 127 128 147
3430.0 144 108 96 115 107 119 159 163 146 117
3470.0 99 91 73 70 48 46 61 42 60 97
3510.0 58 51 58 47 75 50 1 43 73 53
3550.0 41 52 49 56 45 42 104 124 119 145
3590.0 150 131 102 84 107 150 212 267 365 592
3630.0 868 1126 1457 1850 2126 2068 1773 1422 1043 695
3670.0 464 336 256 192 193 187 161 88 36 54
3710.0 80 126 152 149 143 134 151 89 67 135
3750.0 186 175 108 77 91 85 94 113 84 107
3790.0 145 113 80 103 116 109 88 91 113 92
3830.0 59 99 128 111 75
##END=
