##TITLE=1-(Thien-2-yl)but-1-en-3-one
##JCAMP-DX=4.24
##DATA TYPE=INFRARED SPECTRUM
##ORIGIN=EPA-IR VAPOR PHASE LIBRARY
##OWNER=SRD/NIST
Collection (C) 2018 copyright by the U.S. Secretary of Commerce
on behalf of the United States of America. All rights reserved.
##CAS REGISTRY NO=99768-07-7
##MOLFORM=C 8 H 8 O S
##$NIST SOURCE=MSDC-IR
##STATE=gas
##XUNITS=1/CM
##YUNITS=ABSORBANCE
##XFACTOR=1.
##YFACTOR=0.001
##DELTAX=1.92898
##FIRSTX=549.8
##LASTX=4000.7
##FIRSTY=20.93
##MAXX=4000.7
##MINX=549.759
##MAXY=0.10287
##MINY=0
##NPOINTS=1790
##XYDATA=(X++(Y..Y))
549.759 20.93 23.61 23.87 22.4 22.22 21.27 19.23 16.01 12.33 9.45
569.049 6.45 4.4 4.55 3.7 2.97 4.12 4.24 3.68 3.93 4.46
588.339 4.01 3.93 4.01 3.33 3.25 3.26 3.08 3.13 3.19 3.18
607.628 3.04 3.36 3.98 3.9 3.28 3.58 4.28 4.37 3.93 3.26
626.918 3.01 2.91 2.93 2.78 2.73 2.74 2.47 2.76 3.06 2.94
646.208 2.8 2.8 2.61 2.39 2.55 2.55 3.07 3.62 3.88 4.39
665.498 4.82 4.82 5.07 5.79 6.63 7.72 8.9 11.32 14.54 17.53
684.787 21.21 25.58 29.3 32.37 35.71 40.15 47.79 55.19 51.75 42.07
704.077 37.31 35.19 32.17 28.71 24.72 19.9 16.06 13.02 10.06 7.9
723.367 6.6 5.75 4.8 4.06 3.77 3.77 4.24 4.41 4.89 5.42
742.657 5.27 5.18 4.63 4.2 4.48 4.63 4.45 4.09 4.16 4.23
761.947 3.9 3.43 3.46 3.58 3.14 2.88 3 3.24 2.93 3.07
781.236 3.48 3.4 3.58 3.59 4.14 5.2 5.53 6.24 6.72 6.8
800.526 7.1 7.41 8.42 9.22 9.59 9.99 9.85 9.38 8.96 9.27
819.816 9.79 8.57 6.96 6.41 6.02 5.98 5.97 5.74 5.86 6.4
839.106 6.35 6.65 7.67 8.18 9.54 10.93 11.94 12.78 12.92 12.74
858.395 12.33 11.75 10.88 9.6 7.77 6.4 5.4 4.68 4.59 4.54
877.685 4.28 4.29 4.22 4.27 4.4 4.57 4.7 4.61 5.16 5.07
896.975 5.11 5.88 6.08 6.05 5.72 5.34 5.18 5.1 4.88 5.09
916.265 5.83 6.32 6.23 5.98 6.16 6.49 6.59 6.25 6.13 6.83
935.555 7.15 7.52 8.47 9.39 10.59 12.5 14.79 16.69 18.99 21.76
954.844 24.47 26.77 28.64 30.15 31.21 31.38 30.19 28.38 26.38 24.06
974.134 21.14 18.43 16.83 15.17 13.29 11.87 11 10.18 9.72 9.35
993.424 9.1 9.54 9.52 9.16 9.09 8.66 8.01 7.57 6.86 6.16
1012.714 6.17 6.31 6.1 5.91 5.86 5.76 5.08 5.86 7.17 7.78
1032.003 8.78 9.52 9.96 11.19 12.49 12.76 12.98 12.64 12.22 11.33
1051.293 9.85 8.66 7.23 6.45 5.71 5.41 5.56 5.82 5.64 4.51
1070.583 3.88 3.52 3.73 4.31 5.29 5.76 6.13 6.57 5.76 5.56
1089.873 5.62 4.33 4.02 4.67 4.36 5.34 5.39 5.45 7.27 7.65
1109.163 7.52 7.13 6 6.11 5.86 5.48 8.01 9.31 9.82 10.86
1128.452 10.1 10.18 11.98 12.39 12.97 14.49 15.4 16.22 16.07 17.03
1147.742 18.78 19.81 21.29 23.29 25.9 29.83 33.64 36.56 38.77 39.86
1167.032 39.51 38.26 37.14 34.24 30.38 26.86 24.43 22.79 21.3 21.91
1186.322 22.92 24.24 27.88 31.24 33.61 35.6 36.08 36.04 36.15 35.28
1205.611 32.52 30.41 28.57 26.39 25.8 26.02 24.97 23.57 23.78 24.22
1224.901 25.43 26.29 27.11 29.58 32.44 36.54 42.42 47.7 52.34 56.94
1244.191 59.8 60.36 59.57 57.99 54.23 47.92 40.42 33.32 28.08 24.88
1263.481 23.06 21.74 21.28 21.91 22.77 23.6 23.86 23.45 23.17 23.23
1282.771 23.36 22.68 21.38 20.4 19.95 20.17 21.12 21.6 21.96 22.05
1302.060 21.21 20.14 18.47 16.14 13.8 11.72 9.89 8.57 7.63 6.93
1321.350 6.54 6.41 6.42 6.42 6.52 6.86 7.22 7.54 8.27 9.25
1340.640 10.13 11.14 12.79 14.95 17.53 20.67 24.04 27.43 30.63 33.28
1359.930 35.41 36.68 36.78 35.8 33.89 31.39 28.44 25.29 22.05 19.09
1379.219 16.78 15.3 14.15 13.19 12.84 12.72 12.66 12.36 11.83 11.47
1398.509 11.1 10.58 10.09 9.89 10.01 10 9.81 10.24 10.81 11.07
1417.799 11.38 11.72 11.93 11.72 11.52 11.31 10.81 10.28 9.66 9.09
1437.089 8.4 7.72 7.23 6.74 6.35 6.1 5.85 5.38 4.89 4.77
1456.378 4.87 4.74 4.45 4.3 4.13 3.91 3.95 4.02 3.85 3.63
1475.668 3.67 3.74 3.66 3.64 3.88 3.97 4.06 4.24 4.24 4.31
1494.958 4.33 4.53 5.06 5.3 5.6 6.02 6.23 6.75 7.21 7.56
1514.248 8.02 8.26 8.15 7.85 7.5 7.34 6.84 6.1 5.62 5.43
1533.538 5.28 5.28 5.48 5.39 5.36 5.49 5.38 5.29 5.47 5.56
1552.827 5.47 5.52 5.66 5.84 6.16 6.38 6.77 7.47 7.8 8.37
1572.117 9.2 10.36 11.94 13.5 15.33 17.78 20.51 23.79 28.21 33.7
1591.407 39.97 47.32 56.31 66.42 76.77 86.39 94.16 99.66 102.76 102.87
1610.697 99.88 93.97 85.19 74.47 64.43 55.53 47.57 40.52 34.19 28.68
1629.986 24.03 20.3 17.29 15.27 13.94 13.06 12.74 12.61 12.28 11.94
1649.276 11.91 12.12 12.27 12.52 12.93 13.23 13.67 14.34 15.16 16.48
1668.566 18.08 20.13 23 26.51 30.94 36.42 42.83 49.21 55.47 61.01
1687.856 65.12 68.2 70.21 70.79 69.8 67.55 64.81 62.09 59.61 56.92
1707.146 54.09 51.11 48.22 45.21 41.52 36.84 31.65 27.12 23.46 20.36
1726.435 17.52 15.23 13.4 11.98 10.92 10.03 9.37 8.8 8.28 7.79
1745.725 7.38 6.77 6.43 6.2 5.8 5.43 4.91 4.68 4.53 4.27
1765.015 4.22 4.34 4.33 4.42 4.55 4.51 4.78 5.1 5.24 5.44
1784.305 5.78 6.05 6.14 6.19 6.14 5.94 5.65 5.44 5.05 4.67
1803.594 4.38 4.05 3.85 3.67 3.51 3.26 3 2.99 2.93 2.68
1822.884 2.56 2.54 2.51 2.31 2.1852 2.33 2.42 2.46 2.44 2.32
1842.174 2.43 2.45 2.43 2.41 2.36 2.4 2.46 2.41 2.37 2.47
1861.464 2.43 2.4 2.31 2.1974 2.26 2.44 2.42 2.23 2.13 2.2027
1880.754 2.33 2.34 2.36 2.43 2.53 2.63 2.67 2.53 2.62 2.79
1900.043 2.68 2.74 2.84 2.77 2.82 2.79 2.65 2.75 2.78 2.8
1919.333 2.68 2.54 2.62 2.43 2.33 2.49 2.47 2.29 2.29 2.37
1938.623 2.3 2.25 2.25 2.1791 2.0173 1.7767 1.6831 1.6984 1.8177 1.9014
1957.913 1.9946 1.9033 1.605 1.7597 1.7978 1.5937 1.4992 1.5609 1.7962 1.7764
1977.202 1.649 1.8189 1.931 1.86 1.8334 1.8821 1.8621 1.796 1.726 1.76
1996.492 1.9912 1.8051 1.4858 1.5562 1.709 1.7134 1.6272 1.7501 1.7883 1.7854
2015.782 1.8221 1.6867 1.7268 1.8102 1.6172 1.5076 1.6471 1.6574 1.6193 1.6524
2035.072 1.7219 1.7118 1.6061 1.5997 1.7409 1.795 1.7357 1.6791 1.5523 1.4841
2054.362 1.4735 1.4828 1.6083 1.73 1.6957 1.6864 1.7213 1.7269 1.9 1.7162
2073.651 1.621 1.732 1.6017 1.6462 1.6398 1.6505 1.6297 1.6864 1.6253 1.5841
2092.941 1.6714 1.7749 1.9066 1.9204 1.7712 1.566 1.5929 1.561 1.5473 1.6322
2112.231 1.5891 1.5884 1.6443 1.5707 1.5049 1.5657 1.7335 1.8621 1.7037 1.503
2131.521 1.6105 1.6838 1.6096 1.5343 1.4553 1.5631 1.6489 1.6488 1.682 1.5991
2150.810 1.475 1.5777 1.9146 1.9259 1.8865 2.0199 2.1306 2.0581 1.7939 1.7946
2170.100 1.745 1.6803 1.7591 1.7323 1.5771 1.6192 1.7028 1.5008 1.3948 1.3369
2189.390 1.4936 1.6968 1.5892 1.5206 1.2473 1.20121 1.29034 1.24972 1.25532 1.2791
2208.680 1.4021 1.4174 1.3761 1.3131 1.3521 1.3356 1.26223 1.3981 1.5252 1.356
2227.970 1.1938 1.3548 1.5142 1.475 1.4546 1.4643 1.6076 1.6751 1.646 1.5683
2247.259 1.4665 1.4947 1.5073 1.4852 1.3823 1.1874 1.091 1.4037 1.6048 1.503
2266.549 1.5155 1.5905 1.516 1.5189 1.3486 1.3247 1.402 1.4721 1.4756 1.2032
2285.839 1.4357 1.3937 1.29014 1.29266 1.004 1.022 1.1602 1.1366 1.1168 1.1585
2305.129 1.26205 1.3416 1.29268 1.1965 1.1695 1.24808 1.1957 1.039 1.1472 1.4021
2324.418 1.3835 1.2043 1.28541 1.6054 1.7003 1.6807 1.6669 1.5331 1.29733 1.21117
2343.708 1.24059 1.1833 1.017 1.1494 1.26798 1.035 1.25222 1.1488 0.737 0.94
2362.998 1.1795 1.1597 1.27915 1.3423 1.1855 1.21003 1.3982 1.3606 1.20628 1.27846
2382.288 1.517 1.517 1.24322 1.1533 1.27794 1.23218 1.20983 1.3698 1.3608 1.4479
2401.578 1.5723 1.3924 1.1454 1.24735 1.28275 1.166 1.4308 1.4207 1.3673 1.603
2420.867 1.5186 1.4426 1.3683 1.3059 1.353 1.516 1.5634 1.4099 1.5681 1.471
2440.157 1.20532 1.3205 1.3823 1.3165 1.3219 1.4844 1.6574 1.8342 1.8057 1.9436
2459.447 1.8992 1.6688 1.9548 1.88 1.8176 1.6477 1.3755 1.6096 1.8647 1.5693
2478.737 1.4533 1.4854 1.4033 1.5636 1.6517 1.5931 1.3863 1.4599 1.497 1.382
2498.026 1.4224 1.3377 1.3839 1.4132 1.3242 1.4615 1.6174 1.4848 1.029 0.874
2517.316 1.1948 1.27611 1.18 1.093 0.87 1.1748 1.30799 1.083 1.069 1.1244
2536.606 1.1812 1.1173 1.343 1.4416 1.1391 1.099 1.21927 1.004 0.846 1.27418
2555.896 1.25866 0.956 1.07 1.1596 1.1744 0.954 1.021 1.26954 1.372 1.23282
2575.186 0.929 1.065 1.057 0.646 0.726 0.84 1.27576 1.7322 1.391 1.1595
2594.475 0.998 1.018 1.21648 1.1899 1.1851 1.23298 1.27126 1.3757 1.4388 1.30423
2613.765 1.3593 1.4216 1.26508 1.106 0.94 0.969 1.1451 1.103 0.873 0.987
2633.055 1.22028 1.20843 1.081 1.024 1.1118 1.20798 1.22508 1.3888 1.3157 1.012
2652.345 1.051 1.1175 0.993 0.975 1.1612 1.3693 1.58 1.6495 1.1109 0.877
2671.634 1.393 1.042 0.777 1.30726 1.3146 0.991 0.982 0.994 0.81 0.747
2690.924 0.849 0.72 0.529 0.644 0.817 0.988 0.758 0.67 1.064 1.1146
2710.214 1.1988 1.3682 1.25903 1.116 0.858 0.608 0.792 1.2315 1.25617 0.953
2729.504 0.83 0.667 0.617 0.846 0.838 0.761 0.92 0.733 0.767 1.1109
2748.794 0.871 0.945 1.1439 0.898 0.895 0.957 0.803 0.531 0.643 0.946
2768.083 0.675 0.653 0.754 0.932 1.019 0.879 1.22632 1.28583 1.015 1.126
2787.373 1.1871 1.20376 1.1692 1.1828 1.1846 1.21337 1.29952 1.016 0.888 0.9
2806.663 1.27966 1.4474 1.30843 1.3123 1.29495 1.012 0.998 1.3849 1.29845 1.1629
2825.953 1.1543 1.4346 1.4409 1.21963 1.4513 1.543 1.3952 1.5724 1.5528 1.4717
2845.242 1.4553 1.5428 1.6785 1.7092 1.7902 1.5412 1.4982 1.346 1.4875 1.7722
2864.532 1.6648 1.451 1.4505 1.6666 1.8898 2.24 2.1553 1.8466 1.7956 1.761
2883.822 1.7906 2.0196 2.0129 2.1753 2.24 2.0745 2.048 2.0248 2.0197 1.7751
2903.112 1.6699 1.8982 2.0864 2.0975 2.1434 2.25 2.1883 2.22 2.48 2.7
2922.401 3.02 3.21 3.12 2.81 2.89 3.16 3.21 3.33 2.93 2.88
2941.691 3.14 2.84 2.94 3 2.83 2.67 2.62 2.91 3.03 3.24
2960.981 3.22 2.74 2.38 2.62 2.93 2.9 3.27 3.27 2.87 3.09
2980.271 3.27 3.11 2.96 2.84 3.03 2.71 2.44 2.68 2.73 3.06
2999.561 3.49 3.87 4.28 4.79 5.21 5.31 5.47 5.99 6.08 5.87
3018.850 6 5.78 5.34 5.44 5.5 5.35 5.37 5.19 5.4 5.76
3038.140 6.05 6.17 5.94 6.23 5.92 5.17 5.04 4.96 4.52 4.17
3057.430 3.93 3.68 3.67 3.71 4.04 4.1 4.51 5.08 5.44 5.99
3076.720 6.29 6.42 6.58 6.87 7.1 7.27 6.86 5.9 5.16 4.98
3096.009 4.84 4.5 4.15 4.09 3.87 3.2 2.74 2.51 2.53 2.44
3115.299 2.0636 1.9531 2.2026 2.0995 1.5255 0.958 1.3244 1.8729 1.4444 1.028
3134.589 1.27909 1.3869 1.1969 0.956 0.755 0.926 1.30689 1.27206 1.052 1.3272
3153.879 1.1151 0.872 1.2416 1.4496 1.24481 0.954 0.992 0.662 0.685 0.923
3173.169 0.651 0.776 0.857 0.631 0.861 1.4251 1.1727 0.77 0.869 1.4687
3192.458 1.1741 0.363 0.536 0.772 1.06 1.001 0.986 1.26944 1.6469 1.5243
3211.748 0.921 0.804 1.019 0.897 0.746 1.1935 1.23478 1.076 1.042 0.959
3231.038 0.858 0.619 0.908 0.987 0.985 1.032 1.093 1.21856 1.3215 1.3188
3250.328 1.007 0.797 0.755 1.25358 1.25692 0.898 1.1197 1.142 0.833 0.815
3269.617 1.098 1.3153 1.3644 1.28351 0.812 0.73 1.23812 1.335 1.3328 1.3276
3288.907 0.938 0.651 1.038 1.069 0.877 1.1147 1.4196 1.5487 1.4763 1.5543
3308.197 1.6786 1.7157 1.1615 0.718 0.979 1.1345 1.5137 1.4968 1.1323 1.22809
3327.487 1.077 1.24031 1.25486 1.059 1.4627 1.4483 1.6735 1.9954 1.6816 1.7985
3346.777 2.168 2.1835 1.6758 1.4809 1.4138 1.3553 1.7961 1.744 1.8342 2.0952
3366.066 2.0618 2.084 2.0604 1.5733 1.1604 1.4051 1.5225 1.27453 1.27882 1.7128
3385.356 2.1792 1.9984 1.5607 1.5871 1.6474 1.8666 1.8636 1.7507 2.27 2.21
3404.646 1.5223 1.6176 1.8406 1.7762 1.29517 0.913 1.4963 1.4075 1.019 1.4175
3423.936 1.5222 1.30673 1.30827 1.186 0.949 1.1341 1.1698 1.059 0.818 0.571
3443.225 0.69 0.68 0.733 0.727 0.691 0.73 1.041 0.945 1.1686 1.4208
3462.515 0.778 0.862 1.1938 1.1361 0.773 0.747 0.952 0.831 1.1809 1.8382
3481.805 1.7085 0.931 0.763 0.973 1.106 1.27292 1.21497 1.1892 0.892 0.966
3501.095 1.4043 1.3282 1.21256 0.977 0.79 0.659 0.619 0.879 1.087 1.1269
3520.385 1.22119 1.1926 0.945 0.727 0.747 1.25295 1.7425 1.8153 1.5272 1.5593
3539.674 1.29355 0.865 0.974 1.031 1.4341 1.4982 1.1985 1.024 0.846 1.3719
3558.964 1.21686 0.701 1.1638 1.1846 0.986 1.21259 1.3594 1.20098 1.036 0.946
3578.254 0.992 1.8524 1.8947 1.042 1.069 1.30362 1.4498 1.6411 1.20867 1.025
3597.544 1.22573 1.22054 1.4156 1.5635 1.1552 1.008 1.004 0.796 1.1895 1.1996
3616.833 1.1939 1.5884 1.6279 1.28542 0.926 0.893 0.775 0.813 0.996 1.1667
3636.123 1.22997 0.939 0.874 0.818 0.746 0.946 0.837 0.988 0.953 0.772
3655.413 1.049 1.26355 1.4879 1.7986 1.72 1.5484 1.1635 0.943 1.19 1.30634
3674.703 1.24667 0.846 1.1472 1.6162 1.3774 1.1805 1.1626 0.757 0.816 1.1736
3693.993 1.1608 1.103 0.954 0.424 0.461 0.895 0.693 0.942 1.1966 1.3503
3713.282 1.4429 1.057 0.659 0.721 1.091 1.22272 1.26821 1.244 1.1712 1.29446
3732.572 1.28125 1.5784 1.5846 1.20974 1.091 0.946 0.693 0.472 0.605 0.09
3751.862 0.379 0.97 0.756 0.814 0.825 0.837 1.1604 1.133 1.1694 0.699
3771.152 0.01 0.556 0.808 0.69 0.816 0.849 0.858 1.064 1.26181 0.766
3790.441 0.379 0.88 1.1418 0.632 0.473 0.971 1.004 0.331 0 0.634
3809.731 0.887 0.823 1.521 1.28147 0.667 1.22663 1.3164 1.3492 1.3288 0.605
3829.021 0.476 0.936 1.3673 1.5321 1.6039 1.6082 1.5832 1.22509 1.21995 1.4848
3848.311 1.3448 1.058 0.897 0.989 0.79 0.898 0.936 1.25966 1.6663 1.1646
3867.601 0.763 0.76 1.04 1.3156 1.30332 1.28382 1.3672 1.2362 0.576 0.257
3886.890 0.409 0.67 0.804 0.657 0.969 1.26844 1.005 0.676 0.435 0.706
3906.180 1.082 0.947 0.773 0.775 0.938 1.008 1.4012 1.4441 1.1639 1.143
3925.470 1.2946 1.4681 1.366 1.6346 2.1451 1.8705 1.4307 1.3627 1.9336 2.1028
3944.760 1.4378 0.991 0.562 0.639 1.30433 1.6273 1.082 0.893 0.837 0.907
3964.049 0.964 0.903 0.606 0.557 0.937 1.147 1.23267 1.07 0.984 0.802
3983.339 0.965 0.886 0.371 0.323 0.639 0.9 1.03 1.056 0.797 1.03
##END=
