##TITLE=4-Methyl-1,5-Heptadiene
##JCAMP-DX=4.24
##DATA TYPE=INFRARED SPECTRUM
##ORIGIN=NIST Mass Spectrometry Data Center
##OWNER=NIST Standard Reference Data Program
Collection (C) 2018 copyright by the U.S. Secretary of Commerce
on behalf of the United States of America. All rights reserved.
##CAS REGISTRY NO=998-94-7
##MOLFORM=C 8 H 14
##$NIST SOURCE=MSDC-IR
##SPECTROMETER/DATA SYSTEM=HP-GC/MS/IRD
##STATE=gas
##XUNITS=1/CM
##YUNITS=ABSORBANCE
##XFACTOR=1.0
##YFACTOR=0.000001900
##DELTAX=4.0
##FIRSTX=550.0
##LASTX=3846.0
##FIRSTY=0.000523
##MAXX=3846
##MINX=550
##MAXY=0.019
##MINY=0
##NPOINTS=825
##XYDATA=(X++(Y..Y))
550.0 275 184 100 121 113 176 233 195 176 155
590.0 129 124 123 150 222 290 278 305 384 440
630.0 430 410 412 405 389 342 290 262 261 244
670.0 198 129 50 57 59 46 60 44 46 54
710.0 61 85 104 80 52 34 40 35 7 1
750.0 3 15 29 26 27 32 38 9 13 61
790.0 83 73 59 83 97 95 125 144 159 172
830.0 191 255 304 312 337 377 408 440 464 505
870.0 579 656 746 877 1031 1249 1572 2022 2627 3238
910.0 3746 4016 3920 3576 3101 2617 2286 2128 2184 2474
950.0 2903 3397 3898 4354 4718 4842 4640 4284 3896 3469
990.0 3060 2682 2300 1937 1605 1332 1130 982 889 836
1030.0 774 708 660 621 630 610 540 525 509 457
1070.0 422 393 368 370 380 349 324 310 302 314
1110.0 294 301 328 332 327 328 319 312 317 294
1150.0 308 317 278 245 242 244 215 208 196 158
1190.0 145 158 193 234 256 271 299 320 321 312
1230.0 273 261 255 234 236 257 296 321 331 348
1270.0 381 396 392 380 369 378 395 414 438 448
1310.0 456 459 466 495 528 579 612 633 648 635
1350.0 618 618 648 728 854 993 1112 1226 1295 1233
1390.0 1105 965 849 772 753 782 807 857 940 1053
1430.0 1219 1432 1665 1883 2040 2127 2116 2020 1848 1612
1470.0 1367 1133 907 732 596 488 425 396 372 333
1510.0 291 276 266 261 243 221 217 226 222 206
1550.0 194 195 198 185 172 154 158 177 181 171
1590.0 169 174 186 225 259 305 373 471 639 862
1630.0 1137 1375 1473 1454 1342 1086 753 517 388 320
1670.0 276 236 194 167 147 128 135 137 128 127
1710.0 134 141 142 160 189 212 230 239 241 231
1750.0 215 202 183 163 145 136 123 110 104 103
1790.0 105 105 125 149 167 199 257 325 399 462
1830.0 495 484 431 356 264 190 143 109 89 79
1870.0 77 71 56 45 39 40 40 39 39 48
1910.0 43 29 35 38 31 22 24 27 21 20
1950.0 29 45 50 52 67 83 81 74 67 66
1990.0 69 60 53 57 57 50 57 52 33 21
2030.0 19 31 36 31 26 16 14 19 26 26
2070.0 17 12 18 16 5 12 19 12 9 9
2110.0 9 8 3 7 7 7 19 21 17 16
2150.0 19 21 17 17 14 4 0 7 23 21
2190.0 10 8 8 10 12 10 1 6 6 11
2230.0 14 7 12 18 14 10 11 21 30 25
2270.0 14 15 24 25 11 8 11 22 27 14
2310.0 13 21 24 17 19 26 20 23 26 25
2350.0 26 27 35 26 18 27 24 19 16 19
2390.0 25 25 19 24 35 39 38 34 30 20
2430.0 19 18 22 19 9 14 13 16 25 26
2470.0 32 36 41 42 30 22 23 29 42 34
2510.0 24 29 34 39 34 36 46 41 38 34
2550.0 19 22 34 35 35 43 51 50 44 49
2590.0 59 50 36 32 37 33 31 44 51 42
2630.0 35 36 37 39 42 41 44 54 53 51
2670.0 59 62 57 61 70 64 63 89 102 101
2710.0 112 128 143 154 177 220 259 275 283 280
2750.0 257 225 207 198 185 183 193 198 221 252
2790.0 269 281 322 368 398 436 493 588 707 822
2830.0 967 1149 1355 1574 1794 2041 2386 2871 3425 3967
2870.0 4454 4810 5009 5108 5197 5319 5500 5773 6161 6653
2910.0 7189 7771 8370 8865 9066 8915 8527 7974 7337 6857
2950.0 6737 7049 7817 8810 9607 10000 9807 9123 8124 6835
2990.0 5677 4901 4392 4011 3714 3477 3268 3072 2881 2704
3030.0 2548 2372 2184 2011 1879 1783 1713 1721 1822 1963
3070.0 2167 2485 2787 2901 2803 2554 2133 1567 1113 847
3110.0 683 580 525 493 452 432 414 382 381 346
3150.0 291 277 276 254 224 195 184 183 168 148
3190.0 132 126 118 107 100 97 69 64 83 88
3230.0 66 55 60 57 54 54 53 30 35 47
3270.0 47 51 45 42 58 59 38 53 62 41
3310.0 34 39 35 40 44 40 46 44 24 27
3350.0 35 40 45 30 19 13 11 35 43 25
3390.0 25 50 56 33 41 57 75 60 29 33
3430.0 34 24 26 23 23 40 39 34 37 38
3470.0 39 30 28 22 28 37 32 43 46 41
3510.0 47 40 23 26 53 72 45 28 45 37
3550.0 49 55 31 28 43 54 40 30 37 47
3590.0 50 51 34 18 19 4 6 28 41 44
3630.0 49 51 47 37 58 73 52 36 39 37
3670.0 22 21 16 22 31 29 28 26 32 35
3710.0 37 38 42 37 40 48 32 29 28 43
3750.0 60 64 62 55 51 48 31 30 55 58
3790.0 41 36 42 44 37 50 63 31 33 54
3830.0 59 67 41 47 52
##END=
