##TITLE=Tri-N-propylsilane
##JCAMP-DX=4.24
##DATA TYPE=INFRARED SPECTRUM
##ORIGIN=EPA-IR VAPOR PHASE LIBRARY
##OWNER=SRD/NIST
Collection (C) 2018 copyright by the U.S. Secretary of Commerce
on behalf of the United States of America. All rights reserved.
##CAS REGISTRY NO=998-29-8
##MOLFORM=C 9 H 22 Si
##$NIST SOURCE=MSDC-IR
##STATE=gas
##XUNITS=1/CM
##YUNITS=ABSORBANCE
##XFACTOR=1.
##YFACTOR=0.001
##DELTAX=1.92934
##FIRSTX=549.9
##LASTX=3999.5
##FIRSTY=1.57
##MAXX=3999.53
##MINX=549.863
##MAXY=0.27501
##MINY=0
##NPOINTS=1789
##XYDATA=(X++(Y..Y))
549.863 1.57 1.59 1.68 1.87 2.007 1.82 1.81 1.972 2.07 2.117
569.156 2.25 2.435 2.716 2.8794 2.96827 3.2647 3.4778 3.5913 3.8368 4.2
588.450 4.62 4.87 5.14 5.46 5.85 6.3 6.76 7.17 7.55 7.99
607.743 8.38 8.85 9.31 9.67 10.03 10.39 10.66 10.85 11.03 11.07
627.037 11.17 11.28 11.31 11.36 11.51 11.73 11.89 12.07 12.28 12.52
646.330 12.81 13.13 13.37 13.59 13.82 14.02 14.36 14.69 14.96 15.35
665.624 15.8 16.28 16.79 17.38 17.98 18.58 19.3 19.99 20.71 21.56
684.917 22.39 23.28 24.22 25.17 26.26 27.54 28.77 30.06 31.56 33.07
704.210 34.55 36.05 37.6 38.99 40.36 41.68 42.73 43.69 44.62 45.36
723.504 45.83 46.04 46.02 45.83 45.41 44.67 43.68 42.5 41.13 39.64
742.797 38.14 36.74 35.54 34.69 34.08 33.75 33.87 34.45 35.38 36.44
762.091 37.65 38.95 40.19 41.32 42.19 42.83 43.29 43.48 43.52 43.61
781.384 43.69 43.7 43.7 43.85 44.02 44.17 44.43 44.71 45.04 45.48
800.678 46.03 46.64 47.39 48.27 49.29 50.64 52.32 54.34 56.89 60.02
819.971 63.7 68.09 73.28 79.29 86.09 93.61 101.73 110.31 119.27 128.46
839.264 137.79 147.05 155.89 163.78 169.76 173.17 173.41 170.17 163.5 153.99
858.558 142.39 129.45 116.12 103.21 91.51 81.5 73.41 67.09 62.25 58.74
877.851 56.2 54.25 52.68 51.31 49.81 47.94 45.62 42.79 39.6 36.24
897.145 32.6 28.78 25.07 21.67 18.71 16.24 14.27 12.78 11.63 10.67
916.438 9.85 9.18 8.65 8.15 7.67 7.36 7.13 6.91 6.74 6.55
935.732 6.4 6.33 6.28 6.24 6.23 6.18 6.16 6.24 6.33 6.32
955.025 6.35 6.48 6.54 6.63 6.83 6.99 7.17 7.46 7.78 8.15
974.318 8.58 9.1 9.74 10.53 11.5 12.64 13.91 15.44 17.24 19.35
993.612 21.89 24.86 28.32 32.11 36.04 39.89 43.31 46.04 47.84 48.69
1012.905 48.45 47.17 45.23 42.84 40.22 37.73 35.58 33.78 32.41 31.45
1032.199 30.75 30.36 30.25 30.42 30.97 32.01 33.58 35.78 38.59 42.01
1051.492 45.89 50.09 54.32 58.24 61.61 64.09 65.36 65.16 63.49 60.51
1070.786 56.4 51.37 45.71 39.86 34.19 28.94 24.37 20.56 17.46 14.9
1090.079 12.83 11.25 9.97 8.87 8.01 7.29 6.56 5.96 5.6 5.24
1109.372 4.92 4.58 4.18 3.93 3.7678 3.573 3.3513 3.2773 3.232 3.0521
1128.666 2.8777 2.768 2.62 2.585 2.606 2.507 2.327 2.205 2.306 2.311
1147.959 2.282 2.399 2.501 2.586 2.722 2.8327 2.96005 3.1303 3.3042 3.4631
1167.253 3.732 4.03 4.37 4.85 5.23 5.85 6.66 7.59 8.74 10.28
1186.546 12.24 14.51 17.29 20.38 23.58 26.76 29.58 32.14 34.12 35.46
1205.840 36.3 36.33 35.63 34.32 32.55 30.48 28.21 25.57 22.95 20.67
1225.133 18.16 15.54 13.47 11.82 10.2 8.99 8.12 7.34 6.75 6.3
1244.426 5.97 5.69 5.41 5.18 4.94 4.81 4.73 4.56 4.43 4.42
1263.720 4.29 4.13 4.04 3.97 3.98 3.96 3.8907 3.8747 3.9 3.95
1283.013 4.02 4.05 4.09 4.19 4.37 4.58 4.73 4.86 5.06 5.38
1302.307 5.69 5.95 6.28 6.68 7.25 8.07 9.02 10.17 11.62 13.47
1321.600 15.79 18.53 21.58 24.59 27.24 29.15 30.05 30.03 29.14 27.34
1340.894 24.76 21.59 18.21 15.04 12.45 10.63 9.43 8.68 8.26 8.02
1360.187 7.94 8.06 8.34 8.78 9.5 10.52 11.71 13.05 14.39 15.55
1379.480 16.5 17.24 17.62 17.54 17.04 16.35 15.72 15.34 15.34 15.69
1398.774 16.34 17.28 18.48 19.76 21.02 22.12 22.93 23.33 23.21 22.63
1418.067 21.68 20.48 19.14 17.8 16.54 15.46 14.64 14.13 13.79 13.67
1437.361 13.78 14.08 14.55 15.18 16.06 17.13 18.36 19.7 21.14 22.56
1456.654 23.94 25.17 26.06 26.55 26.61 26.22 25.28 23.84 22.1 20.28
1475.948 18.41 16.53 14.75 13.07 11.65 10.46 9.48 8.71 8.08 7.59
1495.241 7.19 6.88 6.59 6.3 6.06 5.81 5.61 5.45 5.28 5.08
1514.534 4.91 4.7 4.53 4.42 4.28 4.21 4.11 3.95 3.8175 3.7426
1533.828 3.6055 3.4299 3.284 3.1222 3.0498 2.96948 2.92097 2.89092 2.775 2.688
1553.121 2.618 2.572 2.55 2.489 2.455 2.457 2.407 2.317 2.317 2.332
1572.415 2.282 2.198 2.165 2.25 2.27 2.202 2.176 2.163 2.154 2.151
1591.708 2.116 2.133 2.136 2.078 2.124 2.163 2.145 2.155 2.12 2.069
1611.002 2.064 2.103 2.09 2.068 2.079 2.062 2.094 2.143 2.142 2.076
1630.295 2.07 2.09 2.036 2.041 2.055 2.072 2.036 1.99 1.99 1.997
1649.588 2.046 2.007 1.983 2.046 2.09 2.093 2.064 2.026 2.021 2.046
1668.882 2.037 2.071 2.096 2.064 2.086 2.106 2.061 2.002 2.04 2.123
1688.175 2.118 2.083 2.057 2.03 2.012 2.028 2.016 2.012 2.017 2.005
1707.469 1.997 1.982 1.959 1.941 1.924 1.88 1.89 1.84 1.83 1.8
1726.762 1.71 1.72 1.7 1.66 1.65 1.64 1.61 1.6 1.57 1.54
1746.056 1.54 1.56 1.53 1.51 1.54 1.51 1.52 1.5 1.46 1.48
1765.349 1.5 1.47 1.46 1.45 1.46 1.51 1.5 1.47 1.47 1.52
1784.642 1.55 1.55 1.56 1.55 1.49 1.5 1.55 1.53 1.48 1.56
1803.936 1.59 1.53 1.53 1.55 1.57 1.58 1.58 1.59 1.63 1.68
1823.229 1.67 1.66 1.65 1.65 1.67 1.67 1.67 1.66 1.69 1.71
1842.523 1.73 1.74 1.72 1.74 1.73 1.74 1.77 1.81 1.83 1.83
1861.816 1.87 1.88 1.85 1.83 1.84 1.83 1.84 1.83 1.83 1.84
1881.110 1.83 1.82 1.83 1.81 1.8 1.83 1.82 1.81 1.84 1.86
1900.403 1.89 1.88 1.87 1.87 1.88 1.934 1.941 1.934 1.961 1.942
1919.696 1.925 1.935 1.945 1.945 1.933 1.969 2.008 2.012 1.994 2.005
1938.990 2.028 2.005 1.984 1.964 1.939 1.923 1.911 1.926 1.911 1.89
1958.283 1.86 1.84 1.86 1.86 1.84 1.87 1.89 1.914 1.88 1.87
1977.577 1.921 1.961 1.953 1.969 2.035 2.076 2.094 2.129 2.176 2.208
1996.870 2.232 2.251 2.329 2.397 2.457 2.527 2.577 2.662 2.737 2.8193
2016.164 2.91844 3.0462 3.2115 3.3773 3.5367 3.7007 3.93 4.14 4.35 4.54
2035.457 4.67 4.76 4.81 4.83 4.84 4.88 4.88 4.92 5.01 5.11
2054.750 5.23 5.38 5.57 5.78 6.05 6.35 6.67 7.12 7.66 8.28
2074.044 9.11 10.14 11.49 13.35 15.91 19.53 24.72 32.16 42.66 56.85
2093.337 74.87 96.09 119.15 142.91 167.19 191.5 211.19 217.28 206 184.75
2112.631 161.9 139.01 115.15 91.27 69.4 51.15 37.18 27.1 20.08 15.29
2131.924 12.07 9.83 8.27 7.18 6.31 5.64 5.16 4.77 4.44 4.17
2151.218 3.92 3.6992 3.5475 3.368 3.1925 3.0487 2.89595 2.793 2.709 2.612
2170.511 2.552 2.483 2.375 2.317 2.3 2.214 2.154 2.144 2.115 2.081
2189.804 2.034 2.046 2.024 1.968 1.975 1.968 1.934 1.9 1.87 1.85
2209.098 1.84 1.83 1.86 1.88 1.88 1.85 1.83 1.86 1.87 1.86
2228.391 1.87 1.88 1.88 1.85 1.85 1.87 1.86 1.88 1.88 1.88
2247.685 1.904 1.86 1.83 1.88 1.9 1.913 1.924 1.92 1.942 1.943
2266.978 1.89 1.89 1.87 1.77 1.73 1.69 1.62 1.57 1.58 1.57
2286.272 1.52 1.48 1.46 1.48 1.52 1.54 1.53 1.52 1.49 1.45
2305.565 1.42 1.42 1.42 1.37 1.34 1.32 1.32 1.38 1.36 1.29
2324.858 1.3 1.33 1.32 1.34 1.34 1.34 1.35 1.33 1.35 1.38
2344.152 1.42 1.45 1.45 1.42 1.38 1.39 1.38 1.35 1.33 1.31
2363.445 1.29 1.32 1.35 1.39 1.4 1.4 1.42 1.43 1.41 1.46
2382.739 1.52 1.54 1.52 1.53 1.58 1.6 1.66 1.72 1.72 1.73
2402.032 1.75 1.76 1.74 1.7 1.67 1.62 1.58 1.54 1.48 1.47
2421.326 1.43 1.4 1.44 1.46 1.48 1.52 1.55 1.54 1.52 1.51
2440.619 1.49 1.51 1.51 1.5 1.52 1.57 1.57 1.55 1.52 1.49
2459.912 1.48 1.49 1.48 1.51 1.56 1.55 1.5 1.48 1.48 1.52
2479.206 1.53 1.54 1.55 1.54 1.55 1.57 1.6 1.61 1.65 1.66
2498.499 1.67 1.66 1.61 1.67 1.72 1.71 1.69 1.7 1.71 1.75
2517.793 1.74 1.73 1.75 1.75 1.72 1.73 1.73 1.67 1.65 1.62
2537.086 1.61 1.61 1.56 1.57 1.61 1.56 1.54 1.56 1.55 1.53
2556.380 1.52 1.53 1.58 1.57 1.58 1.63 1.68 1.72 1.73 1.69
2575.673 1.73 1.83 1.88 1.89 1.922 1.998 2.042 2.116 2.199 2.248
2594.966 2.318 2.458 2.553 2.637 2.772 2.91536 3.0231 3.1423 3.2673 3.3202
2614.260 3.4046 3.471 3.4781 3.4363 3.4132 3.3942 3.3472 3.3101 3.2187 3.1075
2633.553 3.0834 3.0882 3.0263 2.9911 3.0847 3.1663 3.1815 3.269 3.4007 3.4873
2652.847 3.4898 3.5297 3.5926 3.613 3.6545 3.6228 3.5343 3.4555 3.3566 3.2678
2672.140 3.2177 3.17 3.072 2.96274 2.8599 2.8494 2.8793 2.8 2.703 2.758
2691.434 2.8375 2.8206 2.798 2.73 2.712 2.8012 2.8843 2.90984 2.9996 3.095
2710.727 3.1859 3.3063 3.3794 3.5149 3.6981 3.8344 4.01 4.28 4.59 4.94
2730.020 5.32 5.62 5.91 6.23 6.34 6.36 6.46 6.45 6.35 6.25
2749.314 6.13 6.09 6.12 6.19 6.25 6.32 6.51 6.72 6.86 7.05
2768.607 7.37 7.71 8.03 8.42 8.87 9.39 10.04 10.63 11.24 11.89
2787.901 12.55 13.27 13.96 14.69 15.43 15.95 16.47 16.97 17.33 17.57
2807.194 17.58 17.49 17.46 17.46 17.48 17.49 17.59 17.72 17.85 18.11
2826.488 18.58 19.13 19.69 20.39 21.26 22.33 23.63 24.97 26.51 28.44
2845.781 30.6 32.97 35.7 39.07 43.09 47.78 53.44 60.21 68.2 77.66
2865.074 88.59 100.84 114 127.42 140.2 151.44 160.49 166.89 170.79 172.15
2884.368 170.99 167.91 163.58 159.1 155.19 152.47 151.11 150.82 151.54 153.01
2903.661 154.91 157.32 160.12 162.94 165.61 168 170.22 172.13 173.61 174.85
2922.955 176.18 177.82 179.85 182.25 184.6 186.4 186.8 185.31 182.08 177.78
2942.248 172.9 167.99 163.94 162.2 164.27 171.32 183.94 201.53 222.22 242.94
2961.542 260.67 272.41 275.01 266.83 250.08 227.72 201.47 173.3 145.9 121.73
2980.835 101.86 86.32 74.4 65.25 58.08 52.36 47.74 43.93 40.66 37.84
3000.128 35.45 33.28 31.36 29.68 28.11 26.72 25.49 24.35 23.24 22.1
3019.422 20.98 19.91 18.87 17.86 16.88 15.91 14.93 13.95 13.15 12.39
3038.715 11.57 10.93 10.39 9.85 9.46 9.14 8.76 8.43 8.09 7.68
3058.009 7.38 7.23 7.13 6.94 6.7 6.55 6.39 6.21 6.05 6.02
3077.302 5.94 5.77 5.65 5.49 5.47 5.43 5.28 5.23 5.11 5.05
3096.596 5.12 4.99 4.79 4.68 4.62 4.58 4.58 4.48 4.43 4.33
3115.889 4.19 4.21 4.19 4.07 3.98 3.96 3.8797 3.8326 3.7071 3.6588
3135.182 3.6906 3.5668 3.4297 3.4307 3.4736 3.4035 3.3959 3.4416 3.4404 3.3118
3154.476 3.2544 3.2591 3.1638 3.0126 3.0238 3.0022 3.01 3.0601 2.9988 2.95658
3173.769 2.8226 2.725 2.762 2.72 2.604 2.593 2.619 2.544 2.5 2.621
3193.063 2.628 2.571 2.53 2.475 2.401 2.285 2.144 2.032 1.943 1.87
3212.356 1.85 1.79 1.69 1.56 1.55 1.53 1.41 1.33 1.27 1.19
3231.650 1.12 1.12 1.05 1.04 1 0.99 1 0.88 0.87 1
3250.943 0.9 0.74 0.75 0.82 0.81 0.64 0.6 0.69 0.78 0.66
3270.236 0.51 0.51 0.55 0.64 0.7 0.78 0.66 0.55 0.67 0.61
3289.530 0.56 0.6 0.58 0.56 0.64 0.65 0.52 0.5 0.71 0.81
3308.823 0.69 0.69 0.73 0.69 0.7 0.82 0.97 0.82 0.59 0.55
3328.117 0.48 0.43 0.48 0.6 0.55 0.41 0.46 0.6 0.58 0.44
3347.410 0.3 0.17 0.23 0.24 0.16 0.09 0.03 0.09 0.08 0.07
3366.704 0.11 0.18 0.21 0.14 0.14 0.17 0.17 0.23 0.11 0.02
3385.997 0.03 0.12 0.15 0.11 0.27 0.29 0.17 0.17 0.2 0.27
3405.290 0.32 0.27 0.17 0.03 0.05 0.08 0.02 0.05 0.16 0.17
3424.584 0 0.02 0.16 0.13 0.05 0.14 0.23 0.1 0 0.07
3443.877 0.26 0.35 0.36 0.33 0.16 0.15 0.21 0.17 0.27 0.28
3463.171 0.15 0.22 0.23 0.14 0.29 0.31 0.24 0.38 0.47 0.38
3482.464 0.4 0.45 0.45 0.56 0.48 0.4 0.54 0.63 0.64 0.68
3501.758 0.71 0.67 0.7 0.65 0.46 0.46 0.57 0.67 0.71 0.68
3521.051 0.65 0.67 0.69 0.71 0.66 0.55 0.6 0.68 0.72 0.71
3540.344 0.66 0.67 0.6 0.53 0.62 0.74 0.75 0.67 0.56 0.62
3559.638 0.69 0.69 0.71 0.65 0.67 0.69 0.75 0.74 0.67 0.63
3578.931 0.67 0.65 0.59 0.6 0.6 0.53 0.58 0.67 0.69 0.74
3598.225 0.65 0.59 0.61 0.66 0.79 0.89 0.83 0.83 0.88 0.88
3617.518 0.83 0.82 0.88 0.85 0.83 0.8 0.71 0.79 0.88 0.79
3636.812 0.76 0.77 0.79 0.86 0.87 0.8 0.83 0.9 0.9 0.89
3656.105 0.96 0.97 0.93 0.89 0.83 0.89 1.03 1.02 0.9 0.95
3675.398 1.04 1.09 1.07 1.01 0.95 0.96 1.03 1.1 1.14 1.12
3694.692 1.19 1.25 1.19 1.08 1.07 1.13 1.14 1.17 1.12 1.16
3713.985 1.28 1.26 1.26 1.19 1.21 1.26 1.28 1.38 1.37 1.31
3733.279 1.26 1.16 1.11 1.17 1.22 1.18 1.16 1.23 1.29 1.24
3752.572 1.16 1.16 1.21 1.28 1.32 1.3 1.25 1.24 1.22 1.28
3771.866 1.29 1.29 1.32 1.25 1.21 1.15 1.08 1.06 1.1 1.13
3791.159 1.18 1.25 1.17 1.12 1.06 0.99 0.99 1.01 1.16 1.24
3810.452 1.15 1.07 1 0.96 0.97 1.04 1.09 0.98 0.93 1.01
3829.746 1.04 1.09 1.15 1.09 1.03 1.04 1.11 1.04 0.98 0.99
3849.039 0.94 1 1.1 1.16 1.13 1.11 1.12 1.13 1.22 1.25
3868.333 1.19 1.31 1.42 1.39 1.4 1.38 1.38 1.47 1.45 1.41
3887.626 1.58 1.69 1.59 1.6 1.69 1.69 1.69 1.69 1.7 1.79
3906.920 1.75 1.68 1.68 1.67 1.64 1.63 1.6 1.47 1.4 1.44
3926.213 1.53 1.54 1.52 1.55 1.53 1.49 1.47 1.52 1.59 1.62
3945.506 1.57 1.52 1.55 1.62 1.6 1.52 1.58 1.58 1.55 1.54
3964.800 1.49 1.47 1.47 1.39 1.3 1.3 1.35 1.43 1.42 1.32
3984.093 1.26 1.29 1.41 1.48 1.37 1.3 1.37 1.32 1.25
##END=
