##TITLE=3-Bromooctane
##JCAMP-DX=4.24
##DATA TYPE=INFRARED SPECTRUM
##ORIGIN=NIST Mass Spectrometry Data Center
##OWNER=NIST Standard Reference Data Program
Collection (C) 2018 copyright by the U.S. Secretary of Commerce
on behalf of the United States of America. All rights reserved.
##CAS REGISTRY NO=999-64-4
##MOLFORM=C 8 H 17 Br
##$NIST SOURCE=MSDC-IR
##SPECTROMETER/DATA SYSTEM=HP-GC/MS/IRD
##STATE=gas
##XUNITS=1/CM
##YUNITS=ABSORBANCE
##XFACTOR=1.0
##YFACTOR=0.000007500
##DELTAX=4.0
##FIRSTX=550.0
##LASTX=3846.0
##FIRSTY=0.000900
##MAXX=3846
##MINX=550
##MAXY=0.075
##MINY=0
##NPOINTS=825
##XYDATA=(X++(Y..Y))
550.0 120 139 49 45 25 32 38 26 37 63
590.0 102 144 181 236 297 336 362 356 317 265
630.0 209 150 104 70 32 20 20 14 14 9
670.0 5 2 2 10 8 4 12 14 20 37
710.0 61 87 125 170 213 234 229 211 178 148
750.0 132 121 119 134 160 182 207 242 285 350
790.0 424 485 520 513 466 391 317 265 229 215
830.0 212 219 245 271 290 319 356 380 385 393
870.0 392 377 363 354 341 320 298 268 230 195
910.0 164 139 117 105 88 73 65 63 78 91
950.0 110 129 146 155 151 141 127 114 103 86
990.0 71 60 54 56 56 49 50 60 64 70
1030.0 71 77 84 85 95 100 112 122 127 132
1070.0 134 138 137 141 145 150 150 146 154 166
1110.0 194 231 275 316 362 416 460 470 448 406
1150.0 349 318 332 380 463 576 694 784 830 829
1190.0 795 755 736 754 797 833 841 816 750 663
1230.0 580 508 448 397 361 339 337 350 387 445
1270.0 521 610 702 792 862 894 884 844 791 733
1310.0 673 613 552 497 458 436 432 439 439 431
1350.0 419 409 410 420 437 476 553 673 790 842
1390.0 783 633 474 366 308 285 292 320 368 442
1430.0 547 684 840 995 1151 1323 1506 1655 1720 1653
1470.0 1466 1196 909 667 490 371 293 239 202 177
1510.0 157 139 121 110 101 92 84 81 77 74
1550.0 70 67 67 61 57 54 50 45 42 40
1590.0 36 34 34 32 29 29 30 29 29 32
1630.0 35 33 28 28 26 25 26 25 19 19
1670.0 19 16 15 16 13 10 12 9 5 6
1710.0 3 2 5 3 3 2 2 3 5 5
1750.0 4 4 2 2 0 0 0 1 1 0
1790.0 1 1 0 2 3 2 0 1 2 2
1830.0 5 5 2 2 5 7 3 0 4 5
1870.0 4 3 4 5 4 4 5 5 4 8
1910.0 11 9 6 6 4 4 4 2 1 4
1950.0 6 5 6 6 4 3 5 7 4 2
1990.0 3 5 6 4 4 5 3 4 5 9
2030.0 10 12 11 9 10 11 10 8 6 8
2070.0 8 5 6 7 7 6 6 5 5 4
2110.0 3 3 2 6 6 2 0 3 6 6
2150.0 6 5 5 6 6 3 5 9 6 5
2190.0 6 3 1 4 5 6 6 7 8 7
2230.0 9 8 7 6 7 9 6 7 7 7
2270.0 8 9 8 10 15 15 14 14 15 15
2310.0 17 18 14 15 18 18 19 21 20 18
2350.0 19 22 22 18 22 27 25 24 23 23
2390.0 22 21 24 25 26 27 26 26 26 24
2430.0 25 24 22 20 18 17 14 15 15 16
2470.0 17 17 19 22 22 20 21 24 24 23
2510.0 22 21 27 36 37 38 39 40 41 43
2550.0 46 46 46 48 49 49 51 53 53 56
2590.0 58 58 61 63 62 60 60 61 62 62
2630.0 68 73 71 75 84 90 92 97 101 106
2670.0 110 110 112 115 118 124 127 127 125 128
2710.0 130 130 136 143 154 166 177 193 209 217
2750.0 221 220 214 212 216 221 229 243 265 289
2790.0 312 346 378 404 437 477 525 580 650 740
2830.0 853 1008 1213 1465 1772 2146 2575 3026 3441 3782
2870.0 4014 4176 4349 4491 4531 4469 4352 4310 4423 4671
2910.0 5025 5492 6102 6865 7723 8563 9278 9793 10000 9846
2950.0 9450 9015 8849 9100 9524 9636 9082 7802 6163 4645
2990.0 3449 2563 1929 1505 1218 1022 882 778 703 636
3030.0 573 520 474 432 401 375 345 329 316 306
3070.0 308 301 284 275 268 252 240 228 219 210
3110.0 205 199 186 179 175 171 163 157 152 152
3150.0 153 150 144 139 128 121 121 115 111 110
3190.0 96 90 88 83 77 70 71 67 57 58
3230.0 52 49 50 43 44 47 42 38 39 36
3270.0 34 32 31 32 31 29 29 23 20 24
3310.0 20 11 12 22 23 20 13 18 24 23
3350.0 20 18 22 25 27 24 22 25 23 18
3390.0 19 19 21 20 17 22 24 19 19 18
3430.0 16 15 10 10 16 14 16 20 16 15
3470.0 16 14 13 10 9 14 10 5 8 7
3510.0 11 14 12 16 18 17 18 19 19 15
3550.0 14 14 22 23 22 20 13 4 3 6
3590.0 4 12 15 16 20 23 27 27 21 16
3630.0 18 21 24 26 26 23 19 20 14 14
3670.0 19 18 21 24 27 30 25 22 23 23
3710.0 24 20 21 30 28 24 24 26 32 36
3750.0 33 27 25 29 23 18 19 23 22 22
3790.0 18 16 23 30 30 23 25 32 29 22
3830.0 24 26 24 26 25
##END=
