##TITLE=4-Chlorooctane
##JCAMP-DX=4.24
##DATA TYPE=INFRARED SPECTRUM
##ORIGIN=NIST Mass Spectrometry Data Center
##OWNER=NIST Standard Reference Data Program
Collection (C) 2018 copyright by the U.S. Secretary of Commerce
on behalf of the United States of America. All rights reserved.
##CAS REGISTRY NO=999-07-5
##MOLFORM=C 8 H 17 Cl
##$NIST SOURCE=MSDC-IR
##SPECTROMETER/DATA SYSTEM=HP-GC/MS/IRD
##STATE=gas
##XUNITS=1/CM
##YUNITS=ABSORBANCE
##XFACTOR=1.0
##YFACTOR=0.000003400
##DELTAX=4.0
##FIRSTX=550.0
##LASTX=3846.0
##FIRSTY=0.000554
##MAXX=3846
##MINX=550
##MAXY=0.034
##MINY=0
##NPOINTS=825
##XYDATA=(X++(Y..Y))
550.0 163 78 0 24 38 36 48 75 92 71
590.0 70 93 126 170 193 230 278 298 295 284
630.0 259 232 236 242 249 300 338 400 474 498
670.0 479 432 359 262 201 151 114 104 102 108
710.0 107 107 124 171 214 253 308 370 429 501
750.0 558 587 597 562 491 420 348 294 261 234
790.0 228 213 197 194 157 143 146 139 135 132
830.0 131 128 119 122 135 136 138 143 149 160
870.0 171 189 218 223 209 206 204 184 166 159
910.0 152 161 181 211 245 275 298 305 293 264
950.0 231 204 178 164 158 158 169 168 153 148
990.0 138 122 114 100 74 60 55 43 30 28
1030.0 40 51 68 75 81 87 89 99 106 108
1070.0 108 112 111 113 129 132 134 151 167 181
1110.0 195 215 223 236 251 248 231 210 194 167
1150.0 145 119 91 71 72 76 76 93 110 130
1190.0 161 196 241 282 321 355 371 373 372 375
1230.0 372 367 380 406 435 476 527 574 610 634
1270.0 643 621 587 561 547 541 548 559 555 547
1310.0 529 504 474 434 418 412 414 429 432 429
1350.0 416 395 375 360 368 402 453 521 573 591
1390.0 555 474 389 323 288 276 273 291 334 397
1430.0 479 575 677 783 893 1014 1149 1281 1354 1332
1470.0 1226 1043 823 622 457 342 269 227 191 164
1510.0 151 138 126 114 105 103 95 77 72 73
1550.0 65 61 52 53 51 42 44 44 40 41
1590.0 40 33 31 37 40 37 36 37 35 32
1630.0 39 44 42 37 31 25 25 30 33 35
1670.0 33 28 30 36 36 34 34 31 30 29
1710.0 29 26 22 25 27 26 23 26 29 28
1750.0 27 22 20 18 18 22 25 25 22 19
1790.0 21 19 24 24 24 24 22 22 21 17
1830.0 15 18 20 17 18 20 19 20 18 19
1870.0 21 23 24 22 21 21 22 25 27 21
1910.0 18 14 9 11 14 18 17 17 16 17
1950.0 21 19 14 11 15 15 14 18 17 17
1990.0 17 18 14 14 19 20 23 20 19 17
2030.0 14 16 20 20 23 24 22 21 21 24
2070.0 22 16 13 14 19 20 21 19 15 14
2110.0 19 20 13 17 19 14 16 14 14 14
2150.0 11 13 12 9 9 13 17 20 22 20
2190.0 19 21 23 20 18 20 23 20 18 15
2230.0 10 10 13 17 16 13 18 19 18 20
2270.0 18 14 19 21 16 15 15 12 16 20
2310.0 18 22 24 23 20 22 24 26 28 29
2350.0 27 25 22 21 25 26 28 32 33 31
2390.0 27 27 31 30 28 31 32 31 31 28
2430.0 29 27 24 21 23 26 27 28 30 29
2470.0 27 24 23 25 20 19 22 20 20 26
2510.0 32 31 30 33 34 37 41 42 43 47
2550.0 51 47 43 50 55 55 58 58 54 53
2590.0 54 56 57 55 55 56 62 61 53 54
2630.0 62 72 77 72 74 74 77 81 85 97
2670.0 98 99 101 101 103 110 112 112 118 117
2710.0 117 120 126 134 143 158 171 178 184 195
2750.0 197 200 193 180 190 199 201 211 225 244
2790.0 268 284 310 342 365 393 431 473 519 583
2830.0 680 792 923 1078 1258 1453 1673 1947 2316 2750
2870.0 3208 3663 4033 4197 4144 3949 3691 3512 3513 3666
2910.0 3910 4212 4569 5012 5587 6310 7141 7958 8579 8902
2950.0 8975 8961 9118 9579 10000 9761 8648 6890 4954 3403
2990.0 2409 1822 1472 1226 1053 931 827 746 681 634
3030.0 597 553 514 474 432 395 362 337 313 294
3070.0 276 261 254 244 239 233 219 208 206 198
3110.0 189 179 163 159 164 157 147 137 133 139
3150.0 137 121 115 110 97 103 112 106 101 102
3190.0 107 105 90 86 87 80 73 65 58 55
3230.0 59 57 55 51 55 54 46 46 35 34
3270.0 38 43 43 34 31 36 32 29 34 31
3310.0 28 32 40 41 39 37 28 23 29 38
3350.0 42 42 39 38 35 30 31 35 31 30
3390.0 34 33 26 34 36 23 23 23 22 15
3430.0 18 30 38 38 27 20 13 13 9 6
3470.0 11 21 28 17 13 15 13 19 23 23
3510.0 29 24 17 19 17 14 24 27 25 19
3550.0 15 27 30 20 21 20 11 17 24 19
3590.0 13 13 15 20 22 27 31 19 11 22
3630.0 37 29 14 22 31 28 28 27 16 11
3670.0 26 29 22 24 22 17 22 31 30 18
3710.0 8 14 24 23 28 28 26 24 28 31
3750.0 29 31 26 21 15 27 42 34 32 44
3790.0 48 38 30 30 35 31 26 34 29 27
3830.0 28 25 38 39 40
##END=
